Domenico_Di_Fonza_Right_1.c3d  



Time(s):	C_L_bicipite(μV):
0	123.66943
0.0005	110.17456
0.001	100.00305
0.0015	94.76624
0.002	99.2981
0.0025	105.23987
0.003	105.94482
0.0035	91.04004
0.004	73.31543
0.0045	60.12268
0.005	41.79382
0.0055	27.29187
0.006	6.44531
0.0065	-14.30054
0.007	-38.57117
0.0075	-74.52393
0.008	-95.06836
0.0085	-117.32483
0.009	-130.92041
0.0095	-127.89917
0.01	-111.78589
0.0105	-81.06995
0.011	-44.0094
0.0115	0.30212
0.012	83.28552
0.0125	179.56238
0.013	248.9502
0.0135	318.2373
0.014	366.17432
0.0145	396.38672
0.015	425.28992
0.0155	431.03027
0.016	423.7793
0.0165	387.323
0.017	318.03589
0.0175	222.76611
0.018	101.31226
0.0185	-20.44373
0.019	-158.31299
0.0195	-277.55127
0.02	-381.78406
0.0205	-454.49524
0.021	-503.54004
0.0215	-529.32129
0.022	-516.02783
0.0225	-463.96179
0.023	-412.80212
0.0235	-343.11218
0.024	-232.13196
0.0245	-123.77014
0.025	-25.68054
0.0255	40.78674
0.026	71.20056
0.0265	74.62463
0.027	70.09277
0.0275	63.04321
0.028	55.59082
0.0285	64.35242
0.029	75.02747
0.0295	91.745
0.03	95.47119
0.0305	94.76624
0.031	89.63013
0.0315	84.2926
0.032	83.48694
0.0325	64.151
0.033	54.18091
0.0335	51.26038
0.034	46.62781
0.0345	38.36975
0.035	43.10303
0.0355	45.52002
0.036	60.02197
0.0365	70.49561
0.037	85.80322
0.0375	103.22571
0.038	112.59155
0.0385	119.33899
0.039	162.44202
0.0395	178.75671
0.04	176.13831
0.0405	174.12415
0.041	175.53406
0.0415	147.94006
0.042	111.9873
0.0425	80.06287
0.043	55.2887
0.0435	15.81116
0.044	-11.68213
0.0445	-35.95276
0.045	-54.98657
0.0455	-62.33826
0.046	-74.42322
0.0465	-76.84021
0.047	-81.87561
0.0475	-76.53809
0.048	-85.80322
0.0485	-115.61279
0.049	-140.28625
0.0495	-151.46484
0.05	-145.72449
0.0505	-133.84094
0.051	-122.15881
0.0515	-96.17615
0.052	-74.92676
0.0525	-72.20764
0.053	-77.54517
0.0535	-69.99207
0.054	-30.31311
0.0545	4.83398
0.055	49.34692
0.0555	93.15491
0.056	120.04395
0.0565	133.23669
0.057	128.40271
0.0575	103.93066
0.058	78.65295
0.0585	67.67578
0.059	54.18091
0.0595	33.83789
0.06	-3.32336
0.0605	-56.09436
0.061	-93.55774
0.0615	-80.76782
0.062	-39.17542
0.0625	3.22266
0.063	45.01648
0.0635	77.44446
0.064	113.49792
0.0645	135.95581
0.065	145.72449
0.0655	163.75122
0.066	188.52539
0.0665	200.40894
0.067	178.95813
0.0675	158.01086
0.068	137.76855
0.0685	137.26501
0.069	127.59705
0.0695	107.05261
0.07	82.88269
0.0705	47.8363
0.071	10.27222
0.0715	-21.14868
0.072	-56.90002
0.0725	-93.35632
0.073	-141.19263
0.0735	-143.81104
0.074	-169.7937
0.0745	-179.76379
0.075	-171.40503
0.0755	-147.53723
0.076	-107.25403
0.0765	-50.05188
0.077	19.43665
0.0775	81.97632
0.078	144.01245
0.0785	197.28699
0.079	217.22717
0.0795	197.08557
0.08	171.20361
0.0805	130.8197
0.081	82.07703
0.0815	49.0448
0.082	18.73169
0.0825	-4.22974
0.083	-21.95435
0.0835	-54.88586
0.084	-75.12817
0.0845	-60.92834
0.085	-44.31152
0.0855	-45.92285
0.086	-69.58923
0.0865	-96.8811
0.087	-149.04785
0.0875	-206.14929
0.088	-242.50488
0.0885	-253.68347
0.089	-265.06348
0.0895	-260.83374
0.09	-233.23975
0.0905	-184.39636
0.091	-156.39954
0.0915	-147.03369
0.092	-136.05652
0.0925	-120.24536
0.093	-75.73242
0.0935	-8.45947
0.094	66.6687
0.0945	145.01953
0.095	203.43018
0.0955	249.45374
0.096	265.96985
0.0965	241.90063
0.097	186.41052
0.0975	121.35315
0.098	45.52002
0.0985	-28.9032
0.099	-104.53491
0.0995	-184.09424
0.1	-246.33179
0.1005	-267.37976
0.101	-266.97693
0.1015	-264.0564
0.102	-262.94861
0.1025	-235.95886
0.103	-182.48291
0.1035	-137.66785
0.104	-90.03296
0.1045	-33.83789
0.105	8.25806
0.1055	46.12427
0.106	73.21472
0.1065	91.94641
0.107	109.3689
0.1075	125.7843
0.108	138.57422
0.1085	149.55139
0.109	168.38379
0.1095	178.5553
0.11	183.38928
0.1105	182.58362
0.111	165.56396
0.1115	139.88342
0.112	118.2312
0.1125	90.93933
0.113	52.16675
0.1135	15.50903
0.114	-15.1062
0.1145	-33.23364
0.115	-49.24622
0.1155	-68.68286
0.116	-100.90942
0.1165	-131.72607
0.117	-151.76697
0.1175	-159.7229
0.118	-140.58838
0.1185	-105.03845
0.119	-62.64038
0.1195	-34.34143
0.12	20.74585
0.1205	66.46729
0.121	106.04553
0.1215	141.39404
0.122	163.75122
0.1225	179.05884
0.123	174.72839
0.1235	153.98254
0.124	134.14307
0.1245	101.9165
0.125	71.20056
0.1255	24.27063
0.126	-14.40125
0.1265	-46.62781
0.127	-66.46729
0.1275	-73.51685
0.128	-87.21313
0.1285	-98.69385
0.129	-88.32092
0.1295	-76.23596
0.13	-79.66003
0.1305	-81.67419
0.131	-69.08569
0.1315	-43.10303
0.132	-21.24939
0.1325	12.99133
0.133	31.32019
0.1335	50.85754
0.134	72.71118
0.1345	101.8158
0.135	125.68359
0.1355	141.29333
0.136	158.5144
0.1365	183.99353
0.137	209.77478
0.1375	238.9801
0.138	257.91321
0.1385	260.3302
0.139	250.76294
0.1395	227.09656
0.14	202.32239
0.1405	172.51282
0.141	128.10059
0.1415	88.0188
0.142	37.36267
0.1425	-12.18567
0.143	-15.40833
0.1435	-12.78992
0.144	-15.20691
0.1445	27.39258
0.145	84.49402
0.1455	123.87085
0.146	169.18945
0.1465	196.48132
0.147	194.87
0.1475	167.37671
0.148	108.96606
0.1485	19.33594
0.149	-56.5979
0.1495	-125.68359
0.15	-199.60327
0.1505	-272.21375
0.151	-307.66296
0.1515	-293.56384
0.152	-266.27197
0.1525	-216.92505
0.153	-176.13831
0.1535	-164.55688
0.154	-159.32007
0.1545	-121.15173
0.155	-69.99207
0.1555	-46.22498
0.156	-14.40125
0.1565	17.72461
0.157	45.62073
0.1575	58.51135
0.158	64.05029
0.1585	66.87012
0.159	29.91028
0.1595	-13.29346
0.16	-44.11011
0.1605	-64.95667
0.161	-81.27136
0.1615	-95.26978
0.162	-108.96606
0.1625	-132.12891
0.163	-160.72998
0.1635	-166.87317
0.164	-161.73706
0.1645	-152.87476
0.165	-153.27759
0.1655	-120.14465
0.166	-63.94958
0.1665	-8.35876
0.167	33.63647
0.1675	59.31702
0.168	90.5365
0.1685	107.55615
0.169	127.39563
0.1695	145.01953
0.17	139.48059
0.1705	132.53174
0.171	175.43335
0.1715	226.99585
0.172	278.55835
0.1725	317.93518
0.173	357.81555
0.1735	384.8053
0.174	395.58105
0.1745	386.51733
0.175	351.16882
0.1755	283.69446
0.176	213.90381
0.1765	117.72766
0.177	8.35876
0.1775	-111.38306
0.178	-231.427
0.1785	-334.65271
0.179	-431.3324
0.1795	-495.98694
0.18	-536.67297
0.1805	-543.62183
0.181	-496.38977
0.1815	-426.90125
0.182	-363.65662
0.1825	-282.58667
0.183	-200.30823
0.1835	-132.43103
0.184	-91.44287
0.1845	-74.72534
0.185	-63.34534
0.1855	-52.16675
0.186	-23.36426
0.1865	11.17859
0.187	46.62781
0.1875	54.68445
0.188	65.25879
0.1885	92.65137
0.189	119.64111
0.1895	123.87085
0.19	126.08643
0.1905	124.4751
0.191	141.39404
0.1915	161.13281
0.192	173.11707
0.1925	185.00061
0.193	165.86609
0.1935	128.40271
0.194	106.04553
0.1945	107.25403
0.195	118.2312
0.1955	157.2052
0.196	257.8125
0.1965	392.05627
0.197	515.12146
0.1975	606.86646
0.198	688.84277
0.1985	726.80969
0.199	730.03235
0.1995	699.11499
0.2	628.21655
0.2005	503.54004
0.201	308.0658
0.2015	98.89526
0.202	-128.302
0.2025	-371.10901
0.203	-596.99707
0.2035	-781.39343
0.204	-922.88818
0.2045	-995.19653
0.205	-1001.33972
0.2055	-977.97546
0.206	-912.71667
0.2065	-797.50671
0.207	-635.26611
0.2075	-453.38745
0.208	-254.58984
0.2085	-99.09668
0.209	33.83789
0.2095	116.11633
0.21	142.90466
0.2105	166.16821
0.211	158.01086
0.2115	132.83386
0.212	91.745
0.2125	60.82764
0.213	30.2124
0.2135	-1.2085
0.214	-22.6593
0.2145	-44.81506
0.215	-50.45471
0.2155	-46.22498
0.216	-16.81824
0.2165	3.92761
0.217	44.51294
0.2175	76.63879
0.218	131.92749
0.2185	181.37512
0.219	202.32239
0.2195	208.26416
0.22	226.49231
0.2205	242.90771
0.221	247.43958
0.2215	234.75037
0.222	216.62292
0.2225	184.59778
0.223	146.73157
0.2235	109.87244
0.224	58.41064
0.2245	-3.12195
0.225	-63.34534
0.2255	-122.46094
0.226	-181.27441
0.2265	-218.03284
0.227	-216.92505
0.2275	-200.20752
0.228	-175.43335
0.2285	-131.82678
0.229	-76.33667
0.2295	-8.96301
0.23	49.64905
0.2305	99.70093
0.231	138.3728
0.2315	159.7229
0.232	159.62219
0.2325	144.51599
0.233	116.51917
0.2335	92.55066
0.234	81.37207
0.2345	87.91809
0.235	78.14941
0.2355	44.81506
0.236	39.57825
0.2365	62.64038
0.237	74.12109
0.2375	85.19897
0.238	134.04236
0.2385	211.48682
0.239	293.36243
0.2395	321.9635
0.24	333.14209
0.2405	336.96899
0.241	335.25696
0.2415	324.38049
0.242	285.91003
0.2425	223.16895
0.243	141.99829
0.2435	34.14001
0.244	-79.76074
0.2445	-187.82043
0.245	-287.52136
0.2455	-339.99023
0.246	-356.70776
0.2465	-352.0752
0.247	-320.85571
0.2475	-270.30029
0.248	-222.86682
0.2485	-197.4884
0.249	-178.45459
0.2495	-157.40662
0.25	-125.18005
0.2505	-76.7395
0.251	-30.61523
0.2515	20.44373
0.252	86.40747
0.2525	178.65601
0.253	255.49622
0.2535	306.75659
0.254	343.71643
0.2545	350.26245
0.255	310.38208
0.2555	249.75586
0.256	158.01086
0.2565	63.74817
0.257	-47.03064
0.2575	-155.9967
0.258	-260.73303
0.2585	-354.29077
0.259	-407.4646
0.2595	-440.59753
0.26	-444.82727
0.2605	-426.297
0.261	-381.38123
0.2615	-324.4812
0.262	-256.90613
0.2625	-193.56079
0.263	-144.41528
0.2635	-72.9126
0.264	11.17859
0.2645	91.04004
0.265	162.54272
0.2655	253.9856
0.266	321.66138
0.2665	346.43555
0.267	340.99731
0.2675	295.07446
0.268	255.79834
0.2685	205.34363
0.269	134.24377
0.2695	42.8009
0.27	-49.0448
0.2705	-108.56323
0.271	-167.77954
0.2715	-216.01868
0.272	-264.55994
0.2725	-298.49854
0.273	-311.79199
0.2735	-279.1626
0.274	-223.47107
0.2745	-136.96289
0.275	-55.2887
0.2755	26.48621
0.276	87.61597
0.2765	138.87634
0.277	177.64893
0.2775	177.24609
0.278	161.23352
0.2785	158.01086
0.279	144.11316
0.2795	117.82837
0.28	73.71826
0.2805	24.37134
0.281	-33.53577
0.2815	-75.73242
0.282	-102.82288
0.2825	-112.49084
0.283	-111.28235
0.2835	-93.25562
0.284	-47.63489
0.2845	-15.20691
0.285	-1.71204
0.2855	3.22266
0.286	-7.75452
0.2865	-4.43115
0.287	22.35718
0.2875	57.70569
0.288	82.78198
0.2885	88.62305
0.289	91.54358
0.2895	91.745
0.29	89.52942
0.2905	128.40271
0.291	150.8606
0.2915	168.4845
0.292	192.35229
0.2925	226.29089
0.293	234.95178
0.2935	237.57019
0.294	223.26965
0.2945	212.4939
0.295	184.49707
0.2955	155.09033
0.296	112.39014
0.2965	56.79932
0.297	-8.8623
0.2975	-60.22339
0.298	-109.77173
0.2985	-142.80396
0.299	-184.29565
0.2995	-188.02185
0.3	-160.42786
0.3005	-110.77881
0.301	-58.20923
0.3015	-5.94177
0.302	36.05347
0.3025	44.11011
0.303	29.91028
0.3035	-14.90479
0.304	-65.15808
0.3045	-113.29651
0.305	-132.63245
0.3055	-154.88892
0.306	-149.14856
0.3065	-129.30908
0.307	-115.7135
0.3075	-115.51208
0.308	-133.63953
0.3085	-128.50342
0.309	-135.75439
0.3095	-132.22961
0.31	-124.07227
0.3105	-84.79614
0.311	-23.56567
0.3115	28.60107
0.312	60.92834
0.3125	72.10693
0.313	66.76941
0.3135	63.04321
0.314	56.19507
0.3145	54.58374
0.315	63.84888
0.3155	78.35083
0.316	100.80872
0.3165	96.7804
0.317	91.04004
0.3175	77.24304
0.318	59.92126
0.3185	26.48621
0.319	11.17859
0.3195	-4.63257
0.32	-9.66797
0.3205	31.4209
0.321	57.70569
0.3215	70.3949
0.322	84.19189
0.3225	103.02429
0.323	143.00537
0.3235	183.99353
0.324	216.11938
0.3245	230.62134
0.325	242.7063
0.3255	237.36877
0.326	213.09814
0.3265	176.74255
0.327	137.76855
0.3275	82.68127
0.328	26.28479
0.3285	-24.57275
0.329	-63.14392
0.3295	-92.95349
0.33	-86.70959
0.3305	-47.7356
0.331	20.04089
0.3315	84.59473
0.332	142.40112
0.3325	205.14221
0.333	282.88879
0.3335	333.44421
0.334	338.17749
0.3345	291.44897
0.335	242.20276
0.3355	177.3468
0.336	102.42004
0.3365	3.62549
0.337	-114.00146
0.3375	-218.8385
0.338	-250.2594
0.3385	-309.375
0.339	-359.6283
0.3395	-363.85803
0.34	-348.85254
0.3405	-341.29944
0.341	-325.48828
0.3415	-338.78174
0.342	-350.66528
0.3425	-333.84705
0.343	-275.93994
0.3435	-183.38928
0.344	-73.31543
0.3445	27.99683
0.345	99.3988
0.3455	134.04236
0.346	136.25793
0.3465	114.505
0.347	45.11719
0.3475	-19.33594
0.348	-59.51843
0.3485	-99.70093
0.349	-120.34607
0.3495	-130.51758
0.35	-140.38696
0.3505	-158.81653
0.351	-176.0376
0.3515	-165.16113
0.352	-143.4082
0.3525	-133.74023
0.353	-104.13208
0.3535	-57.70569
0.354	-9.16443
0.3545	33.13293
0.355	59.01489
0.3555	63.44604
0.356	63.94958
0.3565	64.05029
0.357	51.76392
0.3575	54.18091
0.358	64.35242
0.3585	81.06995
0.359	90.5365
0.3595	108.66394
0.36	141.09192
0.3605	161.53564
0.361	169.18945
0.3615	163.85193
0.362	148.24219
0.3625	133.43811
0.363	125.18005
0.3635	130.21545
0.364	141.19263
0.3645	141.79688
0.365	133.53882
0.3655	120.04395
0.366	130.51758
0.3665	154.78821
0.367	167.17529
0.3675	177.74963
0.368	214.50806
0.3685	229.71497
0.369	211.99036
0.3695	191.24451
0.37	153.88184
0.3705	106.64978
0.371	25.98267
0.3715	-71.40198
0.372	-181.073
0.3725	-270.70312
0.373	-324.38049
0.3735	-346.53625
0.374	-350.26245
0.3745	-350.66528
0.375	-338.17749
0.3755	-330.52368
0.376	-304.03748
0.3765	-266.5741
0.377	-242.20276
0.3775	-226.79443
0.378	-201.71814
0.3785	-150.05493
0.379	-109.16748
0.3795	-82.58057
0.38	-46.42639
0.3805	-2.21558
0.381	38.974
0.3815	58.91418
0.382	107.65686
0.3825	144.11316
0.383	188.72681
0.3835	210.27832
0.384	235.1532
0.3845	258.71887
0.385	272.41516
0.3855	278.75977
0.386	279.56543
0.3865	298.59924
0.387	299.10278
0.3875	320.45288
0.388	305.44739
0.3885	236.96594
0.389	168.28308
0.3895	92.44995
0.39	11.17859
0.3905	-60.52551
0.391	-110.6781
0.3915	-121.05103
0.392	-101.51367
0.3925	-97.38464
0.393	-80.06287
0.3935	-73.21472
0.394	-76.84021
0.3945	-93.35632
0.395	-116.21704
0.3955	-110.57739
0.396	-128.302
0.3965	-153.88184
0.397	-177.44751
0.3975	-190.94238
0.398	-186.81335
0.3985	-159.01794
0.399	-147.03369
0.3995	-100.70801
0.4	-56.79932
0.4005	-38.57117
0.401	-38.06763
0.4015	-52.67029
0.402	-71.40198
0.4025	-68.58215
0.403	-49.14551
0.4035	-17.92603
0.404	28.29895
0.4045	76.03455
0.405	91.94641
0.4055	98.39172
0.406	92.55066
0.4065	83.38623
0.407	67.97791
0.4075	51.5625
0.408	36.35559
0.4085	32.83081
0.409	27.6947
0.4095	27.29187
0.41	15.60974
0.4105	13.99841
0.411	15.71045
0.4115	19.63806
0.412	26.78833
0.4125	32.02515
0.413	40.88745
0.4135	49.54834
0.414	62.13684
0.4145	68.48145
0.415	75.22888
0.4155	70.99915
0.416	63.74817
0.4165	64.35242
0.417	58.91418
0.4175	63.14392
0.418	47.8363
0.4185	47.43347
0.419	36.75842
0.4195	26.98975
0.42	21.45081
0.4205	15.40833
0.421	11.2793
0.4215	10.37292
0.422	5.0354
0.4225	8.35876
0.423	52.56958
0.4235	148.14148
0.424	230.01709
0.4245	293.0603
0.425	351.26953
0.4255	409.68018
0.426	446.4386
0.4265	450.06409
0.427	405.24902
0.4275	334.95483
0.428	241.90063
0.4285	148.04077
0.429	31.4209
0.4295	-66.16516
0.43	-152.67334
0.4305	-244.82117
0.431	-330.52368
0.4315	-392.96265
0.432	-422.77222
0.4325	-406.05469
0.433	-370.30334
0.4335	-310.18066
0.434	-205.54504
0.4345	-50.05188
0.435	114.505
0.4355	234.85107
0.436	311.08704
0.4365	328.71094
0.437	293.46313
0.4375	193.96362
0.438	69.48853
0.4385	-59.71985
0.439	-192.75513
0.4395	-317.33093
0.44	-424.98779
0.4405	-514.3158
0.441	-544.32678
0.4415	-531.13403
0.442	-469.29932
0.4425	-390.44495
0.443	-304.3396
0.4435	-158.01086
0.444	-17.52319
0.4445	72.40906
0.445	135.95581
0.4455	173.31848
0.446	182.28149
0.4465	181.67725
0.447	187.4176
0.4475	170.19653
0.448	166.47034
0.4485	147.03369
0.449	105.6427
0.4495	62.8418
0.45	10.97717
0.4505	-36.25488
0.451	-77.64587
0.4515	-119.03687
0.452	-134.24377
0.4525	-115.51208
0.453	-63.04321
0.4535	-29.10461
0.454	-6.14319
0.4545	29.80957
0.455	115.91492
0.4555	184.8999
0.456	217.22717
0.4565	239.88647
0.457	291.95251
0.4575	360.73608
0.458	410.08301
0.4585	416.3269
0.459	384.90601
0.4595	336.06262
0.46	291.65039
0.4605	229.71497
0.461	160.62927
0.4615	80.36499
0.462	25.57983
0.4625	-35.04639
0.463	-84.99756
0.4635	-126.9928
0.464	-149.55139
0.4645	-160.12573
0.465	-153.479
0.4655	-172.71423
0.466	-202.22168
0.4665	-211.68823
0.467	-220.34912
0.4675	-256.90613
0.468	-289.73694
0.4685	-331.83289
0.469	-357.81555
0.4695	-364.16016
0.47	-341.90369
0.4705	-277.45056
0.471	-215.21301
0.4715	-159.82361
0.472	-101.41296
0.4725	-45.62073
0.473	6.84814
0.4735	38.06763
0.474	30.41382
0.4745	6.84814
0.475	10.67505
0.4755	19.03381
0.476	25.177
0.4765	27.09045
0.477	29.70886
0.4775	34.24072
0.478	25.27771
0.4785	14.90479
0.479	13.89771
0.4795	20.84656
0.48	29.80957
0.4805	44.61365
0.481	55.79224
0.4815	48.33984
0.482	52.771
0.4825	70.59631
0.483	88.42163
0.4835	102.82288
0.484	115.81421
0.4845	113.59863
0.485	99.19739
0.4855	88.32092
0.486	77.44446
0.4865	86.10535
0.487	91.04004
0.4875	89.83154
0.488	88.32092
0.4885	85.80322
0.489	68.38074
0.4895	69.99207
0.49	105.84412
0.4905	154.78821
0.491	165.66467
0.4915	151.16272
0.492	140.78979
0.4925	140.68909
0.493	159.21936
0.4935	157.70874
0.494	144.6167
0.4945	150.65918
0.495	170.29724
0.4955	214.70947
0.496	220.34912
0.4965	210.68115
0.497	184.59778
0.4975	141.29333
0.498	76.53809
0.4985	10.0708
0.499	-57.8064
0.4995	-150.75989
0.5	-231.72913
0.5005	-288.52844
0.501	-335.05554
0.5015	-368.08777
0.502	-368.89343
0.5025	-333.34351
0.503	-281.57959
0.5035	-225.98877
0.504	-186.00769
0.5045	-144.21387
0.505	-105.13916
0.5055	-0.50354
0.506	104.53491
0.5065	197.08557
0.507	260.53162
0.5075	316.32385
0.508	342.30652
0.5085	369.49768
0.509	361.44104
0.5095	308.36792
0.51	253.28064
0.5105	180.16663
0.511	95.67261
0.5115	11.07788
0.512	-76.33667
0.5125	-148.04077
0.513	-221.85974
0.5135	-265.56702
0.514	-287.82349
0.5145	-267.98401
0.515	-256.30188
0.5155	-264.1571
0.516	-295.17517
0.5165	-300.21057
0.517	-305.95093
0.5175	-281.98242
0.518	-251.36719
0.5185	-158.91724
0.519	-68.07861
0.5195	21.95435
0.52	114.80713
0.5205	162.34131
0.521	194.76929
0.5215	208.46558
0.522	225.38452
0.5225	236.86523
0.523	245.32471
0.5235	235.35461
0.524	216.01868
0.5245	179.26025
0.525	131.52466
0.5255	57.40356
0.526	-14.80408
0.5265	-73.11401
0.527	-131.12183
0.5275	-178.05176
0.528	-196.27991
0.5285	-175.43335
0.529	-147.83936
0.5295	-143.3075
0.53	-126.48926
0.5305	-131.22253
0.531	-128.50342
0.5315	-110.6781
0.532	-116.11633
0.5325	-124.67651
0.533	-124.87793
0.5335	-114.80713
0.534	-90.13367
0.5345	-55.59082
0.535	-30.91736
0.5355	5.53894
0.536	12.78992
0.5365	1.81274
0.537	35.95276
0.5375	68.17932
0.538	85.09827
0.5385	129.91333
0.539	193.76221
0.5395	233.13904
0.54	256.90613
0.5405	246.5332
0.541	228.80859
0.5415	198.59619
0.542	164.55688
0.5425	130.01404
0.543	78.14941
0.5435	16.3147
0.544	-41.29028
0.5445	-91.8457
0.545	-101.11084
0.5455	-102.21863
0.546	-101.8158
0.5465	-53.77808
0.547	18.02673
0.5475	82.9834
0.548	154.98962
0.5485	190.53955
0.549	191.84875
0.5495	171.30432
0.55	138.07068
0.5505	107.85828
0.551	74.72534
0.5515	16.41541
0.552	-38.67188
0.5525	-63.14392
0.553	-73.71826
0.5535	-117.92908
0.554	-169.39087
0.5545	-152.47192
0.555	-90.23438
0.5555	-5.53894
0.556	80.56641
0.5565	157.30591
0.557	218.43567
0.5575	256.70471
0.558	264.86206
0.5585	248.44666
0.559	229.51355
0.5595	199.40186
0.56	179.05884
0.5605	140.08484
0.561	101.71509
0.5615	40.1825
0.562	-29.60815
0.5625	-126.89209
0.563	-218.33496
0.5635	-277.75269
0.564	-304.44031
0.5645	-320.15076
0.565	-315.41748
0.5655	-295.07446
0.566	-252.57568
0.5665	-219.64417
0.567	-227.6001
0.5675	-220.24841
0.568	-184.09424
0.5685	-141.09192
0.569	-112.49084
0.5695	-71.90552
0.57	-22.15576
0.5705	22.35718
0.571	31.21948
0.5715	15.00549
0.572	-21.45081
0.5725	-47.33276
0.573	-71.60339
0.5735	-90.63721
0.574	-89.52942
0.5745	-57.60498
0.575	-32.12585
0.5755	-14.09912
0.576	26.68762
0.5765	58.10852
0.577	79.96216
0.5775	113.09509
0.578	134.04236
0.5785	141.69617
0.579	147.53723
0.5795	135.35156
0.58	135.35156
0.5805	115.91492
0.581	87.41455
0.5815	68.58215
0.582	56.29578
0.5825	50.75684
0.583	44.61365
0.5835	27.99683
0.584	7.04956
0.5845	-43.90869
0.585	-86.50818
0.5855	-104.93774
0.586	-108.46252
0.5865	-107.05261
0.587	-95.87402
0.5875	-91.94641
0.588	-77.64587
0.5885	-52.97241
0.589	-28.80249
0.5895	3.62549
0.59	20.64514
0.5905	11.68213
0.591	-8.56018
0.5915	-12.5885
0.592	-25.98267
0.5925	-23.16284
0.593	-16.91895
0.5935	-0.30212
0.594	1.91345
0.5945	10.57434
0.595	44.91577
0.5955	51.5625
0.596	55.79224
0.5965	74.42322
0.597	91.04004
0.5975	117.82837
0.598	191.84875
0.5985	287.72278
0.599	381.58264
0.5995	486.92322
0.6	593.573
0.6005	682.19604
0.601	736.88049
0.6015	762.35962
0.602	740.60669
0.6025	673.43445
0.603	557.92236
0.6035	408.87451
0.604	230.01709
0.6045	44.31152
0.605	-143.60962
0.6055	-344.11926
0.606	-544.32678
0.6065	-715.93323
0.607	-845.94727
0.6075	-899.32251
0.608	-888.44604
0.6085	-763.87024
0.609	-611.1969
0.6095	-435.76355
0.61	-260.83374
0.6105	-97.48535
0.611	14.50195
0.6115	79.66003
0.612	75.12817
0.6125	43.00232
0.613	26.88904
0.6135	-8.96301
0.614	-53.27454
0.6145	-107.15332
0.615	-155.9967
0.6155	-195.87708
0.616	-231.93054
0.6165	-214.40735
0.617	-184.8999
0.6175	-152.06909
0.618	-121.65527
0.6185	-93.45703
0.619	-53.97949
0.6195	-19.03381
0.62	41.99524
0.6205	97.58606
0.621	115.20996
0.6215	133.63953
0.622	146.73157
0.6225	155.59387
0.623	139.98413
0.6235	115.61279
0.624	83.68835
0.6245	55.79224
0.625	39.57825
0.6255	29.20532
0.626	41.39099
0.6265	67.37366
0.627	88.32092
0.6275	109.06677
0.628	131.12183
0.6285	161.93848
0.629	199.40186
0.6295	213.09814
0.63	228.20435
0.6305	220.55054
0.631	217.5293
0.6315	195.47424
0.632	143.91174
0.6325	93.55774
0.633	39.57825
0.6335	-33.43506
0.634	-82.07703
0.6345	-138.97705
0.635	-161.53564
0.6355	-155.9967
0.636	-130.92041
0.6365	-109.67102
0.637	-68.07861
0.6375	-13.39417
0.638	14.60266
0.6385	22.76001
0.639	24.97559
0.6395	7.35168
0.64	-24.67346
0.6405	-51.46179
0.641	-88.42163
0.6415	-131.22253
0.642	-186.91406
0.6425	-220.65125
0.643	-221.75903
0.6435	-199.30115
0.644	-138.07068
0.6445	-74.62463
0.645	-7.75452
0.6455	45.2179
0.646	97.98889
0.6465	147.03369
0.647	177.3468
0.6475	186.71265
0.648	189.23035
0.6485	180.56946
0.649	160.72998
0.6495	138.87634
0.65	123.36731
0.6505	112.28943
0.651	99.09668
0.6515	67.77649
0.652	42.59949
0.6525	19.63806
0.653	11.58142
0.6535	21.04797
0.654	8.7616
0.6545	-11.2793
0.655	-19.13452
0.6555	-25.177
0.656	-54.98657
0.6565	-85.19897
0.657	-90.13367
0.6575	-97.98889
0.658	-125.48218
0.6585	-142.19971
0.659	-145.42236
0.6595	-108.86536
0.66	-55.99365
0.6605	-15.1062
0.661	37.26196
0.6615	75.22888
0.662	129.30908
0.6625	164.35547
0.663	169.59229
0.6635	175.03052
0.664	171.10291
0.6645	146.73157
0.665	96.47827
0.6655	67.97791
0.666	26.88904
0.6665	-7.04956
0.667	-63.44604
0.6675	-105.94482
0.668	-144.81812
0.6685	-149.55139
0.669	-144.31458
0.6695	-145.62378
0.67	-142.50183
0.6705	-138.47351
0.671	-146.93298
0.6715	-151.86768
0.672	-134.04236
0.6725	-59.92126
0.673	27.6947
0.6735	129.20837
0.674	243.31055
0.6745	369.90051
0.675	440.69824
0.6755	525.89722
0.676	592.56592
0.6765	626.00098
0.677	608.57849
0.6775	580.48096
0.678	519.95544
0.6785	421.2616
0.679	301.51978
0.6795	142.80396
0.68	-42.29736
0.6805	-230.92346
0.681	-384.20105
0.6815	-475.14038
0.682	-495.08057
0.6825	-502.23083
0.683	-477.45667
0.6835	-414.41345
0.684	-372.61963
0.6845	-335.35767
0.685	-259.82666
0.6855	-135.15015
0.686	-7.5531
0.6865	92.34924
0.687	138.07068
0.6875	183.08716
0.688	223.67249
0.6885	237.77161
0.689	195.77637
0.6895	126.38855
0.69	28.39966
0.6905	-57.50427
0.691	-95.37048
0.6915	-136.15723
0.692	-189.12964
0.6925	-261.13586
0.693	-335.65979
0.6935	-417.23328
0.694	-504.04358
0.6945	-559.43298
0.695	-573.02856
0.6955	-496.69189
0.696	-373.32458
0.6965	-242.80701
0.697	-93.85986
0.6975	10.77576
0.698	79.86145
0.6985	113.69934
0.699	129.91333
0.6995	146.32874
0.7	162.74414
0.7005	170.90149
0.701	177.74963
0.7015	168.18237
0.702	160.12573
0.7025	130.01404
0.703	90.73792
0.7035	74.2218
0.704	73.71826
0.7045	62.9425
0.705	54.58374
0.7055	55.89294
0.706	52.46887
0.7065	51.86462
0.707	46.42639
0.7075	38.26904
0.708	42.29736
0.7085	75.22888
0.709	136.35864
0.7095	210.98328
0.71	257.10754
0.7105	262.74719
0.711	260.53162
0.7115	268.28613
0.712	260.73303
0.7125	255.39551
0.713	225.68665
0.7135	194.9707
0.714	149.45068
0.7145	88.52234
0.715	13.29346
0.7155	-52.8717
0.716	-114.10217
0.7165	-163.65051
0.717	-208.46558
0.7175	-256.90613
0.718	-336.16333
0.7185	-365.9729
0.719	-364.16016
0.7195	-349.85962
0.72	-274.63074
0.7205	-177.85034
0.721	-104.03137
0.7215	-41.79382
0.722	-1.61133
0.7225	33.13293
0.723	50.55542
0.7235	76.03455
0.724	112.69226
0.7245	161.53564
0.725	196.98486
0.7255	231.12488
0.726	241.90063
0.7265	252.97852
0.727	257.10754
0.7275	246.93604
0.728	222.46399
0.7285	181.57654
0.729	153.78113
0.7295	118.53333
0.73	73.51685
0.7305	98.49243
0.731	147.63794
0.7315	207.76062
0.732	232.53479
0.7325	277.24915
0.733	306.95801
0.7335	324.88403
0.734	345.73059
0.7345	325.18616
0.735	259.72595
0.7355	174.8291
0.736	77.44446
0.7365	-12.38708
0.737	-117.32483
0.7375	-248.14453
0.738	-378.35999
0.7385	-491.55579
0.739	-592.76733
0.7395	-650.07019
0.74	-664.16931
0.7405	-629.82788
0.741	-558.92944
0.7415	-460.43701
0.742	-373.72742
0.7425	-269.79675
0.743	-135.04944
0.7435	-22.05505
0.744	84.99756
0.7445	188.92822
0.745	297.39075
0.7455	382.79114
0.746	430.52673
0.7465	466.17737
0.747	474.03259
0.7475	442.7124
0.748	387.02087
0.7485	323.27271
0.749	246.02966
0.7495	127.09351
0.75	7.85522
0.7505	-112.39014
0.751	-216.62292
0.7515	-307.05872
0.752	-382.2876
0.7525	-405.14832
0.753	-392.25769
0.7535	-367.78564
0.754	-322.56775
0.7545	-256.20117
0.755	-175.13123
0.7555	-137.26501
0.756	-98.99597
0.7565	-74.12109
0.757	-51.96533
0.7575	-16.11328
0.758	35.34851
0.7585	106.04553
0.759	165.9668
0.7595	202.62451
0.76	206.85425
0.7605	203.93372
0.761	250.56152
0.7615	332.53784
0.762	402.63062
0.7625	428.61328
0.763	453.9917
0.7635	435.36072
0.764	410.18372
0.7645	363.05237
0.765	325.6897
0.7655	274.93286
0.766	205.44434
0.7665	137.66785
0.767	70.29419
0.7675	14.40125
0.768	-40.2832
0.7685	-98.0896
0.769	-131.12183
0.7695	-170.80078
0.77	-248.44666
0.7705	-333.94775
0.771	-427.80762
0.7715	-514.4165
0.772	-577.96326
0.7725	-553.59192
0.773	-482.18994
0.7735	-384.90601
0.774	-291.04614
0.7745	-191.94946
0.775	-70.89844
0.7755	10.27222
0.776	43.70728
0.7765	97.58606
0.777	122.86377
0.7775	110.37598
0.778	81.17065
0.7785	42.29736
0.779	-4.53186
0.7795	-49.74976
0.78	-76.63879
0.7805	-106.24695
0.781	-151.36414
0.7815	-187.4176
0.782	-217.73071
0.7825	-236.16028
0.783	-201.11389
0.7835	-135.65369
0.784	-80.76782
0.7845	-24.27063
0.785	11.07788
0.7855	31.11877
0.786	40.48462
0.7865	74.52393
0.787	104.3335
0.7875	119.84253
0.788	141.69617
0.7885	150.8606
0.789	154.38538
0.7895	128.80554
0.79	110.37598
0.7905	98.59314
0.791	88.92517
0.7915	61.02905
0.792	67.37366
0.7925	92.65137
0.793	95.5719
0.7935	86.30676
0.794	84.99756
0.7945	83.38623
0.795	73.91968
0.7955	86.8103
0.796	101.9165
0.7965	188.42468
0.797	296.38367
0.7975	395.37964
0.798	477.65808
0.7985	526.19934
0.799	556.21033
0.7995	575.64697
0.8	577.45972
0.8005	535.96802
0.801	459.93347
0.8015	331.63147
0.802	200.61035
0.8025	58.00781
0.803	-91.44287
0.8035	-246.33179
0.804	-410.28442
0.8045	-573.4314
0.805	-700.12207
0.8055	-755.61218
0.806	-759.74121
0.8065	-698.71216
0.807	-590.55176
0.8075	-438.38196
0.808	-268.48755
0.8085	-125.18005
0.809	-22.35718
0.8095	74.02039
0.81	118.63403
0.8105	135.25085
0.811	140.8905
0.8115	158.01086
0.812	179.96521
0.8125	188.42468
0.813	157.00378
0.8135	102.42004
0.814	25.177
0.8145	-41.69312
0.815	-84.09119
0.8155	-114.505
0.816	-148.54431
0.8165	-150.65918
0.817	-155.39246
0.8175	-152.1698
0.818	-114.90784
0.8185	-53.57666
0.819	4.53186
0.8195	74.32251
0.82	146.42944
0.8205	210.58044
0.821	277.9541
0.8215	306.65588
0.822	302.62756
0.8225	253.68347
0.823	178.5553
0.8235	85.40039
0.824	3.22266
0.8245	-57.9071
0.825	-113.09509
0.8255	-183.79211
0.826	-248.04382
0.8265	-248.9502
0.827	-216.3208
0.8275	-191.24451
0.828	-159.21936
0.8285	-151.76697
0.829	-151.66626
0.8295	-145.01953
0.83	-178.25317
0.8305	-202.92664
0.831	-158.4137
0.8315	-111.78589
0.832	-96.47827
0.8325	-76.43738
0.833	-72.71118
0.8335	-52.56958
0.834	-12.18567
0.8345	5.53894
0.835	32.22656
0.8355	59.71985
0.836	72.61047
0.8365	86.30676
0.837	99.2981
0.8375	109.67102
0.838	103.62854
0.8385	84.2926
0.839	76.63879
0.8395	64.85596
0.84	53.87878
0.8405	46.42639
0.841	35.04639
0.8415	17.22107
0.842	19.94019
0.8425	26.88904
0.843	41.18958
0.8435	34.74426
0.844	28.70178
0.8445	39.88037
0.845	57.30286
0.8455	107.25403
0.846	126.58997
0.8465	155.29175
0.847	179.26025
0.8475	174.8291
0.848	168.98804
0.8485	148.74573
0.849	112.49084
0.8495	67.67578
0.85	31.92444
0.8505	0.30212
0.851	-27.6947
0.8515	-58.91418
0.852	-87.61597
0.8525	-94.3634
0.853	-91.745
0.8535	-59.41772
0.854	-8.56018
0.8545	42.8009
0.855	88.32092
0.8555	129.10767
0.856	140.38696
0.8565	140.18555
0.857	125.7843
0.8575	109.06677
0.858	78.95508
0.8585	76.94092
0.859	137.26501
0.8595	197.28699
0.86	248.24524
0.8605	309.97925
0.861	344.6228
0.8615	354.29077
0.862	365.26794
0.8625	357.00989
0.863	324.27979
0.8635	302.42615
0.864	234.04541
0.8645	119.03687
0.865	-9.76868
0.8655	-143.81104
0.866	-257.71179
0.8665	-346.53625
0.867	-419.65027
0.8675	-480.78003
0.868	-509.88464
0.8685	-473.12622
0.869	-401.82495
0.8695	-307.05872
0.87	-221.45691
0.8705	-144.01245
0.871	-88.32092
0.8715	-70.19348
0.872	-61.43188
0.8725	-47.03064
0.873	1.10779
0.8735	67.17224
0.874	120.34607
0.8745	147.73865
0.875	210.98328
0.8755	297.995
0.876	354.5929
0.8765	380.07202
0.877	415.0177
0.8775	434.95789
0.878	410.48584
0.8785	348.04688
0.879	232.33337
0.8795	108.26111
0.88	-29.50745
0.8805	-170.70007
0.881	-324.38049
0.8815	-454.19312
0.882	-553.08838
0.8825	-593.27087
0.883	-581.28662
0.8835	-573.02856
0.884	-546.34094
0.8845	-507.16553
0.885	-471.81702
0.8855	-426.297
0.886	-386.21521
0.8865	-330.52368
0.887	-264.96277
0.8875	-202.02026
0.888	-140.28625
0.8885	-31.82373
0.889	59.31702
0.8895	109.57031
0.89	140.58838
0.8905	145.12024
0.891	135.04944
0.8915	123.56873
0.892	111.48376
0.8925	118.93616
0.893	138.07068
0.8935	139.37988
0.894	126.48926
0.8945	93.45703
0.895	70.3949
0.8955	54.68445
0.896	42.8009
0.8965	42.39807
0.897	60.3241
0.8975	69.68994
0.898	75.4303
0.8985	75.73242
0.899	76.63879
0.8995	75.73242
0.9	65.56091
0.9005	57.40356
0.901	45.01648
0.9015	41.69312
0.902	38.16833
0.9025	90.43579
0.903	160.83069
0.9035	213.09814
0.904	275.73853
0.9045	330.92651
0.905	395.07751
0.9055	429.21753
0.906	473.02551
0.9065	524.4873
0.907	566.07971
0.9075	560.9436
0.908	514.21509
0.9085	454.39453
0.909	390.94849
0.9095	340.89661
0.91	267.27905
0.9105	199.50256
0.911	93.85986
0.9115	-29.10461
0.912	-147.63794
0.9125	-259.92737
0.913	-352.67944
0.9135	-424.78638
0.914	-474.03259
0.9145	-481.6864
0.915	-462.55188
0.9155	-454.29382
0.916	-440.59753
0.9165	-414.71558
0.917	-424.38354
0.9175	-417.93823
0.918	-423.37646
0.9185	-445.93506
0.919	-443.31665
0.9195	-391.55273
0.92	-300.31128
0.9205	-187.01477
0.921	-99.3988
0.9215	-21.24939
0.922	63.14392
0.9225	151.96838
0.923	194.56787
0.9235	199.30115
0.924	201.11389
0.9245	186.61194
0.925	191.1438
0.9255	204.43726
0.926	191.1438
0.9265	168.28308
0.927	185.10132
0.9275	236.26099
0.928	282.48596
0.9285	312.69836
0.929	338.78174
0.9295	371.61255
0.93	379.56848
0.9305	363.95874
0.931	334.04846
0.9315	301.72119
0.932	234.95178
0.9325	136.96289
0.933	9.16443
0.9335	-164.35547
0.934	-347.84546
0.9345	-487.62817
0.935	-553.49121
0.9355	-592.76733
0.936	-587.22839
0.9365	-516.8335
0.937	-401.72424
0.9375	-267.48047
0.938	-143.00537
0.9385	-50.2533
0.939	24.97559
0.9395	50.15259
0.94	17.42249
0.9405	-41.4917
0.941	-84.99756
0.9415	-105.94482
0.942	-104.23279
0.9425	-83.58765
0.943	-71.50269
0.9435	-31.21948
0.944	2.41699
0.9445	43.60657
0.945	83.18481
0.9455	139.17847
0.946	210.88257
0.9465	273.92578
0.947	324.98474
0.9475	368.59131
0.948	367.78564
0.9485	362.54883
0.949	324.4812
0.9495	274.53003
0.95	220.34912
0.9505	172.81494
0.951	101.8158
0.9515	35.85205
0.952	-23.76709
0.9525	-72.50977
0.953	-86.8103
0.9535	-96.37756
0.954	-105.03845
0.9545	-94.76624
0.955	-85.40039
0.9555	-94.3634
0.956	-124.37439
0.9565	-159.42078
0.957	-156.50024
0.9575	-146.22803
0.958	-161.73706
0.9585	-161.73706
0.959	-132.33032
0.9595	-119.84253
0.96	-126.58997
0.9605	-134.14307
0.961	-103.02429
0.9615	-76.84021
0.962	-43.50586
0.9625	-12.89062
0.963	14.70337
0.9635	38.67188
0.964	38.06763
0.9645	12.78992
0.965	-7.45239
0.9655	-22.55859
0.966	-24.77417
0.9665	-8.25806
0.967	-2.5177
0.9675	-1.81274
0.968	22.15576
0.9685	62.74109
0.969	82.9834
0.9695	93.75916
0.97	108.56323
0.9705	144.91882
0.971	182.98645
0.9715	226.69373
0.972	252.27356
0.9725	263.04932
0.973	264.0564
0.9735	243.31055
0.974	193.15796
0.9745	128.302
0.975	88.92517
0.9755	34.94568
0.976	-13.99841
0.9765	-28.50037
0.977	-47.23206
0.9775	-55.69153
0.978	-71.09985
0.9785	-75.83313
0.979	-26.58691
0.9795	35.14709
0.98	112.49084
0.9805	190.33813
0.981	239.78577
0.9815	269.79675
0.982	252.17285
0.9825	206.14929
0.983	142.60254
0.9835	85.5011
0.984	8.96301
0.9845	-113.09509
0.985	-230.41992
0.9855	-306.75659
0.986	-357.31201
0.9865	-370.70618
0.987	-357.91626
0.9875	-331.53076
0.988	-261.13586
0.9885	-182.98645
0.989	-136.15723
0.9895	-106.34766
0.99	-31.01807
0.9905	-21.65222
0.991	-69.38782
0.9915	-111.8866
0.992	-157.10449
0.9925	-178.95813
0.993	-161.83777
0.9935	-148.54431
0.994	-116.922
0.9945	-78.04871
0.995	-26.88904
0.9955	-8.35876
0.996	-10.77576
0.9965	4.33044
0.997	36.05347
0.9975	44.61365
0.998	43.30444
0.9985	42.19666
0.999	51.15967
0.9995	83.99048
1	121.65527
1.0005	141.79688
1.001	140.48767
1.0015	122.96448
1.002	127.49634
1.0025	107.45544
1.003	78.14941
1.0035	50.45471
1.004	15.1062
1.0045	-18.8324
1.005	-46.62781
1.0055	-45.62073
1.006	-6.44531
1.0065	49.74976
1.007	121.55457
1.0075	194.26575
1.008	257.51038
1.0085	299.80774
1.009	340.99731
1.0095	343.01147
1.01	349.85962
1.0105	396.99097
1.011	430.32532
1.0115	449.05701
1.012	457.01294
1.0125	467.28516
1.013	431.23169
1.0135	360.23254
1.014	291.54968
1.0145	217.32788
1.015	153.3783
1.0155	83.38623
1.016	22.86072
1.0165	-41.59241
1.017	-124.27368
1.0175	-203.83301
1.018	-297.89429
1.0185	-414.51416
1.019	-517.03491
1.0195	-627.91443
1.02	-726.9104
1.0205	-804.15344
1.021	-816.43982
1.0215	-750.07324
1.022	-664.47144
1.0225	-553.59192
1.023	-403.6377
1.0235	-219.94629
1.024	-83.78906
1.0245	-15.91187
1.025	35.2478
1.0255	67.27295
1.026	112.89368
1.0265	166.26892
1.027	194.56787
1.0275	228.50647
1.028	278.15552
1.0285	334.552
1.029	382.69043
1.0295	388.02795
1.03	367.1814
1.0305	304.3396
1.031	254.69055
1.0315	204.33655
1.032	141.69617
1.0325	69.89136
1.033	5.63965
1.0335	-32.22656
1.034	-68.88428
1.0345	-75.22888
1.035	-75.12817
1.0355	-75.12817
1.036	-42.39807
1.0365	2.21558
1.037	53.27454
1.0375	98.59314
1.038	139.27917
1.0385	173.01636
1.039	163.65051
1.0395	144.11316
1.04	116.21704
1.0405	62.64038
1.041	-3.12195
1.0415	-38.47046
1.042	-76.13525
1.0425	-113.59863
1.043	-149.14856
1.0435	-129.40979
1.044	-125.7843
1.0445	-134.34448
1.045	-133.43811
1.0455	-129.10767
1.046	-151.36414
1.0465	-208.66699
1.047	-270.70312
1.0475	-308.97217
1.048	-327.40173
1.0485	-329.01306
1.049	-306.15234
1.0495	-268.08472
1.05	-207.96204
1.0505	-97.98889
1.051	-39.37683
1.0515	-21.24939
1.052	-14.80408
1.0525	-1.91345
1.053	33.83789
1.0535	79.2572
1.054	117.82837
1.0545	160.72998
1.055	186.1084
1.0555	179.26025
1.056	153.98254
1.0565	131.02112
1.057	111.28235
1.0575	115.61279
1.058	143.4082
1.0585	153.27759
1.059	158.31299
1.0595	164.85901
1.06	175.43335
1.0605	198.99902
1.061	217.32788
1.0615	232.13196
1.062	238.57727
1.0625	222.16187
1.063	181.87866
1.0635	144.31458
1.064	97.38464
1.0645	68.58215
1.065	33.03223
1.0655	-4.02832
1.066	-34.74426
1.0665	-56.79932
1.067	-90.13367
1.0675	-127.99988
1.068	-144.31458
1.0685	-150.15564
1.069	-157.00378
1.0695	-179.36096
1.07	-170.49866
1.0705	-136.76147
1.071	-102.72217
1.0715	-73.31543
1.072	-42.09595
1.0725	39.07471
1.073	118.13049
1.0735	161.83777
1.074	194.87
1.0745	229.81567
1.075	266.97693
1.0755	273.62366
1.076	248.14453
1.0765	203.43018
1.077	151.36414
1.0775	88.62305
1.078	26.48621
1.0785	-29.20532
1.079	-104.83704
1.0795	-152.37122
1.08	-204.73938
1.0805	-261.13586
1.081	-296.88721
1.0815	-315.21606
1.082	-292.95959
1.0825	-269.49463
1.083	-248.84949
1.0835	-214.40735
1.084	-174.8291
1.0845	-128.70483
1.085	-91.14075
1.0855	-45.62073
1.086	16.71753
1.0865	99.70093
1.087	164.45618
1.0875	201.01318
1.088	228.20435
1.0885	263.15002
1.089	287.42065
1.0895	312.69836
1.09	324.4812
1.0905	343.01147
1.091	352.98157
1.0915	328.40881
1.092	254.89197
1.0925	169.49158
1.093	93.15491
1.0935	-26.88904
1.094	-119.4397
1.0945	-192.55371
1.095	-215.31372
1.0955	-157.50732
1.096	-98.89526
1.0965	-7.04956
1.097	106.04553
1.0975	208.26416
1.098	249.75586
1.0985	224.17603
1.099	229.01001
1.0995	191.94946
1.1	128.50342
1.1005	42.59949
1.101	-22.25647
1.1015	-75.4303
1.102	-152.97546
1.1025	-272.01233
1.103	-391.65344
1.1035	-485.4126
1.104	-549.26147
1.1045	-587.63123
1.105	-583.5022
1.1055	-572.2229
1.106	-528.41492
1.1065	-441.00037
1.107	-346.13342
1.1075	-256.40259
1.108	-156.09741
1.1085	-52.97241
1.109	6.14319
1.1095	38.26904
1.11	72.10693
1.1105	87.91809
1.111	114.70642
1.1115	177.3468
1.112	242.20276
1.1125	295.07446
1.113	331.93359
1.1135	340.09094
1.114	331.32935
1.1145	316.82739
1.115	282.38525
1.1155	228.80859
1.116	210.68115
1.1165	195.47424
1.117	229.61426
1.1175	268.08472
1.118	259.22241
1.1185	253.07922
1.119	249.85657
1.1195	235.55603
1.12	175.63477
1.1205	106.75049
1.121	40.88745
1.1215	13.69629
1.122	-38.77258
1.1225	-141.49475
1.123	-257.20825
1.1235	-383.5968
1.124	-470.20569
1.1245	-519.04907
1.125	-562.55493
1.1255	-589.14185
1.126	-562.25281
1.1265	-443.51807
1.127	-290.5426
1.1275	-122.96448
1.128	50.45471
1.1285	197.28699
1.129	276.14136
1.1295	290.74402
1.13	289.63623
1.1305	239.68506
1.131	215.0116
1.1315	180.97229
1.132	146.93298
1.1325	101.71509
1.133	76.23596
1.1335	62.8418
1.134	29.10461
1.1345	1.81274
1.135	-14.40125
1.1355	16.21399
1.136	39.77966
1.1365	42.8009
1.137	48.84338
1.1375	53.37524
1.138	72.30835
1.1385	102.92358
1.139	97.58606
1.1395	38.16833
1.14	-33.43506
1.1405	-62.33826
1.141	-82.27844
1.1415	-98.99597
1.142	-79.2572
1.1425	-33.9386
1.143	26.98975
1.1435	75.83313
1.144	113.90076
1.1445	150.25635
1.145	159.7229
1.1455	155.39246
1.146	159.42078
1.1465	173.62061
1.147	189.73389
1.1475	171.60645
1.148	151.26343
1.1485	127.69775
1.149	93.75916
1.1495	47.8363
1.15	16.61682
1.1505	-8.66089
1.151	-27.99683
1.1515	-87.71667
1.152	-145.42236
1.1525	-192.25159
1.153	-237.77161
1.1535	-301.8219
1.154	-364.05945
1.1545	-382.18689
1.155	-386.31592
1.1555	-374.23096
1.156	-314.10828
1.1565	-227.90222
1.157	-138.97705
1.1575	-40.2832
1.158	30.81665
1.1585	73.91968
1.159	87.71667
1.1595	77.64587
1.16	73.01331
1.1605	49.14551
1.161	11.78284
1.1615	-24.27063
1.162	-35.34851
1.1625	-43.90869
1.163	-26.88904
1.1635	-27.89612
1.164	-24.87488
1.1645	-4.63257
1.165	37.06055
1.1655	105.03845
1.166	155.49316
1.1665	191.94946
1.167	192.65442
1.1675	168.98804
1.168	151.16272
1.1685	169.59229
1.169	177.74963
1.1695	177.85034
1.17	171.30432
1.1705	194.36646
1.171	227.09656
1.1715	262.54578
1.172	281.78101
1.1725	300.71411
1.173	324.4812
1.1735	318.1366
1.174	307.05872
1.1745	304.3396
1.175	279.76685
1.1755	254.89197
1.176	235.95886
1.1765	204.84009
1.177	145.9259
1.1775	101.21155
1.178	53.97949
1.1785	1.91345
1.179	-35.54993
1.1795	-67.8772
1.18	-99.70093
1.1805	-154.6875
1.181	-234.75037
1.1815	-271.71021
1.182	-317.53235
1.1825	-390.84778
1.183	-440.89966
1.1835	-463.35754
1.184	-455.60303
1.1845	-424.78638
1.185	-372.92175
1.1855	-330.7251
1.186	-306.35376
1.1865	-240.99426
1.187	-188.22327
1.1875	-175.03052
1.188	-191.44592
1.1885	-173.41919
1.189	-169.49158
1.1895	-158.81653
1.19	-128.40271
1.1905	-80.86853
1.191	-28.60107
1.1915	40.98816
1.192	117.02271
1.1925	183.38928
1.193	252.17285
1.1935	310.98633
1.194	355.19714
1.1945	378.5614
1.195	372.2168
1.1955	349.85962
1.196	293.46313
1.1965	225.88806
1.197	140.08484
1.1975	50.354
1.198	-22.35718
1.1985	-73.61755
1.199	-131.42395
1.1995	-173.92273
1.2	-167.37671
1.2005	-159.62219
1.201	-159.62219
1.2015	-159.92432
1.202	-165.86609
1.2025	-145.01953
1.203	-121.65527
1.2035	-113.69934
1.204	-103.62854
1.2045	-88.92517
1.205	-55.59082
1.2055	-29.40674
1.206	-22.96143
1.2065	-17.42249
1.207	4.93469
1.2075	11.58142
1.208	1.71204
1.2085	4.53186
1.209	10.87646
1.2095	25.78125
1.21	24.57275
1.2105	49.64905
1.211	65.3595
1.2115	82.07703
1.212	93.15491
1.2125	144.51599
1.213	197.99194
1.2135	243.31055
1.214	279.56543
1.2145	315.41748
1.215	318.53943
1.2155	318.2373
1.216	297.08862
1.2165	288.22632
1.217	271.91162
1.2175	245.02258
1.218	204.33655
1.2185	140.58838
1.219	78.35083
1.2195	-8.35876
1.22	-102.52075
1.2205	-175.63477
1.221	-247.23816
1.2215	-271.10596
1.222	-265.56702
1.2225	-252.57568
1.223	-215.21301
1.2235	-186.91406
1.224	-161.63635
1.2245	-145.01953
1.225	-145.72449
1.2255	-144.21387
1.226	-137.16431
1.2265	-127.99988
1.227	-97.88818
1.2275	-51.26038
1.228	-12.48779
1.2285	19.83948
1.229	64.05029
1.2295	136.96289
1.23	201.01318
1.2305	221.05408
1.231	221.25549
1.2315	221.15479
1.232	210.88257
1.2325	179.96521
1.233	136.15723
1.2335	73.11401
1.234	25.07629
1.2345	-30.01099
1.235	-92.04712
1.2355	-155.9967
1.236	-204.33655
1.2365	-211.18469
1.237	-196.98486
1.2375	-178.05176
1.238	-165.66467
1.2385	-152.1698
1.239	-116.51917
1.2395	-106.24695
1.24	-120.95032
1.2405	-141.49475
1.241	-164.95972
1.2415	-166.67175
1.242	-121.05103
1.2425	-52.36816
1.243	38.36975
1.2435	96.67969
1.244	138.27209
1.2445	178.35388
1.245	227.09656
1.2455	249.45374
1.246	246.33179
1.2465	206.95496
1.247	147.1344
1.2475	87.71667
1.248	48.54126
1.2485	31.52161
1.249	6.54602
1.2495	-31.11877
1.25	-45.2179
1.2505	-47.23206
1.251	-71.90552
1.2515	-86.10535
1.252	-75.4303
1.2525	-5.74036
1.253	90.33508
1.2535	229.61426
1.254	333.94775
1.2545	367.68494
1.255	356.20422
1.2555	316.62598
1.256	247.43958
1.2565	202.22168
1.257	145.12024
1.2575	82.9834
1.258	6.84814
1.2585	-101.51367
1.259	-209.37195
1.2595	-283.29163
1.26	-318.2373
1.2605	-351.47095
1.261	-362.44812
1.2615	-368.4906
1.262	-356.90918
1.2625	-327.09961
1.263	-267.58118
1.2635	-188.92822
1.264	-126.28784
1.2645	-71.50269
1.265	-22.55859
1.2655	37.26196
1.266	91.44287
1.2665	120.24536
1.267	137.46643
1.2675	145.8252
1.268	149.85352
1.2685	151.16272
1.269	128.80554
1.2695	104.63562
1.27	87.91809
1.2705	69.58923
1.271	30.11169
1.2715	-17.92603
1.272	-45.92285
1.2725	-65.86304
1.273	-78.45154
1.2735	-106.34766
1.274	-97.18323
1.2745	-67.8772
1.275	-54.48303
1.2755	-58.10852
1.276	-49.95117
1.2765	-34.44214
1.277	-33.63647
1.2775	-23.76709
1.278	4.12903
1.2785	54.28162
1.279	79.86145
1.2795	109.57031
1.28	166.47034
1.2805	225.28381
1.281	266.97693
1.2815	334.552
1.282	392.66052
1.2825	408.87451
1.283	394.67468
1.2835	394.37256
1.284	385.00671
1.2845	338.47961
1.285	296.18225
1.2855	259.42383
1.286	207.65991
1.2865	137.0636
1.287	60.92834
1.2875	-14.70337
1.288	-41.99524
1.2885	-73.01331
1.289	-71.7041
1.2895	-17.22107
1.29	32.62939
1.2905	82.07703
1.291	92.85278
1.2915	23.16284
1.292	-109.57031
1.2925	-259.82666
1.293	-388.73291
1.2935	-522.77527
1.294	-600.92468
1.2945	-630.93567
1.295	-627.20947
1.2955	-554.09546
1.296	-438.78479
1.2965	-277.9541
1.297	-111.48376
1.2975	47.53418
1.298	189.83459
1.2985	317.23022
1.299	386.1145
1.2995	416.3269
1.3	427.90833
1.3005	391.75415
1.301	317.53235
1.3015	216.22009
1.302	103.22571
1.3025	-27.59399
1.303	-173.41919
1.3035	-286.41357
1.304	-369.29626
1.3045	-424.68567
1.305	-466.68091
1.3055	-481.18286
1.306	-463.76038
1.3065	-406.55823
1.307	-333.44421
1.3075	-217.42859
1.308	-92.34924
1.3085	12.48779
1.309	90.13367
1.3095	169.39087
1.31	209.67407
1.3105	219.74487
1.311	210.98328
1.3115	187.01477
1.312	137.76855
1.3125	88.11951
1.313	49.74976
1.3135	54.68445
1.314	44.71436
1.3145	58.81348
1.315	99.19739
1.3155	133.43811
1.316	150.9613
1.3165	172.10999
1.317	179.76379
1.3175	195.07141
1.318	212.4939
1.3185	191.24451
1.319	159.92432
1.3195	125.98572
1.32	79.96216
1.3205	-1.2085
1.321	-85.40039
1.3215	-183.18787
1.322	-248.14453
1.3225	-234.75037
1.323	-203.32947
1.3235	-166.0675
1.324	-120.64819
1.3245	-43.50586
1.325	33.33435
1.3255	66.26587
1.326	66.6687
1.3265	40.68604
1.327	21.04797
1.3275	-10.67505
1.328	-51.26038
1.3285	-78.45154
1.329	-96.98181
1.3295	-107.05261
1.33	-146.63086
1.3305	-175.63477
1.331	-180.56946
1.3315	-175.83618
1.332	-155.29175
1.3325	-78.65295
1.333	43.00232
1.3335	147.73865
1.334	230.92346
1.3345	257.00684
1.335	250.46082
1.3355	229.01001
1.336	211.58752
1.3365	196.1792
1.337	178.75671
1.3375	149.45068
1.338	118.02979
1.3385	88.62305
1.339	37.86621
1.3395	-30.91736
1.34	-106.34766
1.3405	-156.80237
1.341	-198.6969
1.3415	-227.19727
1.342	-205.74646
1.3425	-141.89758
1.343	-59.21631
1.3435	35.54993
1.344	117.02271
1.3445	160.22644
1.345	193.76221
1.3455	177.24609
1.346	169.08875
1.3465	165.06042
1.347	174.52698
1.3475	240.79285
1.348	328.00598
1.3485	379.06494
1.349	418.8446
1.3495	429.51965
1.35	422.16797
1.3505	402.52991
1.351	379.97131
1.3515	333.84705
1.352	242.50488
1.3525	150.15564
1.353	38.16833
1.3535	-66.97083
1.354	-156.29883
1.3545	-254.79126
1.355	-341.29944
1.3555	-433.8501
1.356	-582.09229
1.3565	-712.60986
1.357	-806.06689
1.3575	-781.99768
1.358	-679.87976
1.3585	-546.54236
1.359	-406.35681
1.3595	-255.2948
1.36	-142.90466
1.3605	-102.21863
1.361	-70.89844
1.3615	-22.45789
1.362	7.95593
1.3625	31.4209
1.363	76.43738
1.3635	143.10608
1.364	192.65442
1.3645	209.37195
1.365	221.05408
1.3655	196.58203
1.366	161.73706
1.3665	132.33032
1.367	105.84412
1.3675	77.44446
1.368	50.75684
1.3685	25.88196
1.369	15.1062
1.3695	2.5177
1.37	-3.22266
1.3705	-1.81274
1.371	9.76868
1.3715	34.44214
1.372	58.91418
1.3725	89.22729
1.373	105.23987
1.3735	127.19421
1.374	125.88501
1.3745	99.19739
1.375	91.54358
1.3755	59.82056
1.376	52.97241
1.3765	64.45312
1.377	63.04321
1.3775	61.02905
1.378	47.93701
1.3785	42.49878
1.379	53.17383
1.3795	73.01331
1.38	92.24854
1.3805	118.13049
1.381	121.75598
1.3815	111.38306
1.382	76.23596
1.3825	38.57117
1.383	-1.2085
1.3835	-54.68445
1.384	-91.34216
1.3845	-90.13367
1.385	-86.8103
1.3855	-68.28003
1.386	-61.6333
1.3865	-49.44763
1.387	-29.30603
1.3875	0.70496
1.388	56.90002
1.3885	88.32092
1.389	102.72217
1.3895	123.56873
1.39	156.60095
1.3905	218.63708
1.391	305.5481
1.3915	357.1106
1.392	375.74158
1.3925	345.32776
1.393	286.91711
1.3935	222.16187
1.394	165.46326
1.3945	107.75757
1.395	46.82922
1.3955	-8.96301
1.396	-94.56482
1.3965	-191.1438
1.397	-288.83057
1.3975	-388.22937
1.398	-498.70605
1.3985	-575.84839
1.399	-590.65247
1.3995	-577.2583
1.4	-524.18518
1.4005	-440.59753
1.401	-347.54333
1.4015	-266.47339
1.402	-179.66309
1.4025	-60.3241
1.403	44.61365
1.4035	90.83862
1.404	102.01721
1.4045	103.42712
1.405	109.26819
1.4055	127.79846
1.406	194.26575
1.4065	249.85657
1.407	281.07605
1.4075	302.32544
1.408	325.28687
1.4085	333.04138
1.409	322.26562
1.4095	293.0603
1.41	248.34595
1.4105	214.81018
1.411	151.76697
1.4115	54.68445
1.412	-11.78284
1.4125	-56.09436
1.413	-101.71509
1.4135	-157.50732
1.414	-219.14062
1.4145	-270.19958
1.415	-272.41516
1.4155	-224.78027
1.416	-186.00769
1.4165	-163.24768
1.417	-140.48767
1.4175	-128.70483
1.418	-127.19421
1.4185	-145.72449
1.419	-158.4137
1.4195	-167.77954
1.42	-120.84961
1.4205	-5.53894
1.421	114.20288
1.4215	230.52063
1.422	336.56616
1.4225	439.48975
1.423	517.23633
1.4235	561.84998
1.424	575.9491
1.4245	576.25122
1.425	557.01599
1.4255	505.5542
1.426	424.98779
1.4265	330.02014
1.427	182.68433
1.4275	8.66089
1.428	-125.58289
1.4285	-232.6355
1.429	-344.11926
1.4295	-430.92957
1.43	-484.00269
1.4305	-449.45984
1.431	-364.86511
1.4315	-287.52136
1.432	-227.70081
1.4325	-172.21069
1.433	-98.29102
1.4335	-35.85205
1.434	-37.06055
1.4345	-91.64429
1.435	-130.41687
1.4355	-170.70007
1.436	-222.36328
1.4365	-275.13428
1.437	-304.74243
1.4375	-312.69836
1.438	-315.51819
1.4385	-299.70703
1.439	-259.72595
1.4395	-182.68433
1.44	-134.5459
1.4405	-80.66711
1.441	-24.87488
1.4415	12.48779
1.442	49.24622
1.4425	49.74976
1.443	43.50586
1.4435	39.57825
1.444	47.33276
1.4445	64.05029
1.445	90.63721
1.4455	91.64429
1.446	82.78198
1.4465	84.39331
1.447	81.87561
1.4475	76.03455
1.448	72.30835
1.4485	72.30835
1.449	64.55383
1.4495	67.57507
1.45	74.02039
1.4505	77.948
1.451	79.66003
1.4515	75.93384
1.452	83.58765
1.4525	91.04004
1.453	91.64429
1.4535	102.31934
1.454	111.08093
1.4545	114.00146
1.455	110.6781
1.4555	130.11475
1.456	178.25317
1.4565	225.68665
1.457	296.58508
1.4575	359.6283
1.458	381.98547
1.4585	377.85645
1.459	385.10742
1.4595	374.63379
1.46	328.81165
1.4605	264.35852
1.461	194.87
1.4615	106.14624
1.462	7.04956
1.4625	-116.01562
1.463	-239.58435
1.4635	-359.52759
1.464	-451.87683
1.4645	-466.27808
1.465	-448.35205
1.4655	-423.27576
1.466	-368.99414
1.4665	-298.80066
1.467	-172.3114
1.4675	-49.34692
1.468	52.36816
1.4685	137.36572
1.469	212.39319
1.4695	268.28613
1.47	311.8927
1.4705	313.90686
1.471	290.84473
1.4715	239.68506
1.472	156.09741
1.4725	66.56799
1.473	-34.54285
1.4735	-135.8551
1.474	-232.03125
1.4745	-306.8573
1.475	-372.01538
1.4755	-407.26318
1.476	-403.7384
1.4765	-318.74084
1.477	-231.32629
1.4775	-145.72449
1.478	-66.87012
1.4785	8.8623
1.479	84.99756
1.4795	149.34998
1.48	190.84167
1.4805	226.19019
1.481	262.94861
1.4815	243.10913
1.482	183.28857
1.4825	121.85669
1.483	64.05029
1.4835	14.70337
1.484	-18.12744
1.4845	-59.01489
1.485	-39.88037
1.4855	-5.53894
1.486	-1.91345
1.4865	-14.19983
1.487	-22.76001
1.4875	-34.94568
1.488	-39.77966
1.4885	-59.51843
1.489	-87.11243
1.4895	-118.2312
1.49	-161.43494
1.4905	-182.88574
1.491	-192.65442
1.4915	-180.56946
1.492	-151.86768
1.4925	-133.94165
1.493	-119.94324
1.4935	-110.57739
1.494	-82.47986
1.4945	-48.64197
1.495	-3.52478
1.4955	36.95984
1.496	70.79773
1.4965	98.39172
1.497	106.04553
1.4975	93.45703
1.498	91.34216
1.4985	80.86853
1.499	77.24304
1.4995	81.17065
1.5	86.10535
1.5005	76.84021
1.501	52.8717
1.5015	40.48462
1.502	14.50195
1.5025	-13.09204
1.503	-34.03931
1.5035	-50.85754
1.504	-58.20923
1.5045	-43.30444
1.505	-19.43665
1.5055	1.51062
1.506	2.11487
1.5065	19.33594
1.507	42.49878
1.5075	43.80798
1.508	48.23914
1.5085	29.60815
1.509	37.96692
1.5095	46.32568
1.51	50.65613
1.5105	53.67737
1.511	35.44922
1.5115	12.89062
1.512	-13.89771
1.5125	-31.72302
1.513	-38.57117
1.5135	-19.73877
1.514	-6.54602
1.5145	11.2793
1.515	37.06055
1.5155	65.46021
1.516	66.6687
1.5165	66.36658
1.517	57.00073
1.5175	48.03772
1.518	50.05188
1.5185	42.39807
1.519	29.60815
1.5195	11.98425
1.52	-4.73328
1.5205	-21.04797
1.521	-19.63806
1.5215	-7.95593
1.522	8.25806
1.5225	22.76001
1.523	45.11719
1.5235	59.71985
1.524	64.85596
1.5245	74.62463
1.525	89.42871
1.5255	119.64111
1.526	111.78589
1.5265	99.49951
1.527	83.88977
1.5275	87.71667
1.528	109.57031
1.5285	107.15332
1.529	92.75208
1.5295	78.85437
1.53	66.16516
1.5305	75.63171
1.531	89.42871
1.5315	101.41296
1.532	97.68677
1.5325	100.90942
1.533	90.63721
1.5335	83.28552
1.534	69.38782
1.5345	33.53577
1.535	-9.56726
1.5355	-48.33984
1.536	-76.33667
1.5365	-88.52234
1.537	-120.04395
1.5375	-161.83777
1.538	-206.14929
1.5385	-221.96045
1.539	-197.68982
1.5395	-151.16272
1.54	-28.60107
1.5405	92.14783
1.541	220.65125
1.5415	370.80688
1.542	491.65649
1.5425	565.17334
1.543	588.13477
1.5435	569.80591
1.544	492.05933
1.5445	397.19238
1.545	283.09021
1.5455	149.04785
1.546	15.81116
1.5465	-140.99121
1.547	-333.2428
1.5475	-497.79968
1.548	-624.59106
1.5485	-733.1543
1.549	-775.9552
1.5495	-718.1488
1.55	-616.43372
1.5505	-480.78003
1.551	-367.38281
1.5515	-247.84241
1.552	-162.74414
1.5525	-101.41296
1.553	-50.15259
1.5535	-11.38
1.554	37.86621
1.5545	132.43103
1.555	199.09973
1.5555	242.40417
1.556	256.604
1.5565	254.69055
1.557	229.91638
1.5575	205.24292
1.558	194.66858
1.5585	183.18787
1.559	165.86609
1.5595	139.5813
1.56	103.02429
1.5605	50.354
1.561	4.43115
1.5615	-33.9386
1.562	-46.92993
1.5625	-61.53259
1.563	-59.71985
1.5635	-38.57117
1.564	0.70496
1.5645	15.60974
1.565	36.55701
1.5655	44.71436
1.566	53.47595
1.5665	51.15967
1.567	17.01965
1.5675	-32.83081
1.568	-79.2572
1.5685	-107.95898
1.569	-141.79688
1.5695	-193.25867
1.57	-248.34595
1.5705	-276.54419
1.571	-274.83215
1.5715	-247.54028
1.572	-207.76062
1.5725	-152.1698
1.573	-117.82837
1.5735	-77.24304
1.574	-46.92993
1.5745	-28.39966
1.575	-20.64514
1.5755	-18.42957
1.576	-23.06213
1.5765	-3.8269
1.577	30.81665
1.5775	83.78906
1.578	112.08801
1.5785	115.10925
1.579	111.48376
1.5795	96.67969
1.58	81.06995
1.5805	76.63879
1.581	68.17932
1.5815	58.51135
1.582	54.68445
1.5825	66.26587
1.583	80.96924
1.5835	76.23596
1.584	71.09985
1.5845	65.86304
1.585	57.50427
1.5855	39.37683
1.586	28.80249
1.5865	25.27771
1.587	17.42249
1.5875	15.71045
1.588	9.97009
1.5885	-2.61841
1.589	-6.04248
1.5895	-12.89062
1.59	-27.09045
1.5905	-23.8678
1.591	-34.24072
1.5915	-25.98267
1.592	-17.01965
1.5925	-4.22974
1.593	10.27222
1.5935	17.42249
1.594	35.54993
1.5945	41.4917
1.595	45.92285
1.5955	53.77808
1.596	51.5625
1.5965	48.74268
1.597	63.24463
1.5975	67.97791
1.598	87.41455
1.5985	105.6427
1.599	134.24377
1.5995	152.57263
1.6	169.7937
1.6005	176.13831
1.601	171.40503
1.6015	162.34131
1.602	153.78113
1.6025	127.99988
1.603	84.99756
1.6035	29.60815
1.604	-21.04797
1.6045	-74.42322
1.605	-115.10925
1.6055	-158.21228
1.606	-186.61194
1.6065	-203.12805
1.607	-208.96912
1.6075	-188.82751
1.608	-187.01477
1.6085	-166.67175
1.609	-156.80237
1.6095	-149.45068
1.61	-142.19971
1.6105	-114.90784
1.611	-67.17224
1.6115	-33.03223
1.612	5.63965
1.6125	26.3855
1.613	38.974
1.6135	53.37524
1.614	82.27844
1.6145	101.21155
1.615	116.21704
1.6155	122.46094
1.616	121.85669
1.6165	124.4751
1.617	105.54199
1.6175	78.75366
1.618	52.46887
1.6185	39.67896
1.619	30.51453
1.6195	34.64355
1.62	38.57117
1.6205	29.60815
1.621	29.60815
1.6215	38.26904
1.622	59.41772
1.6225	75.93384
1.623	75.63171
1.6235	70.89844
1.624	62.23755
1.6245	50.45471
1.625	29.60815
1.6255	-11.68213
1.626	-33.33435
1.6265	-61.6333
1.627	-79.86145
1.6275	-93.85986
1.628	-104.3335
1.6285	-109.4696
1.629	-101.41296
1.6295	-99.80164
1.63	-76.94092
1.6305	-43.50586
1.631	-19.13452
1.6315	1.71204
1.632	11.38
1.6325	3.12195
1.633	11.38
1.6335	12.68921
1.634	12.38708
1.6345	7.65381
1.635	39.67896
1.6355	69.1864
1.636	85.90393
1.6365	96.47827
1.637	102.21863
1.6375	125.58289
1.638	140.58838
1.6385	145.12024
1.639	133.3374
1.6395	118.93616
1.64	112.18872
1.6405	93.15491
1.641	78.35083
1.6415	53.97949
1.642	29.80957
1.6425	13.29346
1.643	-18.63098
1.6435	-51.26038
1.644	-59.51843
1.6445	-67.8772
1.645	-65.25879
1.6455	-72.10693
1.646	-62.74109
1.6465	-42.8009
1.647	-21.45081
1.6475	-19.94019
1.648	-25.98267
1.6485	17.52319
1.649	64.95667
1.6495	121.35315
1.65	184.69849
1.6505	244.41833
1.651	275.23499
1.6515	252.97852
1.652	210.37903
1.6525	141.09192
1.653	72.40906
1.6535	1.40991
1.654	-78.04871
1.6545	-149.75281
1.655	-218.13354
1.6555	-270.30029
1.656	-321.9635
1.6565	-372.11609
1.657	-397.09167
1.6575	-405.95398
1.658	-374.53308
1.6585	-318.74084
1.659	-248.34595
1.6595	-163.04626
1.66	-93.35632
1.6605	-32.12585
1.661	14.30054
1.6615	43.00232
1.662	57.50427
1.6625	81.97632
1.663	105.13916
1.6635	132.83386
1.664	170.39795
1.6645	200.20752
1.665	234.24683
1.6655	275.4364
1.666	273.32153
1.6665	269.99817
1.667	257.20825
1.6675	227.80151
1.668	191.74805
1.6685	155.49316
1.669	116.21704
1.6695	78.85437
1.67	23.26355
1.6705	-33.33435
1.671	-83.88977
1.6715	-130.61829
1.672	-193.25867
1.6725	-265.56702
1.673	-312.29553
1.6735	-320.6543
1.674	-294.97375
1.6745	-231.12488
1.675	-170.80078
1.6755	-115.41138
1.676	-75.73242
1.6765	-41.18958
1.677	-4.73328
1.6775	31.92444
1.678	61.12976
1.6785	84.99756
1.679	105.54199
1.6795	132.43103
1.68	147.33582
1.6805	142.099
1.681	137.96997
1.6815	123.06519
1.682	88.11951
1.6825	54.68445
1.683	30.81665
1.6835	1.61133
1.684	-24.06921
1.6845	-28.50037
1.685	-34.84497
1.6855	-44.11011
1.686	-44.71436
1.6865	-36.65771
1.687	-25.98267
1.6875	-9.56726
1.688	2.61841
1.6885	5.74036
1.689	8.8623
1.6895	-0.50354
1.69	-15.50903
1.6905	-27.49329
1.691	-41.99524
1.6915	-54.0802
1.692	-60.82764
1.6925	-54.48303
1.693	-51.5625
1.6935	-55.69153
1.694	-41.99524
1.6945	-16.71753
1.695	5.33752
1.6955	16.3147
1.696	23.46497
1.6965	28.50037
1.697	33.83789
1.6975	34.84497
1.698	35.04639
1.6985	38.974
1.699	42.49878
1.6995	41.69312
1.7	37.7655
1.7005	27.09045
1.701	23.96851
1.7015	22.05505
1.702	20.64514
1.7025	21.85364
1.703	27.29187
1.7035	17.01965
1.704	14.80408
1.7045	18.02673
1.705	27.6947
1.7055	26.78833
1.706	29.91028
1.7065	36.15417
1.707	47.13135
1.7075	48.64197
1.708	44.0094
1.7085	44.21082
1.709	51.26038
1.7095	50.95825
1.71	52.46887
1.7105	49.14551
1.711	47.53418
1.7115	36.85913
1.712	28.70178
1.7125	23.26355
1.713	12.78992
1.7135	5.63965
1.714	-3.32336
1.7145	-19.73877
1.715	-34.64355
1.7155	-44.41223
1.716	-46.32568
1.7165	-40.1825
1.717	-33.13293
1.7175	-21.75293
1.718	-8.15735
1.7185	-4.33044
1.719	-10.77576
1.7195	3.42407
1.72	14.19983
1.7205	14.60266
1.721	15.00549
1.7215	13.89771
1.722	15.1062
1.7225	11.68213
1.723	4.43115
1.7235	6.74744
1.724	9.76868
1.7245	-3.22266
1.725	-7.25098
1.7255	-5.0354
1.726	-4.73328
1.7265	10.0708
1.727	26.88904
1.7275	51.76392
1.728	91.64429
1.7285	119.74182
1.729	141.19263
1.7295	157.00378
1.73	148.3429
1.7305	136.56006
1.731	117.52625
1.7315	96.98181
1.732	78.04871
1.7325	44.91577
1.733	10.97717
1.7335	-20.24231
1.734	-45.52002
1.7345	-81.7749
1.735	-103.125
1.7355	-121.65527
1.736	-135.8551
1.7365	-123.06519
1.737	-112.89368
1.7375	-91.34216
1.738	-54.48303
1.7385	-37.16125
1.739	-20.04089
1.7395	-16.61682
1.74	-16.41541
1.7405	-19.13452
1.741	-28.70178
1.7415	-21.55151
1.742	-18.42957
1.7425	-21.04797
1.743	-19.63806
1.7435	-26.58691
1.744	-32.7301
1.7445	-21.24939
1.745	-13.797
1.7455	-3.32336
1.746	7.45239
1.7465	24.97559
1.747	34.44214
1.7475	52.16675
1.748	72.50977
1.7485	81.06995
1.749	85.40039
1.7495	96.27686
1.75	105.03845
1.7505	103.22571
1.751	86.70959
1.7515	61.02905
1.752	39.98108
1.7525	17.32178
1.753	-13.09204
1.7535	-30.11169
1.754	-33.33435
1.7545	-42.09595
1.755	-54.0802
1.7555	-70.89844
1.756	-75.63171
1.7565	-59.92126
1.757	-32.93152
1.7575	4.53186
1.758	37.66479
1.7585	66.46729
1.759	93.85986
1.7595	85.40039
1.76	65.15808
1.7605	33.53577
1.761	6.84814
1.7615	-26.3855
1.762	-62.64038
1.7625	-79.05579
1.763	-86.70959
1.7635	-67.8772
1.764	-60.02197
1.7645	-58.81348
1.765	-41.29028
1.7655	-17.22107
1.766	23.16284
1.7665	68.48145
1.767	97.58606
1.7675	117.42554
1.768	130.92041
1.7685	138.27209
1.769	135.15015
1.7695	123.66943
1.77	104.63562
1.7705	89.42871
1.771	48.03772
1.7715	14.09912
1.772	-12.68921
1.7725	-43.50586
1.773	-63.54675
1.7735	-94.46411
1.774	-103.62854
1.7745	-107.55615
1.775	-94.2627
1.7755	-72.71118
1.776	-60.4248
1.7765	-41.99524
1.777	-22.05505
1.7775	-9.76868
1.778	-12.78992
1.7785	-28.70178
1.779	-47.43347
1.7795	-49.44763
1.78	-62.53967
1.7805	-64.65454
1.781	-60.3241
1.7815	-46.22498
1.782	-33.63647
1.7825	-32.93152
1.783	-10.37292
1.7835	8.96301
1.784	18.73169
1.7845	33.33435
1.785	57.10144
1.7855	75.83313
1.786	75.93384
1.7865	98.99597
1.787	126.89209
1.7875	171.30432
1.788	179.26025
1.7885	177.64893
1.789	160.42786
1.7895	133.3374
1.79	87.71667
1.7905	38.06763
1.791	-6.14319
1.7915	-49.74976
1.792	-97.78748
1.7925	-152.27051
1.793	-193.15796
1.7935	-211.48682
1.794	-206.45142
1.7945	-179.46167
1.795	-147.03369
1.7955	-98.99597
1.796	-41.39099
1.7965	3.62549
1.797	39.37683
1.7975	51.46179
1.798	54.88586
1.7985	53.07312
1.799	50.2533
1.7995	53.97949
1.8	55.3894
1.8005	67.47437
1.801	65.46021
1.8015	53.77808
1.802	42.49878
1.8025	33.13293
1.803	28.60107
1.8035	25.07629
1.804	16.11328
1.8045	10.77576
1.805	0.10071
1.8055	-11.07788
1.806	-17.92603
1.8065	-14.90479
1.807	-13.59558
1.8075	-17.72461
1.808	-11.98425
1.8085	8.56018
1.809	12.68921
1.8095	20.94727
1.81	36.05347
1.8105	38.06763
1.811	44.0094
1.8115	34.94568
1.812	28.29895
1.8125	21.85364
1.813	9.86938
1.8135	0.70496
1.814	-2.31628
1.8145	-10.97717
1.815	-8.15735
1.8155	-8.56018
1.816	-16.3147
1.8165	-11.2793
1.817	-8.25806
1.8175	-4.63257
1.818	-5.94177
1.8185	-0.10071
1.819	11.98425
1.8195	20.84656
1.82	27.39258
1.8205	32.83081
1.821	39.77966
1.8215	33.9386
1.822	24.57275
1.8225	21.04797
1.823	17.82532
1.8235	8.45947
1.824	11.38
1.8245	12.38708
1.825	8.8623
1.8255	3.8269
1.826	-3.12195
1.8265	-2.01416
1.827	-5.0354
1.8275	-8.35876
1.828	-3.12195
1.8285	-0.20142
1.829	-1.71204
1.8295	3.52478
1.83	2.5177
1.8305	10.47363
1.831	11.17859
1.8315	14.60266
1.832	20.34302
1.8325	17.82532
1.833	6.54602
1.8335	7.04956
1.834	9.97009
1.8345	16.41541
1.835	19.63806
1.8355	20.54443
1.836	14.60266
1.8365	7.85522
1.837	2.5177
1.8375	-7.04956
1.838	-6.84814
1.8385	-11.78284
1.839	-23.56567
1.8395	-38.77258
1.84	-41.39099
1.8405	-38.57117
1.841	-41.99524
1.8415	-33.83789
1.842	-16.21399
1.8425	-0.20142
1.843	18.63098
1.8435	28.60107
1.844	22.25647
1.8445	19.03381
1.845	13.09204
1.8455	8.35876
1.846	6.84814
1.8465	18.32886
1.847	21.95435
1.8475	25.57983
1.848	30.31311
1.8485	31.4209
1.849	28.50037
1.8495	26.3855
1.85	17.32178
1.8505	8.96301
1.851	11.68213
1.8515	14.80408
1.852	12.48779
1.8525	5.33752
1.853	3.7262
1.8535	2.61841
1.854	4.33044
1.8545	3.92761
1.855	2.21558
1.8555	0.60425
1.856	0.10071
1.8565	6.94885
1.857	11.58142
1.8575	12.18567
1.858	4.43115
1.8585	6.74744
1.859	5.13611
1.8595	8.05664
1.86	10.17151
1.8605	11.58142
1.861	14.19983
1.8615	12.18567
1.862	10.97717
1.8625	35.04639
1.863	59.51843
1.8635	74.82605
1.864	90.23438
1.8645	96.27686
1.865	109.26819
1.8655	118.83545
1.866	112.69226
1.8665	100.40588
1.867	86.20605
1.8675	57.20215
1.868	21.95435
1.8685	-5.84106
1.869	-30.61523
1.8695	-62.13684
1.87	-88.82446
1.8705	-103.52783
1.871	-88.22021
1.8715	-60.22339
1.872	-32.32727
1.8725	-21.65222
1.873	6.54602
1.8735	28.19824
1.874	53.47595
1.8745	69.89136
1.875	76.94092
1.8755	74.32251
1.876	52.16675
1.8765	26.08337
1.877	-14.70337
1.8775	-31.4209
1.878	-46.22498
1.8785	-55.18799
1.879	-80.66711
1.8795	-100.40588
1.88	-86.91101
1.8805	-69.58923
1.881	-49.24622
1.8815	-39.88037
1.882	-23.8678
1.8825	-6.14319
1.883	28.50037
1.8835	30.11169
1.884	10.77576
1.8845	-9.36584
1.885	-27.49329
1.8855	-45.92285
1.886	-63.64746
1.8865	-70.3949
1.887	-58.41064
1.8875	-29.91028
1.888	-10.47363
1.8885	-6.2439
1.889	0.30212
1.8895	0.20142
1.89	-8.7616
1.8905	-4.02832
1.891	-18.8324
1.8915	-31.01807
1.892	-29.80957
1.8925	-50.45471
1.893	-46.22498
1.8935	-42.39807
1.894	-39.57825
1.8945	-31.52161
1.895	-29.30603
1.8955	-12.99133
1.896	-2.11487
1.8965	21.65222
1.897	44.11011
1.8975	58.51135
1.898	58.91418
1.8985	61.23047
1.899	51.76392
1.8995	41.79382
1.9	39.98108
1.9005	24.57275
1.901	11.88354
1.9015	2.01416
1.902	-7.75452
1.9025	-18.32886
1.903	-15.20691
1.9035	-10.97717
1.904	-0.70496
1.9045	9.76868
1.905	18.42957
1.9055	17.72461
1.906	15.00549
1.9065	27.09045
1.907	24.67346
1.9075	21.55151
1.908	22.45789
1.9085	30.91736
1.909	37.16125
1.9095	38.77258
1.91	30.71594
1.9105	19.53735
1.911	17.92603
1.9115	13.09204
1.912	15.30762
1.9125	18.42957
1.913	16.01257
1.9135	14.19983
1.914	17.01965
1.9145	9.86938
1.915	3.7262
1.9155	9.36584
1.916	6.94885
1.9165	8.15735
1.917	7.85522
1.9175	15.50903
1.918	17.32178
1.9185	22.35718
1.919	23.56567
1.9195	21.3501
1.92	27.09045
1.9205	27.6947
1.921	34.44214
1.9215	26.48621
1.922	26.3855
1.9225	21.95435
1.923	19.13452
1.9235	8.35876
1.924	-4.93469
1.9245	-8.25806
1.925	-15.00549
1.9255	-19.43665
1.926	-25.98267
1.9265	-20.64514
1.927	-16.61682
1.9275	-7.25098
1.928	2.92053
1.9285	7.95593
1.929	16.91895
1.9295	21.14868
1.93	27.29187
1.9305	26.68762
1.931	25.68054
1.9315	23.56567
1.932	25.57983
1.9325	16.91895
1.933	7.45239
1.9335	-1.91345
1.934	1.61133
1.9345	-6.64673
1.935	-9.16443
1.9355	-7.25098
1.936	-17.72461
1.9365	-20.84656
1.937	-19.53735
1.9375	-15.00549
1.938	-14.19983
1.9385	-12.78992
1.939	-13.69629
1.9395	-8.25806
1.94	-2.92053
1.9405	-4.53186
1.941	-0.70496
1.9415	4.63257
1.942	11.38
1.9425	18.02673
1.943	13.797
1.9435	14.30054
1.944	13.19275
1.9445	12.68921
1.945	17.52319
1.9455	11.07788
1.946	15.1062
1.9465	18.12744
1.947	17.72461
1.9475	14.09912
1.948	8.56018
1.9485	9.86938
1.949	29.70886
1.9495	42.29736
1.95	58.20923
1.9505	67.47437
1.951	69.58923
1.9515	68.38074
1.952	66.26587
1.9525	58.41064
1.953	44.21082
1.9535	31.01807
1.954	18.42957
1.9545	14.40125
1.955	1.3092
1.9555	-10.17151
1.956	-31.82373
1.9565	-44.51294
1.957	-52.8717
1.9575	-45.72144
1.958	-47.7356
1.9585	-38.77258
1.959	-32.7301
1.9595	-27.89612
1.96	-22.55859
1.9605	-10.37292
1.961	2.31628
1.9615	17.12036
1.962	35.44922
1.9625	30.31311
1.963	12.5885
1.9635	-6.94885
1.964	-25.78125
1.9645	-39.07471
1.965	-55.69153
1.9655	-66.26587
1.966	-78.45154
1.9665	-75.22888
1.967	-60.92834
1.9675	-51.76392
1.968	-33.83789
1.9685	-22.25647
1.969	1.00708
1.9695	18.93311
1.97	21.24939
1.9705	22.55859
1.971	15.40833
1.9715	9.76868
1.972	12.89062
1.9725	27.19116
1.973	37.06055
1.9735	43.60657
1.974	41.29028
1.9745	41.69312
1.975	61.93542
1.9755	89.42871
1.976	112.39014
1.9765	123.87085
1.977	127.09351
1.9775	123.46802
1.978	111.28235
1.9785	105.13916
1.979	114.60571
1.9795	99.09668
1.98	80.06287
1.9805	54.28162
1.981	27.19116
1.9815	-4.73328
1.982	-51.76392
1.9825	-90.83862
1.983	-124.87793
1.9835	-155.896
1.984	-153.98254
1.9845	-149.24927
1.985	-145.8252
1.9855	-115.20996
1.986	-86.10535
1.9865	-50.45471
1.987	-24.37134
1.9875	-21.95435
1.988	-25.177
1.9885	-19.73877
1.989	-3.7262
1.9895	11.2793
1.99	24.27063
1.9905	42.39807
1.991	48.13843
1.9915	52.06604
1.992	31.92444
1.9925	8.56018
1.993	-8.8623
1.9935	-25.98267
1.994	-34.64355
1.9945	-35.54993
1.995	-39.07471
1.9955	-43.40515
1.996	-39.57825
1.9965	-19.94019
1.997	-3.62549
1.9975	1.51062
1.998	14.70337
1.9985	19.73877
1.999	20.1416
1.9995	17.72461
2	21.45081
2.0005	18.73169
2.001	24.47205
2.0015	29.80957
2.002	32.83081
2.0025	25.68054
2.003	18.42957
2.0035	18.93311
2.004	14.90479
2.0045	18.8324
2.005	13.29346
2.0055	13.29346
2.006	11.78284
2.0065	13.59558
2.007	20.1416
2.0075	15.81116
2.008	10.47363
2.0085	-0.30212
2.009	7.25098
2.0095	0.30212
2.01	4.53186
2.0105	7.45239
2.011	15.50903
2.0115	22.45789
2.012	20.84656
2.0125	38.67188
2.013	54.0802
2.0135	53.97949
2.014	53.47595
2.0145	70.19348
2.015	101.31226
2.0155	109.16748
2.016	116.41846
2.0165	132.63245
2.017	135.35156
2.0175	124.87793
2.018	106.64978
2.0185	79.05579
2.019	57.9071
2.0195	23.36426
2.02	-14.30054
2.0205	-45.11719
2.021	-78.85437
2.0215	-114.80713
2.022	-148.74573
2.0225	-170.09583
2.023	-176.33972
2.0235	-168.38379
2.024	-150.25635
2.0245	-124.07227
2.025	-89.83154
2.0255	-53.67737
2.026	-23.66638
2.0265	0.60425
2.027	5.33752
2.0275	9.86938
2.028	11.2793
2.0285	6.3446
2.029	6.74744
2.0295	10.47363
2.03	10.47363
2.0305	12.48779
2.031	16.01257
2.0315	11.88354
2.032	19.53735
2.0325	14.50195
2.033	12.5885
2.0335	20.34302
2.034	20.54443
2.0345	29.40674
2.035	36.25488
2.0355	35.34851
2.036	35.2478
2.0365	37.56409
2.037	36.25488
2.0375	36.55701
2.038	29.50745
2.0385	19.53735
2.039	20.04089
2.0395	41.79382
2.04	54.18091
2.0405	58.00781
2.041	73.81897
2.0415	83.18481
2.042	78.04871
2.0425	68.58215
2.043	64.65454
2.0435	60.62622
2.044	55.79224
2.0445	48.74268
2.045	45.01648
2.0455	31.72302
2.046	4.02832
2.0465	-8.45947
2.047	-31.62231
2.0475	-57.70569
2.048	-64.55383
2.0485	-82.9834
2.049	-96.27686
2.0495	-92.65137
2.05	-89.02588
2.0505	-78.75366
2.051	-49.14551
2.0515	-12.99133
2.052	-5.23682
2.0525	1.2085
2.053	10.87646
2.0535	13.89771
2.054	0.40283
2.0545	-20.64514
2.055	-35.44922
2.0555	-38.06763
2.056	-33.63647
2.0565	-0.80566
2.057	18.32886
2.0575	22.6593
2.058	17.01965
2.0585	7.45239
2.059	10.97717
2.0595	11.78284
2.06	22.05505
2.0605	26.48621
2.061	27.19116
2.0615	21.24939
2.062	24.67346
2.0625	16.01257
2.063	20.74585
2.0635	10.17151
2.064	8.05664
2.0645	9.16443
2.065	11.88354
2.0655	11.17859
2.066	9.76868
2.0665	17.12036
2.067	17.72461
2.0675	14.50195
2.068	10.37292
2.0685	14.60266
2.069	13.69629
2.0695	11.88354
2.07	8.7616
2.0705	12.18567
2.071	7.5531
2.0715	4.83398
2.072	5.53894
2.0725	4.12903
2.073	3.22266
2.0735	7.45239
2.074	10.47363
2.0745	23.8678
2.075	32.93152
2.0755	43.90869
2.076	49.24622
2.0765	56.79932
2.077	62.9425
2.0775	65.46021
2.078	54.28162
2.0785	46.42639
2.079	33.9386
2.0795	20.94727
2.08	17.01965
2.0805	5.13611
2.081	18.53027
2.0815	33.33435
2.082	45.41931
2.0825	57.60498
2.083	60.72693
2.0835	52.16675
2.084	42.49878
2.0845	36.35559
2.085	25.88196
2.0855	6.74744
2.086	-12.68921
2.0865	-20.04089
2.087	-27.6947
2.0875	-36.65771
2.088	-48.94409
2.0885	-67.8772
2.089	-90.83862
2.0895	-105.54199
2.09	-118.63403
2.0905	-102.62146
2.091	-91.8457
2.0915	-62.8418
2.092	-34.03931
2.0925	-22.45789
2.093	0.10071
2.0935	17.42249
2.094	7.5531
2.0945	5.63965
2.095	13.49487
2.0955	9.76868
2.096	3.32336
2.0965	11.2793
2.097	14.30054
2.0975	22.15576
2.098	19.13452
2.0985	8.66089
2.099	6.2439
2.0995	23.06213
2.1	32.32727
2.1005	43.10303
2.101	53.97949
2.1015	68.17932
2.102	72.71118
2.1025	79.55933
2.103	75.53101
2.1035	76.13525
2.104	65.3595
2.1045	46.5271
2.105	29.80957
2.1055	5.23682
2.106	-20.1416
2.1065	-38.47046
2.107	-59.51843
2.1075	-74.92676
2.108	-93.55774
2.1085	-107.85828
2.109	-106.24695
2.1095	-88.11951
2.11	-64.45312
2.1105	-43.30444
2.111	-17.82532
2.1115	-7.5531
2.112	14.50195
2.1125	25.07629
2.113	37.36267
2.1135	41.39099
2.114	39.77966
2.1145	53.47595
2.115	70.79773
2.1155	82.88269
2.116	77.04163
2.1165	70.09277
2.117	56.90002
2.1175	39.27612
2.118	23.06213
2.1185	6.3446
2.119	-9.76868
2.1195	-19.53735
2.12	-26.48621
2.1205	-36.55701
2.121	-40.98816
2.1215	-39.57825
2.122	-39.98108
2.1225	-36.35559
2.123	-39.37683
2.1235	-28.70178
2.124	-20.74585
2.1245	-12.89062
2.125	-0.70496
2.1255	0.30212
2.126	-1.2085
2.1265	6.44531
2.127	5.74036
2.1275	11.17859
2.128	11.98425
2.1285	13.59558
2.129	3.02124
2.1295	3.8269
2.13	3.62549
2.1305	0.40283
2.131	2.92053
2.1315	5.33752
2.132	1.2085
2.1325	0.80566
2.133	6.54602
2.1335	8.8623
2.134	5.43823
2.1345	5.84106
2.135	6.54602
2.1355	4.63257
2.136	2.61841
2.1365	2.01416
2.137	8.7616
2.1375	7.65381
2.138	11.68213
2.1385	17.01965
2.139	12.68921
2.1395	17.42249
2.14	17.72461
2.1405	13.89771
2.141	12.48779
2.1415	8.05664
2.142	5.74036
2.1425	2.71912
2.143	-3.92761
2.1435	0.70496
2.144	9.76868
2.1445	16.3147
2.145	26.68762
2.1455	45.3186
2.146	52.16675
2.1465	67.97791
2.147	74.82605
2.1475	88.62305
2.148	93.75916
2.1485	91.745
2.149	90.13367
2.1495	82.47986
2.15	70.49561
2.1505	53.37524
2.151	36.75842
2.1515	11.88354
2.152	-18.53027
2.1525	-60.92834
2.153	-84.59473
2.1535	-103.125
2.154	-116.51917
2.1545	-130.92041
2.155	-125.98572
2.1555	-112.28943
2.156	-96.57898
2.1565	-73.11401
2.157	-53.97949
2.1575	-26.88904
2.158	10.17151
2.1585	39.27612
2.159	57.9071
2.1595	78.65295
2.16	107.55615
2.1605	127.39563
2.161	136.96289
2.1615	129.10767
2.162	109.67102
2.1625	91.04004
2.163	64.95667
2.1635	45.3186
2.164	26.3855
2.1645	14.09912
2.165	6.14319
2.1655	20.34302
2.166	16.3147
2.1665	31.11877
2.167	41.39099
2.1675	45.11719
2.168	33.53577
2.1685	9.06372
2.169	1.10779
2.1695	-3.12195
2.17	12.28638
2.1705	19.33594
2.171	9.97009
2.1715	3.7262
2.172	-17.01965
2.1725	-38.77258
2.173	-72.30835
2.1735	-83.48694
2.174	-95.97473
2.1745	-104.53491
2.175	-96.07544
2.1755	-78.14941
2.176	-60.3241
2.1765	-40.88745
2.177	-38.26904
2.1775	-25.88196
2.178	-27.59399
2.1785	-53.57666
2.179	-59.41772
2.1795	-63.64746
2.18	-60.3241
2.1805	-51.76392
2.181	-42.19666
2.1815	-30.11169
2.182	-13.29346
2.1825	8.35876
2.183	27.19116
2.1835	32.7301
2.184	27.99683
2.1845	26.48621
2.185	20.94727
2.1855	20.94727
2.186	18.32886
2.1865	31.32019
2.187	36.95984
2.1875	36.4563
2.188	36.15417
2.1885	26.08337
2.189	25.37842
2.1895	17.42249
2.19	16.01257
2.1905	17.12036
2.191	12.48779
2.1915	13.39417
2.192	11.38
2.1925	7.25098
2.193	4.33044
2.1935	7.85522
2.194	8.05664
2.1945	8.05664
2.195	10.47363
2.1955	8.8623
2.196	7.65381
2.1965	9.86938
2.197	7.15027
2.1975	8.56018
2.198	9.06372
2.1985	11.48071
2.199	11.98425
2.1995	12.68921
2.2	13.09204
2.2005	10.27222
2.201	6.54602
2.2015	9.36584
2.202	11.68213
2.2025	13.29346
2.203	15.60974
2.2035	8.66089
2.204	13.49487
2.2045	7.5531
2.205	10.57434
2.2055	6.84814
2.206	2.71912
2.2065	3.62549
2.207	9.76868
2.2075	4.33044
2.208	4.63257
2.2085	2.71912
2.209	2.41699
2.2095	2.5177
2.21	4.12903
2.2105	4.02832
2.211	4.12903
2.2115	3.62549
2.212	7.5531
2.2125	5.23682
2.213	1.71204
2.2135	7.25098
2.214	5.13611
2.2145	6.84814
2.215	6.94885
2.2155	7.65381
2.216	2.81982
2.2165	3.32336
2.217	4.33044
2.2175	7.95593
2.218	10.57434
2.2185	7.85522
2.219	10.57434
2.2195	8.8623
2.22	9.06372
2.2205	7.15027
2.221	7.25098
2.2215	4.83398
2.222	5.63965
2.2225	3.7262
2.223	5.94177
2.2235	8.8623
2.224	5.0354
2.2245	9.26514
2.225	8.15735
2.2255	8.35876
2.226	4.63257
2.2265	2.01416
2.227	9.26514
2.2275	8.25806
2.228	6.04248
2.2285	14.09912
2.229	16.11328
2.2295	10.57434
2.23	11.38
2.2305	7.25098
2.231	4.83398
2.2315	6.44531
2.232	4.93469
2.2325	9.06372
2.233	13.29346
2.2335	2.71912
2.234	8.25806
2.2345	12.28638
2.235	10.27222
2.2355	9.36584
2.236	3.42407
2.2365	13.29346
2.237	7.85522
2.2375	6.44531
2.238	8.66089
2.2385	2.11487
2.239	8.45947
2.2395	16.71753
2.24	17.32178
2.2405	25.57983
2.241	30.91736
2.2415	29.50745
2.242	30.81665
2.2425	24.67346
2.243	26.98975
2.2435	24.77417
2.244	30.2124
2.2445	27.19116
2.245	22.86072
2.2455	13.69629
2.246	0.60425
2.2465	1.00708
2.247	-5.94177
2.2475	-22.6593
2.248	-28.9032
2.2485	-32.22656
2.249	-36.05347
2.2495	-41.99524
2.25	-37.86621
2.2505	-31.11877
2.251	-26.08337
2.2515	-21.95435
2.252	-5.74036
2.2525	10.97717
2.253	17.72461
2.2535	17.6239
2.254	25.88196
2.2545	35.34851
2.255	36.25488
2.2555	46.92993
2.256	50.95825
2.2565	56.90002
2.257	61.43188
2.2575	62.64038
2.258	62.03613
2.2585	61.12976
2.259	61.93542
2.2595	61.53259
2.26	51.96533
2.2605	42.39807
2.261	35.85205
2.2615	14.60266
2.262	12.08496
2.2625	4.12903
2.263	-1.61133
2.2635	-23.36426
2.264	-37.7655
2.2645	-63.64746
2.265	-85.09827
2.2655	-98.79456
2.266	-106.9519
2.2665	-91.54358
2.267	-73.71826
2.2675	-55.69153
2.268	-38.47046
2.2685	-20.64514
2.269	-7.95593
2.2695	-6.64673
2.27	1.40991
2.2705	4.83398
2.271	7.25098
2.2715	9.66797
2.272	13.49487
2.2725	22.86072
2.273	27.19116
2.2735	19.13452
2.274	14.90479
2.2745	14.60266
2.275	13.29346
2.2755	13.69629
2.276	7.45239
2.2765	7.04956
2.277	10.57434
2.2775	4.33044
2.278	7.75452
2.2785	10.57434
2.279	8.35876
2.2795	6.04248
2.28	10.0708
2.2805	8.96301
2.281	8.96301
2.2815	2.5177
2.282	2.81982
2.2825	-2.5177
2.283	0.90637
2.2835	8.56018
2.284	9.97009
2.2845	6.74744
2.285	7.75452
2.2855	2.41699
2.286	-1.91345
2.2865	5.0354
2.287	8.35876
2.2875	5.74036
2.288	7.5531
2.2885	10.97717
2.289	10.57434
2.2895	8.66089
2.29	4.12903
2.2905	4.73328
2.291	10.67505
2.2915	13.49487
2.292	12.99133
2.2925	10.67505
2.293	6.64673
2.2935	13.09204
2.294	6.2439
2.2945	9.16443
2.295	6.2439
2.2955	7.65381
2.296	-2.92053
2.2965	3.62549
2.297	0.80566
2.2975	3.32336
2.298	0.40283
2.2985	0.80566
2.299	4.43115
2.2995	8.35876
2.3	8.96301
2.3005	7.85522
2.301	8.96301
2.3015	3.7262
2.302	21.55151
2.3025	38.36975
2.303	48.33984
2.3035	59.61914
2.304	65.56091
2.3045	66.06445
2.305	67.37366
2.3055	59.01489
2.306	49.85046
2.3065	39.57825
2.307	31.72302
2.3075	16.81824
2.308	1.10779
2.3085	-18.32886
2.309	-27.29187
2.3095	-40.78674
2.31	-50.65613
2.3105	-62.8418
2.311	-63.74817
2.3115	-62.64038
2.312	-49.44763
2.3125	-44.0094
2.313	-29.20532
2.3135	-20.1416
2.314	-5.74036
2.3145	5.23682
2.315	13.39417
2.3155	18.02673
2.316	18.42957
2.3165	25.37842
2.317	20.1416
2.3175	17.42249
2.318	11.68213
2.3185	0.50354
2.319	-8.8623
2.3195	-12.08496
2.32	-13.09204
2.3205	-19.03381
2.321	-11.98425
2.3215	-13.69629
2.322	-5.94177
2.3225	3.12195
2.323	1.40991
2.3235	3.52478
2.324	4.33044
2.3245	6.04248
2.325	6.94885
2.3255	10.0708
2.326	4.63257
2.3265	17.32178
2.327	14.50195
2.3275	9.46655
2.328	15.60974
2.3285	14.40125
2.329	11.48071
2.3295	13.797
2.33	8.96301
2.3305	12.78992
2.331	8.25806
2.3315	9.97009
2.332	13.09204
2.3325	15.91187
2.333	19.63806
2.3335	19.23523
2.334	26.08337
2.3345	21.75293
2.335	19.03381
2.3355	18.93311
2.336	18.73169
2.3365	23.16284
2.337	29.70886
2.3375	23.8678
2.338	21.65222
2.3385	19.03381
2.339	16.81824
2.3395	9.56726
2.34	3.62549
2.3405	1.51062
2.341	0.40283
2.3415	2.11487
2.342	19.43665
2.3425	24.77417
2.343	22.45789
2.3435	25.98267
2.344	31.11877
2.3445	42.39807
2.345	55.18799
2.3455	84.89685
2.346	102.21863
2.3465	111.9873
2.347	106.14624
2.3475	97.98889
2.348	80.26428
2.3485	66.06445
2.349	39.47754
2.3495	11.07788
2.35	-21.95435
2.3505	-61.83472
2.351	-86.00464
2.3515	-107.45544
2.352	-112.99438
2.3525	-103.93066
2.353	-102.52075
2.3535	-88.62305
2.354	-67.47437
2.3545	-47.63489
2.355	-29.60815
2.3555	-24.47205
2.356	-21.65222
2.3565	-11.48071
2.357	-6.54602
2.3575	12.68921
2.358	33.03223
2.3585	39.47754
2.359	31.21948
2.3595	26.3855
2.36	12.89062
2.3605	-1.00708
2.361	-11.2793
2.3615	-24.67346
2.362	-31.82373
2.3625	-36.55701
2.363	-38.57117
2.3635	-31.4209
2.364	-21.75293
2.3645	-1.51062
2.365	16.41541
2.3655	23.06213
2.366	19.33594
2.3665	18.42957
2.367	11.07788
2.3675	18.93311
2.368	13.59558
2.3685	17.01965
2.369	25.27771
2.3695	26.98975
2.37	16.61682
2.3705	10.87646
2.371	8.35876
2.3715	2.81982
2.372	4.22974
2.3725	6.14319
2.373	7.85522
2.3735	5.63965
2.374	10.0708
2.3745	8.35876
2.375	9.86938
2.3755	10.0708
2.376	-3.12195
2.3765	5.84106
2.377	8.05664
2.3775	5.84106
2.378	8.45947
2.3785	10.67505
2.379	8.7616
2.3795	9.56726
2.38	4.93469
2.3805	6.2439
2.381	7.5531
2.3815	7.65381
2.382	8.66089
2.3825	4.73328
2.383	4.73328
2.3835	2.61841
2.384	1.61133
2.3845	1.91345
2.385	1.2085
2.3855	1.51062
2.386	-1.10779
2.3865	6.2439
2.387	1.3092
2.3875	0.60425
2.388	1.10779
2.3885	-0.60425
2.389	1.10779
2.3895	-1.10779
2.39	-0.50354
2.3905	7.95593
2.391	8.35876
2.3915	10.97717
2.392	4.73328
2.3925	5.53894
2.393	3.7262
2.3935	6.04248
2.394	5.43823
2.3945	2.11487
2.395	3.02124
2.3955	1.81274
2.396	-2.5177
2.3965	1.10779
2.397	3.62549
2.3975	-4.93469
2.398	-0.30212
2.3985	1.61133
2.399	-3.42407
2.3995	1.71204
2.4	2.21558
2.4005	7.15027
2.401	4.73328
2.4015	5.43823
2.402	2.41699
2.4025	0.90637
2.403	2.31628
2.4035	1.40991
2.404	1.51062
2.4045	-0.30212
2.405	6.94885
2.4055	7.85522
2.406	0.60425
2.4065	3.42407
2.407	6.3446
2.4075	5.74036
2.408	4.53186
2.4085	5.63965
2.409	2.21558
2.4095	4.83398
2.41	4.12903
2.4105	1.61133
2.411	8.05664
2.4115	4.73328
2.412	7.35168
2.4125	7.15027
2.413	7.25098
2.4135	2.5177
2.414	4.43115
2.4145	6.64673
2.415	4.93469
2.4155	6.2439
2.416	-2.71912
2.4165	5.43823
2.417	1.3092
2.4175	-3.02124
2.418	-4.43115
2.4185	-1.10779
2.419	-2.21558
2.4195	1.61133
2.42	1.3092
2.4205	-3.92761
2.421	-6.44531
2.4215	-5.53894
2.422	2.41699
2.4225	-1.00708
2.423	0
2.4235	2.01416
2.424	8.05664
2.4245	1.10779
2.425	6.74744
2.4255	10.77576
2.426	6.84814
2.4265	9.46655
2.427	9.66797
2.4275	8.45947
2.428	11.78284
2.4285	17.52319
2.429	17.01965
2.4295	20.34302
2.43	27.29187
2.4305	27.99683
2.431	26.98975
2.4315	28.60107
2.432	27.99683
2.4325	23.36426
2.433	25.07629
2.4335	23.8678
2.434	18.53027
2.4345	8.66089
2.435	-0.80566
2.4355	-9.06372
2.436	-22.15576
2.4365	-23.26355
2.437	-35.95276
2.4375	-40.1825
2.438	-34.44214
2.4385	-25.27771
2.439	-20.04089
2.4395	-15.60974
2.44	-21.85364
2.4405	-14.30054
2.441	-13.39417
2.4415	-8.96301
2.442	-9.86938
2.4425	-8.56018
2.443	-1.81274
2.4435	-1.71204
2.444	-3.12195
2.4445	-2.5177
2.445	0.70496
2.4455	3.02124
2.446	1.2085
2.4465	2.81982
2.447	21.75293
2.4475	46.42639
2.448	95.67261
2.4485	134.84802
2.449	156.90308
2.4495	166.47034
2.45	175.33264
2.4505	179.15955
2.451	166.0675
2.4515	150.9613
2.452	120.95032
2.4525	82.88269
2.453	40.2832
2.4535	1.2085
2.454	-28.19824
2.4545	-63.64746
2.455	-112.69226
2.4555	-146.02661
2.456	-173.31848
2.4565	-186.30981
2.457	-184.69849
2.4575	-178.15247
2.458	-160.02502
2.4585	-125.48218
2.459	-71.20056
2.4595	-34.94568
2.46	-1.91345
2.4605	44.11011
2.461	66.87012
2.4615	79.66003
2.462	79.66003
2.4625	83.48694
2.463	79.35791
2.4635	73.41614
2.464	71.90552
2.4645	63.24463
2.465	51.5625
2.4655	36.4563
2.466	24.47205
2.4665	10.0708
2.467	-1.51062
2.4675	-22.35718
2.468	-34.64355
2.4685	-47.03064
2.469	-65.3595
2.4695	-69.79065
2.47	-69.58923
2.4705	-63.44604
2.471	-54.68445
2.4715	-35.85205
2.472	-24.97559
2.4725	-12.68921
2.473	2.31628
2.4735	7.65381
2.474	9.97009
2.4745	10.77576
2.475	8.45947
2.4755	6.54602
2.476	4.02832
2.4765	14.19983
2.477	26.3855
2.4775	21.55151
2.478	24.87488
2.4785	20.84656
2.479	13.49487
2.4795	15.20691
2.48	11.38
2.4805	14.50195
2.481	11.2793
2.4815	16.71753
2.482	11.48071
2.4825	9.56726
2.483	8.45947
2.4835	16.61682
2.484	14.09912
2.4845	16.41541
2.485	16.61682
2.4855	17.42249
2.486	10.0708
2.4865	9.56726
2.487	8.15735
2.4875	7.5531
2.488	15.1062
2.4885	3.62549
2.489	8.05664
2.4895	5.0354
2.49	1.3092
2.4905	6.14319
2.491	2.21558
2.4915	9.46655
2.492	1.3092
2.4925	2.61841
2.493	-1.3092
2.4935	0.70496
2.494	3.42407
2.4945	-0.20142
2.495	6.44531
2.4955	7.15027
2.496	0.10071
2.4965	6.14319
2.497	6.94885
2.4975	6.14319
2.498	1.00708
2.4985	8.7616
2.499	-0.90637
2.4995	4.83398
2.5	13.29346
2.5005	20.64514
2.501	19.13452
2.5015	23.06213
2.502	28.39966
2.5025	26.98975
2.503	33.63647
2.5035	27.39258
2.504	25.37842
2.5045	22.25647
2.505	14.90479
2.5055	5.84106
2.506	4.22974
2.5065	5.43823
2.507	-3.42407
2.5075	-12.5885
2.508	-16.81824
2.5085	-26.88904
2.509	-34.64355
2.5095	-34.64355
2.51	-28.09753
2.5105	-20.94727
2.511	-20.54443
2.5115	-11.78284
2.512	-8.35876
2.5125	-4.63257
2.513	0.50354
2.5135	2.61841
2.514	1.81274
2.5145	1.2085
2.515	3.8269
2.5155	5.53894
2.516	-1.81274
2.5165	1.2085
2.517	-3.52478
2.5175	-2.31628
2.518	1.00708
2.5185	-1.51062
2.519	-7.5531
2.5195	-0.10071
2.52	-0.80566
2.5205	-7.04956
2.521	-3.7262
2.5215	1.40991
2.522	-2.5177
2.5225	-3.02124
2.523	3.32336
2.5235	6.44531
2.524	9.66797
2.5245	17.32178
2.525	31.21948
2.5255	38.57117
2.526	34.54285
2.5265	40.2832
2.527	43.60657
2.5275	44.11011
2.528	52.97241
2.5285	62.03613
2.529	57.20215
2.5295	57.40356
2.53	47.53418
2.5305	42.8009
2.531	32.93152
2.5315	23.76709
2.532	0.50354
2.5325	-8.7616
2.533	-30.91736
2.5335	-37.46338
2.534	-51.05896
2.5345	-54.38232
2.535	-60.62622
2.5355	-59.1156
2.536	-55.49011
2.5365	-54.98657
2.537	-47.03064
2.5375	-33.83789
2.538	-19.94019
2.5385	-11.98425
2.539	0.30212
2.5395	6.94885
2.54	8.96301
2.5405	11.58142
2.541	18.73169
2.5415	21.85364
2.542	17.22107
2.5425	21.95435
2.543	15.91187
2.5435	7.85522
2.544	1.51062
2.5445	1.81274
2.545	5.53894
2.5455	11.2793
2.546	7.95593
2.5465	16.21399
2.547	28.70178
2.5475	44.61365
2.548	46.5271
2.5485	49.0448
2.549	42.29736
2.5495	40.08179
2.55	38.47046
2.5505	21.85364
2.551	21.24939
2.5515	9.16443
2.552	1.71204
2.5525	-10.77576
2.553	-15.60974
2.5535	-21.95435
2.554	-29.00391
2.5545	-30.81665
2.555	-35.95276
2.5555	-32.52869
2.556	-33.73718
2.5565	-26.48621
2.557	-17.42249
2.5575	-5.33752
2.558	7.45239
2.5585	7.85522
2.559	17.42249
2.5595	25.27771
2.56	25.37842
2.5605	26.88904
2.561	22.6593
2.5615	14.70337
2.562	4.53186
2.5625	3.8269
2.563	-1.2085
2.5635	-4.22974
2.564	-9.97009
2.5645	-8.35876
2.565	-9.97009
2.5655	-8.05664
2.566	-3.7262
2.5665	14.19983
2.567	14.40125
2.5675	28.9032
2.568	31.01807
2.5685	35.75134
2.569	41.18958
2.5695	41.29028
2.57	39.27612
2.5705	24.97559
2.571	20.64514
2.5715	13.797
2.572	4.12903
2.5725	-4.93469
2.573	-13.39417
2.5735	-24.06921
2.574	-37.86621
2.5745	-47.63489
2.575	-54.28162
2.5755	-58.00781
2.576	-58.30994
2.5765	-48.44055
2.577	-40.68604
2.5775	-30.71594
2.578	-17.6239
2.5785	-5.63965
2.579	7.5531
2.5795	8.8623
2.58	3.92761
2.5805	9.36584
2.581	5.94177
2.5815	20.64514
2.582	26.98975
2.5825	50.05188
2.583	58.61206
2.5835	57.00073
2.584	42.8009
2.5845	38.16833
2.585	33.9386
2.5855	23.76709
2.586	15.40833
2.5865	17.12036
2.587	11.98425
2.5875	2.81982
2.588	-5.94177
2.5885	-12.48779
2.589	-11.17859
2.5895	-15.00549
2.59	-21.14868
2.5905	-19.33594
2.591	-24.06921
2.5915	-15.40833
2.592	-15.71045
2.5925	-7.75452
2.593	-4.83398
2.5935	11.68213
2.594	18.42957
2.5945	20.74585
2.595	24.16992
2.5955	30.81665
2.596	32.7301
2.5965	38.06763
2.597	38.47046
2.5975	39.27612
2.598	32.32727
2.5985	28.9032
2.599	26.48621
2.5995	21.45081
2.6	9.86938
2.6005	5.33752
2.601	3.02124
2.6015	-1.3092
2.602	-3.62549
2.6025	-11.98425
2.603	-15.81116
2.6035	-17.6239
2.604	-14.40125
2.6045	3.42407
2.605	11.38
2.6055	20.24231
2.606	25.78125
2.6065	39.98108
2.607	45.3186
2.6075	50.65613
2.608	52.67029
2.6085	50.75684
2.609	48.74268
2.6095	33.13293
2.61	20.1416
2.6105	15.30762
2.611	3.92761
2.6115	-14.19983
2.612	-30.2124
2.6125	-50.15259
2.613	-56.49719
2.6135	-62.8418
2.614	-70.29419
2.6145	-70.99915
2.615	-67.27295
2.6155	-55.3894
2.616	-48.33984
2.6165	-32.62939
2.617	-8.15735
2.6175	4.93469
2.618	12.99133
2.6185	18.32886
2.619	24.77417
2.6195	28.9032
2.62	35.14709
2.6205	39.98108
2.621	45.82214
2.6215	51.5625
2.622	48.54126
2.6225	33.83789
2.623	31.82373
2.6235	22.25647
2.624	11.88354
2.6245	2.5177
2.625	-4.53186
2.6255	5.43823
2.626	11.48071
2.6265	19.63806
2.627	21.85364
2.6275	32.32727
2.628	38.67188
2.6285	45.52002
2.629	44.91577
2.6295	39.17542
2.63	33.03223
2.6305	22.05505
2.631	15.00549
2.6315	3.12195
2.632	-8.25806
2.6325	-12.38708
2.633	-10.67505
2.6335	-9.26514
2.634	-15.20691
2.6345	-15.60974
2.635	-16.01257
2.6355	-16.71753
2.636	-8.25806
2.6365	-2.81982
2.637	3.8269
2.6375	16.81824
2.638	25.27771
2.6385	23.56567
2.639	16.71753
2.6395	-0.60425
2.64	-5.13611
2.6405	-8.15735
2.641	-19.43665
2.6415	-29.80957
2.642	-43.80798
2.6425	-41.18958
2.643	-47.93701
2.6435	-50.45471
2.644	-36.05347
2.6445	-18.53027
2.645	-6.64673
2.6455	13.39417
2.646	22.86072
2.6465	39.17542
2.647	52.36816
2.6475	47.53418
2.648	46.22498
2.6485	32.7301
2.649	33.83789
2.6495	30.91736
2.65	30.71594
2.6505	25.27771
2.651	16.51611
2.6515	5.74036
2.652	-2.31628
2.6525	-0.80566
2.653	-5.0354
2.6535	-6.54602
2.654	-9.76868
2.6545	-5.84106
2.655	0.40283
2.6555	2.31628
2.656	-2.41699
2.6565	-0.80566
2.657	3.02124
2.6575	-3.12195
2.658	-4.02832
2.6585	1.81274
2.659	2.81982
2.6595	7.04956
2.66	10.17151
2.6605	12.38708
2.661	16.41541
2.6615	20.04089
2.662	18.73169
2.6625	21.24939
2.663	28.9032
2.6635	28.29895
2.664	30.71594
2.6645	29.91028
2.665	39.37683
2.6655	50.15259
2.666	58.30994
2.6665	66.76941
2.667	66.6687
2.6675	62.64038
2.668	59.31702
2.6685	57.9071
2.669	53.27454
2.6695	43.00232
2.67	34.14001
2.6705	12.99133
2.671	-8.66089
2.6715	-26.58691
2.672	-53.27454
2.6725	-68.38074
2.673	-84.2926
2.6735	-100.90942
2.674	-111.08093
2.6745	-117.12341
2.675	-107.15332
2.6755	-93.35632
2.676	-76.43738
2.6765	-51.36108
2.677	-22.45789
2.6775	2.41699
2.678	18.8324
2.6785	29.70886
2.679	34.44214
2.6795	35.54993
2.68	33.73718
2.6805	31.21948
2.681	27.49329
2.6815	33.03223
2.682	29.70886
2.6825	23.46497
2.683	18.93311
2.6835	17.12036
2.684	8.96301
2.6845	5.43823
2.685	3.8269
2.6855	11.38
2.686	7.35168
2.6865	13.797
2.687	14.90479
2.6875	14.19983
2.688	13.09204
2.6885	8.56018
2.689	6.64673
2.6895	7.04956
2.69	10.47363
2.6905	9.86938
2.691	6.2439
2.6915	16.51611
2.692	14.19983
2.6925	12.28638
2.693	15.50903
2.6935	29.70886
2.694	31.52161
2.6945	31.52161
2.695	33.03223
2.6955	45.3186
2.696	36.75842
2.6965	40.48462
2.697	34.14001
2.6975	24.57275
2.698	18.53027
2.6985	14.80408
2.699	0.60425
2.6995	-6.84814
2.7	-17.32178
2.7005	-24.06921
2.701	-26.98975
2.7015	-26.88904
2.702	-33.33435
2.7025	-27.79541
2.703	-25.88196
2.7035	-9.86938
2.704	-5.33752
2.7045	-2.21558
2.705	4.93469
2.7055	10.67505
2.706	11.17859
2.7065	12.99133
2.707	13.69629
2.7075	10.87646
2.708	9.76868
2.7085	-1.71204
2.709	2.41699
2.7095	2.81982
2.71	0.60425
2.7105	9.86938
2.711	25.27771
2.7115	32.62939
2.712	25.88196
2.7125	39.47754
2.713	47.53418
2.7135	44.91577
2.714	55.99365
2.7145	54.48303
2.715	57.70569
2.7155	48.54126
2.716	29.60815
2.7165	20.54443
2.717	2.5177
2.7175	-8.35876
2.718	-23.8678
2.7185	-49.54834
2.719	-72.10693
2.7195	-79.45862
2.72	-94.56482
2.7205	-92.34924
2.721	-90.63721
2.7215	-74.82605
2.722	-62.9425
2.7225	-42.49878
2.723	-25.78125
2.7235	-11.17859
2.724	0
2.7245	7.25098
2.725	9.86938
2.7255	18.02673
2.726	5.53894
2.7265	9.06372
2.727	22.76001
2.7275	21.45081
2.728	24.06921
2.7285	28.60107
2.729	41.08887
2.7295	46.62781
2.73	66.46729
2.7305	66.26587
2.731	74.42322
2.7315	70.29419
2.732	65.96375
2.7325	50.85754
2.733	33.53577
2.7335	22.6593
2.734	4.93469
2.7345	-3.52478
2.735	-20.74585
2.7355	-30.01099
2.736	-49.64905
2.7365	-45.82214
2.737	-57.60498
2.7375	-47.13135
2.738	-17.72461
2.7385	1.51062
2.739	13.19275
2.7395	16.21399
2.74	21.75293
2.7405	19.63806
2.741	14.19983
2.7415	11.58142
2.742	16.71753
2.7425	8.35876
2.743	0.30212
2.7435	0.30212
2.744	1.81274
2.7445	-3.42407
2.745	-3.7262
2.7455	-3.32336
2.746	-8.96301
2.7465	-6.04248
2.747	-7.25098
2.7475	3.92761
2.748	12.38708
2.7485	13.69629
2.749	3.02124
2.7495	-0.60425
2.75	-2.61841
2.7505	8.15735
2.751	5.33752
2.7515	1.10779
2.752	2.31628
2.7525	-3.22266
2.753	2.92053
2.7535	-1.81274
2.754	-5.23682
2.7545	-8.8623
2.755	-10.97717
2.7555	-7.5531
2.756	-16.01257
2.7565	1.51062
2.757	9.46655
2.7575	15.50903
2.758	14.60266
2.7585	19.53735
2.759	26.68762
2.7595	24.47205
2.76	23.8678
2.7605	29.00391
2.761	29.80957
2.7615	27.99683
2.762	37.86621
2.7625	35.04639
2.763	32.52869
2.7635	30.31311
2.764	24.16992
2.7645	18.32886
2.765	19.94019
2.7655	12.78992
2.766	-1.00708
2.7665	-1.91345
2.767	-8.15735
2.7675	-14.60266
2.768	-16.01257
2.7685	-17.12036
2.769	-22.15576
2.7695	-27.99683
2.77	-17.42249
2.7705	-14.80408
2.771	-14.40125
2.7715	-10.17151
2.772	-1.91345
2.7725	0
2.773	3.8269
2.7735	4.22974
2.774	1.91345
2.7745	6.3446
2.775	-0.10071
2.7755	6.94885
2.776	-1.71204
2.7765	1.51062
2.777	3.32336
2.7775	5.43823
2.778	10.0708
2.7785	8.66089
2.779	6.14319
2.7795	2.31628
2.78	7.5531
2.7805	10.47363
2.781	9.36584
2.7815	12.28638
2.782	10.87646
2.7825	14.30054
2.783	8.96301
2.7835	8.45947
2.784	6.04248
2.7845	9.16443
2.785	4.53186
2.7855	8.05664
2.786	12.68921
2.7865	8.35876
2.787	10.27222
2.7875	14.40125
2.788	12.68921
2.7885	9.97009
2.789	10.57434
2.7895	11.38
2.79	2.81982
2.7905	1.91345
2.791	3.62549
2.7915	0.70496
2.792	-3.32336
2.7925	-5.53894
2.793	-2.81982
2.7935	-2.11487
2.794	1.91345
2.7945	9.16443
2.795	10.27222
2.7955	18.53027
2.796	19.13452
2.7965	20.74585
2.797	25.177
2.7975	24.67346
2.798	23.76709
2.7985	20.04089
2.799	21.04797
2.7995	16.91895
2.8	21.95435
2.8005	20.64514
2.801	19.03381
2.8015	16.61682
2.802	16.81824
2.8025	16.91895
2.803	11.38
2.8035	10.0708
2.804	15.50903
2.8045	9.56726
2.805	8.05664
2.8055	13.69629
2.806	9.26514
2.8065	19.73877
2.807	25.78125
2.8075	25.68054
2.808	29.10461
2.8085	26.3855
2.809	17.72461
2.8095	6.2439
2.81	-6.04248
2.8105	-14.19983
2.811	-29.40674
2.8115	-42.90161
2.812	-53.27454
2.8125	-63.34534
2.813	-77.04163
2.8135	-75.32959
2.814	-71.09985
2.8145	-62.03613
2.815	-46.92993
2.8155	-26.48621
2.816	-15.60974
2.8165	0.90637
2.817	19.43665
2.8175	29.40674
2.818	30.31311
2.8185	28.70178
2.819	27.29187
2.8195	19.83948
2.82	30.71594
2.8205	27.79541
2.821	23.56567
2.8215	17.42249
2.822	10.87646
2.8225	6.44531
2.823	4.63257
2.8235	5.94177
2.824	8.05664
2.8245	1.81274
2.825	7.04956
2.8255	8.56018
2.826	7.45239
2.8265	8.8623
2.827	13.797
2.8275	19.43665
2.828	24.87488
2.8285	25.98267
2.829	23.46497
2.8295	17.22107
2.83	17.52319
2.8305	27.39258
2.831	46.22498
2.8315	60.92834
2.832	62.13684
2.8325	61.02905
2.833	78.75366
2.8335	78.95508
2.834	75.83313
2.8345	77.74658
2.835	75.02747
2.8355	68.98499
2.836	74.72534
2.8365	85.19897
2.837	88.11951
2.8375	68.78357
2.838	53.47595
2.8385	38.87329
2.839	16.41541
2.8395	-6.3446
2.84	-26.28479
2.8405	-40.98816
2.841	-46.12427
2.8415	-46.22498
2.842	-51.76392
2.8425	-52.771
2.843	-46.92993
2.8435	-30.91736
2.844	-27.39258
2.8445	-34.94568
2.845	-49.54834
2.8455	-62.74109
2.846	-79.2572
2.8465	-88.72375
2.847	-74.52393
2.8475	-64.05029
2.848	-48.44055
2.8485	-48.33984
2.849	-41.99524
2.8495	-41.59241
2.85	-42.49878
2.8505	-34.64355
2.851	-31.21948
2.8515	-24.87488
2.852	-23.56567
2.8525	-20.1416
2.853	-16.11328
2.8535	-2.81982
2.854	11.2793
2.8545	21.65222
2.855	22.15576
2.8555	27.99683
2.856	28.19824
2.8565	34.34143
2.857	30.91736
2.8575	33.13293
2.858	24.06921
2.8585	21.45081
2.859	25.78125
2.8595	17.92603
2.86	12.08496
2.8605	11.88354
2.861	11.17859
2.8615	14.40125
2.862	10.97717
2.8625	16.21399
2.863	8.66089
2.8635	14.19983
2.864	16.51611
2.8645	19.33594
2.865	16.71753
2.8655	11.88354
2.866	10.27222
2.8665	7.85522
2.867	9.16443
2.8675	7.5531
2.868	5.84106
2.8685	4.22974
2.869	3.62549
2.8695	7.75452
2.87	7.5531
2.8705	3.02124
2.871	2.81982
2.8715	1.2085
2.872	6.74744
2.8725	12.99133
2.873	14.90479
2.8735	20.84656
2.874	27.39258
2.8745	27.99683
2.875	31.82373
2.8755	31.82373
2.876	24.97559
2.8765	23.76709
2.877	17.92603
2.8775	6.54602
2.878	11.38
2.8785	2.21558
2.879	0.20142
2.8795	7.75452
2.88	8.15735
2.8805	0.80566
2.881	11.07788
2.8815	13.39417
2.882	11.38
2.8825	10.57434
2.883	2.61841
2.8835	3.42407
2.884	-2.92053
2.8845	-7.5531
2.885	-11.98425
2.8855	-13.19275
2.886	-19.94019
2.8865	-19.23523
2.887	-23.16284
2.8875	-24.06921
2.888	-27.99683
2.8885	-28.39966
2.889	-22.55859
2.8895	-22.76001
2.89	-11.07788
2.8905	-7.85522
2.891	-11.58142
2.8915	-5.0354
2.892	6.54602
2.8925	12.68921
2.893	8.8623
2.8935	9.66797
2.894	9.97009
2.8945	3.22266
2.895	3.02124
2.8955	2.71912
2.896	-5.94177
2.8965	-0.40283
2.897	-4.53186
2.8975	-0.40283
2.898	-0.20142
2.8985	-1.71204
2.899	1.61133
2.8995	-4.43115
2.9	-3.8269
2.9005	-6.2439
2.901	0.70496
2.9015	3.8269
2.902	5.33752
2.9025	5.43823
2.903	19.53735
2.9035	26.98975
2.904	33.43506
2.9045	30.91736
2.905	29.50745
2.9055	29.60815
2.906	26.58691
2.9065	25.98267
2.907	22.76001
2.9075	25.27771
2.908	34.54285
2.9085	45.72144
2.909	43.30444
2.9095	44.81506
2.91	43.90869
2.9105	42.39807
2.911	51.46179
2.9115	54.68445
2.912	46.32568
2.9125	46.42639
2.913	40.58533
2.9135	28.60107
2.914	21.45081
2.9145	8.7616
2.915	-8.05664
2.9155	-19.83948
2.916	-29.60815
2.9165	-45.01648
2.917	-54.98657
2.9175	-57.30286
2.918	-61.43188
2.9185	-59.51843
2.919	-56.29578
2.9195	-42.90161
2.92	-31.92444
2.9205	-13.797
2.921	-5.63965
2.9215	2.71912
2.922	3.32336
2.9225	2.92053
2.923	1.51062
2.9235	3.7262
2.924	12.5885
2.9245	19.83948
2.925	19.94019
2.9255	17.01965
2.926	6.84814
2.9265	16.71753
2.927	18.73169
2.9275	9.46655
2.928	16.01257
2.9285	15.1062
2.929	13.49487
2.9295	15.50903
2.93	9.26514
2.9305	7.04956
2.931	1.61133
2.9315	7.25098
2.932	8.7616
2.9325	7.65381
2.933	4.43115
2.9335	11.48071
2.934	3.12195
2.9345	5.0354
2.935	2.71912
2.9355	8.7616
2.936	11.68213
2.9365	19.73877
2.937	24.27063
2.9375	24.97559
2.938	17.01965
2.9385	20.64514
2.939	19.43665
2.9395	36.15417
2.94	31.92444
2.9405	24.97559
2.941	24.87488
2.9415	26.08337
2.942	19.33594
2.9425	16.81824
2.943	13.59558
2.9435	-1.3092
2.944	-6.14319
2.9445	-8.45947
2.945	-12.18567
2.9455	-16.3147
2.946	-24.87488
2.9465	-26.48621
2.947	-24.97559
2.9475	-24.27063
2.948	-28.50037
2.9485	-26.28479
2.949	-26.48621
2.9495	-16.01257
2.95	7.5531
2.9505	33.23364
2.951	51.76392
2.9515	67.8772
2.952	86.8103
2.9525	107.25403
2.953	108.66394
2.9535	108.96606
2.954	92.55066
2.9545	76.53809
2.955	57.00073
2.9555	31.4209
2.956	6.14319
2.9565	-17.42249
2.957	-38.57117
2.9575	-62.53967
2.958	-75.63171
2.9585	-87.21313
2.959	-90.93933
2.9595	-92.44995
2.96	-82.47986
2.9605	-74.92676
2.961	-52.16675
2.9615	-36.25488
2.962	-19.73877
2.9625	-1.71204
2.963	2.61841
2.9635	12.68921
2.964	15.1062
2.9645	9.16443
2.965	12.28638
2.9655	11.98425
2.966	11.38
2.9665	18.42957
2.967	12.18567
2.9675	24.16992
2.968	41.18958
2.9685	51.86462
2.969	62.43896
2.9695	65.05737
2.97	76.53809
2.9705	86.70959
2.971	98.19031
2.9715	104.03137
2.972	97.88818
2.9725	87.51526
2.973	72.10693
2.9735	57.10144
2.974	35.44922
2.9745	13.49487
2.975	-12.68921
2.9755	-48.44055
2.976	-75.53101
2.9765	-100.20447
2.977	-114.70642
2.9775	-117.32483
2.978	-112.59155
2.9785	-111.9873
2.979	-90.43579
2.9795	-74.72534
2.98	-58.61206
2.9805	-39.77966
2.981	-26.08337
2.9815	-11.07788
2.982	-8.45947
2.9825	-6.2439
2.983	-3.02124
2.9835	0.20142
2.984	13.29346
2.9845	20.54443
2.985	28.19824
2.9855	28.9032
2.986	18.63098
2.9865	16.71753
2.987	1.81274
2.9875	7.5531
2.988	4.73328
2.9885	12.28638
2.989	9.26514
2.9895	12.89062
2.99	14.19983
2.9905	17.01965
2.991	21.45081
2.9915	21.85364
2.992	20.84656
2.9925	18.02673
2.993	18.8324
2.9935	14.30054
2.994	13.09204
2.9945	15.30762
2.995	11.78284
2.9955	9.06372
2.996	12.78992
2.9965	16.51611
2.997	9.36584
2.9975	12.28638
2.998	15.1062
2.9985	21.14868
2.999	16.21399
2.9995	12.48779
3	19.83948
3.0005	18.63098
3.001	20.34302
3.0015	17.12036
3.002	17.12036
3.0025	10.57434
3.003	5.33752
3.0035	1.40991
3.004	3.22266
3.0045	17.42249
3.005	35.2478
3.0055	39.27612
3.006	30.71594
3.0065	33.13293
3.007	43.00232
3.0075	49.34692
3.008	56.49719
3.0085	49.85046
3.009	46.92993
3.0095	38.67188
3.01	35.85205
3.0105	21.65222
3.011	1.71204
3.0115	-15.50903
3.012	-28.19824
3.0125	-30.61523
3.013	-35.2478
3.0135	-40.48462
3.014	-42.49878
3.0145	-47.7356
3.015	-37.86621
3.0155	-37.7655
3.016	-39.57825
3.0165	-32.52869
3.017	-17.6239
3.0175	-12.48779
3.018	-7.45239
3.0185	-13.19275
3.019	-13.39417
3.0195	-13.09204
3.02	-16.21399
3.0205	-17.12036
3.021	-8.96301
3.0215	-5.94177
3.022	-4.53186
3.0225	-7.15027
3.023	-7.45239
3.0235	-1.61133
3.024	-1.71204
3.0245	1.3092
3.025	7.95593
3.0255	13.59558
3.026	10.47363
3.0265	16.01257
3.027	21.55151
3.0275	24.57275
3.028	36.65771
3.0285	41.39099
3.029	49.64905
3.0295	61.02905
3.03	71.50269
3.0305	70.69702
3.031	69.1864
3.0315	69.79065
3.032	70.3949
3.0325	59.41772
3.033	43.90869
3.0335	25.27771
3.034	11.98425
3.0345	-6.54602
3.035	-21.14868
3.0355	-35.44922
3.036	-46.82922
3.0365	-50.45471
3.037	-49.34692
3.0375	-47.7356
3.038	-48.64197
3.0385	-48.44055
3.039	-41.18958
3.0395	-38.26904
3.04	-31.4209
3.0405	-26.68762
3.041	-15.71045
3.0415	-8.8623
3.042	-6.94885
3.0425	-16.11328
3.043	-14.19983
3.0435	-10.17151
3.044	-9.66797
3.0445	-12.5885
3.045	-13.59558
3.0455	-13.29346
3.046	-16.01257
3.0465	-7.35168
3.047	3.12195
3.0475	6.84814
3.048	8.56018
3.0485	9.76868
3.049	16.41541
3.0495	15.30762
3.05	19.53735
3.0505	27.59399
3.051	26.18408
3.0515	29.40674
3.052	22.76001
3.0525	23.66638
3.053	21.45081
3.0535	15.91187
3.054	14.19983
3.0545	8.15735
3.055	12.38708
3.0555	13.69629
3.056	8.35876
3.0565	5.53894
3.057	9.66797
3.0575	8.96301
3.058	8.05664
3.0585	1.51062
3.059	1.71204
3.0595	3.92761
3.06	6.04248
3.0605	15.71045
3.061	18.63098
3.0615	24.16992
3.062	32.52869
3.0625	42.8009
3.063	51.96533
3.0635	56.49719
3.064	65.25879
3.0645	65.76233
3.065	66.46729
3.0655	54.78516
3.066	42.29736
3.0665	36.05347
3.067	16.81824
3.0675	1.71204
3.068	-12.48779
3.0685	-32.83081
3.069	-59.41772
3.0695	-69.68994
3.07	-75.93384
3.0705	-79.55933
3.071	-74.82605
3.0715	-60.82764
3.072	-45.62073
3.0725	-34.44214
3.073	-32.02515
3.0735	-20.24231
3.074	-14.50195
3.0745	-11.88354
3.075	-6.54602
3.0755	-4.83398
3.076	-12.5885
3.0765	-9.56726
3.077	-3.62549
3.0775	8.25806
3.078	14.60266
3.0785	9.86938
3.079	8.8623
3.0795	9.36584
3.08	12.48779
3.0805	11.48071
3.081	11.38
3.0815	8.96301
3.082	11.2793
3.0825	11.68213
3.083	11.48071
3.0835	12.28638
3.084	21.75293
3.0845	28.39966
3.085	31.4209
3.0855	36.15417
3.086	34.34143
3.0865	44.91577
3.087	44.41223
3.0875	47.8363
3.088	45.52002
3.0885	40.88745
3.089	30.81665
3.0895	26.98975
3.09	17.42249
3.0905	9.66797
3.091	-6.3446
3.0915	-16.71753
3.092	-33.83789
3.0925	-47.43347
3.093	-53.67737
3.0935	-66.06445
3.094	-58.91418
3.0945	-57.30286
3.095	-48.03772
3.0955	-38.36975
3.096	-23.96851
3.0965	1.40991
3.097	22.05505
3.0975	39.47754
3.098	50.354
3.0985	49.0448
3.099	44.31152
3.0995	38.77258
3.1	28.70178
3.1005	32.52869
3.101	37.7655
3.1015	36.55701
3.102	32.42798
3.1025	20.1416
3.103	11.98425
3.1035	-2.31628
3.104	-11.48071
3.1045	-20.64514
3.105	-26.68762
3.1055	-22.6593
3.106	-31.52161
3.1065	-16.41541
3.107	-16.51611
3.1075	-9.66797
3.108	-11.07788
3.1085	-12.68921
3.109	-10.0708
3.1095	4.33044
3.11	4.33044
3.1105	5.0354
3.111	11.68213
3.1115	16.51611
3.112	26.58691
3.1125	29.20532
3.113	30.41382
3.1135	25.57983
3.114	16.91895
3.1145	14.50195
3.115	11.38
3.1155	13.19275
3.116	5.53894
3.1165	5.63965
3.117	2.41699
3.1175	-3.12195
3.118	-6.64673
3.1185	-8.96301
3.119	-12.89062
3.1195	-9.26514
3.12	-6.84814
3.1205	-1.61133
3.121	4.73328
3.1215	17.22107
3.122	26.68762
3.1225	31.32019
3.123	27.99683
3.1235	25.78125
3.124	25.68054
3.1245	23.06213
3.125	16.91895
3.1255	9.36584
3.126	2.31628
3.1265	1.91345
3.127	2.01416
3.1275	1.2085
3.128	-3.22266
3.1285	-4.43115
3.129	-0.30212
3.1295	-9.16443
3.13	-8.8623
3.1305	-14.19983
3.131	-12.18567
3.1315	-15.1062
3.132	-11.48071
3.1325	-7.04956
3.133	-2.31628
3.1335	3.52478
3.134	5.33752
3.1345	2.31628
3.135	7.35168
3.1355	13.797
3.136	0.80566
3.1365	1.81274
3.137	2.11487
3.1375	4.93469
3.138	5.53894
3.1385	-0.70496
3.139	4.33044
3.1395	5.23682
3.14	2.81982
3.1405	-0.30212
3.141	-1.2085
3.1415	-3.12195
3.142	-0.70496
3.1425	-3.7262
3.143	-0.60425
3.1435	-3.32336
3.144	1.91345
3.1445	0.30212
3.145	-2.5177
3.1455	0.50354
3.146	-1.00708
3.1465	3.8269
3.147	4.73328
3.1475	6.04248
3.148	2.81982
3.1485	4.53186
3.149	16.01257
3.1495	15.00549
3.15	17.82532
3.1505	15.1062
3.151	10.57434
3.1515	14.60266
3.152	11.48071
3.1525	15.20691
3.153	13.99841
3.1535	9.46655
3.154	13.99841
3.1545	11.07788
3.155	6.2439
3.1555	16.01257
3.156	12.18567
3.1565	16.61682
3.157	24.16992
3.1575	31.62231
3.158	33.63647
3.1585	31.21948
3.159	28.70178
3.1595	26.18408
3.16	13.99841
3.1605	8.25806
3.161	3.8269
3.1615	-3.42407
3.162	-15.20691
3.1625	-21.24939
3.163	-22.05505
3.1635	-25.57983
3.164	-32.93152
3.1645	-26.28479
3.165	-29.70886
3.1655	-24.47205
3.166	-22.55859
3.1665	-7.45239
3.167	-2.21558
3.1675	5.94177
3.168	14.19983
3.1685	34.03931
3.169	38.974
3.1695	47.33276
3.17	43.40515
3.1705	45.41931
3.171	62.74109
3.1715	68.07861
3.172	67.77649
3.1725	65.15808
3.173	69.08569
3.1735	57.20215
3.174	51.46179
3.1745	37.66479
3.175	23.46497
3.1755	-1.61133
3.176	-23.96851
3.1765	-30.11169
3.177	-51.5625
3.1775	-55.99365
3.178	-64.95667
3.1785	-68.68286
3.179	-70.59631
3.1795	-50.75684
3.18	-41.59241
3.1805	-26.28479
3.181	-12.48779
3.1815	-6.44531
3.182	6.74744
3.1825	7.85522
3.183	11.98425
3.1835	10.67505
3.184	11.07788
3.1845	13.69629
3.185	20.94727
3.1855	26.08337
3.186	16.81824
3.1865	16.3147
3.187	8.35876
3.1875	13.19275
3.188	10.17151
3.1885	13.09204
3.189	12.38708
3.1895	10.17151
3.19	11.2793
3.1905	11.07788
3.191	9.76868
3.1915	11.17859
3.192	14.60266
3.1925	13.797
3.193	15.71045
3.1935	16.21399
3.194	13.49487
3.1945	12.18567
3.195	7.75452
3.1955	13.19275
3.196	9.66797
3.1965	17.42249
3.197	15.71045
3.1975	12.08496
3.198	8.05664
3.1985	9.97009
3.199	5.94177
3.1995	-2.11487
3.2	-6.04248
3.2005	-10.0708
3.201	-18.8324
3.2015	-25.68054
3.202	-25.98267
3.2025	-20.34302
3.203	-17.92603
3.2035	-12.38708
3.204	-4.43115
3.2045	0.10071
3.205	4.33044
3.2055	5.63965
3.206	0.80566
3.2065	18.12744
3.207	14.19983
3.2075	13.19275
3.208	19.83948
3.2085	15.81116
3.209	16.61682
3.2095	22.55859
3.21	17.01965
3.2105	17.82532
3.211	17.92603
3.2115	15.30762
3.212	20.04089
3.2125	18.8324
3.213	18.42957
3.2135	14.50195
3.214	19.53735
3.2145	22.76001
3.215	27.6947
3.2155	22.45789
3.216	12.5885
3.2165	16.61682
3.217	16.61682
3.2175	15.60974
3.218	15.1062
3.2185	13.99841
3.219	13.09204
3.2195	11.58142
3.22	11.88354
3.2205	19.94019
3.221	22.55859
3.2215	20.44373
3.222	17.72461
3.2225	12.28638
3.223	8.7616
3.2235	17.92603
3.224	14.70337
3.2245	10.0708
3.225	10.37292
3.2255	10.17151
3.226	-1.91345
3.2265	-4.63257
3.227	-10.97717
3.2275	-18.73169
3.228	-20.24231
3.2285	-17.01965
3.229	-16.91895
3.2295	-16.21399
3.23	-23.16284
3.2305	-11.98425
3.231	-17.6239
3.2315	-7.5531
3.232	-4.33044
3.2325	2.21558
3.233	3.62549
3.2335	5.84106
3.234	-1.10779
3.2345	-1.2085
3.235	6.54602
3.2355	9.36584
3.236	5.53894
3.2365	22.76001
3.237	42.09595
3.2375	63.94958
3.238	67.67578
3.2385	65.3595
3.239	55.3894
3.2395	44.51294
3.24	34.24072
3.2405	21.75293
3.241	10.37292
3.2415	3.8269
3.242	-12.28638
3.2425	-24.37134
3.243	-38.36975
3.2435	-50.45471
3.244	-50.2533
3.2445	-50.85754
3.245	-49.64905
3.2455	-44.31152
3.246	-47.63489
3.2465	-35.04639
3.247	-29.50745
3.2475	-27.09045
3.248	-23.16284
3.2485	-11.2793
3.249	-1.10779
3.2495	1.3092
3.25	13.19275
3.2505	20.1416
3.251	25.177
3.2515	24.06921
3.252	21.14868
3.2525	18.42957
3.253	21.65222
3.2535	17.32178
3.254	14.40125
3.2545	10.57434
3.255	12.89062
3.2555	20.84656
3.256	20.1416
3.2565	23.36426
3.257	18.73169
3.2575	13.99841
3.258	15.1062
3.2585	13.797
3.259	15.20691
3.2595	13.99841
3.26	19.53735
3.2605	22.55859
3.261	24.06921
3.2615	31.11877
3.262	30.61523
3.2625	25.47913
3.263	19.53735
3.2635	22.96143
3.264	26.98975
3.2645	24.27063
3.265	16.61682
3.2655	16.61682
3.266	10.47363
3.2665	10.87646
3.267	2.81982
3.2675	3.22266
3.268	4.33044
3.2685	0.10071
3.269	-0.50354
3.2695	-2.92053
3.27	-5.23682
3.2705	-4.12903
3.271	-5.13611
3.2715	-3.7262
3.272	-2.01416
3.2725	-4.33044
3.273	-4.53186
3.2735	-2.21558
3.274	-0.10071
3.2745	-0.30212
3.275	7.45239
3.2755	1.81274
3.276	0.10071
3.2765	2.81982
3.277	10.17151
3.2775	10.0708
3.278	15.00549
3.2785	19.83948
3.279	17.92603
3.2795	24.47205
3.28	32.02515
3.2805	39.27612
3.281	40.2832
3.2815	46.12427
3.282	51.26038
3.2825	50.05188
3.283	49.0448
3.2835	39.27612
3.284	25.98267
3.2845	15.1062
3.285	2.01416
3.2855	-10.37292
3.286	-25.27771
3.2865	-34.34143
3.287	-42.7002
3.2875	-48.84338
3.288	-47.43347
3.2885	-54.48303
3.289	-49.85046
3.2895	-54.78516
3.29	-46.5271
3.2905	-40.58533
3.291	-25.78125
3.2915	-24.47205
3.292	-14.60266
3.2925	-11.48071
3.293	-3.8269
3.2935	9.06372
3.294	23.06213
3.2945	30.41382
3.295	36.55701
3.2955	38.47046
3.296	33.63647
3.2965	38.67188
3.297	42.7002
3.2975	53.27454
3.298	69.08569
3.2985	85.90393
3.299	94.06128
3.2995	97.38464
3.3	114.30359
3.3005	124.97864
3.301	125.7843
3.3015	124.57581
3.302	121.45386
3.3025	124.67651
3.303	126.79138
3.3035	123.46802
3.304	113.09509
3.3045	83.99048
3.305	58.81348
3.3055	30.51453
3.306	-14.70337
3.3065	-63.64746
3.307	-115.10925
3.3075	-149.34998
3.308	-171.70715
3.3085	-198.59619
3.309	-211.48682
3.3095	-208.06274
3.31	-195.37354
3.3105	-173.92273
3.311	-151.46484
3.3115	-127.69775
3.312	-108.1604
3.3125	-79.15649
3.313	-58.71277
3.3135	-33.33435
3.314	-23.56567
3.3145	-13.09204
3.315	0.10071
3.3155	14.40125
3.316	11.98425
3.3165	19.03381
3.317	21.04797
3.3175	15.20691
3.318	17.6239
3.3185	23.66638
3.319	24.67346
3.3195	25.07629
3.32	32.32727
3.3205	36.85913
3.321	38.26904
3.3215	35.85205
3.322	32.32727
3.3225	27.6947
3.323	26.68762
3.3235	17.92603
3.324	17.01965
3.3245	15.71045
3.325	10.37292
3.3255	9.76868
3.326	4.02832
3.3265	11.38
3.327	8.7616
3.3275	4.02832
3.328	6.2439
3.3285	8.25806
3.329	10.0708
3.3295	5.0354
3.33	3.42407
3.3305	6.94885
3.331	6.74744
3.3315	9.16443
3.332	10.47363
3.3325	7.75452
3.333	4.43115
3.3335	4.73328
3.334	9.16443
3.3345	12.28638
3.335	15.40833
3.3355	12.68921
3.336	6.04248
3.3365	8.66089
3.337	2.21558
3.3375	4.63257
3.338	7.45239
3.3385	7.85522
3.339	5.63965
3.3395	6.54602
3.34	11.88354
3.3405	15.20691
3.341	10.67505
3.3415	8.8623
3.342	10.37292
3.3425	20.64514
3.343	10.97717
3.3435	14.30054
3.344	7.65381
3.3445	7.5531
3.345	6.04248
3.3455	6.2439
3.346	7.35168
3.3465	13.99841
3.347	28.60107
3.3475	35.2478
3.348	39.27612
3.3485	44.41223
3.349	43.60657
3.3495	47.03064
3.35	48.23914
3.3505	48.84338
3.351	42.19666
3.3515	22.86072
3.352	3.92761
3.3525	-6.44531
3.353	-12.38708
3.3535	-10.57434
3.354	-19.13452
3.3545	-32.52869
3.355	-33.73718
3.3555	-35.04639
3.356	-31.82373
3.3565	-21.95435
3.357	-17.32178
3.3575	-11.48071
3.358	-2.31628
3.3585	-0.80566
3.359	3.8269
3.3595	0.60425
3.36	-7.45239
3.3605	-16.01257
3.361	-15.50903
3.3615	-12.99133
3.362	-11.58142
3.3625	-0.40283
3.363	16.01257
3.3635	22.35718
3.364	26.68762
3.3645	29.40674
3.365	22.45789
3.3655	25.78125
3.366	30.91736
3.3665	44.91577
3.367	43.60657
3.3675	33.53577
3.368	26.08337
3.3685	17.52319
3.369	19.94019
3.3695	27.29187
3.37	25.88196
3.3705	23.16284
3.371	21.85364
3.3715	16.51611
3.372	10.67505
3.3725	5.53894
3.373	0.10071
3.3735	-8.25806
3.374	-13.59558
3.3745	-13.19275
3.375	-12.78992
3.3755	-4.53186
3.376	3.42407
3.3765	18.42957
3.377	18.22815
3.3775	23.8678
3.378	30.71594
3.3785	38.77258
3.379	31.72302
3.3795	24.27063
3.38	9.66797
3.3805	-17.6239
3.381	-36.75842
3.3815	-55.49011
3.382	-61.02905
3.3825	-66.56799
3.383	-64.05029
3.3835	-67.17224
3.384	-60.62622
3.3845	-54.18091
3.385	-44.41223
3.3855	-36.15417
3.386	-23.8678
3.3865	-19.43665
3.387	-14.40125
3.3875	-11.07788
3.388	-13.99841
3.3885	-11.38
3.389	3.92761
3.3895	22.45789
3.39	29.20532
3.3905	25.68054
3.391	25.88196
3.3915	23.26355
3.392	23.8678
3.3925	20.34302
3.393	17.72461
3.3935	12.48779
3.394	10.87646
3.3945	11.78284
3.395	16.91895
3.3955	13.39417
3.396	14.19983
3.3965	21.65222
3.397	17.92603
3.3975	18.42957
3.398	15.30762
3.3985	12.28638
3.399	12.28638
3.3995	6.54602
3.4	9.66797
3.4005	12.08496
3.401	7.25098
3.4015	5.0354
3.402	8.35876
3.4025	11.17859
3.403	6.54602
3.4035	17.01965
3.404	13.39417
3.4045	11.68213
3.405	8.7616
3.4055	5.74036
3.406	9.36584
3.4065	21.65222
3.407	24.47205
3.4075	16.41541
3.408	10.27222
3.4085	7.45239
3.409	1.61133
3.4095	4.02832
3.41	0
3.4105	-2.01416
3.411	-3.8269
3.4115	-8.7616
3.412	-11.58142
3.4125	-6.74744
3.413	-7.75452
3.4135	-9.66797
3.414	-3.8269
3.4145	-4.33044
3.415	-2.31628
3.4155	-0.50354
3.416	-0.40283
3.4165	11.48071
3.417	17.01965
3.4175	29.40674
3.418	32.12585
3.4185	34.03931
3.419	37.16125
3.4195	49.34692
3.42	47.13135
3.4205	45.52002
3.421	41.4917
3.4215	27.09045
3.422	21.04797
3.4225	11.38
3.423	0.70496
3.4235	-5.13611
3.424	-7.45239
3.4245	-2.71912
3.425	0.50354
3.4255	3.8269
3.426	-2.92053
3.4265	-3.7262
3.427	-8.05664
3.4275	-14.09912
3.428	-11.07788
3.4285	-17.72461
3.429	-17.01965
3.4295	-2.92053
3.43	7.45239
3.4305	17.32178
3.431	25.68054
3.4315	35.14709
3.432	37.36267
3.4325	45.11719
3.433	44.71436
3.4335	57.70569
3.434	57.40356
3.4345	59.21631
3.435	55.89294
3.4355	40.68604
3.436	27.79541
3.4365	14.09912
3.437	-8.8623
3.4375	-24.67346
3.438	-39.88037
3.4385	-51.05896
3.439	-42.7002
3.4395	-28.09753
3.44	-4.02832
3.4405	22.05505
3.441	43.60657
3.4415	62.53967
3.442	77.64587
3.4425	85.5011
3.443	84.69543
3.4435	87.61597
3.444	68.07861
3.4445	47.03064
3.445	21.45081
3.4455	-6.54602
3.446	-29.91028
3.4465	-59.61914
3.447	-92.95349
3.4475	-120.04395
3.448	-144.51599
3.4485	-150.45776
3.449	-149.95422
3.4495	-138.97705
3.45	-120.34607
3.4505	-104.03137
3.451	-74.42322
3.4515	-44.0094
3.452	-27.29187
3.4525	-1.2085
3.453	11.38
3.4535	14.40125
3.454	19.43665
3.4545	25.88196
3.455	33.33435
3.4555	38.57117
3.456	34.64355
3.4565	41.69312
3.457	35.75134
3.4575	28.29895
3.458	24.77417
3.4585	21.85364
3.459	19.63806
3.4595	17.12036
3.46	18.02673
3.4605	12.89062
3.461	15.20691
3.4615	10.0708
3.462	8.96301
3.4625	11.38
3.463	12.38708
3.4635	9.06372
3.464	13.09204
3.4645	9.76868
3.465	12.78992
3.4655	12.48779
3.466	11.78284
3.4665	15.81116
3.467	12.89062
3.4675	16.41541
3.468	16.11328
3.4685	18.32886
3.469	22.25647
3.4695	16.3147
3.47	16.01257
3.4705	24.97559
3.471	18.8324
3.4715	13.09204
3.472	12.38708
3.4725	8.35876
3.473	13.59558
3.4735	9.66797
3.474	19.63806
3.4745	29.40674
3.475	29.40674
3.4755	33.33435
3.476	28.60107
3.4765	37.66479
3.477	38.57117
3.4775	27.29187
3.478	19.33594
3.4785	16.01257
3.479	19.03381
3.4795	14.90479
3.48	10.77576
3.4805	0.70496
3.481	-1.2085
3.4815	-4.12903
3.482	-6.54602
3.4825	-10.97717
3.483	-15.40833
3.4835	-13.99841
3.484	-14.40125
3.4845	-11.17859
3.485	-16.61682
3.4855	-11.58142
3.486	-23.26355
3.4865	-12.48779
3.487	-1.71204
3.4875	-1.10779
3.488	2.01416
3.4885	-2.5177
3.489	1.51062
3.4895	2.01416
3.49	6.74744
3.4905	4.63257
3.491	-0.40283
3.4915	2.41699
3.492	6.84814
3.4925	5.53894
3.493	10.67505
3.4935	5.53894
3.494	0.30212
3.4945	4.73328
3.495	3.52478
3.4955	13.49487
3.496	9.06372
3.4965	15.50903
3.497	27.6947
3.4975	25.57983
3.498	23.46497
3.4985	19.94019
3.499	20.74585
3.4995	18.73169
3.5	9.97009
3.5005	5.43823
3.501	-1.2085
3.5015	-9.16443
3.502	-10.37292
3.5025	-7.35168
3.503	-13.797
3.5035	-8.96301
3.504	-6.94885
3.5045	6.84814
3.505	7.25098
3.5055	5.33752
3.506	3.62549
3.5065	10.0708
3.507	19.43665
3.5075	30.41382
3.508	34.34143
3.5085	31.62231
3.509	26.28479
3.5095	25.177
3.51	15.60974
3.5105	13.59558
3.511	12.78992
3.5115	6.54602
3.512	1.10779
3.5125	-4.73328
3.513	-10.97717
3.5135	-18.12744
3.514	-9.46655
3.5145	-4.53186
3.515	-7.04956
3.5155	-7.5531
3.516	-11.48071
3.5165	-4.43115
3.517	-3.92761
3.5175	-6.84814
3.518	0.10071
3.5185	3.32336
3.519	9.16443
3.5195	6.64673
3.52	8.66089
3.5205	8.45947
3.521	10.17151
3.5215	8.66089
3.522	11.68213
3.5225	7.5531
3.523	13.797
3.5235	10.17151
3.524	13.29346
3.5245	11.88354
3.525	12.78992
3.5255	15.30762
3.526	7.25098
3.5265	9.26514
3.527	11.17859
3.5275	6.04248
3.528	9.26514
3.5285	7.5531
3.529	5.33752
3.5295	2.21558
3.53	2.31628
3.5305	3.42407
3.531	3.52478
3.5315	9.76868
3.532	6.14319
3.5325	-2.01416
3.533	-2.01416
3.5335	-2.71912
3.534	-0.40283
3.5345	-1.91345
3.535	-4.93469
3.5355	-3.52478
3.536	-6.2439
3.5365	-1.40991
3.537	2.92053
3.5375	7.85522
3.538	9.16443
3.5385	9.26514
3.539	5.43823
3.5395	10.77576
3.54	6.64673
3.5405	10.77576
3.541	11.88354
3.5415	12.78992
3.542	19.53735
3.5425	24.16992
3.543	26.48621
3.5435	25.78125
3.544	21.65222
3.5445	22.35718
3.545	15.81116
3.5455	21.65222
3.546	9.06372
3.5465	10.87646
3.547	5.23682
3.5475	-3.62549
3.548	-6.54602
3.5485	-9.56726
3.549	-11.98425
3.5495	-17.22107
3.55	-17.82532
3.5505	-10.0708
3.551	-10.67505
3.5515	-9.36584
3.552	-6.94885
3.5525	-12.08496
3.553	6.2439
3.5535	23.76709
3.554	30.61523
3.5545	35.34851
3.555	46.82922
3.5555	47.23206
3.556	40.08179
3.5565	36.15417
3.557	27.39258
3.5575	25.88196
3.558	17.82532
3.5585	11.17859
3.559	-2.21558
3.5595	-4.02832
3.56	-13.39417
3.5605	-23.8678
3.561	-28.70178
3.5615	-32.02515
3.562	-35.44922
3.5625	-35.85205
3.563	-39.17542
3.5635	-37.86621
3.564	-29.20532
3.5645	-18.73169
3.565	-6.44531
3.5655	-2.41699
3.566	0.70496
3.5665	12.18567
3.567	25.177
3.5675	24.06921
3.568	22.6593
3.5685	17.82532
3.569	17.82532
3.5695	6.64673
3.57	10.87646
3.5705	10.57434
3.571	12.18567
3.5715	15.30762
3.572	15.1062
3.5725	14.80408
3.573	10.57434
3.5735	7.85522
3.574	11.2793
3.5745	17.82532
3.575	14.60266
3.5755	16.21399
3.576	17.12036
3.5765	18.8324
3.577	12.89062
3.5775	14.60266
3.578	8.96301
3.5785	11.17859
3.579	10.0708
3.5795	10.67505
3.58	10.97717
3.5805	11.88354
3.581	8.96301
3.5815	12.18567
3.582	4.53186
3.5825	13.19275
3.583	12.5885
3.5835	11.88354
3.584	9.76868
3.5845	5.63965
3.585	10.57434
3.5855	8.05664
3.586	2.01416
3.5865	5.33752
3.587	7.5531
3.5875	6.04248
3.588	3.42407
3.5885	0.90637
3.589	5.13611
3.5895	2.71912
3.59	4.93469
3.5905	0.70496
3.591	5.0354
3.5915	6.54602
3.592	4.83398
3.5925	7.95593
3.593	0.80566
3.5935	7.15027
3.594	4.93469
3.5945	7.85522
3.595	1.91345
3.5955	3.62549
3.596	-0.30212
3.5965	5.43823
3.597	3.52478
3.5975	3.12195
3.598	-2.81982
3.5985	6.44531
3.599	5.53894
3.5995	5.0354
3.6	11.2793
3.6005	4.22974
3.601	6.44531
3.6015	11.07788
3.602	5.23682
3.6025	5.63965
3.603	6.64673
3.6035	6.2439
3.604	4.02832
3.6045	4.53186
3.605	2.11487
3.6055	0.50354
3.606	2.71912
3.6065	4.73328
3.607	4.12903
3.6075	2.5177
3.608	8.8623
3.6085	8.66089
3.609	5.0354
3.6095	4.22974
3.61	8.56018
3.6105	6.94885
3.611	7.04956
3.6115	7.25098
3.612	10.57434
3.6125	5.84106
3.613	10.17151
3.6135	12.5885
3.614	12.38708
3.6145	7.85522
3.615	9.16443
3.6155	7.75452
3.616	0.60425
3.6165	8.35876
3.617	6.14319
3.6175	7.04956
3.618	9.46655
3.6185	10.87646
3.619	12.38708
3.6195	10.57434
3.62	13.19275
3.6205	8.15735
3.621	13.39417
3.6215	8.45947
3.622	5.53894
3.6225	6.84814
3.623	5.0354
3.6235	4.02832
3.624	4.93469
3.6245	5.33752
3.625	11.07788
3.6255	6.54602
3.626	5.94177
3.6265	2.21558
3.627	10.27222
3.6275	7.75452
3.628	4.73328
3.6285	5.94177
3.629	2.5177
3.6295	2.5177
3.63	1.81274
3.6305	0.50354
3.631	0.40283
3.6315	6.54602
3.632	5.0354
3.6325	6.84814
3.633	5.33752
3.6335	6.2439
3.634	8.96301
3.6345	6.84814
3.635	5.13611
3.6355	1.91345
3.636	-1.2085
3.6365	-1.3092
3.637	-1.51062
3.6375	-2.71912
3.638	-6.54602
3.6385	-2.5177
3.639	-8.05664
3.6395	-9.66797
3.64	-5.74036
3.6405	-1.81274
3.641	-3.62549
3.6415	0.10071
3.642	0.50354
3.6425	0.60425
3.643	-1.10779
3.6435	1.81274
3.644	7.25098
3.6445	8.45947
3.645	7.35168
3.6455	10.27222
3.646	2.11487
3.6465	3.32336
3.647	5.23682
3.6475	5.94177
3.648	4.33044
3.6485	0.90637
3.649	0.10071
3.6495	-0.10071
3.65	-2.81982
3.6505	2.92053
3.651	7.04956
3.6515	-0.60425
3.652	6.14319
3.6525	3.7262
3.653	3.62549
3.6535	10.57434
3.654	16.01257
3.6545	16.11328
3.655	17.72461
3.6555	16.21399
3.656	8.8623
3.6565	15.30762
3.657	15.20691
3.6575	14.80408
3.658	15.1062
3.6585	14.50195
3.659	12.08496
3.6595	11.98425
3.66	10.67505
3.6605	9.16443
3.661	6.84814
3.6615	4.93469
3.662	10.27222
3.6625	7.85522
3.663	10.27222
3.6635	4.02832
3.664	11.17859
3.6645	12.99133
3.665	9.36584
3.6655	8.35876
3.666	2.61841
3.6665	13.29346
3.667	8.15735
3.6675	6.64673
3.668	5.53894
3.6685	12.08496
3.669	9.76868
3.6695	12.38708
3.67	12.18567
3.6705	9.97009
3.671	6.44531
3.6715	9.56726
3.672	9.26514
3.6725	5.94177
3.673	0.30212
3.6735	6.74744
3.674	7.15027
3.6745	7.5531
3.675	1.10779
3.6755	5.0354
3.676	4.73328
3.6765	8.66089
3.677	12.38708
3.6775	9.76868
3.678	11.17859
3.6785	9.56726
3.679	7.35168
3.6795	9.56726
3.68	4.43115
3.6805	4.22974
3.681	5.23682
3.6815	0.10071
3.682	7.75452
3.6825	8.25806
3.683	16.91895
3.6835	13.99841
3.684	11.2793
3.6845	16.41541
3.685	9.06372
3.6855	15.1062
3.686	10.67505
3.6865	12.48779
3.687	19.03381
3.6875	21.65222
3.688	29.60815
3.6885	40.1825
3.689	50.55542
3.6895	48.64197
3.69	49.44763
3.6905	48.33984
3.691	42.7002
3.6915	34.84497
3.692	19.23523
3.6925	17.72461
3.693	9.06372
3.6935	-4.53186
3.694	-3.52478
3.6945	-15.40833
3.695	-31.32019
3.6955	-45.2179
3.696	-53.27454
3.6965	-49.44763
3.697	-56.09436
3.6975	-54.98657
3.698	-50.354
3.6985	-45.3186
3.699	-34.54285
3.6995	-24.67346
3.7	-24.16992
3.7005	-15.71045
3.701	-12.18567
3.7015	-4.22974
3.702	1.10779
3.7025	9.56726
3.703	15.30762
3.7035	21.3501
3.704	35.95276
3.7045	37.36267
3.705	39.57825
3.7055	44.61365
3.706	47.33276
3.7065	64.65454
3.707	67.57507
3.7075	74.92676
3.708	75.02747
3.7085	67.27295
3.709	53.17383
3.7095	41.99524
3.71	26.08337
3.7105	10.57434
3.711	-12.38708
3.7115	-23.96851
3.712	-37.06055
3.7125	-56.90002
3.713	-69.89136
3.7135	-83.08411
3.714	-81.67419
3.7145	-77.64587
3.715	-70.79773
3.7155	-56.69861
3.716	-52.16675
3.7165	-41.59241
3.717	-25.78125
3.7175	-7.04956
3.718	-1.81274
3.7185	7.35168
3.719	8.35876
3.7195	5.74036
3.72	12.28638
3.7205	18.53027
3.721	28.50037
3.7215	21.3501
3.722	20.44373
3.7225	12.5885
3.723	13.99841
3.7235	8.56018
3.724	6.44531
3.7245	8.7616
3.725	9.97009
3.7255	13.49487
3.726	7.04956
3.7265	3.22266
3.727	7.85522
3.7275	2.21558
3.728	5.94177
3.7285	11.58142
3.729	1.91345
3.7295	10.0708
3.73	8.56018
3.7305	8.25806
3.731	11.2793
3.7315	7.15027
3.732	12.89062
3.7325	10.0708
3.733	8.35876
3.7335	11.88354
3.734	14.50195
3.7345	10.37292
3.735	15.30762
3.7355	15.00549
3.736	12.99133
3.7365	16.81824
3.737	20.34302
3.7375	25.47913
3.738	19.83948
3.7385	20.64514
3.739	21.3501
3.7395	17.01965
3.74	24.67346
3.7405	20.64514
3.741	21.04797
3.7415	19.23523
3.742	11.2793
3.7425	10.17151
3.743	9.66797
3.7435	6.3446
3.744	8.66089
3.7445	4.33044
3.745	7.04956
3.7455	8.66089
3.746	-1.10779
3.7465	5.84106
3.747	2.92053
3.7475	-0.30212
3.748	0
3.7485	-0.30212
3.749	5.43823
3.7495	7.15027
3.75	1.91345
3.7505	4.53186
3.751	2.41699
3.7515	17.92603
3.752	34.64355
3.7525	46.72852
3.753	50.55542
3.7535	50.65613
3.754	47.23206
3.7545	44.51294
3.755	45.52002
3.7555	38.57117
3.756	31.82373
3.7565	20.1416
3.757	14.90479
3.7575	3.92761
3.758	-7.65381
3.7585	-11.98425
3.759	-15.20691
3.7595	-25.98267
3.76	-31.92444
3.7605	-36.4563
3.761	-38.57117
3.7615	-42.7002
3.762	-49.0448
3.7625	-45.62073
3.763	-38.36975
3.7635	-24.67346
3.764	-19.43665
3.7645	-13.59558
3.765	0.90637
3.7655	12.48779
3.766	18.63098
3.7665	28.09753
3.767	27.6947
3.7675	25.57983
3.768	11.17859
3.7685	16.21399
3.769	11.68213
3.7695	12.28638
3.77	5.13611
3.7705	2.61841
3.771	6.64673
3.7715	2.92053
3.772	2.81982
3.7725	1.00708
3.773	-1.81274
3.7735	-1.61133
3.774	1.81274
3.7745	2.21558
3.775	1.71204
3.7755	2.5177
3.776	-1.91345
3.7765	-4.53186
3.777	4.43115
3.7775	0.40283
3.778	-0.40283
3.7785	2.81982
3.779	11.2793
3.7795	12.08496
3.78	7.15027
3.7805	15.71045
3.781	13.29346
3.7815	11.78284
3.782	10.37292
3.7825	14.80408
3.783	12.89062
3.7835	14.40125
3.784	7.25098
3.7845	7.25098
3.785	6.14319
3.7855	8.35876
3.786	12.28638
3.7865	27.6947
3.787	36.35559
3.7875	40.1825
3.788	38.974
3.7885	35.75134
3.789	38.77258
3.7895	31.32019
3.79	20.84656
3.7905	11.88354
3.791	2.31628
3.7915	0.40283
3.792	-11.48071
3.7925	-19.83948
3.793	-30.11169
3.7935	-39.37683
3.794	-44.91577
3.7945	-46.62781
3.795	-54.38232
3.7955	-57.9071
3.796	-39.37683
3.7965	-0.30212
3.797	29.00391
3.7975	57.60498
3.798	71.90552
3.7985	86.60889
3.799	109.26819
3.7995	130.01404
3.8	154.38538
3.8005	170.39795
3.801	165.16113
3.8015	154.78821
3.802	132.73315
3.8025	102.11792
3.803	79.76074
