Domenico_Di_Fonza_Right_2.c3d  



Time(s):	C_L_bicipite(μV):
0	5.33752
0.0005	8.7616
0.001	8.8623
0.0015	2.01416
0.002	8.15735
0.0025	6.04248
0.003	7.15027
0.0035	6.84814
0.004	9.97009
0.0045	5.84106
0.005	12.48779
0.0055	5.74036
0.006	5.94177
0.0065	8.45947
0.007	11.17859
0.0075	5.23682
0.008	6.44531
0.0085	6.44531
0.009	8.45947
0.0095	12.99133
0.01	7.04956
0.0105	12.48779
0.011	9.86938
0.0115	11.58142
0.012	11.78284
0.0125	6.04248
0.013	7.85522
0.0135	4.43115
0.014	10.47363
0.0145	6.04248
0.015	7.75452
0.0155	9.16443
0.016	6.84814
0.0165	7.04956
0.017	10.37292
0.0175	3.7262
0.018	7.45239
0.0185	4.73328
0.019	3.02124
0.0195	4.93469
0.02	5.23682
0.0205	4.53186
0.021	2.01416
0.0215	8.96301
0.022	6.64673
0.0225	5.84106
0.023	3.22266
0.0235	4.63257
0.024	2.5177
0.0245	3.02124
0.025	4.63257
0.0255	2.21558
0.026	6.14319
0.0265	4.22974
0.027	9.66797
0.0275	4.02832
0.028	4.22974
0.0285	3.12195
0.029	5.33752
0.0295	6.3446
0.03	4.73328
0.0305	2.5177
0.031	3.8269
0.0315	8.25806
0.032	6.3446
0.0325	-0.30212
0.033	6.14319
0.0335	5.43823
0.034	6.54602
0.0345	6.54602
0.035	5.53894
0.0355	9.06372
0.036	7.75452
0.0365	5.23682
0.037	6.74744
0.0375	4.63257
0.038	5.53894
0.0385	2.61841
0.039	4.22974
0.0395	6.64673
0.04	5.94177
0.0405	3.12195
0.041	2.5177
0.0415	5.84106
0.042	10.77576
0.0425	10.37292
0.043	10.87646
0.0435	7.5531
0.044	7.35168
0.0445	9.36584
0.045	5.33752
0.0455	5.13611
0.046	3.62549
0.0465	9.26514
0.047	6.74744
0.0475	10.77576
0.048	9.26514
0.0485	7.85522
0.049	5.0354
0.0495	13.09204
0.05	8.96301
0.0505	6.44531
0.051	4.93469
0.0515	5.94177
0.052	4.83398
0.0525	5.84106
0.053	3.22266
0.0535	6.84814
0.054	6.3446
0.0545	5.53894
0.055	12.28638
0.0555	9.86938
0.056	2.41699
0.0565	7.85522
0.057	6.74744
0.0575	7.04956
0.058	11.2793
0.0585	2.01416
0.059	7.65381
0.0595	2.5177
0.06	3.12195
0.0605	6.54602
0.061	4.73328
0.0615	8.25806
0.062	9.36584
0.0625	8.96301
0.063	4.53186
0.0635	7.15027
0.064	12.5885
0.0645	9.76868
0.065	7.75452
0.0655	4.22974
0.066	8.96301
0.0665	8.05664
0.067	9.56726
0.0675	0.30212
0.068	5.23682
0.0685	7.95593
0.069	8.96301
0.0695	4.12903
0.07	6.3446
0.0705	5.84106
0.071	3.22266
0.0715	3.02124
0.072	3.32336
0.0725	3.32336
0.073	3.02124
0.0735	8.05664
0.074	-0.90637
0.0745	1.61133
0.075	9.06372
0.0755	5.74036
0.076	4.93469
0.0765	5.0354
0.077	8.8623
0.0775	7.15027
0.078	4.12903
0.0785	6.54602
0.079	6.44531
0.0795	5.63965
0.08	9.86938
0.0805	4.12903
0.081	8.45947
0.0815	4.43115
0.082	8.56018
0.0825	6.54602
0.083	2.11487
0.0835	8.45947
0.084	3.52478
0.0845	0.30212
0.085	3.52478
0.0855	1.71204
0.086	0.20142
0.0865	7.45239
0.087	4.33044
0.0875	2.31628
0.088	1.71204
0.0885	4.33044
0.089	5.84106
0.0895	8.15735
0.09	5.43823
0.0905	6.3446
0.091	9.46655
0.0915	3.8269
0.092	4.63257
0.0925	1.91345
0.093	-0.20142
0.0935	7.04956
0.094	5.84106
0.0945	7.65381
0.095	5.84106
0.0955	3.02124
0.096	6.84814
0.0965	4.12903
0.097	1.71204
0.0975	6.54602
0.098	3.92761
0.0985	7.04956
0.099	6.74744
0.0995	4.02832
0.1	3.52478
0.1005	1.51062
0.101	3.32336
0.1015	0.70496
0.102	2.11487
0.1025	1.71204
0.103	-4.22974
0.1035	1.3092
0.104	3.42407
0.1045	4.73328
0.105	4.93469
0.1055	0.30212
0.106	0.70496
0.1065	5.23682
0.107	0.30212
0.1075	2.11487
0.108	4.83398
0.1085	4.53186
0.109	5.63965
0.1095	3.62549
0.11	5.0354
0.1105	5.84106
0.111	0.50354
0.1115	4.33044
0.112	2.11487
0.1125	4.93469
0.113	-1.40991
0.1135	3.02124
0.114	3.32336
0.1145	3.92761
0.115	7.04956
0.1155	1.71204
0.116	3.62549
0.1165	0.80566
0.117	0.90637
0.1175	4.93469
0.118	2.01416
0.1185	3.92761
0.119	3.52478
0.1195	3.62549
0.12	5.43823
0.1205	7.65381
0.121	7.75452
0.1215	4.43115
0.122	10.57434
0.1225	10.17151
0.123	1.2085
0.1235	5.63965
0.124	4.43115
0.1245	4.83398
0.125	2.71912
0.1255	3.32336
0.126	6.04248
0.1265	7.35168
0.127	6.94885
0.1275	12.18567
0.128	8.45947
0.1285	5.63965
0.129	6.3446
0.1295	11.78284
0.13	6.14319
0.1305	6.54602
0.131	10.87646
0.1315	3.12195
0.132	2.92053
0.1325	6.04248
0.133	8.25806
0.1335	9.56726
0.134	6.44531
0.1345	3.62549
0.135	11.17859
0.1355	7.95593
0.136	4.93469
0.1365	1.91345
0.137	7.65381
0.1375	11.2793
0.138	9.26514
0.1385	13.797
0.139	10.47363
0.1395	4.43115
0.14	8.66089
0.1405	11.78284
0.141	7.95593
0.1415	7.15027
0.142	13.09204
0.1425	5.33752
0.143	3.92761
0.1435	4.02832
0.144	6.2439
0.1445	9.56726
0.145	13.59558
0.1455	4.83398
0.146	4.43115
0.1465	9.36584
0.147	2.92053
0.1475	5.13611
0.148	10.27222
0.1485	8.15735
0.149	5.84106
0.1495	2.21558
0.15	6.74744
0.1505	0.80566
0.151	1.3092
0.1515	1.81274
0.152	3.8269
0.1525	-2.01416
0.153	2.31628
0.1535	0.70496
0.154	7.95593
0.1545	5.94177
0.155	4.73328
0.1555	4.33044
0.156	1.3092
0.1565	4.33044
0.157	6.54602
0.1575	5.23682
0.158	5.74036
0.1585	10.17151
0.159	2.21558
0.1595	7.04956
0.16	11.2793
0.1605	6.74744
0.161	5.23682
0.1615	3.8269
0.162	5.63965
0.1625	3.12195
0.163	5.13611
0.1635	5.43823
0.164	2.41699
0.1645	6.64673
0.165	10.0708
0.1655	5.53894
0.166	1.61133
0.1665	5.23682
0.167	1.71204
0.1675	7.95593
0.168	4.43115
0.1685	3.22266
0.169	0.70496
0.1695	7.5531
0.17	5.63965
0.1705	6.64673
0.171	10.17151
0.1715	12.99133
0.172	10.67505
0.1725	4.43115
0.173	2.21558
0.1735	7.5531
0.174	6.04248
0.1745	5.84106
0.175	6.64673
0.1755	6.74744
0.176	6.54602
0.1765	7.25098
0.177	9.66797
0.1775	6.44531
0.178	6.14319
0.1785	5.63965
0.179	4.22974
0.1795	4.83398
0.18	5.84106
0.1805	4.73328
0.181	7.04956
0.1815	5.84106
0.182	3.22266
0.1825	7.35168
0.183	2.61841
0.1835	-1.81274
0.184	1.91345
0.1845	0.70496
0.185	6.44531
0.1855	5.94177
0.186	5.53894
0.1865	3.32336
0.187	7.85522
0.1875	2.92053
0.188	8.25806
0.1885	1.00708
0.189	3.52478
0.1895	11.68213
0.19	5.84106
0.1905	5.94177
0.191	2.11487
0.1915	9.06372
0.192	7.25098
0.1925	4.73328
0.193	4.43115
0.1935	7.5531
0.194	5.23682
0.1945	3.32336
0.195	5.0354
0.1955	5.63965
0.196	8.25806
0.1965	4.33044
0.197	2.81982
0.1975	3.32336
0.198	4.43115
0.1985	7.75452
0.199	3.7262
0.1995	3.92761
0.2	4.83398
0.2005	4.12903
0.201	3.22266
0.2015	8.96301
0.202	7.04956
0.2025	6.2439
0.203	-1.91345
0.2035	7.65381
0.204	4.53186
0.2045	2.01416
0.205	8.96301
0.2055	8.66089
0.206	5.94177
0.2065	5.94177
0.207	1.40991
0.2075	1.61133
0.208	2.01416
0.2085	3.62549
0.209	7.35168
0.2095	12.28638
0.21	7.95593
0.2105	7.04956
0.211	2.11487
0.2115	7.25098
0.212	9.66797
0.2125	5.74036
0.213	4.43115
0.2135	7.5531
0.214	9.97009
0.2145	8.66089
0.215	4.33044
0.2155	7.25098
0.216	8.35876
0.2165	10.0708
0.217	7.25098
0.2175	8.45947
0.218	4.33044
0.2185	5.63965
0.219	7.85522
0.2195	5.23682
0.22	4.63257
0.2205	6.04248
0.221	3.92761
0.2215	5.43823
0.222	6.44531
0.2225	7.85522
0.223	8.35876
0.2235	6.14319
0.224	5.63965
0.2245	4.02832
0.225	11.17859
0.2255	9.76868
0.226	7.25098
0.2265	7.65381
0.227	10.37292
0.2275	6.84814
0.228	6.64673
0.2285	3.92761
0.229	3.8269
0.2295	8.25806
0.23	4.83398
0.2305	5.23682
0.231	6.2439
0.2315	2.01416
0.232	6.2439
0.2325	8.66089
0.233	2.21558
0.2335	3.12195
0.234	7.25098
0.2345	6.44531
0.235	16.51611
0.2355	10.47363
0.236	8.8623
0.2365	4.43115
0.237	4.93469
0.2375	5.33752
0.238	3.8269
0.2385	-1.71204
0.239	-0.60425
0.2395	5.63965
0.24	8.7616
0.2405	9.26514
0.241	4.83398
0.2415	6.04248
0.242	5.23682
0.2425	5.53894
0.243	4.02832
0.2435	7.25098
0.244	1.3092
0.2445	2.31628
0.245	-2.71912
0.2455	8.35876
0.246	1.51062
0.2465	5.13611
0.247	7.35168
0.2475	0.60425
0.248	5.53894
0.2485	1.71204
0.249	0.80566
0.2495	7.85522
0.25	11.17859
0.2505	6.14319
0.251	4.22974
0.2515	5.13611
0.252	7.45239
0.2525	6.14319
0.253	4.63257
0.2535	6.04248
0.254	8.96301
0.2545	4.02832
0.255	6.14319
0.2555	8.45947
0.256	7.5531
0.2565	9.46655
0.257	2.81982
0.2575	7.95593
0.258	3.62549
0.2585	2.41699
0.259	3.32336
0.2595	3.02124
0.26	3.02124
0.2605	0.70496
0.261	0.40283
0.2615	-2.21558
0.262	-0.40283
0.2625	5.84106
0.263	1.40991
0.2635	4.93469
0.264	7.25098
0.2645	3.92761
0.265	5.74036
0.2655	7.04956
0.266	11.98425
0.2665	5.63965
0.267	7.15027
0.2675	8.35876
0.268	7.04956
0.2685	6.14319
0.269	12.08496
0.2695	6.2439
0.27	9.76868
0.2705	4.22974
0.271	4.33044
0.2715	9.66797
0.272	2.41699
0.2725	4.53186
0.273	4.53186
0.2735	3.8269
0.274	6.74744
0.2745	10.77576
0.275	9.26514
0.2755	7.85522
0.276	4.02832
0.2765	7.35168
0.277	2.81982
0.2775	6.54602
0.278	8.96301
0.2785	4.43115
0.279	2.41699
0.2795	7.75452
0.28	9.16443
0.2805	6.94885
0.281	5.53894
0.2815	5.63965
0.282	5.33752
0.2825	7.25098
0.283	1.71204
0.2835	7.75452
0.284	7.5531
0.2845	2.5177
0.285	2.5177
0.2855	6.2439
0.286	5.63965
0.2865	7.85522
0.287	4.93469
0.2875	3.62549
0.288	8.96301
0.2885	5.84106
0.289	0
0.2895	3.32336
0.29	6.74744
0.2905	7.25098
0.291	3.12195
0.2915	7.65381
0.292	2.92053
0.2925	4.33044
0.293	3.42407
0.2935	4.02832
0.294	4.02832
0.2945	9.06372
0.295	8.25806
0.2955	9.06372
0.296	5.84106
0.2965	5.43823
0.297	9.26514
0.2975	0.70496
0.298	-1.61133
0.2985	6.04248
0.299	7.85522
0.2995	-0.30212
0.3	3.52478
0.3005	-0.90637
0.301	-4.43115
0.3015	-1.3092
0.302	4.73328
0.3025	7.15027
0.303	1.10779
0.3035	5.0354
0.304	3.8269
0.3045	7.85522
0.305	9.16443
0.3055	6.84814
0.306	3.12195
0.3065	3.92761
0.307	4.63257
0.3075	-1.81274
0.308	-0.50354
0.3085	6.74744
0.309	-0.30212
0.3095	6.64673
0.31	4.22974
0.3105	9.06372
0.311	2.5177
0.3115	9.26514
0.312	11.68213
0.3125	5.33752
0.313	2.92053
0.3135	5.23682
0.314	13.29346
0.3145	9.97009
0.315	4.63257
0.3155	4.12903
0.316	10.77576
0.3165	5.63965
0.317	7.95593
0.3175	0.50354
0.318	-0.20142
0.3185	4.73328
0.319	7.45239
0.3195	10.87646
0.32	7.25098
0.3205	15.40833
0.321	8.35876
0.3215	4.33044
0.322	6.74744
0.3225	8.15735
0.323	7.75452
0.3235	10.97717
0.324	8.66089
0.3245	8.7616
0.325	9.26514
0.3255	7.95593
0.326	8.7616
0.3265	8.96301
0.327	7.85522
0.3275	11.98425
0.328	4.22974
0.3285	8.7616
0.329	0.50354
0.3295	5.23682
0.33	5.94177
0.3305	-1.10779
0.331	6.84814
0.3315	7.15027
0.332	14.09912
0.3325	2.21558
0.333	3.52478
0.3335	6.04248
0.334	6.64673
0.3345	6.84814
0.335	8.35876
0.3355	5.84106
0.336	5.74036
0.3365	5.63965
0.337	5.74036
0.3375	5.23682
0.338	8.25806
0.3385	8.8623
0.339	9.76868
0.3395	9.36584
0.34	2.01416
0.3405	8.96301
0.341	10.0708
0.3415	2.71912
0.342	4.73328
0.3425	3.52478
0.343	3.62549
0.3435	1.71204
0.344	1.3092
0.3445	5.23682
0.345	8.25806
0.3455	7.45239
0.346	1.81274
0.3465	0.50354
0.347	3.12195
0.3475	2.41699
0.348	4.73328
0.3485	3.12195
0.349	4.12903
0.3495	7.45239
0.35	10.27222
0.3505	5.74036
0.351	6.74744
0.3515	3.02124
0.352	-0.70496
0.3525	4.43115
0.353	1.51062
0.3535	4.73328
0.354	7.45239
0.3545	5.53894
0.355	5.13611
0.3555	6.54602
0.356	9.86938
0.3565	12.38708
0.357	10.17151
0.3575	7.65381
0.358	11.88354
0.3585	5.53894
0.359	7.75452
0.3595	10.57434
0.36	11.48071
0.3605	8.8623
0.361	9.56726
0.3615	11.2793
0.362	12.18567
0.3625	10.17151
0.363	1.00708
0.3635	9.36584
0.364	7.45239
0.3645	4.22974
0.365	6.94885
0.3655	2.01416
0.366	2.41699
0.3665	2.21558
0.367	9.97009
0.3675	5.0354
0.368	3.62549
0.3685	7.95593
0.369	1.61133
0.3695	1.91345
0.37	7.85522
0.3705	4.73328
0.371	1.91345
0.3715	1.10779
0.372	6.04248
0.3725	7.15027
0.373	3.62549
0.3735	9.46655
0.374	3.8269
0.3745	12.08496
0.375	9.36584
0.3755	9.86938
0.376	6.74744
0.3765	4.12903
0.377	8.96301
0.3775	3.8269
0.378	8.96301
0.3785	6.74744
0.379	4.22974
0.3795	5.53894
0.38	5.74036
0.3805	3.62549
0.381	3.62549
0.3815	5.43823
0.382	3.02124
0.3825	2.11487
0.383	3.92761
0.3835	-1.51062
0.384	-0.50354
0.3845	4.33044
0.385	5.53894
0.3855	7.15027
0.386	10.57434
0.3865	5.23682
0.387	7.15027
0.3875	8.56018
0.388	5.94177
0.3885	7.35168
0.389	3.22266
0.3895	1.81274
0.39	6.74744
0.3905	1.3092
0.391	1.10779
0.3915	6.84814
0.392	6.54602
0.3925	2.71912
0.393	3.8269
0.3935	3.32336
0.394	5.74036
0.3945	3.62549
0.395	5.33752
0.3955	6.84814
0.396	4.12903
0.3965	5.43823
0.397	8.66089
0.3975	5.23682
0.398	6.3446
0.3985	4.33044
0.399	5.84106
0.3995	8.25806
0.4	6.54602
0.4005	-1.81274
0.401	1.3092
0.4015	5.23682
0.402	4.73328
0.4025	9.86938
0.403	8.15735
0.4035	6.64673
0.404	5.53894
0.4045	4.43115
0.405	5.74036
0.4055	9.97009
0.406	11.2793
0.4065	1.71204
0.407	5.94177
0.4075	5.94177
0.408	5.94177
0.4085	5.53894
0.409	1.81274
0.4095	8.7616
0.41	6.04248
0.4105	8.66089
0.411	2.11487
0.4115	6.84814
0.412	6.04248
0.4125	3.7262
0.413	4.02832
0.4135	1.81274
0.414	6.74744
0.4145	4.22974
0.415	6.74744
0.4155	6.54602
0.416	9.97009
0.4165	9.16443
0.417	12.99133
0.4175	10.17151
0.418	10.97717
0.4185	6.94885
0.419	6.14319
0.4195	7.65381
0.42	10.37292
0.4205	7.75452
0.421	6.3446
0.4215	2.92053
0.422	2.5177
0.4225	7.85522
0.423	3.42407
0.4235	5.33752
0.424	6.94885
0.4245	1.40991
0.425	10.47363
0.4255	5.13611
0.426	4.02832
0.4265	4.63257
0.427	1.91345
0.4275	5.74036
0.428	1.61133
0.4285	8.66089
0.429	9.06372
0.4295	8.66089
0.43	7.35168
0.4305	-0.50354
0.431	8.25806
0.4315	6.54602
0.432	5.53894
0.4325	2.5177
0.433	0.80566
0.4335	2.31628
0.434	6.2439
0.4345	7.25098
0.435	3.02124
0.4355	4.73328
0.436	6.44531
0.4365	5.53894
0.437	7.15027
0.4375	7.15027
0.438	8.8623
0.4385	4.22974
0.439	4.93469
0.4395	3.42407
0.44	5.43823
0.4405	8.56018
0.441	5.43823
0.4415	8.25806
0.442	5.43823
0.4425	2.31628
0.443	0.40283
0.4435	7.15027
0.444	7.15027
0.4445	10.47363
0.445	4.93469
0.4455	8.7616
0.446	4.83398
0.4465	-0.30212
0.447	0.20142
0.4475	3.62549
0.448	8.66089
0.4485	10.47363
0.449	5.94177
0.4495	8.25806
0.45	10.27222
0.4505	10.37292
0.451	11.58142
0.4515	-0.20142
0.452	0.90637
0.4525	3.7262
0.453	5.13611
0.4535	3.02124
0.454	3.22266
0.4545	7.04956
0.455	3.22266
0.4555	0.90637
0.456	1.91345
0.4565	3.62549
0.457	3.62549
0.4575	4.53186
0.458	2.92053
0.4585	0.90637
0.459	1.40991
0.4595	9.26514
0.46	7.35168
0.4605	6.2439
0.461	10.47363
0.4615	2.71912
0.462	7.75452
0.4625	4.22974
0.463	3.7262
0.4635	3.22266
0.464	1.40991
0.4645	3.7262
0.465	0.20142
0.4655	5.0354
0.466	1.3092
0.4665	2.92053
0.467	3.42407
0.4675	4.12903
0.468	8.15735
0.4685	2.11487
0.469	6.64673
0.4695	2.31628
0.47	5.23682
0.4705	6.14319
0.471	5.33752
0.4715	8.96301
0.472	6.74744
0.4725	5.0354
0.473	2.92053
0.4735	6.54602
0.474	-0.80566
0.4745	4.63257
0.475	0.80566
0.4755	1.81274
0.476	2.41699
0.4765	2.92053
0.477	2.11487
0.4775	3.32336
0.478	2.71912
0.4785	3.8269
0.479	1.3092
0.4795	4.22974
0.48	3.7262
0.4805	6.04248
0.481	7.45239
0.4815	7.65381
0.482	3.12195
0.4825	7.85522
0.483	4.02832
0.4835	5.43823
0.484	5.94177
0.4845	5.94177
0.485	8.66089
0.4855	4.33044
0.486	5.74036
0.4865	8.15735
0.487	7.85522
0.4875	3.12195
0.488	10.37292
0.4885	4.12903
0.489	5.74036
0.4895	8.15735
0.49	5.53894
0.4905	10.77576
0.491	2.81982
0.4915	1.61133
0.492	9.97009
0.4925	3.52478
0.493	-0.80566
0.4935	6.94885
0.494	1.40991
0.4945	3.92761
0.495	0.20142
0.4955	5.63965
0.496	2.41699
0.4965	2.41699
0.497	5.94177
0.4975	3.92761
0.498	3.7262
0.4985	2.41699
0.499	8.05664
0.4995	13.09204
0.5	10.17151
0.5005	5.63965
0.501	7.35168
0.5015	10.87646
0.502	10.47363
0.5025	7.95593
0.503	6.64673
0.5035	12.5885
0.504	6.3446
0.5045	0.30212
0.505	5.13611
0.5055	4.63257
0.506	9.16443
0.5065	8.66089
0.507	3.32336
0.5075	5.63965
0.508	5.23682
0.5085	10.0708
0.509	10.27222
0.5095	9.86938
0.51	9.16443
0.5105	3.92761
0.511	4.33044
0.5115	5.23682
0.512	0.70496
0.5125	1.40991
0.513	0.20142
0.5135	4.02832
0.514	2.01416
0.5145	4.93469
0.515	1.91345
0.5155	5.0354
0.516	2.31628
0.5165	3.42407
0.517	7.04956
0.5175	6.64673
0.518	3.02124
0.5185	3.62549
0.519	4.53186
0.5195	4.83398
0.52	0.50354
0.5205	0.60425
0.521	-2.01416
0.5215	-2.01416
0.522	1.71204
0.5225	4.53186
0.523	1.3092
0.5235	7.04956
0.524	2.21558
0.5245	1.81274
0.525	3.8269
0.5255	5.43823
0.526	3.22266
0.5265	6.2439
0.527	9.56726
0.5275	6.44531
0.528	3.62549
0.5285	3.42407
0.529	6.64673
0.5295	3.8269
0.53	5.0354
0.5305	3.92761
0.531	2.01416
0.5315	5.84106
0.532	5.94177
0.5325	9.97009
0.533	3.32336
0.5335	2.81982
0.534	4.83398
0.5345	3.7262
0.535	5.23682
0.5355	1.51062
0.536	5.13611
0.5365	4.22974
0.537	8.15735
0.5375	2.81982
0.538	4.73328
0.5385	6.44531
0.539	9.36584
0.5395	6.84814
0.54	-1.3092
0.5405	2.61841
0.541	7.45239
0.5415	-1.91345
0.542	0.40283
0.5425	7.35168
0.543	-0.20142
0.5435	1.3092
0.544	1.2085
0.5445	1.91345
0.545	3.62549
0.5455	1.00708
0.546	6.3446
0.5465	4.83398
0.547	5.74036
0.5475	0.30212
0.548	3.12195
0.5485	7.5531
0.549	5.13611
0.5495	4.12903
0.55	4.02832
0.5505	3.22266
0.551	5.23682
0.5515	5.84106
0.552	10.47363
0.5525	5.84106
0.553	5.33752
0.5535	2.01416
0.554	6.94885
0.5545	4.22974
0.555	4.73328
0.5555	5.94177
0.556	4.43115
0.5565	3.8269
0.557	9.76868
0.5575	1.91345
0.558	6.64673
0.5585	5.63965
0.559	2.71912
0.5595	5.74036
0.56	8.15735
0.5605	8.7616
0.561	5.74036
0.5615	5.43823
0.562	5.63965
0.5625	10.47363
0.563	5.33752
0.5635	5.23682
0.564	5.33752
0.5645	11.78284
0.565	10.87646
0.5655	8.7616
0.566	5.33752
0.5665	5.33752
0.567	8.25806
0.5675	5.84106
0.568	8.15735
0.5685	2.5177
0.569	4.02832
0.5695	12.38708
0.57	8.56018
0.5705	11.98425
0.571	7.85522
0.5715	7.35168
0.572	6.04248
0.5725	1.00708
0.573	5.53894
0.5735	3.32336
0.574	4.12903
0.5745	8.25806
0.575	7.65381
0.5755	3.7262
0.576	2.31628
0.5765	6.04248
0.577	4.12903
0.5775	3.12195
0.578	5.13611
0.5785	5.43823
0.579	6.14319
0.5795	4.33044
0.58	7.04956
0.5805	1.81274
0.581	7.04956
0.5815	12.28638
0.582	5.94177
0.5825	0.70496
0.583	0
0.5835	6.2439
0.584	3.7262
0.5845	4.33044
0.585	9.06372
0.5855	6.44531
0.586	6.64673
0.5865	9.46655
0.587	8.45947
0.5875	8.15735
0.588	5.94177
0.5885	3.8269
0.589	7.95593
0.5895	2.71912
0.59	5.74036
0.5905	6.54602
0.591	13.99841
0.5915	10.97717
0.592	6.84814
0.5925	8.66089
0.593	4.63257
0.5935	7.85522
0.594	6.04248
0.5945	6.04248
0.595	7.85522
0.5955	7.75452
0.596	10.97717
0.5965	3.92761
0.597	7.35168
0.5975	6.74744
0.598	5.0354
0.5985	6.64673
0.599	10.37292
0.5995	10.77576
0.6	3.7262
0.6005	7.85522
0.601	8.15735
0.6015	6.94885
0.602	12.38708
0.6025	8.96301
0.603	5.63965
0.6035	7.85522
0.604	4.02832
0.6045	3.8269
0.605	8.7616
0.6055	8.7616
0.606	2.41699
0.6065	6.04248
0.607	3.12195
0.6075	9.26514
0.608	7.25098
0.6085	8.66089
0.609	7.75452
0.6095	6.94885
0.61	9.16443
0.6105	8.25806
0.611	7.45239
0.6115	3.8269
0.612	4.93469
0.6125	7.95593
0.613	2.5177
0.6135	4.02832
0.614	9.06372
0.6145	7.45239
0.615	5.53894
0.6155	5.0354
0.616	-1.91345
0.6165	2.11487
0.617	4.33044
0.6175	-2.31628
0.618	3.52478
0.6185	7.75452
0.619	6.44531
0.6195	4.53186
0.62	8.66089
0.6205	7.04956
0.621	8.05664
0.6215	7.85522
0.622	6.14319
0.6225	5.53894
0.623	4.12903
0.6235	6.94885
0.624	5.84106
0.6245	7.25098
0.625	6.3446
0.6255	4.83398
0.626	5.63965
0.6265	4.83398
0.627	4.33044
0.6275	3.92761
0.628	6.94885
0.6285	9.36584
0.629	6.14319
0.6295	4.93469
0.63	5.94177
0.6305	5.74036
0.631	9.76868
0.6315	7.35168
0.632	8.35876
0.6325	6.74744
0.633	3.7262
0.6335	3.7262
0.634	7.04956
0.6345	4.73328
0.635	3.8269
0.6355	9.26514
0.636	5.63965
0.6365	7.04956
0.637	6.74744
0.6375	10.27222
0.638	9.06372
0.6385	8.25806
0.639	7.04956
0.6395	4.53186
0.64	3.8269
0.6405	6.54602
0.641	6.04248
0.6415	9.76868
0.642	9.46655
0.6425	8.66089
0.643	2.41699
0.6435	5.0354
0.644	11.17859
0.6445	7.5531
0.645	7.95593
0.6455	4.63257
0.646	3.8269
0.6465	4.63257
0.647	3.32336
0.6475	4.12903
0.648	4.83398
0.6485	6.94885
0.649	4.43115
0.6495	5.84106
0.65	4.73328
0.6505	5.33752
0.651	11.07788
0.6515	6.04248
0.652	9.66797
0.6525	11.2793
0.653	6.54602
0.6535	5.94177
0.654	3.52478
0.6545	7.25098
0.655	6.44531
0.6555	10.47363
0.656	4.93469
0.6565	4.53186
0.657	4.33044
0.6575	7.95593
0.658	8.25806
0.6585	3.32336
0.659	2.11487
0.6595	3.32336
0.66	3.92761
0.6605	3.32336
0.661	7.04956
0.6615	6.14319
0.662	-0.30212
0.6625	1.51062
0.663	1.71204
0.6635	4.63257
0.664	5.33752
0.6645	8.8623
0.665	11.2793
0.6655	4.73328
0.666	6.44531
0.6665	6.94885
0.667	6.2439
0.6675	4.63257
0.668	5.13611
0.6685	0.60425
0.669	7.25098
0.6695	7.04956
0.67	4.93469
0.6705	5.43823
0.671	6.74744
0.6715	10.67505
0.672	1.91345
0.6725	2.71912
0.673	5.74036
0.6735	4.02832
0.674	2.21558
0.6745	10.17151
0.675	4.53186
0.6755	8.25806
0.676	7.75452
0.6765	4.33044
0.677	4.22974
0.6775	1.10779
0.678	1.61133
0.6785	2.71912
0.679	5.23682
0.6795	4.12903
0.68	4.02832
0.6805	2.01416
0.681	7.75452
0.6815	4.63257
0.682	8.45947
0.6825	8.35876
0.683	2.61841
0.6835	8.8623
0.684	6.3446
0.6845	13.19275
0.685	7.25098
0.6855	4.53186
0.686	8.7616
0.6865	6.44531
0.687	6.14319
0.6875	3.8269
0.688	7.65381
0.6885	8.25806
0.689	4.63257
0.6895	3.92761
0.69	7.04956
0.6905	10.57434
0.691	3.62549
0.6915	7.45239
0.692	6.44531
0.6925	10.77576
0.693	1.40991
0.6935	1.61133
0.694	3.42407
0.6945	1.61133
0.695	7.35168
0.6955	2.71912
0.696	0.60425
0.6965	3.22266
0.697	3.7262
0.6975	5.33752
0.698	4.22974
0.6985	0.30212
0.699	0.90637
0.6995	1.71204
0.7	5.23682
0.7005	5.43823
0.701	4.02832
0.7015	7.04956
0.702	11.2793
0.7025	3.8269
0.703	2.5177
0.7035	0.80566
0.704	7.85522
0.7045	7.5531
0.705	9.36584
0.7055	7.35168
0.706	6.74744
0.7065	10.97717
0.707	6.44531
0.7075	6.04248
0.708	5.33752
0.7085	8.7616
0.709	7.25098
0.7095	6.3446
0.71	6.44531
0.7105	7.5531
0.711	10.27222
0.7115	10.27222
0.712	6.44531
0.7125	8.15735
0.713	6.64673
0.7135	13.99841
0.714	10.27222
0.7145	7.5531
0.715	9.76868
0.7155	10.27222
0.716	5.74036
0.7165	6.54602
0.717	8.45947
0.7175	4.33044
0.718	8.7616
0.7185	5.43823
0.719	5.23682
0.7195	5.84106
0.72	4.63257
0.7205	5.23682
0.721	5.63965
0.7215	6.94885
0.722	1.3092
0.7225	-2.31628
0.723	3.32336
0.7235	-0.40283
0.724	2.81982
0.7245	1.71204
0.725	4.43115
0.7255	3.12195
0.726	1.2085
0.7265	2.11487
0.727	0.50354
0.7275	2.71912
0.728	7.75452
0.7285	5.13611
0.729	3.42407
0.7295	7.75452
0.73	4.83398
0.7305	7.45239
0.731	4.83398
0.7315	7.45239
0.732	8.45947
0.7325	7.85522
0.733	1.81274
0.7335	10.47363
0.734	8.56018
0.7345	5.23682
0.735	7.75452
0.7355	1.61133
0.736	4.43115
0.7365	8.66089
0.737	5.13611
0.7375	11.2793
0.738	7.15027
0.7385	10.47363
0.739	5.63965
0.7395	7.85522
0.74	7.04956
0.7405	5.43823
0.741	3.62549
0.7415	4.83398
0.742	2.92053
0.7425	0.90637
0.743	3.22266
0.7435	1.81274
0.744	9.46655
0.7445	4.43115
0.745	3.52478
0.7455	9.06372
0.746	3.12195
0.7465	9.16443
0.747	5.43823
0.7475	4.43115
0.748	9.56726
0.7485	11.38
0.749	8.8623
0.7495	3.52478
0.75	7.85522
0.7505	2.5177
0.751	6.2439
0.7515	12.78992
0.752	10.67505
0.7525	10.27222
0.753	3.62549
0.7535	9.76868
0.754	5.23682
0.7545	2.81982
0.755	7.95593
0.7555	4.43115
0.756	5.53894
0.7565	8.35876
0.757	9.26514
0.7575	6.64673
0.758	10.57434
0.7585	9.16443
0.759	6.54602
0.7595	9.06372
0.76	9.66797
0.7605	7.5531
0.761	8.35876
0.7615	7.85522
0.762	7.5531
0.7625	5.94177
0.763	3.62549
0.7635	1.81274
0.764	0.80566
0.7645	5.13611
0.765	4.63257
0.7655	1.00708
0.766	3.62549
0.7665	6.74744
0.767	5.84106
0.7675	7.85522
0.768	7.5531
0.7685	4.12903
0.769	5.84106
0.7695	4.93469
0.77	4.63257
0.7705	5.53894
0.771	3.32336
0.7715	4.22974
0.772	5.33752
0.7725	3.22266
0.773	3.92761
0.7735	2.61841
0.774	2.11487
0.7745	7.45239
0.775	3.42407
0.7755	5.33752
0.776	4.73328
0.7765	4.33044
0.777	3.12195
0.7775	4.43115
0.778	4.43115
0.7785	1.40991
0.779	3.42407
0.7795	4.22974
0.78	2.41699
0.7805	7.35168
0.781	-1.81274
0.7815	0.50354
0.782	9.46655
0.7825	4.53186
0.783	-3.92761
0.7835	2.61841
0.784	-2.71912
0.7845	2.5177
0.785	2.11487
0.7855	5.13611
0.786	1.71204
0.7865	5.43823
0.787	5.13611
0.7875	3.62549
0.788	2.92053
0.7885	0.60425
0.789	3.52478
0.7895	2.71912
0.79	6.14319
0.7905	5.53894
0.791	10.37292
0.7915	7.04956
0.792	10.77576
0.7925	10.47363
0.793	5.23682
0.7935	4.12903
0.794	5.74036
0.7945	1.51062
0.795	10.0708
0.7955	9.66797
0.796	7.95593
0.7965	9.56726
0.797	4.83398
0.7975	4.93469
0.798	8.05664
0.7985	8.8623
0.799	8.56018
0.7995	8.35876
0.8	7.35168
0.8005	4.83398
0.801	5.43823
0.8015	6.3446
0.802	3.7262
0.8025	5.94177
0.803	5.53894
0.8035	-1.10779
0.804	3.32336
0.8045	6.3446
0.805	1.51062
0.8055	5.63965
0.806	5.74036
0.8065	5.53894
0.807	10.87646
0.8075	5.23682
0.808	7.35168
0.8085	5.23682
0.809	8.05664
0.8095	3.32336
0.81	6.14319
0.8105	5.84106
0.811	4.93469
0.8115	5.74036
0.812	2.11487
0.8125	2.11487
0.813	6.3446
0.8135	4.12903
0.814	-0.60425
0.8145	6.04248
0.815	7.45239
0.8155	7.45239
0.816	6.54602
0.8165	3.7262
0.817	7.04956
0.8175	4.53186
0.818	3.62549
0.8185	6.44531
0.819	0.30212
0.8195	0.90637
0.82	0.80566
0.8205	1.3092
0.821	-0.30212
0.8215	6.2439
0.822	8.15735
0.8225	3.92761
0.823	6.14319
0.8235	4.02832
0.824	8.45947
0.8245	6.3446
0.825	5.43823
0.8255	7.04956
0.826	8.25806
0.8265	8.15735
0.827	5.13611
0.8275	7.35168
0.828	10.17151
0.8285	5.43823
0.829	5.13611
0.8295	-1.91345
0.83	1.91345
0.8305	8.66089
0.831	10.0708
0.8315	5.23682
0.832	5.0354
0.8325	5.74036
0.833	4.93469
0.8335	0.70496
0.834	-2.41699
0.8345	2.21558
0.835	3.22266
0.8355	2.61841
0.836	4.33044
0.8365	6.04248
0.837	1.40991
0.8375	3.32336
0.838	0.60425
0.8385	-0.50354
0.839	4.83398
0.8395	6.3446
0.84	3.22266
0.8405	4.93469
0.841	4.33044
0.8415	2.11487
0.842	2.71912
0.8425	2.11487
0.843	0
0.8435	3.02124
0.844	3.22266
0.8445	4.93469
0.845	-1.3092
0.8455	1.91345
0.846	7.35168
0.8465	6.84814
0.847	7.75452
0.8475	-0.20142
0.848	4.63257
0.8485	4.43115
0.849	2.61841
0.8495	7.04956
0.85	8.96301
0.8505	6.2439
0.851	5.84106
0.8515	6.64673
0.852	5.53894
0.8525	5.23682
0.853	0.10071
0.8535	5.63965
0.854	2.61841
0.8545	3.92761
0.855	6.3446
0.8555	6.2439
0.856	6.44531
0.8565	8.25806
0.857	6.44531
0.8575	7.45239
0.858	-1.40991
0.8585	5.33752
0.859	6.94885
0.8595	4.33044
0.86	-0.20142
0.8605	3.7262
0.861	4.33044
0.8615	6.14319
0.862	7.85522
0.8625	10.27222
0.863	3.52478
0.8635	4.83398
0.864	5.23682
0.8645	6.64673
0.865	9.56726
0.8655	4.53186
0.866	5.53894
0.8665	8.35876
0.867	9.16443
0.8675	3.22266
0.868	3.32336
0.8685	3.32336
0.869	3.7262
0.8695	8.25806
0.87	10.0708
0.8705	8.7616
0.871	10.0708
0.8715	3.52478
0.872	6.14319
0.8725	7.04956
0.873	0.90637
0.8735	2.71912
0.874	5.33752
0.8745	5.53894
0.875	5.84106
0.8755	7.95593
0.876	4.33044
0.8765	7.15027
0.877	4.43115
0.8775	6.3446
0.878	2.61841
0.8785	6.04248
0.879	3.92761
0.8795	4.93469
0.88	2.41699
0.8805	3.12195
0.881	5.23682
0.8815	2.81982
0.882	3.02124
0.8825	2.01416
0.883	-1.61133
0.8835	4.73328
0.884	5.0354
0.8845	5.0354
0.885	2.81982
0.8855	3.02124
0.886	3.12195
0.8865	2.31628
0.887	2.71912
0.8875	4.12903
0.888	4.53186
0.8885	4.02832
0.889	11.68213
0.8895	7.15027
0.89	5.74036
0.8905	9.46655
0.891	4.73328
0.8915	7.25098
0.892	6.74744
0.8925	6.14319
0.893	-0.80566
0.8935	-2.61841
0.894	4.12903
0.8945	3.22266
0.895	3.12195
0.8955	1.61133
0.896	6.54602
0.8965	2.41699
0.897	2.21558
0.8975	5.63965
0.898	7.5531
0.8985	5.84106
0.899	4.02832
0.8995	1.2085
0.9	4.33044
0.9005	9.66797
0.901	6.14319
0.9015	7.25098
0.902	5.23682
0.9025	4.73328
0.903	-0.10071
0.9035	5.63965
0.904	7.45239
0.9045	6.94885
0.905	7.5531
0.9055	3.52478
0.906	3.62549
0.9065	7.25098
0.907	9.56726
0.9075	5.13611
0.908	7.45239
0.9085	5.23682
0.909	0.60425
0.9095	6.84814
0.91	4.53186
0.9105	8.35876
0.911	8.15735
0.9115	5.0354
0.912	10.97717
0.9125	6.84814
0.913	8.66089
0.9135	9.56726
0.914	8.35876
0.9145	8.45947
0.915	9.97009
0.9155	6.04248
0.916	8.45947
0.9165	5.0354
0.917	8.56018
0.9175	9.97009
0.918	7.95593
0.9185	7.35168
0.919	5.74036
0.9195	11.68213
0.92	8.25806
0.9205	1.40991
0.921	7.85522
0.9215	10.17151
0.922	6.54602
0.9225	7.04956
0.923	2.31628
0.9235	3.52478
0.924	5.74036
0.9245	-2.71912
0.925	3.12195
0.9255	2.81982
0.926	1.3092
0.9265	10.97717
0.927	7.95593
0.9275	4.02832
0.928	7.25098
0.9285	8.45947
0.929	5.53894
0.9295	9.56726
0.93	10.37292
0.9305	8.35876
0.931	12.89062
0.9315	7.45239
0.932	8.7616
0.9325	2.61841
0.933	4.93469
0.9335	5.74036
0.934	1.2085
0.9345	6.04248
0.935	6.3446
0.9355	6.54602
0.936	9.97009
0.9365	5.23682
0.937	7.65381
0.9375	12.78992
0.938	11.58142
0.9385	13.29346
0.939	11.2793
0.9395	10.77576
0.94	4.63257
0.9405	1.00708
0.941	2.01416
0.9415	7.25098
0.942	16.21399
0.9425	9.46655
0.943	6.44531
0.9435	9.46655
0.944	8.8623
0.9445	3.8269
0.945	8.66089
0.9455	9.66797
0.946	6.14319
0.9465	4.33044
0.947	8.8623
0.9475	7.04956
0.948	10.77576
0.9485	12.89062
0.949	9.86938
0.9495	7.04956
0.95	5.23682
0.9505	6.64673
0.951	6.84814
0.9515	4.53186
0.952	3.62549
0.9525	5.94177
0.953	-0.60425
0.9535	4.43115
0.954	2.92053
0.9545	0.30212
0.955	1.10779
0.9555	1.91345
0.956	9.97009
0.9565	3.02124
0.957	6.44531
0.9575	3.02124
0.958	5.0354
0.9585	1.2085
0.959	1.2085
0.9595	5.43823
0.96	2.31628
0.9605	2.41699
0.961	3.7262
0.9615	3.62549
0.962	5.53894
0.9625	6.94885
0.963	-1.51062
0.9635	5.74036
0.964	7.65381
0.9645	8.05664
0.965	8.66089
0.9655	4.43115
0.966	5.23682
0.9665	3.52478
0.967	9.66797
0.9675	7.85522
0.968	6.84814
0.9685	8.05664
0.969	9.56726
0.9695	4.93469
0.97	6.44531
0.9705	7.25098
0.971	8.45947
0.9715	5.33752
0.972	-1.2085
0.9725	5.94177
0.973	2.61841
0.9735	6.14319
0.974	5.43823
0.9745	5.33752
0.975	6.14319
0.9755	4.73328
0.976	5.74036
0.9765	0.70496
0.977	7.85522
0.9775	6.04248
0.978	2.41699
0.9785	1.40991
0.979	2.5177
0.9795	6.74744
0.98	7.45239
0.9805	6.3446
0.981	4.83398
0.9815	7.45239
0.982	9.26514
0.9825	1.81274
0.983	1.40991
0.9835	7.95593
0.984	11.88354
0.9845	10.17151
0.985	6.84814
0.9855	6.54602
0.986	3.7262
0.9865	5.33752
0.987	5.63965
0.9875	4.73328
0.988	6.04248
0.9885	1.40991
0.989	-1.91345
0.9895	6.54602
0.99	7.04956
0.9905	5.13611
0.991	8.15735
0.9915	5.63965
0.992	4.93469
0.9925	10.67505
0.993	3.12195
0.9935	4.73328
0.994	5.33752
0.9945	1.71204
0.995	4.63257
0.9955	6.44531
0.996	5.94177
0.9965	8.66089
0.997	2.92053
0.9975	6.2439
0.998	4.83398
0.9985	5.43823
0.999	6.3446
0.9995	2.71912
1	3.42407
1.0005	7.04956
1.001	2.5177
1.0015	6.2439
1.002	5.0354
1.0025	6.2439
1.003	2.01416
1.0035	2.21558
1.004	7.25098
1.0045	4.93469
1.005	8.15735
1.0055	6.94885
1.006	12.89062
1.0065	6.74744
1.007	10.77576
1.0075	5.74036
1.008	8.05664
1.0085	10.67505
1.009	4.73328
1.0095	8.96301
1.01	1.81274
1.0105	3.42407
1.011	7.25098
1.0115	5.0354
1.012	1.51062
1.0125	10.87646
1.013	4.93469
1.0135	8.8623
1.014	7.15027
1.0145	2.21558
1.015	2.01416
1.0155	7.25098
1.016	3.52478
1.0165	4.83398
1.017	6.64673
1.0175	6.44531
1.018	12.18567
1.0185	9.97009
1.019	4.43115
1.0195	2.31628
1.02	1.00708
1.0205	4.22974
1.021	7.45239
1.0215	9.76868
1.022	3.8269
1.0225	2.61841
1.023	2.61841
1.0235	8.56018
1.024	6.94885
1.0245	6.84814
1.025	4.63257
1.0255	4.83398
1.026	6.04248
1.0265	13.29346
1.027	7.75452
1.0275	5.53894
1.028	1.81274
1.0285	4.63257
1.029	3.92761
1.0295	6.74744
1.03	10.17151
1.0305	7.5531
1.031	7.85522
1.0315	2.11487
1.032	3.32336
1.0325	8.56018
1.033	1.51062
1.0335	2.21558
1.034	6.2439
1.0345	6.44531
1.035	6.44531
1.0355	3.62549
1.036	5.74036
1.0365	8.45947
1.037	4.93469
1.0375	4.93469
1.038	5.53894
1.0385	0.10071
1.039	5.33752
1.0395	4.02832
1.04	2.11487
1.0405	2.21558
1.041	-0.90637
1.0415	3.42407
1.042	5.0354
1.0425	-1.61133
1.043	-0.40283
1.0435	6.14319
1.044	4.83398
1.0445	6.54602
1.045	8.45947
1.0455	4.12903
1.046	10.0708
1.0465	1.40991
1.047	2.01416
1.0475	6.2439
1.048	2.92053
1.0485	9.76868
1.049	2.21558
1.0495	1.51062
1.05	7.85522
1.0505	6.74744
1.051	7.25098
1.0515	4.73328
1.052	9.46655
1.0525	9.16443
1.053	6.14319
1.0535	10.0708
1.054	6.54602
1.0545	7.85522
1.055	5.23682
1.0555	2.81982
1.056	8.25806
1.0565	6.94885
1.057	2.81982
1.0575	6.64673
1.058	4.53186
1.0585	4.63257
1.059	10.57434
1.0595	7.35168
1.06	3.7262
1.0605	8.05664
1.061	7.15027
1.0615	9.46655
1.062	6.04248
1.0625	11.17859
1.063	3.42407
1.0635	6.44531
1.064	8.45947
1.0645	9.36584
1.065	10.0708
1.0655	7.5531
1.066	3.02124
1.0665	3.7262
1.067	7.65381
1.0675	11.38
1.068	6.04248
1.0685	14.30054
1.069	11.68213
1.0695	10.47363
1.07	4.43115
1.0705	5.84106
1.071	7.75452
1.0715	8.96301
1.072	8.8623
1.0725	5.0354
1.073	4.63257
1.0735	6.2439
1.074	7.5531
1.0745	6.04248
1.075	7.04956
1.0755	8.25806
1.076	9.56726
1.0765	8.35876
1.077	4.63257
1.0775	5.94177
1.078	7.15027
1.0785	8.45947
1.079	7.04956
1.0795	4.02832
1.08	6.14319
1.0805	6.14319
1.081	6.14319
1.0815	6.2439
1.082	5.53894
1.0825	8.15735
1.083	14.50195
1.0835	3.12195
1.084	6.84814
1.0845	9.16443
1.085	2.81982
1.0855	7.75452
1.086	8.05664
1.0865	5.84106
1.087	5.53894
1.0875	6.04248
1.088	4.22974
1.0885	7.75452
1.089	8.35876
1.0895	5.13611
1.09	6.94885
1.0905	3.8269
1.091	3.62549
1.0915	5.33752
1.092	5.33752
1.0925	1.10779
1.093	-2.41699
1.0935	1.00708
1.094	9.97009
1.0945	6.74744
1.095	10.0708
1.0955	8.8623
1.096	5.94177
1.0965	6.74744
1.097	8.05664
1.0975	5.74036
1.098	7.85522
1.0985	9.76868
1.099	10.0708
1.0995	5.23682
1.1	5.74036
1.1005	4.73328
1.101	0.90637
1.1015	2.21558
1.102	4.93469
1.1025	4.53186
1.103	-4.02832
1.1035	3.92761
1.104	8.56018
1.1045	10.0708
1.105	7.75452
1.1055	2.92053
1.106	5.43823
1.1065	9.26514
1.107	5.84106
1.1075	4.93469
1.108	0.40283
1.1085	1.91345
1.109	3.62549
1.1095	3.7262
1.11	0.60425
1.1105	4.02832
1.111	13.89771
1.1115	6.74744
1.112	4.73328
1.1125	6.04248
1.113	0.90637
1.1135	5.0354
1.114	5.84106
1.1145	7.75452
1.115	3.42407
1.1155	8.25806
1.116	10.17151
1.1165	7.25098
1.117	6.94885
1.1175	5.74036
1.118	4.02832
1.1185	6.2439
1.119	5.0354
1.1195	4.93469
1.12	9.66797
1.1205	8.66089
1.121	6.14319
1.1215	8.8623
1.122	6.54602
1.1225	14.19983
1.123	6.2439
1.1235	6.3446
1.124	6.74744
1.1245	8.45947
1.125	6.14319
1.1255	6.94885
1.126	9.26514
1.1265	9.46655
1.127	6.44531
1.1275	8.66089
1.128	4.83398
1.1285	10.0708
1.129	10.67505
1.1295	10.0708
1.13	11.2793
1.1305	9.26514
1.131	3.22266
1.1315	7.85522
1.132	6.54602
1.1325	5.74036
1.133	5.63965
1.1335	6.74744
1.134	11.78284
1.1345	7.45239
1.135	6.54602
1.1355	8.25806
1.136	9.76868
1.1365	7.04956
1.137	8.25806
1.1375	3.52478
1.138	2.92053
1.1385	8.05664
1.139	9.26514
1.1395	10.77576
1.14	6.3446
1.1405	5.84106
1.141	7.75452
1.1415	10.37292
1.142	8.25806
1.1425	3.7262
1.143	5.94177
1.1435	9.76868
1.144	13.89771
1.1445	5.33752
1.145	7.5531
1.1455	8.66089
1.146	11.78284
1.1465	10.37292
1.147	9.36584
1.1475	8.35876
1.148	8.15735
1.1485	7.65381
1.149	8.15735
1.1495	3.92761
1.15	-2.92053
1.1505	1.61133
1.151	2.11487
1.1515	-1.3092
1.152	1.81274
1.1525	0.40283
1.153	-1.71204
1.1535	-3.12195
1.154	0.70496
1.1545	-0.80566
1.155	0.40283
1.1555	4.43115
1.156	-1.51062
1.1565	4.83398
1.157	3.8269
1.1575	5.0354
1.158	5.94177
1.1585	8.66089
1.159	9.76868
1.1595	8.05664
1.16	13.19275
1.1605	10.27222
1.161	15.20691
1.1615	18.73169
1.162	18.63098
1.1625	17.52319
1.163	18.93311
1.1635	22.25647
1.164	24.47205
1.1645	17.32178
1.165	18.32886
1.1655	18.12744
1.166	18.42957
1.1665	11.07788
1.167	13.19275
1.1675	13.29346
1.168	9.97009
1.1685	9.36584
1.169	10.57434
1.1695	7.65381
1.17	1.51062
1.1705	2.92053
1.171	-11.07788
1.1715	-20.44373
1.172	-19.43665
1.1725	-26.48621
1.173	-31.92444
1.1735	-22.35718
1.174	-23.96851
1.1745	-21.14868
1.175	-18.53027
1.1755	-14.09912
1.176	-12.99133
1.1765	-6.04248
1.177	1.51062
1.1775	2.11487
1.178	8.96301
1.1785	9.36584
1.179	17.6239
1.1795	22.86072
1.18	18.73169
1.1805	18.42957
1.181	14.90479
1.1815	10.87646
1.182	11.88354
1.1825	10.47363
1.183	-2.11487
1.1835	4.22974
1.184	3.92761
1.1845	11.88354
1.185	11.2793
1.1855	12.68921
1.186	16.91895
1.1865	21.14868
1.187	24.97559
1.1875	24.06921
1.188	22.96143
1.1885	23.06213
1.189	20.74585
1.1895	19.43665
1.19	17.52319
1.1905	20.84656
1.191	26.88904
1.1915	24.16992
1.192	25.27771
1.1925	19.43665
1.193	9.86938
1.1935	2.5177
1.194	1.3092
1.1945	-16.3147
1.195	-24.27063
1.1955	-25.27771
1.196	-32.52869
1.1965	-32.32727
1.197	-33.03223
1.1975	-25.68054
1.198	-18.32886
1.1985	-11.2793
1.199	-1.3092
1.1995	3.7262
1.2	14.09912
1.2005	18.73169
1.201	28.80249
1.2015	35.34851
1.202	41.59241
1.2025	42.29736
1.203	42.59949
1.2035	54.48303
1.204	58.30994
1.2045	63.14392
1.205	58.91418
1.2055	53.77808
1.206	50.85754
1.2065	45.52002
1.207	33.9386
1.2075	20.84656
1.208	19.83948
1.2085	14.40125
1.209	0.50354
1.2095	-8.25806
1.21	-25.27771
1.2105	-38.36975
1.211	-56.39648
1.2115	-67.07153
1.212	-60.52551
1.2125	-55.69153
1.213	-62.53967
1.2135	-42.7002
1.214	-38.16833
1.2145	-32.93152
1.215	-21.04797
1.2155	-12.28638
1.216	-4.63257
1.2165	0.10071
1.217	10.57434
1.2175	10.57434
1.218	17.82532
1.2185	17.12036
1.219	16.51611
1.2195	8.25806
1.22	0.20142
1.2205	-3.12195
1.221	-3.62549
1.2215	0.80566
1.222	15.30762
1.2225	21.55151
1.223	23.26355
1.2235	26.08337
1.224	30.91736
1.2245	33.63647
1.225	33.43506
1.2255	41.4917
1.226	42.39807
1.2265	36.65771
1.227	37.36267
1.2275	29.80957
1.228	15.40833
1.2285	7.04956
1.229	-0.50354
1.2295	-0.20142
1.23	-3.52478
1.2305	3.02124
1.231	6.3446
1.2315	16.71753
1.232	19.33594
1.2325	24.16992
1.233	25.78125
1.2335	34.84497
1.234	30.01099
1.2345	16.91895
1.235	6.2439
1.2355	-1.10779
1.236	-21.45081
1.2365	-34.94568
1.237	-49.24622
1.2375	-62.53967
1.238	-70.09277
1.2385	-76.43738
1.239	-69.1864
1.2395	-54.18091
1.24	-46.62781
1.2405	-32.32727
1.241	-19.63806
1.2415	-22.96143
1.242	-14.19983
1.2425	-7.35168
1.243	-5.84106
1.2435	-2.01416
1.244	10.97717
1.2445	21.85364
1.245	15.1062
1.2455	15.40833
1.246	13.89771
1.2465	4.53186
1.247	9.26514
1.2475	7.5531
1.248	9.36584
1.2485	9.86938
1.249	11.88354
1.2495	17.82532
1.25	24.67346
1.2505	31.21948
1.251	29.00391
1.2515	25.78125
1.252	17.6239
1.2525	15.00549
1.253	12.48779
1.2535	15.71045
1.254	13.49487
1.2545	14.80408
1.255	9.66797
1.2555	0.70496
1.256	-9.86938
1.2565	-9.56726
1.257	-12.78992
1.2575	-11.48071
1.258	-10.87646
1.2585	-4.33044
1.259	0.30212
1.2595	-8.25806
1.26	-8.7616
1.2605	-13.49487
1.261	-16.81824
1.2615	-9.26514
1.262	3.02124
1.2625	7.85522
1.263	10.97717
1.2635	14.70337
1.264	20.64514
1.2645	13.29346
1.265	11.07788
1.2655	7.5531
1.266	9.76868
1.2665	4.73328
1.267	9.56726
1.2675	8.7616
1.268	16.3147
1.2685	17.52319
1.269	7.65381
1.2695	4.83398
1.27	2.61841
1.2705	-0.40283
1.271	4.02832
1.2715	2.31628
1.272	1.51062
1.2725	2.01416
1.273	1.81274
1.2735	6.14319
1.274	10.57434
1.2745	9.76868
1.275	9.56726
1.2755	11.68213
1.276	10.27222
1.2765	11.2793
1.277	13.797
1.2775	15.30762
1.278	15.1062
1.2785	16.41541
1.279	14.90479
1.2795	10.87646
1.28	12.99133
1.2805	20.34302
1.281	17.82532
1.2815	12.89062
1.282	10.77576
1.2825	3.62549
1.283	2.31628
1.2835	9.76868
1.284	12.48779
1.2845	18.8324
1.285	28.70178
1.2855	25.88196
1.286	32.83081
1.2865	34.74426
1.287	32.7301
1.2875	30.2124
1.288	26.3855
1.2885	26.88904
1.289	22.6593
1.2895	23.16284
1.29	13.49487
1.2905	10.27222
1.291	-5.43823
1.2915	-14.19983
1.292	-10.77576
1.2925	-16.11328
1.293	-8.7616
1.2935	-11.2793
1.294	-12.78992
1.2945	-18.63098
1.295	-20.94727
1.2955	-14.19983
1.296	-20.1416
1.2965	-16.81824
1.297	-10.77576
1.2975	-10.57434
1.298	-8.66089
1.2985	-4.33044
1.299	5.53894
1.2995	11.17859
1.3	4.73328
1.3005	8.7616
1.301	8.15735
1.3015	11.07788
1.302	14.60266
1.3025	19.73877
1.303	19.53735
1.3035	21.85364
1.304	26.08337
1.3045	21.14868
1.305	16.11328
1.3055	18.73169
1.306	11.38
1.3065	9.86938
1.307	5.0354
1.3075	3.02124
1.308	-1.81274
1.3085	-1.2085
1.309	-1.71204
1.3095	-4.93469
1.31	2.61841
1.3105	4.33044
1.311	-2.81982
1.3115	2.01416
1.312	11.07788
1.3125	16.01257
1.313	6.94885
1.3135	9.36584
1.314	4.43115
1.3145	8.25806
1.315	13.89771
1.3155	16.41541
1.316	12.28638
1.3165	12.89062
1.317	18.8324
1.3175	19.83948
1.318	31.4209
1.3185	38.06763
1.319	43.00232
1.3195	38.26904
1.32	31.4209
1.3205	28.50037
1.321	13.19275
1.3215	2.81982
1.322	-6.64673
1.3225	-11.17859
1.323	-21.75293
1.3235	-27.99683
1.324	-31.11877
1.3245	-32.22656
1.325	-39.17542
1.3255	-39.67896
1.326	-29.20532
1.3265	-24.47205
1.327	-10.57434
1.3275	-3.42407
1.328	3.02124
1.3285	8.25806
1.329	13.89771
1.3295	31.52161
1.33	31.82373
1.3305	34.54285
1.331	29.60815
1.3315	24.06921
1.332	13.69629
1.3325	8.96301
1.333	1.51062
1.3335	-8.7616
1.334	-11.17859
1.3345	-8.96301
1.335	-8.05664
1.3355	-12.99133
1.336	-19.63806
1.3365	-21.3501
1.337	-24.47205
1.3375	-23.16284
1.338	-14.70337
1.3385	-12.68921
1.339	-3.02124
1.3395	0.90637
1.34	2.31628
1.3405	1.10779
1.341	-0.30212
1.3415	3.52478
1.342	8.05664
1.3425	14.30054
1.343	18.73169
1.3435	15.60974
1.344	12.08496
1.3445	12.18567
1.345	9.66797
1.3455	12.89062
1.346	6.84814
1.3465	10.67505
1.347	8.15735
1.3475	6.64673
1.348	7.65381
1.3485	2.71912
1.349	-0.80566
1.3495	4.43115
1.35	4.33044
1.3505	-4.63257
1.351	1.2085
1.3515	0
1.352	5.53894
1.3525	-2.01416
1.353	0.50354
1.3535	-2.41699
1.354	2.21558
1.3545	2.81982
1.355	4.33044
1.3555	5.74036
1.356	0.10071
1.3565	-2.81982
1.357	-0.10071
1.3575	4.02832
1.358	5.53894
1.3585	13.09204
1.359	5.33752
1.3595	2.61841
1.36	1.51062
1.3605	-1.81274
1.361	4.83398
1.3615	2.81982
1.362	3.7262
1.3625	4.53186
1.363	7.65381
1.3635	8.8623
1.364	9.26514
1.3645	8.8623
1.365	9.97009
1.3655	9.16443
1.366	10.0708
1.3665	10.57434
1.367	17.42249
1.3675	21.3501
1.368	14.70337
1.3685	15.91187
1.369	4.33044
1.3695	6.74744
1.37	-1.00708
1.3705	-6.14319
1.371	-7.65381
1.3715	-4.63257
1.372	-11.2793
1.3725	-15.71045
1.373	-21.45081
1.3735	-17.01965
1.374	-7.45239
1.3745	-1.71204
1.375	2.5177
1.3755	10.0708
1.376	6.94885
1.3765	14.70337
1.377	10.87646
1.3775	9.46655
1.378	8.8623
1.3785	5.63965
1.379	13.29346
1.3795	21.45081
1.38	17.6239
1.3805	11.07788
1.381	10.87646
1.3815	30.71594
1.382	34.44214
1.3825	45.01648
1.383	32.93152
1.3835	33.23364
1.384	24.37134
1.3845	29.20532
1.385	38.26904
1.3855	34.74426
1.386	33.9386
1.3865	21.24939
1.387	12.89062
1.3875	2.61841
1.388	-1.91345
1.3885	-10.17151
1.389	-4.73328
1.3895	-5.0354
1.39	0.70496
1.3905	4.12903
1.391	6.2439
1.3915	1.10779
1.392	-0.30212
1.3925	-1.61133
1.393	0.40283
1.3935	11.98425
1.394	11.68213
1.3945	4.22974
1.395	-2.5177
1.3955	-17.6239
1.396	-26.08337
1.3965	-28.50037
1.397	-38.77258
1.3975	-32.32727
1.398	-31.4209
1.3985	-33.33435
1.399	-32.7301
1.3995	-36.65771
1.4	-36.15417
1.4005	-30.51453
1.401	-22.76001
1.4015	-24.77417
1.402	-16.11328
1.4025	-12.78992
1.403	-6.3446
1.4035	-1.61133
1.404	6.04248
1.4045	10.47363
1.405	9.46655
1.4055	6.94885
1.406	14.90479
1.4065	9.97009
1.407	7.15027
1.4075	2.81982
1.408	4.93469
1.4085	6.44531
1.409	9.97009
1.4095	10.47363
1.41	10.57434
1.4105	3.8269
1.411	6.2439
1.4115	6.2439
1.412	6.74744
1.4125	9.76868
1.413	5.53894
1.4135	9.97009
1.414	4.12903
1.4145	3.52478
1.415	5.53894
1.4155	-4.53186
1.416	-6.2439
1.4165	-3.32336
1.417	0.40283
1.4175	5.74036
1.418	5.94177
1.4185	6.2439
1.419	16.21399
1.4195	15.00549
1.42	10.0708
1.4205	11.98425
1.421	12.5885
1.4215	6.64673
1.422	4.43115
1.4225	2.31628
1.423	-3.7262
1.4235	-2.21558
1.424	1.3092
1.4245	4.33044
1.425	8.45947
1.4255	3.7262
1.426	3.42407
1.4265	6.3446
1.427	5.74036
1.4275	1.51062
1.428	8.96301
1.4285	13.09204
1.429	13.19275
1.4295	11.2793
1.43	16.51611
1.4305	8.45947
1.431	6.64673
1.4315	6.44531
1.432	12.28638
1.4325	7.25098
1.433	0.30212
1.4335	3.7262
1.434	5.53894
1.4345	-1.61133
1.435	3.12195
1.4355	2.5177
1.436	2.31628
1.4365	1.51062
1.437	5.43823
1.4375	6.74744
1.438	3.92761
1.4385	6.54602
1.439	9.76868
1.4395	10.17151
1.44	9.76868
1.4405	10.37292
1.441	2.61841
1.4415	5.74036
1.442	6.04248
1.4425	7.25098
1.443	2.5177
1.4435	6.14319
1.444	1.10779
1.4445	8.35876
1.445	2.71912
1.4455	6.64673
1.446	6.64673
1.4465	3.62549
1.447	4.33044
1.4475	8.35876
1.448	12.99133
1.4485	4.93469
1.449	3.92761
1.4495	1.91345
1.45	4.93469
1.4505	-0.60425
1.451	-1.91345
1.4515	6.2439
1.452	-0.70496
1.4525	1.81274
1.453	-8.35876
1.4535	-1.71204
1.454	-4.73328
1.4545	0.20142
1.455	-0.30212
1.4555	-2.41699
1.456	-4.43115
1.4565	-5.63965
1.457	-3.52478
1.4575	-9.26514
1.458	-3.52478
1.4585	-8.15735
1.459	-5.53894
1.4595	-3.52478
1.46	-0.40283
1.4605	1.91345
1.461	9.46655
1.4615	21.45081
1.462	22.45789
1.4625	28.39966
1.463	16.91895
1.4635	16.61682
1.464	21.95435
1.4645	22.15576
1.465	24.47205
1.4655	19.53735
1.466	13.797
1.4665	13.99841
1.467	20.1416
1.4675	27.99683
1.468	31.82373
1.4685	38.67188
1.469	33.73718
1.4695	32.22656
1.47	32.02515
1.4705	21.75293
1.471	20.34302
1.4715	16.61682
1.472	11.78284
1.4725	8.45947
1.473	-1.2085
1.4735	-2.21558
1.474	-10.57434
1.4745	-16.11328
1.475	-25.98267
1.4755	-37.36267
1.476	-40.38391
1.4765	-35.14709
1.477	-38.87329
1.4775	-33.63647
1.478	-24.16992
1.4785	-16.61682
1.479	-8.25806
1.4795	3.8269
1.48	10.87646
1.4805	16.21399
1.481	15.20691
1.4815	6.64673
1.482	8.56018
1.4825	14.80408
1.483	16.11328
1.4835	14.09912
1.484	5.53894
1.4845	8.35876
1.485	7.75452
1.4855	5.94177
1.486	2.21558
1.4865	-2.11487
1.487	2.21558
1.4875	-2.61841
1.488	10.77576
1.4885	13.39417
1.489	14.70337
1.4895	13.29346
1.49	9.06372
1.4905	5.43823
1.491	2.92053
1.4915	6.14319
1.492	11.07788
1.4925	10.37292
1.493	7.65381
1.4935	11.78284
1.494	10.17151
1.4945	8.8623
1.495	7.15027
1.4955	10.57434
1.496	9.66797
1.4965	6.14319
1.497	3.12195
1.4975	8.8623
1.498	3.22266
1.4985	4.53186
1.499	2.92053
1.4995	-4.63257
1.5	-8.15735
1.5005	-7.35168
1.501	-2.81982
1.5015	-1.3092
1.502	-0.40283
1.5025	3.12195
1.503	-1.81274
1.5035	4.53186
1.504	3.22266
1.5045	-7.15027
1.505	-2.41699
1.5055	4.33044
1.506	11.68213
1.5065	15.91187
1.507	16.91895
1.5075	13.09204
1.508	8.05664
1.5085	10.77576
1.509	6.44531
1.5095	4.33044
1.51	0.20142
1.5105	2.5177
1.511	7.45239
1.5115	3.52478
1.512	4.22974
1.5125	-4.12903
1.513	-1.91345
1.5135	4.12903
1.514	3.8269
1.5145	0.60425
1.515	1.00708
1.5155	-1.3092
1.516	5.0354
1.5165	5.43823
1.517	8.56018
1.5175	8.15735
1.518	15.1062
1.5185	15.81116
1.519	22.25647
1.5195	26.28479
1.52	18.93311
1.5205	19.23523
1.521	16.41541
1.5215	11.38
1.522	3.52478
1.5225	3.92761
1.523	-2.71912
1.5235	-2.31628
1.524	-6.2439
1.5245	-7.15027
1.525	-13.39417
1.5255	-8.8623
1.526	-7.04956
1.5265	-8.25806
1.527	-4.12903
1.5275	-10.27222
1.528	-4.22974
1.5285	-1.51062
1.529	8.15735
1.5295	17.52319
1.53	16.21399
1.5305	11.48071
1.531	8.35876
1.5315	10.97717
1.532	24.27063
1.5325	38.57117
1.533	39.27612
1.5335	36.75842
1.534	29.70886
1.5345	15.40833
1.535	10.67505
1.5355	-0.80566
1.536	-6.14319
1.5365	-8.35876
1.537	-10.47363
1.5375	-15.30762
1.538	-22.96143
1.5385	-30.01099
1.539	-33.23364
1.5395	-36.4563
1.54	-36.25488
1.5405	-29.30603
1.541	-18.42957
1.5415	-4.73328
1.542	0.60425
1.5425	-1.40991
1.543	-15.20691
1.5435	-6.2439
1.544	-5.33752
1.5445	-1.61133
1.545	6.3446
1.5455	4.53186
1.546	-1.2085
1.5465	1.2085
1.547	-2.61841
1.5475	-8.45947
1.548	4.83398
1.5485	6.2439
1.549	6.84814
1.5495	10.97717
1.55	3.22266
1.5505	2.5177
1.551	6.84814
1.5515	4.02832
1.552	17.72461
1.5525	20.74585
1.553	31.92444
1.5535	31.52161
1.554	19.23523
1.5545	19.94019
1.555	19.73877
1.5555	9.16443
1.556	5.63965
1.5565	0.10071
1.557	-3.32336
1.5575	-6.54602
1.558	-6.84814
1.5585	-10.17151
1.559	-13.99841
1.5595	-17.22107
1.56	-16.81824
1.5605	-15.91187
1.561	-3.42407
1.5615	5.23682
1.562	10.97717
1.5625	19.73877
1.563	22.45789
1.5635	24.16992
1.564	27.79541
1.5645	22.25647
1.565	27.79541
1.5655	33.43506
1.566	35.04639
1.5665	28.39966
1.567	31.52161
1.5675	28.60107
1.568	27.29187
1.5685	25.27771
1.569	10.57434
1.5695	4.02832
1.57	-6.44531
1.5705	-10.17151
1.571	-23.36426
1.5715	-33.13293
1.572	-47.03064
1.5725	-49.64905
1.573	-55.08728
1.5735	-42.7002
1.574	-29.70886
1.5745	-23.26355
1.575	-9.86938
1.5755	6.14319
1.576	12.48779
1.5765	25.98267
1.577	33.83789
1.5775	25.57983
1.578	16.61682
1.5785	15.60974
1.579	8.96301
1.5795	7.75452
1.58	7.35168
1.5805	7.45239
1.581	10.67505
1.5815	6.44531
1.582	12.08496
1.5825	14.19983
1.583	6.94885
1.5835	14.80408
1.584	5.0354
1.5845	9.36584
1.585	11.2793
1.5855	11.38
1.586	12.38708
1.5865	15.20691
1.587	13.69629
1.5875	14.09912
1.588	9.26514
1.5885	9.76868
1.589	9.16443
1.5895	11.58142
1.59	3.7262
1.5905	6.04248
1.591	8.8623
1.5915	8.56018
1.592	7.35168
1.5925	9.26514
1.593	7.85522
1.5935	12.08496
1.594	9.26514
1.5945	4.63257
1.595	0.90637
1.5955	2.92053
1.596	4.02832
1.5965	5.53894
1.597	5.43823
1.5975	6.94885
1.598	8.66089
1.5985	12.68921
1.599	6.84814
1.5995	6.94885
1.6	13.797
1.6005	4.93469
1.601	7.04956
1.6015	7.04956
1.602	2.31628
1.6025	-0.60425
1.603	-0.80566
1.6035	1.61133
1.604	-0.30212
1.6045	0.90637
1.605	5.0354
1.6055	10.57434
1.606	8.15735
1.6065	8.56018
1.607	6.94885
1.6075	10.77576
1.608	11.38
1.6085	8.56018
1.609	2.81982
1.6095	4.33044
1.61	7.95593
1.6105	5.53894
1.611	1.81274
1.6115	6.74744
1.612	6.64673
1.6125	4.53186
1.613	1.71204
1.6135	0.70496
1.614	-0.20142
1.6145	0.10071
1.615	4.22974
1.6155	7.35168
1.616	3.8269
1.6165	8.7616
1.617	5.94177
1.6175	9.06372
1.618	8.8623
1.6185	13.797
1.619	7.04956
1.6195	6.2439
1.62	3.7262
1.6205	4.63257
1.621	6.14319
1.6215	8.15735
1.622	2.5177
1.6225	-1.40991
1.623	-1.51062
1.6235	7.04956
1.624	16.71753
1.6245	12.89062
1.625	4.63257
1.6255	6.94885
1.626	4.93469
1.6265	5.94177
1.627	3.92761
1.6275	4.73328
1.628	7.25098
1.6285	6.94885
1.629	1.91345
1.6295	3.52478
1.63	7.65381
1.6305	9.26514
1.631	9.66797
1.6315	6.54602
1.632	4.93469
1.6325	9.46655
1.633	0.50354
1.6335	10.97717
1.634	2.41699
1.6345	11.07788
1.635	5.43823
1.6355	6.3446
1.636	9.16443
1.6365	3.02124
1.637	5.53894
1.6375	3.32336
1.638	5.13611
1.6385	9.26514
1.639	4.02832
1.6395	5.74036
1.64	5.74036
1.6405	9.56726
1.641	5.23682
1.6415	6.94885
1.642	2.81982
1.6425	4.12903
1.643	3.12195
1.6435	1.81274
1.644	-0.80566
1.6445	5.53894
1.645	5.94177
1.6455	14.40125
1.646	18.12744
1.6465	16.91895
1.647	9.56726
1.6475	15.81116
1.648	14.19983
1.6485	17.32178
1.649	11.2793
1.6495	12.5885
1.65	7.85522
1.6505	9.16443
1.651	3.62549
1.6515	2.41699
1.652	9.97009
1.6525	6.94885
1.653	-0.70496
1.6535	7.5531
1.654	8.8623
1.6545	8.7616
1.655	5.94177
1.6555	4.83398
1.656	11.68213
1.6565	7.45239
1.657	9.46655
1.6575	8.15735
1.658	11.78284
1.6585	12.99133
1.659	9.86938
1.6595	5.0354
1.66	9.66797
1.6605	7.25098
1.661	-0.70496
1.6615	7.25098
1.662	5.13611
1.6625	0
1.663	-2.92053
1.6635	0.80566
1.664	4.63257
1.6645	7.65381
1.665	9.76868
1.6655	14.19983
1.666	19.13452
1.6665	24.37134
1.667	26.58691
1.6675	23.76709
1.668	19.83948
1.6685	19.13452
1.669	13.99841
1.6695	7.25098
1.67	7.85522
1.6705	20.94727
1.671	11.48071
1.6715	7.75452
1.672	5.43823
1.6725	8.15735
1.673	1.91345
1.6735	8.05664
1.674	9.06372
1.6745	6.74744
1.675	6.54602
1.6755	11.48071
1.676	9.56726
1.6765	11.98425
1.677	9.26514
1.6775	8.45947
1.678	5.94177
1.6785	10.57434
1.679	7.95593
1.6795	2.01416
1.68	1.00708
1.6805	-5.13611
1.681	3.12195
1.6815	-5.33752
1.682	-8.7616
1.6825	-5.43823
1.683	-10.47363
1.6835	-3.02124
1.684	3.02124
1.6845	10.77576
1.685	14.70337
1.6855	21.55151
1.686	23.66638
1.6865	18.53027
1.687	16.91895
1.6875	16.11328
1.688	14.60266
1.6885	17.6239
1.689	8.35876
1.6895	4.83398
1.69	10.47363
1.6905	8.96301
1.691	4.33044
1.6915	5.63965
1.692	3.52478
1.6925	5.43823
1.693	6.14319
1.6935	9.86938
1.694	5.33752
1.6945	8.25806
1.695	11.78284
1.6955	6.54602
1.696	10.17151
1.6965	11.2793
1.697	14.90479
1.6975	11.88354
1.698	2.21558
1.6985	8.25806
1.699	8.15735
1.6995	4.93469
1.7	6.94885
1.7005	7.95593
1.701	1.3092
1.7015	7.95593
1.702	5.13611
1.7025	2.92053
1.703	-2.41699
1.7035	6.2439
1.704	7.5531
1.7045	3.8269
1.705	3.02124
1.7055	6.44531
1.706	14.90479
1.7065	8.96301
1.707	10.67505
1.7075	9.56726
1.708	5.53894
1.7085	9.36584
1.709	8.05664
1.7095	9.66797
1.71	7.04956
1.7105	4.12903
1.711	1.61133
1.7115	0.60425
1.712	3.02124
1.7125	7.15027
1.713	-2.71912
1.7135	5.43823
1.714	1.51062
1.7145	2.41699
1.715	5.94177
1.7155	2.61841
1.716	5.84106
1.7165	12.08496
1.717	14.19983
1.7175	20.64514
1.718	21.14868
1.7185	18.63098
1.719	17.92603
1.7195	10.27222
1.72	7.65381
1.7205	10.87646
1.721	9.26514
1.7215	13.09204
1.722	3.8269
1.7225	11.07788
1.723	6.44531
1.7235	12.18567
1.724	8.05664
1.7245	14.19983
1.725	11.17859
1.7255	10.0708
1.726	9.36584
1.7265	11.88354
1.727	11.78284
1.7275	7.95593
1.728	8.8623
1.7285	9.06372
1.729	5.74036
1.7295	8.45947
1.73	6.54602
1.7305	9.76868
1.731	6.44531
1.7315	12.5885
1.732	9.76868
1.7325	4.93469
1.733	-0.50354
1.7335	4.22974
1.734	7.95593
1.7345	6.84814
1.735	8.7616
1.7355	7.75452
1.736	4.43115
1.7365	3.12195
1.737	2.11487
1.7375	7.85522
1.738	2.5177
1.7385	0.30212
1.739	0.80566
1.7395	1.61133
1.74	-3.12195
1.7405	-0.40283
1.741	6.3446
1.7415	2.92053
1.742	4.22974
1.7425	7.95593
1.743	2.81982
1.7435	7.5531
1.744	5.13611
1.7445	7.15027
1.745	3.92761
1.7455	5.84106
1.746	4.63257
1.7465	9.26514
1.747	13.89771
1.7475	19.83948
1.748	18.12744
1.7485	14.60266
1.749	10.0708
1.7495	9.36584
1.75	13.59558
1.7505	12.18567
1.751	11.07788
1.7515	17.42249
1.752	8.96301
1.7525	4.02832
1.753	1.10779
1.7535	2.5177
1.754	0.10071
1.7545	8.25806
1.755	10.57434
1.7555	7.95593
1.756	3.32336
1.7565	6.2439
1.757	4.53186
1.7575	2.92053
1.758	8.7616
1.7585	6.64673
1.759	2.5177
1.7595	2.71912
1.76	6.04248
1.7605	10.67505
1.761	8.35876
1.7615	8.96301
1.762	14.19983
1.7625	7.5531
1.763	5.53894
1.7635	8.66089
1.764	7.45239
1.7645	3.02124
1.765	7.65381
1.7655	8.8623
1.766	11.17859
1.7665	17.01965
1.767	22.6593
1.7675	24.16992
1.768	20.44373
1.7685	20.64514
1.769	17.01965
1.7695	14.90479
1.77	12.18567
1.7705	14.60266
1.771	12.48779
1.7715	14.60266
1.772	7.95593
1.7725	12.38708
1.773	0.60425
1.7735	12.48779
1.774	6.74744
1.7745	5.94177
1.775	6.44531
1.7755	8.96301
1.776	7.75452
1.7765	5.43823
1.777	7.04956
1.7775	9.16443
1.778	9.16443
1.7785	5.0354
1.779	6.64673
1.7795	4.73328
1.78	2.41699
1.7805	10.0708
1.781	9.46655
1.7815	7.5531
1.782	13.09204
1.7825	8.56018
1.783	6.04248
1.7835	12.28638
1.784	4.22974
1.7845	7.85522
1.785	4.53186
1.7855	7.65381
1.786	1.40991
1.7865	6.44531
1.787	7.04956
1.7875	3.8269
1.788	6.84814
1.7885	5.43823
1.789	1.61133
1.7895	3.92761
1.79	2.31628
1.7905	-0.90637
1.791	8.45947
1.7915	7.45239
1.792	6.2439
1.7925	5.23682
1.793	1.40991
1.7935	9.97009
1.794	13.69629
1.7945	10.87646
1.795	16.01257
1.7955	14.40125
1.796	10.67505
1.7965	5.94177
1.797	11.38
1.7975	8.66089
1.798	5.94177
1.7985	13.29346
1.799	10.97717
1.7995	11.07788
1.8	8.96301
1.8005	12.18567
1.801	12.38708
1.8015	12.89062
1.802	11.48071
1.8025	12.99133
1.803	-1.51062
1.8035	6.14319
1.804	5.43823
1.8045	7.65381
1.805	7.65381
1.8055	4.93469
1.806	3.22266
1.8065	10.0708
1.807	7.95593
1.8075	7.95593
1.808	3.92761
1.8085	8.45947
1.809	5.53894
1.8095	4.83398
1.81	3.8269
1.8105	3.22266
1.811	3.52478
1.8115	0.20142
1.812	6.44531
1.8125	7.5531
1.813	7.5531
1.8135	11.98425
1.814	7.15027
1.8145	4.63257
1.815	7.25098
1.8155	11.2793
1.816	3.32336
1.8165	6.3446
1.817	9.06372
1.8175	8.66089
1.818	5.94177
1.8185	7.45239
1.819	13.69629
1.8195	13.99841
1.82	0.60425
1.8205	8.96301
1.821	1.81274
1.8215	7.75452
1.822	6.94885
1.8225	9.56726
1.823	8.25806
1.8235	6.44531
1.824	7.04956
1.8245	7.35168
1.825	6.2439
1.8255	6.74744
1.826	11.68213
1.8265	7.15027
1.827	6.54602
1.8275	15.20691
1.828	8.25806
1.8285	7.04956
1.829	12.78992
1.8295	11.2793
1.83	8.05664
1.8305	6.84814
1.831	7.25098
1.8315	7.85522
1.832	8.56018
1.8325	12.08496
1.833	6.2439
1.8335	9.66797
1.834	13.99841
1.8345	5.63965
1.835	2.81982
1.8355	4.93469
1.836	8.25806
1.8365	11.17859
1.837	10.57434
1.8375	6.3446
1.838	9.97009
1.8385	11.88354
1.839	8.8623
1.8395	11.38
1.84	9.36584
1.8405	9.56726
1.841	9.97009
1.8415	11.88354
1.842	9.86938
1.8425	9.97009
1.843	3.12195
1.8435	6.2439
1.844	7.45239
1.8445	0.20142
1.845	-0.40283
1.8455	-1.51062
1.846	5.63965
1.8465	-0.10071
1.847	-1.81274
1.8475	3.7262
1.848	4.22974
1.8485	4.63257
1.849	4.63257
1.8495	6.84814
1.85	4.73328
1.8505	8.56018
1.851	5.53894
1.8515	10.67505
1.852	4.83398
1.8525	7.25098
1.853	3.22266
1.8535	3.62549
1.854	7.5531
1.8545	9.36584
1.855	5.23682
1.8555	7.95593
1.856	0.10071
1.8565	6.3446
1.857	7.45239
1.8575	10.67505
1.858	13.69629
1.8585	7.75452
1.859	9.36584
1.8595	10.47363
1.86	1.61133
1.8605	4.22974
1.861	6.84814
1.8615	3.32336
1.862	4.83398
1.8625	5.43823
1.863	0
1.8635	5.23682
1.864	14.09912
1.8645	6.04248
1.865	8.56018
1.8655	6.3446
1.866	6.94885
1.8665	7.5531
1.867	4.93469
1.8675	8.35876
1.868	10.97717
1.8685	9.26514
1.869	8.05664
1.8695	7.75452
1.87	6.84814
1.8705	5.13611
1.871	6.84814
1.8715	4.43115
1.872	4.02832
1.8725	7.25098
1.873	2.11487
1.8735	4.02832
1.874	3.92761
1.8745	6.54602
1.875	6.94885
1.8755	3.92761
1.876	6.2439
1.8765	6.74744
1.877	10.57434
1.8775	11.98425
1.878	7.85522
1.8785	8.8623
1.879	6.94885
1.8795	7.25098
1.88	4.43115
1.8805	5.63965
1.881	5.63965
1.8815	7.45239
1.882	5.43823
1.8825	5.13611
1.883	2.01416
1.8835	0.90637
1.884	9.26514
1.8845	2.92053
1.885	1.3092
1.8855	3.02124
1.886	5.33752
1.8865	6.74744
1.887	0
1.8875	4.33044
1.888	9.46655
1.8885	1.81274
1.889	6.64673
1.8895	6.44531
1.89	5.13611
1.8905	10.97717
1.891	9.36584
1.8915	7.35168
1.892	4.43115
1.8925	4.83398
1.893	-3.42407
1.8935	7.04956
1.894	6.3446
1.8945	4.43115
1.895	9.46655
1.8955	5.63965
1.896	8.15735
1.8965	8.96301
1.897	9.16443
1.8975	4.83398
1.898	10.17151
1.8985	9.56726
1.899	10.27222
1.8995	8.35876
1.9	10.37292
1.9005	9.16443
1.901	7.25098
1.9015	10.57434
1.902	4.12903
1.9025	3.42407
1.903	0
1.9035	1.91345
1.904	9.66797
1.9045	4.12903
1.905	2.71912
1.9055	1.81274
1.906	4.93469
1.9065	2.41699
1.907	-2.92053
1.9075	4.53186
1.908	1.71204
1.9085	1.71204
1.909	3.92761
1.9095	3.22266
1.91	9.86938
1.9105	10.57434
1.911	9.16443
1.9115	9.76868
1.912	11.48071
1.9125	13.29346
1.913	3.7262
1.9135	7.5531
1.914	10.17151
1.9145	8.25806
1.915	11.2793
1.9155	8.66089
1.916	6.64673
1.9165	3.12195
1.917	6.3446
1.9175	6.04248
1.918	9.46655
1.9185	6.14319
1.919	5.0354
1.9195	9.16443
1.92	7.15027
1.9205	2.81982
1.921	10.47363
1.9215	12.38708
1.922	11.17859
1.9225	12.5885
1.923	4.73328
1.9235	10.67505
1.924	9.46655
1.9245	7.65381
1.925	2.61841
1.9255	7.45239
1.926	14.19983
1.9265	12.68921
1.927	9.97009
1.9275	12.68921
1.928	12.89062
1.9285	12.89062
1.929	7.95593
1.9295	4.43115
1.93	-1.61133
1.9305	0.90637
1.931	-2.92053
1.9315	-1.40991
1.932	0.90637
1.9325	6.44531
1.933	0.40283
1.9335	0.50354
1.934	-0.70496
1.9345	6.04248
1.935	3.52478
1.9355	0.30212
1.936	4.53186
1.9365	4.53186
1.937	6.94885
1.9375	5.43823
1.938	5.84106
1.9385	8.35876
1.939	7.15027
1.9395	5.23682
1.94	3.7262
1.9405	13.29346
1.941	10.17151
1.9415	6.54602
1.942	6.54602
1.9425	6.64673
1.943	-3.8269
1.9435	4.02832
1.944	4.73328
1.9445	2.11487
1.945	7.35168
1.9455	5.74036
1.946	10.47363
1.9465	5.74036
1.947	10.57434
1.9475	7.65381
1.948	14.50195
1.9485	8.15735
1.949	8.96301
1.9495	9.56726
1.95	6.04248
1.9505	11.07788
1.951	8.8623
1.9515	16.11328
1.952	11.88354
1.9525	13.19275
1.953	3.52478
1.9535	8.96301
1.954	1.71204
1.9545	9.46655
1.955	10.37292
1.9555	6.54602
1.956	5.53894
1.9565	6.3446
1.957	3.52478
1.9575	4.53186
1.958	3.7262
1.9585	2.21558
1.959	2.5177
1.9595	4.63257
1.96	8.15735
1.9605	3.02124
1.961	2.61841
1.9615	8.7616
1.962	10.0708
1.9625	7.85522
1.963	2.81982
1.9635	9.66797
1.964	6.14319
1.9645	6.3446
1.965	7.04956
1.9655	8.15735
1.966	7.25098
1.9665	8.56018
1.967	5.63965
1.9675	6.54602
1.968	7.04956
1.9685	10.97717
1.969	4.93469
1.9695	5.63965
1.97	2.92053
1.9705	2.21558
1.971	7.25098
1.9715	7.15027
1.972	6.74744
1.9725	8.66089
1.973	2.5177
1.9735	4.33044
1.974	7.65381
1.9745	12.78992
1.975	12.89062
1.9755	6.84814
1.976	15.60974
1.9765	13.19275
1.977	14.30054
1.9775	11.98425
1.978	9.36584
1.9785	7.95593
1.979	11.98425
1.9795	11.58142
1.98	8.45947
1.9805	7.35168
1.981	9.56726
1.9815	8.7616
1.982	11.48071
1.9825	7.85522
1.983	7.45239
1.9835	2.11487
1.984	6.2439
1.9845	9.36584
1.985	0.90637
1.9855	5.53894
1.986	8.66089
1.9865	4.22974
1.987	2.01416
1.9875	2.92053
1.988	4.83398
1.9885	8.8623
1.989	2.81982
1.9895	1.2085
1.99	4.73328
1.9905	9.76868
1.991	10.37292
1.9915	11.07788
1.992	10.27222
1.9925	6.74744
1.993	-1.3092
1.9935	6.2439
1.994	4.22974
1.9945	7.35168
1.995	5.84106
1.9955	4.93469
1.996	5.74036
1.9965	3.8269
1.997	5.63965
1.9975	4.02832
1.998	2.81982
1.9985	6.74744
1.999	5.53894
1.9995	10.0708
2	11.38
2.0005	6.64673
2.001	5.63965
2.0015	2.61841
2.002	5.94177
2.0025	4.02832
2.003	-1.10779
2.0035	5.84106
2.004	4.73328
2.0045	1.91345
2.005	0.90637
2.0055	1.91345
2.006	6.54602
2.0065	2.11487
2.007	2.81982
2.0075	8.7616
2.008	10.27222
2.0085	10.0708
2.009	6.2439
2.0095	10.37292
2.01	8.15735
2.0105	5.94177
2.011	1.81274
2.0115	3.42407
2.012	0.60425
2.0125	4.22974
2.013	-0.60425
2.0135	7.75452
2.014	4.73328
2.0145	10.27222
2.015	9.46655
2.0155	12.68921
2.016	9.16443
2.0165	10.47363
2.017	8.66089
2.0175	10.67505
2.018	8.35876
2.0185	8.15735
2.019	5.43823
2.0195	7.04956
2.02	8.05664
2.0205	2.92053
2.021	-0.30212
2.0215	4.63257
2.022	-0.60425
2.0225	1.00708
2.023	0.40283
2.0235	-1.71204
2.024	0.60425
2.0245	1.71204
2.025	-3.02124
2.0255	-7.85522
2.026	-2.31628
2.0265	-1.61133
2.027	-0.90637
2.0275	1.10779
2.028	3.02124
2.0285	0.40283
2.029	4.63257
2.0295	3.12195
2.03	1.81274
2.0305	1.61133
2.031	-1.61133
2.0315	3.8269
2.032	4.22974
2.0325	4.22974
2.033	-1.71204
2.0335	1.40991
2.034	6.44531
2.0345	8.8623
2.035	10.37292
2.0355	5.13611
2.036	8.66089
2.0365	13.29346
2.037	11.38
2.0375	9.46655
2.038	4.63257
2.0385	5.94177
2.039	1.61133
2.0395	10.57434
2.04	15.00549
2.0405	8.8623
2.041	12.38708
2.0415	4.33044
2.042	6.04248
2.0425	5.43823
2.043	1.91345
2.0435	5.53894
2.044	8.15735
2.0445	12.89062
2.045	11.98425
2.0455	9.97009
2.046	8.66089
2.0465	8.66089
2.047	9.76868
2.0475	6.54602
2.048	9.06372
2.0485	5.94177
2.049	3.52478
2.0495	-2.71912
2.05	0.50354
2.0505	2.41699
2.051	1.10779
2.0515	2.21558
2.052	6.94885
2.0525	4.73328
2.053	-3.62549
2.0535	8.45947
2.054	10.37292
2.0545	9.16443
2.055	8.25806
2.0555	2.21558
2.056	7.25098
2.0565	6.14319
2.057	6.04248
2.0575	7.25098
2.058	6.64673
2.0585	7.95593
2.059	6.2439
2.0595	7.65381
2.06	11.07788
2.0605	9.76868
2.061	10.17151
2.0615	8.05664
2.062	6.94885
2.0625	8.66089
2.063	7.15027
2.0635	6.54602
2.064	9.97009
2.0645	7.04956
2.065	5.53894
2.0655	1.2085
2.066	-2.5177
2.0665	-3.02124
2.067	1.10779
2.0675	3.02124
2.068	4.63257
2.0685	1.91345
2.069	7.5531
2.0695	4.93469
2.07	-0.40283
2.0705	-2.01416
2.071	5.94177
2.0715	2.41699
2.072	4.63257
2.0725	6.14319
2.073	4.73328
2.0735	6.54602
2.074	5.63965
2.0745	13.59558
2.075	14.60266
2.0755	10.77576
2.076	6.74744
2.0765	7.85522
2.077	2.01416
2.0775	4.12903
2.078	0.10071
2.0785	4.53186
2.079	9.06372
2.0795	2.5177
2.08	6.2439
2.0805	7.85522
2.081	4.53186
2.0815	3.7262
2.082	4.02832
2.0825	5.63965
2.083	0.30212
2.0835	3.7262
2.084	6.14319
2.0845	6.2439
2.085	7.95593
2.0855	3.8269
2.086	2.41699
2.0865	5.53894
2.087	7.85522
2.0875	13.29346
2.088	9.46655
2.0885	10.77576
2.089	4.83398
2.0895	4.53186
2.09	5.94177
2.0905	0.10071
2.091	6.44531
2.0915	6.44531
2.092	9.06372
2.0925	6.04248
2.093	-1.61133
2.0935	6.2439
2.094	1.40991
2.0945	6.14319
2.095	3.8269
2.0955	3.7262
2.096	3.8269
2.0965	2.11487
2.097	6.3446
2.0975	4.93469
2.098	-0.50354
2.0985	3.02124
2.099	11.58142
2.0995	6.3446
2.1	4.33044
2.1005	5.94177
2.101	-1.71204
2.1015	-0.90637
2.102	2.61841
2.1025	2.11487
2.103	0.90637
2.1035	5.53894
2.104	5.74036
2.1045	2.92053
2.105	-3.42407
2.1055	-3.32336
2.106	-2.61841
2.1065	-1.2085
2.107	2.41699
2.1075	-2.01416
2.108	2.92053
2.1085	6.64673
2.109	3.12195
2.1095	0.70496
2.11	0.80566
2.1105	2.01416
2.111	3.42407
2.1115	-1.51062
2.112	4.22974
2.1125	5.94177
2.113	-2.71912
2.1135	0.20142
2.114	8.56018
2.1145	9.26514
2.115	11.07788
2.1155	12.5885
2.116	6.3446
2.1165	10.57434
2.117	9.66797
2.1175	10.47363
2.118	7.95593
2.1185	10.27222
2.119	11.2793
2.1195	8.7616
2.12	14.40125
2.1205	10.57434
2.121	8.05664
2.1215	0.90637
2.122	6.2439
2.1225	2.5177
2.123	1.00708
2.1235	6.64673
2.124	2.5177
2.1245	6.64673
2.125	4.02832
2.1255	4.22974
2.126	5.23682
2.1265	13.59558
2.127	13.19275
2.1275	8.35876
2.128	8.15735
2.1285	6.14319
2.129	15.81116
2.1295	10.97717
2.13	9.46655
2.1305	11.48071
2.131	8.25806
2.1315	7.75452
2.132	14.90479
2.1325	15.40833
2.133	11.17859
2.1335	8.56018
2.134	10.87646
2.1345	7.85522
2.135	12.48779
2.1355	7.5531
2.136	-0.90637
2.1365	7.65381
2.137	5.94177
2.1375	7.35168
2.138	5.43823
2.1385	8.96301
2.139	6.3446
2.1395	3.92761
2.14	9.06372
2.1405	7.5531
2.141	6.44531
2.1415	7.85522
2.142	4.12903
2.1425	1.51062
2.143	-3.12195
2.1435	1.10779
2.144	-1.3092
2.1445	3.32336
2.145	5.43823
2.1455	8.56018
2.146	10.97717
2.1465	9.56726
2.147	7.45239
2.1475	10.77576
2.148	7.75452
2.1485	11.38
2.149	4.63257
2.1495	11.78284
2.15	6.74744
2.1505	5.13611
2.151	5.53894
2.1515	4.33044
2.152	6.74744
2.1525	10.67505
2.153	-0.90637
2.1535	-1.3092
2.154	6.54602
2.1545	4.12903
2.155	1.10779
2.1555	5.94177
2.156	1.3092
2.1565	3.92761
2.157	0.40283
2.1575	2.92053
2.158	0.80566
2.1585	0.40283
2.159	-2.61841
2.1595	4.53186
2.16	-0.70496
2.1605	7.15027
2.161	0.70496
2.1615	6.44531
2.162	1.61133
2.1625	8.8623
2.163	1.51062
2.1635	3.32336
2.164	4.22974
2.1645	1.71204
2.165	1.51062
2.1655	4.43115
2.166	6.04248
2.1665	1.2085
2.167	5.33752
2.1675	1.81274
2.168	2.41699
2.1685	-0.30212
2.169	2.92053
2.1695	1.91345
2.17	6.3446
2.1705	5.53894
2.171	3.12195
2.1715	5.33752
2.172	5.13611
2.1725	7.45239
2.173	1.00708
2.1735	11.07788
2.174	7.85522
2.1745	13.59558
2.175	10.27222
2.1755	7.65381
2.176	3.8269
2.1765	6.04248
2.177	10.77576
2.1775	6.74744
2.178	3.62549
2.1785	6.14319
2.179	8.35876
2.1795	3.8269
2.18	7.95593
2.1805	3.7262
2.181	5.23682
2.1815	7.04956
2.182	4.12903
2.1825	1.71204
2.183	2.41699
2.1835	2.81982
2.184	2.5177
2.1845	6.2439
2.185	6.44531
2.1855	11.38
2.186	8.66089
2.1865	10.67505
2.187	12.18567
2.1875	9.56726
2.188	11.38
2.1885	14.90479
2.189	9.86938
2.1895	13.09204
2.19	9.86938
2.1905	7.45239
2.191	12.18567
2.1915	5.74036
2.192	6.94885
2.1925	1.00708
2.193	-5.33752
2.1935	4.12903
2.194	9.06372
2.1945	3.02124
2.195	6.64673
2.1955	5.13611
2.196	5.94177
2.1965	8.56018
2.197	7.04956
2.1975	11.07788
2.198	3.52478
2.1985	4.73328
2.199	0.30212
2.1995	8.56018
2.2	5.53894
2.2005	3.92761
2.201	7.75452
2.2015	4.63257
2.202	2.01416
2.2025	5.74036
2.203	4.12903
2.2035	-0.70496
2.204	1.61133
2.2045	4.33044
2.205	7.25098
2.2055	0.10071
2.206	7.65381
2.2065	3.32336
2.207	0.10071
2.2075	1.3092
2.208	1.61133
2.2085	4.83398
2.209	8.45947
2.2095	10.37292
2.21	3.8269
2.2105	5.74036
2.211	6.74744
2.2115	5.94177
2.212	4.53186
2.2125	-0.20142
2.213	-2.92053
2.2135	6.84814
2.214	4.33044
2.2145	2.41699
2.215	1.61133
2.2155	3.8269
2.216	6.94885
2.2165	3.02124
2.217	7.95593
2.2175	6.14319
2.218	0.40283
2.2185	4.02832
2.219	7.75452
2.2195	7.45239
2.22	6.3446
2.2205	9.06372
2.221	11.07788
2.2215	8.8623
2.222	10.37292
2.2225	10.87646
2.223	8.96301
2.2235	10.37292
2.224	8.05664
2.2245	6.84814
2.225	6.64673
2.2255	7.45239
2.226	2.01416
2.2265	-7.25098
2.227	-9.86938
2.2275	-5.0354
2.228	-5.23682
2.2285	-3.7262
2.229	-5.33752
2.2295	-1.51062
2.23	0.70496
2.2305	1.2085
2.231	0.90637
2.2315	1.71204
2.232	5.84106
2.2325	6.54602
2.233	-1.2085
2.2335	2.71912
2.234	6.64673
2.2345	9.86938
2.235	4.73328
2.2355	5.13611
2.236	5.23682
2.2365	1.71204
2.237	1.81274
2.2375	-1.3092
2.238	2.41699
2.2385	-0.10071
2.239	7.35168
2.2395	0.40283
2.24	-1.40991
2.2405	0.20142
2.241	4.02832
2.2415	3.8269
2.242	3.12195
2.2425	6.64673
2.243	3.32336
2.2435	0.80566
2.244	8.05664
2.2445	0.30212
2.245	0.10071
2.2455	-0.50354
2.246	3.52478
2.2465	-0.10071
2.247	1.71204
2.2475	3.12195
2.248	-0.70496
2.2485	5.63965
2.249	2.92053
2.2495	5.53894
2.25	3.12195
2.2505	-0.10071
2.251	7.95593
2.2515	0.60425
2.252	0.40283
2.2525	9.26514
2.253	4.33044
2.2535	7.75452
2.254	6.74744
2.2545	4.12903
2.255	4.53186
2.2555	4.53186
2.256	-3.62549
2.2565	6.64673
2.257	1.51062
2.2575	2.21558
2.258	1.71204
2.2585	0.50354
2.259	5.63965
2.2595	2.31628
2.26	0.30212
2.2605	7.15027
2.261	4.02832
2.2615	3.92761
2.262	2.01416
2.2625	9.26514
2.263	4.93469
2.2635	6.04248
2.264	7.15027
2.2645	8.45947
2.265	11.17859
2.2655	9.36584
2.266	9.66797
2.2665	6.44531
2.267	8.25806
2.2675	5.43823
2.268	2.71912
2.2685	5.84106
2.269	6.3446
2.2695	4.12903
2.27	4.53186
2.2705	6.84814
2.271	13.19275
2.2715	6.3446
2.272	5.33752
2.2725	6.54602
2.273	8.7616
2.2735	6.04248
2.274	0
2.2745	3.92761
2.275	1.51062
2.2755	4.83398
2.276	4.93469
2.2765	6.44531
2.277	2.11487
2.2775	2.5177
2.278	3.52478
2.2785	3.42407
2.279	1.51062
2.2795	0.40283
2.28	9.56726
2.2805	4.12903
2.281	10.0708
2.2815	6.84814
2.282	-1.2085
2.2825	1.10779
2.283	1.3092
2.2835	1.10779
2.284	0.20142
2.2845	-0.10071
2.285	3.12195
2.2855	-0.20142
2.286	1.71204
2.2865	4.93469
2.287	3.92761
2.2875	-0.20142
2.288	-0.80566
2.2885	1.2085
2.289	4.53186
2.2895	-2.01416
2.29	3.7262
2.2905	3.12195
2.291	3.32336
2.2915	5.63965
2.292	-1.00708
2.2925	2.21558
2.293	-1.40991
2.2935	2.01416
2.294	8.05664
2.2945	4.73328
2.295	9.86938
2.2955	11.88354
2.296	8.35876
2.2965	11.2793
2.297	6.3446
2.2975	5.94177
2.298	-0.10071
2.2985	4.93469
2.299	0.80566
2.2995	2.5177
2.3	8.7616
2.3005	4.22974
2.301	5.84106
2.3015	2.41699
2.302	4.53186
2.3025	5.13611
2.303	0.80566
2.3035	-0.10071
2.304	-1.61133
2.3045	2.5177
2.305	8.15735
2.3055	6.94885
2.306	4.83398
2.3065	5.13611
2.307	4.02832
2.3075	1.71204
2.308	7.04956
2.3085	4.33044
2.309	6.04248
2.3095	3.12195
2.31	1.81274
2.3105	1.71204
2.311	6.94885
2.3115	4.53186
2.312	0.90637
2.3125	0.70496
2.313	-3.92761
2.3135	6.2439
2.314	8.35876
2.3145	5.84106
2.315	5.74036
2.3155	9.26514
2.316	13.09204
2.3165	13.59558
2.317	7.45239
2.3175	8.25806
2.318	5.84106
2.3185	11.07788
2.319	10.17151
2.3195	8.7616
2.32	8.66089
2.3205	14.19983
2.321	5.13611
2.3215	3.8269
2.322	2.31628
2.3225	-6.94885
2.323	-7.85522
2.3235	0
2.324	1.61133
2.3245	-0.10071
2.325	-1.2085
2.3255	0.50354
2.326	5.33752
2.3265	2.71912
2.327	6.2439
2.3275	5.94177
2.328	4.02832
2.3285	5.84106
2.329	5.33752
2.3295	-0.60425
2.33	3.42407
2.3305	5.13611
2.331	5.13611
2.3315	0.40283
2.332	6.04248
2.3325	0.60425
2.333	-2.71912
2.3335	6.54602
2.334	7.15027
2.3345	4.43115
2.335	2.31628
2.3355	5.23682
2.336	5.0354
2.3365	2.5177
2.337	6.74744
2.3375	4.73328
2.338	2.11487
2.3385	4.12903
2.339	3.8269
2.3395	1.71204
2.34	0.50354
2.3405	3.92761
2.341	0.60425
2.3415	3.42407
2.342	5.43823
2.3425	8.05664
2.343	2.92053
2.3435	6.2439
2.344	9.97009
2.3445	6.3446
2.345	8.66089
2.3455	6.54602
2.346	4.63257
2.3465	2.61841
2.347	1.81274
2.3475	6.54602
2.348	9.26514
2.3485	6.3446
2.349	6.94885
2.3495	5.74036
2.35	9.26514
2.3505	6.64673
2.351	7.35168
2.3515	13.797
2.352	4.43115
2.3525	5.43823
2.353	4.33044
2.3535	11.98425
2.354	8.96301
2.3545	6.44531
2.355	5.53894
2.3555	0.70496
2.356	4.02832
2.3565	3.52478
2.357	2.81982
2.3575	3.62549
2.358	-1.91345
2.3585	-2.5177
2.359	7.35168
2.3595	1.40991
2.36	1.3092
2.3605	4.22974
2.361	3.8269
2.3615	2.01416
2.362	5.74036
2.3625	4.33044
2.363	-1.10779
2.3635	2.21558
2.364	5.74036
2.3645	7.25098
2.365	5.33752
2.3655	6.64673
2.366	0.90637
2.3665	2.5177
2.367	5.94177
2.3675	6.2439
2.368	6.2439
2.3685	3.12195
2.369	5.43823
2.3695	-1.3092
2.37	1.91345
2.3705	0.70496
2.371	2.81982
2.3715	4.73328
2.372	4.53186
2.3725	9.56726
2.373	6.3446
2.3735	13.89771
2.374	6.54602
2.3745	8.66089
2.375	14.50195
2.3755	6.44531
2.376	6.54602
2.3765	9.56726
2.377	9.56726
2.3775	8.35876
2.378	10.57434
2.3785	6.54602
2.379	5.94177
2.3795	3.02124
2.38	-3.62549
2.3805	1.2085
2.381	2.31628
2.3815	6.04248
2.382	2.61841
2.3825	2.92053
2.383	-5.74036
2.3835	0.50354
2.384	0.40283
2.3845	5.0354
2.385	5.94177
2.3855	3.62549
2.386	7.65381
2.3865	4.33044
2.387	2.11487
2.3875	5.43823
2.388	5.43823
2.3885	8.15735
2.389	7.95593
2.3895	-1.00708
2.39	3.02124
2.3905	4.93469
2.391	4.02832
2.3915	-0.40283
2.392	-0.90637
2.3925	4.83398
2.393	-3.92761
2.3935	5.43823
2.394	10.97717
2.3945	7.15027
2.395	6.74744
2.3955	4.02832
2.396	4.02832
2.3965	1.91345
2.397	6.04248
2.3975	5.63965
2.398	2.5177
2.3985	2.71912
2.399	3.32336
2.3995	0.50354
2.4	7.85522
2.4005	2.81982
2.401	7.5531
2.4015	4.53186
2.402	4.22974
2.4025	7.5531
2.403	5.43823
2.4035	5.94177
2.404	9.36584
2.4045	4.33044
2.405	8.45947
2.4055	7.85522
2.406	5.43823
2.4065	4.02832
2.407	1.2085
2.4075	-1.10779
2.408	2.01416
2.4085	4.43115
2.409	0.20142
2.4095	3.12195
2.41	0.90637
2.4105	-0.50354
2.411	-2.01416
2.4115	3.12195
2.412	0.10071
2.4125	-4.22974
2.413	0.40283
2.4135	5.53894
2.414	5.33752
2.4145	3.02124
2.415	3.02124
2.4155	7.85522
2.416	6.44531
2.4165	1.61133
2.417	-1.10779
2.4175	4.93469
2.418	11.38
2.4185	7.35168
2.419	6.04248
2.4195	3.42407
2.42	3.8269
2.4205	4.63257
2.421	6.54602
2.4215	7.35168
2.422	9.06372
2.4225	7.95593
2.423	-0.30212
2.4235	-0.10071
2.424	1.71204
2.4245	2.61841
2.425	5.53894
2.4255	3.62549
2.426	6.3446
2.4265	7.15027
2.427	6.84814
2.4275	7.35168
2.428	8.8623
2.4285	7.25098
2.429	6.84814
2.4295	2.92053
2.43	4.93469
2.4305	2.41699
2.431	5.23682
2.4315	5.43823
2.432	6.64673
2.4325	5.94177
2.433	-1.71204
2.4335	-2.61841
2.434	5.23682
2.4345	3.02124
2.435	4.22974
2.4355	5.43823
2.436	9.86938
2.4365	3.92761
2.437	3.7262
2.4375	3.12195
2.438	2.31628
2.4385	4.33044
2.439	6.2439
2.4395	4.33044
2.44	9.66797
2.4405	4.93469
2.441	2.71912
2.4415	3.8269
2.442	9.06372
2.4425	5.63965
2.443	-0.60425
2.4435	5.23682
2.444	1.10779
2.4445	5.74036
2.445	3.62549
2.4455	4.63257
2.446	5.94177
2.4465	7.04956
2.447	9.86938
2.4475	8.45947
2.448	12.99133
2.4485	11.2793
2.449	7.25098
2.4495	5.94177
2.45	4.02832
2.4505	2.41699
2.451	5.53894
2.4515	8.45947
2.452	5.23682
2.4525	3.92761
2.453	3.02124
2.4535	1.00708
2.454	3.32336
2.4545	12.48779
2.455	-0.90637
2.4555	2.71912
2.456	4.93469
2.4565	3.42407
2.457	3.52478
2.4575	6.3446
2.458	7.65381
2.4585	9.56726
2.459	5.63965
2.4595	10.27222
2.46	8.8623
2.4605	10.67505
2.461	6.2439
2.4615	5.43823
2.462	1.81274
2.4625	6.44531
2.463	-2.61841
2.4635	6.44531
2.464	2.31628
2.4645	1.81274
2.465	2.11487
2.4655	8.35876
2.466	1.2085
2.4665	-0.40283
2.467	4.33044
2.4675	7.5531
2.468	7.35168
2.4685	8.45947
2.469	1.81274
2.4695	6.74744
2.47	4.53186
2.4705	9.16443
2.471	6.14319
2.4715	8.56018
2.472	1.71204
2.4725	5.0354
2.473	-0.90637
2.4735	8.56018
2.474	12.5885
2.4745	3.12195
2.475	2.5177
2.4755	5.13611
2.476	1.81274
2.4765	6.44531
2.477	11.38
2.4775	6.54602
2.478	7.95593
2.4785	11.17859
2.479	8.96301
2.4795	8.25806
2.48	15.60974
2.4805	8.66089
2.481	10.77576
2.4815	4.22974
2.482	5.0354
2.4825	4.33044
2.483	3.62549
2.4835	6.2439
2.484	8.15735
2.4845	9.56726
2.485	8.96301
2.4855	4.83398
2.486	4.83398
2.4865	-0.30212
2.487	-1.51062
2.4875	-0.70496
2.488	3.02124
2.4885	10.37292
2.489	6.2439
2.4895	8.8623
2.49	8.05664
2.4905	-0.50354
2.491	9.16443
2.4915	4.33044
2.492	5.63965
2.4925	7.45239
2.493	-0.50354
2.4935	6.2439
2.494	7.85522
2.4945	9.26514
2.495	8.96301
2.4955	7.65381
2.496	5.53894
2.4965	9.46655
2.497	8.56018
2.4975	10.87646
2.498	8.96301
2.4985	6.54602
2.499	3.02124
2.4995	9.97009
2.5	15.00549
2.5005	7.95593
2.501	8.05664
2.5015	5.43823
2.502	9.76868
2.5025	12.48779
2.503	-0.90637
2.5035	10.47363
2.504	9.16443
2.5045	9.06372
2.505	13.19275
2.5055	13.19275
2.506	15.00549
2.5065	12.48779
2.507	11.98425
2.5075	5.74036
2.508	7.95593
2.5085	8.7616
2.509	5.94177
2.5095	6.64673
2.51	5.33752
2.5105	7.5531
2.511	8.05664
2.5115	7.85522
2.512	9.46655
2.5125	7.95593
2.513	-3.7262
2.5135	-0.70496
2.514	8.05664
2.5145	9.86938
2.515	9.76868
2.5155	9.46655
2.516	5.63965
2.5165	8.7616
2.517	10.47363
2.5175	0.90637
2.518	5.33752
2.5185	6.54602
2.519	7.85522
2.5195	4.53186
2.52	10.0708
2.5205	17.32178
2.521	9.76868
2.5215	8.35876
2.522	2.71912
2.5225	11.2793
2.523	6.74744
2.5235	6.2439
2.524	8.56018
2.5245	9.86938
2.525	8.35876
2.5255	6.94885
2.526	14.90479
2.5265	15.20691
2.527	9.86938
2.5275	6.2439
2.528	8.7616
2.5285	3.62549
2.529	3.42407
2.5295	-1.2085
2.53	5.43823
2.5305	0.70496
2.531	4.33044
2.5315	3.22266
2.532	6.14319
2.5325	5.43823
2.533	0.80566
2.5335	4.73328
2.534	2.41699
2.5345	4.63257
2.535	3.7262
2.5355	8.96301
2.536	6.74744
2.5365	6.64673
2.537	3.02124
2.5375	3.62549
2.538	5.63965
2.5385	5.43823
2.539	6.84814
2.5395	8.96301
2.54	9.76868
2.5405	4.73328
2.541	5.63965
2.5415	-1.61133
2.542	-0.90637
2.5425	4.43115
2.543	0.70496
2.5435	3.52478
2.544	1.51062
2.5445	0.90637
2.545	0.90637
2.5455	4.83398
2.546	7.04956
2.5465	1.2085
2.547	1.51062
2.5475	3.62549
2.548	3.7262
2.5485	5.33752
2.549	5.43823
2.5495	13.89771
2.55	8.25806
2.5505	6.14319
2.551	3.8269
2.5515	3.22266
2.552	5.0354
2.5525	-0.20142
2.553	-1.61133
2.5535	1.61133
2.554	3.22266
2.5545	4.33044
2.555	5.84106
2.5555	5.74036
2.556	1.91345
2.5565	9.97009
2.557	8.25806
2.5575	4.63257
2.558	4.43115
2.5585	11.68213
2.559	6.04248
2.5595	2.92053
2.56	6.84814
2.5605	2.81982
2.561	4.83398
2.5615	3.7262
2.562	4.02832
2.5625	3.42407
2.563	-3.22266
2.5635	3.62549
2.564	1.81274
2.5645	3.92761
2.565	0.40283
2.5655	5.0354
2.566	8.25806
2.5665	3.12195
2.567	7.95593
2.5675	9.46655
2.568	9.76868
2.5685	4.02832
2.569	16.81824
2.5695	10.27222
2.57	7.5531
2.5705	10.97717
2.571	3.02124
2.5715	5.33752
2.572	3.12195
2.5725	5.74036
2.573	3.32336
2.5735	9.86938
2.574	4.93469
2.5745	4.93469
2.575	-0.70496
2.5755	-0.70496
2.576	1.10779
2.5765	1.61133
2.577	5.13611
2.5775	8.15735
2.578	6.94885
2.5785	9.46655
2.579	4.63257
2.5795	7.04956
2.58	9.66797
2.5805	17.42249
2.581	12.18567
2.5815	14.19983
2.582	14.60266
2.5825	10.97717
2.583	2.5177
2.5835	11.17859
2.584	6.14319
2.5845	1.40991
2.585	-1.3092
2.5855	0.30212
2.586	-1.00708
2.5865	-0.40283
2.587	0.20142
2.5875	4.83398
2.588	-1.51062
2.5885	4.43115
2.589	0.90637
2.5895	1.00708
2.59	1.51062
2.5905	2.21558
2.591	2.61841
2.5915	5.43823
2.592	5.33752
2.5925	3.32336
2.593	-1.40991
2.5935	2.41699
2.594	-1.3092
2.5945	2.21558
2.595	5.94177
2.5955	-1.40991
2.596	3.22266
2.5965	3.12195
2.597	2.41699
2.5975	6.74744
2.598	3.8269
2.5985	4.33044
2.599	5.0354
2.5995	4.43115
2.6	3.32336
2.6005	2.71912
2.601	-0.50354
2.6015	4.12903
2.602	-0.80566
2.6025	3.22266
2.603	-0.50354
2.6035	-2.5177
2.604	-1.2085
2.6045	6.54602
2.605	6.2439
2.6055	11.88354
2.606	10.27222
2.6065	7.85522
2.607	10.97717
2.6075	12.38708
2.608	9.16443
2.6085	8.35876
2.609	9.26514
2.6095	8.05664
2.61	7.85522
2.6105	6.54602
2.611	7.35168
2.6115	2.92053
2.612	8.35876
2.6125	6.54602
2.613	6.54602
2.6135	4.12903
2.614	6.84814
2.6145	5.63965
2.615	7.04956
2.6155	11.17859
2.616	15.60974
2.6165	11.2793
2.617	11.88354
2.6175	5.0354
2.618	6.94885
2.6185	6.3446
2.619	0.30212
2.6195	-0.10071
2.62	4.33044
2.6205	8.25806
2.621	2.61841
2.6215	5.63965
2.622	6.94885
2.6225	11.48071
2.623	-1.10779
2.6235	6.04248
2.624	6.14319
2.6245	8.35876
2.625	13.19275
2.6255	13.29346
2.626	5.63965
2.6265	10.37292
2.627	2.92053
2.6275	3.7262
2.628	2.01416
2.6285	-1.81274
2.629	2.92053
2.6295	5.33752
2.63	5.33752
2.6305	6.3446
2.631	3.02124
2.6315	3.02124
2.632	11.17859
2.6325	9.86938
2.633	7.95593
2.6335	11.78284
2.634	10.57434
2.6345	15.30762
2.635	11.38
2.6355	8.05664
2.636	9.86938
2.6365	5.33752
2.637	5.74036
2.6375	7.15027
2.638	5.84106
2.6385	-0.10071
2.639	6.54602
2.6395	-1.51062
2.64	-1.81274
2.6405	2.01416
2.641	4.43115
2.6415	7.5531
2.642	9.66797
2.6425	2.5177
2.643	5.94177
2.6435	7.95593
2.644	0.90637
2.6445	3.8269
2.645	3.22266
2.6455	6.44531
2.646	5.33752
2.6465	12.08496
2.647	6.44531
2.6475	6.04248
2.648	-0.40283
2.6485	6.74744
2.649	1.40991
2.6495	3.32336
2.65	5.23682
2.6505	11.17859
2.651	8.35876
2.6515	5.63965
2.652	7.45239
2.6525	1.51062
2.653	-6.54602
2.6535	0.80566
2.654	-3.7262
2.6545	3.92761
2.655	0.90637
2.6555	2.71912
2.656	4.22974
2.6565	8.7616
2.657	10.37292
2.6575	11.48071
2.658	16.41541
2.6585	14.50195
2.659	18.42957
2.6595	14.40125
2.66	13.69629
2.6605	19.53735
2.661	16.91895
2.6615	13.39417
2.662	7.25098
2.6625	8.35876
2.663	0.40283
2.6635	-0.50354
2.664	-3.32336
2.6645	-1.10779
2.665	-0.80566
2.6655	-3.8269
2.666	-2.71912
2.6665	-0.80566
2.667	5.43823
2.6675	4.73328
2.668	2.92053
2.6685	3.7262
2.669	7.75452
2.6695	10.17151
2.67	6.3446
2.6705	8.96301
2.671	6.84814
2.6715	7.15027
2.672	10.47363
2.6725	8.15735
2.673	-3.22266
2.6735	10.0708
2.674	7.75452
2.6745	8.25806
2.675	3.8269
2.6755	3.12195
2.676	3.52478
2.6765	3.22266
2.677	5.53894
2.6775	7.15027
2.678	6.84814
2.6785	4.93469
2.679	1.2085
2.6795	4.02832
2.68	5.94177
2.6805	4.02832
2.681	4.22974
2.6815	-3.62549
2.682	2.31628
2.6825	1.61133
2.683	-7.85522
2.6835	-2.81982
2.684	2.92053
2.6845	3.12195
2.685	5.63965
2.6855	9.46655
2.686	3.52478
2.6865	5.74036
2.687	5.33752
2.6875	1.2085
2.688	5.53894
2.6885	7.35168
2.689	10.47363
2.6895	5.74036
2.69	6.04248
2.6905	7.15027
2.691	8.05664
2.6915	4.63257
2.692	4.33044
2.6925	5.13611
2.693	5.63965
2.6935	9.76868
2.694	7.35168
2.6945	7.95593
2.695	9.26514
2.6955	4.73328
2.696	5.23682
2.6965	10.0708
2.697	12.28638
2.6975	4.43115
2.698	1.40991
2.6985	4.33044
2.699	5.13611
2.6995	-0.40283
2.7	0.80566
2.7005	1.61133
2.701	5.74036
2.7015	2.5177
2.702	1.3092
2.7025	3.8269
2.703	-0.90637
2.7035	7.25098
2.704	10.27222
2.7045	3.42407
2.705	3.8269
2.7055	3.52478
2.706	4.33044
2.7065	5.53894
2.707	1.71204
2.7075	2.71912
2.708	-0.90637
2.7085	-3.42407
2.709	-6.44531
2.7095	-3.7262
2.71	1.40991
2.7105	3.32336
2.711	0.90637
2.7115	5.84106
2.712	6.3446
2.7125	5.23682
2.713	0.80566
2.7135	7.65381
2.714	7.65381
2.7145	7.65381
2.715	9.26514
2.7155	13.19275
2.716	15.40833
2.7165	18.22815
2.717	17.32178
2.7175	10.67505
2.718	18.42957
2.7185	10.97717
2.719	8.05664
2.7195	9.16443
2.72	4.02832
2.7205	5.23682
2.721	3.42407
2.7215	-1.2085
2.722	0.10071
2.7225	5.43823
2.723	-0.90637
2.7235	4.43115
2.724	3.02124
2.7245	1.3092
2.725	-5.84106
2.7255	-5.74036
2.726	-10.67505
2.7265	-12.99133
2.727	-9.76868
2.7275	1.2085
2.728	6.04248
2.7285	15.50903
2.729	20.34302
2.7295	13.99841
2.73	11.58142
2.7305	14.40125
2.731	10.27222
2.7315	7.75452
2.732	5.63965
2.7325	1.00708
2.733	-2.01416
2.7335	3.32336
2.734	1.00708
2.7345	3.7262
2.735	7.15027
2.7355	5.74036
2.736	-1.81274
2.7365	2.61841
2.737	-1.00708
2.7375	-2.92053
2.738	-3.8269
2.7385	3.42407
2.739	3.62549
2.7395	2.11487
2.74	8.15735
2.7405	5.53894
2.741	7.95593
2.7415	9.26514
2.742	7.95593
2.7425	9.06372
2.743	-1.10779
2.7435	-0.70496
2.744	5.43823
2.7445	3.7262
2.745	1.40991
2.7455	0.90637
2.746	0.80566
2.7465	-1.91345
2.747	2.61841
2.7475	-2.5177
2.748	-0.30212
2.7485	1.40991
2.749	0.40283
2.7495	3.02124
2.75	2.41699
2.7505	6.3446
2.751	3.22266
2.7515	-0.40283
2.752	-1.61133
2.7525	-1.40991
2.753	-9.06372
2.7535	-6.14319
2.754	-8.25806
2.7545	-6.84814
2.755	0.30212
2.7555	5.63965
2.756	6.04248
2.7565	8.05664
2.757	14.09912
2.7575	12.38708
2.758	9.16443
2.7585	7.15027
2.759	1.10779
2.7595	2.92053
2.76	2.41699
2.7605	3.22266
2.761	0.40283
2.7615	0.70496
2.762	2.81982
2.7625	-3.92761
2.763	-3.42407
2.7635	3.92761
2.764	4.43115
2.7645	5.43823
2.765	6.54602
2.7655	3.7262
2.766	5.94177
2.7665	13.09204
2.767	14.30054
2.7675	12.68921
2.768	13.99841
2.7685	18.73169
2.769	27.99683
2.7695	28.29895
2.77	19.13452
2.7705	12.28638
2.771	12.68921
2.7715	2.5177
2.772	8.25806
2.7725	11.38
2.773	-1.3092
2.7735	1.40991
2.774	3.12195
2.7745	3.7262
2.775	-0.50354
2.7755	0.70496
2.776	1.91345
2.7765	4.93469
2.777	3.7262
2.7775	5.74036
2.778	3.42407
2.7785	3.12195
2.779	1.81274
2.7795	4.63257
2.78	2.92053
2.7805	9.66797
2.781	13.69629
2.7815	14.50195
2.782	16.3147
2.7825	10.97717
2.783	-1.10779
2.7835	0
2.784	-0.40283
2.7845	2.5177
2.785	1.71204
2.7855	6.3446
2.786	-1.10779
2.7865	2.21558
2.787	-0.80566
2.7875	-0.90637
2.788	3.02124
2.7885	4.22974
2.789	-0.40283
2.7895	-3.8269
2.79	-1.40991
2.7905	-0.80566
2.791	3.62549
2.7915	-0.60425
2.792	-1.91345
2.7925	-4.93469
2.793	-7.25098
2.7935	1.3092
2.794	3.52478
2.7945	-0.20142
2.795	-0.30212
2.7955	-0.40283
2.796	-7.25098
2.7965	-3.62549
2.797	-3.8269
2.7975	-6.3446
2.798	-8.05664
2.7985	-5.33752
2.799	1.3092
2.7995	4.33044
2.8	5.23682
2.8005	4.33044
2.801	7.45239
2.8015	6.2439
2.802	5.84106
2.8025	6.2439
2.803	-5.63965
2.8035	5.33752
2.804	8.7616
2.8045	9.36584
2.805	0.10071
2.8055	2.01416
2.806	0.40283
2.8065	1.2085
2.807	0.80566
2.8075	8.45947
2.808	11.58142
2.8085	7.5531
2.809	8.66089
2.8095	6.84814
2.81	6.74744
2.8105	4.33044
2.811	2.41699
2.8115	6.44531
2.812	2.41699
2.8125	2.21558
2.813	-9.56726
2.8135	1.61133
2.814	4.02832
2.8145	8.56018
2.815	5.74036
2.8155	10.0708
2.816	12.68921
2.8165	12.38708
2.817	13.89771
2.8175	16.01257
2.818	13.99841
2.8185	4.93469
2.819	12.78992
2.8195	13.19275
2.82	5.33752
2.8205	9.66797
2.821	9.86938
2.8215	5.63965
2.822	4.93469
2.8225	-3.42407
2.823	-2.81982
2.8235	1.10779
2.824	3.92761
2.8245	3.32336
2.825	5.53894
2.8255	1.61133
2.826	0.10071
2.8265	5.43823
2.827	12.99133
2.8275	10.77576
2.828	5.53894
2.8285	7.35168
2.829	7.25098
2.8295	1.91345
2.83	1.71204
2.8305	-0.30212
2.831	1.3092
2.8315	-8.8623
2.832	-1.61133
2.8325	1.40991
2.833	-2.61841
2.8335	-1.91345
2.834	1.40991
2.8345	0.30212
2.835	-0.50354
2.8355	-0.20142
2.836	3.22266
2.8365	1.3092
2.837	7.95593
2.8375	9.46655
2.838	10.17151
2.8385	8.25806
2.839	10.87646
2.8395	6.74744
2.84	3.92761
2.8405	4.53186
2.841	4.22974
2.8415	3.52478
2.842	6.04248
2.8425	9.46655
2.843	-1.91345
2.8435	3.22266
2.844	2.92053
2.8445	1.61133
2.845	3.62549
2.8455	1.10779
2.846	4.73328
2.8465	8.15735
2.847	12.78992
2.8475	10.47363
2.848	9.26514
2.8485	4.33044
2.849	1.91345
2.8495	0.30212
2.85	-3.42407
2.8505	2.71912
2.851	0.90637
2.8515	-0.20142
2.852	-0.20142
2.8525	-5.0354
2.853	-3.22266
2.8535	2.41699
2.854	8.15735
2.8545	10.77576
2.855	10.27222
2.8555	2.31628
2.856	4.22974
2.8565	9.97009
2.857	8.35876
2.8575	1.81274
2.858	-2.61841
2.8585	5.94177
2.859	-3.62549
2.8595	1.91345
2.86	13.49487
2.8605	17.82532
2.861	17.22107
2.8615	8.35876
2.862	10.97717
2.8625	3.92761
2.863	-4.63257
2.8635	0
2.864	2.11487
2.8645	-6.2439
2.865	-5.0354
2.8655	-0.10071
2.866	7.45239
2.8665	10.67505
2.867	4.63257
2.8675	11.2793
2.868	1.3092
2.8685	-3.92761
2.869	-6.3446
2.8695	-7.15027
2.87	-2.5177
2.8705	-2.31628
2.871	2.01416
2.8715	6.54602
2.872	1.00708
2.8725	0.60425
2.873	-6.64673
2.8735	-0.90637
2.874	2.41699
2.8745	3.32336
2.875	7.25098
2.8755	14.30054
2.876	25.98267
2.8765	32.12585
2.877	25.47913
2.8775	19.13452
2.878	13.99841
2.8785	6.84814
2.879	6.04248
2.8795	8.66089
2.88	5.94177
2.8805	8.96301
2.881	7.35168
2.8815	9.26514
2.882	6.84814
2.8825	10.27222
2.883	-0.20142
2.8835	7.35168
2.884	7.5531
2.8845	7.85522
2.885	8.96301
2.8855	8.05664
2.886	3.8269
2.8865	10.77576
2.887	11.07788
2.8875	6.3446
2.888	6.94885
2.8885	-3.12195
2.889	1.40991
2.8895	-3.52478
2.89	-1.00708
2.8905	8.45947
2.891	12.78992
2.8915	16.81824
2.892	13.59558
2.8925	11.2793
2.893	1.51062
2.8935	5.84106
2.894	3.52478
2.8945	3.7262
2.895	7.35168
2.8955	4.12903
2.896	5.74036
2.8965	2.11487
2.897	2.61841
2.8975	2.5177
2.898	9.06372
2.8985	16.81824
2.899	13.797
2.8995	3.7262
2.9	3.22266
2.9005	1.91345
2.901	4.93469
2.9015	5.33752
2.902	9.56726
2.9025	3.12195
2.903	1.81274
2.9035	2.31628
2.904	5.23682
2.9045	3.7262
2.905	3.62549
2.9055	2.21558
2.906	-4.73328
2.9065	0
2.907	7.45239
2.9075	4.63257
2.908	6.84814
2.9085	3.7262
2.909	4.93469
2.9095	11.48071
2.91	16.3147
2.9105	10.77576
2.911	13.59558
2.9115	11.78284
2.912	7.95593
2.9125	7.04956
2.913	6.84814
2.9135	6.2439
2.914	9.97009
2.9145	2.71912
2.915	4.53186
2.9155	2.71912
2.916	5.63965
2.9165	12.5885
2.917	12.89062
2.9175	6.94885
2.918	9.36584
2.9185	3.12195
2.919	8.7616
2.9195	4.12903
2.92	9.76868
2.9205	6.44531
2.921	-0.90637
2.9215	-3.12195
2.922	3.12195
2.9225	5.74036
2.923	-3.62549
2.9235	5.33752
2.924	7.04956
2.9245	3.32336
2.925	4.93469
2.9255	4.33044
2.926	2.92053
2.9265	0.50354
2.927	4.02832
2.9275	9.86938
2.928	6.14319
2.9285	1.81274
2.929	-1.91345
2.9295	1.91345
2.93	1.91345
2.9305	8.35876
2.931	3.02124
2.9315	5.13611
2.932	6.84814
2.9325	11.88354
2.933	3.42407
2.9335	13.797
2.934	6.2439
2.9345	15.30762
2.935	13.797
2.9355	15.60974
2.936	17.22107
2.9365	9.46655
2.937	7.85522
2.9375	1.00708
2.938	5.0354
2.9385	8.66089
2.939	6.14319
2.9395	2.5177
2.94	2.41699
2.9405	9.26514
2.941	12.5885
2.9415	13.69629
2.942	12.68921
2.9425	12.08496
2.943	3.92761
2.9435	-0.40283
2.944	2.5177
2.9445	3.7262
2.945	-1.10779
2.9455	3.62549
2.946	3.22266
2.9465	4.12903
2.947	6.44531
2.9475	0.10071
2.948	8.7616
2.9485	-0.20142
2.949	7.65381
2.9495	8.8623
2.95	8.05664
2.9505	7.45239
2.951	5.33752
2.9515	7.25098
2.952	3.32336
2.9525	2.81982
2.953	-1.2085
2.9535	4.73328
2.954	7.04956
2.9545	8.45947
2.955	6.74744
2.9555	10.87646
2.956	15.81116
2.9565	10.77576
2.957	13.29346
2.9575	7.15027
2.958	6.94885
2.9585	10.17151
2.959	9.56726
2.9595	11.48071
2.96	8.8623
2.9605	12.5885
2.961	19.23523
2.9615	9.97009
2.962	16.81824
2.9625	14.40125
2.963	1.51062
2.9635	12.08496
2.964	12.48779
2.9645	9.76868
2.965	9.56726
2.9655	10.37292
2.966	9.97009
2.9665	11.98425
2.967	6.2439
2.9675	-0.30212
2.968	4.73328
2.9685	3.92761
2.969	3.32336
2.9695	4.22974
2.97	5.84106
2.9705	8.25806
2.971	6.64673
2.9715	5.23682
2.972	3.92761
2.9725	5.84106
2.973	-0.60425
2.9735	7.85522
2.974	10.17151
2.9745	11.78284
2.975	17.6239
2.9755	18.22815
2.976	12.99133
2.9765	15.1062
2.977	9.56726
2.9775	5.43823
2.978	3.42407
2.9785	10.77576
2.979	12.99133
2.9795	11.88354
2.98	7.5531
2.9805	-2.21558
2.981	-8.45947
2.9815	-7.15027
2.982	-5.23682
2.9825	-1.91345
2.983	-6.44531
2.9835	-3.92761
2.984	9.76868
2.9845	10.57434
2.985	8.05664
2.9855	5.74036
2.986	8.56018
2.9865	7.95593
2.987	5.53894
2.9875	8.66089
2.988	10.77576
2.9885	16.41541
2.989	19.73877
2.9895	17.22107
2.99	15.81116
2.9905	17.12036
2.991	15.71045
2.9915	14.70337
2.992	15.60974
2.9925	17.12036
2.993	13.797
2.9935	14.30054
2.994	13.69629
2.9945	13.49487
2.995	13.49487
2.9955	11.58142
2.996	12.89062
2.9965	10.47363
2.997	9.16443
2.9975	10.47363
2.998	9.06372
2.9985	12.5885
2.999	12.78992
2.9995	10.17151
3	12.08496
3.0005	12.99133
3.001	14.70337
3.0015	13.09204
3.002	12.38708
3.0025	10.37292
3.003	-0.30212
3.0035	8.56018
3.004	10.87646
3.0045	7.35168
3.005	5.53894
3.0055	5.43823
3.006	10.77576
3.0065	9.97009
3.007	12.68921
3.0075	10.97717
3.008	11.98425
3.0085	11.07788
3.009	11.98425
3.0095	7.75452
3.01	8.8623
3.0105	8.66089
3.011	7.25098
3.0115	7.95593
3.012	10.97717
3.0125	12.48779
3.013	3.8269
3.0135	6.3446
3.014	9.26514
3.0145	10.47363
3.015	4.43115
3.0155	12.08496
3.016	9.97009
3.0165	3.12195
3.017	4.73328
3.0175	4.73328
3.018	4.12903
3.0185	8.45947
3.019	9.16443
3.0195	12.38708
3.02	12.18567
3.0205	8.15735
3.021	13.09204
3.0215	7.75452
3.022	10.47363
3.0225	9.86938
3.023	-1.61133
3.0235	7.85522
3.024	4.12903
3.0245	3.22266
3.025	3.7262
3.0255	5.33752
3.026	6.84814
3.0265	10.37292
3.027	12.18567
3.0275	13.59558
3.028	15.50903
3.0285	15.20691
3.029	13.49487
3.0295	9.76868
3.03	10.67505
3.0305	9.56726
3.031	13.69629
3.0315	9.97009
3.032	10.87646
3.0325	6.14319
3.033	3.62549
3.0335	8.45947
3.034	8.96301
3.0345	10.57434
3.035	15.00549
3.0355	12.48779
3.036	8.7616
3.0365	7.25098
3.037	9.26514
3.0375	8.96301
3.038	8.8623
3.0385	10.57434
3.039	13.09204
3.0395	11.58142
3.04	9.46655
3.0405	11.78284
3.041	9.16443
3.0415	13.19275
3.042	9.06372
3.0425	9.16443
3.043	0.30212
3.0435	8.15735
3.044	10.87646
3.0445	5.13611
3.045	6.64673
3.0455	13.39417
3.046	10.97717
3.0465	10.17151
3.047	11.07788
3.0475	6.94885
3.048	10.47363
3.0485	8.7616
3.049	11.07788
3.0495	9.16443
3.05	5.13611
3.0505	8.15735
3.051	7.85522
3.0515	1.71204
3.052	5.33752
3.0525	10.0708
3.053	4.83398
3.0535	5.13611
3.054	9.56726
3.0545	6.44531
3.055	7.25098
3.0555	5.84106
3.056	9.56726
3.0565	10.87646
3.057	14.80408
3.0575	11.17859
3.058	13.19275
3.0585	14.70337
3.059	12.78992
3.0595	14.50195
3.06	16.21399
3.0605	14.50195
3.061	17.6239
3.0615	17.52319
3.062	9.16443
3.0625	7.35168
3.063	-4.43115
3.0635	5.13611
3.064	7.5531
3.0645	10.17151
3.065	20.44373
3.0655	10.87646
3.066	15.71045
3.0665	17.6239
3.067	12.99133
3.0675	12.68921
3.068	11.78284
3.0685	9.76868
3.069	10.17151
3.0695	4.93469
3.07	7.95593
3.0705	6.3446
3.071	12.89062
3.0715	5.33752
3.072	9.06372
3.0725	7.5531
3.073	1.91345
3.0735	7.15027
3.074	9.66797
3.0745	7.15027
3.075	7.45239
3.0755	6.04248
3.076	5.53894
3.0765	7.15027
3.077	8.66089
3.0775	9.46655
3.078	11.17859
3.0785	11.2793
3.079	6.14319
3.0795	5.23682
3.08	9.06372
3.0805	7.25098
3.081	5.94177
3.0815	10.47363
3.082	8.66089
3.0825	3.22266
3.083	5.43823
3.0835	8.8623
3.084	7.95593
3.0845	8.35876
3.085	4.73328
3.0855	2.71912
3.086	4.33044
3.0865	6.54602
3.087	4.53186
3.0875	3.22266
3.088	3.62549
3.0885	2.5177
3.089	6.3446
3.0895	9.56726
3.09	8.7616
3.0905	5.94177
3.091	6.3446
3.0915	8.7616
3.092	6.3446
3.0925	5.23682
3.093	1.40991
3.0935	4.12903
3.094	5.13611
3.0945	8.15735
3.095	7.25098
3.0955	10.67505
3.096	11.07788
3.0965	7.95593
3.097	9.36584
3.0975	12.08496
3.098	13.39417
3.0985	10.47363
3.099	9.16443
3.0995	12.48779
3.1	10.97717
3.1005	12.78992
3.101	10.27222
3.1015	8.66089
3.102	10.17151
3.1025	10.0708
3.103	4.83398
3.1035	13.69629
3.104	12.18567
3.1045	11.68213
3.105	10.47363
3.1055	10.57434
3.106	7.04956
3.1065	10.27222
3.107	15.20691
3.1075	14.19983
3.108	17.52319
3.1085	9.97009
3.109	9.26514
3.1095	9.66797
3.11	10.17151
3.1105	7.25098
3.111	6.64673
3.1115	8.25806
3.112	7.5531
3.1125	8.7616
3.113	6.04248
3.1135	14.40125
3.114	10.97717
3.1145	16.41541
3.115	12.89062
3.1155	16.41541
3.116	11.98425
3.1165	10.0708
3.117	8.25806
3.1175	11.68213
3.118	7.65381
3.1185	12.68921
3.119	13.49487
3.1195	10.77576
3.12	4.22974
3.1205	10.67505
3.121	14.09912
3.1215	11.38
3.122	14.09912
3.1225	11.07788
3.123	8.8623
3.1235	12.08496
3.124	16.21399
3.1245	9.76868
3.125	10.57434
3.1255	12.89062
3.126	11.07788
3.1265	12.99133
3.127	18.42957
3.1275	11.98425
3.128	7.95593
3.1285	9.66797
3.129	5.13611
3.1295	9.06372
3.13	10.97717
3.1305	13.89771
3.131	12.38708
3.1315	11.17859
3.132	13.99841
3.1325	16.51611
3.133	3.42407
3.1335	2.31628
3.134	8.25806
3.1345	9.06372
3.135	10.67505
3.1355	10.77576
3.136	8.45947
3.1365	7.35168
3.137	7.35168
3.1375	-1.2085
3.138	4.33044
3.1385	4.83398
3.139	4.73328
3.1395	5.74036
3.14	2.31628
3.1405	2.01416
3.141	9.86938
3.1415	17.12036
3.142	14.80408
3.1425	12.68921
3.143	11.88354
3.1435	10.77576
3.144	7.25098
3.1445	11.38
3.145	10.77576
3.1455	10.17151
3.146	14.40125
3.1465	11.17859
3.147	12.68921
3.1475	8.56018
3.148	9.46655
3.1485	10.47363
3.149	6.2439
3.1495	12.18567
3.15	9.26514
3.1505	15.00549
3.151	12.18567
3.1515	16.11328
3.152	9.86938
3.1525	16.51611
3.153	1.2085
3.1535	5.43823
3.154	4.53186
3.1545	9.56726
3.155	4.53186
3.1555	14.80408
3.156	13.19275
3.1565	13.39417
3.157	9.46655
3.1575	17.01965
3.158	8.35876
3.1585	8.66089
3.159	7.15027
3.1595	6.44531
3.16	8.15735
3.1605	11.2793
3.161	6.74744
3.1615	4.73328
3.162	10.17151
3.1625	12.89062
3.163	-0.40283
3.1635	4.53186
3.164	4.12903
3.1645	2.61841
3.165	8.15735
3.1655	13.59558
3.166	9.16443
3.1665	6.74744
3.167	8.7616
3.1675	15.00549
3.168	11.2793
3.1685	12.08496
3.169	12.18567
3.1695	12.68921
3.17	12.08496
3.1705	14.40125
3.171	13.29346
3.1715	10.57434
3.172	8.66089
3.1725	9.66797
3.173	-0.60425
3.1735	5.0354
3.174	10.0708
3.1745	12.28638
3.175	8.66089
3.1755	6.54602
3.176	6.74744
3.1765	9.56726
3.177	8.96301
3.1775	9.66797
3.178	1.71204
3.1785	0.50354
3.179	4.73328
3.1795	6.2439
3.18	5.33752
3.1805	6.2439
3.181	4.22974
3.1815	4.63257
3.182	8.96301
3.1825	10.17151
3.183	3.7262
3.1835	0.90637
3.184	10.97717
3.1845	10.27222
3.185	12.28638
3.1855	10.57434
3.186	9.36584
3.1865	3.92761
3.187	4.33044
3.1875	5.63965
3.188	6.74744
3.1885	8.35876
3.189	2.5177
3.1895	5.63965
3.19	2.5177
3.1905	5.74036
3.191	8.25806
3.1915	5.63965
3.192	6.84814
3.1925	5.53894
3.193	1.00708
3.1935	6.2439
3.194	7.25098
3.1945	6.44531
3.195	11.38
3.1955	9.06372
3.196	12.08496
3.1965	6.44531
3.197	5.13611
3.1975	6.2439
3.198	7.85522
3.1985	8.15735
3.199	7.35168
3.1995	1.40991
3.2	6.44531
3.2005	8.15735
3.201	5.53894
3.2015	10.47363
3.202	9.26514
3.2025	4.43115
3.203	6.54602
3.2035	9.76868
3.204	9.66797
3.2045	9.06372
3.205	14.50195
3.2055	7.45239
3.206	3.42407
3.2065	11.07788
3.207	7.5531
3.2075	7.5531
3.208	7.35168
3.2085	5.74036
3.209	7.35168
3.2095	3.22266
3.21	5.0354
3.2105	6.54602
3.211	3.92761
3.2115	5.23682
3.212	6.2439
3.2125	15.00549
3.213	4.93469
3.2135	11.98425
3.214	8.66089
3.2145	9.76868
3.215	12.5885
3.2155	12.08496
3.216	13.49487
3.2165	17.92603
3.217	14.30054
3.2175	16.11328
3.218	10.77576
3.2185	10.47363
3.219	9.97009
3.2195	12.18567
3.22	5.0354
3.2205	11.17859
3.221	12.68921
3.2215	9.66797
3.222	16.71753
3.2225	10.0708
3.223	3.7262
3.2235	5.23682
3.224	11.68213
3.2245	10.17151
3.225	2.61841
3.2255	4.63257
3.226	8.56018
3.2265	5.84106
3.227	6.54602
3.2275	3.02124
3.228	5.94177
3.2285	9.16443
3.229	12.18567
3.2295	7.04956
3.23	7.75452
3.2305	9.66797
3.231	7.35168
3.2315	11.07788
3.232	10.17151
3.2325	9.76868
3.233	3.22266
3.2335	5.94177
3.234	3.02124
3.2345	5.33752
3.235	6.74744
3.2355	2.01416
3.236	2.5177
3.2365	6.44531
3.237	6.84814
3.2375	7.04956
3.238	1.71204
3.2385	8.35876
3.239	6.44531
3.2395	4.22974
3.24	2.71912
3.2405	4.83398
3.241	9.46655
3.2415	5.43823
3.242	11.17859
3.2425	3.7262
3.243	1.81274
3.2435	7.04956
3.244	2.5177
3.2445	6.3446
3.245	3.32336
3.2455	0.90637
3.246	8.35876
3.2465	6.44531
3.247	5.43823
3.2475	8.66089
3.248	5.23682
3.2485	8.66089
3.249	3.92761
3.2495	6.84814
3.25	1.40991
3.2505	3.32336
3.251	0.50354
3.2515	1.3092
3.252	1.51062
3.2525	-3.92761
3.253	-0.10071
3.2535	3.7262
3.254	8.35876
3.2545	13.39417
3.255	6.14319
3.2555	12.08496
3.256	7.35168
3.2565	6.14319
3.257	8.66089
3.2575	4.02832
3.258	7.35168
3.2585	6.74744
3.259	7.15027
3.2595	5.53894
3.26	8.15735
3.2605	8.66089
3.261	4.73328
3.2615	4.93469
3.262	3.62549
3.2625	7.35168
3.263	-7.75452
3.2635	7.35168
3.264	4.43115
3.2645	4.33044
3.265	9.06372
3.2655	5.13611
3.266	8.8623
3.2665	7.5531
3.267	5.43823
3.2675	8.8623
3.268	7.5531
3.2685	5.94177
3.269	2.01416
3.2695	5.33752
3.27	9.66797
3.2705	10.37292
3.271	6.44531
3.2715	4.02832
3.272	5.84106
3.2725	3.12195
3.273	2.5177
3.2735	6.04248
3.274	9.76868
3.2745	2.92053
3.275	4.02832
3.2755	4.22974
3.276	3.7262
3.2765	1.51062
3.277	4.02832
3.2775	3.42407
3.278	6.3446
3.2785	2.81982
3.279	5.53894
3.2795	3.02124
3.28	3.8269
3.2805	11.17859
3.281	10.27222
3.2815	11.58142
3.282	9.56726
3.2825	5.33752
3.283	-2.11487
3.2835	7.75452
3.284	9.66797
3.2845	2.92053
3.285	5.43823
3.2855	7.45239
3.286	3.8269
3.2865	5.13611
3.287	10.27222
3.2875	5.13611
3.288	3.22266
3.2885	4.22974
3.289	4.02832
3.2895	2.71912
3.29	-0.20142
3.2905	4.53186
3.291	8.05664
3.2915	9.56726
3.292	5.84106
3.2925	7.85522
3.293	0.70496
3.2935	9.97009
3.294	6.44531
3.2945	8.66089
3.295	7.04956
3.2955	7.35168
3.296	9.46655
3.2965	6.54602
3.297	7.85522
3.2975	7.25098
3.298	4.53186
3.2985	6.74744
3.299	2.92053
3.2995	0.30212
3.3	5.0354
3.3005	3.32336
3.301	10.17151
3.3015	8.56018
3.302	10.17151
3.3025	4.53186
3.303	0.30212
3.3035	1.00708
3.304	4.73328
3.3045	5.84106
3.305	2.41699
3.3055	3.7262
3.306	11.88354
3.3065	3.62549
3.307	6.3446
3.3075	6.2439
3.308	6.74744
3.3085	3.42407
3.309	4.53186
3.3095	6.04248
3.31	2.21558
3.3105	1.51062
3.311	3.92761
3.3115	11.68213
3.312	5.84106
3.3125	7.15027
3.313	4.73328
3.3135	1.10779
3.314	2.31628
3.3145	9.97009
3.315	7.65381
3.3155	7.45239
3.316	9.86938
3.3165	8.45947
3.317	7.15027
3.3175	7.35168
3.318	4.12903
3.3185	7.75452
3.319	7.75452
3.3195	2.61841
3.32	5.94177
3.3205	6.54602
3.321	3.7262
3.3215	2.11487
3.322	10.77576
3.3225	7.35168
3.323	1.10779
3.3235	0.20142
3.324	0.70496
3.3245	2.21558
3.325	7.15027
3.3255	5.84106
3.326	6.04248
3.3265	5.43823
3.327	3.62549
3.3275	1.10779
3.328	7.65381
3.3285	4.12903
3.329	8.7616
3.3295	6.04248
3.33	6.3446
3.3305	12.38708
3.331	5.94177
3.3315	5.84106
3.332	2.61841
3.3325	10.0708
3.333	-2.11487
3.3335	3.52478
3.334	3.92761
3.3345	5.74036
3.335	8.96301
3.3355	8.05664
3.336	6.74744
3.3365	8.7616
3.337	6.14319
3.3375	5.13611
3.338	9.16443
3.3385	10.37292
3.339	8.56018
3.3395	11.38
3.34	2.81982
3.3405	9.97009
3.341	7.45239
3.3415	6.04248
3.342	7.15027
3.3425	0.90637
3.343	-0.70496
3.3435	4.53186
3.344	1.81274
3.3445	4.93469
3.345	12.18567
3.3455	5.0354
3.346	9.46655
3.3465	7.95593
3.347	1.91345
3.3475	5.13611
3.348	3.8269
3.3485	10.0708
3.349	10.47363
3.3495	8.45947
3.35	8.05664
3.3505	2.41699
3.351	1.3092
3.3515	5.84106
3.352	7.75452
3.3525	4.93469
3.353	-2.01416
3.3535	7.65381
3.354	5.84106
3.3545	7.75452
3.355	3.42407
3.3555	1.51062
3.356	4.93469
3.3565	8.96301
3.357	1.71204
3.3575	-0.60425
3.358	-1.40991
3.3585	2.5177
3.359	4.93469
3.3595	3.62549
3.36	7.75452
3.3605	4.22974
3.361	11.48071
3.3615	10.57434
3.362	5.53894
3.3625	8.56018
3.363	-3.52478
3.3635	-0.30212
3.364	2.92053
3.3645	2.5177
3.365	3.62549
3.3655	5.74036
3.366	8.05664
3.3665	4.63257
3.367	6.2439
3.3675	3.62549
3.368	3.7262
3.3685	5.13611
3.369	4.63257
3.3695	2.92053
3.37	4.83398
3.3705	5.23682
3.371	5.23682
3.3715	8.8623
3.372	13.29346
3.3725	10.0708
3.373	-0.90637
3.3735	9.76868
3.374	11.78284
3.3745	12.08496
3.375	5.94177
3.3755	7.35168
3.376	7.15027
3.3765	3.62549
3.377	1.2085
3.3775	0.90637
3.378	4.12903
3.3785	10.97717
3.379	11.58142
3.3795	11.17859
3.38	4.83398
3.3805	4.43115
3.381	5.84106
3.3815	0.80566
3.382	3.62549
3.3825	2.11487
3.383	-5.74036
3.3835	0.90637
3.384	8.56018
3.3845	1.81274
3.385	4.73328
3.3855	1.61133
3.386	4.02832
3.3865	1.3092
3.387	-1.00708
3.3875	3.92761
3.388	3.42407
3.3885	6.54602
3.389	2.41699
3.3895	4.33044
3.39	7.15027
3.3905	12.89062
3.391	12.78992
3.3915	4.63257
3.392	2.41699
3.3925	1.00708
3.393	-1.10779
3.3935	4.53186
3.394	1.40991
3.3945	8.96301
3.395	7.65381
3.3955	5.74036
3.396	5.0354
3.3965	-0.40283
3.397	2.01416
3.3975	4.12903
3.398	7.15027
3.3985	5.53894
3.399	2.61841
3.3995	2.01416
3.4	4.33044
3.4005	6.2439
3.401	2.5177
3.4015	1.51062
3.402	7.5531
3.4025	8.45947
3.403	3.92761
3.4035	6.74744
3.404	4.22974
3.4045	-0.70496
3.405	0.10071
3.4055	5.13611
3.406	-2.81982
3.4065	1.91345
3.407	1.91345
3.4075	10.57434
3.408	11.68213
3.4085	7.15027
3.409	0.80566
3.4095	2.92053
3.41	4.83398
3.4105	1.51062
3.411	4.93469
3.4115	0.30212
3.412	6.54602
3.4125	-0.70496
3.413	-2.92053
3.4135	4.43115
3.414	8.7616
3.4145	2.31628
3.415	4.43115
3.4155	8.96301
3.416	1.10779
3.4165	8.56018
3.417	3.22266
3.4175	5.53894
3.418	2.5177
3.4185	4.93469
3.419	7.95593
3.4195	1.51062
3.42	2.92053
3.4205	-4.12903
3.421	5.0354
3.4215	3.42407
3.422	-0.40283
3.4225	-2.61841
3.423	-2.81982
3.4235	-1.3092
3.424	2.81982
3.4245	-0.20142
3.425	-0.40283
3.4255	4.63257
3.426	3.42407
3.4265	3.32336
3.427	0.30212
3.4275	5.43823
3.428	2.81982
3.4285	3.12195
3.429	4.83398
3.4295	0.60425
3.43	0.50354
3.4305	5.43823
3.431	5.0354
3.4315	7.25098
3.432	4.53186
3.4325	2.21558
3.433	1.91345
3.4335	3.12195
3.434	4.43115
3.4345	0.90637
3.435	-1.3092
3.4355	-2.01416
3.436	0.90637
3.4365	1.71204
3.437	1.51062
3.4375	5.74036
3.438	4.22974
3.4385	2.71912
3.439	3.8269
3.4395	3.62549
3.44	2.21558
3.4405	-1.81274
3.441	2.92053
3.4415	2.11487
3.442	3.8269
3.4425	8.56018
3.443	2.31628
3.4435	7.35168
3.444	5.74036
3.4445	1.40991
3.445	10.57434
3.4455	5.23682
3.446	11.38
3.4465	6.64673
3.447	4.93469
3.4475	10.97717
3.448	5.23682
3.4485	6.94885
3.449	8.25806
3.4495	5.63965
3.45	7.65381
3.4505	8.25806
3.451	7.75452
3.4515	6.44531
3.452	4.33044
3.4525	3.62549
3.453	3.12195
3.4535	2.81982
3.454	4.63257
3.4545	7.25098
3.455	5.53894
3.4555	3.92761
3.456	5.0354
3.4565	9.06372
3.457	10.47363
3.4575	8.45947
3.458	5.94177
3.4585	1.71204
3.459	4.83398
3.4595	2.5177
3.46	7.65381
3.4605	9.36584
3.461	8.45947
3.4615	5.74036
3.462	4.53186
3.4625	7.65381
3.463	0.20142
3.4635	6.14319
3.464	7.5531
3.4645	6.54602
3.465	8.05664
3.4655	5.63965
3.466	7.35168
3.4665	6.74744
3.467	7.65381
3.4675	7.25098
3.468	10.57434
3.4685	9.26514
3.469	10.77576
3.4695	8.56018
3.47	9.26514
3.4705	9.76868
3.471	8.66089
3.4715	11.78284
3.472	4.02832
3.4725	10.0708
3.473	2.01416
3.4735	9.16443
3.474	11.48071
3.4745	6.54602
3.475	9.16443
3.4755	10.47363
3.476	3.8269
3.4765	4.43115
3.477	5.33752
3.4775	6.74744
3.478	3.62549
3.4785	9.46655
3.479	16.71753
3.4795	10.27222
3.48	1.3092
3.4805	1.2085
3.481	-0.80566
3.4815	1.51062
3.482	1.71204
3.4825	0.70496
3.483	-5.63965
3.4835	2.71912
3.484	4.53186
3.4845	4.83398
3.485	7.75452
3.4855	6.44531
3.486	9.76868
3.4865	9.36584
3.487	10.0708
3.4875	3.22266
3.488	9.46655
3.4885	9.86938
3.489	3.8269
3.4895	10.77576
3.49	4.43115
3.4905	8.05664
3.491	10.67505
3.4915	11.38
3.492	8.35876
3.4925	7.04956
3.493	0.40283
3.4935	11.98425
3.494	11.2793
3.4945	6.44531
3.495	4.02832
3.4955	2.31628
3.496	2.01416
3.4965	2.41699
3.497	4.33044
3.4975	6.14319
3.498	10.37292
3.4985	11.38
3.499	11.68213
3.4995	14.70337
3.5	14.40125
3.5005	15.81116
3.501	22.76001
3.5015	28.60107
3.502	27.99683
3.5025	34.14001
3.503	27.09045
3.5035	30.61523
3.504	29.10461
3.5045	27.89612
3.505	21.45081
3.5055	5.33752
3.506	2.41699
3.5065	-7.65381
3.507	-6.74744
3.5075	-4.93469
3.508	-11.88354
3.5085	-18.32886
3.509	-16.01257
3.5095	-17.22107
3.51	-14.40125
3.5105	-11.88354
3.511	-10.0708
3.5115	-8.96301
3.512	1.81274
3.5125	4.93469
3.513	3.62549
3.5135	13.09204
3.514	14.40125
3.5145	18.53027
3.515	12.5885
3.5155	8.7616
3.516	1.2085
3.5165	-1.51062
3.517	-4.12903
3.5175	-11.07788
3.518	-15.40833
3.5185	-21.04797
3.519	-13.69629
3.5195	-15.30762
3.52	-1.40991
3.5205	3.92761
3.521	15.00549
3.5215	23.06213
3.522	21.75293
3.5225	27.89612
3.523	25.78125
3.5235	32.62939
3.524	34.54285
3.5245	38.16833
3.525	40.88745
3.5255	42.59949
3.526	49.0448
3.5265	47.7356
3.527	50.05188
3.5275	52.771
3.528	48.23914
3.5285	46.82922
3.529	39.47754
3.5295	29.00391
3.53	12.68921
3.5305	2.61841
3.531	-17.52319
3.5315	-39.47754
3.532	-56.19507
3.5325	-67.07153
3.533	-83.18481
3.5335	-77.24304
3.534	-76.33667
3.5345	-78.35083
3.535	-72.00623
3.5355	-63.04321
3.536	-47.33276
3.5365	-39.77966
3.537	-22.96143
3.5375	-12.18567
3.538	-5.43823
3.5385	3.52478
3.539	1.40991
3.5395	2.81982
3.54	10.57434
3.5405	12.38708
3.541	18.8324
3.5415	17.42249
3.542	28.80249
3.5425	34.84497
3.543	36.95984
3.5435	52.771
3.544	56.5979
3.5445	65.05737
3.545	68.38074
3.5455	63.44604
3.546	53.47595
3.5465	43.60657
3.547	35.04639
3.5475	18.32886
3.548	10.47363
3.5485	-5.84106
3.549	-19.13452
3.5495	-40.68604
3.55	-49.0448
3.5505	-54.98657
3.551	-54.0802
3.5515	-40.08179
3.552	-32.12585
3.5525	-17.72461
3.553	-16.21399
3.5535	1.00708
3.554	4.53186
3.5545	6.94885
3.555	7.35168
3.5555	7.45239
3.556	9.26514
3.5565	6.44531
3.557	5.74036
3.5575	-2.81982
3.558	-11.38
3.5585	-14.50195
3.559	-19.33594
3.5595	-22.76001
3.56	-27.89612
3.5605	-20.44373
3.561	-21.24939
3.5615	-23.96851
3.562	-15.71045
3.5625	-12.18567
3.563	-17.92603
3.5635	-8.35876
3.564	-4.63257
3.5645	-3.22266
3.565	-1.40991
3.5655	1.2085
3.566	1.2085
3.5665	1.91345
3.567	2.61841
3.5675	7.5531
3.568	0.70496
3.5685	4.33044
3.569	6.04248
3.5695	6.94885
3.57	1.61133
3.5705	2.11487
3.571	1.40991
3.5715	5.53894
3.572	0.90637
3.5725	5.43823
3.573	0.30212
3.5735	9.26514
3.574	5.63965
3.5745	10.37292
3.575	7.35168
3.5755	12.99133
3.576	10.87646
3.5765	10.0708
3.577	19.03381
3.5775	25.98267
3.578	27.99683
3.5785	21.24939
3.579	25.88196
3.5795	26.28479
3.58	22.15576
3.5805	20.74585
3.581	14.90479
3.5815	22.35718
3.582	20.04089
3.5825	14.09912
3.583	7.5531
3.5835	13.69629
3.584	13.19275
3.5845	8.15735
3.585	6.54602
3.5855	-0.30212
3.586	0.80566
3.5865	10.27222
3.587	13.89771
3.5875	4.53186
3.588	2.5177
3.5885	8.7616
3.589	10.0708
3.5895	12.18567
3.59	10.67505
3.5905	16.41541
3.591	15.50903
3.5915	18.22815
3.592	23.46497
3.5925	28.9032
3.593	27.29187
3.5935	34.44214
3.594	47.03064
3.5945	51.36108
3.595	55.69153
3.5955	52.8717
3.596	54.38232
3.5965	49.44763
3.597	50.05188
3.5975	47.7356
3.598	43.70728
3.5985	43.80798
3.599	39.47754
3.5995	30.01099
3.6	33.03223
3.6005	32.32727
3.601	39.77966
3.6015	39.27612
3.602	37.36267
3.6025	24.27063
3.603	0.80566
3.6035	-9.06372
3.604	-22.76001
3.6045	-33.73718
3.605	-53.97949
3.6055	-66.26587
3.606	-80.66711
3.6065	-97.18323
3.607	-112.49084
3.6075	-113.90076
3.608	-111.18164
3.6085	-103.32642
3.609	-94.2627
3.6095	-82.78198
3.61	-73.11401
3.6105	-57.00073
3.611	-44.51294
3.6115	-28.09753
3.612	-10.0708
3.6125	11.48071
3.613	13.29346
3.6135	18.32886
3.614	17.82532
3.6145	19.53735
3.615	25.68054
3.6155	28.09753
3.616	33.83789
3.6165	35.2478
3.617	26.18408
3.6175	19.63806
3.618	22.6593
3.6185	16.21399
3.619	20.04089
3.6195	17.52319
3.62	15.20691
3.6205	16.71753
3.621	12.48779
3.6215	4.12903
3.622	6.84814
3.6225	-0.50354
3.623	-8.96301
3.6235	-5.94177
3.624	-3.92761
3.6245	-2.71912
3.625	1.91345
3.6255	11.17859
3.626	18.73169
3.6265	20.74585
3.627	23.46497
3.6275	23.06213
3.628	26.88904
3.6285	30.01099
3.629	33.73718
3.6295	30.91736
3.63	34.24072
3.6305	48.44055
3.631	42.49878
3.6315	42.39807
3.632	36.75842
3.6325	24.47205
3.633	13.29346
3.6335	11.88354
3.634	13.89771
3.6345	2.61841
3.635	-2.31628
3.6355	-4.43115
3.636	-3.22266
3.6365	-3.02124
3.637	-8.8623
3.6375	-15.71045
3.638	-22.15576
3.6385	-20.84656
3.639	-22.96143
3.6395	-19.53735
3.64	-16.91895
3.6405	-17.72461
3.641	-11.38
3.6415	-11.68213
3.642	-11.07788
3.6425	-15.30762
3.643	-21.55151
3.6435	-13.19275
3.644	4.12903
3.6445	4.22974
3.645	14.40125
3.6455	17.12036
3.646	18.73169
3.6465	21.75293
3.647	24.16992
3.6475	28.29895
3.648	28.70178
3.6485	41.99524
3.649	47.33276
3.6495	48.94409
3.65	50.55542
3.6505	59.41772
3.651	54.48303
3.6515	51.26038
3.652	42.90161
3.6525	34.94568
3.653	12.78992
3.6535	-1.51062
3.654	-14.19983
3.6545	-32.52869
3.655	-48.33984
3.6555	-59.92126
3.656	-67.47437
3.6565	-69.48853
3.657	-63.24463
3.6575	-66.16516
3.658	-48.54126
3.6585	-32.12585
3.659	-23.66638
3.6595	-16.3147
3.66	-11.88354
3.6605	-8.35876
3.661	-7.5531
3.6615	-1.2085
3.662	1.3092
3.6625	5.23682
3.663	8.8623
3.6635	12.18567
3.664	6.3446
3.6645	9.56726
3.665	10.27222
3.6655	6.14319
3.666	8.25806
3.6665	5.0354
3.667	13.89771
3.6675	12.78992
3.668	8.45947
3.6685	15.40833
3.669	16.3147
3.6695	16.81824
3.67	19.33594
3.6705	24.37134
3.671	26.88904
3.6715	27.39258
3.672	27.59399
3.6725	39.67896
3.673	34.44214
3.6735	41.18958
3.674	46.42639
3.6745	46.5271
3.675	42.59949
3.6755	40.78674
3.676	34.34143
3.6765	32.52869
3.677	32.7301
3.6775	26.88904
3.678	29.20532
3.6785	29.30603
3.679	27.59399
3.6795	29.50745
3.68	31.52161
3.6805	35.34851
3.681	38.26904
3.6815	30.71594
3.682	24.87488
3.6825	23.66638
3.683	13.19275
3.6835	20.64514
3.684	19.53735
3.6845	8.96301
3.685	-10.37292
3.6855	-28.39966
3.686	-42.19666
3.6865	-45.82214
3.687	-53.47595
3.6875	-52.97241
3.688	-49.85046
3.6885	-41.89453
3.689	-26.18408
3.6895	-6.3446
3.69	10.57434
3.6905	25.68054
3.691	41.59241
3.6915	50.05188
3.692	62.13684
3.6925	67.17224
3.693	66.6687
3.6935	61.43188
3.694	54.18091
3.6945	46.02356
3.695	42.8009
3.6955	30.91736
3.696	18.22815
3.6965	5.74036
3.697	-10.57434
3.6975	-14.80408
3.698	-24.47205
3.6985	-39.77966
3.699	-43.40515
3.6995	-62.13684
3.7	-69.68994
3.7005	-78.45154
3.701	-85.29968
3.7015	-82.17773
3.702	-78.65295
3.7025	-72.71118
3.703	-63.74817
3.7035	-41.79382
3.704	-23.96851
3.7045	-6.3446
3.705	9.76868
3.7055	24.37134
3.706	39.67896
3.7065	52.46887
3.707	53.87878
3.7075	56.29578
3.708	52.97241
3.7085	46.92993
3.709	36.65771
3.7095	33.73718
3.71	28.09753
3.7105	20.24231
3.711	11.17859
3.7115	2.01416
3.712	-4.83398
3.7125	-6.84814
3.713	-16.81824
3.7135	-12.18567
3.714	-6.94885
3.7145	-10.17151
3.715	-9.46655
3.7155	1.61133
3.716	2.5177
3.7165	1.00708
3.717	4.02832
3.7175	7.04956
3.718	12.78992
3.7185	18.42957
3.719	33.73718
3.7195	44.41223
3.72	58.91418
3.7205	70.59631
3.721	85.60181
3.7215	90.43579
3.722	86.00464
3.7225	80.96924
3.723	78.75366
3.7235	71.60339
3.724	46.32568
3.7245	25.07629
3.725	7.04956
3.7255	-14.90479
3.726	-29.60815
3.7265	-45.92285
3.727	-56.39648
3.7275	-52.46887
3.728	-41.4917
3.7285	-26.68762
3.729	-16.11328
3.7295	1.51062
3.73	10.97717
3.7305	8.8623
3.731	0.30212
3.7315	-8.45947
3.732	-19.94019
3.7325	-25.98267
3.733	-39.98108
3.7335	-39.57825
3.734	-46.12427
3.7345	-40.88745
3.735	-35.04639
3.7355	-18.93311
3.736	-8.25806
3.7365	5.0354
3.737	10.47363
3.7375	24.27063
3.738	16.01257
3.7385	8.56018
3.739	-1.2085
3.7395	-8.05664
3.74	2.41699
3.7405	1.40991
3.741	1.00708
3.7415	-2.71912
3.742	-0.70496
3.7425	8.05664
3.743	7.15027
3.7435	30.11169
3.744	44.31152
3.7445	61.02905
3.745	60.52551
3.7455	66.6687
3.746	72.81189
3.7465	76.53809
3.747	81.57349
3.7475	75.73242
3.748	70.79773
3.7485	50.95825
3.749	26.68762
3.7495	5.94177
3.75	-18.73169
3.7505	-43.70728
3.751	-58.51135
3.7515	-73.11401
3.752	-85.09827
3.7525	-91.14075
3.753	-100.30518
3.7535	-87.41455
3.754	-76.13525
3.7545	-57.8064
3.755	-41.69312
3.7555	-30.81665
3.756	-15.50903
3.7565	-8.7616
3.757	-2.41699
3.7575	-3.92761
3.758	-0.80566
3.7585	1.3092
3.759	-9.06372
3.7595	-12.99133
3.76	-20.04089
3.7605	-18.12744
3.761	-22.86072
3.7615	-25.78125
3.762	-13.89771
3.7625	-13.39417
3.763	-19.83948
3.7635	-14.09912
3.764	-12.78992
3.7645	-8.25806
3.765	2.5177
3.7655	11.07788
3.766	18.32886
3.7665	26.58691
3.767	30.71594
3.7675	36.95984
3.768	37.06055
3.7685	36.15417
3.769	36.65771
3.7695	36.15417
3.77	39.27612
3.7705	43.30444
3.771	35.34851
3.7715	34.24072
3.772	28.9032
3.7725	22.25647
3.773	11.2793
3.7735	8.25806
3.774	-6.84814
3.7745	-12.38708
3.775	-17.32178
3.7755	-25.37842
3.776	-23.26355
3.7765	-12.78992
3.777	-11.68213
3.7775	-4.33044
3.778	7.85522
3.7785	12.28638
3.779	13.19275
3.7795	10.47363
3.78	10.17151
3.7805	8.8623
3.781	11.98425
3.7815	16.51611
3.782	22.45789
3.7825	23.76709
3.783	19.83948
3.7835	23.16284
3.784	24.27063
3.7845	27.29187
3.785	28.60107
3.7855	32.93152
3.786	37.26196
3.7865	45.72144
3.787	58.10852
3.7875	57.10144
3.788	51.46179
3.7885	39.88037
3.789	38.16833
3.7895	42.7002
3.79	36.55701
3.7905	31.62231
3.791	40.08179
3.7915	56.39648
3.792	69.28711
3.7925	72.9126
3.793	65.46021
3.7935	62.74109
3.794	56.19507
3.7945	39.98108
3.795	16.71753
3.7955	3.62549
3.796	-17.52319
3.7965	-30.71594
3.797	-43.70728
3.7975	-49.44763
3.798	-58.30994
3.7985	-68.48145
3.799	-75.4303
3.7995	-78.35083
3.8	-78.65295
3.8005	-80.86853
3.801	-73.31543
3.8015	-67.17224
3.802	-49.0448
3.8025	-51.66321
3.803	-47.03064
3.8035	-28.09753
3.804	-8.96301
3.8045	14.40125
3.805	26.18408
3.8055	43.70728
3.806	59.1156
3.8065	57.50427
3.807	56.5979
3.8075	59.31702
3.808	61.53259
3.8085	45.72144
3.809	35.04639
3.8095	11.88354
3.81	-7.85522
3.8105	-27.49329
3.811	-40.68604
3.8115	-55.99365
3.812	-70.49561
3.8125	-77.24304
3.813	-87.21313
3.8135	-70.29419
3.814	-51.76392
3.8145	-34.24072
3.815	-16.51611
3.8155	-14.09912
3.816	-6.64673
3.8165	5.0354
3.817	5.94177
3.8175	14.80408
3.818	16.11328
3.8185	21.85364
3.819	31.92444
3.8195	40.68604
3.82	38.87329
3.8205	40.08179
3.821	40.2832
3.8215	32.93152
3.822	37.26196
3.8225	35.95276
3.823	30.31311
3.8235	24.87488
3.824	25.68054
3.8245	27.19116
3.825	32.12585
3.8255	21.04797
3.826	20.74585
3.8265	13.09204
3.827	15.71045
3.8275	10.67505
3.828	4.43115
3.8285	3.02124
3.829	-5.23682
3.8295	-5.84106
3.83	-8.25806
3.8305	-4.63257
3.831	-8.05664
3.8315	-6.2439
3.832	-0.90637
3.8325	1.40991
3.833	9.16443
3.8335	23.26355
3.834	22.55859
3.8345	35.85205
3.835	52.46887
3.8355	51.86462
3.836	64.45312
3.8365	76.13525
3.837	79.15649
3.8375	75.12817
3.838	73.61755
3.8385	61.83472
3.839	49.14551
3.8395	35.95276
3.84	12.5885
3.8405	-8.7616
3.841	-30.51453
3.8415	-39.77966
3.842	-50.95825
3.8425	-65.25879
3.843	-70.09277
3.8435	-67.8772
3.844	-67.8772
3.8445	-47.43347
3.845	-25.37842
3.8455	-12.28638
3.846	-0.90637
3.8465	10.17151
3.847	8.15735
3.8475	9.97009
3.848	24.67346
3.8485	33.73718
3.849	38.87329
3.8495	37.96692
3.85	33.33435
3.8505	25.07629
3.851	21.3501
3.8515	14.90479
3.852	12.5885
3.8525	4.02832
3.853	-6.3446
3.8535	-9.46655
3.854	1.51062
3.8545	4.22974
3.855	8.45947
3.8555	10.97717
3.856	14.90479
3.8565	12.68921
3.857	23.16284
3.8575	16.91895
3.858	15.81116
3.8585	17.01965
3.859	11.68213
3.8595	6.54602
3.86	-0.60425
3.8605	-10.0708
3.861	-22.55859
3.8615	-25.07629
3.862	-29.60815
3.8625	-23.66638
3.863	-22.45789
3.8635	-8.05664
3.864	4.12903
3.8645	14.60266
3.865	18.32886
3.8655	20.04089
3.866	16.21399
3.8665	12.18567
3.867	6.04248
3.8675	1.10779
3.868	1.3092
3.8685	-4.02832
3.869	-2.71912
3.8695	3.02124
3.87	7.15027
3.8705	4.22974
3.871	1.61133
3.8715	-1.00708
3.872	8.05664
3.8725	11.98425
3.873	1.2085
3.8735	6.94885
3.874	7.5531
3.8745	6.84814
3.875	6.64673
3.8755	4.83398
3.876	11.07788
3.8765	3.12195
3.877	1.00708
3.8775	-2.41699
3.878	-0.10071
3.8785	2.21558
3.879	4.93469
3.8795	9.16443
3.88	12.68921
3.8805	16.3147
3.881	13.89771
3.8815	14.09912
3.882	13.99841
3.8825	24.57275
3.883	13.99841
3.8835	24.37134
3.884	33.83789
3.8845	39.98108
3.885	32.93152
3.8855	36.25488
3.886	43.30444
3.8865	32.32727
3.887	30.91736
3.8875	24.97559
3.888	14.50195
3.8885	6.3446
3.889	-3.8269
3.8895	-7.04956
3.89	-5.53894
3.8905	-11.2793
3.891	-8.66089
3.8915	-3.42407
3.892	-10.67505
3.8925	-6.64673
3.893	-9.16443
3.8935	-6.94885
3.894	2.81982
3.8945	0.10071
3.895	3.62549
3.8955	8.25806
3.896	16.91895
3.8965	26.28479
3.897	22.55859
3.8975	23.46497
3.898	21.95435
3.8985	20.24231
3.899	18.73169
3.8995	16.51611
3.9	20.34302
3.9005	10.27222
3.901	1.40991
3.9015	3.02124
3.902	2.92053
3.9025	-2.41699
3.903	-9.56726
3.9035	-3.12195
3.904	-0.80566
3.9045	-4.22974
3.905	-7.65381
3.9055	-12.5885
3.906	-23.56567
3.9065	-26.68762
3.907	-24.47205
3.9075	-31.52161
3.908	-26.88904
3.9085	-14.40125
3.909	-9.76868
3.9095	-14.50195
3.91	-20.34302
3.9105	-17.72461
3.911	-10.47363
3.9115	-9.06372
3.912	6.84814
3.9125	9.16443
3.913	4.33044
3.9135	17.22107
3.914	22.45789
3.9145	14.40125
3.915	12.5885
3.9155	13.19275
3.916	9.36584
3.9165	5.13611
3.917	4.83398
3.9175	8.25806
3.918	7.5531
3.9185	13.59558
3.919	14.30054
3.9195	20.1416
3.92	24.67346
3.9205	21.85364
3.921	19.73877
3.9215	26.3855
3.922	32.22656
3.9225	40.68604
3.923	42.90161
3.9235	48.94409
3.924	43.40515
3.9245	40.08179
3.925	44.71436
3.9255	30.2124
3.926	16.11328
3.9265	1.81274
3.927	-13.59558
3.9275	-31.82373
3.928	-40.78674
3.9285	-51.36108
3.929	-56.39648
3.9295	-58.00781
3.93	-39.07471
3.9305	-24.16992
3.931	-4.73328
3.9315	1.3092
3.932	7.75452
3.9325	14.80408
3.933	8.25806
3.9335	15.30762
3.934	9.56726
3.9345	10.77576
3.935	11.68213
3.9355	2.01416
3.936	9.06372
3.9365	8.7616
3.937	14.50195
3.9375	24.77417
3.938	30.41382
3.9385	36.05347
3.939	39.17542
3.9395	29.91028
3.94	28.19824
3.9405	39.88037
3.941	40.98816
3.9415	46.92993
3.942	44.21082
3.9425	39.27612
3.943	37.36267
3.9435	27.79541
3.944	14.90479
3.9445	-4.22974
3.945	-14.70337
3.9455	-35.2478
3.946	-47.93701
3.9465	-54.0802
3.947	-59.01489
3.9475	-71.80481
3.948	-73.81897
3.9485	-63.84888
3.949	-59.61914
3.9495	-55.99365
3.95	-45.52002
3.9505	-15.00549
3.951	15.40833
3.9515	30.31311
3.952	39.47754
3.9525	45.62073
3.953	37.06055
3.9535	46.62781
3.954	48.13843
3.9545	43.20374
3.955	49.54834
3.9555	39.98108
3.956	26.78833
3.9565	15.91187
3.957	9.86938
3.9575	9.36584
3.958	10.47363
3.9585	5.94177
3.959	8.35876
3.9595	5.94177
3.96	-2.31628
3.9605	-17.92603
3.961	-20.1416
3.9615	-25.07629
3.962	-38.47046
3.9625	-46.82922
3.963	-49.54834
3.9635	-40.78674
3.964	-28.19824
3.9645	-11.98425
3.965	-6.04248
3.9655	6.84814
3.966	15.91187
3.9665	19.23523
3.967	25.07629
3.9675	28.09753
3.968	24.97559
3.9685	29.40674
3.969	30.61523
3.9695	33.53577
3.97	26.88904
3.9705	27.89612
3.971	18.8324
3.9715	10.47363
3.972	17.72461
3.9725	22.96143
3.973	18.93311
3.9735	20.34302
3.974	10.17151
3.9745	10.77576
3.975	-1.00708
3.9755	-7.85522
3.976	-16.21399
3.9765	-23.46497
3.977	-26.98975
3.9775	-32.62939
3.978	-28.70178
3.9785	-34.24072
3.979	-39.57825
3.9795	-38.57117
3.98	-33.03223
3.9805	-21.85364
3.981	-10.0708
3.9815	9.46655
3.982	49.74976
3.9825	84.09119
3.983	93.65845
3.9835	108.56323
3.984	107.85828
3.9845	111.28235
3.985	93.65845
3.9855	81.06995
3.986	70.89844
3.9865	54.0802
3.987	42.49878
3.9875	21.3501
3.988	-5.94177
3.9885	-17.22107
3.989	-37.96692
3.9895	-68.07861
3.99	-81.67419
3.9905	-101.71509
3.991	-122.36023
3.9915	-117.82837
3.992	-120.54749
3.9925	-111.8866
3.993	-111.48376
3.9935	-92.95349
3.994	-55.3894
3.9945	-22.15576
3.995	11.98425
3.9955	36.4563
3.996	52.771
3.9965	59.82056
3.997	57.00073
3.9975	54.28162
3.998	54.58374
3.9985	54.68445
3.999	55.99365
3.9995	63.04321
4	53.17383
4.0005	38.16833
4.001	26.08337
4.0015	24.37134
4.002	21.85364
4.0025	11.07788
4.003	4.93469
4.0035	16.01257
4.004	15.30762
4.0045	12.5885
4.005	12.5885
4.0055	20.54443
4.006	26.28479
4.0065	25.88196
4.007	38.87329
4.0075	51.36108
4.008	62.43896
4.0085	68.17932
4.009	71.50269
4.0095	81.27136
4.01	72.61047
4.0105	75.22888
4.011	63.44604
4.0115	63.64746
4.012	59.01489
4.0125	48.74268
4.013	26.78833
4.0135	16.3147
4.014	-5.43823
4.0145	-8.15735
4.015	-5.84106
4.0155	-10.87646
4.016	-22.45789
4.0165	-27.59399
4.017	-36.95984
4.0175	-43.60657
4.018	-60.62622
4.0185	-78.85437
4.019	-94.3634
4.0195	-102.62146
4.02	-97.08252
4.0205	-82.88269
4.021	-73.61755
4.0215	-59.01489
4.022	-48.03772
4.0225	-27.29187
4.023	-22.96143
4.0235	-19.13452
4.024	-21.3501
4.0245	-19.83948
4.025	-20.04089
4.0255	-19.13452
4.026	-6.44531
4.0265	6.14319
4.027	22.55859
4.0275	26.28479
4.028	23.46497
4.0285	21.55151
4.029	19.73877
4.0295	21.45081
4.03	39.27612
4.0305	56.49719
4.031	46.42639
4.0315	39.17542
4.032	35.95276
4.0325	31.11877
4.033	21.04797
4.0335	27.59399
4.034	31.21948
4.0345	23.36426
4.035	13.99841
4.0355	10.67505
4.036	9.97009
4.0365	13.49487
4.037	12.5885
4.0375	12.18567
4.038	2.71912
4.0385	-10.87646
4.039	-18.22815
4.0395	-20.54443
4.04	-29.40674
4.0405	-22.55859
4.041	-14.90479
4.0415	-1.00708
4.042	21.75293
4.0425	45.52002
4.043	71.30127
4.0435	91.54358
4.044	111.9873
4.0445	111.9873
4.045	109.06677
4.0455	97.08252
4.046	76.03455
4.0465	49.34692
4.047	10.47363
4.0475	-12.08496
4.048	-37.7655
4.0485	-54.98657
4.049	-71.60339
4.0495	-86.10535
4.05	-104.3335
4.0505	-122.15881
4.051	-127.99988
4.0515	-110.98022
4.052	-104.83704
4.0525	-85.90393
4.053	-67.57507
4.0535	-31.32019
4.054	-12.38708
4.0545	11.38
4.055	24.27063
4.0555	38.974
4.056	51.05896
4.0565	59.82056
4.057	64.05029
4.0575	56.29578
4.058	52.67029
4.0585	44.31152
4.059	42.49878
4.0595	29.50745
4.06	9.66797
4.0605	-12.5885
4.061	-36.55701
4.0615	-44.61365
4.062	-54.68445
4.0625	-63.84888
4.063	-69.48853
4.0635	-61.6333
4.064	-36.65771
4.0645	-16.41541
4.065	-9.06372
4.0655	-1.2085
4.066	2.41699
4.0665	5.94177
4.067	18.8324
4.0675	25.07629
4.068	34.44214
4.0685	33.53577
4.069	33.63647
4.0695	37.66479
4.07	38.87329
4.0705	33.03223
4.071	26.98975
4.0715	28.80249
4.072	33.63647
