Domenico_Di_Fonza_Right_1.c3d  



Time(s):	C_L_bicipite(μV):
0	123.66943
0.0005	110.17456
0.001	100.00305
0.0015	94.76624
0.002	99.2981
0.0025	105.23987
0.003	105.94482
0.0035	91.04004
0.004	73.31543
0.0045	60.12268
0.005	41.79382
0.0055	27.29187
0.006	6.44531
0.0065	-14.30054
0.007	-38.57117
0.0075	-74.52393
0.008	-95.06836
0.0085	-117.32483
0.009	-130.92041
0.0095	-127.89917
0.01	-111.78589
0.0105	-81.06995
0.011	-44.0094
0.0115	0.30212
0.012	83.28552
0.0125	179.56238
0.013	248.9502
0.0135	318.2373
0.014	366.17432
0.0145	396.38672
0.015	425.28992
0.0155	431.03027
0.016	423.7793
0.0165	387.323
0.017	318.03589
0.0175	222.76611
0.018	101.31226
0.0185	-20.44373
0.019	-158.31299
0.0195	-277.55127
0.02	-381.78406
0.0205	-454.49524
0.021	-503.54004
0.0215	-529.32129
0.022	-516.02783
0.0225	-463.96179
0.023	-412.80212
0.0235	-343.11218
0.024	-232.13196
0.0245	-123.77014
0.025	-25.68054
0.0255	40.78674
0.026	71.20056
0.0265	74.62463
0.027	70.09277
0.0275	63.04321
0.028	55.59082
0.0285	64.35242
0.029	75.02747
0.0295	91.745
0.03	95.47119
0.0305	94.76624
0.031	89.63013
0.0315	84.2926
0.032	83.48694
0.0325	64.151
0.033	54.18091
0.0335	51.26038
0.034	46.62781
0.0345	38.36975
0.035	43.10303
0.0355	45.52002
0.036	60.02197
0.0365	70.49561
0.037	85.80322
0.0375	103.22571
0.038	112.59155
0.0385	119.33899
0.039	162.44202
0.0395	178.75671
0.04	176.13831
0.0405	174.12415
0.041	175.53406
0.0415	147.94006
0.042	111.9873
0.0425	80.06287
0.043	55.2887
0.0435	15.81116
0.044	-11.68213
0.0445	-35.95276
0.045	-54.98657
0.0455	-62.33826
0.046	-74.42322
0.0465	-76.84021
0.047	-81.87561
0.0475	-76.53809
0.048	-85.80322
0.0485	-115.61279
0.049	-140.28625
0.0495	-151.46484
0.05	-145.72449
0.0505	-133.84094
0.051	-122.15881
0.0515	-96.17615
0.052	-74.92676
0.0525	-72.20764
0.053	-77.54517
0.0535	-69.99207
0.054	-30.31311
0.0545	4.83398
0.055	49.34692
0.0555	93.15491
0.056	120.04395
0.0565	133.23669
0.057	128.40271
0.0575	103.93066
0.058	78.65295
0.0585	67.67578
0.059	54.18091
0.0595	33.83789
0.06	-3.32336
0.0605	-56.09436
0.061	-93.55774
0.0615	-80.76782
0.062	-39.17542
0.0625	3.22266
0.063	45.01648
0.0635	77.44446
0.064	113.49792
0.0645	135.95581
0.065	145.72449
0.0655	163.75122
0.066	188.52539
0.0665	200.40894
0.067	178.95813
0.0675	158.01086
0.068	137.76855
0.0685	137.26501
0.069	127.59705
0.0695	107.05261
0.07	82.88269
0.0705	47.8363
0.071	10.27222
0.0715	-21.14868
0.072	-56.90002
0.0725	-93.35632
0.073	-141.19263
0.0735	-143.81104
0.074	-169.7937
0.0745	-179.76379
0.075	-171.40503
0.0755	-147.53723
0.076	-107.25403
0.0765	-50.05188
0.077	19.43665
0.0775	81.97632
0.078	144.01245
0.0785	197.28699
0.079	217.22717
0.0795	197.08557
0.08	171.20361
0.0805	130.8197
0.081	82.07703
0.0815	49.0448
0.082	18.73169
0.0825	-4.22974
0.083	-21.95435
0.0835	-54.88586
0.084	-75.12817
0.0845	-60.92834
0.085	-44.31152
0.0855	-45.92285
0.086	-69.58923
0.0865	-96.8811
0.087	-149.04785
0.0875	-206.14929
0.088	-242.50488
0.0885	-253.68347
0.089	-265.06348
0.0895	-260.83374
0.09	-233.23975
0.0905	-184.39636
0.091	-156.39954
0.0915	-147.03369
0.092	-136.05652
0.0925	-120.24536
0.093	-75.73242
0.0935	-8.45947
0.094	66.6687
0.0945	145.01953
0.095	203.43018
0.0955	249.45374
0.096	265.96985
0.0965	241.90063
0.097	186.41052
0.0975	121.35315
0.098	45.52002
0.0985	-28.9032
0.099	-104.53491
0.0995	-184.09424
0.1	-246.33179
0.1005	-267.37976
0.101	-266.97693
0.1015	-264.0564
0.102	-262.94861
0.1025	-235.95886
0.103	-182.48291
0.1035	-137.66785
0.104	-90.03296
0.1045	-33.83789
0.105	8.25806
0.1055	46.12427
0.106	73.21472
0.1065	91.94641
0.107	109.3689
0.1075	125.7843
0.108	138.57422
0.1085	149.55139
0.109	168.38379
0.1095	178.5553
0.11	183.38928
0.1105	182.58362
0.111	165.56396
0.1115	139.88342
0.112	118.2312
0.1125	90.93933
0.113	52.16675
0.1135	15.50903
0.114	-15.1062
0.1145	-33.23364
0.115	-49.24622
0.1155	-68.68286
0.116	-100.90942
0.1165	-131.72607
0.117	-151.76697
0.1175	-159.7229
0.118	-140.58838
0.1185	-105.03845
0.119	-62.64038
0.1195	-34.34143
0.12	20.74585
0.1205	66.46729
0.121	106.04553
0.1215	141.39404
0.122	163.75122
0.1225	179.05884
0.123	174.72839
0.1235	153.98254
0.124	134.14307
0.1245	101.9165
0.125	71.20056
0.1255	24.27063
0.126	-14.40125
0.1265	-46.62781
0.127	-66.46729
0.1275	-73.51685
0.128	-87.21313
0.1285	-98.69385
0.129	-88.32092
0.1295	-76.23596
0.13	-79.66003
0.1305	-81.67419
0.131	-69.08569
0.1315	-43.10303
0.132	-21.24939
0.1325	12.99133
0.133	31.32019
0.1335	50.85754
0.134	72.71118
0.1345	101.8158
0.135	125.68359
0.1355	141.29333
0.136	158.5144
0.1365	183.99353
0.137	209.77478
0.1375	238.9801
0.138	257.91321
0.1385	260.3302
0.139	250.76294
0.1395	227.09656
0.14	202.32239
0.1405	172.51282
0.141	128.10059
0.1415	88.0188
0.142	37.36267
0.1425	-12.18567
0.143	-15.40833
0.1435	-12.78992
0.144	-15.20691
0.1445	27.39258
0.145	84.49402
0.1455	123.87085
0.146	169.18945
0.1465	196.48132
0.147	194.87
0.1475	167.37671
0.148	108.96606
0.1485	19.33594
0.149	-56.5979
0.1495	-125.68359
0.15	-199.60327
0.1505	-272.21375
0.151	-307.66296
0.1515	-293.56384
0.152	-266.27197
0.1525	-216.92505
0.153	-176.13831
0.1535	-164.55688
0.154	-159.32007
0.1545	-121.15173
0.155	-69.99207
0.1555	-46.22498
0.156	-14.40125
0.1565	17.72461
0.157	45.62073
0.1575	58.51135
0.158	64.05029
0.1585	66.87012
0.159	29.91028
0.1595	-13.29346
0.16	-44.11011
0.1605	-64.95667
0.161	-81.27136
0.1615	-95.26978
0.162	-108.96606
0.1625	-132.12891
0.163	-160.72998
0.1635	-166.87317
0.164	-161.73706
0.1645	-152.87476
0.165	-153.27759
0.1655	-120.14465
0.166	-63.94958
0.1665	-8.35876
0.167	33.63647
0.1675	59.31702
0.168	90.5365
0.1685	107.55615
0.169	127.39563
0.1695	145.01953
0.17	139.48059
0.1705	132.53174
0.171	175.43335
0.1715	226.99585
0.172	278.55835
0.1725	317.93518
0.173	357.81555
0.1735	384.8053
0.174	395.58105
0.1745	386.51733
0.175	351.16882
0.1755	283.69446
0.176	213.90381
0.1765	117.72766
0.177	8.35876
0.1775	-111.38306
0.178	-231.427
0.1785	-334.65271
0.179	-431.3324
0.1795	-495.98694
0.18	-536.67297
0.1805	-543.62183
0.181	-496.38977
0.1815	-426.90125
0.182	-363.65662
0.1825	-282.58667
0.183	-200.30823
0.1835	-132.43103
0.184	-91.44287
0.1845	-74.72534
0.185	-63.34534
0.1855	-52.16675
0.186	-23.36426
0.1865	11.17859
0.187	46.62781
0.1875	54.68445
0.188	65.25879
0.1885	92.65137
0.189	119.64111
0.1895	123.87085
0.19	126.08643
0.1905	124.4751
0.191	141.39404
0.1915	161.13281
0.192	173.11707
0.1925	185.00061
0.193	165.86609
0.1935	128.40271
0.194	106.04553
0.1945	107.25403
0.195	118.2312
0.1955	157.2052
0.196	257.8125
0.1965	392.05627
0.197	515.12146
0.1975	606.86646
0.198	688.84277
0.1985	726.80969
0.199	730.03235
0.1995	699.11499
0.2	628.21655
0.2005	503.54004
0.201	308.0658
0.2015	98.89526
0.202	-128.302
0.2025	-371.10901
0.203	-596.99707
0.2035	-781.39343
0.204	-922.88818
0.2045	-995.19653
0.205	-1001.33972
0.2055	-977.97546
0.206	-912.71667
0.2065	-797.50671
0.207	-635.26611
0.2075	-453.38745
0.208	-254.58984
0.2085	-99.09668
0.209	33.83789
0.2095	116.11633
0.21	142.90466
0.2105	166.16821
0.211	158.01086
0.2115	132.83386
0.212	91.745
0.2125	60.82764
0.213	30.2124
0.2135	-1.2085
0.214	-22.6593
0.2145	-44.81506
0.215	-50.45471
0.2155	-46.22498
0.216	-16.81824
0.2165	3.92761
0.217	44.51294
0.2175	76.63879
0.218	131.92749
0.2185	181.37512
0.219	202.32239
0.2195	208.26416
0.22	226.49231
0.2205	242.90771
0.221	247.43958
0.2215	234.75037
0.222	216.62292
0.2225	184.59778
0.223	146.73157
0.2235	109.87244
0.224	58.41064
0.2245	-3.12195
0.225	-63.34534
0.2255	-122.46094
0.226	-181.27441
0.2265	-218.03284
0.227	-216.92505
0.2275	-200.20752
0.228	-175.43335
0.2285	-131.82678
0.229	-76.33667
0.2295	-8.96301
0.23	49.64905
0.2305	99.70093
0.231	138.3728
0.2315	159.7229
0.232	159.62219
0.2325	144.51599
0.233	116.51917
0.2335	92.55066
0.234	81.37207
0.2345	87.91809
0.235	78.14941
0.2355	44.81506
0.236	39.57825
0.2365	62.64038
0.237	74.12109
0.2375	85.19897
0.238	134.04236
0.2385	211.48682
0.239	293.36243
0.2395	321.9635
0.24	333.14209
0.2405	336.96899
0.241	335.25696
0.2415	324.38049
0.242	285.91003
0.2425	223.16895
0.243	141.99829
0.2435	34.14001
0.244	-79.76074
0.2445	-187.82043
0.245	-287.52136
0.2455	-339.99023
0.246	-356.70776
0.2465	-352.0752
0.247	-320.85571
0.2475	-270.30029
0.248	-222.86682
0.2485	-197.4884
0.249	-178.45459
0.2495	-157.40662
0.25	-125.18005
0.2505	-76.7395
0.251	-30.61523
0.2515	20.44373
0.252	86.40747
0.2525	178.65601
0.253	255.49622
0.2535	306.75659
0.254	343.71643
0.2545	350.26245
0.255	310.38208
0.2555	249.75586
0.256	158.01086
0.2565	63.74817
0.257	-47.03064
0.2575	-155.9967
0.258	-260.73303
0.2585	-354.29077
0.259	-407.4646
0.2595	-440.59753
0.26	-444.82727
0.2605	-426.297
0.261	-381.38123
0.2615	-324.4812
0.262	-256.90613
0.2625	-193.56079
0.263	-144.41528
0.2635	-72.9126
0.264	11.17859
0.2645	91.04004
0.265	162.54272
0.2655	253.9856
0.266	321.66138
0.2665	346.43555
0.267	340.99731
0.2675	295.07446
0.268	255.79834
0.2685	205.34363
0.269	134.24377
0.2695	42.8009
0.27	-49.0448
0.2705	-108.56323
0.271	-167.77954
0.2715	-216.01868
0.272	-264.55994
0.2725	-298.49854
0.273	-311.79199
0.2735	-279.1626
0.274	-223.47107
0.2745	-136.96289
0.275	-55.2887
0.2755	26.48621
0.276	87.61597
0.2765	138.87634
0.277	177.64893
0.2775	177.24609
0.278	161.23352
0.2785	158.01086
0.279	144.11316
0.2795	117.82837
0.28	73.71826
0.2805	24.37134
0.281	-33.53577
0.2815	-75.73242
0.282	-102.82288
0.2825	-112.49084
0.283	-111.28235
0.2835	-93.25562
0.284	-47.63489
0.2845	-15.20691
0.285	-1.71204
0.2855	3.22266
0.286	-7.75452
0.2865	-4.43115
0.287	22.35718
0.2875	57.70569
0.288	82.78198
0.2885	88.62305
0.289	91.54358
0.2895	91.745
0.29	89.52942
0.2905	128.40271
0.291	150.8606
0.2915	168.4845
0.292	192.35229
0.2925	226.29089
0.293	234.95178
0.2935	237.57019
0.294	223.26965
0.2945	212.4939
0.295	184.49707
0.2955	155.09033
0.296	112.39014
0.2965	56.79932
0.297	-8.8623
0.2975	-60.22339
0.298	-109.77173
0.2985	-142.80396
0.299	-184.29565
0.2995	-188.02185
0.3	-160.42786
0.3005	-110.77881
0.301	-58.20923
0.3015	-5.94177
0.302	36.05347
0.3025	44.11011
0.303	29.91028
0.3035	-14.90479
0.304	-65.15808
0.3045	-113.29651
0.305	-132.63245
0.3055	-154.88892
0.306	-149.14856
0.3065	-129.30908
0.307	-115.7135
0.3075	-115.51208
0.308	-133.63953
0.3085	-128.50342
0.309	-135.75439
0.3095	-132.22961
0.31	-124.07227
0.3105	-84.79614
0.311	-23.56567
0.3115	28.60107
0.312	60.92834
0.3125	72.10693
0.313	66.76941
0.3135	63.04321
0.314	56.19507
0.3145	54.58374
0.315	63.84888
0.3155	78.35083
0.316	100.80872
0.3165	96.7804
0.317	91.04004
0.3175	77.24304
0.318	59.92126
0.3185	26.48621
0.319	11.17859
0.3195	-4.63257
0.32	-9.66797
0.3205	31.4209
0.321	57.70569
0.3215	70.3949
0.322	84.19189
0.3225	103.02429
0.323	143.00537
0.3235	183.99353
0.324	216.11938
0.3245	230.62134
0.325	242.7063
0.3255	237.36877
0.326	213.09814
0.3265	176.74255
0.327	137.76855
0.3275	82.68127
0.328	26.28479
0.3285	-24.57275
0.329	-63.14392
0.3295	-92.95349
0.33	-86.70959
0.3305	-47.7356
0.331	20.04089
0.3315	84.59473
0.332	142.40112
0.3325	205.14221
0.333	282.88879
0.3335	333.44421
0.334	338.17749
0.3345	291.44897
0.335	242.20276
0.3355	177.3468
0.336	102.42004
0.3365	3.62549
0.337	-114.00146
0.3375	-218.8385
0.338	-250.2594
0.3385	-309.375
0.339	-359.6283
0.3395	-363.85803
0.34	-348.85254
0.3405	-341.29944
0.341	-325.48828
0.3415	-338.78174
0.342	-350.66528
0.3425	-333.84705
0.343	-275.93994
0.3435	-183.38928
0.344	-73.31543
0.3445	27.99683
0.345	99.3988
0.3455	134.04236
0.346	136.25793
0.3465	114.505
0.347	45.11719
0.3475	-19.33594
0.348	-59.51843
0.3485	-99.70093
0.349	-120.34607
0.3495	-130.51758
0.35	-140.38696
0.3505	-158.81653
0.351	-176.0376
0.3515	-165.16113
0.352	-143.4082
0.3525	-133.74023
0.353	-104.13208
0.3535	-57.70569
0.354	-9.16443
0.3545	33.13293
0.355	59.01489
0.3555	63.44604
0.356	63.94958
0.3565	64.05029
0.357	51.76392
0.3575	54.18091
0.358	64.35242
0.3585	81.06995
0.359	90.5365
0.3595	108.66394
0.36	141.09192
0.3605	161.53564
0.361	169.18945
0.3615	163.85193
0.362	148.24219
0.3625	133.43811
0.363	125.18005
0.3635	130.21545
0.364	141.19263
0.3645	141.79688
0.365	133.53882
0.3655	120.04395
0.366	130.51758
0.3665	154.78821
0.367	167.17529
0.3675	177.74963
0.368	214.50806
0.3685	229.71497
0.369	211.99036
0.3695	191.24451
0.37	153.88184
0.3705	106.64978
0.371	25.98267
0.3715	-71.40198
0.372	-181.073
0.3725	-270.70312
0.373	-324.38049
0.3735	-346.53625
0.374	-350.26245
0.3745	-350.66528
0.375	-338.17749
0.3755	-330.52368
0.376	-304.03748
0.3765	-266.5741
0.377	-242.20276
0.3775	-226.79443
0.378	-201.71814
0.3785	-150.05493
0.379	-109.16748
0.3795	-82.58057
0.38	-46.42639
0.3805	-2.21558
0.381	38.974
0.3815	58.91418
0.382	107.65686
0.3825	144.11316
0.383	188.72681
0.3835	210.27832
0.384	235.1532
0.3845	258.71887
0.385	272.41516
0.3855	278.75977
0.386	279.56543
0.3865	298.59924
0.387	299.10278
0.3875	320.45288
0.388	305.44739
0.3885	236.96594
0.389	168.28308
0.3895	92.44995
0.39	11.17859
0.3905	-60.52551
0.391	-110.6781
0.3915	-121.05103
0.392	-101.51367
0.3925	-97.38464
0.393	-80.06287
0.3935	-73.21472
0.394	-76.84021
0.3945	-93.35632
0.395	-116.21704
0.3955	-110.57739
0.396	-128.302
0.3965	-153.88184
0.397	-177.44751
0.3975	-190.94238
0.398	-186.81335
0.3985	-159.01794
0.399	-147.03369
0.3995	-100.70801
0.4	-56.79932
0.4005	-38.57117
0.401	-38.06763
0.4015	-52.67029
0.402	-71.40198
0.4025	-68.58215
0.403	-49.14551
0.4035	-17.92603
0.404	28.29895
0.4045	76.03455
0.405	91.94641
0.4055	98.39172
0.406	92.55066
0.4065	83.38623
0.407	67.97791
0.4075	51.5625
0.408	36.35559
0.4085	32.83081
0.409	27.6947
0.4095	27.29187
0.41	15.60974
0.4105	13.99841
0.411	15.71045
0.4115	19.63806
0.412	26.78833
0.4125	32.02515
0.413	40.88745
0.4135	49.54834
0.414	62.13684
0.4145	68.48145
0.415	75.22888
0.4155	70.99915
0.416	63.74817
0.4165	64.35242
0.417	58.91418
0.4175	63.14392
0.418	47.8363
0.4185	47.43347
0.419	36.75842
0.4195	26.98975
0.42	21.45081
0.4205	15.40833
0.421	11.2793
0.4215	10.37292
0.422	5.0354
0.4225	8.35876
0.423	52.56958
0.4235	148.14148
0.424	230.01709
0.4245	293.0603
0.425	351.26953
0.4255	409.68018
0.426	446.4386
0.4265	450.06409
0.427	405.24902
0.4275	334.95483
0.428	241.90063
0.4285	148.04077
0.429	31.4209
0.4295	-66.16516
0.43	-152.67334
0.4305	-244.82117
0.431	-330.52368
0.4315	-392.96265
0.432	-422.77222
0.4325	-406.05469
0.433	-370.30334
0.4335	-310.18066
0.434	-205.54504
0.4345	-50.05188
0.435	114.505
0.4355	234.85107
0.436	311.08704
0.4365	328.71094
0.437	293.46313
0.4375	193.96362
0.438	69.48853
0.4385	-59.71985
0.439	-192.75513
0.4395	-317.33093
0.44	-424.98779
0.4405	-514.3158
0.441	-544.32678
0.4415	-531.13403
0.442	-469.29932
0.4425	-390.44495
0.443	-304.3396
0.4435	-158.01086
0.444	-17.52319
0.4445	72.40906
0.445	135.95581
0.4455	173.31848
0.446	182.28149
0.4465	181.67725
0.447	187.4176
0.4475	170.19653
0.448	166.47034
0.4485	147.03369
0.449	105.6427
0.4495	62.8418
0.45	10.97717
0.4505	-36.25488
0.451	-77.64587
0.4515	-119.03687
0.452	-134.24377
0.4525	-115.51208
0.453	-63.04321
0.4535	-29.10461
0.454	-6.14319
0.4545	29.80957
0.455	115.91492
0.4555	184.8999
0.456	217.22717
0.4565	239.88647
0.457	291.95251
0.4575	360.73608
0.458	410.08301
0.4585	416.3269
0.459	384.90601
0.4595	336.06262
0.46	291.65039
0.4605	229.71497
0.461	160.62927
0.4615	80.36499
0.462	25.57983
0.4625	-35.04639
0.463	-84.99756
0.4635	-126.9928
0.464	-149.55139
0.4645	-160.12573
0.465	-153.479
0.4655	-172.71423
0.466	-202.22168
0.4665	-211.68823
0.467	-220.34912
0.4675	-256.90613
0.468	-289.73694
0.4685	-331.83289
0.469	-357.81555
0.4695	-364.16016
0.47	-341.90369
0.4705	-277.45056
0.471	-215.21301
0.4715	-159.82361
0.472	-101.41296
0.4725	-45.62073
0.473	6.84814
0.4735	38.06763
0.474	30.41382
0.4745	6.84814
0.475	10.67505
0.4755	19.03381
0.476	25.177
0.4765	27.09045
0.477	29.70886
0.4775	34.24072
0.478	25.27771
0.4785	14.90479
0.479	13.89771
0.4795	20.84656
0.48	29.80957
0.4805	44.61365
0.481	55.79224
0.4815	48.33984
0.482	52.771
0.4825	70.59631
0.483	88.42163
0.4835	102.82288
0.484	115.81421
0.4845	113.59863
0.485	99.19739
0.4855	88.32092
0.486	77.44446
0.4865	86.10535
0.487	91.04004
0.4875	89.83154
0.488	88.32092
0.4885	85.80322
0.489	68.38074
0.4895	69.99207
0.49	105.84412
0.4905	154.78821
0.491	165.66467
0.4915	151.16272
0.492	140.78979
0.4925	140.68909
0.493	159.21936
0.4935	157.70874
0.494	144.6167
0.4945	150.65918
0.495	170.29724
0.4955	214.70947
0.496	220.34912
0.4965	210.68115
0.497	184.59778
0.4975	141.29333
0.498	76.53809
0.4985	10.0708
0.499	-57.8064
0.4995	-150.75989
0.5	-231.72913
0.5005	-288.52844
0.501	-335.05554
0.5015	-368.08777
0.502	-368.89343
0.5025	-333.34351
0.503	-281.57959
0.5035	-225.98877
0.504	-186.00769
0.5045	-144.21387
0.505	-105.13916
0.5055	-0.50354
0.506	104.53491
0.5065	197.08557
0.507	260.53162
0.5075	316.32385
0.508	342.30652
0.5085	369.49768
0.509	361.44104
0.5095	308.36792
0.51	253.28064
0.5105	180.16663
0.511	95.67261
0.5115	11.07788
0.512	-76.33667
0.5125	-148.04077
0.513	-221.85974
0.5135	-265.56702
0.514	-287.82349
0.5145	-267.98401
0.515	-256.30188
0.5155	-264.1571
0.516	-295.17517
0.5165	-300.21057
0.517	-305.95093
0.5175	-281.98242
0.518	-251.36719
0.5185	-158.91724
0.519	-68.07861
0.5195	21.95435
0.52	114.80713
0.5205	162.34131
0.521	194.76929
0.5215	208.46558
0.522	225.38452
0.5225	236.86523
0.523	245.32471
0.5235	235.35461
0.524	216.01868
0.5245	179.26025
0.525	131.52466
0.5255	57.40356
0.526	-14.80408
0.5265	-73.11401
0.527	-131.12183
0.5275	-178.05176
0.528	-196.27991
0.5285	-175.43335
0.529	-147.83936
0.5295	-143.3075
0.53	-126.48926
0.5305	-131.22253
0.531	-128.50342
0.5315	-110.6781
0.532	-116.11633
0.5325	-124.67651
0.533	-124.87793
0.5335	-114.80713
0.534	-90.13367
0.5345	-55.59082
0.535	-30.91736
0.5355	5.53894
0.536	12.78992
0.5365	1.81274
0.537	35.95276
0.5375	68.17932
0.538	85.09827
0.5385	129.91333
0.539	193.76221
0.5395	233.13904
0.54	256.90613
0.5405	246.5332
0.541	228.80859
0.5415	198.59619
0.542	164.55688
0.5425	130.01404
0.543	78.14941
0.5435	16.3147
0.544	-41.29028
0.5445	-91.8457
0.545	-101.11084
0.5455	-102.21863
0.546	-101.8158
0.5465	-53.77808
0.547	18.02673
0.5475	82.9834
0.548	154.98962
0.5485	190.53955
0.549	191.84875
0.5495	171.30432
0.55	138.07068
0.5505	107.85828
0.551	74.72534
0.5515	16.41541
0.552	-38.67188
0.5525	-63.14392
0.553	-73.71826
0.5535	-117.92908
0.554	-169.39087
0.5545	-152.47192
0.555	-90.23438
0.5555	-5.53894
0.556	80.56641
0.5565	157.30591
0.557	218.43567
0.5575	256.70471
0.558	264.86206
0.5585	248.44666
0.559	229.51355
0.5595	199.40186
0.56	179.05884
0.5605	140.08484
0.561	101.71509
0.5615	40.1825
0.562	-29.60815
0.5625	-126.89209
0.563	-218.33496
0.5635	-277.75269
0.564	-304.44031
0.5645	-320.15076
0.565	-315.41748
0.5655	-295.07446
0.566	-252.57568
0.5665	-219.64417
0.567	-227.6001
0.5675	-220.24841
0.568	-184.09424
0.5685	-141.09192
0.569	-112.49084
0.5695	-71.90552
0.57	-22.15576
0.5705	22.35718
0.571	31.21948
0.5715	15.00549
0.572	-21.45081
0.5725	-47.33276
0.573	-71.60339
0.5735	-90.63721
0.574	-89.52942
0.5745	-57.60498
0.575	-32.12585
0.5755	-14.09912
0.576	26.68762
0.5765	58.10852
0.577	79.96216
0.5775	113.09509
0.578	134.04236
0.5785	141.69617
0.579	147.53723
0.5795	135.35156
0.58	135.35156
0.5805	115.91492
0.581	87.41455
0.5815	68.58215
0.582	56.29578
0.5825	50.75684
0.583	44.61365
0.5835	27.99683
0.584	7.04956
0.5845	-43.90869
0.585	-86.50818
0.5855	-104.93774
0.586	-108.46252
0.5865	-107.05261
0.587	-95.87402
0.5875	-91.94641
0.588	-77.64587
0.5885	-52.97241
0.589	-28.80249
0.5895	3.62549
0.59	20.64514
0.5905	11.68213
0.591	-8.56018
0.5915	-12.5885
0.592	-25.98267
0.5925	-23.16284
0.593	-16.91895
0.5935	-0.30212
0.594	1.91345
0.5945	10.57434
0.595	44.91577
0.5955	51.5625
0.596	55.79224
0.5965	74.42322
0.597	91.04004
0.5975	117.82837
0.598	191.84875
0.5985	287.72278
0.599	381.58264
0.5995	486.92322
0.6	593.573
0.6005	682.19604
0.601	736.88049
0.6015	762.35962
0.602	740.60669
0.6025	673.43445
0.603	557.92236
0.6035	408.87451
0.604	230.01709
0.6045	44.31152
0.605	-143.60962
0.6055	-344.11926
0.606	-544.32678
0.6065	-715.93323
0.607	-845.94727
0.6075	-899.32251
0.608	-888.44604
0.6085	-763.87024
0.609	-611.1969
0.6095	-435.76355
0.61	-260.83374
0.6105	-97.48535
