Domenico_Di_Fonza_Left_2.c3d  



Time(s):	C_R_bicipite(μV):
0	-3.02124
0.0005	-6.3446
0.001	-5.94177
0.0015	-10.27222
0.002	-2.41699
0.0025	-1.10779
0.003	-5.74036
0.0035	-5.63965
0.004	-4.53186
0.0045	1.61133
0.005	-1.40991
0.0055	1.51062
0.006	3.8269
0.0065	5.43823
0.007	4.83398
0.0075	7.95593
0.008	8.35876
0.0085	6.44531
0.009	5.63965
0.0095	11.17859
0.01	10.47363
0.0105	7.25098
0.011	4.93469
0.0115	4.73328
0.012	5.94177
0.0125	3.12195
0.013	2.81982
0.0135	2.81982
0.014	6.44531
0.0145	2.11487
0.015	4.53186
0.0155	7.65381
0.016	2.81982
0.0165	-3.32336
0.017	-3.22266
0.0175	-5.94177
0.018	-8.15735
0.0185	-5.43823
0.019	-5.94177
0.0195	-6.44531
0.02	-5.23682
0.0205	-3.42407
0.021	-2.41699
0.0215	1.71204
0.022	-2.71912
0.0225	-1.81274
0.023	-0.80566
0.0235	-6.04248
0.024	-7.95593
0.0245	-5.53894
0.025	-4.53186
0.0255	-6.44531
0.026	-9.16443
0.0265	-8.35876
0.027	-4.02832
0.0275	-8.05664
0.028	-5.33752
0.0285	-7.5531
0.029	-12.48779
0.0295	-11.07788
0.03	-6.84814
0.0305	-3.12195
0.031	-3.8269
0.0315	0.30212
0.032	1.3092
0.0325	1.61133
0.033	-1.91345
0.0335	-0.20142
0.034	3.52478
0.0345	6.44531
0.035	0.30212
0.0355	5.0354
0.036	0
0.0365	6.14319
0.037	5.74036
0.0375	-0.80566
0.038	-4.83398
0.0385	2.71912
0.039	4.12903
0.0395	-2.81982
0.04	-4.22974
0.0405	0.70496
0.041	-1.00708
0.0415	4.22974
0.042	5.94177
0.0425	1.71204
0.043	0.40283
0.0435	2.61841
0.044	-2.92053
0.0445	-0.30212
0.045	-0.60425
0.0455	-1.00708
0.046	4.33044
0.0465	-0.90637
0.047	0.50354
0.0475	3.22266
0.048	3.02124
0.0485	4.02832
0.049	5.63965
0.0495	2.71912
0.05	1.81274
0.0505	-2.01416
0.051	8.25806
0.0515	7.15027
0.052	6.04248
0.0525	5.23682
0.053	2.92053
0.0535	-0.60425
0.054	3.62549
0.0545	5.63965
0.055	1.40991
0.0555	-1.51062
0.056	2.41699
0.0565	4.22974
0.057	2.01416
0.0575	7.45239
0.058	7.15027
0.0585	4.02832
0.059	5.53894
0.0595	5.13611
0.06	-5.33752
0.0605	0.40283
0.061	-2.61841
0.0615	-2.01416
0.062	0.80566
0.0625	-4.73328
0.063	-5.0354
0.0635	0.60425
0.064	0.30212
0.0645	1.00708
0.065	-0.10071
0.0655	-0.70496
0.066	-0.30212
0.0665	-1.71204
0.067	-7.95593
0.0675	-2.5177
0.068	-0.60425
0.0685	-4.93469
0.069	-6.04248
0.0695	-6.74744
0.07	-3.42407
0.0705	1.81274
0.071	4.33044
0.0715	-0.10071
0.072	-2.92053
0.0725	-3.02124
0.073	2.71912
0.0735	5.0354
0.074	-0.90637
0.0745	-0.20142
0.075	5.74036
0.0755	5.84106
0.076	-2.92053
0.0765	0.30212
0.077	0.20142
0.0775	3.7262
0.078	0.30212
0.0785	2.81982
0.079	2.61841
0.0795	2.5177
0.08	4.93469
0.0805	1.00708
0.081	-1.3092
0.0815	1.61133
0.082	3.92761
0.0825	-0.30212
0.083	-2.41699
0.0835	0.90637
0.084	-3.62549
0.0845	1.61133
0.085	-1.2085
0.0855	3.52478
0.086	-3.62549
0.0865	-4.73328
0.087	-8.8623
0.0875	-4.43115
0.088	-1.2085
0.0885	-5.43823
0.089	-4.12903
0.0895	-5.94177
0.09	0.70496
0.0905	-1.00708
0.091	-4.02832
0.0915	-5.0354
0.092	-1.10779
0.0925	-6.3446
0.093	-2.01416
0.0935	-5.43823
0.094	1.71204
0.0945	-0.80566
0.095	-1.51062
0.0955	-0.30212
0.096	-2.41699
0.0965	-2.01416
0.097	-3.12195
0.0975	1.00708
0.098	-3.62549
0.0985	2.92053
0.099	-1.51062
0.0995	-3.92761
0.1	-3.02124
0.1005	-8.96301
0.101	-7.25098
0.1015	-1.2085
0.102	2.81982
0.1025	5.23682
0.103	0.70496
0.1035	6.64673
0.104	8.8623
0.1045	10.27222
0.105	8.15735
0.1055	7.25098
0.106	4.53186
0.1065	5.53894
0.107	3.62549
0.1075	3.92761
0.108	-0.70496
0.1085	0.20142
0.109	1.00708
0.1095	-3.7262
0.11	-6.84814
0.1105	-0.70496
0.111	0.90637
0.1115	-3.52478
0.112	-2.21558
0.1125	-3.42407
0.113	3.8269
0.1135	-1.91345
0.114	0.90637
0.1145	2.21558
0.115	4.02832
0.1155	0.30212
0.116	1.40991
0.1165	1.61133
0.117	1.40991
0.1175	2.21558
0.118	2.81982
0.1185	4.53186
0.119	0.90637
0.1195	-6.2439
0.12	2.31628
0.1205	1.61133
0.121	3.62549
0.1215	-1.61133
0.122	4.53186
0.1225	1.71204
0.123	2.01416
0.1235	7.25098
0.124	2.21558
0.1245	-4.22974
0.125	-1.51062
0.1255	-4.33044
0.126	-11.17859
0.1265	-3.32336
0.127	-8.15735
0.1275	-8.05664
0.128	-2.41699
0.1285	-4.53186
0.129	-2.01416
0.1295	-4.53186
0.13	-6.94885
0.1305	-2.81982
0.131	0.80566
0.1315	-0.70496
0.132	3.42407
0.1325	4.33044
0.133	1.2085
0.1335	0.60425
0.134	5.0354
0.1345	1.2085
0.135	-0.90637
0.1355	-2.92053
0.136	-0.60425
0.1365	3.92761
0.137	4.83398
0.1375	-0.50354
0.138	-4.63257
0.1385	-3.02124
0.139	-4.33044
0.1395	-4.22974
0.14	-9.66797
0.1405	-6.54602
0.141	-7.45239
0.1415	-3.62549
0.142	-7.65381
0.1425	-5.84106
0.143	-6.74744
0.1435	-3.02124
0.144	-0.90637
0.1445	3.12195
0.145	8.25806
0.1455	4.12903
0.146	8.96301
0.1465	2.5177
0.147	4.02832
0.1475	0
0.148	1.71204
0.1485	0.50354
0.149	1.51062
0.1495	-4.93469
0.15	-2.5177
0.1505	-1.81274
0.151	4.43115
0.1515	4.02832
0.152	0.80566
0.1525	0.80566
0.153	3.52478
0.1535	5.63965
0.154	-3.12195
0.1545	1.3092
0.155	-0.90637
0.1555	1.51062
0.156	2.81982
0.1565	4.53186
0.157	2.21558
0.1575	0.20142
0.158	-2.01416
0.1585	-3.12195
0.159	-0.80566
0.1595	-7.5531
0.16	-3.12195
0.1605	-1.51062
0.161	-6.04248
0.1615	-7.85522
0.162	-8.05664
0.1625	-7.15027
0.163	-7.95593
0.1635	-1.61133
0.164	-0.20142
0.1645	-1.00708
0.165	-4.33044
0.1655	-3.02124
0.166	3.62549
0.1665	0.20142
0.167	2.11487
0.1675	7.65381
0.168	1.51062
0.1685	-0.20142
0.169	0.10071
0.1695	-2.21558
0.17	0.50354
0.1705	0.20142
0.171	3.62549
0.1715	6.3446
0.172	2.01416
0.1725	-0.10071
0.173	4.43115
0.1735	-0.60425
0.174	-3.7262
0.1745	0.30212
0.175	-4.43115
0.1755	-4.73328
0.176	-2.61841
0.1765	-4.22974
0.177	0.40283
0.1775	-2.01416
0.178	-1.81274
0.1785	-4.33044
0.179	-5.74036
0.1795	-3.32336
0.18	-0.10071
0.1805	1.91345
0.181	3.02124
0.1815	4.33044
0.182	2.61841
0.1825	5.74036
0.183	2.31628
0.1835	1.51062
0.184	-1.40991
0.1845	2.61841
0.185	4.63257
0.1855	5.63965
0.186	5.94177
0.1865	-1.40991
0.187	2.92053
0.1875	-1.61133
0.188	-2.11487
0.1885	0.20142
0.189	-2.41699
0.1895	-6.2439
0.19	-4.33044
0.1905	1.00708
0.191	-3.8269
0.1915	-4.63257
0.192	-4.22974
0.1925	-1.00708
0.193	0.40283
0.1935	-4.83398
0.194	-9.26514
0.1945	-10.77576
0.195	-4.53186
0.1955	-4.33044
0.196	-5.13611
0.1965	7.15027
0.197	1.10779
0.1975	0.40283
0.198	7.85522
0.1985	8.25806
0.199	7.65381
0.1995	2.81982
0.2	3.32336
0.2005	10.57434
0.201	6.64673
0.2015	4.43115
0.202	2.21558
0.2025	10.37292
0.203	10.67505
0.2035	9.26514
0.204	14.30054
0.2045	9.56726
0.205	11.98425
0.2055	6.74744
0.206	0.10071
0.2065	2.01416
0.207	4.33044
0.2075	6.44531
0.208	-2.5177
0.2085	0.30212
0.209	-2.61841
0.2095	-5.74036
0.21	-0.10071
0.2105	-5.0354
0.211	-2.71912
0.2115	-1.51062
0.212	-6.44531
0.2125	-4.73328
0.213	-6.64673
0.2135	-4.02832
0.214	-8.56018
0.2145	-8.25806
0.215	-5.13611
0.2155	0.60425
0.216	-4.53186
0.2165	-6.04248
0.217	-2.92053
0.2175	2.21558
0.218	0.20142
0.2185	-4.93469
0.219	-2.21558
0.2195	-6.3446
0.22	-3.62549
0.2205	-1.91345
0.221	1.51062
0.2215	-3.7262
0.222	-5.33752
0.2225	-8.15735
0.223	-5.63965
0.2235	-7.85522
0.224	-1.2085
0.2245	-6.84814
0.225	-11.58142
0.2255	-5.84106
0.226	-7.15027
0.2265	-4.12903
0.227	-7.5531
0.2275	-1.61133
0.228	-4.73328
0.2285	-2.92053
0.229	0
0.2295	0.20142
0.23	-1.00708
0.2305	2.21558
0.231	6.04248
0.2315	5.13611
0.232	-2.71912
0.2325	-0.50354
0.233	-0.30212
0.2335	0.10071
0.234	1.81274
0.2345	2.71912
0.235	4.22974
0.2355	4.83398
0.236	3.12195
0.2365	2.41699
0.237	5.0354
0.2375	4.53186
0.238	4.12903
0.2385	5.74036
0.239	4.63257
0.2395	-3.32336
0.24	0.60425
0.2405	0.20142
0.241	-1.91345
0.2415	2.81982
0.242	4.22974
0.2425	5.0354
0.243	2.31628
0.2435	1.00708
0.244	2.41699
0.2445	-2.81982
0.245	6.54602
0.2455	-1.00708
0.246	-2.5177
0.2465	-1.40991
0.247	3.02124
0.2475	7.25098
0.248	0.70496
0.2485	4.83398
0.249	3.52478
0.2495	-6.04248
0.25	-8.7616
0.2505	2.71912
0.251	-1.40991
0.2515	2.61841
0.252	-2.11487
0.2525	1.2085
0.253	1.91345
0.2535	-0.40283
0.254	-5.63965
0.2545	-6.74744
0.255	-9.56726
0.2555	-0.70496
0.256	-3.22266
0.2565	-5.84106
0.257	0.50354
0.2575	-1.91345
0.258	-0.80566
0.2585	-1.81274
0.259	-1.61133
0.2595	-4.43115
0.26	-5.33752
0.2605	-1.40991
0.261	3.7262
0.2615	2.01416
0.262	7.85522
0.2625	6.2439
0.263	8.66089
0.2635	4.22974
0.264	6.64673
0.2645	7.04956
0.265	7.45239
0.2655	2.61841
0.266	0.30212
0.2665	1.40991
0.267	6.14319
0.2675	1.10779
0.268	-0.50354
0.2685	-2.31628
0.269	0.60425
0.2695	-2.5177
0.27	0.10071
0.2705	2.81982
0.271	-3.8269
0.2715	-6.54602
0.272	-8.05664
0.2725	-4.02832
0.273	-0.60425
0.2735	0.80566
0.274	-3.32336
0.2745	-4.22974
0.275	-2.71912
0.2755	-1.40991
0.276	-5.63965
0.2765	-0.60425
0.277	-6.2439
0.2775	-2.31628
0.278	1.2085
0.2785	-2.11487
0.279	-4.12903
0.2795	-7.15027
0.28	-9.06372
0.2805	-7.25098
0.281	-5.63965
0.2815	-3.92761
0.282	-2.11487
0.2825	-5.74036
0.283	-8.66089
0.2835	-9.56726
0.284	-7.15027
0.2845	-7.5531
0.285	-5.94177
0.2855	-1.81274
0.286	-3.52478
0.2865	-4.83398
0.287	-4.63257
0.2875	1.61133
0.288	-3.42407
0.2885	-2.41699
0.289	1.91345
0.2895	-3.8269
0.29	1.91345
0.2905	4.73328
0.291	1.3092
0.2915	9.06372
0.292	12.38708
0.2925	10.27222
0.293	6.14319
0.2935	7.45239
0.294	6.74744
0.2945	6.3446
0.295	6.54602
0.2955	2.61841
0.296	10.37292
0.2965	4.12903
0.297	-0.90637
0.2975	8.15735
0.298	1.2085
0.2985	4.43115
0.299	2.61841
0.2995	-4.73328
0.3	-3.32336
0.3005	-3.92761
0.301	-4.12903
0.3015	0
0.302	-6.94885
0.3025	-5.43823
0.303	-5.84106
0.3035	-0.80566
0.304	-3.92761
0.3045	-3.7262
0.305	-8.35876
0.3055	-6.74744
0.306	-10.97717
0.3065	-9.97009
0.307	-3.52478
0.3075	-7.5531
0.308	-8.56018
0.3085	-9.16443
0.309	-4.12903
0.3095	-8.05664
0.31	-4.73328
0.3105	-4.43115
0.311	0.60425
0.3115	2.81982
0.312	6.64673
0.3125	12.28638
0.313	10.67505
0.3135	4.73328
0.314	7.95593
0.3145	3.12195
0.315	5.84106
0.3155	3.52478
0.316	8.25806
0.3165	5.84106
0.317	3.12195
0.3175	0.90637
0.318	3.52478
0.3185	-0.90637
0.319	1.71204
0.3195	2.71912
0.32	2.92053
0.3205	-1.00708
0.321	-1.00708
0.3215	-4.22974
0.322	4.02832
0.3225	4.93469
0.323	3.22266
0.3235	1.61133
0.324	2.81982
0.3245	-1.51062
0.325	-3.32336
0.3255	-3.42407
0.326	-4.33044
0.3265	-6.54602
0.327	-2.5177
0.3275	-3.62549
0.328	-0.60425
0.3285	-3.52478
0.329	-5.43823
0.3295	-6.74744
0.33	-2.81982
0.3305	-1.51062
0.331	3.02124
0.3315	3.02124
0.332	0.50354
0.3325	-5.63965
0.333	-2.71912
0.3335	2.21558
0.334	-1.81274
0.3345	-0.50354
0.335	2.21558
0.3355	-2.81982
0.336	-2.71912
0.3365	-6.64673
0.337	-4.83398
0.3375	-9.86938
0.338	-2.01416
0.3385	-5.13611
0.339	-0.90637
0.3395	-6.94885
0.34	1.61133
0.3405	6.94885
0.341	2.01416
0.3415	4.02832
0.342	8.35876
0.3425	0.50354
0.343	-0.40283
0.3435	3.92761
0.344	5.23682
0.3445	2.71912
0.345	1.61133
0.3455	-2.31628
0.346	-3.62549
0.3465	-3.8269
0.347	-0.30212
0.3475	-4.33044
0.348	-0.30212
0.3485	-2.61841
0.349	-3.02124
0.3495	-5.13611
0.35	5.0354
0.3505	5.63965
0.351	6.64673
0.3515	4.22974
0.352	-0.10071
0.3525	4.33044
0.353	3.8269
0.3535	4.22974
0.354	2.81982
0.3545	3.92761
0.355	3.12195
0.3555	-0.30212
0.356	0
0.3565	-6.04248
0.357	-2.21558
0.3575	-1.10779
0.358	1.51062
0.3585	4.02832
0.359	1.2085
0.3595	0.80566
0.36	-0.70496
0.3605	0.30212
0.361	-1.91345
0.3615	3.8269
0.362	2.11487
0.3625	3.62549
0.363	2.31628
0.3635	0.50354
0.364	-1.91345
0.3645	0.20142
0.365	-2.71912
0.3655	-1.61133
0.366	-4.02832
0.3665	-4.33044
0.367	0.90637
0.3675	-8.7616
0.368	-7.25098
0.3685	-6.64673
0.369	-3.12195
0.3695	-6.04248
0.37	-5.63965
0.3705	-4.02832
0.371	0.20142
0.3715	-3.62549
0.372	-0.50354
0.3725	-7.45239
0.373	2.5177
0.3735	0.80566
0.374	3.02124
0.3745	-2.11487
0.375	-0.70496
0.3755	1.91345
0.376	0.20142
0.3765	-2.41699
0.377	-0.50354
0.3775	5.84106
0.378	4.63257
0.3785	6.2439
0.379	3.02124
0.3795	-5.13611
0.38	0.90637
0.3805	3.62549
0.381	0.20142
0.3815	-1.51062
0.382	-4.02832
0.3825	-0.50354
0.383	-3.12195
0.3835	-2.11487
0.384	-4.12903
0.3845	-0.50354
0.385	-2.31628
0.3855	-1.00708
0.386	-3.22266
0.3865	0
0.387	-4.63257
0.3875	2.31628
0.388	-0.90637
0.3885	1.3092
0.389	1.61133
0.3895	-7.65381
0.39	-3.52478
0.3905	-1.81274
0.391	-0.10071
0.3915	-3.02124
0.392	2.92053
0.3925	2.01416
0.393	4.12903
0.3935	1.2085
0.394	3.12195
0.3945	1.61133
0.395	3.42407
0.3955	4.22974
0.396	-0.70496
0.3965	3.52478
0.397	2.21558
0.3975	5.23682
0.398	3.7262
0.3985	1.91345
0.399	-1.51062
0.3995	-1.71204
0.4	8.7616
0.4005	4.63257
0.401	2.21558
0.4015	2.92053
0.402	1.40991
0.4025	-0.40283
0.403	-0.30212
0.4035	-2.21558
0.404	-3.02124
0.4045	-1.2085
0.405	-7.04956
0.4055	-2.92053
0.406	-2.41699
0.4065	-6.04248
0.407	-4.63257
0.4075	-3.32336
0.408	-6.2439
0.4085	-4.93469
0.409	0.40283
0.4095	-5.94177
0.41	-5.74036
0.4105	-2.5177
0.411	-1.61133
0.4115	-2.21558
0.412	-0.40283
0.4125	-2.5177
0.413	-0.60425
0.4135	-2.71912
0.414	-3.42407
0.4145	-3.02124
0.415	-5.43823
0.4155	-0.50354
0.416	-2.81982
0.4165	-9.97009
0.417	-6.74744
0.4175	-0.20142
0.418	-5.84106
0.4185	-3.22266
0.419	-6.44531
0.4195	-3.8269
0.42	-1.71204
0.4205	-4.22974
0.421	1.81274
0.4215	3.22266
0.422	2.92053
0.4225	6.74744
0.423	3.12195
0.4235	4.33044
0.424	6.14319
0.4245	7.15027
0.425	-2.41699
0.4255	-5.63965
0.426	1.00708
0.4265	-4.22974
0.427	-4.33044
0.4275	-5.13611
0.428	-3.92761
0.4285	-1.2085
0.429	-2.92053
0.4295	-2.41699
0.43	1.71204
0.4305	6.44531
0.431	1.71204
0.4315	-0.50354
0.432	2.61841
0.4325	4.12903
0.433	2.21558
0.4335	0
0.434	3.7262
0.4345	1.61133
0.435	-2.21558
0.4355	-1.2085
0.436	0.80566
0.4365	2.21558
0.437	2.01416
0.4375	3.12195
0.438	-1.71204
0.4385	0.70496
0.439	4.83398
0.4395	5.13611
0.44	9.66797
0.4405	8.7616
0.441	4.63257
0.4415	8.66089
0.442	3.12195
0.4425	-1.40991
0.443	0.20142
0.4435	-2.01416
0.444	1.00708
0.4445	-3.62549
0.445	-3.92761
0.4455	-4.53186
0.446	-8.05664
0.4465	-5.63965
0.447	1.00708
0.4475	1.91345
0.448	0.90637
0.4485	-2.31628
0.449	-1.91345
0.4495	-3.32336
0.45	-3.22266
0.4505	-1.81274
0.451	-1.40991
0.4515	-4.22974
0.452	-2.71912
0.4525	-2.11487
0.453	3.32336
0.4535	1.10779
0.454	-7.45239
0.4545	-6.04248
0.455	-0.30212
0.4555	-6.3446
0.456	-4.63257
0.4565	2.41699
0.457	-3.12195
0.4575	3.8269
0.458	-3.62549
0.4585	2.81982
0.459	-0.10071
0.4595	-2.71912
0.46	3.12195
0.4605	-1.71204
0.461	-5.23682
0.4615	1.2085
0.462	-0.20142
0.4625	-2.21558
0.463	0.70496
0.4635	1.91345
0.464	-0.60425
0.4645	-0.70496
0.465	-4.02832
0.4655	-6.3446
0.466	0.30212
0.4665	-3.22266
0.467	-1.51062
0.4675	0.10071
0.468	3.52478
0.4685	6.14319
0.469	5.0354
0.4695	2.01416
0.47	-2.71912
0.4705	1.61133
0.471	3.8269
0.4715	0.30212
0.472	1.51062
0.4725	4.53186
0.473	1.3092
0.4735	-3.7262
0.474	-1.61133
0.4745	-5.0354
0.475	-5.13611
0.4755	-7.5531
0.476	-4.22974
0.4765	-0.50354
0.477	-1.61133
0.4775	0.90637
0.478	3.62549
0.4785	-2.31628
0.479	-0.20142
0.4795	-0.40283
0.48	3.52478
0.4805	-1.40991
0.481	0.70496
0.4815	3.7262
0.482	9.46655
0.4825	6.3446
0.483	8.35876
0.4835	1.61133
0.484	1.61133
0.4845	5.0354
0.485	6.14319
0.4855	5.63965
0.486	-2.01416
0.4865	5.23682
0.487	0.90637
0.4875	2.31628
0.488	-3.42407
0.4885	2.31628
0.489	-6.64673
0.4895	0
0.49	4.43115
0.4905	-2.21558
0.491	-0.40283
0.4915	-3.42407
0.492	-0.70496
0.4925	-1.00708
0.493	2.21558
0.4935	0.70496
0.494	-1.61133
0.4945	-2.61841
0.495	0.40283
0.4955	1.00708
0.496	2.92053
0.4965	-2.71912
0.497	1.81274
0.4975	0.90637
0.498	-1.3092
0.4985	0.60425
0.499	-2.92053
0.4995	-7.65381
0.5	-5.0354
0.5005	-4.33044
0.501	-2.21558
0.5015	-7.25098
0.502	-1.61133
0.5025	-2.71912
0.503	-6.3446
0.5035	-8.96301
0.504	-5.63965
0.5045	2.71912
0.505	1.2085
0.5055	-3.8269
0.506	-6.14319
0.5065	-7.5531
0.507	-3.7262
0.5075	5.94177
0.508	-0.20142
0.5085	4.12903
0.509	3.22266
0.5095	-1.81274
0.51	2.61841
0.5105	8.15735
0.511	2.92053
0.5115	8.8623
0.512	4.12903
0.5125	2.61841
0.513	6.2439
0.5135	1.61133
0.514	2.01416
0.5145	2.11487
0.515	0.40283
0.5155	6.54602
0.516	5.53894
0.5165	1.91345
0.517	5.74036
0.5175	7.15027
0.518	4.83398
0.5185	-0.10071
0.519	-3.22266
0.5195	-2.01416
0.52	-2.92053
0.5205	0.50354
0.521	-0.60425
0.5215	-10.0708
0.522	-9.26514
0.5225	-3.42407
0.523	-8.35876
0.5235	-8.45947
0.524	-9.36584
0.5245	-8.25806
0.525	-11.07788
0.5255	-12.99133
0.526	-15.50903
0.5265	-12.28638
0.527	-9.46655
0.5275	-11.58142
0.528	-11.78284
0.5285	-9.46655
0.529	-8.45947
0.5295	-5.23682
0.53	-7.95593
0.5305	-2.01416
0.531	-2.21558
0.5315	-1.2085
0.532	3.32336
0.5325	5.13611
0.533	4.12903
0.5335	5.0354
0.534	11.98425
0.5345	3.92761
0.535	5.0354
0.5355	2.71912
0.536	2.31628
0.5365	-0.60425
0.537	3.7262
0.5375	3.32336
0.538	7.35168
0.5385	5.53894
0.539	-0.50354
0.5395	-2.61841
0.54	5.94177
0.5405	3.92761
0.541	4.83398
0.5415	0.80566
0.542	-1.40991
0.5425	-3.52478
0.543	0.70496
0.5435	-3.32336
0.544	-6.04248
0.5445	-8.05664
0.545	-9.66797
0.5455	-6.04248
0.546	-11.48071
0.5465	-10.57434
0.547	-7.5531
0.5475	-9.97009
0.548	-5.23682
0.5485	-7.25098
0.549	-8.66089
0.5495	-4.73328
0.55	-1.61133
0.5505	-4.53186
0.551	-9.16443
0.5515	-3.52478
0.552	-5.63965
0.5525	-9.36584
0.553	-4.33044
0.5535	0
0.554	-0.20142
0.5545	-0.50354
0.555	1.61133
0.5555	0.90637
0.556	-3.52478
0.5565	-7.95593
0.557	1.3092
0.5575	-6.64673
0.558	-3.22266
0.5585	-0.50354
0.559	-3.22266
0.5595	-4.33044
0.56	-7.04956
0.5605	-3.32336
0.561	-1.3092
0.5615	-5.94177
0.562	2.81982
0.5625	-1.71204
0.563	-3.12195
0.5635	0
0.564	2.31628
0.5645	1.51062
0.565	0.50354
0.5655	-0.60425
0.566	0.60425
0.5665	2.31628
0.567	0.20142
0.5675	0.10071
0.568	9.16443
0.5685	8.45947
0.569	3.52478
0.5695	1.61133
0.57	1.40991
0.5705	-0.40283
0.571	-2.61841
0.5715	0.40283
0.572	-0.10071
0.5725	-0.60425
0.573	1.61133
0.5735	-3.32336
0.574	-4.73328
0.5745	-2.61841
0.575	-3.92761
0.5755	1.00708
0.576	-0.20142
0.5765	-1.10779
0.577	-5.0354
0.5775	-2.61841
0.578	0
0.5785	-2.31628
0.579	-3.8269
0.5795	-2.71912
0.58	-1.10779
0.5805	0.90637
0.581	-2.21558
0.5815	-6.44531
0.582	-2.01416
0.5825	-3.02124
0.583	-4.43115
0.5835	0.30212
0.584	-3.7262
0.5845	-1.3092
0.585	-2.61841
0.5855	-2.11487
0.586	-3.02124
0.5865	-1.3092
0.587	-7.04956
0.5875	-4.83398
0.588	-1.2085
0.5885	-4.53186
0.589	-4.43115
0.5895	-4.63257
0.59	-6.2439
0.5905	-2.81982
0.591	-3.42407
0.5915	-0.10071
0.592	-4.22974
0.5925	-5.84106
0.593	-2.21558
0.5935	-1.61133
0.594	6.14319
0.5945	7.65381
0.595	3.02124
0.5955	0.10071
0.596	2.21558
0.5965	3.8269
0.597	4.43115
0.5975	-4.53186
0.598	1.81274
0.5985	0.40283
0.599	-2.61841
0.5995	-0.20142
0.6	0.50354
0.6005	7.35168
0.601	1.61133
0.6015	5.0354
0.602	-1.51062
0.6025	0.60425
0.603	0.40283
0.6035	-3.02124
0.604	-2.71912
0.6045	-3.12195
0.605	-5.13611
0.6055	-4.02832
0.606	-4.83398
0.6065	-7.04956
0.607	-6.54602
0.6075	-12.28638
0.608	-6.64673
0.6085	-9.56726
0.609	-6.54602
0.6095	-6.44531
0.61	-5.23682
0.6105	0.60425
0.611	2.41699
0.6115	-2.71912
0.612	-0.60425
0.6125	5.74036
0.613	8.05664
0.6135	8.56018
0.614	14.30054
0.6145	4.93469
0.615	5.94177
0.6155	4.12903
0.616	-1.51062
0.6165	2.71912
0.617	0.70496
0.6175	2.92053
0.618	1.00708
0.6185	-0.30212
0.619	-3.42407
0.6195	-2.92053
0.62	-0.90637
0.6205	-3.52478
0.621	-7.35168
0.6215	-1.51062
0.622	-6.84814
0.6225	-10.97717
0.623	-5.13611
0.6235	-5.74036
0.624	-6.04248
0.6245	-12.89062
0.625	-2.11487
0.6255	-9.06372
0.626	-4.73328
0.6265	-8.15735
0.627	-4.53186
0.6275	-5.53894
0.628	-4.43115
0.6285	-4.43115
0.629	-1.00708
0.6295	-2.5177
0.63	-2.71912
0.6305	-1.71204
0.631	-0.40283
0.6315	6.44531
0.632	0.90637
0.6325	-1.71204
0.633	2.01416
0.6335	2.31628
0.634	1.81274
0.6345	0
0.635	7.75452
0.6355	5.84106
0.636	-3.12195
0.6365	-1.71204
0.637	-6.14319
0.6375	-4.73328
0.638	-6.2439
0.6385	-6.84814
0.639	-6.64673
0.6395	-3.7262
0.64	-8.45947
0.6405	-7.85522
0.641	-9.36584
0.6415	-6.74744
0.642	-4.02832
0.6425	-3.02124
0.643	-1.91345
0.6435	-3.52478
0.644	-6.04248
0.6445	2.41699
0.645	-1.2085
0.6455	-2.41699
0.646	1.3092
0.6465	1.2085
0.647	6.3446
0.6475	3.7262
0.648	3.7262
0.6485	3.8269
0.649	3.62549
0.6495	3.32336
0.65	3.92761
0.6505	5.84106
0.651	-0.10071
0.6515	0
0.652	0.10071
0.6525	0.30212
0.653	3.12195
0.6535	2.81982
0.654	3.52478
0.6545	1.91345
0.655	5.74036
0.6555	2.11487
0.656	6.2439
0.6565	5.23682
0.657	1.3092
0.6575	3.02124
0.658	-0.30212
0.6585	3.02124
0.659	4.43115
0.6595	-4.63257
0.66	0.30212
0.6605	-3.32336
0.661	0.80566
0.6615	-7.95593
0.662	-5.23682
0.6625	-7.5531
0.663	-9.26514
0.6635	-9.26514
0.664	-12.68921
0.6645	-12.28638
0.665	-12.28638
0.6655	-7.25098
0.666	-5.0354
0.6665	-5.33752
0.667	-6.64673
0.6675	-5.13611
0.668	-2.5177
0.6685	-3.52478
0.669	1.10779
0.6695	0.10071
0.67	-0.60425
0.6705	-0.40283
0.671	-2.31628
0.6715	3.32336
0.672	6.74744
0.6725	7.25098
0.673	3.7262
0.6735	4.33044
0.674	0.20142
0.6745	1.61133
0.675	1.51062
0.6755	0
0.676	-3.7262
0.6765	-1.91345
0.677	-1.71204
0.6775	2.81982
0.678	1.3092
0.6785	-3.42407
0.679	6.44531
0.6795	4.12903
0.68	0.80566
0.6805	-3.32336
0.681	0.30212
0.6815	-2.41699
0.682	-2.41699
0.6825	-3.42407
0.683	-6.74744
0.6835	-3.22266
0.684	-8.35876
0.6845	-6.14319
0.685	0.50354
0.6855	-0.90637
0.686	-1.40991
0.6865	-3.22266
0.687	2.31628
0.6875	-2.92053
0.688	1.40991
0.6885	2.11487
0.689	1.91345
0.6895	-8.66089
0.69	-4.22974
0.6905	-2.11487
0.691	-3.12195
0.6915	-3.7262
0.692	-0.70496
0.6925	-3.7262
0.693	-0.90637
0.6935	-1.10779
0.694	-0.70496
0.6945	-4.63257
0.695	-2.81982
0.6955	1.91345
0.696	-1.40991
0.6965	-7.65381
0.697	-2.71912
0.6975	-2.5177
0.698	-8.05664
0.6985	-10.67505
0.699	-6.94885
0.6995	-9.86938
0.7	-4.43115
0.7005	-3.22266
0.701	-8.35876
0.7015	-4.63257
0.702	-7.85522
0.7025	-10.97717
0.703	-12.48779
0.7035	-10.17151
0.704	-10.67505
0.7045	-0.20142
0.705	-0.40283
0.7055	1.51062
0.706	0.50354
0.7065	5.84106
0.707	3.32336
0.7075	9.46655
0.708	11.07788
0.7085	9.06372
0.709	8.56018
0.7095	9.36584
0.71	12.08496
0.7105	13.09204
0.711	6.44531
0.7115	5.74036
0.712	4.63257
0.7125	8.66089
0.713	4.33044
0.7135	7.95593
0.714	7.45239
0.7145	10.17151
0.715	3.8269
0.7155	6.2439
0.716	0.30212
0.7165	5.94177
0.717	7.75452
0.7175	7.45239
0.718	0.60425
0.7185	-0.20142
0.719	-2.11487
0.7195	-5.13611
0.72	1.00708
0.7205	-0.70496
0.721	-4.22974
0.7215	1.10779
0.722	3.8269
0.7225	1.81274
0.723	2.5177
0.7235	-1.81274
0.724	1.61133
0.7245	2.01416
0.725	0.60425
0.7255	1.61133
0.726	-0.70496
0.7265	-1.71204
0.727	-3.12195
0.7275	0.20142
0.728	1.40991
0.7285	-0.70496
0.729	-3.02124
0.7295	0.30212
0.73	0.70496
0.7305	0.60425
0.731	1.2085
0.7315	0
0.732	2.11487
0.7325	0.70496
0.733	3.62549
0.7335	5.63965
0.734	6.2439
0.7345	-2.5177
0.735	-1.81274
0.7355	2.31628
0.736	-1.91345
0.7365	2.92053
0.737	6.54602
0.7375	3.52478
0.738	3.7262
0.7385	1.91345
0.739	-0.90637
0.7395	-2.11487
0.74	-2.61841
0.7405	-5.84106
0.741	-8.05664
0.7415	-3.7262
0.742	-2.81982
0.7425	1.00708
0.743	-2.11487
0.7435	-5.33752
0.744	-0.10071
0.7445	-0.50354
0.745	1.00708
0.7455	0.60425
0.746	-2.81982
0.7465	0
0.747	1.40991
0.7475	-0.90637
0.748	6.74744
0.7485	5.13611
0.749	5.74036
0.7495	-7.35168
0.75	4.43115
0.7505	-2.21558
0.751	3.92761
0.7515	1.91345
0.752	4.12903
0.7525	3.92761
0.753	4.53186
0.7535	0.20142
0.754	0.60425
0.7545	0.40283
0.755	4.22974
0.7555	-3.7262
0.756	0.80566
0.7565	1.40991
0.757	3.22266
0.7575	-2.41699
0.758	0.70496
0.7585	-1.51062
0.759	-3.02124
0.7595	-5.53894
0.76	-0.40283
0.7605	0
0.761	-4.12903
0.7615	-1.10779
0.762	-3.8269
0.7625	-6.2439
0.763	-9.56726
0.7635	-4.22974
0.764	-8.45947
0.7645	-4.33044
0.765	-11.2793
0.7655	-10.17151
0.766	-12.18567
0.7665	-9.26514
0.767	-7.65381
0.7675	-2.61841
0.768	-2.71912
0.7685	-5.0354
0.769	-2.01416
0.7695	-6.94885
0.77	-2.61841
0.7705	3.22266
0.771	2.31628
0.7715	4.83398
0.772	7.45239
0.7725	4.43115
0.773	3.52478
0.7735	-2.21558
0.774	1.61133
0.7745	-4.22974
0.775	-6.2439
0.7755	-1.61133
0.776	-6.04248
0.7765	4.02832
0.777	1.00708
0.7775	7.04956
0.778	5.13611
0.7785	10.27222
0.779	3.32336
0.7795	-0.80566
0.78	-1.71204
0.7805	-2.81982
0.781	-6.2439
0.7815	-11.2793
0.782	-10.77576
0.7825	-16.81824
0.783	-22.15576
0.7835	-31.52161
0.784	-39.17542
0.7845	-51.36108
0.785	-78.35083
0.7855	-108.66394
0.786	-121.45386
0.7865	-124.57581
0.787	-116.41846
0.7875	-97.98889
0.788	-73.21472
0.7885	-47.03064
0.789	-13.09204
0.7895	14.50195
0.79	49.54834
0.7905	77.24304
0.791	107.95898
0.7915	123.56873
0.792	92.65137
0.7925	54.28162
0.793	31.72302
0.7935	4.12903
0.794	-40.2832
0.7945	-64.65454
0.795	-64.85596
0.7955	-56.79932
0.796	-47.23206
0.7965	-27.79541
0.797	-2.71912
0.7975	16.61682
0.798	34.54285
0.7985	53.47595
0.799	68.48145
0.7995	75.73242
0.8	96.7804
0.8005	103.02429
0.801	103.62854
0.8015	89.52942
0.802	81.7749
0.8025	72.9126
0.803	57.60498
0.8035	38.67188
0.804	32.83081
0.8045	32.93152
0.805	32.42798
0.8055	30.41382
0.806	28.70178
0.8065	12.89062
0.807	-0.60425
0.8075	-9.06372
0.808	-11.48071
0.8085	-14.30054
0.809	-19.94019
0.8095	-22.05505
0.81	-14.80408
0.8105	-10.67505
0.811	-7.04956
0.8115	-4.53186
0.812	-4.63257
0.8125	10.47363
0.813	17.52319
0.8135	24.27063
0.814	22.6593
0.8145	26.58691
0.815	16.71753
0.8155	17.42249
0.816	24.06921
0.8165	19.03381
0.817	12.68921
0.8175	13.69629
0.818	12.28638
0.8185	4.33044
0.819	-1.51062
0.8195	-5.63965
0.82	-2.61841
0.8205	-2.71912
0.821	-5.94177
0.8215	-6.54602
0.822	-12.5885
0.8225	-7.15027
0.823	-6.94885
0.8235	-8.15735
0.824	-7.35168
0.8245	-1.71204
0.825	-5.53894
0.8255	-8.56018
0.826	-11.38
0.8265	-13.797
0.827	-12.18567
0.8275	-17.32178
0.828	-20.34302
0.8285	-48.64197
0.829	-61.43188
0.8295	-76.03455
0.83	-76.03455
0.8305	-66.97083
0.831	-58.71277
0.8315	-45.72144
0.832	-33.23364
0.8325	-22.76001
0.833	-10.87646
0.8335	-5.43823
0.834	-0.10071
0.8345	14.70337
0.835	19.53735
0.8355	23.16284
0.836	24.67346
0.8365	20.94727
0.837	18.42957
0.8375	15.1062
0.838	16.71753
0.8385	13.09204
0.839	27.49329
0.8395	32.02515
0.84	37.46338
0.8405	43.50586
0.841	45.52002
0.8415	41.99524
0.842	24.37134
0.8425	3.92761
0.843	-8.45947
0.8435	-18.12744
0.844	-19.23523
0.8445	-21.55151
0.845	-28.60107
0.8455	-22.6593
0.846	-20.94727
0.8465	-13.09204
0.847	-9.36584
0.8475	-2.71912
0.848	0.30212
0.8485	6.2439
0.849	23.16284
0.8495	24.47205
0.85	33.83789
0.8505	42.29736
0.851	46.12427
0.8515	48.44055
0.852	43.40515
0.8525	36.65771
0.853	27.89612
0.8535	23.36426
0.854	19.83948
0.8545	12.38708
0.855	15.40833
0.8555	11.17859
0.856	8.15735
0.8565	-0.90637
0.857	-11.17859
0.8575	-11.98425
0.858	-5.43823
0.8585	-8.45947
0.859	-10.47363
0.8595	-18.63098
0.86	-23.26355
0.8605	-20.64514
0.861	-24.57275
0.8615	-27.39258
0.862	-21.14868
0.8625	-24.37134
0.863	-29.80957
0.8635	-23.26355
0.864	-18.73169
0.8645	-11.17859
0.865	-5.33752
0.8655	-4.33044
0.866	2.11487
0.8665	6.54602
0.867	9.36584
0.8675	19.73877
0.868	16.3147
0.8685	12.78992
0.869	15.1062
0.8695	19.13452
0.87	12.99133
0.8705	14.70337
0.871	11.38
0.8715	9.66797
0.872	-2.11487
0.8725	-7.85522
0.873	-3.22266
0.8735	-4.73328
0.874	-7.85522
0.8745	-10.87646
0.875	-11.68213
0.8755	-7.95593
0.876	-7.04956
0.8765	-7.35168
0.877	-2.11487
0.8775	0.90637
0.878	-2.5177
0.8785	-2.21558
0.879	3.02124
0.8795	-0.50354
0.88	4.83398
0.8805	-7.04956
0.881	0.10071
0.8815	-7.35168
0.882	-5.43823
0.8825	-6.44531
0.883	1.00708
0.8835	0.90637
0.884	6.3446
0.8845	6.04248
0.885	4.12903
0.8855	4.73328
0.886	-2.41699
0.8865	-0.80566
0.887	-2.41699
0.8875	-1.3092
0.888	-2.41699
0.8885	-2.41699
0.889	-5.74036
0.8895	-2.71912
0.89	-1.51062
0.8905	4.63257
0.891	-2.01416
0.8915	2.81982
0.892	-0.30212
0.8925	-0.70496
0.893	3.32336
0.8935	-2.5177
0.894	-2.5177
0.8945	-10.47363
0.895	-8.15735
0.8955	-11.98425
0.896	-9.66797
0.8965	-10.77576
0.897	-2.92053
0.8975	-0.70496
0.898	-1.71204
0.8985	0.20142
0.899	-3.7262
0.8995	-27.39258
0.9	-52.06604
0.9005	-67.37366
0.901	-63.64746
0.9015	-60.12268
0.902	-51.05896
0.9025	-41.69312
0.903	-33.43506
0.9035	-17.92603
0.904	-0.30212
0.9045	19.33594
0.905	32.62939
0.9055	35.2478
0.906	37.66479
0.9065	36.05347
0.907	38.77258
0.9075	37.36267
0.908	30.31311
0.9085	24.97559
0.909	20.1416
0.9095	14.09912
0.91	15.81116
0.9105	10.17151
0.911	9.36584
0.9115	10.0708
0.912	13.99841
0.9125	17.12036
0.913	16.3147
0.9135	16.11328
0.914	5.43823
0.9145	2.5177
0.915	0.90637
0.9155	4.93469
0.916	11.2793
0.9165	15.00549
0.917	11.68213
0.9175	9.86938
0.918	6.44531
0.9185	2.31628
0.919	-1.10779
0.9195	-9.66797
0.92	-3.22266
0.9205	-2.21558
0.921	1.40991
0.9215	1.71204
0.922	-2.5177
0.9225	-0.90637
0.923	-2.81982
0.9235	0.70496
0.924	-2.81982
0.9245	-0.60425
0.925	-1.40991
0.9255	6.3446
0.926	-0.20142
0.9265	-7.65381
0.927	-10.57434
0.9275	-7.15027
0.928	-5.94177
0.9285	0.10071
0.929	1.81274
0.9295	1.10779
0.93	5.84106
0.9305	1.71204
0.931	-4.83398
0.9315	-2.81982
0.932	-4.93469
0.9325	-2.71912
0.933	-3.7262
0.9335	-2.01416
0.934	-1.10779
0.9345	0.40283
0.935	2.01416
0.9355	0.10071
0.936	5.74036
0.9365	1.40991
0.937	-6.04248
0.9375	-3.92761
0.938	-8.56018
0.9385	-9.66797
0.939	-8.35876
0.9395	-14.30054
0.94	-18.02673
0.9405	-27.19116
0.941	-27.6947
0.9415	-22.25647
0.942	-20.34302
0.9425	-41.08887
0.943	-58.71277
0.9435	-63.94958
0.944	-66.26587
0.9445	-52.06604
0.945	-41.18958
0.9455	-24.27063
0.946	-2.21558
0.9465	19.73877
0.947	34.84497
0.9475	49.24622
0.948	60.22339
0.9485	60.22339
0.949	66.97083
0.9495	69.28711
0.95	65.96375
0.9505	57.60498
0.951	43.70728
0.9515	28.80249
0.952	15.20691
0.9525	10.37292
0.953	5.43823
0.9535	8.05664
0.954	2.61841
0.9545	-2.5177
0.955	-3.8269
0.9555	-8.8623
0.956	-18.73169
0.9565	-26.08337
0.957	-28.50037
0.9575	-33.63647
0.958	-27.09045
0.9585	-24.57275
0.959	-23.8678
0.9595	-18.32886
0.96	-14.70337
0.9605	-7.75452
0.961	-7.35168
0.9615	-3.42407
0.962	-0.40283
0.9625	5.53894
0.963	8.45947
0.9635	23.16284
0.964	22.6593
0.9645	25.98267
0.965	31.72302
0.9655	32.93152
0.966	30.91736
0.9665	29.00391
0.967	25.27771
0.9675	16.71753
0.968	11.07788
0.9685	8.05664
0.969	9.16443
0.9695	1.3092
0.97	2.92053
0.9705	-0.60425
0.971	-7.25098
0.9715	-4.33044
0.972	-0.50354
0.9725	-1.2085
0.973	-0.10071
0.9735	-6.2439
0.974	-4.12903
0.9745	-0.30212
0.975	0
0.9755	-0.70496
0.976	0.40283
0.9765	-3.8269
0.977	-3.8269
0.9775	-2.81982
0.978	0.90637
0.9785	1.61133
0.979	-5.84106
0.9795	-1.81274
0.98	-1.61133
0.9805	-0.60425
0.981	0.90637
0.9815	-1.81274
0.982	-2.81982
0.9825	-6.2439
0.983	-14.30054
0.9835	-16.91895
0.984	-22.45789
0.9845	-26.88904
0.985	-30.31311
0.9855	-25.37842
0.986	-24.97559
0.9865	-20.04089
0.987	-29.10461
0.9875	-17.52319
0.988	-10.27222
0.9885	-3.7262
0.989	1.2085
0.9895	0.10071
0.99	13.797
0.9905	9.66797
0.991	13.99841
0.9915	17.22107
0.992	21.45081
0.9925	19.83948
0.993	23.06213
0.9935	23.56567
0.994	15.81116
0.9945	16.81824
0.995	15.20691
0.9955	10.67505
0.996	7.04956
0.9965	5.33752
0.997	-0.40283
0.9975	-0.70496
0.998	-12.68921
0.9985	-6.94885
0.999	-8.25806
0.9995	-10.57434
1	-7.45239
1.0005	-6.14319
1.001	-6.64673
1.0015	-5.53894
1.002	-10.67505
1.0025	-7.5531
1.003	-7.15027
1.0035	-10.57434
1.004	-4.63257
1.0045	-3.12195
1.005	-6.64673
1.0055	-7.75452
1.006	-7.95593
1.0065	-9.86938
1.007	-1.40991
1.0075	-3.42407
1.008	-0.90637
1.0085	2.21558
1.009	3.62549
1.0095	-9.06372
1.01	-28.80249
1.0105	-30.71594
1.011	-30.71594
1.0115	-27.19116
1.012	-25.68054
1.0125	-22.05505
1.013	-21.04797
1.0135	-14.50195
1.014	-10.17151
1.0145	-4.53186
1.015	6.94885
1.0155	22.15576
1.016	25.88196
1.0165	26.58691
1.017	33.03223
1.0175	38.77258
1.018	42.59949
1.0185	36.65771
1.019	33.73718
1.0195	30.61523
1.02	29.40674
1.0205	20.44373
1.021	14.50195
1.0215	12.08496
1.022	10.27222
1.0225	2.61841
1.023	6.64673
1.0235	5.43823
1.024	-1.71204
1.0245	-13.49487
1.025	-10.27222
1.0255	-7.75452
1.026	-3.52478
1.0265	-2.41699
1.027	-2.81982
1.0275	-3.32336
1.028	-9.46655
1.0285	-6.04248
1.029	-1.40991
1.0295	1.00708
1.03	-1.91345
1.0305	-6.54602
1.031	-8.56018
1.0315	-10.57434
1.032	-17.32178
1.0325	-19.43665
1.033	-23.56567
1.0335	-17.52319
1.034	-15.30762
1.0345	-13.29346
1.035	-17.72461
1.0355	-15.50903
1.036	-14.40125
1.0365	-17.72461
1.037	-12.5885
1.0375	-8.66089
1.038	-5.94177
1.0385	-7.65381
1.039	-10.47363
1.0395	-7.45239
1.04	-4.63257
1.0405	0.80566
1.041	0.30212
1.0415	2.01416
1.042	7.04956
1.0425	5.84106
1.043	12.48779
1.0435	9.16443
1.044	11.58142
1.0445	9.76868
1.045	6.54602
1.0455	3.62549
1.046	4.63257
1.0465	5.94177
1.047	16.51611
1.0475	19.94019
1.048	16.01257
1.0485	14.19983
1.049	9.56726
1.0495	4.02832
1.05	7.04956
1.0505	5.13611
1.051	7.04956
1.0515	1.40991
1.052	1.2085
1.0525	0.30212
1.053	1.61133
1.0535	-0.80566
1.054	-5.13611
1.0545	-0.50354
1.055	-1.91345
1.0555	-2.21558
1.056	-2.01416
1.0565	0.60425
1.057	-2.11487
1.0575	-9.26514
1.058	-9.97009
1.0585	-13.59558
1.059	-8.7616
1.0595	-16.01257
1.06	-12.99133
1.0605	-13.99841
1.061	-9.97009
1.0615	-7.65381
1.062	-6.04248
1.0625	-4.12903
1.063	-4.12903
1.0635	-6.2439
1.064	-2.31628
1.0645	-4.12903
1.065	-2.61841
1.0655	1.00708
1.066	5.53894
1.0665	7.65381
1.067	8.8623
1.0675	6.74744
1.068	5.94177
1.0685	11.2793
1.069	6.04248
1.0695	6.64673
1.07	5.13611
1.0705	3.7262
1.071	1.91345
1.0715	1.71204
1.072	0.30212
1.0725	-5.43823
1.073	-7.15027
1.0735	-6.84814
1.074	-7.25098
1.0745	-6.04248
1.075	-10.37292
1.0755	-13.99841
1.076	-14.60266
1.0765	-14.19983
1.077	-13.797
1.0775	-15.91187
1.078	-45.62073
1.0785	-81.57349
1.079	-96.8811
1.0795	-96.67969
1.08	-78.35083
1.0805	-59.71985
1.081	-41.99524
1.0815	-22.6593
1.082	-0.70496
1.0825	23.66638
1.083	41.89453
1.0835	57.20215
1.084	70.29419
1.0845	82.47986
1.085	84.49402
1.0855	79.66003
1.086	76.94092
1.0865	49.64905
1.087	0.10071
1.0875	-37.46338
1.088	-58.30994
1.0885	-71.50269
1.089	-76.43738
1.0895	-77.84729
1.09	-67.47437
1.0905	-61.33118
1.091	-50.65613
1.0915	-48.94409
1.092	-26.68762
1.0925	-9.56726
1.093	8.25806
1.0935	31.11877
1.094	43.50586
1.0945	48.84338
1.095	56.5979
1.0955	52.16675
1.096	39.27612
1.0965	31.62231
1.097	13.99841
1.0975	13.797
1.098	-1.71204
1.0985	0.50354
1.099	-1.40991
1.0995	-6.64673
1.1	3.12195
1.1005	4.93469
1.101	-1.2085
1.1015	2.92053
1.102	4.93469
1.1025	13.89771
1.103	26.58691
1.1035	30.41382
1.104	30.31311
1.1045	47.63489
1.105	45.52002
1.1055	43.40515
1.106	44.11011
1.1065	45.11719
1.107	41.29028
1.1075	30.61523
1.108	31.92444
1.1085	21.85364
1.109	17.22107
1.1095	13.09204
1.11	7.35168
1.1105	-7.95593
1.111	-8.8623
1.1115	-11.48071
1.112	-12.08496
1.1125	-16.21399
1.113	-17.82532
1.1135	-13.29346
1.114	-15.81116
1.1145	-15.00549
1.115	-17.82532
1.1155	-19.83948
1.116	-17.82532
1.1165	-15.20691
1.117	-13.89771
1.1175	-8.05664
1.118	-14.09912
1.1185	-9.36584
1.119	-14.09912
1.1195	-6.44531
1.12	-8.35876
1.1205	-7.65381
1.121	-3.42407
1.1215	-4.43115
1.122	-5.53894
1.1225	-3.12195
1.123	-3.42407
1.1235	-9.86938
1.124	-9.97009
1.1245	-11.78284
1.125	-9.16443
1.1255	-4.63257
1.126	-9.26514
1.1265	-0.10071
1.127	-6.54602
1.1275	-2.92053
1.128	-12.08496
1.1285	-6.64673
1.129	-10.37292
1.1295	-17.22107
1.13	-16.91895
1.1305	-19.33594
1.131	-18.22815
1.1315	-9.66797
1.132	-4.53186
1.1325	-2.41699
1.133	-1.3092
1.1335	-0.30212
1.134	-0.50354
1.1345	1.10779
1.135	5.43823
1.1355	12.28638
1.136	15.00549
1.1365	10.87646
1.137	11.98425
1.1375	16.81824
1.138	17.01965
1.1385	9.46655
1.139	11.98425
1.1395	14.30054
1.14	16.01257
1.1405	8.66089
1.141	17.42249
1.1415	12.38708
1.142	6.94885
1.1425	-0.40283
1.143	3.32336
1.1435	-5.33752
1.144	3.92761
1.1445	0.60425
1.145	6.3446
1.1455	-3.12195
1.146	1.3092
1.1465	-1.40991
1.147	-3.92761
1.1475	-4.53186
1.148	-2.81982
1.1485	-4.93469
1.149	-5.63965
1.1495	-3.42407
1.15	-5.53894
1.1505	-1.51062
1.151	0.10071
1.1515	4.53186
1.152	3.12195
1.1525	-1.00708
1.153	-21.45081
1.1535	-36.65771
1.154	-50.55542
1.1545	-55.49011
1.155	-55.18799
1.1555	-55.99365
1.156	-53.47595
1.1565	-52.36816
1.157	-42.09595
1.1575	-33.73718
1.158	-20.04089
1.1585	-0.70496
1.159	10.87646
1.1595	19.83948
1.16	30.91736
1.1605	42.09595
1.161	45.11719
1.1615	48.74268
1.162	45.41931
1.1625	41.89453
1.163	27.59399
1.1635	-12.28638
1.164	-36.65771
1.1645	-48.74268
1.165	-55.18799
1.1655	-50.15259
1.166	-37.16125
1.1665	-21.85364
1.167	-6.94885
1.1675	1.3092
1.168	11.98425
1.1685	39.27612
1.169	53.67737
1.1695	67.07153
1.17	76.03455
1.1705	83.18481
1.171	72.81189
1.1715	66.16516
1.172	52.26746
1.1725	39.47754
1.173	30.51453
1.1735	20.64514
1.174	11.07788
1.1745	1.40991
1.175	-0.80566
1.1755	-4.02832
1.176	-5.74036
1.1765	-8.7616
1.177	-22.96143
1.1775	-27.59399
1.178	-26.28479
1.1785	-26.3855
1.179	-19.13452
1.1795	-15.50903
1.18	-12.08496
1.1805	-7.35168
1.181	-0.20142
1.1815	2.81982
1.182	4.93469
1.1825	-1.10779
1.183	-1.3092
1.1835	1.61133
1.184	2.11487
1.1845	7.85522
1.185	3.42407
1.1855	1.40991
1.186	-1.40991
1.1865	0.70496
1.187	-0.70496
1.1875	-1.00708
1.188	2.31628
1.1885	2.41699
1.189	-6.74744
1.1895	-11.98425
1.19	-16.3147
1.1905	-18.32886
1.191	-29.20532
1.1915	-67.57507
1.192	-89.42871
1.1925	-88.32092
1.193	-91.44287
1.1935	-87.41455
1.194	-83.18481
1.1945	-75.02747
1.195	-58.20923
1.1955	-45.01648
1.196	-33.13293
1.1965	-17.6239
1.197	-5.0354
1.1975	10.37292
1.198	26.58691
1.1985	43.10303
1.199	64.65454
1.1995	76.84021
1.2	83.99048
1.2005	78.45154
1.201	64.151
1.2015	59.21631
1.202	48.64197
1.2025	38.57117
1.203	38.47046
1.2035	25.78125
1.204	15.1062
1.2045	10.77576
1.205	-6.44531
1.2055	-15.40833
1.206	-25.07629
1.2065	-19.83948
1.207	-14.70337
1.2075	-1.51062
1.208	11.07788
1.2085	14.40125
1.209	23.96851
1.2095	24.57275
1.21	33.43506
1.2105	33.53577
1.211	25.27771
1.2115	23.66638
1.212	22.15576
1.2125	21.65222
1.213	22.45789
1.2135	23.8678
1.214	21.24939
1.2145	12.48779
1.215	1.81274
1.2155	-1.91345
1.216	-6.64673
1.2165	-12.18567
1.217	-17.22107
1.2175	-13.39417
1.218	-22.6593
1.2185	-19.73877
1.219	-18.02673
1.2195	-48.33984
1.22	-73.01331
1.2205	-78.04871
1.221	-88.11951
1.2215	-110.07385
1.222	-125.58289
1.2225	-123.46802
1.223	-128.302
1.2235	-146.02661
1.224	-154.98962
1.2245	-136.35864
1.225	-101.41296
1.2255	-77.14233
1.226	-39.67896
1.2265	0.60425
1.227	36.95984
1.2275	73.11401
1.228	105.54199
1.2285	131.62537
1.229	157.2052
1.2295	157.91016
1.23	150.8606
1.2305	132.53174
1.231	118.13049
1.2315	98.19031
1.232	77.74658
1.2325	59.31702
1.233	49.95117
1.2335	42.29736
1.234	27.19116
1.2345	-11.68213
1.235	-63.44604
1.2355	-119.84253
1.236	-163.34839
1.2365	-189.02893
1.237	-201.41602
1.2375	-204.84009
1.238	-205.64575
1.2385	-191.54663
1.239	-169.59229
1.2395	-146.12732
1.24	-125.88501
1.2405	-101.01013
1.241	-78.14941
1.2415	-76.63879
1.242	-110.37598
1.2425	-152.67334
1.243	-184.19495
1.2435	-185.40344
1.244	-184.09424
1.2445	-146.63086
1.245	-106.75049
1.2455	-73.41614
1.246	-25.88196
1.2465	27.19116
1.247	62.23755
1.2475	104.93774
1.248	152.1698
1.2485	207.25708
1.249	252.67639
1.2495	286.7157
1.25	319.24438
1.2505	332.73926
1.251	318.74084
1.2515	303.0304
1.252	295.37659
1.2525	282.78809
1.253	250.56152
1.2535	212.09106
1.254	158.61511
1.2545	56.19507
1.255	-17.22107
1.2555	-59.61914
1.256	-92.85278
1.2565	-144.21387
1.257	-186.81335
1.2575	-201.11389
1.258	-188.82751
1.2585	-175.03052
1.259	-138.57422
1.2595	-106.04553
1.26	-64.65454
1.2605	-16.71753
1.261	16.51611
1.2615	41.39099
1.262	64.95667
1.2625	86.30676
1.263	112.69226
1.2635	122.56165
1.264	98.0896
1.2645	76.23596
1.265	53.27454
1.2655	-2.92053
1.266	-24.16992
1.2665	-36.25488
1.267	-30.41382
1.2675	-25.68054
1.268	-31.32019
1.2685	-33.33435
1.269	-42.39807
1.2695	-48.54126
1.27	-36.35559
1.2705	-20.04089
1.271	-4.73328
1.2715	20.24231
1.272	49.34692
1.2725	69.79065
1.273	93.45703
1.2735	108.46252
1.274	88.0188
1.2745	89.328
1.275	110.37598
1.2755	125.88501
1.276	119.84253
1.2765	96.17615
1.277	60.62622
1.2775	27.39258
1.278	-3.8269
1.2785	-38.26904
1.279	-66.06445
1.2795	-83.58765
1.28	-95.97473
1.2805	-96.7804
1.281	-100.90942
1.2815	-95.16907
1.282	-83.08411
1.2825	-56.90002
1.283	-31.32019
1.2835	-24.57275
1.284	-16.01257
1.2845	-9.36584
1.285	3.7262
1.2855	18.63098
1.286	36.65771
1.2865	55.2887
1.287	75.93384
1.2875	89.73083
1.288	110.57739
1.2885	114.10217
1.289	108.26111
1.2895	100.70801
1.29	77.54517
1.2905	40.68604
1.291	-1.10779
1.2915	-32.52869
1.292	-70.09277
1.2925	-89.42871
1.293	-97.08252
1.2935	-104.4342
1.294	-107.05261
1.2945	-109.87244
1.295	-96.57898
1.2955	-75.63171
1.296	-51.26038
1.2965	-26.58691
1.297	-4.43115
1.2975	25.78125
1.298	48.23914
1.2985	71.50269
1.299	86.91101
1.2995	90.5365
1.3	93.35632
1.3005	83.48694
1.301	72.50977
1.3015	55.69153
1.302	15.40833
1.3025	-32.02515
1.303	-52.06604
1.3035	-62.13684
1.304	-106.04553
1.3045	-164.55688
1.305	-197.08557
1.3055	-209.9762
1.306	-200.20752
1.3065	-174.52698
1.307	-140.58838
1.3075	-93.85986
1.308	-32.12585
1.3085	28.29895
1.309	78.55225
1.3095	120.24536
1.31	158.21228
1.3105	187.4176
1.311	200.50964
1.3115	199.50256
1.312	190.23743
1.3125	182.78503
1.313	171.40503
1.3135	143.20679
1.314	112.28943
1.3145	83.18481
1.315	54.88586
1.3155	21.65222
1.316	-9.86938
1.3165	-25.07629
1.317	-27.09045
1.3175	-31.32019
1.318	-37.46338
1.3185	-50.65613
1.319	-56.69861
1.3195	-62.43896
1.32	-55.49011
1.3205	-45.72144
1.321	-34.54285
1.3215	-25.47913
1.322	-14.09912
1.3225	-13.89771
1.323	-16.3147
1.3235	-12.99133
1.324	-12.08496
1.3245	-16.61682
1.325	-28.09753
1.3255	-38.36975
1.326	-44.51294
1.3265	-44.91577
1.327	-47.93701
1.3275	-49.44763
1.328	-49.24622
1.3285	-44.31152
1.329	-30.71594
1.3295	-15.20691
1.33	-6.44531
1.3305	12.78992
1.331	23.96851
1.3315	32.12585
1.332	36.75842
1.3325	36.35559
1.333	36.4563
1.3335	34.54285
1.334	29.20532
1.3345	21.75293
1.335	22.55859
1.3355	19.23523
1.336	4.83398
1.3365	-3.92761
1.337	-13.29346
1.3375	-18.12744
1.338	-26.3855
1.3385	-27.6947
1.339	-20.34302
1.3395	-18.32886
1.34	-17.12036
1.3405	-17.72461
1.341	-18.32886
1.3415	-23.66638
1.342	-18.32886
1.3425	-19.73877
1.343	-21.14868
1.3435	-14.40125
1.344	-13.49487
1.3445	-14.60266
1.345	-11.88354
1.3455	-13.09204
1.346	-11.07788
1.3465	-8.25806
1.347	-11.38
1.3475	-3.02124
1.348	-4.22974
1.3485	-5.0354
1.349	3.32336
1.3495	2.21558
1.35	2.92053
1.3505	3.52478
1.351	8.05664
1.3515	11.98425
1.352	6.64673
1.3525	2.81982
1.353	4.93469
1.3535	5.94177
1.354	-0.30212
1.3545	2.71912
1.355	-0.80566
1.3555	5.33752
1.356	0.70496
1.3565	3.7262
1.357	-0.80566
1.3575	1.71204
1.358	1.2085
1.3585	-1.2085
1.359	3.62549
1.3595	-0.20142
1.36	1.71204
1.3605	4.73328
1.361	-1.2085
1.3615	-3.92761
1.362	-2.92053
1.3625	-8.15735
1.363	-2.41699
1.3635	-8.35876
1.364	-4.63257
1.3645	-4.02832
1.365	-5.84106
1.3655	-3.8269
1.366	-2.81982
1.3665	-13.19275
1.367	-23.16284
1.3675	-24.37134
1.368	-25.78125
1.3685	-18.12744
1.369	-24.06921
1.3695	-51.5625
1.37	-72.10693
1.3705	-81.87561
1.371	-81.37207
1.3715	-78.45154
1.372	-80.36499
1.3725	-79.35791
1.373	-68.98499
1.3735	-52.26746
1.374	-36.65771
1.3745	-14.60266
1.375	7.35168
1.3755	30.81665
1.376	52.67029
1.3765	73.41614
1.377	87.81738
1.3775	89.93225
1.378	70.49561
1.3785	43.40515
1.379	24.16992
1.3795	3.42407
1.38	-13.29346
1.3805	-25.47913
1.381	-24.77417
1.3815	-18.02673
1.382	-5.43823
1.3825	12.38708
1.383	34.54285
1.3835	50.2533
1.384	65.56091
1.3845	74.52393
1.385	90.13367
1.3855	87.31384
1.386	79.55933
1.3865	65.96375
1.387	50.75684
1.3875	36.85913
1.388	28.09753
1.3885	22.05505
1.389	9.76868
1.3895	10.47363
1.39	7.45239
1.3905	-4.43115
1.391	-16.11328
1.3915	-22.15576
1.392	-31.11877
1.3925	-22.6593
1.393	-19.23523
1.3935	-17.52319
1.394	-18.93311
1.3945	-15.40833
1.395	-15.20691
1.3955	-18.32886
1.396	-15.30762
1.3965	-14.80408
1.397	-18.93311
1.3975	-24.97559
1.398	-27.29187
1.3985	-25.47913
1.399	-28.9032
1.3995	-30.71594
1.4	-27.59399
1.4005	-30.51453
1.401	-35.44922
1.4015	-33.23364
1.402	-31.82373
1.4025	-29.20532
1.403	-23.8678
1.4035	-13.797
1.404	-16.41541
1.4045	-8.15735
1.405	0.80566
1.4055	-3.32336
1.406	0.90637
1.4065	2.71912
1.407	5.43823
1.4075	2.71912
1.408	5.63965
1.4085	5.0354
1.409	7.15027
1.4095	9.06372
1.41	6.2439
1.4105	8.96301
1.411	9.06372
1.4115	2.92053
1.412	-1.2085
1.4125	0.10071
1.413	-0.80566
1.4135	3.32336
1.414	-1.71204
1.4145	4.43115
1.415	7.75452
1.4155	5.43823
1.416	-8.96301
1.4165	-38.87329
1.417	-48.64197
1.4175	-51.26038
1.418	-50.45471
1.4185	-55.99365
1.419	-56.69861
1.4195	-51.46179
1.42	-35.2478
1.4205	-14.19983
1.421	-0.60425
1.4215	20.44373
1.422	40.88745
1.4225	48.74268
1.423	57.50427
1.4235	64.55383
1.424	68.48145
1.4245	69.58923
1.425	56.5979
1.4255	43.20374
1.426	33.03223
1.4265	21.3501
1.427	15.40833
1.4275	7.15027
1.428	4.83398
1.4285	9.86938
1.429	-1.40991
1.4295	-4.63257
1.43	-7.25098
1.4305	-19.63806
1.431	-14.19983
1.4315	-14.60266
1.432	-7.75452
1.4325	-9.36584
1.433	-4.12903
1.4335	-9.36584
1.434	-7.5531
1.4345	-1.2085
1.435	-7.5531
1.4355	-8.45947
1.436	-7.65381
1.4365	-4.43115
1.437	-9.76868
1.4375	-7.95593
1.438	-6.84814
1.4385	-4.22974
1.439	-12.38708
1.4395	-11.58142
1.44	-7.35168
1.4405	-14.90479
1.441	-9.86938
1.4415	-10.37292
1.442	-9.06372
1.4425	-11.78284
1.443	-9.56726
1.4435	-9.56726
1.444	-10.47363
1.4445	-5.84106
1.445	-6.64673
1.4455	-2.81982
1.446	-7.04956
1.4465	-9.06372
1.447	-8.45947
1.4475	-7.85522
1.448	-11.38
1.4485	-4.12903
1.449	-4.22974
1.4495	-6.64673
1.45	-4.63257
1.4505	7.35168
1.451	3.02124
1.4515	5.53894
1.452	-5.63965
1.4525	-8.7616
1.453	-4.93469
1.4535	-4.02832
1.454	-6.94885
1.4545	-6.94885
1.455	-8.8623
1.4555	-3.42407
1.456	-6.64673
1.4565	-5.94177
1.457	-5.13611
1.4575	1.00708
1.458	5.53894
1.4585	0
1.459	8.05664
1.4595	3.52478
1.46	-3.8269
1.4605	-3.02124
1.461	1.3092
1.4615	2.5177
1.462	6.44531
1.4625	6.54602
1.463	5.53894
1.4635	7.5531
1.464	7.65381
1.4645	5.23682
1.465	1.81274
1.4655	5.43823
1.466	5.13611
1.4665	9.16443
1.467	5.23682
1.4675	0.50354
1.468	1.10779
1.4685	-1.2085
1.469	-4.63257
1.4695	-8.96301
1.47	-11.78284
1.4705	-8.56018
1.471	-14.30054
1.4715	-5.94177
1.472	-2.92053
1.4725	-7.85522
1.473	-10.27222
1.4735	-4.33044
1.474	-2.11487
1.4745	-4.53186
1.475	-8.66089
1.4755	-18.32886
1.476	-36.85913
1.4765	-43.30444
1.477	-45.52002
1.4775	-55.69153
1.478	-43.80798
1.4785	-52.36816
1.479	-44.51294
1.4795	-34.54285
1.48	-15.1062
1.4805	1.61133
1.481	14.80408
1.4815	35.54993
1.482	44.61365
1.4825	67.17224
1.483	71.20056
1.4835	73.31543
1.484	75.12817
1.4845	74.82605
1.485	59.51843
1.4855	53.67737
1.486	40.98816
1.4865	21.95435
1.487	13.69629
1.4875	11.48071
1.488	5.0354
1.4885	-4.83398
1.489	-16.61682
1.4895	-34.24072
1.49	-39.07471
1.4905	-39.88037
1.491	-30.61523
1.4915	-29.80957
1.492	-31.01807
1.4925	-32.93152
1.493	-22.86072
1.4935	-22.35718
1.494	-19.23523
1.4945	-19.23523
1.495	-5.13611
1.4955	1.81274
1.496	3.12195
1.4965	12.78992
1.497	17.12036
1.4975	27.59399
1.498	31.11877
1.4985	32.83081
1.499	18.63098
1.4995	-12.08496
1.5	-23.56567
1.5005	-37.36267
1.501	-41.08887
1.5015	-42.29736
1.502	-42.49878
1.5025	-39.17542
1.503	-30.01099
1.5035	-16.61682
1.504	-6.74744
1.5045	10.57434
1.505	25.47913
1.5055	37.06055
1.506	41.79382
1.5065	50.2533
1.507	50.15259
1.5075	49.64905
1.508	42.19666
1.5085	29.60815
1.509	15.30762
1.5095	13.59558
1.51	10.67505
1.5105	10.57434
1.511	13.19275
1.5115	13.69629
1.512	4.43115
1.5125	-4.12903
1.513	-6.44531
1.5135	-8.45947
1.514	-8.35876
1.5145	-8.45947
1.515	-7.85522
1.5155	-11.07788
1.516	-13.19275
1.5165	-8.66089
1.517	-6.74744
1.5175	-11.17859
1.518	-5.94177
1.5185	-9.06372
1.519	-4.43115
1.5195	-9.56726
1.52	-11.07788
1.5205	-5.63965
1.521	-5.0354
1.5215	-7.35168
1.522	-11.88354
1.5225	-11.98425
1.523	-16.81824
1.5235	-21.04797
1.524	-17.52319
1.5245	-25.47913
1.525	-29.10461
1.5255	-21.45081
1.526	-22.15576
1.5265	-20.64514
1.527	-18.12744
1.5275	-20.54443
1.528	-16.91895
1.5285	-12.68921
1.529	-24.37134
1.5295	-50.354
1.53	-54.48303
1.5305	-52.36816
1.531	-50.354
1.5315	-48.03772
1.532	-42.59949
1.5325	-35.14709
1.533	-17.32178
1.5335	-6.44531
1.534	15.20691
1.5345	40.38391
1.535	49.34692
1.5355	64.05029
1.536	65.66162
1.5365	42.8009
1.537	18.02673
1.5375	1.2085
1.538	-13.69629
1.5385	-32.7301
1.539	-43.60657
1.5395	-55.59082
1.54	-53.77808
1.5405	-46.5271
1.541	-30.11169
1.5415	-13.59558
1.542	13.797
1.5425	27.49329
1.543	34.14001
1.5435	43.90869
1.544	53.17383
1.5445	68.07861
1.545	74.42322
1.5455	72.40906
1.546	72.20764
1.5465	61.02905
1.547	54.48303
1.5475	45.72144
1.548	37.26196
1.5485	31.01807
1.549	25.57983
1.5495	23.36426
1.55	18.73169
1.5505	12.68921
1.551	0.40283
1.5515	-9.97009
1.552	-8.45947
1.5525	-8.35876
1.553	-0.50354
1.5535	-2.11487
1.554	0.80566
1.5545	-1.91345
1.555	1.51062
1.5555	1.2085
1.556	0.20142
1.5565	-5.13611
1.557	-5.13611
1.5575	-7.35168
1.558	-6.64673
1.5585	-2.81982
1.559	0.50354
1.5595	-8.25806
1.56	-7.65381
1.5605	-5.74036
1.561	-9.76868
1.5615	-7.85522
1.562	-13.99841
1.5625	-11.2793
1.563	-13.69629
1.5635	-14.80408
1.564	-20.04089
1.5645	-18.8324
1.565	-18.73169
1.5655	-15.40833
1.566	-16.71753
1.5665	-18.63098
1.567	-24.57275
1.5675	-18.8324
1.568	-17.72461
1.5685	-14.70337
1.569	-10.27222
1.5695	-13.19275
1.57	-8.7616
1.5705	-9.06372
1.571	-0.70496
1.5715	-2.31628
1.572	2.11487
1.5725	9.97009
1.573	11.68213
1.5735	6.44531
1.574	11.2793
1.5745	9.76868
1.575	16.11328
1.5755	15.20691
1.576	14.40125
1.5765	14.70337
1.577	13.49487
1.5775	11.88354
1.578	6.64673
1.5785	3.42407
1.579	0.90637
1.5795	2.5177
1.58	5.23682
1.5805	1.00708
1.581	-4.33044
1.5815	0.50354
1.582	-4.53186
1.5825	-2.41699
1.583	-4.63257
1.5835	-4.33044
1.584	-7.95593
1.5845	1.00708
1.585	-1.61133
1.5855	-6.04248
1.586	-6.54602
1.5865	-4.83398
1.587	-7.25098
1.5875	-3.8269
1.588	-3.22266
1.5885	-6.84814
1.589	-13.29346
1.5895	-12.89062
1.59	-8.05664
1.5905	-5.23682
1.591	-12.48779
1.5915	-12.38708
1.592	-11.68213
1.5925	-10.87646
1.593	-8.7616
1.5935	-7.75452
1.594	-4.22974
1.5945	-1.10779
1.595	-8.96301
1.5955	-0.30212
1.596	-7.65381
1.5965	2.21558
1.597	3.12195
1.5975	5.23682
1.598	-2.81982
1.5985	7.15027
1.599	4.33044
1.5995	9.06372
1.6	11.07788
1.6005	7.5531
1.601	4.02832
1.6015	4.63257
1.602	2.21558
1.6025	0.10071
1.603	-1.91345
1.6035	-1.81274
1.604	-2.5177
1.6045	-3.7262
1.605	-5.74036
1.6055	-0.60425
1.606	1.40991
1.6065	-0.40283
1.607	4.53186
1.6075	-0.20142
1.608	1.3092
1.6085	0.30212
1.609	-2.01416
1.6095	-1.81274
1.61	-4.83398
1.6105	-1.2085
1.611	7.95593
1.6115	7.75452
1.612	4.73328
1.6125	5.53894
1.613	8.35876
1.6135	1.91345
1.614	5.43823
1.6145	5.53894
1.615	6.04248
1.6155	3.92761
1.616	0.40283
1.6165	4.33044
1.617	0.60425
1.6175	4.43115
1.618	8.45947
1.6185	9.16443
1.619	6.64673
1.6195	4.33044
1.62	2.01416
1.6205	4.22974
1.621	7.04956
1.6215	-0.20142
1.622	-4.02832
1.6225	-3.12195
1.623	-7.35168
1.6235	-3.02124
1.624	-8.96301
1.6245	-4.22974
1.625	-9.56726
1.6255	-0.50354
1.626	-5.23682
1.6265	-3.62549
1.627	-2.21558
1.6275	-5.23682
1.628	-8.25806
1.6285	-6.54602
1.629	-9.56726
1.6295	-15.81116
1.63	-17.52319
1.6305	-14.70337
1.631	-21.3501
1.6315	-26.08337
1.632	-25.47913
1.6325	-25.47913
1.633	-26.88904
1.6335	-25.57983
1.634	-25.78125
1.6345	-25.68054
1.635	-20.34302
1.6355	-12.28638
1.636	-7.75452
1.6365	-1.51062
1.637	7.5531
1.6375	11.78284
1.638	15.20691
1.6385	16.61682
1.639	22.96143
1.6395	18.53027
1.64	22.45789
1.6405	26.48621
1.641	27.19116
1.6415	23.46497
1.642	19.03381
1.6425	13.69629
1.643	8.8623
1.6435	2.01416
1.644	-5.23682
1.6445	-10.57434
1.645	-11.78284
1.6455	-15.50903
1.646	-41.99524
1.6465	-60.3241
1.647	-64.25171
1.6475	-62.03613
1.648	-58.41064
1.6485	-61.83472
1.649	-58.61206
1.6495	-57.70569
1.65	-46.62781
1.6505	-35.54993
1.651	-13.99841
1.6515	-2.31628
1.652	7.15027
1.6525	19.83948
1.653	27.19116
1.6535	35.04639
1.654	35.14709
1.6545	37.46338
1.655	44.91577
1.6555	48.13843
1.656	51.46179
1.6565	54.0802
1.657	53.37524
1.6575	59.41772
1.658	60.22339
1.6585	61.53259
1.659	51.66321
1.6595	32.42798
1.66	24.16992
1.6605	18.32886
1.661	16.21399
1.6615	9.06372
1.662	11.58142
1.6625	6.44531
1.663	-1.2085
1.6635	-6.44531
1.664	-7.75452
1.6645	-11.48071
1.665	-7.85522
1.6655	-13.29346
1.666	-8.45947
1.6665	-10.37292
1.667	-8.35876
1.6675	-3.12195
1.668	-4.43115
1.6685	-4.22974
1.669	-7.25098
1.6695	-2.61841
1.67	-4.12903
1.6705	-3.8269
1.671	-6.64673
1.6715	1.2085
1.672	-1.81274
1.6725	-11.98425
1.673	-8.25806
1.6735	-12.28638
1.674	-6.54602
1.6745	-1.71204
1.675	-12.28638
1.6755	-7.95593
1.676	-6.2439
1.6765	-5.63965
1.677	-4.63257
1.6775	-4.93469
1.678	-1.81274
1.6785	-7.45239
1.679	-8.66089
1.6795	-11.2793
1.68	-7.95593
1.6805	-9.06372
1.681	-10.0708
1.6815	-14.90479
1.682	-15.20691
1.6825	-18.8324
1.683	-18.22815
1.6835	-10.57434
1.684	-18.42957
1.6845	-18.12744
1.685	-16.61682
1.6855	-14.30054
1.686	-10.37292
1.6865	-10.17151
1.687	-7.04956
1.6875	-1.61133
1.688	0.60425
1.6885	6.2439
1.689	5.63965
1.6895	-1.51062
1.69	0.50354
1.6905	3.7262
1.691	8.35876
1.6915	5.74036
1.692	4.93469
1.6925	5.23682
1.693	8.15735
1.6935	3.52478
1.694	1.40991
1.6945	2.71912
1.695	2.11487
1.6955	-3.02124
1.696	-4.12903
1.6965	0.60425
1.697	3.8269
1.6975	-5.23682
1.698	-0.70496
1.6985	-2.81982
1.699	-9.06372
1.6995	-2.01416
1.7	0.20142
1.7005	1.40991
1.701	-0.90637
1.7015	-5.74036
1.702	-1.51062
1.7025	-2.71912
1.703	-3.12195
1.7035	-9.36584
1.704	-5.63965
1.7045	1.51062
1.705	-4.33044
1.7055	-7.75452
1.706	-2.31628
1.7065	-6.64673
1.707	-2.11487
1.7075	-7.95593
1.708	-5.33752
1.7085	-3.32336
1.709	-6.84814
1.7095	-5.63965
1.71	-3.22266
1.7105	0
1.711	-5.23682
1.7115	-4.12903
1.712	-7.04956
1.7125	-9.97009
1.713	-7.75452
1.7135	-2.41699
1.714	-3.32336
1.7145	-6.14319
1.715	-10.57434
1.7155	-8.56018
1.716	-5.43823
1.7165	-1.91345
1.717	-4.63257
1.7175	-1.2085
1.718	-10.27222
1.7185	-4.22974
1.719	-4.12903
1.7195	-3.8269
1.72	-3.7262
1.7205	-2.81982
1.721	0.80566
1.7215	-6.04248
1.722	-3.62549
1.7225	-2.5177
1.723	0.90637
1.7235	-4.43115
1.724	-1.91345
1.7245	1.71204
1.725	-4.43115
1.7255	-3.12195
1.726	-4.53186
1.7265	-2.01416
1.727	1.91345
1.7275	0.60425
1.728	-6.64673
1.7285	-5.23682
1.729	-8.96301
1.7295	-8.45947
1.73	-4.73328
1.7305	-2.11487
1.731	0.20142
1.7315	-4.02832
1.732	-2.92053
1.7325	-0.80566
1.733	3.92761
1.7335	-0.30212
1.734	3.42407
1.7345	-2.11487
1.735	-0.50354
1.7355	-0.50354
1.736	-2.11487
1.7365	-1.3092
1.737	2.11487
1.7375	-5.13611
1.738	-4.33044
1.7385	-3.02124
1.739	-5.74036
1.7395	-4.63257
1.74	-2.21558
1.7405	-0.10071
1.741	-4.22974
1.7415	-0.70496
1.742	-3.8269
1.7425	-1.2085
1.743	-0.10071
1.7435	2.5177
1.744	-2.61841
1.7445	4.43115
1.745	1.61133
1.7455	3.52478
1.746	-3.02124
1.7465	0.80566
1.747	1.10779
1.7475	0.90637
1.748	7.25098
1.7485	2.92053
1.749	2.41699
1.7495	-2.61841
1.75	3.8269
1.7505	3.62549
1.751	8.56018
1.7515	1.2085
1.752	2.31628
1.7525	-2.81982
1.753	-0.60425
1.7535	-1.3092
1.754	-4.73328
1.7545	-3.52478
1.755	-2.01416
1.7555	-0.20142
1.756	-3.22266
1.7565	-2.71912
1.757	-0.90637
1.7575	0.50354
1.758	-0.40283
1.7585	-0.70496
1.759	-1.81274
1.7595	3.22266
1.76	8.05664
1.7605	6.94885
1.761	4.02832
1.7615	3.12195
1.762	4.53186
1.7625	6.94885
1.763	7.75452
1.7635	7.15027
1.764	4.22974
1.7645	6.2439
1.765	10.27222
1.7655	9.06372
1.766	5.63965
1.7665	9.56726
1.767	2.41699
1.7675	1.71204
1.768	6.84814
1.7685	2.11487
1.769	0.70496
1.7695	-0.30212
1.77	7.45239
1.7705	6.84814
1.771	1.2085
1.7715	2.01416
1.772	-2.81982
1.7725	4.83398
1.773	4.02832
1.7735	0.80566
1.774	0.60425
1.7745	0.30212
1.775	-6.74744
1.7755	-2.41699
1.776	0.90637
1.7765	3.92761
1.777	-0.90637
1.7775	-6.3446
1.778	0.50354
1.7785	1.40991
1.779	-12.99133
1.7795	-10.87646
1.78	-9.66797
1.7805	-11.98425
1.781	-9.16443
1.7815	-6.64673
1.782	-4.12903
1.7825	-7.85522
1.783	-10.0708
1.7835	-0.50354
1.784	-6.3446
1.7845	-0.40283
1.785	-1.3092
1.7855	0.10071
1.786	2.61841
1.7865	1.91345
1.787	8.25806
1.7875	1.71204
1.788	3.32336
1.7885	4.93469
1.789	0.80566
1.7895	7.75452
1.79	11.78284
1.7905	11.38
1.791	14.90479
1.7915	10.67505
1.792	7.25098
1.7925	0.30212
1.793	6.2439
1.7935	0
1.794	-1.3092
1.7945	-1.2085
1.795	-2.31628
1.7955	-0.40283
1.796	-4.43115
1.7965	-1.40991
1.797	2.01416
1.7975	-1.2085
1.798	-0.90637
1.7985	1.40991
1.799	4.83398
1.7995	1.81274
1.8	-3.32336
1.8005	3.22266
1.801	-4.12903
1.8015	-1.10779
1.802	-0.30212
1.8025	-3.8269
1.803	-3.02124
1.8035	-4.93469
1.804	-7.85522
1.8045	-2.41699
1.805	-5.0354
1.8055	-13.89771
1.806	-9.66797
1.8065	-9.46655
1.807	-14.09912
1.8075	-11.17859
1.808	-12.5885
1.8085	-11.38
1.809	-9.66797
1.8095	-14.90479
1.81	-8.45947
1.8105	-1.2085
1.811	0.30212
1.8115	-4.53186
1.812	-2.31628
1.8125	2.61841
1.813	-0.20142
1.8135	3.7262
1.814	12.78992
1.8145	7.35168
1.815	4.12903
1.8155	9.76868
1.816	13.29346
1.8165	19.43665
1.817	18.73169
1.8175	10.57434
1.818	13.19275
1.8185	9.06372
1.819	10.17151
1.8195	7.15027
1.82	11.68213
1.8205	5.94177
1.821	-0.40283
1.8215	9.06372
1.822	4.33044
1.8225	3.92761
1.823	5.63965
1.8235	5.13611
1.824	1.3092
1.8245	-4.22974
1.825	-0.90637
1.8255	0.20142
1.826	-1.40991
1.8265	-3.02124
1.827	-6.54602
1.8275	-1.00708
1.828	-2.01416
1.8285	-9.97009
1.829	-3.7262
1.8295	-3.52478
1.83	-1.51062
1.8305	-5.13611
1.831	-6.04248
1.8315	-4.53186
1.832	-7.85522
1.8325	-3.32336
1.833	-6.3446
1.8335	-9.56726
1.834	-8.15735
1.8345	-10.27222
1.835	-15.20691
1.8355	-12.89062
1.836	-10.17151
1.8365	-11.17859
1.837	-11.78284
1.8375	-17.42249
1.838	-16.41541
1.8385	-14.50195
1.839	-7.5531
1.8395	-6.94885
1.84	-8.05664
1.8405	-2.01416
1.841	-7.5531
1.8415	3.12195
1.842	11.68213
1.8425	13.49487
1.843	17.52319
1.8435	9.86938
1.844	20.1416
1.8445	21.55151
1.845	21.3501
1.8455	19.83948
1.846	15.81116
1.8465	18.8324
1.847	12.5885
1.8475	8.7616
1.848	8.66089
1.8485	4.73328
1.849	3.52478
1.8495	-3.8269
1.85	-3.02124
1.8505	-9.66797
1.851	-8.66089
1.8515	-8.05664
1.852	-10.37292
1.8525	-5.23682
1.853	-4.33044
1.8535	-0.40283
1.854	-5.43823
1.8545	-1.81274
1.855	4.93469
1.8555	7.25098
1.856	7.35168
1.8565	10.67505
1.857	5.94177
1.8575	5.74036
1.858	2.61841
1.8585	3.52478
1.859	8.45947
1.8595	-1.10779
1.86	0.30212
1.8605	2.21558
1.861	-0.70496
1.8615	-0.80566
1.862	-4.93469
1.8625	-9.76868
1.863	-7.15027
1.8635	-13.59558
1.864	-16.91895
1.8645	-16.01257
1.865	-14.50195
1.8655	-18.02673
1.866	-13.59558
1.8665	-16.21399
1.867	-15.00549
1.8675	-11.07788
1.868	-8.05664
1.8685	-8.66089
1.869	-8.66089
1.8695	-11.17859
1.87	-8.45947
1.8705	-4.53186
1.871	-2.21558
1.8715	1.51062
1.872	0.70496
1.8725	4.43115
1.873	0.50354
1.8735	5.74036
1.874	4.33044
1.8745	5.63965
1.875	0
1.8755	13.19275
1.876	9.56726
1.8765	16.81824
1.877	8.7616
1.8775	11.78284
1.878	7.75452
1.8785	5.84106
1.879	0.90637
1.8795	0.10071
1.88	2.41699
1.8805	2.61841
1.881	0.60425
1.8815	2.11487
1.882	2.5177
1.8825	-3.22266
1.883	-2.81982
1.8835	1.91345
1.884	-0.20142
1.8845	-0.60425
1.885	-4.12903
1.8855	-2.71912
1.886	-2.01416
1.8865	-6.3446
1.887	-5.43823
1.8875	-9.76868
1.888	-6.44531
1.8885	-4.02832
1.889	-3.62549
1.8895	-10.47363
1.89	-6.14319
1.8905	0.10071
1.891	0.70496
1.8915	-3.8269
1.892	-0.70496
1.8925	4.33044
1.893	1.40991
1.8935	1.91345
1.894	1.81274
1.8945	8.66089
1.895	9.16443
1.8955	8.15735
1.896	5.0354
1.8965	5.13611
1.897	9.26514
1.8975	3.62549
1.898	0.20142
1.8985	8.05664
1.899	5.74036
1.8995	5.0354
1.9	1.71204
1.9005	-4.43115
1.901	-3.22266
1.9015	-4.63257
1.902	-6.64673
1.9025	-3.52478
1.903	-6.64673
1.9035	-12.78992
1.904	-11.88354
1.9045	-8.8623
1.905	-12.48779
1.9055	-12.08496
1.906	-7.85522
1.9065	-5.23682
1.907	-9.36584
1.9075	-11.88354
1.908	-11.98425
1.9085	-14.60266
1.909	-10.0708
1.9095	-16.51611
1.91	-5.84106
1.9105	-4.12903
1.911	-5.0354
1.9115	-3.32336
1.912	-1.10779
1.9125	-0.50354
1.913	1.71204
1.9135	0
1.914	7.95593
1.9145	8.05664
1.915	10.17151
1.9155	8.7616
1.916	8.7616
1.9165	8.15735
1.917	9.97009
1.9175	11.88354
1.918	14.09912
1.9185	12.38708
1.919	8.66089
1.9195	8.96301
1.92	9.97009
1.9205	8.15735
1.921	3.02124
1.9215	5.43823
1.922	11.88354
1.9225	14.60266
1.923	11.68213
1.9235	14.30054
1.924	3.62549
1.9245	4.93469
1.925	-0.90637
1.9255	4.12903
1.926	0
1.9265	-2.92053
1.927	-2.61841
1.9275	7.04956
1.928	8.45947
1.9285	3.12195
1.929	5.84106
1.9295	11.38
1.93	9.16443
1.9305	4.43115
1.931	8.56018
1.9315	11.48071
1.932	5.43823
1.9325	3.7262
1.933	3.42407
1.9335	-2.71912
1.934	-1.91345
1.9345	2.5177
1.935	3.92761
1.9355	-1.3092
1.936	-2.92053
1.9365	-5.53894
1.937	-1.61133
1.9375	-3.02124
1.938	-0.20142
1.9385	0.80566
1.939	-1.2085
1.9395	-1.51062
1.94	-5.33752
1.9405	-2.21558
1.941	-6.04248
1.9415	-7.04956
1.942	-8.7616
1.9425	-7.35168
1.943	-6.74744
1.9435	-7.5531
1.944	-10.77576
1.9445	-1.51062
1.945	-2.81982
1.9455	-2.81982
1.946	-8.96301
1.9465	-7.04956
1.947	-6.94885
1.9475	-9.16443
1.948	-10.97717
1.9485	-12.08496
1.949	-10.47363
1.9495	-13.59558
1.95	-14.09912
1.9505	-12.5885
1.951	-7.75452
1.9515	-10.17151
1.952	-15.60974
1.9525	-13.89771
1.953	-16.71753
1.9535	-20.1416
1.954	-20.24231
1.9545	-19.83948
1.955	-22.6593
1.9555	-24.37134
1.956	-18.63098
1.9565	-15.71045
1.957	-18.12744
1.9575	-17.22107
1.958	-4.83398
1.9585	-1.71204
1.959	0.20142
1.9595	-0.90637
1.96	12.89062
1.9605	20.34302
1.961	25.47913
1.9615	23.56567
1.962	32.42798
1.9625	30.91736
1.963	29.40674
1.9635	39.07471
1.964	35.04639
1.9645	40.08179
1.965	35.75134
1.9655	35.54993
1.966	28.50037
1.9665	23.06213
1.967	16.51611
1.9675	11.88354
1.968	10.0708
1.9685	6.64673
1.969	-4.53186
1.9695	-10.77576
1.97	-7.15027
1.9705	-6.84814
1.971	-5.13611
1.9715	-3.02124
1.972	-6.64673
1.9725	-2.01416
1.973	-5.63965
1.9735	-0.50354
1.974	0.60425
1.9745	-2.01416
1.975	-4.02832
1.9755	-1.91345
1.976	0.70496
1.9765	0.50354
1.977	-2.41699
1.9775	8.15735
1.978	5.74036
1.9785	9.66797
1.979	11.38
1.9795	6.64673
1.98	3.42407
1.9805	8.56018
1.981	4.12903
1.9815	2.41699
1.982	1.91345
1.9825	5.63965
1.983	3.22266
1.9835	-5.53894
1.984	-8.05664
1.9845	-12.38708
1.985	-15.81116
1.9855	-18.93311
1.986	-11.2793
1.9865	-19.13452
1.987	-24.67346
1.9875	-19.53735
1.988	-19.13452
1.9885	-21.75293
1.989	-18.53027
1.9895	-21.24939
1.99	-17.6239
1.9905	-12.18567
1.991	-9.66797
1.9915	-1.00708
1.992	7.85522
1.9925	9.76868
1.993	17.42249
1.9935	21.65222
1.994	26.08337
1.9945	29.91028
1.995	38.06763
1.9955	34.44214
1.996	36.15417
1.9965	44.41223
1.997	38.974
1.9975	29.20532
1.998	20.24231
1.9985	12.38708
1.999	5.33752
1.9995	5.33752
2	1.40991
2.0005	2.01416
2.001	-5.43823
2.0015	-6.64673
2.002	-8.56018
2.0025	-4.02832
2.003	-2.61841
2.0035	-0.40283
2.004	-6.54602
2.0045	-6.14319
2.005	-10.77576
2.0055	-9.06372
2.006	-12.38708
2.0065	-13.19275
2.007	-15.1062
2.0075	-21.45081
2.008	-25.78125
2.0085	-29.91028
2.009	-18.73169
2.0095	-16.51611
2.01	-12.08496
2.0105	-10.27222
2.011	-8.66089
2.0115	-5.84106
2.012	-6.04248
2.0125	-2.31628
2.013	1.40991
2.0135	2.81982
2.014	0.50354
2.0145	4.12903
2.015	1.51062
2.0155	1.40991
2.016	2.11487
2.0165	3.12195
2.017	7.65381
2.0175	5.74036
2.018	5.63965
2.0185	10.17151
2.019	5.74036
2.0195	8.8623
2.02	6.94885
2.0205	5.84106
2.021	8.66089
2.0215	5.84106
2.022	-2.41699
2.0225	-7.75452
2.023	-9.97009
2.0235	-12.08496
2.024	-7.95593
2.0245	-12.48779
2.025	-17.01965
2.0255	-20.64514
2.026	-23.56567
2.0265	-17.6239
2.027	-19.43665
2.0275	-10.27222
2.028	-5.53894
2.0285	-4.83398
2.029	2.01416
2.0295	0.90637
2.03	7.15027
2.0305	8.45947
2.031	10.17151
2.0315	10.47363
2.032	12.18567
2.0325	10.47363
2.033	13.69629
2.0335	6.3446
2.034	7.15027
2.0345	4.12903
2.035	3.42407
2.0355	-0.10071
2.036	-1.81274
2.0365	-3.7262
2.037	-7.75452
2.0375	-2.21558
2.038	2.41699
2.0385	-3.32336
2.039	-4.02832
2.0395	-2.01416
2.04	-3.32336
2.0405	-5.84106
2.041	-4.12903
2.0415	-3.62549
2.042	-6.14319
2.0425	-0.60425
2.043	-13.49487
2.0435	-6.04248
2.044	-7.35168
2.0445	-2.01416
2.045	-0.40283
2.0455	-8.56018
2.046	-9.56726
2.0465	-9.46655
2.047	-8.15735
2.0475	-10.27222
2.048	-12.99133
2.0485	-14.80408
2.049	-16.11328
2.0495	-15.60974
2.05	-14.19983
2.0505	-16.51611
2.051	-8.56018
2.0515	-16.41541
2.052	-12.08496
2.0525	-14.09912
2.053	-11.2793
2.0535	-16.91895
2.054	-12.89062
2.0545	-10.77576
2.055	-1.40991
2.0555	-3.52478
2.056	0.50354
2.0565	5.13611
2.057	3.8269
2.0575	13.39417
2.058	15.50903
2.0585	9.66797
2.059	18.32886
2.0595	15.91187
2.06	21.3501
2.0605	18.32886
2.061	16.3147
2.0615	21.3501
2.062	25.07629
2.0625	20.64514
2.063	14.60266
2.0635	10.67505
2.064	8.35876
2.0645	8.66089
2.065	9.76868
2.0655	7.25098
2.066	12.38708
2.0665	10.37292
2.067	5.13611
2.0675	5.23682
2.068	3.22266
2.0685	0.30212
2.069	1.00708
2.0695	3.12195
2.07	-1.00708
2.0705	-2.11487
2.071	-5.94177
2.0715	-6.14319
2.072	-2.31628
2.0725	-0.40283
2.073	-3.7262
2.0735	-5.23682
2.074	-0.70496
2.0745	1.00708
2.075	-6.2439
2.0755	-8.45947
2.076	-11.07788
2.0765	-3.92761
2.077	-6.2439
2.0775	-2.81982
2.078	-4.83398
2.0785	-4.83398
2.079	-13.39417
2.0795	-10.17151
2.08	-3.8269
2.0805	-7.45239
2.081	-4.33044
2.0815	-1.10779
2.082	-3.52478
2.0825	-4.63257
2.083	-1.71204
2.0835	-1.40991
2.084	-0.30212
2.0845	-3.8269
2.085	-0.10071
2.0855	7.75452
2.086	6.2439
2.0865	4.22974
2.087	4.22974
2.0875	4.22974
2.088	8.45947
2.0885	0.60425
2.089	0.60425
2.0895	2.21558
2.09	0.90637
2.0905	2.01416
2.091	1.61133
2.0915	2.92053
2.092	0.80566
2.0925	-1.3092
2.093	3.02124
2.0935	2.31628
2.094	-3.62549
2.0945	-3.02124
2.095	-4.53186
2.0955	-6.64673
2.096	-5.33752
2.0965	-2.21558
2.097	-0.60425
2.0975	2.41699
2.098	-5.53894
2.0985	-4.93469
2.099	-7.35168
2.0995	-5.63965
2.1	-5.33752
2.1005	-2.81982
2.101	-0.30212
2.1015	-1.91345
2.102	-4.53186
2.1025	-6.04248
2.103	-2.5177
2.1035	-4.73328
2.104	-3.92761
2.1045	-6.84814
2.105	-3.92761
2.1055	-5.84106
2.106	-5.63965
2.1065	-5.0354
2.107	-7.15027
2.1075	-8.35876
2.108	-11.48071
2.1085	-3.42407
2.109	-4.33044
2.1095	-8.35876
2.11	-4.83398
2.1105	-6.44531
2.111	-2.5177
2.1115	-2.61841
2.112	-2.61841
2.1125	-4.33044
2.113	-1.81274
2.1135	-7.85522
2.114	-1.71204
2.1145	-11.07788
2.115	-3.32336
2.1155	-6.94885
2.116	-11.78284
2.1165	-6.14319
2.117	-1.91345
2.1175	-3.22266
2.118	-3.52478
2.1185	-5.53894
2.119	-2.92053
2.1195	-0.60425
2.12	-1.3092
2.1205	-3.12195
2.121	-2.71912
2.1215	-4.83398
2.122	-2.92053
2.1225	-3.32336
2.123	-2.92053
2.1235	-1.71204
2.124	-4.22974
2.1245	-4.22974
2.125	-2.01416
2.1255	-8.25806
2.126	-5.43823
2.1265	-4.73328
2.127	-5.33752
2.1275	-1.81274
2.128	-3.32336
2.1285	-3.7262
2.129	-4.02832
2.1295	-4.33044
2.13	-1.40991
2.1305	0
2.131	3.22266
2.1315	3.52478
2.132	9.26514
2.1325	6.3446
2.133	4.53186
2.1335	3.92761
2.134	4.93469
2.1345	8.45947
2.135	10.77576
2.1355	3.52478
2.136	7.04956
2.1365	2.71912
2.137	6.54602
2.1375	7.45239
2.138	0.30212
2.1385	1.2085
2.139	0.70496
2.1395	-3.42407
2.14	-0.20142
2.1405	-5.13611
2.141	-2.41699
2.1415	-5.33752
2.142	-3.62549
2.1425	-1.51062
2.143	-1.81274
2.1435	0.40283
2.144	0.40283
2.1445	-3.12195
2.145	-2.61841
2.1455	1.3092
2.146	-9.76868
2.1465	-0.30212
2.147	-3.12195
2.1475	1.81274
2.148	-3.22266
2.1485	-4.83398
2.149	-4.73328
2.1495	1.3092
2.15	-2.31628
2.1505	0.60425
2.151	-6.04248
2.1515	-1.2085
2.152	-6.84814
2.1525	1.10779
2.153	-5.0354
2.1535	0.30212
2.154	1.00708
2.1545	-2.71912
2.155	-2.31628
2.1555	3.02124
2.156	-5.94177
2.1565	-0.40283
2.157	1.81274
2.1575	4.12903
2.158	-1.2085
2.1585	1.3092
2.159	-5.63965
2.1595	-4.02832
2.16	-1.10779
2.1605	1.51062
2.161	0
2.1615	-1.10779
2.162	0.70496
2.1625	-0.80566
2.163	-6.04248
2.1635	-2.71912
2.164	1.81274
2.1645	0.40283
2.165	-1.3092
2.1655	0.80566
2.166	-3.92761
2.1665	2.01416
2.167	-1.61133
2.1675	4.93469
2.168	1.2085
2.1685	-1.10779
2.169	3.52478
2.1695	-2.81982
2.17	2.41699
2.1705	-0.10071
2.171	2.61841
2.1715	2.5177
2.172	3.02124
2.1725	6.74744
2.173	3.32336
2.1735	6.94885
2.174	4.22974
2.1745	3.62549
2.175	0.70496
2.1755	-0.50354
2.176	1.10779
2.1765	-0.10071
2.177	0.50354
2.1775	-2.81982
2.178	1.2085
2.1785	1.51062
2.179	-1.40991
2.1795	-6.84814
2.18	-3.22266
2.1805	0.40283
2.181	2.92053
2.1815	3.8269
2.182	2.21558
2.1825	-2.81982
2.183	-0.30212
2.1835	-0.30212
2.184	-1.3092
2.1845	-0.60425
2.185	0.20142
2.1855	1.00708
2.186	-5.23682
2.1865	0.30212
2.187	-0.90637
2.1875	-2.61841
2.188	-2.21558
2.1885	-2.61841
2.189	0.70496
2.1895	-8.25806
2.19	-2.81982
2.1905	-3.42407
2.191	-4.93469
2.1915	-8.66089
2.192	-3.42407
2.1925	-8.05664
2.193	-9.56726
2.1935	-5.94177
2.194	-10.77576
2.1945	-8.56018
2.195	-2.71912
2.1955	-14.09912
2.196	-5.23682
2.1965	-2.41699
2.197	-8.45947
2.1975	-6.84814
2.198	-5.84106
2.1985	-8.7616
2.199	-8.15735
2.1995	-7.35168
2.2	-7.04956
2.2005	-2.81982
2.201	-2.92053
2.2015	-1.71204
2.202	2.31628
2.2025	-3.22266
2.203	4.12903
2.2035	-0.40283
2.204	2.92053
2.2045	-0.10071
2.205	3.42407
2.2055	4.83398
2.206	-1.51062
2.2065	0.20142
2.207	0.90637
2.2075	-2.21558
2.208	-7.15027
2.2085	-0.90637
2.209	-7.45239
2.2095	0.80566
2.21	-1.81274
2.2105	-1.2085
2.211	0
2.2115	-1.51062
2.212	-2.5177
2.2125	0.10071
2.213	-2.5177
2.2135	1.2085
2.214	2.31628
2.2145	4.63257
2.215	3.22266
2.2155	3.92761
2.216	-2.71912
2.2165	-0.40283
2.217	-4.12903
2.2175	-1.51062
2.218	2.71912
2.2185	-2.5177
2.219	-5.33752
2.2195	3.12195
2.22	4.22974
2.2205	0
2.221	-1.61133
2.2215	-3.12195
2.222	-0.30212
2.2225	0.40283
2.223	-3.02124
2.2235	-7.75452
2.224	-4.12903
2.2245	-5.84106
2.225	-7.04956
2.2255	-7.35168
2.226	-7.04956
2.2265	-6.94885
2.227	-5.63965
2.2275	-9.56726
2.228	-8.66089
2.2285	-10.87646
2.229	-5.74036
2.2295	-5.53894
2.23	-5.23682
2.2305	3.22266
2.231	0.90637
2.2315	6.94885
2.232	8.35876
2.2325	11.58142
2.233	11.17859
2.2335	6.04248
2.234	13.29346
2.2345	8.56018
2.235	12.78992
2.2355	14.70337
2.236	14.09912
2.2365	13.99841
2.237	16.41541
2.2375	15.60974
2.238	12.68921
2.2385	8.8623
2.239	8.45947
2.2395	3.7262
2.24	7.75452
2.2405	5.23682
2.241	7.65381
2.2415	9.36584
2.242	4.12903
2.2425	3.42407
2.243	1.00708
2.2435	-0.50354
2.244	-1.3092
2.2445	-0.50354
2.245	-5.63965
2.2455	1.91345
2.246	3.32336
2.2465	1.2085
2.247	-2.5177
2.2475	-2.21558
2.248	-0.50354
2.2485	0.30212
2.249	-0.90637
2.2495	-3.02124
2.25	1.3092
2.2505	-6.54602
2.251	-4.73328
2.2515	-3.7262
2.252	-2.81982
2.2525	4.02832
2.253	2.5177
2.2535	-2.41699
2.254	0.40283
2.2545	2.01416
2.255	2.11487
2.2555	-0.60425
2.256	4.02832
2.2565	-0.80566
2.257	1.3092
2.2575	3.92761
2.258	-0.60425
2.2585	2.11487
2.259	2.21558
2.2595	-1.91345
2.26	1.51062
2.2605	3.92761
2.261	-2.01416
2.2615	2.21558
2.262	-1.3092
2.2625	2.21558
2.263	0.60425
2.2635	1.61133
2.264	4.83398
2.2645	-1.81274
2.265	1.40991
2.2655	-2.81982
2.266	-0.50354
2.2665	2.21558
2.267	4.73328
2.2675	3.92761
2.268	-0.70496
2.2685	-1.2085
2.269	2.61841
2.2695	0.20142
2.27	3.42407
2.2705	1.91345
2.271	1.10779
2.2715	3.32336
2.272	4.33044
2.2725	1.3092
2.273	0.70496
2.2735	0.10071
2.274	1.2085
2.2745	-0.10071
2.275	-2.11487
2.2755	-0.20142
2.276	-0.80566
2.2765	-2.5177
2.277	1.40991
2.2775	4.73328
2.278	0.70496
2.2785	-1.2085
2.279	3.8269
2.2795	-3.12195
2.28	2.01416
2.2805	-2.11487
2.281	-2.21558
2.2815	0.70496
2.282	-2.21558
2.2825	-3.62549
2.283	0.20142
2.2835	-5.13611
2.284	-4.73328
2.2845	-3.7262
2.285	-6.04248
2.2855	-3.12195
2.286	-3.62549
2.2865	-5.23682
2.287	-1.71204
2.2875	-6.74744
2.288	-2.92053
2.2885	-4.83398
2.289	-0.40283
2.2895	-8.56018
2.29	-2.71912
2.2905	-2.61841
2.291	-1.40991
2.2915	0.20142
2.292	-0.30212
2.2925	0.10071
2.293	8.35876
2.2935	9.76868
2.294	8.8623
2.2945	16.01257
2.295	19.63806
2.2955	19.13452
2.296	19.13452
2.2965	10.17151
2.297	13.09204
2.2975	8.05664
2.298	10.27222
2.2985	13.69629
2.299	8.7616
2.2995	5.13611
2.3	5.13611
2.3005	8.35876
2.301	9.16443
2.3015	8.8623
2.302	3.52478
2.3025	2.21558
2.303	6.04248
2.3035	4.02832
2.304	0.20142
2.3045	3.52478
2.305	2.81982
2.3055	-0.20142
2.306	6.54602
2.3065	8.25806
2.307	8.45947
2.3075	7.65381
2.308	5.13611
2.3085	10.17151
2.309	14.50195
2.3095	7.75452
2.31	8.66089
2.3105	7.45239
2.311	5.0354
2.3115	3.62549
2.312	1.91345
2.3125	5.43823
2.313	6.74744
2.3135	4.53186
2.314	2.5177
2.3145	-1.81274
2.315	1.81274
2.3155	1.51062
2.316	4.33044
2.3165	6.74744
2.317	2.5177
2.3175	0.20142
2.318	0.50354
2.3185	1.61133
2.319	-2.21558
2.3195	-5.23682
2.32	-4.73328
2.3205	-6.74744
2.321	-2.81982
2.3215	-6.2439
2.322	-3.02124
2.3225	-7.35168
2.323	-9.46655
2.3235	-1.91345
2.324	-2.92053
2.3245	-6.3446
2.325	-0.70496
2.3255	0.10071
2.326	0.40283
2.3265	-1.61133
2.327	1.2085
2.3275	0.80566
2.328	2.41699
2.3285	6.14319
2.329	4.43115
2.3295	2.11487
2.33	11.2793
2.3305	9.56726
2.331	13.19275
2.3315	11.07788
2.332	12.28638
2.3325	1.40991
2.333	6.3446
2.3335	0.90637
2.334	1.71204
2.3345	3.12195
2.335	0.30212
2.3355	-4.53186
2.336	-1.2085
2.3365	3.62549
2.337	1.40991
2.3375	-1.00708
2.338	3.12195
2.3385	1.51062
2.339	0.20142
2.3395	-1.81274
2.34	1.81274
2.3405	-2.21558
2.341	-9.66797
2.3415	-9.26514
2.342	-3.62549
2.3425	-2.81982
2.343	-4.12903
2.3435	-4.83398
2.344	-10.77576
2.3445	-8.7616
2.345	-5.63965
2.3455	-8.05664
2.346	-10.67505
2.3465	-4.53186
2.347	-3.62549
2.3475	-5.43823
2.348	-5.23682
2.3485	-8.56018
2.349	-11.58142
2.3495	-12.68921
2.35	-9.46655
2.3505	-9.86938
2.351	-12.78992
2.3515	-8.35876
2.352	-7.65381
2.3525	-1.3092
2.353	-10.17151
2.3535	-7.65381
2.354	-9.66797
2.3545	-3.52478
2.355	-1.10779
2.3555	-0.10071
2.356	-1.00708
2.3565	4.73328
2.357	6.94885
2.3575	9.06372
2.358	6.3446
2.3585	9.26514
2.359	11.58142
2.3595	14.09912
2.36	11.78284
2.3605	11.98425
2.361	5.33752
2.3615	7.5531
2.362	1.3092
2.3625	2.11487
2.363	6.64673
2.3635	2.92053
2.364	-1.51062
2.3645	-5.53894
2.365	-1.51062
2.3655	-3.12195
2.366	-3.22266
2.3665	-6.54602
2.367	-3.8269
2.3675	-6.3446
2.368	-2.41699
2.3685	-1.2085
2.369	-3.7262
2.3695	-5.43823
2.37	-3.12195
2.3705	-1.3092
2.371	2.11487
2.3715	-4.93469
2.372	-0.40283
2.3725	-5.84106
2.373	-0.80566
2.3735	-4.53186
2.374	-5.94177
2.3745	-5.74036
2.375	-8.96301
2.3755	-10.37292
2.376	-9.46655
2.3765	-9.16443
2.377	-11.38
2.3775	-14.19983
2.378	-9.46655
2.3785	-7.95593
2.379	-9.16443
2.3795	-10.27222
2.38	-7.35168
2.3805	-10.0708
2.381	-8.8623
2.3815	-11.68213
2.382	-8.7616
2.3825	-9.56726
2.383	-3.12195
2.3835	-0.70496
2.384	-8.66089
2.3845	-0.40283
2.385	-2.11487
2.3855	-6.54602
2.386	-1.81274
2.3865	-3.62549
2.387	-5.33752
2.3875	-4.63257
2.388	-6.14319
2.3885	-6.84814
2.389	-4.53186
2.3895	-2.71912
2.39	-4.12903
2.3905	-3.32336
2.391	-1.71204
2.3915	-2.92053
2.392	-2.31628
2.3925	1.00708
2.393	3.62549
2.3935	1.91345
2.394	1.3092
2.3945	-0.60425
2.395	-3.32336
2.3955	-2.01416
2.396	-0.20142
2.3965	-3.32336
2.397	-0.80566
2.3975	3.8269
2.398	-2.81982
2.3985	0.50354
2.399	2.41699
2.3995	-2.71912
2.4	1.40991
2.4005	3.42407
2.401	-2.81982
2.4015	-0.40283
2.402	-4.12903
2.4025	-1.51062
2.403	0.60425
2.4035	3.12195
2.404	-2.81982
2.4045	-10.17151
2.405	-11.07788
2.4055	-12.5885
2.406	-3.92761
2.4065	-2.31628
2.407	-5.0354
2.4075	-2.5177
2.408	-6.94885
2.4085	-4.33044
2.409	-5.43823
2.4095	-1.71204
2.41	-2.81982
2.4105	4.43115
2.411	6.74744
2.4115	2.41699
2.412	3.42407
2.4125	4.53186
2.413	4.83398
2.4135	0.30212
2.414	0.10071
2.4145	3.8269
2.415	5.84106
2.4155	5.13611
2.416	0
2.4165	3.42407
2.417	4.22974
2.4175	5.23682
2.418	2.21558
2.4185	0.30212
2.419	-4.73328
2.4195	-5.94177
2.42	-10.27222
2.4205	0.30212
2.421	2.11487
2.4215	-3.42407
2.422	-6.94885
2.4225	-1.81274
2.423	-4.93469
2.4235	-5.84106
2.424	-6.84814
2.4245	-2.61841
2.425	-0.40283
2.4255	0
2.426	-0.10071
2.4265	-1.3092
2.427	-1.61133
2.4275	-2.92053
2.428	-2.41699
2.4285	-6.04248
2.429	-3.92761
2.4295	-4.12903
2.43	-6.3446
2.4305	-0.30212
2.431	-0.50354
2.4315	2.41699
2.432	-0.70496
2.4325	0.90637
2.433	4.63257
2.4335	0.90637
2.434	-2.41699
2.4345	1.2085
2.435	3.12195
2.4355	3.8269
2.436	0
2.4365	3.92761
2.437	4.22974
2.4375	-1.00708
2.438	0.90637
2.4385	5.13611
2.439	3.8269
2.4395	2.81982
2.44	2.61841
2.4405	-2.11487
2.441	-1.10779
2.4415	2.61841
2.442	-0.70496
2.4425	-4.02832
2.443	1.10779
2.4435	-0.90637
2.444	-6.2439
2.4445	-3.32336
2.445	-1.3092
2.4455	0.50354
2.446	-1.61133
2.4465	-0.60425
2.447	-4.02832
2.4475	-7.95593
2.448	-1.00708
2.4485	-3.62549
2.449	-3.8269
2.4495	-5.23682
2.45	-1.40991
2.4505	-4.63257
2.451	-6.3446
2.4515	-7.04956
2.452	-4.43115
2.4525	-0.90637
2.453	0.80566
2.4535	-0.60425
2.454	-0.30212
2.4545	-2.81982
2.455	0.20142
2.4555	-0.40283
2.456	-3.02124
2.4565	2.61841
2.457	1.51062
2.4575	-3.7262
2.458	-2.01416
2.4585	-1.71204
2.459	-5.84106
2.4595	-5.13611
2.46	-3.92761
2.4605	-2.81982
2.461	-4.33044
2.4615	-1.71204
2.462	-1.51062
2.4625	-4.63257
2.463	-2.5177
2.4635	-8.15735
2.464	-7.85522
2.4645	-8.66089
2.465	-7.15027
2.4655	-5.23682
2.466	-10.0708
2.4665	-7.35168
2.467	-7.45239
2.4675	-11.17859
2.468	-5.13611
2.4685	-7.65381
2.469	-3.62549
2.4695	-3.8269
2.47	1.10779
2.4705	2.71912
2.471	-5.53894
2.4715	-1.10779
2.472	-4.83398
2.4725	-3.42407
2.473	0.60425
2.4735	4.83398
2.474	-1.00708
2.4745	0.10071
2.475	1.10779
2.4755	3.62549
2.476	-2.11487
2.4765	-3.12195
2.477	-0.80566
2.4775	-0.70496
2.478	-6.04248
2.4785	-0.80566
2.479	0.70496
2.4795	2.31628
2.48	-2.01416
2.4805	1.2085
2.481	-2.71912
2.4815	-1.81274
2.482	5.53894
2.4825	0.30212
2.483	0.90637
2.4835	-4.93469
2.484	-6.94885
2.4845	-3.52478
2.485	0.90637
2.4855	-0.30212
2.486	-0.30212
2.4865	-1.81274
2.487	-1.91345
2.4875	0
2.488	-5.43823
2.4885	2.61841
2.489	2.41699
2.4895	-3.92761
2.49	-4.02832
2.4905	1.10779
2.491	-2.81982
2.4915	-3.42407
2.492	-1.3092
2.4925	3.12195
2.493	-0.20142
2.4935	-1.61133
2.494	-2.92053
2.4945	5.13611
2.495	6.14319
2.4955	-0.90637
2.496	3.62549
2.4965	-1.00708
2.497	4.93469
2.4975	0.80566
2.498	-0.20142
2.4985	-2.61841
2.499	-3.92761
2.4995	-0.20142
2.5	1.2085
2.5005	-0.50354
2.501	-1.40991
2.5015	1.00708
2.502	1.71204
2.5025	1.10779
2.503	-2.31628
2.5035	-4.12903
2.504	-0.90637
2.5045	0.90637
2.505	-2.11487
2.5055	-0.60425
2.506	6.64673
2.5065	1.91345
2.507	0.80566
2.5075	3.32336
2.508	1.3092
2.5085	7.04956
2.509	4.43115
2.5095	6.04248
2.51	2.5177
2.5105	-2.21558
2.511	2.71912
2.5115	0.30212
2.512	3.52478
2.5125	3.12195
2.513	-0.90637
2.5135	-1.2085
2.514	-0.90637
2.5145	1.51062
2.515	-0.30212
2.5155	-5.13611
2.516	-6.14319
2.5165	-5.33752
2.517	-3.7262
2.5175	-4.22974
2.518	-7.75452
2.5185	-2.11487
2.519	-5.74036
2.5195	-5.74036
2.52	-10.97717
2.5205	-6.2439
2.521	-6.04248
2.5215	-1.81274
2.522	-3.12195
2.5225	-2.01416
2.523	-5.94177
2.5235	-4.93469
2.524	-0.20142
2.5245	0.80566
2.525	1.3092
2.5255	-0.90637
2.526	-3.62549
2.5265	-1.2085
2.527	-0.40283
2.5275	-5.0354
2.528	-0.60425
2.5285	1.2085
2.529	0.90637
2.5295	-3.52478
2.53	-2.71912
2.5305	-1.71204
2.531	0.40283
2.5315	-0.70496
2.532	-4.43115
2.5325	1.2085
2.533	2.01416
2.5335	4.33044
2.534	-2.5177
2.5345	2.5177
2.535	0.60425
2.5355	5.23682
2.536	2.92053
2.5365	-1.40991
2.537	3.32336
2.5375	-6.04248
2.538	2.81982
2.5385	2.41699
2.539	2.61841
2.5395	-2.21558
2.54	2.21558
2.5405	2.21558
2.541	-0.80566
2.5415	-1.51062
2.542	-2.21558
2.5425	0.10071
2.543	2.92053
2.5435	6.2439
2.544	-3.92761
2.5445	-0.40283
2.545	-0.70496
2.5455	-2.92053
2.546	1.3092
2.5465	-3.02124
2.547	1.51062
2.5475	1.71204
2.548	-2.71912
2.5485	-4.12903
2.549	-2.21558
2.5495	-1.71204
2.55	-4.12903
2.5505	0.40283
2.551	1.40991
2.5515	-1.91345
2.552	1.10779
2.5525	-1.40991
2.553	-1.51062
2.5535	-7.25098
2.554	2.92053
2.5545	3.7262
2.555	1.3092
2.5555	-5.74036
2.556	-6.14319
2.5565	-3.12195
2.557	-0.80566
2.5575	4.02832
2.558	4.33044
2.5585	-2.61841
2.559	-5.13611
2.5595	-1.00708
2.56	0.30212
2.5605	1.00708
2.561	3.22266
2.5615	0.70496
2.562	-0.60425
2.5625	0.20142
2.563	4.53186
2.5635	3.32336
2.564	0.60425
2.5645	2.31628
2.565	1.71204
2.5655	-1.2085
2.566	-4.33044
2.5665	-6.14319
2.567	1.3092
2.5675	0.90637
2.568	6.04248
2.5685	0.70496
2.569	-2.41699
2.5695	-5.53894
2.57	1.61133
2.5705	3.22266
2.571	-2.61841
2.5715	-1.71204
2.572	-0.50354
2.5725	-0.50354
2.573	2.71912
2.5735	0.20142
2.574	1.81274
2.5745	-2.41699
2.575	-1.00708
2.5755	2.5177
2.576	4.12903
2.5765	0.90637
2.577	-3.12195
2.5775	1.40991
2.578	-4.63257
2.5785	2.41699
2.579	0.30212
2.5795	0.90637
2.58	2.41699
2.5805	0
2.581	3.22266
2.5815	6.44531
2.582	1.71204
2.5825	-1.51062
2.583	-0.40283
2.5835	5.74036
2.584	5.33752
2.5845	0.50354
2.585	3.32336
2.5855	2.61841
2.586	-1.40991
2.5865	7.25098
2.587	6.54602
2.5875	4.33044
2.588	-1.40991
2.5885	2.71912
2.589	-0.30212
2.5895	2.81982
2.59	1.40991
2.5905	-3.32336
2.591	-0.90637
2.5915	-3.52478
2.592	0.90637
2.5925	-0.30212
2.593	-0.60425
2.5935	2.61841
2.594	3.12195
2.5945	1.3092
2.595	0.60425
2.5955	3.22266
2.596	1.40991
2.5965	1.10779
2.597	1.91345
2.5975	3.02124
2.598	3.52478
2.5985	2.11487
2.599	2.92053
2.5995	-0.90637
2.6	-5.23682
2.6005	3.62549
2.601	2.11487
2.6015	5.43823
2.602	5.84106
2.6025	3.32336
2.603	5.0354
2.6035	-1.40991
2.604	0.40283
2.6045	1.61133
2.605	-0.70496
2.6055	-0.30212
2.606	-3.22266
2.6065	-2.71912
2.607	2.61841
2.6075	4.93469
2.608	3.12195
2.6085	-0.50354
2.609	-3.62549
2.6095	-5.43823
2.61	0.10071
2.6105	2.92053
2.611	-2.31628
2.6115	-8.7616
2.612	-4.53186
2.6125	-4.73328
2.613	-1.71204
2.6135	2.81982
2.614	5.74036
2.6145	-1.91345
2.615	-0.20142
2.6155	1.91345
2.616	1.2085
2.6165	3.02124
2.617	2.92053
2.6175	-1.10779
2.618	0.80566
2.6185	-8.45947
2.619	-2.92053
2.6195	-1.2085
2.62	3.8269
2.6205	3.02124
2.621	1.2085
2.6215	6.64673
2.622	1.51062
2.6225	7.35168
2.623	-2.41699
2.6235	-2.41699
2.624	-1.61133
2.6245	0
2.625	-4.22974
2.6255	-3.22266
2.626	2.31628
2.6265	-2.31628
2.627	-6.14319
2.6275	0.50354
2.628	-2.81982
2.6285	-5.23682
2.629	-4.22974
2.6295	-4.83398
2.63	-5.63965
2.6305	-0.70496
2.631	0.40283
2.6315	-3.62549
2.632	-3.62549
2.6325	-5.74036
2.633	-5.84106
2.6335	2.01416
2.634	0.10071
2.6345	0.80566
2.635	-1.51062
2.6355	-1.40991
2.636	3.52478
2.6365	0.60425
2.637	0.50354
2.6375	0.50354
2.638	7.35168
2.6385	4.33044
2.639	3.32336
2.6395	-0.80566
2.64	-3.02124
2.6405	0.30212
2.641	-3.7262
2.6415	1.51062
2.642	-2.11487
2.6425	-1.00708
2.643	0.40283
2.6435	-0.80566
2.644	-3.02124
2.6445	-0.90637
2.645	-2.21558
2.6455	2.21558
2.646	-6.74744
2.6465	-0.50354
2.647	-1.71204
2.6475	1.81274
2.648	-2.21558
2.6485	0.60425
2.649	-2.21558
2.6495	1.51062
2.65	-1.40991
2.6505	0.10071
2.651	1.91345
2.6515	-0.20142
2.652	0.10071
2.6525	1.00708
2.653	-1.71204
2.6535	1.2085
2.654	1.91345
2.6545	-1.61133
2.655	-1.00708
2.6555	-6.04248
2.656	-5.43823
2.6565	0.30212
2.657	0.60425
2.6575	-5.74036
2.658	-3.42407
2.6585	-3.32336
2.659	-4.63257
2.6595	0.30212
2.66	0.10071
2.6605	-2.41699
2.661	-2.01416
2.6615	-2.41699
2.662	-0.90637
2.6625	-5.23682
2.663	-7.04956
2.6635	-0.80566
2.664	-0.70496
2.6645	-2.81982
2.665	-4.43115
2.6655	-3.12195
2.666	0.50354
2.6665	0.60425
2.667	3.7262
2.6675	-2.71912
2.668	0.50354
2.6685	-1.51062
2.669	-1.00708
2.6695	-7.35168
2.67	-1.71204
2.6705	-4.93469
2.671	-3.62549
2.6715	-3.32336
2.672	-4.63257
2.6725	-0.30212
2.673	-1.10779
2.6735	-1.3092
2.674	2.21558
2.6745	-1.00708
2.675	-4.43115
2.6755	3.32336
2.676	3.02124
2.6765	-2.11487
2.677	2.92053
2.6775	-0.90637
2.678	-1.81274
2.6785	3.62549
2.679	-0.90637
2.6795	3.42407
2.68	3.32336
2.6805	4.93469
2.681	5.43823
2.6815	-1.81274
2.682	3.52478
2.6825	0.50354
2.683	-3.8269
2.6835	-1.2085
2.684	-2.41699
2.6845	2.81982
2.685	-0.80566
2.6855	-3.62549
2.686	-14.50195
2.6865	-6.84814
2.687	-0.70496
2.6875	-7.45239
2.688	1.51062
2.6885	-4.43115
2.689	-0.90637
2.6895	-3.32336
2.69	-6.44531
2.6905	-6.3446
2.691	-3.42407
2.6915	-4.22974
2.692	-6.94885
2.6925	-5.23682
2.693	-6.54602
2.6935	-2.41699
2.694	-3.12195
2.6945	-0.50354
2.695	-0.80566
2.6955	0.10071
2.696	2.61841
2.6965	0
2.697	1.40991
2.6975	-1.61133
2.698	2.81982
2.6985	-1.91345
2.699	-3.52478
2.6995	-1.81274
2.7	-1.61133
2.7005	3.92761
2.701	4.83398
2.7015	-1.51062
2.702	-2.11487
2.7025	-0.50354
2.703	1.61133
2.7035	3.32336
2.704	-1.61133
2.7045	1.51062
2.705	1.2085
2.7055	5.94177
2.706	0.60425
2.7065	1.00708
2.707	0.90637
2.7075	-0.40283
2.708	2.11487
2.7085	-1.81274
2.709	3.32336
2.7095	-1.71204
2.71	1.51062
2.7105	4.02832
2.711	-2.41699
2.7115	-1.2085
2.712	2.5177
2.7125	0.20142
2.713	-2.5177
2.7135	-2.92053
2.714	-0.70496
2.7145	-2.81982
2.715	-3.7262
2.7155	0.50354
2.716	-2.5177
2.7165	1.71204
2.717	-1.2085
2.7175	0.50354
2.718	-1.10779
2.7185	0.30212
2.719	2.5177
2.7195	-3.12195
2.72	1.10779
2.7205	1.40991
2.721	-2.5177
2.7215	-7.95593
2.722	-3.52478
2.7225	0.70496
2.723	-6.2439
2.7235	-4.93469
2.724	-0.90637
2.7245	0
2.725	-0.10071
2.7255	1.71204
2.726	1.51062
2.7265	-1.91345
2.727	-1.71204
2.7275	-2.61841
2.728	-0.60425
2.7285	-6.04248
2.729	-1.91345
2.7295	-0.30212
2.73	3.32336
2.7305	-2.61841
2.731	-2.71912
2.7315	-0.40283
2.732	2.5177
2.7325	1.51062
2.733	7.35168
2.7335	-1.61133
2.734	-0.50354
2.7345	1.71204
2.735	-0.30212
2.7355	-4.22974
2.736	-4.83398
2.7365	-5.0354
2.737	1.3092
2.7375	0.50354
2.738	-2.81982
2.7385	-2.81982
2.739	0
2.7395	-2.21558
2.74	-2.41699
2.7405	1.10779
2.741	5.23682
2.7415	0.30212
2.742	8.66089
2.7425	-0.30212
2.743	1.51062
2.7435	4.33044
2.744	5.43823
2.7445	0.90637
2.745	-0.70496
2.7455	-2.92053
2.746	0.50354
2.7465	-6.04248
2.747	-4.33044
2.7475	3.02124
2.748	3.92761
2.7485	-2.31628
2.749	1.10779
2.7495	-3.12195
2.75	0.50354
2.7505	-5.0354
2.751	-3.22266
2.7515	-3.12195
2.752	-1.40991
2.7525	-2.41699
2.753	-4.43115
2.7535	1.10779
2.754	-8.15735
2.7545	-3.02124
2.755	0.30212
2.7555	-3.92761
2.756	-2.81982
2.7565	-1.81274
2.757	0.20142
2.7575	3.92761
2.758	-0.90637
2.7585	1.81274
2.759	1.51062
2.7595	-1.3092
2.76	-2.61841
2.7605	-4.12903
2.761	-1.10779
2.7615	-3.02124
2.762	-3.7262
2.7625	-0.90637
2.763	0.20142
2.7635	-0.40283
2.764	2.21558
2.7645	-2.11487
2.765	1.61133
2.7655	-3.52478
2.766	-0.20142
2.7665	-1.00708
2.767	-3.7262
2.7675	-4.22974
2.768	2.21558
2.7685	-1.2085
2.769	-2.71912
2.7695	-5.43823
2.77	-2.11487
2.7705	-2.61841
2.771	1.00708
2.7715	2.01416
2.772	2.01416
2.7725	7.04956
2.773	6.74744
2.7735	1.61133
2.774	0.70496
2.7745	7.35168
2.775	2.61841
2.7755	3.52478
2.776	-1.40991
2.7765	0
2.777	3.92761
2.7775	-1.2085
2.778	4.43115
2.7785	-0.10071
2.779	4.12903
2.7795	2.81982
2.78	4.53186
2.7805	-2.92053
2.781	-8.35876
2.7815	2.81982
2.782	2.31628
2.7825	4.22974
2.783	-1.40991
2.7835	4.33044
2.784	-1.10779
2.7845	-3.42407
2.785	2.11487
2.7855	-2.81982
2.786	-1.10779
2.7865	2.5177
2.787	4.73328
2.7875	-3.8269
2.788	3.8269
2.7885	2.11487
2.789	6.74744
2.7895	-0.30212
2.79	2.31628
2.7905	0.80566
2.791	1.51062
2.7915	2.41699
2.792	3.12195
2.7925	-0.10071
2.793	0.80566
2.7935	1.61133
2.794	0.30212
2.7945	1.3092
2.795	-0.40283
2.7955	-3.22266
2.796	2.61841
2.7965	3.92761
2.797	-1.40991
2.7975	-4.33044
2.798	0.40283
2.7985	-2.5177
2.799	2.61841
2.7995	-0.80566
2.8	3.62549
2.8005	-2.71912
2.801	-1.91345
2.8015	0.50354
2.802	2.81982
2.8025	1.51062
2.803	-2.11487
2.8035	-2.5177
2.804	-3.52478
2.8045	-0.10071
2.805	-5.23682
2.8055	-3.92761
2.806	-3.32336
2.8065	-4.53186
2.807	-9.16443
2.8075	-5.63965
2.808	-11.58142
2.8085	-8.96301
2.809	-6.74744
2.8095	-3.22266
2.81	-3.02124
2.8105	-0.30212
2.811	2.21558
2.8115	3.52478
2.812	4.63257
2.8125	10.67505
2.813	14.09912
2.8135	16.21399
2.814	15.81116
2.8145	21.14868
2.815	22.45789
2.8155	27.19116
2.816	28.09753
2.8165	29.10461
2.817	22.15576
2.8175	23.46497
2.818	17.6239
2.8185	9.66797
2.819	14.19983
2.8195	7.45239
2.82	6.64673
2.8205	4.02832
2.821	-2.01416
2.8215	-2.71912
2.822	-4.73328
2.8225	-11.78284
2.823	-11.78284
2.8235	-10.97717
2.824	-11.2793
2.8245	-10.27222
2.825	-3.52478
2.8255	-9.26514
2.826	-5.0354
2.8265	-9.76868
2.827	-8.45947
2.8275	-6.44531
2.828	-7.25098
2.8285	-7.25098
2.829	-4.73328
2.8295	-2.5177
2.83	4.33044
2.8305	-4.83398
2.831	-3.02124
2.8315	1.91345
2.832	-0.60425
2.8325	5.0354
2.833	8.15735
2.8335	5.33752
2.834	10.77576
2.8345	5.94177
2.835	2.5177
2.8355	4.02832
2.836	2.21558
2.8365	4.83398
2.837	1.61133
2.8375	7.45239
2.838	0.70496
2.8385	-0.30212
2.839	-1.91345
2.8395	2.81982
2.84	-4.02832
2.8405	-5.84106
2.841	-2.81982
2.8415	-5.43823
2.842	-4.22974
2.8425	1.00708
2.843	-3.92761
2.8435	-5.33752
2.844	-2.31628
2.8445	0.80566
2.845	-1.51062
2.8455	0.10071
2.846	-0.80566
2.8465	-7.04956
2.847	-1.61133
2.8475	-1.91345
2.848	-7.45239
2.8485	-2.01416
2.849	-4.43115
2.8495	-3.7262
2.85	-3.42407
2.8505	-3.52478
2.851	-1.61133
2.8515	-0.80566
2.852	-5.63965
2.8525	-8.56018
2.853	-9.56726
2.8535	-7.65381
2.854	-7.15027
2.8545	-5.23682
2.855	-10.97717
2.8555	-11.2793
2.856	-12.89062
2.8565	-8.56018
2.857	-12.18567
2.8575	-7.35168
2.858	-8.25806
2.8585	-7.95593
2.859	-6.94885
2.8595	-4.22974
2.86	-5.53894
2.8605	-0.70496
2.861	0.30212
2.8615	-6.84814
2.862	-1.3092
2.8625	2.5177
2.863	1.81274
2.8635	6.84814
2.864	3.52478
2.8645	9.56726
2.865	9.86938
2.8655	13.19275
2.866	10.47363
2.8665	13.797
2.867	14.40125
2.8675	10.67505
2.868	9.36584
2.8685	6.3446
2.869	1.71204
2.8695	-6.64673
2.87	-0.30212
2.8705	-10.47363
2.871	-5.33752
2.8715	-4.53186
2.872	1.2085
2.8725	-4.53186
2.873	-0.10071
2.8735	-7.75452
2.874	-10.37292
2.8745	-13.09204
2.875	-13.59558
2.8755	-12.48779
2.876	-13.99841
2.8765	-19.03381
2.877	-21.65222
2.8775	-16.21399
2.878	-12.99133
2.8785	-12.38708
2.879	-8.66089
2.8795	-7.65381
2.88	-5.13611
2.8805	-5.0354
2.881	3.22266
2.8815	4.93469
2.882	-0.70496
2.8825	0.20142
2.883	7.85522
2.8835	4.93469
2.884	0.80566
2.8845	0.40283
2.885	-0.90637
2.8855	5.94177
2.886	3.32336
2.8865	0.60425
2.887	5.0354
2.8875	8.25806
2.888	8.45947
2.8885	7.04956
2.889	11.2793
2.8895	2.5177
2.89	2.61841
2.8905	4.53186
2.891	-1.10779
2.8915	-0.30212
2.892	-0.30212
2.8925	-2.61841
2.893	-1.71204
2.8935	0.80566
2.894	-3.32336
2.8945	-5.0354
2.895	-2.5177
2.8955	-5.94177
2.896	-2.11487
2.8965	-3.92761
2.897	-2.5177
2.8975	-2.5177
2.898	-4.53186
2.8985	-4.33044
2.899	-1.91345
2.8995	-8.96301
2.9	-3.7262
2.9005	-0.40283
2.901	0.90637
2.9015	-1.40991
2.902	-1.71204
2.9025	-2.92053
2.903	-1.81274
2.9035	-3.22266
2.904	-4.02832
2.9045	-5.63965
2.905	-6.64673
2.9055	-5.63965
2.906	-5.53894
2.9065	-4.83398
2.907	-3.22266
2.9075	-6.2439
2.908	-5.13611
2.9085	-5.63965
2.909	-6.54602
2.9095	-3.8269
2.91	-9.16443
2.9105	-10.0708
2.911	-7.45239
2.9115	-8.66089
2.912	-12.28638
2.9125	-5.43823
2.913	-5.74036
2.9135	-10.47363
2.914	-3.32336
2.9145	-6.3446
2.915	-7.04956
2.9155	-7.15027
2.916	-5.53894
2.9165	-7.65381
2.917	-8.15735
2.9175	-4.73328
2.918	-5.94177
2.9185	-1.00708
2.919	-0.10071
2.9195	-3.52478
2.92	7.65381
2.9205	1.91345
2.921	4.43115
2.9215	8.7616
2.922	11.48071
2.9225	11.07788
2.923	12.48779
2.9235	11.07788
2.924	7.15027
2.9245	4.53186
2.925	5.43823
2.9255	6.04248
2.926	3.32336
2.9265	3.92761
2.927	-3.52478
2.9275	1.71204
2.928	8.15735
2.9285	6.54602
2.929	2.01416
2.9295	3.62549
2.93	-1.10779
2.9305	-0.30212
2.931	-1.71204
2.9315	-1.51062
2.932	-1.3092
2.9325	-5.84106
2.933	-1.61133
2.9335	1.3092
2.934	-0.20142
2.9345	-1.3092
2.935	-2.71912
2.9355	0.90637
2.936	-4.12903
2.9365	-5.23682
2.937	-2.31628
2.9375	1.00708
2.938	-1.3092
2.9385	-1.91345
2.939	-4.43115
2.9395	-1.51062
2.94	-2.61841
2.9405	1.3092
2.941	1.10779
2.9415	-3.7262
2.942	-1.61133
2.9425	-7.04956
2.943	-5.63965
2.9435	-4.02832
2.944	-6.74744
2.9445	-10.97717
2.945	-17.52319
2.9455	-13.19275
2.946	-14.50195
2.9465	-9.56726
2.947	-8.35876
2.9475	-8.35876
2.948	-13.69629
2.9485	-4.73328
2.949	-9.46655
2.9495	-7.65381
2.95	-0.30212
2.9505	2.61841
2.951	1.61133
2.9515	6.94885
2.952	11.88354
2.9525	6.54602
2.953	2.41699
2.9535	12.38708
2.954	10.17151
2.9545	4.73328
2.955	6.64673
2.9555	6.14319
2.956	10.47363
2.9565	1.00708
2.957	0.40283
2.9575	-2.61841
2.958	2.11487
2.9585	3.7262
2.959	5.43823
2.9595	-1.51062
2.96	-2.21558
2.9605	0.70496
2.961	2.61841
2.9615	1.40991
2.962	-6.54602
2.9625	-9.06372
2.963	-6.64673
2.9635	-13.49487
2.964	-8.35876
2.9645	-6.04248
2.965	-5.53894
2.9655	-7.35168
2.966	-3.42407
2.9665	-7.85522
2.967	-11.17859
2.9675	-6.64673
2.968	-8.15735
2.9685	-5.33752
2.969	-0.90637
2.9695	-8.7616
2.97	-5.63965
2.9705	-5.74036
2.971	-9.16443
2.9715	-5.63965
2.972	-7.04956
2.9725	-11.07788
2.973	-11.07788
2.9735	-12.18567
2.974	-13.39417
2.9745	-10.47363
2.975	-8.05664
2.9755	-8.45947
2.976	-6.84814
2.9765	-8.15735
2.977	-12.38708
2.9775	-13.89771
2.978	-13.69629
2.9785	-8.05664
2.979	-4.93469
2.9795	-1.71204
2.98	4.83398
2.9805	-1.61133
2.981	5.94177
2.9815	5.84106
2.982	11.2793
2.9825	11.68213
2.983	10.17151
2.9835	11.2793
2.984	12.38708
2.9845	13.49487
2.985	8.45947
2.9855	12.18567
2.986	7.25098
2.9865	7.5531
2.987	9.66797
2.9875	11.17859
2.988	8.15735
2.9885	15.1062
2.989	12.89062
2.9895	12.18567
2.99	9.56726
2.9905	6.44531
2.991	4.73328
2.9915	2.01416
2.992	2.71912
2.9925	4.33044
2.993	4.53186
2.9935	-2.5177
2.994	-10.77576
2.9945	-7.5531
2.995	-5.0354
2.9955	-4.83398
2.996	-4.12903
2.9965	-9.16443
2.997	-14.19983
2.9975	-19.53735
2.998	-11.68213
2.9985	-21.24939
2.999	-18.93311
2.9995	-18.42957
3	-15.40833
3.0005	-12.89062
3.001	-13.49487
3.0015	-13.59558
3.002	-6.44531
3.0025	-8.8623
3.003	-3.7262
3.0035	1.71204
3.004	8.7616
3.0045	11.88354
3.005	19.63806
3.0055	22.86072
3.006	19.23523
3.0065	18.63098
3.007	21.3501
3.0075	23.66638
3.008	19.03381
3.0085	15.1062
3.009	18.42957
3.0095	11.98425
3.01	10.97717
3.0105	8.66089
3.011	14.80408
3.0115	8.15735
3.012	8.25806
3.0125	3.7262
3.013	2.31628
3.0135	2.41699
3.014	-1.3092
3.0145	-3.12195
3.015	-9.97009
3.0155	-6.04248
3.016	-8.25806
3.0165	-7.5531
3.017	-11.88354
3.0175	-7.25098
3.018	-7.95593
3.0185	-5.53894
3.019	-6.44531
3.0195	-6.44531
3.02	-8.7616
3.0205	-15.91187
3.021	-12.08496
3.0215	-16.61682
3.022	-13.99841
3.0225	-11.07788
3.023	-8.8623
3.0235	-4.63257
3.024	-10.17151
3.0245	-15.50903
3.025	-13.89771
3.0255	-16.3147
3.026	-13.69629
3.0265	-13.29346
3.027	-11.78284
3.0275	-12.89062
3.028	-15.50903
3.0285	-8.96301
3.029	-5.13611
3.0295	-9.36584
3.03	1.3092
3.0305	0.60425
3.031	-3.22266
3.0315	-3.62549
3.032	-5.63965
3.0325	4.22974
3.033	2.31628
3.0335	3.8269
3.034	9.26514
3.0345	7.5531
3.035	13.29346
3.0355	9.46655
3.036	13.797
3.0365	14.19983
3.037	11.38
3.0375	13.59558
3.038	12.18567
3.0385	18.63098
3.039	9.86938
3.0395	8.05664
3.04	4.33044
3.0405	12.38708
3.041	5.63965
3.0415	3.52478
3.042	-2.31628
3.0425	-5.53894
3.043	1.51062
3.0435	3.92761
3.044	0.20142
3.0445	2.11487
3.045	10.67505
3.0455	6.84814
3.046	13.39417
3.0465	11.88354
3.047	4.93469
3.0475	3.02124
3.048	7.5531
3.0485	-6.74744
3.049	-3.22266
3.0495	-8.15735
3.05	-6.94885
3.0505	-10.27222
3.051	-6.64673
3.0515	-6.3446
3.052	-9.97009
3.0525	-13.89771
3.053	-13.29346
3.0535	-13.19275
3.054	-13.89771
3.0545	-10.37292
3.055	-9.46655
3.0555	0.10071
3.056	-5.53894
3.0565	-4.73328
3.057	0
3.0575	-1.51062
3.058	-1.2085
3.0585	1.3092
3.059	5.0354
3.0595	2.71912
3.06	2.92053
3.0605	5.33752
3.061	6.2439
3.0615	8.66089
3.062	4.73328
3.0625	7.45239
3.063	11.38
3.0635	11.58142
3.064	5.43823
3.0645	3.8269
3.065	11.38
3.0655	12.68921
3.066	8.25806
3.0665	9.86938
3.067	12.78992
3.0675	13.49487
3.068	16.51611
3.0685	7.75452
3.069	4.83398
3.0695	7.25098
3.07	8.8623
3.0705	-1.71204
3.071	-0.40283
3.0715	3.7262
3.072	3.8269
3.0725	0.60425
3.073	0.90637
3.0735	-0.40283
3.074	-1.3092
3.0745	2.01416
3.075	4.22974
3.0755	3.8269
3.076	-6.64673
3.0765	-4.12903
3.077	-5.94177
3.0775	-6.04248
3.078	-6.3446
3.0785	-5.0354
3.079	-9.46655
3.0795	-11.48071
3.08	-0.90637
3.0805	-6.84814
3.081	-15.20691
3.0815	-9.26514
3.082	-4.43115
3.0825	-10.87646
3.083	-19.03381
3.0835	-17.32178
3.084	-15.1062
3.0845	-17.6239
3.085	-20.64514
3.0855	-18.32886
3.086	-29.10461
3.0865	-32.7301
3.087	-36.15417
3.0875	-30.81665
3.088	-37.96692
3.0885	-41.29028
3.089	-41.59241
3.0895	-45.72144
3.09	-43.60657
3.0905	-47.03064
3.091	-58.91418
3.0915	-58.00781
3.092	-50.2533
3.0925	-46.42639
3.093	-38.26904
3.0935	-34.94568
3.094	-15.91187
3.0945	-2.81982
3.095	18.02673
3.0955	26.18408
3.096	37.56409
3.0965	52.56958
3.097	64.75525
3.0975	74.72534
3.098	73.61755
3.0985	75.32959
3.099	74.92676
3.0995	69.89136
3.1	71.20056
3.1005	56.19507
3.101	47.13135
3.1015	38.77258
3.102	31.72302
3.1025	29.10461
3.103	15.50903
3.1035	20.04089
3.104	20.84656
3.1045	15.60974
3.105	16.3147
3.1055	8.35876
3.106	9.06372
3.1065	15.81116
3.107	13.59558
3.1075	14.50195
3.108	3.52478
3.1085	1.40991
3.109	-5.13611
3.1095	-16.61682
3.11	-19.33594
3.1105	-20.94727
3.111	-21.14868
3.1115	-30.41382
3.112	-33.83789
3.1125	-32.12585
3.113	-33.23364
3.1135	-34.74426
3.114	-23.66638
3.1145	-25.68054
3.115	-25.177
3.1155	-19.73877
3.116	-21.95435
3.1165	-19.73877
3.117	-21.95435
3.1175	-20.84656
3.118	-11.48071
3.1185	-10.47363
3.119	-10.77576
3.1195	-4.63257
3.12	-11.17859
3.1205	-7.5531
3.121	-0.50354
3.1215	2.92053
3.122	15.30762
3.1225	11.98425
3.123	15.50903
3.1235	21.85364
3.124	15.71045
3.1245	21.45081
3.125	23.36426
3.1255	26.28479
3.126	22.55859
3.1265	15.81116
3.127	10.57434
3.1275	7.45239
3.128	8.66089
3.1285	8.8623
3.129	8.45947
3.1295	1.00708
3.13	-1.71204
3.1305	-1.61133
3.131	-4.12903
3.1315	-0.20142
3.132	-1.51062
3.1325	1.51062
3.133	5.94177
3.1335	14.19983
3.134	9.76868
3.1345	12.18567
3.135	10.0708
3.1355	12.89062
3.136	16.51611
3.1365	13.09204
3.137	16.11328
3.1375	14.40125
3.138	6.74744
3.1385	11.07788
3.139	3.32336
3.1395	-5.0354
3.14	0.40283
3.1405	-4.83398
3.141	-11.07788
3.1415	-12.28638
3.142	-16.01257
3.1425	-12.99133
3.143	-16.61682
3.1435	-21.14868
3.144	-18.12744
3.1445	-22.45789
3.145	-21.24939
3.1455	-28.29895
3.146	-19.33594
3.1465	-10.97717
3.147	-7.5531
3.1475	-5.53894
3.148	-4.83398
3.1485	-9.06372
3.149	-9.66797
3.1495	-8.56018
3.15	-9.46655
3.1505	-8.25806
3.151	4.53186
3.1515	3.02124
3.152	0
3.1525	-5.53894
3.153	-10.57434
3.1535	-9.56726
3.154	-9.06372
3.1545	-15.50903
3.155	-20.84656
3.1555	-30.31311
3.156	-34.03931
3.1565	-40.2832
3.157	-42.7002
3.1575	-36.15417
3.158	-26.98975
3.1585	-14.40125
3.159	-5.53894
3.1595	1.71204
3.16	12.89062
3.1605	25.57983
3.161	39.88037
3.1615	45.41931
3.162	39.77966
3.1625	33.03223
3.163	27.59399
3.1635	17.01965
3.164	3.32336
3.1645	-10.47363
3.165	-18.42957
3.1655	-29.91028
3.166	-46.32568
3.1665	-49.54834
3.167	-54.18091
3.1675	-45.3186
3.168	-41.39099
3.1685	-44.41223
3.169	-36.75842
3.1695	-45.92285
3.17	-40.48462
3.1705	-38.16833
3.171	-41.69312
3.1715	-39.47754
3.172	-38.57117
3.1725	-35.34851
3.173	-30.31311
3.1735	-19.94019
3.174	-8.25806
3.1745	9.46655
3.175	26.98975
3.1755	39.88037
3.176	61.73401
3.1765	67.57507
3.177	64.45312
3.1775	66.97083
3.178	83.68835
3.1785	87.21313
3.179	90.63721
3.1795	85.19897
3.18	78.95508
3.1805	70.49561
3.181	70.99915
3.1815	58.91418
3.182	44.31152
3.1825	33.33435
3.183	30.81665
3.1835	19.43665
3.184	11.38
3.1845	8.56018
3.185	6.3446
3.1855	-3.12195
3.186	-14.90479
3.1865	-19.03381
3.187	-21.55151
3.1875	-20.24231
3.188	-17.22107
3.1885	-13.09204
3.189	-5.0354
3.1895	-2.01416
3.19	4.73328
3.1905	13.19275
3.191	19.03381
3.1915	28.39966
3.192	29.10461
3.1925	25.57983
3.193	23.06213
3.1935	13.49487
3.194	2.71912
3.1945	-6.2439
3.195	-3.62549
3.1955	-1.2085
3.196	-0.70496
3.1965	-6.2439
3.197	-3.22266
3.1975	-1.61133
3.198	-1.40991
3.1985	1.10779
3.199	-5.13611
3.1995	-11.07788
3.2	-5.0354
3.2005	-7.85522
3.201	-9.46655
3.2015	-20.84656
3.202	-17.92603
3.2025	-17.32178
3.203	-19.33594
3.2035	-13.39417
3.204	-14.70337
3.2045	-16.91895
3.205	-20.24231
3.2055	-16.01257
3.206	-21.85364
3.2065	-28.80249
3.207	-32.83081
3.2075	-37.06055
3.208	-33.43506
3.2085	-42.19666
3.209	-44.0094
3.2095	-40.58533
3.21	-40.68604
3.2105	-30.71594
3.211	-24.67346
3.2115	-17.82532
3.212	-9.46655
3.2125	-2.41699
3.213	3.32336
3.2135	8.05664
3.214	12.5885
3.2145	16.3147
3.215	15.20691
3.2155	19.33594
3.216	13.99841
3.2165	10.97717
3.217	10.97717
3.2175	1.51062
3.218	-10.37292
3.2185	-22.86072
3.219	-15.91187
3.2195	-17.32178
3.22	-23.56567
3.2205	-39.27612
3.221	-58.91418
3.2215	-71.90552
3.222	-99.09668
3.2225	-158.5144
3.223	-225.28381
3.2235	-258.41675
3.224	-268.99109
3.2245	-275.83923
3.225	-282.88879
3.2255	-287.21924
3.226	-288.32703
3.2265	-258.81958
3.227	-220.85266
3.2275	-175.63477
3.228	-116.82129
3.2285	-52.06604
3.229	6.14319
3.2295	49.64905
3.23	106.24695
3.2305	145.42236
3.231	167.17529
3.2315	180.36804
3.232	200.81177
3.2325	216.52222
3.233	219.03992
3.2335	217.32788
3.234	204.9408
3.2345	198.79761
3.235	198.6969
3.2355	207.96204
3.236	208.06274
3.2365	211.68823
3.237	209.67407
3.2375	204.84009
3.238	201.51672
3.2385	189.63318
3.239	163.65051
3.2395	126.48926
3.24	92.14783
3.2405	64.55383
3.241	44.21082
3.2415	36.15417
3.242	16.3147
3.2425	9.66797
3.243	-8.05664
3.2435	-25.37842
3.244	-45.41931
3.2445	-54.28162
3.245	-60.3241
3.2455	-66.06445
3.246	-65.3595
3.2465	-66.16516
3.247	-64.75525
3.2475	-75.4303
3.248	-75.93384
3.2485	-68.98499
3.249	-63.34534
3.2495	-46.22498
3.25	-30.31311
3.2505	-5.23682
3.251	21.75293
3.2515	47.43347
3.252	70.59631
3.2525	88.82446
3.253	92.95349
3.2535	102.62146
3.254	101.9165
3.2545	95.16907
3.255	89.42871
3.2555	83.08411
3.256	76.7395
3.2565	62.9425
3.257	50.354
3.2575	41.59241
3.258	19.63806
3.2585	6.04248
3.259	-3.52478
3.2595	-5.13611
3.26	-10.67505
3.2605	-13.69629
3.261	-17.52319
3.2615	-21.14868
3.262	-28.09753
3.2625	-34.94568
3.263	-31.92444
3.2635	-30.61523
3.264	-33.03223
3.2645	-29.80957
3.265	-32.52869
3.2655	-34.44214
3.266	-39.67896
3.2665	-47.7356
3.267	-49.0448
3.2675	-49.74976
3.268	-47.23206
3.2685	-45.52002
3.269	-49.0448
3.2695	-49.24622
3.27	-55.49011
3.2705	-73.71826
3.271	-94.76624
3.2715	-104.93774
3.272	-113.90076
3.2725	-120.14465
3.273	-126.58997
3.2735	-130.61829
3.274	-139.48059
3.2745	-138.07068
3.275	-129.5105
3.2755	-116.21704
3.276	-102.82288
3.2765	-93.15491
3.277	-72.81189
3.2775	-48.84338
3.278	-24.37134
3.2785	-19.53735
3.279	-2.11487
3.2795	9.36584
3.28	27.19116
3.2805	39.27612
3.281	48.74268
3.2815	64.05029
3.282	74.62463
3.2825	87.21313
3.283	109.06677
3.2835	118.63403
3.284	106.04553
3.2845	95.37048
3.285	91.44287
3.2855	70.89844
3.286	33.63647
3.2865	-26.98975
3.287	-66.16516
3.2875	-87.01172
3.288	-91.54358
3.2885	-110.07385
3.289	-117.42554
3.2895	-132.53174
3.29	-132.43103
3.2905	-112.79297
3.291	-80.26428
3.2915	-52.56958
3.292	-28.9032
3.2925	-5.84106
3.293	24.27063
3.2935	49.54834
3.294	61.53259
3.2945	59.31702
3.295	48.84338
3.2955	35.04639
3.296	13.29346
3.2965	-8.7616
3.297	-38.77258
3.2975	-100.20447
3.298	-132.83386
3.2985	-142.70325
3.299	-135.95581
3.2995	-123.56873
3.3	-111.8866
3.3005	-103.72925
3.301	-117.02271
3.3015	-137.16431
3.302	-157.10449
3.3025	-167.276
3.303	-201.01318
3.3035	-239.68506
3.304	-264.35852
3.3045	-285.91003
3.305	-288.52844
3.3055	-273.42224
3.306	-230.1178
3.3065	-169.69299
3.307	-109.16748
3.3075	-46.5271
3.308	38.06763
3.3085	129.10767
3.309	218.93921
3.3095	312.19482
3.31	412.80212
3.3105	496.89331
3.311	545.13245
3.3115	582.59583
3.312	599.9176
3.3125	569.10095
3.313	516.63208
3.3135	438.68408
3.314	371.0083
3.3145	297.69287
3.315	232.23267
3.3155	178.15247
3.316	150.8606
3.3165	120.95032
3.317	110.27527
3.3175	96.37756
3.318	66.26587
3.3185	35.44922
3.319	18.32886
3.3195	-6.94885
3.32	-37.56409
3.3205	-61.12976
3.321	-92.65137
3.3215	-108.26111
3.322	-129.61121
3.3225	-143.60962
3.323	-154.48608
3.3235	-161.0321
3.324	-160.32715
3.3245	-146.63086
3.325	-118.33191
3.3255	-85.80322
3.326	-54.68445
3.3265	-21.55151
3.327	8.7616
3.3275	36.95984
3.328	44.0094
3.3285	58.00781
3.329	69.68994
3.3295	71.50269
3.33	74.52393
3.3305	65.56091
3.331	51.96533
3.3315	27.89612
3.332	-0.70496
3.3325	-34.74426
3.333	-82.17773
3.3335	-127.99988
3.334	-162.64343
3.3345	-195.17212
3.335	-210.98328
3.3355	-239.78577
3.336	-295.98083
3.3365	-333.2428
3.337	-364.46228
3.3375	-380.57556
3.338	-373.02246
3.3385	-353.68652
3.339	-326.39465
3.3395	-301.51978
3.34	-265.96985
3.3405	-210.37903
3.341	-136.56006
3.3415	-47.93701
3.342	34.24072
3.3425	117.42554
3.343	191.34521
3.3435	245.52612
3.344	261.94153
3.3445	268.08472
3.345	279.06189
3.3455	287.42065
3.346	260.43091
3.3465	207.86133
3.347	133.23669
3.3475	57.00073
3.348	-0.10071
3.3485	-44.11011
3.349	-85.09827
3.3495	-128.60413
3.35	-182.78503
3.3505	-217.63
3.351	-252.17285
3.3515	-294.57092
3.352	-333.94775
3.3525	-369.90051
3.353	-375.03662
3.3535	-343.91785
3.354	-297.29004
3.3545	-246.13037
3.355	-181.87866
3.3555	-102.72217
3.356	-19.33594
3.3565	60.22339
3.357	160.62927
3.3575	253.38135
3.358	321.15784
3.3585	372.3175
3.359	390.54565
3.3595	403.53699
3.36	398.80371
3.3605	368.89343
3.361	340.99731
3.3615	305.14526
3.362	260.22949
3.3625	225.88806
3.363	199.70398
3.3635	167.47742
3.364	127.59705
3.3645	97.38464
3.365	99.09668
3.3655	129.91333
3.366	154.58679
3.3665	169.18945
3.367	167.67883
3.3675	151.66626
3.368	139.37988
3.3685	136.96289
3.369	126.38855
3.3695	104.93774
3.37	76.03455
3.3705	44.31152
3.371	3.7262
3.3715	-13.29346
3.372	-34.94568
3.3725	-49.24622
3.373	-58.30994
3.3735	-61.23047
3.374	-70.19348
3.3745	-82.68127
3.375	-88.0188
3.3755	-94.46411
3.376	-122.96448
3.3765	-202.02026
3.377	-277.75269
3.3775	-332.63855
3.378	-361.64246
3.3785	-374.63379
3.379	-403.6377
3.3795	-433.04443
3.38	-448.15063
3.3805	-421.3623
3.381	-378.35999
3.3815	-326.89819
3.382	-259.92737
3.3825	-199.80469
3.383	-149.85352
3.3835	-100.80872
3.384	-61.23047
3.3845	-22.25647
3.385	-8.66089
3.3855	0.70496
3.386	7.65381
3.3865	11.78284
3.387	10.37292
3.3875	5.74036
3.388	14.80408
3.3885	10.67505
3.389	-24.77417
3.3895	-68.48145
3.39	-120.84961
3.3905	-135.75439
3.391	-109.4696
3.3915	-67.67578
3.392	-31.4209
3.3925	-4.33044
3.393	7.75452
3.3935	21.24939
3.394	61.23047
3.3945	98.59314
3.395	142.099
3.3955	188.72681
3.396	221.85974
3.3965	264.66064
3.397	288.62915
3.3975	257.8125
3.398	222.76611
3.3985	205.74646
3.399	173.72131
3.3995	130.31616
3.4	106.14624
3.4005	75.4303
3.401	53.47595
3.4015	22.76001
3.402	-29.60815
3.4025	-67.47437
3.403	-86.20605
3.4035	-116.31775
3.404	-130.31616
3.4045	-135.15015
3.405	-120.34607
3.4055	-94.16199
3.406	-65.86304
3.4065	-58.00781
3.407	-31.21948
3.4075	10.37292
3.408	87.71667
3.4085	188.52539
3.409	271.50879
3.4095	340.59448
3.41	395.48035
3.4105	455.3009
3.411	496.08765
3.4115	517.33704
3.412	531.83899
3.4125	514.4165
3.413	493.56995
3.4135	432.44019
3.414	332.43713
3.4145	210.88257
3.415	87.31384
3.4155	-21.04797
3.416	-121.55457
3.4165	-206.75354
3.417	-285.20508
3.4175	-342.1051
3.418	-367.2821
3.4185	-381.28052
3.419	-382.08618
3.4195	-353.28369
3.42	-301.62048
3.4205	-246.73462
3.421	-173.72131
3.4215	-96.47827
3.422	-48.94409
3.4225	-169.7937
3.423	-368.59131
3.4235	-554.90112
3.424	-651.4801
3.4245	-684.71375
3.425	-731.54297
3.4255	-766.48865
3.426	-823.08655
3.4265	-877.26746
3.427	-898.11401
3.4275	-848.8678
3.428	-771.32263
3.4285	-666.08276
3.429	-539.29138
3.4295	-411.1908
3.43	-271.20667
3.4305	-135.75439
3.431	39.57825
3.4315	208.66699
3.432	400.11292
3.4325	607.87354
3.433	775.45166
3.4335	936.38306
3.434	1070.224
3.4345	1167.30652
3.435	1221.89026
3.4355	1205.17273
3.436	1149.68262
3.4365	1063.17444
3.437	957.22961
3.4375	836.88354
3.438	697.00012
3.4385	587.53052
3.439	472.8241
3.4395	374.93591
3.44	267.17834
3.4405	139.17847
3.441	-13.69629
3.4415	-132.93457
3.442	-206.55212
3.4425	-200.10681
3.443	-190.84167
3.4435	-160.52856
3.444	-130.61829
3.4445	-107.65686
3.445	-77.04163
3.4455	-31.92444
3.446	2.81982
3.4465	40.98816
3.447	80.96924
3.4475	101.61438
3.448	113.59863
3.4485	112.18872
3.449	97.78748
3.4495	80.96924
3.45	77.04163
3.4505	75.32959
3.451	92.44995
3.4515	115.41138
3.452	122.46094
3.4525	138.97705
3.453	165.66467
3.4535	187.01477
3.454	190.23743
3.4545	179.66309
3.455	160.9314
3.4555	135.75439
3.456	59.41772
3.4565	-39.17542
3.457	-147.03369
3.4575	-212.19177
3.458	-262.24365
3.4585	-307.56226
3.459	-336.06262
3.4595	-354.08936
3.46	-339.99023
3.4605	-311.99341
3.461	-274.1272
3.4615	-211.2854
3.462	-147.33582
3.4625	-81.67419
3.463	-62.03613
3.4635	-42.39807
3.464	-5.33752
3.4645	25.27771
3.465	55.59082
3.4655	76.13525
3.466	83.18481
3.4665	76.13525
3.467	67.27295
3.4675	54.28162
3.468	37.56409
3.4685	3.02124
3.469	-33.63647
3.4695	-69.68994
3.47	-94.06128
3.4705	-109.06677
3.471	-113.49792
3.4715	-116.01562
3.472	-98.29102
3.4725	-54.28162
3.473	-7.85522
3.4735	38.16833
3.474	86.30676
3.4745	123.66943
3.475	138.67493
3.4755	129.61121
3.476	108.86536
3.4765	46.02356
3.477	-18.02673
3.4775	-94.16199
3.478	-210.0769
3.4785	-319.54651
3.479	-416.83044
3.4795	-557.51953
3.48	-632.04346
3.4805	-645.43762
3.481	-608.17566
3.4815	-560.23865
3.482	-502.53296
3.4825	-394.17114
3.483	-286.81641
3.4835	-196.27991
3.484	-128.20129
3.4845	-113.80005
3.485	-98.89526
3.4855	-153.57971
3.486	-233.84399
3.4865	-350.96741
3.487	-421.3623
3.4875	-411.39221
3.488	-408.37097
3.4885	-441.60461
3.489	-510.18677
3.4895	-552.28271
3.49	-555.60608
3.4905	-566.78467
3.491	-572.32361
3.4915	-500.41809
3.492	-370.90759
3.4925	-264.55994
3.493	-141.69617
3.4935	-82.07703
3.494	14.90479
3.4945	141.79688
3.495	269.89746
3.4955	364.56299
3.496	434.05151
3.4965	481.98853
3.497	499.71313
3.4975	546.54236
3.498	587.22839
3.4985	586.42273
3.499	525.6958
3.4995	315.31677
3.5	136.66077
3.5005	63.84888
3.501	21.65222
3.5015	-11.98425
3.502	-30.91736
3.5025	-107.85828
3.503	-193.56079
3.5035	-199.60327
3.504	-250.76294
3.5045	-276.04065
3.505	-236.66382
3.5055	-126.79138
3.506	20.84656
3.5065	168.98804
3.507	314.91394
3.5075	461.74622
3.508	613.61389
3.5085	766.48865
3.509	918.0542
3.5095	1055.21851
3.51	1179.6936
3.5105	1250.69275
3.511	1257.13806
3.5115	1205.07202
3.512	1147.46704
3.5125	1064.58435
3.513	969.41528
3.5135	865.78674
3.514	753.19519
3.5145	641.71143
3.515	525.6958
3.5155	393.76831
3.516	253.58276
3.5165	126.9928
3.517	24.27063
3.5175	-55.18799
3.518	-119.74182
3.5185	-176.23901
3.519	-216.72363
3.5195	-273.82507
3.52	-364.36157
3.5205	-451.87683
3.521	-480.98145
3.5215	-495.68481
3.522	-499.41101
3.5225	-488.63525
3.523	-449.86267
3.5235	-412.70142
3.524	-369.7998
3.5245	-316.9281
3.525	-276.54419
3.5255	-224.98169
3.526	-191.04309
3.5265	-149.75281
3.527	-126.69067
3.5275	-109.16748
3.528	-98.69385
3.5285	-87.01172
3.529	-120.04395
3.5295	-227.19727
3.53	-311.08704
3.5305	-367.88635
3.531	-381.68335
3.5315	-393.06335
3.532	-406.05469
3.5325	-377.2522
3.533	-314.81323
3.5335	-201.81885
3.534	-91.745
3.5345	-12.89062
3.535	45.3186
3.5355	90.03296
3.536	4.43115
3.5365	-96.7804
3.537	-119.33899
3.5375	-162.13989
3.538	-237.06665
3.5385	-297.49146
3.539	-336.06262
3.5395	-348.65112
3.54	-349.25537
3.5405	-314.4104
3.541	-271.40808
3.5415	-232.03125
3.542	-343.01147
3.5425	-387.82654
3.543	-362.75024
3.5435	-295.47729
3.544	-220.95337
3.5445	-163.95264
3.545	-124.4751
3.5455	-38.16833
3.546	31.52161
3.5465	113.59863
3.547	203.02734
3.5475	293.36243
3.548	390.34424
3.5485	400.11292
3.549	335.25696
3.5495	321.76208
3.55	413.20496
3.5505	527.81067
3.551	591.76025
3.5515	605.05371
3.552	553.79333
3.5525	481.88782
3.553	408.57239
3.5535	322.36633
3.554	263.35144
3.5545	171.30432
3.555	91.44287
3.5555	14.30054
3.556	-24.57275
3.5565	14.19983
3.557	89.22729
3.5575	159.52148
3.558	207.35779
3.5585	263.65356
3.559	325.38757
3.5595	371.10901
3.56	403.13416
3.5605	425.89417
3.561	449.76196
3.5615	456.40869
3.562	452.27966
3.5625	421.3623
3.563	384.60388
3.5635	325.89111
3.564	214.10522
3.5645	91.54358
3.565	-8.05664
3.5655	-182.88574
3.566	-456.61011
3.5665	-649.66736
3.567	-762.1582
3.5675	-807.3761
3.568	-889.65454
3.5685	-1038.40027
3.569	-1077.37427
3.5695	-1078.78418
3.57	-1051.79443
3.5705	-1086.43799
3.571	-1070.62683
3.5715	-951.28784
3.572	-765.07874
3.5725	-547.0459
3.573	-312.39624
3.5735	-44.0094
3.574	197.99194
3.5745	402.12708
3.575	581.68945
3.5755	702.13623
3.576	709.89075
3.5765	718.95447
3.577	714.42261
3.5775	740.90881
3.578	736.67908
3.5785	719.3573
3.579	694.98596
3.5795	675.95215
3.58	631.84204
3.5805	573.83423
3.581	522.37244
3.5815	465.97595
3.582	418.94531
3.5825	374.43237
3.583	351.06812
3.5835	315.31677
3.584	277.14844
3.5845	247.64099
3.585	187.92114
3.5855	8.05664
3.586	-195.17212
3.5865	-331.22864
3.587	-402.93274
3.5875	-446.13647
3.588	-457.41577
3.5885	-408.47168
3.589	-350.36316
3.5895	-326.59607
3.59	-308.67004
3.5905	-332.94067
3.591	-457.11365
3.5915	-731.64368
3.592	-1122.59216
3.5925	-1440.12451
3.593	-1564.80103
3.5935	-1531.16455
3.594	-1448.58398
3.5945	-1360.36377
3.595	-1219.77539
3.5955	-980.9967
3.596	-721.37146
3.5965	-417.33398
3.597	-96.57898
3.5975	213.50098
3.598	472.8241
3.5985	670.21179
3.599	859.94568
3.5995	968.10608
3.6	1013.82751
3.6005	1039.10522
3.601	980.79529
3.6015	880.08728
3.602	541.10413
3.6025	147.73865
3.603	-46.82922
3.6035	-172.91565
3.604	-257.00684
3.6045	-299.80774
3.605	-288.93127
3.6055	-219.84558
3.606	-108.86536
3.6065	30.2124
3.607	202.72522
3.6075	411.69434
3.608	630.83496
3.6085	832.85522
3.609	1034.9762
3.6095	1181.00281
3.61	1199.23096
3.6105	1188.25378
3.611	1191.27502
3.6115	1182.81555
3.612	1102.45056
3.6125	968.50891
3.613	829.12903
3.6135	686.32507
3.614	531.13403
3.6145	373.32458
3.615	198.49548
3.6155	68.58215
3.616	-11.2793
3.6165	-50.95825
3.617	-75.93384
3.6175	-104.3335
3.618	-143.50891
3.6185	-159.01794
3.619	-145.62378
3.6195	-157.10449
3.62	-156.09741
3.6205	-148.04077
3.621	-131.72607
3.6215	-113.49792
3.622	-89.83154
3.6225	-117.12341
3.623	-136.35864
3.6235	-138.27209
3.624	-152.97546
3.6245	-155.19104
3.625	-158.11157
3.6255	-181.37512
3.626	-213.8031
3.6265	-253.78418
3.627	-289.2334
3.6275	-315.51819
3.628	-325.38757
3.6285	-325.99182
3.629	-330.22156
3.6295	-315.51819
3.63	-285.40649
3.6305	-238.9801
3.631	-192.453
3.6315	-151.66626
3.632	-99.80164
3.6325	-44.61365
3.633	8.35876
3.6335	69.1864
3.634	57.10144
3.6345	-34.34143
3.635	-116.51917
3.6355	-170.19653
3.636	-212.79602
3.6365	-237.26807
3.637	-286.31287
3.6375	-546.03882
3.638	-741.41235
3.6385	-792.37061
3.639	-761.85608
3.6395	-736.17554
3.64	-794.7876
3.6405	-809.49097
3.641	-777.86865
3.6415	-696.09375
3.642	-557.01599
3.6425	-418.94531
3.643	-413.20496
3.6435	-337.17041
3.644	-201.31531
3.6445	-23.16284
3.645	144.6167
3.6455	257.51038
3.646	350.36316
3.6465	337.57324
3.647	303.63464
3.6475	306.65588
3.648	287.52136
3.6485	302.02332
3.649	371.31042
3.6495	411.69434
3.65	434.35364
3.6505	288.12561
3.651	119.64111
3.6515	-40.98816
3.652	-165.86609
3.6525	-195.97778
3.653	-136.15723
3.6535	-14.80408
3.654	114.60571
3.6545	222.76611
3.655	274.73145
3.6555	250.96436
3.656	46.22498
3.6565	-235.45532
3.657	-413.00354
3.6575	-449.56055
3.658	-435.66284
3.6585	-409.47876
3.659	-323.87695
3.6595	-254.99268
3.66	-190.53955
3.6605	-71.09985
3.661	67.77649
3.6615	204.73938
3.662	339.5874
3.6625	418.54248
3.663	444.72656
3.6635	509.48181
3.664	608.88062
3.6645	653.79639
3.665	684.91516
3.6655	609.8877
3.666	549.26147
3.6665	537.57935
3.667	545.73669
3.6675	536.9751
3.668	487.9303
3.6685	391.35132
3.669	299.70703
3.6695	236.56311
3.67	84.49402
3.6705	-15.50903
3.671	-40.2832
3.6715	-67.57507
3.672	-169.49158
3.6725	-352.78015
3.673	-478.26233
3.6735	-615.93018
3.674	-624.79248
3.6745	-678.67126
3.675	-755.51147
3.6755	-765.38086
3.676	-700.32349
3.6765	-661.24878
3.677	-713.51624
3.6775	-674.94507
3.678	-524.08447
3.6785	-344.21997
3.679	-237.97302
3.6795	-192.25159
3.68	-107.25403
3.6805	58.61206
3.681	263.75427
3.6815	467.08374
3.682	642.41638
3.6825	800.32654
3.683	902.948
3.6835	895.19348
3.684	792.77344
3.6845	723.48633
3.685	687.13074
3.6855	654.50134
3.686	564.06555
3.6865	455.3009
3.687	387.02087
3.6875	353.08228
3.688	305.24597
3.6885	262.74719
3.689	253.07922
3.6895	246.63391
3.69	271.91162
3.6905	265.56702
3.691	217.63
3.6915	179.96521
3.692	142.099
3.6925	129.30908
3.693	151.96838
3.6935	108.26111
3.694	45.3186
3.6945	-12.68921
3.695	-49.34692
3.6955	-68.48145
3.696	-88.82446
3.6965	-103.52783
3.697	-125.58289
3.6975	-110.77881
3.698	-56.29578
3.6985	-3.22266
3.699	32.22656
3.6995	29.40674
3.7	8.35876
3.7005	-83.08411
3.701	-228.00293
3.7015	-408.06885
3.702	-577.56042
3.7025	-645.33691
3.703	-638.99231
3.7035	-587.83264
3.704	-514.11438
3.7045	-425.59204
3.705	-317.33093
3.7055	-202.12097
3.706	-83.88977
3.7065	10.37292
3.707	89.93225
3.7075	170.19653
3.708	231.02417
3.7085	278.15552
3.709	309.97925
3.7095	304.23889
3.71	273.22083
3.7105	245.92896
3.711	225.18311
3.7115	207.86133
3.712	195.27283
3.7125	174.12415
3.713	140.08484
3.7135	66.16516
3.714	-87.81738
3.7145	-203.12805
3.715	-287.21924
3.7155	-329.61731
3.716	-338.68103
3.7165	-343.51501
3.717	-336.06262
3.7175	-307.66296
3.718	-257.10754
3.7185	-210.78186
3.719	-137.26501
3.7195	-63.04321
3.72	6.04248
3.7205	65.46021
3.721	116.21704
3.7215	142.90466
3.722	135.65369
3.7225	86.8103
3.723	7.25098
3.7235	-120.84961
3.724	-234.24683
3.7245	-309.27429
3.725	-366.87927
3.7255	-378.35999
3.726	-360.53467
3.7265	-388.22937
3.727	-443.51807
3.7275	-419.75098
3.728	-347.34192
3.7285	-209.47266
3.729	-42.39807
3.7295	111.9873
3.73	230.31921
3.7305	301.41907
3.731	361.34033
3.7315	375.64087
3.732	372.41821
3.7325	333.94775
3.733	273.82507
3.7335	223.47107
3.734	157.30591
3.7345	103.02429
3.735	40.48462
3.7355	-36.75842
3.736	-164.35547
3.7365	-291.54968
3.737	-472.32056
3.7375	-507.87048
3.738	-454.39453
3.7385	-345.8313
3.739	-236.16028
3.7395	-148.04077
3.74	-75.22888
3.7405	11.88354
3.741	55.59082
3.7415	92.75208
3.742	110.07385
3.7425	131.62537
3.743	152.87476
3.7435	190.23743
3.744	218.53638
3.7445	236.05957
3.745	230.41992
3.7455	237.46948
3.746	261.23657
3.7465	288.72986
3.747	289.73694
3.7475	236.16028
3.748	142.70325
3.7485	84.09119
3.749	107.15332
3.7495	134.34448
3.75	144.21387
3.7505	159.21936
3.751	175.13123
3.7515	165.66467
3.752	158.4137
3.7525	152.97546
3.753	115.00854
3.7535	26.3855
3.754	-25.07629
3.7545	-42.29736
3.755	-104.13208
3.7555	-161.33423
3.756	-247.23816
3.7565	-332.43713
3.757	-343.91785
3.7575	-326.69678
3.758	-298.80066
3.7585	-252.37427
3.759	-208.96912
3.7595	-167.88025
3.76	-137.86926
3.7605	-106.64978
3.761	-168.18237
3.7615	-284.80225
3.762	-333.54492
3.7625	-292.85889
3.763	-229.11072
3.7635	-157.2052
3.764	-110.98022
3.7645	-39.98108
3.765	22.05505
3.7655	68.17932
3.766	114.4043
3.7665	104.83704
3.767	105.74341
3.7675	121.85669
3.768	152.47192
3.7685	128.90625
3.769	44.71436
3.7695	-54.98657
3.77	-84.49402
3.7705	-102.11792
3.771	-86.91101
3.7715	-128.302
3.772	-292.25464
3.7725	-505.65491
3.773	-542.71545
3.7735	-487.42676
3.774	-475.3418
3.7745	-644.83337
3.775	-795.69397
3.7755	-781.49414
3.776	-657.11975
3.7765	-460.13489
3.777	-178.15247
3.7775	77.14233
3.778	222.06116
3.7785	210.68115
3.779	220.85266
3.7795	325.28687
3.78	408.06885
3.7805	451.87683
3.781	491.05225
3.7815	497.69897
3.782	478.56445
3.7825	387.323
3.783	347.54333
3.7835	369.19556
3.784	399.50867
3.7845	398.60229
3.785	412.39929
3.7855	450.06409
3.786	489.54163
3.7865	522.37244
3.787	546.84448
3.7875	561.95068
3.788	567.38892
3.7885	571.82007
3.789	547.34802
3.7895	486.7218
3.79	424.18213
3.7905	384.10034
3.791	340.99731
3.7915	282.48596
3.792	239.78577
3.7925	130.8197
3.793	22.76001
3.7935	-29.80957
3.794	-128.70483
3.7945	-260.73303
3.795	-366.07361
3.7955	-404.24194
3.796	-389.13574
3.7965	-375.74158
3.797	-355.39856
3.7975	-542.51404
3.798	-843.73169
3.7985	-920.06836
3.799	-995.29724
3.7995	-1090.3656
3.8	-1032.86133
3.8005	-895.3949
3.801	-746.64917
3.8015	-559.73511
3.802	-417.83752
3.8025	-292.85889
3.803	-172.51282
3.8035	-26.58691
3.804	148.54431
3.8045	340.29236
3.805	496.18835
3.8055	625.29602
3.806	728.1189
3.8065	820.36743
3.807	866.99524
3.8075	863.36975
3.808	889.75525
3.8085	891.16516
3.809	853.39966
3.8095	763.97095
3.81	660.34241
3.8105	526.30005
3.811	344.11926
3.8115	136.96289
3.812	-1.51062
3.8125	-47.13135
3.813	-92.75208
3.8135	-163.4491
3.814	-243.00842
3.8145	-259.82666
3.815	-261.6394
3.8155	-271.20667
3.816	-284.29871
3.8165	-274.63074
3.817	-254.38843
3.8175	-217.63
3.818	-175.43335
3.8185	-171.0022
3.819	-167.77954
3.8195	-138.07068
3.82	-86.20605
3.8205	-35.65063
3.821	-5.53894
3.8215	5.94177
3.822	42.09595
3.8225	80.76782
3.823	98.79456
3.8235	111.68518
3.824	124.07227
3.8245	126.48926
3.825	129.61121
3.8255	108.1604
3.826	42.09595
3.8265	-15.71045
3.827	-80.26428
3.8275	-154.18396
3.828	-205.84717
3.8285	-283.39233
3.829	-350.36316
3.8295	-376.84937
3.83	-358.62122
3.8305	-305.24597
3.831	-288.62915
3.8315	-368.08777
3.832	-440.79895
3.8325	-443.9209
3.833	-385.10742
3.8335	-308.0658
3.834	-228.10364
3.8345	-119.23828
3.835	1.2085
3.8355	113.69934
3.836	180.36804
3.8365	246.23108
3.837	281.98242
3.8375	246.83533
3.838	50.15259
3.8385	-120.84961
3.839	-266.27197
3.8395	-398.50159
3.84	-443.41736
3.8405	-451.37329
3.841	-496.89331
3.8415	-545.8374
3.842	-541.80908
3.8425	-420.65735
3.843	-273.01941
3.8435	-103.22571
3.844	28.19824
3.8445	144.51599
3.845	277.14844
3.8455	424.58496
3.846	562.65564
3.8465	665.2771
3.847	736.57837
3.8475	757.02209
3.848	740.40527
3.8485	731.9458
3.849	723.28491
3.8495	651.68152
3.85	524.18518
3.8505	401.52283
3.851	309.77783
3.8515	219.24133
3.852	103.72925
3.8525	5.63965
3.853	-176.94397
3.8535	-311.28845
3.854	-335.45837
3.8545	-313.60474
3.855	-354.19006
3.8555	-347.54333
3.856	-312.89978
3.8565	-243.10913
3.857	-186.30981
3.8575	-128.302
3.858	-98.69385
3.8585	-105.23987
3.859	-149.14856
3.8595	-198.29407
3.86	-164.95972
3.8605	-85.40039
3.861	22.25647
3.8615	80.4657
3.862	118.2312
3.8625	158.61511
3.863	194.06433
3.8635	189.83459
3.864	174.32556
3.8645	141.49475
3.865	131.02112
3.8655	143.91174
3.866	168.4845
3.8665	200.61035
3.867	235.35461
3.8675	241.4978
3.868	205.0415
3.8685	52.46887
3.869	-97.78748
3.8695	-162.03918
3.87	-189.23035
3.8705	-215.51514
3.871	-208.36487
3.8715	-181.47583
3.872	-193.86292
3.8725	-182.88574
3.873	-121.55457
3.8735	-83.58765
3.874	-44.91577
3.8745	-127.09351
3.875	-310.18066
3.8755	-431.23169
3.876	-429.41895
3.8765	-355.70068
3.877	-254.79126
3.8775	-144.21387
3.878	-1.10779
3.8785	147.83936
3.879	312.59766
3.8795	434.05151
3.88	480.67932
3.8805	484.70764
3.881	481.6864
3.8815	440.79895
3.882	373.62671
3.8825	289.33411
3.883	148.54431
3.8835	23.56567
3.884	-2.21558
3.8845	-3.62549
3.885	-15.1062
3.8855	-8.8623
3.886	-6.2439
3.8865	-2.31628
3.887	-22.05505
3.8875	-53.47595
3.888	-112.28943
3.8885	-160.22644
3.889	-191.74805
3.8895	-191.74805
3.89	-176.13831
3.8905	-166.26892
3.891	-152.57263
3.8915	-135.8551
3.892	-113.1958
3.8925	-90.63721
3.893	-70.69702
3.8935	-41.99524
