Domenico_Di_Fonza_Left_1.c3d  



Time(s):	C_R_bicipite(μV):
0	219.24133
0.0005	159.52148
0.001	101.9165
0.0015	69.99207
0.002	12.18567
0.0025	-22.45789
0.003	-35.2478
0.0035	-61.6333
0.004	-92.34924
0.0045	-120.84961
0.005	-129.61121
0.0055	-138.07068
0.006	-128.70483
0.0065	-128.20129
0.007	-107.25403
0.0075	-84.59473
0.008	-53.37524
0.0085	-15.50903
0.009	31.72302
0.0095	60.3241
0.01	97.88818
0.0105	143.50891
0.011	162.84485
0.0115	185.80627
0.012	187.01477
0.0125	191.1438
0.013	179.46167
0.0135	167.77954
0.014	147.33582
0.0145	120.95032
0.015	94.46411
0.0155	70.09277
0.016	35.04639
0.0165	1.40991
0.017	-28.80249
0.0175	-33.03223
0.018	-41.29028
0.0185	-51.15967
0.019	-63.84888
0.0195	-63.54675
0.02	-59.82056
0.0205	-54.68445
0.021	-53.07312
0.0215	-50.95825
0.022	-47.7356
0.0225	-47.63489
0.023	-41.08887
0.0235	-38.57117
0.024	-37.16125
0.0245	-33.33435
0.025	-32.02515
0.0255	-36.4563
0.026	-30.41382
0.0265	-30.2124
0.027	-29.80957
0.0275	-26.08337
0.028	-30.81665
0.0285	-38.26904
0.029	-42.59949
0.0295	-47.93701
0.03	-48.03772
0.0305	-45.62073
0.031	-44.11011
0.0315	-49.34692
0.032	-39.17542
0.0325	-35.65063
0.033	-25.37842
0.0335	-17.72461
0.034	-18.12744
0.0345	-12.18567
0.035	-12.48779
0.0355	-14.70337
0.036	-13.797
0.0365	-14.70337
0.037	-9.66797
0.0375	-3.32336
0.038	-9.36584
0.0385	-12.5885
0.039	-13.19275
0.0395	-17.52319
0.04	-16.81824
0.0405	-10.97717
0.041	-5.94177
0.0415	-7.45239
0.042	-18.12744
0.0425	-12.78992
0.043	-17.01965
0.0435	-16.71753
0.044	-28.70178
0.0445	-34.34143
0.045	-24.77417
0.0455	-21.45081
0.046	-23.8678
0.0465	-22.96143
0.047	-23.76709
0.0475	-23.16284
0.048	-22.25647
0.0485	-17.82532
0.049	-6.84814
0.0495	-8.96301
0.05	-11.78284
0.0505	-10.37292
0.051	-5.53894
0.0515	-13.69629
0.052	-17.92603
0.0525	-12.48779
0.053	-6.04248
0.0535	-5.13611
0.054	-5.53894
0.0545	-8.8623
0.055	-15.1062
0.0555	-14.19983
0.056	-19.73877
0.0565	-23.96851
0.057	-29.60815
0.0575	-27.09045
0.058	-28.50037
0.0585	-27.89612
0.059	-22.6593
0.0595	-19.33594
0.06	-18.12744
0.0605	-13.89771
0.061	-8.45947
0.0615	3.32336
0.062	8.7616
0.0625	14.09912
0.063	11.48071
0.0635	18.63098
0.064	21.45081
0.0645	24.77417
0.065	18.73169
0.0655	14.90479
0.066	9.46655
0.0665	0.20142
0.067	-9.86938
0.0675	-36.05347
0.068	-61.43188
0.0685	-80.4657
0.069	-86.8103
0.0695	-85.90393
0.07	-102.21863
0.0705	-104.4342
0.071	-95.87402
0.0715	-77.44446
0.072	-56.5979
0.0725	-27.6947
0.073	5.74036
0.0735	33.23364
0.074	63.44604
0.0745	86.00464
0.075	98.49243
0.0755	110.47668
0.076	121.9574
0.0765	111.48376
0.077	107.35474
0.0775	93.15491
0.078	80.16357
0.0785	65.76233
0.079	57.70569
0.0795	34.54285
0.08	18.02673
0.0805	10.67505
0.081	4.12903
0.0815	-12.18567
0.082	-18.22815
0.0825	-19.73877
0.083	-21.65222
0.0835	-18.73169
0.084	-16.11328
0.0845	-11.68213
0.085	-17.92603
0.0855	-15.30762
0.086	-24.06921
0.0865	-30.31311
0.087	-31.01807
0.0875	-28.29895
0.088	-25.88196
0.0885	-24.67346
0.089	-25.37842
0.0895	-24.67346
0.09	-17.12036
0.0905	-15.40833
0.091	-9.06372
0.0915	-9.86938
0.092	-8.45947
0.0925	-12.99133
0.093	-17.82532
0.0935	-13.59558
0.094	-10.37292
0.0945	-18.53027
0.095	-35.44922
0.0955	-43.80798
0.096	-51.36108
0.0965	-52.36816
0.097	-64.25171
0.0975	-58.30994
0.098	-58.30994
0.0985	-58.00781
0.099	-57.00073
0.0995	-60.82764
0.1	-61.93542
0.1005	-46.22498
0.101	-37.16125
0.1015	-27.39258
0.102	-15.71045
0.1025	5.63965
0.103	21.95435
0.1035	41.39099
0.104	60.52551
0.1045	71.60339
0.105	79.76074
0.1055	85.40039
0.106	84.79614
0.1065	87.41455
0.107	82.47986
0.1075	75.93384
0.108	58.51135
0.1085	39.57825
0.109	17.6239
0.1095	0.80566
0.11	-21.3501
0.1105	-33.53577
0.111	-35.04639
0.1115	-29.50745
0.112	-20.94727
0.1125	-15.1062
0.113	-6.64673
0.1135	-15.40833
0.114	-27.19116
0.1145	-27.19116
0.115	-17.6239
0.1155	-10.97717
0.116	-11.98425
0.1165	-11.2793
0.117	-5.23682
0.1175	1.91345
0.118	9.06372
0.1185	1.40991
0.119	-31.01807
0.1195	-54.18091
0.12	-57.00073
0.1205	-53.37524
0.121	-49.34692
0.1215	-44.41223
0.122	-33.33435
0.1225	-23.06213
0.123	-5.53894
0.1235	8.45947
0.124	29.10461
0.1245	49.74976
0.125	63.24463
0.1255	76.43738
0.126	77.44446
0.1265	82.58057
0.127	78.75366
0.1275	68.88428
0.128	54.98657
0.1285	43.10303
0.129	31.72302
0.1295	17.32178
0.13	9.66797
0.1305	10.87646
0.131	11.07788
0.1315	16.81824
0.132	9.66797
0.1325	-4.93469
0.133	-13.69629
0.1335	-21.65222
0.134	-14.50195
0.1345	-10.97717
0.135	-10.67505
0.1355	-9.06372
0.136	-7.85522
0.1365	-10.17151
0.137	-11.17859
0.1375	-9.46655
0.138	-11.07788
0.1385	-7.85522
0.139	-6.74744
0.1395	-10.57434
0.14	-5.94177
0.1405	-8.05664
0.141	-14.19983
0.1415	-16.51611
0.142	-19.13452
0.1425	-11.07788
0.143	-12.68921
0.1435	-13.49487
0.144	-15.50903
0.1445	-13.69629
0.145	-17.22107
0.1455	-15.00549
0.146	-14.19983
0.1465	-18.63098
0.147	-13.19275
0.1475	-12.28638
0.148	-16.51611
0.1485	-17.6239
0.149	-18.42957
0.1495	-19.23523
0.15	-14.19983
0.1505	-14.09912
0.151	-1.91345
0.1515	4.53186
0.152	4.93469
0.1525	3.22266
0.153	8.96301
0.1535	9.16443
0.154	-9.97009
0.1545	-4.43115
0.155	-5.33752
0.1555	-3.52478
0.156	-4.63257
0.1565	-0.20142
0.157	2.21558
0.1575	6.04248
0.158	17.01965
0.1585	13.59558
0.159	11.17859
0.1595	9.86938
0.16	14.60266
0.1605	17.42249
0.161	13.29346
0.1615	3.12195
0.162	-3.22266
0.1625	-7.85522
0.163	-8.8623
0.1635	-14.40125
0.164	-23.56567
0.1645	-32.12585
0.165	-35.34851
0.1655	-44.41223
0.166	-50.65613
0.1665	-47.13135
0.167	-57.9071
0.1675	-59.1156
0.168	-63.44604
0.1685	-68.98499
0.169	-66.16516
0.1695	-57.10144
0.17	-44.81506
0.1705	-28.09753
0.171	-6.3446
0.1715	2.61841
0.172	17.12036
0.1725	27.49329
0.173	37.86621
0.1735	46.72852
0.174	53.17383
0.1745	49.85046
0.175	52.46887
0.1755	51.66321
0.176	43.70728
0.1765	41.59241
0.177	33.23364
0.1775	27.79541
0.178	33.33435
0.1785	26.78833
0.179	26.18408
0.1795	32.52869
0.18	29.30603
0.1805	18.63098
0.181	0.50354
0.1815	-8.15735
0.182	-24.97559
0.1825	-42.49878
0.183	-51.26038
0.1835	-62.64038
0.184	-57.30286
0.1845	-65.46021
0.185	-55.18799
0.1855	-50.85754
0.186	-31.92444
0.1865	-4.63257
0.187	17.52319
0.1875	36.05347
0.188	53.67737
0.1885	69.48853
0.189	71.30127
0.1895	69.89136
0.19	65.46021
0.1905	66.06445
0.191	49.44763
0.1915	40.48462
0.192	23.36426
0.1925	17.72461
0.193	4.22974
0.1935	6.2439
0.194	-6.64673
0.1945	-15.00549
0.195	-25.68054
0.1955	-44.51294
0.196	-54.68445
0.1965	-61.83472
0.197	-64.45312
0.1975	-63.14392
0.198	-58.41064
0.1985	-51.46179
0.199	-47.23206
0.1995	-39.88037
0.2	-25.88196
0.2005	-21.14868
0.201	-5.23682
0.2015	16.61682
0.202	32.52869
0.2025	42.7002
0.203	53.57666
0.2035	65.3595
0.204	69.08569
0.2045	67.37366
0.205	68.78357
0.2055	61.53259
0.206	55.49011
0.2065	47.53418
0.207	43.40515
0.2075	31.32019
0.208	13.89771
0.2085	4.83398
0.209	2.11487
0.2095	7.85522
0.21	5.23682
0.2105	1.2085
0.211	-2.61841
0.2115	-13.49487
0.212	-17.32178
0.2125	-14.50195
0.213	-13.09204
0.2135	-15.1062
0.214	-9.46655
0.2145	-9.46655
0.215	-16.01257
0.2155	-15.91187
0.216	-17.01965
0.2165	-11.17859
0.217	-10.37292
0.2175	-7.45239
0.218	-9.36584
0.2185	-14.40125
0.219	-14.70337
0.2195	-19.03381
0.22	-12.28638
0.2205	-11.78284
0.221	-15.20691
0.2215	-16.61682
0.222	-11.78284
0.2225	-13.99841
0.223	-14.19983
0.2235	-8.8623
0.224	-9.26514
0.2245	-7.5531
0.225	-12.5885
0.2255	-9.76868
0.226	-6.14319
0.2265	-6.3446
0.227	-9.36584
0.2275	-12.48779
0.228	-14.80408
0.2285	-16.51611
0.229	-20.34302
0.2295	-24.87488
0.23	-35.85205
0.2305	-46.02356
0.231	-48.54126
0.2315	-42.09595
0.232	-42.7002
0.2325	-44.61365
0.233	-37.66479
0.2335	-28.19824
0.234	-15.30762
0.2345	-3.62549
0.235	0.10071
0.2355	13.89771
0.236	27.09045
0.2365	43.00232
0.237	48.74268
0.2375	56.19507
0.238	63.44604
0.2385	54.78516
0.239	42.8009
0.2395	33.73718
0.24	25.177
0.2405	7.25098
0.241	2.71912
0.2415	-2.21558
0.242	-1.00708
0.2425	-7.15027
0.243	-12.28638
0.2435	-16.71753
0.244	-29.60815
0.2445	-31.92444
0.245	-29.50745
0.2455	-25.78125
0.246	-16.01257
0.2465	-19.13452
0.247	-20.24231
0.2475	-16.61682
0.248	-13.19275
0.2485	-7.85522
0.249	-6.94885
0.2495	-10.27222
0.25	-15.40833
0.2505	-16.01257
0.251	-19.23523
0.2515	-18.53027
0.252	-13.59558
0.2525	-4.02832
0.253	4.02832
0.2535	7.04956
0.254	-12.5885
0.2545	-28.39966
0.255	-33.63647
0.2555	-27.09045
0.256	-22.25647
0.2565	-19.43665
0.257	-17.52319
0.2575	-10.17151
0.258	3.92761
0.2585	14.50195
0.259	27.29187
0.2595	46.72852
0.26	63.14392
0.2605	75.22888
0.261	77.84729
0.2615	75.32959
0.262	68.28003
0.2625	64.05029
0.263	54.48303
0.2635	48.23914
0.264	32.02515
0.2645	15.81116
0.265	11.38
0.2655	13.49487
0.266	9.86938
0.2665	-1.10779
0.267	-5.33752
0.2675	-14.70337
0.268	-25.37842
0.2685	-28.80249
0.269	-37.16125
0.2695	-43.00232
0.27	-42.7002
0.2705	-47.63489
0.271	-41.4917
0.2715	-43.60657
0.272	-44.11011
0.2725	-34.74426
0.273	-31.01807
0.2735	-17.92603
0.274	-8.7616
0.2745	-1.51062
0.275	5.0354
0.2755	6.54602
0.276	7.45239
0.2765	0.20142
0.277	9.06372
0.2775	6.64673
0.278	6.2439
0.2785	0.40283
0.279	-2.41699
0.2795	3.02124
0.28	1.3092
0.2805	5.84106
0.281	-8.15735
0.2815	-3.7262
0.282	-3.62549
0.2825	-6.74744
0.283	-6.3446
0.2835	-6.44531
0.284	-5.94177
0.2845	-13.29346
0.285	-8.96301
0.2855	-4.63257
0.286	0.80566
0.2865	2.5177
0.287	10.0708
0.2875	18.73169
0.288	25.47913
0.2885	0.30212
0.289	-34.24072
0.2895	-38.57117
0.29	-34.34143
0.2905	-37.26196
0.291	-48.23914
0.2915	-46.12427
0.292	-41.4917
0.2925	-33.83789
0.293	-37.96692
0.2935	-55.59082
0.294	-55.89294
0.2945	-54.48303
0.295	-48.13843
0.2955	-31.11877
0.296	-12.78992
0.2965	-4.02832
0.297	15.00549
0.2975	23.8678
0.298	30.01099
0.2985	26.88904
0.299	39.98108
0.2995	49.24622
0.3	61.12976
0.3005	74.82605
0.301	87.51526
0.3015	96.37756
0.302	93.15491
0.3025	80.16357
0.303	68.88428
0.3035	44.51294
0.304	15.71045
0.3045	2.71912
0.305	-5.0354
0.3055	-1.51062
0.306	-0.60425
0.3065	3.22266
0.307	8.8623
0.3075	14.70337
0.308	9.56726
0.3085	-7.95593
0.309	-16.71753
0.3095	-18.02673
0.31	-18.93311
0.3105	-12.28638
0.311	-16.61682
0.3115	-20.94727
0.312	-14.19983
0.3125	-12.48779
0.313	-6.94885
0.3135	-1.91345
0.314	5.13611
0.3145	22.05505
0.315	36.05347
0.3155	47.93701
0.316	62.64038
0.3165	66.16516
0.317	64.55383
0.3175	59.92126
0.318	47.23206
0.3185	36.25488
0.319	28.29895
0.3195	17.32178
0.32	1.51062
0.3205	-15.20691
0.321	-26.68762
0.3215	-38.67188
0.322	-42.19666
0.3225	-45.2179
0.323	-48.33984
0.3235	-49.24622
0.324	-44.41223
0.3245	-42.19666
0.325	-38.06763
0.3255	-32.22656
0.326	-28.70178
0.3265	-14.50195
0.327	-13.99841
0.3275	-21.04797
0.328	-24.97559
0.3285	-23.26355
0.329	-23.56567
0.3295	-18.63098
0.33	-23.16284
0.3305	-28.60107
0.331	-36.4563
0.3315	-45.62073
0.332	-74.02039
0.3325	-101.61438
0.333	-115.51208
0.3335	-120.84961
0.334	-125.58289
0.3345	-130.61829
0.335	-133.43811
0.3355	-111.08093
0.336	-76.03455
0.3365	-42.7002
0.337	-11.17859
0.3375	26.68762
0.338	57.9071
0.3385	90.43579
0.339	120.24536
0.3395	147.03369
0.34	160.9314
0.3405	160.42786
0.341	156.80237
0.3415	151.46484
0.342	136.76147
0.3425	109.26819
0.343	85.70251
0.3435	32.83081
0.344	-4.33044
0.3445	-29.50745
0.345	-48.74268
0.3455	-46.62781
0.346	-44.51294
0.3465	-55.79224
0.347	-51.66321
0.3475	-39.37683
0.348	-30.51453
0.3485	-8.96301
0.349	11.38
0.3495	29.70886
0.35	36.4563
0.3505	44.81506
0.351	43.50586
0.3515	37.56409
0.352	29.50745
0.3525	11.68213
0.353	6.2439
0.3535	-3.32336
0.354	-13.39417
0.3545	-12.89062
0.355	-11.07788
0.3555	-4.22974
0.356	4.22974
0.3565	4.02832
0.357	10.0708
0.3575	7.75452
0.358	8.66089
0.3585	11.68213
0.359	15.91187
0.3595	11.58142
0.36	9.26514
0.3605	6.2439
0.361	4.12903
0.3615	1.61133
0.362	-3.62549
0.3625	-4.73328
0.363	-6.04248
0.3635	-11.38
0.364	-16.11328
0.3645	-16.01257
0.365	-10.67505
0.3655	-11.68213
0.366	-11.68213
0.3665	-7.35168
0.367	-3.62549
0.3675	-8.66089
0.368	-6.2439
0.3685	0.60425
0.369	3.7262
0.3695	6.2439
0.37	9.76868
0.3705	1.71204
0.371	-31.32019
0.3715	-53.77808
0.372	-47.43347
0.3725	-49.14551
0.373	-46.02356
0.3735	-45.2179
0.374	-39.07471
0.3745	-30.81665
0.375	-15.40833
0.3755	1.71204
0.376	21.85364
0.3765	25.47913
0.377	29.50745
0.3775	31.11877
0.378	29.70886
0.3785	34.84497
0.379	35.75134
0.3795	40.48462
0.38	41.79382
0.3805	5.63965
0.381	-37.46338
0.3815	-55.08728
0.382	-58.91418
0.3825	-57.10144
0.383	-57.50427
0.3835	-44.91577
0.384	-31.11877
0.3845	-18.73169
0.385	5.13611
0.3855	27.09045
0.386	45.62073
0.3865	64.151
0.387	73.41614
0.3875	80.56641
0.388	77.24304
0.3885	80.36499
0.389	70.89844
0.3895	51.76392
0.39	28.19824
0.3905	14.30054
0.391	-2.92053
0.3915	-25.98267
0.392	-39.17542
0.3925	-48.23914
0.393	-51.05896
0.3935	-51.86462
0.394	-59.41772
0.3945	-64.85596
0.395	-72.20764
0.3955	-75.63171
0.396	-79.86145
0.3965	-69.08569
0.397	-56.49719
0.3975	-41.99524
0.398	-34.24072
0.3985	-30.81665
0.399	-15.40833
0.3995	0.50354
0.4	24.57275
0.4005	23.56567
0.401	19.23523
0.4015	15.71045
0.402	14.80408
0.4025	9.97009
0.403	8.56018
0.4035	1.10779
0.404	-8.05664
0.4045	-42.49878
0.405	-55.3894
0.4055	-55.08728
0.406	-50.45471
0.4065	-34.14001
0.407	-26.48621
0.4075	-20.44373
0.408	-14.60266
0.4085	4.53186
0.409	33.9386
0.4095	68.48145
0.41	81.87561
0.4105	104.83704
0.411	120.24536
0.4115	125.88501
0.412	122.96448
0.4125	120.34607
0.413	107.25403
0.4135	95.06836
0.414	76.43738
0.4145	57.20215
0.415	42.8009
0.4155	24.37134
0.416	7.45239
0.4165	-5.33752
0.417	-8.35876
0.4175	-10.67505
0.418	-7.75452
0.4185	-9.56726
0.419	-15.91187
0.4195	-22.55859
0.42	-25.47913
0.4205	-24.87488
0.421	-18.53027
0.4215	-19.23523
0.422	-18.32886
0.4225	-15.91187
0.423	-16.91895
0.4235	-11.88354
0.424	-12.5885
0.4245	-20.44373
0.425	-17.01965
0.4255	-13.29346
0.426	-17.01965
0.4265	-23.8678
0.427	-24.27063
0.4275	-31.11877
0.428	-38.57117
0.4285	-50.65613
0.429	-50.75684
0.4295	-56.49719
0.43	-62.74109
0.4305	-58.81348
0.431	-62.33826
0.4315	-67.47437
0.432	-56.49719
0.4325	-59.61914
0.433	-57.00073
0.4335	-53.97949
0.434	-71.30127
0.4345	-87.91809
0.435	-85.29968
0.4355	-69.99207
0.436	-50.75684
0.4365	-33.43506
0.437	-17.22107
0.4375	7.65381
0.438	31.62231
0.4385	54.68445
0.439	82.58057
0.4395	101.9165
0.44	123.46802
0.4405	137.66785
0.441	139.98413
0.4415	140.99121
0.442	145.9259
0.4425	129.71191
0.443	101.01013
0.4435	72.71118
0.444	48.03772
0.4445	24.27063
0.445	15.50903
0.4455	15.50903
0.446	4.83398
0.4465	9.46655
0.447	6.54602
0.4475	-5.33752
0.448	-9.86938
0.4485	-8.25806
0.449	-0.80566
0.4495	-6.2439
0.45	-2.61841
0.4505	-3.62549
0.451	-4.53186
0.4515	-4.73328
0.452	-3.8269
0.4525	-4.43115
0.453	-6.84814
0.4535	-7.85522
0.454	-3.8269
0.4545	-8.66089
0.455	-12.08496
0.4555	-10.97717
0.456	-17.72461
0.4565	-20.24231
0.457	-25.88196
0.4575	-28.39966
0.458	-24.47205
0.4585	-18.53027
0.459	-13.99841
0.4595	-14.50195
0.46	-7.85522
0.4605	-13.39417
0.461	-11.98425
0.4615	-14.70337
0.462	-11.98425
0.4625	-10.67505
0.463	-7.65381
0.4635	-9.86938
0.464	-3.42407
0.4645	-1.71204
0.465	-3.92761
0.4655	-4.53186
0.466	-9.66797
0.4665	-13.89771
0.467	-20.34302
0.4675	-30.41382
0.468	-57.50427
0.4685	-68.48145
0.469	-61.02905
0.4695	-71.90552
0.47	-67.77649
0.4705	-65.15808
0.471	-57.40356
0.4715	-51.26038
0.472	-26.48621
0.4725	-8.45947
0.473	5.53894
0.4735	22.96143
0.474	30.81665
0.4745	41.18958
0.475	62.13684
0.4755	73.91968
0.476	85.80322
0.4765	82.88269
0.477	84.19189
0.4775	67.27295
0.478	62.23755
0.4785	47.63489
0.479	38.57117
0.4795	36.55701
0.48	27.09045
0.4805	21.24939
0.481	9.16443
0.4815	-5.74036
0.482	-17.82532
0.4825	-30.11169
0.483	-25.177
0.4835	-27.19116
0.484	-33.33435
0.4845	-24.47205
0.485	-19.13452
0.4855	-13.39417
0.486	-12.78992
0.4865	-18.63098
0.487	-20.44373
0.4875	-20.34302
0.488	-20.1416
0.4885	-26.58691
0.489	-17.52319
0.4895	-18.63098
0.49	-14.50195
0.4905	-17.32178
0.491	-16.3147
0.4915	-15.1062
0.492	-13.797
0.4925	-6.44531
0.493	2.81982
0.4935	13.797
0.494	18.93311
0.4945	26.48621
0.495	32.12585
0.4955	36.85913
0.496	40.48462
0.4965	31.82373
0.497	24.77417
0.4975	14.70337
0.498	16.01257
0.4985	1.10779
0.499	-15.60974
0.4995	-14.80408
0.5	-18.73169
0.5005	-13.49487
0.501	-15.50903
0.5015	-7.35168
0.502	-8.66089
0.5025	-8.15735
0.503	-6.14319
0.5035	-1.91345
0.504	3.8269
0.5045	-1.3092
0.505	-13.29346
0.5055	-16.41541
0.506	-20.44373
0.5065	-25.78125
0.507	-65.56091
0.5075	-102.92358
0.508	-147.53723
0.5085	-191.34521
0.509	-214.50806
0.5095	-222.46399
0.51	-220.95337
0.5105	-205.34363
0.511	-179.76379
0.5115	-137.66785
0.512	-97.18323
0.5125	-57.50427
0.513	-8.05664
0.5135	39.77966
0.514	83.68835
0.5145	127.39563
0.515	151.46484
0.5155	176.44043
0.516	190.74097
0.5165	206.65283
0.517	213.19885
0.5175	211.78894
0.518	201.01318
0.5185	196.48132
0.519	181.37512
0.5195	175.53406
0.52	154.18396
0.5205	132.12891
0.521	100.20447
0.5215	76.13525
0.522	52.8717
0.5225	35.54993
0.523	9.76868
0.5235	-7.45239
0.524	-25.98267
0.5245	-35.2478
0.525	-26.68762
0.5255	-31.72302
0.526	-38.57117
0.5265	-36.4563
0.527	-30.31311
0.5275	-24.97559
0.528	-20.44373
0.5285	-17.01965
0.529	-18.32886
0.5295	-21.75293
0.53	-20.94727
0.5305	-19.43665
0.531	-23.46497
0.5315	-24.97559
0.532	-26.68762
0.5325	-25.57983
0.533	-25.07629
0.5335	-38.26904
0.534	-72.30835
0.5345	-89.12659
0.535	-90.73792
0.5355	-87.41455
0.536	-81.57349
0.5365	-74.12109
0.537	-59.92126
0.5375	-44.0094
0.538	-24.87488
0.5385	-2.61841
0.539	19.63806
0.5395	35.75134
0.54	55.59082
0.5405	64.05029
0.541	72.61047
0.5415	68.98499
0.542	60.4248
0.5425	49.44763
0.543	39.27612
0.5435	22.96143
0.544	23.56567
0.5445	11.17859
0.545	7.25098
0.5455	-2.31628
0.546	-12.68921
0.5465	-10.27222
0.547	-18.32886
0.5475	-29.20532
0.548	-34.74426
0.5485	-34.84497
0.549	-27.39258
0.5495	-19.94019
0.55	-19.53735
0.5505	-14.50195
0.551	-5.33752
0.5515	-9.97009
0.552	-10.27222
0.5525	-19.43665
0.553	-33.73718
0.5535	-45.92285
0.554	-49.85046
0.5545	-52.26746
0.555	-51.05896
0.5555	-44.51294
0.556	-36.15417
0.5565	-17.32178
0.557	-10.97717
0.5575	1.2085
0.558	12.08496
0.5585	30.41382
0.559	41.4917
0.5595	53.17383
0.56	52.8717
0.5605	53.47595
0.561	47.13135
0.5615	49.0448
0.562	41.99524
0.5625	38.47046
0.563	28.60107
0.5635	9.76868
0.564	11.68213
0.5645	15.91187
0.565	18.22815
0.5655	15.50903
0.566	8.35876
0.5665	1.71204
0.567	-3.7262
0.5675	-13.69629
0.568	-19.73877
0.5685	-16.51611
0.569	-9.56726
0.5695	-8.7616
0.57	-9.16443
0.5705	-16.41541
0.571	-15.71045
0.5715	-29.30603
0.572	-29.30603
0.5725	-36.55701
0.573	-32.22656
0.5735	-31.62231
0.574	-31.82373
0.5745	-28.70178
0.575	-31.72302
0.5755	-26.68762
0.576	-22.05505
0.5765	-18.02673
0.577	-12.5885
0.5775	-5.23682
0.578	6.3446
0.5785	2.61841
0.579	-1.51062
0.5795	-8.25806
0.58	-11.78284
0.5805	-19.53735
0.581	-10.77576
0.5815	-7.5531
0.582	-5.53894
0.5825	-2.61841
0.583	-11.58142
0.5835	-13.69629
0.584	-12.08496
0.5845	-13.59558
0.585	-6.84814
0.5855	-10.57434
0.586	-3.12195
0.5865	-2.01416
0.587	10.97717
0.5875	14.30054
0.588	13.29346
0.5885	23.8678
0.589	29.80957
0.5895	37.06055
0.59	42.19666
0.5905	43.60657
0.591	40.58533
0.5915	25.37842
0.592	11.78284
0.5925	-3.32336
0.593	-4.83398
0.5935	-8.05664
0.594	-14.09912
0.5945	-16.01257
0.595	-20.44373
0.5955	-17.72461
0.596	-14.19983
0.5965	-7.75452
0.597	8.15735
0.5975	23.76709
0.598	17.92603
0.5985	13.49487
0.599	10.87646
0.5995	12.99133
0.6	10.47363
0.6005	12.99133
0.601	9.26514
0.6015	1.91345
0.602	4.22974
0.6025	11.17859
0.603	5.43823
0.6035	5.13611
0.604	14.80408
0.6045	23.36426
0.605	29.20532
0.6055	40.88745
0.606	44.31152
0.6065	39.47754
0.607	36.55701
0.6075	33.53577
0.608	27.59399
0.6085	17.32178
0.609	7.35168
0.6095	9.36584
0.61	5.94177
0.6105	6.04248
0.611	-0.30212
0.6115	-8.8623
0.612	-12.18567
0.6125	-20.04089
0.613	-24.67346
0.6135	-24.37134
0.614	-21.3501
0.6145	-19.53735
0.615	-15.1062
0.6155	-8.96301
0.616	-6.94885
0.6165	-5.94177
0.617	-5.53894
0.6175	-5.63965
0.618	-4.12903
0.6185	-9.16443
0.619	-3.62549
0.6195	2.5177
0.62	-1.61133
0.6205	-3.02124
0.621	-4.33044
0.6215	-6.3446
0.622	-10.17151
0.6225	-19.63806
0.623	-18.63098
0.6235	-19.63806
0.624	-15.60974
0.6245	-14.70337
0.625	-19.43665
0.6255	-19.53735
0.626	-15.60974
0.6265	-13.89771
0.627	-11.2793
0.6275	-11.17859
0.628	-12.68921
0.6285	-13.19275
0.629	-10.77576
0.6295	-10.67505
0.63	-13.39417
0.6305	0.90637
0.631	-5.94177
0.6315	-12.48779
0.632	-5.43823
0.6325	-1.3092
0.633	-6.04248
0.6335	-5.53894
0.634	5.23682
0.6345	1.91345
0.635	-0.30212
0.6355	12.38708
0.636	11.17859
0.6365	10.67505
0.637	12.28638
0.6375	8.35876
0.638	10.67505
0.6385	7.65381
0.639	11.88354
0.6395	12.78992
0.64	2.5177
0.6405	2.31628
0.641	1.71204
0.6415	0.40283
0.642	-6.14319
0.6425	-5.63965
0.643	-10.67505
0.6435	-11.98425
0.644	-14.09912
0.6445	-9.56726
0.645	-15.30762
0.6455	-15.91187
0.646	-15.20691
0.6465	-5.53894
0.647	-10.47363
0.6475	-6.64673
0.648	-1.71204
0.6485	-6.3446
0.649	-10.0708
0.6495	-4.02832
0.65	-2.11487
0.6505	0.30212
0.651	-2.21558
0.6515	0.50354
0.652	2.5177
0.6525	0.10071
0.653	-2.81982
0.6535	-6.64673
0.654	-10.57434
0.6545	-21.3501
0.655	-33.43506
0.6555	-32.32727
0.656	-33.9386
0.6565	-31.72302
0.657	-28.50037
0.6575	-30.2124
0.658	-31.01807
0.6585	-28.39966
0.659	-23.46497
0.6595	-18.22815
0.66	-18.32886
0.6605	-15.71045
0.661	-5.23682
0.6615	-0.30212
0.662	4.12903
0.6625	4.53186
0.663	8.25806
0.6635	10.57434
0.664	24.06921
0.6645	24.37134
0.665	27.19116
0.6655	31.4209
0.666	29.60815
0.6665	40.98816
0.667	45.72144
0.6675	36.85913
0.668	29.70886
0.6685	21.45081
0.669	10.87646
0.6695	-0.10071
0.67	-2.81982
0.6705	-5.0354
0.671	-0.90637
0.6715	-0.60425
0.672	-0.50354
0.6725	3.42407
0.673	6.14319
0.6735	-2.21558
0.674	-0.20142
0.6745	4.02832
0.675	-0.50354
0.6755	1.10779
0.676	-3.7262
0.6765	-5.0354
0.677	-3.12195
0.6775	-6.2439
0.678	-11.98425
0.6785	-8.45947
0.679	-7.45239
0.6795	-8.56018
0.68	-12.89062
0.6805	-9.97009
0.681	-8.35876
0.6815	-9.16443
0.682	-12.68921
0.6825	-23.96851
0.683	-14.30054
0.6835	-10.47363
0.684	-10.97717
0.6845	-20.84656
0.685	-18.63098
0.6855	-19.03381
0.686	-9.26514
0.6865	-11.48071
0.687	-7.65381
0.6875	-4.02832
0.688	-2.61841
0.6885	-0.60425
0.689	3.52478
0.6895	0.50354
0.69	1.91345
0.6905	7.35168
0.691	5.94177
0.6915	9.06372
0.692	4.63257
0.6925	3.62549
0.693	7.65381
0.6935	10.57434
0.694	11.48071
0.6945	5.74036
0.695	0.60425
0.6955	2.31628
0.696	-0.50354
0.6965	-4.12903
0.697	2.21558
0.6975	1.2085
0.698	6.3446
0.6985	0.20142
0.699	-8.66089
0.6995	-11.98425
0.7	-20.34302
0.7005	-28.70178
0.701	-30.01099
0.7015	-25.68054
0.702	-26.48621
0.7025	-36.85913
0.703	-42.29736
0.7035	-44.31152
0.704	-41.4917
0.7045	-42.8009
0.705	-37.96692
0.7055	-34.34143
0.706	-38.36975
0.7065	-33.23364
0.707	-26.78833
0.7075	-33.53577
0.708	-29.60815
0.7085	-19.03381
0.709	-10.17151
0.7095	-3.62549
0.71	11.38
0.7105	29.00391
0.711	40.38391
0.7115	37.7655
0.712	43.00232
0.7125	53.97949
0.713	53.17383
0.7135	68.88428
0.714	69.38782
0.7145	67.67578
0.715	53.07312
0.7155	42.8009
0.716	40.68604
0.7165	38.77258
0.717	35.14709
0.7175	31.52161
0.718	26.18408
0.7185	17.72461
0.719	12.18567
0.7195	12.99133
0.72	12.68921
0.7205	7.45239
0.721	6.54602
0.7215	-0.20142
0.722	6.84814
0.7225	3.32336
0.723	-2.61841
0.7235	-8.15735
0.724	-20.64514
0.7245	-24.67346
0.725	-31.01807
0.7255	-36.75842
0.726	-43.40515
0.7265	-54.38232
0.727	-56.69861
0.7275	-53.47595
0.728	-52.56958
0.7285	-50.05188
0.729	-38.67188
0.7295	-30.91736
0.73	-25.88196
0.7305	-33.83789
0.731	-46.42639
0.7315	-53.07312
0.732	-45.82214
0.7325	-37.26196
0.733	-36.95984
0.7335	-37.96692
0.734	-39.27612
0.7345	-24.27063
0.735	-5.23682
0.7355	9.56726
0.736	31.32019
0.7365	40.98816
0.737	54.28162
0.7375	58.00781
0.738	72.50977
0.7385	74.12109
0.739	73.41614
0.7395	72.00623
0.74	62.9425
0.7405	56.19507
0.741	54.48303
0.7415	53.87878
0.742	50.15259
0.7425	43.50586
0.743	34.84497
0.7435	30.91736
0.744	23.06213
0.7445	20.24231
0.745	15.1062
0.7455	6.94885
0.746	-2.41699
0.7465	-11.2793
0.747	-17.32178
0.7475	-17.92603
0.748	-14.40125
0.7485	-11.38
0.749	-14.80408
0.7495	-8.96301
0.75	-3.62549
0.7505	0.60425
0.751	-9.86938
0.7515	-9.86938
0.752	-29.20532
0.7525	-61.12976
0.753	-71.40198
0.7535	-66.76941
0.754	-64.55383
0.7545	-57.10144
0.755	-58.51135
0.7555	-49.64905
0.756	-35.75134
0.7565	-17.92603
0.757	5.23682
0.7575	27.79541
0.758	45.92285
0.7585	54.58374
0.759	62.43896
0.7595	72.9126
0.76	66.87012
0.7605	61.12976
0.761	41.29028
0.7615	18.63098
0.762	7.95593
0.7625	-4.02832
0.763	-5.0354
0.7635	3.42407
0.764	6.54602
0.7645	7.15027
0.765	4.33044
0.7655	-1.00708
0.766	-5.23682
0.7665	-12.48779
0.767	-21.45081
0.7675	-16.41541
0.768	-16.11328
0.7685	-19.94019
0.769	-9.76868
0.7695	-6.04248
0.77	-7.25098
0.7705	-4.83398
0.771	-8.45947
0.7715	-8.96301
0.772	-8.7616
0.7725	-10.57434
0.773	-10.57434
0.7735	-8.8623
0.774	-8.45947
0.7745	-3.62549
0.775	4.53186
0.7755	3.22266
0.776	0.50354
0.7765	5.94177
0.777	5.53894
0.7775	1.10779
0.778	5.43823
0.7785	6.94885
0.779	8.05664
0.7795	8.8623
0.78	-2.41699
0.7805	-1.91345
0.781	-10.37292
0.7815	-6.3446
0.782	-14.90479
0.7825	-6.04248
0.783	-7.15027
0.7835	-5.0354
0.784	6.74744
0.7845	8.56018
0.785	-5.53894
0.7855	-6.74744
0.786	-10.27222
0.7865	-17.52319
0.787	-14.80408
0.7875	-8.8623
0.788	-5.84106
0.7885	-7.04956
0.789	-9.97009
0.7895	-11.48071
0.79	-11.2793
0.7905	-15.1062
0.791	-22.55859
0.7915	-17.92603
0.792	-18.02673
0.7925	-10.57434
0.793	-9.76868
0.7935	-12.68921
0.794	-14.19983
0.7945	-11.98425
0.795	-11.78284
0.7955	-12.99133
0.796	-14.40125
0.7965	-12.68921
0.797	-10.37292
0.7975	-11.2793
0.798	-9.97009
0.7985	-7.85522
0.799	-3.52478
0.7995	-8.35876
0.8	-9.66797
0.8005	-2.41699
0.801	15.00549
0.8015	24.97559
0.802	35.04639
0.8025	39.47754
0.803	45.92285
0.8035	49.34692
0.804	56.49719
0.8045	58.10852
0.805	63.24463
0.8055	62.23755
0.806	46.92993
0.8065	35.44922
0.807	28.29895
0.8075	16.91895
0.808	5.43823
0.8085	2.5177
0.809	5.74036
0.8095	5.94177
0.81	-2.11487
0.8105	-13.39417
0.811	-11.58142
0.8115	-5.13611
0.812	-6.14319
0.8125	-7.25098
0.813	-11.78284
0.8135	-8.25806
0.814	-3.32336
0.8145	-6.2439
0.815	4.43115
0.8155	3.22266
0.816	10.0708
0.8165	9.56726
0.817	10.17151
0.8175	6.44531
0.818	2.41699
0.8185	3.62549
0.819	-2.31628
0.8195	2.92053
0.82	3.62549
0.8205	-3.52478
0.821	-2.21558
0.8215	0.70496
0.822	-3.7262
0.8225	1.3092
0.823	-2.21558
0.8235	3.12195
0.824	2.71912
0.8245	-4.02832
0.825	-0.70496
0.8255	0.90637
0.826	-2.92053
0.8265	1.00708
0.827	0.80566
0.8275	-4.12903
0.828	-4.93469
0.8285	-8.15735
0.829	-8.7616
0.8295	-12.99133
0.83	-10.0708
0.8305	-5.74036
0.831	-7.95593
0.8315	-8.96301
0.832	-8.25806
0.8325	-4.33044
0.833	-4.22974
0.8335	-7.95593
0.834	-9.46655
0.8345	-6.84814
0.835	-13.49487
0.8355	-17.01965
0.836	-18.02673
0.8365	-15.91187
0.837	-16.51611
0.8375	-18.93311
0.838	-15.00549
0.8385	-12.38708
0.839	-7.25098
0.8395	-10.37292
0.84	-9.26514
0.8405	-4.43115
0.841	-4.43115
0.8415	-6.74744
0.842	-3.42407
0.8425	-5.53894
0.843	-8.96301
0.8435	-5.23682
0.844	-6.54602
0.8445	-4.93469
0.845	-8.35876
0.8455	-13.29346
0.846	-11.58142
0.8465	-10.27222
0.847	-11.58142
0.8475	-5.0354
0.848	-3.42407
0.8485	-1.81274
0.849	5.13611
0.8495	10.87646
0.85	6.04248
0.8505	7.85522
0.851	10.57434
0.8515	8.15735
0.852	9.36584
0.8525	14.30054
0.853	14.80408
0.8535	5.74036
0.854	13.59558
0.8545	12.48779
0.855	12.08496
0.8555	13.99841
0.856	8.56018
0.8565	8.15735
0.857	7.25098
0.8575	7.35168
0.858	11.68213
0.8585	13.99841
0.859	19.63806
0.8595	12.99133
0.86	8.7616
0.8605	12.18567
0.861	5.63965
0.8615	4.93469
0.862	3.22266
0.8625	3.12195
0.863	-0.10071
0.8635	0.70496
0.864	-4.33044
0.8645	-0.30212
0.865	-5.0354
0.8655	-11.07788
0.866	-11.48071
0.8665	-5.53894
0.867	-5.13611
0.8675	-5.94177
0.868	-4.63257
0.8685	-3.62549
0.869	1.91345
0.8695	-2.61841
0.87	-3.32336
0.8705	-4.93469
0.871	-7.15027
0.8715	-0.40283
0.872	-2.01416
0.8725	-4.93469
0.873	2.31628
0.8735	3.7262
0.874	4.43115
0.8745	6.04248
0.875	6.2439
0.8755	-0.40283
0.876	-13.09204
0.8765	-15.30762
0.877	-21.14868
0.8775	-24.67346
0.878	-29.20532
0.8785	-26.68762
0.879	-23.8678
0.8795	-23.56567
0.88	-25.68054
0.8805	-26.78833
0.881	-29.10461
0.8815	-18.12744
0.882	-16.21399
0.8825	-9.86938
0.883	-5.74036
0.8835	3.8269
0.884	9.06372
0.8845	16.51611
0.885	27.09045
0.8855	26.88904
0.886	39.77966
0.8865	45.41931
0.887	45.41931
0.8875	48.84338
0.888	47.8363
0.8885	37.66479
0.889	15.71045
0.8895	11.78284
0.89	10.37292
0.8905	5.84106
0.891	-9.66797
0.8915	-9.26514
0.892	-20.04089
0.8925	-18.8324
0.893	-14.40125
0.8935	-13.69629
0.894	-13.99841
0.8945	-10.17151
0.895	-11.2793
0.8955	-7.85522
0.896	-3.12195
0.8965	-2.31628
0.897	3.32336
0.8975	0.40283
0.898	7.04956
0.8985	10.97717
0.899	5.33752
0.8995	0.20142
0.9	4.63257
0.9005	10.37292
0.901	6.94885
0.9015	1.2085
0.902	-1.00708
0.9025	-9.56726
0.903	-6.84814
0.9035	-9.16443
0.904	-9.46655
0.9045	-12.68921
0.905	-15.60974
0.9055	-18.8324
0.906	-22.15576
0.9065	-23.26355
0.907	-29.20532
0.9075	-27.59399
0.908	-31.11877
0.9085	-33.43506
0.909	-33.33435
0.9095	-30.91736
0.91	-29.20532
0.9105	-22.45789
0.911	-14.30054
0.9115	-13.09204
0.912	-13.29346
0.9125	-15.00549
0.913	-21.24939
0.9135	-25.78125
0.914	-26.98975
0.9145	-25.78125
0.915	-20.24231
0.9155	-16.01257
0.916	-12.18567
0.9165	-13.797
0.917	-15.1062
0.9175	-9.76868
0.918	-0.70496
0.9185	12.5885
0.919	25.47913
0.9195	37.86621
0.92	43.50586
0.9205	56.5979
0.921	70.29419
0.9215	76.53809
0.922	83.28552
0.9225	85.40039
0.923	85.60181
0.9235	83.88977
0.924	76.33667
0.9245	66.87012
0.925	48.64197
0.9255	36.05347
0.926	28.39966
0.9265	15.50903
0.927	4.63257
0.9275	-8.25806
0.928	-14.90479
0.9285	-10.87646
0.929	-9.26514
0.9295	-8.8623
0.93	-11.2793
0.9305	-13.69629
0.931	-11.68213
0.9315	-18.12744
0.932	-16.11328
0.9325	-21.65222
0.933	-20.34302
0.9335	-23.66638
0.934	-17.72461
0.9345	-14.50195
0.935	-11.88354
0.9355	-17.12036
0.936	-14.90479
0.9365	-13.49487
0.937	-9.86938
0.9375	-8.96301
0.938	-2.92053
0.9385	-13.69629
0.939	-18.73169
0.9395	-16.21399
0.94	-14.19983
0.9405	-20.54443
0.941	-23.8678
0.9415	-22.25647
0.942	-19.03381
0.9425	-19.13452
0.943	-10.77576
0.9435	-8.66089
0.944	-6.2439
0.9445	-0.50354
0.945	0.60425
0.9455	-0.30212
0.946	4.22974
0.9465	3.52478
0.947	7.04956
0.9475	2.41699
0.948	8.8623
0.9485	6.3446
0.949	4.63257
0.9495	7.95593
0.95	1.00708
0.9505	-1.10779
0.951	2.01416
0.9515	-1.00708
0.952	-1.81274
0.9525	-8.45947
0.953	-8.05664
0.9535	-12.08496
0.954	-7.35168
0.9545	-8.7616
0.955	-9.46655
0.9555	-9.26514
0.956	-16.81824
0.9565	-6.64673
0.957	-8.96301
0.9575	-4.43115
0.958	-6.3446
0.9585	1.81274
0.959	-1.61133
0.9595	-5.13611
0.96	-1.61133
0.9605	-0.80566
0.961	0.70496
0.9615	-3.8269
0.962	-8.66089
0.9625	-12.28638
0.963	-14.90479
0.9635	-20.64514
0.964	-27.6947
0.9645	-28.39966
0.965	-25.78125
0.9655	-25.27771
0.966	-17.92603
0.9665	-21.3501
0.967	-16.51611
0.9675	-15.30762
0.968	-21.85364
0.9685	-15.30762
0.969	-19.13452
0.9695	-12.38708
0.97	0.30212
0.9705	2.61841
0.971	9.16443
0.9715	21.04797
0.972	19.94019
0.9725	21.95435
0.973	29.70886
0.9735	38.36975
0.974	39.47754
0.9745	41.18958
0.975	41.18958
0.9755	37.36267
0.976	29.70886
0.9765	28.39966
0.977	18.53027
0.9775	6.3446
0.978	3.52478
0.9785	-4.33044
0.979	-11.17859
0.9795	-15.20691
0.98	-18.93311
0.9805	-18.93311
0.981	-15.1062
0.9815	-17.42249
0.982	-24.16992
0.9825	-23.8678
0.983	-28.60107
0.9835	-17.42249
0.984	-19.53735
0.9845	-16.01257
0.985	-9.76868
0.9855	-6.74744
0.986	0.30212
0.9865	-0.60425
0.987	9.56726
0.9875	11.07788
0.988	11.58142
0.9885	11.68213
0.989	15.20691
0.9895	18.02673
0.99	19.63806
0.9905	25.47913
0.991	15.60974
0.9915	6.2439
0.992	13.49487
0.9925	12.48779
0.993	15.20691
0.9935	23.26355
0.994	22.96143
0.9945	22.76001
0.995	17.12036
0.9955	6.64673
0.996	0
0.9965	-3.52478
0.997	-6.04248
0.9975	-5.43823
0.998	-10.17151
0.9985	-4.53186
0.999	-15.50903
0.9995	-14.90479
1	-10.67505
1.0005	-12.18567
1.001	-15.50903
1.0015	-18.93311
1.002	-11.78284
1.0025	-7.65381
1.003	-9.97009
1.0035	-13.99841
1.004	-14.50195
1.0045	-9.66797
1.005	-14.90479
1.0055	-25.177
1.006	-28.39966
1.0065	-28.09753
1.007	-22.45789
1.0075	-23.36426
1.008	-23.8678
1.0085	-23.16284
1.009	-26.88904
1.0095	-31.52161
1.01	-38.26904
1.0105	-33.9386
1.011	-26.88904
1.0115	-23.46497
1.012	-12.38708
1.0125	-11.07788
1.013	-2.81982
1.0135	0.80566
1.014	3.52478
1.0145	13.99841
1.015	24.27063
1.0155	31.32019
1.016	53.47595
1.0165	57.70569
1.017	66.56799
1.0175	64.55383
1.018	55.3894
1.0185	50.75684
1.019	40.38391
1.0195	31.01807
1.02	23.46497
1.0205	15.91187
1.021	11.88354
1.0215	0.20142
1.022	2.5177
1.0225	0.80566
1.023	-7.85522
1.0235	-6.64673
1.024	-9.66797
1.0245	-10.87646
1.025	-7.25098
1.0255	-9.36584
1.026	-17.01965
1.0265	-19.03381
1.027	-25.68054
1.0275	-21.65222
1.028	-17.52319
1.0285	-16.11328
1.029	-18.63098
1.0295	-23.56567
1.03	-27.59399
1.0305	-26.3855
1.031	-25.88196
1.0315	-27.79541
1.032	-21.3501
1.0325	-15.60974
1.033	-19.53735
1.0335	-16.01257
1.034	-17.12036
1.0345	-18.22815
1.035	-14.50195
1.0355	-10.67505
1.036	-3.42407
1.0365	-2.5177
1.037	4.73328
1.0375	10.77576
1.038	24.87488
1.0385	26.68762
1.039	29.70886
1.0395	28.60107
1.04	37.16125
1.0405	35.2478
1.041	32.02515
1.0415	33.9386
1.042	22.45789
1.0425	8.66089
1.043	6.64673
1.0435	5.43823
1.044	-3.42407
1.0445	-9.86938
1.045	-5.94177
1.0455	-8.7616
1.046	-6.94885
1.0465	-1.2085
1.047	-4.73328
1.0475	-4.63257
1.048	-3.7262
1.0485	-16.21399
1.049	-20.24231
1.0495	-27.19116
1.05	-27.29187
1.0505	-21.95435
1.051	-19.53735
1.0515	-25.78125
1.052	-21.75293
1.0525	-18.93311
1.053	-18.42957
1.0535	-16.01257
1.054	-8.96301
1.0545	-7.15027
1.055	-16.21399
1.0555	-15.1062
1.056	-10.17151
1.0565	-6.94885
1.057	-6.2439
1.0575	-3.02124
1.058	1.10779
1.0585	4.22974
1.059	10.67505
1.0595	6.54602
1.06	11.58142
1.0605	21.75293
1.061	15.60974
1.0615	14.30054
1.062	12.78992
1.0625	17.52319
1.063	21.14868
1.0635	16.71753
1.064	16.21399
1.0645	12.89062
1.065	12.68921
1.0655	10.77576
1.066	10.77576
1.0665	13.39417
1.067	21.85364
1.0675	11.98425
1.068	16.01257
1.0685	15.71045
1.069	18.8324
1.0695	13.99841
1.07	18.12744
1.0705	17.52319
1.071	15.1062
1.0715	16.21399
1.072	11.48071
1.0725	9.66797
1.073	14.90479
1.0735	6.64673
1.074	3.62549
1.0745	6.54602
1.075	4.63257
1.0755	8.35876
1.076	2.41699
1.0765	-9.97009
1.077	-11.38
1.0775	-16.01257
1.078	-9.36584
1.0785	-13.49487
1.079	-13.59558
1.0795	-7.45239
1.08	-6.54602
1.0805	-1.91345
1.081	-4.12903
1.0815	3.7262
1.082	0.40283
1.0825	5.43823
1.083	5.23682
1.0835	-1.2085
1.084	-5.23682
1.0845	-5.43823
1.085	-0.80566
1.0855	2.31628
1.086	6.04248
1.0865	3.52478
1.087	-1.2085
1.0875	-6.3446
1.088	-6.94885
1.0885	-10.17151
1.089	-9.46655
1.0895	-5.43823
1.09	-6.54602
1.0905	-8.45947
1.091	-9.46655
1.0915	-6.54602
1.092	-9.56726
1.0925	-9.06372
1.093	-8.35876
1.0935	-11.88354
1.094	-9.46655
1.0945	-1.71204
1.095	0.20142
1.0955	-5.43823
1.096	-8.35876
1.0965	-10.57434
1.097	-9.26514
1.0975	-11.68213
1.098	-13.89771
1.0985	-13.69629
1.099	-20.1416
1.0995	-20.94727
1.1	-16.61682
1.1005	-14.70337
1.101	-15.40833
1.1015	-7.85522
1.102	-2.61841
1.1025	5.63965
1.103	12.38708
1.1035	15.30762
1.104	12.28638
1.1045	13.29346
1.105	11.17859
1.1055	17.22107
1.106	17.82532
1.1065	14.40125
1.107	5.43823
1.1075	-0.80566
1.108	-2.92053
1.1085	-8.56018
1.109	-13.89771
1.1095	-13.797
1.11	-12.5885
1.1105	-11.88354
1.111	-20.04089
1.1115	-22.76001
1.112	-20.94727
1.1125	-23.46497
1.113	-26.88904
1.1135	-25.27771
1.114	-19.53735
1.1145	-10.0708
1.115	-5.74036
1.1155	3.92761
1.116	15.71045
1.1165	22.55859
1.117	32.32727
1.1175	36.25488
1.118	47.8363
1.1185	46.5271
1.119	40.48462
1.1195	32.22656
1.12	27.59399
1.1205	24.87488
1.121	11.2793
1.1215	2.41699
1.122	-5.94177
1.1225	-10.27222
1.123	-11.68213
1.1235	-9.36584
1.124	-6.3446
1.1245	-2.92053
1.125	-0.90637
1.1255	-0.90637
1.126	4.02832
1.1265	2.01416
1.127	0.60425
1.1275	-1.10779
1.128	0.80566
1.1285	-2.41699
1.129	-13.39417
1.1295	-17.32178
1.13	-26.78833
1.1305	-21.45081
1.131	-23.46497
1.1315	-19.33594
1.132	-22.76001
1.1325	-22.45789
1.133	-20.1416
1.1335	-15.20691
1.134	-7.25098
1.1345	-1.81274
1.135	2.41699
1.1355	2.21558
1.136	3.42407
1.1365	5.63965
1.137	16.01257
1.1375	10.67505
1.138	13.29346
1.1385	10.37292
1.139	1.61133
1.1395	-6.14319
1.14	-2.61841
1.1405	3.42407
1.141	-3.42407
1.1415	-7.65381
1.142	-8.25806
1.1425	-12.78992
1.143	-6.3446
1.1435	-11.88354
1.144	-11.78284
1.1445	-7.95593
1.145	-3.02124
1.1455	-0.30212
1.146	-2.81982
1.1465	3.52478
1.147	3.42407
1.1475	8.25806
1.148	5.0354
1.1485	1.10779
1.149	0.30212
1.1495	-0.50354
1.15	6.2439
1.1505	14.09912
1.151	13.09204
1.1515	10.27222
1.152	7.15027
1.1525	3.62549
1.153	7.95593
1.1535	11.98425
1.154	11.58142
1.1545	19.03381
1.155	24.37134
1.1555	31.32019
1.156	27.89612
1.1565	28.70178
1.157	24.47205
1.1575	21.45081
1.158	13.29346
1.1585	4.43115
1.159	-3.02124
1.1595	-17.82532
1.16	-19.63806
1.1605	-16.21399
1.161	-9.36584
1.1615	-2.92053
1.162	0.60425
1.1625	3.8269
1.163	5.53894
1.1635	1.40991
1.164	-2.92053
1.1645	-9.86938
1.165	-12.89062
1.1655	-16.3147
1.166	-14.60266
1.1665	-12.78992
1.167	-23.36426
1.1675	-28.19824
1.168	-30.41382
1.1685	-30.11169
1.169	-26.58691
1.1695	-24.27063
1.17	-20.1416
1.1705	-16.41541
1.171	-14.09912
1.1715	-10.47363
1.172	-0.60425
1.1725	4.22974
1.173	2.41699
1.1735	4.53186
1.174	6.44531
1.1745	10.17151
1.175	6.94885
1.1755	6.64673
1.176	6.14319
1.1765	9.97009
1.177	9.86938
1.1775	9.66797
1.178	7.15027
1.1785	9.76868
1.179	8.25806
1.1795	0.10071
1.18	-3.42407
1.1805	1.91345
1.181	-1.2085
1.1815	-0.30212
1.182	-9.76868
1.1825	-10.47363
1.183	-9.26514
1.1835	-5.74036
1.184	-8.45947
1.1845	-3.52478
1.185	-8.66089
1.1855	-12.78992
1.186	-10.87646
1.1865	-10.37292
1.187	-5.74036
1.1875	-4.83398
1.188	-3.7262
1.1885	-10.97717
1.189	-15.71045
1.1895	-19.13452
1.19	-25.177
1.1905	-27.39258
1.191	-22.76001
1.1915	-20.74585
1.192	-15.71045
1.1925	-13.19275
1.193	-4.53186
1.1935	4.33044
1.194	13.39417
1.1945	22.96143
1.195	27.39258
1.1955	28.19824
1.196	33.43506
1.1965	38.57117
1.197	47.23206
1.1975	46.22498
1.198	38.87329
1.1985	25.07629
1.199	20.74585
1.1995	19.63806
1.2	8.7616
1.2005	0.10071
1.201	-9.46655
1.2015	-12.38708
1.202	-11.48071
1.2025	-22.96143
1.203	-18.02673
1.2035	-17.22107
1.204	-14.40125
1.2045	-10.97717
1.205	-15.1062
1.2055	-8.8623
1.206	-5.74036
1.2065	-9.66797
1.207	-1.51062
1.2075	1.81274
1.208	5.63965
1.2085	1.91345
1.209	6.3446
1.2095	7.85522
1.21	11.88354
1.2105	10.87646
1.211	2.61841
1.2115	6.3446
1.212	5.74036
1.2125	5.63965
1.213	0.40283
1.2135	2.81982
1.214	0.20142
1.2145	-2.01416
1.215	-7.5531
1.2155	-10.37292
1.216	-18.22815
1.2165	-18.73169
1.217	-19.63806
1.2175	-24.77417
1.218	-21.95435
1.2185	-12.78992
1.219	-7.85522
1.2195	-4.83398
1.22	1.81274
1.2205	-1.51062
1.221	-1.40991
1.2215	-4.73328
1.222	0.60425
1.2225	3.62549
1.223	5.0354
1.2235	5.43823
1.224	2.21558
1.2245	-1.51062
1.225	2.41699
1.2255	1.81274
1.226	4.33044
1.2265	-1.40991
1.227	-6.64673
1.2275	-6.84814
1.228	-11.58142
1.2285	-6.14319
1.229	-5.63965
1.2295	-3.02124
1.23	-12.28638
1.2305	-1.3092
1.231	-0.80566
1.2315	-6.94885
1.232	-5.84106
1.2325	2.01416
1.233	1.51062
1.2335	3.42407
1.234	-5.23682
1.2345	-6.04248
1.235	-3.7262
1.2355	-8.66089
1.236	-7.15027
1.2365	-16.71753
1.237	-26.28479
1.2375	-23.56567
1.238	-24.57275
1.2385	-23.76709
1.239	-18.93311
1.2395	-13.09204
1.24	-18.02673
1.2405	-17.92603
1.241	-11.98425
1.2415	-6.54602
1.242	-3.42407
1.2425	1.3092
1.243	8.15735
1.2435	11.58142
1.244	9.66797
1.2445	16.91895
1.245	19.83948
1.2455	21.85364
1.246	24.57275
1.2465	23.26355
1.247	19.73877
1.2475	22.76001
1.248	25.37842
1.2485	24.87488
1.249	20.04089
1.2495	21.45081
1.25	26.18408
1.2505	21.85364
1.251	21.45081
1.2515	21.3501
1.252	20.44373
1.2525	22.15576
1.253	19.53735
1.2535	17.22107
1.254	16.91895
1.2545	15.81116
1.255	7.75452
1.2555	2.21558
1.256	-8.7616
1.2565	-7.45239
1.257	-13.69629
1.2575	-13.09204
1.258	-11.58142
1.2585	-16.61682
1.259	-9.66797
1.2595	-10.67505
1.26	-12.78992
1.2605	-7.5531
1.261	-11.2793
1.2615	-5.74036
1.262	-9.56726
1.2625	-7.35168
1.263	-6.54602
1.2635	-3.22266
1.264	-2.61841
1.2645	-6.14319
1.265	-9.66797
1.2655	-11.58142
1.266	-9.26514
1.2665	-13.99841
1.267	-20.64514
1.2675	-22.15576
1.268	-25.47913
1.2685	-23.76709
1.269	-33.73718
1.2695	-38.57117
1.27	-38.26904
1.2705	-38.26904
1.271	-37.56409
1.2715	-36.05347
1.272	-29.30603
1.2725	-24.16992
1.273	-20.54443
1.2735	-6.64673
1.274	2.71912
1.2745	8.56018
1.275	21.45081
1.2755	30.51453
1.276	37.7655
1.2765	46.02356
1.277	50.95825
1.2775	50.2533
1.278	42.59949
1.2785	43.40515
1.279	44.51294
1.2795	37.96692
1.28	28.29895
1.2805	20.24231
1.281	10.17151
1.2815	6.3446
1.282	-5.53894
1.2825	-4.53186
1.283	-2.21558
1.2835	1.81274
1.284	4.12903
1.2845	3.42407
1.285	8.15735
1.2855	6.64673
1.286	8.7616
1.2865	9.86938
1.287	5.74036
1.2875	10.37292
1.288	1.91345
1.2885	-0.30212
1.289	-1.00708
1.2895	-2.31628
1.29	-1.10779
1.2905	-2.11487
1.291	-8.35876
1.2915	-13.29346
1.292	-15.50903
1.2925	-19.83948
1.293	-21.3501
1.2935	-25.57983
1.294	-27.29187
1.2945	-31.21948
1.295	-38.974
1.2955	-30.11169
1.296	-31.82373
1.2965	-32.12585
1.297	-40.08179
1.2975	-34.54285
1.298	-33.03223
1.2985	-30.71594
1.299	-26.58691
1.2995	-19.13452
1.3	-6.44531
1.3005	-0.50354
1.301	5.84106
1.3015	9.66797
1.302	11.98425
1.3025	27.39258
1.303	33.33435
1.3035	30.81665
1.304	27.59399
1.3045	24.77417
1.305	32.52869
1.3055	22.35718
1.306	16.91895
1.3065	13.19275
1.307	7.5531
1.3075	5.0354
1.308	7.45239
1.3085	3.12195
1.309	-2.92053
1.3095	-8.15735
1.31	-14.90479
1.3105	-9.26514
1.311	-8.66089
1.3115	-7.04956
1.312	-9.26514
1.3125	-10.37292
1.313	-12.28638
1.3135	-14.19983
1.314	-11.68213
1.3145	-17.6239
1.315	-10.17151
1.3155	-11.38
1.316	-4.83398
1.3165	-19.83948
1.317	-26.18408
1.3175	-26.68762
1.318	-22.35718
1.3185	-22.05505
1.319	-13.39417
1.3195	-11.48071
1.32	-9.66797
1.3205	-3.7262
1.321	-0.30212
1.3215	11.48071
1.322	11.58142
1.3225	17.52319
1.323	17.22107
1.3235	14.09912
1.324	12.99133
1.3245	20.04089
1.325	12.48779
1.3255	6.44531
1.326	-6.2439
1.3265	-15.71045
1.327	-30.81665
1.3275	-37.06055
1.328	-49.44763
1.3285	-46.82922
1.329	-39.88037
1.3295	-40.2832
1.33	-40.78674
1.3305	-31.32019
1.331	-12.68921
1.3315	-7.04956
1.332	3.92761
1.3325	17.6239
1.333	28.80249
1.3335	38.26904
1.334	43.40515
1.3345	48.74268
1.335	52.67029
1.3355	52.67029
1.336	49.34692
1.3365	51.46179
1.337	46.12427
1.3375	40.58533
1.338	31.4209
1.3385	24.16992
1.339	18.02673
1.3395	10.47363
1.34	14.09912
1.3405	13.797
1.341	11.78284
1.3415	9.36584
1.342	3.7262
1.3425	7.35168
1.343	-5.63965
1.3435	-8.56018
1.344	-1.2085
1.3445	4.33044
1.345	-0.20142
1.3455	-0.70496
1.346	-8.25806
1.3465	-7.5531
1.347	-11.58142
1.3475	-13.89771
1.348	-10.57434
1.3485	-5.0354
1.349	-5.33752
1.3495	-8.96301
1.35	-5.53894
1.3505	0.50354
1.351	-0.80566
1.3515	-12.38708
1.352	-6.54602
1.3525	-9.86938
1.353	-8.96301
1.3535	-5.53894
1.354	-10.77576
1.3545	-10.57434
1.355	-6.44531
1.3555	-11.2793
1.356	-7.15027
1.3565	-7.95593
1.357	-5.84106
1.3575	-2.92053
1.358	-4.43115
1.3585	-7.5531
1.359	-7.85522
1.3595	0.90637
1.36	6.2439
1.3605	11.88354
1.361	16.91895
1.3615	10.27222
1.362	14.30054
1.3625	11.38
1.363	19.03381
1.3635	12.48779
1.364	8.56018
1.3645	12.78992
1.365	19.13452
1.3655	15.91187
1.366	3.52478
1.3665	-1.71204
1.367	-3.8269
1.3675	2.61841
1.368	3.7262
1.3685	2.81982
1.369	5.43823
1.3695	6.84814
1.37	-1.40991
1.3705	-3.02124
1.371	-2.11487
1.3715	-4.53186
1.372	0.30212
1.3725	2.81982
1.373	1.10779
1.3735	-0.90637
1.374	-5.23682
1.3745	-4.53186
1.375	-7.75452
1.3755	-6.74744
1.376	-8.05664
1.3765	-8.35876
1.377	-0.10071
1.3775	-0.80566
1.378	-8.56018
1.3785	-11.2793
1.379	-11.58142
1.3795	-8.05664
1.38	-11.38
1.3805	-8.05664
1.381	-11.2793
1.3815	-7.5531
1.382	-7.35168
1.3825	-7.75452
1.383	2.41699
1.3835	-0.70496
1.384	1.51062
1.3845	2.31628
1.385	2.61841
1.3855	0.60425
1.386	2.21558
1.3865	6.14319
1.387	3.7262
1.3875	-0.80566
1.388	-1.51062
1.3885	-3.42407
1.389	-7.25098
1.3895	-2.81982
1.39	-8.56018
1.3905	-6.04248
1.391	-5.43823
1.3915	-6.84814
1.392	-4.43115
1.3925	-7.65381
1.393	-7.35168
1.3935	-1.40991
1.394	-2.71912
1.3945	-4.02832
1.395	-9.06372
1.3955	-20.44373
1.396	-21.95435
1.3965	-30.71594
1.397	-34.94568
1.3975	-34.14001
1.398	-34.03931
1.3985	-32.42798
1.399	-29.20532
1.3995	-24.47205
1.4	-21.55151
1.4005	-23.16284
1.401	-26.58691
1.4015	-25.27771
1.402	-14.09912
1.4025	-6.14319
1.403	-3.12195
1.4035	-4.22974
1.404	-0.30212
1.4045	8.56018
1.405	12.5885
1.4055	20.24231
1.406	21.95435
1.4065	31.4209
1.407	34.64355
1.4075	30.11169
1.408	29.91028
1.4085	26.68762
1.409	17.01965
1.4095	14.19983
1.41	10.17151
1.4105	4.53186
1.411	9.36584
1.4115	11.58142
1.412	12.68921
1.4125	15.60974
1.413	21.3501
1.4135	23.56567
1.414	20.24231
1.4145	23.96851
1.415	27.39258
1.4155	30.41382
1.416	24.77417
1.4165	21.24939
1.417	24.77417
1.4175	17.32178
1.418	13.69629
1.4185	9.97009
1.419	5.74036
1.4195	-1.10779
1.42	-6.64673
1.4205	-11.38
1.421	-12.18567
1.4215	-13.19275
1.422	-15.60974
1.4225	-17.52319
1.423	-13.49487
1.4235	-13.69629
1.424	-14.50195
1.4245	-20.34302
1.425	-25.57983
1.4255	-24.57275
1.426	-31.52161
1.4265	-31.32019
1.427	-25.68054
1.4275	-22.25647
1.428	-20.54443
1.4285	-22.45789
1.429	-24.77417
1.4295	-22.96143
1.43	-29.91028
1.4305	-27.49329
1.431	-25.27771
1.4315	-20.74585
1.432	-18.73169
1.4325	-14.09912
1.433	-13.39417
1.4335	-7.95593
1.434	-4.43115
1.4345	10.0708
1.435	13.99841
1.4355	11.2793
1.436	13.39417
1.4365	25.98267
1.437	32.52869
1.4375	36.65771
1.438	38.67188
1.4385	39.07471
1.439	37.26196
1.4395	35.65063
1.44	32.22656
1.4405	30.01099
1.441	33.03223
1.4415	28.39966
1.442	17.92603
1.4425	16.61682
1.443	15.20691
1.4435	9.66797
1.444	4.33044
1.4445	1.40991
1.445	-4.22974
1.4455	-3.02124
1.446	-13.09204
1.4465	-13.797
1.447	-14.09912
1.4475	-20.84656
1.448	-14.60266
1.4485	-16.91895
1.449	-17.52319
1.4495	-16.3147
1.45	-8.05664
1.4505	-12.78992
1.451	-17.01965
1.4515	-9.26514
1.452	-12.08496
1.4525	-9.16443
1.453	-12.18567
1.4535	-13.19275
1.454	-5.74036
1.4545	-2.21558
1.455	2.5177
1.4555	7.15027
1.456	10.97717
1.4565	18.42957
1.457	20.94727
1.4575	14.40125
1.458	13.89771
1.4585	20.1416
1.459	12.89062
1.4595	22.05505
1.46	20.74585
1.4605	23.96851
1.461	11.88354
1.4615	10.87646
1.462	5.0354
1.4625	-2.11487
1.463	-3.42407
1.4635	-8.25806
1.464	-13.797
1.4645	-14.50195
1.465	-19.23523
1.4655	-17.32178
1.466	-20.44373
1.4665	-15.40833
1.467	-12.18567
1.4675	-14.09912
1.468	-9.76868
1.4685	-4.93469
1.469	-4.63257
1.4695	-2.81982
1.47	-1.00708
1.4705	1.71204
1.471	2.81982
1.4715	-0.70496
1.472	-2.71912
1.4725	-0.60425
1.473	0.70496
1.4735	-8.56018
1.474	-8.05664
1.4745	-6.84814
1.475	-9.26514
1.4755	-3.8269
1.476	-4.12903
1.4765	-6.84814
1.477	-18.63098
1.4775	-22.76001
1.478	-28.09753
1.4785	-26.08337
1.479	-28.9032
1.4795	-19.43665
1.48	-19.63806
1.4805	-16.71753
1.481	-15.60974
1.4815	-18.12744
1.482	-22.25647
1.4825	-15.71045
1.483	-10.0708
1.4835	-8.05664
1.484	-0.10071
1.4845	2.61841
1.485	3.22266
1.4855	1.71204
1.486	8.8623
1.4865	2.5177
1.487	20.44373
1.4875	23.76709
1.488	32.22656
1.4885	40.48462
1.489	42.29736
1.4895	38.36975
1.49	36.95984
1.4905	30.41382
1.491	14.09912
1.4915	-1.71204
1.492	-15.71045
1.4925	-24.37134
1.493	-36.55701
1.4935	-36.25488
1.494	-31.62231
1.4945	-26.68762
1.495	-18.32886
1.4955	-18.73169
1.496	-20.04089
1.4965	-14.70337
1.497	-8.56018
1.4975	-5.84106
1.498	-1.40991
1.4985	3.62549
1.499	7.65381
1.4995	6.94885
1.5	5.84106
1.5005	5.94177
1.501	2.11487
1.5015	-1.71204
1.502	0.60425
1.5025	6.2439
1.503	13.39417
1.5035	18.12744
1.504	14.70337
1.5045	8.35876
1.505	3.12195
1.5055	-1.2085
1.506	-3.42407
1.5065	-0.70496
1.507	-0.80566
1.5075	-5.53894
1.508	-6.3446
1.5085	-10.87646
1.509	-20.04089
1.5095	-19.13452
1.51	-13.59558
1.5105	-9.26514
1.511	-1.2085
1.5115	3.22266
1.512	8.96301
1.5125	11.58142
1.513	20.84656
1.5135	16.41541
1.514	16.71753
1.5145	18.53027
1.515	21.45081
1.5155	24.37134
1.516	19.73877
1.5165	18.73169
1.517	16.71753
1.5175	8.96301
1.518	4.73328
1.5185	4.02832
1.519	5.43823
1.5195	3.22266
1.52	1.91345
1.5205	0.80566
1.521	-4.93469
1.5215	-4.53186
1.522	-6.64673
1.5225	-2.31628
1.523	0.50354
1.5235	-8.8623
1.524	-13.797
1.5245	-11.07788
1.525	-20.44373
1.5255	-17.12036
1.526	-15.91187
1.5265	-7.85522
1.527	-3.62549
1.5275	-2.31628
1.528	-8.45947
1.5285	-2.5177
1.529	-2.11487
1.5295	1.2085
1.53	-3.22266
1.5305	1.61133
1.531	5.43823
1.5315	1.81274
1.532	-2.5177
1.5325	-1.3092
1.533	-4.43115
1.5335	-6.2439
1.534	-6.94885
1.5345	-10.77576
1.535	-8.96301
1.5355	-12.28638
1.536	-6.84814
1.5365	-12.18567
1.537	-5.43823
1.5375	-2.11487
1.538	-6.2439
1.5385	-4.43115
1.539	-2.21558
1.5395	-1.3092
1.54	1.51062
1.5405	-1.91345
1.541	-2.01416
1.5415	-1.2085
1.542	0.20142
1.5425	-4.12903
1.543	1.81274
1.5435	-4.43115
1.544	-5.13611
1.5445	-8.15735
1.545	-10.0708
1.5455	-9.06372
1.546	-9.66797
1.5465	-7.65381
1.547	3.02124
1.5475	-1.81274
1.548	1.10779
1.5485	-1.91345
1.549	-10.27222
1.5495	-8.45947
1.55	-4.73328
1.5505	-6.44531
1.551	-15.30762
1.5515	-7.15027
1.552	-11.17859
1.5525	-5.23682
1.553	-9.66797
1.5535	-6.3446
1.554	-6.54602
1.5545	-5.13611
1.555	-10.97717
1.5555	-11.48071
1.556	-4.43115
1.5565	-9.56726
1.557	-2.92053
1.5575	-8.8623
1.558	2.61841
1.5585	2.21558
1.559	-1.61133
1.5595	-1.00708
1.56	3.02124
1.5605	1.71204
1.561	1.51062
1.5615	-2.01416
1.562	1.10779
1.5625	0.80566
1.563	3.42407
1.5635	1.40991
1.564	0.70496
1.5645	4.53186
1.565	-3.42407
1.5655	-8.35876
1.566	-11.48071
1.5665	-5.13611
1.567	-4.02832
1.5675	1.2085
1.568	2.21558
1.5685	-9.46655
1.569	-1.91345
1.5695	-4.33044
1.57	-3.8269
1.5705	-1.51062
1.571	-1.40991
1.5715	-0.80566
1.572	4.83398
1.5725	4.22974
1.573	6.3446
1.5735	-2.61841
1.574	-5.63965
1.5745	-8.05664
1.575	-7.65381
1.5755	-12.68921
1.576	-20.44373
1.5765	-26.28479
1.577	-26.08337
1.5775	-22.86072
1.578	-29.80957
1.5785	-20.04089
1.579	-29.60815
1.5795	-34.54285
1.58	-33.43506
1.5805	-32.83081
1.581	-34.54285
1.5815	-17.42249
1.582	-10.67505
1.5825	-6.54602
1.583	5.63965
1.5835	25.07629
1.584	34.94568
1.5845	45.41931
1.585	50.2533
1.5855	53.67737
1.586	63.34534
1.5865	68.17932
1.587	62.64038
1.5875	57.10144
1.588	43.90869
1.5885	36.4563
1.589	21.95435
1.5895	13.09204
1.59	12.5885
1.5905	9.26514
1.591	6.64673
1.5915	2.21558
1.592	1.10779
1.5925	2.71912
1.593	-0.40283
1.5935	-5.13611
1.594	-4.02832
1.5945	-2.81982
1.595	-0.80566
1.5955	-8.8623
1.596	-7.45239
1.5965	-6.44531
1.597	3.32336
1.5975	10.27222
1.598	2.71912
1.5985	1.51062
1.599	-2.31628
1.5995	-5.13611
1.6	-10.87646
1.6005	-14.19983
1.601	-23.96851
1.6015	-31.82373
1.602	-36.95984
1.6025	-42.49878
1.603	-44.91577
1.6035	-45.62073
1.604	-47.43347
1.6045	-50.55542
1.605	-46.02356
1.6055	-35.54993
1.606	-27.09045
1.6065	-17.92603
1.607	-14.30054
1.6075	-5.33752
1.608	5.84106
1.6085	11.38
1.609	16.91895
1.6095	20.34302
1.61	25.88196
1.6105	30.11169
1.611	29.30603
1.6115	33.23364
1.612	25.78125
1.6125	24.27063
1.613	25.37842
1.6135	27.19116
1.614	14.90479
1.6145	17.01965
1.615	10.87646
1.6155	13.29346
1.616	16.01257
1.6165	11.2793
1.617	4.73328
1.6175	-2.92053
1.618	-10.17151
1.6185	-0.70496
1.619	4.22974
1.6195	6.14319
1.62	8.8623
1.6205	11.2793
1.621	10.57434
1.6215	9.06372
1.622	3.7262
1.6225	8.8623
1.623	11.38
1.6235	12.18567
1.624	7.75452
1.6245	6.94885
1.625	7.95593
1.6255	6.94885
1.626	8.8623
1.6265	6.74744
1.627	3.92761
1.6275	4.12903
1.628	5.0354
1.6285	0.90637
1.629	-6.3446
1.6295	-13.69629
1.63	-15.00549
1.6305	-27.19116
1.631	-29.40674
1.6315	-25.68054
1.632	-29.91028
1.6325	-26.98975
1.633	-23.76709
1.6335	-19.63806
1.634	-23.96851
1.6345	-20.44373
1.635	-16.61682
1.6355	-11.98425
1.636	-7.35168
1.6365	-8.35876
1.637	0.40283
1.6375	7.85522
1.638	9.16443
1.6385	16.61682
1.639	25.68054
1.6395	25.177
1.64	29.40674
1.6405	29.10461
1.641	29.30603
1.6415	20.74585
1.642	12.18567
1.6425	12.18567
1.643	5.23682
1.6435	0
1.644	2.31628
1.6445	-7.95593
1.645	-10.37292
1.6455	-2.31628
1.646	-8.7616
1.6465	-10.27222
1.647	-7.35168
1.6475	-4.12903
1.648	-2.11487
1.6485	-4.22974
1.649	-3.8269
1.6495	-6.74744
1.65	-4.53186
1.6505	-2.92053
1.651	-1.2085
1.6515	-0.40283
1.652	-1.3092
1.6525	-7.45239
1.653	1.81274
1.6535	-1.2085
1.654	-2.71912
1.6545	-2.81982
1.655	-10.37292
1.6555	-11.17859
1.656	-11.2793
1.6565	-11.17859
1.657	-7.75452
1.6575	-12.78992
1.658	-14.60266
1.6585	-9.56726
1.659	-7.45239
1.6595	-6.84814
1.66	-10.57434
1.6605	-18.93311
1.661	-19.83948
1.6615	-20.54443
1.662	-13.49487
1.6625	-15.60974
1.663	-14.19983
1.6635	-16.81824
1.664	-24.27063
1.6645	-31.01807
1.665	-27.79541
1.6655	-34.03931
1.666	-38.67188
1.6665	-36.05347
1.667	-39.27612
1.6675	-25.47913
1.668	-13.29346
1.6685	-6.64673
1.669	7.5531
1.6695	11.98425
1.67	23.26355
1.6705	28.09753
1.671	34.54285
1.6715	42.49878
1.672	45.92285
1.6725	49.95117
1.673	37.56409
1.6735	37.26196
1.674	32.32727
1.6745	20.84656
1.675	10.57434
1.6755	3.62549
1.676	3.42407
1.6765	2.01416
1.677	-1.81274
1.6775	3.62549
1.678	-0.90637
1.6785	-4.12903
1.679	-1.91345
1.6795	5.74036
1.68	9.76868
1.6805	9.26514
1.681	14.30054
1.6815	15.00549
1.682	12.08496
1.6825	10.37292
1.683	11.07788
1.6835	8.56018
1.684	3.42407
1.6845	5.74036
1.685	1.71204
1.6855	1.91345
1.686	3.52478
1.6865	-5.74036
1.687	-0.90637
1.6875	5.74036
1.688	4.02832
1.6885	7.75452
1.689	5.94177
1.6895	0.10071
1.69	4.22974
1.6905	5.63965
1.691	3.7262
1.6915	-3.22266
1.692	2.41699
1.6925	4.83398
1.693	2.41699
1.6935	2.11487
1.694	5.43823
1.6945	6.94885
1.695	-0.80566
1.6955	-2.92053
1.696	1.51062
1.6965	3.92761
1.697	-0.10071
1.6975	-5.63965
1.698	-5.43823
1.6985	-1.71204
1.699	-4.22974
1.6995	-8.96301
1.7	-15.20691
1.7005	-15.71045
1.701	-17.82532
1.7015	-8.66089
1.702	-10.87646
1.7025	-7.85522
1.703	-11.17859
1.7035	-11.17859
1.704	-10.57434
1.7045	-10.37292
1.705	-11.48071
1.7055	-12.89062
1.706	-11.98425
1.7065	-6.14319
1.707	-6.74744
1.7075	-8.45947
1.708	-0.50354
1.7085	-3.32336
1.709	-11.38
1.7095	-8.8623
1.71	-14.60266
1.7105	-7.15027
1.711	-4.12903
1.7115	0.50354
1.712	1.40991
1.7125	0
1.713	0.40283
1.7135	-3.7262
1.714	0.10071
1.7145	5.23682
1.715	5.33752
1.7155	7.85522
1.716	14.19983
1.7165	11.58142
1.717	10.67505
1.7175	11.88354
1.718	13.99841
1.7185	14.19983
1.719	14.60266
1.7195	12.38708
1.72	18.73169
1.7205	19.73877
1.721	18.02673
1.7215	15.20691
1.722	11.68213
1.7225	6.84814
1.723	10.37292
1.7235	6.54602
1.724	6.14319
1.7245	4.93469
1.725	3.42407
1.7255	4.93469
1.726	2.21558
1.7265	1.3092
1.727	1.51062
1.7275	0.90637
1.728	1.40991
1.7285	-1.91345
1.729	-5.13611
1.7295	-2.01416
1.73	-8.7616
1.7305	-4.02832
1.731	-5.84106
1.7315	-0.50354
1.732	-3.32336
1.7325	-5.23682
1.733	-4.93469
1.7335	-9.46655
1.734	-13.29346
1.7345	-15.81116
1.735	-15.50903
1.7355	-18.32886
1.736	-23.36426
1.7365	-19.23523
1.737	-20.54443
1.7375	-22.96143
1.738	-20.64514
1.7385	-26.48621
1.739	-20.94727
1.7395	-17.52319
1.74	-17.72461
1.7405	-21.24939
1.741	-16.71753
1.7415	-14.30054
1.742	-4.02832
1.7425	-1.61133
1.743	2.21558
1.7435	4.22974
1.744	-1.2085
1.7445	-3.8269
1.745	2.01416
1.7455	5.43823
1.746	4.83398
1.7465	12.89062
1.747	17.12036
1.7475	12.48779
1.748	14.70337
1.7485	14.09912
1.749	10.67505
1.7495	9.97009
1.75	12.28638
1.7505	-4.73328
1.751	-6.04248
1.7515	-2.71912
1.752	-2.81982
1.7525	2.61841
1.753	10.37292
1.7535	7.65381
1.754	7.75452
1.7545	15.60974
1.755	12.28638
1.7555	15.60974
1.756	10.37292
1.7565	22.35718
1.757	19.33594
1.7575	15.60974
1.758	14.90479
1.7585	13.59558
1.759	3.7262
1.7595	5.53894
1.76	4.43115
1.7605	-2.41699
1.761	0.60425
1.7615	-8.45947
1.762	-1.40991
1.7625	-9.36584
1.763	-14.40125
1.7635	-20.64514
1.764	-30.31311
1.7645	-30.91736
1.765	-33.73718
1.7655	-39.47754
1.766	-40.98816
1.7665	-41.29028
1.767	-43.60657
1.7675	-39.37683
1.768	-36.4563
1.7685	-30.61523
1.769	-29.91028
1.7695	-17.6239
1.77	-19.03381
1.7705	-15.60974
1.771	-3.52478
1.7715	0.80566
1.772	1.61133
1.7725	7.35168
1.773	21.85364
1.7735	28.70178
1.774	28.09753
1.7745	34.14001
1.775	39.47754
1.7755	43.70728
1.776	46.02356
1.7765	40.1825
1.777	32.02515
1.7775	22.25647
1.778	9.16443
1.7785	1.2085
1.779	-7.35168
1.7795	-4.22974
1.78	-7.5531
1.7805	-3.52478
1.781	-1.40991
1.7815	3.02124
1.782	4.12903
1.7825	7.85522
1.783	16.11328
1.7835	12.38708
1.784	9.06372
1.7845	12.99133
1.785	15.71045
1.7855	21.24939
1.786	16.81824
1.7865	12.89062
1.787	10.27222
1.7875	3.32336
1.788	2.5177
1.7885	0.40283
1.789	-9.56726
1.7895	-11.58142
1.79	-11.38
1.7905	-8.66089
1.791	-17.01965
1.7915	-14.80408
1.792	-17.6239
1.7925	-15.91187
1.793	-16.71753
1.7935	-13.99841
1.794	-17.42249
1.7945	-18.63098
1.795	-21.85364
1.7955	-23.26355
1.796	-26.48621
1.7965	-28.29895
1.797	-21.65222
1.7975	-28.29895
1.798	-28.39966
1.7985	-27.89612
1.799	-22.86072
1.7995	-16.41541
1.8	-9.36584
1.8005	-6.3446
1.801	3.62549
1.8015	2.61841
1.802	10.97717
1.8025	17.42249
1.803	19.73877
1.8035	25.47913
1.804	26.18408
1.8045	26.48621
1.805	24.06921
1.8055	20.1416
1.806	17.32178
1.8065	14.60266
1.807	11.88354
1.8075	6.94885
1.808	2.31628
1.8085	-3.62549
1.809	-7.04956
1.8095	-6.14319
1.81	-5.13611
1.8105	-5.53894
1.811	-11.07788
1.8115	-10.87646
1.812	0.30212
1.8125	-3.52478
1.813	4.93469
1.8135	11.17859
1.814	4.63257
1.8145	11.78284
1.815	13.49487
1.8155	15.30762
1.816	18.42957
1.8165	9.16443
1.817	7.5531
1.8175	5.94177
1.818	8.66089
1.8185	2.01416
1.819	-3.32336
1.8195	1.61133
1.82	-2.11487
1.8205	-5.0354
1.821	-9.56726
1.8215	-12.18567
1.822	-7.85522
1.8225	-2.01416
1.823	0.70496
1.8235	-5.33752
1.824	-12.89062
1.8245	-7.25098
1.825	-11.17859
1.8255	-6.74744
1.826	-5.53894
1.8265	-2.92053
1.827	-0.10071
1.8275	-1.2085
1.828	-2.41699
1.8285	0.90637
1.829	4.02832
1.8295	-9.56726
1.83	-8.56018
1.8305	-10.77576
1.831	-8.25806
1.8315	-9.66797
1.832	-8.15735
1.8325	-9.26514
1.833	-7.25098
1.8335	-4.33044
1.834	-5.94177
1.8345	-1.00708
1.835	-1.81274
1.8355	0.70496
1.836	2.21558
1.8365	2.5177
1.837	-3.8269
1.8375	-4.53186
1.838	-12.78992
1.8385	-12.38708
1.839	-16.51611
1.8395	-12.78992
1.84	-8.66089
1.8405	-0.50354
1.841	0.90637
1.8415	5.0354
1.842	13.09204
1.8425	13.69629
1.843	19.23523
1.8435	14.09912
1.844	18.73169
1.8445	25.47913
1.845	21.14868
1.8455	19.43665
1.846	15.71045
1.8465	8.96301
1.847	15.81116
1.8475	18.02673
1.848	11.48071
1.8485	10.97717
1.849	13.19275
1.8495	8.35876
1.85	7.04956
1.8505	-4.22974
1.851	-12.48779
1.8515	-17.01965
1.852	-13.797
1.8525	-8.8623
1.853	-10.17151
1.8535	-5.0354
1.854	-7.15027
1.8545	-8.25806
1.855	-11.17859
1.8555	-4.12903
1.856	-10.57434
1.8565	-5.23682
1.857	-3.02124
1.8575	-4.12903
1.858	5.33752
1.8585	-1.00708
1.859	-3.7262
1.8595	1.3092
1.86	3.7262
1.8605	-1.71204
1.861	-2.11487
1.8615	-4.73328
1.862	-9.97009
1.8625	-13.29346
1.863	-7.85522
1.8635	-11.17859
1.864	-9.97009
1.8645	-10.77576
1.865	-15.1062
1.8655	-20.74585
1.866	-14.80408
1.8665	-15.60974
1.867	-12.99133
1.8675	-5.94177
1.868	-2.92053
1.8685	-5.13611
1.869	-7.85522
1.8695	0.20142
1.87	-6.54602
1.8705	-9.66797
1.871	-11.17859
1.8715	-9.06372
1.872	-13.19275
1.8725	-16.81824
1.873	-11.88354
1.8735	-18.53027
1.874	-8.45947
1.8745	-13.89771
1.875	-20.24231
1.8755	-23.36426
1.876	-23.36426
1.8765	-18.32886
1.877	-8.05664
1.8775	-6.84814
1.878	1.71204
1.8785	7.85522
1.879	16.61682
1.8795	25.37842
1.88	40.68604
1.8805	49.34692
1.881	60.72693
1.8815	65.66162
1.882	62.13684
1.8825	54.48303
1.883	41.29028
1.8835	28.29895
1.884	25.68054
1.8845	15.50903
1.885	3.7262
1.8855	-7.75452
1.886	-11.48071
1.8865	-15.1062
1.887	-11.2793
1.8875	-6.2439
1.888	-17.52319
1.8885	-10.0708
1.889	-5.43823
1.8895	-0.10071
1.89	3.62549
1.8905	4.83398
1.891	-1.91345
1.8915	-2.5177
1.892	-5.13611
1.8925	-1.10779
1.893	-4.93469
1.8935	-1.51062
1.894	-4.43115
1.8945	-3.32336
1.895	-0.30212
1.8955	-1.00708
1.896	-6.54602
1.8965	-0.40283
1.897	0.40283
1.8975	-4.22974
1.898	-9.76868
1.8985	-12.99133
1.899	-11.98425
1.8995	-9.16443
1.9	-7.75452
1.9005	-10.97717
1.901	-1.00708
1.9015	-8.45947
1.902	-9.06372
1.9025	-6.2439
1.903	-5.33752
1.9035	-5.23682
1.904	-8.25806
1.9045	-7.35168
1.905	-10.0708
1.9055	-12.28638
1.906	-11.38
1.9065	-9.97009
1.907	-7.25098
1.9075	-7.65381
1.908	-10.37292
1.9085	-7.95593
1.909	-3.92761
1.9095	-0.60425
1.91	0.30212
1.9105	1.40991
1.911	-5.74036
1.9115	-12.08496
1.912	-4.22974
1.9125	-2.01416
1.913	-13.59558
1.9135	-8.45947
1.914	-5.53894
1.9145	-4.93469
1.915	3.8269
1.9155	4.93469
1.916	7.25098
1.9165	18.42957
1.917	15.50903
1.9175	12.99133
1.918	3.8269
1.9185	9.46655
1.919	9.06372
1.9195	4.33044
1.92	13.49487
1.9205	15.20691
1.921	14.40125
1.9215	7.35168
1.922	0.90637
1.9225	3.32336
1.923	-2.71912
1.9235	-14.70337
1.924	-20.44373
1.9245	-24.16992
1.925	-22.76001
1.9255	-30.71594
1.926	-29.60815
1.9265	-30.91736
1.927	-23.06213
1.9275	-19.53735
1.928	-22.86072
1.9285	-13.19275
1.929	-10.57434
1.9295	-11.17859
1.93	-13.19275
1.9305	-4.73328
1.931	-1.00708
1.9315	0.60425
1.932	6.84814
1.9325	8.56018
1.933	9.26514
1.9335	8.8623
1.934	13.99841
1.9345	15.40833
1.935	22.55859
1.9355	21.95435
1.936	26.88904
1.9365	25.27771
1.937	17.01965
1.9375	13.69629
1.938	8.66089
1.9385	14.09912
1.939	12.18567
1.9395	2.71912
1.94	3.32336
1.9405	9.86938
1.941	8.7616
1.9415	16.51611
1.942	16.61682
1.9425	17.32178
1.943	21.45081
1.9435	20.24231
1.944	25.98267
1.9445	18.02673
1.945	12.78992
1.9455	8.7616
1.946	6.2439
1.9465	2.41699
1.947	0.70496
1.9475	2.21558
1.948	1.81274
1.9485	-0.90637
1.949	1.51062
1.9495	-1.71204
1.95	-8.25806
1.9505	-4.02832
1.951	3.92761
1.9515	3.12195
1.952	4.63257
1.9525	2.01416
1.953	0.50354
1.9535	2.61841
1.954	3.22266
1.9545	-0.50354
1.955	-8.66089
1.9555	-12.08496
1.956	-8.25806
1.9565	-13.19275
1.957	-6.64673
1.9575	-10.27222
1.958	-6.3446
1.9585	-16.01257
1.959	-4.93469
1.9595	-7.15027
1.96	-5.23682
1.9605	-8.45947
1.961	-6.3446
1.9615	-4.63257
1.962	-1.61133
1.9625	-1.40991
1.963	-3.12195
1.9635	-3.7262
1.964	-5.13611
1.9645	-9.66797
1.965	-5.53894
1.9655	-6.64673
1.966	-9.46655
1.9665	-12.89062
1.967	-12.78992
1.9675	-14.40125
1.968	-11.58142
1.9685	-10.47363
1.969	-8.56018
1.9695	-1.71204
1.97	-4.12903
1.9705	-1.2085
1.971	-3.8269
1.9715	-6.64673
1.972	-8.05664
1.9725	-6.74744
1.973	-6.74744
1.9735	-2.41699
1.974	-1.71204
1.9745	-1.81274
1.975	-0.80566
1.9755	3.32336
1.976	4.93469
1.9765	3.32336
1.977	6.84814
1.9775	8.35876
1.978	2.31628
1.9785	0.40283
1.979	-0.30212
1.9795	0.60425
1.98	-2.5177
1.9805	2.31628
1.981	3.22266
1.9815	6.74744
1.982	11.17859
1.9825	11.17859
1.983	8.05664
1.9835	11.48071
1.984	1.40991
1.9845	7.35168
1.985	13.89771
1.9855	15.00549
1.986	12.89062
1.9865	5.63965
1.987	7.04956
1.9875	0.90637
1.988	-1.40991
1.9885	3.12195
1.989	-6.04248
1.9895	-1.40991
1.99	-1.3092
1.9905	-17.92603
1.991	-31.01807
1.9915	-43.70728
1.992	-54.78516
1.9925	-58.00781
1.993	-56.09436
1.9935	-64.151
1.994	-62.23755
1.9945	-70.09277
1.995	-62.03613
1.9955	-62.23755
1.996	-54.28162
1.9965	-45.82214
1.997	-37.46338
1.9975	-20.04089
1.998	-14.40125
1.9985	9.26514
1.999	25.47913
1.9995	39.37683
2	56.69861
2.0005	65.66162
2.001	80.16357
2.0015	83.28552
2.002	83.58765
2.0025	89.328
2.003	83.68835
2.0035	78.55225
2.004	65.56091
2.0045	54.68445
2.005	44.11011
2.0055	31.72302
2.006	22.6593
2.0065	13.797
2.007	6.64673
2.0075	1.3092
2.008	1.91345
2.0085	-1.3092
2.009	-7.35168
2.0095	-6.44531
2.01	-7.15027
2.0105	-3.02124
2.011	-1.61133
2.0115	-2.92053
2.012	-0.70496
2.0125	-0.70496
2.013	0.90637
2.0135	-0.50354
2.014	-2.81982
2.0145	-0.30212
2.015	0.70496
2.0155	-2.71912
2.016	-6.14319
2.0165	-8.35876
2.017	-6.3446
2.0175	-13.59558
2.018	-15.20691
2.0185	-11.78284
2.019	-13.29346
2.0195	-9.26514
2.02	-8.7616
2.0205	-5.53894
2.021	-12.28638
2.0215	-11.58142
2.022	-6.64673
2.0225	-0.70496
2.023	-3.02124
2.0235	-2.81982
2.024	-5.94177
2.0245	-12.28638
2.025	-13.69629
2.0255	-21.24939
2.026	-18.22815
2.0265	-12.89062
2.027	-8.96301
2.0275	-14.60266
2.028	-12.28638
2.0285	-3.52478
2.029	-2.5177
2.0295	-5.84106
2.03	-0.50354
2.0305	8.25806
2.031	8.25806
2.0315	16.11328
2.032	18.93311
2.0325	16.11328
2.033	14.70337
2.0335	16.11328
2.034	19.94019
2.0345	17.01965
2.035	19.73877
2.0355	20.34302
2.036	17.6239
2.0365	10.87646
2.037	11.78284
2.0375	4.53186
2.038	1.10779
2.0385	-6.3446
2.039	-15.71045
2.0395	-19.83948
2.04	-22.86072
2.0405	-17.42249
2.041	-18.8324
2.0415	-22.55859
2.042	-20.1416
2.0425	-20.94727
2.043	-14.90479
2.0435	-19.33594
2.044	-18.93311
2.0445	-22.05505
2.045	-19.43665
2.0455	-19.03381
2.046	-25.78125
2.0465	-26.88904
2.047	-30.71594
2.0475	-29.40674
2.048	-26.18408
2.0485	-19.43665
2.049	-19.94019
2.0495	-18.93311
2.05	-26.58691
2.0505	-25.98267
2.051	-19.83948
2.0515	-13.19275
2.052	-9.26514
2.0525	-12.18567
2.053	-6.84814
2.0535	-0.60425
2.054	4.53186
2.0545	6.64673
2.055	11.2793
2.0555	16.21399
2.056	18.32886
2.0565	21.55151
2.057	29.70886
2.0575	25.98267
2.058	19.03381
2.0585	12.99133
2.059	10.17151
2.0595	9.16443
2.06	5.53894
2.0605	-5.0354
2.061	-8.96301
2.0615	-9.97009
2.062	-5.74036
2.0625	-8.15735
2.063	-2.61841
2.0635	0
2.064	1.81274
2.0645	-1.2085
2.065	2.01416
2.0655	-0.10071
2.066	4.83398
2.0665	2.41699
2.067	0.50354
2.0675	5.74036
2.068	0.40283
2.0685	8.45947
2.069	8.45947
2.0695	4.83398
2.07	2.61841
2.0705	2.81982
2.071	3.42407
2.0715	3.52478
2.072	-9.76868
2.0725	-15.50903
2.073	-18.22815
2.0735	-23.96851
2.074	-37.46338
2.0745	-39.88037
2.075	-45.41931
2.0755	-43.70728
2.076	-41.69312
2.0765	-38.67188
2.077	-31.11877
2.0775	-27.89612
2.078	-33.53577
2.0785	-33.53577
2.079	-29.30603
2.0795	-26.98975
2.08	-21.65222
2.0805	-19.33594
2.081	-8.56018
2.0815	-2.5177
2.082	6.14319
2.0825	5.0354
2.083	15.71045
2.0835	17.52319
2.084	31.32019
2.0845	31.4209
2.085	36.65771
2.0855	44.81506
2.086	44.0094
2.0865	43.60657
2.087	41.99524
2.0875	36.85913
2.088	33.73718
2.0885	28.19824
2.089	22.35718
2.0895	21.3501
2.09	18.93311
2.0905	8.35876
2.091	3.02124
2.0915	0.80566
2.092	-3.02124
2.0925	0
2.093	-4.53186
2.0935	-7.35168
2.094	-13.19275
2.0945	-16.3147
2.095	-19.63806
2.0955	-29.10461
2.096	-23.46497
2.0965	-18.8324
2.097	-19.63806
2.0975	-31.72302
2.098	-32.12585
2.0985	-27.39258
2.099	-29.80957
2.0995	-27.29187
2.1	-22.05505
2.1005	-16.51611
2.101	-14.60266
2.1015	-2.31628
2.102	-0.40283
2.1025	-4.22974
2.103	2.5177
2.1035	9.06372
2.104	10.57434
2.1045	10.37292
2.105	10.47363
2.1055	12.18567
2.106	16.21399
2.1065	19.94019
2.107	31.72302
2.1075	34.54285
2.108	38.67188
2.1085	32.62939
2.109	26.58691
2.1095	16.91895
2.11	8.96301
2.1105	5.0354
2.111	2.92053
2.1115	2.11487
2.112	-5.84106
2.1125	-5.43823
2.113	-12.5885
2.1135	-15.1062
2.114	-19.33594
2.1145	-26.98975
2.115	-24.77417
2.1155	-20.24231
2.116	-13.09204
2.1165	-18.93311
2.117	-16.91895
2.1175	-18.53027
2.118	-20.1416
2.1185	-19.13452
2.119	-14.90479
2.1195	-10.37292
2.12	-15.1062
2.1205	-18.73169
2.121	-9.16443
2.1215	-5.13611
2.122	-0.30212
2.1225	2.11487
2.123	2.81982
2.1235	-1.91345
2.124	0
2.1245	-2.21558
2.125	-0.10071
2.1255	-1.61133
2.126	-5.0354
2.1265	-1.81274
2.127	-3.62549
2.1275	-2.81982
2.128	-3.12195
2.1285	-4.22974
2.129	-11.68213
2.1295	-5.0354
2.13	2.81982
2.1305	2.61841
2.131	6.14319
2.1315	13.69629
2.132	12.28638
2.1325	9.46655
2.133	14.90479
2.1335	14.90479
2.134	25.177
2.1345	25.57983
2.135	32.02515
2.1355	25.47913
2.136	22.45789
2.1365	20.04089
2.137	22.45789
2.1375	21.45081
2.138	17.6239
2.1385	16.41541
2.139	11.98425
2.1395	10.67505
2.14	5.0354
2.1405	-5.0354
2.141	-10.37292
2.1415	-7.15027
2.142	-10.87646
2.1425	-3.8269
2.143	-10.47363
2.1435	-11.07788
2.144	-11.68213
2.1445	-8.45947
2.145	-7.15027
2.1455	-6.3446
2.146	-3.02124
2.1465	-5.43823
2.147	-8.96301
2.1475	-25.47913
2.148	-33.13293
2.1485	-37.46338
2.149	-39.98108
2.1495	-43.30444
2.15	-38.06763
2.1505	-38.77258
2.151	-44.41223
2.1515	-48.84338
2.152	-50.354
2.1525	-48.74268
2.153	-49.85046
2.1535	-43.70728
2.154	-37.96692
2.1545	-30.41382
2.155	-14.50195
2.1555	-2.11487
2.156	10.97717
2.1565	21.24939
2.157	35.34851
2.1575	46.82922
2.158	58.91418
2.1585	65.56091
2.159	73.91968
2.1595	74.12109
2.16	67.27295
2.1605	62.33826
2.161	52.06604
2.1615	40.98816
2.162	31.52161
2.1625	19.83948
2.163	10.17151
2.1635	2.41699
2.164	-1.81274
2.1645	-9.97009
2.165	-11.07788
2.1655	-10.17151
2.166	-12.08496
2.1665	-11.58142
2.167	-9.06372
2.1675	-10.17151
2.168	-5.43823
2.1685	-2.41699
2.169	-6.64673
2.1695	-3.62549
2.17	-7.5531
2.1705	-5.53894
2.171	-7.75452
2.1715	-9.26514
2.172	-1.91345
2.1725	0.80566
2.173	-3.32336
2.1735	0.20142
2.174	-2.31628
2.1745	-2.01416
2.175	-5.53894
2.1755	-1.2085
2.176	-3.7262
2.1765	-2.31628
2.177	-6.2439
2.1775	-4.22974
2.178	-11.58142
2.1785	-21.45081
2.179	-26.98975
2.1795	-35.95276
2.18	-40.78674
2.1805	-44.41223
2.181	-43.50586
2.1815	-38.87329
2.182	-38.87329
2.1825	-38.06763
2.183	-31.52161
2.1835	-31.32019
2.184	-22.76001
2.1845	-15.40833
2.185	-7.15027
2.1855	5.74036
2.186	17.12036
2.1865	22.45789
2.187	25.98267
2.1875	33.9386
2.188	39.47754
2.1885	47.53418
2.189	51.36108
2.1895	56.79932
2.19	64.05029
2.1905	54.88586
2.191	48.74268
2.1915	40.1825
2.192	39.67896
2.1925	37.66479
2.193	33.63647
2.1935	25.88196
2.194	16.91895
2.1945	11.68213
2.195	2.01416
2.1955	0.80566
2.196	-0.10071
2.1965	-2.5177
2.197	-13.49487
2.1975	-11.78284
2.198	-11.98425
2.1985	-6.44531
2.199	-9.66797
2.1995	-9.97009
2.2	-7.75452
2.2005	-12.89062
2.201	-12.48779
2.2015	-9.66797
2.202	-2.31628
2.2025	1.10779
2.203	0.10071
2.2035	0.30212
2.204	-4.02832
2.2045	-9.86938
2.205	-13.19275
2.2055	-13.39417
2.206	-12.99133
2.2065	-17.42249
2.207	-18.42957
2.2075	-20.54443
2.208	-20.24231
2.2085	-17.32178
2.209	-12.38708
2.2095	-9.46655
2.21	-10.87646
2.2105	-14.90479
2.211	-9.56726
2.2115	0.40283
2.212	1.81274
2.2125	6.14319
2.213	4.22974
2.2135	0.20142
2.214	0.10071
2.2145	-0.60425
2.215	1.10779
2.2155	4.12903
2.216	3.42407
2.2165	-0.80566
2.217	4.63257
2.2175	7.65381
2.218	8.66089
2.2185	4.02832
2.219	0.10071
2.2195	3.8269
2.22	1.71204
2.2205	-2.81982
2.221	-6.3446
2.2215	-16.71753
2.222	-16.61682
2.2225	-23.76709
2.223	-22.05505
2.2235	-18.8324
2.224	-19.43665
2.2245	-19.23523
2.225	-14.30054
2.2255	-14.70337
2.226	-9.06372
2.2265	5.94177
2.227	11.88354
2.2275	19.03381
2.228	19.73877
2.2285	15.40833
2.229	21.65222
2.2295	21.55151
2.23	14.40125
2.2305	18.32886
2.231	14.60266
2.2315	17.01965
2.232	19.23523
2.2325	14.90479
2.233	11.17859
2.2335	-2.21558
2.234	1.00708
2.2345	0.30212
2.235	-3.22266
2.2355	-3.32336
2.236	-11.88354
2.2365	-25.68054
2.237	-32.93152
2.2375	-38.87329
2.238	-51.96533
2.2385	-61.02905
2.239	-56.5979
2.2395	-62.03613
2.24	-59.01489
2.2405	-56.19507
2.241	-57.70569
2.2415	-51.76392
2.242	-53.97949
2.2425	-44.21082
2.243	-34.74426
2.2435	-23.46497
2.244	-12.68921
2.2445	-5.74036
2.245	8.35876
2.2455	24.67346
2.246	40.38391
2.2465	51.76392
2.247	64.151
2.2475	74.72534
2.248	87.11243
2.2485	95.37048
2.249	91.34216
2.2495	91.04004
2.25	98.59314
2.2505	89.73083
2.251	70.29419
2.2515	55.89294
2.252	39.98108
2.2525	31.32019
2.253	12.18567
2.2535	3.62549
2.254	-3.12195
2.2545	-11.17859
2.255	-10.17151
2.2555	-15.40833
2.256	-9.56726
2.2565	-14.40125
2.257	-12.48779
2.2575	-10.37292
2.258	-10.87646
2.2585	-10.87646
2.259	-7.45239
2.2595	-6.2439
2.26	-6.74744
2.2605	-14.40125
2.261	-13.59558
2.2615	-13.59558
2.262	-20.84656
2.2625	-23.26355
2.263	-26.78833
2.2635	-24.06921
2.264	-27.59399
2.2645	-20.74585
2.265	-17.92603
2.2655	-22.15576
2.266	-12.18567
2.2665	-13.39417
2.267	-10.27222
2.2675	-3.7262
2.268	-6.14319
2.2685	-6.64673
2.269	-7.95593
2.2695	1.91345
2.27	2.92053
2.2705	0
2.271	2.92053
2.2715	6.44531
2.272	13.99841
2.2725	8.8623
2.273	11.58142
2.2735	16.3147
2.274	11.78284
2.2745	19.23523
2.275	18.22815
2.2755	17.6239
2.276	13.39417
2.2765	8.05664
2.277	10.27222
2.2775	8.25806
2.278	7.04956
2.2785	-3.8269
2.279	0.20142
2.2795	-2.31628
2.28	-3.52478
2.2805	-6.04248
2.281	-6.3446
2.2815	2.5177
2.282	-2.61841
2.2825	-14.70337
2.283	-13.59558
2.2835	-16.21399
2.284	-10.87646
2.2845	-9.26514
2.285	-7.15027
2.2855	-11.78284
2.286	-10.87646
2.2865	-6.2439
2.287	-9.66797
2.2875	-12.48779
2.288	-9.26514
2.2885	-12.99133
2.289	-2.21558
2.2895	-5.23682
2.29	-6.14319
2.2905	-4.02832
2.291	1.71204
2.2915	9.06372
2.292	3.8269
2.2925	6.44531
2.293	7.35168
2.2935	11.88354
2.294	9.46655
2.2945	10.17151
2.295	4.02832
2.2955	-4.93469
2.296	-11.2793
2.2965	-12.99133
2.297	-16.51611
2.2975	-17.12036
2.298	-8.8623
2.2985	-9.06372
2.299	-5.0354
2.2995	-3.42407
2.3	-4.83398
2.3005	-13.59558
2.301	-12.78992
2.3015	-9.56726
2.302	-4.63257
2.3025	0.30212
2.303	5.0354
2.3035	4.93469
2.304	11.48071
2.3045	11.2793
2.305	18.93311
2.3055	19.63806
2.306	25.78125
2.3065	29.80957
2.307	30.81665
2.3075	23.96851
2.308	22.86072
2.3085	15.91187
2.309	8.25806
2.3095	0.30212
2.31	4.83398
2.3105	2.21558
2.311	2.61841
2.3115	5.43823
2.312	1.2085
2.3125	-0.30212
2.313	-10.17151
2.3135	-11.58142
2.314	-12.89062
2.3145	-19.33594
2.315	-13.49487
2.3155	-14.90479
2.316	-15.71045
2.3165	-15.30762
2.317	-16.11328
2.3175	-13.39417
2.318	-14.09912
2.3185	-17.52319
2.319	-23.26355
2.3195	-18.12744
2.32	-12.68921
2.3205	-20.24231
2.321	-15.91187
2.3215	-17.32178
2.322	-15.1062
2.3225	-14.60266
2.323	-13.29346
2.3235	-7.85522
2.324	-0.40283
2.3245	4.73328
2.325	0.80566
2.3255	5.74036
2.326	9.97009
2.3265	6.94885
2.327	11.07788
2.3275	16.41541
2.328	13.39417
2.3285	19.03381
2.329	16.71753
2.3295	20.24231
2.33	12.5885
2.3305	13.09204
2.331	9.26514
2.3315	14.30054
2.332	8.45947
2.3325	5.63965
2.333	7.35168
2.3335	-2.61841
2.334	-10.17151
2.3345	-10.0708
2.335	-9.86938
2.3355	-5.0354
2.336	-6.64673
2.3365	-6.2439
2.337	-9.66797
2.3375	-11.17859
2.338	-14.80408
2.3385	-12.78992
2.339	-8.7616
2.3395	-6.3446
2.34	-6.3446
2.3405	-3.92761
2.341	-8.56018
2.3415	-6.54602
2.342	1.2085
2.3425	1.10779
2.343	-2.11487
2.3435	-6.74744
2.344	-9.76868
2.3445	-9.26514
2.345	-9.06372
2.3455	-13.19275
2.346	3.62549
2.3465	-1.10779
2.347	3.22266
2.3475	7.65381
2.348	8.15735
2.3485	10.27222
2.349	12.38708
2.3495	18.32886
2.35	12.38708
2.3505	17.72461
2.351	9.06372
2.3515	9.97009
2.352	5.94177
2.3525	5.63965
2.353	7.04956
2.3535	8.05664
2.354	9.86938
2.3545	0
2.355	6.2439
2.3555	-0.10071
2.356	-1.81274
2.3565	-0.90637
2.357	-8.8623
2.3575	-16.01257
2.358	-17.92603
2.3585	-10.77576
2.359	-16.41541
2.3595	-15.50903
2.36	-15.1062
2.3605	-13.89771
2.361	-8.05664
2.3615	4.43115
2.362	5.74036
2.3625	11.68213
2.363	7.5531
2.3635	4.33044
2.364	6.04248
2.3645	8.35876
2.365	0.20142
2.3655	4.83398
2.366	-2.71912
2.3665	-2.41699
2.367	2.61841
2.3675	2.31628
2.368	1.81274
2.3685	4.93469
2.369	3.22266
2.3695	1.00708
2.37	-0.40283
2.3705	-3.32336
2.371	-2.5177
2.3715	2.71912
2.372	3.52478
2.3725	2.61841
2.373	6.14319
2.3735	6.74744
2.374	6.04248
2.3745	5.43823
2.375	4.02832
2.3755	6.84814
2.376	15.20691
2.3765	16.41541
2.377	9.76868
2.3775	5.43823
2.378	-0.90637
2.3785	-12.28638
2.379	-20.64514
2.3795	-31.92444
2.38	-37.16125
2.3805	-38.67188
2.381	-50.15259
2.3815	-50.05188
2.382	-47.93701
2.3825	-48.74268
2.383	-56.69861
2.3835	-51.46179
2.384	-46.82922
2.3845	-42.49878
2.385	-32.02515
2.3855	-31.4209
2.386	-21.75293
2.3865	-11.88354
2.387	-1.91345
2.3875	4.43115
2.388	15.00549
2.3885	22.35718
2.389	36.65771
2.3895	47.43347
2.39	56.19507
2.3905	51.76392
2.391	47.03064
2.3915	51.15967
2.392	49.54834
2.3925	44.81506
2.393	41.29028
2.3935	34.03931
2.394	18.02673
2.3945	11.2793
2.395	7.35168
2.3955	2.81982
2.396	-6.44531
2.3965	-5.74036
2.397	-12.28638
2.3975	-2.92053
2.398	2.31628
2.3985	5.43823
2.399	5.0354
2.3995	6.2439
2.4	8.05664
2.4005	8.96301
2.401	11.2793
2.4015	18.53027
2.402	14.90479
2.4025	18.53027
2.403	18.02673
2.4035	16.61682
2.404	12.08496
2.4045	11.68213
2.405	10.97717
2.4055	12.18567
2.406	14.60266
2.4065	7.25098
2.407	3.42407
2.4075	0.20142
2.408	1.81274
2.4085	1.2085
2.409	1.91345
2.4095	5.33752
2.41	8.25806
2.4105	8.56018
2.411	3.42407
2.4115	3.8269
2.412	-5.53894
2.4125	-1.71204
2.413	-1.10779
2.4135	-3.02124
2.414	0.30212
2.4145	-1.51062
2.415	-4.43115
2.4155	-12.5885
2.416	-12.89062
2.4165	-16.51611
2.417	-18.93311
2.4175	-30.81665
2.418	-29.60815
2.4185	-24.77417
2.419	-16.51611
2.4195	-19.83948
2.42	-21.85364
2.4205	-11.58142
2.421	-8.7616
2.4215	-11.98425
2.422	-5.53894
2.4225	3.62549
2.423	9.46655
2.4235	12.78992
2.424	9.56726
2.4245	7.45239
2.425	17.6239
2.4255	16.81824
2.426	16.71753
2.4265	12.78992
2.427	14.09912
2.4275	14.60266
2.428	13.39417
2.4285	8.45947
2.429	0.80566
2.4295	-5.84106
2.43	-4.02832
2.4305	-5.94177
2.431	-2.5177
2.4315	-1.40991
2.432	-4.33044
2.4325	3.22266
2.433	-2.81982
2.4335	0.10071
2.434	2.5177
2.4345	0.70496
2.435	-2.21558
2.4355	1.91345
2.436	-5.53894
2.4365	-5.94177
2.437	-2.21558
2.4375	0.20142
2.438	-0.50354
2.4385	-6.44531
2.439	-2.92053
2.4395	1.40991
2.44	0.80566
2.4405	0.80566
2.441	2.41699
2.4415	0.40283
2.442	1.2085
2.4425	-2.41699
2.443	-9.36584
2.4435	-6.04248
2.444	-5.23682
2.4445	-2.5177
2.445	-8.96301
2.4455	-10.57434
2.446	-9.76868
2.4465	-12.48779
2.447	-15.40833
2.4475	-18.93311
2.448	-8.7616
2.4485	-10.0708
2.449	-7.85522
2.4495	-6.64673
2.45	-8.8623
2.4505	-7.85522
2.451	-4.22974
2.4515	-3.22266
2.452	1.10779
2.4525	-0.10071
2.453	6.3446
2.4535	4.93469
2.454	8.05664
2.4545	11.88354
2.455	9.86938
2.4555	6.64673
2.456	0.20142
2.4565	-5.23682
2.457	-10.37292
2.4575	-10.47363
2.458	-5.23682
2.4585	-8.7616
2.459	-2.61841
2.4595	-4.83398
2.46	-13.09204
2.4605	-13.49487
2.461	-12.99133
2.4615	-12.89062
2.462	-13.59558
2.4625	-6.84814
2.463	-8.8623
2.4635	-5.84106
2.464	-8.56018
2.4645	-1.61133
2.465	-8.66089
2.4655	-4.93469
2.466	0.70496
2.4665	4.53186
2.467	7.75452
2.4675	6.2439
2.468	8.35876
2.4685	5.33752
2.469	7.35168
2.4695	4.33044
2.47	5.33752
2.4705	-1.00708
2.471	-2.71912
2.4715	-0.40283
2.472	2.81982
2.4725	-0.90637
2.473	-3.52478
2.4735	-4.22974
2.474	-1.3092
2.4745	-6.04248
2.475	-5.94177
2.4755	-7.35168
2.476	-3.92761
2.4765	2.31628
2.477	3.8269
2.4775	3.22266
2.478	7.85522
2.4785	13.99841
2.479	14.80408
2.4795	9.86938
2.48	9.36584
2.4805	9.46655
2.481	5.23682
2.4815	12.18567
2.482	10.77576
2.4825	11.17859
2.483	7.5531
2.4835	8.05664
2.484	1.40991
2.4845	0.40283
2.485	8.66089
2.4855	2.11487
2.486	5.74036
2.4865	8.96301
2.487	9.86938
2.4875	12.89062
2.488	8.15735
2.4885	2.5177
2.489	-3.32336
2.4895	-8.35876
2.49	-7.95593
2.4905	-7.95593
2.491	-8.05664
2.4915	-6.84814
2.492	-13.49487
2.4925	-20.64514
2.493	-16.41541
2.4935	-22.15576
2.494	-25.78125
2.4945	-33.13293
2.495	-29.70886
2.4955	-29.60815
2.496	-25.57983
2.4965	-24.97559
2.497	-21.24939
2.4975	-20.64514
2.498	-24.57275
2.4985	-21.75293
2.499	-14.19983
2.4995	-6.54602
2.5	4.02832
2.5005	11.58142
2.501	16.81824
2.5015	26.28479
2.502	35.04639
2.5025	36.15417
2.503	39.57825
2.5035	44.0094
2.504	43.70728
2.5045	44.81506
2.505	39.17542
2.5055	30.51453
2.506	24.47205
2.5065	19.43665
2.507	8.56018
2.5075	2.92053
2.508	-4.53186
2.5085	-12.38708
2.509	-16.11328
2.5095	-12.78992
2.51	-4.93469
2.5105	-5.53894
2.511	-3.32336
2.5115	3.92761
2.512	1.2085
2.5125	-2.01416
2.513	-0.90637
2.5135	-1.61133
2.514	-2.41699
2.5145	-0.90637
2.515	-4.73328
2.5155	-7.65381
2.516	-3.7262
2.5165	-8.56018
2.517	-7.85522
2.5175	-10.57434
2.518	-5.13611
2.5185	-9.56726
2.519	0.60425
2.5195	-6.44531
2.52	-4.33044
2.5205	-0.40283
2.521	-5.23682
2.5215	-5.33752
2.522	-3.32336
2.5225	-1.61133
2.523	-0.70496
2.5235	1.10779
2.524	5.0354
2.5245	1.40991
2.525	-2.01416
2.5255	1.40991
2.526	1.40991
2.5265	-2.21558
2.527	-3.7262
2.5275	-4.02832
2.528	-2.71912
2.5285	-4.02832
2.529	-3.42407
2.5295	-10.27222
2.53	-9.16443
2.5305	-13.69629
2.531	-9.46655
2.5315	-12.28638
2.532	-10.57434
2.5325	-12.08496
2.533	-2.5177
2.5335	5.43823
2.534	5.23682
2.5345	2.11487
2.535	-1.91345
2.5355	-2.92053
2.536	-4.22974
2.5365	-4.33044
2.537	-1.91345
2.5375	-8.7616
2.538	-7.5531
2.5385	-8.8623
2.539	-7.5531
2.5395	-8.56018
2.54	-6.3446
2.5405	-7.35168
2.541	-10.0708
2.5415	-9.36584
2.542	-4.63257
2.5425	5.13611
2.543	9.76868
2.5435	12.5885
2.544	16.11328
2.5445	9.06372
2.545	12.78992
2.5455	14.90479
2.546	21.75293
2.5465	17.72461
2.547	21.04797
2.5475	11.2793
2.548	6.04248
2.5485	-3.52478
2.549	-2.71912
2.5495	-4.93469
2.55	-10.67505
2.5505	-17.72461
2.551	-21.55151
2.5515	-36.95984
2.552	-33.73718
2.5525	-34.74426
2.553	-25.27771
2.5535	-25.27771
2.554	-23.8678
2.5545	-23.36426
2.555	-20.24231
2.5555	-17.22107
2.556	-9.97009
2.5565	-7.35168
2.557	-3.62549
2.5575	-1.61133
2.558	0.80566
2.5585	7.5531
2.559	9.86938
2.5595	10.67505
2.56	18.53027
2.5605	14.60266
2.561	12.38708
2.5615	23.96851
2.562	23.66638
2.5625	18.8324
2.563	25.177
2.5635	24.16992
2.564	20.04089
2.5645	14.50195
2.565	-1.51062
2.5655	2.21558
2.566	-3.12195
2.5665	-2.01416
2.567	0.20142
2.5675	1.10779
2.568	-6.64673
2.5685	-7.45239
2.569	-13.99841
2.5695	-15.00549
2.57	-10.27222
2.5705	-10.17151
2.571	-6.44531
2.5715	-8.8623
2.572	-12.99133
2.5725	-10.27222
2.573	-6.84814
2.5735	-9.86938
2.574	-5.0354
2.5745	-4.02832
2.575	-8.25806
2.5755	-10.17151
2.576	-16.01257
2.5765	-10.67505
2.577	-15.00549
2.5775	-14.19983
2.578	-17.72461
2.5785	-12.68921
2.579	-16.41541
2.5795	-10.47363
2.58	-9.26514
2.5805	-6.64673
2.581	-3.52478
2.5815	7.65381
2.582	9.16443
2.5825	10.27222
2.583	14.09912
2.5835	16.51611
2.584	18.02673
2.5845	17.6239
2.585	21.04797
2.5855	19.43665
2.586	22.45789
2.5865	15.40833
2.587	14.90479
2.5875	12.48779
2.588	11.58142
2.5885	7.25098
2.589	2.71912
2.5895	4.63257
2.59	0.60425
2.5905	6.74744
2.591	3.92761
2.5915	0.40283
2.592	-8.35876
2.5925	-6.54602
2.593	-3.32336
2.5935	-4.73328
2.594	-4.93469
2.5945	-13.09204
2.595	-6.44531
2.5955	-8.96301
2.596	-12.78992
2.5965	-4.43115
2.597	-7.5531
2.5975	-5.63965
2.598	-14.09912
2.5985	-18.32886
2.599	-16.3147
2.5995	-17.22107
2.6	-16.11328
2.6005	-18.53027
2.601	-14.90479
2.6015	-12.68921
2.602	-10.77576
2.6025	-15.91187
2.603	-13.69629
2.6035	-8.35876
2.604	-11.98425
2.6045	-2.01416
2.605	-0.60425
2.6055	7.15027
2.606	2.21558
2.6065	2.5177
2.607	2.92053
2.6075	1.61133
2.608	5.0354
2.6085	12.99133
2.609	16.41541
2.6095	20.24231
2.61	9.86938
2.6105	5.43823
2.611	-2.41699
2.6115	-11.38
2.612	-13.89771
2.6125	-20.44373
2.613	-27.89612
2.6135	-26.58691
2.614	-22.35718
2.6145	-25.57983
2.615	-14.30054
2.6155	-5.63965
2.616	7.25098
2.6165	19.23523
2.617	31.62231
2.6175	36.4563
2.618	43.50586
2.6185	48.13843
2.619	51.86462
2.6195	50.65613
2.62	44.51294
2.6205	36.85913
2.621	25.177
2.6215	15.40833
2.622	6.64673
2.6225	-4.93469
2.623	-11.07788
2.6235	-12.18567
2.624	-7.45239
2.6245	-3.62549
2.625	-3.12195
2.6255	-5.74036
2.626	-11.07788
2.6265	-11.17859
2.627	-16.61682
2.6275	-18.53027
2.628	-15.00549
2.6285	-15.91187
2.629	-12.89062
2.6295	-18.02673
2.63	-16.3147
2.6305	-16.71753
2.631	-22.05505
2.6315	-24.97559
2.632	-29.00391
2.6325	-31.01807
2.633	-38.36975
2.6335	-34.24072
2.634	-32.52869
2.6345	-35.85205
2.635	-31.92444
2.6355	-24.57275
2.636	-22.45789
2.6365	-8.96301
2.637	2.41699
2.6375	4.63257
2.638	13.19275
2.6385	23.06213
2.639	22.35718
2.6395	25.07629
2.64	28.70178
2.6405	26.48621
2.641	26.28479
2.6415	27.29187
2.642	25.47913
2.6425	15.91187
2.643	13.49487
2.6435	11.48071
2.644	8.7616
2.6445	9.46655
2.645	4.53186
2.6455	11.38
2.646	6.64673
2.6465	4.22974
2.647	-2.31628
2.6475	1.40991
2.648	-4.93469
2.6485	-1.2085
2.649	2.21558
2.6495	6.04248
2.65	7.5531
2.6505	5.23682
2.651	10.97717
2.6515	6.2439
2.652	5.63965
2.6525	5.53894
2.653	8.45947
2.6535	13.59558
2.654	17.6239
2.6545	8.7616
2.655	1.61133
2.6555	-1.71204
2.656	0.20142
2.6565	-3.7262
2.657	-7.95593
2.6575	-13.49487
2.658	-9.56726
2.6585	-8.96301
2.659	-8.45947
2.6595	-8.96301
2.66	-6.3446
2.6605	-4.83398
2.661	-5.33752
2.6615	-3.42407
2.662	-3.7262
2.6625	-7.75452
2.663	-8.7616
2.6635	-14.09912
2.664	-10.37292
2.6645	-4.22974
2.665	2.21558
2.6655	1.81274
2.666	0.50354
2.6665	0.50354
2.667	3.52478
2.6675	1.91345
2.668	-4.22974
2.6685	-5.23682
2.669	-1.71204
2.6695	-7.15027
2.67	-10.57434
2.6705	-12.99133
2.671	-12.89062
2.6715	-10.17151
2.672	-5.0354
2.6725	-9.56726
2.673	-3.7262
2.6735	-6.94885
2.674	-13.797
2.6745	-13.49487
2.675	-14.30054
2.6755	-11.17859
2.676	-5.43823
2.6765	-3.92761
2.677	-4.53186
2.6775	-0.20142
2.678	-9.46655
2.6785	-17.52319
2.679	-22.86072
2.6795	-24.06921
2.68	-29.00391
2.6805	-26.3855
2.681	-30.2124
2.6815	-30.51453
2.682	-32.32727
2.6825	-27.09045
2.683	-26.68762
2.6835	-25.177
2.684	-25.177
2.6845	-17.92603
2.685	-16.61682
2.6855	-7.45239
2.686	-8.7616
2.6865	-2.71912
2.687	4.83398
2.6875	10.27222
2.688	24.67346
2.6885	38.87329
2.689	44.31152
2.6895	43.90869
2.69	58.30994
2.6905	62.53967
2.691	62.43896
2.6915	60.92834
2.692	55.69153
2.6925	51.36108
2.693	39.67896
2.6935	24.67346
2.694	11.48071
2.6945	1.10779
2.695	-7.95593
2.6955	-8.66089
2.696	-13.29346
2.6965	-3.52478
2.697	-9.46655
2.6975	-6.04248
2.698	-3.52478
2.6985	-9.36584
2.699	-12.89062
2.6995	-13.59558
2.7	-8.8623
2.7005	-7.15027
2.701	-8.05664
2.7015	-12.68921
2.702	-16.81824
2.7025	-21.14868
2.703	-26.98975
2.7035	-21.85364
2.704	-28.70178
2.7045	-33.73718
2.705	-29.50745
2.7055	-27.19116
2.706	-19.73877
2.7065	-16.3147
2.707	-16.51611
2.7075	-10.87646
2.708	-9.16443
2.7085	-11.78284
2.709	-5.74036
2.7095	4.43115
2.71	12.48779
2.7105	16.81824
2.711	26.08337
2.7115	35.2478
2.712	41.18958
2.7125	44.21082
2.713	51.86462
2.7135	48.64197
2.714	51.86462
2.7145	44.81506
2.715	39.07471
2.7155	27.6947
2.716	11.2793
2.7165	-5.23682
2.717	-10.37292
2.7175	-19.94019
2.718	-30.41382
2.7185	-20.74585
2.719	-25.68054
2.7195	-26.28479
2.72	-17.92603
2.7205	-19.03381
2.721	-9.76868
2.7215	-13.19275
2.722	-11.68213
2.7225	-4.22974
2.723	0.40283
2.7235	2.61841
2.724	3.52478
2.7245	9.76868
2.725	11.38
2.7255	14.60266
2.726	12.48779
2.7265	7.85522
2.727	16.21399
2.7275	19.03381
2.728	7.75452
2.7285	2.01416
2.729	-2.81982
2.7295	-6.64673
2.73	-10.97717
2.7305	-8.45947
2.731	-15.00549
2.7315	-18.42957
2.732	-10.97717
2.7325	-10.47363
2.733	-20.74585
2.7335	-23.26355
2.734	-20.44373
2.7345	-17.22107
2.735	-21.04797
2.7355	-19.43665
2.736	-21.75293
2.7365	-19.13452
2.737	-16.01257
2.7375	-9.46655
2.738	-1.2085
2.7385	4.02832
2.739	8.8623
2.7395	14.60266
2.74	15.20691
2.7405	16.71753
2.741	16.51611
2.7415	15.81116
2.742	19.23523
2.7425	20.34302
2.743	18.93311
2.7435	9.46655
2.744	7.04956
2.7445	3.42407
2.745	-4.63257
2.7455	-8.56018
2.746	-10.77576
2.7465	-13.797
2.747	-23.26355
2.7475	-27.99683
2.748	-37.36267
2.7485	-44.71436
2.749	-42.19666
2.7495	-46.32568
2.75	-29.20532
2.7505	-22.45789
2.751	-8.8623
2.7515	-5.43823
2.752	8.7616
2.7525	23.66638
2.753	26.3855
2.7535	33.03223
2.754	46.12427
2.7545	46.82922
2.755	49.54834
2.7555	52.06604
2.756	43.10303
2.7565	42.90161
2.757	31.52161
2.7575	26.58691
2.758	24.47205
2.7585	14.70337
2.759	11.88354
2.7595	6.84814
2.76	7.95593
2.7605	10.0708
2.761	12.28638
2.7615	7.85522
2.762	5.0354
2.7625	5.94177
2.763	6.44531
2.7635	4.12903
2.764	10.27222
2.7645	13.99841
2.765	8.7616
2.7655	9.36584
2.766	7.75452
2.7665	2.11487
2.767	8.05664
2.7675	0.80566
2.768	0.90637
2.7685	-4.73328
2.769	-4.53186
2.7695	-6.04248
2.77	-12.48779
2.7705	-8.35876
2.771	-13.99841
2.7715	-18.73169
2.772	-17.32178
2.7725	-19.23523
2.773	-13.59558
2.7735	-10.0708
2.774	-5.84106
2.7745	-7.35168
2.775	-5.13611
2.7755	-7.65381
2.776	-10.37292
2.7765	-9.86938
2.777	-7.35168
2.7775	-10.97717
2.778	-11.2793
2.7785	-2.5177
2.779	-1.2085
2.7795	-0.10071
2.78	1.51062
2.7805	-0.50354
2.781	0.60425
2.7815	0.80566
2.782	-0.30212
2.7825	8.05664
2.783	7.35168
2.7835	5.23682
2.784	-0.30212
2.7845	-3.32336
2.785	-9.26514
2.7855	-14.09912
2.786	-12.18567
2.7865	-12.18567
2.787	-10.17151
2.7875	-4.43115
2.788	-7.5531
2.7885	-3.52478
2.789	-9.97009
2.7895	-7.65381
2.79	-3.7262
2.7905	-2.21558
2.791	3.7262
2.7915	7.45239
2.792	6.3446
2.7925	7.35168
2.793	0.90637
2.7935	5.74036
2.794	8.56018
2.7945	5.0354
2.795	3.02124
2.7955	2.81982
2.796	8.66089
2.7965	4.63257
2.797	3.42407
2.7975	-1.51062
2.798	-4.93469
2.7985	-14.80408
2.799	-23.36426
2.7995	-29.20532
2.8	-39.37683
2.8005	-44.0094
2.801	-41.29028
2.8015	-41.4917
2.802	-41.18958
2.8025	-45.11719
2.803	-37.86621
2.8035	-32.32727
2.804	-20.44373
2.8045	-17.32178
2.805	-11.88354
2.8055	4.33044
2.806	15.40833
2.8065	19.73877
2.807	30.71594
2.8075	31.01807
2.808	42.19666
2.8085	47.53418
2.809	56.5979
2.8095	58.71277
2.81	53.87878
2.8105	48.13843
2.811	35.2478
2.8115	27.79541
2.812	16.21399
2.8125	17.72461
2.813	3.22266
2.8135	-7.45239
2.814	-18.22815
2.8145	-24.87488
2.815	-24.77417
2.8155	-30.11169
2.816	-28.09753
2.8165	-26.28479
2.817	-18.63098
2.8175	-10.47363
2.818	-4.02832
2.8185	4.63257
2.819	8.96301
2.8195	6.3446
2.82	13.49487
2.8205	6.84814
2.821	6.84814
2.8215	7.45239
2.822	7.45239
2.8225	6.94885
2.823	-4.73328
2.8235	-6.3446
2.824	-17.01965
2.8245	-15.30762
2.825	-35.34851
2.8255	-44.0094
2.826	-44.51294
2.8265	-49.0448
2.827	-45.82214
2.8275	-42.7002
2.828	-37.56409
2.8285	-35.65063
2.829	-31.32019
2.8295	-28.70178
2.83	-25.68054
2.8305	-20.44373
2.831	-12.08496
2.8315	-5.23682
2.832	3.42407
2.8325	12.89062
2.833	19.63806
2.8335	23.36426
2.834	39.27612
2.8345	49.0448
2.835	56.29578
2.8355	64.35242
2.836	60.3241
2.8365	57.60498
2.837	59.1156
2.8375	47.93701
2.838	25.07629
2.8385	16.71753
2.839	14.19983
2.8395	11.78284
2.84	4.33044
2.8405	2.01416
2.841	0.50354
2.8415	-7.75452
2.842	-9.76868
2.8425	-6.44531
2.843	-5.94177
2.8435	-6.54602
2.844	-14.70337
2.8445	-11.17859
2.845	-7.85522
2.8455	-5.74036
2.846	-8.66089
2.8465	-5.33752
2.847	-6.2439
2.8475	-13.49487
2.848	-7.04956
2.8485	-1.91345
2.849	-2.11487
2.8495	-7.45239
2.85	-6.2439
2.8505	-9.86938
2.851	-7.04956
2.8515	-7.45239
2.852	-4.83398
2.8525	-3.22266
2.853	-8.7616
2.8535	-11.07788
2.854	-15.20691
2.8545	-14.90479
2.855	-21.3501
2.8555	-10.67505
2.856	-14.19983
2.8565	-10.67505
2.857	-13.19275
2.8575	-11.38
2.858	-6.04248
2.8585	-1.00708
2.859	-3.92761
2.8595	0.30212
2.86	1.3092
2.8605	5.0354
2.861	2.92053
2.8615	1.91345
2.862	5.94177
2.8625	8.15735
2.863	2.81982
2.8635	2.01416
2.864	0.30212
2.8645	0.80566
2.865	4.63257
2.8655	5.0354
2.866	4.73328
2.8665	4.22974
2.867	1.40991
2.8675	-1.00708
2.868	-6.3446
2.8685	0.20142
2.869	-4.53186
2.8695	-3.02124
2.87	-6.84814
2.8705	-7.45239
2.871	-3.52478
2.8715	-2.31628
2.872	-0.20142
2.8725	-0.40283
2.873	4.02832
2.8735	-3.7262
2.874	-11.2793
2.8745	-18.63098
2.875	-12.18567
2.8755	-13.19275
2.876	-14.30054
2.8765	-20.94727
2.877	-21.65222
2.8775	-20.64514
2.878	-14.40125
2.8785	-14.19983
2.879	-8.66089
2.8795	-6.54602
2.88	0.70496
2.8805	5.63965
2.881	4.33044
2.8815	9.76868
2.882	7.65381
2.8825	12.99133
2.883	17.52319
2.8835	19.03381
2.884	18.73169
2.8845	14.30054
2.885	10.67505
2.8855	18.93311
2.886	9.66797
2.8865	9.76868
2.887	10.47363
2.8875	2.81982
2.888	-2.5177
2.8885	-3.42407
2.889	-7.95593
2.8895	-6.04248
2.89	-6.84814
2.8905	-10.0708
2.891	-2.21558
2.8915	-5.84106
2.892	0.20142
2.8925	0
2.893	-6.84814
2.8935	-9.46655
2.894	-8.05664
2.8945	-8.45947
2.895	-6.74744
2.8955	-9.36584
2.896	-5.0354
2.8965	-2.21558
2.897	0.30212
2.8975	5.63965
2.898	4.83398
2.8985	3.02124
2.899	1.40991
2.8995	-1.10779
2.9	4.12903
2.9005	-1.40991
2.901	1.81274
2.9015	1.2085
2.902	2.92053
2.9025	4.73328
2.903	5.23682
2.9035	4.73328
2.904	0.20142
2.9045	7.25098
2.905	4.43115
2.9055	1.71204
2.906	6.2439
2.9065	6.74744
2.907	8.45947
2.9075	4.93469
2.908	-4.02832
2.9085	2.71912
2.909	-4.33044
2.9095	1.91345
2.91	4.43115
2.9105	6.04248
2.911	-3.8269
2.9115	1.3092
2.912	-0.40283
2.9125	-3.22266
2.913	-1.40991
2.9135	-8.66089
2.914	-3.42407
2.9145	-3.02124
2.915	-9.36584
2.9155	-2.01416
2.916	-2.41699
2.9165	-2.01416
2.917	-0.70496
2.9175	2.92053
2.918	-1.00708
2.9185	2.31628
2.919	4.02832
2.9195	-1.2085
2.92	6.54602
2.9205	-0.90637
2.921	1.71204
2.9215	-7.75452
2.922	-13.89771
2.9225	-12.38708
2.923	-8.96301
2.9235	-6.84814
2.924	-6.84814
2.9245	-4.43115
2.925	4.33044
2.9255	1.81274
2.926	0.30212
2.9265	-3.22266
2.927	-6.54602
2.9275	-7.65381
2.928	-6.74744
2.9285	-7.04956
2.929	-11.17859
2.9295	-24.47205
2.93	-19.53735
2.9305	-22.45789
2.931	-19.53735
2.9315	-25.07629
2.932	-21.85364
2.9325	-22.55859
2.933	-15.20691
2.9335	-19.53735
2.934	-19.53735
2.9345	-20.1416
2.935	-16.81824
2.9355	-12.48779
2.936	-8.25806
2.9365	-4.73328
2.937	1.3092
2.9375	11.48071
2.938	16.61682
2.9385	23.76709
2.939	35.14709
2.9395	43.80798
2.94	43.20374
2.9405	49.24622
2.941	51.26038
2.9415	46.42639
2.942	43.40515
2.9425	37.86621
2.943	33.33435
2.9435	16.41541
2.944	15.1062
2.9445	-1.10779
2.945	-5.23682
2.9455	-8.25806
2.946	-5.84106
2.9465	-6.3446
2.947	-5.23682
2.9475	-8.45947
2.948	-7.35168
2.9485	-8.7616
2.949	-1.40991
2.9495	0.30212
2.95	0.30212
2.9505	-5.13611
2.951	-10.87646
2.9515	-22.45789
2.952	-25.88196
2.9525	-27.99683
2.953	-28.29895
2.9535	-26.78833
2.954	-29.80957
2.9545	-36.4563
2.955	-30.01099
2.9555	-36.15417
2.956	-34.24072
2.9565	-27.89612
2.957	-24.67346
2.9575	-21.95435
2.958	-15.50903
2.9585	-1.40991
2.959	4.73328
2.9595	6.04248
2.96	2.81982
2.9605	1.10779
2.961	9.56726
2.9615	13.99841
2.962	15.81116
2.9625	13.99841
2.963	15.71045
2.9635	13.09204
2.964	14.90479
2.9645	12.28638
2.965	21.85364
2.9655	26.3855
2.966	30.91736
2.9665	28.09753
2.967	30.61523
2.9675	24.47205
2.968	16.11328
2.9685	14.60266
2.969	10.67505
2.9695	9.36584
2.97	3.02124
2.9705	2.81982
2.971	4.12903
2.9715	6.04248
2.972	6.54602
2.9725	0.80566
2.973	3.22266
2.9735	-3.02124
2.974	4.02832
2.9745	1.00708
2.975	-2.81982
2.9755	1.3092
2.976	5.23682
2.9765	9.26514
2.977	6.3446
2.9775	5.84106
2.978	6.74744
2.9785	7.85522
2.979	8.25806
2.9795	12.28638
2.98	9.56726
2.9805	11.38
2.981	6.14319
2.9815	0
2.982	5.74036
2.9825	5.63965
2.983	3.62549
2.9835	4.63257
2.984	0.50354
2.9845	-2.11487
2.985	-10.87646
2.9855	-15.91187
2.986	-24.67346
2.9865	-23.76709
2.987	-19.63806
2.9875	-23.56567
2.988	-14.80408
2.9885	-19.94019
2.989	-16.91895
2.9895	-20.04089
2.99	-21.24939
2.9905	-19.23523
2.991	-15.40833
2.9915	-7.15027
2.992	-5.23682
2.9925	2.11487
2.993	14.09912
2.9935	11.17859
2.994	10.57434
2.9945	3.12195
2.995	6.64673
2.9955	0.50354
2.996	-5.13611
2.9965	-2.71912
2.997	-1.71204
2.9975	-2.81982
2.998	0.60425
2.9985	-2.11487
2.999	-5.53894
2.9995	-2.5177
3	-11.17859
3.0005	-7.45239
3.001	-5.33752
3.0015	-8.05664
3.002	2.41699
3.0025	0.10071
3.003	-4.43115
3.0035	5.13611
3.004	6.64673
3.0045	2.61841
3.005	5.13611
3.0055	10.0708
3.006	6.2439
3.0065	3.7262
3.007	-2.92053
3.0075	-3.52478
3.008	-6.84814
3.0085	-1.2085
3.009	-7.75452
3.0095	-9.26514
3.01	-5.53894
3.0105	-7.75452
3.011	-12.89062
3.0115	-6.64673
3.012	-4.53186
3.0125	-6.84814
3.013	3.42407
3.0135	6.2439
3.014	4.93469
3.0145	10.37292
3.015	1.71204
3.0155	-2.92053
3.016	-6.54602
3.0165	-5.0354
3.017	-9.86938
3.0175	-15.40833
3.018	-17.6239
3.0185	-18.63098
3.019	-14.40125
3.0195	-17.92603
3.02	-24.57275
3.0205	-30.61523
3.021	-34.74426
3.0215	-32.62939
3.022	-33.73718
3.0225	-23.96851
3.023	-15.00549
3.0235	-6.04248
3.024	7.04956
3.0245	19.73877
3.025	28.70178
3.0255	39.98108
3.026	48.54126
3.0265	62.9425
3.027	67.17224
3.0275	69.99207
3.028	67.8772
3.0285	58.81348
3.029	49.34692
3.0295	32.93152
3.03	34.34143
3.0305	25.37842
3.031	10.67505
3.0315	1.91345
3.032	-2.81982
3.0325	-17.22107
3.033	-22.76001
3.0335	-24.06921
3.034	-17.72461
3.0345	-14.90479
3.035	-13.39417
3.0355	-4.73328
3.036	-4.63257
3.0365	-7.65381
3.037	-9.76868
3.0375	-10.0708
3.038	-12.08496
3.0385	-14.40125
3.039	-12.48779
3.0395	-16.51611
3.04	-21.45081
3.0405	-22.96143
3.041	-19.83948
3.0415	-25.68054
3.042	-28.29895
3.0425	-23.8678
3.043	-24.27063
3.0435	-19.23523
3.044	-10.77576
3.0445	-5.63965
3.045	-15.91187
3.0455	-11.58142
3.046	-11.58142
3.0465	-1.00708
3.047	0.60425
3.0475	8.05664
3.048	13.99841
3.0485	15.60974
3.049	15.91187
3.0495	21.14868
3.05	17.72461
3.0505	20.54443
3.051	17.82532
3.0515	14.30054
3.052	17.6239
3.0525	8.7616
3.053	8.66089
3.0535	7.75452
3.054	3.92761
3.0545	-2.01416
3.055	-2.21558
3.0555	-4.12903
3.056	-7.95593
3.0565	-14.90479
3.057	-25.07629
3.0575	-29.10461
3.058	-34.84497
3.0585	-36.15417
3.059	-32.02515
3.0595	-24.47205
3.06	-22.86072
3.0605	-15.50903
3.061	-20.54443
3.0615	-18.32886
3.062	-13.69629
3.0625	-11.68213
3.063	-4.02832
3.0635	-6.2439
3.064	0.70496
3.0645	4.43115
3.065	6.14319
3.0655	5.84106
3.066	9.97009
3.0665	12.28638
3.067	14.60266
3.0675	27.19116
3.068	23.56567
3.0685	29.10461
3.069	30.61523
3.0695	23.36426
3.07	20.54443
3.0705	22.86072
3.071	22.15576
3.0715	15.50903
3.072	13.39417
3.0725	14.30054
3.073	16.3147
3.0735	12.5885
3.074	1.61133
3.0745	-4.33044
3.075	-8.56018
3.0755	-20.1416
3.076	-19.03381
3.0765	-15.91187
3.077	-20.44373
3.0775	-24.57275
3.078	-27.09045
3.0785	-28.9032
3.079	-25.47913
3.0795	-20.54443
3.08	-11.78284
3.0805	-1.40991
3.081	5.43823
3.0815	20.1416
3.082	21.95435
3.0825	23.06213
3.083	24.57275
3.0835	22.55859
3.084	25.07629
3.0845	19.63806
3.085	25.47913
3.0855	20.94727
3.086	27.39258
3.0865	28.09753
3.087	24.47205
3.0875	22.6593
3.088	18.63098
3.0885	6.2439
3.089	-0.80566
3.0895	-8.7616
3.09	1.10779
3.0905	0.10071
3.091	6.64673
3.0915	4.53186
3.092	2.11487
3.0925	-12.48779
3.093	-26.98975
3.0935	-33.13293
3.094	-37.46338
3.0945	-31.01807
3.095	-25.57983
3.0955	-25.98267
3.096	-27.39258
3.0965	-27.49329
3.097	-27.39258
3.0975	-30.11169
3.098	-28.70178
3.0985	-30.81665
3.099	-29.20532
3.0995	-31.32019
3.1	-27.39258
3.1005	-20.64514
3.101	-5.84106
3.1015	4.53186
3.102	10.37292
3.1025	16.11328
3.103	34.54285
3.1035	34.24072
3.104	35.95276
3.1045	35.75134
3.105	34.74426
3.1055	23.16284
3.106	6.14319
3.1065	0.90637
3.107	-4.02832
3.1075	-13.59558
3.108	-13.59558
3.1085	-16.71753
3.109	-12.18567
3.1095	-5.84106
3.11	0.30212
3.1105	-1.00708
3.111	7.5531
3.1115	9.36584
3.112	21.65222
3.1125	22.76001
3.113	19.83948
3.1135	10.37292
3.114	10.37292
3.1145	5.0354
3.115	3.92761
3.1155	-1.3092
3.116	-1.91345
3.1165	-8.45947
3.117	-1.3092
3.1175	0.40283
3.118	-4.63257
3.1185	-6.04248
3.119	-0.70496
3.1195	-5.74036
3.12	2.92053
3.1205	-0.40283
3.121	7.35168
3.1215	4.53186
3.122	4.53186
3.1225	6.3446
3.123	6.74744
3.1235	6.04248
3.124	7.5531
3.1245	1.40991
3.125	7.65381
3.1255	10.67505
3.126	10.57434
3.1265	7.75452
3.127	-0.40283
3.1275	-10.37292
3.128	-23.26355
3.1285	-35.44922
3.129	-34.14001
3.1295	-23.26355
3.13	-26.58691
3.1305	-25.68054
3.131	-22.86072
3.1315	-25.57983
3.132	-23.06213
3.1325	-15.1062
3.133	-7.95593
3.1335	-3.92761
3.134	3.32336
3.1345	7.5531
3.135	9.36584
3.1355	6.2439
3.136	5.23682
3.1365	4.43115
3.137	10.57434
3.1375	19.23523
3.138	21.95435
3.1385	22.76001
3.139	29.20532
3.1395	25.07629
3.14	24.87488
3.1405	14.50195
3.141	13.09204
3.1415	10.77576
3.142	2.71912
3.1425	-10.47363
3.143	-19.73877
3.1435	-25.177
3.144	-18.12744
3.1445	-12.48779
3.145	-4.83398
3.1455	5.23682
3.146	7.15027
3.1465	12.78992
3.147	15.40833
3.1475	11.48071
3.148	11.78284
3.1485	9.97009
3.149	1.10779
3.1495	-2.11487
3.15	-2.61841
3.1505	-1.61133
3.151	-6.14319
3.1515	-5.94177
3.152	-10.17151
3.1525	-17.01965
3.153	-14.40125
3.1535	-10.37292
3.154	-5.94177
3.1545	-21.14868
3.155	-35.54993
3.1555	-36.35559
3.156	-40.78674
3.1565	-52.36816
3.157	-46.62781
3.1575	-41.79382
3.158	-34.14001
3.1585	-29.60815
3.159	-21.04797
3.1595	-12.68921
3.16	-21.3501
3.1605	-28.80249
3.161	-15.60974
3.1615	0
3.162	5.23682
3.1625	23.06213
3.163	25.37842
3.1635	32.02515
3.164	39.37683
3.1645	47.63489
3.165	51.5625
3.1655	58.51135
3.166	67.67578
3.1665	71.90552
3.167	67.37366
3.1675	64.95667
3.168	69.58923
3.1685	63.24463
3.169	54.18091
3.1695	43.10303
3.17	30.51453
3.1705	12.99133
3.171	6.74744
3.1715	-2.01416
3.172	-10.57434
3.1725	-17.32178
3.173	-15.30762
3.1735	-19.53735
3.174	-15.00549
3.1745	-20.44373
3.175	-27.29187
3.1755	-29.00391
3.176	-24.06921
3.1765	-19.73877
3.177	-13.09204
3.1775	-9.26514
3.178	-4.83398
3.1785	-1.40991
3.179	0.90637
3.1795	4.02832
3.18	4.02832
3.1805	6.54602
3.181	2.61841
3.1815	3.8269
3.182	4.33044
3.1825	-4.43115
3.183	-7.15027
3.1835	-10.27222
3.184	-6.74744
3.1845	-5.43823
3.185	-11.2793
3.1855	-7.75452
3.186	-15.40833
3.1865	-15.81116
3.187	-19.94019
3.1875	-19.33594
3.188	-21.65222
3.1885	-22.86072
3.189	-22.55859
3.1895	-22.55859
3.19	-25.88196
3.1905	-22.55859
3.191	-23.66638
3.1915	-16.91895
3.192	-8.56018
3.1925	-7.85522
3.193	-8.96301
3.1935	-4.73328
3.194	-4.73328
3.1945	-6.54602
3.195	2.81982
3.1955	0.50354
3.196	1.81274
3.1965	5.63965
3.197	-0.50354
3.1975	1.00708
3.198	-0.90637
3.1985	11.98425
3.199	16.3147
3.1995	20.64514
3.2	20.74585
3.2005	16.41541
3.201	19.53735
3.2015	18.63098
3.202	20.24231
3.2025	13.39417
3.203	18.63098
3.2035	15.71045
3.204	8.05664
3.2045	1.10779
3.205	-9.76868
3.2055	-9.97009
3.206	-16.71753
3.2065	-15.00549
3.207	-16.71753
3.2075	-14.90479
3.208	-21.45081
3.2085	-15.71045
3.209	-21.04797
3.2095	-23.56567
3.21	-16.71753
3.2105	-19.13452
3.211	-19.63806
3.2115	-11.58142
3.212	-9.97009
3.2125	-11.48071
3.213	-7.35168
3.2135	-1.81274
3.214	0.90637
3.2145	10.77576
3.215	12.89062
3.2155	18.8324
3.216	24.16992
3.2165	28.19824
3.217	34.44214
3.2175	28.70178
3.218	22.6593
3.2185	20.04089
3.219	22.6593
3.2195	18.42957
3.22	15.30762
3.2205	11.98425
3.221	5.23682
3.2215	-3.42407
3.222	-3.02124
3.2225	-2.01416
3.223	-3.92761
3.2235	-1.81274
3.224	-9.06372
3.2245	-6.54602
3.225	-10.57434
3.2255	-10.97717
3.226	-10.0708
3.2265	-10.97717
3.227	-10.0708
3.2275	-15.50903
3.228	-19.53735
3.2285	-23.16284
3.229	-25.88196
3.2295	-26.78833
3.23	-33.73718
3.2305	-33.83789
3.231	-31.62231
3.2315	-33.33435
3.232	-46.92993
3.2325	-39.17542
3.233	-46.32568
3.2335	-42.39807
3.234	-38.974
3.2345	-32.22656
3.235	-28.39966
3.2355	-22.25647
3.236	-19.13452
3.2365	-7.04956
3.237	-5.43823
3.2375	2.11487
3.238	12.38708
3.2385	18.73169
3.239	25.88196
3.2395	30.71594
3.24	36.55701
3.2405	37.16125
3.241	33.53577
3.2415	24.87488
3.242	29.50745
3.2425	27.89612
3.243	29.50745
3.2435	35.04639
3.244	45.01648
3.2445	44.21082
3.245	46.82922
3.2455	50.65613
3.246	44.51294
3.2465	40.68604
3.247	32.42798
3.2475	18.8324
3.248	15.40833
3.2485	4.43115
3.249	-0.70496
3.2495	-7.5531
3.25	-7.85522
3.2505	-13.797
3.251	-15.30762
3.2515	-17.52319
3.252	-21.14868
3.2525	-22.96143
3.253	-18.53027
3.2535	-25.37842
3.254	-16.91895
3.2545	-15.40833
3.255	-7.85522
3.2555	-8.35876
3.256	-5.23682
3.2565	-2.5177
3.257	-2.21558
3.2575	4.43115
3.258	3.42407
3.2585	5.0354
3.259	10.27222
3.2595	16.11328
3.26	10.57434
3.2605	10.37292
3.261	5.94177
3.2615	6.94885
3.262	-0.20142
3.2625	-2.92053
3.263	4.63257
3.2635	-5.63965
3.264	-12.89062
3.2645	-25.07629
3.265	-34.54285
3.2655	-39.27612
3.266	-38.36975
3.2665	-36.65771
3.267	-37.06055
3.2675	-36.55701
3.268	-39.98108
3.2685	-36.65771
3.269	-36.95984
3.2695	-28.70178
3.27	-28.80249
3.2705	-16.51611
3.271	-10.87646
3.2715	-5.74036
3.272	2.01416
3.2725	16.11328
3.273	24.87488
3.2735	27.29187
3.274	32.02515
3.2745	34.94568
3.275	35.85205
3.2755	35.34851
3.276	38.16833
3.2765	39.27612
3.277	24.87488
3.2775	20.34302
3.278	9.86938
3.2785	0.80566
3.279	0.30212
3.2795	-9.97009
3.28	-9.16443
3.2805	-18.63098
3.281	-12.18567
3.2815	-6.84814
3.282	-2.21558
3.2825	0.20142
3.283	3.02124
3.2835	2.71912
3.284	9.76868
3.2845	12.48779
3.285	15.71045
3.2855	21.55151
3.286	14.50195
3.2865	10.0708
3.287	12.48779
3.2875	9.76868
3.288	2.01416
3.2885	-1.10779
3.289	-15.71045
3.2895	-12.78992
3.29	-21.3501
3.2905	-28.09753
3.291	-30.41382
3.2915	-34.54285
3.292	-33.53577
3.2925	-31.92444
3.293	-28.60107
3.2935	-24.67346
3.294	-21.45081
3.2945	-17.82532
3.295	-23.16284
3.2955	-13.99841
3.296	-7.95593
3.2965	-7.35168
3.297	-4.53186
3.2975	2.21558
3.298	0.70496
3.2985	1.61133
3.299	7.75452
3.2995	15.40833
3.3	14.70337
3.3005	20.44373
3.301	14.19983
3.3015	15.30762
3.302	12.68921
3.3025	9.46655
3.303	5.53894
3.3035	2.92053
3.304	0.80566
3.3045	1.91345
3.305	-1.91345
3.3055	-2.71912
3.306	-2.92053
3.3065	-0.80566
3.307	-6.2439
3.3075	-7.35168
3.308	-4.43115
3.3085	1.40991
3.309	-7.04956
3.3095	-10.67505
3.31	-10.87646
3.3105	-20.1416
3.311	-19.23523
3.3115	-15.60974
3.312	-25.78125
3.3125	-27.39258
3.313	-27.49329
3.3135	-22.05505
3.314	-22.05505
3.3145	-22.35718
3.315	-24.77417
3.3155	-18.63098
3.316	-5.84106
3.3165	-6.54602
3.317	-1.61133
3.3175	7.75452
3.318	13.89771
3.3185	19.83948
3.319	33.13293
3.3195	40.68604
3.32	45.2179
3.3205	55.69153
3.321	54.88586
3.3215	53.57666
3.322	49.85046
3.3225	41.79382
3.323	24.16992
3.3235	17.22107
3.324	10.67505
3.3245	4.53186
3.325	-6.94885
3.3255	-4.53186
3.326	-1.3092
3.3265	-4.12903
3.327	-13.19275
3.3275	-16.91895
3.328	-18.02673
3.3285	-17.92603
3.329	-18.22815
3.3295	-10.37292
3.33	-21.95435
3.3305	-16.91895
3.331	-20.54443
3.3315	-15.1062
3.332	-16.11328
3.3325	-11.78284
3.333	-0.60425
3.3335	-0.40283
3.334	-0.90637
3.3345	-3.42407
3.335	0.80566
3.3355	2.01416
3.336	1.2085
3.3365	-2.01416
3.337	-3.32336
3.3375	-2.21558
3.338	-4.02832
3.3385	-0.60425
3.339	4.22974
3.3395	1.61133
3.34	0.10071
3.3405	-3.92761
3.341	-2.21558
3.3415	-0.40283
3.342	0.80566
3.3425	7.65381
3.343	11.07788
3.3435	13.29346
3.344	11.98425
3.3445	3.22266
3.345	1.40991
3.3455	5.53894
3.346	11.07788
3.3465	12.28638
3.347	4.63257
3.3475	10.57434
3.348	2.11487
3.3485	2.81982
3.349	2.31628
3.3495	6.84814
3.35	4.12903
3.3505	-0.90637
3.351	-11.98425
3.3515	-7.35168
3.352	-12.5885
3.3525	-9.56726
3.353	-13.797
3.3535	-10.57434
3.354	-10.17151
3.3545	-7.85522
3.355	-12.48779
3.3555	-15.30762
3.356	-12.89062
3.3565	-14.50195
3.357	-17.82532
3.3575	-14.90479
3.358	-10.27222
3.3585	-11.48071
3.359	-6.2439
3.3595	-32.83081
3.36	-56.79932
3.3605	-71.60339
3.361	-75.02747
3.3615	-75.32959
3.362	-72.40906
3.3625	-76.23596
3.363	-68.88428
3.3635	-51.26038
3.364	-31.72302
3.3645	-15.71045
3.365	0.90637
3.3655	17.92603
3.366	30.91736
3.3665	31.82373
3.367	26.28479
3.3675	24.16992
3.368	16.11328
3.3685	8.96301
3.369	-4.12903
3.3695	-23.46497
3.37	-46.72852
3.3705	-58.71277
3.371	-61.53259
3.3715	-51.15967
3.372	-33.43506
3.3725	-15.20691
3.373	1.91345
3.3735	12.18567
3.374	31.11877
3.3745	36.65771
3.375	50.354
3.3755	56.69861
3.376	63.24463
3.3765	71.50269
3.377	70.59631
3.3775	71.60339
3.378	69.99207
3.3785	75.12817
3.379	68.98499
3.3795	54.78516
3.38	49.44763
3.3805	44.61365
3.381	31.21948
3.3815	27.49329
3.382	19.83948
3.3825	7.95593
3.383	2.31628
3.3835	-2.41699
3.384	-3.02124
3.3845	-6.44531
3.385	-9.66797
3.3855	-7.15027
3.386	-11.58142
3.3865	-11.48071
3.387	-10.17151
3.3875	-6.3446
3.388	-1.00708
3.3885	1.71204
3.389	0.50354
3.3895	7.95593
3.39	12.38708
3.3905	11.58142
3.391	14.19983
3.3915	6.74744
3.392	7.35168
3.3925	4.22974
3.393	-0.60425
3.3935	-6.04248
3.394	-6.64673
3.3945	-11.38
3.395	-26.88904
3.3955	-24.37134
3.396	-24.87488
3.3965	-22.6593
3.397	-32.32727
3.3975	-30.61523
3.398	-27.09045
3.3985	-30.61523
3.399	-38.974
3.3995	-33.43506
3.4	-32.7301
3.4005	-18.22815
3.401	-8.35876
3.4015	-3.52478
3.402	0.90637
3.4025	7.5531
3.403	22.45789
3.4035	29.00391
3.404	34.24072
3.4045	35.85205
3.405	36.75842
3.4055	24.57275
3.406	23.46497
3.4065	21.85364
3.407	14.80408
3.4075	7.25098
3.408	-0.60425
3.4085	-14.30054
3.409	-16.61682
3.4095	-20.44373
3.41	-18.63098
3.4105	-15.40833
3.411	-11.38
3.4115	-7.45239
3.412	-6.84814
3.4125	-1.2085
3.413	3.92761
3.4135	5.13611
3.414	8.7616
3.4145	10.97717
3.415	18.53027
3.4155	17.92603
3.416	15.91187
3.4165	15.60974
3.417	12.38708
3.4175	12.28638
3.418	6.84814
3.4185	1.91345
3.419	8.05664
3.4195	7.25098
3.42	8.56018
3.4205	12.08496
3.421	9.86938
3.4215	5.23682
3.422	-5.94177
3.4225	-8.96301
3.423	-9.36584
3.4235	-18.93311
3.424	-14.80408
3.4245	-21.95435
3.425	-16.01257
3.4255	-19.03381
3.426	-13.19275
3.4265	-15.20691
3.427	-12.18567
3.4275	-9.36584
3.428	-16.51611
3.4285	-17.82532
3.429	-20.34302
3.4295	-17.22107
3.43	-15.60974
3.4305	-15.81116
3.431	-19.94019
3.4315	-25.07629
3.432	-27.19116
3.4325	-28.9032
3.433	-32.02515
3.4335	-31.32019
3.434	-24.37134
3.4345	-26.78833
3.435	-25.78125
3.4355	-26.78833
3.436	-31.11877
3.4365	-24.77417
3.437	-25.68054
3.4375	-14.40125
3.438	-11.17859
3.4385	-10.47363
3.439	4.02832
3.4395	5.74036
3.44	22.45789
3.4405	27.19116
3.441	26.28479
3.4415	29.40674
3.442	41.4917
3.4425	43.10303
3.443	50.75684
3.4435	59.31702
3.444	49.85046
3.4445	40.58533
3.445	36.55701
3.4455	34.64355
3.446	26.88904
3.4465	22.76001
3.447	19.33594
3.4475	8.66089
3.448	4.53186
3.4485	-3.7262
3.449	-12.38708
3.4495	-11.98425
3.45	-6.14319
3.4505	-5.43823
3.451	-5.94177
3.4515	-6.04248
3.452	-9.76868
3.4525	-5.13611
3.453	3.52478
3.4535	-1.40991
3.454	-3.02124
3.4545	-1.51062
3.455	-3.8269
3.4555	-10.97717
3.456	-11.17859
3.4565	-12.48779
3.457	-11.68213
3.4575	-11.88354
3.458	-9.66797
3.4585	-9.36584
3.459	-14.40125
3.4595	-8.7616
3.46	-2.5177
3.4605	-2.11487
3.461	-5.23682
3.4615	-3.92761
3.462	-3.8269
3.4625	-1.40991
3.463	-3.8269
3.4635	-6.04248
3.464	-2.01416
3.4645	-5.53894
3.465	-8.66089
3.4655	-6.74744
3.466	-4.43115
3.4665	-1.91345
3.467	2.01416
3.4675	0
3.468	0
3.4685	-2.11487
3.469	-8.05664
3.4695	-9.86938
3.47	-10.87646
3.4705	-13.89771
3.471	-7.15027
3.4715	-9.76868
3.472	-11.68213
3.4725	-13.29346
3.473	-11.48071
3.4735	-11.2793
3.474	-17.32178
3.4745	-11.88354
3.475	-11.88354
3.4755	-7.65381
3.476	-12.99133
3.4765	-10.57434
3.477	-4.22974
3.4775	-7.5531
3.478	-8.25806
3.4785	1.71204
3.479	7.95593
3.4795	10.27222
3.48	12.38708
3.4805	22.76001
3.481	24.67346
3.4815	30.11169
3.482	37.36267
3.4825	29.80957
3.483	31.32019
3.4835	28.60107
3.484	27.49329
3.4845	20.34302
3.485	12.28638
3.4855	0.40283
3.486	-6.04248
3.4865	-13.89771
3.487	-14.50195
3.4875	-20.24231
3.488	-14.09912
3.4885	-25.27771
3.489	-28.60107
3.4895	-28.29895
3.49	-20.04089
3.4905	-22.55859
3.491	-17.42249
3.4915	-9.97009
3.492	-0.50354
3.4925	2.5177
3.493	9.56726
3.4935	15.91187
3.494	24.67346
3.4945	27.59399
3.495	30.61523
3.4955	26.18408
3.496	29.20532
3.4965	31.82373
3.497	28.80249
3.4975	30.2124
3.498	32.32727
3.4985	24.77417
3.499	21.95435
3.4995	16.51611
3.5	5.53894
3.5005	-0.70496
3.501	-8.7616
3.5015	-11.38
3.502	-3.02124
3.5025	3.62549
3.503	1.51062
3.5035	3.92761
3.504	14.60266
3.5045	13.59558
3.505	15.91187
3.5055	15.1062
3.506	13.09204
3.5065	11.38
3.507	7.15027
3.5075	7.04956
3.508	6.2439
3.5085	0.70496
3.509	1.51062
3.5095	-1.61133
3.51	-0.60425
3.5105	-6.64673
3.511	-20.64514
3.5115	-23.66638
3.512	-22.45789
3.5125	-23.8678
3.513	-24.77417
3.5135	-27.09045
3.514	-30.01099
3.5145	-32.62939
3.515	-31.72302
3.5155	-28.60107
3.516	-23.66638
3.5165	-25.88196
3.517	-19.94019
3.5175	-11.07788
3.518	-12.08496
3.5185	-8.7616
3.519	-7.35168
3.5195	-2.21558
3.52	1.91345
3.5205	8.96301
3.521	15.30762
3.5215	27.99683
3.522	30.11169
3.5225	29.50745
3.523	20.54443
3.5235	17.82532
3.524	11.38
3.5245	4.02832
3.525	2.71912
3.5255	-0.60425
3.526	-7.15027
3.5265	-13.29346
3.527	-21.14868
3.5275	-17.52319
3.528	-13.59558
3.5285	-3.52478
3.529	10.27222
3.5295	13.99841
3.53	18.73169
3.5305	21.24939
3.531	17.82532
3.5315	14.50195
3.532	10.67505
3.5325	7.45239
3.533	9.86938
3.5335	5.63965
3.534	12.28638
3.5345	9.26514
3.535	8.56018
3.5355	-1.51062
3.536	-5.13611
3.5365	-1.51062
3.537	-11.58142
3.5375	-15.20691
3.538	-17.82532
3.5385	-21.95435
3.539	-14.19983
3.5395	-1.91345
3.54	-5.0354
3.5405	-11.07788
3.541	-1.61133
3.5415	0.50354
3.542	2.41699
3.5425	2.81982
3.543	-5.0354
3.5435	-5.74036
3.544	-5.84106
3.5445	-0.70496
3.545	1.00708
3.5455	-3.7262
3.546	-1.2085
3.5465	-5.13611
3.547	-7.65381
3.5475	-0.50354
3.548	-2.01416
3.5485	3.02124
3.549	-1.61133
3.5495	-1.71204
3.55	0.80566
3.5505	-4.33044
3.551	-5.74036
3.5515	-6.3446
3.552	-2.5177
3.5525	-9.66797
3.553	-5.0354
3.5535	-7.65381
3.554	-2.81982
3.5545	1.2085
3.555	5.74036
3.5555	9.76868
3.556	14.09912
3.5565	11.17859
3.557	9.76868
3.5575	7.5531
3.558	1.61133
3.5585	2.61841
3.559	-0.40283
3.5595	2.81982
3.56	9.56726
3.5605	9.86938
3.561	14.80408
3.5615	9.16443
3.562	8.45947
3.5625	5.43823
3.563	-4.73328
3.5635	-12.5885
3.564	-15.81116
3.5645	-16.11328
3.565	-9.97009
3.5655	-11.58142
3.566	-9.86938
3.5665	-10.37292
3.567	-7.45239
3.5675	-4.93469
3.568	-9.06372
3.5685	-8.05664
3.569	-8.7616
3.5695	-9.26514
3.57	-15.00549
3.5705	-15.91187
3.571	-20.64514
3.5715	-22.76001
3.572	-27.49329
3.5725	-23.46497
3.573	-24.37134
3.5735	-23.96851
3.574	-29.50745
3.5745	-28.60107
3.575	-26.88904
3.5755	-29.20532
3.576	-37.36267
3.5765	-37.16125
3.577	-37.06055
3.5775	-23.66638
3.578	-26.48621
3.5785	-23.06213
3.579	-15.81116
3.5795	-3.8269
3.58	4.43115
3.5805	22.45789
3.581	28.50037
3.5815	36.25488
3.582	28.39966
3.5825	28.60107
3.583	31.4209
3.5835	27.19116
3.584	31.01807
3.5845	24.27063
3.585	22.76001
3.5855	19.23523
3.586	17.52319
3.5865	20.34302
3.587	28.80249
3.5875	26.68762
3.588	28.09753
3.5885	30.91736
3.589	27.6947
3.5895	32.52869
3.59	29.60815
3.5905	22.55859
3.591	5.84106
3.5915	6.44531
3.592	6.64673
3.5925	11.17859
3.593	12.78992
3.5935	8.8623
3.594	9.36584
3.5945	6.74744
3.595	5.74036
3.5955	8.15735
3.596	2.31628
3.5965	-7.45239
3.597	-4.83398
3.5975	-3.42407
3.598	-7.65381
3.5985	-14.70337
3.599	-17.92603
3.5995	-15.81116
3.6	-21.85364
3.6005	-9.16443
3.601	-15.50903
3.6015	-13.39417
3.602	-6.84814
3.6025	-9.36584
3.603	-2.21558
3.6035	-8.56018
3.604	-1.2085
3.6045	-4.93469
3.605	-2.61841
3.6055	0.70496
3.606	2.31628
3.6065	1.00708
3.607	0
3.6075	-1.91345
3.608	-3.62549
3.6085	-4.43115
3.609	-5.0354
3.6095	-8.05664
3.61	-0.40283
3.6105	-0.20142
3.611	-2.5177
3.6115	-7.85522
3.612	-6.54602
3.6125	-10.57434
3.613	-12.08496
3.6135	-9.46655
3.614	-10.0708
3.6145	-9.66797
3.615	-1.61133
3.6155	1.51062
3.616	6.14319
3.6165	2.61841
3.617	2.41699
3.6175	7.15027
3.618	6.54602
3.6185	0.80566
3.619	-5.74036
3.6195	-0.60425
3.62	3.42407
3.6205	-3.62549
3.621	0.60425
3.6215	-1.51062
3.622	0.50354
3.6225	-3.8269
3.623	-9.46655
3.6235	-7.85522
3.624	-7.95593
3.6245	-12.5885
3.625	-8.15735
3.6255	-16.01257
3.626	-16.21399
3.6265	-13.49487
3.627	-14.09912
3.6275	-12.48779
3.628	-12.18567
3.6285	-10.37292
3.629	-13.09204
3.6295	-10.47363
3.63	-10.17151
3.6305	-7.85522
3.631	-10.47363
3.6315	-9.26514
3.632	-0.90637
3.6325	1.71204
3.633	6.94885
3.6335	7.35168
3.634	11.98425
3.6345	15.91187
3.635	19.94019
3.6355	20.04089
3.636	16.91895
3.6365	19.83948
3.637	12.38708
3.6375	15.81116
3.638	10.17151
3.6385	7.75452
3.639	5.94177
3.6395	-0.50354
3.64	4.53186
3.6405	2.41699
3.641	3.8269
3.6415	8.05664
3.642	5.94177
3.6425	10.0708
3.643	4.33044
3.6435	0.10071
3.644	-2.81982
3.6445	-5.23682
3.645	1.40991
3.6455	-4.33044
3.646	-7.35168
3.6465	-0.80566
3.647	-10.97717
3.6475	-6.84814
3.648	-10.47363
3.6485	-5.53894
3.649	-5.94177
3.6495	-5.23682
3.65	-2.21558
3.6505	-3.22266
3.651	-2.61841
3.6515	-6.84814
3.652	-8.15735
3.6525	-14.40125
3.653	-11.78284
3.6535	-23.46497
3.654	-31.32019
3.6545	-32.62939
3.655	-33.13293
3.6555	-33.43506
3.656	-33.33435
3.6565	-39.37683
3.657	-44.91577
3.6575	-41.18958
3.658	-40.68604
3.6585	-37.96692
3.659	-36.4563
3.6595	-39.17542
3.66	-37.16125
3.6605	-30.11169
3.661	-21.45081
3.6615	-13.29346
3.662	-2.61841
3.6625	8.15735
3.663	21.95435
3.6635	36.25488
3.664	46.12427
3.6645	50.55542
3.665	58.00781
3.6655	68.68286
3.666	67.97791
3.6665	69.38782
3.667	53.17383
3.6675	49.0448
3.668	41.89453
3.6685	30.51453
3.669	25.27771
3.6695	17.82532
3.67	13.29346
3.6705	8.66089
3.671	5.94177
3.6715	6.3446
3.672	7.04956
3.6725	3.02124
3.673	-3.42407
3.6735	0.90637
3.674	-0.80566
3.6745	-6.84814
3.675	-6.74744
3.6755	-9.76868
3.676	-4.12903
3.6765	-2.01416
3.677	-8.96301
3.6775	-10.37292
3.678	-3.92761
3.6785	-6.04248
3.679	-10.77576
3.6795	-7.85522
3.68	-8.96301
3.6805	-12.68921
3.681	-10.27222
3.6815	-9.06372
3.682	-6.74744
3.6825	-5.43823
3.683	-6.2439
3.6835	-10.17151
3.684	-6.3446
3.6845	-17.72461
3.685	-12.48779
3.6855	-16.11328
3.686	-14.19983
3.6865	-15.71045
3.687	-16.91895
3.6875	-10.0708
3.688	-10.27222
3.6885	-11.78284
3.689	-9.66797
3.6895	-11.48071
3.69	-18.73169
3.6905	-14.30054
3.691	-16.01257
3.6915	-10.87646
3.692	-7.65381
3.6925	-6.84814
3.693	-2.61841
3.6935	0.10071
3.694	9.46655
3.6945	9.26514
3.695	10.97717
3.6955	18.53027
3.696	13.19275
3.6965	23.66638
3.697	14.09912
3.6975	24.57275
3.698	15.60974
3.6985	8.56018
3.699	8.7616
3.6995	6.04248
3.7	3.22266
3.7005	3.02124
3.701	-5.0354
3.7015	-8.56018
3.702	-5.74036
3.7025	-2.41699
3.703	-4.83398
3.7035	-3.92761
3.704	-2.81982
3.7045	0.40283
3.705	1.91345
3.7055	-2.21558
3.706	-3.52478
3.7065	-3.02124
3.707	1.81274
3.7075	3.62549
3.708	1.10779
3.7085	2.61841
3.709	4.22974
3.7095	-0.50354
3.71	-2.21558
3.7105	-2.01416
3.711	2.21558
3.7115	7.45239
3.712	4.22974
3.7125	4.43115
3.713	3.62549
3.7135	2.81982
3.714	-7.15027
3.7145	0.50354
3.715	-2.41699
3.7155	-3.22266
3.716	-7.95593
3.7165	-8.66089
3.717	-5.53894
3.7175	-12.28638
3.718	-13.99841
3.7185	-19.03381
3.719	-24.57275
3.7195	-24.16992
3.72	-18.63098
3.7205	-20.94727
3.721	-17.52319
3.7215	-13.19275
3.722	-14.90479
3.7225	-11.88354
3.723	-0.50354
3.7235	-4.33044
3.724	-2.11487
3.7245	1.10779
3.725	-0.50354
3.7255	0.80566
3.726	0.30212
3.7265	-7.15027
3.727	-6.64673
3.7275	-12.38708
3.728	-17.72461
3.7285	-21.3501
3.729	-16.81824
3.7295	-8.8623
3.73	1.2085
3.7305	3.32336
3.731	10.37292
3.7315	11.2793
3.732	16.11328
3.7325	13.99841
3.733	15.60974
3.7335	17.32178
3.734	25.68054
3.7345	28.80249
3.735	22.6593
3.7355	15.81116
3.736	19.13452
3.7365	14.30054
3.737	13.19275
3.7375	13.49487
3.738	9.16443
3.7385	4.02832
3.739	5.0354
3.7395	0.80566
3.74	2.21558
3.7405	9.97009
3.741	11.2793
3.7415	7.95593
3.742	8.15735
3.7425	3.52478
3.743	8.66089
3.7435	0.70496
3.744	6.3446
3.7445	-0.90637
3.745	-6.3446
3.7455	-5.53894
3.746	-9.06372
3.7465	-11.07788
3.747	-16.11328
3.7475	-13.39417
3.748	-3.7262
3.7485	-3.62549
3.749	-4.83398
3.7495	-7.25098
3.75	-3.12195
3.7505	-4.43115
3.751	-2.92053
3.7515	-0.30212
3.752	-1.40991
3.7525	-4.43115
3.753	-2.5177
3.7535	-0.30212
3.754	-5.43823
3.7545	-5.23682
3.755	-1.2085
3.7555	-8.66089
3.756	-6.44531
3.7565	-6.94885
3.757	-13.29346
3.7575	-14.19983
3.758	-18.12744
3.7585	-14.19983
3.759	-14.19983
3.7595	-13.89771
3.76	-14.80408
3.7605	-16.41541
3.761	-17.42249
3.7615	-12.89062
3.762	-16.11328
3.7625	-10.37292
3.763	-11.68213
3.7635	-7.75452
3.764	-3.92761
3.7645	-5.63965
3.765	-0.50354
3.7655	-0.90637
3.766	3.8269
3.7665	8.25806
3.767	5.94177
3.7675	12.5885
3.768	16.71753
3.7685	10.77576
3.769	14.70337
3.7695	9.46655
3.77	10.57434
3.7705	13.19275
3.771	12.18567
3.7715	5.74036
3.772	11.58142
3.7725	7.85522
3.773	2.01416
3.7735	1.81274
3.774	4.53186
3.7745	2.41699
3.775	3.62549
3.7755	4.43115
3.776	4.93469
3.7765	-1.71204
3.777	-0.60425
3.7775	-2.81982
3.778	-0.50354
3.7785	-2.92053
3.779	-0.70496
3.7795	-9.56726
3.78	-8.25806
3.7805	3.62549
3.781	-1.2085
3.7815	-4.93469
3.782	-3.42407
3.7825	0.60425
3.783	-5.53894
3.7835	-6.84814
3.784	-11.78284
3.7845	-15.1062
3.785	-19.73877
3.7855	-18.63098
3.786	-18.32886
3.7865	-9.26514
3.787	-11.58142
3.7875	-9.06372
3.788	-4.02832
3.7885	-4.63257
3.789	0.90637
3.7895	0.70496
3.79	4.02832
3.7905	-0.90637
3.791	1.91345
3.7915	-1.71204
3.792	6.84814
3.7925	5.0354
3.793	4.83398
3.7935	0.80566
3.794	-3.52478
3.7945	-3.62549
3.795	-11.78284
3.7955	-7.5531
3.796	1.10779
3.7965	-1.91345
3.797	-0.80566
3.7975	2.01416
3.798	-3.92761
3.7985	-9.76868
3.799	-11.07788
3.7995	-10.77576
3.8	-12.89062
3.8005	-8.15735
3.801	-12.18567
3.8015	-14.60266
3.802	-18.93311
3.8025	-16.01257
3.803	-15.60974
3.8035	-11.07788
3.804	-6.84814
3.8045	1.81274
3.805	6.44531
3.8055	8.56018
3.806	14.19983
3.8065	18.93311
3.807	21.14868
3.8075	17.01965
3.808	17.22107
3.8085	21.14868
3.809	22.05505
3.8095	14.80408
3.81	15.50903
3.8105	14.90479
3.811	10.57434
3.8115	7.5531
3.812	-0.80566
3.8125	-0.60425
3.813	-4.83398
3.8135	-1.40991
3.814	-5.94177
3.8145	2.92053
3.815	-0.40283
3.8155	-0.60425
3.816	0.20142
3.8165	-2.81982
3.817	-8.45947
3.8175	-8.96301
3.818	-10.87646
3.8185	-5.33752
3.819	-3.62549
3.8195	-1.91345
3.82	-2.41699
3.8205	1.81274
3.821	-0.60425
3.8215	-2.5177
3.822	6.2439
3.8225	0.50354
3.823	4.63257
3.8235	2.11487
3.824	1.71204
3.8245	2.81982
3.825	-5.74036
3.8255	-8.05664
3.826	-9.36584
3.8265	-13.59558
3.827	-15.1062
3.8275	-18.02673
3.828	-14.90479
3.8285	-9.76868
3.829	-16.01257
3.8295	-16.21399
3.83	-14.80408
3.8305	-7.95593
3.831	-4.53186
3.8315	-4.73328
3.832	-3.92761
3.8325	2.41699
3.833	-0.30212
3.8335	0.60425
3.834	6.44531
3.8345	3.62549
3.835	5.94177
3.8355	1.71204
3.836	0
3.8365	9.56726
3.837	17.42249
3.8375	23.46497
3.838	32.22656
3.8385	30.71594
3.839	24.57275
3.8395	11.78284
3.84	10.0708
3.8405	10.77576
3.841	11.48071
3.8415	6.2439
3.842	3.7262
3.8425	3.22266
3.843	-1.00708
3.8435	0.20142
3.844	2.01416
3.8445	5.63965
3.845	4.02832
3.8455	2.61841
3.846	4.02832
3.8465	2.41699
3.847	0.60425
3.8475	4.22974
3.848	5.74036
3.8485	2.11487
3.849	-2.21558
3.8495	-1.2085
3.85	-3.42407
3.8505	-6.54602
3.851	-7.04956
3.8515	-9.16443
3.852	-8.8623
3.8525	-11.98425
3.853	-9.36584
3.8535	-17.32178
3.854	-16.3147
3.8545	-16.01257
3.855	-9.16443
3.8555	-12.68921
3.856	-2.71912
3.8565	-4.73328
3.857	-4.83398
3.8575	-2.11487
3.858	1.2085
3.8585	-6.04248
3.859	-0.50354
3.8595	-7.95593
3.86	-7.25098
3.8605	-9.16443
3.861	-12.78992
3.8615	-7.95593
3.862	-14.50195
3.8625	-14.60266
3.863	-11.38
3.8635	-14.60266
3.864	-16.71753
3.8645	-15.00549
3.865	-12.18567
3.8655	-7.25098
3.866	-4.22974
3.8665	-9.26514
3.867	-2.71912
3.8675	2.11487
3.868	13.09204
3.8685	24.16992
3.869	25.37842
3.8695	25.177
3.87	30.51453
3.8705	27.89612
3.871	34.44214
3.8715	35.85205
3.872	31.32019
3.8725	30.61523
3.873	29.40674
3.8735	16.51611
3.874	14.80408
3.8745	4.33044
3.875	0.20142
3.8755	-5.13611
