Franco_Uliana_Right_2.c3d  



Time(s):	A_L_bicipite(μV):
0	4.53186
0.0005	3.52478
0.001	3.92761
0.0015	4.53186
0.002	11.58142
0.0025	6.54602
0.003	6.04248
0.0035	9.16443
0.004	4.63257
0.0045	3.32336
0.005	4.73328
0.0055	3.7262
0.006	9.36584
0.0065	8.96301
0.007	8.45947
0.0075	9.66797
0.008	4.73328
0.0085	5.74036
0.009	0
0.0095	2.41699
0.01	2.92053
0.0105	3.12195
0.011	5.74036
0.0115	2.92053
0.012	2.81982
0.0125	3.22266
0.013	4.22974
0.0135	3.12195
0.014	8.05664
0.0145	4.12903
0.015	2.01416
0.0155	8.8623
0.016	6.04248
0.0165	4.53186
0.017	2.81982
0.0175	8.15735
0.018	2.61841
0.0185	7.65381
0.019	2.5177
0.0195	5.84106
0.02	-0.70496
0.0205	3.8269
0.021	-3.12195
0.0215	-1.2085
0.022	1.51062
0.0225	-0.20142
0.023	1.81274
0.0235	5.63965
0.024	0.50354
0.0245	1.61133
0.025	0.40283
0.0255	-2.61841
0.026	3.32336
0.0265	14.09912
0.027	18.32886
0.0275	23.06213
0.028	22.35718
0.0285	28.19824
0.029	28.19824
0.0295	19.73877
0.03	15.91187
0.0305	14.19983
0.031	4.63257
0.0315	-1.00708
0.032	-9.06372
0.0325	-13.89771
0.033	-14.60266
0.0335	-16.01257
0.034	-15.71045
0.0345	-13.89771
0.035	-12.18567
0.0355	-15.40833
0.036	-5.63965
0.0365	-2.41699
0.037	-3.92761
0.0375	-1.71204
0.038	3.62549
0.0385	2.5177
0.039	5.33752
0.0395	9.76868
0.04	13.29346
0.0405	17.6239
0.041	17.82532
0.0415	19.63806
0.042	14.40125
0.0425	15.71045
0.043	14.90479
0.0435	9.06372
0.044	9.36584
0.0445	12.18567
0.045	14.09912
0.0455	2.71912
0.046	4.43115
0.0465	9.16443
0.047	6.64673
0.0475	3.92761
0.048	6.44531
0.0485	4.53186
0.049	3.22266
0.0495	2.41699
0.05	6.94885
0.0505	5.84106
0.051	7.15027
0.0515	8.05664
0.052	4.93469
0.0525	6.2439
0.053	2.01416
0.0535	3.32336
0.054	-0.30212
0.0545	0.10071
0.055	-0.40283
0.0555	-0.60425
0.056	4.43115
0.0565	4.12903
0.057	-1.00708
0.0575	1.00708
0.058	6.64673
0.0585	-0.40283
0.059	5.63965
0.0595	4.93469
0.06	-1.10779
0.0605	-0.30212
0.061	3.92761
0.0615	3.62549
0.062	1.81274
0.0625	1.3092
0.063	-2.61841
0.0635	2.92053
0.064	0.80566
0.0645	1.81274
0.065	3.8269
0.0655	3.7262
0.066	4.33044
0.0665	-2.31628
0.067	4.73328
0.0675	1.81274
0.068	1.00708
0.0685	-3.02124
0.069	2.41699
0.0695	1.10779
0.07	1.40991
0.0705	2.01416
0.071	0.90637
0.0715	0
0.072	0.70496
0.0725	1.51062
0.073	-0.30212
0.0735	1.3092
0.074	2.41699
0.0745	0.60425
0.075	-1.91345
0.0755	4.22974
0.076	-3.22266
0.0765	3.8269
0.077	-0.10071
0.0775	-2.5177
0.078	-0.20142
0.0785	5.94177
0.079	2.5177
0.0795	5.84106
0.08	8.15735
0.0805	8.56018
0.081	1.71204
0.0815	1.61133
0.082	7.35168
0.0825	0.60425
0.083	3.7262
0.0835	3.32336
0.084	6.2439
0.0845	4.12903
0.085	4.83398
0.0855	1.10779
0.086	3.42407
0.0865	5.0354
0.087	2.92053
0.0875	-1.61133
0.088	1.51062
0.0885	1.61133
0.089	0.10071
0.0895	1.3092
0.09	-0.70496
0.0905	-3.92761
0.091	2.71912
0.0915	5.23682
0.092	0.10071
0.0925	1.40991
0.093	6.64673
0.0935	8.96301
0.094	4.33044
0.0945	4.02832
0.095	2.01416
0.0955	2.31628
0.096	6.74744
0.0965	5.23682
0.097	7.25098
0.0975	6.94885
0.098	1.40991
0.0985	11.2793
0.099	10.0708
0.0995	1.61133
0.1	-2.92053
0.1005	-10.47363
0.101	-11.2793
0.1015	-9.26514
0.102	-5.43823
0.1025	6.14319
0.103	25.47913
0.1035	46.02356
0.104	65.76233
0.1045	90.5365
0.105	100.80872
0.1055	111.28235
0.106	114.70642
0.1065	110.98022
0.107	104.13208
0.1075	89.42871
0.108	58.10852
0.1085	23.26355
0.109	-2.21558
0.1095	-36.35559
0.11	-66.26587
0.1105	-95.5719
0.111	-108.86536
0.1115	-106.44836
0.112	-87.81738
0.1125	-74.52393
0.113	-63.84888
0.1135	-56.49719
0.114	-43.60657
0.1145	-30.61523
0.115	-14.30054
0.1155	-1.51062
0.116	0.80566
0.1165	-4.02832
0.117	-7.35168
0.1175	-14.09912
0.118	-10.87646
0.1185	5.84106
0.119	10.57434
0.1195	7.85522
0.12	5.23682
0.1205	10.0708
0.121	9.56726
0.1215	14.40125
0.122	16.01257
0.1225	12.78992
0.123	19.33594
0.1235	23.56567
0.124	31.21948
0.1245	34.44214
0.125	39.47754
0.1255	45.2179
0.126	52.06604
0.1265	64.95667
0.127	62.8418
0.1275	72.9126
0.128	73.41614
0.1285	60.22339
0.129	49.64905
0.1295	37.7655
0.13	27.49329
0.1305	10.67505
0.131	-7.65381
0.1315	-30.61523
0.132	-40.58533
0.1325	-52.67029
0.133	-60.72693
0.1335	-66.06445
0.134	-68.68286
0.1345	-67.67578
0.135	-51.15967
0.1355	-49.85046
0.136	-42.8009
0.1365	-23.46497
0.137	-18.02673
0.1375	-1.81274
0.138	-1.51062
0.1385	3.62549
0.139	8.25806
0.1395	12.08496
0.14	14.09912
0.1405	10.47363
0.141	6.3446
0.1415	7.95593
0.142	13.99841
0.1425	20.24231
0.143	22.6593
0.1435	16.61682
0.144	21.24939
0.1445	24.87488
0.145	27.09045
0.1455	17.92603
0.146	10.67505
0.1465	3.22266
0.147	6.04248
0.1475	10.17151
0.148	15.20691
0.1485	28.19824
0.149	51.5625
0.1495	71.80481
0.15	85.09827
0.1505	104.4342
0.151	106.75049
0.1515	113.69934
0.152	99.19739
0.1525	74.02039
0.153	45.01648
0.1535	18.93311
0.154	-13.797
0.1545	-41.69312
0.155	-74.72534
0.1555	-100.20447
0.156	-118.73474
0.1565	-109.87244
0.157	-105.54199
0.1575	-98.49243
0.158	-89.52942
0.1585	-86.30676
0.159	-69.28711
0.1595	-52.67029
0.16	-33.73718
0.1605	-17.12036
0.161	-1.61133
0.1615	8.56018
0.162	5.43823
0.1625	6.14319
0.163	13.69629
0.1635	15.20691
0.164	20.84656
0.1645	19.83948
0.165	17.12036
0.1655	15.00549
0.166	14.60266
0.1665	15.71045
0.167	9.86938
0.1675	12.89062
0.168	13.99841
0.1685	7.95593
0.169	13.99841
0.1695	19.73877
0.17	32.83081
0.1705	36.25488
0.171	35.14709
0.1715	35.14709
0.172	37.56409
0.1725	28.60107
0.173	26.68762
0.1735	27.59399
0.174	14.50195
0.1745	15.00549
0.175	3.12195
0.1755	3.22266
0.176	-3.42407
0.1765	-5.33752
0.177	-2.11487
0.1775	0.80566
0.178	-1.81274
0.1785	-9.97009
0.179	-10.0708
0.1795	-7.95593
0.18	-16.91895
0.1805	-19.03381
0.181	-22.45789
0.1815	-16.61682
0.182	-13.39417
0.1825	-8.45947
0.183	-6.54602
0.1835	-4.53186
0.184	7.65381
0.1845	17.6239
0.185	21.55151
0.1855	25.98267
0.186	22.35718
0.1865	22.55859
0.187	25.98267
0.1875	28.19824
0.188	24.97559
0.1885	23.16284
0.189	25.57983
0.1895	24.97559
0.19	29.50745
0.1905	30.31311
0.191	27.79541
0.1915	21.45081
0.192	20.24231
0.1925	13.59558
0.193	9.26514
0.1935	5.53894
0.194	9.26514
0.1945	20.24231
0.195	26.58691
0.1955	33.03223
0.196	38.36975
0.1965	55.79224
0.197	60.02197
0.1975	60.12268
0.198	53.97949
0.1985	49.74976
0.199	37.96692
0.1995	35.65063
0.2	27.79541
0.2005	18.02673
0.201	2.92053
0.2015	-6.3446
0.202	-24.37134
0.2025	-40.78674
0.203	-53.77808
0.2035	-64.45312
0.204	-63.54675
0.2045	-67.27295
0.205	-63.74817
0.2055	-53.17383
0.206	-47.03064
0.2065	-40.98816
0.207	-34.74426
0.2075	-23.36426
0.208	-6.3446
0.2085	6.44531
0.209	14.50195
0.2095	13.69629
0.21	24.06921
0.2105	22.35718
0.211	23.66638
0.2115	9.56726
0.212	-12.68921
0.2125	-16.61682
0.213	-20.64514
0.2135	-23.8678
0.214	-18.42957
0.2145	-15.71045
0.215	-14.60266
0.2155	-18.73169
0.216	-15.71045
0.2165	-5.0354
0.217	0
0.2175	4.22974
0.218	4.12903
0.2185	4.93469
0.219	5.63965
0.2195	8.05664
0.22	2.61841
0.2205	6.74744
0.221	4.12903
0.2215	-6.64673
0.222	-5.53894
0.2225	-9.56726
0.223	-5.63965
0.2235	-9.56726
0.224	-12.99133
0.2245	-2.5177
0.225	-4.53186
0.2255	-7.5531
0.226	-2.71912
0.2265	-7.25098
0.227	-1.71204
0.2275	-2.61841
0.228	-1.10779
0.2285	4.53186
0.229	9.06372
0.2295	7.65381
0.23	5.43823
0.2305	8.56018
0.231	5.63965
0.2315	2.31628
0.232	10.97717
0.2325	14.19983
0.233	15.20691
0.2335	17.32178
0.234	27.59399
0.2345	21.04797
0.235	25.177
0.2355	25.07629
0.236	29.30603
0.2365	20.54443
0.237	22.76001
0.2375	15.30762
0.238	11.2793
0.2385	6.54602
0.239	5.84106
0.2395	-0.80566
0.24	0.90637
0.2405	-14.09912
0.241	-16.91895
0.2415	-20.64514
0.242	-18.42957
0.2425	-5.13611
0.243	18.8324
0.2435	47.23206
0.244	74.82605
0.2445	98.29102
0.245	123.66943
0.2455	134.74731
0.246	144.11316
0.2465	145.12024
0.247	131.42395
0.2475	107.85828
0.248	74.12109
0.2485	36.65771
0.249	1.61133
0.2495	-40.68604
0.25	-79.45862
0.2505	-107.75757
0.251	-127.09351
0.2515	-127.29492
0.252	-120.04395
0.2525	-116.21704
0.253	-109.06677
0.2535	-85.09827
0.254	-66.06445
0.2545	-45.41931
0.255	-20.54443
0.2555	-2.01416
0.256	5.33752
0.2565	10.87646
0.257	18.02673
0.2575	21.55151
0.258	23.16284
0.2585	27.19116
0.259	31.11877
0.2595	31.62231
0.26	36.65771
0.2605	36.85913
0.261	41.69312
0.2615	35.75134
0.262	37.96692
0.2625	26.3855
0.263	22.45789
0.2635	12.48779
0.264	12.5885
0.2645	7.15027
0.265	10.67505
0.2655	5.84106
0.266	1.51062
0.2665	0.70496
0.267	8.56018
0.2675	12.68921
0.268	22.25647
0.2685	18.53027
0.269	17.22107
0.2695	21.04797
0.27	35.44922
0.2705	40.1825
0.271	51.15967
0.2715	39.98108
0.272	36.35559
0.2725	35.95276
0.273	23.8678
0.2735	6.2439
0.274	-8.8623
0.2745	-32.42798
0.275	-44.21082
0.2755	-52.16675
0.276	-68.88428
0.2765	-81.7749
0.277	-70.59631
0.2775	-51.86462
0.278	-42.90161
0.2785	-28.39966
0.279	-7.5531
0.2795	1.40991
0.28	7.95593
0.2805	17.12036
0.281	20.24231
0.2815	26.08337
0.282	19.73877
0.2825	14.90479
0.283	17.72461
0.2835	20.04089
0.284	13.09204
0.2845	15.71045
0.285	15.60974
0.2855	20.1416
0.286	33.23364
0.2865	41.79382
0.287	40.98816
0.2875	41.29028
0.288	50.05188
0.2885	43.30444
0.289	34.74426
0.2895	35.54993
0.29	42.59949
0.2905	56.39648
0.291	56.79932
0.2915	49.34692
0.292	45.82214
0.2925	40.88745
0.293	23.36426
0.2935	9.86938
0.294	3.32336
0.2945	4.02832
0.295	-10.47363
0.2955	-11.38
0.296	-15.40833
0.2965	-19.53735
0.297	-24.87488
0.2975	-15.1062
0.298	-13.69629
0.2985	-16.71753
0.299	-11.2793
0.2995	-15.50903
0.3	-11.2793
0.3005	-15.50903
0.301	-36.95984
0.3015	-49.14551
0.302	-52.8717
0.3025	-46.22498
0.303	-25.07629
0.3035	2.81982
0.304	36.35559
0.3045	77.948
0.305	101.61438
0.3055	115.61279
0.306	107.15332
0.3065	113.29651
0.307	109.87244
0.3075	90.93933
0.308	75.32959
0.3085	37.26196
0.309	0.40283
0.3095	-41.08887
0.31	-92.65137
0.3105	-127.69775
0.311	-144.31458
0.3115	-150.75989
0.312	-150.35706
0.3125	-151.16272
0.313	-150.05493
0.3135	-140.58838
0.314	-129.61121
0.3145	-107.05261
0.315	-86.40747
0.3155	-69.68994
0.316	-50.85754
0.3165	-43.30444
0.317	-31.4209
0.3175	-18.32886
0.318	-17.22107
0.3185	-6.14319
0.319	6.14319
0.3195	15.60974
0.32	21.85364
0.3205	33.73718
0.321	33.9386
0.3215	33.63647
0.322	28.80249
0.3225	25.78125
0.323	32.83081
0.3235	35.34851
0.324	27.29187
0.3245	30.11169
0.325	34.84497
0.3255	47.63489
0.326	55.59082
0.3265	61.83472
0.327	69.89136
0.3275	69.79065
0.328	71.60339
0.3285	63.44604
0.329	58.10852
0.3295	50.15259
0.33	40.88745
0.3305	31.21948
0.331	14.60266
0.3315	4.22974
0.332	-4.22974
0.3325	-0.90637
0.333	16.71753
0.3335	24.67346
0.334	37.36267
0.3345	40.48462
0.335	40.2832
0.3355	43.10303
0.336	31.72302
0.3365	27.89612
0.337	16.41541
0.3375	8.96301
0.338	0.90637
0.3385	-4.63257
0.339	-10.37292
0.3395	-14.19983
0.34	-13.59558
0.3405	-11.2793
0.341	-4.63257
0.3415	-4.22974
0.342	-0.50354
0.3425	5.33752
0.343	9.56726
0.3435	13.09204
0.344	16.11328
0.3445	16.11328
0.345	23.76709
0.3455	33.23364
0.346	45.72144
0.3465	51.76392
0.347	68.98499
0.3475	80.56641
0.348	76.03455
0.3485	67.77649
0.349	55.79224
0.3495	45.11719
0.35	30.81665
0.3505	0.40283
0.351	-13.797
0.3515	-39.77966
0.352	-58.91418
0.3525	-79.66003
0.353	-86.8103
0.3535	-77.14233
0.354	-67.67578
0.3545	-56.5979
0.355	-35.65063
0.3555	-19.43665
0.356	1.3092
0.3565	20.24231
0.357	34.64355
0.3575	37.86621
0.358	36.4563
0.3585	31.72302
0.359	27.99683
0.3595	19.03381
0.36	8.8623
0.3605	-8.7616
0.361	-19.73877
0.3615	-31.32019
0.362	-44.71436
0.3625	-57.8064
0.363	-66.36658
0.3635	-70.79773
0.364	-65.76233
0.3645	-40.78674
0.365	-18.02673
0.3655	-8.05664
0.366	-2.81982
0.3665	9.66797
0.367	12.68921
0.3675	9.46655
0.368	12.08496
0.3685	8.96301
0.369	7.04956
0.3695	4.73328
0.37	-1.00708
0.3705	3.7262
0.371	-1.00708
0.3715	-7.5531
0.372	-9.56726
0.3725	-11.38
0.373	2.31628
0.3735	26.18408
0.374	56.19507
0.3745	85.19897
0.375	114.80713
0.3755	136.66077
0.376	155.9967
0.3765	155.79529
0.377	163.24768
0.3775	152.47192
0.378	134.14307
0.3785	101.8158
0.379	61.43188
0.3795	18.93311
0.38	-23.06213
0.3805	-67.17224
0.381	-104.63562
0.3815	-121.15173
0.382	-127.69775
0.3825	-126.58997
0.383	-111.8866
0.3835	-110.27527
0.384	-82.58057
0.3845	-54.98657
0.385	-45.52002
0.3855	-30.41382
0.386	-20.74585
0.3865	-17.72461
0.387	-11.58142
0.3875	-7.35168
0.388	6.84814
0.3885	13.99841
0.389	31.11877
0.3895	51.66321
0.39	58.71277
0.3905	65.05737
0.391	79.05579
0.3915	90.73792
0.392	85.40039
0.3925	88.62305
0.393	81.7749
0.3935	67.97791
0.394	49.14551
0.3945	31.01807
0.395	15.40833
0.3955	-7.65381
0.396	-33.73718
0.3965	-57.9071
0.397	-74.72534
0.3975	-93.15491
0.398	-117.52625
0.3985	-124.67651
0.399	-125.88501
0.3995	-114.4043
0.4	-101.71509
0.4005	-86.70959
0.401	-76.84021
0.4015	-66.16516
0.402	-42.49878
0.4025	-32.22656
0.403	-10.27222
0.4035	-4.73328
0.404	-3.12195
0.4045	4.22974
0.405	4.12903
0.4055	5.74036
0.406	7.85522
0.4065	19.73877
0.407	15.50903
0.4075	15.40833
0.408	15.40833
0.4085	30.01099
0.409	40.58533
0.4095	47.63489
0.41	47.23206
0.4105	48.94409
0.411	51.26038
0.4115	46.42639
0.412	41.29028
0.4125	31.32019
0.413	22.6593
0.4135	2.5177
0.414	-8.66089
0.4145	-16.11328
0.415	-22.45789
0.4155	-30.51453
0.416	-23.8678
0.4165	-27.99683
0.417	-25.88196
0.4175	-21.75293
0.418	-18.53027
0.4185	-14.40125
0.419	-4.53186
0.4195	-1.51062
0.42	12.48779
0.4205	28.70178
0.421	47.03064
0.4215	84.19189
0.422	108.96606
0.4225	116.21704
0.423	123.2666
0.4235	122.36023
0.424	113.90076
0.4245	103.42712
0.425	79.35791
0.4255	49.64905
0.426	18.02673
0.4265	-10.0708
0.427	-20.94727
0.4275	-40.78674
0.428	-51.86462
0.4285	-65.76233
0.429	-79.2572
0.4295	-81.57349
0.43	-89.328
0.4305	-69.68994
0.431	-61.33118
0.4315	-42.90161
0.432	-21.24939
0.4325	0.70496
0.433	20.74585
0.4335	34.64355
0.434	50.05188
0.4345	60.82764
0.435	62.43896
0.4355	55.69153
0.436	50.95825
0.4365	35.2478
0.437	22.55859
0.4375	20.84656
0.438	17.92603
0.4385	13.59558
0.439	19.83948
0.4395	30.01099
0.44	53.67737
0.4405	73.91968
0.441	78.35083
0.4415	89.63013
0.442	84.99756
0.4425	73.71826
0.443	56.49719
0.4435	33.83789
0.444	5.94177
0.4445	-29.10461
0.445	-57.8064
0.4455	-86.40747
0.446	-95.26978
0.4465	-102.21863
0.447	-120.14465
0.4475	-113.1958
0.448	-95.16907
0.4485	-80.76782
0.449	-71.90552
0.4495	-71.20056
0.45	-61.93542
0.4505	-43.10303
0.451	-32.02515
0.4515	-24.67346
0.452	-23.16284
0.4525	-24.47205
0.453	-19.33594
0.4535	-19.13452
0.454	-11.48071
0.4545	-5.74036
0.455	-2.11487
0.4555	4.33044
0.456	11.2793
0.4565	27.09045
0.457	41.08887
0.4575	49.74976
0.458	58.51135
0.4585	63.14392
0.459	65.15808
0.4595	64.85596
0.46	62.74109
0.4605	50.85754
0.461	41.18958
0.4615	27.59399
0.462	11.2793
0.4625	-1.71204
0.463	-3.02124
0.4635	-8.45947
0.464	-19.33594
0.4645	-20.84656
0.465	-18.93311
0.4655	-16.21399
0.466	-12.48779
0.4665	-12.78992
0.467	-5.33752
0.4675	-0.60425
0.468	1.61133
0.4685	1.3092
0.469	-0.80566
0.4695	6.2439
0.47	11.17859
0.4705	10.97717
0.471	16.91895
0.4715	21.45081
0.472	31.52161
0.4725	41.79382
0.473	43.60657
0.4735	42.59949
0.474	40.68604
0.4745	41.4917
0.475	56.79932
0.4755	74.02039
0.476	96.37756
0.4765	106.8512
0.477	116.61987
0.4775	122.05811
0.478	112.59155
0.4785	93.45703
0.479	75.93384
0.4795	45.2179
0.48	10.37292
0.4805	-20.04089
0.481	-51.05896
0.4815	-74.32251
0.482	-88.11951
0.4825	-102.42004
0.483	-100.20447
0.4835	-97.28394
0.484	-87.21313
0.4845	-78.35083
0.485	-65.56091
0.4855	-57.9071
0.486	-37.26196
0.4865	-21.45081
0.487	-8.96301
0.4875	4.02832
0.488	17.92603
0.4885	37.16125
0.489	57.50427
0.4895	61.93542
0.49	68.38074
0.4905	77.84729
0.491	85.09827
0.4915	94.66553
0.492	109.67102
0.4925	119.03687
0.493	111.9873
0.4935	97.88818
0.494	82.47986
0.4945	69.38782
0.495	45.92285
0.4955	12.08496
0.496	-16.81824
0.4965	-57.50427
0.497	-84.59473
0.4975	-109.26819
0.498	-129.71191
0.4985	-131.52466
0.499	-126.89209
0.4995	-120.14465
0.5	-103.22571
0.5005	-96.57898
0.501	-89.73083
0.5015	-72.20764
0.502	-60.12268
0.5025	-50.2533
0.503	-43.50586
0.5035	-35.85205
0.504	-29.30603
0.5045	-28.29895
0.505	-31.62231
0.5055	-36.05347
0.506	-40.68604
0.5065	-38.87329
0.507	-29.80957
0.5075	-12.89062
0.508	12.38708
0.5085	17.12036
0.509	26.88904
0.5095	37.7655
0.51	54.0802
0.5105	69.48853
0.511	74.72534
0.5115	75.83313
0.512	101.11084
0.5125	121.45386
0.513	140.18555
0.5135	142.40112
0.514	152.27051
0.5145	155.59387
0.515	159.92432
0.5155	176.13831
0.516	180.16663
0.5165	161.83777
0.517	118.33191
0.5175	63.14392
0.518	2.31628
0.5185	-54.18091
0.519	-115.20996
0.5195	-171.10291
0.52	-194.87
0.5205	-209.57336
0.521	-216.92505
0.5215	-220.85266
0.522	-211.88965
0.5225	-189.23035
0.523	-149.45068
0.5235	-112.08801
0.524	-80.66711
0.5245	-52.771
0.525	-32.83081
0.5255	-14.80408
0.526	2.01416
0.5265	1.00708
0.527	4.93469
0.5275	17.42249
0.528	26.78833
0.5285	29.20532
0.529	29.10461
0.5295	36.75842
0.53	25.27771
0.5305	22.55859
0.531	19.23523
0.5315	13.29346
0.532	14.80408
0.5325	12.89062
0.533	18.02673
0.5335	8.05664
0.534	6.94885
0.5345	9.76868
0.535	5.13611
0.5355	6.74744
0.536	8.35876
0.5365	3.92761
0.537	12.68921
0.5375	10.77576
0.538	8.25806
0.5385	9.86938
0.539	6.3446
0.5395	13.19275
0.54	15.00549
0.5405	14.40125
0.541	16.81824
0.5415	18.53027
0.542	20.84656
0.5425	23.06213
0.543	22.45789
0.5435	27.99683
0.544	23.06213
0.5445	20.54443
0.545	18.73169
0.5455	14.70337
0.546	12.28638
0.5465	17.32178
0.547	18.32886
0.5475	20.64514
0.548	23.26355
0.5485	18.42957
0.549	19.73877
0.5495	24.67346
0.55	25.78125
0.5505	19.94019
0.551	19.13452
0.5515	15.50903
0.552	9.46655
0.5525	11.07788
0.553	4.83398
0.5535	-0.70496
0.554	2.41699
0.5545	-6.2439
0.555	-11.78284
0.5555	-5.74036
0.556	-6.64673
0.5565	-5.94177
0.557	2.01416
0.5575	-1.2085
0.558	1.40991
0.5585	10.17151
0.559	2.92053
0.5595	4.33044
0.56	2.31628
0.5605	-4.83398
0.561	-5.13611
0.5615	3.32336
0.562	0
0.5625	0.40283
0.563	-0.20142
0.5635	9.66797
0.564	7.45239
0.5645	6.44531
0.565	24.47205
0.5655	39.07471
0.566	50.75684
0.5665	54.98657
0.567	49.95117
0.5675	40.08179
0.568	35.65063
0.5685	15.60974
0.569	4.63257
0.5695	-6.04248
0.57	-22.55859
0.5705	-26.08337
0.571	-34.74426
0.5715	-39.77966
0.572	-38.67188
0.5725	-37.86621
0.573	-32.22656
0.5735	-3.42407
0.574	56.79932
0.5745	108.05969
0.575	155.69458
0.5755	205.0415
0.576	221.85974
0.5765	228.30505
0.577	228.50647
0.5775	227.80151
0.578	213.8031
0.5785	187.51831
0.579	154.88892
0.5795	108.96606
0.58	66.6687
0.5805	20.94727
0.581	-27.09045
0.5815	-76.63879
0.582	-111.58447
0.5825	-134.84802
0.583	-148.4436
0.5835	-166.97388
0.584	-182.3822
0.5845	-190.23743
0.585	-196.88416
0.5855	-189.33105
0.586	-186.51123
0.5865	-173.31848
0.587	-151.66626
0.5875	-128.40271
0.588	-119.33899
0.5885	-110.17456
0.589	-93.25562
0.5895	-75.02747
0.59	-45.82214
0.5905	-20.34302
0.591	-1.51062
0.5915	12.08496
0.592	15.30762
0.5925	23.8678
0.593	31.01807
0.5935	32.83081
0.594	34.94568
0.5945	35.2478
0.595	32.32727
0.5955	32.42798
0.596	29.70886
0.5965	35.2478
0.597	29.40674
0.5975	24.67346
0.598	19.63806
0.5985	20.34302
0.599	19.53735
0.5995	21.04797
0.6	15.00549
0.6005	19.63806
0.601	14.50195
0.6015	14.90479
0.602	18.8324
0.6025	18.32886
0.603	18.8324
0.6035	20.54443
0.604	17.52319
0.6045	13.99841
0.605	10.87646
0.6055	7.65381
0.606	1.00708
0.6065	4.22974
0.607	10.17151
0.6075	25.68054
0.608	31.72302
0.6085	32.42798
0.609	34.03931
0.6095	36.95984
0.61	31.32019
0.6105	30.51453
0.611	34.24072
0.6115	22.86072
0.612	16.3147
0.6125	11.68213
0.613	12.38708
0.6135	14.80408
0.614	19.63806
0.6145	21.04797
0.615	19.43665
0.6155	19.73877
0.616	18.63098
0.6165	8.96301
0.617	-0.20142
0.6175	-1.81274
0.618	-1.91345
0.6185	-5.23682
0.619	-11.2793
0.6195	-14.50195
0.62	-13.19275
0.6205	-14.50195
0.621	-9.76868
0.6215	-6.54602
0.622	6.3446
0.6225	11.48071
0.623	14.90479
0.6235	13.797
0.624	20.94727
0.6245	21.85364
0.625	15.20691
0.6255	12.08496
0.626	1.71204
0.6265	-2.31628
0.627	-2.41699
0.6275	-9.36584
0.628	-11.68213
0.6285	-6.04248
0.629	-6.74744
0.6295	-0.50354
0.63	1.2085
0.6305	0.70496
0.631	0.10071
0.6315	-0.10071
0.632	-0.50354
0.6325	-1.91345
0.633	2.71912
0.6335	1.51062
0.634	-0.60425
0.6345	0.90637
0.635	2.11487
0.6355	9.56726
0.636	16.01257
0.6365	14.80408
0.637	12.78992
0.6375	10.77576
0.638	12.68921
0.6385	1.71204
0.639	7.5531
0.6395	5.74036
0.64	3.7262
0.6405	4.02832
0.641	7.95593
0.6415	8.15735
0.642	5.53894
0.6425	4.33044
0.643	1.2085
0.6435	5.63965
0.644	4.33044
0.6445	-3.32336
0.645	1.61133
0.6455	3.7262
0.646	5.53894
0.6465	8.15735
0.647	7.35168
0.6475	9.56726
0.648	11.88354
0.6485	9.36584
0.649	10.67505
0.6495	10.57434
0.65	11.07788
0.6505	15.60974
0.651	13.69629
0.6515	15.81116
0.652	17.32178
0.6525	12.48779
0.653	25.78125
0.6535	37.16125
0.654	48.13843
0.6545	51.66321
0.655	46.02356
0.6555	40.1825
0.656	35.14709
0.6565	20.74585
0.657	13.29346
0.6575	10.47363
0.658	2.11487
0.6585	-10.47363
0.659	-10.87646
0.6595	-12.08496
0.66	-17.6239
0.6605	-26.48621
0.661	-31.62231
0.6615	-21.04797
0.662	15.81116
0.6625	58.91418
0.663	74.02039
0.6635	83.38623
0.664	99.19739
0.6645	116.51917
0.665	116.41846
0.6655	114.90784
0.666	100.90942
0.6665	88.11951
0.667	59.71985
0.6675	33.9386
0.668	-4.12903
0.6685	-14.50195
0.669	-14.40125
0.6695	-32.93152
0.67	-47.13135
0.6705	-46.82922
0.671	-39.17542
0.6715	-24.87488
0.672	-18.02673
0.6725	-29.40674
0.673	-29.60815
0.6735	-24.06921
0.674	-29.40674
0.6745	-41.08887
0.675	-59.82056
0.6755	-77.54517
0.676	-96.47827
0.6765	-105.13916
0.677	-84.49402
0.6775	-43.80798
0.678	-1.2085
0.6785	18.32886
0.679	16.11328
0.6795	22.86072
0.68	23.46497
0.6805	19.43665
0.681	-3.52478
0.6815	-18.42957
0.682	-27.49329
0.6825	-38.87329
0.683	-54.38232
0.6835	-62.13684
0.684	-52.16675
0.6845	-40.08179
0.685	-18.12744
0.6855	16.91895
0.686	45.62073
0.6865	55.99365
0.687	55.08728
0.6875	52.16675
0.688	41.69312
0.6885	29.80957
0.689	10.87646
0.6895	-1.10779
0.69	1.10779
0.6905	10.87646
0.691	14.60266
0.6915	17.6239
0.692	21.95435
0.6925	25.88196
0.693	27.19116
0.6935	24.67346
0.694	13.59558
0.6945	-2.41699
0.695	-8.96301
0.6955	-20.04089
0.696	-26.18408
0.6965	-28.19824
0.697	-29.70886
0.6975	-11.07788
0.698	-10.17151
0.6985	-5.94177
0.699	-4.53186
0.6995	-0.20142
0.7	1.40991
0.7005	-1.61133
0.701	1.91345
0.7015	3.8269
0.702	8.56018
0.7025	10.57434
0.703	3.42407
0.7035	10.57434
0.704	37.96692
0.7045	55.3894
0.705	65.25879
0.7055	62.03613
0.706	47.13135
0.7065	45.01648
0.707	32.02515
0.7075	27.79541
0.708	32.52869
0.7085	32.52869
0.709	20.54443
0.7095	9.46655
0.71	7.45239
0.7105	7.04956
0.711	6.94885
0.7115	5.23682
0.712	6.04248
0.7125	-4.33044
0.713	-5.84106
0.7135	-10.77576
0.714	-23.96851
0.7145	-18.63098
0.715	-13.89771
0.7155	-12.08496
0.716	-5.74036
0.7165	-9.56726
0.717	-6.54602
0.7175	-8.35876
0.718	18.53027
0.7185	40.08179
0.719	53.37524
0.7195	57.20215
0.72	50.15259
0.7205	45.3186
0.721	34.14001
0.7215	25.07629
0.722	10.67505
0.7225	0.70496
0.723	6.84814
0.7235	16.91895
0.724	18.8324
0.7245	5.0354
0.725	-15.60974
0.7255	-23.76709
0.726	-47.7356
0.7265	-33.43506
0.727	2.92053
0.7275	17.32178
0.728	32.83081
0.7285	41.18958
0.729	34.74426
0.7295	39.88037
0.73	38.47046
0.7305	35.04639
0.731	23.8678
0.7315	12.18567
0.732	-3.22266
0.7325	-13.39417
0.733	-25.68054
0.7335	-42.59949
0.734	-30.41382
0.7345	-18.93311
0.735	2.01416
0.7355	11.68213
0.736	36.25488
0.7365	44.71436
0.737	39.88037
0.7375	36.75842
0.738	30.31311
0.7385	15.20691
0.739	-1.91345
0.7395	-21.3501
0.74	-35.2478
0.7405	-63.24463
0.741	-86.60889
0.7415	-105.13916
0.742	-105.03845
0.7425	-96.27686
0.743	-87.31384
0.7435	-74.62463
0.744	-69.68994
0.7445	-60.72693
0.745	-51.76392
0.7455	-27.39258
0.746	-12.48779
0.7465	-9.26514
0.747	4.53186
0.7475	4.02832
0.748	12.08496
0.7485	10.17151
0.749	14.09912
0.7495	15.00549
0.75	20.64514
0.7505	27.19116
0.751	27.39258
0.7515	35.04639
0.752	34.34143
0.7525	27.09045
0.753	26.98975
0.7535	19.63806
0.754	18.93311
0.7545	13.49487
0.755	12.08496
0.7555	16.21399
0.756	16.71753
0.7565	16.21399
0.757	16.41541
0.7575	25.68054
0.758	23.16284
0.7585	30.31311
0.759	29.10461
0.7595	28.39966
0.76	26.98975
0.7605	28.9032
0.761	31.82373
0.7615	19.83948
0.762	15.20691
0.7625	16.41541
0.763	21.45081
0.7635	26.78833
0.764	25.37842
0.7645	19.83948
0.765	20.64514
0.7655	23.76709
0.766	23.06213
0.7665	21.14868
0.767	15.81116
0.7675	12.38708
0.768	10.57434
0.7685	6.14319
0.769	7.75452
0.7695	8.25806
0.77	7.04956
0.7705	12.18567
0.771	10.17151
0.7715	7.45239
0.772	9.76868
0.7725	2.61841
0.773	-8.45947
0.7735	-6.84814
0.774	-9.16443
0.7745	-11.2793
0.775	-14.30054
0.7755	-20.34302
0.776	-22.86072
0.7765	-18.8324
0.777	-19.43665
0.7775	-5.0354
0.778	2.41699
0.7785	4.33044
0.779	8.15735
0.7795	13.19275
0.78	16.51611
0.7805	22.15576
0.781	16.71753
0.7815	19.13452
0.782	16.61682
0.7825	15.50903
0.783	17.82532
0.7835	8.8623
0.784	12.89062
0.7845	13.19275
0.785	8.05664
0.7855	1.51062
0.786	0.70496
0.7865	-3.7262
0.787	-0.90637
0.7875	1.00708
0.788	-4.02832
0.7885	-2.92053
0.789	-1.81274
0.7895	-6.3446
0.79	20.54443
0.7905	35.95276
0.791	35.65063
0.7915	46.02356
0.792	78.65295
0.7925	95.5719
0.793	88.52234
0.7935	63.44604
0.794	27.49329
0.7945	3.12195
0.795	-25.98267
0.7955	-57.40356
0.796	-79.35791
0.7965	-84.59473
0.797	-81.87561
0.7975	-80.56641
0.798	-69.48853
0.7985	-46.12427
0.799	-29.10461
0.7995	-12.48779
0.8	8.35876
0.8005	16.01257
0.801	24.37134
0.8015	34.14001
0.802	47.63489
0.8025	64.151
0.803	94.66553
0.8035	112.08801
0.804	105.44128
0.8045	89.22729
0.805	58.91418
0.8055	32.02515
0.806	8.45947
0.8065	-9.36584
0.807	-18.73169
0.8075	-25.78125
0.808	-35.44922
0.8085	-38.26904
0.809	-41.79382
0.8095	-37.06055
0.81	-24.47205
0.8105	-15.91187
0.811	-10.0708
0.8115	4.53186
0.812	9.16443
0.8125	11.48071
0.813	7.65381
0.8135	10.0708
0.814	10.0708
0.8145	9.36584
0.815	48.03772
0.8155	71.90552
0.816	72.10693
0.8165	70.59631
0.817	71.7041
0.8175	58.91418
0.818	74.2218
0.8185	109.87244
0.819	116.51917
0.8195	103.82996
0.82	89.02588
0.8205	66.36658
0.821	40.88745
0.8215	14.90479
0.822	-22.25647
0.8225	-51.15967
0.823	-79.45862
0.8235	-100.6073
0.824	-115.91492
0.8245	-126.38855
0.825	-152.67334
0.8255	-166.16821
0.826	-148.94714
0.8265	-129.81262
0.827	-121.05103
0.8275	-109.26819
0.828	-96.07544
0.8285	-88.42163
0.829	-64.151
0.8295	-37.86621
0.83	-19.53735
0.8305	-1.91345
0.831	18.93311
0.8315	25.37842
0.832	31.4209
0.8325	26.28479
0.833	19.33594
0.8335	19.63806
0.834	24.77417
0.8345	28.60107
0.835	30.11169
0.8355	25.98267
0.836	17.82532
0.8365	16.91895
0.837	19.33594
0.8375	14.90479
0.838	16.91895
0.8385	22.05505
0.839	18.22815
0.8395	19.13452
0.84	18.02673
0.8405	19.23523
0.841	20.54443
0.8415	26.48621
0.842	27.59399
0.8425	22.35718
0.843	27.39258
0.8435	26.18408
0.844	23.76709
0.8445	20.44373
0.845	17.92603
0.8455	21.04797
0.846	19.23523
0.8465	22.45789
0.847	14.60266
0.8475	9.56726
0.848	12.89062
0.8485	9.46655
0.849	17.01965
0.8495	19.53735
0.85	17.12036
0.8505	21.55151
0.851	25.07629
0.8515	22.45789
0.852	16.41541
0.8525	13.69629
0.853	13.49487
0.8535	11.38
0.854	8.7616
0.8545	6.74744
0.855	1.91345
0.8555	7.5531
0.856	5.63965
0.8565	-0.40283
0.857	-1.91345
0.8575	0.40283
0.858	-5.33752
0.8585	-8.05664
0.859	-9.86938
0.8595	-9.97009
0.86	-8.56018
0.8605	-6.2439
0.861	-6.04248
0.8615	-7.35168
0.862	-7.75452
0.8625	-2.71912
0.863	0.60425
0.8635	3.7262
0.864	2.11487
0.8645	7.65381
0.865	7.35168
0.8655	16.71753
0.866	19.53735
0.8665	16.01257
0.867	18.93311
0.8675	18.93311
0.868	18.93311
0.8685	18.93311
0.869	18.93311
0.8695	18.93311
0.87	18.93311
0.8705	18.93311
0.871	18.93311
0.8715	18.93311
0.872	18.93311
0.8725	18.93311
0.873	18.93311
0.8735	18.93311
0.874	18.93311
0.8745	18.93311
0.875	18.93311
0.8755	18.93311
0.876	18.93311
0.8765	18.93311
0.877	18.93311
0.8775	-4.02832
0.878	5.43823
0.8785	5.33752
0.879	5.23682
0.8795	8.7616
0.88	7.45239
0.8805	9.66797
0.881	9.46655
0.8815	7.75452
0.882	14.30054
0.8825	17.42249
0.883	19.13452
0.8835	20.74585
0.884	17.12036
0.8845	13.39417
0.885	17.52319
0.8855	19.63806
0.886	12.38708
0.8865	15.71045
0.887	10.17151
0.8875	3.52478
0.888	-1.3092
0.8885	-1.81274
0.889	3.02124
0.8895	2.41699
0.89	2.11487
0.8905	-3.8269
0.891	-5.63965
0.8915	-6.84814
0.892	-9.76868
0.8925	3.42407
0.893	1.40991
0.8935	4.73328
0.894	2.81982
0.8945	1.51062
0.895	4.53186
0.8955	9.36584
0.896	18.12744
0.8965	16.61682
0.897	32.62939
0.8975	81.57349
0.898	104.53491
0.8985	106.04553
0.899	111.68518
0.8995	116.31775
0.9	131.82678
0.9005	132.73315
0.901	113.69934
0.9015	82.78198
0.902	55.3894
0.9025	17.12036
0.903	-23.76709
0.9035	-54.38232
0.904	-78.55225
0.9045	-89.63013
0.905	-60.72693
0.9055	-40.08179
0.906	-31.32019
0.9065	-41.39099
0.907	-42.09595
0.9075	-54.68445
0.908	-67.97791
0.9085	-63.94958
0.909	-62.43896
0.9095	-63.04321
0.91	-50.2533
0.9105	-45.62073
0.911	-33.73718
0.9115	-20.44373
0.912	-19.73877
0.9125	-13.29346
0.913	-5.94177
0.9135	-7.95593
0.914	-6.14319
0.9145	-0.40283
0.915	3.12195
0.9155	10.87646
0.916	10.97717
0.9165	7.15027
0.917	0.30212
0.9175	9.56726
0.918	8.7616
0.9185	0.20142
0.919	2.92053
0.9195	6.54602
0.92	3.52478
0.9205	6.14319
0.921	10.87646
0.9215	6.04248
0.922	7.45239
0.9225	7.95593
0.923	4.93469
0.9235	4.53186
0.924	10.0708
0.9245	10.67505
0.925	15.50903
0.9255	25.27771
0.926	20.84656
0.9265	13.89771
0.927	13.59558
0.9275	13.19275
0.928	10.27222
0.9285	8.45947
0.929	0.90637
0.9295	6.74744
0.93	9.06372
0.9305	5.94177
0.931	3.42407
0.9315	4.53186
0.932	4.12903
0.9325	-1.40991
0.933	2.11487
0.9335	41.29028
0.934	80.06287
0.9345	103.32642
0.935	121.75598
0.9355	126.08643
0.936	119.4397
0.9365	106.64978
0.937	86.91101
0.9375	67.47437
0.938	40.1825
0.9385	17.82532
0.939	-3.8269
0.9395	-22.96143
0.94	-47.13135
0.9405	-73.71826
0.941	-71.50269
0.9415	-73.41614
0.942	-71.90552
0.9425	-77.14233
0.943	-78.65295
0.9435	-84.89685
0.944	-75.4303
0.9445	-63.84888
0.945	-48.94409
0.9455	-43.40515
0.946	-30.11169
0.9465	-21.95435
0.947	-15.1062
0.9475	-1.3092
0.948	4.93469
0.9485	11.98425
0.949	23.8678
0.9495	31.62231
0.95	29.70886
0.9505	29.80957
0.951	28.19824
0.9515	25.07629
0.952	21.3501
0.9525	12.68921
0.953	10.67505
0.9535	9.16443
0.954	12.5885
0.9545	12.78992
0.955	13.99841
0.9555	17.6239
0.956	15.1062
0.9565	20.34302
0.957	24.37134
0.9575	25.57983
0.958	20.54443
0.9585	21.45081
0.959	20.1416
0.9595	12.89062
0.96	15.50903
0.9605	13.797
0.961	6.84814
0.9615	6.2439
0.962	5.33752
0.9625	6.2439
0.963	11.07788
0.9635	14.80408
0.964	11.58142
0.9645	14.50195
0.965	6.64673
0.9655	7.35168
0.966	9.36584
0.9665	0.60425
0.967	2.21558
0.9675	9.16443
0.968	14.90479
0.9685	8.56018
0.969	3.42407
0.9695	-5.23682
0.97	-6.84814
0.9705	-7.85522
0.971	-4.02832
0.9715	-9.66797
0.972	-7.25098
0.9725	-1.3092
0.973	-1.91345
0.9735	-3.62549
0.974	3.12195
0.9745	1.61133
0.975	3.92761
0.9755	6.64673
0.976	6.3446
0.9765	2.41699
0.977	5.94177
0.9775	5.33752
0.978	0.50354
0.9785	-5.23682
0.979	1.3092
0.9795	-1.71204
0.98	-8.35876
0.9805	-1.2085
0.981	-2.81982
0.9815	1.51062
0.982	-0.70496
0.9825	0.70496
0.983	-3.22266
0.9835	1.51062
0.984	-3.12195
0.9845	-2.81982
0.985	-1.91345
0.9855	-2.81982
0.986	-4.33044
0.9865	0.90637
0.987	3.52478
0.9875	30.81665
0.988	50.95825
0.9885	64.65454
0.989	55.49011
0.9895	44.91577
0.99	30.31311
0.9905	20.34302
0.991	6.84814
0.9915	-6.74744
0.992	-13.19275
0.9925	-13.69629
0.993	-15.91187
0.9935	-19.33594
0.994	-18.63098
0.9945	-6.04248
0.995	2.41699
0.9955	39.57825
0.996	67.07153
0.9965	78.55225
0.997	80.16357
0.9975	80.76782
0.998	73.31543
0.9985	63.24463
0.999	52.06604
0.9995	41.18958
1	25.37842
1.0005	9.86938
1.001	-3.02124
1.0015	-20.24231
1.002	-35.85205
1.0025	-44.51294
1.003	-52.46887
1.0035	-55.08728
1.004	-57.30286
1.0045	-57.8064
1.005	-59.41772
1.0055	-56.5979
1.006	-54.98657
1.0065	-45.3186
1.007	-26.98975
1.0075	-23.76709
1.008	-8.25806
1.0085	-4.63257
1.009	4.83398
1.0095	15.00549
1.01	19.83948
1.0105	15.60974
1.011	19.23523
1.0115	21.95435
1.012	23.46497
1.0125	20.74585
1.013	19.23523
1.0135	14.40125
1.014	6.2439
1.0145	0.60425
1.015	1.00708
1.0155	-2.41699
1.016	-2.71912
1.0165	-3.62549
1.017	-5.43823
1.0175	-2.71912
1.018	3.42407
1.0185	-4.63257
1.019	-6.64673
1.0195	-2.41699
1.02	-6.74744
1.0205	-3.52478
1.021	-2.31628
1.0215	4.33044
1.022	1.71204
1.0225	2.92053
1.023	8.7616
1.0235	12.18567
1.024	3.62549
1.0245	10.27222
1.025	14.40125
1.0255	18.22815
1.026	18.02673
1.0265	16.41541
1.027	24.97559
1.0275	24.06921
1.028	18.42957
1.0285	18.63098
1.029	21.3501
1.0295	10.37292
1.03	13.39417
1.0305	14.60266
1.031	16.21399
1.0315	13.99841
1.032	16.41541
1.0325	16.11328
1.033	18.63098
1.0335	24.87488
1.034	26.98975
1.0345	24.97559
1.035	21.55151
1.0355	18.32886
1.036	15.91187
1.0365	10.37292
1.037	2.01416
1.0375	-10.0708
1.038	-3.92761
1.0385	-7.45239
1.039	-9.56726
1.0395	-7.5531
1.04	-12.78992
1.0405	-8.56018
1.041	-5.53894
1.0415	-3.52478
1.042	-10.67505
1.0425	-5.84106
1.043	-7.15027
1.0435	-0.70496
1.044	-3.8269
1.0445	3.12195
1.045	9.97009
1.0455	8.15735
1.046	18.12744
1.0465	14.50195
1.047	12.28638
1.0475	18.32886
1.048	14.40125
1.0485	20.54443
1.049	28.39966
1.0495	22.15576
1.05	18.32886
1.0505	17.6239
1.051	18.32886
1.0515	14.40125
1.052	21.04797
1.0525	23.26355
1.053	19.53735
1.0535	19.13452
1.054	20.24231
1.0545	18.22815
1.055	10.87646
1.0555	8.7616
1.056	2.41699
1.0565	0.80566
1.057	5.53894
1.0575	4.02832
1.058	-0.70496
1.0585	-0.90637
1.059	2.01416
1.0595	-4.83398
1.06	-12.78992
1.0605	-12.38708
1.061	-10.47363
1.0615	-2.71912
1.062	1.10779
1.0625	2.71912
1.063	5.0354
1.0635	9.97009
1.064	10.97717
1.0645	9.97009
1.065	10.57434
1.0655	13.59558
1.066	9.76868
1.0665	13.19275
1.067	9.66797
1.0675	8.56018
1.068	7.25098
1.0685	5.53894
1.069	2.41699
1.0695	-4.02832
1.07	-7.5531
1.0705	-0.30212
1.071	3.8269
1.0715	3.92761
1.072	1.3092
1.0725	5.33752
1.073	2.41699
1.0735	2.31628
1.074	-2.11487
1.0745	-4.12903
1.075	-5.13611
1.0755	-1.00708
1.076	-5.33752
1.0765	-2.5177
1.077	1.3092
1.0775	-1.10779
1.078	3.42407
1.0785	-0.30212
1.079	0.30212
1.0795	2.61841
1.08	5.43823
1.0805	9.56726
1.081	-1.71204
1.0815	3.52478
1.082	-2.01416
1.0825	0.30212
1.083	1.81274
1.0835	-5.84106
1.084	-1.3092
1.0845	5.33752
1.085	15.91187
1.0855	58.41064
1.086	93.15491
1.0865	105.03845
1.087	108.1604
1.0875	116.01562
1.088	106.04553
1.0885	97.98889
1.089	75.63171
1.0895	50.75684
1.09	23.46497
1.0905	0.70496
1.091	-23.96851
1.0915	-43.80798
1.092	-73.31543
1.0925	-79.96216
1.093	-74.32251
1.0935	-72.81189
1.094	-59.41772
1.0945	-33.63647
1.095	-18.63098
1.0955	-6.74744
1.096	-0.20142
1.0965	4.73328
1.097	-5.74036
1.0975	-10.77576
1.098	-10.87646
1.0985	-16.61682
1.099	-20.54443
1.0995	-27.39258
1.1	-21.14868
1.1005	-17.6239
1.101	-10.27222
1.1015	-3.7262
1.102	-0.30212
1.1025	-1.81274
1.103	-2.61841
1.1035	-5.53894
1.104	-15.00549
1.1045	-16.01257
1.105	-11.58142
1.1055	12.28638
1.106	50.65613
1.1065	65.46021
1.107	71.7041
1.1075	71.40198
1.108	67.97791
1.1085	58.00781
1.109	50.2533
1.1095	39.17542
1.11	29.50745
1.1105	15.30762
1.111	-0.90637
1.1115	-15.60974
1.112	-30.01099
1.1125	-40.48462
1.113	-46.12427
1.1135	-41.69312
1.114	-35.75134
1.1145	-34.94568
1.115	-33.43506
1.1155	-34.64355
1.116	-33.13293
1.1165	-24.97559
1.117	-21.14868
1.1175	-14.19983
1.118	-4.73328
1.1185	-3.62549
1.119	7.65381
1.1195	5.74036
1.12	9.97009
1.1205	17.42249
1.121	14.80408
1.1215	15.91187
1.122	21.55151
1.1225	17.12036
1.123	11.2793
1.1235	8.25806
1.124	6.64673
1.1245	3.02124
1.125	0.50354
1.1255	9.46655
1.126	15.30762
1.1265	17.92603
1.127	19.94019
1.1275	15.91187
1.128	11.17859
1.1285	6.94885
1.129	1.3092
1.1295	-0.40283
1.13	6.54602
1.1305	1.91345
1.131	-0.60425
1.1315	1.81274
1.132	10.77576
1.1325	8.7616
1.133	10.47363
1.1335	11.68213
1.134	8.66089
1.1345	9.76868
1.135	15.91187
1.1355	10.67505
1.136	8.56018
1.1365	5.53894
1.137	6.14319
1.1375	2.81982
1.138	8.45947
1.1385	9.06372
1.139	13.19275
1.1395	11.68213
1.14	12.99133
1.1405	15.81116
1.141	20.04089
1.1415	15.71045
1.142	12.99133
1.1425	15.91187
1.143	15.50903
1.1435	18.63098
1.144	17.52319
1.1445	15.50903
1.145	16.51611
1.1455	13.29346
1.146	12.38708
1.1465	9.66797
1.147	9.86938
1.1475	7.45239
1.148	0.90637
1.1485	-3.32336
1.149	0.50354
1.1495	-2.41699
1.15	-0.20142
1.1505	-0.50354
1.151	2.71912
1.1515	-1.81274
1.152	3.32336
1.1525	4.02832
1.153	7.35168
1.1535	9.26514
1.154	19.33594
1.1545	14.40125
1.155	14.80408
1.1555	17.52319
1.156	17.92603
1.1565	21.14868
1.157	22.15576
1.1575	19.03381
1.158	12.5885
1.1585	12.28638
1.159	13.69629
1.1595	8.05664
1.16	7.75452
1.1605	7.65381
1.161	0
1.1615	0.20142
1.162	-4.53186
1.1625	-5.94177
1.163	-6.54602
1.1635	-7.95593
1.164	-17.12036
1.1645	-9.76868
1.165	-8.7616
1.1655	-7.25098
1.166	-5.53894
1.1665	-2.41699
1.167	-8.45947
1.1675	-8.25806
1.168	-1.91345
1.1685	-1.40991
1.169	1.51062
1.1695	-0.60425
1.17	-1.2085
1.1705	2.61841
1.171	7.5531
1.1715	8.45947
1.172	1.10779
1.1725	2.01416
1.173	2.81982
1.1735	1.00708
1.174	-0.40283
1.1745	4.93469
1.175	2.01416
1.1755	3.92761
1.176	2.31628
1.1765	3.7262
1.177	-2.61841
1.1775	6.2439
1.178	3.12195
1.1785	2.31628
1.179	-1.61133
1.1795	-7.25098
1.18	-0.10071
1.1805	2.92053
1.181	7.85522
1.1815	6.84814
1.182	5.94177
1.1825	6.04248
1.183	-2.71912
1.1835	1.71204
1.184	6.14319
1.1845	2.81982
1.185	5.74036
1.1855	10.87646
1.186	10.17151
1.1865	14.09912
1.187	17.12036
1.1875	14.19983
1.188	15.1062
1.1885	16.3147
1.189	18.12744
1.1895	14.50195
1.19	11.17859
1.1905	11.38
1.191	5.94177
1.1915	3.62549
1.192	15.00549
1.1925	38.77258
1.193	57.70569
1.1935	58.41064
1.194	51.15967
1.1945	35.2478
1.195	22.86072
1.1955	10.87646
1.196	-2.92053
1.1965	-13.29346
1.197	-18.8324
1.1975	-19.13452
1.198	-19.13452
1.1985	-23.16284
1.199	-14.70337
1.1995	-11.07788
1.2	-9.36584
1.2005	-8.35876
1.201	1.81274
1.2015	-2.11487
1.202	2.11487
1.2025	6.84814
1.203	10.17151
1.2035	6.94885
1.204	17.82532
1.2045	20.44373
1.205	19.23523
1.2055	13.09204
1.206	11.38
1.2065	6.04248
1.207	4.93469
1.2075	7.75452
1.208	6.74744
1.2085	4.02832
1.209	2.81982
1.2095	-7.25098
1.21	-3.42407
1.2105	-2.5177
1.211	13.19275
1.2115	49.64905
1.212	63.14392
1.2125	67.97791
1.213	66.36658
1.2135	64.55383
1.214	60.4248
1.2145	54.88586
1.215	38.974
1.2155	27.49329
1.216	14.30054
1.2165	-1.81274
1.217	-15.20691
1.2175	-28.50037
1.218	-42.19666
1.2185	-50.354
1.219	-47.03064
1.2195	-49.54834
1.22	-32.12585
1.2205	-32.7301
1.221	-34.34143
1.2215	-29.20532
1.222	-24.97559
1.2225	-17.32178
1.223	-16.81824
1.2235	-9.46655
1.224	-7.5531
1.2245	-1.2085
1.225	-4.53186
1.2255	4.02832
1.226	10.57434
1.2265	8.7616
1.227	10.37292
1.2275	8.66089
1.228	7.25098
1.2285	11.58142
1.229	10.37292
1.2295	11.88354
1.23	12.48779
1.2305	10.77576
1.231	7.15027
1.2315	9.86938
1.232	14.19983
1.2325	14.90479
1.233	19.63806
1.2335	15.30762
1.234	13.89771
1.2345	5.33752
1.235	6.64673
1.2355	3.8269
1.236	-7.15027
1.2365	-14.30054
1.237	-11.68213
1.2375	-4.83398
1.238	-10.67505
1.2385	-12.18567
1.239	-12.5885
1.2395	-8.56018
1.24	-13.19275
1.2405	-12.38708
1.241	-8.15735
1.2415	-5.94177
1.242	-5.23682
1.2425	16.91895
1.243	69.1864
1.2435	94.96765
1.244	111.9873
1.2445	116.51917
1.245	117.52625
1.2455	112.39014
1.246	103.42712
1.2465	81.27136
1.247	57.70569
1.2475	33.03223
1.248	4.33044
1.2485	-21.85364
1.249	-41.08887
1.2495	-63.84888
1.25	-72.61047
1.2505	-68.17932
1.251	-62.13684
1.2515	-60.72693
1.252	-59.41772
1.2525	-60.12268
1.253	-62.03613
1.2535	-50.85754
1.254	-42.59949
1.2545	-29.80957
1.255	-24.77417
1.2555	-14.30054
1.256	-6.04248
1.2565	2.81982
1.257	1.00708
1.2575	1.2085
1.258	11.07788
1.2585	17.82532
1.259	19.43665
1.2595	12.78992
1.26	11.68213
1.2605	12.99133
1.261	8.8623
1.2615	8.8623
1.262	11.38
1.2625	13.797
1.263	14.80408
1.2635	11.07788
1.264	10.87646
1.2645	10.67505
1.265	9.26514
1.2655	9.16443
1.266	13.99841
1.2665	15.91187
1.267	15.60974
1.2675	18.93311
1.268	21.3501
1.2685	19.13452
1.269	18.93311
1.2695	18.63098
1.27	10.47363
1.2705	15.50903
1.271	9.76868
1.2715	3.52478
1.272	4.83398
1.2725	3.7262
1.273	4.12903
1.2735	-1.91345
1.274	1.71204
1.2745	6.64673
1.275	11.48071
1.2755	14.40125
1.276	9.46655
1.2765	9.36584
1.277	9.76868
1.2775	10.0708
1.278	4.93469
1.2785	8.05664
1.279	5.43823
1.2795	14.19983
1.28	17.6239
1.2805	12.18567
1.281	10.67505
1.2815	13.89771
1.282	16.3147
1.2825	12.38708
1.283	10.97717
1.2835	5.53894
1.284	11.38
1.2845	10.0708
1.285	16.71753
1.2855	16.81824
1.286	11.58142
1.2865	13.09204
1.287	9.16443
1.2875	9.16443
1.288	9.16443
1.2885	9.16443
1.289	9.16443
1.2895	9.16443
1.29	9.16443
1.2905	9.16443
1.291	9.16443
1.2915	9.16443
1.292	9.16443
1.2925	9.16443
1.293	9.16443
1.2935	9.16443
1.294	9.16443
1.2945	9.16443
1.295	9.16443
1.2955	9.16443
1.296	9.16443
1.2965	9.16443
1.297	9.16443
1.2975	1.91345
1.298	-1.00708
1.2985	0.80566
1.299	10.0708
1.2995	6.14319
1.3	11.68213
1.3005	14.19983
1.301	11.17859
1.3015	8.7616
1.302	7.35168
1.3025	10.47363
1.303	13.39417
1.3035	13.29346
1.304	11.38
1.3045	11.98425
1.305	11.2793
1.3055	14.50195
1.306	9.66797
1.3065	5.13611
1.307	3.62549
1.3075	12.28638
1.308	5.74036
1.3085	1.2085
1.309	-5.43823
1.3095	-6.04248
1.31	-5.84106
1.3105	1.3092
1.311	2.01416
1.3115	5.74036
1.312	6.44531
1.3125	12.89062
1.313	46.5271
1.3135	65.05737
1.314	77.44446
1.3145	79.05579
1.315	71.20056
1.3155	64.151
1.316	47.8363
1.3165	36.4563
1.317	32.02515
1.3175	11.58142
1.318	-4.73328
1.3185	-17.22107
1.319	-31.32019
1.3195	-47.63489
1.32	-53.67737
1.3205	-62.64038
1.321	-57.60498
1.3215	-55.3894
1.322	-50.05188
1.3225	-40.2832
1.323	-36.95984
1.3235	-30.91736
1.324	-24.87488
1.3245	-13.99841
1.325	-5.43823
1.3255	2.5177
1.326	9.16443
1.3265	8.45947
1.327	11.68213
1.3275	17.72461
1.328	17.82532
1.3285	19.83948
1.329	23.8678
1.3295	20.84656
1.33	14.40125
1.3305	14.19983
1.331	12.48779
1.3315	7.85522
1.332	8.56018
1.3325	9.86938
1.333	6.84814
1.3335	4.93469
1.334	0.40283
1.3345	-0.30212
1.335	0.60425
1.3355	6.74744
1.336	-0.70496
1.3365	8.56018
1.337	9.46655
1.3375	9.06372
1.338	17.72461
1.3385	21.04797
1.339	16.41541
1.3395	15.91187
1.34	16.41541
1.3405	17.01965
1.341	8.15735
1.3415	8.15735
1.342	8.25806
1.3425	5.23682
1.343	2.21558
1.3435	-0.10071
1.344	3.52478
1.3445	6.74744
1.345	7.04956
1.3455	0.60425
1.346	6.74744
1.3465	7.35168
1.347	3.22266
1.3475	3.12195
1.348	4.83398
1.3485	5.43823
1.349	5.33752
1.3495	4.73328
1.35	-3.02124
1.3505	0
1.351	2.21558
1.3515	3.62549
1.352	1.51062
1.3525	4.43115
1.353	5.53894
1.3535	7.65381
1.354	10.67505
1.3545	13.09204
1.355	10.0708
1.3555	14.30054
1.356	10.37292
1.3565	10.57434
1.357	16.81824
1.3575	16.11328
1.358	14.19983
1.3585	12.08496
1.359	7.75452
1.3595	7.15027
1.36	8.45947
1.3605	4.02832
1.361	3.32336
1.3615	-0.80566
1.362	-5.53894
1.3625	-5.43823
1.363	-2.01416
1.3635	-8.25806
1.364	-4.93469
1.3645	-0.60425
1.365	-4.83398
1.3655	-6.2439
1.366	-4.22974
1.3665	-9.16443
1.367	0.50354
1.3675	3.62549
1.368	7.25098
1.3685	4.73328
1.369	6.44531
1.3695	5.23682
1.37	4.12903
1.3705	7.95593
1.371	5.13611
1.3715	2.81982
1.372	2.21558
1.3725	-0.10071
1.373	0.40283
1.3735	1.61133
1.374	0.40283
1.3745	0.20142
1.375	5.13611
1.3755	4.53186
1.376	4.22974
1.3765	3.02124
1.377	5.23682
1.3775	1.51062
1.378	-0.60425
1.3785	6.84814
1.379	10.67505
1.3795	3.8269
1.38	7.25098
1.3805	4.93469
1.381	7.75452
1.3815	11.2793
1.382	11.98425
1.3825	10.0708
1.383	12.5885
1.3835	14.40125
1.384	7.85522
1.3845	2.31628
1.385	3.92761
1.3855	4.12903
1.386	1.51062
1.3865	8.25806
1.387	6.2439
1.3875	-1.91345
1.388	-5.13611
1.3885	-6.84814
1.389	3.52478
1.3895	8.05664
1.39	2.5177
1.3905	7.04956
1.391	4.83398
1.3915	10.87646
1.392	10.67505
1.3925	20.44373
1.393	16.01257
1.3935	17.42249
1.394	19.23523
1.3945	12.5885
1.395	12.5885
1.3955	16.21399
1.396	15.20691
1.3965	11.88354
1.397	7.85522
1.3975	13.49487
1.398	14.80408
1.3985	12.89062
1.399	18.53027
1.3995	20.34302
1.4	8.7616
1.4005	5.33752
1.401	5.94177
1.4015	10.97717
1.402	11.38
1.4025	11.58142
1.403	8.25806
1.4035	6.64673
1.404	7.45239
1.4045	11.88354
1.405	1.51062
1.4055	6.74744
1.406	7.35168
1.4065	11.58142
1.407	8.25806
1.4075	7.65381
1.408	3.12195
1.4085	-2.5177
1.409	5.43823
1.4095	-1.3092
1.41	0.80566
1.4105	-1.71204
1.411	-3.12195
1.4115	-8.66089
1.412	-8.35876
1.4125	-10.87646
1.413	-17.42249
1.4135	-9.97009
1.414	-14.90479
1.4145	-9.06372
1.415	-5.23682
1.4155	-6.74744
1.416	-9.46655
1.4165	-7.5531
1.417	-9.26514
1.4175	-6.84814
1.418	-4.53186
1.4185	-7.45239
1.419	-7.45239
1.4195	-1.51062
1.42	-4.43115
1.4205	-3.02124
1.421	-3.22266
1.4215	-0.70496
1.422	-2.31628
1.4225	-1.40991
1.423	-0.60425
1.4235	2.41699
1.424	-0.50354
1.4245	2.11487
1.425	-1.40991
1.4255	-1.10779
1.426	26.08337
1.4265	53.57666
1.427	65.05737
1.4275	65.96375
1.428	63.94958
1.4285	57.20215
1.429	52.771
1.4295	40.08179
1.43	27.19116
1.4305	17.32178
1.431	7.35168
1.4315	-10.17151
1.432	-18.8324
1.4325	-36.4563
1.433	-46.42639
1.4335	-49.74976
1.434	-51.96533
1.4345	-54.28162
1.435	-40.38391
1.4355	-38.57117
1.436	-38.77258
1.4365	-36.35559
1.437	-28.80249
1.4375	-18.42957
1.438	-14.80408
1.4385	-4.83398
1.439	-1.91345
1.4395	1.81274
1.44	6.94885
1.4405	10.37292
1.441	14.19983
1.4415	17.32178
1.442	18.93311
1.4425	25.27771
1.443	25.47913
1.4435	21.45081
1.444	16.41541
1.4445	17.42249
1.445	14.90479
1.4455	16.01257
1.446	15.40833
1.4465	18.73169
1.447	15.40833
1.4475	11.17859
1.448	6.2439
1.4485	14.40125
1.449	16.71753
1.4495	7.95593
1.45	6.64673
1.4505	11.68213
1.451	10.97717
1.4515	12.5885
1.452	14.90479
1.4525	12.08496
1.453	13.09204
1.4535	13.59558
1.454	17.22107
1.4545	8.7616
1.455	12.5885
1.4555	13.59558
1.456	16.71753
1.4565	13.89771
1.457	12.5885
1.4575	11.98425
1.458	15.00549
1.4585	9.46655
1.459	10.17151
1.4595	9.86938
1.46	11.38
1.4605	7.5531
1.461	2.71912
1.4615	4.02832
1.462	0.40283
1.4625	-7.04956
1.463	-8.56018
1.4635	-11.48071
1.464	-6.44531
1.4645	-8.96301
1.465	-18.73169
1.4655	-13.797
1.466	-8.45947
1.4665	-3.02124
1.467	0.30212
1.4675	1.71204
1.468	1.71204
1.4685	1.10779
1.469	7.25098
1.4695	1.81274
1.47	-2.61841
1.4705	-1.91345
1.471	-12.48779
1.4715	-9.26514
1.472	-13.69629
1.4725	-21.3501
1.473	-20.24231
1.4735	-9.06372
1.474	-8.45947
1.4745	-2.21558
1.475	-0.70496
1.4755	5.33752
1.476	6.64673
1.4765	12.99133
1.477	3.8269
1.4775	0.50354
1.478	0.60425
1.4785	-0.40283
1.479	1.51062
1.4795	7.5531
1.48	4.02832
1.4805	2.31628
1.481	9.06372
1.4815	11.17859
1.482	12.18567
1.4825	9.86938
1.483	11.58142
1.4835	4.33044
1.484	10.27222
1.4845	13.69629
1.485	12.5885
1.4855	14.80408
1.486	15.60974
1.4865	12.08496
1.487	16.11328
1.4875	16.11328
1.488	17.01965
1.4885	15.20691
1.489	15.71045
1.4895	18.32886
1.49	16.71753
1.4905	15.1062
1.491	13.69629
1.4915	19.43665
1.492	21.45081
1.4925	19.43665
1.493	18.53027
1.4935	15.71045
1.494	17.22107
1.4945	24.27063
1.495	16.51611
1.4955	16.21399
1.496	10.17151
1.4965	7.15027
1.497	7.04956
1.4975	3.8269
1.498	2.11487
1.4985	-3.62549
1.499	-7.75452
1.4995	-11.88354
1.5	-6.74744
1.5005	-11.48071
1.501	-10.87646
1.5015	-8.96301
1.502	-9.66797
1.5025	-6.3446
1.503	-4.93469
1.5035	2.11487
1.504	1.3092
1.5045	1.00708
1.505	1.10779
1.5055	-0.50354
1.506	0.60425
1.5065	6.64673
1.507	5.84106
1.5075	1.3092
1.508	6.2439
1.5085	13.69629
1.509	11.58142
1.5095	15.1062
1.51	11.68213
1.5105	7.95593
1.511	11.98425
1.5115	9.46655
1.512	7.95593
1.5125	7.75452
1.513	4.53186
1.5135	3.62549
1.514	3.62549
1.5145	3.12195
1.515	-0.20142
1.5155	0.70496
1.516	-2.71912
1.5165	-6.54602
1.517	-0.30212
1.5175	0.10071
1.518	-6.2439
1.5185	-5.23682
1.519	0.20142
1.5195	3.22266
1.52	5.94177
1.5205	4.02832
1.521	5.33752
1.5215	8.56018
1.522	12.5885
1.5225	6.64673
1.523	10.0708
1.5235	18.42957
1.524	16.51611
1.5245	13.39417
1.525	10.87646
1.5255	11.38
1.526	8.35876
1.5265	14.19983
1.527	16.3147
1.5275	11.48071
1.528	11.68213
1.5285	12.48779
1.529	12.48779
1.5295	16.41541
1.53	10.87646
1.5305	8.05664
1.531	15.00549
1.5315	21.3501
1.532	51.5625
1.5325	73.91968
1.533	75.73242
1.5335	75.83313
1.534	68.38074
1.5345	58.91418
1.535	46.32568
1.5355	40.68604
1.536	23.8678
1.5365	12.08496
1.537	-3.7262
1.5375	-23.26355
1.538	-38.67188
1.5385	-54.78516
1.539	-62.43896
1.5395	-64.95667
1.54	-63.14392
1.5405	-59.82056
1.541	-54.18091
1.5415	-51.46179
1.542	-44.91577
1.5425	-36.05347
1.543	-33.83789
1.5435	-22.96143
1.544	-18.22815
1.5445	-14.09912
1.545	-4.33044
1.5455	-6.84814
1.546	1.40991
1.5465	3.42407
1.547	6.2439
1.5475	6.94885
1.548	16.3147
1.5485	21.45081
1.549	28.50037
1.5495	23.06213
1.55	22.76001
1.5505	24.57275
1.551	26.48621
1.5515	22.35718
1.552	18.63098
1.5525	19.33594
1.553	9.86938
1.5535	16.71753
1.554	15.00549
1.5545	14.90479
1.555	24.87488
1.5555	38.57117
1.556	35.14709
1.5565	33.63647
1.557	27.89612
1.5575	26.68762
1.558	26.78833
1.5585	20.1416
1.559	6.74744
1.5595	-1.2085
1.56	-2.5177
1.5605	-8.25806
1.561	-17.52319
1.5615	-16.21399
1.562	-21.85364
1.5625	-15.20691
1.563	-13.19275
1.5635	-11.38
1.564	-12.48779
1.5645	-6.04248
1.565	-6.74744
1.5655	-9.66797
1.566	-10.87646
1.5665	-8.15735
1.567	-2.61841
1.5675	-5.43823
1.568	3.92761
1.5685	3.42407
1.569	6.64673
1.5695	7.45239
1.57	9.66797
1.5705	13.09204
1.571	15.00549
1.5715	13.49487
1.572	10.47363
1.5725	15.30762
1.573	14.70337
1.5735	12.28638
1.574	13.89771
1.5745	10.57434
1.575	13.89771
1.5755	15.91187
1.576	16.01257
1.5765	11.07788
1.577	13.59558
1.5775	12.48779
1.578	14.60266
1.5785	17.72461
1.579	16.01257
1.5795	11.68213
1.58	14.60266
1.5805	6.3446
1.581	10.77576
1.5815	12.18567
1.582	5.94177
1.5825	5.94177
1.583	5.84106
1.5835	6.74744
1.584	5.23682
1.5845	10.77576
1.585	6.94885
1.5855	6.54602
1.586	1.61133
1.5865	-1.40991
1.587	3.8269
1.5875	6.54602
1.588	3.7262
1.5885	10.57434
1.589	12.5885
1.5895	13.99841
1.59	15.91187
1.5905	5.84106
1.591	11.2793
1.5915	10.77576
1.592	3.22266
1.5925	2.71912
1.593	-4.33044
1.5935	-1.40991
1.594	-9.26514
1.5945	-8.25806
1.595	-4.63257
1.5955	1.00708
1.596	3.92761
1.5965	1.81274
1.597	1.71204
1.5975	0.80566
1.598	1.3092
1.5985	5.74036
1.599	4.93469
1.5995	2.01416
1.6	0.10071
1.6005	2.01416
1.601	7.5531
1.6015	9.86938
1.602	16.71753
1.6025	12.28638
1.603	17.82532
1.6035	13.99841
1.604	13.29346
1.6045	7.75452
1.605	8.35876
1.6055	3.92761
1.606	0.20142
1.6065	38.06763
1.607	60.12268
1.6075	60.12268
1.608	60.12268
1.6085	60.12268
1.609	60.12268
1.6095	60.12268
1.61	60.12268
1.6105	60.12268
1.611	60.12268
1.6115	60.12268
1.612	60.12268
1.6125	60.12268
1.613	60.12268
1.6135	60.12268
1.614	60.12268
1.6145	60.12268
1.615	60.12268
1.6155	60.12268
1.616	60.12268
1.6165	60.12268
1.617	60.12268
1.6175	-16.51611
1.618	-12.68921
1.6185	1.61133
1.619	9.86938
1.6195	12.99133
1.62	8.56018
1.6205	9.06372
1.621	9.86938
1.6215	13.19275
1.622	16.61682
1.6225	16.41541
1.623	19.73877
1.6235	12.99133
1.624	17.42249
1.6245	16.51611
1.625	9.56726
1.6255	7.85522
1.626	8.7616
1.6265	0.40283
1.627	-1.00708
1.6275	5.84106
1.628	4.53186
1.6285	0.20142
1.629	8.8623
1.6295	8.05664
1.63	2.71912
1.6305	-0.30212
1.631	5.74036
1.6315	-1.00708
1.632	-0.50354
1.6325	4.12903
1.633	1.40991
1.6335	0.70496
1.634	-0.20142
1.6345	4.83398
1.635	4.73328
1.6355	5.43823
1.636	1.40991
1.6365	10.97717
1.637	6.84814
1.6375	7.25098
1.638	4.73328
1.6385	9.46655
1.639	11.88354
1.6395	10.77576
1.64	14.19983
1.6405	8.8623
1.641	11.38
1.6415	11.78284
1.642	11.38
1.6425	12.89062
1.643	13.39417
1.6435	8.35876
1.644	6.94885
1.6445	9.97009
1.645	7.95593
1.6455	2.41699
1.646	9.46655
1.6465	2.41699
1.647	4.02832
1.6475	4.43115
1.648	-1.71204
1.6485	-1.3092
1.649	0.30212
1.6495	2.41699
1.65	1.10779
1.6505	1.10779
1.651	3.92761
1.6515	4.43115
1.652	4.53186
1.6525	-5.63965
1.653	-2.11487
1.6535	-0.20142
1.654	0.50354
1.6545	5.94177
1.655	4.73328
1.6555	-0.70496
1.656	-0.50354
1.6565	4.93469
1.657	4.63257
1.6575	1.00708
1.658	2.71912
1.6585	5.13611
1.659	6.3446
1.6595	8.45947
1.66	7.35168
1.6605	5.13611
1.661	7.85522
1.6615	7.25098
1.662	-1.10779
1.6625	0.20142
1.663	3.7262
1.6635	2.21558
1.664	5.53894
1.6645	7.25098
1.665	7.95593
1.6655	7.65381
1.666	9.46655
1.6665	8.35876
1.667	7.04956
1.6675	13.49487
1.668	10.0708
1.6685	8.25806
1.669	15.71045
1.6695	12.38708
1.67	9.36584
1.6705	12.38708
1.671	8.66089
1.6715	10.27222
1.672	11.78284
1.6725	21.04797
1.673	16.3147
1.6735	15.00549
1.674	9.16443
1.6745	9.26514
1.675	5.63965
1.6755	3.42407
1.676	0.80566
1.6765	-2.81982
1.677	3.12195
1.6775	0.20142
1.678	2.61841
1.6785	8.35876
1.679	12.78992
1.6795	13.19275
1.68	18.53027
1.6805	16.01257
1.681	7.65381
1.6815	15.50903
1.682	13.59558
1.6825	14.60266
1.683	9.26514
1.6835	0.70496
1.684	-0.60425
1.6845	2.41699
1.685	-7.15027
1.6855	-4.43115
1.686	-2.81982
1.6865	-0.40283
1.687	-5.43823
1.6875	-3.52478
1.688	5.23682
1.6885	0.50354
1.689	-0.10071
1.6895	2.92053
1.69	0.60425
1.6905	-3.8269
1.691	0.40283
1.6915	-2.11487
1.692	-2.21558
1.6925	4.93469
1.693	-1.00708
1.6935	-0.60425
1.694	2.31628
1.6945	-2.01416
1.695	0.40283
1.6955	-3.92761
1.696	-2.41699
1.6965	-2.21558
1.697	-1.2085
1.6975	-0.50354
1.698	1.61133
1.6985	-0.20142
1.699	6.2439
1.6995	8.25806
1.7	7.45239
1.7005	8.25806
1.701	10.67505
1.7015	11.88354
1.702	15.20691
1.7025	16.01257
1.703	12.28638
1.7035	8.05664
1.704	10.87646
1.7045	13.49487
1.705	7.65381
1.7055	7.5531
1.706	7.04956
1.7065	4.22974
1.707	6.44531
1.7075	6.64673
1.708	0
1.7085	1.91345
1.709	5.13611
1.7095	7.45239
1.71	7.15027
1.7105	10.17151
1.711	43.80798
1.7115	69.08569
1.712	78.85437
1.7125	79.35791
1.713	78.04871
1.7135	71.40198
1.714	57.30286
1.7145	47.33276
1.715	28.60107
1.7155	7.5531
1.716	-5.43823
1.7165	-19.73877
1.717	-41.08887
1.7175	-52.06604
1.718	-57.60498
1.7185	-58.61206
1.719	-58.91418
1.7195	-53.67737
1.72	-51.36108
1.7205	-50.95825
1.721	-45.82214
1.7215	-37.46338
1.722	-29.60815
1.7225	-16.51611
1.723	-12.18567
1.7235	-8.05664
1.724	-1.91345
1.7245	2.81982
1.725	6.94885
1.7255	7.25098
1.726	7.95593
1.7265	10.67505
1.727	17.72461
1.7275	18.22815
1.728	15.40833
1.7285	14.70337
1.729	17.72461
1.7295	18.53027
1.73	14.40125
1.7305	15.81116
1.731	12.78992
1.7315	14.30054
1.732	10.97717
1.7325	7.04956
1.733	10.37292
1.7335	14.30054
1.734	4.83398
1.7345	8.15735
1.735	9.66797
1.7355	3.7262
1.736	-1.00708
1.7365	0.80566
1.737	-3.22266
1.7375	-2.92053
1.738	-3.52478
1.7385	-2.5177
1.739	2.71912
1.7395	1.81274
1.74	5.23682
1.7405	4.73328
1.741	3.22266
1.7415	8.66089
1.742	10.17151
1.7425	10.17151
1.743	7.15027
1.7435	7.75452
1.744	11.68213
1.7445	11.98425
1.745	8.45947
1.7455	14.50195
1.746	7.35168
1.7465	5.94177
1.747	7.35168
1.7475	6.14319
1.748	-0.30212
1.7485	3.32336
1.749	4.02832
1.7495	2.41699
1.75	1.91345
1.7505	1.00708
1.751	1.40991
1.7515	-3.7262
1.752	-2.81982
1.7525	-5.0354
1.753	-2.92053
1.7535	0.30212
1.754	-0.40283
1.7545	-1.40991
1.755	1.81274
1.7555	2.5177
1.756	7.45239
1.7565	5.43823
1.757	6.2439
1.7575	4.22974
1.758	8.96301
1.7585	4.12903
1.759	4.43115
1.7595	6.84814
1.76	11.48071
1.7605	2.21558
1.761	5.94177
1.7615	11.07788
1.762	10.47363
1.7625	12.18567
1.763	9.86938
1.7635	11.38
1.764	11.17859
1.7645	14.19983
1.765	11.58142
1.7655	16.91895
1.766	13.69629
1.7665	19.63806
1.767	12.28638
1.7675	9.76868
1.768	5.0354
1.7685	12.28638
1.769	5.74036
1.7695	-3.62549
1.77	3.12195
1.7705	6.04248
1.771	10.17151
1.7715	7.45239
1.772	13.09204
1.7725	12.78992
1.773	12.5885
1.7735	14.60266
1.774	15.00549
1.7745	13.09204
1.775	7.35168
1.7755	5.33752
1.776	5.33752
1.7765	1.71204
1.777	6.64673
1.7775	3.22266
1.778	-0.30212
1.7785	0.30212
1.779	0.80566
1.7795	-6.64673
1.78	-8.05664
1.7805	-6.44531
1.781	-3.02124
1.7815	-2.21558
1.782	-3.32336
1.7825	0.50354
1.783	-2.11487
1.7835	-2.5177
1.784	4.53186
1.7845	4.53186
1.785	10.17151
1.7855	4.83398
1.786	6.94885
1.7865	4.22974
1.787	10.67505
1.7875	7.5531
1.788	8.8623
1.7885	9.46655
1.789	9.86938
1.7895	9.26514
1.79	8.96301
1.7905	11.68213
1.791	12.18567
1.7915	13.39417
1.792	18.63098
1.7925	19.13452
1.793	22.15576
1.7935	21.75293
1.794	27.79541
1.7945	26.28479
1.795	20.84656
1.7955	23.66638
1.796	21.24939
1.7965	17.52319
1.797	18.53027
1.7975	13.29346
1.798	6.94885
1.7985	-0.70496
1.799	-5.94177
1.7995	-9.46655
1.8	-8.25806
1.8005	-4.53186
1.801	-14.90479
1.8015	-7.75452
1.802	-1.81274
1.8025	-2.81982
1.803	-0.80566
1.8035	-3.12195
1.804	-0.70496
1.8045	-2.71912
1.805	-6.04248
1.8055	-14.30054
1.806	-12.38708
1.8065	-6.14319
1.807	-9.06372
1.8075	-5.0354
1.808	4.43115
1.8085	5.13611
1.809	3.12195
1.8095	10.27222
1.81	5.43823
1.8105	12.08496
1.811	11.58142
1.8115	7.65381
1.812	6.14319
1.8125	12.08496
1.813	7.5531
1.8135	5.53894
1.814	2.21558
1.8145	2.41699
1.815	3.22266
1.8155	3.02124
1.816	0.10071
1.8165	6.14319
1.817	1.40991
1.8175	4.43115
1.818	4.02832
1.8185	2.01416
1.819	0.50354
1.8195	5.23682
1.82	5.43823
1.8205	1.51062
1.821	-1.51062
1.8215	1.91345
1.822	-1.71204
1.8225	-2.21558
1.823	-1.91345
1.8235	-4.43115
1.824	-2.41699
1.8245	-3.92761
1.825	0.40283
1.8255	6.2439
1.826	9.46655
1.8265	6.44531
1.827	10.67505
1.8275	7.25098
1.828	7.75452
1.8285	18.53027
1.829	12.99133
1.8295	11.68213
1.83	8.66089
1.8305	15.81116
1.831	11.58142
1.8315	16.41541
1.832	10.27222
1.8325	10.57434
1.833	12.18567
1.8335	11.07788
1.834	39.17542
1.8345	65.25879
1.835	73.31543
1.8355	75.22888
1.836	71.20056
1.8365	65.76233
1.837	49.54834
1.8375	44.41223
1.838	26.78833
1.8385	11.78284
1.839	-4.22974
1.8395	-22.96143
1.84	-36.25488
1.8405	-46.42639
1.841	-53.77808
1.8415	-61.53259
1.842	-57.70569
1.8425	-59.92126
1.843	-53.17383
1.8435	-54.88586
1.844	-57.20215
1.8445	-50.95825
1.845	-38.06763
1.8455	-30.2124
1.846	-22.25647
1.8465	-6.44531
1.847	-5.94177
1.8475	-3.02124
1.848	1.91345
1.8485	5.0354
1.849	12.99133
1.8495	18.42957
1.85	21.85364
1.8505	29.40674
1.851	21.3501
1.8515	22.76001
1.852	17.72461
1.8525	17.92603
1.853	17.42249
1.8535	17.01965
1.854	16.11328
1.8545	7.04956
1.855	11.68213
1.8555	13.19275
1.856	5.74036
1.8565	3.32336
1.857	0.20142
1.8575	2.71912
1.858	6.14319
1.8585	6.84814
1.859	2.31628
1.8595	7.04956
1.86	11.78284
1.8605	7.75452
1.861	17.6239
1.8615	9.46655
1.862	6.64673
1.8625	10.87646
1.863	10.57434
1.8635	7.75452
1.864	10.67505
1.8645	8.45947
1.865	1.81274
1.8655	2.5177
1.866	0.30212
1.8665	0.10071
1.867	1.40991
1.8675	-1.3092
1.868	-1.61133
1.8685	-2.71912
1.869	0.10071
1.8695	1.40991
1.87	2.41699
1.8705	1.51062
1.871	3.02124
1.8715	3.92761
1.872	4.53186
1.8725	4.02832
1.873	1.40991
1.8735	3.62549
1.874	2.5177
1.8745	0.90637
1.875	-2.61841
1.8755	-2.81982
1.876	1.91345
1.8765	3.52478
1.877	2.41699
1.8775	3.42407
1.878	0.80566
1.8785	3.32336
1.879	9.06372
1.8795	3.62549
1.88	11.17859
1.8805	5.13611
1.881	7.45239
1.8815	13.59558
1.882	18.22815
1.8825	13.59558
1.883	14.70337
1.8835	16.21399
1.884	10.87646
1.8845	13.29346
1.885	8.45947
1.8855	9.26514
1.886	11.17859
1.8865	12.78992
1.887	11.17859
1.8875	7.65381
1.888	4.93469
1.8885	-3.22266
1.889	-4.63257
1.8895	-0.10071
1.89	-5.13611
1.8905	-1.2085
1.891	-4.63257
1.8915	-9.26514
1.892	-7.85522
1.8925	-6.74744
1.893	-6.54602
1.8935	-4.53186
1.894	-3.92761
1.8945	-6.2439
1.895	1.00708
1.8955	-1.10779
1.896	5.84106
1.8965	3.02124
1.897	10.27222
1.8975	6.3446
1.898	10.37292
1.8985	11.07788
1.899	11.2793
1.8995	13.89771
1.9	16.21399
1.9005	14.40125
1.901	12.99133
1.9015	21.04797
1.902	21.14868
1.9025	16.71753
1.903	15.40833
1.9035	17.72461
1.904	17.12036
1.9045	17.72461
1.905	13.39417
1.9055	8.05664
1.906	7.25098
1.9065	8.8623
1.907	11.48071
1.9075	8.15735
1.908	11.78284
1.9085	8.45947
1.909	15.00549
1.9095	12.18567
1.91	7.45239
1.9105	3.62549
1.911	7.15027
1.9115	11.78284
1.912	5.63965
1.9125	1.81274
1.913	6.94885
1.9135	4.63257
1.914	8.15735
1.9145	6.14319
1.915	11.88354
1.9155	3.02124
1.916	3.42407
1.9165	1.81274
1.917	3.32336
1.9175	4.43115
1.918	1.61133
1.9185	-1.10779
1.919	3.02124
1.9195	5.74036
1.92	2.41699
1.9205	5.33752
1.921	5.13611
1.9215	5.74036
1.922	3.62549
1.9225	1.61133
1.923	2.81982
1.9235	2.5177
1.924	3.12195
1.9245	-2.61841
1.925	-2.41699
1.9255	-3.7262
1.926	-1.40991
1.9265	1.71204
1.927	3.8269
1.9275	4.63257
1.928	2.92053
1.9285	1.71204
1.929	4.53186
1.9295	7.95593
1.93	9.76868
1.9305	5.53894
1.931	0.90637
1.9315	4.43115
1.932	6.54602
1.9325	10.17151
1.933	8.45947
1.9335	9.26514
1.934	12.08496
1.9345	8.35876
1.935	5.84106
1.9355	6.54602
1.936	5.74036
1.9365	9.36584
1.937	13.19275
1.9375	6.14319
1.938	7.65381
1.9385	5.74036
1.939	5.74036
1.9395	7.85522
1.94	1.2085
1.9405	3.8269
1.941	7.85522
1.9415	9.26514
1.942	7.85522
1.9425	3.22266
1.943	-4.73328
1.9435	-2.61841
1.944	3.12195
1.9445	-2.61841
1.945	-2.41699
1.9455	-0.30212
1.946	0.10071
1.9465	1.91345
1.947	6.44531
1.9475	2.01416
1.948	2.01416
1.9485	6.44531
1.949	3.92761
1.9495	4.12903
1.95	2.31628
1.9505	8.7616
1.951	4.43115
1.9515	4.22974
1.952	0.80566
1.9525	-0.80566
1.953	-5.0354
1.9535	-6.14319
1.954	6.84814
1.9545	42.19666
1.955	63.34534
1.9555	70.09277
1.956	71.40198
1.9565	66.06445
1.957	66.46729
1.9575	58.51135
1.958	42.49878
1.9585	30.2124
1.959	20.94727
1.9595	0.20142
1.96	-14.09912
1.9605	-26.58691
1.961	-44.81506
1.9615	-51.36108
1.962	-44.31152
1.9625	-44.41223
1.963	-48.23914
1.9635	-44.11011
1.964	-41.39099
1.9645	-39.98108
1.965	-35.2478
1.9655	-27.89612
1.966	-17.6239
1.9665	-8.15735
1.967	-2.5177
1.9675	3.32336
1.968	2.01416
1.9685	2.21558
1.969	0
1.9695	3.42407
1.97	7.75452
1.9705	14.50195
1.971	14.90479
1.9715	15.60974
1.972	7.5531
1.9725	13.09204
1.973	17.92603
1.9735	12.38708
1.974	7.65381
1.9745	7.35168
1.975	-1.61133
1.9755	1.81274
1.976	0.10071
1.9765	-2.81982
1.977	7.75452
1.9775	2.41699
1.978	1.2085
1.9785	4.73328
1.979	6.44531
1.9795	4.33044
1.98	2.31628
1.9805	-2.61841
1.981	0.10071
1.9815	-1.3092
1.982	-3.42407
1.9825	-0.10071
1.983	-2.31628
1.9835	1.51062
1.984	2.31628
1.9845	7.04956
1.985	6.2439
1.9855	7.25098
1.986	6.04248
1.9865	11.38
1.987	9.46655
1.9875	10.97717
1.988	9.76868
1.9885	10.0708
1.989	10.87646
1.9895	13.89771
1.99	10.97717
1.9905	12.5885
1.991	12.28638
1.9915	10.47363
1.992	8.25806
1.9925	13.29346
1.993	7.35168
1.9935	9.86938
1.994	12.48779
1.9945	15.1062
1.995	9.56726
1.9955	11.07788
1.996	10.57434
1.9965	6.84814
1.997	12.5885
1.9975	13.39417
1.998	12.38708
1.9985	15.30762
1.999	10.97717
1.9995	4.12903
2	6.64673
2.0005	11.58142
2.001	9.97009
2.0015	15.91187
2.002	16.01257
2.0025	20.44373
2.003	16.3147
2.0035	15.40833
2.004	16.01257
2.0045	19.33594
2.005	14.60266
2.0055	12.08496
2.006	4.63257
2.0065	-4.33044
2.007	-11.48071
2.0075	-16.3147
2.008	-13.69629
2.0085	-19.63806
2.009	-9.56726
2.0095	-6.14319
2.01	-2.41699
2.0105	1.10779
2.011	2.5177
2.0115	-4.73328
2.012	-0.60425
2.0125	-0.30212
2.013	-3.92761
2.0135	-5.63965
2.014	-4.53186
2.0145	-2.31628
2.015	-3.12195
2.0155	-4.02832
2.016	-4.02832
2.0165	0.40283
2.017	6.14319
2.0175	8.96301
2.018	14.90479
2.0185	11.88354
2.019	16.71753
2.0195	11.38
2.02	18.42957
2.0205	15.50903
2.021	12.38708
2.0215	12.99133
2.022	6.84814
2.0225	6.44531
2.023	4.02832
2.0235	-1.00708
2.024	-3.42407
2.0245	-5.13611
2.025	-5.43823
2.0255	-5.94177
2.026	-7.15027
2.0265	-3.32336
2.027	1.3092
2.0275	-0.20142
2.028	-0.90637
2.0285	-5.23682
2.029	1.00708
2.0295	4.22974
2.03	3.92761
2.0305	7.5531
2.031	6.54602
2.0315	10.0708
2.032	9.46655
2.0325	10.17151
2.033	7.45239
2.0335	8.25806
2.034	5.33752
2.0345	4.63257
2.035	5.0354
2.0355	4.22974
2.036	5.43823
2.0365	7.25098
2.037	11.17859
2.0375	6.94885
2.038	4.33044
2.0385	9.16443
2.039	4.43115
2.0395	5.74036
2.04	6.14319
2.0405	9.46655
2.041	2.5177
2.0415	35.54993
2.042	70.19348
2.0425	76.84021
2.043	83.68835
2.0435	80.76782
2.044	71.30127
2.0445	59.21631
2.045	57.00073
2.0455	39.67896
2.046	29.40674
2.0465	17.92603
2.047	1.00708
2.0475	-8.15735
2.048	-22.6593
2.0485	-36.05347
2.049	-39.07471
2.0495	-36.4563
2.05	-41.89453
2.0505	-36.15417
2.051	-34.94568
2.0515	-41.18958
2.052	-29.30603
2.0525	-24.77417
2.053	-18.02673
2.0535	-13.49487
2.054	-0.20142
2.0545	1.51062
2.055	2.21558
2.0555	11.17859
2.056	11.07788
2.0565	10.67505
2.057	10.67505
2.0575	13.19275
2.058	17.6239
2.0585	18.63098
2.059	13.797
2.0595	16.51611
2.06	15.1062
2.0605	9.76868
2.061	13.29346
2.0615	18.63098
2.062	10.17151
2.0625	8.05664
2.063	16.21399
2.0635	13.99841
2.064	11.98425
2.0645	11.07788
2.065	13.19275
2.0655	13.49487
2.066	9.56726
2.0665	4.33044
2.067	2.61841
2.0675	11.78284
2.068	4.63257
2.0685	5.0354
2.069	9.06372
2.0695	7.45239
2.07	7.45239
2.0705	9.66797
2.071	13.59558
2.0715	7.5531
2.072	12.28638
2.0725	7.5531
2.073	6.74744
2.0735	8.15735
2.074	7.65381
2.0745	-1.10779
2.075	2.5177
2.0755	2.81982
2.076	1.2085
2.0765	3.52478
2.077	4.33044
2.0775	5.0354
2.078	0.90637
2.0785	-2.31628
2.079	-1.00708
2.0795	4.02832
2.08	0.80566
2.0805	0.70496
2.081	3.62549
2.0815	2.81982
2.082	2.41699
2.0825	1.3092
2.083	0
2.0835	-2.11487
2.084	1.2085
2.0845	-0.50354
2.085	-1.51062
2.0855	-4.93469
2.086	0.60425
2.0865	0.50354
2.087	3.8269
2.0875	2.11487
2.088	0.10071
2.0885	-0.30212
2.089	5.23682
2.0895	4.43115
2.09	0.20142
2.0905	8.66089
2.091	7.35168
2.0915	3.32336
2.092	1.71204
2.0925	3.42407
2.093	-2.5177
2.0935	-2.21558
2.094	-1.51062
2.0945	-2.92053
2.095	-1.71204
2.0955	-2.01416
2.096	-5.43823
2.0965	-1.2085
2.097	0.80566
2.0975	1.71204
2.098	2.71912
2.0985	1.61133
2.099	2.92053
2.0995	7.35168
2.1	7.75452
2.1005	-0.20142
2.101	-0.90637
2.1015	-1.00708
2.102	4.93469
2.1025	-4.83398
2.103	1.10779
2.1035	10.47363
2.104	3.92761
2.1045	4.22974
2.105	8.66089
2.1055	10.17151
2.106	12.99133
2.1065	7.45239
2.107	7.15027
2.1075	10.27222
2.108	7.85522
2.1085	4.93469
2.109	-1.81274
2.1095	1.3092
2.11	-0.80566
2.1105	-6.14319
2.111	-4.83398
2.1115	3.32336
2.112	4.93469
2.1125	5.74036
2.113	3.02124
2.1135	14.09912
2.114	15.91187
2.1145	19.43665
2.115	22.96143
2.1155	18.32886
2.116	14.90479
2.1165	17.42249
2.117	19.33594
2.1175	16.81824
2.118	19.63806
2.1185	19.63806
2.119	48.74268
2.1195	75.53101
2.12	88.52234
2.1205	94.46411
2.121	98.19031
2.1215	85.40039
2.122	76.53809
2.1225	60.4248
2.123	50.65613
2.1235	27.59399
2.124	13.59558
2.1245	-0.40283
2.125	-15.20691
2.1255	-31.21948
2.126	-47.53418
2.1265	-53.37524
2.127	-50.75684
2.1275	-49.14551
2.128	-50.2533
2.1285	-52.67029
2.129	-52.8717
2.1295	-48.03772
2.13	-41.4917
2.1305	-29.00391
2.131	-24.47205
2.1315	-13.09204
2.132	-11.2793
2.1325	-5.53894
2.133	0.40283
2.1335	2.11487
2.134	2.5177
2.1345	8.05664
2.135	15.81116
2.1355	18.63098
2.136	17.52319
2.1365	19.63806
2.137	14.50195
2.1375	7.85522
2.138	11.98425
2.1385	4.53186
2.139	5.0354
2.1395	5.94177
2.14	3.7262
2.1405	2.71912
2.141	6.2439
2.1415	-1.91345
2.142	1.00708
2.1425	0.50354
2.143	5.74036
2.1435	0.50354
2.144	3.02124
2.1445	6.94885
2.145	5.74036
2.1455	3.8269
2.146	2.92053
2.1465	2.81982
2.147	3.12195
2.1475	2.81982
2.148	-0.50354
2.1485	-2.5177
2.149	-1.51062
2.1495	-0.70496
2.15	-6.44531
2.1505	1.10779
2.151	3.42407
2.1515	5.13611
2.152	0.20142
2.1525	0.90637
2.153	4.33044
2.1535	6.84814
2.154	8.05664
2.1545	5.43823
2.155	4.02832
2.1555	7.5531
2.156	3.32336
2.1565	4.43115
2.157	8.05664
2.1575	1.61133
2.158	-2.21558
2.1585	5.43823
2.159	11.68213
2.1595	11.98425
2.16	11.17859
2.1605	15.91187
2.161	15.91187
2.1615	16.81824
2.162	17.52319
2.1625	10.17151
2.163	13.09204
2.1635	11.88354
2.164	10.47363
2.1645	14.09912
2.165	13.69629
2.1655	11.48071
2.166	13.09204
2.1665	16.81824
2.167	14.19983
2.1675	14.80408
2.168	15.50903
2.1685	8.35876
2.169	5.43823
2.1695	9.46655
2.17	9.76868
2.1705	9.97009
2.171	9.26514
2.1715	8.05664
2.172	6.14319
2.1725	7.04956
2.173	3.02124
2.1735	-2.71912
2.174	8.56018
2.1745	9.36584
2.175	8.66089
2.1755	7.5531
2.176	9.16443
2.1765	11.2793
2.177	8.35876
2.1775	10.57434
2.178	7.75452
2.1785	3.7262
2.179	10.47363
2.1795	6.84814
2.18	13.19275
2.1805	10.77576
2.181	10.37292
2.1815	9.16443
2.182	8.7616
2.1825	11.17859
2.183	6.84814
2.1835	9.86938
2.184	4.53186
2.1845	2.5177
2.185	6.54602
2.1855	7.65381
2.186	6.04248
2.1865	9.26514
2.187	10.17151
2.1875	5.23682
2.188	8.35876
2.1885	13.89771
2.189	16.71753
2.1895	15.60974
2.19	13.39417
2.1905	11.98425
2.191	14.40125
2.1915	15.40833
2.192	11.2793
2.1925	5.0354
2.193	4.12903
2.1935	1.91345
2.194	8.8623
2.1945	6.3446
2.195	4.83398
2.1955	-2.5177
2.196	4.53186
2.1965	7.45239
2.197	7.85522
2.1975	10.77576
2.198	14.09912
2.1985	10.47363
2.199	6.3446
2.1995	5.0354
2.2	0.90637
2.2005	-1.2085
2.201	2.61841
2.2015	5.84106
2.202	8.05664
2.2025	5.63965
2.203	10.0708
2.2035	4.53186
2.204	6.74744
2.2045	10.47363
2.205	3.8269
2.2055	31.52161
2.206	64.25171
2.2065	68.28003
2.207	71.40198
2.2075	67.37366
2.208	52.56958
2.2085	46.62781
2.209	33.53577
2.2095	17.52319
2.21	5.33752
2.2105	-11.88354
2.211	-25.88196
2.2115	-39.27612
2.212	-52.97241
2.2125	-67.97791
2.213	-69.38782
2.2135	-62.23755
2.214	-60.22339
2.2145	-53.17383
2.215	-53.67737
2.2155	-55.2887
2.216	-42.19666
2.2165	-29.80957
2.217	-27.19116
2.2175	-13.59558
2.218	-9.06372
2.2185	-0.10071
2.219	-2.21558
2.2195	2.81982
2.22	3.12195
2.2205	9.36584
2.221	15.00549
2.2215	14.09912
2.222	15.71045
2.2225	12.99133
2.223	8.8623
2.2235	1.3092
2.224	1.40991
2.2245	4.53186
2.225	6.84814
2.2255	-0.60425
2.226	4.53186
2.2265	9.46655
2.227	2.41699
2.2275	0.30212
2.228	2.21558
2.2285	5.13611
2.229	8.45947
2.2295	7.85522
2.23	5.43823
2.2305	8.8623
2.231	11.78284
2.2315	16.01257
2.232	13.69629
2.2325	13.29346
2.233	11.58142
2.2335	14.80408
2.234	18.8324
2.2345	13.39417
2.235	16.21399
2.2355	12.68921
2.236	3.52478
2.2365	2.61841
2.237	3.32336
2.2375	-0.60425
2.238	0.50354
2.2385	-0.50354
2.239	-0.90637
2.2395	-4.53186
2.24	-6.84814
2.2405	-5.23682
2.241	-4.53186
2.2415	-2.61841
2.242	1.2085
2.2425	-1.10779
2.243	9.06372
2.2435	4.73328
2.244	9.46655
2.2445	3.8269
2.245	3.52478
2.2455	7.15027
2.246	9.36584
2.2465	7.75452
2.247	3.8269
2.2475	2.11487
2.248	2.41699
2.2485	5.53894
2.249	9.16443
2.2495	2.21558
2.25	3.32336
2.2505	6.3446
2.251	1.51062
2.2515	4.22974
2.252	2.5177
2.2525	3.42407
2.253	0.10071
2.2535	7.75452
2.254	11.98425
2.2545	19.83948
2.255	21.55151
2.2555	21.3501
2.256	21.04797
2.2565	20.04089
2.257	20.54443
2.2575	20.54443
2.258	20.54443
2.2585	20.54443
2.259	20.54443
2.2595	20.54443
2.26	20.54443
2.2605	20.54443
2.261	20.54443
2.2615	20.54443
2.262	20.54443
2.2625	20.54443
2.263	20.54443
2.2635	20.54443
2.264	20.54443
2.2645	20.54443
2.265	20.54443
2.2655	20.54443
2.266	20.54443
2.2665	20.54443
2.267	20.54443
2.2675	-6.44531
2.268	-9.86938
2.2685	-0.50354
2.269	-8.96301
2.2695	-8.35876
2.27	-8.35876
2.2705	-1.10779
2.271	-0.20142
2.2715	4.02832
2.272	6.54602
2.2725	6.3446
2.273	5.23682
2.2735	8.56018
2.274	3.22266
2.2745	4.12903
2.275	6.14319
2.2755	1.00708
2.276	-2.11487
2.2765	-0.70496
2.277	2.71912
2.2775	-0.10071
2.278	1.00708
2.2785	2.11487
2.279	6.14319
2.2795	6.3446
2.28	4.33044
2.2805	6.3446
2.281	3.52478
2.2815	6.2439
2.282	6.04248
2.2825	6.44531
2.283	3.22266
2.2835	4.73328
2.284	6.44531
2.2845	8.05664
2.285	6.44531
2.2855	5.33752
2.286	9.66797
2.2865	17.01965
2.287	11.78284
2.2875	10.47363
2.288	17.22107
2.2885	13.49487
2.289	8.66089
2.2895	5.23682
2.29	7.85522
2.2905	-1.2085
2.291	3.32336
2.2915	-1.10779
2.292	0.60425
2.2925	-1.10779
2.293	-3.42407
2.2935	-4.43115
2.294	-6.64673
2.2945	0.10071
2.295	-1.10779
2.2955	-0.80566
2.296	-1.2085
2.2965	-3.92761
2.297	1.81274
2.2975	2.31628
2.298	0.60425
2.2985	26.68762
2.299	61.93542
2.2995	73.61755
2.3	77.84729
2.3005	74.2218
2.301	64.05029
2.3015	56.29578
2.302	42.19666
2.3025	22.6593
2.303	7.95593
2.3035	-5.23682
2.304	-19.53735
2.3045	-32.22656
2.305	-42.90161
2.3055	-56.39648
2.306	-65.76233
2.3065	-60.22339
2.307	-53.77808
2.3075	-50.2533
2.308	-49.24622
2.3085	-42.09595
2.309	-37.16125
2.3095	-31.72302
2.31	-20.64514
2.3105	-9.66797
2.311	1.91345
2.3115	10.47363
2.312	13.39417
2.3125	13.89771
2.313	19.13452
2.3135	22.25647
2.314	27.29187
2.3145	21.04797
2.315	15.40833
2.3155	17.52319
2.316	17.92603
2.3165	21.24939
2.317	13.39417
2.3175	4.73328
2.318	1.2085
2.3185	5.13611
2.319	11.38
2.3195	10.37292
2.32	10.17151
2.3205	5.33752
2.321	3.22266
2.3215	6.44531
2.322	8.56018
2.3225	9.36584
2.323	17.01965
2.3235	15.91187
2.324	7.25098
2.3245	12.78992
2.325	14.19983
2.3255	7.75452
2.326	2.61841
2.3265	2.81982
2.327	-0.60425
2.3275	-5.53894
2.328	-5.13611
2.3285	-10.77576
2.329	-18.22815
2.3295	-18.22815
2.33	-18.93311
2.3305	-22.15576
2.331	-20.1416
2.3315	-11.98425
2.332	-7.75452
2.3325	-5.94177
2.333	1.40991
2.3335	-2.5177
2.334	2.81982
2.3345	0.50354
2.335	3.42407
2.3355	2.92053
2.336	10.27222
2.3365	3.62549
2.337	12.48779
2.3375	13.49487
2.338	17.82532
2.3385	12.18567
2.339	17.52319
2.3395	13.09204
2.34	11.07788
2.3405	10.47363
2.341	11.07788
2.3415	16.11328
2.342	21.14868
2.3425	23.66638
2.343	17.72461
2.3435	14.40125
2.344	17.72461
2.3445	18.32886
2.345	9.97009
2.3455	9.16443
2.346	10.47363
2.3465	5.63965
2.347	4.02832
2.3475	5.0354
2.348	5.63965
2.3485	13.19275
2.349	8.05664
2.3495	2.01416
2.35	3.8269
2.3505	5.74036
2.351	9.56726
2.3515	11.2793
2.352	8.96301
2.3525	13.99841
2.353	7.5531
2.3535	9.26514
2.354	11.78284
2.3545	2.31628
2.355	3.92761
2.3555	10.87646
2.356	6.94885
2.3565	1.3092
2.357	7.15027
2.3575	2.61841
2.358	-6.84814
2.3585	-3.52478
2.359	-2.11487
2.3595	-3.22266
2.36	1.00708
2.3605	-1.3092
2.361	0.20142
2.3615	6.44531
2.362	9.56726
2.3625	8.45947
2.363	10.77576
2.3635	9.16443
2.364	10.17151
2.3645	5.33752
2.365	3.02124
2.3655	-2.01416
2.366	1.10779
2.3665	1.51062
2.367	-4.33044
2.3675	-4.33044
2.368	-4.33044
2.3685	-4.33044
2.369	-4.33044
2.3695	-4.33044
2.37	-4.33044
2.3705	-4.33044
2.371	-4.33044
2.3715	-4.33044
2.372	-4.33044
2.3725	-4.33044
2.373	-4.33044
2.3735	-4.33044
2.374	-4.33044
2.3745	-4.33044
2.375	-4.33044
2.3755	-4.33044
2.376	-4.33044
2.3765	-4.33044
2.377	-4.33044
2.3775	11.78284
2.378	13.69629
2.3785	9.06372
2.379	10.47363
2.3795	9.86938
2.38	9.26514
2.3805	14.70337
2.381	20.04089
2.3815	20.84656
2.382	19.43665
2.3825	18.93311
2.383	12.89062
2.3835	12.5885
2.384	22.25647
2.3845	11.38
2.385	12.18567
2.3855	16.11328
2.386	9.56726
2.3865	13.59558
2.387	8.96301
2.3875	9.16443
2.388	4.83398
2.3885	5.94177
2.389	10.87646
2.3895	9.66797
2.39	9.46655
2.3905	8.7616
2.391	11.38
2.3915	6.2439
2.392	5.94177
2.3925	3.92761
2.393	-6.84814
2.3935	-1.51062
2.394	-8.56018
2.3945	-10.67505
2.395	-4.73328
2.3955	-3.02124
2.396	-5.74036
2.3965	-6.54602
2.397	-9.26514
2.3975	-9.76868
2.398	-6.3446
2.3985	-1.91345
2.399	-4.22974
2.3995	0
2.4	3.22266
2.4005	1.3092
2.401	-5.23682
2.4015	-2.31628
2.402	-5.13611
2.4025	-10.17151
2.403	-2.01416
2.4035	3.7262
2.404	5.43823
2.4045	10.87646
2.405	9.97009
2.4055	5.84106
2.406	12.89062
2.4065	15.20691
2.407	12.18567
2.4075	13.29346
2.408	7.35168
2.4085	7.35168
2.409	11.78284
2.4095	10.57434
2.41	6.04248
2.4105	6.54602
2.411	8.96301
2.4115	9.66797
2.412	1.3092
2.4125	4.93469
2.413	15.50903
2.4135	48.84338
2.414	78.04871
2.4145	78.65295
2.415	74.52393
2.4155	71.60339
2.416	61.53259
2.4165	49.0448
2.417	39.07471
2.4175	23.66638
2.418	15.71045
2.4185	-6.74744
2.419	-15.60974
2.4195	-28.50037
2.42	-39.88037
2.4205	-45.41931
2.421	-47.33276
2.4215	-41.99524
2.422	-44.0094
2.4225	-42.39807
2.423	-43.60657
2.4235	-38.67188
2.424	-32.7301
2.4245	-24.47205
2.425	-16.71753
2.4255	-6.54602
2.426	-0.20142
2.4265	3.92761
2.427	10.87646
2.4275	5.43823
2.428	9.66797
2.4285	13.99841
2.429	15.20691
2.4295	21.24939
2.43	20.84656
2.4305	15.00549
2.431	16.51611
2.4315	13.797
2.432	5.74036
2.4325	-4.22974
2.433	-2.61841
2.4335	-3.12195
2.434	-10.27222
2.4345	-4.33044
2.435	-2.71912
2.4355	2.21558
2.436	4.43115
2.4365	4.22974
2.437	6.2439
2.4375	6.2439
2.438	2.5177
2.4385	2.71912
2.439	1.3092
2.4395	3.42407
2.44	2.21558
2.4405	7.15027
2.441	2.01416
2.4415	5.74036
2.442	4.63257
2.4425	5.94177
2.443	4.83398
2.4435	-5.33752
2.444	-2.5177
2.4445	6.74744
2.445	5.43823
2.4455	9.36584
2.446	14.80408
2.4465	8.15735
2.447	12.5885
2.4475	10.87646
2.448	9.76868
2.4485	5.53894
2.449	17.32178
2.4495	12.18567
2.45	9.56726
2.4505	15.00549
2.451	16.51611
2.4515	13.797
2.452	16.11328
2.4525	15.91187
2.453	19.83948
2.4535	16.51611
2.454	20.54443
2.4545	12.5885
2.455	15.40833
2.4555	12.18567
2.456	6.3446
2.4565	8.05664
2.457	3.62549
2.4575	8.8623
2.458	8.35876
2.4585	6.84814
2.459	1.3092
2.4595	-2.61841
2.46	3.42407
2.4605	-0.60425
2.461	-4.63257
2.4615	-4.43115
2.462	-3.62549
2.4625	-2.81982
2.463	-6.04248
2.4635	-2.71912
2.464	-0.30212
2.4645	0.30212
2.465	-0.60425
2.4655	3.32336
2.466	1.40991
2.4665	8.45947
2.467	13.29346
2.4675	9.66797
2.468	5.23682
2.4685	10.87646
2.469	12.5885
2.4695	3.92761
2.47	1.3092
2.4705	7.85522
2.471	0.10071
2.4715	2.21558
2.472	-4.22974
2.4725	-6.2439
2.473	-2.92053
2.4735	-2.21558
2.474	-1.71204
2.4745	-2.61841
2.475	6.74744
2.4755	6.04248
2.476	2.01416
2.4765	4.73328
2.477	10.47363
2.4775	10.97717
2.478	8.96301
2.4785	8.7616
2.479	14.19983
2.4795	8.35876
2.48	9.76868
2.4805	11.98425
2.481	7.15027
2.4815	8.96301
2.482	5.23682
2.4825	1.81274
2.483	5.33752
2.4835	2.21558
2.484	1.51062
2.4845	-4.12903
2.485	2.01416
2.4855	1.10779
2.486	-7.25098
2.4865	0.30212
2.487	-3.02124
2.4875	-2.5177
2.488	-3.12195
2.4885	-0.10071
2.489	5.53894
2.4895	1.81274
2.49	2.71912
2.4905	5.94177
2.491	7.65381
2.4915	9.86938
2.492	11.48071
2.4925	12.68921
2.493	12.89062
2.4935	9.56726
2.494	8.66089
2.4945	7.04956
2.495	10.57434
2.4955	3.42407
2.496	3.62549
2.4965	1.91345
2.497	0.10071
2.4975	1.61133
2.498	3.7262
2.4985	4.12903
2.499	4.83398
2.4995	5.13611
2.5	3.92761
2.5005	2.11487
2.501	5.13611
2.5015	3.02124
2.502	6.44531
2.5025	3.02124
2.503	10.27222
2.5035	6.04248
2.504	6.84814
2.5045	10.77576
2.505	12.68921
2.5055	14.19983
2.506	10.57434
2.5065	8.45947
2.507	0.70496
2.5075	2.01416
2.508	-4.83398
2.5085	-4.12903
2.509	2.31628
2.5095	4.73328
2.51	-1.91345
2.5105	-5.94177
2.511	-6.74744
2.5115	-3.92761
2.512	-2.41699
2.5125	26.68762
2.513	51.96533
2.5135	80.86853
2.514	84.89685
2.5145	78.65295
2.515	75.32959
2.5155	71.20056
2.516	62.23755
2.5165	42.59949
2.517	33.83789
2.5175	18.32886
2.518	-6.04248
2.5185	-21.85364
2.519	-35.44922
2.5195	-47.23206
2.52	-53.97949
2.5205	-54.28162
2.521	-59.92126
2.5215	-56.09436
2.522	-52.8717
2.5225	-48.13843
2.523	-44.21082
2.5235	-36.35559
2.524	-24.67346
2.5245	-18.93311
2.525	-9.06372
2.5255	1.3092
2.526	0.80566
2.5265	-0.80566
2.527	8.45947
2.5275	12.78992
2.528	15.30762
2.5285	21.75293
2.529	20.64514
2.5295	19.83948
2.53	18.12744
2.5305	25.57983
2.531	18.22815
2.5315	17.82532
2.532	20.94727
2.5325	17.32178
2.533	18.12744
2.5335	12.5885
2.534	11.2793
2.5345	13.09204
2.535	15.50903
2.5355	11.38
2.536	7.85522
2.5365	14.19983
2.537	7.25098
2.5375	2.01416
2.538	7.75452
2.5385	12.89062
2.539	11.58142
2.5395	10.37292
2.54	10.17151
2.5405	6.84814
2.541	10.87646
2.5415	10.77576
2.542	2.31628
2.5425	-0.70496
2.543	0.50354
2.5435	-0.40283
2.544	-8.8623
2.5445	-7.25098
2.545	-15.60974
2.5455	-17.01965
2.546	-14.90479
2.5465	-14.50195
2.547	-15.00549
2.5475	-12.78992
2.548	-16.91895
2.5485	-14.70337
2.549	-14.30054
2.5495	-9.06372
2.55	-6.44531
2.5505	-6.54602
2.551	1.61133
2.5515	-2.31628
2.552	7.35168
2.5525	12.08496
2.553	14.60266
2.5535	19.83948
2.554	14.30054
2.5545	13.99841
2.555	12.48779
2.5555	13.09204
2.556	12.99133
2.5565	1.2085
2.557	2.81982
2.5575	7.04956
2.558	3.22266
2.5585	9.06372
2.559	6.44531
2.5595	8.35876
2.56	12.08496
2.5605	5.13611
2.561	1.3092
2.5615	3.12195
2.562	11.38
2.5625	6.84814
2.563	14.19983
2.5635	21.65222
2.564	22.25647
2.5645	16.11328
2.565	16.61682
2.5655	21.65222
2.566	19.23523
2.5665	26.3855
2.567	32.32727
2.5675	35.44922
2.568	33.03223
2.5685	32.7301
2.569	31.62231
2.5695	27.6947
2.57	32.32727
2.5705	25.07629
2.571	20.64514
2.5715	21.65222
2.572	18.93311
2.5725	18.32886
2.573	12.89062
2.5735	13.59558
2.574	16.3147
2.5745	14.70337
2.575	13.89771
2.5755	9.36584
2.576	6.94885
2.5765	9.86938
2.577	4.12903
2.5775	4.12903
2.578	4.12903
2.5785	4.12903
2.579	4.12903
2.5795	4.12903
2.58	4.12903
2.5805	4.12903
2.581	4.12903
2.5815	4.12903
2.582	4.12903
2.5825	4.12903
2.583	4.12903
2.5835	4.12903
2.584	4.12903
2.5845	4.12903
2.585	4.12903
2.5855	4.12903
2.586	4.12903
2.5865	4.12903
2.587	4.12903
2.5875	-5.23682
2.588	-3.62549
2.5885	-3.62549
2.589	-6.74744
2.5895	-4.63257
2.59	22.25647
2.5905	58.41064
2.591	72.30835
2.5915	71.80481
2.592	71.90552
2.5925	65.25879
2.593	56.49719
2.5935	41.79382
2.594	32.42798
2.5945	10.97717
2.595	0.20142
2.5955	-9.76868
2.596	-26.68762
2.5965	-37.56409
2.597	-54.18091
2.5975	-58.00781
2.598	-56.69861
2.5985	-49.14551
2.599	-48.74268
2.5995	-47.8363
2.6	-45.3186
2.6005	-41.18958
2.601	-25.88196
2.6015	-20.94727
2.602	-9.26514
2.6025	-10.0708
2.603	-0.20142
2.6035	4.93469
2.604	2.31628
2.6045	8.35876
2.605	6.54602
2.6055	7.15027
2.606	15.50903
2.6065	9.36584
2.607	7.75452
2.6075	12.99133
2.608	13.69629
2.6085	11.07788
2.609	10.57434
2.6095	18.12744
2.61	20.04089
2.6105	20.24231
2.611	20.34302
2.6115	15.91187
2.612	22.05505
2.6125	23.8678
2.613	21.24939
2.6135	17.52319
2.614	18.22815
2.6145	19.63806
2.615	10.57434
2.6155	13.99841
2.616	15.81116
2.6165	14.40125
2.617	2.71912
2.6175	2.71912
2.618	-0.50354
2.6185	-12.89062
2.619	-13.49487
2.6195	-8.25806
2.62	-7.85522
2.6205	-4.63257
2.621	0
2.6215	2.21558
2.622	0.30212
2.6225	2.11487
2.623	5.53894
2.6235	10.97717
2.624	15.71045
2.6245	21.3501
2.625	18.02673
2.6255	22.96143
2.626	19.43665
2.6265	18.32886
2.627	20.34302
2.6275	13.09204
2.628	9.97009
2.6285	15.30762
2.629	15.71045
2.6295	14.09912
2.63	12.08496
2.6305	9.76868
2.631	11.58142
2.6315	6.44531
2.632	11.58142
2.6325	5.94177
2.633	9.16443
2.6335	5.23682
2.634	5.33752
2.6345	5.94177
2.635	2.5177
2.6355	5.43823
2.636	6.84814
2.6365	10.0708
2.637	13.29346
2.6375	10.97717
2.638	9.06372
2.6385	8.96301
2.639	3.02124
2.6395	1.81274
2.64	5.0354
2.6405	1.40991
2.641	7.95593
2.6415	-0.70496
2.642	2.01416
2.6425	-1.71204
2.643	8.25806
2.6435	7.85522
2.644	6.3446
2.6445	8.66089
2.645	11.68213
2.6455	12.08496
2.646	11.2793
2.6465	9.66797
2.647	5.43823
2.6475	4.12903
2.648	-3.92761
2.6485	-4.53186
2.649	3.42407
2.6495	1.40991
2.65	2.41699
2.6505	7.45239
2.651	6.84814
2.6515	4.73328
2.652	1.61133
2.6525	-0.70496
2.653	-0.50354
2.6535	-1.10779
2.654	-1.71204
2.6545	4.83398
2.655	4.63257
2.6555	7.95593
2.656	9.26514
2.6565	8.56018
2.657	6.44531
2.6575	1.51062
2.658	9.86938
2.6585	15.50903
2.659	6.64673
2.6595	13.09204
2.66	23.36426
2.6605	19.33594
2.661	19.33594
2.6615	20.44373
2.662	21.3501
2.6625	18.32886
2.663	20.54443
2.6635	19.63806
2.664	13.69629
2.6645	14.50195
2.665	8.45947
2.6655	1.71204
2.666	4.93469
2.6665	2.11487
2.667	42.09595
2.6675	67.07153
2.668	78.75366
2.6685	79.55933
2.669	75.4303
2.6695	63.34534
2.67	49.0448
2.6705	33.13293
2.671	17.72461
2.6715	5.0354
2.672	-4.22974
2.6725	-20.04089
2.673	-32.52869
2.6735	-49.44763
2.674	-52.06604
2.6745	-41.39099
2.675	-50.95825
2.6755	-47.33276
2.676	-44.81506
2.6765	-50.95825
2.677	-50.95825
2.6775	-50.95825
2.678	-50.95825
2.6785	-50.95825
2.679	-50.95825
2.6795	-50.95825
2.68	-50.95825
2.6805	-50.95825
2.681	-50.95825
2.6815	-50.95825
2.682	-50.95825
2.6825	-50.95825
2.683	-50.95825
2.6835	-50.95825
2.684	-50.95825
2.6845	-50.95825
2.685	-50.95825
2.6855	-50.95825
2.686	-50.95825
2.6865	-50.95825
2.687	-50.95825
2.6875	10.57434
2.688	14.70337
2.6885	19.63806
2.689	19.83948
2.6895	18.73169
2.69	13.89771
2.6905	15.20691
2.691	19.53735
2.6915	9.66797
2.692	7.35168
2.6925	4.12903
2.693	2.21558
2.6935	4.83398
2.694	3.52478
2.6945	5.0354
2.695	2.41699
2.6955	-0.50354
2.696	2.31628
2.6965	1.2085
2.697	-0.10071
2.6975	-2.61841
2.698	0.60425
2.6985	0.90637
2.699	2.41699
2.6995	2.41699
2.7	6.54602
2.7005	5.43823
2.701	7.5531
2.7015	5.23682
2.702	10.47363
2.7025	7.45239
2.703	3.22266
2.7035	9.66797
2.704	17.82532
2.7045	15.81116
2.705	15.20691
2.7055	11.38
2.706	11.58142
2.7065	9.06372
2.707	10.17151
2.7075	14.60266
2.708	12.68921
2.7085	8.96301
2.709	12.08496
2.7095	4.12903
2.71	7.5531
2.7105	5.33752
2.711	8.56018
2.7115	13.09204
2.712	5.63965
2.7125	4.12903
2.713	8.35876
2.7135	13.89771
2.714	11.58142
2.7145	8.8623
2.715	7.04956
2.7155	1.3092
2.716	8.05664
2.7165	12.48779
2.717	8.25806
2.7175	10.97717
2.718	10.37292
2.7185	12.48779
2.719	5.94177
2.7195	8.35876
2.72	6.54602
2.7205	9.66797
2.721	5.23682
2.7215	7.15027
2.722	7.95593
2.7225	5.84106
2.723	9.76868
2.7235	5.74036
2.724	7.45239
2.7245	6.94885
2.725	6.74744
2.7255	13.39417
2.726	11.88354
2.7265	1.40991
2.727	2.81982
2.7275	3.42407
2.728	-5.63965
2.7285	-5.84106
2.729	-8.05664
2.7295	-7.85522
2.73	-6.14319
2.7305	-3.7262
2.731	-1.51062
2.7315	-1.00708
2.732	3.32336
2.7325	5.33752
2.733	6.74744
2.7335	16.51611
2.734	18.53027
2.7345	18.02673
2.735	18.93311
2.7355	14.80408
2.736	11.07788
2.7365	10.77576
2.737	5.94177
2.7375	-0.60425
2.738	-2.21558
2.7385	0.50354
2.739	0.90637
2.7395	-5.23682
2.74	-8.45947
2.7405	-8.35876
2.741	-5.43823
2.7415	-7.5531
2.742	-9.16443
2.7425	-7.75452
2.743	-7.04956
2.7435	-1.91345
2.744	-1.91345
2.7445	7.65381
2.745	6.04248
2.7455	1.71204
2.746	5.13611
2.7465	4.93469
2.747	0.50354
2.7475	0.50354
2.748	8.96301
2.7485	34.34143
2.749	66.87012
2.7495	78.25012
2.75	82.27844
2.7505	76.84021
2.751	74.42322
2.7515	57.00073
2.752	50.45471
2.7525	32.12585
2.753	11.58142
2.7535	-0.20142
2.754	-13.09204
2.7545	-27.99683
2.755	-45.11719
2.7555	-58.30994
2.756	-56.90002
2.7565	-59.71985
2.757	-53.17383
2.7575	-52.16675
2.758	-55.69153
2.7585	-56.5979
2.759	-50.05188
2.7595	-45.01648
2.76	-31.82373
2.7605	-19.33594
2.761	-20.04089
2.7615	-10.47363
2.762	-7.35168
2.7625	-4.83398
2.763	0.40283
2.7635	5.0354
2.764	3.52478
2.7645	5.84106
2.765	5.94177
2.7655	5.94177
2.766	10.67505
2.7665	12.48779
2.767	11.78284
2.7675	10.37292
2.768	7.35168
2.7685	10.67505
2.769	11.58142
2.7695	12.48779
2.77	8.15735
2.7705	4.93469
2.771	-1.00708
2.7715	5.23682
2.772	2.71912
2.7725	-0.40283
2.773	-1.00708
2.7735	1.51062
2.774	4.22974
2.7745	2.81982
2.775	6.2439
2.7755	3.22266
2.776	8.25806
2.7765	2.92053
2.777	7.95593
2.7775	6.54602
2.778	7.5531
2.7785	8.56018
2.779	9.86938
2.7795	2.81982
2.78	9.06372
2.7805	5.63965
2.781	-3.8269
2.7815	3.42407
2.782	2.01416
2.7825	2.41699
2.783	2.71912
2.7835	13.69629
2.784	8.15735
2.7845	13.89771
2.785	20.74585
2.7855	17.6239
2.786	16.21399
2.7865	17.92603
2.787	22.6593
2.7875	21.65222
2.788	24.27063
2.7885	23.46497
2.789	25.177
2.7895	27.79541
2.79	21.95435
2.7905	24.16992
2.791	20.64514
2.7915	17.82532
2.792	18.53027
2.7925	10.47363
2.793	8.66089
2.7935	4.73328
2.794	-2.92053
2.7945	-7.85522
2.795	-6.94885
2.7955	-12.08496
2.796	-10.67505
2.7965	-7.35168
2.797	-1.2085
2.7975	-1.2085
2.798	-1.2085
2.7985	-1.2085
2.799	-1.2085
2.7995	-1.2085
2.8	-1.2085
2.8005	-1.2085
2.801	-1.2085
2.8015	-1.2085
2.802	-1.2085
2.8025	-1.2085
2.803	-1.2085
2.8035	-1.2085
2.804	-1.2085
2.8045	-1.2085
2.805	-1.2085
2.8055	-1.2085
2.806	-1.2085
2.8065	-1.2085
2.807	-1.2085
2.8075	-1.2085
2.808	-1.2085
2.8085	-1.2085
2.809	-1.2085
2.8095	-1.2085
2.81	-1.2085
2.8105	-1.2085
2.811	-1.2085
2.8115	-1.2085
2.812	-1.2085
2.8125	-1.2085
2.813	-1.2085
2.8135	-1.2085
2.814	-1.2085
2.8145	-1.2085
2.815	-1.2085
2.8155	-1.2085
2.816	-1.2085
2.8165	-1.2085
2.817	-1.2085
2.8175	-1.2085
2.818	-1.2085
2.8185	-1.2085
2.819	-1.2085
2.8195	-1.2085
2.82	-1.2085
2.8205	-1.2085
2.821	-1.2085
2.8215	-1.2085
2.822	-1.2085
2.8225	-1.2085
2.823	-1.2085
2.8235	-1.2085
2.824	-1.2085
2.8245	-1.2085
2.825	-1.2085
2.8255	-1.2085
2.826	-1.2085
2.8265	-1.2085
2.827	-1.2085
2.8275	53.57666
2.828	75.83313
2.8285	82.78198
2.829	83.48694
2.8295	75.53101
2.83	63.14392
2.8305	55.2887
2.831	39.88037
2.8315	28.80249
2.832	12.18567
2.8325	-5.53894
2.833	-21.3501
2.8335	-40.1825
2.834	-49.54834
2.8345	-60.52551
2.835	-56.09436
2.8355	-51.46179
2.836	-52.46887
2.8365	-53.37524
2.837	-49.74976
2.8375	-41.29028
2.838	-36.15417
2.8385	-29.91028
2.839	-23.16284
2.8395	-18.93311
2.84	-13.89771
2.8405	-12.08496
2.841	-5.0354
2.8415	1.2085
2.842	-3.02124
2.8425	8.35876
2.843	16.81824
2.8435	23.06213
2.844	22.6593
2.8445	21.75293
2.845	15.60974
2.8455	15.40833
2.846	22.15576
2.8465	22.45789
2.847	23.66638
2.8475	24.87488
2.848	19.63806
2.8485	20.24231
2.849	15.40833
2.8495	12.5885
2.85	7.35168
2.8505	7.35168
2.851	6.44531
2.8515	0.50354
2.852	6.3446
2.8525	5.33752
2.853	5.23682
2.8535	2.11487
2.854	4.83398
2.8545	6.3446
2.855	1.91345
2.8555	9.06372
2.856	1.00708
2.8565	0.20142
2.857	-2.31628
2.8575	-0.20142
2.858	-3.02124
2.8585	-4.33044
2.859	-5.43823
2.8595	-8.8623
2.86	-5.84106
2.8605	0.20142
2.861	-0.60425
2.8615	-2.5177
2.862	1.3092
2.8625	2.41699
2.863	3.7262
2.8635	10.77576
2.864	8.15735
2.8645	-0.70496
2.865	5.74036
2.8655	10.47363
2.866	15.40833
2.8665	12.68921
2.867	13.29346
2.8675	10.17151
2.868	13.49487
2.8685	9.26514
2.869	4.53186
2.8695	2.21558
2.87	-3.52478
2.8705	6.2439
2.871	2.5177
2.8715	0.50354
2.872	4.93469
2.8725	-1.71204
2.873	0.20142
2.8735	8.35876
2.874	3.92761
2.8745	5.0354
2.875	7.95593
2.8755	11.68213
2.876	9.26514
2.8765	4.83398
2.877	9.16443
2.8775	11.48071
2.878	9.66797
2.8785	12.68921
2.879	18.02673
2.8795	18.12744
2.88	17.52319
2.8805	21.45081
2.881	18.22815
2.8815	15.20691
2.882	8.96301
2.8825	8.7616
2.883	4.83398
2.8835	0.80566
2.884	-0.90637
2.8845	-0.80566
2.885	-2.41699
2.8855	-2.5177
2.886	3.62549
2.8865	8.7616
2.887	3.22266
2.8875	3.42407
2.888	7.04956
2.8885	2.21558
2.889	-4.93469
2.8895	-1.00708
2.89	1.2085
2.8905	-2.61841
2.891	1.2085
2.8915	-1.61133
2.892	0.80566
2.8925	-3.32336
2.893	-1.91345
2.8935	-4.43115
2.894	4.02832
2.8945	2.01416
2.895	-1.81274
2.8955	6.04248
2.896	6.3446
2.8965	4.83398
2.897	3.62549
2.8975	8.96301
2.898	10.0708
2.8985	8.05664
2.899	8.25806
2.8995	9.56726
2.9	5.33752
2.9005	4.33044
2.901	6.44531
2.9015	9.66797
2.902	12.38708
2.9025	3.32336
2.903	4.43115
2.9035	3.02124
2.904	-0.60425
2.9045	1.10779
2.905	3.92761
2.9055	1.00708
2.906	5.33752
2.9065	8.05664
2.907	5.13611
2.9075	13.59558
2.908	9.26514
2.9085	13.69629
2.909	7.5531
2.9095	12.78992
2.91	9.46655
2.9105	5.84106
2.911	9.36584
2.9115	6.2439
2.912	9.76868
2.9125	6.54602
2.913	12.18567
2.9135	5.63965
2.914	12.99133
2.9145	14.40125
2.915	15.60974
2.9155	14.19983
2.916	15.20691
2.9165	12.68921
2.917	13.69629
2.9175	12.99133
2.918	15.1062
2.9185	9.86938
2.919	12.68921
2.9195	11.58142
2.92	10.87646
2.9205	12.08496
2.921	7.5531
2.9215	15.1062
2.922	16.61682
2.9225	15.60974
2.923	16.11328
2.9235	11.78284
2.924	4.63257
2.9245	5.33752
2.925	2.11487
2.9255	1.10779
2.926	5.74036
2.9265	6.44531
2.927	5.53894
2.9275	3.12195
2.928	2.41699
2.9285	3.12195
2.929	-0.40283
2.9295	-3.22266
2.93	-8.8623
2.9305	-8.56018
2.931	-0.40283
2.9315	-1.51062
2.932	-2.21558
2.9325	4.93469
2.933	6.04248
2.9335	4.83398
2.934	2.5177
2.9345	2.71912
2.935	0.10071
2.9355	3.92761
2.936	1.2085
2.9365	-0.50354
2.937	-6.14319
2.9375	-1.40991
2.938	-1.51062
2.9385	-0.80566
2.939	1.81274
2.9395	4.43115
2.94	6.04248
2.9405	12.08496
2.941	3.42407
2.9415	9.56726
2.942	9.66797
2.9425	5.74036
2.943	7.04956
2.9435	4.83398
2.944	1.71204
2.9445	6.54602
2.945	4.83398
2.9455	5.94177
2.946	5.0354
2.9465	12.08496
2.947	3.42407
2.9475	5.13611
2.948	17.12036
2.9485	51.26038
2.949	78.85437
2.9495	69.99207
2.95	73.81897
2.9505	65.66162
2.951	59.01489
2.9515	45.82214
2.952	34.44214
2.9525	19.63806
2.953	6.3446
2.9535	-11.78284
2.954	-26.88904
2.9545	-42.7002
2.955	-54.38232
2.9555	-49.74976
2.956	-49.64905
2.9565	-44.21082
2.957	-48.23914
2.9575	-51.15967
2.958	-52.771
2.9585	-40.98816
2.959	-36.55701
2.9595	-25.27771
2.96	-11.58142
2.9605	-6.2439
2.961	3.22266
2.9615	1.3092
2.962	4.93469
2.9625	5.63965
2.963	4.93469
2.9635	5.53894
2.964	11.07788
2.9645	9.26514
2.965	8.7616
2.9655	6.74744
2.966	6.94885
2.9665	7.04956
2.967	7.65381
2.9675	6.14319
2.968	9.36584
2.9685	7.95593
2.969	10.17151
2.9695	16.61682
2.97	10.97717
2.9705	14.30054
2.971	14.80408
2.9715	9.26514
2.972	12.89062
2.9725	17.22107
2.973	11.07788
2.9735	15.40833
2.974	10.47363
2.9745	15.30762
2.975	10.97717
2.9755	10.0708
2.976	10.17151
2.9765	8.66089
2.977	12.38708
2.9775	9.26514
2.978	10.27222
2.9785	12.18567
2.979	4.12903
2.9795	3.32336
2.98	2.01416
2.9805	-3.42407
2.981	-3.02124
2.9815	-0.10071
2.982	-3.52478
2.9825	4.83398
2.983	1.91345
2.9835	3.12195
2.984	4.33044
2.9845	3.62549
2.985	1.81274
2.9855	-1.00708
2.986	6.2439
2.9865	7.04956
2.987	12.68921
2.9875	6.14319
2.988	13.69629
2.9885	13.797
2.989	21.75293
2.9895	19.83948
2.99	15.50903
2.9905	12.48779
2.991	2.31628
2.9915	-1.2085
2.992	-2.5177
2.9925	-15.00549
2.993	-8.96301
2.9935	-9.97009
2.994	-7.85522
2.9945	-9.26514
2.995	-8.35876
2.9955	-0.20142
2.996	-6.64673
2.9965	0.10071
2.997	0.50354
2.9975	-6.94885
2.998	-0.50354
2.9985	4.12903
2.999	-0.70496
2.9995	2.92053
3	5.74036
3.0005	9.26514
3.001	13.797
3.0015	8.45947
3.002	4.73328
3.0025	4.63257
3.003	2.11487
3.0035	1.71204
3.004	5.43823
3.0045	-0.70496
3.005	0.80566
3.0055	5.84106
3.006	2.81982
3.0065	1.10779
3.007	6.14319
3.0075	4.83398
3.008	6.3446
3.0085	3.7262
3.009	6.94885
3.0095	1.71204
3.01	1.81274
3.0105	1.40991
3.011	2.81982
3.0115	-0.20142
3.012	6.54602
3.0125	5.23682
3.013	2.01416
3.0135	7.75452
3.014	4.43115
3.0145	6.64673
3.015	7.25098
3.0155	7.15027
3.016	12.28638
3.0165	14.60266
3.017	6.74744
3.0175	14.40125
3.018	15.20691
3.0185	14.80408
3.019	14.09912
3.0195	11.07788
3.02	8.05664
3.0205	5.23682
3.021	1.71204
3.0215	7.15027
3.022	4.22974
3.0225	5.13611
3.023	8.8623
3.0235	5.84106
3.024	5.74036
3.0245	4.43115
3.025	2.11487
3.0255	4.53186
3.026	2.5177
3.0265	-3.12195
3.027	2.01416
3.0275	-0.70496
3.028	-6.54602
3.0285	-2.01416
3.029	-1.61133
3.0295	-3.8269
3.03	0.20142
3.0305	4.33044
3.031	-2.11487
3.0315	1.00708
3.032	3.7262
3.0325	0.80566
3.033	1.10779
3.0335	7.65381
3.034	0.60425
3.0345	3.12195
3.035	9.56726
3.0355	10.77576
3.036	10.77576
3.0365	9.06372
3.037	5.33752
3.0375	3.62549
3.038	9.86938
3.0385	7.45239
3.039	10.97717
3.0395	10.27222
3.04	10.37292
3.0405	13.59558
3.041	10.67505
3.0415	8.45947
3.042	7.65381
3.0425	5.53894
3.043	8.35876
3.0435	2.41699
3.044	2.5177
3.0445	1.91345
3.045	2.71912
3.0455	3.02124
3.046	6.04248
3.0465	4.63257
3.047	9.26514
3.0475	5.53894
3.048	6.3446
3.0485	7.65381
3.049	12.89062
3.0495	12.48779
3.05	15.91187
3.0505	21.75293
3.051	17.52319
3.0515	23.06213
3.052	22.05505
3.0525	16.21399
3.053	16.41541
3.0535	17.22107
3.054	15.40833
3.0545	14.19983
3.055	14.80408
3.0555	14.70337
3.056	12.18567
3.0565	12.48779
3.057	8.15735
3.0575	6.44531
3.058	13.09204
3.0585	0.50354
3.059	-5.74036
3.0595	-9.16443
3.06	-15.60974
3.0605	-16.41541
3.061	-15.00549
3.0615	-19.33594
3.062	-19.03381
3.0625	-17.6239
3.063	-17.01965
3.0635	-12.68921
3.064	-12.78992
3.0645	-7.95593
3.065	-6.14319
3.0655	5.63965
3.066	3.32336
3.0665	7.15027
3.067	9.86938
3.0675	6.04248
3.068	9.66797
3.0685	8.35876
3.069	11.98425
3.0695	13.797
3.07	24.67346
3.0705	20.84656
3.071	16.71753
3.0715	16.91895
3.072	13.69629
3.0725	14.70337
3.073	12.08496
3.0735	12.89062
3.074	10.17151
3.0745	8.8623
3.075	0.80566
3.0755	3.12195
3.076	-3.02124
3.0765	10.0708
3.077	54.78516
3.0775	71.09985
3.078	76.7395
3.0785	77.64587
3.079	71.90552
3.0795	60.22339
3.08	50.15259
3.0805	44.91577
3.081	31.82373
3.0815	16.91895
3.082	-1.00708
3.0825	-17.52319
3.083	-34.54285
3.0835	-45.62073
3.084	-50.85754
3.0845	-47.03064
3.085	-48.33984
3.0855	-50.05188
3.086	-53.57666
3.0865	-49.34692
3.087	-46.22498
3.0875	-41.99524
3.088	-30.51453
3.0885	-19.23523
3.089	-11.98425
3.0895	-5.84106
3.09	-3.42407
3.0905	-9.36584
3.091	-2.5177
3.0915	-8.35876
3.092	0.80566
3.0925	0.70496
3.093	5.43823
3.0935	10.17151
3.094	11.48071
3.0945	13.89771
3.095	17.32178
3.0955	15.1062
3.096	12.78992
3.0965	5.33752
3.097	4.83398
3.0975	1.91345
3.098	4.22974
3.0985	6.94885
3.099	4.12903
3.0995	5.74036
3.1	2.92053
3.1005	3.32336
3.101	3.12195
3.1015	0.50354
3.102	-4.33044
3.1025	-2.92053
3.103	-7.04956
3.1035	-2.92053
3.104	-4.83398
3.1045	-6.14319
3.105	-5.53894
3.1055	-5.13611
3.106	0.30212
3.1065	0
3.107	1.91345
3.1075	7.65381
3.108	6.64673
3.1085	7.45239
3.109	6.44531
3.1095	8.15735
3.11	5.13611
3.1105	10.57434
3.111	10.47363
3.1115	15.50903
3.112	21.14868
3.1125	18.93311
3.113	15.50903
3.1135	15.60974
3.114	15.20691
3.1145	15.91187
3.115	17.82532
3.1155	20.24231
3.116	17.12036
3.1165	16.21399
3.117	21.95435
3.1175	29.60815
3.118	26.08337
3.1185	26.08337
3.119	23.16284
3.1195	25.57983
3.12	15.1062
3.1205	14.50195
3.121	17.01965
3.1215	15.20691
3.122	8.45947
3.1225	6.94885
3.123	3.22266
3.1235	1.91345
3.124	-9.26514
3.1245	-14.60266
3.125	-16.71753
3.1255	-16.01257
3.126	-9.66797
3.1265	-2.61841
3.127	1.10779
3.1275	-4.73328
3.128	-5.33752
3.1285	-5.0354
3.129	-1.91345
3.1295	-2.5177
3.13	0.60425
3.1305	4.43115
3.131	5.63965
3.1315	14.60266
3.132	9.97009
3.1325	7.45239
3.133	7.85522
3.1335	8.96301
3.134	8.96301
3.1345	9.66797
3.135	9.06372
3.1355	8.8623
3.136	8.35876
3.1365	3.02124
3.137	1.91345
3.1375	9.56726
3.138	7.04956
3.1385	12.78992
3.139	14.19983
3.1395	13.797
3.14	9.16443
3.1405	7.04956
3.141	10.97717
3.1415	14.40125
3.142	10.37292
3.1425	9.66797
3.143	6.14319
3.1435	6.3446
3.144	-1.10779
3.1445	8.56018
3.145	-2.41699
3.1455	-0.70496
3.146	-2.71912
3.1465	-9.86938
3.147	-9.97009
3.1475	-5.0354
3.148	-4.83398
3.1485	-4.63257
3.149	3.12195
3.1495	-5.33752
3.15	-0.90637
3.1505	1.61133
3.151	4.22974
3.1515	11.68213
3.152	12.78992
3.1525	10.87646
3.153	11.17859
3.1535	13.89771
3.154	12.68921
3.1545	14.19983
3.155	14.60266
3.1555	11.78284
3.156	9.86938
3.1565	5.33752
3.157	5.13611
3.1575	2.31628
3.158	5.53894
3.1585	7.25098
3.159	4.43115
3.1595	4.93469
3.16	5.84106
3.1605	10.0708
3.161	5.63965
3.1615	2.31628
3.162	39.67896
3.1625	72.61047
3.163	85.40039
3.1635	80.4657
3.164	76.94092
3.1645	69.28711
3.165	61.33118
3.1655	45.41931
3.166	27.39258
3.1665	12.89062
3.167	-0.90637
3.1675	-14.50195
3.168	-33.73718
3.1685	-48.84338
3.169	-54.38232
3.1695	-58.71277
3.17	-51.76392
3.1705	-56.69861
3.171	-50.55542
3.1715	-49.95117
3.172	-45.62073
3.1725	-33.9386
3.173	-27.49329
3.1735	-15.71045
3.174	-7.65381
3.1745	3.12195
3.175	8.66089
3.1755	14.80408
3.176	16.81824
3.1765	13.39417
3.177	15.91187
3.1775	23.56567
3.178	25.68054
3.1785	24.16992
3.179	20.34302
3.1795	17.82532
3.18	17.52319
3.1805	20.24231
3.181	14.40125
3.1815	17.92603
3.182	13.39417
3.1825	18.12744
3.183	21.95435
3.1835	23.46497
3.184	27.49329
3.1845	19.23523
3.185	13.19275
3.1855	13.59558
3.186	11.38
3.1865	14.70337
3.187	18.02673
3.1875	14.50195
3.188	17.52319
3.1885	10.27222
3.189	6.64673
3.1895	1.51062
3.19	-7.95593
3.1905	-10.17151
3.191	-3.42407
3.1915	-5.74036
3.192	-9.06372
3.1925	-10.17151
3.193	-9.46655
3.1935	-6.74744
3.194	-10.27222
3.1945	-3.8269
3.195	-10.37292
3.1955	-9.56726
3.196	-1.61133
3.1965	-1.51062
3.197	-1.51062
3.1975	-3.62549
3.198	-0.70496
3.1985	3.52478
3.199	5.23682
3.1995	8.7616
3.2	6.64673
3.2005	8.15735
3.201	9.16443
3.2015	5.33752
3.202	8.56018
3.2025	5.43823
3.203	6.84814
3.2035	3.42407
3.204	5.84106
3.2045	5.63965
3.205	3.32336
3.2055	9.86938
3.206	10.67505
3.2065	9.06372
3.207	9.16443
3.2075	-1.51062
3.208	0.40283
3.2085	5.94177
3.209	4.83398
3.2095	3.62549
3.21	2.21558
3.2105	1.91345
3.211	2.61841
3.2115	3.32336
3.212	7.04956
3.2125	4.53186
3.213	2.01416
3.2135	3.02124
3.214	5.23682
3.2145	6.04248
3.215	7.95593
3.2155	4.33044
3.216	4.22974
3.2165	8.8623
3.217	3.42407
3.2175	-2.11487
3.218	1.71204
3.2185	-1.91345
3.219	-3.52478
3.2195	-5.84106
3.22	-5.53894
3.2205	-8.66089
3.221	-3.32336
3.2215	5.53894
3.222	8.35876
3.2225	9.06372
3.223	10.47363
3.2235	9.46655
3.224	8.05664
3.2245	15.1062
3.225	12.78992
3.2255	16.11328
3.226	12.5885
3.2265	8.96301
3.227	11.78284
3.2275	12.48779
3.228	13.39417
3.2285	19.03381
3.229	16.61682
3.2295	17.82532
3.23	11.78284
3.2305	15.1062
3.231	12.48779
3.2315	12.78992
3.232	11.78284
3.2325	6.54602
3.233	7.45239
3.2335	8.7616
3.234	6.14319
3.2345	-0.30212
3.235	8.45947
3.2355	5.23682
3.236	1.81274
3.2365	9.36584
3.237	9.16443
3.2375	-2.5177
3.238	0.20142
3.2385	1.71204
3.239	-5.0354
3.2395	-10.27222
3.24	-9.76868
3.2405	-12.5885
3.241	-9.16443
3.2415	-7.5531
3.242	-9.46655
3.2425	-3.02124
3.243	5.84106
3.2435	11.78284
3.244	18.22815
3.2445	38.47046
3.245	65.46021
3.2455	81.37207
3.246	84.39331
3.2465	77.34375
3.247	71.20056
3.2475	67.17224
3.248	44.81506
3.2485	25.88196
3.249	17.72461
3.2495	-1.71204
3.25	-18.22815
3.2505	-31.72302
3.251	-44.0094
3.2515	-48.23914
3.252	-57.10144
3.2525	-48.64197
3.253	-45.2179
3.2535	-46.02356
3.254	-38.36975
3.2545	-41.18958
3.255	-40.1825
3.2555	-26.88904
3.256	-23.56567
3.2565	-9.56726
3.257	-7.35168
3.2575	-0.50354
3.258	-0.30212
3.2585	8.35876
3.259	2.41699
3.2595	4.93469
3.26	8.25806
3.2605	12.99133
3.261	8.96301
3.2615	3.52478
3.262	2.31628
3.2625	1.81274
3.263	-0.30212
3.2635	3.22266
3.264	1.2085
3.2645	4.22974
3.265	2.21558
3.2655	7.5531
3.266	8.45947
3.2665	18.02673
3.267	12.89062
3.2675	10.17151
3.268	16.41541
3.2685	18.8324
3.269	22.96143
3.2695	24.97559
3.27	21.85364
3.2705	23.96851
3.271	25.07629
3.2715	20.04089
3.272	16.91895
3.2725	10.77576
3.273	10.57434
3.2735	12.68921
3.274	15.60974
3.2745	18.02673
3.275	11.48071
3.2755	9.86938
3.276	-1.00708
3.2765	1.2085
3.277	-5.74036
3.2775	-3.7262
3.278	-8.25806
3.2785	-11.58142
3.279	-8.45947
3.2795	-2.92053
3.28	0.70496
3.2805	2.5177
3.281	-0.30212
3.2815	1.10779
3.282	-1.51062
3.2825	0.10071
3.283	2.92053
3.2835	4.22974
3.284	3.32336
3.2845	13.29346
3.285	7.85522
3.2855	3.12195
3.286	8.8623
3.2865	7.04956
3.287	5.74036
3.2875	10.77576
3.288	11.38
3.2885	6.84814
3.289	8.7616
3.2895	14.60266
3.29	17.01965
3.2905	20.84656
3.291	19.33594
3.2915	18.02673
3.292	13.59558
3.2925	11.38
3.293	3.12195
3.2935	-2.92053
3.294	-5.13611
3.2945	-5.84106
3.295	-15.00549
3.2955	-6.74744
3.296	-7.35168
3.2965	-7.5531
3.297	-4.93469
3.2975	-3.22266
3.298	-6.84814
3.2985	-10.17151
3.299	-5.74036
3.2995	-3.02124
3.3	-0.20142
3.3005	6.64673
3.301	-0.10071
3.3015	2.41699
3.302	1.51062
3.3025	4.43115
3.303	3.42407
3.3035	9.86938
3.304	6.04248
3.3045	8.35876
3.305	13.19275
3.3055	10.47363
3.306	12.48779
3.3065	12.18567
3.307	8.35876
3.3075	6.64673
3.308	9.46655
3.3085	10.47363
3.309	1.10779
3.3095	4.22974
3.31	7.65381
3.3105	1.71204
3.311	4.22974
3.3115	-1.71204
3.312	0.40283
3.3125	-6.74744
3.313	-5.43823
3.3135	-4.12903
3.314	-4.53186
3.3145	0.90637
3.315	11.68213
3.3155	18.42957
3.316	19.43665
3.3165	19.63806
3.317	17.22107
3.3175	12.18567
3.318	15.91187
3.3185	6.64673
3.319	-1.2085
3.3195	0.80566
3.32	-3.12195
3.3205	2.31628
3.321	-5.33752
3.3215	-8.45947
3.322	-7.5531
3.3225	-9.46655
3.323	-0.40283
3.3235	1.10779
3.324	0.70496
3.3245	9.36584
3.325	9.97009
3.3255	4.63257
3.326	4.43115
3.3265	11.38
3.327	8.45947
3.3275	13.59558
3.328	10.47363
3.3285	7.85522
3.329	3.22266
3.3295	3.02124
3.33	3.52478
3.3305	2.01416
3.331	2.71912
3.3315	7.75452
3.332	4.63257
3.3325	6.44531
3.333	1.61133
3.3335	2.11487
3.334	9.46655
3.3345	10.57434
3.335	12.28638
3.3355	12.28638
3.336	43.70728
3.3365	69.79065
3.337	86.40747
3.3375	88.72375
3.338	82.47986
3.3385	67.57507
3.339	65.46021
3.3395	47.23206
3.34	26.58691
3.3405	11.38
3.341	-7.04956
3.3415	-15.71045
3.342	-40.98816
3.3425	-48.84338
3.343	-52.56958
3.3435	-46.42639
3.344	-43.00232
3.3445	-38.47046
3.345	-45.11719
3.3455	-48.33984
3.346	-41.59241
3.3465	-32.93152
3.347	-23.06213
3.3475	-16.21399
3.348	-1.81274
3.3485	-0.10071
3.349	2.21558
3.3495	5.43823
3.35	6.3446
3.3505	10.0708
3.351	15.30762
3.3515	9.16443
3.352	10.97717
3.3525	10.97717
3.353	8.35876
3.3535	8.05664
3.354	7.95593
3.3545	9.06372
3.355	10.57434
3.3555	9.06372
3.356	9.16443
3.3565	9.66797
3.357	6.84814
3.3575	7.35168
3.358	3.52478
3.3585	9.76868
3.359	7.25098
3.3595	7.04956
3.36	12.38708
3.3605	5.43823
3.361	6.2439
3.3615	6.3446
3.362	6.64673
3.3625	0
3.363	5.43823
3.3635	2.11487
3.364	1.81274
3.3645	1.91345
3.365	-5.63965
3.3655	-0.20142
3.366	-8.15735
3.3665	-10.47363
3.367	-4.63257
3.3675	-13.29346
3.368	-6.64673
3.3685	-3.92761
3.369	4.53186
3.3695	5.94177
3.37	11.17859
3.3705	8.25806
3.371	10.27222
3.3715	10.97717
3.372	7.85522
3.3725	13.19275
3.373	16.21399
3.3735	15.1062
3.374	21.55151
3.3745	22.86072
3.375	15.1062
3.3755	22.45789
3.376	19.73877
3.3765	13.19275
3.377	18.63098
3.3775	18.02673
3.378	19.73877
3.3785	16.11328
3.379	15.81116
3.3795	14.19983
3.38	6.94885
3.3805	5.23682
3.381	5.13611
3.3815	2.01416
3.382	7.65381
3.3825	1.81274
3.383	1.40991
3.3835	3.52478
3.384	7.95593
3.3845	4.73328
3.385	9.86938
3.3855	8.96301
3.386	3.92761
3.3865	4.63257
3.387	2.92053
3.3875	-7.35168
3.388	-3.02124
3.3885	-0.80566
3.389	5.33752
3.3895	1.71204
3.39	7.65381
3.3905	10.77576
3.391	15.40833
3.3915	17.01965
3.392	28.39966
3.3925	27.19116
3.393	29.40674
3.3935	29.91028
3.394	22.96143
3.3945	19.83948
3.395	16.61682
3.3955	20.24231
3.396	15.20691
3.3965	10.27222
3.397	5.74036
3.3975	-1.51062
3.398	-9.26514
3.3985	-15.30762
3.399	-16.81824
3.3995	-11.68213
3.4	-14.40125
3.4005	-22.76001
3.401	-31.01807
3.4015	-30.91736
3.402	-20.84656
3.4025	-24.06921
3.403	-23.66638
3.4035	-16.81824
3.404	-11.78284
3.4045	-2.61841
3.405	2.71912
3.4055	-4.22974
3.406	-2.41699
3.4065	2.61841
3.407	-1.3092
3.4075	4.93469
3.408	6.44531
3.4085	4.53186
3.409	-2.41699
3.4095	-1.2085
3.41	1.81274
3.4105	3.42407
3.411	6.14319
3.4115	6.44531
3.412	5.63965
3.4125	7.25098
3.413	39.17542
3.4135	74.92676
3.414	87.21313
3.4145	86.30676
3.415	78.14941
3.4155	64.35242
3.416	46.62781
3.4165	36.95984
3.417	21.3501
3.4175	5.63965
3.418	-4.33044
3.4185	-15.20691
3.419	-33.03223
3.4195	-40.2832
3.42	-47.33276
3.4205	-40.68604
3.421	-37.06055
3.4215	-37.66479
3.422	-36.75842
3.4225	-38.974
3.423	-27.49329
3.4235	-30.71594
3.424	-19.13452
3.4245	-11.07788
3.425	-1.71204
3.4255	5.84106
3.426	14.40125
3.4265	17.82532
3.427	13.39417
3.4275	4.73328
3.428	7.15027
3.4285	13.09204
3.429	12.99133
3.4295	10.17151
3.43	10.37292
3.4305	6.64673
3.431	6.84814
3.4315	9.16443
3.432	8.66089
3.4325	9.46655
3.433	11.38
3.4335	10.67505
3.434	12.38708
3.4345	9.06372
3.435	9.26514
3.4355	15.30762
3.436	10.97717
3.4365	16.21399
3.437	19.63806
3.4375	16.81824
3.438	10.27222
3.4385	7.25098
3.439	6.44531
3.4395	3.62549
3.44	2.11487
3.4405	2.71912
3.441	-3.12195
3.4415	-11.68213
3.442	-16.41541
3.4425	-15.40833
3.443	-9.97009
3.4435	-10.27222
3.444	-9.76868
3.4445	-1.71204
3.445	3.22266
3.4455	-0.70496
3.446	1.61133
3.4465	5.13611
3.447	3.92761
3.4475	14.90479
3.448	15.00549
3.4485	7.35168
3.449	1.3092
3.4495	-2.61841
3.45	-0.20142
3.4505	3.8269
3.451	16.91895
3.4515	12.08496
3.452	11.38
3.4525	17.72461
3.453	12.99133
3.4535	10.47363
3.454	7.95593
3.4545	13.99841
3.455	18.53027
3.4555	18.63098
3.456	16.3147
3.4565	17.72461
3.457	16.21399
3.4575	16.21399
3.458	13.19275
3.4585	12.08496
3.459	16.11328
3.4595	14.90479
3.46	14.40125
3.4605	18.73169
3.461	12.99133
3.4615	12.89062
3.462	12.28638
3.4625	13.89771
3.463	9.97009
3.4635	5.43823
3.464	0.70496
3.4645	-6.3446
3.465	-3.8269
3.4655	-2.61841
3.466	-3.32336
3.4665	3.02124
3.467	-4.12903
3.4675	-5.0354
3.468	-3.12195
3.4685	1.61133
3.469	-2.92053
3.4695	0.30212
3.47	-6.54602
3.4705	-9.46655
3.471	-14.30054
3.4715	-10.97717
3.472	-12.48779
3.4725	-11.68213
3.473	-11.98425
3.4735	-11.58142
3.474	-12.38708
3.4745	-12.5885
3.475	-8.56018
3.4755	-8.15735
3.476	-7.45239
3.4765	-7.25098
3.477	-4.33044
3.4775	3.12195
3.478	0.90637
3.4785	1.00708
3.479	7.25098
3.4795	7.95593
3.48	15.00549
3.4805	18.53027
3.481	20.94727
3.4815	17.52319
3.482	13.797
3.4825	19.23523
3.483	22.55859
3.4835	19.13452
3.484	14.30054
3.4845	12.48779
3.485	15.81116
3.4855	11.68213
3.486	15.00549
3.4865	22.45789
3.487	24.97559
3.4875	19.63806
3.488	22.6593
3.4885	18.32886
3.489	22.76001
3.4895	18.32886
3.49	13.99841
3.4905	18.42957
3.491	17.22107
3.4915	16.61682
3.492	12.68921
3.4925	7.35168
3.493	12.78992
3.4935	6.84814
3.494	7.45239
3.4945	0.20142
3.495	1.81274
3.4955	4.53186
3.496	1.91345
3.4965	-1.51062
3.497	-8.7616
3.4975	-12.99133
3.498	-16.3147
3.4985	-5.74036
3.499	-6.3446
3.4995	1.71204
3.5	3.12195
3.5005	1.51062
3.501	6.44531
3.5015	7.95593
3.502	7.04956
3.5025	7.65381
3.503	6.3446
3.5035	6.94885
3.504	3.7262
3.5045	4.33044
3.505	8.56018
3.5055	-2.61841
3.506	-4.93469
3.5065	1.71204
3.507	0.70496
3.5075	-5.13611
3.508	-2.21558
3.5085	1.51062
3.509	-1.51062
3.5095	5.23682
3.51	8.66089
3.5105	8.7616
3.511	12.89062
3.5115	15.50903
3.512	7.45239
3.5125	40.98816
3.513	71.60339
3.5135	81.37207
3.514	81.27136
3.5145	78.35083
3.515	65.66162
3.5155	51.36108
3.516	43.60657
3.5165	18.32886
3.517	12.28638
3.5175	-1.2085
3.518	-20.74585
3.5185	-41.29028
3.519	-47.63489
3.5195	-46.72852
3.52	-49.0448
3.5205	-46.02356
3.521	-41.59241
3.5215	-39.27612
3.522	-32.42798
3.5225	-26.08337
3.523	-25.27771
3.5235	-12.68921
3.524	-12.38708
3.5245	-8.25806
3.525	-6.3446
3.5255	1.00708
3.526	-4.63257
3.5265	-6.04248
3.527	-1.91345
3.5275	5.84106
3.528	7.65381
3.5285	5.84106
3.529	16.41541
3.5295	10.47363
3.53	10.77576
3.5305	16.11328
3.531	10.17151
3.5315	7.95593
3.532	7.85522
3.5325	9.16443
3.533	17.6239
3.5335	16.01257
3.534	15.20691
3.5345	13.29346
3.535	17.42249
3.5355	21.24939
3.536	15.1062
3.5365	13.89771
3.537	15.30762
3.5375	9.46655
3.538	18.93311
3.5385	18.32886
3.539	18.53027
3.5395	19.03381
3.54	16.81824
3.5405	17.42249
3.541	16.11328
3.5415	15.81116
3.542	23.16284
3.5425	11.48071
3.543	10.0708
3.5435	-3.32336
3.544	-4.33044
3.5445	-4.33044
3.545	-8.66089
3.5455	-7.15027
3.546	-12.28638
3.5465	-8.56018
3.547	-4.63257
3.5475	-7.95593
3.548	-7.04956
3.5485	-4.63257
3.549	1.00708
3.5495	2.71912
3.55	1.61133
3.5505	1.81274
3.551	4.12903
3.5515	3.12195
3.552	6.44531
3.5525	5.63965
3.553	7.5531
3.5535	6.74744
3.554	4.83398
3.5545	6.14319
3.555	-0.30212
3.5555	11.48071
3.556	5.53894
3.5565	9.16443
3.557	14.09912
3.5575	8.7616
3.558	8.8623
3.5585	9.36584
3.559	18.32886
3.5595	18.42957
3.56	7.65381
3.5605	15.71045
3.561	11.88354
3.5615	9.86938
3.562	11.58142
3.5625	13.99841
3.563	10.27222
3.5635	11.78284
3.564	15.1062
3.5645	14.09912
3.565	17.92603
3.5655	19.63806
3.566	19.23523
3.5665	16.21399
3.567	9.16443
3.5675	7.5531
3.568	8.35876
3.5685	0.50354
3.569	3.32336
3.5695	12.5885
3.57	6.2439
3.5705	8.66089
3.571	14.09912
3.5715	10.87646
3.572	12.18567
3.5725	4.83398
3.573	2.61841
3.5735	5.63965
3.574	7.95593
3.5745	1.61133
3.575	-0.40283
3.5755	5.74036
3.576	-1.3092
3.5765	-5.13611
3.577	-0.70496
3.5775	-0.90637
3.578	3.22266
3.5785	5.84106
3.579	1.40991
3.5795	3.42407
3.58	6.54602
3.5805	5.13611
3.581	1.61133
3.5815	-0.10071
3.582	7.25098
3.5825	2.71912
3.583	7.85522
3.5835	4.43115
3.584	8.15735
3.5845	1.81274
3.585	-1.91345
3.5855	6.14319
3.586	4.33044
3.5865	-0.10071
3.587	-3.32336
3.5875	3.7262
3.588	5.33752
3.5885	15.30762
3.589	55.79224
3.5895	81.17065
3.59	84.2926
3.5905	80.16357
3.591	72.81189
3.5915	56.09436
3.592	44.31152
3.5925	24.57275
3.593	10.27222
3.5935	-6.44531
3.594	-12.68921
3.5945	-27.89612
3.595	-37.06055
3.5955	-36.95984
3.596	-41.99524
3.5965	-41.4917
3.597	-37.86621
3.5975	-39.47754
3.598	-40.48462
3.5985	-37.16125
3.599	-32.7301
3.5995	-20.54443
3.6	-12.08496
3.6005	-10.87646
3.601	0
3.6015	0.40283
3.602	4.22974
3.6025	8.05664
3.603	9.16443
3.6035	10.27222
3.604	20.04089
3.6045	21.14868
3.605	15.50903
3.6055	14.40125
3.606	6.3446
3.6065	1.71204
3.607	6.14319
3.6075	0.80566
3.608	-6.14319
3.6085	-5.43823
3.609	-8.56018
3.6095	-1.91345
3.61	0.80566
3.6105	6.84814
3.611	7.65381
3.6115	9.76868
3.612	11.88354
3.6125	11.17859
3.613	7.35168
3.6135	10.27222
3.614	12.28638
3.6145	10.17151
3.615	20.04089
3.6155	21.55151
3.616	20.24231
3.6165	17.52319
3.617	9.36584
3.6175	7.75452
3.618	2.41699
3.6185	4.22974
3.619	7.5531
3.6195	9.16443
3.62	5.94177
3.6205	9.76868
3.621	2.11487
3.6215	-0.90637
3.622	4.43115
3.6225	5.0354
3.623	0.30212
3.6235	2.31628
3.624	4.33044
3.6245	-1.10779
3.625	-3.7262
3.6255	6.3446
3.626	2.21558
3.6265	-3.22266
3.627	-1.2085
3.6275	5.13611
3.628	-0.30212
3.6285	5.53894
3.629	6.94885
3.6295	13.19275
3.63	12.5885
3.6305	20.74585
3.631	13.99841
3.6315	7.15027
3.632	4.02832
3.6325	2.71912
3.633	-3.42407
3.6335	1.3092
3.634	9.16443
3.6345	-0.90637
3.635	3.92761
3.6355	3.52478
3.636	6.2439
3.6365	7.15027
3.637	8.25806
3.6375	10.57434
3.638	7.15027
3.6385	2.81982
3.639	3.12195
3.6395	0.40283
3.64	1.61133
3.6405	3.32336
3.641	9.76868
3.6415	4.83398
3.642	4.73328
3.6425	14.30054
3.643	14.90479
3.6435	8.35876
3.644	13.797
3.6445	13.59558
3.645	8.45947
3.6455	10.87646
3.646	11.48071
3.6465	11.88354
3.647	10.87646
3.6475	6.64673
3.648	1.81274
3.6485	6.3446
3.649	6.94885
3.6495	9.46655
3.65	6.04248
3.6505	7.45239
3.651	10.87646
3.6515	8.45947
3.652	16.3147
3.6525	18.73169
3.653	15.40833
3.6535	23.76709
3.654	32.42798
3.6545	31.21948
3.655	29.10461
3.6555	29.91028
3.656	30.01099
3.6565	27.79541
3.657	28.80249
3.6575	22.45789
3.658	43.80798
3.6585	70.59631
3.659	73.71826
3.6595	68.48145
3.66	59.92126
3.6605	45.92285
3.661	30.11169
3.6615	17.12036
3.662	7.45239
3.6625	-6.74744
3.663	-22.6593
3.6635	-36.35559
3.664	-44.11011
3.6645	-64.151
3.665	-57.40356
3.6655	-56.29578
3.666	-65.05737
3.6665	-56.29578
3.667	-51.5625
3.6675	-57.30286
3.668	-51.15967
3.6685	-44.11011
3.669	-39.88037
3.6695	-31.72302
3.67	-24.27063
3.6705	-9.97009
3.671	-20.1416
3.6715	-15.50903
3.672	-17.12036
3.6725	-15.71045
3.673	-10.17151
3.6735	-13.99841
3.674	-0.80566
3.6745	3.22266
3.675	4.83398
3.6755	4.43115
3.676	12.89062
3.6765	19.03381
3.677	19.23523
3.6775	23.76709
3.678	19.73877
3.6785	22.76001
3.679	23.96851
3.6795	24.57275
3.68	28.29895
3.6805	26.08337
3.681	22.35718
3.6815	20.04089
3.682	20.54443
3.6825	15.20691
3.683	12.99133
3.6835	8.05664
3.684	3.12195
3.6845	-3.8269
3.685	-15.00549
3.6855	-9.36584
3.686	-9.36584
3.6865	-4.83398
3.687	1.2085
3.6875	2.11487
3.688	8.25806
3.6885	5.53894
3.689	4.93469
3.6895	3.02124
3.69	7.5531
3.6905	8.7616
3.691	9.06372
3.6915	4.12903
3.692	6.04248
3.6925	7.75452
3.693	6.84814
3.6935	6.44531
3.694	4.22974
3.6945	-4.22974
3.695	-8.15735
3.6955	-8.35876
3.696	-10.27222
3.6965	-8.56018
3.697	-4.63257
3.6975	-4.83398
3.698	-3.92761
3.6985	-3.02124
3.699	-0.90637
3.6995	10.87646
3.7	5.43823
3.7005	7.75452
3.701	9.06372
3.7015	9.36584
3.702	3.8269
3.7025	8.66089
3.703	4.53186
3.7035	5.74036
3.704	4.83398
3.7045	6.44531
3.705	6.64673
3.7055	10.27222
3.706	11.48071
3.7065	22.35718
3.707	23.16284
3.7075	25.57983
3.708	22.76001
3.7085	14.50195
3.709	19.03381
3.7095	18.12744
3.71	15.71045
3.7105	19.33594
3.711	23.56567
3.7115	26.48621
3.712	21.85364
3.7125	25.27771
3.713	24.16992
3.7135	18.8324
3.714	14.60266
3.7145	6.74744
3.715	3.7262
3.7155	-6.44531
3.716	-6.74744
3.7165	-7.95593
3.717	-11.2793
3.7175	-12.28638
3.718	-12.38708
3.7185	-16.01257
3.719	-12.5885
3.7195	-14.80408
3.72	-9.26514
3.7205	-15.60974
3.721	-8.7616
3.7215	-8.7616
3.722	3.02124
3.7225	1.3092
3.723	1.61133
3.7235	4.93469
3.724	7.35168
3.7245	9.86938
3.725	9.16443
3.7255	7.45239
3.726	9.86938
3.7265	14.90479
3.727	5.43823
3.7275	4.43115
3.728	7.25098
3.7285	5.13611
3.729	10.37292
3.7295	18.02673
3.73	14.80408
3.7305	10.47363
3.731	13.49487
3.7315	12.38708
3.732	13.69629
3.7325	16.21399
3.733	22.45789
3.7335	18.8324
3.734	16.41541
3.7345	25.78125
3.735	22.15576
3.7355	24.06921
3.736	22.6593
3.7365	19.03381
3.737	18.32886
3.7375	15.20691
3.738	8.66089
3.7385	10.37292
3.739	11.68213
3.7395	6.94885
3.74	12.18567
3.7405	14.90479
3.741	3.62549
3.7415	5.0354
3.742	0.20142
3.7425	0.80566
3.743	-4.33044
3.7435	10.37292
3.744	46.82922
3.7445	64.05029
3.745	67.67578
3.7455	68.17932
3.746	65.76233
3.7465	46.82922
3.747	41.18958
3.7475	23.66638
3.748	8.56018
3.7485	-7.5531
3.749	-27.39258
3.7495	-42.8009
3.75	-52.06604
3.7505	-47.8363
3.751	-48.03772
3.7515	-44.0094
3.752	-45.11719
3.7525	-47.03064
3.753	-50.75684
3.7535	-42.09595
3.754	-35.04639
3.7545	-24.97559
3.755	-17.72461
3.7555	-5.63965
3.756	-2.01416
3.7565	7.35168
3.757	5.63965
3.7575	4.53186
3.758	6.44531
3.7585	16.11328
3.759	9.26514
3.7595	13.99841
3.76	21.65222
3.7605	13.69629
3.761	11.98425
3.7615	18.73169
3.762	17.42249
3.7625	22.55859
3.763	21.3501
3.7635	19.13452
3.764	19.94019
3.7645	19.23523
3.765	17.32178
3.7655	10.37292
3.766	8.66089
3.7665	7.45239
3.767	4.53186
3.7675	7.75452
3.768	4.12903
3.7685	3.7262
3.769	12.08496
3.7695	11.68213
3.77	3.32336
3.7705	9.26514
3.771	4.12903
3.7715	-6.3446
3.772	-4.12903
3.7725	-8.7616
3.773	-5.43823
3.7735	-4.22974
3.774	-2.41699
3.7745	0.80566
3.775	4.43115
3.7755	-3.32336
3.776	-0.20142
3.7765	1.00708
3.777	3.42407
3.7775	0.80566
3.778	-3.42407
3.7785	-5.43823
3.779	-4.73328
3.7795	-5.63965
3.78	-10.37292
3.7805	-7.45239
3.781	0.40283
3.7815	11.2793
3.782	6.14319
3.7825	8.66089
3.783	8.96301
3.7835	8.15735
3.784	1.91345
3.7845	-3.92761
3.785	-13.797
3.7855	-8.66089
3.786	-3.92761
3.7865	-1.81274
3.787	-3.92761
3.7875	3.32336
3.788	-1.81274
3.7885	1.40991
3.789	3.7262
3.7895	3.12195
3.79	3.32336
3.7905	15.40833
3.791	18.93311
3.7915	15.1062
3.792	17.52319
3.7925	11.58142
3.793	6.54602
3.7935	2.21558
3.794	7.04956
3.7945	6.3446
3.795	1.00708
3.7955	4.22974
3.796	-3.12195
3.7965	1.00708
3.797	6.74744
3.7975	10.57434
3.798	8.25806
3.7985	10.97717
3.799	10.87646
3.7995	7.04956
3.8	11.38
3.8005	6.74744
3.801	10.0708
3.8015	10.37292
3.802	11.78284
3.8025	10.37292
3.803	13.09204
3.8035	10.17151
3.804	9.36584
3.8045	10.77576
3.805	8.15735
3.8055	6.44531
3.806	9.76868
3.8065	10.57434
3.807	0.20142
3.8075	-1.10779
3.808	5.63965
3.8085	3.92761
3.809	9.16443
3.8095	9.86938
3.81	2.61841
3.8105	4.33044
3.811	1.40991
3.8115	0.30212
3.812	4.02832
3.8125	-5.0354
3.813	8.66089
3.8135	3.42407
3.814	4.63257
3.8145	6.3446
3.815	8.15735
3.8155	10.47363
3.816	10.57434
3.8165	10.37292
3.817	17.42249
3.8175	14.40125
3.818	14.70337
3.8185	16.71753
3.819	8.05664
3.8195	8.05664
3.82	8.96301
3.8205	9.97009
3.821	1.00708
3.8215	3.8269
3.822	5.33752
3.8225	4.22974
3.823	2.71912
3.8235	6.64673
3.824	1.91345
3.8245	2.61841
3.825	1.61133
3.8255	-0.30212
3.826	-1.10779
3.8265	-1.81274
3.827	-0.30212
3.8275	37.06055
3.828	62.33826
3.8285	80.16357
3.829	75.22888
3.8295	70.69702
3.83	56.49719
3.8305	52.46887
3.831	37.46338
3.8315	24.06921
3.832	10.17151
3.8325	-2.61841
3.833	-12.08496
3.8335	-22.45789
3.834	-34.64355
3.8345	-32.02515
3.835	-36.4563
3.8355	-34.54285
3.836	-35.14709
3.8365	-38.06763
3.837	-40.78674
3.8375	-37.56409
3.838	-37.56409
3.8385	-21.55151
3.839	-18.22815
3.8395	-6.64673
3.84	-1.40991
3.8405	1.61133
3.841	4.02832
3.8415	8.15735
3.842	7.65381
3.8425	9.36584
3.843	7.04956
3.8435	13.99841
3.844	13.29346
3.8445	14.90479
3.845	9.16443
3.8455	6.84814
3.846	7.15027
3.8465	6.3446
3.847	-1.00708
3.8475	0.40283
3.848	0
3.8485	-6.64673
3.849	-2.71912
3.8495	-2.81982
3.85	-2.92053
3.8505	1.2085
3.851	5.0354
3.8515	4.33044
3.852	6.84814
3.8525	3.02124
3.853	2.11487
3.8535	2.11487
3.854	8.8623
3.8545	10.0708
3.855	8.15735
3.8555	10.87646
3.856	13.49487
3.8565	8.45947
3.857	4.33044
3.8575	7.65381
3.858	6.44531
3.8585	5.13611
3.859	5.84106
3.8595	12.38708
3.86	11.98425
3.8605	12.28638
3.861	14.80408
3.8615	14.40125
3.862	17.6239
3.8625	19.13452
3.863	15.60974
3.8635	13.19275
3.864	12.89062
3.8645	3.12195
3.865	-3.32336
3.8655	-0.40283
3.866	-6.94885
3.8665	-10.37292
3.867	-13.19275
3.8675	-12.5885
3.868	-12.48779
3.8685	-6.74744
3.869	-3.62549
3.8695	-6.44531
3.87	2.61841
3.8705	2.31628
3.871	-0.20142
3.8715	5.0354
3.872	3.02124
3.8725	-0.50354
3.873	10.77576
3.8735	14.90479
3.874	19.53735
3.8745	25.27771
3.875	19.33594
3.8755	25.68054
3.876	19.23523
3.8765	23.36426
3.877	26.08337
3.8775	19.94019
3.878	21.45081
3.8785	17.22107
3.879	16.01257
3.8795	14.19983
3.88	9.66797
3.8805	10.97717
3.881	11.38
3.8815	9.36584
3.882	5.94177
3.8825	8.35876
3.883	2.5177
3.8835	0.70496
3.884	3.32336
3.8845	1.51062
3.885	0.70496
3.8855	5.23682
3.886	11.07788
3.8865	14.19983
3.887	13.59558
3.8875	15.20691
3.888	13.29346
3.8885	19.73877
3.889	18.8324
3.8895	20.04089
3.89	19.43665
3.8905	13.69629
3.891	11.38
3.8915	9.97009
3.892	7.75452
3.8925	7.5531
3.893	2.21558
3.8935	2.11487
3.894	-1.00708
3.8945	-8.45947
3.895	-3.52478
3.8955	-5.0354
3.896	-8.8623
3.8965	-2.31628
3.897	-0.70496
3.8975	-0.80566
3.898	3.7262
3.8985	5.23682
3.899	7.75452
3.8995	-2.61841
3.9	-2.81982
3.9005	0
3.901	37.96692
3.9015	60.62622
3.902	65.3595
3.9025	57.10144
3.903	51.15967
3.9035	43.60657
3.904	33.43506
3.9045	18.42957
3.905	9.46655
3.9055	17.42249
3.906	21.75293
3.9065	26.58691
3.907	7.15027
3.9075	-6.74744
3.908	-20.74585
3.9085	-32.12585
3.909	-56.29578
3.9095	-73.81897
3.91	-80.86853
3.9105	-86.60889
3.911	-81.57349
3.9115	-70.99915
3.912	-60.12268
3.9125	-41.18958
3.913	-20.34302
3.9135	-21.24939
3.914	-18.42957
3.9145	-12.89062
3.915	-9.66797
3.9155	-8.15735
3.916	6.3446
3.9165	8.35876
3.917	8.7616
3.9175	13.99841
3.918	11.98425
3.9185	8.25806
3.919	17.92603
3.9195	19.53735
3.92	13.59558
3.9205	7.85522
3.921	12.5885
3.9215	16.51611
3.922	26.08337
3.9225	28.29895
3.923	21.85364
3.9235	24.57275
3.924	23.06213
3.9245	19.73877
3.925	20.04089
3.9255	14.19983
3.926	13.39417
3.9265	8.25806
3.927	4.02832
3.9275	7.25098
3.928	2.92053
3.9285	5.33752
3.929	4.33044
3.9295	1.3092
3.93	7.85522
3.9305	9.16443
3.931	8.96301
3.9315	11.88354
3.932	13.49487
3.9325	17.22107
3.933	10.77576
3.9335	12.28638
3.934	7.45239
3.9345	4.93469
3.935	11.78284
3.9355	17.01965
3.936	9.26514
3.9365	3.92761
3.937	6.74744
3.9375	2.41699
3.938	4.53186
3.9385	2.81982
3.939	0.30212
3.9395	12.5885
3.94	10.17151
3.9405	7.45239
3.941	10.47363
3.9415	4.33044
3.942	3.7262
3.9425	0.10071
3.943	4.22974
3.9435	2.92053
3.944	5.33752
3.9445	0.90637
3.945	3.02124
3.9455	8.35876
3.946	8.96301
3.9465	5.23682
3.947	5.74036
3.9475	6.3446
3.948	4.83398
3.9485	2.31628
3.949	5.33752
3.9495	17.92603
3.95	12.99133
3.9505	10.67505
3.951	13.59558
3.9515	12.48779
3.952	10.17151
3.9525	9.76868
3.953	5.13611
3.9535	6.54602
3.954	8.35876
3.9545	4.53186
3.955	-2.11487
3.9555	4.33044
3.956	4.43115
3.9565	10.37292
3.957	9.66797
3.9575	8.96301
3.958	8.35876
3.9585	3.52478
3.959	-1.81274
3.9595	-6.2439
3.96	-11.98425
3.9605	-13.09204
3.961	-20.74585
3.9615	-20.44373
3.962	-13.99841
3.9625	-14.30054
3.963	-3.22266
3.9635	4.53186
