Marco_Margarita_Right_3.c3d  



Time(s):	B_L_bicipite(μV):
0	-76.84021
0.0005	-83.48694
0.001	-67.97791
0.0015	-59.61914
0.002	-45.01648
0.0025	-35.2478
0.003	-32.93152
0.0035	-69.79065
0.004	-83.18481
0.0045	-59.61914
0.005	-40.1825
0.0055	-35.95276
0.006	-20.84656
0.0065	4.83398
0.007	42.90161
0.0075	65.66162
0.008	90.93933
0.0085	123.46802
0.009	146.83228
0.0095	144.01245
0.01	145.72449
0.0105	139.78271
0.011	131.32324
0.0115	127.79846
0.012	122.56165
0.0125	108.76465
0.013	98.19031
0.0135	82.47986
0.014	64.35242
0.0145	56.5979
0.015	51.66321
0.0155	44.91577
0.016	39.77966
0.0165	5.43823
0.017	-34.03931
0.0175	-37.7655
0.018	-41.69312
0.0185	-41.08887
0.019	-29.10461
0.0195	-15.71045
0.02	3.92761
0.0205	24.97559
0.021	30.01099
0.0215	29.30603
0.022	26.68762
0.0225	22.76001
0.023	23.36426
0.0235	18.73169
0.024	5.63965
0.0245	0.40283
0.025	4.73328
0.0255	6.04248
0.026	7.65381
0.0265	-4.63257
0.027	-2.31628
0.0275	32.12585
0.028	70.49561
0.0285	72.30835
0.029	47.8363
0.0295	6.84814
0.03	-44.51294
0.0305	-84.89685
0.031	-121.35315
0.0315	-138.07068
0.032	-126.9928
0.0325	-108.1604
0.033	-102.62146
0.0335	-94.66553
0.034	-78.75366
0.0345	-56.5979
0.035	-36.95984
0.0355	-17.42249
0.036	-3.42407
0.0365	2.92053
0.037	10.0708
0.0375	8.05664
0.038	10.17151
0.0385	13.49487
0.039	17.72461
0.0395	28.29895
0.04	53.67737
0.0405	72.10693
0.041	81.87561
0.0415	70.49561
0.042	68.48145
0.0425	74.02039
0.043	87.41455
0.0435	100.70801
0.044	111.9873
0.0445	90.23438
0.045	69.79065
0.0455	51.26038
0.046	39.57825
0.0465	26.98975
0.047	17.6239
0.0475	-2.41699
0.048	-51.46179
0.0485	-140.68909
0.049	-241.90063
0.0495	-318.94226
0.05	-349.75891
0.0505	-330.32227
0.051	-296.18225
0.0515	-244.21692
0.052	-196.68274
0.0525	-146.12732
0.053	-67.57507
0.0535	-7.25098
0.054	37.36267
0.0545	73.51685
0.055	103.22571
0.0555	117.52625
0.056	125.48218
0.0565	138.07068
0.057	157.80945
0.0575	202.5238
0.058	248.54736
0.0585	289.33411
0.059	264.0564
0.0595	212.4939
0.06	174.92981
0.0605	152.67334
0.061	131.02112
0.0615	102.72217
0.062	75.93384
0.0625	65.46021
0.063	63.74817
0.0635	72.50977
0.064	71.20056
0.0645	71.7041
0.065	65.15808
0.0655	44.31152
0.066	14.50195
0.0665	-32.12585
0.067	-69.79065
0.0675	-78.45154
0.068	-80.56641
0.0685	-89.02588
0.069	-98.49243
0.0695	-136.15723
0.07	-175.73547
0.0705	-187.51831
0.071	-206.14929
0.0715	-234.34753
0.072	-224.17603
0.0725	-183.99353
0.073	-133.3374
0.0735	-81.7749
0.074	-19.73877
0.0745	54.18091
0.075	113.80005
0.0755	164.45618
0.076	208.56628
0.0765	218.73779
0.077	201.91956
0.0775	189.43176
0.078	187.21619
0.0785	176.13831
0.079	144.91882
0.0795	110.47668
0.08	81.47278
0.0805	61.33118
0.081	44.0094
0.0815	29.30603
0.082	13.797
0.0825	7.15027
0.083	-2.11487
0.0835	-6.14319
0.084	2.5177
0.0845	4.53186
0.085	6.84814
0.0855	6.84814
0.086	7.15027
0.0865	15.60974
0.087	8.25806
0.0875	6.44531
0.088	-7.65381
0.0885	-14.70337
0.089	-11.88354
0.0895	-13.797
0.09	-44.81506
0.0905	-97.38464
0.091	-154.18396
0.0915	-177.04468
0.092	-166.36963
0.0925	-151.56555
0.093	-120.54749
0.0935	-92.14783
0.094	-64.65454
0.0945	-38.26904
0.095	-0.40283
0.0955	28.60107
0.096	38.67188
0.0965	49.74976
0.097	59.31702
0.0975	67.57507
0.098	75.73242
0.0985	70.3949
0.099	69.48853
0.0995	63.84888
0.1	60.3241
0.1005	57.60498
0.101	59.01489
0.1015	64.05029
0.102	72.61047
0.1025	59.21631
0.103	45.01648
0.1035	38.26904
0.104	36.25488
0.1045	41.59241
0.105	28.80249
0.1055	26.88904
0.106	31.62231
0.1065	24.77417
0.107	23.56567
0.1075	21.55151
0.108	12.18567
0.1085	5.23682
0.109	-3.92761
0.1095	-17.6239
0.11	-51.5625
0.1105	-91.24146
0.111	-101.11084
0.1115	-92.24854
0.112	-87.61597
0.1125	-64.55383
0.113	-43.10303
0.1135	-21.65222
0.114	0
0.1145	14.50195
0.115	27.49329
0.1155	37.26196
0.116	46.12427
0.1165	44.31152
0.117	31.01807
0.1175	24.87488
0.118	24.77417
0.1185	19.94019
0.119	18.53027
0.1195	4.02832
0.12	-9.56726
0.1205	-21.3501
0.121	-32.42798
0.1215	-59.82056
0.122	-59.41772
0.1225	-67.27295
0.123	-69.89136
0.1235	-67.67578
0.124	-71.30127
0.1245	-82.47986
0.125	-109.87244
0.1255	-125.58289
0.126	-131.72607
0.1265	-120.04395
0.127	-104.13208
0.1275	-86.10535
0.128	-57.40356
0.1285	-38.57117
0.129	-47.63489
0.1295	-51.46179
0.13	-28.50037
0.1305	-0.10071
0.131	3.62549
0.1315	-12.68921
0.132	-14.09912
0.1325	18.73169
0.133	60.12268
0.1335	96.17615
0.134	125.58289
0.1345	150.8606
0.135	93.0542
0.1355	12.28638
0.136	-19.63806
0.1365	-11.98425
0.137	-1.3092
0.1375	18.42957
0.138	50.2533
0.1385	65.46021
0.139	81.87561
0.1395	103.82996
0.14	120.84961
0.1405	136.86218
0.141	140.8905
0.1415	128.70483
0.142	127.29492
0.1425	118.53333
0.143	106.64978
0.1435	90.63721
0.144	85.09827
0.1445	77.24304
0.145	80.26428
0.1455	59.21631
0.146	42.49878
0.1465	3.22266
0.147	-30.01099
0.1475	-43.90869
0.148	-86.8103
0.1485	-132.33032
0.149	-146.02661
0.1495	-155.49316
0.15	-206.14929
0.1505	-204.63867
0.151	-180.06592
0.1515	-136.96289
0.152	-86.91101
0.1525	-40.2832
0.153	-0.60425
0.1535	42.39807
0.154	98.79456
0.1545	134.64661
0.155	132.0282
0.1555	118.13049
0.156	83.38623
0.1565	66.56799
0.157	65.76233
0.1575	73.71826
0.158	78.45154
0.1585	73.61755
0.159	66.6687
0.1595	64.05029
0.16	47.53418
0.1605	37.7655
0.161	42.90161
0.1615	63.54675
0.162	96.57898
0.1625	112.69226
0.163	92.85278
0.1635	68.58215
0.164	56.5979
0.1645	49.44763
0.165	50.05188
0.1655	47.13135
0.166	43.10303
0.1665	33.83789
0.167	6.74744
0.1675	-42.7002
0.168	-67.57507
0.1685	-75.63171
0.169	-82.07703
0.1695	-86.91101
0.17	-86.00464
0.1705	-118.2312
0.171	-150.55847
0.1715	-162.13989
0.172	-137.66785
0.1725	-101.31226
0.173	-78.25012
0.1735	-58.41064
0.174	-35.44922
0.1745	-12.78992
0.175	12.68921
0.1755	30.11169
0.176	53.57666
0.1765	80.66711
0.177	100.40588
0.1775	109.67102
0.178	96.17615
0.1785	74.2218
0.179	71.09985
0.1795	98.19031
0.18	116.01562
0.1805	114.20288
0.181	89.328
0.1815	65.96375
0.182	50.2533
0.1825	35.04639
0.183	-15.40833
0.1835	-51.05896
0.184	-75.4303
0.1845	-98.29102
0.185	-126.28784
0.1855	-142.90466
0.186	-132.53174
0.1865	-125.88501
0.187	-119.64111
0.1875	-112.69226
0.188	-176.23901
0.1885	-230.01709
0.189	-259.021
0.1895	-251.26648
0.19	-207.4585
0.1905	-128.50342
0.191	-41.29028
0.1915	19.33594
0.192	90.5365
0.1925	143.00537
0.193	184.39636
0.1935	210.68115
0.194	229.61426
0.1945	239.68506
0.195	235.25391
0.1955	223.37036
0.196	208.06274
0.1965	176.23901
0.197	131.02112
0.1975	104.73633
0.198	92.75208
0.1985	67.37366
0.199	-6.14319
0.1995	-80.36499
0.2	-99.90234
0.2005	-125.68359
0.201	-143.60962
0.2015	-141.09192
0.202	-128.302
0.2025	-100.10376
0.203	-66.26587
0.2035	-36.05347
0.204	-7.04956
0.2045	24.97559
0.205	40.98816
0.2055	31.11877
0.206	24.57275
0.2065	15.30762
0.207	24.06921
0.2075	39.57825
0.208	56.49719
0.2085	66.06445
0.209	74.02039
0.2095	99.80164
0.21	127.09351
0.2105	156.80237
0.211	153.17688
0.2115	121.45386
0.212	92.55066
0.2125	68.38074
0.213	52.97241
0.2135	42.39807
0.214	31.32019
0.2145	19.13452
0.215	9.26514
0.2155	-3.42407
0.216	-10.0708
0.2165	-2.11487
0.217	29.70886
0.2175	52.46887
0.218	40.08179
0.2185	17.6239
0.219	7.15027
0.2195	-2.41699
0.22	-6.44531
0.2205	-8.7616
0.221	-12.28638
0.2215	-6.3446
0.222	-17.22107
0.2225	-30.01099
0.223	-39.47754
0.2235	-59.31702
0.224	-110.07385
0.2245	-187.82043
0.225	-266.37268
0.2255	-308.56934
0.226	-304.94385
0.2265	-267.07764
0.227	-209.27124
0.2275	-150.9613
0.228	-76.84021
0.2285	-6.74744
0.229	52.97241
0.2295	77.24304
0.23	87.01172
0.2305	95.37048
0.231	101.61438
0.2315	115.41138
0.232	125.07935
0.2325	131.22253
0.233	130.41687
0.2335	110.57739
0.234	73.51685
0.2345	35.95276
0.235	17.72461
0.2355	26.18408
0.236	28.19824
0.2365	9.06372
0.237	-16.11328
0.2375	-23.76709
0.238	-18.12744
0.2385	-13.99841
0.239	-14.19983
0.2395	-13.09204
0.24	-14.30054
0.2405	-1.61133
0.241	11.38
0.2415	18.8324
0.242	45.92285
0.2425	76.63879
0.243	95.06836
0.2435	69.38782
0.244	70.09277
0.2445	71.60339
0.245	75.83313
0.2455	75.53101
0.246	8.7616
0.2465	-48.44055
0.247	-78.85437
0.2475	-89.22729
0.248	-73.11401
0.2485	-49.24622
0.249	-25.78125
0.2495	-2.41699
0.25	22.35718
0.2505	32.62939
0.251	33.53577
0.2515	44.31152
0.252	42.09595
0.2525	39.47754
0.253	32.42798
0.2535	8.45947
0.254	-28.29895
0.2545	-93.75916
0.255	-124.97864
0.2555	-135.45227
0.256	-118.53333
0.2565	-94.76624
0.257	-82.27844
0.2575	-73.21472
0.258	-54.68445
0.2585	-32.42798
0.259	0.80566
0.2595	18.8324
0.26	42.90161
0.2605	64.151
0.261	85.80322
0.2615	92.34924
0.262	93.25562
0.2625	100.50659
0.263	103.52783
0.2635	96.17615
0.264	86.30676
0.2645	72.10693
0.265	55.2887
0.2655	51.86462
0.266	41.4917
0.2665	38.36975
0.267	29.80957
0.2675	29.00391
0.268	18.8324
0.2685	5.23682
0.269	-20.84656
0.2695	-62.43896
0.27	-84.09119
0.2705	-93.85986
0.271	-80.96924
0.2715	-68.88428
0.272	-54.0802
0.2725	-89.73083
0.273	-168.38379
0.2735	-202.22168
0.274	-207.5592
0.2745	-193.35938
0.275	-182.58362
0.2755	-143.50891
0.276	-88.32092
0.2765	-31.21948
0.277	13.49487
0.2775	53.97949
0.278	81.17065
0.2785	94.86694
0.279	97.58606
0.2795	91.94641
0.28	112.89368
0.2805	85.90393
0.281	18.73169
0.2815	-12.89062
0.282	-9.26514
0.2825	2.11487
0.283	4.33044
0.2835	8.56018
0.284	47.13135
0.2845	81.37207
0.285	117.12341
0.2855	148.24219
0.286	166.36963
0.2865	183.69141
0.287	193.35938
0.2875	175.73547
0.288	153.27759
0.2885	123.66943
0.289	92.75208
0.2895	57.70569
0.29	23.96851
0.2905	-1.00708
0.291	-7.5531
0.2915	-4.73328
0.292	-6.84814
0.2925	-7.35168
0.293	-13.797
0.2935	-36.05347
0.294	-63.24463
0.2945	-82.47986
0.295	-86.40747
0.2955	-85.5011
0.296	-78.65295
0.2965	-77.34375
0.297	-65.76233
0.2975	-52.26746
0.298	-44.31152
0.2985	-74.2218
0.299	-96.37756
0.2995	-109.4696
0.3	-129.00696
0.3005	-234.04541
0.301	-374.13025
0.3015	-461.24268
0.302	-468.69507
0.3025	-404.9469
0.303	-342.30652
0.3035	-294.06738
0.304	-211.78894
0.3045	-96.57898
0.305	-12.48779
0.3055	41.08887
0.306	87.71667
0.3065	117.82837
0.307	114.20288
0.3075	116.922
0.308	164.15405
0.3085	244.41833
0.309	274.02649
0.3095	275.93994
0.31	281.78101
0.3105	271.50879
0.311	248.84949
0.3115	220.55054
0.312	201.71814
0.3125	181.67725
0.313	146.63086
0.3135	108.1604
0.314	93.65845
0.3145	101.11084
0.315	116.61987
0.3155	137.46643
0.316	133.63953
0.3165	100.90942
0.317	81.97632
0.3175	72.20764
0.318	71.7041
0.3185	2.21558
0.319	-74.02039
0.3195	-107.95898
0.32	-119.33899
0.3205	-92.44995
0.321	-57.60498
0.3215	-37.86621
0.322	-8.8623
0.3225	24.27063
0.323	48.23914
0.3235	67.77649
0.324	77.04163
0.3245	86.20605
0.325	89.22729
0.3255	79.66003
0.326	86.20605
0.3265	70.29419
0.327	16.51611
0.3275	-12.68921
0.328	-31.4209
0.3285	-42.7002
0.329	-62.43896
0.3295	-110.17456
0.33	-110.47668
0.3305	-102.62146
0.331	-91.24146
0.3315	-81.57349
0.332	-38.36975
0.3325	-6.54602
0.333	18.12744
0.3335	16.41541
0.334	-12.28638
0.3345	-92.24854
0.335	-174.92981
0.3355	-197.18628
0.336	-174.02344
0.3365	-139.37988
0.337	-117.22412
0.3375	-81.97632
0.338	-40.68604
0.3385	-13.89771
0.339	6.44531
0.3395	36.85913
0.34	65.3595
0.3405	81.47278
0.341	105.34058
0.3415	138.77563
0.342	120.7489
0.3425	84.59473
0.343	59.1156
0.3435	54.68445
0.344	61.43188
0.3445	90.5365
0.345	93.15491
0.3455	65.15808
0.346	32.12585
0.3465	23.66638
0.347	28.50037
0.3475	30.81665
0.348	26.68762
0.3485	21.04797
0.349	27.99683
0.3495	42.39807
0.35	55.69153
0.3505	61.23047
0.351	59.71985
0.3515	71.30127
0.352	73.91968
0.3525	70.89844
0.353	61.12976
0.3535	57.20215
0.354	77.14233
0.3545	95.87402
0.355	100.90942
0.3555	95.26978
0.356	95.06836
0.3565	80.76782
0.357	68.17932
0.3575	83.18481
0.358	77.34375
0.3585	49.64905
0.359	22.86072
0.3595	11.17859
0.36	3.32336
0.3605	0.50354
0.361	-1.81274
0.3615	-10.27222
0.362	-27.49329
0.3625	-38.87329
0.363	-41.18958
0.3635	-40.88745
0.364	-33.9386
0.3645	-9.56726
0.365	-1.81274
0.3655	-22.15576
0.366	-33.9386
0.3665	-42.39807
0.367	-40.68604
0.3675	-41.89453
0.368	-35.54993
0.3685	-44.21082
0.369	-70.69702
0.3695	-94.3634
0.37	-144.01245
0.3705	-183.69141
0.371	-198.39478
0.3715	-189.33105
0.372	-160.12573
0.3725	-128.90625
0.373	-112.69226
0.3735	-69.48853
0.374	-25.47913
0.3745	29.80957
0.375	82.68127
0.3755	105.34058
0.376	104.23279
0.3765	19.63806
0.377	-24.77417
0.3775	-27.29187
0.378	-10.67505
0.3785	2.41699
0.379	47.13135
0.3795	92.75208
0.38	138.97705
0.3805	169.89441
0.381	173.31848
0.3815	166.26892
0.382	154.08325
0.3825	137.0636
0.383	100.30518
0.3835	73.11401
0.384	48.84338
0.3845	34.64355
0.385	37.26196
0.3855	11.38
0.386	-21.04797
0.3865	-64.05029
0.387	-86.8103
0.3875	-71.90552
0.388	-60.4248
0.3885	-61.6333
0.389	-60.72693
0.3895	-53.77808
0.39	-55.89294
0.3905	-38.77258
0.391	-40.38391
0.3915	-43.10303
0.392	-36.15417
0.3925	-5.63965
0.393	22.35718
0.3935	21.45081
0.394	27.79541
0.3945	31.4209
0.395	38.16833
0.3955	53.17383
0.396	47.53418
0.3965	19.33594
0.397	-6.74744
0.3975	-25.37842
0.398	-26.58691
0.3985	-12.68921
0.399	4.12903
0.3995	22.05505
0.4	21.3501
0.4005	29.20532
0.401	29.40674
0.4015	38.47046
0.402	54.98657
0.4025	66.06445
0.403	63.84888
0.4035	59.41772
0.404	49.74976
0.4045	44.81506
0.405	27.59399
0.4055	28.9032
0.406	18.73169
0.4065	17.72461
0.407	16.11328
0.4075	2.31628
0.408	-3.42407
0.4085	-8.56018
0.409	-11.2793
0.4095	-20.84656
0.41	-20.34302
0.4105	-32.52869
0.411	-62.8418
0.4115	-79.86145
0.412	-116.21704
0.4125	-217.42859
0.413	-315.7196
0.4135	-351.57166
0.414	-335.35767
0.4145	-286.91711
0.415	-242.40417
0.4155	-190.13672
0.416	-136.96289
0.4165	-98.29102
0.417	-52.26746
0.4175	-5.33752
0.418	26.98975
0.4185	26.78833
0.419	3.42407
0.4195	26.58691
0.42	18.93311
0.4205	-55.08728
0.421	-91.14075
0.4215	-80.86853
0.422	-40.48462
0.4225	26.18408
0.423	112.39014
0.4235	180.67017
0.424	239.38293
0.4245	289.93835
0.425	338.88245
0.4255	350.36316
0.426	330.82581
0.4265	261.13586
0.427	139.27917
0.4275	56.29578
0.428	31.72302
0.4285	34.44214
0.429	15.40833
0.4295	-49.74976
0.43	-85.90393
0.4305	-113.69934
0.431	-126.79138
0.4315	-122.15881
0.432	-90.83862
0.4325	-36.25488
0.433	8.15735
0.4335	57.70569
0.434	102.01721
0.4345	131.32324
0.435	151.36414
0.4355	157.60803
0.436	147.03369
0.4365	97.98889
0.437	41.29028
0.4375	7.04956
0.438	-11.2793
0.4385	-23.8678
0.439	-34.34143
0.4395	-18.63098
0.44	-1.81274
0.4405	7.35168
0.441	12.18567
0.4415	28.09753
0.442	7.5531
0.4425	-22.15576
0.443	-36.95984
0.4435	-40.78674
0.444	-28.70178
0.4445	9.97009
0.445	43.10303
0.4455	46.82922
0.446	46.22498
0.4465	68.88428
0.447	74.62463
0.4475	74.72534
0.448	69.38782
0.4485	61.02905
0.449	47.93701
0.4495	59.92126
0.45	63.84888
0.4505	64.55383
0.451	65.25879
0.4515	61.73401
0.452	64.65454
0.4525	57.30286
0.453	38.87329
0.4535	16.11328
0.454	-1.00708
0.4545	-13.89771
0.455	-15.50903
0.4555	-8.66089
0.456	-1.71204
0.4565	15.20691
0.457	27.39258
0.4575	21.75293
0.458	4.12903
0.4585	-12.68921
0.459	-11.78284
0.4595	-20.24231
0.46	-15.1062
0.4605	-17.01965
0.461	-21.45081
0.4615	-18.42957
0.462	-20.04089
0.4625	-13.39417
0.463	-16.81824
0.4635	-23.16284
0.464	-31.52161
0.4645	-44.11011
0.465	-63.94958
0.4655	-88.62305
0.466	-104.93774
0.4665	-113.69934
0.467	-151.96838
0.4675	-182.48291
0.468	-189.63318
0.4685	-201.41602
0.469	-219.74487
0.4695	-198.89832
0.47	-159.62219
0.4705	-107.75757
0.471	-68.17932
0.4715	-40.78674
0.472	-19.23523
0.4725	15.30762
0.473	50.55542
0.4735	67.17224
0.474	78.65295
0.4745	89.22729
0.475	95.5719
0.4755	113.80005
0.476	145.01953
0.4765	148.24219
0.477	130.41687
0.4775	117.02271
0.478	110.47668
0.4785	95.67261
0.479	74.92676
0.4795	68.78357
0.48	85.80322
0.4805	87.91809
0.481	82.68127
0.4815	74.62463
0.482	95.77332
0.4825	99.60022
0.483	78.75366
0.4835	51.66321
0.484	40.98816
0.4845	46.02356
0.485	35.2478
0.4855	5.23682
0.486	-19.63806
0.4865	-43.50586
0.487	-72.30835
0.4875	-141.99829
0.488	-189.02893
0.4885	-201.41602
0.489	-208.06274
0.4895	-199.9054
0.49	-149.14856
0.4905	-79.76074
0.491	-30.91736
0.4915	10.0708
0.492	55.49011
0.4925	105.84412
0.493	133.74023
0.4935	141.59546
0.494	141.09192
0.4945	141.39404
0.495	87.81738
0.4955	36.35559
0.496	7.75452
0.4965	-19.13452
0.497	-109.87244
0.4975	-170.19653
0.498	-212.19177
0.4985	-231.22559
0.499	-199.60327
0.4995	-126.18713
0.5	-55.49011
0.5005	9.26514
0.501	69.28711
0.5015	122.15881
0.502	157.10449
0.5025	187.92114
0.503	198.79761
0.5035	198.89832
0.504	189.23035
0.5045	162.03918
0.505	150.25635
0.5055	159.62219
0.506	171.30432
0.5065	154.08325
0.507	119.94324
0.5075	93.75916
0.508	83.88977
0.5085	55.3894
0.509	21.55151
0.5095	-7.45239
0.51	-35.2478
0.5105	-57.40356
0.511	-57.50427
0.5115	-44.91577
0.512	-31.62231
0.5125	-18.53027
0.513	-10.27222
0.5135	-2.21558
0.514	24.67346
0.5145	21.55151
0.515	2.92053
0.5155	-9.36584
0.516	-11.88354
0.5165	-12.5885
0.517	-20.1416
0.5175	-17.92603
0.518	-12.08496
0.5185	-14.40125
0.519	-22.55859
0.5195	-14.90479
0.52	-13.49487
0.5205	-19.03381
0.521	-12.78992
0.5215	-17.6239
0.522	-24.37134
0.5225	-27.39258
0.523	-20.44373
0.5235	-7.45239
0.524	-0.70496
0.5245	-1.40991
0.525	3.32336
0.5255	22.6593
0.526	33.43506
0.5265	37.16125
0.527	33.13293
0.5275	29.20532
0.528	21.75293
0.5285	10.67505
0.529	6.04248
0.5295	-3.02124
0.53	-17.42249
0.5305	-22.45789
0.531	-18.42957
0.5315	-31.21948
0.532	-51.86462
0.5325	-53.57666
0.533	-60.4248
0.5335	-70.29419
0.534	-77.24304
0.5345	-100.6073
0.535	-104.63562
0.5355	-112.28943
0.536	-109.87244
0.5365	-90.63721
0.537	-76.94092
0.5375	-59.01489
0.538	-33.43506
0.5385	-6.54602
0.539	14.09912
0.5395	34.54285
0.54	67.17224
0.5405	83.38623
0.541	99.70093
0.5415	104.93774
0.542	120.7489
0.5425	123.77014
0.543	108.56323
0.5435	90.03296
0.544	50.55542
0.5445	17.52319
0.545	7.35168
0.5455	15.30762
0.546	5.0354
0.5465	4.12903
0.547	0
0.5475	-10.0708
0.548	-16.71753
0.5485	-11.17859
0.549	8.7616
0.5495	16.91895
0.55	12.68921
0.5505	-4.73328
0.551	-12.5885
0.5515	-20.64514
0.552	-35.75134
0.5525	-78.14941
0.553	-123.06519
0.5535	-140.48767
0.554	-136.66077
0.5545	-119.4397
0.555	-88.22021
0.5555	-55.99365
0.556	-30.81665
0.5565	6.94885
0.557	38.26904
0.5575	76.33667
0.558	114.60571
0.5585	132.93457
0.559	134.14307
0.5595	132.93457
0.56	137.46643
0.5605	151.86768
0.561	156.39954
0.5615	145.8252
0.562	119.33899
0.5625	87.81738
0.563	48.03772
0.5635	-24.06921
0.564	-77.64587
0.5645	-102.52075
0.565	-103.22571
0.5655	-99.2981
0.566	-112.59155
0.5665	-125.38147
0.567	-131.72607
0.5675	-206.35071
0.568	-301.01624
0.5685	-311.18774
0.569	-281.27747
0.5695	-215.31372
0.57	-150.15564
0.5705	-92.24854
0.571	-48.13843
0.5715	0.60425
0.572	50.95825
0.5725	107.45544
0.573	179.46167
0.5735	228.9093
0.574	251.16577
0.5745	224.57886
0.575	181.87866
0.5755	161.13281
0.576	161.33423
0.5765	153.57971
0.577	113.1958
0.5775	64.75525
0.578	54.0802
0.5785	87.71667
0.579	122.05811
0.5795	117.62695
0.58	102.31934
0.5805	78.14941
0.581	45.01648
0.5815	22.6593
0.582	13.49487
0.5825	14.09912
0.583	11.38
0.5835	-21.65222
0.584	-50.55542
0.5845	-98.99597
0.585	-132.33032
0.5855	-137.96997
0.586	-119.13757
0.5865	-101.21155
0.587	-70.99915
0.5875	-51.46179
0.588	-40.08179
0.5885	-35.85205
0.589	-32.02515
0.5895	-29.91028
0.59	-33.33435
0.5905	-38.57117
0.591	-37.66479
0.5915	-36.95984
0.592	-19.53735
0.5925	9.36584
0.593	48.13843
0.5935	53.27454
0.594	47.93701
0.5945	60.02197
0.595	69.08569
0.5955	81.97632
0.596	74.92676
0.5965	64.65454
0.597	57.70569
0.5975	40.08179
0.598	15.20691
0.5985	-1.71204
0.599	-0.30212
0.5995	19.63806
0.6	40.78674
0.6005	34.94568
0.601	14.90479
0.6015	-32.22656
0.602	-62.53967
0.6025	-73.41614
0.603	-57.9071
0.6035	-34.94568
0.604	-25.57983
0.6045	-14.50195
0.605	1.71204
0.6055	24.06921
0.606	47.53418
0.6065	82.68127
0.607	84.99756
0.6075	80.16357
0.608	68.07861
0.6085	39.98108
0.609	8.56018
0.6095	-4.22974
0.61	-1.10779
0.6105	4.73328
0.611	9.46655
0.6115	-6.04248
0.612	1.10779
0.6125	9.86938
0.613	23.56567
0.6135	23.46497
0.614	21.14868
0.6145	13.39417
0.615	15.1062
0.6155	3.52478
0.616	-0.10071
0.6165	-10.97717
0.617	-22.96143
0.6175	-29.10461
0.618	-35.34851
0.6185	-35.85205
0.619	-27.39258
0.6195	-12.78992
0.62	-14.09912
0.6205	-15.1062
0.621	-20.64514
0.6215	-17.12036
0.622	-15.60974
0.6225	7.45239
0.623	37.66479
0.6235	54.18091
0.624	65.46021
0.6245	76.94092
0.625	77.54517
0.6255	61.53259
0.626	55.2887
0.6265	46.42639
0.627	44.51294
0.6275	30.51453
0.628	12.99133
0.6285	-33.33435
0.629	-61.73401
0.6295	-81.47278
0.63	-88.82446
0.6305	-86.00464
0.631	-77.54517
0.6315	-97.38464
0.632	-109.16748
0.6325	-89.12659
0.633	-68.17932
0.6335	-46.5271
0.634	-39.77966
0.6345	-26.3855
0.635	-5.84106
0.6355	4.33044
0.636	15.1062
0.6365	13.49487
0.637	-15.20691
0.6375	-40.1825
0.638	-41.08887
0.6385	-86.30676
0.639	-163.4491
0.6395	-189.73389
0.64	-176.94397
0.6405	-165.66467
0.641	-117.82837
0.6415	-50.45471
0.642	27.89612
0.6425	97.68677
0.643	147.43652
0.6435	185.20203
0.644	192.95654
0.6445	201.91956
0.645	206.45142
0.6455	204.13513
0.646	191.44592
0.6465	171.20361
0.647	148.14148
0.6475	125.88501
0.648	104.13208
0.6485	89.63013
0.649	77.04163
0.6495	83.58765
0.65	71.7041
0.6505	53.27454
0.651	44.81506
0.6515	38.974
0.652	24.77417
0.6525	30.71594
0.653	23.56567
0.6535	19.53735
0.654	19.33594
0.6545	16.91895
0.655	10.67505
0.6555	1.00708
0.656	3.32336
0.6565	9.56726
0.657	11.48071
0.6575	13.39417
0.658	11.78284
0.6585	7.95593
0.659	10.47363
0.6595	1.40991
0.66	-4.53186
0.6605	-4.53186
0.661	-11.2793
0.6615	-13.797
0.662	-15.81116
0.6625	-13.09204
0.663	-23.26355
0.6635	-32.7301
0.664	-42.29736
0.6645	-46.72852
0.665	-55.18799
0.6655	-89.328
0.666	-139.78271
0.6665	-174.42627
0.667	-185.40344
0.6675	-189.02893
0.668	-175.03052
0.6685	-192.55371
0.669	-177.54822
0.6695	-142.30042
0.67	-93.0542
0.6705	-42.7002
0.671	-7.15027
0.6715	26.3855
0.672	49.74976
0.6725	77.04163
0.673	105.44128
0.6735	150.55847
0.674	199.60327
0.6745	201.01318
0.675	194.56787
0.6755	157.70874
0.676	114.4043
0.6765	83.99048
0.677	59.82056
0.6775	44.41223
0.678	32.52869
0.6785	-33.33435
0.679	-111.18164
0.6795	-152.77405
0.68	-165.56396
0.6805	-161.0321
0.681	-140.38696
0.6815	-114.30359
0.682	-81.97632
0.6825	-34.54285
0.683	18.12744
0.6835	63.64746
0.684	81.67419
0.6845	89.52942
0.685	99.2981
0.6855	119.64111
0.686	129.71191
0.6865	135.15015
0.687	139.5813
0.6875	139.78271
0.688	126.48926
0.6885	117.02271
0.689	96.17615
0.6895	87.01172
0.69	73.11401
0.6905	64.35242
0.691	58.41064
0.6915	39.57825
0.692	29.20532
0.6925	15.20691
0.693	13.19275
0.6935	12.68921
0.694	19.83948
0.6945	17.92603
0.695	9.06372
0.6955	4.63257
0.696	1.00708
0.6965	11.48071
0.697	9.06372
0.6975	7.85522
0.698	3.8269
0.6985	2.21558
0.699	10.17151
0.6995	25.177
0.7	34.64355
0.7005	26.68762
0.701	24.57275
0.7015	26.88904
0.702	13.59558
0.7025	3.12195
0.703	1.2085
0.7035	-1.51062
0.704	-12.68921
0.7045	-19.23523
0.705	-20.84656
0.7055	-22.45789
0.706	-22.55859
0.7065	-29.30603
0.707	-26.98975
0.7075	-26.18408
0.708	-31.92444
0.7085	-106.64978
0.709	-183.5907
0.7095	-211.78894
0.71	-214.30664
0.7105	-188.32397
0.711	-155.09033
0.7115	-117.02271
0.712	-75.22888
0.7125	-19.33594
0.713	15.40833
0.7135	40.38391
0.714	60.92834
0.7145	74.62463
0.715	72.00623
0.7155	78.75366
0.716	86.30676
0.7165	92.04712
0.717	97.38464
0.7175	80.66711
0.718	15.40833
0.7185	-18.73169
0.719	-34.64355
0.7195	-12.89062
0.72	-11.2793
0.7205	-14.30054
0.721	-18.73169
0.7215	-9.26514
0.722	5.0354
0.7225	22.6593
0.723	28.09753
0.7235	26.3855
0.724	33.53577
0.7245	35.14709
0.725	34.34143
0.7255	42.90161
0.726	36.35559
0.7265	34.44214
0.727	24.57275
0.7275	31.62231
0.728	41.89453
0.7285	35.85205
0.729	21.95435
0.7295	22.86072
0.73	38.47046
0.7305	39.07471
0.731	30.91736
0.7315	6.54602
0.732	-3.7262
0.7325	-15.20691
0.733	-27.6947
0.7335	-45.52002
0.734	-155.9967
0.7345	-266.5741
0.735	-356.70776
0.7355	-457.11365
0.736	-465.67383
0.7365	-408.37097
0.737	-320.95642
0.7375	-217.83142
0.738	-110.98022
0.7385	-6.04248
0.739	88.82446
0.7395	164.7583
0.74	233.34045
0.7405	271.30737
0.741	290.64331
0.7415	304.13818
0.742	307.36084
0.7425	320.45288
0.743	299.80774
0.7435	275.03357
0.744	242.60559
0.7445	204.43726
0.745	166.26892
0.7455	152.87476
0.746	133.53882
0.7465	114.60571
0.747	78.95508
0.7475	53.07312
0.748	38.77258
0.7485	31.11877
0.749	23.06213
0.7495	20.84656
0.75	10.97717
0.7505	4.22974
0.751	7.45239
0.7515	1.51062
0.752	-3.7262
0.7525	-3.32336
0.753	-5.94177
0.7535	-12.89062
0.754	-12.18567
0.7545	-15.40833
0.755	-17.92603
0.7555	-24.37134
0.756	-32.42798
0.7565	-50.15259
0.757	-60.92834
0.7575	-60.82764
0.758	-41.69312
0.7585	-18.02673
0.759	-13.39417
0.7595	-23.96851
0.76	-27.39258
0.7605	-25.57983
0.761	-20.84656
0.7615	-11.48071
0.762	-10.77576
0.7625	-31.52161
0.763	-40.08179
0.7635	-32.93152
0.764	-28.29895
0.7645	-11.78284
0.765	2.61841
0.7655	15.40833
0.766	23.06213
0.7665	33.23364
0.767	25.07629
0.7675	24.27063
0.768	22.45789
0.7685	23.66638
0.769	23.66638
0.7695	27.39258
0.77	23.46497
0.7705	23.76709
0.771	28.29895
0.7715	21.65222
0.772	14.30054
0.7725	13.49487
0.773	7.65381
0.7735	1.91345
0.774	1.71204
0.7745	-10.17151
0.775	-17.32178
0.7755	-21.3501
0.776	-14.40125
0.7765	-15.20691
0.777	-30.41382
0.7775	-73.51685
0.778	-129.81262
0.7785	-217.73071
0.779	-295.27588
0.7795	-316.02173
0.78	-285.80933
0.7805	-234.54895
0.781	-183.89282
0.7815	-142.40112
0.782	-90.5365
0.7825	-29.70886
0.783	19.94019
0.7835	61.53259
0.784	100.00305
0.7845	127.29492
0.785	143.50891
0.7855	159.52148
0.786	159.01794
0.7865	137.36572
0.787	119.03687
0.7875	126.48926
0.788	133.94165
0.7885	109.4696
0.789	85.60181
0.7895	71.09985
0.79	49.74976
0.7905	49.44763
0.791	70.79773
0.7915	81.06995
0.792	81.97632
0.7925	73.41614
0.793	63.14392
0.7935	63.24463
0.794	69.68994
0.7945	78.55225
0.795	89.73083
0.7955	87.21313
0.796	69.68994
0.7965	54.98657
0.797	47.53418
0.7975	44.0094
0.798	38.87329
0.7985	28.19824
0.799	12.78992
0.7995	4.43115
0.8	2.31628
0.8005	4.53186
0.801	2.71912
0.8015	3.02124
0.802	4.33044
0.8025	4.93469
0.803	5.23682
0.8035	-17.42249
0.804	-52.26746
0.8045	-112.69226
0.805	-147.33582
0.8055	-160.32715
0.806	-162.84485
0.8065	-146.12732
0.807	-123.66943
0.8075	-87.01172
0.808	-60.3241
0.8085	-109.16748
0.809	-154.98962
0.8095	-153.57971
0.81	-122.25952
0.8105	-84.99756
0.811	-32.93152
0.8115	15.30762
0.812	61.93542
0.8125	93.45703
0.813	115.51208
0.8135	128.10059
0.814	121.05103
0.8145	106.24695
0.815	106.34766
0.8155	107.35474
0.816	86.40747
0.8165	79.45862
0.817	72.10693
0.8175	57.9071
0.818	48.23914
0.8185	41.08887
0.819	39.07471
0.8195	44.61365
0.82	54.18091
0.8205	49.14551
0.821	26.18408
0.8215	-13.49487
0.822	-31.4209
0.8225	-45.72144
0.823	-80.96924
0.8235	-119.54041
0.824	-127.89917
0.8245	-117.82837
0.825	-95.06836
0.8255	-64.35242
0.826	-38.06763
0.8265	-10.0708
0.827	16.11328
0.8275	30.81665
0.828	40.1825
0.8285	47.93701
0.829	54.78516
0.8295	63.84888
0.83	93.85986
0.8305	93.55774
0.831	76.33667
0.8315	75.93384
0.832	79.35791
0.8325	68.07861
0.833	51.26038
0.8335	43.60657
0.834	34.34143
0.8345	32.42798
0.835	21.55151
0.8355	7.95593
0.836	4.43115
0.8365	4.22974
0.837	5.23682
0.8375	-13.39417
0.838	-46.72852
0.8385	-88.52234
0.839	-138.3728
0.8395	-161.13281
0.84	-158.71582
0.8405	-148.54431
0.841	-133.13599
0.8415	-121.35315
0.842	-108.05969
0.8425	-90.5365
0.843	-65.66162
0.8435	-37.56409
0.844	-5.94177
0.8445	26.78833
0.845	55.08728
0.8455	74.42322
0.846	102.62146
0.8465	126.48926
0.847	144.71741
0.8475	150.15564
0.848	147.73865
0.8485	150.9613
0.849	147.63794
0.8495	131.52466
0.85	109.67102
0.8505	98.69385
0.851	71.20056
0.8515	53.77808
0.852	39.98108
0.8525	22.25647
0.853	3.32336
0.8535	-5.43823
0.854	-34.03931
0.8545	-66.76941
0.855	-92.04712
0.8555	-92.24854
0.856	-80.4657
0.8565	-57.10144
0.857	-34.03931
0.8575	-3.42407
0.858	-10.67505
0.8585	-32.02515
0.859	-29.10461
0.8595	-15.91187
0.86	-9.97009
0.8605	1.71204
0.861	15.81116
0.8615	30.81665
0.862	41.89453
0.8625	46.32568
0.863	63.24463
0.8635	53.27454
0.864	37.16125
0.8645	37.86621
0.865	40.98816
0.8655	52.26746
0.866	50.85754
0.8665	46.82922
0.867	29.20532
0.8675	11.78284
0.868	-6.2439
0.8685	-10.0708
0.869	-10.97717
0.8695	-12.08496
0.87	-23.16284
0.8705	-27.89612
0.871	-35.34851
0.8715	-30.31311
0.872	-36.55701
0.8725	-82.58057
0.873	-142.30042
0.8735	-197.28699
0.874	-258.51746
0.8745	-281.88171
0.875	-266.07056
0.8755	-235.95886
0.876	-188.52539
0.8765	-135.95581
0.877	-83.18481
0.8775	-34.44214
0.878	12.38708
0.8785	12.18567
0.879	-43.00232
0.8795	-55.3894
0.88	-67.07153
0.8805	-55.18799
0.881	-7.04956
0.8815	83.99048
0.882	163.85193
0.8825	223.57178
0.883	256.5033
0.8835	270.60242
0.884	265.16418
0.8845	246.4325
0.885	205.0415
0.8855	170.49866
0.886	140.8905
0.8865	106.14624
0.887	79.15649
0.8875	45.2179
0.888	13.797
0.8885	-11.98425
0.889	-29.60815
0.8895	-32.7301
0.89	-62.8418
0.8905	-84.39331
0.891	-98.79456
0.8915	-102.42004
0.892	-98.69385
0.8925	-87.21313
0.893	-72.61047
0.8935	-43.00232
0.894	-2.21558
0.8945	8.15735
0.895	-6.3446
0.8955	-5.0354
0.896	17.82532
0.8965	62.64038
0.897	106.8512
0.8975	124.97864
0.898	118.2312
0.8985	138.87634
0.899	149.6521
0.8995	129.5105
0.9	99.60022
0.9005	72.30835
0.901	60.12268
0.9015	54.88586
0.902	57.20215
0.9025	51.76392
0.903	39.77966
0.9035	28.39966
0.904	14.80408
0.9045	8.56018
0.905	4.53186
0.9055	-0.40283
0.906	3.92761
0.9065	-1.2085
0.907	-7.85522
0.9075	-10.67505
0.908	-6.54602
0.9085	-8.15735
0.909	-4.63257
0.9095	-12.48779
0.91	-25.07629
0.9105	-32.83081
0.911	-32.83081
0.9115	-34.44214
0.912	-43.40515
0.9125	-56.49719
0.913	-63.74817
0.9135	-78.85437
0.914	-77.64587
0.9145	-73.61755
0.915	-69.38782
0.9155	-62.8418
0.916	-61.12976
0.9165	-51.36108
0.917	-34.94568
0.9175	-23.36426
0.918	-9.36584
0.9185	3.8269
0.919	5.94177
0.9195	18.12744
0.92	19.23523
0.9205	31.21948
0.921	46.22498
0.9215	77.34375
0.922	96.17615
0.9225	64.75525
0.923	22.86072
0.9235	8.15735
0.924	-4.33044
0.9245	0.20142
0.925	-4.12903
0.9255	1.2085
0.926	4.02832
0.9265	14.70337
0.927	24.57275
0.9275	1.91345
0.928	-33.33435
0.9285	-47.53418
0.929	-47.8363
0.9295	-46.92993
0.93	-81.87561
0.9305	-108.46252
0.931	-119.74182
0.9315	-117.92908
0.932	-103.52783
0.9325	-104.93774
0.933	-140.78979
0.9335	-161.73706
0.934	-144.6167
0.9345	-114.505
0.935	-71.80481
0.9355	-44.61365
0.936	-4.93469
0.9365	29.91028
0.937	51.86462
0.9375	63.44604
0.938	69.99207
0.9385	99.60022
0.939	128.20129
0.9395	137.26501
0.94	124.27368
0.9405	113.90076
0.941	109.06677
0.9415	117.32483
0.942	148.54431
0.9425	183.28857
0.943	176.33972
0.9435	146.83228
0.944	123.97156
0.9445	102.92358
0.945	84.69543
0.9455	62.9425
0.946	53.97949
0.9465	41.69312
0.947	40.58533
0.9475	34.24072
0.948	23.8678
0.9485	14.70337
0.949	13.69629
0.9495	3.42407
0.95	-0.40283
0.9505	-8.25806
0.951	-15.00549
0.9515	-18.12744
0.952	-17.92603
0.9525	-21.45081
0.953	-25.07629
0.9535	-97.68677
0.954	-174.52698
0.9545	-201.81885
0.955	-189.02893
0.9555	-157.80945
0.956	-113.90076
0.9565	-66.26587
0.957	-13.19275
0.9575	52.67029
0.958	112.99438
0.9585	138.67493
0.959	144.01245
0.9595	122.76306
0.96	100.30518
0.9605	75.4303
0.961	59.01489
0.9615	48.54126
0.962	43.70728
0.9625	34.94568
0.963	26.98975
0.9635	13.59558
0.964	10.27222
0.9645	21.95435
0.965	23.26355
0.9655	9.26514
0.966	-6.54602
0.9665	-19.03381
0.967	-30.91736
0.9675	-44.91577
0.968	-49.0448
0.9685	-44.91577
0.969	-79.96216
0.9695	-119.74182
0.97	-136.05652
0.9705	-178.25317
0.971	-210.88257
0.9715	-217.12646
0.972	-229.71497
0.9725	-236.86523
0.973	-217.22717
0.9735	-175.33264
0.974	-114.70642
0.9745	-43.50586
0.975	32.83081
0.9755	86.10535
0.976	123.16589
0.9765	153.07617
0.977	174.22485
0.9775	199.9054
0.978	229.11072
0.9785	255.89905
0.979	244.0155
0.9795	241.29639
0.98	215.0116
0.9805	166.67175
0.981	129.5105
0.9815	105.74341
0.982	84.69543
0.9825	59.1156
0.983	48.54126
0.9835	33.63647
0.984	24.87488
0.9845	7.45239
0.985	4.12903
0.9855	1.2085
0.986	-1.81274
0.9865	-5.33752
0.987	-12.08496
0.9875	-4.63257
0.988	-8.15735
0.9885	-3.7262
0.989	2.11487
0.9895	1.3092
0.99	-3.02124
0.9905	-4.02832
0.991	-15.1062
0.9915	-12.48779
0.992	-15.20691
0.9925	-10.0708
0.993	9.36584
0.9935	19.53735
0.994	7.95593
0.9945	1.91345
0.995	-16.61682
0.9955	-58.81348
0.996	-85.80322
0.9965	-129.91333
0.997	-216.22009
0.9975	-310.78491
0.998	-341.50085
0.9985	-308.0658
0.999	-254.0863
0.9995	-189.63318
1	-127.39563
1.0005	-81.67419
1.001	-28.80249
1.0015	24.06921
1.002	73.41614
1.0025	109.67102
1.003	145.52307
1.0035	167.57812
1.004	180.77087
1.0045	183.79211
1.005	184.79919
1.0055	181.073
1.006	181.97937
1.0065	171.30432
1.007	143.00537
1.0075	119.94324
1.008	95.26978
1.0085	70.29419
1.009	41.4917
1.0095	11.38
1.01	9.86938
1.0105	13.99841
1.011	19.73877
1.0115	33.9386
1.012	42.29736
1.0125	58.10852
1.013	60.62622
1.0135	50.45471
1.014	42.90161
1.0145	34.03931
1.015	20.44373
1.0155	26.48621
1.016	38.87329
1.0165	36.55701
1.017	31.82373
1.0175	33.33435
1.018	24.57275
1.0185	15.71045
1.019	6.84814
1.0195	-0.50354
1.02	-5.84106
1.0205	-58.41064
1.021	-134.74731
1.0215	-171.20361
1.022	-167.47742
1.0225	-144.01245
1.023	-104.4342
1.0235	-69.89136
1.024	-38.67188
1.0245	-6.94885
1.025	23.36426
1.0255	38.06763
1.026	48.94409
1.0265	51.96533
1.027	45.3186
1.0275	36.05347
1.028	11.07788
1.0285	-2.41699
1.029	-9.76868
1.0295	-22.45789
1.03	-26.3855
1.0305	-26.58691
1.031	-18.93311
1.0315	-2.31628
1.032	7.75452
1.0325	13.09204
1.033	38.47046
1.0335	70.79773
1.034	83.88977
1.0345	68.68286
1.035	45.92285
1.0355	31.92444
1.036	21.24939
1.0365	11.78284
1.037	5.0354
1.0375	5.43823
1.038	22.55859
1.0385	31.62231
1.039	26.28479
1.0395	33.73718
1.04	34.74426
1.0405	28.39966
1.041	18.22815
1.0415	6.84814
1.042	3.52478
1.0425	6.94885
1.043	9.97009
1.0435	26.28479
1.044	31.01807
1.0445	14.50195
1.045	-19.43665
1.0455	-62.33826
1.046	-83.99048
1.0465	-98.59314
1.047	-109.16748
1.0475	-111.9873
1.048	-111.48376
1.0485	-116.31775
1.049	-104.13208
1.0495	-116.31775
1.05	-144.01245
1.0505	-138.97705
1.051	-109.4696
1.0515	-104.53491
1.052	-88.62305
1.0525	-59.21631
1.053	-26.58691
1.0535	1.2085
1.054	41.89453
1.0545	81.87561
1.055	112.39014
1.0555	134.34448
1.056	124.4751
1.0565	73.91968
1.057	21.3501
1.0575	-21.95435
1.058	-39.77966
1.0585	-34.24072
1.059	-13.29346
1.0595	8.15735
1.06	43.70728
1.0605	77.34375
1.061	96.27686
1.0615	109.26819
1.062	119.54041
1.0625	135.25085
1.063	136.05652
1.0635	126.08643
1.064	117.82837
1.0645	78.14941
1.065	47.33276
1.0655	40.98816
1.066	38.77258
1.0665	35.54993
1.067	32.83081
1.0675	37.06055
1.068	43.10303
1.0685	39.27612
1.069	44.31152
1.0695	52.67029
1.07	58.30994
1.0705	46.92993
1.071	36.35559
1.0715	36.55701
1.072	33.9386
1.0725	27.39258
1.073	14.09912
1.0735	-7.85522
1.074	-39.07471
1.0745	-55.2887
1.075	-52.97241
1.0755	-53.07312
1.076	-38.57117
1.0765	-36.65771
1.077	-23.06213
1.0775	-9.16443
1.078	12.68921
1.0785	17.42249
1.079	18.8324
1.0795	26.08337
1.08	28.19824
1.0805	22.15576
1.081	12.78992
1.0815	2.11487
1.082	-5.13611
1.0825	-15.50903
1.083	-19.83948
1.0835	-13.29346
1.084	5.84106
1.0845	-70.69702
1.085	-159.32007
1.0855	-219.24133
1.086	-231.32629
1.0865	-204.03442
1.087	-159.11865
1.0875	-101.61438
1.088	-49.0448
1.0885	-4.83398
1.089	37.96692
1.0895	64.151
1.09	83.18481
1.0905	100.6073
1.091	95.67261
1.0915	100.90942
1.092	100.90942
1.0925	116.51917
1.093	118.93616
1.0935	119.64111
1.094	136.66077
1.0945	132.63245
1.095	139.07776
1.0955	141.29333
1.096	135.25085
1.0965	125.28076
1.097	110.6781
1.0975	79.66003
1.098	48.94409
1.0985	22.86072
1.099	9.56726
1.0995	5.53894
1.1	8.45947
1.1005	-0.10071
1.101	-23.36426
1.1015	-75.02747
1.102	-122.76306
1.1025	-158.4137
1.103	-172.91565
1.1035	-173.72131
1.104	-169.99512
1.1045	-169.08875
1.105	-138.57422
1.1055	-107.85828
1.106	-76.03455
1.1065	-40.48462
1.107	-7.45239
1.1075	26.88904
1.108	43.50586
1.1085	62.53967
1.109	88.52234
1.1095	113.29651
1.11	124.17297
1.1105	127.29492
1.111	125.48218
1.1115	115.51208
1.112	112.99438
1.1125	94.06128
1.113	77.24304
1.1135	53.37524
1.114	37.96692
1.1145	25.68054
1.115	20.84656
1.1155	16.71753
1.116	7.04956
1.1165	-9.56726
1.117	-21.24939
1.1175	-23.06213
1.118	-22.35718
1.1185	-47.13135
1.119	-86.10535
1.1195	-103.72925
1.12	-94.56482
1.1205	-81.7749
1.121	-60.52551
1.1215	-42.8009
1.122	-29.50745
1.1225	-10.27222
1.123	12.99133
1.1235	22.86072
1.124	29.30603
1.1245	46.92993
1.125	58.51135
1.1255	52.771
1.126	47.93701
1.1265	45.92285
1.127	43.70728
1.1275	-2.21558
1.128	-63.04321
1.1285	-117.02271
1.129	-173.5199
1.1295	-184.59778
1.13	-158.31299
1.1305	-109.4696
1.131	-53.27454
1.1315	6.64673
1.132	52.36816
1.1325	78.55225
1.133	86.20605
1.1335	81.37207
1.134	67.77649
1.1345	48.84338
1.135	-30.31311
1.1355	-123.2666
1.136	-191.34521
1.1365	-211.68823
1.137	-208.56628
1.1375	-163.5498
1.138	-110.87952
1.1385	-33.83789
1.139	38.06763
1.1395	102.72217
1.14	143.71033
1.1405	174.72839
1.141	194.36646
1.1415	205.64575
1.142	216.62292
1.1425	224.78027
1.143	198.6969
1.1435	175.53406
1.144	124.27368
1.1445	89.12659
1.145	49.54834
1.1455	44.91577
1.146	55.3894
1.1465	61.33118
1.147	63.14392
1.1475	51.96533
1.148	19.53735
1.1485	-22.15576
1.149	-107.45544
1.1495	-192.55371
1.15	-224.17603
1.1505	-216.52222
1.151	-193.86292
1.1515	-146.53015
1.152	-109.3689
1.1525	-71.50269
1.153	-33.33435
1.1535	8.35876
1.154	45.92285
1.1545	65.66162
1.155	76.03455
1.1555	80.4657
1.156	86.60889
1.1565	67.97791
1.157	36.25488
1.1575	-0.70496
1.158	-9.56726
1.1585	5.43823
1.159	21.65222
1.1595	9.46655
1.16	-6.84814
1.1605	-2.61841
1.161	23.8678
1.1615	69.38782
1.162	109.87244
1.1625	134.5459
1.163	146.83228
1.1635	147.43652
1.164	123.87085
1.1645	106.64978
1.165	95.26978
1.1655	87.61597
1.166	71.7041
1.1665	50.75684
1.167	49.44763
1.1675	50.95825
1.168	33.43506
1.1685	4.83398
1.169	-12.78992
1.1695	1.51062
1.17	18.32886
1.1705	13.09204
1.171	3.02124
1.1715	0.40283
1.172	-10.97717
1.1725	-22.76001
1.173	-51.86462
1.1735	-72.81189
1.174	-82.47986
1.1745	-114.4043
1.175	-165.86609
1.1755	-195.17212
1.176	-224.07532
1.1765	-307.96509
1.177	-402.22778
1.1775	-434.35364
1.178	-404.54407
1.1785	-322.06421
1.179	-208.96912
1.1795	-79.05579
1.18	26.08337
1.1805	105.74341
1.181	170.70007
1.1815	206.04858
1.182	231.32629
1.1825	249.75586
1.183	272.21375
1.1835	281.17676
1.184	277.45056
1.1845	288.62915
1.185	308.0658
1.1855	272.61658
1.186	232.53479
1.1865	176.44043
1.187	141.99829
1.1875	120.84961
1.188	94.2627
1.1885	76.94092
1.189	55.2887
1.1895	44.11011
1.19	38.36975
1.1905	30.01099
1.191	29.30603
1.1915	14.19983
1.192	4.63257
1.1925	-2.5177
1.193	-1.00708
1.1935	-7.85522
1.194	-3.52478
1.1945	-1.51062
1.195	-21.45081
1.1955	-45.3186
1.196	-66.06445
1.1965	-97.08252
1.197	-122.05811
1.1975	-131.32324
1.198	-131.02112
1.1985	-119.03687
1.199	-117.02271
1.1995	-98.99597
1.2	-89.02588
1.2005	-65.56091
1.201	-42.90161
1.2015	-23.8678
1.202	-14.50195
1.2025	-19.03381
1.203	-8.25806
1.2035	7.25098
1.204	19.53735
1.2045	31.72302
1.205	37.86621
1.2055	46.42639
1.206	46.12427
1.2065	48.23914
1.207	50.85754
1.2075	19.94019
1.208	-34.34143
1.2085	-72.61047
1.209	-101.21155
1.2095	-118.63403
1.21	-120.24536
1.2105	-107.15332
1.211	-88.52234
1.2115	-76.13525
1.212	-71.20056
1.2125	-79.96216
1.213	-80.56641
1.2135	-72.00623
1.214	-36.4563
1.2145	2.71912
1.215	14.80408
1.2155	34.03931
1.216	47.7356
1.2165	85.5011
1.217	119.94324
1.2175	151.46484
1.218	183.79211
1.2185	208.7677
1.219	219.34204
1.2195	235.65674
1.22	212.39319
1.2205	179.05884
1.221	136.76147
1.2215	101.8158
1.222	76.23596
1.2225	49.0448
1.223	23.06213
1.2235	25.98267
1.224	31.52161
1.2245	32.32727
1.225	20.24231
1.2255	8.56018
1.226	11.38
1.2265	10.47363
1.227	5.0354
1.2275	6.64673
1.228	5.43823
1.2285	8.05664
1.229	7.15027
1.2295	2.92053
1.23	-4.12903
1.2305	-5.74036
1.231	-10.67505
1.2315	-13.89771
1.232	-45.72144
1.2325	-82.37915
1.233	-143.10608
1.2335	-181.27441
1.234	-193.05725
1.2345	-187.11548
1.235	-199.40186
1.2355	-258.81958
1.236	-254.58984
1.2365	-209.17053
1.237	-136.56006
1.2375	-57.8064
1.238	13.59558
1.2385	59.1156
1.239	97.28394
1.2395	123.66943
1.24	143.71033
1.2405	168.28308
1.241	200.40894
1.2415	205.64575
1.242	181.87866
1.2425	155.29175
1.243	111.68518
1.2435	70.3949
1.244	27.29187
1.2445	-1.2085
1.245	-4.33044
1.2455	11.07788
1.246	31.21948
1.2465	41.08887
1.247	51.66321
1.2475	53.07312
1.248	36.35559
1.2485	14.70337
1.249	0.70496
1.2495	-64.55383
1.25	-134.14307
1.2505	-168.4845
1.251	-162.03918
1.2515	-145.62378
1.252	-156.60095
1.2525	-158.81653
1.253	-145.22095
1.2535	-116.72058
1.254	-52.16675
1.2545	15.40833
1.255	70.59631
1.2555	87.41455
1.256	101.11084
1.2565	94.56482
1.257	25.27771
1.2575	-13.69629
1.258	-12.68921
1.2585	15.00549
1.259	18.42957
1.2595	27.99683
1.26	63.34534
1.2605	109.57031
1.261	113.49792
1.2615	92.65137
1.262	79.66003
1.2625	82.47986
1.263	87.41455
1.2635	88.11951
1.264	94.3634
1.2645	111.8866
1.265	125.07935
1.2655	121.45386
1.266	106.34766
1.2665	89.83154
1.267	62.03613
1.2675	30.91736
1.268	22.15576
1.2685	17.42249
1.269	9.56726
1.2695	4.43115
1.27	-6.84814
1.2705	-14.09912
1.271	-16.11328
1.2715	-19.03381
1.272	-20.44373
1.2725	-29.50745
1.273	-36.4563
1.2735	-37.06055
1.274	-48.74268
1.2745	-89.02588
1.275	-149.34998
1.2755	-193.15796
1.276	-209.37195
1.2765	-214.40735
1.277	-200.61035
1.2775	-181.37512
1.278	-143.20679
1.2785	-112.79297
1.279	-96.37756
1.2795	-72.20764
1.28	-46.82922
1.2805	-21.55151
1.281	5.74036
1.2815	42.8009
1.282	60.22339
1.2825	86.50818
1.283	118.43262
1.2835	130.11475
1.284	142.50183
1.2845	141.99829
1.285	111.18164
1.2855	48.84338
1.286	-6.94885
1.2865	-30.51453
1.287	-29.30603
1.2875	-24.47205
1.288	-5.53894
1.2885	12.89062
1.289	41.18958
1.2895	50.75684
1.29	52.771
1.2905	27.09045
1.291	-98.79456
1.2915	-218.43567
1.292	-250.96436
1.2925	-230.62134
1.293	-179.66309
1.2935	-113.29651
1.294	-30.71594
1.2945	41.4917
1.295	92.04712
1.2955	127.69775
1.296	130.41687
1.2965	84.69543
1.297	59.01489
1.2975	49.54834
1.298	53.67737
1.2985	60.4248
1.299	67.27295
1.2995	95.5719
1.3	111.9873
1.3005	131.22253
1.301	117.42554
1.3015	113.29651
1.302	98.19031
1.3025	80.96924
1.303	72.71118
1.3035	75.12817
1.304	93.35632
1.3045	133.3374
1.305	158.71582
1.3055	140.48767
1.306	112.89368
1.3065	91.8457
1.307	74.62463
1.3075	73.81897
1.308	67.8772
1.3085	58.81348
1.309	45.3186
1.3095	36.15417
1.31	27.29187
1.3105	21.95435
1.311	16.01257
1.3115	18.63098
1.312	14.40125
1.3125	-0.80566
1.313	-49.34692
1.3135	-90.43579
1.314	-96.8811
1.3145	-100.80872
1.315	-96.37756
1.3155	-77.44446
1.316	-50.55542
1.3165	-33.9386
1.317	-10.87646
1.3175	5.84106
1.318	20.84656
1.3185	33.83789
1.319	39.57825
1.3195	36.05347
1.32	39.77966
1.3205	33.73718
1.321	23.06213
1.3215	-0.30212
1.322	-34.03931
1.3225	-57.30286
1.323	-62.53967
1.3235	-55.69153
1.324	-51.05896
1.3245	-41.69312
1.325	-28.19824
1.3255	-1.81274
1.326	11.48071
1.3265	5.13611
1.327	6.3446
1.3275	2.41699
1.328	1.00708
1.3285	-0.20142
1.329	0.20142
1.3295	-29.60815
1.33	-75.53101
1.3305	-110.6781
1.331	-140.18555
1.3315	-176.94397
1.332	-190.74097
1.3325	-169.49158
1.333	-151.96838
1.3335	-120.95032
1.334	-85.80322
1.3345	-46.72852
1.335	-19.63806
1.3355	12.5885
1.336	47.13135
1.3365	72.40906
1.337	96.17615
1.3375	100.30518
1.338	107.45544
1.3385	126.28784
1.339	118.83545
1.3395	102.62146
1.34	86.40747
1.3405	73.61755
1.341	73.31543
1.3415	84.89685
1.342	92.44995
1.3425	89.328
1.343	68.68286
1.3435	53.57666
1.344	41.59241
1.3445	41.59241
1.345	42.39807
1.3455	39.27612
1.346	10.47363
1.3465	-19.73877
1.347	-40.68604
1.3475	-38.67188
1.348	-24.57275
1.3485	-75.12817
1.349	-158.71582
1.3495	-196.88416
1.35	-189.12964
1.3505	-189.53247
1.351	-177.3468
1.3515	-142.80396
1.352	-89.93225
1.3525	-18.12744
1.353	44.71436
1.3535	99.60022
1.354	150.15564
1.3545	176.74255
1.355	190.43884
1.3555	200.0061
1.356	188.6261
1.3565	186.1084
1.357	166.67175
1.3575	131.72607
1.358	76.53809
1.3585	-27.49329
1.359	-135.04944
1.3595	-180.06592
1.36	-182.68433
1.3605	-153.3783
1.361	-108.05969
1.3615	-76.33667
1.362	-22.55859
1.3625	33.03223
1.363	54.38232
1.3635	43.80798
1.364	28.80249
1.3645	41.69312
1.365	52.771
1.3655	49.85046
1.366	44.0094
1.3665	42.19666
1.367	57.30286
1.3675	78.75366
1.368	79.55933
1.3685	73.51685
1.369	57.9071
1.3695	50.85754
1.37	30.01099
1.3705	2.5177
1.371	-0.10071
1.3715	23.06213
1.372	29.91028
1.3725	48.13843
1.373	48.44055
1.3735	45.2179
1.374	45.52002
1.3745	45.82214
1.375	58.30994
1.3755	51.05896
1.376	42.29736
1.3765	29.40674
1.377	18.53027
1.3775	5.53894
1.378	-1.40991
1.3785	-11.2793
1.379	-14.40125
1.3795	-16.91895
1.38	-30.2124
1.3805	-38.77258
1.381	-46.02356
1.3815	-42.09595
1.382	-70.89844
1.3825	-153.88184
1.383	-216.52222
1.3835	-251.16577
1.384	-255.99976
1.3845	-232.23267
1.385	-182.18079
1.3855	-106.14624
1.386	-37.26196
1.3865	6.94885
1.387	41.08887
1.3875	67.57507
1.388	77.948
1.3885	98.19031
1.389	98.69385
1.3895	87.71667
1.39	77.64587
1.3905	86.50818
1.391	118.93616
1.3915	129.5105
1.392	126.9928
1.3925	122.46094
1.393	144.11316
1.3935	158.4137
1.394	128.70483
1.3945	104.3335
1.395	80.86853
1.3955	61.6333
1.396	43.10303
1.3965	12.08496
1.397	-35.85205
1.3975	-64.151
1.398	-73.01331
1.3985	-76.23596
1.399	-71.09985
1.3995	-57.10144
1.4	-43.80798
1.4005	-30.81665
1.401	-11.98425
1.4015	7.04956
1.402	29.30603
1.4025	44.71436
1.403	43.10303
1.4035	38.67188
1.404	43.20374
1.4045	61.43188
1.405	71.7041
1.4055	41.29028
1.406	-1.2085
1.4065	-104.03137
1.407	-188.12256
1.4075	-214.10522
1.408	-183.99353
1.4085	-129.71191
1.409	-71.90552
1.4095	-39.88037
1.41	-1.00708
1.4105	55.18799
1.411	87.31384
1.4115	88.72375
1.412	86.70959
1.4125	92.85278
1.413	86.91101
1.4135	81.17065
1.414	76.33667
1.4145	78.55225
1.415	71.09985
1.4155	65.15808
1.416	51.76392
1.4165	44.51294
1.417	51.15967
1.4175	60.52551
1.418	50.2533
1.4185	33.53577
1.419	-2.01416
1.4195	-33.23364
1.42	-75.83313
1.4205	-138.27209
1.421	-194.76929
1.4215	-207.15637
1.422	-183.08716
1.4225	-155.09033
1.423	-127.59705
1.4235	-99.09668
1.424	-58.91418
1.4245	-19.03381
1.425	29.60815
1.4255	73.91968
1.426	92.14783
1.4265	96.67969
1.427	104.3335
1.4275	112.59155
1.428	125.68359
1.4285	130.71899
1.429	87.91809
1.4295	33.43506
1.43	3.92761
1.4305	-15.00549
1.431	-24.16992
1.4315	-19.33594
1.432	-6.14319
1.4325	14.50195
1.433	32.32727
1.4335	46.5271
1.434	74.12109
1.4345	77.84729
1.435	58.51135
1.4355	-25.07629
1.436	-89.22729
1.4365	-104.03137
1.437	-99.70093
1.4375	-102.82288
1.438	-98.29102
1.4385	-86.30676
1.439	-64.85596
1.4395	-25.57983
1.44	17.42249
1.4405	48.94409
1.441	83.28552
1.4415	111.8866
1.442	125.38147
1.4425	121.05103
1.443	121.05103
1.4435	103.02429
1.444	72.00623
1.4445	35.65063
1.445	15.1062
1.4455	7.65381
1.446	-55.2887
1.4465	-108.05969
1.447	-138.07068
1.4475	-145.42236
1.448	-127.49634
1.4485	-88.92517
1.449	-65.56091
1.4495	-59.31702
1.45	-49.0448
1.4505	-28.09753
1.451	-10.67505
1.4515	23.66638
1.452	74.12109
1.4525	135.75439
1.453	163.34839
1.4535	181.67725
1.454	178.05176
1.4545	168.58521
1.455	152.77405
1.4555	125.38147
1.456	97.58606
1.4565	87.71667
1.457	81.7749
1.4575	70.99915
1.458	58.91418
1.4585	44.61365
1.459	43.90869
1.4595	17.6239
1.46	-9.26514
1.4605	-22.96143
1.461	-26.58691
1.4615	-26.08337
1.462	-27.49329
1.4625	-31.52161
1.463	-24.87488
1.4635	-26.88904
1.464	-36.25488
1.4645	-145.52307
1.465	-214.81018
1.4655	-251.36719
1.466	-269.79675
1.4665	-288.83057
1.467	-263.95569
1.4675	-209.37195
1.468	-141.39404
1.4685	-70.3949
1.469	-20.54443
1.4695	28.09753
1.47	71.40198
1.4705	98.39172
1.471	123.87085
1.4715	136.86218
1.472	145.22095
1.4725	158.4137
1.473	167.47742
1.4735	160.22644
1.474	146.93298
1.4745	146.12732
1.475	126.9928
1.4755	99.49951
1.476	79.05579
1.4765	17.92603
1.477	-44.71436
1.4775	-68.28003
1.478	-65.76233
1.4785	-49.24622
1.479	-32.52869
1.4795	-19.13452
1.48	1.91345
1.4805	25.88196
1.481	62.03613
1.4815	87.91809
1.482	109.97314
1.4825	124.77722
1.483	117.52625
1.4835	113.39722
1.484	95.47119
1.4845	78.85437
1.485	59.92126
1.4855	35.54993
1.486	18.63098
1.4865	-0.70496
1.487	-24.27063
1.4875	-33.83789
1.488	-41.29028
1.4885	-42.8009
1.489	-35.65063
1.4895	-29.91028
1.49	-52.26746
1.4905	-75.22888
1.491	-82.47986
1.4915	-83.58765
1.492	-69.99207
1.4925	-59.82056
1.493	-49.74976
1.4935	-29.10461
1.494	-2.61841
1.4945	13.69629
1.495	40.08179
1.4955	40.68604
1.496	-7.85522
1.4965	-47.43347
1.497	-54.18091
1.4975	-45.52002
1.498	-28.19824
1.4985	-25.57983
1.499	-70.3949
1.4995	-108.56323
1.5	-126.58997
1.5005	-128.302
1.501	-140.08484
1.5015	-156.60095
1.502	-154.58679
1.5025	-130.01404
1.503	-100.90942
1.5035	-61.53259
1.504	-31.82373
1.5045	-4.63257
1.505	33.83789
1.5055	48.64197
1.506	61.73401
1.5065	52.67029
1.507	-11.17859
1.5075	-43.00232
1.508	-34.24072
1.5085	-28.9032
1.509	3.52478
1.5095	51.36108
1.51	81.27136
1.5105	100.20447
1.511	105.13916
1.5115	117.02271
1.512	130.71899
1.5125	140.99121
1.513	151.46484
1.5135	167.17529
1.514	190.33813
1.5145	182.58362
1.515	173.11707
1.5155	155.09033
1.516	133.03528
1.5165	107.95898
1.517	98.0896
1.5175	98.0896
1.518	94.16199
1.5185	78.14941
1.519	64.25171
1.5195	48.94409
1.52	41.89453
1.5205	34.34143
1.521	14.19983
1.5215	0.40283
1.522	-24.37134
1.5225	-37.66479
1.523	-39.47754
1.5235	-40.38391
1.524	-37.96692
1.5245	-37.7655
1.525	-25.78125
1.5255	-27.6947
1.526	-38.06763
1.5265	-52.36816
1.527	-55.3894
1.5275	-51.96533
1.528	-63.34534
1.5285	-78.14941
1.529	-87.81738
1.5295	-82.88269
1.53	-73.11401
1.5305	-64.65454
1.531	-141.39404
1.5315	-216.42151
1.532	-253.38135
1.5325	-232.43408
1.533	-189.9353
1.5335	-117.62695
1.534	-39.98108
1.5345	36.75842
1.535	100.90942
1.5355	147.43652
1.536	173.62061
1.5365	180.87158
1.537	182.68433
1.5375	181.77795
1.538	172.51282
1.5385	142.90466
1.539	91.34216
1.5395	26.18408
1.54	-38.67188
1.5405	-100.20447
1.541	-121.25244
1.5415	-108.46252
1.542	-94.66553
1.5425	-74.02039
1.543	-53.27454
1.5435	-23.66638
1.544	-0.70496
1.5445	6.54602
1.545	23.96851
1.5455	38.67188
1.546	61.02905
1.5465	70.49561
1.547	64.75525
1.5475	78.45154
1.548	93.15491
1.5485	89.22729
1.549	80.86853
1.5495	57.8064
1.55	55.59082
1.5505	60.4248
1.551	79.66003
1.5515	76.33667
1.552	54.78516
1.5525	29.40674
1.553	14.90479
1.5535	-8.45947
1.554	-25.07629
1.5545	-22.15576
1.555	-27.19116
1.5555	-17.22107
1.556	-17.6239
1.5565	-7.15027
1.557	-5.0354
1.5575	12.08496
1.558	30.51453
1.5585	26.78833
1.559	13.29346
1.5595	8.35876
1.56	1.81274
1.5605	4.83398
1.561	-3.52478
1.5615	-23.8678
1.562	-72.50977
1.5625	-125.88501
1.563	-168.08167
1.5635	-179.8645
1.564	-177.85034
1.5645	-160.12573
1.565	-135.35156
1.5655	-98.59314
1.566	-83.08411
1.5665	-77.948
1.567	-64.65454
1.5675	-56.5979
1.568	-34.64355
1.5685	-3.92761
1.569	32.93152
1.5695	54.98657
1.57	76.13525
1.5705	107.35474
1.571	126.38855
1.5715	145.12024
1.572	146.12732
1.5725	131.92749
1.573	119.33899
1.5735	103.52783
1.574	71.80481
1.5745	35.75134
1.575	7.95593
1.5755	-3.8269
1.576	-4.22974
1.5765	-7.25098
1.577	-1.51062
1.5775	-8.96301
1.578	-56.79932
1.5785	-203.93372
1.579	-375.13733
1.5795	-450.46692
1.58	-421.56372
1.5805	-337.17041
1.581	-235.95886
1.5815	-114.20288
1.582	6.84814
1.5825	123.56873
1.583	226.79443
1.5835	291.14685
1.584	322.76917
1.5845	336.36475
1.585	322.46704
1.5855	318.64014
1.586	324.58191
1.5865	315.92102
1.587	274.73145
1.5875	226.99585
1.588	160.22644
1.5885	108.46252
1.589	78.25012
1.5895	67.67578
1.59	63.64746
1.5905	39.67896
1.591	13.39417
1.5915	-1.00708
1.592	-14.30054
1.5925	-29.91028
1.593	-49.64905
1.5935	-62.03613
1.594	-67.97791
1.5945	-74.32251
1.595	-105.34058
1.5955	-119.64111
1.596	-125.98572
1.5965	-116.11633
1.597	-101.41296
1.5975	-80.56641
1.598	-61.43188
1.5985	-35.14709
1.599	9.97009
1.5995	69.58923
1.6	120.95032
1.6005	134.44519
1.601	127.09351
1.6015	98.59314
1.602	51.66321
1.6025	8.66089
1.603	-7.15027
1.6035	-3.02124
1.604	13.59558
1.6045	25.78125
1.605	22.86072
1.6055	10.77576
1.606	-23.16284
1.6065	-52.06604
1.607	-51.26038
1.6075	-45.62073
1.608	-31.11877
1.6085	-14.30054
1.609	-9.16443
1.6095	-5.63965
1.61	-21.14868
1.6105	-50.55542
1.611	-74.72534
1.6115	-80.06287
1.612	-78.85437
1.6125	-77.14233
1.613	-71.40198
1.6135	-52.36816
1.614	-26.68762
1.6145	-10.37292
1.615	-8.96301
1.6155	-4.12903
1.616	-1.3092
1.6165	-12.68921
1.617	-37.86621
1.6175	-51.46179
1.618	-60.72693
1.6185	-68.78357
1.619	-54.78516
1.6195	-39.07471
1.62	-27.89612
1.6205	-22.15576
1.621	-22.35718
1.6215	-11.17859
1.622	4.22974
1.6225	26.28479
1.623	50.15259
1.6235	34.34143
1.624	18.02673
1.6245	19.53735
1.625	4.93469
1.6255	-1.91345
1.626	9.16443
1.6265	36.15417
1.627	69.28711
1.6275	98.49243
1.628	117.72766
1.6285	124.17297
1.629	124.4751
1.6295	122.96448
1.63	122.96448
1.6305	117.22412
1.631	113.39722
1.6315	100.30518
1.632	76.94092
1.6325	69.48853
1.633	52.67029
1.6335	52.36816
1.634	58.71277
1.6345	29.80957
1.635	-29.50745
1.6355	-165.76538
1.636	-282.28455
1.6365	-347.84546
1.637	-365.67078
1.6375	-318.1366
1.638	-254.28772
1.6385	-199.80469
1.639	-142.60254
1.6395	-71.40198
1.64	-2.61841
1.6405	43.70728
1.641	82.27844
1.6415	97.08252
1.642	107.95898
1.6425	116.31775
1.643	118.13049
1.6435	138.3728
1.644	155.59387
1.6445	157.10449
1.645	141.69617
1.6455	112.89368
1.646	103.62854
1.6465	96.7804
1.647	79.66003
1.6475	64.95667
1.648	55.2887
1.6485	40.58533
1.649	29.10461
1.6495	31.11877
1.65	41.89453
1.6505	50.15259
1.651	42.8009
1.6515	53.87878
1.652	90.43579
1.6525	90.63721
1.653	82.07703
1.6535	79.66003
1.654	61.43188
1.6545	41.29028
1.655	22.55859
1.6555	13.99841
1.656	15.50903
1.6565	-7.25098
1.657	-24.27063
1.6575	-20.24231
1.658	-51.36108
1.6585	-95.06836
1.659	-120.7489
1.6595	-120.95032
1.66	-112.99438
1.6605	-91.64429
1.661	-74.82605
1.6615	-49.85046
1.662	-31.21948
1.6625	-4.53186
1.663	17.52319
1.6635	47.7356
1.664	78.45154
1.6645	106.14624
1.665	117.52625
1.6655	118.33191
1.666	104.83704
1.6665	90.43579
1.667	70.49561
1.6675	49.74976
1.668	15.40833
1.6685	-5.33752
1.669	-16.61682
1.6695	-18.02673
1.67	-28.60107
1.6705	-42.59949
1.671	-51.15967
1.6715	-63.14392
1.672	-58.30994
1.6725	-53.67737
1.673	-52.97241
1.6735	-39.37683
1.674	-34.94568
1.6745	-28.50037
1.675	-26.58691
1.6755	-20.94727
1.676	-20.94727
1.6765	-46.02356
1.677	-119.94324
1.6775	-248.34595
1.678	-352.1759
1.6785	-470.60852
1.679	-537.78076
1.6795	-524.3866
1.68	-456.91223
1.6805	-356.60706
1.681	-232.53479
1.6815	-85.80322
1.682	59.41772
1.6825	187.31689
1.683	280.97534
1.6835	350.66528
1.684	387.92725
1.6845	350.56458
1.685	309.77783
1.6855	285.80933
1.686	254.99268
1.6865	221.85974
1.687	187.92114
1.6875	152.37122
1.688	119.94324
1.6885	118.2312
1.689	135.75439
1.6895	136.35864
1.69	123.2666
1.6905	112.49084
1.691	116.922
1.6915	120.34607
1.692	105.74341
1.6925	80.26428
1.693	38.87329
1.6935	25.47913
1.694	5.43823
1.6945	5.33752
1.695	5.0354
1.6955	18.53027
1.696	22.35718
1.6965	30.41382
1.697	33.03223
1.6975	35.44922
1.698	33.13293
1.6985	-5.53894
1.699	-70.69702
1.6995	-118.02979
1.7	-134.84802
1.7005	-134.5459
1.701	-126.28784
1.7015	-121.55457
1.702	-95.06836
1.7025	-66.06445
1.703	-34.54285
1.7035	0
1.704	17.6239
1.7045	32.32727
1.705	44.21082
1.7055	50.15259
1.706	50.2533
1.7065	43.00232
1.707	45.41931
1.7075	56.19507
1.708	79.45862
1.7085	121.05103
1.709	113.29651
1.7095	64.151
1.71	-8.66089
1.7105	-34.94568
1.711	-40.68604
1.7115	-48.94409
1.712	-54.88586
1.7125	-65.66162
1.713	-65.3595
1.7135	-60.52551
1.714	-40.08179
1.7145	-12.78992
1.715	17.92603
1.7155	37.36267
1.716	51.66321
1.7165	41.08887
1.717	32.12585
1.7175	26.88904
1.718	18.02673
1.7185	-8.66089
1.719	-48.23914
1.7195	-110.07385
1.72	-144.41528
1.7205	-152.77405
1.721	-145.32166
1.7215	-139.5813
1.722	-131.62537
1.7225	-93.55774
1.723	-53.77808
1.7235	-26.58691
1.724	-2.5177
1.7245	42.39807
1.725	98.29102
1.7255	139.78271
1.726	149.24927
1.7265	131.52466
1.727	112.99438
1.7275	99.70093
1.728	91.44287
1.7285	83.18481
1.729	64.05029
1.7295	41.89453
1.73	26.18408
1.7305	19.23523
1.731	31.11877
1.7315	-16.71753
1.732	-144.51599
1.7325	-213.70239
1.733	-211.18469
1.7335	-184.19495
1.734	-148.84644
1.7345	-101.61438
1.735	-63.34534
1.7355	-33.33435
1.736	0.80566
1.7365	26.28479
1.737	-10.57434
1.7375	-44.0094
1.738	-54.78516
1.7385	-47.8363
1.739	-23.06213
1.7395	11.98425
1.74	43.60657
1.7405	75.12817
1.741	103.72925
1.7415	102.31934
1.742	92.04712
1.7425	-7.04956
1.743	-78.45154
1.7435	-106.75049
1.744	-124.87793
1.7445	-118.53333
1.745	-84.59473
1.7455	-33.9386
1.746	17.12036
1.7465	62.13684
1.747	92.14783
1.7475	118.93616
1.748	145.01953
1.7485	163.95264
1.749	180.26733
1.7495	204.53796
1.75	211.68823
1.7505	216.11938
1.751	215.71655
1.7515	195.27283
1.752	159.42078
1.7525	125.38147
1.753	115.81421
1.7535	105.23987
1.754	80.86853
1.7545	68.28003
1.755	43.40515
1.7555	26.3855
1.756	12.08496
1.7565	1.61133
1.757	5.53894
1.7575	-16.71753
1.758	-54.48303
1.7585	-84.69543
1.759	-92.44995
1.7595	-97.68677
1.76	-86.40747
1.7605	-79.86145
1.761	-76.63879
1.7615	-116.82129
1.762	-149.75281
1.7625	-169.69299
1.763	-155.09033
1.7635	-128.90625
1.764	-101.01013
1.7645	-80.4657
1.765	-74.72534
1.7655	-69.68994
1.766	-62.74109
1.7665	-26.28479
1.767	46.12427
1.7675	83.88977
1.768	80.86853
1.7685	74.42322
1.769	79.15649
1.7695	106.9519
1.77	122.15881
1.7705	80.36499
1.771	4.43115
1.7715	-41.69312
1.772	-65.66162
1.7725	-89.83154
1.773	-86.60889
1.7735	-61.93542
1.774	-21.45081
1.7745	15.60974
1.775	56.19507
1.7755	88.92517
1.776	109.26819
1.7765	116.72058
1.777	112.69226
1.7775	104.73633
1.778	113.80005
1.7785	115.20996
1.779	28.9032
1.7795	-69.58923
1.78	-128.50342
1.7805	-142.099
1.781	-154.6875
1.7815	-151.36414
1.782	-124.97864
1.7825	-76.33667
1.783	-13.59558
1.7835	31.4209
1.784	66.56799
1.7845	75.83313
1.785	68.38074
1.7855	55.08728
1.786	55.59082
1.7865	51.66321
1.787	59.82056
1.7875	67.8772
1.788	65.56091
1.7885	61.53259
1.789	69.79065
1.7895	82.47986
1.79	77.948
1.7905	49.74976
1.791	23.96851
1.7915	-19.73877
1.792	-60.72693
1.7925	-138.3728
1.793	-197.3877
1.7935	-204.84009
1.794	-167.07458
1.7945	-120.24536
1.795	-77.84729
1.7955	-23.16284
1.796	21.55151
1.7965	48.54126
1.797	70.89844
1.7975	88.92517
1.798	101.01013
1.7985	101.11084
1.799	113.39722
1.7995	88.42163
1.8	42.90161
1.8005	4.53186
1.801	-10.27222
1.8015	-43.30444
1.802	-101.61438
1.8025	-124.77722
1.803	-105.34058
1.8035	-50.15259
1.804	-4.63257
1.8045	43.00232
1.805	77.14233
1.8055	134.64661
1.806	190.43884
1.8065	194.66858
1.807	171.60645
1.8075	146.22803
1.808	116.01562
1.8085	94.56482
1.809	62.53967
1.8095	31.92444
1.81	-0.60425
1.8105	-9.86938
1.811	-27.59399
1.8115	-56.49719
1.812	-106.44836
1.8125	-163.14697
1.813	-189.02893
1.8135	-186.1084
1.814	-167.276
1.8145	-134.74731
1.815	-93.85986
1.8155	-44.31152
1.816	-4.73328
1.8165	34.74426
1.817	65.05737
1.8175	114.80713
1.818	156.70166
1.8185	180.67017
1.819	170.80078
1.8195	146.93298
1.82	141.19263
1.8205	138.47351
1.821	129.10767
1.8215	110.27527
1.822	98.69385
1.8225	113.59863
1.823	99.60022
1.8235	66.26587
1.824	36.25488
1.8245	21.45081
1.825	-0.90637
1.8255	-20.64514
1.826	-62.43896
1.8265	-106.9519
1.827	-205.44434
1.8275	-297.08862
1.828	-334.65271
1.8285	-312.19482
1.829	-254.58984
1.8295	-184.19495
1.83	-112.99438
1.8305	-46.42639
1.831	10.67505
1.8315	57.40356
1.832	96.17615
1.8325	128.90625
1.833	141.29333
1.8335	143.91174
1.834	154.6875
1.8345	140.58838
1.835	114.4043
1.8355	72.00623
1.836	24.87488
1.8365	5.74036
1.837	12.38708
1.8375	21.04797
1.838	18.32886
1.8385	27.79541
1.839	33.23364
1.8395	9.16443
1.84	-63.74817
1.8405	-146.83228
1.841	-242.7063
1.8415	-310.28137
1.842	-336.16333
1.8425	-313.60474
1.843	-262.04224
1.8435	-187.01477
1.844	-107.45544
1.8445	-22.86072
1.845	56.90002
1.8455	131.62537
1.846	187.51831
1.8465	218.63708
1.847	237.6709
1.8475	244.92188
1.848	228.30505
1.8485	237.87231
1.849	256.604
1.8495	240.08789
1.85	202.92664
1.8505	176.0376
1.851	151.76697
1.8515	125.68359
1.852	96.27686
1.8525	74.12109
1.853	54.98657
1.8535	21.3501
1.854	-0.20142
1.8545	3.7262
1.855	-8.25806
1.8555	-22.35718
1.856	-30.01099
1.8565	-29.10461
1.857	-23.46497
1.8575	1.40991
1.858	5.74036
1.8585	-8.56018
1.859	-15.40833
1.8595	-11.38
1.86	-44.31152
1.8605	-77.44446
1.861	-121.75598
1.8615	-179.26025
1.862	-202.4231
1.8625	-188.12256
1.863	-162.64343
1.8635	-121.9574
1.864	-78.95508
1.8645	-15.81116
1.865	31.72302
1.8655	58.41064
1.866	73.81897
1.8665	94.46411
1.867	110.6781
1.8675	119.54041
1.868	123.46802
1.8685	108.86536
1.869	100.70801
1.8695	70.89844
1.87	-27.89612
1.8705	-91.14075
1.871	-96.98181
1.8715	-85.60181
1.872	-77.24304
1.8725	-67.47437
1.873	-49.95117
1.8735	-33.43506
1.874	-41.4917
1.8745	-130.41687
1.875	-229.41284
1.8755	-271.20667
1.876	-241.29639
1.8765	-183.5907
1.877	-105.23987
1.8775	-19.53735
1.878	54.58374
1.8785	109.87244
1.879	141.59546
1.8795	149.75281
1.88	131.12183
1.8805	112.28943
1.881	97.08252
1.8815	57.9071
1.882	45.3186
1.8825	58.10852
1.883	60.92834
1.8835	57.60498
1.884	65.05737
1.8845	93.0542
1.885	102.82288
1.8855	103.62854
1.886	116.11633
1.8865	116.41846
1.887	128.20129
1.8875	148.4436
1.888	165.16113
1.8885	155.79529
1.889	134.5459
1.8895	101.8158
1.89	79.86145
1.8905	72.30835
1.891	67.37366
1.8915	51.26038
1.892	34.64355
1.8925	0
1.893	-28.09753
1.8935	-86.20605
1.894	-155.39246
1.8945	-188.02185
1.895	-171.10291
1.8955	-162.64343
1.896	-148.54431
1.8965	-128.90625
1.897	-89.73083
1.8975	-49.54834
1.898	-17.6239
1.8985	0.20142
1.899	22.05505
1.8995	39.67896
1.9	47.23206
1.9005	41.99524
1.901	42.7002
1.9015	49.95117
1.902	67.27295
1.9025	77.54517
1.903	75.53101
1.9035	64.75525
1.904	60.82764
1.9045	26.88904
1.905	-11.68213
1.9055	-32.32727
1.906	-38.77258
1.9065	-40.1825
1.907	-11.58142
1.9075	29.20532
1.908	26.98975
1.9085	8.96301
1.909	-4.53186
1.9095	-15.50903
1.91	-33.03223
1.9105	-44.61365
1.911	-46.5271
1.9115	-45.92285
1.912	-56.69861
1.9125	-92.24854
1.913	-126.79138
1.9135	-151.16272
1.914	-149.24927
1.9145	-126.08643
1.915	-96.98181
1.9155	-59.41772
1.916	-52.56958
1.9165	-53.47595
1.917	-35.85205
1.9175	-52.8717
1.918	-183.69141
1.9185	-249.35303
1.919	-244.0155
1.9195	-213.40027
1.92	-163.14697
1.9205	-82.27844
1.921	-4.93469
1.9215	61.02905
1.922	127.49634
1.9225	195.87708
1.923	257.30896
1.9235	268.38684
1.924	248.54736
1.9245	223.16895
1.925	202.92664
1.9255	176.84326
1.926	177.04468
1.9265	153.07617
1.927	120.64819
1.9275	109.87244
1.928	136.66077
1.9285	137.76855
1.929	123.36731
1.9295	123.56873
1.93	119.13757
1.9305	109.16748
1.931	64.85596
1.9315	-18.42957
1.932	-131.12183
1.9325	-193.56079
1.933	-240.08789
1.9335	-270.90454
1.934	-254.18701
1.9345	-207.76062
1.935	-175.03052
1.9355	-121.55457
1.936	-50.15259
1.9365	14.50195
1.937	70.09277
1.9375	119.64111
1.938	147.83936
1.9385	169.7937
1.939	184.39636
1.9395	171.50574
1.94	141.99829
1.9405	105.44128
1.941	55.69153
1.9415	20.94727
1.942	20.34302
1.9425	38.16833
1.943	40.1825
1.9435	46.82922
1.944	70.59631
1.9445	93.65845
1.945	84.79614
1.9455	45.72144
1.946	20.24231
1.9465	17.92603
1.947	14.40125
1.9475	15.91187
1.948	20.54443
1.9485	26.28479
1.949	37.46338
1.9495	11.88354
1.95	-47.23206
1.9505	-75.73242
1.951	-78.85437
1.9515	-78.85437
1.952	-73.91968
1.9525	-48.54126
1.953	-23.96851
1.9535	6.14319
1.954	43.10303
1.9545	57.8064
1.955	41.39099
1.9555	22.96143
1.956	8.25806
1.9565	-11.38
1.957	-22.76001
1.9575	-18.63098
1.958	-2.41699
1.9585	8.45947
1.959	2.31628
1.9595	2.41699
1.96	-1.10779
1.9605	8.05664
1.961	19.43665
1.9615	29.50745
1.962	38.47046
1.9625	28.19824
1.963	13.59558
1.9635	6.04248
1.964	0.60425
1.9645	-0.20142
1.965	9.06372
1.9655	-8.66089
1.966	-111.8866
1.9665	-166.87317
1.967	-184.49707
1.9675	-168.98804
1.968	-138.67493
1.9685	-101.01013
1.969	-56.79932
1.9695	-23.56567
1.97	-18.12744
1.9705	-25.88196
1.971	-24.37134
1.9715	-6.84814
1.972	1.10779
1.9725	20.1416
1.973	29.50745
1.9735	47.63489
1.974	73.41614
1.9745	88.72375
1.975	98.99597
1.9755	108.46252
1.976	130.8197
1.9765	140.99121
1.977	130.21545
1.9775	103.125
1.978	65.96375
1.9785	10.27222
1.979	-65.3595
1.9795	-123.46802
1.98	-154.08325
1.9805	-154.08325
1.981	-159.42078
1.9815	-151.96838
1.982	-121.75598
1.9825	-97.68677
1.983	-99.3988
1.9835	-83.78906
1.984	-97.08252
1.9845	-110.57739
1.985	-91.34216
1.9855	-57.40356
1.986	-16.91895
1.9865	28.39966
1.987	67.8772
1.9875	93.85986
1.988	144.6167
1.9885	183.89282
1.989	202.4231
1.9895	197.58911
1.99	199.30115
1.9905	195.77637
1.991	168.68591
1.9915	157.40662
1.992	152.1698
1.9925	125.18005
1.993	98.29102
1.9935	94.86694
1.994	103.02429
1.9945	98.69385
1.995	80.96924
1.9955	66.16516
1.996	65.15808
1.9965	68.78357
1.997	21.55151
1.9975	-58.10852
1.998	-137.46643
1.9985	-167.57812
1.999	-178.85742
1.9995	-172.91565
2	-161.73706
2.0005	-133.13599
2.001	-130.61829
2.0015	-121.85669
2.002	-92.55066
2.0025	-63.74817
2.003	-45.62073
2.0035	-24.47205
2.004	5.84106
2.0045	31.82373
2.005	58.41064
2.0055	86.20605
2.006	95.5719
2.0065	119.03687
2.007	109.97314
2.0075	32.22656
2.008	-56.29578
2.0085	-98.79456
2.009	-95.37048
2.0095	-65.15808
2.01	-39.88037
2.0105	-5.0354
2.011	39.17542
2.0115	94.3634
2.012	126.28784
2.0125	146.53015
2.013	155.69458
2.0135	165.06042
2.014	173.82202
2.0145	165.06042
2.015	127.79846
2.0155	102.62146
2.016	74.72534
2.0165	24.87488
2.017	-21.14868
2.0175	-32.83081
2.018	-30.61523
2.0185	-28.19824
2.019	-29.20532
2.0195	-24.27063
2.02	-18.63098
2.0205	-18.22815
2.021	-13.89771
2.0215	-25.27771
2.022	-60.02197
2.0225	-82.88269
2.023	-90.23438
2.0235	-63.84888
2.024	-0.40283
2.0245	34.74426
2.025	28.80249
2.0255	24.97559
2.026	33.83789
2.0265	41.69312
2.027	57.9071
2.0275	68.38074
2.028	73.11401
2.0285	61.23047
2.029	28.29895
2.0295	-17.6239
2.03	-105.34058
2.0305	-187.61902
2.031	-215.0116
2.0315	-197.18628
2.032	-191.74805
2.0325	-189.53247
2.033	-160.72998
2.0335	-115.81421
2.034	-70.79773
2.0345	-24.77417
2.035	41.69312
2.0355	106.9519
2.036	136.05652
2.0365	134.34448
2.037	132.83386
2.0375	121.55457
2.038	123.36731
2.0385	148.3429
2.039	158.01086
2.0395	143.3075
2.04	121.35315
2.0405	94.2627
2.041	78.04871
2.0415	65.76233
2.042	73.01331
2.0425	67.47437
2.043	-20.94727
2.0435	-102.62146
2.044	-163.14697
2.0445	-230.72205
2.045	-274.32861
2.0455	-269.69604
2.046	-245.92896
2.0465	-201.01318
2.047	-157.40662
2.0475	-114.80713
2.048	-66.6687
2.0485	-31.21948
2.049	-3.62549
2.0495	28.19824
2.05	57.8064
2.0505	82.07703
2.051	126.08643
2.0515	175.13123
2.052	218.03284
2.0525	205.0415
2.053	159.01794
2.0535	127.69775
2.054	116.31775
2.0545	114.4043
2.055	116.31775
2.0555	105.03845
2.056	-20.94727
2.0565	-146.73157
2.057	-215.91797
2.0575	-253.28064
2.058	-263.85498
2.0585	-220.14771
2.059	-153.17688
2.0595	-89.22729
2.06	-25.177
2.0605	28.39966
2.061	61.6333
2.0615	33.53577
2.062	13.49487
2.0625	4.33044
2.063	2.61841
2.0635	11.17859
2.064	16.81824
2.0645	61.73401
2.065	107.35474
2.0655	92.85278
2.066	92.44995
2.0665	140.38696
2.067	142.30042
2.0675	113.09509
2.068	90.23438
2.0685	83.58765
2.069	95.06836
2.0695	91.54358
2.07	92.75208
2.0705	111.38306
2.071	97.08252
2.0715	61.93542
2.072	50.354
2.0725	56.19507
2.073	55.3894
2.0735	55.79224
2.074	51.76392
2.0745	54.48303
2.075	59.82056
2.0755	69.99207
2.076	68.48145
2.0765	64.25171
2.077	59.92126
2.0775	44.81506
2.078	31.21948
2.0785	18.42957
2.079	4.63257
2.0795	4.12903
2.08	5.94177
2.0805	4.43115
2.081	-11.58142
2.0815	-45.82214
2.082	-82.58057
2.0825	-162.94556
2.083	-210.58044
2.0835	-219.94629
2.084	-205.84717
2.0845	-178.75671
2.085	-138.3728
2.0855	-95.16907
2.086	-88.72375
2.0865	-103.62854
2.087	-85.40039
2.0875	-47.7356
2.088	-9.06372
2.0885	39.77966
2.089	102.72217
2.0895	149.85352
2.09	163.85193
2.0905	183.69141
2.091	171.80786
2.0915	138.57422
2.092	112.59155
2.0925	105.54199
2.093	90.73792
2.0935	79.35791
2.094	70.19348
2.0945	60.02197
2.095	54.28162
2.0955	24.77417
2.096	-0.70496
2.0965	-35.14709
2.097	-61.93542
2.0975	-94.06128
2.098	-114.80713
2.0985	-123.87085
2.099	-136.35864
2.0995	-169.99512
2.1	-173.62061
2.1005	-185.50415
2.101	-299.20349
2.1015	-367.48352
2.102	-388.43079
2.1025	-370.90759
2.103	-306.15234
2.1035	-241.09497
2.104	-201.61743
2.1045	-110.6781
2.105	-22.76001
2.1055	88.72375
2.106	181.97937
2.1065	260.53162
2.107	300.21057
2.1075	317.63306
2.108	328.10669
2.1085	356.40564
2.109	362.64954
2.1095	348.55042
2.11	317.23022
2.1105	288.32703
2.111	249.35303
2.1115	182.88574
2.112	74.12109
2.1125	-30.01099
2.113	-82.68127
2.1135	-98.69385
2.114	-95.97473
2.1145	-76.13525
2.115	-50.05188
2.1155	-21.24939
2.116	17.82532
2.1165	45.52002
2.117	58.41064
2.1175	57.20215
2.118	51.5625
2.1185	20.94727
2.119	-6.04248
2.1195	-24.27063
2.12	-23.56567
2.1205	-17.22107
2.121	-7.45239
2.1215	-12.5885
2.122	-9.46655
2.1225	2.61841
2.123	9.46655
2.1235	8.45947
2.124	6.3446
2.1245	34.54285
2.125	77.64587
2.1255	77.64587
2.126	73.01331
2.1265	65.66162
2.127	69.68994
2.1275	54.68445
2.128	31.92444
2.1285	11.68213
2.129	-1.00708
2.1295	-7.65381
2.13	-16.21399
2.1305	-29.80957
2.131	-42.59949
2.1315	-51.05896
2.132	-73.41614
2.1325	-91.54358
2.133	-97.28394
2.1335	-98.79456
2.134	-87.91809
2.1345	-68.88428
2.135	-56.69861
2.1355	-40.88745
2.136	-13.69629
2.1365	11.58142
2.137	9.26514
2.1375	-36.85913
2.138	-59.61914
2.1385	-63.04321
2.139	-43.40515
2.1395	-12.48779
2.14	2.11487
2.1405	-38.36975
2.141	-100.20447
2.1415	-139.27917
2.142	-151.76697
2.1425	-140.28625
2.143	-133.53882
2.1435	-122.46094
2.144	-90.13367
2.1445	-33.23364
2.145	9.46655
2.1455	60.02197
2.146	67.8772
2.1465	60.3241
2.147	59.61914
2.1475	107.75757
2.148	169.69299
2.1485	209.47266
2.149	193.05725
2.1495	135.8551
2.15	86.91101
2.1505	71.90552
2.151	78.35083
2.1515	90.73792
2.152	95.47119
2.1525	21.24939
2.153	-63.14392
2.1535	-96.07544
2.154	-79.76074
2.1545	-37.56409
2.155	12.18567
2.1555	53.27454
2.156	97.18323
2.1565	123.16589
2.157	133.03528
2.1575	146.53015
2.158	138.07068
2.1585	112.69226
2.159	56.90002
2.1595	-65.46021
2.16	-172.81494
2.1605	-228.10364
2.161	-282.58667
2.1615	-291.44897
2.162	-268.68896
2.1625	-207.35779
2.163	-139.37988
2.1635	-71.30127
2.164	-1.2085
2.1645	48.13843
2.165	83.08411
2.1655	100.50659
2.166	103.93066
2.1665	129.5105
2.167	163.34839
2.1675	194.16504
2.168	205.84717
2.1685	185.90698
2.169	146.12732
2.1695	124.77722
2.17	103.42712
2.1705	26.08337
2.171	-49.74976
2.1715	-80.76782
2.172	-122.25952
2.1725	-150.75989
2.173	-150.35706
2.1735	-124.4751
2.174	-101.9165
2.1745	-54.68445
2.175	10.87646
2.1755	52.56958
2.176	78.35083
2.1765	84.39331
2.177	88.72375
2.1775	106.75049
2.178	99.19739
2.1785	88.82446
2.179	82.68127
2.1795	62.9425
2.18	34.74426
2.1805	19.73877
2.181	6.2439
2.1815	8.05664
2.182	6.44531
2.1825	17.92603
2.183	21.65222
2.1835	-32.02515
2.184	-77.64587
2.1845	-92.14783
2.185	-75.22888
2.1855	-72.50977
2.186	-66.26587
2.1865	-47.43347
2.187	-8.15735
2.1875	46.82922
2.188	85.09827
2.1885	119.33899
2.189	134.44519
2.1895	119.03687
2.19	88.52234
2.1905	49.74976
2.191	25.78125
2.1915	7.35168
2.192	-28.29895
2.1925	-128.50342
2.193	-180.67017
2.1935	-193.25867
2.194	-173.41919
2.1945	-103.93066
2.195	-40.58533
2.1955	9.76868
2.196	46.12427
2.1965	72.9126
2.197	90.63721
2.1975	102.72217
2.198	127.69775
2.1985	169.59229
2.199	181.27441
2.1995	167.07458
2.2	140.78979
2.2005	108.56323
2.201	25.47913
2.2015	-75.4303
2.202	-134.94873
2.2025	-172.3114
2.203	-189.83459
2.2035	-173.41919
2.204	-142.50183
2.2045	-94.16199
2.205	-46.42639
2.2055	3.7262
2.206	49.34692
2.2065	77.64587
2.207	96.8811
2.2075	60.52551
2.208	30.31311
2.2085	13.19275
2.209	13.29346
2.2095	39.98108
2.21	69.99207
2.2105	87.91809
2.211	103.125
2.2115	113.49792
2.212	117.12341
2.2125	112.39014
2.213	102.82288
2.2135	83.38623
2.214	62.8418
2.2145	14.60266
2.215	-17.82532
2.2155	-33.33435
2.216	-37.7655
2.2165	-41.18958
2.217	-63.24463
2.2175	-62.64038
2.218	-61.93542
2.2185	-52.8717
2.219	-45.72144
2.2195	-46.72852
2.22	-57.9071
2.2205	-58.20923
2.221	-48.33984
2.2215	-66.26587
2.222	-101.01013
2.2225	-111.58447
2.223	-99.90234
2.2235	-82.9834
2.224	-72.9126
2.2245	-76.7395
2.225	-75.22888
2.2255	-64.65454
2.226	-68.28003
2.2265	-80.06287
2.227	-74.72534
2.2275	-94.06128
2.228	-94.56482
2.2285	-34.64355
2.229	18.53027
2.2295	40.78674
2.23	54.58374
2.2305	62.74109
2.231	63.44604
2.2315	72.9126
2.232	102.31934
2.2325	138.47351
2.233	174.72839
2.2335	183.08716
2.234	179.15955
2.2345	173.01636
2.235	167.37671
2.2355	141.99829
2.236	116.61987
2.2365	82.37915
2.237	40.1825
2.2375	-12.99133
2.238	-57.50427
2.2385	-133.63953
2.239	-204.33655
2.2395	-223.37036
2.24	-208.46558
2.2405	-165.66467
2.241	-97.38464
2.2415	-26.58691
2.242	25.78125
2.2425	51.76392
2.243	66.97083
2.2435	83.08411
2.244	86.91101
2.2445	77.948
2.245	71.50269
2.2455	66.16516
2.246	72.61047
2.2465	81.47278
2.247	82.37915
2.2475	93.25562
2.248	102.92358
2.2485	115.00854
2.249	112.08801
2.2495	100.90942
2.25	96.98181
2.2505	92.44995
2.251	82.78198
2.2515	49.0448
2.252	7.04956
2.2525	-30.41382
2.253	-56.19507
2.2535	-77.04163
2.254	-90.03296
2.2545	-97.88818
2.255	-88.22021
2.2555	-67.8772
2.256	-45.41931
2.2565	-17.01965
2.257	17.12036
2.2575	21.95435
2.258	-9.86938
2.2585	-22.45789
2.259	-20.94727
2.2595	-22.86072
2.26	-19.94019
2.2605	-21.95435
2.261	-24.16992
2.2615	-6.94885
2.262	16.01257
2.2625	45.52002
2.263	60.3241
2.2635	56.79932
2.264	50.95825
2.2645	45.2179
2.265	7.95593
2.2655	-37.86621
2.266	-67.57507
2.2665	-79.35791
2.267	-75.53101
2.2675	-48.64197
2.268	-7.04956
2.2685	26.58691
2.269	55.08728
2.2695	64.65454
2.27	86.70959
2.2705	107.25403
2.271	100.10376
2.2715	70.59631
2.272	50.15259
2.2725	27.19116
2.273	14.80408
2.2735	5.84106
2.274	-5.74036
2.2745	-20.1416
2.275	-31.32019
2.2755	-57.40356
2.276	-72.30835
2.2765	-70.3949
2.277	-65.66162
2.2775	-63.74817
2.278	-46.22498
2.2785	-58.41064
2.279	-108.36182
2.2795	-128.40271
2.28	-129.71191
2.2805	-131.62537
2.281	-131.42395
2.2815	-123.66943
2.282	-143.10608
2.2825	-143.10608
2.283	-113.80005
2.2835	-98.0896
2.284	-60.4248
2.2845	-18.32886
2.285	17.92603
2.2855	46.22498
2.286	20.34302
2.2865	-12.99133
2.287	26.58691
2.2875	90.33508
2.288	131.12183
2.2885	155.49316
2.289	182.98645
2.2895	213.29956
2.29	238.17444
2.2905	228.30505
2.291	175.53406
2.2915	60.62622
2.292	12.99133
2.2925	14.90479
2.293	19.94019
2.2935	23.66638
2.294	55.2887
2.2945	79.15649
2.295	87.21313
2.2955	66.76941
2.296	55.69153
2.2965	57.50427
2.297	60.52551
2.2975	50.75684
2.298	45.72144
2.2985	26.48621
2.299	12.28638
2.2995	12.38708
2.3	0.40283
2.3005	-41.08887
2.301	-64.05029
2.3015	-51.86462
2.302	-38.87329
2.3025	-32.22656
2.303	-27.89612
2.3035	26.08337
2.304	98.69385
2.3045	127.29492
2.305	102.92358
2.3055	56.90002
2.306	1.2085
2.3065	-30.61523
2.307	-53.97949
2.3075	-62.43896
2.308	-52.97241
2.3085	-51.5625
2.309	-71.7041
2.3095	-117.52625
2.31	-141.89758
2.3105	-145.42236
2.311	-142.60254
2.3115	-145.8252
2.312	-138.3728
2.3125	-101.8158
2.313	-39.47754
2.3135	9.16443
2.314	17.82532
2.3145	23.76709
2.315	54.48303
2.3155	69.48853
2.316	120.54749
2.3165	156.29883
2.317	156.60095
2.3175	141.59546
2.318	110.27527
2.3185	86.10535
2.319	87.21313
2.3195	95.87402
2.32	88.82446
2.3205	76.03455
2.321	66.36658
2.3215	69.28711
2.322	62.9425
2.3225	66.36658
2.323	12.68921
2.3235	-46.42639
2.324	-88.72375
2.3245	-118.53333
2.325	-133.84094
2.3255	-139.17847
2.326	-133.43811
2.3265	-120.95032
2.327	-110.57739
2.3275	-90.33508
2.328	-67.77649
2.3285	-51.15967
2.329	-52.36816
2.3295	-62.13684
2.33	-50.45471
2.3305	-17.52319
2.331	8.05664
2.3315	-11.78284
2.332	-28.50037
2.3325	-8.05664
2.333	12.99133
2.3335	42.7002
2.334	70.59631
2.3345	89.22729
2.335	116.51917
2.3355	120.24536
2.336	126.9928
2.3365	133.23669
2.337	36.65771
2.3375	-54.28162
2.338	-88.0188
2.3385	-85.90393
2.339	-39.88037
2.3395	21.55151
2.34	96.37756
2.3405	132.33032
2.341	138.77563
2.3415	146.63086
2.342	150.35706
2.3425	138.77563
2.343	102.01721
2.3435	48.44055
2.344	13.99841
2.3445	-5.13611
2.345	-29.50745
2.3455	-47.8363
2.346	-71.80481
2.3465	-81.47278
2.347	-76.13525
2.3475	-65.76233
2.348	-65.15808
2.3485	-92.65137
2.349	-213.60168
2.3495	-328.10669
2.35	-415.72266
2.3505	-433.64868
2.351	-394.07043
2.3515	-314.51111
2.352	-211.38611
2.3525	-96.57898
2.353	16.11328
2.3535	128.302
2.354	243.20984
2.3545	343.71643
2.355	385.51025
2.3555	399.40796
2.356	376.84937
2.3565	319.94934
2.357	270.90454
2.3575	217.93213
2.358	153.88184
2.3585	82.88269
2.359	24.67346
2.3595	1.10779
2.36	23.8678
2.3605	33.83789
2.361	13.39417
2.3615	12.89062
2.362	18.12744
2.3625	-1.71204
2.363	-56.69861
2.3635	-74.12109
2.364	-66.56799
2.3645	-58.00781
2.365	-38.36975
2.3655	-4.83398
2.366	37.26196
2.3665	60.3241
2.367	74.32251
2.3675	91.24146
2.368	98.0896
2.3685	93.75916
2.369	82.17773
2.3695	64.45312
2.37	53.87878
2.3705	48.84338
2.371	38.87329
2.3715	27.39258
2.372	20.04089
2.3725	18.8324
2.373	2.61841
2.3735	-32.83081
2.374	-93.15491
2.3745	-152.1698
2.375	-189.9353
2.3755	-238.67798
2.376	-266.37268
2.3765	-263.15002
2.377	-253.9856
2.3775	-241.29639
2.378	-225.38452
2.3785	-188.32397
2.379	-138.3728
2.3795	-76.84021
2.38	-18.73169
2.3805	43.30444
2.381	89.52942
2.3815	133.53882
2.382	136.35864
2.3825	138.67493
2.383	131.72607
2.3835	140.08484
2.384	76.23596
2.3845	-37.56409
2.385	-80.86853
2.3855	-66.46729
2.386	-35.65063
2.3865	4.93469
2.387	34.84497
2.3875	60.4248
2.388	90.43579
2.3885	110.6781
2.389	120.24536
2.3895	131.82678
2.39	140.48767
2.3905	133.63953
2.391	128.20129
2.3915	120.14465
2.392	93.65845
2.3925	49.64905
2.393	29.30603
2.3935	14.50195
2.394	-1.3092
2.3945	7.04956
2.395	20.64514
2.3955	25.68054
2.396	38.67188
2.3965	31.01807
2.397	5.53894
2.3975	-3.02124
2.398	-2.81982
2.3985	-4.93469
2.399	-14.90479
2.3995	-43.20374
2.4	-64.45312
2.4005	-68.58215
2.401	-45.82214
2.4015	-6.44531
2.402	-10.57434
2.4025	-77.04163
2.403	-97.78748
2.4035	-79.2572
2.404	-42.29736
2.4045	-4.22974
2.405	26.88904
2.4055	46.62781
2.406	35.54993
2.4065	-13.09204
2.407	-48.54126
2.4075	-73.71826
2.408	-71.20056
2.4085	-54.78516
2.409	-30.71594
2.4095	30.51453
2.41	95.47119
2.4105	116.11633
2.411	106.44836
2.4115	81.47278
2.412	59.82056
2.4125	58.91418
2.413	69.68994
2.4135	80.96924
2.414	110.57739
2.4145	121.55457
2.415	110.47668
2.4155	82.17773
2.416	70.99915
2.4165	48.54126
2.417	39.47754
2.4175	29.20532
2.418	16.11328
2.4185	16.3147
2.419	-1.00708
2.4195	-58.81348
2.42	-193.15796
2.4205	-271.6095
2.421	-266.5741
2.4215	-245.32471
2.422	-231.82983
2.4225	-205.94788
2.423	-143.10608
2.4235	-76.53809
2.424	-11.17859
2.4245	4.83398
2.425	9.56726
2.4255	21.65222
2.426	38.06763
2.4265	93.15491
2.427	135.45227
2.4275	164.55688
2.428	169.08875
2.4285	160.72998
2.429	148.54431
2.4295	100.40588
2.43	61.43188
2.4305	63.74817
2.431	50.354
2.4315	-39.67896
2.432	-107.65686
2.4325	-105.84412
2.433	-60.02197
2.4335	-39.27612
2.434	-36.95984
2.4345	4.43115
2.435	54.98657
2.4355	97.28394
2.436	108.86536
2.4365	100.80872
2.437	96.17615
2.4375	121.45386
2.438	170.80078
2.4385	181.87866
2.439	149.55139
2.4395	109.4696
2.44	92.85278
2.4405	78.55225
2.441	50.05188
2.4415	19.63806
2.442	-8.66089
2.4425	-60.62622
2.443	-108.56323
2.4435	-126.89209
2.444	-144.31458
2.4445	-130.8197
2.445	-122.36023
2.4455	-103.22571
2.446	-75.93384
2.4465	-44.11011
2.447	-13.99841
2.4475	3.62549
2.448	22.05505
2.4485	33.33435
2.449	31.21948
2.4495	31.72302
2.45	21.75293
2.4505	10.17151
2.451	-2.11487
2.4515	-5.13611
2.452	-12.38708
2.4525	-1.91345
2.453	25.57983
2.4535	47.7356
2.454	66.16516
2.4545	65.46021
2.455	51.76392
2.4555	48.74268
2.456	45.82214
2.4565	40.38391
2.457	38.16833
2.4575	41.69312
2.458	48.64197
2.4585	38.47046
2.459	17.42249
2.4595	13.69629
2.46	2.31628
2.4605	-17.72461
2.461	-27.29187
2.4615	-84.69543
2.462	-162.13989
2.4625	-214.00452
2.463	-220.85266
2.4635	-214.70947
2.464	-191.34521
2.4645	-140.99121
2.465	-75.53101
2.4655	-10.37292
2.466	49.44763
2.4665	74.72534
2.467	39.67896
2.4675	2.5177
2.468	-20.24231
2.4685	-15.00549
2.469	6.54602
2.4695	31.21948
2.47	73.81897
2.4705	90.43579
2.471	96.47827
2.4715	131.52466
2.472	152.77405
2.4725	147.53723
2.473	118.53333
2.4735	84.89685
2.474	52.56958
2.4745	40.98816
2.475	51.5625
2.4755	66.87012
2.476	68.28003
2.4765	50.15259
2.477	35.95276
2.4775	31.11877
2.478	34.84497
2.4785	-33.23364
2.479	-107.05261
2.4795	-138.67493
2.48	-147.63794
2.4805	-146.42944
2.481	-137.26501
2.4815	-94.3634
2.482	-34.24072
2.4825	13.19275
2.483	48.74268
2.4835	60.62622
2.484	32.52869
2.4845	-1.10779
2.485	-14.80408
2.4855	-22.76001
2.486	-36.85913
2.4865	-58.91418
2.487	-79.35791
2.4875	-84.99756
2.488	-69.28711
2.4885	-17.42249
2.489	52.56958
2.4895	47.63489
2.49	-21.95435
2.4905	-67.97791
2.491	-73.01331
2.4915	-65.46021
2.492	-65.3595
2.4925	-48.74268
2.493	-27.09045
2.4935	9.97009
2.494	36.35559
2.4945	60.52551
2.495	92.44995
2.4955	116.922
2.496	131.92749
2.4965	140.18555
2.497	142.70325
2.4975	156.09741
2.498	169.29016
2.4985	171.90857
2.499	168.88733
2.4995	144.11316
2.5	125.58289
2.5005	112.08801
2.501	119.13757
2.5015	113.09509
2.502	86.8103
2.5025	54.68445
2.503	37.46338
2.5035	23.8678
2.504	8.45947
2.5045	-6.64673
2.505	-29.50745
2.5055	-55.18799
2.506	-67.77649
2.5065	-90.03296
2.507	-118.33191
2.5075	-136.15723
2.508	-175.83618
2.5085	-191.84875
2.509	-196.58203
2.5095	-198.09265
2.51	-252.37427
2.5105	-269.89746
2.511	-276.54419
2.5115	-266.37268
2.512	-231.427
2.5125	-179.15955
2.513	-148.4436
2.5135	-91.44287
2.514	-10.97717
2.5145	53.27454
2.515	133.23669
2.5155	237.6709
2.516	306.25305
2.5165	318.1366
2.517	303.83606
2.5175	264.45923
2.518	230.82275
2.5185	198.39478
2.519	200.50964
2.5195	195.27283
2.52	178.95813
2.5205	166.16821
2.521	145.8252
2.5215	39.67896
2.522	-72.81189
2.5225	-146.32874
2.523	-203.02734
2.5235	-221.45691
2.524	-218.23425
2.5245	-205.14221
2.525	-169.39087
2.5255	-113.29651
2.526	-58.00781
2.5265	-12.18567
2.527	-6.64673
2.5275	-17.12036
2.528	-22.45789
2.5285	-39.98108
2.529	-44.0094
2.5295	-32.12585
2.53	-41.39099
2.5305	-73.81897
2.531	-85.90393
2.5315	-46.02356
2.532	11.68213
2.5325	69.68994
2.533	99.3988
2.5335	91.24146
2.534	100.20447
2.5345	149.34998
2.535	156.70166
2.5355	133.63953
2.536	122.36023
2.5365	122.05811
2.537	126.08643
2.5375	108.1604
2.538	91.745
2.5385	82.37915
2.539	84.39331
2.5395	93.65845
2.54	54.88586
2.5405	-20.74585
2.541	-91.24146
2.5415	-151.06201
2.542	-154.78821
2.5425	-146.42944
2.543	-122.46094
2.5435	-96.07544
2.544	-62.9425
2.5445	-23.96851
2.545	32.12585
2.5455	90.5365
2.546	139.98413
2.5465	143.60962
2.547	136.66077
2.5475	123.66943
2.548	128.20129
2.5485	137.66785
2.549	150.55847
2.5495	130.11475
2.55	107.75757
2.5505	88.32092
2.551	76.13525
2.5515	59.92126
2.552	50.2533
2.5525	35.2478
2.553	18.53027
2.5535	8.45947
2.554	-9.97009
2.5545	-10.87646
2.555	-17.92603
2.5555	-22.96143
2.556	-21.75293
2.5565	-16.41541
2.557	-6.74744
2.5575	-15.00549
2.558	-52.16675
2.5585	-78.75366
2.559	-96.47827
2.5595	-111.48376
2.56	-101.61438
2.5605	-88.22021
2.561	-100.30518
2.5615	-114.60571
2.562	-116.11633
2.5625	-89.63013
2.563	-31.4209
2.5635	-3.42407
2.564	3.8269
2.5645	19.94019
2.565	31.11877
2.5655	35.2478
2.566	40.2832
2.5665	43.20374
2.567	70.09277
2.5675	79.45862
2.568	45.82214
2.5685	-69.48853
2.569	-161.83777
2.5695	-231.82983
2.57	-234.75037
2.5705	-190.74097
2.571	-129.61121
2.5715	-56.79932
2.572	11.88354
2.5725	58.41064
2.573	68.78357
2.5735	12.38708
2.574	-20.94727
2.5745	-46.12427
2.575	-68.28003
2.5755	-94.56482
2.576	-120.64819
2.5765	-138.77563
2.577	-140.78979
2.5775	-122.15881
2.578	-87.81738
2.5785	-39.17542
2.579	25.37842
2.5795	84.99756
2.58	137.16431
2.5805	174.32556
2.581	192.453
2.5815	223.26965
2.582	211.18469
2.5825	115.41138
2.583	38.06763
2.5835	23.56567
2.584	64.151
2.5845	104.53491
2.585	109.16748
2.5855	98.49243
2.586	111.78589
2.5865	134.5459
2.587	138.97705
2.5875	119.23828
2.588	112.59155
2.5885	106.14624
2.589	88.22021
2.5895	84.49402
2.59	93.75916
2.5905	95.97473
2.591	82.9834
2.5915	60.52551
2.592	39.67896
2.5925	29.91028
2.593	49.0448
2.5935	45.52002
2.594	38.26904
2.5945	20.74585
2.595	13.797
2.5955	28.29895
2.596	29.10461
2.5965	18.8324
2.597	3.02124
2.5975	-5.94177
2.598	-7.65381
2.5985	-2.31628
2.599	-18.8324
2.5995	-52.56958
2.6	-77.948
2.6005	-93.96057
2.601	-110.17456
2.6015	-114.90784
2.602	-101.31226
2.6025	-101.31226
2.603	-128.20129
2.6035	-128.70483
2.604	-106.44836
2.6045	-83.48694
2.605	-61.93542
2.6055	-40.38391
2.606	-12.48779
2.6065	19.03381
2.607	45.72144
2.6075	63.24463
2.608	78.85437
2.6085	84.39331
2.609	72.9126
2.6095	54.18091
2.61	20.94727
2.6105	-9.06372
2.611	-30.01099
2.6115	-60.3241
2.612	-79.2572
2.6125	-90.5365
2.613	-82.17773
2.6135	-60.3241
2.614	-45.01648
2.6145	-133.53882
2.615	-300.21057
2.6155	-460.03418
2.616	-576.65405
2.6165	-588.73901
2.617	-522.27173
2.6175	-408.6731
2.618	-275.93994
2.6185	-138.57422
2.619	6.44531
2.6195	152.57263
2.62	259.52454
2.6205	319.4458
2.621	334.14917
2.6215	342.20581
2.622	356.20422
2.6225	374.53308
2.623	405.04761
2.6235	408.47168
2.624	338.58032
2.6245	258.11462
2.625	183.18787
2.6255	135.25085
2.626	95.16907
2.6265	57.8064
2.627	28.80249
2.6275	16.3147
2.628	3.52478
2.6285	-11.17859
2.629	-13.99841
2.6295	-7.5531
2.63	7.75452
2.6305	15.91187
2.631	28.80249
2.6315	49.14551
2.632	50.45471
2.6325	65.66162
2.633	67.17224
2.6335	36.55701
2.634	19.13452
2.6345	4.12903
2.635	-68.17932
2.6355	-149.95422
2.636	-157.2052
2.6365	-123.2666
2.637	-82.47986
2.6375	-23.46497
2.638	45.41931
2.6385	102.31934
2.639	138.87634
2.6395	154.08325
2.64	166.47034
2.6405	160.42786
2.641	141.29333
2.6415	112.39014
2.642	90.13367
2.6425	68.17932
2.643	45.11719
2.6435	53.67737
2.644	73.31543
2.6445	56.39648
2.645	7.75452
2.6455	-30.01099
2.646	-52.67029
2.6465	-64.25171
2.647	-64.45312
2.6475	-47.03064
2.648	-33.9386
2.6485	-55.18799
2.649	-89.73083
2.6495	-116.61987
2.65	-147.53723
2.6505	-167.77954
2.651	-147.03369
2.6515	-105.23987
2.652	-132.93457
2.6525	-240.79285
2.653	-309.77783
2.6535	-287.01782
2.654	-234.34753
2.6545	-152.87476
2.655	-76.84021
2.6555	13.49487
2.656	84.69543
2.6565	140.28625
2.657	173.92273
2.6575	177.85034
2.658	149.24927
2.6585	119.03687
2.659	70.69702
2.6595	24.16992
2.66	-11.98425
2.6605	-64.25171
2.661	-103.52783
2.6615	-127.39563
2.662	-181.57654
2.6625	-194.06433
2.663	-158.21228
2.6635	-114.00146
2.664	-65.3595
2.6645	-2.11487
2.665	61.12976
2.6655	118.93616
2.666	168.98804
2.6665	206.55212
2.667	223.8739
2.6675	245.42542
2.668	258.71887
2.6685	243.51196
2.669	186.91406
2.6695	120.14465
2.67	83.08411
2.6705	66.16516
2.671	18.02673
2.6715	-58.30994
2.672	-107.45544
2.6725	-146.02661
2.673	-203.7323
2.6735	-236.26099
2.674	-238.67798
2.6745	-208.86841
2.675	-152.97546
2.6755	-107.55615
2.676	-54.0802
2.6765	8.45947
2.677	67.07153
2.6775	140.99121
2.678	183.28857
2.6785	206.45142
2.679	260.73303
2.6795	286.31287
2.68	285.40649
2.6805	235.35461
2.681	171.60645
2.6815	132.73315
2.682	141.29333
2.6825	168.4845
2.683	135.8551
2.6835	102.31934
2.684	73.21472
2.6845	57.9071
2.685	42.90161
2.6855	33.23364
2.686	15.1062
2.6865	9.36584
2.687	-13.19275
2.6875	-68.98499
2.688	-103.82996
2.6885	-143.00537
2.689	-152.37122
2.6895	-123.66943
2.69	-98.29102
2.6905	-72.10693
2.691	-44.0094
2.6915	-7.35168
2.692	26.78833
2.6925	56.29578
2.693	65.3595
2.6935	70.89844
2.694	62.53967
2.6945	22.6593
2.695	-5.53894
2.6955	-41.39099
2.696	-77.74658
2.6965	-116.31775
2.697	-117.52625
2.6975	-86.91101
2.698	-51.15967
2.6985	-44.91577
2.699	-24.06921
2.6995	14.70337
2.7	10.47363
2.7005	-3.62549
2.701	-51.46179
2.7015	-116.72058
2.702	-115.31067
2.7025	-74.62463
2.703	-53.27454
2.7035	-15.40833
2.704	30.2124
2.7045	58.41064
2.705	49.0448
2.7055	31.4209
2.706	-9.76868
2.7065	-88.82446
2.707	-131.12183
2.7075	-150.15564
2.708	-120.54749
2.7085	-90.03296
2.709	-33.73718
2.7095	17.72461
2.71	47.13135
2.7105	73.01331
2.711	108.66394
2.7115	145.62378
2.712	150.15564
2.7125	151.66626
2.713	133.13599
2.7135	85.5011
2.714	50.15259
2.7145	14.09912
2.715	-17.22107
2.7155	-17.72461
2.716	-2.5177
2.7165	-3.8269
2.717	-3.7262
2.7175	-29.30603
2.718	-36.05347
2.7185	-51.26038
2.719	-76.23596
2.7195	-96.17615
2.72	-103.52783
2.7205	-146.53015
2.721	-163.5498
2.7215	-132.93457
2.722	-91.8457
2.7225	-95.06836
2.723	-90.03296
2.7235	-43.10303
2.724	10.77576
2.7245	55.18799
2.725	111.18164
2.7255	159.82361
2.726	178.25317
2.7265	176.74255
2.727	153.98254
2.7275	142.40112
2.728	100.00305
2.7285	38.87329
2.729	9.26514
2.7295	2.11487
2.73	-10.97717
2.7305	-28.29895
2.731	-23.16284
2.7315	-29.20532
2.732	-20.74585
2.7325	-2.41699
2.733	-6.64673
2.7335	-38.77258
2.734	-60.92834
2.7345	-28.39966
2.735	33.53577
2.7355	73.41614
2.736	94.86694
2.7365	103.93066
2.737	89.02588
2.7375	70.59631
2.738	31.62231
2.7385	-21.24939
2.739	-48.74268
2.7395	-31.01807
2.74	8.56018
2.7405	26.88904
2.741	33.9386
2.7415	51.26038
2.742	-20.64514
2.7425	-129.20837
2.743	-178.05176
2.7435	-165.66467
2.744	-127.39563
2.7445	-70.79773
2.745	9.26514
2.7455	103.62854
2.746	173.21777
2.7465	203.32947
2.747	198.59619
2.7475	167.17529
2.748	114.30359
2.7485	45.52002
2.749	-9.56726
2.7495	-60.62622
2.75	-115.31067
2.7505	-138.17139
2.751	-127.49634
2.7515	-178.25317
2.752	-277.75269
2.7525	-323.172
2.753	-313.2019
2.7535	-268.99109
2.754	-193.05725
2.7545	-108.96606
2.755	-64.05029
2.7555	-36.25488
2.756	-57.30286
2.7565	-41.39099
2.757	20.34302
2.7575	98.49243
2.758	133.94165
2.7585	129.00696
2.759	154.28467
2.7595	156.29883
2.76	99.2981
2.7605	74.52393
2.761	101.8158
2.7615	157.40662
2.762	209.9762
2.7625	258.51746
2.763	266.6748
2.7635	224.37744
2.764	192.35229
2.7645	173.41919
2.765	143.60962
2.7655	99.2981
2.766	76.53809
2.7665	115.51208
2.767	162.74414
2.7675	183.28857
2.768	180.77087
2.7685	171.30432
2.769	163.14697
2.7695	139.78271
2.77	113.1958
2.7705	98.99597
2.771	104.73633
2.7715	91.54358
2.772	84.09119
2.7725	50.75684
2.773	4.73328
2.7735	-31.82373
2.774	-46.82922
2.7745	-60.52551
2.775	-74.42322
2.7755	-107.05261
2.776	-140.68909
2.7765	-148.54431
2.777	-148.14148
2.7775	-157.30591
2.778	-187.51831
2.7785	-304.03748
2.779	-457.61719
2.7795	-577.86255
2.78	-600.32043
2.7805	-539.79492
2.781	-442.30957
2.7815	-290.64331
2.782	-112.49084
2.7825	55.3894
2.783	152.47192
2.7835	222.36328
2.784	272.31445
2.7845	304.94385
2.785	331.73218
2.7855	362.146
2.786	378.86353
2.7865	389.23645
2.787	354.5929
2.7875	290.94543
2.788	249.45374
2.7885	223.77319
2.789	201.61743
2.7895	197.18628
2.79	171.40503
2.7905	104.73633
2.791	34.94568
2.7915	-30.2124
2.792	-39.27612
2.7925	-29.60815
2.793	-43.80798
2.7935	-73.31543
2.794	-82.17773
2.7945	-113.80005
2.795	-145.32166
2.7955	-173.11707
2.796	-183.89282
2.7965	-166.97388
2.797	-131.02112
2.7975	-97.78748
2.798	-79.66003
2.7985	-113.39722
2.799	-146.22803
2.7995	-142.60254
2.8	-105.94482
2.8005	-40.38391
2.801	-3.62549
2.8015	-78.25012
2.802	-118.2312
2.8025	-99.2981
2.803	-34.64355
2.8035	9.06372
2.804	33.03223
2.8045	41.4917
2.805	35.44922
2.8055	20.34302
2.806	1.2085
2.8065	25.47913
2.807	18.93311
2.8075	-3.7262
2.808	-16.51611
2.8085	-18.02673
2.809	-2.92053
2.8095	-17.72461
2.81	-38.36975
2.8105	-35.2478
2.811	-41.08887
2.8115	-56.49719
2.812	-70.09277
2.8125	-113.49792
2.813	-220.14771
2.8135	-272.31445
2.814	-253.58276
2.8145	-173.01636
2.815	-70.69702
2.8155	29.40674
2.816	118.43262
2.8165	202.5238
2.817	276.44348
2.8175	318.64014
2.818	324.4812
2.8185	318.53943
2.819	304.54102
2.8195	312.19482
2.82	296.28296
2.8205	295.67871
2.821	300.91553
2.8215	297.18933
2.822	261.23657
2.8225	218.53638
2.823	181.57654
2.8235	136.96289
2.824	98.49243
2.8245	74.62463
2.825	52.06604
2.8255	27.59399
2.826	-13.09204
2.8265	-40.88745
2.827	-48.13843
2.8275	-68.48145
2.828	-84.59473
2.8285	-129.10767
2.829	-170.09583
2.8295	-177.85034
2.83	-203.22876
2.8305	-207.5592
2.831	-185.40344
2.8315	-155.29175
2.832	-117.82837
2.8325	-83.99048
2.833	-69.68994
2.8335	-110.87952
2.834	-228.00293
2.8345	-365.77148
2.835	-429.92249
2.8355	-432.74231
2.836	-443.41736
2.8365	-420.45593
2.837	-366.17432
2.8375	-298.49854
2.838	-180.87158
2.8385	-58.61206
2.839	60.4248
2.8395	173.11707
2.84	242.80701
2.8405	289.2334
2.841	351.47095
2.8415	466.27808
2.842	499.41101
2.8425	450.66833
2.843	386.31592
2.8435	298.49854
2.844	231.62842
2.8445	178.25317
2.845	116.21704
2.8455	62.13684
2.846	30.61523
2.8465	33.33435
2.847	39.37683
2.8475	22.15576
2.848	18.93311
2.8485	23.36426
2.849	30.01099
2.8495	48.13843
2.85	49.95117
2.8505	49.0448
2.851	51.46179
2.8515	69.68994
2.852	97.88818
2.8525	87.61597
2.853	72.9126
2.8535	28.9032
2.854	-69.28711
2.8545	-262.64648
2.855	-389.33716
2.8555	-420.55664
2.856	-380.67627
2.8565	-342.50793
2.857	-307.15942
2.8575	-265.86914
2.858	-211.68823
2.8585	-198.59619
2.859	-195.07141
2.8595	-236.96594
2.86	-300.91553
2.8605	-340.99731
2.861	-321.76208
2.8615	-274.53003
2.862	-158.4137
2.8625	-41.89453
2.863	67.8772
2.8635	176.84326
2.864	270.60242
2.8645	332.83997
2.865	333.84705
2.8655	326.89819
2.866	330.12085
2.8665	322.56775
2.867	303.83606
2.8675	280.4718
2.868	266.17126
2.8685	242.80701
2.869	243.51196
2.8695	254.79126
2.87	276.24207
2.8705	271.50879
2.871	264.96277
2.8715	249.15161
2.872	232.33337
2.8725	220.75195
2.873	217.32788
2.8735	220.65125
2.874	212.09106
2.8745	155.49316
2.875	90.33508
2.8755	70.59631
2.876	60.12268
2.8765	33.43506
2.877	-10.67505
2.8775	-40.2832
2.878	-58.81348
2.8785	-62.23755
2.879	-78.65295
2.8795	-166.77246
2.88	-222.96753
2.8805	-240.08789
2.881	-216.72363
2.8815	-191.54663
2.882	-151.56555
2.8825	-110.47668
2.883	-66.56799
2.8835	-46.32568
2.884	-9.36584
2.8845	19.13452
2.885	37.26196
2.8855	29.20532
2.886	16.71753
2.8865	6.64673
2.887	15.60974
2.8875	42.29736
2.888	35.85205
2.8885	31.82373
2.889	20.94727
2.8895	-38.16833
2.89	-114.30359
2.8905	-168.38379
2.891	-228.00293
2.8915	-231.32629
2.892	-200.81177
2.8925	-135.25085
2.893	-71.20056
2.8935	-23.06213
2.894	16.81824
2.8945	46.92993
2.895	77.64587
2.8955	70.09277
2.896	-2.81982
2.8965	-62.8418
2.897	-101.9165
2.8975	-106.44836
2.898	-85.5011
2.8985	-46.5271
2.899	-7.5531
2.8995	50.55542
2.9	108.46252
2.9005	128.40271
2.901	143.81104
2.9015	148.84644
2.902	151.76697
2.9025	138.07068
2.903	71.30127
2.9035	2.81982
2.904	-50.65613
2.9045	-118.83545
2.905	-175.43335
2.9055	-209.27124
2.906	-228.80859
2.9065	-234.54895
2.907	-204.13513
2.9075	-195.97778
2.908	-174.12415
2.9085	-139.07776
2.909	-155.9967
2.9095	-205.64575
2.91	-362.64954
2.9105	-508.87756
2.911	-545.53528
2.9115	-472.21985
2.912	-352.1759
2.9125	-248.24524
2.913	-79.86145
2.9135	116.41846
2.914	307.26013
2.9145	478.66516
2.915	595.38574
2.9155	657.92542
2.916	689.54773
2.9165	685.21729
2.917	618.64929
2.9175	530.12695
2.918	453.68958
2.9185	408.97522
2.919	361.23962
2.9195	290.5426
2.92	203.7323
2.9205	160.42786
2.921	136.76147
2.9215	107.65686
2.922	70.49561
2.9225	49.0448
2.923	35.34851
2.9235	27.39258
2.924	11.17859
2.9245	-6.64673
2.925	-52.36816
2.9255	-123.97156
2.926	-272.41516
2.9265	-397.3938
2.927	-512.10022
2.9275	-686.32507
2.928	-906.47278
2.9285	-1005.87158
2.929	-976.06201
2.9295	-832.95593
2.93	-637.07886
2.9305	-419.04602
2.931	-214.00452
2.9315	-61.33118
2.932	-37.66479
2.9325	-105.94482
2.933	-131.92749
2.9335	-113.39722
2.934	-45.52002
2.9345	96.07544
2.935	287.62207
2.9355	530.63049
2.936	701.12915
2.9365	702.23694
2.937	637.68311
2.9375	599.01123
2.938	582.59583
2.9385	555.20325
2.939	493.06641
2.9395	388.83362
2.94	119.94324
2.9405	-177.85034
2.941	-381.17981
2.9415	-518.1427
2.942	-538.48572
2.9425	-466.5802
2.943	-338.98315
2.9435	-191.44592
2.944	-41.39099
2.9445	95.97473
2.945	197.18628
2.9455	266.07056
2.946	295.578
2.9465	314.4104
2.947	339.68811
2.9475	408.57239
2.948	483.59985
2.9485	488.23242
2.949	491.35437
2.9495	481.98853
2.95	417.83752
2.9505	324.4812
2.951	239.08081
2.9515	169.29016
2.952	125.7843
2.9525	65.86304
2.953	-18.8324
2.9535	-89.83154
2.954	-121.25244
2.9545	-129.5105
2.955	-130.8197
2.9555	-146.32874
2.956	-171.60645
2.9565	-256.80542
2.957	-310.5835
2.9575	-330.02014
2.958	-338.68103
2.9585	-323.37341
2.959	-264.0564
2.9595	-152.06909
2.96	-42.7002
2.9605	58.61206
2.961	104.03137
2.9615	101.11084
2.962	65.56091
2.9625	-12.68921
2.963	-87.31384
2.9635	-120.7489
2.964	-115.31067
2.9645	-121.45386
2.965	-83.68835
2.9655	-20.24231
2.966	-4.83398
2.9665	-4.43115
2.967	-75.02747
2.9675	-180.36804
2.968	-225.58594
2.9685	-223.26965
2.969	-175.73547
2.9695	-147.33582
2.97	-208.36487
2.9705	-306.35376
2.971	-443.71948
2.9715	-526.40076
2.972	-630.33142
2.9725	-584.60999
2.973	-437.57629
2.9735	-222.86682
2.974	39.07471
2.9745	198.09265
2.975	302.52686
2.9755	428.31116
2.976	495.08057
2.9765	543.42041
2.977	608.37708
2.9775	632.04346
2.978	654.40063
2.9785	623.98682
2.979	578.86963
2.9795	546.13953
2.98	489.94446
2.9805	395.37964
2.981	294.2688
2.9815	233.23975
2.982	199.9054
2.9825	182.78503
2.983	151.16272
2.9835	73.11401
2.984	-34.74426
2.9845	-225.78735
2.985	-340.7959
2.9855	-378.25928
2.986	-525.89722
2.9865	-616.93726
2.987	-607.87354
2.9875	-515.82642
2.988	-386.61804
2.9885	-254.79126
2.989	-151.56555
2.9895	-54.18091
2.99	51.15967
2.9905	151.16272
2.991	207.15637
2.9915	258.41675
2.992	331.63147
2.9925	363.55591
2.993	356.60706
2.9935	306.25305
2.994	235.75745
2.9945	170.70007
2.995	146.53015
2.9955	147.1344
2.996	157.30591
2.9965	167.37671
2.997	189.53247
2.9975	173.21777
2.998	75.32959
2.9985	-60.3241
2.999	-178.05176
2.9995	-237.36877
3	-240.39001
3.0005	-200.0061
3.001	-173.62061
3.0015	-138.97705
3.002	-91.24146
3.0025	-64.25171
3.003	-39.47754
3.0035	-5.23682
3.004	37.06055
3.0045	43.80798
3.005	65.66162
3.0055	93.15491
3.006	99.70093
3.0065	129.00696
3.007	147.63794
3.0075	94.96765
3.008	20.54443
3.0085	-27.09045
3.009	-120.34607
3.0095	-232.73621
3.01	-371.20972
3.0105	-628.31726
3.011	-1173.55042
3.0115	-1737.91809
3.012	-1972.97058
3.0125	-2006.50635
3.013	-1782.83386
3.0135	-1448.08044
3.014	-1092.27905
3.0145	-651.58081
3.015	-175.63477
3.0155	225.18311
3.016	585.71777
3.0165	853.39966
3.017	961.96289
3.0175	1069.92188
3.018	1178.98865
3.0185	1278.89099
3.019	1322.49756
3.0195	1322.29614
3.02	1310.31189
3.0205	1160.45837
3.021	933.86536
3.0215	761.75537
3.022	630.93567
3.0225	536.57227
3.023	442.30957
3.0235	387.323
3.024	385.91309
3.0245	411.49292
3.025	391.35132
3.0255	290.64331
3.026	156.60095
3.0265	84.09119
3.027	41.59241
3.0275	27.6947
3.028	19.53735
3.0285	0.40283
3.029	-25.98267
3.0295	-42.39807
3.03	-73.61755
3.0305	-137.76855
3.031	-409.07593
3.0315	-645.73975
3.032	-736.27625
3.0325	-697.40295
3.033	-584.20715
3.0335	-443.61877
3.034	-286.51428
3.0345	-145.01953
3.035	-276.74561
3.0355	-453.38745
3.036	-527.005
3.0365	-504.54712
3.037	-397.29309
3.0375	-283.79517
3.038	-243.91479
3.0385	-260.12878
3.039	-291.85181
3.0395	-259.021
3.04	-173.92273
3.0405	-64.35242
3.041	36.65771
3.0415	186.1084
3.042	336.56616
3.0425	491.7572
3.043	587.73193
3.0435	532.54395
3.044	481.38428
3.0445	384.8053
3.045	318.74084
3.0455	335.96191
3.046	386.41663
3.0465	392.86194
3.047	380.17273
3.0475	392.55981
3.048	430.62744
3.0485	433.24585
3.049	398.90442
3.0495	360.83679
3.05	323.67554
3.0505	209.87549
3.051	110.87952
3.0515	43.70728
3.052	-6.74744
3.0525	-68.78357
3.053	-288.52844
3.0535	-770.01343
3.054	-1088.65356
3.0545	-1153.50952
3.055	-1048.47107
3.0555	-849.16992
3.056	-615.62805
3.0565	-360.53467
3.057	-120.95032
3.0575	85.90393
3.058	283.49304
3.0585	458.42285
3.059	579.07104
3.0595	658.83179
3.06	698.0072
3.0605	709.89075
3.061	729.93164
3.0615	715.5304
3.062	615.22522
3.0625	453.9917
3.063	337.67395
3.0635	268.48755
3.064	205.14221
3.0645	144.11316
3.065	101.51367
3.0655	69.28711
3.066	20.54443
3.0665	-26.3855
3.067	-75.63171
3.0675	-157.91016
3.068	-349.85962
3.0685	-509.2804
3.069	-555.30396
3.0695	-522.57385
3.07	-410.28442
3.0705	-299.90845
3.071	-185.20203
3.0715	-104.53491
3.072	-37.56409
3.0725	16.71753
3.073	36.15417
3.0735	-8.25806
3.074	-32.83081
3.0745	-55.2887
3.075	-83.58765
3.0755	-208.96912
3.076	-303.33252
3.0765	-344.92493
3.077	-287.52136
3.0775	-197.99194
3.078	-158.61511
3.0785	-104.3335
3.079	-0.90637
3.0795	127.39563
3.08	195.97778
3.0805	186.00769
3.081	143.71033
3.0815	85.80322
3.082	8.66089
3.0825	-31.72302
3.083	-101.11084
3.0835	-171.0022
3.084	-220.44983
3.0845	-319.4458
3.085	-566.98608
3.0855	-697.60437
3.086	-650.1709
3.0865	-564.16626
3.087	-367.68494
3.0875	-193.76221
3.088	-155.49316
3.0885	-227.39868
3.089	-291.7511
3.0895	-380.57556
3.09	-362.2467
3.0905	-319.24438
3.091	-185.70557
3.0915	33.9386
3.092	255.19409
3.0925	479.26941
3.093	665.78064
3.0935	791.56494
3.094	850.177
3.0945	864.27612
3.095	853.29895
3.0955	856.52161
3.096	905.36499
3.0965	925.6073
3.097	839.30054
3.0975	646.64612
3.098	454.89807
3.0985	295.98083
3.099	174.8291
3.0995	107.35474
3.1	50.95825
3.1005	28.70178
3.101	45.72144
3.1015	66.76941
3.102	78.04871
3.1025	70.99915
3.103	55.59082
3.1035	45.3186
3.104	21.04797
3.1045	23.8678
3.105	31.52161
3.1055	37.86621
3.106	21.45081
3.1065	-14.30054
3.107	-49.0448
3.1075	-94.2627
3.108	-119.23828
3.1085	-251.4679
3.109	-413.30566
3.1095	-523.68164
3.11	-667.39197
3.1105	-725.39978
3.111	-745.33997
3.1115	-755.20935
3.112	-753.39661
3.1125	-754.10156
3.113	-793.17627
3.1135	-717.14172
3.114	-558.82874
3.1145	-402.22778
3.115	-282.48596
3.1155	-241.90063
3.116	-155.79529
3.1165	-91.04004
3.117	-2.5177
3.1175	95.5719
3.118	250.56152
3.1185	416.42761
3.119	574.33777
3.1195	706.46667
3.12	742.82227
3.1205	755.8136
3.121	719.76013
3.1215	627.20947
3.122	535.16235
3.1225	502.23083
3.123	531.9397
3.1235	516.73279
3.124	442.10815
3.1245	338.88245
3.125	224.07532
3.1255	149.14856
3.126	105.94482
3.1265	47.33276
3.127	-13.09204
3.1275	-82.27844
3.128	-415.11841
3.1285	-927.42004
3.129	-1321.69189
3.1295	-1469.73267
3.13	-1399.94202
3.1305	-1152.70386
3.131	-804.25415
3.1315	-432.03735
3.132	-64.65454
3.1325	259.62524
3.133	525.39368
3.1335	697.40295
3.134	813.62
3.1345	863.47046
3.135	824.49646
3.1355	770.81909
3.136	719.45801
3.1365	668.49976
3.137	565.07263
3.1375	447.7478
3.138	264.25781
3.1385	95.97473
3.139	42.90161
3.1395	46.02356
3.14	39.07471
3.1405	44.0094
3.141	76.33667
3.1415	101.71509
3.142	110.98022
3.1425	109.57031
3.143	101.21155
3.1435	66.97083
3.144	3.7262
3.1445	-36.65771
3.145	-96.27686
3.1455	-133.74023
3.146	-130.31616
3.1465	-112.08801
3.147	-132.53174
3.1475	-211.18469
3.148	-237.16736
3.1485	-226.89514
3.149	-201.61743
3.1495	-137.66785
3.15	-96.67969
3.1505	-67.07153
3.151	-155.19104
3.1515	-302.52686
3.152	-425.59204
3.1525	-614.31885
3.153	-666.68701
3.1535	-609.68628
3.154	-452.58179
3.1545	-269.49463
3.155	-92.04712
3.1555	44.21082
3.156	113.69934
3.1565	194.16504
3.157	305.5481
3.1575	371.10901
3.158	351.97449
3.1585	297.995
3.159	286.51428
3.1595	292.55676
3.16	217.42859
3.1605	125.48218
3.161	49.95117
3.1615	8.7616
3.162	25.47913
3.1625	88.72375
3.163	66.87012
3.1635	-96.37756
3.164	-297.49146
3.1645	-508.57544
3.165	-835.37292
3.1655	-1136.08704
3.166	-1255.42603
3.1665	-1151.59607
3.167	-947.96448
3.1675	-645.84045
3.168	-620.15991
3.1685	-751.28174
3.169	-702.23694
3.1695	-473.42834
3.17	-73.21472
3.1705	364.46228
3.171	720.76721
3.1715	1046.85974
3.172	1351.70288
3.1725	1532.67517
3.173	1562.18262
3.1735	1429.85229
3.174	1241.02478
3.1745	1034.87549
3.175	848.96851
3.1755	729.62952
3.176	640.70435
3.1765	507.56836
3.177	333.34351
3.1775	221.45691
3.178	169.08875
3.1785	156.50024
3.179	122.96448
3.1795	72.61047
3.18	44.0094
3.1805	-2.11487
3.181	-103.82996
3.1815	-172.81494
3.182	-251.66931
3.1825	-317.63306
3.183	-344.32068
3.1835	-380.37415
3.184	-404.04053
3.1845	-463.86108
3.185	-472.21985
3.1855	-425.79346
3.186	-347.44263
3.1865	-301.92261
3.187	-289.2334
3.1875	-245.62683
3.188	-168.58521
3.1885	-90.13367
3.189	-9.46655
3.1895	41.99524
3.19	98.59314
3.1905	231.62842
3.191	335.55908
3.1915	331.73218
3.192	300.00916
3.1925	247.84241
3.193	203.22876
3.1935	214.50806
3.194	221.45691
3.1945	203.22876
3.195	122.66235
3.1955	71.09985
3.196	78.95508
3.1965	20.64514
3.197	-64.85596
3.1975	-137.96997
3.198	-131.02112
3.1985	-88.62305
3.199	-126.58997
3.1995	-195.17212
3.2	-317.93518
3.2005	-446.64001
3.201	-545.53528
3.2015	-549.36218
3.202	-519.95544
3.2025	-568.4967
3.203	-720.6665
3.2035	-741.41235
3.204	-623.98682
3.2045	-408.7738
3.205	-194.9707
3.2055	1.3092
3.206	159.21936
3.2065	294.77234
3.207	327.50244
3.2075	328.81165
3.208	318.53943
3.2085	216.62292
3.209	140.68909
3.2095	214.81018
3.21	336.16333
3.2105	518.24341
3.211	693.17322
3.2115	707.07092
3.212	629.12292
3.2125	510.79102
3.213	422.47009
3.2135	338.98315
3.214	275.03357
3.2145	200.50964
3.215	108.46252
3.2155	16.11328
3.216	-116.82129
3.2165	-521.16394
3.217	-905.16357
3.2175	-1062.77161
3.218	-1036.38611
3.2185	-865.68604
3.219	-629.82788
3.2195	-348.24829
3.22	-58.81348
3.2205	174.92981
3.221	321.35925
3.2215	422.5708
3.222	514.71863
3.2225	586.52344
3.223	574.13635
3.2235	486.01685
3.224	442.91382
3.2245	334.75342
3.225	93.85986
3.2255	-81.17065
3.226	-210.98328
3.2265	-260.3302
3.227	-315.82031
3.2275	-349.05396
3.228	-328.40881
3.2285	-299.00208
3.229	-206.45142
3.2295	-126.28784
3.23	-53.27454
3.2305	65.05737
3.231	202.22168
3.2315	315.7196
3.232	424.68567
3.2325	570.10803
3.233	663.16223
3.2335	663.46436
3.234	588.43689
3.2345	474.03259
3.235	342.81006
3.2355	237.57019
3.236	111.58447
3.2365	-59.41772
3.237	-258.21533
3.2375	-580.48096
3.238	-876.5625
3.2385	-1103.15552
3.239	-1207.99255
3.2395	-1236.79504
3.24	-1152.20032
3.2405	-947.36023
3.241	-666.68701
3.2415	-337.0697
3.242	-20.1416
3.2425	163.34839
3.243	185.60486
3.2435	173.62061
3.244	235.25391
3.2445	235.65674
3.245	112.39014
3.2455	99.70093
3.246	163.04626
3.2465	275.63782
3.247	364.96582
3.2475	529.52271
3.248	721.27075
3.2485	850.07629
3.249	876.66321
3.2495	848.26355
3.25	845.64514
3.2505	853.70178
3.251	790.35645
3.2515	577.05688
3.252	249.85657
3.2525	20.24231
3.253	-135.55298
3.2535	-245.224
3.254	-240.28931
3.2545	-193.86292
3.255	-110.87952
3.2555	-18.12744
3.256	66.6687
3.2565	144.31458
3.257	197.79053
3.2575	226.08948
3.258	222.96753
3.2585	186.81335
3.259	178.15247
3.2595	157.10449
3.26	73.51685
3.2605	-45.2179
3.261	-122.05811
3.2615	-232.23267
3.262	-312.89978
3.2625	-290.84473
3.263	-243.61267
3.2635	-210.47974
3.264	-191.74805
3.2645	-147.83936
3.265	-87.91809
3.2655	-2.81982
3.266	29.91028
3.2665	-44.51294
3.267	-221.65833
3.2675	-377.95715
3.268	-399.30725
3.2685	-413.30566
3.269	-479.87366
3.2695	-468.39294
3.27	-407.26318
3.2705	-328.30811
3.271	-304.3396
3.2715	-435.46143
3.272	-479.1687
3.2725	-507.46765
3.273	-524.58801
3.2735	-480.57861
3.274	-333.14209
3.2745	-126.28784
3.275	101.9165
3.2755	187.61902
3.276	146.63086
3.2765	202.82593
3.277	308.77075
3.2775	424.68567
3.278	517.53845
3.2785	644.93408
3.279	746.95129
3.2795	748.36121
3.28	677.26135
3.2805	626.10168
3.281	585.41565
3.2815	461.84692
3.282	310.07996
3.2825	216.72363
3.283	127.29492
3.2835	1.91345
3.284	-258.41675
3.2845	-473.93188
3.285	-636.07178
3.2855	-658.02612
3.286	-646.24329
3.2865	-726.20544
3.287	-913.92517
3.2875	-1121.38367
3.288	-1122.18933
3.2885	-963.77563
3.289	-909.2926
3.2895	-802.74353
3.29	-544.5282
3.2905	-234.44824
3.291	26.68762
3.2915	286.21216
3.292	547.54944
3.2925	804.95911
3.293	896.50269
3.2935	854.10461
3.294	760.14404
3.2945	539.79492
3.295	356.70776
3.2955	184.79919
3.296	-172.71423
3.2965	-413.10425
3.297	-451.474
3.2975	-451.474
3.298	-413.20496
3.2985	-277.14844
3.299	-38.67188
3.2995	218.93921
3.3	450.97046
3.3005	645.84045
3.301	818.55469
3.3015	862.16125
3.302	720.86792
3.3025	612.4054
3.303	578.76892
3.3035	539.99634
3.304	537.37793
3.3045	525.79651
3.305	492.36145
3.3055	335.05554
3.306	111.08093
3.3065	-179.76379
3.307	-433.8501
3.3075	-532.34253
3.308	-477.05383
3.3085	-334.75342
3.309	-138.87634
3.3095	43.00232
3.31	104.03137
3.3105	-166.77246
3.311	-339.48669
3.3115	-498.60535
3.312	-997.51282
3.3125	-1391.18042
3.313	-1555.33447
3.3135	-1366.80908
3.314	-978.3783
3.3145	-500.41809
3.315	19.63806
3.3155	524.4873
3.316	946.25244
3.3165	1229.54407
3.317	1421.29211
3.3175	1481.31409
3.318	1443.44788
3.3185	1404.17175
3.319	1313.83667
3.3195	1120.07446
3.32	916.24146
3.3205	726.50757
3.321	562.75635
3.3215	436.46851
3.322	312.29553
3.3225	217.22717
3.323	122.86377
3.3235	10.17151
3.324	-113.49792
3.3245	-247.54028
3.325	-360.43396
3.3255	-519.04907
3.326	-608.6792
3.3265	-610.18982
3.327	-552.88696
3.3275	-457.91931
3.328	-341.50085
3.3285	-220.75195
3.329	-219.54346
3.3295	-250.15869
3.33	-248.64807
3.3305	-243.71338
3.331	-299.00208
3.3315	-278.35693
3.332	-185.60486
3.3325	-102.52075
3.333	-34.44214
3.3335	97.28394
3.334	154.18396
3.3345	194.87
3.335	234.54895
3.3355	262.14294
3.336	291.95251
3.3365	302.72827
3.337	289.63623
3.3375	255.59692
3.338	229.51355
3.3385	185.90698
3.339	79.76074
3.3395	-4.12903
3.34	-181.073
3.3405	-385.40955
3.341	-556.10962
3.3415	-617.84363
3.342	-599.51477
3.3425	-482.39136
3.343	-325.99182
3.3435	-126.28784
3.344	47.53418
3.3445	181.17371
3.345	157.40662
3.3455	8.45947
3.346	-52.36816
3.3465	-68.07861
3.347	-63.74817
3.3475	-59.61914
3.348	-15.71045
3.3485	63.44604
3.349	121.05103
3.3495	159.01794
3.35	153.27759
3.3505	102.31934
3.351	-44.11011
3.3515	-179.66309
3.352	-206.55212
3.3525	-166.87317
3.353	-50.05188
3.3535	38.67188
3.354	18.42957
3.3545	-84.99756
3.355	-135.75439
3.3555	-172.81494
3.356	-162.2406
3.3565	-134.34448
3.357	-42.29736
3.3575	122.86377
3.358	228.40576
3.3585	283.59375
3.359	339.88953
3.3595	435.66284
3.36	462.55188
3.3605	289.63623
3.361	-121.85669
3.3615	-417.23328
3.362	-694.38171
3.3625	-919.96765
3.363	-979.28467
3.3635	-882.8064
3.364	-645.43762
3.3645	-348.65112
3.365	-99.2981
3.3655	36.75842
3.366	93.65845
3.3665	160.52856
3.367	199.9054
3.3675	275.23499
3.368	403.43628
3.3685	504.74854
3.369	546.84448
3.3695	506.05774
3.37	354.5929
3.3705	199.09973
3.371	162.2406
3.3715	112.79297
3.372	73.11401
3.3725	127.39563
3.373	149.6521
3.3735	48.23914
3.374	-109.57031
3.3745	-285.5072
3.375	-339.5874
3.3755	-281.57959
3.376	-176.44043
3.3765	-145.42236
3.377	-250.46082
3.3775	-373.22388
3.378	-615.0238
3.3785	-650.97656
3.379	-583.70361
3.3795	-788.94653
3.38	-1043.13354
3.3805	-973.94714
3.381	-649.26453
3.3815	-173.31848
3.382	242.7063
3.3825	567.08679
3.383	862.06055
3.3835	1059.85107
3.384	1198.32458
3.3845	1271.4386
3.385	1201.84937
3.3855	1128.43323
3.386	1057.13196
3.3865	948.2666
3.387	849.87488
3.3875	719.76013
3.388	603.84521
3.3885	494.77844
3.389	342.81006
3.3895	217.5293
3.39	145.72449
3.3905	69.89136
3.391	-19.03381
3.3915	-47.53418
3.392	-332.94067
3.3925	-843.8324
3.393	-1123.69995
3.3935	-1189.16016
3.394	-1116.7511
3.3945	-956.52466
3.395	-700.02136
3.3955	-395.37964
3.396	-133.53882
3.3965	51.05896
3.397	146.42944
3.3975	235.05249
3.398	295.27588
3.3985	339.08386
3.399	367.98706
3.3995	396.78955
3.4	426.69983
3.4005	408.6731
3.401	327.90527
3.4015	204.33655
3.402	35.14709
3.4025	-104.63562
3.403	-218.53638
3.4035	-302.12402
3.404	-342.1051
3.4045	-365.06653
3.405	-337.67395
3.4055	-340.29236
3.406	-354.19006
3.4065	-436.26709
3.407	-562.65564
3.4075	-780.88989
3.408	-777.36511
3.4085	-629.62646
3.409	-373.72742
3.4095	-96.47827
3.41	97.38464
3.4105	354.49219
3.411	666.28418
3.4115	895.29419
3.412	978.17688
3.4125	1003.95813
3.413	972.03369
3.4135	890.3595
3.414	810.29663
3.4145	714.62402
3.415	602.53601
3.4155	447.54639
3.416	365.67078
3.4165	300.41199
3.417	224.37744
3.4175	148.94714
3.418	83.38623
3.4185	-36.65771
3.419	-97.88818
3.4195	-179.66309
3.42	-537.17651
3.4205	-1010.10132
3.421	-1240.72266
3.4215	-1221.28601
3.422	-1064.48364
3.4225	-794.38477
3.423	-483.39844
3.4235	-269.0918
3.424	-311.48987
3.4245	-473.52905
3.425	-547.24731
3.4255	-541.50696
3.426	-576.65405
3.4265	-530.12695
3.427	-375.94299
3.4275	-124.97864
3.428	155.896
3.4285	396.38672
3.429	603.54309
3.4295	761.85608
3.43	863.77258
3.4305	938.09509
3.431	1062.16736
3.4315	1209.40247
3.432	1112.31995
3.4325	848.26355
3.433	509.17969
3.4335	207.65991
3.434	-33.63647
3.4345	-201.91956
3.435	-277.75269
3.4355	-253.88489
3.436	-196.88416
3.4365	-116.01562
3.437	-83.48694
3.4375	20.34302
3.438	157.2052
3.4385	263.04932
3.439	300.31128
3.4395	305.95093
3.44	340.09094
3.4405	317.33093
3.441	187.31689
3.4415	47.33276
3.442	-91.34216
3.4425	-208.86841
3.443	-430.92957
3.4435	-519.55261
3.444	-505.05066
3.4445	-519.04907
3.445	-513.81226
3.4455	-399.20654
3.446	-268.28613
3.4465	-106.64978
3.447	22.45789
3.4475	103.32642
3.448	209.77478
3.4485	289.83765
3.449	297.29004
3.4495	186.71265
3.45	67.07153
3.4505	14.40125
3.451	-35.2478
3.4515	-157.50732
3.452	-509.78394
3.4525	-927.31934
3.453	-1441.33301
3.4535	-1542.94739
3.454	-1268.11523
3.4545	-808.78601
3.455	-320.05005
3.4555	134.94873
3.456	502.43225
3.4565	762.46033
3.457	613.61389
3.4575	238.9801
3.458	-12.99133
3.4585	-260.12878
3.459	-402.12708
3.4595	-405.45044
3.46	-287.72278
3.4605	-116.41846
3.461	-50.95825
3.4615	-2.81982
3.462	172.71423
3.4625	452.7832
3.463	647.85461
3.4635	779.88281
3.464	826.61133
3.4645	815.93628
3.465	657.32117
3.4655	485.51331
3.466	364.26086
3.4665	313.30261
3.467	354.49219
3.4675	373.32458
3.468	320.6543
3.4685	159.42078
3.469	105.44128
3.4695	140.18555
3.47	214.40735
3.4705	319.74792
3.471	459.22852
3.4715	603.03955
3.472	715.73181
3.4725	759.6405
3.473	702.23694
3.4735	613.21106
3.474	529.82483
3.4745	369.39697
3.475	171.40503
3.4755	-124.17297
3.476	-831.3446
3.4765	-1603.67432
3.477	-2128.46362
3.4775	-2548.61743
3.478	-2472.07935
3.4785	-2010.63538
3.479	-1371.34094
3.4795	-780.9906
3.48	-218.93921
3.4805	119.64111
3.481	267.07764
3.4815	457.7179
3.482	631.74133
3.4825	749.5697
3.483	870.62073
3.4835	1000.03052
3.484	1115.94543
3.4845	1156.73218
3.485	1094.39392
3.4855	967.40112
3.486	828.7262
3.4865	735.26917
3.487	658.22754
3.4875	592.66663
3.488	569.40308
3.4885	539.59351
3.489	481.28357
3.4895	387.52441
3.49	257.40967
3.4905	157.10449
3.491	88.62305
3.4915	37.66479
3.492	0.10071
3.4925	-30.51453
3.493	-74.02039
3.4935	-144.6167
3.494	-198.99902
3.4945	-227.19727
3.495	-243.41125
3.4955	-328.91235
3.496	-391.45203
3.4965	-452.7832
3.497	-592.56592
3.4975	-781.49414
3.498	-950.48218
3.4985	-1115.24048
3.499	-1192.08069
3.4995	-1149.17908
3.5	-1187.85095
3.5005	-1110.20508
3.501	-894.89136
3.5015	-639.39514
3.502	-280.77393
3.5025	-68.88428
3.503	68.88428
3.5035	250.66223
3.504	480.17578
3.5045	710.495
3.505	861.35559
3.5055	912.41455
3.506	967.30042
3.5065	1031.14929
3.507	1136.48987
3.5075	1007.48291
3.508	758.53271
3.5085	579.87671
3.509	479.87366
3.5095	354.5929
3.51	294.87305
3.5105	281.98242
3.511	244.11621
3.5115	229.71497
3.512	237.36877
3.5125	231.82983
3.513	195.87708
3.5135	57.20215
3.514	-248.24524
3.5145	-688.64136
3.515	-1159.24988
3.5155	-1382.41882
3.516	-1331.56128
3.5165	-1087.74719
3.517	-867.29736
3.5175	-597.09778
3.518	-261.23657
3.5185	-94.66553
3.519	28.09753
3.5195	166.57104
3.52	305.04456
3.5205	460.53772
3.521	589.34326
3.5215	703.94897
3.522	781.99768
3.5225	766.79077
3.523	422.87292
3.5235	140.68909
3.524	81.17065
3.5245	181.073
3.525	261.6394
3.5255	243.51196
3.526	272.01233
3.5265	302.02332
3.527	319.14368
3.5275	356.60706
3.528	357.41272
3.5285	308.26721
3.529	224.17603
3.5295	144.11316
3.53	42.8009
3.5305	-129.00696
3.531	-328.71094
3.5315	-516.43066
3.532	-708.78296
3.5325	-817.14478
3.533	-756.92139
3.5335	-605.75867
3.534	-475.4425
3.5345	-432.84302
3.535	-611.59973
3.5355	-791.46423
3.536	-743.42651
3.5365	-609.18274
3.537	-392.86194
3.5375	-151.26343
3.538	-48.23914
3.5385	77.34375
3.539	205.94788
3.5395	278.65906
3.54	258.31604
3.5405	185.30273
3.541	45.52002
3.5415	47.13135
3.542	180.77087
3.5425	348.24829
3.543	478.76587
3.5435	493.06641
3.544	424.98779
3.5445	425.49133
3.545	428.71399
3.5455	209.87549
3.546	-30.61523
3.5465	-150.35706
3.547	-105.44128
3.5475	-15.00549
3.548	23.66638
3.5485	131.72607
3.549	273.22083
3.5495	259.42383
3.55	289.13269
3.5505	356.30493
3.551	275.53711
3.5515	156.19812
3.552	33.33435
3.5525	-107.15332
3.553	-234.54895
3.5535	-365.77148
3.554	-559.73511
3.5545	-838.49487
3.555	-977.47192
3.5555	-860.04639
3.556	-603.14026
3.5565	-327.20032
3.557	-116.72058
3.5575	65.25879
3.558	240.89355
3.5585	387.62512
3.559	501.32446
3.5595	629.42505
3.56	696.49658
3.5605	695.99304
3.561	684.81445
3.5615	676.15356
3.562	707.07092
3.5625	670.21179
3.563	549.36218
3.5635	379.06494
3.564	176.0376
3.5645	17.6239
3.565	-112.08801
3.5655	-238.27515
3.566	-340.49377
3.5665	-452.98462
3.567	-475.14038
3.5675	-399.50867
3.568	-271.71021
3.5685	-169.08875
3.569	-143.71033
3.5695	-87.41455
3.57	-103.82996
3.5705	-197.79053
3.571	-276.84631
3.5715	-348.04688
3.572	-378.05786
3.5725	-374.53308
3.573	-517.84058
3.5735	-841.91895
3.574	-1210.71167
3.5745	-1261.26709
3.575	-1135.07996
3.5755	-791.56494
3.576	-358.31909
3.5765	117.12341
3.577	598.91052
3.5775	1016.04309
3.578	1291.88232
3.5785	1411.92627
3.579	1396.82007
3.5795	1249.98779
3.58	1129.3396
3.5805	1029.03442
3.581	903.75366
3.5815	756.71997
3.582	589.54468
3.5825	455.40161
3.583	371.0083
3.5835	244.41833
3.584	24.37134
3.5845	-145.32166
3.585	-243.91479
3.5855	-274.02649
3.586	-274.53003
3.5865	-261.74011
3.587	-248.74878
3.5875	-268.78967
3.588	-320.15076
3.5885	-377.05078
3.589	-546.64307
3.5895	-829.22974
3.59	-1207.38831
3.5905	-1355.7312
3.591	-1269.02161
3.5915	-1013.42468
3.592	-835.0708
3.5925	-664.16931
3.593	-401.12
3.5935	-198.19336
3.594	-261.84082
3.5945	-606.96716
3.595	-823.28796
3.5955	-760.74829
3.596	-612.80823
3.5965	-437.57629
3.597	-23.56567
3.5975	423.67859
3.598	790.15503
3.5985	946.05103
3.599	819.76318
3.5995	363.75732
3.6	87.51526
3.6005	-70.29419
3.601	-59.41772
3.6015	98.59314
3.602	301.01624
3.6025	224.37744
3.603	214.81018
3.6035	356.50635
3.604	585.01282
3.6045	865.48462
3.605	1072.13745
3.6055	1115.13977
3.606	1064.68506
3.6065	1018.6615
3.607	849.37134
3.6075	714.42261
3.608	573.33069
3.6085	461.74622
3.609	371.61255
3.6095	222.66541
3.61	92.75208
3.6105	-33.83789
3.611	-139.78271
3.6115	-202.12097
3.612	-233.34045
3.6125	-359.729
3.613	-444.92798
3.6135	-364.6637
3.614	-230.01709
3.6145	-134.84802
3.615	-40.98816
3.6155	60.92834
3.616	116.82129
3.6165	-70.99915
3.617	-536.37085
3.6175	-1185.83679
3.618	-2122.32056
3.6185	-2948.22681
3.619	-3186.30054
3.6195	-2965.85083
3.62	-2619.9187
3.6205	-2525.85742
3.621	-2198.15356
3.6215	-1530.5603
3.622	-782.60193
3.6225	-105.54199
3.623	222.96753
3.6235	490.24658
3.624	670.91675
3.6245	323.27271
3.625	-292.95959
3.6255	-266.07056
3.626	127.99988
3.6265	640.70435
3.627	1165.89661
3.6275	1751.51367
3.628	2321.21875
3.6285	2734.22241
3.629	2805.7251
3.6295	2783.26709
3.63	2706.82983
3.6305	2521.12427
3.631	2294.32983
3.6315	2062.39917
3.632	1639.62708
3.6325	1177.47803
3.633	663.56506
3.6335	59.92126
3.634	-455.3009
3.6345	-809.39026
3.635	-980.79529
3.6355	-986.73706
3.636	-927.72217
3.6365	-795.99609
3.637	-712.50916
3.6375	-519.75403
3.638	-535.96802
3.6385	-766.18652
3.639	-1129.54102
3.6395	-1417.66663
3.64	-1300.54321
3.6405	-883.20923
3.641	-275.63782
3.6415	396.38672
3.642	950.07935
3.6425	1329.54712
3.643	1491.5863
3.6435	1493.09692
3.644	1442.84363
3.6445	1344.25049
3.645	1258.95081
3.6455	1213.53149
3.646	1143.64014
3.6465	1017.35229
3.647	913.82446
3.6475	745.33997
3.648	621.16699
3.6485	512.50305
3.649	394.97681
3.6495	284.80225
3.65	249.25232
3.6505	219.64417
3.651	145.9259
3.6515	65.76233
3.652	-34.94568
3.6525	-115.31067
3.653	-163.85193
3.6535	-236.66382
3.654	-436.87134
3.6545	-594.07654
3.655	-655.40771
3.6555	-680.68542
3.656	-723.0835
3.6565	-816.74194
3.657	-871.02356
3.6575	-918.65845
3.658	-1042.32788
3.6585	-1068.31055
3.659	-956.62537
3.6595	-770.01343
3.66	-566.18042
3.6605	-379.46777
3.661	-225.28381
3.6615	-189.9353
3.662	-169.49158
3.6625	-97.98889
3.663	30.31311
3.6635	96.47827
3.664	126.69067
3.6645	207.86133
3.665	75.32959
3.6655	-85.80322
3.666	-107.15332
3.6665	33.73718
3.667	176.13831
3.6675	246.4325
3.668	228.60718
3.6685	199.50256
3.669	51.26038
3.6695	-191.04309
3.67	-392.05627
3.6705	-497.29614
3.671	-580.17883
3.6715	-529.11987
3.672	-503.54004
3.6725	-637.07886
3.673	-636.67603
3.6735	-889.65454
3.674	-1310.51331
3.6745	-1611.12671
3.675	-1773.56873
3.6755	-2063.60767
3.676	-2082.03735
3.6765	-2289.99927
3.677	-2510.85205
3.6775	-2171.46606
3.678	-1440.52734
3.6785	-565.67688
3.679	314.81323
3.6795	1073.24524
3.68	1557.04651
3.6805	1658.15735
3.681	1653.12195
3.6815	1614.45007
3.682	1534.08508
3.6825	1413.94043
3.683	1422.60132
3.6835	1494.80896
3.684	1569.63501
3.6845	1578.59802
3.685	1582.42493
3.6855	1548.58704
3.686	1507.80029
3.6865	1398.02856
3.687	1213.6322
3.6875	1077.37427
3.688	968.50891
3.6885	821.47522
3.689	645.33691
3.6895	409.37805
3.69	320.05005
3.6905	77.14233
3.691	-299.10278
3.6915	-579.07104
3.692	-867.49878
3.6925	-1049.17603
3.693	-1272.44568
3.6935	-1354.32129
3.694	-1180.9021
3.6945	-880.18799
3.695	-497.59827
3.6955	-120.54749
3.696	237.6709
3.6965	482.18994
3.697	443.61877
3.6975	193.25867
3.698	66.06445
3.6985	72.71118
3.699	102.31934
3.6995	-141.49475
3.7	-628.8208
3.7005	-1078.28064
3.701	-1444.45496
3.7015	-1485.64453
3.702	-1200.03662
3.7025	-741.11023
3.703	-167.77954
3.7035	412.80212
3.704	975.8606
3.7045	1431.36292
3.705	1685.04639
3.7055	1707.9071
