Marco_Margarita_Right_1.c3d  



Time(s):	B_L_bicipite(μV):
0	21.95435
0.0005	21.24939
0.001	25.07629
0.0015	25.68054
0.002	26.18408
0.0025	19.83948
0.003	16.51611
0.0035	6.84814
0.004	7.75452
0.0045	1.3092
0.005	-0.90637
0.0055	-0.30212
0.006	-1.51062
0.0065	-4.63257
0.007	-6.84814
0.0075	-9.46655
0.008	-6.44531
0.0085	-9.16443
0.009	-3.62549
0.0095	1.81274
0.01	-0.40283
0.0105	3.62549
0.011	-4.22974
0.0115	-0.20142
0.012	-7.15027
0.0125	-8.66089
0.013	-13.99841
0.0135	-10.87646
0.014	-9.06372
0.0145	-11.2793
0.015	-7.45239
0.0155	-7.5531
0.016	-2.01416
0.0165	2.01416
0.017	2.41699
0.0175	0.10071
0.018	1.3092
0.0185	6.74744
0.019	4.02832
0.0195	12.28638
0.02	13.99841
0.0205	21.3501
0.021	24.87488
0.0215	20.74585
0.022	27.79541
0.0225	22.25647
0.023	25.27771
0.0235	25.47913
0.024	28.80249
0.0245	23.76709
0.025	12.78992
0.0255	3.62549
0.026	-5.0354
0.0265	-19.43665
0.027	-19.53735
0.0275	-20.24231
0.028	-17.42249
0.0285	-8.15735
0.029	-2.11487
0.0295	-4.22974
0.03	-11.88354
0.0305	-5.84106
0.031	-0.60425
0.0315	-2.41699
0.032	-5.23682
0.0325	-0.60425
0.033	-0.90637
0.0335	14.50195
0.034	12.18567
0.0345	18.42957
0.035	21.14868
0.0355	29.80957
0.036	35.14709
0.0365	33.23364
0.037	28.9032
0.0375	29.10461
0.038	37.06055
0.0385	31.4209
0.039	22.05505
0.0395	17.12036
0.04	17.22107
0.0405	13.49487
0.041	9.26514
0.0415	17.01965
0.042	0.40283
0.0425	-1.81274
0.043	-4.73328
0.0435	11.68213
0.044	21.45081
0.0445	33.23364
0.045	27.09045
0.0455	26.3855
0.046	19.03381
0.0465	8.25806
0.047	7.25098
0.0475	3.52478
0.048	-0.40283
0.0485	-0.40283
0.049	3.12195
0.0495	-6.94885
0.05	-14.40125
0.0505	-15.40833
0.051	-10.17151
0.0515	-4.93469
0.052	2.21558
0.0525	0.20142
0.053	3.62549
0.0535	11.88354
0.054	13.59558
0.0545	14.80408
0.055	8.56018
0.0555	7.15027
0.056	2.81982
0.0565	-1.00708
0.057	-3.7262
0.0575	-2.31628
0.058	-1.2085
0.0585	4.33044
0.059	1.71204
0.0595	0.10071
0.06	-16.71753
0.0605	-34.74426
0.061	-42.8009
0.0615	-43.60657
0.062	-41.18958
0.0625	-33.03223
0.063	-29.10461
0.0635	-27.09045
0.064	-18.53027
0.0645	-7.25098
0.065	6.2439
0.0655	16.91895
0.066	24.77417
0.0665	26.78833
0.067	18.73169
0.0675	12.38708
0.068	-11.58142
0.0685	-31.62231
0.069	-47.43347
0.0695	-70.19348
0.07	-75.12817
0.0705	-70.29419
0.071	-69.38782
0.0715	-52.56958
0.072	-30.2124
0.0725	-20.44373
0.073	-17.32178
0.0735	0.50354
0.074	7.5531
0.0745	16.21399
0.075	24.97559
0.0755	34.24072
0.076	39.17542
0.0765	31.32019
0.077	32.32727
0.0775	38.47046
0.078	49.44763
0.0785	60.72693
0.079	68.38074
0.0795	73.01331
0.08	65.66162
0.0805	60.02197
0.081	51.05896
0.0815	54.48303
0.082	54.48303
0.0825	50.95825
0.083	39.77966
0.0835	29.91028
0.084	20.1416
0.0845	18.02673
0.085	17.42249
0.0855	11.48071
0.086	-0.30212
0.0865	-12.99133
0.087	-13.59558
0.0875	-21.04797
0.088	-26.18408
0.0885	-27.09045
0.089	-28.50037
0.0895	-29.10461
0.09	-26.48621
0.0905	-24.16992
0.091	-19.94019
0.0915	-7.5531
0.092	3.12195
0.0925	0.70496
0.093	9.56726
0.0935	8.25806
0.094	10.17151
0.0945	29.30603
0.095	41.59241
0.0955	43.40515
0.096	42.09595
0.0965	36.15417
0.097	30.61523
0.0975	18.93311
0.098	21.04797
0.0985	17.92603
0.099	11.98425
0.0995	7.5531
0.1	7.45239
0.1005	6.44531
0.101	6.74744
0.1015	6.2439
0.102	7.75452
0.1025	3.02124
0.103	5.0354
0.1035	-6.3446
0.104	-5.63965
0.1045	-8.66089
0.105	-13.39417
0.1055	-20.64514
0.106	-48.74268
0.1065	-66.06445
0.107	-71.09985
0.1075	-54.48303
0.108	-44.31152
0.1085	-27.09045
0.109	-7.95593
0.1095	1.40991
0.11	11.2793
0.1105	22.55859
0.111	28.39966
0.1115	36.4563
0.112	34.44214
0.1125	36.35559
0.113	36.95984
0.1135	33.33435
0.114	31.21948
0.1145	24.27063
0.115	22.76001
0.1155	20.34302
0.116	13.49487
0.1165	8.15735
0.117	1.81274
0.1175	-2.5177
0.118	10.47363
0.1185	20.54443
0.119	22.05505
0.1195	25.27771
0.12	20.34302
0.1205	14.90479
0.121	15.20691
0.1215	15.30762
0.122	2.11487
0.1225	-11.38
0.123	-5.43823
0.1235	-1.71204
0.124	-5.84106
0.1245	-21.95435
0.125	-42.39807
0.1255	-69.28711
0.126	-113.80005
0.1265	-143.4082
0.127	-139.48059
0.1275	-121.05103
0.128	-97.78748
0.1285	-66.16516
0.129	-36.05347
0.1295	-6.54602
0.13	11.68213
0.1305	45.3186
0.131	58.41064
0.1315	74.02039
0.132	87.21313
0.1325	91.34216
0.133	93.35632
0.1335	94.96765
0.134	101.31226
0.1345	122.86377
0.135	122.96448
0.1355	102.31934
0.136	77.04163
0.1365	62.64038
0.137	63.54675
0.1375	67.37366
0.138	67.07153
0.1385	66.6687
0.139	58.51135
0.1395	49.34692
0.14	42.29736
0.1405	35.65063
0.141	18.63098
0.1415	8.25806
0.142	-0.80566
0.1425	-6.94885
0.143	-9.76868
0.1435	-17.92603
0.144	-19.73877
0.1445	-16.91895
0.145	-15.30762
0.1455	-15.71045
0.146	-9.76868
0.1465	-9.66797
0.147	-9.06372
0.1475	-12.78992
0.148	-10.27222
0.1485	-9.97009
0.149	-12.99133
0.1495	-9.36584
0.15	-8.25806
0.1505	-8.15735
0.151	-8.45947
0.1515	0
0.152	3.32336
0.1525	-8.05664
0.153	-3.52478
0.1535	1.2085
0.154	5.84106
0.1545	2.81982
0.155	-5.53894
0.1555	-10.77576
0.156	-11.17859
0.1565	-11.68213
0.157	-10.0708
0.1575	-8.56018
0.158	0
0.1585	1.91345
0.159	-6.04248
0.1595	-5.94177
0.16	-4.53186
0.1605	2.81982
0.161	-7.04956
0.1615	-28.60107
0.162	-50.15259
0.1625	-61.93542
0.163	-61.43188
0.1635	-53.27454
0.164	-45.41931
0.1645	-26.68762
0.165	-31.92444
0.1655	-56.29578
0.166	-52.26746
0.1665	-44.11011
0.167	-33.23364
0.1675	-18.42957
0.168	-9.86938
0.1685	-4.73328
0.169	2.11487
0.1695	13.39417
0.17	8.8623
0.1705	14.60266
0.171	22.76001
0.1715	24.67346
0.172	17.92603
0.1725	5.63965
0.173	-12.99133
0.1735	-25.07629
0.174	-34.64355
0.1745	-57.10144
0.175	-70.19348
0.1755	-68.17932
0.176	-39.07471
0.1765	-17.01965
0.177	1.00708
0.1775	14.40125
0.178	33.9386
0.1785	53.97949
0.179	46.82922
0.1795	23.56567
0.18	13.19275
0.1805	8.7616
0.181	11.07788
0.1815	35.95276
0.182	65.96375
0.1825	87.81738
0.183	101.21155
0.1835	103.62854
0.184	99.19739
0.1845	92.14783
0.185	78.14941
0.1855	64.25171
0.186	53.47595
0.1865	43.80798
0.187	37.7655
0.1875	32.52869
0.188	34.84497
0.1885	33.33435
0.189	28.39966
0.1895	9.26514
0.19	-18.32886
0.1905	-45.82214
0.191	-48.23914
0.1915	-36.05347
0.192	-21.65222
0.1925	-8.15735
0.193	10.17151
0.1935	20.34302
0.194	29.50745
0.1945	35.04639
0.195	37.26196
0.1955	40.68604
0.196	40.2832
0.1965	34.03931
0.197	43.50586
0.1975	32.93152
0.198	35.44922
0.1985	29.70886
0.199	27.19116
0.1995	22.96143
0.2	26.18408
0.2005	22.35718
0.201	22.15576
0.2015	13.29346
0.202	9.06372
0.2025	3.32336
0.203	-1.91345
0.2035	-9.06372
0.204	-47.53418
0.2045	-75.12817
0.205	-82.88269
0.2055	-77.14233
0.206	-70.69702
0.2065	-61.73401
0.207	-36.75842
0.2075	-25.177
0.208	-5.94177
0.2085	-0.80566
0.209	-3.8269
0.2095	-8.8623
0.21	-10.37292
0.2105	-5.23682
0.211	-10.47363
0.2115	-2.71912
0.212	2.92053
0.2125	10.17151
0.213	1.61133
0.2135	-2.11487
0.214	-10.27222
0.2145	3.02124
0.215	12.68921
0.2155	25.177
0.216	41.69312
0.2165	60.12268
0.217	76.53809
0.2175	81.7749
0.218	74.32251
0.2185	73.91968
0.219	57.20215
0.2195	44.0094
0.22	30.31311
0.2205	29.30603
0.221	14.60266
0.2215	1.3092
0.222	-15.00549
0.2225	-25.07629
0.223	-31.01807
0.2235	-29.00391
0.224	-27.09045
0.2245	-14.90479
0.225	-12.68921
0.2255	-13.797
0.226	-6.64673
0.2265	-10.77576
0.227	-22.35718
0.2275	-29.80957
0.228	-34.64355
0.2285	-38.26904
0.229	-64.35242
0.2295	-110.07385
0.23	-126.89209
0.2305	-122.66235
0.231	-108.76465
0.2315	-91.14075
0.232	-67.77649
0.2325	-21.95435
0.233	10.0708
0.2335	40.58533
0.234	62.9425
0.2345	76.84021
0.235	89.42871
0.2355	105.23987
0.236	110.47668
0.2365	118.33191
0.237	116.82129
0.2375	118.33191
0.238	113.90076
0.2385	99.09668
0.239	91.24146
0.2395	78.95508
0.24	52.771
0.2405	45.01648
0.241	41.99524
0.2415	29.91028
0.242	14.70337
0.2425	10.0708
0.243	0.20142
0.2435	-4.63257
0.244	-7.15027
0.2445	-45.41931
0.245	-92.75208
0.2455	-138.77563
0.246	-185.80627
0.2465	-212.99744
0.247	-198.19336
0.2475	-170.49866
0.248	-132.22961
0.2485	-99.2981
0.249	-61.93542
0.2495	-12.68921
0.25	23.96851
0.2505	54.18091
0.251	79.96216
0.2515	95.97473
0.252	94.3634
0.2525	99.49951
0.253	94.3634
0.2535	97.88818
0.254	93.15491
0.2545	76.7395
0.255	65.66162
0.2555	59.41772
0.256	73.61755
0.2565	61.93542
0.257	48.64197
0.2575	29.30603
0.258	16.71753
0.2585	4.93469
0.259	-13.59558
0.2595	-20.64514
0.26	-14.09912
0.2605	-9.76868
0.261	-5.13611
0.2615	1.3092
0.262	8.25806
0.2625	14.80408
0.263	18.73169
0.2635	5.94177
0.264	-1.00708
0.2645	-7.15027
0.265	-18.12744
0.2655	-47.63489
0.266	-54.48303
0.2665	-40.1825
0.267	-26.3855
0.2675	-7.5531
0.268	0.70496
0.2685	8.05664
0.269	21.14868
0.2695	28.70178
0.27	8.7616
0.2705	-19.13452
0.271	-36.35559
0.2715	-38.67188
0.272	-39.98108
0.2725	-48.13843
0.273	-50.75684
0.2735	-44.11011
0.274	-28.09753
0.2745	-10.87646
0.275	16.21399
0.2755	28.60107
0.276	39.27612
0.2765	37.86621
0.277	45.72144
0.2775	66.26587
0.278	81.06995
0.2785	78.85437
0.279	71.90552
0.2795	60.62622
0.28	53.37524
0.2805	46.12427
0.281	49.44763
0.2815	70.29419
0.282	86.50818
0.2825	94.2627
0.283	92.14783
0.2835	79.15649
0.284	72.10693
0.2845	49.54834
0.285	43.20374
0.2855	32.52869
0.286	20.1416
0.2865	16.41541
0.287	9.56726
0.2875	5.84106
0.288	-2.5177
0.2885	-26.98975
0.289	-54.48303
0.2895	-74.32251
0.29	-84.19189
0.2905	-94.06128
0.291	-149.85352
0.2915	-244.61975
0.292	-271.30737
0.2925	-262.54578
0.293	-268.68896
0.2935	-317.53235
0.294	-344.6228
0.2945	-349.96033
0.295	-306.95801
0.2955	-239.88647
0.296	-182.58362
0.2965	-121.25244
0.297	-63.44604
0.2975	-41.79382
0.298	3.92761
0.2985	52.26746
0.299	104.93774
0.2995	157.00378
0.3	214.20593
0.3005	272.71729
0.301	294.77234
0.3015	293.66455
0.302	293.36243
0.3025	290.13977
0.303	271.50879
0.3035	253.9856
0.304	221.25549
0.3045	208.96912
0.305	207.25708
0.3055	180.67017
0.306	145.62378
0.3065	116.61987
0.307	92.44995
0.3075	77.04163
0.308	67.47437
0.3085	58.91418
0.309	49.24622
0.3095	36.35559
0.31	26.68762
0.3105	15.00549
0.311	9.56726
0.3115	3.7262
0.312	5.0354
0.3125	1.10779
0.313	2.61841
0.3135	2.5177
0.314	-2.61841
0.3145	-0.90637
0.315	-4.43115
0.3155	-5.0354
0.316	-9.16443
0.3165	-11.07788
0.317	-14.90479
0.3175	-27.59399
0.318	-47.7356
0.3185	-67.8772
0.319	-79.55933
0.3195	-93.75916
0.32	-140.18555
0.3205	-195.67566
0.321	-222.86682
0.3215	-224.37744
0.322	-219.64417
0.3225	-183.18787
0.323	-148.04077
0.3235	-106.9519
0.324	-55.49011
0.3245	2.21558
0.325	31.52161
0.3255	46.62781
0.326	54.78516
0.3265	66.16516
0.327	84.19189
0.3275	97.38464
0.328	98.89526
0.3285	93.55774
0.329	95.77332
0.3295	92.04712
0.33	53.87878
0.3305	-4.12903
0.331	-65.05737
0.3315	-92.85278
0.332	-91.04004
0.3325	-83.48694
0.333	-75.32959
0.3335	-79.35791
0.334	-77.24304
0.3345	-80.96924
0.335	-104.13208
0.3355	-126.9928
0.336	-109.16748
0.3365	-98.99597
0.337	-88.32092
0.3375	-81.37207
0.338	-64.25171
0.3385	-44.0094
0.339	-15.60974
0.3395	19.33594
0.34	72.40906
0.3405	129.20837
0.341	187.11548
0.3415	225.38452
0.342	220.75195
0.3425	199.40186
0.343	175.33264
0.3435	157.91016
0.344	147.43652
0.3445	160.12573
0.345	174.02344
0.3455	175.03052
0.346	162.03918
0.3465	128.60413
0.347	91.64429
0.3475	57.40356
0.348	36.95984
0.3485	28.29895
0.349	23.06213
0.3495	15.50903
0.35	3.52478
0.3505	8.05664
0.351	11.17859
0.3515	0.20142
0.352	-0.20142
0.3525	2.11487
0.353	-9.06372
0.3535	-24.87488
0.354	-43.10303
0.3545	-63.54675
0.355	-115.20996
0.3555	-175.83618
0.356	-203.12805
0.3565	-201.51672
0.357	-182.68433
0.3575	-158.11157
0.358	-160.83069
0.3585	-161.63635
0.359	-133.84094
0.3595	-100.50659
0.36	-58.61206
0.3605	-30.2124
0.361	4.02832
0.3615	30.41382
0.362	57.50427
0.3625	76.13525
0.363	96.47827
0.3635	104.73633
0.364	111.28235
0.3645	119.84253
0.365	123.97156
0.3655	107.85828
0.366	90.83862
0.3665	71.60339
0.367	26.18408
0.3675	-7.5531
0.368	-63.94958
0.3685	-200.91248
0.369	-253.17993
0.3695	-250.66223
0.37	-238.47656
0.3705	-226.08948
0.371	-197.28699
0.3715	-142.50183
0.372	-93.0542
0.3725	-33.03223
0.373	33.73718
0.3735	74.2218
0.374	118.02979
0.3745	140.68909
0.375	173.92273
0.3755	180.97229
0.376	177.54822
0.3765	173.21777
0.377	171.60645
0.3775	168.4845
0.378	166.57104
0.3785	144.91882
0.379	115.7135
0.3795	91.94641
0.38	84.2926
0.3805	95.26978
0.381	120.14465
0.3815	121.55457
0.382	124.07227
0.3825	107.65686
0.383	75.32959
0.3835	47.53418
0.384	35.2478
0.3845	30.41382
0.385	22.76001
0.3855	19.83948
0.386	13.797
0.3865	12.68921
0.387	5.43823
0.3875	2.11487
0.388	-2.01416
0.3885	-5.53894
0.389	-10.87646
0.3895	-18.32886
0.39	-20.24231
0.3905	-22.35718
0.391	-26.88904
0.3915	-31.52161
0.392	-27.59399
0.3925	-28.70178
0.393	-28.9032
0.3935	-33.33435
0.394	-34.64355
0.3945	-29.70886
0.395	-27.29187
0.3955	-27.6947
0.396	-26.48621
0.3965	-29.20532
0.397	-23.06213
0.3975	-19.43665
0.398	-24.06921
0.3985	-18.93311
0.399	-14.30054
0.3995	-10.87646
0.4	-23.8678
0.4005	-45.62073
0.401	-54.28162
0.4015	-50.95825
0.402	-52.06604
0.4025	-49.34692
0.403	-46.92993
0.4035	-38.974
0.404	-28.60107
0.4045	-12.38708
0.405	3.22266
0.4055	25.78125
0.406	34.74426
0.4065	26.3855
0.407	-0.90637
0.4075	-18.12744
0.408	-33.53577
0.4085	-34.94568
0.409	-27.29187
0.4095	-18.73169
0.41	-10.77576
0.4105	-24.97559
0.411	-63.64746
0.4115	-108.36182
0.412	-152.57263
0.4125	-168.58521
0.413	-181.57654
0.4135	-242.80701
0.414	-290.84473
0.4145	-293.26172
0.415	-283.19092
0.4155	-255.2948
0.416	-213.8031
0.4165	-166.0675
0.417	-140.28625
0.4175	-94.06128
0.418	-68.48145
0.4185	-85.70251
0.419	-78.25012
0.4195	-71.60339
0.42	-123.87085
0.4205	-132.93457
0.421	-90.5365
0.4215	-25.27771
0.422	34.14001
0.4225	89.93225
0.423	132.63245
0.4235	172.21069
0.424	207.4585
0.4245	246.23108
0.425	279.76685
0.4255	308.26721
0.426	339.88953
0.4265	358.52051
0.427	349.45679
0.4275	338.88245
0.428	346.13342
0.4285	348.349
0.429	312.09412
0.4295	238.87939
0.43	167.77954
0.4305	118.63403
0.431	50.65613
0.4315	-1.51062
0.432	-37.66479
0.4325	-35.04639
0.433	-39.27612
0.4335	-43.10303
0.434	-99.70093
0.4345	-165.9668
0.435	-174.02344
0.4355	-152.06909
0.436	-120.64819
0.4365	-95.26978
0.437	-55.3894
0.4375	-22.96143
0.438	11.88354
0.4385	35.44922
0.439	71.7041
0.4395	101.21155
0.44	102.62146
0.4405	94.2627
0.441	81.47278
0.4415	83.88977
0.442	83.99048
0.4425	79.96216
0.443	95.26978
0.4435	95.87402
0.444	84.39331
0.4445	70.49561
0.445	46.22498
0.4455	46.72852
0.446	46.42639
0.4465	32.83081
0.447	29.70886
0.4475	27.49329
0.448	57.00073
0.4485	90.5365
0.449	96.47827
0.4495	69.58923
0.45	41.18958
0.4505	15.20691
0.451	3.62549
0.4515	-5.23682
0.452	-10.17151
0.4525	-14.50195
0.453	-20.24231
0.4535	-42.8009
0.454	-75.22888
0.4545	-88.72375
0.455	-98.0896
0.4555	-112.08801
0.456	-126.69067
0.4565	-132.22961
0.457	-122.25952
0.4575	-114.70642
0.458	-96.27686
0.4585	-82.88269
0.459	-64.65454
0.4595	-47.03064
0.46	-27.49329
0.4605	-10.67505
0.461	2.5177
0.4615	6.84814
0.462	25.177
0.4625	32.42798
0.463	40.98816
0.4635	67.27295
0.464	71.30127
0.4645	55.2887
0.465	34.44214
0.4655	-1.2085
0.466	-22.15576
0.4665	-30.2124
0.467	-47.8363
0.4675	-137.56714
0.468	-196.27991
0.4685	-230.01709
0.469	-223.37036
0.4695	-210.88257
0.47	-239.38293
0.4705	-259.22241
0.471	-270.60242
0.4715	-270.60242
0.472	-252.87781
0.4725	-227.6001
0.473	-168.28308
0.4735	-91.54358
0.474	-10.47363
0.4745	54.58374
0.475	106.44836
0.4755	164.25476
0.476	240.28931
0.4765	283.29163
0.477	279.46472
0.4775	256.10046
0.478	241.39709
0.4785	239.88647
0.479	256.70471
0.4795	256.80542
0.48	245.82825
0.4805	220.34912
0.481	209.17053
0.4815	192.35229
0.482	195.27283
0.4825	180.46875
0.483	161.73706
0.4835	132.93457
0.484	116.31775
0.4845	102.72217
0.485	80.96924
0.4855	69.08569
0.486	59.92126
0.4865	49.64905
0.487	32.02515
0.4875	16.21399
0.488	5.23682
0.4885	0.20142
0.489	6.94885
0.4895	-1.91345
0.49	-14.19983
0.4905	-20.04089
0.491	-18.42957
0.4915	-11.58142
0.492	-13.09204
0.4925	-10.87646
0.493	3.02124
0.4935	4.22974
0.494	8.8623
0.4945	4.63257
0.495	-2.81982
0.4955	-7.15027
0.496	-14.30054
0.4965	-20.84656
0.497	-25.68054
0.4975	-21.95435
0.498	-22.76001
0.4985	-24.77417
0.499	-29.80957
0.4995	-41.99524
0.5	-59.1156
0.5005	-62.74109
0.501	-79.05579
0.5015	-99.70093
0.502	-119.74182
0.5025	-119.13757
0.503	-132.22961
0.5035	-152.87476
0.504	-154.78821
0.5045	-168.08167
0.505	-201.71814
0.5055	-197.18628
0.506	-173.41919
0.5065	-151.56555
0.507	-124.07227
0.5075	-100.20447
0.508	-66.46729
0.5085	-34.64355
0.509	13.39417
0.5095	48.64197
0.51	89.02588
0.5105	136.56006
0.511	162.94556
0.5115	177.95105
0.512	169.08875
0.5125	148.24219
0.513	46.5271
0.5135	-44.51294
0.514	-78.45154
0.5145	-65.25879
0.515	-57.60498
0.5155	-56.39648
0.516	-65.86304
0.5165	-66.36658
0.517	-43.10303
0.5175	-24.57275
0.518	-0.70496
0.5185	30.2124
0.519	60.02197
0.5195	104.3335
0.52	141.89758
0.5205	153.78113
0.521	152.06909
0.5215	158.61511
0.522	154.58679
0.5225	141.19263
0.523	109.3689
0.5235	88.22021
0.524	72.30835
0.5245	67.8772
0.525	61.93542
0.5255	58.61206
0.526	53.57666
0.5265	40.2832
0.527	37.16125
0.5275	24.06921
0.528	22.15576
0.5285	17.42249
0.529	-0.40283
0.5295	-34.74426
0.53	-125.18005
0.5305	-237.97302
0.531	-318.03589
0.5315	-345.02563
0.532	-346.23413
0.5325	-334.552
0.533	-376.95007
0.5335	-429.31824
0.534	-432.94373
0.5345	-405.45044
0.535	-370.80688
0.5355	-343.11218
0.536	-277.65198
0.5365	-186.71265
0.537	-76.7395
0.5375	37.26196
0.538	125.68359
0.5385	222.26257
0.539	327.90527
0.5395	392.66052
0.54	423.47717
0.5405	406.75964
0.541	335.86121
0.5415	269.49463
0.542	265.3656
0.5425	262.14294
0.543	243.20984
0.5435	212.09106
0.544	202.62451
0.5445	204.53796
0.545	202.22168
0.5455	201.41602
0.546	172.81494
0.5465	121.55457
0.547	82.78198
0.5475	44.51294
0.548	23.36426
0.5485	9.76868
0.549	4.33044
0.5495	-16.01257
0.55	-28.80249
0.5505	-17.92603
0.551	17.92603
0.5515	24.06921
0.552	14.30054
0.5525	-6.54602
0.553	-14.50195
0.5535	-22.86072
0.554	-14.09912
0.5545	-12.78992
0.555	-12.89062
0.5555	-12.68921
0.556	-4.43115
0.5565	37.46338
0.557	69.79065
0.5575	82.9834
0.558	72.20764
0.5585	70.29419
0.559	63.74817
0.5595	59.1156
0.56	73.11401
0.5605	106.14624
0.561	118.73474
0.5615	95.06836
0.562	63.14392
0.5625	44.81506
0.563	39.37683
0.5635	32.42798
0.564	15.30762
0.5645	-0.60425
0.565	-20.54443
0.5655	-22.6593
0.566	-28.9032
0.5665	-25.47913
0.567	-17.82532
0.5675	-15.50903
0.568	-14.50195
0.5685	-28.39966
0.569	-27.39258
0.5695	-14.80408
0.57	-11.58142
0.5705	-11.17859
0.571	-20.54443
0.5715	-32.62939
0.572	-27.49329
0.5725	-19.94019
0.573	-19.53735
0.5735	-31.92444
0.574	-38.67188
0.5745	-55.99365
0.575	-92.75208
0.5755	-258.51746
0.576	-411.79504
0.5765	-472.32056
0.577	-446.4386
0.5775	-391.85486
0.578	-308.56934
0.5785	-221.05408
0.579	-120.7489
0.5795	-18.53027
0.58	73.11401
0.5805	146.53015
0.581	204.53796
0.5815	237.36877
0.582	264.96277
0.5825	284.60083
0.583	281.88171
0.5835	254.58984
0.584	240.28931
0.5845	232.33337
0.585	224.07532
0.5855	195.67566
0.586	131.62537
0.5865	69.58923
0.587	34.64355
0.5875	2.71912
0.588	-30.01099
0.5885	-70.49561
0.589	-108.56323
0.5895	-126.69067
0.59	-153.57971
0.5905	-246.63391
0.591	-307.36084
0.5915	-315.51819
0.592	-322.26562
0.5925	-297.995
0.593	-231.93054
0.5935	-141.59546
0.594	-72.50977
0.5945	-31.11877
0.595	-3.32336
0.5955	28.50037
0.596	62.23755
0.5965	99.60022
0.597	121.15173
0.5975	113.90076
0.598	99.60022
0.5985	111.48376
0.599	139.88342
0.5995	165.26184
0.6	151.86768
0.6005	122.05811
0.601	123.46802
0.6015	130.31616
0.602	133.94165
0.6025	135.35156
0.603	128.302
0.6035	108.86536
0.604	91.24146
0.6045	83.38623
0.605	43.20374
0.6055	-58.51135
0.606	-125.98572
0.6065	-147.33582
0.607	-148.4436
0.6075	-137.16431
0.608	-104.3335
0.6085	-65.46021
0.609	-35.54993
0.6095	-22.35718
0.61	-2.21558
0.6105	23.76709
0.611	53.27454
0.6115	67.27295
0.612	75.4303
0.6125	86.30676
0.613	97.38464
0.6135	117.02271
0.614	136.96289
0.6145	125.98572
0.615	111.58447
0.6155	106.04553
0.616	90.43579
0.6165	61.43188
0.617	39.88037
0.6175	33.43506
0.618	42.8009
0.6185	65.46021
0.619	78.35083
0.6195	81.17065
0.62	71.20056
0.6205	73.01331
0.621	64.35242
0.6215	53.67737
0.622	33.33435
0.6225	8.66089
0.623	-64.85596
0.6235	-137.36572
0.624	-182.28149
0.6245	-196.1792
0.625	-192.453
0.6255	-183.08716
0.626	-159.21936
0.6265	-134.64661
0.627	-100.6073
0.6275	-69.28711
0.628	-42.8009
0.6285	-21.04797
0.629	-8.7616
0.6295	2.11487
0.63	12.28638
0.6305	26.48621
0.631	54.88586
0.6315	95.97473
0.632	139.78271
0.6325	154.58679
0.633	100.80872
0.6335	64.45312
0.634	34.34143
0.6345	19.33594
0.635	-70.59631
0.6355	-117.32483
0.636	-125.68359
0.6365	-119.74182
0.637	-91.8457
0.6375	-52.67029
0.638	-14.19983
0.6385	17.82532
0.639	50.65613
0.6395	81.7749
0.64	98.89526
0.6405	43.40515
0.641	-5.53894
0.6415	-25.68054
0.642	-21.14868
0.6425	-28.09753
0.643	-31.72302
0.6435	-54.18091
0.644	-104.53491
0.6445	-129.81262
0.645	-135.15015
0.6455	-113.80005
0.646	-90.93933
0.6465	-72.81189
0.647	-36.55701
0.6475	-0.90637
0.648	37.36267
0.6485	70.09277
0.649	83.18481
0.6495	82.37915
0.65	71.30127
0.6505	41.59241
0.651	20.84656
0.6515	14.19983
0.652	47.23206
0.6525	93.0542
0.653	94.56482
0.6535	66.46729
0.654	40.78674
0.6545	18.8324
0.655	-11.78284
0.6555	-54.78516
0.656	-117.02271
0.6565	-143.60962
0.657	-145.12024
0.6575	-127.79846
0.658	-85.5011
0.6585	-32.93152
0.659	-29.00391
0.6595	-83.68835
0.66	-91.64429
0.6605	-58.10852
0.661	-22.55859
0.6615	24.06921
0.662	67.17224
0.6625	97.88818
0.663	132.73315
0.6635	182.98645
0.664	235.25391
0.6645	296.68579
0.665	375.23804
0.6655	391.95557
0.666	338.98315
0.6665	271.6095
0.667	186.81335
0.6675	104.13208
0.668	53.27454
0.6685	13.19275
0.669	-26.3855
0.6695	-74.02039
0.67	-93.55774
0.6705	-125.58289
0.671	-174.62769
0.6715	-198.09265
0.672	-199.09973
0.6725	-189.83459
0.673	-167.98096
0.6735	-150.25635
0.674	-128.80554
0.6745	-87.31384
0.675	-17.72461
0.6755	34.74426
0.676	29.50745
0.6765	12.89062
0.677	-11.88354
0.6775	-80.4657
0.678	-116.11633
0.6785	-116.51917
0.679	-112.89368
0.6795	-103.22571
0.68	-66.6687
0.6805	-8.05664
0.681	50.05188
0.6815	93.25562
0.682	114.90784
0.6825	125.58289
0.683	132.83386
0.6835	132.12891
0.684	124.87793
0.6845	127.59705
0.685	117.92908
0.6855	104.63562
0.686	68.68286
0.6865	-59.51843
0.687	-153.479
0.6875	-218.03284
0.688	-252.7771
0.6885	-264.35852
0.689	-260.83374
0.6895	-307.26013
0.69	-349.6582
0.6905	-324.4812
0.691	-238.47656
0.6915	-166.67175
0.692	-103.125
0.6925	-42.09595
0.693	27.49329
0.6935	77.74658
0.694	139.07776
0.6945	195.27283
0.695	228.30505
0.6955	237.57019
0.696	134.5459
0.6965	10.37292
0.697	-46.32568
0.6975	-91.8457
0.698	-146.32874
0.6985	-142.30042
0.699	-75.83313
0.6995	-3.02124
0.7	85.09827
0.7005	150.25635
0.701	212.4939
0.7015	257.8125
0.702	291.24756
0.7025	311.48987
0.703	322.46704
0.7035	302.72827
0.704	273.72437
0.7045	239.08081
0.705	226.59302
0.7055	215.91797
0.706	192.55371
0.7065	165.56396
0.707	130.11475
0.7075	100.20447
0.708	88.0188
0.7085	76.94092
0.709	41.29028
0.7095	-0.10071
0.71	-39.67896
0.7105	-63.04321
0.711	-75.12817
0.7115	-86.00464
0.712	-112.28943
0.7125	-155.29175
0.713	-173.01636
0.7135	-172.91565
0.714	-169.39087
0.7145	-153.68042
0.715	-153.57971
0.7155	-144.91882
0.716	-111.58447
0.7165	-65.76233
0.717	-16.91895
0.7175	-9.26514
0.718	-20.54443
0.7185	-2.92053
0.719	-2.71912
0.7195	-0.50354
0.72	22.55859
0.7205	43.10303
0.721	59.1156
0.7215	80.06287
0.722	100.40588
0.7225	98.19031
0.723	103.62854
0.7235	80.96924
0.724	43.20374
0.7245	0.30212
0.725	-42.49878
0.7255	-58.61206
0.726	-57.50427
0.7265	-60.22339
0.727	-66.97083
0.7275	-74.32251
0.728	-147.23511
0.7285	-288.32703
0.729	-381.68335
0.7295	-443.61877
0.73	-439.08691
0.7305	-392.25769
0.731	-286.81641
0.7315	-140.58838
0.732	21.55151
0.7325	163.34839
0.733	239.98718
0.7335	241.90063
0.734	206.35071
0.7345	190.43884
0.735	146.93298
0.7355	95.16907
0.736	73.51685
0.7365	54.48303
0.737	30.51453
0.7375	1.00708
0.738	29.00391
0.7385	70.19348
0.739	126.08643
0.7395	177.74963
0.74	200.10681
0.7405	203.63159
0.741	214.70947
0.7415	210.37903
0.742	149.45068
0.7425	72.50977
0.743	36.55701
0.7435	38.16833
0.744	58.61206
0.7445	70.3949
0.745	23.96851
0.7455	-4.53186
0.746	-6.94885
0.7465	15.00549
0.747	34.14001
0.7475	45.3186
0.748	71.80481
0.7485	105.03845
0.749	117.32483
0.7495	119.23828
0.75	109.16748
0.7505	117.72766
0.751	187.11548
0.7515	225.68665
0.752	198.29407
0.7525	164.05334
0.753	122.05811
0.7535	72.20764
0.754	33.53577
0.7545	16.41541
0.755	1.40991
0.7555	-4.22974
0.756	-13.797
0.7565	-47.93701
0.757	-88.92517
0.7575	-101.01013
0.758	-94.3634
0.7585	-86.50818
0.759	-75.32959
0.7595	-57.60498
0.76	-46.72852
0.7605	-35.14709
0.761	-25.27771
0.7615	-23.16284
0.762	-25.27771
0.7625	-6.2439
0.763	1.81274
0.7635	-4.63257
0.764	-25.98267
0.7645	-44.31152
0.765	-54.78516
0.7655	-57.20215
0.766	-94.86694
0.7665	-142.19971
0.767	-169.7937
0.7675	-197.18628
0.768	-257.30896
0.7685	-292.35535
0.769	-275.23499
0.7695	-236.66382
0.77	-188.72681
0.7705	-140.8905
0.771	-82.27844
0.7715	-24.06921
0.772	43.50586
0.7725	82.9834
0.773	109.87244
0.7735	98.69385
0.774	67.17224
0.7745	56.69861
0.775	72.50977
0.7755	106.44836
0.776	119.03687
0.7765	116.51917
0.777	92.55066
0.7775	45.41931
0.778	-8.96301
0.7785	-70.19348
0.779	-164.15405
0.7795	-359.52759
0.78	-538.38501
0.7805	-617.4408
0.781	-606.06079
0.7815	-567.38892
0.782	-487.62817
0.7825	-370.10193
0.783	-243.20984
0.7835	-112.89368
0.784	-15.00549
0.7845	53.17383
0.785	90.23438
0.7855	132.53174
0.786	146.42944
0.7865	104.53491
0.787	1.81274
0.7875	-47.03064
0.788	-29.10461
0.7885	34.74426
0.789	56.39648
0.7895	82.37915
0.79	132.22961
0.7905	201.81885
0.791	277.45056
0.7915	327.30103
0.792	374.33167
0.7925	292.65747
0.793	219.64417
0.7935	152.06909
0.794	95.67261
0.7945	97.78748
0.795	120.95032
0.7955	155.09033
0.796	181.97937
0.7965	198.6969
0.797	213.19885
0.7975	234.44824
0.798	254.28772
0.7985	259.92737
0.799	271.40808
0.7995	287.82349
0.8	327.40173
0.8005	347.34192
0.801	347.74475
0.8015	307.76367
0.802	251.97144
0.8025	182.3822
0.803	139.68201
0.8035	92.04712
0.804	70.59631
0.8045	76.33667
0.805	74.32251
0.8055	52.771
0.806	24.37134
0.8065	0.40283
0.807	-23.56567
0.8075	-38.87329
0.808	-67.77649
0.8085	-198.59619
0.809	-311.69128
0.8095	-346.43555
0.81	-326.09253
0.8105	-283.59375
0.811	-235.45532
0.8115	-186.1084
0.812	-131.82678
0.8125	-76.84021
0.813	-21.14868
0.8135	23.56567
0.814	57.70569
0.8145	44.31152
0.815	23.56567
0.8155	29.91028
0.816	32.12585
0.8165	2.21558
0.817	-39.77966
0.8175	-43.00232
0.818	-59.41772
0.8185	-81.7749
0.819	-134.74731
0.8195	-229.41284
0.82	-282.68738
0.8205	-301.11694
0.821	-276.74561
0.8215	-288.32703
0.822	-338.58032
0.8225	-278.25623
0.823	-138.97705
0.8235	-44.0094
0.824	-3.32336
0.8245	53.57666
0.825	110.47668
0.8255	154.08325
0.826	189.43176
0.8265	172.71423
0.827	143.20679
0.8275	153.98254
0.828	162.94556
0.8285	94.46411
0.829	2.41699
0.8295	-75.53101
0.83	-106.8512
0.8305	-131.72607
0.831	-146.73157
0.8315	-167.276
0.832	-153.27759
0.8325	-124.27368
0.833	-83.68835
0.8335	-17.32178
0.834	50.15259
0.8345	112.28943
0.835	172.41211
0.8355	207.76062
0.836	231.72913
0.8365	194.66858
0.837	130.11475
0.8375	109.16748
0.838	129.00696
0.8385	164.85901
0.839	173.11707
0.8395	207.15637
0.84	338.17749
0.8405	411.69434
0.841	388.22937
0.8415	322.16492
0.842	255.89905
0.8425	195.37354
0.843	142.80396
0.8435	125.18005
0.844	122.46094
0.8445	125.7843
0.845	110.27527
0.8455	98.69385
0.846	89.73083
0.8465	74.62463
0.847	42.29736
0.8475	-73.01331
0.848	-176.44043
0.8485	-224.98169
0.849	-278.05481
0.8495	-379.26636
0.85	-424.98779
0.8505	-458.22144
0.851	-477.25525
0.8515	-464.56604
0.852	-422.5708
0.8525	-337.27112
0.853	-219.94629
0.8535	-104.53491
0.854	3.8269
0.8545	112.89368
0.855	185.90698
0.8555	266.17126
0.856	328.71094
0.8565	367.68494
0.857	355.59998
0.8575	337.37183
0.858	323.47412
0.8585	293.66455
0.859	255.39551
0.8595	247.33887
0.86	242.90771
0.8605	208.36487
0.861	138.27209
0.8615	62.74109
0.862	5.23682
0.8625	-28.60107
0.863	-42.29736
0.8635	-33.23364
0.864	-31.21948
0.8645	-47.63489
0.865	-58.30994
0.8655	-66.6687
0.866	-68.28003
0.8665	-79.15649
0.867	-97.08252
0.8675	-103.82996
0.868	-127.79846
0.8685	-160.22644
0.869	-165.06042
0.8695	-146.83228
0.87	-152.97546
0.8705	-172.21069
0.871	-178.15247
0.8715	-167.17529
0.872	-137.76855
0.8725	-100.50659
0.873	-75.4303
0.8735	-64.55383
0.874	-115.91492
0.8745	-137.96997
0.875	-110.07385
0.8755	-72.50977
0.876	-116.21704
0.8765	-121.85669
0.877	-103.72925
0.8775	-77.34375
0.878	-37.26196
0.8785	55.69153
0.879	156.09741
0.8795	225.18311
0.88	260.63232
0.8805	251.26648
0.881	162.54272
0.8815	63.94958
0.882	-33.23364
0.8825	-108.96606
0.883	-166.47034
0.8835	-210.0769
0.884	-245.62683
0.8845	-251.16577
0.885	-269.69604
0.8855	-251.4679
0.886	-196.27991
0.8865	-106.24695
0.887	-38.77258
0.8875	12.5885
0.888	53.67737
0.8885	116.21704
0.889	194.16504
0.8895	238.37585
0.89	237.97302
0.8905	230.82275
0.891	222.96753
0.8915	198.59619
0.892	171.10291
0.8925	140.8905
0.893	87.71667
0.8935	52.46887
0.894	-2.21558
0.8945	-40.88745
0.895	-33.83789
0.8955	-31.4209
0.896	-37.7655
0.8965	-25.98267
0.897	-8.66089
0.8975	50.85754
0.898	97.98889
0.8985	112.79297
0.899	119.74182
0.8995	121.15173
0.9	11.38
0.9005	-183.99353
0.901	-272.41516
0.9015	-253.38135
0.902	-206.45142
0.9025	-130.41687
0.903	-21.85364
0.9035	77.74658
0.904	84.59473
0.9045	-30.31311
0.905	-102.92358
0.9055	-92.14783
0.906	-52.16675
0.9065	-1.3092
0.907	74.72534
0.9075	114.60571
0.908	50.45471
0.9085	-237.26807
0.909	-494.87915
0.9095	-635.16541
0.91	-665.88135
0.9105	-580.78308
0.911	-449.05701
0.9115	-305.14526
0.912	-144.6167
0.9125	25.07629
0.913	195.17212
0.9135	358.72192
0.914	473.52905
0.9145	529.72412
0.915	584.8114
0.9155	617.4408
0.916	629.42505
0.9165	671.92383
0.917	731.9458
0.9175	755.91431
0.918	673.23303
0.9185	518.74695
0.919	358.62122
0.9195	245.92896
0.92	167.37671
0.9205	116.51917
0.921	88.0188
0.9215	76.23596
0.922	85.90393
0.9225	49.64905
0.923	-10.57434
0.9235	-37.56409
0.924	-50.55542
0.9245	-52.8717
0.925	-67.27295
0.9255	-104.53491
0.926	-235.05249
0.9265	-327.50244
0.927	-345.52917
0.9275	-343.21289
0.928	-340.99731
0.9285	-287.01782
0.929	-208.06274
0.9295	-131.22253
0.93	-50.05188
0.9305	22.35718
0.931	82.07703
0.9315	136.76147
0.932	158.11157
0.9325	152.06909
0.933	144.11316
0.9335	155.69458
0.934	159.32007
0.9345	171.10291
0.935	176.94397
0.9355	182.88574
0.936	162.94556
0.9365	101.21155
0.937	20.64514
0.9375	-55.79224
0.938	-103.62854
0.9385	-131.02112
0.939	-127.29492
0.9395	-130.21545
0.94	-130.8197
0.9405	-145.8252
0.941	-165.16113
0.9415	-197.3877
0.942	-228.40576
0.9425	-298.39783
0.943	-376.95007
0.9435	-527.50854
0.944	-645.94116
0.9445	-647.85461
0.945	-586.0199
0.9455	-481.38428
0.946	-358.92334
0.9465	-236.86523
0.947	-143.20679
0.9475	-36.65771
0.948	72.61047
0.9485	184.29565
0.949	313.30261
0.9495	440.79895
0.95	494.67773
0.9505	478.96729
0.951	462.95471
0.9515	465.97595
0.952	409.07593
0.9525	330.22156
0.953	255.59692
0.9535	184.39636
0.954	129.91333
0.9545	98.49243
0.955	83.48694
0.9555	98.89526
0.956	142.70325
0.9565	141.29333
0.957	106.14624
0.9575	21.65222
0.958	-31.92444
0.9585	-41.79382
0.959	-30.81665
0.9595	-62.13684
0.96	-58.81348
0.9605	-23.8678
0.961	-18.42957
0.9615	-83.78906
0.962	-138.27209
0.9625	-137.16431
0.963	-123.77014
0.9635	-103.93066
0.964	-54.98657
0.9645	11.68213
0.965	57.9071
0.9655	84.99756
0.966	119.13757
0.9665	151.66626
0.967	171.0022
0.9675	183.08716
0.968	157.50732
0.9685	102.92358
0.969	70.99915
0.9695	15.91187
0.97	-48.84338
0.9705	-85.60181
0.971	-94.46411
0.9715	-96.8811
0.972	-163.65051
0.9725	-313.60474
0.973	-464.76746
0.9735	-500.11597
0.974	-548.55652
0.9745	-676.85852
0.975	-657.724
0.9755	-544.12537
0.976	-397.99805
0.9765	-259.82666
0.977	-147.53723
0.9775	-86.60889
0.978	-2.11487
0.9785	95.26978
0.979	157.2052
0.9795	88.62305
0.98	86.91101
0.9805	206.65283
0.981	328.91235
0.9815	399.30725
0.982	394.8761
0.9825	352.78015
0.983	324.17908
0.9835	310.48279
0.984	303.43323
0.9845	294.36951
0.985	266.07056
0.9855	202.62451
0.986	193.86292
0.9865	192.35229
0.987	175.23193
0.9875	188.42468
0.988	266.27197
0.9885	334.552
0.989	342.50793
0.9895	291.34827
0.99	234.44824
0.9905	198.89832
0.991	203.43018
0.9915	202.22168
0.992	182.18079
0.9925	166.26892
0.993	144.01245
0.9935	94.86694
0.994	48.03772
0.9945	-8.45947
0.995	-101.31226
0.9955	-235.75745
0.996	-319.14368
0.9965	-332.43713
0.997	-303.23181
0.9975	-263.35144
0.998	-219.24133
0.9985	-164.65759
0.999	-114.60571
0.9995	-64.55383
1	-24.37134
1.0005	9.66797
1.001	68.48145
1.0015	115.00854
1.002	136.15723
1.0025	120.44678
1.003	126.58997
1.0035	153.68042
1.004	187.31689
1.0045	203.7323
1.005	173.21777
1.0055	120.24536
1.006	71.30127
1.0065	32.52869
1.007	-41.59241
1.0075	-162.94556
1.008	-296.38367
1.0085	-382.58972
1.009	-388.02795
1.0095	-368.18848
1.01	-321.76208
1.0105	-260.02808
1.011	-221.15479
1.0115	-207.4585
1.012	-200.10681
1.0125	-150.25635
1.013	-99.09668
1.0135	-81.57349
1.014	-65.86304
1.0145	-17.52319
1.015	54.78516
1.0155	141.39404
1.016	199.30115
1.0165	216.52222
1.017	196.78345
1.0175	138.3728
1.018	144.01245
1.0185	160.9314
1.019	177.44751
1.0195	175.83618
1.02	152.27051
1.0205	133.63953
1.021	107.75757
1.0215	99.49951
1.022	0.40283
1.0225	-200.71106
1.023	-370.20264
1.0235	-477.55737
1.024	-518.84766
1.0245	-540.29846
1.025	-485.21118
1.0255	-388.43079
1.026	-303.93677
1.0265	-232.43408
1.027	-154.98962
1.0275	-145.42236
1.028	-81.7749
1.0285	19.94019
1.029	108.36182
1.0295	163.04626
1.03	176.54114
1.0305	177.44751
1.031	155.896
1.0315	122.46094
1.032	187.71973
1.0325	260.83374
1.033	265.16418
1.0335	196.88416
1.034	138.47351
1.0345	158.71582
1.035	205.64575
1.0355	215.0116
1.036	207.86133
1.0365	217.22717
1.037	262.54578
1.0375	319.94934
1.038	350.46387
1.0385	365.46936
1.039	348.65112
1.0395	328.10669
1.04	320.15076
1.0405	285.20508
1.041	247.94312
1.0415	205.94788
1.042	164.95972
1.0425	122.46094
1.043	89.73083
1.0435	7.45239
1.044	-171.20361
1.0445	-353.68652
1.045	-443.21594
1.0455	-460.03418
1.046	-423.67859
1.0465	-375.43945
1.047	-306.05164
1.0475	-213.40027
1.048	-117.42554
1.0485	-32.62939
1.049	33.53577
1.0495	67.57507
1.05	98.19031
1.0505	99.70093
1.051	104.4342
1.0515	125.18005
1.052	152.06909
1.0525	165.26184
1.053	93.75916
1.0535	5.23682
1.054	-50.85754
1.0545	-161.93848
1.055	-292.75818
1.0555	-324.68262
1.056	-288.52844
1.0565	-229.61426
1.057	-174.72839
1.0575	-110.17456
1.058	-38.16833
1.0585	33.03223
1.059	91.14075
1.0595	146.73157
1.06	207.96204
1.0605	226.69373
1.061	224.47815
1.0615	197.3877
1.062	167.07458
1.0625	114.60571
1.063	45.82214
1.0635	-22.05505
1.064	-90.43579
1.0645	-130.61829
1.065	-198.29407
1.0655	-246.23108
1.066	-250.96436
1.0665	-320.15076
1.067	-371.81396
1.0675	-337.57324
1.068	-261.23657
1.0685	-184.29565
1.069	-136.96289
1.0695	-77.64587
1.07	-59.1156
1.0705	17.42249
1.071	122.25952
1.0715	169.99512
1.072	189.23035
1.0725	243.51196
1.073	293.36243
1.0735	335.55908
1.074	346.73767
1.0745	309.07288
1.075	290.03906
1.0755	290.44189
1.076	260.43091
1.0765	220.65125
1.077	180.26733
1.0775	161.63635
1.078	137.86926
1.0785	96.47827
1.079	59.71985
1.0795	-32.02515
1.08	-122.86377
1.0805	-143.60962
1.081	-127.69775
1.0815	-94.86694
1.082	-53.67737
1.0825	-6.84814
1.083	43.00232
1.0835	74.92676
1.084	78.45154
1.0845	60.4248
1.085	49.85046
1.0855	53.57666
1.086	55.2887
1.0865	44.41223
1.087	-22.6593
1.0875	-98.99597
1.088	-205.74646
1.0885	-247.54028
1.089	-305.24597
1.0895	-296.98792
1.09	-253.68347
1.0905	-189.53247
1.091	-122.66235
1.0915	-46.32568
1.092	19.33594
1.0925	111.58447
1.093	194.36646
1.0935	235.25391
1.094	268.18542
1.0945	279.26331
1.095	248.34595
1.0955	129.20837
1.096	59.21631
1.0965	27.19116
1.097	8.66089
1.0975	9.76868
1.098	22.25647
1.0985	-5.74036
1.099	-27.49329
1.0995	-96.98181
1.1	-155.896
1.1005	-149.6521
1.101	-141.19263
1.1015	-121.35315
1.102	-114.505
1.1025	-104.13208
1.103	-69.28711
1.1035	-38.36975
1.104	-6.54602
1.1045	16.21399
1.105	25.88196
1.1055	40.2832
1.106	50.95825
1.1065	42.49878
1.107	-48.74268
1.1075	-157.00378
1.108	-186.61194
1.1085	-169.49158
1.109	-183.99353
1.1095	-225.0824
1.11	-244.11621
1.1105	-213.50098
1.111	-193.35938
1.1115	-179.8645
1.112	-154.38538
1.1125	-121.75598
1.113	-82.07703
1.1135	-35.14709
1.114	35.44922
1.1145	138.27209
1.115	235.25391
1.1155	247.23816
1.116	94.06128
1.1165	-51.5625
1.117	-103.32642
1.1175	-57.20215
1.118	18.42957
1.1185	119.54041
1.119	203.22876
1.1195	233.23975
1.12	275.03357
1.1205	311.28845
1.121	313.1012
1.1215	265.76843
1.122	247.23816
1.1225	233.03833
1.123	198.89832
1.1235	154.38538
1.124	128.70483
1.1245	139.98413
1.125	120.14465
1.1255	102.42004
1.126	102.01721
1.1265	105.44128
1.127	106.34766
1.1275	85.70251
1.128	40.08179
1.1285	-72.81189
1.129	-164.55688
1.1295	-218.63708
1.13	-237.36877
1.1305	-233.23975
1.131	-207.15637
1.1315	-148.4436
1.132	-93.25562
1.1325	-86.40747
1.133	-85.60181
1.1335	-92.85278
1.134	-46.22498
1.1345	4.33044
1.135	41.4917
1.1355	58.91418
1.136	64.45312
1.1365	83.28552
1.137	110.17456
1.1375	119.13757
1.138	129.71191
1.1385	144.71741
1.139	141.49475
1.1395	102.11792
1.14	49.64905
1.1405	0.10071
1.141	-29.10461
1.1415	-60.12268
1.142	-100.80872
1.1425	-173.41919
1.143	-320.85571
1.1435	-447.7478
1.144	-681.08826
1.1445	-785.22034
1.145	-757.82776
1.1455	-736.27625
1.146	-653.39355
1.1465	-525.09155
1.147	-359.52759
1.1475	-195.27283
1.148	-14.30054
1.1485	161.0321
1.149	295.37659
1.1495	327.90527
1.15	320.35217
1.1505	316.42456
1.151	365.67078
1.1515	431.13098
1.152	466.47949
1.1525	452.17896
1.153	428.51257
1.1535	451.87683
1.154	486.7218
1.1545	553.79333
1.155	617.94434
1.1555	570.51086
1.156	466.27808
1.1565	366.37573
1.157	293.86597
1.1575	248.74878
1.158	207.05566
1.1585	165.86609
1.159	151.46484
1.1595	147.43652
1.16	134.5459
1.1605	108.36182
1.161	87.91809
1.1615	78.25012
1.162	57.50427
1.1625	51.5625
1.163	46.82922
1.1635	30.51453
1.164	8.56018
1.1645	-23.16284
1.165	-47.53418
1.1655	-62.53967
1.166	-90.93933
1.1665	-102.72217
1.167	-104.53491
1.1675	-111.08093
1.168	-110.77881
1.1685	-105.94482
1.169	-107.95898
1.1695	-105.74341
1.17	-105.84412
1.1705	-101.31226
1.171	-99.60022
1.1715	-155.39246
1.172	-228.30505
1.1725	-256.5033
1.173	-270.401
1.1735	-289.63623
1.174	-309.67712
1.1745	-353.08228
1.175	-383.89893
1.1755	-421.66443
1.176	-460.83984
1.1765	-417.93823
1.177	-316.32385
1.1775	-206.55212
1.178	-105.13916
1.1785	12.99133
1.179	108.56323
1.1795	186.91406
1.18	233.44116
1.1805	287.62207
1.181	329.5166
1.1815	317.23022
1.182	265.86914
1.1825	209.17053
1.183	152.47192
1.1835	79.05579
1.184	-3.62549
1.1845	-57.60498
1.185	-82.07703
1.1855	-83.78906
1.186	-79.05579
1.1865	-68.07861
1.187	-33.9386
1.1875	-5.23682
1.188	14.80408
1.1885	30.41382
1.189	50.354
1.1895	71.40198
1.19	99.19739
1.1905	111.9873
1.191	138.87634
1.1915	185.70557
1.192	211.78894
1.1925	187.82043
1.193	132.22961
1.1935	76.23596
1.194	20.1416
1.1945	-32.02515
1.195	-80.06287
1.1955	-112.28943
1.196	-137.0636
1.1965	-153.88184
1.197	-160.72998
1.1975	-172.3114
1.198	-222.16187
1.1985	-467.99011
1.199	-821.37451
1.1995	-1065.1886
1.2	-1151.49536
1.2005	-1100.73853
1.201	-921.07544
1.2015	-656.71692
1.202	-381.0791
1.2025	-152.37122
1.203	55.79224
1.2035	248.84949
1.204	392.76123
1.2045	491.15295
1.205	574.03564
1.2055	671.92383
1.206	658.02612
1.2065	583.30078
1.207	562.45422
1.2075	569.50378
1.208	484.70764
1.2085	323.67554
1.209	195.57495
1.2095	115.00854
1.21	105.54199
1.2105	145.52307
1.211	184.8999
1.2115	212.09106
1.212	215.0116
1.2125	56.49719
1.213	-156.29883
1.2135	-386.92017
1.214	-504.54712
1.2145	-576.85547
1.215	-569.80591
1.2155	-480.17578
1.216	-318.43872
1.2165	-90.5365
1.217	94.2627
1.2175	258.31604
1.218	390.94849
1.2185	490.14587
1.219	591.76025
1.2195	640.70435
1.22	637.78381
1.2205	588.83972
1.221	511.09314
1.2215	437.27417
1.222	402.73132
1.2225	369.49768
1.223	310.88562
1.2235	219.64417
1.224	106.44836
1.2245	-59.61914
1.225	-219.44275
1.2255	-303.23181
1.226	-317.53235
1.2265	-301.21765
1.227	-257.30896
1.2275	-202.12097
1.228	-136.66077
1.2285	-69.1864
1.229	0
1.2295	76.03455
1.23	115.00854
1.2305	127.59705
1.231	122.25952
1.2315	118.63403
1.232	130.51758
1.2325	145.01953
1.233	168.78662
1.2335	190.53955
1.234	212.19177
1.2345	241.19568
1.235	202.82593
1.2355	130.41687
1.236	83.68835
1.2365	60.82764
1.237	41.08887
1.2375	24.67346
1.238	16.3147
1.2385	-2.41699
1.239	-18.32886
1.2395	-28.70178
1.24	-40.1825
1.2405	-49.14551
1.241	-60.72693
1.2415	-93.25562
1.242	-140.28625
1.2425	-174.22485
1.243	-178.45459
1.2435	-177.64893
1.244	-195.37354
1.2445	-236.96594
1.245	-293.0603
1.2455	-313.40332
1.246	-314.00757
1.2465	-293.26172
1.247	-322.86987
1.2475	-347.1405
1.248	-337.17041
1.2485	-311.28845
1.249	-239.88647
1.2495	-158.31299
1.25	-63.94958
1.2505	52.06604
1.251	141.29333
1.2515	186.00769
1.252	214.50806
1.2525	169.99512
1.253	40.2832
1.2535	-49.0448
1.254	-151.16272
1.2545	-336.26404
1.255	-504.14429
1.2555	-555.30396
1.256	-536.27014
1.2565	-456.5094
1.257	-363.55591
1.2575	-292.25464
1.258	-387.52441
1.2585	-463.86108
1.259	-469.19861
1.2595	-349.5575
1.26	-166.26892
1.2605	17.6239
1.261	221.75903
1.2615	436.87134
1.262	619.45496
1.2625	755.20935
1.263	842.92603
1.2635	884.61914
1.264	886.33118
1.2645	830.84106
1.265	742.41943
1.2655	672.62878
1.266	619.25354
1.2665	593.06946
1.267	539.79492
1.2675	465.271
1.268	368.99414
1.2685	247.64099
1.269	131.32324
1.2695	-7.15027
1.27	-103.02429
1.2705	-147.43652
1.271	-193.76221
1.2715	-240.08789
1.272	-247.94312
1.2725	-210.78186
1.273	-209.06982
1.2735	-304.54102
1.274	-322.66846
1.2745	-289.63623
1.275	-243.71338
1.2755	-178.5553
1.276	-126.69067
1.2765	-203.32947
1.277	-277.34985
1.2775	-291.85181
1.278	-269.99817
1.2785	-244.0155
1.279	-183.38928
1.2795	-123.36731
1.28	-74.02039
1.2805	-44.21082
1.281	-7.5531
1.2815	51.05896
1.282	104.3335
1.2825	151.16272
1.283	224.67957
1.2835	265.26489
1.284	285.40649
1.2845	306.45447
1.285	324.88403
1.2855	360.73608
1.286	389.94141
1.2865	301.92261
1.287	128.90625
1.2875	-18.12744
1.288	-150.35706
1.2885	-233.03833
1.289	-316.02173
1.2895	-480.78003
1.29	-744.5343
1.2905	-885.72693
1.291	-889.25171
1.2915	-841.01257
1.292	-798.41309
1.2925	-755.8136
1.293	-743.93005
1.2935	-651.88293
1.294	-542.21191
1.2945	-482.69348
1.295	-365.87219
1.2955	-226.79443
1.296	11.68213
1.2965	186.61194
1.297	193.76221
1.2975	125.88501
1.298	183.5907
1.2985	329.61731
1.299	444.32373
1.2995	534.86023
1.3	563.3606
1.3005	624.89319
1.301	728.52173
1.3015	812.31079
1.302	796.39893
1.3025	644.43054
1.303	542.21191
1.3035	486.62109
1.304	443.31665
1.3045	411.79504
1.305	409.07593
1.3055	451.97754
1.306	430.92957
1.3065	389.8407
1.307	362.2467
1.3075	340.59448
1.308	332.94067
1.3085	297.59216
1.309	294.2688
1.3095	345.42847
1.31	349.5575
1.3105	281.88171
1.311	190.64026
1.3115	103.22571
1.312	30.51453
1.3125	-19.63806
1.313	-35.54993
1.3135	-48.64197
1.314	-48.54126
1.3145	-82.47986
1.315	-184.49707
1.3155	-314.81323
1.316	-460.83984
1.3165	-497.19543
1.317	-461.84692
1.3175	-382.48901
1.318	-283.69446
1.3185	-188.82751
1.319	-110.98022
1.3195	-57.60498
1.32	-3.62549
1.3205	36.4563
1.321	44.51294
1.3215	16.91895
1.322	-51.46179
1.3225	-143.3075
1.323	-206.25
1.3235	-202.82593
1.324	-161.23352
1.3245	-94.3634
1.325	-65.66162
1.3255	-39.37683
1.326	21.3501
1.3265	83.08411
1.327	120.7489
1.3275	96.27686
1.328	59.82056
1.3285	23.56567
1.329	-16.81824
1.3295	-139.37988
1.33	-214.60876
1.3305	-235.75745
1.331	-254.69055
1.3315	-469.70215
1.332	-767.99927
1.3325	-986.53564
1.333	-1128.1311
1.3335	-1166.60156
1.334	-1092.37976
1.3345	-883.71277
1.335	-570.9137
1.3355	-254.48914
1.336	25.27771
1.3365	279.76685
1.337	428.00903
1.3375	446.03577
1.338	385.91309
1.3385	321.15784
1.339	315.21606
1.3395	359.6283
1.34	433.24585
1.3405	581.28662
1.341	708.58154
1.3415	707.87659
1.342	674.64294
1.3425	657.82471
1.343	655.91125
1.3435	628.72009
1.344	563.86414
1.3445	488.23242
1.345	403.23486
1.3455	361.64246
1.346	366.77856
1.3465	377.45361
1.347	372.61963
1.3475	305.04456
1.348	230.92346
1.3485	185.20203
1.349	146.63086
1.3495	112.18872
1.35	76.03455
1.3505	31.82373
1.351	-7.85522
1.3515	-42.7002
1.352	-86.91101
1.3525	-135.65369
1.353	-183.48999
1.3535	-241.69922
1.354	-262.64648
1.3545	-266.5741
1.355	-245.82825
1.3555	-216.92505
1.356	-155.59387
1.3565	-102.21863
1.357	-74.42322
1.3575	-43.10303
1.358	-11.07788
1.3585	0.50354
1.359	-11.17859
1.3595	-21.85364
1.36	-17.6239
1.3605	-14.19983
1.361	5.74036
1.3615	51.46179
1.362	46.42639
1.3625	-7.5531
1.363	-82.58057
1.3635	-154.08325
1.364	-286.01074
1.3645	-431.43311
1.365	-544.5282
1.3655	-593.17017
1.366	-765.48157
1.3665	-869.81506
1.367	-818.45398
1.3675	-659.13391
1.368	-467.7887
1.3685	-260.3302
1.369	-56.90002
1.3695	82.17773
1.37	41.18958
1.3705	-9.97009
1.371	-100.10376
1.3715	-123.36731
1.372	-83.08411
1.3725	-93.96057
1.373	-151.86768
1.3735	-130.11475
1.374	-40.08179
1.3745	74.32251
1.375	251.5686
1.3755	403.83911
1.376	481.18286
1.3765	487.42676
1.377	453.28674
1.3775	453.38745
1.378	479.06799
1.3785	503.94287
1.379	488.63525
1.3795	390.24353
1.38	301.01624
1.3805	264.86206
1.381	231.52771
1.3815	208.06274
1.382	172.41211
1.3825	85.60181
1.383	-46.32568
1.3835	-122.56165
1.384	-105.6427
1.3845	-40.68604
1.385	19.83948
1.3855	69.28711
1.386	106.9519
1.3865	147.23511
1.387	199.9054
1.3875	234.54895
1.388	237.46948
1.3885	241.69922
1.389	242.60559
1.3895	211.99036
1.39	187.11548
1.3905	150.65918
1.391	78.65295
1.3915	62.23755
1.392	74.32251
1.3925	30.51453
1.393	-39.88037
1.3935	-103.42712
1.394	-193.05725
1.3945	-502.23083
1.395	-695.28809
1.3955	-720.6665
1.396	-651.98364
1.3965	-531.33545
1.397	-386.81946
1.3975	-218.93921
1.398	-43.00232
1.3985	103.42712
1.399	229.71497
1.3995	310.48279
1.4	373.42529
1.4005	438.38196
1.401	418.94531
1.4015	364.86511
1.402	308.77075
1.4025	282.88879
1.403	276.34277
1.4035	257.71179
1.404	213.90381
1.4045	150.65918
1.405	69.89136
1.4055	-38.26904
1.406	-133.13599
1.4065	-252.57568
1.407	-348.65112
1.4075	-415.31982
1.408	-455.2002
1.4085	-456.00586
1.409	-398.60229
1.4095	-321.56067
1.41	-244.41833
1.4105	-152.67334
1.411	-61.53259
1.4115	6.04248
1.412	71.80481
1.4125	156.50024
1.413	215.31372
1.4135	227.80151
1.414	214.20593
1.4145	132.53174
1.415	61.23047
1.4155	2.81982
1.416	-23.16284
1.4165	-36.75842
1.417	-28.80249
1.4175	-42.7002
1.418	-175.03052
1.4185	-253.58276
1.419	-258.01392
1.4195	-213.8031
1.42	-158.5144
1.4205	-155.9967
1.421	-233.74329
1.4215	-356.70776
1.422	-359.82971
1.4225	-250.86365
1.423	-112.28943
1.4235	36.75842
1.424	162.94556
1.4245	221.45691
1.425	183.79211
1.4255	142.19971
1.426	151.16272
1.4265	190.23743
1.427	246.02966
1.4275	290.13977
1.428	302.12402
1.4285	327.90527
1.429	375.84229
1.4295	419.85168
1.43	448.9563
1.4305	436.3678
1.431	400.31433
1.4315	350.46387
1.432	299.3042
1.4325	265.16418
1.433	237.6709
1.4335	183.5907
1.434	139.17847
1.4345	103.32642
1.435	54.68445
1.4355	7.04956
1.436	-91.14075
1.4365	-344.72351
1.437	-621.56982
1.4375	-853.70178
1.438	-906.97632
1.4385	-887.23755
1.439	-817.04407
1.4395	-668.09692
1.44	-463.15613
1.4405	-237.26807
1.441	-24.57275
1.4415	145.62378
1.442	272.01233
1.4425	369.39697
1.443	418.7439
1.4435	423.98071
1.444	410.38513
1.4445	418.54248
1.445	443.51807
1.4455	418.24036
1.446	373.82812
1.4465	282.48596
1.447	207.25708
1.4475	161.43494
1.448	135.65369
1.4485	89.328
1.449	49.95117
1.4495	22.35718
1.45	13.797
1.4505	3.12195
1.451	-62.43896
1.4515	-138.07068
1.452	-194.46716
1.4525	-265.86914
1.453	-341.29944
1.4535	-367.68494
1.454	-352.57874
1.4545	-363.15308
1.455	-333.2428
1.4555	-247.23816
1.456	-140.18555
1.4565	-50.95825
1.457	41.29028
1.4575	153.3783
1.458	237.97302
1.4585	271.00525
1.459	277.65198
1.4595	275.83923
1.46	285.20508
1.4605	267.78259
1.461	258.61816
1.4615	272.81799
1.462	268.48755
1.4625	233.03833
1.463	165.46326
1.4635	87.51526
1.464	42.09595
1.4645	14.30054
1.465	8.15735
1.4655	14.19983
1.466	27.39258
1.4665	39.37683
1.467	50.05188
1.4675	51.26038
1.468	11.07788
1.4685	-22.25647
1.469	-60.52551
1.4695	-114.80713
1.47	-169.69299
1.4705	-182.58362
1.471	-172.71423
1.4715	-140.68909
1.472	-120.64819
1.4725	-90.33508
1.473	-68.58215
1.4735	-48.13843
1.474	-28.60107
1.4745	-12.5885
1.475	-2.5177
1.4755	3.02124
1.476	5.84106
1.4765	3.02124
1.477	5.63965
1.4775	22.55859
1.478	49.54834
1.4785	45.2179
1.479	39.07471
1.4795	27.6947
1.48	22.76001
1.4805	16.41541
1.481	16.91895
1.4815	10.57434
1.482	-0.70496
1.4825	-5.43823
1.483	-10.17151
1.4835	-10.57434
1.484	1.3092
1.4845	2.11487
1.485	18.42957
1.4855	43.80798
1.486	31.52161
1.4865	14.60266
1.487	8.66089
1.4875	0.80566
1.488	-7.5531
1.4885	-11.38
1.489	-23.96851
1.4895	-45.72144
1.49	-63.84888
1.4905	-70.09277
1.491	-66.76941
1.4915	-47.93701
1.492	-25.98267
1.4925	-19.43665
1.493	-37.36267
1.4935	-64.25171
1.494	-92.95349
1.4945	-124.17297
1.495	-164.35547
1.4955	-172.51282
1.496	-146.93298
1.4965	-120.04395
1.497	-85.5011
1.4975	-42.09595
1.498	-7.65381
1.4985	30.81665
1.499	64.05029
1.4995	90.83862
1.5	87.91809
1.5005	69.58923
1.501	59.51843
1.5015	65.86304
1.502	102.72217
1.5025	130.31616
1.503	125.7843
1.5035	97.28394
1.504	66.06445
1.5045	46.72852
1.505	37.7655
1.5055	29.00391
1.506	30.31311
1.5065	6.74744
1.507	-57.00073
1.5075	-104.03137
1.508	-118.43262
1.5085	-112.69226
1.509	-101.61438
1.5095	-80.96924
1.51	-44.11011
1.5105	-10.97717
1.511	-8.25806
1.5115	-2.81982
1.512	26.88904
1.5125	38.16833
1.513	-5.0354
1.5135	-32.32727
1.514	-67.27295
1.5145	-132.0282
1.515	-251.06506
1.5155	-328.40881
1.516	-365.67078
1.5165	-356.40564
1.517	-313.00049
1.5175	-247.64099
1.518	-205.34363
1.5185	-149.85352
1.519	-74.32251
1.5195	-3.02124
1.52	36.15417
1.5205	14.09912
1.521	29.20532
1.5215	44.11011
1.522	49.14551
1.5225	87.11243
1.523	138.57422
1.5235	263.55286
1.524	386.61804
1.5245	362.64954
1.525	248.84949
1.5255	131.02112
1.526	25.98267
1.5265	-11.58142
1.527	-38.47046
1.5275	-51.76392
1.528	-17.42249
1.5285	39.88037
1.529	79.76074
1.5295	140.48767
1.53	207.96204
1.5305	241.29639
1.531	240.28931
1.5315	242.80701
1.532	231.12488
1.5325	217.32788
1.533	198.39478
1.5335	184.49707
1.534	198.59619
1.5345	205.14221
1.535	201.2146
1.5355	168.38379
1.536	115.81421
1.5365	78.04871
1.537	58.10852
1.5375	43.10303
1.538	27.6947
1.5385	10.67505
1.539	-14.30054
1.5395	-30.71594
1.54	-39.27612
1.5405	-42.09595
1.541	-67.17224
1.5415	-89.93225
1.542	-101.31226
1.5425	-123.97156
1.543	-134.94873
1.5435	-133.53882
1.544	-116.72058
1.5445	-104.83704
1.545	-78.25012
1.5455	-57.8064
1.546	-44.11011
1.5465	-13.69629
1.547	8.7616
1.5475	22.15576
1.548	17.52319
1.5485	-61.02905
1.549	-116.61987
1.5495	-115.10925
1.55	-74.32251
1.5505	-45.72144
1.551	-29.40674
1.5515	-32.42798
1.552	-16.21399
1.5525	8.56018
1.553	33.13293
1.5535	60.02197
1.554	80.4657
1.5545	124.17297
1.555	134.94873
1.5555	108.96606
1.556	78.75366
1.5565	57.50427
1.557	48.94409
1.5575	34.34143
1.558	31.62231
1.5585	16.91895
1.559	18.32886
1.5595	1.10779
1.56	-16.11328
1.5605	-34.24072
1.561	-68.38074
1.5615	-120.04395
1.562	-196.38062
1.5625	-303.33252
1.563	-464.0625
1.5635	-592.96875
1.564	-659.0332
1.5645	-709.38721
1.565	-670.21179
1.5655	-558.22449
1.566	-398.90442
1.5665	-228.50647
1.567	-61.02905
1.5675	79.45862
1.568	189.43176
1.5685	275.13428
1.569	333.14209
1.5695	365.06653
1.57	396.28601
1.5705	441.10107
1.571	524.68872
1.5715	573.02856
1.572	525.6958
1.5725	464.56604
1.573	407.06177
1.5735	333.34351
1.574	262.14294
1.5745	196.68274
1.575	163.04626
1.5755	138.67493
1.576	116.31775
1.5765	89.22729
1.577	61.73401
1.5775	53.37524
1.578	38.47046
1.5785	30.2124
1.579	21.75293
1.5795	16.21399
1.58	13.29346
1.5805	8.56018
1.581	10.87646
1.5815	8.7616
1.582	4.73328
1.5825	10.47363
1.583	5.84106
1.5835	-11.78284
1.584	-72.00623
1.5845	-161.0321
1.585	-285.70862
1.5855	-392.25769
1.586	-428.61328
1.5865	-445.02869
1.587	-445.53223
1.5875	-481.08215
1.588	-487.52747
1.5885	-439.69116
1.589	-352.47803
1.5895	-253.38135
1.59	-143.71033
1.5905	-71.60339
1.591	-49.24622
1.5915	-19.63806
1.592	34.44214
1.5925	135.45227
1.593	232.6355
1.5935	300.5127
1.594	335.35767
1.5945	360.73608
1.595	379.16565
1.5955	370.80688
1.596	360.03113
1.5965	368.59131
1.597	364.16016
1.5975	346.53625
1.598	318.53943
1.5985	257.40967
1.599	202.82593
1.5995	166.97388
1.6	122.66235
1.6005	88.52234
1.601	48.23914
1.6015	-30.91736
1.602	-198.89832
1.6025	-395.98389
1.603	-509.17969
1.6035	-563.96484
1.604	-571.41724
1.6045	-552.78625
1.605	-503.13721
1.6055	-504.14429
1.606	-558.62732
1.6065	-719.96155
1.607	-831.94885
1.6075	-1031.45142
1.608	-1134.17358
1.6085	-1015.33813
1.609	-755.8136
1.6095	-455.40161
1.61	-114.505
1.6105	212.99744
1.611	472.42126
1.6115	737.08191
1.612	924.2981
1.6125	1058.34045
1.613	1144.64722
1.6135	1150.89111
1.614	1060.55603
1.6145	939.4043
1.615	846.3501
1.6155	750.97961
1.616	648.76099
1.6165	551.77917
1.617	452.88391
1.6175	360.83679
1.618	275.93994
1.6185	189.83459
1.619	113.39722
1.6195	73.71826
1.62	43.20374
1.6205	27.89612
1.621	-23.36426
1.6215	-123.97156
1.622	-343.41431
1.6225	-656.81763
1.623	-849.06921
1.6235	-887.43896
1.624	-805.56335
1.6245	-676.95923
1.625	-522.57385
1.6255	-334.45129
1.626	-154.78821
1.6265	-64.55383
1.627	36.4563
1.6275	161.63635
1.628	257.40967
1.6285	322.36633
1.629	349.5575
1.6295	365.9729
1.63	438.78479
1.6305	539.59351
1.631	596.99707
1.6315	594.58008
1.632	563.3606
1.6325	499.00818
1.633	381.78406
1.6335	243.51196
1.634	138.87634
1.6345	76.7395
1.635	46.82922
1.6355	25.78125
1.636	9.66797
1.6365	-3.7262
1.637	3.8269
1.6375	6.44531
1.638	6.74744
1.6385	3.22266
1.639	4.83398
1.6395	0.10071
1.64	-13.89771
1.6405	-27.59399
1.641	-47.03064
1.6415	-53.77808
1.642	-62.03613
1.6425	-64.75525
1.643	-66.56799
1.6435	-66.06445
1.644	-65.05737
1.6445	-62.33826
1.645	-65.86304
1.6455	-56.79932
1.646	-67.47437
1.6465	-64.65454
1.647	-71.50269
1.6475	-71.09985
1.648	-71.50269
1.6485	-77.44446
1.649	-73.31543
1.6495	-74.82605
1.65	-80.06287
1.6505	-80.06287
1.651	-69.38782
1.6515	-64.05029
1.652	-49.44763
1.6525	-36.55701
1.653	-35.54993
1.6535	-36.05347
1.654	-36.55701
1.6545	-46.62781
1.655	-59.51843
1.6555	-89.93225
1.656	-132.73315
1.6565	-170.19653
1.657	-202.82593
1.6575	-235.75745
1.658	-228.70789
1.6585	-207.5592
1.659	-178.45459
1.6595	-157.2052
1.66	-123.16589
1.6605	-94.3634
1.661	-91.94641
1.6615	-129.20837
1.662	-145.62378
1.6625	-143.10608
1.663	-132.93457
1.6635	-105.44128
1.664	-43.60657
1.6645	44.91577
1.665	96.37756
1.6655	150.9613
1.666	205.44434
1.6665	189.63318
1.667	142.60254
1.6675	16.51611
1.668	-186.30981
1.6685	-339.38599
1.669	-604.55017
1.6695	-776.76086
1.67	-786.52954
1.6705	-695.18738
1.671	-654.60205
1.6715	-795.69397
1.672	-984.7229
1.6725	-980.29175
1.673	-830.53894
1.6735	-568.09387
1.674	-258.01392
1.6745	11.58142
1.675	115.7135
1.6755	72.20764
1.676	26.88904
1.6765	38.06763
1.677	-20.74585
1.6775	13.09204
1.678	169.39087
1.6785	292.65747
1.679	419.44885
1.6795	586.32202
1.68	756.41785
1.6805	872.53418
1.681	930.13916
1.6815	958.03528
1.682	934.3689
1.6825	888.74817
1.683	827.01416
1.6835	789.95361
1.684	847.35718
1.6845	932.35474
1.685	907.47986
1.6855	806.77185
1.686	661.34949
1.6865	472.9248
1.687	320.05005
1.6875	221.96045
1.688	161.53564
1.6885	103.22571
1.689	20.84656
1.6895	-186.41052
1.69	-364.05945
1.6905	-456.30798
1.691	-526.40076
1.6915	-692.66968
1.692	-901.63879
1.6925	-1050.48523
1.693	-1131.15234
1.6935	-1079.48914
1.694	-932.75757
1.6945	-719.55872
1.695	-481.88782
1.6955	-250.36011
1.696	-30.2124
1.6965	159.01794
1.697	232.23267
1.6975	296.98792
1.698	439.28833
1.6985	588.83972
1.699	694.1803
1.6995	687.13074
1.7	722.88208
1.7005	752.38953
1.701	728.42102
1.7015	673.83728
1.702	608.07495
1.7025	526.60217
1.703	458.12073
1.7035	390.14282
1.704	309.07288
1.7045	219.44275
1.705	127.19421
1.7055	45.2179
1.706	-40.2832
1.7065	-129.00696
1.707	-217.83142
1.7075	-331.12793
1.708	-430.32532
1.7085	-485.51331
1.709	-483.80127
1.7095	-459.0271
1.71	-548.65723
1.7105	-659.13391
1.711	-719.15588
1.7115	-663.46436
1.712	-533.75244
1.7125	-428.10974
1.713	-349.75891
1.7135	-241.69922
1.714	-108.96606
1.7145	36.55701
1.715	127.79846
1.7155	162.54272
1.716	189.83459
1.7165	228.00293
1.717	281.57959
1.7175	335.65979
1.718	401.62354
1.7185	482.59277
1.719	532.64465
1.7195	529.82483
1.72	482.59277
1.7205	407.96814
1.721	329.91943
1.7215	291.7511
1.722	261.74011
1.7225	232.73621
1.723	194.76929
1.7235	150.9613
1.724	101.51367
1.7245	90.23438
1.725	77.54517
1.7255	46.42639
1.726	16.51611
1.7265	13.09204
1.727	2.5177
1.7275	-26.98975
1.728	-38.06763
1.7285	-51.15967
1.729	-45.62073
1.7295	-8.7616
1.73	18.73169
1.7305	20.34302
1.731	-3.42407
1.7315	-42.49878
1.732	-80.26428
1.7325	-117.32483
1.733	-155.79529
1.7335	-163.85193
1.734	-161.93848
1.7345	-135.25085
1.735	-127.59705
1.7355	-129.10767
1.736	-183.38928
1.7365	-275.33569
1.737	-359.42688
1.7375	-387.02087
1.738	-371.61255
1.7385	-328.50952
1.739	-279.36401
1.7395	-210.17761
1.74	-124.87793
1.7405	-32.83081
1.741	28.29895
1.7415	56.29578
1.742	46.12427
1.7425	-23.06213
1.743	-83.28552
1.7435	-125.48218
1.744	-160.02502
1.7445	-156.50024
1.745	-116.72058
1.7455	-114.505
1.746	-114.10217
1.7465	-83.48694
1.747	-44.21082
1.7475	7.95593
1.748	82.68127
1.7485	139.37988
1.749	128.90625
1.7495	108.96606
1.75	115.10925
1.7505	155.69458
1.751	178.5553
1.7515	153.07617
1.752	136.86218
1.7525	118.02979
1.753	117.02271
1.7535	116.61987
1.754	160.9314
1.7545	208.36487
1.755	204.33655
1.7555	72.81189
1.756	-178.85742
1.7565	-293.76526
1.757	-347.24121
1.7575	-369.19556
1.758	-423.57788
1.7585	-422.26868
1.759	-368.38989
1.7595	-267.8833
1.76	-154.48608
1.7605	-30.11169
1.761	90.33508
1.7615	211.88965
1.762	311.79199
1.7625	346.63696
1.763	345.8313
1.7635	350.06104
1.764	352.27661
1.7645	325.99182
1.765	285.40649
1.7655	252.67639
1.766	245.72754
1.7665	257.30896
1.767	257.8125
1.7675	212.4939
1.768	144.01245
1.7685	62.43896
1.769	-25.98267
1.7695	-110.37598
1.77	-174.22485
1.7705	-254.48914
1.771	-320.05005
1.7715	-298.69995
1.772	-345.62988
1.7725	-583.90503
1.773	-895.3949
1.7735	-1084.32312
1.774	-1062.06665
1.7745	-923.0896
1.775	-732.65076
1.7755	-525.89722
1.776	-257.51038
1.7765	13.69629
1.777	268.58826
1.7775	509.78394
1.778	696.89941
1.7785	799.62158
1.779	796.60034
1.7795	701.7334
1.78	597.80273
1.7805	541.00342
1.781	539.59351
1.7815	590.55176
1.782	600.82397
1.7825	506.96411
1.783	401.12
1.7835	325.6897
1.784	277.65198
1.7845	235.45532
1.785	201.11389
1.7855	161.13281
1.786	145.8252
1.7865	136.86218
1.787	130.41687
1.7875	133.63953
1.788	114.10217
1.7885	84.69543
1.789	54.68445
1.7895	12.08496
1.79	-36.95984
1.7905	-88.22021
1.791	-118.83545
1.7915	-127.99988
1.792	-142.90466
1.7925	-149.34998
1.793	-159.01794
1.7935	-154.78821
1.794	-130.92041
1.7945	-99.60022
1.795	-75.63171
1.7955	-62.13684
1.796	-53.07312
1.7965	-49.0448
1.797	-61.43188
1.7975	-78.35083
1.798	-86.8103
1.7985	-75.53101
1.799	-55.49011
1.7995	-25.37842
1.8	-0.80566
1.8005	31.4209
1.801	36.95984
1.8015	31.01807
1.802	8.15735
1.8025	-68.58215
1.803	-249.45374
1.8035	-377.85645
1.804	-425.28992
1.8045	-413.90991
1.805	-416.52832
1.8055	-439.69116
1.806	-483.09631
1.8065	-506.25916
1.807	-497.09473
1.8075	-467.08374
1.808	-382.69043
1.8085	-368.89343
1.809	-400.81787
1.8095	-381.0791
1.81	-368.89343
1.8105	-274.53003
1.811	-133.84094
1.8115	4.73328
1.812	172.21069
1.8125	320.45288
1.813	425.49133
1.8135	481.08215
1.814	517.23633
1.8145	563.96484
1.815	624.38965
1.8155	635.56824
1.816	594.07654
1.8165	521.36536
1.817	452.88391
1.8175	403.13416
1.818	381.17981
1.8185	404.9469
1.819	408.37097
1.8195	346.03271
1.82	235.75745
1.8205	12.18567
1.821	-176.84326
1.8215	-272.11304
1.822	-286.31287
1.8225	-252.47498
1.823	-214.70947
1.8235	-168.38379
1.824	-107.15332
1.8245	-31.92444
1.825	24.06921
1.8255	76.94092
1.826	108.36182
1.8265	130.8197
1.827	117.02271
1.8275	59.1156
1.828	-24.87488
1.8285	-161.43494
1.829	-266.5741
1.8295	-265.46631
1.83	-221.55762
1.8305	-259.72595
1.831	-411.69434
1.8315	-466.37878
1.832	-446.33789
1.8325	-375.84229
1.833	-296.98792
1.8335	-162.94556
1.834	32.52869
1.8345	163.14697
1.835	220.55054
1.8355	237.97302
1.836	273.52295
1.8365	322.66846
1.837	357.00989
1.8375	362.34741
1.838	338.2782
1.8385	307.86438
1.839	322.86987
1.8395	359.22546
1.84	374.33167
1.8405	318.74084
1.841	224.98169
1.8415	100.30518
1.842	-38.06763
1.8425	-194.16504
1.843	-272.71729
1.8435	-277.85339
1.844	-249.15161
1.8445	-191.04309
1.845	-122.96448
1.8455	-59.1156
1.846	13.29346
1.8465	71.30127
1.847	119.23828
1.8475	146.02661
1.848	143.50891
1.8485	137.66785
1.849	139.98413
1.8495	145.9259
1.85	112.89368
1.8505	61.73401
1.851	7.35168
1.8515	-32.22656
1.852	-26.48621
1.8525	16.41541
1.853	8.8623
1.8535	-43.80798
1.854	-113.1958
1.8545	-225.78735
1.855	-346.33484
1.8555	-379.06494
1.856	-363.55591
1.8565	-355.29785
1.857	-330.62439
1.8575	-250.15869
1.858	-151.26343
1.8585	-98.89526
1.859	-71.50269
1.8595	-53.37524
1.86	-50.354
1.8605	-49.85046
1.861	-170.09583
1.8615	-351.16882
1.862	-378.25928
1.8625	-247.33887
1.863	-87.91809
1.8635	56.29578
1.864	99.70093
1.8645	108.86536
1.865	157.70874
1.8655	230.41992
1.866	270.401
1.8665	277.14844
1.867	323.57483
1.8675	385.00671
1.868	409.57947
1.8685	411.49292
1.869	366.97998
1.8695	315.41748
1.87	269.0918
1.8705	174.12415
1.871	84.2926
1.8715	43.00232
1.872	33.13293
1.8725	39.17542
1.873	47.43347
1.8735	31.32019
1.874	25.27771
1.8745	46.12427
1.875	73.81897
1.8755	104.03137
1.876	114.20288
1.8765	122.96448
1.877	129.30908
1.8775	94.76624
1.878	66.87012
1.8785	47.8363
1.879	39.47754
1.8795	39.77966
1.88	17.6239
1.8805	6.04248
1.881	-26.58691
1.8815	-111.8866
1.882	-190.03601
1.8825	-230.1178
1.883	-260.93445
1.8835	-295.07446
1.884	-320.95642
1.8845	-304.54102
1.885	-267.07764
1.8855	-237.57019
1.886	-193.35938
1.8865	-111.08093
1.887	-41.69312
1.8875	-5.13611
1.888	10.67505
1.8885	40.2832
1.889	51.46179
1.8895	78.65295
1.89	147.83936
1.8905	219.44275
1.891	233.74329
1.8915	209.47266
1.892	178.5553
1.8925	137.16431
1.893	99.70093
1.8935	82.68127
1.894	34.14001
1.8945	-80.06287
1.895	-149.85352
1.8955	-168.4845
1.896	-173.41919
1.8965	-170.90149
1.897	-157.2052
1.8975	-124.77722
1.898	-83.88977
1.8985	-52.16675
1.899	-32.02515
1.8995	-24.16992
1.9	-22.6593
1.9005	-3.8269
1.901	10.17151
1.9015	38.47046
1.902	68.78357
1.9025	62.9425
1.903	17.6239
1.9035	-5.33752
1.904	-13.69629
1.9045	-76.7395
1.905	-167.17529
1.9055	-305.04456
1.906	-618.34717
1.9065	-860.54993
1.907	-923.29102
1.9075	-823.48938
1.908	-702.33765
1.9085	-577.86255
1.909	-358.92334
1.9095	-115.41138
1.91	132.63245
1.9105	350.8667
1.911	518.04199
1.9115	648.9624
1.912	698.61145
1.9125	709.68933
1.913	698.30933
1.9135	685.51941
1.914	686.6272
1.9145	700.22278
1.915	671.42029
1.9155	554.599
1.916	408.16956
1.9165	307.36084
1.917	227.39868
1.9175	155.19104
1.918	80.06287
1.9185	7.35168
1.919	-27.29187
1.9195	-104.93774
1.92	-304.54102
1.9205	-431.93665
1.921	-469.40002
1.9215	-414.51416
1.922	-359.42688
1.9225	-306.25305
1.923	-223.26965
1.9235	-106.9519
1.924	4.53186
1.9245	94.86694
1.925	159.92432
1.9255	182.18079
1.926	205.84717
1.9265	204.84009
1.927	205.24292
1.9275	200.0061
1.928	177.64893
1.9285	161.13281
1.929	122.76306
1.9295	55.18799
1.93	-13.09204
1.9305	-58.51135
1.931	-66.76941
1.9315	-54.28162
1.932	-29.30603
1.9325	8.35876
1.933	66.16516
1.9335	100.90942
1.934	120.14465
1.9345	122.36023
1.935	89.42871
1.9355	58.10852
1.936	64.25171
1.9365	92.44995
1.937	77.14233
1.9375	25.98267
1.938	-14.40125
1.9385	-56.79932
1.939	-111.8866
1.9395	-170.39795
1.94	-242.60559
1.9405	-342.30652
1.941	-509.17969
1.9415	-612.5061
1.942	-654.80347
1.9425	-625.79956
1.943	-535.16235
1.9435	-401.82495
1.944	-247.84241
1.9445	-133.23669
1.945	-44.41223
1.9455	34.54285
1.946	108.66394
1.9465	172.51282
1.947	188.22327
1.9475	190.03601
1.948	199.09973
1.9485	233.64258
1.949	288.62915
1.9495	329.11377
1.95	339.48669
1.9505	334.35059
1.951	303.1311
1.9515	267.58118
1.952	219.94629
1.9525	187.92114
1.953	187.51831
1.9535	216.62292
1.954	269.49463
1.9545	314.00757
1.955	275.4364
1.9555	74.42322
1.956	-143.60962
1.9565	-297.08862
1.957	-445.53223
1.9575	-576.15051
1.958	-568.4967
1.9585	-456.10657
1.959	-312.19482
1.9595	-148.4436
1.96	12.89062
1.9605	149.95422
1.961	240.28931
1.9615	310.48279
1.962	359.729
1.9625	379.36707
1.963	376.34583
1.9635	372.51892
1.964	348.55042
1.9645	315.7196
1.965	308.77075
1.9655	315.6189
1.966	288.83057
1.9665	207.25708
1.967	122.96448
1.9675	47.23206
1.968	-118.53333
1.9685	-341.90369
1.969	-404.44336
1.9695	-361.94458
1.97	-294.87305
1.9705	-236.4624
1.971	-253.07922
1.9715	-284.90295
1.972	-261.23657
1.9725	-189.33105
1.973	-113.80005
1.9735	-47.13135
1.974	10.97717
1.9745	44.11011
1.975	83.28552
1.9755	76.84021
1.976	49.24622
1.9765	12.48779
1.977	-144.01245
1.9775	-473.12622
1.978	-698.91357
1.9785	-761.15112
1.979	-687.03003
1.9795	-538.88855
1.98	-324.27979
1.9805	-123.16589
1.981	66.97083
1.9815	230.62134
1.982	365.9729
1.9825	433.34656
1.983	451.17188
1.9835	453.18604
1.984	457.21436
1.9845	462.95471
1.985	462.45117
1.9855	432.84302
1.986	393.6676
1.9865	312.29553
1.987	236.36169
1.9875	195.77637
1.988	151.96838
1.9885	106.04553
1.989	80.56641
1.9895	72.61047
1.99	73.81897
1.9905	70.49561
1.991	65.05737
1.9915	70.29419
1.992	74.82605
1.9925	85.29968
1.993	75.4303
1.9935	46.32568
1.994	45.2179
1.9945	46.62781
1.995	-55.08728
1.9955	-200.81177
1.996	-333.54492
1.9965	-430.1239
1.997	-528.71704
1.9975	-576.95618
1.998	-548.25439
1.9985	-517.13562
1.999	-544.5282
1.9995	-521.8689
2	-414.01062
2.0005	-255.2948
2.001	-102.11792
2.0015	34.64355
2.002	162.13989
2.0025	285.20508
2.003	386.31592
2.0035	465.271
2.004	502.83508
2.0045	525.29297
2.005	521.66748
2.0055	475.54321
2.006	426.90125
2.0065	347.54333
2.007	270.19958
2.0075	210.88257
2.008	149.95422
2.0085	109.3689
2.009	79.86145
2.0095	78.45154
2.01	73.91968
2.0105	72.81189
2.011	13.09204
2.0115	-118.93616
2.012	-263.04932
2.0125	-295.77942
2.013	-297.29004
2.0135	-277.85339
2.014	-231.12488
2.0145	-191.1438
2.015	-142.70325
2.0155	-274.83215
2.016	-471.51489
2.0165	-582.69653
2.017	-583.09937
2.0175	-508.67615
2.018	-398.40088
2.0185	-257.91321
2.019	-116.31775
2.0195	4.93469
2.02	30.11169
2.0205	85.70251
2.021	171.70715
2.0215	238.77869
2.022	316.32385
2.0225	370.90759
2.023	344.01855
2.0235	278.55835
2.024	226.29089
2.0245	87.91809
2.025	-40.1825
2.0255	-108.05969
2.026	-112.39014
2.0265	-76.94092
2.027	-73.81897
2.0275	-26.3855
2.028	66.06445
2.0285	169.59229
2.029	244.21692
2.0295	313.40332
2.03	355.70068
2.0305	369.6991
2.031	401.01929
2.0315	398.30017
2.032	342.50793
2.0325	284.09729
2.033	227.80151
2.0335	174.52698
2.034	140.99121
2.0345	129.00696
2.035	108.86536
2.0355	68.58215
2.036	46.72852
2.0365	-4.73328
2.037	-66.97083
2.0375	-115.00854
2.038	-129.30908
2.0385	-120.44678
2.039	-119.4397
2.0395	-112.39014
2.04	-94.76624
2.0405	-72.50977
2.041	-55.49011
2.0415	-58.51135
2.042	-56.49719
2.0425	-132.12891
2.043	-234.54895
2.0435	-260.63232
2.044	-220.95337
2.0445	-159.92432
2.045	-94.46411
2.0455	-14.70337
2.046	50.95825
2.0465	88.11951
2.047	96.07544
2.0475	62.23755
2.048	5.94177
2.0485	-50.75684
2.049	-139.17847
2.0495	-194.56787
2.05	-283.09021
2.0505	-288.72986
2.051	-230.21851
2.0515	-163.34839
2.052	-86.8103
2.0525	-30.51453
2.053	-7.25098
2.0535	26.3855
2.054	66.46729
2.0545	119.33899
2.055	155.49316
2.0555	74.82605
2.056	-95.77332
2.0565	-151.16272
2.057	-151.36414
2.0575	-147.83936
2.058	-100.80872
2.0585	-18.8324
2.059	77.34375
2.0595	143.81104
2.06	151.06201
2.0605	106.24695
2.061	42.29736
2.0615	-9.56726
2.062	-156.19812
2.0625	-367.1814
2.063	-643.22205
2.0635	-1016.44592
2.064	-1053.20435
2.0645	-886.6333
2.065	-613.51318
2.0655	-292.05322
2.066	-1.91345
2.0665	261.5387
2.067	491.35437
2.0675	676.25427
2.068	840.50903
2.0685	942.22412
2.069	997.71423
2.0695	975.8606
2.07	914.63013
2.0705	800.42725
2.071	620.26062
2.0715	462.45117
2.072	283.09021
2.0725	156.80237
2.073	50.2533
2.0735	-50.65613
2.074	-111.78589
2.0745	-139.27917
2.075	-176.0376
2.0755	-204.73938
2.076	-276.04065
2.0765	-405.75256
2.077	-523.48022
2.0775	-549.46289
2.078	-489.94446
2.0785	-374.83521
2.079	-240.49072
2.0795	-95.16907
2.08	-34.44214
2.0805	-75.73242
2.081	-58.20923
2.0815	-20.34302
2.082	31.11877
2.0825	52.56958
2.083	91.8457
2.0835	131.92749
2.084	112.18872
2.0845	141.29333
2.085	178.5553
2.0855	251.36719
2.086	332.23572
2.0865	357.91626
2.087	346.33484
2.0875	312.89978
2.088	287.72278
2.0885	297.69287
2.089	342.60864
2.0895	384.70459
2.09	373.62671
2.0905	321.56067
2.091	233.54187
2.0915	-5.43823
2.092	-195.07141
2.0925	-291.95251
2.093	-358.01697
2.0935	-392.86194
2.094	-373.22388
2.0945	-319.04297
2.095	-255.2948
2.0955	-224.47815
2.096	-147.43652
2.0965	-66.36658
2.097	32.42798
2.0975	110.07385
2.098	148.3429
2.0985	159.42078
2.099	166.57104
2.0995	160.83069
2.1	171.30432
2.1005	174.12415
2.101	97.98889
2.1015	-134.04236
2.102	-446.23718
2.1025	-657.42188
2.103	-708.98438
2.1035	-640.30151
2.104	-603.6438
2.1045	-534.75952
2.105	-358.62122
2.1055	-192.15088
2.106	-114.80713
2.1065	-75.93384
2.107	-3.92761
2.1075	59.01489
2.108	57.60498
2.1085	65.76233
2.109	123.06519
2.1095	263.95569
2.11	379.06494
2.1105	461.14197
2.111	512.30164
2.1115	485.31189
2.112	441.90674
2.1125	442.00745
2.113	480.57861
2.1135	489.03809
2.114	491.25366
2.1145	473.22693
2.115	435.56213
2.1155	401.42212
2.116	291.44897
2.1165	175.63477
2.117	115.00854
2.1175	66.56799
2.118	22.76001
2.1185	-112.08801
2.119	-289.83765
2.1195	-420.15381
2.12	-473.73047
2.1205	-499.71313
2.121	-439.08691
2.1215	-340.7959
2.122	-237.77161
2.1225	-157.80945
2.123	-118.83545
2.1235	-168.58521
2.124	-215.51514
2.1245	-238.07373
2.125	-212.39319
2.1255	-265.16418
2.126	-367.48352
2.1265	-457.31506
2.127	-486.7218
2.1275	-408.7738
2.128	-291.34827
2.1285	-144.11316
2.129	5.53894
2.1295	138.77563
2.13	232.33337
2.1305	317.83447
2.131	403.43628
2.1315	507.56836
2.132	558.62732
2.1325	555.00183
2.133	524.08447
2.1335	492.9657
2.134	494.07349
2.1345	481.88782
2.135	441.80603
2.1355	375.33875
2.136	307.96509
2.1365	249.25232
2.137	196.58203
2.1375	158.31299
2.138	101.31226
2.1385	-1.3092
2.139	-89.22729
2.1395	-187.61902
2.14	-403.7384
2.1405	-502.02942
2.141	-501.12305
2.1415	-471.51489
2.142	-706.36597
2.1425	-1018.35938
2.143	-1129.74243
2.1435	-1207.38831
2.144	-1126.92261
2.1445	-891.97083
2.145	-684.91516
2.1455	-450.36621
2.146	-182.28149
2.1465	59.71985
2.147	237.57019
2.1475	374.93591
2.148	524.18518
2.1485	684.31091
2.149	855.31311
2.1495	908.58765
2.15	880.59082
2.1505	829.53186
2.151	738.59253
2.1515	675.14648
2.152	660.64453
2.1525	633.25195
2.153	546.64307
2.1535	423.27576
2.154	298.0957
2.1545	182.48291
2.155	108.05969
2.1555	97.68677
2.156	76.7395
2.1565	53.97949
2.157	10.17151
2.1575	-20.24231
2.158	-40.78674
2.1585	-65.96375
2.159	-144.21387
2.1595	-204.53796
2.16	-265.26489
2.1605	-383.89893
2.161	-513.71155
2.1615	-672.02454
2.162	-802.23999
2.1625	-995.49866
2.163	-1020.47424
2.1635	-859.94568
2.164	-623.18115
2.1645	-407.86743
2.165	-160.72998
2.1655	123.46802
2.166	364.16016
2.1665	523.07739
2.167	624.08752
2.1675	668.80188
2.168	655.40771
2.1685	598.30627
2.169	522.87598
2.1695	497.49756
2.17	535.96802
2.1705	620.56274
2.171	592.56592
2.1715	505.45349
2.172	397.79663
2.1725	273.32153
2.173	192.75513
2.1735	157.91016
2.174	149.75281
2.1745	127.39563
2.175	77.64587
2.1755	13.89771
2.176	-47.33276
2.1765	-89.63013
2.177	-113.90076
2.1775	-194.87
2.178	-291.24756
2.1785	-319.04297
2.179	-373.82812
2.1795	-450.16479
2.18	-466.07666
2.1805	-442.51099
2.181	-513.91296
2.1815	-603.44238
2.182	-774.54529
2.1825	-1013.22327
2.183	-1192.58423
2.1835	-1186.23962
2.184	-1042.5293
2.1845	-829.02832
2.185	-658.02612
2.1855	-491.55579
2.186	-373.42529
2.1865	-122.56165
2.187	126.58997
2.1875	392.76123
2.188	612.70752
2.1885	753.90015
2.189	863.57117
2.1895	927.92358
2.19	944.94324
2.1905	946.35315
2.191	870.41931
2.1915	726.20544
2.192	527.20642
2.1925	389.94141
2.193	309.57642
2.1935	250.76294
2.194	228.00293
2.1945	237.26807
2.195	256.80542
2.1955	246.5332
2.196	229.11072
2.1965	187.4176
2.197	98.29102
2.1975	-13.99841
2.198	-115.51208
2.1985	-210.78186
2.199	-368.4906
2.1995	-484.80835
2.2	-503.23792
2.2005	-439.89258
2.201	-352.37732
2.2015	-249.25232
2.202	-109.4696
2.2025	51.26038
2.203	181.87866
2.2035	242.90771
2.204	299.90845
2.2045	322.56775
2.205	297.29004
2.2055	268.18542
2.206	246.5332
2.2065	257.20825
2.207	265.06348
2.2075	267.07764
2.208	263.55286
2.2085	273.12012
2.209	238.67798
2.2095	175.23193
2.21	106.54907
2.2105	64.65454
2.211	80.86853
2.2115	29.60815
2.212	-244.72046
2.2125	-454.39453
2.213	-600.01831
2.2135	-660.64453
2.214	-676.35498
2.2145	-760.74829
2.215	-841.81824
2.2155	-949.17297
2.216	-974.14856
2.2165	-923.0896
2.217	-1105.06897
2.2175	-1169.92493
2.218	-1199.23096
2.2185	-1092.37976
2.219	-827.5177
2.2195	-486.31897
2.22	-95.16907
2.2205	249.45374
2.221	520.05615
2.2215	749.5697
2.222	933.86536
2.2225	1047.16187
2.223	1092.78259
2.2235	1078.48206
2.224	1054.31213
2.2245	1009.69849
2.225	1006.57654
2.2255	1001.74255
2.226	957.22961
2.2265	844.83948
2.227	716.23535
2.2275	588.5376
2.228	472.52197
2.2285	337.77466
2.229	257.20825
2.2295	206.95496
2.23	171.40503
2.2305	128.40271
2.231	86.40747
2.2315	86.30676
2.232	96.37756
2.2325	60.22339
2.233	-41.59241
2.2335	-138.17139
2.234	-182.78503
2.2345	-214.91089
2.235	-236.16028
2.2355	-393.96973
2.236	-587.12769
2.2365	-668.39905
2.237	-654.80347
2.2375	-558.4259
2.238	-438.18054
2.2385	-350.56458
2.239	-289.43481
2.2395	-215.51514
2.24	-204.03442
2.2405	-258.11462
2.241	-295.67871
2.2415	-266.97693
2.242	-250.66223
2.2425	-192.05017
2.243	-171.70715
2.2435	-290.74402
2.244	-383.5968
2.2445	-431.83594
2.245	-425.0885
2.2455	-264.66064
2.246	-44.71436
2.2465	196.1792
2.247	424.48425
2.2475	613.51318
2.248	700.02136
2.2485	739.39819
2.249	755.71289
2.2495	710.69641
2.25	595.78857
2.2505	414.01062
2.251	270.401
2.2515	258.31604
2.252	310.07996
2.2525	317.02881
2.253	288.22632
2.2535	285.00366
2.254	277.9541
2.2545	242.60559
2.255	203.32947
2.2555	162.74414
2.256	136.56006
2.2565	96.8811
2.257	58.00781
2.2575	5.53894
2.258	-21.95435
2.2585	-96.98181
2.259	-338.17749
2.2595	-568.19458
2.26	-825.60425
2.2605	-1178.3844
2.261	-1367.71545
2.2615	-1297.52197
2.262	-1074.55444
2.2625	-779.98352
2.263	-467.48657
2.2635	-164.85901
2.264	115.91492
2.2645	363.15308
2.265	542.81616
2.2655	640.40222
2.266	686.92932
2.2665	705.66101
2.267	696.19446
2.2675	655.91125
2.268	628.51868
2.2685	612.30469
2.269	578.26538
2.2695	507.66907
2.27	434.15222
2.2705	296.7865
2.271	157.00378
2.2715	66.06445
2.272	-6.14319
2.2725	-83.58765
2.273	-199.09973
2.2735	-289.33411
2.274	-331.93359
2.2745	-329.5166
2.275	-307.36084
2.2755	-289.93835
2.276	-279.56543
2.2765	-252.67639
2.277	-251.06506
2.2775	-377.55432
2.278	-413.40637
2.2785	-303.1311
2.279	-122.96448
2.2795	16.41541
2.28	115.91492
2.2805	202.4231
2.281	278.15552
2.2815	354.39148
2.282	388.33008
2.2825	366.57715
2.283	330.42297
2.2835	301.01624
2.284	204.63867
2.2845	64.65454
2.285	-68.07861
2.2855	-208.16345
2.286	-334.04846
2.2865	-518.74695
2.287	-763.16528
2.2875	-959.84802
2.288	-1126.41907
2.2885	-1250.18921
2.289	-1267.00745
2.2895	-1123.29712
2.29	-1102.24915
2.2905	-991.47034
2.291	-735.672
2.2915	-457.01294
2.292	-166.47034
2.2925	141.09192
2.293	416.52832
2.2935	670.61462
2.294	882.8064
2.2945	1112.01782
2.295	1242.93823
2.2955	1293.69507
2.296	1291.17737
2.2965	1205.67627
2.297	1037.69531
2.2975	832.45239
2.298	614.52026
2.2985	426.297
2.299	324.38049
2.2995	189.33105
2.3	-93.35632
2.3005	-311.48987
2.301	-385.51025
2.3015	-349.85962
2.302	-303.53394
2.3025	-403.03345
2.303	-530.32837
2.3035	-676.75781
2.304	-691.46118
2.3045	-600.11902
2.305	-415.52124
2.3055	-235.05249
2.306	-124.27368
2.3065	-44.71436
2.307	40.38391
2.3075	124.4751
2.308	185.30273
2.3085	121.35315
2.309	32.93152
2.3095	27.6947
2.31	127.99988
2.3105	225.48523
2.311	308.87146
2.3115	402.32849
2.312	477.96021
2.3125	352.27661
2.313	167.57812
2.3135	111.58447
2.314	153.78113
2.3145	252.17285
2.315	303.0304
2.3155	334.45129
2.316	343.61572
2.3165	320.05005
2.317	230.01709
2.3175	194.36646
2.318	162.13989
2.3185	92.75208
2.319	47.53418
2.3195	36.15417
2.32	52.26746
2.3205	86.10535
2.321	113.90076
2.3215	14.60266
2.322	-58.61206
2.3225	-139.68201
2.323	-204.63867
2.3235	-269.59534
2.324	-324.68262
2.3245	-370.50476
2.325	-364.86511
2.3255	-272.51587
2.326	-127.09351
2.3265	-30.61523
2.327	62.9425
2.3275	174.92981
2.328	303.1311
2.3285	351.57166
2.329	367.58423
2.3295	359.6283
2.33	352.37732
2.3305	351.97449
2.331	307.46155
2.3315	223.26965
2.332	135.25085
2.3325	30.71594
2.333	-5.23682
2.3335	-0.70496
2.334	-54.78516
2.3345	-210.27832
2.335	-550.06714
2.3355	-958.3374
2.336	-1227.22778
2.3365	-1242.03186
2.337	-1096.50879
2.3375	-852.19116
2.338	-626.90735
2.3385	-497.49756
2.339	-314.4104
2.3395	-138.27209
2.34	6.64673
2.3405	171.50574
2.341	289.2334
2.3415	383.29468
2.342	467.99011
2.3425	571.41724
2.343	712.81128
2.3435	783.20618
2.344	766.08582
2.3445	671.11816
2.345	599.41406
2.3455	553.28979
2.346	489.54163
2.3465	413.90991
2.347	165.26184
2.3475	-80.86853
2.348	-295.77942
2.3485	-549.76501
2.349	-988.5498
2.3495	-1366.70837
2.35	-1513.54065
2.3505	-1495.61462
2.351	-1276.27258
2.3515	-923.29102
2.352	-543.3197
2.3525	-207.05566
2.353	-9.56726
2.3535	-17.72461
2.354	18.42957
2.3545	137.16431
2.355	327.70386
2.3555	498.0011
2.356	648.25745
2.3565	756.82068
2.357	803.85132
2.3575	900.22888
2.358	969.51599
2.3585	912.11243
2.359	790.45715
2.3595	659.73816
2.36	558.3252
2.3605	483.19702
2.361	417.43469
2.3615	373.32458
2.362	353.08228
2.3625	356.90918
2.363	357.1106
2.3635	346.83838
2.364	320.25146
2.3645	298.69995
2.365	327.09961
2.3655	332.94067
2.366	311.79199
2.3665	265.76843
2.367	166.36963
2.3675	52.97241
2.368	-58.71277
2.3685	-329.21448
2.369	-886.02905
2.3695	-1261.46851
2.37	-1515.85693
2.3705	-1569.13147
2.371	-1502.76489
2.3715	-1450.49744
2.372	-1211.81946
2.3725	-904.55933
2.373	-589.34326
2.3735	-288.72986
2.374	-76.63879
2.3745	29.70886
2.375	93.35632
2.3755	-17.72461
2.376	-424.78638
2.3765	-809.69238
2.377	-876.66321
2.3775	-648.76099
2.378	-363.75732
2.3785	58.91418
2.379	513.71155
2.3795	888.34534
2.38	1121.38367
2.3805	1215.94849
2.381	1150.28687
2.3815	1102.75269
2.382	1122.89429
2.3825	1165.99731
2.383	1144.84863
2.3835	1055.21851
2.384	940.51208
2.3845	919.3634
2.385	884.61914
2.3855	802.03857
2.386	693.87817
2.3865	567.79175
2.387	428.71399
2.3875	268.28613
2.388	148.3429
2.3885	22.76001
2.389	-93.55774
2.3895	-200.30823
2.39	-336.96899
2.3905	-606.1615
2.391	-1215.74707
2.3915	-1699.24622
2.392	-2135.4126
2.3925	-2809.854
2.393	-3272.20459
2.3935	-3256.39331
2.394	-3214.80103
2.3945	-2721.93604
2.395	-1880.72205
2.3955	-957.43103
2.396	-60.72693
2.3965	800.22583
2.397	1462.07886
2.3975	1973.27271
2.398	2315.47852
2.3985	2515.58521
2.399	2674.70386
2.3995	2667.35229
2.4	2428.97632
2.4005	2072.97363
2.401	1797.1344
2.4015	1584.33838
2.402	1367.71545
2.4025	1091.47339
2.403	701.12915
2.4035	350.46387
2.404	41.08887
2.4045	-290.74402
2.405	-479.06799
2.4055	-605.65796
2.406	-702.53906
2.4065	-734.76562
2.407	-759.6405
2.4075	-900.83313
2.408	-1370.73669
2.4085	-1768.02979
2.409	-1981.53076
2.4095	-1892.7063
2.41	-1592.39502
2.4105	-1223.19946
2.411	-861.85913
2.4115	-537.27722
2.412	-86.8103
2.4125	395.78247
2.413	868.60657
2.4135	1167.70935
2.414	1373.55652
2.4145	1541.23535
2.415	1581.31714
2.4155	1495.61462
2.416	1410.01282
2.4165	1377.78625
2.417	1288.96179
2.4175	1123.90137
2.418	981.80237
2.4185	787.13379
2.419	570.20874
2.4195	360.43396
2.42	219.24133
2.4205	134.5459
2.421	70.69702
2.4215	11.68213
2.422	-35.54993
2.4225	-79.05579
2.423	-106.34766
2.4235	-156.90308
2.424	-206.75354
2.4245	-267.17834
2.425	-317.93518
2.4255	-465.271
2.426	-823.18726
2.4265	-1040.41443
2.427	-1039.10522
2.4275	-913.62305
2.428	-716.94031
2.4285	-520.45898
2.429	-325.58899
2.4295	-173.31848
2.43	-59.92126
2.4305	32.42798
2.431	67.47437
2.4315	57.8064
2.432	73.31543
2.4325	92.44995
2.433	64.85596
2.4335	33.73718
2.434	54.18091
2.4345	76.03455
2.435	89.42871
2.4355	111.18164
2.436	49.34692
2.4365	-53.07312
2.437	-73.91968
2.4375	-45.01648
2.438	-4.33044
2.4385	37.06055
2.439	42.59949
2.4395	-26.88904
2.44	-141.09192
2.4405	-194.36646
2.441	-201.61743
2.4415	-203.02734
2.442	-180.36804
2.4425	-155.896
2.443	-121.45386
2.4435	-122.66235
2.444	-202.32239
2.4445	-428.71399
2.445	-585.41565
2.4455	-675.95215
2.446	-682.49817
2.4465	-512.50305
2.447	-318.43872
2.4475	-202.72522
2.448	-163.85193
2.4485	-306.45447
2.449	-392.3584
2.4495	-449.76196
2.45	-530.93262
2.4505	-486.21826
2.451	-336.66687
2.4515	-294.47021
2.452	-312.19482
2.4525	-231.62842
2.453	-133.74023
2.4535	-545.43457
2.454	-1059.14612
2.4545	-1091.77551
2.455	-815.23132
2.4555	-393.36548
2.456	59.51843
2.4565	429.92249
2.457	740.40527
2.4575	989.25476
2.458	1098.22083
2.4585	1147.66846
2.459	1182.61414
2.4595	949.97864
2.46	548.65723
2.4605	377.55432
2.461	392.3584
2.4615	457.8186
2.462	558.3252
2.4625	567.79175
2.463	500.61951
2.4635	478.16162
2.464	475.4425
2.4645	522.47314
2.465	573.33069
2.4655	569.20166
2.466	539.59351
2.4665	490.04517
2.467	408.7738
2.4675	341.60156
2.468	284.39941
2.4685	221.25549
2.469	193.15796
2.4695	192.453
2.47	175.53406
2.4705	184.49707
2.471	226.99585
2.4715	261.94153
2.472	262.74719
2.4725	244.41833
2.473	256.604
2.4735	217.42859
2.474	151.66626
2.4745	9.26514
2.475	-270.70312
2.4755	-579.07104
2.476	-769.7113
2.4765	-913.0188
2.477	-1100.13428
2.4775	-1346.66748
2.478	-1418.47229
2.4785	-1372.24731
2.479	-1366.40625
2.4795	-1228.13416
2.48	-1021.98486
2.4805	-885.4248
2.481	-751.38245
2.4815	-496.18835
2.482	-161.0321
2.4825	186.1084
2.483	361.74316
2.4835	484.80835
2.484	555.00183
2.4845	595.48645
2.485	586.0199
2.4855	503.54004
2.486	528.81775
2.4865	669.20471
2.487	657.92542
2.4875	447.7478
2.488	190.64026
2.4885	121.25244
2.489	165.36255
2.4895	235.35461
2.49	-181.87866
2.4905	-1013.42468
2.491	-1576.98669
2.4915	-1703.07312
2.492	-1639.72778
2.4925	-1379.29688
2.493	-946.25244
2.4935	-434.55505
2.494	-3.62549
2.4945	97.48535
2.495	30.81665
2.4955	-82.37915
2.496	-486.62109
2.4965	-942.62695
2.497	-934.77173
2.4975	-663.76648
2.498	-319.14368
2.4985	154.18396
2.499	651.37939
2.4995	1129.23889
2.5	1512.63428
2.5005	1715.25879
2.501	1799.34998
2.5015	1841.1438
2.502	1780.41687
2.5025	1674.77417
2.503	1629.45557
2.5035	1555.43518
2.504	1498.93799
2.5045	1540.22827
2.505	1476.88293
2.5055	1190.9729
2.506	806.87256
2.5065	500.41809
2.507	324.98474
2.5075	228.00293
2.508	144.41528
2.5085	63.64746
2.509	-38.47046
2.5095	-168.88733
2.51	-335.25696
2.5105	-605.75867
2.511	-750.37537
2.5115	-935.17456
2.512	-975.75989
2.5125	-863.47046
2.513	-685.21729
2.5135	-462.45117
2.514	-230.52063
2.5145	6.74744
2.515	212.89673
2.5155	370.70618
2.516	446.94214
2.5165	449.05701
2.517	304.54102
2.5175	115.61279
2.518	-25.47913
2.5185	-133.03528
2.519	-269.59534
2.5195	-331.83289
2.52	-326.19324
2.5205	-296.7865
2.521	-236.76453
2.5215	-142.40112
2.522	-67.67578
2.5225	20.94727
2.523	77.04163
2.5235	119.13757
2.524	139.17847
2.5245	178.5553
2.525	213.29956
2.5255	218.73779
2.526	194.36646
2.5265	168.4845
2.527	128.10059
2.5275	28.60107
2.528	-248.84949
2.5285	-654.29993
2.529	-1043.73779
2.5295	-1304.77295
2.53	-1343.04199
2.5305	-1223.19946
2.531	-1023.29407
2.5315	-836.78284
2.532	-791.56494
2.5325	-972.73865
2.533	-1081.40259
2.5335	-1123.49854
2.534	-1017.95654
2.5345	-853.19824
2.535	-733.55713
2.5355	-490.64941
2.536	-109.67102
2.5365	341.19873
2.537	743.62793
2.5375	1119.16809
2.538	1414.44397
2.5385	1531.7688
2.539	1531.26526
2.5395	1415.35034
2.54	1262.07275
2.5405	1158.2428
2.541	1039.81018
2.5415	885.82764
2.542	571.11511
2.5425	170.90149
2.543	-34.34143
2.5435	-85.80322
2.544	-92.04712
2.5445	-119.84253
2.545	-153.68042
2.5455	-98.19031
2.546	22.86072
2.5465	145.32166
2.547	274.32861
2.5475	353.78723
2.548	376.44653
2.5485	291.14685
2.549	99.49951
2.5495	-119.13757
2.55	-319.24438
2.5505	-425.99487
2.551	-421.56372
2.5515	-338.47961
2.552	-252.87781
2.5525	-192.05017
2.553	-134.94873
2.5535	-161.33423
2.554	-243.61267
2.5545	-283.99658
2.555	-497.49756
2.5555	-798.21167
2.556	-1113.52844
2.5565	-1212.42371
2.557	-1128.33252
2.5575	-865.58533
2.558	-485.81543
2.5585	-295.67871
2.559	-198.59619
2.5595	-94.76624
2.56	84.89685
2.5605	278.55835
2.561	477.55737
2.5615	662.45728
2.562	759.43909
2.5625	812.71362
2.563	837.18567
2.5635	821.37451
2.564	793.98193
2.5645	722.47925
2.565	569.40308
2.5655	271.10596
2.566	50.05188
2.5665	-45.72144
2.567	-141.99829
2.5675	-276.14136
2.568	-719.05518
2.5685	-1304.37012
2.569	-1815.16113
2.5695	-2229.37305
2.57	-2443.47827
2.5705	-2368.75293
2.571	-1923.92578
2.5715	-1288.25684
2.572	-636.27319
2.5725	19.73877
2.573	633.75549
2.5735	1148.07129
2.574	1536.60278
2.5745	1795.12024
2.575	1960.78491
2.5755	1942.55676
2.576	1795.22095
2.5765	1681.32019
2.577	1579.40369
2.5775	1463.28735
2.578	1265.1947
2.5785	897.40906
2.579	407.76672
2.5795	63.34534
2.58	-56.09436
2.5805	-27.99683
2.581	77.44446
2.5815	101.61438
2.582	-18.8324
2.5825	-210.78186
2.583	-407.26318
2.5835	-590.04822
2.584	-853.70178
2.5845	-1260.1593
2.585	-1423.70911
2.5855	-1265.49683
2.586	-921.07544
2.5865	-493.87207
2.587	-60.72693
2.5875	265.16418
2.588	511.19385
2.5885	698.91357
2.589	785.92529
2.5895	784.31396
2.59	766.79077
2.5905	805.05981
2.591	794.88831
2.5915	697.50366
2.592	542.61475
2.5925	399.30725
2.593	311.48987
2.5935	266.37268
2.594	277.55127
2.5945	333.2428
2.595	282.38525
2.5955	177.85034
2.596	95.67261
2.5965	39.98108
2.597	-19.73877
2.5975	-57.8064
2.598	-63.94958
2.5985	-108.26111
2.599	-242.00134
2.5995	-416.93115
2.6	-621.56982
2.6005	-1041.11938
2.601	-1331.05774
2.6015	-1402.15759
2.602	-1322.09473
2.6025	-1163.47961
2.603	-986.63635
2.6035	-724.09058
2.604	-372.41821
2.6045	-8.35876
2.605	318.84155
2.6055	527.50854
2.606	405.55115
2.6065	-133.53882
2.607	-433.54797
2.6075	-512.60376
2.608	-452.6825
2.6085	-329.5166
2.609	-200.30823
2.6095	38.87329
2.61	403.03345
2.6105	710.69641
2.611	927.62146
2.6115	1026.11389
2.612	1025.20752
2.6125	978.17688
2.613	916.34216
2.6135	851.48621
2.614	798.81592
2.6145	759.13696
2.615	722.68066
2.6155	670.41321
2.616	608.88062
2.6165	522.77527
2.617	386.61804
2.6175	260.93445
2.618	143.81104
2.6185	78.65295
2.619	41.08887
2.6195	-95.77332
2.62	-196.27991
2.6205	-289.03198
2.621	-366.67786
2.6215	-411.49292
2.622	-513.71155
2.6225	-729.12598
2.623	-831.84814
2.6235	-903.95508
2.624	-1267.30957
2.6245	-1583.12988
2.625	-1592.99927
2.6255	-1619.7876
2.626	-1553.2196
2.6265	-1256.03027
2.627	-827.01416
2.6275	-376.54724
2.628	64.95667
2.6285	427.20337
2.629	711.30066
2.6295	933.56323
2.63	1093.68896
2.6305	1226.72424
2.631	1294.50073
2.6315	1236.49292
2.632	1157.0343
2.6325	1142.12952
2.633	1080.2948
2.6335	924.60022
2.634	772.53113
2.6345	651.98364
2.635	494.2749
2.6355	330.32227
2.636	52.97241
2.6365	-136.96289
2.637	-243.91479
2.6375	-266.07056
2.638	-251.5686
2.6385	-220.047
2.639	-206.65283
2.6395	-265.3656
2.64	-376.95007
2.6405	-423.67859
2.641	-415.92407
2.6415	-437.47559
2.642	-485.4126
2.6425	-529.22058
2.643	-596.29211
2.6435	-683.80737
2.644	-767.1936
2.6445	-770.41626
2.645	-672.02454
2.6455	-583.90503
2.646	-505.25208
2.6465	-389.03503
2.647	-424.68567
2.6475	-358.31909
2.648	-223.97461
2.6485	-19.23523
2.649	175.63477
2.6495	317.63306
2.65	412.60071
2.6505	513.40942
2.651	616.33301
2.6515	782.2998
2.652	899.52393
2.6525	927.52075
2.653	925.10376
2.6535	872.43347
2.654	825.60425
2.6545	814.52637
2.655	775.45166
2.6555	676.45569
2.656	532.94678
2.6565	393.06335
2.657	262.54578
2.6575	184.09424
2.658	26.68762
2.6585	-206.85425
2.659	-417.73682
2.6595	-543.01758
2.66	-610.79407
2.6605	-611.29761
2.661	-565.67688
2.6615	-506.7627
2.662	-494.77844
2.6625	-930.23987
2.663	-1425.01831
2.6635	-1535.495
2.664	-1361.06873
2.6645	-1066.59851
2.665	-943.02979
2.6655	-1139.91394
2.666	-1586.05042
2.6665	-1540.02686
2.667	-1222.59521
2.6675	-878.87878
2.668	-538.48572
2.6685	-124.17297
2.669	263.35144
2.6695	637.98523
2.67	1022.4884
2.6705	1317.16003
2.671	1512.23145
2.6715	1562.58545
2.672	1517.9718
2.6725	1494.90967
2.673	1460.76965
2.6735	1410.71777
2.674	1338.91296
2.6745	1224.50867
2.675	1072.84241
2.6755	849.57275
2.676	704.2511
2.6765	646.74683
2.677	574.43848
2.6775	498.80676
2.678	412.29858
2.6785	284.09729
2.679	144.51599
2.6795	53.47595
2.68	-4.12903
2.6805	-41.39099
2.681	-71.7041
2.6815	-94.56482
2.682	-118.73474
2.6825	-171.30432
2.683	-405.75256
2.6835	-710.89783
2.684	-1024.30115
2.6845	-1327.33154
2.685	-1402.2583
2.6855	-1305.67932
2.686	-1086.5387
2.6865	-846.65222
2.687	-595.48645
2.6875	-333.64563
2.688	-111.28235
2.6885	15.20691
2.689	59.82056
2.6895	64.85596
2.69	93.0542
2.6905	116.82129
2.691	170.29724
2.6915	246.93604
2.692	352.27661
2.6925	449.96338
2.693	540.49988
2.6935	587.63123
2.694	595.58716
2.6945	587.3291
2.695	560.8429
2.6955	477.65808
2.696	399.00513
2.6965	352.78015
2.697	255.89905
2.6975	137.86926
2.698	95.77332
2.6985	81.27136
2.699	89.12659
2.6995	83.08411
2.7	57.8064
2.7005	47.33276
2.701	18.8324
2.7015	-9.56726
2.702	-35.2478
2.7025	-57.60498
2.703	-61.6333
2.7035	-58.61206
2.704	-38.67188
2.7045	-34.74426
2.705	-14.80408
2.7055	-9.76868
2.706	-6.74744
2.7065	-13.69629
2.707	-43.90869
2.7075	-78.35083
2.708	-91.8457
2.7085	-97.88818
2.709	-91.24146
2.7095	-93.0542
2.71	-105.94482
2.7105	-128.10059
2.711	-148.64502
2.7115	-224.88098
2.712	-418.54248
2.7125	-592.56592
2.713	-838.49487
2.7135	-1130.04456
2.714	-1253.31116
2.7145	-1254.92249
2.715	-1320.18127
2.7155	-1339.21509
2.716	-1287.35046
2.7165	-1276.77612
2.717	-1324.10889
2.7175	-1296.41418
2.718	-1034.37195
2.7185	-659.53674
2.719	-218.93921
2.7195	150.25635
2.72	429.01611
2.7205	735.57129
2.721	1024.80469
2.7215	1268.21594
2.722	1465.90576
2.7225	1501.75781
2.723	1458.35266
2.7235	1355.83191
2.724	1221.68884
2.7245	1188.65662
2.725	1232.56531
2.7255	1242.63611
2.726	1173.75183
2.7265	1036.38611
2.727	870.11719
2.7275	728.42102
2.728	593.97583
2.7285	478.76587
2.729	366.97998
2.7295	231.22559
2.73	-92.65137
2.7305	-579.27246
2.731	-940.7135
2.7315	-1156.22864
2.732	-1117.25464
2.7325	-906.17065
2.733	-665.17639
2.7335	-403.7384
2.734	-158.91724
2.7345	53.47595
2.735	257.10754
2.7355	374.53308
2.736	430.72815
2.7365	435.66284
2.737	409.78088
2.7375	340.99731
2.738	305.85022
2.7385	304.74243
2.739	307.96509
2.7395	258.71887
2.74	184.8999
2.7405	116.72058
2.741	63.84888
2.7415	16.3147
2.742	-7.15027
2.7425	-50.65613
2.743	-298.59924
2.7435	-559.23157
2.744	-779.27856
2.7445	-933.96606
2.745	-1145.45288
2.7455	-1220.98389
2.746	-1086.13586
2.7465	-843.8324
2.747	-544.83032
2.7475	-285.00366
2.748	-87.81738
2.7485	81.27136
2.749	203.32947
2.7495	288.93127
2.75	331.12793
2.7505	290.13977
2.751	290.94543
2.7515	355.80139
2.752	436.77063
2.7525	514.92004
2.753	578.06396
2.7535	549.06006
2.754	444.92798
2.7545	99.3988
2.755	-245.72754
2.7555	-436.26709
2.756	-814.32495
2.7565	-1387.45422
2.757	-1612.93945
2.7575	-1832.58362
2.758	-1867.22717
2.7585	-1563.89465
2.759	-1062.46948
2.7595	-524.89014
2.76	45.82214
2.7605	554.49829
2.761	954.91333
2.7615	1231.05469
2.762	1424.01123
2.7625	1537.20703
2.763	1585.44617
2.7635	1609.31396
2.764	1628.75061
2.7645	1471.54541
2.765	1224.00513
2.7655	1029.43726
2.766	884.31702
2.7665	689.64844
2.767	467.68799
2.7675	323.07129
2.768	253.38135
2.7685	233.64258
2.769	229.81567
2.7695	224.07532
2.77	145.32166
2.7705	69.58923
2.771	6.74744
2.7715	-36.75842
2.772	-77.54517
2.7725	-115.81421
2.773	-166.57104
2.7735	-258.92029
2.774	-441.30249
2.7745	-576.0498
2.775	-609.18274
2.7755	-768.50281
2.776	-973.64502
2.7765	-1109.39941
2.777	-1436.1969
2.7775	-1556.74438
2.778	-1390.47546
2.7785	-1124.50562
2.779	-975.55847
2.7795	-1022.4884
2.78	-1377.18201
2.7805	-2022.3175
2.781	-2534.61914
2.7815	-2554.4585
2.782	-2134.70752
2.7825	-1601.76086
2.783	-928.52783
2.7835	-242.30347
2.784	428.71399
2.7845	1128.1311
2.785	1744.06128
2.7855	2241.35742
2.786	2489.40112
2.7865	2496.45068
2.787	2416.38794
2.7875	2292.91992
2.788	2131.38428
2.7885	1968.74084
2.789	1833.38928
2.7895	1711.73401
2.79	1528.54614
2.7905	1269.02161
2.791	1005.36804
2.7915	729.83093
2.792	504.94995
2.7925	312.49695
2.793	190.33813
2.7935	86.40747
2.794	-2.11487
2.7945	-124.87793
2.795	-311.48987
2.7955	-449.15771
2.796	-506.56128
2.7965	-535.7666
2.797	-663.86719
2.7975	-854.80957
2.798	-940.31067
2.7985	-884.41772
2.799	-753.59802
2.7995	-716.63818
2.8	-767.1936
2.8005	-798.41309
2.801	-789.7522
2.8015	-703.34473
2.802	-532.04041
2.8025	-304.54102
2.803	-70.59631
2.8035	108.26111
2.804	237.06665
2.8045	353.58582
2.805	414.51416
2.8055	388.93433
2.806	459.73206
2.8065	535.26306
2.807	550.67139
2.8075	393.96973
2.808	77.44446
2.8085	-158.5144
2.809	-462.95471
2.8095	-685.11658
2.81	-701.53198
2.8105	-552.68555
2.811	-300.00916
2.8115	-57.00073
2.812	185.30273
2.8125	357.71484
2.813	327.50244
2.8135	235.55603
2.814	-70.29419
2.8145	-286.01074
2.815	-322.06421
2.8155	-228.10364
2.816	-18.8324
2.8165	206.65283
2.817	358.52051
2.8175	481.28357
2.818	636.57532
2.8185	732.34863
2.819	742.31873
2.8195	691.15906
2.82	640.20081
2.8205	576.35193
2.821	464.46533
2.8215	260.73303
2.822	-83.78906
2.8225	-292.05322
2.823	-384.90601
2.8235	-383.39539
2.824	-312.29553
2.8245	-189.33105
2.825	-54.48303
2.8255	50.65613
2.826	55.2887
2.8265	57.9071
2.827	43.40515
2.8275	-72.10693
2.828	-345.22705
2.8285	-646.74683
2.829	-754.30298
2.8295	-690.4541
2.83	-530.93262
2.8305	-330.32227
2.831	-129.71191
2.8315	101.21155
2.832	236.76453
2.8325	288.42773
2.833	329.21448
2.8335	319.74792
2.834	286.41357
2.8345	239.08081
2.835	98.19031
2.8355	-267.17834
2.836	-746.04492
2.8365	-1155.32227
2.837	-1274.56055
2.8375	-1237.39929
2.838	-993.98804
2.8385	-629.22363
2.839	-223.8739
2.8395	180.16663
2.84	518.24341
2.8405	799.42017
2.841	986.0321
2.8415	1038.70239
2.842	1001.44043
2.8425	915.73792
2.843	820.87097
2.8435	770.61768
2.844	771.82617
2.8445	767.59644
2.845	633.75549
2.8455	385.10742
2.846	57.30286
2.8465	-269.89746
2.847	-679.98047
2.8475	-978.3783
2.848	-1036.58752
2.8485	-960.95581
2.849	-897.40906
2.8495	-771.32263
2.85	-573.83423
2.8505	-389.43787
2.851	-294.57092
2.8515	-265.26489
2.852	-171.90857
2.8525	-7.15027
2.853	168.28308
2.8535	245.62683
2.854	276.74561
2.8545	329.21448
2.855	453.68958
2.8555	403.6377
2.856	270.401
2.8565	218.8385
2.857	205.64575
2.8575	68.48145
2.858	-150.45776
2.8585	-440.1947
2.859	-511.8988
2.8595	-335.25696
2.86	-103.22571
2.8605	-10.37292
2.861	-16.71753
2.8615	66.87012
2.862	197.79053
2.8625	339.88953
2.863	430.92957
2.8635	501.22375
2.864	638.48877
2.8645	678.06702
2.865	456.10657
2.8655	46.72852
2.866	-203.02734
2.8665	-357.91626
2.867	-424.68567
2.8675	-345.93201
2.868	-362.85095
2.8685	-448.55347
2.869	-421.56372
2.8695	-214.20593
2.87	63.14392
2.8705	310.07996
2.871	479.57153
2.8715	624.08752
2.872	727.91748
2.8725	769.00635
2.873	738.99536
2.8735	659.23462
2.874	488.63525
2.8745	232.13196
2.875	-99.3988
2.8755	-234.54895
2.876	-224.47815
2.8765	-295.37659
2.877	-628.72009
2.8775	-732.75146
2.878	-604.04663
2.8785	-379.66919
2.879	-300.41199
2.8795	-278.15552
2.88	-180.16663
2.8805	-15.1062
2.881	158.11157
2.8815	239.98718
2.882	197.99194
2.8825	176.13831
2.883	118.93616
2.8835	-123.97156
2.884	-346.13342
2.8845	-433.14514
2.885	-455.70374
2.8855	-454.39453
2.886	-368.38989
2.8865	-199.50256
2.887	5.43823
2.8875	199.80469
2.888	366.37573
2.8885	506.25916
2.889	651.98364
2.8895	730.33447
2.89	749.77112
2.8905	718.24951
2.891	527.30713
2.8915	214.40735
2.892	49.44763
2.8925	-30.31311
2.893	-50.2533
2.8935	-46.12427
2.894	-81.7749
2.8945	-176.23901
2.895	-416.52832
2.8955	-551.47705
2.896	-528.11279
2.8965	-608.98132
2.897	-677.8656
2.8975	-636.07178
2.898	-492.46216
2.8985	-288.42773
2.899	-47.33276
2.8995	157.91016
2.9	383.29468
2.9005	589.54468
2.901	716.33606
2.9015	721.17004
2.902	581.58875
2.9025	289.63623
2.903	74.92676
2.9035	-111.08093
2.904	-185.90698
2.9045	-133.3374
2.905	-63.94958
2.9055	-18.22815
2.906	-28.60107
2.9065	-97.88818
2.907	-285.91003
2.9075	-463.65967
2.908	-599.41406
2.9085	-553.49121
2.909	-411.49292
2.9095	-227.80151
2.91	-0.70496
2.9105	218.23425
2.911	421.96655
2.9115	625.0946
2.912	744.73572
2.9125	749.06616
2.913	681.18896
2.9135	612.10327
2.914	557.1167
2.9145	330.92651
2.915	79.35791
2.9155	-13.69629
2.916	-25.57983
2.9165	-114.4043
2.917	-185.10132
2.9175	-320.15076
2.918	-395.37964
2.9185	-516.8335
2.919	-581.28662
2.9195	-512.10022
2.92	-350.16174
2.9205	-289.53552
2.921	-393.16406
2.9215	-675.54932
2.922	-866.29028
2.9225	-828.32336
2.923	-619.55566
2.9235	-310.28137
2.924	-66.06445
2.9245	-109.67102
2.925	-44.21082
2.9255	86.50818
2.926	249.95728
2.9265	434.75647
2.927	613.11035
2.9275	708.68225
2.928	707.07092
2.9285	716.53748
2.929	763.3667
2.9295	780.58777
2.93	758.73413
2.9305	704.2511
2.931	619.15283
2.9315	512.70447
2.932	452.7832
2.9325	389.33716
2.933	268.38684
2.9335	90.5365
2.934	6.84814
2.9345	14.60266
2.935	-52.8717
2.9355	-185.20203
2.936	-301.11694
2.9365	-410.58655
2.937	-540.39917
2.9375	-801.43433
2.938	-953.50342
2.9385	-1004.26025
2.939	-893.48145
2.9395	-684.1095
2.94	-406.65894
2.9405	-153.57971
2.941	-2.41699
2.9415	143.20679
2.942	297.59216
2.9425	382.69043
2.943	341.50085
2.9435	242.40417
2.944	-36.65771
2.9445	-538.38501
2.945	-1425.92468
2.9455	-2142.46216
2.946	-2297.85449
2.9465	-2191.30542
2.947	-1706.19507
2.9475	-1019.9707
2.948	-301.62048
2.9485	294.87305
2.949	691.86401
2.9495	1003.75671
2.95	1174.5575
2.9505	1363.18359
2.951	1313.63525
2.9515	1130.24597
2.952	874.95117
2.9525	388.93433
2.953	56.19507
2.9535	146.22803
2.954	406.65894
2.9545	576.55334
2.955	546.94519
2.9555	290.13977
2.956	-140.8905
2.9565	-362.04529
2.957	-394.27185
2.9575	-524.28589
2.958	-812.81433
2.9585	-873.64197
2.959	-825
2.9595	-744.43359
2.96	-640.50293
2.9605	-320.05005
2.961	89.93225
2.9615	478.96729
2.962	708.68225
2.9625	716.94031
2.963	797.40601
2.9635	869.41223
2.964	672.22595
2.9645	404.34265
2.965	228.00293
2.9655	267.48047
2.966	410.48584
2.9665	618.75
2.967	909.2926
2.9675	1133.67004
2.968	1210.51025
2.9685	1321.89331
2.969	1359.25598
2.9695	1196.41113
2.97	919.86694
2.9705	729.4281
2.971	629.82788
2.9715	611.90186
2.972	598.00415
2.9725	594.8822
2.973	525.09155
2.9735	415.11841
2.974	300.91553
2.9745	222.96753
2.975	191.04309
2.9755	128.90625
2.976	50.354
2.9765	-88.52234
2.977	-313.80615
2.9775	-557.1167
2.978	-877.46887
2.9785	-1096.6095
2.979	-1171.13342
2.9795	-1152.09961
2.98	-1075.05798
2.9805	-975.8606
2.981	-835.17151
2.9815	-722.98279
2.982	-724.59412
2.9825	-666.38489
2.983	-532.34253
2.9835	-510.89172
2.984	-680.68542
2.9845	-816.43982
2.985	-894.1864
2.9855	-1031.75354
2.986	-1255.52673
2.9865	-1381.51245
2.987	-1289.86816
2.9875	-1021.38062
2.988	-536.27014
2.9885	-6.2439
2.989	397.79663
2.9895	699.71924
2.99	987.94556
2.9905	1136.28845
2.991	1231.1554
2.9915	1240.72266
2.992	1238.30566
2.9925	1206.88477
2.993	1210.81238
2.9935	1236.1908
2.994	1177.98157
2.9945	1105.06897
2.995	1077.17285
2.9955	1000.33264
2.996	844.83948
2.9965	623.28186
2.997	418.64319
2.9975	273.22083
2.998	86.91101
2.9985	-302.52686
2.999	-624.49036
2.9995	-753.09448
3	-753.79944
3.0005	-648.05603
3.001	-470.60852
3.0015	-266.5741
3.002	-92.85278
3.0025	-33.53577
3.003	-145.12024
3.0035	-349.25537
3.004	-459.73206
3.0045	-437.677
3.005	-386.01379
3.0055	-371.31042
3.006	-346.93909
3.0065	-421.16089
3.007	-706.46667
3.0075	-1080.69763
3.008	-1202.95715
3.0085	-1079.48914
3.009	-831.74744
3.0095	-439.08691
3.01	-49.85046
3.0105	264.45923
3.011	519.55261
3.0115	793.5791
3.012	1009.29565
3.0125	1093.58826
3.013	1118.26172
3.0135	1114.93835
3.014	1077.57568
3.0145	1034.67407
3.015	921.17615
3.0155	638.28735
3.016	404.84619
3.0165	345.62988
3.017	325.08545
3.0175	267.8833
3.018	181.87866
3.0185	108.66394
3.019	55.18799
3.0195	23.06213
3.02	-0.10071
3.0205	-21.65222
3.021	-69.99207
3.0215	-108.1604
3.022	-189.12964
3.0225	-463.96179
3.023	-807.87964
3.0235	-973.4436
3.024	-1196.51184
3.0245	-1344.14978
3.025	-1336.39526
3.0255	-1250.49133
3.026	-1222.09167
3.0265	-1374.16077
3.027	-1453.92151
3.0275	-1491.88843
3.028	-1422.60132
3.0285	-1168.71643
3.029	-960.55298
3.0295	-941.51917
3.03	-683.10242
3.0305	-189.33105
3.031	338.47961
3.0315	844.53735
3.032	1132.15942
3.0325	1269.82727
3.033	1442.74292
3.0335	1524.92065
3.034	1560.26917
3.0345	1524.11499
3.035	1387.1521
3.0355	1242.43469
3.036	1187.04529
3.0365	1146.9635
3.037	1027.62451
3.0375	826.10779
3.038	521.9696
3.0385	53.37524
3.039	-353.18298
3.0395	-540.49988
3.04	-609.9884
3.0405	-632.84912
3.041	-766.99219
3.0415	-1061.4624
3.042	-1092.48047
3.0425	-867.09595
3.043	-554.90112
3.0435	-565.979
3.044	-745.44067
3.0445	-626.10168
3.045	-363.85803
3.0455	-64.05029
3.046	264.86206
3.0465	522.57385
3.047	691.05835
3.0475	847.45789
3.048	918.15491
3.0485	892.67578
3.049	789.95361
3.0495	617.4408
3.05	391.1499
3.0505	154.58679
3.051	-32.52869
3.0515	-17.42249
3.052	127.09351
3.0525	261.23657
3.053	385.91309
3.0535	595.68787
3.054	783.91113
3.0545	799.31946
3.055	603.03955
3.0555	71.30127
3.056	-474.1333
3.0565	-903.45154
3.057	-1379.80042
3.0575	-1716.06445
3.058	-1815.06042
3.0585	-1597.1283
3.059	-1214.94141
3.0595	-802.74353
3.06	-377.95715
3.0605	-20.1416
3.061	185.20203
3.0615	245.72754
3.062	150.75989
3.0625	16.91895
3.063	-49.0448
3.0635	148.04077
3.064	385.91309
3.0645	617.34009
3.065	794.38477
3.0655	953.50342
3.066	1043.23425
3.0665	1099.42932
3.067	1082.8125
3.0675	1021.07849
3.068	914.63013
3.0685	788.84583
3.069	699.51782
3.0695	664.67285
3.07	631.43921
3.0705	572.92786
3.071	461.34338
3.0715	205.84717
3.072	-175.43335
3.0725	-396.58813
3.073	-483.09631
3.0735	-512.50305
3.074	-622.07336
3.0745	-828.62549
3.075	-963.67493
3.0755	-920.5719
3.076	-859.64355
3.0765	-804.65698
3.077	-1137.29553
3.0775	-1709.01489
3.078	-2000.06104
3.0785	-2026.24512
3.079	-1811.43494
3.0795	-1376.07422
3.08	-745.23926
3.0805	-58.10852
3.081	552.38342
3.0815	1059.14612
3.082	1442.4408
3.0825	1687.86621
3.083	1819.89441
3.0835	1787.56714
3.084	1650.10071
3.0845	1504.27551
3.085	1302.25525
3.0855	1122.08862
3.086	991.16821
3.0865	803.14636
3.087	598.70911
3.0875	410.98938
3.088	300.5127
3.0885	247.33887
3.089	183.38928
3.0895	119.74182
3.09	44.21082
3.0905	-8.66089
3.091	-39.57825
3.0915	-65.86304
3.092	-96.17615
3.0925	-172.51282
3.093	-322.16492
3.0935	-456.30798
3.094	-535.06165
3.0945	-628.21655
3.095	-729.93164
3.0955	-778.37219
3.096	-883.81348
3.0965	-1258.54797
3.097	-1517.77039
3.0975	-1675.37842
3.098	-1851.51672
3.0985	-1815.16113
3.099	-1541.63818
3.0995	-1085.83374
3.1	-533.04749
3.1005	23.36426
3.101	530.32837
3.1015	969.71741
3.102	1254.82178
3.1025	1379.39758
3.103	1427.93884
3.1035	1401.35193
3.104	1309.30481
3.1045	1072.54028
3.105	899.82605
3.1055	775.35095
3.106	704.15039
3.1065	510.08606
3.107	221.55762
3.1075	42.29736
3.108	-93.0542
3.1085	-362.44812
3.109	-490.14587
3.1095	-396.68884
3.11	-161.23352
3.1105	20.64514
3.111	176.84326
3.1115	142.099
3.112	-252.57568
3.1125	-575.24414
3.113	-659.43604
3.1135	-711.60278
3.114	-879.28162
3.1145	-880.99365
3.115	-826.71204
3.1155	-713.51624
3.116	-483.39844
3.1165	-203.12805
3.117	40.48462
3.1175	204.13513
3.118	245.224
3.1185	-97.78748
3.119	-660.2417
3.1195	-933.66394
3.12	-997.91565
3.1205	-991.16821
3.121	-821.67664
3.1215	-954.81262
3.122	-992.47742
3.1225	-662.96082
3.123	-165.76538
3.1235	72.81189
3.124	222.96753
3.1245	515.12146
3.125	891.76941
3.1255	1280.50232
3.126	1580.51147
3.1265	1813.75122
3.127	1947.49146
3.1275	1884.85107
3.128	1737.71667
3.1285	1634.59167
3.129	1616.26282
3.1295	1539.62402
3.13	1351.50146
3.1305	1059.64966
3.131	772.63184
3.1315	492.66357
3.132	250.56152
3.1325	-95.97473
3.133	-564.87122
3.1335	-1100.13428
3.134	-1450.90027
3.1345	-1639.02283
3.135	-1807.30591
3.1355	-1873.06824
3.136	-1949.90845
3.1365	-2511.35547
3.137	-2641.16821
3.1375	-2317.89551
3.138	-1719.08569
3.1385	-1056.72913
3.139	-425.28992
3.1395	134.5459
3.14	586.12061
3.1405	1055.82275
3.141	1585.14404
3.1415	1983.44421
3.142	2089.1875
3.1425	2037.82654
3.143	1878.80859
3.1435	1754.3335
3.144	1609.41467
3.1445	1577.59094
3.145	1553.1189
3.1455	1335.08606
3.146	974.95422
3.1465	639.79797
3.147	237.46948
3.1475	-160.22644
3.148	-505.15137
3.1485	-1167.91077
3.149	-1847.18628
3.1495	-2253.24097
3.15	-2409.23755
3.1505	-2114.86816
3.151	-1512.13074
3.1515	-854.80957
3.152	-287.92419
3.1525	114.80713
3.153	493.77136
3.1535	749.5697
3.154	825.90637
3.1545	841.81824
3.155	842.22107
3.1555	833.45947
3.156	859.44214
3.1565	980.49316
3.157	1033.96912
3.1575	959.44519
3.158	820.77026
3.1585	670.71533
3.159	523.37952
3.1595	398.19946
3.16	331.32935
3.1605	300.10986
3.161	235.95886
3.1615	152.97546
3.162	77.84729
3.1625	-20.44373
3.163	-146.02661
3.1635	-371.20972
3.164	-532.24182
3.1645	-703.64685
3.165	-1013.52539
3.1655	-1203.76282
3.166	-1170.02563
3.1665	-1122.59216
3.167	-1166.29944
3.1675	-1043.53638
3.168	-766.99219
3.1685	-458.72498
3.169	-220.75195
3.1695	-35.34851
3.17	120.14465
3.1705	276.44348
3.171	387.02087
3.1715	463.76038
3.172	517.33704
3.1725	578.16467
3.173	613.51318
3.1735	595.48645
3.174	498.20251
3.1745	352.67944
3.175	186.30981
3.1755	32.7301
3.176	-74.2218
3.1765	-220.85266
3.177	-392.25769
3.1775	-501.72729
3.178	-515.22217
3.1785	-608.98132
3.179	-696.09375
3.1795	-844.73877
3.18	-1003.25317
3.1805	-979.28467
3.181	-905.06287
3.1815	-763.97095
3.182	-573.73352
3.1825	-388.73291
3.183	-219.84558
3.1835	-11.88354
3.184	263.45215
3.1845	523.58093
3.185	681.99463
3.1855	603.84521
3.186	385.10742
3.1865	152.87476
3.187	140.48767
3.1875	178.5553
3.188	311.59058
3.1885	493.56995
3.189	628.51868
3.1895	684.1095
3.19	682.69958
3.1905	712.81128
3.191	705.15747
3.1915	606.56433
3.192	424.88708
3.1925	277.14844
3.193	222.46399
3.1935	219.94629
3.194	236.16028
3.1945	300.00916
3.195	362.85095
3.1955	403.7384
3.196	408.7738
3.1965	371.20972
3.197	281.37817
3.1975	141.09192
3.198	-40.38391
3.1985	-506.25916
3.199	-1047.66541
3.1995	-1359.35669
3.2	-1412.3291
3.2005	-1311.31897
3.201	-1240.62195
3.2015	-1076.16577
3.202	-856.52161
3.2025	-886.73401
3.203	-892.47437
3.2035	-774.7467
3.204	-582.49512
3.2045	-329.81873
3.205	-63.04321
3.2055	79.05579
3.206	346.33484
3.2065	628.31726
3.207	816.84265
3.2075	928.02429
3.208	929.4342
3.2085	885.3241
3.209	825
3.2095	740.10315
3.21	681.99463
3.2105	524.28589
3.211	268.89038
3.2115	159.82361
3.212	186.41052
3.2125	225.38452
3.213	270.30029
3.2135	340.29236
3.214	395.07751
3.2145	438.58337
3.215	355.49927
3.2155	249.25232
3.216	207.05566
3.2165	213.8031
3.217	188.12256
3.2175	-89.63013
3.218	-837.28638
3.2185	-1275.76904
3.219	-1246.76514
3.2195	-940.31067
3.22	-572.42432
3.2205	-237.87231
3.221	98.79456
3.2215	405.34973
3.222	621.97266
3.2225	748.76404
3.223	804.45557
3.2235	806.36902
3.224	773.33679
3.2245	717.34314
3.225	648.35815
3.2255	581.08521
3.226	427.20337
3.2265	144.21387
3.227	-87.01172
3.2275	-212.39319
3.228	-360.73608
3.2285	-440.79895
3.229	-588.94043
3.2295	-840.40833
3.23	-1029.33655
3.2305	-1181.20422
3.231	-1100.33569
3.2315	-845.34302
3.232	-566.78467
3.2325	-296.28296
3.233	-57.20215
3.2335	148.14148
3.234	286.31287
3.2345	175.03052
3.235	76.33667
3.2355	23.06213
3.236	18.73169
3.2365	96.7804
3.237	226.3916
3.2375	394.07043
3.238	537.68005
3.2385	550.97351
3.239	410.08301
3.2395	245.12329
3.24	131.92749
3.2405	87.51526
3.241	100.80872
3.2415	165.26184
3.242	287.11853
3.2425	464.76746
3.243	535.26306
3.2435	541.10413
3.244	375.13733
3.2445	141.79688
3.245	-112.49084
3.2455	-478.66516
3.246	-766.08582
3.2465	-896.40198
3.247	-811.70654
3.2475	-576.15051
3.248	-285.10437
3.2485	-67.97791
3.249	127.99988
3.2495	300.41199
3.25	325.38757
3.2505	113.59863
3.251	-32.83081
3.2515	-83.48694
3.252	-56.29578
3.2525	-164.65759
3.253	-277.04773
3.2535	-590.65247
3.254	-837.18567
3.2545	-971.73157
3.255	-990.36255
3.2555	-935.87952
3.256	-704.85535
3.2565	-367.1814
3.257	-45.2179
3.2575	308.56934
3.258	677.16064
3.2585	928.93066
3.259	1068.51196
3.2595	1150.6897
3.26	1165.99731
3.2605	1090.96985
3.261	1000.03052
3.2615	896.90552
3.262	622.97974
3.2625	333.14209
3.263	130.71899
3.2635	50.85754
3.264	33.63647
3.2645	-97.28394
3.265	-342.00439
3.2655	-678.46985
3.266	-810.09521
3.2665	-793.78052
3.267	-652.48718
3.2675	-430.22461
3.268	-227.39868
3.2685	-63.04321
3.269	100.80872
3.2695	241.4978
3.27	396.28601
3.2705	523.88306
3.271	553.59192
3.2715	506.7627
3.272	361.94458
3.2725	201.81885
3.273	-20.74585
3.2735	-428.00903
3.274	-842.12036
3.2745	-998.82202
3.275	-919.56482
3.2755	-706.16455
3.276	-509.88464
3.2765	-375.94299
3.277	-313.80615
3.2775	-222.76611
3.278	-221.25549
3.2785	-223.97461
3.279	-220.24841
3.2795	-172.3114
3.28	-418.7439
3.2805	-555.00183
3.281	-379.7699
3.2815	-72.40906
3.282	206.25
3.2825	471.11206
3.283	572.62573
3.2835	565.979
3.284	676.5564
3.2845	764.97803
3.285	798.71521
3.2855	836.58142
3.286	877.16675
3.2865	943.83545
3.287	969.81812
3.2875	867.49878
3.288	708.98438
3.2885	565.67688
3.289	505.15137
3.2895	509.07898
3.29	470.80994
3.2905	367.98706
3.291	282.18384
3.2915	190.23743
3.292	94.06128
3.2925	-41.18958
3.293	-171.70715
3.2935	-342.00439
3.294	-635.66895
3.2945	-832.5531
3.295	-975.9613
3.2955	-1073.9502
3.296	-1113.52844
3.2965	-1083.11462
3.297	-1007.98645
3.2975	-788.64441
3.298	-505.85632
3.2985	-200.61035
3.299	14.19983
3.2995	197.28699
3.3	389.13574
3.3005	524.28589
3.301	566.78467
3.3015	521.66748
3.302	304.44031
3.3025	-136.56006
3.303	-443.41736
3.3035	-413.40637
3.304	-208.46558
3.3045	-184.09424
3.305	-309.97925
3.3055	-537.88147
3.306	-787.03308
3.3065	-965.78979
3.307	-1019.9707
3.3075	-876.46179
3.308	-626.50452
3.3085	-470.3064
3.309	-282.38525
3.3095	-43.70728
3.31	181.17371
3.3105	428.61328
3.311	646.34399
3.3115	720.36438
3.312	713.81836
3.3125	759.13696
3.313	747.55554
3.3135	600.92468
3.314	565.17334
3.3145	617.84363
3.315	672.42737
3.3155	730.13306
3.316	668.09692
3.3165	465.97595
3.317	417.63611
3.3175	438.8855
3.318	417.23328
3.3185	408.47168
3.319	382.79114
3.3195	375.33875
3.32	372.82104
3.3205	331.22864
3.321	207.96204
3.3215	44.11011
3.322	-208.16345
3.3225	-350.96741
3.323	-389.63928
3.3235	-286.81641
3.324	-230.41992
3.3245	-263.95569
3.325	-250.36011
3.3255	-210.37903
3.326	-152.1698
3.3265	-81.17065
3.327	-40.68604
3.3275	-166.26892
3.328	-337.97607
3.3285	-439.08691
3.329	-614.82239
3.3295	-845.34302
3.33	-865.68604
3.3305	-777.2644
3.331	-609.68628
3.3315	-391.1499
3.332	-238.07373
3.3325	-135.95581
3.333	-23.56567
3.3335	117.22412
3.334	244.72046
3.3345	356.60706
3.335	381.0791
3.3355	351.16882
3.336	327.70386
3.3365	304.23889
3.337	223.16895
3.3375	184.79919
3.338	188.52539
3.3385	236.36169
3.339	341.09802
3.3395	421.06018
3.34	445.33081
3.3405	458.42285
3.341	499.41101
3.3415	536.27014
3.342	464.66675
3.3425	261.6394
3.343	31.52161
3.3435	-228.20435
3.344	-411.59363
3.3445	-438.07983
3.345	-419.85168
3.3455	-332.33643
3.346	-237.87231
3.3465	-123.2666
3.347	6.2439
3.3475	-61.43188
3.348	-262.34436
3.3485	-542.21191
3.349	-741.21094
3.3495	-988.85193
3.35	-970.12024
3.3505	-705.35889
3.351	-316.22314
3.3515	117.72766
3.352	551.27563
3.3525	900.12817
3.353	1053.20435
3.3535	1050.48523
3.354	968.71033
3.3545	868.20374
3.355	742.82227
3.3555	596.69495
3.356	431.83594
3.3565	120.64819
3.357	-345.62988
3.3575	-1113.62915
3.358	-2124.73755
3.3585	-2976.72729
3.359	-3264.55078
3.3595	-3076.93164
3.36	-2566.64429
3.3605	-1808.31299
3.361	-914.83154
3.3615	0.40283
3.362	793.88123
3.3625	1422.80273
3.363	1936.91711
3.3635	2238.13477
3.364	2303.49414
3.3645	2219.40308
3.365	2101.17188
3.3655	2006.10352
3.366	1798.84644
3.3665	1528.44543
3.367	1320.58411
3.3675	1153.30811
3.368	945.24536
3.3685	731.34155
3.369	518.44482
3.3695	332.94067
3.37	180.06592
3.3705	12.78992
3.371	-100.00305
3.3715	-183.08716
3.372	-276.6449
3.3725	-462.35046
3.373	-562.05139
3.3735	-576.85547
3.374	-539.59351
3.3745	-476.651
3.375	-409.57947
3.3755	-349.96033
3.376	-324.4812
3.3765	-317.73376
3.377	-314.71252
3.3775	-285.70862
3.378	-220.55054
3.3785	-146.83228
3.379	-81.87561
3.3795	-6.74744
3.38	57.10144
3.3805	140.38696
3.381	89.328
3.3815	-191.04309
3.382	-556.91528
3.3825	-817.84973
3.383	-942.62695
3.3835	-946.25244
3.384	-826.81274
3.3845	-626.00098
3.385	-390.74707
3.3855	-140.99121
3.386	93.25562
3.3865	263.15002
3.387	335.65979
3.3875	309.87854
3.388	293.0603
3.3885	206.45142
3.389	-29.30603
3.3895	-218.33496
3.39	-293.86597
3.3905	-413.40637
3.391	-535.06165
3.3915	-733.95996
3.392	-807.98035
3.3925	-758.83484
3.393	-608.37708
3.3935	-353.08228
3.394	-83.78906
3.3945	113.59863
3.395	278.35693
3.3955	390.44495
3.396	106.64978
3.3965	-120.14465
3.397	-129.30908
3.3975	-84.89685
3.398	18.53027
3.3985	210.0769
3.399	453.08533
3.3995	616.13159
3.4	712.81128
3.4005	781.79626
3.401	827.71912
3.4015	868.10303
3.402	874.0448
3.4025	818.7561
3.403	766.89148
3.4035	761.75537
3.404	691.46118
3.4045	592.06238
3.405	543.62183
3.4055	511.19385
3.406	329.91943
3.4065	-1.61133
3.407	-259.32312
3.4075	-394.47327
3.408	-399.9115
3.4085	-348.95325
3.409	-300.71411
3.4095	-300.31128
3.41	-263.95569
3.4105	-207.35779
3.411	-151.96838
3.4115	-98.29102
3.412	-110.98022
3.4125	-254.38843
3.413	-545.23315
3.4135	-834.36584
3.414	-901.03455
3.4145	-793.17627
3.415	-636.07178
3.4155	-745.64209
3.416	-1308.70056
3.4165	-2378.72314
3.417	-2912.27417
3.4175	-2707.6355
3.418	-2029.87061
3.4185	-1194.7998
3.419	-347.1405
3.4195	446.84143
3.42	1165.99731
3.4205	1675.07629
3.421	1941.24756
3.4215	1967.93518
3.422	1810.02502
3.4225	1629.65698
3.423	1460.56824
3.4235	1330.45349
3.424	1330.75562
3.4245	1339.61792
3.425	1231.05469
3.4255	1025.20752
3.426	825.10071
3.4265	592.06238
3.427	357.1106
3.4275	169.29016
3.428	60.72693
3.4285	31.11877
3.429	39.88037
3.4295	108.26111
3.43	223.37036
3.4305	290.84473
3.431	334.04846
3.4315	343.81714
3.432	309.27429
3.4325	261.94153
3.433	190.33813
3.4335	119.23828
3.434	-24.97559
3.4345	-271.40808
3.435	-455.60303
3.4355	-758.3313
3.436	-1237.70142
3.4365	-1680.71594
3.437	-2005.29785
3.4375	-2124.93896
3.438	-2120.6084
3.4385	-1812.44202
3.439	-1295.4071
3.4395	-694.88525
3.44	-152.87476
3.4405	298.29712
3.441	663.86719
3.4415	963.77563
3.442	1152.30103
3.4425	1262.77771
3.443	1303.76587
3.4435	1350.09155
3.444	1449.59106
3.4445	1459.66187
3.445	1162.77466
3.4455	802.13928
3.446	267.68188
3.4465	-306.15234
3.447	-678.97339
3.4475	-922.68677
3.448	-980.896
3.4485	-886.23047
3.449	-701.7334
3.4495	-436.46851
3.45	-158.4137
3.4505	-15.20691
3.451	35.2478
3.4515	108.56323
3.452	139.68201
3.4525	221.96045
3.453	357.2113
3.4535	448.75488
3.454	464.96887
3.4545	470.91064
3.455	466.5802
3.4555	404.24194
3.456	298.29712
3.4565	218.23425
3.457	99.80164
3.4575	43.20374
3.458	88.52234
3.4585	188.22327
3.459	245.12329
3.4595	245.72754
3.46	216.92505
3.4605	176.13831
3.461	108.36182
3.4615	34.84497
3.462	-48.13843
3.4625	-116.61987
3.463	-93.96057
3.4635	52.06604
3.464	91.8457
3.4645	52.26746
3.465	-5.94177
3.4655	-78.14941
3.466	-131.62537
3.4665	-240.49072
3.467	-356.50635
3.4675	-415.52124
3.468	-428.71399
3.4685	-523.98376
3.469	-747.75696
3.4695	-939.80713
3.47	-945.04395
3.4705	-805.76477
3.471	-695.59021
3.4715	-668.90259
3.472	-610.18982
3.4725	-640.70435
3.473	-729.62952
3.4735	-864.27612
3.474	-954.10767
3.4745	-877.06604
3.475	-578.16467
3.4755	-197.79053
3.476	138.97705
3.4765	458.32214
3.477	732.14722
3.4775	887.8418
3.478	947.96448
3.4785	874.74976
3.479	592.56592
3.4795	412.60071
3.48	281.57959
3.4805	168.68591
3.481	144.91882
3.4815	113.1958
3.482	106.54907
3.4825	183.5907
3.483	325.18616
3.4835	486.62109
3.484	634.96399
3.4845	777.2644
3.485	878.87878
3.4855	922.58606
3.486	917.24854
3.4865	898.91968
3.487	838.09204
3.4875	768.70422
3.488	659.0332
3.4885	525.19226
3.489	433.14514
3.4895	370.90759
3.49	213.29956
3.4905	-115.31067
3.491	-420.95947
3.4915	-654.40063
3.492	-929.4342
3.4925	-1081.30188
3.493	-1313.43384
3.4935	-1419.47937
3.494	-1470.94116
3.4945	-1598.03467
3.495	-1655.0354
3.4955	-1957.96509
3.496	-2016.37573
3.4965	-1802.27051
3.497	-1699.0448
3.4975	-1368.52112
3.498	-743.12439
3.4985	-119.54041
3.499	488.73596
3.4995	1009.39636
3.5	1381.51245
3.5005	1680.91736
3.501	1911.94153
3.5015	1925.83923
3.502	1878.30505
3.5025	1808.81653
3.503	1746.98181
3.5035	1566.91589
3.504	1331.66199
3.5045	1040.61584
3.505	606.76575
3.5055	-72.71118
3.506	-548.15369
3.5065	-693.47534
3.507	-641.61072
3.5075	-468.39294
3.508	-277.85339
3.5085	-56.29578
3.509	160.62927
3.5095	334.45129
3.51	461.24268
3.5105	532.64465
3.511	567.69104
3.5115	560.33936
3.512	512.60376
3.5125	382.89185
3.513	157.10449
3.5135	12.78992
3.514	-44.0094
3.5145	-79.05579
3.515	-89.63013
3.5155	-109.16748
3.516	-122.36023
3.5165	-103.125
3.517	-69.38782
3.5175	-53.87878
3.518	-31.82373
3.5185	3.92761
3.519	29.10461
3.5195	34.54285
3.52	9.66797
3.5205	-7.65381
3.521	15.1062
3.5215	50.95825
3.522	24.87488
3.5225	-37.86621
3.523	-96.37756
3.5235	-192.55371
3.524	-379.66919
3.5245	-483.19702
3.525	-488.43384
3.5255	-442.00745
3.526	-355.09644
3.5265	-325.08545
3.527	-302.02332
3.5275	-303.93677
3.528	-333.94775
3.5285	-492.9657
3.529	-737.38403
3.5295	-823.7915
3.53	-744.73572
3.5305	-568.59741
3.531	-371.20972
3.5315	-221.45691
3.532	-152.87476
3.5325	-187.92114
3.533	-202.02026
3.5335	-195.77637
3.534	-239.08081
3.5345	-165.66467
3.535	-62.9425
3.5355	33.13293
3.536	-58.61206
3.5365	-390.34424
3.537	-652.78931
3.5375	-840.60974
3.538	-842.82532
3.5385	-675.54932
3.539	-412.09717
3.5395	-106.04553
3.54	229.41284
3.5405	524.68872
3.541	722.07642
3.5415	822.78442
3.542	905.66711
3.5425	967.60254
3.543	1039.91089
3.5435	1080.19409
3.544	1093.78967
3.5445	937.69226
3.545	670.21179
3.5455	428.10974
3.546	197.58911
3.5465	-5.43823
3.547	-96.57898
3.5475	-131.22253
3.548	-320.95642
3.5485	-426.19629
3.549	-335.15625
3.5495	-140.78979
3.55	49.0448
3.5505	214.10522
3.551	366.87927
3.5515	462.04834
3.552	468.89648
3.5525	453.58887
3.553	361.54175
3.5535	108.66394
3.554	-326.89819
3.5545	-624.18823
3.555	-642.21497
3.5555	-468.69507
3.556	-251.4679
3.5565	-97.98889
3.557	-40.88745
3.5575	-33.9386
3.558	-182.68433
3.5585	-747.45483
3.559	-1247.97363
3.5595	-1385.33936
3.56	-1559.36279
3.5605	-1506.39038
3.561	-1112.11853
3.5615	-517.94128
3.562	139.5813
3.5625	764.27307
3.563	1196.81396
3.5635	1368.52112
3.564	1381.31104
3.5645	1417.76733
3.565	1449.69177
3.5655	1425.92468
3.566	1343.34412
3.5665	1271.53931
3.567	1161.26404
3.5675	916.54358
3.568	602.33459
3.5685	262.04224
3.569	40.1825
3.5695	-147.73865
3.57	-521.06323
3.5705	-723.28491
3.571	-727.01111
3.5715	-612.10327
3.572	-434.45435
3.5725	-246.5332
3.573	-61.12976
3.5735	84.19189
3.574	160.02502
3.5745	200.50964
3.575	228.40576
3.5755	275.53711
3.576	328.71094
3.5765	354.99573
3.577	296.88721
3.5775	209.47266
3.578	152.27051
3.5785	153.57971
3.579	114.90784
3.5795	-26.98975
3.58	-139.07776
3.5805	-169.39087
3.581	-118.93616
3.5815	-11.48071
3.582	87.01172
3.5825	133.03528
3.583	123.66943
3.5835	52.36816
3.584	-22.96143
3.5845	-73.91968
3.585	-110.87952
3.5855	-131.62537
3.586	-157.50732
3.5865	-186.51123
3.587	-231.93054
3.5875	-477.65808
3.588	-654.19922
3.5885	-700.22278
3.589	-654.90417
3.5895	-530.93262
3.59	-346.53625
3.5905	-152.06909
3.591	15.91187
3.5915	114.80713
3.592	153.78113
3.5925	86.91101
3.593	40.48462
3.5935	-45.01648
3.594	-116.72058
3.5945	-186.20911
3.595	-393.26477
3.5955	-535.06165
3.596	-771.12122
3.5965	-902.64587
3.597	-804.65698
3.5975	-613.91602
3.598	-436.56921
3.5985	-353.28369
3.599	-292.85889
3.5995	-120.95032
3.6	71.80481
3.6005	230.31921
3.601	228.30505
3.6015	132.93457
3.602	134.94873
3.6025	132.73315
3.603	-13.59558
3.6035	-266.6748
3.604	-287.52136
3.6045	-188.42468
3.605	-37.26196
3.6055	177.74963
3.606	382.79114
3.6065	565.979
3.607	688.84277
3.6075	702.74048
3.608	654.70276
3.6085	667.99622
3.609	700.62561
3.6095	675.95215
3.61	577.56042
3.6105	463.65967
3.611	370.70618
3.6115	249.35303
3.612	132.63245
3.6125	-35.34851
3.613	-172.21069
3.6135	-309.97925
3.614	-462.45117
3.6145	-520.76111
3.615	-491.55579
3.6155	-366.57715
3.616	-189.33105
3.6165	1.3092
3.617	209.87549
3.6175	397.69592
3.618	489.03809
3.6185	482.29065
3.619	501.42517
3.6195	528.01208
3.62	525.49438
3.6205	512.10022
3.621	463.15613
3.6215	416.52832
3.622	313.00049
3.6225	178.75671
3.623	90.33508
3.6235	23.26355
3.624	-33.43506
3.6245	-134.14307
3.625	-217.12646
3.6255	-420.55664
3.626	-531.33545
3.6265	-503.54004
3.627	-414.91699
3.6275	-348.44971
3.628	-301.72119
3.6285	-311.59058
3.629	-472.21985
3.6295	-922.88818
3.63	-1193.08777
3.6305	-1305.57861
3.631	-1265.79895
3.6315	-1158.14209
3.632	-989.7583
3.6325	-783.10547
