Franco_Uliana_Right_2.c3d  



Time(s):	A_R_bicipite(μV):
0	4.43115
0.0005	4.93469
0.001	1.10779
0.0015	1.00708
0.002	-2.71912
0.0025	3.22266
0.003	7.65381
0.0035	10.97717
0.004	12.5885
0.0045	8.45947
0.005	9.06372
0.0055	10.47363
0.006	1.71204
0.0065	2.21558
0.007	4.22974
0.0075	7.45239
0.008	8.56018
0.0085	10.27222
0.009	8.45947
0.0095	0.20142
0.01	1.81274
0.0105	5.23682
0.011	6.3446
0.0115	12.08496
0.012	3.92761
0.0125	7.95593
0.013	3.62549
0.0135	4.93469
0.014	1.3092
0.0145	9.46655
0.015	3.22266
0.0155	3.12195
0.016	-0.10071
0.0165	8.25806
0.017	7.04956
0.0175	0.30212
0.018	0
0.0185	5.53894
0.019	-0.30212
0.0195	3.52478
0.02	6.74744
0.0205	5.84106
0.021	2.5177
0.0215	3.02124
0.022	6.14319
0.0225	1.81274
0.023	3.62549
0.0235	9.06372
0.024	10.27222
0.0245	4.73328
0.025	6.84814
0.0255	2.11487
0.026	7.15027
0.0265	5.23682
0.027	8.45947
0.0275	7.04956
0.028	6.14319
0.0285	10.37292
0.029	13.09204
0.0295	3.32336
0.03	11.48071
0.0305	0.90637
0.031	6.74744
0.0315	1.2085
0.032	8.66089
0.0325	7.85522
0.033	7.15027
0.0335	7.75452
0.034	4.83398
0.0345	5.94177
0.035	7.5531
0.0355	4.83398
0.036	4.22974
0.0365	6.14319
0.037	1.81274
0.0375	0.30212
0.038	0.40283
0.0385	9.36584
0.039	9.76868
0.0395	5.63965
0.04	9.97009
0.0405	10.67505
0.041	11.38
0.0415	7.04956
0.042	12.78992
0.0425	8.25806
0.043	9.56726
0.0435	5.84106
0.044	8.96301
0.0445	11.07788
0.045	9.86938
0.0455	12.99133
0.046	8.8623
0.0465	10.17151
0.047	5.94177
0.0475	6.74744
0.048	3.7262
0.0485	3.42407
0.049	3.32336
0.0495	7.95593
0.05	5.33752
0.0505	2.92053
0.051	-0.20142
0.0515	8.8623
0.052	6.84814
0.0525	0.70496
0.053	7.04956
0.0535	7.5531
0.054	6.04248
0.0545	0.20142
0.055	7.95593
0.0555	3.92761
0.056	0.70496
0.0565	7.5531
0.057	5.63965
0.0575	7.15027
0.058	0.40283
0.0585	3.42407
0.059	7.85522
0.0595	5.0354
0.06	2.81982
0.0605	9.86938
0.061	6.3446
0.0615	5.84106
0.062	5.43823
0.0625	8.15735
0.063	7.04956
0.0635	6.04248
0.064	10.0708
0.0645	11.17859
0.065	6.94885
0.0655	3.02124
0.066	1.91345
0.0665	9.16443
0.067	8.56018
0.0675	6.94885
0.068	6.74744
0.0685	7.04956
0.069	5.0354
0.0695	0.20142
0.07	2.41699
0.0705	5.63965
0.071	4.33044
0.0715	7.04956
0.072	2.92053
0.0725	2.92053
0.073	7.95593
0.0735	6.3446
0.074	3.02124
0.0745	0.90637
0.075	7.04956
0.0755	5.74036
0.076	0.10071
0.0765	8.45947
0.077	5.94177
0.0775	1.91345
0.078	1.91345
0.0785	-0.80566
0.079	3.92761
0.0795	4.53186
0.08	3.02124
0.0805	4.43115
0.081	8.15735
0.0815	1.51062
0.082	6.54602
0.0825	5.33752
0.083	5.94177
0.0835	6.44531
0.084	7.95593
0.0845	11.68213
0.085	4.63257
0.0855	-0.20142
0.086	-0.70496
0.0865	3.62549
0.087	2.92053
0.0875	3.02124
0.088	7.5531
0.0885	11.07788
0.089	10.17151
0.0895	14.50195
0.09	9.76868
0.0905	7.65381
0.091	9.26514
0.0915	7.65381
0.092	6.64673
0.0925	8.96301
0.093	11.98425
0.0935	8.56018
0.094	2.5177
0.0945	7.75452
0.095	6.14319
0.0955	6.44531
0.096	4.33044
0.0965	3.8269
0.097	4.02832
0.0975	7.85522
0.098	5.0354
0.0985	1.3092
0.099	4.43115
0.0995	5.63965
0.1	5.94177
0.1005	4.33044
0.101	6.74744
0.1015	6.3446
0.102	5.53894
0.1025	3.32336
0.103	4.33044
0.1035	1.61133
0.104	1.40991
0.1045	4.53186
0.105	10.17151
0.1055	6.64673
0.106	3.7262
0.1065	9.76868
0.107	3.52478
0.1075	-0.30212
0.108	1.61133
0.1085	4.83398
0.109	6.94885
0.1095	5.94177
0.11	8.45947
0.1105	5.63965
0.111	12.18567
0.1115	11.88354
0.112	6.84814
0.1125	9.97009
0.113	13.39417
0.1135	13.797
0.114	10.77576
0.1145	12.48779
0.115	10.97717
0.1155	6.14319
0.116	10.97717
0.1165	9.46655
0.117	9.06372
0.1175	10.97717
0.118	10.77576
0.1185	8.7616
0.119	5.84106
0.1195	6.64673
0.12	6.14319
0.1205	10.27222
0.121	7.35168
0.1215	8.8623
0.122	7.35168
0.1225	7.04956
0.123	8.25806
0.1235	8.8623
0.124	6.74744
0.1245	8.96301
0.125	10.67505
0.1255	4.43115
0.126	7.75452
0.1265	8.05664
0.127	9.36584
0.1275	3.42407
0.128	8.35876
0.1285	6.94885
0.129	3.12195
0.1295	3.8269
0.13	6.04248
0.1305	2.61841
0.131	6.3446
0.1315	7.45239
0.132	6.84814
0.1325	5.53894
0.133	8.8623
0.1335	5.53894
0.134	3.42407
0.1345	7.35168
0.135	3.32336
0.1355	8.05664
0.136	6.54602
0.1365	6.64673
0.137	8.35876
0.1375	3.32336
0.138	4.63257
0.1385	4.43115
0.139	6.3446
0.1395	8.25806
0.14	7.95593
0.1405	5.74036
0.141	5.63965
0.1415	5.63965
0.142	8.25806
0.1425	5.53894
0.143	3.52478
0.1435	8.7616
0.144	9.86938
0.1445	5.63965
0.145	8.96301
0.1455	5.74036
0.146	5.53894
0.1465	13.49487
0.147	5.74036
0.1475	7.5531
0.148	5.13611
0.1485	8.8623
0.149	9.26514
0.1495	7.85522
0.15	8.35876
0.1505	7.35168
0.151	4.02832
0.1515	6.54602
0.152	9.56726
0.1525	11.2793
0.153	6.94885
0.1535	6.54602
0.154	4.22974
0.1545	2.61841
0.155	9.06372
0.1555	8.96301
0.156	5.0354
0.1565	3.32336
0.157	5.13611
0.1575	5.74036
0.158	3.32336
0.1585	4.53186
0.159	0
0.1595	10.87646
0.16	10.0708
0.1605	11.68213
0.161	7.15027
0.1615	7.35168
0.162	5.84106
0.1625	7.95593
0.163	2.01416
0.1635	3.42407
0.164	7.65381
0.1645	6.2439
0.165	1.3092
0.1655	5.0354
0.166	3.62549
0.1665	1.40991
0.167	1.2085
0.1675	7.25098
0.168	6.64673
0.1685	3.62549
0.169	4.63257
0.1695	5.94177
0.17	6.54602
0.1705	4.73328
0.171	4.53186
0.1715	-0.50354
0.172	1.71204
0.1725	6.44531
0.173	5.23682
0.1735	6.94885
0.174	3.62549
0.1745	-0.30212
0.175	3.12195
0.1755	2.81982
0.176	6.2439
0.1765	2.5177
0.177	2.92053
0.1775	4.02832
0.178	3.32336
0.1785	8.8623
0.179	3.22266
0.1795	3.62549
0.18	3.52478
0.1805	3.02124
0.181	4.12903
0.1815	7.45239
0.182	5.13611
0.1825	4.93469
0.183	10.57434
0.1835	3.7262
0.184	1.40991
0.1845	5.53894
0.185	3.62549
0.1855	6.04248
0.186	5.53894
0.1865	0.40283
0.187	-0.70496
0.1875	6.04248
0.188	1.2085
0.1885	3.02124
0.189	3.62549
0.1895	5.13611
0.19	8.45947
0.1905	5.53894
0.191	5.43823
0.1915	5.94177
0.192	5.94177
0.1925	3.62549
0.193	6.74744
0.1935	4.33044
0.194	11.78284
0.1945	5.84106
0.195	1.51062
0.1955	6.94885
0.196	4.33044
0.1965	6.04248
0.197	8.45947
0.1975	8.96301
0.198	3.52478
0.1985	2.92053
0.199	5.74036
0.1995	8.7616
0.2	6.64673
0.2005	4.12903
0.201	5.23682
0.2015	0.80566
0.202	1.51062
0.2025	4.93469
0.203	3.62549
0.2035	5.63965
0.204	5.84106
0.2045	3.12195
0.205	2.11487
0.2055	0.60425
0.206	0.90637
0.2065	5.43823
0.207	4.33044
0.2075	-1.71204
0.208	7.25098
0.2085	2.5177
0.209	6.64673
0.2095	2.31628
0.21	9.46655
0.2105	6.44531
0.211	11.68213
0.2115	7.5531
0.212	3.32336
0.2125	7.45239
0.213	7.04956
0.2135	7.25098
0.214	7.85522
0.2145	8.8623
0.215	4.33044
0.2155	4.73328
0.216	6.64673
0.2165	2.81982
0.217	9.26514
0.2175	4.43115
0.218	3.52478
0.2185	1.81274
0.219	6.54602
0.2195	7.65381
0.22	13.89771
0.2205	7.75452
0.221	5.43823
0.2215	3.12195
0.222	3.32336
0.2225	10.27222
0.223	11.2793
0.2235	9.97009
0.224	8.15735
0.2245	6.94885
0.225	9.36584
0.2255	9.76868
0.226	10.57434
0.2265	4.53186
0.227	9.66797
0.2275	9.66797
0.228	8.25806
0.2285	0.70496
0.229	5.0354
0.2295	6.3446
0.23	8.25806
0.2305	6.84814
0.231	10.57434
0.2315	6.2439
0.232	12.89062
0.2325	5.43823
0.233	8.25806
0.2335	3.02124
0.234	6.2439
0.2345	10.27222
0.235	9.86938
0.2355	10.57434
0.236	2.92053
0.2365	2.71912
0.237	6.84814
0.2375	5.74036
0.238	5.43823
0.2385	7.85522
0.239	4.83398
0.2395	4.63257
0.24	5.43823
0.2405	1.40991
0.241	-0.70496
0.2415	4.12903
0.242	3.52478
0.2425	2.5177
0.243	3.12195
0.2435	0.80566
0.244	-1.40991
0.2445	7.65381
0.245	5.43823
0.2455	0.60425
0.246	-0.80566
0.2465	-0.70496
0.247	4.12903
0.2475	2.61841
0.248	13.49487
0.2485	4.73328
0.249	1.61133
0.2495	4.73328
0.25	7.35168
0.2505	4.33044
0.251	8.66089
0.2515	1.10779
0.252	2.61841
0.2525	2.92053
0.253	2.11487
0.2535	-2.21558
0.254	0.30212
0.2545	-0.60425
0.255	2.21558
0.2555	1.00708
0.256	4.73328
0.2565	3.92761
0.257	3.22266
0.2575	5.74036
0.258	4.33044
0.2585	5.94177
0.259	7.35168
0.2595	12.68921
0.26	10.57434
0.2605	9.46655
0.261	4.93469
0.2615	3.32336
0.262	4.63257
0.2625	9.46655
0.263	7.75452
0.2635	10.87646
0.264	9.86938
0.2645	5.63965
0.265	8.05664
0.2655	6.3446
0.266	7.45239
0.2665	4.73328
0.267	5.53894
0.2675	1.91345
0.268	7.75452
0.2685	7.35168
0.269	7.5531
0.2695	5.0354
0.27	6.04248
0.2705	5.33752
0.271	0.90637
0.2715	5.94177
0.272	2.92053
0.2725	4.53186
0.273	-0.20142
0.2735	4.43115
0.274	8.8623
0.2745	10.77576
0.275	8.66089
0.2755	8.8623
0.276	8.8623
0.2765	8.45947
0.277	8.05664
0.2775	8.96301
0.278	7.85522
0.2785	1.71204
0.279	5.43823
0.2795	8.96301
0.28	11.2793
0.2805	4.63257
0.281	6.2439
0.2815	2.92053
0.282	0.60425
0.2825	9.16443
0.283	-0.40283
0.2835	4.73328
0.284	5.84106
0.2845	-1.51062
0.285	1.91345
0.2855	-2.31628
0.286	2.71912
0.2865	-0.60425
0.287	-0.10071
0.2875	-1.3092
0.288	-0.30212
0.2885	7.75452
0.289	0.90637
0.2895	5.13611
0.29	0.30212
0.2905	-0.10071
0.291	1.40991
0.2915	0.10071
0.292	4.33044
0.2925	2.5177
0.293	9.36584
0.2935	16.21399
0.294	9.76868
0.2945	6.2439
0.295	6.54602
0.2955	8.96301
0.296	6.64673
0.2965	8.96301
0.297	8.96301
0.2975	4.33044
0.298	7.35168
0.2985	8.35876
0.299	9.26514
0.2995	14.30054
0.3	3.22266
0.3005	11.07788
0.301	9.46655
0.3015	8.7616
0.302	4.22974
0.3025	10.57434
0.303	3.62549
0.3035	5.43823
0.304	7.04956
0.3045	6.44531
0.305	3.92761
0.3055	6.84814
0.306	7.95593
0.3065	9.06372
0.307	6.2439
0.3075	6.84814
0.308	9.26514
0.3085	8.8623
0.309	2.11487
0.3095	5.63965
0.31	7.5531
0.3105	1.91345
0.311	0.40283
0.3115	2.11487
0.312	5.33752
0.3125	5.23682
0.313	4.53186
0.3135	4.83398
0.314	3.62549
0.3145	0.20142
0.315	3.52478
0.3155	6.04248
0.316	4.43115
0.3165	10.87646
0.317	13.49487
0.3175	6.84814
0.318	5.13611
0.3185	6.84814
0.319	7.5531
0.3195	9.97009
0.32	5.13611
0.3205	7.65381
0.321	2.31628
0.3215	9.06372
0.322	5.63965
0.3225	6.2439
0.323	3.62549
0.3235	6.84814
0.324	5.63965
0.3245	7.35168
0.325	9.36584
0.3255	6.3446
0.326	4.93469
0.3265	5.33752
0.327	4.73328
0.3275	5.13611
0.328	5.13611
0.3285	3.42407
0.329	7.04956
0.3295	4.02832
0.33	7.45239
0.3305	4.22974
0.331	3.7262
0.3315	5.53894
0.332	7.75452
0.3325	5.74036
0.333	-1.2085
0.3335	3.22266
0.334	6.04248
0.3345	1.40991
0.335	3.92761
0.3355	7.65381
0.336	2.31628
0.3365	0.70496
0.337	0
0.3375	2.21558
0.338	4.73328
0.3385	2.31628
0.339	6.2439
0.3395	5.23682
0.34	8.96301
0.3405	2.11487
0.341	2.92053
0.3415	4.12903
0.342	4.12903
0.3425	2.21558
0.343	1.40991
0.3435	9.76868
0.344	7.35168
0.3445	6.14319
0.345	9.66797
0.3455	9.86938
0.346	4.93469
0.3465	8.8623
0.347	4.33044
0.3475	3.22266
0.348	8.15735
0.3485	6.84814
0.349	1.81274
0.3495	6.84814
0.35	11.98425
0.3505	9.06372
0.351	4.83398
0.3515	11.78284
0.352	9.46655
0.3525	0.90637
0.353	12.78992
0.3535	8.25806
0.354	10.0708
0.3545	7.65381
0.355	13.19275
0.3555	9.97009
0.356	6.84814
0.3565	6.64673
0.357	4.12903
0.3575	6.54602
0.358	9.36584
0.3585	5.84106
0.359	5.74036
0.3595	7.95593
0.36	10.67505
0.3605	8.15735
0.361	6.3446
0.3615	5.0354
0.362	6.2439
0.3625	7.45239
0.363	9.56726
0.3635	7.95593
0.364	8.66089
0.3645	7.65381
0.365	7.35168
0.3655	4.53186
0.366	-0.10071
0.3665	3.92761
0.367	2.5177
0.3675	7.95593
0.368	14.09912
0.3685	10.47363
0.369	4.93469
0.3695	12.18567
0.37	12.5885
0.3705	12.08496
0.371	8.35876
0.3715	7.85522
0.372	6.84814
0.3725	8.8623
0.373	3.92761
0.3735	4.22974
0.374	8.66089
0.3745	10.17151
0.375	5.43823
0.3755	6.64673
0.376	12.68921
0.3765	9.26514
0.377	8.45947
0.3775	9.56726
0.378	9.06372
0.3785	6.54602
0.379	5.74036
0.3795	3.62549
0.38	5.13611
0.3805	4.73328
0.381	8.96301
0.3815	4.43115
0.382	7.75452
0.3825	3.62549
0.383	1.51062
0.3835	2.41699
0.384	0.50354
0.3845	4.43115
0.385	9.46655
0.3855	4.93469
0.386	0.30212
0.3865	1.10779
0.387	1.2085
0.3875	5.53894
0.388	3.42407
0.3885	3.92761
0.389	8.66089
0.3895	8.25806
0.39	5.63965
0.3905	5.0354
0.391	2.92053
0.3915	1.2085
0.392	3.52478
0.3925	3.22266
0.393	4.02832
0.3935	2.81982
0.394	5.13611
0.3945	7.95593
0.395	5.53894
0.3955	3.22266
0.396	5.43823
0.3965	9.36584
0.397	6.94885
0.3975	7.25098
0.398	11.07788
0.3985	11.38
0.399	7.04956
0.3995	5.23682
0.4	6.3446
0.4005	8.56018
0.401	6.14319
0.4015	3.52478
0.402	3.12195
0.4025	4.93469
0.403	6.54602
0.4035	4.53186
0.404	2.81982
0.4045	0.10071
0.405	4.02832
0.4055	4.93469
0.406	8.8623
0.4065	9.76868
0.407	4.83398
0.4075	3.52478
0.408	5.23682
0.4085	6.54602
0.409	6.74744
0.4095	7.25098
0.41	5.84106
0.4105	6.64673
0.411	9.46655
0.4115	6.3446
0.412	6.3446
0.4125	6.94885
0.413	7.65381
0.4135	0.20142
0.414	3.52478
0.4145	3.12195
0.415	5.33752
0.4155	4.63257
0.416	2.71912
0.4165	4.53186
0.417	2.41699
0.4175	0.10071
0.418	4.12903
0.4185	4.83398
0.419	6.94885
0.4195	6.04248
0.42	8.15735
0.4205	6.04248
0.421	7.15027
0.4215	5.63965
0.422	5.43823
0.4225	-0.70496
0.423	6.2439
0.4235	8.56018
0.424	6.54602
0.4245	6.94885
0.425	7.25098
0.4255	6.94885
0.426	2.5177
0.4265	3.92761
0.427	3.8269
0.4275	8.7616
0.428	9.56726
0.4285	13.69629
0.429	6.84814
0.4295	2.81982
0.43	5.84106
0.4305	5.13611
0.431	8.8623
0.4315	12.08496
0.432	7.35168
0.4325	5.43823
0.433	0.40283
0.4335	6.74744
0.434	6.44531
0.4345	6.64673
0.435	7.85522
0.4355	5.63965
0.436	7.15027
0.4365	7.95593
0.437	8.45947
0.4375	8.96301
0.438	3.52478
0.4385	4.83398
0.439	5.33752
0.4395	8.7616
0.44	3.7262
0.4405	-0.30212
0.441	7.95593
0.4415	3.22266
0.442	3.52478
0.4425	5.84106
0.443	5.33752
0.4435	5.84106
0.444	2.71912
0.4445	2.01416
0.445	5.33752
0.4455	-1.40991
0.446	4.73328
0.4465	7.75452
0.447	0.10071
0.4475	4.02832
0.448	4.12903
0.4485	3.12195
0.449	5.0354
0.4495	4.43115
0.45	5.13611
0.4505	3.22266
0.451	3.8269
0.4515	2.11487
0.452	4.93469
0.4525	5.43823
0.453	9.06372
0.4535	9.76868
0.454	9.97009
0.4545	5.33752
0.455	7.15027
0.4555	2.81982
0.456	5.13611
0.4565	3.7262
0.457	2.81982
0.4575	2.61841
0.458	0.80566
0.4585	3.7262
0.459	3.62549
0.4595	3.62549
0.46	4.43115
0.4605	10.17151
0.461	7.5531
0.4615	7.85522
0.462	7.25098
0.4625	2.31628
0.463	7.25098
0.4635	4.63257
0.464	7.35168
0.4645	4.22974
0.465	1.3092
0.4655	5.0354
0.466	7.5531
0.4665	3.32336
0.467	7.45239
0.4675	5.84106
0.468	6.14319
0.4685	7.15027
0.469	6.44531
0.4695	6.54602
0.47	4.43115
0.4705	4.53186
0.471	4.53186
0.4715	6.3446
0.472	4.93469
0.4725	7.25098
0.473	12.08496
0.4735	12.5885
0.474	9.16443
0.4745	9.86938
0.475	10.67505
0.4755	8.7616
0.476	9.36584
0.4765	10.47363
0.477	6.54602
0.4775	9.97009
0.478	10.57434
0.4785	15.1062
0.479	12.5885
0.4795	8.35876
0.48	1.71204
0.4805	9.26514
0.481	7.04956
0.4815	8.45947
0.482	7.25098
0.4825	4.73328
0.483	5.33752
0.4835	5.13611
0.484	10.57434
0.4845	9.46655
0.485	5.33752
0.4855	4.33044
0.486	6.74744
0.4865	6.14319
0.487	4.43115
0.4875	3.02124
0.488	8.15735
0.4885	7.35168
0.489	6.3446
0.4895	5.94177
0.49	8.56018
0.4905	6.04248
0.491	8.35876
0.4915	-2.61841
0.492	4.22974
0.4925	4.43115
0.493	6.2439
0.4935	5.13611
0.494	-0.20142
0.4945	9.46655
0.495	4.53186
0.4955	6.94885
0.496	6.54602
0.4965	10.97717
0.497	10.0708
0.4975	11.58142
0.498	5.94177
0.4985	9.76868
0.499	5.53894
0.4995	5.63965
0.5	1.10779
0.5005	5.0354
0.501	4.53186
0.5015	6.74744
0.502	8.35876
0.5025	9.16443
0.503	10.0708
0.5035	6.3446
0.504	4.33044
0.5045	7.85522
0.505	10.67505
0.5055	8.45947
0.506	6.2439
0.5065	6.14319
0.507	7.25098
0.5075	2.81982
0.508	5.0354
0.5085	7.15027
0.509	6.14319
0.5095	9.46655
0.51	10.37292
0.5105	10.67505
0.511	6.74744
0.5115	5.94177
0.512	9.46655
0.5125	0.50354
0.513	3.62549
0.5135	4.63257
0.514	3.42407
0.5145	10.27222
0.515	6.14319
0.5155	1.81274
0.516	-1.61133
0.5165	6.2439
0.517	11.17859
0.5175	6.2439
0.518	3.52478
0.5185	4.02832
0.519	7.45239
0.5195	9.06372
0.52	3.92761
0.5205	9.36584
0.521	10.37292
0.5215	4.93469
0.522	8.7616
0.5225	1.40991
0.523	2.81982
0.5235	10.67505
0.524	1.91345
0.5245	8.15735
0.525	7.04956
0.5255	3.32336
0.526	9.46655
0.5265	3.52478
0.527	7.5531
0.5275	4.63257
0.528	6.74744
0.5285	5.84106
0.529	9.86938
0.5295	3.62549
0.53	2.41699
0.5305	-3.7262
0.531	5.13611
0.5315	8.96301
0.532	6.3446
0.5325	10.47363
0.533	12.78992
0.5335	11.2793
0.534	3.7262
0.5345	2.61841
0.535	6.2439
0.5355	1.61133
0.536	1.00708
0.5365	5.23682
0.537	2.92053
0.5375	9.46655
0.538	10.57434
0.5385	6.14319
0.539	7.95593
0.5395	7.35168
0.54	3.62549
0.5405	8.45947
0.541	4.93469
0.5415	3.52478
0.542	5.43823
0.5425	5.33752
0.543	10.17151
0.5435	7.04956
0.544	6.84814
0.5445	6.3446
0.545	3.7262
0.5455	4.93469
0.546	7.04956
0.5465	3.12195
0.547	7.85522
0.5475	6.54602
0.548	12.18567
0.5485	6.3446
0.549	11.98425
0.5495	8.56018
0.55	3.22266
0.5505	7.95593
0.551	7.45239
0.5515	7.95593
0.552	2.92053
0.5525	6.54602
0.553	2.81982
0.5535	1.61133
0.554	5.94177
0.5545	0.50354
0.555	4.22974
0.5555	7.45239
0.556	8.25806
0.5565	-1.2085
0.557	-0.30212
0.5575	-2.5177
0.558	1.91345
0.5585	5.74036
0.559	3.32336
0.5595	5.84106
0.56	1.3092
0.5605	7.04956
0.561	7.95593
0.5615	4.43115
0.562	0.40283
0.5625	1.91345
0.563	0.20142
0.5635	2.61841
0.564	2.41699
0.5645	1.00708
0.565	4.63257
0.5655	-0.10071
0.566	4.63257
0.5665	0.90637
0.567	-1.40991
0.5675	3.22266
0.568	5.33752
0.5685	3.62549
0.569	3.42407
0.5695	3.62549
0.57	4.93469
0.5705	6.84814
0.571	5.63965
0.5715	3.22266
0.572	1.91345
0.5725	5.84106
0.573	5.23682
0.5735	4.33044
0.574	0.40283
0.5745	3.8269
0.575	2.92053
0.5755	-0.60425
0.576	4.12903
0.5765	5.13611
0.577	3.42407
0.5775	4.83398
0.578	6.3446
0.5785	5.23682
0.579	7.45239
0.5795	1.91345
0.58	8.15735
0.5805	8.05664
0.581	6.44531
0.5815	4.93469
0.582	9.56726
0.5825	4.63257
0.583	8.7616
0.5835	6.04248
0.584	4.33044
0.5845	5.23682
0.585	1.10779
0.5855	3.62549
0.586	4.02832
0.5865	3.22266
0.587	5.53894
0.5875	5.53894
0.588	4.53186
0.5885	7.25098
0.589	5.13611
0.5895	7.95593
0.59	4.53186
0.5905	3.12195
0.591	6.3446
0.5915	7.5531
0.592	4.63257
0.5925	4.22974
0.593	0.80566
0.5935	6.3446
0.594	7.45239
0.5945	2.92053
0.595	7.15027
0.5955	7.45239
0.596	8.35876
0.5965	4.33044
0.597	8.8623
0.5975	9.86938
0.598	3.22266
0.5985	7.45239
0.599	11.2793
0.5995	5.53894
0.6	12.68921
0.6005	14.90479
0.601	4.83398
0.6015	6.94885
0.602	6.54602
0.6025	8.05664
0.603	5.74036
0.6035	9.76868
0.604	11.2793
0.6045	8.25806
0.605	6.54602
0.6055	8.7616
0.606	7.04956
0.6065	7.25098
0.607	12.08496
0.6075	10.67505
0.608	9.56726
0.6085	7.15027
0.609	9.26514
0.6095	0.50354
0.61	6.54602
0.6105	5.43823
0.611	7.25098
0.6115	8.45947
0.612	7.65381
0.6125	11.07788
0.613	5.94177
0.6135	-0.10071
0.614	3.52478
0.6145	1.91345
0.615	2.5177
0.6155	7.04956
0.616	3.22266
0.6165	4.63257
0.617	5.53894
0.6175	2.01416
0.618	7.95593
0.6185	5.13611
0.619	8.35876
0.6195	6.2439
0.62	11.17859
0.6205	6.64673
0.621	11.88354
0.6215	7.04956
0.622	6.84814
0.6225	9.46655
0.623	7.5531
0.6235	6.3446
0.624	10.87646
0.6245	14.80408
0.625	10.27222
0.6255	9.16443
0.626	7.5531
0.6265	1.81274
0.627	5.53894
0.6275	7.35168
0.628	6.54602
0.6285	9.76868
0.629	3.32336
0.6295	4.93469
0.63	3.52478
0.6305	4.43115
0.631	2.01416
0.6315	11.58142
0.632	2.21558
0.6325	0.40283
0.633	4.53186
0.6335	-1.10779
0.634	7.75452
0.6345	-1.2085
0.635	-2.01416
0.6355	2.01416
0.636	-1.00708
0.6365	-0.10071
0.637	5.13611
0.6375	0.70496
0.638	1.91345
0.6385	7.75452
0.639	10.0708
0.6395	14.30054
0.64	8.7616
0.6405	13.49487
0.641	4.53186
0.6415	1.00708
0.642	4.22974
0.6425	8.96301
0.643	7.85522
0.6435	2.01416
0.644	5.84106
0.6445	6.3446
0.645	7.45239
0.6455	9.46655
0.646	9.66797
0.6465	9.26514
0.647	7.15027
0.6475	7.85522
0.648	7.65381
0.6485	5.53894
0.649	7.85522
0.6495	8.45947
0.65	4.33044
0.6505	8.7616
0.651	10.47363
0.6515	6.44531
0.652	6.2439
0.6525	5.0354
0.653	2.41699
0.6535	3.52478
0.654	3.02124
0.6545	5.43823
0.655	3.02124
0.6555	9.26514
0.656	3.62549
0.6565	7.45239
0.657	4.12903
0.6575	7.95593
0.658	2.31628
0.6585	3.22266
0.659	9.86938
0.6595	10.17151
0.66	12.68921
0.6605	13.89771
0.661	7.45239
0.6615	9.16443
0.662	4.43115
0.6625	7.75452
0.663	9.97009
0.6635	3.8269
0.664	7.15027
0.6645	6.94885
0.665	9.36584
0.6655	7.45239
0.666	3.32336
0.6665	4.02832
0.667	7.85522
0.6675	7.65381
0.668	4.73328
0.6685	10.17151
0.669	13.99841
0.6695	9.86938
0.67	8.25806
0.6705	7.45239
0.671	10.0708
0.6715	8.8623
0.672	8.25806
0.6725	8.35876
0.673	7.65381
0.6735	5.63965
0.674	10.67505
0.6745	-1.51062
0.675	4.02832
0.6755	6.04248
0.676	5.94177
0.6765	6.44531
0.677	5.94177
0.6775	13.49487
0.678	2.31628
0.6785	4.83398
0.679	3.92761
0.6795	1.00708
0.68	-1.2085
0.6805	-0.20142
0.681	7.75452
0.6815	8.7616
0.682	9.86938
0.6825	3.02124
0.683	1.40991
0.6835	6.04248
0.684	9.46655
0.6845	4.83398
0.685	8.25806
0.6855	7.95593
0.686	3.32336
0.6865	8.15735
0.687	10.97717
0.6875	6.64673
0.688	11.68213
0.6885	4.53186
0.689	5.63965
0.6895	10.17151
0.69	12.08496
0.6905	8.05664
0.691	3.8269
0.6915	7.75452
0.692	11.38
0.6925	7.75452
0.693	7.85522
0.6935	5.53894
0.694	9.66797
0.6945	4.33044
0.695	11.98425
0.6955	11.98425
0.696	6.54602
0.6965	9.66797
0.697	9.46655
0.6975	7.85522
0.698	1.10779
0.6985	2.81982
0.699	5.33752
0.6995	7.5531
0.7	8.45947
0.7005	2.71912
0.701	5.0354
0.7015	6.64673
0.702	3.42407
0.7025	5.63965
0.703	0.10071
0.7035	2.92053
0.704	4.02832
0.7045	6.54602
0.705	2.21558
0.7055	5.33752
0.706	7.75452
0.7065	6.44531
0.707	4.83398
0.7075	6.2439
0.708	4.73328
0.7085	1.91345
0.709	6.74744
0.7095	-0.30212
0.71	4.33044
0.7105	7.85522
0.711	3.12195
0.7115	1.00708
0.712	1.81274
0.7125	3.92761
0.713	6.74744
0.7135	7.5531
0.714	8.25806
0.7145	5.53894
0.715	5.74036
0.7155	10.27222
0.716	9.16443
0.7165	2.92053
0.717	6.64673
0.7175	7.15027
0.718	3.52478
0.7185	1.40991
0.719	5.23682
0.7195	0.20142
0.72	1.51062
0.7205	2.71912
0.721	2.11487
0.7215	0.20142
0.722	-0.70496
0.7225	1.81274
0.723	2.92053
0.7235	2.81982
0.724	5.0354
0.7245	8.25806
0.725	11.38
0.7255	9.76868
0.726	13.69629
0.7265	3.62549
0.727	5.33752
0.7275	6.44531
0.728	4.83398
0.7285	3.02124
0.729	3.62549
0.7295	7.85522
0.73	9.56726
0.7305	8.35876
0.731	4.53186
0.7315	5.84106
0.732	5.33752
0.7325	2.11487
0.733	5.53894
0.7335	8.05664
0.734	4.53186
0.7345	5.33752
0.735	7.85522
0.7355	7.5531
0.736	6.84814
0.7365	7.75452
0.737	8.66089
0.7375	2.41699
0.738	3.52478
0.7385	14.09912
0.739	12.5885
0.7395	6.2439
0.74	4.93469
0.7405	6.64673
0.741	3.32336
0.7415	4.93469
0.742	2.71912
0.7425	4.12903
0.743	8.35876
0.7435	11.07788
0.744	8.25806
0.7445	4.93469
0.745	7.15027
0.7455	10.37292
0.746	5.84106
0.7465	7.45239
0.747	4.22974
0.7475	11.78284
0.748	14.50195
0.7485	4.83398
0.749	6.64673
0.7495	0.10071
0.75	4.53186
0.7505	6.04248
0.751	3.42407
0.7515	9.66797
0.752	5.63965
0.7525	-2.81982
0.753	6.14319
0.7535	6.14319
0.754	5.13611
0.7545	4.83398
0.755	-0.10071
0.7555	4.53186
0.756	7.25098
0.7565	5.84106
0.757	8.7616
0.7575	10.77576
0.758	8.56018
0.7585	4.53186
0.759	2.71912
0.7595	3.8269
0.76	13.39417
0.7605	9.86938
0.761	10.17151
0.7615	8.7616
0.762	3.8269
0.7625	6.74744
0.763	8.45947
0.7635	7.04956
0.764	12.48779
0.7645	11.17859
0.765	5.63965
0.7655	6.04248
0.766	1.61133
0.7665	8.66089
0.767	11.78284
0.7675	8.25806
0.768	10.37292
0.7685	6.04248
0.769	3.8269
0.7695	5.74036
0.77	4.83398
0.7705	10.0708
0.771	5.53894
0.7715	6.84814
0.772	4.63257
0.7725	4.73328
0.773	2.41699
0.7735	0.70496
0.774	4.93469
0.7745	8.66089
0.775	7.85522
0.7755	5.0354
0.776	5.33752
0.7765	4.63257
0.777	2.31628
0.7775	8.15735
0.778	6.94885
0.7785	5.23682
0.779	9.46655
0.7795	4.33044
0.78	8.45947
0.7805	8.25806
0.781	7.5531
0.7815	7.15027
0.782	3.22266
0.7825	4.02832
0.783	6.04248
0.7835	5.33752
0.784	6.94885
0.7845	6.44531
0.785	1.61133
0.7855	10.77576
0.786	8.45947
0.7865	6.74744
0.787	11.58142
0.7875	8.35876
0.788	7.5531
0.7885	6.54602
0.789	7.5531
0.7895	1.2085
0.79	7.85522
0.7905	7.04956
0.791	5.63965
0.7915	3.22266
0.792	7.15027
0.7925	4.43115
0.793	4.02832
0.7935	8.96301
0.794	10.77576
0.7945	15.20691
0.795	10.47363
0.7955	6.94885
0.796	12.68921
0.7965	6.94885
0.797	3.7262
0.7975	8.25806
0.798	7.35168
0.7985	10.37292
0.799	8.7616
0.7995	12.78992
0.8	9.06372
0.8005	7.04956
0.801	4.83398
0.8015	8.25806
0.802	4.73328
0.8025	7.15027
0.803	11.17859
0.8035	7.95593
0.804	0.60425
0.8045	3.92761
0.805	10.67505
0.8055	10.47363
0.806	6.44531
0.8065	8.25806
0.807	2.92053
0.8075	5.43823
0.808	8.25806
0.8085	2.41699
0.809	5.23682
0.8095	5.33752
0.81	7.75452
0.8105	6.84814
0.811	4.33044
0.8115	2.01416
0.812	0.50354
0.8125	5.53894
0.813	8.15735
0.8135	11.58142
0.814	5.13611
0.8145	6.3446
0.815	4.53186
0.8155	6.3446
0.816	6.84814
0.8165	8.7616
0.817	1.81274
0.8175	6.3446
0.818	9.36584
0.8185	5.0354
0.819	6.44531
0.8195	0.50354
0.82	3.22266
0.8205	2.71912
0.821	4.53186
0.8215	12.08496
0.822	6.74744
0.8225	11.58142
0.823	7.95593
0.8235	5.74036
0.824	8.45947
0.8245	8.35876
0.825	8.25806
0.8255	3.22266
0.826	1.2085
0.8265	1.71204
0.827	5.94177
0.8275	1.3092
0.828	2.71912
0.8285	7.04956
0.829	8.25806
0.8295	2.81982
0.83	11.68213
0.8305	6.04248
0.831	6.04248
0.8315	7.25098
0.832	4.33044
0.8325	7.04956
0.833	3.92761
0.8335	8.15735
0.834	10.0708
0.8345	4.63257
0.835	5.23682
0.8355	7.5531
0.836	8.7616
0.8365	3.92761
0.837	6.14319
0.8375	6.04248
0.838	2.5177
0.8385	3.32336
0.839	3.92761
0.8395	6.14319
0.84	3.52478
0.8405	4.12903
0.841	4.12903
0.8415	2.61841
0.842	4.02832
0.8425	5.53894
0.843	9.76868
0.8435	6.94885
0.844	8.66089
0.8445	9.56726
0.845	2.71912
0.8455	1.81274
0.846	5.94177
0.8465	2.41699
0.847	7.95593
0.8475	4.73328
0.848	3.22266
0.8485	6.64673
0.849	6.3446
0.8495	10.0708
0.85	4.73328
0.8505	7.35168
0.851	11.2793
0.8515	6.64673
0.852	4.33044
0.8525	9.36584
0.853	1.81274
0.8535	6.2439
0.854	8.8623
0.8545	8.8623
0.855	7.25098
0.8555	5.43823
0.856	3.92761
0.8565	7.65381
0.857	6.04248
0.8575	5.84106
0.858	11.88354
0.8585	5.53894
0.859	-0.50354
0.8595	4.63257
0.86	4.63257
0.8605	5.63965
0.861	7.45239
0.8615	7.04956
0.862	7.35168
0.8625	5.74036
0.863	6.74744
0.8635	7.45239
0.864	8.66089
0.8645	4.83398
0.865	6.14319
0.8655	4.43115
0.866	2.11487
0.8665	4.33044
0.867	4.33044
0.8675	4.93469
0.868	2.71912
0.8685	0.70496
0.869	3.92761
0.8695	9.26514
0.87	3.7262
0.8705	3.22266
0.871	4.33044
0.8715	10.57434
0.872	1.61133
0.8725	1.3092
0.873	5.74036
0.8735	2.01416
0.874	0.40283
0.8745	4.12903
0.875	3.8269
0.8755	-0.50354
0.876	2.5177
0.8765	3.02124
0.877	-0.80566
0.8775	3.02124
0.878	8.96301
0.8785	4.43115
0.879	5.53894
0.8795	0.40283
0.88	4.83398
0.8805	5.23682
0.881	4.22974
0.8815	5.43823
0.882	5.43823
0.8825	3.52478
0.883	3.22266
0.8835	4.12903
0.884	8.15735
0.8845	7.25098
0.885	5.84106
0.8855	6.84814
0.886	4.02832
0.8865	5.84106
0.887	2.71912
0.8875	9.36584
0.888	7.04956
0.8885	4.43115
0.889	5.33752
0.8895	5.53894
0.89	3.52478
0.8905	5.74036
0.891	5.94177
0.8915	7.35168
0.892	4.22974
0.8925	10.97717
0.893	1.51062
0.8935	3.32336
0.894	4.53186
0.8945	2.21558
0.895	3.32336
0.8955	-1.3092
0.896	2.41699
0.8965	-1.00708
0.897	-1.51062
0.8975	2.71912
0.898	4.83398
0.8985	4.33044
0.899	5.23682
0.8995	7.85522
0.9	3.12195
0.9005	2.31628
0.901	3.7262
0.9015	-0.90637
0.902	0.40283
0.9025	3.8269
0.903	1.91345
0.9035	1.91345
0.904	7.25098
0.9045	3.12195
0.905	6.74744
0.9055	4.43115
0.906	1.3092
0.9065	7.5531
0.907	3.62549
0.9075	4.93469
0.908	3.52478
0.9085	3.32336
0.909	2.81982
0.9095	1.51062
0.91	0
0.9105	4.63257
0.911	5.53894
0.9115	3.8269
0.912	4.02832
0.9125	4.63257
0.913	4.43115
0.9135	2.21558
0.914	5.94177
0.9145	0.70496
0.915	7.04956
0.9155	3.52478
0.916	7.35168
0.9165	7.65381
0.917	3.12195
0.9175	3.02124
0.918	5.43823
0.9185	5.94177
0.919	8.35876
0.9195	5.0354
0.92	5.53894
0.9205	-0.60425
0.921	5.33752
0.9215	1.91345
0.922	5.0354
0.9225	10.47363
0.923	5.43823
0.9235	5.63965
0.924	11.2793
0.9245	9.36584
0.925	5.0354
0.9255	8.25806
0.926	4.63257
0.9265	7.75452
0.927	2.41699
0.9275	4.83398
0.928	9.66797
0.9285	12.08496
0.929	10.47363
0.9295	12.68921
0.93	8.7616
0.9305	12.5885
0.931	10.17151
0.9315	9.97009
0.932	8.66089
0.9325	10.17151
0.933	6.94885
0.9335	8.05664
0.934	5.53894
0.9345	9.66797
0.935	7.25098
0.9355	6.04248
0.936	7.95593
0.9365	8.05664
0.937	4.53186
0.9375	3.42407
0.938	2.01416
0.9385	3.8269
0.939	0.30212
0.9395	4.63257
0.94	2.81982
0.9405	9.36584
0.941	8.15735
0.9415	11.58142
0.942	14.50195
0.9425	12.28638
0.943	7.85522
0.9435	5.33752
0.944	11.17859
0.9445	2.11487
0.945	3.42407
0.9455	3.02124
0.946	7.25098
0.9465	10.97717
0.947	9.86938
0.9475	6.04248
0.948	2.41699
0.9485	6.3446
0.949	-1.61133
0.9495	-2.11487
0.95	2.71912
0.9505	1.61133
0.951	0
0.9515	2.5177
0.952	1.71204
0.9525	7.15027
0.953	8.45947
0.9535	1.51062
0.954	0.80566
0.9545	5.63965
0.955	3.7262
0.9555	8.35876
0.956	2.61841
0.9565	2.21558
0.957	7.35168
0.9575	3.52478
0.958	9.36584
0.9585	9.86938
0.959	3.42407
0.9595	2.71912
0.96	3.32336
0.9605	7.04956
0.961	2.31628
0.9615	6.64673
0.962	4.53186
0.9625	7.15027
0.963	7.5531
0.9635	2.71912
0.964	7.65381
0.9645	11.38
0.965	9.06372
0.9655	-0.70496
0.966	5.84106
0.9665	8.56018
0.967	8.7616
0.9675	3.22266
0.968	8.15735
0.9685	5.63965
0.969	2.61841
0.9695	6.84814
0.97	4.02832
0.9705	8.96301
0.971	1.71204
0.9715	6.2439
0.972	7.35168
0.9725	4.02832
0.973	8.66089
0.9735	7.85522
0.974	7.25098
0.9745	9.36584
0.975	7.95593
0.9755	8.15735
0.976	8.05664
0.9765	6.64673
0.977	9.16443
0.9775	7.5531
0.978	8.25806
0.9785	6.2439
0.979	5.53894
0.9795	4.33044
0.98	3.32336
0.9805	8.66089
0.981	1.61133
0.9815	3.22266
0.982	6.2439
0.9825	0.50354
0.983	1.10779
0.9835	-1.71204
0.984	10.57434
0.9845	5.13611
0.985	2.71912
0.9855	-1.2085
0.986	1.51062
0.9865	2.41699
0.987	6.94885
0.9875	7.65381
0.988	6.54602
0.9885	6.74744
0.989	3.62549
0.9895	-2.5177
0.99	-0.80566
0.9905	7.45239
0.991	3.62549
0.9915	0.50354
0.992	5.74036
0.9925	7.15027
0.993	2.81982
0.9935	3.8269
0.994	2.21558
0.9945	-0.80566
0.995	2.61841
0.9955	5.23682
0.996	3.7262
0.9965	6.44531
0.997	6.44531
0.9975	5.13611
0.998	-0.80566
0.9985	3.62549
0.999	5.43823
0.9995	6.2439
1	2.31628
1.0005	9.16443
1.001	1.71204
1.0015	1.40991
1.002	2.31628
1.0025	-2.81982
1.003	1.3092
1.0035	-5.53894
1.004	5.0354
1.0045	2.71912
1.005	5.53894
1.0055	0.90637
1.006	3.42407
1.0065	5.63965
1.007	7.15027
1.0075	8.8623
1.008	5.84106
1.0085	6.84814
1.009	2.81982
1.0095	4.53186
1.01	8.35876
1.0105	8.8623
1.011	0
1.0115	10.0708
1.012	6.74744
1.0125	4.53186
1.013	6.94885
1.0135	8.35876
1.014	2.61841
1.0145	-0.40283
1.015	2.92053
1.0155	5.84106
1.016	4.73328
1.0165	4.43115
1.017	1.91345
1.0175	-1.91345
1.018	7.35168
1.0185	5.63965
1.019	3.92761
1.0195	0
1.02	4.63257
1.0205	7.95593
1.021	4.73328
1.0215	2.5177
1.022	3.02124
1.0225	5.23682
1.023	3.52478
1.0235	3.92761
1.024	5.63965
1.0245	3.52478
1.025	4.63257
1.0255	2.5177
1.026	1.2085
1.0265	2.41699
1.027	1.40991
1.0275	3.7262
1.028	-2.5177
1.0285	2.92053
1.029	3.02124
1.0295	2.71912
1.03	3.8269
1.0305	4.73328
1.031	2.71912
1.0315	8.7616
1.032	6.74744
1.0325	0.40283
1.033	6.3446
1.0335	3.32336
1.034	4.63257
1.0345	2.21558
1.035	8.25806
1.0355	12.99133
1.036	7.65381
1.0365	5.94177
1.037	8.96301
1.0375	8.05664
1.038	9.36584
1.0385	8.56018
1.039	8.45947
1.0395	5.53894
1.04	7.35168
1.0405	13.49487
1.041	11.98425
1.0415	12.08496
1.042	7.95593
1.0425	12.18567
1.043	4.73328
1.0435	6.64673
1.044	8.66089
1.0445	11.58142
1.045	7.35168
1.0455	6.74744
1.046	10.17151
1.0465	9.36584
1.047	2.11487
1.0475	10.47363
1.048	6.14319
1.0485	7.45239
1.049	5.63965
1.0495	2.61841
1.05	4.73328
1.0505	8.25806
1.051	8.15735
1.0515	7.04956
1.052	8.35876
1.0525	7.95593
1.053	7.35168
1.0535	5.43823
1.054	7.95593
1.0545	8.05664
1.055	4.43115
1.0555	4.43115
1.056	2.11487
1.0565	7.04956
1.057	7.5531
1.0575	9.86938
1.058	5.13611
1.0585	5.53894
1.059	3.42407
1.0595	8.8623
1.06	10.57434
1.0605	12.08496
1.061	8.66089
1.0615	8.15735
1.062	9.56726
1.0625	6.2439
1.063	5.94177
1.0635	7.25098
1.064	8.8623
1.0645	5.84106
1.065	7.15027
1.0655	9.56726
1.066	3.12195
1.0665	1.2085
1.067	5.94177
1.0675	2.81982
1.068	5.0354
1.0685	9.16443
1.069	3.7262
1.0695	1.3092
1.07	2.11487
1.0705	3.8269
1.071	2.21558
1.0715	4.73328
1.072	6.94885
1.0725	2.61841
1.073	-0.10071
1.0735	3.7262
1.074	6.74744
1.0745	0.60425
1.075	1.81274
1.0755	3.62549
1.076	4.22974
1.0765	2.31628
1.077	6.64673
1.0775	9.36584
1.078	7.85522
1.0785	7.65381
1.079	5.74036
1.0795	6.54602
1.08	5.74036
1.0805	5.84106
1.081	3.8269
1.0815	9.06372
1.082	5.53894
1.0825	1.10779
1.083	6.94885
1.0835	5.0354
1.084	1.00708
1.0845	4.93469
1.085	1.10779
1.0855	11.07788
1.086	7.65381
1.0865	4.83398
1.087	15.71045
1.0875	9.26514
1.088	10.67505
1.0885	8.66089
1.089	2.61841
1.0895	10.97717
1.09	7.25098
1.0905	6.2439
1.091	10.67505
1.0915	9.06372
1.092	3.8269
1.0925	7.65381
1.093	9.26514
1.0935	11.38
1.094	4.12903
1.0945	10.77576
1.095	8.35876
1.0955	10.17151
1.096	10.77576
1.0965	10.97717
1.097	11.07788
1.0975	11.17859
1.098	11.88354
1.0985	13.19275
1.099	14.70337
1.0995	8.96301
1.1	10.37292
1.1005	7.45239
1.101	10.17151
1.1015	8.66089
1.102	10.97717
1.1025	12.48779
1.103	10.27222
1.1035	7.25098
1.104	7.5531
1.1045	1.3092
1.105	7.65381
1.1055	9.06372
1.106	5.94177
1.1065	2.81982
1.107	-0.20142
1.1075	5.84106
1.108	7.5531
1.1085	4.73328
1.109	5.43823
1.1095	5.13611
1.11	7.75452
1.1105	4.33044
1.111	4.33044
1.1115	10.97717
1.112	2.5177
1.1125	8.05664
1.113	2.61841
1.1135	7.04956
1.114	4.73328
1.1145	1.91345
1.115	0.60425
1.1155	11.17859
1.116	6.84814
1.1165	3.8269
1.117	4.53186
1.1175	5.0354
1.118	11.68213
1.1185	6.94885
1.119	4.43115
1.1195	0
1.12	8.25806
1.1205	8.7616
1.121	6.14319
1.1215	5.0354
1.122	6.44531
1.1225	4.02832
1.123	5.0354
1.1235	6.74744
1.124	3.02124
1.1245	3.02124
1.125	3.8269
1.1255	6.54602
1.126	4.83398
1.1265	3.62549
1.127	-1.61133
1.1275	4.93469
1.128	4.33044
1.1285	6.94885
1.129	-0.70496
1.1295	2.21558
1.13	1.3092
1.1305	-0.70496
1.131	3.02124
1.1315	-0.50354
1.132	3.7262
1.1325	3.22266
1.133	10.37292
1.1335	8.05664
1.134	2.61841
1.1345	2.61841
1.135	9.26514
1.1355	6.14319
1.136	7.15027
1.1365	6.2439
1.137	6.54602
1.1375	7.15027
1.138	7.5531
1.1385	3.62549
1.139	6.04248
1.1395	1.61133
1.14	3.42407
1.1405	2.01416
1.141	4.93469
1.1415	3.22266
1.142	5.94177
1.1425	6.54602
1.143	9.76868
1.1435	11.78284
1.144	4.63257
1.1445	4.43115
1.145	8.96301
1.1455	7.04956
1.146	6.54602
1.1465	6.54602
1.147	7.04956
1.1475	6.74744
1.148	6.54602
1.1485	15.1062
1.149	8.96301
1.1495	4.63257
1.15	6.04248
1.1505	9.86938
1.151	6.04248
1.1515	6.2439
1.152	7.25098
1.1525	6.94885
1.153	-0.70496
1.1535	3.22266
1.154	-0.20142
1.1545	6.54602
1.155	7.5531
1.1555	1.40991
1.156	5.13611
1.1565	8.8623
1.157	3.52478
1.1575	9.76868
1.158	3.92761
1.1585	1.91345
1.159	9.46655
1.1595	7.45239
1.16	7.15027
1.1605	9.36584
1.161	7.35168
1.1615	10.57434
1.162	1.40991
1.1625	3.92761
1.163	6.64673
1.1635	11.88354
1.164	4.93469
1.1645	0.40283
1.165	6.84814
1.1655	3.12195
1.166	5.43823
1.1665	3.42407
1.167	0.80566
1.1675	7.15027
1.168	6.94885
1.1685	3.8269
1.169	4.63257
1.1695	2.81982
1.17	3.32336
1.1705	6.94885
1.171	6.44531
1.1715	-0.40283
1.172	-1.40991
1.1725	4.22974
1.173	7.04956
1.1735	4.53186
1.174	5.94177
1.1745	2.11487
1.175	1.40991
1.1755	4.53186
1.176	0.20142
1.1765	7.85522
1.177	1.40991
1.1775	5.33752
1.178	6.64673
1.1785	11.2793
1.179	11.88354
1.1795	3.8269
1.18	4.12903
1.1805	5.53894
1.181	8.35876
1.1815	5.63965
1.182	4.53186
1.1825	3.22266
1.183	10.67505
1.1835	6.94885
1.184	10.37292
1.1845	3.92761
1.185	5.94177
1.1855	7.75452
1.186	6.04248
1.1865	8.45947
1.187	8.56018
1.1875	1.40991
1.188	0
1.1885	0
1.189	0.30212
1.1895	2.41699
1.19	4.53186
1.1905	5.13611
1.191	3.7262
1.1915	1.10779
1.192	4.33044
1.1925	7.5531
1.193	6.54602
1.1935	4.02832
1.194	4.63257
1.1945	8.66089
1.195	9.56726
1.1955	11.38
1.196	6.54602
1.1965	7.85522
1.197	5.63965
1.1975	11.38
1.198	5.33752
1.1985	6.44531
1.199	8.66089
1.1995	5.84106
1.2	10.27222
1.2005	11.48071
1.201	8.15735
1.2015	11.58142
1.202	8.66089
1.2025	8.7616
1.203	0.70496
1.2035	10.57434
1.204	10.37292
1.2045	7.25098
1.205	13.29346
1.2055	9.66797
1.206	11.88354
1.2065	5.63965
1.207	7.15027
1.2075	9.16443
1.208	8.8623
1.2085	8.25806
1.209	7.15027
1.2095	6.44531
1.21	10.17151
1.2105	10.27222
1.211	3.32336
1.2115	2.5177
1.212	12.5885
1.2125	5.13611
1.213	6.04248
1.2135	10.97717
1.214	12.08496
1.2145	10.0708
1.215	8.05664
1.2155	10.87646
1.216	8.35876
1.2165	8.56018
1.217	12.5885
1.2175	11.98425
1.218	9.56726
1.2185	4.33044
1.219	9.76868
1.2195	7.85522
1.22	9.66797
1.2205	6.74744
1.221	12.08496
1.2215	5.84106
1.222	0.80566
1.2225	5.33752
1.223	4.73328
1.2235	4.33044
1.224	6.64673
1.2245	5.53894
1.225	7.95593
1.2255	6.74744
1.226	6.44531
1.2265	6.14319
1.227	12.78992
1.2275	8.8623
1.228	4.02832
1.2285	5.0354
1.229	5.74036
1.2295	4.63257
1.23	5.43823
1.2305	7.45239
1.231	4.53186
1.2315	7.35168
1.232	4.43115
1.2325	1.61133
1.233	3.42407
1.2335	2.21558
1.234	1.91345
1.2345	3.02124
1.235	6.14319
1.2355	1.61133
1.236	5.43823
1.2365	2.11487
1.237	3.62549
1.2375	6.2439
1.238	2.5177
1.2385	4.73328
1.239	8.35876
1.2395	6.04248
1.24	8.7616
1.2405	5.84106
1.241	8.15735
1.2415	3.42407
1.242	5.63965
1.2425	9.26514
1.243	11.78284
1.2435	10.37292
1.244	4.63257
1.2445	7.85522
1.245	12.99133
1.2455	7.04956
1.246	9.26514
1.2465	7.04956
1.247	5.0354
1.2475	3.62549
1.248	7.35168
1.2485	8.05664
1.249	9.97009
1.2495	9.66797
1.25	8.66089
1.2505	10.37292
1.251	10.27222
1.2515	5.23682
1.252	10.87646
1.2525	7.15027
1.253	8.45947
1.2535	10.0708
1.254	5.94177
1.2545	5.43823
1.255	4.73328
1.2555	11.17859
1.256	7.25098
1.2565	6.64673
1.257	9.46655
1.2575	6.44531
1.258	9.46655
1.2585	4.93469
1.259	7.04956
1.2595	8.35876
1.26	5.13611
1.2605	5.43823
1.261	14.60266
1.2615	11.88354
1.262	10.0708
1.2625	14.30054
1.263	8.15735
1.2635	4.83398
1.264	2.92053
1.2645	5.84106
1.265	1.71204
1.2655	4.02832
1.266	0.80566
1.2665	3.8269
1.267	9.06372
1.2675	5.94177
1.268	3.7262
1.2685	6.74744
1.269	2.01416
1.2695	5.53894
1.27	6.2439
1.2705	6.44531
1.271	3.22266
1.2715	3.52478
1.272	4.53186
1.2725	2.92053
1.273	11.88354
1.2735	6.14319
1.274	4.02832
1.2745	4.73328
1.275	4.83398
1.2755	-0.30212
1.276	4.02832
1.2765	3.8269
1.277	1.91345
1.2775	5.84106
1.278	2.01416
1.2785	-0.70496
1.279	1.91345
1.2795	4.12903
1.28	5.63965
1.2805	3.62549
1.281	8.15735
1.2815	3.22266
1.282	10.97717
1.2825	3.42407
1.283	8.05664
1.2835	7.65381
1.284	4.93469
1.2845	4.73328
1.285	4.02832
1.2855	10.67505
1.286	2.81982
1.2865	5.43823
1.287	5.23682
1.2875	4.12903
1.288	4.83398
1.2885	-0.80566
1.289	4.93469
1.2895	5.0354
1.29	2.71912
1.2905	1.00708
1.291	1.3092
1.2915	-2.41699
1.292	-3.02124
1.2925	-1.00708
1.293	1.51062
1.2935	-4.33044
1.294	-4.22974
1.2945	-0.80566
1.295	4.43115
1.2955	-3.32336
1.296	2.5177
1.2965	-0.10071
1.297	5.63965
1.2975	3.92761
1.298	-1.00708
1.2985	0.20142
1.299	6.44531
1.2995	2.11487
1.3	4.73328
1.3005	4.83398
1.301	6.54602
1.3015	7.5531
1.302	7.04956
1.3025	7.95593
1.303	7.15027
1.3035	3.7262
1.304	5.74036
1.3045	6.14319
1.305	7.35168
1.3055	4.63257
1.306	4.73328
1.3065	9.16443
1.307	8.96301
1.3075	3.02124
1.308	8.45947
1.3085	11.88354
1.309	6.94885
1.3095	3.62549
1.31	-0.60425
1.3105	2.5177
1.311	0.30212
1.3115	3.92761
1.312	4.73328
1.3125	4.22974
1.313	9.66797
1.3135	5.53894
1.314	10.37292
1.3145	7.65381
1.315	8.96301
1.3155	8.7616
1.316	9.36584
1.3165	7.04956
1.317	6.54602
1.3175	4.63257
1.318	10.37292
1.3185	9.46655
1.319	7.85522
1.3195	5.53894
1.32	5.13611
1.3205	6.44531
1.321	9.46655
1.3215	4.63257
1.322	3.62549
1.3225	5.84106
1.323	5.43823
1.3235	4.12903
1.324	3.02124
1.3245	8.66089
1.325	9.97009
1.3255	3.7262
1.326	9.26514
1.3265	6.3446
1.327	7.75452
1.3275	12.38708
1.328	4.73328
1.3285	7.85522
1.329	7.04956
1.3295	5.84106
1.33	2.21558
1.3305	5.94177
1.331	0.60425
1.3315	2.81982
1.332	4.63257
1.3325	1.2085
1.333	0.40283
1.3335	12.38708
1.334	7.95593
1.3345	3.8269
1.335	5.0354
1.3355	3.52478
1.336	13.39417
1.3365	10.27222
1.337	10.57434
1.3375	2.01416
1.338	0.30212
1.3385	4.02832
1.339	8.8623
1.3395	8.35876
1.34	12.68921
1.3405	8.35876
1.341	6.94885
1.3415	8.45947
1.342	5.63965
1.3425	9.97009
1.343	6.3446
1.3435	8.8623
1.344	5.84106
1.3445	5.23682
1.345	7.95593
1.3455	4.93469
1.346	3.7262
1.3465	6.04248
1.347	-0.80566
1.3475	-1.10779
1.348	3.8269
1.3485	3.02124
1.349	7.25098
1.3495	2.41699
1.35	9.16443
1.3505	12.68921
1.351	14.40125
1.3515	10.57434
1.352	9.46655
1.3525	12.08496
1.353	6.64673
1.3535	4.73328
1.354	4.53186
1.3545	5.53894
1.355	7.45239
1.3555	7.95593
1.356	4.02832
1.3565	2.71912
1.357	9.76868
1.3575	0
1.358	9.26514
1.3585	11.98425
1.359	12.68921
1.3595	10.57434
1.36	7.15027
1.3605	7.45239
1.361	9.26514
1.3615	9.56726
1.362	6.54602
1.3625	7.65381
1.363	11.78284
1.3635	6.2439
1.364	7.45239
1.3645	3.8269
1.365	7.25098
1.3655	1.10779
1.366	5.63965
1.3665	7.95593
1.367	5.94177
1.3675	7.75452
1.368	4.93469
1.3685	7.45239
1.369	3.92761
1.3695	5.33752
1.37	2.92053
1.3705	5.63965
1.371	7.5531
1.3715	6.04248
1.372	4.53186
1.3725	2.01416
1.373	4.73328
1.3735	0.70496
1.374	0.20142
1.3745	3.52478
1.375	0.80566
1.3755	2.41699
1.376	-0.90637
1.3765	4.83398
1.377	6.3446
1.3775	5.63965
1.378	7.5531
1.3785	4.02832
1.379	5.33752
1.3795	2.31628
1.38	3.52478
1.3805	7.15027
1.381	8.05664
1.3815	3.22266
1.382	7.04956
1.3825	3.22266
1.383	3.42407
1.3835	6.2439
1.384	9.46655
1.3845	7.75452
1.385	8.96301
1.3855	7.85522
1.386	7.85522
1.3865	5.53894
1.387	7.65381
1.3875	5.23682
1.388	7.65381
1.3885	9.86938
1.389	10.17151
1.3895	10.27222
1.39	13.09204
1.3905	6.2439
1.391	9.97009
1.3915	4.43115
1.392	10.57434
1.3925	-0.10071
1.393	6.44531
1.3935	4.43115
1.394	4.22974
1.3945	5.0354
1.395	5.43823
1.3955	4.63257
1.396	4.43115
1.3965	5.33752
1.397	6.54602
1.3975	7.95593
1.398	4.12903
1.3985	4.33044
1.399	4.22974
1.3995	3.32336
1.4	8.05664
1.4005	11.88354
1.401	8.8623
1.4015	3.7262
1.402	6.04248
1.4025	5.13611
1.403	4.33044
1.4035	5.23682
1.404	7.85522
1.4045	8.56018
1.405	7.15027
1.4055	10.47363
1.406	5.23682
1.4065	12.89062
1.407	8.56018
1.4075	7.04956
1.408	3.32336
1.4085	8.15735
1.409	12.08496
1.4095	10.57434
1.41	5.13611
1.4105	4.22974
1.411	5.33752
1.4115	1.40991
1.412	9.06372
1.4125	7.25098
1.413	8.7616
1.4135	11.78284
1.414	12.89062
1.4145	9.16443
1.415	3.22266
1.4155	9.97009
1.416	2.81982
1.4165	8.05664
1.417	7.95593
1.4175	10.17151
1.418	4.63257
1.4185	7.75452
1.419	9.97009
1.4195	12.99133
1.42	18.22815
1.4205	20.94727
1.421	20.54443
1.4215	24.67346
1.422	22.05505
1.4225	25.78125
1.423	25.88196
1.4235	23.8678
1.424	22.45789
1.4245	23.76709
1.425	16.21399
1.4255	15.81116
1.426	12.38708
1.4265	5.84106
1.427	12.28638
1.4275	5.94177
1.428	4.33044
1.4285	2.31628
1.429	6.14319
1.4295	4.63257
1.43	3.52478
1.4305	5.53894
1.431	-2.92053
1.4315	1.51062
1.432	3.22266
1.4325	0.60425
1.433	-2.21558
1.4335	-6.64673
1.434	-6.74744
1.4345	-4.53186
1.435	-8.25806
1.4355	-12.08496
1.436	-10.17151
1.4365	-13.69629
1.437	-10.97717
1.4375	-11.2793
1.438	-6.3446
1.4385	-13.29346
1.439	-8.56018
1.4395	-9.16443
1.44	-8.56018
1.4405	-11.58142
1.441	-4.33044
1.4415	0.90637
1.442	-1.40991
1.4425	0.60425
1.443	1.40991
1.4435	-6.04248
1.444	1.10779
1.4445	0.50354
1.445	3.02124
1.4455	2.92053
1.446	3.52478
1.4465	7.45239
1.447	6.44531
1.4475	2.21558
1.448	1.00708
1.4485	-1.71204
1.449	-0.40283
1.4495	4.53186
1.45	5.13611
1.4505	4.93469
1.451	7.5531
1.4515	4.63257
1.452	4.43115
1.4525	11.78284
1.453	6.64673
1.4535	5.13611
1.454	8.45947
1.4545	8.05664
1.455	2.31628
1.4555	6.04248
1.456	7.15027
1.4565	4.63257
1.457	5.84106
1.4575	1.61133
1.458	3.92761
1.4585	10.27222
1.459	8.8623
1.4595	2.5177
1.46	5.33752
1.4605	3.42407
1.461	2.31628
1.4615	3.42407
1.462	6.94885
1.4625	7.65381
1.463	11.07788
1.4635	13.49487
1.464	14.70337
1.4645	10.97717
1.465	12.78992
1.4655	16.01257
1.466	16.81824
1.4665	14.70337
1.467	14.40125
1.4675	14.50195
1.468	13.69629
1.4685	16.91895
1.469	13.89771
1.4695	15.91187
1.47	15.30762
1.4705	15.00549
1.471	10.87646
1.4715	12.38708
1.472	13.69629
1.4725	15.30762
1.473	12.78992
1.4735	11.68213
1.474	9.56726
1.4745	10.37292
1.475	7.35168
1.4755	11.98425
1.476	9.16443
1.4765	8.25806
1.477	8.05664
1.4775	12.5885
1.478	9.16443
1.4785	2.5177
1.479	0.60425
1.4795	9.16443
1.48	-0.40283
1.4805	1.81274
1.481	2.01416
1.4815	1.10779
1.482	2.81982
1.4825	4.22974
1.483	0.70496
1.4835	1.51062
1.484	-6.04248
1.4845	-0.20142
1.485	-0.60425
1.4855	-6.3446
1.486	-5.63965
1.4865	-2.81982
1.487	-3.02124
1.4875	0
1.488	-2.01416
1.4885	-0.30212
1.489	-3.02124
1.4895	-6.2439
1.49	-1.10779
1.4905	-1.51062
1.491	-3.02124
1.4915	-6.3446
1.492	-2.21558
1.4925	2.21558
1.493	3.7262
1.4935	6.74744
1.494	3.02124
1.4945	3.52478
1.495	2.41699
1.4955	1.61133
1.496	3.42407
1.4965	4.83398
1.497	3.62549
1.4975	5.43823
1.498	4.22974
1.4985	7.25098
1.499	1.2085
1.4995	3.02124
1.5	3.8269
1.5005	8.15735
1.501	10.17151
1.5015	8.8623
1.502	7.25098
1.5025	10.0708
1.503	11.38
1.5035	12.5885
1.504	10.97717
1.5045	9.46655
1.505	8.05664
1.5055	9.06372
1.506	11.48071
1.5065	6.2439
1.507	12.08496
1.5075	8.05664
1.508	5.0354
1.5085	7.45239
1.509	5.13611
1.5095	6.2439
1.51	7.04956
1.5105	4.83398
1.511	9.46655
1.5115	11.98425
1.512	15.60974
1.5125	10.87646
1.513	8.15735
1.5135	10.97717
1.514	8.25806
1.5145	4.12903
1.515	12.38708
1.5155	7.95593
1.516	11.88354
1.5165	9.46655
1.517	7.75452
1.5175	6.44531
1.518	9.16443
1.5185	9.56726
1.519	10.0708
1.5195	13.19275
1.52	10.57434
1.5205	7.15027
1.521	1.40991
1.5215	10.67505
1.522	11.17859
1.5225	4.63257
1.523	5.84106
1.5235	7.45239
1.524	8.45947
1.5245	8.05664
1.525	7.5531
1.5255	11.07788
1.526	10.47363
1.5265	6.64673
1.527	8.15735
1.5275	7.35168
1.528	5.13611
1.5285	1.40991
1.529	5.74036
1.5295	3.42407
1.53	8.8623
1.5305	8.96301
1.531	9.97009
1.5315	4.53186
1.532	8.7616
1.5325	4.53186
1.533	5.23682
1.5335	6.94885
1.534	3.12195
1.5345	5.63965
1.535	2.61841
1.5355	-0.30212
1.536	3.92761
1.5365	9.06372
1.537	2.92053
1.5375	2.92053
1.538	3.62549
1.5385	2.92053
1.539	0.70496
1.5395	7.15027
1.54	2.41699
1.5405	1.71204
1.541	4.63257
1.5415	2.92053
1.542	6.74744
1.5425	2.92053
1.543	1.81274
1.5435	2.41699
1.544	8.8623
1.5445	6.74744
1.545	7.35168
1.5455	12.68921
1.546	5.13611
1.5465	7.35168
1.547	9.56726
1.5475	9.06372
1.548	8.96301
1.5485	11.48071
1.549	5.43823
1.5495	10.37292
1.55	6.64673
1.5505	8.7616
1.551	4.93469
1.5515	8.56018
1.552	9.66797
1.5525	10.37292
1.553	10.67505
1.5535	5.74036
1.554	6.44531
1.5545	7.5531
1.555	6.54602
1.5555	6.84814
1.556	5.0354
1.5565	1.71204
1.557	3.32336
1.5575	3.52478
1.558	6.44531
1.5585	2.81982
1.559	7.45239
1.5595	2.5177
1.56	7.35168
1.5605	7.85522
1.561	5.43823
1.5615	2.71912
1.562	5.0354
1.5625	5.63965
1.563	5.33752
1.5635	9.56726
1.564	3.8269
1.5645	3.32336
1.565	6.44531
1.5655	9.36584
1.566	-0.20142
1.5665	-4.12903
1.567	1.51062
1.5675	5.0354
1.568	2.71912
1.5685	5.63965
1.569	3.52478
1.5695	4.53186
1.57	5.63965
1.5705	4.93469
1.571	3.32336
1.5715	4.93469
1.572	9.16443
1.5725	4.22974
1.573	11.2793
1.5735	9.86938
1.574	8.56018
1.5745	10.57434
1.575	14.90479
1.5755	9.26514
1.576	12.18567
1.5765	14.70337
1.577	14.09912
1.5775	11.38
1.578	11.17859
1.5785	9.76868
1.579	15.20691
1.5795	11.88354
1.58	7.75452
1.5805	4.73328
1.581	3.12195
1.5815	8.7616
1.582	6.74744
1.5825	6.54602
1.583	8.8623
1.5835	9.56726
1.584	11.58142
1.5845	13.29346
1.585	17.92603
1.5855	23.76709
1.586	35.54993
1.5865	46.82922
1.587	53.57666
1.5875	54.98657
1.588	59.82056
1.5885	60.3241
1.589	53.37524
1.5895	45.3186
1.59	39.67896
1.5905	30.31311
1.591	9.86938
1.5915	-3.32336
1.592	-9.36584
1.5925	-23.76709
1.593	-30.51453
1.5935	-39.57825
1.594	-36.55701
1.5945	-37.06055
1.595	-40.68604
1.5955	-38.67188
1.596	-33.03223
1.5965	-32.02515
1.597	-24.67346
1.5975	-17.42249
1.598	-16.01257
1.5985	-9.86938
1.599	-3.12195
1.5995	-2.81982
1.6	2.71912
1.6005	-6.3446
1.601	-7.15027
1.6015	-10.47363
1.602	-13.19275
1.6025	-9.16443
1.603	-5.84106
1.6035	-8.05664
1.604	0.70496
1.6045	-2.5177
1.605	-4.43115
1.6055	-1.2085
1.606	0.90637
1.6065	-1.3092
1.607	-3.52478
1.6075	-1.81274
1.608	1.40991
1.6085	-4.43115
1.609	-5.94177
1.6095	0.20142
1.61	-1.81274
1.6105	-7.5531
1.611	-1.61133
1.6115	-0.80566
1.612	-2.21558
1.6125	-2.5177
1.613	0.10071
1.6135	6.94885
1.614	-0.50354
1.6145	-2.01416
1.615	3.32336
1.6155	3.32336
1.616	1.81274
1.6165	7.5531
1.617	10.57434
1.6175	8.35876
1.618	5.53894
1.6185	5.43823
1.619	5.74036
1.6195	8.56018
1.62	7.45239
1.6205	6.04248
1.621	6.84814
1.6215	9.97009
1.622	2.11487
1.6225	6.54602
1.623	7.65381
1.6235	7.35168
1.624	8.66089
1.6245	7.25098
1.625	10.47363
1.6255	6.04248
1.626	6.94885
1.6265	10.0708
1.627	7.25098
1.6275	8.45947
1.628	10.77576
1.6285	8.25806
1.629	9.46655
1.6295	7.45239
1.63	6.2439
1.6305	9.16443
1.631	9.86938
1.6315	7.65381
1.632	5.23682
1.6325	7.45239
1.633	4.33044
1.6335	6.84814
1.634	8.15735
1.6345	6.64673
1.635	3.02124
1.6355	2.92053
1.636	5.13611
1.6365	5.0354
1.637	8.15735
1.6375	8.56018
1.638	8.25806
1.6385	10.0708
1.639	8.35876
1.6395	6.44531
1.64	3.32336
1.6405	2.5177
1.641	7.65381
1.6415	1.00708
1.642	10.17151
1.6425	8.15735
1.643	7.04956
1.6435	10.97717
1.644	8.7616
1.6445	10.17151
1.645	2.01416
1.6455	1.2085
1.646	0.90637
1.6465	-2.61841
1.647	5.43823
1.6475	2.81982
1.648	4.53186
1.6485	5.13611
1.649	2.01416
1.6495	4.53186
1.65	8.35876
1.6505	13.99841
1.651	14.40125
1.6515	16.51611
1.652	17.72461
1.6525	18.22815
1.653	27.89612
1.6535	31.82373
1.654	36.05347
1.6545	35.14709
1.655	34.54285
1.6555	32.02515
1.656	23.36426
1.6565	19.83948
1.657	15.30762
1.6575	8.8623
1.658	6.84814
1.6585	5.13611
1.659	3.42407
1.6595	0.70496
1.66	-3.32336
1.6605	-5.13611
1.661	-9.16443
1.6615	-8.7616
1.662	-9.46655
1.6625	-13.39417
1.663	-15.00549
1.6635	-19.83948
1.664	-21.45081
1.6645	-23.26355
1.665	-19.73877
1.6655	-17.12036
1.666	-16.51611
1.6665	-11.98425
1.667	1.2085
1.6675	6.54602
1.668	13.29346
1.6685	26.78833
1.669	44.71436
1.6695	61.73401
1.67	77.54517
1.6705	93.55774
1.671	97.48535
1.6715	87.31384
1.672	83.38623
1.6725	67.8772
1.673	53.87878
1.6735	31.82373
1.674	11.07788
1.6745	-10.0708
1.675	-34.74426
1.6755	-52.26746
1.676	-58.91418
1.6765	-65.56091
1.677	-69.38782
1.6775	-72.50977
1.678	-70.89844
1.6785	-64.55383
1.679	-51.36108
1.6795	-46.12427
1.68	-35.54993
1.6805	-23.36426
1.681	-6.84814
1.6815	-0.60425
1.682	4.33044
1.6825	6.64673
1.683	12.08496
1.6835	18.02673
1.684	28.19824
1.6845	25.27771
1.685	24.97559
1.6855	13.69629
1.686	16.01257
1.6865	11.58142
1.687	11.68213
1.6875	6.94885
1.688	5.84106
1.6885	10.0708
1.689	17.42249
1.6895	19.13452
1.69	18.12744
1.6905	11.38
1.691	11.48071
1.6915	9.86938
1.692	15.1062
1.6925	20.54443
1.693	24.77417
1.6935	23.56567
1.694	33.03223
1.6945	37.36267
1.695	31.21948
1.6955	34.84497
1.696	44.21082
1.6965	52.36816
1.697	52.771
1.6975	54.68445
1.698	50.85754
1.6985	42.09595
1.699	30.31311
1.6995	20.64514
1.7	7.45239
1.7005	-1.51062
1.701	-19.03381
1.7015	-23.76709
1.702	-33.03223
1.7025	-44.0094
1.703	-45.62073
1.7035	-52.06604
1.704	-46.92993
1.7045	-47.8363
1.705	-48.13843
1.7055	-46.5271
1.706	-40.38391
1.7065	-33.13293
1.707	-21.45081
1.7075	-8.7616
1.708	-4.73328
1.7085	-1.3092
1.709	0.30212
1.7095	8.35876
1.71	-2.61841
1.7105	4.73328
1.711	0.10071
1.7115	6.3446
1.712	2.61841
1.7125	3.42407
1.713	6.94885
1.7135	4.33044
1.714	4.43115
1.7145	15.91187
1.715	17.6239
1.7155	7.25098
1.716	8.45947
1.7165	11.07788
1.717	8.45947
1.7175	5.43823
1.718	11.78284
1.7185	24.97559
1.719	21.75293
1.7195	25.37842
1.72	30.61523
1.7205	31.32019
1.721	31.92444
1.7215	31.32019
1.722	28.39966
1.7225	25.27771
1.723	18.12744
1.7235	17.6239
1.724	8.56018
1.7245	6.54602
1.725	8.15735
1.7255	-3.52478
1.726	-5.33752
1.7265	-7.35168
1.727	-8.05664
1.7275	-7.65381
1.728	-4.02832
1.7285	2.71912
1.729	-1.10779
1.7295	-0.50354
1.73	0.20142
1.7305	10.47363
1.731	14.30054
1.7315	9.36584
1.732	14.19983
1.7325	12.89062
1.733	13.49487
1.7335	13.29346
1.734	10.97717
1.7345	14.80408
1.735	20.44373
1.7355	34.03931
1.736	41.39099
1.7365	46.5271
1.737	40.48462
1.7375	42.39807
1.738	37.46338
1.7385	30.81665
1.739	23.96851
1.7395	12.5885
1.74	2.5177
1.7405	-0.90637
1.741	-12.78992
1.7415	-16.11328
1.742	-18.12744
1.7425	-19.63806
1.743	-16.71753
1.7435	-20.34302
1.744	-23.46497
1.7445	-20.24231
1.745	-17.52319
1.7455	-10.97717
1.746	-2.92053
1.7465	6.54602
1.747	15.81116
1.7475	21.45081
1.748	20.24231
1.7485	35.2478
1.749	44.21082
1.7495	75.32959
1.75	98.19031
1.7505	105.54199
1.751	122.36023
1.7515	134.84802
1.752	138.3728
1.7525	142.60254
1.753	132.33032
1.7535	116.922
1.754	86.70959
1.7545	43.70728
1.755	8.96301
1.7555	-15.50903
1.756	-46.72852
1.7565	-69.99207
1.757	-95.37048
1.7575	-113.1958
1.758	-124.4751
1.7585	-122.96448
1.759	-120.34607
1.7595	-113.69934
1.76	-105.54199
1.7605	-94.86694
1.761	-74.62463
1.7615	-51.26038
1.762	-35.2478
1.7625	-18.53027
1.763	-3.7262
1.7635	6.44531
1.764	18.93311
1.7645	24.06921
1.765	26.98975
1.7655	25.37842
1.766	22.35718
1.7665	29.30603
1.767	19.33594
1.7675	12.48779
1.768	9.76868
1.7685	0
1.769	-10.97717
1.7695	-13.09204
1.77	-16.3147
1.7705	-29.80957
1.771	-33.73718
1.7715	-34.74426
1.772	-41.08887
1.7725	-45.01648
1.773	-40.58533
1.7735	-37.56409
1.774	-28.09753
1.7745	-25.68054
1.775	-13.39417
1.7755	-2.41699
1.776	-1.61133
1.7765	5.23682
1.777	7.15027
1.7775	5.23682
1.778	9.76868
1.7785	13.797
1.779	20.84656
1.7795	26.28479
1.78	26.58691
1.7805	29.10461
1.781	19.73877
1.7815	22.35718
1.782	18.22815
1.7825	19.33594
1.783	17.92603
1.7835	20.84656
1.784	17.52319
1.7845	22.05505
1.785	21.3501
1.7855	17.12036
1.786	18.93311
1.7865	11.58142
1.787	10.0708
1.7875	12.38708
1.788	14.60266
1.7885	14.09912
1.789	15.30762
1.7895	11.58142
1.79	14.40125
1.7905	6.74744
1.791	5.0354
1.7915	7.75452
1.792	11.07788
1.7925	9.36584
1.793	14.30054
1.7935	10.47363
1.794	11.88354
1.7945	15.1062
1.795	13.19275
1.7955	16.51611
1.796	21.45081
1.7965	19.73877
1.797	22.15576
1.7975	27.49329
1.798	28.39966
1.7985	21.3501
1.799	26.28479
1.7995	27.89612
1.8	20.44373
1.8005	23.36426
1.801	19.73877
1.8015	24.16992
1.802	15.40833
1.8025	13.09204
1.803	17.01965
1.8035	3.42407
1.804	7.95593
1.8045	7.5531
1.805	5.23682
1.8055	4.93469
1.806	-1.40991
1.8065	-2.61841
1.807	-4.63257
1.8075	-3.92761
1.808	-2.81982
1.8085	-6.84814
1.809	-7.5531
1.8095	-6.74744
1.81	-4.83398
1.8105	-12.08496
1.811	-9.46655
1.8115	-8.25806
1.812	-8.8623
1.8125	-6.3446
1.813	-13.29346
1.8135	-12.08496
1.814	-4.53186
1.8145	-3.42407
1.815	-0.70496
1.8155	3.12195
1.816	3.12195
1.8165	-0.80566
1.817	2.31628
1.8175	3.42407
1.818	1.51062
1.8185	6.94885
1.819	0.90637
1.8195	2.21558
1.82	4.83398
1.8205	4.73328
1.821	4.43115
1.8215	5.94177
1.822	3.62549
1.8225	8.66089
1.823	13.797
1.8235	31.62231
1.824	36.75842
1.8245	40.1825
1.825	38.47046
1.8255	41.89453
1.826	40.68604
1.8265	57.00073
1.827	68.38074
1.8275	64.05029
1.828	57.60498
1.8285	45.11719
1.829	42.49878
1.8295	29.40674
1.83	29.30603
1.8305	19.23523
1.831	12.28638
1.8315	12.99133
1.832	16.51611
1.8325	8.7616
1.833	9.06372
1.8335	5.0354
1.834	6.2439
1.8345	-0.90637
1.835	-10.97717
1.8355	-19.53735
1.836	-23.66638
1.8365	-29.20532
1.837	-45.52002
1.8375	-38.57117
1.838	-49.64905
1.8385	-51.66321
1.839	-57.10144
1.8395	-54.88586
1.84	-43.20374
1.8405	-34.44214
1.841	-30.51453
1.8415	-34.54285
1.842	-27.39258
1.8425	-19.73877
1.843	-9.97009
1.8435	-0.60425
1.844	8.25806
1.8445	12.78992
1.845	10.57434
1.8455	8.7616
1.846	1.00708
1.8465	9.86938
1.847	8.15735
1.8475	12.5885
1.848	14.40125
1.8485	21.75293
1.849	16.91895
1.8495	15.81116
1.85	14.60266
1.8505	8.25806
1.851	9.06372
1.8515	11.38
1.852	5.94177
1.8525	1.81274
1.853	2.21558
1.8535	1.81274
1.854	0.10071
1.8545	0
1.855	-1.3092
1.8555	-7.15027
1.856	-5.23682
1.8565	-2.11487
1.857	8.35876
1.8575	5.33752
1.858	8.7616
1.8585	5.94177
1.859	1.51062
1.8595	-2.61841
1.86	-1.40991
1.8605	2.01416
1.861	7.25098
1.8615	11.2793
1.862	26.08337
1.8625	39.57825
1.863	51.15967
1.8635	70.29419
1.864	87.91809
1.8645	105.34058
1.865	124.07227
1.8655	135.45227
1.866	137.16431
1.8665	143.60962
1.867	130.92041
1.8675	115.81421
1.868	88.22021
1.8685	63.94958
1.869	32.7301
1.8695	1.00708
1.87	-33.03223
1.8705	-59.41772
1.871	-64.151
1.8715	-78.35083
1.872	-86.30676
1.8725	-99.2981
1.873	-95.37048
1.8735	-95.67261
1.874	-85.70251
1.8745	-73.51685
1.875	-62.74109
1.8755	-54.38232
1.876	-37.36267
1.8765	-26.3855
1.877	-20.24231
1.8775	-14.60266
1.878	-9.86938
1.8785	-3.7262
1.879	3.52478
1.8795	7.95593
1.88	15.1062
1.8805	16.21399
1.881	3.7262
1.8815	1.00708
1.882	-3.22266
1.8825	-10.47363
1.883	-9.36584
1.8835	-5.0354
1.884	-6.44531
1.8845	-9.76868
1.885	-12.38708
1.8855	-15.40833
1.886	-19.43665
1.8865	-13.69629
1.887	-13.19275
1.8875	-10.67505
1.888	-10.97717
1.8885	-11.68213
1.889	-10.97717
1.8895	-10.37292
1.89	-8.66089
1.8905	-2.92053
1.891	-2.41699
1.8915	-4.63257
1.892	-6.54602
1.8925	-0.80566
1.893	-2.41699
1.8935	-7.85522
1.894	-8.7616
1.8945	-9.06372
1.895	-1.71204
1.8955	3.12195
1.896	-0.10071
1.8965	9.46655
1.897	4.63257
1.8975	7.75452
1.898	4.33044
1.8985	7.04956
1.899	7.45239
1.8995	8.96301
1.9	10.67505
1.9005	12.28638
1.901	12.5885
1.9015	8.35876
1.902	7.45239
1.9025	10.0708
1.903	10.27222
1.9035	10.87646
1.904	12.18567
1.9045	16.71753
1.905	15.1062
1.9055	14.70337
1.906	14.40125
1.9065	11.17859
1.907	8.66089
1.9075	9.46655
1.908	8.15735
1.9085	9.66797
1.909	6.54602
1.9095	6.04248
1.91	3.8269
1.9105	1.71204
1.911	11.88354
1.9115	4.33044
1.912	9.97009
1.9125	13.69629
1.913	13.49487
1.9135	20.1416
1.914	20.84656
1.9145	23.76709
1.915	23.16284
1.9155	18.73169
1.916	17.22107
1.9165	10.37292
1.917	18.32886
1.9175	17.32178
1.918	14.30054
1.9185	20.04089
1.919	18.22815
1.9195	21.65222
1.92	16.11328
1.9205	26.58691
1.921	20.64514
1.9215	22.15576
1.922	21.45081
1.9225	24.57275
1.923	26.58691
1.9235	26.98975
1.924	22.35718
1.9245	18.8324
1.925	16.11328
1.9255	12.78992
1.926	5.53894
1.9265	4.73328
1.927	9.26514
1.9275	8.15735
1.928	9.06372
1.9285	7.65381
1.929	9.97009
1.9295	12.78992
1.93	15.60974
1.9305	20.34302
1.931	14.60266
1.9315	10.27222
1.932	7.15027
1.9325	5.63965
1.933	2.61841
1.9335	-0.30212
1.934	-13.99841
1.9345	-10.47363
1.935	-11.78284
1.9355	-10.67505
1.936	-10.27222
1.9365	-18.42957
1.937	-14.09912
1.9375	-11.58142
1.938	-9.76868
1.9385	-8.56018
1.939	-9.86938
1.9395	-7.85522
1.94	-11.48071
1.9405	-9.97009
1.941	-6.74744
1.9415	-16.41541
1.942	-9.56726
1.9425	-12.48779
1.943	-4.33044
1.9435	-1.91345
1.944	-6.64673
1.9445	-10.87646
1.945	-8.25806
1.9455	-6.94885
1.946	3.12195
1.9465	19.73877
1.947	30.41382
1.9475	57.50427
1.948	74.62463
1.9485	95.16907
1.949	104.63562
1.9495	111.78589
1.95	114.20288
1.9505	104.63562
1.951	89.22729
1.9515	72.61047
1.952	55.2887
1.9525	28.39966
1.953	1.10779
1.9535	-21.65222
1.954	-53.87878
1.9545	-74.02039
1.955	-84.49402
1.9555	-90.5365
1.956	-92.04712
1.9565	-91.04004
1.957	-85.40039
1.9575	-73.41614
1.958	-45.92285
1.9585	-2.5177
1.959	46.62781
1.9595	89.12659
1.96	119.13757
1.9605	140.18555
1.961	146.22803
1.9615	131.02112
1.962	103.02429
1.9625	78.35083
1.963	54.58374
1.9635	25.27771
1.964	-6.14319
1.9645	-36.4563
1.965	-57.30286
1.9655	-73.01331
1.966	-85.60181
1.9665	-86.91101
1.967	-94.56482
1.9675	-90.63721
1.968	-81.7749
1.9685	-71.50269
1.969	-57.30286
1.9695	-49.34692
1.97	-40.88745
1.9705	-35.44922
1.971	-29.80957
1.9715	-19.73877
1.972	-7.15027
1.9725	2.81982
1.973	2.41699
1.9735	8.05664
1.974	5.63965
1.9745	6.74744
1.975	4.83398
1.9755	5.63965
1.976	11.17859
1.9765	7.75452
1.977	4.63257
1.9775	0.20142
1.978	1.2085
1.9785	3.52478
1.979	4.53186
1.9795	2.81982
1.98	-2.41699
1.9805	-3.42407
1.981	3.7262
1.9815	3.92761
1.982	7.15027
1.9825	4.02832
1.983	4.83398
1.9835	8.25806
1.984	3.12195
1.9845	10.67505
1.985	14.60266
1.9855	14.60266
1.986	23.76709
1.9865	23.06213
1.987	22.96143
1.9875	19.33594
1.988	17.52319
1.9885	20.44373
1.989	17.92603
1.9895	19.53735
1.99	4.83398
1.9905	2.71912
1.991	-1.51062
1.9915	-0.10071
1.992	-3.02124
1.9925	0.20142
1.993	-12.18567
1.9935	-4.33044
1.994	-4.02832
1.9945	-0.80566
1.995	-3.02124
1.9955	-5.94177
1.996	0.20142
1.9965	-0.10071
1.997	2.71912
1.9975	10.57434
1.998	15.81116
1.9985	12.38708
1.999	20.94727
1.9995	19.83948
2	25.78125
2.0005	17.32178
2.001	19.94019
2.0015	20.64514
2.002	20.84656
2.0025	23.46497
2.003	22.6593
2.0035	26.68762
2.004	25.47913
2.0045	25.78125
2.005	22.76001
2.0055	21.75293
2.006	26.28479
2.0065	23.96851
2.007	18.42957
2.0075	19.33594
2.008	15.60974
2.0085	19.33594
2.009	20.04089
2.0095	21.75293
2.01	16.21399
2.0105	18.93311
2.011	22.05505
2.0115	15.1062
2.012	17.01965
2.0125	16.81824
2.013	17.32178
2.0135	21.95435
2.014	20.84656
2.0145	26.78833
2.015	22.15576
2.0155	18.02673
2.016	13.29346
2.0165	9.86938
2.017	5.63965
2.0175	6.94885
2.018	-2.21558
2.0185	-3.62549
2.019	-0.40283
2.0195	-3.32336
2.02	-7.95593
2.0205	3.22266
2.021	12.28638
2.0215	13.797
2.022	17.22107
2.0225	15.91187
2.023	13.797
2.0235	9.46655
2.024	0.60425
2.0245	-5.23682
2.025	-8.66089
2.0255	-8.96301
2.026	-8.45947
2.0265	-5.63965
2.027	-9.86938
2.0275	-8.56018
2.028	-11.98425
2.0285	-11.07788
2.029	-16.3147
2.0295	-14.09912
2.03	-16.81824
2.0305	-19.73877
2.031	-20.1416
2.0315	-17.01965
2.032	-21.95435
2.0325	-21.14868
2.033	-17.01965
2.0335	-16.71753
2.034	-15.30762
2.0345	-18.12744
2.035	-14.70337
2.0355	-11.78284
2.036	-6.54602
2.0365	-7.15027
2.037	-10.27222
2.0375	-0.40283
2.038	6.74744
2.0385	4.53186
2.039	11.48071
2.0395	14.19983
2.04	14.19983
2.0405	8.8623
2.041	11.78284
2.0415	13.09204
2.042	13.59558
2.0425	9.76868
2.043	15.91187
2.0435	13.49487
2.044	18.63098
2.0445	17.42249
2.045	15.60974
2.0455	25.98267
2.046	33.73718
2.0465	38.87329
2.047	35.44922
2.0475	33.23364
2.048	39.37683
2.0485	34.03931
2.049	39.37683
2.0495	37.56409
2.05	34.44214
2.0505	21.3501
2.051	15.81116
2.0515	10.37292
2.052	0.30212
2.0525	-19.13452
2.053	-26.88904
2.0535	-37.36267
2.054	-41.18958
2.0545	-43.60657
2.055	-49.24622
2.0555	-54.18091
2.056	-53.27454
2.0565	-44.81506
2.057	-39.17542
2.0575	-29.40674
2.058	-26.18408
2.0585	-8.7616
2.059	4.53186
2.0595	9.36584
2.06	27.29187
2.0605	44.21082
2.061	51.86462
2.0615	56.90002
2.062	63.84888
2.0625	71.90552
2.063	75.53101
2.0635	67.8772
2.064	59.71985
2.0645	51.15967
2.065	41.18958
2.0655	23.66638
2.066	6.74744
2.0665	-7.75452
2.067	-21.85364
2.0675	-30.31311
2.068	-35.2478
2.0685	-39.07471
2.069	-43.30444
2.0695	-47.53418
2.07	-42.49878
2.0705	-49.24622
2.071	-35.2478
2.0715	-27.39258
2.072	-27.19116
2.0725	-17.01965
2.073	-5.84106
2.0735	4.53186
2.074	14.90479
2.0745	37.16125
2.075	58.61206
2.0755	84.99756
2.076	103.52783
2.0765	113.59863
2.077	113.90076
2.0775	88.11951
2.078	75.32959
2.0785	53.27454
2.079	36.15417
2.0795	14.40125
2.08	8.96301
2.0805	-3.52478
2.081	-14.90479
2.0815	-21.24939
2.082	-15.20691
2.0825	-6.94885
2.083	-13.89771
2.0835	-25.27771
2.084	-22.45789
2.0845	-34.34143
2.085	-49.34692
2.0855	-51.76392
2.086	-57.20215
2.0865	-59.82056
2.087	-69.68994
2.0875	-63.44604
2.088	-58.51135
2.0885	-60.12268
2.089	-50.354
2.0895	-42.8009
2.09	-32.52869
2.0905	-24.67346
2.091	-10.77576
2.0915	-8.7616
2.092	-6.04248
2.0925	3.92761
2.093	12.38708
2.0935	16.61682
2.094	17.22107
2.0945	32.52869
2.095	41.99524
2.0955	48.74268
2.096	44.11011
2.0965	43.30444
2.097	41.89453
2.0975	48.13843
2.098	47.23206
2.0985	45.3186
2.099	37.06055
2.0995	33.53577
2.1	20.1416
2.1005	16.21399
2.101	9.36584
2.1015	8.96301
2.102	6.3446
2.1025	2.61841
2.103	5.84106
2.1035	0.10071
2.104	-2.81982
2.1045	-6.3446
2.105	-7.45239
2.1055	-6.04248
2.106	-4.02832
2.1065	-0.60425
2.107	2.31628
2.1075	7.75452
2.108	13.797
2.1085	14.80408
2.109	20.64514
2.1095	12.18567
2.11	13.49487
2.1105	14.30054
2.111	13.99841
2.1115	15.40833
2.112	16.51611
2.1125	12.28638
2.113	5.74036
2.1135	6.04248
2.114	-0.20142
2.1145	-1.71204
2.115	-7.5531
2.1155	-3.92761
2.116	-5.94177
2.1165	-6.64673
2.117	-2.31628
2.1175	-7.15027
2.118	-4.53186
2.1185	-10.0708
2.119	-10.27222
2.1195	-8.66089
2.12	-11.68213
2.1205	-5.43823
2.121	-5.53894
2.1215	-2.41699
2.122	3.12195
2.1225	9.97009
2.123	16.21399
2.1235	20.24231
2.124	18.73169
2.1245	22.35718
2.125	22.25647
2.1255	21.14868
2.126	20.64514
2.1265	18.22815
2.127	18.22815
2.1275	18.8324
2.128	15.71045
2.1285	17.82532
2.129	16.3147
2.1295	13.09204
2.13	25.37842
2.1305	24.37134
2.131	20.34302
2.1315	16.51611
2.132	9.46655
2.1325	4.63257
2.133	-4.43115
2.1335	-6.64673
2.134	-16.51611
2.1345	-6.74744
2.135	-12.78992
2.1355	-7.35168
2.136	-3.92761
2.1365	2.11487
2.137	9.76868
2.1375	8.8623
2.138	2.71912
2.1385	-1.81274
2.139	-3.52478
2.1395	-5.94177
2.14	-9.66797
2.1405	-14.09912
2.141	-7.35168
2.1415	-6.14319
2.142	-2.61841
2.1425	-4.83398
2.143	-0.10071
2.1435	-2.61841
2.144	-3.92761
2.1445	-7.65381
2.145	-14.40125
2.1455	-13.29346
2.146	-11.88354
2.1465	2.61841
2.147	-8.15735
2.1475	-7.75452
2.148	-4.63257
2.1485	-6.94885
2.149	-4.73328
2.1495	-5.53894
2.15	1.00708
2.1505	-1.10779
2.151	4.73328
2.1515	5.63965
2.152	-0.60425
2.1525	7.35168
2.153	8.25806
2.1535	7.85522
2.154	8.05664
2.1545	8.45947
2.155	13.99841
2.1555	9.97009
2.156	5.53894
2.1565	6.94885
2.157	6.54602
2.1575	15.60974
2.158	16.51611
2.1585	21.14868
2.159	8.45947
2.1595	13.39417
2.16	7.04956
2.1605	10.0708
2.161	11.68213
2.1615	9.26514
2.162	9.36584
2.1625	8.8623
2.163	4.63257
2.1635	7.15027
2.164	2.31628
2.1645	5.94177
2.165	4.33044
2.1655	1.61133
2.166	-1.2085
2.1665	-3.02124
2.167	-2.71912
2.1675	2.11487
2.168	-3.7262
2.1685	3.7262
2.169	5.33752
2.1695	4.93469
2.17	6.44531
2.1705	6.04248
2.171	2.41699
2.1715	8.05664
2.172	11.58142
2.1725	14.80408
2.173	12.78992
2.1735	11.07788
2.174	9.86938
2.1745	17.82532
2.175	9.46655
2.1755	12.38708
2.176	10.47363
2.1765	16.41541
2.177	16.01257
2.1775	13.09204
2.178	10.0708
2.1785	11.48071
2.179	11.17859
2.1795	13.89771
2.18	14.60266
2.1805	16.21399
2.181	12.08496
2.1815	16.51611
2.182	11.17859
2.1825	17.12036
2.183	18.12744
2.1835	17.6239
2.184	15.50903
2.1845	16.91895
2.185	17.22107
2.1855	19.23523
2.186	17.22107
2.1865	17.32178
2.187	22.86072
2.1875	22.86072
2.188	22.35718
2.1885	21.85364
2.189	22.35718
2.1895	21.75293
2.19	32.12585
2.1905	23.66638
2.191	21.85364
2.1915	21.24939
2.192	23.76709
2.1925	19.53735
2.193	19.13452
2.1935	16.11328
2.194	16.11328
2.1945	13.99841
2.195	9.36584
2.1955	13.99841
2.196	14.19983
2.1965	7.04956
2.197	13.99841
2.1975	14.40125
2.198	2.41699
2.1985	5.53894
2.199	7.95593
2.1995	3.8269
2.2	2.92053
2.2005	-2.92053
2.201	-4.63257
2.2015	-7.04956
2.202	-2.11487
2.2025	-9.16443
2.203	-8.96301
2.2035	-5.94177
2.204	-9.46655
2.2045	-6.44531
2.205	-17.01965
2.2055	-15.1062
2.206	-17.01965
2.2065	-8.25806
2.207	-14.09912
2.2075	-6.04248
2.208	-10.17151
2.2085	3.62549
2.209	-5.43823
2.2095	-9.36584
2.21	-8.45947
2.2105	-6.44531
2.211	-11.38
2.2115	-11.17859
2.212	-15.81116
2.2125	-17.92603
2.213	-13.19275
2.2135	-13.99841
2.214	-5.74036
2.2145	-6.64673
2.215	0.20142
2.2155	1.00708
2.216	-0.70496
2.2165	-1.61133
2.217	5.33752
2.2175	2.71912
2.218	8.8623
2.2185	3.7262
2.219	10.97717
2.2195	11.58142
2.22	8.35876
2.2205	6.64673
2.221	5.84106
2.2215	10.87646
2.222	10.0708
2.2225	16.61682
2.223	11.38
2.2235	8.05664
2.224	11.48071
2.2245	8.96301
2.225	15.91187
2.2255	17.92603
2.226	13.797
2.2265	12.99133
2.227	17.12036
2.2275	14.60266
2.228	21.45081
2.2285	16.61682
2.229	18.22815
2.2295	14.09912
2.23	9.36584
2.2305	11.17859
2.231	7.85522
2.2315	10.97717
2.232	11.58142
2.2325	15.30762
2.233	10.97717
2.2335	9.36584
2.234	11.17859
2.2345	17.01965
2.235	14.19983
2.2355	16.01257
2.236	15.00549
2.2365	14.80408
2.237	13.19275
2.2375	15.60974
2.238	10.67505
2.2385	16.51611
2.239	9.76868
2.2395	16.3147
2.24	6.54602
2.2405	16.41541
2.241	10.57434
2.2415	13.29346
2.242	7.85522
2.2425	14.40125
2.243	14.90479
2.2435	11.68213
2.244	6.54602
2.2445	8.56018
2.245	9.56726
2.2455	-4.12903
2.246	-4.02832
2.2465	-3.12195
2.247	-0.10071
2.2475	-2.5177
2.248	-3.02124
2.2485	-4.02832
2.249	-0.70496
2.2495	-4.02832
2.25	0.10071
2.2505	-6.04248
2.251	1.3092
2.2515	0.70496
2.252	2.31628
2.2525	1.81274
2.253	4.93469
2.2535	2.81982
2.254	1.3092
2.2545	-0.60425
2.255	0.20142
2.2555	-2.01416
2.256	3.32336
2.2565	7.45239
2.257	4.73328
2.2575	3.62549
2.258	4.12903
2.2585	2.11487
2.259	1.40991
2.2595	0.10071
2.26	4.43115
2.2605	3.42407
2.261	-3.62549
2.2615	-2.61841
2.262	-4.83398
2.2625	-1.91345
2.263	1.51062
2.2635	11.58142
2.264	21.95435
2.2645	32.93152
2.265	46.22498
2.2655	54.68445
2.266	67.77649
2.2665	81.87561
2.267	84.99756
2.2675	75.63171
2.268	58.41064
2.2685	47.33276
2.269	30.71594
2.2695	12.18567
2.27	-8.45947
2.2705	-26.28479
2.271	-30.81665
2.2715	-37.56409
2.272	-35.44922
2.2725	-26.58691
2.273	-18.02673
2.2735	-6.44531
2.274	2.21558
2.2745	24.27063
2.275	45.52002
2.2755	44.51294
2.276	47.23206
2.2765	40.48462
2.277	36.25488
2.2775	28.50037
2.278	15.1062
2.2785	11.2793
2.279	12.28638
2.2795	6.54602
2.28	-10.0708
2.2805	-24.97559
2.281	-38.87329
2.2815	-52.97241
2.282	-62.64038
2.2825	-72.30835
2.283	-77.64587
2.2835	-87.41455
2.284	-100.20447
2.2845	-91.54358
2.285	-79.55933
2.2855	-67.37366
2.286	-41.99524
2.2865	-22.05505
2.287	-5.33752
2.2875	2.71912
2.288	4.73328
2.2885	3.42407
2.289	9.06372
2.2895	10.97717
2.29	13.59558
2.2905	15.00549
2.291	8.66089
2.2915	2.71912
2.292	27.39258
2.2925	139.37988
2.293	255.79834
2.2935	320.85571
2.294	341.70227
2.2945	327.40173
2.295	289.73694
2.2955	211.38611
2.296	133.23669
2.2965	46.42639
2.297	-42.90161
2.2975	-117.22412
2.298	-187.92114
2.2985	-236.96594
2.299	-272.9187
2.2995	-283.49304
2.3	-282.28455
2.3005	-268.08472
2.301	-253.17993
2.3015	-240.89355
2.302	-202.02026
2.3025	-182.98645
2.303	-141.29333
2.3035	-73.61755
2.304	5.53894
2.3045	63.14392
2.305	103.42712
2.3055	118.02979
2.306	161.13281
2.3065	238.07373
2.307	286.81641
2.3075	290.84473
2.308	251.66931
2.3085	211.99036
2.309	154.98962
2.3095	94.96765
2.31	31.92444
2.3105	-31.62231
2.311	-85.60181
2.3115	-122.56165
2.312	-156.09741
2.3125	-176.23901
2.313	-183.38928
2.3135	-181.97937
2.314	-182.58362
2.3145	-167.47742
2.315	-139.78271
2.3155	-117.82837
2.316	-100.80872
2.3165	-82.88269
2.317	-62.9425
2.3175	-44.21082
2.318	-16.61682
2.3185	2.81982
2.319	13.69629
2.3195	33.13293
2.32	50.65613
2.3205	51.66321
2.321	44.21082
2.3215	45.2179
2.322	42.90161
2.3225	39.88037
2.323	43.30444
2.3235	35.95276
2.324	35.04639
2.3245	34.34143
2.325	27.89612
2.3255	28.70178
2.326	30.11169
2.3265	26.28479
2.327	21.24939
2.3275	19.43665
2.328	25.07629
2.3285	22.6593
2.329	20.74585
2.3295	26.08337
2.33	28.9032
2.3305	20.94727
2.331	17.92603
2.3315	15.91187
2.332	16.41541
2.3325	12.38708
2.333	14.50195
2.3335	15.30762
2.334	8.56018
2.3345	10.87646
2.335	15.20691
2.3355	15.81116
2.336	13.39417
2.3365	19.43665
2.337	16.3147
2.3375	11.78284
2.338	14.70337
2.3385	19.94019
2.339	24.16992
2.3395	23.36426
2.34	20.1416
2.3405	18.42957
2.341	18.53027
2.3415	21.85364
2.342	14.90479
2.3425	13.39417
2.343	12.99133
2.3435	8.15735
2.344	13.89771
2.3445	12.89062
2.345	9.26514
2.3455	13.797
2.346	15.40833
2.3465	21.04797
2.347	15.30762
2.3475	13.59558
2.348	10.87646
2.3485	13.09204
2.349	15.1062
2.3495	8.25806
2.35	5.33752
2.3505	13.39417
2.351	18.93311
2.3515	11.2793
2.352	6.44531
2.3525	8.25806
2.353	13.39417
2.3535	16.11328
2.354	12.08496
2.3545	16.51611
2.355	11.68213
2.3555	8.96301
2.356	9.76868
2.3565	6.74744
2.357	3.8269
2.3575	13.797
2.358	11.98425
2.3585	9.66797
2.359	9.46655
2.3595	9.16443
2.36	11.88354
2.3605	9.36584
2.361	11.38
2.3615	8.8623
2.362	11.38
2.3625	6.44531
2.363	6.84814
2.3635	9.97009
2.364	5.53894
2.3645	4.93469
2.365	-0.70496
2.3655	4.83398
2.366	2.21558
2.3665	7.65381
2.367	10.97717
2.3675	13.49487
2.368	10.0708
2.3685	15.1062
2.369	8.45947
2.3695	11.2793
2.37	10.87646
2.3705	8.35876
2.371	13.09204
2.3715	16.01257
2.372	14.70337
2.3725	12.89062
2.373	10.37292
2.3735	11.88354
2.374	14.19983
2.3745	16.91895
2.375	18.73169
2.3755	15.81116
2.376	13.09204
2.3765	15.00549
2.377	16.71753
2.3775	13.69629
2.378	11.78284
2.3785	15.30762
2.379	15.1062
2.3795	17.72461
2.38	18.02673
2.3805	23.06213
2.381	22.25647
2.3815	21.65222
2.382	24.97559
2.3825	20.74585
2.383	21.65222
2.3835	21.75293
2.384	26.68762
2.3845	23.26355
2.385	30.41382
2.3855	28.29895
2.386	28.9032
2.3865	28.9032
2.387	25.07629
2.3875	25.98267
2.388	27.39258
2.3885	21.55151
2.389	23.56567
2.3895	20.84656
2.39	22.25647
2.3905	27.19116
2.391	22.05505
2.3915	23.36426
2.392	28.60107
2.3925	18.02673
2.393	21.95435
2.3935	22.96143
2.394	24.06921
2.3945	20.04089
2.395	19.13452
2.3955	9.36584
2.396	11.78284
2.3965	11.78284
2.397	3.32336
2.3975	4.83398
2.398	2.92053
2.3985	2.92053
2.399	5.63965
2.3995	7.75452
2.4	9.76868
2.4005	8.96301
2.401	14.30054
2.4015	13.19275
2.402	11.38
2.4025	7.45239
2.403	10.27222
2.4035	5.13611
2.404	1.2085
2.4045	4.73328
2.405	1.40991
2.4055	-5.33752
2.406	-8.25806
2.4065	-10.87646
2.407	-7.5531
2.4075	-4.83398
2.408	-3.62549
2.4085	3.22266
2.409	-2.61841
2.4095	-2.5177
2.41	-3.62549
2.4105	-2.71912
2.411	-9.76868
2.4115	-13.69629
2.412	-18.93311
2.4125	-26.88904
2.413	-26.28479
2.4135	-30.91736
2.414	-29.50745
2.4145	-21.75293
2.415	-26.48621
2.4155	-25.68054
2.416	-20.04089
2.4165	-13.29346
2.417	-8.56018
2.4175	-9.97009
2.418	-8.96301
2.4185	-3.92761
2.419	-0.40283
2.4195	1.91345
2.42	2.81982
2.4205	2.01416
2.421	5.13611
2.4215	1.91345
2.422	1.51062
2.4225	1.10779
2.423	3.92761
2.4235	4.22974
2.424	6.54602
2.4245	2.41699
2.425	-8.66089
2.4255	-9.26514
2.426	-14.90479
2.4265	-17.22107
2.427	-15.50903
2.4275	-20.64514
2.428	-19.03381
2.4285	-26.88904
2.429	-26.08337
2.4295	-32.42798
2.43	-32.02515
2.4305	-23.8678
2.431	-20.94727
2.4315	-19.13452
2.432	-23.06213
2.4325	-20.64514
2.433	-15.20691
2.4335	-11.88354
2.434	-10.47363
2.4345	-9.86938
2.435	-4.22974
2.4355	-3.22266
2.436	-3.52478
2.4365	-7.35168
2.437	-9.36584
2.4375	-4.73328
2.438	4.83398
2.4385	1.10779
2.439	-0.20142
2.4395	-3.32336
2.44	-5.33752
2.4405	-7.25098
2.441	-9.46655
2.4415	-6.74744
2.442	-12.78992
2.4425	-16.11328
2.443	-11.78284
2.4435	-12.28638
2.444	-9.16443
2.4445	-9.66797
2.445	-8.15735
2.4455	-7.5531
2.446	-2.01416
2.4465	-5.33752
2.447	-5.63965
2.4475	2.31628
2.448	-1.51062
2.4485	-5.13611
2.449	-3.22266
2.4495	-7.04956
2.45	-2.41699
2.4505	-6.3446
2.451	-8.8623
2.4515	-1.51062
2.452	1.2085
2.4525	0.90637
2.453	2.21558
2.4535	0.50354
2.454	-3.32336
2.4545	-7.35168
2.455	-13.29346
2.4555	-9.06372
2.456	-7.75452
2.4565	-10.87646
2.457	-4.53186
2.4575	1.40991
2.458	-5.33752
2.4585	-9.36584
2.459	-2.92053
2.4595	2.01416
2.46	-4.93469
2.4605	-0.50354
2.461	0.10071
2.4615	-6.3446
2.462	-3.22266
2.4625	3.22266
2.463	6.14319
2.4635	1.10779
2.464	4.73328
2.4645	7.15027
2.465	3.52478
2.4655	6.44531
2.466	6.64673
2.4665	8.96301
2.467	7.5531
2.4675	7.15027
2.468	5.13611
2.4685	8.7616
2.469	3.92761
2.4695	2.81982
2.47	7.95593
2.4705	0.30212
2.471	1.3092
2.4715	-3.8269
2.472	3.22266
2.4725	-0.80566
2.473	4.83398
2.4735	2.81982
2.474	-0.70496
2.4745	-2.61841
2.475	3.12195
2.4755	2.21558
2.476	2.31628
2.4765	2.01416
2.477	4.73328
2.4775	3.02124
2.478	2.01416
2.4785	1.91345
2.479	0
2.4795	-8.45947
2.48	0.70496
2.4805	-0.30212
2.481	-2.11487
2.4815	-2.5177
2.482	2.41699
2.4825	5.84106
2.483	6.84814
2.4835	3.8269
2.484	3.62549
2.4845	6.04248
2.485	7.15027
2.4855	4.73328
2.486	5.53894
2.4865	1.91345
2.487	0.90637
2.4875	4.02832
2.488	1.91345
2.4885	7.04956
2.489	4.73328
2.4895	4.83398
2.49	-0.80566
2.4905	5.23682
2.491	0.80566
2.4915	0.90637
2.492	-0.10071
2.4925	0.90637
2.493	3.12195
2.4935	0.80566
2.494	-2.01416
2.4945	-3.42407
2.495	-1.61133
2.4955	-5.53894
2.496	0.50354
2.4965	-0.10071
2.497	-0.80566
2.4975	0.40283
2.498	3.02124
2.4985	-0.60425
2.499	5.43823
2.4995	3.52478
2.5	4.73328
2.5005	2.5177
2.501	4.83398
2.5015	0.60425
2.502	-0.40283
2.5025	1.3092
2.503	-1.91345
2.5035	-1.10779
2.504	3.42407
2.5045	6.04248
2.505	9.36584
2.5055	5.94177
2.506	9.76868
2.5065	9.86938
2.507	9.46655
2.5075	16.61682
2.508	15.60974
2.5085	21.04797
2.509	13.59558
2.5095	18.8324
2.51	19.03381
2.5105	21.55151
2.511	15.20691
2.5115	15.30762
2.512	16.11328
2.5125	11.78284
2.513	7.35168
2.5135	7.45239
2.514	5.0354
2.5145	10.77576
2.515	3.8269
2.5155	-2.71912
2.516	-1.61133
2.5165	-6.84814
2.517	-9.86938
2.5175	-3.12195
2.518	-1.2085
2.5185	-7.35168
2.519	-17.32178
2.5195	-20.64514
2.52	-23.56567
2.5205	-27.99683
2.521	-27.79541
2.5215	-19.83948
2.522	-8.8623
2.5225	3.8269
2.523	25.27771
2.5235	76.84021
2.524	150.45776
2.5245	201.31531
2.525	225.0824
2.5255	226.19019
2.526	224.17603
2.5265	213.09814
2.527	187.92114
2.5275	160.9314
2.528	117.02271
2.5285	76.13525
2.529	25.57983
2.5295	-17.72461
2.53	-54.68445
2.5305	-62.64038
2.531	-58.20923
2.5315	-69.48853
2.532	-92.04712
2.5325	-105.74341
2.533	-115.20996
2.5335	-117.12341
2.534	-120.14465
2.5345	-118.53333
2.535	-123.06519
2.5355	-126.9928
2.536	-126.9928
2.5365	-113.1958
2.537	-93.85986
2.5375	-70.69702
2.538	-42.39807
2.5385	-20.1416
2.539	3.52478
2.5395	9.76868
2.54	21.24939
2.5405	13.09204
2.541	5.13611
2.5415	15.81116
2.542	36.85913
2.5425	63.04321
2.543	96.7804
2.5435	118.43262
2.544	142.40112
2.5445	159.11865
2.545	182.48291
2.5455	182.3822
2.546	169.39087
2.5465	133.13599
2.547	91.44287
2.5475	41.79382
2.548	0
2.5485	-41.08887
2.549	-86.50818
2.5495	-124.97864
2.55	-155.09033
2.5505	-176.94397
2.551	-190.43884
2.5515	-199.30115
2.552	-194.06433
2.5525	-181.67725
2.553	-170.19653
2.5535	-152.37122
2.554	-132.53174
2.5545	-114.00146
2.555	-99.09668
2.5555	-92.14783
2.556	-76.03455
2.5565	-63.34534
2.557	-40.1825
2.5575	-29.30603
2.558	-16.81824
2.5585	-7.5531
2.559	4.53186
2.5595	8.45947
2.56	12.89062
2.5605	13.797
2.561	16.51611
2.5615	16.61682
2.562	20.64514
2.5625	11.38
2.563	8.66089
2.5635	12.99133
2.564	15.00549
2.5645	22.15576
2.565	24.87488
2.5655	29.60815
2.566	25.07629
2.5665	28.09753
2.567	29.00391
2.5675	26.18408
2.568	31.11877
2.5685	36.15417
2.569	35.14709
2.5695	34.14001
2.57	33.43506
2.5705	33.53577
2.571	32.32727
2.5715	33.03223
2.572	32.52869
2.5725	31.32019
2.573	37.36267
2.5735	32.22656
2.574	38.26904
2.5745	45.01648
2.575	51.15967
2.5755	57.20215
2.576	64.95667
2.5765	68.88428
2.577	66.87012
2.5775	61.12976
2.578	59.1156
2.5785	54.98657
2.579	47.03064
2.5795	39.17542
2.58	29.50745
2.5805	17.72461
2.581	15.40833
2.5815	12.99133
2.582	-0.60425
2.5825	4.73328
2.583	3.92761
2.5835	2.5177
2.584	8.45947
2.5845	2.5177
2.585	4.63257
2.5855	8.25806
2.586	9.06372
2.5865	15.1062
2.587	16.01257
2.5875	12.28638
2.588	14.19983
2.5885	18.42957
2.589	22.96143
2.5895	23.46497
2.59	18.53027
2.5905	12.99133
2.591	15.71045
2.5915	17.92603
2.592	12.68921
2.5925	11.17859
2.593	12.89062
2.5935	9.66797
2.594	14.19983
2.5945	12.89062
2.595	5.84106
2.5955	10.77576
2.596	13.69629
2.5965	16.41541
2.597	18.42957
2.5975	16.41541
2.598	27.59399
2.5985	41.99524
2.599	57.10144
2.5995	63.84888
2.6	71.50269
2.6005	78.55225
2.601	77.24304
2.6015	74.62463
2.602	63.14392
2.6025	51.36108
2.603	37.46338
2.6035	30.41382
2.604	21.55151
2.6045	11.38
2.605	-0.30212
2.6055	-3.12195
2.606	-5.23682
2.6065	1.10779
2.607	1.81274
2.6075	-2.21558
2.608	-10.17151
2.6085	-15.60974
2.609	-21.04797
2.6095	-22.86072
2.61	-32.42798
2.6105	-37.7655
2.611	-48.54126
2.6115	-44.71436
2.612	-45.92285
2.6125	-30.01099
2.613	-16.11328
2.6135	0.40283
2.614	6.94885
2.6145	18.53027
2.615	27.6947
2.6155	35.04639
2.616	49.64905
2.6165	54.78516
2.617	55.3894
2.6175	52.67029
2.618	49.64905
2.6185	46.92993
2.619	34.64355
2.6195	21.24939
2.62	17.82532
2.6205	8.7616
2.621	-0.60425
2.6215	-0.40283
2.622	-3.8269
2.6225	-3.62549
2.623	0.10071
2.6235	-8.56018
2.624	1.10779
2.6245	10.47363
2.625	20.94727
2.6255	30.11169
2.626	31.01807
2.6265	24.57275
2.627	20.64514
2.6275	15.40833
2.628	19.94019
2.6285	13.797
2.629	11.38
2.6295	10.87646
2.63	5.63965
2.6305	9.16443
2.631	10.47363
2.6315	12.99133
2.632	18.02673
2.6325	9.76868
2.633	11.48071
2.6335	4.53186
2.634	-1.61133
2.6345	-11.88354
2.635	-12.68921
2.6355	-3.42407
2.636	-8.05664
2.6365	-16.81824
2.637	-30.61523
2.6375	-42.19666
2.638	-44.91577
2.6385	-43.80798
2.639	-38.974
2.6395	-19.83948
2.64	-11.48071
2.6405	-10.67505
2.641	-17.92603
2.6415	-19.33594
2.642	-21.14868
2.6425	-20.24231
2.643	-23.46497
2.6435	-4.73328
2.644	23.46497
2.6445	40.68604
2.645	54.38232
2.6455	60.92834
2.646	59.61914
2.6465	47.8363
2.647	40.2832
2.6475	33.43506
2.648	28.09753
2.6485	22.35718
2.649	6.3446
2.6495	-1.91345
2.65	-17.42249
2.6505	-36.95984
2.651	-45.72144
2.6515	-48.23914
2.652	-50.2533
2.6525	-38.87329
2.653	-23.76709
2.6535	-9.56726
2.654	7.04956
2.6545	10.77576
2.655	11.38
2.6555	20.54443
2.656	31.11877
2.6565	52.26746
2.657	95.16907
2.6575	130.01404
2.658	162.03918
2.6585	169.59229
2.659	166.0675
2.6595	156.70166
2.66	137.76855
2.6605	109.97314
2.661	71.7041
2.6615	35.04639
2.662	-9.86938
2.6625	-28.50037
2.663	-47.93701
2.6635	-75.32959
2.664	-93.85986
2.6645	-111.08093
2.665	-128.60413
2.6655	-144.51599
2.666	-138.87634
2.6665	-133.94165
2.667	-102.01721
2.6675	-67.8772
2.668	-35.85205
2.6685	-2.01416
2.669	27.6947
2.6695	45.72144
2.67	54.98657
2.6705	61.23047
2.671	66.36658
2.6715	67.57507
2.672	54.38232
2.6725	41.29028
2.673	26.3855
2.6735	10.57434
2.674	5.13611
2.6745	-13.89771
2.675	-23.36426
2.6755	-24.37134
2.676	-27.29187
2.6765	-14.09912
2.677	-3.62549
2.6775	11.88354
2.678	21.45081
2.6785	23.66638
2.679	23.36426
2.6795	25.98267
2.68	18.8324
2.6805	4.12903
2.681	-10.17151
2.6815	-27.19116
2.682	-39.27612
2.6825	-53.17383
2.683	-55.2887
2.6835	-64.35242
2.684	-51.96533
2.6845	-36.05347
2.685	-23.16284
2.6855	-13.39417
2.686	-5.74036
2.6865	4.33044
2.687	9.66797
2.6875	14.70337
2.688	15.81116
2.6885	20.44373
2.689	23.76709
2.6895	23.06213
2.69	22.55859
2.6905	37.86621
2.691	41.39099
2.6915	75.93384
2.692	113.39722
2.6925	129.81262
2.693	127.59705
2.6935	107.35474
2.694	88.52234
2.6945	61.53259
2.695	32.62939
2.6955	0.60425
2.696	-31.4209
2.6965	-55.08728
2.697	-73.51685
2.6975	-88.0188
2.698	-95.06836
2.6985	-89.93225
2.699	-84.59473
2.6995	-74.32251
2.7	-53.27454
2.7005	-28.39966
2.701	-11.17859
2.7015	1.71204
2.702	3.02124
2.7025	4.12903
2.703	-0.60425
2.7035	6.54602
2.704	14.70337
2.7045	12.18567
2.705	11.17859
2.7055	10.47363
2.706	19.23523
2.7065	22.6593
2.707	26.88904
2.7075	30.2124
2.708	28.70178
2.7085	28.80249
2.709	29.00391
2.7095	22.15576
2.71	2.11487
2.7105	-4.93469
2.711	-15.40833
2.7115	-26.28479
2.712	-30.31311
2.7125	-32.62939
2.713	-29.60815
2.7135	-16.81824
2.714	13.19275
2.7145	34.14001
2.715	58.00781
2.7155	71.7041
2.716	84.99756
2.7165	87.41455
2.717	84.79614
2.7175	73.31543
2.718	59.61914
2.7185	55.3894
2.719	50.55542
2.7195	31.52161
2.72	37.36267
2.7205	42.59949
2.721	39.47754
2.7215	35.44922
2.722	39.07471
2.7225	63.74817
2.723	82.37915
2.7235	76.63879
2.724	66.76941
2.7245	61.93542
2.725	32.12585
2.7255	12.38708
2.726	15.30762
2.7265	19.73877
2.727	7.04956
2.7275	-6.84814
2.728	-23.46497
2.7285	-37.96692
2.729	-72.20764
2.7295	-98.59314
2.73	-122.15881
2.7305	-132.83386
2.731	-137.56714
2.7315	-135.65369
2.732	-131.62537
2.7325	-130.71899
2.733	-117.62695
2.7335	-102.11792
2.734	-90.5365
2.7345	-70.19348
2.735	-52.06604
2.7355	-31.11877
2.736	-1.91345
2.7365	18.12744
2.737	43.50586
2.7375	65.25879
2.738	72.61047
2.7385	69.1864
2.739	70.09277
2.7395	78.75366
2.74	91.8457
2.7405	105.84412
2.741	109.3689
2.7415	116.61987
2.742	114.70642
2.7425	95.16907
2.743	69.08569
2.7435	49.85046
2.744	46.02356
2.7445	47.93701
2.745	32.12585
2.7455	3.22266
2.746	-19.63806
2.7465	-29.00391
2.747	-36.05347
2.7475	-44.61365
2.748	-18.93311
2.7485	8.96301
2.749	29.60815
2.7495	44.81506
2.75	51.36108
2.7505	54.28162
2.751	35.2478
2.7515	31.92444
2.752	33.73718
2.7525	26.68762
2.753	11.88354
2.7535	16.71753
2.754	22.35718
2.7545	9.76868
2.755	-8.45947
2.7555	-23.96851
2.756	-35.04639
2.7565	-43.60657
2.757	-49.64905
2.7575	-40.2832
2.758	-39.47754
2.7585	-42.39807
2.759	-47.03064
2.7595	-42.39807
2.76	-26.98975
2.7605	-29.40674
2.761	-26.3855
2.7615	-11.38
2.762	2.61841
2.7625	6.2439
2.763	5.74036
2.7635	-6.14319
2.764	-17.72461
2.7645	-12.48779
2.765	-4.22974
2.7655	-7.35168
2.766	-2.5177
2.7665	2.21558
2.767	5.43823
2.7675	0.30212
2.768	-5.43823
2.7685	14.30054
2.769	22.15576
2.7695	24.16992
2.77	26.78833
2.7705	48.23914
2.771	70.49561
2.7715	111.58447
2.772	130.31616
2.7725	124.37439
2.773	99.19739
2.7735	65.76233
2.774	43.50586
2.7745	47.8363
2.775	55.79224
2.7755	59.31702
2.776	59.92126
2.7765	53.87878
2.777	63.84888
2.7775	76.63879
2.778	77.948
2.7785	82.27844
2.779	99.3988
2.7795	92.04712
2.78	49.95117
2.7805	-8.25806
2.781	-48.54126
2.7815	-81.67419
2.782	-102.21863
2.7825	-115.00854
2.783	-117.32483
2.7835	-115.7135
2.784	-116.01562
2.7845	-110.77881
2.785	-98.39172
2.7855	-87.11243
2.786	-61.23047
2.7865	-36.65771
2.787	-21.65222
2.7875	-17.92603
2.788	-10.27222
2.7885	-8.05664
2.789	4.02832
2.7895	1.51062
2.79	5.43823
2.7905	4.12903
2.791	3.42407
2.7915	-1.2085
2.792	-4.22974
2.7925	-8.8623
2.793	-10.47363
2.7935	-4.73328
2.794	-2.21558
2.7945	26.28479
2.795	37.96692
2.7955	53.87878
2.796	41.89453
2.7965	67.8772
2.797	88.72375
2.7975	107.55615
2.798	151.46484
2.7985	164.55688
2.799	138.67493
2.7995	110.47668
2.8	88.52234
2.8005	59.51843
2.801	42.90161
2.8015	30.11169
2.802	17.42249
2.8025	-20.74585
2.803	-62.13684
2.8035	-92.55066
2.804	-124.17297
2.8045	-151.56555
2.805	-173.62061
2.8055	-188.42468
2.806	-185.70557
2.8065	-173.82202
2.807	-159.52148
2.8075	-140.99121
2.808	-107.05261
2.8085	-77.948
2.809	-42.8009
2.8095	-14.30054
2.81	7.85522
2.8105	46.62781
2.811	68.98499
2.8115	90.33508
2.812	104.13208
2.8125	111.38306
2.813	117.22412
2.8135	121.75598
2.814	124.27368
2.8145	116.21704
2.815	105.03845
2.8155	99.70093
2.816	73.61755
2.8165	58.10852
2.817	25.37842
2.8175	-2.31628
2.818	-15.71045
2.8185	-11.58142
2.819	-5.0354
2.8195	-12.5885
2.82	-20.74585
2.8205	-22.96143
2.821	-29.40674
2.8215	-13.89771
2.822	2.81982
2.8225	6.2439
2.823	5.13611
2.8235	-4.22974
2.824	-9.86938
2.8245	-22.15576
2.825	-14.19983
2.8255	-9.06372
2.826	-4.53186
2.8265	16.11328
2.827	36.25488
2.8275	43.70728
2.828	35.34851
2.8285	27.29187
2.829	14.90479
2.8295	9.16443
2.83	5.63965
2.8305	12.5885
2.831	23.96851
2.8315	30.81665
2.832	26.58691
2.8325	30.61523
2.833	38.67188
2.8335	66.6687
2.834	72.10693
2.8345	74.2218
2.835	63.44604
2.8355	64.65454
2.836	47.7356
2.8365	27.89612
2.837	7.15027
2.8375	-13.59558
2.838	-39.77966
2.8385	-58.41064
2.839	-61.53259
2.8395	-58.10852
2.84	-30.11169
2.8405	-3.62549
2.841	1.81274
2.8415	-10.97717
2.842	-17.6239
2.8425	-27.59399
2.843	-43.60657
2.8435	-49.34692
2.844	-54.68445
2.8445	-62.53967
2.845	-50.65613
2.8455	-41.18958
2.846	-24.16992
2.8465	-7.15027
2.847	1.40991
2.8475	8.15735
2.848	9.26514
2.8485	19.63806
2.849	27.6947
2.8495	27.99683
2.85	27.09045
2.8505	26.18408
2.851	30.41382
2.8515	27.09045
2.852	26.58691
2.8525	25.27771
2.853	23.26355
2.8535	20.64514
2.854	20.54443
2.8545	13.89771
2.855	17.92603
2.8555	18.8324
2.856	21.14868
2.8565	13.09204
2.857	20.04089
2.8575	18.8324
2.858	22.6593
2.8585	26.48621
2.859	34.74426
2.8595	46.72852
2.86	81.47278
2.8605	92.95349
2.861	89.42871
2.8615	81.37207
2.862	58.10852
2.8625	22.15576
2.863	-11.78284
2.8635	-34.54285
2.864	-41.99524
2.8645	-28.70178
2.865	-30.2124
2.8655	-26.98975
2.866	-25.98267
2.8665	-42.59949
2.867	-43.50586
2.8675	-44.71436
2.868	-39.67896
2.8685	-40.1825
2.869	-41.79382
2.8695	-45.41931
2.87	-20.94727
2.8705	16.21399
2.871	30.31311
2.8715	39.37683
2.872	24.97559
2.8725	21.65222
2.873	15.81116
2.8735	14.60266
2.874	11.98425
2.8745	8.96301
2.875	10.77576
2.8755	18.22815
2.876	18.93311
2.8765	19.03381
2.877	17.01965
2.8775	19.43665
2.878	19.33594
2.8785	18.8324
2.879	16.01257
2.8795	10.17151
2.88	0.90637
2.8805	-3.52478
2.881	-10.0708
2.8815	-12.99133
2.882	-23.66638
2.8825	-22.15576
2.883	-21.55151
2.8835	-17.12036
2.884	-3.42407
2.8845	7.45239
2.885	19.53735
2.8855	24.77417
2.886	28.50037
2.8865	24.47205
2.887	21.75293
2.8875	21.55151
2.888	25.78125
2.8885	27.39258
2.889	24.87488
2.8895	17.22107
2.89	25.98267
2.8905	21.3501
2.891	15.30762
2.8915	12.18567
2.892	13.89771
2.8925	15.60974
2.893	10.37292
2.8935	6.3446
2.894	7.35168
2.8945	1.51062
2.895	3.32336
2.8955	38.47046
2.896	79.45862
2.8965	104.83704
2.897	121.55457
2.8975	112.69226
2.898	92.95349
2.8985	70.19348
2.899	41.29028
2.8995	13.39417
2.9	-6.04248
2.9005	-8.7616
2.901	3.12195
2.9015	-2.71912
2.902	-16.51611
2.9025	-16.61682
2.903	-20.44373
2.9035	-28.50037
2.904	-38.87329
2.9045	-33.73718
2.905	-43.90869
2.9055	-41.99524
2.906	-36.05347
2.9065	-41.29028
2.907	-27.6947
2.9075	-22.45789
2.908	-32.22656
2.9085	-30.71594
2.909	-23.66638
2.9095	-19.94019
2.91	-32.02515
2.9105	-34.44214
2.911	-25.98267
2.9115	-12.5885
2.912	-0.90637
2.9125	15.00549
2.913	21.45081
2.9135	61.02905
2.914	107.35474
2.9145	121.85669
2.915	120.14465
2.9155	107.75757
2.916	96.17615
2.9165	82.9834
2.917	55.49011
2.9175	26.3855
2.918	1.3092
2.9185	-21.85364
2.919	-35.04639
2.9195	-49.95117
2.92	-52.56958
2.9205	-59.71985
2.921	-57.20215
2.9215	-62.74109
2.922	-53.07312
2.9225	-40.98816
2.923	-34.74426
2.9235	-29.70886
2.924	-29.10461
2.9245	-23.46497
2.925	-17.12036
2.9255	-10.97717
2.926	0.80566
2.9265	7.35168
2.927	7.75452
2.9275	9.36584
2.928	9.97009
2.9285	12.5885
2.929	4.33044
2.9295	-4.73328
2.93	-3.02124
2.9305	-0.70496
2.931	1.61133
2.9315	6.2439
2.932	15.81116
2.9325	23.56567
2.933	35.95276
2.9335	39.57825
2.934	34.94568
2.9345	27.39258
2.935	27.39258
2.9355	12.18567
2.936	1.2085
2.9365	-7.5531
2.937	-5.0354
2.9375	5.74036
2.938	40.58533
2.9385	63.84888
2.939	77.948
2.9395	78.65295
2.94	60.02197
2.9405	40.2832
2.941	14.70337
2.9415	-6.84814
2.942	-21.85364
2.9425	-21.55151
2.943	-9.86938
2.9435	6.74744
2.944	12.99133
2.9445	18.02673
2.945	7.75452
2.9455	12.48779
2.946	1.91345
2.9465	-15.81116
2.947	-41.08887
2.9475	-57.70569
2.948	-77.64587
2.9485	-92.75208
2.949	-93.45703
2.9495	-93.35632
2.95	-95.77332
2.9505	-87.71667
2.951	-84.59473
2.9515	-64.45312
2.952	-40.78674
2.9525	-15.40833
2.953	12.48779
2.9535	25.88196
2.954	33.9386
2.9545	30.81665
2.955	36.85913
2.9555	38.06763
2.956	32.22656
2.9565	37.56409
2.957	37.16125
2.9575	29.50745
2.958	37.96692
2.9585	32.32727
2.959	28.80249
2.9595	33.53577
2.96	56.19507
2.9605	68.17932
2.961	60.72693
2.9615	49.14551
2.962	37.56409
2.9625	27.29187
2.963	14.80408
2.9635	8.8623
2.964	4.33044
2.9645	-7.25098
2.965	-13.29346
2.9655	-23.46497
2.966	-26.88904
2.9665	-18.32886
2.967	-11.98425
2.9675	-7.15027
2.968	-5.84106
2.9685	0.30212
2.969	7.5531
2.9695	6.3446
2.97	-5.33752
2.9705	-8.8623
2.971	-11.17859
2.9715	-10.37292
2.972	6.94885
2.9725	48.84338
2.973	66.76941
2.9735	58.30994
2.974	50.354
2.9745	38.77258
2.975	41.59241
2.9755	53.87878
2.976	50.2533
2.9765	31.52161
2.977	9.97009
2.9775	-6.44531
2.978	-21.24939
2.9785	-35.95276
2.979	-41.99524
2.9795	-49.14551
2.98	-46.22498
2.9805	-50.2533
2.981	-42.09595
2.9815	-37.86621
2.982	-28.09753
2.9825	-18.02673
2.983	-13.99841
2.9835	-5.13611
2.984	2.21558
2.9845	9.46655
2.985	12.48779
2.9855	13.59558
2.986	14.80408
2.9865	11.38
2.987	14.90479
2.9875	17.42249
2.988	19.13452
2.9885	20.74585
2.989	21.55151
2.9895	22.76001
2.99	34.34143
2.9905	30.31311
2.991	33.13293
2.9915	25.98267
2.992	12.68921
2.9925	14.70337
2.993	5.74036
2.9935	5.84106
2.994	3.8269
2.9945	3.32336
2.995	2.31628
2.9955	2.61841
2.996	10.37292
2.9965	13.09204
2.997	16.3147
2.9975	17.42249
2.998	18.42957
2.9985	14.40125
2.999	24.77417
2.9995	29.70886
3	29.20532
3.0005	26.28479
3.001	26.28479
3.0015	14.09912
3.002	2.21558
3.0025	-7.5531
3.003	-12.89062
3.0035	-12.89062
3.004	-16.91895
3.0045	-12.08496
3.005	-5.23682
3.0055	-4.53186
3.006	-2.81982
3.0065	2.92053
3.007	2.81982
3.0075	6.54602
3.008	8.05664
3.0085	15.1062
3.009	13.797
3.0095	16.81824
3.01	16.81824
3.0105	25.78125
3.011	64.65454
3.0115	89.73083
3.012	91.14075
3.0125	72.40906
3.013	47.93701
3.0135	25.177
3.014	0.20142
3.0145	-20.34302
3.015	-39.67896
3.0155	-47.43347
3.016	-50.354
3.0165	-49.0448
3.017	-41.89453
3.0175	-33.03223
3.018	-19.13452
3.0185	-7.25098
3.019	2.21558
3.0195	13.89771
3.02	15.71045
3.0205	22.96143
3.021	28.9032
3.0215	30.31311
3.022	36.15417
3.0225	26.28479
3.023	33.33435
3.0235	29.50745
3.024	22.25647
3.0245	29.80957
3.025	31.92444
3.0255	27.99683
3.026	25.177
3.0265	11.2793
3.027	-1.51062
3.0275	-17.32178
3.028	-44.21082
3.0285	-63.84888
3.029	-60.52551
3.0295	-61.12976
3.03	-48.33984
3.0305	-36.65771
3.031	-22.76001
3.0315	-19.33594
3.032	-11.78284
3.0325	-5.74036
3.033	3.7262
3.0335	3.12195
3.034	9.66797
3.0345	2.5177
3.035	1.71204
3.0355	2.5177
3.036	6.2439
3.0365	8.05664
3.037	10.37292
3.0375	13.59558
3.038	15.91187
3.0385	5.23682
3.039	7.65381
3.0395	5.94177
3.04	13.99841
3.0405	17.22107
3.041	14.30054
3.0415	17.42249
3.042	14.60266
3.0425	9.36584
3.043	5.23682
3.0435	3.92761
3.044	1.91345
3.0445	1.10779
3.045	-4.73328
3.0455	-10.0708
3.046	-5.23682
3.0465	-2.31628
3.047	1.3092
3.0475	-1.81274
3.048	0.60425
3.0485	-6.54602
3.049	-6.14319
3.0495	-8.05664
3.05	-10.67505
3.0505	-12.38708
3.051	-10.87646
3.0515	-14.30054
3.052	-13.09204
3.0525	-10.67505
3.053	-6.2439
3.0535	-1.00708
3.054	-2.11487
3.0545	-1.00708
3.055	4.93469
3.0555	8.45947
3.056	6.3446
3.0565	6.14319
3.057	6.3446
3.0575	9.46655
3.058	8.7616
3.0585	11.17859
3.059	12.38708
3.0595	10.17151
3.06	15.20691
3.0605	13.99841
3.061	15.00549
3.0615	10.17151
3.062	10.37292
3.0625	11.88354
3.063	34.44214
3.0635	59.61914
3.064	77.34375
3.0645	77.54517
3.065	77.34375
3.0655	65.96375
3.066	54.78516
3.0665	35.65063
3.067	20.04089
3.0675	6.2439
3.068	-15.20691
3.0685	-45.11719
3.069	-70.99915
3.0695	-78.35083
3.07	-69.79065
3.0705	-73.51685
3.071	-66.26587
3.0715	-56.29578
3.072	-52.16675
3.0725	-33.63647
3.073	-21.75293
3.0735	3.8269
3.074	22.76001
3.0745	65.76233
3.075	94.2627
3.0755	115.10925
3.076	126.79138
3.0765	122.15881
3.077	105.34058
3.0775	78.55225
3.078	40.98816
3.0785	10.87646
3.079	-6.54602
3.0795	-27.59399
3.08	-35.34851
3.0805	-38.26904
3.081	-48.94409
3.0815	-67.77649
3.082	-68.68286
3.0825	-77.84729
3.083	-92.14783
3.0835	-98.59314
3.084	-104.23279
3.0845	-97.78748
3.085	-95.16907
3.0855	-83.08411
3.086	-44.21082
3.0865	-16.11328
3.087	-2.11487
3.0875	-1.10779
3.088	-7.5531
3.0885	-13.29346
3.089	-12.48779
3.0895	-6.74744
3.09	2.92053
3.0905	1.10779
3.091	19.63806
3.0915	27.19116
3.092	27.09045
3.0925	31.92444
3.093	27.39258
3.0935	21.14868
3.094	36.15417
3.0945	47.43347
3.095	52.67029
3.0955	64.151
3.096	68.68286
3.0965	59.51843
3.097	48.84338
3.0975	66.16516
3.098	75.63171
3.0985	67.27295
3.099	45.11719
3.0995	44.61365
3.1	52.46887
3.1005	53.47595
3.101	48.23914
3.1015	22.96143
3.102	9.66797
3.1025	-8.15735
3.103	-23.36426
3.1035	-31.4209
3.104	-39.67896
3.1045	-41.59241
3.105	-39.98108
3.1055	-33.43506
3.106	-21.55151
3.1065	-10.87646
3.107	0.20142
3.1075	4.53186
3.108	-0.40283
3.1085	-6.2439
3.109	-13.59558
3.1095	-16.41541
3.11	-11.98425
3.1105	1.61133
3.111	7.45239
3.1115	5.33752
3.112	7.45239
3.1125	9.76868
3.113	20.84656
3.1135	17.42249
3.114	17.72461
3.1145	11.48071
3.115	10.47363
3.1155	4.02832
3.116	-3.7262
3.1165	-11.07788
3.117	-14.60266
3.1175	-13.69629
3.118	-8.45947
3.1185	-7.35168
3.119	1.3092
3.1195	1.00708
3.12	-2.41699
3.1205	7.35168
3.121	5.33752
3.1215	12.38708
3.122	9.66797
3.1225	10.0708
3.123	5.43823
3.1235	3.92761
3.124	7.85522
3.1245	12.48779
3.125	13.89771
3.1255	7.85522
3.126	13.99841
3.1265	14.50195
3.127	13.09204
3.1275	11.2793
3.128	10.97717
3.1285	14.09912
3.129	10.0708
3.1295	5.43823
3.13	12.78992
3.1305	16.11328
3.131	17.82532
3.1315	13.29346
3.132	3.02124
3.1325	-0.90637
3.133	-1.51062
3.1335	-6.54602
3.134	-7.35168
3.1345	28.70178
3.135	82.07703
3.1355	116.51917
3.136	153.07617
3.1365	179.76379
3.137	181.37512
3.1375	161.23352
3.138	126.79138
3.1385	78.95508
3.139	38.974
3.1395	1.40991
3.14	-37.7655
3.1405	-71.90552
3.141	-95.5719
3.1415	-112.69226
3.142	-108.96606
3.1425	-110.87952
3.143	-114.20288
3.1435	-102.11792
3.144	-108.05969
3.1445	-97.48535
3.145	-89.52942
3.1455	-78.14941
3.146	-70.89844
3.1465	-66.46729
3.147	-49.95117
3.1475	-37.46338
3.148	-20.84656
3.1485	-13.49487
3.149	3.92761
3.1495	11.88354
3.15	21.3501
3.1505	32.02515
3.151	37.16125
3.1515	37.56409
3.152	35.75134
3.1525	27.89612
3.153	29.60815
3.1535	22.6593
3.154	21.14868
3.1545	15.00549
3.155	12.89062
3.1555	7.95593
3.156	2.61841
3.1565	2.41699
3.157	-2.41699
3.1575	-8.05664
3.158	-14.30054
3.1585	-16.51611
3.159	-10.27222
3.1595	-4.53186
3.16	-4.22974
3.1605	-2.01416
3.161	-0.80566
3.1615	8.35876
3.162	6.14319
3.1625	15.1062
3.163	15.1062
3.1635	17.6239
3.164	25.07629
3.1645	23.8678
3.165	28.39966
3.1655	26.58691
3.166	35.34851
3.1665	40.68604
3.167	40.1825
3.1675	28.60107
3.168	32.42798
3.1685	41.29028
3.169	36.35559
3.1695	30.41382
3.17	21.14868
3.1705	16.71753
3.171	17.22107
3.1715	9.46655
3.172	4.73328
3.1725	-6.54602
3.173	-0.10071
3.1735	3.92761
3.174	12.89062
3.1745	15.71045
3.175	13.19275
3.1755	10.17151
3.176	3.12195
3.1765	-0.90637
3.177	-6.54602
3.1775	-5.53894
3.178	-3.7262
3.1785	-2.71912
3.179	14.70337
3.1795	1.71204
3.18	-11.98425
3.1805	-29.80957
3.181	-31.32019
3.1815	-37.66479
3.182	-34.34143
3.1825	-11.88354
3.183	25.57983
3.1835	40.08179
3.184	33.43506
3.1845	21.3501
3.185	35.14709
3.1855	29.30603
3.186	10.37292
3.1865	-7.5531
3.187	-27.09045
3.1875	-42.39807
3.188	-44.41223
3.1885	-50.45471
3.189	-25.07629
3.1895	8.15735
3.19	33.9386
3.1905	35.2478
3.191	34.84497
3.1915	32.42798
3.192	32.32727
3.1925	26.48621
3.193	15.60974
3.1935	10.47363
3.194	2.41699
3.1945	-3.42407
3.195	-11.38
3.1955	-9.46655
3.196	-5.43823
3.1965	-3.42407
3.197	1.2085
3.1975	3.62549
3.198	3.42407
3.1985	11.2793
3.199	17.42249
3.1995	18.8324
3.2	15.20691
3.2005	10.57434
3.201	3.8269
3.2015	8.8623
3.202	9.26514
3.2025	15.30762
3.203	46.22498
3.2035	67.37366
3.204	74.62463
3.2045	70.89844
3.205	67.37366
3.2055	63.44604
3.206	51.5625
3.2065	34.44214
3.207	28.19824
3.2075	47.7356
3.208	107.95898
3.2085	140.68909
3.209	151.76697
3.2095	126.69067
3.21	87.71667
3.2105	38.26904
3.211	-8.25806
3.2115	-55.49011
3.212	-88.82446
3.2125	-109.3689
3.213	-125.58289
3.2135	-128.302
3.214	-117.32483
3.2145	-101.41296
3.215	-80.4657
3.2155	-72.61047
3.216	-64.35242
3.2165	-51.05896
3.217	-35.85205
3.2175	-19.94019
3.218	-9.97009
3.2185	2.61841
3.219	8.56018
3.2195	14.60266
3.22	18.42957
3.2205	22.76001
3.221	23.16284
3.2215	35.44922
3.222	36.85913
3.2225	31.52161
3.223	36.65771
3.2235	59.82056
3.224	92.85278
3.2245	93.25562
3.225	90.5365
3.2255	80.4657
3.226	70.69702
3.2265	57.60498
3.227	48.84338
3.2275	37.56409
3.228	12.18567
3.2285	-4.43115
3.229	-29.40674
3.2295	-32.83081
3.23	-41.08887
3.2305	-39.47754
3.231	-44.61365
3.2315	-40.88745
3.232	-53.87878
3.2325	-46.82922
3.233	-43.90869
3.2335	-38.16833
3.234	-31.62231
3.2345	-24.77417
3.235	-23.26355
3.2355	-10.57434
3.236	-1.2085
3.2365	15.50903
3.237	23.8678
3.2375	22.55859
3.238	22.25647
3.2385	18.93311
3.239	21.55151
3.2395	20.64514
3.24	15.81116
3.2405	6.74744
3.241	8.35876
3.2415	10.77576
3.242	13.39417
3.2425	13.49487
3.243	20.24231
3.2435	21.14868
3.244	26.28479
3.2445	32.42798
3.245	25.47913
3.2455	14.19983
3.246	13.09204
3.2465	7.04956
3.247	7.45239
3.2475	11.68213
3.248	1.2085
3.2485	-6.94885
3.249	-7.04956
3.2495	-20.54443
3.25	-35.14709
3.2505	-19.73877
3.251	-4.73328
3.2515	-1.61133
3.252	-1.51062
3.2525	13.89771
3.253	20.24231
3.2535	16.81824
3.254	10.0708
3.2545	0.20142
3.255	-14.80408
3.2555	-37.16125
3.256	-51.15967
3.2565	-62.53967
3.257	-67.37366
3.2575	-70.3949
3.258	-34.03931
3.2585	23.76709
3.259	83.99048
3.2595	137.76855
3.26	186.71265
3.2605	225.0824
3.261	226.89514
3.2615	189.83459
3.262	135.15015
3.2625	87.71667
3.263	32.42798
3.2635	-7.5531
3.264	-35.34851
3.2645	-54.78516
3.265	-67.07153
3.2655	-74.02039
3.266	-80.36499
3.2665	-81.97632
3.267	-74.82605
3.2675	-67.8772
3.268	-55.3894
3.2685	-52.8717
3.269	-55.69153
3.2695	-57.9071
3.27	-54.18091
3.2705	-50.85754
3.271	-41.59241
3.2715	-29.91028
3.272	-21.95435
3.2725	2.92053
3.273	8.15735
3.2735	24.57275
3.274	34.34143
3.2745	34.54285
3.275	30.01099
3.2755	22.55859
3.276	14.19983
3.2765	20.84656
3.277	20.94727
3.2775	16.41541
3.278	22.15576
3.2785	20.1416
3.279	21.75293
3.2795	17.12036
3.28	12.18567
3.2805	8.45947
3.281	12.18567
3.2815	12.99133
3.282	6.94885
3.2825	7.85522
3.283	7.15027
3.2835	8.25806
3.284	6.54602
3.2845	0.10071
3.285	-5.0354
3.2855	-2.21558
3.286	0.40283
3.2865	5.13611
3.287	2.61841
3.2875	6.54602
3.288	4.63257
3.2885	4.93469
3.289	5.74036
3.2895	1.61133
3.29	6.14319
3.2905	1.00708
3.291	-1.3092
3.2915	1.00708
3.292	0
3.2925	5.43823
3.293	4.02832
3.2935	3.7262
3.294	2.92053
3.2945	4.12903
3.295	8.15735
3.2955	12.08496
3.296	16.61682
3.2965	22.86072
3.297	25.57983
3.2975	24.87488
3.298	20.84656
3.2985	18.12744
3.299	15.71045
3.2995	7.75452
3.3	8.15735
3.3005	6.74744
3.301	11.68213
3.3015	25.177
3.302	55.69153
3.3025	83.78906
3.303	119.13757
3.3035	136.35864
3.304	128.80554
3.3045	102.72217
3.305	64.65454
3.3055	27.29187
3.306	-3.22266
3.3065	-28.39966
3.307	-56.09436
3.3075	-73.01331
3.308	-88.92517
3.3085	-88.62305
3.309	-75.4303
3.3095	-64.05029
3.31	-58.30994
3.3105	-60.82764
3.311	-54.0802
3.3115	-52.36816
3.312	-44.71436
3.3125	-33.23364
3.313	-17.01965
3.3135	-2.11487
3.314	5.53894
3.3145	13.89771
3.315	25.37842
3.3155	26.78833
3.316	32.12585
3.3165	41.29028
3.317	39.07471
3.3175	37.66479
3.318	36.75842
3.3185	31.01807
3.319	27.39258
3.3195	28.9032
3.32	22.86072
3.3205	23.36426
3.321	16.41541
3.3215	9.26514
3.322	5.0354
3.3225	-9.56726
3.323	-16.71753
3.3235	-17.72461
3.324	-11.58142
3.3245	-10.37292
3.325	-1.40991
3.3255	5.13611
3.326	18.93311
3.3265	46.32568
3.327	78.55225
3.3275	92.34924
3.328	89.328
3.3285	71.20056
3.329	35.85205
3.3295	14.09912
3.33	-2.31628
3.3305	-14.90479
3.331	-20.84656
3.3315	-34.24072
3.332	-47.23206
3.3325	-45.52002
3.333	-5.43823
3.3335	38.47046
3.334	69.58923
3.3345	65.46021
3.335	39.27612
3.3355	8.15735
3.336	-15.91187
3.3365	-46.32568
3.337	-57.70569
3.3375	-65.76233
3.338	-70.99915
3.3385	-85.80322
3.339	-81.57349
3.3395	-48.23914
3.34	-21.04797
3.3405	-4.43115
3.341	-3.62549
3.3415	-3.7262
3.342	0.60425
3.3425	7.25098
3.343	7.35168
3.3435	7.15027
3.344	-1.00708
3.3445	-1.10779
3.345	-2.41699
3.3455	-2.01416
3.346	-0.20142
3.3465	11.38
3.347	35.04639
3.3475	38.36975
3.348	24.87488
3.3485	-1.00708
3.349	-20.44373
3.3495	-30.91736
3.35	-39.27612
3.3505	-35.44922
3.351	-32.52869
3.3515	-13.29346
3.352	65.56091
3.3525	113.59863
3.353	122.56165
3.3535	111.8866
3.354	92.44995
3.3545	92.65137
3.355	95.37048
3.3555	85.60181
3.356	74.62463
3.3565	54.68445
3.357	26.48621
3.3575	-9.66797
3.358	-36.85913
3.3585	-47.93701
3.359	-53.57666
3.3595	-66.97083
3.36	-62.53967
3.3605	-55.89294
3.361	-49.54834
3.3615	-31.62231
3.362	-26.28479
3.3625	-19.94019
3.363	-8.56018
3.3635	8.05664
3.364	13.39417
3.3645	21.14868
3.365	27.09045
3.3655	26.78833
3.366	29.70886
3.3665	34.54285
3.367	42.7002
3.3675	45.52002
3.368	44.11011
3.3685	44.31152
3.369	34.03931
3.3695	32.93152
3.37	21.14868
3.3705	12.89062
3.371	9.56726
3.3715	5.84106
3.372	8.05664
3.3725	10.37292
3.373	6.2439
3.3735	2.31628
3.374	5.13611
3.3745	11.58142
3.375	18.93311
3.3755	58.61206
3.376	80.06287
3.3765	85.90393
3.377	78.55225
3.3775	70.99915
3.378	48.84338
3.3785	23.16284
3.379	-2.21558
3.3795	-33.53577
3.38	-54.78516
3.3805	-70.49561
3.381	-82.17773
3.3815	-80.36499
3.382	-65.76233
3.3825	-56.19507
3.383	-46.32568
3.3835	-34.03931
3.384	-4.43115
3.3845	13.09204
3.385	13.49487
3.3855	29.91028
3.386	46.42639
3.3865	54.0802
3.387	35.54993
3.3875	-1.71204
3.388	-30.41382
3.3885	-63.94958
3.389	-53.37524
3.3895	-25.47913
3.39	-8.35876
3.3905	-12.08496
3.391	-18.63098
3.3915	-24.57275
3.392	-33.83789
3.3925	-35.65063
3.393	-43.70728
3.3935	-47.53418
3.394	-44.21082
3.3945	-29.50745
3.395	-17.42249
3.3955	-18.22815
3.396	-16.11328
3.3965	-11.2793
3.397	-11.98425
3.3975	-11.07788
3.398	-14.30054
3.3985	-2.92053
3.399	13.29346
3.3995	45.41931
3.4	63.04321
3.4005	59.61914
3.401	42.7002
3.4015	37.86621
3.402	25.07629
3.4025	7.75452
3.403	-1.3092
3.4035	-25.47913
3.404	-28.39966
3.4045	-32.02515
3.405	-28.09753
3.4055	-18.32886
3.406	-14.19983
3.4065	-9.97009
3.407	35.65063
3.4075	68.98499
3.408	75.83313
3.4085	55.49011
3.409	37.7655
3.4095	26.08337
3.41	9.36584
3.4105	0.80566
3.411	-6.74744
3.4115	-6.3446
3.412	-12.99133
3.4125	-17.6239
3.413	-13.797
3.4135	-7.95593
3.414	0.60425
3.4145	5.94177
3.415	11.2793
3.4155	18.22815
3.416	17.32178
3.4165	19.03381
3.417	24.67346
3.4175	41.4917
3.418	46.32568
3.4185	32.7301
3.419	25.37842
3.4195	32.12585
3.42	37.06055
3.4205	39.98108
3.421	33.23364
3.4215	42.09595
3.422	43.90869
3.4225	34.24072
3.423	21.65222
3.4235	12.08496
3.424	16.11328
3.4245	8.66089
3.425	-3.12195
3.4255	-7.75452
3.426	-12.38708
3.4265	-3.32336
3.427	7.15027
3.4275	-1.10779
3.428	-15.20691
3.4285	-14.30054
3.429	-10.87646
3.4295	-5.63965
3.43	1.71204
3.4305	3.7262
3.431	3.62549
3.4315	8.35876
3.432	17.22107
3.4325	23.46497
3.433	33.9386
3.4335	38.47046
3.434	31.92444
3.4345	28.9032
3.435	12.5885
3.4355	19.83948
3.436	20.34302
3.4365	9.06372
3.437	-9.56726
3.4375	-20.64514
3.438	-8.8623
3.4385	0.40283
3.439	2.71912
3.4395	2.61841
3.44	0.50354
3.4405	-3.02124
3.441	-3.7262
3.4415	2.11487
3.442	23.46497
3.4425	46.22498
3.443	41.4917
3.4435	45.01648
3.444	76.33667
3.4445	82.68127
3.445	56.19507
3.4455	36.85913
3.446	18.53027
3.4465	-3.92761
3.447	-29.20532
3.4475	-41.39099
3.448	-52.67029
3.4485	-63.54675
3.449	-70.49561
3.4495	-71.30127
3.45	-73.11401
3.4505	-48.44055
3.451	-9.56726
3.4515	8.05664
3.452	5.74036
3.4525	-0.10071
3.453	5.23682
3.4535	9.86938
3.454	15.1062
3.4545	15.1062
3.455	12.18567
3.4555	5.53894
3.456	-2.5177
3.4565	-5.43823
3.457	-6.04248
3.4575	-9.36584
3.458	-16.91895
3.4585	-0.40283
3.459	9.86938
3.4595	5.74036
3.46	-3.7262
3.4605	-12.68921
3.461	-25.27771
3.4615	-34.74426
3.462	-31.92444
3.4625	-25.57983
3.463	-25.78125
3.4635	-26.98975
3.464	-22.86072
3.4645	14.80408
3.465	108.66394
3.4655	155.29175
3.466	154.6875
3.4665	130.11475
3.467	110.47668
3.4675	87.81738
3.468	53.57666
3.4685	16.01257
3.469	-10.97717
3.4695	-24.06921
3.47	-33.03223
3.4705	-34.74426
3.471	-24.27063
3.4715	-37.46338
3.472	-44.81506
3.4725	-44.0094
3.473	-32.52869
3.4735	-26.18408
3.474	-13.797
3.4745	-9.56726
3.475	-11.68213
3.4755	-10.0708
3.476	-13.29346
3.4765	8.25806
3.477	45.01648
3.4775	71.90552
3.478	71.60339
3.4785	57.20215
3.479	32.83081
3.4795	4.43115
3.48	-20.84656
3.4805	-53.87878
3.481	-63.14392
3.4815	-71.20056
3.482	-51.05896
3.4825	-24.77417
3.483	-13.29346
3.4835	-11.68213
3.484	-16.91895
3.4845	-16.61682
3.485	-24.97559
3.4855	-28.80249
3.486	-27.39258
3.4865	-24.87488
3.487	-24.57275
3.4875	-20.44373
3.488	-16.41541
3.4885	-16.91895
3.489	-13.19275
3.4895	6.3446
3.49	17.6239
3.4905	8.96301
3.491	-4.43115
3.4915	-27.89612
3.492	-45.52002
3.4925	-45.52002
3.493	-38.87329
3.4935	-29.60815
3.494	-38.47046
3.4945	-38.87329
3.495	-27.39258
3.4955	-20.34302
3.496	-9.56726
3.4965	-5.84106
3.497	-5.13611
3.4975	14.50195
3.498	45.52002
3.4985	65.3595
3.499	64.75525
3.4995	78.14941
3.5	86.10535
3.5005	130.71899
3.501	180.36804
3.5015	192.75513
3.502	174.8291
3.5025	130.41687
3.503	86.70959
3.5035	35.85205
3.504	1.40991
3.5045	-29.20532
3.505	-40.98816
3.5055	-42.90161
3.506	-46.62781
3.5065	-53.67737
3.507	-67.8772
3.5075	-72.50977
3.508	-63.94958
3.5085	-61.6333
3.509	-55.59082
3.5095	-43.80798
3.51	-28.60107
3.5105	-22.6593
3.511	-13.69629
3.5115	-12.48779
3.512	-14.30054
3.5125	-19.83948
3.513	-20.94727
3.5135	-19.94019
3.514	-5.63965
3.5145	34.34143
3.515	52.36816
3.5155	47.7356
3.516	34.74426
3.5165	19.83948
3.517	-3.8269
3.5175	-30.11169
3.518	-2.71912
3.5185	52.8717
3.519	80.4657
3.5195	93.85986
3.52	97.78748
3.5205	84.99756
3.521	68.17932
3.5215	37.7655
3.522	-1.40991
3.5225	-14.50195
3.523	-27.79541
3.5235	-29.50745
3.524	-28.9032
3.5245	-26.68762
3.525	-27.39258
3.5255	-33.9386
3.526	-43.10303
3.5265	-41.4917
3.527	-28.50037
3.5275	-20.64514
3.528	-19.13452
3.5285	-13.49487
3.529	-34.74426
3.5295	-42.49878
3.53	-37.16125
3.5305	-28.19824
3.531	-24.37134
3.5315	-18.32886
3.532	-3.32336
3.5325	9.26514
3.533	17.82532
3.5335	29.20532
3.534	24.77417
3.5345	24.06921
3.535	22.6593
3.5355	24.06921
3.536	23.76709
3.5365	59.71985
3.537	77.64587
3.5375	76.03455
3.538	58.81348
3.5385	36.35559
3.539	10.37292
3.5395	-2.61841
3.54	-11.78284
3.5405	-20.84656
3.541	-28.60107
3.5415	-30.71594
3.542	-33.43506
3.5425	-24.67346
3.543	-27.6947
3.5435	-29.80957
3.544	-30.91736
3.5445	-31.62231
3.545	-36.85913
3.5455	-33.63647
3.546	-39.67896
3.5465	-26.68762
3.547	12.48779
3.5475	50.95825
3.548	75.22888
3.5485	76.03455
3.549	75.73242
3.5495	67.17224
3.55	55.89294
3.5505	38.67188
3.551	21.75293
3.5515	13.797
3.552	-2.31628
3.5525	-12.08496
3.553	-24.27063
3.5535	-28.9032
3.554	-8.96301
3.5545	1.10779
3.555	20.1416
3.5555	85.70251
3.556	133.3374
3.5565	133.3374
3.557	104.03137
3.5575	68.98499
3.558	5.74036
3.5585	-34.24072
3.559	-35.44922
3.5595	-35.44922
3.56	-46.62781
3.5605	-46.02356
3.561	-41.29028
3.5615	-31.52161
3.562	-25.98267
3.5625	-23.16284
3.563	-11.07788
3.5635	-8.35876
3.564	-2.41699
3.5645	7.5531
3.565	17.42249
3.5655	23.16284
3.566	29.70886
3.5665	16.81824
3.567	34.94568
3.5675	46.22498
3.568	54.78516
3.5685	46.5271
3.569	33.23364
3.5695	22.86072
3.57	1.3092
3.5705	-14.70337
3.571	-30.41382
3.5715	-41.39099
3.572	-30.31311
3.5725	-26.68762
3.573	-26.88904
3.5735	-29.70886
3.574	-27.99683
3.5745	-27.09045
3.575	-27.39258
3.5755	-30.01099
3.576	-33.63647
3.5765	-30.71594
3.577	-31.21948
3.5775	-31.01807
3.578	-32.52869
3.5785	-37.96692
3.579	-37.66479
3.5795	-29.40674
3.58	-22.05505
3.5805	-8.05664
3.581	-14.90479
3.5815	-10.37292
3.582	-2.71912
3.5825	-3.8269
3.583	9.56726
3.5835	56.39648
3.584	94.76624
3.5845	110.98022
3.585	103.125
3.5855	84.19189
3.586	61.83472
3.5865	44.61365
3.587	28.09753
3.5875	16.91895
3.588	-3.62549
3.5885	-17.42249
3.589	-22.55859
3.5895	6.54602
3.59	55.89294
3.5905	100.40588
3.591	111.68518
3.5915	77.64587
3.592	38.77258
3.5925	-14.09912
3.593	-35.54993
3.5935	-46.42639
3.594	-43.50586
3.5945	-67.17224
3.595	-104.63562
3.5955	-92.65137
3.596	-46.82922
3.5965	-29.40674
3.597	-44.31152
3.5975	-72.81189
3.598	-119.4397
3.5985	-139.88342
3.599	-149.45068
3.5995	-143.3075
3.6	-123.56873
3.6005	-97.48535
3.601	-72.20764
3.6015	-64.85596
3.602	-57.60498
3.6025	-42.29736
3.603	-25.177
3.6035	-13.99841
3.604	-0.90637
3.6045	8.05664
3.605	13.39417
3.6055	31.4209
3.606	49.14551
3.6065	43.00232
3.607	22.45789
3.6075	64.65454
3.608	107.95898
3.6085	132.73315
3.609	124.57581
3.6095	107.25403
3.61	121.65527
3.6105	154.18396
3.611	149.6521
3.6115	122.25952
3.612	83.68835
3.6125	24.47205
3.613	-23.66638
3.6135	-45.41931
3.614	-53.67737
3.6145	-50.05188
3.615	-25.88196
3.6155	13.99841
3.616	50.65613
3.6165	54.68445
3.617	37.26196
3.6175	25.27771
3.618	19.73877
3.6185	8.96301
3.619	2.41699
3.6195	6.3446
3.62	11.88354
3.6205	15.81116
3.621	21.04797
3.6215	21.24939
3.622	6.84814
3.6225	-5.33752
3.623	-3.7262
3.6235	-6.3446
3.624	-3.8269
3.6245	-0.80566
3.625	3.92761
3.6255	8.96301
3.626	6.2439
3.6265	14.90479
3.627	35.65063
3.6275	57.60498
3.628	74.32251
3.6285	75.12817
3.629	57.9071
3.6295	31.92444
3.63	11.38
3.6305	-5.43823
3.631	-22.55859
3.6315	-29.50745
3.632	-33.03223
3.6325	-33.33435
3.633	-20.44373
3.6335	-13.59558
3.634	-7.95593
3.6345	-4.83398
3.635	-8.35876
3.6355	24.16992
3.636	38.974
3.6365	39.37683
3.637	31.01807
3.6375	55.18799
3.638	53.17383
3.6385	15.50903
3.639	-24.67346
3.6395	-6.14319
3.64	47.13135
3.6405	62.23755
3.641	36.25488
3.6415	8.35876
3.642	-24.16992
3.6425	-41.69312
3.643	-42.59949
3.6435	-47.63489
3.644	-68.78357
3.6445	-85.60181
3.645	-76.7395
3.6455	-59.31702
3.646	-55.99365
3.6465	-62.9425
3.647	-62.8418
3.6475	-56.69861
3.648	-32.93152
3.6485	-1.91345
3.649	21.04797
3.6495	29.60815
3.65	35.75134
3.6505	26.68762
3.651	34.94568
3.6515	23.8678
3.652	24.97559
3.6525	27.29187
3.653	26.48621
3.6535	24.16992
3.654	26.28479
3.6545	19.83948
3.655	9.46655
3.6555	7.75452
3.656	7.65381
3.6565	6.04248
3.657	6.44531
3.6575	11.2793
3.658	7.95593
3.6585	8.7616
3.659	4.83398
3.6595	0.80566
3.66	32.62939
3.6605	67.57507
3.661	72.81189
3.6615	80.26428
3.662	108.66394
3.6625	117.62695
3.663	99.19739
3.6635	51.36108
3.664	7.75452
3.6645	-41.79382
3.665	-106.14624
3.6655	-162.34131
3.666	-196.48132
3.6665	-216.11938
3.667	-113.90076
3.6675	-15.81116
3.668	25.98267
3.6685	26.28479
3.669	10.47363
3.6695	-1.10779
3.67	-17.22107
3.6705	-36.05347
3.671	-48.94409
3.6715	-48.74268
3.672	-45.82214
3.6725	-34.14001
3.673	-22.86072
3.6735	-17.22107
3.674	-13.69629
3.6745	-7.25098
3.675	8.96301
3.6755	17.32178
3.676	12.28638
3.6765	45.72144
3.677	90.43579
3.6775	98.59314
3.678	89.83154
3.6785	82.78198
3.679	54.48303
3.6795	32.7301
3.68	19.53735
3.6805	-1.2085
3.681	-5.43823
3.6815	-14.09912
3.682	-21.14868
3.6825	-39.37683
3.683	-32.42798
3.6835	-16.91895
3.684	-13.49487
3.6845	18.32886
3.685	47.53418
3.6855	62.43896
3.686	51.46179
3.6865	47.43347
3.687	50.15259
3.6875	57.40356
3.688	42.59949
3.6885	46.72852
3.689	104.93774
3.6895	145.9259
3.69	140.78979
3.6905	109.57031
3.691	68.88428
3.6915	51.26038
3.692	22.6593
3.6925	-14.90479
3.693	-47.53418
3.6935	-77.948
3.694	-64.55383
3.6945	-44.91577
3.695	-39.98108
3.6955	-49.0448
3.696	-72.9126
3.6965	-68.07861
3.697	-71.7041
3.6975	-77.14233
3.698	-73.91968
3.6985	-53.57666
3.699	-56.49719
3.6995	-78.25012
3.7	-9.46655
3.7005	51.46179
3.701	61.53259
3.7015	52.36816
3.702	34.54285
3.7025	22.55859
3.703	-1.61133
3.7035	-31.62231
3.704	-66.06445
3.7045	-89.02588
3.705	-121.25244
3.7055	-134.94873
3.706	-153.78113
3.7065	-156.70166
3.707	-145.9259
3.7075	-128.10059
3.708	-90.83862
3.7085	-55.99365
3.709	-9.97009
3.7095	52.26746
3.71	85.80322
3.7105	94.96765
3.711	91.14075
3.7115	61.43188
3.712	38.26904
3.7125	35.2478
3.713	47.63489
3.7135	50.85754
3.714	53.27454
3.7145	68.88428
3.715	80.26428
3.7155	80.4657
3.716	70.19348
3.7165	66.06445
3.717	67.57507
3.7175	67.8772
3.718	66.26587
3.7185	60.92834
3.719	48.13843
3.7195	32.42798
3.72	12.48779
3.7205	4.12903
3.721	-4.12903
3.7215	9.36584
3.722	26.48621
3.7225	38.16833
3.723	81.67419
3.7235	98.39172
3.724	125.28076
3.7245	150.75989
3.725	154.6875
3.7255	120.64819
3.726	65.25879
3.7265	16.21399
3.727	-29.00391
3.7275	-55.2887
3.728	-82.68127
3.7285	-95.77332
3.729	-107.25403
3.7295	-106.54907
3.73	-103.02429
3.7305	-109.67102
3.731	-113.59863
3.7315	-96.27686
3.732	-73.11401
3.7325	-32.93152
3.733	-0.90637
3.7335	82.47986
3.734	198.89832
3.7345	251.36719
3.735	253.58276
3.7355	192.95654
3.736	130.51758
3.7365	52.46887
3.737	-29.00391
3.7375	-93.55774
3.738	-111.68518
3.7385	-109.3689
3.739	-100.10376
3.7395	-93.65845
3.74	-82.88269
3.7405	-84.99756
3.741	-70.19348
3.7415	-61.43188
3.742	-67.37366
3.7425	-59.82056
3.743	-46.42639
3.7435	-34.44214
3.744	-22.35718
3.7445	-16.81824
3.745	-12.38708
3.7455	-4.22974
3.746	6.94885
3.7465	33.13293
3.747	73.21472
3.7475	95.16907
3.748	72.71118
3.7485	46.62781
3.749	5.33752
3.7495	-14.30054
3.75	-8.56018
3.7505	-27.29187
3.751	-50.354
3.7515	-55.3894
3.752	-65.15808
3.7525	-75.83313
3.753	-66.97083
3.7535	-20.84656
3.754	49.74976
3.7545	91.14075
3.755	95.37048
3.7555	75.12817
3.756	40.68604
3.7565	13.69629
3.757	-16.01257
3.7575	-38.16833
3.758	-53.37524
3.7585	-54.18091
3.759	-54.48303
3.7595	-46.02356
3.76	-41.79382
3.7605	-33.33435
3.761	-18.22815
3.7615	-11.78284
3.762	-7.75452
3.7625	-12.28638
3.763	-18.02673
3.7635	-17.01965
3.764	-13.69629
3.7645	13.59558
3.765	102.52075
3.7655	201.71814
3.766	240.39001
3.7665	215.21301
3.767	150.55847
3.7675	68.38074
3.768	-16.01257
3.7685	-89.02588
3.769	-136.45935
3.7695	-165.56396
3.77	-182.18079
3.7705	-163.14697
3.771	-130.8197
3.7715	-74.42322
3.772	-68.48145
3.7725	-108.36182
3.773	-114.505
3.7735	6.74744
3.774	120.04395
3.7745	146.53015
3.775	118.63403
3.7755	94.86694
3.776	77.84729
3.7765	89.22729
3.777	196.48132
3.7775	298.69995
3.778	382.48901
3.7785	429.31824
3.779	359.42688
3.7795	237.97302
3.78	200.40894
3.7805	128.20129
3.781	28.50037
3.7815	-70.09277
3.782	-162.44202
3.7825	-247.84241
3.783	-348.349
3.7835	-430.82886
3.784	-377.55432
3.7845	-280.77393
3.785	-223.37036
3.7855	-123.06519
3.786	-36.4563
3.7865	18.32886
3.787	29.40674
3.7875	35.65063
3.788	-21.14868
3.7885	-86.91101
3.789	-125.88501
3.7895	-119.94324
3.79	-64.95667
3.7905	-25.07629
3.791	-22.86072
3.7915	-24.06921
3.792	-28.70178
3.7925	0.40283
3.793	50.2533
3.7935	90.93933
3.794	91.64429
3.7945	64.95667
3.795	67.47437
3.7955	86.91101
3.796	105.94482
3.7965	106.04553
3.797	102.21863
3.7975	83.68835
3.798	51.15967
3.7985	34.84497
3.799	32.02515
3.7995	34.34143
3.8	17.12036
3.8005	0.50354
3.801	-9.86938
3.8015	-15.1062
3.802	8.8623
3.8025	19.33594
3.803	3.32336
3.8035	-8.25806
3.804	-19.94019
3.8045	-18.22815
3.805	-7.45239
3.8055	18.53027
3.806	22.25647
3.8065	25.78125
3.807	30.01099
3.8075	33.33435
3.808	44.51294
3.8085	37.46338
3.809	23.36426
3.8095	4.12903
3.81	23.36426
3.8105	67.37366
3.811	77.84729
3.8115	75.32959
3.812	68.17932
3.8125	57.9071
3.813	53.27454
3.8135	44.81506
3.814	32.93152
3.8145	25.68054
3.815	13.19275
3.8155	2.41699
3.816	-6.44531
3.8165	43.00232
3.817	82.27844
3.8175	75.12817
3.818	46.02356
3.8185	3.7262
3.819	-8.35876
3.8195	0.30212
3.82	20.44373
3.8205	17.92603
3.821	10.17151
3.8215	-14.19983
3.822	-31.21948
3.8225	-18.93311
3.823	-10.87646
3.8235	-14.60266
3.824	-28.70178
3.8245	-42.59949
3.825	-58.51135
3.8255	-85.09827
3.826	-97.58606
3.8265	-96.37756
3.827	-88.72375
3.8275	-85.70251
3.828	-77.44446
3.8285	-66.36658
3.829	-52.8717
3.8295	-21.85364
3.83	0.10071
3.8305	6.84814
3.831	27.39258
3.8315	28.09753
3.832	25.37842
3.8325	20.64514
3.833	13.49487
3.8335	6.74744
3.834	2.5177
3.8345	7.15027
3.835	18.22815
3.8355	11.38
3.836	10.37292
3.8365	8.7616
3.837	7.35168
3.8375	61.02905
3.838	113.09509
3.8385	146.02661
3.839	154.28467
3.8395	151.56555
3.84	130.92041
3.8405	102.31934
3.841	68.58215
3.8415	39.27612
3.842	3.32336
3.8425	-25.07629
3.843	-62.33826
3.8435	-73.31543
3.844	-57.70569
3.8445	-48.44055
3.845	-32.42798
3.8455	-11.68213
3.846	-11.68213
3.8465	-25.177
3.847	-25.68054
3.8475	38.16833
3.848	53.57666
3.8485	58.30994
3.849	63.44604
3.8495	59.61914
3.85	51.26038
3.8505	27.49329
3.851	-16.71753
3.8515	-50.05188
3.852	-67.67578
3.8525	-90.03296
3.853	-107.75757
3.8535	-101.31226
3.854	-105.03845
3.8545	-96.37756
3.855	-88.52234
3.8555	-67.57507
3.856	-50.2533
3.8565	-35.95276
3.857	-20.74585
3.8575	-5.43823
3.858	8.05664
3.8585	5.43823
3.859	22.45789
3.8595	28.50037
3.86	28.70178
3.8605	34.24072
3.861	44.31152
3.8615	39.37683
3.862	30.71594
3.8625	25.68054
3.863	14.30054
3.8635	-11.17859
3.864	-39.17542
3.8645	-38.57117
3.865	-35.44922
3.8655	-33.43506
3.866	-29.40674
3.8665	-31.11877
3.867	8.45947
3.8675	190.74097
3.868	316.82739
3.8685	322.76917
3.869	253.38135
3.8695	133.53882
3.87	-7.45239
3.8705	-75.32959
3.871	-91.14075
3.8715	2.11487
3.872	99.80164
3.8725	125.38147
3.873	110.27527
3.8735	75.32959
3.874	23.76709
3.8745	-61.43188
3.875	-36.15417
3.8755	20.94727
3.876	33.73718
3.8765	24.77417
3.877	14.30054
3.8775	19.94019
3.878	9.76868
3.8785	30.11169
3.879	55.89294
3.8795	41.59241
3.88	23.56567
3.8805	-20.64514
3.881	-70.89844
3.8815	-103.22571
3.882	-145.8252
3.8825	-122.46094
3.883	-65.25879
3.8835	-8.45947
3.884	49.54834
3.8845	57.60498
3.885	55.69153
3.8855	40.1825
3.886	9.86938
3.8865	-30.41382
3.887	-56.29578
3.8875	-51.86462
3.888	-71.7041
3.8885	-93.15491
3.889	-88.11951
3.8895	-86.20605
3.89	-80.06287
3.8905	-70.49561
3.891	-57.30286
3.8915	-31.4209
3.892	-13.99841
3.8925	-8.96301
3.893	-16.91895
3.8935	1.91345
3.894	31.21948
3.8945	44.31152
3.895	44.61365
3.8955	53.67737
3.896	61.23047
3.8965	58.10852
3.897	44.91577
3.8975	34.94568
3.898	23.8678
3.8985	31.11877
3.899	32.7301
3.8995	23.66638
3.9	23.26355
3.9005	24.77417
3.901	19.63806
3.9015	14.60266
3.902	21.75293
3.9025	18.42957
3.903	27.79541
3.9035	34.64355
3.904	31.32019
3.9045	17.42249
3.905	4.12903
3.9055	-13.19275
3.906	-16.41541
3.9065	3.7262
3.907	15.60974
3.9075	13.59558
3.908	3.92761
3.9085	-6.94885
3.909	-4.83398
3.9095	-8.56018
3.91	-16.3147
3.9105	-16.51611
3.911	-20.94727
3.9115	-17.12036
3.912	-7.25098
3.9125	7.85522
3.913	16.01257
3.9135	17.12036
3.914	9.86938
3.9145	9.26514
3.915	6.14319
3.9155	10.37292
3.916	31.11877
3.9165	33.33435
3.917	26.58691
3.9175	18.32886
3.918	11.07788
3.9185	1.2085
3.919	-11.07788
3.9195	-13.69629
3.92	-21.75293
3.9205	-33.53577
3.921	-51.26038
3.9215	-58.30994
3.922	-71.30127
3.9225	-60.62622
3.923	-55.3894
3.9235	-83.78906
3.924	-88.42163
3.9245	-43.40515
3.925	-13.29346
3.9255	6.44531
3.926	12.48779
3.9265	-1.3092
3.927	-21.55151
3.9275	-18.53027
3.928	9.46655
3.9285	41.79382
3.929	53.67737
3.9295	64.05029
3.93	79.35791
3.9305	132.93457
3.931	162.44202
3.9315	129.71191
3.932	86.00464
3.9325	95.26978
3.933	118.43262
3.9335	102.11792
3.934	73.01331
3.9345	72.30835
3.935	87.11243
3.9355	81.7749
3.936	85.90393
3.9365	116.72058
3.937	231.427
3.9375	245.02258
3.938	195.07141
3.9385	124.27368
3.939	42.09595
3.9395	-25.47913
3.94	-97.98889
3.9405	-124.87793
3.941	-143.71033
3.9415	-163.95264
3.942	-207.25708
3.9425	-246.02966
3.943	-273.52295
3.9435	-286.21216
3.944	-255.2948
3.9445	-214.00452
3.945	-161.63635
3.9455	-132.22961
3.946	-89.73083
3.9465	-17.92603
3.947	121.45386
3.9475	237.57019
3.948	280.77393
3.9485	271.91162
3.949	230.21851
3.9495	178.05176
3.95	111.08093
3.9505	38.87329
3.951	-23.26355
3.9515	-65.15808
3.952	-101.9165
3.9525	-133.84094
3.953	-144.01245
3.9535	-137.16431
3.954	-132.0282
3.9545	-127.99988
3.955	-113.29651
3.9555	-77.948
3.956	-43.80798
3.9565	-14.50195
3.957	-0.50354
3.9575	10.47363
3.958	23.46497
3.9585	39.07471
3.959	45.62073
3.9595	49.95117
3.96	47.23206
3.9605	48.03772
3.961	41.29028
3.9615	32.83081
3.962	25.78125
3.9625	25.07629
3.963	33.83789
3.9635	57.60498
3.964	104.03137
3.9645	112.69226
3.965	74.42322
3.9655	3.8269
3.966	-56.69861
3.9665	-102.11792
3.967	-120.84961
3.9675	-110.87952
3.968	-71.20056
3.9685	-35.2478
3.969	5.13611
3.9695	46.82922
3.97	75.53101
3.9705	87.21313
3.971	67.77649
3.9715	32.42798
3.972	24.57275
3.9725	20.94727
3.973	-2.71912
