Alex_Venditti_Right_2.c3d  



Time(s):	C_L_bicipite(μV):
0	6.2439
0.0005	9.56726
0.001	11.2793
0.0015	8.8623
0.002	1.10779
0.0025	1.40991
0.003	-0.10071
0.0035	-1.00708
0.004	3.32336
0.0045	-3.32336
0.005	1.00708
0.0055	-1.10779
0.006	-0.40283
0.0065	-1.3092
0.007	2.31628
0.0075	7.95593
0.008	3.32336
0.0085	1.51062
0.009	0.70496
0.0095	3.42407
0.01	-1.91345
0.0105	5.43823
0.011	4.22974
0.0115	1.91345
0.012	-2.21558
0.0125	2.41699
0.013	0.70496
0.0135	-0.10071
0.014	5.33752
0.0145	-0.30212
0.015	6.84814
0.0155	0.60425
0.016	4.02832
0.0165	5.84106
0.017	7.45239
0.0175	1.71204
0.018	6.2439
0.0185	2.41699
0.019	3.42407
0.0195	4.63257
0.02	6.44531
0.0205	7.5531
0.021	4.53186
0.0215	3.22266
0.022	7.45239
0.0225	4.43115
0.023	7.65381
0.0235	11.98425
0.024	8.66089
0.0245	13.19275
0.025	5.43823
0.0255	7.85522
0.026	4.63257
0.0265	3.22266
0.027	1.81274
0.0275	6.64673
0.028	4.12903
0.0285	2.41699
0.029	7.95593
0.0295	8.8623
0.03	6.04248
0.0305	8.05664
0.031	4.63257
0.0315	6.74744
0.032	9.76868
0.0325	5.84106
0.033	7.25098
0.0335	10.97717
0.034	8.15735
0.0345	3.42407
0.035	3.32336
0.0355	8.8623
0.036	5.13611
0.0365	5.53894
0.037	6.74744
0.0375	11.58142
0.038	7.5531
0.0385	4.53186
0.039	3.62549
0.0395	1.3092
0.04	5.23682
0.0405	2.71912
0.041	4.33044
0.0415	6.3446
0.042	6.14319
0.0425	7.65381
0.043	7.5531
0.0435	6.64673
0.044	7.85522
0.0445	8.8623
0.045	8.56018
0.0455	7.35168
0.046	7.45239
0.0465	10.17151
0.047	7.75452
0.0475	12.48779
0.048	8.8623
0.0485	7.65381
0.049	4.73328
0.0495	7.04956
0.05	-0.70496
0.0505	7.45239
0.051	12.28638
0.0515	10.47363
0.052	6.64673
0.0525	5.43823
0.053	2.21558
0.0535	10.47363
0.054	7.35168
0.0545	7.95593
0.055	4.02832
0.0555	5.13611
0.056	8.15735
0.0565	16.21399
0.057	15.60974
0.0575	14.50195
0.058	15.30762
0.0585	14.80408
0.059	20.94727
0.0595	16.21399
0.06	13.69629
0.0605	11.38
0.061	13.39417
0.0615	8.8623
0.062	8.96301
0.0625	4.73328
0.063	3.42407
0.0635	0.90637
0.064	2.5177
0.0645	-6.04248
0.065	-4.93469
0.0655	-4.53186
0.066	-2.81982
0.0665	4.02832
0.067	4.63257
0.0675	1.81274
0.068	2.92053
0.0685	1.00708
0.069	1.81274
0.0695	1.71204
0.07	5.13611
0.0705	7.35168
0.071	6.14319
0.0715	8.15735
0.072	12.08496
0.0725	8.96301
0.073	12.18567
0.0735	10.97717
0.074	5.84106
0.0745	3.42407
0.075	6.74744
0.0755	0.50354
0.076	10.27222
0.0765	8.7616
0.077	3.42407
0.0775	5.74036
0.078	7.25098
0.0785	-2.61841
0.079	3.92761
0.0795	3.12195
0.08	3.62549
0.0805	5.33752
0.081	1.71204
0.0815	0.40283
0.082	4.93469
0.0825	6.3446
0.083	0.60425
0.0835	-2.5177
0.084	-2.81982
0.0845	-3.12195
0.085	0.30212
0.0855	1.61133
0.086	-2.92053
0.0865	4.12903
0.087	6.54602
0.0875	-0.10071
0.088	1.10779
0.0885	4.83398
0.089	4.83398
0.0895	2.81982
0.09	5.74036
0.0905	0.80566
0.091	6.14319
0.0915	10.47363
0.092	3.22266
0.0925	1.81274
0.093	8.56018
0.0935	8.15735
0.094	7.25098
0.0945	5.74036
0.095	0.20142
0.0955	5.63965
0.096	8.7616
0.0965	7.04956
0.097	2.71912
0.0975	11.88354
0.098	9.97009
0.0985	14.19983
0.099	17.72461
0.0995	14.60266
0.1	13.69629
0.1005	15.00549
0.101	12.5885
0.1015	6.44531
0.102	8.45947
0.1025	9.46655
0.103	8.05664
0.1035	3.62549
0.104	-1.40991
0.1045	-1.91345
0.105	0.50354
0.1055	-1.61133
0.106	-4.33044
0.1065	-3.92761
0.107	-5.94177
0.1075	-1.00708
0.108	-1.2085
0.1085	3.8269
0.109	3.02124
0.1095	-0.30212
0.11	5.43823
0.1105	0.80566
0.111	-1.3092
0.1115	-2.31628
0.112	1.61133
0.1125	2.21558
0.113	6.44531
0.1135	7.25098
0.114	6.04248
0.1145	6.3446
0.115	6.3446
0.1155	3.32336
0.116	4.73328
0.1165	6.2439
0.117	4.93469
0.1175	2.01416
0.118	6.64673
0.1185	3.42407
0.119	1.61133
0.1195	1.10779
0.12	5.33752
0.1205	11.68213
0.121	9.26514
0.1215	11.98425
0.122	5.63965
0.1225	10.0708
0.123	11.88354
0.1235	12.48779
0.124	12.18567
0.1245	9.76868
0.125	10.17151
0.1255	4.93469
0.126	4.73328
0.1265	0.40283
0.127	1.81274
0.1275	9.56726
0.128	12.38708
0.1285	4.53186
0.129	5.74036
0.1295	2.5177
0.13	3.7262
0.1305	3.12195
0.131	-0.80566
0.1315	2.31628
0.132	5.94177
0.1325	2.5177
0.133	4.93469
0.1335	4.12903
0.134	6.64673
0.1345	1.71204
0.135	4.73328
0.1355	1.71204
0.136	8.25806
0.1365	6.3446
0.137	9.46655
0.1375	9.46655
0.138	7.15027
0.1385	6.14319
0.139	3.52478
0.1395	6.64673
0.14	6.2439
0.1405	3.7262
0.141	1.3092
0.1415	7.35168
0.142	6.64673
0.1425	4.43115
0.143	5.0354
0.1435	5.74036
0.144	14.40125
0.1445	7.45239
0.145	11.58142
0.1455	10.37292
0.146	8.96301
0.1465	9.66797
0.147	11.58142
0.1475	10.27222
0.148	10.87646
0.1485	10.0708
0.149	11.88354
0.1495	13.29346
0.15	15.20691
0.1505	9.56726
0.151	10.47363
0.1515	11.78284
0.152	5.74036
0.1525	11.88354
0.153	9.97009
0.1535	12.18567
0.154	5.63965
0.1545	11.98425
0.155	10.87646
0.1555	12.38708
0.156	18.93311
0.1565	10.57434
0.157	9.26514
0.1575	6.84814
0.158	6.64673
0.1585	3.12195
0.159	1.91345
0.1595	2.5177
0.16	7.15027
0.1605	4.33044
0.161	4.22974
0.1615	0.50354
0.162	1.40991
0.1625	2.31628
0.163	3.22266
0.1635	4.12903
0.164	0.30212
0.1645	5.63965
0.165	1.61133
0.1655	1.71204
0.166	0.40283
0.1665	5.23682
0.167	-2.21558
0.1675	1.91345
0.168	-3.12195
0.1685	-0.90637
0.169	-2.11487
0.1695	-5.43823
0.17	-2.81982
0.1705	-5.53894
0.171	-5.94177
0.1715	-11.07788
0.172	-10.0708
0.1725	-8.96301
0.173	-2.71912
0.1735	2.31628
0.174	-2.21558
0.1745	2.5177
0.175	1.81274
0.1755	-0.30212
0.176	0.90637
0.1765	4.12903
0.177	3.7262
0.1775	-1.00708
0.178	5.13611
0.1785	2.11487
0.179	5.0354
0.1795	9.16443
0.18	2.21558
0.1805	1.3092
0.181	4.83398
0.1815	8.35876
0.182	7.15027
0.1825	8.45947
0.183	5.84106
0.1835	13.89771
0.184	15.1062
0.1845	11.48071
0.185	7.25098
0.1855	7.65381
0.186	2.81982
0.1865	3.7262
0.187	2.5177
0.1875	5.33752
0.188	1.10779
0.1885	3.92761
0.189	9.56726
0.1895	4.73328
0.19	6.3446
0.1905	5.33752
0.191	7.04956
0.1915	6.54602
0.192	10.27222
0.1925	2.11487
0.193	9.76868
0.1935	8.7616
0.194	4.43115
0.1945	7.04956
0.195	12.89062
0.1955	6.3446
0.196	1.51062
0.1965	-0.40283
0.197	0
0.1975	5.23682
0.198	7.85522
0.1985	8.8623
0.199	6.14319
0.1995	3.22266
0.2	1.81274
0.2005	3.8269
0.201	4.02832
0.2015	2.5177
0.202	2.21558
0.2025	5.84106
0.203	7.95593
0.2035	6.94885
0.204	9.66797
0.2045	9.86938
0.205	8.05664
0.2055	10.97717
0.206	7.35168
0.2065	8.96301
0.207	7.35168
0.2075	12.38708
0.208	4.73328
0.2085	0.10071
0.209	4.12903
0.2095	5.53894
0.21	1.81274
0.2105	-2.61841
0.211	-1.00708
0.2115	1.61133
0.212	-3.12195
0.2125	-8.15735
0.213	2.81982
0.2135	2.41699
0.214	7.15027
0.2145	3.8269
0.215	3.92761
0.2155	0.60425
0.216	1.10779
0.2165	-1.81274
0.217	-0.60425
0.2175	2.5177
0.218	1.40991
0.2185	6.94885
0.219	7.35168
0.2195	3.12195
0.22	5.23682
0.2205	7.85522
0.221	8.25806
0.2215	7.75452
0.222	9.16443
0.2225	9.66797
0.223	10.47363
0.2235	10.37292
0.224	7.85522
0.2245	8.8623
0.225	3.22266
0.2255	13.89771
0.226	9.86938
0.2265	10.87646
0.227	8.96301
0.2275	9.46655
0.228	11.88354
0.2285	1.71204
0.229	5.84106
0.2295	8.15735
0.23	1.81274
0.2305	3.92761
0.231	1.51062
0.2315	6.74744
0.232	0.10071
0.2325	-5.74036
0.233	-5.63965
0.2335	-6.94885
0.234	3.02124
0.2345	2.81982
0.235	0.10071
0.2355	1.10779
0.236	0.80566
0.2365	0
0.237	0.20142
0.2375	1.10779
0.238	3.8269
0.2385	2.61841
0.239	-3.8269
0.2395	1.61133
0.24	-3.02124
0.2405	2.21558
0.241	2.61841
0.2415	8.56018
0.242	6.3446
0.2425	6.74744
0.243	7.25098
0.2435	4.83398
0.244	8.66089
0.2445	3.92761
0.245	6.84814
0.2455	4.93469
0.246	10.47363
0.2465	10.77576
0.247	7.45239
0.2475	10.27222
0.248	14.40125
0.2485	12.99133
0.249	12.68921
0.2495	13.49487
0.25	8.05664
0.2505	7.45239
0.251	8.05664
0.2515	4.73328
0.252	1.10779
0.2525	3.8269
0.253	-1.2085
0.2535	7.5531
0.254	6.04248
0.2545	3.8269
0.255	4.73328
0.2555	3.22266
0.256	9.26514
0.2565	5.0354
0.257	4.73328
0.2575	7.45239
0.258	7.35168
0.2585	6.84814
0.259	7.5531
0.2595	5.43823
0.26	12.18567
0.2605	8.66089
0.261	10.87646
0.2615	6.04248
0.262	10.27222
0.2625	10.67505
0.263	9.16443
0.2635	4.83398
0.264	0.30212
0.2645	7.75452
0.265	2.21558
0.2655	-3.42407
0.266	-3.22266
0.2665	4.12903
0.267	2.01416
0.2675	9.97009
0.268	4.53186
0.2685	2.21558
0.269	2.11487
0.2695	6.2439
0.27	5.63965
0.2705	4.22974
0.271	5.23682
0.2715	7.75452
0.272	8.25806
0.2725	7.45239
0.273	11.78284
0.2735	7.65381
0.274	9.26514
0.2745	11.48071
0.275	6.2439
0.2755	5.94177
0.276	6.74744
0.2765	15.50903
0.277	14.50195
0.2775	14.70337
0.278	14.30054
0.2785	10.0708
0.279	8.56018
0.2795	5.53894
0.28	2.92053
0.2805	1.51062
0.281	1.10779
0.2815	-0.20142
0.282	5.13611
0.2825	10.37292
0.283	5.13611
0.2835	0.60425
0.284	4.12903
0.2845	8.35876
0.285	2.11487
0.2855	2.81982
0.286	6.54602
0.2865	1.51062
0.287	-0.50354
0.2875	-1.71204
0.288	3.7262
0.2885	6.04248
0.289	2.41699
0.2895	3.52478
0.29	2.31628
0.2905	4.83398
0.291	3.22266
0.2915	1.3092
0.292	3.8269
0.2925	7.75452
0.293	7.45239
0.2935	6.04248
0.294	3.32336
0.2945	5.23682
0.295	7.65381
0.2955	5.23682
0.296	8.8623
0.2965	3.92761
0.297	8.25806
0.2975	5.74036
0.298	7.15027
0.2985	14.70337
0.299	4.83398
0.2995	8.66089
0.3	6.64673
0.3005	8.7616
0.301	5.53894
0.3015	10.27222
0.302	7.95593
0.3025	12.5885
0.303	9.36584
0.3035	8.96301
0.304	9.36584
0.3045	12.99133
0.305	10.87646
0.3055	15.40833
0.306	17.92603
0.3065	13.49487
0.307	14.90479
0.3075	8.35876
0.308	1.10779
0.3085	4.53186
0.309	7.04956
0.3095	9.36584
0.31	10.87646
0.3105	9.46655
0.311	9.97009
0.3115	8.66089
0.312	5.0354
0.3125	0.30212
0.313	2.01416
0.3135	-1.00708
0.314	-6.14319
0.3145	1.40991
0.315	1.81274
0.3155	0.30212
0.316	3.92761
0.3165	6.04248
0.317	10.47363
0.3175	12.89062
0.318	8.35876
0.3185	10.17151
0.319	5.74036
0.3195	5.13611
0.32	-2.21558
0.3205	0.60425
0.321	10.57434
0.3215	3.52478
0.322	0.70496
0.3225	4.22974
0.323	1.51062
0.3235	3.22266
0.324	3.62549
0.3245	3.22266
0.325	2.71912
0.3255	3.12195
0.326	1.40991
0.3265	-0.50354
0.327	0.40283
0.3275	1.61133
0.328	0.90637
0.3285	3.02124
0.329	5.84106
0.3295	4.02832
0.33	7.04956
0.3305	3.42407
0.331	2.21558
0.3315	3.12195
0.332	6.04248
0.3325	5.74036
0.333	3.22266
0.3335	-2.92053
0.334	-4.83398
0.3345	3.52478
0.335	3.52478
0.3355	2.92053
0.336	5.13611
0.3365	5.74036
0.337	3.92761
0.3375	8.05664
0.338	9.16443
0.3385	8.35876
0.339	6.04248
0.3395	8.35876
0.34	5.63965
0.3405	3.02124
0.341	11.07788
0.3415	6.14319
0.342	9.46655
0.3425	8.7616
0.343	10.57434
0.3435	7.35168
0.344	6.64673
0.3445	9.36584
0.345	12.28638
0.3455	8.25806
0.346	5.13611
0.3465	-1.61133
0.347	3.42407
0.3475	1.2085
0.348	2.71912
0.3485	7.04956
0.349	9.06372
0.3495	4.73328
0.35	5.43823
0.3505	6.14319
0.351	5.43823
0.3515	2.92053
0.352	4.93469
0.3525	3.12195
0.353	0
0.3535	4.02832
0.354	4.53186
0.3545	6.84814
0.355	10.67505
0.3555	6.84814
0.356	14.80408
0.3565	13.29346
0.357	13.99841
0.3575	10.87646
0.358	6.3446
0.3585	8.35876
0.359	8.15735
0.3595	4.43115
0.36	6.84814
0.3605	3.22266
0.361	4.93469
0.3615	9.66797
0.362	10.37292
0.3625	4.93469
0.363	1.2085
0.3635	3.22266
0.364	3.7262
0.3645	4.43115
0.365	2.01416
0.3655	2.81982
0.366	2.21558
0.3665	3.8269
0.367	1.00708
0.3675	2.21558
0.368	0.60425
0.3685	2.41699
0.369	-1.00708
0.3695	3.52478
0.37	3.62549
0.3705	1.91345
0.371	0.30212
0.3715	1.00708
0.372	7.15027
0.3725	2.71912
0.373	7.25098
0.3735	3.7262
0.374	1.3092
0.3745	2.5177
0.375	-1.61133
0.3755	-2.71912
0.376	-1.00708
0.3765	-2.31628
0.377	-8.45947
0.3775	-6.84814
0.378	-5.74036
0.3785	-5.0354
0.379	0.90637
0.3795	0.30212
0.38	2.61841
0.3805	0.10071
0.381	4.53186
0.3815	2.71912
0.382	1.2085
0.3825	8.15735
0.383	5.74036
0.3835	-2.5177
0.384	-1.3092
0.3845	-0.70496
0.385	2.71912
0.3855	-0.20142
0.386	3.02124
0.3865	7.15027
0.387	5.74036
0.3875	5.74036
0.388	2.31628
0.3885	5.43823
0.389	4.43115
0.3895	6.94885
0.39	6.2439
0.3905	9.76868
0.391	10.67505
0.3915	5.74036
0.392	14.50195
0.3925	9.86938
0.393	10.0708
0.3935	9.46655
0.394	11.98425
0.3945	8.15735
0.395	12.28638
0.3955	7.25098
0.396	10.0708
0.3965	14.19983
0.397	9.16443
0.3975	8.05664
0.398	7.95593
0.3985	12.68921
0.399	6.84814
0.3995	2.31628
0.4	5.33752
0.4005	8.56018
0.401	13.69629
0.4015	13.69629
0.402	14.50195
0.4025	7.04956
0.403	13.89771
0.4035	12.08496
0.404	10.47363
0.4045	7.75452
0.405	13.19275
0.4055	10.67505
0.406	12.18567
0.4065	11.17859
0.407	11.98425
0.4075	10.17151
0.408	11.38
0.4085	7.5531
0.409	9.66797
0.4095	9.66797
0.41	7.45239
0.4105	8.7616
0.411	3.42407
0.4115	0
0.412	3.42407
0.4125	2.31628
0.413	-0.20142
0.4135	2.31628
0.414	0.60425
0.4145	1.71204
0.415	3.62549
0.4155	5.23682
0.416	1.10779
0.4165	5.53894
0.417	11.78284
0.4175	8.8623
0.418	9.16443
0.4185	11.58142
0.419	11.58142
0.4195	7.65381
0.42	2.92053
0.4205	4.12903
0.421	7.04956
0.4215	9.86938
0.422	8.7616
0.4225	9.66797
0.423	4.93469
0.4235	9.56726
0.424	8.56018
0.4245	7.04956
0.425	2.61841
0.4255	9.16443
0.426	3.62549
0.4265	5.84106
0.427	2.71912
0.4275	4.22974
0.428	1.10779
0.4285	3.02124
0.429	4.22974
0.4295	4.12903
0.43	3.52478
0.4305	3.8269
0.431	3.62549
0.4315	-2.31628
0.432	3.52478
0.4325	2.41699
0.433	6.84814
0.4335	6.54602
0.434	1.51062
0.4345	8.8623
0.435	4.53186
0.4355	10.37292
0.436	1.00708
0.4365	3.8269
0.437	6.94885
0.4375	5.43823
0.438	8.05664
0.4385	4.53186
0.439	6.44531
0.4395	10.67505
0.44	7.65381
0.4405	10.37292
0.441	4.53186
0.4415	7.04956
0.442	6.2439
0.4425	12.38708
0.443	13.99841
0.4435	7.04956
0.444	1.91345
0.4445	6.74744
0.445	9.06372
0.4455	8.66089
0.446	11.48071
0.4465	8.8623
0.447	14.30054
0.4475	12.48779
0.448	14.80408
0.4485	13.09204
0.449	7.95593
0.4495	11.07788
0.45	14.80408
0.4505	11.07788
0.451	7.25098
0.4515	2.71912
0.452	-1.61133
0.4525	-7.45239
0.453	-2.41699
0.4535	-3.7262
0.454	2.31628
0.4545	0.10071
0.455	0.80566
0.4555	3.8269
0.456	4.53186
0.4565	0.70496
0.457	6.54602
0.4575	8.56018
0.458	2.71912
0.4585	5.84106
0.459	11.07788
0.4595	7.15027
0.46	1.61133
0.4605	4.33044
0.461	6.74744
0.4615	6.54602
0.462	11.68213
0.4625	5.53894
0.463	7.65381
0.4635	6.44531
0.464	5.13611
0.4645	5.53894
0.465	4.12903
0.4655	11.78284
0.466	6.44531
0.4665	6.74744
0.467	5.84106
0.4675	7.35168
0.468	5.33752
0.4685	-0.90637
0.469	-2.01416
0.4695	-4.22974
0.47	-4.12903
0.4705	-8.25806
0.471	-3.22266
0.4715	0.20142
0.472	5.43823
0.4725	3.62549
0.473	8.25806
0.4735	1.40991
0.474	0.10071
0.4745	2.81982
0.475	0
0.4755	0.30212
0.476	2.41699
0.4765	2.92053
0.477	-1.61133
0.4775	7.5531
0.478	3.92761
0.4785	4.33044
0.479	4.43115
0.4795	4.53186
0.48	5.23682
0.4805	1.3092
0.481	6.04248
0.4815	11.48071
0.482	4.93469
0.4825	4.12903
0.483	2.01416
0.4835	1.40991
0.484	0.30212
0.4845	-1.3092
0.485	1.51062
0.4855	1.40991
0.486	1.71204
0.4865	7.85522
0.487	5.33752
0.4875	0.50354
0.488	6.44531
0.4885	2.31628
0.489	7.85522
0.4895	7.75452
0.49	6.04248
0.4905	5.33752
0.491	3.32336
0.4915	9.66797
0.492	5.0354
0.4925	4.02832
0.493	8.7616
0.4935	6.94885
0.494	5.23682
0.4945	6.04248
0.495	9.76868
0.4955	9.97009
0.496	15.00549
0.4965	9.66797
0.497	6.84814
0.4975	6.54602
0.498	8.15735
0.4985	9.86938
0.499	10.0708
0.4995	7.85522
0.5	11.88354
0.5005	12.28638
0.501	11.38
0.5015	14.19983
0.502	8.35876
0.5025	11.88354
0.503	13.19275
0.5035	16.41541
0.504	14.19983
0.5045	17.72461
0.505	12.68921
0.5055	17.72461
0.506	20.04089
0.5065	19.43665
0.507	15.60974
0.5075	10.57434
0.508	7.35168
0.5085	12.5885
0.509	12.78992
0.5095	13.19275
0.51	16.41541
0.5105	12.38708
0.511	1.10779
0.5115	-2.31628
0.512	1.61133
0.5125	-4.43115
0.513	-6.3446
0.5135	-10.0708
0.514	-4.93469
0.5145	-6.84814
0.515	-5.33752
0.5155	-3.12195
0.516	-10.57434
0.5165	-3.22266
0.517	-6.04248
0.5175	-2.21558
0.518	-4.63257
0.5185	-4.02832
0.519	-7.25098
0.5195	-2.5177
0.52	-2.92053
0.5205	-6.14319
0.521	-5.33752
0.5215	-3.02124
0.522	-3.62549
0.5225	0.40283
0.523	1.10779
0.5235	3.32336
0.524	1.61133
0.5245	7.25098
0.525	-1.00708
0.5255	0
0.526	0.20142
0.5265	1.2085
0.527	4.63257
0.5275	0.30212
0.528	-0.80566
0.5285	-0.10071
0.529	1.00708
0.5295	-1.61133
0.53	0.50354
0.5305	1.3092
0.531	10.0708
0.5315	5.74036
0.532	11.58142
0.5325	8.25806
0.533	8.8623
0.5335	11.98425
0.534	13.09204
0.5345	9.26514
0.535	7.15027
0.5355	10.87646
0.536	6.04248
0.5365	12.28638
0.537	10.67505
0.5375	6.54602
0.538	7.04956
0.5385	7.85522
0.539	9.36584
0.5395	12.18567
0.54	9.46655
0.5405	2.41699
0.541	12.89062
0.5415	11.58142
0.542	14.19983
0.5425	9.76868
0.543	10.27222
0.5435	9.36584
0.544	12.89062
0.5445	13.19275
0.545	12.38708
0.5455	8.15735
0.546	9.26514
0.5465	7.5531
0.547	14.09912
0.5475	15.71045
0.548	12.48779
0.5485	10.27222
0.549	8.96301
0.5495	10.87646
0.55	12.89062
0.5505	10.77576
0.551	8.96301
0.5515	7.15027
0.552	7.75452
0.5525	3.62549
0.553	4.93469
0.5535	3.52478
0.554	-0.90637
0.5545	6.64673
0.555	5.84106
0.5555	1.10779
0.556	4.63257
0.5565	-0.30212
0.557	3.12195
0.5575	3.92761
0.558	2.01416
0.5585	3.8269
0.559	2.92053
0.5595	1.2085
0.56	0.60425
0.5605	5.13611
0.561	0.80566
0.5615	2.71912
0.562	4.43115
0.5625	7.04956
0.563	6.44531
0.5635	4.63257
0.564	7.15027
0.5645	13.09204
0.565	8.96301
0.5655	6.94885
0.566	11.58142
0.5665	13.29346
0.567	13.797
0.5675	11.48071
0.568	7.5531
0.5685	2.81982
0.569	4.33044
0.5695	5.23682
0.57	5.13611
0.5705	0.50354
0.571	0.60425
0.5715	0.80566
0.572	5.43823
0.5725	0.80566
0.573	2.01416
0.5735	5.84106
0.574	4.43115
0.5745	7.75452
0.575	6.14319
0.5755	1.2085
0.576	9.26514
0.5765	8.7616
0.577	15.50903
0.5775	15.60974
0.578	8.56018
0.5785	8.05664
0.579	11.58142
0.5795	7.85522
0.58	9.86938
0.5805	12.48779
0.581	14.19983
0.5815	10.77576
0.582	8.7616
0.5825	10.67505
0.583	11.98425
0.5835	16.01257
0.584	19.73877
0.5845	12.68921
0.585	15.91187
0.5855	22.76001
0.586	24.06921
0.5865	22.35718
0.587	21.55151
0.5875	17.22107
0.588	19.03381
0.5885	18.93311
0.589	17.6239
0.5895	13.29346
0.59	12.68921
0.5905	11.38
0.591	12.18567
0.5915	21.04797
0.592	14.60266
0.5925	7.85522
0.593	9.66797
0.5935	9.56726
0.594	4.02832
0.5945	-1.00708
0.595	2.01416
0.5955	3.42407
0.596	1.81274
0.5965	-0.90637
0.597	-4.43115
0.5975	1.91345
0.598	-3.7262
0.5985	-0.70496
0.599	3.62549
0.5995	-0.60425
0.6	4.83398
0.6005	1.51062
0.601	-2.21558
0.6015	-2.92053
0.602	-2.01416
0.6025	-3.12195
0.603	5.43823
0.6035	5.74036
0.604	-0.20142
0.6045	5.74036
0.605	10.27222
0.6055	6.14319
0.606	0.90637
0.6065	-1.51062
0.607	2.92053
0.6075	2.71912
0.608	0.10071
0.6085	-0.90637
0.609	-0.60425
0.6095	7.5531
0.61	11.2793
0.6105	6.84814
0.611	1.91345
0.6115	1.71204
0.612	8.96301
0.6125	5.53894
0.613	5.63965
0.6135	2.31628
0.614	6.74744
0.6145	8.96301
0.615	9.26514
0.6155	5.43823
0.616	3.7262
0.6165	4.63257
0.617	5.43823
0.6175	-0.30212
0.618	3.32336
0.6185	-2.71912
0.619	-3.12195
0.6195	4.83398
0.62	3.92761
0.6205	2.92053
0.621	-0.50354
0.6215	6.04248
0.622	12.5885
0.6225	8.05664
0.623	7.75452
0.6235	11.78284
0.624	9.26514
0.6245	5.94177
0.625	6.94885
0.6255	6.44531
0.626	6.64673
0.6265	3.32336
0.627	-0.80566
0.6275	2.81982
0.628	2.61841
0.6285	5.94177
0.629	0.80566
0.6295	8.05664
0.63	5.33752
0.6305	4.73328
0.631	4.53186
0.6315	6.3446
0.632	5.63965
0.6325	11.68213
0.633	10.37292
0.6335	7.25098
0.634	1.51062
0.6345	-2.21558
0.635	0.50354
0.6355	-2.71912
0.636	-1.40991
0.6365	3.02124
0.637	3.8269
0.6375	1.3092
0.638	-2.92053
0.6385	-0.20142
0.639	2.21558
0.6395	4.22974
0.64	1.3092
0.6405	-1.91345
0.641	-1.00708
0.6415	0.90637
0.642	-3.22266
0.6425	-1.40991
0.643	0
0.6435	0.70496
0.644	2.21558
0.6445	2.5177
0.645	3.92761
0.6455	2.11487
0.646	4.33044
0.6465	10.47363
0.647	7.25098
0.6475	11.78284
0.648	8.96301
0.6485	8.45947
0.649	2.81982
0.6495	3.32336
0.65	5.94177
0.6505	6.94885
0.651	2.41699
0.6515	1.10779
0.652	5.63965
0.6525	10.17151
0.653	-0.30212
0.6535	2.01416
0.654	3.32336
0.6545	4.12903
0.655	3.42407
0.6555	3.92761
0.656	6.2439
0.6565	7.85522
0.657	8.25806
0.6575	10.47363
0.658	9.86938
0.6585	8.8623
0.659	9.36584
0.6595	9.76868
0.66	7.95593
0.6605	6.94885
0.661	4.83398
0.6615	15.81116
0.662	7.75452
0.6625	11.78284
0.663	8.8623
0.6635	5.84106
0.664	5.74036
0.6645	-0.60425
0.665	3.02124
0.6655	3.52478
0.666	4.53186
0.6665	4.43115
0.667	9.06372
0.6675	9.26514
0.668	2.31628
0.6685	3.22266
0.669	0.30212
0.6695	5.23682
0.67	8.45947
0.6705	5.84106
0.671	2.01416
0.6715	10.37292
0.672	9.56726
0.6725	4.73328
0.673	2.81982
0.6735	4.43115
0.674	9.97009
0.6745	8.25806
0.675	7.65381
0.6755	2.81982
0.676	2.81982
0.6765	5.33752
0.677	-1.3092
0.6775	4.33044
0.678	0.80566
0.6785	-0.20142
0.679	0.40283
0.6795	2.31628
0.68	6.44531
0.6805	11.2793
0.681	7.35168
0.6815	13.89771
0.682	7.95593
0.6825	6.54602
0.683	5.84106
0.6835	1.51062
0.684	4.02832
0.6845	4.43115
0.685	9.16443
0.6855	5.84106
0.686	9.97009
0.6865	14.19983
0.687	10.47363
0.6875	2.21558
0.688	0.70496
0.6885	1.91345
0.689	3.32336
0.6895	2.11487
0.69	2.92053
0.6905	7.25098
0.691	10.0708
0.6915	9.16443
0.692	7.25098
0.6925	6.14319
0.693	4.43115
0.6935	5.0354
0.694	4.63257
0.6945	1.91345
0.695	-0.40283
0.6955	-1.00708
0.696	4.22974
0.6965	3.7262
0.697	6.94885
0.6975	3.42407
0.698	7.25098
0.6985	9.76868
0.699	6.3446
0.6995	7.75452
0.7	9.36584
0.7005	7.85522
0.701	8.05664
0.7015	11.88354
0.702	5.13611
0.7025	7.45239
0.703	5.63965
0.7035	10.37292
0.704	4.83398
0.7045	5.94177
0.705	10.0708
0.7055	5.23682
0.706	5.13611
0.7065	4.33044
0.707	3.12195
0.7075	3.42407
0.708	-0.10071
0.7085	-2.61841
0.709	2.81982
0.7095	2.5177
0.71	4.33044
0.7105	0.70496
0.711	-0.20142
0.7115	2.01416
0.712	5.23682
0.7125	5.94177
0.713	3.22266
0.7135	0.40283
0.714	4.53186
0.7145	4.12903
0.715	4.63257
0.7155	5.43823
0.716	7.75452
0.7165	3.42407
0.717	6.04248
0.7175	7.15027
0.718	5.43823
0.7185	2.01416
0.719	-2.71912
0.7195	-2.71912
0.72	-1.2085
0.7205	2.41699
0.721	1.3092
0.7215	2.41699
0.722	1.91345
0.7225	7.35168
0.723	6.74744
0.7235	7.04956
0.724	4.53186
0.7245	-0.70496
0.725	-0.50354
0.7255	3.22266
0.726	-1.40991
0.7265	1.3092
0.727	2.61841
0.7275	5.33752
0.728	3.92761
0.7285	4.02832
0.729	1.51062
0.7295	0.90637
0.73	2.71912
0.7305	4.73328
0.731	1.2085
0.7315	3.12195
0.732	12.38708
0.7325	5.23682
0.733	5.74036
0.7335	11.17859
0.734	12.28638
0.7345	15.71045
0.735	17.42249
0.7355	16.61682
0.736	14.30054
0.7365	12.78992
0.737	15.1062
0.7375	16.01257
0.738	9.86938
0.7385	13.49487
0.739	4.02832
0.7395	2.31628
0.74	4.63257
0.7405	-0.30212
0.741	-8.66089
0.7415	-8.25806
0.742	-5.43823
0.7425	-9.36584
0.743	-6.04248
0.7435	-6.14319
0.744	1.91345
0.7445	-0.90637
0.745	3.8269
0.7455	7.65381
0.746	2.01416
0.7465	5.94177
0.747	1.3092
0.7475	-0.70496
0.748	2.81982
0.7485	-3.22266
0.749	3.22266
0.7495	6.3446
0.75	2.61841
0.7505	2.81982
0.751	-3.7262
0.7515	1.51062
0.752	2.31628
0.7525	1.10779
0.753	3.8269
0.7535	4.63257
0.754	7.85522
0.7545	1.71204
0.755	3.62549
0.7555	2.92053
0.756	1.10779
0.7565	1.00708
0.757	2.81982
0.7575	4.73328
0.758	4.22974
0.7585	4.63257
0.759	7.25098
0.7595	10.37292
0.76	6.84814
0.7605	3.32336
0.761	4.43115
0.7615	6.04248
0.762	6.64673
0.7625	10.27222
0.763	8.35876
0.7635	7.15027
0.764	8.8623
0.7645	2.41699
0.765	4.73328
0.7655	4.63257
0.766	-2.11487
0.7665	4.93469
0.767	0.60425
0.7675	2.5177
0.768	1.71204
0.7685	7.15027
0.769	8.15735
0.7695	7.04956
0.77	6.2439
0.7705	4.93469
0.771	2.61841
0.7715	3.42407
0.772	5.53894
0.7725	6.74744
0.773	6.94885
0.7735	7.95593
0.774	3.52478
0.7745	6.14319
0.775	1.81274
0.7755	6.74744
0.776	6.74744
0.7765	5.74036
0.777	7.75452
0.7775	4.33044
0.778	5.74036
0.7785	10.27222
0.779	10.0708
0.7795	10.87646
0.78	5.43823
0.7805	5.74036
0.781	8.15735
0.7815	5.53894
0.782	11.68213
0.7825	9.66797
0.783	3.32336
0.7835	3.8269
0.784	5.74036
0.7845	3.32336
0.785	4.12903
0.7855	3.7262
0.786	6.84814
0.7865	5.23682
0.787	8.66089
0.7875	6.84814
0.788	4.93469
0.7885	3.32336
0.789	7.5531
0.7895	6.14319
0.79	13.69629
0.7905	12.38708
0.791	15.91187
0.7915	11.48071
0.792	12.68921
0.7925	10.97717
0.793	11.07788
0.7935	16.21399
0.794	12.28638
0.7945	7.85522
0.795	6.2439
0.7955	5.23682
0.796	6.14319
0.7965	0.50354
0.797	2.71912
0.7975	0.50354
0.798	-0.70496
0.7985	0.60425
0.799	0.60425
0.7995	3.02124
0.8	-1.2085
0.8005	-4.22974
0.801	-3.62549
0.8015	2.71912
0.802	-5.23682
0.8025	-1.40991
0.803	-1.91345
0.8035	0
0.804	8.7616
0.8045	4.12903
0.805	6.44531
0.8055	4.93469
0.806	3.32336
0.8065	5.43823
0.807	3.12195
0.8075	2.5177
0.808	5.74036
0.8085	9.36584
0.809	3.7262
0.8095	8.45947
0.81	5.84106
0.8105	8.05664
0.811	5.0354
0.8115	2.41699
0.812	2.41699
0.8125	0.10071
0.813	-2.21558
0.8135	2.01416
0.814	-3.22266
0.8145	2.01416
0.815	10.77576
0.8155	18.32886
0.816	18.73169
0.8165	18.22815
0.817	26.68762
0.8175	33.53577
0.818	31.21948
0.8185	29.91028
0.819	31.21948
0.8195	31.82373
0.82	30.81665
0.8205	34.03931
0.821	28.70178
0.8215	26.98975
0.822	27.29187
0.8225	25.68054
0.823	24.27063
0.8235	26.18408
0.824	25.57983
0.8245	24.57275
0.825	19.43665
0.8255	20.74585
0.826	14.70337
0.8265	17.72461
0.827	19.43665
0.8275	21.75293
0.828	22.96143
0.8285	10.77576
0.829	6.84814
0.8295	8.8623
0.83	6.04248
0.8305	4.73328
0.831	5.33752
0.8315	-0.30212
0.832	-1.81274
0.8325	-5.13611
0.833	-11.17859
0.8335	-18.73169
0.834	-20.34302
0.8345	-15.81116
0.835	-14.80408
0.8355	-16.91895
0.836	-14.90479
0.8365	-19.23523
0.837	-20.04089
0.8375	-22.96143
0.838	-17.92603
0.8385	-14.80408
0.839	-14.50195
0.8395	-12.28638
0.84	-13.19275
0.8405	-9.66797
0.841	-10.37292
0.8415	-9.66797
0.842	-13.39417
0.8425	-8.8623
0.843	-12.89062
0.8435	-15.50903
0.844	-14.80408
0.8445	-11.78284
0.845	-16.61682
0.8455	-16.21399
0.846	-15.20691
0.8465	-15.91187
0.847	-19.53735
0.8475	-9.56726
0.848	-6.2439
0.8485	-4.33044
0.849	-11.17859
0.8495	-2.61841
0.85	-3.42407
0.8505	2.41699
0.851	0.20142
0.8515	3.02124
0.852	8.45947
0.8525	11.68213
0.853	7.95593
0.8535	11.68213
0.854	6.3446
0.8545	9.56726
0.855	10.67505
0.8555	7.85522
0.856	6.3446
0.8565	1.40991
0.857	0.70496
0.8575	-6.04248
0.858	1.40991
0.8585	5.74036
0.859	1.40991
0.8595	8.45947
0.86	12.08496
0.8605	9.56726
0.861	14.40125
0.8615	10.47363
0.862	7.75452
0.8625	10.37292
0.863	7.95593
0.8635	5.63965
0.864	8.96301
0.8645	5.74036
0.865	4.93469
0.8655	8.25806
0.866	10.67505
0.8665	13.29346
0.867	12.5885
0.8675	5.23682
0.868	7.45239
0.8685	10.47363
0.869	13.39417
0.8695	9.97009
0.87	15.20691
0.8705	13.49487
0.871	14.50195
0.8715	13.99841
0.872	8.35876
0.8725	5.84106
0.873	7.04956
0.8735	5.23682
0.874	10.77576
0.8745	8.15735
0.875	4.02832
0.8755	7.65381
0.876	9.16443
0.8765	8.96301
0.877	9.46655
0.8775	12.5885
0.878	18.8324
0.8785	16.61682
0.879	19.53735
0.8795	11.2793
0.88	7.35168
0.8805	13.89771
0.881	15.40833
0.8815	11.58142
0.882	8.05664
0.8825	10.17151
0.883	11.88354
0.8835	7.25098
0.884	1.51062
0.8845	2.61841
0.885	1.81274
0.8855	-7.35168
0.886	-7.95593
0.8865	-2.92053
0.887	-4.33044
0.8875	-3.42407
0.888	-0.50354
0.8885	-0.30212
0.889	4.22974
0.8895	0.80566
0.89	2.21558
0.8905	4.12903
0.891	6.44531
0.8915	6.54602
0.892	10.77576
0.8925	13.29346
0.893	10.77576
0.8935	9.76868
0.894	4.93469
0.8945	3.8269
0.895	4.22974
0.8955	3.32336
0.896	8.15735
0.8965	0.40283
0.897	6.74744
0.8975	4.83398
0.898	4.63257
0.8985	5.33752
0.899	2.81982
0.8995	4.43115
0.9	0.70496
0.9005	5.13611
0.901	-0.70496
0.9015	3.12195
0.902	2.41699
0.9025	2.92053
0.903	5.0354
0.9035	1.81274
0.904	2.81982
0.9045	6.3446
0.905	3.12195
0.9055	7.35168
0.906	0.50354
0.9065	8.66089
0.907	9.46655
0.9075	10.47363
0.908	6.84814
0.9085	7.15027
0.909	9.06372
0.9095	6.44531
0.91	6.54602
0.9105	7.65381
0.911	2.92053
0.9115	8.96301
0.912	3.7262
0.9125	5.23682
0.913	8.15735
0.9135	13.49487
0.914	9.36584
0.9145	12.08496
0.915	7.65381
0.9155	9.86938
0.916	7.5531
0.9165	9.56726
0.917	3.12195
0.9175	5.53894
0.918	6.84814
0.9185	10.17151
0.919	8.35876
0.9195	8.35876
0.92	6.64673
0.9205	1.51062
0.921	5.33752
0.9215	8.7616
0.922	9.97009
0.9225	9.76868
0.923	10.0708
0.9235	4.83398
0.924	6.44531
0.9245	3.32336
0.925	3.22266
0.9255	4.63257
0.926	0.60425
0.9265	-5.74036
0.927	-1.71204
0.9275	4.43115
0.928	5.43823
0.9285	0.10071
0.929	-0.50354
0.9295	3.52478
0.93	5.23682
0.9305	9.86938
0.931	-1.61133
0.9315	2.5177
0.932	5.63965
0.9325	10.77576
0.933	9.46655
0.9335	7.25098
0.934	5.94177
0.9345	4.63257
0.935	4.22974
0.9355	4.53186
0.936	8.35876
0.9365	10.17151
0.937	9.56726
0.9375	1.10779
0.938	2.81982
0.9385	-0.60425
0.939	5.94177
0.9395	-1.3092
0.94	-1.10779
0.9405	2.61841
0.941	6.84814
0.9415	2.01416
0.942	9.86938
0.9425	12.38708
0.943	11.68213
0.9435	9.66797
0.944	11.2793
0.9445	13.19275
0.945	16.51611
0.9455	12.68921
0.946	10.77576
0.9465	8.8623
0.947	9.26514
0.9475	10.97717
0.948	4.53186
0.9485	-1.2085
0.949	2.5177
0.9495	3.32336
0.95	3.62549
0.9505	-1.2085
0.951	-0.40283
0.9515	2.81982
0.952	0.70496
0.9525	2.81982
0.953	3.7262
0.9535	1.00708
0.954	4.93469
0.9545	4.12903
0.955	3.12195
0.9555	3.32336
0.956	6.2439
0.9565	7.15027
0.957	6.14319
0.9575	4.22974
0.958	6.54602
0.9585	1.61133
0.959	1.71204
0.9595	7.85522
0.96	3.7262
0.9605	0.90637
0.961	3.22266
0.9615	2.41699
0.962	4.93469
0.9625	4.63257
0.963	5.43823
0.9635	8.8623
0.964	8.56018
0.9645	6.14319
0.965	9.26514
0.9655	3.42407
0.966	5.13611
0.9665	4.53186
0.967	4.33044
0.9675	5.53894
0.968	4.63257
0.9685	5.13611
0.969	5.43823
0.9695	4.83398
0.97	8.8623
0.9705	6.64673
0.971	0.40283
0.9715	0
0.972	6.14319
0.9725	3.22266
0.973	-2.61841
0.9735	4.73328
0.974	11.98425
0.9745	10.67505
0.975	13.89771
0.9755	17.22107
0.976	15.50903
0.9765	14.50195
0.977	15.30762
0.9775	13.89771
0.978	11.88354
0.9785	14.60266
0.979	19.94019
0.9795	17.22107
0.98	14.50195
0.9805	8.25806
0.981	10.47363
0.9815	13.49487
0.982	11.38
0.9825	10.47363
0.983	8.45947
0.9835	7.15027
0.984	2.11487
0.9845	4.63257
0.985	6.84814
0.9855	2.81982
0.986	-0.70496
0.9865	0.60425
0.987	1.40991
0.9875	-2.92053
0.988	-1.61133
0.9885	-9.26514
0.989	-10.77576
0.9895	-8.35876
0.99	-10.87646
0.9905	-12.99133
0.991	-12.89062
0.9915	-11.07788
0.992	-9.97009
0.9925	-13.797
0.993	-13.69629
0.9935	-12.99133
0.994	-9.76868
0.9945	-9.66797
0.995	-2.5177
0.9955	-3.52478
0.996	-2.11487
0.9965	-3.7262
0.997	1.51062
0.9975	0
0.998	5.43823
0.9985	5.0354
0.999	8.05664
0.9995	6.2439
1	9.36584
1.0005	9.86938
1.001	11.68213
1.0015	8.56018
1.002	10.87646
1.0025	12.5885
1.003	13.29346
1.0035	11.17859
1.004	9.26514
1.0045	4.22974
1.005	3.12195
1.0055	6.2439
1.006	9.06372
1.0065	8.35876
1.007	12.99133
1.0075	10.47363
1.008	12.89062
1.0085	12.78992
1.009	18.32886
1.0095	15.40833
1.01	13.99841
1.0105	16.61682
1.011	14.70337
1.0115	6.74744
1.012	11.38
1.0125	11.48071
1.013	7.85522
1.0135	8.25806
1.014	6.94885
1.0145	7.35168
1.015	6.04248
1.0155	2.41699
1.016	8.7616
1.0165	3.32336
1.017	1.81274
1.0175	2.41699
1.018	2.5177
1.0185	2.81982
1.019	4.73328
1.0195	-1.81274
1.02	4.53186
1.0205	-3.42407
1.021	2.5177
1.0215	3.8269
1.022	-1.71204
1.0225	1.61133
1.023	0
1.0235	4.83398
1.024	3.42407
1.0245	0.70496
1.025	1.3092
1.0255	1.81274
1.026	7.85522
1.0265	2.5177
1.027	4.33044
1.0275	1.51062
1.028	4.83398
1.0285	5.33752
1.029	5.0354
1.0295	4.53186
1.03	2.11487
1.0305	2.61841
1.031	2.21558
1.0315	3.32336
1.032	-0.50354
1.0325	0.30212
1.033	1.71204
1.0335	2.61841
1.034	-5.0354
1.0345	3.32336
1.035	7.95593
1.0355	6.74744
1.036	8.05664
1.0365	12.99133
1.037	14.70337
1.0375	15.71045
1.038	17.32178
1.0385	12.68921
1.039	6.54602
1.0395	5.23682
1.04	10.0708
1.0405	7.95593
1.041	3.22266
1.0415	3.02124
1.042	5.53894
1.0425	6.3446
1.043	9.26514
1.0435	7.75452
1.044	3.8269
1.0445	-2.41699
1.045	2.21558
1.0455	0
1.046	5.43823
1.0465	7.35168
1.047	3.62549
1.0475	10.57434
1.048	6.54602
1.0485	3.8269
1.049	5.33752
1.0495	11.78284
1.05	7.5531
1.0505	15.91187
1.051	13.39417
1.0515	14.30054
1.052	14.40125
1.0525	11.68213
1.053	10.27222
1.0535	11.48071
1.054	8.96301
1.0545	13.09204
1.055	11.68213
1.0555	8.25806
1.056	9.76868
1.0565	8.45947
1.057	2.11487
1.0575	8.35876
1.058	0.60425
1.0585	5.74036
1.059	6.3446
1.0595	8.8623
1.06	-1.00708
1.0605	3.12195
1.061	5.53894
1.0615	1.71204
1.062	5.74036
1.0625	1.71204
1.063	3.62549
1.0635	1.3092
1.064	6.94885
1.0645	6.84814
1.065	6.2439
1.0655	5.0354
1.066	6.94885
1.0665	9.06372
1.067	7.85522
1.0675	13.49487
1.068	15.30762
1.0685	12.28638
1.069	13.49487
1.0695	11.2793
1.07	3.22266
1.0705	1.10779
1.071	8.25806
1.0715	9.86938
1.072	6.04248
1.0725	3.52478
1.073	6.3446
1.0735	-0.70496
1.074	3.52478
1.0745	10.87646
1.075	11.2793
1.0755	11.88354
1.076	10.37292
1.0765	11.17859
1.077	10.37292
1.0775	8.56018
1.078	9.46655
1.0785	10.77576
1.079	8.25806
1.0795	4.43115
1.08	11.07788
1.0805	4.83398
1.081	5.23682
1.0815	5.74036
1.082	5.13611
1.0825	3.8269
1.083	5.33752
1.0835	5.13611
1.084	1.3092
1.0845	1.71204
1.085	6.54602
1.0855	4.83398
1.086	2.21558
1.0865	2.61841
1.087	3.7262
1.0875	2.01416
1.088	3.7262
1.0885	6.64673
1.089	1.61133
1.0895	0.90637
1.09	4.12903
1.0905	6.94885
1.091	4.93469
1.0915	12.78992
1.092	11.17859
1.0925	15.30762
1.093	17.82532
1.0935	16.71753
1.094	23.8678
1.0945	25.57983
1.095	26.58691
1.0955	20.74585
1.096	22.6593
1.0965	21.24939
1.097	17.82532
1.0975	13.89771
1.098	18.02673
1.0985	17.6239
1.099	20.04089
1.0995	13.49487
1.1	11.78284
1.1005	7.15027
1.101	8.35876
1.1015	1.91345
1.102	-1.00708
1.1025	-0.30212
1.103	-2.41699
1.1035	-1.71204
1.104	1.3092
1.1045	1.51062
1.105	0.80566
1.1055	3.12195
1.106	2.41699
1.1065	4.43115
1.107	3.42407
1.1075	0.90637
1.108	-0.80566
1.1085	-12.48779
1.109	-7.25098
1.1095	-4.33044
1.11	-5.74036
1.1105	-10.0708
1.111	-4.73328
1.1115	-0.90637
1.112	-8.35876
1.1125	-7.75452
1.113	-7.75452
1.1135	1.51062
1.114	1.61133
1.1145	-1.3092
1.115	-2.41699
1.1155	0.10071
1.116	-0.40283
1.1165	5.33752
1.117	1.00708
1.1175	0.20142
1.118	-2.61841
1.1185	-3.32336
1.119	0.10071
1.1195	0.50354
1.12	-1.10779
1.1205	1.2085
1.121	-2.92053
1.1215	-4.02832
1.122	1.91345
1.1225	3.22266
1.123	9.86938
1.1235	10.17151
1.124	7.5531
1.1245	9.26514
1.125	4.22974
1.1255	11.98425
1.126	13.49487
1.1265	11.17859
1.127	6.14319
1.1275	10.0708
1.128	7.04956
1.1285	4.83398
1.129	8.15735
1.1295	15.30762
1.13	12.28638
1.1305	1.51062
1.131	8.56018
1.1315	8.35876
1.132	5.33752
1.1325	0.70496
1.133	3.52478
1.1335	9.36584
1.134	4.22974
1.1345	1.2085
1.135	6.14319
1.1355	6.64673
1.136	12.68921
1.1365	8.35876
1.137	7.45239
1.1375	7.75452
1.138	5.53894
1.1385	1.71204
1.139	4.33044
1.1395	3.92761
1.14	4.93469
1.1405	1.61133
1.141	3.52478
1.1415	0.40283
1.142	0.60425
1.1425	3.02124
1.143	4.12903
1.1435	7.5531
1.144	4.83398
1.1445	2.31628
1.145	3.12195
1.1455	3.32336
1.146	9.76868
1.1465	5.33752
1.147	8.7616
1.1475	10.37292
1.148	7.5531
1.1485	8.35876
1.149	9.86938
1.1495	6.94885
1.15	5.74036
1.1505	9.36584
1.151	8.56018
1.1515	7.35168
1.152	7.95593
1.1525	7.35168
1.153	7.85522
1.1535	9.46655
1.154	16.21399
1.1545	17.42249
1.155	20.1416
1.1555	15.40833
1.156	5.74036
1.1565	10.27222
1.157	11.2793
1.1575	15.81116
1.158	8.15735
1.1585	8.05664
1.159	9.36584
1.1595	12.28638
1.16	13.69629
1.1605	13.29346
1.161	16.71753
1.1615	22.96143
1.162	15.40833
1.1625	16.61682
1.163	18.63098
1.1635	12.89062
1.164	13.29346
1.1645	8.56018
1.165	7.65381
1.1655	1.00708
1.166	5.63965
1.1665	6.04248
1.167	7.95593
1.1675	1.10779
1.168	1.91345
1.1685	1.61133
1.169	1.71204
1.1695	-3.22266
1.17	0.50354
1.1705	-0.40283
1.171	1.10779
1.1715	2.01416
1.172	3.22266
1.1725	2.41699
1.173	2.01416
1.1735	-0.60425
1.174	1.61133
1.1745	3.52478
1.175	3.8269
1.1755	3.32336
1.176	3.12195
1.1765	5.13611
1.177	-0.80566
1.1775	-2.21558
1.178	-3.7262
1.1785	0.80566
1.179	-5.13611
1.1795	0.50354
1.18	2.71912
1.1805	-1.00708
1.181	-1.10779
1.1815	-0.60425
1.182	2.92053
1.1825	-1.40991
1.183	-6.04248
1.1835	0.20142
1.184	3.02124
1.1845	3.52478
1.185	9.97009
1.1855	10.17151
1.186	14.19983
1.1865	21.95435
1.187	31.01807
1.1875	37.56409
1.188	46.22498
1.1885	53.07312
1.189	69.28711
1.1895	73.21472
1.19	76.43738
1.1905	86.00464
1.191	93.35632
1.1915	104.3335
1.192	113.69934
1.1925	109.4696
1.193	107.55615
1.1935	86.70959
1.194	66.76941
1.1945	48.44055
1.195	30.51453
1.1955	15.71045
1.196	-2.61841
1.1965	-23.56567
1.197	-45.2179
1.1975	-60.72693
1.198	-73.21472
1.1985	-85.5011
1.199	-86.10535
1.1995	-91.14075
1.2	-91.44287
1.2005	-85.60181
1.201	-90.83862
1.2015	-88.62305
1.202	-75.63171
1.2025	-75.22888
1.203	-67.17224
1.2035	-59.51843
1.204	-39.37683
1.2045	-30.51453
1.205	-28.29895
1.2055	-9.86938
1.206	-0.60425
1.2065	8.15735
1.207	10.97717
1.2075	13.49487
1.208	25.78125
1.2085	38.67188
1.209	62.03613
1.2095	86.60889
1.21	104.23279
1.2105	113.1958
1.211	117.32483
1.2115	114.90784
1.212	111.9873
1.2125	106.04553
1.213	94.16199
1.2135	79.86145
1.214	60.4248
1.2145	45.11719
1.215	31.4209
1.2155	15.00549
1.216	8.56018
1.2165	-0.80566
1.217	13.09204
1.2175	45.2179
1.218	86.50818
1.2185	115.20996
1.219	127.29492
1.2195	139.27917
1.22	155.9967
1.2205	168.68591
1.221	193.86292
1.2215	220.95337
1.222	239.68506
1.2225	246.13037
1.223	235.55603
1.2235	213.90381
1.224	184.69849
1.2245	136.35864
1.225	83.08411
1.2255	37.06055
1.226	-11.38
1.2265	-51.46179
1.227	-100.30518
1.2275	-153.57971
1.228	-202.4231
1.2285	-249.25232
1.229	-285.60791
1.2295	-313.60474
1.23	-330.32227
1.2305	-335.86121
1.231	-334.35059
1.2315	-324.17908
1.232	-305.34668
1.2325	-272.51587
1.233	-228.70789
1.2335	-177.74963
1.234	-126.58997
1.2345	-79.76074
1.235	-43.80798
1.2355	-23.8678
1.236	-5.53894
1.2365	17.32178
1.237	30.41382
1.2375	32.62939
1.238	30.41382
1.2385	23.8678
1.239	12.18567
1.2395	4.93469
1.24	8.35876
1.2405	9.36584
1.241	15.20691
1.2415	22.6593
1.242	54.58374
1.2425	100.00305
1.243	136.56006
1.2435	171.50574
1.244	193.86292
1.2445	198.89832
1.245	195.67566
1.2455	192.35229
1.246	176.0376
1.2465	167.88025
1.247	162.54272
1.2475	189.02893
1.248	215.91797
1.2485	238.57727
1.249	238.9801
1.2495	216.72363
1.25	187.01477
1.2505	147.1344
1.251	109.57031
1.2515	63.94958
1.252	18.53027
1.2525	-26.3855
1.253	-79.45862
1.2535	-133.84094
1.254	-182.58362
1.2545	-220.44983
1.255	-264.55994
1.2555	-292.95959
1.256	-301.21765
1.2565	-307.86438
1.257	-307.46155
1.2575	-288.93127
1.258	-271.10596
1.2585	-254.69055
1.259	-231.22559
1.2595	-205.54504
1.26	-172.00928
1.2605	-143.4082
1.261	-123.97156
1.2615	-122.36023
1.262	-107.35474
1.2625	-93.85986
1.263	-85.80322
1.2635	-83.68835
1.264	-81.37207
1.2645	-63.44604
1.265	-51.66321
1.2655	-30.2124
1.266	-0.90637
1.2665	25.07629
1.267	44.41223
1.2675	61.83472
1.268	78.35083
1.2685	87.81738
1.269	94.56482
1.2695	104.4342
1.27	117.42554
1.2705	114.90784
1.271	105.54199
1.2715	102.52075
1.272	110.87952
1.2725	107.35474
1.273	100.00305
1.2735	88.0188
1.274	93.65845
1.2745	91.94641
1.275	80.86853
1.2755	85.60181
1.276	80.26428
1.2765	74.82605
1.277	68.28003
1.2775	49.95117
1.278	28.50037
1.2785	7.35168
1.279	-13.39417
1.2795	-42.29736
1.28	-64.35242
1.2805	-81.27136
1.281	-96.47827
1.2815	-100.90942
1.282	-110.07385
1.2825	-106.64978
1.283	-107.95898
1.2835	-99.70093
1.284	-89.63013
1.2845	-83.68835
1.285	-70.79773
1.2855	-51.46179
1.286	-43.50586
1.2865	-37.16125
1.287	-32.7301
1.2875	-19.73877
1.288	-1.2085
1.2885	14.40125
1.289	25.47913
1.2895	34.54285
1.29	42.49878
1.2905	56.39648
1.291	84.59473
1.2915	117.02271
1.292	130.8197
1.2925	143.10608
1.293	156.39954
1.2935	156.70166
1.294	153.27759
1.2945	157.00378
1.295	151.16272
1.2955	161.93848
1.296	158.11157
1.2965	144.51599
1.297	133.43811
1.2975	113.09509
1.298	90.63721
1.2985	64.85596
1.299	53.47595
1.2995	33.53577
1.3	15.00549
1.3005	-12.48779
1.301	-34.34143
1.3015	-43.70728
1.302	-49.74976
1.3025	-48.44055
1.303	-52.771
1.3035	-60.82764
1.304	-61.33118
1.3045	-61.43188
1.305	-70.89844
1.3055	-76.03455
1.306	-79.15649
1.3065	-78.95508
1.307	-72.9126
1.3075	-60.4248
1.308	-42.29736
1.3085	-26.78833
1.309	-16.81824
1.3095	-3.62549
1.31	4.63257
1.3105	7.15027
1.311	4.02832
1.3115	4.83398
1.312	6.44531
1.3125	-5.84106
1.313	-11.48071
1.3135	-26.48621
1.314	-43.70728
1.3145	-57.10144
1.315	-70.29419
1.3155	-74.42322
1.316	-61.93542
1.3165	-48.94409
1.317	-36.75842
1.3175	-10.87646
1.318	20.34302
1.3185	47.93701
1.319	76.7395
1.3195	94.46411
1.32	115.41138
1.3205	129.91333
1.321	163.34839
1.3215	185.70557
1.322	192.25159
1.3225	191.84875
1.323	191.64734
1.3235	181.87866
1.324	157.10449
1.3245	126.28784
1.325	96.07544
1.3255	63.24463
1.326	33.63647
1.3265	1.3092
1.327	-30.2124
1.3275	-56.79932
1.328	-64.55383
1.3285	-64.65454
1.329	-34.74426
1.3295	-14.40125
1.33	-3.62549
1.3305	-1.61133
1.331	5.33752
1.3315	-1.71204
1.332	-7.65381
1.3325	-12.5885
1.333	-21.75293
1.3335	-40.98816
1.334	-50.75684
1.3345	-66.76941
1.335	-73.41614
1.3355	-92.14783
1.336	-102.62146
1.3365	-111.8866
1.337	-117.82837
1.3375	-123.06519
1.338	-123.56873
1.3385	-118.43262
1.339	-110.37598
1.3395	-110.07385
1.34	-100.40588
1.3405	-95.26978
1.341	-93.45703
1.3415	-80.96924
1.342	-56.69861
1.3425	-19.94019
1.343	5.43823
1.3435	15.20691
1.344	22.96143
1.3445	40.1825
1.345	46.42639
1.3455	54.68445
1.346	77.04163
1.3465	82.78198
1.347	90.93933
1.3475	97.78748
1.348	102.42004
1.3485	112.08801
1.349	112.28943
1.3495	105.03845
1.35	87.81738
1.3505	61.83472
1.351	50.05188
1.3515	50.15259
1.352	45.11719
1.3525	46.92993
1.353	45.92285
1.3535	46.62781
1.354	53.07312
1.3545	73.61755
1.355	93.15491
1.3555	94.56482
1.356	81.57349
1.3565	64.05029
1.357	50.65613
1.3575	25.07629
1.358	7.04956
1.3585	-9.86938
1.359	-30.41382
1.3595	-49.54834
1.36	-64.75525
1.3605	-86.00464
1.361	-99.09668
1.3615	-101.01013
1.362	-105.34058
1.3625	-102.72217
1.363	-99.60022
1.3635	-99.19739
1.364	-90.13367
1.3645	-77.74658
1.365	-66.97083
1.3655	-51.26038
1.366	-39.67896
1.3665	-34.64355
1.367	-26.98975
1.3675	-17.01965
1.368	-1.81274
1.3685	-3.7262
1.369	-0.80566
1.3695	1.10779
1.37	4.63257
1.3705	13.59558
1.371	5.84106
1.3715	-3.12195
1.372	-6.74744
1.3725	-17.6239
1.373	-23.96851
1.3735	-36.35559
1.374	-46.62781
1.3745	-58.10852
1.375	-62.33826
1.3755	-74.32251
1.376	-75.73242
1.3765	-74.82605
1.377	-77.44446
1.3775	-69.28711
1.378	-36.15417
1.3785	-3.62549
1.379	16.61682
1.3795	32.62939
1.38	46.5271
1.3805	57.30286
1.381	59.82056
1.3815	61.53259
1.382	68.48145
1.3825	81.37207
1.383	78.25012
1.3835	68.38074
1.384	51.36108
1.3845	39.07471
1.385	22.25647
1.3855	11.98425
1.386	0.80566
1.3865	-5.63965
1.387	-17.92603
1.3875	-21.45081
1.388	-23.76709
1.3885	-21.45081
1.389	-31.32019
1.3895	-38.87329
1.39	-36.55701
1.3905	-37.46338
1.391	-35.65063
1.3915	-38.67188
1.392	-34.64355
1.3925	-27.19116
1.393	-18.12744
1.3935	-17.32178
1.394	-14.80408
1.3945	-11.78284
1.395	-12.78992
1.3955	-1.10779
1.396	4.53186
1.3965	5.43823
1.397	4.22974
1.3975	3.52478
1.398	-0.60425
1.3985	-6.44531
1.399	-6.3446
1.3995	-5.33752
1.4	-5.94177
1.4005	-3.7262
1.401	7.85522
1.4015	14.19983
1.402	29.70886
1.4025	53.57666
1.403	74.42322
1.4035	91.14075
1.404	104.73633
1.4045	102.82288
1.405	100.50659
1.4055	93.75916
1.406	86.20605
1.4065	74.92676
1.407	63.24463
1.4075	46.62781
1.408	40.68604
1.4085	34.84497
1.409	30.11169
1.4095	26.3855
1.41	27.19116
1.4105	27.29187
1.411	22.45789
1.4115	20.84656
1.412	23.36426
1.4125	21.55151
1.413	32.12585
1.4135	42.59949
1.414	46.5271
1.4145	53.27454
1.415	60.3241
1.4155	55.99365
1.416	48.44055
1.4165	47.03064
1.417	47.13135
1.4175	42.59949
1.418	43.00232
1.4185	36.95984
1.419	26.28479
1.4195	18.73169
1.42	14.70337
1.4205	9.97009
1.421	-4.33044
1.4215	-12.48779
1.422	-18.8324
1.4225	-24.16992
1.423	-27.6947
1.4235	-28.19824
1.424	-37.16125
1.4245	-39.98108
1.425	-28.50037
1.4255	-15.50903
1.426	-12.28638
1.4265	-17.12036
1.427	-10.17151
1.4275	-2.71912
1.428	8.35876
1.4285	17.52319
1.429	27.79541
1.4295	29.00391
1.43	27.79541
1.4305	26.18408
1.431	23.8678
1.4315	10.37292
1.432	4.22974
1.4325	0.90637
1.433	-0.20142
1.4335	-8.25806
1.434	-16.01257
1.4345	-15.1062
1.435	-8.8623
1.4355	5.23682
1.436	9.66797
1.4365	20.84656
1.437	16.71753
1.4375	12.5885
1.438	1.40991
1.4385	-5.33752
1.439	-12.38708
1.4395	-16.61682
1.44	-27.99683
1.4405	-38.06763
1.441	-50.15259
1.4415	-46.42639
1.442	-47.7356
1.4425	-46.42639
1.443	-39.07471
1.4435	-28.50037
1.444	-15.20691
1.4445	2.11487
1.445	14.90479
1.4455	17.52319
1.446	24.87488
1.4465	35.65063
1.447	51.46179
1.4475	52.67029
1.448	57.00073
1.4485	88.92517
1.449	116.72058
1.4495	138.87634
1.45	140.68909
1.4505	145.9259
1.451	143.10608
1.4515	117.62695
1.452	99.90234
1.4525	73.61755
1.453	44.11011
1.4535	9.97009
1.454	-15.40833
1.4545	-47.63489
1.455	-65.66162
1.4555	-75.53101
1.456	-78.65295
1.4565	-66.87012
1.457	-47.53418
1.4575	-19.83948
1.458	-1.61133
1.4585	16.01257
1.459	27.99683
1.4595	22.45789
1.46	17.12036
1.4605	19.83948
1.461	24.27063
1.4615	23.36426
1.462	13.69629
1.4625	9.56726
1.463	9.36584
1.4635	-1.3092
1.464	-19.73877
1.4645	-25.177
1.465	-30.91736
1.4655	-29.00391
1.466	-25.177
1.4665	-30.61523
1.467	-34.24072
1.4675	-40.48462
1.468	-36.95984
1.4685	-21.65222
1.469	-11.58142
1.4695	-1.10779
1.47	2.71912
1.4705	4.93469
1.471	4.12903
1.4715	-5.33752
1.472	-4.43115
1.4725	-7.15027
1.473	-4.73328
1.4735	-7.04956
1.474	-12.48779
1.4745	-11.98425
1.475	-16.01257
1.4755	-16.91895
1.476	-4.43115
1.4765	5.74036
1.477	14.50195
1.4775	22.25647
1.478	27.79541
1.4785	30.41382
1.479	33.73718
1.4795	53.57666
1.48	80.66711
1.4805	103.82996
1.481	109.26819
1.4815	101.61438
1.482	96.67969
1.4825	92.34924
1.483	82.58057
1.4835	61.53259
1.484	38.36975
1.4845	18.12744
1.485	-8.45947
1.4855	-19.53735
1.486	-40.68604
1.4865	-48.54126
1.487	-54.38232
1.4875	-57.40356
1.488	-59.1156
1.4885	-53.47595
1.489	-48.74268
1.4895	-47.13135
1.49	-37.66479
1.4905	-32.32727
1.491	-29.50745
1.4915	-39.47754
1.492	-48.54126
1.4925	-51.36108
1.493	-43.30444
1.4935	-34.84497
1.494	-20.44373
1.4945	-4.63257
1.495	1.3092
1.4955	6.44531
1.496	14.09912
1.4965	18.93311
1.497	19.23523
1.4975	16.21399
1.498	14.09912
1.4985	20.84656
1.499	34.34143
1.4995	45.3186
1.5	49.44763
1.5005	54.78516
1.501	61.43188
1.5015	70.09277
1.502	80.56641
1.5025	76.94092
1.503	66.56799
1.5035	56.69861
1.504	51.46179
1.5045	49.54834
1.505	59.51843
1.5055	58.30994
1.506	47.43347
1.5065	34.14001
1.507	23.96851
1.5075	7.75452
1.508	4.73328
1.5085	-7.5531
1.509	-23.66638
1.5095	-31.62231
1.51	-38.974
1.5105	-36.05347
1.511	-19.83948
1.5115	-6.44531
1.512	8.56018
1.5125	46.72852
1.513	74.42322
1.5135	85.5011
1.514	100.20447
1.5145	126.9928
1.515	154.38538
1.5155	157.40662
1.516	138.57422
1.5165	109.77173
1.517	104.83704
1.5175	85.60181
1.518	50.354
1.5185	13.69629
1.519	-23.26355
1.5195	-53.47595
1.52	-81.37207
1.5205	-107.65686
1.521	-124.97864
1.5215	-137.76855
1.522	-146.63086
1.5225	-148.64502
1.523	-122.86377
1.5235	-91.64429
1.524	-71.30127
1.5245	-57.10144
1.525	-36.65771
1.5255	-20.24231
1.526	-8.66089
1.5265	-7.35168
1.527	3.52478
1.5275	2.11487
1.528	7.65381
1.5285	25.27771
1.529	40.38391
1.5295	39.47754
1.53	36.15417
1.5305	38.36975
1.531	41.08887
1.5315	39.77966
1.532	34.64355
1.5325	42.59949
1.533	51.15967
1.5335	50.55542
1.534	31.32019
1.5345	16.81824
1.535	-2.21558
1.5355	-12.99133
1.536	-7.65381
1.5365	22.76001
1.537	43.40515
1.5375	51.36108
1.538	52.26746
1.5385	71.20056
1.539	92.75208
1.5395	81.7749
1.54	75.02747
1.5405	62.43896
1.541	52.67029
1.5415	21.14868
1.542	-4.02832
1.5425	-25.07629
1.543	-41.29028
1.5435	-49.0448
1.544	-24.97559
1.5445	26.28479
1.545	50.75684
1.5455	62.33826
1.546	74.02039
1.5465	96.7804
1.547	127.59705
1.5475	148.3429
1.548	133.23669
1.5485	107.35474
1.549	78.04871
1.5495	42.59949
1.55	9.66797
1.5505	-24.27063
1.551	-56.19507
1.5515	-80.56641
1.552	-90.13367
1.5525	-92.75208
1.553	-83.48694
1.5535	-81.27136
1.554	-74.52393
1.5545	-70.3949
1.555	-64.95667
1.5555	-75.4303
1.556	-75.63171
1.5565	-69.68994
1.557	-64.75525
1.5575	-51.5625
1.558	-30.51453
1.5585	-17.72461
1.559	-18.32886
1.5595	-13.69629
1.56	-6.74744
1.5605	4.63257
1.561	13.19275
1.5615	21.45081
1.562	22.55859
1.5625	29.40674
1.563	22.55859
1.5635	17.12036
1.564	15.60974
1.5645	5.84106
1.565	0.30212
1.5655	-0.90637
1.566	0.90637
1.5665	20.94727
1.567	28.39966
1.5675	24.16992
1.568	16.3147
1.5685	16.81824
1.569	13.89771
1.5695	36.05347
1.57	69.08569
1.5705	81.57349
1.571	78.45154
1.5715	99.09668
1.572	97.98889
1.5725	77.948
1.573	56.69861
1.5735	29.10461
1.574	8.96301
1.5745	-9.86938
1.575	-31.4209
1.5755	-44.11011
1.576	-54.58374
1.5765	-55.59082
1.577	-67.67578
1.5775	-66.76941
1.578	-54.68445
1.5785	-51.5625
1.579	-47.63489
1.5795	-36.85913
1.58	-32.12585
1.5805	-31.62231
1.581	-29.50745
1.5815	-26.48621
1.582	-17.6239
1.5825	-11.07788
1.583	2.21558
1.5835	6.04248
1.584	0.40283
1.5845	2.81982
1.585	14.19983
1.5855	22.86072
1.586	30.51453
1.5865	31.21948
1.587	25.37842
1.5875	21.04797
1.588	27.19116
1.5885	26.28479
1.589	14.80408
1.5895	12.5885
1.59	10.0708
1.5905	20.04089
1.591	32.02515
1.5915	55.2887
1.592	86.91101
1.5925	101.31226
1.593	129.00696
1.5935	155.09033
1.594	182.08008
1.5945	185.30273
1.595	161.0321
1.5955	130.21545
1.596	96.7804
1.5965	58.41064
1.597	24.47205
1.5975	-3.8269
1.598	-32.42798
1.5985	-62.64038
1.599	-89.52942
1.5995	-105.23987
1.6	-120.34607
1.6005	-102.21863
1.601	-61.6333
1.6015	-22.86072
1.602	-4.53186
1.6025	9.97009
1.603	10.17151
1.6035	5.23682
1.604	-6.2439
1.6045	-29.91028
1.605	-57.60498
1.6055	-65.15808
1.606	-75.32959
1.6065	-80.76782
1.607	-79.15649
1.6075	-82.68127
1.608	-77.64587
1.6085	-75.02747
1.609	-60.82764
1.6095	-52.46887
1.61	-46.62781
1.6105	-39.98108
1.611	-29.10461
1.6115	-22.6593
1.612	-17.92603
1.6125	-9.16443
1.613	-6.04248
1.6135	-2.61841
1.614	9.36584
1.6145	13.69629
1.615	20.1416
1.6155	21.04797
1.616	42.90161
1.6165	61.33118
1.617	72.61047
1.6175	78.65295
1.618	76.63879
1.6185	60.52551
1.619	47.33276
1.6195	37.66479
1.62	30.81665
1.6205	28.09753
1.621	36.65771
1.6215	47.63489
1.622	78.95508
1.6225	118.33191
1.623	121.55457
1.6235	110.47668
1.624	87.91809
1.6245	52.67029
1.625	36.15417
1.6255	22.55859
1.626	7.85522
1.6265	-14.19983
1.627	-31.11877
1.6275	-40.98816
1.628	-47.33276
1.6285	-46.62781
1.629	-39.88037
1.6295	-23.76709
1.63	15.81116
1.6305	75.93384
1.631	124.07227
1.6315	131.12183
1.632	119.94324
1.6325	90.33508
1.633	45.11719
1.6335	5.0354
1.634	-38.47046
1.6345	-71.90552
1.635	-94.66553
1.6355	-106.14624
1.636	-110.77881
1.6365	-110.27527
1.637	-109.77173
1.6375	-104.23279
1.638	-91.34216
1.6385	-69.58923
1.639	-31.82373
1.6395	14.40125
1.64	43.30444
1.6405	55.08728
1.641	49.85046
1.6415	41.59241
1.642	35.65063
1.6425	37.86621
1.643	73.41614
1.6435	95.97473
1.644	110.27527
1.6445	125.38147
1.645	121.9574
1.6455	103.62854
1.646	69.68994
1.6465	36.25488
1.647	20.44373
1.6475	0.10071
1.648	-4.22974
1.6485	1.2085
1.649	11.68213
1.6495	7.5531
1.65	-14.40125
1.6505	-41.89453
1.651	-68.38074
1.6515	-87.21313
1.652	-97.88818
1.6525	-100.6073
1.653	-106.14624
1.6535	-114.505
1.654	-118.63403
1.6545	-106.14624
1.655	-94.2627
1.6555	-80.16357
1.656	-61.73401
1.6565	-38.26904
1.657	5.53894
1.6575	52.36816
1.658	73.21472
1.6585	72.00623
1.659	65.76233
1.6595	49.54834
1.66	32.42798
1.6605	23.96851
1.661	14.40125
1.6615	11.78284
1.662	22.6593
1.6625	54.28162
1.663	71.60339
1.6635	84.69543
1.664	79.45862
1.6645	71.80481
1.665	60.72693
1.6655	41.59241
1.666	30.61523
1.6665	17.12036
1.667	13.29346
1.6675	9.76868
1.668	9.56726
1.6685	15.71045
1.669	10.27222
1.6695	6.94885
1.67	6.84814
1.6705	30.11169
1.671	44.11011
1.6715	42.90161
1.672	35.44922
1.6725	18.63098
1.673	-1.81274
1.6735	-7.04956
1.674	-2.41699
1.6745	-4.83398
1.675	-11.2793
1.6755	-6.3446
1.676	-1.3092
1.6765	-21.3501
1.677	-27.09045
1.6775	-31.82373
1.678	-16.21399
1.6785	-6.94885
1.679	-3.22266
1.6795	-5.94177
1.68	-5.13611
1.6805	6.14319
1.681	7.65381
1.6815	5.53894
1.682	-1.10779
1.6825	34.84497
1.683	66.56799
1.6835	114.70642
1.684	144.41528
1.6845	148.4436
1.685	108.1604
1.6855	71.60339
1.686	21.24939
1.6865	-33.03223
1.687	-86.10535
1.6875	-124.97864
1.688	-151.46484
1.6885	-173.21777
1.689	-173.01636
1.6895	-157.91016
1.69	-140.58838
1.6905	-121.25244
1.691	-98.19031
1.6915	-69.28711
1.692	-33.23364
1.6925	-25.27771
1.693	-8.56018
1.6935	4.93469
1.694	37.96692
1.6945	79.45862
1.695	119.33899
1.6955	145.22095
1.696	148.94714
1.6965	132.12891
1.697	120.54749
1.6975	93.15491
1.698	96.98181
1.6985	128.90625
1.699	145.9259
1.6995	131.42395
1.7	82.68127
1.7005	30.2124
1.701	-28.19824
1.7015	-67.57507
1.702	-104.13208
1.7025	-126.79138
1.703	-137.36572
1.7035	-136.45935
1.704	-124.37439
1.7045	-107.75757
1.705	-86.50818
1.7055	-75.53101
1.706	-65.05737
1.7065	-29.91028
1.707	0.20142
1.7075	45.92285
1.708	68.68286
1.7085	64.25171
1.709	42.49878
1.7095	15.40833
1.71	-15.81116
1.7105	-42.29736
1.711	-60.52551
1.7115	-62.03613
1.712	-48.54126
1.7125	-33.63647
1.713	-16.11328
1.7135	-9.86938
1.714	-7.65381
1.7145	0.40283
1.715	9.86938
1.7155	21.04797
1.716	29.91028
1.7165	42.49878
1.717	54.58374
1.7175	53.27454
1.718	41.08887
1.7185	35.54993
1.719	27.09045
1.7195	41.4917
1.72	58.51135
1.7205	73.61755
1.721	75.63171
1.7215	64.151
1.722	49.54834
1.7225	37.16125
1.723	23.16284
1.7235	12.08496
1.724	3.7262
1.7245	-7.35168
1.725	-13.89771
1.7255	-21.3501
1.726	-18.02673
1.7265	-18.63098
1.727	-22.6593
1.7275	-14.70337
1.728	-11.48071
1.7285	-3.12195
1.729	7.04956
1.7295	17.01965
1.73	22.6593
1.7305	21.85364
1.731	11.2793
1.7315	8.15735
1.732	2.71912
1.7325	5.13611
1.733	8.05664
1.7335	6.44531
1.734	5.0354
1.7345	4.43115
1.735	9.76868
1.7355	4.43115
1.736	-3.12195
1.7365	-7.15027
1.737	-4.83398
1.7375	-3.52478
1.738	0.40283
1.7385	-7.35168
1.739	2.41699
1.7395	21.14868
1.74	37.36267
1.7405	44.21082
1.741	44.91577
1.7415	40.38391
1.742	34.54285
1.7425	23.66638
1.743	28.70178
1.7435	28.50037
1.744	18.32886
1.7445	15.1062
1.745	12.38708
1.7455	-0.30212
1.746	-15.30762
1.7465	-27.39258
1.747	-42.29736
1.7475	-49.74976
1.748	-51.15967
1.7485	-51.26038
1.749	-39.27612
1.7495	-37.46338
1.75	-26.08337
1.7505	-19.83948
1.751	-12.48779
1.7515	3.52478
1.752	6.54602
1.7525	13.89771
1.753	7.25098
1.7535	2.41699
1.754	-1.91345
1.7545	-4.22974
1.755	-2.11487
1.7555	16.61682
1.756	16.3147
1.7565	10.27222
1.757	15.1062
1.7575	35.54993
1.758	59.92126
1.7585	71.40198
1.759	90.63721
1.7595	110.6781
1.76	121.35315
1.7605	112.89368
1.761	78.75366
1.7615	29.30603
1.762	-10.0708
1.7625	-41.79382
1.763	-65.05737
1.7635	-40.38391
1.764	-12.18567
1.7645	15.30762
1.765	58.51135
1.7655	89.63013
1.766	89.328
1.7665	69.89136
1.767	44.71436
1.7675	1.91345
1.768	-39.88037
1.7685	-60.02197
1.769	-82.88269
1.7695	-103.125
1.77	-123.2666
1.7705	-116.72058
1.771	-97.98889
1.7715	-67.07153
1.772	-29.70886
1.7725	-3.7262
1.773	-0.10071
1.7735	-9.16443
1.774	-14.90479
1.7745	-13.09204
1.775	-12.78992
1.7755	-9.86938
1.776	-10.17151
1.7765	-0.90637
1.777	16.3147
1.7775	34.44214
1.778	42.8009
1.7785	37.7655
1.779	22.96143
1.7795	8.7616
1.78	9.36584
1.7805	4.33044
1.781	0.80566
1.7815	12.18567
1.782	18.02673
1.7825	24.47205
1.783	22.6593
1.7835	14.40125
1.784	16.3147
1.7845	7.25098
1.785	-5.13611
1.7855	2.5177
1.786	11.88354
1.7865	35.44922
1.787	48.13843
1.7875	50.75684
1.788	48.44055
1.7885	45.11719
1.789	42.8009
1.7895	51.26038
1.79	48.33984
1.7905	34.03931
1.791	24.06921
1.7915	20.54443
1.792	11.68213
1.7925	3.92761
1.793	-13.29346
1.7935	-13.49487
1.794	-9.56726
1.7945	-4.33044
1.795	5.94177
1.7955	6.64673
1.796	12.38708
1.7965	-1.71204
1.797	-3.7262
1.7975	-2.01416
1.798	6.2439
1.7985	5.63965
1.799	19.33594
1.7995	32.83081
1.8	47.93701
1.8005	57.50427
1.801	54.28162
1.8015	49.0448
1.802	29.70886
1.8025	7.04956
1.803	-15.50903
1.8035	-16.01257
1.804	18.42957
1.8045	50.85754
1.805	59.61914
1.8055	55.3894
1.806	28.9032
1.8065	3.7262
1.807	-23.26355
1.8075	-33.13293
1.808	-54.0802
1.8085	-59.21631
1.809	-70.99915
1.8095	-78.04871
1.81	-81.7749
1.8105	-78.14941
1.811	-72.71118
1.8115	-62.74109
1.812	-51.76392
1.8125	-39.17542
1.813	-30.01099
1.8135	-25.88196
1.814	-20.94727
1.8145	-17.72461
1.815	-36.55701
1.8155	-90.43579
1.816	-36.55701
1.8165	-9.06372
1.817	0.80566
1.8175	7.95593
1.818	6.3446
1.8185	18.22815
1.819	33.83789
1.8195	45.72144
1.82	52.46887
1.8205	53.67737
1.821	71.80481
1.8215	65.25879
1.822	61.83472
1.8225	51.05896
1.823	39.27612
1.8235	26.68762
1.824	38.47046
1.8245	32.83081
1.825	17.32178
1.8255	11.88354
1.826	-7.45239
1.8265	-16.91895
1.827	-21.04797
1.8275	-24.16992
1.828	-19.43665
1.8285	-2.21558
1.829	2.11487
1.8295	6.74744
1.83	11.2793
1.8305	21.75293
1.831	31.4209
1.8315	36.65771
1.832	36.85913
1.8325	43.70728
1.833	41.59241
1.8335	38.47046
1.834	36.05347
1.8345	25.07629
1.835	10.87646
1.8355	-5.84106
1.836	-11.98425
1.8365	-9.06372
1.837	-4.02832
1.8375	1.40991
1.838	33.53577
1.8385	60.52551
1.839	68.58215
1.8395	50.45471
1.84	18.73169
1.8405	17.82532
1.841	27.89612
1.8415	17.82532
1.842	-0.70496
1.8425	-20.1416
1.843	-33.53577
1.8435	-48.13843
1.844	-62.43896
1.8445	-67.77649
1.845	-63.94958
1.8455	-54.0802
1.846	-36.05347
1.8465	-6.14319
1.847	15.40833
1.8475	24.27063
1.848	36.35559
1.8485	54.0802
1.849	60.72693
1.8495	58.20923
1.85	62.33826
1.8505	70.29419
1.851	73.91968
1.8515	53.37524
1.852	45.41931
1.8525	38.87329
1.853	20.74585
1.8535	17.82532
1.854	12.38708
1.8545	-0.70496
1.855	-7.5531
1.8555	-11.98425
1.856	-26.58691
1.8565	-26.98975
1.857	-36.65771
1.8575	-31.32019
1.858	-23.26355
1.8585	-24.16992
1.859	-21.45081
1.8595	-10.27222
1.86	-8.7616
1.8605	-0.80566
1.861	-2.81982
1.8615	-0.80566
1.862	-3.12195
1.8625	-4.12903
1.863	-5.23682
1.8635	-5.43823
1.864	-5.33752
1.8645	0.40283
1.865	-3.52478
1.8655	4.63257
1.866	-1.10779
1.8665	-2.92053
1.867	2.41699
1.8675	-3.32336
1.868	8.8623
1.8685	25.27771
1.869	36.85913
1.8695	29.40674
1.87	16.51611
1.8705	4.93469
1.871	1.81274
1.8715	3.22266
1.872	-3.02124
1.8725	-3.92761
1.873	-4.43115
1.8735	-7.75452
1.874	-16.11328
1.8745	-23.26355
1.875	-29.80957
1.8755	-33.23364
1.876	-39.27612
1.8765	-42.29736
1.877	-30.61523
1.8775	-26.68762
1.878	-26.98975
1.8785	-31.52161
1.879	-38.06763
1.8795	-37.56409
1.88	-46.62781
1.8805	-49.24622
1.881	-47.13135
1.8815	-44.61365
1.882	-44.91577
1.8825	-45.01648
1.883	-38.974
1.8835	-25.78125
1.884	-10.77576
1.8845	4.43115
1.885	18.8324
1.8855	27.39258
1.886	33.03223
1.8865	34.94568
1.887	23.06213
1.8875	21.24939
1.888	19.23523
1.8885	26.08337
1.889	27.19116
1.8895	30.31311
1.89	33.83789
1.8905	43.80798
1.891	46.02356
1.8915	37.06055
1.892	35.44922
1.8925	34.54285
1.893	33.83789
1.8935	38.16833
1.894	43.20374
1.8945	33.9386
1.895	26.48621
1.8955	19.83948
1.896	11.38
1.8965	4.43115
1.897	12.08496
1.8975	15.1062
1.898	6.14319
1.8985	2.31628
1.899	-12.89062
1.8995	-35.54993
1.9	-34.34143
1.9005	-17.22107
1.901	-3.52478
1.9015	38.06763
1.902	58.81348
1.9025	59.82056
1.903	41.18958
1.9035	2.81982
1.904	-31.62231
1.9045	-67.8772
1.905	-86.60889
1.9055	-93.75916
1.906	-84.2926
1.9065	-75.4303
1.907	-64.35242
1.9075	-40.68604
1.908	-17.52319
1.9085	-6.14319
1.909	3.92761
1.9095	2.41699
1.91	-6.44531
1.9105	-12.5885
1.911	9.66797
1.9115	28.09753
1.912	52.67029
1.9125	51.46179
1.913	48.03772
1.9135	46.12427
1.914	55.3894
1.9145	46.72852
1.915	39.98108
1.9155	31.82373
1.916	25.07629
1.9165	10.57434
1.917	6.3446
1.9175	16.41541
1.918	20.74585
1.9185	27.09045
1.919	42.29736
1.9195	44.41223
1.92	37.96692
1.9205	26.48621
1.921	7.5531
1.9215	26.3855
1.922	76.84021
1.9225	97.98889
1.923	62.33826
1.9235	19.03381
1.924	-18.42957
1.9245	-39.27612
1.925	-61.6333
1.9255	-74.02039
1.926	-88.82446
1.9265	-90.63721
1.927	-95.87402
1.9275	-98.79456
1.928	-87.81738
1.9285	-71.90552
1.929	-50.75684
1.9295	-26.3855
1.93	-11.2793
1.9305	-3.22266
1.931	2.61841
1.9315	1.81274
1.932	-0.30212
1.9325	0.80566
1.933	6.14319
1.9335	26.68762
1.934	48.54126
1.9345	61.83472
1.935	49.24622
1.9355	42.49878
1.936	23.96851
1.9365	-3.42407
1.937	-20.74585
1.9375	-22.15576
1.938	-35.2478
1.9385	-39.67896
1.939	-35.34851
1.9395	-35.14709
1.94	-34.14001
1.9405	-32.62939
1.941	-32.93152
1.9415	-26.08337
1.942	-30.61523
1.9425	-21.24939
1.943	-15.30762
1.9435	-8.96301
1.944	-14.30054
1.9445	-14.19983
1.945	-9.26514
1.9455	8.7616
1.946	23.46497
1.9465	43.90869
1.947	55.18799
1.9475	77.34375
1.948	105.34058
1.9485	111.18164
1.949	94.86694
1.9495	72.71118
1.95	54.48303
1.9505	37.26196
1.951	10.57434
1.9515	-6.74744
1.952	-21.24939
1.9525	-22.86072
1.953	-34.14001
1.9535	-39.27612
1.954	-36.15417
1.9545	-24.77417
1.955	-11.2793
1.9555	-1.2085
1.956	9.56726
1.9565	9.56726
1.957	13.39417
1.9575	5.84106
1.958	9.86938
1.9585	10.77576
1.959	8.7616
1.9595	1.81274
1.96	3.32336
1.9605	17.12036
1.961	23.06213
1.9615	19.13452
1.962	12.78992
1.9625	8.96301
1.963	-4.43115
1.9635	-2.92053
1.964	-0.20142
1.9645	-14.90479
1.965	-34.34143
1.9655	-55.69153
1.966	-80.86853
1.9665	-70.49561
1.967	-58.61206
1.9675	-62.23755
1.968	-60.72693
1.9685	-50.85754
1.969	-57.00073
1.9695	-67.77649
1.97	-75.32959
1.9705	-72.61047
1.971	-60.3241
1.9715	-26.78833
1.972	20.54443
1.9725	41.99524
1.973	64.85596
1.9735	82.47986
1.974	102.62146
1.9745	99.3988
1.975	96.7804
1.9755	101.11084
1.976	92.44995
1.9765	72.50977
1.977	62.74109
1.9775	60.92834
1.978	48.54126
1.9785	42.49878
1.979	51.36108
1.9795	62.33826
1.98	60.82764
1.9805	49.24622
1.981	23.06213
1.9815	7.75452
1.982	26.28479
1.9825	29.10461
1.983	13.49487
1.9835	-8.45947
1.984	-26.58691
1.9845	-44.71436
1.985	-52.16675
1.9855	-32.62939
1.986	-28.9032
1.9865	-38.36975
1.987	-55.3894
1.9875	-85.29968
1.988	-82.58057
1.9885	-79.45862
1.989	-81.7749
1.9895	-89.42871
1.99	-82.9834
1.9905	-66.56799
1.991	-35.14709
1.9915	-18.02673
1.992	-17.52319
1.9925	-16.01257
1.993	-31.21948
1.9935	-39.88037
1.994	-27.99683
1.9945	-9.06372
1.995	17.6239
1.9955	22.86072
1.996	22.76001
1.9965	23.36426
1.997	34.44214
1.9975	45.92285
1.998	54.58374
1.9985	67.97791
1.999	64.45312
1.9995	52.56958
2	43.30444
2.0005	33.43506
2.001	62.43896
2.0015	114.4043
2.002	122.05811
2.0025	107.65686
2.003	78.45154
2.0035	47.33276
2.004	5.13611
2.0045	-31.21948
2.005	-54.18091
2.0055	-63.14392
2.006	-76.94092
2.0065	-86.10535
2.007	-72.81189
2.0075	-53.17383
2.008	-22.76001
2.0085	-1.71204
2.009	12.08496
2.0095	15.00549
2.01	17.01965
2.0105	13.797
2.011	2.11487
2.0115	-19.63806
2.012	-31.72302
2.0125	-39.57825
2.013	-30.61523
2.0135	-28.09753
2.014	-26.48621
2.0145	-10.0708
2.015	5.94177
2.0155	14.60266
2.016	29.80957
2.0165	36.75842
2.017	56.29578
2.0175	65.25879
2.018	60.92834
2.0185	54.18091
2.019	49.0448
2.0195	42.49878
2.02	33.63647
2.0205	43.90869
2.021	77.64587
2.0215	110.07385
2.022	98.19031
2.0225	88.42163
2.023	70.89844
2.0235	40.2832
2.024	14.30054
2.0245	-5.84106
2.025	-8.05664
2.0255	1.3092
2.026	-3.12195
2.0265	4.53186
2.027	-1.51062
2.0275	20.74585
2.028	26.08337
2.0285	16.11328
2.029	6.2439
2.0295	-3.02124
2.03	-38.06763
2.0305	-58.61206
2.031	-74.92676
2.0315	-84.79614
2.032	-81.7749
2.0325	-44.81506
2.033	-20.54443
2.0335	-0.70496
2.034	11.38
2.0345	29.40674
2.035	23.96851
2.0355	15.20691
2.036	14.19983
2.0365	17.52319
2.037	-4.63257
2.0375	21.65222
2.038	80.56641
2.0385	93.45703
2.039	85.90393
2.0395	86.10535
2.04	58.20923
2.0405	18.32886
2.041	-32.02515
2.0415	-64.05029
2.042	-67.77649
2.0425	-40.38391
2.043	-32.93152
2.0435	-20.94727
2.044	-7.5531
2.0445	-5.43823
2.045	-28.50037
2.0455	-70.99915
2.046	-89.63013
2.0465	-91.24146
2.047	-82.47986
2.0475	-82.37915
2.048	-60.3241
2.0485	-43.90869
2.049	-41.08887
2.0495	-23.56567
2.05	-16.11328
2.0505	-18.02673
2.051	-21.85364
2.0515	-12.5885
2.052	0.50354
2.0525	10.27222
2.053	8.96301
2.0535	7.75452
2.054	10.67505
2.0545	13.39417
2.055	47.23206
2.0555	76.7395
2.056	88.32092
2.0565	95.47119
2.057	106.04553
2.0575	108.86536
2.058	99.80164
2.0585	89.93225
2.059	79.05579
2.0595	73.81897
2.06	66.87012
2.0605	57.8064
2.061	57.60498
2.0615	53.67737
2.062	42.19666
2.0625	57.8064
2.063	98.49243
2.0635	102.52075
2.064	72.71118
2.0645	26.98975
2.065	-16.41541
2.0655	-31.82373
2.066	-46.92993
2.0665	-49.0448
2.067	-38.06763
2.0675	-40.78674
2.068	-41.29028
2.0685	-35.54993
2.069	-31.32019
2.0695	29.91028
2.07	80.26428
2.0705	108.66394
2.071	89.83154
2.0715	124.97864
2.072	114.10217
2.0725	95.77332
2.073	87.21313
2.0735	51.36108
2.074	-4.53186
2.0745	-59.51843
2.075	-89.328
2.0755	-86.8103
2.076	-35.34851
2.0765	12.68921
2.077	3.52478
2.0775	-23.76709
2.078	-41.08887
2.0785	-48.44055
2.079	-78.14941
2.0795	-118.73474
2.08	-106.54907
2.0805	-96.67969
2.081	-93.85986
2.0815	-94.76624
2.082	-67.37366
2.0825	-59.61914
2.083	-48.03772
2.0835	-29.80957
2.084	-29.00391
2.0845	-40.58533
2.085	-53.87878
2.0855	-53.67737
2.086	-36.15417
2.0865	6.2439
2.087	29.20532
2.0875	14.50195
2.088	-2.01416
2.0885	-2.11487
2.089	1.40991
2.0895	-13.797
2.09	16.71753
2.0905	7.45239
2.091	-7.95593
2.0915	-2.81982
2.092	11.17859
2.0925	26.18408
2.093	34.24072
2.0935	24.27063
2.094	8.25806
2.0945	-13.29346
2.095	-59.51843
2.0955	-112.08801
2.096	-114.30359
2.0965	-47.8363
2.097	-10.0708
2.0975	2.61841
2.098	46.42639
2.0985	78.65295
2.099	80.26428
2.0995	58.30994
2.1	39.77966
2.1005	28.29895
2.101	25.98267
2.1015	39.07471
2.102	68.58215
2.1025	82.9834
2.103	95.37048
2.1035	179.66309
2.104	297.995
2.1045	344.52209
2.105	318.03589
2.1055	262.64648
2.106	202.92664
2.1065	149.45068
2.107	96.7804
2.1075	39.27612
2.108	52.8717
2.1085	26.18408
2.109	-25.68054
2.1095	-73.91968
2.11	-112.39014
2.1105	-145.62378
2.111	-196.07849
2.1115	-229.81567
2.112	-190.33813
2.1125	-112.39014
2.113	-83.48694
2.1135	-62.23755
2.114	-30.41382
2.1145	-23.56567
2.115	-18.12744
2.1155	-24.27063
2.116	-20.54443
2.1165	-22.86072
2.117	-16.91895
2.1175	-2.31628
2.118	-30.91736
2.1185	-43.50586
2.119	-24.16992
2.1195	-4.73328
2.12	-5.13611
2.1205	11.38
2.121	34.44214
2.1215	45.82214
2.122	33.13293
2.1225	23.06213
2.123	4.73328
2.1235	-0.70496
2.124	20.64514
2.1245	23.46497
2.125	6.54602
2.1255	-6.94885
2.126	-14.40125
2.1265	-20.44373
2.127	-20.24231
2.1275	-9.06372
2.128	-7.85522
2.1285	-11.38
2.129	-33.43506
2.1295	-5.84106
2.13	28.09753
2.1305	26.18408
2.131	4.22974
2.1315	-33.9386
2.132	-3.22266
2.1325	-26.28479
2.133	-83.99048
2.1335	-129.20837
2.134	-22.35718
2.1345	36.75842
2.135	38.57117
2.1355	-9.76868
2.136	-104.63562
2.1365	-115.7135
2.137	-99.60022
2.1375	-90.93933
2.138	-68.58215
2.1385	-52.771
2.139	-26.98975
2.1395	-20.64514
2.14	-28.50037
2.1405	-23.96851
2.141	30.51453
2.1415	52.36816
2.142	77.54517
2.1425	84.69543
2.143	103.125
2.1435	129.30908
2.144	151.76697
2.1445	142.70325
2.145	132.53174
2.1455	72.9126
2.146	4.33044
2.1465	-96.7804
2.147	-179.15955
2.1475	-190.13672
2.148	-171.40503
2.1485	-147.33582
2.149	-131.32324
2.1495	-111.48376
2.15	-73.01331
2.1505	-9.97009
2.151	52.771
2.1515	87.71667
2.152	87.91809
2.1525	100.40588
2.153	123.66943
2.1535	139.68201
2.154	127.69775
2.1545	118.73474
2.155	112.18872
2.1555	98.99597
2.156	105.13916
2.1565	128.60413
2.157	140.68909
2.1575	108.66394
2.158	69.68994
2.1585	91.745
2.159	78.75366
2.1595	4.33044
2.16	-37.16125
2.1605	-88.52234
2.161	-175.73547
2.1615	-213.09814
2.162	-213.29956
2.1625	-253.17993
2.163	-317.33093
2.1635	-237.97302
2.164	-123.36731
2.1645	-100.80872
2.165	-78.35083
2.1655	-68.07861
2.166	-95.87402
2.1665	-90.93933
2.167	-68.48145
2.1675	-31.01807
2.168	4.22974
2.1685	-8.96301
2.169	14.09912
2.1695	72.61047
2.17	110.27527
2.1705	108.26111
2.171	107.95898
2.1715	113.09509
2.172	97.28394
2.1725	97.18323
2.173	72.50977
2.1735	10.37292
2.174	-48.23914
2.1745	-52.16675
2.175	-64.55383
2.1755	19.53735
2.176	103.93066
2.1765	129.91333
2.177	131.12183
2.1775	178.35388
2.178	383.39539
2.1785	477.25525
2.179	408.16956
2.1795	307.96509
2.18	209.37195
2.1805	145.12024
2.181	123.06519
2.1815	99.70093
2.182	36.25488
2.1825	-67.77649
2.183	-140.8905
2.1835	-147.1344
2.184	-103.42712
2.1845	-80.06287
2.185	-54.28162
2.1855	2.21558
2.186	22.15576
2.1865	-60.4248
2.187	-163.14697
2.1875	-237.97302
2.188	-267.98401
2.1885	-240.99426
2.189	-204.84009
2.1895	-161.93848
2.19	-112.08801
2.1905	-46.62781
2.191	53.77808
2.1915	55.08728
2.192	-9.66797
2.1925	-35.75134
2.193	-65.76233
2.1935	-88.11951
2.194	-93.55774
2.1945	-76.03455
2.195	-89.12659
2.1955	-106.64978
2.196	-73.41614
2.1965	19.43665
2.197	89.42871
2.1975	154.78821
2.198	169.08875
2.1985	166.97388
2.199	185.00061
2.1995	173.11707
2.2	186.00769
2.2005	152.57263
2.201	130.61829
2.2015	111.38306
2.202	111.18164
2.2025	90.23438
2.203	64.45312
2.2035	90.93933
2.204	111.58447
2.2045	123.87085
2.205	150.05493
2.2055	154.88892
2.206	155.29175
2.2065	122.15881
2.207	75.73242
2.2075	-1.61133
2.208	-42.8009
2.2085	-28.09753
2.209	-29.50745
2.2095	-57.70569
2.21	-72.30835
2.2105	-81.37207
2.211	-89.93225
2.2115	-122.36023
2.212	-140.8905
2.2125	-149.55139
2.213	-135.8551
2.2135	-166.97388
2.214	-229.91638
2.2145	-288.42773
2.215	-326.89819
2.2155	-354.29077
2.216	-336.56616
2.2165	-329.71802
2.217	-250.56152
2.2175	-196.88416
2.218	-145.9259
2.2185	-69.68994
2.219	18.32886
2.2195	53.27454
2.22	61.12976
2.2205	89.52942
2.221	107.55615
2.2215	96.37756
2.222	107.25403
2.2225	155.9967
2.223	223.37036
2.2235	260.3302
2.224	303.33252
2.2245	407.4646
2.225	526.50146
2.2255	505.65491
2.226	412.5
2.2265	402.32849
2.227	404.54407
2.2275	333.54492
2.228	188.42468
2.2285	18.8324
2.229	-68.78357
2.2295	-144.41528
2.23	-165.06042
2.2305	-180.97229
2.231	-160.32715
2.2315	-114.70642
2.232	-66.26587
2.2325	-20.24231
2.233	38.26904
2.2335	47.8363
2.234	11.07788
2.2345	-37.36267
2.235	-94.76624
2.2355	-154.38538
2.236	-150.35706
2.2365	-94.56482
2.237	-44.11011
2.2375	-19.63806
2.238	-15.00549
2.2385	-12.68921
2.239	-72.20764
2.2395	-165.26184
2.24	-185.40344
2.2405	-194.76929
2.241	-248.64807
2.2415	-304.23889
2.242	-304.74243
2.2425	-274.53003
2.243	-220.55054
2.2435	-165.9668
2.244	-104.3335
2.2445	-37.7655
2.245	48.64197
2.2455	128.60413
2.246	191.44592
2.2465	225.98877
2.247	243.31055
2.2475	210.27832
2.248	87.61597
2.2485	-70.09277
2.249	-170.80078
2.2495	-169.18945
2.25	-129.40979
2.2505	-75.63171
2.251	-64.35242
2.2515	-51.36108
2.252	-22.15576
2.2525	45.52002
2.253	53.57666
2.2535	35.34851
2.254	50.2533
2.2545	102.92358
2.255	163.34839
2.2555	187.01477
2.256	225.88806
2.2565	270.401
2.257	263.85498
2.2575	239.68506
2.258	224.27673
2.2585	271.20667
2.259	349.25537
2.2595	386.61804
2.26	330.92651
2.2605	230.52063
2.261	145.42236
2.2615	109.57031
2.262	105.6427
2.2625	99.80164
2.263	110.6781
2.2635	106.75049
2.264	93.25562
2.2645	66.06445
2.265	41.69312
2.2655	-12.28638
2.266	-114.80713
2.2665	-187.01477
2.267	-220.24841
2.2675	-318.53943
2.268	-385.40955
2.2685	-381.48193
2.269	-372.2168
2.2695	-310.5835
2.27	-249.25232
2.2705	-223.37036
2.271	-188.92822
2.2715	-123.66943
2.272	-70.89844
2.2725	23.06213
2.273	5.84106
2.2735	-19.23523
2.274	-49.0448
2.2745	-95.26978
2.275	-107.35474
2.2755	-92.04712
2.276	-47.43347
2.2765	13.19275
2.277	76.63879
2.2775	209.77478
2.278	357.41272
2.2785	313.2019
2.279	69.1864
2.2795	-88.11951
2.28	-72.10693
2.2805	-66.56799
2.281	-132.43103
2.2815	-239.68506
2.282	-299.50562
2.2825	-277.85339
2.283	-185.30273
2.2835	-82.68127
2.284	-3.92761
2.2845	50.55542
2.285	90.43579
2.2855	121.25244
2.286	144.6167
2.2865	189.02893
2.287	235.85815
2.2875	263.65356
2.288	281.78101
2.2885	335.25696
2.289	395.58105
2.2895	362.2467
2.29	261.33728
2.2905	144.6167
2.291	72.61047
2.2915	50.15259
2.292	28.29895
2.2925	2.81982
2.293	-25.07629
2.2935	-37.06055
2.294	-59.71985
2.2945	-61.23047
2.295	-64.25171
2.2955	-80.66711
2.296	-86.40747
2.2965	-156.09741
2.297	-219.14062
2.2975	-214.20593
2.298	-163.65051
2.2985	-169.18945
2.299	-230.62134
2.2995	-253.88489
2.3	-230.1178
2.3005	-179.46167
2.301	-113.1958
2.3015	-29.00391
2.302	30.81665
2.3025	66.87012
2.303	92.24854
2.3035	102.11792
2.304	128.80554
2.3045	151.66626
2.305	134.24377
2.3055	121.45386
2.306	117.42554
2.3065	75.12817
2.307	67.57507
2.3075	137.36572
2.308	186.91406
2.3085	216.72363
2.309	178.85742
2.3095	117.92908
2.31	112.69226
2.3105	141.29333
2.311	156.80237
2.3115	139.5813
2.312	113.80005
2.3125	93.35632
2.313	76.13525
2.3135	48.13843
2.314	22.25647
2.3145	6.84814
2.315	8.7616
2.3155	32.93152
2.316	64.85596
2.3165	32.22656
2.317	-63.14392
2.3175	-133.63953
2.318	-156.19812
2.3185	-165.56396
2.319	-169.89441
2.3195	-143.3075
2.32	-125.98572
2.3205	-68.58215
2.321	-47.63489
2.3215	-50.75684
2.322	-81.27136
2.3225	-83.68835
2.323	-72.81189
2.3235	-67.47437
2.324	-73.61755
2.3245	-101.71509
2.325	-121.45386
2.3255	-123.87085
2.326	-92.85278
2.3265	-79.66003
2.327	-82.9834
2.3275	-110.87952
2.328	-113.09509
2.3285	-102.42004
2.329	-106.14624
2.3295	-114.90784
2.33	-112.99438
2.3305	-95.87402
2.331	-59.71985
2.3315	3.12195
2.332	91.8457
2.3325	143.10608
2.333	157.2052
2.3335	109.77173
2.334	27.49329
2.3345	11.07788
2.335	30.51453
2.3355	18.53027
2.336	-18.42957
2.3365	-75.73242
2.337	-73.11401
2.3375	-31.62231
2.338	-38.06763
2.3385	13.29346
2.339	131.72607
2.3395	214.70947
2.34	266.5741
2.3405	247.94312
2.341	236.05957
2.3415	203.32947
2.342	110.98022
2.3425	5.33752
2.343	-60.72693
2.3435	-78.65295
2.344	-7.25098
2.3445	86.00464
2.345	127.79846
2.3455	112.99438
2.346	22.6593
2.3465	-2.92053
2.347	-60.22339
2.3475	-96.17615
2.348	-94.76624
2.3485	-47.03064
2.349	-39.88037
2.3495	-58.51135
2.35	-108.46252
2.3505	-152.97546
2.351	-125.28076
2.3515	-50.95825
2.352	6.2439
2.3525	39.98108
2.353	51.76392
2.3535	31.11877
2.354	33.13293
2.3545	52.46887
2.355	39.88037
2.3555	-65.46021
2.356	-196.1792
2.3565	-315.92102
2.357	-362.75024
2.3575	-326.79749
2.358	-281.07605
2.3585	-202.12097
2.359	-78.65295
2.3595	85.5011
2.36	271.81091
2.3605	310.88562
2.361	163.24768
2.3615	1.10779
2.362	-76.84021
2.3625	-91.94641
2.363	-72.20764
2.3635	-82.68127
2.364	-110.07385
2.3645	-144.41528
2.365	-147.63794
2.3655	6.14319
2.366	133.3374
2.3665	180.46875
2.367	135.15015
2.3675	58.00781
2.368	9.56726
2.3685	38.87329
2.369	91.34216
2.3695	136.86218
2.37	215.61584
2.3705	297.59216
2.371	328.10669
2.3715	340.39307
2.372	344.42139
2.3725	326.19324
2.373	304.3396
2.3735	287.11853
2.374	240.49072
2.3745	204.73938
2.375	188.22327
2.3755	182.98645
2.376	169.49158
2.3765	161.53564
2.377	178.65601
2.3775	154.18396
2.378	49.44763
2.3785	-193.35938
2.379	-358.31909
2.3795	-401.52283
2.38	-370.00122
2.3805	-299.10278
2.381	-194.36646
2.3815	-97.88818
2.382	-43.90869
2.3825	-45.01648
2.383	-79.76074
2.3835	-113.49792
2.384	-147.43652
2.3845	-187.82043
2.385	-200.50964
2.3855	-204.53796
2.386	-253.78418
2.3865	-279.26331
2.387	-181.47583
2.3875	-31.32019
2.388	48.13843
2.3885	67.57507
2.389	122.96448
2.3895	116.01562
2.39	82.17773
2.3905	56.69861
2.391	-1.00708
2.3915	-126.9928
2.392	-203.02734
2.3925	-183.69141
2.393	-77.74658
2.3935	32.12585
2.394	69.08569
2.3945	-1.71204
2.395	-125.28076
2.3955	-175.03052
2.396	-153.88184
2.3965	-122.66235
2.397	-91.54358
2.3975	-54.88586
2.398	25.78125
2.3985	90.93933
2.399	165.16113
2.3995	216.92505
2.4	209.57336
2.4005	161.93848
2.401	152.1698
2.4015	100.30518
2.402	8.45947
2.4025	-20.54443
2.403	-20.24231
2.4035	-2.92053
2.404	106.34766
2.4045	186.20911
2.405	220.34912
2.4055	237.26807
2.406	233.74329
2.4065	197.18628
2.407	185.10132
2.4075	175.03052
2.408	135.65369
2.4085	87.31384
2.409	75.12817
2.4095	84.09119
2.41	111.18164
2.4105	144.51599
2.411	99.60022
2.4115	32.02515
2.412	7.25098
2.4125	-48.54126
2.413	-105.6427
2.4135	-106.75049
2.414	-118.63403
2.4145	-197.79053
2.415	-399.40796
2.4155	-546.03882
2.416	-524.58801
2.4165	-394.37256
2.417	-358.92334
2.4175	-461.64551
2.418	-613.61389
2.4185	-567.1875
2.419	-404.14124
2.4195	-374.53308
2.42	-391.1499
2.4205	-330.52368
2.421	-186.61194
2.4215	-36.75842
2.422	131.92749
2.4225	238.57727
2.423	305.85022
2.4235	421.2616
2.424	518.84766
2.4245	508.67615
2.425	464.96887
2.4255	446.33789
2.426	418.03894
2.4265	431.93665
2.427	459.32922
2.4275	401.01929
2.428	322.56775
2.4285	172.51282
2.429	12.78992
2.4295	-28.50037
2.43	37.46338
2.4305	33.13293
2.431	48.94409
2.4315	75.32959
2.432	-77.64587
2.4325	-163.34839
2.433	-212.39319
2.4335	-144.51599
2.434	5.0354
2.4345	133.03528
2.435	211.08398
2.4355	241.29639
2.436	244.31763
2.4365	243.31055
2.437	257.51038
2.4375	247.7417
2.438	244.0155
2.4385	214.81018
2.439	154.98962
2.4395	92.65137
2.44	52.8717
2.4405	7.5531
2.441	-51.96533
2.4415	-110.07385
2.442	-190.43884
2.4425	-333.94775
2.443	-569.90662
2.4435	-811.70654
2.444	-978.17688
2.4445	-932.25403
2.445	-765.68298
2.4455	-602.53601
2.446	-468.09082
2.4465	-360.43396
2.447	-237.16736
2.4475	-14.09912
2.448	210.27832
2.4485	399.40796
2.449	512.40234
2.4495	548.25439
2.45	541.80908
2.4505	500.72021
2.451	477.96021
2.4515	471.81702
2.452	506.56128
2.4525	548.55652
2.453	558.92944
2.4535	525.49438
2.454	486.21826
2.4545	416.72974
2.455	320.95642
2.4555	262.24365
2.456	233.54187
2.4565	198.29407
2.457	153.27759
2.4575	111.18164
2.458	80.36499
2.4585	63.84888
2.459	-7.65381
2.4595	-145.72449
2.46	-272.51587
2.4605	-339.88953
2.461	-361.84387
2.4615	-345.42847
2.462	-311.18774
2.4625	-267.27905
2.463	-247.43958
2.4635	-240.1886
2.464	-277.85339
2.4645	-389.73999
2.465	-482.18994
2.4655	-604.953
2.466	-634.56116
2.4665	-585.91919
2.467	-491.7572
2.4675	-380.87769
2.468	-240.59143
2.4685	-100.10376
2.469	84.49402
2.4695	199.9054
2.47	271.30737
2.4705	340.89661
2.471	388.6322
2.4715	333.04138
2.472	262.8479
2.4725	258.51746
2.473	227.09656
2.4735	135.65369
2.474	-38.16833
2.4745	-169.7937
2.475	-200.61035
2.4755	-152.97546
2.476	-106.44836
2.4765	-166.67175
2.477	-201.11389
2.4775	-133.3374
2.478	-13.29346
2.4785	78.75366
2.479	166.77246
2.4795	265.76843
2.48	345.22705
2.4805	371.10901
2.481	330.22156
2.4815	217.63
2.482	-16.11328
2.4825	-85.90393
2.483	-67.8772
2.4835	-114.80713
2.484	-126.08643
2.4845	-47.03064
2.485	57.50427
2.4855	153.27759
2.486	191.54663
2.4865	202.92664
2.487	181.57654
2.4875	161.93848
2.488	99.19739
2.4885	25.27771
2.489	4.43115
2.4895	9.46655
2.49	-25.57983
2.4905	-138.87634
2.491	-352.27661
2.4915	-447.04285
2.492	-408.27026
2.4925	-377.45361
2.493	-323.67554
2.4935	-315.31677
2.494	-255.89905
2.4945	-118.83545
2.495	71.40198
2.4955	209.27124
2.496	287.72278
2.4965	295.27588
2.497	356.90918
2.4975	421.76514
2.498	409.78088
2.4985	311.8927
2.499	218.43567
2.4995	186.20911
2.5	144.51599
2.5005	71.7041
2.501	40.38391
2.5015	46.02356
2.502	44.91577
2.5025	5.63965
2.503	-35.44922
2.5035	-36.65771
2.504	-46.5271
2.5045	-109.4696
2.505	-246.4325
2.5055	-359.52759
2.506	-395.17822
2.5065	-334.75342
2.507	-344.01855
2.5075	-464.0625
2.508	-401.01929
2.5085	-339.5874
2.509	-388.93433
2.5095	-382.69043
2.51	-283.49304
2.5105	-207.65991
2.511	-129.10767
2.5115	-8.35876
2.512	123.06519
2.5125	243.20984
2.513	390.54565
2.5135	560.44006
2.514	701.7334
2.5145	806.26831
2.515	858.53577
2.5155	802.74353
2.516	680.78613
2.5165	567.59033
2.517	473.52905
2.5175	312.39624
2.518	94.06128
2.5185	-90.73792
2.519	-260.22949
2.5195	-341.90369
2.52	-340.99731
2.5205	-265.86914
2.521	-105.54199
2.5215	-116.82129
2.522	-237.36877
2.5225	-291.04614
2.523	-223.16895
2.5235	-133.53882
2.524	-68.38074
2.5245	-41.4917
2.525	8.7616
2.5255	47.43347
2.526	14.19983
2.5265	-81.7749
2.527	-156.09741
2.5275	-180.67017
2.528	-140.99121
2.5285	-202.12097
2.529	-286.01074
2.5295	-217.63
2.53	-119.03687
2.5305	-64.35242
2.531	10.17151
2.5315	-23.8678
2.532	-177.54822
2.5325	-454.29382
2.533	-717.44385
2.5335	-638.38806
2.534	-450.76904
2.5345	-390.44495
2.535	-237.97302
2.5355	164.7583
2.536	555.60608
2.5365	755.61218
2.537	767.29431
2.5375	770.01343
2.538	719.65942
2.5385	679.98047
2.539	608.57849
2.5395	553.99475
2.54	507.97119
2.5405	415.11841
2.541	300.00916
2.5415	240.49072
2.542	117.42554
2.5425	-24.67346
2.543	-114.90784
2.5435	-155.19104
2.544	-158.11157
2.5445	-180.97229
2.545	-240.89355
2.5455	-201.71814
2.546	-94.56482
2.5465	-62.74109
2.547	-112.49084
2.5475	-200.50964
2.548	-254.79126
2.5485	-210.68115
2.549	-237.97302
2.5495	-406.2561
2.55	-468.49365
2.5505	-556.51245
2.551	-746.85059
2.5515	-827.01416
2.552	-745.13855
2.5525	-583.60291
2.553	-564.46838
2.5535	-518.84766
2.554	-308.46863
2.5545	-42.59949
2.555	179.8645
2.5555	403.6377
2.556	639.29443
2.5565	848.26355
2.557	929.53491
2.5575	989.45618
2.558	972.43652
2.5585	852.79541
2.559	674.34082
2.5595	465.3717
2.56	221.75903
2.5605	-29.20532
2.561	-100.50659
2.5615	-128.80554
2.562	-352.57874
2.5625	-581.79016
2.563	-584.8114
2.5635	-426.297
2.564	-388.22937
2.5645	-567.79175
2.565	-735.57129
2.5655	-703.0426
2.566	-467.68799
2.5665	-231.62842
2.567	-39.67896
2.5675	72.00623
2.568	128.70483
2.5685	117.62695
2.569	164.05334
2.5695	331.22864
2.57	517.84058
2.5705	690.4541
2.571	668.80188
2.5715	614.9231
2.572	627.31018
2.5725	549.26147
2.573	393.36548
2.5735	31.32019
2.574	-176.64185
2.5745	48.13843
2.575	191.34521
2.5755	175.43335
2.576	194.56787
2.5765	249.65515
2.577	271.91162
2.5775	297.79358
2.578	281.88171
2.5785	174.42627
2.579	55.18799
2.5795	-21.75293
2.58	-87.81738
2.5805	-135.04944
2.581	-100.6073
2.5815	-77.948
2.582	-80.96924
2.5825	-99.09668
2.583	-147.94006
2.5835	-287.92419
2.584	-294.87305
2.5845	-191.84875
2.585	-183.38928
2.5855	-252.27356
2.586	-273.32153
2.5865	-223.8739
2.587	-109.06677
2.5875	32.22656
2.588	203.63159
2.5885	326.09253
2.589	353.08228
2.5895	275.73853
2.59	14.50195
2.5905	-521.8689
2.591	-964.07776
2.5915	-1017.55371
2.592	-930.03845
2.5925	-790.85999
2.593	-550.36926
2.5935	-215.0116
2.594	120.84961
2.5945	354.89502
2.595	489.64233
2.5955	528.2135
2.596	483.49915
2.5965	466.47949
2.597	409.68018
2.5975	254.69055
2.598	117.32483
2.5985	100.00305
2.599	168.28308
2.5995	201.81885
2.6	42.7002
2.6005	-46.82922
2.601	117.12341
2.6015	230.62134
2.602	285.60791
2.6025	325.08545
2.603	268.48755
2.6035	158.11157
2.604	41.79382
2.6045	-159.82361
2.605	-283.39233
2.6055	-175.23193
2.606	-32.42798
2.6065	24.06921
2.607	13.797
2.6075	-26.18408
2.608	-39.17542
2.6085	-46.62781
2.609	-34.54285
2.6095	27.09045
2.61	-10.0708
2.6105	-74.32251
2.611	-129.71191
2.6115	-300.41199
2.612	-398.80371
2.6125	-344.72351
2.613	-469.60144
2.6135	-464.96887
2.614	-151.76697
2.6145	102.52075
2.615	213.60168
2.6155	316.32385
2.616	386.31592
2.6165	312.69836
2.617	266.5741
2.6175	178.75671
2.618	95.77332
2.6185	73.71826
2.619	46.12427
2.6195	-32.83081
2.62	-113.09509
2.6205	-113.1958
2.621	-37.36267
2.6215	22.6593
2.622	24.27063
2.6225	40.58533
2.623	110.57739
2.6235	179.56238
2.624	216.72363
2.6245	268.08472
2.625	300.5127
2.6255	368.79272
2.626	434.05151
2.6265	492.16003
2.627	519.85474
2.6275	278.35693
2.628	-133.13599
2.6285	-339.78882
2.629	-355.9021
2.6295	-280.06897
2.63	-178.5553
2.6305	-62.9425
2.631	34.14001
2.6315	92.24854
2.632	63.44604
2.6325	25.78125
2.633	-213.90381
2.6335	-528.51562
2.634	-619.05212
2.6345	-512.70447
2.635	-425.79346
2.6355	-311.79199
2.636	-164.65759
2.6365	-80.16357
2.637	-140.58838
2.6375	-302.52686
2.638	-587.63123
2.6385	-833.45947
2.639	-947.36023
2.6395	-881.29578
2.64	-758.02917
2.6405	-500.21667
2.641	-163.34839
2.6415	162.34131
2.642	402.4292
2.6425	576.25122
2.643	763.06458
2.6435	871.22498
2.644	877.8717
2.6445	869.0094
2.645	860.44922
2.6455	853.70178
2.646	823.99292
2.6465	781.99768
2.647	762.25891
2.6475	629.42505
2.648	374.33167
2.6485	56.79932
2.649	-423.27576
2.6495	-623.28186
2.65	-586.0199
2.6505	-632.84912
2.651	-650.07019
2.6515	-528.11279
2.652	-346.53625
2.6525	-158.71582
2.653	-19.63806
2.6535	61.43188
2.654	138.77563
2.6545	233.74329
2.655	250.76294
2.6555	169.49158
2.656	157.91016
2.6565	286.51428
2.657	442.10815
2.6575	508.27332
2.658	334.65271
2.6585	185.80627
2.659	90.43579
2.6595	13.99841
2.66	-81.67419
2.6605	-69.1864
2.661	-3.7262
2.6615	84.19189
2.662	198.49548
2.6625	243.91479
2.663	259.52454
2.6635	301.11694
2.664	224.07532
2.6645	10.77576
2.665	-167.07458
2.6655	-256.40259
2.666	-277.65198
2.6665	-347.1405
2.667	-399.60938
2.6675	-364.56299
2.668	-223.47107
2.6685	-159.32007
2.669	-82.37915
2.6695	41.79382
2.67	176.23901
2.6705	273.52295
2.671	285.10437
2.6715	191.84875
2.672	131.12183
2.6725	117.32483
2.673	51.15967
2.6735	-115.81421
2.674	-216.42151
2.6745	-167.47742
2.675	-95.47119
2.6755	-41.69312
2.676	-23.06213
2.6765	-18.02673
2.677	-16.71753
2.6775	-50.05188
2.678	-262.04224
2.6785	-475.03967
2.679	-504.74854
2.6795	-409.47876
2.68	-310.6842
2.6805	-212.79602
2.681	-96.47827
2.6815	-26.08337
2.682	27.29187
2.6825	105.03845
2.683	129.10767
2.6835	128.302
2.684	118.63403
2.6845	23.46497
2.685	-89.02588
2.6855	-86.50818
2.686	19.03381
2.6865	60.02197
2.687	-99.49951
2.6875	-427.00195
2.688	-557.1167
2.6885	-502.23083
2.689	-517.43774
2.6895	-513.81226
2.69	-395.07751
2.6905	-213.40027
2.691	15.91187
2.6915	252.67639
2.692	405.65186
2.6925	529.82483
2.693	656.41479
2.6935	669.70825
2.694	608.77991
2.6945	562.1521
2.695	474.73755
2.6955	373.92883
2.696	336.46545
2.6965	247.43958
2.697	230.62134
2.6975	255.69763
2.698	239.38293
2.6985	145.12024
2.699	16.71753
2.6995	11.07788
2.7	69.99207
2.7005	28.09753
2.701	-1.81274
2.7015	-87.91809
2.702	-190.33813
2.7025	-222.5647
2.703	-262.34436
2.7035	-345.62988
2.704	-388.53149
2.7045	-406.75964
2.705	-324.38049
2.7055	-330.92651
2.706	-288.12561
2.7065	-154.6875
2.707	-2.11487
2.7075	94.3634
2.708	162.54272
2.7085	233.03833
2.709	283.99658
2.7095	316.72668
2.71	312.49695
2.7105	318.74084
2.711	319.84863
2.7115	350.8667
2.712	275.53711
2.7125	131.32324
2.713	-57.40356
2.7135	-274.1272
2.714	-531.83899
2.7145	-777.1637
2.715	-769.00635
2.7155	-663.46436
2.716	-601.22681
2.7165	-470.80994
2.717	-367.58423
2.7175	-277.85339
2.718	-161.83777
2.7185	45.52002
2.719	258.01392
2.7195	340.99731
2.72	333.14209
2.7205	309.97925
2.721	394.07043
2.7215	477.96021
2.722	540.49988
2.7225	628.51868
2.723	647.25037
2.7235	576.95618
2.724	547.85156
2.7245	508.97827
2.725	437.57629
2.7255	353.28369
2.726	236.76453
2.7265	71.30127
2.727	-79.86145
2.7275	-208.66699
2.728	-352.78015
2.7285	-430.02319
2.729	-413.8092
2.7295	-337.0697
2.73	-231.32629
2.7305	-133.84094
2.731	-43.70728
2.7315	63.74817
2.732	-1.61133
2.7325	-32.32727
2.733	128.20129
2.7335	227.39868
2.734	177.04468
2.7345	147.43652
2.735	201.51672
2.7355	200.40894
2.736	28.39966
2.7365	-208.86841
2.737	-298.59924
2.7375	-241.09497
2.738	-205.0415
2.7385	-263.95569
2.739	-480.07507
2.7395	-612.30469
2.74	-564.36768
2.7405	-432.33948
2.741	-230.92346
2.7415	-35.2478
2.742	173.41919
2.7425	317.12952
2.743	355.9021
2.7435	282.28455
2.744	241.4978
2.7445	144.91882
2.745	54.98657
2.7455	86.20605
2.746	145.62378
2.7465	89.12659
2.747	-155.09033
2.7475	-485.51331
2.748	-569.10095
2.7485	-473.52905
2.749	-314.91394
2.7495	-87.51526
2.75	190.94238
2.7505	390.24353
2.751	311.59058
2.7515	154.6875
2.752	60.52551
2.7525	28.9032
2.753	-16.01257
2.7535	-87.71667
2.754	-117.22412
2.7545	-126.08643
2.755	-127.79846
2.7555	-28.09753
2.756	88.52234
2.7565	158.31299
2.757	255.79834
2.7575	314.91394
2.758	258.71887
2.7585	235.95886
2.759	222.66541
2.7595	-6.14319
2.76	-204.43726
2.7605	-316.52527
2.761	-328.81165
2.7615	-234.44824
2.762	-151.26343
2.7625	-103.02429
2.763	40.88745
2.7635	179.46167
2.764	244.82117
2.7645	259.62524
2.765	279.86755
2.7655	358.11768
2.766	358.52051
2.7665	272.41516
2.767	223.57178
2.7675	259.72595
2.768	297.995
2.7685	342.91077
2.769	441.4032
2.7695	471.01135
2.77	370.10193
2.7705	207.05566
2.771	33.73718
2.7715	-187.4176
2.772	-430.22461
2.7725	-638.79089
2.773	-792.2699
2.7735	-966.89758
2.774	-1182.61414
2.7745	-1091.97693
2.775	-772.73254
2.7755	-517.73987
2.776	-344.72351
2.7765	-133.23669
2.777	58.00781
2.7775	180.26733
2.778	104.73633
2.7785	-23.36426
2.779	-82.07703
2.7795	13.99841
2.78	203.12805
2.7805	351.06812
2.781	384.8053
2.7815	403.33557
2.782	365.06653
2.7825	356.00281
2.783	381.68335
2.7835	447.44568
2.784	508.17261
2.7845	472.52197
2.785	369.19556
2.7855	257.8125
2.786	205.64575
2.7865	179.26025
2.787	79.35791
2.7875	72.20764
2.788	129.20837
2.7885	179.46167
2.789	196.88416
2.7895	206.95496
2.79	231.82983
2.7905	227.70081
2.791	151.16272
2.7915	-4.63257
2.792	-176.54114
2.7925	-351.97449
2.793	-571.92078
2.7935	-853.09753
2.794	-917.34924
2.7945	-690.4541
2.795	-395.88318
2.7955	-178.65601
2.796	26.08337
2.7965	252.17285
2.797	379.16565
2.7975	358.4198
2.798	125.38147
2.7985	-120.84961
2.799	-426.59912
2.7995	-518.74695
2.8	-365.9729
2.8005	-132.93457
2.801	77.54517
2.8015	273.72437
2.802	439.59045
2.8025	534.96094
2.803	563.56201
2.8035	415.62195
2.804	58.41064
2.8045	-455.09949
2.805	-732.55005
2.8055	-667.99622
2.806	-490.64941
2.8065	-277.9541
2.807	-89.52942
2.8075	42.90161
2.808	211.88965
2.8085	408.7738
2.809	524.28589
2.8095	529.11987
2.81	524.89014
2.8105	447.24426
2.811	352.67944
2.8115	253.58276
2.812	93.85986
2.8125	-147.94006
2.813	-249.75586
2.8135	-0.10071
2.814	180.67017
2.8145	123.46802
2.815	52.771
2.8155	66.97083
2.816	113.69934
2.8165	174.8291
2.817	176.94397
2.8175	53.97949
2.818	-102.42004
2.8185	-194.56787
2.819	-196.48132
2.8195	-179.66309
2.82	-141.19263
2.8205	-186.20911
2.821	-240.69214
2.8215	-250.2594
2.822	-252.17285
2.8225	-412.80212
2.823	-542.0105
2.8235	-509.58252
2.824	-421.76514
2.8245	-338.07678
2.825	-168.38379
2.8255	74.02039
2.826	291.54968
2.8265	371.10901
2.827	414.81628
2.8275	466.07666
2.828	481.58569
2.8285	465.3717
2.829	514.81934
2.8295	569.30237
2.83	540.39917
2.8305	376.74866
2.831	97.08252
2.8315	-126.58997
2.832	-219.34204
2.8325	-224.37744
2.833	-97.48535
2.8335	94.2627
2.834	248.84949
2.8345	255.59692
2.835	153.98254
2.8355	31.62231
2.836	-4.12903
2.8365	36.95984
2.837	3.42407
2.8375	-107.55615
2.838	-240.28931
2.8385	-455.2002
2.839	-827.71912
2.8395	-1112.01782
2.84	-1079.69055
2.8405	-981.19812
2.841	-808.28247
2.8415	-489.13879
2.842	-92.75208
2.8425	278.15552
2.843	532.34253
2.8435	693.17322
2.844	713.0127
2.8445	756.82068
2.845	761.65466
2.8455	721.37146
2.846	669.60754
2.8465	569.10095
2.847	218.03284
2.8475	-181.47583
2.848	-332.23572
2.8485	-231.32629
2.849	-124.67651
2.8495	-72.20764
2.85	-52.26746
2.8505	-35.65063
2.851	-8.56018
2.8515	34.54285
2.852	92.34924
2.8525	99.49951
2.853	73.51685
2.8535	26.58691
2.854	-15.60974
2.8545	-41.89453
2.855	11.98425
2.8555	143.71033
2.856	371.20972
2.8565	423.17505
2.857	292.55676
2.8575	180.87158
2.858	175.93689
2.8585	198.59619
2.859	234.54895
2.8595	222.86682
2.86	179.26025
2.8605	149.34998
2.861	115.91492
2.8615	73.51685
2.862	12.78992
2.8625	-28.19824
2.863	-50.2533
2.8635	-151.16272
2.864	-343.51501
2.8645	-619.35425
2.865	-1008.79211
2.8655	-1384.83582
2.866	-1665.50903
2.8665	-1897.33887
2.867	-1947.89429
2.8675	-1591.18652
2.868	-1060.25391
2.8685	-655.00488
2.869	-211.88965
2.8695	220.55054
2.87	574.43848
2.8705	816.64124
2.871	967.60254
2.8715	1053.50647
2.872	1091.6748
2.8725	1032.65991
2.873	976.16272
2.8735	954.30908
2.874	947.36023
2.8745	984.32007
2.875	865.38391
2.8755	665.47852
2.876	560.54077
2.8765	583.30078
2.877	539.29138
2.8775	343.61572
2.878	196.07849
2.8785	76.03455
2.879	-246.33179
2.8795	-704.45251
2.88	-1365.19775
2.8805	-1841.64734
2.881	-1949.80774
2.8815	-1885.95886
2.882	-1528.94897
2.8825	-999.32556
2.883	-552.18201
2.8835	-296.38367
2.884	-350.06104
2.8845	-392.15698
2.885	-169.49158
2.8855	130.31616
2.886	376.34583
2.8865	605.35583
2.887	808.6853
2.8875	1024.60327
2.888	1299.1333
2.8885	1540.22827
2.889	1658.15735
2.8895	1452.31018
2.89	1091.97693
2.8905	807.07397
2.891	677.8656
2.8915	614.01672
2.892	518.74695
2.8925	282.78809
2.893	-30.2124
2.8935	-236.05957
2.894	-364.26086
2.8945	-507.06482
2.895	-553.59192
2.8955	-515.92712
2.896	-438.48267
2.8965	-403.6377
2.897	-322.06421
2.8975	-229.21143
2.898	-100.70801
2.8985	16.21399
2.899	30.01099
2.8995	-97.18323
2.9	-76.33667
2.9005	142.30042
2.901	274.53003
2.9015	342.40723
2.902	418.34106
2.9025	435.05859
2.903	418.7439
2.9035	439.28833
2.904	487.12463
2.9045	424.58496
2.905	361.34033
2.9055	301.31836
2.906	266.77551
2.9065	237.46948
2.907	175.73547
2.9075	107.95898
2.908	25.68054
2.9085	-80.4657
2.909	-132.63245
2.9095	-124.17297
2.91	-92.55066
2.9105	-96.37756
2.911	-238.67798
2.9115	-416.72974
2.912	-491.25366
2.9125	-482.39136
2.913	-467.68799
2.9135	-404.14124
2.914	-280.67322
2.9145	-135.45227
2.915	-8.96301
2.9155	73.31543
2.916	107.15332
2.9165	83.28552
2.917	52.56958
2.9175	-86.00464
2.918	-307.46155
2.9185	-455.60303
2.919	-584.8114
2.9195	-720.86792
2.92	-755.41077
2.9205	-699.31641
2.921	-685.31799
2.9215	-937.59155
2.922	-1383.92944
2.9225	-1766.01562
2.923	-1681.32019
2.9235	-1259.25293
2.924	-813.31787
2.9245	-367.48352
2.925	97.78748
2.9255	529.32129
2.926	908.18481
2.9265	1244.95239
2.927	1484.53674
2.9275	1488.9679
2.928	1328.54004
2.9285	1152.20032
2.929	1046.85974
2.9295	987.54272
2.93	878.57666
2.9305	681.5918
2.931	425.39062
2.9315	216.22009
2.932	-35.95276
2.9325	-490.14587
2.933	-926.9165
2.9335	-895.29419
2.934	-529.11987
2.9345	-253.9856
2.935	-69.99207
2.9355	114.505
2.936	283.49304
2.9365	421.96655
2.937	482.79419
2.9375	439.99329
2.938	153.98254
2.9385	-113.29651
2.939	-164.25476
2.9395	-54.48303
2.94	166.0675
2.9405	221.65833
2.941	56.39648
2.9415	-167.17529
2.942	-282.68738
2.9425	-327.09961
2.943	-298.39783
2.9435	-312.79907
2.944	-404.44336
2.9445	-251.26648
2.945	124.4751
2.9455	412.70142
2.946	541.60767
2.9465	535.96802
2.947	468.09082
2.9475	458.62427
2.948	434.75647
2.9485	418.7439
2.949	507.66907
2.9495	581.08521
2.95	561.74927
2.9505	420.75806
2.951	190.53955
2.9515	-36.35559
2.952	-226.99585
2.9525	-360.43396
2.953	-500.11597
2.9535	-787.13379
2.954	-1003.5553
2.9545	-849.37134
2.955	-725.90332
2.9555	-680.88684
2.956	-560.8429
2.9565	-311.79199
2.957	-76.53809
2.9575	-59.21631
2.958	-183.18787
2.9585	-387.92725
2.959	-444.82727
2.9595	-445.63293
2.96	-533.2489
2.9605	-414.51416
2.961	-116.51917
2.9615	178.95813
2.962	315.41748
2.9625	460.13489
2.963	577.56042
2.9635	605.75867
2.964	626.80664
2.9645	708.17871
2.965	718.65234
2.9655	768.4021
2.966	840.50903
2.9665	815.23132
2.967	713.31482
2.9675	620.36133
2.968	518.44482
2.9685	423.7793
2.969	340.7959
2.9695	285.70862
2.97	161.23352
2.9705	68.58215
2.971	53.57666
2.9715	43.50586
2.972	-126.58997
2.9725	-371.71326
2.973	-500.61951
2.9735	-508.77686
2.974	-465.67383
2.9745	-351.57166
2.975	-244.51904
2.9755	-158.91724
2.976	-169.89441
2.9765	-192.25159
2.977	-275.13428
2.9775	-497.59827
2.978	-729.02527
2.9785	-776.25732
2.979	-765.98511
2.9795	-713.81836
2.98	-539.08997
2.9805	-476.24817
2.981	-496.49048
2.9815	-367.08069
2.982	-29.60815
2.9825	222.66541
2.983	387.72583
2.9835	550.16785
2.984	708.98438
2.9845	840.00549
2.985	807.27539
2.9855	638.99231
2.986	547.54944
2.9865	612.5061
2.987	652.78931
2.9875	567.89246
2.988	444.82727
2.9885	305.04456
2.989	168.08167
2.9895	126.69067
2.99	44.61365
2.9905	-66.16516
2.991	-146.42944
2.9915	-259.62524
2.992	-424.08142
2.9925	-501.32446
2.993	-476.651
2.9935	-394.77539
2.994	-234.64966
2.9945	-109.87244
2.995	46.12427
2.9955	90.43579
2.996	-120.95032
2.9965	-480.88074
2.997	-747.95837
2.9975	-787.53662
2.998	-570.41016
2.9985	-351.57166
2.999	-181.57654
2.9995	3.32336
3	-86.60889
3.0005	-460.3363
3.001	-737.58545
3.0015	-856.4209
3.002	-871.72852
3.0025	-960.04944
3.003	-815.53345
3.0035	-466.68091
3.004	-85.40039
3.0045	201.51672
3.005	470.80994
3.0055	687.43286
3.006	839.70337
3.0065	870.62073
3.007	830.94177
3.0075	834.16443
3.008	779.47998
3.0085	689.64844
3.009	584.71069
3.0095	516.32996
3.01	397.09167
3.0105	216.22009
3.011	83.68835
3.0115	-8.56018
3.012	-3.22266
3.0125	32.22656
3.013	102.62146
3.0135	197.08557
3.014	328.91235
3.0145	492.05933
3.015	613.7146
3.0155	676.6571
3.016	729.02527
3.0165	665.37781
3.017	474.03259
3.0175	170.80078
3.018	-49.85046
3.0185	-186.71265
3.019	-406.2561
3.0195	-631.13708
3.02	-829.12903
3.0205	-868.10303
3.021	-753.90015
3.0215	-490.14587
3.022	-292.85889
3.0225	-184.69849
3.023	-338.58032
3.0235	-496.69189
3.024	-470.50781
3.0245	-276.34277
3.025	-142.70325
3.0255	-7.04956
3.026	318.94226
3.0265	676.95923
3.027	803.85132
3.0275	515.82642
3.028	-32.32727
3.0285	-443.71948
3.029	-528.2135
3.0295	-496.7926
3.03	-347.84546
3.0305	-158.61511
3.031	24.47205
3.0315	191.44592
3.032	390.64636
3.0325	578.76892
3.033	600.11902
3.0335	546.03882
3.034	520.35828
3.0345	469.60144
3.035	286.51428
3.0355	185.40344
3.036	286.91711
3.0365	452.88391
3.037	552.78625
3.0375	489.94446
3.038	370.50476
3.0385	293.66455
3.039	276.34277
3.0395	235.05249
3.04	161.33423
3.0405	116.82129
3.041	104.4342
3.0415	26.98975
3.042	-119.13757
3.0425	-198.49548
3.043	-282.48596
3.0435	-349.45679
3.044	-379.66919
3.0445	-381.38123
3.045	-346.73767
3.0455	-280.16968
3.046	-244.21692
3.0465	-305.95093
3.047	-520.15686
3.0475	-678.87268
3.048	-803.54919
3.0485	-924.60022
3.049	-1006.87866
3.0495	-963.57422
3.05	-764.07166
3.0505	-531.33545
3.051	-381.98547
3.0515	-392.96265
3.052	-275.33569
3.0525	58.30994
3.053	360.53467
3.0535	527.40784
3.054	598.6084
3.0545	588.03406
3.055	383.69751
3.0555	44.11011
3.056	-211.88965
3.0565	-81.06995
3.057	148.64502
3.0575	253.78418
3.058	271.40808
3.0585	362.2467
3.059	435.46143
3.0595	491.55579
3.06	380.27344
3.0605	94.56482
3.061	-190.43884
3.0615	-391.55273
3.062	-427.80762
3.0625	-329.11377
3.063	-152.57263
3.0635	-19.23523
3.064	127.69775
3.0645	322.36633
3.065	476.75171
3.0655	524.99084
3.066	496.99402
3.0665	465.271
3.067	451.97754
3.0675	447.24426
3.068	50.95825
3.0685	-419.95239
3.069	-695.89233
3.0695	-686.12366
3.07	-566.98608
3.0705	-426.09558
3.071	-256.10046
3.0715	-75.4303
3.072	93.45703
3.0725	252.37427
3.073	402.83203
3.0735	517.33704
3.074	521.16394
3.0745	459.0271
3.075	302.82898
3.0755	196.38062
3.076	197.3877
3.0765	263.55286
3.077	280.27039
3.0775	276.54419
3.078	299.80774
3.0785	308.0658
3.079	252.37427
3.0795	220.55054
3.08	214.20593
3.0805	259.1217
3.081	276.34277
3.0815	270.60242
3.082	232.33337
3.0825	194.16504
3.083	119.74182
3.0835	53.37524
3.084	-16.3147
3.0845	-169.69299
3.085	-617.74292
3.0855	-990.46326
3.086	-1126.72119
3.0865	-1129.54102
3.087	-1088.15002
3.0875	-930.34058
3.088	-692.66968
3.0885	-444.72656
3.089	-234.75037
3.0895	-107.75757
3.09	-36.55701
3.0905	9.56726
3.091	84.59473
3.0915	146.02661
3.092	211.88965
3.0925	110.17456
3.093	-102.82288
3.0935	-229.51355
3.094	-309.17358
3.0945	-587.22839
3.095	-647.04895
3.0955	-418.54248
3.096	-85.70251
3.0965	84.2926
3.097	217.5293
3.0975	433.24585
3.098	672.02454
3.0985	695.18738
3.099	474.23401
3.0995	335.55908
3.1	232.13196
3.1005	145.12024
3.101	102.31934
3.1015	-2.31628
3.102	-208.56628
3.1025	-260.73303
3.103	-86.30676
3.1035	243.51196
3.104	478.36304
3.1045	605.05371
3.105	694.1803
3.1055	787.63733
3.106	751.18103
3.1065	631.64062
3.107	533.45032
3.1075	435.56213
3.108	345.42847
3.1085	253.9856
3.109	147.03369
3.1095	69.89136
3.11	-47.8363
3.1105	-161.23352
3.111	-198.79761
3.1115	-200.50964
3.112	-136.35864
3.1125	-66.76941
3.113	-21.04797
3.1135	-92.55066
3.114	-330.62439
3.1145	-652.99072
3.115	-928.93066
3.1155	-966.19263
3.116	-835.57434
3.1165	-714.62402
3.117	-436.87134
3.1175	-127.09351
3.118	111.28235
3.1185	254.0863
3.119	323.172
3.1195	379.46777
3.12	412.90283
3.1205	383.79822
3.121	351.57166
3.1215	363.4552
3.122	428.51257
3.1225	479.26941
3.123	491.7572
3.1235	396.08459
3.124	169.18945
3.1245	-41.39099
3.125	-176.23901
3.1255	-196.98486
3.126	-162.34131
3.1265	-255.99976
3.127	-383.99963
3.1275	-377.75574
3.128	-212.4939
3.1285	-131.52466
3.129	-163.34839
3.1295	-112.18872
3.13	124.37439
3.1305	301.41907
3.131	355.59998
3.1315	332.13501
3.132	251.97144
3.1325	211.99036
3.133	168.88733
3.1335	136.45935
3.134	-9.36584
3.1345	-178.65601
3.135	-304.23889
3.1355	-531.03333
3.136	-1093.58826
3.1365	-1537.60986
3.137	-1546.47217
3.1375	-1197.82104
3.138	-700.92773
3.1385	-298.0957
3.139	60.02197
3.1395	435.05859
3.14	785.72388
3.1405	981.50024
3.141	1013.42468
3.1415	924.60022
3.142	706.97021
3.1425	503.43933
3.143	403.03345
3.1435	398.90442
3.144	446.13647
3.1445	424.68567
3.145	249.35303
3.1455	77.24304
3.146	-141.69617
3.1465	-628.21655
3.147	-944.23828
3.1475	-893.68286
3.148	-607.26929
3.1485	-399.10583
3.149	-226.19019
3.1495	44.71436
3.15	297.59216
3.1505	485.71472
3.151	560.44006
3.1515	584.50928
3.152	576.75476
3.1525	524.58801
3.153	313.40332
3.1535	65.46021
3.154	-1.81274
3.1545	41.29028
3.155	46.32568
3.1555	149.55139
3.156	336.06262
3.1565	387.92725
3.157	301.31836
3.1575	220.85266
3.158	172.71423
3.1585	95.87402
3.159	-94.2627
3.1595	-363.35449
3.16	-576.55334
3.1605	-648.05603
3.161	-652.18506
3.1615	-576.85547
3.162	-446.64001
3.1625	-339.28528
3.163	-263.15002
3.1635	-158.81653
3.164	38.87329
3.1645	281.88171
3.165	428.91541
3.1655	512.90588
3.166	532.94678
3.1665	503.23792
3.167	434.45435
3.1675	400.81787
3.168	283.69446
3.1685	172.91565
3.169	126.38855
3.1695	42.09595
3.17	-70.19348
3.1705	-176.44043
3.171	-277.24915
3.1715	-308.26721
3.172	-248.04382
3.1725	-163.4491
3.173	-72.00623
3.1735	10.97717
3.174	37.16125
3.1745	0.60425
3.175	-11.38
3.1755	15.20691
3.176	31.01807
3.1765	-78.65295
3.177	-204.84009
3.1775	-231.12488
3.178	-106.04553
3.1785	67.77649
3.179	163.04626
3.1795	135.15015
3.18	95.77332
3.1805	67.07153
3.181	87.31384
3.1815	136.96289
3.182	184.19495
3.1825	232.73621
3.183	265.3656
3.1835	221.05408
3.184	165.66467
3.1845	139.5813
3.185	-60.22339
3.1855	-637.28027
3.186	-1479.60205
3.1865	-1915.16418
3.187	-1856.55212
3.1875	-1450.79956
3.188	-906.97632
3.1885	-511.69739
3.189	-371.20972
3.1895	-246.83533
3.19	31.92444
3.1905	373.92883
3.191	626.20239
3.1915	785.32104
3.192	820.56885
3.1925	770.41626
3.193	730.53589
3.1935	846.04797
3.194	930.54199
3.1945	912.11243
3.195	774.34387
3.1955	454.39453
3.196	-198.29407
3.1965	-708.48083
3.197	-931.34766
3.1975	-803.44849
3.198	-590.35034
3.1985	-571.61865
3.199	-463.96179
3.1995	-216.72363
3.2	35.14709
3.2005	146.02661
3.201	244.41833
3.2015	322.97058
3.202	399.60938
3.2025	430.82886
3.203	493.77136
3.2035	565.8783
3.204	609.18274
3.2045	615.93018
3.205	577.66113
3.2055	479.06799
3.206	416.2262
3.2065	438.18054
3.207	422.26868
3.2075	355.70068
3.208	279.46472
3.2085	225.18311
3.209	203.63159
3.2095	168.18237
3.21	161.13281
3.2105	123.16589
3.211	38.26904
3.2115	-34.84497
3.212	-48.23914
3.2125	-87.21313
3.213	-132.12891
3.2135	-177.95105
3.214	-280.27039
3.2145	-420.25452
3.215	-685.11658
3.2155	-797.70813
3.216	-661.34949
3.2165	-455.40161
3.217	-300.91553
3.2175	-156.19812
3.218	-61.02905
3.2185	-17.6239
3.219	35.44922
3.2195	70.49561
3.22	89.42871
3.2205	58.20923
3.221	50.05188
3.2215	105.13916
3.222	173.82202
3.2225	215.41443
3.223	219.84558
3.2235	225.18311
3.224	249.55444
3.2245	337.47253
3.225	340.7959
3.2255	307.66296
3.226	269.39392
3.2265	178.25317
3.227	81.47278
3.2275	0
3.228	-74.62463
3.2285	-204.63867
3.229	-301.72119
3.2295	-308.26721
3.23	-231.02417
3.2305	-215.21301
3.231	-342.40723
3.2315	-498.50464
3.232	-681.89392
3.2325	-847.76001
3.233	-929.3335
3.2335	-854.20532
3.234	-622.77832
3.2345	-375.13733
3.235	-178.35388
3.2355	27.99683
3.236	173.82202
3.2365	274.53003
3.237	330.12085
3.2375	245.42542
3.238	151.66626
3.2385	95.06836
3.239	56.39648
3.2395	-177.24609
3.24	-398.50159
3.2405	-361.34033
3.241	-117.22412
3.2415	208.26416
3.242	533.34961
3.2425	766.48865
3.243	786.22742
3.2435	762.96387
3.244	685.92224
3.2445	618.75
3.245	490.54871
3.2455	357.61414
3.246	261.13586
3.2465	195.57495
3.247	-20.1416
3.2475	-210.37903
3.248	-232.73621
3.2485	-67.8772
3.249	81.17065
3.2495	97.18323
3.25	61.53259
3.2505	63.04321
3.251	126.89209
3.2515	198.39478
3.252	212.29248
3.2525	186.91406
3.253	154.78821
3.2535	106.34766
3.254	71.7041
3.2545	-28.80249
3.255	-214.40735
3.2555	-428.51257
3.256	-489.2395
3.2565	-385.71167
3.257	-239.38293
3.2575	-38.06763
3.258	139.37988
3.2585	187.92114
3.259	115.81421
3.2595	-46.5271
3.26	-195.57495
3.2605	-269.59534
3.261	-354.08936
3.2615	-446.74072
3.262	-531.53687
3.2625	-551.07422
3.263	-739.19678
3.2635	-1001.94397
3.264	-1192.08069
3.2645	-1095.09888
3.265	-851.58691
3.2655	-499.71313
3.266	-63.94958
3.2665	362.2467
3.267	643.12134
3.2675	722.98279
3.268	662.55798
3.2685	590.45105
3.269	408.37097
3.2695	176.23901
3.27	-90.43579
3.2705	-377.95715
3.271	-412.39929
3.2715	-37.56409
3.272	456.20728
3.2725	734.06067
3.273	813.31787
3.2735	879.0802
3.274	945.34607
3.2745	956.52466
3.275	873.23914
3.2755	765.8844
3.276	657.42188
3.2765	543.21899
3.277	537.88147
3.2775	516.73279
3.278	411.99646
3.2785	293.56384
3.279	160.32715
3.2795	60.62622
3.28	-15.60974
3.2805	-120.54749
3.281	-244.31763
3.2815	-446.4386
3.282	-594.37866
3.2825	-628.72009
3.283	-570.51086
3.2835	-455.80444
3.284	-283.69446
3.2845	-101.71509
3.285	16.61682
3.2855	109.26819
3.286	194.16504
3.2865	263.75427
3.287	309.27429
3.2875	272.51587
3.288	-106.54907
3.2885	-761.45325
3.289	-1534.18579
3.2895	-1907.71179
3.29	-1872.66541
3.2905	-1611.93237
3.291	-1234.37805
3.2915	-745.03784
3.292	-299.00208
3.2925	42.49878
3.293	317.93518
3.2935	551.17493
3.294	717.34314
3.2945	755.00793
3.295	760.34546
3.2955	773.13538
3.296	776.45874
3.2965	733.65784
3.297	725.19836
3.2975	760.64758
3.298	790.35645
3.2985	731.03943
3.299	396.68884
3.2995	-165.86609
3.3	-661.65161
3.3005	-900.22888
3.301	-832.95593
3.3015	-629.22363
3.302	-444.82727
3.3025	-316.52527
3.303	-196.98486
3.3035	-90.83862
3.304	62.23755
3.3045	227.70081
3.305	386.92017
3.3055	531.13403
3.306	643.02063
3.3065	688.03711
3.307	707.07092
3.3075	714.62402
3.308	623.88611
3.3085	470.20569
3.309	344.21997
3.3095	258.41675
3.31	242.80701
3.3105	253.28064
3.311	295.98083
3.3115	226.29089
3.312	56.49719
3.3125	-210.88257
3.313	-620.46204
3.3135	-1145.755
3.314	-1502.56348
3.3145	-1466.30859
3.315	-1156.12793
3.3155	-809.59167
3.316	-490.64941
3.3165	-150.8606
3.317	177.3468
3.3175	415.72266
3.318	472.62268
3.3185	435.56213
3.319	397.49451
3.3195	374.43237
3.32	347.44263
3.3205	416.3269
3.321	468.69507
3.3215	501.72729
3.322	612.5061
3.3225	721.67358
3.323	702.63977
3.3235	621.36841
3.324	516.22925
3.3245	418.8446
3.325	325.79041
3.3255	262.54578
3.326	178.75671
3.3265	72.50977
3.327	-187.82043
3.3275	-830.53894
3.328	-1558.75854
3.3285	-2102.48096
3.329	-2393.82935
3.3295	-2190.70117
3.33	-1638.7207
3.3305	-1006.67725
3.331	-461.24268
3.3315	18.93311
3.332	299.20349
3.3325	569.10095
3.333	746.54846
3.3335	839.50195
3.334	808.58459
3.3345	695.28809
3.335	689.34631
3.3355	772.63184
3.336	929.13208
3.3365	967.60254
3.337	875.05188
3.3375	739.09607
3.338	687.23145
3.3385	664.87427
3.339	633.45337
3.3395	586.52344
3.34	514.21509
3.3405	307.26013
3.341	54.38232
3.3415	-288.32703
3.342	-663.66577
3.3425	-929.73633
3.343	-874.54834
3.3435	-579.17175
3.344	-310.07996
3.3445	-94.76624
3.345	89.93225
3.3455	246.23108
3.346	334.552
3.3465	354.19006
3.347	306.45447
3.3475	192.453
3.348	67.27295
3.3485	-28.29895
3.349	-41.59241
3.3495	-70.3949
3.35	-84.69543
3.3505	-14.50195
3.351	110.6781
3.3515	181.87866
3.352	115.91492
3.3525	-8.8623
3.353	-80.26428
3.3535	-141.39404
3.354	-192.453
3.3545	-260.3302
3.355	-280.67322
3.3555	-293.76526
3.356	-390.84778
3.3565	-509.48181
3.357	-663.9679
3.3575	-795.39185
3.358	-798.71521
3.3585	-636.47461
3.359	-353.78723
3.3595	-44.0094
3.36	213.50098
3.3605	313.80615
3.361	60.82764
3.3615	-200.0061
3.362	-301.92261
3.3625	-302.32544
3.363	-166.97388
3.3635	-19.63806
3.364	102.52075
3.3645	267.17834
3.365	462.14905
3.3655	571.71936
3.366	603.24097
3.3665	594.98291
3.367	364.56299
3.3675	-41.08887
3.368	-331.53076
3.3685	-395.07751
3.369	-291.85181
3.3695	-220.34912
3.37	-207.65991
3.3705	-212.4939
3.371	-99.60022
3.3715	23.76709
3.372	217.83142
3.3725	454.79736
3.373	458.32214
3.3735	114.90784
3.374	-236.76453
3.3745	-375.03662
3.375	-230.72205
3.3755	-133.3374
3.376	-7.65381
3.3765	147.03369
3.377	395.48035
3.3775	611.90186
3.378	749.97253
3.3785	828.22266
3.379	772.63184
3.3795	675.85144
3.38	543.11829
3.3805	351.06812
3.381	158.81653
3.3815	-19.03381
3.382	-290.94543
3.3825	-519.25049
3.383	-571.92078
3.3835	-535.46448
3.384	-498.50464
3.3845	-400.61646
3.385	-205.44434
3.3855	-46.42639
3.386	-62.74109
3.3865	-230.01709
3.387	-290.74402
3.3875	-186.20911
3.388	30.51453
3.3885	100.50659
3.389	36.35559
3.3895	17.6239
3.39	100.50659
3.3905	241.4978
3.391	263.25073
3.3915	135.35156
3.392	65.86304
3.3925	43.40515
3.393	23.36426
3.3935	70.19348
3.394	161.23352
3.3945	300.10986
3.395	413.20496
3.3955	477.8595
3.396	439.69116
3.3965	283.89587
3.397	84.69543
3.3975	-46.12427
3.398	-117.82837
3.3985	-141.39404
3.399	-215.31372
3.3995	-511.09314
3.4	-750.67749
3.4005	-776.45874
3.401	-580.78308
3.4015	-305.34668
3.402	-73.81897
3.4025	137.26501
3.403	320.755
3.4035	457.51648
3.404	377.75574
3.4045	258.81958
3.405	201.01318
3.4055	264.76135
3.406	296.68579
3.4065	224.88098
3.407	-84.2926
3.4075	-425.49133
3.408	-610.59265
3.4085	-615.42664
3.409	-546.84448
3.4095	-366.37573
3.41	-201.71814
3.4105	-5.13611
3.411	161.13281
3.4115	194.9707
3.412	247.64099
3.4125	297.18933
3.413	276.84631
3.4135	151.56555
3.414	-205.14221
3.4145	-461.84692
3.415	-444.22302
3.4155	-246.5332
3.416	-44.61365
3.4165	120.84961
3.417	242.60559
3.4175	297.89429
3.418	313.00049
3.4185	168.68591
3.419	-413.20496
3.4195	-1167.70935
3.42	-1472.14966
3.4205	-1244.65027
3.421	-770.61768
3.4215	-255.2948
3.422	149.24927
3.4225	432.13806
3.423	653.29285
3.4235	828.52478
3.424	917.85278
3.4245	918.85986
3.425	830.53894
3.4255	793.47839
3.426	799.42017
3.4265	886.43188
3.427	921.07544
3.4275	968.50891
3.428	1054.41284
3.4285	975.8606
3.429	724.69482
3.4295	472.72339
3.43	158.21228
3.4305	-160.52856
3.431	-302.42615
3.4315	-318.94226
3.432	-275.63782
3.4325	-203.02734
3.433	-110.17456
3.4335	-23.46497
3.434	28.29895
3.4345	47.33276
3.435	46.82922
3.4355	-57.9071
3.436	-348.85254
3.4365	-710.69641
3.437	-1033.86841
3.4375	-1198.92883
3.438	-1144.54651
3.4385	-876.5625
3.439	-583.40149
3.4395	-369.7998
3.44	-207.35779
3.4405	-18.12744
3.441	155.896
3.4415	172.51282
3.442	172.41211
3.4425	166.97388
3.443	212.19177
3.4435	272.51587
3.444	347.24121
3.4445	340.09094
3.445	157.10449
3.4455	29.30603
3.446	24.37134
3.4465	-49.74976
3.447	-249.65515
3.4475	-378.86353
3.448	-340.29236
3.4485	-177.74963
3.449	-18.12744
3.4495	131.12183
3.45	176.54114
3.4505	109.4696
3.451	90.5365
3.4515	147.03369
3.452	227.6001
3.4525	224.78027
3.453	141.19263
3.4535	19.53735
3.454	-76.33667
3.4545	-87.51526
3.455	-81.27136
3.4555	-147.33582
3.456	-252.37427
3.4565	-271.81091
3.457	-150.25635
3.4575	15.60974
3.458	117.02271
3.4585	101.11084
3.459	-148.64502
3.4595	-393.96973
3.46	-442.61169
3.4605	-418.64319
3.461	-516.32996
3.4615	-467.08374
3.462	-261.94153
3.4625	-4.22974
3.463	45.52002
3.4635	-54.0802
3.464	-59.31702
3.4645	-172.00928
3.465	-289.13269
3.4655	-212.29248
3.466	72.9126
3.4665	365.26794
3.467	466.47949
3.4675	514.11438
3.468	671.42029
3.4685	815.13062
3.469	798.31238
3.4695	666.38489
3.47	510.08606
3.4705	444.62585
3.471	319.14368
3.4715	119.94324
3.472	-45.82214
3.4725	-173.5199
3.473	-305.24597
3.4735	-369.29626
3.474	-365.67078
3.4745	-312.39624
3.475	-213.60168
3.4755	-107.35474
3.476	0.40283
3.4765	49.54834
3.477	35.85205
3.4775	12.28638
3.478	-76.53809
3.4785	-366.97998
3.479	-557.51953
3.4795	-511.8988
3.48	-227.19727
3.4805	122.05811
3.481	400.81787
3.4815	500.11597
3.482	495.18127
3.4825	441.50391
3.483	356.20422
3.4835	276.6449
3.484	162.84485
3.4845	-23.56567
3.485	-178.25317
3.4855	-245.52612
3.486	-199.9054
3.4865	-88.42163
3.487	57.9071
3.4875	186.51123
3.488	276.84631
3.4885	340.49377
3.489	376.95007
3.4895	260.73303
3.49	175.53406
3.4905	171.80786
3.491	225.78735
3.4915	221.85974
3.492	157.60803
3.4925	112.39014
3.493	104.13208
3.4935	47.03064
3.494	-65.66162
3.4945	-240.79285
3.495	-404.64478
3.4955	-481.38428
3.496	-440.59753
3.4965	-358.4198
3.497	-299.60632
3.4975	-224.98169
3.498	-141.99829
3.4985	-56.49719
3.499	-16.81824
3.4995	13.89771
3.5	117.92908
3.5005	195.47424
3.501	233.84399
3.5015	238.9801
3.502	265.26489
3.5025	274.93286
3.503	292.95959
3.5035	276.84631
3.504	124.07227
3.5045	-90.43579
3.505	-243.51196
3.5055	-273.72437
3.506	-356.20422
3.5065	-361.54175
3.507	-290.24048
3.5075	-149.14856
3.508	9.46655
3.5085	97.18323
3.509	-2.21558
3.5095	-236.76453
3.51	-638.48877
3.5105	-1079.38843
3.511	-1489.27002
3.5115	-1681.82373
3.512	-1501.85852
3.5125	-1143.43872
3.513	-721.97571
3.5135	-233.54187
3.514	292.35535
3.5145	661.24878
3.515	846.04797
3.5155	949.97864
3.516	1021.98486
3.5165	1049.98169
3.517	1045.047
3.5175	1035.47974
3.518	942.92908
3.5185	713.0127
3.519	319.14368
3.5195	-22.05505
3.52	-239.28223
3.5205	-275.63782
3.521	-192.55371
3.5215	-64.25171
3.522	68.48145
3.5225	127.09351
3.523	169.18945
3.5235	121.35315
3.524	-217.73071
3.5245	-788.24158
3.525	-1098.22083
3.5255	-920.06836
3.526	-496.18835
3.5265	-122.05811
3.527	131.62537
3.5275	376.34583
3.528	665.98206
3.5285	869.31152
3.529	981.29883
3.5295	1018.25867
3.53	964.68201
3.5305	841.01257
3.531	729.02527
3.5315	609.18274
3.532	501.22375
3.5325	416.83044
3.533	376.24512
3.5335	380.77698
3.534	371.81396
3.5345	368.28918
3.535	345.02563
3.5355	300.6134
3.536	253.28064
3.5365	-13.39417
3.537	-340.09094
3.5375	-519.3512
3.538	-502.13013
3.5385	-462.14905
3.539	-430.1239
3.5395	-391.25061
3.54	-308.77075
3.5405	-220.34912
3.541	-186.30981
3.5415	-159.11865
3.542	-100.90942
3.5425	-14.80408
3.543	48.84338
3.5435	63.44604
3.544	79.2572
3.5445	58.41064
3.545	-15.00549
3.5455	-50.95825
3.546	-90.73792
3.5465	-174.42627
3.547	-267.98401
3.5475	-445.2301
3.548	-616.43372
3.5485	-672.8302
3.549	-746.44775
3.5495	-926.61438
3.55	-999.8291
3.5505	-874.0448
3.551	-614.82239
3.5515	-334.65271
3.552	-75.4303
3.5525	178.25317
3.553	416.93115
3.5535	574.23706
3.554	659.0332
3.5545	734.76562
3.555	753.39661
3.5555	714.72473
3.556	624.28894
3.5565	571.31653
3.557	529.62341
3.5575	421.66443
3.558	-5.74036
3.5585	-582.79724
3.559	-996.40503
3.5595	-1287.45117
3.56	-1514.54773
3.5605	-1548.88916
3.561	-1226.62354
3.5615	-738.59253
3.562	-262.74719
3.5625	96.98181
3.563	412.60071
3.5635	622.07336
3.564	625.19531
3.5645	578.4668
3.565	632.94983
3.5655	740.7074
3.566	751.08032
3.5665	533.75244
3.567	226.19019
3.5675	82.88269
3.568	123.87085
3.5685	159.21936
3.569	128.20129
3.5695	100.80872
3.57	13.09204
3.5705	-33.9386
3.571	18.93311
3.5715	186.51123
3.572	289.03198
3.5725	287.01782
3.573	290.5426
3.5735	276.24207
3.574	88.11951
3.5745	-296.08154
3.575	-614.72168
3.5755	-812.10938
3.576	-862.86621
3.5765	-805.05981
3.577	-565.47546
3.5775	-227.39868
3.578	117.02271
3.5785	269.69604
3.579	307.26013
3.5795	387.62512
3.58	499.10889
3.5805	601.52893
3.581	633.15125
3.5815	581.08521
3.582	585.41565
3.5825	689.04419
3.583	755.8136
3.5835	732.04651
3.584	530.63049
3.5845	294.06738
3.585	166.87317
3.5855	99.49951
3.586	32.52869
3.5865	-3.32336
3.587	-4.02832
3.5875	-6.3446
3.588	-28.50037
3.5885	-80.26428
3.589	-255.2948
3.5895	-472.8241
3.59	-731.03943
3.5905	-890.05737
3.591	-841.3147
3.5915	-670.51392
3.592	-484.70764
3.5925	-322.86987
3.593	-188.22327
3.5935	-58.61206
3.594	51.46179
3.5945	138.17139
3.595	193.05725
3.5955	226.89514
3.596	236.4624
3.5965	283.89587
3.597	340.49377
3.5975	426.59912
3.598	442.20886
3.5985	291.7511
3.599	50.75684
3.5995	-217.63
3.6	-525.49438
3.6005	-658.42896
3.601	-607.37
3.6015	-437.37488
3.602	-232.13196
3.6025	-0.40283
3.603	135.75439
3.6035	208.36487
3.604	309.87854
3.6045	309.77783
3.605	35.44922
3.6055	-272.61658
3.606	-476.55029
3.6065	-595.98999
3.607	-610.08911
3.6075	-527.50854
3.608	-249.45374
3.6085	132.22961
3.609	427.20337
3.6095	517.53845
3.61	473.73047
3.6105	339.38599
3.611	-81.47278
3.6115	-452.48108
3.612	-650.67444
3.6125	-685.82153
3.613	-690.4541
3.6135	-620.0592
3.614	-259.021
3.6145	164.45618
3.615	398.90442
3.6155	377.15149
3.616	312.09412
3.6165	311.28845
3.617	410.18372
3.6175	498.50464
3.618	574.03564
3.6185	668.60046
3.619	703.64685
3.6195	753.79944
3.62	828.32336
3.6205	921.07544
3.621	888.84888
3.6215	738.08899
3.622	562.05139
3.6225	337.67395
3.623	102.42004
3.6235	-314.10828
3.624	-742.11731
3.6245	-919.16199
3.625	-799.42017
3.6255	-608.6792
3.626	-513.30872
3.6265	-393.16406
3.627	-398.80371
3.6275	-433.14514
3.628	-510.28748
3.6285	-790.35645
3.629	-1116.24756
3.6295	-1213.22937
3.63	-1082.71179
3.6305	-782.80334
3.631	-451.97754
3.6315	-125.58289
3.632	40.68604
3.6325	143.91174
3.633	193.05725
3.6335	262.04224
3.634	353.58582
3.6345	447.64709
3.635	564.26697
3.6355	710.89783
3.636	856.21948
3.6365	1033.7677
3.637	1264.28833
3.6375	1313.63525
3.638	1144.54651
3.6385	897.20764
3.639	610.49194
3.6395	390.74707
3.64	271.50879
3.6405	236.56311
3.641	271.20667
3.6415	252.87781
3.642	183.38928
3.6425	78.14941
3.643	-130.31616
3.6435	-362.2467
3.644	-617.64221
3.6445	-816.54053
3.645	-954.40979
3.6455	-887.9425
3.646	-692.9718
3.6465	-447.34497
3.647	-201.71814
3.6475	16.11328
3.648	98.39172
3.6485	30.51453
3.649	-91.24146
3.6495	-299.40491
3.65	-394.47327
3.6505	-371.51184
3.651	-175.33264
3.6515	59.71985
3.652	304.54102
3.6525	531.63757
3.653	559.6344
3.6535	34.94568
3.654	-848.76709
3.6545	-1335.08606
3.655	-1299.53613
3.6555	-980.19104
3.656	-578.36609
3.6565	-203.63159
3.657	136.15723
3.6575	400.81787
3.658	672.02454
3.6585	881.5979
3.659	1003.65601
3.6595	909.19189
3.66	522.27173
3.6605	102.11792
3.661	-33.43506
3.6615	116.01562
3.662	384.60388
3.6625	527.30713
3.663	581.68945
3.6635	618.04504
3.664	594.98291
3.6645	465.77454
3.665	331.22864
3.6655	247.33887
3.666	176.94397
3.6665	62.8418
3.667	-41.29028
3.6675	-175.03052
3.668	-245.52612
3.6685	-271.40808
3.669	-171.90857
3.6695	5.23682
3.67	147.53723
3.6705	244.21692
3.671	287.72278
3.6715	302.62756
3.672	303.0304
3.6725	222.86682
3.673	123.97156
3.6735	53.27454
3.674	28.29895
3.6745	-6.94885
3.675	-68.58215
3.6755	-88.52234
3.676	-86.10535
3.6765	-93.0542
3.677	-93.35632
3.6775	-101.01013
3.678	-91.24146
3.6785	-43.70728
3.679	27.89612
3.6795	85.19897
3.68	72.61047
3.6805	-72.20764
3.681	-440.59753
3.6815	-865.58533
3.682	-1261.66992
3.6825	-1391.68396
3.683	-1278.58887
3.6835	-1110.20508
3.684	-843.22815
3.6845	-544.32678
3.685	-216.72363
3.6855	44.61365
3.686	239.98718
3.6865	358.4198
3.687	433.34656
3.6875	412.5
3.688	404.34265
3.6885	309.97925
3.689	139.37988
3.6895	83.99048
3.69	276.04065
3.6905	451.87683
3.691	345.42847
3.6915	209.87549
3.692	156.70166
3.6925	222.46399
3.693	272.81799
3.6935	182.98645
3.694	49.95117
3.6945	-11.68213
3.695	12.18567
3.6955	-13.39417
3.696	-124.87793
3.6965	-359.93042
3.697	-710.5957
3.6975	-868.70728
3.698	-750.37537
3.6985	-517.94128
3.699	-255.89905
3.6995	-19.73877
3.7	211.38611
3.7005	422.67151
3.701	545.03174
3.7015	622.17407
3.702	633.8562
3.7025	599.51477
3.703	438.38196
3.7035	241.59851
3.704	122.56165
3.7045	-40.68604
3.705	-465.3717
3.7055	-1033.66699
3.706	-1276.17188
3.7065	-1264.48975
3.707	-1101.94702
3.7075	-802.64282
3.708	-494.77844
3.7085	-215.41443
3.709	35.54993
3.7095	279.26331
3.71	501.62659
3.7105	693.87817
3.711	859.94568
3.7115	975.65918
3.712	1063.87939
3.7125	1102.85339
3.713	1135.98633
3.7135	1190.06653
3.714	1220.48035
3.7145	1137.49695
3.715	916.24146
3.7155	689.54773
3.716	546.64307
3.7165	421.06018
3.717	275.83923
3.7175	153.3783
3.718	64.45312
3.7185	3.12195
3.719	-26.78833
3.7195	-45.62073
3.72	-59.71985
3.7205	-57.00073
3.721	-50.65613
3.7215	-46.22498
3.722	-47.7356
3.7225	-77.54517
3.723	-194.66858
3.7235	-377.2522
3.724	-532.94678
3.7245	-589.04114
3.725	-547.0459
3.7255	-486.7218
3.726	-520.76111
3.7265	-525.6958
3.727	-457.41577
3.7275	-392.3584
3.728	-308.36792
3.7285	-272.11304
3.729	-244.21692
3.7295	-245.92896
3.73	-479.47083
3.7305	-762.46033
3.731	-916.64429
3.7315	-994.7937
3.732	-1283.42285
3.7325	-1400.64697
3.733	-1252.70691
3.7335	-1051.49231
3.734	-913.22021
3.7345	-751.18103
3.735	-436.26709
3.7355	-79.05579
3.736	81.87561
3.7365	113.09509
3.737	262.8479
3.7375	488.53455
3.738	596.29211
3.7385	557.62024
3.739	605.55725
3.7395	702.33765
3.74	743.72864
3.7405	690.35339
3.741	698.71216
3.7415	794.18335
3.742	846.04797
3.7425	720.96863
3.743	641.61072
3.7435	651.4801
3.744	725.19836
3.7445	794.98901
3.745	851.78833
3.7455	844.83948
3.746	795.49255
3.7465	702.43835
3.747	625.49744
3.7475	669.50684
3.748	722.27783
3.7485	670.41321
3.749	524.99084
3.7495	340.39307
3.75	163.34839
3.7505	28.19824
3.751	-75.22888
3.7515	-165.26184
3.752	-252.67639
3.7525	-292.35535
3.753	-294.87305
3.7535	-285.80933
3.754	-269.59534
3.7545	-276.44348
3.755	-276.94702
3.7555	-277.55127
3.756	-299.70703
3.7565	-320.45288
3.757	-461.74622
3.7575	-543.62183
3.758	-558.12378
3.7585	-540.60059
3.759	-624.08752
3.7595	-793.67981
3.76	-916.34216
3.7605	-968.50891
3.761	-923.69385
3.7615	-790.55786
3.762	-554.69971
3.7625	-330.12085
3.763	-154.38538
3.7635	-8.8623
3.764	114.70642
3.7645	215.41443
3.765	291.95251
3.7655	154.18396
3.766	-92.04712
3.7665	-197.58911
3.767	-156.90308
3.7675	47.8363
3.768	413.20496
3.7685	816.84265
3.769	973.54431
3.7695	887.53967
3.77	768.09998
3.7705	672.42737
3.771	593.27087
3.7715	521.66748
3.772	342.40723
3.7725	145.01953
3.773	66.56799
3.7735	13.89771
3.774	-79.35791
3.7745	-140.48767
3.775	-244.41833
3.7755	-247.43958
3.776	-157.30591
3.7765	-47.93701
3.777	-11.17859
3.7775	-46.22498
3.778	-188.02185
3.7785	-540.39917
3.779	-1029.53796
3.7795	-1284.42993
3.78	-1198.72742
3.7805	-913.72375
3.781	-581.38733
3.7815	-234.85107
3.782	78.35083
3.7825	292.75818
3.783	434.95789
3.7835	462.24976
3.784	456.71082
3.7845	445.2301
3.785	403.7384
3.7855	246.63391
3.786	22.35718
3.7865	-272.81799
3.787	-691.76331
3.7875	-882.9071
3.788	-910.5011
3.7885	-964.17847
3.789	-985.02502
3.7895	-744.23218
3.79	-225.68665
3.7905	311.79199
3.791	727.91748
3.7915	923.29102
3.792	937.49084
3.7925	817.54761
3.793	723.98987
3.7935	680.08118
3.794	621.36841
3.7945	592.56592
3.795	510.38818
3.7955	435.05859
3.796	309.375
3.7965	41.59241
3.797	-186.30981
3.7975	-234.34753
3.798	-217.32788
3.7985	-137.86926
3.799	-34.24072
3.7995	90.13367
3.8	186.1084
3.8005	278.05481
3.801	423.88
3.8015	561.95068
3.802	606.66504
3.8025	544.5282
