Alex_Venditti_Right_1.c3d  



Time(s):	C_L_bicipite(μV):
0	-3.92761
0.0005	-16.61682
0.001	-12.5885
0.0015	-17.72461
0.002	-13.797
0.0025	-16.41541
0.003	-18.53027
0.0035	-15.00549
0.004	-8.56018
0.0045	-8.96301
0.005	-5.43823
0.0055	4.02832
0.006	6.44531
0.0065	9.06372
0.007	4.53186
0.0075	3.12195
0.008	6.04248
0.0085	8.7616
0.009	8.7616
0.0095	3.7262
0.01	2.71912
0.0105	3.12195
0.011	5.74036
0.0115	-0.30212
0.012	-2.61841
0.0125	-3.12195
0.013	0.60425
0.0135	-0.70496
0.014	4.63257
0.0145	1.10779
0.015	-1.91345
0.0155	5.0354
0.016	10.67505
0.0165	7.5531
0.017	1.2085
0.0175	3.7262
0.018	1.71204
0.0185	1.91345
0.019	2.01416
0.0195	0
0.02	0.90637
0.0205	5.13611
0.021	6.74744
0.0215	6.04248
0.022	8.45947
0.0225	1.2085
0.023	-4.22974
0.0235	0.90637
0.024	1.71204
0.0245	-2.31628
0.025	-6.3446
0.0255	-3.7262
0.026	-5.33752
0.0265	-8.05664
0.027	-3.32336
0.0275	-0.90637
0.028	3.02124
0.0285	3.52478
0.029	9.36584
0.0295	13.19275
0.03	8.05664
0.0305	8.66089
0.031	4.12903
0.0315	2.21558
0.032	5.23682
0.0325	-2.21558
0.033	-4.02832
0.0335	-12.28638
0.034	-23.06213
0.0345	-25.07629
0.035	-28.9032
0.0355	-18.53027
0.036	-11.07788
0.0365	-15.00549
0.037	-12.48779
0.0375	-4.33044
0.038	-1.91345
0.0385	-1.61133
0.039	-7.25098
0.0395	-8.35876
0.04	-5.74036
0.0405	0.70496
0.041	-4.43115
0.0415	-8.15735
0.042	-1.51062
0.0425	-3.22266
0.043	-0.30212
0.0435	-6.2439
0.044	-15.71045
0.0445	-21.24939
0.045	-20.44373
0.0455	-19.33594
0.046	-16.21399
0.0465	-17.6239
0.047	-12.99133
0.0475	-17.42249
0.048	-12.99133
0.0485	-7.75452
0.049	-10.37292
0.0495	0.60425
0.05	2.81982
0.0505	4.53186
0.051	1.51062
0.0515	0.70496
0.052	-4.53186
0.0525	-8.56018
0.053	-6.84814
0.0535	-11.88354
0.054	-3.92761
0.0545	-1.00708
0.055	1.91345
0.0555	0.70496
0.056	7.04956
0.0565	10.57434
0.057	12.38708
0.0575	10.47363
0.058	12.99133
0.0585	10.57434
0.059	10.47363
0.0595	5.13611
0.06	8.35876
0.0605	0.70496
0.061	6.94885
0.0615	4.63257
0.062	11.38
0.0625	6.44531
0.063	2.31628
0.0635	-11.38
0.064	-10.87646
0.0645	-19.23523
0.065	-22.15576
0.0655	-26.3855
0.066	-28.50037
0.0665	-24.67346
0.067	-20.84656
0.0675	-18.8324
0.068	-15.50903
0.0685	-12.89062
0.069	-14.50195
0.0695	-13.09204
0.07	-9.56726
0.0705	-3.42407
0.071	1.00708
0.0715	0.70496
0.072	-0.10071
0.0725	3.92761
0.073	7.85522
0.0735	13.59558
0.074	17.01965
0.0745	21.3501
0.075	25.27771
0.0755	23.46497
0.076	20.84656
0.0765	13.19275
0.077	10.67505
0.0775	0.10071
0.078	-4.12903
0.0785	-6.04248
0.079	-6.54602
0.0795	-9.56726
0.08	-10.17151
0.0805	-12.5885
0.081	-14.30054
0.0815	-20.24231
0.082	-15.30762
0.0825	-12.78992
0.083	-1.61133
0.0835	0.60425
0.084	-1.61133
0.0845	11.48071
0.085	5.94177
0.0855	8.66089
0.086	7.95593
0.0865	1.2085
0.087	5.23682
0.0875	6.2439
0.088	10.67505
0.0885	8.15735
0.089	9.66797
0.0895	7.65381
0.09	15.71045
0.0905	17.92603
0.091	9.26514
0.0915	5.13611
0.092	0.30212
0.0925	6.84814
0.093	4.22974
0.0935	8.25806
0.094	9.66797
0.0945	7.25098
0.095	6.74744
0.0955	13.59558
0.096	6.84814
0.0965	5.53894
0.097	6.74744
0.0975	-2.01416
0.098	-6.74744
0.0985	-0.90637
0.099	-1.3092
0.0995	8.15735
0.1	10.77576
0.1005	20.64514
0.101	22.96143
0.1015	21.3501
0.102	19.03381
0.1025	23.56567
0.103	27.89612
0.1035	28.70178
0.104	32.32727
0.1045	29.70886
0.105	22.05505
0.1055	21.14868
0.106	19.73877
0.1065	14.30054
0.107	7.45239
0.1075	6.3446
0.108	3.92761
0.1085	-2.01416
0.109	-3.62549
0.1095	-6.54602
0.11	-3.92761
0.1105	-10.67505
0.111	-14.40125
0.1115	-17.52319
0.112	-13.29346
0.1125	-14.30054
0.113	-14.60266
0.1135	-3.42407
0.114	-1.00708
0.1145	3.02124
0.115	9.56726
0.1155	13.29346
0.116	15.00549
0.1165	10.47363
0.117	14.90479
0.1175	17.72461
0.118	18.12744
0.1185	26.48621
0.119	26.28479
0.1195	30.91736
0.12	33.33435
0.1205	27.49329
0.121	28.50037
0.1215	22.76001
0.122	16.51611
0.1225	16.51611
0.123	6.44531
0.1235	9.66797
0.124	9.97009
0.1245	10.67505
0.125	17.12036
0.1255	18.93311
0.126	20.94727
0.1265	23.36426
0.127	22.05505
0.1275	35.44922
0.128	53.87878
0.1285	61.83472
0.129	78.25012
0.1295	105.13916
0.13	116.61987
0.1305	97.08252
0.131	77.74658
0.1315	50.65613
0.132	26.98975
0.1325	9.06372
0.133	9.66797
0.1335	7.5531
0.134	17.32178
0.1345	30.2124
0.135	30.61523
0.1355	23.16284
0.136	7.5531
0.1365	-5.0354
0.137	-27.19116
0.1375	-42.49878
0.138	-56.90002
0.1385	-65.3595
0.139	-61.33118
0.1395	-55.08728
0.14	-60.72693
0.1405	-54.58374
0.141	-58.51135
0.1415	-57.40356
0.142	-47.8363
0.1425	-42.29736
0.143	-31.32019
0.1435	-17.92603
0.144	-4.93469
0.1445	10.57434
0.145	22.15576
0.1455	25.78125
0.146	23.06213
0.1465	26.98975
0.147	28.60107
0.1475	29.30603
0.148	32.7301
0.1485	42.90161
0.149	38.06763
0.1495	87.21313
0.15	147.03369
0.1505	190.33813
0.151	216.92505
0.1515	258.21533
0.152	259.42383
0.1525	219.54346
0.153	165.86609
0.1535	106.9519
0.154	63.94958
0.1545	39.17542
0.155	15.30762
0.1555	-10.57434
0.156	-39.37683
0.1565	-55.49011
0.157	-72.50977
0.1575	-88.92517
0.158	-82.88269
0.1585	-66.87012
0.159	-51.66321
0.1595	-52.46887
0.16	-59.71985
0.1605	-67.47437
0.161	-68.38074
0.1615	-59.21631
0.162	-53.27454
0.1625	-41.59241
0.163	-18.63098
0.1635	-10.27222
0.164	-1.3092
0.1645	12.48779
0.165	26.08337
0.1655	60.62622
0.166	71.30127
0.1665	56.49719
0.167	67.17224
0.1675	98.89526
0.168	121.45386
0.1685	141.99829
0.169	145.22095
0.1695	103.72925
0.17	97.48535
0.1705	159.21936
0.171	153.27759
0.1715	118.13049
0.172	105.03845
0.1725	168.58521
0.173	192.25159
0.1735	203.7323
0.174	191.24451
0.1745	150.65918
0.175	66.87012
0.1755	-9.06372
0.176	-103.52783
0.1765	-182.28149
0.177	-254.79126
0.1775	-304.23889
0.178	-337.47253
0.1785	-356.50635
0.179	-361.23962
0.1795	-339.68811
0.18	-308.26721
0.1805	-283.19092
0.181	-250.46082
0.1815	-227.80151
0.182	-211.58752
0.1825	-190.94238
0.183	-171.80786
0.1835	-139.98413
0.184	-104.13208
0.1845	-64.25171
0.185	-24.87488
0.1855	20.54443
0.186	64.45312
0.1865	140.08484
0.187	210.78186
0.1875	240.89355
0.188	261.03516
0.1885	248.84949
0.189	202.72522
0.1895	156.50024
0.19	114.00146
0.1905	107.75757
0.191	125.18005
0.1915	154.08325
0.192	149.55139
0.1925	127.19421
0.193	92.95349
0.1935	82.78198
0.194	65.46021
0.1945	48.94409
0.195	40.2832
0.1955	54.98657
0.196	94.86694
0.1965	157.40662
0.197	166.26892
0.1975	149.34998
0.198	100.90942
0.1985	53.97949
0.199	11.07788
0.1995	-15.81116
0.2	-49.95117
0.2005	-62.53967
0.201	6.3446
0.2015	133.43811
0.202	164.85901
0.2025	159.92432
0.203	127.59705
0.2035	78.35083
0.204	21.14868
0.2045	-56.39648
0.205	-118.83545
0.2055	-157.91016
0.206	-165.86609
0.2065	-171.50574
0.207	-163.5498
0.2075	-170.80078
0.208	-174.52698
0.2085	-176.84326
0.209	-166.57104
0.2095	-102.72217
0.21	-49.54834
0.2105	2.31628
0.211	102.31934
0.2115	201.61743
0.212	254.79126
0.2125	272.21375
0.213	276.24207
0.2135	261.13586
0.214	219.03992
0.2145	166.26892
0.215	117.32483
0.2155	81.37207
0.216	32.22656
0.2165	-21.3501
0.217	-62.53967
0.2175	-91.44287
0.218	-38.974
0.2185	77.24304
0.219	136.45935
0.2195	138.67493
0.22	155.896
0.2205	220.34912
0.221	228.10364
0.2215	250.66223
0.222	272.41516
0.2225	246.73462
0.223	193.56079
0.2235	112.18872
0.224	24.67346
0.2245	-56.19507
0.225	-134.64661
0.2255	-197.18628
0.226	-246.93604
0.2265	-275.33569
0.227	-306.35376
0.2275	-306.75659
0.228	-294.06738
0.2285	-271.40808
0.229	-232.43408
0.2295	-189.73389
0.23	-122.56165
0.2305	30.31311
0.231	267.78259
0.2315	478.76587
0.232	519.85474
0.2325	448.45276
0.233	351.57166
0.2335	238.27515
0.234	93.55774
0.2345	-38.974
0.235	-142.70325
0.2355	-233.9447
0.236	-247.03674
0.2365	-135.75439
0.237	-58.30994
0.2375	-34.94568
0.238	-21.75293
0.2385	-41.99524
0.239	-65.56091
0.2395	-107.65686
0.24	-123.06519
0.2405	-156.29883
0.241	-173.72131
0.2415	-202.62451
0.242	-193.6615
0.2425	-171.80786
0.243	-114.60571
0.2435	-47.03064
0.244	6.74744
0.2445	44.51294
0.245	28.39966
0.2455	-7.95593
0.246	-54.68445
0.2465	-61.83472
0.247	-19.83948
0.2475	24.67346
0.248	44.41223
0.2485	54.38232
0.249	44.0094
0.2495	49.95117
0.25	90.23438
0.2505	105.23987
0.251	78.35083
0.2515	34.64355
0.252	14.09912
0.2525	22.76001
0.253	38.67188
0.2535	51.66321
0.254	64.35242
0.2545	60.12268
0.255	54.88586
0.2555	38.57117
0.256	60.3241
0.2565	66.6687
0.257	33.33435
0.2575	11.2793
0.258	5.74036
0.2585	-3.92761
0.259	-28.80249
0.2595	-42.8009
0.26	-65.15808
0.2605	-75.63171
0.261	-75.83313
0.2615	-77.74658
0.262	-79.15649
0.2625	-80.96924
0.263	-66.97083
0.2635	-46.62781
0.264	-21.24939
0.2645	15.20691
0.265	57.8064
0.2655	100.40588
0.266	105.44128
0.2665	118.63403
0.267	127.19421
0.2675	107.55615
0.268	78.04871
0.2685	51.36108
0.269	53.37524
0.2695	53.97949
0.27	47.63489
0.2705	40.1825
0.271	62.8418
0.2715	82.88269
0.272	79.45862
0.2725	69.58923
0.273	78.45154
0.2735	60.4248
0.274	30.91736
0.2745	-7.35168
0.275	-33.13293
0.2755	-55.79224
0.276	-80.36499
0.2765	-100.6073
0.277	-113.29651
0.2775	-83.99048
0.278	-20.84656
0.2785	44.81506
0.279	64.75525
0.2795	56.49719
0.28	62.13684
0.2805	72.81189
0.281	64.95667
0.2815	78.04871
0.282	102.72217
0.2825	77.84729
0.283	14.40125
0.2835	-28.70178
0.284	-83.18481
0.2845	-98.49243
0.285	-55.59082
0.2855	10.57434
0.286	57.50427
0.2865	63.24463
0.287	44.41223
0.2875	20.74585
0.288	-2.92053
0.2885	-1.2085
0.289	11.68213
0.2895	38.36975
0.29	95.97473
0.2905	136.76147
0.291	160.9314
0.2915	139.27917
0.292	88.62305
0.2925	54.78516
0.293	40.2832
0.2935	66.46729
0.294	86.8103
0.2945	94.86694
0.295	62.74109
0.2955	34.03931
0.296	29.10461
0.2965	13.59558
0.297	2.21558
0.2975	-3.22266
0.298	-13.09204
0.2985	-13.19275
0.299	-40.1825
0.2995	-57.50427
0.3	-65.56091
0.3005	-76.53809
0.301	-102.31934
0.3015	-117.62695
0.302	-107.05261
0.3025	-101.31226
0.303	-85.5011
0.3035	-77.54517
0.304	-91.64429
0.3045	-98.79456
0.305	-87.51526
0.3055	-55.18799
0.306	-13.29346
0.3065	23.06213
0.307	69.1864
0.3075	137.46643
0.308	183.08716
0.3085	181.37512
0.309	133.43811
0.3095	105.23987
0.31	101.71509
0.3105	104.03137
0.311	116.31775
0.3115	119.54041
0.312	90.63721
0.3125	23.8678
0.313	-21.75293
0.3135	-21.45081
0.314	9.06372
0.3145	31.01807
0.315	35.2478
0.3155	38.26904
0.316	26.98975
0.3165	33.23364
0.317	55.69153
0.3175	85.09827
0.318	127.99988
0.3185	134.04236
0.319	109.87244
0.3195	87.81738
0.32	63.64746
0.3205	63.34534
0.321	74.2218
0.3215	70.3949
0.322	58.41064
0.3225	46.12427
0.323	55.79224
0.3235	54.88586
0.324	6.44531
0.3245	-34.64355
0.325	-51.46179
0.3255	-77.54517
0.326	-109.4696
0.3265	-117.12341
0.327	-111.18164
0.3275	-90.5365
0.328	-49.14551
0.3285	2.11487
0.329	42.7002
0.3295	59.01489
0.33	77.84729
0.3305	97.78748
0.331	99.49951
0.3315	91.14075
0.332	63.24463
0.3325	40.2832
0.333	-29.50745
0.3335	-108.36182
0.334	-155.19104
0.3345	-210.98328
0.335	-222.96753
0.3355	-187.31689
0.336	-126.48926
0.3365	-55.99365
0.337	-2.5177
0.3375	51.26038
0.338	112.79297
0.3385	174.52698
0.339	206.45142
0.3395	193.25867
0.34	168.68591
0.3405	152.87476
0.341	128.20129
0.3415	106.9519
0.342	114.505
0.3425	77.34375
0.343	36.95984
0.3435	21.85364
0.344	25.68054
0.3445	55.89294
0.345	84.39331
0.3455	73.01331
0.346	31.92444
0.3465	-25.177
0.347	-65.66162
0.3475	-85.80322
0.348	-90.73792
0.3485	-78.95508
0.349	-67.07153
0.3495	-59.61914
0.35	-39.88037
0.3505	-18.32886
0.351	-8.15735
0.3515	-14.40125
0.352	-0.40283
0.3525	9.06372
0.353	-7.75452
0.3535	-14.09912
0.354	-17.92603
0.3545	-26.58691
0.355	-34.84497
0.3555	-27.19116
0.356	-0.10071
0.3565	34.54285
0.357	55.79224
0.3575	44.0094
0.358	0.30212
0.3585	-42.59949
0.359	-69.08569
0.3595	-75.12817
0.36	-76.84021
0.3605	-70.79773
0.361	-57.50427
0.3615	-41.4917
0.362	-14.50195
0.3625	11.2793
0.363	22.35718
0.3635	22.05505
0.364	20.1416
0.3645	14.30054
0.365	20.64514
0.3655	19.03381
0.366	20.04089
0.3665	16.61682
0.367	12.28638
0.3675	4.02832
0.368	-7.35168
0.3685	3.42407
0.369	10.57434
0.3695	16.41541
0.37	29.70886
0.3705	44.91577
0.371	56.09436
0.3715	63.94958
0.372	74.02039
0.3725	72.9126
0.373	62.74109
0.3735	33.73718
0.374	-1.2085
0.3745	-9.97009
0.375	-2.31628
0.3755	6.04248
0.376	15.50903
0.3765	26.08337
0.377	42.29736
0.3775	45.2179
0.378	46.02356
0.3785	41.4917
0.379	36.55701
0.3795	29.70886
0.38	33.23364
0.3805	29.00391
0.381	16.61682
0.3815	3.52478
0.382	-0.10071
0.3825	-6.74744
0.383	-9.26514
0.3835	-16.51611
0.384	-9.56726
0.3845	-4.53186
0.385	-2.11487
0.3855	-4.63257
0.386	-3.22266
0.3865	-4.02832
0.387	5.94177
0.3875	3.92761
0.388	7.5531
0.3885	2.71912
0.389	-4.73328
0.3895	-4.93469
0.39	-1.10779
0.3905	-8.66089
0.391	-4.73328
0.3915	-6.3446
0.392	-4.63257
0.3925	-5.23682
0.393	-7.15027
0.3935	-3.7262
0.394	-13.29346
0.3945	-7.5531
0.395	-13.69629
0.3955	-17.92603
0.396	-21.04797
0.3965	-28.70178
0.397	-22.15576
0.3975	-27.29187
0.398	-26.78833
0.3985	-27.99683
0.399	-25.88196
0.3995	-23.8678
0.4	-17.92603
0.4005	0.20142
0.401	-3.52478
0.4015	4.93469
0.402	2.92053
0.4025	-15.00549
0.403	-37.36267
0.4035	-48.54126
0.404	-45.92285
0.4045	-30.51453
0.405	-14.09912
0.4055	-15.81116
0.406	-12.68921
0.4065	-11.2793
0.407	0.10071
0.4075	3.7262
0.408	9.16443
0.4085	7.65381
0.409	15.30762
0.4095	30.71594
0.41	38.16833
0.4105	38.16833
0.411	26.08337
0.4115	20.1416
0.412	11.17859
0.4125	10.37292
0.413	2.01416
0.4135	14.40125
0.414	18.02673
0.4145	13.99841
0.415	12.18567
0.4155	15.81116
0.416	18.53027
0.4165	27.19116
0.417	37.16125
0.4175	42.49878
0.418	41.29028
0.4185	26.78833
0.419	18.02673
0.4195	9.76868
0.42	12.5885
0.4205	9.46655
0.421	1.40991
0.4215	0.40283
0.422	-3.52478
0.4225	9.36584
0.423	8.45947
0.4235	8.7616
0.424	12.38708
0.4245	16.91895
0.425	11.07788
0.4255	-0.30212
0.426	-8.7616
0.4265	-13.797
0.427	-12.08496
0.4275	-16.01257
0.428	-18.73169
0.4285	-41.08887
0.429	-56.69861
0.4295	-64.95667
0.43	-54.98657
0.4305	-48.94409
0.431	-38.36975
0.4315	-29.70886
0.432	-18.73169
0.4325	-6.94885
0.433	-5.23682
0.4335	-0.50354
0.434	8.35876
0.4345	9.56726
0.435	-0.40283
0.4355	-21.45081
0.436	-57.20215
0.4365	-84.49402
0.437	-93.65845
0.4375	-90.03296
0.438	-86.10535
0.4385	-83.48694
0.439	-68.98499
0.4395	-46.82922
0.44	-23.8678
0.4405	6.04248
0.441	30.41382
0.4415	49.34692
0.442	31.52161
0.4425	-5.94177
0.443	-22.45789
0.4435	-27.09045
0.444	-3.62549
0.4445	20.54443
0.445	70.99915
0.4455	106.04553
0.446	121.05103
0.4465	104.63562
0.447	100.40588
0.4475	101.41296
0.448	105.34058
0.4485	91.04004
0.449	81.57349
0.4495	61.33118
0.45	45.62073
0.4505	37.46338
0.451	38.57117
0.4515	36.65771
0.452	27.09045
0.4525	7.85522
0.453	-5.53894
0.4535	-11.48071
0.454	-12.48779
0.4545	-20.34302
0.455	-40.48462
0.4555	-86.91101
0.456	-123.46802
0.4565	-137.66785
0.457	-124.57581
0.4575	-111.08093
0.458	-94.3634
0.4585	-77.54517
0.459	-56.5979
0.4595	-24.97559
0.46	3.42407
0.4605	-2.81982
0.461	-7.25098
0.4615	-3.42407
0.462	11.38
0.4625	19.83948
0.463	22.45789
0.4635	25.68054
0.464	33.63647
0.4645	41.59241
0.465	50.85754
0.4655	53.87878
0.466	60.72693
0.4665	48.94409
0.467	48.64197
0.4675	52.26746
0.468	55.89294
0.4685	61.6333
0.469	66.56799
0.4695	63.54675
0.47	52.8717
0.4705	39.88037
0.471	30.11169
0.4715	18.93311
0.472	21.65222
0.4725	21.65222
0.473	16.81824
0.4735	14.30054
0.474	4.02832
0.4745	-4.43115
0.475	-3.02124
0.4755	-1.81274
0.476	-2.61841
0.4765	-7.35168
0.477	-14.90479
0.4775	-15.71045
0.478	-12.99133
0.4785	-17.52319
0.479	-13.69629
0.4795	-18.42957
0.48	-21.75293
0.4805	-16.41541
0.481	-9.76868
0.4815	-14.30054
0.482	-15.30762
0.4825	-19.53735
0.483	-21.45081
0.4835	-17.32178
0.484	-16.91895
0.4845	-12.78992
0.485	-14.30054
0.4855	-13.39417
0.486	-10.57434
0.4865	-6.64673
0.487	-5.33752
0.4875	-7.85522
0.488	-17.01965
0.4885	-19.03381
0.489	-23.26355
0.4895	-26.08337
0.49	-25.37842
0.4905	-31.4209
0.491	-27.99683
0.4915	-28.9032
0.492	-22.25647
0.4925	-22.35718
0.493	-14.90479
0.4935	-16.71753
0.494	-17.12036
0.4945	-9.66797
0.495	-12.78992
0.4955	-8.7616
0.496	-9.97009
0.4965	-9.86938
0.497	-8.66089
0.4975	-8.7616
0.498	-10.0708
0.4985	-13.39417
0.499	-16.61682
0.4995	-31.92444
0.5	-29.50745
0.5005	-27.99683
0.501	-22.25647
0.5015	-21.55151
0.502	-14.40125
0.5025	-5.33752
0.503	1.81274
0.5035	2.21558
0.504	3.52478
0.5045	3.42407
0.505	7.45239
0.5055	10.17151
0.506	14.09912
0.5065	10.37292
0.507	14.60266
0.5075	12.5885
0.508	20.44373
0.5085	19.73877
0.509	27.19116
0.5095	34.24072
0.51	30.71594
0.5105	27.29187
0.511	16.01257
0.5115	8.35876
0.512	-2.5177
0.5125	-8.7616
0.513	-12.08496
0.5135	-12.99133
0.514	-17.6239
0.5145	-14.40125
0.515	-13.09204
0.5155	-10.87646
0.516	-14.80408
0.5165	-13.29346
0.517	-13.19275
0.5175	-1.3092
0.518	-3.02124
0.5185	-2.5177
0.519	4.83398
0.5195	10.0708
0.52	14.09912
0.5205	4.43115
0.521	1.10779
0.5215	3.8269
0.522	2.01416
0.5225	-7.5531
0.523	-4.02832
0.5235	-7.04956
0.524	-40.58533
0.5245	-68.78357
0.525	-77.04163
0.5255	-76.53809
0.526	-75.12817
0.5265	-61.43188
0.527	-50.45471
0.5275	-54.58374
0.528	-48.54126
0.5285	-33.13293
0.529	-23.76709
0.5295	-18.63098
0.53	-6.14319
0.5305	-3.7262
0.531	-2.01416
0.5315	0.70496
0.532	0.20142
0.5325	11.48071
0.533	20.04089
0.5335	23.66638
0.534	39.37683
0.5345	60.52551
0.535	71.50269
0.5355	75.53101
0.536	57.20215
0.5365	36.95984
0.537	21.3501
0.5375	14.09912
0.538	11.58142
0.5385	26.08337
0.539	29.50745
0.5395	36.85913
0.54	31.32019
0.5405	29.50745
0.541	29.10461
0.5415	21.14868
0.542	19.33594
0.5425	23.06213
0.543	23.56567
0.5435	24.67346
0.544	17.92603
0.5445	25.07629
0.545	23.36426
0.5455	24.97559
0.546	20.74585
0.5465	8.35876
0.547	-5.63965
0.5475	-18.12744
0.548	-24.87488
0.5485	-48.84338
0.549	-60.52551
0.5495	-60.62622
0.55	-50.354
0.5505	-42.09595
0.551	-39.67896
0.5515	-39.37683
0.552	-36.35559
0.5525	-30.01099
0.553	-19.83948
0.5535	-11.58142
0.554	4.12903
0.5545	11.17859
0.555	12.89062
0.5555	20.1416
0.556	19.94019
0.5565	19.23523
0.557	20.94727
0.5575	17.12036
0.558	22.6593
0.5585	35.2478
0.559	33.13293
0.5595	45.11719
0.56	55.49011
0.5605	59.1156
0.561	54.48303
0.5615	46.42639
0.562	43.90869
0.5625	44.41223
0.563	41.39099
0.5635	36.35559
0.564	32.83081
0.5645	20.44373
0.565	5.13611
0.5655	-16.11328
0.566	-23.36426
0.5665	-28.70178
0.567	-27.79541
0.5675	-25.07629
0.568	-20.1416
0.5685	-23.8678
0.569	-27.6947
0.5695	-19.33594
0.57	-19.83948
0.5705	-25.37842
0.571	-22.45789
0.5715	-23.46497
0.572	-14.90479
0.5725	-14.19983
0.573	-25.37842
0.5735	-22.45789
0.574	-18.12744
0.5745	-16.61682
0.575	-14.19983
0.5755	-13.19275
0.576	-10.87646
0.5765	-13.09204
0.577	-10.87646
0.5775	-9.46655
0.578	-11.78284
0.5785	-8.35876
0.579	-3.62549
0.5795	-4.43115
0.58	0
0.5805	5.63965
0.581	5.84106
0.5815	14.90479
0.582	18.53027
0.5825	12.68921
0.583	9.56726
0.5835	7.25098
0.584	5.13611
0.5845	7.85522
0.585	4.43115
0.5855	0.40283
0.586	-6.54602
0.5865	-7.25098
0.587	4.12903
0.5875	10.27222
0.588	17.12036
0.5885	15.81116
0.589	16.51611
0.5895	13.69629
0.59	2.81982
0.5905	1.3092
0.591	-11.68213
0.5915	-17.12036
0.592	-19.43665
0.5925	-26.08337
0.593	-35.34851
0.5935	-32.02515
0.594	-33.83789
0.5945	-39.98108
0.595	-32.12585
0.5955	-28.09753
0.596	-20.24231
0.5965	-16.41541
0.597	-8.25806
0.5975	-7.65381
0.598	-4.73328
0.5985	4.83398
0.599	8.05664
0.5995	7.15027
0.6	5.23682
0.6005	3.12195
0.601	5.84106
0.6015	5.74036
0.602	-1.81274
0.6025	0.70496
0.603	-5.0354
0.6035	2.5177
0.604	-2.11487
0.6045	0.60425
0.605	3.8269
0.6055	-1.61133
0.606	-1.2085
0.6065	0.50354
0.607	-1.00708
0.6075	-4.53186
0.608	-6.64673
0.6085	-9.66797
0.609	-13.49487
0.6095	-10.67505
0.61	-14.40125
0.6105	-12.18567
0.611	-11.48071
0.6115	-5.84106
0.612	-7.95593
0.6125	-2.01416
0.613	1.51062
0.6135	7.5531
0.614	4.33044
0.6145	3.42407
0.615	2.01416
0.6155	-1.91345
0.616	-5.0354
0.6165	-4.43115
0.617	4.63257
0.6175	11.68213
0.618	12.48779
0.6185	16.71753
0.619	20.24231
0.6195	13.29346
0.62	11.78284
0.6205	11.38
0.621	10.97717
0.6215	1.10779
0.622	-2.5177
0.6225	-18.42957
0.623	-20.24231
0.6235	-16.21399
0.624	-11.58142
0.6245	-4.12903
0.625	3.42407
0.6255	12.28638
0.626	6.74744
0.6265	5.0354
0.627	0.10071
0.6275	-5.0354
0.628	-10.47363
0.6285	-6.44531
0.629	-9.36584
0.6295	-9.16443
0.63	-8.56018
0.6305	-2.01416
0.631	-0.60425
0.6315	-3.92761
0.632	0.70496
0.6325	-3.8269
0.633	-11.38
0.6335	-12.18567
0.634	-8.15735
0.6345	-4.02832
0.635	-5.33752
0.6355	-1.71204
0.636	2.11487
0.6365	1.71204
0.637	9.36584
0.6375	15.1062
0.638	15.71045
0.6385	10.67505
0.639	5.13611
0.6395	-4.63257
0.64	-7.35168
0.6405	-3.62549
0.641	-5.43823
0.6415	-2.5177
0.642	-4.12903
0.6425	-2.71912
0.643	-5.0354
0.6435	-7.45239
0.644	-10.97717
0.6445	-9.26514
0.645	-11.38
0.6455	-10.77576
0.646	-5.74036
0.6465	-8.25806
0.647	-5.53894
0.6475	-5.84106
0.648	3.12195
0.6485	17.52319
0.649	16.51611
0.6495	19.73877
0.65	15.81116
0.6505	13.797
0.651	12.18567
0.6515	-4.43115
0.652	-20.64514
0.6525	-30.31311
0.653	-31.4209
0.6535	-41.89453
0.654	-37.16125
0.6545	-39.47754
0.655	-38.36975
0.6555	-31.11877
0.656	-26.08337
0.6565	-15.60974
0.657	-10.57434
0.6575	-14.19983
0.658	-7.25098
0.6585	-10.47363
0.659	-5.0354
0.6595	-4.43115
0.66	-4.63257
0.6605	-0.20142
0.661	-5.13611
0.6615	-5.13611
0.662	-6.94885
0.6625	1.2085
0.663	6.3446
0.6635	5.74036
0.664	2.81982
0.6645	-4.83398
0.665	-10.37292
0.6655	-16.41541
0.666	-12.48779
0.6665	-10.0708
0.667	-13.59558
0.6675	-12.48779
0.668	-10.27222
0.6685	-3.12195
0.669	0.10071
0.6695	3.52478
0.67	6.74744
0.6705	7.45239
0.671	10.97717
0.6715	6.3446
0.672	9.97009
0.6725	9.56726
0.673	18.02673
0.6735	14.09912
0.674	13.59558
0.6745	10.87646
0.675	12.18567
0.6755	10.77576
0.676	4.53186
0.6765	4.02832
0.677	-2.41699
0.6775	-8.05664
0.678	-14.09912
0.6785	-19.63806
0.679	-22.35718
0.6795	-27.99683
0.68	-19.73877
0.6805	-19.03381
0.681	-20.54443
0.6815	-13.69629
0.682	-11.38
0.6825	-6.3446
0.683	0.30212
0.6835	0.50354
0.684	-2.71912
0.6845	-2.92053
0.685	8.05664
0.6855	11.48071
0.686	26.58691
0.6865	43.60657
0.687	46.12427
0.6875	35.65063
0.688	23.56567
0.6885	10.37292
0.689	0.10071
0.6895	-5.94177
0.69	12.18567
0.6905	18.22815
0.691	25.98267
0.6915	35.85205
0.692	37.36267
0.6925	27.39258
0.693	12.5885
0.6935	1.3092
0.694	-10.57434
0.6945	-27.49329
0.695	-38.36975
0.6955	-41.08887
0.696	-43.60657
0.6965	-45.3186
0.697	-43.80798
0.6975	-41.79382
0.698	-27.59399
0.6985	-25.98267
0.699	-11.2793
0.6995	-3.12195
0.7	6.94885
0.7005	8.05664
0.701	13.89771
0.7015	34.44214
0.702	53.67737
0.7025	59.1156
0.703	72.20764
0.7035	100.50659
0.704	138.97705
0.7045	165.36255
0.705	162.84485
0.7055	136.05652
0.706	117.22412
0.7065	83.78906
0.707	35.2478
0.7075	-6.54602
0.708	-36.35559
0.7085	-68.58215
0.709	-93.45703
0.7095	-108.86536
0.71	-120.04395
0.7105	-130.31616
0.711	-124.77722
0.7115	-124.77722
0.712	-114.30359
0.7125	-100.00305
0.713	-81.67419
0.7135	-62.43896
0.714	-61.93542
0.7145	-47.93701
0.715	-35.34851
0.7155	-25.57983
0.716	-17.92603
0.7165	3.8269
0.717	20.94727
0.7175	73.61755
0.718	111.68518
0.7185	111.8866
0.719	104.03137
0.7195	83.08411
0.72	62.64038
0.7205	35.95276
0.721	21.95435
0.7215	40.48462
0.722	47.93701
0.7225	42.29736
0.723	21.95435
0.7235	31.32019
0.724	49.64905
0.7245	46.92993
0.725	30.51453
0.7255	6.54602
0.726	-14.30054
0.7265	-41.79382
0.727	-56.49719
0.7275	-55.69153
0.728	-59.61914
0.7285	-30.91736
0.729	-7.35168
0.7295	5.63965
0.73	36.35559
0.7305	52.06604
0.731	42.29736
0.7315	16.41541
0.732	5.43823
0.7325	-8.05664
0.733	-18.12744
0.7335	-30.01099
0.734	-34.14001
0.7345	-40.2832
0.735	-35.14709
0.7355	-32.42798
0.736	-17.82532
0.7365	-23.56567
0.737	-19.53735
0.7375	-12.99133
0.738	-10.37292
0.7385	-5.0354
0.739	-2.81982
0.7395	-3.92761
0.74	-2.61841
0.7405	-4.43115
0.741	5.94177
0.7415	14.60266
0.742	44.51294
0.7425	66.97083
0.743	78.35083
0.7435	92.24854
0.744	99.49951
0.7445	141.59546
0.745	205.54504
0.7455	269.0918
0.746	314.91394
0.7465	370.20264
0.747	372.61963
0.7475	320.35217
0.748	233.13904
0.7485	127.29492
0.749	36.4563
0.7495	-60.92834
0.75	-144.21387
0.7505	-213.29956
0.751	-269.1925
0.7515	-297.69287
0.752	-298.80066
0.7525	-282.48596
0.753	-252.47498
0.7535	-223.06824
0.754	-198.99902
0.7545	-171.70715
0.755	-133.3374
0.7555	-103.02429
0.756	-72.61047
0.7565	-40.78674
0.757	-4.53186
0.7575	21.3501
0.758	34.74426
0.7585	54.78516
0.759	73.91968
0.7595	90.93933
0.76	99.49951
0.7605	109.67102
0.761	117.62695
0.7615	133.3374
0.762	203.93372
0.7625	229.71497
0.763	202.22168
0.7635	160.12573
0.764	110.6781
0.7645	60.12268
0.765	15.91187
0.7655	-32.42798
0.766	-69.79065
0.7665	-55.89294
0.767	-42.8009
0.7675	-16.71753
0.768	4.93469
0.7685	45.62073
0.769	37.16125
0.7695	35.2478
0.77	45.62073
0.7705	23.26355
0.771	4.53186
0.7715	-24.37134
0.772	-55.79224
0.7725	-74.12109
0.773	-79.76074
0.7735	-85.09827
0.774	-102.11792
0.7745	-124.07227
0.775	-112.08801
0.7755	-35.65063
0.776	63.54675
0.7765	125.07935
0.777	150.35706
0.7775	163.04626
0.778	132.93457
0.7785	162.54272
0.779	174.12415
0.7795	186.51123
0.78	317.73376
0.7805	444.12231
0.781	456.10657
0.7815	361.84387
0.782	239.58435
0.7825	95.06836
0.783	-54.48303
0.7835	-186.41052
0.784	-294.2688
0.7845	-383.09326
0.785	-433.74939
0.7855	-448.55347
0.786	-450.06409
0.7865	-398.40088
0.787	-313.70544
0.7875	-194.66858
0.788	-96.57898
0.7885	-14.40125
0.789	13.59558
0.7895	-1.10779
0.79	-39.37683
0.7905	-52.67029
0.791	-49.95117
0.7915	-37.36267
0.792	-22.25647
0.7925	-13.59558
0.793	-12.78992
0.7935	-35.95276
0.794	-69.38782
0.7945	-105.13916
0.795	-93.85986
0.7955	-42.8009
0.796	4.33044
0.7965	29.50745
0.797	55.3894
0.7975	72.30835
0.798	118.13049
0.7985	143.50891
0.799	133.84094
0.7995	107.35474
0.8	102.62146
0.8005	96.37756
0.801	90.13367
0.8015	75.12817
0.802	66.16516
0.8025	36.25488
0.803	21.85364
0.8035	19.63806
0.804	25.57983
0.8045	244.11621
0.805	454.49524
0.8055	562.85706
0.806	609.58557
0.8065	565.27405
0.807	472.21985
0.8075	322.46704
0.808	163.24768
0.8085	24.37134
0.809	-116.72058
0.8095	-224.27673
0.81	-272.01233
0.8105	-281.07605
0.811	-308.77075
0.8115	-305.95093
0.812	-277.24915
0.8125	-245.82825
0.813	-177.74963
0.8135	-95.06836
0.814	-28.80249
0.8145	10.57434
0.815	247.94312
0.8155	492.66357
0.816	513.81226
0.8165	402.83203
0.817	280.4718
0.8175	183.28857
0.818	48.44055
0.8185	-73.61755
0.819	-169.99512
0.8195	-255.49622
0.82	-309.375
0.8205	-316.52527
0.821	-300.31128
0.8215	-236.26099
0.822	-154.28467
0.8225	-78.25012
0.823	-30.81665
0.8235	-19.43665
0.824	-41.99524
0.8245	-57.60498
0.825	-41.18958
0.8255	-12.48779
0.826	-18.93311
0.8265	-66.16516
0.827	-88.82446
0.8275	-83.48694
0.828	-71.20056
0.8285	-61.02905
0.829	-66.26587
0.8295	-74.2218
0.83	-85.5011
0.8305	-100.20447
0.831	-80.66711
0.8315	-36.65771
0.832	12.68921
0.8325	40.48462
0.833	81.97632
0.8335	113.39722
0.834	120.04395
0.8345	118.63403
0.835	130.11475
0.8355	179.76379
0.836	191.04309
0.8365	159.92432
0.837	121.15173
0.8375	82.88269
0.838	51.76392
0.8385	22.05505
0.839	1.3092
0.8395	-11.2793
0.84	-39.67896
0.8405	-38.77258
0.841	-7.95593
0.8415	37.36267
0.842	66.87012
0.8425	55.49011
0.843	34.03931
0.8435	12.78992
0.844	61.23047
0.8445	72.10693
0.845	40.08179
0.8455	6.74744
0.846	-25.98267
0.8465	-52.97241
0.847	-47.13135
0.8475	-16.41541
0.848	-0.10071
0.8485	-3.7262
0.849	-10.87646
0.8495	-16.61682
0.85	-28.80249
0.8505	-35.2478
0.851	-17.01965
0.8515	-26.78833
0.852	-17.52319
0.8525	-29.70886
0.853	-18.22815
0.8535	38.57117
0.854	106.34766
0.8545	142.50183
0.855	143.71033
0.8555	116.41846
0.856	74.82605
0.8565	26.88904
0.857	-15.00549
0.8575	-29.80957
0.858	-34.64355
0.8585	-32.62939
0.859	-4.73328
0.8595	24.37134
0.86	75.93384
0.8605	166.16821
0.861	244.21692
0.8615	248.44666
0.862	245.52612
0.8625	153.27759
0.863	78.65295
0.8635	16.01257
0.864	-38.06763
0.8645	-74.12109
0.865	-59.01489
0.8655	-41.99524
0.866	-20.94727
0.8665	-22.45789
0.867	-62.9425
0.8675	-57.8064
0.868	-0.20142
0.8685	21.85364
0.869	72.71118
0.8695	107.35474
0.87	109.77173
0.8705	94.56482
0.871	101.71509
0.8715	95.16907
0.872	113.29651
0.8725	119.74182
0.873	108.26111
0.8735	73.81897
0.874	45.92285
0.8745	24.16992
0.875	-13.39417
0.8755	-46.62781
0.876	-50.15259
0.8765	-46.72852
0.877	-41.18958
0.8775	-31.82373
0.878	-24.16992
0.8785	8.96301
0.879	35.85205
0.8795	27.29187
0.88	14.30054
0.8805	13.39417
0.881	11.58142
0.8815	3.7262
0.882	-4.12903
0.8825	-23.96851
0.883	-7.85522
0.8835	11.17859
0.884	35.85205
0.8845	43.10303
0.885	34.74426
0.8855	10.57434
0.886	-7.85522
0.8865	-10.47363
0.887	-24.87488
0.8875	-30.41382
0.888	-34.64355
0.8885	-26.58691
0.889	-8.15735
0.8895	-5.84106
0.89	-1.81274
0.8905	0.80566
0.891	0.90637
0.8915	-11.17859
0.892	-24.37134
0.8925	-30.81665
0.893	-33.73718
0.8935	2.71912
0.894	66.87012
0.8945	134.94873
0.895	178.95813
0.8955	182.3822
0.896	155.09033
0.8965	115.91492
0.897	80.26428
0.8975	39.88037
0.898	11.88354
0.8985	-6.14319
0.899	-16.41541
0.8995	-26.88904
0.9	-23.56567
0.9005	15.30762
0.901	69.58923
0.9015	74.82605
0.902	50.65613
0.9025	36.95984
0.903	38.67188
0.9035	43.80798
0.904	24.57275
0.9045	-2.81982
0.905	-16.51611
0.9055	-35.34851
0.906	-48.44055
0.9065	-65.46021
0.907	-64.05029
0.9075	-52.46887
0.908	-51.86462
0.9085	-45.72144
0.909	-46.92993
0.9095	-37.66479
0.91	-22.96143
0.9105	-5.33752
0.911	6.14319
0.9115	20.34302
0.912	17.22107
0.9125	-5.94177
0.913	-90.33508
0.9135	-232.03125
0.914	-284.80225
0.9145	-268.28613
0.915	-240.39001
0.9155	-158.01086
0.916	-42.09595
0.9165	53.87878
0.917	89.42871
0.9175	113.09509
0.918	126.69067
0.9185	138.57422
0.919	157.10449
0.9195	161.23352
0.92	178.25317
0.9205	191.54663
0.921	162.34131
0.9215	53.97949
0.922	8.7616
0.9225	4.33044
0.923	19.73877
0.9235	32.32727
0.924	54.88586
0.9245	78.45154
0.925	110.17456
0.9255	118.53333
0.926	106.14624
0.9265	104.3335
0.927	100.50659
0.9275	99.3988
0.928	75.83313
0.9285	64.75525
0.929	45.3186
0.9295	35.34851
0.93	46.12427
0.9305	42.09595
0.931	27.19116
0.9315	23.66638
0.932	13.39417
0.9325	-1.81274
0.933	-3.42407
0.9335	-4.93469
0.934	-13.19275
0.9345	-12.28638
0.935	-16.3147
0.9355	-23.8678
0.936	-23.56567
0.9365	-22.05505
0.937	-23.8678
0.9375	-21.3501
0.938	-16.41541
0.9385	-2.11487
0.939	3.32336
0.9395	7.5531
0.94	-4.22974
0.9405	-6.54602
0.941	-7.35168
0.9415	-7.85522
0.942	-13.29346
0.9425	-12.28638
0.943	-11.98425
0.9435	-11.38
0.944	-7.5531
0.9445	-11.98425
0.945	-13.29346
0.9455	-10.17151
0.946	-9.16443
0.9465	-28.80249
0.947	-41.59241
0.9475	-49.74976
0.948	-52.16675
0.9485	-52.97241
0.949	-34.03931
0.9495	-24.27063
0.95	-19.33594
0.9505	-11.68213
0.951	-9.56726
0.9515	-3.92761
0.952	0.10071
0.9525	8.25806
0.953	7.45239
0.9535	17.72461
0.954	19.03381
0.9545	10.17151
0.955	6.14319
0.9555	4.12903
0.956	-22.6593
0.9565	-78.75366
0.957	-133.13599
0.9575	-161.13281
0.958	-169.39087
0.9585	-164.95972
0.959	-149.95422
0.9595	-111.38306
0.96	-80.16357
0.9605	-41.39099
0.961	-9.76868
0.9615	12.89062
0.962	38.57117
0.9625	48.23914
0.963	58.91418
0.9635	51.36108
0.964	23.46497
0.9645	18.22815
0.965	27.09045
0.9655	47.8363
0.966	64.35242
0.9665	87.51526
0.967	96.98181
0.9675	91.34216
0.968	91.04004
0.9685	79.55933
0.969	66.87012
0.9695	52.46887
0.97	25.68054
0.9705	-12.5885
0.971	-35.2478
0.9715	-44.71436
0.972	-42.39807
0.9725	-23.16284
0.973	-1.51062
0.9735	13.797
0.974	21.55151
0.9745	22.86072
0.975	30.61523
0.9755	37.56409
0.976	31.32019
0.9765	24.16992
0.977	16.61682
0.9775	0.50354
0.978	-9.86938
0.9785	-11.78284
0.979	-35.34851
0.9795	-49.44763
0.98	-53.27454
0.9805	-42.29736
0.981	-25.78125
0.9815	-24.16992
0.982	-7.85522
0.9825	12.99133
0.983	32.02515
0.9835	44.91577
0.984	65.46021
0.9845	79.86145
0.985	75.73242
0.9855	59.71985
0.986	55.79224
0.9865	58.10852
0.987	65.56091
0.9875	72.20764
0.988	71.7041
0.9885	59.31702
0.989	40.2832
0.9895	31.4209
0.99	28.50037
0.9905	24.27063
0.991	12.5885
0.9915	23.8678
0.992	46.12427
0.9925	60.72693
0.993	35.75134
0.9935	5.33752
0.994	-18.73169
0.9945	-21.85364
0.995	-26.3855
0.9955	-20.74585
0.996	-17.6239
0.9965	-7.04956
0.997	5.43823
0.9975	17.42249
0.998	16.41541
0.9985	23.36426
0.999	28.19824
0.9995	30.81665
1	28.19824
1.0005	23.46497
1.001	23.06213
1.0015	20.34302
1.002	14.30054
1.0025	-1.00708
1.003	-3.42407
1.0035	-7.5531
1.004	-4.53186
1.0045	-1.10779
1.005	3.22266
1.0055	6.2439
1.006	-3.12195
1.0065	-16.51611
1.007	-27.79541
1.0075	-37.56409
1.008	-38.06763
1.0085	-36.25488
1.009	-23.8678
1.0095	-19.63806
1.01	-13.09204
1.0105	-11.78284
1.011	-20.54443
1.0115	-19.43665
1.012	-18.73169
1.0125	-13.59558
1.013	-7.5531
1.0135	-18.12744
1.014	-29.60815
1.0145	-49.34692
1.015	-62.33826
1.0155	-87.71667
1.016	-86.10535
1.0165	-85.5011
1.017	-67.37366
1.0175	-53.17383
1.018	-41.29028
1.0185	-19.53735
1.019	-1.81274
1.0195	16.51611
1.02	29.50745
1.0205	47.03064
1.021	67.47437
1.0215	75.4303
1.022	74.42322
1.0225	72.50977
1.023	66.46729
1.0235	50.2533
1.024	40.08179
1.0245	31.4209
1.025	26.98975
1.0255	36.25488
1.026	33.9386
1.0265	34.24072
1.027	39.37683
1.0275	23.96851
1.028	9.16443
1.0285	2.5177
1.029	5.84106
1.0295	7.5531
1.03	3.32336
1.0305	2.21558
1.031	-0.10071
1.0315	-5.23682
1.032	-4.12903
1.0325	-5.33752
1.033	-8.8623
1.0335	-1.40991
1.034	-12.48779
1.0345	-15.00549
1.035	-14.19983
1.0355	-15.81116
1.036	-16.11328
1.0365	-13.09204
1.037	-11.98425
1.0375	-16.91895
1.038	-16.3147
1.0385	-13.19275
1.039	-19.23523
1.0395	-10.67505
1.04	-12.28638
1.0405	-22.15576
1.041	-30.31311
1.0415	-35.2478
1.042	-38.16833
1.0425	-36.15417
1.043	-25.07629
1.0435	-20.44373
1.044	-12.28638
1.0445	-16.21399
1.045	-26.18408
1.0455	-30.31311
1.046	-26.98975
1.0465	-27.19116
1.047	-31.21948
1.0475	-31.4209
1.048	-12.48779
1.0485	-10.47363
1.049	-3.12195
1.0495	1.91345
1.05	9.56726
1.0505	9.46655
1.051	5.84106
1.0515	5.63965
1.052	3.92761
1.0525	1.51062
1.053	-12.78992
1.0535	-27.49329
1.054	-22.15576
1.0545	-6.44531
1.055	16.91895
1.0555	16.3147
1.056	4.83398
1.0565	2.21558
1.057	6.3446
1.0575	8.7616
1.058	6.3446
1.0585	10.47363
1.059	5.23682
1.0595	4.02832
1.06	10.47363
1.0605	16.51611
1.061	19.63806
1.0615	21.85364
1.062	7.75452
1.0625	6.14319
1.063	4.73328
1.0635	-3.12195
1.064	-1.61133
1.0645	4.73328
1.065	12.78992
1.0655	21.14868
1.066	20.74585
1.0665	9.76868
1.067	0
1.0675	-1.2085
1.068	1.40991
1.0685	-0.30212
1.069	-1.10779
1.0695	1.91345
1.07	8.35876
1.0705	14.09912
1.071	12.38708
1.0715	5.84106
1.072	0.60425
1.0725	2.61841
1.073	-5.63965
1.0735	-11.38
1.074	-3.32336
1.0745	-4.02832
1.075	5.63965
1.0755	21.14868
1.076	22.86072
1.0765	23.36426
1.077	22.55859
1.0775	15.60974
1.078	3.52478
1.0785	3.42407
1.079	-2.5177
1.0795	-4.22974
1.08	-10.0708
1.0805	-18.93311
1.081	-14.19983
1.0815	-23.26355
1.082	-26.3855
1.0825	-14.80408
1.083	-16.71753
1.0835	-14.09912
1.084	-15.81116
1.0845	-22.45789
1.085	-16.11328
1.0855	-15.30762
1.086	-9.86938
1.0865	-8.66089
1.087	-2.31628
1.0875	1.2085
1.088	-3.12195
1.0885	6.44531
1.089	2.41699
1.0895	3.22266
1.09	-5.0354
1.0905	-1.91345
1.091	-12.28638
1.0915	-18.32886
1.092	-21.04797
1.0925	-20.34302
1.093	-18.32886
1.0935	-23.26355
1.094	-20.74585
1.0945	-20.44373
1.095	-30.61523
1.0955	-39.47754
1.096	-51.36108
1.0965	-58.41064
1.097	-70.89844
1.0975	-72.9126
1.098	-73.81897
1.0985	-60.02197
1.099	-53.17383
1.0995	-51.36108
1.1	-44.51294
1.1005	-36.35559
1.101	-21.3501
1.1015	-7.95593
1.102	4.33044
1.1025	13.69629
1.103	18.42957
1.1035	22.45789
1.104	18.93311
1.1045	23.36426
1.105	35.04639
1.1055	45.72144
1.106	56.90002
1.1065	66.97083
1.107	67.67578
1.1075	57.10144
1.108	45.41931
1.1085	31.62231
1.109	13.797
1.1095	12.5885
1.11	5.74036
1.1105	-2.61841
1.111	-12.48779
1.1115	-20.24231
1.112	-19.73877
1.1125	-14.70337
1.113	-20.94727
1.1135	-26.58691
1.114	-30.2124
1.1145	-39.17542
1.115	-41.79382
1.1155	-37.56409
1.116	-26.3855
1.1165	-6.84814
1.117	-0.20142
1.1175	-1.51062
1.118	7.15027
1.1185	15.30762
1.119	20.24231
1.1195	26.78833
1.12	38.16833
1.1205	36.05347
1.121	30.61523
1.1215	18.73169
1.122	18.8324
1.1225	10.57434
1.123	-7.85522
1.1235	-20.04089
1.124	-25.68054
1.1245	-28.60107
1.125	-22.05505
1.1255	-27.39258
1.126	-44.61365
1.1265	-58.41064
1.127	-75.12817
1.1275	-81.47278
1.128	-90.63721
1.1285	-85.60181
1.129	-72.81189
1.1295	-63.64746
1.13	-51.05896
1.1305	-42.49878
1.131	-18.73169
1.1315	-16.81824
1.132	-5.13611
1.1325	6.94885
1.133	16.21399
1.1335	7.95593
1.134	-11.98425
1.1345	-18.73169
1.135	-27.79541
1.1355	-26.08337
1.136	-17.82532
1.1365	-6.14319
1.137	15.40833
1.1375	36.25488
1.138	54.28162
1.1385	61.33118
1.139	66.97083
1.1395	67.77649
1.14	60.02197
1.1405	52.26746
1.141	51.86462
1.1415	43.50586
1.142	43.60657
1.1425	41.89453
1.143	40.38391
1.1435	40.1825
1.144	37.06055
1.1445	40.98816
1.145	47.53418
1.1455	41.29028
1.146	38.87329
1.1465	41.08887
1.147	48.64197
1.1475	53.37524
1.148	38.974
1.1485	29.80957
1.149	23.76709
1.1495	17.82532
1.15	10.97717
1.1505	8.7616
1.151	10.47363
1.1515	-0.50354
1.152	7.85522
1.1525	0.70496
1.153	-16.3147
1.1535	-30.51453
1.154	-32.02515
1.1545	-30.01099
1.155	-23.66638
1.1555	-27.6947
1.156	-33.63647
1.1565	-41.79382
1.157	-34.34143
1.1575	-29.80957
1.158	-26.58691
1.1585	-21.95435
1.159	-18.42957
1.1595	-14.50195
1.16	-11.2793
1.1605	-13.797
1.161	-7.65381
1.1615	-2.31628
1.162	-4.02832
1.1625	-4.22974
1.163	1.00708
1.1635	5.43823
1.164	7.75452
1.1645	5.63965
1.165	20.84656
1.1655	23.76709
1.166	26.18408
1.1665	25.78125
1.167	20.04089
1.1675	12.08496
1.168	4.93469
1.1685	0.40283
1.169	-10.87646
1.1695	-18.12744
1.17	-15.20691
1.1705	-22.76001
1.171	-22.76001
1.1715	-24.37134
1.172	-22.55859
1.1725	-13.49487
1.173	-12.48779
1.1735	-7.65381
1.174	2.61841
1.1745	3.92761
1.175	6.04248
1.1755	-0.90637
1.176	0.40283
1.1765	-1.10779
1.177	-2.41699
1.1775	4.83398
1.178	-1.00708
1.1785	0
1.179	-1.61133
1.1795	-11.58142
1.18	-10.47363
1.1805	-17.22107
1.181	-19.13452
1.1815	-22.86072
1.182	-18.73169
1.1825	-21.14868
1.183	-23.36426
1.1835	-19.94019
1.184	-14.60266
1.1845	-12.38708
1.185	-6.3446
1.1855	-5.23682
1.186	0
1.1865	3.12195
1.187	3.92761
1.1875	7.25098
1.188	9.16443
1.1885	11.07788
1.189	8.35876
1.1895	6.94885
1.19	-1.71204
1.1905	-3.7262
1.191	-10.0708
1.1915	-13.19275
1.192	-13.797
1.1925	-10.87646
1.193	-6.84814
1.1935	-1.61133
1.194	1.3092
1.1945	5.63965
1.195	5.0354
1.1955	0.90637
1.196	0.60425
1.1965	-6.04248
1.197	-1.81274
1.1975	-11.17859
1.198	-9.06372
1.1985	-2.5177
1.199	-0.70496
1.1995	-6.94885
1.2	-6.04248
1.2005	-8.15735
1.201	-5.94177
1.2015	-1.00708
1.202	1.61133
1.2025	-2.71912
1.203	0.50354
1.2035	0.70496
1.204	5.63965
1.2045	3.8269
1.205	-1.3092
1.2055	-7.15027
1.206	-16.71753
1.2065	-21.3501
1.207	-24.47205
1.2075	-18.02673
1.208	-18.8324
1.2085	-10.0708
1.209	-4.33044
1.2095	-1.51062
1.21	0.50354
1.2105	1.71204
1.211	1.40991
1.2115	5.23682
1.212	0.40283
1.2125	3.32336
1.213	6.04248
1.2135	2.41699
1.214	6.64673
1.2145	3.42407
1.215	1.61133
1.2155	5.13611
1.216	13.797
1.2165	10.77576
1.217	10.77576
1.2175	3.8269
1.218	-0.20142
1.2185	-2.61841
1.219	-9.56726
1.2195	-13.59558
1.22	-10.97717
1.2205	-11.68213
1.221	-8.7616
1.2215	-8.8623
1.222	-13.29346
1.2225	-6.04248
1.223	-8.66089
1.2235	-5.0354
1.224	-6.74744
1.2245	-0.90637
1.225	-1.91345
1.2255	-10.57434
1.226	-8.35876
1.2265	-21.14868
1.227	-15.81116
1.2275	-21.55151
1.228	-13.89771
1.2285	-11.2793
1.229	-8.35876
1.2295	-8.15735
1.23	0.70496
1.2305	3.32336
1.231	-0.30212
1.2315	7.15027
1.232	17.22107
1.2325	18.42957
1.233	14.90479
1.2335	16.21399
1.234	11.98425
1.2345	11.48071
1.235	12.89062
1.2355	16.01257
1.236	12.5885
1.2365	10.67505
1.237	6.2439
1.2375	-3.8269
1.238	-15.60974
1.2385	-13.29346
1.239	-17.52319
1.2395	-12.99133
1.24	-18.8324
1.2405	-21.3501
1.241	-19.13452
1.2415	-20.94727
1.242	-15.40833
1.2425	-16.91895
1.243	-7.35168
1.2435	-5.43823
1.244	-2.31628
1.2445	6.74744
1.245	6.3446
1.2455	0.50354
1.246	6.14319
1.2465	2.41699
1.247	-2.01416
1.2475	-6.84814
1.248	-9.97009
1.2485	-4.93469
1.249	-7.85522
1.2495	5.53894
1.25	4.02832
1.2505	-0.60425
1.251	-10.77576
1.2515	-14.60266
1.252	-18.32886
1.2525	-23.96851
1.253	-28.29895
1.2535	-25.37842
1.254	-29.30603
1.2545	-26.3855
1.255	-24.06921
1.2555	-12.08496
1.256	-8.96301
1.2565	-7.85522
1.257	-0.20142
1.2575	-2.01416
1.258	3.92761
1.2585	8.8623
1.259	10.67505
1.2595	16.11328
1.26	20.94727
1.2605	17.01965
1.261	17.52319
1.2615	14.09912
1.262	13.39417
1.2625	15.71045
1.263	11.98425
1.2635	9.76868
1.264	3.52478
1.2645	2.92053
1.265	1.10779
1.2655	-8.15735
1.266	-7.45239
1.2665	-14.60266
1.267	-10.37292
1.2675	-13.59558
1.268	-8.05664
1.2685	-4.02832
1.269	1.61133
1.2695	2.92053
1.27	1.51062
1.2705	9.46655
1.271	5.0354
1.2715	4.12903
1.272	2.01416
1.2725	20.04089
1.273	25.177
1.2735	38.57117
1.274	50.05188
1.2745	51.05896
1.275	50.2533
1.2755	55.89294
1.276	68.58215
1.2765	69.68994
1.277	57.20215
1.2775	41.89453
1.278	26.28479
1.2785	13.49487
1.279	-6.94885
1.2795	-23.8678
1.28	-33.03223
1.2805	-37.96692
1.281	-40.48462
1.2815	-33.23364
1.282	-35.04639
1.2825	-32.22656
1.283	-18.63098
1.2835	-10.47363
1.284	-2.5177
1.2845	6.54602
1.285	5.84106
1.2855	4.33044
1.286	-4.83398
1.2865	-6.74744
1.287	-9.36584
1.2875	-3.92761
1.288	3.8269
1.2885	5.53894
1.289	10.67505
1.2895	21.45081
1.29	35.04639
1.2905	43.90869
1.291	38.974
1.2915	32.7301
1.292	19.63806
1.2925	4.83398
1.293	-4.73328
1.2935	-13.49487
1.294	-25.37842
1.2945	-27.39258
1.295	-23.66638
1.2955	-7.95593
1.296	2.11487
1.2965	7.04956
1.297	6.04248
1.2975	8.7616
1.298	7.25098
1.2985	33.73718
1.299	51.36108
1.2995	74.82605
1.3	86.00464
1.3005	99.80164
1.301	101.8158
1.3015	117.22412
1.302	130.51758
1.3025	130.21545
1.303	90.43579
1.3035	52.16675
1.304	9.06372
1.3045	-24.37134
1.305	-55.2887
1.3055	-79.35791
1.306	-89.63013
1.3065	-97.88818
1.307	-105.6427
1.3075	-99.90234
1.308	-69.1864
1.3085	-54.68445
1.309	-47.13135
1.3095	-35.04639
1.31	-29.91028
1.3105	-27.59399
1.311	-22.86072
1.3115	-26.08337
1.312	-22.05505
1.3125	-3.12195
1.313	34.74426
1.3135	57.30286
1.314	57.00073
1.3145	45.11719
1.315	50.75684
1.3155	42.59949
1.316	35.34851
1.3165	18.02673
1.317	10.47363
1.3175	2.71912
1.318	-1.40991
1.3185	-4.43115
1.319	-18.42957
1.3195	-21.95435
1.32	-20.1416
1.3205	-18.22815
1.321	-26.68762
1.3215	-31.21948
1.322	-25.98267
1.3225	7.25098
1.323	46.82922
1.3235	62.43896
1.324	59.31702
1.3245	59.01489
1.325	92.24854
1.3255	110.6781
1.326	147.63794
1.3265	212.09106
1.327	225.38452
1.3275	205.44434
1.328	160.22644
1.3285	109.57031
1.329	50.85754
1.3295	7.15027
1.33	-41.4917
1.3305	-74.12109
1.331	-103.125
1.3315	-119.84253
1.332	-126.89209
1.3325	-126.18713
1.333	-117.52625
1.3335	-78.25012
1.334	-43.70728
1.3345	3.02124
1.335	35.75134
1.3355	56.19507
1.336	56.29578
1.3365	57.30286
1.337	56.69861
1.3375	50.85754
1.338	58.81348
1.3385	56.49719
1.339	43.50586
1.3395	22.86072
1.34	13.59558
1.3405	5.94177
1.341	9.26514
1.3415	-0.30212
1.342	-5.84106
1.3425	-4.73328
1.343	-4.12903
1.3435	16.21399
1.344	40.78674
1.3445	89.42871
1.345	147.03369
1.3455	173.62061
1.346	206.75354
1.3465	226.79443
1.347	200.81177
1.3475	136.66077
1.348	57.00073
1.3485	-19.23523
1.349	-74.2218
1.3495	-122.05811
1.35	-141.09192
1.3505	-139.5813
1.351	-150.9613
1.3515	-172.41211
1.352	-180.56946
1.3525	-194.56787
1.353	-190.94238
1.3535	-180.87158
1.354	-162.44202
1.3545	-43.70728
1.355	54.88586
1.3555	93.15491
1.356	121.55457
1.3565	131.52466
1.357	105.44128
1.3575	45.62073
1.358	35.34851
1.3585	22.45789
1.359	16.11328
1.3595	-8.45947
1.36	-48.84338
1.3605	-89.93225
1.361	-110.17456
1.3615	-35.2478
1.362	54.38232
1.3625	149.85352
1.363	254.58984
1.3635	316.02173
1.364	361.64246
1.3645	339.28528
1.365	267.58118
1.3655	193.46008
1.366	121.25244
1.3665	40.68604
1.367	-49.85046
1.3675	-161.93848
1.368	-236.86523
1.3685	-268.58826
1.369	-294.77234
1.3695	-302.72827
1.37	-296.98792
1.3705	-283.79517
1.371	-250.05798
1.3715	-204.03442
1.372	-150.15564
1.3725	-111.38306
1.373	-59.1156
1.3735	18.42957
1.374	87.21313
1.3745	106.24695
1.375	100.80872
1.3755	117.72766
1.376	167.37671
1.3765	263.65356
1.377	327.40173
1.3775	306.55518
1.378	260.83374
1.3785	204.9408
1.379	145.62378
1.3795	104.83704
1.38	90.83862
1.3805	81.67419
1.381	48.03772
1.3815	1.71204
1.382	-20.54443
1.3825	-39.47754
1.383	-47.23206
1.3835	-71.80481
1.384	-101.9165
1.3845	-115.20996
1.385	-114.505
1.3855	-93.55774
1.386	-59.21631
1.3865	-56.19507
1.387	-68.48145
1.3875	-65.3595
1.388	-59.61914
1.3885	-56.19507
1.389	-41.29028
1.3895	-22.86072
1.39	-6.14319
1.3905	29.60815
1.391	62.64038
1.3915	79.15649
1.392	150.25635
1.3925	292.95959
1.393	340.99731
1.3935	281.88171
1.394	186.91406
1.3945	129.30908
1.395	103.32642
1.3955	58.91418
1.396	24.67346
1.3965	-12.38708
1.397	-55.08728
1.3975	-100.10376
1.398	-113.69934
1.3985	-75.02747
1.399	-46.62781
1.3995	-12.68921
1.4	2.5177
1.4005	-3.12195
1.401	-30.2124
1.4015	-45.3186
1.402	-43.00232
1.4025	-49.34692
1.403	-44.0094
1.4035	-40.68604
1.404	-45.62073
1.4045	-36.55701
1.405	-34.03931
1.4055	-29.40674
1.406	-30.61523
1.4065	-19.73877
1.407	-5.33752
1.4075	12.99133
1.408	15.40833
1.4085	1.81274
1.409	31.21948
1.4095	77.44446
1.41	118.33191
1.4105	205.0415
1.411	252.17285
1.4115	229.51355
1.412	141.79688
1.4125	90.73792
1.413	42.59949
1.4135	-17.72461
1.414	-62.74109
1.4145	-102.92358
1.415	-104.93774
1.4155	-95.37048
1.416	-63.44604
1.4165	0.20142
1.417	123.36731
1.4175	170.19653
1.418	147.1344
1.4185	78.85437
1.419	23.66638
1.4195	6.14319
1.42	-10.57434
1.4205	-41.59241
1.421	-71.80481
1.4215	-100.80872
1.422	-120.34607
1.4225	-103.82996
1.423	-88.11951
1.4235	-87.11243
1.424	-74.12109
1.4245	-52.06604
1.425	-29.40674
1.4255	-43.10303
1.426	-50.2533
1.4265	-33.23364
1.427	56.69861
1.4275	139.48059
1.428	164.95972
1.4285	173.41919
1.429	143.4082
1.4295	134.44519
1.43	111.68518
1.4305	78.25012
1.431	53.57666
1.4315	-18.73169
1.432	-72.71118
1.4325	-95.26978
1.433	-112.89368
1.4335	-109.4696
1.434	-76.63879
1.4345	-26.48621
1.435	25.37842
1.4355	74.2218
1.436	126.28784
1.4365	138.07068
1.437	114.20288
1.4375	77.74658
1.438	64.35242
1.4385	46.82922
1.439	38.36975
1.4395	33.23364
1.44	59.82056
1.4405	109.3689
1.441	139.27917
1.4415	125.98572
1.442	74.02039
1.4425	49.44763
1.443	35.54993
1.4435	33.9386
1.444	26.68762
1.4445	21.3501
1.445	11.88354
1.4455	2.31628
1.446	1.71204
1.4465	10.0708
1.447	15.1062
1.4475	-7.15027
1.448	-31.4209
1.4485	-79.76074
1.449	-110.98022
1.4495	-111.68518
1.45	-88.62305
1.4505	-56.69861
1.451	-28.39966
1.4515	-14.40125
1.452	0.30212
1.4525	14.90479
1.453	21.04797
1.4535	16.71753
1.454	0.60425
1.4545	-18.12744
1.455	-18.02673
1.4555	-13.59558
1.456	-19.83948
1.4565	-19.73877
1.457	-11.78284
1.4575	16.21399
1.458	62.03613
1.4585	103.93066
1.459	108.96606
1.4595	78.65295
1.46	51.15967
1.4605	32.62939
1.461	13.99841
1.4615	37.46338
1.462	68.58215
1.4625	82.27844
1.463	87.41455
1.4635	80.86853
1.464	74.32251
1.4645	67.27295
1.465	60.52551
1.4655	64.65454
1.466	67.07153
1.4665	46.72852
1.467	17.82532
1.4675	-10.0708
1.468	-44.81506
1.4685	-72.61047
1.469	-62.13684
1.4695	-41.79382
1.47	-24.16992
1.4705	-4.93469
1.471	-5.0354
1.4715	-0.50354
1.472	6.14319
1.4725	13.89771
1.473	21.65222
1.4735	30.61523
1.474	45.92285
1.4745	52.56958
1.475	44.31152
1.4755	31.21948
1.476	21.24939
1.4765	20.54443
1.477	16.3147
1.4775	18.32886
1.478	22.76001
1.4785	43.20374
1.479	46.32568
1.4795	41.89453
1.48	18.93311
1.4805	1.3092
1.481	-11.2793
1.4815	-35.95276
1.482	-88.92517
1.4825	-150.9613
1.483	-155.19104
1.4835	-102.62146
1.484	-74.42322
1.4845	-27.09045
1.485	-17.72461
1.4855	-5.13611
1.486	1.91345
1.4865	-14.80408
1.487	4.02832
1.4875	25.78125
1.488	34.24072
1.4885	63.44604
1.489	104.93774
1.4895	93.85986
1.49	80.66711
1.4905	76.63879
1.491	59.21631
1.4915	25.177
1.492	-6.04248
1.4925	-18.93311
1.493	-17.42249
1.4935	-11.07788
1.494	18.63098
1.4945	49.34692
1.495	73.21472
1.4955	85.40039
1.496	73.91968
1.4965	69.68994
1.497	73.11401
1.4975	103.62854
1.498	117.52625
1.4985	134.34448
1.499	132.43103
1.4995	115.7135
1.5	100.00305
1.5005	74.02039
1.501	52.97241
1.5015	37.06055
1.502	29.30603
1.5025	19.94019
1.503	4.43115
1.5035	-11.58142
1.504	-4.33044
1.5045	-10.17151
1.505	-16.81824
1.5055	-16.91895
1.506	-26.58691
1.5065	-29.70886
1.507	-44.51294
1.5075	-75.83313
1.508	-108.86536
1.5085	-186.30981
1.509	-247.7417
1.5095	-272.9187
1.51	-265.76843
1.5105	-220.85266
1.511	-166.26892
1.5115	-111.38306
1.512	-72.9126
1.5125	-8.96301
1.513	31.72302
1.5135	58.10852
1.514	96.27686
1.5145	116.82129
1.515	155.39246
1.5155	164.7583
1.516	147.03369
1.5165	144.81812
1.517	168.08167
1.5175	155.896
1.518	101.9165
1.5185	55.49011
1.519	40.78674
1.5195	53.07312
1.52	59.1156
1.5205	55.59082
1.521	42.29736
1.5215	27.19116
1.522	17.92603
1.5225	12.89062
1.523	-7.04956
1.5235	-50.05188
1.524	-90.23438
1.5245	-103.125
1.525	-101.41296
1.5255	-79.96216
1.526	-55.59082
1.5265	-21.95435
1.527	-4.22974
1.5275	16.81824
1.528	39.27612
1.5285	52.36816
1.529	48.13843
1.5295	29.20532
1.53	25.78125
1.5305	16.91895
1.531	-2.01416
1.5315	-20.1416
1.532	-24.67346
1.5325	-19.73877
1.533	-6.84814
1.5335	13.19275
1.534	39.88037
1.5345	51.05896
1.535	54.28162
1.5355	49.64905
1.536	43.70728
1.5365	43.80798
1.537	35.34851
1.5375	37.86621
1.538	42.09595
1.5385	52.8717
1.539	49.54834
1.5395	45.52002
1.54	28.50037
1.5405	10.0708
1.541	9.36584
1.5415	13.99841
1.542	11.58142
1.5425	4.02832
1.543	3.42407
1.5435	-2.41699
1.544	-4.93469
1.5445	-5.33752
1.545	-6.54602
1.5455	-0.80566
1.546	-17.6239
1.5465	-64.35242
1.547	-96.8811
1.5475	-121.75598
1.548	-134.64661
1.5485	-122.25952
1.549	-91.745
1.5495	-55.18799
1.55	-31.11877
1.5505	-8.15735
1.551	24.67346
1.5515	50.15259
1.552	65.56091
1.5525	74.02039
1.553	60.92834
1.5535	41.08887
1.554	18.42957
1.5545	13.39417
1.555	8.56018
1.5555	7.35168
1.556	4.22974
1.5565	0.10071
1.557	-13.19275
1.5575	-19.83948
1.558	-13.69629
1.5585	-7.5531
1.559	1.61133
1.5595	3.12195
1.56	4.43115
1.5605	-1.40991
1.561	4.83398
1.5615	10.27222
1.562	10.37292
1.5625	1.10779
1.563	6.84814
1.5635	16.01257
1.564	22.96143
1.5645	25.177
1.565	35.75134
1.5655	48.64197
1.566	50.75684
1.5665	38.47046
1.567	33.03223
1.5675	28.70178
1.568	23.56567
1.5685	15.81116
1.569	13.69629
1.5695	8.35876
1.57	11.07788
1.5705	10.47363
1.571	14.19983
1.5715	17.6239
1.572	15.91187
1.5725	11.07788
1.573	2.31628
1.5735	-1.2085
1.574	0.90637
1.5745	5.13611
1.575	5.84106
1.5755	2.5177
1.576	-2.41699
1.5765	7.15027
1.577	9.56726
1.5775	14.09912
1.578	23.36426
1.5785	21.3501
1.579	13.99841
1.5795	16.51611
1.58	12.18567
1.5805	2.71912
1.581	-0.30212
1.5815	-1.81274
1.582	-6.2439
1.5825	-7.04956
1.583	-8.66089
1.5835	-9.06372
1.584	-5.74036
1.5845	-28.09753
1.585	-48.23914
1.5855	-57.20215
1.586	-61.12976
1.5865	-58.30994
1.587	-53.37524
1.5875	-43.40515
1.588	-31.72302
1.5885	-21.04797
1.589	-9.36584
1.5895	-1.3092
1.59	13.797
1.5905	36.95984
1.591	43.00232
1.5915	44.11011
1.592	46.92993
1.5925	40.38391
1.593	41.18958
1.5935	34.94568
1.594	28.29895
1.5945	33.53577
1.595	28.70178
1.5955	27.39258
1.596	21.24939
1.5965	15.81116
1.597	19.13452
1.5975	15.91187
1.598	15.00549
1.5985	12.78992
1.599	10.87646
1.5995	13.39417
1.6	12.5885
1.6005	12.78992
1.601	12.68921
1.6015	3.32336
1.602	-0.20142
1.6025	-2.41699
1.603	-6.2439
1.6035	-9.26514
1.604	-9.06372
1.6045	-10.57434
1.605	-8.66089
1.6055	-12.68921
1.606	-10.77576
1.6065	-5.74036
1.607	-5.84106
1.6075	-9.66797
1.608	0.60425
1.6085	-0.60425
1.609	-11.58142
1.6095	-6.94885
1.61	-16.91895
1.6105	-12.68921
1.611	-12.5885
1.6115	-15.60974
1.612	-13.19275
1.6125	-8.7616
1.613	-11.88354
1.6135	-21.55151
1.614	-18.63098
1.6145	-26.98975
1.615	-26.28479
1.6155	-26.48621
1.616	-36.05347
1.6165	-39.37683
1.617	-34.84497
1.6175	-33.83789
1.618	-29.70886
1.6185	-23.8678
1.619	-25.57983
1.6195	-32.62939
1.62	-28.80249
1.6205	-27.59399
1.621	-28.50037
1.6215	-21.75293
1.622	-17.01965
1.6225	-18.02673
1.623	-4.02832
1.6235	1.10779
1.624	6.2439
1.6245	2.31628
1.625	7.5531
1.6255	12.18567
1.626	10.67505
1.6265	21.04797
1.627	17.42249
1.6275	11.58142
1.628	4.83398
1.6285	7.75452
1.629	1.91345
1.6295	-1.71204
1.63	2.41699
1.6305	2.5177
1.631	-1.81274
1.6315	-9.66797
1.632	-14.40125
1.6325	-15.40833
1.633	-17.52319
1.6335	-13.19275
1.634	-10.0708
1.6345	-11.38
1.635	-7.15027
1.6355	-4.73328
1.636	-3.52478
1.6365	-4.93469
1.637	-3.42407
1.6375	-1.2085
1.638	-2.21558
1.6385	-0.90637
1.639	-7.35168
1.6395	-11.78284
1.64	-7.95593
1.6405	-17.42249
1.641	-14.19983
1.6415	-44.71436
1.642	-68.07861
1.6425	-77.14233
1.643	-74.82605
1.6435	-74.82605
1.644	-55.3894
1.6445	-49.74976
1.645	-38.36975
1.6455	-25.68054
1.646	-14.70337
1.6465	-2.92053
1.647	-1.51062
1.6475	-1.3092
1.648	6.64673
1.6485	13.29346
1.649	13.59558
1.6495	22.45789
1.65	13.19275
1.6505	9.56726
1.651	5.43823
1.6515	2.81982
1.652	3.42407
1.6525	3.8269
1.653	0.30212
1.6535	-6.3446
1.654	-6.74744
1.6545	-7.95593
1.655	-6.94885
1.6555	-9.46655
1.656	-14.80408
1.6565	-12.48779
1.657	-11.58142
1.6575	-17.72461
1.658	-17.52319
1.6585	-9.36584
1.659	-5.84106
1.6595	2.92053
1.66	14.70337
1.6605	12.78992
1.661	14.60266
1.6615	4.73328
1.662	-1.71204
1.6625	-0.80566
1.663	-8.15735
1.6635	-11.48071
1.664	-39.88037
1.6645	-91.745
1.665	-125.38147
1.6655	-132.12891
1.666	-124.37439
1.6665	-96.57898
1.667	-68.78357
1.6675	-40.78674
1.668	-13.29346
1.6685	5.74036
1.669	31.01807
1.6695	47.93701
1.67	54.88586
1.6705	67.97791
1.671	71.40198
1.6715	68.98499
1.672	79.35791
1.6725	75.83313
1.673	78.04871
1.6735	69.38782
1.674	73.71826
1.6745	90.63721
1.675	124.07227
1.6755	142.19971
1.676	132.33032
1.6765	112.69226
1.677	81.06995
1.6775	63.74817
1.678	43.20374
1.6785	31.21948
1.679	21.95435
1.6795	29.70886
1.68	25.57983
1.6805	17.82532
1.681	4.73328
1.6815	-3.7262
1.682	0
1.6825	-4.02832
1.683	-1.61133
1.6835	-9.06372
1.684	-6.64673
1.6845	-7.15027
1.685	-5.23682
1.6855	-6.64673
1.686	-6.2439
1.6865	-13.797
1.687	-19.23523
1.6875	-23.76709
1.688	-19.23523
1.6885	-21.75293
1.689	-24.27063
1.6895	-20.04089
1.69	-22.05505
1.6905	-15.81116
1.691	-18.73169
1.6915	-20.1416
1.692	-21.24939
1.6925	-19.63806
1.693	-18.73169
1.6935	-15.60974
1.694	-12.28638
1.6945	-15.60974
1.695	-17.32178
1.6955	-20.54443
1.696	-26.28479
1.6965	-32.83081
1.697	-32.93152
1.6975	-35.2478
1.698	-29.20532
1.6985	-23.36426
1.699	-21.95435
1.6995	-33.73718
1.7	-63.54675
1.7005	-74.12109
1.701	-68.38074
1.7015	-64.65454
1.702	-65.05737
1.7025	-53.27454
1.703	-42.19666
1.7035	-24.47205
1.704	-6.84814
1.7045	5.0354
1.705	18.22815
1.7055	34.54285
1.706	46.32568
1.7065	53.87878
1.707	53.77808
1.7075	57.50427
1.708	56.09436
1.7085	45.01648
1.709	48.13843
1.7095	41.08887
1.71	28.19824
1.7105	15.40833
1.711	14.30054
1.7115	16.41541
1.712	22.76001
1.7125	20.74585
1.713	13.99841
1.7135	15.60974
1.714	9.16443
1.7145	9.97009
1.715	3.62549
1.7155	-5.23682
1.716	-4.22974
1.7165	-1.2085
1.717	-0.50354
1.7175	5.63965
1.718	-0.50354
1.7185	-14.40125
1.719	-18.22815
1.7195	-20.74585
1.72	-23.96851
1.7205	-15.1062
1.721	-23.8678
1.7215	-28.39966
1.722	-27.19116
1.7225	-31.92444
1.723	-33.83789
1.7235	-23.56567
1.724	-16.91895
1.7245	-16.11328
1.725	-18.8324
1.7255	-13.89771
1.726	-19.33594
1.7265	-28.29895
1.727	-35.14709
1.7275	-32.93152
1.728	-27.6947
1.7285	-11.88354
1.729	-9.86938
1.7295	-6.94885
1.73	-5.23682
1.7305	-5.23682
1.731	2.61841
1.7315	11.2793
1.732	16.61682
1.7325	27.29187
1.733	19.94019
1.7335	35.75134
1.734	38.87329
1.7345	32.83081
1.735	19.63806
1.7355	5.63965
1.736	-1.10779
1.7365	2.81982
1.737	3.8269
1.7375	-0.20142
1.738	2.71912
1.7385	8.96301
1.739	13.797
1.7395	26.08337
1.74	39.07471
1.7405	46.22498
1.741	34.44214
1.7415	28.70178
1.742	37.66479
1.7425	36.35559
1.743	30.41382
1.7435	30.31311
1.744	34.44214
1.7445	27.99683
1.745	22.96143
1.7455	25.78125
1.746	34.03931
1.7465	43.50586
1.747	44.0094
1.7475	32.32727
1.748	18.12744
1.7485	7.85522
1.749	11.07788
1.7495	-0.60425
1.75	-8.25806
1.7505	-11.98425
1.751	-13.29346
1.7515	-21.95435
1.752	-25.47913
1.7525	-17.01965
1.753	-18.02673
1.7535	-20.64514
1.754	-10.87646
1.7545	3.92761
1.755	8.25806
1.7555	9.06372
1.756	6.2439
1.7565	8.45947
1.757	7.15027
1.7575	9.97009
1.758	11.38
1.7585	15.30762
1.759	22.55859
1.7595	20.94727
1.76	24.27063
1.7605	16.21399
1.761	16.11328
1.7615	7.45239
1.762	0.40283
1.7625	-7.15027
1.763	-9.06372
1.7635	-9.46655
1.764	-14.09912
1.7645	-19.53735
1.765	-17.42249
1.7655	-19.23523
1.766	-15.60974
1.7665	-9.26514
1.767	-11.38
1.7675	-13.49487
1.768	-14.19983
1.7685	-12.48779
1.769	-5.63965
1.7695	-6.44531
1.77	-1.00708
1.7705	-3.92761
1.771	3.32336
1.7715	-0.30212
1.772	0.70496
1.7725	4.02832
1.773	6.54602
1.7735	10.27222
1.774	6.54602
1.7745	3.12195
1.775	-5.53894
1.7755	-2.71912
1.776	-3.92761
1.7765	-5.94177
1.777	-7.85522
1.7775	-12.78992
1.778	-20.84656
1.7785	-21.3501
1.779	-21.14868
1.7795	-30.61523
1.78	-36.65771
1.7805	-33.23364
1.781	-33.43506
1.7815	-31.62231
1.782	-24.97559
1.7825	-17.22107
1.783	-8.8623
1.7835	-0.80566
1.784	9.36584
1.7845	8.35876
1.785	12.48779
1.7855	15.50903
1.786	10.0708
1.7865	12.99133
1.787	15.20691
1.7875	14.19983
1.788	17.22107
1.7885	11.88354
1.789	15.40833
1.7895	14.40125
1.79	13.69629
1.7905	20.84656
1.791	25.78125
1.7915	27.29187
1.792	19.23523
1.7925	17.42249
1.793	9.86938
1.7935	2.61841
1.794	-2.71912
1.7945	3.7262
1.795	1.10779
1.7955	6.74744
1.796	1.3092
1.7965	6.14319
1.797	4.83398
1.7975	-5.0354
1.798	7.35168
1.7985	3.32336
1.799	-0.70496
1.7995	-9.26514
1.8	-6.44531
1.8005	-7.25098
1.801	-3.92761
1.8015	9.97009
1.802	9.97009
1.8025	17.92603
1.803	9.26514
1.8035	-0.10071
1.804	-10.67505
1.8045	-16.3147
1.805	-17.6239
1.8055	-24.87488
1.806	-27.89612
1.8065	-38.57117
1.807	-44.41223
1.8075	-46.02356
1.808	-50.45471
1.8085	-47.63489
1.809	-44.31152
1.8095	-35.65063
1.81	-29.60815
1.8105	-23.76709
1.811	-18.73169
1.8115	-20.74585
1.812	-14.40125
1.8125	-7.35168
1.813	-8.35876
1.8135	-4.43115
1.814	-2.92053
1.8145	-0.90637
1.815	-3.8269
1.8155	-2.92053
1.816	2.5177
1.8165	0.20142
1.817	-4.53186
1.8175	-5.53894
1.818	1.3092
1.8185	3.12195
1.819	3.12195
1.8195	-0.80566
1.82	9.97009
1.8205	6.54602
1.821	8.45947
1.8215	5.13611
1.822	6.04248
1.8225	9.26514
1.823	13.29346
1.8235	8.96301
1.824	14.90479
1.8245	17.42249
1.825	23.06213
1.8255	9.97009
1.826	14.60266
1.8265	14.50195
1.827	14.50195
1.8275	14.90479
1.828	14.19983
1.8285	14.09912
1.829	10.0708
1.8295	4.33044
1.83	4.93469
1.8305	2.31628
1.831	4.12903
1.8315	4.53186
1.832	2.92053
1.8325	4.83398
1.833	6.84814
1.8335	3.7262
1.834	10.0708
1.8345	1.10779
1.835	-7.45239
1.8355	-5.0354
1.836	-15.91187
1.8365	-16.3147
1.837	-10.27222
1.8375	-8.25806
1.838	-6.44531
1.8385	-7.04956
1.839	4.02832
1.8395	4.93469
1.84	0.60425
1.8405	3.32336
1.841	2.21558
1.8415	3.7262
1.842	-1.00708
1.8425	-3.32336
1.843	-0.80566
1.8435	3.7262
1.844	10.37292
1.8445	10.0708
1.845	4.53186
1.8455	1.00708
1.846	-9.86938
1.8465	-16.41541
1.847	-21.14868
1.8475	-27.6947
1.848	-21.85364
1.8485	11.88354
1.849	33.43506
1.8495	34.24072
1.85	25.47913
1.8505	13.69629
1.851	0.20142
1.8515	-9.76868
1.852	-14.90479
1.8525	-21.45081
1.853	-36.65771
1.8535	-44.21082
1.854	-51.5625
1.8545	-53.97949
1.855	-48.03772
1.8555	-38.47046
1.856	-39.57825
1.8565	-33.9386
1.857	-38.77258
1.8575	-32.93152
1.858	-35.75134
1.8585	-32.42798
1.859	-27.19116
1.8595	-18.63098
1.86	-4.73328
1.8605	-0.80566
1.861	15.81116
1.8615	32.02515
1.862	40.98816
1.8625	49.74976
1.863	68.78357
1.8635	90.93933
1.864	101.11084
1.8645	90.93933
1.865	77.34375
1.8655	66.46729
1.866	64.75525
1.8665	89.328
1.867	98.19031
1.8675	98.0896
1.868	98.49243
1.8685	87.81738
1.869	59.51843
1.8695	22.6593
1.87	-11.88354
1.8705	-41.18958
1.871	-64.35242
1.8715	-80.96924
1.872	-92.95349
1.8725	-104.13208
1.873	-109.26819
1.8735	-71.40198
1.874	-26.68762
1.8745	-12.99133
1.875	20.04089
1.8755	29.30603
1.876	17.22107
1.8765	21.75293
1.877	12.5885
1.8775	-4.73328
1.878	-27.19116
1.8785	-44.91577
1.879	-65.3595
1.8795	-75.32959
1.88	-62.9425
1.8805	-59.21631
1.881	-45.62073
1.8815	-48.44055
1.882	-42.90161
1.8825	-46.72852
1.883	-41.18958
1.8835	-23.66638
1.884	26.58691
1.8845	75.93384
1.885	114.70642
1.8855	112.99438
1.886	83.38623
1.8865	56.49719
1.887	39.98108
1.8875	13.09204
1.888	-22.76001
1.8885	-58.00781
1.889	-70.89844
1.8895	-57.70569
1.89	-16.21399
1.8905	46.02356
1.891	81.17065
1.8915	85.70251
1.892	65.25879
1.8925	41.59241
1.893	4.93469
1.8935	-7.45239
1.894	-9.16443
1.8945	-8.15735
1.895	-13.09204
1.8955	-8.8623
1.896	26.3855
1.8965	40.38391
1.897	52.97241
1.8975	49.64905
1.898	31.82373
1.8985	19.94019
1.899	1.40991
1.8995	-27.49329
1.9	-61.53259
1.9005	-81.67419
1.901	-60.92834
1.9015	7.75452
1.902	79.2572
1.9025	141.09192
1.903	175.13123
1.9035	253.9856
1.904	276.34277
1.9045	244.11621
1.905	170.59937
1.9055	89.73083
1.906	-2.11487
1.9065	-70.19348
1.907	-117.32483
1.9075	-151.46484
1.908	-194.66858
1.9085	-224.78027
1.909	-239.58435
1.9095	-221.45691
1.91	-182.48291
1.9105	-136.05652
1.911	-104.83704
1.9115	-78.25012
1.912	-54.98657
1.9125	-25.57983
1.913	11.98425
1.9135	34.24072
1.914	49.64905
1.9145	91.24146
1.915	121.25244
1.9155	162.64343
1.916	189.02893
1.9165	177.95105
1.917	166.36963
1.9175	161.83777
1.918	135.95581
1.9185	105.13916
1.919	76.03455
1.9195	50.85754
1.92	19.63806
1.9205	-11.07788
1.921	-41.99524
1.9215	-69.48853
1.922	-87.61597
1.9225	-80.16357
1.923	-59.82056
1.9235	-33.23364
1.924	8.7616
1.9245	13.39417
1.925	-5.74036
1.9255	-17.72461
1.926	-28.29895
1.9265	-30.31311
1.927	-5.94177
1.9275	86.70959
1.928	154.38538
1.9285	167.07458
1.929	148.04077
1.9295	106.8512
1.93	65.3595
1.9305	36.25488
1.931	15.91187
1.9315	-2.92053
1.932	-30.61523
1.9325	-43.60657
1.933	-30.11169
1.9335	-0.60425
1.934	86.91101
1.9345	203.22876
1.935	269.79675
1.9355	248.84949
1.936	179.76379
1.9365	91.745
1.937	18.12744
1.9375	-42.29736
1.938	-100.6073
1.9385	-149.34998
1.939	-144.91882
1.9395	-102.42004
1.94	-85.90393
1.9405	-71.50269
1.941	-52.16675
1.9415	-44.41223
1.942	-22.6593
1.9425	-13.29346
1.943	-4.02832
1.9435	-2.92053
1.944	-17.6239
1.9445	-26.28479
1.945	-24.16992
1.9455	-43.00232
1.946	-58.61206
1.9465	-77.24304
1.947	-98.69385
1.9475	-105.84412
1.948	-84.39331
1.9485	-60.52551
1.949	-31.4209
1.9495	10.97717
1.95	37.96692
1.9505	57.40356
1.951	66.56799
1.9515	58.71277
1.952	36.95984
1.9525	24.47205
1.953	3.92761
1.9535	0.70496
1.954	10.77576
1.9545	37.56409
1.955	56.5979
1.9555	92.44995
1.956	123.46802
1.9565	113.1958
1.957	103.42712
1.9575	108.1604
1.958	124.57581
1.9585	120.7489
1.959	97.58606
1.9595	75.63171
1.96	46.82922
1.9605	37.06055
1.961	31.21948
1.9615	25.98267
1.962	29.30603
1.9625	26.3855
1.963	30.41382
1.9635	26.78833
1.964	29.50745
1.9645	17.12036
1.965	1.40991
1.9655	-16.81824
1.966	-23.76709
1.9665	-21.55151
1.967	-15.30762
1.9675	-12.99133
1.968	10.77576
1.9685	36.15417
1.969	63.74817
1.9695	68.48145
1.97	87.91809
1.9705	88.11951
1.971	64.75525
1.9715	59.92126
1.972	94.16199
1.9725	128.10059
1.973	126.38855
1.9735	105.6427
1.974	74.02039
1.9745	46.22498
1.975	33.43506
1.9755	24.16992
1.976	5.53894
1.9765	15.91187
1.977	13.797
1.9775	-9.86938
1.978	-32.83081
1.9785	-52.56958
1.979	-43.50586
1.9795	-37.96692
1.98	-51.15967
1.9805	-65.86304
1.981	-35.34851
1.9815	-6.2439
1.982	22.15576
1.9825	60.62622
1.983	79.86145
1.9835	63.14392
1.984	36.95984
1.9845	5.13611
1.985	-22.15576
1.9855	-19.94019
1.986	5.0354
1.9865	30.91736
1.987	45.11719
1.9875	49.0448
1.988	38.974
1.9885	30.31311
1.989	29.20532
1.9895	36.35559
1.99	26.98975
1.9905	14.90479
1.991	-7.85522
1.9915	-24.47205
1.992	-39.27612
1.9925	-56.5979
1.993	-57.8064
1.9935	-51.26038
1.994	-51.05896
1.9945	-37.96692
1.995	-25.57983
1.9955	-16.81824
1.996	-0.80566
1.9965	19.03381
1.997	29.70886
1.9975	44.11011
1.998	47.8363
1.9985	88.11951
1.999	117.42554
1.9995	93.15491
2	59.61914
2.0005	53.77808
2.001	40.98816
2.0015	7.5531
2.002	-4.22974
2.0025	-13.99841
2.003	-9.36584
2.0035	-3.52478
2.004	2.71912
2.0045	11.17859
2.005	13.797
2.0055	7.5531
2.006	38.974
2.0065	52.46887
2.007	50.65613
2.0075	38.26904
2.008	66.06445
2.0085	57.70569
2.009	10.57434
2.0095	-42.59949
2.01	-60.3241
2.0105	-41.18958
2.011	-19.33594
2.0115	-15.40833
2.012	-25.78125
2.0125	-22.86072
2.013	-4.33044
2.0135	23.8678
2.014	59.71985
2.0145	79.55933
2.015	75.02747
2.0155	77.14233
2.016	59.41772
2.0165	38.87329
2.017	36.95984
2.0175	45.2179
2.018	53.67737
2.0185	47.23206
2.019	45.11719
2.0195	47.53418
2.02	56.79932
2.0205	51.96533
2.021	53.57666
2.0215	35.75134
2.022	6.64673
2.0225	-32.02515
2.023	-62.9425
2.0235	-91.8457
2.024	-98.99597
2.0245	-80.4657
2.025	-42.59949
2.0255	-15.81116
2.026	-7.65381
2.0265	-12.48779
2.027	-14.19983
2.0275	-25.88196
2.028	-32.7301
2.0285	-46.22498
2.029	-51.5625
2.0295	-39.27612
2.03	-17.72461
2.0305	-15.81116
2.031	-25.88196
2.0315	-40.2832
2.032	-47.63489
2.0325	-64.85596
2.033	-68.88428
2.0335	-78.95508
2.034	-93.96057
2.0345	-90.63721
2.035	-73.51685
2.0355	-39.27612
2.036	-15.30762
2.0365	-1.61133
2.037	26.48621
2.0375	46.82922
2.038	61.12976
2.0385	73.81897
2.039	117.12341
2.0395	153.17688
2.04	153.3783
2.0405	128.70483
2.041	109.67102
2.0415	103.02429
2.042	104.23279
2.0425	108.96606
2.043	117.92908
2.0435	108.66394
2.044	76.94092
2.0445	50.45471
2.045	38.57117
2.0455	40.1825
2.046	35.14709
2.0465	41.08887
2.047	47.23206
2.0475	52.36816
2.048	48.33984
2.0485	22.6593
2.049	10.17151
2.0495	6.54602
2.05	0.80566
2.0505	-9.66797
2.051	-11.88354
2.0515	-18.42957
2.052	-13.09204
2.0525	-7.85522
2.053	-3.52478
2.0535	-2.5177
2.054	-15.30762
2.0545	-45.41931
2.055	-59.71985
2.0555	-62.64038
2.056	-49.44763
2.0565	-32.7301
2.057	1.71204
2.0575	35.04639
2.058	42.29736
2.0585	54.0802
2.059	57.10144
2.0595	61.93542
2.06	58.81348
2.0605	60.3241
2.061	50.354
2.0615	45.82214
2.062	27.6947
2.0625	10.17151
2.063	-18.32886
2.0635	-25.57983
2.064	-19.33594
2.0645	-12.28638
2.065	-14.70337
2.0655	-8.05664
2.066	-3.52478
2.0665	-2.21558
2.067	5.53894
2.0675	20.44373
2.068	36.85913
2.0685	36.75842
2.069	40.1825
2.0695	53.17383
2.07	53.07312
2.0705	41.89453
2.071	20.04089
2.0715	-9.06372
2.072	-52.8717
2.0725	-102.31934
2.073	-149.24927
2.0735	-162.94556
2.074	-129.71191
2.0745	-91.14075
2.075	-46.22498
2.0755	-24.27063
2.076	-1.51062
2.0765	5.43823
2.077	18.53027
2.0775	30.01099
2.078	28.50037
2.0785	33.83789
2.079	16.61682
2.0795	-10.17151
2.08	-14.70337
2.0805	5.74036
2.081	30.51453
2.0815	33.53577
2.082	50.55542
2.0825	77.24304
2.083	84.69543
2.0835	81.37207
2.084	73.01331
2.0845	73.61755
2.085	72.10693
2.0855	74.62463
2.086	70.19348
2.0865	67.57507
2.087	82.47986
2.0875	100.70801
2.088	96.37756
2.0885	86.00464
2.089	67.77649
2.0895	50.55542
2.09	35.65063
2.0905	26.48621
2.091	27.6947
2.0915	29.10461
2.092	31.21948
2.0925	29.40674
2.093	29.40674
2.0935	21.45081
2.094	17.82532
2.0945	4.43115
2.095	2.31628
2.0955	-5.63965
2.096	-7.15027
2.0965	-10.57434
2.097	-15.00549
2.0975	-15.60974
2.098	-23.26355
2.0985	-77.54517
2.099	-130.8197
2.0995	-157.00378
2.1	-165.16113
2.1005	-176.13831
2.101	-212.99744
2.1015	-224.88098
2.102	-205.64575
2.1025	-149.85352
2.103	-97.68677
2.1035	-60.22339
2.104	-25.07629
2.1045	2.31628
2.105	17.92603
2.1055	24.77417
2.106	22.86072
2.1065	28.9032
2.107	27.89612
2.1075	39.67896
2.108	54.0802
2.1085	75.12817
2.109	100.00305
2.1095	114.505
2.11	119.33899
2.1105	127.39563
2.111	118.53333
2.1115	87.91809
2.112	60.4248
2.1125	50.2533
2.113	46.62781
2.1135	66.16516
2.114	91.8457
2.1145	101.61438
2.115	89.63013
2.1155	68.28003
2.116	45.52002
2.1165	16.01257
2.117	-2.31628
2.1175	-20.24231
2.118	-18.8324
2.1185	-19.33594
2.119	-11.38
2.1195	-31.4209
2.12	-51.26038
2.1205	-66.76941
2.121	-55.2887
2.1215	-53.87878
2.122	-31.62231
2.1225	-19.33594
2.123	-6.84814
2.1235	3.22266
2.124	7.25098
2.1245	-4.63257
2.125	-12.78992
2.1255	-16.91895
2.126	-15.71045
2.1265	4.43115
2.127	35.85205
2.1275	61.33118
2.128	68.78357
2.1285	59.71985
2.129	56.29578
2.1295	55.2887
2.13	70.3949
2.1305	65.96375
2.131	59.01489
2.1315	51.5625
2.132	45.2179
2.1325	35.85205
2.133	36.25488
2.1335	28.70178
2.134	31.01807
2.1345	31.32019
2.135	20.24231
2.1355	1.91345
2.136	-1.91345
2.1365	-11.48071
2.137	-11.07788
2.1375	-6.04248
2.138	-17.12036
2.1385	-23.8678
2.139	-29.60815
2.1395	-33.23364
2.14	-39.47754
2.1405	-44.0094
2.141	-53.77808
2.1415	-76.84021
2.142	-92.04712
2.1425	-97.48535
2.143	-88.11951
2.1435	-80.56641
2.144	-64.75525
2.1445	-48.23914
2.145	-28.60107
2.1455	2.71912
2.146	22.96143
2.1465	25.68054
2.147	22.15576
2.1475	17.32178
2.148	20.94727
2.1485	16.01257
2.149	23.66638
2.1495	31.92444
2.15	39.57825
2.1505	48.23914
2.151	35.85205
2.1515	25.78125
2.152	19.73877
2.1525	14.30054
2.153	19.53735
2.1535	8.56018
2.154	-3.7262
2.1545	-17.01965
2.155	-14.30054
2.1555	-9.56726
2.156	-1.61133
2.1565	13.99841
2.157	18.8324
2.1575	25.98267
2.158	23.06213
2.1585	33.53577
2.159	33.13293
2.1595	29.40674
2.16	25.78125
2.1605	18.22815
2.161	6.04248
2.1615	-3.92761
2.162	-11.98425
2.1625	-21.85364
2.163	-24.37134
2.1635	-29.10461
2.164	-24.57275
2.1645	-17.92603
2.165	-18.8324
2.1655	-19.33594
2.166	-20.1416
2.1665	-19.83948
2.167	-17.72461
2.1675	-22.25647
2.168	-31.92444
2.1685	-23.96851
2.169	-11.58142
2.1695	2.71912
2.17	13.99841
2.1705	1.91345
2.171	-5.94177
2.1715	-2.92053
2.172	-4.93469
2.1725	5.13611
2.173	13.19275
2.1735	20.34302
2.174	31.32019
2.1745	42.39807
2.175	46.62781
2.1755	43.90869
2.176	39.47754
2.1765	45.52002
2.177	45.2179
2.1775	42.8009
2.178	41.99524
2.1785	36.95984
2.179	28.09753
2.1795	16.01257
2.18	2.21558
2.1805	-28.50037
2.181	-63.34534
2.1815	-93.0542
2.182	-120.7489
2.1825	-161.73706
2.183	-211.2854
2.1835	-250.76294
2.184	-276.84631
2.1845	-275.03357
2.185	-255.2948
2.1855	-211.08398
2.186	-154.98962
2.1865	-99.2981
2.187	-44.81506
2.1875	-7.85522
2.188	26.68762
2.1885	65.76233
2.189	102.21863
2.1895	125.68359
2.19	146.42944
2.1905	160.22644
2.191	168.78662
2.1915	176.84326
2.192	176.84326
2.1925	175.43335
2.193	163.65051
2.1935	138.17139
2.194	120.95032
2.1945	105.34058
2.195	79.55933
2.1955	58.71277
2.196	51.26038
2.1965	51.76392
2.197	31.21948
2.1975	1.91345
2.198	-36.35559
2.1985	-62.74109
2.199	-58.00781
2.1995	-56.29578
2.2	-77.44446
2.2005	-83.88977
2.201	-72.30835
2.2015	-58.61206
2.202	-30.51453
2.2025	-13.49487
2.203	8.66089
2.2035	26.68762
2.204	31.82373
2.2045	43.80798
2.205	51.46179
2.2055	53.67737
2.206	56.29578
2.2065	41.79382
2.207	33.13293
2.2075	20.24231
2.208	20.24231
2.2085	31.62231
2.209	20.84656
2.2095	6.74744
2.21	-4.73328
2.2105	-15.1062
2.211	-21.24939
2.2115	-23.06213
2.212	-36.65771
2.2125	-52.16675
2.213	-70.49561
2.2135	-69.48853
2.214	-63.94958
2.2145	-53.77808
2.215	-32.7301
2.2155	-21.14868
2.216	-10.0708
2.2165	-21.04797
2.217	-34.44214
2.2175	-32.7301
2.218	-26.58691
2.2185	-15.00549
2.219	-8.66089
2.2195	-9.46655
2.22	-12.48779
2.2205	-6.2439
2.221	13.99841
2.2215	18.73169
2.222	32.42798
2.2225	41.59241
2.223	51.66321
2.2235	55.89294
2.224	52.97241
2.2245	60.3241
2.225	57.60498
2.2255	62.64038
2.226	65.46021
2.2265	51.86462
2.227	31.82373
2.2275	18.42957
2.228	10.77576
2.2285	14.19983
2.229	12.89062
2.2295	-3.12195
2.23	-2.81982
2.2305	11.78284
2.231	20.44373
2.2315	15.30762
2.232	15.50903
2.2325	14.19983
2.233	8.96301
2.2335	16.41541
2.234	6.44531
2.2345	1.3092
2.235	-1.00708
2.2355	-6.3446
2.236	-9.16443
2.2365	-13.99841
2.237	-25.47913
2.2375	-31.92444
2.238	-41.99524
2.2385	-44.71436
2.239	-41.89453
2.2395	-41.89453
2.24	-39.88037
2.2405	-26.68762
2.241	-18.73169
2.2415	-13.89771
2.242	-12.48779
2.2425	-9.46655
2.243	-13.09204
2.2435	-25.07629
2.244	-39.98108
2.2445	-42.59949
2.245	-42.29736
2.2455	-32.12585
2.246	-24.87488
2.2465	-15.20691
2.247	-12.08496
2.2475	-7.5531
2.248	5.43823
2.2485	-1.71204
2.249	-0.10071
2.2495	-0.90637
2.25	2.41699
2.2505	2.31628
2.251	-0.60425
2.2515	-23.8678
2.252	-46.92993
2.2525	-61.83472
2.253	-68.98499
2.2535	-63.94958
2.254	-49.24622
2.2545	-36.95984
2.255	-23.8678
2.2555	-21.65222
2.256	-19.13452
2.2565	-11.07788
2.257	-11.2793
2.2575	-30.2124
2.258	-45.82214
2.2585	-54.58374
2.259	-45.2179
2.2595	-33.03223
2.26	-14.80408
2.2605	-2.11487
2.261	28.60107
2.2615	72.40906
2.262	97.98889
2.2625	106.04553
2.263	109.4696
2.2635	97.58606
2.264	107.25403
2.2645	104.83704
2.265	91.24146
2.2655	86.00464
2.266	61.12976
2.2665	48.23914
2.267	37.86621
2.2675	51.66321
2.268	52.06604
2.2685	36.85913
2.269	18.22815
2.2695	5.74036
2.27	-4.22974
2.2705	-17.42249
2.271	-31.11877
2.2715	-41.69312
2.272	-40.98816
2.2725	-38.67188
2.273	-36.65771
2.2735	-36.35559
2.274	-35.75134
2.2745	-34.64355
2.275	-39.77966
2.2755	-42.59949
2.276	-39.88037
2.2765	-40.2832
2.277	-42.90161
2.2775	-46.02356
2.278	-57.00073
2.2785	-71.09985
2.279	-66.87012
2.2795	-50.45471
2.28	-28.39966
2.2805	-14.80408
2.281	0.70496
2.2815	25.27771
2.282	38.06763
2.2825	34.74426
2.283	29.50745
2.2835	21.24939
2.284	26.28479
2.2845	34.94568
2.285	45.01648
2.2855	52.97241
2.286	54.58374
2.2865	49.64905
2.287	32.62939
2.2875	29.50745
2.288	21.95435
2.2885	24.67346
2.289	20.34302
2.2895	19.23523
2.29	16.3147
2.2905	14.60266
2.291	7.75452
2.2915	2.61841
2.292	3.42407
2.2925	0.10071
2.293	-3.62549
2.2935	-11.07788
2.294	-16.61682
2.2945	-12.89062
2.295	-9.16443
2.2955	-12.78992
2.296	-10.17151
2.2965	-4.93469
2.297	-6.94885
2.2975	-5.74036
2.298	-7.5531
2.2985	-5.33752
2.299	1.40991
2.2995	-1.2085
2.3	-0.30212
2.3005	-8.25806
2.301	-5.23682
2.3015	-11.78284
2.302	-5.94177
2.3025	-12.68921
2.303	-5.53894
2.3035	-6.94885
2.304	-4.12903
2.3045	-3.32336
2.305	0.10071
2.3055	0.90637
2.306	-2.5177
2.3065	-5.33752
2.307	-4.02832
2.3075	-5.23682
2.308	-0.60425
2.3085	-5.33752
2.309	-1.51062
2.3095	-19.43665
2.31	-26.58691
2.3105	-34.64355
2.311	-33.13293
2.3115	-34.84497
2.312	-24.06921
2.3125	-12.68921
2.313	-12.89062
2.3135	-2.31628
2.314	5.13611
2.3145	17.32178
2.315	15.50903
2.3155	23.46497
2.316	20.04089
2.3165	17.52319
2.317	17.52319
2.3175	15.81116
2.318	11.68213
2.3185	5.94177
2.319	13.49487
2.3195	16.01257
2.32	18.22815
2.3205	16.61682
2.321	2.71912
2.3215	-3.42407
2.322	-1.2085
2.3225	-2.5177
2.323	-2.31628
2.3235	0.40283
2.324	6.54602
2.3245	1.40991
2.325	2.21558
2.3255	-0.60425
2.326	2.71912
2.3265	-2.81982
2.327	2.5177
2.3275	1.71204
2.328	4.12903
2.3285	6.84814
2.329	2.81982
2.3295	9.36584
2.33	8.66089
2.3305	9.36584
2.331	10.0708
2.3315	9.66797
2.332	17.42249
2.3325	18.73169
2.333	15.20691
2.3335	12.48779
2.334	11.2793
2.3345	13.59558
2.335	13.19275
2.3355	8.05664
2.336	8.7616
2.3365	10.27222
2.337	1.71204
2.3375	6.74744
2.338	3.52478
2.3385	-2.31628
2.339	2.11487
2.3395	-0.90637
2.34	-2.81982
2.3405	-7.04956
2.341	-14.30054
2.3415	-18.22815
2.342	-19.43665
2.3425	-19.23523
2.343	-15.71045
2.3435	-16.01257
2.344	-10.67505
2.3445	-10.17151
2.345	-7.85522
2.3455	-4.33044
2.346	-10.87646
2.3465	-6.04248
2.347	-1.3092
2.3475	-2.61841
2.348	5.94177
2.3485	2.01416
2.349	12.38708
2.3495	5.13611
2.35	10.37292
2.3505	10.0708
2.351	4.22974
2.3515	-2.81982
2.352	-9.36584
2.3525	-10.37292
2.353	-1.10779
2.3535	-1.10779
2.354	3.62549
2.3545	2.71912
2.355	8.15735
2.3555	6.64673
2.356	5.63965
2.3565	-3.32336
2.357	-9.26514
2.3575	-13.39417
2.358	-6.44531
2.3585	-6.3446
2.359	3.02124
2.3595	12.18567
2.36	12.28638
2.3605	23.56567
2.361	23.36426
2.3615	16.51611
2.362	13.89771
2.3625	9.26514
2.363	6.44531
2.3635	2.92053
2.364	3.22266
2.3645	-1.2085
2.365	-2.61841
2.3655	-4.02832
2.366	-7.75452
2.3665	-16.41541
2.367	-22.15576
2.3675	-29.20532
2.368	-33.13293
2.3685	-26.88904
2.369	-34.74426
2.3695	-31.62231
2.37	-25.47913
2.3705	-28.29895
2.371	-26.28479
2.3715	-22.6593
2.372	-18.22815
2.3725	-16.11328
2.373	-16.3147
2.3735	-14.50195
2.374	-12.48779
2.3745	-8.05664
2.375	-13.99841
2.3755	-11.17859
2.376	-7.75452
2.3765	-6.04248
2.377	-1.61133
2.3775	10.37292
2.378	21.14868
2.3785	21.04797
2.379	27.09045
2.3795	25.78125
2.38	28.39966
2.3805	13.69629
2.381	12.48779
2.3815	-0.10071
2.382	-6.3446
2.3825	-3.52478
2.383	-7.85522
2.3835	-9.16443
2.384	-8.66089
2.3845	-10.17151
2.385	-11.68213
2.3855	-8.56018
2.386	-6.04248
2.3865	-8.35876
2.387	-7.65381
2.3875	-5.33752
2.388	-6.94885
2.3885	-5.33752
2.389	-3.62549
2.3895	1.2085
2.39	13.29346
2.3905	19.13452
2.391	15.20691
2.3915	18.93311
2.392	21.14868
2.3925	23.8678
2.393	30.71594
2.3935	32.42798
2.394	32.32727
2.3945	29.80957
2.395	28.50037
2.3955	16.21399
2.396	5.53894
2.3965	2.11487
2.397	4.83398
2.3975	-4.43115
2.398	-9.46655
2.3985	-15.20691
2.399	-20.1416
2.3995	-22.55859
2.4	-21.14868
2.4005	-23.66638
2.401	-15.00549
2.4015	-12.28638
2.402	-9.36584
2.4025	-6.2439
2.403	-3.92761
2.4035	-4.63257
2.404	-1.40991
2.4045	-6.2439
2.405	2.5177
2.4055	-8.45947
2.406	3.8269
2.4065	4.63257
2.407	1.2085
2.4075	-6.44531
2.408	-14.40125
2.4085	-15.91187
2.409	-17.82532
2.4095	-18.12744
2.41	-16.11328
2.4105	-15.71045
2.411	-16.71753
2.4115	-17.32178
2.412	-13.797
2.4125	-13.29346
2.413	-15.30762
2.4135	-14.19983
2.414	-17.6239
2.4145	-15.81116
2.415	-14.40125
2.4155	-20.54443
2.416	-20.74585
2.4165	-23.06213
2.417	-17.22107
2.4175	-12.18567
2.418	-14.60266
2.4185	-8.7616
2.419	-6.84814
2.4195	-2.61841
2.42	-6.64673
2.4205	-7.15027
2.421	-1.40991
2.4215	-5.0354
2.422	4.43115
2.4225	3.02124
2.423	6.04248
2.4235	4.83398
2.424	8.15735
2.4245	8.35876
2.425	13.99841
2.4255	4.63257
2.426	6.54602
2.4265	6.74744
2.427	12.18567
2.4275	13.797
2.428	9.16443
2.4285	16.71753
2.429	12.5885
2.4295	16.81824
2.43	6.94885
2.4305	5.43823
2.431	2.61841
2.4315	-0.90637
2.432	0.50354
2.4325	-0.40283
2.433	2.5177
2.4335	0.10071
2.434	2.92053
2.4345	-3.42407
2.435	-0.80566
2.4355	-0.40283
2.436	5.0354
2.4365	-0.30212
2.437	-3.52478
2.4375	-5.84106
2.438	-4.63257
2.4385	-12.18567
2.439	-4.22974
2.4395	-3.32336
2.44	1.10779
2.4405	1.2085
2.441	-0.80566
2.4415	6.44531
2.442	5.53894
2.4425	5.43823
2.443	2.81982
2.4435	6.94885
2.444	10.97717
2.4445	9.66797
2.445	12.78992
2.4455	9.76868
2.446	11.48071
2.4465	12.5885
2.447	12.38708
2.4475	9.06372
2.448	10.47363
2.4485	8.8623
2.449	4.43115
2.4495	5.0354
2.45	4.33044
2.4505	4.83398
2.451	-2.31628
2.4515	-0.70496
2.452	6.74744
2.4525	8.7616
2.453	4.22974
2.4535	4.63257
2.454	6.3446
2.4545	12.89062
2.455	13.49487
2.4555	9.36584
2.456	7.65381
2.4565	9.97009
2.457	17.52319
2.4575	19.13452
2.458	16.61682
2.4585	15.71045
2.459	10.57434
2.4595	15.71045
2.46	9.66797
2.4605	10.57434
2.461	8.56018
2.4615	3.22266
2.462	7.95593
2.4625	6.84814
2.463	3.92761
2.4635	9.46655
2.464	6.64673
2.4645	6.74744
2.465	10.57434
2.4655	10.27222
2.466	7.45239
2.4665	11.2793
2.467	10.97717
2.4675	11.38
2.468	7.35168
2.4685	6.94885
2.469	5.63965
2.4695	3.02124
2.47	4.83398
2.4705	5.74036
2.471	4.83398
2.4715	2.31628
2.472	8.96301
2.4725	4.63257
2.473	6.94885
2.4735	11.07788
2.474	9.16443
2.4745	4.43115
2.475	7.5531
2.4755	9.86938
2.476	3.92761
2.4765	6.44531
2.477	12.38708
2.4775	14.90479
2.478	18.73169
2.4785	14.19983
2.479	14.40125
2.4795	8.7616
2.48	14.09912
2.4805	10.47363
2.481	12.5885
2.4815	11.58142
2.482	12.38708
2.4825	13.99841
2.483	15.30762
2.4835	16.11328
2.484	23.8678
2.4845	22.15576
2.485	13.797
2.4855	13.89771
2.486	8.96301
2.4865	16.01257
2.487	13.59558
2.4875	11.07788
2.488	11.68213
2.4885	15.1062
2.489	10.37292
2.4895	12.48779
2.49	8.45947
2.4905	20.24231
2.491	14.80408
2.4915	9.86938
2.492	10.97717
2.4925	15.71045
2.493	15.50903
2.4935	14.50195
2.494	14.60266
2.4945	12.5885
2.495	10.87646
2.4955	10.27222
2.496	9.06372
2.4965	7.65381
2.497	10.0708
2.4975	7.75452
2.498	8.56018
2.4985	3.52478
2.499	3.7262
2.4995	11.78284
2.5	7.65381
2.5005	8.7616
2.501	10.87646
2.5015	3.92761
2.502	9.46655
2.5025	9.97009
2.503	8.56018
2.5035	6.84814
2.504	8.8623
2.5045	7.85522
2.505	7.25098
2.5055	-0.60425
2.506	-1.40991
2.5065	2.21558
2.507	3.8269
2.5075	4.83398
2.508	2.81982
2.5085	1.91345
2.509	-2.11487
2.5095	2.71912
2.51	-6.14319
2.5105	-3.32336
2.511	-2.11487
2.5115	-4.93469
2.512	-4.73328
2.5125	-1.40991
2.513	0.20142
2.5135	10.47363
2.514	17.42249
2.5145	26.98975
2.515	26.98975
2.5155	28.29895
2.516	25.78125
2.5165	24.87488
2.517	21.55151
2.5175	18.32886
2.518	18.22815
2.5185	12.08496
2.519	17.82532
2.5195	6.84814
2.52	9.16443
2.5205	9.46655
2.521	6.54602
2.5215	3.42407
2.522	7.04956
2.5225	3.02124
2.523	6.54602
2.5235	5.63965
2.524	3.52478
2.5245	7.5531
2.525	7.04956
2.5255	10.87646
2.526	8.25806
2.5265	13.59558
2.527	16.11328
2.5275	21.14868
2.528	20.54443
2.5285	16.41541
2.529	15.91187
2.5295	15.30762
2.53	14.40125
2.5305	12.08496
2.531	13.69629
2.5315	9.97009
2.532	6.84814
2.5325	12.68921
2.533	7.5531
2.5335	6.3446
2.534	10.97717
2.5345	8.56018
2.535	5.0354
2.5355	9.66797
2.536	13.69629
2.5365	9.16443
2.537	14.09912
2.5375	10.17151
2.538	10.37292
2.5385	8.45947
2.539	7.45239
2.5395	6.74744
2.54	9.06372
2.5405	11.48071
2.541	17.6239
2.5415	18.22815
2.542	22.55859
2.5425	14.19983
2.543	19.33594
2.5435	22.6593
2.544	22.45789
2.5445	21.75293
2.545	22.96143
2.5455	21.04797
2.546	18.22815
2.5465	18.22815
2.547	23.16284
2.5475	17.6239
2.548	11.17859
2.5485	11.98425
2.549	10.47363
2.5495	10.37292
2.55	12.48779
2.5505	7.95593
2.551	3.02124
2.5515	-1.91345
2.552	0.20142
2.5525	0.10071
2.553	-3.42407
2.5535	1.61133
2.554	1.51062
2.5545	-2.61841
2.555	-5.84106
2.5555	2.21558
2.556	-4.43115
2.5565	-3.42407
2.557	-2.41699
2.5575	-7.5531
2.558	-6.2439
2.5585	-2.01416
2.559	1.91345
2.5595	-9.56726
2.56	-6.2439
2.5605	-9.56726
2.561	-4.93469
2.5615	-7.25098
2.562	-3.42407
2.5625	-7.5531
2.563	-0.90637
2.5635	-4.73328
2.564	1.40991
2.5645	3.02124
2.565	-0.40283
2.5655	5.94177
2.566	5.94177
2.5665	4.33044
2.567	5.94177
2.5675	12.28638
2.568	9.26514
2.5685	7.25098
2.569	8.35876
2.5695	3.02124
2.57	7.5531
2.5705	9.06372
2.571	10.27222
2.5715	13.19275
2.572	9.97009
2.5725	8.7616
2.573	11.38
2.5735	11.68213
2.574	13.99841
2.5745	9.26514
2.575	11.78284
2.5755	15.30762
2.576	19.03381
2.5765	19.03381
2.577	17.42249
2.5775	20.1416
2.578	19.63806
2.5785	14.30054
2.579	16.51611
2.5795	12.28638
2.58	16.71753
2.5805	14.90479
2.581	11.38
2.5815	8.66089
2.582	11.48071
2.5825	15.50903
2.583	13.797
2.5835	12.89062
2.584	7.75452
2.5845	9.46655
2.585	7.25098
2.5855	-1.81274
2.586	-0.30212
2.5865	1.81274
2.587	0.50354
2.5875	2.5177
2.588	-2.01416
2.5885	5.53894
2.589	4.83398
2.5895	9.97009
2.59	7.5531
2.5905	10.0708
2.591	2.41699
2.5915	1.51062
2.592	2.92053
2.5925	2.31628
2.593	3.7262
2.5935	3.42407
2.594	9.56726
2.5945	2.71912
2.595	1.00708
2.5955	4.12903
2.596	7.95593
2.5965	2.01416
2.597	3.32336
2.5975	6.44531
2.598	1.00708
2.5985	-0.80566
2.599	6.94885
2.5995	10.17151
2.6	9.16443
2.6005	8.35876
2.601	9.36584
2.6015	9.16443
2.602	5.63965
2.6025	13.09204
2.603	17.92603
2.6035	18.73169
2.604	18.22815
2.6045	15.20691
2.605	10.97717
2.6055	14.50195
2.606	15.00549
2.6065	14.09912
2.607	13.797
2.6075	20.44373
2.608	14.70337
2.6085	15.1062
2.609	8.8623
2.6095	8.35876
2.61	1.00708
2.6105	6.44531
2.611	1.2085
2.6115	1.81274
2.612	-1.51062
2.6125	-4.22974
2.613	0.10071
2.6135	0.80566
2.614	-7.04956
2.6145	-4.93469
2.615	3.52478
2.6155	-1.51062
2.616	2.21558
2.6165	-3.22266
2.617	3.12195
2.6175	-2.11487
2.618	7.5531
2.6185	6.2439
2.619	6.54602
2.6195	9.76868
2.62	12.5885
2.6205	9.76868
2.621	6.54602
2.6215	3.52478
2.622	3.32336
2.6225	0.10071
2.623	-1.3092
2.6235	-5.23682
2.624	-4.12903
2.6245	-9.97009
2.625	-13.39417
2.6255	-12.99133
2.626	-7.65381
2.6265	-2.81982
2.627	-4.63257
2.6275	-1.61133
2.628	3.32336
2.6285	6.74744
2.629	6.54602
2.6295	10.27222
2.63	10.0708
2.6305	11.88354
2.631	18.63098
2.6315	16.21399
2.632	24.57275
2.6325	19.83948
2.633	21.85364
2.6335	21.85364
2.634	18.02673
2.6345	17.6239
2.635	19.23523
2.6355	8.8623
2.636	8.15735
2.6365	6.94885
2.637	3.7262
2.6375	-0.50354
2.638	-4.93469
2.6385	-7.65381
2.639	-10.17151
2.6395	-6.74744
2.64	-12.5885
2.6405	-2.5177
2.641	-6.3446
2.6415	-4.43115
2.642	-0.20142
2.6425	3.12195
2.643	5.63965
2.6435	9.36584
2.644	13.797
2.6445	11.88354
2.645	14.60266
2.6455	14.19983
2.646	14.09912
2.6465	16.11328
2.647	21.14868
2.6475	15.81116
2.648	17.92603
2.6485	18.32886
2.649	13.59558
2.6495	15.60974
2.65	14.30054
2.6505	14.50195
2.651	15.91187
2.6515	10.97717
2.652	10.27222
2.6525	4.43115
2.653	2.92053
2.6535	9.06372
2.654	9.36584
2.6545	4.12903
2.655	3.42407
2.6555	3.32336
2.656	-0.30212
2.6565	-6.44531
2.657	-4.73328
2.6575	2.21558
2.658	-0.20142
2.6585	-0.50354
2.659	4.33044
2.6595	-2.11487
2.66	-0.30212
2.6605	0.10071
2.661	-0.30212
2.6615	-1.2085
2.662	-2.71912
2.6625	0.30212
2.663	7.5531
2.6635	4.12903
2.664	7.04956
2.6645	5.23682
2.665	4.63257
2.6655	4.63257
2.666	7.45239
2.6665	10.17151
2.667	7.75452
2.6675	11.2793
2.668	7.35168
2.6685	14.50195
2.669	19.33594
2.6695	19.23523
2.67	18.53027
2.6705	17.52319
2.671	10.57434
2.6715	11.68213
2.672	3.8269
2.6725	5.84106
2.673	4.33044
2.6735	1.61133
2.674	3.62549
2.6745	-2.21558
2.675	4.33044
2.6755	-2.01416
2.676	-0.20142
2.6765	-4.12903
2.677	0.60425
2.6775	9.97009
2.678	8.05664
2.6785	10.37292
2.679	16.01257
2.6795	18.8324
2.68	10.57434
2.6805	6.14319
2.681	13.19275
2.6815	15.60974
2.682	11.88354
2.6825	12.5885
2.683	9.36584
2.6835	2.81982
2.684	9.36584
2.6845	7.15027
2.685	5.43823
2.6855	9.97009
2.686	3.32336
2.6865	-3.02124
2.687	-2.5177
2.6875	-6.54602
2.688	-6.94885
2.6885	-9.06372
2.689	-16.51611
2.6895	-13.19275
2.69	-10.47363
2.6905	-5.23682
2.691	0.90637
2.6915	1.2085
2.692	5.0354
2.6925	4.53186
2.693	0.70496
2.6935	1.00708
2.694	6.64673
2.6945	6.94885
2.695	7.95593
2.6955	11.07788
2.696	12.5885
2.6965	7.65381
2.697	10.87646
2.6975	18.42957
2.698	11.58142
2.6985	15.81116
2.699	11.78284
2.6995	15.1062
2.7	10.87646
2.7005	4.93469
2.701	4.22974
2.7015	11.38
2.702	14.70337
2.7025	9.86938
2.703	12.28638
2.7035	12.78992
2.704	11.98425
2.7045	14.70337
2.705	11.58142
2.7055	10.67505
2.706	8.25806
2.7065	7.65381
2.707	8.56018
2.7075	12.08496
2.708	10.87646
2.7085	11.68213
2.709	15.20691
2.7095	14.40125
2.71	10.97717
2.7105	6.74744
2.711	3.7262
2.7115	-3.52478
2.712	-3.12195
2.7125	-6.64673
2.713	-9.86938
2.7135	-1.61133
2.714	-4.73328
2.7145	-2.61841
2.715	-4.83398
2.7155	-0.40283
2.716	-1.71204
2.7165	3.12195
2.717	2.01416
2.7175	4.83398
2.718	7.95593
2.7185	7.65381
2.719	9.97009
2.7195	7.65381
2.72	7.35168
2.7205	5.84106
2.721	11.98425
2.7215	9.06372
2.722	9.76868
2.7225	6.14319
2.723	9.16443
2.7235	6.64673
2.724	9.76868
2.7245	4.53186
2.725	0.50354
2.7255	5.13611
2.726	-1.00708
2.7265	3.02124
2.727	3.42407
2.7275	2.61841
2.728	3.8269
2.7285	3.7262
2.729	4.02832
2.7295	2.31628
2.73	1.51062
2.7305	3.92761
2.731	0.10071
2.7315	2.81982
2.732	7.35168
2.7325	10.0708
2.733	8.56018
2.7335	10.77576
2.734	15.71045
2.7345	21.24939
2.735	22.35718
2.7355	28.60107
2.736	26.3855
2.7365	27.79541
2.737	31.32019
2.7375	40.2832
2.738	39.27612
2.7385	37.46338
2.739	33.83789
2.7395	35.75134
2.74	32.7301
2.7405	26.58691
2.741	27.49329
2.7415	29.30603
2.742	26.3855
2.7425	27.6947
2.743	22.25647
2.7435	11.68213
2.744	8.05664
2.7445	4.33044
2.745	-3.7262
2.7455	-11.98425
2.746	-14.90479
2.7465	-27.79541
2.747	-24.47205
2.7475	-25.88196
2.748	-25.47913
2.7485	-20.44373
2.749	-9.56726
2.7495	-11.38
2.75	-10.37292
2.7505	-7.35168
2.751	-8.8623
2.7515	-7.45239
2.752	-5.13611
2.7525	-5.13611
2.753	0.70496
2.7535	1.2085
2.754	0.90637
2.7545	-1.61133
2.755	0.20142
2.7555	9.46655
2.756	7.45239
2.7565	6.64673
2.757	4.83398
2.7575	3.7262
2.758	3.52478
2.7585	6.14319
2.759	3.02124
2.7595	3.22266
2.76	9.36584
2.7605	11.38
2.761	12.48779
2.7615	11.48071
2.762	8.8623
2.7625	11.68213
2.763	23.26355
2.7635	20.74585
2.764	22.96143
2.7645	22.05505
2.765	23.36426
2.7655	23.56567
2.766	31.62231
2.7665	25.27771
2.767	26.3855
2.7675	25.07629
2.768	25.78125
2.7685	21.45081
2.769	24.27063
2.7695	19.63806
2.77	21.75293
2.7705	20.04089
2.771	17.82532
2.7715	7.35168
2.772	5.33752
2.7725	2.81982
2.773	-5.13611
2.7735	-11.68213
2.774	-10.97717
2.7745	-13.59558
2.775	-23.96851
2.7755	-18.32886
2.776	-17.92603
2.7765	-16.01257
2.777	-15.91187
2.7775	-11.98425
2.778	-12.68921
2.7785	-6.84814
2.779	-2.01416
2.7795	2.61841
2.78	5.84106
2.7805	4.73328
2.781	2.61841
2.7815	5.74036
2.782	5.94177
2.7825	5.33752
2.783	3.62549
2.7835	9.97009
2.784	6.14319
2.7845	7.85522
2.785	8.96301
2.7855	13.89771
2.786	9.97009
2.7865	9.36584
2.787	12.78992
2.7875	8.35876
2.788	11.48071
2.7885	12.99133
2.789	16.01257
2.7895	13.49487
2.79	13.69629
2.7905	14.30054
2.791	9.97009
2.7915	10.97717
2.792	17.42249
2.7925	11.78284
2.793	13.49487
2.7935	13.49487
2.794	12.5885
2.7945	14.19983
2.795	10.27222
2.7955	11.58142
2.796	2.92053
2.7965	10.67505
2.797	10.97717
2.7975	11.58142
2.798	8.8623
2.7985	5.13611
2.799	6.74744
2.7995	4.02832
2.8	10.17151
2.8005	12.18567
2.801	7.75452
2.8015	2.61841
2.802	14.80408
2.8025	13.19275
2.803	8.45947
2.8035	5.53894
2.804	9.26514
2.8045	6.14319
2.805	5.0354
2.8055	5.74036
2.806	9.56726
2.8065	9.16443
2.807	7.85522
2.8075	10.17151
2.808	6.94885
2.8085	9.06372
2.809	6.04248
2.8095	3.02124
2.81	9.56726
2.8105	4.83398
2.811	4.33044
2.8115	3.32336
2.812	1.81274
2.8125	4.93469
2.813	2.41699
2.8135	6.44531
2.814	6.84814
2.8145	4.12903
2.815	9.56726
2.8155	7.04956
2.816	8.7616
2.8165	6.64673
2.817	6.2439
2.8175	14.50195
2.818	14.40125
2.8185	9.76868
2.819	7.75452
2.8195	13.39417
2.82	13.797
2.8205	8.45947
2.821	9.86938
2.8215	10.57434
2.822	10.67505
2.8225	12.38708
2.823	3.8269
2.8235	5.53894
2.824	10.27222
2.8245	6.44531
2.825	11.17859
2.8255	5.53894
2.826	6.14319
2.8265	7.04956
2.827	13.49487
2.8275	6.64673
2.828	7.85522
2.8285	9.26514
2.829	9.56726
2.8295	11.38
2.83	8.05664
2.8305	8.15735
2.831	6.54602
2.8315	7.85522
2.832	10.37292
2.8325	11.17859
2.833	9.97009
2.8335	6.3446
2.834	2.61841
2.8345	9.06372
2.835	8.15735
2.8355	8.7616
2.836	8.45947
2.8365	11.48071
2.837	8.8623
2.8375	11.38
2.838	5.84106
2.8385	6.04248
2.839	5.23682
2.8395	7.85522
2.84	13.797
2.8405	5.74036
2.841	2.61841
2.8415	6.14319
2.842	8.35876
2.8425	10.37292
2.843	11.98425
2.8435	12.38708
2.844	9.16443
2.8445	7.5531
2.845	3.02124
2.8455	2.5177
2.846	9.56726
2.8465	7.65381
2.847	6.3446
2.8475	11.07788
2.848	9.26514
2.8485	6.64673
2.849	7.04956
2.8495	4.53186
2.85	11.17859
2.8505	8.96301
2.851	11.17859
2.8515	9.56726
2.852	11.07788
2.8525	6.54602
2.853	12.68921
2.8535	6.14319
2.854	8.35876
2.8545	7.04956
2.855	9.56726
2.8555	6.2439
2.856	6.74744
2.8565	8.15735
2.857	12.78992
2.8575	6.74744
2.858	9.16443
2.8585	7.75452
2.859	8.15735
2.8595	7.04956
2.86	7.85522
2.8605	12.08496
2.861	8.8623
2.8615	6.44531
2.862	11.58142
2.8625	7.35168
2.863	11.98425
2.8635	13.99841
2.864	4.33044
2.8645	4.93469
2.865	5.74036
2.8655	4.33044
2.866	4.22974
2.8665	5.43823
2.867	6.84814
2.8675	10.37292
2.868	4.12903
2.8685	7.65381
2.869	4.93469
2.8695	8.25806
2.87	4.93469
2.8705	7.95593
2.871	6.94885
2.8715	4.83398
2.872	7.35168
2.8725	6.64673
2.873	14.19983
2.8735	6.94885
2.874	9.26514
2.8745	8.96301
2.875	6.2439
2.8755	6.14319
2.876	5.84106
2.8765	8.8623
2.877	6.54602
2.8775	7.75452
2.878	6.84814
2.8785	8.35876
2.879	10.0708
2.8795	9.26514
2.88	11.48071
2.8805	11.17859
2.881	6.84814
2.8815	9.46655
2.882	5.33752
2.8825	8.05664
2.883	6.74744
2.8835	12.18567
2.884	12.08496
2.8845	5.13611
2.885	9.86938
2.8855	10.97717
2.886	7.45239
2.8865	5.63965
2.887	9.86938
2.8875	7.04956
2.888	4.12903
2.8885	4.83398
2.889	10.87646
2.8895	7.75452
2.89	12.28638
2.8905	13.89771
2.891	10.77576
2.8915	4.43115
2.892	8.45947
2.8925	10.57434
2.893	8.56018
2.8935	8.96301
2.894	4.93469
2.8945	5.94177
2.895	12.89062
2.8955	13.49487
2.896	14.19983
2.8965	10.0708
2.897	13.29346
2.8975	11.78284
2.898	13.89771
2.8985	6.2439
2.899	8.56018
2.8995	1.71204
2.9	2.92053
2.9005	4.93469
2.901	4.93469
2.9015	6.74744
2.902	10.57434
2.9025	9.66797
2.903	8.66089
2.9035	9.36584
2.904	8.35876
2.9045	3.92761
2.905	8.66089
2.9055	7.25098
2.906	8.35876
2.9065	8.66089
2.907	12.18567
2.9075	9.76868
2.908	9.46655
2.9085	15.71045
2.909	10.37292
2.9095	9.16443
2.91	7.25098
2.9105	6.04248
2.911	6.84814
2.9115	9.97009
2.912	3.02124
2.9125	8.25806
2.913	4.73328
2.9135	1.61133
2.914	1.3092
2.9145	6.94885
2.915	4.93469
2.9155	4.43115
2.916	8.25806
2.9165	10.27222
2.917	9.56726
2.9175	4.22974
2.918	10.47363
2.9185	9.46655
2.919	2.01416
2.9195	4.43115
2.92	6.94885
2.9205	1.71204
2.921	6.2439
2.9215	1.81274
2.922	6.3446
2.9225	12.48779
2.923	12.68921
2.9235	8.96301
2.924	6.3446
2.9245	6.74744
2.925	5.74036
2.9255	12.68921
2.926	10.27222
2.9265	6.54602
2.927	2.5177
2.9275	13.59558
2.928	7.35168
2.9285	3.8269
2.929	4.63257
2.9295	3.8269
2.93	3.12195
2.9305	6.3446
2.931	9.06372
2.9315	3.32336
2.932	7.35168
2.9325	11.68213
2.933	11.78284
2.9335	6.74744
2.934	6.14319
2.9345	6.84814
2.935	5.43823
2.9355	6.44531
2.936	4.02832
2.9365	13.29346
2.937	3.62549
2.9375	5.43823
2.938	4.12903
2.9385	16.11328
2.939	11.07788
2.9395	11.07788
2.94	9.86938
2.9405	12.89062
2.941	8.25806
2.9415	4.93469
2.942	4.33044
2.9425	13.39417
2.943	11.48071
2.9435	8.45947
2.944	8.66089
2.9445	5.13611
2.945	7.35168
2.9455	8.56018
2.946	5.43823
2.9465	10.0708
2.947	5.23682
2.9475	7.65381
2.948	7.5531
2.9485	6.2439
2.949	9.26514
2.9495	10.97717
2.95	9.26514
2.9505	8.25806
2.951	7.35168
2.9515	4.83398
2.952	4.53186
2.9525	7.35168
2.953	9.56726
2.9535	7.5531
2.954	10.87646
2.9545	5.84106
2.955	6.64673
2.9555	10.27222
2.956	6.74744
2.9565	11.58142
2.957	6.64673
2.9575	11.98425
2.958	2.61841
2.9585	4.12903
2.959	16.51611
2.9595	9.56726
2.96	14.30054
2.9605	9.36584
2.961	5.84106
2.9615	6.74744
2.962	13.09204
2.9625	11.78284
2.963	10.87646
2.9635	10.47363
2.964	8.35876
2.9645	15.30762
2.965	12.08496
2.9655	9.16443
2.966	0.40283
2.9665	3.32336
2.967	9.16443
2.9675	8.56018
2.968	7.5531
2.9685	5.84106
2.969	7.95593
2.9695	6.64673
2.97	8.7616
2.9705	9.66797
2.971	5.13611
2.9715	13.29346
2.972	11.48071
2.9725	8.7616
2.973	3.12195
2.9735	9.66797
2.974	6.14319
2.9745	8.56018
2.975	8.96301
2.9755	13.89771
2.976	8.96301
2.9765	9.56726
2.977	10.27222
2.9775	7.15027
2.978	6.64673
2.9785	8.66089
2.979	7.95593
2.9795	6.14319
2.98	4.73328
2.9805	5.23682
2.981	5.13611
2.9815	8.56018
2.982	5.53894
2.9825	3.52478
2.983	5.63965
2.9835	9.16443
2.984	7.04956
2.9845	5.63965
2.985	8.66089
2.9855	12.68921
2.986	10.47363
2.9865	5.74036
2.987	7.45239
2.9875	8.05664
2.988	10.97717
2.9885	7.35168
2.989	10.87646
2.9895	8.35876
2.99	8.96301
2.9905	6.94885
2.991	3.52478
2.9915	7.65381
2.992	1.10779
2.9925	7.5531
2.993	5.33752
2.9935	1.71204
2.994	11.2793
2.9945	8.56018
2.995	5.63965
2.9955	11.78284
2.996	8.05664
2.9965	8.35876
2.997	9.76868
2.9975	8.15735
2.998	5.63965
2.9985	-1.51062
2.999	6.64673
2.9995	1.10779
3	4.63257
3.0005	7.5531
3.001	11.07788
3.0015	6.2439
3.002	5.23682
3.0025	1.91345
3.003	10.37292
3.0035	6.3446
3.004	4.63257
3.0045	6.44531
3.005	5.63965
3.0055	3.62549
3.006	5.74036
3.0065	4.53186
3.007	5.94177
3.0075	3.32336
3.008	4.73328
3.0085	5.23682
3.009	7.75452
3.0095	9.16443
3.01	4.53186
3.0105	5.94177
3.011	9.26514
3.0115	7.35168
3.012	13.49487
3.0125	10.17151
3.013	6.14319
3.0135	5.94177
3.014	6.64673
3.0145	6.74744
3.015	7.75452
3.0155	8.66089
3.016	10.57434
3.0165	6.3446
3.017	1.40991
3.0175	6.2439
3.018	4.93469
3.0185	5.33752
3.019	12.68921
3.0195	10.27222
3.02	7.35168
3.0205	10.87646
3.021	10.0708
3.0215	9.26514
3.022	6.3446
3.0225	7.25098
3.023	5.84106
3.0235	6.64673
3.024	0.50354
3.0245	0.80566
3.025	8.25806
3.0255	4.53186
3.026	6.2439
3.0265	0.20142
3.027	5.53894
3.0275	6.14319
3.028	7.85522
3.0285	5.13611
3.029	3.02124
3.0295	4.02832
3.03	3.62549
3.0305	4.83398
3.031	6.04248
3.0315	0.40283
3.032	6.84814
3.0325	6.94885
3.033	3.7262
3.0335	7.75452
3.034	10.17151
3.0345	10.67505
3.035	4.53186
3.0355	5.74036
3.036	6.84814
3.0365	8.25806
3.037	10.47363
3.0375	9.46655
3.038	8.25806
3.0385	8.15735
3.039	7.04956
3.0395	4.53186
3.04	5.0354
3.0405	1.81274
3.041	0.90637
3.0415	3.8269
3.042	5.33752
3.0425	6.14319
3.043	6.84814
3.0435	3.62549
3.044	6.14319
3.0445	5.13611
3.045	6.64673
3.0455	7.35168
3.046	11.38
3.0465	6.3446
3.047	5.13611
3.0475	6.44531
3.048	8.25806
3.0485	6.04248
3.049	5.53894
3.0495	9.86938
3.05	7.65381
3.0505	7.95593
3.051	9.36584
3.0515	9.46655
3.052	6.84814
3.0525	4.63257
3.053	7.04956
3.0535	5.63965
3.054	6.74744
3.0545	5.33752
3.055	2.5177
3.0555	8.25806
3.056	10.37292
3.0565	9.16443
3.057	8.56018
3.0575	5.94177
3.058	0.90637
3.0585	6.2439
3.059	5.13611
3.0595	5.23682
3.06	2.81982
3.0605	4.93469
3.061	7.5531
3.0615	4.43115
3.062	4.73328
3.0625	3.92761
3.063	6.3446
3.0635	4.12903
3.064	7.45239
3.0645	10.27222
3.065	9.56726
3.0655	9.06372
3.066	11.58142
3.0665	6.54602
3.067	11.17859
3.0675	10.0708
3.068	8.05664
3.0685	8.56018
3.069	3.62549
3.0695	8.7616
3.07	3.7262
3.0705	7.45239
3.071	8.8623
3.0715	13.99841
3.072	10.87646
3.0725	3.92761
3.073	5.23682
3.0735	7.5531
3.074	12.18567
3.0745	7.45239
3.075	3.8269
3.0755	10.27222
3.076	10.67505
3.0765	8.45947
3.077	1.61133
3.0775	3.42407
3.078	5.23682
3.0785	0.70496
3.079	4.53186
3.0795	11.17859
3.08	7.85522
3.0805	9.46655
3.081	6.2439
3.0815	6.3446
3.082	6.64673
3.0825	10.27222
3.083	15.71045
3.0835	10.17151
3.084	12.5885
3.0845	12.68921
3.085	9.46655
3.0855	4.43115
3.086	7.35168
3.0865	3.7262
3.087	1.3092
3.0875	5.74036
3.088	6.14319
3.0885	4.02832
3.089	9.46655
3.0895	1.91345
3.09	4.12903
3.0905	6.54602
3.091	8.15735
3.0915	9.16443
3.092	5.0354
3.0925	4.43115
3.093	5.63965
3.0935	9.76868
3.094	7.04956
3.0945	3.8269
3.095	7.45239
3.0955	8.15735
3.096	6.84814
3.0965	10.37292
3.097	4.22974
3.0975	1.40991
3.098	3.62549
3.0985	2.81982
3.099	4.33044
3.0995	4.22974
3.1	10.37292
3.1005	11.68213
3.101	9.76868
3.1015	3.52478
3.102	7.04956
3.1025	4.02832
3.103	5.74036
3.1035	5.0354
3.104	6.3446
3.1045	7.45239
3.105	9.46655
3.1055	7.35168
3.106	0.80566
3.1065	4.53186
3.107	9.56726
3.1075	7.85522
3.108	4.02832
3.1085	5.53894
3.109	10.37292
3.1095	7.45239
3.11	2.01416
3.1105	8.56018
3.111	8.35876
3.1115	2.92053
3.112	4.22974
3.1125	7.25098
3.113	4.12903
3.1135	4.53186
3.114	8.66089
3.1145	7.15027
3.115	5.43823
3.1155	4.53186
3.116	2.31628
3.1165	6.94885
3.117	1.61133
3.1175	-0.30212
3.118	2.81982
3.1185	4.02832
3.119	4.43115
3.1195	1.71204
3.12	5.33752
3.1205	6.14319
3.121	5.13611
3.1215	5.63965
3.122	0.50354
3.1225	8.66089
3.123	7.95593
3.1235	5.94177
3.124	5.43823
3.1245	7.65381
3.125	6.74744
3.1255	5.53894
3.126	2.5177
3.1265	4.43115
3.127	7.35168
3.1275	3.22266
3.128	-1.71204
3.1285	5.0354
3.129	6.64673
3.1295	7.85522
3.13	6.54602
3.1305	7.95593
3.131	4.12903
3.1315	8.45947
3.132	9.16443
3.1325	5.94177
3.133	5.43823
3.1335	4.93469
3.134	5.33752
3.1345	3.62549
3.135	6.14319
3.1355	4.02832
3.136	6.2439
3.1365	8.35876
3.137	8.15735
3.1375	9.76868
3.138	7.15027
3.1385	4.53186
3.139	4.63257
3.1395	3.12195
3.14	4.12903
3.1405	4.33044
3.141	8.15735
3.1415	0.80566
3.142	4.83398
3.1425	6.3446
3.143	7.35168
3.1435	5.13611
3.144	8.56018
3.1445	9.56726
3.145	4.33044
3.1455	6.64673
3.146	7.25098
3.1465	8.56018
3.147	6.04248
3.1475	4.73328
3.148	10.47363
3.1485	5.74036
3.149	3.32336
3.1495	9.36584
3.15	8.56018
3.1505	7.04956
3.151	9.16443
3.1515	5.33752
3.152	8.35876
3.1525	9.86938
3.153	7.85522
3.1535	3.62549
3.154	5.53894
3.1545	9.06372
3.155	8.15735
3.1555	5.43823
3.156	6.44531
3.1565	5.13611
3.157	7.95593
3.1575	6.74744
3.158	4.53186
3.1585	7.04956
3.159	4.93469
3.1595	4.73328
3.16	8.8623
3.1605	10.67505
3.161	2.5177
3.1615	3.52478
3.162	3.12195
3.1625	2.92053
3.163	0
3.1635	6.94885
3.164	4.43115
3.1645	-3.52478
3.165	-5.23682
3.1655	-1.61133
3.166	-2.21558
3.1665	-2.61841
3.167	-2.92053
3.1675	-4.12903
3.168	0.30212
3.1685	-0.80566
3.169	-1.61133
3.1695	-3.8269
3.17	1.71204
3.1705	1.3092
3.171	-3.12195
3.1715	1.61133
3.172	0
3.1725	1.00708
3.173	4.02832
3.1735	2.21558
3.174	1.3092
3.1745	2.71912
3.175	7.04956
3.1755	4.53186
3.176	1.91345
3.1765	10.77576
3.177	2.71912
3.1775	6.44531
3.178	6.74744
3.1785	0.20142
3.179	1.40991
3.1795	1.61133
3.18	7.15027
3.1805	2.21558
3.181	4.63257
3.1815	3.22266
3.182	8.8623
3.1825	2.92053
3.183	11.68213
3.1835	8.25806
3.184	2.71912
3.1845	1.2085
3.185	5.43823
3.1855	5.94177
3.186	1.00708
3.1865	10.57434
3.187	7.04956
3.1875	4.33044
3.188	7.5531
3.1885	9.86938
3.189	5.84106
3.1895	7.85522
3.19	6.54602
3.1905	8.25806
3.191	10.37292
3.1915	8.96301
3.192	8.15735
3.1925	6.14319
3.193	8.25806
3.1935	11.38
3.194	13.69629
3.1945	14.19983
3.195	10.17151
3.1955	5.63965
3.196	8.45947
3.1965	6.44531
3.197	11.68213
3.1975	5.94177
3.198	4.93469
3.1985	12.18567
3.199	4.83398
3.1995	5.43823
3.2	11.88354
3.2005	10.47363
3.201	11.2793
3.2015	7.85522
3.202	3.52478
3.2025	5.33752
3.203	11.48071
3.2035	13.49487
3.204	7.95593
3.2045	8.45947
3.205	7.65381
3.2055	5.74036
3.206	6.74744
3.2065	9.36584
3.207	8.15735
3.2075	5.53894
3.208	6.14319
3.2085	2.81982
3.209	3.7262
3.2095	7.35168
3.21	6.04248
3.2105	11.58142
3.211	6.84814
3.2115	10.47363
3.212	9.66797
3.2125	2.61841
3.213	10.47363
3.2135	5.43823
3.214	4.83398
3.2145	5.13611
3.215	3.8269
3.2155	8.45947
3.216	5.33752
3.2165	10.17151
3.217	8.66089
3.2175	8.56018
3.218	7.65381
3.2185	7.75452
3.219	7.75452
3.2195	9.76868
3.22	5.94177
3.2205	1.81274
3.221	4.93469
3.2215	7.75452
3.222	6.3446
3.2225	4.43115
3.223	5.84106
3.2235	7.5531
3.224	4.43115
3.2245	15.40833
3.225	8.35876
3.2255	10.77576
3.226	8.35876
3.2265	5.23682
3.227	-0.70496
3.2275	1.81274
3.228	5.13611
3.2285	8.05664
3.229	4.53186
3.2295	6.2439
3.23	6.94885
3.2305	4.33044
3.231	4.53186
3.2315	5.63965
3.232	11.78284
3.2325	8.7616
3.233	4.63257
3.2335	5.43823
3.234	7.25098
3.2345	2.5177
3.235	5.0354
3.2355	6.44531
3.236	8.8623
3.2365	3.7262
3.237	11.17859
3.2375	7.04956
3.238	4.33044
3.2385	12.38708
3.239	6.3446
3.2395	3.02124
3.24	2.41699
3.2405	0.50354
3.241	2.61841
3.2415	4.53186
3.242	2.71912
3.2425	5.13611
3.243	2.5177
3.2435	2.92053
3.244	4.22974
3.2445	3.32336
3.245	3.52478
3.2455	-1.00708
3.246	1.91345
3.2465	4.63257
3.247	4.53186
3.2475	2.71912
3.248	0
3.2485	0.40283
3.249	1.2085
3.2495	5.0354
3.25	5.13611
3.2505	3.02124
3.251	1.2085
3.2515	-0.80566
3.252	4.02832
3.2525	11.48071
3.253	4.93469
3.2535	-1.81274
3.254	3.92761
3.2545	7.25098
3.255	4.33044
3.2555	5.74036
3.256	0.50354
3.2565	2.81982
3.257	-0.90637
3.2575	0.30212
3.258	2.5177
3.2585	7.04956
3.259	4.43115
3.2595	6.74744
3.26	2.41699
3.2605	5.13611
3.261	3.7262
3.2615	2.21558
3.262	3.7262
3.2625	5.33752
3.263	6.2439
3.2635	6.64673
3.264	6.3446
3.2645	5.53894
3.265	7.65381
3.2655	3.8269
3.266	6.94885
3.2665	1.3092
3.267	8.35876
3.2675	2.81982
3.268	4.22974
3.2685	8.35876
3.269	11.17859
3.2695	4.43115
3.27	5.33752
3.2705	5.74036
3.271	7.25098
3.2715	6.2439
3.272	3.22266
3.2725	-4.43115
3.273	4.93469
3.2735	3.62549
3.274	8.05664
3.2745	2.92053
3.275	6.44531
3.2755	3.52478
3.276	0.60425
3.2765	2.21558
3.277	4.33044
3.2775	3.8269
3.278	5.0354
3.2785	6.14319
3.279	4.63257
3.2795	2.41699
3.28	4.33044
3.2805	7.65381
3.281	4.02832
3.2815	2.61841
3.282	3.7262
3.2825	5.13611
3.283	9.97009
3.2835	10.57434
3.284	7.25098
3.2845	8.15735
3.285	6.04248
3.2855	3.52478
3.286	6.94885
3.2865	6.74744
3.287	5.94177
3.2875	2.21558
3.288	5.13611
3.2885	3.42407
3.289	0.60425
3.2895	4.22974
3.29	4.53186
3.2905	3.8269
3.291	-1.3092
3.2915	-0.40283
3.292	2.71912
3.2925	3.52478
3.293	3.8269
3.2935	2.11487
3.294	4.22974
3.2945	1.81274
3.295	2.11487
3.2955	5.53894
3.296	7.15027
3.2965	5.74036
3.297	3.7262
3.2975	3.52478
3.298	2.01416
3.2985	11.88354
3.299	4.43115
3.2995	3.8269
3.3	0.90637
3.3005	3.42407
3.301	6.84814
3.3015	4.83398
3.302	6.74744
3.3025	4.33044
3.303	4.93469
3.3035	10.57434
3.304	4.12903
3.3045	5.53894
3.305	6.64673
3.3055	1.91345
3.306	1.61133
3.3065	2.92053
3.307	2.92053
3.3075	5.84106
3.308	7.04956
3.3085	5.23682
3.309	4.02832
3.3095	5.63965
3.31	4.63257
3.3105	10.27222
3.311	7.95593
3.3115	4.73328
3.312	9.26514
3.3125	2.01416
3.313	6.04248
3.3135	0.90637
3.314	7.15027
3.3145	7.25098
3.315	7.5531
3.3155	5.94177
3.316	5.94177
3.3165	7.65381
3.317	2.71912
3.3175	4.33044
3.318	6.74744
3.3185	6.2439
3.319	6.3446
3.3195	4.12903
3.32	5.53894
3.3205	5.63965
3.321	6.54602
3.3215	4.12903
3.322	5.43823
3.3225	-1.40991
3.323	2.81982
3.3235	6.94885
3.324	4.12903
3.3245	2.11487
3.325	6.84814
3.3255	4.02832
3.326	9.36584
3.3265	5.74036
3.327	7.95593
3.3275	11.78284
3.328	3.42407
3.3285	2.81982
3.329	8.96301
3.3295	9.06372
3.33	2.01416
3.3305	2.11487
3.331	4.93469
3.3315	4.83398
3.332	4.93469
3.3325	2.92053
3.333	7.5531
3.3335	5.53894
3.334	4.53186
3.3345	3.8269
3.335	4.73328
3.3355	9.16443
3.336	4.53186
3.3365	2.01416
3.337	7.75452
3.3375	7.85522
3.338	1.91345
3.3385	2.41699
3.339	5.53894
3.3395	8.8623
3.34	2.31628
3.3405	2.61841
3.341	5.63965
3.3415	7.65381
3.342	7.85522
3.3425	3.62549
3.343	5.94177
3.3435	11.68213
3.344	10.37292
3.3445	9.97009
3.345	5.74036
3.3455	4.33044
3.346	14.90479
3.3465	11.68213
3.347	5.74036
3.3475	5.74036
3.348	5.53894
3.3485	5.84106
3.349	2.21558
3.3495	5.23682
3.35	5.94177
3.3505	4.22974
3.351	9.06372
3.3515	3.8269
3.352	5.23682
3.3525	1.71204
3.353	1.51062
3.3535	5.33752
3.354	7.95593
3.3545	3.52478
3.355	5.23682
3.3555	-0.50354
3.356	3.8269
3.3565	2.41699
3.357	2.21558
3.3575	7.45239
3.358	2.21558
3.3585	6.04248
3.359	2.41699
3.3595	3.92761
3.36	4.73328
3.3605	4.12903
3.361	4.02832
3.3615	8.7616
3.362	4.73328
3.3625	6.14319
3.363	4.93469
3.3635	4.12903
3.364	2.11487
3.3645	6.74744
3.365	5.53894
3.3655	6.04248
3.366	2.31628
3.3665	3.52478
3.367	7.85522
3.3675	6.64673
3.368	9.46655
3.3685	6.84814
3.369	7.25098
3.3695	2.31628
3.37	0.40283
3.3705	10.47363
3.371	5.13611
3.3715	4.12903
3.372	5.33752
3.3725	5.53894
3.373	3.62549
3.3735	5.23682
3.374	0.40283
3.3745	4.63257
3.375	3.52478
3.3755	4.02832
3.376	7.25098
3.3765	3.92761
3.377	8.96301
3.3775	4.43115
3.378	7.75452
3.3785	2.11487
3.379	10.27222
3.3795	8.35876
3.38	7.5531
3.3805	10.97717
3.381	4.73328
3.3815	5.84106
3.382	6.54602
3.3825	4.73328
3.383	1.71204
3.3835	7.15027
3.384	7.04956
3.3845	9.26514
3.385	7.04956
3.3855	8.56018
3.386	5.23682
3.3865	1.51062
3.387	8.45947
3.3875	9.06372
3.388	12.08496
3.3885	7.04956
3.389	0.50354
3.3895	4.12903
3.39	6.3446
3.3905	8.56018
3.391	4.22974
3.3915	5.53894
3.392	9.76868
3.3925	7.15027
3.393	0.20142
3.3935	2.41699
3.394	5.13611
3.3945	3.92761
3.395	9.66797
3.3955	3.62549
3.396	7.35168
3.3965	3.62549
3.397	5.53894
3.3975	10.97717
3.398	7.04956
3.3985	9.46655
3.399	12.89062
3.3995	12.99133
3.4	8.8623
3.4005	4.22974
3.401	2.21558
3.4015	5.74036
3.402	3.62549
3.4025	3.32336
3.403	4.93469
3.4035	5.94177
3.404	5.74036
3.4045	2.71912
3.405	1.71204
3.4055	7.25098
3.406	6.74744
3.4065	8.25806
3.407	6.04248
3.4075	5.23682
3.408	6.94885
3.4085	-0.40283
3.409	4.43115
3.4095	1.51062
3.41	6.54602
3.4105	2.41699
3.411	4.33044
3.4115	4.53186
3.412	3.42407
3.4125	6.54602
3.413	5.23682
3.4135	4.22974
3.414	2.92053
3.4145	4.73328
3.415	6.44531
3.4155	4.43115
3.416	8.25806
3.4165	8.7616
3.417	8.05664
3.4175	8.25806
3.418	6.04248
3.4185	3.52478
3.419	2.92053
3.4195	4.12903
3.42	3.42407
3.4205	5.33752
3.421	4.12903
3.4215	0
3.422	2.61841
3.4225	8.45947
3.423	7.35168
3.4235	5.33752
3.424	6.94885
3.4245	4.83398
3.425	3.92761
3.4255	-0.10071
3.426	9.36584
3.4265	6.84814
3.427	10.0708
3.4275	4.33044
3.428	2.31628
3.4285	4.63257
3.429	2.5177
3.4295	5.63965
3.43	3.7262
3.4305	3.32336
3.431	7.65381
3.4315	7.65381
3.432	8.7616
3.4325	8.7616
3.433	9.46655
3.4335	7.75452
3.434	7.5531
3.4345	4.43115
3.435	3.62549
3.4355	7.04956
3.436	2.71912
3.4365	2.92053
3.437	3.22266
3.4375	4.93469
3.438	8.66089
3.4385	11.48071
3.439	7.95593
3.4395	5.23682
3.44	6.54602
3.4405	4.93469
3.441	1.10779
3.4415	1.71204
3.442	1.91345
3.4425	5.63965
3.443	5.23682
3.4435	3.12195
3.444	8.8623
3.4445	8.05664
3.445	11.48071
3.4455	9.56726
3.446	10.17151
3.4465	5.84106
3.447	2.5177
3.4475	6.3446
3.448	5.0354
3.4485	7.65381
3.449	8.7616
3.4495	3.42407
3.45	3.52478
3.4505	7.85522
3.451	7.5531
3.4515	3.62549
3.452	6.94885
3.4525	1.2085
3.453	7.75452
3.4535	6.54602
3.454	9.76868
3.4545	11.07788
3.455	5.23682
3.4555	4.53186
3.456	6.04248
3.4565	11.78284
3.457	5.53894
3.4575	4.63257
3.458	2.41699
3.4585	5.13611
3.459	2.5177
3.4595	6.04248
3.46	8.96301
3.4605	8.45947
3.461	3.52478
3.4615	3.7262
3.462	5.13611
3.4625	7.45239
3.463	7.85522
3.4635	6.84814
3.464	3.32336
3.4645	6.54602
3.465	3.42407
3.4655	6.04248
3.466	6.64673
3.4665	10.27222
3.467	6.74744
3.4675	5.0354
3.468	9.76868
3.4685	6.04248
3.469	3.8269
3.4695	10.97717
3.47	7.25098
3.4705	3.32336
3.471	2.5177
3.4715	3.92761
3.472	6.14319
3.4725	3.7262
3.473	1.40991
3.4735	2.21558
3.474	4.33044
3.4745	4.43115
3.475	4.02832
3.4755	8.25806
3.476	4.22974
3.4765	5.53894
3.477	4.12903
3.4775	6.74744
3.478	5.53894
3.4785	6.94885
3.479	7.04956
3.4795	10.57434
3.48	3.22266
3.4805	1.61133
3.481	8.45947
3.4815	4.73328
3.482	3.32336
3.4825	6.54602
3.483	10.47363
3.4835	12.48779
3.484	6.54602
3.4845	15.30762
3.485	5.53894
3.4855	7.95593
3.486	8.56018
3.4865	1.51062
3.487	5.43823
3.4875	0
3.488	4.33044
3.4885	5.33752
3.489	6.74744
3.4895	5.23682
3.49	0.10071
3.4905	5.53894
3.491	4.12903
3.4915	1.61133
3.492	11.68213
3.4925	5.23682
3.493	5.94177
3.4935	5.43823
3.494	7.5531
3.4945	4.93469
3.495	2.21558
3.4955	4.73328
3.496	1.61133
3.4965	3.42407
3.497	-0.30212
3.4975	3.12195
3.498	6.64673
3.4985	-0.90637
3.499	1.71204
3.4995	5.84106
3.5	10.77576
3.5005	6.44531
3.501	10.47363
3.5015	5.0354
3.502	7.5531
3.5025	4.02832
3.503	4.43115
3.5035	7.95593
3.504	2.11487
3.5045	4.53186
3.505	4.12903
3.5055	3.42407
3.506	1.91345
3.5065	0.10071
3.507	1.81274
3.5075	0.20142
3.508	0.80566
3.5085	3.32336
3.509	6.2439
3.5095	5.0354
3.51	6.64673
3.5105	-0.80566
3.511	4.22974
3.5115	5.63965
3.512	6.74744
3.5125	7.5531
3.513	6.54602
3.5135	3.02124
3.514	5.43823
3.5145	8.66089
3.515	0.20142
3.5155	2.71912
3.516	5.23682
3.5165	5.63965
3.517	6.54602
3.5175	2.81982
3.518	9.76868
3.5185	3.8269
3.519	10.17151
3.5195	5.63965
3.52	4.53186
3.5205	3.42407
3.521	3.22266
3.5215	4.02832
3.522	7.25098
3.5225	3.22266
3.523	6.94885
3.5235	7.04956
3.524	10.37292
3.5245	7.5531
3.525	11.58142
3.5255	6.2439
3.526	7.85522
3.5265	4.53186
3.527	4.93469
3.5275	10.87646
3.528	7.04956
3.5285	5.23682
3.529	11.17859
3.5295	2.5177
3.53	7.75452
3.5305	4.63257
3.531	4.22974
3.5315	7.65381
3.532	4.73328
3.5325	4.63257
3.533	7.5531
3.5335	0.30212
3.534	4.53186
3.5345	7.65381
3.535	5.84106
3.5355	6.64673
3.536	2.92053
3.5365	7.45239
3.537	7.25098
3.5375	6.14319
3.538	3.92761
3.5385	6.04248
3.539	10.47363
3.5395	10.27222
3.54	2.11487
3.5405	6.94885
3.541	6.44531
3.5415	-0.80566
3.542	2.21558
3.5425	5.33752
3.543	3.7262
3.5435	5.13611
3.544	6.04248
3.5445	6.54602
3.545	10.57434
3.5455	11.68213
3.546	3.42407
3.5465	5.94177
3.547	3.52478
3.5475	10.77576
3.548	4.53186
3.5485	4.63257
3.549	9.97009
3.5495	7.45239
3.55	9.16443
3.5505	7.5531
3.551	7.75452
3.5515	2.5177
3.552	11.07788
3.5525	4.43115
3.553	5.63965
3.5535	4.83398
3.554	5.94177
3.5545	0.80566
3.555	4.33044
3.5555	4.83398
3.556	9.06372
3.5565	4.93469
3.557	5.0354
3.5575	2.01416
3.558	8.8623
3.5585	6.3446
3.559	8.7616
3.5595	6.3446
3.56	4.33044
3.5605	5.63965
3.561	4.83398
3.5615	5.94177
3.562	8.56018
3.5625	8.35876
3.563	7.75452
3.5635	10.17151
3.564	8.05664
3.5645	-0.10071
3.565	2.92053
3.5655	4.83398
3.566	9.86938
3.5665	12.38708
3.567	5.94177
3.5675	3.52478
3.568	3.52478
3.5685	3.02124
3.569	7.5531
3.5695	0.90637
3.57	3.12195
3.5705	2.92053
3.571	5.74036
3.5715	1.51062
3.572	5.53894
3.5725	5.53894
3.573	6.54602
3.5735	4.63257
3.574	6.2439
3.5745	10.17151
3.575	8.7616
3.5755	0.10071
3.576	8.35876
3.5765	6.74744
3.577	9.16443
3.5775	9.16443
3.578	11.78284
3.5785	1.3092
3.579	3.8269
3.5795	11.88354
3.58	6.64673
3.5805	6.14319
3.581	7.35168
3.5815	4.93469
3.582	8.25806
3.5825	6.64673
3.583	2.21558
3.5835	7.04956
3.584	8.25806
3.5845	4.93469
3.585	9.56726
3.5855	9.76868
3.586	6.54602
3.5865	2.61841
3.587	2.5177
3.5875	5.74036
3.588	1.10779
3.5885	6.3446
3.589	3.32336
3.5895	6.54602
3.59	6.14319
3.5905	5.43823
3.591	-1.71204
3.5915	0.30212
3.592	0.30212
3.5925	4.43115
3.593	9.46655
3.5935	6.2439
3.594	3.62549
3.5945	5.74036
3.595	6.74744
3.5955	8.56018
3.596	8.7616
3.5965	6.54602
3.597	4.83398
3.5975	5.23682
3.598	-1.51062
3.5985	5.0354
3.599	7.85522
3.5995	5.74036
3.6	4.33044
3.6005	0.80566
3.601	5.74036
3.6015	6.14319
3.602	7.45239
3.6025	4.83398
3.603	3.12195
3.6035	4.83398
3.604	2.21558
3.6045	1.61133
3.605	6.14319
3.6055	6.3446
3.606	5.94177
3.6065	6.2439
3.607	4.33044
3.6075	7.25098
3.608	6.3446
3.6085	3.7262
3.609	5.74036
3.6095	3.12195
3.61	6.14319
3.6105	1.71204
3.611	4.83398
3.6115	8.96301
3.612	6.84814
3.6125	6.74744
3.613	7.04956
3.6135	5.23682
3.614	2.01416
3.6145	1.71204
3.615	5.94177
3.6155	6.54602
3.616	5.84106
3.6165	6.44531
3.617	5.0354
3.6175	5.53894
3.618	9.36584
3.6185	6.74744
3.619	5.94177
3.6195	9.36584
3.62	8.45947
3.6205	3.32336
3.621	7.5531
3.6215	4.93469
3.622	4.73328
3.6225	8.05664
3.623	9.46655
3.6235	8.25806
3.624	7.85522
3.6245	9.76868
3.625	8.05664
3.6255	4.53186
3.626	11.07788
3.6265	14.80408
3.627	7.35168
3.6275	5.94177
3.628	4.33044
3.6285	2.5177
3.629	1.10779
3.6295	5.33752
3.63	8.25806
3.6305	5.74036
3.631	5.63965
3.6315	5.13611
3.632	0.10071
3.6325	10.17151
3.633	8.05664
3.6335	10.47363
3.634	7.65381
3.6345	3.32336
3.635	8.15735
3.6355	8.35876
3.636	3.52478
3.6365	6.04248
3.637	9.36584
3.6375	0.80566
3.638	3.22266
3.6385	9.86938
3.639	8.96301
3.6395	7.85522
3.64	11.58142
3.6405	5.23682
3.641	10.27222
3.6415	7.15027
3.642	7.65381
3.6425	9.66797
3.643	6.84814
3.6435	5.33752
3.644	8.7616
3.6445	8.45947
3.645	6.74744
3.6455	7.5531
3.646	8.15735
3.6465	8.8623
3.647	2.01416
3.6475	0.50354
3.648	7.25098
3.6485	1.91345
3.649	7.95593
3.6495	8.25806
3.65	6.74744
3.6505	7.95593
3.651	6.74744
3.6515	0.90637
3.652	0.60425
3.6525	5.13611
3.653	5.63965
3.6535	0.40283
3.654	4.53186
3.6545	5.84106
3.655	5.23682
3.6555	4.93469
3.656	6.84814
3.6565	2.41699
3.657	2.11487
3.6575	4.83398
3.658	2.92053
3.6585	4.53186
3.659	4.22974
3.6595	7.15027
3.66	10.17151
3.6605	9.36584
3.661	8.35876
3.6615	13.09204
3.662	7.95593
3.6625	3.62549
3.663	7.5531
3.6635	5.43823
3.664	4.73328
3.6645	8.66089
3.665	8.8623
3.6655	11.38
3.666	6.94885
3.6665	13.29346
3.667	10.37292
3.6675	7.85522
3.668	11.07788
3.6685	7.15027
3.669	6.54602
3.6695	2.61841
3.67	4.02832
3.6705	8.15735
3.671	8.25806
3.6715	4.22974
3.672	5.13611
3.6725	7.45239
3.673	7.65381
3.6735	9.56726
3.674	9.46655
3.6745	8.35876
3.675	7.35168
3.6755	6.44531
3.676	5.43823
3.6765	9.76868
3.677	5.13611
3.6775	1.91345
3.678	2.11487
3.6785	8.35876
3.679	5.74036
3.6795	4.53186
3.68	7.25098
3.6805	3.32336
3.681	2.92053
3.6815	2.41699
3.682	9.36584
3.6825	12.28638
3.683	7.45239
3.6835	9.86938
3.684	7.45239
3.6845	6.04248
3.685	7.45239
3.6855	6.94885
3.686	5.74036
3.6865	4.83398
3.687	1.81274
3.6875	5.94177
3.688	2.41699
3.6885	2.92053
3.689	8.15735
3.6895	5.0354
3.69	8.15735
3.6905	5.53894
3.691	6.44531
3.6915	-1.81274
3.692	2.81982
3.6925	3.92761
3.693	5.74036
3.6935	12.5885
3.694	4.33044
3.6945	7.25098
3.695	3.92761
3.6955	4.12903
3.696	6.44531
3.6965	7.15027
3.697	-0.20142
3.6975	6.14319
3.698	6.54602
3.6985	5.63965
3.699	4.53186
3.6995	6.74744
3.7	8.15735
3.7005	2.71912
3.701	2.71912
3.7015	2.5177
3.702	4.73328
3.7025	1.91345
3.703	6.2439
3.7035	5.84106
3.704	10.47363
3.7045	3.12195
3.705	6.04248
3.7055	5.74036
3.706	6.3446
3.7065	6.14319
3.707	9.66797
3.7075	5.23682
3.708	2.01416
3.7085	6.2439
3.709	3.12195
3.7095	5.94177
3.71	5.74036
3.7105	8.96301
3.711	6.94885
3.7115	10.87646
3.712	7.5531
3.7125	5.53894
3.713	4.73328
3.7135	1.40991
3.714	9.97009
3.7145	9.26514
3.715	5.63965
3.7155	11.07788
3.716	5.74036
3.7165	7.85522
3.717	3.22266
3.7175	5.63965
3.718	5.63965
3.7185	4.83398
3.719	12.89062
3.7195	12.38708
3.72	4.83398
3.7205	8.45947
3.721	6.64673
3.7215	5.43823
3.722	1.71204
3.7225	5.13611
3.723	4.83398
3.7235	8.15735
3.724	3.12195
3.7245	7.15027
3.725	6.74744
3.7255	3.92761
3.726	2.31628
3.7265	4.73328
3.727	6.3446
3.7275	2.41699
3.728	4.63257
3.7285	6.54602
3.729	4.22974
3.7295	5.33752
3.73	8.96301
3.7305	6.14319
3.731	3.32336
3.7315	4.22974
3.732	6.3446
3.7325	3.02124
3.733	5.84106
3.7335	7.75452
3.734	4.02832
3.7345	2.81982
3.735	3.12195
3.7355	6.44531
3.736	4.83398
3.7365	3.62549
3.737	1.10779
3.7375	-4.12903
3.738	-1.81274
3.7385	0.80566
3.739	-2.5177
3.7395	-6.14319
3.74	0.30212
3.7405	-1.71204
3.741	4.02832
3.7415	-1.51062
3.742	1.71204
3.7425	1.2085
3.743	-0.80566
3.7435	-4.02832
3.744	-1.71204
3.7445	1.71204
3.745	1.71204
3.7455	-1.3092
3.746	5.63965
3.7465	2.21558
3.747	1.00708
3.7475	2.31628
3.748	1.00708
3.7485	3.42407
3.749	0.10071
3.7495	3.52478
3.75	5.33752
3.7505	7.65381
3.751	0.70496
3.7515	1.2085
3.752	11.17859
3.7525	10.67505
3.753	8.45947
3.7535	8.25806
3.754	5.74036
3.7545	6.54602
3.755	8.15735
3.7555	9.97009
3.756	11.58142
3.7565	8.15735
3.757	2.92053
3.7575	5.74036
3.758	7.5531
3.7585	9.86938
3.759	6.94885
3.7595	14.60266
3.76	10.0708
3.7605	10.0708
3.761	12.48779
3.7615	9.97009
3.762	6.2439
3.7625	6.44531
3.763	8.96301
3.7635	6.74744
3.764	9.46655
3.7645	7.25098
3.765	6.74744
3.7655	7.95593
3.766	10.57434
3.7665	7.95593
3.767	10.37292
3.7675	7.5531
3.768	16.11328
3.7685	7.35168
3.769	7.45239
3.7695	7.95593
3.77	5.43823
3.7705	5.84106
3.771	5.43823
3.7715	5.74036
3.772	8.15735
3.7725	6.54602
3.773	5.33752
3.7735	5.23682
3.774	8.15735
3.7745	8.25806
3.775	12.28638
3.7755	7.85522
3.776	13.99841
3.7765	9.46655
3.777	8.35876
3.7775	11.2793
3.778	4.12903
3.7785	8.66089
3.779	11.2793
3.7795	11.48071
3.78	5.74036
3.7805	7.45239
3.781	7.65381
3.7815	7.95593
3.782	10.27222
3.7825	11.17859
3.783	7.5531
3.7835	6.74744
3.784	8.35876
3.7845	3.12195
3.785	5.43823
3.7855	10.57434
3.786	8.96301
3.7865	7.75452
3.787	3.42407
3.7875	1.61133
3.788	7.04956
3.7885	4.43115
3.789	3.62549
3.7895	4.73328
3.79	1.2085
3.7905	3.02124
3.791	6.44531
3.7915	6.04248
3.792	8.96301
3.7925	3.92761
3.793	4.43115
3.7935	3.62549
3.794	4.83398
3.7945	5.0354
3.795	5.53894
3.7955	8.25806
3.796	8.96301
3.7965	4.83398
3.797	9.06372
3.7975	9.46655
3.798	7.5531
3.7985	3.92761
3.799	8.05664
3.7995	4.73328
3.8	9.66797
3.8005	5.53894
3.801	2.11487
3.8015	2.5177
3.802	4.93469
3.8025	4.53186
3.803	3.12195
3.8035	3.52478
3.804	3.02124
3.8045	8.8623
3.805	5.53894
3.8055	3.12195
3.806	9.66797
3.8065	6.64673
3.807	11.98425
3.8075	3.52478
3.808	7.04956
3.8085	11.17859
3.809	3.22266
3.8095	4.93469
3.81	3.7262
3.8105	1.40991
3.811	8.56018
3.8115	-0.90637
3.812	-1.10779
3.8125	6.74744
3.813	2.11487
3.8135	1.00708
3.814	2.61841
3.8145	1.51062
3.815	0.80566
3.8155	4.33044
3.816	2.5177
3.8165	4.83398
3.817	1.81274
3.8175	4.93469
3.818	6.94885
3.8185	4.63257
3.819	9.06372
3.8195	1.2085
3.82	-0.70496
3.8205	0.90637
3.821	3.32336
3.8215	-2.71912
3.822	0.20142
3.8225	6.54602
3.823	5.0354
3.8235	6.74744
3.824	5.94177
3.8245	7.75452
3.825	3.7262
3.8255	-1.71204
3.826	-0.80566
3.8265	4.22974
3.827	5.94177
3.8275	3.02124
3.828	0.50354
3.8285	6.64673
3.829	13.797
3.8295	7.5531
3.83	7.75452
3.8305	6.3446
3.831	2.11487
3.8315	5.43823
3.832	9.16443
3.8325	4.12903
3.833	4.12903
3.8335	5.23682
3.834	2.41699
3.8345	-0.50354
3.835	5.13611
3.8355	6.74744
3.836	4.02832
3.8365	3.42407
3.837	5.74036
3.8375	-0.20142
3.838	8.25806
3.8385	3.12195
3.839	5.63965
3.8395	4.43115
3.84	4.22974
3.8405	2.71912
3.841	5.23682
3.8415	4.53186
3.842	2.41699
3.8425	7.15027
3.843	0.20142
3.8435	10.17151
3.844	8.96301
3.8445	10.47363
3.845	5.53894
3.8455	8.35876
3.846	6.04248
3.8465	5.63965
3.847	8.96301
3.8475	11.98425
3.848	4.22974
3.8485	4.43115
3.849	4.33044
3.8495	3.12195
3.85	5.43823
3.8505	8.8623
3.851	6.94885
3.8515	1.2085
3.852	5.63965
3.8525	4.63257
3.853	8.05664
3.8535	3.42407
3.854	9.26514
3.8545	4.63257
3.855	4.63257
3.8555	8.25806
3.856	8.96301
3.8565	5.23682
3.857	4.33044
3.8575	2.41699
3.858	3.12195
3.8585	4.12903
3.859	2.92053
3.8595	5.94177
3.86	8.45947
3.8605	6.94885
3.861	5.63965
3.8615	1.10779
3.862	11.2793
3.8625	2.11487
3.863	5.23682
3.8635	5.0354
3.864	7.15027
3.8645	10.27222
3.865	5.0354
3.8655	7.15027
3.866	6.84814
3.8665	10.17151
3.867	11.2793
3.8675	6.3446
3.868	1.81274
3.8685	5.0354
3.869	6.14319
3.8695	5.63965
3.87	10.87646
3.8705	11.17859
3.871	6.94885
3.8715	4.93469
3.872	0.40283
3.8725	4.43115
3.873	7.35168
3.8735	6.74744
3.874	3.62549
3.8745	6.44531
3.875	7.65381
3.8755	4.83398
3.876	7.5531
3.8765	10.47363
3.877	8.56018
3.8775	2.21558
3.878	3.52478
3.8785	8.56018
3.879	6.2439
3.8795	1.51062
3.88	5.33752
3.8805	7.65381
3.881	1.3092
3.8815	2.31628
3.882	4.02832
3.8825	4.12903
3.883	11.07788
3.8835	8.25806
3.884	4.63257
3.8845	5.13611
3.885	4.43115
3.8855	4.02832
3.886	5.84106
3.8865	5.33752
3.887	11.48071
3.8875	9.66797
3.888	11.58142
3.8885	5.63965
3.889	5.43823
3.8895	6.64673
3.89	6.3446
3.8905	2.41699
3.891	6.3446
3.8915	5.13611
3.892	9.66797
3.8925	4.22974
3.893	4.02832
3.8935	8.96301
3.894	4.53186
3.8945	11.17859
3.895	7.85522
3.8955	7.35168
3.896	7.35168
3.8965	11.17859
3.897	7.65381
3.8975	4.93469
3.898	8.25806
3.8985	9.66797
3.899	5.0354
3.8995	4.22974
3.9	3.62549
3.9005	7.25098
3.901	7.15027
3.9015	5.63965
3.902	-0.20142
3.9025	3.22266
3.903	2.71912
3.9035	5.33752
3.904	3.62549
3.9045	5.33752
3.905	4.33044
3.9055	2.41699
3.906	5.13611
3.9065	10.17151
3.907	8.15735
3.9075	4.22974
3.908	5.74036
3.9085	3.22266
3.909	12.99133
3.9095	5.13611
3.91	4.73328
3.9105	9.26514
3.911	4.83398
3.9115	4.53186
3.912	2.71912
3.9125	3.52478
3.913	-0.90637
3.9135	5.13611
3.914	3.92761
3.9145	2.81982
3.915	3.02124
3.9155	7.45239
3.916	9.16443
3.9165	8.96301
3.917	7.35168
3.9175	8.8623
3.918	3.42407
3.9185	5.0354
3.919	0.70496
3.9195	2.61841
3.92	-2.21558
3.9205	2.31628
3.921	1.40991
3.9215	1.71204
3.922	4.73328
3.9225	4.02832
3.923	8.25806
3.9235	5.74036
3.924	4.93469
3.9245	4.33044
3.925	7.5531
3.9255	7.25098
3.926	6.64673
3.9265	5.94177
3.927	4.53186
3.9275	2.71912
3.928	3.52478
3.9285	3.7262
3.929	9.16443
3.9295	3.7262
3.93	4.12903
3.9305	2.41699
3.931	6.14319
3.9315	1.91345
3.932	6.54602
3.9325	6.54602
3.933	6.54602
3.9335	7.04956
