Gabriele_Carluccio_Left_2.c3d  



Time(s):	A_R_bicipite(μV):
0	49.14551
0.0005	61.02905
0.001	55.69153
0.0015	35.14709
0.002	17.6239
0.0025	3.42407
0.003	-20.94727
0.0035	-18.02673
0.004	-11.38
0.0045	-13.09204
0.005	-10.47363
0.0055	-17.22107
0.006	-51.5625
0.0065	-71.20056
0.007	-54.18091
0.0075	-40.88745
0.008	-30.31311
0.0085	-22.96143
0.009	-38.67188
0.0095	-32.22656
0.01	-29.10461
0.0105	-39.47754
0.011	-30.71594
0.0115	1.51062
0.012	85.5011
0.0125	128.90625
0.013	144.91882
0.0135	130.31616
0.014	109.67102
0.0145	70.69702
0.015	30.31311
0.0155	-0.50354
0.016	-35.54993
0.0165	-51.5625
0.017	-59.82056
0.0175	-53.87878
0.018	-34.03931
0.0185	-7.75452
0.019	15.50903
0.0195	27.09045
0.02	40.58533
0.0205	78.25012
0.021	102.21863
0.0215	100.30518
0.022	129.81262
0.0225	175.13123
0.023	185.90698
0.0235	166.87317
0.024	125.7843
0.0245	70.89844
0.025	7.15027
0.0255	-46.22498
0.026	-85.29968
0.0265	-111.28235
0.027	-122.56165
0.0275	-134.74731
0.028	-134.74731
0.0285	-112.79297
0.029	-93.45703
0.0295	-70.79773
0.03	-60.02197
0.0305	-47.63489
0.031	-21.45081
0.0315	-3.12195
0.032	-1.81274
0.0325	-0.90637
0.033	-4.53186
0.0335	-6.84814
0.034	11.98425
0.0345	26.28479
0.035	74.82605
0.0355	149.04785
0.036	197.28699
0.0365	206.25
0.037	182.48291
0.0375	143.20679
0.038	103.93066
0.0385	105.23987
0.039	98.29102
0.0395	92.34924
0.04	57.50427
0.0405	23.76709
0.041	-3.92761
0.0415	-35.14709
0.042	-71.09985
0.0425	-92.85278
0.043	-119.54041
0.0435	-148.3429
0.044	-146.42944
0.0445	-117.92908
0.045	-99.90234
0.0455	-108.46252
0.046	-104.3335
0.0465	-87.01172
0.047	-70.99915
0.0475	-50.65613
0.048	-42.90161
0.0485	-34.14001
0.049	-7.25098
0.0495	44.31152
0.05	89.73083
0.0505	161.93848
0.051	227.6001
0.0515	262.74719
0.052	256.80542
0.0525	245.52612
0.053	241.59851
0.0535	217.12646
0.054	189.73389
0.0545	160.83069
0.055	121.9574
0.0555	68.68286
0.056	-5.13611
0.0565	-66.76941
0.057	-123.2666
0.0575	-162.2406
0.058	-200.81177
0.0585	-234.85107
0.059	-253.9856
0.0595	-260.63232
0.06	-228.50647
0.0605	-209.77478
0.061	-157.60803
0.0615	-129.71191
0.062	-99.90234
0.0625	-78.85437
0.063	-52.56958
0.0635	-32.83081
0.064	-59.31702
0.0645	-100.80872
0.065	-113.29651
0.0655	-102.31934
0.066	-87.11243
0.0665	-58.00781
0.067	-39.27612
0.0675	-22.15576
0.068	-11.88354
0.0685	0.50354
0.069	31.82373
0.0695	70.89844
0.07	94.16199
0.0705	100.70801
0.071	103.52783
0.0715	94.3634
0.072	95.06836
0.0725	104.23279
0.073	112.39014
0.0735	105.13916
0.074	88.92517
0.0745	68.78357
0.075	44.11011
0.0755	26.48621
0.076	-8.05664
0.0765	-41.89453
0.077	-51.05896
0.0775	-56.49719
0.078	-53.87878
0.0785	-51.05896
0.079	-60.3241
0.0795	-59.41772
0.08	-47.63489
0.0805	-44.51294
0.081	-38.47046
0.0815	-30.01099
0.082	-14.70337
0.0825	-9.46655
0.083	0.70496
0.0835	8.8623
0.084	14.90479
0.0845	17.42249
0.085	15.91187
0.0855	16.61682
0.086	12.08496
0.0865	9.56726
0.087	8.8623
0.0875	7.75452
0.088	2.71912
0.0885	-5.0354
0.089	-14.70337
0.0895	-19.53735
0.09	-3.92761
0.0905	3.92761
0.091	2.61841
0.0915	6.14319
0.092	-2.81982
0.0925	-13.19275
0.093	-11.58142
0.0935	4.43115
0.094	11.07788
0.0945	14.90479
0.095	12.08496
0.0955	5.84106
0.096	4.93469
0.0965	9.46655
0.097	20.74585
0.0975	16.91895
0.098	14.90479
0.0985	29.30603
0.099	33.43506
0.0995	31.92444
0.1	35.75134
0.1005	51.76392
0.101	49.14551
0.1015	43.30444
0.102	41.29028
0.1025	81.57349
0.103	154.78821
0.1035	216.22009
0.104	259.32312
0.1045	268.78967
0.105	249.0509
0.1055	252.27356
0.106	251.66931
0.1065	223.16895
0.107	186.81335
0.1075	122.76306
0.108	57.70569
0.1085	-9.66797
0.109	-65.46021
0.1095	-121.05103
0.11	-167.17529
0.1105	-210.37903
0.111	-230.41992
0.1115	-220.44983
0.112	-201.11389
0.1125	-197.99194
0.113	-198.29407
0.1135	-168.98804
0.114	-145.72449
0.1145	-141.29333
0.115	-122.36023
0.1155	-87.91809
0.116	-56.69861
0.1165	-30.81665
0.117	-20.94727
0.1175	-6.94885
0.118	-2.81982
0.1185	3.52478
0.119	4.33044
0.1195	9.56726
0.12	1.10779
0.1205	10.47363
0.121	10.37292
0.1215	16.3147
0.122	13.69629
0.1225	16.11328
0.123	18.12744
0.1235	17.72461
0.124	21.14868
0.1245	20.54443
0.125	15.71045
0.1255	16.01257
0.126	16.01257
0.1265	16.21399
0.127	12.18567
0.1275	11.98425
0.128	8.8623
0.1285	14.30054
0.129	6.94885
0.1295	6.94885
0.13	13.89771
0.1305	8.25806
0.131	9.36584
0.1315	6.3446
0.132	8.35876
0.1325	7.35168
0.133	11.78284
0.1335	26.68762
0.134	30.11169
0.1345	42.7002
0.135	63.04321
0.1355	84.99756
0.136	92.44995
0.1365	94.46411
0.137	87.31384
0.1375	82.88269
0.138	73.71826
0.1385	58.41064
0.139	45.2179
0.1395	42.49878
0.14	34.24072
0.1405	30.2124
0.141	25.78125
0.1415	-23.66638
0.142	-51.15967
0.1425	-53.17383
0.143	-37.06055
0.1435	-23.06213
0.144	-15.60974
0.1445	-8.35876
0.145	3.92761
0.1455	7.75452
0.146	16.71753
0.1465	21.75293
0.147	12.28638
0.1475	6.14319
0.148	4.02832
0.1485	6.2439
0.149	10.0708
0.1495	13.797
0.15	17.92603
0.1505	28.19824
0.151	28.80249
0.1515	19.33594
0.152	16.01257
0.1525	30.01099
0.153	48.23914
0.1535	89.12659
0.154	128.40271
0.1545	211.68823
0.155	318.53943
0.1555	382.99255
0.156	394.8761
0.1565	371.71326
0.157	310.5835
0.1575	230.41992
0.158	135.95581
0.1585	40.58533
0.159	-41.08887
0.1595	-114.505
0.16	-183.5907
0.1605	-250.86365
0.161	-280.37109
0.1615	-290.03906
0.162	-279.36401
0.1625	-219.84558
0.163	-149.04785
0.1635	-129.10767
0.164	-108.56323
0.1645	-58.81348
0.165	-20.74585
0.1655	6.64673
0.166	15.71045
0.1665	15.40833
0.167	6.14319
0.1675	7.5531
0.168	0.80566
0.1685	0.70496
0.169	3.7262
0.1695	50.75684
0.17	118.13049
0.1705	174.12415
0.171	191.74805
0.1715	196.68274
0.172	187.61902
0.1725	177.95105
0.173	141.69617
0.1735	65.56091
0.174	4.53186
0.1745	-48.54126
0.175	-83.78906
0.1755	-108.96606
0.176	-117.32483
0.1765	-129.71191
0.177	-124.07227
0.1775	-104.3335
0.178	-88.42163
0.1785	-74.32251
0.179	-76.03455
0.1795	-76.43738
0.18	-84.19189
0.1805	-70.99915
0.181	-48.44055
0.1815	-34.54285
0.182	-15.20691
0.1825	4.83398
0.183	28.50037
0.1835	54.58374
0.184	64.95667
0.1845	69.79065
0.185	70.49561
0.1855	74.82605
0.186	83.58765
0.1865	95.47119
0.187	103.22571
0.1875	93.96057
0.188	81.17065
0.1885	59.71985
0.189	37.16125
0.1895	30.01099
0.19	1.40991
0.1905	-46.22498
0.191	-70.69702
0.1915	-63.64746
0.192	-48.33984
0.1925	-20.54443
0.193	5.13611
0.1935	30.2124
0.194	73.71826
0.1945	111.78589
0.195	124.4751
0.1955	116.11633
0.196	102.62146
0.1965	72.00623
0.197	33.33435
0.1975	1.61133
0.198	-18.12744
0.1985	-28.60107
0.199	-28.19824
0.1995	-9.76868
0.2	12.99133
0.2005	6.44531
0.201	-3.22266
0.2015	-6.94885
0.202	-1.00708
0.2025	20.54443
0.203	38.36975
0.2035	33.53577
0.204	29.00391
0.2045	9.86938
0.205	2.21558
0.2055	3.7262
0.206	-1.91345
0.2065	0
0.207	5.94177
0.2075	4.63257
0.208	-25.57983
0.2085	-44.51294
0.209	-49.74976
0.2095	-32.22656
0.21	-25.47913
0.2105	-29.80957
0.211	-54.18091
0.2115	-62.13684
0.212	-51.66321
0.2125	-24.77417
0.213	-12.48779
0.2135	1.3092
0.214	1.00708
0.2145	2.21558
0.215	5.74036
0.2155	13.29346
0.216	15.60974
0.2165	19.83948
0.217	22.25647
0.2175	21.45081
0.218	25.57983
0.2185	24.16992
0.219	29.80957
0.2195	25.37842
0.22	28.19824
0.2205	24.37134
0.221	27.99683
0.2215	24.87488
0.222	23.56567
0.2225	27.19116
0.223	22.76001
0.2235	17.92603
0.224	19.83948
0.2245	19.83948
0.225	28.19824
0.2255	31.82373
0.226	28.70178
0.2265	23.36426
0.227	25.88196
0.2275	25.27771
0.228	28.19824
0.2285	22.15576
0.229	26.08337
0.2295	27.19116
0.23	22.96143
0.2305	26.28479
0.231	25.37842
0.2315	25.37842
0.232	26.28479
0.2325	25.07629
0.233	29.10461
0.2335	23.96851
0.234	24.06921
0.2345	23.46497
0.235	22.05505
0.2355	21.3501
0.236	21.55151
0.2365	19.94019
0.237	22.25647
0.2375	19.33594
0.238	17.72461
0.2385	15.20691
0.239	7.35168
0.2395	9.06372
0.24	7.45239
0.2405	5.63965
0.241	10.97717
0.2415	15.30762
0.242	16.21399
0.2425	16.01257
0.243	14.40125
0.2435	12.78992
0.244	18.22815
0.2445	16.41541
0.245	16.81824
0.2455	15.81116
0.246	14.90479
0.2465	11.78284
0.247	23.26355
0.2475	20.54443
0.248	18.73169
0.2485	18.22815
0.249	13.19275
0.2495	14.80408
0.25	16.21399
0.2505	13.09204
0.251	18.93311
0.2515	18.12744
0.252	15.00549
0.2525	12.18567
0.253	11.98425
0.2535	9.36584
0.254	10.77576
0.2545	12.48779
0.255	11.68213
0.2555	11.88354
0.256	8.25806
0.2565	4.93469
0.257	9.66797
0.2575	11.17859
0.258	10.67505
0.2585	14.60266
0.259	17.82532
0.2595	9.97009
0.26	8.45947
0.2605	10.87646
0.261	4.73328
0.2615	10.87646
0.262	12.18567
0.2625	6.44531
0.263	7.85522
0.2635	13.49487
0.264	16.11328
0.2645	15.30762
0.265	16.61682
0.2655	19.33594
0.266	23.46497
0.2665	30.31311
0.267	36.75842
0.2675	39.17542
0.268	41.69312
0.2685	45.41931
0.269	37.56409
0.2695	31.4209
0.27	30.2124
0.2705	31.72302
0.271	24.47205
0.2715	19.23523
0.272	19.43665
0.2725	17.52319
0.273	12.08496
0.2735	-3.32336
0.274	-13.49487
0.2745	-18.42957
0.275	-12.68921
0.2755	0.50354
0.276	20.54443
0.2765	29.00391
0.277	31.82373
0.2775	37.36267
0.278	46.22498
0.2785	41.79382
0.279	31.11877
0.2795	27.79541
0.28	24.06921
0.2805	21.24939
0.281	51.36108
0.2815	76.7395
0.282	87.11243
0.2825	85.90393
0.283	63.94958
0.2835	32.7301
0.284	4.33044
0.2845	7.15027
0.285	8.96301
0.2855	6.94885
0.286	0.70496
0.2865	-17.82532
0.287	-32.52869
0.2875	-47.8363
0.288	-54.68445
0.2885	-52.8717
0.289	-45.52002
0.2895	-42.19666
0.29	-34.44214
0.2905	-29.70886
0.291	-19.73877
0.2915	-11.78284
0.292	-8.96301
0.2925	-32.12585
0.293	-30.2124
0.2935	-24.06921
0.294	-17.72461
0.2945	-5.0354
0.295	-4.43115
0.2955	4.83398
0.296	-2.92053
0.2965	-10.87646
0.297	-22.55859
0.2975	-22.86072
0.298	-16.11328
0.2985	-10.0708
0.299	-1.61133
0.2995	0.90637
0.3	9.06372
0.3005	15.00549
0.301	16.51611
0.3015	17.6239
0.302	18.42957
0.3025	15.60974
0.303	16.71753
0.3035	14.09912
0.304	18.12744
0.3045	16.81824
0.305	12.28638
0.3055	13.797
0.306	18.63098
0.3065	21.65222
0.307	25.88196
0.3075	28.60107
0.308	24.97559
0.3085	19.53735
0.309	20.44373
0.3095	25.47913
0.31	20.24231
0.3105	23.66638
0.311	20.64514
0.3115	27.49329
0.312	29.00391
0.3125	29.10461
0.313	31.72302
0.3135	33.63647
0.314	29.30603
0.3145	35.2478
0.315	34.44214
0.3155	37.36267
0.316	75.02747
0.3165	94.2627
0.317	96.17615
0.3175	90.83862
0.318	78.85437
0.3185	70.69702
0.319	65.86304
0.3195	63.04321
0.32	44.91577
0.3205	38.57117
0.321	28.39966
0.3215	22.05505
0.322	17.32178
0.3225	4.83398
0.323	-4.63257
0.3235	-1.3092
0.324	4.22974
0.3245	34.34143
0.325	37.16125
0.3255	32.02515
0.326	35.54993
0.3265	40.38391
0.327	24.27063
0.3275	-1.40991
0.328	-35.95276
0.3285	-56.90002
0.329	-76.23596
0.3295	-87.81738
0.33	-74.52393
0.3305	-59.71985
0.331	-46.82922
0.3315	-43.80798
0.332	-32.12585
0.3325	-19.33594
0.333	-9.86938
0.3335	0.60425
0.334	4.73328
0.3345	6.84814
0.335	7.04956
0.3355	13.09204
0.336	21.04797
0.3365	18.8324
0.337	23.66638
0.3375	16.21399
0.338	14.70337
0.3385	13.19275
0.339	12.99133
0.3395	2.11487
0.34	-9.26514
0.3405	-13.797
0.341	-16.71753
0.3415	-17.32178
0.342	-11.78284
0.3425	-14.60266
0.343	-5.13611
0.3435	-8.56018
0.344	-15.91187
0.3445	-8.56018
0.345	1.91345
0.3455	4.63257
0.346	15.60974
0.3465	28.60107
0.347	36.95984
0.3475	48.13843
0.348	49.0448
0.3485	42.49878
0.349	47.8363
0.3495	45.92285
0.35	44.51294
0.3505	45.62073
0.351	49.64905
0.3515	39.47754
0.352	42.29736
0.3525	41.79382
0.353	36.15417
0.3535	42.09595
0.354	42.90161
0.3545	47.33276
0.355	47.7356
0.3555	45.3186
0.356	43.80798
0.3565	42.09595
0.357	38.77258
0.3575	37.7655
0.358	33.43506
0.3585	29.10461
0.359	29.91028
0.3595	33.43506
0.36	31.72302
0.3605	29.80957
0.361	32.7301
0.3615	31.01807
0.362	28.19824
0.3625	25.68054
0.363	22.96143
0.3635	21.75293
0.364	17.52319
0.3645	18.42957
0.365	15.40833
0.3655	10.57434
0.366	10.67505
0.3665	9.26514
0.367	3.8269
0.3675	6.84814
0.368	5.63965
0.3685	-2.61841
0.369	7.25098
0.3695	8.96301
0.37	11.98425
0.3705	9.86938
0.371	17.6239
0.3715	17.42249
0.372	18.73169
0.3725	14.30054
0.373	14.30054
0.3735	15.91187
0.374	21.95435
0.3745	21.14868
0.375	22.6593
0.3755	13.59558
0.376	10.27222
0.3765	7.04956
0.377	20.04089
0.3775	22.96143
0.378	27.99683
0.3785	35.65063
0.379	49.95117
0.3795	54.78516
0.38	59.1156
0.3805	59.01489
0.381	60.62622
0.3815	49.95117
0.382	41.18958
0.3825	36.25488
0.383	51.36108
0.3835	48.94409
0.384	31.82373
0.3845	12.38708
0.385	-3.22266
0.3855	-13.09204
0.386	-14.40125
0.3865	-16.71753
0.387	-17.6239
0.3875	-12.68921
0.388	-15.50903
0.3885	-15.50903
0.389	-13.59558
0.3895	-20.34302
0.39	-22.76001
0.3905	-11.07788
0.391	0.10071
0.3915	-20.34302
0.392	-36.05347
0.3925	-41.39099
0.393	-25.98267
0.3935	-15.91187
0.394	-4.02832
0.3945	-1.71204
0.395	-0.50354
0.3955	2.81982
0.396	-5.74036
0.3965	-13.39417
0.397	-14.40125
0.3975	-15.50903
0.398	-19.23523
0.3985	-7.25098
0.399	-4.12903
0.3995	6.64673
0.4	11.07788
0.4005	10.57434
0.401	13.59558
0.4015	6.14319
0.402	8.66089
0.4025	15.81116
0.403	29.10461
0.4035	61.23047
0.404	117.82837
0.4045	166.36963
0.405	214.30664
0.4055	239.28223
0.406	237.6709
0.4065	214.60876
0.407	211.88965
0.4075	187.92114
0.408	146.32874
0.4085	94.86694
0.409	31.21948
0.4095	-19.13452
0.41	-54.28162
0.4105	-80.26428
0.411	-82.07703
0.4115	-102.42004
0.412	-120.64819
0.4125	-137.76855
0.413	-143.20679
0.4135	-125.58289
0.414	-106.34766
0.4145	-99.2981
0.415	-94.66553
0.4155	-89.328
0.416	-91.04004
0.4165	-88.22021
0.417	-70.59631
0.4175	-57.9071
0.418	-47.93701
0.4185	-39.67896
0.419	-26.58691
0.4195	-19.43665
0.42	-15.00549
0.4205	-6.14319
0.421	-7.95593
0.4215	-3.02124
0.422	5.23682
0.4225	0.60425
0.423	4.12903
0.4235	15.00549
0.424	9.46655
0.4245	-5.74036
0.425	-16.51611
0.4255	-4.63257
0.426	-1.91345
0.4265	5.0354
0.427	7.04956
0.4275	7.15027
0.428	11.88354
0.4285	15.20691
0.429	21.04797
0.4295	38.77258
0.43	57.10144
0.4305	66.26587
0.431	65.76233
0.4315	82.47986
0.432	172.10999
0.4325	245.72754
0.433	268.08472
0.4335	250.76294
0.434	188.22327
0.4345	116.21704
0.435	51.15967
0.4355	-5.53894
0.436	-56.5979
0.4365	-89.42871
0.437	-99.49951
0.4375	-101.61438
0.438	-87.41455
0.4385	-62.74109
0.439	-40.08179
0.4395	-34.14001
0.44	-33.63647
0.4405	-29.00391
0.441	-4.53186
0.4415	-5.84106
0.442	-58.10852
0.4425	-95.06836
0.443	-96.7804
0.4435	-73.91968
0.444	-51.46179
0.4445	-30.01099
0.445	-26.28479
0.4455	-18.12744
0.446	-9.16443
0.4465	-1.00708
0.447	-7.25098
0.4475	-6.44531
0.448	-2.92053
0.4485	-2.61841
0.449	-7.85522
0.4495	-11.58142
0.45	-12.68921
0.4505	-13.49487
0.451	-8.8623
0.4515	0.50354
0.452	5.63965
0.4525	4.73328
0.453	12.99133
0.4535	12.38708
0.454	24.06921
0.4545	35.65063
0.455	45.3186
0.4555	59.41772
0.456	65.76233
0.4565	56.79932
0.457	58.81348
0.4575	53.27454
0.458	46.32568
0.4585	46.62781
0.459	37.86621
0.4595	27.99683
0.46	16.51611
0.4605	12.08496
0.461	8.05664
0.4615	6.3446
0.462	-6.44531
0.4625	-16.51611
0.463	-25.177
0.4635	-32.22656
0.464	-35.44922
0.4645	-27.99683
0.465	-13.99841
0.4655	-2.61841
0.466	2.92053
0.4665	2.41699
0.467	6.44531
0.4675	9.26514
0.468	13.89771
0.4685	10.77576
0.469	14.50195
0.4695	12.48779
0.47	14.19983
0.4705	19.33594
0.471	20.94727
0.4715	21.85364
0.472	22.6593
0.4725	20.44373
0.473	20.34302
0.4735	22.96143
0.474	20.94727
0.4745	22.45789
0.475	30.2124
0.4755	27.19116
0.476	22.96143
0.4765	19.73877
0.477	19.03381
0.4775	23.26355
0.478	26.48621
0.4785	39.57825
0.479	51.15967
0.4795	56.49719
0.48	58.41064
0.4805	45.92285
0.481	16.51611
0.4815	5.84106
0.482	3.8269
0.4825	2.61841
0.483	-0.30212
0.4835	-2.5177
0.484	-8.7616
0.4845	-0.80566
0.485	1.81274
0.4855	1.3092
0.486	9.16443
0.4865	-0.70496
0.487	-0.10071
0.4875	8.15735
0.488	17.92603
0.4885	39.98108
0.489	47.8363
0.4895	50.45471
0.49	53.17383
0.4905	43.90869
0.491	38.36975
0.4915	35.54993
0.492	59.82056
0.4925	82.27844
0.493	85.5011
0.4935	84.09119
0.494	70.99915
0.4945	63.54675
0.495	64.85596
0.4955	88.72375
0.496	99.80164
0.4965	85.90393
0.497	89.83154
0.4975	105.03845
0.498	101.9165
0.4985	100.40588
0.499	196.78345
0.4995	260.83374
0.5	332.83997
0.5005	345.93201
0.501	294.2688
0.5015	199.40186
0.502	68.88428
0.5025	-64.65454
0.503	-174.72839
0.5035	-249.0509
0.504	-273.82507
0.5045	-281.6803
0.505	-270.60242
0.5055	-232.33337
0.506	-189.23035
0.5065	-164.05334
0.507	-154.6875
0.5075	-153.88184
0.508	-116.31775
0.5085	-34.94568
0.509	31.01807
0.5095	49.54834
0.51	33.13293
0.5105	2.71912
0.511	-27.99683
0.5115	-31.62231
0.512	-26.98975
0.5125	-20.64514
0.513	-22.45789
0.5135	-17.32178
0.514	-29.91028
0.5145	-36.05347
0.515	-35.04639
0.5155	-38.06763
0.516	-34.54285
0.5165	-29.80957
0.517	-12.78992
0.5175	3.8269
0.518	2.01416
0.5185	-2.41699
0.519	-2.41699
0.5195	0.80566
0.52	6.2439
0.5205	-5.63965
0.521	-18.22815
0.5215	-27.49329
0.522	-28.29895
0.5225	-33.33435
0.523	-31.62231
0.5235	-27.19116
0.524	-22.15576
0.5245	-0.90637
0.525	21.04797
0.5255	21.04797
0.526	26.98975
0.5265	45.01648
0.527	44.71436
0.5275	40.48462
0.528	23.76709
0.5285	7.95593
0.529	-5.53894
0.5295	-3.7262
0.53	-2.31628
0.5305	1.3092
0.531	2.01416
0.5315	-3.12195
0.532	-7.85522
0.5325	-3.12195
0.533	-2.11487
0.5335	-6.64673
0.534	0
0.5345	-4.43115
0.535	-11.58142
0.5355	-22.96143
0.536	-34.64355
0.5365	-34.24072
0.537	-18.8324
0.5375	2.31628
0.538	5.23682
0.5385	8.66089
0.539	16.61682
0.5395	16.41541
0.54	15.50903
0.5405	18.53027
0.541	14.09912
0.5415	10.47363
0.542	8.66089
0.5425	12.48779
0.543	14.50195
0.5435	19.03381
0.544	17.6239
0.5445	18.22815
0.545	19.23523
0.5455	17.12036
0.546	18.93311
0.5465	15.1062
0.547	22.35718
0.5475	24.06921
0.548	25.37842
0.5485	26.88904
0.549	22.35718
0.5495	11.98425
0.55	7.04956
0.5505	17.01965
0.551	22.55859
0.5515	34.64355
0.552	43.50586
0.5525	44.51294
0.553	45.92285
0.5535	34.54285
0.554	28.50037
0.5545	20.54443
0.555	18.32886
0.5555	6.64673
0.556	10.87646
0.5565	5.0354
0.557	6.74744
0.5575	31.92444
0.558	49.14551
0.5585	57.20215
0.559	52.16675
0.5595	44.51294
0.56	30.01099
0.5605	19.94019
0.561	7.65381
0.5615	-6.74744
0.562	-19.63806
0.5625	-26.78833
0.563	-35.54993
0.5635	-44.11011
0.564	-43.50586
0.5645	-35.34851
0.565	-27.99683
0.5655	-15.50903
0.566	-17.82532
0.5665	-11.88354
0.567	1.40991
0.5675	2.21558
0.568	-1.91345
0.5685	-1.91345
0.569	4.33044
0.5695	9.06372
0.57	4.12903
0.5705	2.11487
0.571	-5.13611
0.5715	-3.22266
0.572	1.91345
0.5725	2.81982
0.573	7.85522
0.5735	10.77576
0.574	7.75452
0.5745	8.7616
0.575	7.04956
0.5755	19.83948
0.576	40.08179
0.5765	65.66162
0.577	86.30676
0.5775	106.8512
0.578	107.95898
0.5785	94.16199
0.579	73.61755
0.5795	40.88745
0.58	8.8623
0.5805	-20.04089
0.581	-34.84497
0.5815	-44.41223
0.582	-54.68445
0.5825	-49.34692
0.583	-45.72144
0.5835	-42.39807
0.584	-33.43506
0.5845	-24.47205
0.585	-19.83948
0.5855	-20.74585
0.586	-21.75293
0.5865	-24.16992
0.587	-24.67346
0.5875	-22.45789
0.588	-14.80408
0.5885	-6.94885
0.589	-2.61841
0.5895	19.53735
0.59	59.51843
0.5905	84.89685
0.591	99.2981
0.5915	90.33508
0.592	115.31067
0.5925	139.27917
0.593	146.53015
0.5935	124.57581
0.594	95.67261
0.5945	65.86304
0.595	56.09436
0.5955	36.65771
0.596	28.60107
0.5965	7.65381
0.597	-3.62549
0.5975	-15.81116
0.598	-37.36267
0.5985	-47.13135
0.599	-50.45471
0.5995	-30.11169
0.6	-12.38708
0.6005	11.07788
0.601	63.94958
0.6015	133.84094
0.602	150.55847
0.6025	122.25952
0.603	77.84729
0.6035	18.42957
0.604	-44.41223
0.6045	-83.88977
0.605	-94.3634
0.6055	-96.47827
0.606	-92.85278
0.6065	-92.44995
0.607	-83.68835
0.6075	-82.17773
0.608	-93.96057
0.6085	-118.33191
0.609	-125.98572
0.6095	-139.68201
0.61	-139.5813
0.6105	-124.87793
0.611	-92.85278
0.6115	-67.07153
0.612	-66.26587
0.6125	-70.29419
0.613	-67.57507
0.6135	-57.8064
0.614	-39.98108
0.6145	-20.54443
0.615	-14.50195
0.6155	-13.89771
0.616	-19.33594
0.6165	-8.7616
0.617	1.71204
0.6175	6.94885
0.618	8.05664
0.6185	13.69629
0.619	17.6239
0.6195	23.8678
0.62	29.50745
0.6205	43.90869
0.621	70.99915
0.6215	79.76074
0.622	74.82605
0.6225	66.97083
0.623	59.01489
0.6235	60.4248
0.624	89.52942
0.6245	106.44836
0.625	96.7804
0.6255	82.27844
0.626	60.82764
0.6265	35.2478
0.627	3.8269
0.6275	-32.02515
0.628	-54.68445
0.6285	-59.82056
0.629	-69.99207
0.6295	-60.52551
0.63	-48.44055
0.6305	-45.01648
0.631	-47.03064
0.6315	-41.39099
0.632	-26.08337
0.6325	-20.1416
0.633	3.62549
0.6335	30.11169
0.634	50.95825
0.6345	85.60181
0.635	125.58289
0.6355	185.00061
0.636	204.43726
0.6365	183.99353
0.637	141.99829
0.6375	86.50818
0.638	38.57117
0.6385	-9.36584
0.639	-52.97241
0.6395	-80.76782
0.64	-110.07385
0.6405	-129.81262
0.641	-122.36023
0.6415	-100.10376
0.642	-72.9126
0.6425	-54.78516
0.643	-39.67896
0.6435	-33.83789
0.644	-21.3501
0.6445	-5.43823
0.645	15.91187
0.6455	34.44214
0.646	51.66321
0.6465	50.2533
0.647	29.20532
0.6475	13.69629
0.648	-9.66797
0.6485	-15.1062
0.649	-23.56567
0.6495	-30.31311
0.65	-37.96692
0.6505	-42.8009
0.651	-52.26746
0.6515	-67.27295
0.652	-72.30835
0.6525	-50.95825
0.653	-39.98108
0.6535	-45.41931
0.654	-49.64905
0.6545	-34.54285
0.655	-28.39966
0.6555	-25.07629
0.656	-26.08337
0.6565	-20.34302
0.657	-13.89771
0.6575	-7.25098
0.658	-0.10071
0.6585	0.50354
0.659	1.91345
0.6595	2.92053
0.66	3.32336
0.6605	0.90637
0.661	3.22266
0.6615	4.83398
0.662	3.7262
0.6625	5.53894
0.663	10.57434
0.6635	13.09204
0.664	15.30762
0.6645	12.28638
0.665	13.49487
0.6655	17.6239
0.666	18.53027
0.6665	38.67188
0.667	48.44055
0.6675	49.64905
0.668	43.90869
0.6685	33.73718
0.669	24.16992
0.6695	14.50195
0.67	8.25806
0.6705	1.61133
0.671	-2.11487
0.6715	-3.22266
0.672	-12.89062
0.6725	-5.94177
0.673	-1.91345
0.6735	5.23682
0.674	3.22266
0.6745	3.12195
0.675	3.8269
0.6755	-0.10071
0.676	-6.84814
0.6765	0
0.677	0.50354
0.6775	3.52478
0.678	0.30212
0.6785	19.03381
0.679	38.26904
0.6795	56.79932
0.68	53.67737
0.6805	43.70728
0.681	33.23364
0.6815	16.21399
0.682	5.13611
0.6825	-15.71045
0.683	-22.96143
0.6835	-24.06921
0.684	-24.27063
0.6845	-22.86072
0.685	-19.94019
0.6855	-19.03381
0.686	-16.81824
0.6865	-15.60974
0.687	-8.35876
0.6875	-2.5177
0.688	4.73328
0.6885	15.71045
0.689	5.13611
0.6895	-10.47363
0.69	19.94019
0.6905	68.78357
0.691	92.24854
0.6915	93.85986
0.692	78.04871
0.6925	57.20215
0.693	34.74426
0.6935	6.74744
0.694	-17.52319
0.6945	-40.2832
0.695	-48.54126
0.6955	-50.85754
0.696	-36.15417
0.6965	-35.2478
0.697	-27.09045
0.6975	-24.47205
0.698	-17.52319
0.6985	-12.28638
0.699	14.19983
0.6995	49.44763
0.7	62.03613
0.7005	49.64905
0.701	25.37842
0.7015	12.5885
0.702	0
0.7025	-11.58142
0.703	-0.50354
0.7035	-7.65381
0.704	-12.78992
0.7045	-5.13611
0.705	-7.75452
0.7055	-3.42407
0.706	-2.41699
0.7065	-0.70496
0.707	12.68921
0.7075	13.09204
0.708	11.17859
0.7085	14.40125
0.709	30.91736
0.7095	30.51453
0.71	35.85205
0.7105	54.58374
0.711	69.28711
0.7115	84.59473
0.712	129.20837
0.7125	160.12573
0.713	163.34839
0.7135	144.21387
0.714	122.15881
0.7145	100.30518
0.715	59.82056
0.7155	26.3855
0.716	-14.70337
0.7165	-44.21082
0.717	-63.74817
0.7175	-70.09277
0.718	-79.2572
0.7185	-70.19348
0.719	-79.86145
0.7195	-79.05579
0.72	-86.30676
0.7205	-93.45703
0.721	-108.56323
0.7215	-101.21155
0.722	-83.48694
0.7225	-73.41614
0.723	-58.30994
0.7235	-46.72852
0.724	-47.13135
0.7245	-39.07471
0.725	-34.03931
0.7255	-27.59399
0.726	-26.3855
0.7265	-27.59399
0.727	-20.24231
0.7275	-17.22107
0.728	-14.50195
0.7285	-4.43115
0.729	-7.35168
0.7295	-5.33752
0.73	4.12903
0.7305	20.84656
0.731	30.31311
0.7315	28.09753
0.732	14.19983
0.7325	11.38
0.733	9.06372
0.7335	10.67505
0.734	0
0.7345	2.01416
0.735	-0.10071
0.7355	4.12903
0.736	0
0.7365	-1.40991
0.737	-7.65381
0.7375	-9.06372
0.738	-9.97009
0.7385	-10.77576
0.739	-3.92761
0.7395	2.5177
0.74	9.56726
0.7405	11.78284
0.741	-2.71912
0.7415	-15.00549
0.742	-10.77576
0.7425	-10.57434
0.743	-5.84106
0.7435	0
0.744	1.61133
0.7445	5.63965
0.745	7.65381
0.7455	8.66089
0.746	5.43823
0.7465	3.52478
0.747	6.74744
0.7475	4.22974
0.748	11.78284
0.7485	14.90479
0.749	11.98425
0.7495	15.40833
0.75	6.44531
0.7505	13.09204
0.751	8.56018
0.7515	4.02832
0.752	8.96301
0.7525	16.91895
0.753	16.11328
0.7535	15.20691
0.754	19.03381
0.7545	23.06213
0.755	29.40674
0.7555	28.19824
0.756	29.91028
0.7565	29.50745
0.757	16.21399
0.7575	12.68921
0.758	4.93469
0.7585	0.90637
0.759	4.53186
0.7595	-3.32336
0.76	-5.63965
0.7605	-2.01416
0.761	0.20142
0.7615	3.92761
0.762	0.60425
0.7625	1.10779
0.763	1.10779
0.7635	-1.3092
0.764	0.20142
0.7645	2.81982
0.765	33.43506
0.7655	86.50818
0.766	103.82996
0.7665	97.28394
0.767	73.21472
0.7675	50.85754
0.768	28.19824
0.7685	-1.81274
0.769	-34.14001
0.7695	-55.3894
0.77	-65.25879
0.7705	-47.7356
0.771	-24.87488
0.7715	-11.07788
0.772	-6.14319
0.7725	-2.71912
0.773	-9.76868
0.7735	-18.42957
0.774	-25.68054
0.7745	-25.37842
0.775	-4.63257
0.7755	-0.30212
0.776	-9.66797
0.7765	-24.47205
0.777	-25.98267
0.7775	-33.73718
0.778	-23.56567
0.7785	-21.24939
0.779	-16.61682
0.7795	-13.49487
0.78	-3.42407
0.7805	7.35168
0.781	6.84814
0.7815	-0.90637
0.782	-2.41699
0.7825	-0.50354
0.783	6.14319
0.7835	0.50354
0.784	-0.70496
0.7845	0.70496
0.785	0.20142
0.7855	-1.51062
0.786	0.40283
0.7865	-5.43823
0.787	-4.43115
0.7875	-9.86938
0.788	-8.56018
0.7885	-8.7616
0.789	-9.86938
0.7895	-15.20691
0.79	-15.71045
0.7905	-13.29346
0.791	-15.50903
0.7915	-17.82532
0.792	-14.80408
0.7925	-7.85522
0.793	-11.17859
0.7935	-4.12903
0.794	1.3092
0.7945	10.67505
0.795	22.05505
0.7955	29.70886
0.796	38.974
0.7965	43.70728
0.797	49.85046
0.7975	47.43347
0.798	46.22498
0.7985	41.79382
0.799	37.86621
0.7995	26.3855
0.8	25.88196
0.8005	25.37842
0.801	25.07629
0.8015	29.20532
0.802	25.07629
0.8025	17.12036
0.803	14.70337
0.8035	16.91895
0.804	10.67505
0.8045	16.91895
0.805	17.22107
0.8055	15.60974
0.806	11.07788
0.8065	6.64673
0.807	4.12903
0.8075	-0.70496
0.808	-2.71912
0.8085	-5.13611
0.809	-4.73328
0.8095	-13.29346
0.81	-11.48071
0.8105	-14.30054
0.811	-11.78284
0.8115	-5.23682
0.812	-13.29346
0.8125	-11.17859
0.813	-14.70337
0.8135	-16.91895
0.814	-5.84106
0.8145	-2.11487
0.815	2.31628
0.8155	2.31628
0.816	7.04956
0.8165	12.38708
0.817	18.73169
0.8175	24.77417
0.818	23.66638
0.8185	33.13293
0.819	39.27612
0.8195	42.09595
0.82	44.61365
0.8205	46.32568
0.821	44.91577
0.8215	35.44922
0.822	32.83081
0.8225	21.55151
0.823	17.01965
0.8235	13.59558
0.824	6.74744
0.8245	8.56018
0.825	7.35168
0.8255	5.13611
0.826	3.32336
0.8265	0.60425
0.827	3.7262
0.8275	9.86938
0.828	3.12195
0.8285	10.47363
0.829	15.30762
0.8295	16.51611
0.83	20.84656
0.8305	17.22107
0.831	17.52319
0.8315	17.42249
0.832	13.69629
0.8325	15.91187
0.833	15.20691
0.8335	13.69629
0.834	17.22107
0.8345	19.83948
0.835	20.04089
0.8355	13.99841
0.836	15.20691
0.8365	15.50903
0.837	9.46655
0.8375	4.12903
0.838	1.81274
0.8385	6.04248
0.839	10.27222
0.8395	24.06921
0.84	38.974
0.8405	49.74976
0.841	60.12268
0.8415	57.60498
0.842	44.41223
0.8425	35.2478
0.843	28.39966
0.8435	19.83948
0.844	23.16284
0.8445	23.06213
0.845	46.72852
0.8455	55.59082
0.846	50.55542
0.8465	30.61523
0.847	12.68921
0.8475	-1.3092
0.848	-21.04797
0.8485	-24.77417
0.849	-18.63098
0.8495	-18.73169
0.85	-9.86938
0.8505	-20.44373
0.851	-29.00391
0.8515	-31.72302
0.852	-34.03931
0.8525	-39.27612
0.853	-44.71436
0.8535	-44.91577
0.854	-32.83081
0.8545	-26.18408
0.855	-16.91895
0.8555	-16.71753
0.856	-11.17859
0.8565	-10.0708
0.857	-12.18567
0.8575	-25.177
0.858	-24.67346
0.8585	-12.08496
0.859	-12.08496
0.8595	-2.71912
0.86	0.40283
0.8605	1.71204
0.861	3.02124
0.8615	11.98425
0.862	12.08496
0.8625	12.38708
0.863	12.99133
0.8635	15.40833
0.864	10.57434
0.8645	17.12036
0.865	12.5885
0.8655	11.78284
0.866	13.69629
0.8665	3.42407
0.867	-1.51062
0.8675	-4.63257
0.868	-1.40991
0.8685	2.31628
0.869	3.62549
0.8695	1.00708
0.87	-4.63257
0.8705	0
0.871	1.51062
0.8715	-2.41699
0.872	-1.51062
0.8725	-1.61133
0.873	-7.15027
0.8735	-1.10779
0.874	-4.43115
0.8745	-6.64673
0.875	-0.30212
0.8755	-3.42407
0.876	-2.71912
0.8765	5.33752
0.877	11.58142
0.8775	13.29346
0.878	18.12744
0.8785	17.01965
0.879	14.09912
0.8795	8.35876
0.88	0.50354
0.8805	-3.12195
0.881	-4.53186
0.8815	-11.78284
0.882	-20.34302
0.8825	-15.50903
0.883	-15.91187
0.8835	-19.53735
0.884	-17.82532
0.8845	-12.38708
0.885	-10.37292
0.8855	-5.23682
0.886	-6.2439
0.8865	2.61841
0.887	7.15027
0.8875	10.27222
0.888	9.66797
0.8885	14.30054
0.889	10.17151
0.8895	8.05664
0.89	13.29346
0.8905	12.18567
0.891	15.00549
0.8915	14.60266
0.892	13.49487
0.8925	14.09912
0.893	13.59558
0.8935	13.29346
0.894	13.797
0.8945	13.19275
0.895	5.13611
0.8955	5.33752
0.896	-2.41699
0.8965	-3.22266
0.897	-2.81982
0.8975	2.21558
0.898	5.53894
0.8985	5.43823
0.899	3.7262
0.8995	6.54602
0.9	5.63965
0.9005	5.53894
0.901	11.88354
0.9015	5.13611
0.902	10.97717
0.9025	10.57434
0.903	12.89062
0.9035	11.17859
0.904	9.56726
0.9045	11.58142
0.905	14.09912
0.9055	12.68921
0.906	8.7616
0.9065	12.08496
0.907	4.93469
0.9075	3.52478
0.908	5.74036
0.9085	5.63965
0.909	7.75452
0.9095	9.97009
0.91	7.04956
0.9105	1.2085
0.911	3.42407
0.9115	3.52478
0.912	2.5177
0.9125	0.40283
0.913	-4.53186
0.9135	4.63257
0.914	6.44531
0.9145	8.15735
0.915	0.70496
0.9155	1.00708
0.916	1.91345
0.9165	0.80566
0.917	0.80566
0.9175	-0.90637
0.918	-0.90637
0.9185	-2.61841
0.919	1.3092
0.9195	-2.71912
0.92	-9.06372
0.9205	-6.3446
0.921	-3.62549
0.9215	-3.7262
0.922	-10.27222
0.9225	-9.76868
0.923	-4.83398
0.9235	-6.14319
0.924	0
0.9245	4.63257
0.925	12.48779
0.9255	9.36584
0.926	13.19275
0.9265	13.59558
0.927	10.57434
0.9275	10.37292
0.928	11.38
0.9285	9.66797
0.929	8.25806
0.9295	8.66089
0.93	14.40125
0.9305	13.69629
0.931	13.797
0.9315	9.56726
0.932	12.68921
0.9325	11.78284
0.933	8.45947
0.9335	9.16443
0.934	12.99133
0.9345	13.49487
0.935	21.24939
0.9355	19.94019
0.936	18.93311
0.9365	12.78992
0.937	15.30762
0.9375	11.38
0.938	8.35876
0.9385	2.61841
0.939	5.33752
0.9395	4.33044
0.94	2.92053
0.9405	3.62549
0.941	3.52478
0.9415	5.23682
0.942	6.94885
0.9425	6.2439
0.943	7.04956
0.9435	3.92761
0.944	-1.61133
0.9445	-3.62549
0.945	0
0.9455	-7.5531
0.946	-8.96301
0.9465	-10.0708
0.947	-9.46655
0.9475	-5.33752
0.948	-10.27222
0.9485	-7.95593
0.949	-11.58142
0.9495	-13.99841
0.95	-8.56018
0.9505	-12.08496
0.951	-14.19983
0.9515	-18.53027
0.952	-7.5531
0.9525	-4.63257
0.953	-1.10779
0.9535	2.21558
0.954	2.5177
0.9545	5.94177
0.955	7.95593
0.9555	8.96301
0.956	2.81982
0.9565	3.42407
0.957	1.2085
0.9575	-0.20142
0.958	2.81982
0.9585	9.66797
0.959	5.94177
0.9595	8.15735
0.96	11.2793
0.9605	3.12195
0.961	4.63257
0.9615	-0.20142
0.962	6.74744
0.9625	11.58142
0.963	11.88354
0.9635	17.82532
0.964	16.81824
0.9645	10.77576
0.965	9.56726
0.9655	11.98425
0.966	16.41541
0.9665	8.25806
0.967	8.96301
0.9675	8.25806
0.968	6.94885
0.9685	11.58142
0.969	20.34302
0.9695	32.32727
0.97	34.74426
0.9705	35.65063
0.971	26.98975
0.9715	21.85364
0.972	14.09912
0.9725	2.5177
0.973	-3.22266
0.9735	-13.39417
0.974	-19.43665
0.9745	-20.54443
0.975	-14.70337
0.9755	-18.53027
0.976	-16.01257
0.9765	-12.38708
0.977	-4.63257
0.9775	1.10779
0.978	-0.30212
0.9785	8.56018
0.979	6.2439
0.9795	-3.42407
0.98	4.43115
0.9805	-1.91345
0.981	5.74036
0.9815	4.73328
0.982	3.02124
0.9825	5.13611
0.983	3.7262
0.9835	4.53186
0.984	4.73328
0.9845	7.04956
0.985	9.56726
0.9855	8.35876
0.986	14.30054
0.9865	9.86938
0.987	5.0354
0.9875	7.65381
0.988	0.70496
0.9885	6.94885
0.989	2.71912
0.9895	-3.7262
0.99	0.10071
0.9905	-4.22974
0.991	1.51062
0.9915	0.70496
0.992	5.53894
0.9925	6.54602
0.993	2.21558
0.9935	1.91345
0.994	0.50354
0.9945	7.04956
0.995	6.3446
0.9955	2.41699
0.996	3.32336
0.9965	4.73328
0.997	9.76868
0.9975	8.8623
0.998	9.86938
0.9985	12.68921
0.999	8.7616
0.9995	6.14319
1	4.63257
1.0005	8.7616
1.001	6.54602
1.0015	3.12195
1.002	3.7262
1.0025	0.90637
1.003	8.56018
1.0035	10.97717
1.004	10.27222
1.0045	14.80408
1.005	15.81116
1.0055	17.82532
1.006	20.64514
1.0065	23.26355
1.007	26.18408
1.0075	23.66638
1.008	20.54443
1.0085	21.24939
1.009	24.37134
1.0095	18.73169
1.01	19.33594
1.0105	20.1416
1.011	14.90479
1.0115	14.09912
1.012	13.59558
1.0125	47.63489
1.013	88.52234
1.0135	96.17615
1.014	74.72534
1.0145	49.74976
1.015	23.26355
1.0155	5.53894
1.016	-30.01099
1.0165	-56.79932
1.017	-73.91968
1.0175	-82.37915
1.018	-77.14233
1.0185	-61.93542
1.019	-59.31702
1.0195	-51.86462
1.02	-45.3186
1.0205	-41.08887
1.021	-33.73718
1.0215	-31.82373
1.022	-35.65063
1.0225	-19.53735
1.023	6.94885
1.0235	17.32178
1.024	5.0354
1.0245	-4.22974
1.025	-2.21558
1.0255	2.92053
1.026	14.19983
1.0265	8.25806
1.027	17.12036
1.0275	22.15576
1.028	21.85364
1.0285	28.09753
1.029	34.74426
1.0295	35.95276
1.03	36.35559
1.0305	38.57117
1.031	31.92444
1.0315	30.81665
1.032	19.94019
1.0325	19.43665
1.033	9.46655
1.0335	7.95593
1.034	2.92053
1.0345	3.52478
1.035	-4.43115
1.0355	-6.44531
1.036	-1.40991
1.0365	-2.11487
1.037	-1.2085
1.0375	-4.22974
1.038	-1.81274
1.0385	1.40991
1.039	-1.51062
1.0395	-3.7262
1.04	-8.25806
1.0405	-9.66797
1.041	-5.13611
1.0415	-0.30212
1.042	8.25806
1.0425	7.04956
1.043	6.14319
1.0435	6.3446
1.044	5.94177
1.0445	0.80566
1.045	1.40991
1.0455	-2.5177
1.046	-3.8269
1.0465	-1.40991
1.047	-2.61841
1.0475	-4.93469
1.048	-0.70496
1.0485	-0.50354
1.049	2.61841
1.0495	6.2439
1.05	12.78992
1.0505	19.73877
1.051	12.5885
1.0515	20.34302
1.052	21.14868
1.0525	24.06921
1.053	24.37134
1.0535	27.99683
1.054	22.96143
1.0545	30.31311
1.055	32.62939
1.0555	36.35559
1.056	46.42639
1.0565	59.41772
1.057	77.14233
1.0575	78.95508
1.058	84.2926
1.0585	93.0542
1.059	88.11951
1.0595	80.96924
1.06	79.86145
1.0605	71.30127
1.061	52.16675
1.0615	30.11169
1.062	12.78992
1.0625	7.95593
1.063	-1.51062
1.0635	-16.81824
1.064	-29.50745
1.0645	-39.37683
1.065	-44.31152
1.0655	-46.92993
1.066	-41.89453
1.0665	-41.39099
1.067	-43.90869
1.0675	-46.92993
1.068	-34.24072
1.0685	-29.00391
1.069	-22.05505
1.0695	-26.58691
1.07	-29.80957
1.0705	-28.09753
1.071	-36.65771
1.0715	-40.68604
1.072	-41.39099
1.0725	-32.93152
1.073	-23.26355
1.0735	-16.3147
1.074	-18.42957
1.0745	-19.53735
1.075	-18.12744
1.0755	-12.08496
1.076	-5.74036
1.0765	-3.42407
1.077	1.71204
1.0775	5.23682
1.078	3.92761
1.0785	17.01965
1.079	15.20691
1.0795	18.32886
1.08	23.46497
1.0805	22.55859
1.081	24.37134
1.0815	28.50037
1.082	33.83789
1.0825	32.83081
1.083	25.27771
1.0835	20.84656
1.084	19.13452
1.0845	17.52319
1.085	15.60974
1.0855	14.30054
1.086	12.5885
1.0865	13.29346
1.087	16.91895
1.0875	18.12744
1.088	23.76709
1.0885	43.70728
1.089	54.68445
1.0895	83.18481
1.09	104.3335
1.0905	112.49084
1.091	111.08093
1.0915	106.75049
1.092	98.79456
1.0925	87.31384
1.093	67.97791
1.0935	54.28162
1.094	34.24072
1.0945	21.65222
1.095	9.66797
1.0955	1.81274
1.096	-2.01416
1.0965	-6.64673
1.097	-14.80408
1.0975	-25.78125
1.098	-45.72144
1.0985	-71.80481
1.099	-100.6073
1.0995	-108.56323
1.1	-109.97314
1.1005	-104.03137
1.101	-92.04712
1.1015	-72.10693
1.102	-51.96533
1.1025	-43.70728
1.103	-35.65063
1.1035	-29.60815
1.104	-25.47913
1.1045	-11.78284
1.105	-3.32336
1.1055	4.73328
1.106	8.96301
1.1065	11.58142
1.107	13.797
1.1075	7.75452
1.108	9.26514
1.1085	4.02832
1.109	3.7262
1.1095	5.53894
1.11	3.92761
1.1105	6.84814
1.111	15.40833
1.1115	15.00549
1.112	8.96301
1.1125	10.57434
1.113	13.09204
1.1135	15.71045
1.114	12.5885
1.1145	30.71594
1.115	67.17224
1.1155	87.21313
1.116	104.03137
1.1165	108.05969
1.117	101.11084
1.1175	94.06128
1.118	67.57507
1.1185	22.55859
1.119	-13.99841
1.1195	-37.06055
1.12	-49.24622
1.1205	-53.87878
1.121	-55.08728
1.1215	-53.57666
1.122	-49.14551
1.1225	-43.70728
1.123	-37.16125
1.1235	-28.60107
1.124	-8.7616
1.1245	17.12036
1.125	45.72144
1.1255	61.33118
1.126	60.12268
1.1265	45.72144
1.127	33.43506
1.1275	29.50745
1.128	23.96851
1.1285	6.14319
1.129	-8.56018
1.1295	-13.89771
1.13	-11.58142
1.1305	-0.70496
1.131	6.84814
1.1315	15.50903
1.132	19.43665
1.1325	16.91895
1.133	3.62549
1.1335	-17.01965
1.134	-11.2793
1.1345	-8.15735
1.135	-11.17859
1.1355	-27.79541
1.136	-28.9032
1.1365	-29.20532
1.137	-29.30603
1.1375	-23.96851
1.138	-22.05505
1.1385	-10.47363
1.139	-3.12195
1.1395	-6.3446
1.14	-12.68921
1.1405	-16.71753
1.141	-10.17151
1.1415	20.64514
1.142	44.51294
1.1425	63.84888
1.143	61.43188
1.1435	50.85754
1.144	36.85913
1.1445	29.50745
1.145	31.32019
1.1455	47.23206
1.146	60.72693
1.1465	72.10693
1.147	92.85278
1.1475	98.59314
1.148	104.23279
1.1485	98.49243
1.149	94.86694
1.1495	92.75208
1.15	81.7749
1.1505	64.45312
1.151	50.95825
1.1515	35.75134
1.152	20.94727
1.1525	9.26514
1.153	-2.01416
1.1535	-15.00549
1.154	-19.83948
1.1545	-19.03381
1.155	-14.50195
1.1555	-0.60425
1.156	13.59558
1.1565	25.68054
1.157	57.20215
1.1575	67.47437
1.158	52.46887
1.1585	19.33594
1.159	-13.69629
1.1595	-54.78516
1.16	-86.40747
1.1605	-101.61438
1.161	-103.125
1.1615	-106.64978
1.162	-97.58606
1.1625	-92.04712
1.163	-86.10535
1.1635	-80.56641
1.164	-85.60181
1.1645	-85.29968
1.165	-81.97632
1.1655	-68.68286
1.166	-59.01489
1.1665	-47.43347
1.167	-31.92444
1.1675	-22.25647
1.168	-28.39966
1.1685	-49.64905
1.169	-61.12976
1.1695	-48.54126
1.17	-27.6947
1.1705	-10.87646
1.171	13.69629
1.1715	20.54443
1.172	24.67346
1.1725	32.32727
1.173	35.54993
1.1735	47.03064
1.174	78.04871
1.1745	105.54199
1.175	114.4043
1.1755	107.15332
1.176	86.91101
1.1765	69.89136
1.177	55.99365
1.1775	46.42639
1.178	30.81665
1.1785	31.21948
1.179	19.33594
1.1795	8.96301
1.18	0.30212
1.1805	-5.23682
1.181	-0.30212
1.1815	50.85754
1.182	106.8512
1.1825	144.01245
1.183	172.51282
1.1835	173.21777
1.184	165.9668
1.1845	144.11316
1.185	118.33191
1.1855	92.24854
1.186	58.00781
1.1865	17.52319
1.187	-30.61523
1.1875	-51.86462
1.188	-71.50269
1.1885	-81.97632
1.189	-58.71277
1.1895	-9.66797
1.19	30.01099
1.1905	43.10303
1.191	62.9425
1.1915	62.9425
1.192	42.09595
1.1925	-0.70496
1.193	-42.59949
1.1935	-81.97632
1.194	-115.61279
1.1945	-135.35156
1.195	-142.19971
1.1955	-136.25793
1.196	-131.42395
1.1965	-122.05811
1.197	-115.41138
1.1975	-130.61829
1.198	-143.60962
1.1985	-120.64819
1.199	-95.97473
1.1995	-67.17224
1.2	-38.87329
1.2005	-7.04956
1.201	-2.01416
1.2015	4.22974
1.202	17.22107
1.2025	17.32178
1.203	11.88354
1.2035	-1.3092
1.204	-11.38
1.2045	-18.22815
1.205	-25.57983
1.2055	-34.64355
1.206	-44.21082
1.2065	-17.82532
1.207	7.35168
1.2075	7.25098
1.208	8.56018
1.2085	-7.45239
1.209	-15.50903
1.2095	-12.38708
1.21	-23.16284
1.2105	-46.32568
1.211	-66.6687
1.2115	-76.7395
1.212	-47.53418
1.2125	38.26904
1.213	113.09509
1.2135	160.02502
1.214	172.41211
1.2145	170.49866
1.215	154.78821
1.2155	151.26343
1.216	170.70007
1.2165	212.79602
1.217	311.59058
1.2175	422.87292
1.218	479.26941
1.2185	511.7981
1.219	501.52588
1.2195	450.36621
1.22	377.2522
1.2205	256.40259
1.221	123.97156
1.2215	-0.10071
1.222	-98.0896
1.2225	-212.89673
1.223	-316.42456
1.2235	-382.08618
1.224	-414.51416
1.2245	-414.61487
1.225	-385.91309
1.2255	-338.68103
1.226	-297.59216
1.2265	-288.42773
1.227	-255.79834
1.2275	-215.31372
1.228	-193.46008
1.2285	-205.14221
1.229	-220.047
1.2295	-191.44592
1.23	-120.34607
1.2305	-51.05896
1.231	1.2085
1.2315	22.55859
1.232	73.01331
1.2325	161.23352
1.233	202.12097
1.2335	194.16504
1.234	135.35156
1.2345	69.89136
1.235	19.73877
1.2355	-36.4563
1.236	-88.11951
1.2365	-125.38147
1.237	-154.98962
1.2375	-169.69299
1.238	-174.62769
1.2385	-151.96838
1.239	-135.95581
1.2395	-155.49316
1.24	-183.18787
1.2405	-211.48682
1.241	-215.51514
1.2415	-183.48999
1.242	-131.52466
1.2425	-109.87244
1.243	-100.10376
1.2435	-73.71826
1.244	-44.91577
1.2445	-13.29346
1.245	-19.03381
1.2455	-35.65063
1.246	-13.19275
1.2465	31.52161
1.247	89.02588
1.2475	123.77014
1.248	147.63794
1.2485	172.51282
1.249	166.57104
1.2495	211.18469
1.25	263.15002
1.2505	336.06262
1.251	426.59912
1.2515	600.82397
1.252	739.09607
1.2525	725.29907
1.253	601.32751
1.2535	399.50867
1.254	180.46875
1.2545	-34.84497
1.255	-229.31213
1.2555	-386.01379
1.256	-510.89172
1.2565	-582.2937
1.257	-572.2229
1.2575	-517.84058
1.258	-435.1593
1.2585	-391.35132
1.259	-352.27661
1.2595	-325.89111
1.26	-316.52527
1.2605	-298.19641
1.261	-281.27747
1.2615	-258.11462
1.262	-237.26807
1.2625	-206.35071
1.263	-172.00928
1.2635	-139.88342
1.264	-100.6073
1.2645	-79.2572
1.265	-61.12976
1.2655	-37.46338
1.266	74.62463
1.2665	161.23352
1.267	209.67407
1.2675	205.64575
1.268	161.93848
1.2685	86.30676
1.269	6.64673
1.2695	-51.26038
1.27	-85.40039
1.2705	-96.7804
1.271	-94.76624
1.2715	-83.88977
1.272	-62.74109
1.2725	-15.1062
1.273	38.87329
1.2735	76.23596
1.274	91.64429
1.2745	109.16748
1.275	174.92981
1.2755	238.17444
1.276	216.92505
1.2765	157.50732
1.277	109.4696
1.2775	42.19666
1.278	-6.74744
1.2785	-41.89453
1.279	-55.69153
1.2795	-27.09045
1.28	-0.90637
1.2805	4.02832
1.281	22.76001
1.2815	29.70886
1.282	4.12903
1.2825	4.12903
1.283	5.74036
1.2835	8.56018
1.284	12.08496
1.2845	3.7262
1.285	-48.03772
1.2855	-106.44836
1.286	-131.02112
1.2865	-100.40588
1.287	-43.00232
1.2875	-2.81982
1.288	18.02673
1.2885	15.40833
1.289	7.35168
1.2895	12.18567
1.29	-1.61133
1.2905	36.05347
1.291	90.5365
1.2915	116.21704
1.292	101.8158
1.2925	66.36658
1.293	27.09045
1.2935	-2.01416
1.294	-7.35168
1.2945	4.02832
1.295	70.89844
1.2955	215.71655
1.296	306.55518
1.2965	385.91309
1.297	438.38196
1.2975	439.08691
1.298	356.20422
1.2985	236.16028
1.299	79.45862
1.2995	-57.9071
1.3	-174.32556
1.3005	-277.34985
1.301	-327.20032
1.3015	-334.552
1.302	-331.53076
1.3025	-291.95251
1.303	-258.71887
1.3035	-230.01709
1.304	-137.56714
1.3045	-82.58057
1.305	-71.20056
1.3055	-123.46802
1.306	-167.57812
1.3065	-176.13831
1.307	-157.91016
1.3075	-156.29883
1.308	-149.95422
1.3085	-102.21863
1.309	95.47119
1.3095	313.60474
1.31	437.97913
1.3105	523.88306
1.311	534.25598
1.3115	447.04285
1.312	289.13269
1.3125	152.47192
1.313	39.88037
1.3135	-58.71277
1.314	-137.36572
1.3145	-209.06982
1.315	-261.03516
1.3155	-290.5426
1.316	-311.18774
1.3165	-302.62756
1.317	-273.82507
1.3175	-250.96436
1.318	-231.22559
1.3185	-242.50488
1.319	-294.87305
1.3195	-334.65271
1.32	-268.78967
1.3205	-168.58521
1.321	-95.77332
1.3215	-61.43188
1.322	-34.54285
1.3225	-20.04089
1.323	-20.24231
1.3235	-25.98267
1.324	-33.63647
1.3245	-38.57117
1.325	-49.24622
1.3255	-60.52551
1.326	-56.29578
1.3265	-48.23914
1.327	-48.44055
1.3275	-50.65613
1.328	-42.90161
1.3285	-39.88037
1.329	-27.39258
1.3295	-19.13452
1.33	-9.16443
1.3305	-0.50354
1.331	5.13611
1.3315	7.45239
1.332	13.19275
1.3325	16.11328
1.333	20.04089
1.3335	27.59399
1.334	27.99683
1.3345	24.67346
1.335	27.79541
1.3355	27.59399
1.336	31.72302
1.3365	23.66638
1.337	26.48621
1.3375	31.4209
1.338	31.11877
1.3385	26.88904
1.339	23.56567
1.3395	21.14868
1.34	25.98267
1.3405	23.46497
1.341	23.8678
1.3415	24.57275
1.342	23.8678
1.3425	22.15576
1.343	18.32886
1.3435	24.47205
1.344	24.27063
1.3445	24.16992
1.345	22.86072
1.3455	20.54443
1.346	12.5885
1.3465	15.60974
1.347	18.8324
1.3475	17.52319
1.348	27.19116
1.3485	34.03931
1.349	32.93152
1.3495	27.19116
1.35	32.83081
1.3505	30.91736
1.351	31.52161
1.3515	37.7655
1.352	39.27612
1.3525	39.07471
1.353	46.5271
1.3535	41.59241
1.354	32.12585
1.3545	19.63806
1.355	16.41541
1.3555	17.52319
1.356	11.68213
1.3565	8.56018
1.357	7.85522
1.3575	9.76868
1.358	14.40125
1.3585	15.60974
1.359	18.32886
1.3595	19.33594
1.36	26.28479
1.3605	27.09045
1.361	32.32727
1.3615	35.14709
1.362	37.26196
1.3625	39.17542
1.363	68.98499
1.3635	182.18079
1.364	249.55444
1.3645	268.99109
1.365	249.55444
1.3655	217.5293
1.366	189.33105
1.3665	170.49866
1.367	126.18713
1.3675	82.68127
1.368	24.06921
1.3685	-22.6593
1.369	-62.74109
1.3695	-93.25562
1.37	-119.23828
1.3705	-131.02112
1.371	-131.42395
1.3715	-93.65845
1.372	-78.35083
1.3725	-75.22888
1.373	-48.44055
1.3735	-17.52319
1.374	23.76709
1.3745	86.30676
1.375	96.67969
1.3755	106.54907
1.376	111.28235
1.3765	94.2627
1.377	72.71118
1.3775	43.50586
1.378	6.74744
1.3785	-19.73877
1.379	-48.23914
1.3795	-72.9126
1.38	-91.34216
1.3805	-76.7395
1.381	-29.10461
1.3815	44.41223
1.382	141.39404
1.3825	204.03442
1.383	212.69531
1.3835	183.79211
1.384	143.20679
1.3845	102.72217
1.385	67.57507
1.3855	44.51294
1.386	28.80249
1.3865	25.07629
1.387	35.54993
1.3875	144.01245
1.388	258.71887
1.3885	305.14526
1.389	275.83923
1.3895	197.3877
1.39	214.40735
1.3905	208.86841
1.391	148.4436
1.3915	95.06836
1.392	25.57983
1.3925	-76.7395
1.393	-168.18237
1.3935	-263.45215
1.394	-305.04456
1.3945	-349.5575
1.395	-435.86426
1.3955	-436.26709
1.396	-391.35132
1.3965	-343.61572
1.397	-293.16101
1.3975	-245.32471
1.398	-154.6875
1.3985	-66.97083
1.399	-20.44373
1.3995	-12.89062
1.4	-18.02673
1.4005	-4.53186
1.401	13.29346
1.4015	30.51453
1.402	29.50745
1.4025	14.60266
1.403	10.37292
1.4035	-4.02832
1.404	-11.78284
1.4045	-20.74585
1.405	-27.99683
1.4055	-40.1825
1.406	-45.62073
1.4065	-20.1416
1.407	3.7262
1.4075	19.73877
1.408	27.89612
1.4085	28.19824
1.409	36.15417
1.4095	41.69312
1.41	46.72852
1.4105	49.34692
1.411	42.90161
1.4115	49.64905
1.412	65.56091
1.4125	103.72925
1.413	125.7843
1.4135	149.75281
1.414	182.08008
1.4145	186.51123
1.415	172.3114
1.4155	126.79138
1.416	90.13367
1.4165	66.06445
1.417	49.54834
1.4175	25.78125
1.418	7.15027
1.4185	-8.56018
1.419	-22.96143
1.4195	-25.47913
1.42	-26.78833
1.4205	-30.01099
1.421	-80.86853
1.4215	-115.7135
1.422	-104.13208
1.4225	-81.37207
1.423	-69.38782
1.4235	1.10779
1.424	66.76941
1.4245	87.31384
1.425	89.73083
1.4255	80.96924
1.426	56.29578
1.4265	29.80957
1.427	3.62549
1.4275	-25.88196
1.428	-40.38391
1.4285	-43.80798
1.429	-23.66638
1.4295	63.04321
1.43	136.66077
1.4305	182.18079
1.431	198.09265
1.4315	180.67017
1.432	138.47351
1.4325	96.37756
1.433	50.75684
1.4335	23.76709
1.434	6.94885
1.4345	2.71912
1.435	-8.15735
1.4355	-29.60815
1.436	-31.01807
1.4365	-59.71985
1.437	-74.62463
1.4375	-78.04871
1.438	-58.51135
1.4385	0.10071
1.439	114.30359
1.4395	185.30273
1.44	216.01868
1.4405	188.52539
1.441	131.52466
1.4415	94.46411
1.442	57.30286
1.4425	-0.80566
1.443	-56.39648
1.4435	-104.53491
1.444	-100.90942
1.4445	-94.56482
1.445	-78.95508
1.4455	-43.60657
1.446	5.94177
1.4465	66.87012
1.447	134.5459
1.4475	138.97705
1.448	107.65686
1.4485	92.75208
1.449	94.3634
1.4495	110.87952
1.45	105.94482
1.4505	74.42322
1.451	24.67346
1.4515	-27.59399
1.452	-67.47437
1.4525	-108.26111
1.453	-151.06201
1.4535	-184.39636
1.454	-185.00061
1.4545	-164.95972
1.455	-122.56165
1.4555	-84.99756
1.456	-54.38232
1.4565	-46.32568
1.457	-25.98267
1.4575	-26.3855
1.458	-33.03223
1.4585	-32.52869
1.459	-2.5177
1.4595	57.40356
1.46	149.6521
1.4605	212.4939
1.461	259.1217
1.4615	305.85022
1.462	313.70544
1.4625	300.5127
1.463	309.375
1.4635	303.23181
1.464	390.94849
1.4645	423.47717
1.465	393.76831
1.4655	300.10986
1.466	162.44202
1.4665	19.03381
1.467	-121.15173
1.4675	-247.03674
1.468	-340.29236
1.4685	-421.76514
1.469	-459.32922
1.4695	-418.94531
1.47	-374.33167
1.4705	-347.84546
1.471	-329.21448
1.4715	-301.72119
1.472	-206.65283
1.4725	-134.5459
1.473	-103.22571
1.4735	-88.32092
1.474	-61.23047
1.4745	-40.48462
1.475	-27.09045
1.4755	-24.47205
1.476	-14.60266
1.4765	-5.74036
1.477	3.7262
1.4775	8.45947
1.478	16.51611
1.4785	17.52319
1.479	18.53027
1.4795	83.88977
1.48	136.66077
1.4805	165.26184
1.481	173.92273
1.4815	168.38379
1.482	149.85352
1.4825	123.06519
1.483	88.62305
1.4835	52.67029
1.484	-2.81982
1.4845	-31.11877
1.485	-35.85205
1.4855	-37.16125
1.486	-39.17542
1.4865	-36.4563
1.487	-41.18958
1.4875	-42.29736
1.488	-73.01331
1.4885	-79.96216
1.489	-53.57666
1.4895	-25.98267
1.49	-7.75452
1.4905	6.04248
1.491	-0.40283
1.4915	10.67505
1.492	24.27063
1.4925	39.37683
1.493	42.19666
1.4935	46.32568
1.494	50.95825
1.4945	47.7356
1.495	63.24463
1.4955	84.19189
1.496	168.08167
1.4965	277.14844
1.497	340.39307
1.4975	345.02563
1.498	329.31519
1.4985	289.2334
1.499	344.92493
1.4995	393.46619
1.5	355.19714
1.5005	254.69055
1.501	151.96838
1.5015	67.37366
1.502	-6.54602
1.5025	-47.63489
1.503	-130.11475
1.5035	-224.27673
1.504	-265.86914
1.5045	-285.80933
1.505	-295.37659
1.5055	-289.83765
1.506	-284.09729
1.5065	-258.11462
1.507	-209.9762
1.5075	-191.1438
1.508	-186.20911
1.5085	-159.62219
1.509	-121.15173
1.5095	-74.12109
1.51	-26.28479
1.5105	9.56726
1.511	20.44373
1.5115	32.52869
1.512	48.94409
1.5125	86.91101
1.513	105.34058
1.5135	103.125
1.514	94.16199
1.5145	69.38782
1.515	37.96692
1.5155	8.96301
1.516	-15.81116
1.5165	-40.88745
1.517	-42.8009
1.5175	19.23523
1.518	199.9054
1.5185	337.0697
1.519	384.30176
1.5195	351.77307
1.52	291.24756
1.5205	212.09106
1.521	108.26111
1.5215	-6.3446
1.522	-91.14075
1.5225	-137.86926
1.523	-146.02661
1.5235	-99.60022
1.524	-59.41772
1.5245	-32.52869
1.525	-18.8324
1.5255	-24.27063
1.526	-36.65771
1.5265	-50.55542
1.527	-83.68835
1.5275	-88.42163
1.528	-91.14075
1.5285	-94.66553
1.529	-93.45703
1.5295	-87.01172
1.53	-78.04871
1.5305	-71.80481
1.531	-66.97083
1.5315	-55.89294
1.532	-42.19666
1.5325	-26.48621
1.533	-45.82214
1.5335	-85.29968
1.534	-103.42712
1.5345	-80.4657
1.535	-38.57117
1.5355	-18.93311
1.536	2.31628
1.5365	5.74036
1.537	8.7616
1.5375	14.30054
1.538	52.26746
1.5385	112.89368
1.539	249.75586
1.5395	414.31274
1.54	516.43066
1.5405	530.22766
1.541	499.10889
1.5415	404.24194
1.542	293.96667
1.5425	171.80786
1.543	45.82214
1.5435	-34.84497
1.544	-88.62305
1.5445	-130.11475
1.545	-154.78821
1.5455	-156.60095
1.546	-163.4491
1.5465	-152.37122
1.547	-95.26978
1.5475	-103.82996
1.548	-212.29248
1.5485	-291.44897
1.549	-264.0564
1.5495	-198.09265
1.55	-131.92749
1.5505	-92.65137
1.551	-86.8103
1.5515	-103.22571
1.552	-110.07385
1.5525	-136.05652
1.553	-175.23193
1.5535	-164.7583
1.554	-128.302
1.5545	-95.47119
1.555	-63.64746
1.5555	-45.82214
1.556	-37.26196
1.5565	-33.9386
1.557	-45.82214
1.5575	-42.49878
1.558	-20.44373
1.5585	-8.15735
1.559	-5.0354
1.5595	4.02832
1.56	3.02124
1.5605	8.15735
1.561	9.06372
1.5615	13.49487
1.562	16.11328
1.5625	26.58691
1.563	24.97559
1.5635	32.62939
1.564	33.33435
1.5645	36.4563
1.565	32.93152
1.5655	37.66479
1.566	35.54993
1.5665	36.85913
1.567	39.07471
1.5675	40.2832
1.568	38.87329
1.5685	31.52161
1.569	34.14001
1.5695	53.17383
1.57	69.28711
1.5705	71.20056
1.571	78.65295
1.5715	101.8158
1.572	173.62061
1.5725	247.13745
1.573	313.90686
1.5735	336.36475
1.574	305.44739
1.5745	253.58276
1.575	186.1084
1.5755	104.3335
1.576	21.85364
1.5765	-38.26904
1.577	-68.68286
1.5775	-98.79456
1.578	-113.39722
1.5785	-131.22253
1.579	-147.83936
1.5795	-136.56006
1.58	-102.52075
1.5805	-83.38623
1.581	-103.52783
1.5815	-118.2312
1.582	-125.28076
1.5825	-116.61987
1.583	-100.70801
1.5835	-66.76941
1.584	2.61841
1.5845	42.29736
1.585	61.33118
1.5855	47.23206
1.586	39.57825
1.5865	45.11719
1.587	22.05505
1.5875	6.94885
1.588	-2.61841
1.5885	-23.26355
1.589	-35.34851
1.5895	-46.42639
1.59	-19.23523
1.5905	14.30054
1.591	37.96692
1.5915	54.58374
1.592	125.38147
1.5925	266.07056
1.593	342.91077
1.5935	409.27734
1.594	406.75964
1.5945	351.16882
1.595	250.76294
1.5955	144.01245
1.596	17.42249
1.5965	-91.54358
1.597	-93.35632
1.5975	-91.64429
1.598	-88.32092
1.5985	-76.23596
1.599	-37.26196
1.5995	-37.66479
1.6	-14.60266
1.6005	9.46655
1.601	-35.75134
1.6015	-110.77881
1.602	-161.23352
1.6025	-181.47583
1.603	-204.23584
1.6035	-207.25708
1.604	-254.0863
1.6045	-278.55835
1.605	-252.47498
1.6055	-209.9762
1.606	-172.81494
1.6065	-139.07776
1.607	-99.60022
1.6075	-69.68994
1.608	-46.5271
1.6085	11.17859
1.609	135.15015
1.6095	293.66455
1.61	408.06885
1.6105	420.75806
1.611	369.39697
1.6115	322.26562
1.612	306.65588
1.6125	271.40808
1.613	190.33813
1.6135	118.2312
1.614	51.66321
1.6145	4.53186
1.615	-44.91577
1.6155	-96.98181
1.616	-96.17615
1.6165	-64.55383
1.617	-59.51843
1.6175	-101.11084
1.618	-130.11475
1.6185	-131.62537
1.619	-122.96448
1.6195	-136.86218
1.62	-171.80786
1.6205	-271.00525
1.621	-326.59607
1.6215	-295.98083
1.622	-227.19727
1.6225	-167.57812
1.623	-139.37988
1.6235	-114.70642
1.624	-93.45703
1.6245	-67.77649
1.625	-46.62781
1.6255	-25.98267
1.626	-5.23682
1.6265	6.74744
1.627	23.06213
1.6275	43.80798
1.628	55.99365
1.6285	69.58923
1.629	61.33118
1.6295	45.01648
1.63	40.2832
1.6305	38.67188
1.631	15.60974
1.6315	11.88354
1.632	37.96692
1.6325	103.62854
1.633	175.23193
1.6335	231.02417
1.634	230.41992
1.6345	184.49707
1.635	133.84094
1.6355	78.85437
1.636	21.65222
1.6365	-32.52869
1.637	-66.97083
1.6375	-91.34216
1.638	-105.03845
1.6385	-110.57739
1.639	-111.9873
1.6395	-107.55615
1.64	-93.55774
1.6405	-92.65137
1.641	-68.98499
1.6415	-59.01489
1.642	-52.26746
1.6425	-36.55701
1.643	-13.89771
1.6435	3.62549
1.644	10.57434
1.6445	10.97717
1.645	8.7616
1.6455	4.93469
1.646	16.41541
1.6465	3.52478
1.647	-16.3147
1.6475	-12.18567
1.648	5.63965
1.6485	12.5885
1.649	15.30762
1.6495	18.93311
1.65	23.46497
1.6505	25.68054
1.651	28.09753
1.6515	34.84497
1.652	42.7002
1.6525	48.03772
1.653	83.28552
1.6535	189.43176
1.654	292.15393
1.6545	352.0752
1.655	379.16565
1.6555	364.16016
1.656	358.01697
1.6565	334.85413
1.657	265.16418
1.6575	197.99194
1.658	129.81262
1.6585	86.30676
1.659	94.2627
1.6595	118.2312
1.66	136.86218
1.6605	102.72217
1.661	70.79773
1.6615	6.14319
1.662	-76.7395
1.6625	-151.46484
1.663	-195.67566
1.6635	-203.53088
1.664	-202.5238
1.6645	-216.01868
1.665	-215.31372
1.6655	-189.33105
1.666	-172.91565
1.6665	-180.46875
1.667	-199.9054
1.6675	-176.94397
1.668	-134.34448
1.6685	-96.57898
1.669	-55.79224
1.6695	31.82373
1.67	338.78174
1.6705	588.13477
1.671	674.44153
1.6715	651.4801
1.672	577.56042
1.6725	456.30798
1.673	333.74634
1.6735	195.77637
1.674	46.02356
1.6745	-98.69385
1.675	-237.06665
1.6755	-375.13733
1.676	-444.52515
1.6765	-481.48499
1.677	-511.19385
1.6775	-450.2655
1.678	-420.35522
1.6785	-437.37488
1.679	-436.66992
1.6795	-363.55591
1.68	-290.94543
1.6805	-223.77319
1.681	-189.83459
1.6815	-166.16821
1.682	-159.42078
1.6825	-127.89917
1.683	-87.31384
1.6835	-32.93152
1.684	4.63257
1.6845	28.39966
1.685	35.44922
1.6855	32.32727
1.686	28.80249
1.6865	21.65222
1.687	25.57983
1.6875	17.32178
1.688	27.79541
1.6885	69.38782
1.689	140.48767
1.6895	213.09814
1.69	248.74878
1.6905	258.21533
1.691	230.21851
1.6915	181.37512
1.692	116.21704
1.6925	49.74976
1.693	-22.05505
1.6935	-78.85437
1.694	-106.04553
1.6945	-108.86536
1.695	-89.22729
1.6955	-32.83081
1.696	162.03918
1.6965	286.51428
1.697	311.8927
1.6975	308.1665
1.698	240.1886
1.6985	132.33032
1.699	54.78516
1.6995	-13.99841
1.7	-66.16516
1.7005	-123.97156
1.701	-179.46167
1.7015	-194.9707
1.702	-190.23743
1.7025	-216.01868
1.703	-245.224
1.7035	-211.58752
1.704	-140.68909
1.7045	-68.38074
1.705	-27.49329
1.7055	-11.78284
1.706	1.40991
1.7065	9.86938
1.707	13.49487
1.7075	20.24231
1.708	57.60498
1.7085	76.33667
1.709	98.19031
1.7095	123.56873
1.71	161.23352
1.7105	166.67175
1.711	143.81104
1.7115	106.04553
1.712	81.67419
1.7125	38.974
1.713	8.66089
1.7135	-25.88196
1.714	-55.59082
1.7145	-61.83472
1.715	-66.76941
1.7155	-72.30835
1.716	-93.96057
1.7165	-126.18713
1.717	-126.38855
1.7175	-105.44128
1.718	-75.93384
1.7185	-49.0448
1.719	-6.44531
1.7195	20.64514
1.72	31.52161
1.7205	62.64038
1.721	109.26819
1.7215	171.30432
1.722	318.84155
1.7225	429.62036
1.723	487.02393
1.7235	474.83826
1.724	399.20654
1.7245	301.8219
1.725	187.11548
1.7255	59.71985
1.726	-57.70569
1.7265	-179.26025
1.727	-241.90063
1.7275	-299.20349
1.728	-389.03503
1.7285	-401.82495
1.729	-362.44812
1.7295	-277.75269
1.73	-182.48291
1.7305	-127.19421
1.731	-90.43579
1.7315	-40.48462
1.732	40.88745
1.7325	94.66553
1.733	105.23987
1.7335	88.72375
1.734	61.23047
1.7345	44.71436
1.735	20.74585
1.7355	-11.17859
1.736	-21.55151
1.7365	-1.10779
1.737	13.59558
1.7375	-0.20142
1.738	-49.14551
1.7385	-53.77808
1.739	-32.83081
1.7395	-36.4563
1.74	-53.67737
1.7405	-45.92285
1.741	-24.87488
1.7415	-49.34692
1.742	-94.06128
1.7425	-108.36182
1.743	-72.9126
1.7435	-65.76233
1.744	-57.10144
1.7445	-61.02905
1.745	-65.56091
1.7455	-50.95825
1.746	-1.2085
1.7465	52.46887
1.747	83.58765
1.7475	82.9834
1.748	66.16516
1.7485	52.97241
1.749	21.04797
1.7495	0.70496
1.75	-23.26355
1.7505	-34.34143
1.751	-37.06055
1.7515	-25.07629
1.752	-15.20691
1.7525	3.02124
1.753	102.82288
1.7535	319.54651
1.754	472.72339
1.7545	550.36926
1.755	592.76733
1.7555	541.60767
1.756	417.03186
1.7565	252.17285
1.757	81.67419
1.7575	-63.04321
1.758	-197.28699
1.7585	-305.14526
1.759	-367.98706
1.7595	-393.6676
1.76	-373.02246
1.7605	-313.60474
1.761	-204.43726
1.7615	-136.56006
1.762	-79.05579
1.7625	-12.08496
1.763	34.34143
1.7635	44.61365
1.764	41.59241
1.7645	19.53735
1.765	-18.63098
1.7655	-33.13293
1.766	-32.12585
1.7665	-35.54993
1.767	-41.4917
1.7675	-60.52551
1.768	-78.45154
1.7685	-63.74817
1.769	-37.96692
1.7695	-14.50195
1.77	4.53186
1.7705	9.97009
1.771	21.04797
1.7715	39.77966
1.772	70.19348
1.7725	75.32959
1.773	95.37048
1.7735	114.80713
1.774	122.76306
1.7745	117.52625
1.775	105.23987
1.7755	92.24854
1.776	63.74817
1.7765	41.99524
1.777	24.27063
1.7775	-24.57275
1.778	-90.5365
1.7785	-132.22961
1.779	-126.89209
1.7795	-96.37756
1.78	-47.93701
1.7805	-27.49329
1.781	-14.09912
1.7815	2.31628
1.782	17.92603
1.7825	38.36975
1.783	53.27454
1.7835	46.5271
1.784	49.64905
1.7845	67.37366
1.785	125.18005
1.7855	204.13513
1.786	275.63782
1.7865	326.39465
1.787	332.33643
1.7875	315.11536
1.788	282.38525
1.7885	237.97302
1.789	190.03601
1.7895	118.02979
1.79	41.69312
1.7905	-21.3501
1.791	-63.64746
1.7915	-81.47278
1.792	-96.67969
1.7925	-103.52783
1.793	-133.94165
1.7935	-200.40894
1.794	-230.92346
1.7945	-86.40747
1.795	40.2832
1.7955	77.14233
1.796	40.48462
1.7965	24.27063
1.797	20.04089
1.7975	-35.14709
1.798	-126.48926
1.7985	-192.75513
1.799	-243.91479
1.7995	-273.72437
1.8	-287.52136
1.8005	-278.96118
1.801	-238.07373
1.8015	-191.44592
1.802	-121.25244
1.8025	-88.42163
1.803	-78.45154
1.8035	-55.79224
1.804	-33.23364
1.8045	-16.91895
1.805	-3.32336
1.8055	10.67505
1.806	29.30603
1.8065	68.58215
1.807	87.31384
1.8075	110.57739
1.808	116.21704
1.8085	108.76465
1.809	104.63562
1.8095	93.65845
1.81	99.09668
1.8105	139.17847
1.811	155.49316
1.8115	125.18005
1.812	98.0896
1.8125	104.23279
1.813	133.94165
1.8135	114.80713
1.814	56.49719
1.8145	-12.5885
1.815	-28.70178
1.8155	-32.93152
1.816	-58.71277
1.8165	-118.63403
1.817	-189.23035
1.8175	-191.04309
1.818	-135.45227
1.8185	-81.17065
1.819	-36.95984
1.8195	-0.40283
1.82	34.84497
1.8205	125.07935
1.821	290.03906
1.8215	388.12866
1.822	466.68091
1.8225	471.11206
1.823	386.01379
1.8235	234.14612
1.824	93.25562
1.8245	-12.5885
1.825	-113.59863
1.8255	-198.6969
1.826	-261.5387
1.8265	-324.07837
1.827	-334.65271
1.8275	-293.16101
1.828	-202.72522
1.8285	-87.61597
1.829	-18.93311
1.8295	-5.43823
1.83	-7.25098
1.8305	-7.95593
1.831	-11.98425
1.8315	-18.22815
1.832	-26.28479
1.8325	-57.40356
1.833	-93.35632
1.8335	-106.64978
1.834	-89.22729
1.8345	-74.42322
1.835	-57.30286
1.8355	-30.2124
1.836	-3.7262
1.8365	5.84106
1.837	11.2793
1.8375	19.13452
1.838	34.44214
1.8385	41.18958
1.839	21.75293
1.8395	4.53186
1.84	7.04956
1.8405	21.24939
1.841	26.78833
1.8415	24.97559
1.842	39.17542
1.8425	39.57825
1.843	29.00391
1.8435	15.50903
1.844	0.90637
1.8445	-10.0708
1.845	-6.14319
1.8455	15.50903
1.846	25.177
1.8465	34.54285
1.847	38.974
1.8475	33.83789
1.848	57.20215
1.8485	109.06677
1.849	127.59705
1.8495	95.47119
1.85	72.10693
1.8505	62.64038
1.851	45.72144
1.8515	21.75293
1.852	-9.56726
1.8525	-32.83081
1.853	-47.23206
1.8535	-51.05896
1.854	-51.96533
1.8545	-44.31152
1.855	-36.55701
1.8555	-38.87329
1.856	-29.10461
1.8565	-33.53577
1.857	-31.4209
1.8575	-31.72302
1.858	-22.35718
1.8585	-17.6239
1.859	-14.40125
1.8595	10.47363
1.86	36.35559
1.8605	44.11011
1.861	41.4917
1.8615	34.14001
1.862	33.43506
1.8625	28.60107
1.863	41.08887
1.8635	72.30835
1.864	85.5011
1.8645	83.68835
1.865	69.68994
1.8655	56.09436
1.866	39.98108
1.8665	31.21948
1.867	31.82373
1.8675	57.10144
1.868	87.91809
1.8685	107.25403
1.869	106.9519
1.8695	91.04004
1.87	77.44446
1.8705	52.8717
1.871	27.6947
1.8715	-1.3092
1.872	-37.56409
1.8725	-59.82056
1.873	-84.49402
1.8735	-99.2981
1.874	-125.7843
1.8745	-127.19421
1.875	-125.7843
1.8755	-109.3689
1.876	-81.57349
1.8765	-55.59082
1.877	-37.86621
1.8775	-26.18408
1.878	-19.13452
1.8785	-3.52478
1.879	8.25806
1.8795	19.53735
1.88	19.63806
1.8805	24.67346
1.881	26.18408
1.8815	27.19116
1.882	58.71277
1.8825	87.41455
1.883	100.30518
1.8835	181.87866
1.884	297.49146
1.8845	365.06653
1.885	360.33325
1.8855	304.13818
1.886	217.93213
1.8865	130.61829
1.887	41.69312
1.8875	-16.51611
1.888	-69.08569
1.8885	-118.33191
1.889	-153.88184
1.8895	-202.4231
1.89	-225.68665
1.8905	-215.61584
1.891	-161.33423
1.8915	-130.8197
1.892	-128.20129
1.8925	-124.57581
1.893	-121.25244
1.8935	-98.19031
1.894	-26.18408
1.8945	147.73865
1.895	432.23877
1.8955	632.64771
1.896	751.28174
1.8965	740.60669
1.897	646.04187
1.8975	493.67065
1.898	315.01465
1.8985	142.60254
1.899	32.52869
1.8995	-65.96375
1.9	-147.43652
1.9005	-191.84875
1.901	-281.37817
1.9015	-437.37488
1.902	-580.27954
1.9025	-653.29285
1.903	-662.05444
1.9035	-570.61157
1.904	-424.68567
1.9045	-295.578
1.905	-211.18469
1.9055	-159.21936
1.906	-107.75757
1.9065	-75.4303
1.907	-68.07861
1.9075	-75.73242
1.908	-64.25171
1.9085	-59.82056
1.909	-39.37683
1.9095	-24.67346
1.91	-19.83948
1.9105	-7.5531
1.911	-1.51062
1.9115	7.75452
1.912	25.78125
1.9125	130.41687
1.913	213.29956
1.9135	244.61975
1.914	221.55762
1.9145	168.18237
1.915	94.46411
1.9155	25.37842
1.916	-31.72302
1.9165	-75.63171
1.917	-108.26111
1.9175	-124.77722
1.918	-115.00854
1.9185	-81.47278
1.919	-54.0802
1.9195	-14.70337
1.92	27.19116
1.9205	39.88037
1.921	35.34851
1.9215	52.771
1.922	72.30835
1.9225	74.12109
1.923	74.82605
1.9235	58.10852
1.924	40.38391
1.9245	33.63647
1.925	12.68921
1.9255	-5.43823
1.926	-3.92761
1.9265	-2.31628
1.927	-16.21399
1.9275	-23.96851
1.928	-1.2085
1.9285	10.77576
1.929	12.48779
1.9295	4.53186
1.93	10.67505
1.9305	8.45947
1.931	16.11328
1.9315	24.87488
1.932	26.78833
1.9325	27.79541
1.933	40.1825
1.9335	48.23914
1.934	59.51843
1.9345	64.05029
1.935	57.40356
1.9355	74.02039
1.936	102.42004
1.9365	112.59155
1.937	97.78748
1.9375	123.77014
1.938	196.38062
1.9385	230.01709
1.939	220.85266
1.9395	175.53406
1.94	107.45544
1.9405	45.92285
1.941	-8.56018
1.9415	-48.54126
1.942	-83.68835
1.9425	-109.97314
1.943	-121.85669
1.9435	-123.46802
1.944	-124.17297
1.9445	-106.8512
1.945	-71.30127
1.9455	-33.03223
1.946	-1.71204
1.9465	3.92761
1.947	-2.5177
1.9475	20.54443
1.948	44.31152
1.9485	74.52393
1.949	110.77881
1.9495	116.41846
1.95	102.52075
1.9505	90.63721
1.951	64.75525
1.9515	31.21948
1.952	-4.12903
1.9525	-16.91895
1.953	-31.82373
1.9535	16.3147
1.954	116.01562
1.9545	154.6875
1.955	116.61987
1.9555	82.88269
1.956	61.12976
1.9565	29.60815
1.957	0.10071
1.9575	-22.6593
1.958	-39.07471
1.9585	-55.3894
1.959	-81.37207
1.9595	-17.01965
1.96	81.47278
1.9605	132.63245
1.961	85.19897
1.9615	1.00708
1.962	-52.56958
1.9625	-79.66003
1.963	-105.84412
1.9635	-111.58447
1.964	-134.04236
1.9645	-210.58044
1.965	-249.15161
1.9655	-240.79285
1.966	-204.63867
1.9665	-139.5813
1.967	-74.62463
1.9675	-20.64514
1.968	-0.40283
1.9685	29.40674
1.969	42.8009
1.9695	44.0094
1.97	30.81665
1.9705	10.37292
1.971	-4.43115
1.9715	16.21399
1.972	35.04639
1.9725	47.63489
1.973	32.22656
1.9735	20.94727
1.974	15.1062
1.9745	-1.3092
1.975	-23.06213
1.9755	-49.14551
1.976	-65.15808
1.9765	-64.45312
1.977	-53.67737
1.9775	-10.0708
1.978	24.27063
1.9785	33.03223
1.979	34.54285
1.9795	29.80957
1.98	29.80957
1.9805	27.19116
1.981	15.1062
1.9815	4.63257
1.982	-7.85522
1.9825	-10.67505
1.983	24.27063
1.9835	70.09277
1.984	100.30518
1.9845	107.25403
1.985	98.0896
1.9855	132.63245
1.986	201.61743
1.9865	243.31055
1.987	227.29797
1.9875	185.20203
1.988	183.69141
1.9885	267.07764
1.989	313.60474
1.9895	297.89429
1.99	229.51355
1.9905	165.16113
1.991	88.22021
1.9915	-8.05664
1.992	-114.4043
1.9925	-203.83301
1.993	-295.77942
1.9935	-315.82031
1.994	-291.65039
1.9945	-265.86914
1.995	-243.00842
1.9955	-196.27991
1.996	-158.5144
1.9965	-150.55847
1.997	-170.39795
1.9975	-129.40979
1.998	-82.27844
1.9985	-57.50427
1.999	-39.88037
1.9995	-21.65222
2	-32.52869
2.0005	-37.06055
2.001	-32.93152
2.0015	-25.68054
2.002	-19.94019
2.0025	-7.75452
2.003	-5.23682
2.0035	-2.71912
2.004	12.38708
2.0045	10.27222
2.005	19.03381
2.0055	22.86072
2.006	21.3501
2.0065	19.94019
2.007	27.59399
2.0075	29.20532
2.008	27.39258
2.0085	28.9032
2.009	34.84497
2.0095	37.56409
2.01	30.11169
2.0105	15.81116
2.011	18.32886
2.0115	24.16992
2.012	26.08337
2.0125	33.03223
2.013	28.9032
2.0135	30.41382
2.014	35.04639
2.0145	35.85205
2.015	30.01099
2.0155	28.80249
2.016	27.09045
2.0165	31.82373
2.017	29.10461
2.0175	29.30603
2.018	50.354
2.0185	86.50818
2.019	101.01013
2.0195	105.54199
2.02	96.27686
2.0205	67.17224
2.021	37.7655
2.0215	8.8623
2.022	-15.71045
2.0225	-26.98975
2.023	-35.34851
2.0235	-40.78674
2.024	-39.98108
2.0245	-40.88745
2.025	-25.07629
2.0255	-7.95593
2.026	5.53894
2.0265	35.54993
2.027	78.45154
2.0275	113.29651
2.028	131.02112
2.0285	107.35474
2.029	70.09277
2.0295	60.02197
2.03	56.90002
2.0305	57.20215
2.031	60.4248
2.0315	44.0094
2.032	23.46497
2.0325	18.32886
2.033	21.24939
2.0335	10.77576
2.034	-19.13452
2.0345	-75.12817
2.035	-102.82288
2.0355	-95.77332
2.036	-92.55066
2.0365	-102.01721
2.037	-85.70251
2.0375	-60.3241
2.038	-30.61523
2.0385	22.15576
2.039	61.43188
2.0395	79.55933
2.04	63.94958
2.0405	61.33118
2.041	59.61914
2.0415	38.26904
2.042	15.1062
2.0425	-11.07788
2.043	-52.36816
2.0435	-73.21472
2.044	-78.85437
2.0445	-82.78198
2.045	-76.43738
2.0455	-40.98816
2.046	-13.797
2.0465	4.22974
2.047	11.38
2.0475	-0.40283
2.048	-5.84106
2.0485	2.92053
2.049	7.95593
2.0495	11.07788
2.05	12.08496
2.0505	3.52478
2.051	17.22107
2.0515	31.92444
2.052	40.58533
2.0525	24.16992
2.053	1.40991
2.0535	-30.31311
2.054	-39.98108
2.0545	50.65613
2.055	123.46802
2.0555	168.68591
2.056	183.38928
2.0565	171.10291
2.057	172.61353
2.0575	137.76855
2.058	87.91809
2.0585	42.90161
2.059	-13.797
2.0595	-54.98657
2.06	-92.14783
2.0605	-107.35474
2.061	-105.34058
2.0615	-98.89526
2.062	-81.97632
2.0625	-48.64197
2.063	-24.97559
2.0635	-19.03381
2.064	-15.20691
2.0645	-1.00708
2.065	29.20532
2.0655	34.84497
2.066	30.01099
2.0665	14.90479
2.067	-12.68921
2.0675	-44.21082
2.068	-64.75525
2.0685	-79.2572
2.069	-66.6687
2.0695	-64.75525
2.07	-63.24463
2.0705	-66.97083
2.071	-61.23047
2.0715	-47.33276
2.072	-41.18958
2.0725	-54.58374
2.073	-48.44055
2.0735	-34.84497
2.074	-20.74585
2.0745	-7.45239
2.075	-3.02124
2.0755	-4.63257
2.076	0.70496
2.0765	1.61133
2.077	8.05664
2.0775	12.78992
2.078	11.2793
2.0785	16.11328
2.079	21.04797
2.0795	17.32178
2.08	24.67346
2.0805	18.73169
2.081	21.3501
2.0815	25.177
2.082	25.47913
2.0825	21.55151
2.083	15.60974
2.0835	17.72461
2.084	20.34302
2.0845	25.68054
2.085	20.94727
2.0855	24.87488
2.086	24.47205
2.0865	16.91895
2.087	16.81824
2.0875	11.48071
2.088	10.37292
2.0885	20.04089
2.089	16.61682
2.0895	18.63098
2.09	20.24231
2.0905	17.92603
2.091	19.23523
2.0915	14.19983
2.092	14.40125
2.0925	16.3147
2.093	13.09204
2.0935	10.87646
2.094	14.40125
2.0945	17.52319
2.095	17.52319
2.0955	15.40833
2.096	20.94727
2.0965	37.16125
2.097	95.26978
2.0975	229.31213
2.098	352.1759
2.0985	399.71008
2.099	380.27344
2.0995	319.4458
2.1	241.90063
2.1005	156.09741
2.101	72.20764
2.1015	-0.40283
2.102	-57.70569
2.1025	-104.03137
2.103	-131.12183
2.1035	-150.75989
2.104	-169.18945
2.1045	-191.1438
2.105	-229.51355
2.1055	-278.75977
2.106	-251.16577
2.1065	-182.78503
2.107	-132.83386
2.1075	-89.93225
2.108	-63.44604
2.1085	-37.56409
2.109	-21.65222
2.1095	-23.06213
2.11	46.02356
2.1105	112.79297
2.111	142.099
2.1115	131.62537
2.112	149.24927
2.1125	136.05652
2.113	107.65686
2.1135	48.33984
2.114	-12.28638
2.1145	-66.36658
2.115	-106.64978
2.1155	-136.25793
2.116	-147.83936
2.1165	-135.45227
2.117	-107.65686
2.1175	-68.07861
2.118	-66.46729
2.1185	-82.27844
2.119	-87.11243
2.1195	-64.55383
2.12	-49.24622
2.1205	-37.06055
2.121	-12.99133
2.1215	-15.30762
2.122	-27.6947
2.1225	-19.53735
2.123	-4.73328
2.1235	10.47363
2.124	13.29346
2.1245	24.16992
2.125	28.19824
2.1255	25.37842
2.126	27.09045
2.1265	31.72302
2.127	31.52161
2.1275	32.62939
2.128	26.88904
2.1285	20.34302
2.129	21.14868
2.1295	20.74585
2.13	22.86072
2.1305	23.16284
2.131	20.94727
2.1315	21.75293
2.132	19.94019
2.1325	21.55151
2.133	21.85364
2.1335	24.06921
2.134	19.33594
2.1345	23.36426
2.135	19.43665
2.1355	18.02673
2.136	24.47205
2.1365	20.04089
2.137	19.53735
2.1375	29.00391
2.138	44.31152
2.1385	56.19507
2.139	55.79224
2.1395	50.05188
2.14	49.54834
2.1405	64.45312
2.141	86.8103
2.1415	92.75208
2.142	78.45154
2.1425	54.38232
2.143	23.06213
2.1435	-5.33752
2.144	-42.29736
2.1445	-76.53809
2.145	-89.52942
2.1455	-86.10535
2.146	-73.31543
2.1465	-61.12976
2.147	-46.82922
2.1475	-41.4917
2.148	-22.15576
2.1485	-6.94885
2.149	6.14319
2.1495	24.27063
2.15	34.74426
2.1505	34.74426
2.151	27.39258
2.1515	30.51453
2.152	31.82373
2.1525	27.19116
2.153	28.09753
2.1535	22.35718
2.154	19.83948
2.1545	25.07629
2.155	44.31152
2.1555	63.84888
2.156	83.38623
2.1565	86.60889
2.157	64.45312
2.1575	51.46179
2.158	57.40356
2.1585	55.49011
2.159	56.19507
2.1595	46.92993
2.16	45.82214
2.1605	88.42163
2.161	146.63086
2.1615	178.85742
2.162	184.29565
2.1625	172.21069
2.163	151.26343
2.1635	171.40503
2.164	155.29175
2.1645	99.2981
2.165	32.7301
2.1655	-24.87488
2.166	-75.73242
2.1665	-132.22961
2.167	-156.39954
2.1675	-132.22961
2.168	-110.98022
2.1685	-90.5365
2.169	-29.80957
2.1695	24.97559
2.17	70.09277
2.1705	104.03137
2.171	82.07703
2.1715	41.59241
2.172	-8.7616
2.1725	-44.41223
2.173	-76.43738
2.1735	-105.94482
2.174	-131.02112
2.1745	-127.69775
2.175	-115.61279
2.1755	-114.80713
2.176	-106.14624
2.1765	-98.49243
2.177	-97.18323
2.1775	-128.302
2.178	-133.43811
2.1785	-112.39014
2.179	-73.61755
2.1795	-41.29028
2.18	-11.58142
2.1805	7.45239
2.181	25.27771
2.1815	23.66638
2.182	-6.44531
2.1825	-3.42407
2.183	25.78125
2.1835	92.65137
2.184	137.36572
2.1845	136.25793
2.185	116.11633
2.1855	84.49402
2.186	47.33276
2.1865	1.40991
2.187	-31.21948
2.1875	-61.83472
2.188	-75.53101
2.1885	-75.12817
2.189	-89.52942
2.1895	-104.23279
2.19	-94.86694
2.1905	-68.88428
2.191	-45.52002
2.1915	-33.23364
2.192	-16.41541
2.1925	-5.13611
2.193	8.96301
2.1935	12.99133
2.194	19.13452
2.1945	15.30762
2.195	20.34302
2.1955	19.23523
2.196	21.3501
2.1965	16.01257
2.197	18.12744
2.1975	11.78284
2.198	8.25806
2.1985	8.05664
2.199	5.53894
2.1995	13.99841
2.2	16.81824
2.2005	20.44373
2.201	17.82532
2.2015	19.53735
2.202	20.34302
2.2025	14.70337
2.203	17.6239
2.2035	21.04797
2.204	19.94019
2.2045	16.11328
2.205	17.01965
2.2055	15.00549
2.206	12.28638
2.2065	20.24231
2.207	14.30054
2.2075	17.22107
2.208	18.22815
2.2085	19.13452
2.209	17.52319
2.2095	15.1062
2.21	12.08496
2.2105	7.35168
2.211	11.68213
2.2115	12.78992
2.212	9.66797
2.2125	13.29346
2.213	9.56726
2.2135	4.93469
2.214	5.23682
2.2145	8.35876
2.215	5.23682
2.2155	10.97717
2.216	10.77576
2.2165	6.84814
2.217	8.45947
2.2175	7.65381
2.218	4.02832
2.2185	7.5531
2.219	33.73718
2.2195	94.16199
2.22	135.75439
2.2205	141.69617
2.221	161.73706
2.2215	157.40662
2.222	122.36023
2.2225	81.06995
2.223	34.94568
2.2235	-19.03381
2.224	-52.56958
2.2245	-77.34375
2.225	-84.19189
2.2255	-86.8103
2.226	-75.73242
2.2265	-66.87012
2.227	-57.9071
2.2275	-60.02197
2.228	-42.7002
2.2285	-27.09045
2.229	-16.3147
2.2295	-15.81116
2.23	-20.54443
2.2305	-10.67505
2.231	-5.43823
2.2315	-3.52478
2.232	1.81274
2.2325	2.11487
2.233	3.7262
2.2335	7.75452
2.234	7.45239
2.2345	9.16443
2.235	10.57434
2.2355	10.97717
2.236	5.33752
2.2365	7.5531
2.237	0.30212
2.2375	0.70496
2.238	6.84814
2.2385	9.76868
2.239	22.76001
2.2395	33.03223
2.24	97.88818
2.2405	199.09973
2.241	281.47888
2.2415	330.62439
2.242	325.89111
2.2425	271.71021
2.243	205.74646
2.2435	129.30908
2.244	57.20215
2.2445	-14.90479
2.245	-40.78674
2.2455	-61.6333
2.246	-67.17224
2.2465	-67.97791
2.247	-73.91968
2.2475	-90.93933
2.248	-104.83704
2.2485	-87.91809
2.249	-55.49011
2.2495	-12.99133
2.25	13.99841
2.2505	12.89062
2.251	15.81116
2.2515	6.84814
2.252	-23.66638
2.2525	-86.00464
2.253	-150.8606
2.2535	-189.23035
2.254	-176.84326
2.2545	-164.45618
2.255	-152.37122
2.2555	-137.16431
2.256	-80.96924
2.2565	-24.47205
2.257	16.61682
2.2575	38.47046
2.258	35.34851
2.2585	48.13843
2.259	86.00464
2.2595	101.51367
2.26	91.8457
2.2605	69.89136
2.261	49.44763
2.2615	30.11169
2.262	55.99365
2.2625	107.95898
2.263	136.66077
2.2635	126.58997
2.264	78.65295
2.2645	27.29187
2.265	-50.45471
2.2655	-139.17847
2.266	-184.09424
2.2665	-194.36646
2.267	-181.47583
2.2675	-163.75122
2.268	-131.92749
2.2685	-98.19031
2.269	-64.45312
2.2695	-26.98975
2.27	-5.63965
2.2705	-4.53186
2.271	-11.38
2.2715	2.31628
2.272	11.07788
2.2725	12.89062
2.273	19.03381
2.2735	17.92603
2.274	17.12036
2.2745	8.25806
2.275	12.78992
2.2755	16.81824
2.276	21.04797
2.2765	23.66638
2.277	21.85364
2.2775	21.45081
2.278	26.88904
2.2785	18.8324
2.279	19.73877
2.2795	18.63098
2.28	20.54443
2.2805	15.40833
2.281	12.48779
2.2815	13.49487
2.282	6.2439
2.2825	9.66797
2.283	16.71753
2.2835	17.32178
2.284	23.06213
2.2845	22.96143
2.285	26.98975
2.2855	23.66638
2.286	22.86072
2.2865	25.68054
2.287	22.96143
2.2875	20.94727
2.288	18.93311
2.2885	16.41541
2.289	17.22107
2.2895	19.03381
2.29	16.21399
2.2905	9.66797
2.291	-0.60425
2.2915	-7.45239
2.292	1.10779
2.2925	2.71912
2.293	6.2439
2.2935	4.43115
2.294	9.16443
2.2945	4.83398
2.295	11.58142
2.2955	12.18567
2.296	11.78284
2.2965	4.73328
2.297	33.53577
2.2975	56.49719
2.298	73.31543
2.2985	67.27295
2.299	57.70569
2.2995	45.92285
2.3	30.01099
2.3005	28.70178
2.301	26.88904
2.3015	28.80249
2.302	27.79541
2.3025	20.74585
2.303	14.19983
2.3035	7.65381
2.304	1.51062
2.3045	6.64673
2.305	-1.2085
2.3055	-12.18567
2.306	-11.2793
2.3065	-14.40125
2.307	-9.76868
2.3075	-8.25806
2.308	-10.97717
2.3085	-6.74744
2.309	13.69629
2.3095	2.81982
2.31	-13.59558
2.3105	-7.15027
2.311	8.56018
2.3115	17.6239
2.312	19.53735
2.3125	23.06213
2.313	21.75293
2.3135	19.94019
2.314	16.81824
2.3145	9.56726
2.315	6.54602
2.3155	9.46655
2.316	12.38708
2.3165	11.68213
2.317	12.38708
2.3175	18.73169
2.318	15.81116
2.3185	12.08496
2.319	14.90479
2.3195	8.15735
2.32	6.3446
2.3205	12.78992
2.321	11.38
2.3215	10.67505
2.322	12.18567
2.3225	19.53735
2.323	53.47595
2.3235	75.53101
2.324	86.40747
2.3245	73.91968
2.325	70.79773
2.3255	84.19189
2.326	98.99597
2.3265	86.40747
2.327	65.86304
2.3275	43.00232
2.328	14.90479
2.3285	-11.98425
2.329	-28.39966
2.3295	-45.3186
2.33	-48.44055
2.3305	-58.00781
2.331	-80.76782
2.3315	-94.76624
2.332	-90.03296
2.3325	-76.23596
2.333	-53.17383
2.3335	-39.27612
2.334	-26.08337
2.3345	-16.91895
2.335	0.20142
2.3355	5.94177
2.336	18.63098
2.3365	19.23523
2.337	21.75293
2.3375	52.16675
2.338	88.92517
2.3385	150.75989
2.339	179.05884
2.3395	179.56238
2.34	153.27759
2.3405	112.39014
2.341	64.25171
2.3415	9.06372
2.342	-33.13293
2.3425	-61.93542
2.343	-77.14233
2.3435	-84.69543
2.344	-91.14075
2.3445	-94.16199
2.345	-88.11951
2.3455	-57.70569
2.346	50.2533
2.3465	183.08716
2.347	247.43958
2.3475	279.36401
2.348	253.28064
2.3485	194.06433
2.349	113.1958
2.3495	22.76001
2.35	-59.41772
2.3505	-122.56165
2.351	-167.77954
2.3515	-177.04468
2.352	-211.08398
2.3525	-272.41516
2.353	-277.04773
2.3535	-199.50256
2.354	-123.36731
2.3545	-98.49243
2.355	-108.66394
2.3555	-98.29102
2.356	-72.10693
2.3565	-33.03223
2.357	-13.09204
2.3575	9.76868
2.358	18.22815
2.3585	16.11328
2.359	27.39258
2.3595	27.99683
2.36	25.68054
2.3605	19.43665
2.361	15.60974
2.3615	10.37292
2.362	-1.71204
2.3625	-5.33752
2.363	2.41699
2.3635	36.05347
2.364	69.89136
2.3645	88.22021
2.365	86.50818
2.3655	87.61597
2.366	105.34058
2.3665	110.47668
2.367	87.81738
2.3675	50.354
2.368	10.37292
2.3685	-11.58142
2.369	-23.36426
2.3695	-37.66479
2.37	-55.69153
2.3705	-69.58923
2.371	-69.58923
2.3715	-50.15259
2.372	-33.43506
2.3725	8.96301
2.373	155.59387
2.3735	265.16418
2.374	292.95959
2.3745	261.43799
2.375	208.16345
2.3755	138.87634
2.376	53.47595
2.3765	-38.87329
2.377	-117.62695
2.3775	-174.02344
2.378	-203.83301
2.3785	-219.54346
2.379	-216.11938
2.3795	-201.2146
2.38	-169.99512
2.3805	-120.24536
2.381	-84.79614
2.3815	-87.21313
2.382	-103.52783
2.3825	-82.07703
2.383	-44.41223
2.3835	-7.5531
2.384	16.71753
2.3845	29.80957
2.385	39.98108
2.3855	45.82214
2.386	43.60657
2.3865	3.32336
2.387	-28.80249
2.3875	-21.85364
2.388	-0.70496
2.3885	2.81982
2.389	6.84814
2.3895	2.11487
2.39	-5.74036
2.3905	-12.08496
2.391	-17.92603
2.3915	-22.15576
2.392	-24.57275
2.3925	-19.23523
2.393	-17.52319
2.3935	-8.15735
2.394	0.70496
2.3945	3.62549
2.395	15.1062
2.3955	23.06213
2.396	21.04797
2.3965	18.42957
2.397	19.03381
2.3975	27.39258
2.398	30.51453
2.3985	28.50037
2.399	24.47205
2.3995	27.49329
2.4	28.80249
2.4005	21.65222
2.401	28.19824
2.4015	23.26355
2.402	21.75293
2.4025	31.4209
2.403	27.79541
2.4035	37.16125
2.404	103.72925
2.4045	149.6521
2.405	182.78503
2.4055	180.56946
2.406	149.75281
2.4065	101.01013
2.407	54.88586
2.4075	7.45239
2.408	-30.2124
2.4085	-52.771
2.409	-60.82764
2.4095	-72.40906
2.41	-81.57349
2.4105	-84.99756
2.411	-71.20056
2.4115	-46.02356
2.412	-40.88745
2.4125	-34.03931
2.413	-24.27063
2.4135	-17.52319
2.414	-9.76868
2.4145	-5.94177
2.415	5.43823
2.4155	-2.11487
2.416	-2.81982
2.4165	1.91345
2.417	-0.60425
2.4175	8.25806
2.418	12.68921
2.4185	12.48779
2.419	11.88354
2.4195	12.38708
2.42	8.15735
2.4205	5.13611
2.421	3.22266
2.4215	-7.25098
2.422	-15.40833
2.4225	-14.50195
2.423	-7.04956
2.4235	-8.8623
2.424	-0.40283
2.4245	3.92761
2.425	8.35876
2.4255	4.33044
2.426	8.25806
2.4265	10.67505
2.427	3.12195
2.4275	10.57434
2.428	5.74036
2.4285	7.75452
2.429	17.22107
2.4295	34.24072
2.43	64.65454
2.4305	84.89685
2.431	92.85278
2.4315	91.34216
2.432	79.66003
2.4325	73.91968
2.433	104.73633
2.4335	130.8197
2.434	144.01245
2.4345	137.76855
2.435	119.64111
2.4355	106.24695
2.436	100.50659
2.4365	86.70959
2.437	86.60889
2.4375	80.26428
2.438	81.06995
2.4385	106.44836
2.439	213.50098
2.4395	255.49622
2.44	243.51196
2.4405	182.78503
2.441	98.79456
2.4415	1.51062
2.442	-89.22729
2.4425	-120.95032
2.443	-125.48218
2.4435	-121.55457
2.444	-125.38147
2.4445	-168.78662
2.445	-236.16028
2.4455	-294.57092
2.446	-305.74951
2.4465	-278.45764
2.447	-239.08081
2.4475	-229.41284
2.448	-212.79602
2.4485	-165.16113
2.449	-113.39722
2.4495	-74.42322
2.45	-26.08337
2.4505	-1.00708
2.451	0.40283
2.4515	-12.38708
2.452	-18.73169
2.4525	-14.60266
2.453	-3.12195
2.4535	4.63257
2.454	0.20142
2.4545	-9.46655
2.455	-6.2439
2.4555	17.52319
2.456	32.12585
2.4565	47.7356
2.457	48.23914
2.4575	43.40515
2.458	36.55701
2.4585	23.76709
2.459	15.50903
2.4595	1.3092
2.46	-4.63257
2.4605	-12.18567
2.461	-18.53027
2.4615	-22.25647
2.462	-19.94019
2.4625	-17.32178
2.463	-9.26514
2.4635	12.28638
2.464	24.77417
2.4645	29.80957
2.465	31.11877
2.4655	28.80249
2.466	32.62939
2.4665	34.44214
2.467	23.26355
2.4675	14.50195
2.468	7.85522
2.4685	3.7262
2.469	-4.83398
2.4695	7.75452
2.47	11.78284
2.4705	15.81116
2.471	13.69629
2.4715	18.42957
2.472	17.82532
2.4725	16.51611
2.473	51.66321
2.4735	91.14075
2.474	110.57739
2.4745	108.56323
2.475	92.44995
2.4755	70.49561
2.476	63.54675
2.4765	73.31543
2.477	66.97083
2.4775	67.17224
2.478	103.32642
2.4785	175.33264
2.479	224.27673
2.4795	230.41992
2.48	187.51831
2.4805	115.31067
2.481	49.74976
2.4815	-29.40674
2.482	-89.52942
2.4825	-130.51758
2.483	-153.07617
2.4835	-174.92981
2.484	-171.0022
2.4845	-167.47742
2.485	-152.27051
2.4855	-128.70483
2.486	-105.23987
2.4865	-89.12659
2.487	-73.31543
2.4875	-80.66711
2.488	-86.40747
2.4885	-70.79773
2.489	-52.06604
2.4895	-35.95276
2.49	-23.96851
2.4905	-8.15735
2.491	5.94177
2.4915	13.797
2.492	14.19983
2.4925	11.2793
2.493	9.46655
2.4935	23.56567
2.494	24.37134
2.4945	27.29187
2.495	35.04639
2.4955	32.62939
2.496	36.25488
2.4965	17.72461
2.497	1.61133
2.4975	-11.38
2.498	-4.43115
2.4985	25.47913
2.499	58.10852
2.4995	74.52393
2.5	69.48853
2.5005	62.43896
2.501	49.44763
2.5015	41.39099
2.502	22.96143
2.5025	8.45947
2.503	5.74036
2.5035	6.74744
2.504	4.83398
2.5045	12.68921
2.505	-5.94177
2.5055	-18.8324
2.506	-6.94885
2.5065	27.19116
2.507	37.16125
2.5075	29.10461
2.508	38.06763
2.5085	38.06763
2.509	29.60815
2.5095	20.04089
2.51	8.8623
2.5105	-8.8623
2.511	-16.71753
2.5115	-9.36584
2.512	0.30212
2.5125	13.69629
2.513	31.21948
2.5135	41.18958
2.514	38.77258
2.5145	37.16125
2.515	35.2478
2.5155	38.26904
2.516	25.47913
2.5165	12.48779
2.517	2.21558
2.5175	-25.27771
2.518	-43.70728
2.5185	-43.90869
2.519	-45.11719
2.5195	-43.80798
2.52	-43.00232
2.5205	-51.46179
2.521	-45.3186
2.5215	-28.09753
2.522	-4.43115
2.5225	-0.20142
2.523	-9.66797
2.5235	-8.35876
2.524	-7.85522
2.5245	3.12195
2.525	2.61841
2.5255	6.04248
2.526	7.25098
2.5265	2.92053
2.527	6.04248
2.5275	8.56018
2.528	11.38
2.5285	17.32178
2.529	17.12036
2.5295	10.0708
2.53	16.11328
2.5305	56.09436
2.531	99.19739
2.5315	128.70483
2.532	119.94324
2.5325	94.76624
2.533	66.26587
2.5335	30.31311
2.534	0.60425
2.5345	-28.50037
2.535	-47.93701
2.5355	-52.771
2.536	-62.13684
2.5365	-58.51135
2.537	-52.97241
2.5375	-40.68604
2.538	-28.39966
2.5385	-22.05505
2.539	-17.42249
2.5395	-3.7262
2.54	2.71912
2.5405	16.21399
2.541	26.28479
2.5415	31.82373
2.542	39.17542
2.5425	41.08887
2.543	37.46338
2.5435	33.63647
2.544	29.70886
2.5445	19.83948
2.545	6.54602
2.5455	5.0354
2.546	17.72461
2.5465	28.70178
2.547	21.45081
2.5475	5.63965
2.548	3.42407
2.5485	6.2439
2.549	5.33752
2.5495	-4.12903
2.55	-3.42407
2.5505	-7.35168
2.551	-5.0354
2.5515	-4.33044
2.552	-9.86938
2.5525	-35.54993
2.553	-53.07312
2.5535	-49.44763
2.554	-35.65063
2.5545	-25.78125
2.555	-17.92603
2.5555	-7.75452
2.556	-0.50354
2.5565	10.77576
2.557	37.36267
2.5575	74.32251
2.558	101.71509
2.5585	111.48376
2.559	123.56873
2.5595	191.54663
2.56	276.74561
2.5605	382.69043
2.561	441.4032
2.5615	501.32446
2.562	591.15601
2.5625	594.47937
2.563	485.11047
2.5635	310.18066
2.564	120.14465
2.5645	-76.43738
2.565	-258.61816
2.5655	-384.60388
2.566	-464.56604
2.5665	-507.46765
2.567	-510.48889
2.5675	-466.5802
2.568	-429.11682
2.5685	-397.19238
2.569	-332.63855
2.5695	-246.5332
2.57	-170.90149
2.5705	-158.81653
2.571	-178.45459
2.5715	-160.12573
2.572	-123.97156
2.5725	-86.50818
2.573	-54.0802
2.5735	-36.95984
2.574	-22.96143
2.5745	-16.71753
2.575	-4.43115
2.5755	-2.61841
2.576	1.3092
2.5765	-2.92053
2.577	3.8269
2.5775	6.54602
2.578	8.7616
2.5785	8.8623
2.579	13.99841
2.5795	16.11328
2.58	22.45789
2.5805	24.27063
2.581	29.80957
2.5815	21.55151
2.582	18.42957
2.5825	13.59558
2.583	19.13452
2.5835	18.02673
2.584	18.93311
2.5845	19.03381
2.585	19.03381
2.5855	23.76709
2.586	37.56409
2.5865	49.64905
2.587	64.05029
2.5875	71.30127
2.588	68.78357
2.5885	80.96924
2.589	89.52942
2.5895	86.60889
2.59	81.17065
2.5905	76.94092
2.591	50.85754
2.5915	27.19116
2.592	28.19824
2.5925	34.14001
2.593	29.20532
2.5935	20.24231
2.594	4.33044
2.5945	-16.01257
2.595	-24.57275
2.5955	-25.57983
2.596	-23.16284
2.5965	-12.48779
2.597	-7.15027
2.5975	-6.64673
2.598	-3.62549
2.5985	-0.70496
2.599	4.22974
2.5995	8.66089
2.6	8.96301
2.6005	17.22107
2.601	18.63098
2.6015	17.12036
2.602	11.48071
2.6025	11.78284
2.603	11.78284
2.6035	17.32178
2.604	7.04956
2.6045	8.05664
2.605	12.08496
2.6055	11.68213
2.606	14.90479
2.6065	20.24231
2.607	21.75293
2.6075	23.36426
2.608	29.50745
2.6085	28.19824
2.609	30.31311
2.6095	45.82214
2.61	66.56799
2.6105	77.948
2.611	74.32251
2.6115	61.93542
2.612	42.49878
2.6125	26.48621
2.613	3.92761
2.6135	-27.39258
2.614	-47.03064
2.6145	-48.03772
2.615	-46.22498
2.6155	-46.32568
2.616	-50.65613
2.6165	-47.23206
2.617	-41.99524
2.6175	-34.94568
2.618	-26.28479
2.6185	-12.78992
2.619	-6.3446
2.6195	6.94885
2.62	12.89062
2.6205	23.46497
2.621	22.55859
2.6215	26.18408
2.622	66.56799
2.6225	108.36182
2.623	125.48218
2.6235	125.98572
2.624	113.29651
2.6245	85.29968
2.625	58.00781
2.6255	25.88196
2.626	-5.13611
2.6265	-21.75293
2.627	-6.3446
2.6275	1.91345
2.628	9.97009
2.6285	4.83398
2.629	-0.90637
2.6295	-6.54602
2.63	-11.38
2.6305	-23.96851
2.631	-29.80957
2.6315	-33.73718
2.632	-29.00391
2.6325	-15.60974
2.633	-3.52478
2.6335	-2.01416
2.634	-0.50354
2.6345	4.53186
2.635	5.0354
2.6355	0.20142
2.636	-5.0354
2.6365	-6.54602
2.637	-4.53186
2.6375	-6.3446
2.638	-14.30054
2.6385	-21.3501
2.639	-28.9032
2.6395	-21.14868
2.64	-22.45789
2.6405	-31.92444
2.641	-28.50037
2.6415	-30.31311
2.642	-14.30054
2.6425	-10.27222
2.643	-3.92761
2.6435	-0.70496
2.644	1.91345
2.6445	7.5531
2.645	5.53894
2.6455	3.22266
2.646	3.62549
2.6465	5.33752
2.647	3.62549
2.6475	9.46655
2.648	12.89062
2.6485	18.42957
2.649	50.95825
2.6495	71.7041
2.65	89.22729
2.6505	89.42871
2.651	76.53809
2.6515	49.95117
2.652	34.44214
2.6525	18.42957
2.653	-3.22266
2.6535	3.12195
2.654	23.36426
2.6545	30.11169
2.655	28.39966
2.6555	19.83948
2.656	5.94177
2.6565	-6.84814
2.657	-38.16833
2.6575	-64.45312
2.658	-64.95667
2.6585	-57.00073
2.659	-40.88745
2.6595	-34.24072
2.66	-20.44373
2.6605	-5.0354
2.661	6.94885
2.6615	16.21399
2.662	22.86072
2.6625	18.42957
2.663	24.27063
2.6635	36.05347
2.664	39.57825
2.6645	19.43665
2.665	-29.40674
2.6655	-63.84888
2.666	-61.53259
2.6665	-36.25488
2.667	-21.65222
2.6675	-11.2793
2.668	-13.29346
2.6685	-6.44531
2.669	-5.84106
2.6695	-4.02832
2.67	3.42407
2.6705	7.15027
2.671	15.00549
2.6715	17.72461
2.672	20.44373
2.6725	30.91736
2.673	52.26746
2.6735	65.76233
2.674	84.69543
2.6745	100.40588
2.675	121.15173
2.6755	145.22095
2.676	196.88416
2.6765	231.12488
2.677	260.22949
2.6775	243.00842
2.678	195.77637
2.6785	125.58289
2.679	50.55542
2.6795	-39.98108
2.68	-110.6781
2.6805	-145.9259
2.681	-172.71423
2.6815	-186.20911
2.682	-200.40894
2.6825	-219.44275
2.683	-209.67407
2.6835	-174.92981
2.684	-136.45935
2.6845	-111.18164
2.685	-92.14783
2.6855	-71.90552
2.686	-57.40356
2.6865	-55.2887
2.687	-34.34143
2.6875	-22.45789
2.688	-14.19983
2.6885	-5.13611
2.689	3.32336
2.6895	4.53186
2.69	3.92761
2.6905	2.21558
2.691	5.53894
2.6915	6.64673
2.692	7.5531
2.6925	9.36584
2.693	15.20691
2.6935	18.42957
2.694	18.53027
2.6945	48.33984
2.695	158.21228
2.6955	217.22717
2.696	243.51196
2.6965	226.08948
2.697	187.71973
2.6975	154.18396
2.698	121.55457
2.6985	69.28711
2.699	38.87329
2.6995	16.61682
2.7	0
2.7005	-23.8678
2.701	-48.84338
2.7015	19.13452
2.702	77.948
2.7025	110.87952
2.703	108.96606
2.7035	49.95117
2.704	-22.45789
2.7045	-100.70801
2.705	-155.39246
2.7055	-196.88416
2.706	-218.43567
2.7065	-199.60327
2.707	-168.28308
2.7075	-144.51599
2.708	-116.21704
2.7085	-92.85278
2.709	-49.74976
2.7095	-14.19983
2.71	-4.43115
2.7105	-12.08496
2.711	-23.16284
2.7115	-15.30762
2.712	0.10071
2.7125	13.29346
2.713	20.34302
2.7135	17.72461
2.714	27.99683
2.7145	23.76709
2.715	26.78833
2.7155	23.96851
2.716	20.64514
2.7165	17.82532
2.717	12.48779
2.7175	7.65381
2.718	7.75452
2.7185	6.3446
2.719	5.53894
2.7195	7.5531
2.72	8.96301
2.7205	20.04089
2.721	23.96851
2.7215	24.67346
2.722	26.58691
2.7225	31.82373
2.723	61.12976
2.7235	80.56641
2.724	88.42163
2.7245	84.09119
2.725	73.81897
2.7255	60.12268
2.726	37.06055
2.7265	16.81824
2.727	-3.92761
2.7275	-8.7616
2.728	-14.70337
2.7285	-17.82532
2.729	-21.24939
2.7295	-31.92444
2.73	-26.28479
2.7305	-19.03381
2.731	-9.16443
2.7315	-4.73328
2.732	-5.74036
2.7325	-0.20142
2.733	2.81982
2.7335	2.31628
2.734	-5.0354
2.7345	-18.12744
2.735	-25.07629
2.7355	-32.02515
2.736	-11.2793
2.7365	50.05188
2.737	94.06128
2.7375	115.81421
2.738	112.59155
2.7385	86.91101
2.739	59.41772
2.7395	25.27771
2.74	-6.3446
2.7405	-37.7655
2.741	-54.28162
2.7415	-57.60498
2.742	-60.52551
2.7425	-57.20215
2.743	-50.354
2.7435	-36.05347
2.744	-21.24939
2.7445	-9.66797
2.745	-9.26514
2.7455	-4.33044
2.746	-11.68213
2.7465	-27.49329
2.747	-16.61682
2.7475	17.32178
2.748	32.32727
2.7485	37.86621
2.749	48.84338
2.7495	64.85596
2.75	90.03296
2.7505	109.16748
2.751	119.54041
2.7515	99.60022
2.752	58.20923
2.7525	30.61523
2.753	18.63098
2.7535	8.96301
2.754	-5.0354
2.7545	-33.13293
2.755	-34.14001
2.7555	-29.70886
2.756	-20.1416
2.7565	-12.68921
2.757	-2.61841
2.7575	-7.45239
2.758	-24.37134
2.7585	-30.51453
2.759	-24.97559
2.7595	-15.30762
2.76	-14.19983
2.7605	-8.7616
2.761	-10.57434
2.7615	-10.97717
2.762	-3.02124
2.7625	-0.80566
2.763	-2.31628
2.7635	-1.91345
2.764	0.20142
2.7645	-3.32336
2.765	-10.87646
2.7655	-8.66089
2.766	-1.10779
2.7665	12.5885
2.767	46.12427
2.7675	60.22339
2.768	64.05029
2.7685	57.40356
2.769	50.75684
2.7695	24.87488
2.77	7.5531
2.7705	-8.7616
2.771	-24.57275
2.7715	-34.14001
2.772	-37.36267
2.7725	-34.64355
2.773	-25.88196
2.7735	-16.81824
2.774	5.53894
2.7745	39.98108
2.775	55.3894
2.7755	47.43347
2.776	33.53577
2.7765	25.177
2.777	9.86938
2.7775	-7.65381
2.778	-10.0708
2.7785	-12.18567
2.779	-2.61841
2.7795	27.59399
2.78	48.13843
2.7805	62.74109
2.781	70.19348
2.7815	63.84888
2.782	84.39331
2.7825	139.37988
2.783	185.20203
2.7835	217.12646
2.784	221.05408
2.7845	194.46716
2.785	144.11316
2.7855	97.88818
2.786	60.02197
2.7865	174.92981
2.787	292.95959
2.7875	352.57874
2.788	344.52209
2.7885	266.37268
2.789	152.77405
2.7895	18.53027
2.79	-97.88818
2.7905	-209.67407
2.791	-296.98792
2.7915	-383.5968
2.792	-419.85168
2.7925	-409.68018
2.793	-358.31909
2.7935	-321.9635
2.794	-266.27197
2.7945	-185.80627
2.795	-150.8606
2.7955	-157.80945
2.796	-149.75281
2.7965	-118.43262
2.797	-84.79614
2.7975	-55.59082
2.798	-15.60974
2.7985	25.88196
2.799	40.68604
2.7995	40.98816
2.8	27.79541
2.8005	17.12036
2.801	5.23682
2.8015	-7.75452
2.802	-7.45239
2.8025	6.64673
2.803	40.08179
2.8035	58.81348
2.804	77.24304
2.8045	85.60181
2.805	81.27136
2.8055	65.05737
2.806	45.62073
2.8065	25.177
2.807	-1.71204
2.8075	-31.62231
2.808	-49.24622
2.8085	-53.17383
2.809	-43.60657
2.8095	-47.93701
2.81	-75.53101
2.8105	-88.92517
2.811	-70.29419
2.8115	-56.49719
2.812	-34.34143
2.8125	-8.56018
2.813	3.02124
2.8135	16.61682
2.814	24.27063
2.8145	29.60815
2.815	35.54993
2.8155	38.26904
2.816	28.60107
2.8165	10.87646
2.817	0.50354
2.8175	4.02832
2.818	14.19983
2.8185	23.8678
2.819	26.78833
2.8195	30.01099
2.82	30.11169
2.8205	31.92444
2.821	32.12585
2.8215	28.39966
2.822	24.57275
2.8225	30.61523
2.823	24.27063
2.8235	26.08337
2.824	25.68054
2.8245	20.84656
2.825	18.12744
2.8255	17.6239
2.826	21.95435
2.8265	27.29187
2.827	18.8324
2.8275	27.59399
2.828	26.48621
2.8285	24.87488
2.829	22.25647
2.8295	16.61682
2.83	20.1416
2.8305	17.12036
2.831	20.04089
2.8315	16.71753
2.832	18.8324
2.8325	19.53735
2.833	16.81824
2.8335	18.12744
2.834	16.3147
2.8345	11.48071
2.835	16.61682
2.8355	14.70337
2.836	22.45789
2.8365	16.71753
2.837	18.12744
2.8375	29.30603
2.838	30.01099
2.8385	51.86462
2.839	66.46729
2.8395	96.47827
2.84	119.13757
2.8405	149.55139
2.841	160.9314
2.8415	157.80945
2.842	147.33582
2.8425	128.70483
2.843	112.49084
2.8435	80.86853
2.844	27.59399
2.8445	-23.56567
2.845	-67.77649
2.8455	-96.47827
2.846	-132.43103
2.8465	-154.78821
2.847	-152.27051
2.8475	-121.35315
2.848	-108.96606
2.8485	-127.29492
2.849	-116.51917
2.8495	-68.17932
2.85	22.6593
2.8505	114.60571
2.851	170.39795
2.8515	184.49707
2.852	161.93848
2.8525	121.15173
2.853	64.25171
2.8535	3.7262
2.854	-66.26587
2.8545	-114.10217
2.855	-137.46643
2.8555	-146.42944
2.856	-139.27917
2.8565	-139.68201
2.857	-120.54749
2.8575	-90.33508
2.858	-70.69702
2.8585	-54.38232
2.859	-45.41931
2.8595	4.53186
2.86	62.03613
2.8605	96.37756
2.861	120.34607
2.8615	141.29333
2.862	175.73547
2.8625	180.77087
2.863	163.65051
2.8635	130.71899
2.864	79.15649
2.8645	30.61523
2.865	-7.35168
2.8655	-43.50586
2.866	-73.51685
2.8665	-91.8457
2.867	-103.125
2.8675	-109.26819
2.868	-116.01562
2.8685	-110.6781
2.869	-98.69385
2.8695	-68.48145
2.87	-24.77417
2.8705	69.1864
2.871	142.70325
2.8715	176.0376
2.872	181.67725
2.8725	158.01086
2.873	92.04712
2.8735	50.2533
2.874	7.5531
2.8745	-18.73169
2.875	-49.85046
2.8755	-61.93542
2.876	-75.4303
2.8765	-87.11243
2.877	-94.96765
2.8775	-93.0542
2.878	-85.60181
2.8785	-67.67578
2.879	-46.42639
2.8795	-51.05896
2.88	-44.31152
2.8805	-4.22974
2.881	-0.60425
2.8815	-8.7616
2.882	-8.66089
2.8825	-4.93469
2.883	-10.87646
2.8835	-20.94727
2.884	-6.04248
2.8845	21.55151
2.885	48.03772
2.8855	140.78979
2.886	203.93372
2.8865	215.81726
2.887	186.20911
2.8875	170.39795
2.888	163.24768
2.8885	128.70483
2.889	76.7395
2.8895	10.77576
2.89	-49.0448
2.8905	-93.96057
2.891	-123.36731
2.8915	-133.03528
2.892	-141.19263
2.8925	-131.52466
2.893	-117.32483
2.8935	-116.01562
2.894	-125.88501
2.8945	-127.49634
2.895	-104.53491
2.8955	-92.44995
2.896	-72.30835
2.8965	-64.151
2.897	-53.17383
2.8975	-37.26196
2.898	-22.25647
2.8985	-11.78284
2.899	-0.40283
2.8995	37.96692
2.9	64.151
2.9005	62.64038
2.901	47.03064
2.9015	17.6239
2.902	-2.61841
2.9025	-9.46655
2.903	-7.85522
2.9035	-18.22815
2.904	-21.85364
2.9045	-30.01099
2.905	-32.02515
2.9055	-29.40674
2.906	-25.57983
2.9065	-14.50195
2.907	-8.35876
2.9075	4.63257
2.908	8.15735
2.9085	1.81274
2.909	-1.2085
2.9095	12.5885
2.91	18.32886
2.9105	21.45081
2.911	23.56567
2.9115	26.58691
2.912	22.86072
2.9125	29.60815
2.913	34.14001
2.9135	33.9386
2.914	41.4917
2.9145	40.88745
2.915	20.1416
2.9155	11.17859
2.916	14.30054
2.9165	10.87646
2.917	12.78992
2.9175	11.58142
2.918	17.32178
2.9185	21.24939
2.919	20.34302
2.9195	21.85364
2.92	27.19116
2.9205	32.42798
2.921	46.22498
2.9215	46.62781
2.922	47.13135
2.9225	43.40515
2.923	44.21082
2.9235	38.57117
2.924	32.52869
2.9245	19.33594
2.925	1.81274
2.9255	-6.84814
2.926	-4.12903
2.9265	0.70496
2.927	36.55701
2.9275	63.44604
2.928	92.65137
2.9285	108.66394
2.929	125.98572
2.9295	155.79529
2.93	159.01794
2.9305	165.66467
2.931	137.46643
2.9315	96.47827
2.932	46.42639
2.9325	-4.43115
2.933	-47.7356
2.9335	-78.45154
2.934	-116.21704
2.9345	-142.30042
2.935	-161.93848
2.9355	-162.84485
2.936	-173.92273
2.9365	-171.50574
2.937	-151.26343
2.9375	-127.69775
2.938	-96.8811
2.9385	-67.67578
2.939	-52.97241
2.9395	-40.2832
2.94	-24.27063
2.9405	-12.5885
2.941	-2.31628
2.9415	2.71912
2.942	10.97717
2.9425	17.72461
2.943	14.60266
2.9435	13.19275
2.944	10.67505
2.9445	13.69629
2.945	15.40833
2.9455	12.48779
2.946	21.85364
2.9465	32.12585
2.947	67.17224
2.9475	122.56165
2.948	159.11865
2.9485	173.92273
2.949	186.30981
2.9495	173.41919
2.95	141.99829
2.9505	105.84412
2.951	66.97083
2.9515	38.16833
2.952	8.7616
2.9525	-16.01257
2.953	-30.71594
2.9535	-4.63257
2.954	1.10779
2.9545	-29.10461
2.955	-52.16675
2.9555	-43.00232
2.956	-58.10852
2.9565	-73.81897
2.957	-92.24854
2.9575	-103.52783
2.958	-111.18164
2.9585	-109.06677
2.959	-73.91968
2.9595	-36.15417
2.96	-20.04089
2.9605	-18.12744
2.961	-21.65222
2.9615	-26.18408
2.962	-32.22656
2.9625	-47.03064
2.963	-44.41223
2.9635	-38.36975
2.964	-38.36975
2.9645	-25.98267
2.965	-17.22107
2.9655	-13.69629
2.966	-3.22266
2.9665	5.33752
2.967	17.22107
2.9675	24.16992
2.968	15.20691
2.9685	8.25806
2.969	14.70337
2.9695	17.42249
2.97	19.63806
2.9705	22.86072
2.971	25.177
2.9715	25.78125
2.972	51.66321
2.9725	122.86377
2.973	205.24292
2.9735	243.91479
2.974	223.67249
2.9745	178.75671
2.975	127.09351
2.9755	75.63171
2.976	14.90479
2.9765	-24.27063
2.977	13.59558
2.9775	45.41931
2.978	76.53809
2.9785	67.97791
2.979	39.67896
2.9795	10.67505
2.98	-12.08496
2.9805	-36.55701
2.981	-58.51135
2.9815	-118.13049
2.982	-169.7937
2.9825	-184.69849
2.983	-162.54272
2.9835	-138.3728
2.984	-109.57031
2.9845	-89.328
2.985	-72.20764
2.9855	-52.06604
2.986	-43.50586
2.9865	-36.75842
2.987	-21.95435
2.9875	-4.63257
2.988	0.90637
2.9885	7.95593
2.989	-5.0354
2.9895	-22.6593
2.99	-20.04089
2.9905	-4.43115
2.991	2.41699
2.9915	9.36584
2.992	10.67505
2.9925	17.72461
2.993	18.12744
2.9935	18.42957
2.994	7.25098
2.9945	6.94885
2.995	18.12744
2.9955	24.57275
2.996	28.39966
2.9965	34.84497
2.997	30.31311
2.9975	27.79541
2.998	30.61523
2.9985	28.39966
2.999	22.05505
2.9995	25.37842
3	81.17065
3.0005	192.35229
3.001	268.58826
3.0015	285.20508
3.002	258.31604
3.0025	209.27124
3.003	186.71265
3.0035	177.3468
3.004	177.44751
3.0045	227.49939
3.005	239.58435
3.0055	240.28931
3.006	209.9762
3.0065	153.98254
3.007	83.38623
3.0075	-5.23682
3.008	-85.5011
3.0085	-140.78979
3.009	-179.46167
3.0095	-227.19727
3.01	-249.0509
3.0105	-257.40967
3.011	-241.19568
3.0115	-226.59302
3.012	-233.13904
3.0125	-247.94312
3.013	-246.33179
3.0135	-207.15637
3.014	-158.5144
3.0145	-116.82129
3.015	-79.55933
3.0155	-54.48303
3.016	-61.83472
3.0165	-73.01331
3.017	-61.73401
3.0175	-45.11719
3.018	-26.28479
3.0185	-14.40125
3.019	-12.68921
3.0195	-8.96301
3.02	-6.64673
3.0205	-0.90637
3.021	2.01416
3.0215	-3.62549
3.022	-3.22266
3.0225	-5.63965
3.023	-0.10071
3.0235	7.25098
3.024	15.40833
3.0245	16.91895
3.025	24.57275
3.0255	24.47205
3.026	33.73718
3.0265	30.61523
3.027	29.20532
3.0275	27.49329
3.028	36.25488
3.0285	32.93152
3.029	32.83081
3.0295	25.07629
3.03	27.19116
3.0305	25.37842
3.031	20.44373
3.0315	16.61682
3.032	20.04089
3.0325	15.91187
3.033	7.25098
3.0335	10.17151
3.034	21.65222
3.0345	19.33594
3.035	15.71045
3.0355	25.57983
3.036	18.93311
3.0365	17.42249
3.037	25.27771
3.0375	29.70886
3.038	22.96143
3.0385	12.18567
3.039	8.7616
3.0395	7.75452
3.04	11.58142
3.0405	23.26355
3.041	19.73877
3.0415	50.85754
3.042	73.91968
3.0425	82.9834
3.043	86.50818
3.0435	76.03455
3.044	76.53809
3.0445	79.15649
3.045	81.97632
3.0455	63.34534
3.046	41.99524
3.0465	19.43665
3.047	28.60107
3.0475	57.50427
3.048	68.88428
3.0485	70.29419
3.049	61.02905
3.0495	55.79224
3.05	38.87329
3.0505	4.63257
3.051	-23.56567
3.0515	-55.89294
3.052	-79.15649
3.0525	-89.93225
3.053	-71.80481
3.0535	-60.02197
3.054	-63.14392
3.0545	-60.12268
3.055	-54.38232
3.0555	-23.36426
3.056	7.15027
3.0565	15.91187
3.057	16.91895
3.0575	7.75452
3.058	2.11487
3.0585	-3.12195
3.059	-19.03381
3.0595	-27.59399
3.06	-2.81982
3.0605	24.77417
3.061	36.15417
3.0615	43.60657
3.062	36.15417
3.0625	25.68054
3.063	7.5531
3.0635	-4.33044
3.064	-18.73169
3.0645	-24.77417
3.065	-30.41382
3.0655	-25.88196
3.066	69.08569
3.0665	166.97388
3.067	240.99426
3.0675	259.72595
3.068	228.40576
3.0685	163.24768
3.069	84.2926
3.0695	7.65381
3.07	-60.92834
3.0705	-115.7135
3.071	-147.73865
3.0715	-145.12024
3.072	-125.18005
3.0725	-95.5719
3.073	-58.61206
3.0735	-22.86072
3.074	21.14868
3.0745	49.34692
3.075	57.40356
3.0755	76.23596
3.076	117.32483
3.0765	130.51758
3.077	132.33032
3.0775	98.99597
3.078	52.16675
3.0785	-3.22266
3.079	-58.51135
3.0795	-102.21863
3.08	-141.29333
3.0805	-165.76538
3.081	-174.52698
3.0815	-150.45776
3.082	-122.96448
3.0825	-117.82837
3.083	-126.38855
3.0835	-131.02112
3.084	-122.56165
3.0845	-99.19739
3.085	-64.65454
3.0855	-41.4917
3.086	-24.57275
3.0865	-10.67505
3.087	6.2439
3.0875	14.60266
3.088	21.24939
3.0885	13.69629
3.089	8.35876
3.0895	6.94885
3.09	-6.64673
3.0905	-4.22974
3.091	1.61133
3.0915	27.79541
3.092	47.63489
3.0925	55.59082
3.093	58.41064
3.0935	57.60498
3.094	55.99365
3.0945	45.3186
3.095	35.2478
3.0955	50.85754
3.096	79.55933
3.0965	101.01013
3.097	128.90625
3.0975	166.97388
3.098	172.10999
3.0985	167.276
3.099	221.3562
3.0995	248.64807
3.1	224.98169
3.1005	170.59937
3.101	99.19739
3.1015	20.84656
3.102	-16.81824
3.1025	-49.44763
3.103	-43.30444
3.1035	-52.36816
3.104	-73.41614
3.1045	-89.93225
3.105	-112.08801
3.1055	-120.24536
3.106	-137.26501
3.1065	-129.81262
3.107	-82.78198
3.1075	-58.91418
3.108	-56.69861
3.1085	-47.03064
3.109	-46.82922
3.1095	-78.65295
3.11	-90.5365
3.1105	-75.02747
3.111	-34.24072
3.1115	-13.09204
3.112	-8.15735
3.1125	-12.48779
3.113	-12.48779
3.1135	-9.66797
3.114	4.33044
3.1145	26.68762
3.115	41.08887
3.1155	42.8009
3.116	25.177
3.1165	63.64746
3.117	16.51611
3.1175	-0.20142
3.118	-18.63098
3.1185	-39.17542
3.119	-37.86621
3.1195	-26.58691
3.12	-18.73169
3.1205	-14.30054
3.121	-9.16443
3.1215	-8.05664
3.122	-13.29346
3.1225	-14.30054
3.123	-3.92761
3.1235	8.7616
3.124	12.18567
3.1245	19.13452
3.125	13.69629
3.1255	11.17859
3.126	20.34302
3.1265	16.51611
3.127	29.10461
3.1275	38.36975
3.128	33.53577
3.1285	27.49329
3.129	23.26355
3.1295	32.02515
3.13	33.33435
3.1305	38.974
3.131	37.7655
3.1315	41.79382
3.132	70.89844
3.1325	89.02588
3.133	86.40747
3.1335	76.84021
3.134	48.23914
3.1345	24.37134
3.135	7.15027
3.1355	-10.37292
3.136	-24.77417
3.1365	-28.9032
3.137	-6.14319
3.1375	-6.54602
3.138	-6.94885
3.1385	-2.11487
3.139	3.62549
3.1395	14.40125
3.14	17.12036
3.1405	9.06372
3.141	-12.78992
3.1415	-16.61682
3.142	-26.98975
3.1425	-26.88904
3.143	-6.74744
3.1435	24.37134
3.144	109.97314
3.1445	245.42542
3.145	318.53943
3.1455	325.38757
3.146	273.01941
3.1465	196.78345
3.147	109.3689
3.1475	39.07471
3.148	-18.32886
3.1485	-49.64905
3.149	-85.60181
3.1495	-118.43262
3.15	-149.45068
3.1505	-161.0321
3.151	-156.50024
3.1515	-167.88025
3.152	-193.05725
3.1525	-194.87
3.153	-188.82751
3.1535	-180.67017
3.154	-147.1344
3.1545	-110.17456
3.155	-78.55225
3.1555	-54.18091
3.156	-39.27612
3.1565	-32.42798
3.157	-31.92444
3.1575	-6.2439
3.158	20.54443
3.1585	37.96692
3.159	44.91577
3.1595	46.82922
3.16	46.12427
3.1605	33.63647
3.161	26.3855
3.1615	18.22815
3.162	13.09204
3.1625	5.53894
3.163	5.74036
3.1635	29.70886
3.164	60.92834
3.1645	73.41614
3.165	77.948
3.1655	63.74817
3.166	43.40515
3.1665	8.35876
3.167	-28.9032
3.1675	-54.38232
3.168	-34.34143
3.1685	-16.81824
3.169	3.02124
3.1695	23.56567
3.17	51.26038
3.1705	58.10852
3.171	61.83472
3.1715	57.20215
3.172	39.47754
3.1725	18.93311
3.173	1.81274
3.1735	3.92761
3.174	7.25098
3.1745	9.46655
3.175	11.98425
3.1755	12.48779
3.176	33.73718
3.1765	77.04163
3.177	103.62854
3.1775	100.10376
3.178	82.58057
3.1785	67.17224
3.179	48.03772
3.1795	49.0448
3.18	54.48303
3.1805	48.54126
3.181	33.03223
3.1815	1.3092
3.182	-50.45471
3.1825	-84.99756
3.183	-106.64978
3.1835	-130.71899
3.184	-150.05493
3.1845	-142.60254
3.185	-128.10059
3.1855	-108.36182
3.186	-88.11951
3.1865	-84.09119
3.187	-104.83704
3.1875	-113.80005
3.188	-86.30676
3.1885	-62.64038
3.189	-44.71436
3.1895	-36.25488
3.19	-27.79541
3.1905	-24.57275
3.191	-14.70337
3.1915	-3.8269
3.192	-4.22974
3.1925	-1.40991
3.193	-1.61133
3.1935	-1.51062
3.194	-0.90637
3.1945	4.22974
3.195	13.09204
3.1955	14.90479
3.196	18.42957
3.1965	18.63098
3.197	21.85364
3.1975	22.96143
3.198	31.72302
3.1985	36.55701
3.199	62.74109
3.1995	189.83459
3.2	324.17908
3.2005	385.81238
3.201	395.27893
3.2015	344.82422
3.202	252.57568
3.2025	148.4436
3.203	56.39648
3.2035	-31.32019
3.204	-104.13208
3.2045	-149.45068
3.205	-177.54822
3.2055	-186.61194
3.206	-180.46875
3.2065	-153.07617
3.207	-120.95032
3.2075	-64.45312
3.208	-40.2832
3.2085	-52.771
3.209	-71.7041
3.2095	-88.11951
3.21	-76.84021
3.2105	-65.86304
3.211	-66.97083
3.2115	-39.67896
3.212	17.22107
3.2125	73.31543
3.213	113.1958
3.2135	184.09424
3.214	226.3916
3.2145	222.36328
3.215	180.97229
3.2155	181.37512
3.216	188.6261
3.2165	164.85901
3.217	110.47668
3.2175	62.43896
3.218	11.88354
3.2185	-37.7655
3.219	-84.89685
3.2195	-151.66626
3.22	-206.35071
3.2205	-221.85974
3.221	-193.05725
3.2215	-148.64502
3.222	-124.27368
3.2225	-106.8512
3.223	-91.94641
3.2235	-68.68286
3.224	-55.08728
3.2245	-49.44763
3.225	-36.55701
3.2255	-33.23364
3.226	-15.50903
3.2265	5.23682
3.227	21.14868
3.2275	60.3241
3.228	95.37048
3.2285	107.35474
3.229	80.26428
3.2295	36.05347
3.23	-0.40283
3.2305	-22.86072
3.231	-37.7655
3.2315	-51.96533
3.232	-67.77649
3.2325	-114.10217
3.233	-162.44202
3.2335	-165.9668
3.234	-107.55615
3.2345	-65.25879
3.235	-56.79932
3.2355	-65.25879
3.236	-52.36816
3.2365	-32.93152
3.237	-5.33752
3.2375	3.32336
3.238	10.97717
3.2385	15.30762
3.239	15.50903
3.2395	20.84656
3.24	21.45081
3.2405	18.93311
3.241	15.40833
3.2415	16.61682
3.242	19.03381
3.2425	18.12744
3.243	17.22107
3.2435	17.42249
3.244	9.76868
3.2445	11.07788
3.245	22.6593
3.2455	26.08337
3.246	21.65222
3.2465	27.79541
3.247	20.84656
3.2475	18.93311
3.248	23.16284
3.2485	17.12036
3.249	19.13452
3.2495	19.13452
3.25	18.8324
3.2505	19.63806
3.251	16.3147
3.2515	18.12744
3.252	21.24939
3.2525	25.37842
3.253	22.86072
3.2535	25.27771
3.254	24.57275
3.2545	20.04089
3.255	27.09045
3.2555	24.47205
3.256	27.59399
3.2565	31.52161
3.257	33.43506
3.2575	35.65063
3.258	31.62231
3.2585	25.47913
3.259	16.21399
3.2595	12.28638
3.26	13.29346
3.2605	10.87646
3.261	14.60266
3.2615	17.82532
3.262	14.19983
3.2625	21.75293
3.263	20.74585
3.2635	13.19275
3.264	11.58142
3.2645	10.77576
3.265	12.48779
3.2655	10.17151
3.266	11.48071
3.2665	16.51611
3.267	15.60974
3.2675	12.48779
3.268	12.99133
3.2685	8.7616
3.269	6.44531
3.2695	8.96301
3.27	9.46655
3.2705	10.27222
3.271	14.30054
3.2715	16.3147
3.272	12.5885
3.2725	13.19275
3.273	9.56726
3.2735	9.76868
3.274	15.40833
3.2745	17.72461
3.275	16.81824
3.2755	17.82532
3.276	35.54993
3.2765	45.62073
3.277	52.16675
3.2775	62.8418
3.278	63.34534
3.2785	69.38782
3.279	68.17932
3.2795	72.9126
3.28	85.60181
3.2805	123.56873
3.281	187.61902
3.2815	217.83142
3.282	238.57727
3.2825	233.64258
3.283	210.47974
3.2835	165.06042
3.284	116.922
3.2845	65.96375
3.285	22.76001
3.2855	-10.67505
3.286	-25.98267
3.2865	-10.77576
3.287	-6.94885
3.2875	-12.78992
3.288	-28.09753
3.2885	-78.75366
3.289	-116.41846
3.2895	-130.41687
3.29	-127.99988
3.2905	-131.92749
3.291	-151.76697
3.2915	-165.76538
3.292	-186.91406
3.2925	-215.0116
3.293	-208.26416
3.2935	-172.10999
3.294	-142.70325
3.2945	-121.9574
3.295	-91.64429
3.2955	-70.59631
3.296	-56.29578
3.2965	-57.20215
3.297	-50.65613
3.2975	-35.04639
3.298	-23.56567
3.2985	-12.48779
3.299	-5.33752
3.2995	-0.30212
3.3	-2.31628
3.3005	11.17859
3.301	14.50195
3.3015	21.75293
3.302	16.51611
3.3025	13.59558
3.303	22.96143
3.3035	25.07629
3.304	17.92603
3.3045	19.13452
3.305	18.22815
3.3055	21.55151
3.306	26.08337
3.3065	39.47754
3.307	105.03845
3.3075	233.74329
3.308	346.43555
3.3085	387.52441
3.309	369.49768
3.3095	304.64172
3.31	279.56543
3.3105	243.20984
3.311	173.5199
3.3115	84.39331
3.312	-10.57434
3.3125	-102.62146
3.313	-176.54114
3.3135	-229.51355
3.314	-255.89905
3.3145	-253.9856
3.315	-225.88806
3.3155	-184.79919
3.316	-162.34131
3.3165	-161.13281
3.317	-154.78821
3.3175	-128.10059
3.318	-85.19897
3.3185	-54.48303
3.319	-50.95825
3.3195	-60.52551
3.32	-55.59082
3.3205	-37.46338
3.321	-29.70886
3.3215	-17.22107
3.322	-11.68213
3.3225	1.40991
3.323	2.31628
3.3235	-3.42407
3.324	5.43823
3.3245	1.61133
3.325	4.93469
3.3255	6.2439
3.326	15.30762
3.3265	11.07788
3.327	11.17859
3.3275	18.02673
3.328	17.22107
3.3285	17.01965
3.329	22.76001
3.3295	19.53735
3.33	20.54443
3.3305	25.78125
3.331	42.19666
3.3315	54.0802
3.332	66.16516
3.3325	67.17224
3.333	69.38782
3.3335	72.00623
3.334	76.43738
3.3345	96.37756
3.335	107.65686
3.3355	132.33032
3.336	173.82202
3.3365	211.18469
3.337	217.63
3.3375	228.70789
3.338	210.68115
3.3385	170.90149
3.339	115.51208
3.3395	53.77808
3.34	2.61841
3.3405	-51.26038
3.341	-93.96057
3.3415	-110.98022
3.342	-139.68201
3.3425	-172.91565
3.343	-186.61194
3.3435	-154.08325
3.344	-133.94165
3.3445	-119.64111
3.345	-99.60022
3.3455	-86.30676
3.346	-77.74658
3.3465	-95.77332
3.347	-87.51526
3.3475	-71.50269
3.348	-53.97949
3.3485	-43.70728
3.349	-25.177
3.3495	-13.09204
3.35	2.61841
3.3505	13.59558
3.351	20.94727
3.3515	24.47205
3.352	27.29187
3.3525	32.02515
3.353	30.51453
3.3535	24.27063
3.354	25.177
3.3545	32.02515
3.355	41.08887
3.3555	40.78674
3.356	48.74268
3.3565	73.61755
3.357	145.62378
3.3575	182.18079
3.358	188.92822
3.3585	169.59229
3.359	150.75989
3.3595	99.60022
3.36	28.50037
3.3605	-28.39966
3.361	-53.27454
3.3615	-58.61206
3.362	-62.74109
3.3625	-64.55383
3.363	-69.48853
3.3635	-62.64038
3.364	-47.7356
3.3645	-42.59949
3.365	-32.02515
3.3655	-35.75134
3.366	-32.32727
3.3665	-30.81665
3.367	-25.47913
3.3675	-29.50745
3.368	-28.9032
3.3685	-31.01807
3.369	-52.06604
3.3695	-63.34534
3.37	-79.96216
3.3705	-70.19348
3.371	-41.18958
3.3715	-15.00549
3.372	0.90637
3.3725	6.14319
3.373	11.07788
3.3735	9.26514
3.374	15.20691
3.3745	16.81824
3.375	12.68921
3.3755	11.58142
3.376	8.15735
3.3765	3.32336
3.377	2.81982
3.3775	3.52478
3.378	0.80566
3.3785	5.33752
3.379	9.26514
3.3795	10.17151
3.38	15.60974
3.3805	13.99841
3.381	19.03381
3.3815	19.73877
3.382	15.50903
3.3825	15.20691
3.383	20.44373
3.3835	33.33435
3.384	53.57666
3.3845	64.75525
3.385	65.46021
3.3855	73.51685
3.386	92.24854
3.3865	111.8866
3.387	107.55615
3.3875	100.40588
3.388	92.34924
3.3885	73.91968
3.389	44.41223
3.3895	23.8678
3.39	7.75452
3.3905	-8.25806
3.391	-25.98267
3.3915	-41.08887
3.392	-48.94409
3.3925	-50.65613
3.393	-51.96533
3.3935	-59.1156
3.394	-48.74268
3.3945	-27.99683
3.395	-23.26355
3.3955	-17.42249
3.396	-5.84106
3.3965	-6.74744
3.397	0.80566
3.3975	3.22266
3.398	-8.8623
3.3985	-17.01965
3.399	-11.2793
3.3995	-3.62549
3.4	-2.11487
3.4005	-0.20142
3.401	-1.2085
3.4015	7.85522
3.402	8.05664
3.4025	5.53894
3.403	6.64673
3.4035	11.58142
3.404	11.88354
3.4045	9.56726
3.405	10.57434
3.4055	11.78284
3.406	10.97717
3.4065	11.78284
3.407	13.99841
3.4075	17.12036
3.408	8.66089
3.4085	11.07788
3.409	13.09204
3.4095	14.60266
3.41	17.22107
3.4105	18.53027
3.411	18.32886
3.4115	17.42249
3.412	21.3501
3.4125	20.44373
3.413	19.23523
3.4135	15.50903
3.414	17.42249
3.4145	22.86072
3.415	15.91187
3.4155	15.91187
3.416	10.27222
3.4165	10.0708
3.417	12.18567
3.4175	10.47363
3.418	5.0354
3.4185	4.93469
3.419	3.92761
3.4195	5.63965
3.42	12.08496
3.4205	5.84106
3.421	5.84106
3.4215	5.53894
3.422	4.43115
3.4225	9.56726
3.423	8.25806
3.4235	10.47363
3.424	11.2793
3.4245	15.71045
3.425	18.32886
3.4255	24.27063
3.426	29.70886
3.4265	34.74426
3.427	34.84497
3.4275	65.86304
3.428	118.93616
3.4285	140.28625
3.429	151.56555
3.4295	136.66077
3.43	112.59155
3.4305	100.20447
3.431	94.66553
3.4315	110.87952
3.432	134.34448
3.4325	151.66626
3.433	172.00928
3.4335	192.25159
3.434	179.26025
3.4345	145.01953
3.435	133.03528
3.4355	135.45227
3.436	112.79297
3.4365	68.88428
3.437	-2.11487
3.4375	-49.24622
3.438	-94.96765
3.4385	-141.89758
3.439	-210.68115
3.4395	-257.40967
3.44	-261.74011
3.4405	-241.69922
3.441	-209.17053
3.4415	-188.6261
3.442	-182.48291
3.4425	-174.02344
3.443	-156.19812
3.4435	-109.97314
3.444	-78.45154
3.4445	-73.51685
3.445	-79.86145
3.4455	-67.77649
3.446	-23.76709
3.4465	76.84021
3.447	131.22253
3.4475	141.99829
3.448	121.35315
3.4485	75.53101
3.449	20.64514
3.4495	-32.7301
3.45	-76.03455
3.4505	-105.6427
3.451	-125.58289
3.4515	-126.38855
3.452	-110.98022
3.4525	-87.51526
3.453	-68.58215
3.4535	-46.62781
3.454	-26.88904
3.4545	1.81274
3.455	15.40833
3.4555	9.06372
3.456	-3.22266
3.4565	-8.25806
3.457	2.21558
3.4575	18.22815
3.458	25.07629
3.4585	33.43506
3.459	28.19824
3.4595	31.32019
3.46	54.0802
3.4605	92.34924
3.461	160.42786
3.4615	197.28699
3.462	222.46399
3.4625	226.59302
3.463	211.88965
3.4635	189.73389
3.464	175.33264
3.4645	148.84644
3.465	114.10217
3.4655	74.82605
3.466	41.99524
3.4665	27.19116
3.467	15.50903
3.4675	1.00708
3.468	-32.42798
3.4685	-105.84412
3.469	-114.60571
3.4695	-106.24695
3.47	-77.948
3.4705	-84.19189
3.471	-86.30676
3.4715	-88.92517
3.472	-93.25562
3.4725	-72.50977
3.473	-74.62463
3.4735	-78.75366
3.474	-64.25171
3.4745	-43.80798
3.475	-12.48779
3.4755	-1.81274
3.476	-4.73328
3.4765	6.84814
3.477	12.18567
3.4775	12.38708
3.478	-3.7262
3.4785	-16.3147
3.479	-24.87488
3.4795	-34.44214
3.48	-33.73718
3.4805	-34.14001
3.481	-34.54285
3.4815	-35.14709
3.482	-37.36267
3.4825	-21.65222
3.483	-13.29346
3.4835	-8.35876
3.484	-3.62549
3.4845	4.22974
3.485	5.43823
3.4855	15.40833
3.486	19.83948
3.4865	40.38391
3.487	46.42639
3.4875	58.30994
3.488	61.93542
3.4885	61.12976
3.489	56.79932
3.4895	56.69861
3.49	46.82922
3.4905	26.18408
3.491	7.45239
3.4915	3.62549
3.492	5.0354
3.4925	0.80566
3.493	8.25806
3.4935	45.3186
3.494	80.16357
3.4945	98.69385
3.495	107.05261
3.4955	100.30518
3.496	107.75757
3.4965	117.82837
3.497	125.7843
3.4975	116.82129
3.498	89.93225
3.4985	61.93542
3.499	33.9386
3.4995	10.37292
3.5	-16.91895
3.5005	-34.64355
3.501	-29.10461
3.5015	-32.52869
3.502	-42.09595
3.5025	-50.85754
3.503	-67.57507
3.5035	-79.66003
3.504	-75.32959
3.5045	-55.89294
3.505	-20.04089
3.5055	3.32336
3.506	7.5531
3.5065	6.94885
3.507	4.73328
3.5075	-6.04248
3.508	-28.9032
3.5085	-42.90161
3.509	4.53186
3.5095	93.0542
3.51	183.28857
3.5105	232.03125
3.511	257.10754
3.5115	241.59851
3.512	208.16345
3.5125	173.11707
3.513	108.05969
3.5135	42.59949
3.514	-32.52869
3.5145	-70.19348
3.515	-103.22571
3.5155	-115.10925
3.516	-73.51685
3.5165	-24.16992
3.517	69.28711
3.5175	163.4491
3.518	191.04309
3.5185	174.32556
3.519	125.48218
3.5195	63.34534
3.52	-9.56726
3.5205	-82.68127
3.521	-150.35706
3.5215	-185.80627
3.522	-205.14221
3.5225	-208.36487
3.523	-223.47107
3.5235	-212.4939
3.524	-186.20911
3.5245	-138.07068
3.525	-110.07385
3.5255	-75.83313
3.526	-55.79224
3.5265	-58.41064
3.527	-80.4657
3.5275	-89.42871
3.528	-102.52075
3.5285	-87.11243
3.529	-57.20215
3.5295	-38.87329
3.53	-41.18958
3.5305	-44.61365
3.531	-30.41382
3.5315	-30.2124
3.532	-23.26355
3.5325	-3.42407
3.533	11.98425
3.5335	24.06921
3.534	27.99683
3.5345	29.91028
3.535	29.20532
3.5355	35.65063
3.536	29.40674
3.5365	32.12585
3.537	34.44214
3.5375	29.10461
3.538	27.6947
3.5385	61.73401
3.539	90.33508
3.5395	108.66394
3.54	106.54907
3.5405	91.94641
3.541	73.11401
3.5415	59.31702
3.542	54.38232
3.5425	48.94409
3.543	65.56091
3.5435	70.3949
3.544	64.25171
3.5445	50.85754
3.545	64.35242
3.5455	74.72534
3.546	88.72375
3.5465	77.04163
3.547	55.2887
3.5475	31.92444
3.548	-8.35876
3.5485	-40.2832
3.549	-59.82056
3.5495	-74.82605
3.55	-88.62305
3.5505	-83.48694
3.551	-57.8064
3.5515	-17.92603
3.552	5.13611
3.5525	27.09045
3.553	47.03064
3.5535	40.1825
3.554	28.50037
3.5545	-3.7262
3.555	-37.66479
3.5555	-40.2832
3.556	-19.53735
3.5565	-9.46655
3.557	2.01416
3.5575	4.22974
3.558	10.27222
3.5585	13.49487
3.559	4.63257
3.5595	3.7262
3.56	-7.85522
3.5605	-30.11169
3.561	-42.29736
3.5615	-38.87329
3.562	-35.95276
3.5625	-38.77258
3.563	-52.26746
3.5635	-53.57666
3.564	-42.19666
3.5645	-27.49329
3.565	-13.39417
3.5655	-7.35168
3.566	-0.10071
3.5665	2.5177
3.567	3.32336
3.5675	3.92761
3.568	7.35168
3.5685	2.21558
3.569	13.69629
3.5695	11.88354
3.57	16.11328
3.5705	32.7301
3.571	47.43347
3.5715	59.31702
3.572	65.96375
3.5725	59.71985
3.573	52.8717
3.5735	47.63489
3.574	40.58533
3.5745	32.22656
3.575	18.32886
3.5755	10.47363
3.576	9.36584
3.5765	8.05664
3.577	10.47363
3.5775	11.98425
3.578	7.04956
3.5785	2.81982
3.579	-2.5177
3.5795	-9.16443
3.58	-18.32886
3.5805	-23.26355
3.581	-19.83948
3.5815	-16.51611
3.582	-9.76868
3.5825	-4.33044
3.583	1.3092
3.5835	-0.30212
3.584	-1.40991
3.5845	-8.35876
3.585	0.40283
3.5855	-1.3092
3.586	-4.73328
3.5865	6.84814
3.587	7.95593
3.5875	14.09912
3.588	15.30762
3.5885	17.72461
3.589	63.24463
3.5895	183.79211
3.59	348.04688
3.5905	470.70923
3.591	492.9657
3.5915	456.5094
3.592	372.41821
3.5925	269.0918
3.593	178.65601
3.5935	99.80164
3.594	36.05347
3.5945	-6.94885
3.595	-45.01648
3.5955	-66.76941
3.596	-77.04163
3.5965	-86.50818
3.597	-92.34924
3.5975	-80.06287
3.598	-15.91187
3.5985	16.41541
3.599	15.30762
3.5995	-6.2439
3.6	-38.36975
3.6005	-75.53101
3.601	-117.32483
3.6015	-151.96838
3.602	-215.0116
3.6025	-274.93286
3.603	-300.5127
3.6035	-293.46313
3.604	-272.11304
3.6045	-237.46948
3.605	-211.78894
3.6055	-190.94238
3.606	-140.28625
3.6065	-74.82605
3.607	-52.8717
3.6075	-50.95825
3.608	-35.95276
3.6085	-0.20142
3.609	22.35718
3.6095	44.81506
3.61	93.45703
3.6105	155.896
3.611	189.43176
3.6115	200.61035
3.612	197.58911
3.6125	161.83777
3.613	133.23669
3.6135	95.16907
3.614	59.21631
3.6145	17.01965
3.615	-25.88196
3.6155	-57.70569
3.616	-98.89526
3.6165	-113.59863
3.617	-122.86377
3.6175	-116.922
3.618	-97.08252
3.6185	-110.17456
3.619	-140.99121
3.6195	-148.74573
3.62	-129.00696
3.6205	-90.33508
3.621	-54.0802
3.6215	-33.33435
3.622	-25.68054
3.6225	-24.97559
3.623	-18.12744
3.6235	-18.53027
3.624	-7.25098
3.6245	4.22974
3.625	35.54993
3.6255	96.27686
3.626	123.97156
3.6265	130.8197
3.627	121.05103
3.6275	103.32642
3.628	80.16357
3.6285	80.06287
3.629	77.44446
3.6295	86.00464
3.63	81.37207
3.6305	65.15808
3.631	39.37683
3.6315	18.22815
3.632	-5.94177
3.6325	-34.94568
3.633	-67.67578
3.6335	-83.58765
3.634	-79.76074
3.6345	-81.06995
3.635	-78.95508
3.6355	-75.63171
3.636	-51.96533
3.6365	-29.30603
3.637	-20.04089
3.6375	-22.05505
3.638	-31.72302
3.6385	-34.94568
3.639	-27.39258
3.6395	-14.09912
3.64	-0.30212
3.6405	15.81116
3.641	29.00391
3.6415	31.52161
3.642	31.21948
3.6425	29.10461
3.643	13.39417
3.6435	3.92761
3.644	0.50354
3.6445	4.83398
3.645	5.84106
3.6455	3.62549
3.646	0.60425
3.6465	1.2085
3.647	3.42407
3.6475	3.22266
3.648	8.66089
3.6485	23.26355
3.649	69.99207
3.6495	163.75122
3.65	244.72046
3.6505	277.75269
3.651	271.20667
3.6515	256.70471
3.652	226.49231
3.6525	241.39709
3.653	254.18701
3.6535	226.08948
3.654	183.79211
3.6545	120.7489
3.655	46.62781
3.6555	-42.8009
3.656	-111.8866
3.6565	-161.23352
3.657	-187.71973
3.6575	-191.74805
3.658	-176.74255
3.6585	-173.72131
3.659	-163.24768
3.6595	-154.08325
3.66	-152.47192
3.6605	-128.10059
3.661	-81.87561
3.6615	-66.87012
3.662	-74.92676
3.6625	-71.90552
3.663	-50.45471
3.6635	-26.3855
3.664	6.94885
3.6645	41.79382
3.665	48.64197
3.6655	48.23914
3.666	32.32727
3.6665	-1.3092
3.667	-31.32019
3.6675	-60.22339
3.668	-100.80872
3.6685	-117.02271
3.669	-106.75049
3.6695	-85.90393
3.67	-67.27295
3.6705	-50.95825
3.671	-50.15259
3.6715	-58.30994
3.672	-58.51135
3.6725	-43.70728
3.673	-23.8678
3.6735	-16.71753
3.674	-14.40125
3.6745	2.5177
3.675	11.2793
3.6755	19.13452
3.676	34.44214
3.6765	107.45544
3.677	252.37427
3.6775	357.51343
3.678	412.80212
3.6785	423.67859
3.679	362.95166
3.6795	280.57251
3.68	203.43018
3.6805	142.099
3.681	123.06519
3.6815	121.65527
3.682	175.03052
3.6825	214.10522
3.683	205.84717
3.6835	155.896
3.684	90.33508
3.6845	12.18567
3.685	-69.48853
3.6855	-166.36963
3.686	-229.01001
3.6865	-251.87073
3.687	-245.72754
3.6875	-263.95569
3.688	-314.30969
3.6885	-339.88953
3.689	-325.08545
3.6895	-280.77393
3.69	-230.41992
3.6905	-197.99194
3.691	-175.93689
3.6915	-140.78979
3.692	-113.90076
3.6925	-93.45703
3.693	-78.35083
3.6935	-65.66162
3.694	-35.2478
3.6945	-9.46655
3.695	80.26428
3.6955	179.56238
3.696	277.85339
3.6965	356.90918
3.697	410.18372
3.6975	472.72339
3.698	485.61401
3.6985	428.71399
3.699	307.26013
3.6995	149.24927
3.7	-11.58142
3.7005	-131.92749
3.701	-229.71497
3.7015	-291.95251
3.702	-266.27197
3.7025	-206.25
3.703	-132.83386
3.7035	-63.74817
3.704	-30.91736
3.7045	-26.08337
3.705	-17.6239
3.7055	-0.40283
3.706	-8.35876
3.7065	-65.76233
3.707	-126.69067
3.7075	-175.03052
3.708	-181.87866
3.7085	-174.52698
3.709	-162.74414
3.7095	-163.65051
3.71	-143.10608
3.7105	-126.48926
3.711	-119.33899
3.7115	-131.92749
3.712	-124.27368
3.7125	-104.53491
3.713	-75.32959
3.7135	-54.78516
3.714	-50.2533
3.7145	-51.86462
3.715	-36.25488
3.7155	-41.59241
3.716	-35.85205
3.7165	-22.15576
3.717	-11.17859
3.7175	-4.22974
3.718	22.55859
3.7185	50.2533
3.719	65.56091
3.7195	108.56323
3.72	144.91882
3.7205	149.6521
3.721	132.63245
3.7215	114.00146
3.722	82.58057
3.7225	54.48303
3.723	29.20532
3.7235	15.40833
3.724	-5.0354
3.7245	-14.19983
3.725	-16.41541
3.7255	-12.89062
3.726	-17.01965
3.7265	-3.8269
3.727	19.63806
3.7275	38.87329
3.728	58.51135
3.7285	67.67578
3.729	94.96765
3.7295	116.922
3.73	117.92908
3.7305	96.07544
3.731	99.09668
3.7315	97.18323
3.732	96.7804
3.7325	82.78198
3.733	51.15967
3.7335	47.53418
3.734	136.15723
3.7345	196.88416
3.735	222.86682
3.7355	202.5238
3.736	162.2406
3.7365	105.23987
3.737	56.69861
3.7375	1.10779
3.738	-66.76941
3.7385	-61.33118
3.739	-19.94019
3.7395	-1.91345
3.74	-17.12036
3.7405	-45.72144
3.741	-87.11243
3.7415	-131.52466
3.742	-155.09033
3.7425	-139.07776
3.743	-107.95898
3.7435	-81.97632
3.744	-50.354
3.7445	-11.88354
3.745	59.61914
3.7455	124.17297
3.746	153.479
3.7465	148.54431
3.747	107.35474
3.7475	34.64355
3.748	-58.91418
3.7485	-130.92041
3.749	-178.05176
3.7495	-222.36328
3.75	-237.6709
3.7505	-229.91638
3.751	-186.71265
3.7515	-166.36963
3.752	-186.81335
3.7525	-203.02734
3.753	-133.3374
3.7535	-27.89612
3.754	45.41931
3.7545	56.69861
3.755	40.78674
3.7555	25.47913
3.756	22.05505
3.7565	6.64673
3.757	2.21558
3.7575	29.50745
3.758	60.62622
3.7585	90.83862
3.759	113.90076
3.7595	126.69067
3.76	143.81104
3.7605	214.50806
3.761	330.22156
3.7615	384.30176
3.762	377.05078
3.7625	316.02173
3.763	225.88806
3.7635	151.56555
3.764	204.73938
3.7645	247.94312
3.765	262.74719
3.7655	204.63867
3.766	77.54517
3.7665	-40.88745
3.767	-118.73474
3.7675	-201.11389
3.768	-265.06348
3.7685	-322.76917
3.769	-342.91077
3.7695	-355.19714
3.77	-361.64246
3.7705	-346.63696
3.771	-314.10828
3.7715	-267.27905
3.772	-190.33813
3.7725	-137.16431
3.773	-111.48376
3.7735	-99.3988
3.774	-92.65137
3.7745	-85.09827
3.775	-70.59631
3.7755	-55.18799
3.776	-49.34692
3.7765	-34.24072
3.777	-36.25488
3.7775	-48.64197
3.778	-49.14551
3.7785	-37.06055
3.779	-18.22815
3.7795	3.02124
3.78	35.65063
3.7805	96.98181
3.781	183.38928
3.7815	239.58435
3.782	303.33252
3.7825	363.15308
3.783	376.34583
3.7835	344.01855
3.784	276.54419
3.7845	187.82043
3.785	110.57739
3.7855	26.3855
3.786	-46.12427
3.7865	-100.00305
3.787	-142.099
3.7875	-169.99512
3.788	-168.58521
3.7885	-158.81653
3.789	-147.83936
3.7895	-141.59546
3.79	-127.59705
3.7905	-109.3689
3.791	-117.72766
3.7915	-142.70325
3.792	-182.18079
3.7925	-164.15405
3.793	-139.17847
3.7935	-97.48535
3.794	-63.14392
3.7945	-44.61365
3.795	-27.29187
3.7955	-16.11328
