Marco_Margarita_Left_1.c3d  



Time(s):	B_L_bicipite(μV):
0	10.17151
0.0005	8.66089
0.001	6.2439
0.0015	0.30212
0.002	0.30212
0.0025	-0.40283
0.003	2.01416
0.0035	1.71204
0.004	-0.30212
0.0045	5.0354
0.005	7.45239
0.0055	5.33752
0.006	9.06372
0.0065	3.7262
0.007	6.64673
0.0075	7.65381
0.008	3.22266
0.0085	6.44531
0.009	2.21558
0.0095	-2.11487
0.01	-2.01416
0.0105	7.95593
0.011	3.52478
0.0115	-0.40283
0.012	7.75452
0.0125	7.04956
0.013	3.62549
0.0135	6.74744
0.014	2.21558
0.0145	6.44531
0.015	2.21558
0.0155	6.3446
0.016	6.44531
0.0165	6.2439
0.017	4.22974
0.0175	7.5531
0.018	6.2439
0.0185	9.76868
0.019	6.84814
0.0195	6.44531
0.02	9.56726
0.0205	4.02832
0.021	7.75452
0.0215	5.23682
0.022	3.32336
0.0225	2.5177
0.023	10.0708
0.0235	9.06372
0.024	3.02124
0.0245	7.04956
0.025	9.86938
0.0255	9.36584
0.026	6.64673
0.0265	8.56018
0.027	7.25098
0.0275	4.93469
0.028	0.90637
0.0285	5.94177
0.029	1.40991
0.0295	5.53894
0.03	1.40991
0.0305	2.01416
0.031	2.5177
0.0315	0.90637
0.032	5.0354
0.0325	1.10779
0.033	1.10779
0.0335	-1.00708
0.034	0.80566
0.0345	2.21558
0.035	4.63257
0.0355	4.43115
0.036	2.11487
0.0365	0.80566
0.037	7.35168
0.0375	10.27222
0.038	8.05664
0.0385	3.42407
0.039	5.63965
0.0395	-0.10071
0.04	2.21558
0.0405	-0.10071
0.041	4.53186
0.0415	4.12903
0.042	4.83398
0.0425	1.51062
0.043	9.36584
0.0435	4.22974
0.044	3.52478
0.0445	4.12903
0.045	1.00708
0.0455	3.02124
0.046	1.91345
0.0465	2.92053
0.047	3.22266
0.0475	3.42407
0.048	3.02124
0.0485	2.41699
0.049	3.92761
0.0495	4.43115
0.05	2.41699
0.0505	4.63257
0.051	2.11487
0.0515	5.63965
0.052	5.13611
0.0525	-1.51062
0.053	8.15735
0.0535	0.80566
0.054	7.25098
0.0545	6.64673
0.055	2.61841
0.0555	4.73328
0.056	6.3446
0.0565	7.04956
0.057	2.92053
0.0575	3.02124
0.058	9.46655
0.0585	9.56726
0.059	10.37292
0.0595	-0.10071
0.06	2.01416
0.0605	8.25806
0.061	6.64673
0.0615	3.32336
0.062	2.61841
0.0625	2.81982
0.063	8.15735
0.0635	1.51062
0.064	4.63257
0.0645	-2.61841
0.065	4.43115
0.0655	5.33752
0.066	3.12195
0.0665	3.7262
0.067	6.3446
0.0675	3.12195
0.068	5.0354
0.0685	5.23682
0.069	3.62549
0.0695	3.32336
0.07	8.05664
0.0705	0.70496
0.071	5.13611
0.0715	3.22266
0.072	12.38708
0.0725	6.94885
0.073	9.97009
0.0735	5.43823
0.074	9.06372
0.0745	1.40991
0.075	0.80566
0.0755	8.45947
0.076	9.06372
0.0765	7.95593
0.077	4.53186
0.0775	6.14319
0.078	6.2439
0.0785	0.70496
0.079	1.91345
0.0795	1.51062
0.08	2.31628
0.0805	6.64673
0.081	7.04956
0.0815	4.33044
0.082	5.94177
0.0825	11.58142
0.083	4.83398
0.0835	12.08496
0.084	12.99133
0.0845	12.89062
0.085	11.98425
0.0855	7.75452
0.086	11.88354
0.0865	12.48779
0.087	11.68213
0.0875	8.35876
0.088	9.66797
0.0885	9.56726
0.089	5.74036
0.0895	1.91345
0.09	4.43115
0.0905	2.92053
0.091	4.12903
0.0915	4.53186
0.092	1.2085
0.0925	2.81982
0.093	3.42407
0.0935	3.92761
0.094	-0.90637
0.0945	0.50354
0.095	0.90637
0.0955	-3.22266
0.096	-3.8269
0.0965	2.01416
0.097	0.30212
0.0975	0.20142
0.098	6.64673
0.0985	5.0354
0.099	7.45239
0.0995	3.22266
0.1	4.12903
0.1005	5.23682
0.101	6.04248
0.1015	4.63257
0.102	3.62549
0.1025	1.2085
0.103	1.00708
0.1035	-0.60425
0.104	2.21558
0.1045	0
0.105	3.8269
0.1055	4.93469
0.106	2.11487
0.1065	-0.60425
0.107	2.5177
0.1075	3.92761
0.108	3.7262
0.1085	9.56726
0.109	8.56018
0.1095	10.37292
0.11	10.0708
0.1105	8.05664
0.111	11.07788
0.1115	6.54602
0.112	7.85522
0.1125	3.02124
0.113	6.94885
0.1135	2.5177
0.114	9.56726
0.1145	10.57434
0.115	8.05664
0.1155	9.06372
0.116	4.33044
0.1165	6.74744
0.117	1.10779
0.1175	2.61841
0.118	2.31628
0.1185	4.53186
0.119	9.26514
0.1195	8.8623
0.12	6.14319
0.1205	7.65381
0.121	6.04248
0.1215	7.75452
0.122	7.75452
0.1225	2.61841
0.123	5.23682
0.1235	6.44531
0.124	8.56018
0.1245	1.51062
0.125	7.85522
0.1255	5.63965
0.126	1.91345
0.1265	4.73328
0.127	6.14319
0.1275	-0.20142
0.128	4.02832
0.1285	3.7262
0.129	3.62549
0.1295	1.71204
0.13	8.66089
0.1305	9.46655
0.131	-0.10071
0.1315	4.83398
0.132	3.92761
0.1325	3.7262
0.133	1.3092
0.1335	4.83398
0.134	4.02832
0.1345	0.70496
0.135	1.00708
0.1355	6.54602
0.136	5.33752
0.1365	-1.91345
0.137	7.65381
0.1375	6.54602
0.138	5.63965
0.1385	3.02124
0.139	5.84106
0.1395	7.5531
0.14	5.63965
0.1405	2.01416
0.141	1.61133
0.1415	3.32336
0.142	5.0354
0.1425	-2.21558
0.143	0.10071
0.1435	-0.20142
0.144	3.62549
0.1445	1.3092
0.145	0.10071
0.1455	3.12195
0.146	8.15735
0.1465	4.93469
0.147	3.22266
0.1475	3.22266
0.148	0.40283
0.1485	5.23682
0.149	6.54602
0.1495	7.95593
0.15	2.41699
0.1505	5.84106
0.151	9.26514
0.1515	6.14319
0.152	5.23682
0.1525	7.75452
0.153	8.7616
0.1535	8.15735
0.154	7.15027
0.1545	8.8623
0.155	7.45239
0.1555	10.87646
0.156	17.82532
0.1565	15.60974
0.157	11.98425
0.1575	16.51611
0.158	8.05664
0.1585	9.86938
0.159	4.83398
0.1595	2.92053
0.16	-0.60425
0.1605	4.93469
0.161	7.15027
0.1615	2.81982
0.162	1.91345
0.1625	2.01416
0.163	6.64673
0.1635	9.76868
0.164	5.63965
0.1645	3.32336
0.165	1.40991
0.1655	4.83398
0.166	-3.02124
0.1665	-5.0354
0.167	0.10071
0.1675	-2.61841
0.168	-1.61133
0.1685	0
0.169	1.91345
0.1695	-0.80566
0.17	2.5177
0.1705	2.5177
0.171	-4.12903
0.1715	0.30212
0.172	1.61133
0.1725	8.25806
0.173	8.66089
0.1735	6.44531
0.174	9.06372
0.1745	2.5177
0.175	9.76868
0.1755	7.25098
0.176	5.0354
0.1765	2.92053
0.177	1.61133
0.1775	4.02832
0.178	8.35876
0.1785	8.56018
0.179	3.62549
0.1795	8.35876
0.18	8.7616
0.1805	11.38
0.181	1.91345
0.1815	3.12195
0.182	3.12195
0.1825	3.02124
0.183	0.70496
0.1835	9.06372
0.184	0.80566
0.1845	5.94177
0.185	5.94177
0.1855	3.02124
0.186	7.5531
0.1865	5.74036
0.187	5.94177
0.1875	10.57434
0.188	10.27222
0.1885	7.25098
0.189	8.05664
0.1895	5.74036
0.19	2.41699
0.1905	1.81274
0.191	4.63257
0.1915	3.02124
0.192	1.3092
0.1925	0.70496
0.193	3.62549
0.1935	5.43823
0.194	5.74036
0.1945	0
0.195	2.71912
0.1955	5.53894
0.196	3.22266
0.1965	4.73328
0.197	4.63257
0.1975	0.30212
0.198	-0.80566
0.1985	1.2085
0.199	-0.90637
0.1995	2.21558
0.2	0.40283
0.2005	9.36584
0.201	0.80566
0.2015	3.52478
0.202	3.32336
0.2025	3.42407
0.203	3.42407
0.2035	7.45239
0.204	2.61841
0.2045	8.05664
0.205	5.53894
0.2055	12.18567
0.206	5.53894
0.2065	4.22974
0.207	9.46655
0.2075	6.3446
0.208	4.02832
0.2085	3.52478
0.209	6.54602
0.2095	2.81982
0.21	1.00708
0.2105	5.74036
0.211	5.0354
0.2115	6.3446
0.212	-0.90637
0.2125	3.62549
0.213	0.40283
0.2135	4.02832
0.214	2.61841
0.2145	0.10071
0.215	5.63965
0.2155	4.53186
0.216	-1.71204
0.2165	2.31628
0.217	3.8269
0.2175	5.63965
0.218	8.56018
0.2185	6.64673
0.219	4.53186
0.2195	7.75452
0.22	6.84814
0.2205	3.8269
0.221	9.36584
0.2215	1.10779
0.222	1.00708
0.2225	2.81982
0.223	6.54602
0.2235	11.98425
0.224	7.75452
0.2245	2.92053
0.225	2.11487
0.2255	-0.20142
0.226	2.71912
0.2265	7.85522
0.227	9.06372
0.2275	8.8623
0.228	9.26514
0.2285	9.06372
0.229	14.19983
0.2295	4.63257
0.23	3.12195
0.2305	4.22974
0.231	9.56726
0.2315	4.02832
0.232	6.14319
0.2325	8.45947
0.233	11.88354
0.2335	9.97009
0.234	5.33752
0.2345	9.26514
0.235	4.33044
0.2355	7.75452
0.236	3.8269
0.2365	3.42407
0.237	3.92761
0.2375	4.02832
0.238	6.54602
0.2385	1.3092
0.239	-1.40991
0.2395	-0.70496
0.24	1.91345
0.2405	9.86938
0.241	2.21558
0.2415	0.60425
0.242	0.20142
0.2425	1.00708
0.243	4.02832
0.2435	4.63257
0.244	7.65381
0.2445	9.16443
0.245	7.75452
0.2455	7.35168
0.246	11.98425
0.2465	8.66089
0.247	8.7616
0.2475	11.48071
0.248	10.57434
0.2485	9.36584
0.249	4.93469
0.2495	2.31628
0.25	4.12903
0.2505	5.63965
0.251	-1.00708
0.2515	0.10071
0.252	-1.00708
0.2525	4.33044
0.253	3.62549
0.2535	6.64673
0.254	10.27222
0.2545	4.53186
0.255	2.81982
0.2555	-4.73328
0.256	-2.5177
0.2565	4.93469
0.257	-1.3092
0.2575	3.52478
0.258	-0.10071
0.2585	0.20142
0.259	2.5177
0.2595	6.44531
0.26	4.33044
0.2605	4.43115
0.261	1.61133
0.2615	13.49487
0.262	6.74744
0.2625	6.04248
0.263	8.66089
0.2635	9.56726
0.264	9.56726
0.2645	6.74744
0.265	-0.60425
0.2655	1.51062
0.266	4.83398
0.2665	10.67505
0.267	6.74744
0.2675	5.33752
0.268	1.81274
0.2685	11.17859
0.269	8.8623
0.2695	3.92761
0.27	7.45239
0.2705	6.44531
0.271	5.33752
0.2715	7.15027
0.272	3.52478
0.2725	-1.2085
0.273	5.84106
0.2735	4.53186
0.274	5.0354
0.2745	7.15027
0.275	8.96301
0.2755	8.45947
0.276	8.45947
0.2765	5.53894
0.277	10.37292
0.2775	6.64673
0.278	11.48071
0.2785	13.59558
0.279	11.17859
0.2795	13.19275
0.28	11.98425
0.2805	11.07788
0.281	13.59558
0.2815	8.66089
0.282	7.15027
0.2825	12.48779
0.283	4.53186
0.2835	11.07788
0.284	7.95593
0.2845	9.86938
0.285	5.74036
0.2855	4.63257
0.286	7.65381
0.2865	5.13611
0.287	5.23682
0.2875	4.83398
0.288	0.40283
0.2885	2.11487
0.289	7.85522
0.2895	5.33752
0.29	9.36584
0.2905	7.25098
0.291	5.0354
0.2915	9.66797
0.292	0.60425
0.2925	6.84814
0.293	6.94885
0.2935	9.56726
0.294	5.33752
0.2945	1.00708
0.295	2.11487
0.2955	4.33044
0.296	3.7262
0.2965	2.92053
0.297	5.74036
0.2975	2.41699
0.298	5.43823
0.2985	7.15027
0.299	9.56726
0.2995	6.2439
0.3	3.8269
0.3005	5.0354
0.301	4.22974
0.3015	2.31628
0.302	3.92761
0.3025	5.0354
0.303	5.23682
0.3035	5.63965
0.304	4.83398
0.3045	3.42407
0.305	-0.10071
0.3055	3.52478
0.306	5.84106
0.3065	3.92761
0.307	1.71204
0.3075	0.80566
0.308	1.51062
0.3085	1.10779
0.309	3.62549
0.3095	2.31628
0.31	2.01416
0.3105	4.02832
0.311	4.93469
0.3115	4.43115
0.312	6.14319
0.3125	5.84106
0.313	8.8623
0.3135	4.43115
0.314	1.71204
0.3145	5.84106
0.315	3.52478
0.3155	5.13611
0.316	3.32336
0.3165	3.7262
0.317	3.8269
0.3175	-1.51062
0.318	4.12903
0.3185	2.21558
0.319	5.74036
0.3195	4.43115
0.32	4.73328
0.3205	2.41699
0.321	6.64673
0.3215	0.10071
0.322	0.60425
0.3225	1.61133
0.323	3.62549
0.3235	6.3446
0.324	3.42407
0.3245	0.20142
0.325	-5.13611
0.3255	-0.10071
0.326	7.5531
0.3265	-1.40991
0.327	-1.40991
0.3275	2.31628
0.328	1.91345
0.3285	6.14319
0.329	6.14319
0.3295	5.94177
0.33	4.22974
0.3305	4.22974
0.331	8.66089
0.3315	8.7616
0.332	7.5531
0.3325	6.64673
0.333	0.10071
0.3335	3.92761
0.334	5.63965
0.3345	5.53894
0.335	7.5531
0.3355	2.71912
0.336	3.02124
0.3365	8.35876
0.337	8.45947
0.3375	5.94177
0.338	2.21558
0.3385	2.21558
0.339	-2.31628
0.3395	-2.41699
0.34	3.92761
0.3405	-4.73328
0.341	-2.81982
0.3415	1.40991
0.342	-2.92053
0.3425	-5.74036
0.343	-1.10779
0.3435	-3.02124
0.344	-5.43823
0.3445	-3.62549
0.345	3.42407
0.3455	2.5177
0.346	6.2439
0.3465	-0.50354
0.347	1.81274
0.3475	3.22266
0.348	5.94177
0.3485	-0.60425
0.349	3.22266
0.3495	0.40283
0.35	8.8623
0.3505	6.64673
0.351	7.75452
0.3515	8.8623
0.352	2.11487
0.3525	10.0708
0.353	9.36584
0.3535	8.15735
0.354	14.60266
0.3545	14.09912
0.355	9.86938
0.3555	12.08496
0.356	11.58142
0.3565	10.47363
0.357	9.26514
0.3575	11.17859
0.358	9.56726
0.3585	6.84814
0.359	10.27222
0.3595	7.45239
0.36	13.69629
0.3605	10.87646
0.361	5.63965
0.3615	7.65381
0.362	3.8269
0.3625	8.8623
0.363	5.0354
0.3635	9.06372
0.364	10.0708
0.3645	6.84814
0.365	5.53894
0.3655	5.94177
0.366	6.14319
0.3665	8.7616
0.367	6.94885
0.3675	10.57434
0.368	12.78992
0.3685	9.86938
0.369	14.40125
0.3695	8.8623
0.37	9.56726
0.3705	6.74744
0.371	8.56018
0.3715	9.76868
0.372	0.60425
0.3725	1.51062
0.373	3.8269
0.3735	9.56726
0.374	6.84814
0.3745	12.18567
0.375	13.797
0.3755	11.98425
0.376	8.7616
0.3765	7.75452
0.377	10.0708
0.3775	14.60266
0.378	9.06372
0.3785	6.3446
0.379	12.48779
0.3795	11.98425
0.38	8.7616
0.3805	7.85522
0.381	10.37292
0.3815	7.25098
0.382	3.8269
0.3825	13.29346
0.383	13.99841
0.3835	11.68213
0.384	13.39417
0.3845	12.18567
0.385	11.58142
0.3855	6.54602
0.386	7.35168
0.3865	10.47363
0.387	8.56018
0.3875	7.85522
0.388	13.69629
0.3885	7.45239
0.389	8.15735
0.3895	12.28638
0.39	7.45239
0.3905	4.43115
0.391	1.81274
0.3915	4.73328
0.392	-1.00708
0.3925	4.93469
0.393	7.25098
0.3935	8.8623
0.394	10.17151
0.3945	6.54602
0.395	6.54602
0.3955	4.93469
0.396	13.19275
0.3965	12.5885
0.397	5.94177
0.3975	6.3446
0.398	6.3446
0.3985	7.25098
0.399	5.74036
0.3995	0.80566
0.4	1.71204
0.4005	-2.71912
0.401	5.63965
0.4015	-1.3092
0.402	-3.42407
0.4025	3.8269
0.403	2.41699
0.4035	1.3092
0.404	-1.2085
0.4045	1.2085
0.405	-1.61133
0.4055	-2.31628
0.406	-0.70496
0.4065	-0.30212
0.407	5.94177
0.4075	2.61841
0.408	-1.81274
0.4085	6.3446
0.409	-0.90637
0.4095	5.23682
0.41	5.74036
0.4105	10.97717
0.411	4.33044
0.4115	4.53186
0.412	5.23682
0.4125	3.12195
0.413	6.94885
0.4135	4.63257
0.414	4.43115
0.4145	8.15735
0.415	12.38708
0.4155	13.59558
0.416	6.54602
0.4165	10.37292
0.417	8.15735
0.4175	5.74036
0.418	10.47363
0.4185	7.45239
0.419	5.33752
0.4195	8.25806
0.42	3.52478
0.4205	2.01416
0.421	1.61133
0.4215	3.02124
0.422	2.31628
0.4225	4.93469
0.423	2.31628
0.4235	4.53186
0.424	4.43115
0.4245	4.43115
0.425	3.62549
0.4255	4.33044
0.426	6.2439
0.4265	10.87646
0.427	10.27222
0.4275	5.23682
0.428	8.05664
0.4285	12.28638
0.429	4.43115
0.4295	10.97717
0.43	10.77576
0.4305	9.06372
0.431	3.52478
0.4315	3.92761
0.432	10.57434
0.4325	8.56018
0.433	8.05664
0.4335	5.74036
0.434	8.05664
0.4345	5.23682
0.435	7.15027
0.4355	11.38
0.436	14.09912
0.4365	11.07788
0.437	7.5531
0.4375	1.51062
0.438	6.64673
0.4385	8.56018
0.439	5.13611
0.4395	9.46655
0.44	8.35876
0.4405	7.04956
0.441	4.63257
0.4415	3.22266
0.442	5.63965
0.4425	5.53894
0.443	4.53186
0.4435	5.23682
0.444	3.62549
0.4445	-0.80566
0.445	0.80566
0.4455	5.53894
0.446	6.84814
0.4465	10.37292
0.447	4.22974
0.4475	5.43823
0.448	4.22974
0.4485	5.33752
0.449	3.22266
0.4495	1.61133
0.45	5.43823
0.4505	0.20142
0.451	1.71204
0.4515	4.83398
0.452	0.50354
0.4525	7.65381
0.453	11.07788
0.4535	5.43823
0.454	10.17151
0.4545	9.86938
0.455	6.14319
0.4555	10.77576
0.456	10.67505
0.4565	7.5531
0.457	10.0708
0.4575	8.05664
0.458	5.23682
0.4585	3.22266
0.459	5.0354
0.4595	5.0354
0.46	1.71204
0.4605	3.32336
0.461	6.74744
0.4615	2.71912
0.462	6.14319
0.4625	4.93469
0.463	6.14319
0.4635	14.19983
0.464	7.85522
0.4645	1.61133
0.465	4.83398
0.4655	8.8623
0.466	7.15027
0.4665	9.97009
0.467	10.37292
0.4675	10.57434
0.468	5.63965
0.4685	8.05664
0.469	1.81274
0.4695	5.0354
0.47	2.21558
0.4705	7.85522
0.471	7.5531
0.4715	8.05664
0.472	5.23682
0.4725	0.60425
0.473	5.53894
0.4735	6.74744
0.474	11.17859
0.4745	9.36584
0.475	9.26514
0.4755	6.64673
0.476	5.33752
0.4765	4.83398
0.477	2.11487
0.4775	6.94885
0.478	5.63965
0.4785	10.47363
0.479	9.26514
0.4795	8.05664
0.48	3.02124
0.4805	4.93469
0.481	4.43115
0.4815	5.43823
0.482	0.10071
0.4825	4.22974
0.483	8.8623
0.4835	4.73328
0.484	12.28638
0.4845	9.86938
0.485	11.2793
0.4855	10.47363
0.486	8.56018
0.4865	11.17859
0.487	7.45239
0.4875	9.76868
0.488	12.08496
0.4885	5.84106
0.489	6.2439
0.4895	6.74744
0.49	8.8623
0.4905	6.94885
0.491	5.53894
0.4915	9.26514
0.492	1.3092
0.4925	2.61841
0.493	-0.80566
0.4935	0.90637
0.494	-5.84106
0.4945	-3.8269
0.495	0.10071
0.4955	-1.81274
0.496	-5.94177
0.4965	-3.32336
0.497	1.71204
0.4975	1.51062
0.498	6.74744
0.4985	4.83398
0.499	2.61841
0.4995	0.30212
0.5	8.8623
0.5005	9.46655
0.501	4.53186
0.5015	3.12195
0.502	3.32336
0.5025	5.94177
0.503	8.7616
0.5035	7.5531
0.504	4.63257
0.5045	1.00708
0.505	8.35876
0.5055	5.13611
0.506	9.46655
0.5065	10.37292
0.507	6.64673
0.5075	0.20142
0.508	11.07788
0.5085	5.94177
0.509	2.61841
0.5095	7.5531
0.51	4.33044
0.5105	7.35168
0.511	9.16443
0.5115	8.8623
0.512	2.81982
0.5125	5.23682
0.513	7.04956
0.5135	4.02832
0.514	9.76868
0.5145	8.15735
0.515	9.86938
0.5155	8.35876
0.516	6.2439
0.5165	9.86938
0.517	8.15735
0.5175	4.73328
0.518	8.05664
0.5185	10.0708
0.519	7.65381
0.5195	4.73328
0.52	11.88354
0.5205	6.04248
0.521	7.25098
0.5215	5.84106
0.522	3.02124
0.5225	10.57434
0.523	8.56018
0.5235	15.1062
0.524	11.48071
0.5245	5.74036
0.525	4.93469
0.5255	7.15027
0.526	7.45239
0.5265	16.71753
0.527	5.13611
0.5275	7.5531
0.528	2.5177
0.5285	2.61841
0.529	3.12195
0.5295	4.53186
0.53	6.94885
0.5305	5.74036
0.531	1.2085
0.5315	5.63965
0.532	0.10071
0.5325	7.25098
0.533	6.94885
0.5335	9.16443
0.534	12.08496
0.5345	7.5531
0.535	3.42407
0.5355	7.75452
0.536	4.73328
0.5365	3.32336
0.537	10.27222
0.5375	6.54602
0.538	3.7262
0.5385	5.33752
0.539	2.11487
0.5395	9.06372
0.54	8.15735
0.5405	3.7262
0.541	0.50354
0.5415	5.53894
0.542	3.92761
0.5425	1.51062
0.543	4.22974
0.5435	-0.40283
0.544	5.0354
0.5445	3.22266
0.545	10.37292
0.5455	8.25806
0.546	4.12903
0.5465	4.53186
0.547	5.43823
0.5475	5.33752
0.548	5.33752
0.5485	3.42407
0.549	4.53186
0.5495	-0.60425
0.55	3.32336
0.5505	3.7262
0.551	-4.93469
0.5515	6.74744
0.552	3.12195
0.5525	1.2085
0.553	3.12195
0.5535	-2.71912
0.554	5.74036
0.5545	7.35168
0.555	7.15027
0.5555	5.63965
0.556	8.96301
0.5565	12.78992
0.557	4.83398
0.5575	9.46655
0.558	7.25098
0.5585	8.35876
0.559	3.32336
0.5595	0.80566
0.56	7.25098
0.5605	6.04248
0.561	5.43823
0.5615	6.64673
0.562	5.0354
0.5625	7.75452
0.563	9.06372
0.5635	8.05664
0.564	4.93469
0.5645	6.94885
0.565	1.40991
0.5655	6.74744
0.566	4.22974
0.5665	4.73328
0.567	4.53186
0.5675	4.33044
0.568	5.53894
0.5685	6.3446
0.569	2.01416
0.5695	5.33752
0.57	2.21558
0.5705	11.07788
0.571	6.3446
0.5715	3.92761
0.572	4.63257
0.5725	1.61133
0.573	3.7262
0.5735	4.02832
0.574	1.71204
0.5745	5.43823
0.575	5.84106
0.5755	4.22974
0.576	5.33752
0.5765	6.3446
0.577	4.33044
0.5775	2.5177
0.578	6.84814
0.5785	8.96301
0.579	4.12903
0.5795	6.3446
0.58	8.8623
0.5805	5.43823
0.581	10.37292
0.5815	7.95593
0.582	4.73328
0.5825	7.04956
0.583	10.47363
0.5835	7.45239
0.584	10.47363
0.5845	5.74036
0.585	7.5531
0.5855	7.45239
0.586	3.42407
0.5865	8.96301
0.587	0.20142
0.5875	2.31628
0.588	-2.81982
0.5885	2.31628
0.589	3.8269
0.5895	-1.2085
0.59	-6.64673
0.5905	0
0.591	2.01416
0.5915	-0.90637
0.592	-5.63965
0.5925	1.40991
0.593	-3.7262
0.5935	-3.62549
0.594	0.80566
0.5945	4.43115
0.595	8.35876
0.5955	4.83398
0.596	7.95593
0.5965	6.2439
0.597	3.62549
0.5975	3.22266
0.598	9.56726
0.5985	0.70496
0.599	3.92761
0.5995	1.91345
0.6	4.22974
0.6005	6.94885
0.601	5.63965
0.6015	6.74744
0.602	4.83398
0.6025	2.31628
0.603	1.51062
0.6035	5.33752
0.604	8.66089
0.6045	6.3446
0.605	4.22974
0.6055	4.43115
0.606	8.7616
0.6065	4.22974
0.607	7.75452
0.6075	3.12195
0.608	7.95593
0.6085	6.54602
0.609	5.33752
0.6095	1.71204
0.61	4.73328
0.6105	6.54602
0.611	6.44531
0.6115	3.22266
0.612	0.80566
0.6125	4.33044
0.613	4.12903
0.6135	6.84814
0.614	6.3446
0.6145	7.95593
0.615	3.22266
0.6155	7.45239
0.616	7.25098
0.6165	1.71204
0.617	1.40991
0.6175	9.06372
0.618	5.74036
0.6185	4.63257
0.619	-1.51062
0.6195	4.22974
0.62	10.27222
0.6205	5.84106
0.621	7.75452
0.6215	10.67505
0.622	2.71912
0.6225	2.11487
0.623	8.35876
0.6235	4.73328
0.624	10.77576
0.6245	10.67505
0.625	8.05664
0.6255	0.30212
0.626	8.15735
0.6265	1.00708
0.627	6.04248
0.6275	3.92761
0.628	2.11487
0.6285	2.81982
0.629	-2.21558
0.6295	-1.81274
0.63	-0.90637
0.6305	-1.91345
0.631	-1.40991
0.6315	-4.53186
0.632	-1.61133
0.6325	4.73328
0.633	5.0354
0.6335	11.78284
0.634	6.64673
0.6345	7.04956
0.635	3.32336
0.6355	2.61841
0.636	4.22974
0.6365	6.74744
0.637	2.11487
0.6375	1.3092
0.638	7.15027
0.6385	3.8269
0.639	2.11487
0.6395	5.53894
0.64	3.7262
0.6405	2.21558
0.641	1.2085
0.6415	4.93469
0.642	1.51062
0.6425	3.12195
0.643	6.3446
0.6435	6.74744
0.644	8.66089
0.6445	7.04956
0.645	1.71204
0.6455	8.05664
0.646	6.04248
0.6465	5.84106
0.647	9.86938
0.6475	14.80408
0.648	3.62549
0.6485	10.37292
0.649	4.73328
0.6495	7.65381
0.65	7.95593
0.6505	3.32336
0.651	8.96301
0.6515	12.18567
0.652	4.22974
0.6525	5.0354
0.653	8.56018
0.6535	7.15027
0.654	6.64673
0.6545	6.74744
0.655	7.65381
0.6555	2.71912
0.656	10.37292
0.6565	8.7616
0.657	7.35168
0.6575	11.88354
0.658	11.88354
0.6585	6.84814
0.659	10.0708
0.6595	7.45239
0.66	6.94885
0.6605	0.70496
0.661	9.36584
0.6615	9.16443
0.662	3.7262
0.6625	2.31628
0.663	6.3446
0.6635	-1.00708
0.664	5.94177
0.6645	6.74744
0.665	7.85522
0.6655	1.3092
0.666	7.04956
0.6665	9.66797
0.667	11.17859
0.6675	8.66089
0.668	6.04248
0.6685	8.25806
0.669	7.45239
0.6695	9.46655
0.67	9.36584
0.6705	14.70337
0.671	8.25806
0.6715	7.15027
0.672	4.02832
0.6725	9.97009
0.673	6.84814
0.6735	5.13611
0.674	4.53186
0.6745	7.95593
0.675	6.74744
0.6755	7.75452
0.676	3.8269
0.6765	0.20142
0.677	5.84106
0.6775	1.71204
0.678	-0.30212
0.6785	0.60425
0.679	1.00708
0.6795	1.71204
0.68	2.01416
0.6805	1.3092
0.681	-2.31628
0.6815	-0.60425
0.682	2.21558
0.6825	9.06372
0.683	4.53186
0.6835	2.61841
0.684	4.83398
0.6845	1.40991
0.685	3.22266
0.6855	8.05664
0.686	-0.40283
0.6865	10.27222
0.687	4.02832
0.6875	2.11487
0.688	3.62549
0.6885	7.25098
0.689	2.41699
0.6895	1.51062
0.69	0.90637
0.6905	4.33044
0.691	2.92053
0.6915	5.0354
0.692	4.93469
0.6925	2.61841
0.693	6.54602
0.6935	8.8623
0.694	8.25806
0.6945	2.71912
0.695	3.42407
0.6955	7.95593
0.696	4.43115
0.6965	4.02832
0.697	5.94177
0.6975	5.74036
0.698	3.92761
0.6985	7.65381
0.699	6.64673
0.6995	7.15027
0.7	1.81274
0.7005	4.93469
0.701	5.84106
0.7015	7.04956
0.702	3.62549
0.7025	5.33752
0.703	4.63257
0.7035	4.43115
0.704	8.7616
0.7045	10.27222
0.705	6.54602
0.7055	6.94885
0.706	7.35168
0.7065	11.07788
0.707	10.17151
0.7075	7.25098
0.708	6.04248
0.7085	7.65381
0.709	7.5531
0.7095	3.92761
0.71	1.51062
0.7105	2.61841
0.711	5.33752
0.7115	1.00708
0.712	-1.3092
0.7125	2.21558
0.713	6.44531
0.7135	5.23682
0.714	2.5177
0.7145	-0.20142
0.715	4.02832
0.7155	3.22266
0.716	-0.60425
0.7165	2.71912
0.717	5.53894
0.7175	2.5177
0.718	3.22266
0.7185	10.37292
0.719	7.35168
0.7195	5.53894
0.72	8.8623
0.7205	5.74036
0.721	8.15735
0.7215	9.97009
0.722	6.04248
0.7225	8.96301
0.723	6.94885
0.7235	11.38
0.724	7.45239
0.7245	5.63965
0.725	3.22266
0.7255	9.76868
0.726	12.68921
0.7265	8.8623
0.727	11.98425
0.7275	5.84106
0.728	7.85522
0.7285	5.74036
0.729	2.61841
0.7295	1.40991
0.73	6.2439
0.7305	6.74744
0.731	9.06372
0.7315	5.0354
0.732	0.40283
0.7325	6.44531
0.733	9.86938
0.7335	3.92761
0.734	4.02832
0.7345	6.2439
0.735	5.84106
0.7355	7.04956
0.736	-0.40283
0.7365	6.84814
0.737	13.29346
0.7375	8.96301
0.738	5.74036
0.7385	7.45239
0.739	7.85522
0.7395	3.12195
0.74	9.66797
0.7405	10.57434
0.741	8.15735
0.7415	7.65381
0.742	7.04956
0.7425	8.35876
0.743	8.15735
0.7435	9.06372
0.744	10.0708
0.7445	6.84814
0.745	1.81274
0.7455	1.2085
0.746	9.16443
0.7465	3.7262
0.747	8.15735
0.7475	9.76868
0.748	8.45947
0.7485	7.35168
0.749	11.68213
0.7495	4.83398
0.75	6.84814
0.7505	5.94177
0.751	3.22266
0.7515	4.83398
0.752	2.61841
0.7525	2.21558
0.753	4.93469
0.7535	8.96301
0.754	13.49487
0.7545	8.15735
0.755	6.94885
0.7555	6.2439
0.756	5.23682
0.7565	2.11487
0.757	1.3092
0.7575	-3.22266
0.758	5.63965
0.7585	1.51062
0.759	3.42407
0.7595	4.33044
0.76	4.02832
0.7605	4.43115
0.761	5.33752
0.7615	5.23682
0.762	5.63965
0.7625	3.7262
0.763	10.37292
0.7635	7.35168
0.764	8.25806
0.7645	11.78284
0.765	10.67505
0.7655	9.76868
0.766	8.15735
0.7665	6.04248
0.767	8.15735
0.7675	8.7616
0.768	5.23682
0.7685	13.797
0.769	5.94177
0.7695	8.25806
0.77	5.63965
0.7705	2.5177
0.771	3.42407
0.7715	2.41699
0.772	6.14319
0.7725	7.85522
0.773	2.71912
0.7735	1.3092
0.774	6.94885
0.7745	4.33044
0.775	-2.5177
0.7755	-1.51062
0.776	1.00708
0.7765	0.50354
0.777	4.12903
0.7775	4.33044
0.778	1.3092
0.7785	3.32336
0.779	7.95593
0.7795	7.04956
0.78	3.32336
0.7805	2.31628
0.781	4.43115
0.7815	0.20142
0.782	3.7262
0.7825	6.74744
0.783	8.35876
0.7835	4.63257
0.784	8.45947
0.7845	3.32336
0.785	2.61841
0.7855	2.01416
0.786	4.33044
0.7865	9.86938
0.787	9.86938
0.7875	6.84814
0.788	1.00708
0.7885	3.52478
0.789	6.2439
0.7895	3.92761
0.79	4.43115
0.7905	12.28638
0.791	5.53894
0.7915	13.29346
0.792	5.53894
0.7925	8.96301
0.793	7.65381
0.7935	7.04956
0.794	8.7616
0.7945	8.56018
0.795	8.7616
0.7955	12.68921
0.796	11.58142
0.7965	8.96301
0.797	3.62549
0.7975	3.7262
0.798	10.57434
0.7985	6.14319
0.799	8.05664
0.7995	10.67505
0.8	8.35876
0.8005	9.26514
0.801	7.65381
0.8015	5.43823
0.802	7.95593
0.8025	9.26514
0.803	2.71912
0.8035	6.2439
0.804	6.2439
0.8045	3.7262
0.805	3.8269
0.8055	6.14319
0.806	2.01416
0.8065	5.43823
0.807	4.83398
0.8075	10.17151
0.808	4.12903
0.8085	5.84106
0.809	8.56018
0.8095	4.83398
0.81	4.83398
0.8105	4.63257
0.811	7.04956
0.8115	8.96301
0.812	8.56018
0.8125	8.25806
0.813	4.43115
0.8135	8.56018
0.814	5.84106
0.8145	9.86938
0.815	8.15735
0.8155	5.43823
0.816	5.43823
0.8165	6.44531
0.817	7.45239
0.8175	10.67505
0.818	12.28638
0.8185	7.85522
0.819	7.15027
0.8195	4.33044
0.82	5.33752
0.8205	1.2085
0.821	4.22974
0.8215	3.8269
0.822	-1.3092
0.8225	1.10779
0.823	2.71912
0.8235	2.71912
0.824	7.75452
0.8245	8.7616
0.825	5.0354
0.8255	8.15735
0.826	6.64673
0.8265	0.30212
0.827	-1.71204
0.8275	-1.2085
0.828	-0.10071
0.8285	4.63257
0.829	5.63965
0.8295	1.81274
0.83	7.5531
0.8305	4.53186
0.831	3.62549
0.8315	-3.92761
0.832	2.61841
0.8325	4.22974
0.833	6.94885
0.8335	7.85522
0.834	7.75452
0.8345	6.04248
0.835	6.84814
0.8355	9.16443
0.836	8.8623
0.8365	7.85522
0.837	7.75452
0.8375	6.94885
0.838	8.45947
0.8385	6.2439
0.839	8.15735
0.8395	6.04248
0.84	6.3446
0.8405	3.42407
0.841	2.01416
0.8415	1.81274
0.842	2.5177
0.8425	0.40283
0.843	1.61133
0.8435	7.65381
0.844	0.60425
0.8445	2.01416
0.845	9.26514
0.8455	5.13611
0.846	6.14319
0.8465	4.63257
0.847	6.64673
0.8475	7.85522
0.848	0.60425
0.8485	10.87646
0.849	3.8269
0.8495	9.36584
0.85	10.77576
0.8505	8.05664
0.851	4.43115
0.8515	4.73328
0.852	7.35168
0.8525	4.53186
0.853	6.44531
0.8535	5.84106
0.854	8.66089
0.8545	11.38
0.855	11.2793
0.8555	9.26514
0.856	12.18567
0.8565	5.0354
0.857	1.51062
0.8575	7.75452
0.858	6.94885
0.8585	0.90637
0.859	1.51062
0.8595	3.32336
0.86	-1.71204
0.8605	2.61841
0.861	4.43115
0.8615	8.15735
0.862	3.52478
0.8625	2.21558
0.863	4.12903
0.8635	3.92761
0.864	7.5531
0.8645	4.53186
0.865	5.23682
0.8655	4.93469
0.866	7.04956
0.8665	9.36584
0.867	6.84814
0.8675	2.61841
0.868	5.84106
0.8685	12.18567
0.869	3.52478
0.8695	5.23682
0.87	1.51062
0.8705	6.74744
0.871	3.12195
0.8715	5.74036
0.872	4.73328
0.8725	10.0708
0.873	2.92053
0.8735	0.10071
0.874	6.84814
0.8745	2.41699
0.875	-0.30212
0.8755	1.10779
0.876	4.22974
0.8765	3.22266
0.877	4.93469
0.8775	5.23682
0.878	6.14319
0.8785	8.05664
0.879	9.26514
0.8795	6.44531
0.88	13.09204
0.8805	5.63965
0.881	9.66797
0.8815	9.36584
0.882	1.71204
0.8825	5.43823
0.883	8.05664
0.8835	7.75452
0.884	6.94885
0.8845	11.07788
0.885	7.35168
0.8855	8.25806
0.886	8.05664
0.8865	0.70496
0.887	5.0354
0.8875	5.84106
0.888	7.45239
0.8885	8.45947
0.889	10.47363
0.8895	9.06372
0.89	4.93469
0.8905	8.05664
0.891	8.96301
0.8915	8.05664
0.892	1.10779
0.8925	9.66797
0.893	10.77576
0.8935	10.67505
0.894	10.67505
0.8945	10.17151
0.895	7.25098
0.8955	10.67505
0.896	10.47363
0.8965	11.07788
0.897	11.58142
0.8975	8.7616
0.898	15.1062
0.8985	11.98425
0.899	12.78992
0.8995	9.56726
0.9	10.17151
0.9005	7.15027
0.901	9.66797
0.9015	5.74036
0.902	1.81274
0.9025	2.11487
0.903	3.8269
0.9035	0.30212
0.904	4.22974
0.9045	1.3092
0.905	1.3092
0.9055	-2.71912
0.906	-1.3092
0.9065	-4.93469
0.907	-0.30212
0.9075	-2.21558
0.908	-3.12195
0.9085	1.40991
0.909	-1.10779
0.9095	2.01416
0.91	-3.02124
0.9105	4.33044
0.911	-2.01416
0.9115	2.5177
0.912	-8.25806
0.9125	-3.12195
0.913	2.5177
0.9135	-0.50354
0.914	0.20142
0.9145	2.11487
0.915	-0.70496
0.9155	4.12903
0.916	7.95593
0.9165	1.2085
0.917	-0.30212
0.9175	3.12195
0.918	3.92761
0.9185	3.22266
0.919	5.13611
0.9195	4.63257
0.92	3.22266
0.9205	-0.50354
0.921	7.45239
0.9215	3.92761
0.922	4.73328
0.9225	5.74036
0.923	7.15027
0.9235	4.43115
0.924	3.42407
0.9245	0.90637
0.925	2.61841
0.9255	4.93469
0.926	1.61133
0.9265	1.81274
0.927	-2.01416
0.9275	0.30212
0.928	1.10779
0.9285	2.31628
0.929	7.75452
0.9295	7.75452
0.93	2.41699
0.9305	2.5177
0.931	8.66089
0.9315	8.96301
0.932	3.52478
0.9325	7.95593
0.933	7.85522
0.9335	14.80408
0.934	9.36584
0.9345	11.2793
0.935	8.15735
0.9355	8.45947
0.936	11.07788
0.9365	9.97009
0.937	13.29346
0.9375	12.28638
0.938	12.48779
0.9385	11.2793
0.939	7.04956
0.9395	3.92761
0.94	11.38
0.9405	7.95593
0.941	9.46655
0.9415	11.17859
0.942	5.0354
0.9425	10.0708
0.943	5.53894
0.9435	8.15735
0.944	9.97009
0.9445	7.75452
0.945	10.67505
0.9455	9.76868
0.946	10.47363
0.9465	10.47363
0.947	11.07788
0.9475	7.35168
0.948	14.60266
0.9485	9.66797
0.949	11.58142
0.9495	10.27222
0.95	6.14319
0.9505	9.66797
0.951	9.56726
0.9515	7.85522
0.952	8.7616
0.9525	5.94177
0.953	8.25806
0.9535	7.5531
0.954	8.35876
0.9545	9.86938
0.955	9.06372
0.9555	7.35168
0.956	12.68921
0.9565	6.54602
0.957	7.65381
0.9575	7.45239
0.958	10.47363
0.9585	4.83398
0.959	8.25806
0.9595	3.7262
0.96	2.11487
0.9605	8.45947
0.961	12.28638
0.9615	3.7262
0.962	5.94177
0.9625	8.7616
0.963	6.3446
0.9635	5.74036
0.964	8.35876
0.9645	-0.80566
0.965	-0.60425
0.9655	1.71204
0.966	-0.40283
0.9665	6.2439
0.967	7.65381
0.9675	7.25098
0.968	2.21558
0.9685	4.12903
0.969	8.25806
0.9695	10.47363
0.97	10.17151
0.9705	11.38
0.971	7.15027
0.9715	7.85522
0.972	-0.10071
0.9725	-0.30212
0.973	2.01416
0.9735	3.52478
0.974	3.12195
0.9745	-2.21558
0.975	3.02124
0.9755	-1.61133
0.976	-3.62549
0.9765	4.43115
0.977	2.31628
0.9775	-4.22974
0.978	3.02124
0.9785	4.93469
0.979	3.22266
0.9795	6.74744
0.98	10.97717
0.9805	6.74744
0.981	12.89062
0.9815	8.96301
0.982	6.04248
0.9825	4.83398
0.983	8.35876
0.9835	7.04956
0.984	2.61841
0.9845	8.05664
0.985	9.26514
0.9855	9.26514
0.986	5.23682
0.9865	8.25806
0.987	7.15027
0.9875	1.51062
0.988	5.63965
0.9885	1.71204
0.989	-0.30212
0.9895	5.23682
0.99	7.15027
0.9905	1.40991
0.991	4.12903
0.9915	4.73328
0.992	-1.51062
0.9925	3.52478
0.993	9.76868
0.9935	4.83398
0.994	7.25098
0.9945	6.3446
0.995	0.30212
0.9955	5.13611
0.996	11.38
0.9965	11.48071
0.997	13.69629
0.9975	14.50195
0.998	13.69629
0.9985	10.47363
0.999	10.47363
0.9995	8.66089
1	13.59558
1.0005	7.15027
1.001	7.75452
1.0015	5.43823
1.002	6.04248
1.0025	2.31628
1.003	3.52478
1.0035	5.84106
1.004	6.84814
1.0045	-0.10071
1.005	-2.21558
1.0055	-2.81982
1.006	3.52478
1.0065	8.66089
1.007	9.16443
1.0075	0
1.008	3.42407
1.0085	1.00708
1.009	1.40991
1.0095	1.81274
1.01	4.43115
1.0105	2.11487
1.011	1.2085
1.0115	6.64673
1.012	5.13611
1.0125	8.35876
1.013	5.94177
1.0135	4.22974
1.014	3.32336
1.0145	5.33752
1.015	5.63965
1.0155	5.33752
1.016	7.45239
1.0165	3.8269
1.017	6.2439
1.0175	2.01416
1.018	0.80566
1.0185	4.12903
1.019	0.80566
1.0195	1.61133
1.02	9.46655
1.0205	6.04248
1.021	5.63965
1.0215	8.7616
1.022	8.8623
1.0225	8.7616
1.023	5.84106
1.0235	6.2439
1.024	2.71912
1.0245	7.15027
1.025	5.13611
1.0255	10.67505
1.026	9.26514
1.0265	10.57434
1.027	5.0354
1.0275	10.67505
1.028	5.23682
1.0285	10.67505
1.029	4.83398
1.0295	7.35168
1.03	4.12903
1.0305	2.61841
1.031	4.12903
1.0315	12.38708
1.032	4.02832
1.0325	6.64673
1.033	9.86938
1.0335	7.35168
1.034	1.91345
1.0345	4.83398
1.035	8.66089
1.0355	4.73328
1.036	2.21558
1.0365	5.74036
1.037	4.22974
1.0375	6.3446
1.038	5.63965
1.0385	2.61841
1.039	5.0354
1.0395	3.92761
1.04	6.2439
1.0405	3.22266
1.041	9.97009
1.0415	7.65381
1.042	1.91345
1.0425	1.61133
1.043	6.64673
1.0435	8.15735
1.044	7.25098
1.0445	8.15735
1.045	9.16443
1.0455	4.22974
1.046	3.12195
1.0465	6.94885
1.047	7.45239
1.0475	6.84814
1.048	3.8269
1.0485	2.21558
1.049	6.04248
1.0495	5.84106
1.05	0.60425
1.0505	8.05664
1.051	6.2439
1.0515	6.04248
1.052	9.56726
1.0525	9.97009
1.053	10.77576
1.0535	9.36584
1.054	8.96301
1.0545	7.5531
1.055	8.05664
1.0555	7.5531
1.056	8.7616
1.0565	6.64673
1.057	3.22266
1.0575	8.05664
1.058	4.12903
1.0585	1.81274
1.059	1.40991
1.0595	2.41699
1.06	3.92761
1.0605	7.04956
1.061	6.64673
1.0615	-3.02124
1.062	-3.62549
1.0625	6.54602
1.063	5.53894
1.0635	3.22266
1.064	3.62549
1.0645	1.51062
1.065	5.13611
1.0655	5.94177
1.066	8.66089
1.0665	7.15027
1.067	8.66089
1.0675	2.31628
1.068	4.83398
1.0685	3.92761
1.069	2.81982
1.0695	6.2439
1.07	7.35168
1.0705	5.53894
1.071	11.07788
1.0715	6.54602
1.072	3.12195
1.0725	4.22974
1.073	6.04248
1.0735	8.96301
1.074	3.32336
1.0745	10.27222
1.075	5.13611
1.0755	4.63257
1.076	5.33752
1.0765	6.2439
1.077	10.67505
1.0775	-0.30212
1.078	2.11487
1.0785	0.10071
1.079	7.5531
1.0795	6.94885
1.08	10.0708
1.0805	7.25098
1.081	9.66797
1.0815	9.56726
1.082	9.66797
1.0825	5.63965
1.083	6.44531
1.0835	-2.71912
1.084	4.12903
1.0845	4.22974
1.085	9.46655
1.0855	9.06372
1.086	7.04956
1.0865	7.15027
1.087	3.7262
1.0875	5.53894
1.088	6.74744
1.0885	7.15027
1.089	7.5531
1.0895	0.50354
1.09	5.53894
1.0905	7.25098
1.091	5.33752
1.0915	4.73328
1.092	5.13611
1.0925	9.46655
1.093	8.45947
1.0935	9.26514
1.094	6.94885
1.0945	6.2439
1.095	6.2439
1.0955	5.63965
1.096	9.46655
1.0965	7.65381
1.097	3.92761
1.0975	8.56018
1.098	9.46655
1.0985	9.36584
1.099	4.73328
1.0995	5.84106
1.1	4.83398
1.1005	8.45947
1.101	9.36584
1.1015	12.48779
1.102	7.75452
1.1025	10.27222
1.103	9.16443
1.1035	12.28638
1.104	11.48071
1.1045	11.68213
1.105	9.06372
1.1055	8.25806
1.106	10.27222
1.1065	11.17859
1.107	4.93469
1.1075	0.30212
1.108	5.63965
1.1085	4.33044
1.109	5.43823
1.1095	2.92053
1.11	5.43823
1.1105	5.33752
1.111	5.33752
1.1115	-1.00708
1.112	2.31628
1.1125	2.21558
1.113	-3.52478
1.1135	0.40283
1.114	-0.40283
1.1145	6.14319
1.115	2.92053
1.1155	2.61841
1.116	0.60425
1.1165	4.53186
1.117	8.56018
1.1175	3.62549
1.118	7.04956
1.1185	2.92053
1.119	2.81982
1.1195	6.3446
1.12	4.43115
1.1205	1.2085
1.121	2.21558
1.1215	6.64673
1.122	7.5531
1.1225	7.85522
1.123	3.92761
1.1235	1.2085
1.124	-3.7262
1.1245	8.15735
1.125	3.92761
1.1255	3.32336
1.126	4.73328
1.1265	6.04248
1.127	7.35168
1.1275	4.53186
1.128	8.56018
1.1285	4.12903
1.129	3.8269
1.1295	0.80566
1.13	7.85522
1.1305	-0.30212
1.131	2.5177
1.1315	5.74036
1.132	7.35168
1.1325	7.15027
1.133	1.61133
1.1335	7.65381
1.134	4.93469
1.1345	7.45239
1.135	8.45947
1.1355	11.98425
1.136	6.3446
1.1365	0.50354
1.137	5.43823
1.1375	5.53894
1.138	7.95593
1.1385	7.25098
1.139	6.54602
1.1395	5.33752
1.14	4.63257
1.1405	5.53894
1.141	7.04956
1.1415	-1.3092
1.142	7.85522
1.1425	11.07788
1.143	4.83398
1.1435	5.94177
1.144	2.71912
1.1445	6.3446
1.145	0.30212
1.1455	7.5531
1.146	5.74036
1.1465	2.41699
1.147	3.32336
1.1475	7.95593
1.148	7.75452
1.1485	7.25098
1.149	3.12195
1.1495	3.8269
1.15	8.7616
1.1505	5.63965
1.151	6.2439
1.1515	8.15735
1.152	1.00708
1.1525	7.65381
1.153	8.7616
1.1535	4.63257
1.154	3.7262
1.1545	-1.51062
1.155	2.5177
1.1555	7.85522
1.156	8.8623
1.1565	0.10071
1.157	12.18567
1.1575	11.88354
1.158	0
1.1585	8.15735
1.159	4.22974
1.1595	8.7616
1.16	2.11487
1.1605	5.23682
1.161	3.8269
1.1615	4.43115
1.162	2.01416
1.1625	4.02832
1.163	3.7262
1.1635	10.0708
1.164	6.64673
1.1645	9.06372
1.165	9.56726
1.1655	7.25098
1.166	6.94885
1.1665	4.43115
1.167	6.54602
1.1675	9.16443
1.168	2.92053
1.1685	9.26514
1.169	3.42407
1.1695	6.64673
1.17	2.41699
1.1705	6.44531
1.171	9.36584
1.1715	7.85522
1.172	7.35168
1.1725	8.56018
1.173	7.5531
1.1735	5.74036
1.174	4.02832
1.1745	4.33044
1.175	1.81274
1.1755	5.74036
1.176	4.12903
1.1765	7.15027
1.177	0.20142
1.1775	4.43115
1.178	6.64673
1.1785	10.17151
1.179	9.97009
1.1795	7.85522
1.18	7.25098
1.1805	2.11487
1.181	1.61133
1.1815	-0.10071
1.182	-0.60425
1.1825	3.52478
1.183	2.81982
1.1835	5.0354
1.184	7.15027
1.1845	5.43823
1.185	3.62549
1.1855	3.32336
1.186	6.94885
1.1865	5.84106
1.187	7.25098
1.1875	3.22266
1.188	3.8269
1.1885	0.70496
1.189	4.53186
1.1895	7.85522
1.19	6.04248
1.1905	5.84106
1.191	2.5177
1.1915	7.95593
1.192	8.15735
1.1925	4.73328
1.193	5.0354
1.1935	5.43823
1.194	1.81274
1.1945	4.53186
1.195	8.25806
1.1955	5.23682
1.196	7.25098
1.1965	1.3092
1.197	3.92761
1.1975	8.45947
1.198	7.75452
1.1985	4.12903
1.199	6.3446
1.1995	8.35876
1.2	6.04248
1.2005	8.05664
1.201	4.22974
1.2015	7.04956
1.202	4.22974
1.2025	5.33752
1.203	5.84106
1.2035	7.25098
1.204	2.01416
1.2045	6.64673
1.205	10.67505
1.2055	9.46655
1.206	2.81982
1.2065	4.83398
1.207	4.63257
1.2075	2.21558
1.208	1.51062
1.2085	2.11487
1.209	3.92761
1.2095	5.43823
1.21	2.92053
1.2105	6.74744
1.211	5.63965
1.2115	5.94177
1.212	5.33752
1.2125	5.43823
1.213	4.53186
1.2135	2.5177
1.214	-1.00708
1.2145	3.02124
1.215	2.11487
1.2155	7.5531
1.216	10.17151
1.2165	9.06372
1.217	8.56018
1.2175	7.45239
1.218	11.58142
1.2185	12.99133
1.219	5.53894
1.2195	12.38708
1.22	4.43115
1.2205	5.0354
1.221	7.15027
1.2215	7.95593
1.222	2.11487
1.2225	6.44531
1.223	9.66797
1.2235	6.64673
1.224	4.53186
1.2245	5.84106
1.225	8.15735
1.2255	4.83398
1.226	2.21558
1.2265	0.80566
1.227	-0.60425
1.2275	-2.81982
1.228	-1.3092
1.2285	0.80566
1.229	0.30212
1.2295	2.41699
1.23	3.7262
1.2305	7.45239
1.231	-0.10071
1.2315	4.22974
1.232	3.62549
1.2325	7.5531
1.233	7.85522
1.2335	7.35168
1.234	4.73328
1.2345	3.22266
1.235	4.93469
1.2355	6.3446
1.236	7.25098
1.2365	-0.70496
1.237	3.12195
1.2375	3.7262
1.238	5.84106
1.2385	4.43115
1.239	2.21558
1.2395	-1.00708
1.24	2.21558
1.2405	7.35168
1.241	-0.30212
1.2415	3.92761
1.242	6.3446
1.2425	7.15027
1.243	1.81274
1.2435	3.32336
1.244	8.35876
1.2445	11.17859
1.245	7.35168
1.2455	5.23682
1.246	7.25098
1.2465	3.8269
1.247	6.44531
1.2475	3.42407
1.248	7.85522
1.2485	-0.20142
1.249	9.76868
1.2495	4.93469
1.25	4.02832
1.2505	8.96301
1.251	12.38708
1.2515	9.66797
1.252	8.05664
1.2525	7.85522
1.253	11.78284
1.2535	5.94177
1.254	5.84106
1.2545	6.94885
1.255	8.96301
1.2555	6.54602
1.256	8.45947
1.2565	14.60266
1.257	3.62549
1.2575	9.16443
1.258	1.10779
1.2585	3.12195
1.259	7.04956
1.2595	4.83398
1.26	6.2439
1.2605	3.8269
1.261	4.73328
1.2615	7.65381
1.262	2.81982
1.2625	5.63965
1.263	0.20142
1.2635	-1.10779
1.264	2.61841
1.2645	-1.40991
1.265	-2.21558
1.2655	3.7262
1.266	9.56726
1.2665	6.64673
1.267	2.5177
1.2675	3.02124
1.268	7.95593
1.2685	5.0354
1.269	4.73328
1.2695	5.84106
1.27	2.71912
1.2705	5.43823
1.271	5.0354
1.2715	12.38708
1.272	9.76868
1.2725	11.68213
1.273	7.95593
1.2735	2.11487
1.274	3.62549
1.2745	7.35168
1.275	9.36584
1.2755	9.86938
1.276	4.43115
1.2765	7.25098
1.277	6.64673
1.2775	2.81982
1.278	6.74744
1.2785	6.84814
1.279	6.04248
1.2795	0.70496
1.28	2.01416
1.2805	5.53894
1.281	8.8623
1.2815	2.31628
1.282	-1.10779
1.2825	3.7262
1.283	-1.00708
1.2835	2.01416
1.284	6.74744
1.2845	5.43823
1.285	3.22266
1.2855	5.74036
1.286	-0.60425
1.2865	5.84106
1.287	6.84814
1.2875	5.63965
1.288	9.46655
1.2885	11.48071
1.289	4.43115
1.2895	5.13611
1.29	9.06372
1.2905	8.05664
1.291	8.05664
1.2915	8.96301
1.292	1.2085
1.2925	4.83398
1.293	4.12903
1.2935	9.86938
1.294	6.94885
1.2945	5.84106
1.295	3.12195
1.2955	6.04248
1.296	1.71204
1.2965	0.30212
1.297	3.22266
1.2975	6.14319
1.298	9.36584
1.2985	4.53186
1.299	3.22266
1.2995	9.16443
1.3	11.38
1.3005	7.35168
1.301	9.97009
1.3015	4.02832
1.302	6.64673
1.3025	7.65381
1.303	7.25098
1.3035	1.51062
1.304	4.53186
1.3045	5.53894
1.305	3.8269
1.3055	6.54602
1.306	3.92761
1.3065	5.0354
1.307	3.02124
1.3075	1.71204
1.308	10.47363
1.3085	7.25098
1.309	2.71912
1.3095	4.63257
1.31	11.2793
1.3105	3.42407
1.311	12.28638
1.3115	8.8623
1.312	13.09204
1.3125	8.15735
1.313	8.35876
1.3135	14.19983
1.314	7.04956
1.3145	11.38
1.315	13.89771
1.3155	7.65381
1.316	8.56018
1.3165	6.74744
1.317	7.45239
1.3175	10.67505
1.318	11.98425
1.3185	2.61841
1.319	6.54602
1.3195	4.63257
1.32	3.62549
1.3205	7.85522
1.321	2.41699
1.3215	0.60425
1.322	3.92761
1.3225	3.12195
1.323	0.10071
1.3235	2.01416
1.324	1.2085
1.3245	1.40991
1.325	3.8269
1.3255	2.21558
1.326	0
1.3265	5.33752
1.327	1.81274
1.3275	-1.2085
1.328	-1.71204
1.3285	-0.50354
1.329	-8.05664
1.3295	0.70496
1.33	0.90637
1.3305	3.62549
1.331	0.90637
1.3315	4.12903
1.332	3.62549
1.3325	5.84106
1.333	4.22974
1.3335	8.15735
1.334	4.12903
1.3345	3.42407
1.335	6.84814
1.3355	2.81982
1.336	7.75452
1.3365	4.22974
1.337	9.16443
1.3375	10.37292
1.338	11.38
1.3385	4.22974
1.339	4.53186
1.3395	4.02832
1.34	7.45239
1.3405	4.53186
1.341	2.61841
1.3415	8.15735
1.342	2.61841
1.3425	9.16443
1.343	3.8269
1.3435	9.16443
1.344	3.32336
1.3445	4.22974
1.345	12.48779
1.3455	9.36584
1.346	6.64673
1.3465	9.56726
1.347	9.16443
1.3475	6.3446
1.348	4.83398
1.3485	0.20142
1.349	9.36584
1.3495	2.21558
1.35	5.0354
1.3505	6.04248
1.351	0.70496
1.3515	3.02124
1.352	4.93469
1.3525	5.84106
1.353	7.85522
1.3535	0.60425
1.354	7.85522
1.3545	8.15735
1.355	6.64673
1.3555	7.04956
1.356	7.85522
1.3565	4.33044
1.357	5.53894
1.3575	4.63257
1.358	3.7262
1.3585	-0.60425
1.359	5.33752
1.3595	3.8269
1.36	2.61841
1.3605	0.90637
1.361	9.66797
1.3615	9.46655
1.362	7.5531
1.3625	10.47363
1.363	6.2439
1.3635	8.96301
1.364	8.05664
1.3645	5.53894
1.365	8.56018
1.3655	10.77576
1.366	13.99841
1.3665	11.78284
1.367	11.17859
1.3675	7.15027
1.368	5.63965
1.3685	4.53186
1.369	0.10071
1.3695	5.33752
1.37	5.23682
1.3705	5.0354
1.371	7.75452
1.3715	7.65381
1.372	2.5177
1.3725	8.66089
1.373	6.3446
1.3735	10.47363
1.374	9.06372
1.3745	6.2439
1.375	3.7262
1.3755	3.12195
1.376	1.81274
1.3765	-1.61133
1.377	0.50354
1.3775	7.25098
1.378	6.3446
1.3785	4.93469
1.379	-0.70496
1.3795	4.02832
1.38	1.81274
1.3805	6.3446
1.381	11.78284
1.3815	5.94177
1.382	6.3446
1.3825	-2.01416
1.383	2.71912
1.3835	1.00708
1.384	3.32336
1.3845	2.21558
1.385	5.13611
1.3855	4.12903
1.386	4.93469
1.3865	5.63965
1.387	6.2439
1.3875	1.91345
1.388	8.7616
1.3885	2.01416
1.389	7.5531
1.3895	8.56018
1.39	11.2793
1.3905	3.32336
1.391	12.78992
1.3915	10.27222
1.392	9.76868
1.3925	14.09912
1.393	11.98425
1.3935	11.98425
1.394	16.41541
1.3945	11.07788
1.395	6.54602
1.3955	9.06372
1.396	9.56726
1.3965	10.17151
1.397	7.85522
1.3975	9.46655
1.398	10.0708
1.3985	7.5531
1.399	6.74744
1.3995	0.30212
1.4	9.26514
1.4005	2.01416
1.401	2.81982
1.4015	3.62549
1.402	1.71204
1.4025	-6.14319
1.403	-0.10071
1.4035	6.64673
1.404	-2.21558
1.4045	1.81274
1.405	-5.23682
1.4055	4.33044
1.406	4.73328
1.4065	-1.2085
1.407	5.23682
1.4075	4.22974
1.408	4.63257
1.4085	6.94885
1.409	9.97009
1.4095	8.45947
1.41	10.67505
1.4105	7.35168
1.411	6.04248
1.4115	4.33044
1.412	-0.50354
1.4125	6.2439
1.413	2.81982
1.4135	8.8623
1.414	8.25806
1.4145	12.48779
1.415	6.44531
1.4155	9.46655
1.416	9.66797
1.4165	11.48071
1.417	3.92761
1.4175	3.32336
1.418	6.14319
1.4185	10.57434
1.419	12.68921
1.4195	9.76868
1.42	1.2085
1.4205	-0.70496
1.421	0.20142
1.4215	-0.90637
1.422	-3.8269
1.4225	-1.91345
1.423	5.23682
1.4235	0.60425
1.424	-1.2085
1.4245	0.20142
1.425	0.50354
1.4255	5.43823
1.426	-2.61841
1.4265	-0.10071
1.427	3.92761
1.4275	9.56726
1.428	5.23682
1.4285	2.71912
1.429	3.12195
1.4295	7.04956
1.43	5.63965
1.4305	3.12195
1.431	-1.81274
1.4315	5.13611
1.432	1.40991
1.4325	6.04248
1.433	1.3092
1.4335	3.8269
1.434	3.32336
1.4345	8.35876
1.435	4.33044
1.4355	4.73328
1.436	7.25098
1.4365	9.86938
1.437	3.8269
1.4375	-2.11487
1.438	6.14319
1.4385	3.7262
1.439	8.56018
1.4395	7.45239
1.44	3.02124
1.4405	9.06372
1.441	9.76868
1.4415	13.89771
1.442	14.09912
1.4425	20.74585
1.443	11.2793
1.4435	9.97009
1.444	13.99841
1.4445	11.78284
1.445	16.81824
1.4455	13.89771
1.446	6.94885
1.4465	4.33044
1.447	12.18567
1.4475	13.39417
1.448	10.47363
1.4485	15.81116
1.449	8.7616
1.4495	8.35876
1.45	9.97009
1.4505	8.15735
1.451	8.35876
1.4515	6.54602
1.452	2.11487
1.4525	1.51062
1.453	3.92761
1.4535	7.5531
1.454	6.04248
1.4545	2.92053
1.455	5.0354
1.4555	-0.30212
1.456	-3.22266
1.4565	0.60425
1.457	-1.40991
1.4575	-1.40991
1.458	-3.12195
1.4585	-2.61841
1.459	2.5177
1.4595	2.11487
1.46	-2.92053
1.4605	1.10779
1.461	-2.71912
1.4615	5.33752
1.462	4.43115
1.4625	-3.8269
1.463	-3.32336
1.4635	3.32336
1.464	4.33044
1.4645	1.10779
1.465	1.10779
1.4655	1.61133
1.466	5.84106
1.4665	6.74744
1.467	13.797
1.4675	17.72461
1.468	11.2793
1.4685	12.48779
1.469	12.08496
1.4695	9.06372
1.47	15.20691
1.4705	11.2793
1.471	13.69629
1.4715	13.49487
1.472	7.45239
1.4725	6.2439
1.473	6.94885
1.4735	4.83398
1.474	7.45239
1.4745	4.22974
1.475	3.7262
1.4755	4.73328
1.476	3.62549
1.4765	4.53186
1.477	6.44531
1.4775	3.52478
1.478	-3.32336
1.4785	-2.01416
1.479	-3.8269
1.4795	5.33752
1.48	-4.83398
1.4805	-4.22974
1.481	-9.56726
1.4815	-7.95593
1.482	-7.25098
1.4825	-6.94885
1.483	-8.66089
1.4835	-9.86938
1.484	-4.22974
1.4845	0.90637
1.485	3.22266
1.4855	4.63257
1.486	1.3092
1.4865	5.0354
1.487	12.38708
1.4875	12.28638
1.488	13.49487
1.4885	13.29346
1.489	12.18567
1.4895	5.53894
1.49	2.5177
1.4905	1.51062
1.491	0.30212
1.4915	0.70496
1.492	-0.40283
1.4925	-1.71204
1.493	-4.63257
1.4935	-2.71912
1.494	5.84106
1.4945	5.63965
1.495	4.02832
1.4955	8.05664
1.496	4.63257
1.4965	1.61133
1.497	8.66089
1.4975	6.74744
1.498	6.44531
1.4985	6.14319
1.499	5.63965
1.4995	7.25098
1.5	9.06372
1.5005	4.12903
1.501	11.2793
1.5015	8.05664
1.502	4.12903
1.5025	4.93469
1.503	9.26514
1.5035	11.88354
1.504	7.5531
1.5045	11.07788
1.505	8.05664
1.5055	1.3092
1.506	5.84106
1.5065	7.5531
1.507	8.8623
1.5075	8.96301
1.508	8.05664
1.5085	7.75452
1.509	3.92761
1.5095	3.52478
1.51	5.23682
1.5105	10.27222
1.511	4.43115
1.5115	5.43823
1.512	5.33752
1.5125	10.17151
1.513	7.04956
1.5135	11.2793
1.514	13.09204
1.5145	10.97717
1.515	14.40125
1.5155	8.45947
1.516	13.797
1.5165	13.39417
1.517	13.99841
1.5175	10.67505
1.518	12.38708
1.5185	12.78992
1.519	9.66797
1.5195	13.89771
1.52	12.5885
1.5205	12.5885
1.521	15.50903
1.5215	11.2793
1.522	9.97009
1.5225	3.42407
1.523	8.7616
1.5235	-0.50354
1.524	-4.73328
1.5245	0.70496
1.525	-6.64673
1.5255	-5.33752
1.526	2.41699
1.5265	-0.80566
1.527	-0.30212
1.5275	-2.81982
1.528	-2.5177
1.5285	1.91345
1.529	0
1.5295	1.00708
1.53	2.31628
1.5305	-0.90637
1.531	5.63965
1.5315	6.44531
1.532	4.33044
1.5325	8.25806
1.533	4.22974
1.5335	2.31628
1.534	7.65381
1.5345	7.35168
1.535	6.3446
1.5355	8.66089
1.536	6.04248
1.5365	6.3446
1.537	5.23682
1.5375	10.97717
1.538	5.94177
1.5385	7.85522
1.539	13.09204
1.5395	10.57434
1.54	7.35168
1.5405	11.78284
1.541	13.89771
1.5415	11.17859
1.542	9.16443
1.5425	10.27222
1.543	10.27222
1.5435	9.26514
1.544	9.56726
1.5445	12.68921
1.545	15.20691
1.5455	8.8623
1.546	12.38708
1.5465	12.78992
1.547	17.42249
1.5475	14.40125
1.548	12.48779
1.5485	12.68921
1.549	15.71045
1.5495	9.26514
1.55	12.28638
1.5505	16.3147
1.551	9.46655
1.5515	7.45239
1.552	-0.80566
1.5525	2.31628
1.553	2.5177
1.5535	-3.8269
1.554	0.20142
1.5545	-0.10071
1.555	0.10071
1.5555	-4.73328
1.556	-3.92761
1.5565	-6.54602
1.557	-5.63965
1.5575	-4.43115
1.558	-4.83398
1.5585	-0.70496
1.559	-0.20142
1.5595	-0.40283
1.56	-2.61841
1.5605	4.33044
1.561	3.32336
1.5615	5.23682
1.562	8.15735
1.5625	9.46655
1.563	6.44531
1.5635	8.25806
1.564	9.76868
1.5645	8.15735
1.565	8.96301
1.5655	10.17151
1.566	11.68213
1.5665	8.56018
1.567	10.77576
1.5675	11.38
1.568	14.50195
1.5685	15.91187
1.569	9.36584
1.5695	11.48071
1.57	4.63257
1.5705	11.17859
1.571	8.8623
1.5715	2.71912
1.572	0.90637
1.5725	4.33044
1.573	4.43115
1.5735	1.40991
1.574	3.92761
1.5745	4.73328
1.575	2.01416
1.5755	3.62549
1.576	4.53186
1.5765	2.11487
1.577	6.84814
1.5775	1.10779
1.578	-1.40991
1.5785	-2.61841
1.579	-4.12903
1.5795	0.80566
1.58	-3.62549
1.5805	-1.71204
1.581	0.70496
1.5815	0
1.582	2.61841
1.5825	4.43115
1.583	6.64673
1.5835	5.0354
1.584	9.26514
1.5845	7.65381
1.585	4.33044
1.5855	0.50354
1.586	4.73328
1.5865	4.22974
1.587	1.40991
1.5875	1.10779
1.588	5.53894
1.5885	4.43115
1.589	2.5177
1.5895	2.71912
1.59	5.33752
1.5905	1.40991
1.591	3.12195
1.5915	6.94885
1.592	8.96301
1.5925	4.22974
1.593	8.05664
1.5935	7.65381
1.594	5.63965
1.5945	8.8623
1.595	4.02832
1.5955	8.05664
1.596	4.63257
1.5965	5.74036
1.597	7.35168
1.5975	9.36584
1.598	3.42407
1.5985	12.48779
1.599	9.66797
1.5995	5.63965
1.6	8.25806
1.6005	9.56726
1.601	9.46655
1.6015	-0.50354
1.602	2.21558
1.6025	7.15027
1.603	8.96301
1.6035	8.05664
1.604	4.93469
1.6045	8.96301
1.605	10.67505
1.6055	9.56726
1.606	7.04956
1.6065	10.0708
1.607	9.56726
1.6075	4.43115
1.608	13.99841
1.6085	6.04248
1.609	9.56726
1.6095	9.97009
1.61	7.75452
1.6105	9.36584
1.611	8.35876
1.6115	8.05664
1.612	7.15027
1.6125	7.35168
1.613	10.27222
1.6135	6.14319
1.614	9.16443
1.6145	12.5885
1.615	14.50195
1.6155	5.13611
1.616	7.04956
1.6165	6.3446
1.617	0.10071
1.6175	3.02124
1.618	0.70496
1.6185	-3.32336
1.619	2.21558
1.6195	2.92053
1.62	-2.5177
1.6205	1.61133
1.621	-4.12903
1.6215	-1.2085
1.622	-2.81982
1.6225	1.40991
1.623	5.0354
1.6235	1.61133
1.624	6.94885
1.6245	8.45947
1.625	3.62549
1.6255	3.42407
1.626	-0.20142
1.6265	1.91345
1.627	4.63257
1.6275	0.40283
1.628	-2.71912
1.6285	1.61133
1.629	3.42407
1.6295	2.31628
1.63	5.13611
1.6305	1.71204
1.631	7.25098
1.6315	8.35876
1.632	5.74036
1.6325	6.64673
1.633	1.10779
1.6335	-3.02124
1.634	7.04956
1.6345	5.43823
1.635	6.14319
1.6355	1.81274
1.636	1.61133
1.6365	4.12903
1.637	6.54602
1.6375	4.53186
1.638	8.96301
1.6385	5.74036
1.639	6.3446
1.6395	9.06372
1.64	4.02832
1.6405	7.45239
1.641	5.0354
1.6415	5.74036
1.642	-3.8269
1.6425	1.51062
1.643	4.73328
1.6435	3.52478
1.644	0.90637
1.6445	7.95593
1.645	8.96301
1.6455	6.64673
1.646	5.84106
1.6465	4.73328
1.647	9.76868
1.6475	2.11487
1.648	1.3092
1.6485	8.15735
1.649	5.94177
1.6495	4.43115
1.65	7.04956
1.6505	10.27222
1.651	10.57434
1.6515	11.38
1.652	9.56726
1.6525	7.15027
1.653	10.67505
1.6535	10.37292
1.654	5.33752
1.6545	5.53894
1.655	2.61841
1.6555	2.81982
1.656	6.04248
1.6565	4.53186
1.657	4.22974
1.6575	3.12195
1.658	6.64673
1.6585	-1.91345
1.659	2.81982
1.6595	1.71204
1.66	0.60425
1.6605	1.3092
1.661	1.3092
1.6615	1.40991
1.662	0
1.6625	4.53186
1.663	1.40991
1.6635	2.11487
1.664	3.22266
1.6645	4.02832
1.665	3.22266
1.6655	2.21558
1.666	4.83398
1.6665	9.56726
1.667	7.95593
1.6675	1.71204
1.668	4.43115
1.6685	3.42407
1.669	5.33752
1.6695	4.53186
1.67	4.73328
1.6705	7.75452
1.671	4.63257
1.6715	1.10779
1.672	-2.5177
1.6725	4.22974
1.673	0
1.6735	5.13611
1.674	-2.01416
1.6745	-2.01416
1.675	4.43115
1.6755	-0.20142
1.676	0.70496
1.6765	1.51062
1.677	3.52478
1.6775	1.10779
1.678	5.43823
1.6785	5.84106
1.679	6.84814
1.6795	5.23682
1.68	7.45239
1.6805	2.92053
1.681	3.32336
1.6815	7.15027
1.682	2.92053
1.6825	2.5177
1.683	10.67505
1.6835	10.17151
1.684	11.07788
1.6845	6.04248
1.685	4.83398
1.6855	5.84106
1.686	10.0708
1.6865	7.85522
1.687	10.57434
1.6875	12.08496
1.688	10.97717
1.6885	6.74744
1.689	4.22974
1.6895	4.53186
1.69	3.22266
1.6905	8.05664
1.691	9.56726
1.6915	5.33752
1.692	8.05664
1.6925	10.97717
1.693	4.93469
1.6935	10.27222
1.694	8.8623
1.6945	7.95593
1.695	12.99133
1.6955	5.74036
1.696	3.62549
1.6965	6.3446
1.697	0.10071
1.6975	4.93469
1.698	3.52478
1.6985	7.04956
1.699	8.15735
1.6995	7.5531
1.7	2.71912
1.7005	2.92053
1.701	1.10779
1.7015	8.15735
1.702	6.3446
1.7025	3.02124
1.703	-0.60425
1.7035	-5.0354
1.704	-3.7262
1.7045	4.53186
1.705	4.22974
1.7055	1.2085
1.706	-3.12195
1.7065	-0.40283
1.707	-0.60425
1.7075	3.42407
1.708	4.12903
1.7085	6.3446
1.709	5.53894
1.7095	6.54602
1.71	6.3446
1.7105	5.84106
1.711	4.63257
1.7115	2.11487
1.712	1.71204
1.7125	-2.31628
1.713	-2.61841
1.7135	3.22266
1.714	5.53894
1.7145	6.74744
1.715	10.17151
1.7155	8.45947
1.716	0.20142
1.7165	0.90637
1.717	5.23682
1.7175	3.52478
1.718	6.3446
1.7185	9.97009
1.719	2.81982
1.7195	8.35876
1.72	6.44531
1.7205	6.74744
1.721	7.5531
1.7215	8.8623
1.722	5.13611
1.7225	8.66089
1.723	9.76868
1.7235	10.47363
1.724	8.15735
1.7245	7.04956
1.725	9.36584
1.7255	8.7616
1.726	9.06372
1.7265	5.94177
1.727	3.8269
1.7275	13.49487
1.728	6.84814
1.7285	9.36584
1.729	9.86938
1.7295	8.8623
1.73	9.36584
1.7305	10.37292
1.731	6.3446
1.7315	4.12903
1.732	5.33752
1.7325	7.35168
1.733	8.7616
1.7335	6.44531
1.734	11.48071
1.7345	8.7616
1.735	13.29346
1.7355	6.3446
1.736	4.02832
1.7365	1.2085
1.737	2.71912
1.7375	0.10071
1.738	1.3092
1.7385	-0.50354
1.739	-2.92053
1.7395	-4.73328
1.74	-1.2085
1.7405	-1.2085
1.741	-2.61841
1.7415	4.63257
1.742	-3.52478
1.7425	0.50354
1.743	2.71912
1.7435	17.82532
1.744	14.80408
1.7445	6.94885
1.745	3.92761
1.7455	2.31628
1.746	5.74036
1.7465	0.70496
1.747	0.50354
1.7475	-0.60425
1.748	4.53186
1.7485	4.02832
1.749	4.33044
1.7495	3.92761
1.75	2.81982
1.7505	6.3446
1.751	6.2439
1.7515	10.0708
1.752	5.43823
1.7525	7.45239
1.753	5.0354
1.7535	10.97717
1.754	2.92053
1.7545	11.48071
1.755	8.05664
1.7555	9.86938
1.756	11.78284
1.7565	9.36584
1.757	6.44531
1.7575	4.93469
1.758	5.43823
1.7585	8.66089
1.759	7.35168
1.7595	0.90637
1.76	2.31628
1.7605	12.38708
1.761	15.40833
1.7615	8.35876
1.762	2.11487
1.7625	2.01416
1.763	4.73328
1.7635	5.0354
1.764	3.7262
1.7645	1.81274
1.765	1.00708
1.7655	3.92761
1.766	2.21558
1.7665	-4.93469
1.767	0
1.7675	-4.53186
1.768	-6.14319
1.7685	-2.81982
1.769	0.50354
1.7695	0.70496
1.77	-2.21558
1.7705	-0.90637
1.771	1.40991
1.7715	1.3092
1.772	-6.04248
1.7725	-12.99133
1.773	-18.12744
1.7735	-24.87488
1.774	-18.02673
1.7745	-17.01965
1.775	-20.74585
1.7755	-18.02673
1.776	-18.93311
1.7765	-14.80408
1.777	-9.06372
1.7775	-8.56018
1.778	-8.45947
1.7785	-7.5531
1.779	-1.3092
1.7795	2.71912
1.78	4.93469
1.7805	11.07788
1.781	12.18567
1.7815	12.28638
1.782	14.09912
1.7825	17.92603
1.783	19.63806
1.7835	15.50903
1.784	17.6239
1.7845	14.40125
1.785	16.71753
1.7855	21.24939
1.786	19.83948
1.7865	27.49329
1.787	20.44373
1.7875	20.84656
1.788	20.74585
1.7885	16.41541
1.789	11.2793
1.7895	0.80566
1.79	-2.71912
1.7905	-4.43115
1.791	-5.53894
1.7915	-14.19983
1.792	-19.43665
1.7925	-10.87646
1.793	-1.2085
1.7935	2.41699
1.794	-0.20142
1.7945	-2.21558
1.795	-2.01416
1.7955	-1.40991
1.796	5.33752
1.7965	6.74744
1.797	2.21558
1.7975	8.05664
1.798	12.28638
1.7985	10.87646
1.799	10.17151
1.7995	19.94019
1.8	20.44373
1.8005	15.40833
1.801	14.60266
1.8015	10.87646
1.802	20.64514
1.8025	22.45789
1.803	14.40125
1.8035	11.2793
1.804	10.97717
1.8045	12.08496
1.805	9.56726
1.8055	10.27222
1.806	12.68921
1.8065	15.40833
1.807	15.91187
1.8075	15.40833
1.808	21.65222
1.8085	30.2124
1.809	39.37683
1.8095	30.11169
1.81	30.81665
1.8105	27.39258
1.811	26.18408
1.8115	20.54443
1.812	16.61682
1.8125	13.29346
1.813	17.92603
1.8135	21.3501
1.814	11.78284
1.8145	12.78992
1.815	9.97009
1.8155	15.60974
1.816	8.05664
1.8165	9.36584
1.817	10.57434
1.8175	2.31628
1.818	11.68213
1.8185	7.25098
1.819	14.40125
1.8195	6.04248
1.82	4.53186
1.8205	5.74036
1.821	7.75452
1.8215	4.33044
1.822	-0.90637
1.8225	0.50354
1.823	3.22266
1.8235	1.00708
1.824	7.95593
1.8245	3.12195
1.825	0.90637
1.8255	3.52478
1.826	2.01416
1.8265	1.3092
1.827	4.93469
1.8275	2.31628
1.828	1.40991
1.8285	4.83398
1.829	-1.2085
1.8295	2.11487
1.83	-2.71912
1.8305	-1.61133
1.831	-2.31628
1.8315	-2.71912
1.832	-0.40283
1.8325	3.02124
1.833	5.0354
1.8335	0.10071
1.834	2.41699
1.8345	4.12903
1.835	8.45947
1.8355	7.95593
1.836	2.01416
1.8365	10.0708
1.837	7.15027
1.8375	9.16443
1.838	3.12195
1.8385	7.04956
1.839	10.47363
1.8395	7.65381
1.84	8.96301
1.8405	-0.20142
1.841	4.83398
1.8415	8.7616
1.842	9.97009
1.8425	8.05664
1.843	6.2439
1.8435	8.8623
1.844	4.73328
1.8445	0.60425
1.845	0.90637
1.8455	0.50354
1.846	4.83398
1.8465	0.70496
1.847	-0.80566
1.8475	-0.20142
1.848	-1.81274
1.8485	0.30212
1.849	1.91345
1.8495	4.83398
1.85	1.81274
1.8505	-2.41699
1.851	0.80566
1.8515	1.91345
1.852	5.0354
1.8525	4.12903
1.853	7.04956
1.8535	10.37292
1.854	9.86938
1.8545	9.86938
1.855	5.84106
1.8555	9.46655
1.856	9.76868
1.8565	13.99841
1.857	13.29346
1.8575	8.35876
1.858	4.43115
1.8585	5.94177
1.859	10.97717
1.8595	1.3092
1.86	-0.10071
1.8605	5.23682
1.861	4.12903
1.8615	1.3092
1.862	1.81274
1.8625	4.73328
1.863	5.23682
1.8635	2.5177
1.864	6.44531
1.8645	5.43823
1.865	4.83398
1.8655	-1.2085
1.866	3.42407
1.8665	7.45239
1.867	7.95593
1.8675	7.5531
1.868	5.33752
1.8685	14.19983
1.869	10.37292
1.8695	8.96301
1.87	10.77576
1.8705	7.75452
1.871	10.37292
1.8715	10.0708
1.872	12.18567
1.8725	16.71753
1.873	13.09204
1.8735	9.06372
1.874	11.48071
1.8745	6.74744
1.875	2.81982
1.8755	3.52478
1.876	-2.21558
1.8765	-7.15027
1.877	-10.57434
1.8775	-19.83948
1.878	-25.88196
1.8785	-29.80957
1.879	-44.71436
1.8795	-47.63489
1.88	-65.66162
1.8805	-98.79456
1.881	-152.47192
1.8815	-187.51831
1.882	-199.09973
1.8825	-179.15955
1.883	-155.59387
1.8835	-125.07935
1.884	-96.7804
1.8845	-68.58215
1.885	-39.47754
1.8855	0
1.886	25.98267
1.8865	45.41931
1.887	62.74109
1.8875	73.51685
1.888	92.75208
1.8885	99.60022
1.889	94.66553
1.8895	93.0542
1.89	82.68127
1.8905	77.34375
1.891	67.97791
1.8915	73.41614
1.892	69.99207
1.8925	70.29419
1.893	74.32251
1.8935	82.58057
1.894	92.85278
1.8945	102.31934
1.895	108.66394
1.8955	100.50659
1.896	85.5011
1.8965	71.80481
1.897	52.56958
1.8975	37.96692
1.898	34.64355
1.8985	26.18408
1.899	22.35718
1.8995	19.83948
1.9	17.92603
1.9005	18.93311
1.901	18.73169
1.9015	18.12744
1.902	21.04797
1.9025	18.93311
1.903	18.73169
1.9035	16.21399
1.904	13.89771
1.9045	11.58142
1.905	10.67505
1.9055	10.57434
1.906	16.41541
1.9065	11.68213
1.907	5.0354
1.9075	7.95593
1.908	7.35168
1.9085	8.96301
1.909	17.52319
1.9095	12.99133
1.91	11.07788
1.9105	11.48071
1.911	7.5531
1.9115	6.04248
1.912	9.56726
1.9125	3.8269
1.913	12.99133
1.9135	9.76868
1.914	6.04248
1.9145	1.40991
1.915	9.66797
1.9155	3.32336
1.916	2.31628
1.9165	3.02124
1.917	3.32336
1.9175	8.25806
1.918	9.36584
1.9185	10.27222
1.919	8.15735
1.9195	8.66089
1.92	4.93469
1.9205	4.73328
1.921	2.71912
1.9215	-0.70496
1.922	-3.52478
1.9225	-1.3092
1.923	-1.10779
1.9235	-2.41699
1.924	-10.87646
1.9245	-15.1062
1.925	-16.21399
1.9255	-5.13611
1.926	-3.92761
1.9265	-4.02832
1.927	1.00708
1.9275	6.44531
1.928	7.04956
1.9285	8.7616
1.929	9.56726
1.9295	11.48071
1.93	10.77576
1.9305	15.40833
1.931	16.01257
1.9315	18.32886
1.932	16.51611
1.9325	14.80408
1.933	13.39417
1.9335	14.19983
1.934	6.44531
1.9345	4.43115
1.935	5.43823
1.9355	1.81274
1.936	-2.41699
1.9365	-7.35168
1.937	-13.29346
1.9375	-11.07788
1.938	-3.22266
1.9385	-1.61133
1.939	2.31628
1.9395	6.3446
1.94	3.12195
1.9405	-3.92761
1.941	3.42407
1.9415	2.92053
1.942	-2.21558
1.9425	-7.45239
1.943	-3.22266
1.9435	-8.66089
1.944	-5.74036
1.9445	-3.7262
1.945	-2.21558
1.9455	-5.0354
1.946	1.2085
1.9465	-3.62549
1.947	-5.23682
1.9475	-1.61133
1.948	-9.86938
1.9485	-7.95593
1.949	-13.29346
1.9495	-13.89771
1.95	-11.68213
1.9505	-6.54602
1.951	1.61133
1.9515	8.56018
1.952	7.35168
1.9525	8.35876
1.953	5.13611
1.9535	13.19275
1.954	6.94885
1.9545	10.87646
1.955	13.19275
1.9555	13.69629
1.956	7.35168
1.9565	8.05664
1.957	9.06372
1.9575	5.23682
1.958	6.64673
1.9585	1.10779
1.959	6.14319
1.9595	5.63965
1.96	0.90637
1.9605	-0.40283
1.961	0
1.9615	8.7616
1.962	9.26514
1.9625	5.94177
1.963	4.53186
1.9635	7.85522
1.964	5.84106
1.9645	5.43823
1.965	7.75452
1.9655	9.46655
1.966	6.14319
1.9665	9.16443
1.967	7.15027
1.9675	7.75452
1.968	3.02124
1.9685	5.63965
1.969	3.32336
1.9695	7.75452
1.97	10.27222
1.9705	10.17151
1.971	8.96301
1.9715	12.08496
1.972	9.76868
1.9725	15.50903
1.973	14.80408
1.9735	12.89062
1.974	12.89062
1.9745	14.30054
1.975	12.89062
1.9755	15.91187
1.976	9.16443
1.9765	5.33752
1.977	7.35168
1.9775	2.81982
1.978	8.8623
1.9785	6.94885
1.979	1.81274
1.9795	6.3446
1.98	2.11487
1.9805	9.36584
1.981	6.54602
1.9815	8.56018
1.982	5.13611
1.9825	11.2793
1.983	8.66089
1.9835	9.56726
1.984	11.78284
1.9845	7.85522
1.985	7.15027
1.9855	9.56726
1.986	5.84106
1.9865	5.63965
1.987	5.63965
1.9875	4.63257
1.988	0.70496
1.9885	1.51062
1.989	4.12903
1.9895	2.21558
1.99	5.63965
1.9905	5.94177
1.991	4.22974
1.9915	-1.3092
1.992	0.40283
1.9925	1.2085
1.993	-24.27063
1.9935	-53.37524
1.994	-77.14233
1.9945	-82.68127
1.995	-80.16357
1.9955	-74.92676
1.996	-65.56091
1.9965	-61.93542
1.997	-44.41223
1.9975	-27.89612
1.998	-5.94177
1.9985	3.62549
1.999	19.53735
1.9995	30.81665
2	38.16833
2.0005	46.02356
2.001	43.40515
2.0015	38.16833
2.002	24.06921
2.0025	9.76868
2.003	-9.56726
2.0035	-24.57275
2.004	-29.10461
2.0045	-28.9032
2.005	-26.18408
2.0055	-7.85522
2.006	12.18567
2.0065	23.56567
2.007	23.8678
2.0075	27.79541
2.008	21.24939
2.0085	13.99841
2.009	-6.14319
2.0095	-11.68213
2.01	6.74744
2.0105	11.98425
2.011	20.94727
2.0115	22.76001
2.012	30.51453
2.0125	30.51453
2.013	33.73718
2.0135	44.71436
2.014	37.66479
2.0145	7.45239
2.015	-0.50354
2.0155	5.0354
2.016	21.95435
2.0165	31.62231
2.017	35.44922
2.0175	30.31311
2.018	36.55701
2.0185	37.66479
2.019	38.57117
2.0195	40.38391
2.02	38.67188
2.0205	42.49878
2.021	43.90869
2.0215	45.01648
2.022	36.35559
2.0225	23.96851
2.023	16.3147
2.0235	16.11328
2.024	14.70337
2.0245	16.61682
2.025	17.72461
2.0255	21.24939
2.026	29.00391
2.0265	21.55151
2.027	15.81116
2.0275	4.63257
2.028	-1.51062
2.0285	-10.17151
2.029	-6.2439
2.0295	-14.40125
2.03	-16.81824
2.0305	-15.40833
2.031	1.81274
2.0315	0.90637
2.032	4.33044
2.0325	19.73877
2.033	19.23523
2.0335	23.36426
2.034	25.88196
2.0345	25.27771
2.035	30.11169
2.0355	24.37134
2.036	18.8324
2.0365	20.94727
2.037	17.6239
2.0375	8.45947
2.038	8.35876
2.0385	3.02124
2.039	3.02124
2.0395	4.83398
2.04	0.10071
2.0405	0.80566
2.041	-8.7616
2.0415	-16.41541
2.042	-28.29895
2.0425	-40.48462
2.043	-40.2832
2.0435	-44.41223
2.044	-49.0448
2.0445	-55.99365
2.045	-74.02039
2.0455	-79.55933
2.046	-66.06445
2.0465	-50.55542
2.047	-38.87329
2.0475	-17.12036
2.048	-2.71912
2.0485	10.0708
2.049	23.76709
2.0495	34.54285
2.05	39.67896
2.0505	45.11719
2.051	46.22498
2.0515	52.8717
2.052	55.18799
2.0525	69.08569
2.053	73.51685
2.0535	69.08569
2.054	71.20056
2.0545	72.61047
2.055	50.15259
2.0555	6.04248
2.056	-15.00549
2.0565	-39.37683
2.057	-47.8363
2.0575	-79.2572
2.058	-133.63953
2.0585	-163.14697
2.059	-202.72522
2.0595	-228.70789
2.06	-225.18311
2.0605	-194.87
2.061	-161.63635
2.0615	-117.02271
2.062	-92.55066
2.0625	-69.58923
2.063	-47.7356
2.0635	-22.15576
2.064	-10.47363
2.0645	-2.41699
2.065	8.8623
2.0655	-4.73328
2.066	-43.50586
2.0665	-91.04004
2.067	-125.98572
2.0675	-130.51758
2.068	-101.61438
2.0685	-54.98657
2.069	-3.52478
2.0695	37.96692
2.07	84.39331
2.0705	129.81262
2.071	178.65601
2.0715	205.54504
2.072	218.8385
2.0725	233.03833
2.073	251.16577
2.0735	259.52454
2.074	239.88647
2.0745	215.41443
2.075	187.01477
2.0755	167.98096
2.076	149.45068
2.0765	131.32324
2.077	104.13208
2.0775	84.49402
2.078	59.31702
2.0785	41.39099
2.079	27.19116
2.0795	20.44373
2.08	6.44531
2.0805	2.92053
2.081	-0.60425
2.0815	12.18567
2.082	18.42957
2.0825	26.3855
2.083	40.38391
2.0835	51.36108
2.084	54.98657
2.0845	67.67578
2.085	70.3949
2.0855	58.71277
2.086	58.10852
2.0865	49.0448
2.087	36.25488
2.0875	21.45081
2.088	19.03381
2.0885	19.13452
2.089	12.48779
2.0895	9.97009
2.09	1.61133
2.0905	5.94177
2.091	5.53894
2.0915	10.27222
2.092	5.33752
2.0925	-2.11487
2.093	-3.02124
2.0935	-5.53894
2.094	-4.83398
2.0945	1.61133
2.095	0.60425
2.0955	-3.52478
2.096	1.61133
2.0965	1.81274
2.097	2.01416
2.0975	-0.90637
2.098	-2.41699
2.0985	1.2085
2.099	3.22266
2.0995	3.52478
2.1	0
2.1005	-9.06372
2.101	-23.26355
2.1015	-28.9032
2.102	-47.8363
2.1025	-65.86304
2.103	-73.61755
2.1035	-79.15649
2.104	-71.09985
2.1045	-63.44604
2.105	-46.82922
2.1055	-36.95984
2.106	-25.177
2.1065	-20.54443
2.107	-7.35168
2.1075	8.96301
2.108	21.95435
2.1085	25.07629
2.109	28.29895
2.1095	21.85364
2.11	21.85364
2.1105	19.73877
2.111	19.63806
2.1115	13.09204
2.112	8.35876
2.1125	15.81116
2.113	7.25098
2.1135	-17.01965
2.114	-44.31152
2.1145	-87.61597
2.115	-146.12732
2.1155	-177.64893
2.116	-179.8645
2.1165	-163.5498
2.117	-136.56006
2.1175	-102.62146
2.118	-76.94092
2.1185	-46.72852
2.119	-14.40125
2.1195	26.58691
2.12	59.21631
2.1205	72.30835
2.121	79.35791
2.1215	85.70251
2.122	95.67261
2.1225	93.0542
2.123	86.8103
2.1235	83.38623
2.124	79.15649
2.1245	65.46021
2.125	53.87878
2.1255	42.59949
2.126	59.71985
2.1265	83.08411
2.127	91.745
2.1275	36.4563
2.128	-21.3501
2.1285	-55.08728
2.129	-121.05103
2.1295	-197.08557
2.13	-240.89355
2.1305	-232.33337
2.131	-208.26416
2.1315	-181.77795
2.132	-185.10132
2.1325	-212.69531
2.133	-191.44592
2.1335	-135.75439
2.134	-66.97083
2.1345	11.38
2.135	50.45471
2.1355	62.8418
2.136	54.58374
2.1365	54.68445
2.137	79.35791
2.1375	90.43579
2.138	100.50659
2.1385	107.85828
2.139	116.11633
2.1395	139.68201
2.14	168.08167
2.1405	191.04309
2.141	172.41211
2.1415	156.60095
2.142	131.02112
2.1425	102.62146
2.143	90.93933
2.1435	76.23596
2.144	72.00623
2.1445	74.2218
2.145	73.81897
2.1455	75.22888
2.146	72.81189
2.1465	79.66003
2.147	85.29968
2.1475	78.65295
2.148	32.62939
2.1485	19.73877
2.149	12.08496
2.1495	-7.04956
2.15	-15.71045
2.1505	-25.47913
2.151	-39.67896
2.1515	-51.5625
2.152	-35.85205
2.1525	-6.94885
2.153	27.89612
2.1535	41.4917
2.154	46.62781
2.1545	63.04321
2.155	77.04163
2.1555	87.11243
2.156	91.94641
2.1565	83.78906
2.157	70.3949
2.1575	70.79773
2.158	72.81189
2.1585	78.85437
2.159	96.47827
2.1595	108.26111
2.16	101.21155
2.1605	100.20447
2.161	82.68127
2.1615	69.1864
2.162	52.771
2.1625	51.86462
2.163	50.354
2.1635	39.88037
2.164	32.42798
2.1645	24.57275
2.165	25.27771
2.1655	30.31311
2.166	26.58691
2.1665	25.37842
2.167	19.83948
2.1675	-1.91345
2.168	-12.48779
2.1685	-30.51453
2.169	-47.8363
2.1695	-60.52551
2.17	-65.25879
2.1705	-67.57507
2.171	-61.53259
2.1715	-72.50977
2.172	-115.00854
2.1725	-158.5144
2.173	-202.22168
2.1735	-218.8385
2.174	-210.58044
2.1745	-187.4176
2.175	-157.70874
2.1755	-116.72058
2.176	-82.68127
2.1765	-60.52551
2.177	-37.56409
2.1775	-9.97009
2.178	21.65222
2.1785	47.8363
2.179	68.68286
2.1795	91.94641
2.18	108.56323
2.1805	114.505
2.181	98.89526
2.1815	99.70093
2.182	102.42004
2.1825	106.24695
2.183	103.62854
2.1835	106.54907
2.184	109.87244
2.1845	111.58447
2.185	121.55457
2.1855	117.12341
2.186	113.09509
2.1865	90.13367
2.187	60.02197
2.1875	14.40125
2.188	-39.57825
2.1885	-63.84888
2.189	-77.34375
2.1895	-81.06995
2.19	-81.27136
2.1905	-71.50269
2.191	-55.89294
2.1915	-36.65771
2.192	-20.84656
2.1925	-3.22266
2.193	6.54602
2.1935	9.76868
2.194	-8.35876
2.1945	-18.32886
2.195	-43.90869
2.1955	-75.22888
2.196	-134.24377
2.1965	-190.84167
2.197	-243.81409
2.1975	-258.71887
2.198	-246.02966
2.1985	-225.28381
2.199	-190.43884
2.1995	-143.71033
2.2	-90.43579
2.2005	-49.0448
2.201	-9.46655
2.2015	23.36426
2.202	58.51135
2.2025	89.73083
2.203	133.3374
2.2035	151.36414
2.204	143.71033
2.2045	139.27917
2.205	144.21387
2.2055	126.89209
2.206	134.24377
2.2065	161.0321
2.207	203.83301
2.2075	191.04309
2.208	157.80945
2.2085	130.41687
2.209	114.90784
2.2095	64.55383
2.21	34.03931
2.2105	25.37842
2.211	29.80957
2.2115	19.43665
2.212	-7.5531
2.2125	-21.45081
2.213	-22.96143
2.2135	-25.57983
2.214	-12.78992
2.2145	-1.81274
2.215	14.60266
2.2155	33.83789
2.216	50.85754
2.2165	61.02905
2.217	62.53967
2.2175	67.47437
2.218	61.43188
2.2185	58.10852
2.219	21.04797
2.2195	-29.70886
2.22	-52.56958
2.2205	-93.35632
2.221	-133.53882
2.2215	-146.22803
2.222	-133.23669
2.2225	-102.21863
2.223	-86.10535
2.2235	-80.4657
2.224	-57.70569
2.2245	-30.61523
2.225	-8.35876
2.2255	11.98425
2.226	44.21082
2.2265	76.03455
2.227	96.8811
2.2275	100.50659
2.228	98.59314
2.2285	100.80872
2.229	99.2981
2.2295	103.52783
2.23	117.32483
2.2305	117.12341
2.231	105.34058
2.2315	73.51685
2.232	46.62781
2.2325	19.83948
2.233	-0.10071
2.2335	-11.58142
2.234	-11.17859
2.2345	-16.81824
2.235	-19.63806
2.2355	-29.00391
2.236	-39.57825
2.2365	-36.25488
2.237	-32.12585
2.2375	-32.93152
2.238	-54.28162
2.2385	-82.68127
2.239	-91.745
2.2395	-87.71667
2.24	-75.53101
2.2405	-61.6333
2.241	-37.16125
2.2415	-4.63257
2.242	32.02515
2.2425	59.71985
2.243	57.9071
2.2435	63.24463
2.244	65.46021
2.2445	67.17224
2.245	66.46729
2.2455	59.1156
2.246	62.03613
2.2465	56.39648
2.247	55.2887
2.2475	43.40515
2.248	28.50037
2.2485	23.56567
2.249	29.10461
2.2495	30.81665
2.25	19.53735
2.2505	1.71204
2.251	-10.17151
2.2515	-10.87646
2.252	-7.15027
2.2525	-12.28638
2.253	-9.97009
2.2535	0.40283
2.254	2.5177
2.2545	-1.3092
2.255	-6.2439
2.2555	-8.35876
2.256	-17.42249
2.2565	-14.50195
2.257	-11.68213
2.2575	-8.66089
2.258	-2.71912
2.2585	-2.11487
2.259	-18.32886
2.2595	-51.86462
2.26	-59.01489
2.2605	-69.08569
2.261	-64.55383
2.2615	-71.80481
2.262	-86.60889
2.2625	-87.61597
2.263	-86.8103
2.2635	-78.85437
2.264	-77.74658
2.2645	-58.20923
2.265	-47.03064
2.2655	-29.30603
2.266	-24.87488
2.2665	-15.30762
2.267	-24.67346
2.2675	-44.91577
2.268	-104.93774
2.2685	-163.75122
2.269	-177.14539
2.2695	-153.27759
2.27	-113.90076
2.2705	-70.3949
2.271	-24.77417
2.2715	21.45081
2.272	67.27295
2.2725	90.33508
2.273	94.3634
2.2735	75.83313
2.274	65.86304
2.2745	59.92126
2.275	63.74817
2.2755	59.01489
2.276	58.00781
2.2765	54.98657
2.277	49.54834
2.2775	57.00073
2.278	73.51685
2.2785	85.19897
2.279	89.02588
2.2795	87.31384
2.28	75.83313
2.2805	61.12976
2.281	48.33984
2.2815	52.06604
2.282	53.57666
2.2825	70.99915
2.283	90.43579
2.2835	107.55615
2.284	120.34607
2.2845	124.27368
2.285	116.21704
2.2855	87.41455
2.286	50.65613
2.2865	20.64514
2.287	-24.87488
2.2875	-63.54675
2.288	-103.125
2.2885	-107.75757
2.289	-86.70959
2.2895	-62.33826
2.29	-50.75684
2.2905	-34.54285
2.291	-19.13452
2.2915	-3.8269
2.292	7.75452
2.2925	19.43665
2.293	27.19116
2.2935	33.23364
2.294	40.68604
2.2945	38.06763
2.295	33.9386
2.2955	28.39966
2.296	40.88745
2.2965	47.13135
2.297	44.71436
2.2975	44.91577
2.298	61.93542
2.2985	81.37207
2.299	80.36499
2.2995	69.99207
2.3	50.45471
2.3005	27.79541
2.301	14.09912
2.3015	1.40991
2.302	-7.25098
2.3025	-23.36426
2.303	-55.2887
2.3035	-81.37207
2.304	-97.58606
2.3045	-105.13916
2.305	-102.82288
2.3055	-88.52234
2.306	-71.80481
2.3065	-61.6333
2.307	-42.7002
2.3075	-27.6947
2.308	-21.14868
2.3085	-53.77808
2.309	-79.2572
2.3095	-84.89685
2.31	-80.86853
2.3105	-63.84888
2.311	-48.03772
2.3115	-22.55859
2.312	-0.60425
2.3125	34.94568
2.313	63.74817
2.3135	72.30835
2.314	77.44446
2.3145	74.72534
2.315	69.38782
2.3155	64.45312
2.316	66.46729
2.3165	71.7041
2.317	58.71277
2.3175	41.08887
2.318	34.34143
2.3185	33.9386
2.319	20.74585
2.3195	12.08496
2.32	5.84106
2.3205	-15.40833
2.321	-43.80798
2.3215	-57.10144
2.322	-62.03613
2.3225	-54.88586
2.323	-46.42639
2.3235	-38.77258
2.324	-29.40674
2.3245	-22.35718
2.325	-2.01416
2.3255	37.46338
2.326	82.37915
2.3265	94.16199
2.327	97.88818
2.3275	103.82996
2.328	111.8866
2.3285	101.71509
2.329	77.54517
2.3295	56.5979
2.33	41.4917
2.3305	24.77417
2.331	2.01416
2.3315	-6.04248
2.332	-16.91895
2.3325	-20.94727
2.333	-33.43506
2.3335	-36.35559
2.334	-38.26904
2.3345	-37.26196
2.335	-33.63647
2.3355	-48.44055
2.336	-69.38782
2.3365	-98.99597
2.337	-132.0282
2.3375	-149.75281
2.338	-145.32166
2.3385	-134.44519
2.339	-122.25952
2.3395	-96.67969
2.34	-70.29419
2.3405	-58.61206
2.341	-85.80322
2.3415	-151.46484
2.342	-194.76929
2.3425	-209.77478
2.343	-229.41284
2.3435	-208.7677
2.344	-158.71582
2.3445	-84.89685
2.345	-26.28479
2.3455	35.85205
2.346	104.83704
2.3465	170.19653
2.347	206.95496
2.3475	218.23425
2.348	188.42468
2.3485	141.49475
2.349	118.13049
2.3495	121.05103
2.35	142.099
2.3505	162.2406
2.351	177.64893
2.3515	178.25317
2.352	173.41919
2.3525	170.19653
2.353	173.62061
2.3535	164.35547
2.354	149.95422
2.3545	130.92041
2.355	102.31934
2.3555	82.37915
2.356	70.29419
2.3565	56.39648
2.357	42.39807
2.3575	13.99841
2.358	-11.17859
2.3585	-22.45789
2.359	-20.64514
2.3595	-22.55859
2.36	-22.96143
2.3605	-25.68054
2.361	-24.77417
2.3615	-21.75293
2.362	-23.66638
2.3625	-17.01965
2.363	-11.78284
2.3635	-14.50195
2.364	-64.35242
2.3645	-126.58997
2.365	-175.53406
2.3655	-189.9353
2.366	-171.30432
2.3665	-132.33032
2.367	-89.22729
2.3675	-74.72534
2.368	-66.87012
2.3685	-45.11719
2.369	-10.37292
2.3695	13.49487
2.37	11.98425
2.3705	29.20532
2.371	37.26196
2.3715	42.29736
2.372	36.05347
2.3725	34.84497
2.373	38.47046
2.3735	46.02356
2.374	57.20215
2.3745	73.81897
2.375	77.84729
2.3755	58.20923
2.376	3.02124
2.3765	-27.79541
2.377	-44.31152
2.3775	-58.81348
2.378	-79.76074
2.3785	-101.21155
2.379	-98.69385
2.3795	-79.05579
2.38	-41.4917
2.3805	25.47913
2.381	88.42163
2.3815	56.19507
2.382	-17.32178
2.3825	-54.18091
2.383	-66.46729
2.3835	-75.32959
2.384	-66.06445
2.3845	-68.78357
2.385	-55.3894
2.3855	-30.91736
2.386	-28.50037
2.3865	-13.39417
2.387	11.38
2.3875	32.42798
2.388	38.67188
2.3885	24.16992
2.389	8.05664
2.3895	6.84814
2.39	27.89612
2.3905	36.25488
2.391	39.98108
2.3915	10.77576
2.392	-13.29346
2.3925	-2.61841
2.393	5.0354
2.3935	18.02673
2.394	43.90869
2.3945	54.0802
2.395	40.38391
2.3955	23.46497
2.396	25.07629
2.3965	30.01099
2.397	47.53418
2.3975	59.61914
2.398	77.54517
2.3985	86.8103
2.399	101.9165
2.3995	110.98022
2.4	108.1604
2.4005	98.39172
2.401	100.00305
2.4015	112.79297
2.402	144.91882
2.4025	160.32715
2.403	151.06201
2.4035	128.40271
2.404	94.16199
2.4045	53.57666
2.405	15.00549
2.4055	-4.02832
2.406	-7.85522
2.4065	-8.8623
2.407	-18.53027
2.4075	-25.37842
2.408	-22.76001
2.4085	-32.22656
2.409	-34.54285
2.4095	-25.88196
2.41	-22.86072
2.4105	-25.27771
2.411	-18.8324
2.4115	-22.45789
2.412	-55.18799
2.4125	-59.31702
2.413	-60.4248
2.4135	-40.58533
2.414	-26.18408
2.4145	-26.78833
2.415	-26.28479
2.4155	-17.82532
2.416	-13.99841
2.4165	-20.94727
2.417	-54.28162
2.4175	-81.7749
2.418	-94.06128
2.4185	-95.26978
2.419	-84.59473
2.4195	-65.96375
2.42	-44.61365
2.4205	-21.85364
2.421	3.42407
2.4215	40.88745
2.422	68.98499
2.4225	90.5365
2.423	80.56641
2.4235	61.23047
2.424	32.12585
2.4245	-3.22266
2.425	-50.65613
2.4255	-76.63879
2.426	-83.48694
2.4265	-78.55225
2.427	-103.42712
2.4275	-125.07935
2.428	-109.26819
2.4285	-85.70251
2.429	-88.52234
2.4295	-95.26978
2.43	-113.80005
2.4305	-110.87952
2.431	-114.90784
2.4315	-143.20679
2.432	-149.45068
2.4325	-120.44678
2.433	-111.78589
2.4335	-109.26819
2.434	-90.63721
2.4345	-45.3186
2.435	17.72461
2.4355	49.95117
2.436	72.71118
2.4365	110.98022
2.437	155.9967
2.4375	194.16504
2.438	195.37354
2.4385	165.36255
2.439	126.28784
2.4395	139.98413
2.44	163.75122
2.4405	169.08875
2.441	150.55847
2.4415	122.05811
2.442	100.30518
2.4425	96.07544
2.443	71.7041
2.4435	35.65063
2.444	-12.5885
2.4445	-47.43347
2.445	-81.57349
2.4455	-109.97314
2.446	-108.1604
2.4465	-138.87634
2.447	-174.42627
2.4475	-184.39636
2.448	-209.06982
2.4485	-222.46399
2.449	-183.69141
2.4495	-114.505
2.45	-22.45789
2.4505	38.87329
2.451	62.64038
2.4515	80.26428
2.452	90.83862
2.4525	112.49084
2.453	135.15015
2.4535	159.7229
2.454	181.27441
2.4545	191.34521
2.455	197.89124
2.4555	206.75354
2.456	223.26965
2.4565	246.63391
2.457	232.23267
2.4575	192.25159
2.458	136.25793
2.4585	93.65845
2.459	50.15259
2.4595	12.99133
2.46	-5.74036
2.4605	-29.40674
2.461	-80.06287
2.4615	-162.2406
2.462	-234.44824
2.4625	-252.97852
2.463	-247.13745
2.4635	-224.78027
2.464	-188.92822
2.4645	-134.5459
2.465	-80.86853
2.4655	-58.00781
2.466	-22.76001
2.4665	1.3092
2.467	20.04089
2.4675	44.41223
2.468	73.31543
2.4685	112.39014
2.469	151.26343
2.4695	168.68591
2.47	166.0675
2.4705	165.86609
2.471	183.5907
2.4715	208.86841
2.472	203.83301
2.4725	152.1698
2.473	81.57349
2.4735	20.94727
2.474	-43.60657
2.4745	-70.79773
2.475	-84.99756
2.4755	-84.79614
2.476	-67.17224
2.4765	-53.77808
2.477	-42.8009
2.4775	-40.38391
2.478	-24.16992
2.4785	-10.67505
2.479	-2.71912
2.4795	1.10779
2.48	11.2793
2.4805	11.68213
2.481	14.50195
2.4815	15.30762
2.482	3.32336
2.4825	15.50903
2.483	40.08179
2.4835	58.30994
2.484	45.41931
2.4845	45.82214
2.485	50.05188
2.4855	18.8324
2.486	-22.76001
2.4865	-115.91492
2.487	-229.41284
2.4875	-313.30261
2.488	-397.59521
2.4885	-446.03577
2.489	-446.4386
2.4895	-411.89575
2.49	-364.16016
2.4905	-303.63464
2.491	-235.1532
2.4915	-173.01636
2.492	-103.22571
2.4925	-22.05505
2.493	35.75134
2.4935	30.71594
2.494	21.85364
2.4945	28.19824
2.495	73.11401
2.4955	143.3075
2.496	196.48132
2.4965	246.4325
2.497	264.96277
2.4975	273.82507
2.498	276.94702
2.4985	283.19092
2.499	272.31445
2.4995	249.45374
2.5	231.72913
2.5005	209.87549
2.501	141.19263
2.5015	54.88586
2.502	-33.53577
2.5025	-68.48145
2.503	-72.81189
2.5035	-70.79773
2.504	-70.19348
2.5045	-47.33276
2.505	-13.797
2.5055	6.3446
2.506	21.85364
2.5065	38.06763
2.507	46.72852
2.5075	0.90637
2.508	-39.17542
2.5085	-47.7356
2.509	-49.34692
2.5095	-49.14551
2.51	-30.01099
2.5105	-27.29187
2.511	-36.4563
2.5115	-33.43506
2.512	-23.56567
2.5125	-52.8717
2.513	-59.21631
2.5135	-35.65063
2.514	-52.16675
2.5145	-71.50269
2.515	-88.92517
2.5155	-90.33508
2.516	-60.72693
2.5165	-34.54285
2.517	7.85522
2.5175	41.99524
2.518	42.19666
2.5185	51.66321
2.519	52.771
2.5195	0.50354
2.52	-22.55859
2.5205	-23.46497
2.521	-2.61841
2.5215	59.41772
2.522	97.38464
2.5225	101.61438
2.523	106.04553
2.5235	157.70874
2.524	225.0824
2.5245	254.18701
2.525	252.7771
2.5255	247.03674
2.526	214.70947
2.5265	176.64185
2.527	139.27917
2.5275	111.8866
2.528	78.55225
2.5285	51.05896
2.529	12.68921
2.5295	-56.90002
2.53	-119.03687
2.5305	-141.49475
2.531	-174.02344
2.5315	-232.73621
2.532	-279.46472
2.5325	-304.13818
2.533	-295.578
2.5335	-254.58984
2.534	-198.89832
2.5345	-126.9928
2.535	-59.41772
2.5355	25.47913
2.536	80.4657
2.5365	83.88977
2.537	69.68994
2.5375	51.26038
2.538	31.01807
2.5385	14.19983
2.539	-5.74036
2.5395	-21.65222
2.54	-23.56567
2.5405	-31.21948
2.541	-16.21399
2.5415	-2.41699
2.542	29.80957
2.5425	67.77649
2.543	107.95898
2.5435	128.90625
2.544	78.85437
2.5445	28.09753
2.545	4.63257
2.5455	23.56567
2.546	61.93542
2.5465	109.26819
2.547	112.49084
2.5475	100.30518
2.548	121.65527
2.5485	170.59937
2.549	200.10681
2.5495	198.09265
2.55	168.78662
2.5505	168.68591
2.551	166.67175
2.5515	155.69458
2.552	137.46643
2.5525	132.93457
2.553	121.15173
2.5535	103.02429
2.554	76.94092
2.5545	80.36499
2.555	78.04871
2.5555	52.771
2.556	9.76868
2.5565	-47.33276
2.557	-84.99756
2.5575	-125.7843
2.558	-248.44666
2.5585	-433.54797
2.559	-671.521
2.5595	-864.47754
2.56	-893.28003
2.5605	-812.21008
2.561	-678.06702
2.5615	-505.35278
2.562	-317.83447
2.5625	-140.08484
2.563	11.78284
2.5635	148.84644
2.564	261.94153
2.5645	346.93909
2.565	421.96655
2.5655	475.24109
2.566	512.60376
2.5665	515.02075
2.567	511.69739
2.5675	524.89014
2.568	560.33936
2.5685	578.66821
2.569	515.22217
2.5695	374.02954
2.57	249.95728
2.5705	153.98254
2.571	67.17224
2.5715	10.0708
2.572	-10.97717
2.5725	8.56018
2.573	2.21558
2.5735	-28.29895
2.574	-48.94409
2.5745	-103.42712
2.575	-132.0282
2.5755	-158.61511
2.576	-182.48291
2.5765	-237.87231
2.577	-288.93127
2.5775	-303.73535
2.578	-284.80225
2.5785	-249.65515
2.579	-209.57336
2.5795	-156.80237
2.58	-104.93774
2.5805	-99.60022
2.581	-136.15723
2.5815	-195.87708
2.582	-242.10205
2.5825	-257.8125
2.583	-268.58826
2.5835	-237.77161
2.584	-187.92114
2.5845	-164.45618
2.585	-102.72217
2.5855	-23.96851
2.586	42.90161
2.5865	76.03455
2.587	78.95508
2.5875	91.8457
2.588	109.57031
2.5885	148.24219
2.589	218.33496
2.5895	307.76367
2.59	389.73999
2.5905	430.62744
2.591	429.72107
2.5915	408.16956
2.592	344.21997
2.5925	265.76843
2.593	198.09265
2.5935	128.80554
2.594	106.54907
2.5945	91.44287
2.595	89.93225
2.5955	72.71118
2.596	66.36658
2.5965	82.88269
2.597	104.23279
2.5975	107.65686
2.598	112.39014
2.5985	117.32483
2.599	83.28552
2.5995	43.30444
2.6	-73.81897
2.6005	-187.21619
2.601	-237.26807
2.6015	-238.27515
2.602	-211.88965
2.6025	-171.60645
2.603	-155.9967
2.6035	-202.62451
2.604	-248.54736
2.6045	-316.12244
2.605	-422.87292
2.6055	-428.21045
2.606	-367.08069
2.6065	-290.64331
2.607	-202.4231
2.6075	-71.30127
2.608	92.65137
2.6085	221.55762
2.609	283.49304
2.6095	304.94385
2.61	306.65588
2.6105	307.56226
2.611	281.17676
2.6115	281.6803
2.612	291.34827
2.6125	334.24988
2.613	370.40405
2.6135	408.7738
2.614	388.6322
2.6145	315.51819
2.615	228.9093
2.6155	125.38147
2.616	40.08179
2.6165	-14.50195
2.617	-48.54126
2.6175	-54.38232
2.618	-46.02356
2.6185	-46.42639
2.619	-46.72852
2.6195	-56.69861
2.62	-141.69617
2.6205	-213.50098
2.621	-242.7063
2.6215	-236.96594
2.622	-219.54346
2.6225	-213.8031
2.623	-199.40186
2.6235	-170.49866
2.624	-141.29333
2.6245	-95.16907
2.625	-64.85596
2.6255	-51.96533
2.626	-35.54993
2.6265	-10.87646
2.627	7.95593
2.6275	16.61682
2.628	3.8269
2.6285	-33.33435
2.629	-114.90784
2.6295	-241.79993
2.63	-349.5575
2.6305	-438.18054
2.631	-480.27649
2.6315	-465.47241
2.632	-386.81946
2.6325	-289.2334
2.633	-194.76929
2.6335	-124.27368
2.634	-31.72302
2.6345	64.25171
2.635	160.22644
2.6355	226.59302
2.636	279.56543
2.6365	324.98474
2.637	389.13574
2.6375	514.61792
2.638	601.73035
2.6385	531.03333
2.639	424.38354
2.6395	352.47803
2.64	276.44348
2.6405	208.96912
2.641	153.3783
2.6415	126.69067
2.642	89.02588
2.6425	38.36975
2.643	-43.30444
2.6435	-106.64978
2.644	-135.45227
2.6445	-140.18555
2.645	-125.58289
2.6455	-119.94324
2.646	-142.60254
2.6465	-217.83142
2.647	-381.38123
2.6475	-484.80835
2.648	-533.04749
2.6485	-551.37634
2.649	-528.51562
2.6495	-455.80444
2.65	-359.82971
2.6505	-255.49622
2.651	-146.32874
2.6515	-43.60657
2.652	65.66162
2.6525	170.39795
2.653	254.58984
2.6535	294.16809
2.654	290.94543
2.6545	309.67712
2.655	345.22705
2.6555	419.54956
2.656	501.92871
2.6565	486.41968
2.657	290.24048
2.6575	107.15332
2.658	-25.07629
2.6585	-100.30518
2.659	-141.49475
2.6595	-152.37122
2.66	-157.30591
2.6605	-129.5105
2.661	-90.5365
2.6615	-31.11877
2.662	18.42957
2.6625	61.6333
2.663	82.17773
2.6635	131.82678
2.664	168.88733
2.6645	200.20752
2.665	224.27673
2.6655	244.92188
2.666	252.17285
2.6665	225.58594
2.667	179.8645
2.6675	119.54041
2.668	70.19348
2.6685	38.16833
2.669	25.68054
2.6695	28.29895
2.67	27.79541
2.6705	14.09912
2.671	4.12903
2.6715	1.2085
2.672	-0.30212
2.6725	2.81982
2.673	15.1062
2.6735	23.16284
2.674	15.30762
2.6745	-18.12744
2.675	-68.88428
2.6755	-90.83862
2.676	-109.57031
2.6765	-134.24377
2.677	-138.57422
2.6775	-137.16431
2.678	-120.34607
2.6785	-153.07617
2.679	-187.92114
2.6795	-208.56628
2.68	-238.37585
2.6805	-207.65991
2.681	-166.57104
2.6815	-112.28943
2.682	-43.60657
2.6825	3.32336
2.683	33.43506
2.6835	57.8064
2.684	25.98267
2.6845	-40.78674
2.685	-114.60571
2.6855	-206.55212
2.686	-243.20984
2.6865	-264.35852
2.687	-226.59302
2.6875	-158.01086
2.688	-80.66711
2.6885	-46.5271
2.689	-39.98108
2.6895	-44.61365
2.69	-12.78992
2.6905	57.20215
2.691	107.45544
2.6915	147.83936
2.692	157.30591
2.6925	145.22095
2.693	206.95496
2.6935	340.69519
2.694	417.83752
2.6945	284.09729
2.695	5.13611
2.6955	-183.89282
2.696	-261.43799
2.6965	-259.72595
2.697	-209.06982
2.6975	-142.40112
2.698	-60.22339
2.6985	32.7301
2.699	121.75598
2.6995	197.18628
2.7	258.61816
2.7005	308.26721
2.701	319.94934
2.7015	276.04065
2.702	221.55762
2.7025	195.37354
2.703	221.55762
2.7035	216.62292
2.704	185.50415
2.7045	137.26501
2.705	105.6427
2.7055	72.61047
2.706	26.18408
2.7065	30.51453
2.707	40.08179
2.7075	47.63489
2.708	51.5625
2.7085	52.8717
2.709	36.65771
2.7095	33.33435
2.71	39.37683
2.7105	26.28479
2.711	-7.35168
2.7115	-66.87012
2.712	-137.86926
2.7125	-175.23193
2.713	-178.85742
2.7135	-174.52698
2.714	-178.05176
2.7145	-160.22644
2.715	-141.59546
2.7155	-120.34607
2.716	-99.09668
2.7165	-80.4657
2.717	-61.23047
2.7175	-58.71277
2.718	-42.29736
2.7185	-11.38
2.719	8.25806
2.7195	44.71436
2.72	55.69153
2.7205	50.2533
2.721	58.30994
2.7215	53.97949
2.722	20.34302
2.7225	-34.24072
2.723	-149.14856
2.7235	-297.89429
2.724	-437.677
2.7245	-563.76343
2.725	-623.38257
2.7255	-617.34009
2.726	-552.18201
2.7265	-454.39453
2.727	-327.70386
2.7275	-221.55762
2.728	-155.69458
2.7285	-37.56409
2.729	98.0896
2.7295	190.03601
2.73	258.71887
2.7305	301.8219
2.731	341.90369
2.7315	409.57947
2.732	482.79419
2.7325	493.16711
2.733	477.75879
2.7335	392.25769
2.734	302.42615
2.7345	157.40662
2.735	-52.16675
2.7355	-168.38379
2.736	-187.21619
2.7365	-146.93298
2.737	-114.30359
2.7375	-66.6687
2.738	-15.91187
2.7385	37.96692
2.739	112.39014
2.7395	237.06665
2.74	315.92102
2.7405	327.70386
2.741	284.50012
2.7415	225.88806
2.742	78.85437
2.7425	-49.24622
2.743	-155.59387
2.7435	-204.63867
2.744	-220.75195
2.7445	-231.82983
2.745	-220.44983
2.7455	-235.35461
2.746	-351.97449
2.7465	-464.0625
2.747	-464.36462
2.7475	-384.20105
2.748	-278.35693
2.7485	-151.06201
2.749	-27.79541
2.7495	78.65295
2.75	166.26892
2.7505	221.96045
2.751	267.68188
2.7515	261.33728
2.752	238.37585
2.7525	181.47583
2.753	110.87952
2.7535	2.41699
2.754	-122.05811
2.7545	-127.59705
2.755	-59.1156
2.7555	-8.66089
2.756	-25.98267
2.7565	-89.42871
2.757	-124.77722
2.7575	-83.88977
2.758	-8.25806
2.7585	108.26111
2.759	228.10364
2.7595	348.85254
2.76	458.52356
2.7605	506.35986
2.761	503.33862
2.7615	492.56287
2.762	440.49683
2.7625	317.83447
2.763	74.52393
2.7635	-111.8866
2.764	-201.61743
2.7645	-262.64648
2.765	-260.3302
2.7655	-214.81018
2.766	-153.479
2.7665	-107.05261
2.767	-83.48694
2.7675	-77.54517
2.768	-70.89844
2.7685	-34.74426
2.769	-14.70337
2.7695	-3.32336
2.77	8.66089
2.7705	16.01257
2.771	57.20215
2.7715	86.30676
2.772	107.95898
2.7725	84.79614
2.773	37.7655
2.7735	17.12036
2.774	-5.23682
2.7745	-23.06213
2.775	-46.92993
2.7755	-107.85828
2.776	-148.3429
2.7765	-151.26343
2.777	-151.36414
2.7775	-154.38538
2.778	-121.65527
2.7785	-39.37683
2.779	76.23596
2.7795	169.29016
2.78	212.69531
2.7805	213.50098
2.781	88.52234
2.7815	-13.797
2.782	-56.90002
2.7825	-45.82214
2.783	-4.73328
2.7835	58.20923
2.784	91.04004
2.7845	107.35474
2.785	109.87244
2.7855	118.53333
2.786	112.08801
2.7865	99.90234
2.787	96.67969
2.7875	82.58057
2.788	99.19739
2.7885	111.78589
2.789	80.16357
2.7895	3.22266
2.79	-78.55225
2.7905	-105.54199
2.791	-121.75598
2.7915	-144.11316
2.792	-194.66858
2.7925	-470.70923
2.793	-694.1803
2.7935	-715.22827
2.794	-586.42273
2.7945	-408.06885
2.795	-225.0824
2.7955	-71.7041
2.796	63.14392
2.7965	201.61743
2.797	307.66296
2.7975	324.4812
2.798	322.16492
2.7985	316.82739
2.799	299.60632
2.7995	273.01941
2.8	270.30029
2.8005	313.80615
2.801	369.39697
2.8015	335.65979
2.802	252.67639
2.8025	159.7229
2.803	35.95276
2.8035	-96.47827
2.804	-160.83069
2.8045	-170.80078
2.805	-252.07214
2.8055	-361.13892
2.806	-375.03662
2.8065	-343.11218
2.807	-295.88013
2.8075	-223.26965
2.808	-146.73157
2.8085	-110.37598
2.809	-132.63245
2.8095	-131.92749
2.81	-69.79065
2.8105	19.94019
2.811	113.1958
2.8115	181.57654
2.812	248.74878
2.8125	331.93359
2.813	445.93506
2.8135	511.59668
2.814	534.65881
2.8145	499.91455
2.815	414.01062
2.8155	357.91626
2.816	325.48828
2.8165	325.58899
2.817	312.49695
2.8175	267.48047
2.818	187.11548
2.8185	91.34216
2.819	15.81116
2.8195	-62.8418
2.82	-141.59546
2.8205	-254.38843
2.821	-395.27893
2.8215	-446.4386
2.822	-430.02319
2.8225	-421.06018
2.823	-386.61804
2.8235	-342.30652
2.824	-283.99658
2.8245	-244.92188
2.825	-237.87231
2.8255	-367.78564
2.826	-566.68396
2.8265	-712.00562
2.827	-764.97803
2.8275	-779.07715
2.828	-735.06775
2.8285	-570.30945
2.829	-375.64087
2.8295	-177.64893
2.83	0.60425
2.8305	146.42944
2.831	290.64331
2.8315	409.17664
2.832	546.24023
2.8325	706.86951
2.833	820.46814
2.8335	874.0448
2.834	888.34534
2.8345	891.06445
2.835	910.40039
2.8355	859.14001
2.836	691.76331
2.8365	511.39526
2.837	295.47729
2.8375	110.87952
2.838	-27.19116
2.8385	-148.24219
2.839	-233.34045
2.8395	-300.31128
2.84	-315.82031
2.8405	-285.40649
2.841	-217.5293
2.8415	-155.19104
2.842	-96.07544
2.8425	-34.94568
2.843	25.07629
2.8435	43.60657
2.844	77.04163
2.8445	125.7843
2.845	140.18555
2.8455	140.18555
2.846	136.45935
2.8465	122.25952
2.847	125.48218
2.8475	163.34839
2.848	174.42627
2.8485	85.80322
2.849	-217.32788
2.8495	-516.73279
2.85	-685.62012
2.8505	-724.59412
2.851	-720.16296
2.8515	-659.0332
2.852	-551.07422
2.8525	-399.9115
2.853	-256.604
2.8535	-109.06677
2.854	43.30444
2.8545	162.54272
2.855	249.45374
2.8555	306.35376
2.856	346.23413
2.8565	385.40955
2.857	420.35522
2.8575	405.55115
2.858	364.56299
2.8585	284.60083
2.859	166.57104
2.8595	38.57117
2.86	-32.02515
2.8605	-75.02747
2.861	-82.07703
2.8615	-51.86462
2.862	-48.84338
2.8625	-26.08337
2.863	23.96851
2.8635	130.71899
2.864	268.68896
2.8645	347.94617
2.865	367.48352
2.8655	349.45679
2.866	314.61182
2.8665	272.51587
2.867	168.98804
2.8675	10.87646
2.868	-90.83862
2.8685	-134.5459
2.869	-134.84802
2.8695	-265.86914
2.87	-465.17029
2.8705	-686.52649
2.871	-784.31396
2.8715	-736.27625
2.872	-603.03955
2.8725	-471.01135
2.873	-332.63855
2.8735	-166.47034
2.874	-167.98096
2.8745	-216.62292
2.875	-139.98413
2.8755	-3.92761
2.876	143.00537
2.8765	223.47107
2.877	256.80542
2.8775	307.36084
2.878	415.0177
2.8785	504.3457
2.879	551.37634
2.8795	532.54395
2.88	426.69983
2.8805	326.89819
2.881	182.68433
2.8815	68.88428
2.882	-21.14868
2.8825	-95.67261
2.883	-131.92749
2.8835	-123.2666
2.884	-76.63879
2.8845	2.21558
2.885	44.51294
2.8855	69.99207
2.886	44.0094
2.8865	45.62073
2.887	52.46887
2.8875	122.36023
2.888	235.05249
2.8885	290.13977
2.889	272.71729
2.8895	256.5033
2.89	247.23816
2.8905	252.67639
2.891	289.2334
2.8915	255.49622
2.892	80.66711
2.8925	-54.88586
2.893	-128.50342
2.8935	-165.56396
2.894	-199.70398
2.8945	-225.38452
2.895	-246.33179
2.8955	-268.58826
2.896	-283.89587
2.8965	-271.50879
2.897	-256.10046
2.8975	-272.01233
2.898	-306.75659
2.8985	-422.87292
2.899	-478.86658
2.8995	-481.18286
2.9	-408.47168
2.9005	-320.45288
2.901	-210.47974
2.9015	-102.01721
2.902	4.33044
2.9025	145.9259
2.903	243.31055
2.9035	322.46704
2.904	378.05786
2.9045	428.21045
2.905	476.55029
2.9055	530.93262
2.906	572.2229
2.9065	599.01123
2.907	633.8562
2.9075	643.927
2.908	578.5675
2.9085	373.92883
2.909	7.75452
2.9095	-251.36719
2.91	-324.88403
2.9105	-287.01782
2.911	-209.37195
2.9115	-134.84802
2.912	-63.64746
2.9125	-11.07788
2.913	-1.10779
2.9135	-19.13452
2.914	-105.13916
2.9145	-152.77405
2.915	-175.43335
2.9155	-157.80945
2.916	-130.41687
2.9165	-119.94324
2.917	-114.4043
2.9175	-113.1958
2.918	-106.9519
2.9185	-118.2312
2.919	-119.74182
2.9195	-65.86304
2.92	-0.70496
2.9205	53.27454
2.921	140.18555
2.9215	253.9856
2.922	381.58264
2.9225	471.71631
2.923	480.07507
2.9235	409.27734
2.924	247.84241
2.9245	80.76782
2.925	-102.82288
2.9255	-258.01392
2.926	-351.57166
2.9265	-395.07751
2.927	-400.31433
2.9275	-459.53064
2.928	-484.2041
2.9285	-430.02319
2.929	-297.39075
2.9295	-166.77246
2.93	-48.33984
2.9305	45.2179
2.931	136.56006
2.9315	218.63708
2.932	242.30347
2.9325	145.62378
2.933	-13.99841
2.9335	-181.97937
2.934	-429.21753
2.9345	-588.83972
2.935	-631.13708
2.9355	-660.64453
2.936	-645.03479
2.9365	-606.86646
2.937	-544.12537
2.9375	-462.35046
2.938	-296.98792
2.9385	-95.16907
2.939	102.82288
2.9395	286.91711
2.94	430.1239
2.9405	584.60999
2.941	732.65076
2.9415	809.59167
2.942	789.65149
2.9425	693.57605
2.943	495.58411
2.9435	81.87561
2.944	-558.82874
2.9445	-983.81653
2.945	-1122.49146
2.9455	-1071.33179
2.946	-936.68518
2.9465	-738.08899
2.947	-492.05933
2.9475	-212.5946
2.948	66.56799
2.9485	344.32068
2.949	566.78467
2.9495	740.10315
2.95	858.83789
2.9505	908.99048
2.951	926.01013
2.9515	998.21777
2.952	1138.1012
2.9525	1099.63074
2.953	892.77649
2.9535	406.1554
2.954	-33.63647
2.9545	-284.09729
2.955	-395.48035
2.9555	-407.4646
2.956	-372.01538
2.9565	-290.5426
2.957	-185.70557
2.9575	-69.89136
2.958	46.72852
2.9585	159.62219
2.959	244.41833
2.9595	339.88953
2.96	438.28125
2.9605	530.63049
2.961	597.09778
2.9615	615.82947
2.962	560.54077
2.9625	467.08374
2.963	340.29236
2.9635	223.67249
2.964	144.21387
2.9645	-55.49011
2.965	-301.41907
2.9655	-430.22461
2.966	-465.57312
2.9665	-472.8241
2.967	-501.92871
2.9675	-490.24658
2.968	-434.25293
2.9685	-342.40723
2.969	-240.08789
2.9695	-121.25244
2.97	-0.70496
2.9705	93.0542
2.971	23.06213
2.9715	-192.85583
2.972	-433.64868
2.9725	-629.32434
2.973	-712.20703
2.9735	-696.29517
2.974	-606.36292
2.9745	-488.73596
2.975	-413.60779
2.9755	-307.36084
2.976	-187.61902
2.9765	-72.81189
2.977	38.67188
2.9775	58.91418
2.978	113.90076
2.9785	195.47424
2.979	289.2334
2.9795	362.04529
2.98	374.33167
2.9805	339.28528
2.981	340.69519
2.9815	274.02649
2.982	132.83386
2.9825	40.58533
2.983	-22.05505
2.9835	-43.20374
2.984	-4.93469
2.9845	61.6333
2.985	103.02429
2.9855	158.91724
2.986	220.34912
2.9865	281.88171
2.987	356.10352
2.9875	439.18762
2.988	527.30713
2.9885	606.1615
2.989	639.69727
2.9895	662.86011
2.99	609.08203
2.9905	489.64233
2.991	363.95874
2.9915	242.80701
2.992	95.26978
2.9925	-165.16113
2.993	-370.10193
2.9935	-443.9209
2.994	-411.39221
2.9945	-341.40015
2.995	-276.04065
2.9955	-268.08472
2.996	-268.08472
2.9965	-251.06506
2.997	-202.4231
2.9975	-130.01404
2.998	-53.87878
2.9985	-0.40283
2.999	44.11011
2.9995	101.21155
3	126.89209
3.0005	144.31458
3.001	182.48291
3.0015	235.95886
3.002	221.96045
3.0025	158.11157
3.003	69.89136
3.0035	-41.89453
3.004	-96.8811
3.0045	-139.78271
3.005	-267.07764
3.0055	-390.74707
3.006	-519.95544
3.0065	-589.14185
3.007	-704.75464
3.0075	-1164.78882
3.008	-1695.41931
3.0085	-1893.10913
3.009	-1783.53882
3.0095	-1602.56653
3.01	-1505.98755
3.0105	-1436.29761
3.011	-1401.65405
3.0115	-1208.5968
3.012	-933.05969
3.0125	-667.08984
3.013	-430.52673
3.0135	-112.39014
3.014	258.92029
3.0145	671.72241
3.015	1092.78259
3.0155	1210.10742
3.016	1241.62903
3.0165	1304.47083
3.017	1278.08533
3.0175	1143.84155
3.018	1005.77087
3.0185	974.75281
3.019	1130.5481
3.0195	1243.64319
3.02	1228.53699
3.0205	1138.90686
3.021	1080.69763
3.0215	1038.29956
3.022	984.92432
3.0225	919.96765
3.023	859.94568
3.0235	774.646
3.024	652.28577
3.0245	565.27405
3.025	474.93896
3.0255	347.03979
3.026	222.46399
3.0265	74.12109
3.027	-54.98657
3.0275	-135.8551
3.028	-466.88232
3.0285	-824.89929
3.029	-1032.96204
3.0295	-1070.32471
3.03	-977.87476
3.0305	-844.63806
3.031	-728.32031
3.0315	-661.5509
3.032	-575.44556
3.0325	-430.1239
3.033	-228.50647
3.0335	11.58142
3.034	243.31055
3.0345	392.3584
3.035	485.51331
3.0355	517.73987
3.036	551.98059
3.0365	628.41797
3.037	708.88367
3.0375	725.7019
3.038	619.75708
3.0385	463.55896
3.039	334.24988
3.0395	196.88416
3.04	11.48071
3.0405	-138.47351
3.041	-211.99036
3.0415	-290.24048
3.042	-383.39539
3.0425	-492.26074
3.043	-605.35583
3.0435	-644.63196
3.044	-607.67212
3.0445	-589.94751
3.045	-600.21973
3.0455	-842.6239
3.046	-1150.89111
3.0465	-1433.88062
3.047	-1943.36243
3.0475	-2565.03296
3.048	-2714.98706
3.0485	-2349.41699
3.049	-1808.11157
3.0495	-1240.52124
3.05	-630.73425
3.0505	-21.75293
3.051	555.60608
3.0515	1064.18152
3.052	1467.6178
3.0525	1752.21863
3.053	1958.97217
3.0535	2145.7854
3.054	2325.85132
3.0545	2455.46265
3.055	2477.61841
3.0555	2288.79077
3.056	1928.15552
3.0565	1562.88757
3.057	1218.16406
3.0575	911.91101
3.058	693.77747
3.0585	498.10181
3.059	318.84155
3.0595	207.5592
3.06	164.85901
3.0605	110.87952
3.061	40.08179
3.0615	-45.62073
3.062	-144.01245
3.0625	-214.00452
3.063	-318.33801
3.0635	-564.26697
3.064	-1026.61743
3.0645	-1502.36206
3.065	-1703.47595
3.0655	-1649.89929
3.066	-1463.58948
3.0665	-1204.56848
3.067	-888.24463
3.0675	-562.35352
3.068	-261.5387
3.0685	4.93469
3.069	198.19336
3.0695	353.68652
3.07	509.68323
3.0705	612.90894
3.071	653.59497
3.0715	538.48572
3.072	351.47095
3.0725	154.18396
3.073	-74.62463
3.0735	-281.17676
3.074	-470.70923
3.0745	-766.08582
3.075	-979.6875
3.0755	-996.10291
3.076	-908.88977
3.0765	-911.00464
3.077	-961.35864
3.0775	-997.3114
3.078	-904.15649
3.0785	-669.104
3.079	-395.17822
3.0795	-13.797
3.08	485.71472
3.0805	923.99597
3.081	1206.88477
3.0815	1299.23401
3.082	1364.08997
3.0825	1492.89551
3.083	1605.08423
3.0835	1656.94885
3.084	1620.49255
3.0845	1446.16699
3.085	1251.90125
3.0855	1095.09888
3.086	946.55457
3.0865	668.60046
3.087	330.82581
3.0875	62.9425
3.088	-88.52234
3.0885	-117.42554
3.089	-73.21472
3.0895	-57.10144
3.09	-46.72852
3.0905	-39.37683
3.091	-41.69312
3.0915	-37.36267
3.092	-44.71436
3.0925	-74.32251
3.093	-198.29407
3.0935	-309.375
3.094	-376.95007
3.0945	-406.2561
3.095	-391.95557
3.0955	-482.79419
3.096	-596.89636
3.0965	-676.25427
3.097	-798.81592
3.0975	-988.04626
3.098	-1195.40405
3.0985	-1216.25061
3.099	-1106.27747
3.0995	-926.71509
3.1	-760.34546
3.1005	-962.86926
3.101	-1189.05945
3.1015	-1426.32751
3.102	-1870.44983
3.1025	-1991.80298
3.103	-1717.37366
3.1035	-1270.73364
3.104	-752.0874
3.1045	-288.72986
3.105	23.36426
3.1055	306.45447
3.106	544.32678
3.1065	670.3125
3.107	753.39661
3.1075	632.44629
3.108	287.72278
3.1085	69.89136
3.109	-45.82214
3.1095	-12.28638
3.11	104.73633
3.1105	279.96826
3.111	370.80688
3.1115	138.97705
3.112	-3.8269
3.1125	19.33594
3.113	181.073
3.1135	433.54797
3.114	750.57678
3.1145	1041.62292
3.115	1244.54956
3.1155	1383.12378
3.116	1479.40063
3.1165	1570.84351
3.117	1579.70581
3.1175	1493.70117
3.118	1348.78235
3.1185	1244.54956
3.119	1153.91235
3.1195	1007.08008
3.12	590.45105
3.1205	136.56006
3.121	-110.6781
3.1215	-219.74487
3.122	-292.25464
3.1225	-364.86511
3.123	-553.3905
3.1235	-1184.82971
3.124	-2070.75806
3.1245	-3095.56274
3.125	-3274.01733
3.1255	-3258.10547
3.126	-3242.59644
3.1265	-3110.87036
3.127	-2493.73169
3.1275	-1786.15723
3.128	-1120.88013
3.1285	-560.33936
3.129	-14.80408
3.1295	312.89978
3.13	440.09399
3.1305	399.81079
3.131	729.22668
3.1315	1356.53687
3.132	1900.2594
3.1325	2228.56738
3.133	2067.03174
3.1335	1567.31873
3.134	1248.88
3.1345	1150.48828
3.135	1100.13428
3.1355	1177.27661
3.136	1404.17175
3.1365	1729.2572
3.137	1799.6521
3.1375	1396.71936
3.138	969.31458
3.1385	735.06775
3.139	730.43518
3.1395	721.47217
3.14	542.61475
3.1405	474.73755
3.141	511.8988
3.1415	521.16394
3.142	486.82251
3.1425	438.98621
3.143	403.43628
3.1435	289.83765
3.144	214.91089
3.1445	196.68274
3.145	319.84863
3.1455	425.99487
3.146	393.86902
3.1465	293.46313
3.147	195.07141
3.1475	90.63721
3.148	-8.8623
3.1485	-84.39331
3.149	-121.15173
3.1495	-94.96765
3.15	-2.92053
3.1505	120.04395
3.151	211.99036
3.1515	252.27356
3.152	212.89673
3.1525	-23.26355
3.153	-567.08679
3.1535	-1016.74805
3.154	-1169.92493
3.1545	-1078.9856
3.155	-901.7395
3.1555	-725.7019
3.156	-539.4928
3.1565	-315.01465
3.157	-36.25488
3.1575	214.30664
3.158	383.89893
3.1585	473.62976
3.159	419.75098
3.1595	138.67493
3.16	-584.20715
3.1605	-1455.13
3.161	-1898.74878
3.1615	-1958.67004
3.162	-1939.2334
3.1625	-2406.71997
3.163	-2885.38501
3.1635	-3001.60205
3.164	-3023.5564
3.1645	-3217.72144
3.165	-3202.91748
3.1655	-3188.41553
3.166	-3174.11499
3.1665	-2616.19263
3.167	-1474.56665
3.1675	-195.77637
3.168	998.62061
3.1685	1975.08545
3.169	2616.69604
3.1695	2986.19385
3.17	3218.02368
3.1705	3299.89917
3.171	3299.89917
3.1715	3299.89917
3.172	3299.89917
3.1725	3299.89917
3.173	3299.89917
3.1735	3293.45386
3.174	2933.02002
3.1745	2301.37939
3.175	1643.15186
3.1755	1142.23022
3.176	846.14868
3.1765	670.51392
3.177	513.51013
3.1775	393.56689
3.178	304.23889
3.1785	228.9093
3.179	153.88184
3.1795	82.9834
3.18	12.18567
3.1805	-47.93701
3.181	-127.39563
3.1815	-318.94226
3.182	-473.12622
3.1825	-604.953
3.183	-740.40527
3.1835	-793.78052
3.184	-797.3053
3.1845	-789.45007
3.185	-887.74109
3.1855	-953.80554
3.186	-878.37524
3.1865	-834.06372
3.187	-807.77893
3.1875	-855.81665
3.188	-985.32715
3.1885	-1238.50708
3.189	-1350.29297
3.1895	-1314.03809
3.19	-1424.81689
3.1905	-1416.86096
3.191	-1283.82568
3.1915	-1147.16492
3.192	-855.31311
3.1925	-422.97363
3.193	16.21399
3.1935	399.00513
3.194	718.65234
3.1945	969.6167
3.195	1187.04529
3.1955	1345.96252
3.196	1448.38257
3.1965	1394.60449
3.197	731.74438
3.1975	-1.2085
3.198	-481.58569
3.1985	-710.29358
3.199	-1032.5592
3.1995	-1156.83289
3.2	-992.88025
3.2005	-667.59338
3.201	-327.30103
3.2015	0
3.202	329.01306
3.2025	636.97815
3.203	842.6239
3.2035	830.94177
3.204	662.35657
3.2045	556.61316
3.205	648.86169
3.2055	723.88916
3.206	612.5061
3.2065	439.69116
3.207	355.59998
3.2075	326.79749
3.208	325.58899
3.2085	337.37183
3.209	318.33801
3.2095	318.2373
3.21	344.01855
3.2105	424.58496
3.211	493.16711
3.2115	546.84448
3.212	592.3645
3.2125	544.12537
3.213	391.65344
3.2135	208.06274
3.214	1.3092
3.2145	-209.57336
3.215	-501.52588
3.2155	-805.46265
3.216	-1021.48132
3.2165	-1188.95874
3.217	-1265.29541
3.2175	-1381.71387
3.218	-1782.73315
3.2185	-2413.87012
3.219	-3171.79858
3.2195	-3255.68848
3.22	-3041.58325
3.2205	-2375.29907
3.221	-1579.50439
3.2215	-859.74426
3.222	-430.22461
3.2225	-379.56848
3.223	-471.31348
3.2235	-626.50452
3.224	-653.19214
3.2245	-441.50391
3.225	-59.21631
3.2255	434.75647
3.226	922.58606
3.2265	1414.94751
3.227	1793.81104
3.2275	1921.20667
3.228	1957.36084
3.2285	1883.54187
3.229	1943.46313
3.2295	2230.27954
3.23	2512.86621
3.2305	2556.27124
3.231	2433.60889
3.2315	2173.48022
3.232	1699.74976
3.2325	1145.85571
3.233	696.49658
3.2335	415.11841
3.234	301.62048
3.2345	323.57483
3.235	365.9729
3.2355	311.28845
3.236	232.83691
3.2365	-4.02832
3.237	-600.82397
3.2375	-1312.62817
3.238	-1777.69775
3.2385	-2004.29077
3.239	-2064.71558
3.2395	-1983.84705
3.24	-1827.85034
3.2405	-2140.24658
3.241	-3252.66724
3.2415	-3248.23608
3.242	-3232.72705
3.2425	-3210.67188
3.243	-2594.94312
3.2435	-1643.7561
3.244	-633.45337
3.2445	332.13501
3.245	1277.98462
3.2455	2081.13086
3.246	2539.05029
3.2465	2703.70776
3.247	2763.3269
3.2475	2823.95312
3.248	2969.5769
3.2485	3195.06226
3.249	3299.89917
3.2495	3279.45557
3.25	2646.20361
3.2505	1842.75513
3.251	1158.04138
3.2515	464.76746
3.252	-936.38306
3.2525	-2155.8562
3.253	-2630.59375
3.2535	-2613.6748
3.254	-2239.74609
3.2545	-1933.99658
3.255	-1650.20142
3.2555	-1243.44177
3.256	-626.90735
3.2565	26.88904
3.257	527.81067
3.2575	262.94861
3.258	-426.09558
3.2585	-653.09143
3.259	-473.83118
3.2595	-36.35559
3.26	446.74072
3.2605	862.36267
3.261	1156.53076
3.2615	1362.98218
3.262	1530.66101
3.2625	1705.59082
3.263	1835.30273
3.2635	1855.84717
3.264	1765.41138
3.2645	1555.83801
3.265	1291.5802
3.2655	803.14636
3.266	480.17578
3.2665	323.57483
3.267	223.8739
3.2675	221.05408
3.268	203.32947
3.2685	87.01172
3.269	-66.56799
3.2695	-161.13281
3.27	-298.49854
3.2705	-496.7926
3.271	-608.07495
3.2715	-603.84521
3.272	-543.72253
3.2725	-563.3606
3.273	-689.34631
3.2735	-776.15662
3.274	-860.2478
3.2745	-1227.73132
3.275	-1700.75684
3.2755	-2147.19531
3.276	-2396.64917
3.2765	-2510.95264
3.277	-2540.66162
3.2775	-2243.06934
3.278	-1695.41931
3.2785	-1115.44189
3.279	-575.14343
3.2795	-29.30603
3.28	578.16467
3.2805	1175.16174
3.281	1720.19348
3.2815	2125.44238
3.282	2353.64673
3.2825	2502.896
3.283	2628.57959
3.2835	2543.48145
3.284	2286.5752
3.2845	1894.31763
3.285	1440.0238
3.2855	996.0022
3.286	597.09778
3.2865	202.82593
3.287	-344.72351
3.2875	-868.90869
3.288	-1227.12708
3.2885	-1398.22998
3.289	-1311.62109
3.2895	-1046.45691
3.29	-703.24402
3.2905	-354.08936
3.291	-10.97717
3.2915	317.43164
3.292	609.68628
3.2925	838.19275
3.293	930.6427
3.2935	910.60181
3.294	924.49951
3.2945	982.2052
3.295	945.14465
3.2955	734.16138
3.296	398.30017
3.2965	61.53259
3.297	-179.46167
3.2975	-360.53467
3.298	-465.06958
3.2985	-719.15588
3.299	-1209.10034
3.2995	-1770.7489
3.3	-1983.2428
3.3005	-1870.34912
3.301	-1580.8136
3.3015	-1159.45129
3.302	-679.87976
3.3025	-228.70789
3.303	112.79297
3.3035	193.35938
3.304	-348.04688
3.3045	-1413.94043
3.305	-1967.93518
3.3055	-1945.17517
3.306	-1554.02527
3.3065	-998.62061
3.307	-473.83118
3.3075	66.16516
3.308	532.44324
3.3085	975.35706
3.309	1336.09314
3.3095	1586.25183
3.31	1699.0448
3.3105	1655.74036
3.311	1611.52954
3.3115	1685.2478
3.312	1746.98181
3.3125	1597.43042
3.313	1304.37012
3.3135	875.55542
3.314	447.7478
3.3145	215.1123
3.315	-18.32886
3.3155	-387.323
3.316	-720.86792
3.3165	-943.73474
3.317	-960.95581
3.3175	-847.05505
3.318	-826.81274
3.3185	-928.32642
3.319	-1152.60315
3.3195	-1365.49988
3.32	-1387.55493
3.3205	-1241.02478
3.321	-1096.71021
3.3215	-957.93457
3.322	-626.70593
3.3225	-155.39246
3.323	342.00439
3.3235	803.85132
3.324	1221.1853
3.3245	1535.69641
3.325	1693.10303
3.3255	1721.09985
3.326	1698.44055
3.3265	1688.87329
3.327	1704.78516
3.3275	1615.45715
3.328	1251.39771
3.3285	372.2168
3.329	-473.73047
3.3295	-946.65527
3.33	-1105.37109
3.3305	-1055.01709
3.331	-853.9032
3.3315	-598.10486
3.332	-317.53235
3.3325	-80.36499
3.333	-69.38782
3.3335	-279.66614
3.334	-344.72351
3.3345	-231.82983
3.335	-61.83472
3.3355	38.36975
3.336	91.24146
3.3365	166.0675
3.337	199.80469
3.3375	163.04626
3.338	149.6521
3.3385	211.99036
3.339	254.38843
3.3395	240.59143
3.34	237.16736
3.3405	299.00208
3.341	307.15942
3.3415	62.9425
3.342	-380.07202
3.3425	-777.86865
3.343	-1322.29614
3.3435	-1800.65918
3.344	-2044.17114
3.3445	-2017.78564
3.345	-1796.93298
3.3455	-1401.95618
3.346	-951.38855
3.3465	-447.04285
3.347	63.24463
3.3475	614.31885
3.348	1040.0116
3.3485	1292.48657
3.349	1416.45813
3.3495	1550.19836
3.35	1726.13525
3.3505	1822.61353
3.351	1785.25085
3.3515	1557.65076
3.352	1256.13098
3.3525	930.34058
3.353	673.33374
3.3535	462.35046
3.354	265.16418
3.3545	129.10767
3.355	71.20056
3.3555	51.15967
3.356	67.27295
3.3565	86.50818
3.357	33.23364
3.3575	-51.15967
3.358	-117.12341
3.3585	-167.37671
3.359	-259.82666
3.3595	-404.34265
3.36	-477.65808
3.3605	-486.11755
3.361	-462.14905
3.3615	-550.36926
3.362	-817.64832
3.3625	-1480.60913
3.363	-2442.97485
3.3635	3299.89917
3.364	-3273.11084
3.3645	-3047.62573
3.365	-2370.36426
3.3655	-1538.31482
3.366	-706.86951
3.3665	69.79065
3.367	747.75696
3.3675	1329.94995
3.368	1752.11792
3.3685	2011.94458
3.369	2158.67603
3.3695	2172.57373
3.37	2111.94751
3.3705	1915.96985
3.371	1320.58411
3.3715	341.80298
3.372	-434.75647
3.3725	-841.81824
3.373	-946.25244
3.3735	-845.84656
3.374	-717.14172
3.3745	-516.53137
3.375	-262.94861
3.3755	-189.33105
3.376	-378.05786
3.3765	-423.47717
3.377	-301.41907
3.3775	-67.8772
3.378	232.13196
3.3785	543.82324
3.379	687.23145
3.3795	742.31873
3.38	758.12988
3.3805	712.71057
3.381	623.58398
3.3815	571.0144
3.382	588.94043
3.3825	570.41016
3.383	507.46765
3.3835	441.20178
3.384	437.87842
3.3845	482.8949
3.385	536.37085
3.3855	581.48804
3.386	556.91528
3.3865	470.91064
3.387	391.25061
3.3875	291.44897
3.388	141.19263
3.3885	-173.82202
3.389	-566.07971
3.3895	-913.52234
3.39	-1224.50867
3.3905	-1874.47815
3.391	-2602.79834
3.3915	-3107.04346
3.392	-3088.21094
3.3925	-2666.04297
3.393	-2026.34583
3.3935	-1273.65417
3.394	-617.94434
3.3945	-170.80078
3.395	309.375
3.3955	759.53979
3.396	1166.60156
3.3965	1623.31238
3.397	2060.48584
3.3975	2229.07104
3.398	2124.53613
3.3985	2027.2522
3.399	1861.99036
3.3995	1578.39661
3.4	1221.38672
3.4005	879.58374
3.401	645.53833
3.4015	501.32446
3.402	325.99182
3.4025	-44.61365
3.403	-420.25452
3.4035	-748.05908
3.404	-945.04395
3.4045	-1064.18152
3.405	-1077.97852
3.4055	-1015.53955
3.406	-1273.45276
3.4065	-1415.65247
3.407	-1295.91064
3.4075	-988.34839
3.408	-592.86804
3.4085	-107.75757
3.409	418.94531
3.4095	877.67029
3.41	1212.12158
3.4105	1423.40698
3.411	1499.1394
3.4115	1175.56458
3.412	735.47058
3.4125	486.11755
3.413	330.32227
3.4135	256.40259
3.414	206.35071
3.4145	188.92822
3.415	217.22717
3.4155	282.78809
3.416	262.74719
3.4165	48.84338
3.417	-548.05298
3.4175	-1059.75037
3.418	-1425.72327
3.4185	-1516.96472
3.419	-1439.82239
3.4195	-1212.323
3.42	-972.63794
3.4205	-881.29578
3.421	-672.8302
3.4215	-343.41431
3.422	-4.63257
3.4225	309.47571
3.423	195.47424
3.4235	-199.80469
3.424	-550.16785
3.4245	-826.40991
3.425	-992.67883
3.4255	-853.9032
3.426	-487.22534
3.4265	-376.44653
3.427	-285.30579
3.4275	-10.77576
3.428	435.66284
3.4285	945.64819
3.429	1441.33301
3.4295	1862.69531
3.43	2147.19531
3.4305	2261.19678
3.431	2220.71216
3.4315	2145.28198
3.432	2059.37793
3.4325	1901.16577
3.433	1530.76172
3.4335	1077.57568
3.434	550.16785
3.4345	88.52234
3.435	-234.44824
3.4355	-398.90442
3.436	-439.69116
3.4365	-498.50464
3.437	-700.5249
3.4375	-925.10376
3.438	-1118.0603
3.4385	-1364.29138
3.439	-1437.70752
3.4395	-1273.35205
3.44	-1030.54504
3.4405	-728.2196
3.441	-394.37256
3.4415	-138.3728
3.442	68.38074
3.4425	320.6543
3.443	509.2804
3.4435	625.59814
3.444	675.04578
3.4445	826.3092
3.445	955.31616
3.4455	962.26501
3.446	762.86316
3.4465	462.35046
3.447	240.69214
3.4475	65.86304
3.448	-128.90625
3.4485	-675.95215
3.449	-1256.03027
3.4495	-1588.56812
3.45	-1847.89124
3.4505	-1768.02979
3.451	-1519.58313
3.4515	-1073.04382
3.452	-563.76343
3.4525	-118.33191
3.453	227.70081
3.4535	550.46997
3.454	836.07788
3.4545	1042.22717
3.455	1180.59998
3.4555	1191.77856
3.456	1191.67786
3.4565	1206.48193
3.457	1143.43872
3.4575	985.52856
3.458	793.17627
3.4585	683.90808
3.459	484.90906
3.4595	300.71411
3.46	177.85034
3.4605	68.48145
3.461	-15.71045
3.4615	-191.74805
3.462	-726.80969
3.4625	-1648.18726
3.463	-2775.10986
3.4635	3299.89917
3.464	-3280.05981
3.4645	-3264.24854
3.465	-3248.53809
3.4655	-3153.06689
3.466	-2381.84497
3.4665	-1398.83423
3.467	-602.73743
3.4675	39.88037
3.468	682.59888
3.4685	1185.33325
3.469	1269.42444
3.4695	1407.19299
3.47	1809.42078
3.4705	2386.57837
3.471	2747.71729
3.4715	2813.58032
3.472	2638.34839
3.4725	2369.86084
3.473	2077.20337
3.4735	1854.63867
3.474	1731.57349
3.4745	1657.35168
3.475	1556.9458
3.4755	1411.12061
3.476	1263.58337
3.4765	1054.11072
3.477	752.59094
3.4775	450.06409
3.478	258.31604
3.4785	192.55371
3.479	94.76624
3.4795	-16.41541
3.48	-68.98499
3.4805	-70.69702
3.481	-32.32727
3.4815	-1.3092
3.482	-17.32178
3.4825	-132.63245
3.483	-403.7384
3.4835	-686.32507
3.484	-1005.06592
3.4845	-1202.75574
3.485	-1311.41968
3.4855	-1444.65637
3.486	-1846.1792
3.4865	-2117.78857
3.487	-2077.20337
3.4875	-1802.77405
3.488	-1374.96643
3.4885	-869.51294
3.489	-409.17664
3.4895	43.80798
3.49	217.93213
3.4905	-435.96497
3.491	-1143.03589
3.4915	-1253.61328
3.492	-1037.99744
3.4925	-703.54614
3.493	-240.28931
3.4935	246.63391
3.494	720.26367
3.4945	1041.11938
3.495	1079.48914
3.4955	1036.38611
3.496	1119.47021
3.4965	1245.0531
3.497	1311.7218
3.4975	1308.49915
3.498	1384.13086
3.4985	1554.32739
3.499	1692.8009
3.4995	1649.69788
3.5	1424.61548
3.5005	1192.88635
3.501	962.56714
3.5015	811.90796
3.502	758.23059
3.5025	692.87109
3.503	559.13086
3.5035	369.90051
3.504	158.21228
3.5045	-120.14465
3.505	-302.02332
3.5055	-374.13025
3.506	-392.3584
3.5065	-384.40247
3.507	-395.78247
3.5075	-528.11279
3.508	-694.1803
3.5085	-946.85669
3.509	-1221.38672
3.5095	-1489.97498
3.51	-1570.7428
3.5105	-1427.03247
3.511	-1155.02014
3.5115	-835.47363
3.512	-587.63123
3.5125	-505.25208
3.513	-431.83594
3.5135	-327.09961
3.514	-462.24976
3.5145	-1112.11853
3.515	-1774.07227
3.5155	-2193.01758
3.516	-2173.98364
3.5165	-1833.48999
3.517	-1240.52124
3.5175	-612.5061
3.518	-56.29578
3.5185	429.51965
3.519	864.67896
3.5195	1231.45752
3.52	1573.56262
3.5205	1668.22815
3.521	1626.83716
3.5215	1534.58862
3.522	1401.85547
3.5225	925.70801
3.523	-29.60815
3.5235	-1039.91089
3.524	-1707.50427
3.5245	-2243.77441
3.525	-2304.90405
3.5255	-1853.32947
3.526	-1184.12476
3.5265	-464.76746
3.527	244.51904
3.5275	890.56091
3.528	1394.40308
3.5285	1691.39099
3.529	1810.83069
3.5295	1950.6134
3.53	2122.9248
3.5305	2352.33765
3.531	2536.02905
3.5315	2551.63867
3.532	2307.11963
3.5325	1797.94006
3.533	1221.48743
3.5335	677.8656
3.534	147.63794
3.5345	-481.08215
3.535	-821.97876
3.5355	-890.96375
3.536	-806.26831
3.5365	-690.15198
3.537	-636.57532
3.5375	-626.3031
3.538	-549.66431
3.5385	-578.26538
3.539	-628.51868
3.5395	-575.04272
3.54	-461.74622
3.5405	-308.56934
3.541	-137.46643
3.5415	27.19116
3.542	169.59229
3.5425	275.73853
3.543	340.89661
3.5435	333.2428
3.544	332.73926
3.5445	475.14038
3.545	590.95459
3.5455	564.87122
3.546	406.96106
3.5465	225.58594
3.547	130.71899
3.5475	130.71899
3.548	130.41687
3.5485	54.18091
3.549	-113.39722
3.5495	-252.97852
3.55	-313.60474
3.5505	-370.10193
3.551	-440.79895
3.5515	-523.07739
3.552	-602.83813
3.5525	-637.5824
3.553	-608.6792
3.5535	-567.79175
3.554	-487.22534
3.5545	-383.29468
3.555	-272.41516
3.5555	-201.31531
3.556	-242.40417
3.5565	-238.77869
3.557	-232.93762
3.5575	-337.67395
3.558	-354.39148
3.5585	-259.72595
3.559	-422.87292
3.5595	-964.5813
3.56	-1662.99133
3.5605	-2022.61963
3.561	-2292.81909
3.5615	-2468.35327
3.562	-2308.02612
3.5625	-1797.33582
3.563	-1355.63049
3.5635	-912.51526
3.564	-405.75256
3.5645	-38.57117
3.565	345.93201
3.5655	753.39661
3.566	929.23279
3.5665	780.88989
3.567	709.68933
3.5675	944.13757
3.568	1232.36389
3.5685	1273.45276
3.569	1064.58435
3.5695	973.64502
3.57	1097.11304
3.5705	1386.84998
3.571	1571.54846
3.5715	1627.44141
3.572	1630.46265
3.5725	1523.51074
3.573	1255.52673
3.5735	841.3147
3.574	458.32214
3.5745	298.19641
3.575	167.98096
3.5755	-433.04443
3.576	-922.08252
3.5765	-1002.24609
3.577	-778.07007
3.5775	-453.68958
3.578	-152.77405
3.5785	144.71741
3.579	468.69507
3.5795	745.64209
3.58	969.51599
3.5805	1111.11145
3.581	1183.21838
3.5815	1237.70142
3.582	1048.47107
3.5825	636.77673
3.583	278.75977
3.5835	29.30603
3.584	-112.39014
3.5845	-254.69055
3.585	-475.74463
3.5855	-597.50061
3.586	-615.32593
3.5865	-531.13403
3.587	-393.76831
3.5875	-346.53625
3.588	-352.67944
3.5885	-311.8927
3.589	-218.43567
3.5895	-125.28076
3.59	-0.90637
3.5905	133.94165
3.591	224.98169
3.5915	90.13367
3.592	-250.05798
3.5925	-738.1897
3.593	-1377.68555
3.5935	-1738.0188
3.594	-1733.48694
3.5945	-1509.81445
3.595	-1233.06885
3.5955	-880.99365
3.596	-437.07275
3.5965	29.30603
3.597	420.85876
3.5975	714.52332
3.598	895.49561
3.5985	982.30591
3.599	951.18713
3.5995	889.95667
3.6	1071.93604
3.6005	1398.93494
3.601	1507.901
3.6015	952.89917
3.602	221.3562
3.6025	-266.37268
3.603	-546.94519
3.6035	-671.92383
3.604	-721.77429
3.6045	-755.8136
3.605	-960.15015
3.6055	-1076.36719
3.606	-991.97388
3.6065	-766.58936
3.607	-474.43542
3.6075	-214.70947
3.608	45.11719
3.6085	278.35693
3.609	489.13879
3.6095	651.98364
3.61	760.64758
3.6105	797.60742
3.611	826.51062
3.6115	931.04553
3.612	1029.03442
3.6125	1002.54822
3.613	834.26514
3.6135	635.66895
3.614	446.23718
3.6145	278.05481
3.615	164.55688
3.6155	76.63879
3.616	49.0448
3.6165	80.66711
3.617	126.69067
3.6175	172.51282
3.618	172.10999
3.6185	86.8103
3.619	-90.13367
3.6195	-363.15308
3.62	-596.69495
3.6205	-695.69092
3.621	-677.46277
3.6215	-630.23071
3.622	-548.15369
3.6225	-452.7832
3.623	-361.64246
3.6235	-389.94141
3.624	-484.40552
3.6245	-566.98608
3.625	-690.25269
3.6255	-859.84497
3.626	-964.68201
3.6265	-968.60962
3.627	-990.76538
3.6275	-1023.99902
3.628	-953.60413
3.6285	-905.96924
3.629	-1062.26807
3.6295	-1670.74585
3.63	-2202.98755
3.6305	-2107.31494
3.631	-1618.98193
3.6315	-922.58606
3.632	-327.20032
3.6325	117.32483
3.633	565.67688
3.6335	1079.79126
3.634	1483.83179
3.6345	1689.47754
3.635	1788.97705
3.6355	1879.91638
3.636	1998.24829
3.6365	2045.17822
3.637	2074.98779
3.6375	2032.89185
3.638	1821.10291
3.6385	1554.73022
3.639	1215.94849
3.6395	882.70569
3.64	608.77991
3.6405	339.88953
3.641	65.25879
3.6415	-509.2804
3.642	-1510.31799
3.6425	-2373.68774
3.643	-2927.98462
3.6435	-3207.04639
3.644	-3060.91919
3.6445	-2836.84375
3.645	-2480.94165
3.6455	-1834.29565
3.646	-1108.89587
3.6465	-424.68567
3.647	329.91943
3.6475	1075.76294
3.648	1674.47205
3.6485	1959.27429
3.649	2056.45752
3.6495	2125.24097
3.65	2221.51782
3.6505	2274.49023
3.651	2086.56909
3.6515	1786.66077
3.652	1541.73889
3.6525	1409.71069
3.653	1260.26001
3.6535	1002.64893
3.654	626.40381
3.6545	168.18237
3.655	-168.88733
3.6555	-499.10889
3.656	-722.88208
3.6565	-818.95752
3.657	-903.75366
3.6575	-898.31543
3.658	-805.76477
3.6585	-744.33289
3.659	-647.55249
3.6595	-499.41101
3.66	-302.52686
3.6605	-52.97241
3.661	217.42859
3.6615	463.15613
3.662	621.67053
3.6625	663.56506
3.663	575.14343
3.6635	517.03491
3.664	473.83118
3.6645	390.84778
3.665	277.14844
3.6655	190.74097
3.666	153.78113
3.6665	125.07935
3.667	109.87244
3.6675	111.08093
3.668	88.82446
3.6685	26.78833
3.669	-112.99438
3.6695	-276.54419
3.67	-396.68884
3.6705	-426.80054
3.671	-417.63611
3.6715	-466.47949
3.672	-507.87048
3.6725	-513.40942
3.673	-486.41968
3.6735	-464.46533
3.674	-493.56995
3.6745	-536.37085
3.675	-477.96021
3.6755	-372.3175
3.676	-248.44666
3.6765	-127.99988
3.677	-43.20374
3.6775	16.51611
3.678	81.7749
3.6785	82.68127
3.679	-345.62988
3.6795	-894.99207
3.68	-1355.22766
3.6805	-1893.91479
3.681	-2014.26086
3.6815	-1690.2832
3.682	-1134.17358
3.6825	-612.90894
3.683	-271.50879
3.6835	28.50037
3.684	334.04846
3.6845	544.32678
3.685	792.77344
3.6855	1063.9801
3.686	984.7229
3.6865	649.16382
3.687	275.53711
3.6875	120.44678
3.688	119.64111
3.6885	-6.14319
3.689	-86.50818
3.6895	-77.24304
3.69	69.79065
3.6905	361.23962
3.691	617.94434
3.6915	827.92053
3.692	937.49084
3.6925	871.82922
3.693	314.30969
3.6935	-511.49597
3.694	-950.48218
3.6945	-1038.29956
3.695	-1008.69141
3.6955	-783.5083
3.696	-384.70459
3.6965	63.24463
3.697	518.74695
3.6975	832.25098
3.698	1021.58203
3.6985	1164.68811
3.699	1326.42517
3.6995	1415.35034
3.7	1405.78308
3.7005	1322.79968
3.701	1240.72266
3.7015	1017.15088
3.702	516.32996
3.7025	-4.83398
3.703	-397.09167
3.7035	-721.97571
3.704	-893.88428
3.7045	-958.3374
3.705	-1000.43335
3.7055	-987.2406
3.706	-982.60803
3.7065	-867.39807
3.707	-597.60132
3.7075	-266.97693
3.708	86.8103
3.7085	420.65735
3.709	691.46118
3.7095	851.18408
3.71	888.54675
3.7105	874.95117
3.711	809.08813
3.7115	433.54797
3.712	-100.70801
3.7125	-370.80688
3.713	-324.4812
3.7135	-59.51843
3.714	167.07458
3.7145	218.63708
3.715	-57.70569
3.7155	-326.29395
3.716	-608.88062
3.7165	-757.02209
3.717	-774.84741
3.7175	-697.00012
3.718	-853.39966
3.7185	-972.83936
3.719	-825.90637
3.7195	-552.58484
3.72	-518.34412
3.7205	-724.69482
3.721	-675.95215
3.7215	-382.18689
3.722	35.2478
3.7225	478.46375
3.723	889.65454
3.7235	1289.66675
3.724	1493.39905
3.7245	1488.46436
3.725	1399.23706
3.7255	1315.34729
3.726	1243.7439
3.7265	1143.64014
3.727	875.2533
3.7275	682.80029
3.728	643.42346
3.7285	586.12061
3.729	412.70142
3.7295	177.54822
3.73	-166.57104
3.7305	-518.34412
3.731	-747.45483
3.7315	-842.42249
3.732	-847.55859
3.7325	-775.9552
3.733	-681.79321
3.7335	-828.02124
3.734	-924.70093
3.7345	-858.13293
3.735	-628.21655
3.7355	-342.81006
3.736	-18.02673
3.7365	276.34277
3.737	533.04749
3.7375	757.72705
3.738	862.16125
3.7385	820.46814
3.739	722.17712
3.7395	570.81299
3.74	430.42603
3.7405	355.59998
3.741	379.16565
3.7415	372.11609
3.742	322.86987
3.7425	235.65674
3.743	109.77173
3.7435	-1.3092
3.744	-164.55688
3.7445	-468.69507
3.745	-697.00012
3.7455	-869.51294
3.746	-930.34058
3.7465	-914.02588
3.747	-869.41223
3.7475	-705.96313
3.748	-504.64783
3.7485	-350.46387
3.749	-268.68896
3.7495	-192.453
3.75	-142.19971
3.7505	-263.04932
3.751	-561.14502
3.7515	-1298.42834
3.752	-1862.89673
3.7525	-2005.70068
3.753	-1788.27209
3.7535	-1439.01672
3.754	-1009.79919
3.7545	-542.21191
3.755	-79.45862
3.7555	266.07056
3.756	582.99866
3.7565	953.40271
3.757	1351.30005
3.7575	1713.14392
3.758	1925.93994
3.7585	1978.71094
3.759	1859.67407
3.7595	1636.00159
3.76	1328.0365
3.7605	879.48303
3.761	499.00818
3.7615	249.75586
3.762	129.40979
3.7625	74.12109
3.763	17.82532
3.7635	-40.08179
3.764	-487.9303
3.7645	-1139.20898
3.765	-2067.03174
3.7655	-2779.44019
3.766	-2929.59595
3.7665	-2566.44287
3.767	-1897.54028
3.7675	-1134.375
3.768	-344.52209
3.7685	342.91077
3.769	898.81897
3.7695	1363.68713
3.77	1666.71753
3.7705	1821.70715
3.771	1873.57178
3.7715	1887.26807
3.772	1733.18481
3.7725	1404.07104
3.773	961.66077
3.7735	185.60486
3.774	-505.15137
3.7745	-830.84106
3.775	-870.62073
3.7755	-688.33923
3.776	-427.20337
3.7765	-161.83777
3.777	95.06836
3.7775	340.99731
3.778	528.61633
3.7785	676.95923
3.779	739.39819
3.7795	752.49023
3.78	761.35254
3.7805	857.02515
3.781	1079.69055
3.7815	1232.26318
3.782	1184.22546
3.7825	869.91577
3.783	486.7218
3.7835	214.91089
3.784	68.98499
3.7845	-96.8811
3.785	-382.69043
3.7855	-734.4635
3.786	-1293.59436
3.7865	-2107.8186
3.787	-2896.56372
3.7875	3299.89917
3.788	-3277.34058
3.7885	-3261.63013
3.789	-3056.08521
3.7895	-2246.19141
3.79	-1304.87366
3.7905	-428.91541
3.791	273.92578
3.7915	857.42798
3.792	1328.33862
3.7925	1720.49561
3.793	2082.54077
3.7935	2450.02441
3.794	2757.78809
3.7945	2870.17822
3.795	2793.74072
3.7955	2512.56396
3.796	2073.17505
3.7965	1570.44067
3.797	1096.30737
3.7975	755.20935
3.798	612.5061
3.7985	536.37085
3.799	322.97058
3.7995	-137.96997
3.8	-537.98218
3.8005	-821.47522
3.801	-977.57263
3.8015	-1116.14685
3.802	-1439.11743
3.8025	-1530.86243
3.803	-1420.78857
3.8035	-1296.21277
3.804	-1278.68958
3.8045	-1487.86011
3.805	-1779.61121
3.8055	-1947.39075
3.806	-1824.92981
3.8065	-1420.08362
3.807	-872.33276
3.8075	-488.53455
3.808	-556.21033
3.8085	-598.30627
3.809	-323.37341
3.8095	128.90625
3.81	632.14417
3.8105	1107.48596
3.811	1464.29443
3.8115	1795.52307
3.812	2117.08374
3.8125	2336.42578
3.813	2387.58545
3.8135	2277.81372
3.814	1949.70703
3.8145	1444.75708
3.815	1069.21692
3.8155	768.09998
3.816	537.27722
3.8165	393.26477
3.817	334.95483
3.8175	265.66772
3.818	223.57178
3.8185	151.86768
3.819	72.40906
3.8195	30.51453
3.82	75.83313
3.8205	113.29651
3.821	61.02905
3.8215	-55.69153
3.822	-137.56714
3.8225	-371.20972
3.823	-574.94202
3.8235	-644.43054
3.824	-714.62402
3.8245	-1107.18384
3.825	-2007.51343
3.8255	-3204.52881
3.826	3299.89917
3.8265	-3278.75049
3.827	-3251.35791
3.8275	-2729.08618
3.828	-1886.86523
3.8285	-971.83228
3.829	-99.70093
3.8295	698.61145
3.83	1382.51953
3.8305	1860.58044
3.831	1854.53796
3.8315	1618.07556
3.832	1490.2771
3.8325	1580.10864
3.833	1938.62915
3.8335	2224.43848
3.834	2167.03491
3.8345	1904.0863
3.835	1555.03235
3.8355	1249.48425
3.836	1089.1571
3.8365	1063.9801
3.837	982.60803
3.8375	748.66333
3.838	515.72571
3.8385	338.07678
3.839	76.43738
3.8395	-202.12097
3.84	-563.05847
3.8405	-994.89441
3.841	-1543.45093
3.8415	-2872.09155
3.842	3284.08813
3.8425	3299.89917
3.843	-3283.88672
3.8435	-3267.97485
3.844	-3252.36499
3.8445	-2877.83203
3.845	-2176.80347
3.8455	-1480.40771
3.846	-661.14807
3.8465	243.91479
3.847	1113.42773
3.8475	1844.87
3.848	2407.92847
3.8485	2900.79346
3.849	3299.89917
3.8495	3299.89917
3.85	3299.89917
3.8505	3290.83545
3.851	3174.92065
3.8515	2756.68018
3.852	2325.85132
3.8525	1878.20435
3.853	1273.35205
3.8535	762.46033
3.854	286.41357
3.8545	-59.61914
3.855	-307.36084
3.8555	-450.76904
3.856	-492.76428
3.8565	-488.13171
3.857	-961.96289
3.8575	-1802.97546
3.858	-2183.34961
