Antonio_Festa_Right_3.c3d  



Time(s):	B_L_bicipite(μV):
0	44.0094
0.0005	42.90161
0.001	39.67896
0.0015	40.98816
0.002	41.08887
0.0025	33.43506
0.003	39.47754
0.0035	36.75842
0.004	27.39258
0.0045	17.82532
0.005	18.42957
0.0055	9.86938
0.006	-6.84814
0.0065	-16.91895
0.007	-17.32178
0.0075	-19.23523
0.008	-22.96143
0.0085	-13.99841
0.009	-12.99133
0.0095	-7.65381
0.01	-3.32336
0.0105	-5.74036
0.011	-1.3092
0.0115	-1.40991
0.012	-4.63257
0.0125	-12.18567
0.013	-23.96851
0.0135	-23.66638
0.014	-33.13293
0.0145	-35.85205
0.015	-35.44922
0.0155	-33.23364
0.016	-22.15576
0.0165	-20.94727
0.017	-18.93311
0.0175	-18.8324
0.018	-11.68213
0.0185	-3.22266
0.019	1.61133
0.0195	15.50903
0.02	20.44373
0.0205	25.78125
0.021	32.52869
0.0215	29.50745
0.022	21.85364
0.0225	15.40833
0.023	13.59558
0.0235	18.53027
0.024	27.89612
0.0245	28.50037
0.025	34.64355
0.0255	36.05347
0.026	35.14709
0.0265	21.3501
0.027	15.00549
0.0275	1.61133
0.028	3.8269
0.0285	10.17151
0.029	13.29346
0.0295	13.89771
0.03	27.19116
0.0305	13.49487
0.031	16.3147
0.0315	18.42957
0.032	19.03381
0.0325	19.94019
0.033	14.19983
0.0335	14.30054
0.034	18.53027
0.0345	21.45081
0.035	21.75293
0.0355	18.73169
0.036	22.55859
0.0365	17.12036
0.037	13.19275
0.0375	4.93469
0.038	6.94885
0.0385	5.33752
0.039	-3.8269
0.0395	-4.02832
0.04	1.81274
0.0405	-0.50354
0.041	4.83398
0.0415	14.60266
0.042	14.09912
0.0425	10.17151
0.043	6.14319
0.0435	4.12903
0.044	-11.07788
0.0445	-22.96143
0.045	-36.05347
0.0455	-46.72852
0.046	-60.4248
0.0465	-84.59473
0.047	-114.70642
0.0475	-148.04077
0.048	-188.82751
0.0485	-224.37744
0.049	-248.34595
0.0495	-247.13745
0.05	-233.44116
0.0505	-211.88965
0.051	-162.44202
0.0515	-112.39014
0.052	-57.60498
0.0525	-9.56726
0.053	43.30444
0.0535	92.44995
0.054	136.25793
0.0545	173.72131
0.055	202.92664
0.0555	224.98169
0.056	231.02417
0.0565	209.67407
0.057	182.88574
0.0575	143.71033
0.058	90.23438
0.0585	50.95825
0.059	18.22815
0.0595	-5.84106
0.06	-15.30762
0.0605	-24.06921
0.061	-23.16284
0.0615	-30.01099
0.062	-28.60107
0.0625	-22.55859
0.063	-16.01257
0.0635	-15.60974
0.064	1.81274
0.0645	18.8324
0.065	31.21948
0.0655	53.57666
0.066	79.35791
0.0665	106.14624
0.067	114.4043
0.0675	107.65686
0.068	87.91809
0.0685	62.53967
0.069	41.69312
0.0695	22.25647
0.07	-0.60425
0.0705	-18.12744
0.071	-22.25647
0.0715	-23.76709
0.072	-33.03223
0.0725	-28.80249
0.073	-32.32727
0.0735	-36.65771
0.074	-40.78674
0.0745	-33.53577
0.075	-26.78833
0.0755	-21.14868
0.076	-4.12903
0.0765	15.50903
0.077	21.04797
0.0775	32.93152
0.078	46.42639
0.0785	54.0802
0.079	71.60339
0.0795	83.78906
0.08	92.34924
0.0805	96.27686
0.081	95.77332
0.0815	78.65295
0.082	58.51135
0.0825	43.80798
0.083	27.19116
0.0835	24.87488
0.084	25.177
0.0845	34.14001
0.085	37.16125
0.0855	34.64355
0.086	34.03931
0.0865	19.53735
0.087	11.2793
0.0875	-0.60425
0.088	-12.89062
0.0885	-12.48779
0.089	-19.13452
0.0895	-27.99683
0.09	-30.01099
0.0905	-24.87488
0.091	-21.75293
0.0915	-15.60974
0.092	-15.50903
0.0925	-30.81665
0.093	-51.05896
0.0935	-61.43188
0.094	-66.76941
0.0945	-83.18481
0.095	-89.328
0.0955	-99.19739
0.096	-95.67261
0.0965	-85.60181
0.097	-72.71118
0.0975	-60.02197
0.098	-43.90869
0.0985	-31.62231
0.099	-10.27222
0.0995	2.01416
0.1	17.6239
0.1005	24.06921
0.101	35.34851
0.1015	42.59949
0.102	45.92285
0.1025	59.82056
0.103	61.43188
0.1035	72.9126
0.104	69.38782
0.1045	70.79773
0.105	72.30835
0.1055	72.9126
0.106	76.7395
0.1065	82.78198
0.107	81.67419
0.1075	72.81189
0.108	65.86304
0.1085	55.49011
0.109	48.84338
0.1095	38.57117
0.11	35.04639
0.1105	27.29187
0.111	26.58691
0.1115	23.56567
0.112	17.12036
0.1125	17.82532
0.113	13.797
0.1135	11.78284
0.114	7.95593
0.1145	3.62549
0.115	3.8269
0.1155	7.85522
0.116	11.2793
0.1165	9.97009
0.117	0.30212
0.1175	-5.63965
0.118	-2.01416
0.1185	-3.02124
0.119	2.01416
0.1195	3.62549
0.12	3.32336
0.1205	1.2085
0.121	-0.60425
0.1215	-2.61841
0.122	-3.52478
0.1225	-7.75452
0.123	-2.21558
0.1235	-1.51062
0.124	-6.54602
0.1245	-6.44531
0.125	-6.04248
0.1255	-10.77576
0.126	-1.3092
0.1265	-0.20142
0.127	-2.92053
0.1275	-0.30212
0.128	-1.91345
0.1285	-10.0708
0.129	-9.36584
0.1295	-9.66797
0.13	0.20142
0.1305	-1.10779
0.131	-6.3446
0.1315	0.10071
0.132	0.90637
0.1325	2.21558
0.133	-0.40283
0.1335	0.90637
0.134	3.22266
0.1345	2.71912
0.135	5.23682
0.1355	4.93469
0.136	3.8269
0.1365	9.16443
0.137	4.12903
0.1375	5.23682
0.138	7.95593
0.1385	1.2085
0.139	-8.35876
0.1395	-12.5885
0.14	-30.01099
0.1405	-43.30444
0.141	-52.771
0.1415	-55.3894
0.142	-50.15259
0.1425	-53.57666
0.143	-47.43347
0.1435	-32.22656
0.144	-21.65222
0.1445	-9.56726
0.145	7.85522
0.1455	16.71753
0.146	30.31311
0.1465	42.90161
0.147	55.99365
0.1475	54.18091
0.148	48.33984
0.1485	40.1825
0.149	28.29895
0.1495	16.3147
0.15	21.45081
0.1505	10.17151
0.151	14.90479
0.1515	17.92603
0.152	9.97009
0.1525	14.80408
0.153	13.797
0.1535	9.56726
0.154	6.64673
0.1545	9.16443
0.155	6.74744
0.1555	7.04956
0.156	9.76868
0.1565	10.97717
0.157	1.51062
0.1575	3.62549
0.158	8.96301
0.1585	4.63257
0.159	1.40991
0.1595	-5.13611
0.16	2.71912
0.1605	0.90637
0.161	4.22974
0.1615	3.7262
0.162	8.15735
0.1625	8.56018
0.163	7.65381
0.1635	6.3446
0.164	11.98425
0.1645	13.09204
0.165	17.01965
0.1655	14.70337
0.166	15.81116
0.1665	5.43823
0.167	9.16443
0.1675	1.71204
0.168	-2.41699
0.1685	1.91345
0.169	-5.0354
0.1695	-2.31628
0.17	1.51062
0.1705	7.45239
0.171	6.84814
0.1715	-0.40283
0.172	7.85522
0.1725	2.61841
0.173	10.77576
0.1735	11.88354
0.174	11.17859
0.1745	9.56726
0.175	6.14319
0.1755	4.43115
0.176	1.2085
0.1765	5.43823
0.177	-3.02124
0.1775	-1.40991
0.178	0
0.1785	5.13611
0.179	12.78992
0.1795	18.22815
0.18	9.66797
0.1805	16.81824
0.181	10.47363
0.1815	5.43823
0.182	1.71204
0.1825	-5.63965
0.183	-20.54443
0.1835	-18.73169
0.184	-19.43665
0.1845	-22.55859
0.185	-21.14868
0.1855	-20.54443
0.186	-14.30054
0.1865	-12.18567
0.187	-9.46655
0.1875	-6.74744
0.188	-2.01416
0.1885	-3.02124
0.189	-3.42407
0.1895	-2.61841
0.19	-4.22974
0.1905	-2.41699
0.191	-1.61133
0.1915	-1.2085
0.192	-1.40991
0.1925	-2.21558
0.193	4.33044
0.1935	-0.70496
0.194	3.92761
0.1945	-5.13611
0.195	-10.37292
0.1955	-1.81274
0.196	-1.71204
0.1965	1.2085
0.197	8.25806
0.1975	16.71753
0.198	17.92603
0.1985	14.19983
0.199	19.53735
0.1995	23.56567
0.2	26.78833
0.2005	34.44214
0.201	36.95984
0.2015	31.62231
0.202	16.3147
0.2025	13.09204
0.203	1.81274
0.2035	-6.64673
0.204	-17.82532
0.2045	-29.80957
0.205	-44.0094
0.2055	-59.1156
0.206	-59.82056
0.2065	-55.2887
0.207	-49.64905
0.2075	-39.67896
0.208	-28.19824
0.2085	-16.41541
0.209	-2.11487
0.2095	13.39417
0.21	27.99683
0.2105	38.47046
0.211	59.01489
0.2115	70.69702
0.212	87.61597
0.2125	91.94641
0.213	94.06128
0.2135	87.91809
0.214	69.68994
0.2145	56.90002
0.215	44.31152
0.2155	26.88904
0.216	17.12036
0.2165	6.14319
0.217	14.19983
0.2175	17.92603
0.218	15.81116
0.2185	4.63257
0.219	-8.15735
0.2195	-18.32886
0.22	-23.16284
0.2205	-29.10461
0.221	-32.32727
0.2215	-36.85913
0.222	-33.63647
0.2225	-31.82373
0.223	-28.19824
0.2235	-30.61523
0.224	-23.06213
0.2245	-21.24939
0.225	-12.48779
0.2255	1.00708
0.226	6.2439
0.2265	16.21399
0.227	25.57983
0.2275	28.39966
0.228	38.77258
0.2285	48.44055
0.229	58.10852
0.2295	51.46179
0.23	52.06604
0.2305	52.67029
0.231	49.0448
0.2315	41.4917
0.232	29.70886
0.2325	25.37842
0.233	23.8678
0.2335	18.12744
0.234	15.20691
0.2345	16.61682
0.235	18.53027
0.2355	6.74744
0.236	10.0708
0.2365	16.3147
0.237	9.46655
0.2375	13.89771
0.238	7.75452
0.2385	6.3446
0.239	9.56726
0.2395	6.2439
0.24	7.75452
0.2405	7.15027
0.241	7.04956
0.2415	-11.07788
0.242	-14.70337
0.2425	-31.4209
0.243	-36.25488
0.2435	-48.94409
0.244	-70.69702
0.2445	-105.54199
0.245	-125.18005
0.2455	-146.53015
0.246	-161.53564
0.2465	-162.84485
0.247	-152.67334
0.2475	-135.25085
0.248	-119.64111
0.2485	-97.38464
0.249	-78.55225
0.2495	-45.3186
0.25	-15.91187
0.2505	23.96851
0.251	57.20215
0.2515	93.55774
0.252	129.81262
0.2525	161.13281
0.253	170.59937
0.2535	165.76538
0.254	149.24927
0.2545	144.31458
0.255	110.37598
0.2555	78.35083
0.256	57.50427
0.2565	48.03772
0.257	40.38391
0.2575	32.32727
0.258	19.83948
0.2585	12.18567
0.259	11.78284
0.2595	6.44531
0.26	4.53186
0.2605	5.13611
0.261	-2.61841
0.2615	-8.25806
0.262	-11.78284
0.2625	-9.26514
0.263	-12.08496
0.2635	-18.63098
0.264	-24.87488
0.2645	-37.26196
0.265	-43.90869
0.2655	-49.24622
0.266	-60.62622
0.2665	-67.27295
0.267	-60.4248
0.2675	-49.74976
0.268	-34.54285
0.2685	-12.78992
0.269	0.30212
0.2695	14.80408
0.27	19.03381
0.2705	19.63806
0.271	28.39966
0.2715	31.4209
0.272	46.22498
0.2725	47.7356
0.273	58.10852
0.2735	59.82056
0.274	48.33984
0.2745	37.36267
0.275	32.12585
0.2755	23.16284
0.276	20.74585
0.2765	34.03931
0.277	42.09595
0.2775	52.56958
0.278	55.3894
0.2785	56.39648
0.279	44.61365
0.2795	39.27612
0.28	41.08887
0.2805	31.11877
0.281	27.19116
0.2815	30.01099
0.282	29.00391
0.2825	25.177
0.283	29.70886
0.2835	21.45081
0.284	20.24231
0.2845	16.51611
0.285	11.07788
0.2855	12.38708
0.286	4.22974
0.2865	3.42407
0.287	1.00708
0.2875	-5.23682
0.288	-7.45239
0.2885	-6.04248
0.289	-0.10071
0.2895	-1.51062
0.29	-0.20142
0.2905	-4.02832
0.291	-1.2085
0.2915	-5.33752
0.292	-17.01965
0.2925	-17.01965
0.293	-32.7301
0.2935	-39.07471
0.294	-43.40515
0.2945	-38.57117
0.295	-36.55701
0.2955	-28.09753
0.296	-24.57275
0.2965	-15.30762
0.297	-7.04956
0.2975	1.10779
0.298	13.69629
0.2985	22.96143
0.299	31.4209
0.2995	36.4563
0.3	30.41382
0.3005	29.30603
0.301	21.85364
0.3015	22.05505
0.302	18.12744
0.3025	7.04956
0.303	4.22974
0.3035	-9.46655
0.304	-3.62549
0.3045	-4.73328
0.305	-6.44531
0.3055	-2.92053
0.306	-0.90637
0.3065	-4.53186
0.307	-0.50354
0.3075	2.31628
0.308	1.61133
0.3085	2.61841
0.309	11.98425
0.3095	6.94885
0.31	10.57434
0.3105	0.10071
0.311	-12.28638
0.3115	-25.88196
0.312	-34.74426
0.3125	-42.19666
0.313	-40.78674
0.3135	-40.58533
0.314	-30.61523
0.3145	-15.40833
0.315	-4.02832
0.3155	17.01965
0.316	26.58691
0.3165	34.74426
0.317	42.90161
0.3175	63.94958
0.318	75.73242
0.3185	82.37915
0.319	80.16357
0.3195	69.99207
0.32	56.09436
0.3205	32.42798
0.321	12.5885
0.3215	10.37292
0.322	9.46655
0.3225	16.3147
0.323	19.53735
0.3235	27.09045
0.324	25.68054
0.3245	20.64514
0.325	3.12195
0.3255	-22.45789
0.326	-52.46887
0.3265	-60.4248
0.327	-60.22339
0.3275	-65.46021
0.328	-56.49719
0.3285	-48.74268
0.329	-32.22656
0.3295	-18.73169
0.33	-9.26514
0.3305	1.51062
0.331	14.50195
0.3315	25.37842
0.332	42.49878
0.3325	54.0802
0.333	56.5979
0.3335	54.78516
0.334	39.77966
0.3345	35.14709
0.335	19.53735
0.3355	25.68054
0.336	16.01257
0.3365	5.0354
0.337	-4.73328
0.3375	-17.22107
0.338	-22.05505
0.3385	-22.35718
0.339	-18.63098
0.3395	-11.78284
0.34	1.00708
0.3405	5.63965
0.341	10.37292
0.3415	9.97009
0.342	18.42957
0.3425	20.54443
0.343	23.96851
0.3435	27.99683
0.344	27.09045
0.3445	17.22107
0.345	18.02673
0.3455	16.01257
0.346	23.46497
0.3465	20.04089
0.347	21.14868
0.3475	24.57275
0.348	29.70886
0.3485	33.73718
0.349	41.08887
0.3495	44.91577
0.35	41.39099
0.3505	41.18958
0.351	42.90161
0.3515	39.37683
0.352	22.55859
0.3525	16.41541
0.353	10.87646
0.3535	11.58142
0.354	13.69629
0.3545	4.93469
0.355	-6.74744
0.3555	-6.54602
0.356	-2.01416
0.3565	1.71204
0.357	-1.10779
0.3575	-5.23682
0.358	-7.5531
0.3585	-3.42407
0.359	-3.62549
0.3595	1.81274
0.36	3.52478
0.3605	1.71204
0.361	8.05664
0.3615	3.92761
0.362	9.56726
0.3625	-2.92053
0.363	-2.71912
0.3635	2.11487
0.364	-2.92053
0.3645	3.8269
0.365	0.10071
0.3655	-5.43823
0.366	-21.24939
0.3665	-33.23364
0.367	-53.27454
0.3675	-70.79773
0.368	-84.79614
0.3685	-104.63562
0.369	-130.71899
0.3695	-158.11157
0.37	-174.72839
0.3705	-180.36804
0.371	-175.83618
0.3715	-158.5144
0.372	-128.90625
0.3725	-88.82446
0.373	-58.10852
0.3735	-13.99841
0.374	15.00549
0.3745	44.91577
0.375	67.67578
0.3755	90.83862
0.376	104.53491
0.3765	106.04553
0.377	97.58606
0.3775	87.81738
0.378	60.4248
0.3785	25.98267
0.379	3.52478
0.3795	-15.60974
0.38	-49.0448
0.3805	-43.70728
0.381	-25.88196
0.3815	-5.74036
0.382	25.37842
0.3825	50.75684
0.383	70.49561
0.3835	91.04004
0.384	105.6427
0.3845	106.24695
0.385	97.78748
0.3855	102.21863
0.386	96.47827
0.3865	90.93933
0.387	84.79614
0.3875	79.55933
0.388	78.95508
0.3885	75.4303
0.389	70.79773
0.3895	64.55383
0.39	60.22339
0.3905	56.79932
0.391	56.29578
0.3915	58.71277
0.392	47.13135
0.3925	41.89453
0.393	41.29028
0.3935	39.07471
0.394	29.70886
0.3945	30.81665
0.395	24.37134
0.3955	23.66638
0.396	26.18408
0.3965	23.46497
0.397	20.54443
0.3975	14.70337
0.398	18.32886
0.3985	16.91895
0.399	15.50903
0.3995	16.3147
0.4	9.66797
0.4005	4.43115
0.401	9.36584
0.4015	10.0708
0.402	0.50354
0.4025	-4.73328
0.403	-17.6239
0.4035	-31.72302
0.404	-47.03064
0.4045	-59.21631
0.405	-70.19348
0.4055	-84.19189
0.406	-96.37756
0.4065	-92.85278
0.407	-87.21313
0.4075	-77.34375
0.408	-63.94958
0.4085	-43.10303
0.409	-19.33594
0.4095	2.11487
0.41	19.83948
0.4105	30.41382
0.411	44.61365
0.4115	62.23755
0.412	79.15649
0.4125	87.31384
0.413	72.40906
0.4135	54.18091
0.414	34.54285
0.4145	12.68921
0.415	1.40991
0.4155	-2.31628
0.416	-8.7616
0.4165	-16.91895
0.417	-17.92603
0.4175	-10.97717
0.418	-5.63965
0.4185	-2.11487
0.419	7.25098
0.4195	6.54602
0.42	11.58142
0.4205	9.26514
0.421	6.2439
0.4215	9.36584
0.422	2.11487
0.4225	-17.82532
0.423	-38.974
0.4235	-70.49561
0.424	-101.51367
0.4245	-124.17297
0.425	-134.74731
0.4255	-148.74573
0.426	-148.84644
0.4265	-126.38855
0.427	-104.03137
0.4275	-78.45154
0.428	-60.02197
0.4285	-37.7655
0.429	-4.12903
0.4295	19.83948
0.43	43.90869
0.4305	66.26587
0.431	85.90393
0.4315	93.25562
0.432	94.3634
0.4325	86.8103
0.433	80.56641
0.4335	78.55225
0.434	82.37915
0.4345	86.00464
0.435	81.27136
0.4355	66.87012
0.436	64.95667
0.4365	57.8064
0.437	45.92285
0.4375	43.50586
0.438	34.14001
0.4385	34.74426
0.439	36.15417
0.4395	30.81665
0.44	24.47205
0.4405	24.16992
0.441	20.44373
0.4415	23.06213
0.442	19.23523
0.4425	24.67346
0.443	25.57983
0.4435	29.30603
0.444	31.01807
0.4445	28.80249
0.445	29.30603
0.4455	26.78833
0.446	24.87488
0.4465	26.58691
0.447	28.70178
0.4475	21.85364
0.448	20.94727
0.4485	10.67505
0.449	3.32336
0.4495	-2.61841
0.45	-5.94177
0.4505	-8.96301
0.451	-13.39417
0.4515	-14.70337
0.452	-19.13452
0.4525	-20.74585
0.453	-13.09204
0.4535	-12.18567
0.454	-13.19275
0.4545	-12.5885
0.455	-17.32178
0.4555	-19.94019
0.456	-23.36426
0.4565	-13.99841
0.457	-12.68921
0.4575	-9.86938
0.458	-4.73328
0.4585	1.2085
0.459	1.40991
0.4595	4.33044
0.46	8.35876
0.4605	9.76868
0.461	4.02832
0.4615	-5.63965
0.462	-18.8324
0.4625	-31.52161
0.463	-49.44763
0.4635	-66.16516
0.464	-88.62305
0.4645	-122.56165
0.465	-148.74573
0.4655	-169.7937
0.466	-187.01477
0.4665	-193.25867
0.467	-178.45459
0.4675	-173.62061
0.468	-159.42078
0.4685	-140.99121
0.469	-120.84961
0.4695	-99.2981
0.47	-80.56641
0.4705	-56.79932
0.471	-23.76709
0.4715	18.93311
0.472	66.97083
0.4725	112.59155
0.473	144.11316
0.4735	157.10449
0.474	162.74414
0.4745	171.0022
0.475	169.89441
0.4755	163.4491
0.476	165.86609
0.4765	172.21069
0.477	172.61353
0.4775	167.47742
0.478	157.70874
0.4785	140.68909
0.479	127.89917
0.4795	100.30518
0.48	81.37207
0.4805	66.46729
0.481	57.30286
0.4815	55.2887
0.482	41.39099
0.4825	39.67896
0.483	32.62939
0.4835	32.02515
0.484	29.00391
0.4845	21.55151
0.485	15.30762
0.4855	15.1062
0.486	13.09204
0.4865	10.27222
0.487	12.99133
0.4875	12.5885
0.488	9.66797
0.4885	11.68213
0.489	9.56726
0.4895	8.56018
0.49	3.02124
0.4905	-2.01416
0.491	-5.53894
0.4915	-6.04248
0.492	-7.15027
0.4925	-11.17859
0.493	-9.46655
0.4935	-6.2439
0.494	-10.17151
0.4945	-12.28638
0.495	-11.07788
0.4955	-4.83398
0.496	-6.74744
0.4965	-8.7616
0.497	-13.69629
0.4975	-14.50195
0.498	-7.75452
0.4985	-10.17151
0.499	-9.26514
0.4995	-11.68213
0.5	-9.26514
0.5005	-20.1416
0.501	-26.3855
0.5015	-34.94568
0.502	-40.2832
0.5025	-49.44763
0.503	-49.44763
0.5035	-46.82922
0.504	-47.7356
0.5045	-54.58374
0.505	-56.69861
0.5055	-59.21631
0.506	-66.16516
0.5065	-67.47437
0.507	-75.63171
0.5075	-79.55933
0.508	-77.64587
0.5085	-80.56641
0.509	-81.17065
0.5095	-76.33667
0.51	-75.22888
0.5105	-65.56091
0.511	-52.8717
0.5115	-36.25488
0.512	-18.22815
0.5125	3.12195
0.513	18.32886
0.5135	36.4563
0.514	54.18091
0.5145	64.151
0.515	65.15808
0.5155	70.09277
0.516	68.17932
0.5165	72.61047
0.517	72.00623
0.5175	66.36658
0.518	67.97791
0.5185	69.79065
0.519	66.16516
0.5195	61.73401
0.52	56.5979
0.5205	47.33276
0.521	42.49878
0.5215	42.59949
0.522	42.8009
0.5225	39.37683
0.523	32.83081
0.5235	33.9386
0.524	36.55701
0.5245	31.72302
0.525	31.82373
0.5255	31.21948
0.526	35.34851
0.5265	30.51453
0.527	31.92444
0.5275	26.3855
0.528	31.21948
0.5285	30.91736
0.529	27.59399
0.5295	15.40833
0.53	16.01257
0.5305	15.50903
0.531	11.17859
0.5315	6.94885
0.532	4.02832
0.5325	5.74036
0.533	6.54602
0.5335	4.02832
0.534	5.43823
0.5345	1.81274
0.535	4.53186
0.5355	0.10071
0.536	-4.53186
0.5365	-10.77576
0.537	-14.40125
0.5375	-17.01965
0.538	-18.12744
0.5385	-21.45081
0.539	-27.19116
0.5395	-23.26355
0.54	-20.44373
0.5405	-14.60266
0.541	-12.38708
0.5415	-9.76868
0.542	-9.06372
0.5425	-2.01416
0.543	-4.53186
0.5435	-2.01416
0.544	2.01416
0.5445	4.43115
0.545	11.2793
0.5455	19.43665
0.546	17.72461
0.5465	10.57434
0.547	2.21558
0.5475	-6.74744
0.548	0.60425
0.5485	-1.10779
0.549	-0.20142
0.5495	-7.5531
0.55	-7.25098
0.5505	-17.22107
0.551	-30.01099
0.5515	-44.31152
0.552	-52.8717
0.5525	-75.4303
0.553	-65.3595
0.5535	-63.94958
0.554	-51.46179
0.5545	-31.82373
0.555	-24.87488
0.5555	-12.38708
0.556	0.10071
0.5565	11.88354
0.557	26.58691
0.5575	34.94568
0.558	52.26746
0.5585	71.90552
0.559	80.16357
0.5595	80.86853
0.56	68.68286
0.5605	57.9071
0.561	42.39807
0.5615	33.43506
0.562	24.06921
0.5625	17.72461
0.563	13.09204
0.5635	9.97009
0.564	4.43115
0.5645	6.14319
0.565	2.5177
0.5655	-1.61133
0.566	-4.12903
0.5665	-11.68213
0.567	-5.33752
0.5675	-14.30054
0.568	-10.0708
0.5685	-16.11328
0.569	-14.80408
0.5695	-25.177
0.57	-39.67896
0.5705	-54.38232
0.571	-66.16516
0.5715	-87.41455
0.572	-111.78589
0.5725	-156.60095
0.573	-197.68982
0.5735	-234.44824
0.574	-260.43091
0.5745	-270.30029
0.575	-266.97693
0.5755	-245.32471
0.576	-196.68274
0.5765	-146.42944
0.577	-94.66553
0.5775	-47.8363
0.578	3.32336
0.5785	57.30286
0.579	106.14624
0.5795	148.94714
0.58	199.50256
0.5805	224.98169
0.581	249.15161
0.5815	234.54895
0.582	207.4585
0.5825	172.91565
0.583	138.17139
0.5835	110.47668
0.584	111.58447
0.5845	128.20129
0.585	147.33582
0.5855	157.60803
0.586	155.39246
0.5865	156.50024
0.587	144.41528
0.5875	138.97705
0.588	121.75598
0.5885	100.70801
0.589	76.7395
0.5895	49.14551
0.59	16.91895
0.5905	-1.3092
0.591	-16.81824
0.5915	-26.58691
0.592	-25.37842
0.5925	-17.22107
0.593	-16.81824
0.5935	-11.78284
0.594	-7.35168
0.5945	3.8269
0.595	7.95593
0.5955	15.50903
0.596	27.39258
0.5965	32.42798
0.597	33.63647
0.5975	38.77258
0.598	44.0094
0.5985	41.69312
0.599	39.88037
0.5995	36.65771
0.6	24.87488
0.6005	12.38708
0.601	7.35168
0.6015	5.13611
0.602	3.92761
0.6025	3.62549
0.603	2.11487
0.6035	3.7262
0.604	2.11487
0.6045	-1.61133
0.605	3.62549
0.6055	6.44531
0.606	3.12195
0.6065	3.7262
0.607	1.10779
0.6075	-4.12903
0.608	-10.77576
0.6085	-7.65381
0.609	-6.04248
0.6095	-8.05664
0.61	-9.97009
0.6105	-15.81116
0.611	-14.80408
0.6115	-22.05505
0.612	-26.98975
0.6125	-27.59399
0.613	-32.42798
0.6135	-32.83081
0.614	-34.44214
0.6145	-39.67896
0.615	-29.60815
0.6155	-28.60107
0.616	-22.05505
0.6165	-15.20691
0.617	-15.1062
0.6175	-10.97717
0.618	-5.0354
0.6185	6.84814
0.619	6.14319
0.6195	6.44531
0.62	10.0708
0.6205	16.01257
0.621	13.59558
0.6215	3.52478
0.622	-10.27222
0.6225	-23.96851
0.623	-35.85205
0.6235	-32.12585
0.624	-26.98975
0.6245	-31.72302
0.625	-26.48621
0.6255	-17.52319
0.626	-4.53186
0.6265	17.22107
0.627	26.18408
0.6275	44.41223
0.628	47.93701
0.6285	60.3241
0.629	72.71118
0.6295	78.75366
0.63	78.25012
0.6305	65.3595
0.631	50.05188
0.6315	42.59949
0.632	37.46338
0.6325	28.29895
0.633	21.04797
0.6335	13.59558
0.634	17.01965
0.6345	13.59558
0.635	5.0354
0.6355	3.92761
0.636	1.2085
0.6365	1.00708
0.637	5.0354
0.6375	1.91345
0.638	7.04956
0.6385	4.63257
0.639	9.36584
0.6395	12.28638
0.64	8.05664
0.6405	8.66089
0.641	13.29346
0.6415	9.97009
0.642	11.68213
0.6425	3.32336
0.643	1.3092
0.6435	-1.91345
0.644	-9.46655
0.6445	-3.8269
0.645	-1.51062
0.6455	-5.84106
0.646	-7.15027
0.6465	-1.81274
0.647	-6.3446
0.6475	-12.89062
0.648	-11.17859
0.6485	-8.15735
0.649	-1.40991
0.6495	-6.94885
0.65	-9.26514
0.6505	-10.17151
0.651	-8.35876
0.6515	-16.3147
0.652	-19.13452
0.6525	-29.91028
0.653	-39.98108
0.6535	-45.62073
0.654	-43.10303
0.6545	-44.11011
0.655	-42.19666
0.6555	-43.60657
0.656	-38.36975
0.6565	-31.11877
0.657	-24.27063
0.6575	-8.7616
0.658	-4.33044
0.6585	2.5177
0.659	3.12195
0.6595	0.40283
0.66	6.2439
0.6605	11.68213
0.661	11.68213
0.6615	0.10071
0.662	8.7616
0.6625	17.12036
0.663	22.05505
0.6635	23.96851
0.664	21.95435
0.6645	21.45081
0.665	29.00391
0.6655	28.80249
0.666	25.78125
0.6665	23.66638
0.667	27.39258
0.6675	17.42249
0.668	24.67346
0.6685	23.36426
0.669	25.177
0.6695	26.78833
0.67	27.89612
0.6705	23.56567
0.671	24.97559
0.6715	26.88904
0.672	27.6947
0.6725	25.57983
0.673	26.3855
0.6735	18.22815
0.674	16.51611
0.6745	8.05664
0.675	8.56018
0.6755	5.74036
0.676	5.43823
0.6765	2.5177
0.677	1.3092
0.6775	4.53186
0.678	5.74036
0.6785	9.97009
0.679	12.48779
0.6795	5.13611
0.68	1.40991
0.6805	3.02124
0.681	4.22974
0.6815	2.71912
0.682	-2.11487
0.6825	-9.16443
0.683	-16.01257
0.6835	-9.06372
0.684	-14.30054
0.6845	-18.02673
0.685	-15.91187
0.6855	-11.98425
0.686	-13.29346
0.6865	-17.52319
0.687	-17.22107
0.6875	-11.07788
0.688	-17.01965
0.6885	-21.85364
0.689	-22.25647
0.6895	-17.42249
0.69	-16.91895
0.6905	-10.37292
0.691	-3.52478
0.6915	4.02832
0.692	11.48071
0.6925	19.73877
0.693	21.3501
0.6935	33.23364
0.694	41.79382
0.6945	42.7002
0.695	40.58533
0.6955	41.29028
0.696	32.12585
0.6965	19.63806
0.697	14.80408
0.6975	13.19275
0.698	12.18567
0.6985	18.32886
0.699	13.09204
0.6995	17.52319
0.7	21.3501
0.7005	20.64514
0.701	14.90479
0.7015	15.1062
0.702	11.2793
0.7025	10.47363
0.703	10.77576
0.7035	6.04248
0.704	3.52478
0.7045	1.40991
0.705	-2.5177
0.7055	10.17151
0.706	-0.70496
0.7065	-2.81982
0.707	1.10779
0.7075	9.76868
0.708	9.86938
0.7085	13.99841
0.709	8.7616
0.7095	-3.62549
0.71	-8.96301
0.7105	-22.35718
0.711	-26.98975
0.7115	-26.58691
0.712	-22.6593
0.7125	-14.40125
0.713	-9.86938
0.7135	-6.94885
0.714	-3.12195
0.7145	-4.63257
0.715	-5.43823
0.7155	-2.41699
0.716	-3.92761
0.7165	1.40991
0.717	4.22974
0.7175	-2.11487
0.718	0.80566
0.7185	2.01416
0.719	0.90637
0.7195	-0.10071
0.72	4.02832
0.7205	4.63257
0.721	1.3092
0.7215	1.3092
0.722	-0.80566
0.7225	-2.5177
0.723	0.70496
0.7235	2.01416
0.724	1.71204
0.7245	5.13611
0.725	4.33044
0.7255	3.22266
0.726	-7.04956
0.7265	-14.40125
0.727	-15.20691
0.7275	-16.11328
0.728	-5.13611
0.7285	-11.07788
0.729	-24.16992
0.7295	-38.67188
0.73	-48.44055
0.7305	-60.3241
0.731	-69.58923
0.7315	-69.08569
0.732	-55.08728
0.7325	-43.00232
0.733	-32.12585
0.7335	-10.47363
0.734	10.0708
0.7345	17.6239
0.735	16.71753
0.7355	27.19116
0.736	45.82214
0.7365	60.92834
0.737	75.73242
0.7375	79.55933
0.738	88.22021
0.7385	76.43738
0.739	72.61047
0.7395	60.3241
0.74	35.75134
0.7405	18.12744
0.741	19.63806
0.7415	15.81116
0.742	19.03381
0.7425	14.50195
0.743	21.3501
0.7435	22.15576
0.744	15.60974
0.7445	16.41541
0.745	18.12744
0.7455	1.40991
0.746	4.12903
0.7465	2.81982
0.747	4.12903
0.7475	-1.71204
0.748	-2.61841
0.7485	-9.97009
0.749	-17.52319
0.7495	-21.14868
0.75	-27.6947
0.7505	-34.24072
0.751	-31.11877
0.7515	-38.974
0.752	-37.86621
0.7525	-35.44922
0.753	-31.62231
0.7535	-29.70886
0.754	-15.20691
0.7545	-17.52319
0.755	-11.17859
0.7555	-0.40283
0.756	12.78992
0.7565	20.94727
0.757	19.94019
0.7575	17.32178
0.758	16.61682
0.7585	30.41382
0.759	35.75134
0.7595	44.21082
0.76	50.75684
0.7605	46.62781
0.761	50.2533
0.7615	47.33276
0.762	36.55701
0.7625	36.15417
0.763	24.97559
0.7635	17.6239
0.764	13.09204
0.7645	0.70496
0.765	-13.797
0.7655	-21.04797
0.766	-21.95435
0.7665	-14.70337
0.767	-9.86938
0.7675	2.21558
0.768	12.28638
0.7685	18.22815
0.769	20.94727
0.7695	24.06921
0.77	28.09753
0.7705	32.42798
0.771	29.00391
0.7715	33.33435
0.772	27.29187
0.7725	17.32178
0.773	3.8269
0.7735	-6.94885
0.774	-2.11487
0.7745	5.84106
0.775	16.81824
0.7755	10.37292
0.776	14.60266
0.7765	12.48779
0.777	13.99841
0.7775	8.56018
0.778	-0.40283
0.7785	10.97717
0.779	21.24939
0.7795	13.39417
0.78	17.82532
0.7805	9.86938
0.781	4.53186
0.7815	-2.61841
0.782	-1.40991
0.7825	-3.02124
0.783	-8.8623
0.7835	-13.99841
0.784	-22.25647
0.7845	-18.93311
0.785	-9.46655
0.7855	-11.58142
0.786	-15.71045
0.7865	-8.25806
0.787	-6.14319
0.7875	-4.63257
0.788	-3.32336
0.7885	-6.3446
0.789	-3.62549
0.7895	-0.90637
0.79	1.40991
0.7905	5.84106
0.791	7.65381
0.7915	13.29346
0.792	16.71753
0.7925	21.95435
0.793	23.96851
0.7935	25.88196
0.794	24.06921
0.7945	31.52161
0.795	37.66479
0.7955	38.36975
0.796	44.31152
0.7965	45.01648
0.797	45.2179
0.7975	40.58533
0.798	20.1416
0.7985	12.38708
0.799	-3.92761
0.7995	-11.98425
0.8	-9.16443
0.8005	2.21558
0.801	16.91895
0.8015	30.31311
0.802	28.09753
0.8025	25.57983
0.803	21.75293
0.8035	20.94727
0.804	5.53894
0.8045	-9.06372
0.805	-18.93311
0.8055	-25.177
0.806	-22.86072
0.8065	-18.53027
0.807	-19.63806
0.8075	-14.70337
0.808	-14.09912
0.8085	-11.58142
0.809	-2.31628
0.8095	-1.61133
0.81	4.53186
0.8105	-2.41699
0.811	-2.81982
0.8115	-5.63965
0.812	-3.52478
0.8125	-2.11487
0.813	-5.33752
0.8135	-2.21558
0.814	4.12903
0.8145	6.04248
0.815	2.61841
0.8155	0.90637
0.816	-3.42407
0.8165	-1.91345
0.817	-10.97717
0.8175	-19.73877
0.818	-22.35718
0.8185	-24.16992
0.819	-22.45789
0.8195	-20.84656
0.82	-20.74585
0.8205	-25.57983
0.821	-22.55859
0.8215	-14.40125
0.822	-5.53894
0.8225	-2.41699
0.823	8.35876
0.8235	5.63965
0.824	16.11328
0.8245	29.30603
0.825	35.95276
0.8255	45.92285
0.826	48.44055
0.8265	51.05896
0.827	54.18091
0.8275	48.54126
0.828	54.98657
0.8285	56.69861
0.829	52.06604
0.8295	38.974
0.83	18.32886
0.8305	-1.61133
0.831	-21.65222
0.8315	-28.60107
0.832	-14.30054
0.8325	-12.78992
0.833	-2.21558
0.8335	7.15027
0.834	10.97717
0.8345	13.59558
0.835	26.08337
0.8355	37.16125
0.836	48.03772
0.8365	58.41064
0.837	73.11401
0.8375	77.64587
0.838	78.65295
0.8385	73.31543
0.839	64.45312
0.8395	42.7002
0.84	34.74426
0.8405	27.99683
0.841	16.11328
0.8415	3.7262
0.842	4.02832
0.8425	2.21558
0.843	-3.32336
0.8435	-2.71912
0.844	-8.96301
0.8445	-2.21558
0.845	3.12195
0.8455	1.40991
0.846	0.50354
0.8465	6.14319
0.847	7.65381
0.8475	7.85522
0.848	12.48779
0.8485	12.08496
0.849	18.32886
0.8495	21.75293
0.85	19.33594
0.8505	21.14868
0.851	20.24231
0.8515	21.04797
0.852	21.3501
0.8525	18.93311
0.853	10.97717
0.8535	14.19983
0.854	14.19983
0.8545	9.16443
0.855	5.33752
0.8555	1.2085
0.856	3.7262
0.8565	-4.33044
0.857	-3.32336
0.8575	1.61133
0.858	1.61133
0.8585	1.2085
0.859	2.41699
0.8595	-0.70496
0.86	5.53894
0.8605	4.63257
0.861	2.21558
0.8615	12.68921
0.862	12.5885
0.8625	4.63257
0.863	7.45239
0.8635	3.02124
0.864	4.53186
0.8645	3.8269
0.865	7.45239
0.8655	6.74744
0.866	2.5177
0.8665	1.91345
0.867	-3.7262
0.8675	-4.43115
0.868	-4.83398
0.8685	-8.7616
0.869	-6.44531
0.8695	-6.84814
0.87	-19.33594
0.8705	-21.55151
0.871	-24.16992
0.8715	-26.58691
0.872	-29.60815
0.8725	-31.62231
0.873	-31.52161
0.8735	-30.61523
0.874	-20.44373
0.8745	-16.71753
0.875	-7.75452
0.8755	0.80566
0.876	14.80408
0.8765	26.28479
0.877	38.974
0.8775	47.43347
0.878	60.72693
0.8785	69.08569
0.879	70.59631
0.8795	66.36658
0.88	63.24463
0.8805	53.57666
0.881	56.49719
0.8815	45.92285
0.882	39.07471
0.8825	35.54993
0.883	30.61523
0.8835	29.60815
0.884	30.11169
0.8845	19.63806
0.885	13.49487
0.8855	16.21399
0.886	14.19983
0.8865	6.04248
0.887	4.12903
0.8875	3.8269
0.888	4.93469
0.8885	5.94177
0.889	6.64673
0.8895	12.89062
0.89	12.48779
0.8905	18.12744
0.891	21.04797
0.8915	29.30603
0.892	28.29895
0.8925	32.12585
0.893	26.3855
0.8935	14.70337
0.894	-4.43115
0.8945	-6.94885
0.895	-12.5885
0.8955	0.20142
0.896	6.04248
0.8965	3.92761
0.897	-8.45947
0.8975	-21.65222
0.898	-24.47205
0.8985	-24.67346
0.899	-18.63098
0.8995	-17.22107
0.9	-8.45947
0.9005	-0.60425
0.901	-2.41699
0.9015	-1.3092
0.902	-2.21558
0.9025	1.3092
0.903	1.61133
0.9035	-5.74036
0.904	-8.35876
0.9045	-3.02124
0.905	2.01416
0.9055	7.85522
0.906	1.51062
0.9065	2.11487
0.907	2.41699
0.9075	6.3446
0.908	2.41699
0.9085	11.48071
0.909	1.10779
0.9095	-4.63257
0.91	-8.66089
0.9105	-7.95593
0.911	-4.33044
0.9115	-0.70496
0.912	-1.61133
0.9125	-1.71204
0.913	4.53186
0.9135	1.40991
0.914	5.23682
0.9145	4.12903
0.915	1.81274
0.9155	0.20142
0.916	8.25806
0.9165	4.43115
0.917	4.02832
0.9175	1.61133
0.918	0
0.9185	-0.70496
0.919	-0.30212
0.9195	0.70496
0.92	-0.30212
0.9205	5.74036
0.921	1.2085
0.9215	0.60425
0.922	4.43115
0.9225	1.81274
0.923	-0.20142
0.9235	-3.12195
0.924	1.40991
0.9245	1.2085
0.925	2.81982
0.9255	2.11487
0.926	4.53186
0.9265	6.84814
0.927	11.78284
0.9275	11.07788
0.928	13.99841
0.9285	21.24939
0.929	24.77417
0.9295	21.95435
0.93	16.51611
0.9305	17.52319
0.931	20.04089
0.9315	16.51611
0.932	11.2793
0.9325	6.94885
0.933	5.13611
0.9335	-3.22266
0.934	-20.94727
0.9345	-30.31311
0.935	-42.19666
0.9355	-35.54993
0.936	-29.40674
0.9365	-10.0708
0.937	1.40991
0.9375	7.85522
0.938	3.52478
0.9385	5.33752
0.939	8.05664
0.9395	-2.21558
0.94	-10.47363
0.9405	-9.06372
0.941	-15.81116
0.9415	-9.16443
0.942	-13.59558
0.9425	-16.61682
0.943	-20.1416
0.9435	-20.1416
0.944	-18.32886
0.9445	-22.76001
0.945	-22.05505
0.9455	-26.3855
0.946	-29.00391
0.9465	-29.70886
0.947	-31.62231
0.9475	-36.05347
0.948	-35.95276
0.9485	-40.78674
0.949	-39.88037
0.9495	-43.70728
0.95	-39.07471
0.9505	-34.54285
0.951	-24.77417
0.9515	-15.30762
0.952	-8.7616
0.9525	-5.43823
0.953	3.62549
0.9535	2.81982
0.954	1.10779
0.9545	5.84106
0.955	5.23682
0.9555	4.43115
0.956	4.73328
0.9565	2.31628
0.957	8.25806
0.9575	10.87646
0.958	14.09912
0.9585	19.23523
0.959	19.23523
0.9595	22.86072
0.96	29.70886
0.9605	33.03223
0.961	30.31311
0.9615	31.4209
0.962	29.10461
0.9625	35.44922
0.963	32.02515
0.9635	38.36975
0.964	35.44922
0.9645	32.7301
0.965	35.44922
0.9655	24.97559
0.966	27.59399
0.9665	20.44373
0.967	18.8324
0.9675	14.60266
0.968	9.26514
0.9685	3.8269
0.969	-4.53186
0.9695	-21.55151
0.97	-29.80957
0.9705	-23.66638
0.971	-16.71753
0.9715	-14.09912
0.972	-12.99133
0.9725	0.80566
0.973	10.37292
0.9735	26.88904
0.974	35.54993
0.9745	42.7002
0.975	46.5271
0.9755	57.40356
0.976	60.02197
0.9765	56.19507
0.977	53.87878
0.9775	40.2832
0.978	26.28479
0.9785	21.24939
0.979	18.32886
0.9795	23.26355
0.98	19.13452
0.9805	30.71594
0.981	30.11169
0.9815	27.79541
0.982	29.30603
0.9825	26.3855
0.983	25.27771
0.9835	25.27771
0.984	22.35718
0.9845	23.66638
0.985	21.3501
0.9855	17.72461
0.986	13.69629
0.9865	12.78992
0.987	5.33752
0.9875	2.11487
0.988	-1.61133
0.9885	-8.15735
0.989	-14.90479
0.9895	-9.66797
0.99	-1.10779
0.9905	5.0354
0.991	5.23682
0.9915	9.36584
0.992	5.63965
0.9925	8.25806
0.993	8.8623
0.9935	10.67505
0.994	8.45947
0.9945	11.38
0.995	8.8623
0.9955	5.94177
0.996	0.50354
0.9965	9.76868
0.997	13.39417
0.9975	1.2085
0.998	7.75452
0.9985	9.26514
0.999	4.83398
0.9995	5.33752
1	5.33752
1.0005	2.81982
1.001	11.07788
1.0015	11.58142
1.002	11.2793
1.0025	14.30054
1.003	9.97009
1.0035	11.17859
1.004	7.35168
1.0045	7.95593
1.005	7.45239
1.0055	9.56726
1.006	11.17859
1.0065	11.58142
1.007	6.14319
1.0075	9.76868
1.008	8.25806
1.0085	8.56018
1.009	10.17151
1.0095	6.54602
1.01	7.85522
1.0105	8.56018
1.011	12.99133
1.0115	9.86938
1.012	4.22974
1.0125	7.75452
1.013	3.92761
1.0135	5.63965
1.014	11.68213
1.0145	8.45947
1.015	4.53186
1.0155	2.81982
1.016	3.12195
1.0165	3.52478
1.017	4.53186
1.0175	6.54602
1.018	11.07788
1.0185	7.15027
1.019	6.2439
1.0195	4.22974
1.02	7.15027
1.0205	4.12903
1.021	1.10779
1.0215	1.2085
1.022	0
1.0225	4.63257
1.023	3.42407
1.0235	11.2793
1.024	11.48071
1.0245	7.25098
1.025	0.30212
1.0255	4.12903
1.026	1.00708
1.0265	1.71204
1.027	2.01416
1.0275	-2.5177
1.028	4.43115
1.0285	3.22266
1.029	-0.10071
1.0295	0.90637
1.03	2.81982
1.0305	0.40283
1.031	-1.3092
1.0315	5.84106
1.032	3.02124
1.0325	5.84106
1.033	5.53894
1.0335	3.32336
1.034	6.64673
1.0345	10.0708
1.035	7.75452
1.0355	6.44531
1.036	11.98425
1.0365	2.61841
1.037	2.21558
1.0375	5.23682
1.038	-5.74036
1.0385	2.21558
1.039	2.92053
1.0395	-1.61133
1.04	-8.7616
1.0405	-12.5885
1.041	-16.41541
1.0415	-10.47363
1.042	-18.42957
1.0425	-19.13452
1.043	-19.94019
1.0435	-17.32178
1.044	-21.55151
1.0445	-17.92603
1.045	-17.12036
1.0455	-12.5885
1.046	-3.02124
1.0465	8.66089
1.047	6.44531
1.0475	11.78284
1.048	6.74744
1.0485	9.06372
1.049	7.04956
1.0495	11.48071
1.05	13.89771
1.0505	6.94885
1.051	9.16443
1.0515	10.67505
1.052	4.73328
1.0525	-4.73328
1.053	-4.53186
1.0535	-3.32336
1.054	-0.60425
1.0545	7.75452
1.055	12.08496
1.0555	8.96301
1.056	10.37292
1.0565	16.21399
1.057	7.35168
1.0575	11.78284
1.058	13.797
1.0585	12.18567
1.059	16.91895
1.0595	14.80408
1.06	19.13452
1.0605	15.71045
1.061	17.12036
1.0615	16.91895
1.062	16.21399
1.0625	10.37292
1.063	9.66797
1.0635	10.67505
1.064	12.68921
1.0645	7.75452
1.065	3.32336
1.0655	1.51062
1.066	-5.74036
1.0665	-7.15027
1.067	-17.92603
1.0675	-20.34302
1.068	-33.33435
1.0685	-43.70728
1.069	-44.0094
1.0695	-45.52002
1.07	-45.52002
1.0705	-46.62781
1.071	-46.72852
1.0715	-44.51294
1.072	-36.85913
1.0725	-36.75842
1.073	-32.02515
1.0735	-22.76001
1.074	-20.74585
1.0745	-11.88354
1.075	-6.44531
1.0755	7.5531
1.076	16.21399
1.0765	24.77417
1.077	36.05347
1.0775	40.08179
1.078	48.23914
1.0785	49.54834
1.079	42.90161
1.0795	29.30603
1.08	19.94019
1.0805	3.92761
1.081	0.10071
1.0815	-6.04248
1.082	-7.95593
1.0825	-5.33752
1.083	2.81982
1.0835	17.72461
1.084	26.88904
1.0845	33.83789
1.085	36.75842
1.0855	47.33276
1.086	60.02197
1.0865	60.4248
1.087	63.04321
1.0875	59.01489
1.088	52.26746
1.0885	36.35559
1.089	24.97559
1.0895	23.06213
1.09	22.45789
1.0905	23.8678
1.091	22.86072
1.0915	21.55151
1.092	25.47913
1.0925	21.24939
1.093	15.40833
1.0935	7.75452
1.094	0
1.0945	-4.12903
1.095	0.10071
1.0955	9.16443
1.096	5.74036
1.0965	2.81982
1.097	8.96301
1.0975	2.71912
1.098	-4.22974
1.0985	-20.24231
1.099	-27.89612
1.0995	-35.14709
1.1	-44.91577
1.1005	-50.45471
1.101	-42.19666
1.1015	-46.5271
1.102	-42.49878
1.1025	-40.88745
1.103	-35.34851
1.1035	-28.19824
1.104	-26.78833
1.1045	-26.3855
1.105	-18.93311
1.1055	-13.29346
1.106	0.30212
1.1065	6.44531
1.107	13.59558
1.1075	17.22107
1.108	23.46497
1.1085	19.23523
1.109	25.47913
1.1095	31.62231
1.11	28.19824
1.1105	23.8678
1.111	12.08496
1.1115	2.41699
1.112	-5.94177
1.1125	-12.38708
1.113	-11.2793
1.1135	-14.30054
1.114	-17.6239
1.1145	-17.72461
1.115	-19.73877
1.1155	-16.61682
1.116	-7.5531
1.1165	-8.8623
1.117	-9.06372
1.1175	-0.10071
1.118	12.18567
1.1185	33.33435
1.119	38.57117
1.1195	46.12427
1.12	46.82922
1.1205	51.36108
1.121	48.33984
1.1215	46.62781
1.122	38.87329
1.1225	45.3186
1.123	43.90869
1.1235	45.01648
1.124	47.33276
1.1245	45.11719
1.125	46.02356
1.1255	44.31152
1.126	45.41931
1.1265	45.3186
1.127	28.70178
1.1275	20.54443
1.128	16.01257
1.1285	18.73169
1.129	17.12036
1.1295	15.40833
1.13	16.01257
1.1305	19.63806
1.131	18.42957
1.1315	15.1062
1.132	7.04956
1.1325	5.43823
1.133	8.56018
1.1335	16.01257
1.134	14.40125
1.1345	10.87646
1.135	-1.3092
1.1355	0.60425
1.136	-4.63257
1.1365	-3.8269
1.137	-14.09912
1.1375	-27.99683
1.138	-30.01099
1.1385	-25.47913
1.139	-20.94727
1.1395	-9.46655
1.14	-5.94177
1.1405	-12.5885
1.141	-8.8623
1.1415	-6.64673
1.142	-14.50195
1.1425	-15.91187
1.143	-17.72461
1.1435	-17.6239
1.144	-17.12036
1.1445	-19.43665
1.145	-16.01257
1.1455	-24.47205
1.146	-38.47046
1.1465	-48.03772
1.147	-46.42639
1.1475	-52.16675
1.148	-49.85046
1.1485	-52.97241
1.149	-60.12268
1.1495	-64.05029
1.15	-67.67578
1.1505	-61.12976
1.151	-62.03613
1.1515	-65.66162
1.152	-65.76233
1.1525	-61.93542
1.153	-59.21631
1.1535	-56.79932
1.154	-47.43347
1.1545	-43.60657
1.155	-33.33435
1.1555	-25.27771
1.156	-24.37134
1.1565	-24.87488
1.157	-20.84656
1.1575	-17.32178
1.158	-16.21399
1.1585	-17.52319
1.159	-12.08496
1.1595	-8.45947
1.16	-1.40991
1.1605	8.15735
1.161	14.50195
1.1615	3.62549
1.162	-10.87646
1.1625	-15.81116
1.163	-30.41382
1.1635	-39.88037
1.164	-53.77808
1.1645	-69.28711
1.165	-74.02039
1.1655	-70.89844
1.166	-70.29419
1.1665	-66.87012
1.167	-46.32568
1.1675	-13.09204
1.168	19.53735
1.1685	66.87012
1.169	105.44128
1.1695	134.84802
1.17	164.45618
1.1705	184.39636
1.171	200.71106
1.1715	219.94629
1.172	221.45691
1.1725	207.05566
1.173	185.20203
1.1735	161.23352
1.174	128.10059
1.1745	93.15491
1.175	80.16357
1.1755	80.16357
1.176	69.48853
1.1765	53.97949
1.177	15.20691
1.1775	-18.02673
1.178	-48.33984
1.1785	-66.16516
1.179	-80.26428
1.1795	-90.13367
1.18	-94.76624
1.1805	-105.44128
1.181	-122.56165
1.1815	-127.59705
1.182	-134.34448
1.1825	-134.84802
1.183	-125.58289
1.1835	-115.00854
1.184	-84.79614
1.1845	-55.99365
1.185	-27.29187
1.1855	-3.8269
1.186	10.97717
1.1865	22.05505
1.187	34.84497
1.1875	51.76392
1.188	66.87012
1.1885	81.47278
1.189	87.61597
1.1895	91.745
1.19	80.66711
1.1905	62.33826
1.191	33.43506
1.1915	14.80408
1.192	4.73328
1.1925	-3.02124
1.193	2.01416
1.1935	17.01965
1.194	18.63098
1.1945	25.47913
1.195	46.72852
1.1955	60.82764
1.196	66.6687
1.1965	70.89844
1.197	93.35632
1.1975	110.77881
1.198	120.44678
1.1985	126.38855
1.199	124.87793
1.1995	101.01013
1.2	78.55225
1.2005	64.85596
1.201	49.24622
1.2015	47.13135
1.202	46.42639
1.2025	41.69312
1.203	41.59241
1.2035	35.14709
1.204	30.91736
1.2045	24.97559
1.205	16.11328
1.2055	6.94885
1.206	-6.2439
1.2065	-4.02832
1.207	-8.96301
1.2075	-14.19983
1.208	-14.60266
1.2085	-23.76709
1.209	-23.56567
1.2095	-21.65222
1.21	-27.19116
1.2105	-29.20532
1.211	-32.62939
1.2115	-23.16284
1.212	-23.76709
1.2125	-30.71594
1.213	-31.82373
1.2135	-41.39099
1.214	-42.90161
1.2145	-53.57666
1.215	-60.72693
1.2155	-59.92126
1.216	-62.23755
1.2165	-59.82056
1.217	-62.13684
1.2175	-55.3894
1.218	-52.771
1.2185	-52.67029
1.219	-43.70728
1.2195	-32.93152
1.22	-30.81665
1.2205	-22.25647
1.221	-9.86938
1.2215	-1.3092
1.222	5.33752
1.2225	1.10779
1.223	-1.81274
1.2235	-11.2793
1.224	-20.44373
1.2245	-28.19824
1.225	-40.08179
1.2255	-47.13135
1.226	-40.78674
1.2265	-44.51294
1.227	-42.49878
1.2275	-50.354
1.228	-49.34692
1.2285	-50.15259
1.229	-40.48462
1.2295	-21.14868
1.23	-14.09912
1.2305	-10.67505
1.231	-11.68213
1.2315	-7.95593
1.232	-17.12036
1.2325	-24.87488
1.233	-50.65613
1.2335	-76.03455
1.234	-113.29651
1.2345	-148.74573
1.235	-182.3822
1.2355	-196.58203
1.236	-211.58752
1.2365	-201.51672
1.237	-180.26733
1.2375	-141.39404
1.238	-98.39172
1.2385	-51.66321
1.239	-4.53186
1.2395	38.47046
1.24	72.71118
1.2405	104.93774
1.241	132.83386
1.2415	159.92432
1.242	177.14539
1.2425	191.44592
1.243	200.20752
1.2435	191.94946
1.244	179.15955
1.2445	148.54431
1.245	118.33191
1.2455	84.49402
1.246	69.99207
1.2465	62.23755
1.247	56.49719
1.2475	28.9032
1.248	6.94885
1.2485	-0.60425
1.249	0.80566
1.2495	2.92053
1.25	5.0354
1.2505	7.35168
1.251	11.07788
1.2515	7.04956
1.252	11.38
1.2525	5.94177
1.253	11.07788
1.2535	9.66797
1.254	5.33752
1.2545	4.73328
1.255	9.86938
1.2555	7.25098
1.256	8.25806
1.2565	1.3092
1.257	3.42407
1.2575	-2.71912
1.258	5.53894
1.2585	16.01257
1.259	12.48779
1.2595	11.88354
1.26	1.10779
1.2605	-4.12903
1.261	-6.04248
1.2615	-4.93469
1.262	-1.00708
1.2625	2.61841
1.263	0.50354
1.2635	-3.52478
1.264	0.10071
1.2645	-5.94177
1.265	-10.77576
1.2655	-22.76001
1.266	-32.42798
1.2665	-48.64197
1.267	-58.10852
1.2675	-65.56091
1.268	-73.81897
1.2685	-71.80481
1.269	-73.81897
1.2695	-66.97083
1.27	-54.88586
1.2705	-55.49011
1.271	-43.40515
1.2715	-31.52161
1.272	-29.40674
1.2725	-18.63098
1.273	-13.49487
1.2735	-3.02124
1.274	11.68213
1.2745	14.40125
1.275	25.27771
1.2755	18.73169
1.276	12.28638
1.2765	12.68921
1.277	14.90479
1.2775	19.13452
1.278	24.06921
1.2785	28.60107
1.279	43.90869
1.2795	51.76392
1.28	51.96533
1.2805	49.34692
1.281	41.89453
1.2815	33.13293
1.282	19.33594
1.2825	3.92761
1.283	-8.05664
1.2835	-29.30603
1.284	-54.18091
1.2845	-76.13525
1.285	-95.26978
1.2855	-106.54907
1.286	-118.73474
1.2865	-121.45386
1.287	-125.48218
1.2875	-122.25952
1.288	-111.78589
1.2885	-90.83862
1.289	-73.71826
1.2895	-53.87878
1.29	-29.10461
1.2905	-10.47363
1.291	11.88354
1.2915	29.50745
1.292	44.51294
1.2925	50.65613
1.293	62.8418
1.2935	68.88428
1.294	78.04871
1.2945	83.88977
1.295	85.80322
1.2955	66.16516
1.296	36.75842
1.2965	14.60266
1.297	-1.81274
1.2975	-22.05505
1.298	-25.78125
1.2985	-34.54285
1.299	-43.10303
1.2995	-46.5271
1.3	-54.78516
1.3005	-61.73401
1.301	-66.56799
1.3015	-70.3949
1.302	-66.56799
1.3025	-57.10144
1.303	-48.94409
1.3035	-51.76392
1.304	-53.17383
1.3045	-40.08179
1.305	-18.32886
1.3055	-1.91345
1.306	22.15576
1.3065	41.08887
1.307	47.43347
1.3075	45.72144
1.308	39.67896
1.3085	38.16833
1.309	47.03064
1.3095	60.62622
1.31	76.43738
1.3105	78.65295
1.311	72.50977
1.3115	57.10144
1.312	44.31152
1.3125	43.30444
1.313	38.77258
1.3135	49.44763
1.314	57.30286
1.3145	65.56091
1.315	75.53101
1.3155	87.31384
1.316	99.2981
1.3165	107.25403
1.317	109.57031
1.3175	112.99438
1.318	113.80005
1.3185	101.41296
1.319	91.44287
1.3195	65.66162
1.32	42.39807
1.3205	29.50745
1.321	18.12744
1.3215	5.63965
1.322	-4.83398
1.3225	-7.95593
1.323	-19.33594
1.3235	-19.94019
1.324	-23.26355
1.3245	-19.94019
1.325	-25.57983
1.3255	-26.58691
1.326	-25.57983
1.3265	-15.40833
1.327	-15.30762
1.3275	-11.88354
1.328	-5.0354
1.3285	-3.32336
1.329	-1.71204
1.3295	-1.40991
1.33	-0.10071
1.3305	-5.43823
1.331	-2.71912
1.3315	-2.31628
1.332	4.02832
1.3325	7.85522
1.333	10.17151
1.3335	16.21399
1.334	14.40125
1.3345	12.48779
1.335	4.02832
1.3355	2.61841
1.336	-3.7262
1.3365	-16.71753
1.337	-23.46497
1.3375	-40.68604
1.338	-59.31702
1.3385	-77.24304
1.339	-95.67261
1.3395	-108.66394
1.34	-132.12891
1.3405	-163.5498
1.341	-187.92114
1.3415	-198.29407
1.342	-210.88257
1.3425	-202.12097
1.343	-183.79211
1.3435	-156.39954
1.344	-118.43262
1.3445	-75.22888
1.345	-39.07471
1.3455	3.52478
1.346	41.59241
1.3465	70.19348
1.347	102.72217
1.3475	133.63953
1.348	155.29175
1.3485	169.08875
1.349	168.58521
1.3495	149.14856
1.35	114.80713
1.3505	79.55933
1.351	58.51135
1.3515	35.65063
1.352	22.05505
1.3525	24.06921
1.353	33.23364
1.3535	39.77966
1.354	46.32568
1.3545	44.71436
1.355	45.11719
1.3555	44.41223
1.356	48.74268
1.3565	49.74976
1.357	56.39648
1.3575	45.11719
1.358	43.40515
1.3585	39.57825
1.359	27.99683
1.3595	16.81824
1.36	1.00708
1.3605	-10.67505
1.361	-16.11328
1.3615	-18.32886
1.362	-19.03381
1.3625	-24.47205
1.363	-19.63806
1.3635	-11.98425
1.364	-17.92603
1.3645	-24.37134
1.365	-31.72302
1.3655	-38.87329
1.366	-39.27612
1.3665	-40.38391
1.367	-46.72852
1.3675	-82.07703
1.368	-124.97864
1.3685	-166.0675
1.369	-205.14221
1.3695	-229.51355
1.37	-244.41833
1.3705	-266.87622
1.371	-298.49854
1.3715	-320.6543
1.372	-318.1366
1.3725	-287.31995
1.373	-245.62683
1.3735	-198.49548
1.374	-144.31458
1.3745	-91.44287
1.375	-43.20374
1.3755	-10.57434
1.376	21.65222
1.3765	45.62073
1.377	78.04871
1.3775	105.6427
1.378	138.27209
1.3785	146.83228
1.379	137.26501
1.3795	116.11633
1.38	102.21863
1.3805	94.76624
1.381	98.29102
1.3815	103.62854
1.382	130.41687
1.3825	160.42786
1.383	180.06592
1.3835	187.21619
1.384	172.10999
1.3845	141.19263
1.385	115.81421
1.3855	99.80164
1.386	72.40906
1.3865	45.72144
1.387	23.36426
1.3875	-0.80566
1.388	-19.63806
1.3885	-37.86621
1.389	-51.86462
1.3895	-54.88586
1.39	-59.21631
1.3905	-57.8064
1.391	-59.31702
1.3915	-71.20056
1.392	-75.93384
1.3925	-61.93542
1.393	-43.60657
1.3935	-12.68921
1.394	9.06372
1.3945	29.10461
1.395	47.53418
1.3955	66.46729
1.396	90.43579
1.3965	117.92908
1.397	132.53174
1.3975	140.48767
1.398	150.55847
1.3985	169.29016
1.399	168.4845
1.3995	154.78821
1.4	131.52466
1.4005	106.64978
1.401	80.66711
1.4015	56.19507
1.402	36.85913
1.4025	25.68054
1.403	15.91187
1.4035	6.2439
1.404	-2.5177
1.4045	-4.02832
1.405	-1.71204
1.4055	-19.83948
1.406	-27.29187
1.4065	-27.6947
1.407	-25.47913
1.4075	-25.37842
1.408	-17.32178
1.4085	-15.00549
1.409	-32.7301
1.4095	-54.28162
1.41	-73.51685
1.4105	-91.44287
1.411	-105.6427
1.4115	-120.24536
1.412	-127.79846
1.4125	-128.80554
1.413	-116.922
1.4135	-98.99597
1.414	-74.42322
1.4145	-38.974
1.415	-15.71045
1.4155	8.96301
1.416	30.2124
1.4165	50.55542
1.417	67.57507
1.4175	75.22888
1.418	86.40747
1.4185	99.2981
1.419	104.83704
1.4195	110.07385
1.42	98.99597
1.4205	85.19897
1.421	63.34534
1.4215	36.15417
1.422	23.16284
1.4225	14.70337
1.423	6.74744
1.4235	13.89771
1.424	19.63806
1.4245	26.78833
1.425	21.75293
1.4255	20.54443
1.426	5.43823
1.4265	-19.03381
1.427	-39.88037
1.4275	-50.354
1.428	-53.17383
1.4285	-57.40356
1.429	-65.25879
1.4295	-73.71826
1.43	-70.49561
1.4305	-60.62622
1.431	-39.07471
1.4315	-22.6593
1.432	-9.46655
1.4325	-4.93469
1.433	-11.78284
1.4335	-18.53027
1.434	-20.74585
1.4345	-19.43665
1.435	-12.48779
1.4355	-13.89771
1.436	-10.77576
1.4365	-0.80566
1.437	11.78284
1.4375	25.27771
1.438	45.41931
1.4385	67.8772
1.439	78.04871
1.4395	90.63721
1.44	104.53491
1.4405	115.41138
1.441	132.0282
1.4415	134.14307
1.442	131.02112
1.4425	113.90076
1.443	94.96765
1.4435	85.90393
1.444	77.44446
1.4445	57.20215
1.445	39.07471
1.4455	15.81116
1.446	9.76868
1.4465	0.10071
1.447	4.93469
1.4475	1.40991
1.448	9.26514
1.4485	12.18567
1.449	7.65381
1.4495	6.2439
1.45	4.22974
1.4505	-2.81982
1.451	-6.2439
1.4515	-9.97009
1.452	-14.30054
1.4525	-25.88196
1.453	-25.177
1.4535	-33.9386
1.454	-32.02515
1.4545	-31.32019
1.455	-29.70886
1.4555	-25.177
1.456	-29.80957
1.4565	-56.90002
1.457	-102.42004
1.4575	-149.34998
1.458	-194.87
1.4585	-229.81567
1.459	-265.76843
1.4595	-291.44897
1.46	-297.89429
1.4605	-281.88171
1.461	-245.92896
1.4615	-213.70239
1.462	-175.13123
1.4625	-134.64661
1.463	-79.96216
1.4635	-28.9032
1.464	17.42249
1.4645	66.56799
1.465	107.15332
1.4655	141.69617
1.466	167.98096
1.4665	180.67017
1.467	180.67017
1.4675	169.69299
1.468	144.51599
1.4685	91.14075
1.469	33.33435
1.4695	-4.02832
1.47	-35.04639
1.4705	-52.26746
1.471	-50.354
1.4715	-30.91736
1.472	-6.84814
1.4725	29.80957
1.473	52.8717
1.4735	64.75525
1.474	76.94092
1.4745	102.31934
1.475	117.52625
1.4755	139.48059
1.476	149.24927
1.4765	159.92432
1.477	152.37122
1.4775	135.55298
1.478	114.20288
1.4785	84.59473
1.479	54.88586
1.4795	28.29895
1.48	17.22107
1.4805	12.5885
1.481	-3.42407
1.4815	-13.39417
1.482	-12.89062
1.4825	-15.50903
1.483	-5.63965
1.4835	-4.33044
1.484	-3.8269
1.4845	-2.21558
1.485	0.60425
1.4855	5.43823
1.486	0.50354
1.4865	11.98425
1.487	7.85522
1.4875	11.78284
1.488	12.18567
1.4885	8.66089
1.489	6.84814
1.4895	4.93469
1.49	4.93469
1.4905	6.54602
1.491	-1.71204
1.4915	-5.63965
1.492	-1.51062
1.4925	-9.76868
1.493	-12.68921
1.4935	-17.82532
1.494	-26.08337
1.4945	-28.19824
1.495	-29.00391
1.4955	-26.98975
1.496	-30.2124
1.4965	-30.91736
1.497	-41.69312
1.4975	-51.96533
1.498	-78.55225
1.4985	-141.39404
1.499	-193.05725
1.4995	-229.11072
1.5	-236.66382
1.5005	-231.427
1.501	-215.81726
1.5015	-192.75513
1.502	-175.43335
1.5025	-170.80078
1.503	-165.36255
1.5035	-153.3783
1.504	-110.77881
1.5045	-59.01489
1.505	0
1.5055	61.53259
1.506	115.51208
1.5065	162.13989
1.507	208.26416
1.5075	244.21692
1.508	264.35852
1.5085	270.401
1.509	269.59534
1.5095	261.43799
1.51	233.44116
1.5105	210.47974
1.511	176.33972
1.5115	141.69617
1.512	108.76465
1.5125	70.89844
1.513	30.41382
1.5135	6.74744
1.514	-14.90479
1.5145	-23.56567
1.515	-24.37134
1.5155	-26.28479
1.516	-22.45789
1.5165	-20.04089
1.517	-19.83948
1.5175	-15.1062
1.518	-8.66089
1.5185	-13.797
1.519	-32.02515
1.5195	-37.36267
1.52	-40.98816
1.5205	-36.15417
1.521	-33.43506
1.5215	-29.60815
1.522	-19.94019
1.5225	-10.57434
1.523	-0.40283
1.5235	4.12903
1.524	9.16443
1.5245	13.19275
1.525	10.57434
1.5255	13.69629
1.526	13.09204
1.5265	24.57275
1.527	20.84656
1.5275	23.8678
1.528	17.32178
1.5285	13.89771
1.529	13.69629
1.5295	17.92603
1.53	8.7616
1.5305	2.41699
1.531	4.02832
1.5315	2.81982
1.532	-8.05664
1.5325	-2.92053
1.533	-5.23682
1.5335	-5.94177
1.534	-9.56726
1.5345	-10.0708
1.535	-14.09912
1.5355	-17.52319
1.536	-16.81824
1.5365	-20.34302
1.537	-22.35718
1.5375	-27.09045
1.538	-31.21948
1.5385	-37.66479
1.539	-45.52002
1.5395	-49.64905
1.54	-51.86462
1.5405	-49.0448
1.541	-44.0094
1.5415	-44.91577
1.542	-39.07471
1.5425	-32.12585
1.543	-22.55859
1.5435	-26.68762
1.544	-17.01965
1.5445	-13.69629
1.545	-8.8623
1.5455	-4.93469
1.546	6.44531
1.5465	14.09912
1.547	30.11169
1.5475	36.85913
1.548	41.99524
1.5485	47.03064
1.549	59.41772
1.5495	57.00073
1.55	62.33826
1.5505	65.3595
1.551	57.8064
1.5515	54.0802
1.552	37.66479
1.5525	30.61523
1.553	23.26355
1.5535	16.71753
1.554	10.27222
1.5545	4.53186
1.555	-4.63257
1.5555	-8.25806
1.556	-13.59558
1.5565	-11.2793
1.557	-3.8269
1.5575	-5.84106
1.558	-1.00708
1.5585	-6.2439
1.559	-8.05664
1.5595	-16.71753
1.56	-32.7301
1.5605	-71.90552
1.561	-96.17615
1.5615	-102.42004
1.562	-94.76624
1.5625	-76.94092
1.563	-52.06604
1.5635	-22.55859
1.564	-2.31628
1.5645	18.8324
1.565	28.09753
1.5655	32.02515
1.566	40.48462
1.5665	41.08887
1.567	46.92993
1.5675	62.43896
1.568	72.61047
1.5685	83.08411
1.569	91.34216
1.5695	95.77332
1.57	101.41296
1.5705	95.06836
1.571	86.20605
1.5715	69.99207
1.572	58.41064
1.5725	52.8717
1.573	44.71436
1.5735	34.54285
1.574	17.92603
1.5745	8.7616
1.575	-18.12744
1.5755	-31.82373
1.576	-42.8009
1.5765	-39.27612
1.577	-40.78674
1.5775	-36.85913
1.578	-25.37842
1.5785	-13.19275
1.579	-5.74036
1.5795	4.02832
1.58	15.20691
1.5805	24.57275
1.581	38.87329
1.5815	53.87878
1.582	63.44604
1.5825	69.1864
1.583	71.80481
1.5835	73.01331
1.584	68.38074
1.5845	59.41772
1.585	52.56958
1.5855	33.9386
1.586	26.18408
1.5865	25.37842
1.587	19.43665
1.5875	21.95435
1.588	15.71045
1.5885	13.69629
1.589	5.84106
1.5895	-3.92761
1.59	-12.5885
1.5905	-42.29736
1.591	-60.52551
1.5915	-70.59631
1.592	-74.32251
1.5925	-67.77649
1.593	-60.12268
1.5935	-43.40515
1.594	-28.70178
1.5945	-16.3147
1.595	-10.97717
1.5955	-9.36584
1.596	-17.72461
1.5965	-33.33435
1.597	-34.14001
1.5975	-48.74268
1.598	-114.505
1.5985	-221.65833
1.599	-296.7865
1.5995	-327.70386
1.6	-313.70544
1.6005	-265.76843
1.601	-201.81885
1.6015	-138.97705
1.602	-82.27844
1.6025	-37.86621
1.603	15.50903
1.6035	75.22888
1.604	127.99988
1.6045	180.36804
1.605	236.4624
1.6055	264.86206
1.606	282.9895
1.6065	293.46313
1.607	295.27588
1.6075	278.65906
1.608	245.72754
1.6085	189.9353
1.609	158.81653
1.6095	126.69067
1.61	110.6781
1.6105	101.21155
1.611	100.20447
1.6115	98.99597
1.612	102.62146
1.6125	105.6427
1.613	102.52075
1.6135	87.41455
1.614	76.33667
1.6145	79.55933
1.615	76.94092
1.6155	81.27136
1.616	82.27844
1.6165	76.53809
1.617	75.32959
1.6175	76.7395
1.618	65.46021
1.6185	68.98499
1.619	59.31702
1.6195	47.23206
1.62	36.35559
1.6205	19.03381
1.621	15.1062
1.6215	12.28638
1.622	13.69629
1.6225	9.76868
1.623	16.71753
1.6235	13.797
1.624	10.77576
1.6245	3.42407
1.625	6.74744
1.6255	10.67505
1.626	13.29346
1.6265	16.41541
1.627	4.12903
1.6275	-2.21558
1.628	-10.97717
1.6285	-8.66089
1.629	-19.53735
1.6295	-17.6239
1.63	-20.44373
1.6305	-24.27063
1.631	-16.91895
1.6315	-19.43665
1.632	-27.89612
1.6325	-23.96851
1.633	-17.92603
1.6335	-16.61682
1.634	-20.84656
1.6345	-12.78992
1.635	-6.94885
1.6355	-1.91345
1.636	-3.32336
1.6365	2.61841
1.637	7.45239
1.6375	11.98425
1.638	20.84656
1.6385	17.32178
1.639	21.04797
1.6395	20.54443
1.64	16.21399
1.6405	16.61682
1.641	15.71045
1.6415	14.90479
1.642	8.15735
1.6425	12.28638
1.643	14.70337
1.6435	15.60974
1.644	12.48779
1.6445	17.32178
1.645	12.99133
1.6455	13.49487
1.646	13.69629
1.6465	14.09912
1.647	12.28638
1.6475	16.01257
1.648	16.81824
1.6485	23.36426
1.649	19.33594
1.6495	21.95435
1.65	16.11328
1.6505	13.59558
1.651	15.81116
1.6515	9.97009
1.652	12.68921
1.6525	14.30054
1.653	10.47363
1.6535	8.15735
1.654	12.78992
1.6545	5.0354
1.655	10.57434
1.6555	9.86938
1.656	9.66797
1.6565	13.19275
1.657	6.04248
1.6575	6.94885
1.658	8.66089
1.6585	8.35876
1.659	6.3446
1.6595	9.86938
1.66	14.30054
1.6605	6.14319
1.661	13.19275
1.6615	18.02673
1.662	18.12744
1.6625	12.78992
1.663	16.3147
1.6635	17.22107
1.664	13.29346
1.6645	17.01965
1.665	12.68921
1.6655	10.0708
1.666	3.62549
1.6665	9.26514
1.667	14.09912
1.6675	8.96301
1.668	6.04248
1.6685	4.93469
1.669	4.43115
1.6695	9.16443
1.67	5.13611
1.6705	2.81982
1.671	4.02832
1.6715	1.91345
1.672	2.5177
1.6725	2.41699
1.673	-5.53894
1.6735	-1.40991
1.674	-5.33752
1.6745	-4.12903
1.675	-5.0354
1.6755	1.61133
1.676	-4.22974
1.6765	-6.64673
1.677	-7.5531
1.6775	-7.15027
1.678	-5.94177
1.6785	-5.0354
1.679	-4.63257
1.6795	-5.33752
1.68	-6.14319
1.6805	1.2085
1.681	0.10071
1.6815	-3.02124
1.682	6.14319
1.6825	7.5531
1.683	8.25806
1.6835	10.97717
1.684	10.0708
1.6845	16.61682
1.685	19.53735
1.6855	26.48621
1.686	20.34302
1.6865	23.56567
1.687	22.25647
1.6875	16.11328
1.688	15.40833
1.6885	7.5531
1.689	3.8269
1.6895	10.0708
1.69	8.25806
1.6905	4.93469
1.691	4.53186
1.6915	-3.12195
1.692	-9.56726
1.6925	-9.46655
1.693	-12.68921
1.6935	-11.88354
1.694	-16.81824
1.6945	-22.05505
1.695	-28.29895
1.6955	-16.81824
1.696	-17.92603
1.6965	-7.75452
1.697	1.71204
1.6975	11.07788
1.698	26.98975
1.6985	42.39807
1.699	40.78674
1.6995	44.21082
1.7	39.27612
1.7005	30.91736
1.701	30.71594
1.7015	28.29895
1.702	31.72302
1.7025	20.84656
1.703	18.12744
1.7035	19.43665
1.704	21.55151
1.7045	17.72461
1.705	16.91895
1.7055	16.21399
1.706	15.20691
1.7065	16.81824
1.707	17.32178
1.7075	7.75452
1.708	9.86938
1.7085	0.90637
1.709	0.70496
1.7095	-4.83398
1.71	0.70496
1.7105	2.21558
1.711	-1.10779
1.7115	1.10779
1.712	6.3446
1.7125	-1.81274
1.713	4.33044
1.7135	1.10779
1.714	0.30212
1.7145	2.81982
1.715	2.71912
1.7155	4.83398
1.716	9.16443
1.7165	7.35168
1.717	6.94885
1.7175	12.28638
1.718	13.09204
1.7185	3.22266
1.719	-0.90637
1.7195	4.12903
1.72	7.5531
1.7205	-0.40283
1.721	4.53186
1.7215	8.7616
1.722	3.8269
1.7225	-1.71204
1.723	2.81982
1.7235	-2.92053
1.724	-12.18567
1.7245	-15.00549
1.725	-15.20691
1.7255	-15.60974
1.726	-17.01965
1.7265	-25.88196
1.727	-40.48462
1.7275	-49.64905
1.728	-56.29578
1.7285	-51.86462
1.729	-46.42639
1.7295	-36.4563
1.73	-24.67346
1.7305	-14.09912
1.731	-8.8623
1.7315	-8.7616
1.732	-6.3446
1.7325	1.40991
1.733	13.797
1.7335	15.50903
1.734	25.57983
1.7345	26.98975
1.735	33.13293
1.7355	35.75134
1.736	33.03223
1.7365	22.15576
1.737	11.2793
1.7375	1.2085
1.738	-2.11487
1.7385	5.74036
1.739	8.25806
1.7395	14.40125
1.74	20.34302
1.7405	22.96143
1.741	26.78833
1.7415	29.80957
1.742	28.39966
1.7425	33.23364
1.743	35.54993
1.7435	30.81665
1.744	28.9032
1.7445	24.97559
1.745	27.49329
1.7455	18.53027
1.746	19.43665
1.7465	19.23523
1.747	19.73877
1.7475	17.32178
1.748	17.82532
1.7485	20.34302
1.749	25.27771
1.7495	27.59399
1.75	25.88196
1.7505	25.27771
1.751	30.11169
1.7515	32.12585
1.752	23.36426
1.7525	20.64514
1.753	18.42957
1.7535	21.14868
1.754	16.41541
1.7545	21.14868
1.755	16.71753
1.7555	13.89771
1.756	14.09912
1.7565	16.11328
1.757	18.22815
1.7575	18.8324
1.758	15.71045
1.7585	15.30762
1.759	6.54602
1.7595	6.14319
1.76	11.2793
1.7605	13.59558
1.761	10.67505
1.7615	9.16443
1.762	7.5531
1.7625	9.56726
1.763	7.95593
1.7635	6.74744
1.764	8.56018
1.7645	3.92761
1.765	-0.30212
1.7655	6.94885
1.766	5.63965
1.7665	10.67505
1.767	5.53894
1.7675	9.06372
1.768	8.25806
1.7685	10.97717
1.769	2.5177
1.7695	0.80566
1.77	-2.21558
1.7705	7.04956
1.771	1.81274
1.7715	4.73328
1.772	1.10779
1.7725	-0.50354
1.773	-0.10071
1.7735	8.25806
1.774	7.35168
1.7745	3.92761
1.775	4.73328
1.7755	0.90637
1.776	7.15027
1.7765	4.12903
1.777	9.16443
1.7775	-1.00708
1.778	0.90637
1.7785	1.10779
1.779	4.83398
1.7795	4.63257
1.78	-2.81982
1.7805	2.41699
1.781	9.06372
1.7815	7.04956
1.782	5.0354
1.7825	12.68921
1.783	8.7616
1.7835	5.74036
1.784	4.73328
1.7845	6.2439
1.785	2.11487
1.7855	-3.42407
1.786	-4.53186
1.7865	0.70496
1.787	1.10779
1.7875	-2.21558
1.788	-2.5177
1.7885	-9.86938
1.789	-1.61133
1.7895	-9.16443
1.79	-8.25806
1.7905	-6.94885
1.791	-6.44531
1.7915	-7.65381
1.792	1.3092
1.7925	0.10071
1.793	-0.40283
1.7935	-6.04248
1.794	0.20142
1.7945	-0.50354
1.795	-3.32336
1.7955	6.44531
1.796	11.07788
1.7965	10.37292
1.797	13.09204
1.7975	18.63098
1.798	23.8678
1.7985	27.6947
1.799	30.41382
1.7995	28.60107
1.8	22.25647
1.8005	18.42957
1.801	16.91895
1.8015	17.42249
1.802	20.04089
1.8025	24.27063
1.803	15.60974
1.8035	14.40125
1.804	15.40833
1.8045	16.81824
1.805	15.60974
1.8055	14.09912
1.806	2.81982
1.8065	5.63965
1.807	10.87646
1.8075	5.13611
1.808	6.2439
1.8085	5.53894
1.809	7.45239
1.8095	4.83398
1.81	2.41699
1.8105	2.81982
1.811	2.92053
1.8115	4.33044
1.812	2.81982
1.8125	3.22266
1.813	14.40125
1.8135	13.49487
1.814	11.2793
1.8145	6.64673
1.815	13.09204
1.8155	15.1062
1.816	10.17151
1.8165	15.20691
1.817	11.78284
1.8175	5.63965
1.818	7.25098
1.8185	12.48779
1.819	8.96301
1.8195	9.06372
1.82	13.29346
1.8205	14.30054
1.821	20.34302
1.8215	16.51611
1.822	18.32886
1.8225	24.27063
1.823	24.87488
1.8235	21.3501
1.824	19.33594
1.8245	20.84656
1.825	19.13452
1.8255	15.1062
1.826	16.01257
1.8265	18.32886
1.827	14.60266
1.8275	13.89771
1.828	15.20691
1.8285	14.60266
1.829	16.71753
1.8295	8.66089
1.83	13.59558
1.8305	13.29346
1.831	3.8269
1.8315	5.74036
1.832	5.53894
1.8325	7.75452
1.833	11.17859
1.8335	9.97009
1.834	11.88354
1.8345	9.86938
1.835	13.69629
1.8355	7.45239
1.836	6.74744
1.8365	11.2793
1.837	7.85522
1.8375	15.91187
1.838	11.58142
1.8385	14.19983
1.839	15.50903
1.8395	11.58142
1.84	11.98425
1.8405	6.2439
1.841	8.7616
1.8415	4.12903
1.842	8.96301
1.8425	6.54602
1.843	7.25098
1.8435	1.10779
1.844	6.04248
1.8445	8.15735
1.845	4.73328
1.8455	5.13611
1.846	7.75452
1.8465	7.04956
1.847	9.86938
1.8475	8.45947
1.848	8.66089
1.8485	8.35876
1.849	11.38
1.8495	9.66797
1.85	12.48779
1.8505	12.08496
1.851	6.14319
1.8515	7.15027
1.852	9.86938
1.8525	6.74744
1.853	15.60974
1.8535	12.78992
1.854	6.14319
1.8545	12.48779
1.855	11.98425
1.8555	10.57434
1.856	11.98425
1.8565	11.38
1.857	15.00549
1.8575	13.49487
1.858	16.01257
1.8585	13.59558
1.859	16.01257
1.8595	16.3147
1.86	13.99841
1.8605	14.80408
1.861	10.57434
1.8615	15.50903
1.862	15.50903
1.8625	10.37292
1.863	15.1062
1.8635	8.45947
1.864	11.78284
1.8645	11.17859
1.865	11.88354
1.8655	10.97717
1.866	4.02832
1.8665	6.14319
1.867	4.73328
1.8675	9.36584
1.868	12.5885
1.8685	11.2793
1.869	9.16443
1.8695	9.26514
1.87	7.65381
1.8705	5.23682
1.871	6.54602
1.8715	7.75452
1.872	6.2439
1.8725	2.61841
1.873	2.01416
1.8735	7.65381
1.874	6.3446
1.8745	1.10779
1.875	6.2439
1.8755	8.35876
1.876	8.05664
1.8765	1.61133
1.877	2.31628
1.8775	3.7262
1.878	-2.61841
1.8785	-7.75452
1.879	-10.17151
1.8795	-8.35876
1.88	-9.97009
1.8805	-6.94885
1.881	-0.60425
1.8815	4.12903
1.882	9.46655
1.8825	13.49487
1.883	16.71753
1.8835	15.50903
1.884	21.45081
1.8845	14.09912
1.885	12.68921
1.8855	9.16443
1.886	19.43665
1.8865	15.50903
1.887	19.63806
1.8875	16.21399
1.888	24.77417
1.8885	25.07629
1.889	25.177
1.8895	24.37134
1.89	19.83948
1.8905	22.76001
1.891	22.25647
1.8915	25.27771
1.892	19.53735
1.8925	17.6239
1.893	20.84656
1.8935	17.22107
1.894	20.84656
1.8945	23.46497
1.895	20.64514
1.8955	14.50195
1.896	15.60974
1.8965	17.32178
1.897	15.20691
1.8975	11.78284
1.898	8.96301
1.8985	15.30762
1.899	16.41541
1.8995	16.81824
1.9	13.89771
1.9005	7.75452
1.901	11.68213
1.9015	7.15027
1.902	8.56018
1.9025	7.5531
1.903	11.68213
1.9035	12.99133
1.904	12.89062
1.9045	16.51611
1.905	10.87646
1.9055	19.94019
1.906	10.87646
1.9065	10.0708
1.907	10.67505
1.9075	12.89062
1.908	11.78284
1.9085	12.68921
1.909	10.87646
1.9095	10.47363
1.91	12.38708
1.9105	11.07788
1.911	11.2793
1.9115	10.67505
1.912	9.36584
1.9125	11.2793
1.913	11.07788
1.9135	9.06372
1.914	16.41541
1.9145	14.50195
1.915	11.58142
1.9155	5.84106
1.916	6.64673
1.9165	8.25806
1.917	8.15735
1.9175	9.36584
1.918	12.08496
1.9185	11.78284
1.919	7.04956
1.9195	11.98425
1.92	13.49487
1.9205	12.78992
1.921	13.59558
1.9215	13.89771
1.922	14.09912
1.9225	11.38
1.923	7.85522
1.9235	8.56018
1.924	10.97717
1.9245	15.40833
1.925	11.38
1.9255	4.22974
1.926	6.54602
1.9265	11.88354
1.927	13.29346
1.9275	12.99133
1.928	12.38708
1.9285	5.63965
1.929	5.74036
1.9295	5.63965
1.93	10.0708
1.9305	12.38708
1.931	7.25098
1.9315	8.56018
1.932	13.19275
1.9325	5.13611
1.933	12.5885
1.9335	14.50195
1.934	10.67505
1.9345	9.97009
1.935	7.85522
1.9355	8.56018
1.936	8.05664
1.9365	3.42407
1.937	6.64673
1.9375	5.0354
1.938	2.41699
1.9385	7.75452
1.939	-0.50354
1.9395	6.2439
1.94	2.71912
1.9405	15.20691
1.941	9.06372
1.9415	8.35876
1.942	4.73328
1.9425	5.84106
1.943	0.60425
1.9435	9.66797
1.944	4.93469
1.9445	6.54602
1.945	3.42407
1.9455	10.17151
1.946	4.83398
1.9465	3.7262
1.947	6.14319
1.9475	5.84106
1.948	9.46655
1.9485	8.35876
1.949	3.22266
1.9495	7.15027
1.95	-1.51062
1.9505	6.54602
1.951	9.66797
1.9515	10.37292
1.952	10.37292
1.9525	8.8623
1.953	6.3446
1.9535	9.06372
1.954	12.08496
1.9545	6.44531
1.955	5.0354
1.9555	11.68213
1.956	8.05664
1.9565	8.66089
1.957	2.92053
1.9575	7.5531
1.958	6.3446
1.9585	7.15027
1.959	7.25098
1.9595	5.53894
1.96	7.5531
1.9605	13.69629
1.961	16.21399
1.9615	6.04248
1.962	13.09204
1.9625	12.38708
1.963	13.89771
1.9635	8.96301
1.964	7.25098
1.9645	12.78992
1.965	4.33044
1.9655	5.23682
1.966	6.64673
1.9665	4.02832
1.967	5.43823
1.9675	3.32336
1.968	6.54602
1.9685	4.83398
1.969	10.57434
1.9695	7.65381
1.97	8.7616
1.9705	10.77576
1.971	11.07788
1.9715	5.23682
1.972	9.86938
1.9725	2.31628
1.973	8.25806
1.9735	8.05664
1.974	5.53894
1.9745	4.53186
1.975	2.71912
1.9755	1.2085
1.976	7.25098
1.9765	5.43823
1.977	9.86938
1.9775	6.04248
1.978	6.94885
1.9785	8.25806
1.979	6.54602
1.9795	4.12903
1.98	8.8623
1.9805	7.95593
1.981	6.2439
1.9815	6.04248
1.982	4.73328
1.9825	8.35876
1.983	3.22266
1.9835	7.65381
1.984	7.25098
1.9845	8.96301
1.985	11.07788
1.9855	10.37292
1.986	10.77576
1.9865	5.0354
1.987	4.33044
1.9875	8.56018
1.988	6.44531
1.9885	8.7616
1.989	8.56018
1.9895	9.06372
1.99	11.38
1.9905	12.78992
1.991	8.56018
1.9915	4.93469
1.992	4.43115
1.9925	5.74036
1.993	4.53186
1.9935	7.45239
1.994	10.0708
1.9945	11.17859
1.995	11.07788
1.9955	8.96301
1.996	11.48071
1.9965	14.60266
1.997	13.59558
1.9975	10.37292
1.998	10.77576
1.9985	11.58142
1.999	8.8623
1.9995	10.67505
2	8.05664
2.0005	12.08496
2.001	7.25098
2.0015	7.25098
2.002	8.96301
2.0025	8.25806
2.003	7.5531
2.0035	11.2793
2.004	4.63257
2.0045	9.66797
2.005	7.45239
2.0055	9.16443
2.006	8.35876
2.0065	6.14319
2.007	5.23682
2.0075	8.7616
2.008	8.05664
2.0085	1.61133
2.009	2.5177
2.0095	5.33752
2.01	7.04956
2.0105	3.12195
2.011	7.35168
2.0115	8.56018
2.012	7.15027
2.0125	7.5531
2.013	8.15735
2.0135	4.43115
2.014	11.68213
2.0145	8.45947
2.015	8.35876
2.0155	11.2793
2.016	8.56018
2.0165	8.25806
2.017	8.7616
2.0175	6.2439
2.018	9.86938
2.0185	12.68921
2.019	12.48779
2.0195	11.2793
2.02	7.75452
2.0205	14.30054
2.021	8.15735
2.0215	9.26514
2.022	10.47363
2.0225	7.25098
2.023	5.53894
2.0235	7.04956
2.024	10.37292
2.0245	9.97009
2.025	9.36584
2.0255	5.33752
2.026	6.04248
2.0265	10.47363
2.027	4.83398
2.0275	4.02832
2.028	5.84106
2.0285	5.33752
2.029	9.86938
2.0295	2.71912
2.03	4.43115
2.0305	10.67505
2.031	10.17151
2.0315	10.87646
2.032	9.46655
2.0325	7.5531
2.033	4.53186
2.0335	4.53186
2.034	7.85522
2.0345	1.71204
2.035	7.25098
2.0355	5.23682
2.036	6.84814
2.0365	5.63965
2.037	2.81982
2.0375	12.78992
2.038	10.0708
2.0385	5.23682
2.039	6.84814
2.0395	4.93469
2.04	3.7262
2.0405	3.12195
2.041	5.23682
2.0415	7.15027
2.042	6.3446
2.0425	3.22266
2.043	2.41699
2.0435	5.84106
2.044	2.71912
2.0445	1.40991
2.045	4.43115
2.0455	7.85522
2.046	1.00708
2.0465	4.73328
2.047	6.3446
2.0475	3.7262
2.048	-3.12195
2.0485	6.2439
2.049	7.04956
2.0495	4.73328
2.05	5.33752
2.0505	8.35876
2.051	7.15027
2.0515	6.84814
2.052	5.74036
2.0525	-0.70496
2.053	1.61133
2.0535	2.41699
2.054	-4.02832
2.0545	1.71204
2.055	-1.2085
2.0555	0.50354
2.056	3.22266
2.0565	5.43823
2.057	3.8269
2.0575	3.42407
2.058	7.45239
2.0585	1.10779
2.059	4.93469
2.0595	10.57434
2.06	5.23682
2.0605	10.47363
2.061	6.84814
2.0615	7.5531
2.062	3.02124
2.0625	7.85522
2.063	2.5177
2.0635	6.44531
2.064	2.71912
2.0645	-1.00708
2.065	1.61133
2.0655	7.45239
2.066	-0.10071
2.0665	3.22266
2.067	2.21558
2.0675	0.90637
2.068	3.22266
2.0685	5.23682
2.069	2.41699
2.0695	1.3092
2.07	4.93469
2.0705	7.75452
2.071	4.63257
2.0715	3.12195
2.072	2.61841
2.0725	-0.50354
2.073	-2.71912
2.0735	2.71912
2.074	-0.40283
2.0745	-1.3092
2.075	5.53894
2.0755	2.81982
2.076	2.5177
2.0765	2.01416
2.077	1.51062
2.0775	-2.81982
2.078	5.43823
2.0785	5.23682
2.079	7.15027
2.0795	4.63257
2.08	8.05664
2.0805	5.43823
2.081	2.41699
2.0815	5.74036
2.082	5.33752
2.0825	4.63257
2.083	5.43823
2.0835	3.7262
2.084	4.63257
2.0845	0.70496
2.085	1.00708
2.0855	6.94885
2.086	2.11487
2.0865	0.90637
2.087	3.8269
2.0875	5.33752
2.088	8.35876
2.0885	1.10779
2.089	0.70496
2.0895	-5.43823
2.09	-1.40991
2.0905	5.43823
2.091	2.71912
2.0915	-0.60425
2.092	7.65381
2.0925	3.12195
2.093	1.81274
2.0935	1.51062
2.094	0.80566
2.0945	3.12195
2.095	0.70496
2.0955	1.00708
2.096	2.31628
2.0965	3.32336
2.097	2.5177
2.0975	4.12903
2.098	2.01416
2.0985	2.81982
2.099	4.33044
2.0995	1.91345
2.1	2.31628
2.1005	5.53894
2.101	1.91345
2.1015	5.43823
2.102	7.35168
2.1025	8.56018
2.103	5.84106
2.1035	3.8269
2.104	5.94177
2.1045	7.25098
2.105	1.81274
2.1055	3.52478
2.106	0
2.1065	3.8269
2.107	11.58142
2.1075	8.35876
2.108	6.3446
2.1085	6.64673
2.109	2.71912
2.1095	2.31628
2.11	3.22266
2.1105	1.91345
2.111	5.63965
2.1115	4.12903
2.112	2.81982
2.1125	4.12903
2.113	3.52478
2.1135	0.70496
2.114	7.5531
2.1145	5.53894
2.115	7.45239
2.1155	5.84106
2.116	1.40991
2.1165	2.92053
2.117	2.11487
2.1175	5.33752
2.118	4.53186
2.1185	5.63965
2.119	8.56018
2.1195	6.64673
2.12	5.74036
2.1205	5.53894
2.121	8.66089
2.1215	2.01416
2.122	2.31628
2.1225	2.61841
2.123	7.65381
2.1235	1.40991
2.124	5.74036
2.1245	10.0708
2.125	4.12903
2.1255	3.12195
2.126	5.23682
2.1265	8.35876
2.127	8.35876
2.1275	8.05664
2.128	7.04956
2.1285	3.8269
2.129	1.61133
2.1295	2.61841
2.13	3.12195
2.1305	-1.10779
2.131	-0.40283
2.1315	5.0354
2.132	2.5177
2.1325	2.92053
2.133	0
2.1335	0.50354
2.134	1.71204
2.1345	1.71204
2.135	-0.40283
2.1355	2.41699
2.136	4.93469
2.1365	5.13611
2.137	3.12195
2.1375	7.04956
2.138	7.65381
2.1385	3.22266
2.139	5.63965
2.1395	3.52478
2.14	2.01416
2.1405	3.02124
2.141	3.92761
2.1415	3.7262
2.142	3.8269
2.1425	2.41699
2.143	5.33752
2.1435	0.80566
2.144	-3.92761
2.1445	1.71204
2.145	4.83398
2.1455	2.11487
2.146	4.43115
2.1465	0.40283
2.147	2.41699
2.1475	0.90637
2.148	-1.61133
2.1485	2.61841
2.149	4.93469
2.1495	-4.22974
2.15	0.20142
2.1505	-1.51062
2.151	-1.61133
2.1515	-0.50354
2.152	-1.3092
2.1525	0.40283
2.153	1.2085
2.1535	-1.40991
2.154	-3.92761
2.1545	-2.01416
2.155	-4.93469
2.1555	-2.5177
2.156	-0.30212
2.1565	3.52478
2.157	1.71204
2.1575	0
2.158	-0.20142
2.1585	0.10071
2.159	3.62549
2.1595	4.83398
2.16	3.62549
2.1605	2.31628
2.161	-4.33044
2.1615	4.22974
2.162	9.97009
2.1625	1.71204
2.163	3.12195
2.1635	2.81982
2.164	2.41699
2.1645	2.21558
2.165	-6.3446
2.1655	-0.80566
2.166	6.04248
2.1665	6.94885
2.167	-0.30212
2.1675	-1.10779
2.168	4.63257
2.1685	0.60425
2.169	0.90637
2.1695	5.33752
2.17	2.81982
2.1705	5.63965
2.171	2.71912
2.1715	2.92053
2.172	2.61841
2.1725	7.15027
2.173	2.81982
2.1735	7.04956
2.174	5.0354
2.1745	4.12903
2.175	6.2439
2.1755	5.0354
2.176	6.14319
2.1765	9.56726
2.177	9.46655
2.1775	9.16443
2.178	3.7262
2.1785	7.65381
2.179	2.21558
2.1795	2.41699
2.18	3.7262
2.1805	5.74036
2.181	0.80566
2.1815	2.5177
2.182	1.40991
2.1825	3.62549
2.183	1.61133
2.1835	6.94885
2.184	5.63965
2.1845	3.7262
2.185	5.84106
2.1855	-1.2085
2.186	-1.61133
2.1865	7.95593
2.187	1.61133
2.1875	1.61133
2.188	2.01416
2.1885	4.33044
2.189	2.5177
2.1895	3.32336
2.19	7.65381
2.1905	14.30054
2.191	7.75452
2.1915	4.43115
2.192	7.5531
2.1925	5.0354
2.193	0.90637
2.1935	5.13611
2.194	4.73328
2.1945	6.84814
2.195	3.02124
2.1955	4.33044
2.196	4.73328
2.1965	0.90637
2.197	7.85522
2.1975	3.7262
2.198	9.26514
2.1985	3.8269
2.199	7.5531
2.1995	11.88354
2.2	7.75452
2.2005	9.97009
2.201	3.92761
2.2015	9.16443
2.202	13.39417
2.2025	5.0354
2.203	3.12195
2.2035	5.43823
2.204	4.83398
2.2045	5.63965
2.205	8.96301
2.2055	8.25806
2.206	7.75452
2.2065	10.67505
2.207	4.83398
2.2075	6.44531
2.208	5.33752
2.2085	7.35168
2.209	5.74036
2.2095	2.31628
2.21	1.3092
2.2105	0.80566
2.211	1.40991
2.2115	-1.40991
2.212	7.25098
2.2125	3.7262
2.213	4.83398
2.2135	9.86938
2.214	3.8269
2.2145	4.83398
2.215	5.0354
2.2155	4.33044
2.216	10.87646
2.2165	6.84814
2.217	7.85522
2.2175	0.60425
2.218	1.3092
2.2185	4.63257
2.219	1.61133
2.2195	1.81274
2.22	4.93469
2.2205	3.52478
2.221	5.84106
2.2215	0.90637
2.222	1.61133
2.2225	5.74036
2.223	1.51062
2.2235	3.22266
2.224	2.81982
2.2245	1.61133
2.225	3.62549
2.2255	4.73328
2.226	6.44531
2.2265	1.61133
2.227	4.43115
2.2275	3.32336
2.228	1.3092
2.2285	9.36584
2.229	0.60425
2.2295	3.42407
2.23	2.71912
2.2305	2.41699
2.231	7.35168
2.2315	4.12903
2.232	0.40283
2.2325	4.22974
2.233	2.5177
2.2335	5.74036
2.234	3.32336
2.2345	7.95593
2.235	7.85522
2.2355	3.02124
2.236	6.64673
2.2365	10.17151
2.237	6.64673
2.2375	7.04956
2.238	8.96301
2.2385	6.54602
2.239	5.53894
2.2395	2.31628
2.24	4.02832
2.2405	13.69629
2.241	13.59558
2.2415	7.75452
2.242	6.54602
2.2425	10.57434
2.243	6.64673
2.2435	10.47363
2.244	4.02832
2.2445	2.11487
2.245	5.94177
2.2455	1.91345
2.246	4.93469
2.2465	7.45239
2.247	6.44531
2.2475	5.63965
2.248	3.62549
2.2485	1.61133
2.249	3.02124
2.2495	4.83398
2.25	3.92761
2.2505	1.61133
2.251	7.45239
2.2515	0.60425
2.252	3.42407
2.2525	1.91345
2.253	6.64673
2.2535	9.86938
2.254	10.27222
2.2545	8.8623
2.255	7.5531
2.2555	6.64673
2.256	4.73328
2.2565	-2.41699
2.257	3.62549
2.2575	9.86938
2.258	5.13611
2.2585	6.2439
2.259	15.00549
2.2595	12.08496
2.26	10.67505
2.2605	8.15735
2.261	3.22266
2.2615	8.25806
2.262	5.74036
2.2625	8.35876
2.263	7.65381
2.2635	8.35876
2.264	10.37292
2.2645	5.0354
2.265	5.33752
2.2655	2.31628
2.266	10.47363
2.2665	8.66089
2.267	9.97009
2.2675	4.93469
2.268	12.48779
2.2685	8.96301
2.269	8.96301
2.2695	9.86938
2.27	7.45239
2.2705	5.63965
2.271	5.53894
2.2715	2.31628
2.272	5.0354
2.2725	5.43823
2.273	1.51062
2.2735	8.05664
2.274	8.7616
2.2745	7.25098
2.275	7.04956
2.2755	15.81116
2.276	11.88354
2.2765	14.40125
2.277	9.66797
2.2775	7.35168
2.278	9.66797
2.2785	15.81116
2.279	10.87646
2.2795	12.48779
2.28	6.14319
2.2805	9.16443
2.281	10.57434
2.2815	8.7616
2.282	6.54602
2.2825	1.71204
2.283	3.8269
2.2835	2.21558
2.284	10.0708
2.2845	12.78992
2.285	11.68213
2.2855	8.66089
2.286	9.86938
2.2865	1.91345
2.287	2.41699
2.2875	5.53894
2.288	7.75452
2.2885	4.73328
2.289	5.33752
2.2895	5.13611
2.29	4.93469
2.2905	9.76868
2.291	2.61841
2.2915	8.8623
2.292	9.06372
2.2925	1.10779
2.293	7.15027
2.2935	9.56726
2.294	5.33752
2.2945	4.63257
2.295	2.92053
2.2955	6.54602
2.296	7.75452
2.2965	5.23682
2.297	6.94885
2.2975	5.53894
2.298	3.7262
2.2985	4.12903
2.299	3.42407
2.2995	0.60425
2.3	6.54602
2.3005	5.74036
2.301	6.3446
2.3015	5.84106
2.302	0.10071
2.3025	2.71912
2.303	1.3092
2.3035	3.22266
2.304	-0.80566
2.3045	0.90637
2.305	5.74036
2.3055	4.83398
2.306	4.73328
2.3065	1.61133
2.307	5.33752
2.3075	5.63965
2.308	8.66089
2.3085	7.15027
2.309	4.63257
2.3095	-1.10779
2.31	10.97717
2.3105	2.31628
2.311	7.04956
2.3115	7.25098
2.312	6.64673
2.3125	8.56018
2.313	5.94177
2.3135	8.8623
2.314	1.40991
2.3145	7.75452
2.315	3.52478
2.3155	8.8623
2.316	8.25806
2.3165	9.36584
2.317	3.42407
2.3175	4.22974
2.318	4.33044
2.3185	-1.00708
2.319	4.63257
2.3195	5.23682
2.32	4.93469
2.3205	6.64673
2.321	6.44531
2.3215	6.54602
2.322	2.81982
2.3225	4.33044
2.323	6.84814
2.3235	12.18567
2.324	8.05664
2.3245	3.22266
2.325	7.45239
2.3255	0.40283
2.326	8.45947
2.3265	6.2439
2.327	-0.50354
2.3275	8.05664
2.328	8.66089
2.3285	1.40991
2.329	6.94885
2.3295	0.30212
2.33	2.71912
2.3305	3.7262
2.331	11.17859
2.3315	12.89062
2.332	7.15027
2.3325	3.32336
2.333	10.97717
2.3335	4.63257
2.334	2.01416
2.3345	3.22266
2.335	4.93469
2.3355	6.64673
2.336	4.22974
2.3365	8.66089
2.337	2.81982
2.3375	4.53186
2.338	10.17151
2.3385	8.66089
2.339	10.97717
2.3395	12.08496
2.34	10.0708
2.3405	9.86938
2.341	6.84814
2.3415	6.04248
2.342	9.76868
2.3425	4.93469
2.343	9.06372
2.3435	3.02124
2.344	4.93469
2.3445	0.60425
2.345	1.81274
2.3455	2.01416
2.346	1.61133
2.3465	3.7262
2.347	3.22266
2.3475	6.44531
2.348	6.64673
2.3485	6.84814
2.349	6.44531
2.3495	5.23682
2.35	3.42407
2.3505	2.81982
2.351	2.11487
2.3515	2.5177
2.352	13.39417
2.3525	8.96301
2.353	4.93469
2.3535	5.43823
2.354	2.01416
2.3545	0.70496
2.355	3.8269
2.3555	3.92761
2.356	5.43823
2.3565	0.10071
2.357	6.64673
2.3575	6.04248
2.358	6.14319
2.3585	6.14319
2.359	3.8269
2.3595	10.77576
2.36	4.02832
2.3605	3.42407
2.361	4.73328
2.3615	4.63257
2.362	9.97009
2.3625	7.65381
2.363	13.19275
2.3635	7.85522
2.364	6.44531
2.3645	1.71204
2.365	12.38708
2.3655	8.45947
2.366	8.05664
2.3665	8.7616
2.367	2.21558
2.3675	5.0354
2.368	2.5177
2.3685	2.11487
2.369	9.56726
2.3695	2.21558
2.37	3.42407
2.3705	4.43115
2.371	8.7616
2.3715	7.75452
2.372	6.3446
2.3725	2.31628
2.373	6.54602
2.3735	0.40283
2.374	3.12195
2.3745	5.53894
2.375	3.8269
2.3755	1.40991
2.376	1.71204
2.3765	1.91345
2.377	1.00708
2.3775	3.22266
2.378	8.05664
2.3785	5.63965
2.379	7.15027
2.3795	2.71912
2.38	2.61841
2.3805	0.80566
2.381	-3.02124
2.3815	-2.41699
2.382	-1.71204
2.3825	4.63257
2.383	3.12195
2.3835	1.91345
2.384	-0.30212
2.3845	-2.31628
2.385	1.3092
2.3855	3.92761
2.386	5.0354
2.3865	4.22974
2.387	-2.01416
2.3875	1.00708
2.388	4.22974
2.3885	3.22266
2.389	2.01416
2.3895	5.0354
2.39	-0.40283
2.3905	6.94885
2.391	5.84106
2.3915	5.13611
2.392	4.53186
2.3925	7.95593
2.393	5.43823
2.3935	5.23682
2.394	1.3092
2.3945	7.75452
2.395	5.0354
2.3955	8.56018
2.396	8.8623
2.3965	0.50354
2.397	1.81274
2.3975	4.83398
2.398	6.84814
2.3985	7.15027
2.399	6.3446
2.3995	7.75452
2.4	7.95593
2.4005	6.14319
2.401	6.3446
2.4015	7.95593
2.402	3.7262
2.4025	10.27222
2.403	2.5177
2.4035	5.43823
2.404	4.22974
2.4045	1.10779
2.405	-1.00708
2.4055	5.13611
2.406	4.33044
2.4065	6.04248
2.407	4.12903
2.4075	2.81982
2.408	7.35168
2.4085	12.28638
2.409	5.63965
2.4095	2.01416
2.41	4.12903
2.4105	3.8269
2.411	2.31628
2.4115	2.71912
2.412	2.31628
2.4125	2.71912
2.413	3.7262
2.4135	0.50354
2.414	3.32336
2.4145	3.32336
2.415	9.16443
2.4155	6.2439
2.416	7.75452
2.4165	-0.30212
2.417	7.35168
2.4175	6.04248
2.418	3.02124
2.4185	2.61841
2.419	2.21558
2.4195	5.74036
2.42	2.21558
2.4205	6.44531
2.421	4.33044
2.4215	0.40283
2.422	3.62549
2.4225	4.43115
2.423	5.43823
2.4235	2.61841
2.424	3.92761
2.4245	2.61841
2.425	5.74036
2.4255	2.81982
2.426	7.25098
2.4265	0
2.427	2.21558
2.4275	0.30212
2.428	5.33752
2.4285	6.94885
2.429	2.92053
2.4295	8.45947
2.43	4.83398
2.4305	2.21558
2.431	6.04248
2.4315	4.93469
2.432	3.42407
2.4325	-3.7262
2.433	-1.51062
2.4335	0.90637
2.434	2.81982
2.4345	2.01416
2.435	-0.60425
2.4355	4.73328
2.436	0.90637
2.4365	3.22266
2.437	-0.80566
2.4375	3.42407
2.438	1.3092
2.4385	0.20142
2.439	1.00708
2.4395	1.00708
2.44	-0.80566
2.4405	4.73328
2.441	3.22266
2.4415	0
2.442	0
2.4425	1.81274
2.443	0.30212
2.4435	3.22266
2.444	5.23682
2.4445	7.25098
2.445	6.84814
2.4455	8.7616
2.446	6.14319
2.4465	8.05664
2.447	8.25806
2.4475	11.78284
2.448	3.62549
2.4485	4.43115
2.449	-2.01416
2.4495	4.73328
2.45	5.43823
2.4505	-3.12195
2.451	-1.61133
2.4515	4.53186
2.452	2.92053
2.4525	6.2439
2.453	1.3092
2.4535	6.3446
2.454	5.94177
2.4545	1.00708
2.455	5.33752
2.4555	4.33044
2.456	9.26514
2.4565	0.20142
2.457	1.00708
2.4575	3.7262
2.458	13.69629
2.4585	6.74744
2.459	7.35168
2.4595	4.43115
2.46	9.46655
2.4605	6.14319
2.461	8.66089
2.4615	6.94885
2.462	3.52478
2.4625	8.15735
2.463	13.29346
2.4635	4.43115
2.464	1.61133
2.4645	4.02832
2.465	9.16443
2.4655	0.10071
2.466	0.60425
2.4665	2.5177
2.467	6.04248
2.4675	1.40991
2.468	3.02124
2.4685	6.2439
2.469	9.26514
2.4695	3.7262
2.47	3.62549
2.4705	11.2793
2.471	8.05664
2.4715	1.71204
2.472	2.71912
2.4725	7.25098
2.473	2.61841
2.4735	6.74744
2.474	4.12903
2.4745	4.02832
2.475	3.12195
2.4755	2.31628
2.476	6.74744
2.4765	2.41699
2.477	1.71204
2.4775	3.12195
2.478	1.81274
2.4785	3.02124
2.479	10.27222
2.4795	10.77576
2.48	10.17151
2.4805	8.05664
2.481	-1.10779
2.4815	2.61841
2.482	6.14319
2.4825	7.35168
2.483	-0.50354
2.4835	2.61841
2.484	5.33752
2.4845	1.51062
2.485	0.90637
2.4855	2.41699
2.486	2.11487
2.4865	4.53186
2.487	1.91345
2.4875	2.5177
2.488	2.61841
2.4885	3.8269
2.489	4.43115
2.4895	2.61841
2.49	4.83398
2.4905	2.31628
2.491	2.21558
2.4915	3.42407
2.492	-0.70496
2.4925	1.00708
2.493	5.94177
2.4935	3.52478
2.494	5.74036
2.4945	3.8269
2.495	13.29346
2.4955	0.60425
2.496	4.83398
2.4965	-1.91345
2.497	5.53894
2.4975	2.5177
2.498	3.7262
2.4985	6.84814
2.499	0.30212
2.4995	9.26514
2.5	1.51062
2.5005	6.74744
2.501	1.81274
2.5015	4.22974
2.502	4.63257
2.5025	4.73328
2.503	2.21558
2.5035	-0.60425
2.504	0.60425
2.5045	4.12903
2.505	3.12195
2.5055	1.2085
2.506	-0.80566
2.5065	5.74036
2.507	3.8269
2.5075	1.61133
2.508	6.44531
2.5085	2.01416
2.509	2.21558
2.5095	9.97009
2.51	10.0708
2.5105	3.12195
2.511	11.58142
2.5115	10.27222
2.512	3.52478
2.5125	2.81982
2.513	4.63257
2.5135	5.13611
2.514	1.51062
2.5145	2.41699
2.515	3.22266
2.5155	4.22974
2.516	5.13611
2.5165	3.52478
2.517	5.33752
2.5175	4.73328
2.518	6.74744
2.5185	5.63965
2.519	5.94177
2.5195	3.22266
2.52	5.23682
2.5205	8.45947
2.521	9.16443
2.5215	4.93469
2.522	13.39417
2.5225	10.87646
2.523	6.44531
2.5235	5.13611
2.524	-0.20142
2.5245	5.74036
2.525	1.61133
2.5255	0.70496
2.526	3.32336
2.5265	6.54602
2.527	0.30212
2.5275	3.12195
2.528	4.83398
2.5285	4.43115
2.529	3.92761
2.5295	6.54602
2.53	5.33752
2.5305	7.15027
2.531	3.32336
2.5315	6.44531
2.532	5.74036
2.5325	3.8269
2.533	4.43115
2.5335	3.8269
2.534	3.62549
2.5345	3.8269
2.535	2.92053
2.5355	4.02832
2.536	3.7262
2.5365	6.04248
2.537	3.22266
2.5375	3.52478
2.538	6.2439
2.5385	7.95593
2.539	6.64673
2.5395	5.94177
2.54	3.22266
2.5405	4.33044
2.541	4.22974
2.5415	2.11487
2.542	4.22974
2.5425	4.83398
2.543	6.54602
2.5435	8.15735
2.544	6.74744
2.5445	-0.50354
2.545	-1.00708
2.5455	-2.11487
2.546	5.84106
2.5465	2.21558
2.547	1.00708
2.5475	4.43115
2.548	7.15027
2.5485	-0.10071
2.549	7.5531
2.5495	9.56726
2.55	8.25806
2.5505	5.74036
2.551	7.95593
2.5515	8.45947
2.552	8.96301
2.5525	4.02832
2.553	3.32336
2.5535	9.26514
2.554	7.85522
2.5545	8.35876
2.555	4.73328
2.5555	9.16443
2.556	9.36584
2.5565	6.54602
2.557	2.01416
2.5575	1.2085
2.558	3.52478
2.5585	5.63965
2.559	5.43823
2.5595	4.33044
2.56	6.94885
2.5605	6.3446
2.561	2.61841
2.5615	7.65381
2.562	2.41699
2.5625	6.3446
2.563	2.61841
2.5635	5.43823
2.564	4.02832
2.5645	9.66797
2.565	8.96301
2.5655	4.53186
2.566	10.27222
2.5665	7.75452
2.567	3.02124
2.5675	6.84814
2.568	7.5531
2.5685	13.29346
2.569	14.30054
2.5695	6.64673
2.57	6.14319
2.5705	3.12195
2.571	6.44531
2.5715	5.43823
2.572	8.45947
2.5725	7.95593
2.573	3.62549
2.5735	5.43823
2.574	2.11487
2.5745	8.15735
2.575	1.00708
2.5755	5.0354
2.576	6.74744
2.5765	5.84106
2.577	4.12903
2.5775	6.3446
2.578	12.08496
2.5785	3.32336
2.579	3.52478
2.5795	8.96301
2.58	6.84814
2.5805	4.12903
2.581	4.93469
2.5815	6.44531
2.582	6.74744
2.5825	2.31628
2.583	7.65381
2.5835	6.3446
2.584	5.94177
2.5845	3.02124
2.585	5.33752
2.5855	6.3446
2.586	11.68213
2.5865	7.45239
2.587	3.32336
2.5875	5.84106
2.588	8.15735
2.5885	4.63257
2.589	6.2439
2.5895	6.14319
2.59	11.68213
2.5905	13.797
2.591	10.17151
2.5915	10.27222
2.592	9.16443
2.5925	9.36584
2.593	13.49487
2.5935	8.45947
2.594	7.85522
2.5945	6.84814
2.595	3.7262
2.5955	2.71912
2.596	5.33752
2.5965	3.7262
2.597	2.81982
2.5975	4.63257
2.598	1.00708
2.5985	7.95593
2.599	4.22974
2.5995	7.35168
2.6	9.86938
2.6005	13.99841
2.601	5.74036
2.6015	3.42407
2.602	8.56018
2.6025	10.97717
2.603	9.26514
2.6035	9.06372
2.604	5.74036
2.6045	5.94177
2.605	5.33752
2.6055	7.95593
2.606	9.46655
2.6065	8.96301
2.607	3.02124
2.6075	9.86938
2.608	3.62549
2.6085	6.94885
2.609	-0.60425
2.6095	0
2.61	4.63257
2.6105	6.04248
2.611	7.15027
2.6115	7.15027
2.612	9.36584
2.6125	13.89771
2.613	10.0708
2.6135	5.74036
2.614	11.2793
2.6145	8.35876
2.615	8.25806
2.6155	8.8623
2.616	12.08496
2.6165	4.83398
2.617	4.22974
2.6175	3.7262
2.618	5.63965
2.6185	3.12195
2.619	1.61133
2.6195	4.12903
2.62	-0.60425
2.6205	2.61841
2.621	0.50354
2.6215	4.53186
2.622	2.01416
2.6225	6.74744
2.623	2.71912
2.6235	6.54602
2.624	2.21558
2.6245	3.8269
2.625	6.64673
2.6255	3.42407
2.626	8.56018
2.6265	1.00708
2.627	4.63257
2.6275	1.2085
2.628	1.00708
2.6285	3.42407
2.629	12.89062
2.6295	4.12903
2.63	5.74036
2.6305	8.56018
2.631	3.92761
2.6315	1.2085
2.632	4.02832
2.6325	1.10779
2.633	4.53186
2.6335	5.33752
2.634	9.66797
2.6345	0.40283
2.635	0.60425
2.6355	4.02832
2.636	-0.10071
2.6365	2.71912
2.637	3.8269
2.6375	6.14319
2.638	8.66089
2.6385	10.37292
2.639	13.19275
2.6395	11.17859
2.64	2.01416
2.6405	7.04956
2.641	5.13611
2.6415	3.8269
2.642	6.94885
2.6425	6.2439
2.643	11.07788
2.6435	6.04248
2.644	3.02124
2.6445	-1.71204
2.645	4.53186
2.6455	0.90637
2.646	3.42407
2.6465	4.43115
2.647	4.02832
2.6475	7.45239
2.648	4.22974
2.6485	3.12195
2.649	10.87646
2.6495	7.35168
2.65	2.01416
2.6505	-0.70496
2.651	8.66089
2.6515	4.73328
2.652	4.83398
2.6525	0
2.653	4.83398
2.6535	0.90637
2.654	2.11487
2.6545	3.92761
2.655	1.40991
2.6555	-2.31628
2.656	3.42407
2.6565	2.11487
2.657	1.2085
2.6575	1.10779
2.658	2.41699
2.6585	2.21558
2.659	2.31628
2.6595	1.61133
2.66	-1.61133
2.6605	3.62549
2.661	5.63965
2.6615	3.52478
2.662	3.32336
2.6625	6.64673
2.663	7.04956
2.6635	0.10071
2.664	3.92761
2.6645	4.43115
2.665	4.33044
2.6655	1.81274
2.666	5.63965
2.6665	7.45239
2.667	8.45947
2.6675	1.40991
2.668	1.81274
2.6685	-1.91345
2.669	-0.80566
2.6695	8.25806
2.67	1.2085
2.6705	2.92053
2.671	2.11487
2.6715	3.92761
2.672	-2.71912
2.6725	6.14319
2.673	4.73328
2.6735	11.98425
2.674	7.35168
2.6745	5.63965
2.675	5.53894
2.6755	3.02124
2.676	-1.71204
2.6765	2.71912
2.677	3.22266
2.6775	1.10779
2.678	1.91345
2.6785	4.53186
2.679	2.92053
2.6795	3.12195
2.68	0.40283
2.6805	5.74036
2.681	6.84814
2.6815	5.13611
2.682	5.13611
2.6825	4.73328
2.683	3.52478
2.6835	6.2439
2.684	6.14319
2.6845	8.05664
2.685	7.15027
2.6855	-1.00708
2.686	2.5177
2.6865	8.56018
2.687	5.43823
2.6875	4.83398
2.688	7.15027
2.6885	4.43115
2.689	4.02832
2.6895	0.10071
2.69	4.43115
2.6905	1.61133
2.691	0.60425
2.6915	-1.00708
2.692	3.32336
2.6925	-1.2085
2.693	2.92053
2.6935	2.11487
2.694	3.42407
2.6945	-3.92761
2.695	-0.30212
2.6955	1.3092
2.696	5.33752
2.6965	5.0354
2.697	4.02832
2.6975	5.84106
2.698	6.14319
2.6985	5.0354
2.699	5.23682
2.6995	3.52478
2.7	3.92761
2.7005	-2.92053
2.701	-4.93469
2.7015	-0.60425
2.702	-1.10779
2.7025	-0.50354
2.703	2.21558
2.7035	6.94885
2.704	2.61841
2.7045	-1.61133
2.705	0.50354
2.7055	-4.83398
2.706	1.81274
2.7065	-6.3446
2.707	1.40991
2.7075	-7.25098
2.708	4.73328
2.7085	1.2085
2.709	0.20142
2.7095	3.52478
2.71	-0.30212
2.7105	5.53894
2.711	1.81274
2.7115	0.80566
2.712	5.33752
2.7125	4.93469
2.713	6.64673
2.7135	2.71912
2.714	9.06372
2.7145	6.04248
2.715	11.38
2.7155	2.5177
2.716	4.63257
2.7165	3.32336
2.717	1.61133
2.7175	5.53894
2.718	5.23682
2.7185	6.2439
2.719	3.12195
2.7195	1.61133
2.72	5.84106
2.7205	1.51062
2.721	3.7262
2.7215	7.15027
2.722	7.35168
2.7225	8.05664
2.723	4.02832
2.7235	7.04956
2.724	3.42407
2.7245	6.64673
2.725	4.83398
2.7255	10.57434
2.726	8.35876
2.7265	0.20142
2.727	2.81982
2.7275	5.33752
2.728	-0.70496
2.7285	5.94177
2.729	4.93469
2.7295	2.01416
2.73	2.81982
2.7305	1.51062
2.731	2.11487
2.7315	1.2085
2.732	6.54602
2.7325	5.84106
2.733	7.35168
2.7335	6.2439
2.734	1.61133
2.7345	-0.20142
2.735	3.12195
2.7355	-1.00708
2.736	-2.81982
2.7365	1.40991
2.737	7.5531
2.7375	1.91345
2.738	0.50354
2.7385	-0.10071
2.739	4.33044
2.7395	3.8269
2.74	6.54602
2.7405	5.33752
2.741	4.53186
2.7415	9.16443
2.742	3.52478
2.7425	5.13611
2.743	8.25806
2.7435	5.23682
2.744	3.22266
2.7445	5.43823
2.745	5.84106
2.7455	-0.50354
2.746	1.81274
2.7465	5.63965
2.747	2.21558
2.7475	5.23682
2.748	7.25098
2.7485	6.2439
2.749	8.8623
2.7495	4.73328
2.75	6.04248
2.7505	8.8623
2.751	10.47363
2.7515	8.66089
2.752	9.36584
2.7525	9.86938
2.753	3.8269
2.7535	3.7262
2.754	0.20142
2.7545	0.20142
2.755	3.8269
2.7555	3.7262
2.756	0.60425
2.7565	3.92761
2.757	9.06372
2.7575	9.76868
2.758	13.69629
2.7585	7.5531
2.759	5.84106
2.7595	8.56018
2.76	-0.80566
2.7605	0
2.761	-0.60425
2.7615	-0.30212
2.762	1.51062
2.7625	2.01416
2.763	8.15735
2.7635	6.84814
2.764	7.04956
2.7645	3.02124
2.765	0.20142
2.7655	2.31628
2.766	0.50354
2.7665	2.5177
2.767	5.0354
2.7675	4.73328
2.768	5.23682
2.7685	6.84814
2.769	1.10779
2.7695	7.35168
2.77	6.94885
2.7705	2.5177
2.771	1.71204
2.7715	7.15027
2.772	4.73328
2.7725	3.22266
2.773	4.73328
2.7735	3.8269
2.774	0.90637
2.7745	-0.40283
2.775	-2.11487
2.7755	4.83398
2.776	4.93469
2.7765	4.83398
2.777	6.74744
2.7775	-3.12195
2.778	-2.41699
2.7785	-5.0354
2.779	-7.45239
2.7795	-2.31628
2.78	1.2085
2.7805	-5.23682
2.781	-3.62549
2.7815	-8.45947
2.782	-7.35168
2.7825	-5.33752
2.783	-6.84814
2.7835	-7.95593
2.784	-4.43115
2.7845	-0.30212
2.785	6.2439
2.7855	2.5177
2.786	8.45947
2.7865	3.42407
2.787	6.14319
2.7875	5.94177
2.788	12.99133
2.7885	11.38
2.789	16.61682
2.7895	16.41541
2.79	17.42249
2.7905	19.03381
2.791	14.50195
2.7915	19.63806
2.792	19.94019
2.7925	19.13452
2.793	21.14868
2.7935	21.3501
2.794	15.40833
2.7945	18.22815
2.795	22.55859
2.7955	16.51611
2.796	17.32178
2.7965	16.91895
2.797	14.19983
2.7975	5.63965
2.798	6.04248
2.7985	10.77576
2.799	13.89771
2.7995	13.19275
2.8	15.00549
2.8005	11.68213
2.801	3.62549
2.8015	2.71912
2.802	-1.3092
2.8025	-7.5531
2.803	-7.35168
2.8035	-3.7262
2.804	-6.3446
2.8045	-10.47363
2.805	-10.17151
2.8055	-4.83398
2.806	-12.5885
2.8065	-12.28638
2.807	-10.37292
2.8075	-11.48071
2.808	-6.74744
2.8085	0
2.809	1.3092
2.8095	4.22974
2.81	5.53894
2.8105	7.95593
2.811	4.33044
2.8115	7.25098
2.812	6.74744
2.8125	7.04956
2.813	12.28638
2.8135	13.09204
2.814	15.00549
2.8145	10.97717
2.815	17.72461
2.8155	14.80408
2.816	16.01257
2.8165	18.42957
2.817	15.1062
2.8175	19.53735
2.818	28.50037
2.8185	28.09753
2.819	26.98975
2.8195	25.27771
2.82	18.93311
2.8205	11.48071
2.821	12.68921
2.8215	7.15027
2.822	9.06372
2.8225	10.47363
2.823	7.15027
2.8235	9.66797
2.824	16.01257
2.8245	20.24231
2.825	22.6593
2.8255	16.11328
2.826	17.52319
2.8265	16.91895
2.827	19.03381
2.8275	17.42249
2.828	19.63806
2.8285	16.51611
2.829	14.90479
2.8295	18.12744
2.83	14.19983
2.8305	9.06372
2.831	6.54602
2.8315	-0.10071
2.832	-2.21558
2.8325	-7.75452
2.833	-9.26514
2.8335	-13.19275
2.834	-18.12744
2.8345	-25.27771
2.835	-25.47913
2.8355	-29.20532
2.836	-25.57983
2.8365	-26.3855
2.837	-26.78833
2.8375	-26.48621
2.838	-28.29895
2.8385	-22.15576
2.839	-16.21399
2.8395	-18.32886
2.84	-6.3446
2.8405	-3.62549
2.841	0.70496
2.8415	4.12903
2.842	1.40991
2.8425	3.12195
2.843	9.06372
2.8435	4.83398
2.844	11.48071
2.8445	12.28638
2.845	17.42249
2.8455	18.42957
2.846	28.50037
2.8465	29.80957
2.847	32.83081
2.8475	30.11169
2.848	26.68762
2.8485	19.63806
2.849	22.35718
2.8495	26.68762
2.85	29.40674
2.8505	25.177
2.851	17.32178
2.8515	19.03381
2.852	14.09912
2.8525	10.37292
2.853	11.98425
2.8535	5.43823
2.854	4.12903
2.8545	-8.96301
2.855	-18.12744
2.8555	-22.6593
2.856	-16.91895
2.8565	-25.98267
2.857	-30.01099
2.8575	-27.59399
2.858	-24.67346
2.8585	-35.44922
2.859	-36.55701
2.8595	-40.1825
2.86	-49.54834
2.8605	-49.24622
2.861	-55.08728
2.8615	-49.95117
2.862	-46.82922
2.8625	-33.63647
2.863	-26.3855
2.8635	-16.61682
2.864	-13.09204
2.8645	-7.75452
2.865	3.32336
2.8655	10.27222
2.866	12.78992
2.8665	10.57434
2.867	9.97009
2.8675	13.797
2.868	18.02673
2.8685	22.96143
2.869	21.85364
2.8695	35.04639
2.87	45.3186
2.8705	51.86462
2.871	58.10852
2.8715	66.87012
2.872	70.29419
2.8725	71.80481
2.873	71.40198
2.8735	59.31702
2.874	61.02905
2.8745	56.79932
2.875	41.89453
2.8755	32.83081
2.876	25.98267
2.8765	17.82532
2.877	5.94177
2.8775	-4.02832
2.878	-6.04248
2.8785	-11.68213
2.879	-10.0708
2.8795	-18.22815
2.88	-18.02673
2.8805	-16.71753
2.881	-23.66638
2.8815	-21.04797
2.882	-16.71753
2.8825	-18.8324
2.883	-10.87646
2.8835	-5.23682
2.884	13.99841
2.8845	26.48621
2.885	39.67896
2.8855	48.13843
2.886	62.9425
2.8865	66.16516
2.887	70.59631
2.8875	73.61755
2.888	74.42322
2.8885	73.81897
2.889	69.89136
2.8895	63.64746
2.89	57.30286
2.8905	47.93701
2.891	37.36267
2.8915	28.60107
2.892	20.1416
2.8925	16.41541
2.893	12.78992
2.8935	8.56018
2.894	7.75452
2.8945	7.45239
2.895	8.96301
2.8955	5.53894
2.896	3.92761
2.8965	0.70496
2.897	2.01416
2.8975	1.3092
2.898	-3.02124
2.8985	-5.84106
2.899	-5.84106
2.8995	-7.25098
2.9	-13.29346
2.9005	-9.56726
2.901	-11.48071
2.9015	-12.99133
2.902	-11.17859
2.9025	-22.55859
2.903	-19.63806
2.9035	-21.45081
2.904	-23.8678
2.9045	-29.20532
2.905	-28.09753
2.9055	-27.79541
2.906	-27.6947
2.9065	-36.95984
2.907	-35.44922
2.9075	-32.7301
2.908	-33.53577
2.9085	-36.75842
2.909	-35.34851
2.9095	-33.33435
2.91	-37.06055
2.9105	-37.16125
2.911	-37.16125
2.9115	-30.2124
2.912	-30.51453
2.9125	-22.6593
2.913	-18.53027
2.9135	-9.76868
2.914	5.74036
2.9145	13.89771
2.915	20.24231
2.9155	20.84656
2.916	24.06921
2.9165	24.97559
2.917	25.88196
2.9175	32.7301
2.918	25.27771
2.9185	29.40674
2.919	21.04797
2.9195	17.82532
2.92	16.61682
2.9205	16.21399
2.921	12.18567
2.9215	8.96301
2.922	9.76868
2.9225	1.00708
2.923	4.63257
2.9235	-0.80566
2.924	-0.10071
2.9245	-7.65381
2.925	-7.75452
2.9255	-2.61841
2.926	-7.65381
2.9265	-8.8623
2.927	-9.06372
2.9275	-12.89062
2.928	-10.0708
2.9285	-17.72461
2.929	-11.78284
2.9295	-9.56726
2.93	-11.38
2.9305	-9.16443
2.931	-14.60266
2.9315	-10.77576
2.932	-20.54443
2.9325	-28.09753
2.933	-44.51294
2.9335	-65.05737
2.934	-76.84021
2.9345	-83.78906
2.935	-84.2926
2.9355	-87.61597
2.936	-87.71667
2.9365	-80.66711
2.937	-68.07861
2.9375	-55.69153
2.938	-49.14551
2.9385	-41.39099
2.939	-29.70886
2.9395	-22.15576
2.94	-6.44531
2.9405	1.40991
2.941	19.73877
2.9415	28.19824
2.942	30.01099
2.9425	35.2478
2.943	32.7301
2.9435	41.4917
2.944	49.14551
2.9445	61.33118
2.945	63.94958
2.9455	63.94958
2.946	70.49561
2.9465	70.49561
2.947	70.79773
2.9475	63.34534
2.948	60.22339
2.9485	48.13843
2.949	38.87329
2.9495	16.11328
2.95	4.22974
2.9505	0.70496
2.951	-6.54602
2.9515	-13.99841
2.952	-13.59558
2.9525	-16.81824
2.953	-3.22266
2.9535	-3.32336
2.954	-1.10779
2.9545	1.71204
2.955	7.35168
2.9555	9.36584
2.956	13.19275
2.9565	14.70337
2.957	16.71753
2.9575	29.60815
2.958	34.34143
2.9585	42.29736
2.959	47.7356
2.9595	51.46179
2.96	50.65613
2.9605	44.41223
2.961	47.93701
2.9615	50.55542
2.962	51.15967
2.9625	46.72852
2.963	44.71436
2.9635	39.07471
2.964	42.19666
2.9645	35.14709
2.965	30.01099
2.9655	30.71594
2.966	28.19824
2.9665	23.76709
2.967	21.04797
2.9675	15.20691
2.968	12.28638
2.9685	9.46655
2.969	10.37292
2.9695	5.94177
2.97	4.02832
2.9705	-4.63257
2.971	-3.92761
2.9715	-5.63965
2.972	-11.48071
2.9725	-12.38708
2.973	-6.94885
2.9735	-14.09912
2.974	-16.01257
2.9745	-13.59558
2.975	-9.06372
2.9755	-11.78284
2.976	-11.2793
2.9765	-8.35876
2.977	-9.97009
2.9775	-9.16443
2.978	-5.33752
2.9785	-4.83398
2.979	-8.45947
2.9795	-6.94885
2.98	-7.15027
2.9805	-4.73328
2.981	-6.14319
2.9815	-0.80566
2.982	-6.64673
2.9825	-7.5531
2.983	-1.71204
2.9835	-5.84106
2.984	3.22266
2.9845	-0.10071
2.985	-0.30212
2.9855	-2.31628
2.986	-2.41699
2.9865	-5.94177
2.987	-0.10071
2.9875	-4.02832
2.988	0.10071
2.9885	1.81274
2.989	1.91345
2.9895	-1.10779
2.99	-7.45239
2.9905	-4.02832
2.991	-6.14319
2.9915	-12.18567
2.992	-9.46655
2.9925	-7.04956
2.993	-9.66797
2.9935	-10.27222
2.994	-9.16443
2.9945	-11.17859
2.995	-7.45239
2.9955	-9.26514
2.996	-3.32336
2.9965	-3.22266
2.997	-1.2085
2.9975	0.70496
2.998	-4.22974
2.9985	-5.23682
2.999	-6.44531
2.9995	-11.2793
3	-10.87646
3.0005	-12.89062
3.001	-6.54602
3.0015	-4.73328
3.002	-13.797
3.0025	-10.0708
3.003	-12.89062
3.0035	-10.0708
3.004	-2.61841
3.0045	-4.73328
3.005	3.22266
3.0055	0.60425
3.006	6.74744
3.0065	20.44373
3.007	18.53027
3.0075	29.00391
3.008	20.54443
3.0085	16.51611
3.009	9.97009
3.0095	5.53894
3.01	-2.21558
3.0105	-4.53186
3.011	-0.70496
3.0115	-12.89062
3.012	-21.65222
3.0125	-15.30762
3.013	-19.73877
3.0135	-19.53735
3.014	-20.24231
3.0145	-25.68054
3.015	-22.6593
3.0155	-18.93311
3.016	-32.7301
3.0165	-41.4917
3.017	-42.7002
3.0175	-50.55542
3.018	-82.58057
3.0185	-110.6781
3.019	-128.10059
3.0195	-123.16589
3.02	-146.22803
3.0205	-157.70874
3.021	-168.28308
3.0215	-148.84644
3.022	-124.07227
3.0225	-85.5011
3.023	-56.09436
3.0235	-31.11877
3.024	7.45239
3.0245	34.74426
3.025	66.36658
3.0255	83.38623
3.026	95.67261
3.0265	84.59473
3.027	19.63806
3.0275	-43.30444
3.028	-97.18323
3.0285	-132.0282
3.029	-139.68201
3.0295	-129.91333
3.03	-119.13757
3.0305	-102.31934
3.031	-79.35791
3.0315	-42.7002
3.032	3.32336
3.0325	43.90869
3.033	92.14783
3.0335	127.09351
3.034	157.40662
3.0345	192.95654
3.035	217.32788
3.0355	236.66382
3.036	242.00134
3.0365	244.21692
3.037	234.24683
3.0375	222.76611
3.038	207.15637
3.0385	197.08557
3.039	187.61902
3.0395	173.31848
3.04	150.55847
3.0405	126.79138
3.041	110.77881
3.0415	100.00305
3.042	84.09119
3.0425	79.35791
3.043	73.91968
3.0435	65.3595
3.044	53.67737
3.0445	44.81506
3.045	32.83081
3.0455	29.70886
3.046	16.61682
3.0465	10.37292
3.047	0.30212
3.0475	-1.3092
3.048	-13.99841
3.0485	-20.24231
3.049	-25.78125
3.0495	-31.52161
3.05	-39.98108
3.0505	-42.90161
3.051	-42.90161
3.0515	-43.10303
3.052	-39.77966
3.0525	-36.35559
3.053	-29.50745
3.0535	-24.87488
3.054	-25.78125
3.0545	-12.99133
3.055	-9.26514
3.0555	-5.63965
3.056	-0.90637
3.0565	1.91345
3.057	9.56726
3.0575	19.53735
3.058	32.93152
3.0585	38.47046
3.059	30.71594
3.0595	27.79541
3.06	25.07629
3.0605	9.06372
3.061	-9.86938
3.0615	-47.93701
3.062	-84.69543
3.0625	-110.98022
3.063	-116.11633
3.0635	-130.01404
3.064	-143.4082
3.0645	-155.69458
3.065	-157.50732
3.0655	-151.66626
3.066	-146.42944
3.0665	-135.04944
3.067	-105.34058
3.0675	-67.57507
3.068	-32.62939
3.0685	-5.84106
3.069	24.27063
3.0695	39.37683
3.07	55.69153
3.0705	70.69702
3.071	88.42163
3.0715	95.5719
3.072	102.62146
3.0725	101.9165
3.073	103.72925
3.0735	90.33508
3.074	87.21313
3.0745	69.48853
3.075	50.45471
3.0755	36.65771
3.076	15.40833
3.0765	0.80566
3.077	-6.94885
3.0775	-18.22815
3.078	-12.78992
3.0785	-2.41699
3.079	7.25098
3.0795	15.60974
3.08	25.37842
3.0805	30.01099
3.081	28.70178
3.0815	34.24072
3.082	28.9032
3.0825	14.09912
3.083	1.91345
3.0835	-10.27222
3.084	-12.89062
3.0845	-14.80408
3.085	-4.33044
3.0855	-2.41699
3.086	5.53894
3.0865	16.91895
3.087	31.21948
3.0875	42.59949
3.088	28.60107
3.0885	-38.87329
3.089	-109.06677
3.0895	-150.05493
3.09	-155.09033
3.0905	-150.05493
3.091	-131.32324
3.0915	-106.14624
3.092	-72.71118
3.0925	-42.49878
3.093	-23.96851
3.0935	-10.17151
3.094	4.02832
3.0945	24.37134
3.095	38.974
3.0955	46.22498
3.096	51.86462
3.0965	53.87878
3.097	56.5979
3.0975	54.78516
3.098	40.2832
3.0985	24.67346
3.099	23.36426
3.0995	12.18567
3.1	13.29346
3.1005	6.44531
3.101	-4.93469
3.1015	-14.60266
3.102	-10.57434
3.1025	-0.80566
3.103	8.05664
3.1035	20.1416
3.104	32.32727
3.1045	33.23364
3.105	33.53577
3.1055	32.42798
3.106	42.29736
3.1065	48.74268
3.107	52.46887
3.1075	60.3241
3.108	58.20923
3.1085	55.89294
3.109	44.71436
3.1095	43.30444
3.11	37.16125
3.1105	29.10461
3.111	26.28479
3.1115	26.88904
3.112	26.48621
3.1125	19.63806
3.113	13.49487
3.1135	15.81116
3.114	16.01257
3.1145	12.08496
3.115	9.66797
3.1155	3.8269
3.116	2.01416
3.1165	-3.8269
3.117	-4.22974
3.1175	-2.81982
3.118	-1.71204
3.1185	5.23682
3.119	12.78992
3.1195	10.77576
3.12	6.14319
3.1205	8.7616
3.121	6.14319
3.1215	2.31628
3.122	0.10071
3.1225	0.60425
3.123	-2.61841
3.1235	-12.08496
3.124	-11.58142
3.1245	-15.20691
3.125	-16.3147
3.1255	-15.40833
3.126	-5.53894
3.1265	-7.25098
3.127	-2.5177
3.1275	-5.53894
3.128	-1.00708
3.1285	-20.24231
3.129	-59.82056
3.1295	-81.27136
3.13	-83.68835
3.1305	-74.2218
3.131	-58.20923
3.1315	-31.4209
3.132	-16.91895
3.1325	-2.92053
3.133	5.33752
3.1335	16.91895
3.134	28.50037
3.1345	32.83081
3.135	19.23523
3.1355	5.53894
3.136	-31.32019
3.1365	-57.10144
3.137	-70.89844
3.1375	-80.26428
3.138	-77.14233
3.1385	-60.4248
3.139	-55.69153
3.1395	-48.33984
3.14	-34.03931
3.1405	-26.48621
3.141	-30.2124
3.1415	-35.04639
3.142	-35.2478
3.1425	-41.18958
3.143	-39.88037
3.1435	-42.90161
3.144	-41.4917
3.1445	-32.12585
3.145	-28.60107
3.1455	-31.32019
3.146	-31.52161
3.1465	-20.84656
3.147	-20.74585
3.1475	-14.70337
3.148	0.60425
3.1485	9.76868
3.149	27.99683
3.1495	38.47046
3.15	58.10852
3.1505	63.84888
3.151	74.52393
3.1515	84.09119
3.152	94.66553
3.1525	93.15491
3.153	89.12659
3.1535	87.11243
3.154	81.27136
3.1545	71.7041
3.155	57.60498
3.1555	47.7356
3.156	47.13135
3.1565	41.4917
3.157	32.22656
3.1575	23.56567
3.158	21.65222
3.1585	22.76001
3.159	39.57825
3.1595	37.56409
3.16	33.9386
3.1605	26.88904
3.161	14.80408
3.1615	-3.92761
3.162	-14.40125
3.1625	-26.3855
3.163	-36.55701
3.1635	-38.87329
3.164	-33.03223
3.1645	-24.97559
3.165	-15.60974
3.1655	-9.26514
3.166	0.40283
3.1665	9.26514
3.167	8.56018
3.1675	-5.74036
3.168	-14.80408
3.1685	-34.94568
3.169	-56.49719
3.1695	-62.43896
3.17	-59.41772
3.1705	-73.81897
3.171	-115.61279
3.1715	-134.84802
3.172	-130.51758
3.1725	-113.90076
3.173	-88.22021
3.1735	-50.55542
3.174	-20.44373
3.1745	20.44373
3.175	60.3241
3.1755	97.48535
3.176	121.15173
3.1765	138.3728
3.177	149.45068
3.1775	156.29883
3.178	145.42236
3.1785	142.19971
3.179	116.61987
3.1795	90.83862
3.18	70.99915
3.1805	48.33984
3.181	24.97559
3.1815	6.54602
3.182	-18.73169
3.1825	-36.05347
3.183	-37.56409
3.1835	-44.71436
3.184	-115.61279
3.1845	-190.13672
3.185	-233.44116
3.1855	-234.04541
3.186	-203.63159
3.1865	-153.27759
3.187	-99.49951
3.1875	-47.93701
3.188	2.11487
3.1885	39.37683
3.189	75.12817
3.1895	111.18164
3.19	139.48059
3.1905	155.79529
3.191	165.36255
3.1915	172.61353
3.192	162.54272
3.1925	151.16272
3.193	132.0282
3.1935	121.45386
3.194	104.03137
3.1945	83.78906
3.195	63.84888
3.1955	49.74976
3.196	31.72302
3.1965	10.67505
3.197	3.02124
3.1975	-0.50354
3.198	1.2085
3.1985	5.53894
3.199	0.70496
3.1995	7.04956
3.2	7.25098
3.2005	4.73328
3.201	3.32336
3.2015	3.02124
3.202	0.60425
3.2025	-1.00708
3.203	4.73328
3.2035	-0.70496
3.204	0.90637
3.2045	-1.40991
3.205	0
3.2055	-6.04248
3.206	-4.93469
3.2065	-8.45947
3.207	-17.01965
3.2075	-19.33594
3.208	-21.75293
3.2085	-20.44373
3.209	-20.1416
3.2095	-22.05505
3.21	-31.72302
3.2105	-33.63647
3.211	-31.72302
3.2115	-34.34143
3.212	-34.34143
3.2125	-31.82373
3.213	-32.32727
3.2135	-34.14001
3.214	-32.52869
3.2145	-34.54285
3.215	-27.89612
3.2155	-29.50745
3.216	-29.10461
3.2165	-24.27063
3.217	-12.99133
3.2175	-1.00708
3.218	15.91187
3.2185	14.40125
3.219	25.78125
3.2195	35.54993
3.22	38.77258
3.2205	37.96692
3.221	34.94568
3.2215	29.20532
3.222	27.6947
3.2225	26.68762
3.223	23.06213
3.2235	21.55151
3.224	24.47205
3.2245	22.55859
3.225	11.98425
3.2255	18.32886
3.226	17.92603
3.2265	16.3147
3.227	17.52319
3.2275	11.68213
3.228	12.5885
3.2285	12.99133
3.229	6.64673
3.2295	-3.42407
3.23	-0.80566
3.2305	-0.70496
3.231	-10.47363
3.2315	-16.71753
3.232	-12.18567
3.2325	-18.02673
3.233	-15.71045
3.2335	-10.47363
3.234	-14.90479
3.2345	-12.5885
3.235	-4.43115
3.2355	-1.10779
3.236	1.81274
3.2365	5.33752
3.237	8.35876
3.2375	14.50195
3.238	20.84656
3.2385	19.23523
3.239	20.64514
3.2395	21.75293
3.24	14.40125
3.2405	12.38708
3.241	10.37292
3.2415	8.35876
3.242	2.61841
3.2425	4.33044
3.243	5.84106
3.2435	-2.11487
3.244	-15.30762
3.2445	-13.89771
3.245	-10.27222
3.2455	-8.05664
3.246	-0.20142
3.2465	9.46655
3.247	13.99841
3.2475	24.16992
3.248	24.67346
3.2485	31.11877
3.249	33.9386
3.2495	30.81665
3.25	31.52161
3.2505	32.42798
3.251	19.94019
3.2515	2.81982
3.252	-22.15576
3.2525	-41.69312
3.253	-44.41223
3.2535	-43.60657
3.254	-39.98108
3.2545	-27.79541
3.255	-10.57434
3.2555	5.23682
3.256	10.57434
3.2565	-21.14868
3.257	-56.69861
3.2575	-64.151
3.258	-58.10852
3.2585	-44.51294
3.259	-27.59399
3.2595	-9.56726
3.26	5.63965
3.2605	26.18408
3.261	36.25488
3.2615	44.11011
3.262	47.7356
3.2625	63.34534
3.263	63.34534
3.2635	66.97083
3.264	72.20764
3.2645	73.11401
3.265	71.7041
3.2655	61.73401
3.266	54.98657
3.2665	51.36108
3.267	44.51294
3.2675	31.82373
3.268	12.99133
3.2685	2.41699
3.269	-3.32336
3.2695	-9.26514
3.27	-13.797
3.2705	-18.02673
3.271	-19.83948
3.2715	-17.52319
3.272	-11.98425
3.2725	0.70496
3.273	7.04956
3.2735	4.63257
3.274	-0.60425
3.2745	0.40283
3.275	-1.40991
3.2755	-1.10779
3.276	-19.23523
3.2765	-27.09045
3.277	-34.64355
3.2775	-43.60657
3.278	-39.07471
3.2785	-37.26196
3.279	-29.40674
3.2795	-24.57275
3.28	-13.39417
3.2805	-5.13611
3.281	10.37292
3.2815	26.58691
3.282	41.18958
3.2825	55.3894
3.283	68.88428
3.2835	73.71826
3.284	82.88269
3.2845	86.50818
3.285	80.26428
3.2855	72.40906
3.286	51.66321
3.2865	36.15417
3.287	19.94019
3.2875	-7.04956
3.288	-14.19983
3.2885	-21.14868
3.289	-31.72302
3.2895	-38.77258
3.29	-36.05347
3.2905	-27.99683
3.291	-25.47913
3.2915	-30.71594
3.292	-28.9032
3.2925	-25.98267
3.293	-24.87488
3.2935	-25.57983
3.294	-25.47913
3.2945	-17.32178
3.295	-24.57275
3.2955	-41.99524
3.296	-61.33118
3.2965	-59.31702
3.297	-41.59241
3.2975	-23.16284
3.298	-5.63965
3.2985	17.82532
3.299	39.07471
3.2995	58.41064
3.3	70.3949
3.3005	80.56641
3.301	84.89685
3.3015	91.04004
3.302	86.20605
3.3025	85.90393
3.303	84.19189
3.3035	76.13525
3.304	63.14392
3.3045	57.60498
3.305	43.10303
3.3055	37.66479
3.306	25.98267
3.3065	18.73169
3.307	19.94019
3.3075	9.36584
3.308	14.50195
3.3085	10.87646
3.309	11.48071
3.3095	8.05664
3.31	16.3147
3.3105	18.02673
3.311	15.00549
3.3115	19.33594
3.312	26.88904
3.3125	28.29895
3.313	31.01807
3.3135	28.50037
3.314	26.18408
3.3145	15.91187
3.315	6.84814
3.3155	-3.52478
3.316	-2.61841
3.3165	0
3.317	-8.25806
3.3175	-18.42957
3.318	-8.66089
3.3185	-4.43115
3.319	-7.75452
3.3195	-6.3446
3.32	-6.94885
3.3205	-12.18567
3.321	-16.61682
3.3215	-17.52319
3.322	-22.45789
3.3225	-23.96851
3.323	-31.72302
3.3235	-35.14709
3.324	-31.62231
3.3245	-23.06213
3.325	-15.71045
3.3255	-11.17859
3.326	2.71912
3.3265	19.23523
3.327	32.52869
3.3275	47.03064
3.328	56.5979
3.3285	69.99207
3.329	76.33667
3.3295	92.44995
3.33	92.44995
3.3305	86.70959
3.331	77.04163
3.3315	69.08569
3.332	54.88586
3.3325	44.71436
3.333	43.20374
3.3335	29.80957
3.334	21.3501
3.3345	16.11328
3.335	8.05664
3.3355	3.62549
3.336	-6.94885
3.3365	-7.04956
3.337	-9.76868
3.3375	-14.30054
3.338	-14.70337
3.3385	-12.28638
3.339	-11.38
3.3395	-6.2439
3.34	0.40283
3.3405	-6.74744
3.341	-3.62549
3.3415	2.71912
3.342	6.84814
3.3425	5.94177
3.343	5.0354
3.3435	13.19275
3.344	13.69629
3.3445	20.34302
3.345	26.98975
3.3455	29.20532
3.346	30.01099
3.3465	27.49329
3.347	22.15576
3.3475	11.88354
3.348	12.5885
3.3485	12.38708
3.349	5.53894
3.3495	12.48779
3.35	5.13611
3.3505	-1.81274
3.351	-50.2533
3.3515	-155.39246
3.352	-226.19019
3.3525	-261.74011
3.353	-242.90771
3.3535	-201.31531
3.354	-162.94556
3.3545	-116.31775
3.355	-75.83313
3.3555	-27.09045
3.356	6.94885
3.3565	42.7002
3.357	76.53809
3.3575	106.14624
3.358	138.77563
3.3585	151.76697
3.359	165.9668
3.3595	173.11707
3.36	161.93848
3.3605	140.58838
3.361	117.32483
3.3615	93.15491
3.362	73.91968
3.3625	61.02905
3.363	40.98816
3.3635	30.2124
3.364	26.78833
3.3645	33.9386
3.365	38.47046
3.3655	51.5625
3.366	63.24463
3.3665	71.30127
3.367	65.96375
3.3675	57.70569
3.368	57.30286
3.3685	52.97241
3.369	46.5271
3.3695	36.85913
3.37	30.51453
3.3705	21.95435
3.371	16.51611
3.3715	17.32178
3.372	13.29346
3.3725	6.44531
3.373	2.61841
3.3735	-3.22266
3.374	-8.7616
3.3745	-16.01257
3.375	-13.29346
3.3755	-10.97717
3.376	-13.99841
3.3765	-15.00549
3.377	-18.93311
3.3775	-21.45081
3.378	-19.33594
3.3785	-15.50903
3.379	-16.3147
3.3795	-18.12744
3.38	-28.19824
3.3805	-76.03455
3.381	-129.10767
3.3815	-150.55847
3.382	-152.1698
3.3825	-146.73157
3.383	-128.20129
3.3835	-103.32642
3.384	-69.79065
3.3845	-31.21948
3.385	-7.95593
3.3855	24.67346
3.386	53.27454
3.3865	80.66711
3.387	108.05969
3.3875	120.95032
3.388	141.09192
3.3885	145.52307
3.389	136.56006
3.3895	120.04395
3.39	95.67261
3.3905	66.87012
3.391	40.08179
3.3915	-9.26514
3.392	-40.48462
3.3925	-54.18091
3.393	-56.49719
3.3935	-41.39099
3.394	-25.177
3.3945	-16.71753
3.395	-0.40283
3.3955	17.22107
3.396	36.75842
3.3965	54.78516
3.397	60.22339
3.3975	69.89136
3.398	79.15649
3.3985	82.07703
3.399	83.68835
3.3995	82.58057
3.4	77.24304
3.4005	58.71277
3.401	45.41931
3.4015	33.23364
3.402	18.93311
3.4025	-32.7301
3.403	-96.67969
3.4035	-126.79138
3.404	-133.74023
3.4045	-123.87085
3.405	-113.90076
3.4055	-94.66553
3.406	-72.20764
3.4065	-56.69861
3.407	-40.78674
3.4075	-20.74585
3.408	0.30212
3.4085	11.2793
3.409	34.54285
3.4095	41.59241
3.41	46.02356
3.4105	44.21082
3.411	45.2179
3.4115	45.3186
3.412	45.01648
3.4125	44.21082
3.413	43.90869
3.4135	45.01648
3.414	46.42639
3.4145	48.03772
3.415	55.59082
3.4155	68.17932
3.416	79.76074
3.4165	86.8103
3.417	89.93225
3.4175	84.99756
3.418	81.67419
3.4185	77.74658
3.419	72.10693
3.4195	64.25171
3.42	49.64905
3.4205	39.88037
3.421	26.98975
3.4215	22.25647
3.422	15.1062
3.4225	3.12195
3.423	-6.74744
3.4235	-13.69629
3.424	-16.91895
3.4245	-22.45789
3.425	-26.78833
3.4255	-13.29346
3.426	-9.06372
3.4265	4.43115
3.427	0.70496
3.4275	9.06372
3.428	18.42957
3.4285	26.98975
3.429	24.87488
3.4295	28.80249
3.43	27.6947
3.4305	19.63806
3.431	23.66638
3.4315	11.68213
3.432	6.54602
3.4325	1.3092
3.433	-6.2439
3.4335	-5.84106
3.434	-5.33752
3.4345	-8.66089
3.435	-6.44531
3.4355	-9.16443
3.436	-12.68921
3.4365	-11.07788
3.437	-11.68213
3.4375	-14.09912
3.438	-15.1062
3.4385	-12.68921
3.439	-16.01257
3.4395	-15.50903
3.44	-16.61682
3.4405	-14.70337
3.441	-10.47363
3.4415	-8.35876
3.442	-6.94885
3.4425	-7.45239
3.443	-7.65381
3.4435	-15.60974
3.444	-12.89062
3.4445	-10.77576
3.445	-12.68921
3.4455	-9.46655
3.446	-6.74744
3.4465	-7.75452
3.447	-5.13611
3.4475	-7.85522
3.448	-11.98425
3.4485	-12.28638
3.449	-13.19275
3.4495	-15.20691
3.45	-12.78992
3.4505	-8.25806
3.451	-15.40833
3.4515	-22.45789
3.452	-28.9032
3.4525	-19.43665
3.453	-18.53027
3.4535	-11.58142
3.454	-0.50354
3.4545	4.22974
3.455	16.11328
3.4555	24.37134
3.456	29.40674
3.4565	33.03223
3.457	37.56409
3.4575	32.52869
3.458	34.03931
3.4585	19.63806
3.459	-54.68445
3.4595	-181.77795
3.46	-275.4364
3.4605	-345.02563
3.461	-361.84387
3.4615	-345.8313
3.462	-302.72827
3.4625	-239.98718
3.463	-171.30432
3.4635	-108.96606
3.464	-43.00232
3.4645	24.97559
3.465	93.65845
3.4655	149.34998
3.466	177.04468
3.4665	200.40894
3.467	204.63867
3.4675	202.5238
3.468	187.4176
3.4685	175.93689
3.469	156.09741
3.4695	125.48218
3.47	108.1604
3.4705	80.76782
3.471	42.49878
3.4715	12.38708
3.472	-2.92053
3.4725	-17.01965
3.473	-21.75293
3.4735	-12.38708
3.474	-0.60425
3.4745	6.14319
3.475	3.52478
3.4755	7.5531
3.476	22.25647
3.4765	36.55701
3.477	57.8064
3.4775	77.04163
3.478	75.93384
3.4785	76.13525
3.479	67.8772
3.4795	62.03613
3.48	48.94409
3.4805	45.01648
3.481	35.04639
3.4815	25.47913
3.482	9.86938
3.4825	-30.91736
3.483	-87.21313
3.4835	-124.77722
3.484	-123.06519
3.4845	-101.71509
3.485	-79.55933
3.4855	-54.68445
3.486	-36.85913
3.4865	-16.01257
3.487	5.0354
3.4875	17.01965
3.488	23.8678
3.4885	28.09753
3.489	42.59949
3.4895	54.78516
3.49	65.05737
3.4905	62.43896
3.491	61.02905
3.4915	59.92126
3.492	55.69153
3.4925	51.26038
3.493	44.21082
3.4935	30.2124
3.494	30.91736
3.4945	31.01807
3.495	40.1825
3.4955	47.23206
3.496	47.93701
3.4965	43.50586
3.497	35.54993
3.4975	29.50745
3.498	20.84656
3.4985	15.40833
3.499	2.11487
3.4995	-10.17151
3.5	-15.71045
3.5005	-11.68213
3.501	-39.77966
3.5015	-86.10535
3.502	-113.80005
3.5025	-126.69067
3.503	-107.85828
3.5035	-82.07703
3.504	-61.93542
3.5045	-45.92285
3.505	-34.44214
3.5055	-20.44373
3.506	4.02832
3.5065	15.60974
3.507	32.7301
3.5075	51.05896
3.508	65.25879
3.5085	68.68286
3.509	70.09277
3.5095	58.81348
3.51	40.48462
3.5105	39.27612
3.511	24.57275
3.5115	11.07788
3.512	-4.43115
3.5125	-14.19983
3.513	-28.60107
3.5135	-34.94568
3.514	-25.78125
3.5145	-14.50195
3.515	-5.84106
3.5155	-2.21558
3.516	-7.04956
3.5165	-1.81274
3.517	0.90637
3.5175	-4.83398
3.518	-2.11487
3.5185	1.2085
3.519	0
3.5195	-15.71045
3.52	-22.15576
3.5205	-23.96851
3.521	-21.3501
3.5215	-11.38
3.522	-13.797
3.5225	-8.05664
3.523	-1.10779
3.5235	5.23682
3.524	-4.83398
3.5245	-9.36584
3.525	-12.68921
3.5255	-6.14319
3.526	4.22974
3.5265	19.23523
3.527	33.23364
3.5275	32.42798
3.528	36.25488
3.5285	44.0094
3.529	46.42639
3.5295	51.46179
3.53	39.88037
3.5305	37.26196
3.531	37.26196
3.5315	29.91028
3.532	31.52161
3.5325	36.05347
3.533	26.58691
3.5335	32.42798
3.534	29.10461
3.5345	31.92444
3.535	24.47205
3.5355	-0.30212
3.536	-120.14465
3.5365	-227.6001
3.537	-273.62366
3.5375	-261.5387
3.538	-206.65283
3.5385	-161.23352
3.539	-113.69934
3.5395	-65.46021
3.54	-19.94019
3.5405	15.50903
3.541	49.54834
3.5415	74.82605
3.542	95.26978
3.5425	108.1604
3.543	105.44128
3.5435	100.00305
3.544	88.82446
3.5445	76.43738
3.545	69.68994
3.5455	60.92834
3.546	53.77808
3.5465	39.47754
3.547	38.36975
3.5475	28.09753
3.548	14.70337
3.5485	9.66797
3.549	-2.61841
3.5495	2.31628
3.55	-0.50354
3.5505	3.7262
3.551	3.12195
3.5515	10.77576
3.552	10.97717
3.5525	8.8623
3.553	11.48071
3.5535	17.22107
3.554	31.72302
3.5545	52.97241
3.555	69.1864
3.5555	79.2572
3.556	94.46411
3.5565	99.09668
3.557	95.97473
3.5575	82.88269
3.558	70.19348
3.5585	63.34534
3.559	50.95825
3.5595	35.75134
3.56	27.49329
3.5605	19.43665
3.561	11.68213
3.5615	9.26514
3.562	12.48779
3.5625	18.73169
3.563	16.3147
3.5635	19.03381
3.564	19.33594
3.5645	5.43823
3.565	1.81274
3.5655	-4.63257
3.566	-4.93469
3.5665	-5.23682
3.567	1.81274
3.5675	5.0354
3.568	13.19275
3.5685	17.01965
3.569	11.98425
3.5695	10.17151
3.57	6.04248
3.5705	7.04956
3.571	-1.40991
3.5715	0.30212
3.572	5.53894
3.5725	0.50354
3.573	-2.81982
3.5735	-2.11487
3.574	-3.52478
3.5745	-8.7616
3.575	-11.38
3.5755	-13.19275
3.576	-18.93311
3.5765	-24.06921
3.577	-27.39258
3.5775	-31.4209
3.578	-29.00391
3.5785	-29.20532
3.579	-29.80957
3.5795	-26.78833
3.58	-21.3501
3.5805	-25.68054
3.581	-23.66638
3.5815	-20.74585
3.582	-13.59558
3.5825	-12.5885
3.583	-21.04797
3.5835	-23.36426
3.584	-22.05505
3.5845	-11.48071
3.585	-11.98425
3.5855	-4.33044
3.586	0.30212
3.5865	-3.12195
3.587	-0.40283
3.5875	7.95593
3.588	6.44531
3.5885	8.96301
3.589	18.8324
3.5895	20.64514
3.59	33.23364
3.5905	32.52869
3.591	34.64355
3.5915	38.87329
3.592	37.46338
3.5925	36.15417
3.593	26.68762
3.5935	23.36426
3.594	15.50903
3.5945	14.70337
3.595	13.59558
3.5955	15.50903
3.596	8.45947
3.5965	14.60266
3.597	11.68213
3.5975	12.08496
3.598	13.39417
3.5985	12.48779
3.599	11.2793
3.5995	15.71045
3.6	9.66797
3.6005	9.06372
3.601	12.99133
3.6015	14.90479
3.602	14.40125
3.6025	14.09912
3.603	10.97717
3.6035	13.59558
3.604	18.22815
3.6045	16.71753
3.605	18.73169
3.6055	12.38708
3.606	17.12036
3.6065	24.16992
3.607	24.77417
3.6075	25.98267
3.608	28.80249
3.6085	24.57275
3.609	17.92603
3.6095	20.24231
3.61	18.63098
3.6105	14.60266
3.611	12.18567
3.6115	5.13611
3.612	2.31628
3.6125	-2.11487
3.613	-5.33752
3.6135	-1.00708
3.614	-7.65381
3.6145	-12.08496
3.615	-11.98425
3.6155	-15.50903
3.616	-13.49487
3.6165	-12.18567
3.617	-7.85522
3.6175	-2.21558
3.618	3.52478
3.6185	11.38
3.619	11.78284
3.6195	18.63098
3.62	21.75293
3.6205	21.85364
3.621	22.15576
3.6215	30.71594
3.622	25.27771
3.6225	25.27771
3.623	26.68762
3.6235	20.64514
3.624	22.55859
3.6245	18.53027
3.625	11.2793
3.6255	10.17151
3.626	7.5531
3.6265	6.94885
3.627	8.8623
3.6275	11.88354
3.628	11.88354
3.6285	13.09204
3.629	9.46655
3.6295	7.45239
3.63	5.43823
3.6305	3.12195
3.631	1.61133
3.6315	2.01416
3.632	0.20142
3.6325	2.21558
3.633	-0.80566
3.6335	-2.11487
3.634	-4.73328
3.6345	-3.02124
3.635	-4.12903
3.6355	-3.32336
3.636	-4.22974
3.6365	-0.90637
3.637	1.51062
3.6375	7.85522
3.638	4.02832
3.6385	9.76868
3.639	5.43823
3.6395	6.94885
3.64	3.52478
3.6405	4.53186
3.641	-2.71912
3.6415	-6.44531
3.642	-7.25098
3.6425	-3.02124
3.643	-0.40283
3.6435	-0.70496
3.644	-3.92761
3.6445	-5.53894
3.645	-7.65381
3.6455	-3.42407
3.646	-9.86938
3.6465	-8.96301
3.647	-7.25098
3.6475	-2.01416
3.648	-6.3446
3.6485	-0.20142
3.649	-0.80566
3.6495	-0.70496
3.65	7.5531
3.6505	1.71204
3.651	4.43115
3.6515	1.61133
3.652	-5.94177
3.6525	2.31628
3.653	2.01416
3.6535	2.71912
3.654	-5.43823
3.6545	1.71204
3.655	5.13611
3.6555	-0.30212
3.656	-1.2085
3.6565	-1.2085
3.657	-2.01416
3.6575	-2.01416
3.658	7.35168
3.6585	9.46655
3.659	5.13611
3.6595	10.27222
3.66	11.48071
3.6605	2.21558
3.661	4.33044
3.6615	-1.71204
3.662	-4.53186
3.6625	-9.76868
3.663	-4.12903
3.6635	-8.45947
3.664	-14.30054
3.6645	-12.99133
3.665	-14.09912
3.6655	-10.77576
3.666	-9.76868
3.6665	-11.17859
3.667	-12.28638
3.6675	-17.82532
3.668	-20.04089
3.6685	-17.12036
3.669	-6.44531
3.6695	-1.71204
3.67	12.5885
3.6705	17.52319
3.671	21.75293
3.6715	21.04797
3.672	20.24231
3.6725	17.82532
3.673	16.81824
3.6735	11.38
3.674	12.68921
3.6745	12.78992
3.675	10.47363
3.6755	8.96301
3.676	16.01257
3.6765	12.78992
3.677	21.14868
3.6775	20.54443
3.678	16.11328
3.6785	16.21399
3.679	11.98425
3.6795	14.30054
3.68	9.16443
3.6805	10.87646
3.681	10.97717
3.6815	14.90479
3.682	15.71045
3.6825	12.18567
3.683	9.36584
3.6835	4.83398
3.684	11.68213
3.6845	4.12903
3.685	4.63257
3.6855	7.35168
3.686	4.63257
3.6865	10.37292
3.687	8.45947
3.6875	3.92761
3.688	7.5531
3.6885	-1.2085
3.689	-1.00708
3.6895	-1.40991
3.69	2.41699
3.6905	2.31628
3.691	9.46655
3.6915	2.11487
3.692	5.43823
3.6925	10.37292
3.693	14.90479
3.6935	18.02673
3.694	8.35876
3.6945	4.63257
3.695	0.30212
3.6955	-5.84106
3.696	-9.97009
3.6965	-6.54602
3.697	-10.0708
3.6975	-11.88354
3.698	-9.66797
3.6985	-18.63098
3.699	-14.90479
3.6995	-12.78992
3.7	-14.80408
3.7005	-9.86938
3.701	-6.2439
3.7015	-1.71204
3.702	-4.33044
3.7025	0.10071
3.703	1.71204
3.7035	6.14319
3.704	13.49487
3.7045	16.3147
3.705	24.27063
3.7055	24.97559
3.706	32.93152
3.7065	28.50037
3.707	28.9032
3.7075	28.70178
3.708	24.77417
3.7085	24.47205
3.709	19.23523
3.7095	26.88904
3.71	24.16992
3.7105	27.19116
3.711	29.20532
3.7115	25.88196
3.712	24.77417
3.7125	29.70886
3.713	24.77417
3.7135	23.46497
3.714	19.33594
3.7145	17.6239
3.715	15.91187
3.7155	17.22107
3.716	19.73877
3.7165	9.46655
3.717	17.6239
3.7175	10.0708
3.718	9.06372
3.7185	11.78284
3.719	10.97717
3.7195	9.06372
3.72	8.56018
3.7205	13.29346
3.721	10.37292
3.7215	9.56726
3.722	12.28638
3.7225	4.53186
3.723	7.75452
3.7235	7.25098
3.724	13.49487
3.7245	9.56726
3.725	5.53894
3.7255	5.63965
3.726	7.95593
3.7265	8.35876
3.727	8.35876
3.7275	4.22974
3.728	0.70496
3.7285	-6.54602
3.729	-13.39417
3.7295	-10.97717
3.73	-19.94019
3.7305	-17.12036
3.731	-14.70337
3.7315	-17.52319
3.732	-12.68921
3.7325	-12.28638
3.733	-11.07788
3.7335	-7.95593
3.734	-2.31628
3.7345	1.91345
3.735	8.15735
3.7355	6.94885
3.736	8.66089
3.7365	11.68213
3.737	13.09204
3.7375	17.6239
3.738	22.25647
3.7385	23.56567
3.739	25.37842
3.7395	26.3855
3.74	24.16992
3.7405	33.03223
3.741	26.68762
3.7415	27.99683
3.742	25.37842
3.7425	26.28479
3.743	24.57275
3.7435	22.15576
3.744	31.01807
3.7445	31.72302
3.745	23.06213
3.7455	25.68054
3.746	16.41541
3.7465	17.42249
3.747	22.86072
3.7475	27.89612
3.748	28.60107
3.7485	32.42798
3.749	33.63647
3.7495	31.62231
3.75	38.47046
3.7505	33.03223
3.751	39.17542
3.7515	34.94568
3.752	36.75842
3.7525	34.84497
3.753	34.74426
3.7535	24.77417
3.754	25.27771
3.7545	23.96851
3.755	22.55859
3.7555	15.60974
3.756	14.40125
3.7565	15.20691
3.757	9.97009
3.7575	8.56018
3.758	2.81982
3.7585	9.76868
3.759	9.16443
3.7595	8.25806
3.76	13.19275
3.7605	11.17859
3.761	12.78992
3.7615	7.65381
3.762	14.80408
3.7625	6.3446
3.763	5.43823
3.7635	8.15735
3.764	7.95593
3.7645	10.77576
3.765	11.48071
3.7655	9.46655
3.766	11.07788
3.7665	6.44531
3.767	9.06372
3.7675	7.35168
3.768	2.21558
3.7685	6.44531
3.769	4.12903
3.7695	8.66089
3.77	11.98425
3.7705	8.7616
3.771	5.94177
3.7715	9.56726
3.772	13.59558
3.7725	10.87646
3.773	12.38708
3.7735	10.57434
3.774	6.94885
3.7745	11.58142
3.775	11.58142
3.7755	4.02832
3.776	4.93469
3.7765	4.22974
3.777	5.33752
3.7775	3.02124
3.778	5.63965
3.7785	15.20691
3.779	14.90479
3.7795	7.85522
3.78	13.797
3.7805	10.17151
3.781	7.35168
3.7815	9.56726
3.782	11.58142
3.7825	11.98425
3.783	13.99841
3.7835	13.59558
3.784	7.5531
3.7845	1.3092
3.785	3.52478
3.7855	-0.50354
3.786	4.22974
3.7865	1.71204
3.787	-4.33044
3.7875	-4.33044
3.788	8.8623
3.7885	7.45239
3.789	15.40833
3.7895	25.78125
3.79	27.09045
3.7905	36.65771
3.791	31.92444
3.7915	29.80957
3.792	33.13293
3.7925	27.6947
3.793	24.27063
3.7935	20.44373
3.794	19.33594
3.7945	19.83948
3.795	17.82532
3.7955	20.44373
3.796	20.84656
3.7965	19.23523
3.797	13.89771
3.7975	17.32178
3.798	17.22107
3.7985	16.41541
3.799	16.61682
3.7995	12.89062
3.8	8.8623
3.8005	11.98425
3.801	10.47363
3.8015	8.15735
3.802	12.38708
3.8025	12.5885
3.803	15.91187
3.8035	24.57275
3.804	19.43665
3.8045	21.75293
3.805	24.27063
3.8055	19.43665
3.806	16.91895
3.8065	19.53735
3.807	17.42249
3.8075	16.91895
3.808	17.32178
3.8085	24.67346
3.809	21.3501
3.8095	18.32886
3.81	13.49487
3.8105	16.71753
3.811	13.69629
3.8115	13.99841
3.812	13.39417
3.8125	11.98425
3.813	11.38
3.8135	8.7616
3.814	7.04956
3.8145	2.71912
3.815	5.84106
3.8155	0.40283
3.816	-4.22974
3.8165	-2.71912
3.817	-3.92761
3.8175	-11.17859
3.818	-4.43115
3.8185	-5.63965
3.819	-2.5177
3.8195	-3.62549
3.82	-1.3092
3.8205	-1.00708
3.821	-9.66797
3.8215	-9.36584
3.822	-9.36584
3.8225	-11.98425
3.823	-7.65381
3.8235	-1.71204
3.824	-4.43115
3.8245	-8.8623
3.825	-4.53186
3.8255	-6.14319
3.826	3.92761
3.8265	5.43823
3.827	-0.30212
3.8275	5.0354
3.828	6.3446
3.8285	7.45239
3.829	0.10071
3.8295	6.54602
3.83	7.15027
3.8305	1.81274
3.831	3.52478
3.8315	-1.91345
3.832	-4.12903
3.8325	0.20142
3.833	-1.71204
3.8335	1.61133
3.834	-6.04248
3.8345	-5.63965
3.835	-3.8269
3.8355	0.80566
3.836	8.25806
3.8365	8.45947
3.837	4.22974
3.8375	5.74036
3.838	4.83398
3.8385	9.76868
3.839	12.89062
3.8395	9.86938
3.84	4.73328
3.8405	8.35876
3.841	13.49487
3.8415	11.88354
3.842	14.60266
3.8425	15.20691
3.843	10.27222
3.8435	17.92603
3.844	10.57434
3.8445	9.26514
3.845	10.47363
3.8455	3.62549
3.846	-3.8269
3.8465	-9.26514
3.847	-8.66089
3.8475	-6.14319
3.848	-2.61841
3.8485	-11.07788
3.849	-9.16443
3.8495	-15.20691
3.85	-12.28638
3.8505	-12.89062
3.851	-11.48071
3.8515	-4.63257
3.852	-4.83398
3.8525	-8.15735
3.853	-6.64673
3.8535	-3.02124
3.854	-2.01416
3.8545	5.13611
3.855	2.11487
3.8555	2.01416
3.856	4.93469
3.8565	-1.3092
3.857	-3.12195
3.8575	-0.30212
3.858	-4.93469
3.8585	-5.53894
3.859	-13.29346
3.8595	-2.71912
3.86	-2.71912
3.8605	-7.95593
3.861	-10.17151
3.8615	-7.15027
3.862	-7.04956
3.8625	-2.21558
3.863	-8.45947
3.8635	-7.25098
3.864	-8.96301
3.8645	-7.65381
3.865	-10.87646
3.8655	-8.05664
3.866	-11.58142
3.8665	-16.81824
3.867	-15.00549
3.8675	-17.82532
3.868	-18.02673
3.8685	-15.50903
3.869	-14.50195
3.8695	-18.42957
3.87	-7.5531
3.8705	-11.07788
3.871	-11.48071
3.8715	-9.66797
3.872	-12.89062
3.8725	-8.25806
3.873	-11.68213
3.8735	-5.0354
3.874	-4.12903
3.8745	-7.5531
3.875	-8.66089
3.8755	-14.70337
3.876	-12.68921
3.8765	-11.58142
3.877	-8.45947
3.8775	-10.37292
3.878	-3.02124
3.8785	-1.51062
3.879	0.90637
3.8795	4.33044
3.88	-1.00708
3.8805	6.04248
3.881	5.23682
3.8815	4.73328
3.882	3.7262
3.8825	2.71912
3.883	8.96301
3.8835	11.78284
3.884	12.28638
3.8845	15.91187
3.885	18.12744
3.8855	26.08337
3.886	27.59399
3.8865	30.61523
3.887	31.52161
3.8875	29.70886
3.888	25.27771
3.8885	23.8678
3.889	20.34302
3.8895	18.73169
3.89	22.45789
3.8905	15.00549
3.891	12.99133
3.8915	10.27222
3.892	7.5531
3.8925	5.13611
3.893	-1.00708
3.8935	0.10071
3.894	8.45947
3.8945	4.53186
3.895	7.35168
3.8955	4.43115
3.896	4.93469
3.8965	10.37292
3.897	9.06372
3.8975	14.30054
3.898	11.98425
3.8985	6.04248
3.899	-3.32336
3.8995	-6.14319
3.9	-13.69629
3.9005	-17.22107
3.901	-18.32886
3.9015	-17.6239
3.902	-20.1416
3.9025	-19.73877
3.903	-23.8678
3.9035	-18.53027
3.904	-20.1416
3.9045	-16.3147
3.905	-14.19983
3.9055	-13.99841
3.906	-9.26514
3.9065	-0.30212
3.907	-0.90637
3.9075	1.81274
3.908	-0.30212
3.9085	5.23682
3.909	8.7616
3.9095	12.99133
3.91	15.30762
3.9105	17.01965
3.911	16.11328
3.9115	15.50903
3.912	17.82532
3.9125	21.24939
3.913	24.77417
3.9135	17.22107
3.914	17.92603
3.9145	24.67346
3.915	21.55151
3.9155	25.177
3.916	23.56567
3.9165	19.33594
3.917	19.13452
3.9175	19.13452
3.918	23.8678
3.9185	27.6947
3.919	25.47913
3.9195	28.39966
3.92	29.50745
3.9205	20.1416
3.921	18.02673
3.9215	4.33044
3.922	1.00708
3.9225	7.75452
3.923	8.7616
3.9235	8.96301
3.924	5.43823
3.9245	6.64673
3.925	0.80566
3.9255	6.54602
3.926	4.63257
3.9265	-1.3092
3.927	-3.02124
3.9275	-3.02124
3.928	-3.7262
3.9285	-0.90637
3.929	3.52478
3.9295	-2.31628
3.93	-5.43823
3.9305	-6.74744
3.931	-3.12195
3.9315	4.73328
3.932	6.04248
