Antonio_Festa_Right_1.c3d  



Time(s):	B_L_bicipite(μV):
0	4.12903
0.0005	0.60425
0.001	-6.3446
0.0015	2.41699
0.002	1.61133
0.0025	-0.40283
0.003	4.83398
0.0035	1.40991
0.004	3.92761
0.0045	1.81274
0.005	7.35168
0.0055	10.37292
0.006	5.0354
0.0065	1.81274
0.007	7.25098
0.0075	6.14319
0.008	3.92761
0.0085	8.8623
0.009	2.31628
0.0095	0.80566
0.01	-7.95593
0.0105	-0.20142
0.011	0.70496
0.0115	0.70496
0.012	-4.73328
0.0125	-19.13452
0.013	-28.39966
0.0135	-25.68054
0.014	-27.49329
0.0145	-30.31311
0.015	-34.14001
0.0155	-30.41382
0.016	-25.68054
0.0165	-28.39966
0.017	-19.33594
0.0175	-19.33594
0.018	-3.8269
0.0185	1.3092
0.019	6.84814
0.0195	-1.3092
0.02	-58.91418
0.0205	-117.92908
0.021	-192.35229
0.0215	-262.34436
0.022	-301.41907
0.0225	-292.65747
0.023	-248.14453
0.0235	-159.82361
0.024	-61.53259
0.0245	32.93152
0.025	123.87085
0.0255	192.25159
0.026	236.86523
0.0265	256.40259
0.027	243.10913
0.0275	220.44983
0.028	183.48999
0.0285	139.27917
0.029	86.20605
0.0295	8.96301
0.03	-37.36267
0.0305	-60.3241
0.031	-61.12976
0.0315	-33.03223
0.032	0
0.0325	35.14709
0.033	56.39648
0.0335	62.03613
0.034	65.66162
0.0345	78.55225
0.035	75.63171
0.0355	73.81897
0.036	73.91968
0.0365	67.8772
0.037	56.39648
0.0375	47.03064
0.038	44.0094
0.0385	30.2124
0.039	20.44373
0.0395	15.20691
0.04	12.78992
0.0405	14.70337
0.041	8.45947
0.0415	9.16443
0.042	5.33752
0.0425	5.43823
0.043	10.17151
0.0435	8.45947
0.044	13.49487
0.0445	16.11328
0.045	14.60266
0.0455	15.50903
0.046	6.94885
0.0465	14.09912
0.047	12.68921
0.0475	0.20142
0.048	1.71204
0.0485	5.63965
0.049	4.02832
0.0495	5.94177
0.05	5.63965
0.0505	6.54602
0.051	1.00708
0.0515	4.63257
0.052	1.10779
0.0525	2.31628
0.053	-3.02124
0.0535	-0.60425
0.054	-1.61133
0.0545	-14.30054
0.055	-18.53027
0.0555	-31.62231
0.056	-36.4563
0.0565	-42.39807
0.057	-34.84497
0.0575	-34.64355
0.058	-53.17383
0.0585	-67.47437
0.059	-73.81897
0.0595	-73.51685
0.06	-66.06445
0.0605	-61.02905
0.061	-47.03064
0.0615	-27.99683
0.062	-9.16443
0.0625	10.17151
0.063	35.54993
0.0635	49.24622
0.064	66.06445
0.0645	83.78906
0.065	92.34924
0.0655	100.70801
0.066	104.3335
0.0665	94.16199
0.067	74.52393
0.0675	56.49719
0.068	38.16833
0.0685	21.95435
0.069	16.21399
0.0695	-3.7262
0.07	-11.48071
0.0705	-6.84814
0.071	-11.2793
0.0715	-4.93469
0.072	-4.33044
0.0725	5.53894
0.073	4.73328
0.0735	7.04956
0.074	15.60974
0.0745	19.73877
0.075	23.76709
0.0755	16.11328
0.076	5.74036
0.0765	-2.92053
0.077	-3.7262
0.0775	-6.94885
0.078	-11.07788
0.0785	-5.84106
0.079	-19.13452
0.0795	-25.57983
0.08	-27.89612
0.0805	-31.72302
0.081	-26.08337
0.0815	-26.28479
0.082	-15.00549
0.0825	-19.33594
0.083	-12.5885
0.0835	-11.98425
0.084	-1.3092
0.0845	5.74036
0.085	4.63257
0.0855	13.59558
0.086	21.95435
0.0865	29.70886
0.087	43.20374
0.0875	50.15259
0.088	46.02356
0.0885	41.39099
0.089	45.52002
0.0895	41.18958
0.09	35.44922
0.0905	31.32019
0.091	24.87488
0.0915	16.71753
0.092	7.35168
0.0925	4.43115
0.093	8.25806
0.0935	9.97009
0.094	7.25098
0.0945	5.53894
0.095	5.53894
0.0955	5.53894
0.096	5.53894
0.0965	5.53894
0.097	5.53894
0.0975	5.53894
0.098	5.53894
0.0985	5.53894
0.099	5.53894
0.0995	5.53894
0.1	5.53894
0.1005	5.53894
0.101	5.53894
0.1015	5.53894
0.102	5.53894
0.1025	5.53894
0.103	5.53894
0.1035	5.53894
0.104	5.53894
0.1045	5.53894
0.105	-3.12195
0.1055	-0.30212
0.106	0.30212
0.1065	-7.25098
0.107	-6.04248
0.1075	-2.11487
0.108	4.73328
0.1085	8.45947
0.109	13.99841
0.1095	17.42249
0.11	12.89062
0.1105	15.71045
0.111	20.04089
0.1115	20.74585
0.112	16.81824
0.1125	10.47363
0.113	13.09204
0.1135	11.88354
0.114	13.797
0.1145	5.0354
0.115	-11.07788
0.1155	-12.68921
0.116	-12.48779
0.1165	-15.1062
0.117	-9.16443
0.1175	-6.14319
0.118	4.53186
0.1185	6.14319
0.119	12.18567
0.1195	12.99133
0.12	8.8623
0.1205	11.48071
0.121	-8.45947
0.1215	-68.78357
0.122	-130.01404
0.1225	-162.64343
0.123	-179.36096
0.1235	-179.05884
0.124	-151.86768
0.1245	-94.3634
0.125	-28.09753
0.1255	33.43506
0.126	78.65295
0.1265	118.43262
0.127	142.60254
0.1275	154.18396
0.128	150.45776
0.1285	133.63953
0.129	110.17456
0.1295	93.35632
0.13	72.81189
0.1305	48.84338
0.131	19.83948
0.1315	10.47363
0.132	0
0.1325	-2.01416
0.133	6.54602
0.1335	19.03381
0.134	24.06921
0.1345	18.73169
0.135	10.67505
0.1355	-3.02124
0.136	-51.96533
0.1365	-160.62927
0.137	-246.23108
0.1375	-288.32703
0.138	-298.69995
0.1385	-275.63782
0.139	-224.67957
0.1395	-155.59387
0.14	-66.97083
0.1405	2.31628
0.141	72.81189
0.1415	125.18005
0.142	169.69299
0.1425	194.66858
0.143	211.99036
0.1435	219.94629
0.144	228.50647
0.1445	223.97461
0.145	198.19336
0.1455	165.76538
0.146	140.58838
0.1465	125.68359
0.147	114.70642
0.1475	104.4342
0.148	69.38782
0.1485	38.26904
0.149	13.89771
0.1495	-9.36584
0.15	-10.17151
0.1505	-11.38
0.151	1.51062
0.1515	2.31628
0.152	8.45947
0.1525	9.46655
0.153	3.92761
0.1535	1.81274
0.154	0.70496
0.1545	5.33752
0.155	6.04248
0.1555	3.92761
0.156	0.10071
0.1565	0.30212
0.157	-3.8269
0.1575	-10.17151
0.158	-2.61841
0.1585	-7.5531
0.159	-1.51062
0.1595	-7.65381
0.16	-3.42407
0.1605	2.71912
0.161	1.81274
0.1615	2.11487
0.162	1.3092
0.1625	5.53894
0.163	7.95593
0.1635	0
0.164	0.60425
0.1645	4.83398
0.165	-8.56018
0.1655	-19.13452
0.166	-18.8324
0.1665	-14.09912
0.167	-30.41382
0.1675	-29.10461
0.168	-31.52161
0.1685	-20.34302
0.169	-15.71045
0.1695	-13.29346
0.17	-2.01416
0.1705	2.11487
0.171	7.95593
0.1715	9.97009
0.172	7.75452
0.1725	15.00549
0.173	12.28638
0.1735	21.14868
0.174	25.07629
0.1745	22.15576
0.175	-3.7262
0.1755	-22.05505
0.176	-38.974
0.1765	-43.30444
0.177	-42.8009
0.1775	-40.1825
0.178	-38.974
0.1785	-22.05505
0.179	-7.15027
0.1795	9.06372
0.18	25.78125
0.1805	41.4917
0.181	42.29736
0.1815	43.10303
0.182	42.39807
0.1825	42.90161
0.183	44.81506
0.1835	46.72852
0.184	38.974
0.1845	28.80249
0.185	17.12036
0.1855	16.21399
0.186	17.01965
0.1865	19.94019
0.187	17.22107
0.1875	-1.40991
0.188	-15.71045
0.1885	-14.40125
0.189	-10.97717
0.1895	-10.57434
0.19	-9.46655
0.1905	-7.85522
0.191	-0.90637
0.1915	3.52478
0.192	0.30212
0.1925	10.57434
0.193	19.33594
0.1935	20.84656
0.194	12.78992
0.1945	15.50903
0.195	11.78284
0.1955	14.40125
0.196	11.98425
0.1965	16.41541
0.197	18.32886
0.1975	11.17859
0.198	8.96301
0.1985	10.0708
0.199	-1.40991
0.1995	-6.2439
0.2	-8.96301
0.2005	-10.97717
0.201	-17.72461
0.2015	-12.38708
0.202	-13.99841
0.2025	-18.93311
0.203	-17.72461
0.2035	-33.83789
0.204	-45.01648
0.2045	-49.64905
0.205	-52.97241
0.2055	-51.36108
0.206	-42.39807
0.2065	-61.93542
0.207	-71.60339
0.2075	-72.40906
0.208	-60.82764
0.2085	-53.77808
0.209	-51.26038
0.2095	-29.91028
0.21	-15.00549
0.2105	10.67505
0.211	28.29895
0.2115	42.7002
0.212	54.68445
0.2125	72.50977
0.213	86.60889
0.2135	104.53491
0.214	114.30359
0.2145	125.98572
0.215	124.57581
0.2155	118.13049
0.216	91.34216
0.2165	67.57507
0.217	47.23206
0.2175	28.19824
0.218	11.2793
0.2185	-8.56018
0.219	-18.93311
0.2195	-22.15576
0.22	-21.3501
0.2205	-21.24939
0.221	-13.49487
0.2215	-10.47363
0.222	-7.5531
0.2225	0.70496
0.223	-5.43823
0.2235	-3.02124
0.224	-3.92761
0.2245	-10.37292
0.225	-6.3446
0.2255	-9.46655
0.226	-9.46655
0.2265	-7.5531
0.227	-0.10071
0.2275	1.00708
0.228	-0.60425
0.2285	5.0354
0.229	4.22974
0.2295	9.36584
0.23	7.85522
0.2305	5.33752
0.231	11.17859
0.2315	14.90479
0.232	8.15735
0.2325	11.38
0.233	5.94177
0.2335	9.56726
0.234	1.91345
0.2345	2.61841
0.235	1.40991
0.2355	-4.63257
0.236	-16.11328
0.2365	-23.66638
0.237	-29.91028
0.2375	-85.29968
0.238	-150.75989
0.2385	-174.52698
0.239	-176.94397
0.2395	-165.66467
0.24	-136.66077
0.2405	-93.75916
0.241	-26.98975
0.2415	26.68762
0.242	70.3949
0.2425	105.03845
0.243	131.12183
0.2435	132.43103
0.244	127.09351
0.2445	115.7135
0.245	91.34216
0.2455	69.79065
0.246	54.18091
0.2465	39.17542
0.247	22.6593
0.2475	8.35876
0.248	2.61841
0.2485	7.95593
0.249	15.71045
0.2495	26.3855
0.25	34.64355
0.2505	42.90161
0.251	39.37683
0.2515	39.98108
0.252	35.44922
0.2525	43.30444
0.253	37.36267
0.2535	33.03223
0.254	29.00391
0.2545	27.59399
0.255	24.06921
0.2555	20.54443
0.256	24.47205
0.2565	24.06921
0.257	23.96851
0.2575	18.63098
0.258	13.49487
0.2585	-4.63257
0.259	-0.90637
0.2595	-10.27222
0.26	-15.30762
0.2605	-23.06213
0.261	-23.36426
0.2615	-25.47913
0.262	-19.23523
0.2625	-6.74744
0.263	-6.3446
0.2635	-3.02124
0.264	4.12903
0.2645	8.15735
0.265	13.59558
0.2655	24.97559
0.266	27.59399
0.2665	32.7301
0.267	46.02356
0.2675	43.30444
0.268	39.77966
0.2685	34.94568
0.269	39.67896
0.2695	37.7655
0.27	25.27771
0.2705	-36.25488
0.271	-98.0896
0.2715	-135.8551
0.272	-149.6521
0.2725	-152.37122
0.273	-135.35156
0.2735	-101.9165
0.274	-52.16675
0.2745	-1.91345
0.275	39.47754
0.2755	73.71826
0.276	75.53101
0.2765	62.53967
0.277	37.56409
0.2775	7.45239
0.278	-13.29346
0.2785	-31.52161
0.279	-41.29028
0.2795	-66.56799
0.28	-67.77649
0.2805	-41.99524
0.281	-14.80408
0.2815	32.62939
0.282	68.38074
0.2825	97.58606
0.283	107.75757
0.2835	115.41138
0.284	118.02979
0.2845	112.59155
0.285	106.54907
0.2855	90.43579
0.286	77.44446
0.2865	56.09436
0.287	39.07471
0.2875	33.63647
0.288	34.03931
0.2885	26.3855
0.289	23.96851
0.2895	27.89612
0.29	18.32886
0.2905	10.57434
0.291	10.97717
0.2915	4.83398
0.292	2.81982
0.2925	0.40283
0.293	1.40991
0.2935	-4.53186
0.294	-1.10779
0.2945	-3.62549
0.295	5.33752
0.2955	6.2439
0.296	9.86938
0.2965	-9.26514
0.297	-26.08337
0.2975	-35.75134
0.298	-34.14001
0.2985	-32.62939
0.299	-31.01807
0.2995	-37.96692
0.3	-36.55701
0.3005	-33.43506
0.301	-13.797
0.3015	-13.59558
0.302	-15.50903
0.3025	-32.32727
0.303	-40.48462
0.3035	-40.88745
0.304	-32.83081
0.3045	-27.39258
0.305	-7.75452
0.3055	20.84656
0.306	41.59241
0.3065	52.771
0.307	63.74817
0.3075	63.84888
0.308	75.4303
0.3085	72.10693
0.309	62.74109
0.3095	41.69312
0.31	37.26196
0.3105	31.62231
0.311	24.37134
0.3115	6.04248
0.312	-4.83398
0.3125	-8.05664
0.313	-18.22815
0.3135	-25.177
0.314	-30.2124
0.3145	-25.98267
0.315	-34.54285
0.3155	-38.06763
0.316	-39.47754
0.3165	-43.50586
0.317	-45.01648
0.3175	-43.90869
0.318	-43.80798
0.3185	-32.02515
0.319	-19.43665
0.3195	-7.25098
0.32	5.33752
0.3205	23.46497
0.321	40.68604
0.3215	56.49719
0.322	55.69153
0.3225	52.8717
0.323	50.354
0.3235	45.82214
0.324	41.79382
0.3245	36.15417
0.325	32.02515
0.3255	14.50195
0.326	6.74744
0.3265	2.71912
0.327	-4.83398
0.3275	-7.5531
0.328	-11.48071
0.3285	-9.06372
0.329	-5.0354
0.3295	-1.51062
0.33	-0.50354
0.3305	0.90637
0.331	6.94885
0.3315	7.75452
0.332	-36.75842
0.3325	-92.95349
0.333	-121.35315
0.3335	-141.49475
0.334	-151.86768
0.3345	-137.56714
0.335	-104.23279
0.3355	-45.92285
0.336	10.97717
0.3365	61.02905
0.337	95.37048
0.3375	130.71899
0.338	137.46643
0.3385	132.53174
0.339	122.66235
0.3395	104.3335
0.34	76.03455
0.3405	55.08728
0.341	41.39099
0.3415	17.92603
0.342	-5.94177
0.3425	0.40283
0.343	-3.7262
0.3435	0.20142
0.344	15.30762
0.3445	12.89062
0.345	-24.77417
0.3455	-55.99365
0.346	-75.32959
0.3465	-85.40039
0.347	-93.45703
0.3475	-92.65137
0.348	-83.58765
0.3485	-65.3595
0.349	-34.84497
0.3495	-10.67505
0.35	20.64514
0.3505	30.11169
0.351	21.65222
0.3515	13.29346
0.352	-16.51611
0.3525	-40.78674
0.353	-27.59399
0.3535	-8.56018
0.354	17.72461
0.3545	39.67896
0.355	59.1156
0.3555	76.13525
0.356	87.81738
0.3565	98.59314
0.357	101.41296
0.3575	91.54358
0.358	70.79773
0.3585	56.19507
0.359	49.74976
0.3595	48.13843
0.36	43.40515
0.3605	35.2478
0.361	41.39099
0.3615	51.36108
0.362	59.92126
0.3625	74.02039
0.363	79.86145
0.3635	81.87561
0.364	70.49561
0.3645	47.33276
0.365	41.99524
0.3655	32.52869
0.366	24.77417
0.3665	17.82532
0.367	13.69629
0.3675	8.25806
0.368	-0.80566
0.3685	-4.93469
0.369	-3.42407
0.3695	-5.63965
0.37	-7.45239
0.3705	-18.22815
0.371	-26.88904
0.3715	-32.12585
0.372	-24.47205
0.3725	-14.90479
0.373	-19.23523
0.3735	-20.44373
0.374	-22.45789
0.3745	-22.86072
0.375	-19.53735
0.3755	-18.42957
0.376	-13.09204
0.3765	-16.41541
0.377	-9.06372
0.3775	-6.2439
0.378	-4.22974
0.3785	-2.11487
0.379	-1.40991
0.3795	-2.5177
0.38	4.12903
0.3805	-0.80566
0.381	-1.91345
0.3815	1.91345
0.382	1.81274
0.3825	4.33044
0.383	-2.41699
0.3835	-6.3446
0.384	-12.89062
0.3845	-12.89062
0.385	-12.89062
0.3855	-18.8324
0.386	-18.12744
0.3865	-10.47363
0.387	-9.26514
0.3875	-3.8269
0.388	1.91345
0.3885	2.21558
0.389	3.62549
0.3895	-0.50354
0.39	6.94885
0.3905	-2.31628
0.391	1.91345
0.3915	4.22974
0.392	13.19275
0.3925	16.91895
0.393	25.07629
0.3935	18.73169
0.394	18.12744
0.3945	23.36426
0.395	16.91895
0.3955	16.51611
0.396	19.33594
0.3965	12.68921
0.397	8.66089
0.3975	7.95593
0.398	22.45789
0.3985	27.59399
0.399	28.80249
0.3995	28.39966
0.4	22.35718
0.4005	18.63098
0.401	12.48779
0.4015	2.5177
0.402	-1.00708
0.4025	5.13611
0.403	9.16443
0.4035	6.84814
0.404	4.73328
0.4045	5.43823
0.405	5.94177
0.4055	-16.3147
0.406	-36.25488
0.4065	-47.93701
0.407	-54.0802
0.4075	-54.88586
0.408	-49.95117
0.4085	-41.59241
0.409	-22.35718
0.4095	-1.10779
0.41	16.81824
0.4105	21.24939
0.411	26.3855
0.4115	32.22656
0.412	31.4209
0.4125	29.10461
0.413	29.20532
0.4135	14.50195
0.414	-8.05664
0.4145	-31.52161
0.415	-64.25171
0.4155	-95.47119
0.416	-111.68518
0.4165	-111.8866
0.417	-102.62146
0.4175	-92.55066
0.418	-73.61755
0.4185	-62.9425
0.419	-44.51294
0.4195	-20.54443
0.42	16.3147
0.4205	38.974
0.421	68.98499
0.4215	87.61597
0.422	68.68286
0.4225	3.12195
0.423	-27.19116
0.4235	-52.97241
0.424	-65.66162
0.4245	-64.75525
0.425	-40.38391
0.4255	0.30212
0.426	50.55542
0.4265	92.44995
0.427	123.77014
0.4275	152.06909
0.428	160.62927
0.4285	155.29175
0.429	145.62378
0.4295	131.42395
0.43	117.02271
0.4305	98.39172
0.431	84.79614
0.4315	52.26746
0.432	24.47205
0.4325	9.56726
0.433	-12.5885
0.4335	-12.18567
0.434	4.33044
0.4345	15.91187
0.435	15.40833
0.4355	11.38
0.436	14.19983
0.4365	18.42957
0.437	22.35718
0.4375	24.67346
0.438	21.55151
0.4385	20.24231
0.439	24.47205
0.4395	26.88904
0.44	26.68762
0.4405	20.24231
0.441	13.89771
0.4415	8.45947
0.442	10.77576
0.4425	4.53186
0.443	7.35168
0.4435	-11.68213
0.444	-40.48462
0.4445	-63.24463
0.445	-75.02747
0.4455	-72.40906
0.446	-65.56091
0.4465	-49.54834
0.447	-27.39258
0.4475	-1.3092
0.448	14.19983
0.4485	31.4209
0.449	39.27612
0.4495	55.49011
0.45	60.62622
0.4505	54.98657
0.451	40.98816
0.4515	25.07629
0.452	8.45947
0.4525	-31.82373
0.453	-91.94641
0.4535	-124.27368
0.454	-137.46643
0.4545	-130.51758
0.455	-102.21863
0.4555	-74.02039
0.456	-40.78674
0.4565	-10.37292
0.457	12.18567
0.4575	32.32727
0.458	45.72144
0.4585	47.23206
0.459	35.44922
0.4595	26.98975
0.46	12.28638
0.4605	-10.17151
0.461	-33.53577
0.4615	-51.15967
0.462	-57.70569
0.4625	-47.93701
0.463	-26.88904
0.4635	-1.40991
0.464	19.53735
0.4645	31.92444
0.465	34.24072
0.4655	41.4917
0.466	50.354
0.4665	66.6687
0.467	81.27136
0.4675	91.745
0.468	113.69934
0.4685	111.18164
0.469	99.90234
0.4695	78.65295
0.47	58.41064
0.4705	27.19116
0.471	-7.5531
0.4715	-30.31311
0.472	-45.52002
0.4725	-52.771
0.473	-49.74976
0.4735	-33.13293
0.474	-14.80408
0.4745	7.04956
0.475	17.22107
0.4755	26.3855
0.476	31.92444
0.4765	33.9386
0.477	29.10461
0.4775	32.22656
0.478	31.4209
0.4785	26.78833
0.479	27.29187
0.4795	16.41541
0.48	8.05664
0.4805	0.20142
0.481	-6.2439
0.4815	0.40283
0.482	-4.43115
0.4825	1.51062
0.483	2.41699
0.4835	6.04248
0.484	1.40991
0.4845	9.86938
0.485	4.12903
0.4855	4.22974
0.486	6.54602
0.4865	5.0354
0.487	-2.01416
0.4875	-5.0354
0.488	-1.10779
0.4885	-5.0354
0.489	-2.81982
0.4895	-12.99133
0.49	-5.23682
0.4905	-9.26514
0.491	-2.31628
0.4915	-2.71912
0.492	0.40283
0.4925	4.12903
0.493	4.73328
0.4935	4.73328
0.494	7.85522
0.4945	-0.40283
0.495	-8.96301
0.4955	-12.5885
0.496	-12.99133
0.4965	-13.99841
0.497	-12.38708
0.4975	-13.39417
0.498	-0.90637
0.4985	-2.81982
0.499	-34.84497
0.4995	-91.14075
0.5	-129.00696
0.5005	-157.50732
0.501	-165.36255
0.5015	-141.09192
0.502	-104.13208
0.5025	-44.51294
0.503	5.0354
0.5035	41.4917
0.504	72.81189
0.5045	103.82996
0.505	109.4696
0.5055	110.17456
0.506	110.47668
0.5065	99.3988
0.507	88.0188
0.5075	71.20056
0.508	62.74109
0.5085	43.60657
0.509	35.65063
0.5095	28.29895
0.51	29.40674
0.5105	38.77258
0.511	49.44763
0.5115	54.38232
0.512	53.57666
0.5125	35.85205
0.513	38.36975
0.5135	29.60815
0.514	15.81116
0.5145	18.12744
0.515	9.86938
0.5155	7.85522
0.516	5.43823
0.5165	12.5885
0.517	7.85522
0.5175	12.68921
0.518	13.39417
0.5185	11.88354
0.519	8.05664
0.5195	-1.40991
0.52	-0.30212
0.5205	9.16443
0.521	8.35876
0.5215	1.61133
0.522	1.71204
0.5225	0.70496
0.523	12.89062
0.5235	14.70337
0.524	11.07788
0.5245	17.32178
0.525	19.23523
0.5255	-2.5177
0.526	-29.70886
0.5265	-41.69312
0.527	-51.86462
0.5275	-55.18799
0.528	-57.20215
0.5285	-48.64197
0.529	-59.21631
0.5295	-59.51843
0.53	-56.09436
0.5305	-46.22498
0.531	-50.45471
0.5315	-65.05737
0.532	-107.85828
0.5325	-176.64185
0.533	-229.81567
0.5335	-238.17444
0.534	-214.10522
0.5345	-163.95264
0.535	-104.63562
0.5355	-45.3186
0.536	24.57275
0.5365	92.04712
0.537	136.96289
0.5375	177.04468
0.538	189.23035
0.5385	190.03601
0.539	189.53247
0.5395	186.81335
0.54	177.3468
0.5405	158.01086
0.541	132.93457
0.5415	103.93066
0.542	100.30518
0.5425	97.38464
0.543	95.67261
0.5435	87.51526
0.544	74.02039
0.5445	46.02356
0.545	33.63647
0.5455	28.50037
0.546	24.87488
0.5465	19.13452
0.547	12.89062
0.5475	8.7616
0.548	-1.10779
0.5485	-8.45947
0.549	-14.50195
0.5495	-12.5885
0.55	-12.78992
0.5505	-9.26514
0.551	-10.17151
0.5515	-13.89771
0.552	-10.57434
0.5525	-6.74744
0.553	-11.2793
0.5535	-7.25098
0.554	-6.74744
0.5545	1.81274
0.555	-1.91345
0.5555	1.51062
0.556	2.81982
0.5565	7.75452
0.557	5.43823
0.5575	10.67505
0.558	6.84814
0.5585	3.22266
0.559	2.71912
0.5595	0.70496
0.56	-6.14319
0.5605	-10.97717
0.561	-17.01965
0.5615	-16.71753
0.562	-16.61682
0.5625	-17.52319
0.563	-10.37292
0.5635	-10.57434
0.564	-8.66089
0.5645	-4.73328
0.565	-3.7262
0.5655	3.52478
0.566	8.45947
0.5665	4.73328
0.567	17.82532
0.5675	22.86072
0.568	21.95435
0.5685	0.90637
0.569	-22.86072
0.5695	-42.29736
0.57	-48.84338
0.5705	-43.50586
0.571	-30.91736
0.5715	-13.89771
0.572	-4.63257
0.5725	18.32886
0.573	31.92444
0.5735	31.82373
0.574	35.14709
0.5745	34.44214
0.575	25.37842
0.5755	15.30762
0.576	11.2793
0.5765	14.40125
0.577	18.63098
0.5775	6.84814
0.578	-20.74585
0.5785	-32.62939
0.579	-30.91736
0.5795	-22.35718
0.58	-22.25647
0.5805	-16.3147
0.581	-15.1062
0.5815	-13.69629
0.582	-6.14319
0.5825	-1.00708
0.583	4.22974
0.5835	10.0708
0.584	5.23682
0.5845	8.15735
0.585	12.99133
0.5855	10.47363
0.586	17.01965
0.5865	18.02673
0.587	25.177
0.5875	31.21948
0.588	30.61523
0.5885	35.04639
0.589	-2.01416
0.5895	-71.30127
0.59	-122.36023
0.5905	-145.12024
0.591	-153.479
0.5915	-143.81104
0.592	-113.80005
0.5925	-64.35242
0.593	5.84106
0.5935	60.62622
0.594	98.29102
0.5945	129.91333
0.595	140.58838
0.5955	128.90625
0.596	122.46094
0.5965	102.21863
0.597	82.47986
0.5975	60.52551
0.598	45.62073
0.5985	26.08337
0.599	9.06372
0.5995	5.43823
0.6	2.41699
0.6005	16.41541
0.601	22.6593
0.6015	23.8678
0.602	22.35718
0.6025	18.42957
0.603	15.60974
0.6035	16.11328
0.604	11.58142
0.6045	10.37292
0.605	11.88354
0.6055	16.41541
0.606	17.92603
0.6065	9.76868
0.607	-6.94885
0.6075	-26.88904
0.608	-28.70178
0.6085	-42.09595
0.609	-56.39648
0.6095	-59.31702
0.61	-63.14392
0.6105	-91.8457
0.611	-104.3335
0.6115	-102.92358
0.612	-94.3634
0.6125	-80.16357
0.613	-48.33984
0.6135	-9.16443
0.614	31.82373
0.6145	72.50977
0.615	93.55774
0.6155	115.61279
0.616	123.16589
0.6165	125.68359
0.617	117.42554
0.6175	85.29968
0.618	51.86462
0.6185	24.06921
0.619	-1.71204
0.6195	-19.63806
0.62	-19.83948
0.6205	-11.98425
0.621	-2.61841
0.6215	8.45947
0.622	19.33594
0.6225	23.46497
0.623	21.55151
0.6235	29.20532
0.624	26.18408
0.6245	31.72302
0.625	31.82373
0.6255	16.41541
0.626	12.99133
0.6265	7.35168
0.627	5.74036
0.6275	3.12195
0.628	5.94177
0.6285	5.74036
0.629	5.33752
0.6295	4.02832
0.63	-2.61841
0.6305	-10.37292
0.631	-16.21399
0.6315	-45.92285
0.632	-75.83313
0.6325	-96.57898
0.633	-103.32642
0.6335	-95.67261
0.634	-76.43738
0.6345	-40.68604
0.635	-7.04956
0.6355	16.41541
0.636	48.64197
0.6365	75.4303
0.637	84.89685
0.6375	81.57349
0.638	82.07703
0.6385	75.4303
0.639	68.48145
0.6395	57.50427
0.64	31.82373
0.6405	13.99841
0.641	6.84814
0.6415	14.80408
0.642	15.00549
0.6425	23.06213
0.643	21.75293
0.6435	9.56726
0.644	-4.22974
0.6445	-15.30762
0.645	-41.69312
0.6455	-65.05737
0.646	-83.68835
0.6465	-87.21313
0.647	-84.09119
0.6475	-86.50818
0.648	-72.00623
0.6485	-60.82764
0.649	-37.96692
0.6495	-21.24939
0.65	-14.90479
0.6505	-17.32178
0.651	-8.56018
0.6515	8.96301
0.652	23.66638
0.6525	44.21082
0.653	67.77649
0.6535	85.29968
0.654	91.24146
0.6545	93.96057
0.655	89.42871
0.6555	70.79773
0.656	54.38232
0.6565	37.86621
0.657	18.8324
0.6575	-4.83398
0.658	-16.71753
0.6585	-23.56567
0.659	-20.54443
0.6595	-24.97559
0.66	-9.76868
0.6605	-11.98425
0.661	-7.35168
0.6615	0.80566
0.662	4.02832
0.6625	14.19983
0.663	12.5885
0.6635	5.53894
0.664	1.00708
0.6645	3.7262
0.665	13.59558
0.6655	15.81116
0.666	20.44373
0.6665	24.06921
0.667	24.06921
0.6675	33.33435
0.668	41.59241
0.6685	45.2179
0.669	46.22498
0.6695	50.354
0.67	52.36816
0.6705	53.27454
0.671	45.41931
0.6715	37.26196
0.672	25.98267
0.6725	17.82532
0.673	11.2793
0.6735	1.81274
0.674	-3.62549
0.6745	-4.12903
0.675	-0.60425
0.6755	-3.7262
0.676	-14.30054
0.6765	-30.61523
0.677	-56.19507
0.6775	-61.6333
0.678	-63.94958
0.6785	-62.13684
0.679	-60.62622
0.6795	-49.54834
0.68	-37.26196
0.6805	-25.177
0.681	-9.97009
0.6815	5.84106
0.682	18.02673
0.6825	39.17542
0.683	58.51135
0.6835	68.07861
0.684	37.66479
0.6845	-18.73169
0.685	-56.39648
0.6855	-77.64587
0.686	-83.78906
0.6865	-86.91101
0.687	-58.20923
0.6875	-15.00549
0.688	32.32727
0.6885	64.35242
0.689	95.97473
0.6895	125.98572
0.69	131.52466
0.6905	125.38147
0.691	105.23987
0.6915	88.52234
0.692	64.95667
0.6925	48.33984
0.693	39.98108
0.6935	14.30054
0.694	2.71912
0.6945	-0.80566
0.695	-4.83398
0.6955	-24.57275
0.696	-72.81189
0.6965	-119.64111
0.697	-156.29883
0.6975	-166.67175
0.698	-149.75281
0.6985	-120.34607
0.699	-69.38782
0.6995	-16.11328
0.7	20.84656
0.7005	66.26587
0.701	97.38464
0.7015	109.77173
0.702	117.12341
0.7025	107.25403
0.703	95.97473
0.7035	79.45862
0.704	58.10852
0.7045	16.81824
0.705	-8.05664
0.7055	-21.04797
0.706	-9.06372
0.7065	12.5885
0.707	26.3855
0.7075	26.28479
0.708	21.95435
0.7085	15.30762
0.709	11.58142
0.7095	10.67505
0.71	13.89771
0.7105	13.29346
0.711	25.57983
0.7115	19.53735
0.712	20.44373
0.7125	23.26355
0.713	18.12744
0.7135	20.1416
0.714	12.08496
0.7145	8.96301
0.715	2.11487
0.7155	4.12903
0.716	0.30212
0.7165	-3.52478
0.717	-1.91345
0.7175	-2.41699
0.718	-8.96301
0.7185	-5.13611
0.719	-4.33044
0.7195	-10.77576
0.72	-2.92053
0.7205	-2.21558
0.721	-4.93469
0.7215	-5.53894
0.722	-7.85522
0.7225	-5.94177
0.723	-6.44531
0.7235	-2.81982
0.724	-3.22266
0.7245	-6.64673
0.725	-1.51062
0.7255	-1.51062
0.726	5.23682
0.7265	3.7262
0.727	5.0354
0.7275	7.15027
0.728	10.97717
0.7285	11.38
0.729	2.41699
0.7295	-1.10779
0.73	-1.61133
0.7305	-3.7262
0.731	-3.02124
0.7315	-3.12195
0.732	-4.12903
0.7325	-7.25098
0.733	0.30212
0.7335	1.00708
0.734	-20.1416
0.7345	-59.92126
0.735	-89.42871
0.7355	-117.12341
0.736	-130.01404
0.7365	-125.88501
0.737	-122.86377
0.7375	-107.85828
0.738	-85.40039
0.7385	-59.41772
0.739	-32.02515
0.7395	-12.08496
0.74	9.26514
0.7405	27.49329
0.741	47.53418
0.7415	78.04871
0.742	96.47827
0.7425	122.86377
0.743	117.22412
0.7435	97.98889
0.744	84.49402
0.7445	72.81189
0.745	62.13684
0.7455	60.02197
0.746	47.43347
0.7465	29.10461
0.747	19.03381
0.7475	16.21399
0.748	20.94727
0.7485	35.54993
0.749	42.8009
0.7495	46.42639
0.75	41.08887
0.7505	35.34851
0.751	25.47913
0.7515	29.20532
0.752	22.45789
0.7525	11.88354
0.753	9.97009
0.7535	3.42407
0.754	3.7262
0.7545	4.22974
0.755	5.63965
0.7555	2.21558
0.756	-2.11487
0.7565	-1.81274
0.757	-3.92761
0.7575	-1.81274
0.758	-4.02832
0.7585	4.53186
0.759	2.11487
0.7595	0.40283
0.76	-3.42407
0.7605	-5.33752
0.761	-5.74036
0.7615	-6.14319
0.762	-6.14319
0.7625	-4.43115
0.763	-4.83398
0.7635	-4.43115
0.764	0
0.7645	-4.12903
0.765	-1.40991
0.7655	-1.00708
0.766	-1.3092
0.7665	-2.81982
0.767	5.53894
0.7675	5.23682
0.768	11.88354
0.7685	7.95593
0.769	5.94177
0.7695	9.16443
0.77	9.56726
0.7705	5.94177
0.771	5.43823
0.7715	-0.30212
0.772	-3.42407
0.7725	-13.69629
0.773	-18.63098
0.7735	-19.43665
0.774	-17.42249
0.7745	-15.1062
0.775	-13.49487
0.7755	-11.98425
0.776	-5.53894
0.7765	-2.92053
0.777	4.63257
0.7775	-2.41699
0.778	-4.12903
0.7785	-11.48071
0.779	-7.15027
0.7795	-11.2793
0.78	-11.88354
0.7805	-11.88354
0.781	-21.45081
0.7815	-22.6593
0.782	-21.65222
0.7825	-4.12903
0.783	16.91895
0.7835	23.76709
0.784	31.32019
0.7845	35.85205
0.785	34.34143
0.7855	32.22656
0.786	27.49329
0.7865	26.18408
0.787	21.65222
0.7875	28.70178
0.788	22.15576
0.7885	23.76709
0.789	22.86072
0.7895	20.94727
0.79	15.71045
0.7905	20.44373
0.791	16.41541
0.7915	19.43665
0.792	22.15576
0.7925	20.64514
0.793	18.63098
0.7935	11.2793
0.794	9.26514
0.7945	12.68921
0.795	10.77576
0.7955	7.85522
0.796	10.87646
0.7965	3.02124
0.797	6.04248
0.7975	5.74036
0.798	3.92761
0.7985	3.8269
0.799	4.83398
0.7995	7.15027
0.8	9.86938
0.8005	7.65381
0.801	4.93469
0.8015	3.92761
0.802	5.63965
0.8025	9.66797
0.803	3.7262
0.8035	2.71912
0.804	5.63965
0.8045	3.62549
0.805	2.92053
0.8055	-17.72461
0.806	-46.12427
0.8065	-50.2533
0.807	-59.1156
0.8075	-50.2533
0.808	-60.92834
0.8085	-106.75049
0.809	-132.83386
0.8095	-139.07776
0.81	-128.80554
0.8105	-111.28235
0.811	-72.00623
0.8115	-20.54443
0.812	36.35559
0.8125	82.58057
0.813	120.7489
0.8135	142.90466
0.814	160.62927
0.8145	153.27759
0.815	125.68359
0.8155	97.28394
0.816	70.79773
0.8165	44.81506
0.817	33.53577
0.8175	-4.33044
0.818	-56.5979
0.8185	-106.64978
0.819	-137.36572
0.8195	-154.28467
0.82	-130.41687
0.8205	-110.57739
0.821	-83.99048
0.8215	-52.97241
0.822	-13.89771
0.8225	0.70496
0.823	22.96143
0.8235	42.39807
0.824	52.97241
0.8245	28.70178
0.825	-3.42407
0.8255	-10.87646
0.826	1.10779
0.8265	18.93311
0.827	26.78833
0.8275	44.41223
0.828	84.69543
0.8285	117.22412
0.829	137.16431
0.8295	150.8606
0.83	151.16272
0.8305	133.03528
0.831	108.86536
0.8315	87.91809
0.832	72.61047
0.8325	71.7041
0.833	47.33276
0.8335	19.63806
0.834	6.54602
0.8345	0.30212
0.835	1.40991
0.8355	-3.62549
0.836	-3.32336
0.8365	-4.83398
0.837	-10.97717
0.8375	-35.34851
0.838	-52.771
0.8385	-65.46021
0.839	-67.97791
0.8395	-63.24463
0.84	-67.57507
0.8405	-81.7749
0.841	-83.08411
0.8415	-72.30835
0.842	-75.22888
0.8425	-58.20923
0.843	-49.34692
0.8435	-29.80957
0.844	-6.64673
0.8445	8.96301
0.845	25.27771
0.8455	30.91736
0.846	40.2832
0.8465	51.36108
0.847	59.92126
0.8475	56.5979
0.848	64.35242
0.8485	67.47437
0.849	68.78357
0.8495	65.76233
0.85	68.78357
0.8505	59.71985
0.851	47.23206
0.8515	33.13293
0.852	17.82532
0.8525	6.64673
0.853	-1.10779
0.8535	0.80566
0.854	-5.33752
0.8545	-10.0708
0.855	-8.35876
0.8555	-1.61133
0.856	-0.50354
0.8565	-0.60425
0.857	3.8269
0.8575	10.87646
0.858	19.03381
0.8585	21.55151
0.859	28.50037
0.8595	32.83081
0.86	35.34851
0.8605	32.7301
0.861	26.78833
0.8615	26.18408
0.862	28.39966
0.8625	20.64514
0.863	23.46497
0.8635	20.94727
0.864	19.43665
0.8645	8.25806
0.865	5.23682
0.8655	5.94177
0.866	4.93469
0.8665	-1.10779
0.867	2.01416
0.8675	5.74036
0.868	8.96301
0.8685	6.14319
0.869	10.27222
0.8695	7.65381
0.87	10.97717
0.8705	12.38708
0.871	8.15735
0.8715	10.97717
0.872	10.77576
0.8725	6.3446
0.873	4.43115
0.8735	4.22974
0.874	0.70496
0.8745	-0.40283
0.875	3.52478
0.8755	9.66797
0.876	9.26514
0.8765	15.20691
0.877	15.91187
0.8775	12.78992
0.878	-0.70496
0.8785	-4.33044
0.879	-11.17859
0.8795	-6.3446
0.88	-3.52478
0.8805	-3.32336
0.881	-2.41699
0.8815	-16.71753
0.882	-41.4917
0.8825	-48.74268
0.883	-51.15967
0.8835	-64.45312
0.884	-65.3595
0.8845	-59.41772
0.885	-47.7356
0.8855	-41.4917
0.886	-31.62231
0.8865	-19.63806
0.887	-6.64673
0.8875	10.67505
0.888	27.89612
0.8885	48.03772
0.889	66.46729
0.8895	78.65295
0.89	79.55933
0.8905	78.25012
0.891	58.71277
0.8915	33.13293
0.892	9.56726
0.8925	-4.83398
0.893	-27.19116
0.8935	-98.69385
0.894	-140.58838
0.8945	-162.64343
0.895	-150.45776
0.8955	-136.66077
0.896	-110.37598
0.8965	-62.9425
0.897	-8.25806
0.8975	34.84497
0.898	67.37366
0.8985	98.99597
0.899	115.81421
0.8995	125.18005
0.9	108.76465
0.9005	88.0188
0.901	69.1864
0.9015	52.56958
0.902	45.62073
0.9025	33.13293
0.903	18.12744
0.9035	17.92603
0.904	15.60974
0.9045	7.65381
0.905	-40.58533
0.9055	-78.85437
0.906	-102.92358
0.9065	-120.7489
0.907	-106.9519
0.9075	-66.06445
0.908	-29.60815
0.9085	14.30054
0.909	47.53418
0.9095	85.60181
0.91	105.54199
0.9105	125.7843
0.911	123.2666
0.9115	121.55457
0.912	95.47119
0.9125	79.45862
0.913	60.22339
0.9135	32.42798
0.914	10.27222
0.9145	-1.91345
0.915	-4.02832
0.9155	5.23682
0.916	16.11328
0.9165	21.75293
0.917	11.17859
0.9175	16.41541
0.918	12.78992
0.9185	14.09912
0.919	12.08496
0.9195	16.3147
0.92	12.5885
0.9205	14.70337
0.921	11.2793
0.9215	11.98425
0.922	14.70337
0.9225	14.50195
0.923	7.65381
0.9235	7.15027
0.924	-1.2085
0.9245	2.81982
0.925	7.85522
0.9255	-0.30212
0.926	-0.20142
0.9265	4.43115
0.927	-0.90637
0.9275	-22.15576
0.928	-37.16125
0.9285	-45.92285
0.929	-66.56799
0.9295	-77.64587
0.93	-80.76782
0.9305	-78.35083
0.931	-68.58215
0.9315	-65.3595
0.932	-50.85754
0.9325	-36.25488
0.933	-18.53027
0.9335	-2.81982
0.934	-1.51062
0.9345	13.89771
0.935	27.99683
0.9355	49.24622
0.936	65.46021
0.9365	72.50977
0.937	74.72534
0.9375	75.32959
0.938	74.02039
0.9385	66.26587
0.939	50.2533
0.9395	36.75842
0.94	35.95276
0.9405	22.35718
0.941	14.19983
0.9415	5.33752
0.942	-2.21558
0.9425	5.33752
0.943	3.12195
0.9435	5.84106
0.944	5.0354
0.9445	8.25806
0.945	6.54602
0.9455	9.16443
0.946	10.27222
0.9465	10.47363
0.947	5.53894
0.9475	2.11487
0.948	8.05664
0.9485	5.43823
0.949	2.31628
0.9495	0.70496
0.95	0.50354
0.9505	6.3446
0.951	7.45239
0.9515	5.94177
0.952	1.40991
0.9525	-2.21558
0.953	4.33044
0.9535	0.20142
0.954	0.10071
0.9545	4.73328
0.955	7.25098
0.9555	15.40833
0.956	-3.92761
0.9565	-24.37134
0.957	-50.75684
0.9575	-79.96216
0.958	-102.92358
0.9585	-107.15332
0.959	-110.57739
0.9595	-102.21863
0.96	-93.15491
0.9605	-70.59631
0.961	-44.51294
0.9615	-19.94019
0.962	6.44531
0.9625	31.01807
0.963	60.62622
0.9635	83.88977
0.964	107.25403
0.9645	127.39563
0.965	128.50342
0.9655	133.3374
0.966	131.22253
0.9665	128.60413
0.967	107.85828
0.9675	88.82446
0.968	62.64038
0.9685	39.88037
0.969	24.27063
0.9695	13.19275
0.97	10.47363
0.9705	1.91345
0.971	-13.39417
0.9715	-20.84656
0.972	-23.26355
0.9725	-24.87488
0.973	-17.72461
0.9735	-13.39417
0.974	-6.94885
0.9745	0.50354
0.975	6.2439
0.9755	10.57434
0.976	13.19275
0.9765	10.27222
0.977	14.50195
0.9775	7.75452
0.978	11.68213
0.9785	14.30054
0.979	14.70337
0.9795	15.91187
0.98	15.1062
0.9805	5.94177
0.981	6.3446
0.9815	1.10779
0.982	-2.21558
0.9825	-11.68213
0.983	-17.32178
0.9835	-19.23523
0.984	-18.12744
0.9845	-14.09912
0.985	-8.96301
0.9855	-9.86938
0.986	-12.38708
0.9865	-7.04956
0.987	-18.63098
0.9875	-17.92603
0.988	-16.71753
0.9885	-34.03931
0.989	-36.85913
0.9895	-40.2832
0.99	-36.75842
0.9905	-34.24072
0.991	-27.19116
0.9915	-16.41541
0.992	-15.30762
0.9925	-11.48071
0.993	-5.43823
0.9935	-53.07312
0.994	-106.14624
0.9945	-128.50342
0.995	-133.94165
0.9955	-132.53174
0.996	-99.70093
0.9965	-50.65613
0.997	12.5885
0.9975	63.14392
0.998	106.44836
0.9985	127.59705
0.999	138.3728
0.9995	128.20129
1	100.90942
1.0005	50.45471
1.001	4.93469
1.0015	-20.04089
1.002	-47.43347
1.0025	-48.33984
1.003	-52.26746
1.0035	-31.21948
1.004	-12.5885
1.0045	3.42407
1.005	30.41382
1.0055	60.4248
1.006	75.93384
1.0065	80.96924
1.007	77.64587
1.0075	69.99207
1.008	61.53259
1.0085	50.65613
1.009	41.59241
1.0095	25.88196
1.01	16.71753
1.0105	20.94727
1.011	24.77417
1.0115	31.82373
1.012	32.83081
1.0125	35.34851
1.013	36.65771
1.0135	35.34851
1.014	25.98267
1.0145	15.20691
1.015	13.39417
1.0155	7.15027
1.016	8.45947
1.0165	9.56726
1.017	5.84106
1.0175	3.22266
1.018	-23.16284
1.0185	-68.68286
1.019	-86.00464
1.0195	-88.52234
1.02	-84.59473
1.0205	-65.56091
1.021	-40.2832
1.0215	-6.74744
1.022	19.33594
1.0225	46.62781
1.023	69.08569
1.0235	76.94092
1.024	85.60181
1.0245	80.96924
1.025	78.45154
1.0255	68.07861
1.026	51.26038
1.0265	31.92444
1.027	4.93469
1.0275	-10.0708
1.028	-4.63257
1.0285	-0.10071
1.029	10.77576
1.0295	23.76709
1.03	21.14868
1.0305	18.02673
1.031	3.42407
1.0315	4.83398
1.032	5.33752
1.0325	0.10071
1.033	5.43823
1.0335	2.61841
1.034	-3.02124
1.0345	-3.22266
1.035	-0.30212
1.0355	-0.50354
1.036	-6.64673
1.0365	0.30212
1.037	3.02124
1.0375	6.2439
1.038	5.84106
1.0385	4.22974
1.039	-2.5177
1.0395	-6.04248
1.04	-1.71204
1.0405	1.3092
1.041	0.70496
1.0415	0.90637
1.042	2.71912
1.0425	1.61133
1.043	4.02832
1.0435	0.50354
1.044	3.7262
1.0445	-4.43115
1.045	-3.22266
1.0455	0.10071
1.046	2.31628
1.0465	3.7262
1.047	2.41699
1.0475	-4.22974
1.048	-8.96301
1.0485	-10.0708
1.049	-7.5531
1.0495	-6.2439
1.05	-7.65381
1.0505	-2.61841
1.051	2.31628
1.0515	1.10779
1.052	-16.11328
1.0525	-39.27612
1.053	-55.08728
1.0535	-54.68445
1.054	-60.12268
1.0545	-69.89136
1.055	-86.10535
1.0555	-88.72375
1.056	-92.44995
1.0565	-108.86536
1.057	-118.43262
1.0575	-116.21704
1.058	-84.69543
1.0585	-44.21082
1.059	-6.94885
1.0595	41.4917
1.06	77.24304
1.0605	109.87244
1.061	133.94165
1.0615	140.18555
1.062	149.95422
1.0625	147.83936
1.063	132.53174
1.0635	117.32483
1.064	95.77332
1.0645	73.91968
1.065	68.38074
1.0655	58.20923
1.066	46.32568
1.0665	37.86621
1.067	26.58691
1.0675	8.45947
1.068	7.25098
1.0685	-3.62549
1.069	-2.5177
1.0695	-3.52478
1.07	-6.2439
1.0705	-6.3446
1.071	-10.57434
1.0715	-10.77576
1.072	-7.25098
1.0725	-3.02124
1.073	-3.8269
1.0735	-5.53894
1.074	1.91345
1.0745	-5.84106
1.075	-12.38708
1.0755	-8.8623
1.076	-6.94885
1.0765	-3.42407
1.077	-0.80566
1.0775	2.92053
1.078	4.63257
1.0785	11.48071
1.079	15.30762
1.0795	19.33594
1.08	23.06213
1.0805	20.94727
1.081	21.95435
1.0815	21.95435
1.082	25.68054
1.0825	26.48621
1.083	27.59399
1.0835	31.21948
1.084	25.47913
1.0845	23.46497
1.085	20.94727
1.0855	20.04089
1.086	22.96143
1.0865	23.46497
1.087	15.00549
1.0875	7.75452
1.088	0.40283
1.0885	-5.74036
1.089	-7.5531
1.0895	-19.73877
1.09	-19.53735
1.0905	-17.42249
1.091	-14.19983
1.0915	-10.57434
1.092	-7.85522
1.0925	-6.2439
1.093	-4.33044
1.0935	-6.74744
1.094	-17.6239
1.0945	-25.177
1.095	-32.62939
1.0955	-39.88037
1.096	-47.7356
1.0965	-47.93701
1.097	-51.66321
1.0975	-37.16125
1.098	-23.66638
1.0985	-16.21399
1.099	-6.04248
1.0995	-1.3092
1.1	2.01416
1.1005	1.40991
1.101	-0.40283
1.1015	0.30212
1.102	-2.11487
1.1025	12.99133
1.103	25.37842
1.1035	30.61523
1.104	36.4563
1.1045	30.2124
1.105	27.89612
1.1055	24.87488
1.106	27.59399
1.1065	20.84656
1.107	12.89062
1.1075	13.09204
1.108	11.07788
1.1085	9.26514
1.109	4.43115
1.1095	1.3092
1.11	15.00549
1.1105	15.1062
1.111	9.86938
1.1115	1.51062
1.112	0.40283
1.1125	-4.02832
1.113	-0.80566
1.1135	-0.40283
1.114	-1.40991
1.1145	4.93469
1.115	7.95593
1.1155	7.65381
1.116	6.64673
1.1165	16.51611
1.117	12.48779
1.1175	7.65381
1.118	10.87646
1.1185	13.99841
1.119	14.50195
1.1195	13.89771
1.12	12.99133
1.1205	13.39417
1.121	13.49487
1.1215	11.17859
1.122	-9.76868
1.1225	-38.87329
1.123	-51.76392
1.1235	-59.31702
1.124	-59.01489
1.1245	-39.88037
1.125	-22.76001
1.1255	-4.43115
1.126	21.3501
1.1265	34.64355
1.127	22.25647
1.1275	6.94885
1.128	-2.41699
1.1285	-15.30762
1.129	-84.2926
1.1295	-164.95972
1.13	-248.44666
1.1305	-287.62207
1.131	-309.07288
1.1315	-280.06897
1.132	-209.9762
1.1325	-103.93066
1.133	3.42407
1.1335	119.64111
1.134	199.50256
1.1345	270.80383
1.135	304.54102
1.1355	293.66455
1.136	266.6748
1.1365	220.24841
1.137	161.0321
1.1375	110.77881
1.138	63.64746
1.1385	5.63965
1.139	-30.81665
1.1395	-49.85046
1.14	-52.56958
1.1405	-29.20532
1.141	-1.2085
1.1415	4.33044
1.142	2.61841
1.1425	7.35168
1.143	18.8324
1.1435	26.3855
1.144	41.29028
1.1445	47.53418
1.145	48.23914
1.1455	46.82922
1.146	55.59082
1.1465	65.05737
1.147	65.76233
1.1475	54.78516
1.148	46.42639
1.1485	24.97559
1.149	20.04089
1.1495	8.25806
1.15	-2.11487
1.1505	8.8623
1.151	4.53186
1.1515	7.95593
1.152	11.58142
1.1525	16.81824
1.153	19.94019
1.1535	24.16992
1.154	26.18408
1.1545	21.55151
1.155	21.04797
1.1555	21.95435
1.156	21.3501
1.1565	18.42957
1.157	13.797
1.1575	14.90479
1.158	7.65381
1.1585	-2.5177
1.159	-8.96301
1.1595	-14.19983
1.16	-19.33594
1.1605	-19.63806
1.161	-20.54443
1.1615	-16.01257
1.162	-9.66797
1.1625	-3.42407
1.163	3.7262
1.1635	0.60425
1.164	0.50354
1.1645	2.71912
1.165	0.80566
1.1655	-3.62549
1.166	0.20142
1.1665	-5.13611
1.167	-5.74036
1.1675	0.70496
1.168	2.21558
1.1685	-2.5177
1.169	2.01416
1.1695	-9.97009
1.17	-3.7262
1.1705	-4.12903
1.171	-0.60425
1.1715	-0.20142
1.172	-0.50354
1.1725	-3.02124
1.173	3.8269
1.1735	2.41699
1.174	6.14319
1.1745	2.11487
1.175	0.40283
1.1755	0.40283
1.176	-7.15027
1.1765	-30.91736
1.177	-40.58533
1.1775	-52.26746
1.178	-56.79932
1.1785	-45.82214
1.179	-35.2478
1.1795	-26.68762
1.18	-20.34302
1.1805	-1.40991
1.181	11.2793
1.1815	15.91187
1.182	23.06213
1.1825	19.03381
1.183	22.76001
1.1835	23.26355
1.184	18.32886
1.1845	11.17859
1.185	13.69629
1.1855	9.86938
1.186	2.21558
1.1865	-1.61133
1.187	4.63257
1.1875	9.86938
1.188	15.40833
1.1885	21.65222
1.189	28.80249
1.1895	32.22656
1.19	33.73718
1.1905	31.32019
1.191	25.47913
1.1915	21.65222
1.192	23.36426
1.1925	11.48071
1.193	-20.44373
1.1935	-39.77966
1.194	-55.89294
1.1945	-65.05737
1.195	-69.58923
1.1955	-65.66162
1.196	-66.06445
1.1965	-58.30994
1.197	-47.7356
1.1975	-22.6593
1.198	-2.81982
1.1985	11.17859
1.199	28.39966
1.1995	37.26196
1.2	61.6333
1.2005	76.63879
1.201	75.53101
1.2015	81.57349
1.202	77.24304
1.2025	61.6333
1.203	51.5625
1.2035	48.64197
1.204	35.65063
1.2045	23.16284
1.205	10.87646
1.2055	8.96301
1.206	13.39417
1.2065	9.46655
1.207	-1.61133
1.2075	0.10071
1.208	-4.53186
1.2085	-9.36584
1.209	-9.46655
1.2095	-7.65381
1.21	-18.53027
1.2105	-36.05347
1.211	-62.43896
1.2115	-126.69067
1.212	-177.95105
1.2125	-196.88416
1.213	-179.96521
1.2135	-160.42786
1.214	-115.91492
1.2145	-48.84338
1.215	32.93152
1.2155	92.44995
1.216	150.65918
1.2165	192.453
1.217	201.01318
1.2175	190.53955
1.218	172.00928
1.2185	145.42236
1.219	108.86536
1.2195	74.52393
1.22	41.89453
1.2205	20.34302
1.221	1.2085
1.2215	-0.10071
1.222	3.52478
1.2225	9.16443
1.223	15.81116
1.2235	19.83948
1.224	24.37134
1.2245	23.76709
1.225	18.63098
1.2255	31.11877
1.226	18.32886
1.2265	13.89771
1.227	-24.06921
1.2275	-55.3894
1.228	-70.19348
1.2285	-71.60339
1.229	-69.68994
1.2295	-53.67737
1.23	-27.79541
1.2305	3.7262
1.231	32.32727
1.2315	53.77808
1.232	66.36658
1.2325	73.51685
1.233	74.32251
1.2335	62.64038
1.234	54.78516
1.2345	41.89453
1.235	31.72302
1.2355	13.09204
1.236	-2.01416
1.2365	-14.50195
1.237	-11.48071
1.2375	0.50354
1.238	8.05664
1.2385	7.75452
1.239	5.0354
1.2395	-5.53894
1.24	-15.60974
1.2405	-24.06921
1.241	-26.88904
1.2415	-26.88904
1.242	-19.83948
1.2425	-19.13452
1.243	-17.52319
1.2435	-28.50037
1.244	-29.91028
1.2445	-44.51294
1.245	-47.8363
1.2455	-53.57666
1.246	-46.12427
1.2465	-42.29736
1.247	-38.67188
1.2475	-45.2179
1.248	-44.0094
1.2485	-30.91736
1.249	-17.92603
1.2495	-6.84814
1.25	2.41699
1.2505	13.09204
1.251	25.37842
1.2515	47.53418
1.252	58.10852
1.2525	71.90552
1.253	87.41455
1.2535	98.79456
1.254	95.87402
1.2545	88.82446
1.255	72.61047
1.2555	62.64038
1.256	54.0802
1.2565	45.41931
1.257	18.8324
1.2575	9.06372
1.258	-4.43115
1.2585	-10.27222
1.259	-5.74036
1.2595	-9.06372
1.26	-1.71204
1.2605	-5.23682
1.261	-1.81274
1.2615	3.02124
1.262	3.02124
1.2625	-5.23682
1.263	-7.35168
1.2635	-10.87646
1.264	-11.48071
1.2645	-10.57434
1.265	-8.25806
1.2655	-15.20691
1.266	-13.797
1.2665	-8.56018
1.267	-5.63965
1.2675	-1.2085
1.268	2.21558
1.2685	1.51062
1.269	4.83398
1.2695	6.64673
1.27	11.78284
1.2705	16.91895
1.271	17.82532
1.2715	19.33594
1.272	18.22815
1.2725	15.00549
1.273	10.67505
1.2735	7.45239
1.274	4.43115
1.2745	-0.30212
1.275	-17.72461
1.2755	-45.01648
1.276	-66.76941
1.2765	-99.3988
1.277	-110.27527
1.2775	-110.07385
1.278	-86.00464
1.2785	-75.22888
1.279	-57.8064
1.2795	-44.51294
1.28	-26.08337
1.2805	-6.14319
1.281	16.11328
1.2815	38.47046
1.282	48.44055
1.2825	35.2478
1.283	32.22656
1.2835	40.68604
1.284	53.47595
1.2845	58.91418
1.285	58.91418
1.2855	58.91418
1.286	58.91418
1.2865	58.91418
1.287	58.91418
1.2875	58.91418
1.288	58.91418
1.2885	58.91418
1.289	58.91418
1.2895	58.91418
1.29	58.91418
1.2905	58.91418
1.291	58.91418
1.2915	58.91418
1.292	58.91418
1.2925	58.91418
1.293	58.91418
1.2935	58.91418
1.294	58.91418
1.2945	58.91418
1.295	-3.02124
1.2955	-12.48779
1.296	-15.50903
1.2965	-13.19275
1.297	-13.69629
1.2975	-7.5531
1.298	-3.02124
1.2985	-7.45239
1.299	-1.91345
1.2995	-2.11487
1.3	1.10779
1.3005	-0.60425
1.301	1.51062
1.3015	-6.64673
1.302	-8.56018
1.3025	-11.48071
1.303	-7.04956
1.3035	-6.74744
1.304	-11.17859
1.3045	-9.97009
1.305	-16.21399
1.3055	-13.39417
1.306	-13.29346
1.3065	-6.04248
1.307	-7.85522
1.3075	-6.2439
1.308	-3.32336
1.3085	-2.11487
1.309	-2.61841
1.3095	3.8269
1.31	-1.51062
1.3105	3.32336
1.311	4.93469
1.3115	4.53186
1.312	6.54602
1.3125	10.87646
1.313	10.0708
1.3135	12.68921
1.314	12.78992
1.3145	9.36584
1.315	8.05664
1.3155	11.88354
1.316	8.45947
1.3165	9.36584
1.317	14.50195
1.3175	13.19275
1.318	12.99133
1.3185	4.83398
1.319	5.33752
1.3195	6.14319
1.32	6.44531
1.3205	10.57434
1.321	9.26514
1.3215	6.54602
1.322	7.5531
1.3225	0.50354
1.323	-0.90637
1.3235	0.80566
1.324	2.5177
1.3245	2.61841
1.325	-4.43115
1.3255	6.2439
1.326	-0.40283
1.3265	-48.64197
1.327	-114.10217
1.3275	-149.34998
1.328	-164.25476
1.3285	-163.14697
1.329	-146.83228
1.3295	-111.9873
1.33	-50.05188
1.3305	-0.70496
1.331	21.3501
1.3315	36.15417
1.332	49.34692
1.3325	48.84338
1.333	48.03772
1.3335	62.53967
1.334	71.30127
1.3345	81.47278
1.335	66.56799
1.3355	49.44763
1.336	24.47205
1.3365	20.04089
1.337	31.4209
1.3375	29.50745
1.338	32.32727
1.3385	39.37683
1.339	45.62073
1.3395	42.09595
1.34	25.27771
1.3405	24.37134
1.341	30.01099
1.3415	24.77417
1.342	42.39807
1.3425	43.00232
1.343	44.11011
1.3435	32.32727
1.344	21.65222
1.3445	-7.35168
1.345	-48.54126
1.3455	-82.9834
1.346	-92.55066
1.3465	-91.54358
1.347	-77.948
1.3475	-50.75684
1.348	-25.78125
1.3485	1.2085
1.349	4.73328
1.3495	9.86938
1.35	12.78992
1.3505	20.04089
1.351	22.45789
1.3515	14.70337
1.352	18.73169
1.3525	26.48621
1.353	31.62231
1.3535	21.3501
1.354	16.91895
1.3545	30.2124
1.355	47.13135
1.3555	63.04321
1.356	67.17224
1.3565	68.98499
1.357	72.81189
1.3575	58.81348
1.358	56.90002
1.3585	48.23914
1.359	41.79382
1.3595	37.36267
1.36	22.45789
1.3605	0.30212
1.361	-17.82532
1.3615	-30.01099
1.362	-36.95984
1.3625	-21.04797
1.363	-19.73877
1.3635	-11.88354
1.364	1.10779
1.3645	17.6239
1.365	21.3501
1.3655	17.42249
1.366	27.29187
1.3665	33.53577
1.367	37.46338
1.3675	42.09595
1.368	36.85913
1.3685	42.09595
1.369	41.79382
1.3695	35.54993
1.37	24.47205
1.3705	23.16284
1.371	19.53735
1.3715	19.83948
1.372	12.78992
1.3725	1.00708
1.373	-0.40283
1.3735	-3.22266
1.374	-11.98425
1.3745	-9.06372
1.375	-1.3092
1.3755	-7.35168
1.376	-6.84814
1.3765	-6.44531
1.377	-9.76868
1.3775	-9.46655
1.378	-7.25098
1.3785	-3.12195
1.379	-3.7262
1.3795	-2.11487
1.38	-4.22974
1.3805	-8.7616
1.381	-3.32336
1.3815	-0.60425
1.382	-0.90637
1.3825	-0.50354
1.383	-0.90637
1.3835	-2.81982
1.384	3.8269
1.3845	-0.80566
1.385	-5.13611
1.3855	-0.60425
1.386	5.0354
1.3865	7.5531
1.387	12.5885
1.3875	13.59558
1.388	17.12036
1.3885	12.28638
1.389	7.35168
1.3895	15.50903
1.39	14.80408
1.3905	16.3147
1.391	17.01965
1.3915	10.87646
1.392	9.06372
1.3925	5.63965
1.393	7.04956
1.3935	16.11328
1.394	12.48779
1.3945	0.50354
1.395	0.70496
1.3955	-1.10779
1.396	-7.65381
1.3965	-9.97009
1.397	-27.99683
1.3975	-36.55701
1.398	-38.36975
1.3985	-36.95984
1.399	-38.47046
1.3995	-40.68604
1.4	-34.54285
1.4005	-28.29895
1.401	-22.96143
1.4015	-16.61682
1.402	-10.57434
1.4025	-0.40283
1.403	5.43823
1.4035	8.45947
1.404	14.19983
1.4045	14.40125
1.405	21.14868
1.4055	3.52478
1.406	-24.57275
1.4065	-39.98108
1.407	-47.13135
1.4075	-46.62781
1.408	-22.55859
1.4085	0.30212
1.409	18.42957
1.4095	35.54993
1.41	48.64197
1.4105	53.07312
1.411	53.77808
1.4115	56.19507
1.412	53.07312
1.4125	50.15259
1.413	47.43347
1.4135	33.83789
1.414	35.14709
1.4145	28.50037
1.415	18.02673
1.4155	14.09912
1.416	8.35876
1.4165	13.99841
1.417	11.48071
1.4175	20.24231
1.418	18.53027
1.4185	11.38
1.419	12.68921
1.4195	13.89771
1.42	14.30054
1.4205	14.30054
1.421	14.70337
1.4215	17.6239
1.422	16.11328
1.4225	12.18567
1.423	10.0708
1.4235	6.54602
1.424	10.97717
1.4245	9.76868
1.425	4.63257
1.4255	3.42407
1.426	5.53894
1.4265	1.61133
1.427	0
1.4275	-4.53186
1.428	-1.71204
1.4285	-6.14319
1.429	-6.84814
1.4295	-4.02832
1.43	-2.01416
1.4305	-3.42407
1.431	-5.74036
1.4315	-5.33752
1.432	-2.61841
1.4325	-3.8269
1.433	0.10071
1.4335	-2.81982
1.434	0.20142
1.4345	2.41699
1.435	2.5177
1.4355	4.02832
1.436	-1.00708
1.4365	-2.01416
1.437	-3.22266
1.4375	0.10071
1.438	7.85522
1.4385	6.94885
1.439	13.19275
1.4395	12.89062
1.44	21.3501
1.4405	24.57275
1.441	21.04797
1.4415	10.87646
1.442	-12.48779
1.4425	-36.4563
1.443	-44.71436
1.4435	-47.8363
1.444	-76.84021
1.4445	-82.9834
1.445	-86.10535
1.4455	-77.44446
1.446	-61.53259
1.4465	-35.75134
1.447	-6.64673
1.4475	27.09045
1.448	58.91418
1.4485	74.2218
1.449	99.49951
1.4495	125.98572
1.45	138.77563
1.4505	123.56873
1.451	108.86536
1.4515	81.17065
1.452	63.34534
1.4525	34.14001
1.453	3.42407
1.4535	-11.58142
1.454	-28.19824
1.4545	-25.88196
1.455	-9.86938
1.4555	9.46655
1.456	10.47363
1.4565	17.82532
1.457	-3.42407
1.4575	-95.47119
1.458	-159.11865
1.4585	-195.87708
1.459	-216.42151
1.4595	-210.98328
1.46	-182.48291
1.4605	-130.71899
1.461	-70.79773
1.4615	-16.51611
1.462	34.84497
1.4625	76.7395
1.463	114.20288
1.4635	126.08643
1.464	131.72607
1.4645	126.69067
1.465	116.72058
1.4655	104.23279
1.466	93.15491
1.4665	82.37915
1.467	62.13684
1.4675	56.79932
1.468	51.5625
1.4685	48.84338
1.469	55.69153
1.4695	52.771
1.47	42.09595
1.4705	27.6947
1.471	18.73169
1.4715	15.30762
1.472	10.37292
1.4725	6.2439
1.473	-0.40283
1.4735	-8.35876
1.474	-13.19275
1.4745	-13.69629
1.475	-13.99841
1.4755	-10.87646
1.476	-7.15027
1.4765	4.73328
1.477	4.43115
1.4775	10.97717
1.478	12.68921
1.4785	10.87646
1.479	10.37292
1.4795	12.18567
1.48	17.12036
1.4805	15.71045
1.481	6.3446
1.4815	-1.81274
1.482	-10.77576
1.4825	-13.99841
1.483	-19.83948
1.4835	-19.13452
1.484	-20.44373
1.4845	-22.6593
1.485	-33.13293
1.4855	-73.61755
1.486	-98.79456
1.4865	-97.78748
1.487	-91.745
1.4875	-80.4657
1.488	-52.67029
1.4885	-22.96143
1.489	13.59558
1.4895	49.54834
1.49	79.2572
1.4905	97.88818
1.491	105.23987
1.4915	105.03845
1.492	87.41455
1.4925	76.13525
1.493	57.50427
1.4935	41.99524
1.494	13.29346
1.4945	-7.35168
1.495	-11.07788
1.4955	-4.93469
1.496	2.41699
1.4965	9.16443
1.497	10.57434
1.4975	9.86938
1.498	4.43115
1.4985	5.63965
1.499	-2.92053
1.4995	-2.21558
1.5	-5.0354
1.5005	-4.63257
1.501	-2.71912
1.5015	1.61133
1.502	-3.12195
1.5025	-1.81274
1.503	2.71912
1.5035	5.63965
1.504	5.23682
1.5045	12.68921
1.505	10.47363
1.5055	20.44373
1.506	26.88904
1.5065	25.37842
1.507	23.56567
1.5075	25.177
1.508	25.177
1.5085	26.3855
1.509	23.96851
1.5095	21.3501
1.51	21.14868
1.5105	13.99841
1.511	6.04248
1.5115	8.15735
1.512	5.33752
1.5125	10.97717
1.513	12.48779
1.5135	11.07788
1.514	10.27222
1.5145	4.83398
1.515	8.8623
1.5155	0.50354
1.516	7.5531
1.5165	1.00708
1.517	3.52478
1.5175	-0.90637
1.518	5.74036
1.5185	4.73328
1.519	0.30212
1.5195	1.71204
1.52	-5.84106
1.5205	-9.36584
1.521	-18.02673
1.5215	-18.42957
1.522	-13.59558
1.5225	-10.27222
1.523	-22.6593
1.5235	-31.72302
1.524	-50.354
1.5245	-53.87878
1.525	-57.30286
1.5255	-43.70728
1.526	-35.14709
1.5265	-9.06372
1.527	5.23682
1.5275	-6.04248
1.528	-24.16992
1.5285	-36.4563
1.529	-39.88037
1.5295	-28.80249
1.53	-10.37292
1.5305	14.70337
1.531	49.34692
1.5315	75.83313
1.532	96.57898
1.5325	99.90234
1.533	103.62854
1.5335	95.87402
1.534	83.08411
1.5345	71.50269
1.535	54.68445
1.5355	47.23206
1.536	39.27612
1.5365	14.19983
1.537	-6.94885
1.5375	-15.00549
1.538	-21.95435
1.5385	-34.24072
1.539	-32.83081
1.5395	-34.54285
1.54	-42.19666
1.5405	-44.41223
1.541	-50.75684
1.5415	-57.00073
1.542	-116.21704
1.5425	-160.72998
1.543	-181.47583
1.5435	-179.46167
1.544	-167.67883
1.5445	-128.80554
1.545	-74.72534
1.5455	-4.63257
1.546	53.27454
1.5465	111.48376
1.547	147.73865
1.5475	151.76697
1.548	115.41138
1.5485	76.53809
1.549	39.47754
1.5495	11.68213
1.55	-8.8623
1.5505	-13.09204
1.551	-11.38
1.5515	-18.93311
1.552	-3.42407
1.5525	12.08496
1.553	38.26904
1.5535	65.25879
1.554	91.8457
1.5545	97.68677
1.555	90.23438
1.5555	86.00464
1.556	86.50818
1.5565	71.90552
1.557	60.62622
1.5575	52.8717
1.558	47.7356
1.5585	38.77258
1.559	33.33435
1.5595	25.78125
1.56	26.18408
1.5605	25.57983
1.561	22.25647
1.5615	15.40833
1.562	13.09204
1.5625	8.15735
1.563	7.85522
1.5635	6.2439
1.564	4.83398
1.5645	6.64673
1.565	1.61133
1.5655	7.35168
1.566	3.22266
1.5665	-0.80566
1.567	-1.61133
1.5675	3.02124
1.568	6.54602
1.5685	3.7262
1.569	5.23682
1.5695	-6.84814
1.57	-6.3446
1.5705	-7.95593
1.571	-5.84106
1.5715	-2.81982
1.572	-1.51062
1.5725	1.81274
1.573	-2.81982
1.5735	-3.32336
1.574	-10.0708
1.5745	-12.99133
1.575	-15.60974
1.5755	-30.81665
1.576	-75.53101
1.5765	-107.75757
1.577	-125.18005
1.5775	-126.08643
1.578	-117.12341
1.5785	-87.91809
1.579	-50.65613
1.5795	-16.3147
1.58	15.00549
1.5805	44.31152
1.581	66.36658
1.5815	77.44446
1.582	79.35791
1.5825	73.01331
1.583	64.05029
1.5835	53.27454
1.584	51.36108
1.5845	35.54993
1.585	17.22107
1.5855	24.37134
1.586	28.50037
1.5865	35.2478
1.587	35.65063
1.5875	31.21948
1.588	27.39258
1.5885	11.78284
1.589	-4.22974
1.5895	-10.67505
1.59	-15.20691
1.5905	-20.54443
1.591	-19.94019
1.5915	-24.67346
1.592	-39.77966
1.5925	-56.39648
1.593	-70.19348
1.5935	-68.48145
1.594	-71.30127
1.5945	-58.30994
1.595	-52.771
1.5955	-32.52869
1.596	-15.30762
1.5965	7.25098
1.597	21.55151
1.5975	38.36975
1.598	58.10852
1.5985	77.54517
1.599	92.14783
1.5995	100.30518
1.6	109.3689
1.6005	103.22571
1.601	94.86694
1.6015	86.20605
1.602	70.59631
1.6025	53.37524
1.603	33.9386
1.6035	25.47913
1.604	16.01257
1.6045	11.2793
1.605	0.70496
1.6055	4.43115
1.606	6.74744
1.6065	8.96301
1.607	7.5531
1.6075	-2.01416
1.608	-1.00708
1.6085	-2.81982
1.609	0.50354
1.6095	0.30212
1.61	-3.7262
1.6105	2.11487
1.611	0.80566
1.6115	2.92053
1.612	-2.11487
1.6125	5.53894
1.613	2.01416
1.6135	2.31628
1.614	-2.01416
1.6145	-1.3092
1.615	6.54602
1.6155	9.26514
1.616	11.68213
1.6165	12.68921
1.617	12.89062
1.6175	14.50195
1.618	14.30054
1.6185	13.59558
1.619	8.25806
1.6195	5.0354
1.62	7.04956
1.6205	6.3446
1.621	3.52478
1.6215	16.3147
1.622	15.60974
1.6225	19.73877
1.623	17.82532
1.6235	21.55151
1.624	24.57275
1.6245	11.68213
1.625	11.98425
1.6255	9.36584
1.626	0.70496
1.6265	1.51062
1.627	3.32336
1.6275	-0.10071
1.628	11.2793
1.6285	11.17859
1.629	7.85522
1.6295	10.0708
1.63	8.45947
1.6305	8.8623
1.631	3.02124
1.6315	-1.51062
1.632	-3.62549
1.6325	-0.80566
1.633	-4.73328
1.6335	-9.76868
1.634	-20.84656
1.6345	-25.68054
1.635	-29.30603
1.6355	-28.39966
1.636	-34.44214
1.6365	-35.75134
1.637	-38.974
1.6375	-42.39807
1.638	-34.64355
1.6385	-38.57117
1.639	-26.18408
1.6395	-19.83948
1.64	-21.04797
1.6405	-17.6239
1.641	-16.51611
1.6415	-10.17151
1.642	-6.04248
1.6425	-5.43823
1.643	-3.42407
1.6435	-1.10779
1.644	0.30212
1.6445	6.54602
1.645	7.35168
1.6455	13.29346
1.646	18.93311
1.6465	21.24939
1.647	24.87488
1.6475	24.87488
1.648	24.06921
1.6485	20.64514
1.649	23.96851
1.6495	23.46497
1.65	22.6593
1.6505	17.32178
1.651	14.90479
1.6515	8.56018
1.652	7.45239
1.6525	-8.05664
1.653	-73.01331
1.6535	-141.99829
1.654	-176.74255
1.6545	-214.20593
1.655	-238.77869
1.6555	-225.48523
1.656	-171.50574
1.6565	-100.80872
1.657	-23.76709
1.6575	45.82214
1.658	99.2981
1.6585	160.72998
1.659	184.09424
1.6595	192.453
1.66	191.44592
1.6605	179.56238
1.661	147.1344
1.6615	121.05103
1.662	98.0896
1.6625	55.3894
1.663	30.81665
1.6635	6.2439
1.664	-3.12195
1.6645	7.65381
1.665	10.0708
1.6655	14.40125
1.666	6.64673
1.6665	3.12195
1.667	8.15735
1.6675	5.43823
1.668	11.68213
1.6685	20.34302
1.669	19.53735
1.6695	22.35718
1.67	23.96851
1.6705	23.16284
1.671	23.56567
1.6715	27.19116
1.672	26.78833
1.6725	31.4209
1.673	31.92444
1.6735	40.48462
1.674	43.30444
1.6745	36.05347
1.675	38.16833
1.6755	36.55701
1.676	30.61523
1.6765	28.39966
1.677	23.56567
1.6775	21.85364
1.678	21.14868
1.6785	17.12036
1.679	14.19983
1.6795	11.98425
1.68	10.77576
1.6805	6.2439
1.681	-1.00708
1.6815	-3.52478
1.682	-28.19824
1.6825	-87.81738
1.683	-131.92749
1.6835	-157.10449
1.684	-161.93848
1.6845	-146.53015
1.685	-118.63403
1.6855	-80.36499
1.686	-49.44763
1.6865	-34.94568
1.687	-15.20691
1.6875	7.45239
1.688	31.62231
1.6885	47.33276
1.689	64.05029
1.6895	83.68835
1.69	93.0542
1.6905	107.45544
1.691	107.25403
1.6915	91.64429
1.692	96.7804
1.6925	91.24146
1.693	95.97473
1.6935	91.34216
1.694	69.38782
1.6945	37.46338
1.695	14.30054
1.6955	-3.62549
1.696	-14.80408
1.6965	-19.13452
1.697	-21.45081
1.6975	-24.06921
1.698	-19.83948
1.6985	-22.76001
1.699	-20.24231
1.6995	-12.68921
1.7	-7.25098
1.7005	5.53894
1.701	8.96301
1.7015	30.11169
1.702	36.25488
1.7025	48.84338
1.703	55.49011
1.7035	60.62622
1.704	61.83472
1.7045	52.97241
1.705	43.00232
1.7055	35.04639
1.706	32.93152
1.7065	16.71753
1.707	12.68921
1.7075	0.90637
1.708	-6.2439
1.7085	-10.87646
1.709	-6.2439
1.7095	-9.16443
1.71	-11.78284
1.7105	-10.57434
1.711	-12.18567
1.7115	-3.22266
1.712	1.71204
1.7125	-3.62549
1.713	3.42407
1.7135	-5.84106
1.714	-1.3092
1.7145	-6.74744
1.715	-6.54602
1.7155	2.41699
1.716	4.93469
1.7165	1.2085
1.717	-1.10779
1.7175	2.41699
1.718	-3.8269
1.7185	2.21558
1.719	9.26514
1.7195	8.35876
1.72	3.92761
1.7205	1.10779
1.721	6.54602
1.7215	3.42407
1.722	6.84814
1.7225	3.8269
1.723	1.51062
1.7235	-8.45947
1.724	-7.25098
1.7245	-5.94177
1.725	-3.7262
1.7255	-11.68213
1.726	-17.82532
1.7265	-13.69629
1.727	-7.45239
1.7275	-11.07788
1.728	-3.7262
1.7285	1.61133
1.729	-2.01416
1.7295	6.14319
1.73	9.06372
1.7305	11.48071
1.731	6.14319
1.7315	1.91345
1.732	-11.2793
1.7325	-6.54602
1.733	-3.02124
1.7335	-2.92053
1.734	1.10779
1.7345	1.10779
1.735	-0.70496
1.7355	2.92053
1.736	0.20142
1.7365	-1.2085
1.737	-4.22974
1.7375	-3.8269
1.738	5.13611
1.7385	0.80566
1.739	5.74036
1.7395	0.80566
1.74	2.81982
1.7405	-1.61133
1.741	3.02124
1.7415	-1.3092
1.742	-0.50354
1.7425	3.8269
1.743	4.63257
1.7435	7.65381
1.744	3.22266
1.7445	6.44531
1.745	5.63965
1.7455	6.64673
1.746	4.53186
1.7465	8.56018
1.747	6.64673
1.7475	6.14319
1.748	5.74036
1.7485	2.11487
1.749	0.70496
1.7495	-4.12903
1.75	-16.21399
1.7505	-14.19983
1.751	-19.23523
1.7515	-20.74585
1.752	-19.13452
1.7525	-18.02673
1.753	-16.01257
1.7535	-14.90479
1.754	-5.43823
1.7545	-1.3092
1.755	8.05664
1.7555	10.17151
1.756	16.51611
1.7565	21.85364
1.757	20.34302
1.7575	18.73169
1.758	24.37134
1.7585	20.1416
1.759	23.26355
1.7595	22.25647
1.76	21.55151
1.7605	18.8324
1.761	15.91187
1.7615	22.45789
1.762	17.12036
1.7625	14.40125
1.763	10.57434
1.7635	12.89062
1.764	7.95593
1.7645	7.45239
1.765	4.43115
1.7655	8.7616
1.766	7.85522
1.7665	6.54602
1.767	6.04248
1.7675	5.53894
1.768	10.87646
1.7685	14.90479
1.769	18.02673
1.7695	6.44531
1.77	-18.42957
1.7705	-44.51294
1.771	-57.70569
1.7715	-60.82764
1.772	-63.74817
1.7725	-63.44604
1.773	-59.82056
1.7735	-45.82214
1.774	-31.4209
1.7745	-11.98425
1.775	2.11487
1.7755	12.18567
1.776	31.62231
1.7765	51.66321
1.777	63.54675
1.7775	77.64587
1.778	91.94641
1.7785	96.98181
1.779	91.14075
1.7795	77.34375
1.78	66.46729
1.7805	33.33435
1.781	-50.2533
1.7815	-111.38306
1.782	-152.87476
1.7825	-168.88733
1.783	-171.30432
1.7835	-136.45935
1.784	-88.32092
1.7845	-17.92603
1.785	38.87329
1.7855	84.39331
1.786	110.77881
1.7865	130.31616
1.787	133.23669
1.7875	119.03687
1.788	102.42004
1.7885	83.78906
1.789	67.07153
1.7895	50.15259
1.79	25.07629
1.7905	8.25806
1.791	1.10779
1.7915	-7.5531
1.792	-4.73328
1.7925	5.13611
1.793	17.22107
1.7935	14.09912
1.794	16.41541
1.7945	12.48779
1.795	18.12744
1.7955	15.30762
1.796	14.90479
1.7965	7.65381
1.797	6.64673
1.7975	7.15027
1.798	12.99133
1.7985	1.81274
1.799	8.45947
1.7995	7.45239
1.8	4.73328
1.8005	8.35876
1.801	1.00708
1.8015	4.93469
1.802	1.51062
1.8025	4.53186
1.803	-0.30212
1.8035	0.90637
1.804	2.61841
1.8045	2.61841
1.805	3.92761
1.8055	12.68921
1.806	12.68921
1.8065	7.15027
1.807	5.0354
1.8075	3.52478
1.808	0.60425
1.8085	-5.13611
1.809	-0.60425
1.8095	4.02832
1.81	5.84106
1.8105	3.7262
1.811	9.86938
1.8115	10.97717
1.812	6.44531
1.8125	-11.98425
1.813	-41.59241
1.8135	-56.69861
1.814	-66.6687
1.8145	-68.88428
1.815	-59.82056
1.8155	-36.05347
1.816	-15.60974
1.8165	-2.21558
1.817	9.86938
1.8175	24.06921
1.818	36.4563
1.8185	45.3186
1.819	41.39099
1.8195	23.46497
1.82	8.25806
1.8205	-6.3446
1.821	-14.60266
1.8215	-17.52319
1.822	-24.27063
1.8225	-28.19824
1.823	-13.09204
1.8235	-7.5531
1.824	6.3446
1.8245	7.45239
1.825	7.95593
1.8255	3.7262
1.826	12.68921
1.8265	19.43665
1.827	19.73877
1.8275	16.51611
1.828	15.00549
1.8285	24.77417
1.829	21.95435
1.8295	18.02673
1.83	13.89771
1.8305	20.94727
1.831	26.68762
1.8315	16.81824
1.832	8.25806
1.8325	5.84106
1.833	2.61841
1.8335	-2.81982
1.834	1.2085
1.8345	8.25806
1.835	8.25806
1.8355	5.23682
1.836	6.64673
1.8365	4.93469
1.837	4.22974
1.8375	8.05664
1.838	8.96301
1.8385	12.89062
1.839	19.94019
1.8395	19.43665
1.84	21.95435
1.8405	24.77417
1.841	24.47205
1.8415	17.6239
1.842	18.12744
1.8425	18.22815
1.843	11.17859
1.8435	9.46655
1.844	6.44531
1.8445	2.11487
1.845	-0.10071
1.8455	2.92053
1.846	-5.23682
1.8465	-10.47363
1.847	-14.80408
1.8475	-23.16284
1.848	-33.83789
1.8485	-41.18958
1.849	-41.08887
1.8495	-32.42798
1.85	-30.61523
1.8505	-33.73718
1.851	-27.39258
1.8515	-22.25647
1.852	-14.30054
1.8525	-8.8623
1.853	-3.42407
1.8535	8.56018
1.854	20.74585
1.8545	33.53577
1.855	36.75842
1.8555	40.08179
1.856	40.38391
1.8565	32.22656
1.857	34.84497
1.8575	28.70178
1.858	27.29187
1.8585	23.56567
1.859	11.78284
1.8595	14.90479
1.86	14.30054
1.8605	12.89062
1.861	15.40833
1.8615	13.69629
1.862	6.3446
1.8625	7.65381
1.863	-0.60425
1.8635	-2.61841
1.864	0.20142
1.8645	7.04956
1.865	-0.50354
1.8655	6.3446
1.866	4.22974
1.8665	-4.53186
1.867	-5.43823
1.8675	-18.12744
1.868	-42.59949
1.8685	-79.05579
1.869	-127.99988
1.8695	-172.71423
1.87	-189.02893
1.8705	-181.97937
1.871	-160.02502
1.8715	-129.30908
1.872	-89.12659
1.8725	-32.62939
1.873	14.90479
1.8735	50.45471
1.874	87.41455
1.8745	111.68518
1.875	129.20837
1.8755	147.1344
1.876	147.73865
1.8765	149.45068
1.877	132.12891
1.8775	108.36182
1.878	82.9834
1.8785	63.24463
1.879	54.28162
1.8795	48.64197
1.88	46.92993
1.8805	37.7655
1.881	31.62231
1.8815	35.75134
1.882	40.48462
1.8825	40.78674
1.883	41.29028
1.8835	30.31311
1.884	16.21399
1.8845	11.17859
1.885	8.96301
1.8855	7.95593
1.886	5.43823
1.8865	11.78284
1.887	18.93311
1.8875	20.74585
1.888	21.3501
1.8885	18.53027
1.889	15.60974
1.8895	16.01257
1.89	9.26514
1.8905	2.92053
1.891	-6.64673
1.8915	-5.0354
1.892	-9.56726
1.8925	-17.6239
1.893	-17.52319
1.8935	-12.89062
1.894	-13.09204
1.8945	-7.5531
1.895	-7.65381
1.8955	-9.36584
1.896	-6.94885
1.8965	-8.8623
1.897	-9.97009
1.8975	-1.00708
1.898	2.92053
1.8985	-3.7262
1.899	-3.22266
1.8995	-2.92053
1.9	-7.45239
1.9005	-10.87646
1.901	-14.60266
1.9015	-8.15735
1.902	-11.78284
1.9025	-10.57434
1.903	-12.48779
1.9035	-9.06372
1.904	-11.2793
1.9045	-15.40833
1.905	-4.02832
1.9055	-0.10071
1.906	0.80566
1.9065	5.84106
1.907	2.31628
1.9075	-45.3186
1.908	-108.36182
1.9085	-132.93457
1.909	-145.8252
1.9095	-137.26501
1.91	-125.28076
1.9105	-89.83154
1.911	-28.70178
1.9115	26.88904
1.912	67.97791
1.9125	108.96606
1.913	135.55298
1.9135	144.21387
1.914	139.27917
1.9145	124.97864
1.915	102.31934
1.9155	79.05579
1.916	59.61914
1.9165	43.80798
1.917	26.48621
1.9175	6.54602
1.918	5.33752
1.9185	-2.41699
1.919	-2.21558
1.9195	5.0354
1.92	11.38
1.9205	18.12744
1.921	8.66089
1.9215	16.11328
1.922	17.92603
1.9225	18.32886
1.923	23.36426
1.9235	23.56567
1.924	20.34302
1.9245	19.73877
1.925	12.28638
1.9255	10.57434
1.926	10.27222
1.9265	6.14319
1.927	2.21558
1.9275	-1.2085
1.928	2.21558
1.9285	1.81274
1.929	0.80566
1.9295	2.81982
1.93	10.0708
1.9305	1.51062
1.931	-27.39258
1.9315	-54.38232
1.932	-60.3241
1.9325	-57.9071
1.933	-50.2533
1.9335	-27.59399
1.934	-4.63257
1.9345	15.50903
1.935	28.09753
1.9355	37.86621
1.936	55.18799
1.9365	55.69153
1.937	57.9071
1.9375	48.23914
1.938	40.68604
1.9385	26.18408
1.939	16.3147
1.9395	7.15027
1.94	-7.95593
1.9405	-9.26514
1.941	-5.74036
1.9415	-6.04248
1.942	9.86938
1.9425	10.57434
1.943	11.78284
1.9435	11.48071
1.944	-0.80566
1.9445	-24.77417
1.945	-48.13843
1.9455	-63.94958
1.946	-66.6687
1.9465	-66.36658
1.947	-64.75525
1.9475	-53.27454
1.948	-39.98108
1.9485	-16.11328
1.949	-3.7262
1.9495	8.8623
1.95	25.27771
1.9505	48.03772
1.951	57.30286
1.9515	71.7041
1.952	85.60181
1.9525	91.745
1.953	77.34375
1.9535	37.86621
1.954	3.32336
1.9545	-26.98975
1.955	-48.13843
1.9555	-62.33826
1.956	-83.88977
1.9565	-91.14075
1.957	-83.99048
1.9575	-69.99207
1.958	-51.96533
1.9585	-23.16284
1.959	-5.63965
1.9595	11.98425
1.96	23.76709
1.9605	40.68604
1.961	44.21082
1.9615	57.40356
1.962	67.37366
1.9625	73.01331
1.963	76.33667
1.9635	70.69702
1.964	61.6333
1.9645	47.8363
1.965	41.08887
1.9655	23.46497
1.966	2.92053
1.9665	-1.40991
1.967	-1.51062
1.9675	1.91345
1.968	10.37292
1.9685	22.25647
1.969	26.58691
1.9695	28.50037
1.97	24.16992
1.9705	22.45789
1.971	20.74585
1.9715	11.78284
1.972	8.56018
1.9725	9.16443
1.973	6.94885
1.9735	6.04248
1.974	-0.60425
1.9745	-5.63965
1.975	-4.63257
1.9755	-9.16443
1.976	-47.8363
1.9765	-77.64587
1.977	-118.02979
1.9775	-140.8905
1.978	-143.4082
1.9785	-125.18005
1.979	-89.52942
1.9795	-32.52869
1.98	13.29346
1.9805	52.16675
1.981	91.24146
1.9815	110.87952
1.982	117.72766
1.9825	109.06677
1.983	99.49951
1.9835	87.41455
1.984	69.58923
1.9845	46.42639
1.985	28.09753
1.9855	17.72461
1.986	15.40833
1.9865	5.0354
1.987	0.10071
1.9875	3.42407
1.988	3.02124
1.9885	3.02124
1.989	2.92053
1.9895	3.12195
1.99	5.63965
1.9905	7.65381
1.991	11.78284
1.9915	9.86938
1.992	10.97717
1.9925	15.1062
1.993	20.1416
1.9935	11.2793
1.994	9.26514
1.9945	11.38
1.995	6.2439
1.9955	3.22266
1.996	0.40283
1.9965	-2.71912
1.997	0.80566
1.9975	1.00708
1.998	-5.74036
1.9985	-0.40283
1.999	-12.5885
1.9995	-6.84814
2	-16.11328
2.0005	-11.2793
2.001	-1.61133
2.0015	3.92761
2.002	0.70496
2.0025	3.22266
2.003	-0.30212
2.0035	10.47363
2.004	9.46655
2.0045	12.5885
2.005	11.38
2.0055	1.51062
2.006	1.00708
2.0065	-55.79224
2.007	-118.13049
2.0075	-150.35706
2.008	-162.94556
2.0085	-160.22644
2.009	-131.62537
2.0095	-79.96216
2.01	-17.12036
2.0105	37.16125
2.011	89.42871
2.0115	123.2666
2.012	147.03369
2.0125	153.68042
2.013	139.17847
2.0135	124.07227
2.014	99.49951
2.0145	71.09985
2.015	53.97949
2.0155	43.10303
2.016	23.16284
2.0165	9.36584
2.017	1.00708
2.0175	0.70496
2.018	6.3446
2.0185	17.42249
2.019	21.95435
2.0195	19.43665
2.02	16.3147
2.0205	24.37134
2.021	24.67346
2.0215	17.6239
2.022	17.6239
2.0225	11.98425
2.023	6.94885
2.0235	1.10779
2.024	2.71912
2.0245	-7.25098
2.025	-7.85522
2.0255	-7.85522
2.026	-2.41699
2.0265	-24.27063
2.027	-40.98816
2.0275	-59.21631
2.028	-60.92834
2.0285	-62.8418
2.029	-62.43896
2.0295	-54.98657
2.03	-45.3186
2.0305	-32.7301
2.031	-12.48779
2.0315	7.95593
2.032	25.78125
2.0325	36.05347
2.033	53.67737
2.0335	70.59631
2.034	82.37915
2.0345	94.3634
2.035	98.0896
2.0355	89.22729
2.036	79.35791
2.0365	65.86304
2.037	31.62231
2.0375	-12.99133
2.038	-37.96692
2.0385	-59.1156
2.039	-73.01331
2.0395	-68.48145
2.04	-54.58374
2.0405	-19.33594
2.041	3.42407
2.0415	16.61682
2.042	16.51611
2.0425	22.25647
2.043	29.40674
2.0435	31.52161
2.044	19.63806
2.0445	13.59558
2.045	6.84814
2.0455	6.64673
2.046	-10.97717
2.0465	-21.24939
2.047	-16.21399
2.0475	-10.97717
2.048	6.94885
2.0485	16.41541
2.049	19.03381
2.0495	22.96143
2.05	27.79541
2.0505	31.52161
2.051	38.67188
2.0515	39.17542
2.052	34.14001
2.0525	36.4563
2.053	24.77417
2.0535	25.27771
2.054	22.6593
2.0545	22.45789
2.055	11.98425
2.0555	3.02124
2.056	2.71912
2.0565	-1.91345
2.057	-6.64673
2.0575	-10.97717
2.058	-12.99133
2.0585	-17.22107
2.059	-18.42957
2.0595	-15.20691
2.06	-17.22107
2.0605	-17.42249
2.061	-17.22107
2.0615	-12.89062
2.062	-14.50195
2.0625	-11.78284
2.063	-7.15027
2.0635	-10.37292
2.064	-11.38
2.0645	-8.56018
2.065	-3.92761
2.0655	0.50354
2.066	6.14319
2.0665	7.15027
2.067	11.68213
2.0675	18.63098
2.068	22.55859
2.0685	20.64514
2.069	17.32178
2.0695	12.99133
2.07	-5.43823
2.0705	-11.68213
2.071	-14.09912
2.0715	-25.68054
2.072	-20.84656
2.0725	-15.60974
2.073	-19.13452
2.0735	-11.17859
2.074	-9.16443
2.0745	-3.62549
2.075	-1.61133
2.0755	-3.22266
2.076	-4.63257
2.0765	-3.32336
2.077	0.10071
2.0775	9.16443
2.078	11.58142
2.0785	20.44373
2.079	26.58691
2.0795	33.83789
2.08	26.3855
2.0805	23.16284
2.081	17.32178
2.0815	13.29346
2.082	9.76868
2.0825	8.8623
2.083	12.38708
2.0835	11.78284
2.084	12.08496
2.0845	11.98425
2.085	14.40125
2.0855	14.90479
2.086	19.63806
2.0865	20.04089
2.087	21.24939
2.0875	23.06213
2.088	18.22815
2.0885	21.75293
2.089	16.51611
2.0895	9.97009
2.09	7.04956
2.0905	8.96301
2.091	10.67505
2.0915	2.61841
2.092	6.2439
2.0925	3.52478
2.093	3.32336
2.0935	5.23682
2.094	-3.22266
2.0945	1.61133
2.095	-1.00708
2.0955	-1.3092
2.096	-3.62549
2.0965	4.63257
2.097	2.21558
2.0975	0.10071
2.098	-1.61133
2.0985	1.81274
2.099	3.02124
2.0995	-6.14319
2.1	-15.30762
2.1005	-21.3501
2.101	-25.27771
2.1015	-18.53027
2.102	-15.1062
2.1025	-31.72302
2.103	-47.13135
2.1035	-62.03613
2.104	-55.3894
2.1045	-55.18799
2.105	-52.46887
2.1055	-45.41931
2.106	-36.85913
2.1065	-26.48621
2.107	-14.19983
2.1075	-1.61133
2.108	18.93311
2.1085	36.05347
2.109	65.25879
2.1095	80.76782
2.11	91.14075
2.1105	97.28394
2.111	93.15491
2.1115	78.75366
2.112	60.02197
2.1125	34.54285
2.113	21.04797
2.1135	9.26514
2.114	9.06372
2.1145	6.84814
2.115	2.81982
2.1155	9.56726
2.116	20.34302
2.1165	33.23364
2.117	33.43506
2.1175	32.7301
2.118	24.16992
2.1185	21.55151
2.119	14.80408
2.1195	5.74036
2.12	0
2.1205	-8.66089
2.121	-13.49487
2.1215	-11.17859
2.122	-3.8269
2.1225	9.76868
2.123	9.97009
2.1235	12.48779
2.124	17.72461
2.1245	10.27222
2.125	16.91895
2.1255	7.85522
2.126	8.7616
2.1265	10.47363
2.127	13.69629
2.1275	14.50195
2.128	12.89062
2.1285	8.25806
2.129	14.40125
2.1295	13.09204
2.13	20.84656
2.1305	21.55151
2.131	14.60266
2.1315	-22.55859
2.132	-90.93933
2.1325	-126.48926
2.133	-144.21387
2.1335	-147.73865
2.134	-132.53174
2.1345	-96.07544
2.135	-38.87329
2.1355	19.33594
2.136	67.47437
2.1365	99.2981
2.137	95.26978
2.1375	70.89844
2.138	43.90869
2.1385	29.91028
2.139	13.797
2.1395	14.40125
2.14	21.24939
2.1405	37.06055
2.141	41.39099
2.1415	41.99524
2.142	62.03613
2.1425	67.07153
2.143	81.97632
2.1435	84.89685
2.144	86.00464
2.1445	75.12817
2.145	58.61206
2.1455	41.39099
2.146	17.52319
2.1465	-0.40283
2.147	-2.21558
2.1475	1.10779
2.148	9.86938
2.1485	13.19275
2.149	6.14319
2.1495	9.86938
2.15	12.5885
2.1505	8.66089
2.151	12.48779
2.1515	9.86938
2.152	4.63257
2.1525	-1.3092
2.153	4.63257
2.1535	9.56726
2.154	3.52478
2.1545	1.51062
2.155	8.7616
2.1555	16.11328
2.156	15.40833
2.1565	18.02673
2.157	16.51611
2.1575	10.47363
2.158	9.06372
2.1585	6.84814
2.159	7.95593
2.1595	3.42407
2.16	1.10779
2.1605	-6.2439
2.161	1.3092
2.1615	-5.63965
2.162	1.81274
2.1625	-5.0354
2.163	-11.2793
2.1635	-20.44373
2.164	-20.94727
2.1645	-26.48621
2.165	-21.55151
2.1655	-9.86938
2.166	-11.17859
2.1665	-12.08496
2.167	-12.48779
2.1675	-17.12036
2.168	-15.50903
2.1685	-18.32886
2.169	-17.22107
2.1695	-17.6239
2.17	-10.87646
2.1705	-10.67505
2.171	-8.66089
2.1715	-5.63965
2.172	-1.51062
2.1725	-6.64673
2.173	-1.81274
2.1735	1.81274
2.174	1.00708
2.1745	0.20142
2.175	4.22974
2.1755	4.12903
2.176	9.66797
2.1765	10.97717
2.177	10.17151
2.1775	9.56726
2.178	3.62549
2.1785	0.20142
2.179	-9.97009
2.1795	-13.59558
2.18	-11.2793
2.1805	-13.797
2.181	-12.28638
2.1815	-7.04956
2.182	-10.97717
2.1825	-6.74744
2.183	-7.04956
2.1835	-13.59558
2.184	-7.04956
2.1845	-10.57434
2.185	-2.31628
2.1855	4.22974
2.186	6.74744
2.1865	-12.28638
2.187	-33.03223
2.1875	-46.02356
2.188	-43.60657
2.1885	-45.72144
2.189	-36.4563
2.1895	-17.82532
2.19	-17.52319
2.1905	-34.54285
2.191	-34.84497
2.1915	-33.83789
2.192	-33.43506
2.1925	-16.81824
2.193	-4.33044
2.1935	-1.91345
2.194	4.63257
2.1945	10.87646
2.195	21.04797
2.1955	17.92603
2.196	18.53027
2.1965	30.11169
2.197	55.08728
2.1975	79.2572
2.198	106.64978
2.1985	116.61987
2.199	122.25952
2.1995	119.94324
2.2	111.8866
2.2005	91.04004
2.201	72.20764
2.2015	56.5979
2.202	36.95984
2.2025	31.11877
2.203	20.44373
2.2035	8.05664
2.204	2.41699
2.2045	7.04956
2.205	4.43115
2.2055	-0.80566
2.206	-2.21558
2.2065	5.43823
2.207	-4.43115
2.2075	-10.67505
2.208	-4.63257
2.2085	-8.25806
2.209	-2.11487
2.2095	2.01416
2.21	5.0354
2.2105	3.62549
2.211	1.3092
2.2115	-5.0354
2.212	-5.84106
2.2125	-7.35168
2.213	-7.45239
2.2135	-12.48779
2.214	-11.58142
2.2145	-6.84814
2.215	-2.81982
2.2155	-0.70496
2.216	-1.00708
2.2165	-1.40991
2.217	1.40991
2.2175	4.33044
2.218	2.41699
2.2185	1.3092
2.219	5.63965
2.2195	-0.70496
2.22	2.11487
2.2205	-2.5177
2.221	-4.53186
2.2215	-10.0708
2.222	-1.91345
2.2225	1.91345
2.223	8.05664
2.2235	10.37292
2.224	10.37292
2.2245	14.19983
2.225	18.42957
2.2255	18.63098
2.226	16.51611
2.2265	7.95593
2.227	7.85522
2.2275	-3.12195
2.228	-1.71204
2.2285	-0.40283
2.229	2.11487
2.2295	-5.63965
2.23	-5.84106
2.2305	1.2085
2.231	0.60425
2.2315	4.43115
2.232	-0.40283
2.2325	-3.02124
2.233	0.60425
2.2335	-3.12195
2.234	-4.63257
2.2345	-11.38
2.235	-3.92761
2.2355	-4.53186
2.236	-3.92761
2.2365	-2.92053
2.237	4.12903
2.2375	10.37292
2.238	8.56018
2.2385	15.50903
2.239	11.78284
2.2395	5.74036
2.24	-2.31628
2.2405	-7.75452
2.241	-32.32727
2.2415	-97.38464
2.242	-138.47351
2.2425	-149.34998
2.243	-148.84644
2.2435	-129.40979
2.244	-94.2627
2.2445	-37.46338
2.245	26.08337
2.2455	70.69702
2.246	104.03137
2.2465	132.83386
2.247	143.00537
2.2475	138.3728
2.248	124.07227
2.2485	104.53491
2.249	80.26428
2.2495	50.75684
2.25	26.98975
2.2505	9.76868
2.251	-3.8269
2.2515	-7.65381
2.252	-4.53186
2.2525	-5.33752
2.253	-1.71204
2.2535	0.80566
2.254	-2.21558
2.2545	-5.94177
2.255	-9.16443
2.2555	-4.73328
2.256	-3.52478
2.2565	0.90637
2.257	-1.00708
2.2575	1.10779
2.258	8.45947
2.2585	12.48779
2.259	18.32886
2.2595	23.76709
2.26	24.87488
2.2605	23.66638
2.261	17.32178
2.2615	31.82373
2.262	28.29895
2.2625	31.92444
2.263	36.65771
2.2635	33.43506
2.264	30.31311
2.2645	29.30603
2.265	23.46497
2.2655	4.22974
2.266	-3.12195
2.2665	-8.35876
2.267	-8.96301
2.2675	-3.02124
2.268	2.5177
2.2685	5.74036
2.269	10.87646
2.2695	7.04956
2.27	9.56726
2.2705	12.28638
2.271	3.52478
2.2715	-6.44531
2.272	3.02124
2.2725	-3.8269
2.273	0.20142
2.2735	1.00708
2.274	5.23682
2.2745	3.52478
2.275	-1.40991
2.2755	3.52478
2.276	1.61133
2.2765	3.32336
2.277	-0.70496
2.2775	-0.30212
2.278	0.90637
2.2785	-5.0354
2.279	-2.01416
2.2795	-2.21558
2.28	1.91345
2.2805	5.23682
2.281	2.41699
2.2815	-0.40283
2.282	-4.83398
2.2825	-13.69629
2.283	-8.7616
2.2835	-25.07629
2.284	-43.10303
2.2845	-61.83472
2.285	-68.68286
2.2855	-67.67578
2.286	-64.55383
2.2865	-64.45312
2.287	-58.30994
2.2875	-52.36816
2.288	-34.74426
2.2885	-16.01257
2.289	0.20142
2.2895	14.80408
2.29	24.67346
2.2905	41.08887
2.291	50.55542
2.2915	69.68994
2.292	80.66711
2.2925	86.00464
2.293	89.42871
2.2935	86.91101
2.294	74.72534
2.2945	53.17383
2.295	39.17542
2.2955	30.91736
2.296	17.12036
2.2965	2.41699
2.297	-6.44531
2.2975	0.50354
2.298	-19.13452
2.2985	-25.177
2.299	-23.96851
2.2995	-31.32019
2.3	-34.44214
2.3005	-34.84497
2.301	-35.75134
2.3015	-32.12585
2.302	-20.04089
2.3025	-9.97009
2.303	-1.40991
2.3035	10.27222
2.304	18.02673
2.3045	29.00391
2.305	34.54285
2.3055	35.34851
2.306	37.06055
2.3065	46.62781
2.307	45.72144
2.3075	44.91577
2.308	38.06763
2.3085	29.80957
2.309	24.57275
2.3095	15.1062
2.31	7.75452
2.3105	4.12903
2.311	-19.23523
2.3115	-75.93384
2.312	-140.08484
2.3125	-171.90857
2.313	-179.46167
2.3135	-181.47583
2.314	-167.17529
2.3145	-132.33032
2.315	-73.41614
2.3155	-5.94177
2.316	48.03772
2.3165	96.17615
2.317	141.39404
2.3175	162.74414
2.318	181.87866
2.3185	184.19495
2.319	168.4845
2.3195	151.46484
2.32	117.62695
2.3205	64.65454
2.321	30.81665
2.3215	5.53894
2.322	-5.43823
2.3225	-7.45239
2.323	-0.30212
2.3235	-5.63965
2.324	-2.01416
2.3245	-5.0354
2.325	2.61841
2.3255	13.29346
2.326	22.35718
2.3265	19.33594
2.327	16.3147
2.3275	11.2793
2.328	2.71912
2.3285	4.93469
2.329	-0.60425
2.3295	4.53186
2.33	2.21558
2.3305	3.02124
2.331	4.02832
2.3315	4.93469
2.332	0.20142
2.3325	-1.51062
2.333	2.81982
2.3335	-0.90637
2.334	1.10779
2.3345	1.00708
2.335	2.21558
2.3355	-2.5177
2.336	-0.70496
2.3365	2.31628
2.337	5.33752
2.3375	3.62549
2.338	-1.71204
2.3385	-5.23682
2.339	-1.3092
2.3395	-2.71912
2.34	0
2.3405	4.22974
2.341	4.12903
2.3415	3.8269
2.342	0.20142
2.3425	0.90637
2.343	4.43115
2.3435	5.43823
2.344	3.62549
2.3445	5.0354
2.345	5.0354
2.3455	5.0354
2.346	4.12903
2.3465	4.93469
2.347	7.5531
2.3475	6.3446
2.348	1.71204
2.3485	4.02832
2.349	-1.40991
2.3495	-60.62622
2.35	-111.08093
2.3505	-146.32874
2.351	-152.37122
2.3515	-151.46484
2.352	-130.21545
2.3525	-85.40039
2.353	-22.45789
2.3535	26.08337
2.354	45.01648
2.3545	49.74976
2.355	57.20215
2.3555	56.5979
2.356	33.33435
2.3565	17.6239
2.357	4.22974
2.3575	-9.76868
2.358	-6.54602
2.3585	-2.5177
2.359	-2.41699
2.3595	1.00708
2.36	15.71045
2.3605	33.03223
2.361	61.83472
2.3615	97.58606
2.362	120.95032
2.3625	131.12183
2.363	128.40271
2.3635	121.05103
2.364	106.8512
2.3645	91.54358
2.365	71.7041
2.3655	54.28162
2.366	29.70886
2.3665	10.17151
2.367	-9.97009
2.3675	-11.48071
2.368	-6.44531
2.3685	-1.00708
2.369	5.74036
2.3695	-3.42407
2.37	-6.2439
2.3705	-2.01416
2.371	-4.53186
2.3715	-0.50354
2.372	-1.91345
2.3725	-1.2085
2.373	8.96301
2.3735	10.0708
2.374	12.78992
2.3745	12.28638
2.375	15.50903
2.3755	10.67505
2.376	11.38
2.3765	12.5885
2.377	6.14319
2.3775	0.10071
2.378	4.22974
2.3785	0.80566
2.379	6.54602
2.3795	0.90637
2.38	1.91345
2.3805	6.2439
2.381	5.0354
2.3815	5.94177
2.382	3.02124
2.3825	5.74036
2.383	3.02124
2.3835	10.97717
2.384	11.48071
2.3845	5.13611
2.385	-1.3092
2.3855	4.53186
2.386	7.85522
2.3865	0.90637
2.387	4.12903
2.3875	7.75452
2.388	4.22974
2.3885	4.43115
2.389	6.64673
2.3895	6.94885
2.39	4.93469
2.3905	4.43115
2.391	-4.12903
2.3915	-9.56726
2.392	-13.39417
2.3925	-12.99133
2.393	-13.69629
2.3935	-5.94177
2.394	-6.04248
2.3945	1.40991
2.395	-0.30212
2.3955	-1.10779
2.396	-13.89771
2.3965	-13.19275
2.397	-19.43665
2.3975	-27.19116
2.398	-26.98975
2.3985	-24.06921
2.399	-18.63098
2.3995	-19.23523
2.4	-15.00549
2.4005	-14.60266
2.401	-4.63257
2.4015	1.00708
2.402	14.30054
2.4025	15.50903
2.403	19.43665
2.4035	15.81116
2.404	19.53735
2.4045	29.00391
2.405	36.05347
2.4055	35.95276
2.406	42.19666
2.4065	44.0094
2.407	29.80957
2.4075	26.48621
2.408	17.42249
2.4085	18.93311
2.409	16.51611
2.4095	12.68921
2.41	3.52478
2.4105	6.14319
2.411	6.2439
2.4115	9.66797
2.412	12.68921
2.4125	5.63965
2.413	3.42407
2.4135	0.30212
2.414	-4.22974
2.4145	-9.16443
2.415	-13.89771
2.4155	-12.5885
2.416	-11.78284
2.4165	-13.59558
2.417	-14.70337
2.4175	-1.3092
2.418	1.40991
2.4185	6.84814
2.419	10.97717
2.4195	14.30054
2.42	19.94019
2.4205	15.91187
2.421	12.78992
2.4215	16.81824
2.422	11.68213
2.4225	13.49487
2.423	13.09204
2.4235	8.8623
2.424	12.18567
2.4245	8.25806
2.425	6.74744
2.4255	4.93469
2.426	4.73328
2.4265	3.62549
2.427	3.32336
2.4275	2.81982
2.428	4.93469
2.4285	4.93469
2.429	-1.40991
2.4295	-2.01416
2.43	-1.91345
2.4305	1.40991
2.431	4.22974
2.4315	3.7262
2.432	10.0708
2.4325	13.39417
2.433	18.53027
2.4335	21.3501
2.434	15.00549
2.4345	6.54602
2.435	1.3092
2.4355	-7.75452
2.436	-15.20691
2.4365	-16.21399
2.437	-16.61682
2.4375	-17.22107
2.438	-17.32178
2.4385	-6.14319
2.439	-7.04956
2.4395	5.43823
2.44	4.83398
2.4405	2.81982
2.441	2.11487
2.4415	0.10071
2.442	-2.81982
2.4425	-7.85522
2.443	-7.45239
2.4435	-10.57434
2.444	-12.89062
2.4445	-11.58142
2.445	-10.77576
2.4455	-10.57434
2.446	-12.99133
2.4465	-9.36584
2.447	-9.66797
2.4475	-10.37292
2.448	-0.30212
2.4485	12.99133
2.449	22.15576
2.4495	28.9032
2.45	35.65063
2.4505	38.77258
2.451	36.35559
2.4515	40.48462
2.452	40.38391
2.4525	42.29736
2.453	34.94568
2.4535	25.177
2.454	17.22107
2.4545	6.84814
2.455	2.5177
2.4555	0.40283
2.456	1.2085
2.4565	-8.66089
2.457	1.91345
2.4575	3.42407
2.458	-21.04797
2.4585	-40.2832
2.459	-59.01489
2.4595	-65.56091
2.46	-64.45312
2.4605	-64.25171
2.461	-60.72693
2.4615	-49.64905
2.462	-31.72302
2.4625	-12.08496
2.463	1.51062
2.4635	18.32886
2.464	31.11877
2.4645	47.43347
2.465	59.01489
2.4655	74.82605
2.466	83.18481
2.4665	98.59314
2.467	103.125
2.4675	93.0542
2.468	84.89685
2.4685	68.28003
2.469	45.62073
2.4695	40.08179
2.47	23.56567
2.4705	8.45947
2.471	1.3092
2.4715	-2.71912
2.472	4.43115
2.4725	5.84106
2.473	-0.50354
2.4735	7.04956
2.474	5.33752
2.4745	4.22974
2.475	0.10071
2.4755	-8.56018
2.476	-11.58142
2.4765	-8.15735
2.477	-3.62549
2.4775	-4.63257
2.478	-21.24939
2.4785	-51.76392
2.479	-120.44678
2.4795	-190.53955
2.48	-211.48682
2.4805	-220.34912
2.481	-196.27991
2.4815	-148.94714
2.482	-81.37207
2.4825	-4.12903
2.483	61.12976
2.4835	108.86536
2.484	153.78113
2.4845	182.98645
2.485	178.45459
2.4855	164.15405
2.486	133.74023
2.4865	102.52075
2.487	69.28711
2.4875	29.30603
2.488	12.99133
2.4885	-18.22815
2.489	-39.17542
2.4895	-33.83789
2.49	-36.15417
2.4905	-18.22815
2.491	2.41699
2.4915	3.12195
2.492	8.25806
2.4925	7.45239
2.493	10.77576
2.4935	20.44373
2.494	19.63806
2.4945	20.74585
2.495	13.19275
2.4955	20.1416
2.496	13.39417
2.4965	9.16443
2.497	8.8623
2.4975	10.37292
2.498	9.26514
2.4985	9.76868
2.499	13.09204
2.4995	15.1062
2.5	18.12744
2.5005	24.06921
2.501	25.47913
2.5015	25.37842
2.502	24.27063
2.5025	26.08337
2.503	34.74426
2.5035	38.36975
2.504	31.52161
2.5045	32.52869
2.505	26.18408
2.5055	26.68762
2.506	25.177
2.5065	12.5885
2.507	9.97009
2.5075	6.74744
2.508	8.25806
2.5085	10.97717
2.509	12.08496
2.5095	15.00549
2.51	8.7616
2.5105	12.99133
2.511	17.72461
2.5115	18.12744
2.512	18.32886
2.5125	-0.90637
2.513	-40.88745
2.5135	-75.73242
2.514	-88.11951
2.5145	-86.50818
2.515	-78.35083
2.5155	-63.94958
2.516	-50.2533
2.5165	-21.95435
2.517	-12.5885
2.5175	-6.2439
2.518	3.12195
2.5185	-2.31628
2.519	-9.46655
2.5195	-15.40833
2.52	-24.67346
2.5205	-14.60266
2.521	-9.16443
2.5215	-2.41699
2.522	-3.32336
2.5225	5.13611
2.523	30.51453
2.5235	45.41931
2.524	57.70569
2.5245	68.38074
2.525	73.11401
2.5255	71.30127
2.526	69.89136
2.5265	63.24463
2.527	64.65454
2.5275	55.18799
2.528	43.60657
2.5285	42.7002
2.529	27.59399
2.5295	20.54443
2.53	10.27222
2.5305	3.52478
2.531	3.62549
2.5315	-2.21558
2.532	1.2085
2.5325	2.81982
2.533	8.56018
2.5335	11.17859
2.534	8.35876
2.5345	10.87646
2.535	8.45947
2.5355	7.85522
2.536	-0.30212
2.5365	-0.20142
2.537	-1.40991
2.5375	-6.04248
2.538	-7.85522
2.5385	-4.53186
2.539	-0.80566
2.5395	-4.43115
2.54	0
2.5405	1.51062
2.541	-2.81982
2.5415	-25.68054
2.542	-41.4917
2.5425	-61.73401
2.543	-69.58923
2.5435	-77.54517
2.544	-76.33667
2.5445	-71.50269
2.545	-50.55542
2.5455	-35.65063
2.546	-23.66638
2.5465	-4.43115
2.547	13.59558
2.5475	20.44373
2.548	31.11877
2.5485	34.94568
2.549	48.74268
2.5495	51.66321
2.55	57.8064
2.5505	59.82056
2.551	53.37524
2.5515	43.70728
2.552	35.65063
2.5525	24.47205
2.553	19.33594
2.5535	13.49487
2.554	12.28638
2.5545	5.74036
2.555	13.29346
2.5555	15.1062
2.556	21.75293
2.5565	28.60107
2.557	31.21948
2.5575	27.6947
2.558	18.12744
2.5585	11.48071
2.559	4.63257
2.5595	6.54602
2.56	-3.12195
2.5605	-13.19275
2.561	-18.93311
2.5615	-17.92603
2.562	-13.39417
2.5625	-8.45947
2.563	0
2.5635	8.66089
2.564	10.87646
2.5645	16.11328
2.565	24.06921
2.5655	18.02673
2.566	8.8623
2.5665	14.60266
2.567	13.09204
2.5675	14.90479
2.568	12.38708
2.5685	5.33752
2.569	-62.8418
2.5695	-125.18005
2.57	-153.479
2.5705	-160.62927
2.571	-152.87476
2.5715	-128.40271
2.572	-79.35791
2.5725	-19.53735
2.573	29.20532
2.5735	78.85437
2.574	111.58447
2.5745	136.66077
2.575	138.87634
2.5755	129.91333
2.576	117.12341
2.5765	97.78748
2.577	78.25012
2.5775	61.12976
2.578	47.8363
2.5785	22.05505
2.579	12.5885
2.5795	8.8623
2.58	9.16443
2.5805	18.73169
2.581	31.62231
2.5815	23.8678
2.582	18.93311
2.5825	16.41541
2.583	13.39417
2.5835	9.46655
2.584	4.63257
2.5845	-4.93469
2.585	-8.05664
2.5855	-4.83398
2.586	-1.81274
2.5865	-5.84106
2.587	-4.22974
2.5875	-1.10779
2.588	10.17151
2.5885	9.46655
2.589	7.5531
2.5895	6.74744
2.59	6.04248
2.5905	-8.8623
2.591	-43.20374
2.5915	-64.55383
2.592	-73.21472
2.5925	-75.93384
2.593	-69.1864
2.5935	-60.72693
2.594	-37.56409
2.5945	-13.39417
2.595	6.3446
2.5955	21.55151
2.596	35.34851
2.5965	52.56958
2.597	67.17224
2.5975	78.95508
2.598	89.328
2.5985	84.79614
2.599	77.34375
2.5995	65.3595
2.6	45.2179
2.6005	22.05505
2.601	5.84106
2.6015	4.12903
2.602	8.8623
2.6025	4.22974
2.603	5.53894
2.6035	5.43823
2.604	4.12903
2.6045	16.91895
2.605	22.76001
2.6055	19.73877
2.606	15.30762
2.6065	12.08496
2.607	6.04248
2.6075	2.01416
2.608	6.3446
2.6085	4.12903
2.609	-7.25098
2.6095	-1.61133
2.61	-5.33752
2.6105	-5.74036
2.611	-3.62549
2.6115	-1.2085
2.612	6.74744
2.6125	3.7262
2.613	11.88354
2.6135	12.28638
2.614	16.61682
2.6145	19.94019
2.615	13.19275
2.6155	15.1062
2.616	16.3147
2.6165	16.61682
2.617	16.41541
2.6175	16.41541
2.618	11.2793
2.6185	7.25098
2.619	-2.41699
2.6195	6.3446
2.62	3.32336
2.6205	3.8269
2.621	-2.01416
2.6215	0.90637
2.622	-9.86938
2.6225	-12.5885
2.623	-8.05664
2.6235	-5.63965
2.624	-1.2085
2.6245	-1.3092
2.625	-4.93469
2.6255	-22.45789
2.626	-39.47754
2.6265	-53.57666
2.627	-66.76941
2.6275	-105.74341
2.628	-139.68201
2.6285	-149.14856
2.629	-139.27917
2.6295	-110.77881
2.63	-81.57349
2.6305	-57.70569
2.631	-28.39966
2.6315	-7.5531
2.632	24.87488
2.6325	56.49719
2.633	82.07703
2.6335	116.61987
2.634	124.77722
2.6345	125.48218
2.635	129.81262
2.6355	125.98572
2.636	99.19739
2.6365	73.61755
2.637	53.87878
2.6375	41.79382
2.638	41.59241
2.6385	42.59949
2.639	46.32568
2.6395	45.3186
2.64	34.84497
2.6405	24.06921
2.641	13.59558
2.6415	15.00549
2.642	11.78284
2.6425	13.19275
2.643	12.18567
2.6435	4.02832
2.644	-3.62549
2.6445	-7.75452
2.645	3.42407
2.6455	9.56726
2.646	9.06372
2.6465	7.15027
2.647	8.25806
2.6475	6.84814
2.648	11.98425
2.6485	10.47363
2.649	5.33752
2.6495	10.0708
2.65	2.71912
2.6505	5.74036
2.651	3.22266
2.6515	3.8269
2.652	2.92053
2.6525	4.33044
2.653	2.81982
2.6535	-2.71912
2.654	-14.40125
2.6545	-15.60974
2.655	-21.45081
2.6555	-21.3501
2.656	-29.30603
2.6565	-28.50037
2.657	-26.58691
2.6575	-25.47913
2.658	-18.53027
2.6585	-12.78992
2.659	-0.70496
2.6595	2.11487
2.66	4.33044
2.6605	10.57434
2.661	20.44373
2.6615	20.44373
2.662	21.75293
2.6625	21.95435
2.663	25.07629
2.6635	27.49329
2.664	27.49329
2.6645	-4.53186
2.665	-84.89685
2.6655	-138.87634
2.666	-159.32007
2.6665	-164.65759
2.667	-162.64343
2.6675	-124.97864
2.668	-65.3595
2.6685	7.25098
2.669	56.5979
2.6695	100.30518
2.67	127.39563
2.6705	147.94006
2.671	144.71741
2.6715	113.59863
2.672	90.5365
2.6725	66.06445
2.673	37.86621
2.6735	19.23523
2.674	1.2085
2.6745	-21.24939
2.675	-24.87488
2.6755	-20.04089
2.676	-5.94177
2.6765	11.48071
2.677	34.84497
2.6775	42.49878
2.678	54.68445
2.6785	48.23914
2.679	48.23914
2.6795	57.50427
2.68	57.9071
2.6805	54.78516
2.681	47.53418
2.6815	40.68604
2.682	27.49329
2.6825	12.48779
2.683	-1.10779
2.6835	-8.15735
2.684	-12.38708
2.6845	-15.50903
2.685	-17.52319
2.6855	-21.45081
2.686	-20.04089
2.6865	-9.97009
2.687	-10.17151
2.6875	-9.76868
2.688	-3.02124
2.6885	6.64673
2.689	8.8623
2.6895	8.7616
2.69	14.09912
2.6905	13.49487
2.691	12.18567
2.6915	12.78992
2.692	11.88354
2.6925	11.38
2.693	10.57434
2.6935	4.73328
2.694	6.74744
2.6945	10.47363
2.695	0.10071
2.6955	-32.22656
2.696	-56.5979
2.6965	-67.07153
2.697	-73.11401
2.6975	-68.88428
2.698	-54.78516
2.6985	-31.01807
2.699	1.3092
2.6995	22.6593
2.7	23.76709
2.7005	15.1062
2.701	10.47363
2.7015	11.88354
2.702	-0.50354
2.7025	3.02124
2.703	-3.8269
2.7035	-10.47363
2.704	-3.42407
2.7045	-11.07788
2.705	-13.99841
2.7055	-6.94885
2.706	0.20142
2.7065	14.50195
2.707	34.24072
2.7075	46.5271
2.708	61.73401
2.7085	73.81897
2.709	68.28003
2.7095	66.26587
2.71	54.38232
2.7105	43.80798
2.711	34.14001
2.7115	28.70178
2.712	19.94019
2.7125	17.52319
2.713	13.39417
2.7135	19.13452
2.714	28.60107
2.7145	30.01099
2.715	35.44922
2.7155	34.34143
2.716	24.67346
2.7165	17.32178
2.717	12.78992
2.7175	16.01257
2.718	11.38
2.7185	7.95593
2.719	-2.81982
2.7195	-8.96301
2.72	-12.08496
2.7205	-16.51611
2.721	-24.97559
2.7215	-28.80249
2.722	-25.88196
2.7225	-23.66638
2.723	-21.24939
2.7235	-26.78833
2.724	-23.8678
2.7245	-20.74585
2.725	-18.63098
2.7255	-19.23523
2.726	-18.42957
2.7265	-13.29346
2.727	-8.7616
2.7275	-7.65381
2.728	-5.53894
2.7285	3.42407
2.729	9.97009
2.7295	6.74744
2.73	8.8623
2.7305	11.98425
2.731	12.48779
2.7315	14.40125
2.732	10.97717
2.7325	10.17151
2.733	10.47363
2.7335	6.54602
2.734	7.75452
2.7345	5.53894
2.735	3.42407
2.7355	5.94177
2.736	11.58142
2.7365	12.99133
2.737	11.07788
2.7375	15.00549
2.738	12.08496
2.7385	16.01257
2.739	17.22107
2.7395	10.0708
2.74	-0.70496
2.7405	-14.80408
2.741	-29.20532
2.7415	-37.56409
2.742	-43.00232
2.7425	-46.22498
2.743	-38.57117
2.7435	-33.03223
2.744	-25.78125
2.7445	-19.43665
2.745	-12.89062
2.7455	-2.81982
2.746	6.14319
2.7465	-8.56018
2.747	-33.53577
2.7475	-49.0448
2.748	-42.59949
2.7485	-33.33435
2.749	-0.30212
2.7495	30.81665
2.75	69.79065
2.7505	101.51367
2.751	112.39014
2.7515	127.19421
2.752	129.40979
2.7525	121.45386
2.753	99.19739
2.7535	79.05579
2.754	55.18799
2.7545	31.52161
2.755	17.6239
2.7555	-2.01416
2.756	-13.29346
2.7565	-19.13452
2.757	-12.68921
2.7575	-6.84814
2.758	2.92053
2.7585	1.2085
2.759	-1.00708
2.7595	-35.85205
2.76	-105.03845
2.7605	-146.32874
2.761	-168.88733
2.7615	-165.46326
2.762	-152.27051
2.7625	-102.92358
2.763	-54.38232
2.7635	4.02832
2.764	52.67029
2.7645	83.08411
2.765	110.17456
2.7655	121.25244
2.766	109.77173
2.7665	100.10376
2.767	81.87561
2.7675	57.10144
2.768	43.60657
2.7685	33.33435
2.769	21.04797
2.7695	6.64673
2.77	0.90637
2.7705	0.80566
2.771	3.32336
2.7715	22.96143
2.772	33.13293
2.7725	29.40674
2.773	18.63098
2.7735	15.50903
2.774	9.86938
2.7745	9.26514
2.775	14.19983
2.7755	10.0708
2.776	7.75452
2.7765	2.81982
2.777	3.12195
2.7775	7.95593
2.778	18.12744
2.7785	18.8324
2.779	16.81824
2.7795	16.21399
2.78	24.77417
2.7805	28.09753
2.781	29.80957
2.7815	22.86072
2.782	17.92603
2.7825	-10.17151
2.783	-29.30603
2.7835	-47.63489
2.784	-65.96375
2.7845	-87.11243
2.785	-94.2627
2.7855	-91.745
2.786	-88.32092
2.7865	-81.37207
2.787	-61.43188
2.7875	-37.06055
2.788	-13.19275
2.7885	10.87646
2.789	27.29187
2.7895	53.97949
2.79	66.6687
2.7905	52.97241
2.791	40.08179
2.7915	29.10461
2.792	21.24939
2.7925	23.8678
2.793	42.29736
2.7935	48.94409
2.794	42.19666
2.7945	19.23523
2.795	10.37292
2.7955	7.65381
2.796	-2.21558
2.7965	12.5885
2.797	19.83948
2.7975	19.43665
2.798	22.55859
2.7985	21.45081
2.799	28.39966
2.7995	10.97717
2.8	5.13611
2.8005	7.65381
2.801	17.42249
2.8015	30.41382
2.802	38.36975
2.8025	37.86621
2.803	35.95276
2.8035	27.59399
2.804	23.96851
2.8045	6.2439
2.805	5.33752
2.8055	1.10779
2.806	8.25806
2.8065	6.84814
2.807	7.45239
2.8075	0.80566
2.808	7.15027
2.8085	-0.60425
2.809	-14.90479
2.8095	-10.47363
2.81	-11.48071
2.8105	-10.97717
2.811	-7.5531
2.8115	-9.16443
2.812	0.10071
2.8125	9.56726
2.813	8.56018
2.8135	13.29346
2.814	19.13452
2.8145	16.11328
2.815	13.39417
2.8155	14.90479
2.816	12.5885
2.8165	11.78284
2.817	7.35168
2.8175	6.54602
2.818	10.17151
2.8185	7.75452
2.819	5.33752
2.8195	9.97009
2.82	11.78284
2.8205	14.90479
2.821	16.01257
2.8215	15.81116
2.822	14.50195
2.8225	15.81116
2.823	9.26514
2.8235	5.53894
2.824	10.37292
2.8245	12.99133
2.825	4.93469
2.8255	1.71204
2.826	-3.12195
2.8265	-0.30212
2.827	3.12195
2.8275	-4.83398
2.828	-2.81982
2.8285	6.74744
2.829	-5.53894
2.8295	-1.10779
2.83	-4.63257
2.8305	-7.65381
2.831	-4.73328
2.8315	-3.32336
2.832	-0.90637
2.8325	-0.90637
2.833	0.60425
2.8335	-2.92053
2.834	-3.42407
2.8345	-6.44531
2.835	-14.90479
2.8355	-21.24939
2.836	-20.54443
2.8365	-29.70886
2.837	-27.89612
2.8375	-35.54993
2.838	-19.33594
2.8385	-18.02673
2.839	-16.61682
2.8395	-11.48071
2.84	-9.16443
2.8405	2.81982
2.841	13.797
2.8415	11.2793
2.842	17.6239
2.8425	22.25647
2.843	29.20532
2.8435	30.01099
2.844	33.53577
2.8445	42.39807
2.845	38.16833
2.8455	27.09045
2.846	22.35718
2.8465	19.23523
2.847	12.78992
2.8475	0.40283
2.848	-4.02832
2.8485	-10.87646
2.849	-18.73169
2.8495	-19.94019
2.85	-15.40833
2.8505	-18.73169
2.851	-22.86072
2.8515	-26.28479
2.852	-31.32019
2.8525	-31.82373
2.853	-22.35718
2.8535	-18.12744
2.854	-51.15967
2.8545	-123.66943
2.855	-178.15247
2.8555	-211.08398
2.856	-208.86841
2.8565	-192.453
2.857	-143.91174
2.8575	-73.61755
2.858	4.02832
2.8585	32.93152
2.859	48.13843
2.8595	75.32959
2.86	95.5719
2.8605	112.39014
2.861	124.27368
2.8615	142.90466
2.862	159.32007
2.8625	171.30432
2.863	180.06592
2.8635	170.90149
2.864	145.9259
2.8645	121.75598
2.865	101.01013
2.8655	83.28552
2.866	74.2218
2.8665	62.9425
2.867	33.13293
2.8675	1.00708
2.868	-19.94019
2.8685	-8.96301
2.869	6.84814
2.8695	22.15576
2.87	27.49329
2.8705	31.32019
2.871	31.62231
2.8715	20.34302
2.872	15.1062
2.8725	9.97009
2.873	12.68921
2.8735	9.76868
2.874	1.10779
2.8745	-1.81274
2.875	-3.42407
2.8755	-8.35876
2.876	-11.98425
2.8765	-11.68213
2.877	-8.8623
2.8775	1.00708
2.878	6.44531
2.8785	5.0354
2.879	11.07788
2.8795	14.70337
2.88	12.78992
2.8805	12.28638
2.881	15.30762
2.8815	13.19275
2.882	15.60974
2.8825	15.91187
2.883	18.53027
2.8835	16.51611
2.884	7.65381
2.8845	1.81274
2.885	-4.73328
2.8855	-5.63965
2.886	-7.85522
2.8865	-17.01965
2.887	-22.35718
2.8875	-30.91736
2.888	-42.29736
2.8885	-39.57825
2.889	-41.4917
2.8895	-38.26904
2.89	-28.19824
2.8905	-23.26355
2.891	-23.66638
2.8915	-11.58142
2.892	-11.38
2.8925	-6.14319
2.893	-0.10071
2.8935	-3.32336
2.894	-2.61841
2.8945	5.23682
2.895	2.31628
2.8955	5.84106
2.896	-22.35718
2.8965	-35.14709
2.897	-52.16675
2.8975	-57.8064
2.898	-50.95825
2.8985	-39.77966
2.899	-24.77417
2.8995	-1.2085
2.9	21.65222
2.9005	34.74426
2.901	51.15967
2.9015	50.45471
2.902	61.12976
2.9025	59.61914
2.903	51.5625
2.9035	45.01648
2.904	34.64355
2.9045	29.20532
2.905	15.71045
2.9055	3.22266
2.906	6.74744
2.9065	6.54602
2.907	16.61682
2.9075	15.20691
2.908	26.68762
2.9085	21.75293
2.909	20.04089
2.9095	16.51611
2.91	8.56018
2.9105	7.25098
2.911	12.18567
2.9115	12.68921
2.912	18.02673
2.9125	19.53735
2.913	14.90479
2.9135	21.24939
2.914	12.18567
2.9145	8.8623
2.915	0.30212
2.9155	4.83398
2.916	0.70496
2.9165	-0.80566
2.917	-0.20142
2.9175	-3.12195
2.918	2.41699
2.9185	-1.3092
2.919	-1.2085
2.9195	-5.43823
2.92	-6.54602
2.9205	-10.77576
2.921	-12.18567
2.9215	-6.74744
2.922	-2.41699
2.9225	0.70496
2.923	4.33044
2.9235	-3.22266
2.924	-1.00708
2.9245	-9.97009
2.925	-24.27063
2.9255	-26.28479
2.926	-32.12585
2.9265	-32.83081
2.927	-23.26355
2.9275	-16.21399
2.928	-7.75452
2.9285	-0.40283
2.929	11.58142
2.9295	23.76709
2.93	20.84656
2.9305	27.6947
2.931	27.09045
2.9315	30.91736
2.932	25.47913
2.9325	25.88196
2.933	33.13293
2.9335	38.87329
2.934	39.17542
2.9345	36.85913
2.935	40.68604
2.9355	36.65771
2.936	27.39258
2.9365	28.80249
2.937	22.25647
2.9375	18.32886
2.938	10.0708
2.9385	3.7262
2.939	11.78284
2.9395	10.37292
2.94	12.38708
2.9405	14.50195
2.941	12.38708
2.9415	12.18567
2.942	15.20691
2.9425	11.68213
2.943	7.65381
2.9435	1.81274
2.944	-15.30762
2.9445	-42.49878
2.945	-67.27295
2.9455	-92.44995
2.946	-88.11951
2.9465	-88.32092
2.947	-84.69543
2.9475	-67.77649
2.948	-56.90002
2.9485	-33.9386
2.949	-13.39417
2.9495	3.92761
2.95	23.16284
2.9505	51.46179
2.951	70.49561
2.9515	91.64429
2.952	108.36182
2.9525	123.56873
2.953	124.87793
2.9535	114.70642
2.954	100.30518
2.9545	82.27844
2.955	54.0802
2.9555	21.95435
2.956	6.74744
2.9565	-18.53027
2.957	-29.91028
2.9575	-27.89612
2.958	-25.57983
2.9585	-10.87646
2.959	4.22974
2.9595	16.01257
2.96	13.89771
2.9605	22.45789
2.961	-3.32336
2.9615	-72.00623
2.962	-126.69067
2.9625	-153.27759
2.963	-160.9314
2.9635	-147.33582
2.964	-113.29651
2.9645	-67.57507
2.965	-4.12903
2.9655	40.08179
2.966	83.08411
2.9665	107.95898
2.967	119.03687
2.9675	118.13049
2.968	106.04553
2.9685	90.03296
2.969	62.53967
2.9695	43.70728
2.97	28.9032
2.9705	10.77576
2.971	-24.16992
2.9715	-35.44922
2.972	-43.40515
2.9725	-39.67896
2.973	-22.45789
2.9735	-7.25098
2.974	8.35876
2.9745	6.2439
2.975	9.06372
2.9755	21.45081
2.976	30.11169
2.9765	38.57117
2.977	42.59949
2.9775	32.93152
2.978	29.50745
2.9785	29.60815
2.979	30.81665
2.9795	23.96851
2.98	21.45081
2.9805	19.23523
2.981	25.37842
2.9815	23.76709
2.982	15.30762
2.9825	9.46655
2.983	7.65381
2.9835	7.04956
2.984	2.92053
2.9845	2.81982
2.985	5.63965
2.9855	3.92761
2.986	7.85522
2.9865	12.68921
2.987	1.61133
2.9875	-0.70496
2.988	7.15027
2.9885	5.43823
2.989	3.02124
2.9895	2.31628
2.99	2.92053
2.9905	1.51062
2.991	2.01416
2.9915	1.71204
2.992	-4.53186
2.9925	-0.50354
2.993	-0.70496
2.9935	-3.22266
2.994	-3.92761
2.9945	-4.63257
2.995	-1.91345
2.9955	-5.33752
2.996	1.00708
2.9965	-0.80566
2.997	2.71912
2.9975	-0.20142
2.998	0.90637
2.9985	-2.01416
2.999	-5.23682
2.9995	-11.07788
3	-10.87646
3.0005	-4.43115
3.001	-5.63965
3.0015	-4.83398
3.002	-1.71204
3.0025	3.02124
3.003	5.84106
3.0035	10.47363
3.004	6.14319
3.0045	8.25806
3.005	8.25806
3.0055	9.26514
3.006	9.56726
3.0065	8.66089
3.007	4.22974
3.0075	4.93469
3.008	3.92761
3.0085	6.94885
3.009	2.11487
3.0095	1.51062
3.01	2.81982
3.0105	0
3.011	-4.93469
3.0115	-7.04956
3.012	-47.13135
3.0125	-77.44446
3.013	-104.4342
3.0135	-126.28784
3.014	-134.74731
3.0145	-118.43262
3.015	-89.12659
3.0155	-57.00073
3.016	-11.17859
3.0165	30.71594
3.017	67.97791
3.0175	96.37756
3.018	112.59155
3.0185	114.4043
3.019	97.98889
3.0195	71.30127
3.02	42.59949
3.0205	14.90479
3.021	-23.56567
3.0215	-42.39807
3.022	-48.23914
3.0225	-53.97949
3.023	-47.43347
3.0235	-46.5271
3.024	-32.7301
3.0245	-18.22815
3.025	5.84106
3.0255	27.19116
3.026	42.59949
3.0265	63.24463
3.027	85.29968
3.0275	93.0542
3.028	102.92358
3.0285	102.72217
3.029	94.16199
3.0295	80.26428
3.03	68.28003
3.0305	46.62781
3.031	32.7301
3.0315	12.48779
3.032	1.71204
3.0325	-9.06372
3.033	-16.01257
3.0335	-3.7262
3.034	2.01416
3.0345	10.77576
3.035	12.38708
3.0355	7.45239
3.036	8.35876
3.0365	6.84814
3.037	8.8623
3.0375	9.97009
3.038	7.5531
3.0385	11.17859
3.039	8.8623
3.0395	5.63965
3.04	5.94177
3.0405	-4.63257
3.041	-15.1062
3.0415	-20.84656
3.042	-27.29187
3.0425	-31.82373
3.043	-33.13293
3.0435	-35.2478
3.044	-33.23364
3.0445	-27.6947
3.045	-21.04797
3.0455	-11.58142
3.046	-4.93469
3.0465	5.33752
3.047	9.66797
3.0475	16.21399
3.048	26.78833
3.0485	32.32727
3.049	40.2832
3.0495	36.95984
3.05	30.91736
3.0505	29.50745
3.051	24.67346
3.0515	15.81116
3.052	14.50195
3.0525	6.94885
3.053	3.02124
3.0535	-2.71912
3.054	-13.09204
3.0545	-9.46655
3.055	-5.33752
3.0555	-4.22974
3.056	1.71204
3.0565	7.95593
3.057	11.38
3.0575	11.48071
3.058	11.98425
3.0585	15.91187
3.059	8.15735
3.0595	10.37292
3.06	13.797
3.0605	19.43665
3.061	15.60974
3.0615	11.38
3.062	10.57434
3.0625	6.84814
3.063	1.61133
3.0635	-11.38
3.064	-9.06372
3.0645	-8.7616
3.065	-53.97949
3.0655	-153.479
3.066	-231.32629
3.0665	-265.66772
3.067	-267.37976
3.0675	-234.95178
3.068	-190.64026
3.0685	-124.67651
3.069	-42.19666
3.0695	20.44373
3.07	74.62463
3.0705	120.95032
3.071	138.17139
3.0715	149.34998
3.072	149.14856
3.0725	133.63953
3.073	112.59155
3.0735	105.6427
3.074	99.60022
3.0745	81.67419
3.075	45.01648
3.0755	29.60815
3.076	27.89612
3.0765	35.44922
3.077	58.51135
3.0775	73.51685
3.078	73.91968
3.0785	64.55383
3.079	55.3894
3.0795	52.06604
3.08	54.28162
3.0805	48.13843
3.081	50.15259
3.0815	35.2478
3.082	36.85913
3.0825	25.78125
3.083	22.45789
3.0835	12.38708
3.084	8.56018
3.0845	7.85522
3.085	10.57434
3.0855	9.86938
3.086	9.36584
3.0865	11.68213
3.087	9.86938
3.0875	8.7616
3.088	7.35168
3.0885	8.35876
3.089	11.17859
3.0895	3.92761
3.09	4.12903
3.0905	-7.04956
3.091	-4.73328
3.0915	-8.35876
3.092	-5.84106
3.0925	-11.88354
3.093	2.01416
3.0935	0.40283
3.094	5.33752
3.0945	6.94885
3.095	5.53894
3.0955	8.66089
3.096	7.15027
3.0965	-1.3092
3.097	2.01416
3.0975	-20.84656
3.098	-33.53577
3.0985	-77.34375
3.099	-119.54041
3.0995	-146.63086
3.1	-152.67334
3.1005	-144.41528
3.101	-116.51917
3.1015	-69.28711
3.102	-23.16284
3.1025	28.9032
3.103	73.71826
3.1035	96.17615
3.104	121.15173
3.1045	135.25085
3.105	133.43811
3.1055	103.02429
3.106	75.22888
3.1065	52.26746
3.107	24.77417
3.1075	-1.81274
3.108	-22.25647
3.1085	-16.3147
3.109	-9.06372
3.1095	3.8269
3.11	14.19983
3.1105	19.83948
3.111	27.19116
3.1115	50.05188
3.112	57.50427
3.1125	52.56958
3.113	49.24622
3.1135	35.54993
3.114	22.76001
3.1145	2.71912
3.115	-10.97717
3.1155	-13.19275
3.116	-20.04089
3.1165	-7.75452
3.117	-0.70496
3.1175	4.83398
3.118	-1.3092
3.1185	-3.02124
3.119	-4.43115
3.1195	-5.23682
3.12	-7.75452
3.1205	-5.74036
3.121	0.30212
3.1215	-1.81274
3.122	-2.81982
3.1225	3.32336
3.123	7.65381
3.1235	-4.12903
3.124	-25.37842
3.1245	-31.82373
3.125	-41.59241
3.1255	-36.35559
3.126	-34.44214
3.1265	-32.42798
3.127	-24.06921
3.1275	-15.60974
3.128	-8.35876
3.1285	-11.38
3.129	-8.66089
3.1295	-11.78284
3.13	1.2085
3.1305	7.04956
3.131	10.47363
3.1315	7.75452
3.132	14.50195
3.1325	17.82532
3.133	14.90479
3.1335	13.69629
3.134	20.74585
3.1345	24.16992
3.135	28.9032
3.1355	31.11877
3.136	41.08887
3.1365	42.09595
3.137	47.33276
3.1375	41.08887
3.138	37.46338
3.1385	35.54993
3.139	33.53577
3.1395	30.81665
3.14	21.95435
3.1405	4.12903
3.141	4.33044
3.1415	-11.48071
3.142	-13.89771
3.1425	-21.85364
3.143	-22.15576
3.1435	-15.50903
3.144	-3.62549
3.1445	7.85522
3.145	12.38708
3.1455	12.68921
3.146	13.09204
3.1465	14.50195
3.147	16.11328
3.1475	28.80249
3.148	25.68054
3.1485	16.51611
3.149	10.47363
3.1495	1.71204
3.15	-0.70496
3.1505	4.83398
3.151	8.7616
3.1515	11.78284
3.152	10.37292
3.1525	18.12744
3.153	7.95593
3.1535	9.97009
3.154	11.58142
3.1545	12.68921
3.155	12.38708
3.1555	10.17151
3.156	7.85522
3.1565	11.17859
3.157	6.54602
3.1575	5.63965
3.158	5.0354
3.1585	-4.93469
3.159	-60.82764
3.1595	-128.10059
3.16	-160.62927
3.1605	-172.91565
3.161	-174.12415
3.1615	-149.95422
3.162	-103.62854
3.1625	-41.4917
3.163	13.59558
3.1635	65.56091
3.164	104.53491
3.1645	131.62537
3.165	137.96997
3.1655	127.79846
3.166	111.68518
3.1665	93.65845
3.167	74.72534
3.1675	58.00781
3.168	44.71436
3.1685	18.42957
3.169	2.92053
3.1695	-1.91345
3.17	0.70496
3.1705	4.93469
3.171	16.91895
3.1715	26.28479
3.172	26.78833
3.1725	26.48621
3.173	6.74744
3.1735	-12.5885
3.174	-31.82373
3.1745	-51.5625
3.175	-69.58923
3.1755	-84.2926
3.176	-88.72375
3.1765	-88.62305
3.177	-78.85437
3.1775	-75.93384
3.178	-63.64746
3.1785	-40.78674
3.179	-26.08337
3.1795	-1.61133
3.18	21.55151
3.1805	41.4917
3.181	77.04163
3.1815	93.85986
3.182	109.57031
3.1825	109.57031
3.183	114.4043
3.1835	104.4342
3.184	93.25562
3.1845	58.00781
3.185	22.45789
3.1855	-9.46655
3.186	-23.26355
3.1865	-21.65222
3.187	-17.6239
3.1875	-2.5177
3.188	16.71753
3.1885	25.27771
3.189	37.36267
3.1895	36.95984
3.19	35.65063
3.1905	36.65771
3.191	28.29895
3.1915	18.02673
3.192	11.07788
3.1925	13.797
3.193	20.54443
3.1935	20.04089
3.194	10.27222
3.1945	-2.31628
3.195	-3.42407
3.1955	-3.92761
3.196	-4.83398
3.1965	-0.50354
3.197	1.71204
3.1975	-3.42407
3.198	-2.61841
3.1985	-1.71204
3.199	2.41699
3.1995	0
3.2	-4.63257
3.2005	-5.84106
3.201	-7.25098
3.2015	-3.7262
3.202	-3.22266
3.2025	4.73328
3.203	1.91345
3.2035	-1.61133
3.204	-22.45789
3.2045	-49.34692
3.205	-66.87012
3.2055	-71.40198
3.206	-66.46729
3.2065	-55.59082
3.207	-19.33594
3.2075	-2.11487
3.208	14.19983
3.2085	30.31311
3.209	41.39099
3.2095	47.43347
3.21	57.9071
3.2105	57.10144
3.211	52.06604
3.2115	46.72852
3.212	39.37683
3.2125	36.4563
3.213	20.04089
3.2135	9.66797
3.214	3.22266
3.2145	5.0354
3.215	10.27222
3.2155	20.74585
3.216	14.09912
3.2165	5.0354
3.217	0.80566
3.2175	-3.52478
3.218	-6.84814
3.2185	-2.41699
3.219	-7.65381
3.2195	-8.45947
3.22	-10.0708
3.2205	-11.2793
3.221	-17.01965
3.2215	-14.40125
3.222	-15.40833
3.2225	-10.57434
3.223	-8.8623
3.2235	-14.80408
3.224	-9.66797
3.2245	-5.13611
3.225	-3.52478
3.2255	-45.62073
3.226	-78.85437
3.2265	-86.60889
3.227	-82.47986
3.2275	-67.27295
3.228	-38.57117
3.2285	-0.80566
3.229	32.02515
3.2295	59.21631
3.23	77.948
3.2305	92.44995
3.231	89.63013
3.2315	93.45703
3.232	83.08411
3.2325	70.89844
3.233	56.09436
3.2335	56.09436
3.234	39.47754
3.2345	9.36584
3.235	-10.77576
3.2355	-6.14319
3.236	-4.93469
3.2365	11.07788
3.237	10.57434
3.2375	11.17859
3.238	6.3446
3.2385	12.89062
3.239	20.04089
3.2395	13.99841
3.24	16.61682
3.2405	16.21399
3.241	9.26514
3.2415	8.96301
3.242	6.3446
3.2425	9.36584
3.243	10.17151
3.2435	-2.31628
3.244	-10.17151
3.2445	-8.7616
3.245	-8.7616
3.2455	-3.32336
3.246	-1.81274
3.2465	-0.50354
3.247	7.85522
3.2475	7.85522
3.248	5.84106
3.2485	5.94177
3.249	-2.61841
3.2495	0
3.25	-0.70496
3.2505	0.40283
3.251	7.25098
3.2515	6.44531
3.252	10.0708
3.2525	8.15735
3.253	9.86938
3.2535	-11.58142
3.254	-36.85913
3.2545	-44.0094
3.255	-53.97949
3.2555	-61.83472
3.256	-67.8772
3.2565	-62.8418
3.257	-52.8717
3.2575	-41.69312
3.258	-88.72375
3.2585	-133.43811
3.259	-149.14856
3.2595	-149.85352
3.26	-131.32324
3.2605	-99.49951
3.261	-32.52869
3.2615	43.90869
3.262	104.93774
3.2625	147.53723
3.263	179.15955
3.2635	195.17212
3.264	183.79211
3.2645	166.26892
3.265	133.94165
3.2655	98.79456
3.266	67.77649
3.2665	43.10303
3.267	34.24072
3.2675	11.88354
3.268	-1.51062
3.2685	1.40991
3.269	-0.20142
3.2695	4.63257
3.27	12.48779
3.2705	23.46497
3.271	15.30762
3.2715	15.91187
3.272	7.65381
3.2725	12.28638
3.273	6.74744
3.2735	1.71204
3.274	7.35168
3.2745	5.84106
3.275	3.02124
3.2755	5.74036
3.276	10.0708
3.2765	11.68213
3.277	5.74036
3.2775	0.20142
3.278	5.13611
3.2785	7.75452
3.279	2.81982
3.2795	3.42407
3.28	1.51062
3.2805	1.00708
3.281	-4.73328
3.2815	-5.23682
3.282	-5.84106
3.2825	0.60425
3.283	0.20142
3.2835	10.17151
3.284	11.58142
3.2845	4.02832
3.285	0.10071
3.2855	3.7262
3.286	3.12195
3.2865	6.04248
3.287	4.12903
3.2875	9.56726
3.288	9.26514
3.2885	5.74036
3.289	4.63257
3.2895	10.17151
3.29	4.43115
3.2905	-2.11487
3.291	-13.39417
3.2915	-16.41541
3.292	-20.94727
3.2925	-21.85364
3.293	-29.30603
3.2935	-34.03931
3.294	-22.96143
3.2945	-18.53027
3.295	-16.21399
3.2955	-10.57434
3.296	-9.56726
3.2965	-0.10071
3.297	8.25806
3.2975	17.42249
3.298	27.6947
3.2985	28.39966
3.299	16.3147
3.2995	7.15027
3.3	-8.66089
3.3005	-16.71753
3.301	-25.47913
3.3015	-35.75134
3.302	-62.9425
3.3025	-85.09827
3.303	-95.26978
3.3035	-95.47119
3.304	-72.61047
3.3045	-46.22498
3.305	-3.22266
3.3055	31.72302
3.306	61.43188
3.3065	77.84729
3.307	94.2627
3.3075	95.67261
3.308	109.87244
3.3085	89.42871
3.309	62.23755
3.3095	27.6947
3.31	8.45947
3.3105	-15.50903
3.311	-28.50037
3.3115	-35.95276
3.312	-34.14001
3.3125	-19.94019
3.313	-2.41699
3.3135	19.13452
3.314	34.24072
3.3145	44.11011
3.315	46.5271
3.3155	42.90161
3.316	31.52161
3.3165	36.05347
3.317	34.94568
3.3175	39.17542
3.318	36.4563
3.3185	11.17859
3.319	10.87646
3.3195	9.76868
3.32	9.06372
3.3205	11.68213
3.321	13.49487
3.3215	8.35876
3.322	4.22974
3.3225	2.92053
3.323	5.74036
3.3235	6.84814
3.324	3.42407
3.3245	11.2793
3.325	17.32178
3.3255	30.11169
3.326	28.09753
3.3265	12.38708
3.327	-11.48071
3.3275	-43.60657
3.328	-64.95667
3.3285	-74.32251
3.329	-76.03455
3.3295	-70.19348
3.33	-59.01489
3.3305	-52.26746
3.331	-31.52161
3.3315	-9.56726
3.332	7.95593
3.3325	30.31311
3.333	42.39807
3.3335	55.2887
3.334	60.82764
3.3345	71.7041
3.335	91.64429
3.3355	97.98889
3.336	89.02588
3.3365	79.45862
3.337	73.91968
3.3375	58.71277
3.338	51.15967
3.3385	40.48462
3.339	24.57275
3.3395	7.75452
3.34	-4.33044
3.3405	-4.73328
3.341	6.64673
3.3415	3.7262
3.342	-0.90637
3.3425	3.42407
3.343	2.81982
3.3435	-2.61841
3.344	-7.15027
3.3445	-10.47363
3.345	-15.00549
3.3455	-15.40833
3.346	-14.30054
3.3465	-15.1062
3.347	-9.66797
3.3475	-9.66797
3.348	-0.20142
3.3485	-3.52478
3.349	-6.44531
3.3495	-4.63257
3.35	-0.90637
3.3505	6.44531
3.351	6.04248
3.3515	8.35876
3.352	15.81116
3.3525	14.40125
3.353	15.71045
3.3535	13.09204
3.354	17.6239
3.3545	9.56726
3.355	2.61841
3.3555	5.33752
3.356	-11.17859
3.3565	-103.125
3.357	-198.29407
3.3575	-241.19568
3.358	-249.45374
3.3585	-235.75745
3.359	-194.46716
3.3595	-111.68518
3.36	-27.29187
3.3605	49.14551
3.361	116.72058
3.3615	171.10291
3.362	198.19336
3.3625	206.25
3.363	191.44592
3.3635	172.91565
3.364	145.32166
3.3645	110.07385
3.365	79.15649
3.3655	44.51294
3.366	7.85522
3.3665	-3.32336
3.367	-8.35876
3.3675	0.60425
3.368	21.14868
3.3685	41.4917
3.369	42.7002
3.3695	45.62073
3.37	42.59949
3.3705	38.87329
3.371	34.84497
3.3715	33.63647
3.372	27.29187
3.3725	22.25647
3.373	11.2793
3.3735	8.56018
3.374	10.17151
3.3745	9.76868
3.375	10.77576
3.3755	9.46655
3.376	5.23682
3.3765	-3.52478
3.377	-9.66797
3.3775	-6.84814
3.378	-8.15735
3.3785	-1.81274
3.379	-1.2085
3.3795	-1.00708
3.38	-3.12195
3.3805	0.80566
3.381	-1.81274
3.3815	-7.35168
3.382	-10.97717
3.3825	-16.41541
3.383	-19.23523
3.3835	-17.92603
3.384	-22.05505
3.3845	-21.65222
3.385	-25.98267
3.3855	-19.83948
3.386	-22.96143
3.3865	-18.22815
3.387	-8.05664
3.3875	-12.5885
3.388	-8.35876
3.3885	-19.33594
3.389	-26.3855
3.3895	-30.2124
3.39	-28.80249
3.3905	-37.26196
3.391	-50.354
3.3915	-50.95825
3.392	-58.71277
3.3925	-50.15259
3.393	-45.01648
3.3935	-39.07471
3.394	-20.74585
3.3945	-6.44531
3.395	7.25098
3.3955	20.34302
3.396	40.58533
3.3965	55.2887
3.397	66.06445
3.3975	73.81897
3.398	76.13525
3.3985	75.53101
3.399	70.3949
3.3995	65.86304
3.4	59.01489
3.4005	51.96533
3.401	43.90869
3.4015	14.09912
3.402	-25.68054
3.4025	-53.67737
3.403	-89.22729
3.4035	-123.46802
3.404	-139.07776
3.4045	-144.71741
3.405	-136.56006
3.4055	-111.8866
3.406	-73.11401
3.4065	-32.52869
3.407	1.51062
3.4075	29.50745
3.408	69.1864
3.4085	97.78748
3.409	117.82837
3.4095	130.71899
3.41	130.41687
3.4105	130.8197
3.411	122.46094
3.4115	102.11792
3.412	62.13684
3.4125	26.3855
3.413	9.36584
3.4135	-14.19983
3.414	-31.21948
3.4145	-45.62073
3.415	-59.21631
3.4155	-56.90002
3.416	-42.39807
3.4165	-31.92444
3.417	-31.62231
3.4175	-31.72302
3.418	-19.73877
3.4185	-9.66797
3.419	4.43115
3.4195	9.97009
3.42	20.74585
3.4205	27.59399
3.421	34.54285
3.4215	36.85913
3.422	39.67896
3.4225	43.50586
3.423	46.42639
3.4235	48.03772
3.424	55.59082
3.4245	47.43347
3.425	38.06763
3.4255	20.94727
3.426	8.8623
3.4265	7.04956
3.427	0.80566
3.4275	-3.12195
3.428	-8.15735
3.4285	-3.62549
3.429	-1.61133
3.4295	0.50354
3.43	4.73328
3.4305	14.40125
3.431	19.83948
3.4315	11.88354
3.432	8.7616
3.4325	1.10779
3.433	9.26514
3.4335	12.38708
3.434	11.17859
3.4345	13.09204
3.435	7.75452
3.4355	15.60974
3.436	9.66797
3.4365	11.07788
3.437	4.22974
3.4375	9.56726
3.438	9.86938
3.4385	6.64673
3.439	11.88354
3.4395	14.30054
3.44	13.29346
3.4405	12.28638
3.441	5.0354
3.4415	5.43823
3.442	6.3446
3.4425	-2.11487
3.443	-2.81982
3.4435	-8.7616
3.444	-21.65222
3.4445	-23.8678
3.445	-20.84656
3.4455	-40.38391
3.446	-63.34534
3.4465	-78.14941
3.447	-79.86145
3.4475	-73.81897
3.448	-53.17383
3.4485	-35.54993
3.449	-7.95593
3.4495	19.03381
3.45	35.44922
3.4505	44.21082
3.451	15.20691
3.4515	-70.69702
3.452	-145.52307
3.4525	-170.80078
3.453	-183.28857
3.4535	-166.57104
3.454	-115.81421
3.4545	-36.05347
3.455	39.17542
3.4555	94.46411
3.456	148.94714
3.4565	178.45459
3.457	203.12805
3.4575	209.9762
3.458	191.04309
3.4585	162.64343
3.459	126.48926
3.4595	92.24854
3.46	44.81506
3.4605	9.66797
3.461	-21.14868
3.4615	-26.98975
3.462	-17.72461
3.4625	-12.99133
3.463	-8.66089
3.4635	-1.61133
3.464	4.93469
3.4645	-0.80566
3.465	3.62549
3.4655	10.67505
3.466	17.42249
3.4665	25.57983
3.467	19.13452
3.4675	17.01965
3.468	18.32886
3.4685	15.00549
3.469	12.89062
3.4695	17.22107
3.47	11.78284
3.4705	8.96301
3.471	2.92053
3.4715	3.42407
3.472	4.73328
3.4725	-1.40991
3.473	3.32336
3.4735	3.52478
3.474	-3.92761
3.4745	-7.35168
3.475	-3.02124
3.4755	-2.71912
3.476	1.3092
3.4765	-1.81274
3.477	-24.16992
3.4775	-48.23914
3.478	-60.12268
3.4785	-63.64746
3.479	-68.17932
3.4795	-64.35242
3.48	-55.69153
3.4805	-44.71436
3.481	-24.97559
3.4815	-8.05664
3.482	4.63257
3.4825	10.67505
3.483	26.48621
3.4835	44.11011
3.484	56.09436
3.4845	72.71118
3.485	80.56641
3.4855	72.20764
3.486	51.66321
3.4865	26.88904
3.487	-2.71912
3.4875	-13.19275
3.488	-22.55859
3.4885	-25.78125
3.489	-27.59399
3.4895	-22.25647
3.49	-22.86072
3.4905	-5.33752
3.491	-0.20142
3.4915	14.90479
3.492	21.95435
3.4925	27.6947
3.493	36.95984
3.4935	37.16125
3.494	49.85046
3.4945	54.28162
3.495	59.41772
3.4955	60.72693
3.496	44.21082
3.4965	36.35559
3.497	24.97559
3.4975	18.12744
3.498	9.16443
3.4985	2.61841
3.499	-4.93469
3.4995	-0.40283
3.5	-2.5177
3.5005	9.16443
3.501	17.42249
3.5015	17.22107
3.502	19.73877
3.5025	16.11328
3.503	11.38
3.5035	9.16443
3.504	13.59558
3.5045	4.02832
3.505	4.53186
3.5055	1.61133
3.506	8.7616
3.5065	5.33752
3.507	4.83398
3.5075	9.56726
3.508	11.58142
3.5085	9.46655
3.509	8.35876
3.5095	10.0708
3.51	12.89062
3.5105	7.95593
3.511	9.56726
3.5115	3.62549
3.512	1.10779
3.5125	-28.29895
3.513	-54.18091
3.5135	-71.80481
3.514	-72.00623
3.5145	-72.61047
3.515	-61.53259
3.5155	-41.29028
3.516	-13.09204
3.5165	10.47363
3.517	32.22656
3.5175	38.67188
3.518	54.38232
3.5185	63.54675
3.519	65.46021
3.5195	54.78516
3.52	45.62073
3.5205	33.9386
3.521	24.57275
3.5215	15.40833
3.522	-0.30212
3.5225	-8.8623
3.523	-8.56018
3.5235	-2.21558
3.524	3.8269
3.5245	13.19275
3.525	11.07788
3.5255	9.86938
3.526	15.20691
3.5265	13.49487
3.527	7.95593
3.5275	-0.50354
3.528	-6.74744
3.5285	-11.48071
3.529	-7.95593
3.5295	-3.52478
3.53	-1.2085
3.5305	1.2085
3.531	7.04956
3.5315	2.71912
3.532	3.7262
3.5325	2.11487
3.533	2.71912
3.5335	-1.10779
3.534	-13.797
3.5345	-25.98267
3.535	-23.06213
3.5355	-22.15576
3.536	-26.78833
3.5365	-22.55859
3.537	-19.63806
3.5375	-14.50195
3.538	-9.86938
3.5385	1.00708
3.539	-4.43115
3.5395	2.61841
3.54	0.20142
3.5405	-3.02124
3.541	-9.46655
3.5415	-10.77576
3.542	-14.19983
3.5425	-13.59558
3.543	-17.92603
3.5435	-13.797
3.544	-6.44531
3.5445	-7.75452
3.545	-2.5177
3.5455	3.02124
3.546	14.80408
3.5465	24.67346
3.547	29.00391
3.5475	34.34143
3.548	38.16833
3.5485	37.56409
3.549	41.39099
3.5495	41.18958
3.55	17.52319
3.5505	-11.48071
3.551	-28.09753
3.5515	-39.27612
3.552	-39.88037
3.5525	-48.03772
3.553	-50.354
3.5535	-43.30444
3.554	-34.84497
3.5545	-29.70886
3.555	-13.99841
3.5555	-0.80566
3.556	12.38708
3.5565	32.12585
3.557	40.88745
3.5575	47.13135
3.558	62.43896
3.5585	74.32251
3.559	71.90552
3.5595	65.46021
3.56	49.95117
3.5605	41.18958
3.561	22.05505
3.5615	17.72461
3.562	6.74744
3.5625	-5.63965
3.563	-7.15027
3.5635	4.43115
3.564	12.18567
3.5645	13.29346
3.565	21.55151
3.5655	30.41382
3.566	31.82373
3.5665	33.23364
3.567	35.85205
3.5675	23.26355
3.568	19.43665
3.5685	20.54443
3.569	15.00549
3.5695	4.83398
3.57	1.71204
3.5705	-51.96533
3.571	-123.97156
3.5715	-159.92432
3.572	-179.26025
3.5725	-189.9353
3.573	-210.47974
3.5735	-195.57495
3.574	-158.11157
3.5745	-114.30359
3.575	-82.58057
3.5755	-36.95984
3.576	18.73169
3.5765	58.91418
3.577	97.18323
3.5775	123.16589
3.578	138.17139
3.5785	146.32874
3.579	146.53015
3.5795	132.93457
3.58	106.14624
3.5805	86.10535
3.581	75.93384
3.5815	63.54675
3.582	50.45471
3.5825	52.46887
3.583	55.08728
3.5835	57.8064
3.584	60.92834
3.5845	51.86462
3.585	41.08887
3.5855	31.92444
3.586	29.00391
3.5865	26.68762
3.587	30.61523
3.5875	25.177
3.588	23.8678
3.5885	22.45789
3.589	17.42249
3.5895	10.0708
3.59	13.39417
3.5905	8.05664
3.591	18.53027
3.5915	12.28638
3.592	14.60266
3.5925	9.56726
3.593	8.66089
3.5935	14.90479
3.594	15.30762
3.5945	7.5531
3.595	5.23682
3.5955	7.75452
3.596	12.28638
3.5965	10.77576
3.597	7.04956
3.5975	5.53894
3.598	8.35876
3.5985	4.22974
3.599	6.64673
3.5995	-9.56726
3.6	-23.46497
3.6005	-32.02515
3.601	-33.33435
3.6015	-41.59241
3.602	-36.05347
3.6025	-28.80249
3.603	-22.96143
3.6035	-21.04797
3.604	-16.61682
3.6045	-7.25098
3.605	-0.20142
3.6055	12.38708
3.606	3.32336
3.6065	-26.58691
3.607	-47.43347
3.6075	-58.00781
3.608	-59.21631
3.6085	-42.49878
3.609	-20.24231
3.6095	13.39417
3.61	39.47754
3.6105	50.05188
3.611	61.83472
3.6115	61.43188
3.612	59.82056
3.6125	63.24463
3.613	58.91418
3.6135	47.8363
3.614	31.52161
3.6145	19.73877
3.615	6.74744
3.6155	-19.63806
3.616	-29.10461
3.6165	-35.75134
3.617	-29.00391
3.6175	-18.42957
3.618	-8.05664
3.6185	-9.56726
3.619	-4.12903
3.6195	-4.33044
3.62	-3.52478
3.6205	-4.73328
3.621	3.92761
3.6215	9.86938
3.622	14.50195
3.6225	0
3.623	-20.34302
3.6235	-38.16833
3.624	-41.89453
3.6245	-49.34692
3.625	-51.86462
3.6255	-47.13135
3.626	-37.16125
3.6265	-28.29895
3.627	-16.41541
3.6275	-1.3092
3.628	10.17151
3.6285	21.14868
3.629	38.47046
3.6295	60.4248
3.63	77.84729
3.6305	88.62305
3.631	93.45703
3.6315	94.76624
3.632	89.02588
3.6325	73.51685
3.633	60.22339
3.6335	35.85205
3.634	23.06213
3.6345	10.37292
3.635	-6.54602
3.6355	-5.33752
3.636	-4.53186
3.6365	0.20142
3.637	1.3092
3.6375	3.02124
3.638	13.89771
3.6385	6.3446
3.639	10.87646
3.6395	5.33752
3.64	-3.52478
3.6405	-2.5177
3.641	-6.94885
3.6415	-6.54602
3.642	0.80566
3.6425	1.40991
3.643	2.11487
3.6435	4.33044
3.644	3.7262
3.6445	3.12195
3.645	6.64673
3.6455	0.80566
3.646	2.92053
3.6465	2.92053
3.647	4.33044
3.6475	10.67505
3.648	4.83398
3.6485	-5.84106
3.649	-8.35876
3.6495	-9.76868
3.65	-9.36584
3.6505	-6.74744
3.651	-5.0354
3.6515	2.41699
3.652	3.02124
3.6525	4.22974
3.653	8.66089
3.6535	4.93469
3.654	1.00708
3.6545	-2.21558
3.655	2.11487
3.6555	-1.10779
3.656	-5.0354
3.6565	-3.12195
3.657	0.80566
3.6575	-0.70496
3.658	-0.60425
3.6585	2.81982
3.659	6.14319
3.6595	2.71912
3.66	7.65381
3.6605	6.74744
3.661	7.75452
3.6615	5.13611
3.662	4.63257
3.6625	-2.11487
3.663	-5.53894
3.6635	-7.15027
3.664	0.70496
3.6645	-8.15735
3.665	-18.02673
3.6655	-27.89612
3.666	-29.40674
3.6665	-23.96851
3.667	-13.09204
3.6675	-9.97009
3.668	-8.35876
3.6685	-5.33752
3.669	6.04248
3.6695	15.81116
3.67	23.56567
3.6705	31.11877
3.671	43.80798
3.6715	45.01648
3.672	32.62939
3.6725	-27.29187
3.673	-101.11084
3.6735	-142.90466
3.674	-159.52148
3.6745	-162.34131
3.675	-146.02661
3.6755	-108.96606
3.676	-52.67029
3.6765	-4.93469
3.677	41.29028
3.6775	80.26428
3.678	112.39014
3.6785	124.17297
3.679	120.34607
3.6795	117.32483
3.68	100.30518
3.6805	97.28394
3.681	82.17773
3.6815	78.35083
3.682	54.58374
3.6825	49.0448
3.683	44.51294
3.6835	36.35559
3.684	37.36267
3.6845	40.98816
3.685	44.71436
3.6855	39.37683
3.686	25.177
3.6865	14.19983
3.687	10.47363
3.6875	5.13611
3.688	5.13611
3.6885	4.43115
3.689	1.61133
3.6895	-4.02832
3.69	-3.02124
3.6905	-13.09204
3.691	-14.50195
3.6915	-20.1416
3.692	-56.09436
3.6925	-87.31384
3.693	-97.98889
3.6935	-94.3634
3.694	-84.79614
3.6945	-58.91418
3.695	-33.53577
3.6955	-3.42407
3.696	18.63098
3.6965	41.4917
3.697	46.82922
3.6975	61.02905
3.698	40.98816
3.6985	12.99133
3.699	-18.42957
3.6995	-32.93152
3.7	-47.33276
3.7005	-60.92834
3.701	-66.06445
3.7015	-67.37366
3.702	-49.64905
3.7025	-25.07629
3.703	9.66797
3.7035	37.7655
3.704	62.8418
3.7045	76.23596
3.705	87.51526
3.7055	107.75757
3.706	115.51208
3.7065	108.36182
3.707	73.01331
3.7075	40.88745
3.708	10.77576
3.7085	-6.74744
3.709	-35.44922
3.7095	-59.1156
3.71	-73.91968
3.7105	-80.06287
3.711	-73.41614
3.7115	-48.44055
3.712	-23.46497
3.7125	9.56726
3.713	41.89453
3.7135	63.94958
3.714	73.21472
3.7145	78.75366
3.715	85.60181
3.7155	91.94641
3.716	85.70251
3.7165	66.16516
3.717	36.25488
3.7175	23.16284
3.718	13.39417
3.7185	0.60425
3.719	-11.2793
3.7195	-7.75452
3.72	-6.74744
3.7205	1.40991
3.721	8.15735
3.7215	9.46655
3.722	10.27222
3.7225	13.39417
3.723	5.23682
3.7235	2.11487
3.724	3.7262
3.7245	2.92053
3.725	9.06372
3.7255	10.67505
3.726	13.89771
3.7265	24.67346
3.727	18.42957
3.7275	21.55151
3.728	26.3855
3.7285	23.8678
3.729	19.43665
3.7295	23.16284
3.73	15.60974
3.7305	4.83398
3.731	7.75452
3.7315	4.12903
3.732	5.63965
3.7325	4.33044
3.733	0.50354
3.7335	6.14319
3.734	7.85522
3.7345	7.45239
3.735	8.8623
3.7355	8.15735
3.736	14.90479
3.7365	7.5531
3.737	-0.20142
3.7375	2.81982
3.738	-2.01416
3.7385	-17.22107
3.739	-27.19116
3.7395	-34.03931
3.74	-40.48462
3.7405	-43.90869
3.741	-32.52869
3.7415	-33.83789
3.742	-21.04797
3.7425	-1.91345
3.743	-3.22266
3.7435	6.84814
3.744	15.00549
3.7445	22.25647
3.745	18.22815
3.7455	15.60974
3.746	18.53027
3.7465	12.89062
3.747	-0.30212
3.7475	3.42407
3.748	-7.45239
3.7485	-2.31628
3.749	-4.22974
3.7495	-3.32336
3.75	-4.73328
3.7505	5.84106
3.751	3.22266
3.7515	4.22974
3.752	1.91345
3.7525	1.10779
3.753	0.10071
3.7535	-2.01416
3.754	-2.31628
3.7545	-1.2085
3.755	2.11487
3.7555	7.75452
3.756	10.97717
3.7565	11.48071
3.757	11.68213
3.7575	7.95593
3.758	5.53894
3.7585	2.71912
3.759	2.01416
3.7595	6.44531
3.76	7.04956
3.7605	11.58142
3.761	15.40833
3.7615	11.2793
3.762	9.56726
3.7625	13.59558
3.763	17.01965
3.7635	16.61682
3.764	6.74744
3.7645	-1.81274
3.765	-5.23682
3.7655	-10.37292
3.766	-6.3446
3.7665	-5.0354
3.767	-0.40283
3.7675	-0.80566
3.768	9.86938
3.7685	14.09912
3.769	10.77576
3.7695	15.81116
3.77	18.22815
3.7705	18.12744
3.771	13.99841
3.7715	-41.69312
3.772	-103.93066
3.7725	-145.01953
3.773	-179.15955
3.7735	-202.32239
3.774	-188.22327
3.7745	-160.52856
3.775	-117.42554
3.7755	-63.24463
3.776	-20.34302
3.7765	15.60974
3.777	51.26038
3.7775	69.48853
3.778	82.78198
3.7785	96.57898
3.779	98.89526
3.7795	103.32642
3.78	122.15881
3.7805	130.41687
3.781	120.54749
3.7815	111.38306
3.782	98.0896
3.7825	87.61597
3.783	86.40747
3.7835	83.08411
3.784	75.83313
3.7845	65.05737
3.785	47.33276
3.7855	35.04639
3.786	29.50745
3.7865	25.57983
3.787	22.96143
3.7875	11.68213
3.788	13.99841
3.7885	8.56018
3.789	2.01416
3.7895	-0.80566
3.79	-0.90637
3.7905	-3.32336
3.791	-2.31628
3.7915	5.53894
3.792	7.45239
3.7925	10.57434
3.793	13.99841
3.7935	21.14868
3.794	21.65222
3.7945	18.42957
3.795	23.46497
3.7955	13.59558
3.796	16.01257
3.7965	11.88354
3.797	11.38
3.7975	9.36584
3.798	8.25806
3.7985	9.66797
3.799	3.62549
3.7995	7.35168
3.8	12.99133
3.8005	13.99841
3.801	8.96301
3.8015	8.66089
3.802	4.12903
3.8025	6.2439
3.803	4.73328
3.8035	7.15027
3.804	8.45947
3.8045	12.48779
3.805	6.3446
3.8055	3.8269
3.806	0.60425
3.8065	-6.74744
3.807	-18.8324
3.8075	-23.56567
3.808	-29.20532
3.8085	-24.97559
3.809	-33.03223
3.8095	-30.2124
3.81	-31.92444
3.8105	-29.50745
3.811	-21.95435
3.8115	-12.48779
3.812	-24.77417
3.8125	-39.98108
3.813	-42.90161
3.8135	-46.12427
3.814	-38.06763
3.8145	-11.78284
3.815	13.39417
3.8155	48.44055
3.816	76.33667
3.8165	92.14783
3.817	99.09668
3.8175	99.19739
3.818	84.09119
3.8185	70.99915
3.819	24.57275
3.8195	-31.21948
3.82	-64.95667
3.8205	-89.02588
3.821	-96.67969
3.8215	-93.85986
3.822	-75.32959
3.8225	-40.88745
3.823	-10.77576
3.8235	25.177
3.824	49.64905
3.8245	63.34534
3.825	69.08569
3.8255	66.16516
3.826	67.27295
3.8265	61.93542
3.827	50.15259
3.8275	42.59949
3.828	18.53027
3.8285	-2.01416
3.829	-12.68921
3.8295	-18.63098
3.83	-4.02832
3.8305	0.50354
3.831	-10.87646
3.8315	-19.94019
3.832	-26.68762
3.8325	-31.62231
3.833	-33.53577
3.8335	-40.08179
3.834	-39.88037
3.8345	-32.12585
3.835	-22.6593
3.8355	-21.55151
3.836	-13.49487
3.8365	-10.67505
3.837	-26.18408
3.8375	-45.62073
3.838	-63.14392
3.8385	-69.08569
3.839	-59.41772
3.8395	-43.50586
3.84	-16.61682
3.8405	10.87646
3.841	32.62939
3.8415	57.50427
3.842	67.47437
3.8425	70.99915
3.843	65.05737
3.8435	40.88745
3.844	11.17859
3.8445	-6.84814
3.845	-14.80408
3.8455	-16.71753
3.846	-8.96301
3.8465	-13.19275
3.847	-15.40833
3.8475	-8.96301
3.848	5.63965
3.8485	19.13452
3.849	41.39099
3.8495	57.70569
3.85	75.12817
3.8505	82.17773
3.851	87.51526
3.8515	96.27686
3.852	93.96057
3.8525	85.90393
3.853	67.37366
3.8535	49.14551
3.854	36.75842
3.8545	21.65222
3.855	8.45947
3.8555	-1.2085
3.856	-11.88354
3.8565	-26.28479
3.857	-34.03931
3.8575	-40.68604
3.858	-30.71594
3.8585	-36.95984
3.859	-35.44922
3.8595	-33.33435
3.86	-27.59399
3.8605	-22.6593
3.861	-21.3501
3.8615	-18.12744
3.862	-13.89771
3.8625	-5.53894
3.863	5.43823
3.8635	5.43823
3.864	11.17859
3.8645	15.91187
3.865	14.50195
3.8655	13.59558
3.866	22.45789
3.8665	25.57983
3.867	26.68762
3.8675	21.95435
3.868	19.53735
3.8685	24.67346
3.869	15.40833
3.8695	7.85522
3.87	-6.3446
3.8705	-14.60266
3.871	-18.93311
3.8715	-16.91895
3.872	-51.46179
3.8725	-119.54041
3.873	-159.52148
3.8735	-172.10999
3.874	-168.38379
3.8745	-150.45776
3.875	-112.49084
3.8755	-49.14551
3.876	11.07788
3.8765	63.54675
3.877	103.62854
3.8775	134.84802
3.878	149.45068
3.8785	148.14148
3.879	139.07776
3.8795	120.95032
3.88	97.18323
3.8805	73.31543
3.881	64.45312
