Antonio_Festa_Right_2.c3d  



Time(s):	B_L_bicipite(μV):
0	14.60266
0.0005	10.57434
0.001	-0.50354
0.0015	-3.8269
0.002	-14.60266
0.0025	-19.33594
0.003	-18.8324
0.0035	-23.26355
0.004	-27.29187
0.0045	-30.81665
0.005	-36.55701
0.0055	-38.16833
0.006	-40.98816
0.0065	-38.974
0.007	-42.39807
0.0075	-33.63647
0.008	-24.47205
0.0085	-8.8623
0.009	3.22266
0.0095	14.40125
0.01	13.29346
0.0105	17.6239
0.011	22.6593
0.0115	27.89612
0.012	33.13293
0.0125	32.12585
0.013	30.51453
0.0135	25.98267
0.014	27.19116
0.0145	26.48621
0.015	24.37134
0.0155	18.8324
0.016	20.54443
0.0165	18.73169
0.017	16.11328
0.0175	10.0708
0.018	6.84814
0.0185	2.92053
0.019	4.02832
0.0195	1.2085
0.02	8.8623
0.0205	9.76868
0.021	14.30054
0.0215	10.87646
0.022	13.19275
0.0225	20.24231
0.023	24.57275
0.0235	24.27063
0.024	25.57983
0.0245	19.13452
0.025	21.55151
0.0255	20.04089
0.026	5.94177
0.0265	-8.66089
0.027	-20.24231
0.0275	-25.68054
0.028	-24.97559
0.0285	-24.16992
0.029	-25.177
0.0295	-19.43665
0.03	-11.2793
0.0305	-5.94177
0.031	0.30212
0.0315	10.17151
0.032	13.29346
0.0325	16.71753
0.033	22.15576
0.0335	21.24939
0.034	24.97559
0.0345	35.54993
0.035	43.30444
0.0355	37.7655
0.036	35.85205
0.0365	34.84497
0.037	30.2124
0.0375	25.37842
0.038	12.28638
0.0385	11.98425
0.039	8.05664
0.0395	3.92761
0.04	2.61841
0.0405	2.31628
0.041	7.35168
0.0415	10.17151
0.042	14.90479
0.0425	14.40125
0.043	13.19275
0.0435	11.48071
0.044	14.09912
0.0445	14.30054
0.045	16.81824
0.0455	15.00549
0.046	7.5531
0.0465	12.89062
0.047	7.15027
0.0475	0.40283
0.048	3.52478
0.0485	2.5177
0.049	7.04956
0.0495	3.42407
0.05	7.25098
0.0505	2.92053
0.051	5.63965
0.0515	4.83398
0.052	3.32336
0.0525	2.31628
0.053	0.20142
0.0535	5.0354
0.054	9.66797
0.0545	10.27222
0.055	10.27222
0.0555	12.68921
0.056	11.07788
0.0565	14.80408
0.057	14.60266
0.0575	16.81824
0.058	21.95435
0.0585	15.40833
0.059	15.1062
0.0595	15.40833
0.06	6.44531
0.0605	-5.43823
0.061	-17.12036
0.0615	-12.78992
0.062	-6.2439
0.0625	1.91345
0.063	0.90637
0.0635	-1.2085
0.064	4.83398
0.0645	4.73328
0.065	13.19275
0.0655	15.60974
0.066	11.78284
0.0665	7.45239
0.067	7.35168
0.0675	3.42407
0.068	6.04248
0.0685	-4.93469
0.069	-3.52478
0.0695	-10.17151
0.07	-8.25806
0.0705	-4.53186
0.071	-5.23682
0.0715	0.10071
0.072	0.10071
0.0725	3.62549
0.073	0.40283
0.0735	-0.40283
0.074	1.3092
0.0745	3.42407
0.075	6.3446
0.0755	13.99841
0.076	13.69629
0.0765	11.2793
0.077	10.77576
0.0775	3.32336
0.078	7.85522
0.0785	6.84814
0.079	9.86938
0.0795	10.47363
0.08	5.43823
0.0805	9.26514
0.081	12.78992
0.0815	3.52478
0.082	-6.14319
0.0825	-21.3501
0.083	-36.95984
0.0835	-46.22498
0.084	-48.84338
0.0845	-48.13843
0.085	-46.12427
0.0855	-45.72144
0.086	-37.46338
0.0865	-17.12036
0.087	-5.84106
0.0875	12.38708
0.088	24.47205
0.0885	40.2832
0.089	47.8363
0.0895	59.71985
0.09	62.33826
0.0905	68.68286
0.091	69.48853
0.0915	69.99207
0.092	53.07312
0.0925	37.66479
0.093	28.19824
0.0935	20.44373
0.094	13.49487
0.0945	20.94727
0.095	12.99133
0.0955	11.17859
0.096	10.87646
0.0965	11.17859
0.097	5.23682
0.0975	3.92761
0.098	10.17151
0.0985	18.42957
0.099	15.1062
0.0995	16.51611
0.1	15.00549
0.1005	11.68213
0.101	13.59558
0.1015	19.23523
0.102	18.42957
0.1025	13.39417
0.103	10.47363
0.1035	16.11328
0.104	5.94177
0.1045	7.35168
0.105	6.54602
0.1055	10.0708
0.106	7.35168
0.1065	16.61682
0.107	14.50195
0.1075	17.32178
0.108	21.85364
0.1085	19.73877
0.109	17.22107
0.1095	16.81824
0.11	11.48071
0.1105	8.7616
0.111	0.50354
0.1115	-15.1062
0.112	-24.27063
0.1125	-27.6947
0.113	-23.06213
0.1135	-19.94019
0.114	-18.42957
0.1145	-9.26514
0.115	-13.39417
0.1155	-1.81274
0.116	6.44531
0.1165	13.69629
0.117	18.32886
0.1175	19.53735
0.118	19.73877
0.1185	25.98267
0.119	30.81665
0.1195	35.75134
0.12	41.69312
0.1205	38.87329
0.121	36.05347
0.1215	30.71594
0.122	24.77417
0.1225	14.09912
0.123	1.71204
0.1235	-5.43823
0.124	-9.56726
0.1245	-5.74036
0.125	1.2085
0.1255	-3.52478
0.126	5.13611
0.1265	7.25098
0.127	10.57434
0.1275	13.39417
0.128	10.47363
0.1285	20.04089
0.129	16.81824
0.1295	7.85522
0.13	3.62549
0.1305	5.84106
0.131	0.10071
0.1315	-0.10071
0.132	-3.32336
0.1325	-1.81274
0.133	4.02832
0.1335	3.92761
0.134	9.86938
0.1345	18.63098
0.135	19.94019
0.1355	20.44373
0.136	24.57275
0.1365	18.12744
0.137	10.77576
0.1375	13.09204
0.138	16.3147
0.1385	15.20691
0.139	16.41541
0.1395	12.68921
0.14	14.90479
0.1405	17.12036
0.141	9.26514
0.1415	2.92053
0.142	0.90637
0.1425	-4.53186
0.143	-9.76868
0.1435	-13.797
0.144	-7.15027
0.1445	-8.15735
0.145	-1.51062
0.1455	-0.60425
0.146	-6.2439
0.1465	-0.20142
0.147	2.92053
0.1475	4.02832
0.148	2.5177
0.1485	2.01416
0.149	4.43115
0.1495	5.63965
0.15	2.61841
0.1505	3.02124
0.151	10.17151
0.1515	5.74036
0.152	-0.40283
0.1525	10.97717
0.153	18.22815
0.1535	11.68213
0.154	7.04956
0.1545	4.53186
0.155	8.8623
0.1555	6.64673
0.156	7.5531
0.1565	4.12903
0.157	-7.04956
0.1575	-8.15735
0.158	-6.54602
0.1585	-9.97009
0.159	-11.98425
0.1595	-12.38708
0.16	-9.26514
0.1605	-3.22266
0.161	-3.42407
0.1615	-3.12195
0.162	-8.8623
0.1625	-6.94885
0.163	-2.61841
0.1635	-3.02124
0.164	2.61841
0.1645	6.2439
0.165	9.36584
0.1655	13.69629
0.166	11.88354
0.1665	3.92761
0.167	-1.2085
0.1675	1.81274
0.168	5.74036
0.1685	-4.53186
0.169	-5.63965
0.1695	-2.11487
0.17	1.81274
0.1705	6.94885
0.171	20.74585
0.1715	15.60974
0.172	23.06213
0.1725	30.71594
0.173	31.01807
0.1735	24.77417
0.174	22.45789
0.1745	24.06921
0.175	11.38
0.1755	7.95593
0.176	9.97009
0.1765	7.45239
0.177	2.5177
0.1775	-4.63257
0.178	-21.95435
0.1785	-29.60815
0.179	-41.08887
0.1795	-42.59949
0.18	-49.14551
0.1805	-47.13135
0.181	-41.4917
0.1815	-37.06055
0.182	-31.4209
0.1825	-17.82532
0.183	-19.23523
0.1835	-16.91895
0.184	-13.19275
0.1845	-4.02832
0.185	9.76868
0.1855	11.17859
0.186	17.32178
0.1865	16.91895
0.187	14.30054
0.1875	16.51611
0.188	14.80408
0.1885	12.99133
0.189	11.68213
0.1895	20.44373
0.19	23.8678
0.1905	36.65771
0.191	49.34692
0.1915	47.7356
0.192	48.84338
0.1925	52.26746
0.193	57.20215
0.1935	51.76392
0.194	52.36816
0.1945	39.27612
0.195	36.55701
0.1955	30.51453
0.196	18.93311
0.1965	3.92761
0.197	2.01416
0.1975	-0.10071
0.198	-7.04956
0.1985	-7.95593
0.199	-7.45239
0.1995	-1.3092
0.2	-1.10779
0.2005	1.91345
0.201	3.7262
0.2015	10.67505
0.202	8.8623
0.2025	13.89771
0.203	10.77576
0.2035	14.90479
0.204	16.51611
0.2045	18.93311
0.205	20.1416
0.2055	22.45789
0.206	18.32886
0.2065	18.32886
0.207	10.47363
0.2075	11.2793
0.208	17.01965
0.2085	21.95435
0.209	13.797
0.2095	14.60266
0.21	12.48779
0.2105	3.42407
0.211	-0.80566
0.2115	-11.2793
0.212	-10.17151
0.2125	-7.65381
0.213	-2.01416
0.2135	8.45947
0.214	1.91345
0.2145	1.40991
0.215	0.10071
0.2155	2.5177
0.216	6.64673
0.2165	6.44531
0.217	4.73328
0.2175	-2.5177
0.218	-9.06372
0.2185	-14.50195
0.219	-16.51611
0.2195	-17.12036
0.22	-11.58142
0.2205	-14.40125
0.221	-2.81982
0.2215	-7.5531
0.222	-18.02673
0.2225	-29.30603
0.223	-30.41382
0.2235	-27.09045
0.224	-31.72302
0.2245	-31.21948
0.225	-37.66479
0.2255	-39.67896
0.226	-34.84497
0.2265	-31.32019
0.227	-28.80249
0.2275	-18.22815
0.228	-10.57434
0.2285	3.22266
0.229	3.22266
0.2295	0.10071
0.23	4.33044
0.2305	8.56018
0.231	11.68213
0.2315	18.73169
0.232	24.87488
0.2325	30.41382
0.233	39.07471
0.2335	42.90161
0.234	42.49878
0.2345	39.88037
0.235	28.19824
0.2355	19.63806
0.236	13.99841
0.2365	12.38708
0.237	11.48071
0.2375	5.94177
0.238	9.97009
0.2385	14.80408
0.239	23.56567
0.2395	24.67346
0.24	29.60815
0.2405	24.27063
0.241	28.39966
0.2415	31.11877
0.242	36.85913
0.2425	35.75134
0.243	47.13135
0.2435	52.36816
0.244	52.06604
0.2445	52.67029
0.245	45.01648
0.2455	40.98816
0.246	34.64355
0.2465	34.54285
0.247	35.54993
0.2475	36.25488
0.248	41.79382
0.2485	47.7356
0.249	45.52002
0.2495	39.47754
0.25	27.89612
0.2505	21.75293
0.251	11.78284
0.2515	3.92761
0.252	0.30212
0.2525	0.70496
0.253	-5.43823
0.2535	-0.20142
0.254	3.02124
0.2545	-7.5531
0.255	-7.25098
0.2555	-0.80566
0.256	-4.02832
0.2565	-6.2439
0.257	-13.19275
0.2575	-12.28638
0.258	-10.17151
0.2585	-8.05664
0.259	-10.97717
0.2595	-7.25098
0.26	-4.33044
0.2605	-0.70496
0.261	1.51062
0.2615	0.50354
0.262	5.53894
0.2625	4.53186
0.263	2.31628
0.2635	10.17151
0.264	12.5885
0.2645	16.3147
0.265	20.1416
0.2655	22.35718
0.266	25.57983
0.2665	19.94019
0.267	12.89062
0.2675	11.48071
0.268	14.80408
0.2685	10.17151
0.269	8.7616
0.2695	-0.40283
0.27	-11.17859
0.2705	-30.11169
0.271	-43.20374
0.2715	-57.50427
0.272	-61.43188
0.2725	-58.71277
0.273	-58.51135
0.2735	-49.74976
0.274	-29.80957
0.2745	-13.29346
0.275	0.40283
0.2755	11.07788
0.276	21.14868
0.2765	30.41382
0.277	38.974
0.2775	45.92285
0.278	50.15259
0.2785	50.354
0.279	40.58533
0.2795	34.03931
0.28	27.89612
0.2805	17.22107
0.281	14.50195
0.2815	13.99841
0.282	17.72461
0.2825	16.11328
0.283	15.91187
0.2835	15.50903
0.284	13.59558
0.2845	14.30054
0.285	12.08496
0.2855	14.40125
0.286	16.91895
0.2865	16.81824
0.287	13.59558
0.2875	17.92603
0.288	23.76709
0.2885	26.68762
0.289	21.95435
0.2895	20.44373
0.29	23.46497
0.2905	13.89771
0.291	8.15735
0.2915	6.14319
0.292	2.92053
0.2925	-0.40283
0.293	-1.2085
0.2935	-7.15027
0.294	-0.60425
0.2945	-6.54602
0.295	-16.51611
0.2955	-14.80408
0.296	-15.00549
0.2965	-13.797
0.297	-13.29346
0.2975	-13.19275
0.298	-8.35876
0.2985	-1.51062
0.299	-0.20142
0.2995	1.40991
0.3	9.66797
0.3005	18.53027
0.301	22.35718
0.3015	25.27771
0.302	19.73877
0.3025	19.03381
0.303	14.09912
0.3035	6.74744
0.304	1.81274
0.3045	-5.43823
0.305	-13.19275
0.3055	-15.20691
0.306	-12.5885
0.3065	-5.23682
0.307	-2.71912
0.3075	-6.04248
0.308	-2.61841
0.3085	1.2085
0.309	0.80566
0.3095	-2.81982
0.31	-6.2439
0.3105	-5.43823
0.311	-2.01416
0.3115	-4.63257
0.312	0.70496
0.3125	0.90637
0.313	-0.60425
0.3135	5.13611
0.314	6.54602
0.3145	11.58142
0.315	15.91187
0.3155	18.42957
0.316	19.03381
0.3165	14.09912
0.317	6.14319
0.3175	4.53186
0.318	3.92761
0.3185	10.17151
0.319	9.16443
0.3195	6.94885
0.32	5.13611
0.3205	1.61133
0.321	1.3092
0.3215	-0.20142
0.322	2.11487
0.3225	4.73328
0.323	1.81274
0.3235	2.31628
0.324	4.22974
0.3245	4.22974
0.325	0.70496
0.3255	10.37292
0.326	11.48071
0.3265	13.09204
0.327	19.33594
0.3275	24.37134
0.328	27.09045
0.3285	22.96143
0.329	18.63098
0.3295	27.09045
0.33	23.56567
0.3305	26.28479
0.331	26.18408
0.3315	25.47913
0.332	28.60107
0.3325	31.01807
0.333	16.21399
0.3335	6.2439
0.334	-6.64673
0.3345	-22.05505
0.335	-44.0094
0.3355	-45.01648
0.336	-51.15967
0.3365	-44.71436
0.337	-44.11011
0.3375	-36.55701
0.338	-32.22656
0.3385	-23.46497
0.339	-16.71753
0.3395	-10.77576
0.34	0.40283
0.3405	12.89062
0.341	-0.20142
0.3415	-10.27222
0.342	-18.93311
0.3425	-25.88196
0.343	-15.30762
0.3435	-8.45947
0.344	1.51062
0.3445	8.45947
0.345	17.12036
0.3455	25.37842
0.346	23.96851
0.3465	26.68762
0.347	23.96851
0.3475	17.01965
0.348	5.94177
0.3485	10.37292
0.349	11.07788
0.3495	10.0708
0.35	10.87646
0.3505	7.75452
0.351	18.02673
0.3515	28.19824
0.352	39.07471
0.3525	49.14551
0.353	48.54126
0.3535	46.5271
0.354	39.47754
0.3545	50.2533
0.355	52.46887
0.3555	56.90002
0.356	49.54834
0.3565	46.5271
0.357	39.88037
0.3575	32.32727
0.358	29.60815
0.3585	28.19824
0.359	34.94568
0.3595	30.11169
0.36	24.47205
0.3605	25.47913
0.361	19.94019
0.3615	14.80408
0.362	4.93469
0.3625	3.8269
0.363	-0.20142
0.3635	3.92761
0.364	3.42407
0.3645	5.0354
0.365	12.08496
0.3655	16.21399
0.366	20.54443
0.3665	22.15576
0.367	29.00391
0.3675	25.88196
0.368	36.35559
0.3685	31.62231
0.369	21.95435
0.3695	10.27222
0.37	1.40991
0.3705	-11.58142
0.371	-16.01257
0.3715	-18.02673
0.372	-23.36426
0.3725	-19.33594
0.373	-16.61682
0.3735	-9.76868
0.374	-9.86938
0.3745	0.20142
0.375	7.35168
0.3755	18.32886
0.376	24.67346
0.3765	32.7301
0.377	23.76709
0.3775	36.55701
0.378	41.4917
0.3785	37.96692
0.379	39.47754
0.3795	38.06763
0.38	38.77258
0.3805	33.73718
0.381	32.42798
0.3815	38.974
0.382	34.84497
0.3825	33.23364
0.383	24.87488
0.3835	22.15576
0.384	24.57275
0.3845	26.28479
0.385	17.52319
0.3855	20.24231
0.386	13.89771
0.3865	3.8269
0.387	-11.48071
0.3875	-14.19983
0.388	-15.50903
0.3885	-16.71753
0.389	-10.17151
0.3895	-3.52478
0.39	7.04956
0.3905	9.66797
0.391	11.68213
0.3915	11.07788
0.392	12.48779
0.3925	19.33594
0.393	23.66638
0.3935	26.88904
0.394	20.94727
0.3945	17.42249
0.395	16.21399
0.3955	13.59558
0.396	24.67346
0.3965	26.08337
0.397	24.77417
0.3975	16.41541
0.398	10.37292
0.3985	2.92053
0.399	4.22974
0.3995	8.56018
0.4	16.3147
0.4005	20.34302
0.401	18.93311
0.4015	19.94019
0.402	17.6239
0.4025	18.32886
0.403	12.08496
0.4035	16.11328
0.404	15.40833
0.4045	16.3147
0.405	14.60266
0.4055	11.68213
0.406	6.2439
0.4065	9.97009
0.407	11.38
0.4075	9.66797
0.408	6.74744
0.4085	7.5531
0.409	6.14319
0.4095	3.12195
0.41	-1.2085
0.4105	1.2085
0.411	1.81274
0.4115	3.92761
0.412	3.22266
0.4125	9.76868
0.413	7.35168
0.4135	15.71045
0.414	19.53735
0.4145	19.53735
0.415	26.58691
0.4155	20.94727
0.416	21.3501
0.4165	14.70337
0.417	16.81824
0.4175	8.96301
0.418	5.84106
0.4185	4.02832
0.419	9.46655
0.4195	11.48071
0.42	7.25098
0.4205	7.35168
0.421	4.63257
0.4215	0.40283
0.422	-0.10071
0.4225	0.60425
0.423	7.85522
0.4235	5.0354
0.424	18.22815
0.4245	17.72461
0.425	21.65222
0.4255	24.77417
0.426	25.47913
0.4265	25.47913
0.427	23.76709
0.4275	20.54443
0.428	14.09912
0.4285	-5.33752
0.429	-8.35876
0.4295	-15.1062
0.43	-21.75293
0.4305	-31.32019
0.431	-46.02356
0.4315	-64.95667
0.432	-75.4303
0.4325	-75.02747
0.433	-70.29419
0.4335	-62.9425
0.434	-52.26746
0.4345	-36.95984
0.435	-50.45471
0.4355	-65.96375
0.436	-68.68286
0.4365	-84.19189
0.437	-76.94092
0.4375	-71.40198
0.438	-58.30994
0.4385	-36.95984
0.439	-22.15576
0.4395	3.92761
0.44	31.01807
0.4405	55.08728
0.441	67.17224
0.4415	83.18481
0.442	94.56482
0.4425	97.58606
0.443	99.49951
0.4435	97.88818
0.444	104.73633
0.4445	97.18323
0.445	89.83154
0.4455	82.9834
0.446	68.78357
0.4465	65.46021
0.447	70.3949
0.4475	62.9425
0.448	56.39648
0.4485	48.84338
0.449	58.30994
0.4495	64.75525
0.45	58.71277
0.4505	52.16675
0.451	51.15967
0.4515	46.32568
0.452	41.69312
0.4525	31.82373
0.453	27.99683
0.4535	32.12585
0.454	33.83789
0.4545	29.30603
0.455	20.44373
0.4555	9.36584
0.456	-0.80566
0.4565	-0.90637
0.457	-3.7262
0.4575	-8.05664
0.458	-16.81824
0.4585	-10.57434
0.459	-4.33044
0.4595	-0.10071
0.46	-2.71912
0.4605	-2.92053
0.461	3.22266
0.4615	0.60425
0.462	0.50354
0.4625	-5.43823
0.463	-0.60425
0.4635	-10.27222
0.464	-17.6239
0.4645	-24.47205
0.465	-23.56567
0.4655	-16.21399
0.466	-14.40125
0.4665	-21.75293
0.467	-19.73877
0.4675	-22.76001
0.468	-21.85364
0.4685	-16.3147
0.469	-26.08337
0.4695	-32.22656
0.47	-33.33435
0.4705	-24.57275
0.471	-16.81824
0.4715	-10.87646
0.472	-2.71912
0.4725	-1.51062
0.473	10.57434
0.4735	12.18567
0.474	19.73877
0.4745	25.47913
0.475	32.52869
0.4755	38.67188
0.476	45.82214
0.4765	48.33984
0.477	41.59241
0.4775	31.92444
0.478	26.78833
0.4785	24.37134
0.479	23.66638
0.4795	13.39417
0.48	10.77576
0.4805	0.70496
0.481	-10.0708
0.4815	-2.92053
0.482	0.30212
0.4825	0.30212
0.483	-4.12903
0.4835	-4.83398
0.484	-8.56018
0.4845	-3.32336
0.485	-8.35876
0.4855	-3.7262
0.486	-9.46655
0.4865	-8.05664
0.487	-9.26514
0.4875	-13.59558
0.488	-11.58142
0.4885	-3.52478
0.489	-3.32336
0.4895	-2.81982
0.49	-5.74036
0.4905	-13.797
0.491	-16.3147
0.4915	-4.73328
0.492	-2.92053
0.4925	-10.37292
0.493	-15.81116
0.4935	-18.22815
0.494	-16.01257
0.4945	-4.53186
0.495	-6.04248
0.4955	7.35168
0.496	4.43115
0.4965	2.21558
0.497	7.85522
0.4975	2.61841
0.498	-1.2085
0.4985	-7.15027
0.499	-9.56726
0.4995	-8.56018
0.5	-5.63965
0.5005	-2.11487
0.501	-7.85522
0.5015	-10.37292
0.502	-9.46655
0.5025	-14.50195
0.503	-21.45081
0.5035	-30.41382
0.504	-28.39966
0.5045	-22.25647
0.505	-17.12036
0.5055	-24.27063
0.506	-34.34143
0.5065	-34.64355
0.507	-32.7301
0.5075	-38.36975
0.508	-39.07471
0.5085	-37.66479
0.509	-42.09595
0.5095	-51.66321
0.51	-56.90002
0.5105	-63.14392
0.511	-72.40906
0.5115	-81.57349
0.512	-89.42871
0.5125	-83.88977
0.513	-69.79065
0.5135	-57.50427
0.514	-35.95276
0.5145	-17.32178
0.515	-1.3092
0.5155	9.16443
0.516	30.31311
0.5165	51.86462
0.517	61.6333
0.5175	82.9834
0.518	89.63013
0.5185	79.66003
0.519	76.7395
0.5195	55.49011
0.52	40.78674
0.5205	27.29187
0.521	20.74585
0.5215	10.67505
0.522	10.67505
0.5225	3.02124
0.523	-0.40283
0.5235	0.30212
0.524	2.5177
0.5245	-0.50354
0.525	-3.62549
0.5255	-1.3092
0.526	-0.90637
0.5265	-3.22266
0.527	7.85522
0.5275	-0.70496
0.528	-1.40991
0.5285	-4.22974
0.529	2.11487
0.5295	0.30212
0.53	-5.33752
0.5305	-8.05664
0.531	-6.14319
0.5315	0.10071
0.532	-4.93469
0.5325	-1.00708
0.533	-2.31628
0.5335	-0.70496
0.534	4.02832
0.5345	-3.12195
0.535	-1.61133
0.5355	0.70496
0.536	4.33044
0.5365	7.45239
0.537	8.05664
0.5375	8.45947
0.538	5.53894
0.5385	-0.30212
0.539	-3.32336
0.5395	-8.56018
0.54	-3.32336
0.5405	5.94177
0.541	6.64673
0.5415	-8.56018
0.542	-19.53735
0.5425	-38.57117
0.543	-56.19507
0.5435	-78.75366
0.544	-97.18323
0.5445	-109.26819
0.545	-111.28235
0.5455	-110.57739
0.546	-109.4696
0.5465	-101.8158
0.547	-87.61597
0.5475	-71.60339
0.548	-52.56958
0.5485	-36.55701
0.549	-14.40125
0.5495	1.00708
0.55	11.68213
0.5505	25.88196
0.551	31.72302
0.5515	32.93152
0.552	41.39099
0.5525	51.66321
0.553	64.65454
0.5535	71.60339
0.554	70.19348
0.5545	63.24463
0.555	54.98657
0.5555	54.18091
0.556	50.2533
0.5565	41.08887
0.557	27.39258
0.5575	14.09912
0.558	5.53894
0.5585	-3.62549
0.559	-8.05664
0.5595	-9.06372
0.56	-6.74744
0.5605	-7.15027
0.561	-2.71912
0.5615	-2.71912
0.562	-6.54602
0.5625	-2.21558
0.563	-5.0354
0.5635	1.51062
0.564	6.04248
0.5645	5.74036
0.565	7.65381
0.5655	7.25098
0.566	1.2085
0.5665	-3.8269
0.567	-15.30762
0.5675	-10.37292
0.568	-19.63806
0.5685	-33.03223
0.569	-29.00391
0.5695	-29.91028
0.57	-31.4209
0.5705	-25.177
0.571	-35.04639
0.5715	-31.92444
0.572	-43.30444
0.5725	-56.79932
0.573	-61.23047
0.5735	-52.8717
0.574	-59.92126
0.5745	-53.77808
0.575	-42.90161
0.5755	-22.6593
0.576	-10.87646
0.5765	7.95593
0.577	22.6593
0.5775	22.96143
0.578	29.50745
0.5785	34.54285
0.579	37.96692
0.5795	44.0094
0.58	53.37524
0.5805	52.26746
0.581	42.49878
0.5815	25.57983
0.582	3.7262
0.5825	-9.46655
0.583	-16.61682
0.5835	-10.37292
0.584	-7.75452
0.5845	-8.35876
0.585	-9.16443
0.5855	-8.8623
0.586	2.61841
0.5865	3.52478
0.587	2.5177
0.5875	-2.01416
0.588	-0.80566
0.5885	-1.81274
0.589	10.77576
0.5895	6.3446
0.59	9.26514
0.5905	2.71912
0.591	-3.52478
0.5915	-7.5531
0.592	-1.61133
0.5925	-0.30212
0.593	-5.43823
0.5935	-10.37292
0.594	-21.85364
0.5945	-35.95276
0.595	-36.15417
0.5955	-39.37683
0.596	-29.50745
0.5965	-16.81824
0.597	-7.85522
0.5975	-3.02124
0.598	-3.42407
0.5985	-1.81274
0.599	-3.92761
0.5995	-6.74744
0.6	-4.63257
0.6005	-3.52478
0.601	-0.60425
0.6015	9.86938
0.602	4.63257
0.6025	-2.61841
0.603	-6.84814
0.6035	-6.84814
0.604	-2.5177
0.6045	-4.53186
0.605	-3.42407
0.6055	-2.31628
0.606	3.22266
0.6065	-0.20142
0.607	-4.83398
0.6075	5.43823
0.608	7.65381
0.6085	8.05664
0.609	1.81274
0.6095	-0.10071
0.61	-9.26514
0.6105	-13.797
0.611	-13.09204
0.6115	-8.8623
0.612	-12.99133
0.6125	-10.47363
0.613	-14.09912
0.6135	-9.26514
0.614	-8.96301
0.6145	-6.2439
0.615	-8.56018
0.6155	-7.85522
0.616	-4.93469
0.6165	-4.22974
0.617	-6.44531
0.6175	-8.66089
0.618	-3.62549
0.6185	0
0.619	-3.22266
0.6195	0.50354
0.62	-2.31628
0.6205	-3.12195
0.621	-0.30212
0.6215	-1.51062
0.622	-0.40283
0.6225	-5.74036
0.623	0.50354
0.6235	-0.40283
0.624	0.60425
0.6245	-3.62549
0.625	-8.96301
0.6255	-5.84106
0.626	1.81274
0.6265	-0.90637
0.627	4.02832
0.6275	2.71912
0.628	-0.80566
0.6285	-5.43823
0.629	-10.67505
0.6295	-5.74036
0.63	-2.71912
0.6305	-3.02124
0.631	-3.32336
0.6315	-6.44531
0.632	-4.73328
0.6325	-7.85522
0.633	-7.35168
0.6335	-14.70337
0.634	-7.04956
0.6345	-9.26514
0.635	-8.05664
0.6355	1.51062
0.636	-7.25098
0.6365	-7.04956
0.637	-6.54602
0.6375	-2.21558
0.638	-5.63965
0.6385	0.10071
0.639	-4.63257
0.6395	-0.80566
0.64	1.51062
0.6405	3.22266
0.641	-0.60425
0.6415	-1.61133
0.642	-7.75452
0.6425	-12.89062
0.643	-11.88354
0.6435	-11.88354
0.644	-14.90479
0.6445	-10.27222
0.645	-12.48779
0.6455	-17.12036
0.646	-10.97717
0.6465	-9.36584
0.647	-9.86938
0.6475	-11.48071
0.648	-8.35876
0.6485	-6.54602
0.649	-4.73328
0.6495	-6.54602
0.65	-4.73328
0.6505	-0.40283
0.651	-3.42407
0.6515	0.10071
0.652	-7.15027
0.6525	-2.11487
0.653	-11.38
0.6535	-6.84814
0.654	-5.94177
0.6545	-6.84814
0.655	-10.77576
0.6555	-16.61682
0.656	-12.99133
0.6565	-5.0354
0.657	-0.90637
0.6575	1.81274
0.658	4.33044
0.6585	-0.10071
0.659	0.20142
0.6595	-0.90637
0.66	-5.74036
0.6605	-3.62549
0.661	-8.45947
0.6615	-2.92053
0.662	-7.35168
0.6625	-9.97009
0.663	-16.41541
0.6635	-20.04089
0.664	-23.16284
0.6645	-21.85364
0.665	-17.12036
0.6655	-10.67505
0.666	-9.97009
0.6665	-10.97717
0.667	-9.56726
0.6675	-18.8324
0.668	-21.3501
0.6685	-21.75293
0.669	-20.34302
0.6695	-21.85364
0.67	-16.51611
0.6705	-15.30762
0.671	-18.63098
0.6715	-22.05505
0.672	-27.29187
0.6725	-23.46497
0.673	-27.89612
0.6735	-15.30762
0.674	-16.51611
0.6745	-10.27222
0.675	-4.43115
0.6755	-2.01416
0.676	-4.12903
0.6765	-8.15735
0.677	-8.56018
0.6775	-8.05664
0.678	-20.04089
0.6785	-28.50037
0.679	-41.79382
0.6795	-49.54834
0.68	-55.3894
0.6805	-57.9071
0.681	-58.00781
0.6815	-46.92993
0.682	-34.44214
0.6825	-18.02673
0.683	-8.25806
0.6835	7.85522
0.684	17.6239
0.6845	43.60657
0.685	45.72144
0.6855	56.39648
0.686	60.92834
0.6865	64.25171
0.687	64.65454
0.6875	52.26746
0.688	27.89612
0.6885	-5.43823
0.689	-26.48621
0.6895	-38.87329
0.69	-30.31311
0.6905	-24.47205
0.691	-26.18408
0.6915	-23.46497
0.692	-19.33594
0.6925	-11.48071
0.693	-14.60266
0.6935	-13.09204
0.694	-11.68213
0.6945	-9.46655
0.695	-4.73328
0.6955	-4.43115
0.696	-5.33752
0.6965	2.92053
0.697	3.42407
0.6975	10.27222
0.698	18.73169
0.6985	21.55151
0.699	25.98267
0.6995	27.09045
0.7	20.64514
0.7005	19.23523
0.701	29.60815
0.7015	27.89612
0.702	32.62939
0.7025	11.48071
0.703	-26.88904
0.7035	-44.91577
0.704	-64.65454
0.7045	-67.67578
0.705	-62.64038
0.7055	-51.86462
0.706	-36.4563
0.7065	-24.06921
0.707	-13.89771
0.7075	-3.62549
0.708	11.78284
0.7085	25.57983
0.709	37.46338
0.7095	52.46887
0.71	60.92834
0.7105	65.76233
0.711	67.57507
0.7115	67.77649
0.712	69.99207
0.7125	67.97791
0.713	65.46021
0.7135	61.83472
0.714	45.3186
0.7145	36.05347
0.715	21.04797
0.7155	11.78284
0.716	8.35876
0.7165	10.0708
0.717	11.2793
0.7175	11.38
0.718	13.49487
0.7185	15.30762
0.719	17.32178
0.7195	19.13452
0.72	11.2793
0.7205	14.30054
0.721	6.64673
0.7215	5.53894
0.722	3.7262
0.7225	3.92761
0.723	0.80566
0.7235	-8.45947
0.724	-15.30762
0.7245	-10.37292
0.725	3.62549
0.7255	-0.90637
0.726	1.10779
0.7265	0.10071
0.727	0
0.7275	3.7262
0.728	3.32336
0.7285	4.43115
0.729	0.20142
0.7295	6.44531
0.73	1.2085
0.7305	1.81274
0.731	0.90637
0.7315	2.92053
0.732	1.40991
0.7325	3.32336
0.733	7.65381
0.7335	10.97717
0.734	5.0354
0.7345	-0.90637
0.735	3.42407
0.7355	4.93469
0.736	9.16443
0.7365	4.33044
0.737	6.2439
0.7375	7.65381
0.738	16.01257
0.7385	19.13452
0.739	20.54443
0.7395	21.3501
0.74	24.06921
0.7405	31.4209
0.741	35.65063
0.7415	31.72302
0.742	29.40674
0.7425	24.97559
0.743	24.77417
0.7435	26.68762
0.744	22.76001
0.7445	16.41541
0.745	8.25806
0.7455	-4.33044
0.746	-6.14319
0.7465	-15.71045
0.747	-15.81116
0.7475	-13.29346
0.748	-11.48071
0.7485	-9.97009
0.749	-7.85522
0.7495	-1.40991
0.75	4.02832
0.7505	8.8623
0.751	6.84814
0.7515	9.76868
0.752	12.38708
0.7525	8.96301
0.753	16.51611
0.7535	10.17151
0.754	10.27222
0.7545	9.26514
0.755	14.09912
0.7555	16.01257
0.756	13.89771
0.7565	10.17151
0.757	7.15027
0.7575	6.74744
0.758	10.77576
0.7585	17.82532
0.759	12.28638
0.7595	15.20691
0.76	15.50903
0.7605	10.0708
0.761	8.25806
0.7615	13.09204
0.762	16.3147
0.7625	9.26514
0.763	17.32178
0.7635	16.91895
0.764	6.94885
0.7645	11.98425
0.765	12.48779
0.7655	17.92603
0.766	18.93311
0.7665	20.84656
0.767	17.72461
0.7675	13.797
0.768	14.70337
0.7685	12.18567
0.769	15.1062
0.7695	19.43665
0.77	22.15576
0.7705	21.45081
0.771	24.37134
0.7715	18.02673
0.772	17.22107
0.7725	19.13452
0.773	20.04089
0.7735	16.61682
0.774	23.26355
0.7745	23.46497
0.775	16.61682
0.7755	15.50903
0.776	16.11328
0.7765	11.38
0.777	6.94885
0.7775	4.53186
0.778	9.06372
0.7785	14.50195
0.779	9.16443
0.7795	9.06372
0.78	10.37292
0.7805	12.18567
0.781	7.25098
0.7815	9.06372
0.782	6.2439
0.7825	3.7262
0.783	6.54602
0.7835	5.43823
0.784	10.0708
0.7845	4.22974
0.785	8.25806
0.7855	16.21399
0.786	12.99133
0.7865	12.89062
0.787	14.80408
0.7875	17.92603
0.788	14.19983
0.7885	13.797
0.789	14.50195
0.7895	19.83948
0.79	23.16284
0.7905	16.91895
0.791	22.35718
0.7915	18.12744
0.792	19.23523
0.7925	16.61682
0.793	14.09912
0.7935	17.42249
0.794	17.32178
0.7945	11.58142
0.795	15.50903
0.7955	23.66638
0.796	17.42249
0.7965	18.53027
0.797	17.12036
0.7975	10.67505
0.798	11.17859
0.7985	8.05664
0.799	7.45239
0.7995	8.05664
0.8	3.12195
0.8005	8.15735
0.801	10.17151
0.8015	12.78992
0.802	13.69629
0.8025	13.59558
0.803	10.27222
0.8035	8.45947
0.804	13.39417
0.8045	17.52319
0.805	18.32886
0.8055	14.30054
0.806	15.71045
0.8065	10.27222
0.807	11.2793
0.8075	15.81116
0.808	17.12036
0.8085	15.20691
0.809	13.39417
0.8095	19.83948
0.81	19.13452
0.8105	20.94727
0.811	21.95435
0.8115	17.72461
0.812	17.12036
0.8125	15.60974
0.813	15.91187
0.8135	31.92444
0.814	27.29187
0.8145	31.4209
0.815	30.31311
0.8155	24.77417
0.816	18.22815
0.8165	9.46655
0.817	-1.81274
0.8175	-10.37292
0.818	-21.3501
0.8185	-34.34143
0.819	-49.64905
0.8195	-54.78516
0.82	-59.01489
0.8205	-51.46179
0.821	-47.33276
0.8215	-36.95984
0.822	-28.50037
0.8225	-13.49487
0.823	-2.21558
0.8235	15.91187
0.824	21.3501
0.8245	31.4209
0.825	44.91577
0.8255	53.07312
0.826	64.55383
0.8265	66.36658
0.827	62.03613
0.8275	61.93542
0.828	46.72852
0.8285	31.4209
0.829	17.22107
0.8295	8.8623
0.83	5.74036
0.8305	7.45239
0.831	11.98425
0.8315	13.29346
0.832	17.52319
0.8325	17.01965
0.833	17.52319
0.8335	20.84656
0.834	20.84656
0.8345	16.21399
0.835	19.83948
0.8355	20.04089
0.836	12.08496
0.8365	7.25098
0.837	14.50195
0.8375	15.81116
0.838	16.91895
0.8385	8.96301
0.839	7.95593
0.8395	2.01416
0.84	3.02124
0.8405	4.02832
0.841	-3.52478
0.8415	-5.63965
0.842	-2.21558
0.8425	3.62549
0.843	-3.62549
0.8435	-0.50354
0.844	3.22266
0.8445	8.56018
0.845	3.32336
0.8455	0.40283
0.846	7.5531
0.8465	8.56018
0.847	9.26514
0.8475	12.68921
0.848	18.73169
0.8485	19.23523
0.849	17.6239
0.8495	12.89062
0.85	10.27222
0.8505	0.50354
0.851	-3.62549
0.8515	-5.33752
0.852	-4.33044
0.8525	3.22266
0.853	-1.61133
0.8535	-5.84106
0.854	2.31628
0.8545	2.11487
0.855	11.07788
0.8555	11.78284
0.856	15.91187
0.8565	10.17151
0.857	12.18567
0.8575	17.72461
0.858	14.19983
0.8585	11.48071
0.859	7.45239
0.8595	6.84814
0.86	8.05664
0.8605	8.7616
0.861	11.17859
0.8615	6.44531
0.862	9.66797
0.8625	5.43823
0.863	13.69629
0.8635	15.60974
0.864	11.88354
0.8645	15.20691
0.865	18.02673
0.8655	15.40833
0.866	13.99841
0.8665	16.61682
0.867	15.71045
0.8675	12.78992
0.868	16.51611
0.8685	19.13452
0.869	14.50195
0.8695	12.99133
0.87	5.43823
0.8705	8.7616
0.871	13.19275
0.8715	7.35168
0.872	2.31628
0.8725	4.63257
0.873	2.71912
0.8735	10.0708
0.874	15.71045
0.8745	13.89771
0.875	16.21399
0.8755	8.15735
0.876	5.63965
0.8765	4.53186
0.877	6.84814
0.8775	14.09912
0.878	6.14319
0.8785	12.18567
0.879	15.20691
0.8795	12.28638
0.88	14.09912
0.8805	13.89771
0.881	3.92761
0.8815	6.54602
0.882	6.14319
0.8825	15.1062
0.883	15.81116
0.8835	18.12744
0.884	12.28638
0.8845	12.28638
0.885	14.40125
0.8855	16.81824
0.886	12.08496
0.8865	10.97717
0.887	9.16443
0.8875	14.50195
0.888	11.88354
0.8885	10.27222
0.889	11.07788
0.8895	16.71753
0.89	15.00549
0.8905	19.43665
0.891	17.6239
0.8915	23.46497
0.892	16.91895
0.8925	22.25647
0.893	20.24231
0.8935	20.34302
0.894	19.23523
0.8945	11.98425
0.895	11.38
0.8955	14.50195
0.896	13.19275
0.8965	14.19983
0.897	12.99133
0.8975	18.63098
0.898	16.01257
0.8985	16.21399
0.899	11.88354
0.8995	9.76868
0.9	11.98425
0.9005	8.25806
0.901	4.73328
0.9015	5.23682
0.902	-0.70496
0.9025	0.60425
0.903	4.22974
0.9035	1.51062
0.904	6.14319
0.9045	10.97717
0.905	13.59558
0.9055	10.67505
0.906	13.19275
0.9065	12.08496
0.907	16.3147
0.9075	17.01965
0.908	15.1062
0.9085	12.18567
0.909	13.89771
0.9095	11.88354
0.91	14.70337
0.9105	8.25806
0.911	8.96301
0.9115	9.46655
0.912	14.90479
0.9125	18.93311
0.913	22.45789
0.9135	18.42957
0.914	22.25647
0.9145	17.72461
0.915	18.63098
0.9155	18.42957
0.916	7.35168
0.9165	2.41699
0.917	-4.22974
0.9175	-7.85522
0.918	-5.74036
0.9185	-6.44531
0.919	-1.10779
0.9195	1.71204
0.92	8.35876
0.9205	7.5531
0.921	7.85522
0.9215	13.49487
0.922	4.43115
0.9225	11.38
0.923	3.62549
0.9235	4.93469
0.924	1.40991
0.9245	5.33752
0.925	4.53186
0.9255	5.13611
0.926	9.06372
0.9265	11.17859
0.927	12.48779
0.9275	12.18567
0.928	12.68921
0.9285	7.25098
0.929	6.84814
0.9295	9.76868
0.93	11.17859
0.9305	7.65381
0.931	5.84106
0.9315	4.02832
0.932	4.33044
0.9325	9.06372
0.933	6.64673
0.9335	10.67505
0.934	5.0354
0.9345	7.75452
0.935	10.67505
0.9355	9.86938
0.936	11.2793
0.9365	8.66089
0.937	9.86938
0.9375	9.86938
0.938	10.27222
0.9385	10.27222
0.939	12.78992
0.9395	7.35168
0.94	13.99841
0.9405	11.07788
0.941	7.95593
0.9415	11.17859
0.942	4.02832
0.9425	10.97717
0.943	11.38
0.9435	10.57434
0.944	14.30054
0.9445	17.42249
0.945	16.51611
0.9455	12.99133
0.946	8.7616
0.9465	13.69629
0.947	10.97717
0.9475	10.67505
0.948	15.91187
0.9485	14.40125
0.949	9.76868
0.9495	10.57434
0.95	8.66089
0.9505	10.37292
0.951	5.43823
0.9515	10.37292
0.952	12.38708
0.9525	16.41541
0.953	15.1062
0.9535	18.42957
0.954	20.04089
0.9545	25.68054
0.955	21.04797
0.9555	18.63098
0.956	15.30762
0.9565	5.94177
0.957	-5.63965
0.9575	-8.15735
0.958	-18.53027
0.9585	-22.25647
0.959	-23.46497
0.9595	-19.63806
0.96	-16.71753
0.9605	-14.09912
0.961	-6.2439
0.9615	2.21558
0.962	-5.84106
0.9625	-1.00708
0.963	-0.40283
0.9635	1.2085
0.964	3.12195
0.9645	3.12195
0.965	1.00708
0.9655	3.7262
0.966	3.42407
0.9665	1.51062
0.967	4.63257
0.9675	0.80566
0.968	6.3446
0.9685	5.0354
0.969	8.56018
0.9695	10.17151
0.97	12.08496
0.9705	8.56018
0.971	5.13611
0.9715	9.16443
0.972	15.60974
0.9725	11.68213
0.973	8.05664
0.9735	7.95593
0.974	10.17151
0.9745	6.3446
0.975	9.66797
0.9755	11.68213
0.976	9.97009
0.9765	11.98425
0.977	13.19275
0.9775	12.08496
0.978	19.73877
0.9785	20.44373
0.979	18.32886
0.9795	17.32178
0.98	15.81116
0.9805	17.92603
0.981	12.18567
0.9815	16.21399
0.982	13.99841
0.9825	9.16443
0.983	15.1062
0.9835	11.2793
0.984	16.41541
0.9845	14.40125
0.985	15.40833
0.9855	9.46655
0.986	4.12903
0.9865	6.2439
0.987	13.89771
0.9875	15.60974
0.988	13.89771
0.9885	10.57434
0.989	12.68921
0.9895	10.17151
0.99	12.99133
0.9905	6.04248
0.991	11.78284
0.9915	6.2439
0.992	4.73328
0.9925	0.90637
0.993	2.92053
0.9935	5.13611
0.994	5.43823
0.9945	8.25806
0.995	8.25806
0.9955	9.86938
0.996	4.63257
0.9965	12.48779
0.997	6.54602
0.9975	6.44531
0.998	7.85522
0.9985	5.13611
0.999	8.96301
0.9995	7.85522
1	11.98425
1.0005	8.05664
1.001	7.5531
1.0015	12.68921
1.002	6.84814
1.0025	1.71204
1.003	10.57434
1.0035	8.96301
1.004	9.66797
1.0045	5.23682
1.005	3.8269
1.0055	5.74036
1.006	8.8623
1.0065	1.10779
1.007	6.44531
1.0075	6.94885
1.008	5.43823
1.0085	4.22974
1.009	9.56726
1.0095	8.25806
1.01	17.82532
1.0105	12.18567
1.011	10.0708
1.0115	7.15027
1.012	11.38
1.0125	14.70337
1.013	12.18567
1.0135	11.38
1.014	10.57434
1.0145	9.06372
1.015	13.19275
1.0155	8.15735
1.016	3.22266
1.0165	-8.7616
1.017	-2.41699
1.0175	-5.0354
1.018	-5.33752
1.0185	-1.71204
1.019	3.8269
1.0195	8.45947
1.02	5.23682
1.0205	3.42407
1.021	2.92053
1.0215	0.40283
1.022	-5.23682
1.0225	-5.84106
1.023	-10.77576
1.0235	-15.71045
1.024	-15.20691
1.0245	-12.99133
1.025	-12.68921
1.0255	-9.46655
1.026	-9.36584
1.0265	-9.66797
1.027	-1.3092
1.0275	-0.50354
1.028	1.51062
1.0285	0.30212
1.029	-1.61133
1.0295	3.62549
1.03	5.84106
1.0305	5.0354
1.031	9.76868
1.0315	11.68213
1.032	14.90479
1.0325	10.77576
1.033	16.91895
1.0335	10.0708
1.034	10.97717
1.0345	12.28638
1.035	15.50903
1.0355	18.73169
1.036	13.59558
1.0365	15.60974
1.037	13.59558
1.0375	12.38708
1.038	4.33044
1.0385	4.02832
1.039	6.74744
1.0395	5.23682
1.04	0.90637
1.0405	5.43823
1.041	6.94885
1.0415	4.02832
1.042	5.53894
1.0425	4.02832
1.043	6.14319
1.0435	8.96301
1.044	13.69629
1.0445	13.99841
1.045	15.71045
1.0455	13.29346
1.046	17.32178
1.0465	4.93469
1.047	3.32336
1.0475	7.35168
1.048	7.5531
1.0485	9.26514
1.049	5.84106
1.0495	10.47363
1.05	8.15735
1.0505	3.02124
1.051	4.22974
1.0515	8.15735
1.052	11.2793
1.0525	9.97009
1.053	12.08496
1.0535	10.17151
1.054	14.09912
1.0545	14.50195
1.055	16.91895
1.0555	26.28479
1.056	27.59399
1.0565	22.86072
1.057	21.65222
1.0575	9.56726
1.058	4.93469
1.0585	-1.00708
1.059	-6.04248
1.0595	-1.71204
1.06	-0.30212
1.0605	5.43823
1.061	7.95593
1.0615	10.17151
1.062	1.91345
1.0625	-2.61841
1.063	1.81274
1.0635	-0.70496
1.064	-5.13611
1.0645	-3.92761
1.065	-1.2085
1.0655	-3.32336
1.066	3.12195
1.0665	9.36584
1.067	10.37292
1.0675	6.3446
1.068	9.66797
1.0685	8.35876
1.069	7.75452
1.0695	1.10779
1.07	-3.42407
1.0705	0.80566
1.071	7.25098
1.0715	3.32336
1.072	1.51062
1.0725	-7.95593
1.073	-1.3092
1.0735	-2.71912
1.074	-5.53894
1.0745	1.00708
1.075	0.50354
1.0755	-2.41699
1.076	-1.3092
1.0765	5.13611
1.077	7.65381
1.0775	7.65381
1.078	9.66797
1.0785	12.89062
1.079	10.17151
1.0795	6.84814
1.08	5.63965
1.0805	10.37292
1.081	5.33752
1.0815	7.65381
1.082	7.25098
1.0825	7.35168
1.083	12.28638
1.0835	6.84814
1.084	10.37292
1.0845	11.68213
1.085	10.57434
1.0855	11.88354
1.086	13.59558
1.0865	9.66797
1.087	7.5531
1.0875	7.65381
1.088	2.81982
1.0885	0.50354
1.089	6.64673
1.0895	7.75452
1.09	9.66797
1.0905	5.53894
1.091	11.38
1.0915	8.8623
1.092	8.96301
1.0925	13.49487
1.093	11.17859
1.0935	10.67505
1.094	5.94177
1.0945	15.20691
1.095	13.29346
1.0955	11.2793
1.096	11.07788
1.0965	8.96301
1.097	7.04956
1.0975	11.58142
1.098	11.07788
1.0985	9.36584
1.099	8.25806
1.0995	5.13611
1.1	4.43115
1.1005	7.45239
1.101	3.22266
1.1015	4.93469
1.102	5.0354
1.1025	2.71912
1.103	3.92761
1.1035	7.15027
1.104	4.22974
1.1045	2.71912
1.105	5.94177
1.1055	7.85522
1.106	14.70337
1.1065	12.99133
1.107	14.30054
1.1075	9.16443
1.108	14.30054
1.1085	16.41541
1.109	7.95593
1.1095	7.5531
1.11	9.16443
1.1105	4.63257
1.111	7.75452
1.1115	11.98425
1.112	7.25098
1.1125	5.53894
1.113	2.92053
1.1135	5.33752
1.114	5.84106
1.1145	8.15735
1.115	8.66089
1.1155	13.49487
1.116	11.2793
1.1165	9.06372
1.117	10.0708
1.1175	16.51611
1.118	15.1062
1.1185	10.97717
1.119	3.8269
1.1195	-4.83398
1.12	-5.43823
1.1205	-8.45947
1.121	-9.97009
1.1215	-6.14319
1.122	-0.30212
1.1225	6.44531
1.123	4.33044
1.1235	4.43115
1.124	2.61841
1.1245	-3.12195
1.125	-4.63257
1.1255	-2.01416
1.126	-1.71204
1.1265	1.2085
1.127	5.43823
1.1275	2.5177
1.128	4.93469
1.1285	7.85522
1.129	0.10071
1.1295	9.56726
1.13	2.01416
1.1305	3.8269
1.131	8.45947
1.1315	4.12903
1.132	6.54602
1.1325	4.02832
1.133	3.7262
1.1335	2.61841
1.134	7.65381
1.1345	4.73328
1.135	4.22974
1.1355	9.26514
1.136	4.22974
1.1365	6.2439
1.137	7.35168
1.1375	7.75452
1.138	5.53894
1.1385	8.15735
1.139	7.04956
1.1395	15.1062
1.14	15.50903
1.1405	18.32886
1.141	14.30054
1.1415	19.03381
1.142	20.04089
1.1425	10.17151
1.143	1.3092
1.1435	4.22974
1.144	4.63257
1.1445	4.83398
1.145	5.94177
1.1455	-1.91345
1.146	-7.04956
1.1465	-14.40125
1.147	-6.64673
1.1475	-7.65381
1.148	-4.63257
1.1485	-4.33044
1.149	3.52478
1.1495	3.42407
1.15	-1.10779
1.1505	5.0354
1.151	3.52478
1.1515	10.77576
1.152	9.66797
1.1525	5.63965
1.153	5.94177
1.1535	10.17151
1.154	6.74744
1.1545	7.95593
1.155	3.7262
1.1555	6.2439
1.156	6.64673
1.1565	3.7262
1.157	8.15735
1.1575	9.16443
1.158	4.33044
1.1585	7.15027
1.159	2.11487
1.1595	2.81982
1.16	7.95593
1.1605	5.63965
1.161	9.06372
1.1615	7.95593
1.162	8.35876
1.1625	14.80408
1.163	6.14319
1.1635	1.2085
1.164	7.45239
1.1645	8.15735
1.165	9.76868
1.1655	8.66089
1.166	-1.51062
1.1665	5.13611
1.167	8.25806
1.1675	4.93469
1.168	7.45239
1.1685	7.35168
1.169	9.86938
1.1695	6.74744
1.17	4.63257
1.1705	4.83398
1.171	8.96301
1.1715	10.87646
1.172	9.97009
1.1725	7.5531
1.173	8.66089
1.1735	6.84814
1.174	14.19983
1.1745	12.48779
1.175	9.86938
1.1755	4.22974
1.176	-0.20142
1.1765	3.8269
1.177	3.92761
1.1775	6.74744
1.178	-3.32336
1.1785	2.11487
1.179	5.0354
1.1795	4.22974
1.18	6.84814
1.1805	2.61841
1.181	5.84106
1.1815	-5.23682
1.182	0.20142
1.1825	2.71912
1.183	5.33752
1.1835	5.0354
1.184	3.32336
1.1845	0.20142
1.185	4.33044
1.1855	10.17151
1.186	11.88354
1.1865	10.37292
1.187	9.16443
1.1875	9.66797
1.188	10.77576
1.1885	15.00549
1.189	11.98425
1.1895	11.68213
1.19	5.74036
1.1905	10.27222
1.191	10.27222
1.1915	9.86938
1.192	10.97717
1.1925	10.47363
1.193	11.38
1.1935	8.05664
1.194	9.46655
1.1945	11.2793
1.195	2.41699
1.1955	6.44531
1.196	7.35168
1.1965	1.40991
1.197	7.15027
1.1975	10.97717
1.198	12.38708
1.1985	9.36584
1.199	6.04248
1.1995	8.56018
1.2	7.95593
1.2005	5.13611
1.201	-0.30212
1.2015	0.10071
1.202	0.80566
1.2025	5.0354
1.203	5.23682
1.2035	7.65381
1.204	14.19983
1.2045	6.2439
1.205	4.83398
1.2055	3.52478
1.206	6.84814
1.2065	4.83398
1.207	8.15735
1.2075	10.87646
1.208	7.25098
1.2085	7.85522
1.209	6.44531
1.2095	9.56726
1.21	8.35876
1.2105	6.2439
1.211	7.35168
1.2115	3.22266
1.212	3.62549
1.2125	6.3446
1.213	13.09204
1.2135	10.27222
1.214	9.76868
1.2145	10.97717
1.215	13.09204
1.2155	9.76868
1.216	11.68213
1.2165	14.50195
1.217	14.30054
1.2175	17.6239
1.218	29.60815
1.2185	27.09045
1.219	15.91187
1.2195	7.25098
1.22	0
1.2205	-1.10779
1.221	-3.7262
1.2215	-4.33044
1.222	-8.8623
1.2225	-6.84814
1.223	-10.97717
1.2235	-7.25098
1.224	-10.57434
1.2245	-11.98425
1.225	-9.86938
1.2255	-6.54602
1.226	-3.12195
1.2265	-2.92053
1.227	5.0354
1.2275	3.7262
1.228	2.61841
1.2285	3.92761
1.229	1.40991
1.2295	4.33044
1.23	2.21558
1.2305	6.74744
1.231	7.75452
1.2315	10.57434
1.232	12.5885
1.2325	4.93469
1.233	5.43823
1.2335	7.45239
1.234	6.54602
1.2345	10.27222
1.235	7.75452
1.2355	8.96301
1.236	6.3446
1.2365	10.57434
1.237	17.22107
1.2375	13.19275
1.238	9.76868
1.2385	3.42407
1.239	2.11487
1.2395	4.02832
1.24	10.37292
1.2405	14.60266
1.241	7.85522
1.2415	4.73328
1.242	2.61841
1.2425	3.8269
1.243	2.92053
1.2435	1.71204
1.244	5.0354
1.2445	4.33044
1.245	5.94177
1.2455	7.04956
1.246	5.23682
1.2465	4.73328
1.247	0.40283
1.2475	5.63965
1.248	5.33752
1.2485	6.04248
1.249	3.42407
1.2495	4.53186
1.25	3.52478
1.2505	6.2439
1.251	7.5531
1.2515	6.74744
1.252	4.43115
1.2525	9.56726
1.253	7.04956
1.2535	3.62549
1.254	3.52478
1.2545	9.06372
1.255	5.23682
1.2555	5.13611
1.256	5.33752
1.2565	3.02124
1.257	-2.01416
1.2575	7.75452
1.258	7.85522
1.2585	10.0708
1.259	12.99133
1.2595	8.25806
1.26	12.99133
1.2605	14.90479
1.261	8.66089
1.2615	6.3446
1.262	9.46655
1.2625	8.35876
1.263	7.85522
1.2635	8.66089
1.264	9.56726
1.2645	7.35168
1.265	9.66797
1.2655	8.45947
1.266	0.50354
1.2665	2.41699
1.267	6.74744
1.2675	8.05664
1.268	6.2439
1.2685	10.27222
1.269	9.26514
1.2695	10.0708
1.27	6.54602
1.2705	10.57434
1.271	5.23682
1.2715	8.45947
1.272	8.35876
1.2725	8.35876
1.273	6.2439
1.2735	4.22974
1.274	9.46655
1.2745	5.33752
1.275	9.86938
1.2755	5.53894
1.276	4.83398
1.2765	3.12195
1.277	5.43823
1.2775	13.99841
1.278	5.43823
1.2785	8.05664
1.279	8.96301
1.2795	8.8623
1.28	4.53186
1.2805	8.56018
1.281	-0.30212
1.2815	3.42407
1.282	5.53894
1.2825	1.91345
1.283	0
1.2835	3.62549
1.284	1.2085
1.2845	-2.01416
1.285	2.5177
1.2855	3.92761
1.286	6.54602
1.2865	4.93469
1.287	4.63257
1.2875	6.94885
1.288	5.43823
1.2885	0.90637
1.289	7.15027
1.2895	3.62549
1.29	-0.40283
1.2905	-2.71912
1.291	7.15027
1.2915	5.53894
1.292	8.45947
1.2925	0.80566
1.293	1.91345
1.2935	3.22266
1.294	3.02124
1.2945	0.20142
1.295	2.41699
1.2955	0.40283
1.296	-2.21558
1.2965	2.71912
1.297	-2.01416
1.2975	3.12195
1.298	2.21558
1.2985	3.22266
1.299	0.40283
1.2995	-7.35168
1.3	2.01416
1.3005	2.71912
1.301	3.92761
1.3015	8.56018
1.302	8.66089
1.3025	11.38
1.303	13.19275
1.3035	9.97009
1.304	9.26514
1.3045	7.95593
1.305	-2.71912
1.3055	-11.38
1.306	-8.05664
1.3065	-9.66797
1.307	-18.63098
1.3075	-17.52319
1.308	-11.88354
1.3085	-4.33044
1.309	-9.16443
1.3095	-8.56018
1.31	-10.27222
1.3105	-13.49487
1.311	-12.68921
1.3115	-10.67505
1.312	-4.33044
1.3125	-5.94177
1.313	-2.21558
1.3135	2.41699
1.314	-2.71912
1.3145	-4.02832
1.315	2.01416
1.3155	3.32336
1.316	4.93469
1.3165	6.44531
1.317	3.52478
1.3175	2.61841
1.318	6.64673
1.3185	4.83398
1.319	1.71204
1.3195	4.22974
1.32	-0.40283
1.3205	-2.11487
1.321	-3.02124
1.3215	0
1.322	7.35168
1.3225	12.68921
1.323	7.04956
1.3235	7.45239
1.324	8.45947
1.3245	8.35876
1.325	14.90479
1.3255	4.93469
1.326	12.38708
1.3265	12.5885
1.327	13.19275
1.3275	16.01257
1.328	11.68213
1.3285	7.15027
1.329	5.23682
1.3295	5.63965
1.33	8.66089
1.3305	11.07788
1.331	7.85522
1.3315	10.67505
1.332	9.66797
1.3325	9.66797
1.333	13.59558
1.3335	12.5885
1.334	6.04248
1.3345	4.53186
1.335	9.86938
1.3355	5.74036
1.336	3.52478
1.3365	7.85522
1.337	10.37292
1.3375	8.66089
1.338	5.53894
1.3385	5.13611
1.339	3.12195
1.3395	2.61841
1.34	1.81274
1.3405	2.21558
1.341	1.61133
1.3415	2.11487
1.342	2.31628
1.3425	3.22266
1.343	1.81274
1.3435	3.32336
1.344	8.66089
1.3445	6.94885
1.345	4.73328
1.3455	4.73328
1.346	7.35168
1.3465	2.81982
1.347	6.44531
1.3475	7.04956
1.348	6.2439
1.3485	10.97717
1.349	17.72461
1.3495	10.97717
1.35	10.27222
1.3505	12.68921
1.351	6.2439
1.3515	10.17151
1.352	14.50195
1.3525	5.43823
1.353	8.35876
1.3535	5.74036
1.354	11.2793
1.3545	4.63257
1.355	8.66089
1.3555	10.0708
1.356	10.27222
1.3565	11.48071
1.357	7.85522
1.3575	10.37292
1.358	5.63965
1.3585	4.93469
1.359	9.36584
1.3595	6.74744
1.36	2.71912
1.3605	7.04956
1.361	4.83398
1.3615	4.22974
1.362	5.33752
1.3625	5.94177
1.363	5.23682
1.3635	4.63257
1.364	6.84814
1.3645	8.25806
1.365	6.94885
1.3655	4.22974
1.366	8.56018
1.3665	10.67505
1.367	5.53894
1.3675	3.22266
1.368	-0.70496
1.3685	-3.12195
1.369	-1.2085
1.3695	0.50354
1.37	-3.62549
1.3705	-1.10779
1.371	-8.05664
1.3715	-5.94177
1.372	-1.81274
1.3725	3.92761
1.373	8.66089
1.3735	6.3446
1.374	-0.40283
1.3745	2.31628
1.375	3.42407
1.3755	3.32336
1.376	3.8269
1.3765	-4.22974
1.377	-1.71204
1.3775	-0.10071
1.378	-2.92053
1.3785	-1.40991
1.379	3.12195
1.3795	5.23682
1.38	5.94177
1.3805	6.04248
1.381	1.91345
1.3815	6.94885
1.382	1.91345
1.3825	2.11487
1.383	5.43823
1.3835	-4.02832
1.384	-2.21558
1.3845	2.21558
1.385	6.54602
1.3855	3.92761
1.386	0.80566
1.3865	-4.43115
1.387	-2.11487
1.3875	-1.91345
1.388	1.00708
1.3885	-0.10071
1.389	3.8269
1.3895	10.97717
1.39	2.71912
1.3905	7.95593
1.391	6.74744
1.3915	3.52478
1.392	6.2439
1.3925	0.80566
1.393	1.81274
1.3935	7.35168
1.394	9.76868
1.3945	4.02832
1.395	9.56726
1.3955	3.62549
1.396	4.22974
1.3965	9.46655
1.397	1.61133
1.3975	1.61133
1.398	6.44531
1.3985	-1.71204
1.399	-0.30212
1.3995	-6.2439
1.4	-9.36584
1.4005	-3.7262
1.401	1.00708
1.4015	1.71204
1.402	3.12195
1.4025	2.81982
1.403	5.43823
1.4035	1.81274
1.404	0.50354
1.4045	5.74036
1.405	7.45239
1.4055	6.84814
1.406	9.66797
1.4065	1.51062
1.407	-5.94177
1.4075	-5.63965
1.408	-1.2085
1.4085	3.12195
1.409	2.11487
1.4095	5.84106
1.41	0.60425
1.4105	9.76868
1.411	4.73328
1.4115	9.76868
1.412	8.45947
1.4125	8.05664
1.413	10.77576
1.4135	12.5885
1.414	10.47363
1.4145	7.35168
1.415	1.61133
1.4155	5.33752
1.416	2.61841
1.4165	6.94885
1.417	-0.60425
1.4175	1.71204
1.418	10.77576
1.4185	4.02832
1.419	4.73328
1.4195	-0.90637
1.42	-0.30212
1.4205	-0.60425
1.421	2.01416
1.4215	3.22266
1.422	4.22974
1.4225	5.13611
1.423	5.43823
1.4235	4.63257
1.424	0.10071
1.4245	6.94885
1.425	2.11487
1.4255	5.33752
1.426	0.50354
1.4265	11.07788
1.427	6.54602
1.4275	6.3446
1.428	1.2085
1.4285	-0.20142
1.429	-0.70496
1.4295	11.78284
1.43	5.0354
1.4305	4.43115
1.431	-1.2085
1.4315	-3.62549
1.432	5.13611
1.4325	0.60425
1.433	1.91345
1.4335	-1.3092
1.434	3.7262
1.4345	2.92053
1.435	-2.61841
1.4355	-0.70496
1.436	-4.02832
1.4365	3.7262
1.437	1.3092
1.4375	5.63965
1.438	4.63257
1.4385	3.12195
1.439	8.45947
1.4395	6.74744
1.44	2.01416
1.4405	0.50354
1.441	-1.2085
1.4415	2.21558
1.442	1.10779
1.4425	1.10779
1.443	6.54602
1.4435	4.63257
1.444	-1.51062
1.4445	3.32336
1.445	3.42407
1.4455	4.93469
1.446	6.64673
1.4465	3.7262
1.447	0.20142
1.4475	2.41699
1.448	-3.22266
1.4485	-5.0354
1.449	-0.60425
1.4495	0
1.45	6.2439
1.4505	3.22266
1.451	11.07788
1.4515	8.05664
1.452	5.0354
1.4525	9.86938
1.453	6.3446
1.4535	4.63257
1.454	7.5531
1.4545	6.2439
1.455	5.63965
1.4555	11.38
1.456	8.45947
1.4565	9.56726
1.457	3.62549
1.4575	9.86938
1.458	11.07788
1.4585	5.13611
1.459	7.85522
1.4595	3.7262
1.46	6.2439
1.4605	7.15027
1.461	3.32336
1.4615	3.52478
1.462	7.85522
1.4625	4.53186
1.463	1.2085
1.4635	0.60425
1.464	2.92053
1.4645	3.7262
1.465	-3.12195
1.4655	2.61841
1.466	5.43823
1.4665	6.44531
1.467	7.75452
1.4675	5.33752
1.468	2.92053
1.4685	5.63965
1.469	4.33044
1.4695	-0.70496
1.47	6.3446
1.4705	2.61841
1.471	8.25806
1.4715	6.3446
1.472	7.04956
1.4725	5.84106
1.473	3.12195
1.4735	8.96301
1.474	6.54602
1.4745	3.8269
1.475	9.06372
1.4755	8.45947
1.476	8.25806
1.4765	4.02832
1.477	5.43823
1.4775	6.84814
1.478	3.22266
1.4785	10.0708
1.479	10.87646
1.4795	5.0354
1.48	9.76868
1.4805	6.3446
1.481	9.76868
1.4815	11.2793
1.482	8.35876
1.4825	5.94177
1.483	7.95593
1.4835	7.95593
1.484	8.15735
1.4845	7.35168
1.485	13.69629
1.4855	5.63965
1.486	2.31628
1.4865	3.62549
1.487	4.73328
1.4875	1.51062
1.488	0.90637
1.4885	8.45947
1.489	-3.02124
1.4895	2.92053
1.49	4.53186
1.4905	2.5177
1.491	4.43115
1.4915	5.33752
1.492	10.77576
1.4925	5.94177
1.493	7.35168
1.4935	5.23682
1.494	7.25098
1.4945	6.94885
1.495	5.74036
1.4955	4.02832
1.496	1.81274
1.4965	3.32336
1.497	7.65381
1.4975	15.40833
1.498	9.36584
1.4985	5.53894
1.499	10.27222
1.4995	2.71912
1.5	3.12195
1.5005	2.92053
1.501	3.8269
1.5015	6.64673
1.502	9.26514
1.5025	7.35168
1.503	3.7262
1.5035	2.21558
1.504	2.61841
1.5045	1.51062
1.505	3.62549
1.5055	0.90637
1.506	4.93469
1.5065	5.13611
1.507	9.86938
1.5075	2.21558
1.508	6.94885
1.5085	-1.40991
1.509	5.13611
1.5095	0.50354
1.51	3.62549
1.5105	5.33752
1.511	6.3446
1.5115	5.0354
1.512	1.81274
1.5125	0.60425
1.513	4.93469
1.5135	5.33752
1.514	3.12195
1.5145	6.04248
1.515	1.81274
1.5155	6.2439
1.516	1.51062
1.5165	2.92053
1.517	6.14319
1.5175	3.12195
1.518	11.17859
1.5185	8.45947
1.519	5.33752
1.5195	0.40283
1.52	2.21558
1.5205	3.62549
1.521	1.61133
1.5215	-1.40991
1.522	0.20142
1.5225	3.62549
1.523	7.45239
1.5235	2.81982
1.524	2.41699
1.5245	6.74744
1.525	3.32336
1.5255	4.63257
1.526	7.5531
1.5265	6.84814
1.527	0.60425
1.5275	-9.76868
1.528	0.90637
1.5285	5.23682
1.529	6.3446
1.5295	5.0354
1.53	2.11487
1.5305	3.42407
1.531	4.02832
1.5315	4.12903
1.532	3.02124
1.5325	6.14319
1.533	12.48779
1.5335	12.99133
1.534	8.66089
1.5345	7.45239
1.535	5.0354
1.5355	9.36584
1.536	5.23682
1.5365	5.74036
1.537	5.63965
1.5375	8.8623
1.538	4.02832
1.5385	-1.3092
1.539	1.10779
1.5395	5.43823
1.54	-0.20142
1.5405	0.20142
1.541	0.40283
1.5415	-2.21558
1.542	-1.51062
1.5425	2.11487
1.543	-1.61133
1.5435	-0.60425
1.544	7.65381
1.5445	9.56726
1.545	4.22974
1.5455	1.2085
1.546	5.33752
1.5465	7.25098
1.547	6.44531
1.5475	3.22266
1.548	8.25806
1.5485	11.2793
1.549	6.74744
1.5495	5.74036
1.55	4.02832
1.5505	5.43823
1.551	1.91345
1.5515	3.92761
1.552	5.74036
1.5525	6.2439
1.553	7.15027
1.5535	6.3446
1.554	4.02832
1.5545	3.52478
1.555	5.63965
1.5555	5.84106
1.556	3.7262
1.5565	2.92053
1.557	2.41699
1.5575	4.73328
1.558	7.35168
1.5585	6.2439
1.559	4.22974
1.5595	1.3092
1.56	4.63257
1.5605	8.25806
1.561	5.74036
1.5615	8.35876
1.562	4.53186
1.5625	0.90637
1.563	8.45947
1.5635	6.2439
1.564	2.11487
1.5645	2.31628
1.565	-1.00708
1.5655	4.63257
1.566	2.5177
1.5665	7.45239
1.567	1.00708
1.5675	-3.52478
1.568	-1.51062
1.5685	-4.22974
1.569	0.30212
1.5695	0.50354
1.57	4.83398
1.5705	1.91345
1.571	3.52478
1.5715	5.23682
1.572	2.31628
1.5725	7.15027
1.573	5.43823
1.5735	2.81982
1.574	6.64673
1.5745	5.13611
1.575	2.21558
1.5755	6.94885
1.576	1.91345
1.5765	8.15735
1.577	-2.5177
1.5775	3.92761
1.578	5.53894
1.5785	1.61133
1.579	7.45239
1.5795	7.65381
1.58	7.75452
1.5805	2.01416
1.581	0.80566
1.5815	3.7262
1.582	5.13611
1.5825	5.53894
1.583	5.63965
1.5835	4.73328
1.584	4.43115
1.5845	8.66089
1.585	2.31628
1.5855	3.8269
1.586	7.45239
1.5865	2.41699
1.587	2.92053
1.5875	5.43823
1.588	1.10779
1.5885	7.75452
1.589	6.2439
1.5895	4.22974
1.59	1.71204
1.5905	2.41699
1.591	8.96301
1.5915	6.84814
1.592	6.94885
1.5925	6.74744
1.593	7.04956
1.5935	3.42407
1.594	8.66089
1.5945	2.71912
1.595	5.0354
1.5955	3.22266
1.596	-3.32336
1.5965	1.40991
1.597	6.04248
1.5975	-2.41699
1.598	0.90637
1.5985	4.73328
1.599	-0.20142
1.5995	1.3092
1.6	2.31628
1.6005	6.74744
1.601	5.84106
1.6015	5.53894
1.602	4.73328
1.6025	4.83398
1.603	4.63257
1.6035	6.44531
1.604	2.31628
1.6045	5.53894
1.605	-1.10779
1.6055	2.21558
1.606	0.20142
1.6065	-1.61133
1.607	0.10071
1.6075	4.83398
1.608	7.65381
1.6085	4.12903
1.609	5.53894
1.6095	6.84814
1.61	3.32336
1.6105	4.73328
1.611	4.83398
1.6115	4.73328
1.612	1.71204
1.6125	-0.40283
1.613	1.81274
1.6135	3.02124
1.614	0.70496
1.6145	1.2085
1.615	1.71204
1.6155	-0.90637
1.616	0.60425
1.6165	5.23682
1.617	4.73328
1.6175	3.92761
1.618	4.53186
1.6185	1.40991
1.619	3.22266
1.6195	-0.40283
1.62	4.22974
1.6205	3.22266
1.621	5.63965
1.6215	-4.02832
1.622	1.71204
1.6225	1.10779
1.623	-0.80566
1.6235	1.61133
1.624	-0.20142
1.6245	6.54602
1.625	8.25806
1.6255	4.02832
1.626	5.84106
1.6265	9.97009
1.627	9.26514
1.6275	7.45239
1.628	6.04248
1.6285	3.42407
1.629	1.2085
1.6295	6.84814
1.63	1.40991
1.6305	5.0354
1.631	10.77576
1.6315	4.12903
1.632	2.61841
1.6325	1.3092
1.633	-2.11487
1.6335	6.04248
1.634	1.10779
1.6345	0.30212
1.635	2.01416
1.6355	-0.30212
1.636	-1.3092
1.6365	-2.61841
1.637	-0.20142
1.6375	2.31628
1.638	-1.40991
1.6385	-1.3092
1.639	3.22266
1.6395	8.25806
1.64	3.32336
1.6405	5.84106
1.641	0.70496
1.6415	3.42407
1.642	7.85522
1.6425	10.17151
1.643	5.0354
1.6435	0.90637
1.644	5.43823
1.6445	6.04248
1.645	4.83398
1.6455	0.90637
1.646	1.10779
1.6465	2.92053
1.647	10.97717
1.6475	7.85522
1.648	1.91345
1.6485	5.0354
1.649	4.63257
1.6495	4.93469
1.65	0.60425
1.6505	-1.10779
1.651	-2.5177
1.6515	-0.70496
1.652	-1.81274
1.6525	1.51062
1.653	-3.8269
1.6535	3.22266
1.654	5.43823
1.6545	2.5177
1.655	6.54602
1.6555	6.84814
1.656	2.21558
1.6565	1.40991
1.657	4.83398
1.6575	3.62549
1.658	5.0354
1.6585	8.05664
1.659	4.73328
1.6595	1.51062
1.66	3.12195
1.6605	12.89062
1.661	5.0354
1.6615	11.38
1.662	5.43823
1.6625	7.5531
1.663	12.18567
1.6635	8.25806
1.664	7.75452
1.6645	5.94177
1.665	6.44531
1.6655	10.37292
1.666	10.77576
1.6665	4.02832
1.667	4.12903
1.6675	5.33752
1.668	7.5531
1.6685	2.81982
1.669	6.14319
1.6695	4.83398
1.67	2.92053
1.6705	5.43823
1.671	7.5531
1.6715	5.0354
1.672	7.85522
1.6725	3.8269
1.673	11.98425
1.6735	3.92761
1.674	6.74744
1.6745	3.02124
1.675	3.12195
1.6755	3.7262
1.676	7.25098
1.6765	3.32336
1.677	4.73328
1.6775	4.73328
1.678	-1.00708
1.6785	4.53186
1.679	6.3446
1.6795	-0.30212
1.68	6.14319
1.6805	4.02832
1.681	7.04956
1.6815	1.91345
1.682	4.33044
1.6825	5.43823
1.683	5.0354
1.6835	9.97009
1.684	5.84106
1.6845	5.33752
1.685	7.15027
1.6855	6.94885
1.686	5.33752
1.6865	2.71912
1.687	2.21558
1.6875	5.43823
1.688	1.61133
1.6885	3.8269
1.689	6.2439
1.6895	6.74744
1.69	5.33752
1.6905	7.5531
1.691	9.66797
1.6915	12.89062
1.692	10.67505
1.6925	12.78992
1.693	7.75452
1.6935	14.09912
1.694	12.68921
1.6945	9.06372
1.695	12.18567
1.6955	5.33752
1.696	8.96301
1.6965	8.25806
1.697	5.84106
1.6975	8.56018
1.698	4.53186
1.6985	8.7616
1.699	7.25098
1.6995	3.92761
1.7	8.7616
1.7005	7.25098
1.701	6.84814
1.7015	5.43823
1.702	7.95593
1.7025	11.38
1.703	6.44531
1.7035	6.3446
1.704	11.78284
1.7045	6.2439
1.705	8.35876
1.7055	8.35876
1.706	4.93469
1.7065	4.93469
1.707	6.64673
1.7075	6.14319
1.708	4.22974
1.7085	8.7616
1.709	8.05664
1.7095	4.73328
1.71	5.33752
1.7105	11.2793
1.711	10.57434
1.7115	6.14319
1.712	5.63965
1.7125	3.32336
1.713	2.81982
1.7135	4.12903
1.714	7.65381
1.7145	2.81982
1.715	2.5177
1.7155	4.93469
1.716	11.48071
1.7165	4.83398
1.717	3.8269
1.7175	3.42407
1.718	7.35168
1.7185	8.25806
1.719	11.17859
1.7195	11.17859
1.72	12.38708
1.7205	10.87646
1.721	5.33752
1.7215	6.64673
1.722	10.47363
1.7225	7.65381
1.723	3.7262
1.7235	2.41699
1.724	5.53894
1.7245	3.62549
1.725	8.05664
1.7255	6.54602
1.726	9.26514
1.7265	9.46655
1.727	5.0354
1.7275	8.56018
1.728	2.92053
1.7285	1.71204
1.729	1.40991
1.7295	2.71912
1.73	8.66089
1.7305	10.87646
1.731	6.14319
1.7315	4.73328
1.732	6.84814
1.7325	4.63257
1.733	3.22266
1.7335	7.45239
1.734	3.62549
1.7345	9.97009
1.735	8.56018
1.7355	5.94177
1.736	4.73328
1.7365	11.38
1.737	7.5531
1.7375	10.87646
1.738	4.02832
1.7385	12.89062
1.739	4.63257
1.7395	6.94885
1.74	10.67505
1.7405	8.56018
1.741	5.84106
1.7415	11.07788
1.742	14.70337
1.7425	8.56018
1.743	14.30054
1.7435	13.59558
1.744	15.50903
1.7445	15.20691
1.745	14.09912
1.7455	13.19275
1.746	10.77576
1.7465	10.27222
1.747	12.78992
1.7475	13.09204
1.748	16.51611
1.7485	18.53027
1.749	8.56018
1.7495	10.67505
1.75	12.99133
1.7505	11.07788
1.751	8.96301
1.7515	14.90479
1.752	11.98425
1.7525	14.40125
1.753	13.29346
1.7535	13.797
1.754	12.08496
1.7545	15.1062
1.755	14.90479
1.7555	19.03381
1.756	22.35718
1.7565	23.66638
1.757	20.24231
1.7575	16.11328
1.758	13.29346
1.7585	21.95435
1.759	19.63806
1.7595	20.54443
1.76	21.85364
1.7605	18.63098
1.761	16.11328
1.7615	16.11328
1.762	15.40833
1.7625	16.3147
1.763	17.82532
1.7635	13.59558
1.764	11.2793
1.7645	18.63098
1.765	14.50195
1.7655	17.01965
1.766	13.99841
1.7665	10.77576
1.767	9.26514
1.7675	15.50903
1.768	15.30762
1.7685	19.73877
1.769	17.32178
1.7695	15.20691
1.77	18.42957
1.7705	18.42957
1.771	13.89771
1.7715	17.72461
1.772	12.89062
1.7725	13.19275
1.773	12.48779
1.7735	12.38708
1.774	14.40125
1.7745	20.1416
1.775	21.3501
1.7755	15.71045
1.776	16.51611
1.7765	10.57434
1.777	5.0354
1.7775	4.22974
1.778	12.99133
1.7785	13.39417
1.779	11.07788
1.7795	11.68213
1.78	10.0708
1.7805	8.7616
1.781	7.04956
1.7815	12.5885
1.782	13.99841
1.7825	12.38708
1.783	16.21399
1.7835	11.68213
1.784	12.99133
1.7845	13.99841
1.785	12.08496
1.7855	10.37292
1.786	13.59558
1.7865	12.68921
1.787	8.8623
1.7875	8.66089
1.788	14.09912
1.7885	14.50195
1.789	11.78284
1.7895	9.46655
1.79	13.59558
1.7905	9.66797
1.791	10.37292
1.7915	12.68921
1.792	2.31628
1.7925	3.7262
1.793	13.09204
1.7935	5.63965
1.794	5.94177
1.7945	4.22974
1.795	6.54602
1.7955	6.74744
1.796	9.36584
1.7965	10.67505
1.797	6.04248
1.7975	6.54602
1.798	6.64673
1.7985	5.94177
1.799	3.02124
1.7995	5.23682
1.8	4.83398
1.8005	9.16443
1.801	6.74744
1.8015	0.50354
1.802	7.5531
1.8025	4.43115
1.803	3.52478
1.8035	6.74744
1.804	10.67505
1.8045	10.17151
1.805	6.94885
1.8055	4.02832
1.806	6.64673
1.8065	0.60425
1.807	9.06372
1.8075	6.84814
1.808	2.11487
1.8085	7.45239
1.809	4.63257
1.8095	7.35168
1.81	8.25806
1.8105	6.64673
1.811	4.02832
1.8115	-5.94177
1.812	-1.40991
1.8125	3.7262
1.813	2.41699
1.8135	5.94177
1.814	4.53186
1.8145	5.43823
1.815	6.94885
1.8155	1.61133
1.816	1.51062
1.8165	4.73328
1.817	5.33752
1.8175	5.13611
1.818	9.76868
1.8185	8.35876
1.819	7.65381
1.8195	10.87646
1.82	9.16443
1.8205	7.95593
1.821	5.0354
1.8215	7.15027
1.822	11.17859
1.8225	10.0708
1.823	5.63965
1.8235	6.84814
1.824	8.15735
1.8245	3.12195
1.825	7.65381
1.8255	4.12903
1.826	2.21558
1.8265	5.23682
1.827	4.73328
1.8275	6.2439
1.828	11.07788
1.8285	13.29346
1.829	8.7616
1.8295	7.75452
1.83	4.73328
1.8305	6.54602
1.831	5.84106
1.8315	7.35168
1.832	4.83398
1.8325	4.43115
1.833	6.84814
1.8335	4.33044
1.834	5.0354
1.8345	10.57434
1.835	5.33752
1.8355	7.75452
1.836	3.62549
1.8365	8.45947
1.837	4.83398
1.8375	8.45947
1.838	2.21558
1.8385	4.12903
1.839	2.21558
1.8395	3.32336
1.84	4.12903
1.8405	5.53894
1.841	9.66797
1.8415	10.0708
1.842	8.25806
1.8425	3.52478
1.843	1.00708
1.8435	2.71912
1.844	8.66089
1.8445	3.32336
1.845	3.8269
1.8455	0.40283
1.846	-0.20142
1.8465	-3.8269
1.847	7.45239
1.8475	0.70496
1.848	7.04956
1.8485	7.04956
1.849	5.94177
1.8495	6.64673
1.85	0.10071
1.8505	7.65381
1.851	7.25098
1.8515	2.92053
1.852	6.2439
1.8525	4.53186
1.853	1.51062
1.8535	7.25098
1.854	4.12903
1.8545	4.93469
1.855	5.74036
1.8555	-3.42407
1.856	2.01416
1.8565	5.53894
1.857	-0.70496
1.8575	1.2085
1.858	3.62549
1.8585	5.43823
1.859	-3.7262
1.8595	-1.81274
1.86	2.61841
1.8605	-1.3092
1.861	1.71204
1.8615	3.62549
1.862	3.62549
1.8625	1.2085
1.863	1.00708
1.8635	3.42407
1.864	2.92053
1.8645	4.63257
1.865	0.30212
1.8655	5.43823
1.866	3.52478
1.8665	2.21558
1.867	2.21558
1.8675	9.86938
1.868	5.23682
1.8685	5.13611
1.869	3.52478
1.8695	4.22974
1.87	-1.3092
1.8705	-2.11487
1.871	3.8269
1.8715	2.11487
1.872	3.22266
1.8725	5.84106
1.873	5.13611
1.8735	1.91345
1.874	4.83398
1.8745	0.30212
1.875	7.45239
1.8755	4.83398
1.876	-2.61841
1.8765	2.71912
1.877	4.93469
1.8775	0.50354
1.878	5.74036
1.8785	1.10779
1.879	7.95593
1.8795	7.95593
1.88	2.01416
1.8805	3.8269
1.881	7.5531
1.8815	1.61133
1.882	0.50354
1.8825	3.02124
1.883	0.50354
1.8835	2.61841
1.884	0.70496
1.8845	1.81274
1.885	3.92761
1.8855	3.22266
1.886	6.04248
1.8865	1.10779
1.887	2.61841
1.8875	-1.00708
1.888	-1.71204
1.8885	-4.33044
1.889	-4.63257
1.8895	-2.01416
1.89	2.81982
1.8905	2.81982
1.891	3.12195
1.8915	3.42407
1.892	5.84106
1.8925	4.93469
1.893	9.26514
1.8935	8.8623
1.894	12.89062
1.8945	12.48779
1.895	8.56018
1.8955	0.30212
1.896	6.94885
1.8965	3.32336
1.897	2.21558
1.8975	-0.60425
1.898	3.92761
1.8985	0.20142
1.899	4.63257
1.8995	4.33044
1.9	9.46655
1.9005	12.78992
1.901	7.85522
1.9015	14.30054
1.902	11.68213
1.9025	12.08496
1.903	9.86938
1.9035	17.92603
1.904	8.96301
1.9045	11.38
1.905	9.46655
1.9055	6.14319
1.906	2.81982
1.9065	-6.54602
1.907	-8.15735
1.9075	-11.98425
1.908	-6.14319
1.9085	-1.2085
1.909	0.10071
1.9095	5.53894
1.91	5.23682
1.9105	5.13611
1.911	8.66089
1.9115	7.85522
1.912	11.68213
1.9125	6.64673
1.913	5.0354
1.9135	8.15735
1.914	4.83398
1.9145	7.15027
1.915	8.8623
1.9155	0.40283
1.916	-0.10071
1.9165	4.93469
1.917	5.23682
1.9175	-1.51062
1.918	-2.01416
1.9185	-6.94885
1.919	-3.52478
1.9195	-2.71912
1.92	-3.42407
1.9205	-0.60425
1.921	-4.73328
1.9215	-5.63965
1.922	-8.35876
1.9225	-7.35168
1.923	-0.80566
1.9235	2.41699
1.924	2.71912
1.9245	-2.41699
1.925	-6.3446
1.9255	-3.62549
1.926	-1.81274
1.9265	-3.02124
1.927	-1.91345
1.9275	2.41699
1.928	-3.52478
1.9285	-0.60425
1.929	0.20142
1.9295	6.64673
1.93	5.13611
1.9305	1.81274
1.931	9.06372
1.9315	4.43115
1.932	1.10779
1.9325	2.31628
1.933	8.56018
1.9335	10.0708
1.934	7.95593
1.9345	9.76868
1.935	5.94177
1.9355	7.15027
1.936	9.97009
1.9365	8.05664
1.937	6.54602
1.9375	6.3446
1.938	11.07788
1.9385	13.39417
1.939	14.60266
1.9395	17.12036
1.94	10.77576
1.9405	12.08496
1.941	11.88354
1.9415	15.60974
1.942	13.39417
1.9425	11.2793
1.943	14.09912
1.9435	13.09204
1.944	19.63806
1.9445	18.22815
1.945	15.1062
1.9455	18.73169
1.946	17.12036
1.9465	8.8623
1.947	4.02832
1.9475	-0.60425
1.948	-1.81274
1.9485	-0.80566
1.949	-3.22266
1.9495	-5.94177
1.95	-3.62549
1.9505	0.30212
1.951	-1.10779
1.9515	-3.52478
1.952	0.70496
1.9525	7.75452
1.953	11.58142
1.9535	11.07788
1.954	8.35876
1.9545	11.17859
1.955	10.47363
1.9555	6.04248
1.956	11.88354
1.9565	7.85522
1.957	8.45947
1.9575	2.92053
1.958	4.73328
1.9585	4.53186
1.959	4.93469
1.9595	3.8269
1.96	6.64673
1.9605	6.44531
1.961	9.56726
1.9615	7.95593
1.962	10.47363
1.9625	10.37292
1.963	10.97717
1.9635	11.48071
1.964	9.46655
1.9645	9.56726
1.965	12.89062
1.9655	9.06372
1.966	12.28638
1.9665	15.1062
1.967	12.08496
1.9675	10.77576
1.968	10.37292
1.9685	7.25098
1.969	5.53894
1.9695	2.71912
1.97	5.0354
1.9705	-2.92053
1.971	-6.44531
1.9715	-7.45239
1.972	-8.05664
1.9725	-2.5177
1.973	-1.61133
1.9735	-2.61841
1.974	-1.71204
1.9745	4.22974
1.975	0.80566
1.9755	2.21558
1.976	3.92761
1.9765	4.73328
1.977	3.7262
1.9775	3.22266
1.978	-2.21558
1.9785	4.63257
1.979	2.71912
1.9795	-1.51062
1.98	4.43115
1.9805	1.71204
1.981	4.53186
1.9815	6.84814
1.982	4.73328
1.9825	3.92761
1.983	5.53894
1.9835	5.0354
1.984	6.3446
1.9845	10.67505
1.985	9.36584
1.9855	14.60266
1.986	3.22266
1.9865	6.2439
1.987	5.94177
1.9875	11.2793
1.988	8.35876
1.9885	10.57434
1.989	11.2793
1.9895	7.75452
1.99	9.26514
1.9905	12.68921
1.991	7.35168
1.9915	7.5531
1.992	15.1062
1.9925	16.51611
1.993	22.96143
1.9935	16.41541
1.994	16.71753
1.9945	13.59558
1.995	14.40125
1.9955	15.81116
1.996	13.89771
1.9965	7.95593
1.997	3.7262
1.9975	2.11487
1.998	7.45239
1.9985	11.48071
1.999	7.45239
1.9995	12.38708
2	10.97717
2.0005	18.63098
2.001	16.01257
2.0015	17.6239
2.002	11.88354
2.0025	11.48071
2.003	3.12195
2.0035	6.14319
2.004	-3.92761
2.0045	-14.19983
2.005	-10.47363
2.0055	-5.13611
2.006	-4.53186
2.0065	-2.21558
2.007	-5.63965
2.0075	-7.65381
2.008	-12.28638
2.0085	-9.36584
2.009	-8.25806
2.0095	-5.43823
2.01	0.10071
2.0105	3.02124
2.011	5.13611
2.0115	13.49487
2.012	8.15735
2.0125	9.56726
2.013	9.46655
2.0135	7.5531
2.014	6.2439
2.0145	7.5531
2.015	3.42407
2.0155	-0.50354
2.016	5.13611
2.0165	-0.80566
2.017	-1.10779
2.0175	-3.02124
2.018	0
2.0185	2.11487
2.019	7.65381
2.0195	2.71912
2.02	3.52478
2.0205	5.84106
2.021	5.43823
2.0215	4.33044
2.022	4.02832
2.0225	4.43115
2.023	6.3446
2.0235	7.75452
2.024	-2.31628
2.0245	1.2085
2.025	8.45947
2.0255	2.61841
2.026	4.83398
2.0265	6.3446
2.027	2.21558
2.0275	14.09912
2.028	10.17151
2.0285	7.95593
2.029	7.04956
2.0295	6.64673
2.03	5.43823
2.0305	10.47363
2.031	7.45239
2.0315	8.25806
2.032	6.04248
2.0325	10.57434
2.033	13.59558
2.0335	9.97009
2.034	12.68921
2.0345	6.64673
2.035	7.95593
2.0355	11.58142
2.036	10.37292
2.0365	14.19983
2.037	11.68213
2.0375	14.30054
2.038	6.74744
2.0385	9.56726
2.039	11.48071
2.0395	19.13452
2.04	12.99133
2.0405	13.09204
2.041	8.45947
2.0415	6.14319
2.042	11.68213
2.0425	12.5885
2.043	16.81824
2.0435	18.93311
2.044	21.04797
2.0445	17.01965
2.045	19.23523
2.0455	17.52319
2.046	13.99841
2.0465	10.47363
2.047	-0.40283
2.0475	-7.75452
2.048	-10.77576
2.0485	-11.17859
2.049	-6.14319
2.0495	1.51062
2.05	3.32336
2.0505	9.06372
2.051	9.16443
2.0515	1.51062
2.052	5.0354
2.0525	6.04248
2.053	2.41699
2.0535	8.25806
2.054	6.3446
2.0545	9.46655
2.055	0
2.0555	2.41699
2.056	8.66089
2.0565	7.35168
2.057	4.63257
2.0575	8.7616
2.058	9.46655
2.0585	8.8623
2.059	5.63965
2.0595	7.65381
2.06	12.08496
2.0605	13.49487
2.061	9.06372
2.0615	8.8623
2.062	10.67505
2.0625	11.58142
2.063	15.60974
2.0635	12.99133
2.064	16.01257
2.0645	15.50903
2.065	11.17859
2.0655	14.60266
2.066	12.5885
2.0665	7.35168
2.067	9.86938
2.0675	7.04956
2.068	20.64514
2.0685	13.09204
2.069	8.8623
2.0695	12.18567
2.07	9.36584
2.0705	14.09912
2.071	9.97009
2.0715	7.15027
2.072	9.56726
2.0725	5.94177
2.073	7.85522
2.0735	10.0708
2.074	12.78992
2.0745	8.96301
2.075	11.78284
2.0755	7.75452
2.076	6.3446
2.0765	2.71912
2.077	5.13611
2.0775	5.0354
2.078	8.25806
2.0785	8.56018
2.079	10.47363
2.0795	9.56726
2.08	11.88354
2.0805	7.5531
2.081	11.48071
2.0815	12.08496
2.082	8.15735
2.0825	10.77576
2.083	9.86938
2.0835	6.14319
2.084	7.65381
2.0845	14.40125
2.085	10.0708
2.0855	14.09912
2.086	15.30762
2.0865	12.28638
2.087	13.59558
2.0875	7.25098
2.088	13.59558
2.0885	9.76868
2.089	10.0708
2.0895	12.48779
2.09	11.17859
2.0905	9.86938
2.091	11.88354
2.0915	14.70337
2.092	9.66797
2.0925	11.2793
2.093	10.27222
2.0935	10.67505
2.094	10.67505
2.0945	13.29346
2.095	7.5531
2.0955	6.2439
2.096	9.66797
2.0965	7.95593
2.097	10.37292
2.0975	8.15735
2.098	11.98425
2.0985	10.97717
2.099	11.98425
2.0995	9.66797
2.1	14.40125
2.1005	8.96301
2.101	5.13611
2.1015	7.25098
2.102	6.74744
2.1025	5.94177
2.103	9.46655
2.1035	5.13611
2.104	8.56018
2.1045	4.63257
2.105	-0.10071
2.1055	6.3446
2.106	4.02832
2.1065	8.7616
2.107	4.12903
2.1075	6.84814
2.108	13.89771
2.1085	8.35876
2.109	12.18567
2.1095	11.68213
2.11	16.91895
2.1105	14.80408
2.111	13.49487
2.1115	15.50903
2.112	15.1062
2.1125	15.81116
2.113	16.21399
2.1135	13.89771
2.114	9.86938
2.1145	8.56018
2.115	17.92603
2.1155	13.69629
2.116	12.68921
2.1165	8.96301
2.117	11.2793
2.1175	11.68213
2.118	10.77576
2.1185	5.23682
2.119	4.53186
2.1195	6.94885
2.12	2.92053
2.1205	9.36584
2.121	10.57434
2.1215	10.47363
2.122	5.63965
2.1225	6.2439
2.123	7.5531
2.1235	2.01416
2.124	3.12195
2.1245	-0.80566
2.125	6.84814
2.1255	4.63257
2.126	8.8623
2.1265	13.09204
2.127	11.98425
2.1275	6.64673
2.128	5.84106
2.1285	4.73328
2.129	-3.02124
2.1295	2.11487
2.13	3.02124
2.1305	0.40283
2.131	4.53186
2.1315	6.54602
2.132	5.43823
2.1325	13.09204
2.133	3.52478
2.1335	8.35876
2.134	5.63965
2.1345	6.74744
2.135	5.53894
2.1355	11.48071
2.136	13.19275
2.1365	15.81116
2.137	19.73877
2.1375	11.38
2.138	9.56726
2.1385	11.78284
2.139	12.78992
2.1395	11.07788
2.14	11.2793
2.1405	10.47363
2.141	14.30054
2.1415	13.59558
2.142	16.41541
2.1425	8.25806
2.143	12.48779
2.1435	15.20691
2.144	6.94885
2.1445	8.35876
2.145	6.94885
2.1455	3.22266
2.146	8.45947
2.1465	9.56726
2.147	7.5531
2.1475	10.87646
2.148	13.29346
2.1485	14.30054
2.149	7.95593
2.1495	12.89062
2.15	11.98425
2.1505	8.35876
2.151	7.65381
2.1515	5.94177
2.152	5.94177
2.1525	8.7616
2.153	11.17859
2.1535	15.00549
2.154	11.07788
2.1545	11.17859
2.155	10.17151
2.1555	9.46655
2.156	8.7616
2.1565	5.53894
2.157	12.78992
2.1575	16.41541
2.158	13.39417
2.1585	6.54602
2.159	6.64673
2.1595	9.76868
2.16	7.45239
2.1605	8.56018
2.161	7.65381
2.1615	4.12903
2.162	9.26514
2.1625	9.16443
2.163	6.44531
2.1635	0.80566
2.164	3.62549
2.1645	5.74036
2.165	6.84814
2.1655	6.44531
2.166	10.37292
2.1665	10.97717
2.167	10.17151
2.1675	12.38708
2.168	2.81982
2.1685	5.94177
2.169	9.16443
2.1695	9.06372
2.17	5.53894
2.1705	4.33044
2.171	14.50195
2.1715	12.78992
2.172	10.77576
2.1725	5.84106
2.173	2.71912
2.1735	10.27222
2.174	14.80408
2.1745	9.76868
2.175	17.22107
2.1755	9.97009
2.176	6.64673
2.1765	9.46655
2.177	8.96301
2.1775	9.06372
2.178	8.35876
2.1785	3.62549
2.179	0.80566
2.1795	5.13611
2.18	6.14319
2.1805	5.63965
2.181	7.15027
2.1815	12.99133
2.182	13.19275
2.1825	5.0354
2.183	9.46655
2.1835	10.47363
2.184	12.38708
2.1845	5.74036
2.185	9.16443
2.1855	10.97717
2.186	9.76868
2.1865	6.94885
2.187	7.04956
2.1875	10.47363
2.188	9.46655
2.1885	10.0708
2.189	10.87646
2.1895	10.17151
2.19	13.797
2.1905	8.96301
2.191	13.69629
2.1915	13.89771
2.192	8.45947
2.1925	3.62549
2.193	6.2439
2.1935	8.05664
2.194	6.64673
2.1945	0.70496
2.195	1.10779
2.1955	2.01416
2.196	1.91345
2.1965	1.40991
2.197	3.7262
2.1975	3.42407
2.198	5.33752
2.1985	1.00708
2.199	2.31628
2.1995	1.51062
2.2	4.93469
2.2005	7.65381
2.201	4.33044
2.2015	7.15027
2.202	2.92053
2.2025	10.87646
2.203	7.25098
2.2035	-0.60425
2.204	3.52478
2.2045	2.31628
2.205	1.2085
2.2055	5.84106
2.206	-3.22266
2.2065	7.35168
2.207	6.14319
2.2075	3.8269
2.208	8.56018
2.2085	9.16443
2.209	7.45239
2.2095	8.7616
2.21	9.46655
2.2105	7.5531
2.211	1.10779
2.2115	3.8269
2.212	3.8269
2.2125	3.7262
2.213	2.71912
2.2135	0.20142
2.214	7.25098
2.2145	4.83398
2.215	0.80566
2.2155	0.90637
2.216	5.63965
2.2165	2.31628
2.217	3.42407
2.2175	2.61841
2.218	4.83398
2.2185	8.25806
2.219	3.8269
2.2195	2.41699
2.22	-4.53186
2.2205	1.2085
2.221	7.15027
2.2215	2.81982
2.222	2.71912
2.2225	4.12903
2.223	6.54602
2.2235	5.33752
2.224	-0.20142
2.2245	7.35168
2.225	5.94177
2.2255	2.61841
2.226	-4.53186
2.2265	-1.2085
2.227	2.61841
2.2275	0.90637
2.228	2.61841
2.2285	7.04956
2.229	6.94885
2.2295	7.85522
2.23	4.63257
2.2305	-0.50354
2.231	7.04956
2.2315	5.53894
2.232	8.05664
2.2325	9.06372
2.233	5.43823
2.2335	8.96301
2.234	5.43823
2.2345	5.84106
2.235	4.22974
2.2355	-3.62549
2.236	4.22974
2.2365	2.21558
2.237	2.92053
2.2375	4.33044
2.238	2.92053
2.2385	11.07788
2.239	-0.20142
2.2395	3.92761
2.24	0.30212
2.2405	6.2439
2.241	1.51062
2.2415	3.7262
2.242	2.61841
2.2425	2.11487
2.243	1.91345
2.2435	5.23682
2.244	9.06372
2.2445	1.61133
2.245	-6.2439
2.2455	4.43115
2.246	2.41699
2.2465	3.42407
2.247	3.22266
2.2475	2.21558
2.248	1.00708
2.2485	-0.50354
2.249	-0.90637
2.2495	-2.01416
2.25	2.92053
2.2505	1.81274
2.251	2.61841
2.2515	7.75452
2.252	2.81982
2.2525	0.30212
2.253	0.70496
2.2535	4.73328
2.254	2.31628
2.2545	4.53186
2.255	1.3092
2.2555	-0.40283
2.256	2.61841
2.2565	1.3092
2.257	2.81982
2.2575	-1.61133
2.258	0.90637
2.2585	2.11487
2.259	0.70496
2.2595	1.00708
2.26	-1.81274
2.2605	-4.22974
2.261	-2.21558
2.2615	2.31628
2.262	3.62549
2.2625	2.31628
2.263	1.00708
2.2635	3.42407
2.264	-8.05664
2.2645	0.10071
2.265	1.00708
2.2655	5.43823
2.266	5.0354
2.2665	11.2793
2.267	4.53186
2.2675	5.84106
2.268	2.21558
2.2685	1.81274
2.269	2.01416
2.2695	7.75452
2.27	4.73328
2.2705	3.92761
2.271	7.04956
2.2715	4.12903
2.272	1.71204
2.2725	-1.40991
2.273	-3.62549
2.2735	2.11487
2.274	-0.10071
2.2745	3.42407
2.275	-1.91345
2.2755	3.02124
2.276	2.21558
2.2765	3.62549
2.277	0.50354
2.2775	2.31628
2.278	2.92053
2.2785	6.14319
2.279	0.70496
2.2795	4.63257
2.28	4.12903
2.2805	5.53894
2.281	0.80566
2.2815	1.71204
2.282	0.60425
2.2825	2.11487
2.283	5.0354
2.2835	-0.60425
2.284	0.20142
2.2845	7.04956
2.285	2.5177
2.2855	-3.22266
2.286	-1.40991
2.2865	-5.0354
2.287	0.20142
2.2875	8.25806
2.288	1.3092
2.2885	1.3092
2.289	-2.71912
2.2895	0
2.29	3.22266
2.2905	-0.10071
2.291	-2.11487
2.2915	0.10071
2.292	0.20142
2.2925	4.22974
2.293	5.94177
2.2935	2.41699
2.294	-1.2085
2.2945	4.93469
2.295	6.3446
2.2955	0.30212
2.296	-3.22266
2.2965	4.63257
2.297	3.42407
2.2975	0.10071
2.298	2.11487
2.2985	-2.21558
2.299	0.70496
2.2995	2.41699
2.3	1.40991
2.3005	4.83398
2.301	4.53186
2.3015	6.54602
2.302	-1.91345
2.3025	1.71204
2.303	-0.50354
2.3035	-0.10071
2.304	-3.22266
2.3045	-1.61133
2.305	-3.32336
2.3055	0.80566
2.306	-3.8269
2.3065	-3.92761
2.307	-1.51062
2.3075	-6.3446
2.308	-0.30212
2.3085	-1.91345
2.309	2.81982
2.3095	0.40283
2.31	2.21558
2.3105	0.10071
2.311	-0.30212
2.3115	-2.81982
2.312	1.91345
2.3125	1.81274
2.313	-4.63257
2.3135	-1.40991
2.314	-2.31628
2.3145	-0.10071
2.315	2.61841
2.3155	-1.71204
2.316	-8.05664
2.3165	-3.7262
2.317	-1.81274
2.3175	-1.51062
2.318	3.92761
2.3185	3.52478
2.319	6.04248
2.3195	1.3092
2.32	-0.60425
2.3205	0.70496
2.321	-2.41699
2.3215	1.10779
2.322	5.0354
2.3225	1.2085
2.323	-1.3092
2.3235	-0.50354
2.324	1.71204
2.3245	-4.73328
2.325	-0.90637
2.3255	3.92761
2.326	-3.62549
2.3265	2.41699
2.327	-0.70496
2.3275	5.84106
2.328	3.42407
2.3285	-3.42407
2.329	-0.80566
2.3295	-3.12195
2.33	-0.60425
2.3305	3.8269
2.331	-3.52478
2.3315	-0.60425
2.332	0.70496
2.3325	0.30212
2.333	5.94177
2.3335	4.93469
2.334	-2.11487
2.3345	-0.50354
2.335	-2.5177
2.3355	-1.91345
2.336	-0.80566
2.3365	1.10779
2.337	2.01416
2.3375	1.61133
2.338	2.11487
2.3385	7.35168
2.339	-1.40991
2.3395	3.62549
2.34	3.32336
2.3405	5.74036
2.341	0.30212
2.3415	-2.5177
2.342	-4.12903
2.3425	-0.40283
2.343	-0.50354
2.3435	3.12195
2.344	-1.00708
2.3445	-3.8269
2.345	-2.81982
2.3455	2.31628
2.346	3.42407
2.3465	-1.10779
2.347	3.8269
2.3475	-0.30212
2.348	1.10779
2.3485	2.41699
2.349	-1.91345
2.3495	0.40283
2.35	-3.62549
2.3505	-1.2085
2.351	2.61841
2.3515	5.13611
2.352	0.80566
2.3525	-1.3092
2.353	0.80566
2.3535	-0.80566
2.354	-3.62549
2.3545	2.01416
2.355	2.01416
2.3555	1.00708
2.356	0.70496
2.3565	8.96301
2.357	2.81982
2.3575	-1.3092
2.358	1.61133
2.3585	3.62549
2.359	-2.71912
2.3595	-0.40283
2.36	1.00708
2.3605	2.5177
2.361	7.5531
2.3615	6.14319
2.362	0.10071
2.3625	0
2.363	-1.2085
2.3635	-3.32336
2.364	4.93469
2.3645	6.44531
2.365	6.54602
2.3655	2.61841
2.366	5.43823
2.3665	5.74036
2.367	4.83398
2.3675	4.22974
2.368	2.41699
2.3685	-0.60425
2.369	-1.40991
2.3695	0.80566
2.37	2.31628
2.3705	-0.90637
2.371	-1.61133
2.3715	-3.12195
2.372	4.22974
2.3725	0.80566
2.373	2.31628
2.3735	4.22974
2.374	-2.71912
2.3745	3.8269
2.375	4.63257
2.3755	3.32336
2.376	3.32336
2.3765	1.71204
2.377	-2.61841
2.3775	2.11487
2.378	-1.10779
2.3785	2.31628
2.379	-2.61841
2.3795	1.40991
2.38	10.47363
2.3805	10.67505
2.381	6.54602
2.3815	4.63257
2.382	10.27222
2.3825	-2.01416
2.383	-2.5177
2.3835	-1.00708
2.384	1.40991
2.3845	1.40991
2.385	4.22974
2.3855	4.02832
2.386	8.35876
2.3865	7.04956
2.387	3.7262
2.3875	1.61133
2.388	2.41699
2.3885	2.71912
2.389	3.62549
2.3895	2.21558
2.39	4.43115
2.3905	0.90637
2.391	0.90637
2.3915	7.25098
2.392	3.92761
2.3925	-0.10071
2.393	0.90637
2.3935	1.10779
2.394	6.3446
2.3945	2.01416
2.395	0.30212
2.3955	3.52478
2.396	0.80566
2.3965	4.83398
2.397	1.71204
2.3975	1.71204
2.398	-0.30212
2.3985	2.61841
2.399	5.33752
2.3995	1.71204
2.4	1.91345
2.4005	3.42407
2.401	-0.70496
2.4015	4.22974
2.402	2.61841
2.4025	1.51062
2.403	5.43823
2.4035	1.00708
2.404	2.92053
2.4045	7.25098
2.405	3.22266
2.4055	5.33752
2.406	8.66089
2.4065	9.76868
2.407	5.33752
2.4075	6.84814
2.408	2.01416
2.4085	3.62549
2.409	7.35168
2.4095	7.75452
2.41	1.61133
2.4105	5.43823
2.411	4.43115
2.4115	7.45239
2.412	7.5531
2.4125	7.5531
2.413	7.95593
2.4135	3.02124
2.414	3.42407
2.4145	7.04956
2.415	3.32336
2.4155	8.05664
2.416	2.92053
2.4165	7.04956
2.417	3.42407
2.4175	4.83398
2.418	10.67505
2.4185	6.2439
2.419	9.36584
2.4195	9.06372
2.42	10.0708
2.4205	9.46655
2.421	5.53894
2.4215	6.94885
2.422	5.63965
2.4225	6.94885
2.423	3.8269
2.4235	4.22974
2.424	9.86938
2.4245	11.38
2.425	10.17151
2.4255	10.77576
2.426	8.8623
2.4265	7.45239
2.427	5.53894
2.4275	4.02832
2.428	10.97717
2.4285	5.33752
2.429	2.31628
2.4295	2.61841
2.43	6.2439
2.4305	7.04956
2.431	3.32336
2.4315	3.42407
2.432	6.94885
2.4325	7.5531
2.433	8.35876
2.4335	16.11328
2.434	12.5885
2.4345	9.36584
2.435	6.94885
2.4355	13.797
2.436	5.94177
2.4365	6.2439
2.437	13.49487
2.4375	10.47363
2.438	8.8623
2.4385	3.42407
2.439	1.2085
2.4395	4.93469
2.44	8.05664
2.4405	5.53894
2.441	8.66089
2.4415	10.17151
2.442	11.17859
2.4425	8.8623
2.443	9.16443
2.4435	5.43823
2.444	8.05664
2.4445	9.66797
2.445	4.73328
2.4455	5.94177
2.446	9.26514
2.4465	5.23682
2.447	9.26514
2.4475	10.57434
2.448	6.3446
2.4485	8.25806
2.449	3.7262
2.4495	7.5531
2.45	8.66089
2.4505	11.17859
2.451	9.46655
2.4515	10.57434
2.452	13.29346
2.4525	6.84814
2.453	9.06372
2.4535	1.00708
2.454	5.84106
2.4545	7.95593
2.455	11.2793
2.4555	6.44531
2.456	7.85522
2.4565	4.43115
2.457	5.43823
2.4575	8.15735
2.458	8.56018
2.4585	9.66797
2.459	11.38
2.4595	12.99133
2.46	9.66797
2.4605	11.98425
2.461	8.25806
2.4615	11.48071
2.462	11.38
2.4625	11.98425
2.463	8.45947
2.4635	8.96301
2.464	11.17859
2.4645	12.38708
2.465	9.16443
2.4655	14.09912
2.466	10.87646
2.4665	4.93469
2.467	9.56726
2.4675	6.2439
2.468	5.53894
2.4685	2.61841
2.469	8.8623
2.4695	12.68921
2.47	10.37292
2.4705	10.87646
2.471	7.5531
2.4715	6.2439
2.472	8.15735
2.4725	6.04248
2.473	4.43115
2.4735	13.29346
2.474	7.95593
2.4745	9.46655
2.475	4.12903
2.4755	5.74036
2.476	6.94885
2.4765	11.17859
2.477	8.8623
2.4775	16.11328
2.478	8.25806
2.4785	8.45947
2.479	10.97717
2.4795	7.85522
2.48	9.86938
2.4805	12.48779
2.481	10.77576
2.4815	9.26514
2.482	9.16443
2.4825	11.07788
2.483	13.99841
2.4835	10.17151
2.484	12.28638
2.4845	15.00549
2.485	12.99133
2.4855	9.46655
2.486	10.67505
2.4865	4.12903
2.487	6.44531
2.4875	6.44531
2.488	6.2439
2.4885	9.06372
2.489	16.71753
2.4895	10.97717
2.49	8.05664
2.4905	9.97009
2.491	13.19275
2.4915	11.98425
2.492	9.36584
2.4925	5.23682
2.493	13.89771
2.4935	19.23523
2.494	19.03381
2.4945	15.71045
2.495	14.80408
2.4955	11.38
2.496	8.8623
2.4965	10.47363
2.497	18.12744
2.4975	12.48779
2.498	11.78284
2.4985	15.00549
2.499	11.48071
2.4995	7.35168
2.5	10.17151
2.5005	11.58142
2.501	9.86938
2.5015	15.50903
2.502	16.81824
2.5025	13.29346
2.503	9.97009
2.5035	13.89771
2.504	16.61682
2.5045	14.70337
2.505	12.78992
2.5055	11.38
2.506	11.98425
2.5065	9.26514
2.507	3.52478
2.5075	8.45947
2.508	6.04248
2.5085	6.94885
2.509	10.97717
2.5095	13.89771
2.51	9.06372
2.5105	13.09204
2.511	5.84106
2.5115	10.97717
2.512	12.99133
2.5125	13.29346
2.513	16.01257
2.5135	6.64673
2.514	12.89062
2.5145	8.8623
2.515	7.25098
2.5155	6.94885
2.516	9.16443
2.5165	9.56726
2.517	5.43823
2.5175	7.25098
2.518	8.25806
2.5185	8.45947
2.519	7.65381
2.5195	8.7616
2.52	11.07788
2.5205	10.87646
2.521	12.89062
2.5215	5.23682
2.522	5.74036
2.5225	8.25806
2.523	3.8269
2.5235	9.56726
2.524	8.05664
2.5245	7.95593
2.525	9.06372
2.5255	9.26514
2.526	0.40283
2.5265	10.87646
2.527	10.37292
2.5275	4.43115
2.528	11.88354
2.5285	11.38
2.529	12.08496
2.5295	9.16443
2.53	4.83398
2.5305	7.85522
2.531	5.33752
2.5315	4.43115
2.532	6.94885
2.5325	9.06372
2.533	10.67505
2.5335	10.57434
2.534	4.43115
2.5345	2.5177
2.535	2.92053
2.5355	3.52478
2.536	1.91345
2.5365	6.64673
2.537	8.56018
2.5375	3.7262
2.538	7.5531
2.5385	12.18567
2.539	9.86938
2.5395	9.76868
2.54	4.12903
2.5405	8.96301
2.541	4.53186
2.5415	3.8269
2.542	4.22974
2.5425	6.04248
2.543	6.54602
2.5435	8.56018
2.544	11.38
2.5445	9.16443
2.545	7.35168
2.5455	-0.20142
2.546	3.52478
2.5465	6.74744
2.547	4.43115
2.5475	-0.70496
2.548	0.10071
2.5485	2.61841
2.549	3.12195
2.5495	-1.3092
2.55	6.44531
2.5505	4.43115
2.551	5.33752
2.5515	4.53186
2.552	5.84106
2.5525	3.92761
2.553	5.63965
2.5535	3.8269
2.554	5.94177
2.5545	5.74036
2.555	7.65381
2.5555	7.5531
2.556	8.7616
2.5565	9.76868
2.557	6.84814
2.5575	15.60974
2.558	8.05664
2.5585	12.5885
2.559	10.97717
2.5595	6.2439
2.56	5.33752
2.5605	4.02832
2.561	10.57434
2.5615	9.06372
2.562	3.22266
2.5625	9.16443
2.563	11.68213
2.5635	10.87646
2.564	8.66089
2.5645	7.95593
2.565	10.57434
2.5655	9.97009
2.566	13.39417
2.5665	3.32336
2.567	5.53894
2.5675	6.2439
2.568	4.22974
2.5685	12.5885
2.569	16.91895
2.5695	10.87646
2.57	9.26514
2.5705	11.2793
2.571	9.56726
2.5715	10.67505
2.572	10.37292
2.5725	11.48071
2.573	16.51611
2.5735	14.19983
2.574	8.8623
2.5745	7.5531
2.575	10.57434
2.5755	9.76868
2.576	8.25806
2.5765	8.66089
2.577	7.35168
2.5775	6.44531
2.578	7.75452
2.5785	9.16443
2.579	8.96301
2.5795	8.8623
2.58	2.21558
2.5805	9.86938
2.581	9.26514
2.5815	6.74744
2.582	6.04248
2.5825	3.12195
2.583	5.33752
2.5835	2.31628
2.584	3.02124
2.5845	3.7262
2.585	8.7616
2.5855	0.50354
2.586	-2.81982
2.5865	0.50354
2.587	2.21558
2.5875	2.31628
2.588	4.22974
2.5885	-0.20142
2.589	-2.11487
2.5895	-0.50354
2.59	4.43115
2.5905	5.63965
2.591	5.0354
2.5915	5.94177
2.592	3.52478
2.5925	-4.73328
2.593	4.02832
2.5935	0.50354
2.594	0.50354
2.5945	9.16443
2.595	2.81982
2.5955	5.23682
2.596	7.65381
2.5965	4.12903
2.597	-2.81982
2.5975	3.32336
2.598	5.13611
2.5985	-3.62549
2.599	-0.50354
2.5995	1.51062
2.6	-1.10779
2.6005	-0.60425
2.601	-2.71912
2.6015	-0.20142
2.602	0.40283
2.6025	-4.22974
2.603	-4.83398
2.6035	-5.84106
2.604	-7.35168
2.6045	-4.22974
2.605	-0.80566
2.6055	-0.50354
2.606	-3.8269
2.6065	-3.12195
2.607	1.81274
2.6075	1.71204
2.608	2.01416
2.6085	-3.7262
2.609	4.12903
2.6095	-0.10071
2.61	-2.61841
2.6105	-5.63965
2.611	-5.63965
2.6115	-6.2439
2.612	-0.70496
2.6125	3.92761
2.613	1.61133
2.6135	-2.81982
2.614	-2.31628
2.6145	-0.50354
2.615	-1.71204
2.6155	-4.73328
2.616	0.60425
2.6165	-2.01416
2.617	-3.62549
2.6175	-3.62549
2.618	-1.40991
2.6185	4.93469
2.619	0.10071
2.6195	4.73328
2.62	3.52478
2.6205	3.52478
2.621	2.11487
2.6215	1.91345
2.622	-2.01416
2.6225	4.73328
2.623	-0.70496
2.6235	2.5177
2.624	-1.00708
2.6245	-1.51062
2.625	-1.51062
2.6255	5.23682
2.626	10.67505
2.6265	2.31628
2.627	3.7262
2.6275	2.41699
2.628	9.36584
2.6285	6.3446
2.629	0.90637
2.6295	2.11487
2.63	1.51062
2.6305	7.04956
2.631	3.02124
2.6315	7.95593
2.632	4.83398
2.6325	5.94177
2.633	2.81982
2.6335	6.94885
2.634	1.40991
2.6345	7.04956
2.635	3.12195
2.6355	5.13611
2.636	3.42407
2.6365	3.02124
2.637	1.3092
2.6375	6.2439
2.638	-0.70496
2.6385	1.71204
2.639	1.10779
2.6395	0.30212
2.64	-1.10779
2.6405	0.40283
2.641	5.63965
2.6415	4.22974
2.642	2.71912
2.6425	6.2439
2.643	4.83398
2.6435	4.02832
2.644	3.32336
2.6445	5.13611
2.645	2.31628
2.6455	3.62549
2.646	0.90637
2.6465	-0.10071
2.647	1.10779
2.6475	-1.10779
2.648	-4.12903
2.6485	-2.81982
2.649	0.40283
2.6495	3.42407
2.65	-2.11487
2.6505	-0.50354
2.651	-1.51062
2.6515	1.51062
2.652	1.91345
2.6525	3.8269
2.653	4.33044
2.6535	3.02124
2.654	2.81982
2.6545	-0.50354
2.655	5.53894
2.6555	4.02832
2.656	2.01416
2.6565	6.3446
2.657	0
2.6575	3.42407
2.658	9.46655
2.6585	2.61841
2.659	6.44531
2.6595	6.54602
2.66	1.3092
2.6605	-0.30212
2.661	-3.22266
2.6615	10.87646
2.662	4.93469
2.6625	-2.21558
2.663	1.40991
2.6635	4.63257
2.664	-2.01416
2.6645	3.12195
2.665	6.04248
2.6655	0.90637
2.666	-3.32336
2.6665	5.33752
2.667	5.43823
2.6675	3.32336
2.668	2.31628
2.6685	1.3092
2.669	3.62549
2.6695	-0.60425
2.67	7.5531
2.6705	4.93469
2.671	8.56018
2.6715	7.5531
2.672	4.73328
2.6725	4.53186
2.673	5.0354
2.6735	13.89771
2.674	7.95593
2.6745	4.93469
2.675	6.74744
2.6755	9.56726
2.676	6.74744
2.6765	4.33044
2.677	0.70496
2.6775	5.63965
2.678	6.14319
2.6785	4.33044
2.679	2.61841
2.6795	-0.70496
2.68	5.74036
2.6805	3.7262
2.681	2.61841
2.6815	6.04248
2.682	6.64673
2.6825	4.83398
2.683	5.13611
2.6835	5.43823
2.684	2.61841
2.6845	5.94177
2.685	2.5177
2.6855	3.02124
2.686	1.61133
2.6865	9.26514
2.687	8.05664
2.6875	2.81982
2.688	4.53186
2.6885	3.8269
2.689	7.75452
2.6895	7.15027
2.69	9.06372
2.6905	10.37292
2.691	5.33752
2.6915	11.78284
2.692	9.66797
2.6925	8.56018
2.693	9.16443
2.6935	7.85522
2.694	5.63965
2.6945	9.36584
2.695	4.43115
2.6955	9.36584
2.696	9.86938
2.6965	6.84814
2.697	5.53894
2.6975	5.63965
2.698	9.76868
2.6985	8.56018
2.699	9.86938
2.6995	13.09204
2.7	11.2793
2.7005	4.02832
2.701	5.13611
2.7015	10.47363
2.702	7.75452
2.7025	2.41699
2.703	4.83398
2.7035	6.2439
2.704	5.53894
2.7045	2.71912
2.705	-1.00708
2.7055	3.7262
2.706	6.94885
2.7065	2.61841
2.707	8.8623
2.7075	11.2793
2.708	7.95593
2.7085	3.52478
2.709	6.74744
2.7095	9.76868
2.71	4.63257
2.7105	4.93469
2.711	9.26514
2.7115	9.97009
2.712	12.18567
2.7125	8.05664
2.713	9.46655
2.7135	10.0708
2.714	8.45947
2.7145	2.41699
2.715	6.64673
2.7155	3.92761
2.716	9.56726
2.7165	8.25806
2.717	2.81982
2.7175	9.76868
2.718	8.25806
2.7185	5.94177
2.719	1.61133
2.7195	4.93469
2.72	6.54602
2.7205	7.75452
2.721	5.84106
2.7215	5.43823
2.722	3.22266
2.7225	5.33752
2.723	10.0708
2.7235	8.05664
2.724	6.74744
2.7245	6.44531
2.725	6.94885
2.7255	4.12903
2.726	6.64673
2.7265	4.22974
2.727	3.12195
2.7275	4.22974
2.728	7.65381
2.7285	11.48071
2.729	11.17859
2.7295	8.56018
2.73	7.15027
2.7305	4.83398
2.731	12.28638
2.7315	10.37292
2.732	5.33752
2.7325	11.68213
2.733	6.54602
2.7335	3.12195
2.734	5.33752
2.7345	8.35876
2.735	-0.80566
2.7355	0.50354
2.736	3.12195
2.7365	5.74036
2.737	-5.74036
2.7375	3.62549
2.738	1.3092
2.7385	1.71204
2.739	-0.70496
2.7395	2.81982
2.74	1.61133
2.7405	-0.60425
2.741	-0.90637
2.7415	4.93469
2.742	-1.61133
2.7425	4.73328
2.743	-1.40991
2.7435	-4.53186
2.744	-1.71204
2.7445	-4.02832
2.745	-2.71912
2.7455	2.5177
2.746	6.44531
2.7465	-1.71204
2.747	1.00708
2.7475	2.81982
2.748	1.61133
2.7485	-2.71912
2.749	7.65381
2.7495	7.45239
2.75	7.45239
2.7505	9.06372
2.751	9.36584
2.7515	4.93469
2.752	4.22974
2.7525	3.22266
2.753	8.66089
2.7535	3.8269
2.754	6.44531
2.7545	3.92761
2.755	8.66089
2.7555	8.8623
2.756	5.94177
2.7565	1.71204
2.757	5.43823
2.7575	5.84106
2.758	4.63257
2.7585	3.42407
2.759	3.8269
2.7595	1.91345
2.76	1.81274
2.7605	8.15735
2.761	2.41699
2.7615	3.12195
2.762	8.66089
2.7625	3.8269
2.763	-0.40283
2.7635	1.00708
2.764	-1.61133
2.7645	-1.10779
2.765	3.52478
2.7655	2.61841
2.766	10.37292
2.7665	4.53186
2.767	2.21558
2.7675	2.81982
2.768	5.84106
2.7685	5.23682
2.769	10.0708
2.7695	8.8623
2.77	12.5885
2.7705	14.40125
2.771	10.17151
2.7715	4.02832
2.772	3.22266
2.7725	0.30212
2.773	3.12195
2.7735	2.21558
2.774	7.25098
2.7745	6.94885
2.775	4.63257
2.7755	8.8623
2.776	4.43115
2.7765	3.02124
2.777	8.45947
2.7775	7.95593
2.778	6.2439
2.7785	9.16443
2.779	11.88354
2.7795	13.49487
2.78	9.97009
2.7805	8.25806
2.781	15.1062
2.7815	18.63098
2.782	16.21399
2.7825	12.08496
2.783	13.797
2.7835	12.78992
2.784	7.75452
2.7845	5.43823
2.785	8.8623
2.7855	7.15027
2.786	3.32336
2.7865	10.0708
2.787	7.85522
2.7875	7.25098
2.788	8.7616
2.7885	3.62549
2.789	5.84106
2.7895	10.27222
2.79	4.33044
2.7905	7.15027
2.791	6.64673
2.7915	8.25806
2.792	7.04956
2.7925	7.15027
2.793	7.04956
2.7935	6.84814
2.794	4.83398
2.7945	8.96301
2.795	11.78284
2.7955	5.63965
2.796	6.94885
2.7965	8.96301
2.797	4.53186
2.7975	2.31628
2.798	3.42407
2.7985	7.35168
2.799	4.93469
2.7995	12.38708
2.8	11.38
2.8005	10.27222
2.801	5.13611
2.8015	11.07788
2.802	5.43823
2.8025	6.74744
2.803	10.67505
2.8035	8.66089
2.804	6.44531
2.8045	4.73328
2.805	0.10071
2.8055	2.41699
2.806	6.74744
2.8065	0.60425
2.807	7.45239
2.8075	4.33044
2.808	4.02832
2.8085	1.40991
2.809	-1.00708
2.8095	1.61133
2.81	3.12195
2.8105	5.74036
2.811	2.81982
2.8115	4.43115
2.812	4.22974
2.8125	0.10071
2.813	5.53894
2.8135	4.33044
2.814	5.0354
2.8145	9.46655
2.815	13.89771
2.8155	11.58142
2.816	8.66089
2.8165	5.63965
2.817	10.27222
2.8175	8.56018
2.818	7.5531
2.8185	11.48071
2.819	11.17859
2.8195	7.85522
2.82	8.05664
2.8205	4.53186
2.821	7.04956
2.8215	10.87646
2.822	-0.80566
2.8225	6.3446
2.823	6.2439
2.8235	3.7262
2.824	0.40283
2.8245	8.45947
2.825	3.7262
2.8255	5.94177
2.826	2.92053
2.8265	3.8269
2.827	6.3446
2.8275	12.08496
2.828	11.58142
2.8285	7.04956
2.829	7.35168
2.8295	3.42407
2.83	7.85522
2.8305	1.91345
2.831	0.20142
2.8315	-1.10779
2.832	4.33044
2.8325	4.12903
2.833	10.57434
2.8335	0.80566
2.834	1.3092
2.8345	3.12195
2.835	1.81274
2.8355	0.20142
2.836	5.84106
2.8365	5.23682
2.837	6.84814
2.8375	0.60425
2.838	6.3446
2.8385	5.33752
2.839	6.94885
2.8395	6.94885
2.84	3.52478
2.8405	6.64673
2.841	-2.31628
2.8415	4.33044
2.842	3.32336
2.8425	5.84106
2.843	13.09204
2.8435	7.85522
2.844	5.74036
2.8445	5.13611
2.845	2.41699
2.8455	4.33044
2.846	6.3446
2.8465	1.81274
2.847	10.47363
2.8475	5.63965
2.848	4.93469
2.8485	9.26514
2.849	6.04248
2.8495	-1.71204
2.85	-0.50354
2.8505	-2.01416
2.851	4.83398
2.8515	1.40991
2.852	7.85522
2.8525	7.45239
2.853	1.3092
2.8535	9.66797
2.854	4.83398
2.8545	2.5177
2.855	8.8623
2.8555	3.52478
2.856	8.45947
2.8565	3.02124
2.857	7.35168
2.8575	13.49487
2.858	7.75452
2.8585	8.25806
2.859	8.96301
2.8595	5.43823
2.86	7.25098
2.8605	3.92761
2.861	4.33044
2.8615	7.04956
2.862	3.52478
2.8625	4.12903
2.863	1.61133
2.8635	3.12195
2.864	4.63257
2.8645	6.94885
2.865	6.04248
2.8655	2.31628
2.866	1.81274
2.8665	2.81982
2.867	4.12903
2.8675	7.04956
2.868	2.01416
2.8685	6.04248
2.869	9.26514
2.8695	3.7262
2.87	9.36584
2.8705	8.45947
2.871	10.37292
2.8715	4.73328
2.872	2.21558
2.8725	5.63965
2.873	6.54602
2.8735	4.63257
2.874	4.63257
2.8745	1.2085
2.875	7.5531
2.8755	3.8269
2.876	1.51062
2.8765	4.53186
2.877	6.64673
2.8775	3.32336
2.878	5.13611
2.8785	3.02124
2.879	5.23682
2.8795	-1.10779
2.88	4.93469
2.8805	0.30212
2.881	0.40283
2.8815	2.92053
2.882	6.44531
2.8825	6.44531
2.883	6.64673
2.8835	3.52478
2.884	5.23682
2.8845	1.91345
2.885	0
2.8855	3.8269
2.886	4.83398
2.8865	4.12903
2.887	6.3446
2.8875	1.00708
2.888	6.74744
2.8885	0.40283
2.889	0.10071
2.8895	-1.51062
2.89	4.22974
2.8905	8.25806
2.891	7.85522
2.8915	7.04956
2.892	8.35876
2.8925	6.64673
2.893	2.5177
2.8935	0.70496
2.894	-1.2085
2.8945	-4.83398
2.895	-1.61133
2.8955	-1.61133
2.896	4.12903
2.8965	2.81982
2.897	3.8269
2.8975	3.92761
2.898	3.32336
2.8985	2.92053
2.899	4.02832
2.8995	5.74036
2.9	8.45947
2.9005	4.83398
2.901	8.56018
2.9015	-0.40283
2.902	2.01416
2.9025	5.23682
2.903	5.53894
2.9035	8.66089
2.904	6.04248
2.9045	5.94177
2.905	3.22266
2.9055	5.74036
2.906	0.10071
2.9065	4.22974
2.907	1.10779
2.9075	3.52478
2.908	6.3446
2.9085	9.06372
2.909	6.64673
2.9095	6.2439
2.91	10.0708
2.9105	4.53186
2.911	5.33752
2.9115	2.5177
2.912	2.81982
2.9125	4.22974
2.913	8.35876
2.9135	6.3446
2.914	2.11487
2.9145	2.5177
2.915	5.13611
2.9155	3.12195
2.916	5.63965
2.9165	5.63965
2.917	7.65381
2.9175	4.93469
2.918	5.63965
2.9185	5.0354
2.919	10.57434
2.9195	6.3446
2.92	10.57434
2.9205	11.78284
2.921	9.46655
2.9215	10.97717
2.922	8.56018
2.9225	5.63965
2.923	5.23682
2.9235	11.78284
2.924	5.43823
2.9245	6.64673
2.925	6.94885
2.9255	12.38708
2.926	4.93469
2.9265	8.66089
2.927	8.56018
2.9275	7.45239
2.928	7.25098
2.9285	5.33752
2.929	3.12195
2.9295	8.66089
2.93	7.65381
2.9305	0.40283
2.931	2.01416
2.9315	1.3092
2.932	2.71912
2.9325	3.92761
2.933	6.14319
2.9335	9.76868
2.934	2.31628
2.9345	0.50354
2.935	-3.02124
2.9355	-1.71204
2.936	0.20142
2.9365	3.7262
2.937	3.62549
2.9375	-2.81982
2.938	-0.60425
2.9385	4.53186
2.939	8.15735
2.9395	0.70496
2.94	-0.20142
2.9405	-1.51062
2.941	1.51062
2.9415	1.81274
2.942	5.94177
2.9425	7.75452
2.943	7.25098
2.9435	3.22266
2.944	2.31628
2.9445	4.93469
2.945	0.20142
2.9455	-0.20142
2.946	-1.3092
2.9465	-1.2085
2.947	4.73328
2.9475	-2.71912
2.948	4.02832
2.9485	4.43115
2.949	0.50354
2.9495	4.83398
2.95	1.40991
2.9505	7.25098
2.951	3.12195
2.9515	3.12195
2.952	0.60425
2.9525	4.73328
2.953	5.13611
2.9535	9.06372
2.954	7.04956
2.9545	3.52478
2.955	4.43115
2.9555	5.13611
2.956	1.3092
2.9565	3.62549
2.957	4.73328
2.9575	5.13611
2.958	8.66089
2.9585	4.63257
2.959	10.77576
2.9595	10.17151
2.96	8.35876
2.9605	13.09204
2.961	9.56726
2.9615	8.56018
2.962	13.19275
2.9625	9.66797
2.963	8.96301
2.9635	2.21558
2.964	8.96301
2.9645	4.12903
2.965	1.81274
2.9655	3.8269
2.966	5.43823
2.9665	6.04248
2.967	3.62549
2.9675	4.83398
2.968	6.54602
2.9685	4.53186
2.969	6.14319
2.9695	8.15735
2.97	3.42407
2.9705	2.11487
2.971	5.53894
2.9715	9.16443
2.972	7.95593
2.9725	7.95593
2.973	6.2439
2.9735	6.64673
2.974	4.02832
2.9745	3.62549
2.975	5.13611
2.9755	2.5177
2.976	5.33752
2.9765	7.45239
2.977	7.5531
2.9775	7.5531
2.978	2.31628
2.9785	6.84814
2.979	7.15027
2.9795	9.46655
2.98	7.95593
2.9805	6.74744
2.981	5.84106
2.9815	9.66797
2.982	12.89062
2.9825	8.66089
2.983	5.53894
2.9835	5.13611
2.984	7.5531
2.9845	8.05664
2.985	3.42407
2.9855	6.74744
2.986	8.66089
2.9865	13.59558
2.987	11.78284
2.9875	3.62549
2.988	4.73328
2.9885	8.7616
2.989	13.49487
2.9895	8.45947
2.99	6.14319
2.9905	3.42407
2.991	12.78992
2.9915	14.50195
2.992	10.67505
2.9925	7.95593
2.993	7.85522
2.9935	8.7616
2.994	2.5177
2.9945	6.2439
2.995	2.31628
2.9955	-0.90637
2.996	0.20142
2.9965	2.92053
2.997	6.44531
2.9975	2.81982
2.998	8.66089
2.9985	6.04248
2.999	7.65381
2.9995	6.74744
3	5.23682
3.0005	10.47363
3.001	8.56018
3.0015	6.44531
3.002	9.86938
3.0025	-2.31628
3.003	-2.21558
3.0035	-1.40991
3.004	6.44531
3.0045	4.22974
3.005	4.73328
3.0055	11.48071
3.006	7.04956
3.0065	8.56018
3.007	9.86938
3.0075	11.38
3.008	9.76868
3.0085	12.28638
3.009	8.45947
3.0095	9.46655
3.01	9.46655
3.0105	8.96301
3.011	6.64673
3.0115	5.94177
3.012	-2.41699
3.0125	3.02124
3.013	6.2439
3.0135	9.46655
3.014	5.84106
3.0145	2.61841
3.015	3.92761
3.0155	7.95593
3.016	10.77576
3.0165	10.27222
3.017	8.56018
3.0175	7.75452
3.018	7.5531
3.0185	1.2085
3.019	8.45947
3.0195	4.33044
3.02	6.14319
3.0205	4.33044
3.021	9.26514
3.0215	10.47363
3.022	15.1062
3.0225	12.38708
3.023	11.07788
3.0235	6.2439
3.024	5.63965
3.0245	5.84106
3.025	6.64673
3.0255	6.54602
3.026	6.94885
3.0265	9.46655
3.027	5.63965
3.0275	7.5531
3.028	9.26514
3.0285	6.54602
3.029	6.54602
3.0295	5.23682
3.03	7.35168
3.0305	7.15027
3.031	11.98425
3.0315	9.97009
3.032	6.84814
3.0325	9.66797
3.033	5.43823
3.0335	3.92761
3.034	2.21558
3.0345	5.43823
3.035	5.33752
3.0355	10.67505
3.036	7.15027
3.0365	6.04248
3.037	9.86938
3.0375	8.25806
3.038	5.94177
3.0385	4.83398
3.039	4.93469
3.0395	8.25806
3.04	6.3446
3.0405	1.2085
3.041	6.3446
3.0415	6.54602
3.042	9.06372
3.0425	3.22266
3.043	1.61133
3.0435	2.31628
3.044	1.71204
3.0445	0.40283
3.045	4.12903
3.0455	4.93469
3.046	5.53894
3.0465	7.04956
3.047	5.13611
3.0475	5.23682
3.048	4.53186
3.0485	7.95593
3.049	3.02124
3.0495	4.22974
3.05	3.22266
3.0505	5.0354
3.051	6.2439
3.0515	2.01416
3.052	5.13611
3.0525	5.0354
3.053	8.8623
3.0535	6.14319
3.054	9.97009
3.0545	9.16443
3.055	5.33752
3.0555	0.20142
3.056	3.02124
3.0565	9.36584
3.057	10.17151
3.0575	12.68921
3.058	13.89771
3.0585	12.5885
3.059	8.25806
3.0595	6.54602
3.06	-0.10071
3.0605	7.5531
3.061	2.71912
3.0615	3.62549
3.062	-0.20142
3.0625	5.94177
3.063	4.43115
3.0635	4.02832
3.064	7.85522
3.0645	5.63965
3.065	6.04248
3.0655	7.15027
3.066	3.02124
3.0665	-4.12903
3.067	-2.71912
3.0675	0.60425
3.068	3.7262
3.0685	3.62549
3.069	-0.80566
3.0695	0.60425
3.07	4.53186
3.0705	2.11487
3.071	2.41699
3.0715	-0.40283
3.072	4.63257
3.0725	2.71912
3.073	1.40991
3.0735	6.64673
3.074	11.17859
3.0745	6.64673
3.075	3.22266
3.0755	1.51062
3.076	5.53894
3.0765	10.37292
3.077	8.25806
3.0775	4.33044
3.078	6.2439
3.0785	4.53186
3.079	9.66797
3.0795	9.66797
3.08	10.97717
3.0805	2.71912
3.081	4.83398
3.0815	3.32336
3.082	0.20142
3.0825	0
3.083	7.35168
3.0835	7.45239
3.084	7.25098
3.0845	4.63257
3.085	11.78284
3.0855	0.80566
3.086	0.10071
3.0865	6.14319
3.087	9.56726
3.0875	8.8623
3.088	10.37292
3.0885	12.28638
3.089	6.3446
3.0895	10.97717
3.09	7.95593
3.0905	9.36584
3.091	5.74036
3.0915	7.65381
3.092	6.2439
3.0925	12.28638
3.093	8.05664
3.0935	5.94177
3.094	6.14319
3.0945	4.33044
3.095	0.50354
3.0955	5.33752
3.096	4.22974
3.0965	8.45947
3.097	9.76868
3.0975	4.53186
3.098	4.33044
3.0985	5.33752
3.099	1.40991
3.0995	9.97009
3.1	7.95593
3.1005	7.75452
3.101	9.97009
3.1015	2.71912
3.102	3.12195
3.1025	9.86938
3.103	4.53186
3.1035	9.46655
3.104	7.04956
3.1045	8.15735
3.105	4.83398
3.1055	-0.40283
3.106	6.04248
3.1065	11.48071
3.107	7.95593
3.1075	7.35168
3.108	9.76868
3.1085	9.36584
3.109	7.04956
3.1095	1.3092
3.11	8.15735
3.1105	7.75452
3.111	2.92053
3.1115	4.83398
3.112	6.04248
3.1125	0
3.113	2.5177
3.1135	2.11487
3.114	1.91345
3.1145	-1.71204
3.115	1.3092
3.1155	0.70496
3.116	6.54602
3.1165	5.43823
3.117	2.31628
3.1175	6.94885
3.118	4.22974
3.1185	0
3.119	3.12195
3.1195	0.70496
3.12	7.25098
3.1205	6.44531
3.121	7.95593
3.1215	4.12903
3.122	6.84814
3.1225	9.56726
3.123	3.92761
3.1235	3.12195
3.124	5.0354
3.1245	4.22974
3.125	10.97717
3.1255	9.86938
3.126	3.62549
3.1265	4.73328
3.127	4.33044
3.1275	7.65381
3.128	5.53894
3.1285	3.12195
3.129	4.53186
3.1295	-0.10071
3.13	3.02124
3.1305	3.12195
3.131	0.60425
3.1315	3.92761
3.132	3.42407
3.1325	6.94885
3.133	7.04956
3.1335	6.54602
3.134	2.41699
3.1345	4.73328
3.135	3.12195
3.1355	3.42407
3.136	3.02124
3.1365	7.15027
3.137	5.53894
3.1375	4.12903
3.138	4.93469
3.1385	8.66089
3.139	4.73328
3.1395	6.2439
3.14	-0.50354
3.1405	6.94885
3.141	7.25098
3.1415	2.81982
3.142	8.96301
3.1425	4.22974
3.143	4.53186
3.1435	3.52478
3.144	4.63257
3.1445	11.78284
3.145	4.53186
3.1455	2.61841
3.146	5.74036
3.1465	9.86938
3.147	-0.20142
3.1475	2.92053
3.148	3.12195
3.1485	1.40991
3.149	4.22974
3.1495	4.93469
3.15	-0.70496
3.1505	6.84814
3.151	2.71912
3.1515	9.76868
3.152	3.02124
3.1525	2.71912
3.153	2.21558
3.1535	4.73328
3.154	5.84106
3.1545	9.56726
3.155	3.02124
3.1555	8.15735
3.156	8.96301
3.1565	11.58142
3.157	3.42407
3.1575	7.75452
3.158	4.33044
3.1585	7.75452
3.159	8.45947
3.1595	13.39417
3.16	8.7616
3.1605	8.35876
3.161	15.40833
3.1615	8.56018
3.162	8.96301
3.1625	11.38
3.163	2.31628
3.1635	4.83398
3.164	3.32336
3.1645	7.25098
3.165	5.43823
3.1655	1.81274
3.166	5.0354
3.1665	3.92761
3.167	6.84814
3.1675	3.22266
3.168	-1.61133
3.1685	2.21558
3.169	9.16443
3.1695	8.7616
3.17	6.44531
3.1705	8.56018
3.171	8.7616
3.1715	4.73328
3.172	8.56018
3.1725	9.46655
3.173	0.60425
3.1735	4.43115
3.174	4.22974
3.1745	6.94885
3.175	10.47363
3.1755	9.56726
3.176	6.3446
3.1765	10.0708
3.177	12.08496
3.1775	6.64673
3.178	8.35876
3.1785	2.71912
3.179	2.41699
3.1795	6.94885
3.18	10.0708
3.1805	8.15735
3.181	10.37292
3.1815	8.56018
3.182	3.62549
3.1825	8.15735
3.183	11.48071
3.1835	6.94885
3.184	4.73328
3.1845	8.35876
3.185	10.27222
3.1855	8.8623
3.186	4.93469
3.1865	3.42407
3.187	2.5177
3.1875	4.02832
3.188	3.42407
3.1885	4.02832
3.189	9.36584
3.1895	7.15027
3.19	5.63965
3.1905	2.81982
3.191	5.13611
3.1915	8.8623
3.192	8.7616
3.1925	2.81982
3.193	3.7262
3.1935	12.08496
3.194	5.23682
3.1945	2.61841
3.195	4.22974
3.1955	7.65381
3.196	3.02124
3.1965	4.43115
3.197	11.38
3.1975	10.17151
3.198	10.87646
3.1985	5.84106
3.199	6.94885
3.1995	8.56018
3.2	10.87646
3.2005	9.16443
3.201	7.45239
3.2015	11.58142
3.202	4.63257
3.2025	11.58142
3.203	9.36584
3.2035	7.45239
3.204	3.8269
3.2045	-0.60425
3.205	5.43823
3.2055	3.62549
3.206	9.86938
3.2065	3.62549
3.207	4.33044
3.2075	5.23682
3.208	7.75452
3.2085	4.12903
3.209	6.84814
3.2095	7.45239
3.21	-0.10071
3.2105	1.40991
3.211	-3.32336
3.2115	-3.02124
3.212	-4.53186
3.2125	2.81982
3.213	3.02124
3.2135	0.60425
3.214	-3.02124
3.2145	3.52478
3.215	4.33044
3.2155	1.71204
3.216	3.12195
3.2165	6.3446
3.217	0.20142
3.2175	2.11487
3.218	-4.93469
3.2185	-2.11487
3.219	9.16443
3.2195	5.63965
3.22	3.32336
3.2205	0.30212
3.221	-3.42407
3.2215	-1.91345
3.222	0.80566
3.2225	-0.50354
3.223	0
3.2235	5.33752
3.224	4.73328
3.2245	2.61841
3.225	1.61133
3.2255	3.62549
3.226	6.64673
3.2265	2.11487
3.227	4.22974
3.2275	3.52478
3.228	4.22974
3.2285	4.22974
3.229	0.40283
3.2295	5.84106
3.23	4.02832
3.2305	2.21558
3.231	2.11487
3.2315	-3.32336
3.232	0.50354
3.2325	4.63257
3.233	4.83398
3.2335	5.84106
3.234	1.3092
3.2345	2.41699
3.235	6.84814
3.2355	10.0708
3.236	2.5177
3.2365	3.02124
3.237	11.38
3.2375	7.25098
3.238	2.92053
3.2385	10.17151
3.239	3.32336
3.2395	-3.92761
3.24	2.31628
3.2405	1.91345
3.241	5.13611
3.2415	5.74036
3.242	5.23682
3.2425	5.43823
3.243	4.43115
3.2435	2.92053
3.244	6.94885
3.2445	8.96301
3.245	0.90637
3.2455	0.20142
3.246	0.30212
3.2465	9.97009
3.247	8.15735
3.2475	1.81274
3.248	2.41699
3.2485	-0.30212
3.249	3.12195
3.2495	5.33752
3.25	5.43823
3.2505	1.10779
3.251	2.81982
3.2515	10.17151
3.252	5.74036
3.2525	2.5177
3.253	1.00708
3.2535	9.56726
3.254	8.25806
3.2545	5.43823
3.255	3.7262
3.2555	1.81274
3.256	3.12195
3.2565	-1.61133
3.257	3.32336
3.2575	8.66089
3.258	2.92053
3.2585	5.53894
3.259	7.35168
3.2595	7.15027
3.26	12.5885
3.2605	5.0354
3.261	2.31628
3.2615	5.53894
3.262	3.42407
3.2625	6.64673
3.263	9.06372
3.2635	3.52478
3.264	4.02832
3.2645	2.5177
3.265	8.45947
3.2655	5.53894
3.266	8.05664
3.2665	11.38
3.267	12.99133
3.2675	7.75452
3.268	7.04956
3.2685	4.93469
3.269	0.60425
3.2695	4.63257
3.27	6.94885
3.2705	9.36584
3.271	3.7262
3.2715	5.63965
3.272	0.90637
3.2725	5.0354
3.273	9.56726
3.2735	8.15735
3.274	7.25098
3.2745	9.36584
3.275	10.27222
3.2755	5.94177
3.276	8.45947
3.2765	4.63257
3.277	6.64673
3.2775	5.53894
3.278	2.71912
3.2785	7.25098
3.279	5.74036
3.2795	6.14319
3.28	5.74036
3.2805	8.15735
3.281	6.94885
3.2815	11.2793
3.282	3.02124
3.2825	4.02832
3.283	4.83398
3.2835	6.04248
3.284	6.14319
3.2845	7.04956
3.285	2.01416
3.2855	5.13611
3.286	4.33044
3.2865	2.41699
3.287	5.74036
3.2875	3.52478
3.288	3.32336
3.2885	-0.50354
3.289	-3.7262
3.2895	3.8269
3.29	3.42407
3.2905	1.2085
3.291	11.48071
3.2915	7.45239
3.292	7.15027
3.2925	8.25806
3.293	4.02832
3.2935	4.53186
3.294	4.53186
3.2945	4.02832
3.295	1.3092
3.2955	4.02832
3.296	3.02124
3.2965	5.74036
3.297	1.81274
3.2975	7.85522
3.298	6.84814
3.2985	4.83398
3.299	4.43115
3.2995	5.0354
3.3	8.66089
3.3005	4.33044
3.301	8.35876
3.3015	1.51062
3.302	4.12903
3.3025	2.5177
3.303	2.5177
3.3035	6.04248
3.304	6.14319
3.3045	6.3446
3.305	3.92761
3.3055	4.83398
3.306	2.71912
3.3065	3.12195
3.307	1.40991
3.3075	-2.21558
3.308	5.84106
3.3085	9.16443
3.309	6.64673
3.3095	11.2793
3.31	8.56018
3.3105	9.86938
3.311	5.63965
3.3115	-0.10071
3.312	-0.30212
3.3125	4.93469
3.313	4.33044
3.3135	6.04248
3.314	6.44531
3.3145	5.84106
3.315	5.23682
3.3155	8.8623
3.316	5.53894
3.3165	5.23682
3.317	4.02832
3.3175	7.15027
3.318	7.65381
3.3185	12.99133
3.319	7.04956
3.3195	9.97009
3.32	5.23682
3.3205	8.96301
3.321	7.95593
3.3215	7.5531
3.322	12.99133
3.3225	9.26514
3.323	7.25098
3.3235	14.30054
3.324	8.25806
3.3245	7.5531
3.325	6.64673
3.3255	7.25098
3.326	6.04248
3.3265	1.81274
3.327	2.61841
3.3275	2.21558
3.328	5.33752
3.3285	4.43115
3.329	3.7262
3.3295	3.42407
3.33	4.02832
3.3305	6.04248
3.331	7.95593
3.3315	-0.10071
3.332	5.0354
3.3325	6.54602
3.333	11.17859
3.3335	7.04956
3.334	5.0354
3.3345	11.48071
3.335	2.92053
3.3355	1.00708
3.336	3.7262
3.3365	9.66797
3.337	9.56726
3.3375	4.83398
3.338	10.77576
3.3385	6.14319
3.339	2.81982
3.3395	2.92053
3.34	4.12903
3.3405	4.73328
3.341	4.73328
3.3415	11.2793
3.342	6.3446
3.3425	5.13611
3.343	4.22974
3.3435	5.33752
3.344	6.2439
3.3445	9.36584
3.345	8.96301
3.3455	7.15027
3.346	5.63965
3.3465	8.96301
3.347	9.46655
3.3475	8.96301
3.348	6.94885
3.3485	10.67505
3.349	4.83398
3.3495	4.83398
3.35	1.51062
3.3505	5.53894
3.351	6.2439
3.3515	5.43823
3.352	9.06372
3.3525	5.94177
3.353	4.73328
3.3535	3.7262
3.354	1.61133
3.3545	5.0354
3.355	8.8623
3.3555	0.10071
3.356	2.01416
3.3565	2.41699
3.357	5.74036
3.3575	4.93469
3.358	6.14319
3.3585	5.13611
3.359	5.84106
3.3595	1.10779
3.36	0.20142
3.3605	2.81982
3.361	-0.10071
3.3615	0.90637
3.362	-1.81274
3.3625	1.40991
3.363	2.92053
3.3635	-5.33752
3.364	5.63965
3.3645	1.81274
3.365	0.10071
3.3655	0.90637
3.366	4.53186
3.3665	7.95593
3.367	3.22266
3.3675	2.41699
3.368	8.35876
3.3685	10.37292
3.369	7.45239
3.3695	5.63965
3.37	5.13611
3.3705	-1.2085
3.371	0.70496
3.3715	7.75452
3.372	4.93469
3.3725	8.15735
3.373	0.60425
3.3735	8.25806
3.374	6.04248
3.3745	1.00708
3.375	5.84106
3.3755	9.56726
3.376	10.47363
3.3765	3.22266
3.377	6.64673
3.3775	3.32336
3.378	6.94885
3.3785	8.45947
3.379	4.43115
3.3795	8.7616
3.38	6.64673
3.3805	0.40283
3.381	7.04956
3.3815	1.00708
3.382	2.61841
3.3825	1.61133
3.383	8.56018
3.3835	6.74744
3.384	7.15027
3.3845	3.52478
3.385	11.38
3.3855	7.25098
3.386	3.52478
3.3865	2.11487
3.387	2.71912
3.3875	8.7616
3.388	8.15735
3.3885	6.3446
3.389	13.99841
3.3895	8.56018
3.39	16.21399
3.3905	12.5885
3.391	15.91187
3.3915	9.26514
3.392	10.0708
3.3925	0.70496
3.393	8.66089
3.3935	7.95593
3.394	12.08496
3.3945	9.46655
3.395	5.84106
3.3955	11.88354
3.396	10.47363
3.3965	7.35168
3.397	5.84106
3.3975	5.0354
3.398	4.93469
3.3985	6.14319
3.399	6.44531
3.3995	11.68213
3.4	12.68921
3.4005	13.89771
3.401	8.66089
3.4015	9.26514
3.402	8.05664
3.4025	8.8623
3.403	6.04248
3.4035	14.70337
3.404	7.85522
3.4045	13.39417
3.405	14.40125
3.4055	11.78284
3.406	10.77576
3.4065	11.07788
3.407	8.15735
3.4075	12.89062
3.408	12.48779
3.4085	9.06372
3.409	8.45947
3.4095	8.15735
3.41	8.05664
3.4105	1.91345
3.411	5.43823
3.4115	5.74036
3.412	6.84814
3.4125	3.42407
3.413	1.10779
3.4135	4.73328
3.414	4.02832
3.4145	7.35168
3.415	4.33044
3.4155	0
3.416	5.53894
3.4165	3.42407
3.417	2.01416
3.4175	1.40991
3.418	-0.80566
3.4185	2.31628
3.419	3.32336
3.4195	0.30212
3.42	3.52478
3.4205	3.02124
3.421	-0.80566
3.4215	4.12903
3.422	-0.80566
3.4225	4.53186
3.423	-1.00708
3.4235	-1.40991
3.424	6.04248
3.4245	1.00708
3.425	-0.30212
3.4255	4.63257
3.426	9.06372
3.4265	8.45947
3.427	3.62549
3.4275	4.22974
3.428	3.42407
3.4285	0.90637
3.429	2.21558
3.4295	-1.51062
3.43	3.7262
3.4305	5.84106
3.431	1.00708
3.4315	2.92053
3.432	5.63965
3.4325	1.81274
3.433	1.10779
3.4335	6.84814
3.434	1.40991
3.4345	1.00708
3.435	3.42407
3.4355	4.33044
3.436	5.43823
3.4365	7.5531
3.437	6.74744
3.4375	5.84106
3.438	-4.12903
3.4385	1.51062
3.439	2.01416
3.4395	2.11487
3.44	-1.51062
3.4405	0.50354
3.441	1.91345
3.4415	1.40991
3.442	1.91345
3.4425	1.00708
3.443	2.92053
3.4435	1.00708
3.444	4.83398
3.4445	-0.30212
3.445	0.90637
3.4455	1.71204
3.446	5.0354
3.4465	-3.32336
3.447	-0.50354
3.4475	3.32336
3.448	1.51062
3.4485	-4.12903
3.449	1.81274
3.4495	1.40991
3.45	-5.0354
3.4505	5.63965
3.451	5.33752
3.4515	0.60425
3.452	3.92761
3.4525	7.75452
3.453	-2.92053
3.4535	1.3092
3.454	-0.80566
3.4545	7.75452
3.455	5.33752
3.4555	1.71204
3.456	4.93469
3.4565	3.52478
3.457	4.22974
3.4575	8.05664
3.458	5.84106
3.4585	10.17151
3.459	9.46655
3.4595	10.27222
3.46	6.14319
3.4605	10.37292
3.461	5.53894
3.4615	8.8623
3.462	8.56018
3.4625	3.8269
3.463	6.64673
3.4635	4.43115
3.464	3.02124
3.4645	-3.22266
3.465	7.25098
3.4655	3.52478
3.466	6.64673
3.4665	3.62549
3.467	5.33752
3.4675	4.73328
3.468	7.25098
3.4685	1.81274
3.469	2.31628
3.4695	2.41699
3.47	3.52478
3.4705	2.5177
3.471	4.83398
3.4715	6.94885
3.472	4.02832
3.4725	4.63257
3.473	6.64673
3.4735	7.75452
3.474	7.95593
3.4745	0.10071
3.475	4.02832
3.4755	5.33752
3.476	8.96301
3.4765	4.02832
3.477	8.7616
3.4775	8.35876
3.478	6.3446
3.4785	9.76868
3.479	8.7616
3.4795	5.0354
3.48	1.61133
3.4805	-1.51062
3.481	6.84814
3.4815	8.8623
3.482	5.74036
3.4825	1.81274
3.483	6.14319
3.4835	5.23682
3.484	1.61133
3.4845	1.61133
3.485	4.43115
3.4855	5.43823
3.486	4.02832
3.4865	1.61133
3.487	9.46655
3.4875	1.71204
3.488	5.84106
3.4885	7.25098
3.489	5.94177
3.4895	1.61133
3.49	3.32336
3.4905	5.13611
3.491	2.21558
3.4915	-1.2085
3.492	-4.53186
3.4925	-2.21558
3.493	2.71912
3.4935	0.70496
3.494	4.12903
3.4945	6.94885
3.495	3.22266
3.4955	4.33044
3.496	10.57434
3.4965	6.84814
3.497	7.04956
3.4975	1.10779
3.498	4.02832
3.4985	3.92761
3.499	4.93469
3.4995	-0.20142
3.5	-0.50354
3.5005	8.45947
3.501	1.81274
3.5015	1.51062
3.502	4.73328
3.5025	6.44531
3.503	1.91345
3.5035	3.02124
3.504	2.41699
3.5045	4.02832
3.505	-0.50354
3.5055	-1.40991
3.506	5.13611
3.5065	1.71204
3.507	2.61841
3.5075	3.42407
3.508	8.56018
3.5085	6.2439
3.509	3.22266
3.5095	5.0354
3.51	3.92761
3.5105	2.81982
3.511	4.02832
3.5115	8.45947
3.512	6.94885
3.5125	7.25098
3.513	8.45947
3.5135	5.23682
3.514	7.15027
3.5145	3.12195
3.515	3.32336
3.5155	4.63257
3.516	3.22266
3.5165	2.92053
3.517	3.8269
3.5175	7.75452
3.518	6.54602
3.5185	5.23682
3.519	4.33044
3.5195	8.96301
3.52	2.92053
3.5205	4.22974
3.521	10.57434
3.5215	9.36584
3.522	9.46655
3.5225	10.27222
3.523	10.37292
3.5235	9.86938
3.524	9.56726
3.5245	8.25806
3.525	2.92053
3.5255	11.2793
3.526	7.25098
3.5265	8.7616
3.527	6.04248
3.5275	12.5885
3.528	6.14319
3.5285	8.96301
3.529	7.75452
3.5295	11.58142
3.53	9.26514
3.5305	11.98425
3.531	6.44531
3.5315	0.70496
3.532	3.62549
3.5325	11.2793
3.533	8.25806
3.5335	10.77576
3.534	4.63257
3.5345	7.5531
3.535	12.5885
3.5355	7.04956
3.536	16.21399
3.5365	14.90479
3.537	12.18567
3.5375	12.48779
3.538	7.35168
3.5385	3.92761
3.539	5.43823
3.5395	5.63965
3.54	6.44531
3.5405	8.96301
3.541	7.25098
3.5415	8.66089
3.542	11.98425
3.5425	16.3147
3.543	13.49487
3.5435	14.50195
3.544	10.87646
3.5445	7.95593
3.545	1.10779
3.5455	6.64673
3.546	7.95593
3.5465	10.87646
3.547	9.26514
3.5475	10.17151
3.548	10.17151
3.5485	6.74744
3.549	8.96301
3.5495	8.35876
3.55	7.25098
3.5505	3.62549
3.551	11.88354
3.5515	15.50903
3.552	17.01965
3.5525	20.1416
3.553	12.28638
3.5535	-19.03381
3.554	-31.72302
3.5545	-35.85205
3.555	-37.7655
3.5555	-52.06604
3.556	-60.3241
3.5565	-71.60339
3.557	-75.12817
3.5575	-72.10693
3.558	-71.40198
3.5585	-66.6687
3.559	-66.76941
3.5595	-74.2218
3.56	-61.02905
3.5605	-54.28162
3.561	-46.22498
3.5615	-34.14001
3.562	-20.34302
3.5625	-11.48071
3.563	2.01416
3.5635	11.98425
3.564	24.77417
3.5645	24.87488
3.565	34.64355
3.5655	44.71436
3.566	60.3241
3.5665	74.12109
3.567	50.2533
3.5675	-67.47437
3.568	-193.05725
3.5685	-274.93286
3.569	-307.86438
3.5695	-271.00525
3.57	-219.24133
3.5705	-167.98096
3.571	-125.28076
3.5715	-77.948
3.572	-25.47913
3.5725	21.3501
3.573	61.73401
3.5735	94.96765
3.574	126.9928
3.5745	152.97546
3.575	170.29724
3.5755	188.02185
3.576	190.53955
3.5765	194.46716
3.577	190.64026
3.5775	182.58362
3.578	166.36963
3.5785	151.16272
3.579	137.36572
3.5795	114.4043
3.58	102.42004
3.5805	96.67969
3.581	87.61597
3.5815	73.31543
3.582	58.30994
3.5825	38.36975
3.583	26.98975
3.5835	24.67346
3.584	20.54443
3.5845	21.04797
3.585	16.3147
3.5855	18.93311
3.586	14.70337
3.5865	13.39417
3.587	4.43115
3.5875	-3.7262
3.588	-8.56018
3.5885	-21.14868
3.589	-49.85046
3.5895	-79.05579
3.59	-81.47278
3.5905	-75.02747
3.591	-70.49561
3.5915	-56.19507
3.592	-41.99524
3.5925	-25.78125
3.593	-1.61133
3.5935	10.87646
3.594	27.89612
3.5945	40.48462
3.595	56.5979
3.5955	64.45312
3.596	71.90552
3.5965	78.85437
3.597	80.66711
3.5975	81.7749
3.598	79.96216
3.5985	75.53101
3.599	59.92126
3.5995	49.95117
3.6	41.89453
3.6005	11.78284
3.601	-5.43823
3.6015	-14.60266
3.602	-17.42249
3.6025	-17.72461
3.603	-13.797
3.6035	-10.47363
3.604	-11.68213
3.6045	0.10071
3.605	8.7616
3.6055	4.12903
3.606	-0.60425
3.6065	-18.32886
3.607	-36.75842
3.6075	-61.12976
3.608	-77.64587
3.6085	-84.99756
3.609	-85.09827
3.6095	-84.79614
3.61	-74.2218
3.6105	-63.94958
3.611	-44.71436
3.6115	-21.14868
3.612	-5.43823
3.6125	8.7616
3.613	32.62939
3.6135	48.33984
3.614	54.78516
3.6145	66.76941
3.615	63.74817
3.6155	55.18799
3.616	47.33276
3.6165	42.59949
3.617	36.55701
3.6175	36.55701
3.618	39.67896
3.6185	44.0094
3.619	48.03772
3.6195	48.23914
3.62	44.0094
3.6205	38.87329
3.621	34.24072
3.6215	31.11877
3.622	28.19824
3.6225	26.3855
3.623	24.57275
3.6235	21.45081
3.624	21.3501
3.6245	7.85522
3.625	-1.81274
3.6255	-9.86938
3.626	-26.18408
3.6265	-30.2124
3.627	-32.83081
3.6275	-32.22656
3.628	-30.81665
3.6285	-23.96851
3.629	-11.78284
3.6295	-6.2439
3.63	2.21558
3.6305	12.5885
3.631	17.42249
3.6315	24.06921
3.632	28.50037
3.6325	33.13293
3.633	45.2179
3.6335	44.51294
3.634	25.68054
3.6345	8.25806
3.635	-5.94177
3.6355	-10.17151
3.636	-19.73877
3.6365	-15.30762
3.637	-17.72461
3.6375	-15.00549
3.638	-13.29346
3.6385	-17.82532
3.639	-6.94885
3.6395	-4.02832
3.64	0.10071
3.6405	4.53186
3.641	3.32336
3.6415	-4.93469
3.642	-5.43823
3.6425	-8.56018
3.643	-15.1062
3.6435	-21.75293
3.644	-24.67346
3.6445	-18.8324
3.645	-15.20691
3.6455	-3.92761
3.646	8.8623
3.6465	17.82532
3.647	28.60107
3.6475	37.7655
3.648	41.89453
3.6485	44.0094
3.649	36.95984
3.6495	8.45947
3.65	-8.05664
3.6505	-23.46497
3.651	-16.41541
3.6515	-9.66797
3.652	7.04956
3.6525	16.01257
3.653	20.84656
3.6535	27.6947
3.654	31.62231
3.6545	28.60107
3.655	33.43506
3.6555	33.83789
3.656	32.52869
3.6565	35.54993
3.657	35.44922
3.6575	34.54285
3.658	39.98108
3.6585	42.8009
3.659	37.56409
3.6595	29.20532
3.66	23.8678
3.6605	13.49487
3.661	11.58142
3.6615	1.81274
3.662	-3.8269
3.6625	-6.44531
3.663	-16.01257
3.6635	-17.01965
3.664	-23.26355
3.6645	-10.77576
3.665	-2.01416
3.6655	4.83398
3.666	5.74036
3.6665	2.31628
3.667	10.67505
3.6675	7.15027
3.668	8.45947
3.6685	9.56726
3.669	7.75452
3.6695	3.42407
3.67	0.60425
3.6705	-2.61841
3.671	-4.12903
3.6715	0.90637
3.672	3.32336
3.6725	1.81274
3.673	-9.06372
3.6735	-12.18567
3.674	-17.32178
3.6745	-13.797
3.675	-11.07788
3.6755	-12.68921
3.676	-9.36584
3.6765	-9.26514
3.677	-8.56018
3.6775	-4.73328
3.678	-2.41699
3.6785	-3.02124
3.679	-6.84814
3.6795	-3.62549
3.68	-1.2085
3.6805	-0.90637
3.681	-1.51062
3.6815	1.81274
3.682	11.98425
3.6825	5.53894
3.683	5.43823
3.6835	-1.91345
3.684	-8.45947
3.6845	2.5177
3.685	4.33044
3.6855	2.61841
3.686	-1.10779
3.6865	-4.33044
3.687	-3.32336
3.6875	-7.95593
3.688	-7.25098
3.6885	-1.61133
3.689	5.43823
3.6895	7.35168
3.69	3.22266
3.6905	8.56018
3.691	2.41699
3.6915	1.71204
3.692	-0.40283
3.6925	-2.92053
3.693	-8.96301
3.6935	-17.32178
3.694	-16.71753
3.6945	-20.64514
3.695	-26.3855
3.6955	-27.6947
3.696	-23.56567
3.6965	-20.94727
3.697	-18.42957
3.6975	-33.03223
3.698	-43.80798
3.6985	-40.98816
3.699	-43.30444
3.6995	-39.17542
3.7	-39.57825
3.7005	-39.17542
3.701	-32.62939
3.7015	-32.83081
3.702	-25.07629
3.7025	-17.01965
3.703	-10.27222
3.7035	-5.13611
3.704	-1.40991
3.7045	5.43823
3.705	9.97009
3.7055	15.20691
3.706	19.23523
3.7065	22.35718
3.707	26.18408
3.7075	29.20532
3.708	23.46497
3.7085	-6.64673
3.709	-31.92444
3.7095	-52.771
3.71	-64.45312
3.7105	-75.4303
3.711	-80.66711
3.7115	-99.90234
3.712	-173.11707
3.7125	-243.81409
3.713	-297.39075
3.7135	-319.04297
3.714	-299.00208
3.7145	-262.24365
3.715	-207.5592
3.7155	-142.60254
3.716	-81.57349
3.7165	-37.06055
3.717	2.5177
3.7175	45.3186
3.718	95.47119
3.7185	139.5813
3.719	181.17371
3.7195	212.39319
3.72	234.85107
3.7205	249.25232
3.721	250.86365
3.7215	246.23108
3.722	230.21851
3.7225	208.06274
3.723	179.76379
3.7235	153.57971
3.724	128.70483
3.7245	104.13208
3.725	76.63879
3.7255	44.41223
3.726	27.39258
3.7265	11.88354
3.727	9.76868
3.7275	11.88354
3.728	15.91187
3.7285	18.12744
3.729	13.89771
3.7295	12.78992
3.73	7.45239
3.7305	11.2793
3.731	8.05664
3.7315	8.45947
3.732	6.74744
3.7325	3.42407
3.733	6.2439
3.7335	5.0354
3.734	9.36584
3.7345	2.01416
3.735	4.53186
3.7355	5.53894
3.736	3.42407
3.7365	4.53186
3.737	-2.71912
3.7375	-3.7262
3.738	3.62549
3.7385	6.64673
3.739	8.25806
3.7395	3.02124
3.74	1.71204
3.7405	0.70496
3.741	-2.5177
3.7415	4.22974
3.742	3.12195
3.7425	6.44531
3.743	7.45239
3.7435	2.41699
3.744	-1.00708
3.7445	8.56018
3.745	9.97009
3.7455	0.60425
3.746	-1.00708
3.7465	-2.92053
3.747	-4.83398
3.7475	2.31628
3.748	-3.32336
3.7485	-7.25098
3.749	-8.05664
3.7495	-8.25806
3.75	-11.17859
3.7505	-8.15735
3.751	-5.74036
3.7515	-7.04956
3.752	-8.35876
3.7525	-7.35168
3.753	-1.71204
3.7535	-6.74744
3.754	-7.5531
3.7545	-7.35168
3.755	-10.27222
3.7555	-9.36584
3.756	-6.14319
3.7565	-4.43115
3.757	-6.3446
3.7575	-6.3446
3.758	-0.30212
3.7585	-5.53894
3.759	-4.73328
3.7595	-3.02124
3.76	-8.15735
3.7605	-2.5177
3.761	-7.15027
3.7615	-1.10779
3.762	-0.10071
3.7625	4.22974
3.763	0
3.7635	6.84814
3.764	15.30762
3.7645	34.34143
3.765	35.2478
3.7655	42.09595
3.766	37.7655
3.7665	42.09595
3.767	39.17542
3.7675	26.08337
3.768	22.6593
3.7685	12.38708
3.769	12.08496
3.7695	3.02124
3.77	-5.63965
3.7705	-0.90637
3.771	-12.08496
3.7715	-17.72461
3.772	-14.60266
3.7725	-18.73169
3.773	-17.92603
3.7735	-23.46497
3.774	-22.6593
3.7745	-17.12036
3.775	-16.61682
3.7755	-18.32886
3.776	-19.23523
3.7765	-16.71753
3.777	-20.74585
3.7775	-12.48779
3.778	-15.50903
3.7785	-18.12744
3.779	-14.90479
3.7795	-19.33594
3.78	-17.32178
3.7805	-11.68213
3.781	-10.97717
3.7815	-8.7616
3.782	-9.36584
3.7825	-7.75452
3.783	-7.15027
3.7835	2.41699
3.784	-4.12903
3.7845	-2.41699
3.785	-2.61841
3.7855	-3.42407
3.786	2.41699
3.7865	-2.11487
3.787	0.10071
3.7875	-0.10071
3.788	-4.22974
3.7885	-1.91345
3.789	3.7262
3.7895	0.70496
3.79	-2.81982
3.7905	0.30212
3.791	0.40283
3.7915	-1.2085
3.792	2.11487
3.7925	4.63257
3.793	0.10071
3.7935	6.04248
3.794	8.8623
3.7945	4.63257
3.795	10.27222
3.7955	8.35876
3.796	2.81982
3.7965	6.54602
3.797	4.53186
3.7975	5.63965
3.798	6.2439
3.7985	6.74744
3.799	5.53894
3.7995	9.86938
3.8	5.23682
3.8005	7.15027
3.801	5.84106
3.8015	5.84106
3.802	4.33044
3.8025	6.04248
3.803	6.84814
3.8035	5.84106
3.804	8.25806
3.8045	10.57434
3.805	8.7616
3.8055	14.50195
3.806	16.11328
3.8065	17.72461
3.807	21.75293
3.8075	22.15576
3.808	16.71753
3.8085	20.64514
3.809	15.30762
3.8095	9.16443
3.81	11.48071
3.8105	9.36584
3.811	6.14319
3.8115	0.10071
3.812	5.23682
3.8125	6.2439
3.813	4.53186
3.8135	-5.43823
3.814	-2.31628
3.8145	-1.3092
3.815	-3.02124
3.8155	-6.54602
3.816	-4.63257
3.8165	-7.95593
3.817	-4.33044
3.8175	-7.5531
3.818	-6.44531
3.8185	-6.3446
3.819	-2.21558
3.8195	-3.52478
3.82	-0.20142
3.8205	-5.23682
3.821	2.21558
3.8215	3.52478
3.822	4.43115
3.8225	0.60425
3.823	3.62549
3.8235	2.41699
3.824	6.94885
3.8245	4.93469
3.825	5.43823
3.8255	8.25806
3.826	10.97717
3.8265	4.93469
3.827	4.93469
3.8275	7.65381
3.828	4.73328
3.8285	5.13611
3.829	7.75452
3.8295	8.45947
3.83	2.71912
3.8305	2.61841
3.831	0.20142
3.8315	3.7262
3.832	-0.90637
3.8325	3.52478
3.833	-1.61133
3.8335	-3.02124
3.834	0.50354
3.8345	3.7262
3.835	2.41699
3.8355	1.61133
3.836	1.40991
3.8365	4.83398
3.837	4.33044
3.8375	11.88354
3.838	15.1062
3.8385	15.40833
3.839	17.92603
3.8395	23.26355
3.84	21.65222
3.8405	21.85364
3.841	23.56567
3.8415	18.8324
3.842	14.60266
3.8425	16.01257
3.843	19.13452
3.8435	13.49487
3.844	18.12744
3.8445	16.41541
3.845	12.89062
3.8455	12.89062
3.846	12.48779
3.8465	16.3147
3.847	10.57434
3.8475	9.36584
3.848	11.17859
3.8485	15.91187
3.849	17.6239
3.8495	6.64673
3.85	9.56726
3.8505	16.3147
3.851	14.50195
3.8515	9.97009
3.852	12.5885
3.8525	12.68921
3.853	7.15027
3.8535	4.22974
3.854	3.8269
3.8545	3.62549
3.855	3.7262
3.8555	3.42407
3.856	7.65381
3.8565	9.46655
3.857	6.74744
3.8575	8.05664
3.858	12.99133
3.8585	13.09204
3.859	8.66089
3.8595	5.33752
3.86	8.7616
3.8605	12.28638
3.861	9.66797
3.8615	5.53894
3.862	6.94885
3.8625	5.63965
3.863	11.98425
3.8635	13.29346
3.864	11.17859
3.8645	5.0354
3.865	9.06372
3.8655	8.05664
3.866	9.76868
3.8665	8.45947
3.867	6.2439
3.8675	8.15735
3.868	6.74744
3.8685	10.57434
3.869	16.41541
3.8695	8.7616
3.87	8.8623
3.8705	11.07788
3.871	12.38708
3.8715	9.76868
3.872	11.2793
3.8725	9.46655
3.873	13.69629
3.8735	7.85522
3.874	6.04248
3.8745	11.2793
3.875	13.99841
3.8755	9.86938
3.876	12.38708
3.8765	12.99133
3.877	8.7616
3.8775	9.26514
3.878	10.57434
3.8785	11.07788
3.879	16.81824
3.8795	14.40125
3.88	16.41541
3.8805	10.87646
3.881	11.2793
3.8815	16.51611
3.882	14.19983
3.8825	13.29346
3.883	12.99133
3.8835	7.5531
3.884	5.84106
3.8845	11.98425
3.885	12.18567
3.8855	5.53894
3.886	14.09912
3.8865	8.15735
3.887	7.85522
3.8875	9.46655
3.888	8.66089
3.8885	14.70337
3.889	17.52319
3.8895	10.87646
3.89	9.56726
3.8905	8.66089
3.891	8.05664
3.8915	7.5531
3.892	7.85522
3.8925	13.49487
3.893	11.48071
3.8935	10.0708
3.894	10.97717
3.8945	16.61682
3.895	13.59558
3.8955	12.89062
3.896	9.97009
3.8965	9.66797
3.897	10.47363
3.8975	12.08496
3.898	12.48779
3.8985	8.25806
3.899	17.52319
3.8995	13.89771
3.9	15.40833
3.9005	15.00549
3.901	16.51611
3.9015	17.82532
3.902	19.94019
3.9025	16.41541
3.903	10.17151
3.9035	16.71753
3.904	12.18567
3.9045	17.72461
3.905	19.33594
3.9055	20.64514
3.906	19.03381
3.9065	19.03381
3.907	22.96143
3.9075	17.42249
3.908	18.22815
3.9085	14.40125
3.909	16.71753
3.9095	11.98425
3.91	16.21399
3.9105	16.61682
3.911	16.3147
3.9115	15.81116
3.912	17.72461
3.9125	18.32886
3.913	22.35718
3.9135	15.60974
3.914	18.63098
3.9145	17.32178
3.915	19.73877
3.9155	19.63806
3.916	21.65222
3.9165	20.54443
3.917	19.94019
3.9175	20.34302
3.918	18.02673
3.9185	15.91187
3.919	21.85364
3.9195	16.51611
3.92	19.83948
3.9205	17.22107
3.921	15.71045
3.9215	17.6239
3.922	17.42249
3.9225	19.53735
3.923	14.90479
3.9235	17.42249
3.924	21.24939
3.9245	22.15576
3.925	16.21399
3.9255	19.73877
3.926	16.51611
3.9265	20.34302
3.927	16.71753
3.9275	17.82532
3.928	15.40833
3.9285	19.03381
3.929	12.28638
3.9295	16.91895
3.93	8.66089
3.9305	13.89771
3.931	15.00549
3.9315	13.99841
3.932	10.47363
3.9325	18.22815
3.933	14.19983
3.9335	18.42957
3.934	14.90479
3.9345	19.43665
3.935	16.71753
3.9355	12.28638
3.936	19.23523
3.9365	16.51611
3.937	21.55151
3.9375	18.12744
3.938	18.8324
3.9385	18.53027
3.939	16.41541
3.9395	20.94727
3.94	18.12744
3.9405	21.04797
3.941	12.18567
3.9415	18.8324
3.942	20.84656
3.9425	18.63098
3.943	18.73169
3.9435	16.3147
3.944	11.88354
3.9445	13.09204
3.945	13.49487
3.9455	19.13452
3.946	18.53027
3.9465	17.12036
3.947	14.90479
3.9475	12.78992
3.948	11.78284
3.9485	14.60266
3.949	11.07788
3.9495	11.68213
3.95	17.92603
3.9505	15.1062
3.951	15.30762
3.9515	18.22815
3.952	15.30762
3.9525	15.71045
3.953	17.12036
3.9535	18.93311
3.954	11.98425
3.9545	18.32886
3.955	13.59558
3.9555	17.42249
3.956	15.91187
3.9565	15.71045
3.957	14.19983
3.9575	11.17859
3.958	15.1062
3.9585	16.01257
3.959	19.43665
3.9595	16.91895
3.96	17.42249
3.9605	14.09912
3.961	21.75293
3.9615	15.20691
3.962	20.64514
3.9625	22.6593
3.963	21.3501
3.9635	17.92603
3.964	19.03381
3.9645	17.52319
3.965	13.49487
3.9655	21.55151
3.966	16.61682
3.9665	15.81116
3.967	25.27771
3.9675	22.45789
3.968	14.80408
3.9685	19.43665
3.969	18.32886
3.9695	18.93311
3.97	19.83948
3.9705	20.1416
3.971	18.22815
3.9715	20.24231
3.972	22.05505
3.9725	17.92603
3.973	20.44373
3.9735	23.8678
3.974	22.6593
3.9745	16.71753
3.975	12.78992
3.9755	12.89062
3.976	16.61682
3.9765	10.37292
3.977	9.06372
3.9775	18.93311
3.978	17.52319
3.9785	16.81824
3.979	21.04797
3.9795	17.01965
3.98	16.11328
3.9805	13.39417
3.981	15.91187
3.9815	22.05505
3.982	16.71753
3.9825	12.08496
3.983	8.96301
3.9835	16.01257
3.984	7.85522
3.9845	15.81116
3.985	16.51611
3.9855	17.52319
3.986	14.40125
3.9865	8.45947
3.987	12.18567
3.9875	9.36584
3.988	11.2793
3.9885	5.94177
3.989	10.77576
3.9895	17.72461
3.99	8.05664
3.9905	10.27222
3.991	16.91895
3.9915	16.01257
3.992	15.40833
3.9925	15.40833
3.993	11.2793
3.9935	13.89771
3.994	13.09204
3.9945	9.76868
3.995	14.19983
3.9955	16.01257
3.996	16.41541
3.9965	11.48071
3.997	8.8623
3.9975	12.78992
3.998	6.14319
3.9985	3.32336
3.999	4.53186
3.9995	7.35168
4	4.63257
4.0005	4.12903
4.001	10.0708
4.0015	10.87646
4.002	9.16443
4.0025	6.54602
4.003	11.2793
4.0035	8.15735
4.004	8.66089
4.0045	11.88354
4.005	9.66797
4.0055	9.66797
4.006	11.78284
4.0065	7.25098
4.007	11.88354
4.0075	8.8623
4.008	8.45947
4.0085	9.56726
4.009	11.68213
4.0095	6.14319
4.01	7.65381
4.0105	9.06372
4.011	0.80566
4.0115	6.64673
4.012	12.18567
4.0125	8.56018
4.013	9.56726
4.0135	8.56018
4.014	3.42407
4.0145	9.97009
4.015	4.63257
4.0155	2.81982
4.016	7.04956
4.0165	0.70496
4.017	4.43115
4.0175	6.64673
4.018	4.33044
4.0185	2.5177
4.019	5.13611
4.0195	0.70496
4.02	5.63965
4.0205	2.5177
4.021	5.0354
4.0215	0.80566
4.022	-0.40283
4.0225	1.2085
4.023	5.74036
4.0235	2.41699
4.024	0.40283
4.0245	5.23682
4.025	3.02124
4.0255	2.21558
4.026	1.51062
4.0265	-4.53186
4.027	-4.02832
4.0275	-2.92053
4.028	-3.8269
4.0285	-0.60425
4.029	-0.80566
4.0295	-5.43823
4.03	-6.54602
4.0305	-5.43823
4.031	-2.21558
4.0315	-1.10779
4.032	-4.93469
4.0325	-3.12195
4.033	-3.22266
4.0335	-4.02832
4.034	-1.40991
4.0345	2.31628
4.035	0.50354
4.0355	-1.00708
4.036	-1.2085
4.0365	1.81274
4.037	3.22266
4.0375	3.32336
4.038	2.61841
4.0385	1.81274
4.039	-3.22266
4.0395	2.11487
4.04	-2.61841
4.0405	-2.81982
4.041	1.00708
4.0415	-1.10779
4.042	6.94885
4.0425	0
4.043	0.50354
4.0435	2.61841
4.044	4.73328
4.0445	2.01416
4.045	1.2085
