Domenico_Di_Fonza_Left_1.c3d  



Time(s):	A_R_bicipite(μV):
0	12.48779
0.0005	2.01416
0.001	-2.21558
0.0015	1.10779
0.002	0.90637
0.0025	-9.97009
0.003	-14.80408
0.0035	-13.797
0.004	-15.71045
0.0045	-14.70337
0.005	-18.53027
0.0055	-36.85913
0.006	-50.15259
0.0065	-51.66321
0.007	-44.71436
0.0075	-40.38391
0.008	-35.44922
0.0085	-22.86072
0.009	-13.89771
0.0095	-4.12903
0.01	2.21558
0.0105	9.56726
0.011	17.32178
0.0115	16.81824
0.012	22.86072
0.0125	30.61523
0.013	42.19666
0.0135	45.82214
0.014	51.05896
0.0145	45.62073
0.015	34.44214
0.0155	-1.81274
0.016	-25.47913
0.0165	-30.01099
0.017	-23.36426
0.0175	-21.85364
0.018	-11.07788
0.0185	-6.2439
0.019	-13.99841
0.0195	-38.77258
0.02	-55.89294
0.0205	-51.66321
0.021	-43.80798
0.0215	-23.26355
0.022	-0.60425
0.0225	21.65222
0.023	32.22656
0.0235	44.81506
0.024	55.89294
0.0245	57.50427
0.025	71.50269
0.0255	71.7041
0.026	77.24304
0.0265	68.48145
0.027	62.03613
0.0275	56.29578
0.028	46.22498
0.0285	40.1825
0.029	6.74744
0.0295	-10.97717
0.03	-15.00549
0.0305	-18.93311
0.031	-18.42957
0.0315	-6.04248
0.032	3.12195
0.0325	13.797
0.033	22.86072
0.0335	13.69629
0.034	9.36584
0.0345	3.02124
0.035	-10.77576
0.0355	-26.88904
0.036	-30.2124
0.0365	-31.82373
0.037	-29.60815
0.0375	-42.90161
0.038	-57.8064
0.0385	-53.77808
0.039	-39.07471
0.0395	-40.38391
0.04	-70.09277
0.0405	-74.12109
0.041	-58.51135
0.0415	-36.85913
0.042	-15.81116
0.0425	6.84814
0.043	27.79541
0.0435	43.10303
0.044	61.6333
0.0445	68.38074
0.045	73.31543
0.0455	79.66003
0.046	77.948
0.0465	75.53101
0.047	64.35242
0.0475	62.03613
0.048	52.56958
0.0485	54.38232
0.049	65.15808
0.0495	90.03296
0.05	89.52942
0.0505	73.01331
0.051	55.59082
0.0515	44.21082
0.052	37.86621
0.0525	25.07629
0.053	25.37842
0.0535	18.12744
0.054	16.61682
0.0545	20.54443
0.055	19.53735
0.0555	12.08496
0.056	5.74036
0.0565	4.53186
0.057	-4.43115
0.0575	-10.87646
0.058	-5.94177
0.0585	-6.04248
0.059	-7.65381
0.0595	-12.38708
0.06	-12.48779
0.0605	-13.99841
0.061	-20.1416
0.0615	-18.42957
0.062	-24.16992
0.0625	-19.83948
0.063	-18.12744
0.0635	-10.87646
0.064	-17.12036
0.0645	-18.93311
0.065	-15.71045
0.0655	-14.30054
0.066	-13.49487
0.0665	-19.43665
0.067	-19.23523
0.0675	-19.94019
0.068	-23.66638
0.0685	-26.18408
0.069	-28.50037
0.0695	-37.16125
0.07	-40.68604
0.0705	-28.50037
0.071	-24.27063
0.0715	-16.51611
0.072	-11.98425
0.0725	-4.83398
0.073	-3.52478
0.0735	-5.0354
0.074	-2.41699
0.0745	-5.13611
0.075	-9.66797
0.0755	-9.86938
0.076	-6.84814
0.0765	-8.96301
0.077	-24.77417
0.0775	-33.53577
0.078	-38.57117
0.0785	-45.01648
0.079	-73.01331
0.0795	-87.71667
0.08	-80.06287
0.0805	-64.35242
0.081	-48.94409
0.0815	-27.99683
0.082	-5.74036
0.0825	9.16443
0.083	29.40674
0.0835	48.13843
0.084	58.61206
0.0845	62.9425
0.085	64.25171
0.0855	71.60339
0.086	83.38623
0.0865	96.8811
0.087	91.94641
0.0875	81.47278
0.088	74.72534
0.0885	71.09985
0.089	59.21631
0.0895	55.79224
0.09	46.92993
0.0905	36.05347
0.091	26.68762
0.0915	19.83948
0.092	29.80957
0.0925	32.52869
0.093	36.4563
0.0935	35.95276
0.094	25.27771
0.0945	14.40125
0.095	3.32336
0.0955	-1.91345
0.096	-13.59558
0.0965	-14.90479
0.097	-53.67737
0.0975	-90.93933
0.098	-85.80322
0.0985	-80.06287
0.099	-72.50977
0.0995	-63.54675
0.1	-53.87878
0.1005	-43.30444
0.101	-40.78674
0.1015	-45.01648
0.102	-37.7655
0.1025	-33.73718
0.103	-19.13452
0.1035	-14.80408
0.104	-3.92761
0.1045	4.02832
0.105	9.26514
0.1055	11.68213
0.106	13.89771
0.1065	19.13452
0.107	21.65222
0.1075	13.49487
0.108	9.66797
0.1085	18.53027
0.109	28.29895
0.1095	52.16675
0.11	58.00781
0.1105	66.16516
0.111	75.12817
0.1115	83.48694
0.112	101.61438
0.1125	114.00146
0.113	113.09509
0.1135	99.09668
0.114	81.17065
0.1145	70.59631
0.115	67.17224
0.1155	66.36658
0.116	61.93542
0.1165	53.47595
0.117	46.12427
0.1175	43.40515
0.118	34.94568
0.1185	29.40674
0.119	13.89771
0.1195	0.70496
0.12	-2.71912
0.1205	-11.38
0.121	-9.06372
0.1215	-19.13452
0.122	-17.92603
0.1225	-19.83948
0.123	-14.70337
0.1235	-13.09204
0.124	-12.89062
0.1245	-11.88354
0.125	-13.39417
0.1255	-15.91187
0.126	-11.07788
0.1265	-12.38708
0.127	-17.22107
0.1275	-19.94019
0.128	-30.81665
0.1285	-24.57275
0.129	-17.52319
0.1295	-21.3501
0.13	-61.43188
0.1305	-79.86145
0.131	-74.82605
0.1315	-65.76233
0.132	-48.44055
0.1325	-21.75293
0.133	-3.32336
0.1335	20.84656
0.134	32.83081
0.1345	48.13843
0.135	53.17383
0.1355	53.27454
0.136	54.38232
0.1365	52.771
0.137	48.64197
0.1375	35.65063
0.138	26.98975
0.1385	21.85364
0.139	-14.40125
0.1395	-48.54126
0.14	-84.99756
0.1405	-95.06836
0.141	-95.16907
0.1415	-88.0188
0.142	-57.00073
0.1425	-34.03931
0.143	-21.14868
0.1435	-8.7616
0.144	7.04956
0.1445	21.14868
0.145	26.58691
0.1455	40.48462
0.146	55.89294
0.1465	55.79224
0.147	59.92126
0.1475	52.97241
0.148	48.03772
0.1485	35.54993
0.149	37.56409
0.1495	36.25488
0.15	40.68604
0.1505	32.22656
0.151	24.67346
0.1515	17.72461
0.152	19.63806
0.1525	17.52319
0.153	23.66638
0.1535	27.29187
0.154	26.28479
0.1545	21.85364
0.155	23.46497
0.1555	17.42249
0.156	18.73169
0.1565	12.18567
0.157	11.88354
0.1575	16.91895
0.158	20.74585
0.1585	23.8678
0.159	16.71753
0.1595	8.66089
0.16	12.48779
0.1605	7.35168
0.161	3.02124
0.1615	-3.22266
0.162	-9.46655
0.1625	-11.58142
0.163	-13.09204
0.1635	-18.63098
0.164	-27.59399
0.1645	-24.37134
0.165	-27.99683
0.1655	-35.14709
0.166	-35.65063
0.1665	-25.98267
0.167	-10.37292
0.1675	4.43115
0.168	17.52319
0.1685	24.16992
0.169	27.29187
0.1695	15.60974
0.17	-10.57434
0.1705	-39.17542
0.171	-58.20923
0.1715	-59.71985
0.172	-54.78516
0.1725	-48.94409
0.173	-29.50745
0.1735	-11.58142
0.174	10.87646
0.1745	28.19824
0.175	55.3894
0.1755	62.53967
0.176	55.2887
0.1765	41.4917
0.177	42.7002
0.1775	43.00232
0.178	33.83789
0.1785	17.52319
0.179	-2.31628
0.1795	-1.81274
0.18	2.11487
0.1805	7.35168
0.181	9.86938
0.1815	29.10461
0.182	37.26196
0.1825	40.78674
0.183	39.57825
0.1835	41.08887
0.184	47.63489
0.1845	50.354
0.185	42.09595
0.1855	39.77966
0.186	32.52869
0.1865	30.2124
0.187	22.55859
0.1875	17.42249
0.188	6.2439
0.1885	-17.82532
0.189	-34.34143
0.1895	-39.57825
0.19	-38.36975
0.1905	-38.36975
0.191	-24.77417
0.1915	-19.33594
0.192	-5.33752
0.1925	6.14319
0.193	13.09204
0.1935	20.94727
0.194	33.03223
0.1945	46.12427
0.195	52.16675
0.1955	42.49878
0.196	38.16833
0.1965	31.01807
0.197	36.25488
0.1975	36.15417
0.198	15.60974
0.1985	11.38
0.199	12.89062
0.1995	13.19275
0.2	9.46655
0.2005	7.04956
0.201	8.15735
0.2015	3.8269
0.202	9.56726
0.2025	22.05505
0.203	35.34851
0.2035	35.95276
0.204	38.77258
0.2045	47.93701
0.205	48.84338
0.2055	40.78674
0.206	43.60657
0.2065	41.99524
0.207	39.88037
0.2075	37.26196
0.208	38.57117
0.2085	21.24939
0.209	10.87646
0.2095	-4.63257
0.21	-25.78125
0.2105	-41.59241
0.211	-43.50586
0.2115	-45.82214
0.212	-41.08887
0.2125	-39.47754
0.213	-32.7301
0.2135	-52.771
0.214	-107.75757
0.2145	-138.97705
0.215	-169.89441
0.2155	-184.29565
0.216	-174.42627
0.2165	-137.26501
0.217	-92.65137
0.2175	-49.34692
0.218	2.5177
0.2185	47.7356
0.219	88.92517
0.2195	114.70642
0.22	125.58289
0.2205	133.43811
0.221	152.27051
0.2215	138.57422
0.222	100.30518
0.2225	55.49011
0.223	22.45789
0.2235	13.29346
0.224	8.05664
0.2245	4.53186
0.225	2.01416
0.2255	-3.92761
0.226	-1.61133
0.2265	-4.73328
0.227	0.70496
0.2275	5.13611
0.228	6.74744
0.2285	11.68213
0.229	14.90479
0.2295	11.48071
0.23	9.16443
0.2305	-1.10779
0.231	-6.64673
0.2315	-9.56726
0.232	-15.91187
0.2325	-16.71753
0.233	-18.32886
0.2335	-16.81824
0.234	-18.93311
0.2345	-12.08496
0.235	-31.92444
0.2355	-32.7301
0.236	-28.09753
0.2365	-10.87646
0.237	5.23682
0.2375	23.8678
0.238	36.35559
0.2385	48.54126
0.239	57.30286
0.2395	54.68445
0.24	53.37524
0.2405	48.64197
0.241	47.03064
0.2415	30.61523
0.242	3.12195
0.2425	-12.5885
0.243	-6.54602
0.2435	8.8623
0.244	16.91895
0.2445	29.00391
0.245	33.33435
0.2455	32.12585
0.246	30.71594
0.2465	28.29895
0.247	28.50037
0.2475	31.52161
0.248	34.34143
0.2485	39.37683
0.249	35.34851
0.2495	29.00391
0.25	24.87488
0.2505	26.58691
0.251	29.80957
0.2515	18.73169
0.252	-13.49487
0.2525	-33.13293
0.253	-37.06055
0.2535	-34.34143
0.254	-29.30603
0.2545	-23.66638
0.255	-12.18567
0.2555	2.92053
0.256	12.99133
0.2565	20.74585
0.257	18.53027
0.2575	-18.8324
0.258	-74.2218
0.2585	-106.75049
0.259	-104.93774
0.2595	-95.87402
0.26	-93.35632
0.2605	-72.71118
0.261	-47.8363
0.2615	-30.01099
0.262	-13.99841
0.2625	9.56726
0.263	22.86072
0.2635	29.91028
0.264	21.95435
0.2645	19.83948
0.265	-1.40991
0.2655	-9.36584
0.266	-0.70496
0.2665	6.54602
0.267	17.92603
0.2675	28.9032
0.268	35.65063
0.2685	47.93701
0.269	52.16675
0.2695	54.68445
0.27	64.55383
0.2705	75.93384
0.271	86.8103
0.2715	98.19031
0.272	96.7804
0.2725	84.2926
0.273	65.66162
0.2735	58.30994
0.274	50.15259
0.2745	42.39807
0.275	31.62231
0.2755	15.50903
0.276	21.75293
0.2765	18.93311
0.277	-1.51062
0.2775	-45.82214
0.278	-64.25171
0.2785	-72.40906
0.279	-67.37366
0.2795	-67.57507
0.28	-51.46179
0.2805	-27.29187
0.281	-16.81824
0.2815	-4.83398
0.282	3.12195
0.2825	5.74036
0.283	6.2439
0.2835	12.78992
0.284	21.24939
0.2845	22.25647
0.285	22.15576
0.2855	19.73877
0.286	26.98975
0.2865	32.83081
0.287	33.53577
0.2875	35.65063
0.288	16.71753
0.2885	1.61133
0.289	-4.33044
0.2895	-5.53894
0.29	-7.5531
0.2905	-11.58142
0.291	-6.74744
0.2915	-0.50354
0.292	4.63257
0.2925	1.61133
0.293	-8.66089
0.2935	-19.33594
0.294	-11.68213
0.2945	-11.17859
0.295	-8.25806
0.2955	-4.12903
0.296	-0.10071
0.2965	2.92053
0.297	6.84814
0.2975	6.54602
0.298	13.69629
0.2985	21.3501
0.299	26.78833
0.2995	-3.42407
0.3	-28.9032
0.3005	-43.10303
0.301	-40.78674
0.3015	-40.48462
0.302	-36.75842
0.3025	-21.65222
0.303	4.02832
0.3035	26.3855
0.304	43.30444
0.3045	61.93542
0.305	88.32092
0.3055	96.57898
0.306	101.11084
0.3065	109.4696
0.307	94.46411
0.3075	84.99756
0.308	68.58215
0.3085	55.49011
0.309	36.95984
0.3095	9.46655
0.31	-11.2793
0.3105	-23.56567
0.311	-32.7301
0.3115	-29.40674
0.312	-30.11169
0.3125	-29.10461
0.313	-30.51453
0.3135	-33.9386
0.314	-27.39258
0.3145	-23.36426
0.315	-15.40833
0.3155	-6.74744
0.316	12.5885
0.3165	19.53735
0.317	21.3501
0.3175	10.77576
0.318	-27.09045
0.3185	-47.33276
0.319	-45.72144
0.3195	-39.37683
0.32	-81.37207
0.3205	-109.87244
0.321	-102.92358
0.3215	-83.38623
0.322	-55.3894
0.3225	-25.177
0.323	14.70337
0.3235	35.44922
0.324	46.12427
0.3245	61.43188
0.325	68.58215
0.3255	69.48853
0.326	73.01331
0.3265	66.26587
0.327	70.69702
0.3275	60.3241
0.328	54.98657
0.3285	54.0802
0.329	39.47754
0.3295	28.60107
0.33	21.14868
0.3305	8.56018
0.331	11.2793
0.3315	16.51611
0.332	16.61682
0.3325	13.19275
0.333	20.34302
0.3335	24.47205
0.334	15.1062
0.3345	-23.16284
0.335	-46.92993
0.3355	-54.0802
0.336	-45.11719
0.3365	-35.85205
0.337	-20.84656
0.3375	-3.52478
0.338	5.74036
0.3385	16.3147
0.339	26.88904
0.3395	37.36267
0.34	35.85205
0.3405	31.4209
0.341	30.81665
0.3415	19.94019
0.342	-13.59558
0.3425	-31.52161
0.343	-41.39099
0.3435	-39.47754
0.344	-35.85205
0.3445	-26.28479
0.345	-16.21399
0.3455	-2.92053
0.346	10.57434
0.3465	11.07788
0.347	13.49487
0.3475	20.44373
0.348	29.50745
0.3485	35.2478
0.349	33.9386
0.3495	33.13293
0.35	33.53577
0.3505	32.22656
0.351	35.14709
0.3515	29.00391
0.352	4.63257
0.3525	-16.91895
0.353	-16.41541
0.3535	-7.5531
0.354	-12.08496
0.3545	-12.99133
0.355	-11.68213
0.3555	-6.3446
0.356	3.8269
0.3565	17.92603
0.357	25.68054
0.3575	31.01807
0.358	42.19666
0.3585	49.54834
0.359	57.40356
0.3595	58.20923
0.36	57.70569
0.3605	52.8717
0.361	50.85754
0.3615	39.27612
0.362	30.81665
0.3625	23.36426
0.363	23.46497
0.3635	8.45947
0.364	11.38
0.3645	20.64514
0.365	18.42957
0.3655	19.63806
0.366	14.50195
0.3665	16.11328
0.367	18.02673
0.3675	8.25806
0.368	-0.70496
0.3685	-5.23682
0.369	-6.84814
0.3695	-4.83398
0.37	-11.88354
0.3705	-11.48071
0.371	-17.82532
0.3715	-16.91895
0.372	-13.797
0.3725	-15.91187
0.373	-16.61682
0.3735	-10.57434
0.374	-12.38708
0.3745	-10.97717
0.375	-7.35168
0.3755	-11.38
0.376	-4.63257
0.3765	-15.71045
0.377	-12.48779
0.3775	-9.06372
0.378	-6.2439
0.3785	8.05664
0.379	32.62939
0.3795	40.38391
0.38	27.49329
0.3805	21.65222
0.381	16.11328
0.3815	9.97009
0.382	14.09912
0.3825	16.91895
0.383	7.65381
0.3835	-16.51611
0.384	-52.56958
0.3845	-74.2218
0.385	-81.67419
0.3855	-113.29651
0.386	-146.42944
0.3865	-157.2052
0.387	-145.9259
0.3875	-115.20996
0.388	-83.08411
0.3885	-46.82922
0.389	-4.83398
0.3895	30.51453
0.39	54.0802
0.3905	74.12109
0.391	87.21313
0.3915	89.83154
0.392	90.03296
0.3925	65.3595
0.393	49.54834
0.3935	42.29736
0.394	39.67896
0.3945	37.26196
0.395	38.974
0.3955	44.31152
0.396	54.18091
0.3965	52.26746
0.397	51.36108
0.3975	44.51294
0.398	49.44763
0.3985	48.44055
0.399	54.78516
0.3995	53.27454
0.4	51.76392
0.4005	55.3894
0.401	46.92993
0.4015	48.64197
0.402	43.20374
0.4025	34.64355
0.403	30.61523
0.4035	4.83398
0.404	-22.6593
0.4045	-32.62939
0.405	-39.37683
0.4055	-45.2179
0.406	-49.85046
0.4065	-43.20374
0.407	-39.27612
0.4075	-35.34851
0.408	-25.37842
0.4085	-12.28638
0.409	-1.3092
0.4095	12.68921
0.41	9.46655
0.4105	5.43823
0.411	13.99841
0.4115	15.91187
0.412	16.01257
0.4125	10.67505
0.413	-43.50586
0.4135	-91.8457
0.414	-114.505
0.4145	-110.17456
0.415	-87.31384
0.4155	-56.69861
0.416	-15.91187
0.4165	9.76868
0.417	47.63489
0.4175	76.23596
0.418	102.21863
0.4185	125.88501
0.419	130.71899
0.4195	133.03528
0.42	135.8551
0.4205	117.72766
0.421	107.35474
0.4215	98.49243
0.422	74.2218
0.4225	40.38391
0.423	14.30054
0.4235	-3.22266
0.424	-5.74036
0.4245	-6.14319
0.425	-18.02673
0.4255	-23.36426
0.426	-25.68054
0.4265	-21.45081
0.427	-16.91895
0.4275	-9.97009
0.428	-2.61841
0.4285	0.50354
0.429	-3.12195
0.4295	-6.64673
0.43	-4.83398
0.4305	-6.14319
0.431	-3.02124
0.4315	-0.30212
0.432	-2.5177
0.4325	4.73328
0.433	8.35876
0.4335	23.26355
0.434	29.80957
0.4345	12.5885
0.435	-30.81665
0.4355	-40.58533
0.436	-43.90869
0.4365	-37.56409
0.437	-26.08337
0.4375	-6.14319
0.438	10.57434
0.4385	23.06213
0.439	35.34851
0.4395	40.38391
0.44	47.43347
0.4405	42.09595
0.441	29.00391
0.4415	27.89612
0.442	28.09753
0.4425	24.77417
0.443	9.16443
0.4435	6.54602
0.444	1.91345
0.4445	6.2439
0.445	-0.70496
0.4455	-4.63257
0.446	-11.58142
0.4465	-21.04797
0.447	-30.11169
0.4475	-36.55701
0.448	-36.75842
0.4485	-34.54285
0.449	-32.52869
0.4495	-65.05737
0.45	-94.46411
0.4505	-128.302
0.451	-138.27209
0.4515	-130.61829
0.452	-122.56165
0.4525	-114.505
0.453	-94.66553
0.4535	-66.87012
0.454	-48.13843
0.4545	-22.76001
0.455	6.44531
0.4555	30.51453
0.456	47.03064
0.4565	55.18799
0.457	59.61914
0.4575	57.8064
0.458	45.3186
0.4585	23.66638
0.459	23.8678
0.4595	40.48462
0.46	49.95117
0.4605	60.4248
0.461	72.20764
0.4615	95.26978
0.462	106.44836
0.4625	119.64111
0.463	119.4397
0.4635	123.2666
0.464	120.24536
0.4645	113.1958
0.465	98.89526
0.4655	80.16357
0.466	64.65454
0.4665	52.56958
0.467	38.36975
0.4675	29.91028
0.468	11.88354
0.4685	3.22266
0.469	-8.8623
0.4695	-9.76868
0.47	-15.00549
0.4705	-8.15735
0.471	-2.92053
0.4715	-1.10779
0.472	-2.61841
0.4725	0.10071
0.473	-1.61133
0.4735	0.70496
0.474	-7.75452
0.4745	-1.10779
0.475	-0.90637
0.4755	-1.3092
0.476	-4.73328
0.4765	-7.04956
0.477	-6.2439
0.4775	-15.1062
0.478	-21.95435
0.4785	-29.91028
0.479	-33.13293
0.4795	-33.63647
0.48	-32.52869
0.4805	-25.177
0.481	-20.84656
0.4815	-25.57983
0.482	-17.92603
0.4825	-11.58142
0.483	-14.19983
0.4835	-22.35718
0.484	-15.40833
0.4845	-12.48779
0.485	-7.25098
0.4855	-12.18567
0.486	-6.44531
0.4865	-6.74744
0.487	-1.00708
0.4875	3.02124
0.488	2.61841
0.4885	4.93469
0.489	-13.69629
0.4895	-27.89612
0.49	-38.87329
0.4905	-46.62781
0.491	-55.18799
0.4915	-65.3595
0.492	-61.23047
0.4925	-58.41064
0.493	-49.95117
0.4935	-48.13843
0.494	-44.91577
0.4945	-30.81665
0.495	-25.98267
0.4955	-14.60266
0.496	-7.35168
0.4965	1.71204
0.497	15.60974
0.4975	25.07629
0.498	30.61523
0.4985	14.40125
0.499	9.56726
0.4995	10.67505
0.5	17.6239
0.5005	30.01099
0.501	32.62939
0.5015	28.60107
0.502	33.03223
0.5025	41.69312
0.503	45.62073
0.5035	48.33984
0.504	55.59082
0.5045	59.31702
0.505	66.56799
0.5055	62.13684
0.506	53.47595
0.5065	43.60657
0.507	35.44922
0.5075	22.96143
0.508	-29.10461
0.5085	-89.12659
0.509	-106.8512
0.5095	-111.18164
0.51	-94.76624
0.5105	-63.34534
0.511	-36.75842
0.5115	-12.99133
0.512	11.68213
0.5125	38.77258
0.513	53.57666
0.5135	61.02905
0.514	65.86304
0.5145	67.97791
0.515	65.46021
0.5155	59.01489
0.516	47.7356
0.5165	44.0094
0.517	38.16833
0.5175	42.59949
0.518	27.79541
0.5185	30.41382
0.519	36.65771
0.5195	26.88904
0.52	7.35168
0.5205	-0.30212
0.521	3.12195
0.5215	-4.02832
0.522	-9.76868
0.5225	-15.30762
0.523	-10.77576
0.5235	-9.36584
0.524	-11.07788
0.5245	-14.50195
0.525	-44.51294
0.5255	-88.72375
0.526	-110.6781
0.5265	-111.9873
0.527	-115.00854
0.5275	-107.05261
0.528	-91.24146
0.5285	-78.45154
0.529	-71.20056
0.5295	-58.10852
0.53	-45.62073
0.5305	-26.3855
0.531	-11.07788
0.5315	9.06372
0.532	9.16443
0.5325	14.30054
0.533	27.59399
0.5335	37.7655
0.534	58.30994
0.5345	67.57507
0.535	75.12817
0.5355	77.34375
0.536	76.43738
0.5365	83.78906
0.537	88.0188
0.5375	80.16357
0.538	80.56641
0.5385	84.19189
0.539	80.66711
0.5395	74.02039
0.54	59.01489
0.5405	48.44055
0.541	50.354
0.5415	46.82922
0.542	48.03772
0.5425	47.23206
0.543	33.03223
0.5435	34.54285
0.544	19.94019
0.5445	16.91895
0.545	8.96301
0.5455	1.81274
0.546	3.32336
0.5465	-0.70496
0.547	-11.78284
0.5475	-20.94727
0.548	-28.09753
0.5485	-32.62939
0.549	-35.65063
0.5495	-39.77966
0.55	-66.46729
0.5505	-81.06995
0.551	-86.8103
0.5515	-92.14783
0.552	-115.81421
0.5525	-108.26111
0.553	-96.7804
0.5535	-64.05029
0.554	-36.15417
0.5545	-2.21558
0.555	25.47913
0.5555	42.8009
0.556	55.69153
0.5565	67.17224
0.557	74.42322
0.5575	74.52393
0.558	78.25012
0.5585	77.948
0.559	56.79932
0.5595	47.7356
0.56	47.7356
0.5605	45.72144
0.561	39.17542
0.5615	43.10303
0.562	33.03223
0.5625	31.01807
0.563	38.77258
0.5635	50.2533
0.564	51.96533
0.5645	53.87878
0.565	50.95825
0.5655	42.49878
0.566	25.57983
0.5665	22.96143
0.567	9.66797
0.5675	-1.40991
0.568	-18.73169
0.5685	-23.06213
0.569	-19.33594
0.5695	-16.3147
0.57	-16.61682
0.5705	-15.30762
0.571	-16.71753
0.5715	-15.20691
0.572	-9.86938
0.5725	-8.96301
0.573	-8.45947
0.5735	-13.09204
0.574	-21.24939
0.5745	-21.55151
0.575	-24.47205
0.5755	-25.88196
0.576	-22.15576
0.5765	-18.02673
0.577	-18.93311
0.5775	-42.8009
0.578	-67.47437
0.5785	-71.80481
0.579	-59.92126
0.5795	-40.98816
0.58	-11.38
0.5805	15.71045
0.581	36.4563
0.5815	60.4248
0.582	80.4657
0.5825	86.91101
0.583	96.67969
0.5835	89.12659
0.584	81.17065
0.5845	59.31702
0.585	16.11328
0.5855	-57.9071
0.586	-90.33508
0.5865	-93.25562
0.587	-76.23596
0.5875	-66.36658
0.588	-50.2533
0.5885	-34.54285
0.589	-9.66797
0.5895	18.73169
0.59	41.39099
0.5905	58.71277
0.591	58.20923
0.5915	64.75525
0.592	60.22339
0.5925	39.57825
0.593	1.71204
0.5935	-18.42957
0.594	-33.83789
0.5945	-36.95984
0.595	-44.0094
0.5955	-39.57825
0.596	-29.40674
0.5965	-16.81824
0.597	-7.5531
0.5975	-2.31628
0.598	8.15735
0.5985	8.25806
0.599	7.04956
0.5995	13.09204
0.6	13.59558
0.6005	20.84656
0.601	22.86072
0.6015	31.82373
0.602	31.32019
0.6025	27.79541
0.603	26.58691
0.6035	23.46497
0.604	18.8324
0.6045	11.48071
0.605	15.91187
0.6055	19.33594
0.606	23.46497
0.6065	31.01807
0.607	24.77417
0.6075	16.21399
0.608	16.71753
0.6085	17.12036
0.609	23.16284
0.6095	25.27771
0.61	32.32727
0.6105	28.60107
0.611	21.65222
0.6115	9.26514
0.612	-16.51611
0.6125	-31.11877
0.613	-39.07471
0.6135	-28.60107
0.614	-18.42957
0.6145	-12.89062
0.615	-13.797
0.6155	-23.16284
0.616	-25.88196
0.6165	-27.6947
0.617	-19.83948
0.6175	-18.02673
0.618	-11.48071
0.6185	-2.5177
0.619	-4.73328
0.6195	-3.52478
0.62	-3.32336
0.6205	-5.0354
0.621	-4.43115
0.6215	0.10071
0.622	5.13611
0.6225	11.38
0.623	7.45239
0.6235	4.22974
0.624	1.40991
0.6245	3.22266
0.625	9.86938
0.6255	18.32886
0.626	34.64355
0.6265	54.98657
0.627	58.30994
0.6275	52.36816
0.628	46.62781
0.6285	41.89453
0.629	41.59241
0.6295	37.96692
0.63	24.97559
0.6305	16.81824
0.631	8.45947
0.6315	-13.59558
0.632	-64.151
0.6325	-97.08252
0.633	-88.22021
0.6335	-81.87561
0.634	-65.15808
0.6345	-56.09436
0.635	-48.03772
0.6355	-39.27612
0.636	-29.60815
0.6365	-22.45789
0.637	-16.51611
0.6375	-44.21082
0.638	-112.59155
0.6385	-165.36255
0.639	-172.91565
0.6395	-156.80237
0.64	-120.95032
0.6405	-80.16357
0.641	-35.75134
0.6415	23.46497
0.642	71.90552
0.6425	107.25403
0.643	129.81262
0.6435	143.50891
0.644	150.65918
0.6445	166.57104
0.645	169.89441
0.6455	146.32874
0.646	122.36023
0.6465	100.50659
0.647	79.45862
0.6475	73.71826
0.648	68.38074
0.6485	61.73401
0.649	65.86304
0.6495	65.46021
0.65	62.74109
0.6505	58.71277
0.651	61.53259
0.6515	54.88586
0.652	55.79224
0.6525	52.56958
0.653	42.90161
0.6535	34.84497
0.654	14.30054
0.6545	-2.01416
0.655	-21.45081
0.6555	-29.00391
0.656	-31.52161
0.6565	-27.29187
0.657	-28.09753
0.6575	-26.08337
0.658	-11.98425
0.6585	-9.97009
0.659	-10.0708
0.6595	-8.05664
0.66	-18.12744
0.6605	-48.23914
0.661	-63.04321
0.6615	-54.78516
0.662	-45.82214
0.6625	-26.08337
0.663	-6.3446
0.6635	14.19983
0.664	30.2124
0.6645	47.33276
0.665	59.1156
0.6655	59.01489
0.666	60.4248
0.6665	53.67737
0.667	46.72852
0.6675	39.88037
0.668	38.26904
0.6685	31.4209
0.669	21.04797
0.6695	12.08496
0.67	6.84814
0.6705	4.12903
0.671	-2.01416
0.6715	-2.21558
0.672	-9.97009
0.6725	-25.57983
0.673	-36.85913
0.6735	-36.55701
0.674	-37.66479
0.6745	-34.64355
0.675	-35.34851
0.6755	-34.24072
0.676	-27.09045
0.6765	-18.8324
0.677	-10.97717
0.6775	-6.94885
0.678	-7.04956
0.6785	-2.21558
0.679	-4.63257
0.6795	-10.17151
0.68	-12.99133
0.6805	-5.23682
0.681	-6.84814
0.6815	-15.00549
0.682	-35.65063
0.6825	-51.86462
0.683	-44.11011
0.6835	-35.2478
0.684	-59.01489
0.6845	-102.72217
0.685	-121.45386
0.6855	-113.59863
0.686	-99.3988
0.6865	-72.71118
0.687	-47.43347
0.6875	-14.40125
0.688	15.60974
0.6885	53.27454
0.689	81.67419
0.6895	99.2981
0.69	101.51367
0.6905	103.93066
0.691	108.26111
0.6915	102.92358
0.692	86.00464
0.6925	75.02747
0.693	65.05737
0.6935	59.51843
0.694	64.55383
0.6945	62.03613
0.695	50.05188
0.6955	27.99683
0.696	33.23364
0.6965	36.85913
0.697	39.47754
0.6975	-11.58142
0.698	-60.82764
0.6985	-87.71667
0.699	-116.31775
0.6995	-114.10217
0.7	-92.14783
0.7005	-56.5979
0.701	-32.22656
0.7015	1.00708
0.702	21.95435
0.7025	26.3855
0.703	40.48462
0.7035	50.85754
0.704	56.90002
0.7045	55.3894
0.705	60.82764
0.7055	59.41772
0.706	59.21631
0.7065	65.3595
0.707	66.46729
0.7075	59.82056
0.708	56.39648
0.7085	57.40356
0.709	44.71436
0.7095	44.51294
0.71	28.39966
0.7105	26.88904
0.711	19.43665
0.7115	9.76868
0.712	9.16443
0.7125	6.64673
0.713	16.41541
0.7135	15.40833
0.714	22.96143
0.7145	25.07629
0.715	30.2124
0.7155	24.47205
0.716	28.39966
0.7165	29.70886
0.717	13.29346
0.7175	6.2439
0.718	-9.56726
0.7185	-19.63806
0.719	-25.78125
0.7195	-31.21948
0.72	-23.76709
0.7205	-20.1416
0.721	-16.51611
0.7215	-4.93469
0.722	-0.60425
0.7225	14.09912
0.723	20.1416
0.7235	21.45081
0.724	25.47913
0.7245	28.19824
0.725	30.11169
0.7255	34.84497
0.726	41.59241
0.7265	44.81506
0.727	44.81506
0.7275	61.53259
0.728	55.99365
0.7285	38.47046
0.729	24.37134
0.7295	22.35718
0.73	18.53027
0.7305	24.67346
0.731	18.22815
0.7315	14.40125
0.732	6.94885
0.7325	3.02124
0.733	-8.05664
0.7335	-23.66638
0.734	-32.62939
0.7345	-35.95276
0.735	-33.83789
0.7355	-38.26904
0.736	-38.77258
0.7365	-36.95984
0.737	-34.34143
0.7375	-29.40674
0.738	-21.75293
0.7385	-22.86072
0.739	-23.06213
0.7395	-15.50903
0.74	-24.47205
0.7405	-25.68054
0.741	-24.37134
0.7415	-31.82373
0.742	-26.28479
0.7425	-22.86072
0.743	-19.33594
0.7435	-15.40833
0.744	-6.44531
0.7445	-4.02832
0.745	4.83398
0.7455	4.12903
0.746	4.93469
0.7465	-7.25098
0.747	-19.03381
0.7475	-25.27771
0.748	-26.48621
0.7485	-31.32019
0.749	-73.01331
0.7495	-137.86926
0.75	-178.45459
0.7505	-190.13672
0.751	-171.20361
0.7515	-146.83228
0.752	-97.58606
0.7525	-59.92126
0.753	-23.36426
0.7535	6.94885
0.754	36.65771
0.7545	55.18799
0.755	80.4657
0.7555	88.0188
0.756	91.34216
0.7565	78.25012
0.757	55.79224
0.7575	47.93701
0.758	35.34851
0.7585	18.63098
0.759	6.74744
0.7595	14.09912
0.76	14.80408
0.7605	11.68213
0.761	9.66797
0.7615	8.7616
0.762	13.99841
0.7625	22.05505
0.763	34.54285
0.7635	50.65613
0.764	54.0802
0.7645	70.99915
0.765	76.03455
0.7655	81.57349
0.766	78.85437
0.7665	77.84729
0.767	81.27136
0.7675	80.4657
0.768	76.94092
0.7685	58.61206
0.769	37.7655
0.7695	33.63647
0.77	29.20532
0.7705	29.70886
0.771	23.16284
0.7715	26.98975
0.772	24.27063
0.7725	23.16284
0.773	26.88904
0.7735	14.90479
0.774	12.18567
0.7745	7.04956
0.775	-1.3092
0.7755	-7.04956
0.776	-8.96301
0.7765	-13.59558
0.777	-12.5885
0.7775	-13.19275
0.778	-13.29346
0.7785	-17.01965
0.779	-18.73169
0.7795	-17.6239
0.78	-20.1416
0.7805	-14.40125
0.781	-11.88354
0.7815	0.70496
0.782	8.7616
0.7825	8.7616
0.783	10.27222
0.7835	11.17859
0.784	11.88354
0.7845	2.31628
0.785	5.13611
0.7855	1.51062
0.786	0.50354
0.7865	4.83398
0.787	8.7616
0.7875	12.78992
0.788	17.22107
0.7885	11.38
0.789	7.25098
0.7895	9.26514
0.79	7.15027
0.7905	5.33752
0.791	0.70496
0.7915	-4.83398
0.792	-10.27222
0.7925	-19.73877
0.793	-28.39966
0.7935	-54.48303
0.794	-122.66235
0.7945	-160.9314
0.795	-167.276
0.7955	-156.39954
0.796	-132.73315
0.7965	-107.25403
0.797	-73.01331
0.7975	-42.49878
0.798	-10.87646
0.7985	-6.74744
0.799	-21.45081
0.7995	-22.76001
0.8	-21.65222
0.8005	-8.66089
0.801	5.23682
0.8015	15.91187
0.802	37.66479
0.8025	53.17383
0.803	73.51685
0.8035	82.07703
0.804	93.45703
0.8045	99.49951
0.805	103.93066
0.8055	97.58606
0.806	107.35474
0.8065	110.6781
0.807	96.7804
0.8075	91.8457
0.808	85.40039
0.8085	71.80481
0.809	54.78516
0.8095	31.52161
0.81	-2.71912
0.8105	-20.44373
0.811	-15.91187
0.8115	-3.42407
0.812	10.97717
0.8125	22.55859
0.813	40.38391
0.8135	54.58374
0.814	73.51685
0.8145	81.17065
0.815	80.96924
0.8155	72.20764
0.816	65.15808
0.8165	48.23914
0.817	41.59241
0.8175	26.18408
0.818	25.47913
0.8185	25.37842
0.819	30.2124
0.8195	43.80798
0.82	58.00781
0.8205	70.3949
0.821	65.66162
0.8215	57.40356
0.822	42.49878
0.8225	33.13293
0.823	26.68762
0.8235	17.52319
0.824	15.50903
0.8245	21.95435
0.825	22.05505
0.8255	21.55151
0.826	18.93311
0.8265	14.09912
0.827	7.04956
0.8275	0.90637
0.828	-12.89062
0.8285	-14.40125
0.829	-26.08337
0.8295	-29.40674
0.83	-31.21948
0.8305	-35.14709
0.831	-37.46338
0.8315	-30.61523
0.832	-38.67188
0.8325	-47.93701
0.833	-52.97241
0.8335	-51.15967
0.834	-46.32568
0.8345	-42.29736
0.835	-23.66638
0.8355	-14.40125
0.836	-2.21558
0.8365	-11.17859
0.837	-15.81116
0.8375	-19.94019
0.838	-22.05505
0.8385	-13.99841
0.839	-16.11328
0.8395	-15.00549
0.84	-18.22815
0.8405	-27.09045
0.841	-34.64355
0.8415	-33.83789
0.842	-45.01648
0.8425	-52.56958
0.843	-63.74817
0.8435	-80.16357
0.844	-81.67419
0.8445	-95.5719
0.845	-103.82996
0.8455	-92.04712
0.846	-78.55225
0.8465	-55.08728
0.847	-32.32727
0.8475	-6.64673
0.848	10.67505
0.8485	35.75134
0.849	54.0802
0.8495	80.16357
0.85	103.125
0.8505	115.20996
0.851	108.36182
0.8515	111.08093
0.852	118.63403
0.8525	109.77173
0.853	114.10217
0.8535	117.52625
0.854	110.17456
0.8545	103.32642
0.855	95.67261
0.8555	76.23596
0.856	65.76233
0.8565	62.03613
0.857	52.26746
0.8575	0.90637
0.858	-44.51294
0.8585	-62.64038
0.859	-57.60498
0.8595	-45.01648
0.86	-30.81665
0.8605	-18.32886
0.861	5.94177
0.8615	15.50903
0.862	3.7262
0.8625	9.06372
0.863	-1.51062
0.8635	-5.74036
0.864	-8.66089
0.8645	-7.85522
0.865	3.52478
0.8655	12.68921
0.866	15.50903
0.8665	25.78125
0.867	22.45789
0.8675	27.79541
0.868	36.05347
0.8685	30.11169
0.869	23.56567
0.8695	17.32178
0.87	16.01257
0.8705	14.30054
0.871	17.32178
0.8715	21.95435
0.872	21.85364
0.8725	23.76709
0.873	17.82532
0.8735	21.95435
0.874	25.57983
0.8745	28.39966
0.875	30.2124
0.8755	17.92603
0.876	14.40125
0.8765	14.19983
0.877	16.51611
0.8775	18.12744
0.878	10.67505
0.8785	11.48071
0.879	6.44531
0.8795	0.70496
0.88	-6.04248
0.8805	-4.73328
0.881	-9.97009
0.8815	-21.24939
0.882	-25.177
0.8825	-24.06921
0.883	-26.98975
0.8835	-23.36426
0.884	-17.22107
0.8845	-16.81824
0.885	-10.47363
0.8855	-7.95593
0.886	-3.32336
0.8865	6.14319
0.887	0.60425
0.8875	7.04956
0.888	18.93311
0.8885	24.47205
0.889	19.83948
0.8895	15.71045
0.89	13.89771
0.8905	3.8269
0.891	1.71204
0.8915	5.94177
0.892	6.3446
0.8925	3.12195
0.893	6.64673
0.8935	-2.21558
0.894	-22.76001
0.8945	-39.88037
0.895	-47.03064
0.8955	-46.02356
0.896	-43.50586
0.8965	-42.09595
0.897	-52.67029
0.8975	-45.92285
0.898	-35.95276
0.8985	-33.33435
0.899	-30.41382
0.8995	-24.27063
0.9	-26.48621
0.9005	-49.64905
0.901	-59.82056
0.9015	-60.4248
0.902	-53.67737
0.9025	-47.93701
0.903	-32.62939
0.9035	-11.17859
0.904	13.49487
0.9045	25.88196
0.905	29.91028
0.9055	31.92444
0.906	31.62231
0.9065	36.55701
0.907	48.03772
0.9075	57.8064
0.908	67.97791
0.9085	36.75842
0.909	-5.23682
0.9095	-25.27771
0.91	-27.09045
0.9105	-16.3147
0.911	-32.02515
0.9115	-49.64905
0.912	-56.09436
0.9125	-66.97083
0.913	-71.7041
0.9135	-73.51685
0.914	-58.71277
0.9145	-43.90869
0.915	-28.09753
0.9155	-6.44531
0.916	22.76001
0.9165	46.5271
0.917	60.02197
0.9175	76.94092
0.918	82.9834
0.9185	84.39331
0.919	90.43579
0.9195	86.20605
0.92	80.06287
0.9205	67.17224
0.921	60.82764
0.9215	55.2887
0.922	47.7356
0.9225	34.54285
0.923	26.18408
0.9235	36.75842
0.924	50.95825
0.9245	42.09595
0.925	41.29028
0.9255	33.03223
0.926	36.4563
0.9265	27.29187
0.927	28.09753
0.9275	27.99683
0.928	26.78833
0.9285	27.09045
0.929	24.97559
0.9295	26.58691
0.93	21.85364
0.9305	20.04089
0.931	14.09912
0.9315	3.92761
0.932	-2.41699
0.9325	-6.54602
0.933	0
0.9335	4.33044
0.934	1.51062
0.9345	0.10071
0.935	-5.74036
0.9355	-9.66797
0.936	-5.53894
0.9365	-4.53186
0.937	-5.84106
0.9375	-4.33044
0.938	-17.32178
0.9385	-13.69629
0.939	-12.78992
0.9395	-5.63965
0.94	-2.92053
0.9405	-0.20142
0.941	-0.80566
0.9415	-7.04956
0.942	-10.77576
0.9425	-14.30054
0.943	-10.87646
0.9435	-12.89062
0.944	-6.94885
0.9445	-4.63257
0.945	-12.28638
0.9455	-16.3147
0.946	-21.85364
0.9465	-27.49329
0.947	-25.98267
0.9475	-22.35718
0.948	-23.96851
0.9485	-21.14868
0.949	-22.25647
0.9495	-19.53735
0.95	-18.12744
0.9505	-16.61682
0.951	-13.797
0.9515	-12.08496
0.952	-9.76868
0.9525	-12.5885
0.953	-4.83398
0.9535	-14.70337
0.954	-18.42957
0.9545	-26.98975
0.955	-32.62939
0.9555	-38.16833
0.956	-23.56567
0.9565	-11.48071
0.957	-12.78992
0.9575	-13.69629
0.958	-8.45947
0.9585	-6.44531
0.959	-2.01416
0.9595	8.45947
0.96	-2.81982
0.9605	-31.92444
0.961	-85.5011
0.9615	-113.80005
0.962	-119.23828
0.9625	-118.02979
0.963	-113.59863
0.9635	-108.36182
0.964	-94.06128
0.9645	-73.51685
0.965	-51.86462
0.9655	-28.39966
0.966	-6.04248
0.9665	10.77576
0.967	22.76001
0.9675	41.08887
0.968	58.41064
0.9685	67.57507
0.969	78.85437
0.9695	88.72375
0.97	102.52075
0.9705	107.85828
0.971	107.35474
0.9715	89.93225
0.972	79.76074
0.9725	67.17224
0.973	58.00781
0.9735	51.96533
0.974	58.81348
0.9745	56.19507
0.975	54.68445
0.9755	42.39807
0.976	33.13293
0.9765	13.59558
0.977	-32.62939
0.9775	-68.17932
0.978	-79.96216
0.9785	-71.40198
0.979	-58.51135
0.9795	-37.46338
0.98	-17.12036
0.9805	-9.06372
0.981	-36.35559
0.9815	-49.34692
0.982	-34.03931
0.9825	-14.40125
0.983	17.52319
0.9835	44.51294
0.984	69.28711
0.9845	84.99756
0.985	94.56482
0.9855	111.28235
0.986	120.34607
0.9865	117.22412
0.987	97.98889
0.9875	86.20605
0.988	82.88269
0.9885	77.948
0.989	62.53967
0.9895	39.17542
0.99	34.24072
0.9905	26.78833
0.991	32.32727
0.9915	23.36426
0.992	19.43665
0.9925	10.97717
0.993	18.02673
0.9935	8.56018
0.994	12.68921
0.9945	21.3501
0.995	24.87488
0.9955	24.47205
0.996	27.49329
0.9965	21.55151
0.997	20.54443
0.9975	20.04089
0.998	11.38
0.9985	-8.25806
0.999	-35.75134
0.9995	-96.37756
1	-149.85352
1.0005	-182.28149
1.001	-171.10291
1.0015	-143.3075
1.002	-106.8512
1.0025	-73.11401
1.003	-31.11877
1.0035	-11.07788
1.004	10.27222
1.0045	17.82532
1.005	27.29187
1.0055	35.2478
1.006	36.95984
1.0065	21.75293
1.007	9.86938
1.0075	-4.22974
1.008	-10.37292
1.0085	-13.19275
1.009	-8.45947
1.0095	-4.22974
1.01	-4.02832
1.0105	2.41699
1.011	0.40283
1.0115	2.31628
1.012	14.60266
1.0125	41.69312
1.013	67.57507
1.0135	86.8103
1.014	99.70093
1.0145	96.7804
1.015	93.15491
1.0155	91.24146
1.016	83.78906
1.0165	64.05029
1.017	48.03772
1.0175	39.27612
1.018	22.96143
1.0185	5.63965
1.019	-6.14319
1.0195	-8.35876
1.02	-6.2439
1.0205	4.02832
1.021	13.39417
1.0215	11.17859
1.022	7.45239
1.0225	1.91345
1.023	5.0354
1.0235	6.14319
1.024	-0.90637
1.0245	1.51062
1.025	4.93469
1.0255	2.11487
1.026	7.95593
1.0265	11.88354
1.027	4.12903
1.0275	5.63965
1.028	-14.09912
1.0285	-27.49329
1.029	-43.80798
1.0295	-78.35083
1.03	-92.04712
1.0305	-91.745
1.031	-72.50977
1.0315	-56.79932
1.032	-34.84497
1.0325	-17.32178
1.033	14.19983
1.0335	30.01099
1.034	32.12585
1.0345	39.17542
1.035	35.04639
1.0355	22.76001
1.036	19.13452
1.0365	10.97717
1.037	9.16443
1.0375	8.8623
1.038	-11.07788
1.0385	-36.05347
1.039	-34.03931
1.0395	-19.33594
1.04	-14.40125
1.0405	1.51062
1.041	9.36584
1.0415	22.6593
1.042	21.3501
1.0425	22.76001
1.043	11.17859
1.0435	5.33752
1.044	-10.87646
1.0445	-16.71753
1.045	-28.19824
1.0455	-42.59949
1.046	-46.02356
1.0465	-48.64197
1.047	-37.66479
1.0475	-40.08179
1.048	-38.57117
1.0485	-30.41382
1.049	-33.23364
1.0495	-31.21948
1.05	-23.76709
1.0505	-22.55859
1.051	-15.81116
1.0515	-12.48779
1.052	-6.3446
1.0525	-22.05505
1.053	-26.68762
1.0535	-19.94019
1.054	-7.15027
1.0545	0.10071
1.055	10.0708
1.0555	0.70496
1.056	4.43115
1.0565	18.42957
1.057	23.66638
1.0575	34.34143
1.058	43.70728
1.0585	48.13843
1.059	57.30286
1.0595	67.97791
1.06	72.9126
1.0605	74.12109
1.061	80.86853
1.0615	79.05579
1.062	65.96375
1.0625	71.09985
1.063	71.40198
1.0635	71.50269
1.064	60.4248
1.0645	11.2793
1.065	-25.78125
1.0655	-37.86621
1.066	-39.88037
1.0665	-20.74585
1.067	1.40991
1.0675	13.89771
1.068	25.98267
1.0685	27.89612
1.069	35.34851
1.0695	45.41931
1.07	9.06372
1.0705	-20.44373
1.071	-25.07629
1.0715	-18.8324
1.072	-8.96301
1.0725	-8.35876
1.073	4.53186
1.0735	15.71045
1.074	36.95984
1.0745	43.40515
1.075	44.21082
1.0755	39.98108
1.076	36.95984
1.0765	39.77966
1.077	45.72144
1.0775	49.85046
1.078	45.2179
1.0785	41.89453
1.079	31.32019
1.0795	21.85364
1.08	28.19824
1.0805	27.49329
1.081	24.37134
1.0815	12.28638
1.082	0.50354
1.0825	-4.12903
1.083	-2.5177
1.0835	-9.46655
1.084	-8.56018
1.0845	-15.50903
1.085	-14.90479
1.0855	-13.69629
1.086	-22.15576
1.0865	-27.89612
1.087	-42.19666
1.0875	-43.40515
1.088	-37.46338
1.0885	-30.81665
1.089	-23.06213
1.0895	-5.53894
1.09	2.81982
1.0905	-5.94177
1.091	-24.16992
1.0915	-26.98975
1.092	-30.2124
1.0925	-27.49329
1.093	-20.74585
1.0935	-14.30054
1.094	-3.22266
1.0945	-0.30212
1.095	11.48071
1.0955	16.91895
1.096	31.72302
1.0965	50.65613
1.097	61.53259
1.0975	65.66162
1.098	67.47437
1.0985	57.20215
1.099	48.64197
1.0995	41.39099
1.1	40.1825
1.1005	29.91028
1.101	9.97009
1.1015	3.62549
1.102	10.17151
1.1025	9.06372
1.103	9.86938
1.1035	22.45789
1.104	30.51453
1.1045	37.16125
1.105	50.65613
1.1055	34.94568
1.106	20.04089
1.1065	-11.88354
1.107	-51.26038
1.1075	-78.75366
1.108	-98.0896
1.1085	-98.89526
1.109	-92.55066
1.1095	-77.04163
1.11	-62.13684
1.1105	-37.66479
1.111	-27.99683
1.1115	-16.51611
1.112	2.61841
1.1125	16.11328
1.113	37.86621
1.1135	53.77808
1.114	55.49011
1.1145	49.24622
1.115	36.25488
1.1155	23.76709
1.116	12.68921
1.1165	4.53186
1.117	6.54602
1.1175	9.86938
1.118	1.51062
1.1185	-5.74036
1.119	16.81824
1.1195	36.4563
1.12	42.90161
1.1205	65.56091
1.121	81.06995
1.1215	100.70801
1.122	100.10376
1.1225	107.75757
1.123	100.50659
1.1235	80.56641
1.124	69.58923
1.1245	51.86462
1.125	37.36267
1.1255	23.26355
1.126	12.78992
1.1265	6.94885
1.127	3.42407
1.1275	5.43823
1.128	0.90637
1.1285	-8.35876
1.129	-16.01257
1.1295	-16.71753
1.13	-11.07788
1.1305	-20.54443
1.131	-17.32178
1.1315	-35.75134
1.132	-82.58057
1.1325	-101.21155
1.133	-88.82446
1.1335	-68.68286
1.134	-53.57666
1.1345	-19.13452
1.135	3.8269
1.1355	28.09753
1.136	46.02356
1.1365	61.73401
1.137	71.80481
1.1375	66.46729
1.138	65.05737
1.1385	54.68445
1.139	47.13135
1.1395	36.75842
1.14	29.91028
1.1405	22.6593
1.141	24.16992
1.1415	19.33594
1.142	25.57983
1.1425	27.89612
1.143	24.67346
1.1435	22.76001
1.144	25.47913
1.1445	16.41541
1.145	16.01257
1.1455	7.45239
1.146	8.05664
1.1465	10.37292
1.147	6.04248
1.1475	-4.93469
1.148	-14.70337
1.1485	-32.42798
1.149	-39.47754
1.1495	-51.26038
1.15	-70.49561
1.1505	-87.21313
1.151	-83.08411
1.1515	-72.9126
1.152	-62.03613
1.1525	-53.87878
1.153	-38.16833
1.1535	-24.77417
1.154	-13.39417
1.1545	-3.52478
1.155	5.94177
1.1555	6.64673
1.156	19.73877
1.1565	34.14001
1.157	35.04639
1.1575	38.16833
1.158	45.52002
1.1585	51.46179
1.159	50.15259
1.1595	55.18799
1.16	54.48303
1.1605	40.58533
1.161	25.07629
1.1615	14.19983
1.162	14.40125
1.1625	11.48071
1.163	5.63965
1.1635	8.45947
1.164	-27.79541
1.1645	-60.72693
1.165	-73.11401
1.1655	-68.98499
1.166	-58.71277
1.1665	-48.23914
1.167	-32.83081
1.1675	-18.22815
1.168	-7.35168
1.1685	12.38708
1.169	20.24231
1.1695	18.53027
1.17	11.07788
1.1705	20.34302
1.171	17.52319
1.1715	21.3501
1.172	19.33594
1.1725	11.78284
1.173	14.80408
1.1735	10.27222
1.174	8.56018
1.1745	5.63965
1.175	-5.84106
1.1755	-32.83081
1.176	-46.22498
1.1765	-66.56799
1.177	-76.53809
1.1775	-79.66003
1.178	-71.80481
1.1785	-62.64038
1.179	-43.00232
1.1795	-18.22815
1.18	9.76868
1.1805	29.20532
1.181	40.38391
1.1815	37.26196
1.182	38.77258
1.1825	38.87329
1.183	34.64355
1.1835	33.73718
1.184	44.31152
1.1845	54.48303
1.185	58.51135
1.1855	61.33118
1.186	56.09436
1.1865	51.15967
1.187	42.59949
1.1875	35.34851
1.188	37.66479
1.1885	41.39099
1.189	40.38391
1.1895	45.11719
1.19	32.93152
1.1905	24.27063
1.191	12.08496
1.1915	11.2793
1.192	9.06372
1.1925	9.26514
1.193	-4.83398
1.1935	-11.48071
1.194	-28.19824
1.1945	-83.68835
1.195	-114.20288
1.1955	-110.6781
1.196	-75.83313
1.1965	-45.41931
1.197	-12.78992
1.1975	7.04956
1.198	36.05347
1.1985	53.57666
1.199	71.40198
1.1995	72.61047
1.2	65.96375
1.2005	59.71985
1.201	54.18091
1.2015	49.54834
1.202	42.59949
1.2025	43.30444
1.203	46.5271
1.2035	48.94409
1.204	48.23914
1.2045	48.33984
1.205	51.15967
1.2055	41.08887
1.206	10.37292
1.2065	-2.92053
1.207	-0.20142
1.2075	2.61841
1.208	1.51062
1.2085	6.04248
1.209	14.19983
1.2095	17.92603
1.21	10.27222
1.2105	-3.02124
1.211	-19.83948
1.2115	-25.47913
1.212	-25.57983
1.2125	-17.72461
1.213	-14.19983
1.2135	-6.84814
1.214	-2.92053
1.2145	-2.31628
1.215	4.33044
1.2155	16.71753
1.216	31.4209
1.2165	34.74426
1.217	39.67896
1.2175	38.57117
1.218	41.89453
1.2185	41.79382
1.219	33.83789
1.2195	29.40674
1.22	24.16992
1.2205	23.06213
1.221	13.49487
1.2215	22.6593
1.222	13.797
1.2225	11.07788
1.223	6.14319
1.2235	8.15735
1.224	12.78992
1.2245	16.91895
1.225	20.64514
1.2255	27.89612
1.226	18.12744
1.2265	17.72461
1.227	13.39417
1.2275	6.14319
1.228	-2.31628
1.2285	-11.58142
1.229	-23.36426
1.2295	-29.00391
1.23	-31.32019
1.2305	-34.84497
1.231	-36.75842
1.2315	-28.09753
1.232	-8.56018
1.2325	-2.11487
1.233	-0.80566
1.2335	-11.88354
1.234	-39.77966
1.2345	-49.34692
1.235	-42.09595
1.2355	-45.72144
1.236	-45.11719
1.2365	-38.67188
1.237	-40.58533
1.2375	-29.00391
1.238	-16.71753
1.2385	-3.7262
1.239	2.21558
1.2395	4.93469
1.24	8.56018
1.2405	17.22107
1.241	18.12744
1.2415	21.3501
1.242	16.41541
1.2425	16.81824
1.243	16.81824
1.2435	17.01965
1.244	17.01965
1.2445	15.91187
1.245	20.64514
1.2455	7.5531
1.246	8.56018
1.2465	3.92761
1.247	4.02832
1.2475	4.73328
1.248	-3.22266
1.2485	-1.3092
1.249	-7.15027
1.2495	-11.07788
1.25	-13.39417
1.2505	-14.70337
1.251	-12.18567
1.2515	-9.76868
1.252	-6.64673
1.2525	-3.92761
1.253	-9.97009
1.2535	-9.56726
1.254	-17.22107
1.2545	-24.16992
1.255	-21.75293
1.2555	-10.47363
1.256	-9.86938
1.2565	-5.23682
1.257	-2.61841
1.2575	3.32336
1.258	3.22266
1.2585	6.2439
1.259	8.25806
1.2595	19.43665
1.26	27.49329
1.2605	27.09045
1.261	23.8678
1.2615	5.23682
1.262	-1.71204
1.2625	-6.84814
1.263	-7.15027
1.2635	-6.3446
1.264	-0.10071
1.2645	3.22266
1.265	9.56726
1.2655	8.45947
1.266	10.27222
1.2665	8.56018
1.267	0.10071
1.2675	2.5177
1.268	1.71204
1.2685	-6.44531
1.269	-1.81274
1.2695	-5.13611
1.27	1.81274
1.2705	2.01416
1.271	5.43823
1.2715	6.3446
1.272	3.52478
1.2725	13.09204
1.273	19.83948
1.2735	22.25647
1.274	19.03381
1.2745	14.60266
1.275	18.53027
1.2755	13.29346
1.276	12.18567
1.2765	14.40125
1.277	9.97009
1.2775	8.25806
1.278	9.76868
1.2785	10.67505
1.279	5.43823
1.2795	4.93469
1.28	10.47363
1.2805	20.24231
1.281	28.09753
1.2815	22.25647
1.282	7.65381
1.2825	-9.36584
1.283	-35.14709
1.2835	-65.25879
1.284	-70.49561
1.2845	-70.29419
1.285	-60.92834
1.2855	-60.02197
1.286	-44.81506
1.2865	-30.81665
1.287	-34.24072
1.2875	-29.70886
1.288	-15.1062
1.2885	6.54602
1.289	21.24939
1.2895	42.49878
1.29	58.00781
1.2905	69.68994
1.291	77.84729
1.2915	67.77649
1.292	66.87012
1.2925	61.02905
1.293	56.5979
1.2935	50.75684
1.294	38.67188
1.2945	30.51453
1.295	33.53577
1.2955	37.86621
1.296	46.02356
1.2965	52.771
1.297	47.23206
1.2975	50.75684
1.298	49.0448
1.2985	46.62781
1.299	35.65063
1.2995	29.30603
1.3	24.67346
1.3005	18.32886
1.301	-2.31628
1.3015	-56.90002
1.302	-124.77722
1.3025	-144.6167
1.303	-139.17847
1.3035	-115.61279
1.304	-85.5011
1.3045	-55.08728
1.305	-22.55859
1.3055	0.60425
1.306	33.83789
1.3065	49.54834
1.307	58.00781
1.3075	63.94958
1.308	67.37366
1.3085	62.03613
1.309	56.39648
1.3095	53.57666
1.31	47.33276
1.3105	45.11719
1.311	50.15259
1.3115	36.15417
1.312	38.47046
1.3125	34.14001
1.313	27.6947
1.3135	19.94019
1.314	19.13452
1.3145	15.60974
1.315	8.96301
1.3155	4.53186
1.316	8.96301
1.3165	12.5885
1.317	-4.43115
1.3175	-20.1416
1.318	-20.94727
1.3185	-27.49329
1.319	-31.32019
1.3195	-22.05505
1.32	-16.81824
1.3205	-8.96301
1.321	3.42407
1.3215	6.94885
1.322	11.38
1.3225	15.30762
1.323	20.24231
1.3235	27.09045
1.324	22.96143
1.3245	24.27063
1.325	19.83948
1.3255	10.27222
1.326	6.94885
1.3265	2.5177
1.327	-1.40991
1.3275	-4.43115
1.328	-3.92761
1.3285	-1.51062
1.329	-0.60425
1.3295	-1.3092
1.33	-5.84106
1.3305	-15.91187
1.331	-17.92603
1.3315	-22.96143
1.332	-20.64514
1.3325	-19.13452
1.333	-26.08337
1.3335	-62.8418
1.334	-87.61597
1.3345	-103.42712
1.335	-90.43579
1.3355	-69.48853
1.336	-49.44763
1.3365	-17.52319
1.337	2.41699
1.3375	30.91736
1.338	47.93701
1.3385	62.03613
1.339	62.64038
1.3395	67.67578
1.34	75.83313
1.3405	80.16357
1.341	78.14941
1.3415	63.24463
1.342	52.8717
1.3425	39.88037
1.343	28.39966
1.3435	29.80957
1.344	24.67346
1.3445	17.12036
1.345	7.5531
1.3455	4.43115
1.346	12.28638
1.3465	21.45081
1.347	36.95984
1.3475	36.85913
1.348	35.34851
1.3485	30.71594
1.349	32.62939
1.3495	23.46497
1.35	12.18567
1.3505	2.01416
1.351	0.70496
1.3515	-1.71204
1.352	-3.12195
1.3525	-10.77576
1.353	-14.19983
1.3535	-14.70337
1.354	-9.56726
1.3545	4.12903
1.355	11.98425
1.3555	6.94885
1.356	2.61841
1.3565	-2.81982
1.357	-14.40125
1.3575	-16.91895
1.358	-17.92603
1.3585	-13.89771
1.359	-10.17151
1.3595	-11.38
1.36	3.42407
1.3605	7.75452
1.361	6.04248
1.3615	9.06372
1.362	-3.32336
1.3625	-10.17151
1.363	-22.6593
1.3635	-26.78833
1.364	-33.13293
1.3645	-36.55701
1.365	-41.18958
1.3655	-44.41223
1.366	-30.2124
1.3665	-24.06921
1.367	-25.88196
1.3675	-19.63806
1.368	-13.19275
1.3685	-5.13611
1.369	10.0708
1.3695	35.2478
1.37	39.98108
1.3705	52.56958
1.371	53.17383
1.3715	47.93701
1.372	42.90161
1.3725	36.95984
1.373	36.55701
1.3735	30.81665
1.374	28.50037
1.3745	31.52161
1.375	39.27612
1.3755	36.25488
1.376	35.95276
1.3765	39.07471
1.377	42.49878
1.3775	42.19666
1.378	34.24072
1.3785	4.53186
1.379	-14.70337
1.3795	-27.19116
1.38	-58.41064
1.3805	-95.16907
1.381	-105.54199
1.3815	-91.94641
1.382	-84.49402
1.3825	-95.97473
1.383	-88.62305
1.3835	-71.20056
1.384	-50.65613
1.3845	-24.67346
1.385	-0.80566
1.3855	19.13452
1.386	36.55701
1.3865	53.27454
1.387	56.69861
1.3875	65.05737
1.388	70.09277
1.3885	63.24463
1.389	54.88586
1.3895	53.17383
1.39	58.51135
1.3905	59.71985
1.391	64.151
1.3915	72.30835
1.392	91.94641
1.3925	86.70959
1.393	78.65295
1.3935	83.18481
1.394	79.05579
1.3945	67.8772
1.395	66.97083
1.3955	70.89844
1.396	59.01489
1.3965	34.64355
1.397	28.19824
1.3975	18.02673
1.398	12.5885
1.3985	9.36584
1.399	11.38
1.3995	14.60266
1.4	20.94727
1.4005	20.24231
1.401	19.53735
1.4015	19.33594
1.402	14.80408
1.4025	18.22815
1.403	17.22107
1.4035	9.86938
1.404	2.01416
1.4045	-14.09912
1.405	-13.69629
1.4055	-28.80249
1.406	-33.03223
1.4065	-25.47913
1.407	-30.01099
1.4075	-43.90869
1.408	-40.2832
1.4085	-44.11011
1.409	-42.39807
1.4095	-44.91577
1.41	-39.67896
1.4105	-35.54993
1.411	-29.91028
1.4115	-25.37842
1.412	-26.3855
1.4125	-33.13293
1.413	-35.04639
1.4135	-16.01257
1.414	-7.95593
1.4145	-8.05664
1.415	0.30212
1.4155	12.48779
1.416	19.33594
1.4165	24.16992
1.417	26.48621
1.4175	33.33435
1.418	32.32727
1.4185	29.50745
1.419	28.9032
1.4195	27.6947
1.42	32.02515
1.4205	28.80249
1.421	24.97559
1.4215	26.08337
1.422	26.08337
1.4225	27.09045
1.423	18.42957
1.4235	15.30762
1.424	13.59558
1.4245	4.33044
1.425	3.8269
1.4255	4.12903
1.426	6.44531
1.4265	-1.00708
1.427	1.91345
1.4275	-7.15027
1.428	-8.7616
1.4285	-7.35168
1.429	-6.64673
1.4295	-3.12195
1.43	-2.31628
1.4305	-3.8269
1.431	6.84814
1.4315	5.33752
1.432	5.23682
1.4325	2.11487
1.433	7.45239
1.4335	8.25806
1.434	14.30054
1.4345	19.23523
1.435	16.71753
1.4355	17.12036
1.436	20.94727
1.4365	24.77417
1.437	25.27771
1.4375	16.41541
1.438	-10.87646
1.4385	-90.73792
1.439	-163.34839
1.4395	-191.54663
1.44	-183.99353
1.4405	-162.13989
1.441	-132.12891
1.4415	-90.93933
1.442	-56.69861
1.4425	-28.70178
1.443	2.41699
1.4435	19.13452
1.444	34.84497
1.4445	43.30444
1.445	40.1825
1.4455	15.60974
1.446	17.72461
1.4465	25.27771
1.447	30.11169
1.4475	35.85205
1.448	48.84338
1.4485	62.33826
1.449	81.97632
1.4495	97.48535
1.45	104.23279
1.4505	113.80005
1.451	107.45544
1.4515	95.5719
1.452	80.26428
1.4525	70.59631
1.453	61.73401
1.4535	41.29028
1.454	26.68762
1.4545	29.10461
1.455	27.29187
1.4555	18.12744
1.456	19.83948
1.4565	22.86072
1.457	20.74585
1.4575	25.27771
1.458	31.92444
1.4585	36.25488
1.459	42.59949
1.4595	39.67896
1.46	38.16833
1.4605	33.73718
1.461	28.60107
1.4615	17.6239
1.462	9.76868
1.4625	0.40283
1.463	-10.37292
1.4635	-25.177
1.464	-26.68762
1.4645	-24.06921
1.465	-21.55151
1.4655	-13.797
1.466	-10.0708
1.4665	-13.797
1.467	-16.3147
1.4675	-17.52319
1.468	-8.05664
1.4685	-8.56018
1.469	-8.8623
1.4695	-7.85522
1.47	-6.44531
1.4705	0.10071
1.471	-2.92053
1.4715	-5.63965
1.472	-10.57434
1.4725	-9.66797
1.473	-11.38
1.4735	-13.59558
1.474	-1.81274
1.4745	2.81982
1.475	-8.56018
1.4755	-22.96143
1.476	-24.57275
1.4765	-20.24231
1.477	-25.57983
1.4775	-15.1062
1.478	-15.60974
1.4785	-18.93311
1.479	-14.80408
1.4795	-22.45789
1.48	-23.96851
1.4805	-26.28479
1.481	-25.88196
1.4815	-29.40674
1.482	-28.9032
1.4825	-26.98975
1.483	-24.77417
1.4835	-28.29895
1.484	-18.02673
1.4845	-15.60974
1.485	-7.95593
1.4855	1.81274
1.486	17.6239
1.4865	23.56567
1.487	18.63098
1.4875	26.08337
1.488	28.09753
1.4885	41.79382
1.489	48.94409
1.4895	58.91418
1.49	49.34692
1.4905	10.87646
1.491	-10.77576
1.4915	-8.8623
1.492	-5.63965
1.4925	3.22266
1.493	25.07629
1.4935	29.80957
1.494	32.52869
1.4945	34.14001
1.495	30.41382
1.4955	29.20532
1.496	40.08179
1.4965	42.39807
1.497	37.46338
1.4975	37.06055
1.498	33.53577
1.4985	41.99524
1.499	36.75842
1.4995	25.68054
1.5	23.66638
1.5005	15.20691
1.501	11.98425
1.5015	4.12903
1.502	3.92761
1.5025	-2.81982
1.503	-22.76001
1.5035	-44.11011
1.504	-55.18799
1.5045	-47.13135
1.505	-35.75134
1.5055	-26.88904
1.506	-25.98267
1.5065	-13.89771
1.507	-6.74744
1.5075	0.30212
1.508	8.35876
1.5085	22.55859
1.509	16.01257
1.5095	-5.74036
1.51	-19.43665
1.5105	-17.82532
1.511	-9.86938
1.5115	-18.73169
1.512	-30.01099
1.5125	-26.68762
1.513	-22.45789
1.5135	-13.29346
1.514	-5.43823
1.5145	0.30212
1.515	6.04248
1.5155	8.35876
1.516	25.07629
1.5165	41.08887
1.517	44.31152
1.5175	42.49878
1.518	48.74268
1.5185	51.66321
1.519	42.90161
1.5195	38.57117
1.52	27.09045
1.5205	21.14868
1.521	20.54443
1.5215	3.32336
1.522	-1.81274
1.5225	-15.50903
1.523	-19.63806
1.5235	-13.09204
1.524	-8.7616
1.5245	1.61133
1.525	10.0708
1.5255	11.68213
1.526	6.3446
1.5265	-12.18567
1.527	-19.53735
1.5275	-16.71753
1.528	-30.51453
1.5285	-34.74426
1.529	-41.39099
1.5295	-40.48462
1.53	-32.52869
1.5305	-20.34302
1.531	-6.04248
1.5315	11.17859
1.532	32.52869
1.5325	46.72852
1.533	46.32568
1.5335	50.45471
1.534	47.7356
1.5345	51.66321
1.535	36.55701
1.5355	14.40125
1.536	6.54602
1.5365	11.2793
1.537	12.38708
1.5375	9.97009
1.538	5.53894
1.5385	8.56018
1.539	3.8269
1.5395	4.12903
1.54	5.74036
1.5405	15.40833
1.541	16.21399
1.5415	8.25806
1.542	3.22266
1.5425	-0.70496
1.543	1.91345
1.5435	-1.10779
1.544	-5.63965
1.5445	-3.92761
1.545	-7.95593
1.5455	-4.02832
1.546	6.2439
1.5465	25.57983
1.547	30.91736
1.5475	19.23523
1.548	-29.10461
1.5485	-56.29578
1.549	-66.06445
1.5495	-59.1156
1.55	-48.74268
1.5505	-34.64355
1.551	-11.48071
1.5515	0.40283
1.552	24.16992
1.5525	36.75842
1.553	46.92993
1.5535	57.30286
1.554	65.46021
1.5545	72.61047
1.555	77.04163
1.5555	76.13525
1.556	59.21631
1.5565	47.43347
1.557	42.59949
1.5575	24.06921
1.558	22.15576
1.5585	7.25098
1.559	-7.95593
1.5595	-16.21399
1.56	-11.38
1.5605	-6.44531
1.561	7.5531
1.5615	1.81274
1.562	1.00708
1.5625	2.21558
1.563	1.3092
1.5635	4.53186
1.564	7.65381
1.5645	8.96301
1.565	11.68213
1.5655	8.25806
1.566	9.26514
1.5665	11.78284
1.567	20.24231
1.5675	23.96851
1.568	22.45789
1.5685	23.66638
1.569	26.18408
1.5695	25.47913
1.57	15.50903
1.5705	8.7616
1.571	-3.52478
1.5715	-3.12195
1.572	-10.37292
1.5725	-17.32178
1.573	-23.56567
1.5735	-43.50586
1.574	-77.84729
1.5745	-88.62305
1.575	-79.45862
1.5755	-66.06445
1.576	-42.59949
1.5765	-22.86072
1.577	-3.52478
1.5775	23.46497
1.578	41.99524
1.5785	48.54126
1.579	49.95117
1.5795	50.354
1.58	55.08728
1.5805	58.71277
1.581	53.37524
1.5815	54.68445
1.582	45.82214
1.5825	53.47595
1.583	58.71277
1.5835	50.2533
1.584	41.69312
1.5845	35.34851
1.585	25.88196
1.5855	14.30054
1.586	16.91895
1.5865	18.8324
1.587	19.53735
1.5875	21.95435
1.588	13.49487
1.5885	3.62549
1.589	-2.92053
1.5895	-43.60657
1.59	-70.69702
1.5905	-66.36658
1.591	-52.56958
1.5915	-40.68604
1.592	-37.7655
1.5925	-47.63489
1.593	-42.09595
1.5935	-33.33435
1.594	-28.09753
1.5945	-18.63098
1.595	-11.78284
1.5955	-7.35168
1.596	0.80566
1.5965	-8.66089
1.597	-13.797
1.5975	-17.42249
1.598	-13.797
1.5985	-4.83398
1.599	-5.43823
1.5995	-10.77576
1.6	-15.00549
1.6005	-18.42957
1.601	-30.2124
1.6015	-31.01807
1.602	-32.02515
1.6025	-27.09045
1.603	-20.64514
1.6035	-14.80408
1.604	-22.35718
1.6045	-16.91895
1.605	-5.0354
1.6055	12.48779
1.606	27.39258
1.6065	44.61365
1.607	59.01489
1.6075	62.9425
1.608	67.57507
1.6085	68.28003
1.609	62.53967
1.6095	52.8717
1.61	62.23755
1.6105	57.50427
1.611	50.75684
1.6115	52.16675
1.612	50.45471
1.6125	44.0094
1.613	28.50037
1.6135	23.16284
1.614	16.21399
1.6145	13.69629
1.615	12.48779
1.6155	5.43823
1.616	10.67505
1.6165	13.29346
1.617	14.19983
1.6175	13.89771
1.618	-3.7262
1.6185	-6.74744
1.619	-15.81116
1.6195	-20.94727
1.62	-24.57275
1.6205	-25.37842
1.621	-27.39258
1.6215	-28.09753
1.622	-24.67346
1.6225	-23.46497
1.623	-21.55151
1.6235	-14.40125
1.624	-11.2793
1.6245	-10.67505
1.625	-21.3501
1.6255	-30.51453
1.626	-28.39966
1.6265	-14.40125
1.627	-16.01257
1.6275	-12.08496
1.628	-5.94177
1.6285	-10.67505
1.629	-6.64673
1.6295	-6.2439
1.63	-18.53027
1.6305	-25.37842
1.631	-26.48621
1.6315	-27.99683
1.632	-41.08887
1.6325	-69.08569
1.633	-75.73242
1.6335	-81.7749
1.634	-110.6781
1.6345	-126.89209
1.635	-120.24536
1.6355	-106.44836
1.636	-82.9834
1.6365	-55.08728
1.637	-33.43506
1.6375	-4.12903
1.638	20.64514
1.6385	36.95984
1.639	54.58374
1.6395	83.99048
1.64	82.9834
1.6405	97.48535
1.641	121.15173
1.6415	122.05811
1.642	110.77881
1.6425	102.21863
1.643	93.0542
1.6435	84.99756
1.644	90.23438
1.6445	84.2926
1.645	78.04871
1.6455	64.45312
1.646	59.41772
1.6465	63.44604
1.647	61.12976
1.6475	57.9071
1.648	49.24622
1.6485	51.5625
1.649	54.28162
1.6495	54.58374
1.65	47.33276
1.6505	37.06055
1.651	41.69312
1.6515	25.98267
1.652	29.10461
1.6525	20.84656
1.653	18.8324
1.6535	7.5531
1.654	4.22974
1.6545	2.31628
1.655	-6.2439
1.6555	1.51062
1.656	-3.12195
1.6565	-8.15735
1.657	-13.59558
1.6575	-40.48462
1.658	-56.49719
1.6585	-65.46021
1.659	-67.47437
1.6595	-65.25879
1.66	-62.74109
1.6605	-46.72852
1.661	-46.5271
1.6615	-37.7655
1.662	-45.92285
1.6625	-73.91968
1.663	-77.54517
1.6635	-69.38782
1.664	-64.35242
1.6645	-73.01331
1.665	-67.17224
1.6655	-55.69153
1.666	-32.22656
1.6665	4.63257
1.667	26.28479
1.6675	41.59241
1.668	50.05188
1.6685	57.40356
1.669	65.15808
1.6695	73.31543
1.67	72.30835
1.6705	71.40198
1.671	69.68994
1.6715	71.60339
1.672	67.97791
1.6725	62.8418
1.673	58.61206
1.6735	57.9071
1.674	48.13843
1.6745	45.01648
1.675	27.49329
1.6755	10.67505
1.676	2.81982
1.6765	2.01416
1.677	12.18567
1.6775	11.38
1.678	16.51611
1.6785	19.43665
1.679	12.78992
1.6795	6.54602
1.68	2.61841
1.6805	-5.0354
1.681	-1.91345
1.6815	-5.0354
1.682	-8.56018
1.6825	-18.22815
1.683	-19.43665
1.6835	-16.91895
1.684	-8.35876
1.6845	-3.32336
1.685	-2.31628
1.6855	0.90637
1.686	3.92761
1.6865	10.0708
1.687	9.46655
1.6875	21.75293
1.688	27.29187
1.6885	25.98267
1.689	26.68762
1.6895	35.04639
1.69	32.62939
1.6905	22.45789
1.691	19.73877
1.6915	14.19983
1.692	8.8623
1.6925	7.35168
1.693	5.63965
1.6935	10.77576
1.694	13.09204
1.6945	8.05664
1.695	5.74036
1.6955	3.62549
1.696	4.12903
1.6965	4.33044
1.697	7.65381
1.6975	11.48071
1.698	1.71204
1.6985	-2.5177
1.699	3.32336
1.6995	2.11487
1.7	-2.41699
1.7005	-2.31628
1.701	-5.94177
1.7015	-7.15027
1.702	-4.22974
1.7025	-5.33752
1.703	-1.10779
1.7035	-19.33594
1.704	-67.07153
1.7045	-92.95349
1.705	-103.22571
1.7055	-98.19031
1.706	-89.42871
1.7065	-76.53809
1.707	-64.85596
1.7075	-49.54834
1.708	-37.06055
1.7085	-20.24231
1.709	-2.71912
1.7095	2.92053
1.71	7.45239
1.7105	8.8623
1.711	25.47913
1.7115	33.83789
1.712	25.177
1.7125	21.65222
1.713	19.33594
1.7135	17.22107
1.714	-2.41699
1.7145	-46.5271
1.715	-58.81348
1.7155	-69.89136
1.716	-117.22412
1.7165	-146.53015
1.717	-160.62927
1.7175	-158.31299
1.718	-127.49634
1.7185	-95.26978
1.719	-67.57507
1.7195	-38.16833
1.72	-6.54602
1.7205	28.29895
1.721	58.10852
1.7215	77.34375
1.722	89.63013
1.7225	105.23987
1.723	126.79138
1.7235	145.52307
1.724	156.50024
1.7245	151.66626
1.725	135.15015
1.7255	123.16589
1.726	118.73474
1.7265	119.03687
1.727	110.07385
1.7275	108.46252
1.728	111.68518
1.7285	110.07385
1.729	96.27686
1.7295	90.23438
1.73	91.94641
1.7305	102.11792
1.731	101.41296
1.7315	91.745
1.732	70.19348
1.7325	61.53259
1.733	48.23914
1.7335	37.96692
1.734	31.01807
1.7345	12.78992
1.735	-10.27222
1.7355	-22.55859
1.736	-36.35559
1.7365	-37.96692
1.737	-38.47046
1.7375	-36.55701
1.738	-39.17542
1.7385	-36.55701
1.739	-31.62231
1.7395	-27.6947
1.74	-28.9032
1.7405	-26.18408
1.741	-18.12744
1.7415	-12.08496
1.742	3.12195
1.7425	6.64673
1.743	13.797
1.7435	20.1416
1.744	21.95435
1.7445	25.98267
1.745	25.78125
1.7455	32.22656
1.746	37.66479
1.7465	29.60815
1.747	32.62939
1.7475	33.33435
1.748	26.48621
1.7485	22.86072
1.749	14.90479
1.7495	14.50195
1.75	4.12903
1.7505	-7.15027
1.751	-14.70337
1.7515	-10.77576
1.752	-14.90479
1.7525	-12.5885
1.753	-13.39417
1.7535	-6.94885
1.754	-1.3092
1.7545	-0.20142
1.755	-0.40283
1.7555	-6.54602
1.756	-4.93469
1.7565	-8.45947
1.757	-13.69629
1.7575	-13.09204
1.758	-24.67346
1.7585	-28.80249
1.759	-27.99683
1.7595	-23.46497
1.76	-20.64514
1.7605	-16.01257
1.761	-16.11328
1.7615	-6.3446
1.762	-3.22266
1.7625	3.7262
1.763	7.5531
1.7635	9.16443
1.764	10.67505
1.7645	16.11328
1.765	19.33594
1.7655	20.44373
1.766	20.24231
1.7665	19.03381
1.767	16.61682
1.7675	4.22974
1.768	-15.00549
1.7685	-28.50037
1.769	-34.54285
1.7695	-33.13293
1.77	-26.58691
1.7705	-11.48071
1.771	3.62549
1.7715	12.48779
1.772	14.80408
1.7725	27.39258
1.773	27.19116
1.7735	22.35718
1.774	25.37842
1.7745	23.66638
1.775	19.33594
1.7755	18.93311
1.776	11.38
1.7765	7.04956
1.777	7.25098
1.7775	17.32178
1.778	13.797
1.7785	4.02832
1.779	-4.02832
1.7795	-27.39258
1.78	-52.97241
1.7805	-60.4248
1.781	-77.84729
1.7815	-82.88269
1.782	-84.79614
1.7825	-85.29968
1.783	-80.4657
1.7835	-74.72534
1.784	-75.73242
1.7845	-64.65454
1.785	-55.99365
1.7855	-39.17542
1.786	-25.177
1.7865	-8.35876
1.787	3.62549
1.7875	15.1062
1.788	18.22815
1.7885	18.42957
1.789	26.98975
1.7895	38.06763
1.79	56.39648
1.7905	80.66711
1.791	107.05261
1.7915	120.7489
1.792	106.44836
1.7925	97.88818
1.793	89.83154
1.7935	90.23438
1.794	93.55774
1.7945	85.29968
1.795	78.14941
1.7955	68.78357
1.796	62.8418
1.7965	53.47595
1.797	45.2179
1.7975	57.30286
1.798	62.33826
1.7985	33.03223
1.799	7.25098
1.7995	-2.01416
1.8	-7.75452
1.8005	-5.0354
1.801	-5.0354
1.8015	0.30212
1.802	3.22266
1.8025	-0.10071
1.803	-0.70496
1.8035	-1.51062
1.804	-2.81982
1.8045	-3.32336
1.805	-6.74744
1.8055	-6.94885
1.806	-8.66089
1.8065	-7.04956
1.807	-4.12903
1.8075	-5.0354
1.808	-5.63965
1.8085	-8.7616
1.809	-9.26514
1.8095	-5.0354
1.81	-14.40125
1.8105	-14.80408
1.811	-18.73169
1.8115	-16.51611
1.812	-15.71045
1.8125	-10.67505
1.813	-12.99133
1.8135	-5.84106
1.814	6.94885
1.8145	9.16443
1.815	11.48071
1.8155	12.89062
1.816	17.72461
1.8165	15.71045
1.817	12.78992
1.8175	12.99133
1.818	14.19983
1.8185	20.34302
1.819	21.14868
1.8195	15.91187
1.82	17.42249
1.8205	23.96851
1.821	25.177
1.8215	17.32178
1.822	16.11328
1.8225	10.47363
1.823	2.21558
1.8235	-4.63257
1.824	-4.02832
1.8245	-12.48779
1.825	-21.24939
1.8255	-65.25879
1.826	-87.11243
1.8265	-100.30518
1.827	-92.24854
1.8275	-80.66711
1.828	-81.67419
1.8285	-89.63013
1.829	-70.69702
1.8295	-54.98657
1.83	-39.07471
1.8305	-19.94019
1.831	-11.68213
1.8315	-6.04248
1.832	4.02832
1.8325	15.50903
1.833	15.81116
1.8335	29.40674
1.834	33.23364
1.8345	43.80798
1.835	45.41931
1.8355	40.1825
1.836	48.03772
1.8365	52.46887
1.837	53.17383
1.8375	57.40356
1.838	54.38232
1.8385	51.76392
1.839	48.03772
1.8395	39.98108
1.84	35.14709
1.8405	37.16125
1.841	30.51453
1.8415	27.39258
1.842	34.24072
1.8425	36.55701
1.843	42.29736
1.8435	39.98108
1.844	37.06055
1.8445	36.65771
1.845	43.80798
1.8455	51.5625
1.846	46.5271
1.8465	43.40515
1.847	40.98816
1.8475	35.65063
1.848	26.68762
1.8485	22.55859
1.849	11.48071
1.8495	11.98425
1.85	6.84814
1.8505	-5.43823
1.851	-12.78992
1.8515	-18.22815
1.852	-15.40833
1.8525	-12.68921
1.853	-22.6593
1.8535	-40.58533
1.854	-56.39648
1.8545	-60.82764
1.855	-63.04321
1.8555	-66.87012
1.856	-66.36658
1.8565	-52.56958
1.857	-37.46338
1.8575	-23.56567
1.858	-9.86938
1.8585	-4.73328
1.859	-6.44531
1.8595	-5.0354
1.86	1.3092
1.8605	0.60425
1.861	2.41699
1.8615	4.93469
1.862	15.20691
1.8625	21.95435
1.863	40.58533
1.8635	48.23914
1.864	54.88586
1.8645	62.53967
1.865	73.71826
1.8655	85.09827
1.866	87.81738
1.8665	73.91968
1.867	58.20923
1.8675	57.00073
1.868	44.11011
1.8685	34.44214
1.869	25.68054
1.8695	17.42249
1.87	-2.21558
1.8705	-25.78125
1.871	-42.7002
1.8715	-37.7655
1.872	-42.49878
1.8725	-33.73718
1.873	-38.06763
1.8735	-27.49329
1.874	-28.29895
1.8745	-15.60974
1.875	-13.89771
1.8755	-11.17859
1.876	-11.2793
1.8765	-20.74585
1.877	-23.96851
1.8775	-21.24939
1.878	-24.97559
1.8785	-14.09912
1.879	-1.10779
1.8795	22.6593
1.88	43.00232
1.8805	65.56091
1.881	72.9126
1.8815	76.63879
1.882	77.948
1.8825	72.61047
1.883	53.87878
1.8835	48.13843
1.884	18.63098
1.8845	-9.86938
1.885	-27.99683
1.8855	-31.82373
1.886	-25.57983
1.8865	-18.12744
1.887	-17.6239
1.8875	-17.82532
1.888	-23.16284
1.8885	-58.51135
1.889	-75.83313
1.8895	-71.80481
1.89	-60.92834
1.8905	-50.05188
1.891	-30.51453
1.8915	-14.50195
1.892	-4.83398
1.8925	8.35876
1.893	24.47205
1.8935	44.11011
1.894	58.30994
1.8945	65.76233
1.895	62.9425
1.8955	56.69861
1.896	59.31702
1.8965	51.76392
1.897	30.91736
1.8975	16.81824
1.898	9.46655
1.8985	-20.64514
1.899	-79.55933
1.8995	-147.63794
1.9	-207.5592
1.9005	-222.26257
1.901	-201.31531
1.9015	-167.17529
1.902	-117.82837
1.9025	-70.09277
1.903	-23.06213
1.9035	20.04089
1.904	49.14551
1.9045	73.01331
1.905	91.54358
1.9055	99.60022
1.906	101.11084
1.9065	110.37598
1.907	108.66394
1.9075	104.03137
1.908	90.93933
1.9085	79.66003
1.909	68.48145
1.9095	61.6333
1.91	47.63489
1.9105	46.5271
1.911	50.05188
1.9115	43.20374
1.912	32.12585
1.9125	27.19116
1.913	30.31311
1.9135	19.53735
1.914	19.83948
1.9145	18.73169
1.915	15.00549
1.9155	17.01965
1.916	17.22107
1.9165	0.90637
1.917	-5.53894
1.9175	-6.94885
1.918	-10.87646
1.9185	-24.16992
1.919	-49.85046
1.9195	-63.14392
1.92	-60.82764
1.9205	-74.2218
1.921	-66.46729
1.9215	-57.40356
1.922	-48.84338
1.9225	-36.65771
1.923	-20.74585
1.9235	-5.13611
1.924	2.41699
1.9245	7.35168
1.925	17.32178
1.9255	21.24939
1.926	23.76709
1.9265	22.6593
1.927	22.96143
1.9275	21.14868
1.928	25.98267
1.9285	37.56409
1.929	40.78674
1.9295	38.26904
1.93	32.62939
1.9305	39.88037
1.931	44.91577
1.9315	64.25171
1.932	77.24304
1.9325	76.23596
1.933	61.33118
1.9335	54.78516
1.934	41.69312
1.9345	35.54993
1.935	35.44922
1.9355	27.59399
1.936	23.76709
1.9365	18.73169
1.937	23.16284
1.9375	12.18567
1.938	12.28638
1.9385	4.53186
1.939	2.5177
1.9395	2.11487
1.94	-0.60425
1.9405	-2.11487
1.941	-5.33752
1.9415	-10.57434
1.942	-7.75452
1.9425	-9.76868
1.943	-10.87646
1.9435	-15.40833
1.944	-25.98267
1.9445	-28.50037
1.945	-32.62939
1.9455	-44.91577
1.946	-47.93701
1.9465	-55.79224
1.947	-49.34692
1.9475	-46.62781
1.948	-42.19666
1.9485	-47.93701
1.949	-57.40356
1.9495	-55.59082
1.95	-35.14709
1.9505	-9.97009
1.951	4.63257
1.9515	18.53027
1.952	25.88196
1.9525	34.44214
1.953	39.17542
1.9535	40.58533
1.954	36.35559
1.9545	43.40515
1.955	48.23914
1.9555	48.44055
1.956	58.00781
1.9565	65.56091
1.957	64.95667
1.9575	56.79932
1.958	51.66321
1.9585	47.63489
1.959	44.51294
1.9595	37.06055
1.96	40.38391
1.9605	23.66638
1.961	11.17859
1.9615	0.70496
1.962	-1.71204
1.9625	-16.21399
1.963	-29.50745
1.9635	-38.26904
1.964	-42.09595
1.9645	-43.10303
1.965	-38.36975
1.9655	-35.85205
1.966	-33.83789
1.9665	-27.89612
1.967	-21.3501
1.9675	-14.30054
1.968	-11.17859
1.9685	-5.94177
1.969	-4.33044
1.9695	2.5177
1.97	8.7616
1.9705	0.10071
1.971	3.7262
1.9715	10.27222
1.972	18.42957
1.9725	22.96143
1.973	31.21948
1.9735	27.29187
1.974	29.91028
1.9745	35.34851
1.975	36.75842
1.9755	40.1825
1.976	44.11011
1.9765	43.50586
1.977	49.14551
1.9775	50.55542
1.978	39.98108
1.9785	34.03931
1.979	33.9386
1.9795	31.32019
1.98	27.79541
1.9805	21.75293
1.981	19.13452
1.9815	11.07788
1.982	6.84814
1.9825	0.20142
1.983	1.00708
1.9835	-4.43115
1.984	-13.19275
1.9845	-8.8623
1.985	-17.32178
1.9855	-27.29187
1.986	-54.68445
1.9865	-63.54675
1.987	-66.46729
1.9875	-69.1864
1.988	-63.54675
1.9885	-54.48303
1.989	-54.88586
1.9895	-52.56958
1.99	-37.96692
1.9905	-35.14709
1.991	-40.78674
1.9915	-44.91577
1.992	-37.26196
1.9925	-23.56567
1.993	-15.91187
1.9935	-0.90637
1.994	10.47363
1.9945	24.27063
1.995	37.56409
1.9955	48.33984
1.996	39.98108
1.9965	29.40674
1.997	30.81665
1.9975	17.82532
1.998	12.48779
1.9985	-12.48779
1.999	-30.31311
1.9995	-32.52869
2	-28.60107
2.0005	-19.03381
2.001	-1.3092
2.0015	18.12744
2.002	42.7002
2.0025	51.5625
2.003	49.44763
2.0035	51.5625
2.004	54.78516
2.0045	60.12268
2.005	53.17383
2.0055	45.62073
2.006	40.98816
2.0065	33.43506
2.007	-5.63965
2.0075	-26.88904
2.008	-32.32727
2.0085	-21.3501
2.009	-7.85522
2.0095	5.94177
2.01	31.92444
2.0105	52.771
2.011	71.20056
2.0115	74.62463
2.012	77.948
2.0125	78.14941
2.013	68.58215
2.0135	56.90002
2.014	46.82922
2.0145	36.95984
2.015	27.29187
2.0155	24.06921
2.016	26.18408
2.0165	23.96851
2.017	27.6947
2.0175	27.89612
2.018	19.43665
2.0185	11.88354
2.019	5.13611
2.0195	2.71912
2.02	1.10779
2.0205	-8.66089
2.021	-12.08496
2.0215	-17.22107
2.022	-26.08337
2.0225	-47.23206
2.023	-69.48853
2.0235	-81.06995
2.024	-92.04712
2.0245	-95.16907
2.025	-94.06128
2.0255	-90.63721
2.026	-81.97632
2.0265	-75.12817
2.027	-62.53967
2.0275	-52.771
2.028	-43.10303
2.0285	-26.88904
2.029	-12.18567
2.0295	4.73328
2.03	17.52319
2.0305	36.25488
2.031	53.27454
2.0315	61.23047
2.032	60.82764
2.0325	67.37366
2.033	66.26587
2.0335	56.90002
2.034	53.67737
2.0345	48.54126
2.035	35.75134
2.0355	28.9032
2.036	30.2124
2.0365	43.30444
2.037	47.7356
2.0375	50.05188
2.038	44.71436
2.0385	39.37683
2.039	36.15417
2.0395	35.75134
2.04	31.32019
2.0405	14.80408
2.041	14.19983
2.0415	8.25806
2.042	3.32336
2.0425	9.16443
2.043	4.83398
2.0435	5.23682
2.044	4.12903
2.0445	5.63965
2.045	-2.11487
2.0455	-8.96301
2.046	-10.17151
2.0465	-12.48779
2.047	-8.25806
2.0475	-15.81116
2.048	-19.33594
2.0485	-14.70337
2.049	-21.95435
2.0495	-29.50745
2.05	-55.69153
2.0505	-65.25879
2.051	-66.06445
2.0515	-60.62622
2.052	-62.74109
2.0525	-52.8717
2.053	-43.60657
2.0535	-39.57825
2.054	-41.39099
2.0545	-36.05347
2.055	-30.2124
2.0555	-22.45789
2.056	-13.797
2.0565	-11.17859
2.057	0.10071
2.0575	16.71753
2.058	35.34851
2.0585	35.95276
2.059	47.43347
2.0595	48.13843
2.06	46.42639
2.0605	45.01648
2.061	47.23206
2.0615	42.8009
2.062	34.84497
2.0625	31.11877
2.063	31.11877
2.0635	34.14001
2.064	37.96692
2.0645	39.47754
2.065	32.32727
2.0655	30.81665
2.066	40.98816
2.0665	49.14551
2.067	56.39648
2.0675	57.10144
2.068	61.53259
2.0685	60.02197
2.069	50.354
2.0695	39.88037
2.07	33.83789
2.0705	22.25647
2.071	20.1416
2.0715	19.33594
2.072	18.22815
2.0725	-3.92761
2.073	-39.07471
2.0735	-63.44604
2.074	-82.9834
2.0745	-87.31384
2.075	-84.2926
2.0755	-69.1864
2.076	-57.20215
2.0765	-40.2832
2.077	-27.99683
2.0775	-20.24231
2.078	-12.18567
2.0785	-1.71204
2.079	3.02124
2.0795	6.44531
2.08	4.33044
2.0805	-0.60425
2.081	4.02832
2.0815	10.27222
2.082	19.23523
2.0825	23.16284
2.083	23.76709
2.0835	30.91736
2.084	34.74426
2.0845	50.05188
2.085	67.27295
2.0855	70.29419
2.086	62.8418
2.0865	57.10144
2.087	50.65613
2.0875	38.77258
2.088	30.61523
2.0885	33.33435
2.089	35.14709
2.0895	32.02515
2.09	22.35718
2.0905	17.92603
2.091	12.68921
2.0915	12.78992
2.092	4.33044
2.0925	4.43115
2.093	4.83398
2.0935	6.44531
2.094	11.17859
2.0945	8.15735
2.095	8.05664
2.0955	0.80566
2.096	-1.40991
2.0965	-4.33044
2.097	-10.37292
2.0975	-16.71753
2.098	-10.17151
2.0985	-7.15027
2.099	-11.07788
2.0995	-17.82532
2.1	-16.81824
2.1005	-18.22815
2.101	-25.07629
2.1015	-69.28711
2.102	-90.83862
2.1025	-94.06128
2.103	-93.35632
2.1035	-84.89685
2.104	-64.35242
2.1045	-33.9386
2.105	1.00708
2.1055	31.72302
2.106	64.05029
2.1065	75.32959
2.107	67.77649
2.1075	66.26587
2.108	56.5979
2.1085	46.5271
2.109	32.22656
2.1095	27.09045
2.11	20.04089
2.1105	7.25098
2.111	4.73328
2.1115	7.85522
2.112	12.18567
2.1125	13.49487
2.113	13.39417
2.1135	17.6239
2.114	24.97559
2.1145	30.2124
2.115	27.6947
2.1155	24.97559
2.116	11.2793
2.1165	-4.83398
2.117	-3.7262
2.1175	-2.11487
2.118	0
2.1185	-0.60425
2.119	-8.96301
2.1195	-24.27063
2.12	-32.12585
2.1205	-35.85205
2.121	-32.12585
2.1215	-21.14868
2.122	-1.00708
2.1225	8.96301
2.123	15.1062
2.1235	20.1416
2.124	19.53735
2.1245	18.22815
2.125	21.04797
2.1255	23.16284
2.126	36.95984
2.1265	37.46338
2.127	44.11011
2.1275	41.89453
2.128	45.92285
2.1285	44.41223
2.129	40.78674
2.1295	45.3186
2.13	40.88745
2.1305	34.64355
2.131	28.19824
2.1315	20.24231
2.132	18.32886
2.1325	21.45081
2.133	2.92053
2.1335	-41.08887
2.134	-53.67737
2.1345	-60.62622
2.135	-67.47437
2.1355	-79.15649
2.136	-90.5365
2.1365	-86.00464
2.137	-55.59082
2.1375	-28.19824
2.138	-19.73877
2.1385	6.74744
2.139	32.52869
2.1395	46.72852
2.14	59.51843
2.1405	68.28003
2.141	67.17224
2.1415	48.54126
2.142	37.16125
2.1425	27.49329
2.143	29.00391
2.1435	38.06763
2.144	37.36267
2.1445	35.65063
2.145	43.30444
2.1455	50.15259
2.146	58.41064
2.1465	52.771
2.147	43.30444
2.1475	38.16833
2.148	39.88037
2.1485	36.35559
2.149	33.9386
2.1495	25.98267
2.15	14.50195
2.1505	6.74744
2.151	-3.42407
2.1515	-7.35168
2.152	-14.19983
2.1525	-17.82532
2.153	-22.25647
2.1535	-23.16284
2.154	-35.34851
2.1545	-38.26904
2.155	-45.11719
2.1555	-61.12976
2.156	-69.68994
2.1565	-65.25879
2.157	-64.151
2.1575	-60.62622
2.158	-52.771
2.1585	-47.13135
2.159	-106.9519
2.1595	-179.76379
2.16	-193.46008
2.1605	-169.18945
2.161	-122.56165
2.1615	-78.45154
2.162	-28.19824
2.1625	14.30054
2.163	47.7356
2.1635	77.14233
2.164	99.60022
2.1645	107.25403
2.165	120.7489
2.1655	124.77722
2.166	138.97705
2.1665	158.71582
2.167	147.73865
2.1675	121.45386
2.168	100.70801
2.1685	84.69543
2.169	71.30127
2.1695	58.51135
2.17	61.12976
2.1705	51.66321
2.171	49.95117
2.1715	41.4917
2.172	35.34851
2.1725	28.50037
2.173	23.46497
2.1735	27.49329
2.174	28.39966
2.1745	21.45081
2.175	16.01257
2.1755	9.56726
2.176	5.94177
2.1765	5.53894
2.177	-0.10071
2.1775	-1.2085
2.178	-1.81274
2.1785	0.80566
2.179	-10.37292
2.1795	-10.27222
2.18	-8.15735
2.1805	-9.36584
2.181	-22.76001
2.1815	-46.22498
2.182	-55.49011
2.1825	-56.09436
2.183	-57.00073
2.1835	-54.98657
2.184	-52.771
2.1845	-48.03772
2.185	-44.31152
2.1855	-36.4563
2.186	-30.31311
2.1865	-21.14868
2.187	-18.63098
2.1875	-11.2793
2.188	-5.74036
2.1885	-0.30212
2.189	10.87646
2.1895	17.22107
2.19	16.21399
2.1905	18.63098
2.191	14.80408
2.1915	21.75293
2.192	24.47205
2.1925	25.57983
2.193	27.99683
2.1935	21.24939
2.194	21.75293
2.1945	26.18408
2.195	24.27063
2.1955	30.31311
2.196	29.00391
2.1965	34.64355
2.197	32.93152
2.1975	29.70886
2.198	26.08337
2.1985	21.55151
2.199	17.52319
2.1995	17.32178
2.2	18.32886
2.2005	14.70337
2.201	2.61841
2.2015	-3.52478
2.202	-5.13611
2.2025	-6.64673
2.203	-7.04956
2.2035	-24.27063
2.204	-36.25488
2.2045	-49.34692
2.205	-78.14941
2.2055	-91.64429
2.206	-96.67969
2.2065	-91.54358
2.207	-94.3634
2.2075	-83.78906
2.208	-69.1864
2.2085	-53.77808
2.209	-41.39099
2.2095	-23.36426
2.21	-15.00549
2.2105	-4.53186
2.211	6.54602
2.2115	19.33594
2.212	35.14709
2.2125	43.40515
2.213	53.67737
2.2135	60.62622
2.214	65.3595
2.2145	69.68994
2.215	67.07153
2.2155	53.17383
2.216	44.61365
2.2165	46.22498
2.217	41.39099
2.2175	48.03772
2.218	50.15259
2.2185	50.75684
2.219	45.72144
2.2195	38.67188
2.22	36.4563
2.2205	32.93152
2.221	27.19116
2.2215	21.3501
2.222	7.04956
2.2225	-8.96301
2.223	-22.45789
2.2235	-33.03223
2.224	-41.59241
2.2245	-47.03064
2.225	-53.47595
2.2255	-48.03772
2.226	-38.06763
2.2265	-26.58691
2.227	-11.88354
2.2275	-1.40991
2.228	0.80566
2.2285	14.19983
2.229	20.74585
2.2295	23.76709
2.23	22.76001
2.2305	19.43665
2.231	15.00549
2.2315	25.07629
2.232	22.45789
2.2325	37.7655
2.233	49.14551
2.2335	45.92285
2.234	38.36975
2.2345	15.40833
2.235	-3.62549
2.2355	-14.90479
2.236	-14.70337
2.2365	-12.89062
2.237	-8.15735
2.2375	1.10779
2.238	15.71045
2.2385	30.51453
2.239	34.24072
2.2395	45.11719
2.24	48.03772
2.2405	47.13135
2.241	47.8363
2.2415	42.39807
2.242	28.39966
2.2425	19.63806
2.243	16.21399
2.2435	11.98425
2.244	8.25806
2.2445	1.2085
2.245	3.92761
2.2455	2.92053
2.246	4.12903
2.2465	2.5177
2.247	-0.50354
2.2475	-6.84814
2.248	-6.94885
2.2485	-14.60266
2.249	-21.55151
2.2495	-20.24231
2.25	-20.94727
2.2505	-26.98975
2.251	-24.87488
2.2515	-25.37842
2.252	-22.76001
2.2525	-7.75452
2.253	-0.60425
2.2535	3.42407
2.254	-9.26514
2.2545	-32.62939
2.255	-43.00232
2.2555	-44.51294
2.256	-35.2478
2.2565	-36.75842
2.257	-30.01099
2.2575	-22.76001
2.258	-18.73169
2.2585	-6.14319
2.259	0.30212
2.2595	13.89771
2.26	21.85364
2.2605	33.83789
2.261	35.75134
2.2615	42.7002
2.262	38.974
2.2625	32.02515
2.263	33.33435
2.2635	38.47046
2.264	26.58691
2.2645	24.57275
2.265	19.94019
2.2655	26.08337
2.266	29.60815
2.2665	26.48621
2.267	27.29187
2.2675	23.96851
2.268	20.94727
2.2685	19.13452
2.269	16.3147
2.2695	18.8324
2.27	16.71753
2.2705	15.30762
2.271	7.75452
2.2715	4.53186
2.272	3.62549
2.2725	-4.83398
2.273	-0.90637
2.2735	0
2.274	-4.02832
2.2745	-1.91345
2.275	-4.33044
2.2755	-6.44531
2.276	-5.63965
2.2765	-2.5177
2.277	-10.67505
2.2775	-9.06372
2.278	-7.15027
2.2785	-7.75452
2.279	-7.35168
2.2795	-0.40283
2.28	2.11487
2.2805	4.83398
2.281	12.48779
2.2815	14.70337
2.282	17.22107
2.2825	10.27222
2.283	10.47363
2.2835	7.85522
2.284	8.66089
2.2845	10.47363
2.285	12.78992
2.2855	-8.8623
2.286	-37.36267
2.2865	-55.2887
2.287	-57.8064
2.2875	-50.65613
2.288	-39.67896
2.2885	-21.75293
2.289	-13.99841
2.2895	-2.01416
2.29	2.61841
2.2905	8.45947
2.291	12.08496
2.2915	14.90479
2.292	15.81116
2.2925	16.71753
2.293	16.71753
2.2935	21.75293
2.294	21.65222
2.2945	15.71045
2.295	19.83948
2.2955	24.67346
2.296	24.37134
2.2965	23.36426
2.297	18.8324
2.2975	8.66089
2.298	8.66089
2.2985	14.80408
2.299	15.1062
2.2995	15.20691
2.3	14.09912
2.3005	1.00708
2.301	-27.79541
2.3015	-49.85046
2.302	-62.8418
2.3025	-61.23047
2.303	-63.94958
2.3035	-64.35242
2.304	-56.49719
2.3045	-34.34143
2.305	-14.19983
2.3055	8.25806
2.306	21.14868
2.3065	29.00391
2.307	23.36426
2.3075	17.22107
2.308	21.75293
2.3085	17.01965
2.309	15.91187
2.3095	22.76001
2.31	19.73877
2.3105	22.45789
2.311	23.16284
2.3115	16.51611
2.312	15.20691
2.3125	12.5885
2.313	3.02124
2.3135	6.94885
2.314	13.29346
2.3145	15.40833
2.315	19.53735
2.3155	-2.31628
2.316	-19.83948
2.3165	-29.20532
2.317	-30.31311
2.3175	-25.98267
2.318	-15.91187
2.3185	0.70496
2.319	3.92761
2.3195	5.13611
2.32	14.60266
2.3205	27.79541
2.321	44.81506
2.3215	58.10852
2.322	64.95667
2.3225	62.8418
2.323	62.9425
2.3235	60.12268
2.324	57.9071
2.3245	57.20215
2.325	53.67737
2.3255	41.59241
2.326	34.44214
2.3265	25.88196
2.327	19.33594
2.3275	8.96301
2.328	11.68213
2.3285	9.97009
2.329	0.90637
2.3295	-10.0708
2.33	-28.19824
2.3305	-31.52161
2.331	-32.93152
2.3315	-23.46497
2.332	-16.71753
2.3325	-13.09204
2.333	-19.13452
2.3335	-27.49329
2.334	-33.43506
2.3345	-30.11169
2.335	-20.04089
2.3355	-10.77576
2.336	5.0354
2.3365	16.51611
2.337	21.04797
2.3375	29.60815
2.338	35.34851
2.3385	41.39099
2.339	40.1825
2.3395	43.00232
2.34	48.03772
2.3405	43.40515
2.341	41.4917
2.3415	37.36267
2.342	38.57117
2.3425	35.34851
2.343	33.13293
2.3435	36.4563
2.344	31.62231
2.3445	31.52161
2.345	27.09045
2.3455	19.83948
2.346	22.15576
2.3465	15.81116
2.347	13.59558
2.3475	7.85522
2.348	-0.70496
2.3485	5.0354
2.349	-4.73328
2.3495	-11.2793
2.35	-42.7002
2.3505	-57.20215
2.351	-55.59082
2.3515	-55.2887
2.352	-43.90869
2.3525	-33.33435
2.353	-20.64514
2.3535	-15.60974
2.354	-12.68921
2.3545	-10.47363
2.355	-11.17859
2.3555	-4.73328
2.356	2.01416
2.3565	3.22266
2.357	2.71912
2.3575	7.15027
2.358	9.16443
2.3585	14.40125
2.359	17.42249
2.3595	19.63806
2.36	12.89062
2.3605	17.92603
2.361	18.12744
2.3615	20.54443
2.362	24.87488
2.3625	17.92603
2.363	17.32178
2.3635	26.28479
2.364	29.60815
2.3645	25.78125
2.365	22.15576
2.3655	22.15576
2.366	19.23523
2.3665	13.39417
2.367	15.1062
2.3675	14.19983
2.368	-2.5177
2.3685	-9.86938
2.369	-6.3446
2.3695	-8.7616
2.37	-5.53894
2.3705	-6.14319
2.371	-5.23682
2.3715	-3.22266
2.372	-0.70496
2.3725	5.13611
2.373	5.13611
2.3735	12.38708
2.374	15.71045
2.3745	13.49487
2.375	4.83398
2.3755	0
2.376	-3.7262
2.3765	-3.02124
2.377	-10.27222
2.3775	-13.49487
2.378	-20.34302
2.3785	-22.55859
2.379	-21.3501
2.3795	-25.27771
2.38	-27.79541
2.3805	-21.45081
2.381	-21.95435
2.3815	-20.1416
2.382	-18.22815
2.3825	-13.99841
2.383	-6.64673
2.3835	-2.61841
2.384	-0.40283
2.3845	4.53186
2.385	5.74036
2.3855	10.57434
2.386	10.0708
2.3865	18.12744
2.387	19.53735
2.3875	19.33594
2.388	27.19116
2.3885	31.21948
2.389	32.32727
2.3895	32.12585
2.39	40.78674
2.3905	46.12427
2.391	48.44055
2.3915	51.66321
2.392	47.8363
2.3925	39.27612
2.393	32.02515
2.3935	32.83081
2.394	24.97559
2.3945	23.76709
2.395	18.22815
2.3955	18.63098
2.396	8.7616
2.3965	-20.84656
2.397	-38.47046
2.3975	-44.11011
2.398	-36.35559
2.3985	-36.75842
2.399	-36.75842
2.3995	-32.7301
2.4	-28.09753
2.4005	-26.28479
2.401	-24.87488
2.4015	-8.96301
2.402	-2.11487
2.4025	2.92053
2.403	7.95593
2.4035	12.28638
2.404	24.27063
2.4045	25.37842
2.405	27.19116
2.4055	11.58142
2.406	-29.50745
2.4065	-58.51135
2.407	-47.63489
2.4075	-50.354
2.408	-50.15259
2.4085	-39.57825
2.409	-24.57275
2.4095	-10.27222
2.41	2.21558
2.4105	4.93469
2.411	12.78992
2.4115	26.18408
2.412	30.01099
2.4125	29.30603
2.413	28.60107
2.4135	25.88196
2.414	23.26355
2.4145	26.98975
2.415	27.79541
2.4155	30.31311
2.416	38.26904
2.4165	55.89294
2.417	66.6687
2.4175	74.2218
2.418	64.75525
2.4185	66.06445
2.419	53.67737
2.4195	28.80249
2.42	0.40283
2.4205	-9.76868
2.421	-16.01257
2.4215	-27.89612
2.422	-30.71594
2.4225	-31.32019
2.423	-33.63647
2.4235	-33.63647
2.424	-30.01099
2.4245	-24.06921
2.425	-19.53735
2.4255	-12.5885
2.426	-0.60425
2.4265	7.5531
2.427	19.43665
2.4275	28.09753
2.428	20.64514
2.4285	-11.48071
2.429	-29.20532
2.4295	-20.1416
2.43	-14.80408
2.4305	-14.30054
2.431	-4.63257
2.4315	-2.01416
2.432	12.08496
2.4325	33.53577
2.433	55.59082
2.4335	62.9425
2.434	68.28003
2.4345	63.34534
2.435	58.91418
2.4355	56.90002
2.436	54.38232
2.4365	46.32568
2.437	37.06055
2.4375	34.74426
2.438	37.26196
2.4385	37.86621
2.439	28.29895
2.4395	27.79541
2.44	18.73169
2.4405	17.92603
2.441	17.82532
2.4415	13.59558
2.442	19.03381
2.4425	19.03381
2.443	15.60974
2.4435	8.35876
2.444	0.70496
2.4445	-6.14319
2.445	-5.23682
2.4455	-8.96301
2.446	-11.48071
2.4465	-6.2439
2.447	6.84814
2.4475	1.40991
2.448	-8.56018
2.4485	-6.64673
2.449	-9.56726
2.4495	-12.68921
2.45	-16.11328
2.4505	-15.40833
2.451	-16.41541
2.4515	-18.73169
2.452	-16.51611
2.4525	-16.61682
2.453	-12.08496
2.4535	-12.48779
2.454	-10.77576
2.4545	-5.0354
2.455	-10.37292
2.4555	-5.84106
2.456	4.93469
2.4565	7.5531
2.457	4.53186
2.4575	2.21558
2.458	6.54602
2.4585	15.30762
2.459	18.93311
2.4595	14.09912
2.46	12.99133
2.4605	11.17859
2.461	7.45239
2.4615	5.23682
2.462	2.61841
2.4625	5.13611
2.463	1.2085
2.4635	-2.31628
2.464	5.63965
2.4645	3.8269
2.465	1.81274
2.4655	2.71912
2.466	1.71204
2.4665	-5.74036
2.467	-4.22974
2.4675	1.00708
2.468	1.61133
2.4685	1.51062
2.469	2.92053
2.4695	2.01416
2.47	-1.81274
2.4705	-5.94177
2.471	-7.95593
2.4715	-9.86938
2.472	-9.66797
2.4725	-8.05664
2.473	-11.68213
2.4735	-9.36584
2.474	-8.15735
2.4745	-8.56018
2.475	-10.17151
2.4755	-26.78833
2.476	-39.67896
2.4765	-40.38391
2.477	-38.67188
2.4775	-31.62231
2.478	-29.80957
2.4785	-16.71753
2.479	-11.38
2.4795	5.13611
2.48	3.22266
2.4805	10.27222
2.481	16.3147
2.4815	16.01257
2.482	26.68762
2.4825	31.72302
2.483	28.70178
2.4835	28.09753
2.484	19.94019
2.4845	25.98267
2.485	24.77417
2.4855	16.41541
2.486	18.42957
2.4865	21.95435
2.487	16.61682
2.4875	14.30054
2.488	12.18567
2.4885	0.60425
2.489	-9.66797
2.4895	-14.40125
2.49	-20.24231
2.4905	-17.42249
2.491	-13.99841
2.4915	-21.55151
2.492	-27.39258
2.4925	-29.60815
2.493	-21.75293
2.4935	-12.18567
2.494	-12.5885
2.4945	-33.43506
2.495	-52.771
2.4955	-56.29578
2.496	-47.7356
2.4965	-28.29895
2.497	-6.74744
2.4975	9.76868
2.498	17.22107
2.4985	23.8678
2.499	34.84497
2.4995	37.46338
2.5	40.68604
2.5005	51.96533
2.501	58.20923
2.5015	66.97083
2.502	69.99207
2.5025	79.86145
2.503	86.91101
2.5035	84.19189
2.504	77.948
2.5045	67.77649
2.505	57.8064
2.5055	44.0094
2.506	34.64355
2.5065	20.24231
2.507	10.57434
2.5075	9.46655
2.508	5.33752
2.5085	4.93469
2.509	9.36584
2.5095	14.50195
2.51	13.49487
2.5105	4.73328
2.511	3.42407
2.5115	5.0354
2.512	12.18567
2.5125	5.13611
2.513	-3.22266
2.5135	-7.75452
2.514	-12.28638
2.5145	-8.25806
2.515	-8.8623
2.5155	-11.48071
2.516	-14.40125
2.5165	-13.69629
2.517	-8.8623
2.5175	-4.93469
2.518	-3.92761
2.5185	-15.40833
2.519	-22.35718
2.5195	-24.87488
2.52	-29.40674
2.5205	-36.95984
2.521	-45.62073
2.5215	-38.57117
2.522	-44.0094
2.5225	-74.2218
2.523	-78.35083
2.5235	-67.17224
2.524	-49.34692
2.5245	-35.04639
2.525	-21.3501
2.5255	-9.36584
2.526	8.96301
2.5265	20.44373
2.527	34.64355
2.5275	37.96692
2.528	42.7002
2.5285	43.40515
2.529	49.14551
2.5295	47.23206
2.53	47.03064
2.5305	26.58691
2.531	22.76001
2.5315	15.20691
2.532	13.29346
2.5325	8.66089
2.533	1.81274
2.5335	4.83398
2.534	1.91345
2.5345	9.36584
2.535	14.60266
2.5355	7.04956
2.536	7.04956
2.5365	13.19275
2.537	22.96143
2.5375	36.35559
2.538	35.44922
2.5385	34.84497
2.539	27.19116
2.5395	23.76709
2.54	21.55151
2.5405	23.56567
2.541	20.64514
2.5415	9.86938
2.542	4.02832
2.5425	5.94177
2.543	3.12195
2.5435	9.56726
2.544	11.17859
2.5445	17.52319
2.545	14.90479
2.5455	2.11487
2.546	8.66089
2.5465	-0.60425
2.547	-3.52478
2.5475	-2.01416
2.548	5.63965
2.5485	12.78992
2.549	11.2793
2.5495	9.36584
2.55	11.98425
2.5505	13.39417
2.551	14.90479
2.5515	22.05505
2.552	24.77417
2.5525	20.34302
2.553	-1.10779
2.5535	-32.12585
2.554	-39.47754
2.5545	-48.64197
2.555	-45.82214
2.5555	-46.12427
2.556	-40.58533
2.5565	-42.29736
2.557	-37.06055
2.5575	-30.41382
2.558	-32.02515
2.5585	-23.56567
2.559	-7.5531
2.5595	-7.15027
2.56	-0.60425
2.5605	4.73328
2.561	9.66797
2.5615	16.81824
2.562	25.177
2.5625	26.98975
2.563	31.32019
2.5635	33.43506
2.564	34.24072
2.5645	34.44214
2.565	36.85913
2.5655	36.55701
2.566	40.88745
2.5665	42.90161
2.567	43.90869
2.5675	47.03064
2.568	36.65771
2.5685	26.48621
2.569	21.14868
2.5695	27.59399
2.57	21.3501
2.5705	19.03381
2.571	23.46497
2.5715	17.32178
2.572	-10.37292
2.5725	-42.59949
2.573	-49.24622
2.5735	-45.11719
2.574	-51.05896
2.5745	-49.24622
2.575	-39.88037
2.5755	-41.59241
2.576	-34.54285
2.5765	-28.80249
2.577	-21.24939
2.5775	-16.11328
2.578	-4.33044
2.5785	1.91345
2.579	5.0354
2.5795	11.58142
2.58	17.42249
2.5805	22.35718
2.581	33.83789
2.5815	48.33984
2.582	54.0802
2.5825	55.59082
2.583	51.15967
2.5835	46.12427
2.584	36.35559
2.5845	31.92444
2.585	24.16992
2.5855	21.75293
2.586	21.3501
2.5865	26.48621
2.587	29.60815
2.5875	30.71594
2.588	25.78125
2.5885	20.34302
2.589	20.84656
2.5895	27.79541
2.59	25.07629
2.5905	21.24939
2.591	21.75293
2.5915	13.29346
2.592	6.94885
2.5925	12.38708
2.593	12.78992
2.5935	11.98425
2.594	9.06372
2.5945	-1.3092
2.595	-2.5177
2.5955	-9.56726
2.596	-29.50745
2.5965	-43.30444
2.597	-65.76233
2.5975	-71.20056
2.598	-74.2218
2.5985	-72.71118
2.599	-62.53967
2.5995	-62.03613
2.6	-54.98657
2.6005	-46.72852
2.601	-42.8009
2.6015	-25.78125
2.602	-19.53735
2.6025	-17.6239
2.603	-6.14319
2.6035	9.06372
2.604	19.13452
2.6045	23.96851
2.605	13.89771
2.6055	9.26514
2.606	15.91187
2.6065	22.15576
2.607	35.65063
2.6075	47.43347
2.608	43.00232
2.6085	33.23364
2.609	31.52161
2.6095	34.24072
2.61	28.39966
2.6105	33.43506
2.611	39.67896
2.6115	41.69312
2.612	46.72852
2.6125	41.99524
2.613	37.26196
2.6135	31.4209
2.614	27.19116
2.6145	26.18408
2.615	16.81824
2.6155	7.04956
2.616	4.33044
2.6165	3.52478
2.617	-17.42249
2.6175	-42.19666
2.618	-50.05188
2.6185	-45.72144
2.619	-25.68054
2.6195	-12.5885
2.62	2.61841
2.6205	18.93311
2.621	16.91895
2.6215	25.98267
2.622	32.12585
2.6225	38.77258
2.623	40.2832
2.6235	39.77966
2.624	37.96692
2.6245	32.83081
2.625	29.50745
2.6255	23.16284
2.626	24.57275
2.6265	22.25647
2.627	5.53894
2.6275	-28.50037
2.628	-37.26196
2.6285	-38.974
2.629	-30.71594
2.6295	-28.70178
2.63	-13.59558
2.6305	4.83398
2.631	16.3147
2.6315	16.91895
2.632	23.36426
2.6325	24.47205
2.633	36.25488
2.6335	47.63489
2.634	55.49011
2.6345	47.93701
2.635	26.78833
2.6355	12.78992
2.636	11.07788
2.6365	12.28638
2.637	18.63098
2.6375	6.44531
2.638	-26.88904
2.6385	-42.19666
2.639	-46.92993
2.6395	-47.33276
2.64	-56.09436
2.6405	-45.62073
2.641	-28.60107
2.6415	-9.86938
2.642	12.99133
2.6425	24.37134
2.643	34.34143
2.6435	36.75842
2.644	30.71594
2.6445	30.41382
2.645	29.60815
2.6455	18.02673
2.646	17.72461
2.6465	-0.60425
2.647	-22.6593
2.6475	-30.01099
2.648	-43.60657
2.6485	-46.12427
2.649	-41.89453
2.6495	-40.1825
2.65	-36.4563
2.6505	-36.05347
2.651	-29.91028
2.6515	-18.8324
2.652	-2.5177
2.6525	9.97009
2.653	23.66638
2.6535	40.1825
2.654	46.22498
2.6545	46.82922
2.655	51.15967
2.6555	45.3186
2.656	45.62073
2.6565	40.88745
2.657	35.2478
2.6575	40.48462
2.658	35.85205
2.6585	39.27612
2.659	44.31152
2.6595	41.99524
2.66	39.17542
2.6605	33.13293
2.661	29.40674
2.6615	29.40674
2.662	28.39966
2.6625	24.06921
2.663	19.43665
2.6635	21.45081
2.664	15.30762
2.6645	5.23682
2.665	5.94177
2.6655	-4.02832
2.666	-0.60425
2.6665	-0.70496
2.667	-7.85522
2.6675	-6.3446
2.668	-10.0708
2.6685	-18.32886
2.669	-29.91028
2.6695	-32.12585
2.67	-31.92444
2.6705	-26.08337
2.671	-16.91895
2.6715	-13.797
2.672	-9.46655
2.6725	-2.81982
2.673	-0.40283
2.6735	1.10779
2.674	3.62549
2.6745	11.07788
2.675	17.12036
2.6755	11.07788
2.676	2.5177
2.6765	2.5177
2.677	5.74036
2.6775	2.61841
2.678	3.22266
2.6785	0.90637
2.679	5.53894
2.6795	28.50037
2.68	46.12427
2.6805	49.64905
2.681	32.02515
2.6815	22.86072
2.682	13.89771
2.6825	14.70337
2.683	14.70337
2.6835	17.72461
2.684	20.04089
2.6845	18.12744
2.685	22.6593
2.6855	17.6239
2.686	13.99841
2.6865	12.08496
2.687	8.96301
2.6875	6.74744
2.688	14.50195
2.6885	14.60266
2.689	13.797
2.6895	8.25806
2.69	8.45947
2.6905	8.8623
2.691	15.20691
2.6915	8.05664
2.692	5.13611
2.6925	7.75452
2.693	3.02124
2.6935	7.65381
2.694	4.83398
2.6945	-8.8623
2.695	-36.25488
2.6955	-46.22498
2.696	-50.95825
2.6965	-54.48303
2.697	-74.12109
2.6975	-110.98022
2.698	-122.46094
2.6985	-117.12341
2.699	-103.62854
2.6995	-85.60181
2.7	-64.95667
2.7005	-51.26038
2.701	-23.36426
2.7015	-5.53894
2.702	10.27222
2.7025	19.73877
2.703	24.37134
2.7035	32.83081
2.704	32.02515
2.7045	26.18408
2.705	26.18408
2.7055	29.00391
2.706	43.20374
2.7065	55.18799
2.707	66.56799
2.7075	89.63013
2.708	102.92358
2.7085	103.22571
2.709	89.83154
2.7095	70.3949
2.71	57.50427
2.7105	51.66321
2.711	48.33984
2.7115	45.62073
2.712	36.85913
2.7125	35.44922
2.713	29.80957
2.7135	35.14709
2.714	37.16125
2.7145	33.23364
2.715	31.01807
2.7155	24.97559
2.716	25.37842
2.7165	17.52319
2.717	16.3147
2.7175	4.12903
2.718	-10.87646
2.7185	-20.04089
2.719	-25.68054
2.7195	-15.1062
2.72	-10.0708
2.7205	-7.65381
2.721	7.25098
2.7215	4.83398
2.722	14.80408
2.7225	13.99841
2.723	14.80408
2.7235	14.09912
2.724	11.68213
2.7245	7.04956
2.725	-2.61841
2.7255	-0.30212
2.726	0.70496
2.7265	-8.8623
2.727	-13.69629
2.7275	-21.85364
2.728	-35.2478
2.7285	-45.3186
2.729	-55.69153
2.7295	-67.07153
2.73	-54.78516
2.7305	-50.45471
2.731	-48.33984
2.7315	-40.88745
2.732	-33.43506
2.7325	-28.29895
2.733	-18.12744
2.7335	-8.45947
2.734	2.21558
2.7345	12.78992
2.735	20.24231
2.7355	30.01099
2.736	45.3186
2.7365	52.06604
2.737	54.18091
2.7375	55.79224
2.738	57.30286
2.7385	51.5625
2.739	39.57825
2.7395	26.48621
2.74	15.30762
2.7405	-3.22266
2.741	-3.32336
2.7415	2.61841
2.742	5.94177
2.7425	10.97717
2.743	9.46655
2.7435	-7.35168
2.744	-7.75452
2.7445	-12.18567
2.745	-19.53735
2.7455	-20.94727
2.746	-19.83948
2.7465	-12.89062
2.747	-10.0708
2.7475	-4.53186
2.748	1.91345
2.7485	-1.2085
2.749	0.30212
2.7495	-2.61841
2.75	-3.42407
2.7505	-8.05664
2.751	-9.36584
2.7515	-4.22974
2.752	-4.83398
2.7525	-1.3092
2.753	-5.43823
2.7535	-0.60425
2.754	0.30212
2.7545	-5.13611
2.755	-3.62549
2.7555	-10.17151
2.756	-4.02832
2.7565	-2.92053
2.757	0.70496
2.7575	-1.51062
2.758	-4.12903
2.7585	2.01416
2.759	1.3092
2.7595	-1.91345
2.76	-1.71204
2.7605	-8.8623
2.761	-8.15735
2.7615	-1.3092
2.762	4.73328
2.7625	5.84106
2.763	6.94885
2.7635	0.60425
2.764	-3.8269
2.7645	0.50354
2.765	-7.95593
2.7655	-32.22656
2.766	-35.04639
2.7665	-38.77258
2.767	-50.15259
2.7675	-98.39172
2.768	-122.56165
2.7685	-119.33899
2.769	-104.93774
2.7695	-87.11243
2.77	-80.26428
2.7705	-59.61914
2.771	-39.88037
2.7715	-17.72461
2.772	-0.80566
2.7725	12.99133
2.773	27.39258
2.7735	30.81665
2.774	35.54993
2.7745	41.08887
2.775	50.65613
2.7755	54.78516
2.776	61.43188
2.7765	70.29419
2.777	76.43738
2.7775	66.56799
2.778	67.27295
2.7785	71.30127
2.779	87.71667
2.7795	96.37756
2.78	99.90234
2.7805	103.82996
2.781	117.82837
2.7815	121.65527
2.782	125.68359
2.7825	116.31775
2.783	94.2627
2.7835	77.24304
2.784	65.05737
2.7845	49.14551
2.785	38.974
2.7855	28.39966
2.786	25.07629
2.7865	23.56567
2.787	19.43665
2.7875	19.23523
2.788	19.03381
2.7885	14.19983
2.789	7.35168
2.7895	4.12903
2.79	0
2.7905	0
2.791	-4.73328
2.7915	-10.67505
2.792	-8.35876
2.7925	-6.64673
2.793	-10.37292
2.7935	-6.54602
2.794	-6.84814
2.7945	-9.36584
2.795	-10.37292
2.7955	-15.40833
2.796	-14.90479
2.7965	-11.07788
2.797	-10.67505
2.7975	-8.66089
2.798	-7.85522
2.7985	-4.93469
2.799	-14.50195
2.7995	-13.99841
2.8	-14.09912
2.8005	-9.56726
2.801	-10.27222
2.8015	-7.04956
2.802	-7.45239
2.8025	-10.47363
2.803	-7.95593
2.8035	-10.87646
2.804	-11.38
2.8045	-7.95593
2.805	-3.92761
2.8055	-5.33752
2.806	-1.10779
2.8065	-3.12195
2.807	5.84106
2.8075	2.01416
2.808	2.31628
2.8085	2.11487
2.809	-1.3092
2.8095	-2.11487
2.81	-3.92761
2.8105	-2.61841
2.811	-7.45239
2.8115	-6.44531
2.812	-3.62549
2.8125	-1.91345
2.813	0.40283
2.8135	2.21558
2.814	6.14319
2.8145	-2.11487
2.815	-0.90637
2.8155	2.81982
2.816	3.22266
2.8165	4.43115
2.817	1.3092
2.8175	-4.12903
2.818	-8.25806
2.8185	-19.13452
2.819	-32.7301
2.8195	-39.57825
2.82	-42.90161
2.8205	-52.67029
2.821	-50.45471
2.8215	-51.86462
2.822	-61.23047
2.8225	-54.98657
2.823	-43.50586
2.8235	-37.46338
2.824	-27.29187
2.8245	-16.41541
2.825	-4.22974
2.8255	7.65381
2.826	20.04089
2.8265	33.03223
2.827	49.14551
2.8275	49.54834
2.828	36.15417
2.8285	17.01965
2.829	-14.19983
2.8295	-31.82373
2.83	-32.22656
2.8305	-28.09753
2.831	-6.14319
2.8315	25.78125
2.832	49.44763
2.8325	56.19507
2.833	68.98499
2.8335	78.25012
2.834	80.4657
2.8345	70.79773
2.835	55.18799
2.8355	53.07312
2.836	50.15259
2.8365	45.62073
2.837	42.29736
2.8375	33.83789
2.838	30.61523
2.8385	24.57275
2.839	24.57275
2.8395	28.19824
2.84	29.20532
2.8405	23.66638
2.841	17.42249
2.8415	6.64673
2.842	1.10779
2.8425	-2.81982
2.843	-11.38
2.8435	-32.62939
2.844	-52.16675
2.8445	-60.82764
2.845	-56.90002
2.8455	-62.43896
2.846	-68.28003
2.8465	-56.19507
2.847	-67.67578
2.8475	-55.08728
2.848	-45.2179
2.8485	-43.60657
2.849	-48.54126
2.8495	-56.5979
2.85	-47.13135
2.8505	-34.54285
2.851	-19.43665
2.8515	-11.98425
2.852	5.0354
2.8525	17.92603
2.853	31.92444
2.8535	44.41223
2.854	56.49719
2.8545	67.57507
2.855	70.49561
2.8555	65.3595
2.856	67.07153
2.8565	67.57507
2.857	55.59082
2.8575	36.15417
2.858	25.177
2.8585	11.78284
2.859	18.42957
2.8595	27.49329
2.86	32.22656
2.8605	32.83081
2.861	21.14868
2.8615	15.20691
2.862	14.70337
2.8625	16.41541
2.863	16.21399
2.8635	15.20691
2.864	15.40833
2.8645	8.8623
2.865	3.22266
2.8655	3.62549
2.866	10.57434
2.8665	11.88354
2.867	20.84656
2.8675	35.65063
2.868	49.74976
2.8685	46.82922
2.869	33.63647
2.8695	18.63098
2.87	8.15735
2.8705	16.41541
2.871	14.40125
2.8715	11.17859
2.872	8.25806
2.8725	0.90637
2.873	2.61841
2.8735	-2.11487
2.874	3.7262
2.8745	6.54602
2.875	9.76868
2.8755	9.16443
2.876	8.8623
2.8765	8.7616
2.877	10.57434
2.8775	2.21558
2.878	4.33044
2.8785	-4.93469
2.879	-6.44531
2.8795	-5.0354
2.88	-12.99133
2.8805	-10.27222
2.881	-11.17859
2.8815	-14.50195
2.882	-17.72461
2.8825	-17.52319
2.883	-13.99841
2.8835	-13.69629
2.884	-17.72461
2.8845	-19.53735
2.885	-24.47205
2.8855	-24.57275
2.886	-18.63098
2.8865	-19.73877
2.887	-18.12744
2.8875	-23.16284
2.888	-22.96143
2.8885	-21.55151
2.889	-28.39966
2.8895	-34.03931
2.89	-32.93152
2.8905	-33.53577
2.891	-25.57983
2.8915	-21.24939
2.892	-13.39417
2.8925	-8.05664
2.893	-4.12903
2.8935	3.32336
2.894	10.0708
2.8945	21.75293
2.895	33.63647
2.8955	45.01648
2.896	39.67896
2.8965	24.97559
2.897	-6.14319
2.8975	-13.69629
2.898	-16.3147
2.8985	-17.52319
2.899	-19.63806
2.8995	-18.02673
2.9	-40.2832
2.9005	-68.68286
2.901	-67.97791
2.9015	-55.89294
2.902	-37.56409
2.9025	-20.94727
2.903	-8.8623
2.9035	5.94177
2.904	21.3501
2.9045	30.2124
2.905	42.29736
2.9055	39.98108
2.906	46.82922
2.9065	54.0802
2.907	52.26746
2.9075	51.05896
2.908	49.74976
2.9085	41.4917
2.909	37.86621
2.9095	35.65063
2.91	39.98108
2.9105	34.24072
2.911	30.51453
2.9115	27.49329
2.912	20.24231
2.9125	17.72461
2.913	6.04248
2.9135	12.68921
2.914	15.40833
2.9145	24.87488
2.915	27.09045
2.9155	24.67346
2.916	29.50745
2.9165	33.03223
2.917	25.68054
2.9175	21.75293
2.918	21.04797
2.9185	15.00549
2.919	0.60425
2.9195	-25.177
2.92	-37.46338
2.9205	-42.39807
2.921	-48.13843
2.9215	-45.92285
2.922	-44.41223
2.9225	-35.34851
2.923	-31.4209
2.9235	-20.1416
2.924	-12.18567
2.9245	-5.63965
2.925	-6.14319
2.9255	0.90637
2.926	1.51062
2.9265	4.83398
2.927	-2.81982
2.9275	-9.26514
2.928	-3.52478
2.9285	0
2.929	6.3446
2.9295	8.05664
2.93	12.68921
2.9305	28.09753
2.931	21.3501
2.9315	18.02673
2.932	17.92603
2.9325	26.3855
2.933	28.19824
2.9335	31.62231
2.934	41.99524
2.9345	52.06604
2.935	51.86462
2.9355	38.57117
2.936	34.03931
2.9365	36.25488
2.937	38.77258
2.9375	47.8363
2.938	55.18799
2.9385	49.24622
2.939	49.85046
2.9395	45.01648
2.94	37.7655
2.9405	30.11169
2.941	27.39258
2.9415	21.95435
2.942	21.24939
2.9425	12.78992
2.943	1.71204
2.9435	-3.22266
2.944	-1.3092
2.9445	7.25098
2.945	9.56726
2.9455	-0.50354
2.946	-6.64673
2.9465	-24.57275
2.947	-30.61523
2.9475	-30.41382
2.948	-24.97559
2.9485	-19.33594
2.949	-15.91187
2.9495	-6.54602
2.95	-0.80566
2.9505	7.65381
2.951	2.61841
2.9515	-4.83398
2.952	-15.50903
2.9525	-11.07788
2.953	-10.27222
2.9535	-1.61133
2.954	-5.43823
2.9545	-3.7262
2.955	-4.83398
2.9555	-0.20142
2.956	11.2793
2.9565	15.81116
2.957	16.11328
2.9575	10.57434
2.958	-3.12195
2.9585	-0.10071
2.959	-2.21558
2.9595	4.02832
2.96	-0.30212
2.9605	5.84106
2.961	5.63965
2.9615	8.96301
2.962	17.82532
2.9625	36.85913
2.963	48.44055
2.9635	44.91577
2.964	36.25488
2.9645	30.41382
2.965	26.3855
2.9655	21.65222
2.966	6.64673
2.9665	-4.02832
2.967	-7.35168
2.9675	-5.94177
2.968	-29.30603
2.9685	-46.22498
2.969	-51.26038
2.9695	-57.10144
2.97	-61.53259
2.9705	-57.20215
2.971	-48.84338
2.9715	-40.58533
2.972	-33.13293
2.9725	-27.6947
2.973	-14.40125
2.9735	-1.2085
2.974	5.84106
2.9745	4.73328
2.975	1.10779
2.9755	6.54602
2.976	21.95435
2.9765	22.96143
2.977	-2.01416
2.9775	-21.3501
2.978	-23.26355
2.9785	-18.63098
2.979	-3.52478
2.9795	-0.40283
2.98	11.78284
2.9805	25.27771
2.981	39.57825
2.9815	39.67896
2.982	48.64197
2.9825	64.35242
2.983	71.80481
2.9835	71.09985
2.984	64.85596
2.9845	69.58923
2.985	55.08728
2.9855	51.76392
2.986	47.43347
2.9865	50.95825
2.987	50.15259
2.9875	48.84338
2.988	44.21082
2.9885	40.58533
2.989	40.68604
2.9895	24.87488
2.99	23.96851
2.9905	24.06921
2.991	29.30603
2.9915	34.64355
2.992	26.88904
2.9925	-5.84106
2.993	-21.14868
2.9935	-28.39966
2.994	-27.59399
2.9945	-23.36426
2.995	-24.57275
2.9955	-21.3501
2.996	-14.50195
2.9965	-6.3446
2.997	-9.26514
2.9975	-8.25806
2.998	-6.14319
2.9985	-6.2439
2.999	-0.80566
2.9995	-0.70496
3	-4.93469
3.0005	-4.22974
3.001	-8.96301
3.0015	-6.84814
3.002	-9.76868
3.0025	-16.11328
3.003	-11.17859
3.0035	-6.74744
3.004	-19.23523
3.0045	-21.95435
3.005	-16.51611
3.0055	-14.50195
3.006	-1.61133
3.0065	4.43115
3.007	10.57434
3.0075	12.38708
3.008	15.00549
3.0085	19.23523
3.009	31.01807
3.0095	38.47046
3.01	36.85913
3.0105	42.90161
3.011	47.53418
3.0115	48.64197
3.012	42.09595
3.0125	32.7301
3.013	30.41382
3.0135	31.4209
3.014	36.05347
3.0145	33.43506
3.015	24.16992
3.0155	27.29187
3.016	24.06921
3.0165	20.1416
3.017	16.91895
3.0175	7.85522
3.018	-1.51062
3.0185	-3.62549
3.019	-9.97009
3.0195	-11.98425
3.02	-10.0708
3.0205	-11.07788
3.021	-5.74036
3.0215	5.23682
3.022	7.35168
3.0225	10.27222
3.023	6.14319
3.0235	6.2439
3.024	5.23682
3.0245	-2.21558
3.025	-7.5531
3.0255	-9.26514
3.026	-12.5885
3.0265	-11.48071
3.027	-11.78284
3.0275	-11.78284
3.028	-4.53186
3.0285	-2.41699
3.029	-21.95435
3.0295	-53.17383
3.03	-73.61755
3.0305	-75.4303
3.031	-71.30127
3.0315	-54.18091
3.032	-43.60657
3.0325	-38.16833
3.033	-24.47205
3.0335	-5.74036
3.034	2.61841
3.0345	-0.40283
3.035	1.2085
3.0355	1.2085
3.036	12.08496
3.0365	12.5885
3.037	6.94885
3.0375	4.33044
3.038	5.33752
3.0385	7.15027
3.039	17.6239
3.0395	26.48621
3.04	30.71594
3.0405	44.51294
3.041	61.6333
3.0415	64.25171
3.042	52.56958
3.0425	40.58533
3.043	40.78674
3.0435	44.11011
3.044	35.34851
3.0445	29.80957
3.045	21.65222
3.0455	15.30762
3.046	12.08496
3.0465	2.21558
3.047	-4.83398
3.0475	-26.08337
3.048	-54.0802
3.0485	-48.64197
3.049	-51.46179
3.0495	-42.19666
3.05	-35.14709
3.0505	-30.11169
3.051	-28.80249
3.0515	-25.27771
3.052	-13.59558
3.0525	-9.46655
3.053	-5.33752
3.0535	-8.96301
3.054	1.71204
3.0545	14.19983
3.055	24.77417
3.0555	19.63806
3.056	21.14868
3.0565	20.84656
3.057	14.19983
3.0575	12.68921
3.058	24.47205
3.0585	24.97559
3.059	21.45081
3.0595	24.37134
3.06	29.00391
3.0605	25.47913
3.061	31.82373
3.0615	43.40515
3.062	52.36816
3.0625	57.20215
3.063	52.771
3.0635	58.20923
3.064	49.74976
3.0645	48.74268
3.065	42.19666
3.0655	39.17542
3.066	37.36267
3.0665	33.53577
3.067	31.01807
3.0675	31.72302
3.068	35.14709
3.0685	26.58691
3.069	20.44373
3.0695	9.16443
3.07	7.65381
3.0705	-2.41699
3.071	-5.43823
3.0715	-15.30762
3.072	-23.56567
3.0725	-26.78833
3.073	-29.10461
3.0735	-28.9032
3.074	-30.51453
3.0745	-27.99683
3.075	-26.3855
3.0755	-25.177
3.076	-18.73169
3.0765	-12.28638
3.077	-4.33044
3.0775	-1.2085
3.078	6.54602
3.0785	12.08496
3.079	15.50903
3.0795	24.16992
3.08	25.98267
3.0805	23.46497
3.081	25.37842
3.0815	24.16992
3.082	30.41382
3.0825	34.74426
3.083	34.24072
3.0835	29.20532
3.084	22.35718
3.0845	17.6239
3.085	3.92761
3.0855	-4.83398
3.086	-9.66797
3.0865	-4.63257
3.087	-4.63257
3.0875	-1.91345
3.088	-4.02832
3.0885	-6.3446
3.089	-5.33752
3.0895	-0.10071
3.09	-1.10779
3.0905	2.11487
3.091	3.62549
3.0915	-1.61133
3.092	2.92053
3.0925	1.61133
3.093	-1.2085
3.0935	5.74036
3.094	3.12195
3.0945	9.26514
3.095	12.99133
3.0955	9.06372
3.096	-0.80566
3.0965	2.01416
3.097	3.62549
3.0975	0
3.098	-3.7262
3.0985	0.60425
3.099	-3.32336
3.0995	-2.61841
3.1	-7.5531
3.1005	-10.97717
3.101	-9.16443
3.1015	-10.37292
3.102	-7.85522
3.1025	-2.71912
3.103	-7.65381
3.1035	-7.85522
3.104	-10.37292
3.1045	-1.81274
3.105	-17.22107
3.1055	-44.0094
3.106	-51.05896
3.1065	-52.06604
3.107	-46.62781
3.1075	-38.974
3.108	-30.51453
3.1085	-18.42957
3.109	-9.97009
3.1095	2.11487
3.11	9.76868
3.1105	15.71045
3.111	27.09045
3.1115	35.04639
3.112	32.93152
3.1125	39.77966
3.113	34.84497
3.1135	32.42798
3.114	31.52161
3.1145	37.26196
3.115	35.14709
3.1155	39.07471
3.116	49.34692
3.1165	48.23914
3.117	42.8009
3.1175	32.83081
3.118	36.85913
3.1185	31.62231
3.119	35.44922
3.1195	30.2124
3.12	33.03223
3.1205	33.33435
3.121	17.12036
3.1215	11.98425
3.122	0.20142
3.1225	-4.12903
3.123	-9.76868
3.1235	-11.58142
3.124	-28.09753
3.1245	-34.34143
3.125	-36.95984
3.1255	-34.24072
3.126	-23.76709
3.1265	-25.37842
3.127	-20.24231
3.1275	-19.63806
3.128	-12.18567
3.1285	-2.61841
3.129	4.02832
3.1295	3.12195
3.13	-6.04248
3.1305	-50.85754
3.131	-86.20605
3.1315	-98.19031
3.132	-95.97473
3.1325	-86.10535
3.133	-74.92676
3.1335	-52.97241
3.134	-36.35559
3.1345	-8.7616
3.135	21.3501
3.1355	41.99524
3.136	57.20215
3.1365	54.98657
3.137	59.01489
3.1375	73.31543
3.138	86.10535
3.1385	95.97473
3.139	99.90234
3.1395	94.16199
3.14	94.66553
3.1405	103.52783
3.141	95.97473
3.1415	86.00464
3.142	77.14233
3.1425	63.64746
3.143	42.8009
3.1435	26.78833
3.144	20.34302
3.1445	19.73877
3.145	17.32178
3.1455	11.78284
3.146	12.28638
3.1465	9.06372
3.147	5.94177
3.1475	1.2085
3.148	-4.73328
3.1485	-5.43823
3.149	-8.15735
3.1495	-37.96692
3.15	-57.00073
3.1505	-58.81348
3.151	-56.19507
3.1515	-48.13843
3.152	-37.26196
3.1525	-28.9032
3.153	-10.47363
3.1535	5.84106
3.154	12.99133
3.1545	28.39966
3.155	34.94568
3.1555	44.0094
3.156	42.49878
3.1565	50.05188
3.157	51.5625
3.1575	49.14551
3.158	40.08179
3.1585	35.04639
3.159	36.05347
3.1595	35.2478
3.16	35.85205
3.1605	40.88745
3.161	43.50586
3.1615	37.16125
3.162	28.19824
3.1625	23.56567
3.163	16.41541
3.1635	21.55151
3.164	26.78833
3.1645	17.12036
3.165	12.5885
3.1655	8.15735
3.166	7.04956
3.1665	3.62549
3.167	3.12195
3.1675	-0.40283
3.168	-4.22974
3.1685	-15.40833
3.169	-15.1062
3.1695	-14.19983
3.17	-24.57275
3.1705	-33.53577
3.171	-40.58533
3.1715	-44.11011
3.172	-46.42639
3.1725	-38.67188
3.173	-39.27612
3.1735	-35.34851
3.174	-24.47205
3.1745	-25.07629
3.175	-16.51611
3.1755	-10.67505
3.176	-6.04248
3.1765	0
3.177	9.86938
3.1775	10.17151
3.178	12.78992
3.1785	22.76001
3.179	23.56567
3.1795	30.01099
3.18	35.65063
3.1805	36.55701
3.181	36.25488
3.1815	34.84497
3.182	25.177
3.1825	21.04797
3.183	19.94019
3.1835	-1.10779
3.184	-42.49878
3.1845	-56.19507
3.185	-59.21631
3.1855	-54.68445
3.186	-41.39099
3.1865	-34.94568
3.187	-24.27063
3.1875	-4.63257
3.188	5.74036
3.1885	15.50903
3.189	23.36426
3.1895	29.70886
3.19	30.01099
3.1905	16.11328
3.191	11.58142
3.1915	1.71204
3.192	-1.10779
3.1925	-0.50354
3.193	3.92761
3.1935	4.33044
3.194	6.54602
3.1945	5.23682
3.195	6.14319
3.1955	6.64673
3.196	17.72461
3.1965	27.29187
3.197	27.29187
3.1975	32.83081
3.198	25.37842
3.1985	9.46655
3.199	2.61841
3.1995	-1.2085
3.2	-6.44531
3.2005	-8.35876
3.201	-13.29346
3.2015	-11.2793
3.202	-10.27222
3.2025	-17.01965
3.203	-9.16443
3.2035	-2.81982
3.204	12.68921
3.2045	12.38708
3.205	1.2085
3.2055	-3.42407
3.206	4.22974
3.2065	3.8269
3.207	-21.45081
3.2075	-39.27612
3.208	-47.13135
3.2085	-50.75684
3.209	-46.12427
3.2095	-56.69861
3.21	-47.43347
3.2105	-39.98108
3.211	-29.40674
3.2115	-17.72461
3.212	-10.37292
3.2125	-6.74744
3.213	-2.21558
3.2135	7.35168
3.214	17.32178
3.2145	27.29187
3.215	31.62231
3.2155	33.43506
3.216	45.3186
3.2165	55.08728
3.217	44.0094
3.2175	33.13293
3.218	25.68054
3.2185	21.45081
3.219	27.6947
3.2195	23.26355
3.22	20.44373
3.2205	21.75293
3.221	19.13452
3.2215	23.46497
3.222	34.24072
3.2225	31.32019
3.223	18.12744
3.2235	4.83398
3.224	5.63965
3.2245	4.53186
3.225	0.70496
3.2255	7.75452
3.226	5.63965
3.2265	2.81982
3.227	7.65381
3.2275	7.5531
3.228	2.81982
3.2285	-28.39966
3.229	-44.0094
3.2295	-41.18958
3.23	-27.79541
3.2305	-19.53735
3.231	-7.04956
3.2315	3.22266
3.232	20.24231
3.2325	41.99524
3.233	50.45471
3.2335	59.01489
3.234	68.98499
3.2345	68.88428
3.235	60.22339
3.2355	48.13843
3.236	42.19666
3.2365	31.92444
3.237	28.9032
3.2375	32.52869
3.238	35.75134
3.2385	43.90869
3.239	43.70728
3.2395	47.63489
3.24	44.21082
3.2405	36.4563
3.241	31.52161
3.2415	30.61523
3.242	34.64355
3.2425	37.26196
3.243	45.01648
3.2435	35.95276
3.244	29.40674
3.2445	30.51453
3.245	29.91028
3.2455	20.04089
3.246	23.66638
3.2465	18.63098
3.247	16.21399
3.2475	14.80408
3.248	9.26514
3.2485	4.53186
3.249	-3.32336
3.2495	-10.67505
3.25	-14.19983
3.2505	-20.94727
3.251	-20.44373
3.2515	-24.06921
3.252	-25.98267
3.2525	-27.79541
3.253	-26.58691
3.2535	-39.17542
3.254	-41.99524
3.2545	-49.0448
3.255	-45.72144
3.2555	-40.58533
3.256	-31.32019
3.2565	-21.95435
3.257	-18.53027
3.2575	-9.16443
3.258	-3.42407
3.2585	7.25098
3.259	14.09912
3.2595	14.80408
3.26	15.20691
3.2605	-8.35876
3.261	-46.92993
3.2615	-68.07861
3.262	-64.151
3.2625	-51.15967
3.263	-45.3186
3.2635	-20.74585
3.264	-6.64673
3.2645	4.33044
3.265	15.40833
3.2655	18.53027
3.266	20.94727
3.2665	24.27063
3.267	26.48621
3.2675	19.03381
3.268	13.19275
3.2685	0.30212
3.269	-25.57983
3.2695	-30.41382
3.27	-30.81665
3.2705	-22.76001
3.271	-21.3501
3.2715	-10.57434
3.272	-4.33044
3.2725	-4.93469
3.273	-2.21558
3.2735	9.66797
3.274	22.6593
3.2745	31.92444
3.275	40.68604
3.2755	41.59241
3.276	43.10303
3.2765	34.14001
3.277	32.7301
3.2775	32.7301
3.278	43.90869
3.2785	42.59949
3.279	41.89453
3.2795	44.31152
3.28	44.0094
3.2805	40.1825
3.281	32.83081
3.2815	23.16284
3.282	20.64514
3.2825	21.04797
3.283	18.22815
3.2835	14.19983
3.284	16.3147
3.2845	15.71045
3.285	25.27771
3.2855	29.10461
3.286	26.98975
3.2865	21.45081
3.287	16.21399
3.2875	16.21399
3.288	11.38
3.2885	7.15027
3.289	8.56018
3.2895	0.50354
3.29	5.23682
3.2905	12.08496
3.291	11.88354
3.2915	15.00549
3.292	18.42957
3.2925	18.73169
3.293	16.3147
3.2935	17.82532
3.294	26.08337
3.2945	24.06921
3.295	14.80408
3.2955	-20.84656
3.296	-47.8363
3.2965	-58.30994
3.297	-67.27295
3.2975	-74.82605
3.298	-66.16516
3.2985	-56.49719
3.299	-43.40515
3.2995	-27.59399
3.3	-19.13452
3.3005	-3.12195
3.301	8.8623
3.3015	15.60974
3.302	15.81116
3.3025	20.04089
3.303	28.09753
3.3035	30.51453
3.304	25.68054
3.3045	13.99841
3.305	6.14319
3.3055	15.20691
3.306	24.77417
3.3065	40.78674
3.307	50.55542
3.3075	37.7655
3.308	24.47205
3.3085	11.48071
3.309	-1.51062
3.3095	-1.71204
3.31	6.04248
3.3105	22.05505
3.311	23.8678
3.3115	20.84656
3.312	21.14868
3.3125	7.75452
3.313	6.04248
3.3135	1.10779
3.314	6.14319
3.3145	4.33044
3.315	4.83398
3.3155	1.51062
3.316	14.60266
3.3165	8.66089
3.317	-4.02832
3.3175	-5.84106
3.318	-7.15027
3.3185	-7.45239
3.319	-10.87646
3.3195	-15.30762
3.32	-7.95593
3.3205	-13.69629
3.321	-5.53894
3.3215	-5.53894
3.322	-4.63257
3.3225	-6.74744
3.323	-2.71912
3.3235	0.20142
3.324	2.01416
3.3245	6.3446
3.325	14.40125
3.3255	17.01965
3.326	13.19275
3.3265	-15.71045
3.327	-27.6947
3.3275	-31.21948
3.328	-27.89612
3.3285	-33.53577
3.329	-29.60815
3.3295	-27.49329
3.33	-27.09045
3.3305	-22.15576
3.331	-20.04089
3.3315	-8.15735
3.332	-4.33044
3.3325	-4.12903
3.333	-1.61133
3.3335	7.75452
3.334	13.09204
3.3345	16.21399
3.335	23.16284
3.3355	24.87488
3.336	26.28479
3.3365	20.84656
3.337	19.33594
3.3375	25.78125
3.338	36.55701
3.3385	44.21082
3.339	50.45471
3.3395	52.56958
3.34	51.86462
3.3405	34.24072
3.341	26.48621
3.3415	22.15576
3.342	23.96851
3.3425	22.35718
3.343	19.73877
3.3435	17.82532
3.344	5.74036
3.3445	-0.90637
3.345	0.70496
3.3455	-3.62549
3.346	-3.32336
3.3465	-0.10071
3.347	14.30054
3.3475	20.04089
3.348	21.24939
3.3485	22.05505
3.349	23.46497
3.3495	19.23523
3.35	13.99841
3.3505	8.15735
3.351	-4.12903
3.3515	-9.46655
3.352	-16.11328
3.3525	-14.30054
3.353	-15.30762
3.3535	-10.47363
3.354	-8.8623
3.3545	-8.45947
3.355	-10.77576
3.3555	-16.3147
3.356	-16.41541
3.3565	-44.81506
3.357	-68.07861
3.3575	-76.33667
3.358	-71.60339
3.3585	-68.88428
3.359	-66.36658
3.3595	-70.09277
3.36	-57.20215
3.3605	-41.18958
3.361	-29.00391
3.3615	-19.13452
3.362	-8.45947
3.3625	3.22266
3.363	15.81116
3.3635	25.07629
3.364	31.72302
3.3645	21.04797
3.365	16.11328
3.3655	7.25098
3.366	16.81824
3.3665	28.60107
3.367	11.78284
3.3675	-13.99841
3.368	-29.70886
3.3685	-24.06921
3.369	-3.32336
3.3695	-5.33752
3.37	0.80566
3.3705	19.73877
3.371	27.99683
3.3715	33.63647
3.372	39.27612
3.3725	36.05347
3.373	38.47046
3.3735	39.27612
3.374	37.66479
3.3745	32.02515
3.375	25.68054
3.3755	22.45789
3.376	16.41541
3.3765	9.26514
3.377	10.37292
3.3775	3.7262
3.378	1.40991
3.3785	-0.80566
3.379	8.45947
3.3795	7.75452
3.38	17.22107
3.3805	27.99683
3.381	54.0802
3.3815	61.6333
3.382	49.24622
3.3825	38.57117
3.383	27.39258
3.3835	26.78833
3.384	18.93311
3.3845	26.58691
3.385	28.60107
3.3855	23.46497
3.386	35.2478
3.3865	35.95276
3.387	39.47754
3.3875	36.15417
3.388	36.65771
3.3885	30.01099
3.389	25.68054
3.3895	17.92603
3.39	0.50354
3.3905	-12.08496
3.391	-9.36584
3.3915	-4.33044
3.392	2.31628
3.3925	11.17859
3.393	16.3147
3.3935	2.01416
3.394	-6.3446
3.3945	-9.26514
3.395	-11.88354
3.3955	-16.81824
3.396	-21.04797
3.3965	-21.85364
3.397	-18.42957
3.3975	-7.35168
3.398	4.43115
3.3985	4.83398
3.399	17.72461
3.3995	20.1416
3.4	23.46497
3.4005	28.09753
3.401	28.19824
3.4015	25.57983
3.402	17.72461
3.4025	12.78992
3.403	13.29346
3.4035	-10.97717
3.404	-21.14868
3.4045	-32.7301
3.405	-40.68604
3.4055	-42.59949
3.406	-33.23364
3.4065	-24.67346
3.407	-13.797
3.4075	-5.74036
3.408	0.90637
3.4085	8.05664
3.409	11.68213
3.4095	17.01965
3.41	24.57275
3.4105	27.39258
3.411	31.52161
3.4115	26.78833
3.412	24.57275
3.4125	26.48621
3.413	22.15576
3.4135	24.16992
3.414	16.71753
3.4145	21.3501
3.415	14.40125
3.4155	-11.38
3.416	-29.91028
3.4165	-37.16125
3.417	-33.9386
3.4175	-34.74426
3.418	-22.55859
3.4185	-9.36584
3.419	2.41699
3.4195	21.65222
3.42	20.64514
3.4205	22.25647
3.421	26.08337
3.4215	34.34143
3.422	40.78674
3.4225	48.74268
3.423	47.33276
3.4235	44.41223
3.424	34.14001
3.4245	15.60974
3.425	17.32178
3.4255	11.58142
3.426	11.58142
3.4265	6.94885
3.427	-1.40991
3.4275	-9.36584
3.428	-6.3446
3.4285	-11.48071
3.429	-16.3147
3.4295	-17.6239
3.43	-19.83948
3.4305	-20.74585
3.431	-21.14868
3.4315	-24.06921
3.432	-22.96143
3.4325	-18.22815
3.433	-11.78284
3.4335	-5.94177
3.434	-1.61133
3.4345	5.43823
3.435	14.70337
3.4355	23.46497
3.436	29.50745
3.4365	43.90869
3.437	55.79224
3.4375	49.64905
3.438	44.61365
3.4385	31.62231
3.439	12.99133
3.4395	8.8623
3.44	4.73328
3.4405	-0.50354
3.441	10.0708
3.4415	9.46655
3.442	16.51611
3.4425	14.30054
3.443	22.55859
3.4435	30.81665
3.444	24.77417
3.4445	22.86072
3.445	15.40833
3.4455	9.26514
3.446	2.31628
3.4465	-3.32336
3.447	-14.70337
3.4475	-24.37134
3.448	-21.04797
3.4485	-22.96143
3.449	-23.16284
3.4495	-20.84656
3.45	-16.91895
3.4505	-12.68921
3.451	-17.42249
3.4515	-8.45947
3.452	-11.2793
3.4525	-14.60266
3.453	-19.63806
3.4535	-23.76709
3.454	-26.48621
3.4545	-25.27771
3.455	-19.73877
3.4555	-20.54443
3.456	-18.42957
3.4565	-15.1062
3.457	-12.78992
3.4575	2.92053
3.458	20.24231
3.4585	22.96143
3.459	19.83948
3.4595	13.09204
3.46	17.22107
3.4605	10.0708
3.461	11.58142
3.4615	14.60266
3.462	20.74585
3.4625	25.57983
3.463	32.7301
3.4635	41.39099
3.464	38.06763
3.4645	38.47046
3.465	33.83789
3.4655	28.9032
3.466	8.66089
3.4665	-6.74744
3.467	-25.68054
3.4675	-31.21948
3.468	-33.53577
3.4685	-41.08887
3.469	-37.56409
3.4695	-29.30603
3.47	-21.75293
3.4705	-8.8623
3.471	-1.00708
3.4715	3.32336
3.472	8.8623
3.4725	7.04956
3.473	8.66089
3.4735	2.71912
3.474	-2.92053
3.4745	-0.90637
3.475	6.44531
3.4755	12.08496
3.476	21.14868
3.4765	30.11169
3.477	29.70886
3.4775	32.22656
3.478	29.10461
3.4785	26.98975
3.479	32.42798
3.4795	40.78674
3.48	24.27063
3.4805	2.41699
3.481	-6.54602
3.4815	-9.66797
3.482	-5.23682
3.4825	3.22266
3.483	12.48779
3.4835	16.21399
3.484	11.17859
3.4845	11.78284
3.485	16.41541
3.4855	18.32886
3.486	22.15576
3.4865	25.177
3.487	28.9032
3.4875	35.04639
3.488	33.63647
3.4885	34.03931
3.489	1.61133
3.4895	-27.39258
3.49	-40.58533
3.4905	-34.74426
3.491	-26.98975
3.4915	-19.73877
3.492	-8.7616
3.4925	9.66797
3.493	20.64514
3.4935	35.85205
3.494	46.22498
3.4945	55.3894
3.495	55.69153
3.4955	45.72144
3.496	41.18958
3.4965	45.82214
3.497	37.36267
3.4975	37.06055
3.498	25.68054
3.4985	20.54443
3.499	14.19983
3.4995	5.94177
3.5	5.13611
3.5005	-1.3092
3.501	-7.85522
3.5015	-7.45239
3.502	-12.18567
3.5025	-18.53027
3.503	-36.15417
3.5035	-41.18958
3.504	-41.4917
3.5045	-38.26904
3.505	-43.70728
3.5055	-40.98816
3.506	-38.57117
3.5065	-24.27063
3.507	-25.177
3.5075	-21.75293
3.508	-19.94019
3.5085	-22.15576
3.509	-22.96143
3.5095	-13.09204
3.51	-9.46655
3.5105	-2.92053
3.511	11.17859
3.5115	18.93311
3.512	12.5885
3.5125	22.55859
3.513	40.78674
3.5135	54.48303
3.514	79.55933
3.5145	99.70093
3.515	98.29102
3.5155	86.00464
3.516	85.70251
3.5165	74.92676
3.517	70.29419
3.5175	57.9071
3.518	52.8717
3.5185	38.47046
3.519	22.25647
3.5195	8.45947
3.52	2.21558
3.5205	-0.90637
3.521	2.01416
3.5215	-3.42407
3.522	-4.22974
3.5225	-9.46655
3.523	-10.27222
3.5235	-15.40833
3.524	-32.62939
3.5245	-49.0448
3.525	-44.51294
3.5255	-47.23206
3.526	-44.21082
3.5265	-35.2478
3.527	-29.00391
3.5275	-31.72302
3.528	-16.21399
3.5285	-13.69629
3.529	-9.76868
3.5295	0.90637
3.53	20.84656
3.5305	26.48621
3.531	26.08337
3.5315	30.11169
3.532	28.29895
3.5325	32.83081
3.533	34.03931
3.5335	38.26904
3.534	35.75134
3.5345	33.33435
3.535	25.88196
3.5355	20.44373
3.536	16.91895
3.5365	13.59558
3.537	3.02124
3.5375	1.71204
3.538	-1.91345
3.5385	-2.92053
3.539	-2.71912
3.5395	1.40991
3.54	0.20142
3.5405	1.40991
3.541	-0.80566
3.5415	-22.45789
3.542	-59.01489
3.5425	-70.09277
3.543	-62.43896
3.5435	-55.89294
3.544	-42.59949
3.5445	-27.09045
3.545	-18.12744
3.5455	-10.67505
3.546	-4.12903
3.5465	3.8269
3.547	6.14319
3.5475	3.22266
3.548	16.11328
3.5485	19.13452
3.549	22.76001
3.5495	23.8678
3.55	27.39258
3.5505	27.49329
3.551	37.06055
3.5515	43.80798
3.552	39.27612
3.5525	38.16833
3.553	38.77258
3.5535	38.26904
3.554	45.2179
3.5545	45.92285
3.555	48.74268
3.5555	43.60657
3.556	43.90869
3.5565	39.37683
3.557	28.60107
3.5575	30.2124
3.558	23.66638
3.5585	26.98975
3.559	27.09045
3.5595	25.78125
3.56	22.45789
3.5605	22.35718
3.561	24.87488
3.5615	17.32178
3.562	8.66089
3.5625	-0.80566
3.563	-7.85522
3.5635	-17.6239
3.564	-21.75293
3.5645	-24.47205
3.565	-21.55151
3.5655	-18.42957
3.566	-12.18567
3.5665	-12.78992
3.567	-10.37292
3.5675	-10.27222
3.568	-5.63965
3.5685	-7.45239
3.569	-1.40991
3.5695	-2.31628
3.57	-1.2085
3.5705	-1.61133
3.571	-4.02832
3.5715	-9.46655
3.572	-4.53186
3.5725	4.93469
3.573	14.30054
3.5735	21.14868
3.574	21.75293
3.5745	19.33594
3.575	17.72461
3.5755	14.50195
3.576	17.82532
3.5765	16.81824
3.577	14.80408
3.5775	14.70337
3.578	14.60266
3.5785	15.71045
3.579	22.76001
3.5795	20.54443
3.58	17.42249
3.5805	19.94019
3.581	21.14868
3.5815	20.64514
3.582	8.45947
3.5825	4.83398
3.583	8.25806
3.5835	10.57434
3.584	8.25806
3.5845	13.99841
3.585	6.84814
3.5855	1.2085
3.586	9.76868
3.5865	10.37292
3.587	7.75452
3.5875	1.00708
3.588	8.96301
3.5885	2.71912
3.589	5.0354
3.5895	-1.10779
3.59	-0.80566
3.5905	3.52478
3.591	2.21558
3.5915	-0.10071
3.592	-0.40283
3.5925	-4.73328
3.593	-11.38
3.5935	-9.36584
3.594	-10.97717
3.5945	-17.52319
3.595	-19.13452
3.5955	-13.59558
3.596	-14.19983
3.5965	-11.88354
3.597	-9.56726
3.5975	-11.48071
3.598	-7.85522
3.5985	-11.38
3.599	-16.11328
3.5995	-10.97717
3.6	-9.26514
3.6005	-9.86938
3.601	-10.97717
3.6015	-16.21399
3.602	-13.19275
3.6025	-11.2793
3.603	-11.07788
3.6035	-2.01416
3.604	-3.22266
3.6045	2.81982
3.605	-4.43115
3.6055	-10.57434
3.606	-16.3147
3.6065	-11.98425
3.607	-5.63965
3.6075	-7.5531
3.608	-6.74744
3.6085	0.90637
3.609	-0.40283
3.6095	-4.12903
3.61	0.10071
3.6105	8.15735
3.611	12.48779
3.6115	18.53027
3.612	14.80408
3.6125	11.88354
3.613	8.8623
3.6135	7.04956
3.614	12.18567
3.6145	10.57434
3.615	19.43665
3.6155	13.797
3.616	11.38
3.6165	-9.06372
3.617	-23.8678
3.6175	-30.01099
3.618	-31.01807
3.6185	-33.73718
3.619	-32.02515
3.6195	-46.92993
3.62	-60.02197
3.6205	-61.23047
3.621	-71.30127
3.6215	-78.95508
3.622	-76.94092
3.6225	-74.32251
3.623	-72.40906
3.6235	-51.15967
3.624	-20.54443
3.6245	-3.42407
3.625	15.91187
3.6255	22.55859
3.626	33.23364
3.6265	36.05347
3.627	50.2533
3.6275	58.10852
3.628	56.90002
3.6285	66.6687
3.629	67.17224
3.6295	51.26038
3.63	29.30603
3.6305	14.40125
3.631	14.50195
3.6315	18.73169
3.632	36.85913
3.6325	40.78674
3.633	44.61365
3.6335	58.51135
3.634	83.88977
3.6345	91.64429
3.635	88.82446
3.6355	74.62463
3.636	63.64746
3.6365	65.96375
3.637	72.71118
3.6375	75.22888
3.638	63.94958
3.6385	56.39648
3.639	54.38232
3.6395	48.03772
3.64	47.23206
3.6405	38.87329
3.641	34.44214
3.6415	30.41382
3.642	21.3501
3.6425	21.85364
3.643	23.46497
3.6435	16.51611
3.644	15.00549
3.6445	13.29346
3.645	11.48071
3.6455	5.43823
3.646	-3.22266
3.6465	-0.30212
3.647	-5.84106
3.6475	-21.45081
3.648	-29.40674
3.6485	-32.32727
3.649	-32.52869
3.6495	-30.51453
3.65	-21.3501
3.6505	-21.95435
3.651	-10.0708
3.6515	0.30212
3.652	8.96301
3.6525	7.04956
3.653	4.02832
3.6535	-7.25098
3.654	-6.74744
3.6545	-13.19275
3.655	-11.17859
3.6555	-7.15027
3.656	-4.73328
3.6565	-1.40991
3.657	-8.45947
3.6575	-7.15027
3.658	-5.33752
3.6585	-0.30212
3.659	-2.71912
3.6595	-2.81982
3.66	-11.2793
3.6605	-0.70496
3.661	-2.92053
3.6615	-7.15027
3.662	-2.81982
3.6625	-1.91345
3.663	5.33752
3.6635	-31.62231
3.664	-52.16675
3.6645	-54.18091
3.665	-46.82922
3.6655	-35.95276
3.666	-22.15576
3.6665	-0.90637
3.667	18.22815
3.6675	31.82373
3.668	34.64355
3.6685	37.06055
3.669	35.44922
3.6695	39.57825
3.67	35.44922
3.6705	31.62231
3.671	20.24231
3.6715	8.8623
3.672	1.2085
3.6725	-4.83398
3.673	-2.5177
3.6735	3.42407
3.674	5.84106
3.6745	6.44531
3.675	5.43823
3.6755	-2.21558
3.676	-6.04248
3.6765	-10.0708
3.677	-10.27222
3.6775	-15.30762
3.678	-13.09204
3.6785	-1.71204
3.679	11.07788
3.6795	13.39417
3.68	5.43823
3.6805	6.2439
3.681	-1.51062
3.6815	-5.0354
3.682	8.7616
3.6825	15.20691
3.683	36.35559
3.6835	37.56409
3.684	45.62073
3.6845	60.22339
3.685	56.39648
3.6855	34.74426
3.686	-11.2793
3.6865	-32.62939
3.687	-29.91028
3.6875	-21.14868
3.688	-7.95593
3.6885	8.66089
3.689	24.16992
3.6895	27.09045
3.69	25.47913
3.6905	22.96143
3.691	26.58691
3.6915	23.06213
3.692	18.8324
3.6925	15.00549
3.693	4.53186
3.6935	-1.61133
3.694	-11.58142
3.6945	-7.5531
3.695	-0.30212
3.6955	14.09912
3.696	19.33594
3.6965	32.42798
3.697	36.05347
3.6975	41.4917
3.698	41.99524
3.6985	41.69312
3.699	41.89453
3.6995	47.7356
3.7	52.16675
3.7005	55.89294
3.701	60.02197
3.7015	47.23206
3.702	22.76001
3.7025	4.83398
3.703	-6.04248
3.7035	-17.22107
3.704	-26.78833
3.7045	-24.06921
3.705	-20.94727
3.7055	-20.24231
3.706	-12.68921
3.7065	-9.26514
3.707	-10.57434
3.7075	-5.94177
3.708	-12.68921
3.7085	-20.44373
3.709	-23.8678
3.7095	-22.35718
3.71	-20.34302
3.7105	-18.63098
3.711	-24.77417
3.7115	-16.21399
3.712	-5.43823
3.7125	4.73328
3.713	14.90479
3.7135	16.3147
3.714	15.20691
3.7145	17.22107
3.715	19.94019
3.7155	26.08337
3.716	36.65771
3.7165	47.13135
3.717	46.62781
3.7175	45.62073
3.718	40.2832
3.7185	38.67188
3.719	32.12585
3.7195	23.46497
3.72	18.8324
3.7205	14.19983
3.721	10.57434
3.7215	12.89062
3.722	9.56726
3.7225	3.62549
3.723	-0.70496
3.7235	-7.35168
3.724	-11.07788
3.7245	-10.27222
3.725	-13.59558
3.7255	-20.04089
3.726	-20.44373
3.7265	-24.16992
3.727	-26.48621
3.7275	-24.77417
3.728	-18.42957
3.7285	-17.6239
3.729	-10.87646
3.7295	-11.2793
3.73	-11.38
3.7305	-9.46655
3.731	-3.52478
3.7315	-1.61133
3.732	-0.80566
3.7325	3.52478
3.733	4.33044
3.7335	14.19983
3.734	24.27063
3.7345	27.49329
3.735	29.10461
3.7355	23.16284
3.736	23.96851
3.7365	19.33594
3.737	17.72461
3.7375	12.78992
3.738	11.38
3.7385	2.21558
3.739	5.13611
3.7395	9.36584
3.74	5.74036
3.7405	7.15027
3.741	5.0354
3.7415	11.38
3.742	13.59558
3.7425	11.38
3.743	-4.63257
3.7435	-52.67029
3.744	-69.28711
3.7445	-75.73242
3.745	-69.1864
3.7455	-60.22339
3.746	-47.8363
3.7465	-49.85046
3.747	-100.30518
3.7475	-115.00854
3.748	-118.63403
3.7485	-106.24695
3.749	-88.22021
3.7495	-70.09277
3.75	-44.41223
3.7505	-14.80408
3.751	12.08496
3.7515	36.75842
3.752	59.61914
3.7525	84.2926
3.753	101.8158
3.7535	114.80713
3.754	120.54749
3.7545	125.28076
3.755	119.54041
3.7555	95.47119
3.756	68.28003
3.7565	56.39648
3.757	43.80798
3.7575	31.72302
3.758	29.30603
3.7585	3.8269
3.759	-17.01965
3.7595	-28.29895
3.76	-17.22107
3.7605	-12.18567
3.761	-17.32178
3.7615	-8.8623
3.762	-6.94885
3.7625	6.3446
3.763	14.40125
3.7635	27.49329
3.764	26.58691
3.7645	24.37134
3.765	13.29346
3.7655	5.84106
3.766	9.26514
3.7665	5.74036
3.767	-6.04248
3.7675	-8.05664
3.768	-5.23682
3.7685	2.92053
3.769	18.02673
3.7695	36.65771
3.77	62.23755
3.7705	87.11243
3.771	89.93225
3.7715	77.84729
3.772	62.53967
3.7725	47.63489
3.773	37.7655
3.7735	38.974
3.774	39.27612
3.7745	40.2832
3.775	34.14001
3.7755	31.32019
3.776	19.03381
3.7765	9.86938
3.777	3.52478
3.7775	-0.10071
3.778	-6.3446
3.7785	-8.56018
3.779	6.64673
3.7795	3.12195
3.78	0.70496
3.7805	2.01416
3.781	2.31628
3.7815	-6.3446
3.782	-3.62549
3.7825	-7.5531
3.783	-16.11328
3.7835	-29.30603
3.784	-95.5719
3.7845	-145.72449
3.785	-148.64502
3.7855	-141.49475
3.786	-126.69067
3.7865	-118.93616
3.787	-91.94641
3.7875	-57.70569
3.788	-30.31311
3.7885	-8.45947
3.789	15.71045
3.7895	23.56567
3.79	30.2124
3.7905	24.16992
3.791	31.21948
3.7915	32.7301
3.792	37.96692
3.7925	29.40674
3.793	34.54285
3.7935	37.56409
3.794	38.87329
3.7945	50.55542
3.795	51.46179
3.7955	51.05896
3.796	52.771
3.7965	51.15967
3.797	51.15967
3.7975	46.32568
3.798	21.65222
3.7985	0.50354
3.799	-21.3501
3.7995	-39.98108
3.8	-64.151
3.8005	-71.40198
3.801	-70.29419
3.8015	-60.4248
3.802	-48.44055
3.8025	-34.14001
3.803	-19.43665
3.8035	-10.97717
3.804	-2.21558
3.8045	-4.43115
3.805	-3.92761
3.8055	-4.02832
3.806	1.61133
3.8065	11.38
3.807	18.8324
3.8075	27.49329
3.808	27.19116
3.8085	27.79541
3.809	36.75842
3.8095	34.03931
3.81	43.80798
3.8105	48.44055
3.811	50.45471
3.8115	47.53418
3.812	47.8363
3.8125	48.13843
3.813	40.58533
3.8135	35.54993
3.814	33.03223
3.8145	32.93152
3.815	34.54285
3.8155	36.55701
3.816	46.32568
3.8165	42.7002
3.817	39.07471
3.8175	34.54285
3.818	31.32019
3.8185	22.45789
3.819	5.84106
3.8195	-14.80408
3.82	-28.39966
3.8205	-30.91736
3.821	-33.53577
3.8215	-40.58533
3.822	-41.59241
3.8225	-43.90869
3.823	-44.71436
3.8235	-40.88745
3.824	-42.59949
3.8245	-41.79382
3.825	-42.59949
3.8255	-39.37683
3.826	-41.08887
3.8265	-46.72852
3.827	-46.92993
3.8275	-38.974
3.828	-32.42798
3.8285	-12.78992
3.829	4.83398
3.8295	29.91028
3.83	46.32568
3.8305	49.0448
3.831	51.36108
3.8315	52.8717
3.832	62.9425
3.8325	63.24463
3.833	52.97241
3.8335	49.24622
3.834	49.74976
3.8345	43.80798
3.835	40.58533
3.8355	34.44214
3.836	23.46497
3.8365	19.73877
3.837	15.60974
3.8375	12.28638
3.838	11.58142
3.8385	13.29346
3.839	8.15735
3.8395	9.76868
3.84	11.58142
3.8405	20.74585
3.841	15.40833
3.8415	19.94019
3.842	23.8678
3.8425	26.28479
3.843	25.37842
3.8435	-34.24072
3.844	-94.66553
3.8445	-143.60962
3.845	-152.06909
3.8455	-145.72449
3.846	-128.60413
3.8465	-97.28394
3.847	-64.85596
3.8475	-26.08337
3.848	-0.40283
3.8485	26.58691
3.849	50.55542
3.8495	53.97949
3.85	56.49719
3.8505	56.49719
3.851	55.3894
3.8515	46.12427
3.852	36.35559
3.8525	22.6593
3.853	15.1062
3.8535	15.60974
3.854	8.25806
3.8545	15.30762
3.855	30.61523
3.8555	28.09753
3.856	17.22107
3.8565	6.14319
3.857	-23.26355
3.8575	-31.62231
3.858	-37.46338
3.8585	-30.41382
3.859	-12.5885
