Alex_Venditti_Left_2.c3d  



Time(s):	B_L_bicipite(μV):
0	25.37842
0.0005	23.96851
0.001	20.74585
0.0015	16.91895
0.002	15.30762
0.0025	6.84814
0.003	10.0708
0.0035	5.63965
0.004	7.04956
0.0045	4.43115
0.005	6.84814
0.0055	4.02832
0.006	0.70496
0.0065	2.61841
0.007	4.33044
0.0075	2.5177
0.008	-4.63257
0.0085	-7.35168
0.009	-8.7616
0.0095	-13.39417
0.01	-14.40125
0.0105	-11.38
0.011	-15.60974
0.0115	-21.24939
0.012	-19.43665
0.0125	-12.28638
0.013	-12.08496
0.0135	-14.09912
0.014	-8.56018
0.0145	-7.95593
0.015	-9.66797
0.0155	-7.15027
0.016	-15.20691
0.0165	-26.68762
0.017	-37.26196
0.0175	-40.1825
0.018	-34.74426
0.0185	-27.19116
0.019	-15.50903
0.0195	-7.45239
0.02	-0.60425
0.0205	2.5177
0.021	6.64673
0.0215	12.08496
0.022	19.53735
0.0225	22.15576
0.023	28.39966
0.0235	29.50745
0.024	36.35559
0.0245	34.54285
0.025	41.59241
0.0255	39.17542
0.026	34.64355
0.0265	31.4209
0.027	30.81665
0.0275	27.09045
0.028	20.34302
0.0285	17.12036
0.029	17.52319
0.0295	12.68921
0.03	10.97717
0.0305	8.35876
0.031	7.5531
0.0315	9.06372
0.032	9.16443
0.0325	5.94177
0.033	5.33752
0.0335	3.62549
0.034	4.12903
0.0345	10.97717
0.035	6.64673
0.0355	3.8269
0.036	4.53186
0.0365	2.5177
0.037	2.81982
0.0375	0.40283
0.038	0.10071
0.0385	-5.0354
0.039	2.5177
0.0395	-1.40991
0.04	-7.25098
0.0405	-5.63965
0.041	-4.43115
0.0415	-0.60425
0.042	-1.40991
0.0425	-1.3092
0.043	-1.00708
0.0435	-2.92053
0.044	1.40991
0.0445	0.50354
0.045	-1.10779
0.0455	2.71912
0.046	-1.00708
0.0465	8.96301
0.047	8.96301
0.0475	3.42407
0.048	4.63257
0.0485	4.43115
0.049	6.64673
0.0495	3.52478
0.05	4.53186
0.0505	6.3446
0.051	7.5531
0.0515	9.66797
0.052	10.17151
0.0525	8.45947
0.053	7.25098
0.0535	1.00708
0.054	5.94177
0.0545	1.51062
0.055	2.41699
0.0555	11.2793
0.056	5.84106
0.0565	7.65381
0.057	-1.10779
0.0575	4.63257
0.058	2.92053
0.0585	1.10779
0.059	-0.20142
0.0595	1.91345
0.06	-0.70496
0.0605	6.2439
0.061	-0.30212
0.0615	3.42407
0.062	0.70496
0.0625	4.02832
0.063	0.80566
0.0635	-1.51062
0.064	-4.22974
0.0645	-0.40283
0.065	-6.04248
0.0655	-2.41699
0.066	-2.41699
0.0665	2.11487
0.067	0
0.0675	0.10071
0.068	-3.22266
0.0685	0.60425
0.069	3.7262
0.0695	4.93469
0.07	0.50354
0.0705	1.00708
0.071	0.60425
0.0715	0.20142
0.072	3.92761
0.0725	3.32336
0.073	9.76868
0.0735	10.97717
0.074	2.71912
0.0745	0.60425
0.075	4.02832
0.0755	5.13611
0.076	2.11487
0.0765	4.22974
0.077	10.67505
0.0775	10.57434
0.078	12.99133
0.0785	12.99133
0.079	7.5531
0.0795	12.89062
0.08	9.36584
0.0805	7.15027
0.081	6.94885
0.0815	11.68213
0.082	6.94885
0.0825	10.87646
0.083	7.35168
0.0835	7.85522
0.084	6.3446
0.0845	-0.20142
0.085	3.42407
0.0855	9.56726
0.086	9.56726
0.0865	3.92761
0.087	8.56018
0.0875	10.37292
0.088	12.28638
0.0885	11.78284
0.089	14.90479
0.0895	7.35168
0.09	8.66089
0.0905	6.94885
0.091	6.94885
0.0915	3.8269
0.092	5.53894
0.0925	8.8623
0.093	5.23682
0.0935	10.57434
0.094	5.53894
0.0945	5.0354
0.095	3.7262
0.0955	6.74744
0.096	6.84814
0.0965	6.14319
0.097	3.92761
0.0975	0.30212
0.098	4.93469
0.0985	3.7262
0.099	4.12903
0.0995	-1.51062
0.1	1.91345
0.1005	-1.10779
0.101	4.63257
0.1015	3.8269
0.102	10.97717
0.1025	3.12195
0.103	4.43115
0.1035	9.26514
0.104	14.09912
0.1045	12.68921
0.105	15.71045
0.1055	12.28638
0.106	10.47363
0.1065	11.38
0.107	10.97717
0.1075	12.38708
0.108	9.46655
0.1085	11.48071
0.109	11.88354
0.1095	16.81824
0.11	12.48779
0.1105	17.82532
0.111	16.11328
0.1115	18.8324
0.112	13.29346
0.1125	19.43665
0.113	20.64514
0.1135	13.29346
0.114	17.42249
0.1145	15.00549
0.115	22.86072
0.1155	21.95435
0.116	22.55859
0.1165	20.84656
0.117	24.97559
0.1175	20.74585
0.118	25.98267
0.1185	11.88354
0.119	4.93469
0.1195	-1.71204
0.12	-6.74744
0.1205	-24.37134
0.121	-39.77966
0.1215	-40.58533
0.122	-51.76392
0.1225	-49.74976
0.123	-41.59241
0.1235	-40.78674
0.124	-27.49329
0.1245	-11.68213
0.125	5.0354
0.1255	10.37292
0.126	20.94727
0.1265	29.60815
0.127	40.38391
0.1275	44.31152
0.128	37.96692
0.1285	38.87329
0.129	38.36975
0.1295	30.11169
0.13	20.24231
0.1305	18.53027
0.131	16.81824
0.1315	15.1062
0.132	9.56726
0.1325	-1.40991
0.133	-10.77576
0.1335	-15.60974
0.134	-19.13452
0.1345	-22.05505
0.135	-22.35718
0.1355	-19.53735
0.136	-18.53027
0.1365	-22.76001
0.137	-18.8324
0.1375	-24.67346
0.138	-22.15576
0.1385	-19.94019
0.139	-14.90479
0.1395	-27.39258
0.14	-52.8717
0.1405	-73.71826
0.141	-73.31543
0.1415	-64.55383
0.142	-50.45471
0.1425	-28.39966
0.143	-27.6947
0.1435	-19.23523
0.144	-9.36584
0.1445	9.56726
0.145	24.27063
0.1455	44.0094
0.146	55.18799
0.1465	72.00623
0.147	71.50269
0.1475	84.2926
0.148	88.22021
0.1485	92.95349
0.149	95.67261
0.1495	94.46411
0.15	86.50818
0.1505	83.08411
0.151	70.89844
0.1515	59.82056
0.152	41.89453
0.1525	33.23364
0.153	19.33594
0.1535	11.17859
0.154	11.38
0.1545	8.96301
0.155	4.43115
0.1555	-3.12195
0.156	4.02832
0.1565	6.44531
0.157	0.40283
0.1575	-0.30212
0.158	0.60425
0.1585	4.73328
0.159	6.2439
0.1595	12.5885
0.16	15.30762
0.1605	2.61841
0.161	-10.97717
0.1615	-15.71045
0.162	-18.32886
0.1625	-13.39417
0.163	-15.00549
0.1635	-12.78992
0.164	-8.15735
0.1645	-6.84814
0.165	-10.17151
0.1655	-6.04248
0.166	-1.10779
0.1665	5.74036
0.167	11.07788
0.1675	11.48071
0.168	13.69629
0.1685	17.01965
0.169	14.30054
0.1695	13.69629
0.17	8.7616
0.1705	10.17151
0.171	12.28638
0.1715	14.60266
0.172	13.69629
0.1725	19.23523
0.173	18.42957
0.1735	17.22107
0.174	17.6239
0.1745	13.29346
0.175	12.18567
0.1755	11.58142
0.176	17.82532
0.1765	22.15576
0.177	22.15576
0.1775	16.11328
0.178	9.86938
0.1785	9.06372
0.179	6.2439
0.1795	-21.95435
0.18	-30.71594
0.1805	-34.74426
0.181	-30.2124
0.1815	-28.39966
0.182	-29.50745
0.1825	-33.03223
0.183	-43.50586
0.1835	-42.29736
0.184	-41.59241
0.1845	-38.26904
0.185	-31.21948
0.1855	-24.87488
0.186	-27.29187
0.1865	-22.15576
0.187	-18.8324
0.1875	-11.48071
0.188	-3.02124
0.1885	-2.21558
0.189	0.80566
0.1895	6.2439
0.19	6.04248
0.1905	1.40991
0.191	3.02124
0.1915	5.23682
0.192	6.2439
0.1925	7.65381
0.193	1.61133
0.1935	6.64673
0.194	5.23682
0.1945	10.27222
0.195	8.56018
0.1955	13.39417
0.196	12.18567
0.1965	9.26514
0.197	8.7616
0.1975	12.08496
0.198	1.10779
0.1985	-14.80408
0.199	-22.15576
0.1995	-23.66638
0.2	-23.96851
0.2005	-29.91028
0.201	-26.18408
0.2015	-24.57275
0.202	-17.82532
0.2025	-8.66089
0.203	5.23682
0.2035	10.67505
0.204	13.49487
0.2045	24.97559
0.205	31.32019
0.2055	29.91028
0.206	32.22656
0.2065	35.54993
0.207	36.85913
0.2075	42.49878
0.208	43.50586
0.2085	37.7655
0.209	38.77258
0.2095	39.88037
0.21	35.2478
0.2105	37.86621
0.211	37.16125
0.2115	33.43506
0.212	28.19824
0.2125	28.29895
0.213	26.48621
0.2135	27.89612
0.214	26.48621
0.2145	26.48621
0.215	23.16284
0.2155	18.93311
0.216	21.3501
0.2165	11.38
0.217	13.797
0.2175	6.64673
0.218	0.80566
0.2185	3.12195
0.219	0
0.2195	-5.53894
0.22	-3.12195
0.2205	-2.71912
0.221	-0.90637
0.2215	-1.3092
0.222	3.22266
0.2225	8.15735
0.223	3.12195
0.2235	-3.7262
0.224	-2.61841
0.2245	-0.90637
0.225	10.37292
0.2255	10.67505
0.226	10.27222
0.2265	18.42957
0.227	12.5885
0.2275	15.20691
0.228	21.65222
0.2285	25.68054
0.229	28.19824
0.2295	24.06921
0.23	23.46497
0.2305	32.62939
0.231	25.68054
0.2315	30.51453
0.232	27.89612
0.2325	25.98267
0.233	28.09753
0.2335	21.24939
0.234	17.6239
0.2345	21.55151
0.235	15.30762
0.2355	8.56018
0.236	3.7262
0.2365	1.91345
0.237	-7.5531
0.2375	-12.89062
0.238	-21.75293
0.2385	-23.16284
0.239	-24.27063
0.2395	-20.1416
0.24	-24.67346
0.2405	-25.47913
0.241	-17.6239
0.2415	-22.96143
0.242	-21.14868
0.2425	-25.98267
0.243	-30.71594
0.2435	-27.49329
0.244	-27.99683
0.2445	-27.49329
0.245	-29.60815
0.2455	-28.39966
0.246	-28.60107
0.2465	-22.15576
0.247	-21.85364
0.2475	-21.85364
0.248	-21.55151
0.2485	-15.1062
0.249	-10.87646
0.2495	-6.84814
0.25	-7.25098
0.2505	-1.2085
0.251	6.14319
0.2515	1.81274
0.252	6.94885
0.2525	9.26514
0.253	11.48071
0.2535	12.38708
0.254	18.32886
0.2545	19.03381
0.255	19.23523
0.2555	23.16284
0.256	24.06921
0.2565	18.53027
0.257	16.11328
0.2575	14.50195
0.258	9.56726
0.2585	12.48779
0.259	9.36584
0.2595	11.68213
0.26	6.14319
0.2605	10.37292
0.261	17.6239
0.2615	13.59558
0.262	18.22815
0.2625	12.78992
0.263	2.92053
0.2635	8.96301
0.264	5.74036
0.2645	5.43823
0.265	-4.73328
0.2655	-4.22974
0.266	-2.5177
0.2665	-3.22266
0.267	-1.91345
0.2675	2.31628
0.268	6.04248
0.2685	7.85522
0.269	1.81274
0.2695	3.62549
0.27	4.43115
0.2705	1.51062
0.271	1.00708
0.2715	-1.10779
0.272	0.60425
0.2725	-1.00708
0.273	-9.66797
0.2735	-12.68921
0.274	-2.41699
0.2745	-3.7262
0.275	-10.37292
0.2755	0.20142
0.276	-1.61133
0.2765	-1.00708
0.277	4.53186
0.2775	7.35168
0.278	6.74744
0.2785	7.75452
0.279	8.25806
0.2795	6.14319
0.28	14.70337
0.2805	11.68213
0.281	9.16443
0.2815	13.797
0.282	9.36584
0.2825	11.07788
0.283	12.38708
0.2835	10.97717
0.284	10.37292
0.2845	13.797
0.285	5.33752
0.2855	9.26514
0.286	5.13611
0.2865	9.56726
0.287	4.53186
0.2875	0.40283
0.288	-0.30212
0.2885	0.80566
0.289	-0.60425
0.2895	-1.00708
0.29	2.11487
0.2905	1.91345
0.291	2.01416
0.2915	1.3092
0.292	-1.00708
0.2925	4.12903
0.293	7.75452
0.2935	11.88354
0.294	5.23682
0.2945	0.70496
0.295	2.21558
0.2955	4.33044
0.296	12.18567
0.2965	10.17151
0.297	7.85522
0.2975	12.18567
0.298	18.02673
0.2985	20.84656
0.299	17.82532
0.2995	14.70337
0.3	10.77576
0.3005	13.99841
0.301	18.12744
0.3015	18.42957
0.302	21.75293
0.3025	24.16992
0.303	18.8324
0.3035	18.32886
0.304	15.91187
0.3045	13.797
0.305	8.56018
0.3055	8.56018
0.306	10.0708
0.3065	12.18567
0.307	8.25806
0.3075	6.94885
0.308	-1.2085
0.3085	-6.04248
0.309	-1.91345
0.3095	-5.94177
0.31	-6.94885
0.3105	-11.2793
0.311	-18.8324
0.3115	-21.75293
0.312	-21.3501
0.3125	-28.19824
0.313	-29.30603
0.3135	-32.93152
0.314	-33.63647
0.3145	-28.9032
0.315	-25.37842
0.3155	-19.94019
0.316	-16.61682
0.3165	-17.01965
0.317	-16.61682
0.3175	-12.99133
0.318	-7.35168
0.3185	-10.67505
0.319	-4.63257
0.3195	-8.7616
0.32	-1.91345
0.3205	-3.8269
0.321	-4.33044
0.3215	-3.8269
0.322	-0.50354
0.3225	-0.40283
0.323	2.61841
0.3235	5.63965
0.324	6.84814
0.3245	4.63257
0.325	6.54602
0.3255	1.3092
0.326	1.3092
0.3265	8.45947
0.327	6.64673
0.3275	8.8623
0.328	9.86938
0.3285	15.81116
0.329	14.90479
0.3295	18.02673
0.33	15.1062
0.3305	16.41541
0.331	19.94019
0.3315	11.78284
0.332	9.36584
0.3325	19.13452
0.333	16.11328
0.3335	14.09912
0.334	15.40833
0.3345	14.70337
0.335	16.51611
0.3355	15.20691
0.336	18.73169
0.3365	17.72461
0.337	18.8324
0.3375	12.38708
0.338	17.32178
0.3385	17.52319
0.339	11.68213
0.3395	12.28638
0.34	13.69629
0.3405	10.37292
0.341	4.93469
0.3415	5.84106
0.342	4.22974
0.3425	6.14319
0.343	6.2439
0.3435	4.83398
0.344	7.45239
0.3445	6.64673
0.345	8.35876
0.3455	4.33044
0.346	4.12903
0.3465	5.84106
0.347	7.25098
0.3475	11.58142
0.348	10.87646
0.3485	9.46655
0.349	5.53894
0.3495	3.02124
0.35	2.61841
0.3505	5.53894
0.351	2.5177
0.3515	-1.91345
0.352	-2.92053
0.3525	1.00708
0.353	-1.91345
0.3535	-1.10779
0.354	5.84106
0.3545	2.01416
0.355	1.00708
0.3555	2.71912
0.356	-5.0354
0.3565	-3.7262
0.357	-2.92053
0.3575	0.60425
0.358	4.22974
0.3585	1.61133
0.359	1.71204
0.3595	0.80566
0.36	3.32336
0.3605	0.10071
0.361	1.61133
0.3615	3.8269
0.362	4.12903
0.3625	6.94885
0.363	8.8623
0.3635	6.44531
0.364	3.8269
0.3645	5.74036
0.365	7.25098
0.3655	9.76868
0.366	12.5885
0.3665	7.45239
0.367	7.04956
0.3675	5.84106
0.368	4.43115
0.3685	-2.5177
0.369	-1.3092
0.3695	-0.70496
0.37	0.50354
0.3705	-0.70496
0.371	-1.00708
0.3715	1.00708
0.372	0.20142
0.3725	-3.22266
0.373	1.40991
0.3735	2.81982
0.374	4.93469
0.3745	8.05664
0.375	4.83398
0.3755	7.25098
0.376	8.45947
0.3765	4.43115
0.377	12.5885
0.3775	3.12195
0.378	1.00708
0.3785	6.64673
0.379	6.74744
0.3795	5.23682
0.38	4.73328
0.3805	10.0708
0.381	9.26514
0.3815	9.46655
0.382	3.02124
0.3825	-0.40283
0.383	0.10071
0.3835	-2.01416
0.384	-1.3092
0.3845	1.51062
0.385	1.91345
0.3855	1.40991
0.386	2.5177
0.3865	12.5885
0.387	17.01965
0.3875	10.97717
0.388	19.43665
0.3885	19.13452
0.389	23.96851
0.3895	26.08337
0.39	24.57275
0.3905	27.59399
0.391	29.40674
0.3915	26.88904
0.392	29.60815
0.3925	31.01807
0.393	25.37842
0.3935	27.89612
0.394	24.97559
0.3945	22.6593
0.395	24.27063
0.3955	20.64514
0.396	18.63098
0.3965	12.38708
0.397	10.27222
0.3975	9.97009
0.398	2.11487
0.3985	-3.7262
0.399	-8.8623
0.3995	-12.38708
0.4	-21.04797
0.4005	-25.07629
0.401	-27.59399
0.4015	-37.7655
0.402	-35.85205
0.4025	-34.24072
0.403	-29.80957
0.4035	-32.02515
0.404	-29.30603
0.4045	-26.68762
0.405	-28.29895
0.4055	-19.73877
0.406	-23.56567
0.4065	-18.53027
0.407	-13.29346
0.4075	-15.30762
0.408	-17.6239
0.4085	-11.58142
0.409	-10.67505
0.4095	-12.99133
0.41	-7.75452
0.4105	-11.78284
0.411	-1.3092
0.4115	-1.40991
0.412	3.42407
0.4125	1.00708
0.413	3.22266
0.4135	-2.21558
0.414	-2.5177
0.4145	0.40283
0.415	-0.10071
0.4155	1.3092
0.416	0.70496
0.4165	-1.3092
0.417	2.11487
0.4175	4.33044
0.418	-2.21558
0.4185	5.33752
0.419	-2.61841
0.4195	0.70496
0.42	3.7262
0.4205	10.57434
0.421	4.93469
0.4215	4.83398
0.422	4.53186
0.4225	4.02832
0.423	3.62549
0.4235	5.0354
0.424	5.53894
0.4245	3.7262
0.425	6.3446
0.4255	13.29346
0.426	14.90479
0.4265	7.35168
0.427	8.8623
0.4275	8.7616
0.428	10.67505
0.4285	10.17151
0.429	13.797
0.4295	12.99133
0.43	10.87646
0.4305	9.76868
0.431	8.05664
0.4315	5.13611
0.432	6.04248
0.4325	2.61841
0.433	6.64673
0.4335	7.35168
0.434	2.5177
0.4345	3.22266
0.435	9.26514
0.4355	7.5531
0.436	7.45239
0.4365	8.96301
0.437	10.97717
0.4375	8.7616
0.438	9.86938
0.4385	7.95593
0.439	8.25806
0.4395	1.81274
0.44	6.3446
0.4405	-0.40283
0.441	7.15027
0.4415	5.33752
0.442	-1.91345
0.4425	3.8269
0.443	-0.70496
0.4435	1.81274
0.444	4.12903
0.4445	0.60425
0.445	-5.43823
0.4455	-1.81274
0.446	3.42407
0.4465	-1.71204
0.447	2.21558
0.4475	-1.10779
0.448	0.20142
0.4485	6.64673
0.449	1.3092
0.4495	4.43115
0.45	9.86938
0.4505	4.83398
0.451	8.8623
0.4515	11.68213
0.452	5.13611
0.4525	8.35876
0.453	7.35168
0.4535	3.52478
0.454	4.83398
0.4545	5.84106
0.455	8.66089
0.4555	10.67505
0.456	9.46655
0.4565	3.62549
0.457	7.35168
0.4575	4.83398
0.458	4.63257
0.4585	6.04248
0.459	4.93469
0.4595	3.42407
0.46	-0.60425
0.4605	2.5177
0.461	5.33752
0.4615	7.85522
0.462	3.32336
0.4625	7.5531
0.463	0.40283
0.4635	3.62549
0.464	2.01416
0.4645	2.11487
0.465	4.12903
0.4655	-1.81274
0.466	1.00708
0.4665	-1.81274
0.467	0.90637
0.4675	-1.40991
0.468	1.71204
0.4685	5.63965
0.469	2.5177
0.4695	7.45239
0.47	6.54602
0.4705	10.37292
0.471	9.97009
0.4715	7.5531
0.472	10.27222
0.4725	10.37292
0.473	10.57434
0.4735	6.14319
0.474	7.75452
0.4745	3.02124
0.475	2.11487
0.4755	-1.10779
0.476	2.61841
0.4765	2.21558
0.477	6.04248
0.4775	5.53894
0.478	5.0354
0.4785	7.25098
0.479	9.97009
0.4795	10.0708
0.48	6.2439
0.4805	8.15735
0.481	4.12903
0.4815	-1.40991
0.482	1.51062
0.4825	4.12903
0.483	7.04956
0.4835	8.7616
0.484	3.92761
0.4845	7.15027
0.485	11.68213
0.4855	8.66089
0.486	8.15735
0.4865	4.63257
0.487	6.14319
0.4875	9.66797
0.488	1.71204
0.4885	6.64673
0.489	6.14319
0.4895	5.63965
0.49	12.48779
0.4905	7.45239
0.491	10.57434
0.4915	8.66089
0.492	6.54602
0.4925	5.23682
0.493	5.74036
0.4935	0.60425
0.494	2.21558
0.4945	-5.13611
0.495	-3.12195
0.4955	-4.53186
0.496	-1.3092
0.4965	-5.0354
0.497	-2.21558
0.4975	0.40283
0.498	0.30212
0.4985	6.84814
0.499	13.09204
0.4995	14.19983
0.5	8.66089
0.5005	7.65381
0.501	5.33752
0.5015	4.83398
0.502	6.64673
0.5025	0.80566
0.503	1.71204
0.5035	3.7262
0.504	0.20142
0.5045	4.02832
0.505	6.54602
0.5055	3.62549
0.506	3.62549
0.5065	7.5531
0.507	9.86938
0.5075	10.97717
0.508	3.92761
0.5085	4.43115
0.509	5.53894
0.5095	1.40991
0.51	0.80566
0.5105	2.5177
0.511	0.70496
0.5115	-0.80566
0.512	3.52478
0.5125	-1.40991
0.513	-1.10779
0.5135	1.3092
0.514	4.73328
0.5145	0.40283
0.515	1.51062
0.5155	1.2085
0.516	1.71204
0.5165	4.33044
0.517	5.84106
0.5175	9.06372
0.518	3.62549
0.5185	0.30212
0.519	0
0.5195	-1.61133
0.52	1.81274
0.5205	4.83398
0.521	7.65381
0.5215	5.74036
0.522	6.94885
0.5225	8.56018
0.523	3.12195
0.5235	9.36584
0.524	3.92761
0.5245	5.13611
0.525	4.33044
0.5255	9.46655
0.526	6.14319
0.5265	3.42407
0.527	6.14319
0.5275	12.78992
0.528	10.77576
0.5285	2.61841
0.529	8.25806
0.5295	5.94177
0.53	7.25098
0.5305	0
0.531	3.92761
0.5315	6.04248
0.532	4.93469
0.5325	6.04248
0.533	5.33752
0.5335	8.7616
0.534	10.47363
0.5345	0.30212
0.535	-2.21558
0.5355	-6.54602
0.536	-1.2085
0.5365	-2.92053
0.537	2.11487
0.5375	8.96301
0.538	13.99841
0.5385	17.01965
0.539	17.72461
0.5395	18.53027
0.54	19.23523
0.5405	14.09912
0.541	11.88354
0.5415	13.59558
0.542	7.5531
0.5425	7.04956
0.543	12.5885
0.5435	9.46655
0.544	7.65381
0.5445	9.36584
0.545	11.98425
0.5455	13.69629
0.546	10.37292
0.5465	8.35876
0.547	4.83398
0.5475	7.15027
0.548	6.14319
0.5485	5.13611
0.549	2.41699
0.5495	-2.92053
0.55	-6.54602
0.5505	-5.33752
0.551	-6.2439
0.5515	-8.7616
0.552	-5.33752
0.5525	0.30212
0.553	7.95593
0.5535	8.8623
0.554	6.44531
0.5545	1.40991
0.555	7.25098
0.5555	0.90637
0.556	-2.61841
0.5565	-2.01416
0.557	2.92053
0.5575	-0.10071
0.558	4.02832
0.5585	1.91345
0.559	4.73328
0.5595	9.06372
0.56	7.35168
0.5605	6.64673
0.561	6.3446
0.5615	4.93469
0.562	0.70496
0.5625	1.91345
0.563	-4.63257
0.5635	-4.63257
0.564	-4.83398
0.5645	1.40991
0.565	-5.53894
0.5655	-8.96301
0.566	-7.95593
0.5665	-5.43823
0.567	-1.3092
0.5675	3.62549
0.568	7.04956
0.5685	9.97009
0.569	8.15735
0.5695	8.45947
0.57	9.97009
0.5705	5.23682
0.571	7.75452
0.5715	2.41699
0.572	8.25806
0.5725	5.63965
0.573	10.87646
0.5735	8.96301
0.574	7.95593
0.5745	5.23682
0.575	4.73328
0.5755	3.7262
0.576	7.85522
0.5765	2.92053
0.577	-1.10779
0.5775	-0.50354
0.578	-2.81982
0.5785	0.40283
0.579	-0.80566
0.5795	0.70496
0.58	-2.31628
0.5805	-2.61841
0.581	-1.91345
0.5815	-5.84106
0.582	-5.84106
0.5825	-2.31628
0.583	2.41699
0.5835	-1.40991
0.584	-4.02832
0.5845	0
0.585	4.12903
0.5855	12.18567
0.586	9.06372
0.5865	15.50903
0.587	14.19983
0.5875	9.36584
0.588	9.06372
0.5885	1.71204
0.589	0.60425
0.5895	3.92761
0.59	5.33752
0.5905	7.25098
0.591	5.0354
0.5915	8.35876
0.592	0.80566
0.5925	6.94885
0.593	1.71204
0.5935	5.94177
0.594	6.54602
0.5945	3.22266
0.595	7.85522
0.5955	2.61841
0.596	6.94885
0.5965	9.06372
0.597	5.33752
0.5975	8.45947
0.598	4.22974
0.5985	4.93469
0.599	10.97717
0.5995	9.36584
0.6	7.15027
0.6005	12.18567
0.601	9.46655
0.6015	9.97009
0.602	8.45947
0.6025	5.0354
0.603	4.73328
0.6035	3.42407
0.604	2.5177
0.6045	1.91345
0.605	0.30212
0.6055	-0.20142
0.606	4.53186
0.6065	4.33044
0.607	1.91345
0.6075	7.75452
0.608	3.32336
0.6085	1.81274
0.609	3.92761
0.6095	2.71912
0.61	2.92053
0.6105	1.51062
0.611	-0.60425
0.6115	-1.91345
0.612	-4.02832
0.6125	-2.5177
0.613	-2.92053
0.6135	-4.63257
0.614	-9.16443
0.6145	-6.74744
0.615	1.71204
0.6155	-0.50354
0.616	-0.70496
0.6165	-7.95593
0.617	-7.65381
0.6175	-3.32336
0.618	-8.25806
0.6185	-2.31628
0.619	-3.92761
0.6195	-1.40991
0.62	3.92761
0.6205	4.93469
0.621	-2.11487
0.6215	0.70496
0.622	-0.30212
0.6225	-3.52478
0.623	0
0.6235	-0.60425
0.624	-0.60425
0.6245	-1.71204
0.625	-4.63257
0.6255	2.41699
0.626	-3.42407
0.6265	-0.60425
0.627	-2.41699
0.6275	-2.92053
0.628	3.32336
0.6285	2.11487
0.629	0.10071
0.6295	1.71204
0.63	2.92053
0.6305	3.22266
0.631	7.95593
0.6315	12.89062
0.632	12.18567
0.6325	11.2793
0.633	10.67505
0.6335	14.80408
0.634	18.63098
0.6345	19.53735
0.635	19.13452
0.6355	17.6239
0.636	19.73877
0.6365	18.02673
0.637	21.14868
0.6375	19.63806
0.638	9.16443
0.6385	16.41541
0.639	18.02673
0.6395	8.96301
0.64	13.797
0.6405	15.30762
0.641	7.45239
0.6415	-2.71912
0.642	-0.50354
0.6425	0.90637
0.643	-4.63257
0.6435	4.22974
0.644	3.7262
0.6445	5.63965
0.645	7.15027
0.6455	3.92761
0.646	6.3446
0.6465	4.93469
0.647	1.91345
0.6475	2.31628
0.648	6.74744
0.6485	-0.60425
0.649	-0.40283
0.6495	3.02124
0.65	15.1062
0.6505	15.91187
0.651	11.78284
0.6515	11.2793
0.652	7.45239
0.6525	2.21558
0.653	4.22974
0.6535	8.15735
0.654	0.50354
0.6545	-0.20142
0.655	1.71204
0.6555	2.5177
0.656	-0.20142
0.6565	0.70496
0.657	4.63257
0.6575	13.99841
0.658	8.45947
0.6585	10.57434
0.659	9.16443
0.6595	7.95593
0.66	7.75452
0.6605	9.26514
0.661	11.58142
0.6615	6.3446
0.662	3.12195
0.6625	1.2085
0.663	1.61133
0.6635	6.54602
0.664	5.13611
0.6645	7.35168
0.665	3.42407
0.6655	8.15735
0.666	5.33752
0.6665	6.64673
0.667	4.83398
0.6675	1.2085
0.668	5.84106
0.6685	9.46655
0.669	5.84106
0.6695	5.63965
0.67	4.73328
0.6705	7.65381
0.671	12.99133
0.6715	8.45947
0.672	12.78992
0.6725	5.84106
0.673	8.8623
0.6735	4.12903
0.674	6.44531
0.6745	9.97009
0.675	9.56726
0.6755	12.5885
0.676	9.97009
0.6765	10.0708
0.677	10.77576
0.6775	11.2793
0.678	10.47363
0.6785	4.53186
0.679	5.84106
0.6795	10.37292
0.68	10.87646
0.6805	13.59558
0.681	16.3147
0.6815	9.16443
0.682	2.31628
0.6825	3.22266
0.683	-1.61133
0.6835	-0.80566
0.684	3.22266
0.6845	-4.63257
0.685	-6.3446
0.6855	-9.97009
0.686	-3.7262
0.6865	-0.50354
0.687	-1.61133
0.6875	-1.00708
0.688	2.92053
0.6885	5.23682
0.689	5.84106
0.6895	2.41699
0.69	-0.20142
0.6905	4.73328
0.691	3.62549
0.6915	6.44531
0.692	12.68921
0.6925	16.3147
0.693	18.32886
0.6935	12.89062
0.694	11.98425
0.6945	12.48779
0.695	11.98425
0.6955	8.8623
0.696	8.15735
0.6965	7.25098
0.697	5.0354
0.6975	5.43823
0.698	0.40283
0.6985	9.56726
0.699	7.15027
0.6995	3.52478
0.7	1.81274
0.7005	4.53186
0.701	1.40991
0.7015	1.81274
0.702	3.8269
0.7025	1.51062
0.703	5.94177
0.7035	6.04248
0.704	6.74744
0.7045	5.94177
0.705	9.56726
0.7055	2.01416
0.706	2.92053
0.7065	1.40991
0.707	12.78992
0.7075	14.30054
0.708	16.51611
0.7085	16.01257
0.709	12.28638
0.7095	1.91345
0.71	4.43115
0.7105	8.05664
0.711	4.12903
0.7115	-2.61841
0.712	-0.20142
0.7125	-6.74744
0.713	-4.43115
0.7135	-5.74036
0.714	1.71204
0.7145	3.52478
0.715	9.36584
0.7155	4.02832
0.716	9.26514
0.7165	4.43115
0.717	6.64673
0.7175	2.5177
0.718	4.02832
0.7185	8.7616
0.719	7.45239
0.7195	7.35168
0.72	9.66797
0.7205	0.60425
0.721	3.7262
0.7215	2.11487
0.722	2.31628
0.7225	7.65381
0.723	7.45239
0.7235	6.2439
0.724	6.44531
0.7245	5.43823
0.725	4.12903
0.7255	4.43115
0.726	7.95593
0.7265	1.71204
0.727	7.35168
0.7275	4.63257
0.728	3.22266
0.7285	4.83398
0.729	2.5177
0.7295	5.23682
0.73	6.04248
0.7305	0.70496
0.731	-0.10071
0.7315	-1.51062
0.732	-1.91345
0.7325	-2.61841
0.733	-0.10071
0.7335	-3.8269
0.734	-2.41699
0.7345	0.20142
0.735	-1.61133
0.7355	-3.32336
0.736	-2.61841
0.7365	-1.10779
0.737	-0.20142
0.7375	1.10779
0.738	2.11487
0.7385	2.41699
0.739	7.45239
0.7395	8.66089
0.74	4.63257
0.7405	6.14319
0.741	9.76868
0.7415	1.71204
0.742	4.02832
0.7425	6.84814
0.743	10.77576
0.7435	7.65381
0.744	11.17859
0.7445	5.53894
0.745	10.37292
0.7455	13.29346
0.746	13.69629
0.7465	6.54602
0.747	11.58142
0.7475	17.72461
0.748	13.09204
0.7485	9.66797
0.749	6.74744
0.7495	5.0354
0.75	3.62549
0.7505	3.02124
0.751	4.93469
0.7515	1.71204
0.752	5.74036
0.7525	5.43823
0.753	-2.92053
0.7535	0.90637
0.754	6.54602
0.7545	0.90637
0.755	4.63257
0.7555	3.42407
0.756	5.74036
0.7565	7.04956
0.757	9.46655
0.7575	8.66089
0.758	9.46655
0.7585	4.83398
0.759	-0.20142
0.7595	5.53894
0.76	-2.11487
0.7605	-0.40283
0.761	0.40283
0.7615	1.2085
0.762	-2.71912
0.7625	0.40283
0.763	0.10071
0.7635	2.61841
0.764	-2.11487
0.7645	2.41699
0.765	7.85522
0.7655	1.40991
0.766	5.13611
0.7665	8.15735
0.767	8.25806
0.7675	-3.7262
0.768	4.83398
0.7685	-1.61133
0.769	2.92053
0.7695	3.62549
0.77	5.53894
0.7705	4.83398
0.771	7.35168
0.7715	6.54602
0.772	7.95593
0.7725	4.22974
0.773	10.47363
0.7735	6.94885
0.774	10.87646
0.7745	7.45239
0.775	8.66089
0.7755	13.09204
0.776	11.2793
0.7765	3.7262
0.777	8.05664
0.7775	5.84106
0.778	2.61841
0.7785	2.71912
0.779	8.45947
0.7795	-0.50354
0.78	-5.94177
0.7805	-3.42407
0.781	-1.61133
0.7815	3.22266
0.782	10.77576
0.7825	7.5531
0.783	6.3446
0.7835	10.37292
0.784	5.33752
0.7845	9.16443
0.785	7.95593
0.7855	11.38
0.786	9.66797
0.7865	13.59558
0.787	13.09204
0.7875	11.48071
0.788	2.81982
0.7885	8.15735
0.789	3.22266
0.7895	7.95593
0.79	8.35876
0.7905	2.71912
0.791	7.5531
0.7915	3.02124
0.792	5.43823
0.7925	5.53894
0.793	7.45239
0.7935	5.74036
0.794	8.7616
0.7945	9.16443
0.795	4.93469
0.7955	-1.10779
0.796	-3.92761
0.7965	-0.10071
0.797	2.5177
0.7975	1.81274
0.798	2.21558
0.7985	2.31628
0.799	2.81982
0.7995	5.23682
0.8	1.81274
0.8005	3.42407
0.801	1.40991
0.8015	1.51062
0.802	8.25806
0.8025	0.70496
0.803	2.5177
0.8035	-0.60425
0.804	-0.60425
0.8045	5.13611
0.805	0.10071
0.8055	2.71912
0.806	0.30212
0.8065	0.90637
0.807	5.63965
0.8075	6.84814
0.808	8.25806
0.8085	8.05664
0.809	5.84106
0.8095	4.53186
0.81	2.21558
0.8105	6.44531
0.811	4.93469
0.8115	9.16443
0.812	12.48779
0.8125	11.98425
0.813	9.76868
0.8135	12.38708
0.814	11.07788
0.8145	11.58142
0.815	6.04248
0.8155	6.64673
0.816	5.13611
0.8165	5.13611
0.817	5.33752
0.8175	-5.43823
0.818	4.12903
0.8185	5.94177
0.819	8.35876
0.8195	11.78284
0.82	8.96301
0.8205	10.0708
0.821	7.45239
0.8215	7.04956
0.822	2.01416
0.8225	4.02832
0.823	5.84106
0.8235	1.71204
0.824	2.31628
0.8245	8.15735
0.825	6.74744
0.8255	1.00708
0.826	0.70496
0.8265	1.3092
0.827	-2.71912
0.8275	-3.7262
0.828	-5.94177
0.8285	-1.00708
0.829	2.01416
0.8295	4.83398
0.83	5.84106
0.8305	2.01416
0.831	0.50354
0.8315	-0.10071
0.832	-1.10779
0.8325	1.61133
0.833	2.11487
0.8335	5.23682
0.834	1.81274
0.8345	9.76868
0.835	5.33752
0.8355	1.3092
0.836	7.85522
0.8365	10.27222
0.837	9.26514
0.8375	0.70496
0.838	-2.71912
0.8385	1.3092
0.839	3.32336
0.8395	8.66089
0.84	5.94177
0.8405	0.80566
0.841	1.10779
0.8415	-0.90637
0.842	7.04956
0.8425	8.56018
0.843	7.15027
0.8435	7.5531
0.844	7.25098
0.8445	8.25806
0.845	12.18567
0.8455	8.05664
0.846	4.93469
0.8465	2.41699
0.847	4.93469
0.8475	4.33044
0.848	9.56726
0.8485	7.25098
0.849	8.8623
0.8495	6.74744
0.85	5.84106
0.8505	1.51062
0.851	5.0354
0.8515	1.10779
0.852	6.54602
0.8525	3.12195
0.853	4.73328
0.8535	7.5531
0.854	6.2439
0.8545	6.74744
0.855	6.3446
0.8555	7.45239
0.856	4.53186
0.8565	4.22974
0.857	-0.80566
0.8575	0.80566
0.858	-3.7262
0.8585	-2.11487
0.859	0.30212
0.8595	-2.21558
0.86	9.06372
0.8605	8.45947
0.861	3.32336
0.8615	5.23682
0.862	8.66089
0.8625	6.44531
0.863	0.80566
0.8635	0
0.864	0.40283
0.8645	-0.90637
0.865	1.00708
0.8655	-0.70496
0.866	10.0708
0.8665	10.97717
0.867	11.68213
0.8675	10.27222
0.868	10.0708
0.8685	5.43823
0.869	5.23682
0.8695	5.63965
0.87	-0.60425
0.8705	3.12195
0.871	1.61133
0.8715	5.63965
0.872	4.33044
0.8725	8.7616
0.873	8.96301
0.8735	1.61133
0.874	3.12195
0.8745	1.51062
0.875	3.7262
0.8755	4.93469
0.876	2.81982
0.8765	4.22974
0.877	7.04956
0.8775	13.29346
0.878	4.33044
0.8785	9.66797
0.879	10.37292
0.8795	7.95593
0.88	11.2793
0.8805	13.49487
0.881	8.05664
0.8815	8.56018
0.882	11.07788
0.8825	8.15735
0.883	9.06372
0.8835	6.2439
0.884	1.61133
0.8845	0.30212
0.885	-0.50354
0.8855	8.66089
0.886	9.56726
0.8865	6.74744
0.887	9.46655
0.8875	9.16443
0.888	11.17859
0.8885	10.87646
0.889	11.98425
0.8895	7.15027
0.89	10.27222
0.8905	12.99133
0.891	12.89062
0.8915	13.59558
0.892	11.48071
0.8925	15.60974
0.893	12.28638
0.8935	3.42407
0.894	10.67505
0.8945	15.81116
0.895	9.06372
0.8955	7.25098
0.896	3.02124
0.8965	6.3446
0.897	2.11487
0.8975	3.22266
0.898	3.42407
0.8985	10.0708
0.899	3.12195
0.8995	9.56726
0.9	14.80408
0.9005	2.21558
0.901	5.13611
0.9015	3.42407
0.902	8.7616
0.9025	6.64673
0.903	9.86938
0.9035	9.46655
0.904	10.17151
0.9045	5.33752
0.905	8.96301
0.9055	5.94177
0.906	6.44531
0.9065	12.28638
0.907	7.65381
0.9075	4.93469
0.908	4.63257
0.9085	12.28638
0.909	4.73328
0.9095	3.32336
0.91	5.0354
0.9105	7.45239
0.911	0.70496
0.9115	4.12903
0.912	5.63965
0.9125	-0.60425
0.913	7.5531
0.9135	2.11487
0.914	7.75452
0.9145	11.48071
0.915	14.09912
0.9155	10.47363
0.916	13.89771
0.9165	9.76868
0.917	15.00549
0.9175	14.60266
0.918	10.97717
0.9185	6.54602
0.919	3.52478
0.9195	10.17151
0.92	9.66797
0.9205	17.22107
0.921	15.30762
0.9215	8.15735
0.922	5.13611
0.9225	8.35876
0.923	9.97009
0.9235	10.17151
0.924	11.2793
0.9245	2.92053
0.925	1.3092
0.9255	9.86938
0.926	1.91345
0.9265	4.33044
0.927	3.62549
0.9275	-0.50354
0.928	4.22974
0.9285	3.32336
0.929	-4.83398
0.9295	0
0.93	-5.53894
0.9305	-4.33044
0.931	2.31628
0.9315	-0.90637
0.932	4.83398
0.9325	0
0.933	9.46655
0.9335	7.65381
0.934	8.15735
0.9345	5.63965
0.935	10.57434
0.9355	7.5531
0.936	7.95593
0.9365	11.48071
0.937	10.27222
0.9375	7.65381
0.938	8.8623
0.9385	1.00708
0.939	3.32336
0.9395	9.26514
0.94	6.74744
0.9405	3.12195
0.941	4.63257
0.9415	2.5177
0.942	1.91345
0.9425	9.26514
0.943	6.04248
0.9435	9.66797
0.944	7.15027
0.9445	4.02832
0.945	4.73328
0.9455	7.95593
0.946	9.36584
0.9465	4.93469
0.947	7.95593
0.9475	12.28638
0.948	11.07788
0.9485	5.63965
0.949	8.7616
0.9495	10.87646
0.95	11.17859
0.9505	7.35168
0.951	7.95593
0.9515	4.83398
0.952	7.35168
0.9525	5.33752
0.953	6.14319
0.9535	2.71912
0.954	1.81274
0.9545	3.7262
0.955	7.65381
0.9555	7.15027
0.956	6.94885
0.9565	12.48779
0.957	8.66089
0.9575	8.56018
0.958	12.28638
0.9585	10.0708
0.959	14.09912
0.9595	10.87646
0.96	9.26514
0.9605	7.95593
0.961	11.78284
0.9615	14.09912
0.962	3.32336
0.9625	3.8269
0.963	-0.50354
0.9635	8.25806
0.964	3.62549
0.9645	11.17859
0.965	10.37292
0.9655	8.45947
0.966	6.74744
0.9665	2.11487
0.967	7.5531
0.9675	6.04248
0.968	10.57434
0.9685	10.17151
0.969	3.42407
0.9695	9.26514
0.97	8.45947
0.9705	5.74036
0.971	5.53894
0.9715	10.37292
0.972	12.28638
0.9725	15.60974
0.973	10.97717
0.9735	7.95593
0.974	10.67505
0.9745	14.19983
0.975	15.00549
0.9755	9.36584
0.976	11.98425
0.9765	9.76868
0.977	11.38
0.9775	12.78992
0.978	8.66089
0.9785	7.15027
0.979	6.04248
0.9795	2.5177
0.98	1.3092
0.9805	4.73328
0.981	10.67505
0.9815	5.74036
0.982	1.91345
0.9825	5.74036
0.983	5.13611
0.9835	2.81982
0.984	3.42407
0.9845	5.74036
0.985	6.74744
0.9855	6.2439
0.986	8.56018
0.9865	8.8623
0.987	12.28638
0.9875	2.11487
0.988	6.04248
0.9885	4.12903
0.989	8.7616
0.9895	6.44531
0.99	6.84814
0.9905	6.44531
0.991	1.81274
0.9915	6.2439
0.992	10.0708
0.9925	4.22974
0.993	4.33044
0.9935	9.26514
0.994	4.73328
0.9945	-0.30212
0.995	5.74036
0.9955	2.01416
0.996	3.32336
0.9965	2.31628
0.997	7.25098
0.9975	1.3092
0.998	12.5885
0.9985	8.25806
0.999	5.33752
0.9995	12.28638
1	2.71912
1.0005	8.45947
1.001	2.61841
1.0015	7.95593
1.002	6.2439
1.0025	3.52478
1.003	10.67505
1.0035	0.80566
1.004	5.94177
1.0045	3.52478
1.005	6.3446
1.0055	8.45947
1.006	9.56726
1.0065	14.09912
1.007	4.02832
1.0075	2.21558
1.008	3.02124
1.0085	5.84106
1.009	4.83398
1.0095	8.05664
1.01	8.25806
1.0105	7.75452
1.011	7.5531
1.0115	2.21558
1.012	6.44531
1.0125	1.2085
1.013	2.21558
1.0135	9.36584
1.014	2.11487
1.0145	3.92761
1.015	3.12195
1.0155	2.11487
1.016	-3.42407
1.0165	-0.90637
1.017	2.61841
1.0175	3.12195
1.018	3.62549
1.0185	5.33752
1.019	8.7616
1.0195	4.83398
1.02	5.23682
1.0205	2.71912
1.021	6.64673
1.0215	6.64673
1.022	3.52478
1.0225	2.92053
1.023	5.53894
1.0235	4.22974
1.024	8.8623
1.0245	5.33752
1.025	4.73328
1.0255	0.80566
1.026	-1.91345
1.0265	1.3092
1.027	7.45239
1.0275	2.61841
1.028	11.38
1.0285	7.15027
1.029	6.84814
1.0295	0.20142
1.03	6.84814
1.0305	8.56018
1.031	7.95593
1.0315	8.8623
1.032	12.28638
1.0325	9.76868
1.033	9.86938
1.0335	7.5531
1.034	7.95593
1.0345	8.45947
1.035	8.15735
1.0355	7.04956
1.036	5.63965
1.0365	8.05664
1.037	-0.70496
1.0375	2.71912
1.038	4.43115
1.0385	4.02832
1.039	5.53894
1.0395	7.95593
1.04	11.58142
1.0405	5.63965
1.041	1.71204
1.0415	6.84814
1.042	4.53186
1.0425	4.22974
1.043	7.04956
1.0435	9.86938
1.044	10.67505
1.0445	8.8623
1.045	9.16443
1.0455	10.47363
1.046	12.28638
1.0465	7.75452
1.047	7.25098
1.0475	7.15027
1.048	10.47363
1.0485	8.05664
1.049	11.88354
1.0495	10.47363
1.05	7.5531
1.0505	3.32336
1.051	4.83398
1.0515	3.92761
1.052	4.22974
1.0525	0.90637
1.053	11.78284
1.0535	9.36584
1.054	6.94885
1.0545	7.85522
1.055	6.94885
1.0555	9.36584
1.056	5.84106
1.0565	9.56726
1.057	7.85522
1.0575	12.5885
1.058	7.95593
1.0585	5.13611
1.059	8.96301
1.0595	4.93469
1.06	4.53186
1.0605	8.7616
1.061	10.97717
1.0615	7.04956
1.062	8.45947
1.0625	9.76868
1.063	6.84814
1.0635	7.45239
1.064	10.57434
1.0645	10.47363
1.065	8.66089
1.0655	13.797
1.066	9.66797
1.0665	9.56726
1.067	4.02832
1.0675	7.75452
1.068	8.8623
1.0685	9.06372
1.069	9.56726
1.0695	6.94885
1.07	3.8269
1.0705	0.50354
1.071	4.12903
1.0715	5.53894
1.072	0.40283
1.0725	3.92761
1.073	6.14319
1.0735	-1.40991
1.074	1.91345
1.0745	1.91345
1.075	7.15027
1.0755	6.84814
1.076	9.26514
1.0765	2.5177
1.077	2.01416
1.0775	2.92053
1.078	4.22974
1.0785	7.04956
1.079	2.11487
1.0795	7.15027
1.08	5.63965
1.0805	10.97717
1.081	1.61133
1.0815	9.06372
1.082	10.67505
1.0825	9.06372
1.083	7.5531
1.0835	10.27222
1.084	8.15735
1.0845	8.25806
1.085	10.87646
1.0855	7.25098
1.086	7.04956
1.0865	8.15735
1.087	13.49487
1.0875	11.07788
1.088	10.0708
1.0885	8.25806
1.089	8.66089
1.0895	11.38
1.09	7.85522
1.0905	8.56018
1.091	6.64673
1.0915	6.44531
1.092	7.04956
1.0925	7.95593
1.093	4.83398
1.0935	5.84106
1.094	7.15027
1.0945	6.04248
1.095	7.45239
1.0955	2.92053
1.096	8.15735
1.0965	2.31628
1.097	5.74036
1.0975	7.35168
1.098	11.2793
1.0985	10.47363
1.099	8.7616
1.0995	6.54602
1.1	1.61133
1.1005	3.62549
1.101	6.14319
1.1015	8.45947
1.102	4.73328
1.1025	8.35876
1.103	7.45239
1.1035	11.78284
1.104	7.25098
1.1045	12.78992
1.105	6.2439
1.1055	11.98425
1.106	6.84814
1.1065	11.68213
1.107	5.13611
1.1075	11.38
1.108	16.01257
1.1085	9.26514
1.109	13.39417
1.1095	11.07788
1.11	13.797
1.1105	16.41541
1.111	10.47363
1.1115	10.57434
1.112	10.87646
1.1125	13.29346
1.113	9.66797
1.1135	14.50195
1.114	13.797
1.1145	9.86938
1.115	11.17859
1.1155	9.26514
1.116	10.37292
1.1165	11.2793
1.117	10.67505
1.1175	11.58142
1.118	15.50903
1.1185	15.40833
1.119	17.12036
1.1195	10.0708
1.12	6.14319
1.1205	4.83398
1.121	2.71912
1.1215	3.7262
1.122	2.61841
1.1225	4.02832
1.123	3.7262
1.1235	7.85522
1.124	3.7262
1.1245	5.84106
1.125	1.40991
1.1255	7.35168
1.126	3.22266
1.1265	2.31628
1.127	6.2439
1.1275	8.8623
1.128	9.26514
1.1285	11.17859
1.129	5.63965
1.1295	3.02124
1.13	7.45239
1.1305	6.2439
1.131	3.92761
1.1315	5.23682
1.132	4.22974
1.1325	-0.60425
1.133	3.12195
1.1335	-1.10779
1.134	4.63257
1.1345	10.0708
1.135	10.27222
1.1355	12.38708
1.136	9.26514
1.1365	11.17859
1.137	9.26514
1.1375	10.87646
1.138	10.97717
1.1385	7.15027
1.139	11.68213
1.1395	10.47363
1.14	6.74744
1.1405	9.36584
1.141	6.74744
1.1415	6.04248
1.142	9.56726
1.1425	12.5885
1.143	10.47363
1.1435	14.70337
1.144	8.8623
1.1445	12.28638
1.145	11.2793
1.1455	14.40125
1.146	10.27222
1.1465	12.89062
1.147	12.38708
1.1475	9.56726
1.148	12.48779
1.1485	10.37292
1.149	15.20691
1.1495	12.78992
1.15	8.66089
1.1505	8.8623
1.151	6.04248
1.1515	10.47363
1.152	8.45947
1.1525	8.05664
1.153	9.66797
1.1535	7.15027
1.154	4.43115
1.1545	-0.80566
1.155	-0.10071
1.1555	5.23682
1.156	5.74036
1.1565	7.45239
1.157	6.14319
1.1575	5.84106
1.158	5.74036
1.1585	8.05664
1.159	4.73328
1.1595	6.74744
1.16	16.41541
1.1605	12.68921
1.161	16.21399
1.1615	16.61682
1.162	9.97009
1.1625	10.77576
1.163	9.06372
1.1635	9.36584
1.164	9.06372
1.1645	3.02124
1.165	8.15735
1.1655	8.35876
1.166	9.66797
1.1665	9.56726
1.167	3.92761
1.1675	5.33752
1.168	5.33752
1.1685	4.33044
1.169	9.86938
1.1695	7.25098
1.17	5.23682
1.1705	5.53894
1.171	3.12195
1.1715	7.15027
1.172	6.64673
1.1725	9.36584
1.173	4.53186
1.1735	3.92761
1.174	7.35168
1.1745	10.87646
1.175	10.0708
1.1755	4.93469
1.176	10.37292
1.1765	6.94885
1.177	6.44531
1.1775	6.54602
1.178	7.15027
1.1785	10.37292
1.179	9.66797
1.1795	11.48071
1.18	5.23682
1.1805	7.45239
1.181	4.02832
1.1815	6.14319
1.182	6.74744
1.1825	4.43115
1.183	7.45239
1.1835	5.94177
1.184	7.85522
1.1845	1.91345
1.185	8.7616
1.1855	5.53894
1.186	8.35876
1.1865	10.77576
1.187	10.67505
1.1875	3.8269
1.188	11.88354
1.1885	9.76868
1.189	4.53186
1.1895	6.64673
1.19	3.22266
1.1905	4.53186
1.191	4.63257
1.1915	10.27222
1.192	6.3446
1.1925	3.8269
1.193	2.92053
1.1935	-0.30212
1.194	3.62549
1.1945	4.22974
1.195	9.66797
1.1955	4.33044
1.196	5.43823
1.1965	7.25098
1.197	5.0354
1.1975	3.02124
1.198	5.63965
1.1985	7.15027
1.199	11.2793
1.1995	13.29346
1.2	8.15735
1.2005	17.01965
1.201	10.0708
1.2015	8.8623
1.202	6.04248
1.2025	6.74744
1.203	2.01416
1.2035	-2.31628
1.204	1.81274
1.2045	3.62549
1.205	2.01416
1.2055	6.74744
1.206	6.64673
1.2065	5.84106
1.207	-0.50354
1.2075	0.30212
1.208	3.02124
1.2085	4.43115
1.209	3.32336
1.2095	6.3446
1.21	9.26514
1.2105	5.74036
1.211	4.02832
1.2115	11.17859
1.212	10.37292
1.2125	1.2085
1.213	6.3446
1.2135	11.88354
1.214	10.37292
1.2145	12.5885
1.215	14.40125
1.2155	5.94177
1.216	2.5177
1.2165	11.38
1.217	13.29346
1.2175	8.45947
1.218	12.78992
1.2185	6.44531
1.219	12.89062
1.2195	9.36584
1.22	9.76868
1.2205	9.66797
1.221	5.94177
1.2215	9.06372
1.222	9.16443
1.2225	3.7262
1.223	1.71204
1.2235	1.40991
1.224	3.52478
1.2245	4.43115
1.225	7.04956
1.2255	2.81982
1.226	2.01416
1.2265	2.92053
1.227	3.92761
1.2275	7.5531
1.228	6.14319
1.2285	6.64673
1.229	2.31628
1.2295	6.84814
1.23	6.04248
1.2305	7.04956
1.231	8.45947
1.2315	7.15027
1.232	11.58142
1.2325	11.88354
1.233	10.27222
1.2335	1.40991
1.234	-0.50354
1.2345	-4.33044
1.235	2.21558
1.2355	5.43823
1.236	5.23682
1.2365	6.3446
1.237	3.32336
1.2375	0.20142
1.238	3.42407
1.2385	6.2439
1.239	7.5531
1.2395	1.2085
1.24	3.12195
1.2405	7.75452
1.241	8.15735
1.2415	2.81982
1.242	5.53894
1.2425	0.40283
1.243	4.33044
1.2435	3.32336
1.244	0.50354
1.2445	-1.81274
1.245	10.17151
1.2455	1.40991
1.246	3.8269
1.2465	4.83398
1.247	3.12195
1.2475	2.61841
1.248	9.36584
1.2485	2.61841
1.249	19.03381
1.2495	13.797
1.25	8.15735
1.2505	9.16443
1.251	7.95593
1.2515	6.74744
1.252	5.53894
1.2525	9.46655
1.253	7.85522
1.2535	10.47363
1.254	4.22974
1.2545	0.80566
1.255	8.56018
1.2555	-1.71204
1.256	2.92053
1.2565	0.60425
1.257	6.3446
1.2575	7.95593
1.258	7.35168
1.2585	10.57434
1.259	5.23682
1.2595	6.94885
1.26	1.00708
1.2605	6.04248
1.261	3.12195
1.2615	4.93469
1.262	6.84814
1.2625	7.65381
1.263	3.62549
1.2635	3.7262
1.264	6.04248
1.2645	2.5177
1.265	1.71204
1.2655	-1.51062
1.266	1.2085
1.2665	4.02832
1.267	4.12903
1.2675	5.94177
1.268	4.93469
1.2685	10.77576
1.269	5.43823
1.2695	14.50195
1.27	13.69629
1.2705	11.98425
1.271	14.40125
1.2715	16.71753
1.272	13.29346
1.2725	11.07788
1.273	12.68921
1.2735	10.17151
1.274	16.61682
1.2745	14.70337
1.275	11.2793
1.2755	8.8623
1.276	3.62549
1.2765	4.12903
1.277	2.01416
1.2775	7.04956
1.278	2.71912
1.2785	6.2439
1.279	3.12195
1.2795	4.12903
1.28	-1.00708
1.2805	6.04248
1.281	4.02832
1.2815	0
1.282	-3.62549
1.2825	1.00708
1.283	-4.43115
1.2835	-9.06372
1.284	0.20142
1.2845	-1.3092
1.285	0.90637
1.2855	-1.40991
1.286	-0.80566
1.2865	-0.70496
1.287	6.84814
1.2875	4.02832
1.288	3.52478
1.2885	5.63965
1.289	3.7262
1.2895	0.60425
1.29	9.16443
1.2905	7.75452
1.291	9.56726
1.2915	10.67505
1.292	9.97009
1.2925	8.05664
1.293	3.02124
1.2935	12.48779
1.294	9.56726
1.2945	0.50354
1.295	8.15735
1.2955	9.56726
1.296	4.63257
1.2965	4.83398
1.297	8.66089
1.2975	5.53894
1.298	10.0708
1.2985	7.95593
1.299	7.35168
1.2995	5.84106
1.3	6.94885
1.3005	8.15735
1.301	3.12195
1.3015	3.52478
1.302	3.92761
1.3025	3.22266
1.303	-3.02124
1.3035	2.81982
1.304	8.45947
1.3045	4.43115
1.305	3.22266
1.3055	1.10779
1.306	2.41699
1.3065	1.40991
1.307	2.11487
1.3075	8.7616
1.308	9.06372
1.3085	6.74744
1.309	3.02124
1.3095	4.22974
1.31	3.7262
1.3105	6.94885
1.311	4.22974
1.3115	9.66797
1.312	9.36584
1.3125	4.73328
1.313	1.61133
1.3135	9.86938
1.314	4.53186
1.3145	-0.20142
1.315	-0.30212
1.3155	3.62549
1.316	-0.10071
1.3165	1.61133
1.317	8.35876
1.3175	6.54602
1.318	13.39417
1.3185	7.45239
1.319	7.5531
1.3195	8.96301
1.32	5.74036
1.3205	7.45239
1.321	10.87646
1.3215	7.85522
1.322	1.61133
1.3225	7.5531
1.323	6.04248
1.3235	8.15735
1.324	2.5177
1.3245	4.43115
1.325	0.10071
1.3255	8.15735
1.326	8.8623
1.3265	8.7616
1.327	11.17859
1.3275	8.56018
1.328	8.96301
1.3285	6.14319
1.329	10.17151
1.3295	5.23682
1.33	0.50354
1.3305	4.22974
1.331	-1.51062
1.3315	2.5177
1.332	4.33044
1.3325	7.25098
1.333	2.81982
1.3335	6.14319
1.334	7.35168
1.3345	9.46655
1.335	5.33752
1.3355	10.97717
1.336	11.48071
1.3365	10.47363
1.337	8.7616
1.3375	5.84106
1.338	3.32336
1.3385	2.21558
1.339	4.83398
1.3395	-1.3092
1.34	0.40283
1.3405	6.3446
1.341	9.26514
1.3415	10.37292
1.342	6.04248
1.3425	6.64673
1.343	7.15027
1.3435	6.44531
1.344	5.0354
1.3445	3.02124
1.345	-0.50354
1.3455	-4.02832
1.346	-2.61841
1.3465	1.2085
1.347	4.12903
1.3475	0.90637
1.348	6.3446
1.3485	9.06372
1.349	3.62549
1.3495	1.51062
1.35	-4.22974
1.3505	1.40991
1.351	1.71204
1.3515	4.83398
1.352	5.23682
1.3525	5.84106
1.353	6.64673
1.3535	-5.0354
1.354	-0.30212
1.3545	-5.74036
1.355	0.10071
1.3555	5.0354
1.356	4.83398
1.3565	2.11487
1.357	3.8269
1.3575	4.73328
1.358	2.01416
1.3585	5.63965
1.359	3.42407
1.3595	-1.00708
1.36	7.25098
1.3605	6.2439
1.361	6.2439
1.3615	2.92053
1.362	7.04956
1.3625	5.13611
1.363	3.42407
1.3635	2.11487
1.364	8.05664
1.3645	4.02832
1.365	5.23682
1.3655	1.2085
1.366	4.02832
1.3665	1.91345
1.367	5.33752
1.3675	9.16443
1.368	8.05664
1.3685	5.13611
1.369	4.93469
1.3695	1.71204
1.37	3.8269
1.3705	8.7616
1.371	5.63965
1.3715	7.5531
1.372	7.45239
1.3725	5.23682
1.373	7.65381
1.3735	8.25806
1.374	4.22974
1.3745	6.44531
1.375	1.71204
1.3755	2.61841
1.376	4.33044
1.3765	0.10071
1.377	2.31628
1.3775	3.02124
1.378	4.43115
1.3785	0
1.379	0.70496
1.3795	4.63257
1.38	0.60425
1.3805	-1.71204
1.381	-1.51062
1.3815	-4.33044
1.382	-4.73328
1.3825	-2.71912
1.383	0.80566
1.3835	-0.80566
1.384	-1.40991
1.3845	-0.50354
1.385	-4.22974
1.3855	-4.63257
1.386	2.01416
1.3865	0.80566
1.387	0.50354
1.3875	2.41699
1.388	5.74036
1.3885	5.43823
1.389	-0.10071
1.3895	1.81274
1.39	0.20142
1.3905	1.3092
1.391	-1.10779
1.3915	1.10779
1.392	-2.11487
1.3925	0.50354
1.393	2.11487
1.3935	3.52478
1.394	4.22974
1.3945	2.41699
1.395	4.93469
1.3955	3.92761
1.396	3.42407
1.3965	-1.10779
1.397	0.70496
1.3975	-0.70496
1.398	1.40991
1.3985	6.44531
1.399	6.2439
1.3995	2.21558
1.4	3.92761
1.4005	-2.81982
1.401	6.3446
1.4015	9.97009
1.402	9.66797
1.4025	11.98425
1.403	8.35876
1.4035	5.63965
1.404	8.8623
1.4045	8.35876
1.405	8.15735
1.4055	12.48779
1.406	8.45947
1.4065	3.8269
1.407	8.15735
1.4075	1.81274
1.408	1.51062
1.4085	10.0708
1.409	2.41699
1.4095	6.2439
1.41	9.06372
1.4105	2.5177
1.411	6.94885
1.4115	12.68921
1.412	8.8623
1.4125	5.13611
1.413	1.81274
1.4135	1.40991
1.414	6.84814
1.4145	4.33044
1.415	4.22974
1.4155	1.40991
1.416	1.10779
1.4165	5.13611
1.417	4.93469
1.4175	12.78992
1.418	16.81824
1.4185	15.50903
1.419	12.5885
1.4195	15.00549
1.42	10.0708
1.4205	10.57434
1.421	7.65381
1.4215	5.94177
1.422	5.84106
1.4225	7.04956
1.423	8.66089
1.4235	6.04248
1.424	3.22266
1.4245	3.32336
1.425	0.70496
1.4255	-0.60425
1.426	7.85522
1.4265	10.87646
1.427	7.85522
1.4275	6.14319
1.428	7.5531
1.4285	6.74744
1.429	9.36584
1.4295	7.85522
1.43	9.36584
1.4305	3.8269
1.431	5.53894
1.4315	6.3446
1.432	11.48071
1.4325	6.64673
1.433	4.33044
1.4335	1.91345
1.434	1.51062
1.4345	7.65381
1.435	2.71912
1.4355	8.15735
1.436	6.14319
1.4365	7.04956
1.437	5.13611
1.4375	5.84106
1.438	7.45239
1.4385	5.63965
1.439	0.80566
1.4395	5.33752
1.44	-1.40991
1.4405	3.32336
1.441	-4.02832
1.4415	-1.00708
1.442	7.65381
1.4425	4.22974
1.443	-2.41699
1.4435	-6.14319
1.444	2.92053
1.4445	-1.3092
1.445	3.7262
1.4455	3.32336
1.446	4.63257
1.4465	4.22974
1.447	4.93469
1.4475	-2.5177
1.448	-1.71204
1.4485	-0.20142
1.449	-2.61841
1.4495	-2.11487
1.45	0.20142
1.4505	0.60425
1.451	6.2439
1.4515	6.2439
1.452	1.71204
1.4525	0.90637
1.453	8.45947
1.4535	6.14319
1.454	3.42407
1.4545	-0.50354
1.455	6.3446
1.4555	0.10071
1.456	0.50354
1.4565	2.71912
1.457	2.11487
1.4575	-2.71912
1.458	-0.30212
1.4585	-4.12903
1.459	1.3092
1.4595	1.10779
1.46	0.10071
1.4605	-0.80566
1.461	3.52478
1.4615	2.31628
1.462	0.40283
1.4625	-1.2085
1.463	-3.32336
1.4635	-2.21558
1.464	-1.61133
1.4645	-1.51062
1.465	-7.65381
1.4655	1.00708
1.466	0.60425
1.4665	3.12195
1.467	3.52478
1.4675	-0.60425
1.468	-3.12195
1.4685	5.13611
1.469	4.63257
1.4695	-0.40283
1.47	2.61841
1.4705	1.61133
1.471	2.5177
1.4715	4.63257
1.472	6.74744
1.4725	5.53894
1.473	0.60425
1.4735	5.94177
1.474	5.23682
1.4745	0.30212
1.475	4.63257
1.4755	9.86938
1.476	7.75452
1.4765	7.95593
1.477	2.31628
1.4775	3.92761
1.478	3.42407
1.4785	-0.90637
1.479	4.53186
1.4795	11.48071
1.48	7.85522
1.4805	7.5531
1.481	3.22266
1.4815	1.2085
1.482	8.05664
1.4825	9.86938
1.483	9.56726
1.4835	6.74744
1.484	8.8623
1.4845	4.93469
1.485	4.12903
1.4855	0.90637
1.486	-0.40283
1.4865	2.11487
1.487	1.40991
1.4875	5.43823
1.488	-0.90637
1.4885	6.04248
1.489	7.15027
1.4895	1.00708
1.49	1.81274
1.4905	0.70496
1.491	11.2793
1.4915	13.09204
1.492	13.09204
1.4925	8.8623
1.493	6.54602
1.4935	5.33752
1.494	5.33752
1.4945	13.797
1.495	-0.10071
1.4955	9.36584
1.496	10.0708
1.4965	2.01416
1.497	6.74744
1.4975	6.94885
1.498	7.75452
1.4985	6.64673
1.499	3.02124
1.4995	2.41699
1.5	2.92053
1.5005	0.50354
1.501	5.23682
1.5015	5.43823
1.502	4.43115
1.5025	5.0354
1.503	20.64514
1.5035	21.04797
1.504	18.32886
1.5045	15.81116
1.505	16.11328
1.5055	8.35876
1.506	9.86938
1.5065	10.67505
1.507	9.97009
1.5075	11.2793
1.508	6.44531
1.5085	12.68921
1.509	13.797
1.5095	8.25806
1.51	5.23682
1.5105	0.60425
1.511	5.0354
1.5115	3.8269
1.512	7.95593
1.5125	8.8623
1.513	9.66797
1.5135	6.2439
1.514	7.25098
1.5145	2.21558
1.515	3.32336
1.5155	6.14319
1.516	4.43115
1.5165	3.42407
1.517	8.15735
1.5175	3.7262
1.518	2.71912
1.5185	5.53894
1.519	9.56726
1.5195	2.41699
1.52	8.66089
1.5205	11.38
1.521	9.56726
1.5215	6.14319
1.522	7.15027
1.5225	2.21558
1.523	2.71912
1.5235	6.64673
1.524	6.44531
1.5245	13.29346
1.525	12.28638
1.5255	5.94177
1.526	4.43115
1.5265	11.17859
1.527	5.13611
1.5275	6.94885
1.528	4.83398
1.5285	3.32336
1.529	5.23682
1.5295	3.02124
1.53	5.94177
1.5305	6.14319
1.531	6.14319
1.5315	8.66089
1.532	2.11487
1.5325	3.52478
1.533	11.17859
1.5335	5.33752
1.534	5.74036
1.5345	3.12195
1.535	6.84814
1.5355	9.86938
1.536	7.35168
1.5365	11.78284
1.537	14.80408
1.5375	12.99133
1.538	10.57434
1.5385	9.86938
1.539	11.68213
1.5395	12.68921
1.54	5.43823
1.5405	4.43115
1.541	-0.10071
1.5415	2.11487
1.542	1.61133
1.5425	4.33044
1.543	2.92053
1.5435	1.40991
1.544	5.94177
1.5445	0.20142
1.545	2.11487
1.5455	2.11487
1.546	2.5177
1.5465	5.43823
1.547	3.42407
1.5475	4.22974
1.548	3.02124
1.5485	0.50354
1.549	3.62549
1.5495	7.75452
1.55	5.23682
1.5505	9.66797
1.551	12.28638
1.5515	5.53894
1.552	3.8269
1.5525	6.94885
1.553	9.06372
1.5535	6.54602
1.554	10.0708
1.5545	6.64673
1.555	8.05664
1.5555	2.11487
1.556	6.04248
1.5565	5.23682
1.557	11.38
1.5575	12.99133
1.558	6.84814
1.5585	4.63257
1.559	3.8269
1.5595	3.52478
1.56	7.25098
1.5605	2.92053
1.561	10.67505
1.5615	7.35168
1.562	10.27222
1.5625	7.25098
1.563	10.0708
1.5635	7.45239
1.564	12.08496
1.5645	10.57434
1.565	6.3446
1.5655	9.66797
1.566	6.3446
1.5665	4.73328
1.567	8.15735
1.5675	6.64673
1.568	3.22266
1.5685	7.75452
1.569	6.44531
1.5695	7.75452
1.57	7.35168
1.5705	2.5177
1.571	1.91345
1.5715	5.53894
1.572	4.63257
1.5725	9.97009
1.573	6.64673
1.5735	9.86938
1.574	9.26514
1.5745	10.67505
1.575	7.04956
1.5755	2.71912
1.576	3.8269
1.5765	1.2085
1.577	3.92761
1.5775	2.31628
1.578	2.31628
1.5785	4.22974
1.579	4.02832
1.5795	2.5177
1.58	1.61133
1.5805	4.83398
1.581	4.53186
1.5815	0.70496
1.582	7.95593
1.5825	7.85522
1.583	6.84814
1.5835	6.44531
1.584	3.42407
1.5845	4.33044
1.585	2.01416
1.5855	-2.92053
1.586	0.40283
1.5865	6.74744
1.587	4.02832
1.5875	2.01416
1.588	5.84106
1.5885	6.3446
1.589	7.95593
1.5895	7.04956
1.59	5.43823
1.5905	10.27222
1.591	6.94885
1.5915	8.15735
1.592	9.66797
1.5925	7.04956
1.593	8.7616
1.5935	6.84814
1.594	10.67505
1.5945	6.3446
1.595	2.5177
1.5955	5.94177
1.596	2.41699
1.5965	5.63965
1.597	4.63257
1.5975	-3.22266
1.598	-1.00708
1.5985	-0.10071
1.599	3.32336
1.5995	4.02832
1.6	1.51062
1.6005	6.3446
1.601	0.20142
1.6015	-0.90637
1.602	-1.10779
1.6025	6.74744
1.603	9.26514
1.6035	12.08496
1.604	15.60974
1.6045	10.77576
1.605	9.86938
1.6055	7.25098
1.606	5.43823
1.6065	4.22974
1.607	8.35876
1.6075	5.63965
1.608	4.63257
1.6085	3.42407
1.609	4.53186
1.6095	4.93469
1.61	-0.40283
1.6105	2.71912
1.611	4.12903
1.6115	3.7262
1.612	4.43115
1.6125	9.56726
1.613	11.68213
1.6135	12.08496
1.614	6.44531
1.6145	-0.90637
1.615	7.35168
1.6155	9.56726
1.616	6.14319
1.6165	8.15735
1.617	8.25806
1.6175	4.83398
1.618	2.81982
1.6185	-0.30212
1.619	-2.92053
1.6195	3.32336
1.62	10.67505
1.6205	11.2793
1.621	8.05664
1.6215	11.38
1.622	5.53894
1.6225	9.46655
1.623	5.33752
1.6235	7.95593
1.624	4.83398
1.6245	7.15027
1.625	5.13611
1.6255	8.15735
1.626	9.66797
1.6265	7.04956
1.627	8.7616
1.6275	9.86938
1.628	14.40125
1.6285	9.86938
1.629	4.83398
1.6295	6.84814
1.63	10.37292
1.6305	3.32336
1.631	4.33044
1.6315	-2.01416
1.632	3.8269
1.6325	-1.51062
1.633	5.13611
1.6335	5.23682
1.634	3.92761
1.6345	10.67505
1.635	6.2439
1.6355	9.66797
1.636	5.94177
1.6365	9.36584
1.637	4.83398
1.6375	8.7616
1.638	4.02832
1.6385	1.71204
1.639	5.33752
1.6395	2.01416
1.64	2.41699
1.6405	2.21558
1.641	-2.31628
1.6415	1.71204
1.642	3.7262
1.6425	2.41699
1.643	1.61133
1.6435	3.32336
1.644	4.53186
1.6445	4.02832
1.645	0
1.6455	2.5177
1.646	5.84106
1.6465	3.32336
1.647	5.94177
1.6475	6.84814
1.648	4.93469
1.6485	3.62549
1.649	6.64673
1.6495	2.5177
1.65	2.31628
1.6505	1.51062
1.651	4.73328
1.6515	6.74744
1.652	1.00708
1.6525	5.63965
1.653	-0.70496
1.6535	1.81274
1.654	7.25098
1.6545	7.65381
1.655	10.97717
1.6555	9.86938
1.656	9.06372
1.6565	7.85522
1.657	9.56726
1.6575	3.22266
1.658	7.5531
1.6585	7.95593
1.659	5.23682
1.6595	8.25806
1.66	7.15027
1.6605	4.93469
1.661	11.88354
1.6615	10.17151
1.662	10.77576
1.6625	8.7616
1.663	4.22974
1.6635	4.63257
1.664	7.95593
1.6645	5.23682
1.665	4.33044
1.6655	2.11487
1.666	7.35168
1.6665	7.95593
1.667	2.11487
1.6675	3.42407
1.668	3.52478
1.6685	6.3446
1.669	2.71912
1.6695	4.73328
1.67	2.71912
1.6705	6.14319
1.671	1.71204
1.6715	4.33044
1.672	5.63965
1.6725	7.65381
1.673	3.62549
1.6735	7.04956
1.674	10.87646
1.6745	2.71912
1.675	6.44531
1.6755	-0.10071
1.676	7.04956
1.6765	5.33752
1.677	2.61841
1.6775	3.62549
1.678	2.81982
1.6785	10.17151
1.679	7.15027
1.6795	5.33752
1.68	6.74744
1.6805	9.56726
1.681	7.04956
1.6815	4.43115
1.682	10.0708
1.6825	0.80566
1.683	0.60425
1.6835	7.15027
1.684	0.50354
1.6845	1.81274
1.685	0.40283
1.6855	1.91345
1.686	3.22266
1.6865	8.45947
1.687	0.80566
1.6875	-1.40991
1.688	4.22974
1.6885	1.00708
1.689	4.12903
1.6895	6.14319
1.69	1.81274
1.6905	2.5177
1.691	6.04248
1.6915	3.7262
1.692	6.2439
1.6925	4.22974
1.693	2.71912
1.6935	5.74036
1.694	14.19983
1.6945	10.17151
1.695	2.71912
1.6955	3.02124
1.696	1.40991
1.6965	5.13611
1.697	4.63257
1.6975	3.12195
1.698	7.15027
1.6985	5.23682
1.699	9.06372
1.6995	5.13611
1.7	3.8269
1.7005	8.45947
1.701	7.04956
1.7015	6.3446
1.702	5.63965
1.7025	6.2439
1.703	6.2439
1.7035	7.35168
1.704	2.61841
1.7045	4.93469
1.705	8.05664
1.7055	1.91345
1.706	3.02124
1.7065	10.17151
1.707	7.75452
1.7075	9.26514
1.708	5.53894
1.7085	2.21558
1.709	1.71204
1.7095	3.22266
1.71	6.54602
1.7105	2.71912
1.711	5.84106
1.7115	0.20142
1.712	1.2085
1.7125	1.3092
1.713	3.62549
1.7135	3.22266
1.714	1.40991
1.7145	1.40991
1.715	2.5177
1.7155	5.23682
1.716	9.46655
1.7165	3.92761
1.717	0.20142
1.7175	9.76868
1.718	8.56018
1.7185	4.12903
1.719	6.94885
1.7195	6.14319
1.72	2.01416
1.7205	2.92053
1.721	3.52478
1.7215	4.73328
1.722	-0.20142
1.7225	-1.10779
1.723	-3.7262
1.7235	-1.40991
1.724	-2.01416
1.7245	0.60425
1.725	0.70496
1.7255	-0.40283
1.726	-2.71912
1.7265	0.40283
1.727	6.84814
1.7275	0.50354
1.728	3.32336
1.7285	2.01416
1.729	6.54602
1.7295	9.97009
1.73	6.64673
1.7305	9.56726
1.731	3.02124
1.7315	2.01416
1.732	-0.40283
1.7325	5.84106
1.733	1.00708
1.7335	6.54602
1.734	5.53894
1.7345	6.84814
1.735	3.02124
1.7355	7.85522
1.736	0.50354
1.7365	6.94885
1.737	6.54602
1.7375	5.84106
1.738	9.56726
1.7385	6.54602
1.739	9.16443
1.7395	4.33044
1.74	4.12903
1.7405	-2.5177
1.741	1.40991
1.7415	-2.81982
1.742	-1.71204
1.7425	0
1.743	-1.61133
1.7435	1.40991
1.744	2.01416
1.7445	3.7262
1.745	0.60425
1.7455	0.10071
1.746	-1.10779
1.7465	2.31628
1.747	1.71204
1.7475	0.80566
1.748	-2.71912
1.7485	-5.94177
1.749	-1.2085
1.7495	4.02832
1.75	2.01416
1.7505	6.84814
1.751	6.04248
1.7515	4.93469
1.752	12.5885
1.7525	13.89771
1.753	6.2439
1.7535	4.43115
1.754	5.63965
1.7545	10.67505
1.755	5.43823
1.7555	5.63965
1.756	4.93469
1.7565	5.74036
1.757	7.85522
1.7575	7.85522
1.758	4.73328
1.7585	14.09912
1.759	9.16443
1.7595	6.44531
1.76	7.85522
1.7605	6.04248
1.761	9.66797
1.7615	14.09912
1.762	5.94177
1.7625	1.71204
1.763	3.22266
1.7635	2.5177
1.764	0.20142
1.7645	10.0708
1.765	4.73328
1.7655	0.40283
1.766	3.7262
1.7665	4.53186
1.767	7.45239
1.7675	8.66089
1.768	10.27222
1.7685	11.98425
1.769	13.39417
1.7695	10.57434
1.77	12.48779
1.7705	13.69629
1.771	3.52478
1.7715	8.56018
1.772	7.35168
1.7725	7.65381
1.773	7.65381
1.7735	6.44531
1.774	3.42407
1.7745	5.63965
1.775	3.02124
1.7755	4.93469
1.776	3.8269
1.7765	4.83398
1.777	6.2439
1.7775	8.25806
1.778	9.86938
1.7785	5.0354
1.779	4.43115
1.7795	9.97009
1.78	7.45239
1.7805	9.46655
1.781	4.63257
1.7815	5.0354
1.782	10.77576
1.7825	8.56018
1.783	9.06372
1.7835	8.35876
1.784	3.7262
1.7845	8.35876
1.785	5.94177
1.7855	14.70337
1.786	6.04248
1.7865	2.21558
1.787	5.33752
1.7875	8.8623
1.788	3.32336
1.7885	7.25098
1.789	3.92761
1.7895	-2.81982
1.79	3.32336
1.7905	-1.81274
1.791	-1.3092
1.7915	-3.32336
1.792	-3.42407
1.7925	2.01416
1.793	3.22266
1.7935	8.66089
1.794	6.54602
1.7945	6.14319
1.795	-2.21558
1.7955	4.43115
1.796	6.64673
1.7965	6.14319
1.797	5.84106
1.7975	7.65381
1.798	5.53894
1.7985	5.23682
1.799	9.36584
1.7995	3.8269
1.8	9.56726
1.8005	7.85522
1.801	5.13611
1.8015	3.7262
1.802	3.22266
1.8025	5.23682
1.803	6.84814
1.8035	5.74036
1.804	9.06372
1.8045	8.8623
1.805	7.25098
1.8055	5.53894
1.806	3.8269
1.8065	7.04956
1.807	4.12903
1.8075	7.15027
1.808	9.36584
1.8085	8.15735
1.809	8.7616
1.8095	2.11487
1.81	1.2085
1.8105	2.31628
1.811	3.22266
1.8115	7.45239
1.812	8.96301
1.8125	10.67505
1.813	12.18567
1.8135	10.0708
1.814	8.15735
1.8145	6.74744
1.815	1.10779
1.8155	7.75452
1.816	2.61841
1.8165	5.53894
1.817	5.23682
1.8175	4.63257
1.818	4.53186
1.8185	-0.30212
1.819	6.94885
1.8195	3.12195
1.82	4.33044
1.8205	6.94885
1.821	5.13611
1.8215	7.04956
1.822	1.81274
1.8225	-1.61133
1.823	3.12195
1.8235	5.53894
1.824	0
1.8245	6.94885
1.825	6.2439
1.8255	2.92053
1.826	1.81274
1.8265	2.81982
1.827	4.12903
1.8275	2.71912
1.828	3.12195
1.8285	6.74744
1.829	9.06372
1.8295	9.97009
1.83	10.57434
1.8305	10.17151
1.831	1.91345
1.8315	7.15027
1.832	7.04956
1.8325	10.37292
1.833	4.63257
1.8335	0.50354
1.834	6.44531
1.8345	0.20142
1.835	2.01416
1.8355	6.44531
1.836	10.27222
1.8365	4.93469
1.837	3.02124
1.8375	8.25806
1.838	14.09912
1.8385	4.22974
1.839	6.74744
1.8395	8.66089
1.84	3.42407
1.8405	6.64673
1.841	4.63257
1.8415	8.7616
1.842	5.74036
1.8425	5.94177
1.843	4.73328
1.8435	3.22266
1.844	11.98425
1.8445	8.66089
1.845	4.93469
1.8455	4.02832
1.846	6.14319
1.8465	0.40283
1.847	-0.10071
1.8475	6.3446
1.848	5.94177
1.8485	3.42407
1.849	6.84814
1.8495	5.0354
1.85	4.63257
1.8505	5.33752
1.851	4.63257
1.8515	2.5177
1.852	3.42407
1.8525	5.63965
1.853	4.53186
1.8535	10.37292
1.854	4.73328
1.8545	7.75452
1.855	11.88354
1.8555	9.86938
1.856	8.45947
1.8565	10.17151
1.857	6.3446
1.8575	4.83398
1.858	1.40991
1.8585	8.56018
1.859	7.85522
1.8595	8.56018
1.86	5.84106
1.8605	5.94177
1.861	5.0354
1.8615	6.94885
1.862	5.94177
1.8625	6.84814
1.863	3.92761
1.8635	8.96301
1.864	8.96301
1.8645	4.63257
1.865	2.21558
1.8655	2.5177
1.866	8.56018
1.8665	5.63965
1.867	4.93469
1.8675	9.46655
1.868	8.7616
1.8685	10.97717
1.869	7.75452
1.8695	6.14319
1.87	0.70496
1.8705	4.53186
1.871	7.65381
1.8715	11.78284
1.872	0.90637
1.8725	4.73328
1.873	9.16443
1.8735	5.53894
1.874	2.01416
1.8745	2.71912
1.875	3.12195
1.8755	1.00708
1.876	3.42407
1.8765	3.92761
1.877	1.91345
1.8775	3.42407
1.878	4.22974
1.8785	7.15027
1.879	11.2793
1.8795	7.04956
1.88	6.74744
1.8805	5.43823
1.881	7.35168
1.8815	7.15027
1.882	9.66797
1.8825	3.7262
1.883	7.75452
1.8835	3.42407
1.884	7.25098
1.8845	0.50354
1.885	5.94177
1.8855	2.81982
1.886	7.25098
1.8865	4.33044
1.887	5.94177
1.8875	7.35168
1.888	0.40283
1.8885	1.51062
1.889	3.8269
1.8895	3.8269
1.89	-0.80566
1.8905	-0.30212
1.891	3.22266
1.8915	3.12195
1.892	2.5177
1.8925	2.71912
1.893	3.52478
1.8935	8.96301
1.894	8.8623
1.8945	4.73328
1.895	4.02832
1.8955	3.22266
1.896	5.43823
1.8965	-1.51062
1.897	7.75452
1.8975	11.58142
1.898	3.02124
1.8985	1.71204
1.899	4.73328
1.8995	-0.70496
1.9	1.51062
1.9005	-2.21558
1.901	2.92053
1.9015	0.10071
1.902	1.91345
1.9025	3.12195
1.903	2.81982
1.9035	4.93469
1.904	6.64673
1.9045	2.5177
1.905	3.62549
1.9055	6.44531
1.906	0
1.9065	2.11487
1.907	1.2085
1.9075	-1.00708
1.908	2.11487
1.9085	5.63965
1.909	3.62549
1.9095	1.51062
1.91	5.23682
1.9105	1.61133
1.911	8.45947
1.9115	8.05664
1.912	9.36584
1.9125	2.81982
1.913	3.12195
1.9135	0.20142
1.914	1.00708
1.9145	4.53186
1.915	4.93469
1.9155	0
1.916	5.13611
1.9165	3.7262
1.917	8.7616
1.9175	4.53186
1.918	0.40283
1.9185	9.16443
1.919	8.96301
1.9195	7.5531
1.92	5.13611
1.9205	5.33752
1.921	3.42407
1.9215	2.61841
1.922	7.04956
1.9225	4.73328
1.923	5.0354
1.9235	-1.61133
1.924	1.61133
1.9245	2.41699
1.925	3.7262
1.9255	9.16443
1.926	6.64673
1.9265	6.84814
1.927	2.01416
1.9275	1.81274
1.928	2.81982
1.9285	-2.41699
1.929	0.10071
1.9295	2.21558
1.93	7.15027
1.9305	9.26514
1.931	7.85522
1.9315	13.09204
1.932	8.8623
1.9325	8.05664
1.933	12.28638
1.9335	3.12195
1.934	2.71912
1.9345	0.90637
1.935	5.43823
1.9355	4.22974
1.936	-3.02124
1.9365	7.35168
1.937	7.85522
1.9375	9.56726
1.938	3.22266
1.9385	4.33044
1.939	0.90637
1.9395	3.32336
1.94	5.53894
1.9405	6.04248
1.941	5.84106
1.9415	7.95593
1.942	4.83398
1.9425	1.61133
1.943	4.22974
1.9435	7.85522
1.944	5.94177
1.9445	12.08496
1.945	9.56726
1.9455	8.56018
1.946	-1.00708
1.9465	7.04956
1.947	6.64673
1.9475	5.53894
1.948	4.83398
1.9485	9.36584
1.949	8.66089
1.9495	9.66797
1.95	14.50195
1.9505	13.29346
1.951	5.84106
1.9515	8.25806
1.952	6.64673
1.9525	6.94885
1.953	9.76868
1.9535	14.60266
1.954	7.65381
1.9545	5.63965
1.955	6.94885
1.9555	2.92053
1.956	10.97717
1.9565	8.45947
1.957	6.74744
1.9575	4.63257
1.958	1.71204
1.9585	8.45947
1.959	9.36584
1.9595	9.86938
1.96	5.0354
1.9605	3.12195
1.961	4.33044
1.9615	7.75452
1.962	5.13611
1.9625	3.12195
1.963	4.33044
1.9635	4.83398
1.964	6.14319
1.9645	5.43823
1.965	13.69629
1.9655	10.67505
1.966	9.97009
1.9665	4.22974
1.967	4.83398
1.9675	4.43115
1.968	5.13611
1.9685	3.62549
1.969	3.02124
1.9695	8.66089
1.97	4.02832
1.9705	4.22974
1.971	6.14319
1.9715	6.64673
1.972	8.35876
1.9725	9.46655
1.973	9.46655
1.9735	6.74744
1.974	6.84814
1.9745	8.7616
1.975	5.94177
1.9755	9.46655
1.976	7.95593
1.9765	6.14319
1.977	2.21558
1.9775	2.92053
1.978	-2.71912
1.9785	0
1.979	4.53186
1.9795	-0.70496
1.98	-5.23682
1.9805	-4.73328
1.981	2.41699
1.9815	5.13611
1.982	-3.02124
1.9825	2.92053
1.983	6.04248
1.9835	3.92761
1.984	5.94177
1.9845	4.12903
1.985	7.15027
1.9855	1.10779
1.986	6.44531
1.9865	3.52478
1.987	3.62549
1.9875	7.35168
1.988	3.22266
1.9885	3.7262
1.989	0.80566
1.9895	-0.10071
1.99	2.92053
1.9905	4.12903
1.991	8.7616
1.9915	6.74744
1.992	7.25098
1.9925	8.35876
1.993	6.2439
1.9935	7.15027
1.994	4.73328
1.9945	4.93469
1.995	3.7262
1.9955	6.04248
1.996	0.60425
1.9965	-1.3092
1.997	3.32336
1.9975	9.56726
1.998	4.02832
1.9985	3.92761
1.999	6.94885
1.9995	9.86938
2	8.05664
2.0005	6.64673
2.001	10.0708
2.0015	10.37292
2.002	12.48779
2.0025	0.50354
2.003	4.73328
2.0035	-3.8269
2.004	4.93469
2.0045	6.94885
2.005	1.2085
2.0055	6.04248
2.006	3.02124
2.0065	1.3092
2.007	5.74036
2.0075	2.61841
2.008	5.0354
2.0085	4.73328
2.009	10.67505
2.0095	6.74744
2.01	9.26514
2.0105	-0.30212
2.011	2.92053
2.0115	8.15735
2.012	11.78284
2.0125	8.7616
2.013	7.95593
2.0135	1.3092
2.014	5.0354
2.0145	0.90637
2.015	6.3446
2.0155	4.43115
2.016	5.84106
2.0165	-3.02124
2.017	2.31628
2.0175	4.12903
2.018	6.04248
2.0185	1.51062
2.019	6.04248
2.0195	3.32336
2.02	5.74036
2.0205	3.52478
2.021	4.73328
2.0215	3.02124
2.022	6.04248
2.0225	5.84106
2.023	3.22266
2.0235	0.20142
2.024	3.7262
2.0245	-0.50354
2.025	-0.70496
2.0255	6.2439
2.026	5.43823
2.0265	5.53894
2.027	6.14319
2.0275	4.22974
2.028	3.62549
2.0285	7.65381
2.029	3.42407
2.0295	9.46655
2.03	5.63965
2.0305	3.32336
2.031	8.8623
2.0315	5.53894
2.032	3.42407
2.0325	12.99133
2.033	10.17151
2.0335	9.36584
2.034	11.98425
2.0345	6.84814
2.035	4.22974
2.0355	1.81274
2.036	3.42407
2.0365	-0.90637
2.037	-1.3092
2.0375	5.23682
2.038	1.2085
2.0385	1.51062
2.039	2.21558
2.0395	3.52478
2.04	-0.10071
2.0405	2.92053
2.041	4.83398
2.0415	8.7616
2.042	3.7262
2.0425	0
2.043	3.32336
2.0435	2.01416
2.044	9.66797
2.0445	5.74036
2.045	1.40991
2.0455	4.83398
2.046	4.53186
2.0465	0.90637
2.047	5.13611
2.0475	1.51062
2.048	3.8269
2.0485	1.81274
2.049	14.09912
2.0495	7.15027
2.05	10.17151
2.0505	6.94885
2.051	16.41541
2.0515	14.30054
2.052	17.01965
2.0525	18.22815
2.053	16.21399
2.0535	11.98425
2.054	6.64673
2.0545	3.92761
2.055	3.32336
2.0555	4.12903
2.056	3.32336
2.0565	7.25098
2.057	8.7616
2.0575	9.56726
2.058	8.8623
2.0585	1.2085
2.059	1.40991
2.0595	-0.90637
2.06	4.63257
2.0605	8.8623
2.061	3.22266
2.0615	4.73328
2.062	5.74036
2.0625	8.45947
2.063	9.06372
2.0635	10.87646
2.064	7.15027
2.0645	6.54602
2.065	8.35876
2.0655	5.0354
2.066	5.43823
2.0665	1.40991
2.067	0.40283
2.0675	5.84106
2.068	3.8269
2.0685	9.46655
2.069	8.05664
2.0695	1.71204
2.07	4.73328
2.0705	5.74036
2.071	10.67505
2.0715	11.78284
2.072	12.89062
2.0725	7.45239
2.073	9.46655
2.0735	12.99133
2.074	3.12195
2.0745	5.53894
2.075	-0.80566
2.0755	-2.01416
2.076	-3.52478
2.0765	2.31628
2.077	-0.30212
2.0775	6.64673
2.078	0.60425
2.0785	1.10779
2.079	1.00708
2.0795	2.41699
2.08	2.81982
2.0805	7.35168
2.081	6.2439
2.0815	5.53894
2.082	6.04248
2.0825	2.41699
2.083	5.84106
2.0835	4.73328
2.084	10.57434
2.0845	10.57434
2.085	7.5531
2.0855	10.47363
2.086	4.73328
2.0865	6.44531
2.087	5.84106
2.0875	5.63965
2.088	8.45947
2.0885	15.50903
2.089	13.69629
2.0895	13.69629
2.09	9.26514
2.0905	4.83398
2.091	3.12195
2.0915	10.47363
2.092	3.62549
2.0925	6.94885
2.093	2.92053
2.0935	9.06372
2.094	3.52478
2.0945	2.5177
2.095	4.93469
2.0955	9.36584
2.096	10.0708
2.0965	6.3446
2.097	6.2439
2.0975	7.35168
2.098	7.75452
2.0985	7.95593
2.099	6.74744
2.0995	8.96301
2.1	2.71912
2.1005	-0.90637
2.101	1.61133
2.1015	1.81274
2.102	1.71204
2.1025	5.0354
2.103	1.61133
2.1035	5.33752
2.104	5.74036
2.1045	7.5531
2.105	1.2085
2.1055	8.15735
2.106	9.26514
2.1065	6.64673
2.107	6.94885
2.1075	6.74744
2.108	8.15735
2.1085	0.50354
2.109	2.81982
2.1095	3.52478
2.11	-0.50354
2.1105	4.83398
2.111	10.97717
2.1115	8.05664
2.112	16.71753
2.1125	19.13452
2.113	18.02673
2.1135	9.66797
2.114	13.89771
2.1145	13.19275
2.115	4.83398
2.1155	8.45947
2.116	11.98425
2.1165	7.04956
2.117	9.56726
2.1175	7.45239
2.118	0.10071
2.1185	2.31628
2.119	4.53186
2.1195	-1.51062
2.12	3.22266
2.1205	-0.30212
2.121	4.63257
2.1215	10.27222
2.122	2.5177
2.1225	3.52478
2.123	4.43115
2.1235	0.70496
2.124	3.02124
2.1245	3.8269
2.125	2.5177
2.1255	3.52478
2.126	1.10779
2.1265	-0.30212
2.127	-2.21558
2.1275	0.10071
2.128	-0.20142
2.1285	0.60425
2.129	3.32336
2.1295	-1.61133
2.13	3.7262
2.1305	-3.02124
2.131	2.11487
2.1315	0.10071
2.132	2.71912
2.1325	3.62549
2.133	-1.3092
2.1335	0.90637
2.134	0.30212
2.1345	-6.04248
2.135	-1.00708
2.1355	4.43115
2.136	1.81274
2.1365	1.71204
2.137	4.22974
2.1375	6.14319
2.138	-0.50354
2.1385	11.78284
2.139	0.10071
2.1395	0.20142
2.14	1.61133
2.1405	5.84106
2.141	5.23682
2.1415	8.56018
2.142	10.67505
2.1425	6.14319
2.143	13.09204
2.1435	9.66797
2.144	8.25806
2.1445	7.75452
2.145	11.88354
2.1455	10.87646
2.146	11.38
2.1465	11.38
2.147	6.14319
2.1475	5.53894
2.148	7.75452
2.1485	11.78284
2.149	12.78992
2.1495	3.22266
2.15	12.68921
2.1505	9.76868
2.151	14.30054
2.1515	9.46655
2.152	7.15027
2.1525	8.96301
2.153	7.75452
2.1535	9.46655
2.154	7.65381
2.1545	8.05664
2.155	10.67505
2.1555	8.25806
2.156	9.16443
2.1565	9.86938
2.157	13.19275
2.1575	2.61841
2.158	4.02832
2.1585	5.74036
2.159	3.42407
2.1595	1.61133
2.16	0
2.1605	-0.50354
2.161	0.50354
2.1615	5.74036
2.162	3.12195
2.1625	-2.31628
2.163	1.2085
2.1635	0.10071
2.164	3.42407
2.1645	0.80566
2.165	1.81274
2.1655	7.45239
2.166	9.36584
2.1665	11.78284
2.167	5.74036
2.1675	3.22266
2.168	3.22266
2.1685	2.71912
2.169	-3.32336
2.1695	2.21558
2.17	0.60425
2.1705	4.33044
2.171	-0.20142
2.1715	4.12903
2.172	-1.2085
2.1725	-0.90637
2.173	3.02124
2.1735	-0.10071
2.174	-0.70496
2.1745	8.05664
2.175	0.20142
2.1755	4.12903
2.176	6.64673
2.1765	13.29346
2.177	9.16443
2.1775	3.12195
2.178	6.44531
2.1785	0.20142
2.179	4.83398
2.1795	8.05664
2.18	7.15027
2.1805	4.22974
2.181	4.53186
2.1815	6.04248
2.182	10.47363
2.1825	8.56018
2.183	6.64673
2.1835	9.26514
2.184	9.06372
2.1845	5.0354
2.185	8.25806
2.1855	8.15735
2.186	7.45239
2.1865	5.0354
2.187	1.91345
2.1875	3.42407
2.188	6.74744
2.1885	2.92053
2.189	6.2439
2.1895	5.33752
2.19	1.51062
2.1905	0
2.191	-2.81982
2.1915	2.31628
2.192	2.61841
2.1925	5.94177
2.193	3.62549
2.1935	7.15027
2.194	7.04956
2.1945	9.16443
2.195	4.02832
2.1955	4.53186
2.196	6.94885
2.1965	3.8269
2.197	8.45947
2.1975	7.95593
2.198	8.15735
2.1985	7.04956
2.199	12.08496
2.1995	8.56018
2.2	6.54602
2.2005	5.23682
2.201	3.62549
2.2015	10.77576
2.202	4.22974
2.2025	5.33752
2.203	0.50354
2.2035	4.43115
2.204	4.43115
2.2045	9.16443
2.205	4.43115
2.2055	6.14319
2.206	4.02832
2.2065	3.42407
2.207	1.51062
2.2075	2.41699
2.208	-0.60425
2.2085	4.83398
2.209	8.56018
2.2095	6.14319
2.21	10.0708
2.2105	6.84814
2.211	4.63257
2.2115	2.81982
2.212	5.13611
2.2125	2.31628
2.213	3.8269
2.2135	5.74036
2.214	6.14319
2.2145	6.44531
2.215	4.22974
2.2155	4.02832
2.216	3.52478
2.2165	7.85522
2.217	9.86938
2.2175	6.84814
2.218	4.33044
2.2185	1.51062
2.219	6.04248
2.2195	2.61841
2.22	9.36584
2.2205	2.21558
2.221	9.76868
2.2215	8.25806
2.222	2.61841
2.2225	6.54602
2.223	0.50354
2.2235	7.45239
2.224	12.5885
2.2245	7.85522
2.225	5.33752
2.2255	10.67505
2.226	7.75452
2.2265	7.65381
2.227	1.91345
2.2275	8.15735
2.228	7.15027
2.2285	5.84106
2.229	7.95593
2.2295	7.5531
2.23	5.63965
2.2305	5.53894
2.231	5.23682
2.2315	3.12195
2.232	5.84106
2.2325	4.93469
2.233	-4.43115
2.2335	1.71204
2.234	1.00708
2.2345	3.42407
2.235	2.81982
2.2355	9.16443
2.236	2.5177
2.2365	7.25098
2.237	2.11487
2.2375	6.04248
2.238	5.43823
2.2385	9.97009
2.239	6.74744
2.2395	6.74744
2.24	5.74036
2.2405	3.02124
2.241	5.33752
2.2415	11.07788
2.242	8.25806
2.2425	7.85522
2.243	6.64673
2.2435	8.7616
2.244	4.93469
2.2445	4.93469
2.245	8.35876
2.2455	6.2439
2.246	8.45947
2.2465	6.2439
2.247	5.94177
2.2475	9.66797
2.248	11.48071
2.2485	10.57434
2.249	7.35168
2.2495	11.58142
2.25	9.86938
2.2505	4.63257
2.251	2.21558
2.2515	1.2085
2.252	-1.51062
2.2525	4.12903
2.253	-1.2085
2.2535	4.22974
2.254	1.61133
2.2545	6.84814
2.255	8.96301
2.2555	4.33044
2.256	3.62549
2.2565	5.84106
2.257	6.44531
2.2575	4.33044
2.258	6.94885
2.2585	1.40991
2.259	5.33752
2.2595	4.83398
2.26	-3.02124
2.2605	7.5531
2.261	0.20142
2.2615	5.43823
2.262	3.52478
2.2625	0.90637
2.263	2.61841
2.2635	7.25098
2.264	2.5177
2.2645	3.22266
2.265	7.45239
2.2655	11.38
2.266	13.29346
2.2665	11.38
2.267	13.39417
2.2675	11.07788
2.268	10.47363
2.2685	13.69629
2.269	5.43823
2.2695	2.21558
2.27	7.75452
2.2705	-0.20142
2.271	2.71912
2.2715	-0.30212
2.272	3.32336
2.2725	8.96301
2.273	2.5177
2.2735	10.87646
2.274	5.84106
2.2745	9.86938
2.275	8.45947
2.2755	0.90637
2.276	9.06372
2.2765	7.65381
2.277	3.52478
2.2775	7.65381
2.278	9.46655
2.2785	8.35876
2.279	16.11328
2.2795	9.46655
2.28	-0.60425
2.2805	10.67505
2.281	3.02124
2.2815	9.56726
2.282	3.92761
2.2825	6.94885
2.283	12.89062
2.2835	1.00708
2.284	-0.40283
2.2845	2.21558
2.285	6.84814
2.2855	0.90637
2.286	0
2.2865	5.0354
2.287	2.61841
2.2875	5.53894
2.288	6.94885
2.2885	5.53894
2.289	5.43823
2.2895	9.46655
2.29	8.66089
2.2905	7.65381
2.291	9.06372
2.2915	8.35876
2.292	7.85522
2.2925	11.2793
2.293	1.10779
2.2935	7.45239
2.294	0
2.2945	-1.00708
2.295	0.20142
2.2955	-3.12195
2.296	-1.00708
2.2965	-2.41699
2.297	2.31628
2.2975	3.52478
2.298	8.7616
2.2985	3.32336
2.299	8.8623
2.2995	1.81274
2.3	0.50354
2.3005	3.92761
2.301	1.51062
2.3015	3.52478
2.302	3.52478
2.3025	7.35168
2.303	3.62549
2.3035	2.01416
2.304	-1.2085
2.3045	6.3446
2.305	4.53186
2.3055	-6.3446
2.306	-5.63965
2.3065	1.91345
2.307	4.12903
2.3075	3.62549
2.308	2.41699
2.3085	1.81274
2.309	0.40283
2.3095	1.40991
2.31	8.7616
2.3105	6.94885
2.311	11.48071
2.3115	7.85522
2.312	0.50354
2.3125	9.26514
2.313	7.85522
2.3135	4.02832
2.314	5.13611
2.3145	5.84106
2.315	2.92053
2.3155	6.2439
2.316	3.32336
2.3165	4.83398
2.317	5.33752
2.3175	7.85522
2.318	5.53894
2.3185	5.33752
2.319	2.92053
2.3195	7.04956
2.32	3.62549
2.3205	-0.20142
2.321	3.52478
2.3215	6.2439
2.322	5.84106
2.3225	3.92761
2.323	4.33044
2.3235	6.14319
2.324	3.22266
2.3245	6.54602
2.325	8.66089
2.3255	9.06372
2.326	3.42407
2.3265	8.7616
2.327	0.70496
2.3275	2.61841
2.328	-0.10071
2.3285	7.5531
2.329	8.05664
2.3295	5.74036
2.33	5.84106
2.3305	7.45239
2.331	2.5177
2.3315	4.22974
2.332	2.5177
2.3325	4.43115
2.333	4.12903
2.3335	4.22974
2.334	5.53894
2.3345	8.66089
2.335	5.53894
2.3355	3.22266
2.336	7.45239
2.3365	8.7616
2.337	6.64673
2.3375	6.64673
2.338	6.3446
2.3385	-2.31628
2.339	1.2085
2.3395	1.61133
2.34	3.92761
2.3405	1.91345
2.341	3.62549
2.3415	3.7262
2.342	4.93469
2.3425	4.43115
2.343	1.40991
2.3435	2.41699
2.344	5.0354
2.3445	1.2085
2.345	5.74036
2.3455	10.0708
2.346	8.25806
2.3465	10.67505
2.347	7.85522
2.3475	9.66797
2.348	3.62549
2.3485	4.73328
2.349	7.15027
2.3495	7.45239
2.35	10.17151
2.3505	8.05664
2.351	10.57434
2.3515	8.45947
2.352	5.84106
2.3525	6.3446
2.353	7.35168
2.3535	4.22974
2.354	4.83398
2.3545	7.15027
2.355	7.45239
2.3555	6.14319
2.356	12.68921
2.3565	5.43823
2.357	9.76868
2.3575	5.43823
2.358	5.74036
2.3585	3.42407
2.359	3.02124
2.3595	3.7262
2.36	0.90637
2.3605	-0.60425
2.361	2.01416
2.3615	3.22266
2.362	3.62549
2.3625	1.61133
2.363	3.12195
2.3635	3.8269
2.364	-0.80566
2.3645	0.40283
2.365	7.65381
2.3655	2.11487
2.366	-0.50354
2.3665	7.85522
2.367	5.53894
2.3675	10.27222
2.368	7.15027
2.3685	6.84814
2.369	8.35876
2.3695	5.63965
2.37	7.5531
2.3705	10.27222
2.371	10.37292
2.3715	4.63257
2.372	6.54602
2.3725	0.80566
2.373	-0.60425
2.3735	0.50354
2.374	0.30212
2.3745	1.00708
2.375	5.94177
2.3755	7.75452
2.376	2.71912
2.3765	5.63965
2.377	2.71912
2.3775	2.81982
2.378	7.95593
2.3785	3.32336
2.379	5.94177
2.3795	7.04956
2.38	5.13611
2.3805	4.22974
2.381	9.46655
2.3815	2.5177
2.382	4.83398
2.3825	4.22974
2.383	3.92761
2.3835	9.06372
2.384	8.7616
2.3845	1.81274
2.385	7.35168
2.3855	4.63257
2.386	2.92053
2.3865	4.33044
2.387	7.45239
2.3875	5.74036
2.388	5.13611
2.3885	3.62549
2.389	2.5177
2.3895	4.73328
2.39	5.53894
2.3905	5.84106
2.391	9.66797
2.3915	5.43823
2.392	14.09912
2.3925	7.15027
2.393	2.81982
2.3935	5.0354
2.394	3.42407
2.3945	3.42407
2.395	3.92761
2.3955	7.35168
2.396	11.2793
2.3965	5.23682
2.397	7.95593
2.3975	11.17859
2.398	11.58142
2.3985	14.70337
2.399	14.90479
2.3995	10.57434
2.4	7.35168
2.4005	4.22974
2.401	8.15735
2.4015	7.5531
2.402	4.63257
2.4025	4.83398
2.403	6.84814
2.4035	4.73328
2.404	7.35168
2.4045	6.2439
2.405	4.02832
2.4055	2.31628
2.406	-2.31628
2.4065	-2.61841
2.407	9.56726
2.4075	0.20142
2.408	1.71204
2.4085	3.12195
2.409	8.35876
2.4095	11.78284
2.41	5.74036
2.4105	4.53186
2.411	14.19983
2.4115	10.77576
2.412	8.56018
2.4125	7.65381
2.413	4.63257
2.4135	3.02124
2.414	1.71204
2.4145	4.02832
2.415	3.12195
2.4155	7.5531
2.416	7.15027
2.4165	3.12195
2.417	0.50354
2.4175	7.25098
2.418	1.00708
2.4185	3.12195
2.419	8.7616
2.4195	5.13611
2.42	4.73328
2.4205	4.22974
2.421	7.45239
2.4215	1.51062
2.422	2.92053
2.4225	1.71204
2.423	3.32336
2.4235	5.84106
2.424	4.93469
2.4245	6.44531
2.425	5.33752
2.4255	6.04248
2.426	10.27222
2.4265	14.50195
2.427	7.25098
2.4275	6.84814
2.428	7.75452
2.4285	9.16443
2.429	9.66797
2.4295	11.07788
2.43	2.81982
2.4305	7.95593
2.431	1.3092
2.4315	-2.61841
2.432	3.12195
2.4325	6.14319
2.433	1.71204
2.4335	1.71204
2.434	-0.70496
2.4345	-4.12903
2.435	2.31628
2.4355	-0.90637
2.436	-4.43115
2.4365	1.61133
2.437	2.41699
2.4375	8.56018
2.438	5.0354
2.4385	5.43823
2.439	8.15735
2.4395	4.33044
2.44	6.74744
2.4405	4.63257
2.441	1.91345
2.4415	1.00708
2.442	0.40283
2.4425	1.71204
2.443	5.53894
2.4435	7.45239
2.444	9.26514
2.4445	5.43823
2.445	5.0354
2.4455	8.8623
2.446	5.84106
2.4465	-0.20142
2.447	11.48071
2.4475	4.33044
2.448	4.63257
2.4485	8.7616
2.449	5.23682
2.4495	1.2085
2.45	12.5885
2.4505	6.94885
2.451	0.20142
2.4515	3.8269
2.452	2.31628
2.4525	4.12903
2.453	-1.10779
2.4535	2.21558
2.454	14.30054
2.4545	11.07788
2.455	9.46655
2.4555	5.84106
2.456	8.05664
2.4565	8.56018
2.457	10.27222
2.4575	7.25098
2.458	9.26514
2.4585	7.85522
2.459	3.52478
2.4595	7.85522
2.46	5.43823
2.4605	7.35168
2.461	7.35168
2.4615	10.77576
2.462	8.96301
2.4625	4.43115
2.463	8.8623
2.4635	0
2.464	1.10779
2.4645	4.73328
2.465	1.51062
2.4655	-0.30212
2.466	0.60425
2.4665	-1.2085
2.467	-2.81982
2.4675	2.11487
2.468	-3.62549
2.4685	-0.10071
2.469	7.35168
2.4695	0.50354
2.47	-3.22266
2.4705	4.73328
2.471	1.71204
2.4715	8.56018
2.472	7.25098
2.4725	17.22107
2.473	8.8623
2.4735	7.15027
2.474	3.7262
2.4745	4.12903
2.475	3.62549
2.4755	2.5177
2.476	0.80566
2.4765	6.54602
2.477	9.26514
2.4775	9.86938
2.478	12.99133
2.4785	9.06372
2.479	7.95593
2.4795	6.3446
2.48	8.35876
2.4805	6.2439
2.481	5.23682
2.4815	4.53186
2.482	4.93469
2.4825	-1.40991
2.483	0.20142
2.4835	-0.50354
2.484	-2.31628
2.4845	2.11487
2.485	-0.60425
2.4855	-0.90637
2.486	-3.42407
2.4865	1.61133
2.487	1.10779
2.4875	-2.81982
2.488	-6.64673
2.4885	-0.70496
2.489	-1.91345
2.4895	3.02124
2.49	2.11487
2.4905	0.20142
2.491	5.94177
2.4915	-1.81274
2.492	2.11487
2.4925	1.2085
2.493	-2.21558
2.4935	4.53186
2.494	9.76868
2.4945	7.04956
2.495	6.54602
2.4955	5.13611
2.496	5.84106
2.4965	8.66089
2.497	14.09912
2.4975	5.43823
2.498	6.64673
2.4985	6.64673
2.499	3.42407
2.4995	6.3446
2.5	8.7616
2.5005	6.2439
2.501	11.78284
2.5015	14.70337
2.502	7.65381
2.5025	6.2439
2.503	6.94885
2.5035	2.01416
2.504	3.12195
2.5045	3.92761
2.505	2.01416
2.5055	1.40991
2.506	1.91345
2.5065	11.2793
2.507	11.07788
2.5075	10.0708
2.508	10.77576
2.5085	6.74744
2.509	8.35876
2.5095	0.90637
2.51	3.22266
2.5105	0.50354
2.511	0.50354
2.5115	2.31628
2.512	7.45239
2.5125	6.74744
2.513	0.40283
2.5135	8.45947
2.514	6.64673
2.5145	5.23682
2.515	4.02832
2.5155	4.02832
2.516	0.60425
2.5165	7.15027
2.517	9.66797
2.5175	5.84106
2.518	5.84106
2.5185	12.18567
2.519	8.8623
2.5195	7.04956
2.52	6.54602
2.5205	6.54602
2.521	10.0708
2.5215	10.37292
2.522	7.75452
2.5225	9.86938
2.523	7.45239
2.5235	5.33752
2.524	1.61133
2.5245	6.44531
2.525	8.56018
2.5255	4.93469
2.526	4.73328
2.5265	-0.10071
2.527	4.22974
2.5275	7.75452
2.528	9.86938
2.5285	1.40991
2.529	8.45947
2.5295	11.68213
2.53	2.92053
2.5305	4.22974
2.531	2.11487
2.5315	2.01416
2.532	3.92761
2.5325	8.15735
2.533	2.5177
2.5335	5.43823
2.534	4.63257
2.5345	9.26514
2.535	7.85522
2.5355	2.71912
2.536	11.78284
2.5365	5.74036
2.537	6.74744
2.5375	5.53894
2.538	1.71204
2.5385	4.22974
2.539	4.93469
2.5395	9.36584
2.54	6.14319
2.5405	4.83398
2.541	7.75452
2.5415	5.63965
2.542	6.2439
2.5425	5.84106
2.543	0.10071
2.5435	2.01416
2.544	10.17151
2.5445	14.90479
2.545	11.07788
2.5455	11.78284
2.546	9.56726
2.5465	10.77576
2.547	7.25098
2.5475	9.76868
2.548	10.17151
2.5485	5.74036
2.549	3.32336
2.5495	3.22266
2.55	5.63965
2.5505	6.3446
2.551	8.7616
2.5515	7.04956
2.552	4.12903
2.5525	-0.60425
2.553	3.42407
2.5535	8.56018
2.554	10.77576
2.5545	8.35876
2.555	1.40991
2.5555	10.97717
2.556	10.0708
2.5565	8.7616
2.557	7.25098
2.5575	10.97717
2.558	9.46655
2.5585	9.16443
2.559	7.5531
2.5595	5.94177
2.56	7.75452
2.5605	8.8623
2.561	15.71045
2.5615	13.59558
2.562	12.78992
2.5625	7.65381
2.563	7.45239
2.5635	5.13611
2.564	2.61841
2.5645	7.04956
2.565	8.8623
2.5655	3.62549
2.566	4.53186
2.5665	5.63965
2.567	8.05664
2.5675	9.56726
2.568	5.0354
2.5685	13.09204
2.569	5.33752
2.5695	5.43823
2.57	0.20142
2.5705	2.21558
2.571	5.13611
2.5715	8.96301
2.572	11.68213
2.5725	11.2793
2.573	11.58142
2.5735	11.2793
2.574	-1.40991
2.5745	8.45947
2.575	9.06372
2.5755	1.00708
2.576	5.43823
2.5765	6.54602
2.577	4.12903
2.5775	3.7262
2.578	4.53186
2.5785	2.92053
2.579	4.73328
2.5795	6.04248
2.58	5.53894
2.5805	8.15735
2.581	4.53186
2.5815	9.76868
2.582	4.73328
2.5825	5.63965
2.583	4.93469
2.5835	7.25098
2.584	7.04956
2.5845	5.84106
2.585	6.14319
2.5855	3.92761
2.586	5.13611
2.5865	6.2439
2.587	5.43823
2.5875	3.02124
2.588	5.53894
2.5885	7.85522
2.589	12.28638
2.5895	7.85522
2.59	6.74744
2.5905	9.26514
2.591	4.83398
2.5915	9.36584
2.592	11.48071
2.5925	6.3446
2.593	6.2439
2.5935	4.63257
2.594	8.35876
2.5945	5.53894
2.595	7.65381
2.5955	4.83398
2.596	6.14319
2.5965	6.14319
2.597	6.14319
2.5975	-0.30212
2.598	-1.61133
2.5985	-0.50354
2.599	-8.05664
2.5995	0.20142
2.6	-2.11487
2.6005	0.40283
2.601	1.61133
2.6015	4.12903
2.602	2.31628
2.6025	8.25806
2.603	6.44531
2.6035	6.64673
2.604	9.76868
2.6045	9.46655
2.605	8.15735
2.6055	9.26514
2.606	12.78992
2.6065	6.44531
2.607	10.17151
2.6075	3.02124
2.608	5.0354
2.6085	-0.90637
2.609	2.31628
2.6095	10.57434
2.61	6.64673
2.6105	8.7616
2.611	6.94885
2.6115	9.66797
2.612	7.25098
2.6125	8.25806
2.613	2.31628
2.6135	2.61841
2.614	6.74744
2.6145	7.65381
2.615	7.45239
2.6155	5.33752
2.616	6.74744
2.6165	4.73328
2.617	5.13611
2.6175	1.10779
2.618	5.74036
2.6185	10.87646
2.619	5.63965
2.6195	8.45947
2.62	6.64673
2.6205	6.2439
2.621	9.46655
2.6215	4.73328
2.622	-2.5177
2.6225	4.33044
2.623	0.30212
2.6235	6.74744
2.624	6.44531
2.6245	-1.00708
2.625	1.81274
2.6255	-0.30212
2.626	1.00708
2.6265	3.12195
2.627	3.02124
2.6275	1.3092
2.628	0.70496
2.6285	-1.3092
2.629	-2.81982
2.6295	-1.51062
2.63	1.2085
2.6305	0.10071
2.631	-0.30212
2.6315	-1.10779
2.632	-0.70496
2.6325	-1.81274
2.633	1.91345
2.6335	5.94177
2.634	5.43823
2.6345	6.74744
2.635	1.51062
2.6355	3.52478
2.636	3.52478
2.6365	6.74744
2.637	10.97717
2.6375	3.92761
2.638	5.33752
2.6385	7.15027
2.639	7.5531
2.6395	4.83398
2.64	11.07788
2.6405	3.52478
2.641	3.8269
2.6415	6.04248
2.642	4.22974
2.6425	6.94885
2.643	6.74744
2.6435	6.14319
2.644	6.44531
2.6445	4.83398
2.645	2.61841
2.6455	7.25098
2.646	3.22266
2.6465	4.53186
2.647	2.61841
2.6475	1.00708
2.648	-3.52478
2.6485	0
2.649	1.40991
2.6495	6.84814
2.65	2.5177
2.6505	4.63257
2.651	-1.10779
2.6515	5.63965
2.652	2.92053
2.6525	5.13611
2.653	3.7262
2.6535	8.56018
2.654	15.81116
2.6545	19.03381
2.655	15.00549
2.6555	10.87646
2.656	11.58142
2.6565	7.75452
2.657	8.8623
2.6575	6.3446
2.658	4.93469
2.6585	3.12195
2.659	6.04248
2.6595	4.12903
2.66	8.45947
2.6605	8.25806
2.661	2.81982
2.6615	1.10779
2.662	6.64673
2.6625	3.02124
2.663	6.2439
2.6635	5.23682
2.664	-2.5177
2.6645	5.84106
2.665	7.85522
2.6655	4.53186
2.666	2.71912
2.6665	4.43115
2.667	3.7262
2.6675	4.22974
2.668	1.2085
2.6685	4.12903
2.669	5.0354
2.6695	2.71912
2.67	1.91345
2.6705	-4.93469
2.671	0.60425
2.6715	2.11487
2.672	1.71204
2.6725	5.33752
2.673	-6.14319
2.6735	6.2439
2.674	11.78284
2.6745	10.47363
2.675	6.94885
2.6755	10.0708
2.676	6.04248
2.6765	2.61841
2.677	-4.33044
2.6775	2.71912
2.678	0
2.6785	3.8269
2.679	2.41699
2.6795	1.81274
2.68	4.02832
2.6805	4.22974
2.681	2.11487
2.6815	5.94177
2.682	1.10779
2.6825	5.23682
2.683	4.22974
2.6835	11.07788
2.684	2.92053
2.6845	5.74036
2.685	6.64673
2.6855	5.53894
2.686	7.25098
2.6865	6.44531
2.687	7.75452
2.6875	9.26514
2.688	6.54602
2.6885	5.63965
2.689	6.84814
2.6895	10.0708
2.69	6.84814
2.6905	4.02832
2.691	0.60425
2.6915	-1.10779
2.692	-1.10779
2.6925	2.5177
2.693	6.74744
2.6935	1.91345
2.694	-3.02124
2.6945	-1.81274
2.695	7.75452
2.6955	5.63965
2.696	5.43823
2.6965	4.53186
2.697	6.64673
2.6975	6.64673
2.698	0.90637
2.6985	4.12903
2.699	4.63257
2.6995	5.84106
2.7	3.42407
2.7005	5.43823
2.701	6.84814
2.7015	3.42407
2.702	2.71912
2.7025	5.23682
2.703	7.65381
2.7035	4.63257
2.704	2.01416
2.7045	5.23682
2.705	5.74036
2.7055	4.33044
2.706	4.12903
2.7065	2.01416
2.707	5.94177
2.7075	6.74744
2.708	6.2439
2.7085	8.45947
2.709	12.89062
2.7095	7.25098
2.71	7.35168
2.7105	13.99841
2.711	7.25098
2.7115	11.58142
2.712	8.7616
2.7125	10.67505
2.713	7.25098
2.7135	7.04956
2.714	6.2439
2.7145	2.21558
2.715	3.8269
2.7155	4.83398
2.716	6.84814
2.7165	7.75452
2.717	4.22974
2.7175	2.71912
2.718	3.32336
2.7185	-1.10779
2.719	1.91345
2.7195	0.70496
2.72	-0.20142
2.7205	1.51062
2.721	-2.21558
2.7215	3.32336
2.722	5.23682
2.7225	4.12903
2.723	8.15735
2.7235	6.64673
2.724	-0.20142
2.7245	5.13611
2.725	2.81982
2.7255	10.27222
2.726	10.97717
2.7265	16.21399
2.727	13.89771
2.7275	7.95593
2.728	4.93469
2.7285	6.64673
2.729	6.3446
2.7295	5.23682
2.73	1.71204
2.7305	7.75452
2.731	8.45947
2.7315	4.33044
2.732	5.23682
2.7325	4.33044
2.733	1.40991
2.7335	-1.3092
2.734	1.2085
2.7345	5.43823
2.735	-2.31628
2.7355	5.84106
2.736	-3.7262
2.7365	-2.01416
2.737	3.02124
2.7375	-1.00708
2.738	8.05664
2.7385	2.81982
2.739	1.51062
2.7395	1.3092
2.74	5.23682
2.7405	5.94177
2.741	8.8623
2.7415	0.60425
2.742	-2.71912
2.7425	-1.40991
2.743	2.31628
2.7435	6.84814
2.744	5.23682
2.7445	13.29346
2.745	9.36584
2.7455	7.95593
2.746	8.96301
2.7465	10.37292
2.747	10.87646
2.7475	14.09912
2.748	9.36584
2.7485	4.22974
2.749	4.73328
2.7495	8.96301
2.75	4.73328
2.7505	9.86938
2.751	0.90637
2.7515	9.26514
2.752	7.04956
2.7525	6.64673
2.753	3.52478
2.7535	2.31628
2.754	-3.22266
2.7545	3.8269
2.755	6.54602
2.7555	5.23682
2.756	1.00708
2.7565	5.33752
2.757	3.52478
2.7575	-3.7262
2.758	4.02832
2.7585	1.51062
2.759	7.5531
2.7595	-2.81982
2.76	-2.81982
2.7605	-1.61133
2.761	1.51062
2.7615	7.15027
2.762	5.23682
2.7625	7.04956
2.763	7.15027
2.7635	4.83398
2.764	11.88354
2.7645	8.96301
2.765	2.92053
2.7655	7.04956
2.766	7.45239
2.7665	5.0354
2.767	5.63965
2.7675	6.2439
2.768	5.53894
2.7685	7.04956
2.769	3.32336
2.7695	4.12903
2.77	6.64673
2.7705	0.50354
2.771	7.5531
2.7715	3.22266
2.772	5.84106
2.7725	4.73328
2.773	1.3092
2.7735	1.51062
2.774	1.51062
2.7745	-0.60425
2.775	-0.70496
2.7755	-0.70496
2.776	2.41699
2.7765	5.43823
2.777	4.12903
2.7775	2.81982
2.778	0.40283
2.7785	1.00708
2.779	6.3446
2.7795	5.43823
2.78	6.3446
2.7805	6.04248
2.781	4.22974
2.7815	4.53186
2.782	7.25098
2.7825	5.43823
2.783	3.92761
2.7835	-0.40283
2.784	1.10779
2.7845	2.01416
2.785	-0.50354
2.7855	-0.10071
2.786	3.22266
2.7865	5.0354
2.787	-0.30212
2.7875	2.21558
2.788	1.71204
2.7885	-0.10071
2.789	0.70496
2.7895	2.01416
2.79	5.13611
2.7905	6.94885
2.791	8.35876
2.7915	7.5531
2.792	10.0708
2.7925	10.0708
2.793	7.45239
2.7935	6.64673
2.794	2.71912
2.7945	6.04248
2.795	1.91345
2.7955	5.84106
2.796	5.74036
2.7965	7.45239
2.797	5.13611
2.7975	7.04956
2.798	10.97717
2.7985	7.95593
2.799	9.66797
2.7995	6.64673
2.8	4.83398
2.8005	6.3446
2.801	8.05664
2.8015	5.23682
2.802	11.17859
2.8025	3.42407
2.803	-0.10071
2.8035	8.05664
2.804	3.7262
2.8045	6.04248
2.805	6.54602
2.8055	4.53186
2.806	6.04248
2.8065	-0.50354
2.807	7.75452
2.8075	6.54602
2.808	4.93469
2.8085	-3.22266
2.809	0.30212
2.8095	6.3446
2.81	2.11487
2.8105	5.23682
2.811	6.54602
2.8115	5.0354
2.812	2.31628
2.8125	4.22974
2.813	4.83398
2.8135	8.66089
2.814	-0.60425
2.8145	6.44531
2.815	4.33044
2.8155	2.61841
2.816	3.12195
2.8165	1.40991
2.817	4.02832
2.8175	7.35168
2.818	8.45947
2.8185	10.37292
2.819	12.18567
2.8195	11.88354
2.82	8.7616
2.8205	8.96301
2.821	10.37292
2.8215	9.26514
2.822	7.95593
2.8225	5.43823
2.823	7.65381
2.8235	0.70496
2.824	-0.10071
2.8245	3.22266
2.825	6.14319
2.8255	1.91345
2.826	6.54602
2.8265	4.93469
2.827	4.22974
2.8275	8.15735
2.828	7.35168
2.8285	8.45947
2.829	4.22974
2.8295	4.22974
2.83	9.06372
2.8305	5.94177
2.831	3.12195
2.8315	8.8623
2.832	7.85522
2.8325	5.74036
2.833	7.15027
2.8335	6.74744
2.834	7.85522
2.8345	8.66089
2.835	5.63965
2.8355	6.44531
2.836	6.04248
2.8365	11.88354
2.837	8.25806
2.8375	6.04248
2.838	1.81274
2.8385	2.11487
2.839	2.41699
2.8395	3.92761
2.84	3.92761
2.8405	9.66797
2.841	7.85522
2.8415	3.62549
2.842	7.15027
2.8425	10.37292
2.843	11.2793
2.8435	5.0354
2.844	5.43823
2.8445	12.78992
2.845	12.18567
2.8455	6.2439
2.846	10.0708
2.8465	6.44531
2.847	6.74744
2.8475	7.75452
2.848	1.71204
2.8485	6.2439
2.849	7.04956
2.8495	5.13611
2.85	5.74036
2.8505	7.5531
2.851	1.71204
2.8515	2.92053
2.852	8.56018
2.8525	1.2085
2.853	-1.61133
2.8535	6.94885
2.854	8.56018
2.8545	3.42407
2.855	6.04248
2.8555	5.84106
2.856	3.12195
2.8565	4.93469
2.857	9.16443
2.8575	6.14319
2.858	0.40283
2.8585	0.70496
2.859	-4.33044
2.8595	-3.22266
2.86	-3.02124
2.8605	-5.94177
2.861	-8.15735
2.8615	-4.02832
2.862	-10.27222
2.8625	-3.92761
2.863	1.71204
2.8635	2.71912
2.864	3.7262
2.8645	5.23682
2.865	-0.30212
2.8655	0
2.866	2.11487
2.8665	0.20142
2.867	0
2.8675	5.84106
2.868	7.35168
2.8685	3.62549
2.869	3.8269
2.8695	1.2085
2.87	1.91345
2.8705	2.11487
2.871	7.04956
2.8715	2.92053
2.872	7.75452
2.8725	8.45947
2.873	11.88354
2.8735	7.75452
2.874	3.32336
2.8745	2.81982
2.875	0.60425
2.8755	3.52478
2.876	-3.12195
2.8765	8.05664
2.877	9.16443
2.8775	9.26514
2.878	10.0708
2.8785	12.18567
2.879	2.31628
2.8795	5.63965
2.88	6.3446
2.8805	4.02832
2.881	6.44531
2.8815	8.45947
2.882	4.12903
2.8825	6.64673
2.883	5.0354
2.8835	0.90637
2.884	12.18567
2.8845	8.66089
2.885	7.65381
2.8855	5.74036
2.886	6.94885
2.8865	7.25098
2.887	10.87646
2.8875	8.25806
2.888	9.66797
2.8885	8.8623
2.889	15.50903
2.8895	7.75452
2.89	7.65381
2.8905	3.32336
2.891	4.73328
2.8915	1.2085
2.892	6.94885
2.8925	2.92053
2.893	7.15027
2.8935	10.27222
2.894	10.17151
2.8945	10.87646
2.895	7.04956
2.8955	11.98425
2.896	2.71912
2.8965	9.66797
2.897	5.43823
2.8975	6.04248
2.898	7.04956
2.8985	3.22266
2.899	8.05664
2.8995	0.20142
2.9	7.04956
2.9005	8.25806
2.901	3.32336
2.9015	1.00708
2.902	4.73328
2.9025	4.73328
2.903	4.22974
2.9035	7.85522
2.904	8.96301
2.9045	7.25098
2.905	3.12195
2.9055	1.2085
2.906	1.2085
2.9065	5.43823
2.907	8.8623
2.9075	5.94177
2.908	8.8623
2.9085	10.27222
2.909	10.87646
2.9095	7.04956
2.91	3.8269
2.9105	1.00708
2.911	2.61841
2.9115	6.94885
2.912	5.13611
2.9125	3.32336
2.913	11.68213
2.9135	9.26514
2.914	6.94885
2.9145	8.45947
2.915	6.64673
2.9155	9.06372
2.916	6.14319
2.9165	7.35168
2.917	-1.2085
2.9175	1.71204
2.918	0.10071
2.9185	4.33044
2.919	8.25806
2.9195	4.22974
2.92	0.10071
2.9205	-0.10071
2.921	4.43115
2.9215	1.2085
2.922	9.16443
2.9225	10.57434
2.923	11.58142
2.9235	8.45947
2.924	7.45239
2.9245	7.85522
2.925	5.33752
2.9255	4.53186
2.926	9.86938
2.9265	7.75452
2.927	7.95593
2.9275	5.0354
2.928	4.53186
2.9285	3.42407
2.929	2.71912
2.9295	8.35876
2.93	3.42407
2.9305	3.42407
2.931	7.45239
2.9315	2.81982
2.932	0.40283
2.9325	8.15735
2.933	10.47363
2.9335	6.64673
2.934	-1.40991
2.9345	6.44531
2.935	3.22266
2.9355	5.53894
2.936	0.10071
2.9365	3.22266
2.937	4.43115
2.9375	2.92053
2.938	2.31628
2.9385	8.05664
2.939	3.62549
2.9395	5.84106
2.94	7.35168
2.9405	3.7262
2.941	4.63257
2.9415	-2.5177
2.942	7.04956
2.9425	9.66797
2.943	5.43823
2.9435	7.75452
2.944	8.45947
2.9445	8.66089
2.945	0.50354
2.9455	10.0708
2.946	9.16443
2.9465	10.67505
2.947	7.45239
2.9475	11.07788
2.948	7.15027
2.9485	5.33752
2.949	4.93469
2.9495	4.33044
2.95	2.81982
2.9505	7.45239
2.951	9.76868
2.9515	3.8269
2.952	7.04956
2.9525	6.44531
2.953	5.23682
2.9535	8.7616
2.954	4.43115
2.9545	4.53186
2.955	1.81274
2.9555	8.05664
2.956	0.40283
2.9565	1.3092
2.957	6.84814
2.9575	0.70496
2.958	5.43823
2.9585	10.87646
2.959	5.13611
2.9595	9.06372
2.96	4.93469
2.9605	5.63965
2.961	-3.22266
2.9615	1.2085
2.962	3.92761
2.9625	1.40991
2.963	1.10779
2.9635	2.5177
2.964	4.53186
2.9645	3.8269
2.965	10.37292
2.9655	5.63965
2.966	10.37292
2.9665	9.06372
2.967	13.99841
2.9675	8.96301
2.968	9.46655
2.9685	13.99841
2.969	13.19275
2.9695	11.48071
2.97	10.0708
2.9705	10.87646
2.971	12.38708
2.9715	7.5531
2.972	6.3446
2.9725	5.53894
2.973	1.61133
2.9735	5.13611
2.974	2.71912
2.9745	4.02832
2.975	4.02832
2.9755	1.2085
2.976	4.12903
2.9765	7.85522
2.977	6.04248
2.9775	1.2085
2.978	4.02832
2.9785	3.7262
2.979	2.31628
2.9795	5.53894
2.98	4.12903
2.9805	4.43115
2.981	3.52478
2.9815	4.43115
2.982	5.74036
2.9825	4.63257
2.983	9.86938
2.9835	9.06372
2.984	7.04956
2.9845	3.8269
2.985	7.45239
2.9855	3.32336
2.986	6.74744
2.9865	6.54602
2.987	3.7262
2.9875	1.2085
2.988	6.54602
2.9885	4.73328
2.989	5.53894
2.9895	5.53894
2.99	6.94885
2.9905	0.10071
2.991	9.26514
2.9915	10.37292
2.992	4.02832
2.9925	4.93469
2.993	10.87646
2.9935	11.88354
2.994	15.20691
2.9945	5.53894
2.995	7.04956
2.9955	0.40283
2.996	-1.2085
2.9965	0.70496
2.997	-1.51062
2.9975	3.12195
2.998	7.35168
2.9985	1.91345
2.999	3.42407
2.9995	3.02124
3	3.8269
3.0005	8.35876
3.001	7.75452
3.0015	0.40283
3.002	6.94885
3.0025	11.88354
3.003	1.2085
3.0035	7.85522
3.004	10.37292
3.0045	7.85522
3.005	1.3092
3.0055	6.04248
3.006	5.94177
3.0065	5.13611
3.007	4.93469
3.0075	3.32336
3.008	-0.20142
3.0085	0.20142
3.009	0.70496
3.0095	1.00708
3.01	0
3.0105	1.61133
3.011	2.61841
3.0115	3.02124
3.012	7.75452
3.0125	4.93469
3.013	9.56726
3.0135	10.17151
3.014	9.86938
3.0145	5.13611
3.015	3.52478
3.0155	7.25098
3.016	5.84106
3.0165	7.04956
3.017	6.14319
3.0175	7.85522
3.018	2.31628
3.0185	6.04248
3.019	5.53894
3.0195	7.15027
3.02	6.44531
3.0205	7.15027
3.021	-0.20142
3.0215	1.71204
3.022	6.2439
3.0225	-5.33752
3.023	2.92053
3.0235	3.02124
3.024	3.92761
3.0245	8.66089
3.025	5.0354
3.0255	3.42407
3.026	3.52478
3.0265	6.84814
3.027	8.15735
3.0275	9.97009
3.028	10.37292
3.0285	7.45239
3.029	6.94885
3.0295	3.7262
3.03	-0.60425
3.0305	8.15735
3.031	6.54602
3.0315	5.63965
3.032	11.2793
3.0325	6.2439
3.033	7.35168
3.0335	5.0354
3.034	4.53186
3.0345	7.25098
3.035	1.91345
3.0355	4.12903
3.036	7.45239
3.0365	2.71912
3.037	6.04248
3.0375	4.83398
3.038	-2.71912
3.0385	-1.61133
3.039	1.51062
3.0395	1.71204
3.04	5.74036
3.0405	3.7262
3.041	0.60425
3.0415	-0.20142
3.042	-2.92053
3.0425	2.41699
3.043	5.0354
3.0435	5.84106
3.044	5.13611
3.0445	2.5177
3.045	-0.30212
3.0455	3.02124
3.046	1.81274
3.0465	2.41699
3.047	1.81274
3.0475	0.80566
3.048	5.13611
3.0485	-0.40283
3.049	3.8269
3.0495	3.32336
3.05	5.84106
3.0505	8.8623
3.051	5.94177
3.0515	6.74744
3.052	1.91345
3.0525	7.75452
3.053	8.05664
3.0535	10.97717
3.054	6.84814
3.0545	2.92053
3.055	8.66089
3.0555	8.15735
3.056	5.43823
3.0565	3.32336
3.057	6.04248
3.0575	3.12195
3.058	3.92761
3.0585	8.8623
3.059	5.74036
3.0595	-0.10071
3.06	0.40283
3.0605	2.01416
3.061	9.06372
3.0615	9.06372
3.062	9.16443
3.0625	4.83398
3.063	1.81274
3.0635	2.31628
3.064	4.53186
3.0645	7.04956
3.065	6.54602
3.0655	1.81274
3.066	8.66089
3.0665	3.42407
3.067	6.64673
3.0675	4.83398
3.068	5.84106
3.0685	8.25806
3.069	6.2439
3.0695	6.94885
3.07	4.53186
3.0705	2.41699
3.071	6.04248
3.0715	4.02832
3.072	7.45239
3.0725	3.7262
3.073	8.45947
3.0735	8.45947
3.074	-3.32336
3.0745	0.50354
3.075	2.01416
3.0755	-2.5177
3.076	-0.50354
3.0765	4.43115
3.077	2.81982
3.0775	3.8269
3.078	8.35876
3.0785	4.83398
3.079	3.42407
3.0795	6.3446
3.08	7.45239
3.0805	6.84814
3.081	10.57434
3.0815	10.67505
3.082	8.45947
3.0825	9.66797
3.083	10.17151
3.0835	7.65381
3.084	9.06372
3.0845	10.87646
3.085	12.48779
3.0855	10.67505
3.086	7.75452
3.0865	10.27222
3.087	11.17859
3.0875	13.39417
3.088	8.7616
3.0885	1.71204
3.089	9.97009
3.0895	10.47363
3.09	13.59558
3.0905	11.98425
3.091	10.97717
3.0915	10.0708
3.092	9.36584
3.0925	7.25098
3.093	4.43115
3.0935	4.83398
3.094	8.05664
3.0945	11.78284
3.095	2.31628
3.0955	5.23682
3.096	8.45947
3.0965	7.25098
3.097	2.31628
3.0975	11.17859
3.098	2.01416
3.0985	1.81274
3.099	2.92053
3.0995	0
3.1	4.53186
3.1005	2.92053
3.101	0.90637
3.1015	-1.10779
3.102	1.81274
3.1025	3.8269
3.103	1.81274
3.1035	6.2439
3.104	13.19275
3.1045	5.23682
3.105	1.81274
3.1055	6.44531
3.106	7.95593
3.1065	9.66797
3.107	5.13611
3.1075	5.53894
3.108	5.63965
3.1085	10.87646
3.109	10.27222
3.1095	8.05664
3.11	6.64673
3.1105	9.36584
3.111	13.09204
3.1115	9.16443
3.112	4.93469
3.1125	8.7616
3.113	6.2439
3.1135	1.10779
3.114	0.40283
3.1145	2.01416
3.115	2.01416
3.1155	2.61841
3.116	12.48779
3.1165	8.45947
3.117	9.26514
3.1175	10.17151
3.118	10.77576
3.1185	16.81824
3.119	9.06372
3.1195	9.86938
3.12	8.56018
3.1205	10.87646
3.121	9.06372
3.1215	9.97009
3.122	13.69629
3.1225	6.2439
3.123	10.97717
3.1235	10.67505
3.124	12.18567
3.1245	9.66797
3.125	11.58142
3.1255	10.27222
3.126	6.44531
3.1265	8.15735
3.127	4.93469
3.1275	3.62549
3.128	8.45947
3.1285	5.74036
3.129	1.71204
3.1295	1.40991
3.13	5.13611
3.1305	4.33044
3.131	3.12195
3.1315	2.21558
3.132	6.84814
3.1325	2.21558
3.133	2.71912
3.1335	5.63965
3.134	2.21558
3.1345	1.00708
3.135	5.43823
3.1355	2.41699
3.136	3.62549
3.1365	3.92761
3.137	7.25098
3.1375	5.13611
3.138	5.94177
3.1385	1.10779
3.139	3.92761
3.1395	6.64673
3.14	6.84814
3.1405	12.5885
3.141	5.13611
3.1415	2.92053
3.142	6.2439
3.1425	5.0354
3.143	0.10071
3.1435	8.45947
3.144	5.94177
3.1445	4.63257
3.145	9.97009
3.1455	13.29346
3.146	8.35876
3.1465	-0.20142
3.147	5.23682
3.1475	8.25806
3.148	-0.10071
3.1485	-2.41699
3.149	-3.12195
3.1495	-3.62549
3.15	3.22266
3.1505	-3.12195
3.151	5.43823
3.1515	6.2439
3.152	4.83398
3.1525	12.28638
3.153	1.00708
3.1535	5.0354
3.154	9.66797
3.1545	3.52478
3.155	7.04956
3.1555	2.41699
3.156	12.68921
3.1565	14.70337
3.157	4.43115
3.1575	8.15735
3.158	5.43823
3.1585	7.65381
3.159	4.22974
3.1595	3.62549
3.16	6.94885
3.1605	2.71912
3.161	-0.30212
3.1615	3.22266
3.162	8.8623
3.1625	6.64673
3.163	1.71204
3.1635	-1.40991
3.164	2.61841
3.1645	5.43823
3.165	2.92053
3.1655	1.71204
3.166	2.11487
3.1665	6.54602
3.167	4.33044
3.1675	-1.00708
3.168	1.91345
3.1685	-0.30212
3.169	2.21558
3.1695	-1.51062
3.17	1.81274
3.1705	1.51062
3.171	1.51062
3.1715	2.31628
3.172	8.66089
3.1725	10.0708
3.173	0.10071
3.1735	4.93469
3.174	8.05664
3.1745	9.06372
3.175	10.97717
3.1755	9.76868
3.176	12.18567
3.1765	9.46655
3.177	4.12903
3.1775	5.74036
3.178	8.56018
3.1785	4.22974
3.179	7.95593
3.1795	9.06372
3.18	5.13611
3.1805	8.15735
3.181	4.93469
3.1815	6.44531
3.182	2.21558
3.1825	2.21558
3.183	8.8623
3.1835	7.95593
3.184	4.63257
3.1845	7.5531
3.185	7.75452
3.1855	5.63965
3.186	3.32336
3.1865	5.53894
3.187	3.8269
3.1875	1.81274
3.188	2.71912
3.1885	5.43823
3.189	8.05664
3.1895	-3.02124
3.19	1.61133
3.1905	-0.30212
3.191	5.23682
3.1915	2.21558
3.192	4.83398
3.1925	0.20142
3.193	4.02832
3.1935	1.91345
3.194	-0.60425
3.1945	3.52478
3.195	5.74036
3.1955	9.76868
3.196	6.54602
3.1965	4.83398
3.197	6.64673
3.1975	7.45239
3.198	4.63257
3.1985	-1.61133
3.199	1.91345
3.1995	3.02124
3.2	0.70496
3.2005	4.93469
3.201	5.13611
3.2015	5.63965
3.202	5.0354
3.2025	6.94885
3.203	5.53894
3.2035	3.62549
3.204	-5.43823
3.2045	-1.81274
3.205	3.92761
3.2055	-0.50354
3.206	-1.40991
3.2065	1.51062
3.207	1.40991
3.2075	1.91345
3.208	5.53894
3.2085	-0.50354
3.209	1.00708
3.2095	2.31628
3.21	13.19275
3.2105	10.67505
3.211	10.37292
3.2115	2.81982
3.212	6.74744
3.2125	7.45239
3.213	6.54602
3.2135	4.93469
3.214	10.37292
3.2145	10.97717
3.215	6.2439
3.2155	3.32336
3.216	5.33752
3.2165	1.40991
3.217	6.3446
3.2175	9.06372
3.218	2.31628
3.2185	2.5177
3.219	5.23682
3.2195	6.3446
3.22	8.8623
3.2205	3.8269
3.221	7.85522
3.2215	5.74036
3.222	4.43115
3.2225	4.43115
3.223	-0.20142
3.2235	2.71912
3.224	6.14319
3.2245	2.21558
3.225	5.63965
3.2255	4.33044
3.226	6.2439
3.2265	8.66089
3.227	4.93469
3.2275	8.66089
3.228	5.84106
3.2285	2.61841
3.229	0.80566
3.2295	3.62549
3.23	3.22266
3.2305	11.17859
3.231	5.84106
3.2315	5.43823
3.232	5.43823
3.2325	4.63257
3.233	-1.2085
3.2335	7.15027
3.234	1.91345
3.2345	-0.10071
3.235	5.0354
3.2355	1.2085
3.236	7.25098
3.2365	9.16443
3.237	9.16443
3.2375	10.57434
3.238	9.76868
3.2385	6.64673
3.239	4.22974
3.2395	4.22974
3.24	8.15735
3.2405	6.74744
3.241	1.3092
3.2415	7.35168
3.242	8.05664
3.2425	7.04956
3.243	1.71204
3.2435	3.32336
3.244	10.47363
3.2445	5.23682
3.245	5.43823
3.2455	4.63257
3.246	7.15027
3.2465	7.35168
3.247	1.71204
3.2475	2.21558
3.248	0.20142
3.2485	-0.50354
3.249	-1.3092
3.2495	6.64673
3.25	10.17151
3.2505	4.83398
3.251	2.5177
3.2515	-3.62549
3.252	4.33044
3.2525	2.41699
3.253	-2.31628
3.2535	3.62549
3.254	0.70496
3.2545	5.63965
3.255	2.41699
3.2555	-2.01416
3.256	-1.81274
3.2565	-1.51062
3.257	2.21558
3.2575	-0.10071
3.258	-2.31628
3.2585	1.00708
3.259	2.21558
3.2595	11.38
3.26	6.44531
3.2605	5.33752
3.261	10.27222
3.2615	2.61841
3.262	-0.20142
3.2625	2.61841
3.263	-2.31628
3.2635	-1.00708
3.264	4.02832
3.2645	5.63965
3.265	-3.12195
3.2655	2.11487
3.266	5.13611
3.2665	4.93469
3.267	3.12195
3.2675	-3.32336
3.268	3.92761
3.2685	4.53186
3.269	3.8269
3.2695	2.61841
3.27	-0.90637
3.2705	2.92053
3.271	7.45239
3.2715	5.53894
3.272	8.66089
3.2725	8.25806
3.273	4.63257
3.2735	5.74036
3.274	7.45239
3.2745	12.99133
3.275	5.33752
3.2755	6.04248
3.276	9.66797
3.2765	9.06372
3.277	13.49487
3.2775	10.47363
3.278	4.43115
3.2785	3.42407
3.279	7.25098
3.2795	-2.5177
3.28	-1.3092
3.2805	-0.40283
3.281	2.01416
3.2815	0.90637
3.282	0.40283
3.2825	0.20142
3.283	2.71912
3.2835	6.2439
3.284	2.92053
3.2845	2.61841
3.285	6.3446
3.2855	12.28638
3.286	9.16443
3.2865	8.35876
3.287	9.66797
3.2875	9.06372
3.288	10.87646
3.2885	12.78992
3.289	11.98425
3.2895	11.2793
3.29	11.88354
3.2905	11.38
3.291	10.37292
3.2915	9.16443
3.292	6.94885
3.2925	7.5531
3.293	10.77576
3.2935	6.94885
3.294	5.0354
3.2945	5.84106
3.295	3.8269
3.2955	4.53186
3.296	8.15735
3.2965	6.74744
3.297	7.45239
3.2975	9.46655
3.298	8.05664
3.2985	14.70337
3.299	8.56018
3.2995	5.94177
3.3	9.56726
3.3005	13.89771
3.301	6.84814
3.3015	0.70496
3.302	4.12903
3.3025	4.73328
3.303	0.70496
3.3035	3.32336
3.304	5.84106
3.3045	6.64673
3.305	1.00708
3.3055	7.25098
3.306	0.50354
3.3065	2.01416
3.307	4.02832
3.3075	1.81274
3.308	4.12903
3.3085	4.73328
3.309	1.71204
3.3095	1.40991
3.31	11.68213
3.3105	5.84106
3.311	3.62549
3.3115	-1.00708
3.312	4.43115
3.3125	5.23682
3.313	-1.61133
3.3135	2.81982
3.314	5.43823
3.3145	5.0354
3.315	4.12903
3.3155	3.22266
3.316	3.52478
3.3165	11.58142
3.317	10.57434
3.3175	13.89771
3.318	10.67505
3.3185	8.96301
3.319	10.0708
3.3195	5.33752
3.32	8.05664
3.3205	6.44531
3.321	8.05664
3.3215	1.00708
3.322	5.74036
3.3225	5.33752
3.323	6.3446
3.3235	-0.30212
3.324	6.44531
3.3245	8.8623
3.325	13.39417
3.3255	5.84106
3.326	4.83398
3.3265	10.67505
3.327	11.78284
3.3275	10.77576
3.328	0.30212
3.3285	4.02832
3.329	-2.92053
3.3295	2.71912
3.33	7.65381
3.3305	5.94177
3.331	1.51062
3.3315	3.62549
3.332	2.71912
3.3325	6.2439
3.333	8.25806
3.3335	5.94177
3.334	3.22266
3.3345	8.8623
3.335	14.40125
3.3355	7.25098
3.336	5.94177
3.3365	7.5531
3.337	0.50354
3.3375	4.43115
3.338	4.22974
3.3385	2.92053
3.339	4.43115
3.3395	-2.61841
3.34	-1.00708
3.3405	-3.7262
3.341	5.0354
3.3415	7.15027
3.342	12.18567
3.3425	8.25806
3.343	4.02832
3.3435	6.44531
3.344	5.84106
3.3445	5.13611
3.345	8.05664
3.3455	1.81274
3.346	6.54602
3.3465	5.43823
3.347	0.60425
3.3475	0.20142
3.348	2.01416
3.3485	1.71204
3.349	3.02124
3.3495	3.52478
3.35	3.52478
3.3505	5.13611
3.351	1.61133
3.3515	-0.40283
3.352	-3.12195
3.3525	1.2085
3.353	1.81274
3.3535	5.53894
3.354	3.32336
3.3545	11.2793
3.355	8.15735
3.3555	7.45239
3.356	9.16443
3.3565	4.53186
3.357	-1.2085
3.3575	5.53894
3.358	2.5177
3.3585	1.81274
3.359	3.22266
3.3595	9.97009
3.36	9.76868
3.3605	11.2793
3.361	11.88354
3.3615	5.53894
3.362	9.76868
3.3625	7.25098
3.363	8.05664
3.3635	3.62549
3.364	2.41699
3.3645	5.94177
3.365	5.74036
3.3655	3.52478
3.366	5.0354
3.3665	-1.2085
3.367	3.8269
3.3675	8.15735
3.368	1.00708
3.3685	3.7262
3.369	10.37292
3.3695	5.94177
3.37	2.81982
3.3705	7.04956
3.371	9.86938
3.3715	3.8269
3.372	1.2085
3.3725	0.70496
3.373	7.15027
3.3735	5.84106
3.374	5.0354
3.3745	5.94177
3.375	4.43115
3.3755	6.2439
3.376	5.94177
3.3765	5.94177
3.377	10.37292
3.3775	8.15735
3.378	9.06372
3.3785	10.77576
3.379	7.25098
3.3795	3.92761
3.38	9.26514
3.3805	9.16443
3.381	6.14319
3.3815	6.94885
3.382	7.25098
3.3825	3.62549
3.383	6.04248
3.3835	11.48071
3.384	8.56018
3.3845	10.27222
3.385	9.46655
3.3855	5.13611
3.386	7.04956
3.3865	10.17151
3.387	4.43115
3.3875	4.12903
3.388	4.12903
3.3885	11.68213
3.389	2.41699
3.3895	2.21558
3.39	8.66089
3.3905	13.09204
3.391	8.66089
3.3915	7.75452
3.392	6.84814
3.3925	9.86938
3.393	8.45947
3.3935	5.23682
3.394	7.75452
3.3945	-0.80566
3.395	1.3092
3.3955	4.12903
3.396	2.5177
3.3965	6.04248
3.397	8.25806
3.3975	9.76868
3.398	9.97009
3.3985	10.17151
3.399	12.18567
3.3995	9.26514
3.4	3.02124
3.4005	4.33044
3.401	9.76868
3.4015	13.69629
3.402	8.8623
3.4025	8.66089
3.403	3.42407
3.4035	6.64673
3.404	5.84106
3.4045	11.48071
3.405	0.90637
3.4055	5.74036
3.406	12.08496
3.4065	8.25806
3.407	7.75452
3.4075	1.40991
3.408	6.14319
3.4085	8.25806
3.409	5.74036
3.4095	9.46655
3.41	10.0708
3.4105	1.91345
3.411	4.12903
3.4115	6.54602
3.412	5.23682
3.4125	8.45947
3.413	9.06372
3.4135	8.25806
3.414	10.57434
3.4145	-1.61133
3.415	3.62549
3.4155	2.92053
3.416	0.40283
3.4165	-5.84106
3.417	-1.3092
3.4175	-1.71204
3.418	8.35876
3.4185	6.54602
3.419	5.74036
3.4195	5.53894
3.42	8.25806
3.4205	11.07788
3.421	8.15735
3.4215	10.27222
3.422	4.02832
3.4225	3.62549
3.423	8.56018
3.4235	4.02832
3.424	4.53186
3.4245	3.62549
3.425	9.16443
3.4255	6.2439
3.426	7.35168
3.4265	6.94885
3.427	5.53894
3.4275	8.45947
3.428	5.43823
3.4285	4.22974
3.429	0.80566
3.4295	-0.60425
3.43	3.8269
3.4305	4.43115
3.431	4.73328
3.4315	0.90637
3.432	2.61841
3.4325	2.5177
3.433	0.10071
3.4335	-1.51062
3.434	-0.70496
3.4345	5.63965
3.435	6.94885
3.4355	4.02832
3.436	6.54602
3.4365	7.45239
3.437	8.56018
3.4375	8.25806
3.438	7.35168
3.4385	2.61841
3.439	6.2439
3.4395	7.65381
3.44	6.94885
3.4405	9.46655
3.441	1.40991
3.4415	1.81274
3.442	3.02124
3.4425	5.33752
3.443	9.26514
3.4435	6.2439
3.444	4.83398
3.4445	5.74036
3.445	2.61841
3.4455	8.66089
3.446	0.90637
3.4465	5.23682
3.447	-0.40283
3.4475	2.01416
3.448	-1.00708
3.4485	0.10071
3.449	3.92761
3.4495	1.71204
3.45	4.33044
3.4505	2.61841
3.451	9.36584
3.4515	11.38
3.452	11.88354
3.4525	11.68213
3.453	8.15735
3.4535	4.73328
3.454	5.94177
3.4545	6.64673
3.455	3.42407
3.4555	4.02832
3.456	5.13611
3.4565	3.7262
3.457	1.10779
3.4575	4.33044
3.458	7.15027
3.4585	4.02832
3.459	2.41699
3.4595	9.97009
3.46	8.66089
3.4605	10.77576
3.461	10.27222
3.4615	9.16443
3.462	14.09912
3.4625	10.37292
3.463	13.69629
3.4635	7.65381
3.464	6.94885
3.4645	11.48071
3.465	7.75452
3.4655	0.10071
3.466	3.52478
3.4665	7.5531
3.467	7.35168
3.4675	7.5531
3.468	8.56018
3.4685	10.0708
3.469	7.35168
3.4695	4.63257
3.47	8.25806
3.4705	4.83398
3.471	4.93469
3.4715	9.97009
3.472	11.07788
3.4725	10.47363
3.473	15.81116
3.4735	9.06372
3.474	10.67505
3.4745	15.00549
3.475	8.56018
3.4755	4.02832
3.476	5.53894
3.4765	0.10071
3.477	4.02832
3.4775	5.94177
3.478	3.92761
3.4785	4.73328
3.479	5.94177
3.4795	4.73328
3.48	4.93469
3.4805	2.21558
3.481	3.32336
3.4815	5.53894
3.482	7.45239
3.4825	2.61841
3.483	3.7262
3.4835	7.35168
3.484	7.35168
3.4845	5.33752
3.485	9.26514
3.4855	4.12903
3.486	3.22266
3.4865	1.10779
3.487	7.04956
3.4875	4.22974
3.488	8.25806
3.4885	6.94885
3.489	8.25806
3.4895	10.27222
3.49	5.63965
3.4905	7.25098
3.491	6.84814
3.4915	-0.30212
3.492	4.02832
3.4925	4.93469
3.493	6.54602
3.4935	7.04956
3.494	9.76868
3.4945	9.16443
3.495	1.2085
3.4955	10.27222
3.496	8.7616
3.4965	5.74036
3.497	3.62549
3.4975	4.63257
3.498	2.21558
3.4985	5.74036
3.499	3.92761
3.4995	4.63257
3.5	5.53894
3.5005	5.53894
3.501	9.76868
3.5015	8.25806
3.502	1.61133
3.5025	2.5177
3.503	7.65381
3.5035	3.42407
3.504	6.44531
3.5045	1.71204
3.505	1.10779
3.5055	3.7262
3.506	3.92761
3.5065	5.0354
3.507	9.46655
3.5075	7.5531
3.508	8.56018
3.5085	4.83398
3.509	9.66797
3.5095	4.63257
3.51	3.8269
3.5105	4.43115
3.511	7.5531
3.5115	4.22974
3.512	6.14319
3.5125	5.74036
3.513	4.83398
3.5135	9.76868
3.514	9.46655
3.5145	14.30054
3.515	4.33044
3.5155	8.66089
3.516	3.42407
3.5165	1.81274
3.517	3.92761
3.5175	4.93469
3.518	5.33752
3.5185	11.78284
3.519	2.31628
3.5195	2.41699
3.52	-1.00708
3.5205	1.71204
3.521	2.71912
3.5215	5.63965
3.522	3.52478
3.5225	4.83398
3.523	4.73328
3.5235	3.62549
3.524	7.65381
3.5245	7.45239
3.525	7.85522
3.5255	4.02832
3.526	5.23682
3.5265	4.93469
3.527	3.92761
3.5275	4.73328
3.528	2.71912
3.5285	2.11487
3.529	1.00708
3.5295	1.10779
3.53	3.92761
3.5305	8.56018
3.531	2.21558
3.5315	0.80566
3.532	1.3092
3.5325	3.62549
3.533	3.52478
3.5335	5.0354
3.534	3.42407
3.5345	2.5177
3.535	2.31628
3.5355	3.8269
3.536	2.31628
3.5365	4.83398
3.537	1.10779
3.5375	3.8269
3.538	2.61841
3.5385	6.04248
3.539	1.3092
3.5395	8.45947
3.54	2.92053
3.5405	5.53894
3.541	10.57434
3.5415	6.3446
3.542	4.22974
3.5425	9.46655
3.543	7.45239
3.5435	4.93469
3.544	8.7616
3.5445	5.84106
3.545	4.53186
3.5455	3.7262
3.546	5.84106
3.5465	4.02832
3.547	9.06372
3.5475	1.51062
3.548	0.70496
3.5485	5.84106
3.549	6.3446
3.5495	5.74036
3.55	3.8269
3.5505	4.02832
3.551	6.54602
3.5515	7.35168
3.552	6.14319
3.5525	2.61841
3.553	5.84106
3.5535	5.0354
3.554	8.96301
3.5545	5.84106
3.555	2.5177
3.5555	7.35168
3.556	1.81274
3.5565	2.21558
3.557	0.20142
3.5575	5.84106
3.558	0.40283
3.5585	5.23682
3.559	11.2793
3.5595	8.45947
3.56	11.98425
3.5605	6.54602
3.561	6.54602
3.5615	6.54602
3.562	5.63965
3.5625	4.43115
3.563	6.74744
3.5635	5.23682
3.564	7.04956
3.5645	0.50354
3.565	7.85522
3.5655	7.45239
3.566	0.40283
3.5665	-0.40283
3.567	7.25098
3.5675	6.94885
3.568	5.63965
3.5685	5.33752
3.569	6.64673
3.5695	5.74036
3.57	9.46655
3.5705	5.84106
3.571	11.88354
3.5715	10.37292
3.572	5.74036
3.5725	0.60425
3.573	5.43823
3.5735	8.05664
3.574	4.93469
3.5745	7.45239
3.575	9.16443
3.5755	3.52478
3.576	6.74744
3.5765	3.7262
3.577	-2.71912
3.5775	5.94177
3.578	3.62549
3.5785	-1.81274
3.579	1.40991
3.5795	-3.8269
3.58	-0.10071
3.5805	3.8269
3.581	4.73328
3.5815	-1.71204
3.582	3.7262
3.5825	4.43115
3.583	4.33044
3.5835	0.80566
3.584	5.43823
3.5845	-0.50354
3.585	-2.81982
3.5855	-1.2085
3.586	2.01416
3.5865	-1.00708
3.587	-0.10071
3.5875	1.2085
3.588	2.5177
3.5885	3.02124
3.589	2.41699
3.5895	1.61133
3.59	0.50354
3.5905	-0.50354
3.591	3.62549
3.5915	8.35876
3.592	1.40991
3.5925	-0.50354
3.593	3.92761
3.5935	2.71912
3.594	-0.20142
3.5945	1.40991
3.595	2.92053
3.5955	-1.91345
3.596	5.74036
3.5965	2.92053
3.597	3.8269
3.5975	8.45947
3.598	1.00708
3.5985	2.11487
3.599	3.42407
3.5995	3.32336
3.6	1.00708
3.6005	5.63965
3.601	4.12903
3.6015	11.78284
3.602	7.95593
3.6025	4.93469
3.603	5.43823
3.6035	14.19983
3.604	12.99133
3.6045	4.53186
3.605	9.66797
3.6055	14.90479
3.606	3.8269
3.6065	1.00708
3.607	0.70496
3.6075	7.65381
3.608	11.98425
3.6085	11.07788
3.609	4.73328
3.6095	12.08496
3.61	12.08496
3.6105	10.47363
3.611	9.66797
3.6115	5.94177
3.612	11.68213
3.6125	7.25098
3.613	2.5177
3.6135	-3.12195
3.614	4.12903
3.6145	6.44531
3.615	5.13611
3.6155	11.78284
3.616	4.22974
3.6165	6.3446
3.617	3.02124
3.6175	4.53186
3.618	10.37292
3.6185	10.87646
3.619	4.63257
3.6195	0.70496
3.62	5.0354
3.6205	3.52478
3.621	-0.70496
3.6215	7.65381
3.622	7.95593
3.6225	9.56726
3.623	8.7616
3.6235	2.81982
3.624	4.43115
3.6245	0.10071
3.625	2.5177
3.6255	0.10071
3.626	4.22974
3.6265	2.01416
3.627	5.53894
3.6275	9.06372
3.628	8.15735
3.6285	14.90479
3.629	12.38708
3.6295	13.59558
3.63	13.89771
3.6305	10.17151
3.631	11.58142
3.6315	12.08496
3.632	10.57434
3.6325	10.27222
3.633	10.0708
3.6335	6.44531
3.634	9.86938
3.6345	1.51062
3.635	5.0354
3.6355	6.94885
3.636	3.42407
3.6365	2.21558
3.637	6.2439
3.6375	8.96301
3.638	5.84106
3.6385	5.13611
3.639	8.05664
3.6395	5.74036
3.64	3.02124
3.6405	5.84106
3.641	10.57434
3.6415	2.92053
3.642	4.02832
3.6425	6.64673
3.643	5.63965
3.6435	8.45947
3.644	8.35876
3.6445	5.63965
3.645	5.84106
3.6455	9.97009
3.646	1.71204
3.6465	5.94177
3.647	6.74744
3.6475	10.57434
3.648	10.17151
3.6485	9.76868
3.649	10.17151
3.6495	10.97717
3.65	8.66089
3.6505	2.21558
3.651	8.15735
3.6515	8.56018
3.652	13.69629
3.6525	12.28638
3.653	9.46655
3.6535	4.93469
3.654	1.40991
3.6545	-0.80566
3.655	2.61841
3.6555	-0.70496
3.656	1.91345
3.6565	-0.60425
3.657	1.10779
3.6575	5.74036
3.658	6.2439
3.6585	9.86938
3.659	18.32886
3.6595	7.5531
3.66	5.33752
3.6605	10.77576
3.661	10.37292
3.6615	8.56018
3.662	5.74036
3.6625	10.0708
3.663	7.45239
3.6635	4.63257
3.664	7.65381
3.6645	7.25098
3.665	-0.20142
3.6655	1.2085
3.666	5.0354
3.6665	6.3446
3.667	10.17151
3.6675	6.2439
3.668	6.04248
3.6685	3.92761
3.669	6.94885
3.6695	8.25806
3.67	6.44531
3.6705	3.92761
3.671	3.62549
3.6715	7.85522
3.672	4.83398
3.6725	10.47363
3.673	3.92761
3.6735	5.63965
3.674	7.35168
3.6745	1.61133
3.675	9.86938
3.6755	8.7616
3.676	7.45239
3.6765	6.64673
3.677	2.81982
3.6775	7.95593
3.678	4.12903
3.6785	10.27222
3.679	15.20691
3.6795	15.20691
3.68	11.38
3.6805	6.64673
3.681	2.81982
3.6815	7.04956
3.682	1.51062
3.6825	1.10779
3.683	5.84106
3.6835	4.12903
3.684	6.3446
3.6845	8.66089
3.685	8.56018
3.6855	12.28638
3.686	8.15735
3.6865	5.23682
3.687	1.81274
3.6875	1.40991
3.688	-0.20142
3.6885	5.33752
3.689	0.60425
3.6895	-0.50354
3.69	4.02832
3.6905	1.2085
3.691	0.80566
3.6915	3.52478
3.692	-0.40283
3.6925	-2.71912
3.693	-3.22266
3.6935	2.61841
3.694	-4.53186
3.6945	0.10071
3.695	0.50354
3.6955	-0.30212
3.696	0.20142
3.6965	1.00708
3.697	-0.50354
3.6975	7.25098
3.698	4.93469
3.6985	1.00708
3.699	2.71912
3.6995	5.84106
3.7	1.71204
3.7005	2.21558
3.701	3.02124
3.7015	7.25098
3.702	5.0354
3.7025	11.38
3.703	6.04248
3.7035	4.63257
3.704	1.91345
3.7045	-4.33044
3.705	-1.81274
3.7055	-3.02124
3.706	-5.63965
3.7065	-0.70496
3.707	1.61133
3.7075	2.01416
3.708	-0.50354
3.7085	-3.02124
3.709	2.5177
3.7095	1.71204
3.71	-1.91345
3.7105	1.91345
3.711	1.3092
3.7115	-1.91345
3.712	3.52478
3.7125	2.31628
3.713	2.61841
3.7135	6.04248
3.714	6.14319
3.7145	7.95593
3.715	-0.50354
3.7155	7.5531
3.716	7.25098
3.7165	3.22266
3.717	5.13611
3.7175	3.92761
3.718	5.94177
3.7185	2.61841
3.719	4.93469
3.7195	0.70496
3.72	0.50354
3.7205	5.63965
3.721	2.81982
3.7215	4.73328
3.722	3.02124
3.7225	7.25098
3.723	5.63965
3.7235	6.44531
3.724	9.36584
3.7245	5.0354
3.725	4.22974
3.7255	8.35876
3.726	14.70337
3.7265	10.0708
3.727	6.2439
3.7275	7.75452
3.728	3.7262
3.7285	1.2085
3.729	5.0354
3.7295	9.06372
3.73	7.04956
3.7305	0.90637
3.731	5.94177
3.7315	9.16443
3.732	10.87646
3.7325	5.0354
3.733	4.73328
3.7335	4.53186
3.734	7.65381
3.7345	5.94177
3.735	9.16443
3.7355	4.43115
3.736	7.04956
3.7365	6.14319
3.737	5.63965
3.7375	-2.01416
3.738	5.63965
3.7385	1.91345
3.739	4.63257
3.7395	4.73328
3.74	4.83398
3.7405	4.83398
3.741	-2.41699
3.7415	1.2085
3.742	7.45239
3.7425	7.5531
3.743	14.70337
3.7435	6.84814
3.744	1.51062
3.7445	7.5531
3.745	6.74744
3.7455	5.63965
3.746	6.3446
3.7465	9.36584
3.747	1.2085
3.7475	4.63257
3.748	1.61133
3.7485	6.04248
3.749	11.78284
3.7495	4.12903
3.75	4.63257
3.7505	7.75452
3.751	-1.10779
3.7515	3.8269
3.752	6.54602
3.7525	4.12903
3.753	2.41699
3.7535	9.56726
3.754	7.85522
3.7545	6.44531
3.755	10.27222
3.7555	6.2439
3.756	4.33044
3.7565	2.71912
3.757	6.54602
3.7575	7.85522
3.758	5.94177
3.7585	8.56018
3.759	7.85522
3.7595	7.85522
3.76	11.17859
3.7605	7.5531
3.761	8.96301
3.7615	9.36584
3.762	5.23682
3.7625	6.94885
3.763	5.33752
3.7635	2.61841
3.764	13.29346
3.7645	5.94177
3.765	5.33752
3.7655	5.33752
3.766	1.61133
3.7665	9.06372
3.767	-0.50354
3.7675	6.74744
3.768	4.93469
3.7685	4.83398
3.769	8.35876
3.7695	2.01416
3.77	6.54602
3.7705	2.92053
3.771	2.81982
3.7715	2.01416
3.772	4.02832
3.7725	4.83398
3.773	7.04956
3.7735	7.35168
3.774	6.54602
3.7745	6.74744
3.775	-3.32336
3.7755	6.94885
3.776	5.53894
3.7765	2.61841
3.777	2.61841
3.7775	-0.40283
3.778	5.33752
3.7785	1.91345
3.779	8.25806
3.7795	1.91345
3.78	7.35168
3.7805	3.42407
3.781	6.44531
3.7815	9.06372
3.782	2.71912
3.7825	4.43115
3.783	5.43823
3.7835	5.74036
3.784	3.22266
3.7845	1.40991
3.785	3.22266
3.7855	1.71204
3.786	7.95593
3.7865	1.2085
3.787	4.93469
3.7875	5.43823
3.788	5.33752
3.7885	4.22974
3.789	-0.90637
3.7895	-0.10071
3.79	1.51062
3.7905	3.92761
3.791	-0.90637
3.7915	0.10071
3.792	1.3092
3.7925	0.50354
3.793	1.2085
3.7935	3.92761
3.794	4.33044
3.7945	4.33044
3.795	1.40991
3.7955	3.32336
3.796	4.43115
3.7965	4.12903
3.797	0.50354
3.7975	-0.50354
3.798	4.63257
3.7985	6.04248
3.799	6.54602
3.7995	2.5177
3.8	0.40283
3.8005	3.42407
3.801	1.51062
3.8015	1.61133
3.802	2.5177
3.8025	7.04956
3.803	2.21558
3.8035	4.73328
3.804	0.40283
3.8045	4.33044
3.805	-2.41699
3.8055	1.2085
3.806	-5.63965
3.8065	-0.40283
3.807	0.30212
3.8075	9.26514
3.808	9.16443
3.8085	4.33044
3.809	3.8269
3.8095	12.18567
3.81	8.05664
3.8105	13.29346
3.811	12.18567
3.8115	12.68921
3.812	14.30054
3.8125	8.35876
3.813	10.0708
3.8135	10.47363
3.814	11.2793
3.8145	13.99841
3.815	10.37292
3.8155	16.41541
3.816	10.37292
3.8165	1.91345
3.817	5.63965
3.8175	8.35876
3.818	12.78992
3.8185	9.06372
3.819	7.45239
3.8195	6.54602
3.82	6.94885
3.8205	10.27222
3.821	6.04248
3.8215	7.04956
3.822	10.0708
3.8225	9.26514
3.823	7.75452
3.8235	7.45239
3.824	6.14319
3.8245	10.87646
3.825	4.12903
3.8255	7.85522
3.826	10.0708
3.8265	10.47363
3.827	4.12903
3.8275	8.56018
3.828	7.45239
3.8285	9.16443
3.829	11.07788
3.8295	10.37292
3.83	1.61133
3.8305	0.10071
3.831	7.15027
3.8315	0.40283
3.832	7.15027
3.8325	1.40991
3.833	2.5177
3.8335	-0.70496
3.834	0
3.8345	0.70496
3.835	1.2085
3.8355	4.93469
3.836	5.33752
3.8365	0.10071
3.837	4.73328
3.8375	1.40991
3.838	6.3446
3.8385	-1.61133
3.839	-0.60425
3.8395	6.14319
3.84	-0.40283
3.8405	-0.80566
3.841	4.53186
3.8415	5.94177
3.842	0.60425
3.8425	2.92053
3.843	7.85522
3.8435	5.63965
3.844	5.0354
3.8445	3.22266
3.845	3.7262
3.8455	4.63257
3.846	6.3446
3.8465	0.10071
3.847	5.84106
3.8475	6.84814
3.848	2.71912
3.8485	7.75452
3.849	5.53894
3.8495	7.35168
3.85	2.81982
3.8505	6.84814
3.851	5.74036
3.8515	8.15735
3.852	8.56018
3.8525	3.52478
3.853	9.86938
3.8535	4.93469
3.854	4.43115
3.8545	3.22266
3.855	8.25806
3.8555	4.33044
3.856	10.37292
3.8565	6.64673
3.857	8.45947
3.8575	10.87646
3.858	8.8623
3.8585	11.48071
3.859	13.19275
3.8595	8.56018
3.86	11.68213
3.8605	5.13611
3.861	4.53186
3.8615	10.37292
3.862	9.46655
3.8625	4.22974
3.863	4.02832
3.8635	8.66089
3.864	8.8623
3.8645	7.15027
3.865	6.64673
3.8655	11.07788
3.866	12.18567
3.8665	7.85522
3.867	7.04956
3.8675	6.44531
3.868	5.23682
3.8685	7.35168
3.869	3.7262
3.8695	5.0354
3.87	6.44531
3.8705	9.06372
3.871	3.62549
3.8715	7.95593
3.872	7.04956
3.8725	7.04956
3.873	1.51062
3.8735	-3.12195
3.874	1.40991
3.8745	6.04248
3.875	7.95593
3.8755	6.3446
3.876	5.94177
3.8765	4.73328
3.877	0.90637
3.8775	4.73328
3.878	-0.70496
3.8785	1.51062
3.879	5.94177
3.8795	10.27222
3.88	6.84814
3.8805	3.7262
3.881	3.8269
3.8815	-1.40991
3.882	-3.22266
3.8825	0.30212
3.883	-0.40283
3.8835	5.33752
3.884	7.5531
3.8845	6.94885
3.885	8.7616
3.8855	1.91345
3.886	6.74744
3.8865	4.43115
3.887	8.05664
3.8875	6.44531
3.888	7.5531
3.8885	4.22974
3.889	9.16443
3.8895	5.33752
3.89	5.43823
3.8905	3.42407
3.891	4.93469
3.8915	2.81982
3.892	6.64673
3.8925	8.25806
3.893	5.43823
3.8935	4.53186
3.894	5.33752
3.8945	3.92761
3.895	1.2085
3.8955	-2.01416
3.896	3.42407
3.8965	1.61133
3.897	5.74036
3.8975	4.22974
3.898	5.33752
3.8985	4.63257
3.899	5.74036
3.8995	4.02832
3.9	1.2085
3.9005	6.3446
3.901	8.45947
3.9015	7.35168
3.902	3.12195
3.9025	-3.42407
3.903	3.52478
3.9035	0.50354
3.904	0.10071
3.9045	1.81274
3.905	-0.30212
3.9055	2.11487
3.906	3.42407
3.9065	9.26514
3.907	5.94177
3.9075	5.53894
3.908	7.75452
3.9085	7.85522
3.909	5.23682
3.9095	10.17151
3.91	6.04248
3.9105	9.86938
3.911	7.85522
3.9115	2.01416
3.912	5.43823
3.9125	5.74036
3.913	7.95593
3.9135	3.22266
3.914	2.92053
3.9145	12.48779
3.915	7.5531
3.9155	12.38708
3.916	6.74744
3.9165	4.02832
3.917	8.15735
3.9175	5.94177
3.918	4.73328
3.9185	6.74744
3.919	7.04956
3.9195	9.26514
3.92	16.3147
3.9205	10.97717
3.921	10.87646
3.9215	8.56018
3.922	6.3446
3.9225	2.5177
3.923	2.92053
3.9235	7.35168
3.924	6.3446
3.9245	4.12903
3.925	3.7262
3.9255	7.5531
3.926	5.0354
3.9265	2.01416
3.927	5.33752
3.9275	6.44531
3.928	1.71204
3.9285	4.53186
3.929	2.41699
3.9295	3.52478
3.93	5.74036
3.9305	5.94177
3.931	7.65381
3.9315	6.94885
3.932	4.02832
3.9325	-0.90637
3.933	3.22266
3.9335	6.2439
3.934	2.61841
3.9345	3.02124
3.935	-1.00708
3.9355	-3.12195
3.936	2.61841
3.9365	1.71204
3.937	2.41699
3.9375	1.91345
3.938	-1.00708
3.9385	1.71204
3.939	2.81982
3.9395	5.23682
3.94	3.32336
3.9405	3.62549
3.941	4.43115
3.9415	5.23682
3.942	3.02124
3.9425	2.31628
3.943	-5.33752
3.9435	-1.00708
3.944	3.42407
3.9445	5.33752
3.945	7.04956
3.9455	8.35876
3.946	3.22266
3.9465	5.23682
3.947	2.71912
3.9475	9.76868
3.948	7.25098
3.9485	7.15027
3.949	4.93469
3.9495	9.26514
3.95	9.26514
3.9505	9.36584
3.951	7.45239
3.9515	1.61133
3.952	5.23682
3.9525	9.56726
3.953	6.3446
3.9535	7.65381
3.954	2.31628
3.9545	1.51062
3.955	0.40283
3.9555	1.3092
3.956	5.53894
3.9565	3.22266
3.957	4.02832
3.9575	3.52478
3.958	5.13611
3.9585	1.10779
3.959	1.81274
3.9595	1.61133
3.96	7.15027
3.9605	5.63965
3.961	1.2085
3.9615	2.11487
3.962	-3.52478
3.9625	-0.90637
3.963	6.04248
3.9635	12.18567
3.964	1.81274
3.9645	8.45947
3.965	8.05664
3.9655	4.83398
3.966	8.15735
3.9665	5.43823
3.967	-0.30212
3.9675	2.71912
3.968	2.41699
3.9685	-0.90637
3.969	2.92053
3.9695	4.73328
3.97	5.53894
3.9705	3.62549
3.971	4.93469
3.9715	10.37292
3.972	3.32336
3.9725	7.45239
3.973	8.7616
3.9735	5.33752
3.974	5.13611
3.9745	2.11487
3.975	0.20142
3.9755	3.52478
3.976	1.61133
3.9765	3.12195
3.977	5.84106
3.9775	2.31628
3.978	3.32336
3.9785	5.94177
3.979	5.13611
3.9795	10.37292
3.98	11.48071
3.9805	5.94177
3.981	9.86938
3.9815	4.53186
3.982	8.56018
3.9825	5.84106
3.983	8.15735
3.9835	2.31628
3.984	8.56018
3.9845	-0.60425
3.985	2.11487
3.9855	10.57434
3.986	6.64673
3.9865	9.86938
3.987	7.5531
3.9875	6.14319
3.988	11.17859
3.9885	11.07788
3.989	7.65381
3.9895	6.94885
3.99	3.7262
3.9905	4.43115
3.991	8.35876
3.9915	8.8623
3.992	7.04956
3.9925	9.66797
3.993	7.25098
3.9935	8.7616
3.994	3.32336
3.9945	5.13611
3.995	6.44531
3.9955	2.41699
3.996	5.23682
3.9965	-0.70496
3.997	2.5177
3.9975	-3.12195
3.998	-2.71912
3.9985	2.21558
3.999	0.70496
3.9995	0.20142
4	0.30212
4.0005	-0.50354
4.001	3.62549
4.0015	3.8269
4.002	3.02124
4.0025	2.31628
4.003	2.41699
4.0035	6.2439
4.004	6.14319
4.0045	12.38708
4.005	11.2793
4.0055	10.37292
4.006	6.3446
4.0065	1.91345
4.007	9.97009
4.0075	3.8269
4.008	2.11487
4.0085	-2.11487
4.009	3.92761
4.0095	2.71912
4.01	8.96301
4.0105	8.66089
4.011	2.92053
4.0115	4.73328
4.012	1.51062
4.0125	3.62549
4.013	-1.51062
4.0135	0.20142
4.014	-3.12195
4.0145	1.10779
4.015	2.71912
4.0155	-2.31628
4.016	3.22266
4.0165	2.71912
4.017	-1.51062
4.0175	-1.91345
4.018	-1.00708
4.0185	0.30212
4.019	4.12903
4.0195	0.10071
4.02	8.66089
4.0205	9.76868
4.021	-2.71912
4.0215	5.84106
4.022	1.71204
4.0225	2.11487
4.023	-0.80566
4.0235	4.53186
4.024	4.63257
4.0245	-1.2085
4.025	5.74036
4.0255	1.61133
4.026	0.60425
4.0265	-2.61841
4.027	-1.2085
4.0275	7.35168
4.028	9.26514
4.0285	16.71753
4.029	13.39417
4.0295	9.66797
4.03	7.15027
4.0305	7.75452
4.031	8.45947
4.0315	12.08496
4.032	8.56018
4.0325	7.35168
4.033	10.0708
4.0335	9.06372
4.034	4.63257
4.0345	12.28638
4.035	4.93469
4.0355	6.14319
4.036	10.77576
4.0365	7.75452
4.037	2.01416
4.0375	4.83398
4.038	7.5531
4.0385	5.84106
4.039	3.22266
4.0395	5.43823
4.04	-2.61841
4.0405	9.56726
4.041	0.60425
4.0415	5.74036
4.042	2.31628
4.0425	5.74036
4.043	2.01416
4.0435	5.33752
4.044	3.52478
4.0445	-1.40991
4.045	2.92053
4.0455	2.21558
4.046	5.53894
4.0465	9.46655
4.047	1.2085
4.0475	5.74036
4.048	3.62549
4.0485	5.74036
4.049	-4.53186
4.0495	10.37292
4.05	8.56018
4.0505	4.73328
4.051	-0.40283
4.0515	1.81274
4.052	-3.8269
4.0525	-1.91345
4.053	1.71204
4.0535	-3.8269
4.054	3.42407
4.0545	4.63257
4.055	1.00708
4.0555	8.05664
4.056	4.12903
4.0565	2.31628
4.057	6.44531
4.0575	5.33752
4.058	0.60425
4.0585	4.93469
4.059	7.45239
4.0595	8.15735
4.06	8.35876
4.0605	5.33752
4.061	3.12195
4.0615	4.73328
4.062	1.91345
4.0625	4.83398
4.063	9.06372
4.0635	4.33044
4.064	9.36584
4.0645	13.09204
4.065	4.02832
4.0655	1.2085
4.066	4.02832
4.0665	-0.80566
4.067	-1.91345
4.0675	-1.2085
4.068	-2.11487
4.0685	-1.40991
4.069	3.02124
4.0695	1.61133
4.07	-3.52478
4.0705	-1.91345
4.071	0.80566
4.0715	5.0354
4.072	6.64673
4.0725	0.40283
4.073	8.96301
4.0735	5.43823
4.074	6.84814
4.0745	7.35168
4.075	2.41699
4.0755	9.86938
4.076	9.26514
4.0765	8.8623
4.077	8.45947
4.0775	10.77576
4.078	11.68213
4.0785	10.97717
4.079	8.96301
4.0795	10.27222
4.08	1.91345
4.0805	4.83398
4.081	5.84106
4.0815	11.38
4.082	6.3446
4.0825	3.7262
4.083	11.38
4.0835	12.38708
4.084	6.3446
4.0845	8.05664
4.085	14.70337
4.0855	9.66797
4.086	10.47363
4.0865	10.37292
4.087	5.53894
4.0875	7.04956
4.088	5.53894
4.0885	10.57434
4.089	13.59558
4.0895	5.63965
4.09	8.56018
4.0905	6.54602
4.091	2.81982
4.0915	9.86938
4.092	6.3446
4.0925	5.53894
4.093	5.84106
4.0935	7.5531
4.094	4.63257
4.0945	3.8269
4.095	2.41699
4.0955	1.81274
4.096	2.21558
4.0965	9.56726
4.097	4.43115
4.0975	5.84106
4.098	-0.90637
4.0985	1.00708
4.099	3.42407
4.0995	-1.61133
4.1	5.94177
4.1005	4.93469
4.101	11.48071
4.1015	8.45947
4.102	10.97717
4.1025	10.57434
4.103	6.54602
4.1035	15.60974
4.104	14.40125
4.1045	11.38
4.105	11.78284
4.1055	8.35876
4.106	3.02124
4.1065	9.06372
4.107	4.22974
4.1075	0
4.108	2.41699
4.1085	0.10071
4.109	-1.00708
4.1095	6.54602
4.11	7.95593
4.1105	3.92761
4.111	8.56018
4.1115	8.35876
4.112	1.81274
4.1125	4.73328
4.113	4.02832
4.1135	8.8623
4.114	4.43115
4.1145	11.48071
4.115	4.73328
