Gianluca_La_Polta_Left_1.c3d  



Time(s):	B_R_bicipite(μV):
0	4.63257
0.0005	2.61841
0.001	-7.85522
0.0015	-9.86938
0.002	-7.65381
0.0025	-4.02832
0.003	3.52478
0.0035	4.43115
0.004	7.15027
0.0045	4.02832
0.005	1.91345
0.0055	12.18567
0.006	13.49487
0.0065	17.6239
0.007	22.6593
0.0075	24.97559
0.008	21.65222
0.0085	14.60266
0.009	17.42249
0.0095	20.84656
0.01	20.54443
0.0105	17.72461
0.011	18.22815
0.0115	17.42249
0.012	14.90479
0.0125	16.51611
0.013	17.22107
0.0135	16.71753
0.014	13.99841
0.0145	11.07788
0.015	11.88354
0.0155	10.17151
0.016	12.08496
0.0165	8.96301
0.017	8.35876
0.0175	11.38
0.018	5.33752
0.0185	8.25806
0.019	11.88354
0.0195	10.27222
0.02	6.3446
0.0205	8.96301
0.021	16.51611
0.0215	18.8324
0.022	18.53027
0.0225	12.89062
0.023	8.45947
0.0235	13.797
0.024	8.66089
0.0245	7.75452
0.025	5.33752
0.0255	7.5531
0.026	11.38
0.0265	11.88354
0.027	5.94177
0.0275	2.61841
0.028	9.36584
0.0285	5.13611
0.029	5.43823
0.0295	6.04248
0.03	2.61841
0.0305	-2.01416
0.031	-3.92761
0.0315	4.53186
0.032	1.10779
0.0325	-3.22266
0.033	3.12195
0.0335	0.60425
0.034	0.60425
0.0345	0.30212
0.035	0.60425
0.0355	18.42957
0.036	30.31311
0.0365	32.32727
0.037	21.45081
0.0375	18.8324
0.038	10.97717
0.0385	-2.21558
0.039	-15.20691
0.0395	-21.45081
0.04	-24.97559
0.0405	-33.33435
0.041	-33.03223
0.0415	-20.74585
0.042	-19.03381
0.0425	-8.66089
0.043	2.92053
0.0435	-0.70496
0.044	6.74744
0.0445	9.36584
0.045	7.85522
0.0455	9.56726
0.046	7.85522
0.0465	6.94885
0.047	16.91895
0.0475	12.48779
0.048	11.98425
0.0485	17.32178
0.049	23.16284
0.0495	24.97559
0.05	25.68054
0.0505	20.64514
0.051	17.12036
0.0515	20.04089
0.052	16.51611
0.0525	16.61682
0.053	10.87646
0.0535	11.17859
0.054	16.71753
0.0545	12.08496
0.055	9.26514
0.0555	8.35876
0.056	12.89062
0.0565	3.62549
0.057	7.35168
0.0575	13.09204
0.058	7.35168
0.0585	7.04956
0.059	9.76868
0.0595	9.66797
0.06	12.5885
0.0605	8.35876
0.061	9.76868
0.0615	3.8269
0.062	8.45947
0.0625	8.8623
0.063	11.58142
0.0635	7.35168
0.064	8.35876
0.0645	3.7262
0.065	9.26514
0.0655	19.23523
0.066	19.63806
0.0665	20.24231
0.067	24.77417
0.0675	19.13452
0.068	15.40833
0.0685	5.23682
0.069	-2.71912
0.0695	-5.84106
0.07	-9.46655
0.0705	-11.48071
0.071	-6.04248
0.0715	-7.04956
0.072	-3.22266
0.0725	16.61682
0.073	88.72375
0.0735	132.93457
0.074	167.67883
0.0745	162.2406
0.075	134.5459
0.0755	97.38464
0.076	46.12427
0.0765	2.31628
0.077	-26.78833
0.0775	-48.84338
0.078	-66.56799
0.0785	-93.55774
0.079	-106.64978
0.0795	-110.07385
0.08	-118.13049
0.0805	-107.65686
0.081	-96.57898
0.0815	-78.55225
0.082	-66.36658
0.0825	-57.60498
0.083	-44.0094
0.0835	-32.52869
0.084	-29.91028
0.0845	-17.72461
0.085	-14.19983
0.0855	-15.60974
0.086	-5.63965
0.0865	0.40283
0.087	20.74585
0.0875	30.71594
0.088	39.27612
0.0885	41.18958
0.089	40.48462
0.0895	43.40515
0.09	42.49878
0.0905	45.2179
0.091	46.62781
0.0915	47.63489
0.092	33.63647
0.0925	36.4563
0.093	31.11877
0.0935	27.39258
0.094	22.76001
0.0945	22.6593
0.095	22.55859
0.0955	18.73169
0.096	19.53735
0.0965	16.81824
0.097	14.19983
0.0975	16.71753
0.098	10.77576
0.0985	14.60266
0.099	9.36584
0.0995	14.60266
0.1	16.3147
0.1005	7.85522
0.101	3.92761
0.1015	2.61841
0.102	7.45239
0.1025	10.17151
0.103	6.64673
0.1035	12.38708
0.104	8.7616
0.1045	9.66797
0.105	6.94885
0.1055	8.35876
0.106	5.23682
0.1065	5.13611
0.107	3.12195
0.1075	0.60425
0.108	3.62549
0.1085	2.61841
0.109	-0.90637
0.1095	-1.61133
0.11	2.61841
0.1105	-0.60425
0.111	1.51062
0.1115	-0.10071
0.112	0.40283
0.1125	8.45947
0.113	23.96851
0.1135	33.13293
0.114	38.77258
0.1145	29.30603
0.115	19.53735
0.1155	4.22974
0.116	-5.43823
0.1165	-13.29346
0.117	-23.06213
0.1175	-34.44214
0.118	-30.11169
0.1185	-24.57275
0.119	-9.86938
0.1195	-1.51062
0.12	0.40283
0.1205	1.61133
0.121	8.8623
0.1215	24.16992
0.122	31.82373
0.1225	32.32727
0.123	26.48621
0.1235	19.63806
0.124	13.29346
0.1245	6.04248
0.125	5.23682
0.1255	0.40283
0.126	-5.63965
0.1265	-8.56018
0.127	-2.61841
0.1275	-17.01965
0.128	-13.797
0.1285	-17.32178
0.129	-10.97717
0.1295	-14.30054
0.13	-8.7616
0.1305	3.02124
0.131	3.92761
0.1315	4.63257
0.132	-5.74036
0.1325	-11.58142
0.133	-12.89062
0.1335	-15.00549
0.134	-21.45081
0.1345	-20.04089
0.135	-12.89062
0.1355	-5.53894
0.136	-4.53186
0.1365	5.23682
0.137	11.78284
0.1375	20.04089
0.138	13.49487
0.1385	9.76868
0.139	11.07788
0.1395	7.85522
0.14	11.68213
0.1405	9.56726
0.141	10.0708
0.1415	3.92761
0.142	8.25806
0.1425	14.90479
0.143	17.72461
0.1435	20.04089
0.144	16.11328
0.1445	10.17151
0.145	7.45239
0.1455	9.36584
0.146	4.22974
0.1465	-0.80566
0.147	2.31628
0.1475	-2.11487
0.148	1.81274
0.1485	-2.21558
0.149	0.30212
0.1495	0.10071
0.15	-4.33044
0.1505	-7.45239
0.151	-7.45239
0.1515	-6.64673
0.152	-3.7262
0.1525	4.43115
0.153	8.25806
0.1535	6.3446
0.154	12.89062
0.1545	18.32886
0.155	21.14868
0.1555	17.72461
0.156	14.19983
0.1565	5.33752
0.157	-4.83398
0.1575	-12.38708
0.158	-26.58691
0.1585	-24.27063
0.159	-25.57983
0.1595	-20.64514
0.16	-29.70886
0.1605	-23.16284
0.161	-23.46497
0.1615	-21.14868
0.162	-18.8324
0.1625	-13.29346
0.163	-5.63965
0.1635	-9.66797
0.164	-6.54602
0.1645	-7.15027
0.165	2.92053
0.1655	-0.50354
0.166	25.177
0.1665	62.03613
0.167	93.35632
0.1675	126.08643
0.168	137.76855
0.1685	132.12891
0.169	112.89368
0.1695	78.45154
0.17	43.80798
0.1705	-2.81982
0.171	-41.79382
0.1715	-69.48853
0.172	-65.15808
0.1725	-58.41064
0.173	-60.72693
0.1735	-48.54126
0.174	-25.88196
0.1745	-19.13452
0.175	-2.92053
0.1755	-2.11487
0.176	-1.00708
0.1765	-2.5177
0.177	-2.81982
0.1775	5.53894
0.178	21.3501
0.1785	26.98975
0.179	27.59399
0.1795	36.85913
0.18	54.38232
0.1805	47.23206
0.181	51.36108
0.1815	54.0802
0.182	48.23914
0.1825	43.70728
0.183	28.50037
0.1835	18.42957
0.184	11.88354
0.1845	5.84106
0.185	5.33752
0.1855	2.92053
0.186	-3.12195
0.1865	-6.94885
0.187	-8.56018
0.1875	-10.67505
0.188	-7.95593
0.1885	-13.09204
0.189	-8.96301
0.1895	-5.94177
0.19	-6.54602
0.1905	-6.64673
0.191	-7.75452
0.1915	0.10071
0.192	3.12195
0.1925	2.11487
0.193	3.92761
0.1935	1.00708
0.194	-2.21558
0.1945	-2.71912
0.195	-0.80566
0.1955	0
0.196	-0.80566
0.1965	-9.06372
0.197	-7.5531
0.1975	-2.21558
0.198	-6.74744
0.1985	-4.83398
0.199	-0.80566
0.1995	-7.65381
0.2	-5.53894
0.2005	-6.44531
0.201	-5.84106
0.2015	-0.50354
0.202	-3.7262
0.2025	-2.61841
0.203	-2.5177
0.2035	-4.02832
0.204	2.31628
0.2045	2.21558
0.205	2.21558
0.2055	3.7262
0.206	6.2439
0.2065	-0.10071
0.207	6.3446
0.2075	6.3446
0.208	2.31628
0.2085	-0.30212
0.209	-0.70496
0.2095	-0.90637
0.21	-2.21558
0.2105	3.42407
0.211	3.52478
0.2115	1.61133
0.212	3.8269
0.2125	6.84814
0.213	6.14319
0.2135	2.92053
0.214	10.17151
0.2145	3.32336
0.215	12.5885
0.2155	6.84814
0.216	6.44531
0.2165	5.0354
0.217	7.5531
0.2175	7.85522
0.218	4.83398
0.2185	8.56018
0.219	7.75452
0.2195	7.25098
0.22	6.04248
0.2205	11.38
0.221	8.35876
0.2215	8.15735
0.222	5.43823
0.2225	7.5531
0.223	3.92761
0.2235	3.52478
0.224	5.84106
0.2245	8.66089
0.225	10.37292
0.2255	9.36584
0.226	9.97009
0.2265	4.02832
0.227	5.33752
0.2275	1.71204
0.228	6.14319
0.2285	4.53186
0.229	6.04248
0.2295	11.78284
0.23	14.40125
0.2305	10.67505
0.231	9.76868
0.2315	9.46655
0.232	11.68213
0.2325	10.77576
0.233	13.19275
0.2335	9.97009
0.234	8.45947
0.2345	8.05664
0.235	8.66089
0.2355	16.81824
0.236	11.2793
0.2365	11.68213
0.237	7.95593
0.2375	10.0708
0.238	5.84106
0.2385	5.53894
0.239	7.5531
0.2395	8.15735
0.24	7.75452
0.2405	7.65381
0.241	10.17151
0.2415	17.22107
0.242	7.35168
0.2425	10.87646
0.243	11.17859
0.2435	6.2439
0.244	9.66797
0.2445	10.97717
0.245	15.00549
0.2455	9.56726
0.246	9.06372
0.2465	13.89771
0.247	14.60266
0.2475	18.73169
0.248	21.14868
0.2485	24.77417
0.249	25.07629
0.2495	25.177
0.25	20.74585
0.2505	16.71753
0.251	12.48779
0.2515	8.15735
0.252	0.20142
0.2525	2.5177
0.253	-1.2085
0.2535	2.21558
0.254	0.50354
0.2545	3.7262
0.255	2.71912
0.2555	5.43823
0.256	0.70496
0.2565	4.73328
0.257	4.43115
0.2575	-0.10071
0.258	-1.51062
0.2585	-0.60425
0.259	0.70496
0.2595	-7.95593
0.26	-14.30054
0.2605	-12.48779
0.261	-9.26514
0.2615	-6.74744
0.262	-9.76868
0.2625	-5.94177
0.263	-9.36584
0.2635	-6.54602
0.264	-6.04248
0.2645	-9.86938
0.265	-3.52478
0.2655	-1.71204
0.266	-2.5177
0.2665	-1.10779
0.267	1.2085
0.2675	2.11487
0.268	0.70496
0.2685	2.31628
0.269	7.15027
0.2695	3.02124
0.27	11.2793
0.2705	8.45947
0.271	3.8269
0.2715	1.51062
0.272	-1.51062
0.2725	5.94177
0.273	3.32336
0.2735	1.10779
0.274	1.91345
0.2745	7.45239
0.275	4.12903
0.2755	1.71204
0.276	0
0.2765	2.81982
0.277	5.63965
0.2775	1.71204
0.278	0.60425
0.2785	-0.50354
0.279	3.52478
0.2795	7.65381
0.28	-3.42407
0.2805	1.71204
0.281	7.75452
0.2815	11.38
0.282	2.01416
0.2825	4.63257
0.283	2.41699
0.2835	4.93469
0.284	3.42407
0.2845	6.84814
0.285	8.66089
0.2855	8.8623
0.286	5.23682
0.2865	12.68921
0.287	15.91187
0.2875	10.27222
0.288	9.66797
0.2885	16.71753
0.289	17.01965
0.2895	19.03381
0.29	18.8324
0.2905	16.51611
0.291	12.78992
0.2915	15.1062
0.292	18.63098
0.2925	16.11328
0.293	18.32886
0.2935	11.88354
0.294	11.07788
0.2945	14.90479
0.295	17.52319
0.2955	16.11328
0.296	22.35718
0.2965	20.54443
0.297	16.01257
0.2975	16.41541
0.298	15.40833
0.2985	12.99133
0.299	8.45947
0.2995	11.68213
0.3	12.28638
0.3005	8.96301
0.301	6.14319
0.3015	6.54602
0.302	4.22974
0.3025	4.33044
0.303	6.64673
0.3035	4.02832
0.304	3.8269
0.3045	7.25098
0.305	11.2793
0.3055	6.14319
0.306	10.67505
0.3065	10.27222
0.307	9.66797
0.3075	14.70337
0.308	10.97717
0.3085	11.98425
0.309	10.17151
0.3095	8.35876
0.31	6.44531
0.3105	11.17859
0.311	11.98425
0.3115	10.97717
0.312	8.66089
0.3125	7.25098
0.313	10.57434
0.3135	13.99841
0.314	6.54602
0.3145	8.66089
0.315	4.22974
0.3155	7.75452
0.316	2.92053
0.3165	11.17859
0.317	3.92761
0.3175	7.35168
0.318	7.04956
0.3185	10.27222
0.319	4.53186
0.3195	1.3092
0.32	4.63257
0.3205	6.54602
0.321	4.83398
0.3215	4.93469
0.322	14.40125
0.3225	8.35876
0.323	4.43115
0.3235	7.65381
0.324	5.53894
0.3245	15.60974
0.325	6.84814
0.3255	8.96301
0.326	12.78992
0.3265	10.47363
0.327	6.3446
0.3275	4.83398
0.328	7.75452
0.3285	13.69629
0.329	5.53894
0.3295	14.30054
0.33	9.86938
0.3305	6.94885
0.331	8.35876
0.3315	9.06372
0.332	9.16443
0.3325	6.54602
0.333	11.2793
0.3335	5.0354
0.334	13.19275
0.3345	9.86938
0.335	9.56726
0.3355	11.38
0.336	4.02832
0.3365	6.14319
0.337	7.35168
0.3375	9.06372
0.338	4.02832
0.3385	4.93469
0.339	4.43115
0.3395	8.8623
0.34	6.2439
0.3405	13.49487
0.341	12.68921
0.3415	9.16443
0.342	6.54602
0.3425	5.0354
0.343	9.36584
0.3435	5.63965
0.344	3.42407
0.3445	4.53186
0.345	3.22266
0.3455	1.10779
0.346	5.0354
0.3465	1.91345
0.347	-2.01416
0.3475	0.60425
0.348	2.31628
0.3485	6.3446
0.349	2.5177
0.3495	-3.7262
0.35	-0.20142
0.3505	3.02124
0.351	-1.3092
0.3515	4.63257
0.352	3.62549
0.3525	5.63965
0.353	1.3092
0.3535	-0.10071
0.354	0.70496
0.3545	1.3092
0.355	-1.00708
0.3555	2.21558
0.356	-0.20142
0.3565	0
0.357	-5.94177
0.3575	-0.50354
0.358	-1.71204
0.3585	-0.80566
0.359	2.61841
0.3595	-1.71204
0.36	-7.25098
0.3605	0.90637
0.361	0
0.3615	1.81274
0.362	4.22974
0.3625	-0.40283
0.363	-3.52478
0.3635	4.43115
0.364	3.7262
0.3645	4.53186
0.365	2.21558
0.3655	1.81274
0.366	2.01416
0.3665	1.51062
0.367	-1.00708
0.3675	3.12195
0.368	1.71204
0.3685	3.92761
0.369	2.5177
0.3695	2.31628
0.37	7.45239
0.3705	4.33044
0.371	10.57434
0.3715	10.87646
0.372	10.0708
0.3725	6.64673
0.373	10.17151
0.3735	5.84106
0.374	7.75452
0.3745	9.36584
0.375	11.88354
0.3755	8.8623
0.376	3.92761
0.3765	3.92761
0.377	2.71912
0.3775	4.93469
0.378	1.71204
0.3785	4.53186
0.379	-0.20142
0.3795	-1.2085
0.38	-0.80566
0.3805	0.50354
0.381	5.74036
0.3815	3.42407
0.382	2.21558
0.3825	7.15027
0.383	3.52478
0.3835	5.74036
0.384	4.63257
0.3845	5.74036
0.385	6.54602
0.3855	9.97009
0.386	2.21558
0.3865	1.2085
0.387	3.12195
0.3875	4.53186
0.388	4.33044
0.3885	10.87646
0.389	2.21558
0.3895	6.74744
0.39	3.42407
0.3905	1.71204
0.391	4.83398
0.3915	4.53186
0.392	5.84106
0.3925	6.04248
0.393	5.33752
0.3935	-3.32336
0.394	-5.23682
0.3945	-7.15027
0.395	-14.30054
0.3955	-11.48071
0.396	-15.71045
0.3965	-17.52319
0.397	-10.97717
0.3975	-15.40833
0.398	-10.0708
0.3985	-11.17859
0.399	-7.25098
0.3995	-7.85522
0.4	-3.22266
0.4005	-2.11487
0.401	-0.70496
0.4015	3.32336
0.402	8.35876
0.4025	5.94177
0.403	11.68213
0.4035	11.68213
0.404	16.61682
0.4045	18.93311
0.405	26.18408
0.4055	20.34302
0.406	19.63806
0.4065	18.12744
0.407	23.36426
0.4075	21.3501
0.408	25.88196
0.4085	27.09045
0.409	27.79541
0.4095	24.67346
0.41	23.36426
0.4105	18.22815
0.411	21.55151
0.4115	12.5885
0.412	15.91187
0.4125	11.07788
0.413	10.97717
0.4135	16.21399
0.414	15.20691
0.4145	12.99133
0.415	11.38
0.4155	9.66797
0.416	9.86938
0.4165	11.68213
0.417	11.38
0.4175	7.5531
0.418	11.38
0.4185	9.97009
0.419	7.35168
0.4195	5.23682
0.42	2.01416
0.4205	3.22266
0.421	8.7616
0.4215	7.5531
0.422	2.01416
0.4225	10.97717
0.423	11.48071
0.4235	5.0354
0.424	7.04956
0.4245	5.53894
0.425	1.51062
0.4255	4.22974
0.426	4.22974
0.4265	3.52478
0.427	4.02832
0.4275	4.53186
0.428	2.11487
0.4285	5.94177
0.429	2.71912
0.4295	2.61841
0.43	7.85522
0.4305	12.18567
0.431	2.92053
0.4315	3.62549
0.432	2.71912
0.4325	4.02832
0.433	5.13611
0.4335	3.02124
0.434	-4.43115
0.4345	0.40283
0.435	-3.92761
0.4355	0.60425
0.436	2.71912
0.4365	1.61133
0.437	10.27222
0.4375	5.23682
0.438	3.32336
0.4385	2.01416
0.439	-0.70496
0.4395	2.41699
0.44	-3.02124
0.4405	-4.63257
0.441	-3.92761
0.4415	-3.32336
0.442	1.81274
0.4425	-0.10071
0.443	3.62549
0.4435	-2.21558
0.444	-1.3092
0.4445	-2.31628
0.445	0.60425
0.4455	2.11487
0.446	9.76868
0.4465	6.74744
0.447	4.33044
0.4475	5.0354
0.448	3.42407
0.4485	6.2439
0.449	-0.60425
0.4495	-7.5531
0.45	-3.92761
0.4505	0
0.451	-0.70496
0.4515	-3.7262
0.452	4.63257
0.4525	2.61841
0.453	2.11487
0.4535	1.51062
0.454	6.74744
0.4545	-3.8269
0.455	0.40283
0.4555	2.81982
0.456	0.90637
0.4565	0.60425
0.457	-0.40283
0.4575	4.02832
0.458	10.77576
0.4585	3.02124
0.459	3.52478
0.4595	8.45947
0.46	2.31628
0.4605	3.42407
0.461	4.53186
0.4615	-2.92053
0.462	5.74036
0.4625	-0.60425
0.463	1.3092
0.4635	4.02832
0.464	3.62549
0.4645	2.01416
0.465	1.61133
0.4655	2.21558
0.466	2.61841
0.4665	9.16443
0.467	9.76868
0.4675	4.12903
0.468	6.64673
0.4685	11.78284
0.469	11.48071
0.4695	7.25098
0.47	4.02832
0.4705	7.45239
0.471	10.37292
0.4715	7.45239
0.472	2.71912
0.4725	5.13611
0.473	9.76868
0.4735	6.14319
0.474	4.12903
0.4745	10.37292
0.475	11.88354
0.4755	5.13611
0.476	2.92053
0.4765	-0.50354
0.477	2.5177
0.4775	5.13611
0.478	-1.51062
0.4785	1.71204
0.479	0.10071
0.4795	-0.30212
0.48	3.32336
0.4805	4.33044
0.481	9.46655
0.4815	8.7616
0.482	10.67505
0.4825	8.66089
0.483	5.33752
0.4835	1.91345
0.484	4.12903
0.4845	4.12903
0.485	10.17151
0.4855	8.56018
0.486	10.0708
0.4865	14.60266
0.487	18.93311
0.4875	15.1062
0.488	14.90479
0.4885	10.57434
0.489	11.58142
0.4895	7.75452
0.49	10.37292
0.4905	14.60266
0.491	10.67505
0.4915	17.42249
0.492	18.12744
0.4925	18.32886
0.493	16.71753
0.4935	12.08496
0.494	12.08496
0.4945	8.56018
0.495	12.38708
0.4955	9.26514
0.496	6.54602
0.4965	9.56726
0.497	5.43823
0.4975	8.96301
0.498	9.86938
0.4985	13.09204
0.499	13.99841
0.4995	11.07788
0.5	4.53186
0.5005	8.45947
0.501	14.60266
0.5015	11.48071
0.502	7.45239
0.5025	6.2439
0.503	2.92053
0.5035	1.40991
0.504	0.80566
0.5045	5.33752
0.505	-0.70496
0.5055	-3.32336
0.506	2.01416
0.5065	-3.42407
0.507	-1.81274
0.5075	-2.81982
0.508	-3.8269
0.5085	-2.11487
0.509	-8.56018
0.5095	-1.00708
0.51	-3.7262
0.5105	-3.02124
0.511	-2.01416
0.5115	1.10779
0.512	1.40991
0.5125	1.51062
0.513	3.8269
0.5135	1.91345
0.514	1.61133
0.5145	-4.33044
0.515	-4.33044
0.5155	-8.15735
0.516	0.20142
0.5165	8.8623
0.517	5.53894
0.5175	1.91345
0.518	1.2085
0.5185	2.31628
0.519	1.2085
0.5195	3.22266
0.52	5.13611
0.5205	4.33044
0.521	6.64673
0.5215	10.17151
0.522	9.76868
0.5225	13.99841
0.523	18.53027
0.5235	17.72461
0.524	15.60974
0.5245	15.71045
0.525	11.98425
0.5255	12.28638
0.526	10.77576
0.5265	18.93311
0.527	18.32886
0.5275	18.63098
0.528	14.50195
0.5285	16.21399
0.529	9.86938
0.5295	2.92053
0.53	-0.20142
0.5305	-5.94177
0.531	-1.40991
0.5315	-2.11487
0.532	0
0.5325	4.63257
0.533	7.75452
0.5335	14.19983
0.534	18.12744
0.5345	13.39417
0.535	11.17859
0.5355	8.35876
0.536	4.83398
0.5365	8.66089
0.537	8.25806
0.5375	2.31628
0.538	3.92761
0.5385	4.73328
0.539	5.94177
0.5395	9.66797
0.54	7.15027
0.5405	10.67505
0.541	6.84814
0.5415	1.91345
0.542	0.70496
0.5425	1.61133
0.543	-4.12903
0.5435	-9.97009
0.544	-6.64673
0.5445	-9.06372
0.545	-11.38
0.5455	-3.62549
0.546	-3.52478
0.5465	6.44531
0.547	3.12195
0.5475	7.35168
0.548	14.60266
0.5485	10.27222
0.549	8.56018
0.5495	7.45239
0.55	8.25806
0.5505	13.69629
0.551	11.58142
0.5515	12.28638
0.552	16.01257
0.5525	19.33594
0.553	19.94019
0.5535	10.37292
0.554	16.51611
0.5545	12.99133
0.555	12.68921
0.5555	9.46655
0.556	5.13611
0.5565	4.12903
0.557	3.02124
0.5575	6.84814
0.558	6.84814
0.5585	3.22266
0.559	6.74744
0.5595	7.04956
0.56	21.3501
0.5605	32.42798
0.561	30.2124
0.5615	27.79541
0.562	25.57983
0.5625	19.13452
0.563	5.23682
0.5635	-6.44531
0.564	-11.68213
0.5645	-21.04797
0.565	-28.80249
0.5655	-32.32727
0.566	-25.78125
0.5665	-14.40125
0.567	-1.91345
0.5675	10.27222
0.568	16.61682
0.5685	17.32178
0.569	25.78125
0.5695	22.55859
0.57	21.95435
0.5705	16.71753
0.571	23.46497
0.5715	16.3147
0.572	19.73877
0.5725	19.13452
0.573	22.96143
0.5735	22.45789
0.574	25.68054
0.5745	25.07629
0.575	18.53027
0.5755	11.88354
0.576	8.56018
0.5765	12.68921
0.577	10.47363
0.5775	8.25806
0.578	10.57434
0.5785	8.15735
0.579	4.02832
0.5795	9.36584
0.58	6.04248
0.5805	6.54602
0.581	12.38708
0.5815	16.61682
0.582	16.01257
0.5825	21.75293
0.583	29.40674
0.5835	30.11169
0.584	27.09045
0.5845	33.03223
0.585	45.62073
0.5855	49.85046
0.586	49.64905
0.5865	48.33984
0.587	44.51294
0.5875	30.51453
0.588	24.47205
0.5885	27.79541
0.589	27.09045
0.5895	21.65222
0.59	13.39417
0.5905	6.2439
0.591	1.40991
0.5915	-16.01257
0.592	-19.63806
0.5925	-32.12585
0.593	-29.70886
0.5935	-26.08337
0.594	-28.50037
0.5945	-30.31311
0.595	-26.3855
0.5955	-23.46497
0.596	-14.80408
0.5965	-13.59558
0.597	-12.08496
0.5975	-9.06372
0.598	-6.2439
0.5985	-2.11487
0.599	-4.63257
0.5995	-8.96301
0.6	-4.53186
0.6005	0.90637
0.601	-1.3092
0.6015	0.10071
0.602	-5.23682
0.6025	-1.3092
0.603	-0.80566
0.6035	-4.83398
0.604	-11.58142
0.6045	-6.14319
0.605	-0.50354
0.6055	0.60425
0.606	4.22974
0.6065	6.04248
0.607	0.30212
0.6075	4.02832
0.608	5.23682
0.6085	5.43823
0.609	7.45239
0.6095	7.35168
0.61	8.8623
0.6105	5.63965
0.611	9.66797
0.6115	4.02832
0.612	9.76868
0.6125	8.45947
0.613	10.57434
0.6135	5.74036
0.614	9.26514
0.6145	7.65381
0.615	12.99133
0.6155	8.35876
0.616	5.23682
0.6165	8.7616
0.617	8.25806
0.6175	6.14319
0.618	7.45239
0.6185	10.97717
0.619	4.43115
0.6195	6.44531
0.62	9.06372
0.6205	4.73328
0.621	2.01416
0.6215	5.63965
0.622	8.56018
0.6225	6.04248
0.623	10.47363
0.6235	10.57434
0.624	0.30212
0.6245	3.12195
0.625	1.81274
0.6255	-3.02124
0.626	-6.64673
0.6265	-5.13611
0.627	-1.81274
0.6275	-4.73328
0.628	-5.43823
0.6285	2.01416
0.629	4.53186
0.6295	1.91345
0.63	4.93469
0.6305	5.33752
0.631	3.92761
0.6315	2.31628
0.632	-0.10071
0.6325	4.33044
0.633	2.31628
0.6335	-5.23682
0.634	-6.54602
0.6345	-8.35876
0.635	-7.25098
0.6355	-4.83398
0.636	-2.71912
0.6365	0.80566
0.637	6.14319
0.6375	12.68921
0.638	9.56726
0.6385	14.30054
0.639	10.77576
0.6395	12.99133
0.64	12.5885
0.6405	12.38708
0.641	17.42249
0.6415	13.797
0.642	8.45947
0.6425	10.57434
0.643	13.19275
0.6435	19.83948
0.644	20.54443
0.6445	23.66638
0.645	17.42249
0.6455	16.91895
0.646	11.2793
0.6465	9.06372
0.647	4.12903
0.6475	1.3092
0.648	0.50354
0.6485	5.53894
0.649	3.22266
0.6495	8.25806
0.65	7.85522
0.6505	6.54602
0.651	4.93469
0.6515	6.44531
0.652	1.91345
0.6525	4.53186
0.653	6.64673
0.6535	1.81274
0.654	6.04248
0.6545	6.84814
0.655	-0.70496
0.6555	-1.2085
0.656	-3.52478
0.6565	-3.8269
0.657	-0.40283
0.6575	-4.73328
0.658	-4.63257
0.6585	-1.91345
0.659	-2.92053
0.6595	1.10779
0.66	-3.22266
0.6605	2.61841
0.661	1.71204
0.6615	-0.80566
0.662	1.10779
0.6625	-1.40991
0.663	-2.11487
0.6635	5.13611
0.664	-0.50354
0.6645	-4.53186
0.665	-5.74036
0.6655	-4.22974
0.666	-0.40283
0.6665	-0.40283
0.667	4.93469
0.6675	6.2439
0.668	8.05664
0.6685	10.67505
0.669	12.38708
0.6695	6.64673
0.67	4.02832
0.6705	9.56726
0.671	7.5531
0.6715	7.35168
0.672	1.91345
0.6725	6.64673
0.673	7.35168
0.6735	9.66797
0.674	1.10779
0.6745	0.40283
0.675	1.61133
0.6755	4.83398
0.676	5.33752
0.6765	7.65381
0.677	2.41699
0.6775	4.93469
0.678	1.61133
0.6785	-0.90637
0.679	3.12195
0.6795	5.13611
0.68	-0.30212
0.6805	2.71912
0.681	6.04248
0.6815	1.91345
0.682	-1.2085
0.6825	-2.21558
0.683	2.5177
0.6835	6.54602
0.684	9.06372
0.6845	4.33044
0.685	3.32336
0.6855	5.84106
0.686	2.11487
0.6865	6.3446
0.687	3.7262
0.6875	7.65381
0.688	4.33044
0.6885	10.0708
0.689	5.84106
0.6895	10.67505
0.69	8.45947
0.6905	5.23682
0.691	7.15027
0.6915	6.14319
0.692	3.7262
0.6925	2.31628
0.693	2.92053
0.6935	5.43823
0.694	4.53186
0.6945	9.06372
0.695	3.7262
0.6955	7.65381
0.696	-0.30212
0.6965	2.01416
0.697	2.21558
0.6975	-1.2085
0.698	2.11487
0.6985	-0.60425
0.699	1.10779
0.6995	3.62549
0.7	-1.51062
0.7005	-0.20142
0.701	1.51062
0.7015	1.51062
0.702	1.61133
0.7025	-5.33752
0.703	-6.04248
0.7035	-2.92053
0.704	-8.45947
0.7045	-4.93469
0.705	-0.80566
0.7055	-5.43823
0.706	-3.92761
0.7065	-2.71912
0.707	-0.30212
0.7075	-0.10071
0.708	1.81274
0.7085	1.00708
0.709	4.83398
0.7095	6.3446
0.71	10.87646
0.7105	12.68921
0.711	8.45947
0.7115	14.09912
0.712	6.44531
0.7125	10.87646
0.713	12.08496
0.7135	17.92603
0.714	16.01257
0.7145	14.09912
0.715	18.42957
0.7155	20.34302
0.716	12.5885
0.7165	12.68921
0.717	4.43115
0.7175	6.44531
0.718	8.05664
0.7185	0.80566
0.719	-1.2085
0.7195	-6.44531
0.72	-6.44531
0.7205	-5.13611
0.721	-7.45239
0.7215	-16.01257
0.722	-12.99133
0.7225	-7.15027
0.723	-4.53186
0.7235	-4.73328
0.724	-6.74744
0.7245	-5.0354
0.725	-5.74036
0.7255	-4.53186
0.726	-0.90637
0.7265	-1.71204
0.727	1.61133
0.7275	4.33044
0.728	2.5177
0.7285	4.12903
0.729	6.74744
0.7295	7.45239
0.73	3.92761
0.7305	8.15735
0.731	10.97717
0.7315	11.38
0.732	9.36584
0.7325	13.39417
0.733	18.02673
0.7335	10.0708
0.734	15.20691
0.7345	12.68921
0.735	13.59558
0.7355	17.82532
0.736	13.19275
0.7365	13.49487
0.737	11.17859
0.7375	11.68213
0.738	17.72461
0.7385	16.91895
0.739	17.42249
0.7395	19.94019
0.74	18.63098
0.7405	18.8324
0.741	12.68921
0.7415	17.72461
0.742	16.81824
0.7425	15.60974
0.743	11.88354
0.7435	12.28638
0.744	13.69629
0.7445	11.98425
0.745	16.51611
0.7455	10.97717
0.746	10.27222
0.7465	9.36584
0.747	10.17151
0.7475	8.15735
0.748	-0.20142
0.7485	-0.30212
0.749	-1.10779
0.7495	0.40283
0.75	10.97717
0.7505	9.46655
0.751	7.95593
0.7515	6.14319
0.752	11.38
0.7525	3.02124
0.753	13.59558
0.7535	19.94019
0.754	24.67346
0.7545	25.57983
0.755	17.42249
0.7555	17.92603
0.756	10.87646
0.7565	11.38
0.757	-1.61133
0.7575	-5.53894
0.758	-4.83398
0.7585	-9.06372
0.759	-7.35168
0.7595	-13.89771
0.76	-14.90479
0.7605	-15.91187
0.761	-17.01965
0.7615	-16.71753
0.762	-14.19983
0.7625	-9.06372
0.763	-8.56018
0.7635	-10.67505
0.764	-11.58142
0.7645	-15.1062
0.765	-12.48779
0.7655	-8.15735
0.766	-11.78284
0.7665	-11.68213
0.767	-12.99133
0.7675	-5.23682
0.768	-7.45239
0.7685	-5.23682
0.769	-7.95593
0.7695	1.3092
0.77	0.50354
0.7705	1.3092
0.771	1.61133
0.7715	1.71204
0.772	3.22266
0.7725	-1.2085
0.773	-7.04956
0.7735	-12.68921
0.774	-6.3446
0.7745	-4.93469
0.775	-2.21558
0.7755	-6.44531
0.776	-6.44531
0.7765	1.61133
0.777	-1.71204
0.7775	-1.61133
0.778	-0.50354
0.7785	-7.04956
0.779	-8.66089
0.7795	-3.32336
0.78	-1.61133
0.7805	2.71912
0.781	1.3092
0.7815	4.93469
0.782	5.84106
0.7825	10.77576
0.783	9.06372
0.7835	8.56018
0.784	8.15735
0.7845	3.8269
0.785	6.14319
0.7855	12.48779
0.786	12.99133
0.7865	12.89062
0.787	18.32886
0.7875	11.58142
0.788	7.25098
0.7885	7.45239
0.789	0.50354
0.7895	2.21558
0.79	-2.61841
0.7905	0.70496
0.791	-3.12195
0.7915	1.3092
0.792	4.63257
0.7925	0.80566
0.793	2.31628
0.7935	0.10071
0.794	5.33752
0.7945	7.35168
0.795	4.33044
0.7955	7.85522
0.796	1.71204
0.7965	5.23682
0.797	4.73328
0.7975	-1.71204
0.798	2.21558
0.7985	6.04248
0.799	3.42407
0.7995	5.74036
0.8	-0.30212
0.8005	2.21558
0.801	2.92053
0.8015	6.74744
0.802	7.15027
0.8025	7.35168
0.803	5.23682
0.8035	4.12903
0.804	10.57434
0.8045	14.30054
0.805	6.04248
0.8055	13.19275
0.806	34.74426
0.8065	38.974
0.807	43.60657
0.8075	43.80798
0.808	34.24072
0.8085	24.37134
0.809	17.52319
0.8095	13.89771
0.81	-2.61841
0.8105	-9.76868
0.811	-7.04956
0.8115	-8.8623
0.812	-5.74036
0.8125	0.10071
0.813	1.61133
0.8135	6.3446
0.814	2.71912
0.8145	3.12195
0.815	0.30212
0.8155	-3.12195
0.816	-0.20142
0.8165	3.02124
0.817	7.25098
0.8175	9.36584
0.818	5.94177
0.8185	6.84814
0.819	10.87646
0.8195	9.66797
0.82	8.66089
0.8205	8.56018
0.821	10.47363
0.8215	8.66089
0.822	8.96301
0.8225	8.15735
0.823	5.74036
0.8235	5.23682
0.824	8.35876
0.8245	8.96301
0.825	6.44531
0.8255	5.63965
0.826	4.43115
0.8265	1.71204
0.827	1.10779
0.8275	3.7262
0.828	0.60425
0.8285	2.61841
0.829	2.01416
0.8295	5.94177
0.83	8.05664
0.8305	7.25098
0.831	16.61682
0.8315	12.68921
0.832	5.43823
0.8325	7.15027
0.833	9.06372
0.8335	14.70337
0.834	15.20691
0.8345	13.39417
0.835	6.44531
0.8355	13.19275
0.836	14.80408
0.8365	16.21399
0.837	18.22815
0.8375	22.15576
0.838	21.95435
0.8385	23.8678
0.839	20.94727
0.8395	18.53027
0.84	26.88904
0.8405	26.88904
0.841	25.68054
0.8415	20.74585
0.842	17.52319
0.8425	10.97717
0.843	5.0354
0.8435	8.7616
0.844	3.62549
0.8445	-1.00708
0.845	-6.04248
0.8455	-11.48071
0.846	-13.29346
0.8465	-7.5531
0.847	-11.48071
0.8475	-17.6239
0.848	-16.01257
0.8485	-18.63098
0.849	-16.61682
0.8495	-16.41541
0.85	-16.21399
0.8505	-7.5531
0.851	-3.52478
0.8515	4.63257
0.852	3.02124
0.8525	4.53186
0.853	13.19275
0.8535	8.7616
0.854	10.97717
0.8545	13.19275
0.855	5.13611
0.8555	5.84106
0.856	4.93469
0.8565	-0.90637
0.857	4.63257
0.8575	2.92053
0.858	10.57434
0.8585	8.05664
0.859	10.77576
0.8595	12.48779
0.86	2.92053
0.8605	2.5177
0.861	6.64673
0.8615	6.74744
0.862	7.5531
0.8625	3.52478
0.863	2.41699
0.8635	7.15027
0.864	7.25098
0.8645	9.86938
0.865	4.73328
0.8655	10.27222
0.866	11.2793
0.8665	5.33752
0.867	8.05664
0.8675	11.88354
0.868	10.47363
0.8685	10.27222
0.869	21.45081
0.8695	18.93311
0.87	19.63806
0.8705	15.20691
0.871	20.44373
0.8715	19.53735
0.872	24.27063
0.8725	19.13452
0.873	18.8324
0.8735	18.02673
0.874	21.14868
0.8745	21.3501
0.875	21.14868
0.8755	18.42957
0.876	23.16284
0.8765	21.3501
0.877	19.23523
0.8775	7.75452
0.878	3.22266
0.8785	1.00708
0.879	-2.21558
0.8795	-7.85522
0.88	-13.09204
0.8805	-17.32178
0.881	-20.1416
0.8815	-21.3501
0.882	-14.80408
0.8825	-9.16443
0.883	-11.78284
0.8835	-6.84814
0.884	-10.17151
0.8845	-2.92053
0.885	-5.0354
0.8855	-6.64673
0.886	0.40283
0.8865	-0.70496
0.887	2.11487
0.8875	-1.91345
0.888	-7.85522
0.8885	0.70496
0.889	-3.12195
0.8895	-0.10071
0.89	-4.33044
0.8905	-1.91345
0.891	-3.8269
0.8915	-2.21558
0.892	2.21558
0.8925	5.43823
0.893	1.51062
0.8935	4.33044
0.894	3.52478
0.8945	7.35168
0.895	13.19275
0.8955	14.30054
0.896	14.19983
0.8965	8.05664
0.897	3.02124
0.8975	2.71912
0.898	0.60425
0.8985	0.70496
0.899	0.50354
0.8995	5.13611
0.9	6.84814
0.9005	6.04248
0.901	4.93469
0.9015	-3.42407
0.902	-10.37292
0.9025	-20.44373
0.903	7.35168
0.9035	23.96851
0.904	32.22656
0.9045	26.88904
0.905	25.98267
0.9055	19.43665
0.906	8.25806
0.9065	-5.74036
0.907	-8.45947
0.9075	-19.83948
0.908	-30.61523
0.9085	-33.83789
0.909	-20.04089
0.9095	-11.88354
0.91	-7.25098
0.9105	4.73328
0.911	22.86072
0.9115	21.24939
0.912	23.26355
0.9125	27.09045
0.913	30.91736
0.9135	23.26355
0.914	9.46655
0.9145	8.35876
0.915	8.8623
0.9155	18.32886
0.916	18.8324
0.9165	25.57983
0.917	27.59399
0.9175	35.14709
0.918	36.85913
0.9185	30.11169
0.919	22.96143
0.9195	17.6239
0.92	15.30762
0.9205	14.50195
0.921	19.03381
0.9215	14.19983
0.922	18.32886
0.9225	13.49487
0.923	10.87646
0.9235	8.56018
0.924	10.97717
0.9245	10.57434
0.925	9.56726
0.9255	7.45239
0.926	5.63965
0.9265	9.76868
0.927	8.66089
0.9275	11.38
0.928	9.46655
0.9285	7.85522
0.929	4.33044
0.9295	-0.70496
0.93	-2.81982
0.9305	0.10071
0.931	1.40991
0.9315	-2.61841
0.932	-1.3092
0.9325	-3.42407
0.933	3.8269
0.9335	3.12195
0.934	2.41699
0.9345	-0.80566
0.935	-1.40991
0.9355	0.60425
0.936	3.7262
0.9365	3.12195
0.937	8.8623
0.9375	8.8623
0.938	5.33752
0.9385	9.16443
0.939	13.09204
0.9395	12.28638
0.94	12.38708
0.9405	19.53735
0.941	17.32178
0.9415	18.63098
0.942	20.54443
0.9425	23.06213
0.943	18.53027
0.9435	23.26355
0.944	20.54443
0.9445	21.14868
0.945	24.67346
0.9455	18.32886
0.946	21.55151
0.9465	21.24939
0.947	16.21399
0.9475	12.18567
0.948	1.40991
0.9485	1.3092
0.949	1.71204
0.9495	0.10071
0.95	-1.81274
0.9505	3.02124
0.951	2.01416
0.9515	-2.21558
0.952	-9.26514
0.9525	-6.04248
0.953	-7.35168
0.9535	-3.02124
0.954	-1.61133
0.9545	0.50354
0.955	-4.53186
0.9555	-12.28638
0.956	-21.04797
0.9565	-20.04089
0.957	-10.17151
0.9575	-13.89771
0.958	-10.27222
0.9585	-11.58142
0.959	-6.54602
0.9595	-6.44531
0.96	-5.33752
0.9605	-1.71204
0.961	0.10071
0.9615	2.71912
0.962	5.74036
0.9625	9.86938
0.963	14.50195
0.9635	10.77576
0.964	16.01257
0.9645	18.32886
0.965	12.18567
0.9655	15.30762
0.966	11.17859
0.9665	14.80408
0.967	15.81116
0.9675	25.177
0.968	35.95276
0.9685	35.14709
0.969	27.39258
0.9695	14.19983
0.97	6.2439
0.9705	-4.93469
0.971	-17.42249
0.9715	-22.86072
0.972	-21.55151
0.9725	-22.05505
0.973	-27.09045
0.9735	-24.67346
0.974	-26.08337
0.9745	-18.02673
0.975	-16.91895
0.9755	-13.69629
0.976	-3.92761
0.9765	1.91345
0.977	8.45947
0.9775	9.06372
0.978	16.3147
0.9785	14.90479
0.979	12.99133
0.9795	23.96851
0.98	23.56567
0.9805	30.81665
0.981	31.21948
0.9815	35.75134
0.982	40.48462
0.9825	30.71594
0.983	23.36426
0.9835	19.94019
0.984	10.77576
0.9845	8.35876
0.985	12.48779
0.9855	15.20691
0.986	11.17859
0.9865	0.30212
0.987	0.20142
0.9875	0.60425
0.988	4.33044
0.9885	7.35168
0.989	13.69629
0.9895	10.17151
0.99	13.797
0.9905	8.35876
0.991	0.70496
0.9915	6.3446
0.992	15.91187
0.9925	17.82532
0.993	18.8324
0.9935	9.76868
0.994	6.3446
0.9945	9.16443
0.995	6.54602
0.9955	7.25098
0.996	8.15735
0.9965	6.3446
0.997	5.23682
0.9975	7.35168
0.998	11.17859
0.9985	11.98425
0.999	3.8269
0.9995	11.48071
1	6.04248
1.0005	5.0354
1.001	3.32336
1.0015	8.56018
1.002	8.45947
1.0025	7.85522
1.003	11.88354
1.0035	12.99133
1.004	10.87646
1.0045	11.07788
1.005	10.47363
1.0055	7.65381
1.006	11.98425
1.0065	13.29346
1.007	8.56018
1.0075	10.0708
1.008	12.99133
1.0085	13.39417
1.009	10.97717
1.0095	4.83398
1.01	6.44531
1.0105	7.85522
1.011	7.5531
1.0115	-1.61133
1.012	-3.8269
1.0125	-9.06372
1.013	-13.89771
1.0135	-18.93311
1.014	-27.6947
1.0145	-43.30444
1.015	-46.62781
1.0155	-45.62073
1.016	-42.29736
1.0165	-53.87878
1.017	-69.08569
1.0175	-71.60339
1.018	-57.20215
1.0185	-40.48462
1.019	-27.6947
1.0195	-9.66797
1.02	-7.25098
1.0205	10.0708
1.021	13.59558
1.0215	20.94727
1.022	33.73718
1.0225	37.66479
1.023	47.93701
1.0235	50.55542
1.024	47.8363
1.0245	47.23206
1.025	45.92285
1.0255	48.33984
1.026	45.3186
1.0265	43.50586
1.027	36.4563
1.0275	33.73718
1.028	37.36267
1.0285	39.47754
1.029	33.73718
1.0295	39.47754
1.03	36.95984
1.0305	26.08337
1.031	19.94019
1.0315	14.90479
1.032	15.20691
1.0325	11.68213
1.033	2.01416
1.0335	3.22266
1.034	2.21558
1.0345	6.14319
1.035	-5.63965
1.0355	-6.54602
1.036	-7.15027
1.0365	-8.35876
1.037	-10.27222
1.0375	-8.15735
1.038	-9.06372
1.0385	-5.94177
1.039	2.5177
1.0395	2.01416
1.04	-0.10071
1.0405	4.43115
1.041	1.71204
1.0415	5.94177
1.042	3.52478
1.0425	1.81274
1.043	-4.53186
1.0435	-6.64673
1.044	-4.43115
1.0445	-2.61841
1.045	-2.92053
1.0455	-4.12903
1.046	-6.54602
1.0465	-13.89771
1.047	-6.94885
1.0475	-5.63965
1.048	-6.44531
1.0485	-16.21399
1.049	-17.82532
1.0495	-2.71912
1.05	-4.43115
1.0505	2.61841
1.051	20.64514
1.0515	17.6239
1.052	15.60974
1.0525	18.8324
1.053	14.19983
1.0535	3.02124
1.054	4.02832
1.0545	1.2085
1.055	-2.5177
1.0555	-4.33044
1.056	-8.56018
1.0565	-13.99841
1.057	-17.32178
1.0575	-13.39417
1.058	-4.33044
1.0585	-4.02832
1.059	-4.53186
1.0595	-5.13611
1.06	-5.43823
1.0605	-2.5177
1.061	-0.80566
1.0615	-6.3446
1.062	3.32336
1.0625	6.14319
1.063	8.8623
1.0635	7.35168
1.064	4.53186
1.0645	3.22266
1.065	4.12903
1.0655	3.8269
1.066	5.33752
1.0665	8.15735
1.067	9.97009
1.0675	10.27222
1.068	13.29346
1.0685	13.49487
1.069	6.2439
1.0695	7.5531
1.07	11.88354
1.0705	17.01965
1.071	19.63806
1.0715	18.93311
1.072	15.30762
1.0725	16.11328
1.073	19.13452
1.0735	17.6239
1.074	8.8623
1.0745	7.85522
1.075	9.66797
1.0755	8.25806
1.076	9.76868
1.0765	4.83398
1.077	8.96301
1.0775	7.25098
1.078	9.76868
1.0785	12.28638
1.079	13.19275
1.0795	5.74036
1.08	-0.60425
1.0805	-2.71912
1.081	1.81274
1.0815	1.51062
1.082	-0.40283
1.0825	-1.10779
1.083	-0.50354
1.0835	0.90637
1.084	-1.2085
1.0845	-1.10779
1.085	-4.93469
1.0855	1.71204
1.086	-6.54602
1.0865	-6.3446
1.087	-13.39417
1.0875	-12.28638
1.088	-18.8324
1.0885	-15.81116
1.089	-13.69629
1.0895	-11.88354
1.09	-5.0354
1.0905	1.2085
1.091	-6.54602
1.0915	-2.61841
1.092	2.5177
1.0925	-1.81274
1.093	-3.02124
1.0935	7.65381
1.094	3.12195
1.0945	2.5177
1.095	1.81274
1.0955	3.92761
1.096	3.32336
1.0965	-0.60425
1.097	-0.60425
1.0975	3.02124
1.098	2.01416
1.0985	6.64673
1.099	5.23682
1.0995	3.22266
1.1	3.02124
1.1005	4.83398
1.101	-3.02124
1.1015	0.70496
1.102	5.23682
1.1025	3.42407
1.103	5.0354
1.1035	-0.20142
1.104	5.84106
1.1045	4.63257
1.105	8.45947
1.1055	4.12903
1.106	-0.70496
1.1065	-7.75452
1.107	-7.5531
1.1075	-9.86938
1.108	-13.29346
1.1085	-12.08496
1.109	-6.84814
1.1095	-10.87646
1.11	-8.96301
1.1105	-13.09204
1.111	-13.19275
1.1115	-4.53186
1.112	10.67505
1.1125	20.54443
1.113	36.05347
1.1135	35.2478
1.114	29.20532
1.1145	10.47363
1.115	6.04248
1.1155	3.62549
1.116	3.52478
1.1165	-0.60425
1.117	-9.06372
1.1175	-14.60266
1.118	-5.23682
1.1185	6.64673
1.119	1.10779
1.1195	0.90637
1.12	0.60425
1.1205	-0.70496
1.121	3.42407
1.1215	3.22266
1.122	2.01416
1.1225	14.70337
1.123	23.26355
1.1235	32.32727
1.124	39.77966
1.1245	38.26904
1.125	43.40515
1.1255	46.72852
1.126	35.65063
1.1265	32.62939
1.127	15.60974
1.1275	8.45947
1.128	0.80566
1.1285	-5.94177
1.129	-3.42407
1.1295	9.36584
1.13	9.06372
1.1305	9.56726
1.131	2.81982
1.1315	-0.50354
1.132	-0.80566
1.1325	-9.66797
1.133	-1.3092
1.1335	-0.60425
1.134	-1.91345
1.1345	-3.22266
1.135	-5.53894
1.1355	-1.10779
1.136	-0.90637
1.1365	7.5531
1.137	8.45947
1.1375	10.17151
1.138	9.26514
1.1385	5.74036
1.139	8.8623
1.1395	6.64673
1.14	11.48071
1.1405	11.78284
1.141	8.05664
1.1415	8.35876
1.142	9.16443
1.1425	13.39417
1.143	12.18567
1.1435	12.5885
1.144	11.48071
1.1445	17.52319
1.145	14.50195
1.1455	15.91187
1.146	12.08496
1.1465	9.76868
1.147	13.19275
1.1475	14.09912
1.148	7.35168
1.1485	7.45239
1.149	8.56018
1.1495	3.12195
1.15	6.64673
1.1505	1.3092
1.151	1.10779
1.1515	6.04248
1.152	8.05664
1.1525	8.8623
1.153	0.80566
1.1535	-10.57434
1.154	-16.51611
1.1545	-24.16992
1.155	-25.68054
1.1555	-24.16992
1.156	-14.40125
1.1565	-13.797
1.157	-1.81274
1.1575	7.75452
1.158	20.64514
1.1585	27.49329
1.159	35.75134
1.1595	43.10303
1.16	41.69312
1.1605	40.08179
1.161	42.29736
1.1615	32.32727
1.162	28.60107
1.1625	21.04797
1.163	11.48071
1.1635	4.93469
1.164	1.51062
1.1645	-0.70496
1.165	-12.68921
1.1655	-19.53735
1.166	-23.56567
1.1665	-39.77966
1.167	-38.57117
1.1675	-30.71594
1.168	-33.83789
1.1685	-34.14001
1.169	-27.79541
1.1695	-14.60266
1.17	-14.80408
1.1705	-8.66089
1.171	-2.5177
1.1715	11.58142
1.172	17.52319
1.1725	21.04797
1.173	13.39417
1.1735	3.22266
1.174	-0.60425
1.1745	0.70496
1.175	2.71912
1.1755	3.32336
1.176	7.04956
1.1765	12.5885
1.177	23.16284
1.1775	33.13293
1.178	37.46338
1.1785	34.03931
1.179	47.13135
1.1795	45.52002
1.18	38.26904
1.1805	26.68762
1.181	29.50745
1.1815	29.40674
1.182	30.11169
1.1825	27.79541
1.183	22.05505
1.1835	24.87488
1.184	22.35718
1.1845	25.37842
1.185	14.70337
1.1855	10.17151
1.186	9.76868
1.1865	10.47363
1.187	6.94885
1.1875	9.36584
1.188	9.66797
1.1885	12.08496
1.189	15.20691
1.1895	13.59558
1.19	15.1062
1.1905	15.1062
1.191	10.97717
1.1915	6.74744
1.192	13.29346
1.1925	10.57434
1.193	0
1.1935	-1.3092
1.194	7.35168
1.1945	7.5531
1.195	9.97009
1.1955	10.17151
1.196	11.2793
1.1965	4.33044
1.197	4.93469
1.1975	2.41699
1.198	3.32336
1.1985	4.43115
1.199	2.71912
1.1995	7.25098
1.2	11.17859
1.2005	12.38708
1.201	5.23682
1.2015	1.81274
1.202	-2.81982
1.2025	-9.26514
1.203	-11.38
1.2035	-14.80408
1.204	-7.95593
1.2045	-1.51062
1.205	1.2085
1.2055	-3.12195
1.206	-9.06372
1.2065	-8.7616
1.207	-1.91345
1.2075	-8.25806
1.208	-4.83398
1.2085	1.3092
1.209	-0.30212
1.2095	1.2085
1.21	1.3092
1.2105	0.90637
1.211	1.91345
1.2115	7.25098
1.212	12.18567
1.2125	12.08496
1.213	12.89062
1.2135	10.57434
1.214	12.78992
1.2145	11.78284
1.215	10.77576
1.2155	19.33594
1.216	19.03381
1.2165	11.68213
1.217	12.28638
1.2175	9.36584
1.218	5.0354
1.2185	0.40283
1.219	0.40283
1.2195	4.12903
1.22	1.71204
1.2205	5.43823
1.221	4.12903
1.2215	7.45239
1.222	9.46655
1.2225	14.90479
1.223	12.68921
1.2235	15.50903
1.224	15.40833
1.2245	16.3147
1.225	12.28638
1.2255	8.96301
1.226	3.42407
1.2265	4.73328
1.227	8.45947
1.2275	5.33752
1.228	10.77576
1.2285	10.27222
1.229	7.5531
1.2295	10.97717
1.23	10.0708
1.2305	9.36584
1.231	14.30054
1.2315	17.12036
1.232	21.24939
1.2325	17.52319
1.233	14.70337
1.2335	12.89062
1.234	-2.11487
1.2345	-8.35876
1.235	-8.66089
1.2355	-12.68921
1.236	-11.98425
1.2365	-10.77576
1.237	-2.81982
1.2375	-0.10071
1.238	-4.43115
1.2385	7.75452
1.239	11.38
1.2395	12.99133
1.24	21.55151
1.2405	22.6593
1.241	19.94019
1.2415	16.71753
1.242	17.42249
1.2425	10.87646
1.243	17.82532
1.2435	6.54602
1.244	-0.20142
1.2445	-9.16443
1.245	-12.18567
1.2455	-19.13452
1.246	-17.12036
1.2465	-17.22107
1.247	-28.60107
1.2475	-27.49329
1.248	-22.86072
1.2485	-20.64514
1.249	-22.05505
1.2495	-11.07788
1.25	-16.21399
1.2505	-10.97717
1.251	-16.11328
1.2515	-36.85913
1.252	-30.2124
1.2525	-19.94019
1.253	6.64673
1.2535	27.19116
1.254	31.4209
1.2545	44.21082
1.255	55.99365
1.2555	63.84888
1.256	57.60498
1.2565	50.85754
1.257	30.71594
1.2575	13.49487
1.258	-7.04956
1.2585	-30.71594
1.259	-58.61206
1.2595	-64.75525
1.26	-69.28711
1.2605	-65.46021
1.261	-58.51135
1.2615	-49.34692
1.262	-21.04797
1.2625	9.56726
1.263	12.68921
1.2635	19.53735
1.264	25.07629
1.2645	26.98975
1.265	32.22656
1.2655	34.03931
1.266	37.96692
1.2665	39.98108
1.267	44.61365
1.2675	49.44763
1.268	47.43347
1.2685	37.16125
1.269	39.37683
1.2695	43.10303
1.27	40.88745
1.2705	42.09595
1.271	38.974
1.2715	37.96692
1.272	28.19824
1.2725	24.16992
1.273	25.78125
1.2735	22.86072
1.274	16.01257
1.2745	15.40833
1.275	16.71753
1.2755	13.797
1.276	11.17859
1.2765	12.99133
1.277	8.05664
1.2775	3.8269
1.278	-2.41699
1.2785	-5.84106
1.279	-7.5531
1.2795	-4.02832
1.28	-5.94177
1.2805	-10.37292
1.281	-12.28638
1.2815	-10.67505
1.282	-14.40125
1.2825	-8.45947
1.283	-5.43823
1.2835	-5.23682
1.284	-0.60425
1.2845	-0.60425
1.285	-0.30212
1.2855	-2.81982
1.286	-1.61133
1.2865	2.41699
1.287	2.01416
1.2875	8.05664
1.288	2.41699
1.2885	6.84814
1.289	2.01416
1.2895	9.97009
1.29	4.63257
1.2905	8.8623
1.291	1.40991
1.2915	2.21558
1.292	6.54602
1.2925	7.25098
1.293	2.61841
1.2935	4.73328
1.294	3.42407
1.2945	2.21558
1.295	-2.01416
1.2955	-5.23682
1.296	-7.15027
1.2965	2.31628
1.297	3.02124
1.2975	2.21558
1.298	3.7262
1.2985	1.40991
1.299	4.73328
1.2995	3.02124
1.3	2.01416
1.3005	2.71912
1.301	-3.92761
1.3015	4.63257
1.302	4.93469
1.3025	-0.30212
1.303	6.54602
1.3035	4.12903
1.304	6.3446
1.3045	6.84814
1.305	5.23682
1.3055	7.15027
1.306	4.43115
1.3065	1.10779
1.307	1.40991
1.3075	7.5531
1.308	5.0354
1.3085	5.53894
1.309	8.25806
1.3095	6.2439
1.31	2.31628
1.3105	-0.50354
1.311	2.31628
1.3115	1.51062
1.312	-3.92761
1.3125	-3.7262
1.313	-9.56726
1.3135	-2.21558
1.314	-5.23682
1.3145	3.52478
1.315	4.43115
1.3155	3.32336
1.316	0.10071
1.3165	-4.12903
1.317	1.71204
1.3175	6.54602
1.318	7.85522
1.3185	5.43823
1.319	5.94177
1.3195	12.78992
1.32	7.15027
1.3205	7.45239
1.321	7.45239
1.3215	9.16443
1.322	13.39417
1.3225	18.8324
1.323	16.01257
1.3235	19.23523
1.324	22.76001
1.3245	15.81116
1.325	21.95435
1.3255	18.32886
1.326	20.04089
1.3265	19.73877
1.327	21.65222
1.3275	21.75293
1.328	19.03381
1.3285	16.91895
1.329	15.50903
1.3295	16.3147
1.33	13.69629
1.3305	14.80408
1.331	10.77576
1.3315	6.64673
1.332	5.94177
1.3325	1.40991
1.333	-5.53894
1.3335	-8.35876
1.334	1.3092
1.3345	16.11328
1.335	20.54443
1.3355	24.87488
1.336	15.40833
1.3365	18.42957
1.337	13.797
1.3375	3.7262
1.338	-6.74744
1.3385	-8.66089
1.339	-13.89771
1.3395	-23.56567
1.34	-31.92444
1.3405	-42.49878
1.341	-50.45471
1.3415	-51.36108
1.342	-44.81506
1.3425	-49.44763
1.343	-38.06763
1.3435	-37.26196
1.344	-24.16992
1.3445	-10.97717
1.345	3.02124
1.3455	11.2793
1.346	22.6593
1.3465	23.56567
1.347	28.29895
1.3475	31.4209
1.348	40.88745
1.3485	42.29736
1.349	39.27612
1.3495	41.39099
1.35	30.31311
1.3505	31.01807
1.351	37.36267
1.3515	35.14709
1.352	31.32019
1.3525	27.09045
1.353	25.88196
1.3535	21.3501
1.354	13.59558
1.3545	12.89062
1.355	12.38708
1.3555	20.44373
1.356	10.17151
1.3565	15.60974
1.357	14.80408
1.3575	15.30762
1.358	15.00549
1.3585	22.05505
1.359	20.84656
1.3595	20.84656
1.36	18.53027
1.3605	18.02673
1.361	12.18567
1.3615	8.35876
1.362	6.74744
1.3625	10.97717
1.363	12.18567
1.3635	6.14319
1.364	12.68921
1.3645	6.44531
1.365	-1.2085
1.3655	5.53894
1.366	4.12903
1.3665	1.71204
1.367	3.52478
1.3675	2.21558
1.368	5.43823
1.3685	9.16443
1.369	13.69629
1.3695	16.51611
1.37	14.30054
1.3705	10.97717
1.371	10.0708
1.3715	8.96301
1.372	6.74744
1.3725	6.54602
1.373	9.36584
1.3735	4.63257
1.374	13.797
1.3745	9.66797
1.375	8.25806
1.3755	12.89062
1.376	8.8623
1.3765	4.73328
1.377	-1.2085
1.3775	-3.52478
1.378	-11.17859
1.3785	-13.89771
1.379	-11.38
1.3795	-5.63965
1.38	-2.31628
1.3805	2.11487
1.381	1.2085
1.3815	9.06372
1.382	12.5885
1.3825	12.99133
1.383	14.40125
1.3835	9.16443
1.384	7.75452
1.3845	8.7616
1.385	12.18567
1.3855	11.88354
1.386	9.36584
1.3865	3.22266
1.387	10.67505
1.3875	11.68213
1.388	12.28638
1.3885	5.74036
1.389	4.53186
1.3895	2.92053
1.39	1.2085
1.3905	-4.43115
1.391	-5.74036
1.3915	-4.43115
1.392	-11.07788
1.3925	-11.48071
1.393	-6.3446
1.3935	-10.27222
1.394	3.8269
1.3945	6.2439
1.395	10.17151
1.3955	10.97717
1.396	12.5885
1.3965	12.89062
1.397	15.50903
1.3975	15.1062
1.398	13.19275
1.3985	18.8324
1.399	18.42957
1.3995	16.71753
1.4	2.61841
1.4005	4.83398
1.401	-2.71912
1.4015	4.02832
1.402	1.3092
1.4025	5.13611
1.403	2.81982
1.4035	-0.40283
1.404	1.91345
1.4045	-0.10071
1.405	-6.3446
1.4055	-6.44531
1.406	-4.73328
1.4065	-2.01416
1.407	-12.99133
1.4075	-11.88354
1.408	-11.48071
1.4085	-6.44531
1.409	-1.40991
1.4095	3.32336
1.41	0.20142
1.4105	5.84106
1.411	1.61133
1.4115	3.62549
1.412	7.65381
1.4125	7.75452
1.413	4.93469
1.4135	7.35168
1.414	9.46655
1.4145	0.50354
1.415	-5.43823
1.4155	-11.68213
1.416	-10.77576
1.4165	-11.98425
1.417	-17.12036
1.4175	-16.41541
1.418	-18.93311
1.4185	-17.01965
1.419	-11.07788
1.4195	-9.16443
1.42	4.93469
1.4205	5.53894
1.421	15.40833
1.4215	18.12744
1.422	20.94727
1.4225	18.22815
1.423	26.58691
1.4235	30.41382
1.424	28.39966
1.4245	26.98975
1.425	24.37134
1.4255	23.96851
1.426	19.63806
1.4265	17.32178
1.427	16.11328
1.4275	17.72461
1.428	18.22815
1.4285	12.68921
1.429	9.16443
1.4295	6.94885
1.43	7.75452
1.4305	3.62549
1.431	4.22974
1.4315	5.0354
1.432	2.61841
1.4325	5.0354
1.433	4.43115
1.4335	0.40283
1.434	-0.60425
1.4345	-3.52478
1.435	-4.73328
1.4355	-0.50354
1.436	-0.10071
1.4365	0.70496
1.437	0
1.4375	5.0354
1.438	5.43823
1.4385	6.14319
1.439	6.3446
1.4395	8.45947
1.44	6.2439
1.4405	4.63257
1.441	3.22266
1.4415	-1.10779
1.442	5.0354
1.4425	2.61841
1.443	8.25806
1.4435	0.90637
1.444	1.00708
1.4445	6.14319
1.445	14.90479
1.4455	14.40125
1.446	16.41541
1.4465	9.36584
1.447	9.56726
1.4475	5.13611
1.448	9.97009
1.4485	8.05664
1.449	8.25806
1.4495	12.08496
1.45	9.06372
1.4505	14.90479
1.451	15.1062
1.4515	14.60266
1.452	11.88354
1.4525	21.85364
1.453	16.01257
1.4535	19.53735
1.454	17.82532
1.4545	15.50903
1.455	20.24231
1.4555	13.19275
1.456	-0.20142
1.4565	-11.88354
1.457	-18.42957
1.4575	-35.14709
1.458	-46.12427
1.4585	-54.78516
1.459	-48.94409
1.4595	-38.36975
1.46	-28.50037
1.4605	-20.84656
1.461	-18.93311
1.4615	-19.23523
1.462	-6.84814
1.4625	-3.22266
1.463	9.66797
1.4635	16.3147
1.464	14.60266
1.4645	10.17151
1.465	9.76868
1.4655	11.58142
1.466	8.05664
1.4665	19.23523
1.467	24.67346
1.4675	25.57983
1.468	29.50745
1.4685	28.39966
1.469	27.99683
1.4695	30.61523
1.47	35.65063
1.4705	29.91028
1.471	16.61682
1.4715	13.69629
1.472	16.21399
1.4725	13.49487
1.473	13.797
1.4735	14.90479
1.474	19.33594
1.4745	14.90479
1.475	15.71045
1.4755	13.89771
1.476	14.60266
1.4765	19.94019
1.477	11.2793
1.4775	7.45239
1.478	11.88354
1.4785	5.0354
1.479	7.04956
1.4795	7.45239
1.48	2.61841
1.4805	6.04248
1.481	2.92053
1.4815	4.73328
1.482	6.84814
1.4825	8.05664
1.483	6.44531
1.4835	10.27222
1.484	9.76868
1.4845	4.33044
1.485	7.45239
1.4855	6.14319
1.486	3.12195
1.4865	-3.62549
1.487	-2.5177
1.4875	-3.32336
1.488	1.3092
1.4885	-0.80566
1.489	2.01416
1.4895	4.53186
1.49	3.52478
1.4905	1.51062
1.491	5.53894
1.4915	0.80566
1.492	-0.10071
1.4925	0.50354
1.493	2.31628
1.4935	2.92053
1.494	-1.40991
1.4945	2.31628
1.495	1.81274
1.4955	3.12195
1.496	6.74744
1.4965	5.74036
1.497	6.94885
1.4975	2.01416
1.498	5.13611
1.4985	-0.60425
1.499	-3.62549
1.4995	5.0354
1.5	7.85522
1.5005	10.37292
1.501	6.84814
1.5015	10.37292
1.502	3.32336
1.5025	3.32336
1.503	1.61133
1.5035	1.40991
1.504	-1.10779
1.5045	-1.61133
1.505	-5.43823
1.5055	-5.0354
1.506	-0.80566
1.5065	-3.8269
1.507	-2.92053
1.5075	2.11487
1.508	-1.2085
1.5085	-2.61841
1.509	0.60425
1.5095	2.92053
1.51	-0.90637
1.5105	0.40283
1.511	2.71912
1.5115	-2.41699
1.512	0
1.5125	-1.10779
1.513	-3.22266
1.5135	-3.7262
1.514	-3.02124
1.5145	-4.02832
1.515	-6.64673
1.5155	-3.02124
1.516	-3.12195
1.5165	-5.53894
1.517	-9.46655
1.5175	2.21558
1.518	9.46655
1.5185	17.52319
1.519	17.42249
1.5195	15.91187
1.52	14.19983
1.5205	9.36584
1.521	12.99133
1.5215	5.13611
1.522	6.94885
1.5225	12.28638
1.523	13.69629
1.5235	16.81824
1.524	11.58142
1.5245	18.02673
1.525	12.28638
1.5255	16.41541
1.526	16.71753
1.5265	14.50195
1.527	18.53027
1.5275	12.78992
1.528	10.87646
1.5285	10.77576
1.529	11.48071
1.5295	4.73328
1.53	2.11487
1.5305	6.44531
1.531	1.40991
1.5315	-0.60425
1.532	6.64673
1.5325	20.44373
1.533	30.51453
1.5335	37.16125
1.534	31.72302
1.5345	28.09753
1.535	21.04797
1.5355	17.6239
1.536	5.0354
1.5365	-1.81274
1.537	2.92053
1.5375	-3.42407
1.538	-12.68921
1.5385	-21.14868
1.539	-25.57983
1.5395	-22.05505
1.54	-22.55859
1.5405	-20.84656
1.541	-13.29346
1.5415	-7.25098
1.542	-1.51062
1.5425	3.22266
1.543	9.86938
1.5435	6.44531
1.544	4.93469
1.5445	9.06372
1.545	8.8623
1.5455	10.77576
1.546	11.98425
1.5465	18.22815
1.547	8.25806
1.5475	11.38
1.548	6.2439
1.5485	10.0708
1.549	9.97009
1.5495	1.40991
1.55	8.15735
1.5505	5.13611
1.551	6.84814
1.5515	9.16443
1.552	11.07788
1.5525	8.25806
1.553	8.15735
1.5535	4.93469
1.554	3.8269
1.5545	5.94177
1.555	7.04956
1.5555	3.62549
1.556	5.84106
1.5565	2.41699
1.557	6.64673
1.5575	10.87646
1.558	5.43823
1.5585	6.14319
1.559	6.3446
1.5595	5.23682
1.56	6.44531
1.5605	2.41699
1.561	7.45239
1.5615	3.42407
1.562	2.11487
1.5625	0.10071
1.563	-1.71204
1.5635	1.91345
1.564	6.3446
1.5645	5.33752
1.565	1.51062
1.5655	6.2439
1.566	2.61841
1.5665	8.05664
1.567	10.27222
1.5675	9.66797
1.568	14.80408
1.5685	8.96301
1.569	21.04797
1.5695	21.3501
1.57	17.72461
1.5705	15.30762
1.571	14.19983
1.5715	12.99133
1.572	14.09912
1.5725	10.57434
1.573	10.77576
1.5735	13.39417
1.574	11.2793
1.5745	5.0354
1.575	5.23682
1.5755	3.22266
1.576	1.00708
1.5765	5.74036
1.577	6.2439
1.5775	1.40991
1.578	3.8269
1.5785	1.3092
1.579	4.02832
1.5795	12.08496
1.58	0
1.5805	-1.61133
1.581	2.61841
1.5815	2.92053
1.582	8.56018
1.5825	11.58142
1.583	14.40125
1.5835	8.45947
1.584	6.2439
1.5845	5.94177
1.585	4.63257
1.5855	6.14319
1.586	5.0354
1.5865	5.63965
1.587	1.2085
1.5875	5.33752
1.588	-0.80566
1.5885	1.2085
1.589	-2.11487
1.5895	-0.20142
1.59	-3.7262
1.5905	-2.11487
1.591	-4.02832
1.5915	-6.84814
1.592	-6.74744
1.5925	-6.74744
1.593	-7.35168
1.5935	-13.69629
1.594	-12.89062
1.5945	-5.84106
1.595	-10.57434
1.5955	-3.42407
1.596	-1.51062
1.5965	4.43115
1.597	3.42407
1.5975	10.47363
1.598	7.45239
1.5985	5.23682
1.599	0.70496
1.5995	6.74744
1.6	3.02124
1.6005	7.35168
1.601	4.33044
1.6015	6.74744
1.602	4.43115
1.6025	9.66797
1.603	4.33044
1.6035	10.27222
1.604	10.27222
1.6045	10.97717
1.605	11.68213
1.6055	8.05664
1.606	9.06372
1.6065	5.74036
1.607	9.36584
1.6075	9.26514
1.608	11.98425
1.6085	11.17859
1.609	10.37292
1.6095	6.84814
1.61	3.62549
1.6105	7.04956
1.611	5.94177
1.6115	3.92761
1.612	3.02124
1.6125	8.05664
1.613	1.2085
1.6135	2.92053
1.614	7.25098
1.6145	6.14319
1.615	4.73328
1.6155	6.44531
1.616	5.33752
1.6165	7.04956
1.617	11.58142
1.6175	10.17151
1.618	6.74744
1.6185	8.05664
1.619	3.62549
1.6195	4.53186
1.62	1.10779
1.6205	4.83398
1.621	-2.31628
1.6215	-4.73328
1.622	-6.14319
1.6225	-3.22266
1.623	0.60425
1.6235	3.42407
1.624	-3.12195
1.6245	1.10779
1.625	2.5177
1.6255	7.45239
1.626	10.17151
1.6265	8.15735
1.627	3.92761
1.6275	3.7262
1.628	4.83398
1.6285	7.65381
1.629	9.76868
1.6295	14.40125
1.63	11.68213
1.6305	10.67505
1.631	8.05664
1.6315	7.65381
1.632	11.98425
1.6325	4.73328
1.633	5.63965
1.6335	10.87646
1.634	8.45947
1.6345	10.97717
1.635	10.17151
1.6355	13.49487
1.636	11.68213
1.6365	6.44531
1.637	8.25806
1.6375	5.63965
1.638	4.02832
1.6385	4.12903
1.639	1.81274
1.6395	-2.71912
1.64	-6.2439
1.6405	-2.92053
1.641	-3.92761
1.6415	-0.70496
1.642	1.10779
1.6425	1.00708
1.643	-2.41699
1.6435	-3.22266
1.644	-1.40991
1.6445	-1.2085
1.645	-3.02124
1.6455	-6.3446
1.646	0.40283
1.6465	1.51062
1.647	8.25806
1.6475	-3.7262
1.648	0.20142
1.6485	6.84814
1.649	6.3446
1.6495	5.33752
1.65	4.63257
1.6505	7.95593
1.651	6.3446
1.6515	9.06372
1.652	5.23682
1.6525	11.07788
1.653	12.18567
1.6535	13.69629
1.654	14.90479
1.6545	10.17151
1.655	15.91187
1.6555	7.65381
1.656	6.04248
1.6565	6.74744
1.657	4.83398
1.6575	8.56018
1.658	2.61841
1.6585	1.81274
1.659	5.63965
1.6595	9.86938
1.66	6.44531
1.6605	7.95593
1.661	12.68921
1.6615	9.26514
1.662	13.59558
1.6625	14.09912
1.663	18.22815
1.6635	18.8324
1.664	17.32178
1.6645	15.81116
1.665	17.12036
1.6655	12.78992
1.666	12.48779
1.6665	16.11328
1.667	14.19983
1.6675	16.41541
1.668	12.99133
1.6685	8.25806
1.669	18.53027
1.6695	14.80408
1.67	9.46655
1.6705	11.88354
1.671	5.33752
1.6715	5.23682
1.672	2.71912
1.6725	2.92053
1.673	1.61133
1.6735	2.81982
1.674	2.21558
1.6745	4.12903
1.675	2.5177
1.6755	2.41699
1.676	3.7262
1.6765	8.35876
1.677	8.8623
1.6775	10.57434
1.678	10.87646
1.6785	8.35876
1.679	12.89062
1.6795	16.11328
1.68	14.30054
1.6805	8.7616
1.681	10.67505
1.6815	10.0708
1.682	1.71204
1.6825	17.52319
1.683	11.68213
1.6835	11.38
1.684	11.78284
1.6845	14.19983
1.685	2.81982
1.6855	6.84814
1.686	6.2439
1.6865	3.32336
1.687	3.7262
1.6875	9.16443
1.688	3.22266
1.6885	7.45239
1.689	8.15735
1.6895	11.17859
1.69	6.94885
1.6905	4.33044
1.691	8.45947
1.6915	6.54602
1.692	4.63257
1.6925	8.7616
1.693	3.92761
1.6935	3.7262
1.694	3.62549
1.6945	4.73328
1.695	-0.80566
1.6955	-0.80566
1.696	-1.2085
1.6965	-1.00708
1.697	0.70496
1.6975	-5.0354
1.698	-2.41699
1.6985	-2.41699
1.699	-0.20142
1.6995	-4.12903
1.7	6.14319
1.7005	-1.10779
1.701	2.21558
1.7015	1.71204
1.702	1.91345
1.7025	2.01416
1.703	8.35876
1.7035	9.76868
1.704	9.56726
1.7045	4.12903
1.705	1.00708
1.7055	-1.3092
1.706	-6.74744
1.7065	-7.04956
1.707	-10.37292
1.7075	-4.63257
1.708	-3.52478
1.7085	1.61133
1.709	0.60425
1.7095	-0.20142
1.71	-6.84814
1.7105	0.70496
1.711	-0.50354
1.7115	-6.3446
1.712	-0.30212
1.7125	-4.93469
1.713	3.12195
1.7135	2.71912
1.714	5.23682
1.7145	2.41699
1.715	6.2439
1.7155	6.54602
1.716	6.54602
1.7165	6.84814
1.717	8.15735
1.7175	11.58142
1.718	6.3446
1.7185	13.69629
1.719	14.40125
1.7195	13.39417
1.72	2.5177
1.7205	1.91345
1.721	3.52478
1.7215	10.17151
1.722	10.37292
1.7225	5.84106
1.723	6.04248
1.7235	6.2439
1.724	2.61841
1.7245	7.95593
1.725	0.60425
1.7255	6.2439
1.726	-1.51062
1.7265	6.54602
1.727	3.92761
1.7275	4.83398
1.728	0.70496
1.7285	2.11487
1.729	-0.20142
1.7295	-1.51062
1.73	6.14319
1.7305	7.95593
1.731	8.05664
1.7315	3.02124
1.732	8.35876
1.7325	9.46655
1.733	8.56018
1.7335	8.35876
1.734	7.15027
1.7345	0.50354
1.735	2.21558
1.7355	8.96301
1.736	7.75452
1.7365	-0.30212
1.737	3.32336
1.7375	4.53186
1.738	0.80566
1.7385	2.41699
1.739	1.81274
1.7395	0.80566
1.74	4.53186
1.7405	3.32336
1.741	7.35168
1.7415	7.75452
1.742	9.06372
1.7425	5.84106
1.743	5.23682
1.7435	8.66089
1.744	9.16443
1.7445	10.47363
1.745	11.58142
1.7455	12.08496
1.746	6.64673
1.7465	7.45239
1.747	6.14319
1.7475	9.36584
1.748	10.0708
1.7485	14.09912
1.749	11.07788
1.7495	12.28638
1.75	8.56018
1.7505	10.97717
1.751	5.74036
1.7515	3.12195
1.752	2.21558
1.7525	3.7262
1.753	-0.90637
1.7535	-6.14319
1.754	-1.51062
1.7545	-7.65381
1.755	-6.64673
1.7555	-3.7262
1.756	-9.97009
1.7565	-2.5177
1.757	-5.23682
1.7575	-4.53186
1.758	-5.23682
1.7585	-6.54602
1.759	-4.12903
1.7595	-1.81274
1.76	0.20142
1.7605	2.01416
1.761	2.31628
1.7615	-1.2085
1.762	3.02124
1.7625	-2.61841
1.763	-1.91345
1.7635	4.22974
1.764	4.73328
1.7645	7.45239
1.765	6.84814
1.7655	2.41699
1.766	5.33752
1.7665	9.16443
1.767	7.75452
1.7675	7.04956
1.768	6.2439
1.7685	15.81116
1.769	11.2793
1.7695	13.69629
1.77	13.49487
1.7705	17.32178
1.771	23.76709
1.7715	20.04089
1.772	16.71753
1.7725	21.55151
1.773	17.6239
1.7735	23.56567
1.774	21.24939
1.7745	19.63806
1.775	24.87488
1.7755	16.81824
1.776	14.60266
1.7765	16.3147
1.777	9.86938
1.7775	7.95593
1.778	7.35168
1.7785	2.5177
1.779	-4.53186
1.7795	-10.37292
1.78	-10.17151
1.7805	-13.69629
1.781	-12.08496
1.7815	-16.91895
1.782	-17.22107
1.7825	-15.00549
1.783	-11.48071
1.7835	-11.98425
1.784	-14.70337
1.7845	-11.48071
1.785	-13.19275
1.7855	-11.98425
1.786	-10.17151
1.7865	-8.8623
1.787	-9.56726
1.7875	-7.5531
1.788	0.50354
1.7885	-2.11487
1.789	3.52478
1.7895	-0.70496
1.79	1.10779
1.7905	10.97717
1.791	13.19275
1.7915	19.53735
1.792	14.90479
1.7925	11.58142
1.793	6.54602
1.7935	9.36584
1.794	6.74744
1.7945	4.93469
1.795	4.63257
1.7955	10.87646
1.796	5.84106
1.7965	10.17151
1.797	5.33752
1.7975	1.40991
1.798	6.84814
1.7985	10.27222
1.799	1.2085
1.7995	3.22266
1.8	8.66089
1.8005	8.05664
1.801	4.02832
1.8015	5.74036
1.802	14.50195
1.8025	17.01965
1.803	15.91187
1.8035	11.58142
1.804	19.94019
1.8045	18.8324
1.805	12.89062
1.8055	9.56726
1.806	9.16443
1.8065	9.16443
1.807	8.7616
1.8075	9.26514
1.808	10.0708
1.8085	9.26514
1.809	4.33044
1.8095	9.66797
1.81	8.8623
1.8105	15.71045
1.811	5.94177
1.8115	5.0354
1.812	9.66797
1.8125	2.5177
1.813	8.8623
1.8135	10.27222
1.814	7.95593
1.8145	9.76868
1.815	7.75452
1.8155	7.15027
1.816	8.45947
1.8165	6.74744
1.817	9.76868
1.8175	8.56018
1.818	9.86938
1.8185	7.85522
1.819	10.77576
1.8195	7.35168
1.82	7.45239
1.8205	3.62549
1.821	9.26514
1.8215	11.38
1.822	11.2793
1.8225	10.77576
1.823	16.91895
1.8235	9.66797
1.824	3.52478
1.8245	-3.12195
1.825	-1.71204
1.8255	4.12903
1.826	6.94885
1.8265	4.83398
1.827	5.0354
1.8275	0.10071
1.828	-3.02124
1.8285	3.92761
1.829	11.98425
1.8295	10.27222
1.83	10.97717
1.8305	11.38
1.831	6.04248
1.8315	12.18567
1.832	8.66089
1.8325	9.16443
1.833	4.93469
1.8335	4.73328
1.834	2.61841
1.8345	-1.81274
1.835	7.35168
1.8355	6.44531
1.836	4.73328
1.8365	6.3446
1.837	8.8623
1.8375	13.99841
1.838	5.23682
1.8385	0.80566
1.839	-3.62549
1.8395	-2.5177
1.84	-1.51062
1.8405	1.40991
1.841	4.63257
1.8415	2.92053
1.842	8.15735
1.8425	3.12195
1.843	8.05664
1.8435	9.56726
1.844	12.18567
1.8445	10.67505
1.845	6.3446
1.8455	6.14319
1.846	4.83398
1.8465	11.2793
1.847	11.48071
1.8475	5.84106
1.848	3.52478
1.8485	7.75452
1.849	7.65381
1.8495	9.56726
1.85	9.66797
1.8505	7.15027
1.851	7.95593
1.8515	6.04248
1.852	5.63965
1.8525	10.47363
1.853	11.2793
1.8535	-3.7262
1.854	0.40283
1.8545	0.90637
1.855	1.3092
1.8555	0.40283
1.856	6.2439
1.8565	-0.60425
1.857	-0.50354
1.8575	-4.83398
1.858	-3.22266
1.8585	-2.41699
1.859	3.12195
1.8595	0
1.86	-1.40991
1.8605	8.15735
1.861	1.00708
1.8615	3.62549
1.862	8.15735
1.8625	0.40283
1.863	3.8269
1.8635	3.92761
1.864	6.94885
1.8645	7.25098
1.865	5.23682
1.8655	-1.00708
1.866	1.71204
1.8665	0.80566
1.867	5.53894
1.8675	7.45239
1.868	7.85522
1.8685	6.84814
1.869	6.74744
1.8695	4.73328
1.87	2.11487
1.8705	4.43115
1.871	1.40991
1.8715	2.31628
1.872	2.81982
1.8725	9.46655
1.873	8.25806
1.8735	3.8269
1.874	1.51062
1.8745	6.54602
1.875	0.70496
1.8755	0.90637
1.876	8.56018
1.8765	5.43823
1.877	2.41699
1.8775	8.25806
1.878	10.97717
1.8785	6.94885
1.879	1.10779
1.8795	5.0354
1.88	5.13611
1.8805	5.74036
1.881	10.47363
1.8815	5.74036
1.882	16.41541
1.8825	11.78284
1.883	15.30762
1.8835	15.00549
1.884	16.01257
1.8845	17.32178
1.885	19.83948
1.8855	10.97717
1.886	9.97009
1.8865	8.15735
1.887	4.02832
1.8875	5.63965
1.888	12.99133
1.8885	8.05664
1.889	9.16443
1.8895	9.86938
1.89	4.93469
1.8905	7.25098
1.891	5.63965
1.8915	2.31628
1.892	-2.41699
1.8925	-1.61133
1.893	-0.60425
1.8935	0.70496
1.894	0.80566
1.8945	3.02124
1.895	3.8269
1.8955	-0.90637
1.896	3.92761
1.8965	3.32336
1.897	0.50354
1.8975	3.8269
1.898	-1.3092
1.8985	1.40991
1.899	5.94177
1.8995	1.91345
1.9	-0.10071
1.9005	7.35168
1.901	4.83398
1.9015	8.15735
1.902	5.33752
1.9025	2.31628
1.903	8.56018
1.9035	5.94177
1.904	1.3092
1.9045	3.12195
1.905	-0.10071
1.9055	5.63965
1.906	2.31628
1.9065	5.43823
1.907	17.92603
1.9075	18.32886
1.908	14.09912
1.9085	14.70337
1.909	9.46655
1.9095	12.08496
1.91	10.37292
1.9105	10.97717
1.911	6.74744
1.9115	4.83398
1.912	5.84106
1.9125	-0.70496
1.913	3.8269
1.9135	-0.40283
1.914	-1.51062
1.9145	3.32336
1.915	3.62549
1.9155	2.11487
1.916	3.8269
1.9165	6.3446
1.917	3.22266
1.9175	-1.00708
1.918	-3.52478
1.9185	1.71204
1.919	4.63257
1.9195	8.15735
1.92	10.97717
1.9205	5.43823
1.921	7.25098
1.9215	2.81982
1.922	0.20142
1.9225	-4.02832
1.923	-5.63965
1.9235	-0.50354
1.924	-4.73328
1.9245	-2.11487
1.925	-3.92761
1.9255	4.33044
1.926	2.01416
1.9265	7.65381
1.927	1.2085
1.9275	1.3092
1.928	3.8269
1.9285	3.52478
1.929	2.41699
1.9295	2.71912
1.93	2.31628
1.9305	3.32336
1.931	0.30212
1.9315	1.61133
1.932	14.19983
1.9325	11.68213
1.933	8.66089
1.9335	2.41699
1.934	13.19275
1.9345	8.25806
1.935	12.48779
1.9355	6.84814
1.936	7.25098
1.9365	5.74036
1.937	9.66797
1.9375	7.65381
1.938	8.15735
1.9385	6.94885
1.939	10.47363
1.9395	8.56018
1.94	6.44531
1.9405	8.05664
1.941	8.7616
1.9415	1.51062
1.942	4.83398
1.9425	8.8623
1.943	3.62549
1.9435	2.92053
1.944	4.33044
1.9445	3.02124
1.945	0.50354
1.9455	6.74744
1.946	-2.81982
1.9465	0.10071
1.947	2.5177
1.9475	3.92761
1.948	6.2439
1.9485	8.35876
1.949	15.91187
1.9495	17.82532
1.95	15.40833
1.9505	14.40125
1.951	16.41541
1.9515	9.97009
1.952	8.66089
1.9525	10.57434
1.953	9.66797
1.9535	13.59558
1.954	12.08496
1.9545	13.19275
1.955	9.86938
1.9555	9.97009
1.956	7.65381
1.9565	11.38
1.957	-3.02124
1.9575	-9.56726
1.958	-15.50903
1.9585	-15.50903
1.959	-17.12036
1.9595	-20.1416
1.96	-21.45081
1.9605	-28.39966
1.961	-26.58691
1.9615	-24.06921
1.962	-19.13452
1.9625	-9.86938
1.963	-3.02124
1.9635	5.33752
1.964	9.26514
1.9645	14.60266
1.965	23.66638
1.9655	20.1416
1.966	23.76709
1.9665	20.84656
1.967	23.76709
1.9675	28.80249
1.968	26.48621
1.9685	28.29895
1.969	19.94019
1.9695	25.88196
1.97	31.01807
1.9705	28.80249
1.971	26.88904
1.9715	13.59558
1.972	13.19275
1.9725	8.35876
1.973	3.42407
1.9735	1.61133
1.974	4.43115
1.9745	9.06372
1.975	9.76868
1.9755	7.65381
1.976	5.23682
1.9765	8.8623
1.977	8.96301
1.9775	2.92053
1.978	1.51062
1.9785	-2.71912
1.979	7.25098
1.9795	4.73328
1.98	4.83398
1.9805	12.28638
1.981	10.97717
1.9815	8.8623
1.982	11.48071
1.9825	12.38708
1.983	11.88354
1.9835	11.38
1.984	15.71045
1.9845	9.26514
1.985	3.02124
1.9855	5.23682
1.986	1.91345
1.9865	7.25098
1.987	7.75452
1.9875	9.16443
1.988	8.8623
1.9885	12.68921
1.989	14.40125
1.9895	14.50195
1.99	18.32886
1.9905	11.68213
1.991	14.40125
1.9915	16.81824
1.992	13.69629
1.9925	15.00549
1.993	19.53735
1.9935	15.71045
1.994	18.53027
1.9945	11.98425
1.995	12.48779
1.9955	13.99841
1.996	6.14319
1.9965	6.44531
1.997	0.20142
1.9975	0.80566
1.998	-1.81274
1.9985	2.31628
1.999	3.22266
1.9995	1.51062
2	-2.61841
2.0005	0.20142
2.001	-1.61133
2.0015	-4.02832
2.002	-4.63257
2.0025	-4.02832
2.003	-1.10779
2.0035	-4.22974
2.004	4.02832
2.0045	4.73328
2.005	6.54602
2.0055	3.42407
2.006	1.51062
2.0065	0.30212
2.007	4.63257
2.0075	2.61841
2.008	6.14319
2.0085	1.00708
2.009	0
2.0095	0
2.01	-1.81274
2.0105	7.35168
2.011	7.85522
2.0115	11.07788
2.012	10.0708
2.0125	16.71753
2.013	15.30762
2.0135	12.08496
2.014	16.61682
2.0145	19.33594
2.015	10.27222
2.0155	11.78284
2.016	14.80408
2.0165	11.17859
2.017	21.55151
2.0175	17.52319
2.018	11.88354
2.0185	6.84814
2.019	0.60425
2.0195	-0.20142
2.02	-6.74744
2.0205	-12.08496
2.021	-13.09204
2.0215	-18.73169
2.022	-15.30762
2.0225	-15.71045
2.023	-22.86072
2.0235	-23.56567
2.024	-21.14868
2.0245	-30.61523
2.025	-27.49329
2.0255	-16.41541
2.026	-11.07788
2.0265	-8.25806
2.027	-13.69629
2.0275	-15.91187
2.028	-11.98425
2.0285	-7.75452
2.029	-6.94885
2.0295	-5.43823
2.03	-4.73328
2.0305	4.02832
2.031	-3.02124
2.0315	-0.60425
2.032	-1.81274
2.0325	1.2085
2.033	6.84814
2.0335	5.43823
2.034	3.8269
2.0345	5.94177
2.035	5.33752
2.0355	3.52478
2.036	-0.60425
2.0365	-0.10071
2.037	3.92761
2.0375	5.43823
2.038	9.56726
2.0385	8.15735
2.039	6.94885
2.0395	4.83398
2.04	7.75452
2.0405	14.30054
2.041	16.11328
2.0415	9.16443
2.042	15.91187
2.0425	17.52319
2.043	14.30054
2.0435	22.05505
2.044	23.8678
2.0445	13.49487
2.045	15.1062
2.0455	8.45947
2.046	2.21558
2.0465	-4.22974
2.047	-4.73328
2.0475	-3.7262
2.048	2.5177
2.0485	2.61841
2.049	6.84814
2.0495	-0.30212
2.05	4.63257
2.0505	4.12903
2.051	2.21558
2.0515	5.84106
2.052	4.83398
2.0525	3.8269
2.053	3.7262
2.0535	4.93469
2.054	2.31628
2.0545	1.51062
2.055	-7.45239
2.0555	-10.57434
2.056	-11.98425
2.0565	-7.45239
2.057	-4.12903
2.0575	-2.41699
2.058	-5.33752
2.0585	-5.74036
2.059	2.61841
2.0595	1.91345
2.06	-8.25806
2.0605	2.01416
2.061	6.3446
2.0615	9.26514
2.062	8.56018
2.0625	10.17151
2.063	13.39417
2.0635	8.35876
2.064	8.66089
2.0645	23.46497
2.065	23.56567
2.0655	29.00391
2.066	28.80249
2.0665	21.04797
2.067	8.8623
2.0675	3.92761
2.068	1.2085
2.0685	0.90637
2.069	-9.06372
2.0695	-13.89771
2.07	-18.73169
2.0705	-29.91028
2.071	-33.73718
2.0715	-27.89612
2.072	-23.16284
2.0725	-3.8269
2.073	-4.22974
2.0735	-3.42407
2.074	14.09912
2.0745	40.88745
2.075	52.56958
2.0755	67.47437
2.076	67.07153
2.0765	61.73401
2.077	51.46179
2.0775	45.92285
2.078	33.53577
2.0785	18.22815
2.079	14.19983
2.0795	15.40833
2.08	8.7616
2.0805	-5.43823
2.081	-0.40283
2.0815	-8.05664
2.082	-13.797
2.0825	-20.1416
2.083	-17.92603
2.0835	-15.50903
2.084	-7.85522
2.0845	-1.00708
2.085	7.35168
2.0855	13.69629
2.086	21.24939
2.0865	25.37842
2.087	25.177
2.0875	20.04089
2.088	22.76001
2.0885	13.59558
2.089	13.19275
2.0895	7.45239
2.09	13.99841
2.0905	5.0354
2.091	11.68213
2.0915	9.16443
2.092	6.3446
2.0925	8.66089
2.093	4.53186
2.0935	8.05664
2.094	9.97009
2.0945	9.66797
2.095	6.64673
2.0955	3.8269
2.096	4.33044
2.0965	1.71204
2.097	3.22266
2.0975	3.32336
2.098	5.74036
2.0985	4.33044
2.099	-3.32336
2.0995	2.92053
2.1	1.40991
2.1005	5.84106
2.101	8.15735
2.1015	6.54602
2.102	10.27222
2.1025	9.97009
2.103	11.48071
2.1035	8.8623
2.104	6.84814
2.1045	8.7616
2.105	12.99133
2.1055	18.12744
2.106	13.59558
2.1065	16.21399
2.107	19.43665
2.1075	18.12744
2.108	23.16284
2.1085	22.6593
2.109	18.93311
2.1095	15.1062
2.11	12.38708
2.1105	11.68213
2.111	5.23682
2.1115	4.22974
2.112	4.83398
2.1125	5.94177
2.113	1.40991
2.1135	-2.31628
2.114	-7.45239
2.1145	-5.13611
2.115	-5.63965
2.1155	-7.85522
2.116	-10.27222
2.1165	-12.18567
2.117	-10.17151
2.1175	-6.74744
2.118	-12.99133
2.1185	-12.89062
2.119	-15.91187
2.1195	-8.15735
2.12	-4.12903
2.1205	-2.81982
2.121	1.61133
2.1215	2.01416
2.122	3.7262
2.1225	8.56018
2.123	-2.41699
2.1235	4.02832
2.124	-3.42407
2.1245	-5.23682
2.125	-3.92761
2.1255	-8.45947
2.126	-5.94177
2.1265	-9.56726
2.127	-13.99841
2.1275	-11.68213
2.128	-16.41541
2.1285	-14.40125
2.129	-17.42249
2.1295	-5.13611
2.13	3.32336
2.1305	12.28638
2.131	13.19275
2.1315	18.32886
2.132	22.45789
2.1325	20.94727
2.133	19.23523
2.1335	16.81824
2.134	21.24939
2.1345	20.1416
2.135	19.63806
2.1355	19.94019
2.136	14.60266
2.1365	12.89062
2.137	12.89062
2.1375	23.06213
2.138	20.34302
2.1385	22.15576
2.139	17.32178
2.1395	13.09204
2.14	3.8269
2.1405	9.26514
2.141	13.19275
2.1415	5.94177
2.142	6.64673
2.1425	4.73328
2.143	5.43823
2.1435	2.21558
2.144	5.43823
2.1445	1.3092
2.145	4.63257
2.1455	6.14319
2.146	8.35876
2.1465	5.33752
2.147	5.43823
2.1475	8.66089
2.148	11.68213
2.1485	11.17859
2.149	10.17151
2.1495	17.52319
2.15	13.59558
2.1505	15.60974
2.151	16.51611
2.1515	23.06213
2.152	21.45081
2.1525	26.08337
2.153	21.14868
2.1535	20.54443
2.154	18.32886
2.1545	11.98425
2.155	18.63098
2.1555	19.43665
2.156	7.65381
2.1565	1.81274
2.157	0.90637
2.1575	-3.02124
2.158	-8.25806
2.1585	-13.49487
2.159	-15.1062
2.1595	-21.3501
2.16	-22.55859
2.1605	-25.37842
2.161	-23.26355
2.1615	-17.72461
2.162	-9.86938
2.1625	-3.92761
2.163	-5.94177
2.1635	0.50354
2.164	-2.11487
2.1645	-5.53894
2.165	-4.73328
2.1655	-2.81982
2.166	-0.70496
2.1665	-5.33752
2.167	-3.32336
2.1675	6.44531
2.168	5.84106
2.1685	6.94885
2.169	3.7262
2.1695	3.02124
2.17	10.57434
2.1705	8.05664
2.171	13.29346
2.1715	9.97009
2.172	8.25806
2.1725	7.85522
2.173	8.15735
2.1735	14.70337
2.174	12.5885
2.1745	14.50195
2.175	6.3446
2.1755	8.35876
2.176	8.45947
2.1765	9.76868
2.177	14.19983
2.1775	12.78992
2.178	15.30762
2.1785	9.36584
2.179	12.18567
2.1795	6.14319
2.18	7.04956
2.1805	7.65381
2.181	7.04956
2.1815	5.0354
2.182	6.14319
2.1825	7.5531
2.183	1.71204
2.1835	-9.86938
2.184	-15.91187
2.1845	-15.00549
2.185	-12.18567
2.1855	-12.38708
2.186	-7.04956
2.1865	-2.41699
2.187	9.46655
2.1875	5.43823
2.188	9.76868
2.1885	19.53735
2.189	23.8678
2.1895	32.7301
2.19	30.51453
2.1905	28.39966
2.191	29.40674
2.1915	20.54443
2.192	17.92603
2.1925	17.12036
2.193	8.96301
2.1935	12.18567
2.194	13.49487
2.1945	16.11328
2.195	11.58142
2.1955	11.68213
2.196	6.74744
2.1965	11.48071
2.197	18.12744
2.1975	14.60266
2.198	13.99841
2.1985	4.12903
2.199	4.43115
2.1995	5.33752
2.2	2.61841
2.2005	6.54602
2.201	4.83398
2.2015	5.74036
2.202	4.02832
2.2025	5.0354
2.203	-1.00708
2.2035	-1.51062
2.204	1.00708
2.2045	1.40991
2.205	3.42407
2.2055	1.81274
2.206	8.7616
2.2065	8.15735
2.207	1.71204
2.2075	3.42407
2.208	6.54602
2.2085	5.33752
2.209	2.81982
2.2095	3.12195
2.21	6.2439
2.2105	4.33044
2.211	4.53186
2.2115	6.2439
2.212	7.04956
2.2125	5.0354
2.213	5.84106
2.2135	2.81982
2.214	2.21558
2.2145	6.44531
2.215	6.74744
2.2155	4.53186
2.216	1.81274
2.2165	10.37292
2.217	5.33752
2.2175	5.23682
2.218	6.04248
2.2185	5.74036
2.219	12.68921
2.2195	14.19983
2.22	16.91895
2.2205	14.19983
2.221	15.91187
2.2215	16.41541
2.222	16.61682
2.2225	26.3855
2.223	25.07629
2.2235	22.76001
2.224	30.91736
2.2245	29.30603
2.225	27.89612
2.2255	25.88196
2.226	22.15576
2.2265	22.86072
2.227	13.29346
2.2275	4.12903
2.228	3.42407
2.2285	-1.2085
2.229	1.00708
2.2295	0.20142
2.23	-4.93469
2.2305	-15.71045
2.231	-19.73877
2.2315	-15.91187
2.232	-15.20691
2.2325	-13.49487
2.233	-16.71753
2.2335	-14.40125
2.234	-10.37292
2.2345	-8.25806
2.235	-11.78284
2.2355	-10.37292
2.236	-11.38
2.2365	-4.53186
2.237	0.20142
2.2375	-2.31628
2.238	0.50354
2.2385	2.5177
2.239	0.60425
2.2395	6.94885
2.24	4.33044
2.2405	1.71204
2.241	-0.40283
2.2415	3.22266
2.242	4.43115
2.2425	3.02124
2.243	6.14319
2.2435	3.02124
2.244	3.42407
2.2445	3.42407
2.245	-1.51062
2.2455	-2.41699
2.246	0.50354
2.2465	6.2439
2.247	10.67505
2.2475	9.26514
2.248	13.99841
2.2485	13.69629
2.249	12.08496
2.2495	10.47363
2.25	16.81824
2.2505	15.81116
2.251	18.42957
2.2515	18.73169
2.252	16.81824
2.2525	20.24231
2.253	25.27771
2.2535	21.45081
2.254	22.6593
2.2545	14.90479
2.255	-0.80566
2.2555	-12.68921
2.256	-6.84814
2.2565	-11.17859
2.257	-17.42249
2.2575	-13.49487
2.258	-18.53027
2.2585	-15.91187
2.259	-13.19275
2.2595	-5.84106
2.26	-0.60425
2.2605	1.71204
2.261	-1.51062
2.2615	1.81274
2.262	4.83398
2.2625	3.7262
2.263	-1.10779
2.2635	-3.7262
2.264	6.64673
2.2645	1.81274
2.265	7.04956
2.2655	5.63965
2.266	0.70496
2.2665	8.7616
2.267	10.97717
2.2675	13.39417
2.268	13.49487
2.2685	9.86938
2.269	8.96301
2.2695	7.95593
2.27	10.97717
2.2705	11.17859
2.271	17.01965
2.2715	16.71753
2.272	20.34302
2.2725	11.2793
2.273	8.66089
2.2735	5.43823
2.274	7.85522
2.2745	9.26514
2.275	6.74744
2.2755	9.86938
2.276	10.27222
2.2765	12.5885
2.277	10.67505
2.2775	6.2439
2.278	9.66797
2.2785	3.42407
2.279	-0.90637
2.2795	1.10779
2.28	3.12195
2.2805	5.43823
2.281	2.92053
2.2815	2.01416
2.282	11.48071
2.2825	11.2793
2.283	13.29346
2.2835	13.19275
2.284	13.19275
2.2845	12.38708
2.285	9.86938
2.2855	9.86938
2.286	6.3446
2.2865	7.65381
2.287	7.65381
2.2875	-0.40283
2.288	1.40991
2.2885	2.11487
2.289	4.53186
2.2895	4.02832
2.29	7.85522
2.2905	4.33044
2.291	6.74744
2.2915	6.64673
2.292	12.5885
2.2925	10.87646
2.293	14.19983
2.2935	12.38708
2.294	12.28638
2.2945	9.16443
2.295	5.33752
2.2955	5.23682
2.296	5.94177
2.2965	10.17151
2.297	7.15027
2.2975	12.18567
2.298	3.62549
2.2985	4.73328
2.299	-3.62549
2.2995	-1.81274
2.3	-6.94885
2.3005	-4.33044
2.301	-7.45239
2.3015	-2.92053
2.302	-2.71912
2.3025	-3.7262
2.303	-3.92761
2.3035	-2.61841
2.304	1.3092
2.3045	-1.40991
2.305	7.5531
2.3055	16.71753
2.306	22.86072
2.3065	30.91736
2.307	24.27063
2.3075	18.93311
2.308	13.09204
2.3085	4.93469
2.309	-11.58142
2.3095	-14.70337
2.31	-19.94019
2.3105	-22.86072
2.311	-25.07629
2.3115	-17.72461
2.312	-16.01257
2.3125	-20.74585
2.313	-7.75452
2.3135	-6.14319
2.314	-0.90637
2.3145	4.43115
2.315	10.17151
2.3155	12.08496
2.316	11.07788
2.3165	5.94177
2.317	12.48779
2.3175	7.45239
2.318	8.45947
2.3185	-0.30212
2.319	2.71912
2.3195	8.25806
2.32	11.68213
2.3205	11.38
2.321	12.99133
2.3215	10.87646
2.322	15.50903
2.3225	15.71045
2.323	10.47363
2.3235	16.41541
2.324	11.2793
2.3245	10.17151
2.325	8.56018
2.3255	9.16443
2.326	6.3446
2.3265	9.97009
2.327	9.36584
2.3275	11.07788
2.328	5.43823
2.3285	8.35876
2.329	1.81274
2.3295	5.63965
2.33	12.48779
2.3305	15.81116
2.331	10.97717
2.3315	12.18567
2.332	12.18567
2.3325	17.22107
2.333	16.01257
2.3335	19.94019
2.334	19.03381
2.3345	8.96301
2.335	17.6239
2.3355	21.04797
2.336	27.09045
2.3365	20.54443
2.337	5.13611
2.3375	-7.04956
2.338	-4.12903
2.3385	-10.77576
2.339	-15.50903
2.3395	-23.66638
2.34	-27.6947
2.3405	-27.99683
2.341	-30.01099
2.3415	-24.57275
2.342	-17.6239
2.3425	-6.94885
2.343	0.70496
2.3435	8.56018
2.344	16.71753
2.3445	18.32886
2.345	19.53735
2.3455	16.01257
2.346	19.13452
2.3465	20.04089
2.347	15.50903
2.3475	11.17859
2.348	13.09204
2.3485	13.19275
2.349	21.14868
2.3495	29.00391
2.35	23.56567
2.3505	21.3501
2.351	23.76709
2.3515	14.19983
2.352	12.28638
2.3525	7.75452
2.353	4.73328
2.3535	2.71912
2.354	0.90637
2.3545	-1.2085
2.355	0.20142
2.3555	-4.53186
2.356	-5.33752
2.3565	-5.53894
2.357	-10.67505
2.3575	-7.85522
2.358	-5.13611
2.3585	2.61841
2.359	-5.63965
2.3595	-4.22974
2.36	-0.60425
2.3605	4.53186
2.361	6.44531
2.3615	9.66797
2.362	7.5531
2.3625	11.17859
2.363	8.66089
2.3635	8.7616
2.364	19.33594
2.3645	15.71045
2.365	10.97717
2.3655	7.95593
2.366	9.56726
2.3665	11.98425
2.367	9.26514
2.3675	7.65381
2.368	6.2439
2.3685	13.29346
2.369	13.99841
2.3695	20.64514
2.37	31.72302
2.3705	29.50745
2.371	22.45789
2.3715	23.16284
2.372	6.04248
2.3725	-3.92761
2.373	-12.99133
2.3735	-21.3501
2.374	-22.25647
2.3745	-18.53027
2.375	-20.94727
2.3755	-11.07788
2.376	-9.76868
2.3765	0.50354
2.377	1.51062
2.3775	-6.74744
2.378	-5.13611
2.3785	-3.52478
2.379	1.81274
2.3795	11.38
2.38	7.04956
2.3805	8.15735
2.381	3.42407
2.3815	-0.40283
2.382	8.7616
2.3825	12.5885
2.383	8.35876
2.3835	5.0354
2.384	-5.53894
2.3845	-15.81116
2.385	-23.8678
2.3855	-18.42957
2.386	-9.46655
2.3865	-2.01416
2.387	-7.35168
2.3875	-19.94019
2.388	-25.37842
2.3885	-24.16992
2.389	-23.66638
2.3895	-21.04797
2.39	-18.42957
2.3905	-14.50195
2.391	-7.15027
2.3915	-3.52478
2.392	1.00708
2.3925	10.0708
2.393	16.61682
2.3935	21.3501
2.394	22.96143
2.3945	34.03931
2.395	29.50745
2.3955	31.01807
2.396	34.54285
2.3965	34.54285
2.397	44.31152
2.3975	41.69312
2.398	42.39807
2.3985	34.84497
2.399	28.19824
2.3995	25.27771
2.4	29.20532
2.4005	26.78833
2.401	18.73169
2.4015	11.58142
2.402	10.77576
2.4025	7.75452
2.403	2.71912
2.4035	4.02832
2.404	3.52478
2.4045	3.22266
2.405	3.92761
2.4055	10.0708
2.406	8.15735
2.4065	15.1062
2.407	12.18567
2.4075	7.65381
2.408	5.0354
2.4085	2.61841
2.409	0.40283
2.4095	-2.61841
2.41	4.22974
2.4105	-2.01416
2.411	4.22974
2.4115	-6.84814
2.412	-1.10779
2.4125	-0.10071
2.413	-1.3092
2.4135	0.60425
2.414	-0.40283
2.4145	-3.12195
2.415	-1.81274
2.4155	-1.3092
2.416	-0.80566
2.4165	-4.12903
2.417	-2.92053
2.4175	-3.92761
2.418	-3.02124
2.4185	-0.30212
2.419	2.5177
2.4195	-1.10779
2.42	-4.73328
2.4205	8.8623
2.421	4.83398
2.4215	9.66797
2.422	6.94885
2.4225	9.16443
2.423	5.94177
2.4235	7.15027
2.424	5.94177
2.4245	4.02832
2.425	-2.01416
2.4255	8.35876
2.426	7.75452
2.4265	8.8623
2.427	8.45947
2.4275	3.32336
2.428	3.02124
2.4285	5.23682
2.429	-1.81274
2.4295	-1.71204
2.43	-0.80566
2.4305	3.7262
2.431	9.46655
2.4315	8.56018
2.432	7.5531
2.4325	4.43115
2.433	3.02124
2.4335	1.71204
2.434	4.83398
2.4345	5.13611
2.435	1.00708
2.4355	6.04248
2.436	2.61841
2.4365	0.10071
2.437	-0.80566
2.4375	-1.61133
2.438	-4.33044
2.4385	-2.31628
2.439	-6.14319
2.4395	-7.25098
2.44	-10.47363
2.4405	-8.66089
2.441	-14.60266
2.4415	-23.66638
2.442	-36.95984
2.4425	-39.77966
2.443	-32.42798
2.4435	-29.91028
2.444	-23.36426
2.4445	-26.3855
2.445	-18.22815
2.4455	-6.04248
2.446	15.91187
2.4465	20.44373
2.447	28.60107
2.4475	27.29187
2.448	29.91028
2.4485	21.45081
2.449	16.21399
2.4495	7.35168
2.45	1.71204
2.4505	-0.30212
2.451	-5.0354
2.4515	-6.74744
2.452	-0.80566
2.4525	2.21558
2.453	12.28638
2.4535	24.47205
2.454	32.02515
2.4545	33.83789
2.455	22.05505
2.4555	15.1062
2.456	14.19983
2.4565	8.35876
2.457	12.08496
2.4575	17.6239
2.458	15.30762
2.4585	27.99683
2.459	34.74426
2.4595	35.2478
2.46	47.93701
2.4605	51.5625
2.461	36.15417
2.4615	32.32727
2.462	20.54443
2.4625	6.14319
2.463	1.40991
2.4635	-3.7262
2.464	-9.66797
2.4645	-8.7616
2.465	-17.82532
2.4655	-19.63806
2.466	-14.70337
2.4665	-6.3446
2.467	-8.96301
2.4675	-2.92053
2.468	-2.01416
2.4685	6.94885
2.469	13.797
2.4695	14.50195
2.47	19.03381
2.4705	12.89062
2.471	22.76001
2.4715	24.87488
2.472	26.58691
2.4725	30.91736
2.473	38.26904
2.4735	36.95984
2.474	31.52161
2.4745	26.88904
2.475	17.72461
2.4755	15.40833
2.476	14.60266
2.4765	6.54602
2.477	7.25098
2.4775	-2.11487
2.478	0.40283
2.4785	4.53186
2.479	5.53894
2.4795	7.35168
2.48	5.94177
2.4805	3.62549
2.481	-1.10779
2.4815	1.10779
2.482	0
2.4825	1.61133
2.483	-2.92053
2.4835	-3.02124
2.484	2.01416
2.4845	0.60425
2.485	-2.92053
2.4855	4.53186
2.486	2.41699
2.4865	5.94177
2.487	3.02124
2.4875	3.12195
2.488	-0.70496
2.4885	-1.91345
2.489	-9.06372
2.4895	-18.93311
2.49	-22.96143
2.4905	-28.39966
2.491	-21.24939
2.4915	-12.28638
2.492	-9.26514
2.4925	-2.61841
2.493	7.75452
2.4935	9.06372
2.494	14.19983
2.4945	14.80408
2.495	22.96143
2.4955	28.60107
2.496	30.11169
2.4965	25.37842
2.497	26.58691
2.4975	26.78833
2.498	23.16284
2.4985	25.07629
2.499	18.32886
2.4995	17.42249
2.5	16.3147
2.5005	17.82532
2.501	19.23523
2.5015	18.93311
2.502	23.76709
2.5025	20.84656
2.503	9.56726
2.5035	5.43823
2.504	8.05664
2.5045	5.13611
2.505	8.7616
2.5055	0.40283
2.506	-1.00708
2.5065	-3.62549
2.507	-2.31628
2.5075	-4.02832
2.508	-6.2439
2.5085	-10.37292
2.509	-6.14319
2.5095	-3.32336
2.51	0.20142
2.5105	-7.65381
2.511	-2.71912
2.5115	-0.40283
2.512	2.01416
2.5125	-3.12195
2.513	-3.62549
2.5135	-5.84106
2.514	-1.61133
2.5145	-4.12903
2.515	-7.04956
2.5155	-6.54602
2.516	-3.92761
2.5165	0.10071
2.517	-1.3092
2.5175	3.02124
2.518	1.91345
2.5185	-1.2085
2.519	4.43115
2.5195	2.21558
2.52	3.22266
2.5205	6.54602
2.521	10.17151
2.5215	14.50195
2.522	15.50903
2.5225	14.60266
2.523	11.98425
2.5235	13.99841
2.524	15.71045
2.5245	15.81116
2.525	17.72461
2.5255	11.48071
2.526	15.71045
2.5265	15.40833
2.527	14.19983
2.5275	16.81824
2.528	17.52319
2.5285	15.1062
2.529	10.97717
2.5295	13.69629
2.53	11.58142
2.5305	13.797
2.531	12.68921
2.5315	19.53735
2.532	13.29346
2.5325	15.91187
2.533	14.60266
2.5335	6.2439
2.534	10.67505
2.5345	10.87646
2.535	14.19983
2.5355	16.71753
2.536	14.80408
2.5365	15.1062
2.537	17.72461
2.5375	16.01257
2.538	12.48779
2.5385	12.38708
2.539	11.07788
2.5395	8.25806
2.54	2.5177
2.5405	3.8269
2.541	3.7262
2.5415	4.12903
2.542	5.0354
2.5425	8.7616
2.543	3.62549
2.5435	5.13611
2.544	9.46655
2.5445	13.69629
2.545	14.40125
2.5455	11.98425
2.546	17.12036
2.5465	14.70337
2.547	15.1062
2.5475	14.19983
2.548	7.5531
2.5485	-0.30212
2.549	0.90637
2.5495	0.20142
2.55	2.81982
2.5505	6.74744
2.551	8.05664
2.5515	2.5177
2.552	-2.21558
2.5525	-1.61133
2.553	-2.5177
2.5535	-4.53186
2.554	-10.77576
2.5545	-7.5531
2.555	-1.3092
2.5555	-1.2085
2.556	2.21558
2.5565	1.51062
2.557	7.04956
2.5575	3.62549
2.558	6.14319
2.5585	11.2793
2.559	9.26514
2.5595	8.15735
2.56	12.38708
2.5605	12.08496
2.561	15.1062
2.5615	10.57434
2.562	-8.8623
2.5625	-25.37842
2.563	-31.72302
2.5635	-33.33435
2.564	-30.41382
2.5645	-19.83948
2.565	-14.09912
2.5655	-5.13611
2.566	6.14319
2.5665	19.73877
2.567	26.08337
2.5675	22.45789
2.568	27.6947
2.5685	29.60815
2.569	33.83789
2.5695	26.88904
2.57	18.73169
2.5705	-2.01416
2.571	-9.76868
2.5715	-12.68921
2.572	-15.40833
2.5725	-19.94019
2.573	-22.25647
2.5735	-13.09204
2.574	-2.31628
2.5745	3.52478
2.575	2.81982
2.5755	4.02832
2.576	10.97717
2.5765	10.17151
2.577	15.60974
2.5775	15.81116
2.578	10.0708
2.5785	14.40125
2.579	18.93311
2.5795	23.46497
2.58	28.19824
2.5805	37.46338
2.581	30.41382
2.5815	25.37842
2.582	27.6947
2.5825	28.50037
2.583	41.89453
2.5835	41.29028
2.584	43.60657
2.5845	48.64197
2.585	39.77966
2.5855	36.55701
2.586	28.60107
2.5865	27.99683
2.587	28.70178
2.5875	25.68054
2.588	27.59399
2.5885	17.12036
2.589	16.71753
2.5895	14.70337
2.59	12.18567
2.5905	16.21399
2.591	9.56726
2.5915	10.77576
2.592	13.89771
2.5925	16.51611
2.593	13.09204
2.5935	11.98425
2.594	9.26514
2.5945	7.15027
2.595	5.33752
2.5955	-0.80566
2.596	-1.3092
2.5965	2.41699
2.597	1.10779
2.5975	-1.00708
2.598	-14.50195
2.5985	-28.09753
2.599	-24.77417
2.5995	-27.79541
2.6	-21.55151
2.6005	-10.67505
2.601	-10.67505
2.6015	-5.53894
2.602	2.92053
2.6025	5.33752
2.603	4.43115
2.6035	13.09204
2.604	9.46655
2.6045	9.97009
2.605	2.92053
2.6055	-3.92761
2.606	-1.71204
2.6065	3.92761
2.607	14.09912
2.6075	8.56018
2.608	10.37292
2.6085	8.45947
2.609	6.54602
2.6095	12.5885
2.61	10.27222
2.6105	14.40125
2.611	18.93311
2.6115	20.94727
2.612	16.71753
2.6125	18.42957
2.613	12.08496
2.6135	9.46655
2.614	13.89771
2.6145	2.61841
2.615	-2.5177
2.6155	-1.81274
2.616	-0.80566
2.6165	-3.42407
2.617	5.53894
2.6175	3.52478
2.618	9.36584
2.6185	4.83398
2.619	2.92053
2.6195	8.66089
2.62	-2.61841
2.6205	1.91345
2.621	5.84106
2.6215	7.15027
2.622	9.06372
2.6225	12.08496
2.623	5.0354
2.6235	3.7262
2.624	12.68921
2.6245	9.46655
2.625	1.81274
2.6255	0.40283
2.626	2.01416
2.6265	-0.50354
2.627	-1.3092
2.6275	-0.30212
2.628	-4.73328
2.6285	-6.74744
2.629	-3.12195
2.6295	-8.7616
2.63	-11.68213
2.6305	-13.09204
2.631	-9.97009
2.6315	-7.5531
2.632	-3.92761
2.6325	-5.23682
2.633	-6.64673
2.6335	-5.63965
2.634	-1.40991
2.6345	-0.80566
2.635	-3.92761
2.6355	1.51062
2.636	6.54602
2.6365	10.0708
2.637	4.63257
2.6375	4.33044
2.638	4.22974
2.6385	2.5177
2.639	0
2.6395	5.0354
2.64	1.2085
2.6405	-1.40991
2.641	-6.94885
2.6415	-2.81982
2.642	-4.63257
2.6425	-6.14319
2.643	-4.83398
2.6435	-4.33044
2.644	-8.25806
2.6445	-4.02832
2.645	5.23682
2.6455	0
2.646	2.81982
2.6465	3.42407
2.647	0.80566
2.6475	5.23682
2.648	3.32336
2.6485	11.17859
2.649	0.10071
2.6495	8.56018
2.65	5.74036
2.6505	7.75452
2.651	12.78992
2.6515	6.2439
2.652	8.45947
2.6525	12.48779
2.653	-0.60425
2.6535	2.61841
2.654	2.41699
2.6545	8.56018
2.655	6.3446
2.6555	9.26514
2.656	5.94177
2.6565	4.02832
2.657	10.27222
2.6575	13.49487
2.658	9.46655
2.6585	2.81982
2.659	10.47363
2.6595	-5.63965
2.66	-16.71753
2.6605	-17.72461
2.661	-10.57434
2.6615	3.02124
2.662	15.50903
2.6625	20.04089
2.663	21.55151
2.6635	23.46497
2.664	37.56409
2.6645	40.68604
2.665	44.61365
2.6655	38.36975
2.666	37.56409
2.6665	27.29187
2.667	11.2793
2.6675	1.71204
2.668	0.70496
2.6685	-4.83398
2.669	-19.13452
2.6695	-11.78284
2.67	-4.22974
2.6705	-5.94177
2.671	5.53894
2.6715	7.15027
2.672	-9.46655
2.6725	-32.83081
2.673	-48.84338
2.6735	-58.41064
2.674	-51.26038
2.6745	-56.5979
2.675	-48.74268
2.6755	-33.73718
2.676	-38.974
2.6765	-43.50586
2.677	-27.29187
2.6775	-17.42249
2.678	-7.5531
2.6785	-7.15027
2.679	11.68213
2.6795	19.23523
2.68	34.34143
2.6805	43.90869
2.681	49.44763
2.6815	48.94409
2.682	55.99365
2.6825	55.59082
2.683	53.27454
2.6835	38.47046
2.684	33.33435
2.6845	35.2478
2.685	26.18408
2.6855	21.14868
2.686	13.39417
2.6865	4.12903
2.687	-0.90637
2.6875	-6.64673
2.688	8.56018
2.6885	21.85364
2.689	33.43506
2.6895	39.17542
2.69	45.11719
2.6905	39.67896
2.691	32.83081
2.6915	20.54443
2.692	11.58142
2.6925	22.76001
2.693	31.52161
2.6935	38.47046
2.694	37.96692
2.6945	32.7301
2.695	28.80249
2.6955	30.81665
2.696	22.76001
2.6965	16.11328
2.697	7.75452
2.6975	2.71912
2.698	-7.04956
2.6985	-17.6239
2.699	-27.89612
2.6995	-19.53735
2.7	-23.8678
2.7005	-19.83948
2.701	-19.63806
2.7015	-14.40125
2.702	-15.00549
2.7025	-6.74744
2.703	-7.04956
2.7035	-4.22974
2.704	0.90637
2.7045	8.05664
2.705	7.35168
2.7055	6.54602
2.706	13.09204
2.7065	8.45947
2.707	0.70496
2.7075	3.92761
2.708	2.81982
2.7085	3.52478
2.709	7.75452
2.7095	6.64673
2.71	-3.42407
2.7105	1.61133
2.711	-2.61841
2.7115	2.81982
2.712	3.62549
2.7125	-3.62549
2.713	3.12195
2.7135	2.21558
2.714	0.40283
2.7145	7.95593
2.715	8.7616
2.7155	1.10779
2.716	0.80566
2.7165	4.43115
2.717	1.40991
2.7175	1.51062
2.718	3.62549
2.7185	1.3092
2.719	2.11487
2.7195	4.43115
2.72	1.10779
2.7205	-1.3092
2.721	1.51062
2.7215	4.33044
2.722	-2.61841
2.7225	-0.50354
2.723	-3.22266
2.7235	-0.50354
2.724	1.61133
2.7245	1.00708
2.725	0.60425
2.7255	3.92761
2.726	3.22266
2.7265	2.31628
2.727	3.32336
2.7275	6.84814
2.728	0.40283
2.7285	-0.40283
2.729	5.74036
2.7295	2.01416
2.73	0.60425
2.7305	1.40991
2.731	-2.31628
2.7315	1.40991
2.732	4.02832
2.7325	1.3092
2.733	4.12903
2.7335	-0.90637
2.734	1.2085
2.7345	2.01416
2.735	-0.70496
2.7355	-1.91345
2.736	4.63257
2.7365	4.22974
2.737	3.12195
2.7375	6.04248
2.738	9.86938
2.7385	5.13611
2.739	7.25098
2.7395	2.31628
2.74	3.12195
2.7405	1.2085
2.741	5.13611
2.7415	-2.41699
2.742	0.70496
2.7425	-1.3092
2.743	2.01416
2.7435	-0.30212
2.744	3.02124
2.7445	-6.3446
2.745	-0.80566
2.7455	-0.30212
2.746	-4.02832
2.7465	-3.42407
2.747	1.10779
2.7475	-6.14319
2.748	-7.45239
2.7485	-4.33044
2.749	-3.92761
2.7495	0.60425
2.75	-1.2085
2.7505	-1.3092
2.751	-1.40991
2.7515	4.02832
2.752	7.5531
2.7525	8.45947
2.753	13.39417
2.7535	16.3147
2.754	18.22815
2.7545	9.46655
2.755	6.14319
2.7555	4.43115
2.756	0.60425
2.7565	-3.8269
2.757	2.21558
2.7575	-1.71204
2.758	1.00708
2.7585	2.5177
2.759	4.33044
2.7595	1.61133
2.76	7.25098
2.7605	6.64673
2.761	4.43115
2.7615	6.84814
2.762	12.18567
2.7625	13.99841
2.763	21.95435
2.7635	18.22815
2.764	5.33752
2.7645	-7.45239
2.765	-19.94019
2.7655	-18.02673
2.766	-17.42249
2.7665	-19.43665
2.767	-11.98425
2.7675	-1.51062
2.768	1.51062
2.7685	2.31628
2.769	11.88354
2.7695	15.40833
2.77	25.37842
2.7705	32.02515
2.771	36.75842
2.7715	21.65222
2.772	-0.70496
2.7725	-19.03381
2.773	-28.9032
2.7735	-33.43506
2.774	-29.80957
2.7745	-36.65771
2.775	-36.65771
2.7755	-38.87329
2.776	-41.08887
2.7765	-33.43506
2.777	-23.76709
2.7775	-2.71912
2.778	-3.8269
2.7785	5.63965
2.779	8.45947
2.7795	17.6239
2.78	35.54993
2.7805	40.78674
2.781	50.15259
2.7815	51.46179
2.782	47.23206
2.7825	39.27612
2.783	46.62781
2.7835	53.07312
2.784	60.22339
2.7845	54.0802
2.785	44.81506
2.7855	45.82214
2.786	51.96533
2.7865	45.62073
2.787	40.58533
2.7875	37.26196
2.788	27.6947
2.7885	37.56409
2.789	38.67188
2.7895	28.09753
2.79	22.55859
2.7905	20.54443
2.791	30.61523
2.7915	43.80798
2.792	35.65063
2.7925	35.44922
2.793	29.30603
2.7935	26.18408
2.794	16.91895
2.7945	14.70337
2.795	1.10779
2.7955	0.60425
2.796	-5.0354
2.7965	-14.19983
2.797	-8.8623
2.7975	-9.36584
2.798	-11.17859
2.7985	-10.27222
2.799	-19.73877
2.7995	-19.53735
2.8	-12.08496
2.8005	-10.27222
2.801	-10.87646
2.8015	-4.93469
2.802	-4.22974
2.8025	-1.91345
2.803	-1.81274
2.8035	-5.23682
2.804	-26.18408
2.8045	-39.67896
2.805	-45.52002
2.8055	-34.84497
2.806	-23.76709
2.8065	-13.09204
2.807	-5.74036
2.8075	9.66797
2.808	18.53027
2.8085	28.29895
2.809	28.09753
2.8095	29.80957
2.81	29.30603
2.8105	30.2124
2.811	27.19116
2.8115	26.78833
2.812	9.97009
2.8125	8.15735
2.813	-0.30212
2.8135	-12.28638
2.814	-13.39417
2.8145	-11.88354
2.815	-10.0708
2.8155	-8.45947
2.816	-1.81274
2.8165	4.22974
2.817	9.76868
2.8175	-3.92761
2.818	-6.74744
2.8185	-4.33044
2.819	2.21558
2.8195	-0.40283
2.82	6.94885
2.8205	1.51062
2.821	5.0354
2.8215	2.92053
2.822	-1.51062
2.8225	1.51062
2.823	3.02124
2.8235	3.8269
2.824	2.71912
2.8245	6.3446
2.825	5.94177
2.8255	-0.60425
2.826	6.2439
2.8265	7.85522
2.827	9.46655
2.8275	8.96301
2.828	-1.51062
2.8285	-2.21558
2.829	-0.70496
2.8295	-3.8269
2.83	5.43823
2.8305	6.04248
2.831	7.04956
2.8315	5.13611
2.832	3.22266
2.8325	2.41699
2.833	6.04248
2.8335	3.7262
2.834	4.53186
2.8345	0.70496
2.835	0
2.8355	4.22974
2.836	9.46655
2.8365	4.73328
2.837	2.92053
2.8375	1.61133
2.838	2.41699
2.8385	8.66089
2.839	6.3446
2.8395	1.51062
2.84	1.3092
2.8405	-1.81274
2.841	5.84106
2.8415	-1.2085
2.842	-3.52478
2.8425	-7.45239
2.843	-13.797
2.8435	-18.12744
2.844	-15.30762
2.8445	-16.41541
2.845	-18.42957
2.8455	-17.6239
2.846	-5.43823
2.8465	2.61841
2.847	7.45239
2.8475	26.58691
2.848	29.20532
2.8485	19.94019
2.849	9.56726
2.8495	-8.35876
2.85	-21.55151
2.8505	-22.76001
2.851	-16.61682
2.8515	-11.68213
2.852	-11.2793
2.8525	-2.01416
2.853	5.43823
2.8535	20.1416
2.854	36.4563
2.8545	44.0094
2.855	38.47046
2.8555	39.67896
2.856	41.79382
2.8565	33.83789
2.857	31.01807
2.8575	21.65222
2.858	21.95435
2.8585	13.99841
2.859	17.12036
2.8595	15.00549
2.86	7.65381
2.8605	14.30054
2.861	22.86072
2.8615	32.83081
2.862	31.52161
2.8625	25.98267
2.863	24.97559
2.8635	22.35718
2.864	15.1062
2.8645	8.8623
2.865	-0.40283
2.8655	1.3092
2.866	-5.63965
2.8665	-2.01416
2.867	-9.26514
2.8675	-4.63257
2.868	-7.95593
2.8685	-3.7262
2.869	-14.60266
2.8695	-11.48071
2.87	-14.80408
2.8705	-14.30054
2.871	-8.8623
2.8715	-3.8269
2.872	0.40283
2.8725	2.61841
2.873	7.95593
2.8735	10.37292
2.874	13.59558
2.8745	9.76868
2.875	8.7616
2.8755	7.35168
2.876	5.13611
2.8765	4.53186
2.877	1.91345
2.8775	4.22974
2.878	1.51062
2.8785	3.32336
2.879	16.01257
2.8795	17.72461
2.88	19.43665
2.8805	11.68213
2.881	11.17859
2.8815	0.90637
2.882	-2.92053
2.8825	-3.62549
2.883	-10.17151
2.8835	-13.89771
2.884	-23.56567
2.8845	-30.61523
2.885	-25.47913
2.8855	-22.6593
2.886	-16.91895
2.8865	-20.24231
2.887	-17.01965
2.8875	-7.85522
2.888	2.81982
2.8885	8.05664
2.889	15.81116
2.8895	30.31311
2.89	39.27612
2.8905	32.32727
2.891	29.50745
2.8915	21.95435
2.892	26.08337
2.8925	19.13452
2.893	18.93311
2.8935	12.89062
2.894	15.81116
2.8945	20.44373
2.895	31.11877
2.8955	28.60107
2.896	34.84497
2.8965	28.50037
2.897	12.08496
2.8975	0.70496
2.898	2.92053
2.8985	6.84814
2.899	5.33752
2.8995	5.94177
2.9	4.63257
2.9005	2.81982
2.901	10.0708
2.9015	8.15735
2.902	3.42407
2.9025	8.8623
2.903	7.95593
2.9035	3.22266
2.904	-10.27222
2.9045	-14.70337
2.905	-18.32886
2.9055	-17.72461
2.906	-26.98975
2.9065	-35.44922
2.907	-35.54993
2.9075	-49.24622
2.908	-50.45471
2.9085	-45.52002
2.909	-43.50586
2.9095	-20.94727
2.91	-13.99841
2.9105	-33.83789
2.911	-28.70178
2.9115	-27.6947
2.912	-24.77417
2.9125	-34.74426
2.913	-40.38391
2.9135	-44.21082
2.914	-32.22656
2.9145	-9.46655
2.915	7.85522
2.9155	19.73877
2.916	26.28479
2.9165	44.91577
2.917	51.5625
2.9175	52.46887
2.918	60.62622
2.9185	60.4248
2.919	74.42322
2.9195	87.61597
2.92	92.44995
2.9205	89.93225
2.921	91.04004
2.9215	87.01172
2.922	73.81897
2.9225	60.4248
2.923	47.33276
2.9235	41.18958
2.924	33.23364
2.9245	31.11877
2.925	24.67346
2.9255	4.22974
2.926	-7.5531
2.9265	-9.97009
2.927	-15.00549
2.9275	-13.09204
2.928	-19.23523
2.9285	-8.7616
2.929	-7.04956
2.9295	-3.42407
2.93	-5.0354
2.9305	-5.84106
2.931	-5.53894
2.9315	0.30212
2.932	9.16443
2.9325	1.40991
2.933	4.43115
2.9335	5.0354
2.934	0.30212
2.9345	0.80566
2.935	-6.14319
2.9355	-9.16443
2.936	-5.53894
2.9365	-14.60266
2.937	-12.28638
2.9375	-16.71753
2.938	-20.34302
2.9385	-15.00549
2.939	-13.39417
2.9395	-16.3147
2.94	-14.60266
2.9405	-14.30054
2.941	-14.50195
2.9415	-4.53186
2.942	-9.36584
2.9425	-9.56726
2.943	-5.63965
2.9435	3.8269
2.944	9.26514
2.9445	13.89771
2.945	16.21399
2.9455	19.03381
2.946	11.98425
2.9465	4.53186
2.947	2.01416
2.9475	6.64673
2.948	9.16443
2.9485	8.8623
2.949	9.36584
2.9495	7.35168
2.95	9.46655
2.9505	17.72461
2.951	24.16992
2.9515	28.80249
2.952	25.37842
2.9525	22.76001
2.953	21.95435
2.9535	23.16284
2.954	32.83081
2.9545	36.95984
2.955	41.29028
2.9555	42.09595
2.956	37.06055
2.9565	40.98816
2.957	33.33435
2.9575	27.99683
2.958	19.43665
2.9585	13.89771
2.959	11.38
2.9595	11.2793
2.96	10.87646
2.9605	5.43823
2.961	0.70496
2.9615	-1.51062
2.962	-1.2085
2.9625	-7.45239
2.963	-7.75452
2.9635	-6.94885
2.964	1.61133
2.9645	-4.43115
2.965	-14.70337
2.9655	-19.03381
2.966	-17.01965
2.9665	-15.00549
2.967	-17.42249
2.9675	-16.71753
2.968	-25.37842
2.9685	-34.44214
2.969	-37.66479
2.9695	-29.30603
2.97	-11.78284
2.9705	-2.21558
2.971	5.13611
2.9715	10.17151
2.972	16.01257
2.9725	20.54443
2.973	26.78833
2.9735	29.50745
2.974	35.04639
2.9745	30.91736
2.975	31.52161
2.9755	29.20532
2.976	31.82373
2.9765	35.95276
2.977	32.62939
2.9775	28.09753
2.978	25.47913
2.9785	34.64355
2.979	25.177
2.9795	24.06921
2.98	20.54443
2.9805	8.25806
2.981	1.10779
2.9815	-13.99841
2.982	-16.61682
2.9825	-35.54993
2.983	-47.33276
2.9835	-53.17383
2.984	-55.2887
2.9845	-40.48462
2.985	-37.86621
2.9855	-26.08337
2.986	-21.65222
2.9865	-4.22974
2.987	0.90637
2.9875	18.53027
2.988	28.50037
2.9885	35.2478
2.989	30.91736
2.9895	29.91028
2.99	34.74426
2.9905	29.10461
2.991	31.4209
2.9915	33.63647
2.992	38.16833
2.9925	25.68054
2.993	25.177
2.9935	28.09753
2.994	25.47913
2.9945	28.29895
2.995	31.52161
2.9955	19.73877
2.996	15.30762
2.9965	19.33594
2.997	13.69629
2.9975	10.97717
2.998	11.88354
2.9985	13.09204
2.999	8.66089
2.9995	14.50195
3	2.81982
3.0005	1.81274
3.001	3.62549
3.0015	16.51611
3.002	22.86072
3.0025	25.177
3.003	28.09753
3.0035	24.67346
3.004	18.42957
3.0045	19.83948
3.005	12.78992
3.0055	12.68921
3.006	3.02124
3.0065	-7.15027
3.007	-10.17151
3.0075	-18.32886
3.008	-12.68921
3.0085	-7.04956
3.009	-3.92761
3.0095	-7.5531
3.01	-10.17151
3.0105	-7.5531
3.011	-4.93469
3.0115	-1.71204
3.012	-6.94885
3.0125	-42.19666
3.013	-78.45154
3.0135	-93.55774
3.014	-77.34375
3.0145	-54.88586
3.015	-36.95984
3.0155	-32.42798
3.016	-5.63965
3.0165	29.70886
3.017	60.12268
3.0175	72.10693
3.018	61.73401
3.0185	57.60498
3.019	37.26196
3.0195	15.50903
3.02	3.22266
3.0205	-13.99841
3.021	-23.8678
3.0215	-19.23523
3.022	-5.0354
3.0225	11.17859
3.023	19.43665
3.0235	16.61682
3.024	21.3501
3.0245	25.27771
3.025	19.63806
3.0255	22.6593
3.026	27.19116
3.0265	24.16992
3.027	21.95435
3.0275	17.92603
3.028	27.79541
3.0285	33.43506
3.029	32.62939
3.0295	23.06213
3.03	12.78992
3.0305	10.0708
3.031	10.17151
3.0315	19.43665
3.032	10.97717
3.0325	-16.71753
3.033	-47.33276
3.0335	-63.24463
3.034	-54.58374
3.0345	-50.05188
3.035	-45.62073
3.0355	-47.7356
3.036	-22.6593
3.0365	2.11487
3.037	8.56018
3.0375	26.18408
3.038	40.68604
3.0385	55.89294
3.039	57.60498
3.0395	62.53967
3.04	64.65454
3.0405	57.40356
3.041	49.85046
3.0415	45.01648
3.042	43.90869
3.0425	34.94568
3.043	22.55859
3.0435	18.53027
3.044	30.51453
3.0445	34.03931
3.045	35.44922
3.0455	15.71045
3.046	2.92053
3.0465	-3.62549
3.047	-9.56726
3.0475	-10.67505
3.048	-2.01416
3.0485	0.90637
3.049	3.12195
3.0495	10.67505
3.05	5.94177
3.0505	14.50195
3.051	9.06372
3.0515	9.86938
3.052	4.73328
3.0525	-21.45081
3.053	-34.54285
3.0535	-31.4209
3.054	-35.04639
3.0545	-21.95435
3.055	-24.57275
3.0555	-24.97559
3.056	-19.53735
3.0565	-26.28479
3.057	-19.94019
3.0575	-7.65381
3.058	8.96301
3.0585	9.36584
3.059	2.31628
3.0595	-1.91345
3.06	-1.51062
3.0605	-3.92761
3.061	-7.75452
3.0615	-10.87646
3.062	-23.06213
3.0625	-24.57275
3.063	-26.68762
3.0635	-9.06372
3.064	8.7616
3.0645	20.04089
3.065	23.46497
3.0655	30.01099
3.066	21.95435
3.0665	7.85522
3.067	-3.62549
3.0675	-28.50037
3.068	-47.03064
3.0685	-53.27454
3.069	-53.87878
3.0695	-45.41931
3.07	-35.44922
3.0705	-24.87488
3.071	-3.7262
3.0715	20.54443
3.072	35.44922
3.0725	50.85754
3.073	48.64197
3.0735	48.03772
3.074	47.23206
3.0745	47.43347
3.075	40.98816
3.0755	37.16125
3.076	38.06763
3.0765	39.47754
3.077	35.44922
3.0775	32.42798
3.078	31.11877
3.0785	37.96692
3.079	30.01099
3.0795	23.46497
3.08	21.45081
3.0805	19.73877
3.081	15.60974
3.0815	18.02673
3.082	17.82532
3.0825	18.22815
3.083	14.30054
3.0835	15.40833
3.084	16.01257
3.0845	15.50903
3.085	20.1416
3.0855	19.33594
3.086	16.61682
3.0865	10.37292
3.087	6.14319
3.0875	11.38
3.088	5.33752
3.0885	1.00708
3.089	2.21558
3.0895	-4.53186
3.09	1.3092
3.0905	-0.80566
3.091	-5.53894
3.0915	-5.23682
3.092	-9.66797
3.0925	-8.25806
3.093	-1.91345
3.0935	-6.14319
3.094	-9.26514
3.0945	-2.71912
3.095	-2.71912
3.0955	-4.93469
3.096	0.10071
3.0965	-4.33044
3.097	-6.2439
3.0975	-4.43115
3.098	-14.70337
3.0985	-34.44214
3.099	-35.44922
3.0995	-26.58691
3.1	-16.61682
3.1005	-9.76868
3.101	-17.32178
3.1015	-13.09204
3.102	-6.2439
3.1025	0.80566
3.103	10.17151
3.1035	13.89771
3.104	23.76709
3.1045	23.96851
3.105	24.16992
3.1055	24.97559
3.106	29.60815
3.1065	29.20532
3.107	17.32178
3.1075	4.53186
3.108	-19.63806
3.1085	-62.03613
3.109	-67.17224
3.1095	-64.95667
3.11	-33.73718
3.1105	-19.83948
3.111	-3.22266
3.1115	8.05664
3.112	31.62231
3.1125	44.31152
3.113	41.69312
3.1135	43.10303
3.114	12.99133
3.1145	-18.32886
3.115	-43.30444
3.1155	-52.46887
3.116	-49.24622
3.1165	-35.04639
3.117	-15.81116
3.1175	-5.33752
3.118	9.56726
3.1185	21.95435
3.119	31.72302
3.1195	35.2478
3.12	33.23364
3.1205	20.24231
3.121	3.22266
3.1215	-0.30212
3.122	1.2085
3.1225	0.50354
3.123	16.61682
3.1235	38.47046
3.124	21.04797
3.1245	-0.60425
3.125	1.91345
3.1255	2.61841
3.126	2.92053
3.1265	11.2793
3.127	24.27063
3.1275	30.41382
3.128	59.01489
3.1285	58.81348
3.129	47.23206
3.1295	24.37134
3.13	4.43115
3.1305	-10.67505
3.131	-16.51611
3.1315	-21.95435
3.132	-20.74585
3.1325	-10.87646
3.133	4.93469
3.1335	32.52869
3.134	54.38232
3.1345	78.14941
3.135	86.30676
3.1355	78.85437
3.136	62.43896
3.1365	41.29028
3.137	33.63647
3.1375	29.20532
3.138	25.78125
3.1385	25.57983
3.139	26.78833
3.1395	16.41541
3.14	19.63806
3.1405	5.13611
3.141	4.63257
3.1415	-1.2085
3.142	-4.33044
3.1425	0.80566
3.143	11.68213
3.1435	18.53027
3.144	21.95435
3.1445	18.02673
3.145	15.30762
3.1455	14.90479
3.146	12.48779
3.1465	1.51062
3.147	2.92053
3.1475	3.22266
3.148	10.87646
3.1485	6.94885
3.149	4.83398
3.1495	3.02124
3.15	3.32336
3.1505	3.32336
3.151	13.09204
3.1515	6.3446
3.152	6.54602
3.1525	6.94885
3.153	11.88354
3.1535	6.84814
3.154	4.83398
3.1545	6.3446
3.155	-6.3446
3.1555	-11.48071
3.156	-14.50195
3.1565	-6.74744
3.157	-8.56018
3.1575	-2.81982
3.158	-7.65381
3.1585	-7.45239
3.159	-17.12036
3.1595	-18.22815
3.16	-18.32886
3.1605	-17.82532
3.161	-23.66638
3.1615	-52.36816
3.162	-73.91968
3.1625	-66.97083
3.163	-53.67737
3.1635	-39.77966
3.164	-26.18408
3.1645	1.2085
3.165	21.14868
3.1655	50.15259
3.166	61.93542
3.1665	69.68994
3.167	54.48303
3.1675	54.98657
3.168	38.57117
3.1685	25.88196
3.169	19.33594
3.1695	6.64673
3.17	9.46655
3.1705	7.5531
3.171	6.54602
3.1715	8.96301
3.172	10.97717
3.1725	4.33044
3.173	-17.22107
3.1735	-44.41223
3.174	-59.01489
3.1745	-54.78516
3.175	-37.46338
3.1755	-20.94727
3.176	0.30212
3.1765	29.70886
3.177	25.68054
3.1775	9.76868
3.178	7.95593
3.1785	12.18567
3.179	23.56567
3.1795	16.11328
3.18	16.51611
3.1805	-18.42957
3.181	-40.68604
3.1815	-28.50037
3.182	-13.29346
3.1825	-6.3446
3.183	11.88354
3.1835	21.14868
3.184	36.05347
3.1845	58.20923
3.185	55.3894
3.1855	47.43347
3.186	41.29028
3.1865	33.13293
3.187	28.39966
3.1875	18.63098
3.188	19.83948
3.1885	40.98816
3.189	36.85913
3.1895	9.86938
3.19	-15.20691
3.1905	-28.70178
3.191	-20.44373
3.1915	-11.88354
3.192	-13.797
3.1925	-6.04248
3.193	16.11328
3.1935	34.14001
3.194	39.57825
3.1945	28.9032
3.195	15.91187
3.1955	16.81824
3.196	4.63257
3.1965	-7.15027
3.197	2.81982
3.1975	4.33044
3.198	6.74744
3.1985	12.08496
3.199	15.81116
3.1995	10.67505
3.2	8.05664
3.2005	7.5531
3.201	-1.40991
3.2015	-17.92603
3.202	-25.57983
3.2025	-19.83948
3.203	-8.56018
3.2035	2.41699
3.204	3.32336
3.2045	-1.81274
3.205	-5.63965
3.2055	2.41699
3.206	-3.92761
3.2065	-11.58142
3.207	-31.62231
3.2075	-33.23364
3.208	-31.92444
3.2085	-31.72302
3.209	-40.58533
3.2095	-55.99365
3.21	-55.89294
3.2105	-55.08728
3.211	-47.63489
3.2115	-33.43506
3.212	-26.18408
3.2125	-12.18567
3.213	6.44531
3.2135	24.77417
3.214	23.56567
3.2145	14.09912
3.215	11.98425
3.2155	24.77417
3.216	39.37683
3.2165	49.64905
3.217	52.8717
3.2175	68.28003
3.218	61.93542
3.2185	40.88745
3.219	33.33435
3.2195	37.36267
3.22	36.65771
3.2205	28.70178
3.221	-12.08496
3.2215	-33.53577
3.222	-40.68604
3.2225	-43.60657
3.223	-52.67029
3.2235	-54.18091
3.224	-49.44763
3.2245	-21.14868
3.225	18.8324
3.2255	41.79382
3.226	40.88745
3.2265	19.03381
3.227	8.66089
3.2275	-26.88904
3.228	-74.92676
3.2285	-93.25562
3.229	-102.11792
3.2295	-65.96375
3.23	-11.78284
3.2305	25.27771
3.231	95.47119
3.2315	157.2052
3.232	185.90698
3.2325	191.1438
3.233	203.53088
3.2335	212.89673
3.234	184.19495
3.2345	59.41772
3.235	-33.33435
3.2355	-64.95667
3.236	-59.31702
3.2365	-23.66638
3.237	-16.61682
3.2375	0
3.238	15.40833
3.2385	46.22498
3.239	62.74109
3.2395	70.49561
3.24	63.54675
3.2405	25.98267
3.241	-10.17151
3.2415	-45.2179
3.242	-77.54517
3.2425	-112.69226
3.243	-120.84961
3.2435	-118.02979
3.244	-116.72058
3.2445	-100.20447
3.245	-68.88428
3.2455	-45.41931
3.246	-15.81116
3.2465	21.85364
3.247	64.55383
3.2475	99.90234
3.248	117.02271
3.2485	108.46252
3.249	95.06836
3.2495	91.64429
3.25	96.67969
3.2505	97.88818
3.251	89.83154
3.2515	81.47278
3.252	65.56091
3.2525	47.8363
3.253	37.06055
3.2535	18.93311
3.254	-10.67505
3.2545	-38.26904
3.255	-58.71277
3.2555	-71.90552
3.256	-57.60498
3.2565	-31.4209
3.257	-25.68054
3.2575	-7.04956
3.258	4.22974
3.2585	15.71045
3.259	31.21948
3.2595	34.84497
3.26	20.74585
3.2605	26.58691
3.261	23.66638
3.2615	22.55859
3.262	-6.44531
3.2625	-12.38708
3.263	-9.56726
3.2635	-13.69629
3.264	-18.12744
3.2645	-20.94727
3.265	-37.46338
3.2655	-42.29736
3.266	-54.38232
3.2665	-44.21082
3.267	-15.50903
3.2675	8.05664
3.268	13.99841
3.2685	22.05505
3.269	34.03931
3.2695	45.52002
3.27	40.48462
3.2705	27.49329
3.271	32.02515
3.2715	28.39966
3.272	34.14001
3.2725	34.54285
3.273	34.03931
3.2735	30.71594
3.274	32.22656
3.2745	23.36426
3.275	12.48779
3.2755	7.04956
3.276	1.00708
3.2765	3.62549
3.277	-2.01416
3.2775	-8.35876
3.278	-9.56726
3.2785	-4.63257
3.279	-9.86938
3.2795	-16.01257
3.28	-24.97559
3.2805	-26.58691
3.281	-32.52869
3.2815	-36.55701
3.282	-28.19824
3.2825	-22.76001
3.283	-22.35718
3.2835	-28.09753
3.284	-48.74268
3.2845	-78.14941
3.285	-84.49402
3.2855	-100.90942
3.286	-106.8512
3.2865	-117.12341
3.287	-109.57031
3.2875	-88.0188
3.288	-110.57739
3.2885	-140.28625
3.289	-136.15723
3.2895	-112.08801
3.29	-70.19348
3.2905	-40.78674
3.291	-21.75293
3.2915	19.13452
3.292	43.10303
3.2925	72.00623
3.293	101.31226
3.2935	117.12341
3.294	116.72058
3.2945	121.9574
3.295	126.9928
3.2955	122.25952
3.296	111.58447
3.2965	92.65137
3.297	94.86694
3.2975	90.13367
3.298	86.60889
3.2985	89.73083
3.299	88.0188
3.2995	90.93933
3.3	79.45862
3.3005	69.89136
3.301	54.0802
3.3015	35.2478
3.302	22.76001
3.3025	26.08337
3.303	35.2478
3.3035	38.974
3.304	37.66479
3.3045	38.974
3.305	38.06763
3.3055	33.23364
3.306	26.98975
3.3065	21.3501
3.307	11.58142
3.3075	-3.22266
3.308	7.15027
3.3085	-14.60266
3.309	-78.45154
3.3095	-147.53723
3.31	-195.07141
3.3105	-211.08398
3.311	-195.97778
3.3115	-169.7937
3.312	-144.81812
3.3125	-103.82996
3.313	-48.03772
3.3135	-8.8623
3.314	14.50195
3.3145	44.21082
3.315	72.00623
3.3155	66.46729
3.316	44.41223
3.3165	11.98425
3.317	-15.40833
3.3175	-5.13611
3.318	19.43665
3.3185	39.77966
3.319	65.86304
3.3195	28.19824
3.32	-53.27454
3.3205	-98.29102
3.321	-102.72217
3.3215	-75.83313
3.322	-39.27612
3.3225	-2.71912
3.323	32.22656
3.3235	72.9126
3.324	96.98181
3.3245	96.98181
3.325	75.12817
3.3255	61.6333
3.326	66.56799
3.3265	68.68286
3.327	65.3595
3.3275	83.99048
3.328	99.60022
3.3285	101.11084
3.329	87.31384
3.3295	80.16357
3.33	60.3241
3.3305	50.55542
3.331	34.03931
3.3315	26.3855
3.332	14.80408
3.3325	9.97009
3.333	4.02832
3.3335	-15.50903
3.334	-24.97559
3.3345	-23.76709
3.335	-40.1825
3.3355	-75.83313
3.336	-80.4657
3.3365	-63.34534
3.337	-98.19031
3.3375	-131.12183
3.338	-116.51917
3.3385	-67.07153
3.339	-27.79541
3.3395	-2.5177
3.34	11.07788
3.3405	23.66638
3.341	26.08337
3.3415	6.3446
3.342	-7.15027
3.3425	-34.03931
3.343	-55.89294
3.3435	-55.08728
3.344	-32.22656
3.3445	-0.10071
3.345	33.33435
3.3455	52.8717
3.346	66.16516
3.3465	79.15649
3.347	82.68127
3.3475	64.55383
3.348	46.72852
3.3485	38.87329
3.349	31.11877
3.3495	0.10071
3.35	-2.71912
3.3505	12.68921
3.351	31.11877
3.3515	34.34143
3.352	32.93152
3.3525	51.96533
3.353	75.32959
3.3535	86.10535
3.354	90.23438
3.3545	74.72534
3.355	70.89844
3.3555	75.02747
3.356	57.20215
3.3565	16.21399
3.357	-23.76709
3.3575	-60.12268
3.358	-160.02502
3.3585	-314.00757
3.359	-387.323
3.3595	-370.30334
3.36	-333.54492
3.3605	-261.33728
3.361	-164.35547
3.3615	-37.46338
3.362	44.51294
3.3625	96.98181
3.363	116.01562
3.3635	128.10059
3.364	133.84094
3.3645	111.58447
3.365	76.63879
3.3655	34.14001
3.366	9.46655
3.3665	-69.08569
3.367	-142.30042
3.3675	-122.86377
3.368	-73.21472
3.3685	-61.02905
3.369	-56.29578
3.3695	-43.40515
3.37	6.44531
3.3705	101.11084
3.371	147.1344
3.3715	174.22485
3.372	188.32397
3.3725	196.1792
3.373	192.55371
3.3735	193.86292
3.374	192.55371
3.3745	212.09106
3.375	210.98328
3.3755	196.98486
3.376	155.9967
3.3765	86.20605
3.377	3.32336
3.3775	-107.35474
3.378	-136.86218
3.3785	-98.39172
3.379	-72.71118
3.3795	-0.70496
3.38	75.93384
3.3805	129.20837
3.381	175.13123
3.3815	196.27991
3.382	183.28857
3.3825	166.67175
3.383	140.38696
3.3835	117.22412
3.384	93.15491
3.3845	58.51135
3.385	12.38708
3.3855	-14.90479
3.386	-8.25806
3.3865	-19.53735
3.387	-34.44214
3.3875	-28.29895
3.388	-27.49329
3.3885	-20.24231
3.389	5.33752
3.3895	31.72302
3.39	57.9071
3.3905	62.03613
3.391	47.53418
3.3915	38.57117
3.392	35.44922
3.3925	29.91028
3.393	26.98975
3.3935	22.76001
3.394	24.87488
3.3945	17.92603
3.395	5.23682
3.3955	-23.56567
3.396	-75.22888
3.3965	-86.60889
3.397	-79.15649
3.3975	-50.45471
3.398	-35.95276
3.3985	-65.25879
3.399	-112.79297
3.3995	-130.71899
3.4	-108.76465
3.4005	-87.21313
3.401	-64.25171
3.4015	-34.64355
3.402	7.95593
3.4025	34.94568
3.403	57.40356
3.4035	53.47595
3.404	41.59241
3.4045	-12.68921
3.405	-66.76941
3.4055	-81.06995
3.406	-81.87561
3.4065	-100.70801
3.407	-81.57349
3.4075	-56.5979
3.408	-53.57666
3.4085	-60.12268
3.409	-49.24622
3.4095	-40.2832
3.41	-34.34143
3.4105	-34.03931
3.411	-38.47046
3.4115	-65.86304
3.412	-113.90076
3.4125	-155.9967
3.413	-206.04858
3.4135	-236.4624
3.414	-264.45923
3.4145	-301.11694
3.415	-287.52136
3.4155	-244.41833
3.416	-190.33813
3.4165	-119.94324
3.417	-38.36975
3.4175	31.62231
3.418	100.00305
3.4185	155.59387
3.419	194.76929
3.4195	235.55603
3.42	257.8125
3.4205	259.22241
3.421	246.33179
3.4215	222.46399
3.422	203.32947
3.4225	176.44043
3.423	151.76697
3.4235	134.94873
3.424	112.59155
3.4245	83.88977
3.425	72.10693
3.4255	78.65295
3.426	75.73242
3.4265	47.03064
3.427	38.974
3.4275	3.42407
3.428	-6.2439
3.4285	14.60266
3.429	30.71594
3.4295	16.91895
3.43	-15.81116
3.4305	-44.0094
3.431	-61.6333
3.4315	-119.33899
3.432	-138.27209
3.4325	-134.34448
3.433	-72.50977
3.4335	-0.60425
3.434	63.84888
3.4345	122.36023
3.435	141.09192
3.4355	130.71899
3.436	125.38147
3.4365	113.49792
3.437	61.93542
3.4375	3.22266
3.438	-13.69629
3.4385	-20.1416
3.439	-66.06445
3.4395	-120.7489
3.44	-129.40979
3.4405	-105.74341
3.441	-70.59631
3.4415	-16.61682
3.442	23.16284
3.4425	44.71436
3.443	53.77808
3.4435	70.59631
3.444	66.97083
3.4445	65.05737
3.445	75.53101
3.4455	82.9834
3.446	72.50977
3.4465	50.65613
3.447	42.49878
3.4475	46.32568
3.448	48.64197
3.4485	39.37683
3.449	54.68445
3.4495	63.64746
3.45	90.63721
3.4505	97.58606
3.451	115.91492
3.4515	112.08801
3.452	69.38782
3.4525	-49.24622
3.453	-223.37036
3.4535	-329.61731
3.454	-336.06262
3.4545	-297.18933
3.455	-251.26648
3.4555	-192.65442
3.456	-114.20288
3.4565	-32.83081
3.457	37.56409
3.4575	74.32251
3.458	78.85437
3.4585	64.05029
3.459	56.79932
3.4595	76.03455
3.46	94.86694
3.4605	94.2627
3.461	105.23987
3.4615	101.21155
3.462	86.50818
3.4625	68.68286
3.463	49.74976
3.4635	-84.99756
3.464	-218.63708
3.4645	-252.07214
3.465	-230.41992
3.4655	-214.40735
3.466	-196.38062
3.4665	-201.11389
3.467	-207.65991
3.4675	-196.68274
3.468	-82.27844
3.4685	15.30762
3.469	64.151
3.4695	72.10693
3.47	37.36267
3.4705	26.88904
3.471	50.65613
3.4715	63.54675
3.472	72.40906
3.4725	106.24695
3.473	129.00696
3.4735	157.60803
3.474	178.15247
3.4745	178.15247
3.475	152.87476
3.4755	123.2666
3.476	114.60571
3.4765	117.92908
3.477	68.28003
3.4775	73.31543
3.478	87.31384
3.4785	95.97473
3.479	80.4657
3.4795	43.50586
3.48	15.71045
3.4805	26.98975
3.481	45.01648
3.4815	57.8064
3.482	54.98657
3.4825	44.0094
3.483	46.42639
3.4835	51.15967
3.484	73.31543
3.4845	96.8811
3.485	121.25244
3.4855	101.51367
3.486	58.30994
3.4865	18.02673
3.487	-28.70178
3.4875	-48.13843
3.488	-41.59241
3.4885	-60.72693
3.489	-67.37366
3.4895	-43.90869
3.49	-30.91736
3.4905	-53.47595
3.491	-57.50427
3.4915	-41.4917
3.492	-22.05505
3.4925	-39.37683
3.493	-52.56958
3.4935	-62.43896
3.494	-73.01331
3.4945	-49.44763
3.495	-86.00464
3.4955	-105.94482
3.496	-76.43738
3.4965	-46.42639
3.497	-41.89453
3.4975	-117.12341
3.498	-130.31616
3.4985	-91.24146
3.499	-39.98108
3.4995	-2.31628
3.5	22.86072
3.5005	30.41382
3.501	49.14551
3.5015	50.75684
3.502	64.45312
3.5025	143.20679
3.503	226.79443
3.5035	229.41284
3.504	209.37195
3.5045	165.9668
3.505	121.65527
3.5055	80.76782
3.506	59.21631
3.5065	46.82922
3.507	42.8009
3.5075	39.88037
3.508	32.83081
3.5085	32.83081
3.509	41.39099
3.5095	38.36975
3.51	-5.33752
3.5105	-88.92517
3.511	-138.47351
3.5115	-171.90857
3.512	-176.0376
3.5125	-132.43103
3.513	-95.87402
3.5135	-56.09436
3.514	-17.01965
3.5145	-24.37134
3.515	-29.40674
3.5155	-26.08337
3.516	-32.62939
3.5165	-40.68604
3.517	-46.42639
3.5175	-6.94885
3.518	42.29736
3.5185	113.39722
3.519	171.70715
3.5195	201.41602
3.52	188.22327
3.5205	147.53723
3.521	95.97473
3.5215	43.50586
3.522	6.54602
3.5225	-11.98425
3.523	-11.48071
3.5235	-19.23523
3.524	-26.88904
3.5245	-24.77417
3.525	-12.08496
3.5255	22.55859
3.526	51.36108
3.5265	64.75525
3.527	66.26587
3.5275	48.74268
3.528	17.6239
3.5285	-116.72058
3.529	-216.3208
3.5295	-251.97144
3.53	-316.02173
3.5305	-352.67944
3.531	-260.93445
3.5315	-127.89917
3.532	-16.01257
3.5325	43.40515
3.533	92.24854
3.5335	128.50342
3.534	140.99121
3.5345	130.8197
3.535	96.98181
3.5355	65.66162
3.536	50.05188
3.5365	68.17932
3.537	91.8457
3.5375	117.52625
3.538	139.48059
3.5385	137.46643
3.539	88.52234
3.5395	41.39099
3.54	42.19666
3.5405	76.94092
3.541	108.05969
3.5415	81.87561
3.542	49.64905
3.5425	33.63647
3.543	26.3855
3.5435	-2.41699
3.544	-65.05737
3.5445	-113.09509
3.545	-123.77014
3.5455	-95.97473
3.546	-65.25879
3.5465	-42.59949
3.547	-53.67737
3.5475	-64.05029
3.548	-63.94958
3.5485	-41.59241
3.549	-35.14709
3.5495	-25.37842
3.55	-1.61133
3.5505	52.06604
3.551	81.57349
3.5515	91.64429
3.552	64.45312
3.5525	42.59949
3.553	23.66638
3.5535	13.797
3.554	-10.97717
3.5545	-87.31384
3.555	-139.17847
3.5555	-160.62927
3.556	-169.49158
3.5565	-210.17761
3.557	-232.03125
3.5575	-239.98718
3.558	-306.95801
3.5585	-308.56934
3.559	-239.98718
3.5595	-156.39954
3.56	-67.97791
3.5605	-5.74036
3.561	52.06604
3.5615	129.71191
3.562	170.80078
3.5625	185.10132
3.563	188.32397
3.5635	122.56165
3.564	77.64587
3.5645	75.73242
3.565	68.48145
3.5655	41.08887
3.566	28.80249
3.5665	57.70569
3.567	129.81262
3.5675	198.29407
3.568	218.43567
3.5685	231.02417
3.569	239.48364
3.5695	201.01318
3.57	100.90942
3.5705	0.10071
3.571	-1.61133
3.5715	29.40674
3.572	66.76941
3.5725	99.2981
3.573	136.25793
3.5735	130.11475
3.574	131.42395
3.5745	117.92908
3.575	98.29102
3.5755	64.05029
3.576	39.37683
3.5765	26.18408
3.577	-8.66089
3.5775	-32.42798
3.578	-22.35718
3.5785	-29.91028
3.579	-21.14868
3.5795	-4.43115
3.58	5.84106
3.5805	27.59399
3.581	53.17383
3.5815	53.27454
3.582	57.50427
3.5825	62.74109
3.583	54.58374
3.5835	26.68762
3.584	17.72461
3.5845	22.86072
3.585	26.98975
3.5855	28.09753
3.586	14.80408
3.5865	1.61133
3.587	-16.3147
3.5875	-48.23914
3.588	-68.38074
3.5885	-66.87012
3.589	-47.13135
3.5895	-31.92444
3.59	-34.24072
3.5905	-39.37683
3.591	-46.62781
3.5915	-51.36108
3.592	-47.8363
3.5925	-49.64905
3.593	-47.8363
3.5935	-36.55701
3.594	6.74744
3.5945	48.13843
3.595	71.7041
3.5955	53.17383
3.596	-13.797
3.5965	-70.3949
3.597	-61.93542
3.5975	-56.5979
3.598	-77.54517
3.5985	-113.69934
3.599	-128.302
3.5995	-138.97705
3.6	-148.3429
3.6005	-160.12573
3.601	-180.87158
3.6015	-176.44043
3.602	-142.50183
3.6025	-89.93225
3.603	-43.00232
3.6035	1.10779
3.604	18.53027
3.6045	-30.41382
3.605	-80.16357
3.6055	-89.93225
3.606	-53.47595
3.6065	-2.71912
3.607	27.19116
3.6075	49.74976
3.608	38.36975
3.6085	26.28479
3.609	30.01099
3.6095	68.88428
3.61	84.2926
3.6105	68.38074
3.611	60.22339
3.6115	64.75525
3.612	75.83313
3.6125	61.73401
3.613	60.02197
3.6135	18.8324
3.614	-112.49084
3.6145	-263.55286
3.615	-268.18542
3.6155	-226.49231
3.616	-176.84326
3.6165	-108.56323
3.617	-112.18872
3.6175	-129.10767
3.618	-65.76233
3.6185	-5.63965
3.619	19.23523
3.6195	6.64673
3.62	36.35559
3.6205	65.76233
3.621	75.73242
3.6215	43.50586
3.622	68.38074
3.6225	139.88342
3.623	197.28699
3.6235	211.48682
3.624	222.06116
3.6245	247.7417
3.625	263.25073
3.6255	267.58118
3.626	290.94543
3.6265	276.44348
3.627	274.73145
3.6275	287.72278
3.628	238.47656
3.6285	189.12964
3.629	177.85034
3.6295	139.88342
3.63	96.7804
3.6305	51.46179
3.631	35.04639
3.6315	8.25806
3.632	-23.76709
3.6325	-30.91736
3.633	-53.17383
3.6335	-92.95349
3.634	-145.62378
3.6345	-154.6875
3.635	-156.70166
3.6355	-129.30908
3.636	-95.97473
3.6365	-60.92834
3.637	1.71204
3.6375	65.96375
3.638	121.75598
3.6385	140.48767
3.639	128.20129
3.6395	120.04395
3.64	115.31067
3.6405	112.08801
3.641	99.3988
3.6415	96.27686
3.642	67.37366
3.6425	-26.28479
3.643	-125.07935
3.6435	-166.87317
3.644	-140.48767
3.6445	-112.59155
3.645	-89.63013
3.6455	-65.25879
3.646	-55.18799
3.6465	-49.95117
3.647	-33.53577
3.6475	-6.64673
3.648	5.84106
3.6485	-1.2085
3.649	7.15027
3.6495	7.5531
3.65	-3.22266
3.6505	-33.03223
3.651	-57.60498
3.6515	-69.99207
3.652	-97.88818
3.6525	-127.89917
3.653	-117.02271
3.6535	-84.89685
3.654	-57.00073
3.6545	-71.40198
3.655	-71.20056
3.6555	-101.31226
3.656	-97.98889
3.6565	-64.35242
3.657	-43.50586
3.6575	-25.88196
3.658	-0.40283
3.6585	35.2478
3.659	66.6687
3.6595	80.06287
3.66	94.16199
3.6605	105.03845
3.661	103.72925
3.6615	74.72534
3.662	87.91809
3.6625	92.85278
3.663	83.78906
3.6635	76.43738
3.664	83.99048
3.6645	63.24463
3.665	-29.60815
3.6655	-133.23669
3.666	-142.80396
3.6665	-110.57739
3.667	-51.46179
3.6675	23.36426
3.668	70.89844
3.6685	91.14075
3.669	73.11401
3.6695	-1.00708
3.67	-50.45471
3.6705	-65.66162
3.671	-83.99048
3.6715	-68.17932
3.672	-26.18408
3.6725	25.68054
3.673	55.89294
3.6735	66.56799
3.674	78.75366
3.6745	98.89526
3.675	98.29102
3.6755	92.85278
3.676	80.4657
3.6765	76.84021
3.677	99.2981
3.6775	114.505
3.678	96.98181
3.6785	41.99524
3.679	4.12903
3.6795	-6.44531
3.68	-3.02124
3.6805	18.02673
3.681	33.9386
3.6815	49.34692
3.682	63.84888
3.6825	78.95508
3.683	85.29968
3.6835	67.97791
3.684	36.55701
3.6845	26.08337
3.685	18.22815
3.6855	31.72302
3.686	30.01099
3.6865	2.71912
3.687	-59.1156
3.6875	-126.18713
3.688	-319.54651
3.6885	-523.37952
3.689	-703.0426
3.6895	-843.8324
3.69	-904.96216
3.6905	-934.26819
3.691	-815.73486
3.6915	-619.75708
3.692	-337.67395
3.6925	-85.40039
3.693	156.29883
3.6935	324.27979
3.694	412.90283
3.6945	438.98621
3.695	394.37256
3.6955	354.39148
3.696	301.72119
3.6965	278.45764
3.697	294.77234
3.6975	313.80615
3.698	330.82581
3.6985	357.41272
3.699	341.09802
3.6995	279.86755
3.7	243.20984
3.7005	207.25708
3.701	139.98413
3.7015	108.96606
3.702	140.78979
3.7025	188.6261
3.703	226.69373
3.7035	236.05957
3.704	266.37268
3.7045	274.32861
3.705	245.72754
3.7055	220.24841
3.706	168.18237
3.7065	136.86218
3.707	88.11951
3.7075	51.36108
3.708	30.71594
3.7085	29.10461
3.709	-2.21558
3.7095	-13.69629
3.71	-11.2793
3.7105	12.99133
3.711	29.70886
3.7115	18.12744
3.712	12.18567
3.7125	26.88904
3.713	49.0448
3.7135	38.26904
3.714	10.77576
3.7145	7.65381
3.715	-8.05664
3.7155	-52.771
3.716	-82.58057
3.7165	-106.9519
3.717	-141.19263
3.7175	-181.27441
3.718	-192.453
3.7185	-252.97852
3.719	-250.56152
3.7195	-258.21533
3.72	-258.92029
3.7205	-205.34363
3.721	-120.84961
3.7215	-32.93152
3.722	52.26746
3.7225	82.9834
3.723	105.34058
3.7235	126.89209
3.724	132.73315
3.7245	100.6073
3.725	51.96533
3.7255	9.76868
3.726	-74.2218
3.7265	-102.11792
3.727	-67.47437
3.7275	-21.24939
3.728	29.50745
3.7285	39.98108
3.729	71.20056
3.7295	105.74341
3.73	95.26978
3.7305	6.44531
3.731	-51.36108
3.7315	-80.86853
3.732	-61.43188
3.7325	-46.32568
3.733	-49.85046
3.7335	-48.03772
3.734	-26.68762
3.7345	0.60425
3.735	6.84814
3.7355	-26.58691
3.736	-26.88904
3.7365	-8.15735
3.737	-14.90479
3.7375	-31.32019
3.738	-78.75366
3.7385	-91.745
3.739	-88.32092
3.7395	-55.59082
3.74	-14.60266
3.7405	-3.12195
3.741	5.13611
3.7415	47.13135
3.742	19.53735
3.7425	-125.68359
3.743	-208.86841
3.7435	-204.23584
3.744	-207.76062
3.7445	-239.28223
3.745	-313.30261
3.7455	-373.02246
3.746	-320.05005
3.7465	-228.40576
3.747	-145.01953
3.7475	-260.02808
3.748	-442.81311
3.7485	-564.16626
3.749	-788.64441
3.7495	-854.40674
3.75	-690.75623
3.7505	-517.03491
3.751	-331.73218
3.7515	-184.49707
3.752	-64.85596
3.7525	-107.45544
3.753	-131.82678
3.7535	-84.89685
3.754	-11.07788
3.7545	94.96765
3.755	194.76929
3.7555	305.44739
3.756	354.6936
3.7565	380.37415
3.757	415.92407
3.7575	469.29932
3.758	491.05225
3.7585	509.07898
3.759	538.68713
3.7595	546.74377
3.76	549.06006
3.7605	618.14575
3.761	628.11584
3.7615	581.68945
3.762	517.03491
3.7625	495.28198
3.763	495.58411
3.7635	465.57312
3.764	400.21362
3.7645	354.49219
3.765	320.6543
3.7655	314.81323
3.766	307.96509
3.7665	301.31836
3.767	266.87622
3.7675	203.12805
3.768	157.40662
3.7685	133.03528
3.769	112.18872
3.7695	106.04553
3.77	85.40039
3.7705	45.11719
3.771	-4.63257
3.7715	-26.48621
3.772	-26.88904
3.7725	-48.13843
3.773	-94.3634
3.7735	-88.82446
3.774	-66.46729
3.7745	-37.06055
3.775	-24.87488
3.7755	-46.32568
3.776	-35.2478
3.7765	-45.92285
3.777	-76.7395
3.7775	-92.14783
3.778	-120.95032
3.7785	-148.14148
3.779	-166.57104
3.7795	-157.80945
3.78	-144.31458
3.7805	-140.58838
3.781	-144.6167
3.7815	-152.27051
3.782	-182.08008
3.7825	-181.073
3.783	-167.98096
3.7835	-193.76221
3.784	-276.54419
3.7845	-391.75415
3.785	-470.10498
3.7855	-479.1687
3.786	-431.3324
3.7865	-316.42456
3.787	-184.09424
3.7875	-76.23596
3.788	25.57983
3.7885	105.54199
3.789	161.43494
3.7895	195.87708
3.79	216.22009
3.7905	207.96204
3.791	114.90784
3.7915	49.14551
3.792	-116.51917
3.7925	-197.79053
3.793	-185.80627
3.7935	-129.61121
3.794	-27.79541
3.7945	74.72534
3.795	141.89758
3.7955	218.63708
3.796	229.21143
3.7965	235.1532
3.797	245.62683
3.7975	243.20984
3.798	241.09497
3.7985	217.63
3.799	197.89124
3.7995	158.4137
3.8	81.17065
3.8005	-18.93311
3.801	-9.16443
3.8015	-14.19983
3.802	-65.46021
3.8025	-64.25171
3.803	-68.68286
3.8035	-81.27136
3.804	-82.58057
3.8045	-84.69543
3.805	-88.11951
3.8055	-50.75684
3.806	-1.3092
3.8065	41.79382
3.807	48.64197
3.8075	62.64038
3.808	91.04004
3.8085	117.32483
3.809	102.52075
3.8095	72.61047
3.81	-5.63965
3.8105	-112.69226
3.811	-150.35706
3.8115	-127.09351
3.812	-113.49792
3.8125	-144.6167
3.813	-163.65051
3.8135	-191.24451
3.814	-176.44043
3.8145	-182.88574
3.815	-176.94397
3.8155	-166.16821
3.816	-150.75989
3.8165	-101.9165
3.817	-48.74268
3.8175	-9.26514
3.818	37.46338
3.8185	48.13843
3.819	27.39258
3.8195	41.89453
3.82	46.22498
3.8205	33.63647
3.821	62.13684
3.8215	115.41138
3.822	107.25403
3.8225	110.77881
3.823	125.38147
3.8235	134.14307
3.824	142.30042
3.8245	142.50183
3.825	146.22803
3.8255	142.099
3.826	100.20447
3.8265	12.48779
3.827	-111.08093
3.8275	-192.25159
3.828	-288.0249
3.8285	-319.54651
3.829	-312.39624
3.8295	-327.70386
3.83	-287.11853
3.8305	-256.70471
3.831	-263.15002
3.8315	-331.73218
3.832	-541.60767
3.8325	-623.98682
3.833	-651.58081
3.8335	-589.44397
3.834	-478.86658
3.8345	-336.56616
3.835	-166.97388
3.8355	-35.14709
3.836	142.50183
3.8365	198.39478
3.837	134.64661
3.8375	143.91174
3.838	198.19336
3.8385	234.44824
3.839	280.16968
3.8395	337.17041
3.84	365.46936
3.8405	355.9021
3.841	359.02405
3.8415	473.32764
3.842	618.54858
3.8425	598.20557
3.843	400.51575
3.8435	235.65674
3.844	153.07617
3.8445	148.24219
3.845	141.49475
3.8455	146.93298
3.846	174.8291
3.8465	221.65833
3.847	201.51672
3.8475	173.72131
3.848	149.55139
3.8485	102.82288
3.849	134.94873
3.8495	181.17371
3.85	209.37195
3.8505	178.95813
3.851	106.9519
3.8515	45.62073
3.852	6.44531
3.8525	-4.02832
3.853	10.37292
3.8535	21.95435
3.854	37.26196
3.8545	17.82532
3.855	-9.56726
3.8555	-35.65063
3.856	-47.93701
3.8565	-167.276
3.857	-372.51892
3.8575	-545.8374
3.858	-548.3551
3.8585	-494.77844
3.859	-389.73999
3.8595	-231.12488
3.86	-128.80554
3.8605	-3.62549
3.861	129.91333
3.8615	210.47974
3.862	248.74878
3.8625	290.84473
3.863	331.63147
3.8635	351.97449
3.864	297.18933
3.8645	202.22168
3.865	127.19421
3.8655	55.08728
3.866	50.85754
3.8665	90.23438
3.867	99.19739
3.8675	108.26111
3.868	147.23511
3.8685	170.49866
3.869	154.58679
3.8695	129.5105
3.87	74.12109
3.8705	57.30286
3.871	36.25488
3.8715	25.78125
3.872	-6.04248
3.8725	-77.84729
3.873	-272.51587
3.8735	-416.2262
3.874	-438.48267
3.8745	-383.99963
3.875	-323.07129
3.8755	-296.88721
3.876	-255.69763
3.8765	-158.81653
3.877	-103.32642
3.8775	-71.30127
3.878	-68.58215
3.8785	-124.17297
3.879	-303.93677
3.8795	-535.86731
3.88	-634.25903
3.8805	-597.19849
3.881	-508.17261
3.8815	-404.84619
3.882	-264.86206
3.8825	-132.83386
3.883	3.8269
3.8835	166.0675
3.884	234.95178
3.8845	304.64172
3.885	402.63062
3.8855	502.23083
3.886	572.32361
3.8865	592.3645
3.887	557.21741
3.8875	503.0365
3.888	427.70691
3.8885	359.93042
3.889	269.0918
3.8895	178.15247
3.89	112.08801
3.8905	76.33667
3.891	26.3855
3.8915	-19.94019
3.892	-73.31543
3.8925	-301.01624
3.893	-662.96082
3.8935	-960.8551
3.894	-977.1698
3.8945	-1002.14539
3.895	-886.6333
3.8955	-672.62878
3.896	-398.80371
3.8965	-203.43018
3.897	-116.51917
3.8975	-122.96448
3.898	-234.85107
3.8985	-230.31921
3.899	-9.66797
3.8995	174.32556
3.9	258.21533
3.9005	319.74792
3.901	280.27039
3.9015	262.54578
3.902	329.21448
3.9025	373.32458
3.903	314.10828
3.9035	242.60559
3.904	194.06433
3.9045	197.68982
3.905	242.7063
3.9055	332.83997
3.906	414.81628
3.9065	463.25684
3.907	484.30481
3.9075	538.18359
3.908	541.70837
3.9085	433.64868
3.909	317.73376
3.9095	220.75195
3.91	116.61987
3.9105	10.77576
3.911	-180.67017
3.9115	-356.60706
3.912	-400.31433
3.9125	-331.73218
3.913	-186.61194
3.9135	-103.02429
3.914	-36.75842
3.9145	15.91187
3.915	45.72144
3.9155	113.69934
3.916	170.80078
3.9165	195.87708
3.917	206.35071
3.9175	177.95105
3.918	162.44202
3.9185	192.05017
3.919	240.89355
3.9195	292.95959
3.92	328.81165
3.9205	363.55591
3.921	314.20898
3.9215	207.35779
3.922	139.68201
3.9225	115.00854
3.923	113.39722
3.9235	114.30359
3.924	84.49402
3.9245	44.91577
3.925	14.80408
3.9255	-12.18567
3.926	-21.04797
3.9265	-55.2887
3.927	-243.10913
3.9275	-436.97205
3.928	-492.56287
3.9285	-436.3678
3.929	-357.81555
3.9295	-253.38135
3.93	-139.68201
3.9305	-36.4563
3.931	19.43665
3.9315	-85.09827
3.932	-184.79919
3.9325	-164.85901
3.933	-97.78748
3.9335	-36.4563
3.934	10.67505
3.9345	44.11011
3.935	-10.47363
3.9355	-22.05505
3.936	-17.42249
3.9365	-2.92053
3.937	5.84106
3.9375	39.88037
3.938	56.29578
3.9385	98.79456
3.939	132.12891
