Gianluca_La_Polta_Left_3.c3d  



Time(s):	B_R_bicipite(μV):
0	4.22974
0.0005	-2.81982
0.001	-3.12195
0.0015	-0.50354
0.002	-1.61133
0.0025	-8.05664
0.003	-6.44531
0.0035	-1.10779
0.004	2.61841
0.0045	7.15027
0.005	6.54602
0.0055	6.64673
0.006	10.57434
0.0065	12.38708
0.007	19.23523
0.0075	18.93311
0.008	18.53027
0.0085	13.39417
0.009	8.05664
0.0095	6.84814
0.01	6.84814
0.0105	4.43115
0.011	7.5531
0.0115	0
0.012	-1.51062
0.0125	-6.04248
0.013	-3.92761
0.0135	-1.40991
0.014	-1.3092
0.0145	7.5531
0.015	2.71912
0.0155	2.41699
0.016	4.43115
0.0165	8.35876
0.017	5.13611
0.0175	11.78284
0.018	9.66797
0.0185	15.60974
0.019	11.17859
0.0195	13.89771
0.02	10.37292
0.0205	6.84814
0.021	8.66089
0.0215	3.62549
0.022	8.15735
0.0225	3.22266
0.023	-2.01416
0.0235	0.90637
0.024	0.80566
0.0245	5.84106
0.025	6.74744
0.0255	6.2439
0.026	6.44531
0.0265	1.51062
0.027	2.61841
0.0275	2.81982
0.028	-1.10779
0.0285	1.2085
0.029	3.52478
0.0295	-0.30212
0.03	-0.50354
0.0305	2.21558
0.031	4.83398
0.0315	-2.71912
0.032	-3.12195
0.0325	-5.84106
0.033	-4.73328
0.0335	4.12903
0.034	-0.80566
0.0345	3.22266
0.035	4.33044
0.0355	0.70496
0.036	0.70496
0.0365	7.5531
0.037	8.05664
0.0375	11.07788
0.038	9.66797
0.0385	2.01416
0.039	8.66089
0.0395	6.54602
0.04	4.63257
0.0405	9.56726
0.041	10.27222
0.0415	6.44531
0.042	12.68921
0.0425	14.19983
0.043	11.98425
0.0435	8.66089
0.044	8.96301
0.0445	5.53894
0.045	5.23682
0.0455	9.76868
0.046	10.77576
0.0465	9.66797
0.047	10.27222
0.0475	4.93469
0.048	11.68213
0.0485	14.30054
0.049	11.38
0.0495	8.05664
0.05	7.04956
0.0505	1.10779
0.051	0
0.0515	6.2439
0.052	4.12903
0.0525	1.10779
0.053	2.81982
0.0535	6.84814
0.054	2.11487
0.0545	2.31628
0.055	7.85522
0.0555	2.31628
0.056	1.40991
0.0565	-0.20142
0.057	-1.61133
0.0575	2.71912
0.058	4.02832
0.0585	10.57434
0.059	6.2439
0.0595	2.61841
0.06	4.22974
0.0605	4.73328
0.061	4.83398
0.0615	1.81274
0.062	-1.91345
0.0625	3.52478
0.063	2.71912
0.0635	4.12903
0.064	0
0.0645	7.25098
0.065	2.21558
0.0655	-1.81274
0.066	-1.61133
0.0665	2.81982
0.067	2.71912
0.0675	1.91345
0.068	3.42407
0.0685	8.45947
0.069	5.43823
0.0695	9.36584
0.07	3.22266
0.0705	9.46655
0.071	7.15027
0.0715	8.66089
0.072	8.56018
0.0725	2.92053
0.073	7.75452
0.0735	-0.60425
0.074	3.12195
0.0745	-1.71204
0.075	0.10071
0.0755	3.62549
0.076	3.32336
0.0765	-0.10071
0.077	-3.8269
0.0775	-5.23682
0.078	-2.92053
0.0785	-3.92761
0.079	-4.12903
0.0795	3.8269
0.08	3.62549
0.0805	0.70496
0.081	-4.43115
0.0815	4.93469
0.082	0.40283
0.0825	9.56726
0.083	5.63965
0.0835	7.85522
0.084	3.7262
0.0845	8.7616
0.085	11.68213
0.0855	11.48071
0.086	6.44531
0.0865	7.35168
0.087	17.72461
0.0875	13.89771
0.088	13.59558
0.0885	10.27222
0.089	12.18567
0.0895	9.56726
0.09	13.29346
0.0905	14.09912
0.091	5.94177
0.0915	9.66797
0.092	11.48071
0.0925	7.65381
0.093	6.64673
0.0935	9.36584
0.094	10.37292
0.0945	6.14319
0.095	5.23682
0.0955	2.5177
0.096	0
0.0965	-1.00708
0.097	-2.21558
0.0975	4.53186
0.098	1.10779
0.0985	1.40991
0.099	6.54602
0.0995	5.74036
0.1	6.3446
0.1005	4.33044
0.101	5.84106
0.1015	9.86938
0.102	8.66089
0.1025	6.64673
0.103	10.77576
0.1035	12.48779
0.104	8.66089
0.1045	12.89062
0.105	11.68213
0.1055	6.44531
0.106	7.85522
0.1065	9.36584
0.107	6.44531
0.1075	3.12195
0.108	4.12903
0.1085	5.84106
0.109	3.42407
0.1095	8.45947
0.11	3.22266
0.1105	9.16443
0.111	2.31628
0.1115	3.92761
0.112	3.12195
0.1125	5.13611
0.113	-3.92761
0.1135	-6.04248
0.114	-2.5177
0.1145	-0.20142
0.115	-1.61133
0.1155	6.04248
0.116	3.12195
0.1165	4.43115
0.117	0.30212
0.1175	-2.11487
0.118	-3.12195
0.1185	4.12903
0.119	5.33752
0.1195	2.31628
0.12	4.93469
0.1205	4.63257
0.121	7.04956
0.1215	7.5531
0.122	11.38
0.1225	9.06372
0.123	7.15027
0.1235	2.71912
0.124	13.19275
0.1245	11.78284
0.125	11.07788
0.1255	6.64673
0.126	4.43115
0.1265	5.13611
0.127	6.84814
0.1275	2.81982
0.128	8.45947
0.1285	11.48071
0.129	10.17151
0.1295	6.2439
0.13	4.93469
0.1305	2.41699
0.131	8.25806
0.1315	14.40125
0.132	12.68921
0.1325	16.71753
0.133	13.99841
0.1335	14.70337
0.134	4.43115
0.1345	5.0354
0.135	8.66089
0.1355	3.32336
0.136	0.40283
0.1365	5.84106
0.137	5.0354
0.1375	6.64673
0.138	6.74744
0.1385	9.36584
0.139	11.58142
0.1395	8.05664
0.14	4.73328
0.1405	5.63965
0.141	3.02124
0.1415	2.81982
0.142	3.7262
0.1425	2.5177
0.143	-0.30212
0.1435	4.93469
0.144	0.50354
0.1445	10.37292
0.145	0.70496
0.1455	5.74036
0.146	2.21558
0.1465	9.56726
0.147	-1.81274
0.1475	0.90637
0.148	-3.02124
0.1485	-3.42407
0.149	-2.92053
0.1495	-4.93469
0.15	-3.62549
0.1505	-4.93469
0.151	-7.5531
0.1515	-10.67505
0.152	-8.66089
0.1525	-12.08496
0.153	-15.60974
0.1535	-14.19983
0.154	-14.80408
0.1545	-18.93311
0.155	-17.42249
0.1555	-13.89771
0.156	-11.38
0.1565	-10.47363
0.157	-7.85522
0.1575	-1.61133
0.158	-5.33752
0.1585	-0.20142
0.159	-2.11487
0.1595	4.43115
0.16	13.39417
0.1605	12.68921
0.161	13.49487
0.1615	17.72461
0.162	19.43665
0.1625	18.8324
0.163	17.82532
0.1635	18.93311
0.164	19.53735
0.1645	19.63806
0.165	15.00549
0.1655	16.21399
0.166	17.92603
0.1665	13.797
0.167	15.91187
0.1675	17.22107
0.168	11.58142
0.1685	11.48071
0.169	13.29346
0.1695	11.78284
0.17	11.07788
0.1705	12.78992
0.171	8.05664
0.1715	13.09204
0.172	10.47363
0.1725	12.89062
0.173	7.65381
0.1735	4.73328
0.174	10.97717
0.1745	8.7616
0.175	6.04248
0.1755	6.74744
0.176	12.38708
0.1765	6.04248
0.177	7.65381
0.1775	6.94885
0.178	4.73328
0.1785	4.33044
0.179	6.74744
0.1795	0.30212
0.18	3.22266
0.1805	-0.60425
0.181	4.63257
0.1815	5.84106
0.182	8.05664
0.1825	8.56018
0.183	5.43823
0.1835	3.42407
0.184	2.81982
0.1845	4.73328
0.185	0.10071
0.1855	2.5177
0.186	1.71204
0.1865	4.73328
0.187	10.27222
0.1875	6.14319
0.188	7.75452
0.1885	4.93469
0.189	9.97009
0.1895	9.56726
0.19	7.5531
0.1905	14.70337
0.191	11.98425
0.1915	3.7262
0.192	4.43115
0.1925	0.50354
0.193	3.7262
0.1935	6.74744
0.194	3.22266
0.1945	1.81274
0.195	5.74036
0.1955	-2.41699
0.196	5.23682
0.1965	3.32336
0.197	4.73328
0.1975	4.73328
0.198	4.22974
0.1985	0.90637
0.199	3.12195
0.1995	1.3092
0.2	-0.70496
0.2005	2.81982
0.201	2.92053
0.2015	2.21558
0.202	-2.11487
0.2025	-2.92053
0.203	-11.07788
0.2035	-11.17859
0.204	-4.43115
0.2045	-11.88354
0.205	-3.92761
0.2055	-5.43823
0.206	1.40991
0.2065	5.33752
0.207	-1.2085
0.2075	5.74036
0.208	8.25806
0.2085	12.18567
0.209	12.08496
0.2095	8.8623
0.21	10.37292
0.2105	5.13611
0.211	2.81982
0.2115	5.74036
0.212	8.56018
0.2125	6.2439
0.213	3.42407
0.2135	3.02124
0.214	5.84106
0.2145	3.52478
0.215	0.70496
0.2155	-0.90637
0.216	6.2439
0.2165	5.84106
0.217	7.35168
0.2175	10.67505
0.218	9.46655
0.2185	8.7616
0.219	5.33752
0.2195	3.42407
0.22	0.40283
0.2205	7.25098
0.221	2.81982
0.2215	0.40283
0.222	6.2439
0.2225	6.84814
0.223	6.04248
0.2235	0.40283
0.224	0.30212
0.2245	-2.11487
0.225	0.30212
0.2255	1.00708
0.226	3.02124
0.2265	0
0.227	1.40991
0.2275	-0.10071
0.228	-2.92053
0.2285	-3.02124
0.229	-8.8623
0.2295	-8.56018
0.23	-5.94177
0.2305	-6.74744
0.231	0
0.2315	1.91345
0.232	-2.41699
0.2325	1.2085
0.233	3.12195
0.2335	11.58142
0.234	11.58142
0.2345	8.96301
0.235	13.797
0.2355	7.75452
0.236	15.91187
0.2365	17.32178
0.237	15.30762
0.2375	9.56726
0.238	16.11328
0.2385	11.48071
0.239	11.68213
0.2395	14.70337
0.24	14.80408
0.2405	12.99133
0.241	12.99133
0.2415	13.49487
0.242	19.63806
0.2425	12.38708
0.243	16.91895
0.2435	11.88354
0.244	12.5885
0.2445	12.5885
0.245	9.86938
0.2455	5.13611
0.246	13.99841
0.2465	10.17151
0.247	8.56018
0.2475	8.15735
0.248	3.7262
0.2485	11.38
0.249	6.14319
0.2495	4.73328
0.25	0.70496
0.2505	5.23682
0.251	13.09204
0.2515	6.2439
0.252	11.58142
0.2525	12.5885
0.253	11.48071
0.2535	14.30054
0.254	16.81824
0.2545	13.99841
0.255	13.89771
0.2555	9.36584
0.256	15.60974
0.2565	10.17151
0.257	6.84814
0.2575	10.17151
0.258	9.76868
0.2585	6.74744
0.259	5.43823
0.2595	6.14319
0.26	5.53894
0.2605	8.96301
0.261	4.83398
0.2615	9.46655
0.262	8.35876
0.2625	6.54602
0.263	7.25098
0.2635	10.47363
0.264	14.80408
0.2645	10.17151
0.265	6.54602
0.2655	10.77576
0.266	7.35168
0.2665	8.35876
0.267	11.2793
0.2675	5.43823
0.268	9.36584
0.2685	8.25806
0.269	12.38708
0.2695	9.56726
0.27	9.76868
0.2705	10.0708
0.271	5.74036
0.2715	7.25098
0.272	10.97717
0.2725	12.48779
0.273	11.58142
0.2735	8.7616
0.274	13.09204
0.2745	2.11487
0.275	2.71912
0.2755	-0.90637
0.276	0.70496
0.2765	2.31628
0.277	1.81274
0.2775	1.2085
0.278	8.96301
0.2785	3.62549
0.279	2.81982
0.2795	1.91345
0.28	-0.90637
0.2805	-4.63257
0.281	-2.71912
0.2815	-1.40991
0.282	1.2085
0.2825	-1.3092
0.283	1.51062
0.2835	2.81982
0.284	6.84814
0.2845	6.14319
0.285	11.38
0.2855	12.38708
0.286	13.09204
0.2865	13.89771
0.287	13.99841
0.2875	13.29346
0.288	9.16443
0.2885	11.48071
0.289	14.60266
0.2895	11.78284
0.29	15.81116
0.2905	11.07788
0.291	15.40833
0.2915	12.99133
0.292	12.28638
0.2925	6.44531
0.293	4.12903
0.2935	-2.41699
0.294	0.30212
0.2945	-10.47363
0.295	-12.18567
0.2955	-19.63806
0.296	-28.39966
0.2965	-32.83081
0.297	-31.32019
0.2975	-24.97559
0.298	-23.16284
0.2985	-25.07629
0.299	-19.03381
0.2995	-12.08496
0.3	-4.43115
0.3005	0.10071
0.301	-1.91345
0.3015	9.46655
0.302	23.16284
0.3025	30.11169
0.303	36.05347
0.3035	31.52161
0.304	41.39099
0.3045	36.95984
0.305	38.47046
0.3055	29.60815
0.306	22.15576
0.3065	21.45081
0.307	18.42957
0.3075	15.30762
0.308	20.94727
0.3085	13.39417
0.309	14.60266
0.3095	17.32178
0.31	9.76868
0.3105	11.68213
0.311	11.07788
0.3115	13.797
0.312	9.97009
0.3125	15.1062
0.313	13.19275
0.3135	8.56018
0.314	11.78284
0.3145	12.18567
0.315	7.25098
0.3155	6.44531
0.316	9.97009
0.3165	7.35168
0.317	5.33752
0.3175	7.85522
0.318	5.13611
0.3185	5.23682
0.319	9.86938
0.3195	8.66089
0.32	3.22266
0.3205	1.91345
0.321	0.80566
0.3215	1.10779
0.322	-3.62549
0.3225	-1.40991
0.323	-1.91345
0.3235	-1.2085
0.324	1.00708
0.3245	-0.90637
0.325	-0.20142
0.3255	-0.90637
0.326	2.21558
0.3265	2.71912
0.327	-1.40991
0.3275	1.10779
0.328	3.22266
0.3285	4.73328
0.329	4.43115
0.3295	4.02832
0.33	3.12195
0.3305	-0.80566
0.331	-0.20142
0.3315	3.22266
0.332	1.91345
0.3325	-0.90637
0.333	-2.21558
0.3335	-1.81274
0.334	-0.80566
0.3345	-3.8269
0.335	3.42407
0.3355	3.42407
0.336	-1.91345
0.3365	1.81274
0.337	3.12195
0.3375	2.5177
0.338	0.30212
0.3385	0.10071
0.339	0.50354
0.3395	3.62549
0.34	8.25806
0.3405	4.02832
0.341	0.50354
0.3415	3.22266
0.342	6.64673
0.3425	7.45239
0.343	5.0354
0.3435	7.45239
0.344	7.75452
0.3445	11.2793
0.345	4.33044
0.3455	11.2793
0.346	16.11328
0.3465	12.89062
0.347	11.78284
0.3475	0.70496
0.348	0.40283
0.3485	-3.92761
0.349	3.62549
0.3495	-6.14319
0.35	-1.00708
0.3505	1.61133
0.351	-3.62549
0.3515	3.52478
0.352	3.32336
0.3525	1.51062
0.353	-0.90637
0.3535	2.71912
0.354	0.40283
0.3545	-0.60425
0.355	0.90637
0.3555	5.33752
0.356	0.70496
0.3565	1.91345
0.357	0.90637
0.3575	-6.3446
0.358	1.3092
0.3585	-1.3092
0.359	3.52478
0.3595	3.8269
0.36	5.53894
0.3605	6.14319
0.361	7.75452
0.3615	11.2793
0.362	8.45947
0.3625	8.45947
0.363	4.33044
0.3635	0.30212
0.364	4.12903
0.3645	-1.51062
0.365	3.92761
0.3655	4.73328
0.366	8.56018
0.3665	9.56726
0.367	5.23682
0.3675	5.63965
0.368	3.92761
0.3685	1.40991
0.369	10.47363
0.3695	4.12903
0.37	1.81274
0.3705	-1.3092
0.371	-0.70496
0.3715	-2.11487
0.372	4.43115
0.3725	2.92053
0.373	3.92761
0.3735	3.52478
0.374	6.94885
0.3745	-1.10779
0.375	1.3092
0.3755	2.31628
0.376	-0.30212
0.3765	1.3092
0.377	-0.60425
0.3775	-1.40991
0.378	0.50354
0.3785	1.51062
0.379	0.40283
0.3795	8.05664
0.38	5.84106
0.3805	9.16443
0.381	2.71912
0.3815	4.53186
0.382	-0.70496
0.3825	-0.70496
0.383	0.30212
0.3835	0.40283
0.384	-6.84814
0.3845	-8.05664
0.385	-6.44531
0.3855	-7.45239
0.386	0.50354
0.3865	2.11487
0.387	4.73328
0.3875	11.38
0.388	3.92761
0.3885	7.45239
0.389	5.94177
0.3895	6.04248
0.39	6.94885
0.3905	8.45947
0.391	3.8269
0.3915	10.17151
0.392	10.27222
0.3925	10.67505
0.393	7.04956
0.3935	10.37292
0.394	8.25806
0.3945	10.67505
0.395	15.1062
0.3955	9.76868
0.396	12.28638
0.3965	27.49329
0.397	33.33435
0.3975	35.95276
0.398	42.29736
0.3985	42.49878
0.399	29.91028
0.3995	29.80957
0.4	19.83948
0.4005	13.797
0.401	8.15735
0.4015	6.64673
0.402	4.12903
0.4025	1.51062
0.403	5.63965
0.4035	1.3092
0.404	5.94177
0.4045	8.45947
0.405	9.86938
0.4055	13.19275
0.406	11.58142
0.4065	10.0708
0.407	6.04248
0.4075	3.62549
0.408	6.94885
0.4085	1.10779
0.409	-0.80566
0.4095	23.76709
0.41	47.43347
0.4105	58.41064
0.411	55.89294
0.4115	47.33276
0.412	34.74426
0.4125	29.10461
0.413	35.85205
0.4135	32.22656
0.414	24.16992
0.4145	9.66797
0.415	-2.21558
0.4155	-12.89062
0.416	-30.81665
0.4165	-37.7655
0.417	-45.2179
0.4175	-44.11011
0.418	-49.34692
0.4185	-37.36267
0.419	-33.63647
0.4195	-27.99683
0.42	-20.04089
0.4205	-16.61682
0.421	-9.56726
0.4215	-14.70337
0.422	-6.2439
0.4225	-11.68213
0.423	-2.01416
0.4235	-1.2085
0.424	3.92761
0.4245	9.36584
0.425	7.35168
0.4255	9.97009
0.426	6.74744
0.4265	9.76868
0.427	10.17151
0.4275	14.09912
0.428	10.67505
0.4285	11.2793
0.429	16.91895
0.4295	15.40833
0.43	22.25647
0.4305	19.94019
0.431	19.23523
0.4315	9.66797
0.432	11.98425
0.4325	8.8623
0.433	2.41699
0.4335	7.25098
0.434	8.66089
0.4345	6.44531
0.435	2.21558
0.4355	1.3092
0.436	1.40991
0.4365	1.51062
0.437	0.20142
0.4375	0.60425
0.438	3.52478
0.4385	10.37292
0.439	8.96301
0.4395	9.56726
0.44	9.66797
0.4405	10.57434
0.441	8.96301
0.4415	7.04956
0.442	7.25098
0.4425	5.43823
0.443	4.22974
0.4435	4.73328
0.444	-0.40283
0.4445	3.22266
0.445	4.02832
0.4455	7.85522
0.446	9.66797
0.4465	10.0708
0.447	9.66797
0.4475	6.94885
0.448	-0.50354
0.4485	2.81982
0.449	9.06372
0.4495	9.36584
0.45	10.37292
0.4505	12.99133
0.451	12.48779
0.4515	11.07788
0.452	5.84106
0.4525	0.20142
0.453	3.52478
0.4535	4.33044
0.454	3.32336
0.4545	9.97009
0.455	6.2439
0.4555	3.92761
0.456	2.71912
0.4565	10.0708
0.457	9.36584
0.4575	7.15027
0.458	10.0708
0.4585	9.46655
0.459	7.04956
0.4595	9.36584
0.46	0.50354
0.4605	8.35876
0.461	1.40991
0.4615	0.40283
0.462	4.63257
0.4625	5.33752
0.463	5.84106
0.4635	7.15027
0.464	3.42407
0.4645	3.8269
0.465	3.22266
0.4655	3.92761
0.466	4.53186
0.4665	1.81274
0.467	5.94177
0.4675	-0.90637
0.468	1.00708
0.4685	4.43115
0.469	5.23682
0.4695	6.04248
0.47	2.01416
0.4705	6.54602
0.471	4.63257
0.4715	-0.70496
0.472	0.90637
0.4725	0.90637
0.473	4.63257
0.4735	-1.51062
0.474	-2.5177
0.4745	-2.11487
0.475	3.32336
0.4755	4.93469
0.476	3.8269
0.4765	6.94885
0.477	6.64673
0.4775	4.53186
0.478	4.63257
0.4785	7.75452
0.479	3.52478
0.4795	2.81982
0.48	2.71912
0.4805	11.88354
0.481	7.15027
0.4815	7.85522
0.482	12.08496
0.4825	10.0708
0.483	9.86938
0.4835	7.35168
0.484	12.18567
0.4845	6.44531
0.485	2.61841
0.4855	0.30212
0.486	-1.10779
0.4865	-2.21558
0.487	-0.20142
0.4875	4.83398
0.488	7.65381
0.4885	1.3092
0.489	8.8623
0.4895	11.17859
0.49	10.37292
0.4905	14.60266
0.491	21.24939
0.4915	14.90479
0.492	13.69629
0.4925	15.91187
0.493	13.99841
0.4935	14.40125
0.494	8.15735
0.4945	13.99841
0.495	15.1062
0.4955	19.13452
0.496	18.63098
0.4965	9.76868
0.497	14.60266
0.4975	15.00549
0.498	12.89062
0.4985	15.1062
0.499	20.44373
0.4995	12.99133
0.5	11.48071
0.5005	12.48779
0.501	14.40125
0.5015	15.81116
0.502	13.39417
0.5025	14.30054
0.503	12.89062
0.5035	6.04248
0.504	5.74036
0.5045	2.11487
0.505	3.42407
0.5055	1.71204
0.506	4.73328
0.5065	0.90637
0.507	-2.01416
0.5075	3.32336
0.508	8.45947
0.5085	3.8269
0.509	6.44531
0.5095	6.2439
0.51	8.7616
0.5105	2.21558
0.511	-1.61133
0.5115	5.33752
0.512	6.44531
0.5125	8.56018
0.513	10.37292
0.5135	1.3092
0.514	0
0.5145	1.61133
0.515	0
0.5155	-5.84106
0.516	-4.02832
0.5165	-1.00708
0.517	-2.31628
0.5175	-2.5177
0.518	-3.7262
0.5185	-8.56018
0.519	-9.76868
0.5195	-3.62549
0.52	-0.80566
0.5205	-3.32336
0.521	-1.40991
0.5215	-0.20142
0.522	-6.64673
0.5225	-1.61133
0.523	-5.23682
0.5235	-1.10779
0.524	-4.53186
0.5245	1.10779
0.525	2.01416
0.5255	5.33752
0.526	3.02124
0.5265	11.38
0.527	6.74744
0.5275	9.97009
0.528	10.0708
0.5285	11.17859
0.529	12.89062
0.5295	18.12744
0.53	14.80408
0.5305	11.58142
0.531	6.2439
0.5315	5.33752
0.532	14.40125
0.5325	6.2439
0.533	11.2793
0.5335	12.68921
0.534	11.88354
0.5345	13.19275
0.535	9.97009
0.5355	15.30762
0.536	18.12744
0.5365	6.64673
0.537	8.15735
0.5375	7.35168
0.538	5.53894
0.5385	7.15027
0.539	3.62549
0.5395	4.93469
0.54	5.0354
0.5405	5.43823
0.541	-1.61133
0.5415	6.2439
0.542	3.62549
0.5425	2.71912
0.543	5.0354
0.5435	11.78284
0.544	1.10779
0.5445	5.33752
0.545	6.74744
0.5455	4.53186
0.546	8.45947
0.5465	6.84814
0.547	7.95593
0.5475	11.88354
0.548	11.58142
0.5485	9.26514
0.549	9.97009
0.5495	7.15027
0.55	2.01416
0.5505	4.02832
0.551	2.81982
0.5515	4.73328
0.552	5.43823
0.5525	0.40283
0.553	1.00708
0.5535	2.5177
0.554	0.60425
0.5545	1.2085
0.555	4.63257
0.5555	3.92761
0.556	4.33044
0.5565	7.04956
0.557	5.0354
0.5575	7.25098
0.558	4.63257
0.5585	1.81274
0.559	4.43115
0.5595	0.60425
0.56	0.10071
0.5605	-0.90637
0.561	2.41699
0.5615	-0.40283
0.562	-1.00708
0.5625	4.73328
0.563	4.33044
0.5635	5.43823
0.564	5.33752
0.5645	8.56018
0.565	9.56726
0.5655	8.45947
0.566	6.14319
0.5665	11.07788
0.567	7.5531
0.5675	6.74744
0.568	2.31628
0.5685	13.19275
0.569	7.35168
0.5695	4.93469
0.57	3.8269
0.5705	15.40833
0.571	12.38708
0.5715	13.19275
0.572	8.8623
0.5725	4.63257
0.573	3.12195
0.5735	9.36584
0.574	6.44531
0.5745	7.15027
0.575	2.71912
0.5755	4.12903
0.576	1.81274
0.5765	4.63257
0.577	7.04956
0.5775	5.84106
0.578	1.00708
0.5785	1.71204
0.579	6.44531
0.5795	5.43823
0.58	9.86938
0.5805	6.64673
0.581	9.66797
0.5815	5.33752
0.582	11.07788
0.5825	4.02832
0.583	3.62549
0.5835	10.67505
0.584	15.81116
0.5845	13.19275
0.585	11.88354
0.5855	10.47363
0.586	7.04956
0.5865	5.13611
0.587	5.0354
0.5875	6.44531
0.588	4.43115
0.5885	0.40283
0.589	4.83398
0.5895	6.64673
0.59	3.42407
0.5905	6.84814
0.591	6.04248
0.5915	7.25098
0.592	10.17151
0.5925	11.68213
0.593	8.8623
0.5935	14.60266
0.594	12.5885
0.5945	9.86938
0.595	14.90479
0.5955	12.68921
0.596	14.70337
0.5965	15.00549
0.597	7.5531
0.5975	6.44531
0.598	4.22974
0.5985	0.80566
0.599	0.70496
0.5995	2.21558
0.6	2.81982
0.6005	7.5531
0.601	1.81274
0.6015	4.83398
0.602	1.40991
0.6025	-0.10071
0.603	4.63257
0.6035	6.64673
0.604	5.94177
0.6045	6.04248
0.605	6.2439
0.6055	6.04248
0.606	4.93469
0.6065	5.43823
0.607	10.87646
0.6075	11.68213
0.608	3.52478
0.6085	11.98425
0.609	12.78992
0.6095	3.8269
0.61	7.25098
0.6105	5.84106
0.611	12.78992
0.6115	12.89062
0.612	8.8623
0.6125	4.33044
0.613	6.3446
0.6135	1.10779
0.614	-0.50354
0.6145	7.75452
0.615	-0.50354
0.6155	3.22266
0.616	1.40991
0.6165	3.92761
0.617	2.61841
0.6175	-1.91345
0.618	-2.71912
0.6185	0.60425
0.619	5.84106
0.6195	6.94885
0.62	5.74036
0.6205	4.12903
0.621	5.23682
0.6215	4.83398
0.622	6.14319
0.6225	4.53186
0.623	2.5177
0.6235	2.11487
0.624	4.12903
0.6245	3.8269
0.625	-0.40283
0.6255	3.22266
0.626	1.3092
0.6265	1.71204
0.627	4.02832
0.6275	1.91345
0.628	6.54602
0.6285	3.12195
0.629	-1.00708
0.6295	-4.02832
0.63	-5.0354
0.6305	-1.3092
0.631	-1.3092
0.6315	0.90637
0.632	0.40283
0.6325	-1.3092
0.633	9.16443
0.6335	5.53894
0.634	7.35168
0.6345	8.25806
0.635	12.38708
0.6355	14.30054
0.636	12.89062
0.6365	21.45081
0.637	22.96143
0.6375	11.17859
0.638	10.27222
0.6385	9.56726
0.639	9.97009
0.6395	11.78284
0.64	9.86938
0.6405	9.56726
0.641	5.43823
0.6415	3.62549
0.642	-2.81982
0.6425	-8.25806
0.643	-9.16443
0.6435	-8.66089
0.644	-11.07788
0.6445	-12.38708
0.645	-7.95593
0.6455	-10.37292
0.646	-7.45239
0.6465	-4.63257
0.647	7.25098
0.6475	9.26514
0.648	9.97009
0.6485	16.41541
0.649	17.32178
0.6495	20.24231
0.65	20.54443
0.6505	20.64514
0.651	25.57983
0.6515	17.22107
0.652	19.33594
0.6525	14.90479
0.653	11.07788
0.6535	8.7616
0.654	17.92603
0.6545	17.12036
0.655	18.53027
0.6555	15.1062
0.656	15.60974
0.6565	9.76868
0.657	5.63965
0.6575	4.43115
0.658	-2.31628
0.6585	-5.0354
0.659	-4.33044
0.6595	-2.11487
0.66	-4.73328
0.6605	-3.7262
0.661	-3.62549
0.6615	1.51062
0.662	-0.40283
0.6625	-1.00708
0.663	4.33044
0.6635	2.01416
0.664	1.10779
0.6645	8.35876
0.665	3.92761
0.6655	2.81982
0.666	4.73328
0.6665	6.74744
0.667	7.35168
0.6675	8.66089
0.668	7.65381
0.6685	5.33752
0.669	3.8269
0.6695	0.40283
0.67	0.30212
0.6705	0.30212
0.671	4.53186
0.6715	3.12195
0.672	8.56018
0.6725	2.11487
0.673	1.81274
0.6735	-0.80566
0.674	6.84814
0.6745	7.85522
0.675	5.53894
0.6755	7.75452
0.676	5.94177
0.6765	8.56018
0.677	11.48071
0.6775	7.85522
0.678	5.94177
0.6785	4.63257
0.679	3.12195
0.6795	7.95593
0.68	8.7616
0.6805	5.43823
0.681	8.15735
0.6815	4.22974
0.682	7.5531
0.6825	4.83398
0.683	0.90637
0.6835	2.71912
0.684	5.0354
0.6845	4.83398
0.685	2.31628
0.6855	5.43823
0.686	0.40283
0.6865	6.04248
0.687	2.21558
0.6875	2.5177
0.688	5.94177
0.6885	4.73328
0.689	3.8269
0.6895	5.74036
0.69	2.31628
0.6905	2.61841
0.691	2.71912
0.6915	1.10779
0.692	3.22266
0.6925	4.93469
0.693	8.96301
0.6935	3.62549
0.694	3.32336
0.6945	8.8623
0.695	5.53894
0.6955	6.54602
0.696	8.66089
0.6965	4.12903
0.697	6.3446
0.6975	9.66797
0.698	11.58142
0.6985	7.35168
0.699	6.94885
0.6995	-1.10779
0.7	1.3092
0.7005	5.0354
0.701	11.58142
0.7015	14.19983
0.702	15.50903
0.7025	11.78284
0.703	19.13452
0.7035	13.99841
0.704	14.70337
0.7045	10.37292
0.705	12.99133
0.7055	13.29346
0.706	9.16443
0.7065	10.57434
0.707	16.01257
0.7075	16.71753
0.708	12.5885
0.7085	15.81116
0.709	12.68921
0.7095	14.30054
0.71	9.36584
0.7105	4.02832
0.711	4.43115
0.7115	8.45947
0.712	11.68213
0.7125	10.77576
0.713	13.59558
0.7135	17.32178
0.714	12.68921
0.7145	7.35168
0.715	10.37292
0.7155	2.21558
0.716	0.80566
0.7165	3.8269
0.717	-3.62549
0.7175	-3.22266
0.718	-1.71204
0.7185	2.92053
0.719	4.33044
0.7195	7.95593
0.72	12.18567
0.7205	11.38
0.721	10.77576
0.7215	16.41541
0.722	11.88354
0.7225	16.71753
0.723	17.52319
0.7235	12.18567
0.724	12.38708
0.7245	9.06372
0.725	6.54602
0.7255	3.62549
0.726	1.2085
0.7265	2.61841
0.727	1.2085
0.7275	4.93469
0.728	9.97009
0.7285	1.10779
0.729	-0.80566
0.7295	-0.40283
0.73	-4.83398
0.7305	-0.10071
0.731	-1.40991
0.7315	4.73328
0.732	4.43115
0.7325	5.74036
0.733	4.63257
0.7335	1.40991
0.734	4.53186
0.7345	3.42407
0.735	1.00708
0.7355	6.94885
0.736	5.43823
0.7365	-0.70496
0.737	4.63257
0.7375	2.31628
0.738	-6.2439
0.7385	-2.01416
0.739	-4.33044
0.7395	-3.7262
0.74	6.74744
0.7405	7.65381
0.741	4.63257
0.7415	8.45947
0.742	5.74036
0.7425	9.06372
0.743	6.54602
0.7435	9.16443
0.744	11.48071
0.7445	8.05664
0.745	7.85522
0.7455	9.46655
0.746	2.81982
0.7465	3.42407
0.747	4.33044
0.7475	4.83398
0.748	4.93469
0.7485	15.20691
0.749	16.41541
0.7495	16.51611
0.75	9.26514
0.7505	8.96301
0.751	13.59558
0.7515	13.49487
0.752	6.84814
0.7525	3.42407
0.753	8.96301
0.7535	9.56726
0.754	8.45947
0.7545	11.2793
0.755	15.60974
0.7555	5.94177
0.756	0.90637
0.7565	5.94177
0.757	6.64673
0.7575	-0.80566
0.758	-4.73328
0.7585	0.30212
0.759	5.43823
0.7595	6.64673
0.76	0.60425
0.7605	0.30212
0.761	5.84106
0.7615	5.94177
0.762	9.97009
0.7625	9.66797
0.763	13.69629
0.7635	16.61682
0.764	16.01257
0.7645	15.71045
0.765	17.72461
0.7655	15.50903
0.766	15.60974
0.7665	10.97717
0.767	8.45947
0.7675	4.63257
0.768	5.43823
0.7685	0.60425
0.769	2.92053
0.7695	-3.7262
0.77	-1.51062
0.7705	-1.40991
0.771	0
0.7715	0.10071
0.772	-2.41699
0.7725	-3.52478
0.773	-3.62549
0.7735	-2.11487
0.774	0.50354
0.7745	-4.73328
0.775	-7.5531
0.7755	-1.2085
0.776	-2.11487
0.7765	-8.56018
0.777	-3.92761
0.7775	-3.62549
0.778	-2.5177
0.7785	-1.61133
0.779	2.41699
0.7795	5.53894
0.78	0.50354
0.7805	1.81274
0.781	0.40283
0.7815	0.40283
0.782	1.40991
0.7825	5.23682
0.783	6.3446
0.7835	7.15027
0.784	1.91345
0.7845	1.40991
0.785	1.10779
0.7855	0.10071
0.786	3.7262
0.7865	5.23682
0.787	6.2439
0.7875	4.73328
0.788	2.31628
0.7885	0.90637
0.789	8.15735
0.7895	1.00708
0.79	3.32336
0.7905	5.94177
0.791	2.61841
0.7915	6.3446
0.792	0.60425
0.7925	7.85522
0.793	9.46655
0.7935	4.93469
0.794	0.70496
0.7945	1.51062
0.795	-2.31628
0.7955	-0.40283
0.796	2.01416
0.7965	4.53186
0.797	-1.51062
0.7975	-4.33044
0.798	3.42407
0.7985	7.15027
0.799	6.3446
0.7995	1.51062
0.8	2.5177
0.8005	8.56018
0.801	3.32336
0.8015	7.25098
0.802	1.10779
0.8025	4.22974
0.803	5.94177
0.8035	3.7262
0.804	7.5531
0.8045	6.04248
0.805	-1.3092
0.8055	-5.94177
0.806	-3.8269
0.8065	1.2085
0.807	7.75452
0.8075	12.38708
0.808	8.15735
0.8085	13.39417
0.809	6.44531
0.8095	6.04248
0.81	4.12903
0.8105	9.06372
0.811	9.76868
0.8115	5.84106
0.812	6.54602
0.8125	10.27222
0.813	8.25806
0.8135	8.7616
0.814	8.15735
0.8145	6.3446
0.815	3.32336
0.8155	5.43823
0.816	6.54602
0.8165	11.38
0.817	5.53894
0.8175	8.35876
0.818	11.78284
0.8185	3.8269
0.819	6.74744
0.8195	8.8623
0.82	1.71204
0.8205	6.44531
0.821	7.45239
0.8215	8.66089
0.822	11.88354
0.8225	14.50195
0.823	10.0708
0.8235	10.77576
0.824	15.1062
0.8245	7.04956
0.825	9.16443
0.8255	14.30054
0.826	9.46655
0.8265	5.23682
0.827	11.48071
0.8275	7.45239
0.828	8.96301
0.8285	7.75452
0.829	3.12195
0.8295	3.7262
0.83	5.84106
0.8305	10.47363
0.831	8.25806
0.8315	5.74036
0.832	8.8623
0.8325	7.65381
0.833	7.75452
0.8335	8.05664
0.834	7.45239
0.8345	2.21558
0.835	-2.81982
0.8355	1.00708
0.836	6.84814
0.8365	1.81274
0.837	1.91345
0.8375	4.33044
0.838	6.94885
0.8385	6.94885
0.839	7.5531
0.8395	1.81274
0.84	-1.10779
0.8405	1.00708
0.841	6.94885
0.8415	7.04956
0.842	7.35168
0.8425	7.75452
0.843	9.26514
0.8435	6.84814
0.844	12.89062
0.8445	8.7616
0.845	10.27222
0.8455	8.8623
0.846	7.45239
0.8465	11.78284
0.847	8.05664
0.8475	8.05664
0.848	7.45239
0.8485	10.0708
0.849	10.17151
0.8495	3.7262
0.85	3.12195
0.8505	4.63257
0.851	0
0.8515	8.15735
0.852	5.23682
0.8525	3.42407
0.853	2.71912
0.8535	3.7262
0.854	11.38
0.8545	6.94885
0.855	4.22974
0.8555	1.81274
0.856	6.84814
0.8565	5.33752
0.857	6.54602
0.8575	3.12195
0.858	7.75452
0.8585	3.8269
0.859	5.84106
0.8595	0.70496
0.86	-1.00708
0.8605	1.2085
0.861	-2.01416
0.8615	-1.61133
0.862	-0.30212
0.8625	-1.3092
0.863	0.30212
0.8635	2.21558
0.864	2.5177
0.8645	0.20142
0.865	1.81274
0.8655	-1.81274
0.866	3.12195
0.8665	1.71204
0.867	6.14319
0.8675	5.0354
0.868	0.20142
0.8685	4.22974
0.869	2.01416
0.8695	4.93469
0.87	3.62549
0.8705	1.2085
0.871	-0.90637
0.8715	5.53894
0.872	3.62549
0.8725	8.7616
0.873	7.04956
0.8735	6.14319
0.874	4.43115
0.8745	8.05664
0.875	7.04956
0.8755	9.66797
0.876	1.61133
0.8765	2.92053
0.877	0.90637
0.8775	-2.5177
0.878	-1.3092
0.8785	-2.11487
0.879	0.10071
0.8795	2.92053
0.88	4.43115
0.8805	4.22974
0.881	1.40991
0.8815	4.33044
0.882	2.31628
0.8825	4.33044
0.883	4.02832
0.8835	2.01416
0.884	1.51062
0.8845	4.53186
0.885	7.04956
0.8855	9.26514
0.886	12.38708
0.8865	17.82532
0.887	14.19983
0.8875	6.54602
0.888	7.25098
0.8885	4.53186
0.889	8.96301
0.8895	1.81274
0.89	1.91345
0.8905	4.83398
0.891	0.10071
0.8915	2.21558
0.892	5.33752
0.8925	4.83398
0.893	7.5531
0.8935	4.12903
0.894	7.85522
0.8945	6.3446
0.895	11.58142
0.8955	9.76868
0.896	7.75452
0.8965	3.52478
0.897	6.94885
0.8975	4.33044
0.898	6.3446
0.8985	2.81982
0.899	7.85522
0.8995	3.12195
0.9	3.02124
0.9005	4.12903
0.901	8.45947
0.9015	9.06372
0.902	7.45239
0.9025	9.76868
0.903	10.0708
0.9035	8.25806
0.904	9.06372
0.9045	7.95593
0.905	10.0708
0.9055	8.96301
0.906	2.31628
0.9065	6.94885
0.907	12.08496
0.9075	9.56726
0.908	11.2793
0.9085	3.8269
0.909	8.35876
0.9095	3.52478
0.91	10.87646
0.9105	7.35168
0.911	5.13611
0.9115	15.60974
0.912	11.38
0.9125	9.86938
0.913	11.88354
0.9135	6.94885
0.914	10.87646
0.9145	12.08496
0.915	2.11487
0.9155	3.92761
0.916	8.35876
0.9165	2.21558
0.917	1.10779
0.9175	1.10779
0.918	1.51062
0.9185	2.61841
0.919	-1.00708
0.9195	-0.10071
0.92	2.21558
0.9205	2.01416
0.921	1.2085
0.9215	8.25806
0.922	5.94177
0.9225	0.20142
0.923	5.63965
0.9235	9.97009
0.924	3.42407
0.9245	4.93469
0.925	3.92761
0.9255	5.0354
0.926	6.54602
0.9265	3.32336
0.927	8.7616
0.9275	3.22266
0.928	3.7262
0.9285	4.83398
0.929	9.56726
0.9295	8.15735
0.93	5.53894
0.9305	9.36584
0.931	8.05664
0.9315	5.33752
0.932	6.3446
0.9325	5.94177
0.933	3.02124
0.9335	2.21558
0.934	8.05664
0.9345	2.61841
0.935	1.71204
0.9355	4.33044
0.936	3.92761
0.9365	4.43115
0.937	0.90637
0.9375	3.02124
0.938	3.32336
0.9385	8.8623
0.939	1.91345
0.9395	8.8623
0.94	13.49487
0.9405	2.81982
0.941	5.0354
0.9415	9.56726
0.942	7.15027
0.9425	8.15735
0.943	1.51062
0.9435	0.30212
0.944	3.8269
0.9445	4.33044
0.945	3.12195
0.9455	5.94177
0.946	2.71912
0.9465	5.43823
0.947	8.96301
0.9475	11.78284
0.948	12.99133
0.9485	12.18567
0.949	12.89062
0.9495	9.86938
0.95	8.66089
0.9505	11.38
0.951	6.94885
0.9515	7.35168
0.952	0.30212
0.9525	3.7262
0.953	6.84814
0.9535	9.76868
0.954	4.43115
0.9545	8.05664
0.955	9.06372
0.9555	9.36584
0.956	4.22974
0.9565	3.22266
0.957	5.33752
0.9575	1.10779
0.958	1.71204
0.9585	3.52478
0.959	7.75452
0.9595	5.0354
0.96	8.7616
0.9605	9.86938
0.961	8.7616
0.9615	9.46655
0.962	15.71045
0.9625	13.89771
0.963	9.76868
0.9635	7.85522
0.964	4.63257
0.9645	4.63257
0.965	1.91345
0.9655	5.84106
0.966	8.8623
0.9665	6.2439
0.967	4.22974
0.9675	8.96301
0.968	15.1062
0.9685	5.33752
0.969	11.2793
0.9695	11.17859
0.97	5.84106
0.9705	6.14319
0.971	-2.92053
0.9715	0.80566
0.972	3.62549
0.9725	4.02832
0.973	2.61841
0.9735	3.42407
0.974	3.8269
0.9745	5.53894
0.975	5.33752
0.9755	5.74036
0.976	4.02832
0.9765	0.30212
0.977	4.83398
0.9775	6.04248
0.978	6.54602
0.9785	7.75452
0.979	3.8269
0.9795	2.81982
0.98	4.12903
0.9805	-0.90637
0.981	8.66089
0.9815	6.04248
0.982	4.22974
0.9825	5.23682
0.983	1.51062
0.9835	10.37292
0.984	2.41699
0.9845	12.18567
0.985	8.8623
0.9855	1.3092
0.986	0.40283
0.9865	1.2085
0.987	8.45947
0.9875	4.53186
0.988	8.96301
0.9885	2.61841
0.989	2.11487
0.9895	8.56018
0.99	10.97717
0.9905	1.2085
0.991	6.84814
0.9915	5.43823
0.992	3.02124
0.9925	6.3446
0.993	7.95593
0.9935	10.87646
0.994	8.05664
0.9945	8.25806
0.995	5.43823
0.9955	0.30212
0.996	2.61841
0.9965	6.04248
0.997	4.33044
0.9975	3.42407
0.998	2.92053
0.9985	4.83398
0.999	7.25098
0.9995	3.32336
1	4.53186
1.0005	3.42407
1.001	2.92053
1.0015	2.11487
1.002	6.44531
1.0025	6.14319
1.003	2.61841
1.0035	2.81982
1.004	2.81982
1.0045	3.7262
1.005	10.87646
1.0055	8.56018
1.006	12.18567
1.0065	12.38708
1.007	21.24939
1.0075	12.08496
1.008	16.3147
1.0085	13.19275
1.009	10.57434
1.0095	8.15735
1.01	11.07788
1.0105	11.78284
1.011	7.85522
1.0115	5.13611
1.012	6.84814
1.0125	8.45947
1.013	6.74744
1.0135	8.15735
1.014	6.14319
1.0145	2.81982
1.015	10.0708
1.0155	5.33752
1.016	5.84106
1.0165	7.35168
1.017	6.74744
1.0175	5.74036
1.018	3.92761
1.0185	1.81274
1.019	0.30212
1.0195	1.91345
1.02	3.12195
1.0205	0.70496
1.021	0.70496
1.0215	4.63257
1.022	3.7262
1.0225	11.68213
1.023	2.92053
1.0235	-1.3092
1.024	-1.51062
1.0245	-1.40991
1.025	-0.70496
1.0255	4.73328
1.026	1.91345
1.0265	1.61133
1.027	10.0708
1.0275	6.2439
1.028	8.05664
1.0285	4.93469
1.029	4.22974
1.0295	2.41699
1.03	2.31628
1.0305	0.10071
1.031	6.3446
1.0315	2.31628
1.032	6.3446
1.0325	7.15027
1.033	7.35168
1.0335	9.06372
1.034	7.15027
1.0345	12.5885
1.035	6.64673
1.0355	8.8623
1.036	14.90479
1.0365	17.42249
1.037	11.17859
1.0375	11.98425
1.038	8.05664
1.0385	8.05664
1.039	0.20142
1.0395	3.42407
1.04	3.7262
1.0405	9.06372
1.041	4.93469
1.0415	15.81116
1.042	10.0708
1.0425	9.56726
1.043	12.38708
1.0435	6.64673
1.044	10.0708
1.0445	4.33044
1.045	5.23682
1.0455	3.8269
1.046	5.63965
1.0465	3.7262
1.047	1.3092
1.0475	3.8269
1.048	-0.10071
1.0485	-5.33752
1.049	-5.63965
1.0495	1.51062
1.05	1.81274
1.0505	4.63257
1.051	0.30212
1.0515	7.25098
1.052	4.33044
1.0525	3.02124
1.053	5.84106
1.0535	8.05664
1.054	6.14319
1.0545	13.39417
1.055	10.57434
1.0555	7.35168
1.056	8.7616
1.0565	10.27222
1.057	9.36584
1.0575	5.74036
1.058	3.12195
1.0585	6.74744
1.059	-0.60425
1.0595	3.62549
1.06	3.7262
1.0605	4.63257
1.061	7.5531
1.0615	6.04248
1.062	6.3446
1.0625	5.43823
1.063	13.39417
1.0635	7.45239
1.064	9.46655
1.0645	7.25098
1.065	11.98425
1.0655	7.25098
1.066	9.66797
1.0665	11.68213
1.067	11.07788
1.0675	13.29346
1.068	7.15027
1.0685	10.27222
1.069	12.78992
1.0695	10.87646
1.07	4.63257
1.0705	3.02124
1.071	5.33752
1.0715	4.63257
1.072	9.76868
1.0725	6.84814
1.073	9.36584
1.0735	2.21558
1.074	3.32336
1.0745	3.8269
1.075	9.66797
1.0755	9.36584
1.076	10.27222
1.0765	11.17859
1.077	6.04248
1.0775	2.21558
1.078	2.92053
1.0785	2.71912
1.079	5.63965
1.0795	-0.80566
1.08	-1.91345
1.0805	0.10071
1.081	-2.61841
1.0815	-1.81274
1.082	-2.41699
1.0825	0.10071
1.083	-1.10779
1.0835	-1.91345
1.084	-1.91345
1.0845	4.53186
1.085	2.11487
1.0855	-1.00708
1.086	2.81982
1.0865	0.80566
1.087	4.33044
1.0875	0
1.088	0.20142
1.0885	-7.75452
1.089	-7.95593
1.0895	-10.57434
1.09	-6.84814
1.0905	-3.8269
1.091	-4.63257
1.0915	-8.45947
1.092	-10.17151
1.0925	-5.23682
1.093	-8.7616
1.0935	-9.26514
1.094	-6.94885
1.0945	-7.95593
1.095	-8.96301
1.0955	-5.13611
1.096	-2.92053
1.0965	2.11487
1.097	-1.51062
1.0975	-0.70496
1.098	1.10779
1.0985	0.90637
1.099	-3.92761
1.0995	-0.10071
1.1	-0.70496
1.1005	-2.71912
1.101	0.50354
1.1015	1.51062
1.102	13.59558
1.1025	6.14319
1.103	11.68213
1.1035	10.67505
1.104	12.99133
1.1045	14.60266
1.105	11.58142
1.1055	14.80408
1.106	9.06372
1.1065	6.74744
1.107	10.47363
1.1075	6.14319
1.108	4.33044
1.1085	5.53894
1.109	10.47363
1.1095	15.71045
1.11	10.47363
1.1105	3.22266
1.111	7.15027
1.1115	6.2439
1.112	4.83398
1.1125	6.04248
1.113	8.15735
1.1135	6.44531
1.114	6.84814
1.1145	8.8623
1.115	6.44531
1.1155	6.54602
1.116	7.04956
1.1165	3.92761
1.117	7.85522
1.1175	7.75452
1.118	4.93469
1.1185	11.07788
1.119	12.48779
1.1195	7.65381
1.12	3.22266
1.1205	11.2793
1.121	8.15735
1.1215	6.54602
1.122	11.07788
1.1225	4.12903
1.123	3.8269
1.1235	1.2085
1.124	0.10071
1.1245	-1.10779
1.125	0.60425
1.1255	3.32336
1.126	7.15027
1.1265	5.33752
1.127	4.73328
1.1275	6.14319
1.128	6.3446
1.1285	6.3446
1.129	6.54602
1.1295	8.7616
1.13	6.74744
1.1305	-0.50354
1.131	1.10779
1.1315	-0.90637
1.132	-2.5177
1.1325	4.43115
1.133	-1.40991
1.1335	5.23682
1.134	2.61841
1.1345	-0.40283
1.135	3.22266
1.1355	-0.70496
1.136	2.61841
1.1365	2.71912
1.137	0.50354
1.1375	2.11487
1.138	1.71204
1.1385	-3.42407
1.139	3.42407
1.1395	-0.30212
1.14	4.53186
1.1405	5.0354
1.141	5.94177
1.1415	3.42407
1.142	7.75452
1.1425	1.2085
1.143	6.3446
1.1435	3.8269
1.144	1.71204
1.1445	-2.01416
1.145	-3.32336
1.1455	-4.12903
1.146	-8.05664
1.1465	-2.01416
1.147	4.73328
1.1475	4.02832
1.148	7.45239
1.1485	9.06372
1.149	13.29346
1.1495	9.66797
1.15	14.19983
1.1505	12.38708
1.151	15.71045
1.1515	18.73169
1.152	18.53027
1.1525	20.94727
1.153	13.797
1.1535	13.69629
1.154	12.18567
1.1545	15.91187
1.155	13.39417
1.1555	18.53027
1.156	17.52319
1.1565	17.01965
1.157	9.66797
1.1575	9.56726
1.158	11.07788
1.1585	15.91187
1.159	10.87646
1.1595	7.65381
1.16	6.94885
1.1605	2.81982
1.161	4.53186
1.1615	4.33044
1.162	5.33752
1.1625	5.53894
1.163	2.61841
1.1635	-0.20142
1.164	-1.3092
1.1645	-0.30212
1.165	-2.31628
1.1655	1.00708
1.166	-1.3092
1.1665	-2.71912
1.167	0.90637
1.1675	-4.12903
1.168	-9.86938
1.1685	-10.97717
1.169	-15.50903
1.1695	-9.66797
1.17	-10.57434
1.1705	-6.14319
1.171	-9.06372
1.1715	-6.14319
1.172	-8.15735
1.1725	-6.94885
1.173	-3.7262
1.1735	-1.2085
1.174	4.73328
1.1745	5.0354
1.175	12.68921
1.1755	6.54602
1.176	-0.40283
1.1765	5.0354
1.177	4.93469
1.1775	6.44531
1.178	13.19275
1.1785	9.76868
1.179	15.1062
1.1795	10.0708
1.18	8.96301
1.1805	6.54602
1.181	2.41699
1.1815	9.26514
1.182	7.85522
1.1825	11.68213
1.183	10.0708
1.1835	9.66797
1.184	8.15735
1.1845	11.58142
1.185	11.17859
1.1855	2.31628
1.186	5.84106
1.1865	6.04248
1.187	5.13611
1.1875	5.63965
1.188	7.5531
1.1885	5.0354
1.189	4.33044
1.1895	7.65381
1.19	1.91345
1.1905	6.84814
1.191	7.15027
1.1915	1.91345
1.192	2.41699
1.1925	2.5177
1.193	9.97009
1.1935	5.94177
1.194	8.25806
1.1945	7.45239
1.195	7.65381
1.1955	4.63257
1.196	8.66089
1.1965	3.12195
1.197	8.35876
1.1975	2.61841
1.198	4.63257
1.1985	9.46655
1.199	13.89771
1.1995	11.88354
1.2	10.57434
1.2005	5.63965
1.201	3.02124
1.2015	6.64673
1.202	7.35168
1.2025	8.56018
1.203	3.12195
1.2035	4.93469
1.204	7.65381
1.2045	5.33752
1.205	11.2793
1.2055	10.97717
1.206	9.16443
1.2065	8.66089
1.207	5.33752
1.2075	5.43823
1.208	-1.40991
1.2085	2.21558
1.209	5.0354
1.2095	4.12903
1.21	3.92761
1.2105	7.95593
1.211	5.13611
1.2115	7.15027
1.212	9.46655
1.2125	4.83398
1.213	-0.60425
1.2135	5.13611
1.214	4.12903
1.2145	2.21558
1.215	1.10779
1.2155	0.70496
1.216	0.90637
1.2165	2.41699
1.217	-7.15027
1.2175	-3.7262
1.218	-2.81982
1.2185	2.71912
1.219	7.35168
1.2195	9.66797
1.22	7.85522
1.2205	12.99133
1.221	18.93311
1.2215	15.60974
1.222	14.90479
1.2225	12.38708
1.223	12.08496
1.2235	5.94177
1.224	5.63965
1.2245	2.61841
1.225	2.81982
1.2255	4.33044
1.226	5.63965
1.2265	5.94177
1.227	9.56726
1.2275	8.8623
1.228	3.42407
1.2285	4.43115
1.229	5.23682
1.2295	3.12195
1.23	7.35168
1.2305	5.23682
1.231	-0.80566
1.2315	6.54602
1.232	3.42407
1.2325	4.93469
1.233	3.52478
1.2335	3.92761
1.234	9.06372
1.2345	6.3446
1.235	7.45239
1.2355	12.18567
1.236	7.75452
1.2365	8.66089
1.237	10.57434
1.2375	8.15735
1.238	9.36584
1.2385	11.88354
1.239	10.0708
1.2395	4.33044
1.24	8.05664
1.2405	3.52478
1.241	6.14319
1.2415	4.02832
1.242	7.25098
1.2425	2.92053
1.243	8.05664
1.2435	4.83398
1.244	7.75452
1.2445	4.22974
1.245	5.84106
1.2455	5.13611
1.246	7.85522
1.2465	5.94177
1.247	2.92053
1.2475	0.80566
1.248	4.93469
1.2485	5.43823
1.249	8.35876
1.2495	7.85522
1.25	2.5177
1.2505	-2.21558
1.251	-1.00708
1.2515	-2.21558
1.252	8.8623
1.2525	3.02124
1.253	6.94885
1.2535	3.02124
1.254	3.02124
1.2545	-3.62549
1.255	-4.93469
1.2555	3.22266
1.256	-0.40283
1.2565	9.36584
1.257	0
1.2575	1.81274
1.258	11.17859
1.2585	7.95593
1.259	5.84106
1.2595	5.33752
1.26	2.31628
1.2605	1.10779
1.261	2.41699
1.2615	-0.30212
1.262	4.63257
1.2625	6.14319
1.263	5.53894
1.2635	4.02832
1.264	5.63965
1.2645	3.42407
1.265	8.25806
1.2655	8.25806
1.266	9.06372
1.2665	4.02832
1.267	11.48071
1.2675	10.47363
1.268	13.69629
1.2685	19.13452
1.269	14.80408
1.2695	11.17859
1.27	10.67505
1.2705	10.37292
1.271	4.73328
1.2715	9.06372
1.272	4.93469
1.2725	6.44531
1.273	5.84106
1.2735	4.53186
1.274	0.20142
1.2745	2.5177
1.275	4.12903
1.2755	8.45947
1.276	0.50354
1.2765	2.41699
1.277	5.33752
1.2775	-1.2085
1.278	4.02832
1.2785	-3.32336
1.279	1.00708
1.2795	8.35876
1.28	7.75452
1.2805	3.02124
1.281	5.23682
1.2815	9.97009
1.282	5.33752
1.2825	10.67505
1.283	11.68213
1.2835	7.25098
1.284	7.65381
1.2845	7.65381
1.285	4.73328
1.2855	5.33752
1.286	5.23682
1.2865	13.19275
1.287	8.66089
1.2875	10.37292
1.288	6.04248
1.2885	0.90637
1.289	1.91345
1.2895	9.26514
1.29	7.75452
1.2905	7.45239
1.291	4.02832
1.2915	3.62549
1.292	7.45239
1.2925	6.74744
1.293	4.93469
1.2935	6.14319
1.294	8.25806
1.2945	10.77576
1.295	4.53186
1.2955	7.45239
1.296	3.52478
1.2965	2.92053
1.297	4.43115
1.2975	3.52478
1.298	3.92761
1.2985	7.15027
1.299	6.94885
1.2995	12.28638
1.3	9.66797
1.3005	8.25806
1.301	3.62549
1.3015	7.35168
1.302	4.73328
1.3025	6.94885
1.303	3.8269
1.3035	0.40283
1.304	4.63257
1.3045	3.92761
1.305	2.41699
1.3055	-0.20142
1.306	0.70496
1.3065	-0.90637
1.307	2.11487
1.3075	-0.90637
1.308	-2.5177
1.3085	0.90637
1.309	-0.70496
1.3095	4.22974
1.31	5.43823
1.3105	6.2439
1.311	13.09204
1.3115	12.08496
1.312	16.01257
1.3125	21.75293
1.313	19.03381
1.3135	21.04797
1.314	22.86072
1.3145	15.30762
1.315	14.19983
1.3155	15.00549
1.316	11.88354
1.3165	15.81116
1.317	11.98425
1.3175	16.71753
1.318	12.5885
1.3185	10.57434
1.319	13.89771
1.3195	12.68921
1.32	9.76868
1.3205	4.63257
1.321	9.86938
1.3215	12.48779
1.322	7.25098
1.3225	7.95593
1.323	9.56726
1.3235	9.56726
1.324	6.74744
1.3245	5.53894
1.325	7.04956
1.3255	1.3092
1.326	0.10071
1.3265	7.5531
1.327	9.76868
1.3275	10.47363
1.328	7.45239
1.3285	5.74036
1.329	3.8269
1.3295	0.80566
1.33	0.70496
1.3305	11.68213
1.331	9.46655
1.3315	4.43115
1.332	7.15027
1.3325	-0.50354
1.333	9.46655
1.3335	9.06372
1.334	0.70496
1.3345	2.71912
1.335	7.65381
1.3355	-0.20142
1.336	-3.32336
1.3365	6.2439
1.337	7.65381
1.3375	6.04248
1.338	7.25098
1.3385	5.23682
1.339	6.64673
1.3395	11.38
1.34	7.65381
1.3405	3.32336
1.341	6.2439
1.3415	9.06372
1.342	6.14319
1.3425	5.13611
1.343	3.52478
1.3435	4.12903
1.344	-2.81982
1.3445	0.70496
1.345	2.92053
1.3455	9.46655
1.346	0.60425
1.3465	4.53186
1.347	7.65381
1.3475	6.64673
1.348	2.61841
1.3485	2.41699
1.349	2.11487
1.3495	2.11487
1.35	6.2439
1.3505	5.0354
1.351	10.37292
1.3515	3.42407
1.352	1.61133
1.3525	3.02124
1.353	3.52478
1.3535	4.53186
1.354	7.04956
1.3545	2.92053
1.355	5.74036
1.3555	5.23682
1.356	2.71912
1.3565	6.3446
1.357	6.84814
1.3575	4.43115
1.358	4.22974
1.3585	2.5177
1.359	5.43823
1.3595	2.21558
1.36	-0.60425
1.3605	2.5177
1.361	4.63257
1.3615	7.75452
1.362	1.2085
1.3625	3.7262
1.363	2.01416
1.3635	2.5177
1.364	4.22974
1.3645	8.15735
1.365	3.02124
1.3655	3.92761
1.366	11.88354
1.3665	2.81982
1.367	-3.42407
1.3675	-1.3092
1.368	3.8269
1.3685	5.74036
1.369	6.84814
1.3695	2.21558
1.37	2.31628
1.3705	4.43115
1.371	2.41699
1.3715	4.63257
1.372	9.66797
1.3725	4.63257
1.373	2.01416
1.3735	4.12903
1.374	2.41699
1.3745	-0.50354
1.375	-2.11487
1.3755	0.20142
1.376	4.63257
1.3765	5.74036
1.377	0.40283
1.3775	2.31628
1.378	7.85522
1.3785	9.16443
1.379	7.65381
1.3795	9.36584
1.38	5.94177
1.3805	3.8269
1.381	3.12195
1.3815	3.02124
1.382	10.77576
1.3825	0.30212
1.383	-2.61841
1.3835	7.15027
1.384	6.84814
1.3845	7.85522
1.385	7.15027
1.3855	1.91345
1.386	7.85522
1.3865	9.66797
1.387	4.83398
1.3875	6.64673
1.388	7.25098
1.3885	7.15027
1.389	8.7616
1.3895	10.77576
1.39	9.36584
1.3905	5.84106
1.391	5.33752
1.3915	7.25098
1.392	10.0708
1.3925	7.85522
1.393	10.67505
1.3935	7.15027
1.394	12.78992
1.3945	10.47363
1.395	9.76868
1.3955	10.0708
1.396	7.85522
1.3965	2.71912
1.397	3.32336
1.3975	4.53186
1.398	9.36584
1.3985	9.76868
1.399	6.84814
1.3995	10.0708
1.4	9.46655
1.4005	8.15735
1.401	5.53894
1.4015	2.61841
1.402	4.53186
1.4025	6.94885
1.403	4.73328
1.4035	2.41699
1.404	5.13611
1.4045	9.56726
1.405	4.43115
1.4055	6.64673
1.406	2.41699
1.4065	2.01416
1.407	0.50354
1.4075	5.23682
1.408	5.0354
1.4085	0
1.409	5.33752
1.4095	3.12195
1.41	3.42407
1.4105	0.30212
1.411	3.32336
1.4115	1.71204
1.412	-1.3092
1.4125	-0.50354
1.413	2.31628
1.4135	3.12195
1.414	0.70496
1.4145	3.32336
1.415	2.41699
1.4155	1.00708
1.416	-1.00708
1.4165	6.14319
1.417	1.81274
1.4175	1.00708
1.418	2.92053
1.4185	-0.40283
1.419	0.50354
1.4195	6.44531
1.42	-0.20142
1.4205	4.53186
1.421	5.63965
1.4215	1.61133
1.422	3.62549
1.4225	3.32336
1.423	5.94177
1.4235	9.97009
1.424	3.52478
1.4245	3.32336
1.425	6.74744
1.4255	5.13611
1.426	6.2439
1.4265	9.36584
1.427	6.94885
1.4275	6.2439
1.428	6.14319
1.4285	5.84106
1.429	4.12903
1.4295	11.48071
1.43	8.96301
1.4305	6.2439
1.431	10.27222
1.4315	10.17151
1.432	9.76868
1.4325	5.74036
1.433	4.12903
1.4335	9.16443
1.434	10.87646
1.4345	7.95593
1.435	2.5177
1.4355	2.5177
1.436	3.8269
1.4365	2.92053
1.437	0.80566
1.4375	7.75452
1.438	9.66797
1.4385	11.38
1.439	6.94885
1.4395	11.88354
1.44	11.07788
1.4405	10.97717
1.441	4.43115
1.4415	3.8269
1.442	2.21558
1.4425	-0.30212
1.443	-0.20142
1.4435	7.65381
1.444	7.75452
1.4445	4.63257
1.445	4.53186
1.4455	6.54602
1.446	0.20142
1.4465	6.3446
1.447	7.35168
1.4475	10.87646
1.448	14.90479
1.4485	8.56018
1.449	13.99841
1.4495	11.68213
1.45	9.26514
1.4505	10.27222
1.451	3.52478
1.4515	11.68213
1.452	3.7262
1.4525	7.04956
1.453	6.3446
1.4535	5.23682
1.454	7.85522
1.4545	6.44531
1.455	10.0708
1.4555	14.50195
1.456	9.16443
1.4565	8.56018
1.457	7.04956
1.4575	6.14319
1.458	2.61841
1.4585	4.22974
1.459	3.32336
1.4595	4.12903
1.46	3.7262
1.4605	0.20142
1.461	3.12195
1.4615	8.25806
1.462	7.65381
1.4625	6.2439
1.463	7.45239
1.4635	6.84814
1.464	2.92053
1.4645	-5.13611
1.465	3.12195
1.4655	5.63965
1.466	5.84106
1.4665	-2.11487
1.467	3.42407
1.4675	3.32336
1.468	6.04248
1.4685	4.22974
1.469	5.53894
1.4695	1.91345
1.47	6.94885
1.4705	1.91345
1.471	2.21558
1.4715	3.7262
1.472	3.12195
1.4725	-3.42407
1.473	4.43115
1.4735	4.93469
1.474	10.17151
1.4745	4.63257
1.475	6.14319
1.4755	3.52478
1.476	3.8269
1.4765	10.47363
1.477	1.61133
1.4775	-2.92053
1.478	-2.81982
1.4785	2.5177
1.479	4.63257
1.4795	2.61841
1.48	8.45947
1.4805	11.48071
1.481	8.45947
1.4815	5.23682
1.482	4.53186
1.4825	8.05664
1.483	6.44531
1.4835	3.02124
1.484	7.5531
1.4845	3.32336
1.485	1.40991
1.4855	3.52478
1.486	7.5531
1.4865	8.45947
1.487	6.64673
1.4875	3.12195
1.488	5.84106
1.4885	6.2439
1.489	5.53894
1.4895	0.70496
1.49	-1.3092
1.4905	3.32336
1.491	2.81982
1.4915	8.96301
1.492	9.97009
1.4925	12.18567
1.493	8.15735
1.4935	13.797
1.494	12.78992
1.4945	9.06372
1.495	11.48071
1.4955	9.76868
1.496	7.75452
1.4965	7.15027
1.497	3.22266
1.4975	9.97009
1.498	4.02832
1.4985	8.05664
1.499	10.67505
1.4995	8.8623
1.5	10.27222
1.5005	5.94177
1.501	10.37292
1.5015	11.2793
1.502	13.39417
1.5025	11.68213
1.503	10.97717
1.5035	12.48779
1.504	12.89062
1.5045	14.40125
1.505	14.70337
1.5055	11.48071
1.506	12.68921
1.5065	12.38708
1.507	14.50195
1.5075	15.1062
1.508	12.38708
1.5085	15.50903
1.509	8.56018
1.5095	9.46655
1.51	14.70337
1.5105	10.77576
1.511	16.81824
1.5115	9.16443
1.512	14.09912
1.5125	11.68213
1.513	10.17151
1.5135	8.56018
1.514	11.78284
1.5145	11.68213
1.515	11.17859
1.5155	9.76868
1.516	12.89062
1.5165	10.97717
1.517	7.65381
1.5175	5.53894
1.518	4.33044
1.5185	3.7262
1.519	0.90637
1.5195	3.8269
1.52	6.64673
1.5205	6.74744
1.521	3.8269
1.5215	-0.70496
1.522	-0.60425
1.5225	2.41699
1.523	-0.80566
1.5235	-0.10071
1.524	6.74744
1.5245	7.65381
1.525	3.22266
1.5255	5.84106
1.526	7.25098
1.5265	4.93469
1.527	6.14319
1.5275	15.20691
1.528	12.48779
1.5285	10.37292
1.529	12.08496
1.5295	15.71045
1.53	19.13452
1.5305	18.22815
1.531	17.12036
1.5315	15.71045
1.532	14.80408
1.5325	20.44373
1.533	19.33594
1.5335	19.03381
1.534	12.68921
1.5345	12.28638
1.535	9.86938
1.5355	14.60266
1.536	10.87646
1.5365	15.81116
1.537	8.56018
1.5375	6.04248
1.538	5.33752
1.5385	7.04956
1.539	11.17859
1.5395	8.96301
1.54	10.17151
1.5405	7.25098
1.541	5.33752
1.5415	1.40991
1.542	2.01416
1.5425	7.85522
1.543	6.44531
1.5435	6.44531
1.544	6.44531
1.5445	9.46655
1.545	4.53186
1.5455	-1.61133
1.546	4.43115
1.5465	7.5531
1.547	8.25806
1.5475	6.3446
1.548	4.93469
1.5485	4.33044
1.549	8.7616
1.5495	10.47363
1.55	10.77576
1.5505	11.88354
1.551	7.65381
1.5515	8.8623
1.552	7.65381
1.5525	6.64673
1.553	6.04248
1.5535	8.66089
1.554	5.94177
1.5545	9.16443
1.555	4.73328
1.5555	0.40283
1.556	5.84106
1.5565	-1.3092
1.557	3.92761
1.5575	4.73328
1.558	-0.70496
1.5585	5.63965
1.559	6.2439
1.5595	5.94177
1.56	2.31628
1.5605	1.40991
1.561	5.0354
1.5615	4.63257
1.562	2.41699
1.5625	6.74744
1.563	4.73328
1.5635	4.12903
1.564	9.76868
1.5645	6.3446
1.565	9.36584
1.5655	4.33044
1.566	7.15027
1.5665	4.43115
1.567	5.74036
1.5675	8.7616
1.568	-1.10779
1.5685	3.92761
1.569	0.30212
1.5695	-1.81274
1.57	-2.5177
1.5705	-3.8269
1.571	1.81274
1.5715	0.70496
1.572	-1.2085
1.5725	-0.60425
1.573	5.43823
1.5735	3.12195
1.574	2.41699
1.5745	3.7262
1.575	5.0354
1.5755	6.94885
1.576	5.63965
1.5765	12.5885
1.577	10.17151
1.5775	6.64673
1.578	-2.31628
1.5785	-5.53894
1.579	0.70496
1.5795	8.35876
1.58	3.02124
1.5805	5.13611
1.581	11.07788
1.5815	12.08496
1.582	13.49487
1.5825	16.21399
1.583	15.60974
1.5835	15.40833
1.584	9.36584
1.5845	11.38
1.585	6.3446
1.5855	3.42407
1.586	6.14319
1.5865	2.71912
1.587	8.8623
1.5875	6.04248
1.588	6.54602
1.5885	12.68921
1.589	15.20691
1.5895	9.26514
1.59	4.22974
1.5905	4.83398
1.591	4.43115
1.5915	7.04956
1.592	6.64673
1.5925	7.85522
1.593	8.05664
1.5935	2.92053
1.594	6.64673
1.5945	5.94177
1.595	5.63965
1.5955	3.52478
1.596	2.61841
1.5965	1.00708
1.597	5.63965
1.5975	-0.60425
1.598	3.22266
1.5985	5.0354
1.599	4.43115
1.5995	-5.74036
1.6	-2.21558
1.6005	2.01416
1.601	1.3092
1.6015	7.04956
1.602	6.64673
1.6025	4.12903
1.603	5.74036
1.6035	6.94885
1.604	15.71045
1.6045	5.94177
1.605	4.33044
1.6055	9.56726
1.606	7.5531
1.6065	12.08496
1.607	2.81982
1.6075	4.33044
1.608	5.13611
1.6085	5.74036
1.609	4.33044
1.6095	0.20142
1.61	9.16443
1.6105	7.85522
1.611	6.94885
1.6115	10.17151
1.612	8.45947
1.6125	6.04248
1.613	8.25806
1.6135	13.49487
1.614	6.64673
1.6145	1.00708
1.615	6.54602
1.6155	10.0708
1.616	13.39417
1.6165	11.88354
1.617	7.45239
1.6175	5.23682
1.618	2.71912
1.6185	3.22266
1.619	5.53894
1.6195	3.92761
1.62	4.53186
1.6205	1.00708
1.621	2.41699
1.6215	1.2085
1.622	0.90637
1.6225	3.7262
1.623	11.78284
1.6235	5.43823
1.624	4.73328
1.6245	8.96301
1.625	12.99133
1.6255	11.88354
1.626	12.48779
1.6265	11.88354
1.627	16.11328
1.6275	13.39417
1.628	13.89771
1.6285	13.797
1.629	14.70337
1.6295	10.67505
1.63	17.01965
1.6305	9.86938
1.631	7.15027
1.6315	12.28638
1.632	10.77576
1.6325	10.0708
1.633	10.67505
1.6335	7.75452
1.634	9.86938
1.6345	6.44531
1.635	8.05664
1.6355	12.99133
1.636	5.13611
1.6365	7.75452
1.637	9.26514
1.6375	7.5531
1.638	11.07788
1.6385	9.26514
1.639	0.60425
1.6395	6.2439
1.64	1.81274
1.6405	5.0354
1.641	7.5531
1.6415	6.44531
1.642	-1.10779
1.6425	2.92053
1.643	4.12903
1.6435	4.83398
1.644	8.7616
1.6445	7.65381
1.645	-0.40283
1.6455	6.64673
1.646	4.73328
1.6465	6.84814
1.647	1.3092
1.6475	1.00708
1.648	1.40991
1.6485	4.53186
1.649	-0.20142
1.6495	-2.92053
1.65	-7.95593
1.6505	-0.40283
1.651	3.22266
1.6515	3.32336
1.652	0.10071
1.6525	5.23682
1.653	8.56018
1.6535	12.28638
1.654	12.38708
1.6545	7.95593
1.655	8.66089
1.6555	6.04248
1.656	5.13611
1.6565	10.27222
1.657	2.92053
1.6575	8.56018
1.658	12.68921
1.6585	8.56018
1.659	7.25098
1.6595	8.05664
1.66	2.11487
1.6605	2.31628
1.661	3.62549
1.6615	5.53894
1.662	7.95593
1.6625	9.86938
1.663	1.51062
1.6635	3.32336
1.664	4.53186
1.6645	8.45947
1.665	8.66089
1.6655	9.76868
1.666	8.96301
1.6665	3.22266
1.667	2.71912
1.6675	13.99841
1.668	12.38708
1.6685	15.91187
1.669	15.81116
1.6695	9.36584
1.67	0.90637
1.6705	7.75452
1.671	5.43823
1.6715	1.2085
1.672	0.30212
1.6725	-0.70496
1.673	2.5177
1.6735	1.2085
1.674	-0.30212
1.6745	3.7262
1.675	-1.81274
1.6755	3.12195
1.676	-2.41699
1.6765	-3.92761
1.677	-1.71204
1.6775	3.8269
1.678	-0.30212
1.6785	4.12903
1.679	6.64673
1.6795	4.83398
1.68	4.53186
1.6805	3.22266
1.681	5.74036
1.6815	0.50354
1.682	-1.91345
1.6825	0.10071
1.683	4.43115
1.6835	4.93469
1.684	1.71204
1.6845	3.32336
1.685	2.5177
1.6855	-2.41699
1.686	3.8269
1.6865	0.40283
1.687	-0.10071
1.6875	3.62549
1.688	-0.90637
1.6885	5.0354
1.689	-3.32336
1.6895	-0.70496
1.69	6.14319
1.6905	3.52478
1.691	5.0354
1.6915	3.7262
1.692	7.45239
1.6925	7.65381
1.693	5.84106
1.6935	9.26514
1.694	8.8623
1.6945	4.93469
1.695	5.0354
1.6955	3.92761
1.696	5.84106
1.6965	6.14319
1.697	5.94177
1.6975	7.5531
1.698	6.04248
1.6985	10.37292
1.699	5.43823
1.6995	3.02124
1.7	5.0354
1.7005	5.33752
1.701	0.20142
1.7015	2.11487
1.702	3.12195
1.7025	3.42407
1.703	4.22974
1.7035	2.71912
1.704	3.12195
1.7045	2.31628
1.705	5.23682
1.7055	5.23682
1.706	2.41699
1.7065	1.91345
1.707	-0.20142
1.7075	7.25098
1.708	3.52478
1.7085	3.22266
1.709	5.13611
1.7095	9.06372
1.71	7.25098
1.7105	2.31628
1.711	10.0708
1.7115	12.18567
1.712	11.98425
1.7125	12.68921
1.713	10.77576
1.7135	3.62549
1.714	9.86938
1.7145	3.92761
1.715	11.68213
1.7155	4.73328
1.716	7.45239
1.7165	8.8623
1.717	11.88354
1.7175	12.08496
1.718	10.67505
1.7185	15.1062
1.719	11.98425
1.7195	10.47363
1.72	12.99133
1.7205	8.96301
1.721	6.04248
1.7215	6.3446
1.722	3.7262
1.7225	2.81982
1.723	5.43823
1.7235	3.8269
1.724	1.3092
1.7245	1.2085
1.725	8.25806
1.7255	7.45239
1.726	9.26514
1.7265	8.7616
1.727	14.30054
1.7275	14.80408
1.728	10.47363
1.7285	10.47363
1.729	6.74744
1.7295	7.65381
1.73	14.80408
1.7305	7.04956
1.731	8.56018
1.7315	11.17859
1.732	11.88354
1.7325	9.06372
1.733	5.33752
1.7335	8.56018
1.734	9.06372
1.7345	4.33044
1.735	1.61133
1.7355	1.10779
1.736	4.53186
1.7365	5.63965
1.737	-1.91345
1.7375	3.02124
1.738	2.92053
1.7385	1.2085
1.739	1.91345
1.7395	1.51062
1.74	-1.81274
1.7405	-1.2085
1.741	-0.50354
1.7415	2.01416
1.742	2.61841
1.7425	5.84106
1.743	-1.10779
1.7435	-4.43115
1.744	2.61841
1.7445	7.75452
1.745	5.63965
1.7455	4.22974
1.746	6.2439
1.7465	10.17151
1.747	3.8269
1.7475	9.46655
1.748	3.42407
1.7485	10.87646
1.749	9.56726
1.7495	12.99133
1.75	5.94177
1.7505	8.66089
1.751	15.50903
1.7515	15.81116
1.752	15.60974
1.7525	11.17859
1.753	16.81824
1.7535	14.60266
1.754	17.42249
1.7545	7.75452
1.755	11.38
1.7555	12.68921
1.756	5.13611
1.7565	0.10071
1.757	-3.42407
1.7575	4.73328
1.758	2.61841
1.7585	-2.31628
1.759	-2.92053
1.7595	-1.81274
1.76	0.30212
1.7605	5.74036
1.761	4.33044
1.7615	6.64673
1.762	5.53894
1.7625	10.27222
1.763	9.66797
1.7635	5.23682
1.764	4.93469
1.7645	2.61841
1.765	3.32336
1.7655	3.02124
1.766	0.20142
1.7665	3.52478
1.767	2.61841
1.7675	0.70496
1.768	2.61841
1.7685	0.50354
1.769	2.5177
1.7695	6.14319
1.77	6.04248
1.7705	12.99133
1.771	16.21399
1.7715	17.42249
1.772	16.71753
1.7725	16.71753
1.773	23.46497
1.7735	23.56567
1.774	22.55859
1.7745	17.32178
1.775	12.48779
1.7755	22.35718
1.776	21.14868
1.7765	12.28638
1.777	14.40125
1.7775	13.39417
1.778	12.08496
1.7785	9.06372
1.779	4.53186
1.7795	2.11487
1.78	-1.3092
1.7805	3.02124
1.781	-2.31628
1.7815	-2.71912
1.782	5.33752
1.7825	2.81982
1.783	2.21558
1.7835	-3.22266
1.784	-4.93469
1.7845	-4.33044
1.785	-7.04956
1.7855	-4.12903
1.786	-8.66089
1.7865	-6.2439
1.787	-7.75452
1.7875	-7.04956
1.788	-8.25806
1.7885	-6.44531
1.789	-4.02832
1.7895	-11.88354
1.79	-6.44531
1.7905	-2.31628
1.791	0
1.7915	4.02832
1.792	3.42407
1.7925	0.70496
1.793	0.80566
1.7935	-1.61133
1.794	-6.94885
1.7945	-0.70496
1.795	0.80566
1.7955	5.0354
1.796	11.07788
1.7965	14.30054
1.797	14.19983
1.7975	13.19275
1.798	7.45239
1.7985	9.76868
1.799	6.14319
1.7995	-1.51062
1.8	-2.11487
1.8005	-3.12195
1.801	-5.13611
1.8015	-6.14319
1.802	-3.62549
1.8025	-0.70496
1.803	0.50354
1.8035	-2.01416
1.804	-1.61133
1.8045	-4.73328
1.805	-0.90637
1.8055	2.61841
1.806	-0.80566
1.8065	2.11487
1.807	5.33752
1.8075	1.81274
1.808	2.01416
1.8085	8.56018
1.809	5.94177
1.8095	2.92053
1.81	-2.71912
1.8105	-0.40283
1.811	0.60425
1.8115	6.94885
1.812	3.8269
1.8125	9.16443
1.813	4.73328
1.8135	2.41699
1.814	5.84106
1.8145	12.18567
1.815	10.97717
1.8155	16.91895
1.816	18.02673
1.8165	17.42249
1.817	25.37842
1.8175	13.797
1.818	7.75452
1.8185	7.15027
1.819	1.71204
1.8195	-0.30212
1.82	1.81274
1.8205	2.61841
1.821	0.80566
1.8215	-0.50354
1.822	1.51062
1.8225	-2.81982
1.823	-0.30212
1.8235	-1.51062
1.824	5.43823
1.8245	6.2439
1.825	6.44531
1.8255	1.2085
1.826	3.7262
1.8265	2.92053
1.827	7.45239
1.8275	0
1.828	3.92761
1.8285	3.62549
1.829	2.81982
1.8295	1.3092
1.83	6.64673
1.8305	2.21558
1.831	2.31628
1.8315	6.74744
1.832	4.63257
1.8325	10.67505
1.833	13.39417
1.8335	11.07788
1.834	7.45239
1.8345	15.20691
1.835	11.17859
1.8355	11.98425
1.836	9.06372
1.8365	6.44531
1.837	5.53894
1.8375	3.92761
1.838	-4.83398
1.8385	0.70496
1.839	4.33044
1.8395	2.11487
1.84	-0.20142
1.8405	1.2085
1.841	-0.80566
1.8415	-0.90637
1.842	1.91345
1.8425	8.15735
1.843	4.43115
1.8435	2.81982
1.844	3.32336
1.8445	7.75452
1.845	5.23682
1.8455	8.35876
1.846	9.26514
1.8465	12.28638
1.847	7.65381
1.8475	7.25098
1.848	7.25098
1.8485	8.35876
1.849	11.17859
1.8495	5.63965
1.85	10.67505
1.8505	14.30054
1.851	12.5885
1.8515	8.8623
1.852	8.35876
1.8525	4.53186
1.853	5.13611
1.8535	6.74744
1.854	2.11487
1.8545	2.41699
1.855	8.7616
1.8555	6.14319
1.856	3.52478
1.8565	1.91345
1.857	3.62549
1.8575	3.42407
1.858	4.73328
1.8585	3.92761
1.859	-2.01416
1.8595	2.01416
1.86	2.5177
1.8605	-0.60425
1.861	4.22974
1.8615	1.91345
1.862	6.84814
1.8625	8.15735
1.863	5.84106
1.8635	9.66797
1.864	14.30054
1.8645	15.81116
1.865	10.97717
1.8655	5.13611
1.866	6.14319
1.8665	5.84106
1.867	3.62549
1.8675	5.13611
1.868	6.14319
1.8685	10.37292
1.869	8.35876
1.8695	9.97009
1.87	7.65381
1.8705	6.84814
1.871	4.83398
1.8715	8.15735
1.872	14.90479
1.8725	7.75452
1.873	6.74744
1.8735	1.00708
1.874	4.63257
1.8745	4.53186
1.875	0
1.8755	1.3092
1.876	-3.42407
1.8765	-2.21558
1.877	-6.14319
1.8775	-4.93469
1.878	-1.81274
1.8785	0
1.879	0.10071
1.8795	1.51062
1.88	2.92053
1.8805	-0.50354
1.881	-4.02832
1.8815	-6.74744
1.882	0.10071
1.8825	-4.33044
1.883	-8.7616
1.8835	-5.94177
1.884	-6.04248
1.8845	-7.04956
1.885	-10.47363
1.8855	-8.25806
1.886	-6.04248
1.8865	-11.48071
1.887	-9.97009
1.8875	-9.26514
1.888	-10.17151
1.8885	-6.84814
1.889	-9.76868
1.8895	-9.06372
1.89	-13.69629
1.8905	-10.0708
1.891	-12.08496
1.8915	-14.60266
1.892	-9.76868
1.8925	-11.07788
1.893	-13.89771
1.8935	-13.59558
1.894	-10.0708
1.8945	-13.797
1.895	-8.66089
1.8955	-8.66089
1.896	-4.43115
1.8965	-7.45239
1.897	-13.19275
1.8975	-6.74744
1.898	-4.83398
1.8985	2.92053
1.899	4.12903
1.8995	-0.20142
1.9	4.83398
1.9005	11.48071
1.901	6.3446
1.9015	3.8269
1.902	5.33752
1.9025	-3.42407
1.903	1.3092
1.9035	1.3092
1.904	2.11487
1.9045	-3.12195
1.905	-3.52478
1.9055	-0.60425
1.906	2.21558
1.9065	-1.40991
1.907	2.21558
1.9075	3.12195
1.908	-7.85522
1.9085	-4.73328
1.909	2.01416
1.9095	-3.7262
1.91	-2.31628
1.9105	-0.70496
1.911	-2.01416
1.9115	-3.32336
1.912	3.62549
1.9125	4.22974
1.913	-2.71912
1.9135	4.73328
1.914	0.50354
1.9145	0.90637
1.915	2.41699
1.9155	6.94885
1.916	3.92761
1.9165	-0.10071
1.917	2.81982
1.9175	4.12903
1.918	3.12195
1.9185	0.60425
1.919	2.81982
1.9195	1.10779
1.92	1.40991
1.9205	-0.20142
1.921	0.40283
1.9215	-0.30212
1.922	6.2439
1.9225	6.44531
1.923	4.93469
1.9235	-4.22974
1.924	-6.3446
1.9245	-6.94885
1.925	-4.73328
1.9255	-0.60425
1.926	-1.40991
1.9265	-1.40991
1.927	0.60425
1.9275	3.52478
1.928	9.76868
1.9285	10.27222
1.929	3.32336
1.9295	3.62549
1.93	8.15735
1.9305	5.23682
1.931	4.22974
1.9315	3.22266
1.932	6.44531
1.9325	6.3446
1.933	5.63965
1.9335	2.11487
1.934	2.11487
1.9345	7.75452
1.935	2.11487
1.9355	3.52478
1.936	3.52478
1.9365	-1.00708
1.937	-1.40991
1.9375	6.84814
1.938	9.26514
1.9385	11.58142
1.939	6.44531
1.9395	10.67505
1.94	8.7616
1.9405	6.2439
1.941	5.0354
1.9415	6.54602
1.942	6.04248
1.9425	10.27222
1.943	14.19983
1.9435	14.50195
1.944	10.37292
1.9445	8.05664
1.945	15.1062
1.9455	17.82532
1.946	16.51611
1.9465	15.30762
1.947	17.22107
1.9475	15.60974
1.948	16.01257
1.9485	17.82532
1.949	20.1416
1.9495	22.15576
1.95	20.84656
1.9505	18.93311
1.951	25.37842
1.9515	16.61682
1.952	14.09912
1.9525	15.50903
1.953	14.19983
1.9535	10.77576
1.954	8.7616
1.9545	5.94177
1.955	6.64673
1.9555	7.5531
1.956	8.7616
1.9565	9.26514
1.957	7.25098
1.9575	8.45947
1.958	9.86938
1.9585	2.41699
1.959	0.70496
1.9595	1.3092
1.96	-2.21558
1.9605	-0.30212
1.961	-2.41699
1.9615	-2.5177
1.962	-6.3446
1.9625	-2.41699
1.963	6.74744
1.9635	6.54602
1.964	6.54602
1.9645	6.2439
1.965	2.81982
1.9655	5.84106
1.966	9.66797
1.9665	10.0708
1.967	14.60266
1.9675	12.08496
1.968	18.73169
1.9685	17.01965
1.969	26.08337
1.9695	28.29895
1.97	31.32019
1.9705	23.8678
1.971	18.53027
1.9715	21.75293
1.972	18.02673
1.9725	15.40833
1.973	12.38708
1.9735	11.68213
1.974	8.05664
1.9745	11.38
1.975	7.25098
1.9755	0.30212
1.976	4.43115
1.9765	-0.60425
1.977	-2.81982
1.9775	-5.63965
1.978	-6.3446
1.9785	-2.71912
1.979	0.60425
1.9795	2.5177
1.98	0.60425
1.9805	-3.42407
1.981	-3.42407
1.9815	-11.17859
1.982	-11.58142
1.9825	-7.04956
1.983	-10.47363
1.9835	-7.25098
1.984	-5.84106
1.9845	-4.83398
1.985	-5.33752
1.9855	1.81274
1.986	-2.21558
1.9865	1.2085
1.987	3.32336
1.9875	8.15735
1.988	5.74036
1.9885	13.19275
1.989	11.2793
1.9895	9.97009
1.99	6.54602
1.9905	7.15027
1.991	13.797
1.9915	19.33594
1.992	22.45789
1.9925	16.21399
1.993	10.97717
1.9935	5.13611
1.994	5.84106
1.9945	1.3092
1.995	9.06372
1.9955	8.66089
1.996	7.85522
1.9965	2.81982
1.997	5.0354
1.9975	9.46655
1.998	3.32336
1.9985	3.7262
1.999	3.32336
1.9995	4.93469
2	5.74036
2.0005	4.22974
2.001	6.44531
2.0015	1.91345
2.002	6.14319
2.0025	3.12195
2.003	12.18567
2.0035	10.57434
2.004	3.32336
2.0045	4.53186
2.005	9.97009
2.0055	2.5177
2.006	0.70496
2.0065	6.44531
2.007	10.77576
2.0075	7.15027
2.008	9.46655
2.0085	-0.60425
2.009	6.64673
2.0095	6.2439
2.01	4.53186
2.0105	6.64673
2.011	7.65381
2.0115	5.0354
2.012	7.04956
2.0125	12.38708
2.013	9.06372
2.0135	7.95593
2.014	10.77576
2.0145	9.16443
2.015	8.66089
2.0155	14.19983
2.016	4.63257
2.0165	2.31628
2.017	1.40991
2.0175	2.41699
2.018	1.40991
2.0185	3.62549
2.019	-1.40991
2.0195	3.8269
2.02	7.75452
2.0205	4.73328
2.021	10.37292
2.0215	4.22974
2.022	9.86938
2.0225	6.94885
2.023	9.97009
2.0235	9.97009
2.024	9.76868
2.0245	12.38708
2.025	4.12903
2.0255	7.15027
2.026	6.3446
2.0265	8.45947
2.027	9.56726
2.0275	7.95593
2.028	1.61133
2.0285	1.00708
2.029	2.31628
2.0295	4.83398
2.03	14.19983
2.0305	15.71045
2.031	19.23523
2.0315	10.97717
2.032	15.71045
2.0325	37.16125
2.033	44.71436
2.0335	42.29736
2.034	35.2478
2.0345	23.26355
2.035	11.78284
2.0355	-5.53894
2.036	-27.89612
2.0365	-44.21082
2.037	-49.0448
2.0375	-48.74268
2.038	-45.72144
2.0385	-42.7002
2.039	-38.26904
2.0395	-25.68054
2.04	-9.66797
2.0405	22.96143
2.041	48.23914
2.0415	69.1864
2.042	69.38782
2.0425	65.25879
2.043	52.26746
2.0435	53.17383
2.044	48.03772
2.0445	42.49878
2.045	32.22656
2.0455	23.26355
2.046	10.77576
2.0465	8.15735
2.047	-3.22266
2.0475	-13.69629
2.048	-8.15735
2.0485	-13.69629
2.049	-6.84814
2.0495	-4.93469
2.05	-5.43823
2.0505	-6.64673
2.051	-9.66797
2.0515	-6.2439
2.052	4.33044
2.0525	11.2793
2.053	8.7616
2.0535	33.63647
2.054	65.86304
2.0545	71.30127
2.055	73.61755
2.0555	65.25879
2.056	56.09436
2.0565	47.43347
2.057	44.31152
2.0575	38.57117
2.058	29.50745
2.0585	23.56567
2.059	9.46655
2.0595	2.71912
2.06	-6.44531
2.0605	-17.6239
2.061	-20.64514
2.0615	-21.24939
2.062	-21.45081
2.0625	-27.59399
2.063	-27.29187
2.0635	-17.72461
2.064	-24.47205
2.0645	-21.85364
2.065	-20.74585
2.0655	-11.07788
2.066	-6.94885
2.0665	-8.25806
2.067	-5.53894
2.0675	2.92053
2.068	2.61841
2.0685	8.8623
2.069	5.74036
2.0695	11.48071
2.07	6.2439
2.0705	10.0708
2.071	11.98425
2.0715	11.2793
2.072	10.37292
2.0725	11.68213
2.073	13.39417
2.0735	15.91187
2.074	14.50195
2.0745	19.23523
2.075	17.72461
2.0755	13.59558
2.076	12.99133
2.0765	15.71045
2.077	8.7616
2.0775	4.83398
2.078	3.32336
2.0785	-1.51062
2.079	-3.8269
2.0795	-7.45239
2.08	-10.47363
2.0805	-5.84106
2.081	-6.3446
2.0815	-3.32336
2.082	3.12195
2.0825	9.06372
2.083	17.92603
2.0835	21.14868
2.084	25.78125
2.0845	23.16284
2.085	24.67346
2.0855	27.19116
2.086	19.13452
2.0865	18.32886
2.087	21.65222
2.0875	18.22815
2.088	19.03381
2.0885	15.1062
2.089	14.70337
2.0895	9.76868
2.09	11.58142
2.0905	10.87646
2.091	5.63965
2.0915	3.22266
2.092	7.85522
2.0925	7.25098
2.093	9.36584
2.0935	17.01965
2.094	20.04089
2.0945	21.85364
2.095	16.81824
2.0955	12.99133
2.096	10.47363
2.0965	6.3446
2.097	2.81982
2.0975	-1.00708
2.098	5.43823
2.0985	3.32336
2.099	3.92761
2.0995	-0.20142
2.1	-1.00708
2.1005	-2.81982
2.101	-6.14319
2.1015	-1.71204
2.102	-1.10779
2.1025	-5.0354
2.103	-3.7262
2.1035	-4.53186
2.104	-1.71204
2.1045	-12.08496
2.105	-5.13611
2.1055	-1.91345
2.106	-4.02832
2.1065	0.10071
2.107	2.31628
2.1075	1.10779
2.108	-5.84106
2.1085	-6.94885
2.109	-4.53186
2.1095	-4.63257
2.11	-4.12903
2.1105	-1.61133
2.111	2.31628
2.1115	3.12195
2.112	0
2.1125	3.62549
2.113	-1.71204
2.1135	-3.42407
2.114	-6.64673
2.1145	-0.70496
2.115	0.80566
2.1155	7.35168
2.116	7.95593
2.1165	8.25806
2.117	4.53186
2.1175	13.39417
2.118	14.90479
2.1185	6.14319
2.119	5.33752
2.1195	8.45947
2.12	6.64673
2.1205	12.68921
2.121	13.49487
2.1215	15.1062
2.122	11.2793
2.1225	11.38
2.123	11.2793
2.1235	7.35168
2.124	12.28638
2.1245	6.64673
2.125	7.95593
2.1255	13.797
2.126	8.8623
2.1265	10.17151
2.127	9.56726
2.1275	8.35876
2.128	9.76868
2.1285	7.95593
2.129	7.04956
2.1295	6.04248
2.13	13.29346
2.1305	7.95593
2.131	6.74744
2.1315	4.63257
2.132	5.53894
2.1325	5.94177
2.133	8.05664
2.1335	11.38
2.134	4.73328
2.1345	11.98425
2.135	5.74036
2.1355	-3.62549
2.136	0.60425
2.1365	3.42407
2.137	6.64673
2.1375	0.30212
2.138	-0.90637
2.1385	5.0354
2.139	6.44531
2.1395	3.32336
2.14	6.3446
2.1405	8.45947
2.141	9.06372
2.1415	5.94177
2.142	5.23682
2.1425	6.54602
2.143	9.26514
2.1435	8.66089
2.144	5.0354
2.1445	8.96301
2.145	8.56018
2.1455	8.05664
2.146	0.40283
2.1465	-4.33044
2.147	-4.83398
2.1475	-6.44531
2.148	-1.61133
2.1485	1.61133
2.149	-0.60425
2.1495	-5.63965
2.15	-4.53186
2.1505	-0.10071
2.151	0.10071
2.1515	2.01416
2.152	-2.11487
2.1525	-8.05664
2.153	-16.01257
2.1535	-13.59558
2.154	-12.78992
2.1545	-13.49487
2.155	-12.18567
2.1555	-11.98425
2.156	-13.89771
2.1565	-3.12195
2.157	-4.02832
2.1575	3.12195
2.158	-1.3092
2.1585	4.22974
2.159	12.5885
2.1595	24.47205
2.16	19.23523
2.1605	27.09045
2.161	29.40674
2.1615	26.18408
2.162	27.19116
2.1625	26.08337
2.163	21.95435
2.1635	23.36426
2.164	26.28479
2.1645	21.65222
2.165	18.73169
2.1655	16.41541
2.166	11.68213
2.1665	11.38
2.167	9.06372
2.1675	13.49487
2.168	15.71045
2.1685	14.60266
2.169	9.46655
2.1695	14.40125
2.17	12.38708
2.1705	15.60974
2.171	12.99133
2.1715	10.77576
2.172	15.71045
2.1725	16.61682
2.173	15.50903
2.1735	14.90479
2.174	12.38708
2.1745	7.45239
2.175	8.56018
2.1755	10.17151
2.176	12.18567
2.1765	1.61133
2.177	0.20142
2.1775	-4.73328
2.178	-6.74744
2.1785	-8.35876
2.179	-16.01257
2.1795	-12.89062
2.18	-13.39417
2.1805	-21.75293
2.181	-25.68054
2.1815	-27.09045
2.182	-18.22815
2.1825	-13.99841
2.183	-16.11328
2.1835	-4.53186
2.184	4.43115
2.1845	-1.10779
2.185	2.71912
2.1855	9.97009
2.186	11.17859
2.1865	19.03381
2.187	30.41382
2.1875	33.53577
2.188	43.00232
2.1885	41.69312
2.189	44.0094
2.1895	46.22498
2.19	38.36975
2.1905	31.72302
2.191	33.03223
2.1915	28.29895
2.192	24.77417
2.1925	28.09753
2.193	15.50903
2.1935	20.74585
2.194	17.72461
2.1945	16.81824
2.195	24.16992
2.1955	17.12036
2.196	14.70337
2.1965	8.15735
2.197	3.62549
2.1975	12.89062
2.198	10.17151
2.1985	9.06372
2.199	5.74036
2.1995	4.43115
2.2	6.54602
2.2005	5.33752
2.201	10.57434
2.2015	14.50195
2.202	8.35876
2.2025	5.0354
2.203	2.21558
2.2035	9.97009
2.204	11.38
2.2045	6.2439
2.205	7.45239
2.2055	7.65381
2.206	2.92053
2.2065	9.66797
2.207	8.35876
2.2075	3.52478
2.208	-3.32336
2.2085	-2.01416
2.209	2.31628
2.2095	-1.00708
2.21	-6.14319
2.2105	-6.54602
2.211	0.60425
2.2115	3.52478
2.212	0.60425
2.2125	-0.50354
2.213	-3.52478
2.2135	0.50354
2.214	3.52478
2.2145	8.15735
2.215	13.09204
2.2155	13.49487
2.216	17.12036
2.2165	5.23682
2.217	3.42407
2.2175	-3.7262
2.218	-4.43115
2.2185	-6.2439
2.219	-1.81274
2.2195	1.3092
2.22	4.43115
2.2205	-0.80566
2.221	0.10071
2.2215	4.63257
2.222	8.66089
2.2225	7.85522
2.223	7.85522
2.2235	4.33044
2.224	10.77576
2.2245	7.04956
2.225	12.18567
2.2255	7.35168
2.226	9.97009
2.2265	2.61841
2.227	8.15735
2.2275	10.27222
2.228	2.92053
2.2285	10.0708
2.229	11.38
2.2295	3.7262
2.23	1.00708
2.2305	-1.81274
2.231	-4.93469
2.2315	-10.97717
2.232	-10.57434
2.2325	-11.98425
2.233	-11.48071
2.2335	-15.20691
2.234	-20.04089
2.2345	-16.3147
2.235	-13.99841
2.2355	-9.86938
2.236	-8.45947
2.2365	-0.40283
2.237	-1.3092
2.2375	1.2085
2.238	3.12195
2.2385	10.47363
2.239	10.97717
2.2395	7.65381
2.24	10.0708
2.2405	2.71912
2.241	-7.5531
2.2415	-9.46655
2.242	-7.65381
2.2425	-10.47363
2.243	-13.797
2.2435	-8.8623
2.244	-5.74036
2.2445	0.40283
2.245	8.7616
2.2455	12.99133
2.246	13.49487
2.2465	18.42957
2.247	15.40833
2.2475	18.02673
2.248	22.86072
2.2485	31.32019
2.249	40.58533
2.2495	45.2179
2.25	45.62073
2.2505	44.61365
2.251	46.32568
2.2515	45.2179
2.252	35.85205
2.2525	39.27612
2.253	41.59241
2.2535	39.47754
2.254	34.44214
2.2545	41.59241
2.255	56.09436
2.2555	60.02197
2.256	63.24463
2.2565	78.35083
2.257	94.16199
2.2575	90.5365
2.258	79.86145
2.2585	74.52393
2.259	54.98657
2.2595	31.82373
2.26	17.52319
2.2605	8.45947
2.261	-1.61133
2.2615	-15.50903
2.262	-27.29187
2.2625	-36.55701
2.263	-41.79382
2.2635	-47.33276
2.264	-57.70569
2.2645	-58.41064
2.265	-60.52551
2.2655	-59.41772
2.266	-53.47595
2.2665	-49.85046
2.267	-41.59241
2.2675	-37.66479
2.268	-33.83789
2.2685	-30.2124
2.269	-23.36426
2.2695	-17.6239
2.27	-8.96301
2.2705	-7.45239
2.271	-3.42407
2.2715	0.40283
2.272	5.74036
2.2725	14.60266
2.273	11.38
2.2735	8.56018
2.274	8.8623
2.2745	8.8623
2.275	9.06372
2.2755	8.25806
2.276	2.81982
2.2765	5.23682
2.277	7.65381
2.2775	13.49487
2.278	12.5885
2.2785	13.69629
2.279	6.54602
2.2795	-0.10071
2.28	0.40283
2.2805	-0.80566
2.281	-5.84106
2.2815	-12.78992
2.282	-13.49487
2.2825	-20.44373
2.283	-19.53735
2.2835	-20.04089
2.284	-22.45789
2.2845	-25.88196
2.285	-31.72302
2.2855	-34.54285
2.286	-35.2478
2.2865	-25.177
2.287	-21.24939
2.2875	-15.81116
2.288	-12.5885
2.2885	-7.15027
2.289	-3.02124
2.2895	-1.61133
2.29	7.25098
2.2905	20.1416
2.291	31.62231
2.2915	43.70728
2.292	50.55542
2.2925	54.18091
2.293	56.5979
2.2935	51.76392
2.294	49.85046
2.2945	37.36267
2.295	34.03931
2.2955	38.67188
2.296	36.25488
2.2965	33.13293
2.297	35.14709
2.2975	28.50037
2.298	25.27771
2.2985	25.88196
2.299	20.84656
2.2995	14.40125
2.3	17.42249
2.3005	16.41541
2.301	21.75293
2.3015	21.24939
2.302	25.68054
2.3025	26.58691
2.303	42.90161
2.3035	53.17383
2.304	86.00464
2.3045	97.48535
2.305	92.75208
2.3055	79.66003
2.306	92.34924
2.3065	135.95581
2.307	186.30981
2.3075	223.8739
2.308	236.4624
2.3085	248.04382
2.309	256.5033
2.3095	249.0509
2.31	215.91797
2.3105	182.68433
2.311	144.6167
2.3115	77.74658
2.312	15.91187
2.3125	-58.20923
2.313	-133.3374
2.3135	-195.07141
2.314	-244.82117
2.3145	-280.06897
2.315	-299.60632
2.3155	-303.43323
2.316	-299.50562
2.3165	-293.66455
2.317	-262.54578
2.3175	-237.46948
2.318	-181.17371
2.3185	-115.20996
2.319	-68.88428
2.3195	-26.18408
2.32	5.84106
2.3205	24.27063
2.321	48.64197
2.3215	55.69153
2.322	53.07312
2.3225	49.74976
2.323	48.64197
2.3235	35.95276
2.324	24.57275
2.3245	17.22107
2.325	14.80408
2.3255	8.56018
2.326	0.70496
2.3265	-6.04248
2.327	-15.20691
2.3275	-22.25647
2.328	-35.14709
2.3285	-53.47595
2.329	-52.16675
2.3295	-52.56958
2.33	-57.8064
2.3305	-59.21631
2.331	-57.10144
2.3315	-58.10852
2.332	-53.57666
2.3325	-55.69153
2.333	-53.97949
2.3335	-51.26038
2.334	-52.26746
2.3345	-51.66321
2.335	-45.2179
2.3355	-39.07471
2.336	-33.9386
2.3365	-16.41541
2.337	-13.09204
2.3375	-7.15027
2.338	-1.91345
2.3385	2.5177
2.339	-5.13611
2.3395	-8.96301
2.34	-3.92761
2.3405	-2.81982
2.341	5.33752
2.3415	3.7262
2.342	7.35168
2.3425	15.40833
2.343	16.41541
2.3435	21.75293
2.344	22.35718
2.3445	28.50037
2.345	23.46497
2.3455	28.9032
2.346	25.57983
2.3465	30.71594
2.347	24.67346
2.3475	28.70178
2.348	27.39258
2.3485	25.57983
2.349	21.65222
2.3495	23.36426
2.35	18.02673
2.3505	6.14319
2.351	6.64673
2.3515	4.02832
2.352	5.53894
2.3525	5.13611
2.353	4.53186
2.3535	7.04956
2.354	7.04956
2.3545	-1.51062
2.355	-3.52478
2.3555	-0.80566
2.356	6.04248
2.3565	4.93469
2.357	11.88354
2.3575	11.88354
2.358	16.91895
2.3585	21.3501
2.359	26.78833
2.3595	29.10461
2.36	25.57983
2.3605	24.77417
2.361	21.95435
2.3615	18.63098
2.362	9.56726
2.3625	10.0708
2.363	13.797
2.3635	12.99133
2.364	11.88354
2.3645	10.27222
2.365	2.5177
2.3655	4.22974
2.366	1.3092
2.3665	-1.3092
2.367	-6.3446
2.3675	-4.02832
2.368	0.20142
2.3685	-1.40991
2.369	-2.21558
2.3695	1.51062
2.37	-3.62549
2.3705	-5.63965
2.371	-2.11487
2.3715	-6.3446
2.372	-11.17859
2.3725	-13.59558
2.373	-6.3446
2.3735	-8.25806
2.374	-3.32336
2.3745	6.14319
2.375	-0.80566
2.3755	1.40991
2.376	-6.2439
2.3765	0.90637
2.377	-1.3092
2.3775	0.70496
2.378	-1.2085
2.3785	1.91345
2.379	-1.61133
2.3795	-2.21558
2.38	-2.01416
2.3805	-6.3446
2.381	2.41699
2.3815	14.60266
2.382	19.73877
2.3825	24.87488
2.383	23.8678
2.3835	37.66479
2.384	49.74976
2.3845	51.46179
2.385	43.60657
2.3855	37.26196
2.386	32.32727
2.3865	20.64514
2.387	24.77417
2.3875	18.22815
2.388	14.50195
2.3885	14.40125
2.389	11.88354
2.3895	8.15735
2.39	7.75452
2.3905	11.07788
2.391	7.65381
2.3915	5.84106
2.392	1.10779
2.3925	-3.12195
2.393	3.22266
2.3935	-1.51062
2.394	-1.10779
2.3945	-7.75452
2.395	-7.25098
2.3955	-6.04248
2.396	-1.81274
2.3965	0.50354
2.397	4.02832
2.3975	10.47363
2.398	1.10779
2.3985	6.64673
2.399	9.66797
2.3995	7.5531
2.4	10.47363
2.4005	9.97009
2.401	10.67505
2.4015	12.48779
2.402	16.3147
2.4025	10.17151
2.403	9.76868
2.4035	5.53894
2.404	11.78284
2.4045	7.45239
2.405	4.33044
2.4055	2.21558
2.406	-6.04248
2.4065	-4.63257
2.407	-7.25098
2.4075	-6.3446
2.408	-6.44531
2.4085	-10.77576
2.409	-3.42407
2.4095	-4.02832
2.41	-6.14319
2.4105	-2.61841
2.411	-5.63965
2.4115	-3.02124
2.412	-0.10071
2.4125	3.62549
2.413	9.56726
2.4135	14.40125
2.414	21.14868
2.4145	20.04089
2.415	21.24939
2.4155	19.73877
2.416	16.01257
2.4165	11.88354
2.417	18.22815
2.4175	14.19983
2.418	18.73169
2.4185	17.22107
2.419	16.01257
2.4195	12.78992
2.42	12.78992
2.4205	9.46655
2.421	8.66089
2.4215	4.43115
2.422	8.35876
2.4225	12.48779
2.423	6.84814
2.4235	7.5531
2.424	8.05664
2.4245	5.63965
2.425	3.02124
2.4255	2.11487
2.426	1.61133
2.4265	5.74036
2.427	0
2.4275	-2.61841
2.428	-4.83398
2.4285	-1.81274
2.429	-7.15027
2.4295	-13.49487
2.43	-26.3855
2.4305	-27.6947
2.431	-32.62939
2.4315	-27.49329
2.432	-20.64514
2.4325	-20.24231
2.433	-5.74036
2.4335	0.60425
2.434	-2.11487
2.4345	9.56726
2.435	13.49487
2.4355	19.13452
2.436	28.9032
2.4365	31.01807
2.437	30.2124
2.4375	36.05347
2.438	32.22656
2.4385	37.96692
2.439	39.17542
2.4395	30.81665
2.44	24.87488
2.4405	21.55151
2.441	22.45789
2.4415	22.96143
2.442	20.44373
2.4425	20.44373
2.443	18.02673
2.4435	18.53027
2.444	12.28638
2.4445	6.3446
2.445	5.0354
2.4455	4.33044
2.446	3.42407
2.4465	6.3446
2.447	-1.51062
2.4475	10.17151
2.448	3.52478
2.4485	1.40991
2.449	5.23682
2.4495	-1.3092
2.45	-5.74036
2.4505	-6.14319
2.451	-7.65381
2.4515	-11.98425
2.452	-12.08496
2.4525	-17.6239
2.453	-19.73877
2.4535	-22.55859
2.454	-21.14868
2.4545	-21.14868
2.455	-24.57275
2.4555	-24.37134
2.456	-17.32178
2.4565	-3.7262
2.457	3.62549
2.4575	21.04797
2.458	18.32886
2.4585	15.81116
2.459	9.36584
2.4595	15.40833
2.46	16.71753
2.4605	14.30054
2.461	16.81824
2.4615	18.53027
2.462	20.74585
2.4625	32.93152
2.463	37.06055
2.4635	40.2832
2.464	39.07471
2.4645	38.26904
2.465	23.8678
2.4655	12.28638
2.466	5.23682
2.4665	-0.30212
2.467	3.22266
2.4675	4.33044
2.468	3.7262
2.4685	-2.01416
2.469	0.20142
2.4695	0.40283
2.47	-0.30212
2.4705	1.71204
2.471	6.14319
2.4715	9.86938
2.472	5.74036
2.4725	0.30212
2.473	2.41699
2.4735	4.02832
2.474	2.41699
2.4745	6.64673
2.475	7.5531
2.4755	3.12195
2.476	8.25806
2.4765	3.8269
2.477	2.01416
2.4775	5.33752
2.478	3.92761
2.4785	4.63257
2.479	6.04248
2.4795	11.48071
2.48	7.35168
2.4805	4.63257
2.481	6.3446
2.4815	13.39417
2.482	6.74744
2.4825	2.5177
2.483	5.43823
2.4835	-1.10779
2.484	4.33044
2.4845	5.33752
2.485	7.25098
2.4855	2.5177
2.486	5.23682
2.4865	5.84106
2.487	2.81982
2.4875	0.40283
2.488	1.61133
2.4885	3.52478
2.489	4.53186
2.4895	2.21558
2.49	3.02124
2.4905	3.52478
2.491	4.63257
2.4915	5.94177
2.492	0.20142
2.4925	9.06372
2.493	13.09204
2.4935	10.77576
2.494	4.73328
2.4945	10.67505
2.495	5.13611
2.4955	7.5531
2.496	2.71912
2.4965	-1.51062
2.497	-3.22266
2.4975	-2.92053
2.498	-3.52478
2.4985	-7.25098
2.499	-15.20691
2.4995	-16.3147
2.5	-14.40125
2.5005	-8.96301
2.501	-9.06372
2.5015	-10.87646
2.502	-9.76868
2.5025	-2.81982
2.503	1.00708
2.5035	9.26514
2.504	22.05505
2.5045	31.21948
2.505	39.17542
2.5055	40.98816
2.506	38.26904
2.5065	34.34143
2.507	25.78125
2.5075	24.87488
2.508	17.82532
2.5085	15.1062
2.509	10.87646
2.5095	7.04956
2.51	7.04956
2.5105	4.63257
2.511	-0.70496
2.5115	-4.63257
2.512	-1.91345
2.5125	-2.5177
2.513	1.2085
2.5135	1.71204
2.514	2.81982
2.5145	-1.3092
2.515	-3.42407
2.5155	-3.52478
2.516	-1.91345
2.5165	-3.32336
2.517	1.00708
2.5175	-1.00708
2.518	-0.20142
2.5185	5.94177
2.519	1.51062
2.5195	6.54602
2.52	12.89062
2.5205	18.42957
2.521	18.93311
2.5215	18.22815
2.522	15.40833
2.5225	1.10779
2.523	-7.5531
2.5235	-9.86938
2.524	-5.0354
2.5245	-14.09912
2.525	-5.0354
2.5255	3.22266
2.526	7.45239
2.5265	12.89062
2.527	19.43665
2.5275	23.36426
2.528	26.3855
2.5285	23.46497
2.529	33.23364
2.5295	29.10461
2.53	26.18408
2.5305	30.81665
2.531	35.34851
2.5315	32.93152
2.532	21.65222
2.5325	17.12036
2.533	6.3446
2.5335	4.73328
2.534	8.8623
2.5345	9.97009
2.535	16.81824
2.5355	11.17859
2.536	9.66797
2.5365	8.05664
2.537	8.25806
2.5375	6.44531
2.538	9.06372
2.5385	10.47363
2.539	7.15027
2.5395	-2.11487
2.54	0
2.5405	-9.06372
2.541	-8.35876
2.5415	-9.06372
2.542	-3.62549
2.5425	-8.66089
2.543	-2.61841
2.5435	-6.54602
2.544	-3.12195
2.5445	2.41699
2.545	9.56726
2.5455	15.20691
2.546	16.91895
2.5465	22.35718
2.547	24.47205
2.5475	28.19824
2.548	17.82532
2.5485	13.39417
2.549	6.54602
2.5495	-0.60425
2.55	-3.32336
2.5505	6.3446
2.551	7.25098
2.5515	16.71753
2.552	25.07629
2.5525	26.28479
2.553	30.61523
2.5535	30.2124
2.554	21.95435
2.5545	16.3147
2.555	14.09912
2.5555	14.09912
2.556	0.80566
2.5565	-6.14319
2.557	-4.43115
2.5575	-0.50354
2.558	0.50354
2.5585	-0.30212
2.559	-2.61841
2.5595	-0.80566
2.56	-6.04248
2.5605	-9.76868
2.561	-11.38
2.5615	-14.80408
2.562	-13.49487
2.5625	-20.54443
2.563	-26.58691
2.5635	-27.99683
2.564	-37.7655
2.5645	-41.59241
2.565	-34.14001
2.5655	-30.91736
2.566	-24.57275
2.5665	-18.02673
2.567	-13.29346
2.5675	0
2.568	8.45947
2.5685	26.28479
2.569	26.98975
2.5695	22.96143
2.57	25.57983
2.5705	26.18408
2.571	33.13293
2.5715	28.29895
2.572	25.98267
2.5725	12.48779
2.573	7.25098
2.5735	0.10071
2.574	-2.5177
2.5745	-1.71204
2.575	4.12903
2.5755	7.5531
2.576	9.76868
2.5765	8.56018
2.577	12.68921
2.5775	13.69629
2.578	22.35718
2.5785	23.46497
2.579	20.64514
2.5795	24.47205
2.58	25.27771
2.5805	37.26196
2.581	29.20532
2.5815	30.71594
2.582	26.78833
2.5825	16.81824
2.583	11.38
2.5835	10.77576
2.584	16.21399
2.5845	13.59558
2.585	11.98425
2.5855	9.36584
2.586	10.27222
2.5865	13.19275
2.587	17.32178
2.5875	14.30054
2.588	15.20691
2.5885	12.5885
2.589	10.17151
2.5895	8.56018
2.59	10.77576
2.5905	12.68921
2.591	11.78284
2.5915	10.17151
2.592	8.35876
2.5925	8.8623
2.593	6.04248
2.5935	11.68213
2.594	7.45239
2.5945	4.43115
2.595	7.65381
2.5955	1.3092
2.596	3.52478
2.5965	6.54602
2.597	7.65381
2.5975	-0.50354
2.598	5.13611
2.5985	8.8623
2.599	2.81982
2.5995	-1.10779
2.6	2.5177
2.6005	7.65381
2.601	2.81982
2.6015	4.63257
2.602	5.23682
2.6025	5.74036
2.603	6.3446
2.6035	0.30212
2.604	1.61133
2.6045	5.33752
2.605	6.94885
2.6055	2.5177
2.606	4.83398
2.6065	3.32336
2.607	4.63257
2.6075	5.53894
2.608	6.3446
2.6085	4.93469
2.609	5.84106
2.6095	2.01416
2.61	7.25098
2.6105	10.67505
2.611	6.94885
2.6115	7.15027
2.612	8.56018
2.6125	6.04248
2.613	1.40991
2.6135	1.3092
2.614	9.76868
2.6145	13.39417
2.615	6.94885
2.6155	8.56018
2.616	10.47363
2.6165	12.68921
2.617	7.15027
2.6175	9.76868
2.618	12.5885
2.6185	11.2793
2.619	9.56726
2.6195	7.75452
2.62	8.25806
2.6205	8.56018
2.621	8.7616
2.6215	7.25098
2.622	2.5177
2.6225	2.92053
2.623	1.81274
2.6235	5.94177
2.624	2.11487
2.6245	0.40283
2.625	2.31628
2.6255	10.17151
2.626	11.68213
2.6265	3.62549
2.627	10.37292
2.6275	-5.0354
2.628	-1.81274
2.6285	0.30212
2.629	5.0354
2.6295	-0.60425
2.63	0.20142
2.6305	3.02124
2.631	-2.31628
2.6315	5.84106
2.632	0.60425
2.6325	0.90637
2.633	-0.40283
2.6335	6.54602
2.634	0.20142
2.6345	-1.3092
2.635	6.04248
2.6355	-3.02124
2.636	3.8269
2.6365	-1.51062
2.637	-3.42407
2.6375	3.8269
2.638	2.11487
2.6385	5.0354
2.639	6.94885
2.6395	4.02832
2.64	2.11487
2.6405	2.61841
2.641	4.33044
2.6415	9.26514
2.642	9.56726
2.6425	8.15735
2.643	14.19983
2.6435	7.75452
2.644	11.88354
2.6445	10.37292
2.645	14.09912
2.6455	12.89062
2.646	11.78284
2.6465	10.57434
2.647	7.5531
2.6475	8.35876
2.648	12.28638
2.6485	11.78284
2.649	10.67505
2.6495	11.78284
2.65	7.5531
2.6505	9.66797
2.651	8.7616
2.6515	4.73328
2.652	13.69629
2.6525	12.28638
2.653	15.30762
2.6535	15.81116
2.654	14.50195
2.6545	11.68213
2.655	14.19983
2.6555	10.37292
2.656	11.48071
2.6565	10.87646
2.657	10.67505
2.6575	11.07788
2.658	9.56726
2.6585	4.02832
2.659	7.04956
2.6595	4.73328
2.66	12.38708
2.6605	2.61841
2.661	7.85522
2.6615	0.20142
2.662	0.10071
2.6625	-1.2085
2.663	-1.40991
2.6635	4.53186
2.664	2.31628
2.6645	-0.20142
2.665	2.5177
2.6655	3.02124
2.666	1.81274
2.6665	1.61133
2.667	2.71912
2.6675	8.35876
2.668	2.11487
2.6685	2.92053
2.669	7.5531
2.6695	6.2439
2.67	8.66089
2.6705	9.76868
2.671	14.09912
2.6715	10.17151
2.672	13.89771
2.6725	17.82532
2.673	15.71045
2.6735	18.63098
2.674	14.90479
2.6745	9.46655
2.675	11.68213
2.6755	18.32886
2.676	16.71753
2.6765	13.19275
2.677	15.00549
2.6775	10.37292
2.678	5.84106
2.6785	1.40991
2.679	3.8269
2.6795	8.45947
2.68	2.21558
2.6805	1.71204
2.681	-1.81274
2.6815	5.53894
2.682	10.37292
2.6825	7.04956
2.683	7.25098
2.6835	10.57434
2.684	7.65381
2.6845	6.84814
2.685	3.22266
2.6855	1.81274
2.686	0.10071
2.6865	2.31628
2.687	3.22266
2.6875	1.10779
2.688	-4.93469
2.6885	-7.45239
2.689	-8.8623
2.6895	-2.11487
2.69	-6.74744
2.6905	-5.94177
2.691	-18.73169
2.6915	-14.19983
2.692	-13.09204
2.6925	-10.77576
2.693	-13.49487
2.6935	-6.64673
2.694	-0.50354
2.6945	5.43823
2.695	8.7616
2.6955	15.71045
2.696	13.09204
2.6965	22.55859
2.697	23.8678
2.6975	26.48621
2.698	29.60815
2.6985	28.29895
2.699	28.80249
2.6995	25.57983
2.7	23.96851
2.7005	19.43665
2.701	19.33594
2.7015	15.00549
2.702	14.60266
2.7025	13.09204
2.703	9.06372
2.7035	8.15735
2.704	8.8623
2.7045	9.06372
2.705	10.47363
2.7055	8.96301
2.706	6.44531
2.7065	4.83398
2.707	12.5885
2.7075	12.89062
2.708	14.90479
2.7085	7.85522
2.709	8.96301
2.7095	14.50195
2.71	8.15735
2.7105	11.17859
2.711	18.73169
2.7115	14.40125
2.712	12.48779
2.7125	9.16443
2.713	9.56726
2.7135	6.94885
2.714	7.65381
2.7145	6.74744
2.715	3.22266
2.7155	0.10071
2.716	9.16443
2.7165	5.84106
2.717	7.5531
2.7175	1.3092
2.718	6.84814
2.7185	1.91345
2.719	-4.63257
2.7195	-1.71204
2.72	4.53186
2.7205	3.42407
2.721	1.40991
2.7215	1.51062
2.722	3.32336
2.7225	1.40991
2.723	6.54602
2.7235	1.51062
2.724	3.02124
2.7245	6.3446
2.725	7.75452
2.7255	5.84106
2.726	9.86938
2.7265	1.40991
2.727	2.11487
2.7275	8.7616
2.728	3.02124
2.7285	4.02832
2.729	-0.60425
2.7295	-1.71204
2.73	6.64673
2.7305	-0.20142
2.731	0.80566
2.7315	4.12903
2.732	5.53894
2.7325	5.63965
2.733	2.11487
2.7335	4.43115
2.734	5.23682
2.7345	-0.10071
2.735	1.91345
2.7355	4.93469
2.736	4.93469
2.7365	5.33752
2.737	4.53186
2.7375	3.7262
2.738	1.3092
2.7385	4.73328
2.739	0.90637
2.7395	0.70496
2.74	4.53186
2.7405	2.5177
2.741	-1.51062
2.7415	-4.63257
2.742	-3.42407
2.7425	0.20142
2.743	1.91345
2.7435	2.5177
2.744	4.83398
2.7445	0
2.745	1.71204
2.7455	-2.81982
2.746	-0.20142
2.7465	4.73328
2.747	-1.51062
2.7475	-6.64673
2.748	-5.43823
2.7485	3.8269
2.749	4.53186
2.7495	4.43115
2.75	-0.90637
2.7505	-1.71204
2.751	2.21558
2.7515	-2.92053
2.752	1.00708
2.7525	3.42407
2.753	-1.40991
2.7535	-2.41699
2.754	-2.5177
2.7545	-1.40991
2.755	-6.64673
2.7555	-5.63965
2.756	0.70496
2.7565	-2.81982
2.757	-3.8269
2.7575	-1.3092
2.758	2.11487
2.7585	-1.40991
2.759	-6.94885
2.7595	-4.33044
2.76	0.50354
2.7605	-4.63257
2.761	-5.94177
2.7615	-6.84814
2.762	-7.04956
2.7625	-3.22266
2.763	-1.91345
2.7635	0.70496
2.764	3.8269
2.7645	6.44531
2.765	4.02832
2.7655	2.81982
2.766	12.38708
2.7665	9.36584
2.767	10.97717
2.7675	11.68213
2.768	8.7616
2.7685	1.81274
2.769	7.04956
2.7695	7.25098
2.77	3.02124
2.7705	5.74036
2.771	5.94177
2.7715	6.04248
2.772	9.86938
2.7725	15.1062
2.773	12.89062
2.7735	10.67505
2.774	11.68213
2.7745	15.30762
2.775	9.16443
2.7755	8.66089
2.776	6.74744
2.7765	11.2793
2.777	4.02832
2.7775	7.04956
2.778	3.12195
2.7785	6.54602
2.779	4.93469
2.7795	5.84106
2.78	1.61133
2.7805	4.33044
2.781	5.23682
2.7815	6.54602
2.782	8.66089
2.7825	-3.32336
2.783	3.8269
2.7835	3.02124
2.784	2.11487
2.7845	4.73328
2.785	-1.10779
2.7855	1.51062
2.786	2.11487
2.7865	6.2439
2.787	2.01416
2.7875	6.04248
2.788	-1.3092
2.7885	1.91345
2.789	7.25098
2.7895	6.04248
2.79	4.93469
2.7905	1.51062
2.791	1.71204
2.7915	1.40991
2.792	6.44531
2.7925	2.21558
2.793	5.33752
2.7935	5.84106
2.794	8.45947
2.7945	9.26514
2.795	8.05664
2.7955	10.57434
2.796	4.22974
2.7965	3.42407
2.797	3.22266
2.7975	6.84814
2.798	1.40991
2.7985	0.50354
2.799	0.10071
2.7995	2.31628
2.8	2.01416
2.8005	4.43115
2.801	2.11487
2.8015	11.78284
2.802	9.66797
2.8025	13.29346
2.803	6.54602
2.8035	3.22266
2.804	7.5531
2.8045	6.04248
2.805	6.04248
2.8055	5.53894
2.806	1.71204
2.8065	-3.12195
2.807	-4.12903
2.8075	-5.63965
2.808	-8.35876
2.8085	-10.37292
2.809	-11.2793
2.8095	-2.01416
2.81	-4.43115
2.8105	-7.75452
2.811	-3.92761
2.8115	-3.92761
2.812	6.84814
2.8125	3.7262
2.813	5.74036
2.8135	5.13611
2.814	12.68921
2.8145	17.22107
2.815	25.78125
2.8155	35.04639
2.816	35.54993
2.8165	35.04639
2.817	33.03223
2.8175	21.45081
2.818	17.01965
2.8185	4.53186
2.819	0.40283
2.8195	-6.74744
2.82	-20.64514
2.8205	-25.07629
2.821	-33.73718
2.8215	-37.86621
2.822	-36.4563
2.8225	-37.46338
2.823	-35.65063
2.8235	-30.91736
2.824	-31.21948
2.8245	-30.41382
2.825	-22.6593
2.8255	-21.55151
2.826	-20.84656
2.8265	-13.797
2.827	-7.25098
2.8275	-11.58142
2.828	-9.86938
2.8285	-2.92053
2.829	1.61133
2.8295	6.94885
2.83	8.45947
2.8305	7.5531
2.831	19.73877
2.8315	26.98975
2.832	33.53577
2.8325	29.30603
2.833	30.31311
2.8335	28.29895
2.834	21.95435
2.8345	25.78125
2.835	26.78833
2.8355	21.45081
2.836	23.16284
2.8365	15.30762
2.837	18.02673
2.8375	9.46655
2.838	2.81982
2.8385	-4.33044
2.839	-10.77576
2.8395	-9.26514
2.84	0.40283
2.8405	7.65381
2.841	5.43823
2.8415	-2.31628
2.842	4.53186
2.8425	17.42249
2.843	40.58533
2.8435	54.68445
2.844	55.49011
2.8445	49.34692
2.845	43.90869
2.8455	31.4209
2.846	20.64514
2.8465	4.93469
2.847	-15.00549
2.8475	-28.50037
2.848	-48.54126
2.8485	-62.03613
2.849	-73.61755
2.8495	-78.25012
2.85	-81.37207
2.8505	-93.45703
2.851	-93.85986
2.8515	-91.54358
2.852	-76.63879
2.8525	-65.05737
2.853	-57.10144
2.8535	-40.1825
2.854	-29.10461
2.8545	-13.09204
2.855	2.61841
2.8555	-1.00708
2.856	-1.2085
2.8565	-1.2085
2.857	2.01416
2.8575	1.81274
2.858	9.97009
2.8585	8.05664
2.859	3.62549
2.8595	3.02124
2.86	8.56018
2.8605	7.25098
2.861	7.65381
2.8615	2.21558
2.862	7.25098
2.8625	0.40283
2.863	-3.02124
2.8635	0.80566
2.864	-2.81982
2.8645	-3.62549
2.865	-4.33044
2.8655	-6.94885
2.866	-13.29346
2.8665	-7.65381
2.867	-8.35876
2.8675	-8.25806
2.868	-3.92761
2.8685	-0.60425
2.869	-5.23682
2.8695	-1.51062
2.87	-4.63257
2.8705	-1.3092
2.871	3.8269
2.8715	17.01965
2.872	24.16992
2.8725	28.70178
2.873	33.33435
2.8735	38.974
2.874	40.48462
2.8745	41.4917
2.875	82.27844
2.8755	123.2666
2.876	139.17847
2.8765	134.14307
2.877	120.14465
2.8775	108.05969
2.878	102.42004
2.8785	82.88269
2.879	50.75684
2.8795	17.82532
2.88	-19.73877
2.8805	-50.65613
2.881	-76.53809
2.8815	-102.11792
2.882	-118.33191
2.8825	-121.05103
2.883	-115.31067
2.8835	-113.49792
2.884	-110.37598
2.8845	-104.3335
2.885	-87.81738
2.8855	-73.11401
2.886	-62.13684
2.8865	-51.5625
2.887	-41.89453
2.8875	-30.2124
2.888	-20.1416
2.8885	-11.38
2.889	-1.3092
2.8895	10.97717
2.89	26.58691
2.8905	28.09753
2.891	30.51453
2.8915	34.03931
2.892	24.87488
2.8925	17.42249
2.893	20.64514
2.8935	16.71753
2.894	10.47363
2.8945	10.37292
2.895	2.61841
2.8955	-7.45239
2.896	-8.66089
2.8965	-11.38
2.897	-4.53186
2.8975	7.25098
2.898	14.60266
2.8985	18.02673
2.899	11.58142
2.8995	14.50195
2.9	11.38
2.9005	15.00549
2.901	8.96301
2.9015	5.74036
2.902	4.73328
2.9025	-0.60425
2.903	-0.90637
2.9035	-8.66089
2.904	-10.77576
2.9045	3.12195
2.905	33.73718
2.9055	70.49561
2.906	138.57422
2.9065	191.1438
2.907	217.5293
2.9075	210.0769
2.908	216.22009
2.9085	246.4325
2.909	244.11621
2.9095	212.5946
2.91	167.17529
2.9105	105.54199
2.911	41.59241
2.9115	-24.06921
2.912	-90.63721
2.9125	-156.70166
2.913	-206.75354
2.9135	-235.1532
2.914	-252.37427
2.9145	-260.63232
2.915	-246.83533
2.9155	-224.57886
2.916	-192.453
2.9165	-165.86609
2.917	-143.81104
2.9175	-123.06519
2.918	-111.38306
2.9185	-89.73083
2.919	-75.32959
2.9195	-67.8772
2.92	-54.38232
2.9205	-42.8009
2.921	-24.87488
2.9215	-10.97717
2.922	4.12903
2.9225	15.91187
2.923	29.30603
2.9235	34.54285
2.924	35.44922
2.9245	23.76709
2.925	24.06921
2.9255	23.96851
2.926	25.57983
2.9265	31.4209
2.927	34.03931
2.9275	27.09045
2.928	36.55701
2.9285	33.23364
2.929	30.2124
2.9295	31.62231
2.93	24.16992
2.9305	13.797
2.931	15.00549
2.9315	4.43115
2.932	4.22974
2.9325	3.42407
2.933	5.13611
2.9335	10.27222
2.934	12.18567
2.9345	18.02673
2.935	17.92603
2.9355	22.15576
2.936	24.77417
2.9365	23.06213
2.937	20.64514
2.9375	19.23523
2.938	28.39966
2.9385	47.03064
2.939	44.61365
2.9395	52.06604
2.94	53.17383
2.9405	48.64197
2.941	48.44055
2.9415	34.74426
2.942	20.04089
2.9425	6.84814
2.943	-7.5531
2.9435	-12.89062
2.944	-17.6239
2.9445	-25.78125
2.945	-37.56409
2.9455	-42.90161
2.946	-42.19666
2.9465	-41.89453
2.947	-30.01099
2.9475	-32.93152
2.948	-27.59399
2.9485	-21.55151
2.949	-7.35168
2.9495	-1.00708
2.95	0.80566
2.9505	3.42407
2.951	2.01416
2.9515	16.11328
2.952	14.40125
2.9525	19.43665
2.953	14.80408
2.9535	18.12744
2.954	22.05505
2.9545	28.29895
2.955	22.76001
2.9555	17.01965
2.956	18.63098
2.9565	17.82532
2.957	17.72461
2.9575	10.97717
2.958	15.60974
2.9585	7.45239
2.959	4.22974
2.9595	-0.20142
2.96	7.85522
2.9605	8.15735
2.961	-1.10779
2.9615	-2.61841
2.962	0.70496
2.9625	-4.63257
2.963	-9.36584
2.9635	-13.49487
2.964	-14.30054
2.9645	-17.82532
2.965	-13.49487
2.9655	-14.70337
2.966	-16.81824
2.9665	-14.50195
2.967	-15.30762
2.9675	-15.60974
2.968	-15.91187
2.9685	-9.16443
2.969	-4.22974
2.9695	-1.2085
2.97	0.20142
2.9705	9.26514
2.971	15.50903
2.9715	19.83948
2.972	21.3501
2.9725	27.19116
2.973	30.31311
2.9735	34.74426
2.974	33.13293
2.9745	30.51453
2.975	31.4209
2.9755	28.19824
2.976	24.67346
2.9765	26.88904
2.977	27.89612
2.9775	26.98975
2.978	25.78125
2.9785	19.43665
2.979	16.51611
2.9795	18.12744
2.98	15.50903
2.9805	13.39417
2.981	9.06372
2.9815	13.89771
2.982	16.81824
2.9825	12.68921
2.983	6.2439
2.9835	5.43823
2.984	4.43115
2.9845	4.43115
2.985	1.51062
2.9855	-1.81274
2.986	0
2.9865	0.10071
2.987	-0.20142
2.9875	-2.11487
2.988	-0.70496
2.9885	-0.20142
2.989	14.09912
2.9895	4.12903
2.99	-2.11487
2.9905	-0.90637
2.991	2.11487
2.9915	0.70496
2.992	-4.33044
2.9925	-6.84814
2.993	-12.48779
2.9935	-12.28638
2.994	-14.40125
2.9945	-14.50195
2.995	-11.38
2.9955	-9.46655
2.996	-6.14319
2.9965	2.41699
2.997	9.56726
2.9975	8.66089
2.998	7.35168
2.9985	-1.71204
2.999	0.80566
2.9995	-5.63965
3	5.33752
3.0005	14.19983
3.001	24.27063
3.0015	28.50037
3.002	27.29187
3.0025	31.11877
3.003	26.08337
3.0035	23.36426
3.004	10.27222
3.0045	2.5177
3.005	-6.84814
3.0055	-16.21399
3.006	-23.06213
3.0065	-19.53735
3.007	-32.02515
3.0075	-27.29187
3.008	-24.97559
3.0085	-20.24231
3.009	-13.59558
3.0095	-10.47363
3.01	-7.45239
3.0105	-4.53186
3.011	0.20142
3.0115	2.5177
3.012	6.14319
3.0125	7.85522
3.013	4.43115
3.0135	-3.52478
3.014	1.51062
3.0145	-0.70496
3.015	-2.01416
3.0155	3.02124
3.016	3.02124
3.0165	3.52478
3.017	9.16443
3.0175	18.32886
3.018	16.01257
3.0185	16.81824
3.019	18.53027
3.0195	18.53027
3.02	21.85364
3.0205	18.53027
3.021	17.22107
3.0215	11.38
3.022	13.19275
3.0225	16.11328
3.023	19.03381
3.0235	13.49487
3.024	20.94727
3.0245	19.73877
3.025	18.53027
3.0255	20.44373
3.026	15.40833
3.0265	11.58142
3.027	11.48071
3.0275	14.50195
3.028	16.3147
3.0285	12.28638
3.029	10.97717
3.0295	9.46655
3.03	7.65381
3.0305	13.69629
3.031	11.07788
3.0315	12.99133
3.032	12.28638
3.0325	14.80408
3.033	5.94177
3.0335	11.88354
3.034	11.48071
3.0345	2.71912
3.035	5.0354
3.0355	3.32336
3.036	-4.22974
3.0365	-1.61133
3.037	1.51062
3.0375	-7.5531
3.038	-7.75452
3.0385	-6.84814
3.039	-7.65381
3.0395	-11.48071
3.04	-4.53186
3.0405	-1.71204
3.041	1.71204
3.0415	3.92761
3.042	14.50195
3.0425	22.45789
3.043	19.33594
3.0435	27.39258
3.044	26.48621
3.0445	40.88745
3.045	41.89453
3.0455	43.80798
3.046	40.78674
3.0465	45.82214
3.047	48.33984
3.0475	59.01489
3.048	62.33826
3.0485	59.41772
3.049	53.27454
3.0495	59.51843
3.05	59.1156
3.0505	55.08728
3.051	51.46179
3.0515	47.03064
3.052	46.62781
3.0525	39.77966
3.053	41.4917
3.0535	36.55701
3.054	34.74426
3.0545	34.03931
3.055	26.08337
3.0555	25.177
3.056	17.01965
3.0565	10.57434
3.057	4.83398
3.0575	-4.43115
3.058	1.51062
3.0585	-4.73328
3.059	-13.69629
3.0595	-19.33594
3.06	-23.76709
3.0605	-26.68762
3.061	-29.30603
3.0615	-33.9386
3.062	-39.47754
3.0625	-31.4209
3.063	-26.3855
3.0635	-17.72461
3.064	-16.81824
3.0645	-9.76868
3.065	1.91345
3.0655	-3.42407
3.066	5.0354
3.0665	13.29346
3.067	8.7616
3.0675	6.04248
3.068	3.22266
3.0685	-1.00708
3.069	3.22266
3.0695	-3.02124
3.07	0.10071
3.0705	0.70496
3.071	1.00708
3.0715	-1.61133
3.072	-4.43115
3.0725	-2.11487
3.073	-1.40991
3.0735	-8.8623
3.074	-6.44531
3.0745	-4.33044
3.075	-4.43115
3.0755	-6.2439
3.076	-9.26514
3.0765	-8.56018
3.077	-11.07788
3.0775	-13.99841
3.078	-15.50903
3.0785	-16.91895
3.079	-10.67505
3.0795	-6.14319
3.08	-4.63257
3.0805	-0.50354
3.081	10.47363
3.0815	14.09912
3.082	18.12744
3.0825	20.24231
3.083	29.50745
3.0835	27.09045
3.084	24.97559
3.0845	16.51611
3.085	19.03381
3.0855	13.89771
3.086	13.89771
3.0865	17.82532
3.087	9.97009
3.0875	7.75452
3.088	9.16443
3.0885	14.09912
3.089	14.09912
3.0895	14.19983
3.09	13.797
3.0905	19.94019
3.091	13.49487
3.0915	17.52319
3.092	27.39258
3.0925	23.8678
3.093	27.09045
3.0935	22.86072
3.094	23.06213
3.0945	22.25647
3.095	19.83948
3.0955	14.70337
3.096	12.68921
3.0965	11.38
3.097	9.16443
3.0975	6.84814
3.098	17.22107
3.0985	14.90479
3.099	13.29346
3.0995	18.8324
3.1	16.81824
3.1005	18.93311
3.101	13.89771
3.1015	16.41541
3.102	19.83948
3.1025	16.51611
3.103	16.11328
3.1035	16.11328
3.104	18.42957
3.1045	8.7616
3.105	9.46655
3.1055	5.33752
3.106	3.12195
3.1065	2.11487
3.107	2.71912
3.1075	1.3092
3.108	5.43823
3.1085	4.53186
3.109	10.57434
3.1095	17.92603
3.11	19.63806
3.1105	28.39966
3.111	29.70886
3.1115	32.83081
3.112	32.83081
3.1125	31.62231
3.113	29.20532
3.1135	31.92444
3.114	32.12585
3.1145	33.63647
3.115	32.93152
3.1155	24.57275
3.116	23.56567
3.1165	16.71753
3.117	12.5885
3.1175	1.61133
3.118	-3.22266
3.1185	-15.30762
3.119	-19.73877
3.1195	-19.94019
3.12	-14.09912
3.1205	-25.88196
3.121	-17.92603
3.1215	-13.99841
3.122	-9.97009
3.1225	-3.32336
3.123	11.88354
3.1235	20.84656
3.124	22.35718
3.1245	20.54443
3.125	22.86072
3.1255	23.76709
3.126	23.8678
3.1265	19.43665
3.127	17.52319
3.1275	13.89771
3.128	15.1062
3.1285	18.93311
3.129	20.64514
3.1295	28.80249
3.13	25.07629
3.1305	27.6947
3.131	35.65063
3.1315	39.88037
3.132	41.29028
3.1325	46.82922
3.133	42.49878
3.1335	40.98816
3.134	31.4209
3.1345	28.70178
3.135	22.96143
3.1355	19.03381
3.136	15.20691
3.1365	9.16443
3.137	7.65381
3.1375	10.87646
3.138	17.22107
3.1385	15.71045
3.139	18.12744
3.1395	15.81116
3.14	10.67505
3.1405	11.07788
3.141	3.62549
3.1415	6.3446
3.142	2.71912
3.1425	11.07788
3.143	13.89771
3.1435	14.60266
3.144	15.50903
3.1445	11.07788
3.145	6.84814
3.1455	4.93469
3.146	6.44531
3.1465	8.8623
3.147	4.33044
3.1475	4.53186
3.148	2.5177
3.1485	5.53894
3.149	3.62549
3.1495	6.54602
3.15	8.45947
3.1505	7.25098
3.151	9.56726
3.1515	5.94177
3.152	4.12903
3.1525	-0.60425
3.153	33.73718
3.1535	69.28711
3.154	111.38306
3.1545	152.1698
3.155	189.02893
3.1555	193.6615
3.156	198.49548
3.1565	181.47583
3.157	157.80945
3.1575	128.302
3.158	94.96765
3.1585	55.3894
3.159	16.01257
3.1595	-24.06921
3.16	-53.37524
3.1605	-75.22888
3.161	-93.85986
3.1615	-110.98022
3.162	-117.22412
3.1625	-106.64978
3.163	-107.75757
3.1635	-94.86694
3.164	-72.00623
3.1645	-60.4248
3.165	-41.59241
3.1655	-24.57275
3.166	-3.32336
3.1665	4.43115
3.167	-1.91345
3.1675	1.00708
3.168	2.11487
3.1685	-0.10071
3.169	-6.2439
3.1695	-8.45947
3.17	-11.07788
3.1705	-25.47913
3.171	-27.79541
3.1715	-33.03223
3.172	-35.44922
3.1725	-36.4563
3.173	-44.21082
3.1735	-41.99524
3.174	-46.32568
3.1745	-41.4917
3.175	-29.91028
3.1755	-14.90479
3.176	0.10071
3.1765	15.30762
3.177	28.50037
3.1775	38.16833
3.178	43.10303
3.1785	40.08179
3.179	47.93701
3.1795	49.34692
3.18	46.82922
3.1805	55.2887
3.181	65.66162
3.1815	61.02905
3.182	48.54126
3.1825	41.18958
3.183	38.47046
3.1835	35.04639
3.184	43.70728
3.1845	46.62781
3.185	54.0802
3.1855	60.22339
3.186	68.98499
3.1865	76.7395
3.187	108.26111
3.1875	149.85352
3.188	183.48999
3.1885	200.91248
3.189	198.79761
3.1895	197.58911
3.19	207.15637
3.1905	228.10364
3.191	217.83142
3.1915	205.74646
3.192	168.68591
3.1925	120.54749
3.193	68.88428
3.1935	16.3147
3.194	-35.95276
3.1945	-93.65845
3.195	-145.62378
3.1955	-183.89282
3.196	-202.72522
3.1965	-221.96045
3.197	-227.80151
3.1975	-233.84399
3.198	-220.55054
3.1985	-204.13513
3.199	-180.67017
3.1995	-159.7229
3.2	-128.10059
3.2005	-106.75049
3.201	-66.56799
3.2015	-36.95984
3.202	-11.38
3.2025	5.74036
3.203	23.16284
3.2035	38.67188
3.204	43.50586
3.2045	51.26038
3.205	52.46887
3.2055	57.60498
3.206	65.56091
3.2065	67.07153
3.207	68.78357
3.2075	66.36658
3.208	57.60498
3.2085	51.76392
3.209	47.13135
3.2095	43.20374
3.21	36.85913
3.2105	32.7301
3.211	33.63647
3.2115	30.31311
3.212	34.74426
3.2125	33.23364
3.213	30.31311
3.2135	27.49329
3.214	28.70178
3.2145	29.10461
3.215	28.50037
3.2155	25.98267
3.216	24.37134
3.2165	21.75293
3.217	25.07629
3.2175	16.61682
3.218	15.30762
3.2185	10.67505
3.219	13.59558
3.2195	5.33752
3.22	4.22974
3.2205	8.66089
3.221	13.39417
3.2215	8.66089
3.222	9.46655
3.2225	8.7616
3.223	13.49487
3.2235	17.42249
3.224	13.797
3.2245	12.18567
3.225	15.71045
3.2255	15.20691
3.226	19.23523
3.2265	17.82532
3.227	8.7616
3.2275	10.47363
3.228	19.83948
3.2285	19.03381
3.229	15.91187
3.2295	14.50195
3.23	12.28638
3.2305	13.797
3.231	16.71753
3.2315	19.43665
3.232	10.67505
3.2325	12.08496
3.233	10.17151
3.2335	15.1062
3.234	17.01965
3.2345	23.56567
3.235	18.73169
3.2355	18.12744
3.236	17.72461
3.2365	13.89771
3.237	13.59558
3.2375	17.12036
3.238	14.80408
3.2385	7.85522
3.239	4.33044
3.2395	5.74036
3.24	5.84106
3.2405	0.60425
3.241	-8.8623
3.2415	-12.08496
3.242	-12.08496
3.2425	-17.6239
3.243	-20.1416
3.2435	-18.53027
3.244	-25.07629
3.2445	-15.20691
3.245	-15.71045
3.2455	-8.25806
3.246	-7.04956
3.2465	-4.63257
3.247	6.54602
3.2475	11.78284
3.248	11.07788
3.2485	18.8324
3.249	20.74585
3.2495	15.40833
3.25	20.64514
3.2505	21.14868
3.251	16.91895
3.2515	14.40125
3.252	20.34302
3.2525	15.81116
3.253	12.28638
3.2535	3.32336
3.254	8.7616
3.2545	7.25098
3.255	7.65381
3.2555	7.95593
3.256	3.7262
3.2565	8.05664
3.257	-1.61133
3.2575	4.43115
3.258	5.23682
3.2585	9.66797
3.259	8.7616
3.2595	6.04248
3.26	6.94885
3.2605	10.67505
3.261	8.45947
3.2615	7.85522
3.262	6.3446
3.2625	-0.60425
3.263	4.33044
3.2635	3.12195
3.264	5.13611
3.2645	1.91345
3.265	2.61841
3.2655	4.53186
3.266	3.22266
3.2665	2.31628
3.267	2.21558
3.2675	-3.42407
3.268	-1.10779
3.2685	-4.43115
3.269	-5.74036
3.2695	-11.38
3.27	-13.29346
3.2705	-16.61682
3.271	-24.27063
3.2715	-21.3501
3.272	-21.85364
3.2725	-18.53027
3.273	-16.11328
3.2735	-9.97009
3.274	2.92053
3.2745	8.15735
3.275	14.90479
3.2755	13.89771
3.276	13.89771
3.2765	10.87646
3.277	9.97009
3.2775	9.06372
3.278	13.69629
3.2785	12.08496
3.279	13.797
3.2795	11.07788
3.28	10.37292
3.2805	5.43823
3.281	3.8269
3.2815	3.32336
3.282	-2.11487
3.2825	0.10071
3.283	-2.92053
3.2835	-3.22266
3.284	-1.61133
3.2845	-6.84814
3.285	-11.38
3.2855	-17.52319
3.286	-21.3501
3.2865	-20.44373
3.287	-15.81116
3.2875	-10.37292
3.288	-6.3446
3.2885	-7.65381
3.289	-2.11487
3.2895	0.80566
3.29	8.15735
3.2905	13.89771
3.291	21.95435
3.2915	18.32886
3.292	19.94019
3.2925	19.73877
3.293	21.85364
3.2935	13.99841
3.294	2.71912
3.2945	-3.22266
3.295	-5.84106
3.2955	-5.84106
3.296	-7.85522
3.2965	-10.47363
3.297	-2.21558
3.2975	-2.11487
3.298	-2.81982
3.2985	7.45239
3.299	12.78992
3.2995	10.0708
3.3	9.56726
3.3005	6.94885
3.301	4.83398
3.3015	-1.10779
3.302	-0.30212
3.3025	1.40991
3.303	-0.60425
3.3035	0.30212
3.304	-0.40283
3.3045	-3.12195
3.305	0.70496
3.3055	-0.40283
3.306	1.40991
3.3065	-4.22974
3.307	-2.41699
3.3075	-3.7262
3.308	-10.27222
3.3085	-12.28638
3.309	-30.91736
3.3095	-37.66479
3.31	-40.08179
3.3105	-41.39099
3.311	-39.88037
3.3115	-47.23206
3.312	-54.0802
3.3125	-65.46021
3.313	-72.61047
3.3135	-68.68286
3.314	-60.3241
3.3145	-60.12268
3.315	-51.05896
3.3155	-56.19507
3.316	-53.17383
3.3165	-46.72852
3.317	-47.53418
3.3175	-45.72144
3.318	-43.10303
3.3185	-19.13452
3.319	39.07471
3.3195	124.77722
3.32	178.95813
3.3205	198.09265
3.321	198.79761
3.3215	193.35938
3.322	204.84009
3.3225	201.81885
3.323	212.39319
3.3235	236.05957
3.324	221.55762
3.3245	181.27441
3.325	132.43103
3.3255	74.32251
3.326	25.88196
3.3265	-22.76001
3.327	-62.03613
3.3275	-85.70251
3.328	-103.02429
3.3285	-123.46802
3.329	-136.45935
3.3295	-129.00696
3.33	-95.06836
3.3305	-54.58374
3.331	1.51062
3.3315	76.84021
3.332	151.86768
3.3325	197.68982
3.333	225.28381
3.3335	233.54187
3.334	234.44824
3.3345	215.51514
3.335	218.73779
3.3355	226.19019
3.336	196.58203
3.3365	136.05652
3.337	60.3241
3.3375	-22.15576
3.338	-99.90234
3.3385	-164.05334
3.339	-220.95337
3.3395	-271.30737
3.34	-306.95801
3.3405	-338.58032
3.341	-354.5929
3.3415	-353.88794
3.342	-323.57483
3.3425	-280.67322
3.343	-246.4325
3.3435	-204.13513
3.344	-155.79529
3.3445	-112.28943
3.345	-67.07153
3.3455	-46.5271
3.346	-24.06921
3.3465	-8.05664
3.347	3.52478
3.3475	3.52478
3.348	22.35718
3.3485	34.44214
3.349	33.43506
3.3495	38.47046
3.35	26.58691
3.3505	11.78284
3.351	-2.21558
3.3515	-11.38
3.352	-20.04089
3.3525	-19.53735
3.353	-7.25098
3.3535	-2.01416
3.354	2.5177
3.3545	4.93469
3.355	11.07788
3.3555	6.04248
3.356	9.06372
3.3565	6.74744
3.357	2.11487
3.3575	-6.54602
3.358	-2.41699
3.3585	-2.5177
3.359	6.44531
3.3595	14.70337
3.36	20.04089
3.3605	23.56567
3.361	25.68054
3.3615	24.27063
3.362	19.83948
3.3625	16.81824
3.363	12.48779
3.3635	16.71753
3.364	13.49487
3.3645	13.59558
3.365	12.89062
3.3655	12.48779
3.366	12.89062
3.3665	10.97717
3.367	11.88354
3.3675	5.63965
3.368	8.05664
3.3685	11.78284
3.369	14.40125
3.3695	20.74585
3.37	30.91736
3.3705	59.92126
3.371	86.60889
3.3715	104.93774
3.372	113.09509
3.3725	113.1958
3.373	99.2981
3.3735	83.78906
3.374	65.96375
3.3745	39.27612
3.375	30.2124
3.3755	21.45081
3.376	11.68213
3.3765	0.30212
3.377	-3.12195
3.3775	-5.13611
3.378	0.90637
3.3785	9.26514
3.379	11.88354
3.3795	11.88354
3.38	12.89062
3.3805	6.64673
3.381	-2.11487
3.3815	-10.67505
3.382	-27.19116
3.3825	-46.22498
3.383	-63.24463
3.3835	-74.52393
3.384	-84.49402
3.3845	-84.79614
3.385	-74.12109
3.3855	-68.98499
3.386	-64.65454
3.3865	-59.01489
3.387	-47.03064
3.3875	-38.06763
3.388	-21.24939
3.3885	-7.75452
3.389	6.94885
3.3895	16.3147
3.39	17.12036
3.3905	17.82532
3.391	19.63806
3.3915	21.55151
3.392	25.68054
3.3925	32.02515
3.393	37.06055
3.3935	54.78516
3.394	97.48535
3.3945	137.36572
3.395	172.10999
3.3955	254.48914
3.396	327.90527
3.3965	356.00281
3.397	339.78882
3.3975	306.55518
3.398	257.71179
3.3985	200.40894
3.399	126.28784
3.3995	41.29028
3.4	-35.54993
3.4005	-99.80164
3.401	-165.66467
3.4015	-221.05408
3.402	-259.62524
3.4025	-282.18384
3.403	-288.32703
3.4035	-283.39233
3.404	-265.56702
3.4045	-244.11621
3.405	-216.62292
3.4055	-192.55371
3.406	-174.42627
3.4065	-158.11157
3.407	-136.35864
3.4075	-103.52783
3.408	-80.86853
3.4085	-48.94409
3.409	-32.93152
3.4095	-20.74585
3.41	-21.75293
3.4105	-18.53027
3.411	-15.91187
3.4115	-0.10071
3.412	11.38
3.4125	20.84656
3.413	26.58691
3.4135	36.25488
3.414	43.70728
3.4145	47.23206
3.415	46.42639
3.4155	49.44763
3.416	44.51294
3.4165	36.95984
3.417	53.57666
3.4175	91.24146
3.418	123.06519
3.4185	161.53564
3.419	185.80627
3.4195	201.71814
3.42	280.77393
3.4205	400.51575
3.421	536.9751
3.4215	631.84204
3.422	640.60364
3.4225	585.91919
3.423	495.4834
3.4235	379.06494
3.424	269.29321
3.4245	156.29883
3.425	33.53577
3.4255	-83.18481
3.426	-191.64734
3.4265	-279.96826
3.427	-356.60706
3.4275	-422.5708
3.428	-464.0625
3.4285	-483.49915
3.429	-489.74304
3.4295	-474.03259
3.43	-443.61877
3.4305	-408.47168
3.431	-372.3175
3.4315	-342.50793
3.432	-311.28845
3.4325	-276.14136
3.433	-230.52063
3.4335	-187.21619
3.434	-147.1344
3.4345	-107.85828
3.435	-62.43896
3.4355	-38.974
3.436	-18.8324
3.4365	6.3446
3.437	33.13293
3.4375	60.72693
3.438	71.50269
3.4385	89.63013
3.439	95.37048
3.4395	87.31384
3.44	73.61755
3.4405	56.39648
3.441	46.32568
3.4415	34.74426
3.442	12.99133
3.4425	-7.65381
3.443	-23.56567
3.4435	-24.27063
3.444	-19.73877
3.4445	-12.28638
3.445	-13.89771
3.4455	-3.8269
3.446	6.2439
3.4465	20.04089
3.447	28.19824
3.4475	29.60815
3.448	31.82373
3.4485	39.57825
3.449	65.46021
3.4495	220.24841
3.45	451.07117
3.4505	613.21106
3.451	647.35107
3.4515	630.43213
3.452	572.02148
3.4525	484.50623
3.453	355.39856
3.4535	210.17761
3.454	63.54675
3.4545	-66.46729
3.455	-192.85583
3.4555	-303.83606
3.456	-395.17822
3.4565	-438.48267
3.457	-452.88391
3.4575	-429.92249
3.458	-401.2207
3.4585	-349.05396
3.459	-295.37659
3.4595	-250.05798
3.46	-211.18469
3.4605	-179.8645
3.461	-154.28467
3.4615	-128.40271
3.462	-98.79456
3.4625	-97.68677
3.463	-90.13367
3.4635	-89.63013
3.464	-96.07544
3.4645	-92.65137
3.465	-82.88269
3.4655	-60.12268
3.466	-35.44922
3.4665	-7.45239
3.467	12.48779
3.4675	40.78674
3.468	49.44763
3.4685	63.04321
3.469	68.68286
3.4695	66.87012
3.47	64.65454
3.4705	60.62622
3.471	51.36108
3.4715	49.85046
3.472	58.20923
3.4725	119.84253
3.473	171.50574
3.4735	206.25
3.474	227.39868
3.4745	242.10205
3.475	239.48364
3.4755	211.18469
3.476	175.23193
3.4765	120.84961
3.477	66.16516
3.4775	11.17859
3.478	-48.54126
3.4785	-84.89685
3.479	-112.39014
3.4795	-109.67102
3.48	-112.99438
3.4805	-101.71509
3.481	-77.54517
3.4815	-40.88745
3.482	-17.82532
3.4825	-14.09912
3.483	-19.43665
3.4835	-39.77966
3.484	-51.36108
3.4845	-76.03455
3.485	-96.17615
3.4855	-102.52075
3.486	-107.05261
3.4865	-102.11792
3.487	-90.5365
3.4875	-77.948
3.488	-53.47595
3.4885	-26.78833
3.489	-5.84106
3.4895	15.40833
3.49	25.07629
3.4905	25.68054
3.491	25.177
3.4915	19.53735
3.492	25.47913
3.4925	20.94727
3.493	17.72461
3.4935	20.84656
3.494	18.73169
3.4945	21.3501
3.495	21.55151
3.4955	31.11877
3.496	28.50037
3.4965	33.83789
3.497	30.41382
3.4975	27.6947
3.498	30.71594
3.4985	32.32727
3.499	27.6947
3.4995	35.04639
3.5	41.08887
3.5005	48.84338
3.501	53.47595
3.5015	46.82922
3.502	37.56409
3.5025	25.98267
3.503	27.6947
3.5035	21.65222
3.504	19.33594
3.5045	22.76001
3.505	17.01965
3.5055	13.59558
3.506	9.16443
3.5065	10.97717
3.507	20.1416
3.5075	39.98108
3.508	55.79224
3.5085	71.90552
3.509	88.42163
3.5095	165.86609
3.51	276.14136
3.5105	471.21277
3.511	632.44629
3.5115	686.72791
3.512	622.17407
3.5125	522.27173
3.513	381.0791
3.5135	213.90381
3.514	41.08887
3.5145	-125.48218
3.515	-281.6803
3.5155	-401.92566
3.516	-496.18835
3.5165	-541.10413
3.517	-548.25439
3.5175	-524.18518
3.518	-475.3418
3.5185	-410.78796
3.519	-358.52051
3.5195	-313.30261
3.52	-271.20667
3.5205	-235.75745
3.521	-194.87
3.5215	-156.60095
3.522	-99.3988
3.5225	-52.36816
3.523	-22.55859
3.5235	11.68213
3.524	18.42957
3.5245	10.67505
3.525	16.21399
3.5255	30.61523
3.526	35.65063
3.5265	37.26196
3.527	46.82922
3.5275	44.81506
3.528	53.37524
3.5285	58.00781
3.529	61.33118
3.5295	74.2218
3.53	80.4657
3.5305	84.49402
3.531	95.37048
3.5315	85.90393
3.532	81.57349
3.5325	79.05579
3.533	69.38782
3.5335	59.61914
3.534	65.3595
3.5345	110.77881
3.535	155.09033
3.5355	191.64734
3.536	236.36169
3.5365	243.51196
3.537	215.41443
3.5375	168.38379
3.538	106.54907
3.5385	34.14001
3.539	-35.65063
3.5395	-87.51526
3.54	-118.33191
3.5405	-136.66077
3.541	-137.96997
3.5415	-112.79297
3.542	-99.2981
3.5425	-91.94641
3.543	-79.76074
3.5435	-56.29578
3.544	-40.68604
3.5445	-38.57117
3.545	-37.86621
3.5455	-49.85046
3.546	-62.03613
3.5465	-65.46021
3.547	-72.81189
3.5475	-74.92676
3.548	-71.30127
3.5485	-63.74817
3.549	-59.1156
3.5495	-55.89294
3.55	-43.30444
3.5505	-33.9386
3.551	-11.2793
3.5515	-4.43115
3.552	4.43115
3.5525	12.28638
3.553	19.73877
3.5535	37.06055
3.554	67.17224
3.5545	79.05579
3.555	78.95508
3.5555	72.20764
3.556	72.40906
3.5565	82.58057
3.557	96.67969
3.5575	106.14624
3.558	105.44128
3.5585	86.00464
3.559	54.38232
3.5595	22.05505
3.56	-1.81274
3.5605	-16.81824
3.561	-31.11877
3.5615	-28.19824
3.562	-21.55151
3.5625	-10.47363
3.563	34.03931
3.5635	70.29419
3.564	93.75916
3.5645	108.26111
3.565	148.14148
3.5655	156.39954
3.566	161.63635
3.5665	135.35156
3.567	95.97473
3.5675	53.27454
3.568	-30.71594
3.5685	-92.24854
3.569	-149.34998
3.5695	-187.21619
3.57	-188.22327
3.5705	-187.31689
3.571	-181.27441
3.5715	-144.31458
3.572	-108.05969
3.5725	-77.74658
3.573	-54.68445
3.5735	-6.94885
3.574	36.15417
3.5745	68.78357
3.575	78.55225
3.5755	120.24536
3.576	187.51831
3.5765	208.7677
3.577	166.97388
3.5775	116.11633
3.578	137.66785
3.5785	169.69299
3.579	152.97546
3.5795	115.00854
3.58	55.18799
3.5805	-17.22107
3.581	-95.67261
3.5815	-152.47192
3.582	-200.91248
3.5825	-226.49231
3.583	-235.85815
3.5835	-238.07373
3.584	-237.97302
3.5845	-220.65125
3.585	-201.51672
3.5855	-165.46326
3.586	-139.88342
3.5865	-102.52075
3.587	-71.90552
3.5875	-43.00232
3.588	-12.5885
3.5885	10.27222
3.589	32.12585
3.5895	42.7002
3.59	48.13843
3.5905	46.62781
3.591	44.81506
3.5915	34.03931
3.592	39.37683
3.5925	27.89612
3.593	25.177
3.5935	21.24939
3.594	25.88196
3.5945	31.4209
3.595	55.18799
3.5955	64.95667
3.596	73.71826
3.5965	78.35083
3.597	123.77014
3.5975	173.21777
3.598	186.71265
3.5985	184.8999
3.599	162.54272
3.5995	126.9928
3.6	82.27844
3.6005	29.40674
3.601	-7.45239
3.6015	-44.71436
3.602	-74.72534
3.6025	-93.75916
3.603	-96.67969
3.6035	-95.37048
3.604	-82.07703
3.6045	-40.1825
3.605	2.21558
3.6055	25.27771
3.606	44.91577
3.6065	45.01648
3.607	37.46338
3.6075	19.53735
3.608	9.46655
3.6085	4.12903
3.609	-6.04248
3.6095	-22.96143
3.61	-32.12585
3.6105	-38.87329
3.611	-46.82922
3.6115	-48.84338
3.612	-43.90869
3.6125	-39.47754
3.613	-29.50745
3.6135	-22.96143
3.614	-17.6239
3.6145	-18.12744
3.615	-15.91187
3.6155	-9.26514
3.616	21.65222
3.6165	74.92676
3.617	108.76465
3.6175	168.38379
3.618	239.28223
3.6185	254.58984
3.619	227.90222
3.6195	182.88574
3.62	115.10925
3.6205	50.45471
3.621	-12.5885
3.6215	-77.948
3.622	-119.23828
3.6225	-153.07617
3.623	-150.55847
3.6235	-120.34607
3.624	-86.10535
3.6245	-44.81506
3.625	-10.27222
3.6255	0.60425
3.626	15.00549
3.6265	41.69312
3.627	69.48853
3.6275	87.21313
3.628	100.70801
3.6285	115.31067
3.629	123.97156
3.6295	125.28076
3.63	103.42712
3.6305	67.47437
3.631	21.95435
3.6315	-21.24939
3.632	-63.64746
3.6325	-99.2981
3.633	-132.43103
3.6335	-147.43652
3.634	-152.27051
3.6345	-154.18396
3.635	-153.57971
3.6355	-142.80396
3.636	-131.62537
3.6365	-100.80872
3.637	-58.00781
3.6375	-37.46338
3.638	-16.21399
3.6385	-7.5531
3.639	-9.76868
3.6395	-16.3147
3.64	-21.55151
3.6405	-20.84656
3.641	14.30054
3.6415	110.47668
3.642	212.09106
3.6425	311.48987
3.643	413.8092
3.6435	444.82727
3.644	389.8407
3.6445	278.35693
3.645	156.90308
3.6455	54.88586
3.646	-39.88037
3.6465	-114.20288
3.647	-179.46167
3.6475	-210.0769
3.648	-188.02185
3.6485	-170.59937
3.649	-170.49866
3.6495	-171.80786
3.65	-168.38379
3.6505	-165.26184
3.651	-153.68042
3.6515	-144.6167
3.652	-132.22961
3.6525	-101.8158
3.653	-76.84021
3.6535	-74.82605
3.654	-59.92126
3.6545	-38.67188
3.655	15.30762
3.6555	67.77649
3.656	79.86145
3.6565	75.32959
3.657	57.30286
3.6575	28.39966
3.658	9.76868
3.6585	11.78284
3.659	0.30212
3.6595	-11.07788
3.66	6.84814
3.6605	25.78125
3.661	28.39966
3.6615	35.34851
3.662	40.1825
3.6625	49.95117
3.663	76.23596
3.6635	96.47827
3.664	97.08252
3.6645	93.55774
3.665	82.58057
3.6655	76.23596
3.666	132.73315
3.6665	208.96912
3.667	255.49622
3.6675	289.03198
3.668	279.86755
3.6685	213.90381
3.669	164.05334
3.6695	95.97473
3.67	11.17859
3.6705	-62.43896
3.671	-123.56873
3.6715	-191.54663
3.672	-224.78027
3.6725	-216.72363
3.673	-202.32239
3.6735	-186.1084
3.674	-172.3114
3.6745	-155.9967
3.675	-132.83386
3.6755	-109.57031
3.676	-85.80322
3.6765	-67.47437
3.677	-47.7356
3.6775	-47.53418
3.678	-55.2887
3.6785	-44.31152
3.679	34.34143
3.6795	221.3562
3.68	397.69592
3.6805	498.80676
3.681	483.09631
3.6815	385.61096
3.682	267.07764
3.6825	145.62378
3.683	31.21948
3.6835	-78.85437
3.684	-169.08875
3.6845	-224.98169
3.685	-259.82666
3.6855	-271.40808
3.686	-278.15552
3.6865	-263.15002
3.687	-236.66382
3.6875	-215.81726
3.688	-192.25159
3.6885	-168.08167
3.689	-145.62378
3.6895	-126.18713
3.69	-102.21863
3.6905	-59.71985
3.691	-16.61682
3.6915	18.93311
3.692	44.71436
3.6925	81.37207
3.693	111.08093
3.6935	134.34448
3.694	143.10608
3.6945	142.90466
3.695	115.91492
3.6955	79.86145
3.696	50.354
3.6965	10.17151
3.697	-25.78125
3.6975	-56.09436
3.698	-68.58215
3.6985	-74.42322
3.699	-61.93542
3.6995	-54.0802
3.7	-38.974
3.7005	-17.22107
3.701	-4.83398
3.7015	-2.81982
3.702	1.3092
3.7025	20.94727
3.703	51.36108
3.7035	69.89136
3.704	66.36658
3.7045	51.46179
3.705	49.14551
3.7055	73.41614
3.706	81.37207
3.7065	82.37915
3.707	74.72534
3.7075	108.56323
3.708	120.04395
3.7085	123.87085
3.709	99.09668
3.7095	59.1156
3.71	18.42957
3.7105	-13.89771
3.711	-46.5271
3.7115	-75.4303
3.712	-97.88818
3.7125	-118.63403
3.713	-108.05969
3.7135	-93.65845
3.714	-74.62463
3.7145	-43.00232
3.715	-31.4209
3.7155	-10.27222
3.716	4.43115
3.7165	11.88354
3.717	4.83398
3.7175	-1.40991
3.718	-3.22266
3.7185	0.70496
3.719	7.75452
3.7195	13.19275
3.72	12.48779
3.7205	8.05664
3.721	6.64673
3.7215	3.52478
3.722	8.25806
3.7225	23.36426
3.723	49.14551
3.7235	55.2887
3.724	61.02905
3.7245	55.49011
3.725	75.12817
3.7255	94.16199
3.726	123.2666
3.7265	135.25085
3.727	129.61121
3.7275	115.7135
3.728	102.11792
3.7285	92.85278
3.729	111.8866
3.7295	163.14697
3.73	167.07458
3.7305	148.64502
3.731	90.73792
3.7315	15.30762
3.732	-59.61914
3.7325	-119.94324
3.733	-167.37671
3.7335	-206.85425
3.734	-241.4978
3.7345	-261.03516
3.735	-272.61658
3.7355	-251.66931
3.736	-225.98877
3.7365	-197.99194
3.737	-163.14697
3.7375	-130.31616
3.738	-92.95349
3.7385	-64.65454
3.739	-25.07629
3.7395	13.49487
3.74	54.48303
3.7405	84.19189
3.741	104.4342
3.7415	107.05261
3.742	143.00537
3.7425	166.97388
3.743	193.05725
3.7435	227.6001
3.744	322.76917
3.7445	381.48193
3.745	368.28918
3.7455	315.92102
3.746	279.36401
3.7465	290.13977
3.747	297.89429
3.7475	263.04932
3.748	178.95813
3.7485	56.79932
3.749	-60.3241
3.7495	-150.55847
3.75	-211.88965
3.7505	-243.51196
3.751	-266.37268
3.7515	-268.08472
3.752	-272.41516
3.7525	-254.58984
3.753	-226.3916
3.7535	-121.9574
3.754	-37.7655
3.7545	21.65222
3.755	47.33276
3.7555	13.797
3.756	23.36426
3.7565	141.69617
3.757	269.79675
3.7575	302.42615
3.758	266.87622
3.7585	171.30432
3.759	59.1156
3.7595	-40.2832
3.76	-126.38855
3.7605	-198.59619
3.761	-256.80542
3.7615	-311.59058
3.762	-339.28528
3.7625	-330.22156
3.763	-312.29553
3.7635	-276.6449
3.764	-223.57178
3.7645	-172.41211
3.765	-127.49634
3.7655	-89.42871
3.766	-66.36658
3.7665	-43.90869
3.767	-26.28479
3.7675	-4.33044
3.768	20.34302
3.7685	42.59949
3.769	52.36816
3.7695	69.99207
3.77	88.52234
3.7705	99.2981
3.771	98.69385
3.7715	94.3634
3.772	82.68127
3.7725	73.41614
3.773	62.13684
3.7735	76.43738
3.774	106.64978
3.7745	181.57654
3.775	366.87927
3.7755	552.28271
3.776	635.97107
3.7765	670.3125
3.777	647.45178
3.7775	532.84607
3.778	389.03503
3.7785	339.38599
3.779	278.25623
3.7795	195.97778
3.78	106.04553
3.7805	21.85364
3.781	-110.47668
3.7815	-254.99268
3.782	-382.2876
3.7825	-469.80286
3.783	-535.16235
3.7835	-546.64307
3.784	-528.71704
3.7845	-512.50305
3.785	-486.21826
3.7855	-432.03735
3.786	-382.2876
3.7865	-346.73767
3.787	-320.95642
3.7875	-290.34119
3.788	-197.79053
3.7885	-111.18164
3.789	-55.99365
3.7895	-30.2124
3.79	30.91736
3.7905	130.11475
3.791	184.59778
3.7915	184.39636
3.792	154.98962
3.7925	134.24377
3.793	111.8866
3.7935	68.38074
3.794	15.40833
3.7945	-36.85913
3.795	-69.58923
3.7955	-93.65845
3.796	-93.45703
3.7965	-86.20605
3.797	-71.7041
3.7975	-72.00623
3.798	-59.31702
3.7985	-30.01099
3.799	-5.13611
3.7995	15.81116
3.8	34.44214
3.8005	44.0094
3.801	54.28162
3.8015	61.23047
3.802	65.46021
3.8025	75.93384
3.803	78.55225
3.8035	75.4303
3.804	68.28003
3.8045	61.12976
3.805	46.92993
3.8055	37.26196
3.806	18.63098
3.8065	5.84106
3.807	-7.35168
3.8075	0.90637
3.808	124.17297
3.8085	263.55286
3.809	386.1145
3.8095	441.20178
3.81	410.48584
3.8105	317.23022
3.811	216.11938
3.8115	124.27368
3.812	86.30676
3.8125	104.63562
3.813	97.78748
3.8135	70.79773
3.814	41.29028
3.8145	9.26514
3.815	-30.41382
3.8155	-74.72534
3.816	-113.1958
3.8165	-157.40662
3.817	-203.22876
3.8175	-254.58984
3.818	-292.95959
3.8185	-287.82349
3.819	-269.1925
3.8195	-230.21851
3.82	-137.96997
3.8205	-45.62073
3.821	21.65222
3.8215	108.66394
3.822	214.60876
3.8225	266.17126
3.823	268.89038
3.8235	199.30115
3.824	107.75757
3.8245	11.38
3.825	-45.52002
3.8255	-90.5365
3.826	-120.44678
3.8265	-134.24377
3.827	-136.35864
3.8275	-124.57581
3.828	-121.75598
3.8285	-111.18164
3.829	-82.88269
3.8295	-46.72852
3.83	-4.53186
3.8305	11.78284
3.831	50.95825
3.8315	73.71826
3.832	71.50269
3.8325	61.53259
3.833	48.03772
3.8335	85.60181
3.834	180.77087
3.8345	262.44507
3.835	369.59839
3.8355	542.71545
3.836	656.61621
3.8365	633.75549
3.837	487.72888
3.8375	271.50879
3.838	40.38391
3.8385	-198.09265
3.839	-383.49609
3.8395	-541.90979
3.84	-608.77991
3.8405	-594.98291
3.841	-564.16626
3.8415	-501.02234
3.842	-402.22778
3.8425	-328.2074
3.843	-281.47888
3.8435	-217.42859
3.844	-177.74963
3.8445	-157.70874
3.845	-131.82678
3.8455	-88.82446
3.846	-47.33276
3.8465	105.23987
3.847	228.20435
3.8475	273.82507
3.848	265.86914
3.8485	219.24133
3.849	131.12183
3.8495	66.97083
3.85	16.71753
3.8505	-29.00391
3.851	-63.34534
3.8515	-70.3949
3.852	-67.8772
3.8525	-33.03223
3.853	58.71277
3.8535	222.86682
3.854	387.62512
3.8545	515.12146
3.855	499.3103
3.8555	429.41895
3.856	302.42615
3.8565	151.86768
3.857	23.36426
3.8575	-71.60339
3.858	-157.40662
3.8585	-220.14771
3.859	-252.07214
3.8595	-249.55444
3.86	-209.67407
3.8605	-165.26184
3.861	-132.22961
3.8615	-101.61438
3.862	-73.31543
3.8625	-57.9071
3.863	-51.76392
3.8635	-55.59082
3.864	-75.63171
3.8645	-73.31543
3.865	-72.81189
3.8655	-75.63171
3.866	-67.67578
3.8665	-53.97949
3.867	-42.09595
3.8675	-23.96851
3.868	-18.32886
3.8685	-11.58142
3.869	2.61841
3.8695	11.68213
3.87	27.79541
3.8705	46.02356
3.871	52.06604
3.8715	84.49402
3.872	228.00293
3.8725	426.80054
3.873	553.18909
3.8735	557.31812
3.874	482.08923
3.8745	368.28918
3.875	229.31213
3.8755	99.3988
3.876	-21.14868
3.8765	-107.65686
3.877	-151.76697
3.8775	-96.27686
3.878	-31.62231
3.8785	0.60425
3.879	64.75525
3.8795	75.22888
3.88	54.58374
3.8805	-16.71753
3.881	-48.54126
3.8815	-113.59863
3.882	-154.18396
3.8825	-231.427
3.883	-314.4104
3.8835	-381.88477
3.884	-465.3717
3.8845	-485.91614
3.885	-467.38586
3.8855	-431.83594
3.886	-391.45203
3.8865	-315.82031
3.887	-254.38843
3.8875	-182.58362
3.888	-97.08252
3.8885	-8.35876
3.889	82.9834
3.8895	153.57971
3.89	187.31689
3.8905	193.56079
3.891	173.41919
3.8915	145.8252
3.892	112.79297
3.8925	97.48535
3.893	130.21545
3.8935	153.57971
3.894	169.99512
3.8945	169.69299
3.895	161.0321
3.8955	160.9314
3.896	149.34998
3.8965	124.87793
3.897	87.51526
3.8975	74.52393
3.898	68.48145
3.8985	49.74976
3.899	21.14868
3.8995	12.89062
3.9	64.45312
3.9005	113.90076
3.901	129.20837
3.9015	107.45544
3.902	96.27686
3.9025	76.23596
3.903	45.3186
3.9035	-13.09204
3.904	-76.13525
3.9045	-94.46411
3.905	-81.97632
3.9055	64.95667
3.906	167.57812
3.9065	320.05005
3.907	409.78088
3.9075	404.14124
3.908	293.76526
3.9085	154.98962
3.909	31.11877
3.9095	-11.78284
3.91	-52.36816
3.9105	-124.97864
3.911	-142.60254
3.9115	-194.16504
3.912	-248.54736
3.9125	-305.14526
3.913	-352.37732
3.9135	-391.45203
3.914	-395.98389
3.9145	-306.05164
3.915	-206.75354
3.9155	-106.14624
3.916	-3.92761
3.9165	97.98889
3.917	261.03516
3.9175	389.73999
3.918	411.59363
3.9185	395.58105
3.919	333.54492
3.9195	260.83374
3.92	149.6521
3.9205	40.08179
3.921	-65.25879
3.9215	-142.50183
3.922	-173.62061
3.9225	-117.52625
3.923	-50.55542
3.9235	-48.54126
3.924	-115.61279
3.9245	-201.31531
3.925	-272.61658
3.9255	-309.87854
3.926	-324.17908
3.9265	-329.01306
3.927	-301.41907
3.9275	-260.02808
3.928	-182.18079
3.9285	-107.65686
3.929	4.02832
3.9295	118.93616
3.93	207.15637
3.9305	288.72986
3.931	334.95483
3.9315	307.26013
3.932	236.56311
3.9325	196.38062
3.933	300.91553
3.9335	363.35449
3.934	362.146
3.9345	308.1665
3.935	230.01709
3.9355	118.93616
3.936	20.1416
3.9365	-93.96057
3.937	-220.65125
3.9375	-349.15466
3.938	-420.15381
3.9385	-379.36707
3.939	-283.09021
3.9395	-202.02026
3.94	-136.86218
3.9405	-98.49243
3.941	-48.33984
3.9415	-41.59241
3.942	-53.17383
3.9425	-82.78198
3.943	-97.18323
3.9435	-105.03845
3.944	-63.94958
3.9445	-37.56409
3.945	-35.85205
3.9455	-46.62781
3.946	-49.44763
3.9465	-77.948
3.947	-99.49951
3.9475	-111.38306
3.948	-107.35474
3.9485	-86.10535
3.949	-53.17383
3.9495	-57.50427
3.95	-80.86853
3.9505	-79.86145
3.951	-58.10852
3.9515	-8.8623
3.952	30.41382
3.9525	64.55383
3.953	97.78748
3.9535	105.34058
3.954	117.62695
3.9545	172.10999
3.955	249.0509
3.9555	279.06189
3.956	276.6449
3.9565	250.36011
3.957	338.88245
3.9575	415.72266
3.958	693.37463
3.9585	930.74341
3.959	1022.3877
3.9595	981.39954
3.96	890.66162
3.9605	873.64197
3.961	765.38086
3.9615	571.41724
3.962	269.59534
3.9625	-74.82605
3.963	-404.14124
3.9635	-700.82703
3.964	-936.48376
3.9645	-1114.2334
3.965	-1184.6283
3.9655	-1126.72119
3.966	-1004.56238
3.9665	-829.93469
3.967	-671.11816
3.9675	-518.1427
3.968	-391.95557
3.9685	-263.45215
3.969	-143.3075
3.9695	-49.85046
3.97	16.21399
3.9705	109.06677
3.971	141.89758
3.9715	152.57263
3.972	142.30042
3.9725	129.71191
3.973	120.64819
3.9735	103.125
3.974	243.20984
3.9745	441.90674
3.975	540.70129
3.9755	515.32288
3.976	391.55273
3.9765	198.49548
3.977	9.86938
