Gianluca_La_Polta_Right_1.c3d  



Time(s):	A_L_bicipite(μV):
0	10.77576
0.0005	4.93469
0.001	9.16443
0.0015	11.38
0.002	11.88354
0.0025	6.54602
0.003	3.92761
0.0035	7.95593
0.004	3.8269
0.0045	12.5885
0.005	9.26514
0.0055	9.97009
0.006	6.44531
0.0065	6.84814
0.007	3.52478
0.0075	7.65381
0.008	8.45947
0.0085	3.12195
0.009	4.33044
0.0095	0
0.01	2.11487
0.0105	1.10779
0.011	1.51062
0.0115	6.64673
0.012	8.96301
0.0125	5.74036
0.013	1.10779
0.0135	8.66089
0.014	7.95593
0.0145	7.65381
0.015	8.8623
0.0155	4.83398
0.016	2.61841
0.0165	3.8269
0.017	4.93469
0.0175	1.2085
0.018	-0.90637
0.0185	1.61133
0.019	6.04248
0.0195	7.04956
0.02	6.3446
0.0205	9.76868
0.021	2.21558
0.0215	6.64673
0.022	4.53186
0.0225	5.43823
0.023	8.7616
0.0235	11.38
0.024	7.65381
0.0245	3.52478
0.025	9.66797
0.0255	3.7262
0.026	12.68921
0.0265	6.54602
0.027	12.89062
0.0275	7.85522
0.028	13.59558
0.0285	11.2793
0.029	12.38708
0.0295	14.30054
0.03	12.68921
0.0305	12.78992
0.031	11.78284
0.0315	12.5885
0.032	12.68921
0.0325	16.41541
0.033	13.19275
0.0335	16.71753
0.034	16.81824
0.0345	11.88354
0.035	17.22107
0.0355	13.29346
0.036	13.99841
0.0365	12.78992
0.037	14.50195
0.0375	9.46655
0.038	9.86938
0.0385	9.26514
0.039	7.65381
0.0395	10.67505
0.04	8.05664
0.0405	9.46655
0.041	10.27222
0.0415	12.38708
0.042	10.0708
0.0425	5.0354
0.043	3.12195
0.0435	5.23682
0.044	2.61841
0.0445	2.92053
0.045	5.33752
0.0455	-0.30212
0.046	4.53186
0.0465	5.33752
0.047	5.43823
0.0475	5.13611
0.048	6.64673
0.0485	5.13611
0.049	1.2085
0.0495	2.01416
0.05	1.91345
0.0505	0.80566
0.051	-2.11487
0.0515	0.60425
0.052	4.12903
0.0525	4.73328
0.053	0.50354
0.0535	-3.62549
0.054	5.23682
0.0545	4.73328
0.055	2.71912
0.0555	1.00708
0.056	3.8269
0.0565	6.2439
0.057	10.27222
0.0575	3.7262
0.058	0.40283
0.0585	6.74744
0.059	6.2439
0.0595	3.62549
0.06	3.22266
0.0605	1.71204
0.061	1.61133
0.0615	2.5177
0.062	2.61841
0.0625	-1.51062
0.063	-0.10071
0.0635	2.31628
0.064	7.25098
0.0645	5.53894
0.065	0.80566
0.0655	5.74036
0.066	2.5177
0.0665	8.66089
0.067	1.61133
0.0675	8.05664
0.068	12.18567
0.0685	14.30054
0.069	8.96301
0.0695	5.63965
0.07	0.40283
0.0705	2.01416
0.071	5.63965
0.0715	3.62549
0.072	6.04248
0.0725	2.01416
0.073	2.11487
0.0735	4.73328
0.074	1.71204
0.0745	2.11487
0.075	-1.3092
0.0755	5.53894
0.076	6.84814
0.0765	8.45947
0.077	10.67505
0.0775	7.85522
0.078	6.2439
0.0785	-0.40283
0.079	1.91345
0.0795	3.92761
0.08	4.63257
0.0805	1.00708
0.081	4.83398
0.0815	5.43823
0.082	0.70496
0.0825	-0.50354
0.083	-1.40991
0.0835	6.3446
0.084	-2.01416
0.0845	0.60425
0.085	-0.50354
0.0855	5.53894
0.086	-0.30212
0.0865	6.74744
0.087	4.33044
0.0875	6.3446
0.088	7.85522
0.0885	10.37292
0.089	8.25806
0.0895	4.02832
0.09	3.32336
0.0905	3.92761
0.091	4.63257
0.0915	5.33752
0.092	8.05664
0.0925	0.90637
0.093	3.22266
0.0935	1.61133
0.094	1.71204
0.0945	2.31628
0.095	-0.10071
0.0955	-5.43823
0.096	-5.63965
0.0965	2.31628
0.097	3.02124
0.0975	2.21558
0.098	-0.70496
0.0985	8.05664
0.099	-1.71204
0.0995	2.71912
0.1	5.0354
0.1005	0.60425
0.101	2.11487
0.1015	2.5177
0.102	1.61133
0.1025	2.11487
0.103	5.94177
0.1035	2.61841
0.104	3.32336
0.1045	8.8623
0.105	6.54602
0.1055	12.5885
0.106	7.25098
0.1065	9.06372
0.107	15.50903
0.1075	16.51611
0.108	17.42249
0.1085	10.17151
0.109	15.20691
0.1095	14.60266
0.11	13.797
0.1105	15.81116
0.111	14.90479
0.1115	15.91187
0.112	15.20691
0.1125	21.04797
0.113	15.60974
0.1135	11.07788
0.114	9.06372
0.1145	9.97009
0.115	11.98425
0.1155	15.60974
0.116	12.89062
0.1165	9.97009
0.117	11.2793
0.1175	6.74744
0.118	4.22974
0.1185	4.83398
0.119	11.88354
0.1195	8.96301
0.12	2.81982
0.1205	5.0354
0.121	6.54602
0.1215	8.35876
0.122	5.74036
0.1225	3.12195
0.123	2.21558
0.1235	3.7262
0.124	-5.0354
0.1245	-0.60425
0.125	-5.74036
0.1255	-6.44531
0.126	-5.84106
0.1265	-1.51062
0.127	0
0.1275	-5.74036
0.128	-4.73328
0.1285	-4.43115
0.129	1.81274
0.1295	1.61133
0.13	-0.30212
0.1305	-2.01416
0.131	2.01416
0.1315	5.53894
0.132	2.11487
0.1325	5.53894
0.133	3.92761
0.1335	1.40991
0.134	7.65381
0.1345	5.53894
0.135	7.85522
0.1355	4.93469
0.136	6.74744
0.1365	7.04956
0.137	12.18567
0.1375	17.12036
0.138	18.93311
0.1385	17.82532
0.139	13.09204
0.1395	12.68921
0.14	10.67505
0.1405	16.61682
0.141	12.78992
0.1415	7.45239
0.142	6.64673
0.1425	3.02124
0.143	-2.71912
0.1435	2.92053
0.144	-0.30212
0.1445	0.40283
0.145	5.74036
0.1455	5.63965
0.146	-1.71204
0.1465	6.64673
0.147	-2.81982
0.1475	11.07788
0.148	6.2439
0.1485	9.16443
0.149	6.74744
0.1495	6.74744
0.15	-0.30212
0.1505	1.71204
0.151	1.61133
0.1515	4.53186
0.152	4.73328
0.1525	-1.91345
0.153	8.45947
0.1535	4.22974
0.154	14.40125
0.1545	8.8623
0.155	8.8623
0.1555	12.78992
0.156	14.09912
0.1565	9.06372
0.157	12.78992
0.1575	13.59558
0.158	9.76868
0.1585	13.89771
0.159	14.50195
0.1595	9.56726
0.16	7.65381
0.1605	6.3446
0.161	8.15735
0.1615	3.22266
0.162	6.2439
0.1625	6.2439
0.163	10.87646
0.1635	7.25098
0.164	5.84106
0.1645	6.3446
0.165	1.61133
0.1655	4.83398
0.166	4.63257
0.1665	0
0.167	2.71912
0.1675	3.62549
0.168	9.06372
0.1685	2.21558
0.169	4.73328
0.1695	0.20142
0.17	3.92761
0.1705	-1.3092
0.171	3.62549
0.1715	14.30054
0.172	4.73328
0.1725	5.84106
0.173	7.25098
0.1735	3.8269
0.174	0.70496
0.1745	2.21558
0.175	1.71204
0.1755	1.00708
0.176	2.11487
0.1765	5.94177
0.177	8.8623
0.1775	3.02124
0.178	9.46655
0.1785	11.98425
0.179	10.67505
0.1795	14.50195
0.18	10.97717
0.1805	5.33752
0.181	7.25098
0.1815	8.05664
0.182	7.95593
0.1825	4.43115
0.183	3.7262
0.1835	11.98425
0.184	7.04956
0.1845	1.10779
0.185	4.53186
0.1855	0.20142
0.186	-2.61841
0.1865	-11.17859
0.187	-11.07788
0.1875	-12.18567
0.188	-10.37292
0.1885	-11.48071
0.189	-11.78284
0.1895	-5.94177
0.19	2.21558
0.1905	-5.63965
0.191	-0.40283
0.1915	5.0354
0.192	7.04956
0.1925	11.07788
0.193	13.69629
0.1935	18.53027
0.194	14.40125
0.1945	17.6239
0.195	17.52319
0.1955	16.71753
0.196	19.13452
0.1965	13.39417
0.197	9.16443
0.1975	8.05664
0.198	8.96301
0.1985	12.5885
0.199	11.38
0.1995	10.87646
0.2	5.43823
0.2005	3.42407
0.201	5.43823
0.2015	2.61841
0.202	3.02124
0.2025	3.62549
0.203	4.93469
0.2035	2.92053
0.204	3.02124
0.2045	2.31628
0.205	3.92761
0.2055	0
0.206	3.7262
0.2065	-1.91345
0.207	1.71204
0.2075	9.36584
0.208	4.02832
0.2085	2.5177
0.209	0.60425
0.2095	3.12195
0.21	2.5177
0.2105	7.85522
0.211	7.75452
0.2115	9.06372
0.212	6.84814
0.2125	4.53186
0.213	2.81982
0.2135	2.31628
0.214	9.56726
0.2145	6.3446
0.215	10.47363
0.2155	7.75452
0.216	3.02124
0.2165	5.23682
0.217	2.81982
0.2175	4.63257
0.218	0.40283
0.2185	3.52478
0.219	3.22266
0.2195	-5.63965
0.22	-3.62549
0.2205	0.70496
0.221	0.30212
0.2215	-5.94177
0.222	-3.7262
0.2225	-5.23682
0.223	-2.5177
0.2235	-0.10071
0.224	1.40991
0.2245	4.53186
0.225	8.8623
0.2255	4.12903
0.226	0
0.2265	5.63965
0.227	2.31628
0.2275	9.86938
0.228	6.54602
0.2285	8.25806
0.229	14.19983
0.2295	7.75452
0.23	6.54602
0.2305	4.33044
0.231	5.43823
0.2315	5.53894
0.232	3.92761
0.2325	1.00708
0.233	-1.51062
0.2335	2.81982
0.234	-4.22974
0.2345	2.5177
0.235	-1.00708
0.2355	2.31628
0.236	4.33044
0.2365	-0.90637
0.237	-0.30212
0.2375	2.31628
0.238	1.71204
0.2385	1.61133
0.239	1.61133
0.2395	-2.5177
0.24	5.13611
0.2405	3.52478
0.241	5.13611
0.2415	2.5177
0.242	2.81982
0.2425	10.0708
0.243	7.25098
0.2435	7.15027
0.244	5.94177
0.2445	9.56726
0.245	10.67505
0.2455	7.35168
0.246	9.66797
0.2465	6.54602
0.247	6.84814
0.2475	3.52478
0.248	5.23682
0.2485	-0.70496
0.249	2.61841
0.2495	2.81982
0.25	-0.80566
0.2505	5.84106
0.251	4.63257
0.2515	8.56018
0.252	5.23682
0.2525	4.93469
0.253	4.63257
0.2535	6.74744
0.254	9.56726
0.2545	-0.60425
0.255	2.61841
0.2555	0.60425
0.256	5.0354
0.2565	-3.42407
0.257	2.01416
0.2575	-1.3092
0.258	7.45239
0.2585	10.47363
0.259	8.96301
0.2595	10.47363
0.26	5.33752
0.2605	6.74744
0.261	11.17859
0.2615	6.64673
0.262	4.43115
0.2625	8.45947
0.263	8.96301
0.2635	4.73328
0.264	2.71912
0.2645	-1.00708
0.265	1.3092
0.2655	4.02832
0.266	11.2793
0.2665	4.33044
0.267	10.27222
0.2675	7.25098
0.268	12.28638
0.2685	8.96301
0.269	2.31628
0.2695	5.33752
0.27	5.63965
0.2705	1.51062
0.271	-1.2085
0.2715	0.30212
0.272	4.83398
0.2725	5.13611
0.273	8.8623
0.2735	2.71912
0.274	3.42407
0.2745	1.3092
0.275	6.2439
0.2755	9.36584
0.276	12.5885
0.2765	11.2793
0.277	8.45947
0.2775	4.33044
0.278	6.2439
0.2785	1.2085
0.279	5.43823
0.2795	9.76868
0.28	7.15027
0.2805	11.68213
0.281	8.66089
0.2815	8.66089
0.282	8.15735
0.2825	8.15735
0.283	4.53186
0.2835	6.14319
0.284	8.35876
0.2845	4.73328
0.285	9.06372
0.2855	4.22974
0.286	4.93469
0.2865	8.05664
0.287	4.63257
0.2875	8.35876
0.288	8.56018
0.2885	7.15027
0.289	2.31628
0.2895	8.05664
0.29	4.63257
0.2905	2.41699
0.291	7.95593
0.2915	6.3446
0.292	9.36584
0.2925	1.00708
0.293	3.12195
0.2935	1.00708
0.294	1.2085
0.2945	0.50354
0.295	3.12195
0.2955	5.23682
0.296	-3.42407
0.2965	7.15027
0.297	10.27222
0.2975	12.5885
0.298	8.05664
0.2985	8.8623
0.299	6.3446
0.2995	8.35876
0.3	9.66797
0.3005	2.21558
0.301	7.35168
0.3015	4.93469
0.302	5.84106
0.3025	7.45239
0.303	6.04248
0.3035	7.85522
0.304	11.68213
0.3045	10.0708
0.305	5.13611
0.3055	5.33752
0.306	3.02124
0.3065	1.10779
0.307	0.60425
0.3075	5.33752
0.308	7.15027
0.3085	6.04248
0.309	2.61841
0.3095	10.67505
0.31	9.56726
0.3105	4.43115
0.311	5.53894
0.3115	11.2793
0.312	6.74744
0.3125	6.94885
0.313	13.89771
0.3135	7.95593
0.314	14.30054
0.3145	10.17151
0.315	6.64673
0.3155	10.97717
0.316	12.28638
0.3165	10.87646
0.317	5.94177
0.3175	7.25098
0.318	8.96301
0.3185	8.05664
0.319	11.2793
0.3195	7.75452
0.32	12.5885
0.3205	8.66089
0.321	9.36584
0.3215	4.53186
0.322	6.74744
0.3225	5.63965
0.323	4.73328
0.3235	10.47363
0.324	10.77576
0.3245	8.8623
0.325	6.64673
0.3255	11.17859
0.326	5.43823
0.3265	11.78284
0.327	13.09204
0.3275	9.97009
0.328	9.36584
0.3285	7.65381
0.329	10.17151
0.3295	7.04956
0.33	9.56726
0.3305	15.1062
0.331	10.37292
0.3315	13.49487
0.332	9.56726
0.3325	13.39417
0.333	9.56726
0.3335	11.88354
0.334	12.68921
0.3345	10.87646
0.335	8.15735
0.3355	12.99133
0.336	12.28638
0.3365	8.45947
0.337	8.8623
0.3375	7.65381
0.338	12.18567
0.3385	12.18567
0.339	8.56018
0.3395	17.01965
0.34	16.01257
0.3405	14.09912
0.341	15.91187
0.3415	16.3147
0.342	8.96301
0.3425	14.90479
0.343	11.2793
0.3435	13.49487
0.344	12.28638
0.3445	14.19983
0.345	8.45947
0.3455	9.56726
0.346	16.41541
0.3465	6.14319
0.347	16.11328
0.3475	10.17151
0.348	19.33594
0.3485	12.28638
0.349	14.90479
0.3495	13.49487
0.35	6.74744
0.3505	13.49487
0.351	9.66797
0.3515	11.17859
0.352	13.09204
0.3525	18.63098
0.353	9.36584
0.3535	3.52478
0.354	9.66797
0.3545	13.69629
0.355	11.48071
0.3555	2.71912
0.356	12.18567
0.3565	8.96301
0.357	10.57434
0.3575	9.26514
0.358	12.99133
0.3585	9.06372
0.359	7.5531
0.3595	10.67505
0.36	7.5531
0.3605	11.17859
0.361	12.38708
0.3615	8.96301
0.362	6.94885
0.3625	8.45947
0.363	10.17151
0.3635	16.01257
0.364	15.40833
0.3645	12.28638
0.365	11.58142
0.3655	10.57434
0.366	12.48779
0.3665	12.18567
0.367	11.98425
0.3675	9.56726
0.368	7.75452
0.3685	12.18567
0.369	6.04248
0.3695	10.77576
0.37	12.99133
0.3705	9.86938
0.371	13.49487
0.3715	12.48779
0.372	16.51611
0.3725	12.99133
0.373	11.88354
0.3735	12.89062
0.374	20.84656
0.3745	17.72461
0.375	11.48071
0.3755	14.09912
0.376	3.92761
0.3765	6.84814
0.377	4.02832
0.3775	2.81982
0.378	0.70496
0.3785	0.60425
0.379	7.35168
0.3795	11.07788
0.38	7.5531
0.3805	9.06372
0.381	9.16443
0.3815	9.46655
0.382	12.08496
0.3825	9.97009
0.383	10.27222
0.3835	15.20691
0.384	2.11487
0.3845	5.84106
0.385	7.5531
0.3855	9.76868
0.386	2.61841
0.3865	7.95593
0.387	9.56726
0.3875	7.5531
0.388	2.71912
0.3885	6.44531
0.389	13.59558
0.3895	8.05664
0.39	11.17859
0.3905	9.86938
0.391	8.45947
0.3915	9.56726
0.392	13.09204
0.3925	9.26514
0.393	4.73328
0.3935	7.75452
0.394	14.80408
0.3945	11.68213
0.395	7.35168
0.3955	9.76868
0.396	8.96301
0.3965	6.14319
0.397	13.59558
0.3975	9.16443
0.398	12.99133
0.3985	8.35876
0.399	11.48071
0.3995	12.38708
0.4	11.48071
0.4005	15.30762
0.401	9.66797
0.4015	15.00549
0.402	8.35876
0.4025	10.17151
0.403	9.97009
0.4035	15.50903
0.404	12.38708
0.4045	10.27222
0.405	13.29346
0.4055	6.84814
0.406	11.17859
0.4065	8.15735
0.407	12.68921
0.4075	7.65381
0.408	8.56018
0.4085	15.71045
0.409	10.87646
0.4095	11.07788
0.41	13.69629
0.4105	11.78284
0.411	10.77576
0.4115	10.67505
0.412	11.88354
0.4125	8.7616
0.413	15.00549
0.4135	10.97717
0.414	13.89771
0.4145	16.81824
0.415	13.797
0.4155	14.30054
0.416	13.99841
0.4165	16.91895
0.417	11.88354
0.4175	8.25806
0.418	4.33044
0.4185	5.63965
0.419	1.71204
0.4195	8.25806
0.42	6.64673
0.4205	-3.02124
0.421	7.95593
0.4215	1.71204
0.422	1.40991
0.4225	4.33044
0.423	5.23682
0.4235	3.7262
0.424	6.2439
0.4245	6.44531
0.425	3.32336
0.4255	6.44531
0.426	2.61841
0.4265	3.62549
0.427	1.71204
0.4275	5.13611
0.428	9.56726
0.4285	3.92761
0.429	5.23682
0.4295	0.20142
0.43	-1.3092
0.4305	-3.12195
0.431	-1.00708
0.4315	2.41699
0.432	1.71204
0.4325	6.84814
0.433	4.83398
0.4335	9.26514
0.434	11.07788
0.4345	12.78992
0.435	5.94177
0.4355	4.33044
0.436	3.02124
0.4365	-0.20142
0.437	5.43823
0.4375	6.64673
0.438	9.06372
0.4385	3.32336
0.439	6.3446
0.4395	6.84814
0.44	5.0354
0.4405	9.06372
0.441	8.25806
0.4415	7.25098
0.442	8.7616
0.4425	12.38708
0.443	9.86938
0.4435	15.91187
0.444	10.57434
0.4445	6.04248
0.445	12.18567
0.4455	9.26514
0.446	17.01965
0.4465	9.36584
0.447	11.17859
0.4475	6.64673
0.448	10.17151
0.4485	5.84106
0.449	9.36584
0.4495	8.45947
0.45	5.23682
0.4505	11.88354
0.451	10.87646
0.4515	8.25806
0.452	10.0708
0.4525	5.0354
0.453	7.35168
0.4535	11.58142
0.454	10.37292
0.4545	6.54602
0.455	6.84814
0.4555	7.25098
0.456	9.36584
0.4565	3.62549
0.457	5.74036
0.4575	9.06372
0.458	4.22974
0.4585	7.04956
0.459	2.81982
0.4595	9.66797
0.46	7.25098
0.4605	6.54602
0.461	2.31628
0.4615	1.91345
0.462	0.30212
0.4625	2.21558
0.463	8.05664
0.4635	-0.40283
0.464	3.32336
0.4645	2.01416
0.465	5.74036
0.4655	1.91345
0.466	1.51062
0.4665	-0.10071
0.467	0.90637
0.4675	5.53894
0.468	-4.02832
0.4685	-0.10071
0.469	2.81982
0.4695	1.51062
0.47	-0.80566
0.4705	5.23682
0.471	2.31628
0.4715	0
0.472	2.81982
0.4725	3.12195
0.473	4.83398
0.4735	3.62549
0.474	4.22974
0.4745	0.10071
0.475	3.32336
0.4755	5.84106
0.476	4.83398
0.4765	4.83398
0.477	4.73328
0.4775	5.84106
0.478	2.01416
0.4785	4.73328
0.479	4.93469
0.4795	2.71912
0.48	6.54602
0.4805	6.54602
0.481	10.47363
0.4815	9.86938
0.482	11.88354
0.4825	11.17859
0.483	7.45239
0.4835	1.81274
0.484	6.04248
0.4845	3.32336
0.485	0.20142
0.4855	3.42407
0.486	-0.60425
0.4865	0.40283
0.487	0
0.4875	0.60425
0.488	0.90637
0.4885	2.81982
0.489	-3.62549
0.4895	-2.61841
0.49	-2.81982
0.4905	-0.30212
0.491	2.61841
0.4915	6.2439
0.492	2.01416
0.4925	4.33044
0.493	0.10071
0.4935	-0.10071
0.494	2.81982
0.4945	1.81274
0.495	-1.40991
0.4955	4.33044
0.496	4.73328
0.4965	3.32336
0.497	2.01416
0.4975	1.51062
0.498	2.81982
0.4985	7.45239
0.499	3.52478
0.4995	-3.22266
0.5	5.23682
0.5005	4.83398
0.501	3.22266
0.5015	0.80566
0.502	6.04248
0.5025	5.43823
0.503	1.2085
0.5035	-3.92761
0.504	-1.3092
0.5045	5.13611
0.505	-1.00708
0.5055	2.21558
0.506	2.31628
0.5065	3.92761
0.507	3.62549
0.5075	2.92053
0.508	-0.80566
0.5085	0.90637
0.509	1.71204
0.5095	1.81274
0.51	0.20142
0.5105	2.81982
0.511	1.71204
0.5115	1.71204
0.512	2.92053
0.5125	3.52478
0.513	4.33044
0.5135	7.5531
0.514	1.81274
0.5145	2.81982
0.515	-1.10779
0.5155	1.61133
0.516	-2.81982
0.5165	1.2085
0.517	2.01416
0.5175	1.91345
0.518	2.31628
0.5185	3.7262
0.519	5.84106
0.5195	3.8269
0.52	0.40283
0.5205	-3.62549
0.521	4.93469
0.5215	0.60425
0.522	-4.53186
0.5225	-2.41699
0.523	2.41699
0.5235	3.62549
0.524	-0.20142
0.5245	1.00708
0.525	-1.00708
0.5255	6.74744
0.526	2.41699
0.5265	6.2439
0.527	6.84814
0.5275	6.54602
0.528	1.91345
0.5285	9.56726
0.529	5.53894
0.5295	5.13611
0.53	7.15027
0.5305	6.14319
0.531	3.22266
0.5315	1.2085
0.532	4.53186
0.5325	8.96301
0.533	5.0354
0.5335	1.71204
0.534	1.40991
0.5345	0.80566
0.535	8.15735
0.5355	3.52478
0.536	2.61841
0.5365	3.42407
0.537	5.23682
0.5375	5.94177
0.538	10.37292
0.5385	6.84814
0.539	7.15027
0.5395	5.74036
0.54	11.2793
0.5405	6.3446
0.541	1.40991
0.5415	-5.33752
0.542	-7.15027
0.5425	-11.17859
0.543	-13.19275
0.5435	-10.0708
0.544	-3.12195
0.5445	-6.3446
0.545	-8.15735
0.5455	-1.40991
0.546	1.10779
0.5465	-4.22974
0.547	-5.23682
0.5475	-0.70496
0.548	3.7262
0.5485	-0.30212
0.549	5.0354
0.5495	-2.61841
0.55	1.91345
0.5505	-0.70496
0.551	0.20142
0.5515	-2.81982
0.552	-6.74744
0.5525	-3.22266
0.553	-6.2439
0.5535	-2.71912
0.554	3.32336
0.5545	-4.43115
0.555	-8.96301
0.5555	-3.8269
0.556	-2.11487
0.5565	-4.63257
0.557	1.40991
0.5575	2.11487
0.558	7.95593
0.5585	1.51062
0.559	-1.40991
0.5595	4.33044
0.56	-5.33752
0.5605	4.73328
0.561	-1.00708
0.5615	-0.10071
0.562	-4.22974
0.5625	-2.61841
0.563	-0.50354
0.5635	-3.7262
0.564	-0.20142
0.5645	-5.53894
0.565	0.80566
0.5655	0.60425
0.566	4.73328
0.5665	7.25098
0.567	5.94177
0.5675	3.7262
0.568	-1.2085
0.5685	3.12195
0.569	-0.30212
0.5695	7.15027
0.57	-0.40283
0.5705	2.81982
0.571	0.70496
0.5715	1.91345
0.572	-2.11487
0.5725	-3.02124
0.573	1.3092
0.5735	-2.31628
0.574	1.10779
0.5745	1.51062
0.575	4.43115
0.5755	6.04248
0.576	3.62549
0.5765	3.22266
0.577	2.41699
0.5775	0.90637
0.578	1.91345
0.5785	-1.61133
0.579	3.52478
0.5795	1.2085
0.58	6.14319
0.5805	3.02124
0.581	5.94177
0.5815	4.02832
0.582	3.8269
0.5825	1.51062
0.583	2.41699
0.5835	1.71204
0.584	2.21558
0.5845	6.44531
0.585	5.0354
0.5855	11.38
0.586	0.70496
0.5865	7.15027
0.587	2.5177
0.5875	4.93469
0.588	6.2439
0.5885	0.10071
0.589	1.51062
0.5895	-0.70496
0.59	-1.71204
0.5905	-0.70496
0.591	3.12195
0.5915	3.8269
0.592	3.52478
0.5925	6.54602
0.593	2.11487
0.5935	-2.41699
0.594	-6.54602
0.5945	6.94885
0.595	2.41699
0.5955	4.33044
0.596	-2.61841
0.5965	-4.83398
0.597	-2.11487
0.5975	1.10779
0.598	-1.91345
0.5985	-1.71204
0.599	0.70496
0.5995	2.11487
0.6	0.10071
0.6005	4.53186
0.601	5.23682
0.6015	2.92053
0.602	1.10779
0.6025	0.70496
0.603	5.63965
0.6035	3.32336
0.604	1.91345
0.6045	6.3446
0.605	2.01416
0.6055	3.92761
0.606	-2.11487
0.6065	-0.70496
0.607	6.74744
0.6075	3.92761
0.608	5.84106
0.6085	11.48071
0.609	9.46655
0.6095	6.94885
0.61	6.2439
0.6105	8.66089
0.611	8.25806
0.6115	7.5531
0.612	5.84106
0.6125	7.95593
0.613	9.36584
0.6135	6.04248
0.614	2.31628
0.6145	-2.21558
0.615	-3.42407
0.6155	1.2085
0.616	5.43823
0.6165	1.40991
0.617	-1.81274
0.6175	2.61841
0.618	0.60425
0.6185	2.92053
0.619	3.8269
0.6195	2.81982
0.62	-1.2085
0.6205	2.21558
0.621	2.11487
0.6215	2.01416
0.622	-3.7262
0.6225	-1.91345
0.623	5.94177
0.6235	2.41699
0.624	4.53186
0.6245	4.22974
0.625	2.61841
0.6255	4.22974
0.626	6.14319
0.6265	5.94177
0.627	1.3092
0.6275	2.11487
0.628	1.71204
0.6285	9.97009
0.629	-1.2085
0.6295	5.33752
0.63	6.3446
0.6305	7.25098
0.631	4.93469
0.6315	1.3092
0.632	2.71912
0.6325	-0.90637
0.633	8.05664
0.6335	3.7262
0.634	7.25098
0.6345	3.02124
0.635	6.14319
0.6355	5.43823
0.636	4.83398
0.6365	7.04956
0.637	1.51062
0.6375	7.35168
0.638	3.02124
0.6385	3.22266
0.639	5.84106
0.6395	-0.60425
0.64	1.10779
0.6405	2.11487
0.641	5.53894
0.6415	0.80566
0.642	6.04248
0.6425	2.61841
0.643	2.5177
0.6435	2.01416
0.644	-0.60425
0.6445	4.33044
0.645	2.81982
0.6455	2.81982
0.646	5.94177
0.6465	10.47363
0.647	2.01416
0.6475	3.52478
0.648	9.46655
0.6485	2.5177
0.649	9.16443
0.6495	3.62549
0.65	6.3446
0.6505	-2.11487
0.651	7.5531
0.6515	3.42407
0.652	5.94177
0.6525	4.22974
0.653	1.71204
0.6535	1.2085
0.654	5.23682
0.6545	6.14319
0.655	7.15027
0.6555	7.15027
0.656	1.00708
0.6565	0.70496
0.657	-2.11487
0.6575	-2.11487
0.658	0.70496
0.6585	1.51062
0.659	6.94885
0.6595	8.25806
0.66	5.33752
0.6605	3.32336
0.661	6.74744
0.6615	4.53186
0.662	2.92053
0.6625	0.40283
0.663	3.52478
0.6635	2.11487
0.664	0.30212
0.6645	2.61841
0.665	-1.81274
0.6655	1.3092
0.666	1.61133
0.6665	3.32336
0.667	5.43823
0.6675	2.81982
0.668	8.56018
0.6685	2.11487
0.669	7.15027
0.6695	9.66797
0.67	7.85522
0.6705	12.38708
0.671	10.27222
0.6715	9.97009
0.672	7.15027
0.6725	7.95593
0.673	6.84814
0.6735	7.15027
0.674	9.76868
0.6745	7.45239
0.675	6.74744
0.6755	11.48071
0.676	11.68213
0.6765	14.70337
0.677	15.1062
0.6775	16.41541
0.678	16.41541
0.6785	9.46655
0.679	17.72461
0.6795	10.87646
0.68	11.58142
0.6805	7.25098
0.681	7.45239
0.6815	8.15735
0.682	9.56726
0.6825	12.38708
0.683	10.77576
0.6835	12.08496
0.684	12.89062
0.6845	12.78992
0.685	9.56726
0.6855	10.57434
0.686	9.16443
0.6865	9.16443
0.687	13.49487
0.6875	11.07788
0.688	8.66089
0.6885	4.63257
0.689	8.66089
0.6895	3.7262
0.69	6.94885
0.6905	2.21558
0.691	8.45947
0.6915	4.22974
0.692	4.93469
0.6925	5.84106
0.693	8.45947
0.6935	8.35876
0.694	1.71204
0.6945	5.23682
0.695	6.3446
0.6955	1.91345
0.696	5.74036
0.6965	2.11487
0.697	4.93469
0.6975	7.5531
0.698	7.25098
0.6985	1.2085
0.699	5.84106
0.6995	3.12195
0.7	2.31628
0.7005	-1.00708
0.701	1.10779
0.7015	0.30212
0.702	1.81274
0.7025	3.92761
0.703	2.61841
0.7035	10.27222
0.704	-1.71204
0.7045	5.84106
0.705	8.7616
0.7055	7.35168
0.706	9.97009
0.7065	7.04956
0.707	10.17151
0.7075	8.25806
0.708	10.17151
0.7085	10.87646
0.709	12.5885
0.7095	9.76868
0.71	10.37292
0.7105	16.3147
0.711	13.99841
0.7115	15.91187
0.712	11.17859
0.7125	15.60974
0.713	14.19983
0.7135	14.50195
0.714	15.60974
0.7145	16.81824
0.715	14.19983
0.7155	13.69629
0.716	16.21399
0.7165	9.16443
0.717	7.15027
0.7175	8.66089
0.718	7.25098
0.7185	1.51062
0.719	1.81274
0.7195	2.61841
0.72	2.31628
0.7205	1.00708
0.721	2.71912
0.7215	3.42407
0.722	4.83398
0.7225	6.2439
0.723	5.23682
0.7235	7.35168
0.724	4.73328
0.7245	1.40991
0.725	6.04248
0.7255	7.04956
0.726	-1.81274
0.7265	1.71204
0.727	2.11487
0.7275	2.21558
0.728	5.74036
0.7285	7.95593
0.729	4.83398
0.7295	9.46655
0.73	6.54602
0.7305	9.46655
0.731	10.37292
0.7315	10.0708
0.732	5.84106
0.7325	6.3446
0.733	14.70337
0.7335	11.2793
0.734	9.56726
0.7345	3.8269
0.735	10.17151
0.7355	4.33044
0.736	6.84814
0.7365	5.13611
0.737	3.92761
0.7375	4.83398
0.738	4.33044
0.7385	6.04248
0.739	11.38
0.7395	13.99841
0.74	6.54602
0.7405	10.47363
0.741	9.86938
0.7415	5.63965
0.742	7.95593
0.7425	5.94177
0.743	3.7262
0.7435	3.8269
0.744	3.32336
0.7445	9.66797
0.745	4.22974
0.7455	2.92053
0.746	-1.61133
0.7465	2.5177
0.747	6.04248
0.7475	7.85522
0.748	5.84106
0.7485	4.93469
0.749	7.04956
0.7495	3.7262
0.75	3.7262
0.7505	7.75452
0.751	3.02124
0.7515	3.62549
0.752	1.40991
0.7525	6.2439
0.753	2.81982
0.7535	7.15027
0.754	2.41699
0.7545	8.25806
0.755	4.43115
0.7555	6.04248
0.756	1.40991
0.7565	1.2085
0.757	7.85522
0.7575	5.94177
0.758	8.96301
0.7585	7.15027
0.759	5.63965
0.7595	3.22266
0.76	8.25806
0.7605	9.16443
0.761	8.45947
0.7615	6.54602
0.762	7.5531
0.7625	7.65381
0.763	7.15027
0.7635	9.56726
0.764	1.61133
0.7645	7.45239
0.765	6.2439
0.7655	6.44531
0.766	7.04956
0.7665	-1.00708
0.767	2.31628
0.7675	1.40991
0.768	4.22974
0.7685	0.60425
0.769	1.00708
0.7695	1.81274
0.77	2.5177
0.7705	3.92761
0.771	4.93469
0.7715	3.8269
0.772	9.56726
0.7725	0
0.773	3.7262
0.7735	2.71912
0.774	1.91345
0.7745	1.51062
0.775	6.64673
0.7755	5.33752
0.776	6.64673
0.7765	7.04956
0.777	3.8269
0.7775	3.8269
0.778	3.8269
0.7785	3.8269
0.779	3.8269
0.7795	3.8269
0.78	3.8269
0.7805	3.8269
0.781	3.8269
0.7815	3.8269
0.782	3.8269
0.7825	3.8269
0.783	3.8269
0.7835	3.8269
0.784	3.8269
0.7845	3.8269
0.785	3.8269
0.7855	3.8269
0.786	3.8269
0.7865	3.8269
0.787	3.8269
0.7875	2.21558
0.788	1.2085
0.7885	2.11487
0.789	5.84106
0.7895	5.63965
0.79	7.5531
0.7905	6.2439
0.791	4.63257
0.7915	9.46655
0.792	4.73328
0.7925	6.64673
0.793	2.61841
0.7935	2.5177
0.794	4.02832
0.7945	8.7616
0.795	-3.62549
0.7955	3.7262
0.796	6.14319
0.7965	1.91345
0.797	-3.92761
0.7975	-1.81274
0.798	-4.83398
0.7985	-3.52478
0.799	-1.00708
0.7995	-1.71204
0.8	4.63257
0.8005	-2.81982
0.801	3.52478
0.8015	2.81982
0.802	1.51062
0.8025	6.94885
0.803	0.60425
0.8035	3.8269
0.804	0.10071
0.8045	6.3446
0.805	-0.20142
0.8055	1.3092
0.806	1.2085
0.8065	-0.50354
0.807	0.20142
0.8075	-3.42407
0.808	-5.74036
0.8085	-2.31628
0.809	-0.90637
0.8095	-3.8269
0.81	-2.5177
0.8105	-0.70496
0.811	-1.61133
0.8115	9.76868
0.812	7.95593
0.8125	7.25098
0.813	3.12195
0.8135	3.92761
0.814	4.63257
0.8145	4.12903
0.815	9.36584
0.8155	3.42407
0.816	5.63965
0.8165	10.37292
0.817	8.35876
0.8175	3.42407
0.818	6.74744
0.8185	5.74036
0.819	7.85522
0.8195	7.45239
0.82	4.22974
0.8205	0.90637
0.821	-0.90637
0.8215	2.11487
0.822	-3.8269
0.8225	2.71912
0.823	5.74036
0.8235	1.51062
0.824	3.52478
0.8245	6.04248
0.825	8.45947
0.8255	5.94177
0.826	3.62549
0.8265	6.2439
0.827	5.33752
0.8275	7.95593
0.828	6.2439
0.8285	9.66797
0.829	11.98425
0.8295	12.28638
0.83	8.45947
0.8305	7.85522
0.831	7.75452
0.8315	7.35168
0.832	6.84814
0.8325	3.92761
0.833	7.85522
0.8335	9.66797
0.834	2.01416
0.8345	3.62549
0.835	7.04956
0.8355	4.02832
0.836	3.7262
0.8365	5.74036
0.837	9.16443
0.8375	12.18567
0.838	3.92761
0.8385	-2.92053
0.839	6.74744
0.8395	6.94885
0.84	8.56018
0.8405	6.2439
0.841	3.32336
0.8415	2.92053
0.842	8.66089
0.8425	10.0708
0.843	7.45239
0.8435	8.45947
0.844	13.59558
0.8445	14.40125
0.845	10.0708
0.8455	11.07788
0.846	6.74744
0.8465	7.15027
0.847	10.57434
0.8475	6.74744
0.848	7.04956
0.8485	4.43115
0.849	7.75452
0.8495	3.42407
0.85	-1.71204
0.8505	0.30212
0.851	5.84106
0.8515	5.33752
0.852	6.44531
0.8525	7.04956
0.853	7.65381
0.8535	7.75452
0.854	6.54602
0.8545	8.05664
0.855	8.45947
0.8555	3.52478
0.856	7.5531
0.8565	13.19275
0.857	13.89771
0.8575	12.68921
0.858	8.8623
0.8585	8.45947
0.859	5.94177
0.8595	9.97009
0.86	9.46655
0.8605	13.49487
0.861	12.18567
0.8615	14.90479
0.862	15.50903
0.8625	10.0708
0.863	7.25098
0.8635	9.36584
0.864	11.48071
0.8645	12.78992
0.865	11.68213
0.8655	11.38
0.866	7.85522
0.8665	8.45947
0.867	8.35876
0.8675	8.66089
0.868	5.33752
0.8685	7.95593
0.869	4.53186
0.8695	10.47363
0.87	3.8269
0.8705	5.13611
0.871	-0.60425
0.8715	6.04248
0.872	7.65381
0.8725	9.16443
0.873	12.48779
0.8735	3.42407
0.874	8.25806
0.8745	9.06372
0.875	1.51062
0.8755	1.51062
0.876	9.06372
0.8765	2.41699
0.877	6.44531
0.8775	9.86938
0.878	4.93469
0.8785	8.35876
0.879	9.66797
0.8795	12.78992
0.88	8.05664
0.8805	17.12036
0.881	6.94885
0.8815	12.48779
0.882	11.48071
0.8825	5.13611
0.883	6.84814
0.8835	7.75452
0.884	3.12195
0.8845	2.61841
0.885	6.54602
0.8855	7.65381
0.886	6.2439
0.8865	6.04248
0.887	4.83398
0.8875	5.84106
0.888	1.40991
0.8885	7.25098
0.889	4.43115
0.8895	5.23682
0.89	4.43115
0.8905	7.35168
0.891	0.30212
0.8915	4.73328
0.892	7.85522
0.8925	9.46655
0.893	13.09204
0.8935	4.33044
0.894	6.3446
0.8945	7.35168
0.895	8.7616
0.8955	3.12195
0.896	2.31628
0.8965	1.61133
0.897	5.23682
0.8975	2.5177
0.898	1.00708
0.8985	2.31628
0.899	3.02124
0.8995	3.92761
0.9	-2.01416
0.9005	-1.51062
0.901	2.92053
0.9015	0
0.902	-5.94177
0.9025	-3.62549
0.903	0.30212
0.9035	-3.32336
0.904	4.43115
0.9045	7.5531
0.905	6.84814
0.9055	6.74744
0.906	6.94885
0.9065	6.14319
0.907	10.0708
0.9075	9.76868
0.908	5.43823
0.9085	10.77576
0.909	12.38708
0.9095	12.5885
0.91	13.99841
0.9105	13.89771
0.911	12.89062
0.9115	18.12744
0.912	13.99841
0.9125	8.96301
0.913	13.09204
0.9135	9.26514
0.914	10.57434
0.9145	11.17859
0.915	6.2439
0.9155	8.66089
0.916	10.37292
0.9165	9.26514
0.917	2.81982
0.9175	8.45947
0.918	7.35168
0.9185	9.26514
0.919	4.43115
0.9195	3.22266
0.92	-0.90637
0.9205	1.71204
0.921	4.22974
0.9215	0.40283
0.922	2.92053
0.9225	4.93469
0.923	3.32336
0.9235	2.61841
0.924	10.0708
0.9245	1.81274
0.925	0.30212
0.9255	-0.90637
0.926	3.12195
0.9265	5.13611
0.927	5.94177
0.9275	8.05664
0.928	3.32336
0.9285	7.15027
0.929	9.66797
0.9295	7.25098
0.93	5.43823
0.9305	5.23682
0.931	4.63257
0.9315	4.93469
0.932	8.7616
0.9325	6.04248
0.933	6.44531
0.9335	3.92761
0.934	0.20142
0.9345	6.74744
0.935	-0.60425
0.9355	1.00708
0.936	2.71912
0.9365	1.61133
0.937	-2.71912
0.9375	1.51062
0.938	0
0.9385	1.40991
0.939	1.00708
0.9395	4.63257
0.94	2.71912
0.9405	2.5177
0.941	0
0.9415	3.8269
0.942	5.43823
0.9425	0.90637
0.943	7.5531
0.9435	3.7262
0.944	0
0.9445	3.8269
0.945	1.10779
0.9455	3.8269
0.946	1.61133
0.9465	0.10071
0.947	-1.91345
0.9475	-1.51062
0.948	2.71912
0.9485	4.12903
0.949	5.74036
0.9495	3.52478
0.95	4.53186
0.9505	2.81982
0.951	7.85522
0.9515	11.2793
0.952	16.11328
0.9525	10.97717
0.953	12.38708
0.9535	8.45947
0.954	9.16443
0.9545	11.58142
0.955	7.25098
0.9555	6.3446
0.956	10.37292
0.9565	18.42957
0.957	12.08496
0.9575	10.17151
0.958	9.36584
0.9585	11.58142
0.959	10.47363
0.9595	10.37292
0.96	13.89771
0.9605	17.82532
0.961	17.72461
0.9615	10.27222
0.962	6.04248
0.9625	10.0708
0.963	10.97717
0.9635	13.39417
0.964	9.66797
0.9645	11.48071
0.965	14.19983
0.9655	13.89771
0.966	14.30054
0.9665	16.51611
0.967	13.29346
0.9675	12.18567
0.968	18.63098
0.9685	17.82532
0.969	19.13452
0.9695	12.99133
0.97	16.3147
0.9705	17.22107
0.971	21.3501
0.9715	22.86072
0.972	18.8324
0.9725	21.24939
0.973	15.71045
0.9735	21.04797
0.974	13.69629
0.9745	17.32178
0.975	14.50195
0.9755	18.02673
0.976	17.52319
0.9765	18.73169
0.977	12.18567
0.9775	9.86938
0.978	4.63257
0.9785	-1.61133
0.979	5.84106
0.9795	5.74036
0.98	3.02124
0.9805	4.63257
0.981	8.45947
0.9815	4.33044
0.982	2.81982
0.9825	0.10071
0.983	-6.64673
0.9835	0.30212
0.984	-3.22266
0.9845	2.01416
0.985	-1.71204
0.9855	4.12903
0.986	0.40283
0.9865	-1.71204
0.987	-4.63257
0.9875	-2.71912
0.988	1.71204
0.9885	-3.22266
0.989	-3.32336
0.9895	0.70496
0.99	4.22974
0.9905	-1.2085
0.991	-0.20142
0.9915	-2.31628
0.992	-8.45947
0.9925	-11.2793
0.993	-10.0708
0.9935	-8.8623
0.994	-14.80408
0.9945	-13.19275
0.995	-9.26514
0.9955	-4.33044
0.996	-0.70496
0.9965	-1.00708
0.997	0.40283
0.9975	-5.74036
0.998	0.50354
0.9985	-2.11487
0.999	3.7262
0.9995	0.10071
1	1.2085
1.0005	2.01416
1.001	2.21558
1.0015	11.78284
1.002	13.99841
1.0025	14.60266
1.003	8.8623
1.0035	10.67505
1.004	9.66797
1.0045	9.06372
1.005	8.56018
1.0055	11.68213
1.006	10.0708
1.0065	5.0354
1.007	4.43115
1.0075	5.33752
1.008	2.61841
1.0085	4.73328
1.009	6.54602
1.0095	1.71204
1.01	1.40991
1.0105	1.3092
1.011	-1.40991
1.0115	6.14319
1.012	6.2439
1.0125	5.63965
1.013	4.93469
1.0135	5.84106
1.014	6.74744
1.0145	4.12903
1.015	3.92761
1.0155	3.42407
1.016	9.86938
1.0165	7.75452
1.017	3.92761
1.0175	6.84814
1.018	15.30762
1.0185	8.7616
1.019	7.04956
1.0195	1.10779
1.02	0.80566
1.0205	3.02124
1.021	3.62549
1.0215	3.62549
1.022	6.94885
1.0225	7.65381
1.023	7.95593
1.0235	10.27222
1.024	10.97717
1.0245	11.78284
1.025	13.89771
1.0255	14.09912
1.026	12.08496
1.0265	7.35168
1.027	8.25806
1.0275	9.06372
1.028	9.76868
1.0285	4.02832
1.029	4.33044
1.0295	3.92761
1.03	3.02124
1.0305	-0.60425
1.031	-2.11487
1.0315	2.81982
1.032	1.61133
1.0325	-0.60425
1.033	-4.02832
1.0335	4.12903
1.034	2.61841
1.0345	1.51062
1.035	5.13611
1.0355	0.60425
1.036	1.00708
1.0365	3.52478
1.037	5.33752
1.0375	3.92761
1.038	6.04248
1.0385	11.07788
1.039	10.17151
1.0395	15.50903
1.04	14.90479
1.0405	15.50903
1.041	12.08496
1.0415	14.30054
1.042	6.84814
1.0425	19.94019
1.043	9.86938
1.0435	11.48071
1.044	18.12744
1.0445	11.88354
1.045	10.0708
1.0455	2.61841
1.046	9.16443
1.0465	7.04956
1.047	10.67505
1.0475	7.85522
1.048	6.74744
1.0485	7.35168
1.049	13.39417
1.0495	13.39417
1.05	9.76868
1.0505	3.8269
1.051	9.36584
1.0515	11.78284
1.052	9.56726
1.0525	10.57434
1.053	9.76868
1.0535	7.45239
1.054	8.05664
1.0545	5.0354
1.055	6.54602
1.0555	4.43115
1.056	7.5531
1.0565	0.90637
1.057	4.43115
1.0575	-1.71204
1.058	3.12195
1.0585	-2.71912
1.059	0.10071
1.0595	-5.74036
1.06	0.10071
1.0605	-9.46655
1.061	-3.12195
1.0615	1.10779
1.062	1.00708
1.0625	-2.81982
1.063	0.90637
1.0635	1.71204
1.064	-0.30212
1.0645	2.5177
1.065	2.11487
1.0655	-1.40991
1.066	1.40991
1.0665	6.04248
1.067	5.13611
1.0675	6.44531
1.068	2.92053
1.0685	6.3446
1.069	9.06372
1.0695	6.3446
1.07	8.35876
1.0705	9.86938
1.071	4.02832
1.0715	9.86938
1.072	7.5531
1.0725	4.33044
1.073	7.5531
1.0735	5.74036
1.074	8.05664
1.0745	6.3446
1.075	7.65381
1.0755	1.10779
1.076	4.73328
1.0765	0.10071
1.077	6.14319
1.0775	3.22266
1.078	2.31628
1.0785	-0.40283
1.079	0.80566
1.0795	1.40991
1.08	5.23682
1.0805	3.52478
1.081	3.02124
1.0815	2.11487
1.082	-0.20142
1.0825	1.40991
1.083	6.2439
1.0835	9.86938
1.084	0.80566
1.0845	9.76868
1.085	2.21558
1.0855	6.84814
1.086	7.85522
1.0865	5.63965
1.087	7.45239
1.0875	6.74744
1.088	6.3446
1.0885	9.26514
1.089	10.37292
1.0895	7.25098
1.09	7.85522
1.0905	14.70337
1.091	11.88354
1.0915	9.76868
1.092	11.58142
1.0925	16.3147
1.093	11.78284
1.0935	14.09912
1.094	9.86938
1.0945	8.66089
1.095	9.97009
1.0955	11.88354
1.096	2.92053
1.0965	3.32336
1.097	5.43823
1.0975	4.83398
1.098	3.12195
1.0985	3.22266
1.099	1.91345
1.0995	4.73328
1.1	1.00708
1.1005	0.50354
1.101	0.30212
1.1015	1.40991
1.102	-0.70496
1.1025	0.30212
1.103	3.7262
1.1035	1.3092
1.104	4.43115
1.1045	9.56726
1.105	5.74036
1.1055	7.5531
1.106	5.74036
1.1065	4.43115
1.107	4.93469
1.1075	3.8269
1.108	4.83398
1.1085	7.04956
1.109	9.06372
1.1095	4.93469
1.11	6.3446
1.1105	5.0354
1.111	5.13611
1.1115	3.92761
1.112	7.65381
1.1125	6.04248
1.113	0.20142
1.1135	4.33044
1.114	1.61133
1.1145	1.40991
1.115	-0.40283
1.1155	2.71912
1.116	2.21558
1.1165	6.44531
1.117	4.53186
1.1175	5.94177
1.118	7.45239
1.1185	4.83398
1.119	4.93469
1.1195	0.50354
1.12	0.90637
1.1205	-3.22266
1.121	2.61841
1.1215	1.81274
1.122	2.81982
1.1225	0.10071
1.123	4.02832
1.1235	1.91345
1.124	2.01416
1.1245	2.81982
1.125	-0.90637
1.1255	7.35168
1.126	0.20142
1.1265	1.51062
1.127	12.5885
1.1275	6.44531
1.128	4.12903
1.1285	10.0708
1.129	11.78284
1.1295	12.38708
1.13	19.73877
1.1305	12.68921
1.131	13.29346
1.1315	16.81824
1.132	15.20691
1.1325	13.59558
1.133	7.75452
1.1335	13.89771
1.134	10.0708
1.1345	14.09912
1.135	8.25806
1.1355	5.43823
1.136	3.52478
1.1365	3.02124
1.137	4.43115
1.1375	-2.41699
1.138	2.61841
1.1385	-3.52478
1.139	-0.80566
1.1395	-5.23682
1.14	1.2085
1.1405	2.81982
1.141	1.91345
1.1415	4.93469
1.142	2.71912
1.1425	2.41699
1.143	2.01416
1.1435	8.15735
1.144	3.22266
1.1445	-1.51062
1.145	3.52478
1.1455	3.22266
1.146	2.92053
1.1465	-2.61841
1.147	1.40991
1.1475	1.81274
1.148	5.43823
1.1485	2.92053
1.149	6.14319
1.1495	9.66797
1.15	5.63965
1.1505	5.13611
1.151	1.2085
1.1515	3.62549
1.152	6.84814
1.1525	4.12903
1.153	3.8269
1.1535	1.3092
1.154	2.5177
1.1545	1.00708
1.155	6.04248
1.1555	3.22266
1.156	3.92761
1.1565	2.41699
1.157	1.2085
1.1575	1.81274
1.158	3.42407
1.1585	6.3446
1.159	1.81274
1.1595	1.2085
1.16	0.60425
1.1605	3.02124
1.161	-0.70496
1.1615	5.84106
1.162	3.8269
1.1625	1.91345
1.163	3.7262
1.1635	-1.61133
1.164	4.12903
1.1645	-3.42407
1.165	2.41699
1.1655	0.50354
1.166	0.80566
1.1665	1.61133
1.167	-0.70496
1.1675	-3.52478
1.168	-4.12903
1.1685	-2.61841
1.169	-4.93469
1.1695	-0.70496
1.17	-5.63965
1.1705	-5.84106
1.171	-8.05664
1.1715	-5.43823
1.172	-6.54602
1.1725	-4.53186
1.173	-7.95593
1.1735	-8.66089
1.174	-2.5177
1.1745	0.30212
1.175	1.3092
1.1755	1.10779
1.176	2.01416
1.1765	6.54602
1.177	9.56726
1.1775	8.05664
1.178	10.57434
1.1785	13.19275
1.179	10.97717
1.1795	12.18567
1.18	13.19275
1.1805	12.08496
1.181	9.36584
1.1815	6.84814
1.182	8.8623
1.1825	10.67505
1.183	5.74036
1.1835	4.73328
1.184	5.53894
1.1845	1.91345
1.185	7.04956
1.1855	3.42407
1.186	8.35876
1.1865	6.3446
1.187	2.61841
1.1875	-2.71912
1.188	-2.5177
1.1885	-3.92761
1.189	0.90637
1.1895	-2.5177
1.19	-0.30212
1.1905	-1.40991
1.191	-2.01416
1.1915	-1.2085
1.192	-0.30212
1.1925	-0.50354
1.193	-0.30212
1.1935	0.60425
1.194	3.92761
1.1945	4.33044
1.195	8.56018
1.1955	4.93469
1.196	11.88354
1.1965	17.12036
1.197	14.60266
1.1975	12.48779
1.198	9.46655
1.1985	12.28638
1.199	10.47363
1.1995	6.84814
1.2	5.13611
1.2005	4.73328
1.201	8.15735
1.2015	4.73328
1.202	6.14319
1.2025	7.25098
1.203	9.36584
1.2035	6.04248
1.204	10.67505
1.2045	5.74036
1.205	5.94177
1.2055	2.61841
1.206	3.12195
1.2065	6.54602
1.207	0.90637
1.2075	3.92761
1.208	3.8269
1.2085	5.94177
1.209	1.71204
1.2095	4.93469
1.21	2.01416
1.2105	1.40991
1.211	2.81982
1.2115	0.50354
1.212	4.83398
1.2125	3.32336
1.213	6.14319
1.2135	4.22974
1.214	4.43115
1.2145	7.35168
1.215	1.71204
1.2155	2.71912
1.216	5.33752
1.2165	5.33752
1.217	3.32336
1.2175	4.12903
1.218	8.05664
1.2185	7.45239
1.219	3.32336
1.2195	4.93469
1.22	3.12195
1.2205	7.04956
1.221	9.56726
1.2215	6.84814
1.222	5.23682
1.2225	1.40991
1.223	2.61841
1.2235	1.10779
1.224	12.48779
1.2245	5.33752
1.225	5.74036
1.2255	4.83398
1.226	4.22974
1.2265	5.94177
1.227	0.60425
1.2275	5.74036
1.228	2.11487
1.2285	3.42407
1.229	6.54602
1.2295	8.15735
1.23	11.98425
1.2305	14.70337
1.231	7.65381
1.2315	5.63965
1.232	7.85522
1.2325	6.2439
1.233	9.06372
1.2335	7.45239
1.234	15.60974
1.2345	11.88354
1.235	10.97717
1.2355	11.88354
1.236	5.84106
1.2365	3.32336
1.237	5.23682
1.2375	7.75452
1.238	7.5531
1.2385	0.70496
1.239	3.12195
1.2395	-2.31628
1.24	-0.70496
1.2405	1.51062
1.241	-3.42407
1.2415	1.40991
1.242	-1.81274
1.2425	-3.32336
1.243	-2.31628
1.2435	2.31628
1.244	0.10071
1.2445	7.35168
1.245	5.0354
1.2455	9.26514
1.246	10.27222
1.2465	17.12036
1.247	21.24939
1.2475	20.94727
1.248	19.33594
1.2485	21.14868
1.249	18.63098
1.2495	17.72461
1.25	20.64514
1.2505	18.93311
1.251	17.92603
1.2515	20.1416
1.252	19.83948
1.2525	19.43665
1.253	12.18567
1.2535	8.15735
1.254	7.65381
1.2545	13.09204
1.255	7.95593
1.2555	2.31628
1.256	4.83398
1.2565	7.85522
1.257	7.04956
1.2575	7.15027
1.258	12.89062
1.2585	5.23682
1.259	6.44531
1.2595	2.71912
1.26	4.43115
1.2605	-0.40283
1.261	0.70496
1.2615	2.11487
1.262	3.8269
1.2625	5.43823
1.263	5.0354
1.2635	6.94885
1.264	-1.10779
1.2645	7.5531
1.265	6.3446
1.2655	4.83398
1.266	4.53186
1.2665	4.22974
1.267	6.14319
1.2675	3.7262
1.268	9.46655
1.2685	4.83398
1.269	9.97009
1.2695	2.31628
1.27	6.3446
1.2705	2.92053
1.271	4.02832
1.2715	4.83398
1.272	2.21558
1.2725	5.63965
1.273	0.40283
1.2735	2.11487
1.274	-0.50354
1.2745	4.33044
1.275	2.61841
1.2755	3.22266
1.276	3.22266
1.2765	6.94885
1.277	5.63965
1.2775	-1.51062
1.278	1.51062
1.2785	8.66089
1.279	9.36584
1.2795	5.13611
1.28	4.83398
1.2805	1.81274
1.281	2.31628
1.2815	8.45947
1.282	1.61133
1.2825	4.22974
1.283	6.54602
1.2835	4.43115
1.284	1.81274
1.2845	8.66089
1.285	4.43115
1.2855	6.54602
1.286	5.0354
1.2865	7.04956
1.287	10.27222
1.2875	10.27222
1.288	10.27222
1.2885	11.58142
1.289	13.797
1.2895	12.28638
1.29	12.5885
1.2905	10.57434
1.291	5.84106
1.2915	7.04956
1.292	4.73328
1.2925	5.33752
1.293	2.21558
1.2935	5.94177
1.294	7.85522
1.2945	6.54602
1.295	12.78992
1.2955	8.96301
1.296	9.36584
1.2965	7.75452
1.297	11.07788
1.2975	7.75452
1.298	8.66089
1.2985	9.76868
1.299	10.27222
1.2995	10.57434
1.3	6.2439
1.3005	8.45947
1.301	3.52478
1.3015	5.13611
1.302	2.81982
1.3025	8.8623
1.303	4.22974
1.3035	0.20142
1.304	5.0354
1.3045	3.12195
1.305	4.12903
1.3055	4.53186
1.306	0.90637
1.3065	8.66089
1.307	6.94885
1.3075	8.56018
1.308	5.23682
1.3085	9.36584
1.309	6.94885
1.3095	9.16443
1.31	2.01416
1.3105	7.04956
1.311	5.53894
1.3115	11.58142
1.312	3.8269
1.3125	-0.90637
1.313	2.81982
1.3135	-1.71204
1.314	5.13611
1.3145	-7.45239
1.315	-2.31628
1.3155	-6.2439
1.316	-4.12903
1.3165	-2.11487
1.317	-6.54602
1.3175	-2.5177
1.318	-4.53186
1.3185	-1.00708
1.319	-2.21558
1.3195	-0.40283
1.32	8.25806
1.3205	5.13611
1.321	13.99841
1.3215	9.76868
1.322	18.32886
1.3225	18.12744
1.323	17.82532
1.3235	25.177
1.324	19.73877
1.3245	17.52319
1.325	16.81824
1.3255	21.04797
1.326	21.75293
1.3265	17.12036
1.327	19.73877
1.3275	19.43665
1.328	13.797
1.3285	12.89062
1.329	13.89771
1.3295	11.98425
1.33	10.87646
1.3305	5.94177
1.331	4.63257
1.3315	1.3092
1.332	-1.10779
1.3325	-1.00708
1.333	-3.62549
1.3335	5.43823
1.334	6.44531
1.3345	7.65381
1.335	-0.50354
1.3355	7.25098
1.336	5.74036
1.3365	3.92761
1.337	6.2439
1.3375	10.67505
1.338	9.76868
1.3385	5.74036
1.339	8.05664
1.3395	1.61133
1.34	2.5177
1.3405	3.32336
1.341	4.53186
1.3415	-2.81982
1.342	-4.53186
1.3425	-1.91345
1.343	0.60425
1.3435	-0.50354
1.344	-7.5531
1.3445	-4.43115
1.345	-5.13611
1.3455	-3.12195
1.346	0.60425
1.3465	0
1.347	4.33044
1.3475	0.40283
1.348	0.40283
1.3485	3.52478
1.349	5.53894
1.3495	9.26514
1.35	9.06372
1.3505	11.68213
1.351	2.92053
1.3515	11.78284
1.352	16.51611
1.3525	20.34302
1.353	16.51611
1.3535	18.53027
1.354	18.73169
1.3545	16.61682
1.355	14.80408
1.3555	14.90479
1.356	8.96301
1.3565	9.36584
1.357	1.10779
1.3575	-0.50354
1.358	0.20142
1.3585	1.3092
1.359	0.60425
1.3595	3.12195
1.36	1.2085
1.3605	-0.40283
1.361	-2.31628
1.3615	3.92761
1.362	5.53894
1.3625	10.47363
1.363	4.63257
1.3635	6.84814
1.364	9.66797
1.3645	2.01416
1.365	5.63965
1.3655	1.51062
1.366	3.8269
1.3665	5.33752
1.367	6.3446
1.3675	-0.60425
1.368	2.31628
1.3685	4.73328
1.369	2.71912
1.3695	-2.31628
1.37	0.50354
1.3705	5.0354
1.371	0.10071
1.3715	-1.3092
1.372	0.80566
1.3725	5.84106
1.373	2.01416
1.3735	2.01416
1.374	4.12903
1.3745	3.32336
1.375	2.81982
1.3755	1.61133
1.376	4.53186
1.3765	6.04248
1.377	0.50354
1.3775	4.33044
1.378	6.14319
1.3785	10.47363
1.379	5.63965
1.3795	5.43823
1.38	0.60425
1.3805	1.71204
1.381	4.02832
1.3815	1.00708
1.382	3.02124
1.3825	8.66089
1.383	8.96301
1.3835	4.02832
1.384	4.02832
1.3845	10.47363
1.385	6.04248
1.3855	7.95593
1.386	10.37292
1.3865	11.48071
1.387	7.04956
1.3875	12.28638
1.388	5.94177
1.3885	6.2439
1.389	4.63257
1.3895	7.15027
1.39	9.97009
1.3905	6.44531
1.391	6.04248
1.3915	3.7262
1.392	7.35168
1.3925	2.5177
1.393	5.53894
1.3935	-1.10779
1.394	2.61841
1.3945	-1.00708
1.395	-0.80566
1.3955	-3.7262
1.396	-3.92761
1.3965	-6.04248
1.397	-9.76868
1.3975	-5.74036
1.398	-13.89771
1.3985	-14.90479
1.399	-11.58142
1.3995	-12.48779
1.4	-8.45947
1.4005	-6.94885
1.401	-4.33044
1.4015	2.21558
1.402	3.8269
1.4025	10.17151
1.403	9.97009
1.4035	17.01965
1.404	13.69629
1.4045	15.40833
1.405	12.68921
1.4055	16.11328
1.406	12.89062
1.4065	14.30054
1.407	19.63806
1.4075	14.90479
1.408	14.90479
1.4085	6.3446
1.409	12.08496
1.4095	12.68921
1.41	11.78284
1.4105	9.76868
1.411	11.2793
1.4115	6.74744
1.412	5.53894
1.4125	10.87646
1.413	7.75452
1.4135	9.76868
1.414	3.32336
1.4145	3.8269
1.415	5.23682
1.4155	5.63965
1.416	3.7262
1.4165	0.30212
1.417	6.3446
1.4175	-8.45947
1.418	-3.92761
1.4185	-5.23682
1.419	-3.32336
1.4195	4.53186
1.42	-0.50354
1.4205	-1.81274
1.421	1.3092
1.4215	1.71204
1.422	1.00708
1.4225	3.42407
1.423	3.92761
1.4235	4.22974
1.424	5.23682
1.4245	5.0354
1.425	10.77576
1.4255	10.77576
1.426	8.56018
1.4265	5.74036
1.427	10.77576
1.4275	9.76868
1.428	6.84814
1.4285	5.13611
1.429	2.21558
1.4295	8.45947
1.43	9.86938
1.4305	8.66089
1.431	8.25806
1.4315	9.06372
1.432	9.16443
1.4325	10.37292
1.433	7.85522
1.4335	2.92053
1.434	5.0354
1.4345	1.10779
1.435	3.02124
1.4355	0.70496
1.436	3.8269
1.4365	3.02124
1.437	-4.53186
1.4375	-1.40991
1.438	-0.60425
1.4385	-0.30212
1.439	-0.20142
1.4395	1.00708
1.44	1.61133
1.4405	2.31628
1.441	0.50354
1.4415	2.5177
1.442	7.65381
1.4425	4.02832
1.443	4.53186
1.4435	9.46655
1.444	5.94177
1.4445	9.16443
1.445	6.84814
1.4455	5.43823
1.446	7.65381
1.4465	9.56726
1.447	4.22974
1.4475	9.06372
1.448	6.84814
1.4485	7.85522
1.449	6.2439
1.4495	4.12903
1.45	7.5531
1.4505	3.92761
1.451	10.67505
1.4515	5.33752
1.452	6.2439
1.4525	7.35168
1.453	7.15027
1.4535	4.33044
1.454	6.54602
1.4545	8.7616
1.455	2.31628
1.4555	6.04248
1.456	1.10779
1.4565	2.5177
1.457	0
1.4575	3.62549
1.458	5.63965
1.4585	5.84106
1.459	5.53894
1.4595	2.81982
1.46	0.90637
1.4605	4.22974
1.461	-1.71204
1.4615	-1.71204
1.462	-0.40283
1.4625	-4.33044
1.463	-3.62549
1.4635	-14.50195
1.464	-12.28638
1.4645	-9.56726
1.465	-11.58142
1.4655	-6.94885
1.466	-12.28638
1.4665	-10.57434
1.467	-4.53186
1.4675	-4.22974
1.468	-2.21558
1.4685	6.74744
1.469	10.87646
1.4695	17.22107
1.47	20.04089
1.4705	19.73877
1.471	23.26355
1.4715	19.73877
1.472	21.95435
1.4725	14.90479
1.473	17.32178
1.4735	15.30762
1.474	25.07629
1.4745	18.42957
1.475	18.63098
1.4755	17.92603
1.476	17.22107
1.4765	17.52319
1.477	9.06372
1.4775	13.69629
1.478	6.3446
1.4785	9.36584
1.479	0.10071
1.4795	0.40283
1.48	2.81982
1.4805	2.81982
1.481	4.12903
1.4815	3.32336
1.482	7.35168
1.4825	2.31628
1.483	-1.91345
1.4835	3.52478
1.484	-2.81982
1.4845	-0.10071
1.485	8.66089
1.4855	5.74036
1.486	10.87646
1.4865	11.07788
1.487	6.74744
1.4875	11.68213
1.488	14.19983
1.4885	13.19275
1.489	12.28638
1.4895	3.7262
1.49	5.74036
1.4905	2.41699
1.491	3.32336
1.4915	5.0354
1.492	14.50195
1.4925	-0.10071
1.493	-18.32886
1.4935	-28.70178
1.494	-46.82922
1.4945	-46.62781
1.495	-48.33984
1.4955	-38.87329
1.496	-40.48462
1.4965	-26.58691
1.497	-15.1062
1.4975	2.21558
1.498	11.58142
1.4985	23.06213
1.499	35.85205
1.4995	48.23914
1.5	58.71277
1.5005	64.65454
1.501	60.82764
1.5015	66.76941
1.502	65.15808
1.5025	65.25879
1.503	56.79932
1.5035	55.79224
1.504	41.29028
1.5045	42.29736
1.505	38.47046
1.5055	28.50037
1.506	24.47205
1.5065	17.72461
1.507	18.63098
1.5075	13.09204
1.508	7.75452
1.5085	8.66089
1.509	1.10779
1.5095	-1.00708
1.51	-8.96301
1.5105	-9.66797
1.511	-10.57434
1.5115	-4.73328
1.512	-7.15027
1.5125	-2.31628
1.513	-7.65381
1.5135	-4.63257
1.514	1.91345
1.5145	3.7262
1.515	5.33752
1.5155	8.66089
1.516	4.93469
1.5165	-0.30212
1.517	2.5177
1.5175	2.81982
1.518	3.42407
1.5185	1.91345
1.519	6.44531
1.5195	4.53186
1.52	6.04248
1.5205	4.83398
1.521	5.33752
1.5215	5.33752
1.522	2.21558
1.5225	5.13611
1.523	1.81274
1.5235	-2.92053
1.524	-1.71204
1.5245	-1.00708
1.525	4.73328
1.5255	3.22266
1.526	-0.70496
1.5265	-1.51062
1.527	-0.40283
1.5275	2.61841
1.528	-1.91345
1.5285	3.8269
1.529	2.92053
1.5295	3.62549
1.53	3.02124
1.5305	3.12195
1.531	6.3446
1.5315	-1.51062
1.532	5.43823
1.5325	-0.10071
1.533	-1.10779
1.5335	-5.33752
1.534	-1.81274
1.5345	-2.61841
1.535	-2.01416
1.5355	-7.65381
1.536	0.10071
1.5365	-4.22974
1.537	-1.40991
1.5375	3.02124
1.538	1.71204
1.5385	2.31628
1.539	6.44531
1.5395	2.31628
1.54	3.92761
1.5405	2.61841
1.541	-0.90637
1.5415	4.83398
1.542	4.12903
1.5425	5.84106
1.543	7.25098
1.5435	16.41541
1.544	9.97009
1.5445	14.19983
1.545	11.58142
1.5455	10.57434
1.546	10.47363
1.5465	17.22107
1.547	17.6239
1.5475	13.59558
1.548	13.69629
1.5485	15.71045
1.549	15.00549
1.5495	18.32886
1.55	15.91187
1.5505	6.94885
1.551	7.15027
1.5515	0.90637
1.552	8.66089
1.5525	2.71912
1.553	1.40991
1.5535	1.51062
1.554	-3.52478
1.5545	-1.40991
1.555	1.91345
1.5555	3.12195
1.556	-0.10071
1.5565	4.93469
1.557	3.62549
1.5575	3.52478
1.558	-4.12903
1.5585	1.3092
1.559	5.63965
1.5595	1.3092
1.56	5.13611
1.5605	0.90637
1.561	2.5177
1.5615	6.2439
1.562	7.25098
1.5625	5.43823
1.563	1.61133
1.5635	5.94177
1.564	17.22107
1.5645	12.28638
1.565	11.88354
1.5655	13.19275
1.566	6.74744
1.5665	9.06372
1.567	9.16443
1.5675	7.65381
1.568	4.73328
1.5685	3.8269
1.569	1.10779
1.5695	0.10071
1.57	3.52478
1.5705	6.2439
1.571	4.63257
1.5715	9.36584
1.572	5.63965
1.5725	2.41699
1.573	-8.96301
1.5735	-9.76868
1.574	-10.0708
1.5745	-9.46655
1.575	-7.04956
1.5755	-4.53186
1.576	-7.15027
1.5765	-7.95593
1.577	2.92053
1.5775	-5.23682
1.578	1.00708
1.5785	10.27222
1.579	8.8623
1.5795	16.61682
1.58	17.82532
1.5805	17.6239
1.581	14.19983
1.5815	20.54443
1.582	19.94019
1.5825	18.8324
1.583	12.38708
1.5835	10.37292
1.584	15.00549
1.5845	15.81116
1.585	12.89062
1.5855	9.46655
1.586	11.17859
1.5865	7.5531
1.587	8.05664
1.5875	-0.60425
1.588	9.46655
1.5885	9.16443
1.589	8.8623
1.5895	3.92761
1.59	4.33044
1.5905	-0.90637
1.591	-2.31628
1.5915	-1.3092
1.592	-4.73328
1.5925	-6.3446
1.593	-3.52478
1.5935	-1.81274
1.594	0.60425
1.5945	1.71204
1.595	0.90637
1.5955	-5.63965
1.596	-5.84106
1.5965	-0.90637
1.597	-0.90637
1.5975	-1.10779
1.598	3.52478
1.5985	0.20142
1.599	1.81274
1.5995	6.44531
1.6	8.15735
1.6005	4.22974
1.601	0.60425
1.6015	1.10779
1.602	3.7262
1.6025	3.7262
1.603	10.0708
1.6035	12.68921
1.604	10.47363
1.6045	14.30054
1.605	15.1062
1.6055	14.09912
1.606	15.00549
1.6065	13.69629
1.607	10.27222
1.6075	15.40833
1.608	10.47363
1.6085	8.8623
1.609	10.0708
1.6095	4.53186
1.61	2.01416
1.6105	3.7262
1.611	-3.12195
1.6115	0.20142
1.612	-2.81982
1.6125	-4.63257
1.613	0.50354
1.6135	-7.45239
1.614	0
1.6145	5.84106
1.615	3.8269
1.6155	11.68213
1.616	7.85522
1.6165	8.8623
1.617	8.56018
1.6175	12.08496
1.618	17.12036
1.6185	15.1062
1.619	18.12744
1.6195	15.91187
1.62	13.89771
1.6205	14.09912
1.621	9.56726
1.6215	8.15735
1.622	6.3446
1.6225	11.68213
1.623	7.25098
1.6235	3.52478
1.624	1.71204
1.6245	-0.40283
1.625	2.41699
1.6255	-2.11487
1.626	-2.71912
1.6265	-0.50354
1.627	2.5177
1.6275	1.3092
1.628	1.3092
1.6285	0.50354
1.629	0.80566
1.6295	5.0354
1.63	2.92053
1.6305	5.74036
1.631	4.93469
1.6315	9.97009
1.632	9.66797
1.6325	11.48071
1.633	22.25647
1.6335	19.63806
1.634	17.72461
1.6345	18.93311
1.635	18.93311
1.6355	11.2793
1.636	16.71753
1.6365	7.85522
1.637	6.2439
1.6375	7.25098
1.638	11.68213
1.6385	1.91345
1.639	10.67505
1.6395	9.46655
1.64	5.74036
1.6405	7.15027
1.641	6.2439
1.6415	6.64673
1.642	5.13611
1.6425	6.44531
1.643	6.74744
1.6435	0.80566
1.644	10.37292
1.6445	7.85522
1.645	2.71912
1.6455	4.53186
1.646	5.23682
1.6465	5.43823
1.647	7.85522
1.6475	7.75452
1.648	0.40283
1.6485	-1.2085
1.649	0
1.6495	-4.43115
1.65	-2.11487
1.6505	2.81982
1.651	-3.12195
1.6515	-2.5177
1.652	-2.61841
1.6525	-2.5177
1.653	-1.81274
1.6535	-0.30212
1.654	5.63965
1.6545	-2.41699
1.655	4.93469
1.6555	3.7262
1.656	5.84106
1.6565	3.52478
1.657	3.52478
1.6575	0.60425
1.658	2.5177
1.6585	3.22266
1.659	7.15027
1.6595	3.32336
1.66	6.3446
1.6605	6.94885
1.661	6.04248
1.6615	6.84814
1.662	4.53186
1.6625	10.97717
1.663	4.22974
1.6635	1.91345
1.664	1.51062
1.6645	-2.5177
1.665	-1.00708
1.6655	1.2085
1.666	-1.40991
1.6665	5.63965
1.667	5.84106
1.6675	4.53186
1.668	13.09204
1.6685	14.40125
1.669	12.78992
1.6695	13.49487
1.67	8.8623
1.6705	16.41541
1.671	13.99841
1.6715	9.97009
1.672	6.84814
1.6725	3.22266
1.673	4.02832
1.6735	4.22974
1.674	7.95593
1.6745	1.51062
1.675	5.0354
1.6755	1.51062
1.676	7.04956
1.6765	5.74036
1.677	11.58142
1.6775	9.16443
1.678	6.04248
1.6785	12.5885
1.679	1.2085
1.6795	7.45239
1.68	5.63965
1.6805	7.15027
1.681	4.02832
1.6815	5.84106
1.682	9.16443
1.6825	5.23682
1.683	2.41699
1.6835	-1.71204
1.684	10.47363
1.6845	9.16443
1.685	8.05664
1.6855	8.96301
1.686	3.12195
1.6865	6.84814
1.687	7.25098
1.6875	6.94885
1.688	2.81982
1.6885	-4.73328
1.689	1.61133
1.6895	0.80566
1.69	5.0354
1.6905	6.2439
1.691	2.31628
1.6915	4.63257
1.692	-5.53894
1.6925	-12.78992
1.693	-16.91895
1.6935	-12.08496
1.694	-11.07788
1.6945	-13.59558
1.695	-12.08496
1.6955	-11.88354
1.696	-3.52478
1.6965	-2.31628
1.697	2.71912
1.6975	8.7616
1.698	7.15027
1.6985	16.51611
1.699	17.22107
1.6995	18.73169
1.7	22.05505
1.7005	18.22815
1.701	16.41541
1.7015	13.99841
1.702	19.43665
1.7025	12.89062
1.703	12.5885
1.7035	6.04248
1.704	8.45947
1.7045	6.3446
1.705	7.15027
1.7055	6.64673
1.706	3.8269
1.7065	-2.41699
1.707	-6.94885
1.7075	-1.3092
1.708	0.10071
1.7085	2.92053
1.709	-1.61133
1.7095	-2.5177
1.71	-0.70496
1.7105	-3.12195
1.711	1.51062
1.7115	0.60425
1.712	-1.81274
1.7125	5.33752
1.713	1.81274
1.7135	0.70496
1.714	7.45239
1.7145	5.53894
1.715	1.61133
1.7155	9.36584
1.716	8.25806
1.7165	7.95593
1.717	6.94885
1.7175	6.3446
1.718	1.3092
1.7185	4.12903
1.719	-0.50354
1.7195	4.02832
1.72	8.45947
1.7205	3.92761
1.721	8.96301
1.7215	7.25098
1.722	3.52478
1.7225	-0.50354
1.723	-0.90637
1.7235	6.14319
1.724	1.3092
1.7245	0.90637
1.725	-0.30212
1.7255	4.63257
1.726	6.74744
1.7265	6.94885
1.727	5.63965
1.7275	2.11487
1.728	0.40283
1.7285	2.11487
1.729	10.47363
1.7295	11.17859
1.73	5.84106
1.7305	6.3446
1.731	11.17859
1.7315	10.47363
1.732	16.11328
1.7325	21.04797
1.733	15.60974
1.7335	15.81116
1.734	18.73169
1.7345	19.63806
1.735	16.61682
1.7355	17.12036
1.736	15.00549
1.7365	17.6239
1.737	15.40833
1.7375	8.05664
1.738	11.78284
1.7385	5.74036
1.739	1.91345
1.7395	-0.20142
1.74	4.12903
1.7405	-1.00708
1.741	-2.81982
1.7415	-5.43823
1.742	-6.14319
1.7425	-3.8269
1.743	-3.92761
1.7435	-1.3092
1.744	-3.92761
1.7445	-6.74744
1.745	-6.04248
1.7455	-0.90637
1.746	-1.51062
1.7465	1.71204
1.747	5.74036
1.7475	4.63257
1.748	10.27222
1.7485	6.64673
1.749	-2.41699
1.7495	-13.59558
1.75	-14.09912
1.7505	-12.28638
1.751	-16.3147
1.7515	-12.78992
1.752	-14.40125
1.7525	-5.53894
1.753	-9.56726
1.7535	-5.94177
1.754	0.30212
1.7545	12.5885
1.755	13.29346
1.7555	19.03381
1.756	19.94019
1.7565	19.94019
1.757	21.95435
1.7575	26.98975
1.758	25.07629
1.7585	20.24231
1.759	15.60974
1.7595	15.30762
1.76	14.70337
1.7605	20.04089
1.761	11.58142
1.7615	10.27222
1.762	8.15735
1.7625	9.36584
1.763	12.78992
1.7635	9.76868
1.764	9.66797
1.7645	13.29346
1.765	5.84106
1.7655	1.10779
1.766	10.0708
1.7665	5.63965
1.767	-2.01416
1.7675	0.40283
1.768	-2.01416
1.7685	1.10779
1.769	0.20142
1.7695	6.64673
1.77	7.75452
1.7705	10.47363
1.771	7.75452
1.7715	11.68213
1.772	16.81824
1.7725	7.95593
1.773	10.87646
1.7735	5.74036
1.774	9.86938
1.7745	10.47363
1.775	9.76868
1.7755	11.88354
1.776	6.54602
1.7765	6.44531
1.777	2.21558
1.7775	12.78992
1.778	6.3446
1.7785	5.84106
1.779	1.91345
1.7795	0.30212
1.78	2.81982
1.7805	5.23682
1.781	4.63257
1.7815	1.3092
1.782	4.73328
1.7825	3.02124
1.783	4.12903
1.7835	9.06372
1.784	3.12195
1.7845	6.3446
1.785	-1.91345
1.7855	-10.77576
1.786	-11.17859
1.7865	-9.26514
1.787	-9.97009
1.7875	-2.92053
1.788	-5.74036
1.7885	-7.25098
1.789	-2.21558
1.7895	1.81274
1.79	10.47363
1.7905	9.46655
1.791	18.53027
1.7915	21.75293
1.792	22.35718
1.7925	30.2124
1.793	30.41382
1.7935	32.32727
1.794	31.72302
1.7945	29.40674
1.795	29.00391
1.7955	22.35718
1.796	20.34302
1.7965	9.76868
1.797	10.57434
1.7975	12.68921
1.798	17.6239
1.7985	6.84814
1.799	10.17151
1.7995	9.56726
1.8	9.66797
1.8005	7.95593
1.801	1.40991
1.8015	7.85522
1.802	6.14319
1.8025	2.5177
1.803	4.63257
1.8035	0.30212
1.804	-5.43823
1.8045	-1.51062
1.805	-3.52478
1.8055	-5.33752
1.806	-3.62549
1.8065	-4.53186
1.807	-0.80566
1.8075	-2.71912
1.808	-2.61841
1.8085	-0.90637
1.809	-3.22266
1.8095	0.90637
1.81	-6.44531
1.8105	-6.44531
1.811	-10.17151
1.8115	-6.2439
1.812	-10.57434
1.8125	-4.02832
1.813	-4.02832
1.8135	-8.7616
1.814	-7.25098
1.8145	-7.45239
1.815	-4.93469
1.8155	-1.40991
1.816	2.41699
1.8165	10.67505
1.817	8.35876
1.8175	14.50195
1.818	15.71045
1.8185	17.22107
1.819	20.64514
1.8195	21.55151
1.82	20.24231
1.8205	12.89062
1.821	9.56726
1.8215	7.95593
1.822	7.95593
1.8225	5.33752
1.823	2.92053
1.8235	7.25098
1.824	0
1.8245	0.70496
1.825	-1.3092
1.8255	2.11487
1.826	1.10779
1.8265	2.11487
1.827	7.04956
1.8275	2.92053
1.828	1.81274
1.8285	-6.64673
1.829	-11.17859
1.8295	-7.15027
1.83	-11.58142
1.8305	-12.5885
1.831	-10.0708
1.8315	-14.09912
1.832	-8.25806
1.8325	3.02124
1.833	3.32336
1.8335	-2.01416
1.834	2.71912
1.8345	2.71912
1.835	7.04956
1.8355	5.33752
1.836	14.60266
1.8365	11.17859
1.837	14.50195
1.8375	17.92603
1.838	14.80408
1.8385	12.68921
1.839	10.87646
1.8395	11.98425
1.84	8.56018
1.8405	7.04956
1.841	11.38
1.8415	10.47363
1.842	9.36584
1.8425	9.36584
1.843	13.29346
1.8435	14.40125
1.844	15.60974
1.8445	17.42249
1.845	14.80408
1.8455	11.2793
1.846	9.16443
1.8465	8.35876
1.847	3.02124
1.8475	6.04248
1.848	2.11487
1.8485	4.83398
1.849	5.13611
1.8495	8.8623
1.85	11.98425
1.8505	11.38
1.851	10.37292
1.8515	8.25806
1.852	6.04248
1.8525	6.14319
1.853	2.41699
1.8535	6.94885
1.854	1.81274
1.8545	3.12195
1.855	-0.10071
1.8555	5.23682
1.856	3.42407
1.8565	3.52478
1.857	5.43823
1.8575	4.43115
1.858	1.71204
1.8585	5.94177
1.859	7.04956
1.8595	10.47363
1.86	2.92053
1.8605	2.71912
1.861	9.06372
1.8615	7.5531
1.862	9.26514
1.8625	6.04248
1.863	0
1.8635	4.53186
1.864	0.60425
1.8645	1.10779
1.865	0.40283
1.8655	-1.10779
1.866	1.91345
1.8665	7.15027
1.867	4.53186
1.8675	2.21558
1.868	9.97009
1.8685	5.84106
1.869	9.36584
1.8695	5.63965
1.87	2.71912
1.8705	7.5531
1.871	3.12195
1.8715	4.33044
1.872	3.32336
1.8725	3.7262
1.873	1.40991
1.8735	5.94177
1.874	5.84106
1.8745	-2.01416
1.875	0.40283
1.8755	4.22974
1.876	6.74744
1.8765	6.84814
1.877	9.76868
1.8775	7.15027
1.878	9.46655
1.8785	2.11487
1.879	7.95593
1.8795	10.67505
1.88	12.68921
1.8805	9.06372
1.881	15.00549
1.8815	11.2793
1.882	10.87646
1.8825	11.38
1.883	6.84814
1.8835	2.61841
1.884	4.22974
1.8845	7.85522
1.885	13.797
1.8855	12.99133
1.886	3.12195
1.8865	8.56018
1.887	9.16443
1.8875	4.12903
1.888	0.30212
1.8885	-9.66797
1.889	-18.32886
1.8895	-19.23523
1.89	-20.64514
1.8905	-26.58691
1.891	-26.98975
1.8915	-24.57275
1.892	-28.70178
1.8925	-26.58691
1.893	-17.42249
1.8935	-4.93469
1.894	1.71204
1.8945	10.77576
1.895	16.01257
1.8955	19.53735
1.896	26.3855
1.8965	31.52161
1.897	42.29736
1.8975	41.69312
1.898	45.3186
1.8985	43.10303
1.899	43.10303
1.8995	41.4917
1.9	38.67188
1.9005	37.06055
1.901	26.88904
1.9015	26.58691
1.902	24.47205
1.9025	20.04089
1.903	18.02673
1.9035	10.37292
1.904	6.74744
1.9045	-0.80566
1.905	-0.70496
1.9055	-7.15027
1.906	-0.80566
1.9065	-7.45239
1.907	-12.99133
1.9075	-10.37292
1.908	-5.33752
1.9085	-9.06372
1.909	0
1.9095	-4.02832
1.91	-4.73328
1.9105	-2.11487
1.911	-1.2085
1.9115	-0.30212
1.912	0.80566
1.9125	-1.71204
1.913	1.91345
1.9135	0
1.914	-1.3092
1.9145	0.50354
1.915	5.13611
1.9155	8.25806
1.916	8.96301
1.9165	8.45947
1.917	12.48779
1.9175	11.17859
1.918	10.67505
1.9185	8.7616
1.919	6.2439
1.9195	3.22266
1.92	7.15027
1.9205	9.86938
1.921	10.0708
1.9215	4.53186
1.922	2.81982
1.9225	6.54602
1.923	4.93469
1.9235	6.14319
1.924	9.16443
1.9245	7.5531
1.925	3.42407
1.9255	6.54602
1.926	2.92053
1.9265	5.84106
1.927	2.92053
1.9275	4.22974
1.928	10.47363
1.9285	8.25806
1.929	6.04248
1.9295	7.65381
1.93	0.80566
1.9305	9.56726
1.931	3.42407
1.9315	6.3446
1.932	-1.3092
1.9325	8.15735
1.933	7.04956
1.9335	2.01416
1.934	4.53186
1.9345	4.73328
1.935	6.04248
1.9355	2.71912
1.936	7.5531
1.9365	8.05664
1.937	8.25806
1.9375	12.08496
1.938	5.33752
1.9385	2.92053
1.939	-5.84106
1.9395	-6.04248
1.94	-5.84106
1.9405	-5.43823
1.941	-6.94885
1.9415	3.12195
1.942	6.04248
1.9425	4.83398
1.943	10.47363
1.9435	12.78992
1.944	16.61682
1.9445	18.32886
1.945	14.90479
1.9455	17.92603
1.946	17.01965
1.9465	20.44373
1.947	16.81824
1.9475	20.1416
1.948	15.30762
1.9485	15.81116
1.949	10.97717
1.9495	6.74744
1.95	9.36584
1.9505	6.94885
1.951	3.52478
1.9515	3.62549
1.952	4.33044
1.9525	2.92053
1.953	-0.60425
1.9535	-0.10071
1.954	-5.63965
1.9545	-3.22266
1.955	-5.23682
1.9555	-6.94885
1.956	0.30212
1.9565	-0.60425
1.957	1.61133
1.9575	2.71912
1.958	1.2085
1.9585	-0.20142
1.959	2.01416
1.9595	4.63257
1.96	1.71204
1.9605	5.43823
1.961	4.22974
1.9615	11.48071
1.962	13.39417
1.9625	10.87646
1.963	8.8623
1.9635	10.57434
1.964	8.25806
1.9645	9.56726
1.965	11.17859
1.9655	12.08496
1.966	0.40283
1.9665	-6.04248
1.967	-3.7262
1.9675	2.81982
1.968	13.59558
1.9685	15.81116
1.969	18.53027
1.9695	25.78125
1.97	26.18408
1.9705	30.81665
1.971	31.72302
1.9715	35.34851
1.972	31.52161
1.9725	26.08337
1.973	19.23523
1.9735	5.43823
1.974	1.81274
1.9745	-1.71204
1.975	-6.44531
1.9755	-12.99133
1.976	-9.66797
1.9765	-4.83398
1.977	-2.71912
1.9775	-0.30212
1.978	0.50354
1.9785	1.81274
1.979	2.31628
1.9795	6.94885
1.98	7.5531
1.9805	15.30762
1.981	17.82532
1.9815	11.78284
1.982	7.65381
1.9825	-1.2085
1.983	2.01416
1.9835	-0.30212
1.984	5.74036
1.9845	8.96301
1.985	5.74036
1.9855	4.22974
1.986	2.81982
1.9865	0.40283
1.987	-1.71204
1.9875	1.2085
1.988	-2.01416
1.9885	0.80566
1.989	1.51062
1.9895	-1.3092
1.99	-1.71204
1.9905	-7.04956
1.991	-10.17151
1.9915	-8.25806
1.992	-9.06372
1.9925	-12.89062
1.993	-7.04956
1.9935	-10.97717
1.994	-8.45947
1.9945	-4.93469
1.995	-4.22974
1.9955	-6.64673
1.996	-5.33752
1.9965	-5.43823
1.997	-10.67505
1.9975	-11.17859
1.998	-7.15027
1.9985	-2.41699
1.999	-3.12195
1.9995	0.50354
2	-1.91345
2.0005	2.81982
2.001	2.71912
2.0015	6.94885
2.002	2.92053
2.0025	10.57434
2.003	20.44373
2.0035	21.55151
2.004	29.10461
2.0045	17.32178
2.005	12.28638
2.0055	16.81824
2.006	10.47363
2.0065	15.20691
2.007	15.30762
2.0075	13.59558
2.008	15.00549
2.0085	14.50195
2.009	7.04956
2.0095	5.53894
2.01	16.3147
2.0105	14.19983
2.011	20.34302
2.0115	21.55151
2.012	21.45081
2.0125	21.04797
2.013	21.14868
2.0135	23.16284
2.014	28.50037
2.0145	27.49329
2.015	22.45789
2.0155	23.06213
2.016	19.33594
2.0165	23.06213
2.017	19.63806
2.0175	22.6593
2.018	13.29346
2.0185	14.19983
2.019	12.5885
2.0195	13.19275
2.02	9.46655
2.0205	6.64673
2.021	3.8269
2.0215	1.91345
2.022	4.02832
2.0225	-1.3092
2.023	3.02124
2.0235	-3.02124
2.024	-3.7262
2.0245	1.61133
2.025	1.3092
2.0255	0.20142
2.026	3.22266
2.0265	0.90637
2.027	2.5177
2.0275	-0.70496
2.028	3.7262
2.0285	4.83398
2.029	5.23682
2.0295	1.10779
2.03	1.61133
2.0305	5.74036
2.031	6.44531
2.0315	-0.80566
2.032	5.94177
2.0325	4.83398
2.033	8.35876
2.0335	3.12195
2.034	10.77576
2.0345	6.74744
2.035	5.53894
2.0355	10.37292
2.036	14.19983
2.0365	18.12744
2.037	10.17151
2.0375	18.42957
2.038	16.81824
2.0385	13.39417
2.039	2.71912
2.0395	-15.20691
2.04	-23.06213
2.0405	-32.02515
2.041	-35.04639
2.0415	-43.30444
2.042	-42.29736
2.0425	-33.63647
2.043	-35.34851
2.0435	-26.68762
2.044	-5.13611
2.0445	5.53894
2.045	21.14868
2.0455	31.32019
2.046	43.50586
2.0465	51.46179
2.047	54.18091
2.0475	58.00781
2.048	45.01648
2.0485	47.23206
2.049	40.98816
2.0495	33.33435
2.05	28.9032
2.0505	18.32886
2.051	20.94727
2.0515	16.51611
2.052	16.51611
2.0525	17.42249
2.053	12.48779
2.0535	-2.31628
2.054	-4.73328
2.0545	-4.43115
2.055	-4.53186
2.0555	-3.42407
2.056	-13.39417
2.0565	-14.60266
2.057	-17.52319
2.0575	-17.52319
2.058	-15.71045
2.0585	-16.81824
2.059	-15.60974
2.0595	-20.54443
2.06	-12.08496
2.0605	-12.18567
2.061	-7.95593
2.0615	-7.04956
2.062	-2.11487
2.0625	-1.3092
2.063	-3.42407
2.0635	-3.52478
2.064	-8.56018
2.0645	-9.66797
2.065	-9.46655
2.0655	-5.0354
2.066	-1.40991
2.0665	-0.90637
2.067	7.25098
2.0675	3.42407
2.068	10.67505
2.0685	8.05664
2.069	4.53186
2.0695	0.70496
2.07	-1.2085
2.0705	-16.41541
2.071	-38.16833
2.0715	-47.43347
2.072	-40.98816
2.0725	-28.29895
2.073	-18.22815
2.0735	-7.5531
2.074	3.02124
2.0745	9.66797
2.075	21.85364
2.0755	33.03223
2.076	42.09595
2.0765	46.5271
2.077	47.03064
2.0775	55.3894
2.078	52.56958
2.0785	49.24622
2.079	43.30444
2.0795	40.48462
2.08	34.94568
2.0805	24.97559
2.081	19.23523
2.0815	13.69629
2.082	9.86938
2.0825	6.14319
2.083	2.01416
2.0835	2.21558
2.084	-10.77576
2.0845	-10.97717
2.085	-7.85522
2.0855	-13.797
2.086	-11.48071
2.0865	-15.50903
2.087	-17.52319
2.0875	-19.33594
2.088	-17.01965
2.0885	-15.1062
2.089	-7.45239
2.0895	-4.83398
2.09	-7.15027
2.0905	-4.93469
2.091	-4.33044
2.0915	-1.10779
2.092	3.12195
2.0925	2.92053
2.093	-2.11487
2.0935	1.71204
2.094	2.92053
2.0945	0.80566
2.095	1.3092
2.0955	-0.80566
2.096	-3.52478
2.0965	-6.84814
2.097	-12.18567
2.0975	-12.08496
2.098	-11.17859
2.0985	-11.38
2.099	-12.38708
2.0995	-6.2439
2.1	-6.3446
2.1005	-0.10071
2.101	6.64673
2.1015	5.23682
2.102	11.78284
2.1025	18.02673
2.103	20.04089
2.1035	22.15576
2.104	16.71753
2.1045	19.53735
2.105	14.40125
2.1055	13.89771
2.106	13.99841
2.1065	11.17859
2.107	11.88354
2.1075	10.57434
2.108	7.5531
2.1085	9.16443
2.109	4.33044
2.1095	0.70496
2.11	-3.92761
2.1105	-6.94885
2.111	-6.04248
2.1115	-10.27222
2.112	-6.3446
2.1125	-1.51062
2.113	-6.04248
2.1135	-6.74744
2.114	-8.45947
2.1145	-7.25098
2.115	-6.94885
2.1155	-3.62549
2.116	2.41699
2.1165	1.40991
2.117	6.54602
2.1175	12.78992
2.118	12.08496
2.1185	13.19275
2.119	14.60266
2.1195	18.63098
2.12	16.61682
2.1205	14.09912
2.121	18.73169
2.1215	18.93311
2.122	17.01965
2.1225	20.64514
2.123	12.38708
2.1235	7.25098
2.124	11.38
2.1245	7.75452
2.125	9.66797
2.1255	9.36584
2.126	11.17859
2.1265	6.64673
2.127	9.86938
2.1275	8.7616
2.128	5.13611
2.1285	3.7262
2.129	-2.21558
2.1295	-5.53894
2.13	-21.95435
2.1305	-33.43506
2.131	-42.09595
2.1315	-37.46338
2.132	-38.67188
2.1325	-35.54993
2.133	-28.60107
2.1335	-15.20691
2.134	-2.92053
2.1345	9.97009
2.135	20.04089
2.1355	33.53577
2.136	50.85754
2.1365	63.44604
2.137	66.46729
2.1375	66.46729
2.138	73.71826
2.1385	67.57507
2.139	62.74109
2.1395	53.57666
2.14	47.13135
2.1405	34.74426
2.141	28.19824
2.1415	16.11328
2.142	9.76868
2.1425	7.95593
2.143	9.76868
2.1435	3.8269
2.144	5.13611
2.1445	3.8269
2.145	-0.30212
2.1455	-4.33044
2.146	-11.17859
2.1465	-14.90479
2.147	-11.88354
2.1475	-13.89771
2.148	-15.81116
2.1485	-25.47913
2.149	-34.64355
2.1495	-30.01099
2.15	-23.46497
2.1505	-24.16992
2.151	-20.74585
2.1515	-15.20691
2.152	-7.75452
2.1525	0.50354
2.153	5.33752
2.1535	13.59558
2.154	22.96143
2.1545	24.87488
2.155	32.62939
2.1555	36.25488
2.156	33.43506
2.1565	36.35559
2.157	37.36267
2.1575	24.57275
2.158	24.77417
2.1585	23.26355
2.159	22.76001
2.1595	3.52478
2.16	-15.00549
2.1605	-22.76001
2.161	-31.52161
2.1615	-32.62939
2.162	-36.75842
2.1625	-52.36816
2.163	-55.69153
2.1635	-61.43188
2.164	-65.96375
2.1645	-82.78198
2.165	-90.5365
2.1655	-102.62146
2.166	-112.39014
2.1665	-104.93774
2.167	-84.49402
2.1675	-57.20215
2.168	-32.32727
2.1685	3.22266
2.169	40.98816
2.1695	76.13525
2.17	89.63013
2.1705	115.7135
2.171	125.7843
2.1715	131.42395
2.172	139.68201
2.1725	130.71899
2.173	122.76306
2.1735	114.30359
2.174	94.06128
2.1745	73.31543
2.175	54.28162
2.1755	40.38391
2.176	26.88904
2.1765	20.84656
2.177	11.98425
2.1775	4.73328
2.178	-4.22974
2.1785	-0.80566
2.179	-12.78992
2.1795	-22.55859
2.18	-27.99683
2.1805	-33.73718
2.181	-31.52161
2.1815	-28.09753
2.182	-26.08337
2.1825	-23.46497
2.183	-18.93311
2.1835	-14.60266
2.184	-9.86938
2.1845	-3.22266
2.185	-5.53894
2.1855	-3.42407
2.186	-0.50354
2.1865	-0.20142
2.187	8.45947
2.1875	11.88354
2.188	14.40125
2.1885	14.80408
2.189	12.99133
2.1895	11.88354
2.19	15.20691
2.1905	15.71045
2.191	13.29346
2.1915	9.56726
2.192	10.47363
2.1925	12.28638
2.193	8.05664
2.1935	9.06372
2.194	6.94885
2.1945	4.12903
2.195	7.65381
2.1955	9.56726
2.196	5.13611
2.1965	3.32336
2.197	1.10779
2.1975	-3.02124
2.198	2.41699
2.1985	5.33752
2.199	0.50354
2.1995	3.92761
2.2	0.20142
2.2005	3.42407
2.201	3.52478
2.2015	8.05664
2.202	8.35876
2.2025	1.91345
2.203	8.96301
2.2035	8.66089
2.204	7.65381
2.2045	8.66089
2.205	7.5531
2.2055	6.3446
2.206	6.84814
2.2065	3.22266
2.207	-8.56018
2.2075	-11.78284
2.208	-24.16992
2.2085	-13.797
2.209	-14.19983
2.2095	-11.2793
2.21	-8.96301
2.2105	-5.53894
2.211	2.92053
2.2115	3.32336
2.212	10.67505
2.2125	13.09204
2.213	2.21558
2.2135	-6.64673
2.214	-10.57434
2.2145	-15.00549
2.215	-13.29346
2.2155	-7.35168
2.216	-6.74744
2.2165	-6.14319
2.217	1.91345
2.2175	8.7616
2.218	18.32886
2.2185	27.6947
2.219	35.75134
2.2195	38.06763
2.22	39.17542
2.2205	45.2179
2.221	38.36975
2.2215	30.81665
2.222	28.80249
2.2225	17.22107
2.223	5.33752
2.2235	-4.63257
2.224	-24.47205
2.2245	-17.82532
2.225	-13.99841
2.2255	-16.91895
2.226	-15.30762
2.2265	-13.39417
2.227	-9.06372
2.2275	-11.17859
2.228	-10.47363
2.2285	-6.44531
2.229	-1.91345
2.2295	0.40283
2.23	-3.92761
2.2305	2.31628
2.231	4.63257
2.2315	10.47363
2.232	8.25806
2.2325	14.09912
2.233	9.46655
2.2335	10.47363
2.234	4.53186
2.2345	0.20142
2.235	7.04956
2.2355	-4.43115
2.236	-6.2439
2.2365	-4.53186
2.237	-7.95593
2.2375	1.61133
2.238	-3.7262
2.2385	-9.56726
2.239	-9.76868
2.2395	-12.5885
2.24	-11.38
2.2405	-0.20142
2.241	-4.53186
2.2415	2.11487
2.242	3.12195
2.2425	8.7616
2.243	14.30054
2.2435	12.38708
2.244	11.78284
2.2445	16.61682
2.245	21.04797
2.2455	22.35718
2.246	26.68762
2.2465	15.71045
2.247	16.11328
2.2475	20.94727
2.248	16.51611
2.2485	18.63098
2.249	5.53894
2.2495	0
2.25	3.52478
2.2505	11.07788
2.251	15.40833
2.2515	23.56567
2.252	34.34143
2.2525	37.16125
2.253	37.16125
2.2535	43.80798
2.254	39.77966
2.2545	38.57117
2.255	35.65063
2.2555	32.42798
2.256	27.79541
2.2565	19.73877
2.257	10.57434
2.2575	-6.3446
2.258	-6.44531
2.2585	-10.17151
2.259	-17.01965
2.2595	-14.90479
2.26	-14.90479
2.2605	-12.78992
2.261	-18.32886
2.2615	-14.09912
2.262	-21.45081
2.2625	-23.76709
2.263	-18.22815
2.2635	-18.53027
2.264	-21.14868
2.2645	-13.99841
2.265	-17.01965
2.2655	-15.30762
2.266	-7.95593
2.2665	-9.26514
2.267	-16.81824
2.2675	-16.71753
2.268	-17.6239
2.2685	-17.01965
2.269	-10.67505
2.2695	-14.60266
2.27	-18.32886
2.2705	-14.80408
2.271	-11.07788
2.2715	-11.48071
2.272	-5.63965
2.2725	-3.32336
2.273	6.3446
2.2735	3.92761
2.274	10.17151
2.2745	12.89062
2.275	13.59558
2.2755	7.85522
2.276	11.58142
2.2765	10.17151
2.277	17.52319
2.2775	17.72461
2.278	22.86072
2.2785	17.12036
2.279	1.61133
2.2795	-9.66797
2.28	-14.30054
2.2805	-23.66638
2.281	-32.93152
2.2815	-33.83789
2.282	-29.10461
2.2825	-21.75293
2.283	-13.09204
2.2835	-7.85522
2.284	4.73328
2.2845	16.51611
2.285	33.53577
2.2855	44.41223
2.286	52.67029
2.2865	61.33118
2.287	59.31702
2.2875	60.92834
2.288	54.28162
2.2885	49.85046
2.289	52.97241
2.2895	50.85754
2.29	48.23914
2.2905	42.39807
2.291	24.57275
2.2915	-3.62549
2.292	-24.06921
2.2925	-32.93152
2.293	-38.974
2.2935	-40.38391
2.294	-39.88037
2.2945	-37.46338
2.295	-31.4209
2.2955	-22.6593
2.296	-9.06372
2.2965	6.14319
2.297	17.6239
2.2975	17.72461
2.298	27.59399
2.2985	34.94568
2.299	38.77258
2.2995	37.06055
2.3	38.77258
2.3005	26.3855
2.301	11.38
2.3015	12.89062
2.302	8.05664
2.3025	11.17859
2.303	9.46655
2.3035	4.83398
2.304	0.80566
2.3045	4.53186
2.305	4.83398
2.3055	4.83398
2.306	8.35876
2.3065	7.95593
2.307	11.07788
2.3075	11.58142
2.308	3.32336
2.3085	0.70496
2.309	2.11487
2.3095	1.00708
2.31	-2.11487
2.3105	0.80566
2.311	-3.52478
2.3115	-2.92053
2.312	-3.42407
2.3125	-3.02124
2.313	-6.3446
2.3135	-5.33752
2.314	-4.93469
2.3145	-2.41699
2.315	5.84106
2.3155	6.94885
2.316	-1.81274
2.3165	2.01416
2.317	8.66089
2.3175	12.38708
2.318	11.78284
2.3185	17.42249
2.319	18.02673
2.3195	25.68054
2.32	26.3855
2.3205	25.27771
2.321	17.72461
2.3215	17.22107
2.322	21.24939
2.3225	20.64514
2.323	21.95435
2.3235	11.17859
2.324	14.09912
2.3245	9.86938
2.325	1.40991
2.3255	-0.40283
2.326	-0.10071
2.3265	2.5177
2.327	2.31628
2.3275	1.61133
2.328	4.02832
2.3285	5.33752
2.329	10.17151
2.3295	9.16443
2.33	2.21558
2.3305	0
2.331	5.53894
2.3315	11.38
2.332	9.06372
2.3325	7.15027
2.333	11.07788
2.3335	8.15735
2.334	9.36584
2.3345	11.48071
2.335	12.48779
2.3355	10.87646
2.336	10.17151
2.3365	13.09204
2.337	12.5885
2.3375	9.06372
2.338	5.23682
2.3385	5.74036
2.339	-1.91345
2.3395	-2.11487
2.34	-1.91345
2.3405	-7.5531
2.341	-5.74036
2.3415	-5.0354
2.342	-8.66089
2.3425	-5.23682
2.343	-8.35876
2.3435	-6.64673
2.344	-7.45239
2.3445	-4.93469
2.345	-6.74744
2.3455	-0.50354
2.346	-2.21558
2.3465	-5.23682
2.347	-4.43115
2.3475	-0.40283
2.348	-4.73328
2.3485	-0.60425
2.349	-0.30212
2.3495	-1.40991
2.35	2.71912
2.3505	1.00708
2.351	-0.70496
2.3515	-1.81274
2.352	1.3092
2.3525	2.81982
2.353	4.22974
2.3535	2.61841
2.354	0.50354
2.3545	3.7262
2.355	5.74036
2.3555	6.44531
2.356	8.15735
2.3565	9.06372
2.357	5.94177
2.3575	8.96301
2.358	10.27222
2.3585	7.35168
2.359	8.45947
2.3595	11.17859
2.36	11.07788
2.3605	8.45947
2.361	6.94885
2.3615	6.2439
2.362	5.84106
2.3625	11.2793
2.363	14.19983
2.3635	22.35718
2.364	29.80957
2.3645	36.65771
2.365	27.19116
2.3655	14.09912
2.366	6.84814
2.3665	9.86938
2.367	7.35168
2.3675	-5.33752
2.368	-7.45239
2.3685	-0.40283
2.369	3.52478
2.3695	13.29346
2.37	22.45789
2.3705	30.91736
2.371	36.95984
2.3715	45.52002
2.372	50.85754
2.3725	48.64197
2.373	50.15259
2.3735	39.57825
2.374	32.93152
2.3745	20.94727
2.375	13.69629
2.3755	7.45239
2.376	-2.92053
2.3765	-0.80566
2.377	-12.5885
2.3775	-16.91895
2.378	-23.66638
2.3785	-24.77417
2.379	-37.7655
2.3795	-43.50586
2.38	-47.13135
2.3805	-40.98816
2.381	-38.974
2.3815	-35.34851
2.382	-30.81665
2.3825	-24.47205
2.383	-18.63098
2.3835	-13.797
2.384	-10.0708
2.3845	-1.2085
2.385	-15.30762
2.3855	-19.83948
2.386	-19.94019
2.3865	-13.99841
2.387	-14.50195
2.3875	-6.04248
2.388	-3.32336
2.3885	0.80566
2.389	9.66797
2.3895	10.87646
2.39	23.46497
2.3905	21.45081
2.391	22.35718
2.3915	20.34302
2.392	18.32886
2.3925	18.8324
2.393	14.40125
2.3935	13.89771
2.394	17.22107
2.3945	13.89771
2.395	12.08496
2.3955	7.25098
2.396	-0.20142
2.3965	2.61841
2.397	4.02832
2.3975	-3.12195
2.398	0.10071
2.3985	-2.92053
2.399	1.40991
2.3995	2.5177
2.4	3.92761
2.4005	6.94885
2.401	6.54602
2.4015	4.93469
2.402	3.02124
2.4025	2.01416
2.403	3.8269
2.4035	7.95593
2.404	7.35168
2.4045	8.45947
2.405	8.25806
2.4055	10.17151
2.406	10.27222
2.4065	10.37292
2.407	10.17151
2.4075	12.89062
2.408	10.97717
2.4085	10.47363
2.409	8.45947
2.4095	5.53894
2.41	7.04956
2.4105	6.94885
2.411	5.43823
2.4115	9.06372
2.412	3.8269
2.4125	10.37292
2.413	2.31628
2.4135	5.63965
2.414	3.32336
2.4145	1.61133
2.415	5.33752
2.4155	-2.81982
2.416	2.5177
2.4165	-1.00708
2.417	-0.30212
2.4175	-0.30212
2.418	0.60425
2.4185	1.61133
2.419	1.10779
2.4195	1.71204
2.42	2.01416
2.4205	5.23682
2.421	7.75452
2.4215	7.85522
2.422	13.19275
2.4225	10.57434
2.423	14.50195
2.4235	12.08496
2.424	14.60266
2.4245	8.25806
2.425	11.98425
2.4255	9.36584
2.426	12.08496
2.4265	9.56726
2.427	10.87646
2.4275	11.78284
2.428	20.94727
2.4285	16.01257
2.429	19.63806
2.4295	18.22815
2.43	21.24939
2.4305	23.46497
2.431	16.11328
2.4315	-12.78992
2.432	-50.15259
2.4325	-67.8772
2.433	-74.12109
2.4335	-68.68286
2.434	-46.42639
2.4345	-24.67346
2.435	-11.78284
2.4355	3.52478
2.436	26.08337
2.4365	55.59082
2.437	76.43738
2.4375	97.88818
2.438	103.32642
2.4385	100.80872
2.439	95.77332
2.4395	95.97473
2.44	88.42163
2.4405	82.37915
2.441	66.76941
2.4415	54.18091
2.442	37.46338
2.4425	35.14709
2.443	18.42957
2.4435	6.3446
2.444	-0.90637
2.4445	-7.15027
2.445	-14.30054
2.4455	-24.06921
2.446	-25.177
2.4465	-27.09045
2.447	-39.07471
2.4475	-40.38391
2.448	-39.67896
2.4485	-29.91028
2.449	-31.32019
2.4495	-27.6947
2.45	-20.94727
2.4505	-10.57434
2.451	-14.09912
2.4515	-11.2793
2.452	-7.95593
2.4525	-5.53894
2.453	-10.67505
2.4535	-11.2793
2.454	-3.02124
2.4545	-13.29346
2.455	-21.45081
2.4555	-28.19824
2.456	-32.12585
2.4565	-25.27771
2.457	-21.14868
2.4575	-11.78284
2.458	-2.5177
2.4585	-0.40283
2.459	7.25098
2.4595	12.5885
2.46	16.01257
2.4605	8.8623
2.461	18.12744
2.4615	15.1062
2.462	22.35718
2.4625	11.07788
2.463	15.30762
2.4635	13.19275
2.464	10.37292
2.4645	6.3446
2.465	-0.90637
2.4655	-1.61133
2.466	2.81982
2.4665	-3.02124
2.467	1.51062
2.4675	3.22266
2.468	2.41699
2.4685	-0.60425
2.469	-11.78284
2.4695	-4.73328
2.47	-3.62549
2.4705	4.22974
2.471	2.31628
2.4715	-4.83398
2.472	3.42407
2.4725	8.05664
2.473	10.67505
2.4735	11.88354
2.474	13.99841
2.4745	13.29346
2.475	14.40125
2.4755	12.89062
2.476	10.87646
2.4765	7.45239
2.477	3.32336
2.4775	5.94177
2.478	4.93469
2.4785	3.02124
2.479	2.11487
2.4795	6.74744
2.48	13.797
2.4805	10.17151
2.481	4.83398
2.4815	-3.52478
2.482	-4.12903
2.4825	-4.43115
2.483	1.2085
2.4835	1.10779
2.484	10.27222
2.4845	10.87646
2.485	14.50195
2.4855	17.01965
2.486	18.63098
2.4865	23.96851
2.487	18.02673
2.4875	15.91187
2.488	15.81116
2.4885	16.91895
2.489	19.13452
2.4895	18.42957
2.49	12.89062
2.4905	5.13611
2.491	3.7262
2.4915	-1.00708
2.492	-2.21558
2.4925	4.73328
2.493	7.5531
2.4935	11.68213
2.494	10.67505
2.4945	6.84814
2.495	3.52478
2.4955	6.64673
2.496	5.33752
2.4965	-2.5177
2.497	-3.8269
2.4975	-6.44531
2.498	1.10779
2.4985	-0.30212
2.499	5.63965
2.4995	5.0354
2.5	13.49487
2.5005	14.09912
2.501	7.95593
2.5015	9.97009
2.502	5.94177
2.5025	12.48779
2.503	0.50354
2.5035	-15.1062
2.504	-22.55859
2.5045	-18.42957
2.505	-17.72461
2.5055	-8.7616
2.506	-6.2439
2.5065	-6.04248
2.507	11.98425
2.5075	15.91187
2.508	25.57983
2.5085	19.03381
2.509	24.06921
2.5095	24.87488
2.51	24.87488
2.5105	17.32178
2.511	7.5531
2.5115	8.8623
2.512	2.92053
2.5125	-1.00708
2.513	-5.13611
2.5135	-14.70337
2.514	-16.71753
2.5145	-14.09912
2.515	-14.40125
2.5155	-14.40125
2.516	-16.41541
2.5165	-14.30054
2.517	-5.23682
2.5175	-5.43823
2.518	-5.53894
2.5185	-3.32336
2.519	-4.53186
2.5195	-1.2085
2.52	-1.10779
2.5205	1.10779
2.521	8.45947
2.5215	13.99841
2.522	18.12744
2.5225	19.13452
2.523	34.14001
2.5235	32.02515
2.524	33.63647
2.5245	33.83789
2.525	37.56409
2.5255	28.9032
2.526	27.89612
2.5265	31.4209
2.527	29.91028
2.5275	31.62231
2.528	24.06921
2.5285	22.6593
2.529	12.5885
2.5295	6.84814
2.53	4.73328
2.5305	7.04956
2.531	-3.02124
2.5315	-4.83398
2.532	-13.49487
2.5325	-13.39417
2.533	-17.01965
2.5335	-16.21399
2.534	-11.58142
2.5345	-22.25647
2.535	-20.04089
2.5355	-20.54443
2.536	-23.46497
2.5365	-22.45789
2.537	-23.66638
2.5375	-24.06921
2.538	-20.54443
2.5385	-15.00549
2.539	-9.86938
2.5395	-8.45947
2.54	-5.63965
2.5405	-5.0354
2.541	-3.42407
2.5415	-2.11487
2.542	-0.80566
2.5425	-0.30212
2.543	-0.20142
2.5435	-1.71204
2.544	1.10779
2.5445	4.02832
2.545	5.63965
2.5455	10.77576
2.546	2.11487
2.5465	5.33752
2.547	2.92053
2.5475	2.92053
2.548	1.81274
2.5485	-0.10071
2.549	4.73328
2.5495	4.43115
2.55	0.10071
2.5505	-8.35876
2.551	-17.22107
2.5515	-20.84656
2.552	-15.50903
2.5525	-14.50195
2.553	-7.45239
2.5535	8.05664
2.554	16.71753
2.5545	32.02515
2.555	35.75134
2.5555	35.75134
2.556	44.21082
2.5565	34.44214
2.557	28.9032
2.5575	26.18408
2.558	23.46497
2.5585	19.83948
2.559	17.22107
2.5595	13.89771
2.56	13.49487
2.5605	16.91895
2.561	20.04089
2.5615	15.20691
2.562	14.70337
2.5625	17.52319
2.563	9.86938
2.5635	9.16443
2.564	3.02124
2.5645	5.74036
2.565	6.84814
2.5655	8.96301
2.566	17.52319
2.5665	24.47205
2.567	28.70178
2.5675	27.89612
2.568	25.37842
2.5685	28.60107
2.569	27.6947
2.5695	25.07629
2.57	21.45081
2.5705	22.86072
2.571	11.78284
2.5715	-3.52478
2.572	-5.84106
2.5725	-1.40991
2.573	-6.2439
2.5735	-4.53186
2.574	1.71204
2.5745	-16.41541
2.575	-24.97559
2.5755	-27.39258
2.576	-23.16284
2.5765	-21.14868
2.577	-10.67505
2.5775	-5.94177
2.578	-1.51062
2.5785	8.66089
2.579	16.91895
2.5795	17.6239
2.58	25.78125
2.5805	34.94568
2.581	27.09045
2.5815	29.91028
2.582	25.177
2.5825	26.28479
2.583	20.44373
2.5835	17.22107
2.584	22.15576
2.5845	15.20691
2.585	17.82532
2.5855	19.53735
2.586	17.52319
2.5865	19.53735
2.587	10.17151
2.5875	1.61133
2.588	0.70496
2.5885	-8.45947
2.589	-7.35168
2.5895	-10.17151
2.59	-10.87646
2.5905	-4.02832
2.591	3.42407
2.5915	7.85522
2.592	7.85522
2.5925	5.23682
2.593	10.37292
2.5935	10.37292
2.594	13.09204
2.5945	12.48779
2.595	20.04089
2.5955	13.797
2.596	12.08496
2.5965	18.53027
2.597	18.02673
2.5975	14.60266
2.598	15.00549
2.5985	13.29346
2.599	12.99133
2.5995	10.0708
2.6	7.35168
2.6005	4.73328
2.601	7.75452
2.6015	-2.21558
2.602	0
2.6025	-8.8623
2.603	-24.97559
2.6035	-26.3855
2.604	-36.65771
2.6045	-34.34143
2.605	-39.17542
2.6055	-26.18408
2.606	-22.6593
2.6065	-9.06372
2.607	0
2.6075	5.13611
2.608	14.09912
2.6085	23.46497
2.609	29.40674
2.6095	24.37134
2.61	25.37842
2.6105	24.27063
2.611	21.55151
2.6115	13.19275
2.612	4.53186
2.6125	10.17151
2.613	7.95593
2.6135	3.42407
2.614	-4.22974
2.6145	-7.25098
2.615	-4.73328
2.6155	-1.61133
2.616	0
2.6165	-4.43115
2.617	-7.95593
2.6175	-7.95593
2.618	-16.21399
2.6185	-15.20691
2.619	-8.7616
2.6195	-18.12744
2.62	-26.68762
2.6205	-27.09045
2.621	-26.78833
2.6215	-12.08496
2.622	-2.11487
2.6225	7.04956
2.623	5.53894
2.6235	8.45947
2.624	16.51611
2.6245	26.28479
2.625	-16.3147
2.6255	-51.86462
2.626	-57.50427
2.6265	-57.9071
2.627	-40.68604
2.6275	-23.16284
2.628	-2.31628
2.6285	17.12036
2.629	41.59241
2.6295	62.23755
2.63	74.82605
2.6305	91.54358
2.631	95.5719
2.6315	98.69385
2.632	86.91101
2.6325	72.9126
2.633	60.62622
2.6335	49.44763
2.634	33.63647
2.6345	24.27063
2.635	16.11328
2.6355	-1.71204
2.636	-23.66638
2.6365	-45.52002
2.637	-58.81348
2.6375	-71.90552
2.638	-82.68127
2.6385	-75.22888
2.639	-62.74109
2.6395	-53.07312
2.64	-33.53577
2.6405	-7.25098
2.641	12.5885
2.6415	28.60107
2.642	44.41223
2.6425	48.23914
2.643	57.10144
2.6435	57.70569
2.644	58.41064
2.6445	53.57666
2.645	43.60657
2.6455	29.10461
2.646	25.37842
2.6465	20.1416
2.647	14.50195
2.6475	7.25098
2.648	5.63965
2.6485	4.02832
2.649	-3.12195
2.6495	-10.0708
2.65	-18.32886
2.6505	-15.1062
2.651	-12.68921
2.6515	-8.66089
2.652	-5.23682
2.6525	-6.64673
2.653	-5.33752
2.6535	-2.81982
2.654	-1.00708
2.6545	4.02832
2.655	12.28638
2.6555	13.89771
2.656	11.2793
2.6565	14.60266
2.657	4.22974
2.6575	7.65381
2.658	5.74036
2.6585	9.06372
2.659	-2.21558
2.6595	1.61133
2.66	5.33752
2.6605	9.06372
2.661	9.06372
2.6615	4.22974
2.662	4.43115
2.6625	4.22974
2.663	11.07788
2.6635	4.53186
2.664	4.53186
2.6645	-0.20142
2.665	-4.73328
2.6655	5.74036
2.666	-6.04248
2.6665	1.51062
2.667	-3.52478
2.6675	-23.66638
2.668	-22.45789
2.6685	-17.22107
2.669	-17.01965
2.6695	-17.01965
2.67	-6.84814
2.6705	-1.10779
2.671	5.43823
2.6715	16.51611
2.672	23.96851
2.6725	21.95435
2.673	18.42957
2.6735	21.04797
2.674	24.57275
2.6745	40.1825
2.675	42.8009
2.6755	44.51294
2.676	21.95435
2.6765	3.92761
2.677	-8.66089
2.6775	-23.16284
2.678	-17.12036
2.6785	-23.06213
2.679	-12.78992
2.6795	-7.35168
2.68	-0.80566
2.6805	3.52478
2.681	4.22974
2.6815	14.19983
2.682	13.09204
2.6825	13.69629
2.683	12.89062
2.6835	15.60974
2.684	16.61682
2.6845	17.6239
2.685	10.97717
2.6855	2.11487
2.686	5.13611
2.6865	1.61133
2.687	0.10071
2.6875	5.63965
2.688	10.37292
2.6885	9.06372
2.689	4.22974
2.6895	-1.81274
2.69	-1.71204
2.6905	-3.32336
2.691	-5.0354
2.6915	1.71204
2.692	-1.2085
2.6925	-0.20142
2.693	9.36584
2.6935	7.45239
2.694	4.12903
2.6945	8.7616
2.695	8.35876
2.6955	5.0354
2.696	9.66797
2.6965	8.15735
2.697	4.12903
2.6975	4.93469
2.698	11.48071
2.6985	11.38
2.699	8.66089
2.6995	1.81274
2.7	1.51062
2.7005	3.92761
2.701	3.42407
2.7015	1.91345
2.702	3.62549
2.7025	-2.11487
2.703	0
2.7035	5.53894
2.704	9.66797
2.7045	11.98425
2.705	12.28638
2.7055	7.25098
2.706	-4.02832
2.7065	-7.75452
2.707	-4.33044
2.7075	-1.40991
2.708	-3.22266
2.7085	-8.25806
2.709	-8.45947
2.7095	-0.30212
2.71	4.73328
2.7105	1.51062
2.711	3.7262
2.7115	2.92053
2.712	5.63965
2.7125	-3.12195
2.713	-1.71204
2.7135	3.12195
2.714	3.92761
2.7145	0.10071
2.715	5.13611
2.7155	5.13611
2.716	-1.81274
2.7165	-11.88354
2.717	-7.5531
2.7175	-11.38
2.718	-16.21399
2.7185	-15.60974
2.719	-7.65381
2.7195	1.3092
2.72	9.36584
2.7205	31.52161
2.721	33.13293
2.7215	39.07471
2.722	52.67029
2.7225	59.21631
2.723	56.5979
2.7235	47.8363
2.724	48.03772
2.7245	39.27612
2.725	43.30444
2.7255	31.01807
2.726	7.5531
2.7265	-12.78992
2.727	-18.02673
2.7275	-17.12036
2.728	-24.67346
2.7285	-19.53735
2.729	-15.91187
2.7295	-6.54602
2.73	-2.31628
2.7305	7.95593
2.731	5.0354
2.7315	15.40833
2.732	19.33594
2.7325	18.02673
2.733	25.07629
2.7335	28.29895
2.734	37.86621
2.7345	32.93152
2.735	32.22656
2.7355	24.06921
2.736	20.34302
2.7365	4.22974
2.737	-3.12195
2.7375	-6.74744
2.738	-4.83398
2.7385	-5.43823
2.739	-11.38
2.7395	-17.01965
2.74	-19.13452
2.7405	-21.3501
2.741	-10.57434
2.7415	-3.52478
2.742	7.15027
2.7425	17.42249
2.743	14.50195
2.7435	13.89771
2.744	18.93311
2.7445	11.38
2.745	10.97717
2.7455	3.12195
2.746	-2.11487
2.7465	-2.61841
2.747	-2.01416
2.7475	-4.73328
2.748	-5.84106
2.7485	2.31628
2.749	-4.53186
2.7495	-9.46655
2.75	-12.5885
2.7505	-13.19275
2.751	-12.5885
2.7515	-6.84814
2.752	-6.94885
2.7525	-3.62549
2.753	-0.10071
2.7535	-2.61841
2.754	-4.33044
2.7545	1.61133
2.755	-1.71204
2.7555	-2.41699
2.756	-1.91345
2.7565	-3.52478
2.757	-4.73328
2.7575	-1.2085
2.758	1.40991
2.7585	-0.60425
2.759	5.63965
2.7595	1.3092
2.76	0.80566
2.7605	-41.79382
2.761	-55.69153
2.7615	-62.13684
2.762	-57.00073
2.7625	-35.65063
2.763	-19.94019
2.7635	4.43115
2.764	19.83948
2.7645	45.92285
2.765	54.28162
2.7655	64.25171
2.766	73.11401
2.7665	66.16516
2.767	69.79065
2.7675	70.99915
2.768	65.25879
2.7685	59.82056
2.769	46.62781
2.7695	38.47046
2.77	27.49329
2.7705	25.78125
2.771	20.1416
2.7715	14.80408
2.772	9.86938
2.7725	3.02124
2.773	0
2.7735	-1.10779
2.774	-2.5177
2.7745	-11.58142
2.775	-17.52319
2.7755	-14.40125
2.776	-9.76868
2.7765	-8.7616
2.777	-1.91345
2.7775	-8.45947
2.778	-5.13611
2.7785	-9.86938
2.779	-11.78284
2.7795	-3.42407
2.78	-1.51062
2.7805	1.00708
2.781	5.53894
2.7815	6.3446
2.782	11.17859
2.7825	2.81982
2.783	2.61841
2.7835	2.41699
2.784	10.0708
2.7845	3.32336
2.785	4.22974
2.7855	2.31628
2.786	0.30212
2.7865	-0.30212
2.787	3.12195
2.7875	4.12903
2.788	7.35168
2.7885	8.35876
2.789	4.63257
2.7895	6.04248
2.79	3.32336
2.7905	5.33752
2.791	10.77576
2.7915	8.15735
2.792	10.57434
2.7925	14.19983
2.793	11.68213
2.7935	12.68921
2.794	10.57434
2.7945	8.45947
2.795	10.77576
2.7955	8.56018
2.796	4.22974
2.7965	-0.90637
2.797	-1.71204
2.7975	-5.94177
2.798	-7.35168
2.7985	0.20142
2.799	4.53186
2.7995	6.04248
2.8	5.23682
2.8005	0.10071
2.801	4.43115
2.8015	-6.64673
2.802	-10.0708
2.8025	-17.01965
2.803	-9.76868
2.8035	3.02124
2.804	7.75452
2.8045	15.30762
2.805	26.28479
2.8055	33.03223
2.806	33.9386
2.8065	31.11877
2.807	37.86621
2.8075	34.34143
2.808	35.85205
2.8085	25.98267
2.809	18.63098
2.8095	13.39417
2.81	10.0708
2.8105	15.00549
2.811	23.56567
2.8115	23.8678
2.812	22.76001
2.8125	23.96851
2.813	22.55859
2.8135	13.19275
2.814	5.94177
2.8145	-1.10779
2.815	3.22266
2.8155	0.30212
2.816	3.52478
2.8165	10.77576
2.817	15.71045
2.8175	9.56726
2.818	12.5885
2.8185	15.1062
2.819	8.7616
2.8195	1.61133
2.82	-3.42407
2.8205	1.2085
2.821	-4.83398
2.8215	-5.23682
2.822	-7.75452
2.8225	-6.64673
2.823	-7.45239
2.8235	-18.42957
2.824	-27.99683
2.8245	-29.00391
2.825	-30.51453
2.8255	-22.25647
2.826	-21.55151
2.8265	-16.81824
2.827	-1.10779
2.8275	9.66797
2.828	24.67346
2.8285	27.79541
2.829	27.59399
2.8295	13.19275
2.83	11.17859
2.8305	6.94885
2.831	12.5885
2.8315	23.06213
2.832	20.04089
2.8325	29.40674
2.833	31.21948
2.8335	37.56409
2.834	38.67188
2.8345	40.88745
2.835	44.0094
2.8355	38.57117
2.836	39.07471
2.8365	30.81665
2.837	25.57983
2.8375	11.88354
2.838	3.02124
2.8385	-13.19275
2.839	-15.71045
2.8395	-25.88196
2.84	-28.80249
2.8405	-32.42798
2.841	-33.83789
2.8415	-27.99683
2.842	-30.2124
2.8425	-23.66638
2.843	-22.76001
2.8435	-32.93152
2.844	-49.54834
2.8445	-52.771
2.845	-48.74268
2.8455	-50.95825
2.846	-44.31152
2.8465	-26.28479
2.847	-21.24939
2.8475	-11.17859
2.848	-3.7262
2.8485	9.97009
2.849	15.1062
2.8495	18.73169
2.85	19.73877
2.8505	19.13452
2.851	25.07629
2.8515	20.1416
2.852	21.3501
2.8525	19.83948
2.853	19.53735
2.8535	22.55859
2.854	27.09045
2.8545	25.78125
2.855	12.28638
2.8555	-1.00708
2.856	-8.56018
2.8565	-11.98425
2.857	-13.49487
2.8575	-2.61841
2.858	5.13611
2.8585	6.14319
2.859	12.08496
2.8595	19.53735
2.86	27.89612
2.8605	34.14001
2.861	40.38391
2.8615	33.53577
2.862	36.55701
2.8625	28.70178
2.863	29.20532
2.8635	24.16992
2.864	23.36426
2.8645	16.51611
2.865	10.87646
2.8655	11.07788
2.866	4.83398
2.8665	4.83398
2.867	-2.11487
2.8675	-0.90637
2.868	-0.50354
2.8685	-0.20142
2.869	-4.53186
2.8695	-5.74036
2.87	3.92761
2.8705	-6.04248
2.871	6.44531
2.8715	5.0354
2.872	7.25098
2.8725	8.05664
2.873	12.28638
2.8735	15.81116
2.874	12.68921
2.8745	11.68213
2.875	15.30762
2.8755	24.27063
2.876	26.88904
2.8765	22.76001
2.877	24.16992
2.8775	23.66638
2.878	22.96143
2.8785	17.12036
2.879	19.73877
2.8795	18.22815
2.88	16.01257
2.8805	21.45081
2.881	18.22815
2.8815	12.18567
2.882	18.32886
2.8825	12.78992
2.883	16.91895
2.8835	19.13452
2.884	19.23523
2.8845	17.6239
2.885	13.49487
2.8855	5.84106
2.886	4.63257
2.8865	-3.12195
2.887	-0.40283
2.8875	-0.60425
2.888	3.52478
2.8885	0.90637
2.889	-0.50354
2.8895	-3.52478
2.89	-6.84814
2.8905	-5.53894
2.891	-2.71912
2.8915	-2.11487
2.892	4.22974
2.8925	10.27222
2.893	0.80566
2.8935	-35.34851
2.894	-92.55066
2.8945	-106.54907
2.895	-100.10376
2.8955	-91.34216
2.896	-62.23755
2.8965	-31.72302
2.897	10.97717
2.8975	43.20374
2.898	71.7041
2.8985	102.62146
2.899	125.98572
2.8995	127.39563
2.9	122.96448
2.9005	108.56323
2.901	76.23596
2.9015	46.32568
2.902	29.10461
2.9025	21.24939
2.903	8.35876
2.9035	-5.13611
2.904	-9.86938
2.9045	-9.06372
2.905	3.12195
2.9055	25.78125
2.906	30.11169
2.9065	23.06213
2.907	14.50195
2.9075	1.00708
2.908	-4.43115
2.9085	-2.81982
2.909	0.50354
2.9095	2.81982
2.91	9.16443
2.9105	13.89771
2.911	14.70337
2.9115	14.80408
2.912	7.85522
2.9125	-4.73328
2.913	-23.16284
2.9135	-31.62231
2.914	-39.07471
2.9145	-54.38232
2.915	-54.68445
2.9155	-47.13135
2.916	-35.75134
2.9165	-20.1416
2.917	-5.13611
2.9175	-8.05664
2.918	-1.61133
2.9185	2.21558
2.919	5.84106
2.9195	-3.02124
2.92	-8.8623
2.9205	-6.04248
2.921	-4.73328
2.9215	1.2085
2.922	-2.21558
2.9225	8.45947
2.923	2.31628
2.9235	-0.70496
2.924	-9.06372
2.9245	-7.5531
2.925	-3.92761
2.9255	0.30212
2.926	4.63257
2.9265	4.83398
2.927	0.60425
2.9275	0.90637
2.928	-1.10779
2.9285	4.33044
2.929	0.90637
2.9295	3.12195
2.93	-2.92053
2.9305	6.44531
2.931	7.15027
2.9315	10.87646
2.932	25.37842
2.9325	22.96143
2.933	25.68054
2.9335	28.60107
2.934	28.80249
2.9345	22.05505
2.935	24.37134
2.9355	22.6593
2.936	17.6239
2.9365	15.50903
2.937	18.02673
2.9375	18.63098
2.938	18.32886
2.9385	20.54443
2.939	19.13452
2.9395	16.3147
2.94	11.98425
2.9405	12.38708
2.941	12.48779
2.9415	7.85522
2.942	12.99133
2.9425	7.75452
2.943	8.56018
2.9435	1.10779
2.944	3.32336
2.9445	0.10071
2.945	6.94885
2.9455	3.62549
2.946	-1.00708
2.9465	-0.30212
2.947	-6.94885
2.9475	-0.20142
2.948	-1.91345
2.9485	-0.70496
2.949	-1.00708
2.9495	-8.7616
2.95	-2.71912
2.9505	-5.84106
2.951	-8.7616
2.9515	-6.84814
2.952	-4.43115
2.9525	2.01416
2.953	-4.73328
2.9535	-1.81274
2.954	2.41699
2.9545	6.44531
2.955	8.66089
2.9555	9.06372
2.956	12.89062
2.9565	13.19275
2.957	17.6239
2.9575	14.19983
2.958	3.92761
2.9585	-0.20142
2.959	0.10071
2.9595	11.88354
2.96	16.21399
2.9605	23.26355
2.961	30.61523
2.9615	30.31311
2.962	30.81665
2.9625	32.42798
2.963	36.4563
2.9635	35.95276
2.964	28.70178
2.9645	26.78833
2.965	29.30603
2.9655	15.91187
2.966	12.38708
2.9665	5.0354
2.967	7.35168
2.9675	2.01416
2.968	-2.61841
2.9685	-1.40991
2.969	-9.97009
2.9695	-3.22266
2.97	-1.61133
2.9705	1.3092
2.971	4.12903
2.9715	-6.3446
2.972	-1.81274
2.9725	-1.61133
2.973	1.61133
2.9735	3.12195
2.974	1.61133
2.9745	4.73328
2.975	7.85522
2.9755	8.45947
2.976	3.12195
2.9765	-2.11487
2.977	-4.02832
2.9775	-4.83398
2.978	-5.74036
2.9785	-22.6593
2.979	-28.80249
2.9795	-36.05347
2.98	-39.07471
2.9805	-24.27063
2.981	-10.87646
2.9815	-11.07788
2.982	-13.29346
2.9825	-6.14319
2.983	-2.71912
2.9835	4.22974
2.984	13.59558
2.9845	22.96143
2.985	17.6239
2.9855	27.89612
2.986	32.83081
2.9865	37.36267
2.987	43.90869
2.9875	38.47046
2.988	42.39807
2.9885	35.54993
2.989	25.47913
2.9895	24.97559
2.99	22.05505
2.9905	15.00549
2.991	14.60266
2.9915	9.06372
2.992	3.92761
2.9925	6.14319
2.993	-1.81274
2.9935	-4.53186
2.994	0.10071
2.9945	6.2439
2.995	8.56018
2.9955	6.2439
2.996	3.32336
2.9965	8.8623
2.997	12.68921
2.9975	15.60974
2.998	22.45789
2.9985	27.99683
2.999	33.03223
2.9995	42.09595
3	43.80798
3.0005	46.12427
3.001	32.7301
3.0015	20.94727
3.002	20.74585
3.0025	12.08496
3.003	-0.40283
3.0035	-13.19275
3.004	-16.81824
3.0045	-18.32886
3.005	-17.42249
3.0055	-27.29187
3.006	-29.30603
3.0065	-35.75134
3.007	-47.7356
3.0075	-51.76392
3.008	-39.67896
3.0085	-28.39966
3.009	-17.22107
3.0095	-18.02673
3.01	-17.42249
3.0105	-19.53735
3.011	-15.60974
3.0115	-12.28638
3.012	-2.71912
3.0125	-10.37292
3.013	-3.62549
3.0135	-2.11487
3.014	-1.00708
3.0145	5.13611
3.015	2.11487
3.0155	5.74036
3.016	5.0354
3.0165	14.40125
3.017	6.3446
3.0175	10.87646
3.018	9.97009
3.0185	-1.2085
3.019	6.44531
3.0195	-0.20142
3.02	3.02124
3.0205	6.14319
3.021	8.66089
3.0215	4.93469
3.022	7.5531
3.0225	6.44531
3.023	-3.7262
3.0235	-10.97717
3.024	-11.38
3.0245	-6.64673
3.025	-8.05664
3.0255	-10.87646
3.026	-6.04248
3.0265	-5.0354
3.027	-5.0354
3.0275	-1.3092
3.028	10.57434
3.0285	15.60974
3.029	8.56018
3.0295	15.50903
3.03	19.23523
3.0305	21.95435
3.031	20.84656
3.0315	24.57275
3.032	26.18408
3.0325	23.66638
3.033	26.58691
3.0335	24.57275
3.034	35.2478
3.0345	27.99683
3.035	23.26355
3.0355	19.94019
3.036	17.42249
3.0365	13.797
3.037	13.797
3.0375	1.51062
3.038	-16.81824
3.0385	-29.10461
3.039	-37.16125
3.0395	-26.18408
3.04	-15.1062
3.0405	-8.35876
3.041	-33.73718
3.0415	-47.53418
3.042	-45.3186
3.0425	-47.53418
3.043	-39.57825
3.0435	-20.44373
3.044	0.20142
3.0445	25.88196
3.045	46.02356
3.0455	58.91418
3.046	74.62463
3.0465	92.14783
3.047	95.5719
3.0475	100.30518
3.048	97.48535
3.0485	76.43738
3.049	54.38232
3.0495	32.02515
3.05	24.67346
3.0505	8.7616
3.051	3.02124
3.0515	-5.63965
3.052	-17.22107
3.0525	-25.27771
3.053	-28.09753
3.0535	-22.6593
3.054	-23.46497
3.0545	-31.52161
3.055	-38.47046
3.0555	-33.03223
3.056	-30.91736
3.0565	-29.40674
3.057	-29.00391
3.0575	-26.08337
3.058	-19.03381
3.0585	-19.43665
3.059	0.20142
3.0595	-2.81982
3.06	3.22266
3.0605	-0.60425
3.061	-3.32336
3.0615	-10.47363
3.062	-15.81116
3.0625	-16.61682
3.063	-13.09204
3.0635	-6.3446
3.064	-5.0354
3.0645	1.10779
3.065	6.94885
3.0655	9.86938
3.066	18.32886
3.0665	19.13452
3.067	22.76001
3.0675	20.44373
3.068	24.87488
3.0685	21.95435
3.069	19.53735
3.0695	20.24231
3.07	12.68921
3.0705	12.18567
3.071	14.70337
3.0715	12.08496
3.072	10.97717
3.0725	12.5885
3.073	13.797
3.0735	9.66797
3.074	5.33752
3.0745	2.5177
3.075	3.62549
3.0755	5.74036
3.076	1.10779
3.0765	1.2085
3.077	1.2085
3.0775	3.7262
3.078	2.21558
3.0785	6.94885
3.079	12.38708
3.0795	7.75452
3.08	11.78284
3.0805	5.23682
3.081	4.53186
3.0815	7.85522
3.082	6.2439
3.0825	3.8269
3.083	5.63965
3.0835	7.65381
3.084	8.35876
3.0845	7.45239
3.085	20.44373
3.0855	22.86072
3.086	21.55151
3.0865	27.29187
3.087	24.67346
3.0875	18.12744
3.088	22.35718
3.0885	20.84656
3.089	20.1416
3.0895	16.81824
3.09	21.75293
3.0905	20.44373
3.091	20.54443
3.0915	18.32886
3.092	10.97717
3.0925	13.49487
3.093	17.42249
3.0935	12.78992
3.094	3.62549
3.0945	8.35876
3.095	5.63965
3.0955	4.02832
3.096	5.33752
3.0965	3.62549
3.097	2.01416
3.0975	-1.3092
3.098	-2.92053
3.0985	-3.8269
3.099	-0.60425
3.0995	1.91345
3.1	-7.25098
3.1005	-1.00708
3.101	0.90637
3.1015	1.91345
3.102	1.51062
3.1025	-3.92761
3.103	1.61133
3.1035	-4.63257
3.104	-0.10071
3.1045	-3.12195
3.105	0.30212
3.1055	-5.63965
3.106	-9.86938
3.1065	-6.2439
3.107	-2.71912
3.1075	-9.86938
3.108	-2.5177
3.1085	3.52478
3.109	0
3.1095	-0.90637
3.11	0.40283
3.1105	-2.61841
3.111	0.80566
3.1115	0.80566
3.112	-1.00708
3.1125	0.70496
3.113	4.93469
3.1135	3.62549
3.114	5.53894
3.1145	-0.10071
3.115	-5.84106
3.1155	2.92053
3.116	2.41699
3.1165	-3.52478
3.117	0.70496
3.1175	-5.84106
3.118	-6.74744
3.1185	2.31628
3.119	5.94177
3.1195	7.04956
3.12	11.48071
3.1205	16.11328
3.121	17.52319
3.1215	20.54443
3.122	15.71045
3.1225	17.82532
3.123	17.82532
3.1235	30.61523
3.124	24.27063
3.1245	29.91028
3.125	27.39258
3.1255	26.28479
3.126	20.04089
3.1265	17.12036
3.127	18.02673
3.1275	22.35718
3.128	15.00549
3.1285	14.90479
3.129	2.41699
3.1295	-2.81982
3.13	-16.71753
3.1305	-20.24231
3.131	-22.45789
3.1315	-16.3147
3.132	-11.17859
3.1325	-1.91345
3.133	5.84106
3.1335	16.61682
3.134	31.92444
3.1345	29.10461
3.135	33.43506
3.1355	31.01807
3.136	32.83081
3.1365	28.29895
3.137	16.41541
3.1375	3.52478
3.138	4.02832
3.1385	5.84106
3.139	7.45239
3.1395	8.56018
3.14	10.37292
3.1405	5.63965
3.141	-0.80566
3.1415	-4.93469
3.142	-7.15027
3.1425	-6.74744
3.143	-12.38708
3.1435	-11.58142
3.144	-5.94177
3.1445	-10.27222
3.145	-16.71753
3.1455	-17.92603
3.146	-26.3855
3.1465	-29.40674
3.147	-32.52869
3.1475	-31.21948
3.148	-20.74585
3.1485	-14.09912
3.149	-6.64673
3.1495	-7.35168
3.15	-3.42407
3.1505	-9.97009
3.151	-2.71912
3.1515	3.42407
3.152	4.02832
3.1525	9.16443
3.153	15.00549
3.1535	10.47363
3.154	12.28638
3.1545	15.81116
3.155	8.8623
3.1555	15.60974
3.156	8.96301
3.1565	4.73328
3.157	4.33044
3.1575	3.8269
3.158	8.45947
3.1585	4.22974
3.159	2.41699
3.1595	0.60425
3.16	0.50354
3.1605	-2.71912
3.161	3.62549
3.1615	0.10071
3.162	-1.71204
3.1625	-0.60425
3.163	0
3.1635	-3.32336
3.164	-1.2085
3.1645	-5.74036
3.165	-1.61133
3.1655	0
3.166	4.73328
3.1665	-1.3092
3.167	1.51062
3.1675	-2.01416
3.168	3.12195
3.1685	-3.42407
3.169	6.54602
3.1695	4.93469
3.17	2.01416
3.1705	5.84106
3.171	3.32336
3.1715	13.19275
3.172	11.17859
3.1725	13.99841
3.173	8.7616
3.1735	4.02832
3.174	7.65381
3.1745	9.06372
3.175	14.90479
3.1755	6.84814
3.176	8.56018
3.1765	6.2439
3.177	11.48071
3.1775	5.63965
3.178	4.43115
3.1785	6.94885
3.179	2.71912
3.1795	6.3446
3.18	3.02124
3.1805	3.12195
3.181	5.94177
3.1815	4.33044
3.182	7.95593
3.1825	3.7262
3.183	6.54602
3.1835	2.21558
3.184	6.3446
3.1845	4.63257
3.185	7.15027
3.1855	4.02832
3.186	3.52478
3.1865	6.94885
3.187	8.25806
3.1875	9.16443
3.188	6.04248
3.1885	5.43823
3.189	7.04956
3.1895	9.16443
3.19	5.53894
3.1905	0.60425
3.191	-2.11487
3.1915	-1.71204
3.192	-1.40991
3.1925	0.30212
3.193	1.00708
3.1935	-8.15735
3.194	-9.06372
3.1945	-9.56726
3.195	-15.30762
3.1955	-7.15027
3.196	-6.44531
3.1965	4.93469
3.197	12.68921
3.1975	12.18567
3.198	11.78284
3.1985	16.11328
3.199	22.6593
3.1995	23.56567
3.2	27.59399
3.2005	12.99133
3.201	10.17151
3.2015	9.06372
3.202	8.66089
3.2025	6.54602
3.203	8.05664
3.2035	22.15576
3.204	23.8678
3.2045	23.16284
3.205	29.40674
3.2055	29.80957
3.206	25.177
3.2065	28.09753
3.207	25.47913
3.2075	21.55151
3.208	22.35718
3.2085	25.47913
3.209	25.177
3.2095	28.60107
3.21	24.57275
3.2105	22.35718
3.211	-5.43823
3.2115	-19.43665
3.212	-32.12585
3.2125	-29.80957
3.213	-27.6947
3.2135	-19.03381
3.214	-20.1416
3.2145	-25.88196
3.215	-24.87488
3.2155	-29.70886
3.216	-16.21399
3.2165	-6.3446
3.217	8.45947
3.2175	19.03381
3.218	27.49329
3.2185	34.74426
3.219	40.2832
3.2195	37.66479
3.22	44.0094
3.2205	44.11011
3.221	39.67896
3.2215	42.90161
3.222	37.96692
3.2225	26.68762
3.223	14.70337
3.2235	12.78992
3.224	11.07788
3.2245	3.32336
3.225	0.10071
3.2255	0.80566
3.226	-12.48779
3.2265	-14.50195
3.227	-16.51611
3.2275	-24.67346
3.228	-35.04639
3.2285	-33.53577
3.229	-31.32019
3.2295	-26.18408
3.23	-20.74585
3.2305	-14.19983
3.231	-13.49487
3.2315	-14.80408
3.232	-17.22107
3.2325	-12.48779
3.233	-7.95593
3.2335	-5.53894
3.234	-6.54602
3.2345	-7.25098
3.235	-11.58142
3.2355	-10.67505
3.236	-7.95593
3.2365	-3.52478
3.237	1.00708
3.2375	-1.51062
3.238	2.31628
3.2385	3.7262
3.239	10.37292
3.2395	4.33044
3.24	5.23682
3.2405	6.14319
3.241	1.51062
3.2415	14.19983
3.242	7.65381
3.2425	12.08496
3.243	13.49487
3.2435	4.43115
3.244	2.41699
3.2445	1.91345
3.245	8.8623
3.2455	5.63965
3.246	3.8269
3.2465	6.84814
3.247	3.62549
3.2475	7.25098
3.248	2.92053
3.2485	10.77576
3.249	4.53186
3.2495	7.45239
3.25	0.70496
3.2505	-1.10779
3.251	0.10071
3.2515	4.93469
3.252	2.71912
3.2525	6.2439
3.253	10.77576
3.2535	8.66089
3.254	9.26514
3.2545	14.70337
3.255	14.50195
3.2555	9.66797
3.256	4.73328
3.2565	12.99133
3.257	7.35168
3.2575	8.96301
3.258	12.28638
3.2585	13.29346
3.259	15.91187
3.2595	10.57434
3.26	10.0708
3.2605	9.76868
3.261	4.02832
3.2615	4.53186
3.262	1.71204
3.2625	8.05664
3.263	6.64673
3.2635	8.05664
3.264	2.41699
3.2645	4.53186
3.265	3.7262
3.2655	5.23682
3.266	1.51062
3.2665	2.21558
3.267	2.01416
3.2675	-2.11487
3.268	-1.51062
3.2685	2.41699
3.269	3.8269
3.2695	-0.40283
3.27	-2.21558
3.2705	0.70496
3.271	2.61841
3.2715	-8.45947
3.272	-14.19983
3.2725	-11.38
3.273	-15.20691
3.2735	-10.0708
3.274	-8.96301
3.2745	-1.91345
3.275	9.66797
3.2755	20.1416
3.276	33.03223
3.2765	41.79382
3.277	41.08887
3.2775	47.03064
3.278	44.21082
3.2785	48.33984
3.279	48.23914
3.2795	45.72144
3.28	46.82922
3.2805	45.92285
3.281	36.95984
3.2815	32.93152
3.282	25.47913
3.2825	17.92603
3.283	15.40833
3.2835	12.28638
3.284	8.35876
3.2845	3.52478
3.285	3.92761
3.2855	-3.52478
3.286	-2.01416
3.2865	-6.64673
3.287	-21.85364
3.2875	-33.53577
3.288	-40.58533
3.2885	-37.56409
3.289	-33.03223
3.2895	-18.32886
3.29	-11.98425
3.2905	1.00708
3.291	10.67505
3.2915	9.56726
3.292	14.40125
3.2925	12.08496
3.293	7.35168
3.2935	5.0354
3.294	4.83398
3.2945	-0.10071
3.295	1.71204
3.2955	3.22266
3.296	-2.21558
3.2965	-6.94885
3.297	-8.66089
3.2975	-6.14319
3.298	-6.2439
3.2985	-8.8623
3.299	-7.25098
3.2995	-6.94885
3.3	-5.94177
3.3005	-7.85522
3.301	-4.12903
3.3015	-3.8269
3.302	-1.61133
3.3025	-0.20142
3.303	-3.8269
3.3035	-0.80566
3.304	-3.62549
3.3045	3.62549
3.305	10.17151
3.3055	9.76868
3.306	9.46655
3.3065	2.71912
3.307	5.33752
3.3075	8.66089
3.308	8.45947
3.3085	11.88354
3.309	13.99841
3.3095	13.19275
3.31	9.46655
3.3105	13.797
3.311	12.08496
3.3115	12.28638
3.312	8.15735
3.3125	5.53894
3.313	8.96301
3.3135	3.22266
3.314	8.66089
3.3145	3.62549
3.315	-0.80566
3.3155	0.50354
3.316	-2.92053
3.3165	-5.23682
3.317	-8.56018
3.3175	-6.2439
3.318	-3.52478
3.3185	-2.01416
3.319	-3.22266
3.3195	1.40991
3.32	3.62549
3.3205	4.53186
3.321	6.44531
3.3215	1.40991
3.322	-7.35168
3.3225	-6.64673
3.323	-7.75452
3.3235	-9.36584
3.324	-6.04248
3.3245	-1.3092
3.325	3.02124
3.3255	14.60266
3.326	24.06921
3.3265	23.16284
3.327	31.32019
3.3275	32.52869
3.328	17.32178
3.3285	-7.35168
3.329	-12.18567
3.3295	-16.51611
3.33	-17.42249
3.3305	-15.40833
3.331	-6.2439
3.3315	3.92761
3.332	11.38
3.3325	16.61682
3.333	24.57275
3.3335	26.28479
3.334	30.41382
3.3345	28.60107
3.335	21.3501
3.3355	19.83948
3.336	20.34302
3.3365	18.42957
3.337	19.33594
3.3375	14.90479
3.338	17.12036
3.3385	15.40833
3.339	20.84656
3.3395	13.797
3.34	3.8269
3.3405	1.40991
3.341	-3.42407
3.3415	1.61133
3.342	-6.04248
3.3425	-6.64673
3.343	-9.97009
3.3435	-4.63257
3.344	-3.62549
3.3445	-1.81274
3.345	-2.92053
3.3455	0
3.346	2.21558
3.3465	1.10779
3.347	4.43115
3.3475	4.12903
3.348	3.22266
3.3485	11.68213
3.349	8.25806
3.3495	3.32336
3.35	5.13611
3.3505	4.22974
3.351	12.48779
3.3515	13.49487
3.352	15.71045
3.3525	11.48071
3.353	15.81116
3.3535	10.87646
3.354	11.88354
3.3545	13.49487
3.355	17.42249
3.3555	15.40833
3.356	13.09204
3.3565	14.80408
3.357	7.75452
3.3575	6.3446
3.358	8.35876
3.3585	6.74744
3.359	13.59558
3.3595	8.25806
3.36	14.60266
3.3605	4.22974
3.361	14.90479
3.3615	11.17859
3.362	13.797
3.3625	16.3147
3.363	18.42957
3.3635	19.63806
3.364	14.50195
3.3645	4.93469
3.365	-6.44531
3.3655	2.31628
3.366	2.41699
3.3665	2.5177
3.367	2.31628
3.3675	7.25098
3.368	14.60266
3.3685	13.797
3.369	18.63098
3.3695	16.91895
3.37	12.28638
3.3705	9.26514
3.371	6.94885
3.3715	7.65381
3.372	4.83398
3.3725	-1.2085
3.373	-12.08496
3.3735	-4.83398
3.374	-13.09204
3.3745	-17.22107
3.375	-16.3147
3.3755	-6.14319
3.376	7.65381
3.3765	3.32336
3.377	8.35876
3.3775	5.84106
3.378	10.67505
3.3785	15.20691
3.379	6.14319
3.3795	4.02832
3.38	8.35876
3.3805	8.66089
3.381	9.46655
3.3815	5.23682
3.382	5.94177
3.3825	3.12195
3.383	-2.81982
3.3835	-9.97009
3.384	-11.78284
3.3845	-9.66797
3.385	-16.91895
3.3855	-14.60266
3.386	-4.22974
3.3865	-0.30212
3.387	-2.31628
3.3875	1.51062
3.388	-1.51062
3.3885	-0.40283
3.389	-3.62549
3.3895	-0.10071
3.39	5.33752
3.3905	1.91345
3.391	-0.50354
3.3915	-2.01416
3.392	-1.00708
3.3925	-2.41699
3.393	3.22266
3.3935	1.2085
3.394	-15.20691
3.3945	-22.35718
3.395	-27.29187
3.3955	-21.04797
3.396	-20.54443
3.3965	-5.23682
3.397	1.00708
3.3975	10.37292
3.398	20.74585
3.3985	21.55151
3.399	35.54993
3.3995	38.06763
3.4	37.06055
3.4005	36.4563
3.401	32.7301
3.4015	22.55859
3.402	24.57275
3.4025	17.22107
3.403	10.97717
3.4035	7.95593
3.404	4.83398
3.4045	6.84814
3.405	-2.71912
3.4055	-9.26514
3.406	0.10071
3.4065	3.32336
3.407	5.53894
3.4075	5.63965
3.408	7.35168
3.4085	9.76868
3.409	12.68921
3.4095	14.90479
3.41	17.72461
3.4105	22.05505
3.411	21.85364
3.4115	21.24939
3.412	20.04089
3.4125	20.64514
3.413	13.29346
3.4135	9.76868
3.414	10.0708
3.4145	3.42407
3.415	8.45947
3.4155	-0.60425
3.416	-3.32336
3.4165	-5.63965
3.417	-6.84814
3.4175	-0.60425
3.418	-5.0354
3.4185	-1.3092
3.419	-3.62549
3.4195	-6.74744
3.42	-7.04956
3.4205	-0.70496
3.421	-2.21558
3.4215	-8.45947
3.422	-4.53186
3.4225	-3.7262
3.423	-4.33044
3.4235	-1.3092
3.424	-2.01416
3.4245	2.11487
3.425	1.51062
3.4255	2.81982
3.426	1.91345
3.4265	-1.2085
3.427	-4.53186
3.4275	-0.30212
3.428	0.50354
3.4285	1.71204
3.429	6.44531
3.4295	7.65381
3.43	13.69629
3.4305	13.29346
3.431	11.88354
3.4315	18.12744
3.432	13.39417
3.4325	15.40833
3.433	19.33594
3.4335	15.71045
3.434	9.06372
3.4345	10.37292
3.435	9.86938
3.4355	17.42249
3.436	9.46655
3.4365	9.16443
3.437	13.797
3.4375	8.56018
3.438	13.19275
3.4385	10.47363
3.439	11.07788
3.4395	7.75452
3.44	8.8623
3.4405	9.26514
3.441	-2.71912
3.4415	-2.31628
3.442	0.60425
3.4425	4.12903
3.443	6.74744
3.4435	8.66089
3.444	6.84814
3.4445	0.90637
3.445	3.12195
3.4455	2.01416
3.446	4.63257
3.4465	6.04248
3.447	8.05664
3.4475	12.48779
3.448	-1.91345
3.4485	-15.91187
3.449	-17.82532
3.4495	-17.92603
3.45	-11.38
3.4505	-3.52478
3.451	7.04956
3.4515	9.56726
3.452	15.71045
3.4525	15.71045
3.453	27.39258
3.4535	31.4209
3.454	23.16284
3.4545	21.65222
3.455	19.73877
3.4555	21.55151
3.456	20.34302
3.4565	27.89612
3.457	22.86072
3.4575	26.58691
3.458	24.77417
3.4585	20.64514
3.459	13.09204
3.4595	5.94177
3.46	-0.50354
3.4605	-8.05664
3.461	-25.68054
3.4615	-36.95984
3.462	-39.47754
3.4625	-36.65771
3.463	-23.56567
3.4635	-9.16443
3.464	-2.21558
3.4645	12.28638
3.465	24.97559
3.4655	46.32568
3.466	56.5979
3.4665	66.16516
3.467	61.83472
3.4675	61.6333
3.468	46.5271
3.4685	35.95276
3.469	26.68762
3.4695	12.18567
3.47	9.16443
3.4705	13.797
3.471	13.797
3.4715	12.78992
3.472	14.80408
3.4725	11.68213
3.473	6.04248
3.4735	-4.73328
3.474	-12.99133
3.4745	-15.30762
3.475	-10.17151
3.4755	-10.27222
3.476	-1.2085
3.4765	-9.06372
3.477	1.2085
3.4775	-5.33752
3.478	-9.76868
3.4785	-16.51611
3.479	-15.91187
3.4795	-14.09912
3.48	-15.50903
3.4805	-11.58142
3.481	-8.66089
3.4815	-11.07788
3.482	-8.35876
3.4825	-6.04248
3.483	0.40283
3.4835	-2.31628
3.484	1.10779
3.4845	-3.62549
3.485	-2.61841
3.4855	-2.92053
3.486	2.71912
3.4865	0.40283
3.487	-0.20142
3.4875	-2.92053
3.488	-7.75452
3.4885	-1.40991
3.489	-4.63257
3.4895	-1.91345
3.49	-4.12903
3.4905	1.10779
3.491	9.76868
3.4915	7.45239
3.492	9.46655
3.4925	13.39417
3.493	10.57434
3.4935	7.65381
3.494	6.3446
3.4945	9.16443
3.495	6.04248
3.4955	5.84106
3.496	2.31628
3.4965	7.15027
3.497	3.22266
3.4975	2.21558
3.498	-3.62549
3.4985	0.50354
3.499	-2.21558
3.4995	-7.95593
3.5	-5.74036
3.5005	3.52478
3.501	7.25098
3.5015	2.11487
3.502	10.67505
3.5025	17.12036
3.503	13.797
3.5035	20.1416
3.504	22.55859
3.5045	24.16992
3.505	18.02673
3.5055	24.06921
3.506	22.86072
3.5065	23.8678
3.507	23.96851
3.5075	20.04089
3.508	17.72461
3.5085	12.08496
3.509	16.71753
3.5095	18.32886
3.51	18.32886
3.5105	18.32886
3.511	11.58142
3.5115	12.48779
3.512	2.61841
3.5125	4.33044
3.513	4.12903
3.5135	5.94177
3.514	11.68213
3.5145	13.797
3.515	14.40125
3.5155	14.80408
3.516	15.00549
3.5165	14.80408
3.517	10.0708
3.5175	10.97717
3.518	-0.90637
3.5185	3.42407
3.519	-1.2085
3.5195	6.44531
3.52	5.74036
3.5205	-0.50354
3.521	-0.60425
3.5215	-3.02124
3.522	4.43115
3.5225	-1.61133
3.523	0.40283
3.5235	0.60425
3.524	1.10779
3.5245	4.02832
3.525	2.41699
3.5255	2.61841
3.526	1.71204
3.5265	4.43115
3.527	4.43115
3.5275	-2.01416
3.528	10.77576
3.5285	17.52319
3.529	8.35876
3.5295	-6.94885
3.53	-18.63098
3.5305	-31.21948
3.531	-27.79541
3.5315	-21.04797
3.532	-13.69629
3.5325	-2.81982
3.533	7.25098
3.5335	24.16992
3.534	32.7301
3.5345	40.88745
3.535	33.9386
3.5355	33.63647
3.536	33.03223
3.5365	29.80957
3.537	32.22656
3.5375	28.50037
3.538	27.59399
3.5385	24.16992
3.539	23.66638
3.5395	18.02673
3.54	15.1062
3.5405	5.63965
3.541	7.85522
3.5415	8.05664
3.542	6.64673
3.5425	2.41699
3.543	5.23682
3.5435	-3.62549
3.544	-20.1416
3.5445	-45.82214
3.545	-49.34692
3.5455	-51.05896
3.546	-42.39807
3.5465	-29.10461
3.547	-25.78125
3.5475	-8.45947
3.548	-2.5177
3.5485	10.0708
3.549	15.20691
3.5495	21.14868
3.55	9.56726
3.5505	-2.11487
3.551	2.5177
3.5515	-4.63257
3.552	4.02832
3.5525	6.94885
3.553	8.56018
3.5535	6.74744
3.554	12.68921
3.5545	16.61682
3.555	16.11328
3.5555	15.91187
3.556	15.50903
3.5565	10.67505
3.557	10.27222
3.5575	7.04956
3.558	1.71204
3.5585	2.92053
3.559	3.8269
3.5595	2.71912
3.56	0.90637
3.5605	3.42407
3.561	2.5177
3.5615	2.81982
3.562	6.3446
3.5625	6.2439
3.563	5.23682
3.5635	12.5885
3.564	11.48071
3.5645	12.68921
3.565	13.59558
3.5655	17.12036
3.566	15.81116
3.5665	17.22107
3.567	21.55151
3.5675	18.42957
3.568	12.5885
3.5685	14.40125
3.569	13.89771
3.5695	20.1416
3.57	16.3147
3.5705	13.89771
3.571	10.47363
3.5715	9.36584
3.572	12.5885
3.5725	12.78992
3.573	5.53894
3.5735	3.32336
3.574	7.75452
3.5745	-3.8269
3.575	1.61133
3.5755	6.2439
3.576	6.2439
3.5765	5.33752
3.577	2.21558
3.5775	8.25806
3.578	9.66797
3.5785	7.85522
3.579	3.12195
3.5795	0.30212
3.58	0.50354
3.5805	1.40991
3.581	10.47363
3.5815	10.47363
3.582	7.35168
3.5825	5.74036
3.583	6.94885
3.5835	0.90637
3.584	1.51062
3.5845	0.30212
3.585	1.81274
3.5855	4.63257
3.586	7.04956
3.5865	0.30212
3.587	5.43823
3.5875	6.04248
3.588	2.81982
3.5885	3.62549
3.589	-2.21558
3.5895	3.52478
3.59	6.84814
3.5905	2.41699
3.591	2.21558
3.5915	8.25806
3.592	9.56726
3.5925	10.77576
3.593	15.1062
3.5935	7.04956
3.594	5.0354
3.5945	9.66797
3.595	7.35168
3.5955	8.56018
3.596	10.97717
3.5965	11.78284
3.597	16.51611
3.5975	24.47205
3.598	26.88904
3.5985	28.50037
3.599	28.9032
3.5995	26.98975
3.6	11.58142
3.6005	0.50354
3.601	-6.2439
3.6015	-10.97717
3.602	-17.01965
3.6025	-10.57434
3.603	-11.58142
3.6035	-1.81274
3.604	-5.63965
3.6045	-2.61841
3.605	1.2085
3.6055	-5.33752
3.606	-3.7262
3.6065	9.06372
3.607	8.05664
3.6075	14.80408
3.608	24.97559
3.6085	33.83789
3.609	39.98108
3.6095	35.44922
3.61	31.92444
3.6105	35.04639
3.611	31.32019
3.6115	32.93152
3.612	27.09045
3.6125	22.6593
3.613	14.60266
3.6135	8.15735
3.614	4.33044
3.6145	-0.60425
3.615	-5.63965
3.6155	-4.73328
3.616	-11.38
3.6165	-13.49487
3.617	-21.55151
3.6175	-10.47363
3.618	-5.13611
3.6185	-0.40283
3.619	-3.8269
3.6195	-3.8269
3.62	0.80566
3.6205	-13.69629
3.621	-7.04956
3.6215	-0.10071
3.622	13.69629
3.6225	14.09912
3.623	14.80408
3.6235	22.55859
3.624	18.42957
3.6245	6.44531
3.625	3.62549
3.6255	3.52478
3.626	-0.90637
3.6265	-7.75452
3.627	-11.48071
3.6275	-6.14319
3.628	-5.13611
3.6285	-8.8623
3.629	-3.22266
3.6295	-8.15735
3.63	-9.26514
3.6305	-0.70496
3.631	0.50354
3.6315	-2.61841
3.632	-12.28638
3.6325	-27.49329
3.633	-48.23914
3.6335	-45.41931
3.634	-42.8009
3.6345	-28.39966
3.635	-9.16443
3.6355	8.05664
3.636	-7.85522
3.6365	-22.15576
3.637	-20.74585
3.6375	-17.92603
3.638	-6.54602
3.6385	6.2439
3.639	14.60266
3.6395	30.01099
3.64	46.5271
3.6405	50.45471
3.641	53.77808
3.6415	57.8064
3.642	51.36108
3.6425	48.13843
3.643	33.83789
3.6435	29.30603
3.644	29.50745
3.6445	20.1416
3.645	7.25098
3.6455	3.42407
3.646	4.33044
3.6465	1.51062
3.647	-0.60425
3.6475	-8.8623
3.648	-6.94885
3.6485	-11.38
3.649	-10.37292
3.6495	-11.38
3.65	-6.44531
3.6505	-0.50354
3.651	-0.20142
3.6515	-3.12195
3.652	-8.7616
3.6525	-11.58142
3.653	-8.25806
3.6535	-7.75452
3.654	-5.53894
3.6545	-4.22974
3.655	0.80566
3.6555	2.41699
3.656	3.62549
3.6565	6.54602
3.657	6.04248
3.6575	6.54602
3.658	3.02124
3.6585	4.12903
3.659	11.68213
3.6595	10.57434
3.66	13.797
3.6605	17.6239
3.661	11.68213
3.6615	17.72461
3.662	13.99841
3.6625	16.61682
3.663	11.78284
3.6635	-3.22266
3.664	-12.28638
3.6645	-26.08337
3.665	-25.98267
3.6655	-24.16992
3.666	-14.90479
3.6665	0.80566
3.667	16.01257
3.6675	35.04639
3.668	45.2179
3.6685	63.24463
3.669	63.54675
3.6695	60.4248
3.67	56.49719
3.6705	43.60657
3.671	25.07629
3.6715	7.45239
3.672	3.42407
3.6725	-8.15735
3.673	-3.12195
3.6735	-1.10779
3.674	4.93469
3.6745	5.74036
3.675	6.64673
3.6755	3.8269
3.676	-4.12903
3.6765	-4.83398
3.677	-6.74744
3.6775	-7.95593
3.678	-10.0708
3.6785	-13.69629
3.679	-4.93469
3.6795	1.00708
3.68	6.74744
3.6805	3.8269
3.681	2.11487
3.6815	10.77576
3.682	9.97009
3.6825	8.7616
3.683	-2.61841
3.6835	-3.02124
3.684	-0.80566
3.6845	8.15735
3.685	4.83398
3.6855	-1.2085
3.686	-5.74036
3.6865	-10.97717
3.687	-7.04956
3.6875	-10.87646
3.688	-4.83398
3.6885	1.40991
3.689	2.31628
3.6895	-2.92053
3.69	-11.68213
3.6905	-6.74744
3.691	-4.63257
3.6915	2.61841
3.692	6.2439
3.6925	7.04956
3.693	8.56018
3.6935	3.92761
3.694	9.66797
3.6945	5.0354
3.695	7.35168
3.6955	1.61133
3.696	5.74036
3.6965	0.90637
3.697	4.93469
3.6975	1.61133
3.698	1.71204
3.6985	3.42407
3.699	-1.3092
3.6995	0.40283
3.7	0.30212
3.7005	7.65381
3.701	10.0708
3.7015	4.73328
3.702	4.63257
3.7025	4.22974
3.703	7.25098
3.7035	11.98425
3.704	20.84656
3.7045	15.40833
3.705	16.11328
3.7055	16.91895
3.706	18.53027
3.7065	18.63098
3.707	18.93311
3.7075	21.04797
3.708	18.63098
3.7085	21.95435
3.709	20.64514
3.7095	25.57983
3.71	26.3855
3.7105	21.85364
3.711	24.67346
3.7115	20.84656
3.712	15.00549
3.7125	-17.22107
3.713	-31.32019
3.7135	-35.85205
3.714	-35.14709
3.7145	-25.27771
3.715	-14.40125
3.7155	-7.25098
3.716	6.94885
3.7165	26.88904
3.717	28.19824
3.7175	21.14868
3.718	25.78125
3.7185	30.11169
3.719	28.60107
3.7195	21.04797
3.72	13.797
3.7205	6.2439
3.721	-2.92053
3.7215	-2.21558
3.722	-0.50354
3.7225	-0.30212
3.723	0.70496
3.7235	5.53894
3.724	8.8623
3.7245	7.04956
3.725	5.74036
3.7255	4.93469
3.726	0.60425
3.7265	1.61133
3.727	4.63257
3.7275	10.87646
3.728	9.36584
3.7285	-0.60425
3.729	-3.42407
3.7295	-1.71204
3.73	6.44531
3.7305	7.75452
3.731	8.96301
3.7315	10.17151
3.732	14.30054
3.7325	16.91895
3.733	12.38708
3.7335	12.5885
3.734	12.08496
3.7345	14.50195
3.735	8.45947
3.7355	11.07788
3.736	11.68213
3.7365	1.71204
3.737	2.61841
3.7375	-1.40991
3.738	-3.7262
3.7385	-7.04956
3.739	-1.51062
3.7395	7.65381
3.74	5.84106
3.7405	5.63965
3.741	6.84814
3.7415	-0.20142
3.742	-3.8269
3.7425	-5.63965
3.743	-2.01416
3.7435	-1.3092
3.744	0.50354
3.7445	5.53894
3.745	13.09204
3.7455	12.78992
3.746	15.20691
3.7465	20.24231
3.747	19.73877
3.7475	18.32886
3.748	17.32178
3.7485	15.00549
3.749	20.1416
3.7495	17.32178
3.75	18.42957
3.7505	9.46655
3.751	2.92053
3.7515	4.12903
3.752	0.80566
3.7525	1.61133
3.753	6.94885
3.7535	-2.21558
3.754	-3.52478
3.7545	-11.17859
3.755	-30.51453
3.7555	-40.58533
3.756	-38.87329
3.7565	-31.11877
3.757	-21.75293
3.7575	-8.35876
3.758	-41.39099
3.7585	-65.05737
3.759	-76.63879
3.7595	-71.30127
3.76	-54.98657
3.7605	-35.2478
3.761	-17.01965
3.7615	8.15735
3.762	24.27063
3.7625	43.30444
3.763	59.92126
3.7635	74.2218
3.764	79.15649
3.7645	72.9126
3.765	71.90552
3.7655	56.09436
3.766	50.45471
3.7665	39.47754
3.767	33.43506
3.7675	33.13293
3.768	28.70178
3.7685	30.61523
3.769	21.85364
3.7695	14.60266
3.77	4.63257
3.7705	1.40991
3.771	-0.30212
3.7715	-1.91345
3.772	2.92053
3.7725	1.10779
3.773	4.02832
3.7735	-3.52478
3.774	-0.70496
3.7745	-5.13611
3.775	-2.01416
3.7755	-1.71204
3.776	7.25098
3.7765	9.36584
3.777	6.54602
3.7775	10.47363
3.778	6.84814
3.7785	10.77576
3.779	10.27222
3.7795	4.63257
3.78	3.62549
3.7805	2.11487
3.781	6.84814
3.7815	4.43115
3.782	1.3092
3.7825	3.22266
3.783	4.02832
3.7835	1.10779
3.784	-5.33752
3.7845	-7.04956
3.785	-3.22266
3.7855	-1.61133
3.786	-4.33044
3.7865	-9.26514
3.787	-13.49487
3.7875	-5.63965
3.788	-3.7262
3.7885	-4.12903
3.789	-6.74744
3.7895	-4.83398
3.79	-0.80566
3.7905	-4.43115
3.791	0.40283
3.7915	-2.71912
3.792	0.80566
3.7925	-5.23682
3.793	1.81274
3.7935	4.12903
3.794	7.04956
3.7945	16.41541
3.795	22.55859
3.7955	25.37842
3.796	27.29187
3.7965	29.20532
3.797	26.3855
3.7975	31.11877
3.798	26.3855
3.7985	21.55151
3.799	26.58691
3.7995	22.45789
3.8	16.11328
3.8005	15.1062
3.801	14.19983
3.8015	11.98425
3.802	11.58142
3.8025	11.17859
3.803	6.14319
3.8035	8.7616
3.804	5.84106
3.8045	8.45947
3.805	11.58142
3.8055	2.81982
3.806	2.92053
3.8065	5.0354
3.807	4.12903
3.8075	9.66797
3.808	6.04248
3.8085	6.2439
3.809	2.5177
3.8095	-3.52478
3.81	-3.12195
3.8105	5.84106
3.811	0.30212
3.8115	-4.12903
3.812	-2.41699
3.8125	6.94885
3.813	7.45239
3.8135	3.22266
3.814	7.04956
3.8145	10.27222
3.815	12.5885
3.8155	14.19983
3.816	16.71753
3.8165	16.41541
3.817	8.15735
3.8175	8.35876
3.818	4.33044
3.8185	6.74744
3.819	-2.71912
3.8195	0.70496
3.82	-0.30212
3.8205	-0.20142
3.821	5.0354
3.8215	6.44531
3.822	5.94177
3.8225	5.63965
3.823	2.31628
3.8235	3.52478
3.824	9.06372
3.8245	6.54602
3.825	4.73328
3.8255	-3.42407
3.826	-8.8623
3.8265	-8.8623
3.827	-6.84814
3.8275	-2.31628
3.828	-5.13611
3.8285	-1.2085
3.829	-9.16443
3.8295	-7.35168
3.83	-3.12195
3.8305	-3.12195
3.831	-5.84106
3.8315	-1.91345
3.832	1.71204
3.8325	2.92053
3.833	3.7262
3.8335	2.41699
3.834	6.54602
3.8345	-2.31628
3.835	2.01416
3.8355	0.70496
3.836	-1.51062
3.8365	5.0354
3.837	5.53894
3.8375	0.60425
3.838	10.77576
3.8385	11.2793
3.839	8.96301
3.8395	5.53894
3.84	8.25806
3.8405	3.42407
3.841	2.61841
3.8415	1.51062
3.842	-0.40283
3.8425	0.60425
3.843	1.40991
3.8435	-3.22266
3.844	0.90637
3.8445	-4.63257
3.845	-3.22266
3.8455	-0.90637
3.846	0
3.8465	7.35168
3.847	2.71912
3.8475	7.75452
3.848	-0.10071
3.8485	-0.10071
3.849	4.83398
3.8495	-1.2085
3.85	6.74744
3.8505	7.25098
3.851	13.39417
3.8515	12.78992
3.852	20.54443
3.8525	15.91187
3.853	13.89771
3.8535	6.84814
3.854	0.70496
3.8545	2.21558
3.855	-6.2439
3.8555	-2.5177
3.856	-7.04956
3.8565	-1.91345
3.857	-3.02124
3.8575	1.2085
3.858	8.45947
3.8585	13.29346
3.859	17.42249
3.8595	15.20691
3.86	22.76001
3.8605	21.55151
3.861	16.61682
3.8615	17.6239
3.862	21.65222
3.8625	15.20691
3.863	0.80566
3.8635	-26.88904
3.864	-45.2179
3.8645	-64.95667
3.865	-53.17383
3.8655	-40.78674
3.866	-24.06921
3.8665	0.30212
3.867	29.50745
3.8675	37.06055
3.868	44.81506
3.8685	47.23206
3.869	65.3595
3.8695	70.49561
3.87	73.31543
3.8705	68.68286
3.871	58.71277
3.8715	45.92285
3.872	32.12585
3.8725	25.07629
3.873	14.50195
3.8735	8.56018
3.874	9.97009
3.8745	-0.50354
3.875	-6.3446
3.8755	-10.67505
3.876	-13.99841
3.8765	-23.26355
3.877	-30.01099
3.8775	-34.84497
3.878	-23.66638
3.8785	-29.60815
3.879	-37.46338
3.8795	-32.22656
3.88	-26.78833
3.8805	-14.19983
3.881	-13.39417
3.8815	1.51062
3.882	5.33752
3.8825	7.15027
3.883	5.84106
3.8835	6.54602
3.884	10.87646
3.8845	5.43823
3.885	2.92053
3.8855	-2.61841
3.886	4.83398
3.8865	4.73328
3.887	4.33044
3.8875	-1.10779
3.888	-0.10071
3.8885	5.53894
3.889	5.94177
3.8895	3.22266
3.89	7.15027
3.8905	2.01416
3.891	7.5531
3.8915	-3.62549
3.892	0.80566
3.8925	3.42407
3.893	5.33752
3.8935	-0.70496
3.894	5.23682
3.8945	4.43115
3.895	2.31628
3.8955	-1.81274
3.896	2.61841
3.8965	4.53186
3.897	8.25806
3.8975	12.38708
3.898	19.94019
3.8985	24.87488
3.899	25.37842
3.8995	29.70886
3.9	34.03931
3.9005	33.53577
3.901	34.03931
3.9015	19.94019
3.902	18.53027
3.9025	13.19275
3.903	16.61682
3.9035	11.2793
3.904	5.84106
3.9045	-0.90637
3.905	5.0354
3.9055	-4.73328
3.906	-8.05664
3.9065	-8.05664
3.907	-12.89062
3.9075	-10.47363
3.908	-2.21558
3.9085	2.5177
3.909	1.3092
3.9095	1.10779
3.91	2.31628
3.9105	4.63257
3.911	10.47363
3.9115	4.93469
3.912	3.12195
3.9125	6.14319
3.913	11.78284
3.9135	16.3147
3.914	18.32886
3.9145	14.90479
3.915	3.7262
3.9155	11.88354
3.916	4.12903
3.9165	6.2439
3.917	0.90637
3.9175	-7.5531
3.918	-11.48071
3.9185	-8.96301
3.919	-5.33752
3.9195	-3.7262
3.92	-4.93469
3.9205	-11.78284
3.921	-16.91895
3.9215	-22.05505
3.922	-17.22107
3.9225	-8.25806
3.923	-10.47363
3.9235	-3.32336
3.924	4.22974
3.9245	12.28638
3.925	4.12903
3.9255	-2.61841
3.926	-4.43115
3.9265	-6.04248
3.927	2.11487
3.9275	-0.40283
3.928	-0.30212
3.9285	-0.50354
3.929	-1.00708
3.9295	2.31628
3.93	3.42407
3.9305	-0.50354
3.931	-1.10779
3.9315	0.10071
3.932	-2.92053
3.9325	0.90637
3.933	1.71204
3.9335	-1.51062
3.934	-0.60425
3.9345	1.2085
3.935	-0.90637
3.9355	-3.8269
3.936	-10.67505
3.9365	-6.3446
3.937	-3.52478
3.9375	-1.61133
3.938	1.51062
3.9385	7.35168
3.939	-0.90637
3.9395	9.26514
3.94	7.35168
3.9405	6.04248
3.941	9.66797
3.9415	10.77576
3.942	7.65381
3.9425	11.58142
3.943	-2.92053
3.9435	-46.72852
3.944	-75.53101
3.9445	-79.76074
3.945	-78.85437
3.9455	-68.78357
3.946	-41.79382
3.9465	-15.50903
3.947	11.07788
3.9475	25.47913
3.948	32.12585
3.9485	5.53894
3.949	2.31628
3.9495	14.90479
3.95	34.14001
3.9505	49.14551
3.951	59.51843
3.9515	65.15808
3.952	79.96216
3.9525	94.96765
3.953	105.6427
3.9535	105.54199
3.954	102.92358
3.9545	89.42871
3.955	73.51685
3.9555	66.06445
3.956	58.20923
3.9565	43.60657
3.957	25.37842
3.9575	16.51611
3.958	9.16443
3.9585	3.22266
3.959	-4.22974
3.9595	-7.35168
3.96	-8.66089
3.9605	-17.6239
3.961	-22.86072
3.9615	-30.71594
3.962	-31.21948
3.9625	-20.24231
3.963	-18.12744
3.9635	-5.33752
3.964	-5.13611
3.9645	-2.41699
3.965	2.61841
3.9655	-1.10779
3.966	-1.81274
3.9665	-4.63257
3.967	-8.45947
3.9675	-7.85522
3.968	-6.64673
3.9685	-4.63257
3.969	1.10779
3.9695	0.30212
3.97	-5.43823
3.9705	-13.19275
3.971	-3.7262
3.9715	4.22974
3.972	6.64673
3.9725	1.71204
3.973	7.5531
3.9735	13.29346
3.974	13.19275
3.9745	19.73877
3.975	24.06921
3.9755	28.80249
3.976	21.75293
3.9765	20.84656
3.977	15.60974
3.9775	6.3446
3.978	2.31628
3.9785	-6.44531
3.979	-6.3446
3.9795	-10.57434
3.98	-5.13611
3.9805	-9.56726
3.981	-4.22974
3.9815	1.40991
3.982	2.21558
3.9825	5.23682
3.983	6.54602
3.9835	7.04956
3.984	1.91345
3.9845	7.45239
3.985	11.98425
3.9855	1.81274
3.986	5.53894
3.9865	-3.32336
3.987	-1.61133
3.9875	-1.10779
3.988	1.81274
3.9885	2.11487
3.989	3.12195
3.9895	3.22266
3.99	3.52478
3.9905	13.89771
3.991	6.3446
3.9915	11.88354
3.992	10.57434
3.9925	11.98425
3.993	6.64673
3.9935	2.41699
3.994	3.8269
3.9945	-5.63965
3.995	-0.40283
3.9955	2.81982
3.996	6.44531
3.9965	10.57434
3.997	8.66089
3.9975	15.91187
3.998	15.40833
3.9985	15.91187
3.999	23.56567
3.9995	18.22815
4	14.80408
4.0005	3.7262
4.001	2.81982
4.0015	3.42407
4.002	5.23682
4.0025	0.70496
4.003	1.00708
4.0035	0
4.004	-0.20142
4.0045	-3.02124
4.005	-4.33044
4.0055	-8.8623
4.006	-13.09204
4.0065	-16.11328
4.007	-18.63098
4.0075	-13.29346
4.008	-10.0708
4.0085	-5.43823
4.009	8.15735
4.0095	8.25806
4.01	12.5885
4.0105	11.17859
4.011	16.81824
4.0115	15.50903
4.012	10.0708
4.0125	9.66797
4.013	11.2793
4.0135	14.19983
4.014	15.30762
4.0145	14.50195
4.015	16.91895
4.0155	15.50903
4.016	13.49487
4.0165	11.2793
4.017	12.18567
4.0175	7.45239
4.018	8.66089
4.0185	7.35168
4.019	9.36584
4.0195	11.78284
4.02	12.28638
