Gabriele_Carluccio_Right_1.c3d  



Time(s):	C_R_bicipite(μV):
0	-2.5177
0.0005	1.3092
0.001	-1.51062
0.0015	-2.21558
0.002	-0.10071
0.0025	2.81982
0.003	4.43115
0.0035	7.15027
0.004	1.2085
0.0045	0.60425
0.005	7.04956
0.0055	8.25806
0.006	2.01416
0.0065	2.92053
0.007	-0.30212
0.0075	2.81982
0.008	-1.40991
0.0085	-1.81274
0.009	2.11487
0.0095	6.14319
0.01	2.31628
0.0105	4.53186
0.011	-2.81982
0.0115	6.84814
0.012	1.71204
0.0125	5.23682
0.013	1.00708
0.0135	4.63257
0.014	0.30212
0.0145	-0.30212
0.015	1.3092
0.0155	3.12195
0.016	-0.50354
0.0165	-0.70496
0.017	-2.31628
0.0175	-0.40283
0.018	2.21558
0.0185	-4.53186
0.019	-2.41699
0.0195	-3.12195
0.02	-1.71204
0.0205	3.62549
0.021	-1.3092
0.0215	-0.10071
0.022	1.10779
0.0225	4.83398
0.023	0.70496
0.0235	-1.81274
0.024	5.43823
0.0245	-0.70496
0.025	-2.11487
0.0255	-4.93469
0.026	1.91345
0.0265	-6.2439
0.027	1.2085
0.0275	-4.33044
0.028	-1.51062
0.0285	3.02124
0.029	5.0354
0.0295	4.93469
0.03	-0.20142
0.0305	-1.51062
0.031	-3.7262
0.0315	-2.61841
0.032	1.00708
0.0325	2.41699
0.033	3.62549
0.0335	1.3092
0.034	4.02832
0.0345	0.90637
0.035	2.71912
0.0355	-2.5177
0.036	2.01416
0.0365	-5.0354
0.037	-4.93469
0.0375	-1.51062
0.038	3.02124
0.0385	-1.71204
0.039	3.22266
0.0395	-0.30212
0.04	2.11487
0.0405	-2.41699
0.041	-2.01416
0.0415	1.51062
0.042	-1.71204
0.0425	2.71912
0.043	-0.30212
0.0435	0.40283
0.044	-0.60425
0.0445	-2.61841
0.045	-4.12903
0.0455	-3.8269
0.046	-4.93469
0.0465	-2.01416
0.047	2.11487
0.0475	-3.02124
0.048	-6.04248
0.0485	-2.71912
0.049	-1.40991
0.0495	-0.70496
0.05	-3.92761
0.0505	-4.73328
0.051	-3.22266
0.0515	-5.33752
0.052	-7.65381
0.0525	-6.14319
0.053	-3.02124
0.0535	-1.91345
0.054	-2.61841
0.0545	-5.23682
0.055	2.01416
0.0555	-0.50354
0.056	-1.3092
0.0565	-2.5177
0.057	3.52478
0.0575	-1.3092
0.058	0.70496
0.0585	-2.41699
0.059	-1.2085
0.0595	-5.74036
0.06	-6.14319
0.0605	-5.13611
0.061	-3.8269
0.0615	-7.45239
0.062	-4.22974
0.0625	4.33044
0.063	0.40283
0.0635	2.5177
0.064	2.21558
0.0645	-6.74744
0.065	-8.7616
0.0655	-1.2085
0.066	-6.74744
0.0665	-7.45239
0.067	-7.65381
0.0675	-4.22974
0.068	-7.5531
0.0685	-7.25098
0.069	-8.96301
0.0695	-6.64673
0.07	-7.85522
0.0705	-10.77576
0.071	-10.87646
0.0715	-5.0354
0.072	-2.01416
0.0725	-1.51062
0.073	0
0.0735	0.10071
0.074	-1.2085
0.0745	-3.22266
0.075	-10.77576
0.0755	-8.7616
0.076	-5.94177
0.0765	-4.22974
0.077	-1.10779
0.0775	-5.0354
0.078	1.00708
0.0785	-0.90637
0.079	-5.53894
0.0795	1.00708
0.08	-1.91345
0.0805	-2.61841
0.081	-3.7262
0.0815	0.10071
0.082	-8.66089
0.0825	1.00708
0.083	-5.84106
0.0835	-3.42407
0.084	-0.90637
0.0845	-2.61841
0.085	-4.33044
0.0855	-4.73328
0.086	0.50354
0.0865	0.80566
0.087	-3.12195
0.0875	-1.2085
0.088	1.51062
0.0885	3.92761
0.089	3.7262
0.0895	2.01416
0.09	-1.2085
0.0905	-0.50354
0.091	6.94885
0.0915	3.12195
0.092	3.52478
0.0925	-0.30212
0.093	2.11487
0.0935	-0.90637
0.094	4.02832
0.0945	-1.3092
0.095	0
0.0955	-1.3092
0.096	-4.63257
0.0965	1.2085
0.097	-3.92761
0.0975	-1.71204
0.098	2.31628
0.0985	-0.50354
0.099	4.93469
0.0995	3.52478
0.1	2.41699
0.1005	-1.00708
0.101	1.51062
0.1015	-0.40283
0.102	2.01416
0.1025	-1.91345
0.103	-2.01416
0.1035	-4.53186
0.104	-1.91345
0.1045	-0.30212
0.105	0.80566
0.1055	-3.42407
0.106	-5.53894
0.1065	-0.80566
0.107	-1.71204
0.1075	0.90637
0.108	-1.10779
0.1085	1.61133
0.109	5.0354
0.1095	2.5177
0.11	1.71204
0.1105	2.71912
0.111	-0.10071
0.1115	-0.60425
0.112	-1.91345
0.1125	2.5177
0.113	-0.70496
0.1135	4.63257
0.114	1.81274
0.1145	2.11487
0.115	-1.2085
0.1155	4.73328
0.116	7.15027
0.1165	3.12195
0.117	0.40283
0.1175	7.35168
0.118	4.12903
0.1185	-0.60425
0.119	-0.60425
0.1195	0.40283
0.12	-0.90637
0.1205	-1.61133
0.121	-0.60425
0.1215	-4.12903
0.122	-5.23682
0.1225	0
0.123	-5.53894
0.1235	-0.80566
0.124	-0.20142
0.1245	1.10779
0.125	-1.00708
0.1255	-5.43823
0.126	1.91345
0.1265	-1.51062
0.127	-1.61133
0.1275	1.81274
0.128	-1.81274
0.1285	-3.22266
0.129	-4.53186
0.1295	-6.74744
0.13	-1.3092
0.1305	0.10071
0.131	0.90637
0.1315	-2.41699
0.132	-7.04956
0.1325	1.3092
0.133	-3.32336
0.1335	2.01416
0.134	2.71912
0.1345	-6.2439
0.135	-3.8269
0.1355	0.60425
0.136	0.10071
0.1365	3.42407
0.137	-3.62549
0.1375	-1.2085
0.138	-0.10071
0.1385	2.11487
0.139	-0.70496
0.1395	-1.2085
0.14	-5.43823
0.1405	-6.2439
0.141	0.20142
0.1415	-1.3092
0.142	-2.11487
0.1425	-2.11487
0.143	2.81982
0.1435	-1.81274
0.144	0.40283
0.1445	6.04248
0.145	4.93469
0.1455	-0.80566
0.146	-1.40991
0.1465	-0.40283
0.147	2.01416
0.1475	-0.40283
0.148	-0.80566
0.1485	-2.71912
0.149	0.20142
0.1495	-1.51062
0.15	-3.12195
0.1505	-5.23682
0.151	-1.81274
0.1515	0.10071
0.152	2.81982
0.1525	3.92761
0.153	3.62549
0.1535	-0.10071
0.154	-2.21558
0.1545	-0.90637
0.155	3.42407
0.1555	-2.5177
0.156	-0.80566
0.1565	-0.30212
0.157	-0.70496
0.1575	-3.12195
0.158	-4.53186
0.1585	-6.54602
0.159	-8.35876
0.1595	-2.81982
0.16	-0.90637
0.1605	-1.00708
0.161	-3.02124
0.1615	-4.93469
0.162	-3.62549
0.1625	-1.61133
0.163	-5.13611
0.1635	-5.74036
0.164	0.10071
0.1645	-4.33044
0.165	-1.40991
0.1655	-4.53186
0.166	-7.35168
0.1665	-6.2439
0.167	-5.0354
0.1675	-1.00708
0.168	0.30212
0.1685	-2.61841
0.169	2.41699
0.1695	-1.2085
0.17	-2.11487
0.1705	-4.22974
0.171	-5.43823
0.1715	-3.92761
0.172	-4.12903
0.1725	-3.8269
0.173	2.71912
0.1735	3.8269
0.174	-1.40991
0.1745	-3.02124
0.175	-2.81982
0.1755	-1.51062
0.176	-1.71204
0.1765	6.64673
0.177	2.5177
0.1775	4.12903
0.178	-0.30212
0.1785	1.81274
0.179	1.51062
0.1795	2.01416
0.18	-0.30212
0.1805	-3.42407
0.181	0
0.1815	1.40991
0.182	2.81982
0.1825	0.30212
0.183	0.60425
0.1835	-6.54602
0.184	-2.92053
0.1845	-0.30212
0.185	-2.31628
0.1855	-3.22266
0.186	-5.94177
0.1865	-6.2439
0.187	-1.3092
0.1875	-2.11487
0.188	-2.11487
0.1885	-2.71912
0.189	-5.43823
0.1895	-0.30212
0.19	-0.20142
0.1905	-2.11487
0.191	-3.52478
0.1915	-6.44531
0.192	2.71912
0.1925	-3.22266
0.193	-0.30212
0.1935	-4.63257
0.194	0.60425
0.1945	4.83398
0.195	4.73328
0.1955	1.40991
0.196	0.60425
0.1965	-2.31628
0.197	3.62549
0.1975	-2.01416
0.198	-4.93469
0.1985	-0.60425
0.199	1.2085
0.1995	4.53186
0.2	-1.3092
0.2005	5.33752
0.201	-3.22266
0.2015	-3.12195
0.202	1.91345
0.2025	4.33044
0.203	-1.40991
0.2035	-6.74744
0.204	-4.53186
0.2045	2.21558
0.205	2.21558
0.2055	4.43115
0.206	6.54602
0.2065	2.5177
0.207	-4.93469
0.2075	-5.43823
0.208	0
0.2085	-1.61133
0.209	2.61841
0.2095	2.61841
0.21	-2.01416
0.2105	-1.40991
0.211	1.51062
0.2115	-2.81982
0.212	3.52478
0.2125	-1.40991
0.213	1.3092
0.2135	3.7262
0.214	-1.71204
0.2145	-2.21558
0.215	0.10071
0.2155	3.02124
0.216	2.11487
0.2165	4.43115
0.217	1.81274
0.2175	-3.12195
0.218	-2.21558
0.2185	-0.30212
0.219	9.06372
0.2195	2.81982
0.22	5.63965
0.2205	8.25806
0.221	4.73328
0.2215	-0.50354
0.222	4.43115
0.2225	8.35876
0.223	0.20142
0.2235	-1.71204
0.224	0.10071
0.2245	2.92053
0.225	0.40283
0.2255	-1.81274
0.226	0.70496
0.2265	6.14319
0.227	-5.0354
0.2275	-1.00708
0.228	2.61841
0.2285	-1.2085
0.229	-3.62549
0.2295	-0.70496
0.23	-5.74036
0.2305	-1.81274
0.231	-4.12903
0.2315	-4.12903
0.232	1.71204
0.2325	1.61133
0.233	-4.93469
0.2335	2.61841
0.234	-3.12195
0.2345	4.22974
0.235	2.21558
0.2355	0.90637
0.236	2.01416
0.2365	-2.11487
0.237	1.61133
0.2375	1.61133
0.238	1.10779
0.2385	-2.61841
0.239	3.92761
0.2395	2.41699
0.24	2.31628
0.2405	0.40283
0.241	1.00708
0.2415	6.44531
0.242	5.63965
0.2425	-2.31628
0.243	-2.61841
0.2435	0
0.244	3.32336
0.2445	-1.2085
0.245	-3.62549
0.2455	-2.21558
0.246	-1.71204
0.2465	-6.74744
0.247	-4.63257
0.2475	-7.75452
0.248	-9.66797
0.2485	-5.63965
0.249	-3.7262
0.2495	-4.73328
0.25	-0.20142
0.2505	-0.70496
0.251	0.90637
0.2515	-1.3092
0.252	-2.92053
0.2525	-0.50354
0.253	0
0.2535	-0.30212
0.254	-1.91345
0.2545	-4.73328
0.255	-1.51062
0.2555	3.7262
0.256	0.30212
0.2565	6.2439
0.257	-0.20142
0.2575	-0.10071
0.258	-1.00708
0.2585	-2.11487
0.259	-1.10779
0.2595	-1.61133
0.26	0.90637
0.2605	0
0.261	0.90637
0.2615	-5.23682
0.262	3.02124
0.2625	5.33752
0.263	5.33752
0.2635	4.12903
0.264	0.60425
0.2645	-6.04248
0.265	2.31628
0.2655	-3.02124
0.266	2.71912
0.2665	1.3092
0.267	2.71912
0.2675	2.61841
0.268	1.71204
0.2685	-1.3092
0.269	0.40283
0.2695	0.80566
0.27	2.31628
0.2705	5.53894
0.271	0.20142
0.2715	4.02832
0.272	-5.63965
0.2725	0.70496
0.273	0.30212
0.2735	5.0354
0.274	3.42407
0.2745	1.40991
0.275	-0.10071
0.2755	-3.22266
0.276	0.10071
0.2765	-0.90637
0.277	2.11487
0.2775	5.0354
0.278	6.84814
0.2785	3.62549
0.279	-0.40283
0.2795	3.22266
0.28	-6.3446
0.2805	-6.2439
0.281	0.20142
0.2815	0.60425
0.282	-2.61841
0.2825	-1.91345
0.283	-6.14319
0.2835	-6.54602
0.284	-2.92053
0.2845	4.43115
0.285	2.41699
0.2855	5.63965
0.286	-0.80566
0.2865	0.60425
0.287	-2.11487
0.2875	3.22266
0.288	1.91345
0.2885	4.53186
0.289	5.94177
0.2895	3.32336
0.29	-3.02124
0.2905	0
0.291	-3.32336
0.2915	-3.32336
0.292	0.20142
0.2925	-5.53894
0.293	-3.42407
0.2935	0.60425
0.294	-4.53186
0.2945	-1.61133
0.295	0.40283
0.2955	-3.12195
0.296	0
0.2965	-4.43115
0.297	-3.12195
0.2975	1.3092
0.298	1.00708
0.2985	-4.02832
0.299	-8.56018
0.2995	-4.93469
0.3	-5.74036
0.3005	1.00708
0.301	2.5177
0.3015	-2.81982
0.302	-1.71204
0.3025	-3.8269
0.303	-4.83398
0.3035	-4.12903
0.304	-3.02124
0.3045	-3.32336
0.305	0.30212
0.3055	0.90637
0.306	-1.40991
0.3065	0.20142
0.307	0.90637
0.3075	-0.30212
0.308	-0.20142
0.3085	-0.30212
0.309	-1.71204
0.3095	3.12195
0.31	0
0.3105	0.40283
0.311	-5.53894
0.3115	-4.63257
0.312	0.50354
0.3125	0.20142
0.313	-0.90637
0.3135	-3.22266
0.314	-5.43823
0.3145	-5.33752
0.315	-5.23682
0.3155	2.01416
0.316	0.10071
0.3165	-0.70496
0.317	-0.70496
0.3175	1.51062
0.318	-0.80566
0.3185	-1.10779
0.319	-4.93469
0.3195	-3.32336
0.32	-0.60425
0.3205	0.70496
0.321	-0.80566
0.3215	-3.12195
0.322	1.10779
0.3225	-2.71912
0.323	1.71204
0.3235	0.60425
0.324	-0.70496
0.3245	-2.01416
0.325	-2.31628
0.3255	-1.40991
0.326	-3.7262
0.3265	-1.81274
0.327	1.91345
0.3275	1.3092
0.328	1.3092
0.3285	2.61841
0.329	-2.5177
0.3295	-2.31628
0.33	-0.70496
0.3305	-3.92761
0.331	1.71204
0.3315	-1.61133
0.332	-2.41699
0.3325	-2.01416
0.333	-6.44531
0.3335	0.90637
0.334	-2.11487
0.3345	2.01416
0.335	-2.92053
0.3355	0
0.336	-5.13611
0.3365	-1.40991
0.337	1.3092
0.3375	5.13611
0.338	0.50354
0.3385	-2.92053
0.339	1.61133
0.3395	1.51062
0.34	-2.01416
0.3405	-3.7262
0.341	1.40991
0.3415	-2.21558
0.342	3.62549
0.3425	1.2085
0.343	-1.00708
0.3435	-2.01416
0.344	-4.22974
0.3445	0.30212
0.345	-4.63257
0.3455	0
0.346	-2.21558
0.3465	-1.10779
0.347	-4.12903
0.3475	-0.90637
0.348	-4.73328
0.3485	1.10779
0.349	-5.84106
0.3495	-5.33752
0.35	-1.10779
0.3505	1.71204
0.351	1.10779
0.3515	0.20142
0.352	0.70496
0.3525	-0.10071
0.353	-3.8269
0.3535	-0.10071
0.354	-0.40283
0.3545	-2.21558
0.355	-1.00708
0.3555	-0.60425
0.356	-5.84106
0.3565	-2.61841
0.357	-3.8269
0.3575	-7.45239
0.358	-2.81982
0.3585	-3.32336
0.359	-2.21558
0.3595	0.60425
0.36	1.10779
0.3605	-0.60425
0.361	1.81274
0.3615	-3.52478
0.362	-3.42407
0.3625	-3.92761
0.363	-4.02832
0.3635	-0.30212
0.364	-1.61133
0.3645	-1.71204
0.365	-1.51062
0.3655	-1.40991
0.366	-3.62549
0.3665	0
0.367	-4.93469
0.3675	-0.30212
0.368	1.51062
0.3685	-3.42407
0.369	-1.51062
0.3695	0.20142
0.37	-2.31628
0.3705	-0.20142
0.371	-0.10071
0.3715	-0.70496
0.372	0.10071
0.3725	0.90637
0.373	2.61841
0.3735	3.7262
0.374	-1.2085
0.3745	-4.12903
0.375	-1.61133
0.3755	3.02124
0.376	4.02832
0.3765	3.12195
0.377	-0.30212
0.3775	-0.60425
0.378	1.40991
0.3785	2.11487
0.379	3.42407
0.3795	2.01416
0.38	0.80566
0.3805	-1.00708
0.381	-0.20142
0.3815	-0.80566
0.382	2.61841
0.3825	-2.81982
0.383	-1.61133
0.3835	-2.01416
0.384	-1.3092
0.3845	0.10071
0.385	1.81274
0.3855	-3.12195
0.386	-4.93469
0.3865	-5.53894
0.387	-3.62549
0.3875	-5.0354
0.388	-3.62549
0.3885	-6.54602
0.389	-3.92761
0.3895	-8.35876
0.39	-0.60425
0.3905	-1.3092
0.391	-1.00708
0.3915	0.30212
0.392	-4.22974
0.3925	-2.5177
0.393	-3.32336
0.3935	-2.81982
0.394	-0.30212
0.3945	-1.00708
0.395	0.60425
0.3955	0.20142
0.396	-4.53186
0.3965	-3.7262
0.397	0.60425
0.3975	2.92053
0.398	1.3092
0.3985	-1.00708
0.399	-3.42407
0.3995	-0.70496
0.4	4.63257
0.4005	8.05664
0.401	6.14319
0.4015	5.23682
0.402	-2.11487
0.4025	3.52478
0.403	5.13611
0.4035	3.02124
0.404	-0.90637
0.4045	2.81982
0.405	1.40991
0.4055	-0.30212
0.406	-2.81982
0.4065	-2.5177
0.407	-1.10779
0.4075	0
0.408	3.02124
0.4085	5.84106
0.409	-0.70496
0.4095	3.7262
0.41	1.10779
0.4105	-2.5177
0.411	1.40991
0.4115	3.92761
0.412	4.93469
0.4125	-0.90637
0.413	0.10071
0.4135	1.61133
0.414	2.31628
0.4145	5.13611
0.415	4.02832
0.4155	-0.20142
0.416	-1.00708
0.4165	2.92053
0.417	3.12195
0.4175	0.80566
0.418	4.83398
0.4185	4.73328
0.419	4.33044
0.4195	3.7262
0.42	4.83398
0.4205	-0.20142
0.421	2.71912
0.4215	-0.70496
0.422	-2.21558
0.4225	-2.11487
0.423	0.90637
0.4235	-2.92053
0.424	-4.73328
0.4245	-4.53186
0.425	-1.3092
0.4255	-3.02124
0.426	-0.40283
0.4265	-5.33752
0.427	-3.02124
0.4275	-3.12195
0.428	-3.02124
0.4285	0.10071
0.429	2.31628
0.4295	-2.61841
0.43	1.51062
0.4305	-2.31628
0.431	0.30212
0.4315	2.41699
0.432	-2.5177
0.4325	-2.01416
0.433	3.22266
0.4335	1.61133
0.434	4.12903
0.4345	2.11487
0.435	-2.5177
0.4355	5.63965
0.436	-1.81274
0.4365	0.30212
0.437	-3.02124
0.4375	-0.70496
0.438	-1.40991
0.4385	2.61841
0.439	0.40283
0.4395	-1.61133
0.44	-1.2085
0.4405	-2.01416
0.441	1.3092
0.4415	-1.3092
0.442	-2.41699
0.4425	1.40991
0.443	4.73328
0.4435	0.80566
0.444	0
0.4445	4.83398
0.445	5.63965
0.4455	0.30212
0.446	8.15735
0.4465	2.92053
0.447	1.51062
0.4475	1.71204
0.448	2.61841
0.4485	5.84106
0.449	6.04248
0.4495	-0.50354
0.45	1.71204
0.4505	1.51062
0.451	3.92761
0.4515	1.51062
0.452	-1.91345
0.4525	1.40991
0.453	1.3092
0.4535	-5.23682
0.454	-1.81274
0.4545	2.81982
0.455	2.61841
0.4555	-0.30212
0.456	0
0.4565	1.2085
0.457	-2.21558
0.4575	-1.51062
0.458	0.10071
0.4585	-4.93469
0.459	-2.31628
0.4595	-7.5531
0.46	-6.54602
0.4605	-5.84106
0.461	-4.02832
0.4615	-6.94885
0.462	-0.90637
0.4625	-1.00708
0.463	-1.91345
0.4635	-1.10779
0.464	4.12903
0.4645	-0.20142
0.465	-0.40283
0.4655	-3.22266
0.466	4.02832
0.4665	-1.3092
0.467	1.00708
0.4675	0.50354
0.468	2.21558
0.4685	0.50354
0.469	-1.10779
0.4695	-0.40283
0.47	-6.74744
0.4705	0.20142
0.471	-1.61133
0.4715	1.40991
0.472	1.10779
0.4725	-2.11487
0.473	-1.10779
0.4735	4.33044
0.474	-0.30212
0.4745	-2.11487
0.475	-1.10779
0.4755	2.61841
0.476	3.8269
0.4765	1.61133
0.477	-2.31628
0.4775	0.50354
0.478	0.10071
0.4785	-0.50354
0.479	7.45239
0.4795	3.92761
0.48	3.12195
0.4805	1.2085
0.481	3.52478
0.4815	4.73328
0.482	2.92053
0.4825	6.74744
0.483	3.52478
0.4835	0.40283
0.484	1.3092
0.4845	-0.40283
0.485	1.71204
0.4855	-0.40283
0.486	2.01416
0.4865	-5.13611
0.487	1.2085
0.4875	-3.7262
0.488	-8.7616
0.4885	1.00708
0.489	-1.51062
0.4895	-0.30212
0.49	0.30212
0.4905	2.41699
0.491	1.81274
0.4915	-1.10779
0.492	-0.70496
0.4925	-3.62549
0.493	-2.01416
0.4935	-2.41699
0.494	-3.92761
0.4945	5.74036
0.495	0.90637
0.4955	0.70496
0.496	1.3092
0.4965	2.11487
0.497	1.61133
0.4975	0.30212
0.498	-1.51062
0.4985	1.10779
0.499	-5.94177
0.4995	0
0.5	-0.20142
0.5005	-3.12195
0.501	0.60425
0.5015	-0.80566
0.502	-3.42407
0.5025	2.31628
0.503	1.51062
0.5035	-1.91345
0.504	-6.3446
0.5045	-9.16443
0.505	-3.02124
0.5055	0.50354
0.506	0.60425
0.5065	-1.81274
0.507	-3.02124
0.5075	-6.54602
0.508	-2.41699
0.5085	-3.22266
0.509	-1.2085
0.5095	4.73328
0.51	-0.80566
0.5105	-1.10779
0.511	2.21558
0.5115	2.61841
0.512	2.5177
0.5125	2.41699
0.513	3.42407
0.5135	2.5177
0.514	3.52478
0.5145	0.90637
0.515	-0.10071
0.5155	-2.92053
0.516	3.92761
0.5165	1.61133
0.517	3.12195
0.5175	3.92761
0.518	5.74036
0.5185	10.0708
0.519	2.41699
0.5195	1.10779
0.52	-2.81982
0.5205	3.42407
0.521	3.7262
0.5215	0.20142
0.522	8.66089
0.5225	2.71912
0.523	4.22974
0.5235	-1.2085
0.524	-1.81274
0.5245	2.41699
0.525	-4.73328
0.5255	-3.8269
0.526	-0.90637
0.5265	-4.53186
0.527	-2.31628
0.5275	-4.12903
0.528	-1.61133
0.5285	-5.0354
0.529	9.46655
0.5295	5.94177
0.53	1.10779
0.5305	5.33752
0.531	0.90637
0.5315	1.2085
0.532	1.3092
0.5325	3.22266
0.533	1.2085
0.5335	1.2085
0.534	-1.3092
0.5345	-1.91345
0.535	3.12195
0.5355	-2.01416
0.536	-3.02124
0.5365	-2.11487
0.537	-2.11487
0.5375	-8.7616
0.538	-8.35876
0.5385	-4.22974
0.539	-4.22974
0.5395	1.40991
0.54	-1.40991
0.5405	-1.2085
0.541	-1.91345
0.5415	-0.10071
0.542	-3.12195
0.5425	-8.05664
0.543	-2.21558
0.5435	0.10071
0.544	3.62549
0.5445	-2.81982
0.545	-2.81982
0.5455	0.80566
0.546	8.8623
0.5465	-0.40283
0.547	-2.71912
0.5475	-3.02124
0.548	4.63257
0.5485	-0.90637
0.549	-1.2085
0.5495	3.7262
0.55	1.00708
0.5505	2.11487
0.551	-1.2085
0.5515	-3.8269
0.552	-7.25098
0.5525	-4.63257
0.553	-1.81274
0.5535	-5.13611
0.554	0.10071
0.5545	-2.01416
0.555	-2.21558
0.5555	-3.7262
0.556	0.10071
0.5565	-3.02124
0.557	-4.02832
0.5575	-5.13611
0.558	-4.63257
0.5585	1.2085
0.559	2.31628
0.5595	2.71912
0.56	-3.02124
0.5605	-0.90637
0.561	-3.7262
0.5615	-2.01416
0.562	-1.3092
0.5625	4.43115
0.563	1.3092
0.5635	-1.61133
0.564	-3.22266
0.5645	2.31628
0.565	1.00708
0.5655	-0.40283
0.566	-1.91345
0.5665	-2.71912
0.567	-3.8269
0.5675	0.20142
0.568	-2.11487
0.5685	-2.92053
0.569	-5.23682
0.5695	-5.13611
0.57	-6.84814
0.5705	-3.22266
0.571	-3.02124
0.5715	-2.71912
0.572	-1.40991
0.5725	-6.64673
0.573	-3.42407
0.5735	-1.3092
0.574	-0.80566
0.5745	-0.50354
0.575	1.71204
0.5755	2.11487
0.576	-0.80566
0.5765	-1.2085
0.577	0.20142
0.5775	-2.11487
0.578	-2.21558
0.5785	-0.60425
0.579	0.70496
0.5795	2.01416
0.58	1.61133
0.5805	-4.93469
0.581	-2.71912
0.5815	-3.32336
0.582	0.10071
0.5825	-5.33752
0.583	0.40283
0.5835	-1.10779
0.584	2.31628
0.5845	0.20142
0.585	4.22974
0.5855	-3.7262
0.586	0.20142
0.5865	3.02124
0.587	-1.3092
0.5875	0.50354
0.588	0.80566
0.5885	-2.41699
0.589	-4.22974
0.5895	-0.50354
0.59	1.3092
0.5905	-2.01416
0.591	0
0.5915	2.71912
0.592	0.50354
0.5925	-0.10071
0.593	-2.61841
0.5935	-0.80566
0.594	2.11487
0.5945	0.40283
0.595	-4.43115
0.5955	-2.5177
0.596	4.93469
0.5965	-2.11487
0.597	-2.5177
0.5975	2.21558
0.598	3.02124
0.5985	0.70496
0.599	0.70496
0.5995	1.81274
0.6	-1.91345
0.6005	3.12195
0.601	0.80566
0.6015	3.62549
0.602	0.30212
0.6025	-1.2085
0.603	-4.53186
0.6035	6.04248
0.604	2.41699
0.6045	4.12903
0.605	3.02124
0.6055	6.3446
0.606	3.22266
0.6065	5.23682
0.607	4.02832
0.6075	3.92761
0.608	4.43115
0.6085	-2.5177
0.609	4.73328
0.6095	2.31628
0.61	0.50354
0.6105	7.35168
0.611	5.94177
0.6115	4.02832
0.612	-1.00708
0.6125	4.73328
0.613	0.70496
0.6135	0.20142
0.614	2.5177
0.6145	3.12195
0.615	1.71204
0.6155	2.81982
0.616	-0.70496
0.6165	-4.02832
0.617	4.22974
0.6175	1.10779
0.618	0
0.6185	-1.10779
0.619	-1.91345
0.6195	-0.90637
0.62	3.32336
0.6205	3.52478
0.621	1.3092
0.6215	-2.11487
0.622	-3.32336
0.6225	-1.81274
0.623	-2.11487
0.6235	-7.75452
0.624	-2.31628
0.6245	-6.14319
0.625	-4.73328
0.6255	-0.70496
0.626	4.12903
0.6265	-0.70496
0.627	4.02832
0.6275	-2.01416
0.628	-2.92053
0.6285	-4.53186
0.629	1.3092
0.6295	-1.51062
0.63	-1.81274
0.6305	2.41699
0.631	-4.53186
0.6315	-4.53186
0.632	-0.40283
0.6325	4.02832
0.633	1.51062
0.6335	3.22266
0.634	1.40991
0.6345	2.61841
0.635	0.10071
0.6355	-1.2085
0.636	3.62549
0.6365	-2.11487
0.637	-1.00708
0.6375	1.81274
0.638	-4.22974
0.6385	3.32336
0.639	2.11487
0.6395	-1.3092
0.64	-0.70496
0.6405	-1.91345
0.641	0.80566
0.6415	0.20142
0.642	3.92761
0.6425	-5.23682
0.643	-1.2085
0.6435	-3.02124
0.644	-2.21558
0.6445	-6.2439
0.645	2.31628
0.6455	-2.5177
0.646	6.54602
0.6465	3.62549
0.647	-3.32336
0.6475	3.92761
0.648	2.5177
0.6485	0
0.649	-2.41699
0.6495	3.62549
0.65	-2.41699
0.6505	0.40283
0.651	5.63965
0.6515	-2.71912
0.652	-4.63257
0.6525	-0.20142
0.653	-2.21558
0.6535	1.00708
0.654	2.92053
0.6545	-0.20142
0.655	-0.50354
0.6555	-3.32336
0.656	-2.5177
0.6565	4.73328
0.657	-0.50354
0.6575	3.42407
0.658	-1.71204
0.6585	-0.80566
0.659	-2.61841
0.6595	0.10071
0.66	-2.81982
0.6605	-1.61133
0.661	-5.53894
0.6615	7.15027
0.662	8.7616
0.6625	6.04248
0.663	-1.91345
0.6635	-1.51062
0.664	2.71912
0.6645	1.61133
0.665	3.52478
0.6655	-0.60425
0.666	3.32336
0.6665	-2.21558
0.667	2.41699
0.6675	-3.12195
0.668	5.13611
0.6685	2.21558
0.669	-0.60425
0.6695	0.20142
0.67	1.40991
0.6705	-2.81982
0.671	-0.30212
0.6715	2.01416
0.672	-1.2085
0.6725	-3.12195
0.673	-2.31628
0.6735	3.42407
0.674	1.40991
0.6745	-1.00708
0.675	3.02124
0.6755	-2.21558
0.676	-0.90637
0.6765	-0.70496
0.677	2.81982
0.6775	3.92761
0.678	-3.12195
0.6785	0
0.679	6.94885
0.6795	1.51062
0.68	1.91345
0.6805	6.54602
0.681	2.11487
0.6815	-2.21558
0.682	1.61133
0.6825	0.70496
0.683	1.51062
0.6835	5.53894
0.684	-1.2085
0.6845	1.00708
0.685	5.23682
0.6855	-2.61841
0.686	0.70496
0.6865	-1.3092
0.687	1.00708
0.6875	-2.21558
0.688	-5.53894
0.6885	-5.53894
0.689	-5.43823
0.6895	-4.43115
0.69	-3.52478
0.6905	-4.22974
0.691	4.83398
0.6915	-2.41699
0.692	-0.70496
0.6925	1.2085
0.693	1.2085
0.6935	-1.2085
0.694	-0.90637
0.6945	0.10071
0.695	-3.92761
0.6955	-1.3092
0.696	4.02832
0.6965	3.52478
0.697	-1.61133
0.6975	0.70496
0.698	-1.91345
0.6985	3.32336
0.699	3.32336
0.6995	-0.80566
0.7	0.60425
0.7005	2.31628
0.701	1.61133
0.7015	0.80566
0.702	4.33044
0.7025	-1.3092
0.703	5.43823
0.7035	5.23682
0.704	1.00708
0.7045	2.41699
0.705	-2.71912
0.7055	0.30212
0.706	-1.71204
0.7065	-2.31628
0.707	-2.41699
0.7075	1.40991
0.708	0.80566
0.7085	-1.10779
0.709	0.10071
0.7095	2.41699
0.71	2.81982
0.7105	3.22266
0.711	3.52478
0.7115	-2.81982
0.712	-4.83398
0.7125	-2.01416
0.713	-6.04248
0.7135	-3.12195
0.714	-6.74744
0.7145	-0.10071
0.715	-2.01416
0.7155	-2.11487
0.716	0.10071
0.7165	3.62549
0.717	-3.62549
0.7175	0
0.718	-2.31628
0.7185	-0.70496
0.719	-2.01416
0.7195	-4.53186
0.72	-5.13611
0.7205	-3.32336
0.721	0.30212
0.7215	-1.91345
0.722	-4.12903
0.7225	0.30212
0.723	2.5177
0.7235	-3.32336
0.724	-3.52478
0.7245	-0.70496
0.725	-3.02124
0.7255	-4.63257
0.726	-0.50354
0.7265	2.5177
0.727	-1.51062
0.7275	-3.8269
0.728	-1.2085
0.7285	-2.71912
0.729	1.81274
0.7295	-3.8269
0.73	-8.15735
0.7305	-7.85522
0.731	0.90637
0.7315	-5.84106
0.732	0.50354
0.7325	-4.73328
0.733	-1.71204
0.7335	-6.84814
0.734	-3.02124
0.7345	-2.21558
0.735	0.40283
0.7355	0.80566
0.736	2.11487
0.7365	-3.22266
0.737	-1.91345
0.7375	-2.5177
0.738	-2.5177
0.7385	-2.5177
0.739	-2.5177
0.7395	-2.5177
0.74	-2.5177
0.7405	-2.5177
0.741	-2.5177
0.7415	-2.5177
0.742	-2.5177
0.7425	-2.5177
0.743	-2.5177
0.7435	-2.5177
0.744	-2.5177
0.7445	-2.5177
0.745	-2.5177
0.7455	-2.5177
0.746	-2.5177
0.7465	-2.5177
0.747	-2.5177
0.7475	-2.5177
0.748	0.80566
0.7485	3.32336
0.749	1.00708
0.7495	-1.91345
0.75	2.01416
0.7505	3.02124
0.751	1.3092
0.7515	-2.71912
0.752	-2.41699
0.7525	-0.10071
0.753	-0.30212
0.7535	-3.12195
0.754	-5.43823
0.7545	-2.11487
0.755	3.02124
0.7555	3.12195
0.756	0.40283
0.7565	5.0354
0.757	1.40991
0.7575	-2.92053
0.758	0.50354
0.7585	2.71912
0.759	-2.21558
0.7595	-0.10071
0.76	-2.31628
0.7605	4.43115
0.761	0.10071
0.7615	3.62549
0.762	-2.11487
0.7625	-0.80566
0.763	-2.92053
0.7635	-1.00708
0.764	-5.84106
0.7645	-4.43115
0.765	-2.11487
0.7655	-1.00708
0.766	4.12903
0.7665	1.61133
0.767	-5.33752
0.7675	-1.3092
0.768	0.30212
0.7685	-1.10779
0.769	4.93469
0.7695	1.61133
0.77	6.84814
0.7705	3.8269
0.771	3.52478
0.7715	1.81274
0.772	-1.10779
0.7725	1.61133
0.773	-2.92053
0.7735	-2.01416
0.774	-4.73328
0.7745	-0.50354
0.775	-5.84106
0.7755	-6.3446
0.776	-1.51062
0.7765	2.01416
0.777	-1.00708
0.7775	-0.60425
0.778	-4.93469
0.7785	5.33752
0.779	2.71912
0.7795	-2.5177
0.78	2.92053
0.7805	5.23682
0.781	1.40991
0.7815	-6.2439
0.782	-7.25098
0.7825	-7.85522
0.783	0.30212
0.7835	4.22974
0.784	-0.20142
0.7845	-5.53894
0.785	0.30212
0.7855	0
0.786	-0.10071
0.7865	3.8269
0.787	0.40283
0.7875	4.73328
0.788	2.71912
0.7885	1.71204
0.789	-2.5177
0.7895	-0.70496
0.79	7.85522
0.7905	4.12903
0.791	3.92761
0.7915	1.3092
0.792	-2.81982
0.7925	-4.93469
0.793	2.31628
0.7935	-0.20142
0.794	-1.00708
0.7945	-0.50354
0.795	1.3092
0.7955	4.63257
0.796	2.81982
0.7965	4.33044
0.797	-0.90637
0.7975	1.91345
0.798	2.31628
0.7985	4.22974
0.799	-1.81274
0.7995	3.8269
0.8	1.61133
0.8005	-2.01416
0.801	0.70496
0.8015	-1.51062
0.802	-3.52478
0.8025	-2.11487
0.803	-0.70496
0.8035	-2.92053
0.804	0.80566
0.8045	4.43115
0.805	0
0.8055	0.40283
0.806	-4.33044
0.8065	1.00708
0.807	2.21558
0.8075	-1.10779
0.808	-1.00708
0.8085	-4.93469
0.809	4.22974
0.8095	-3.32336
0.81	-1.10779
0.8105	0.20142
0.811	-0.70496
0.8115	1.00708
0.812	0.70496
0.8125	4.43115
0.813	1.91345
0.8135	-3.62549
0.814	-3.02124
0.8145	-4.33044
0.815	-4.33044
0.8155	-0.70496
0.816	-1.00708
0.8165	-2.71912
0.817	2.41699
0.8175	-1.61133
0.818	4.33044
0.8185	1.61133
0.819	-6.3446
0.8195	-0.70496
0.82	-4.53186
0.8205	-1.91345
0.821	-0.70496
0.8215	-11.17859
0.822	-6.44531
0.8225	0.90637
0.823	-9.86938
0.8235	-3.12195
0.824	-4.53186
0.8245	2.01416
0.825	1.10779
0.8255	-1.81274
0.826	-3.8269
0.8265	0.20142
0.827	-0.90637
0.8275	-0.70496
0.828	-6.3446
0.8285	-5.74036
0.829	-7.15027
0.8295	-3.52478
0.83	-3.12195
0.8305	-0.40283
0.831	-0.60425
0.8315	0.90637
0.832	-1.2085
0.8325	-1.3092
0.833	-7.45239
0.8335	-1.2085
0.834	4.33044
0.8345	-0.40283
0.835	-3.02124
0.8355	0.40283
0.836	-0.20142
0.8365	3.7262
0.837	2.61841
0.8375	5.13611
0.838	2.5177
0.8385	-0.90637
0.839	-6.84814
0.8395	-4.63257
0.84	-1.61133
0.8405	-2.81982
0.841	4.33044
0.8415	-2.31628
0.842	-0.90637
0.8425	-0.10071
0.843	-3.22266
0.8435	-0.50354
0.844	-1.61133
0.8445	-2.31628
0.845	-1.61133
0.8455	-1.2085
0.846	-9.26514
0.8465	-8.05664
0.847	-2.21558
0.8475	1.91345
0.848	3.42407
0.8485	4.53186
0.849	2.31628
0.8495	-1.40991
0.85	0.60425
0.8505	2.31628
0.851	-3.7262
0.8515	-2.21558
0.852	-3.42407
0.8525	-2.41699
0.853	0.80566
0.8535	6.04248
0.854	0.90637
0.8545	0.70496
0.855	-6.84814
0.8555	-3.22266
0.856	-0.90637
0.8565	-2.71912
0.857	-0.80566
0.8575	2.92053
0.858	1.2085
0.8585	3.32336
0.859	4.22974
0.8595	2.81982
0.86	1.61133
0.8605	-5.33752
0.861	0.80566
0.8615	-1.00708
0.862	-2.31628
0.8625	-3.7262
0.863	-4.63257
0.8635	-11.2793
0.864	-6.74744
0.8645	-8.05664
0.865	-7.35168
0.8655	-2.81982
0.866	-7.04956
0.8665	-6.04248
0.867	-5.23682
0.8675	-3.62549
0.868	-9.36584
0.8685	-5.43823
0.869	-1.2085
0.8695	-5.13611
0.87	-2.41699
0.8705	-6.54602
0.871	-6.44531
0.8715	-11.17859
0.872	-10.77576
0.8725	-4.73328
0.873	-5.63965
0.8735	-7.25098
0.874	-5.74036
0.8745	-6.14319
0.875	-6.04248
0.8755	-9.76868
0.876	-8.05664
0.8765	-1.81274
0.877	-0.90637
0.8775	-6.3446
0.878	1.2085
0.8785	-1.71204
0.879	-3.8269
0.8795	-1.71204
0.88	0.50354
0.8805	-0.40283
0.881	-0.30212
0.8815	6.3446
0.882	4.43115
0.8825	1.40991
0.883	-1.2085
0.8835	7.25098
0.884	7.75452
0.8845	6.04248
0.885	7.75452
0.8855	2.92053
0.886	2.31628
0.8865	6.2439
0.887	6.74744
0.8875	8.05664
0.888	4.63257
0.8885	4.22974
0.889	2.01416
0.8895	4.22974
0.89	2.01416
0.8905	7.04956
0.891	9.06372
0.8915	7.95593
0.892	10.77576
0.8925	8.96301
0.893	2.11487
0.8935	5.0354
0.894	6.04248
0.8945	1.2085
0.895	6.94885
0.8955	9.06372
0.896	6.44531
0.8965	9.26514
0.897	5.63965
0.8975	5.0354
0.898	5.0354
0.8985	6.3446
0.899	8.45947
0.8995	8.7616
0.9	7.45239
0.9005	0.50354
0.901	6.14319
0.9015	5.74036
0.902	2.21558
0.9025	3.8269
0.903	1.61133
0.9035	-3.02124
0.904	2.71912
0.9045	3.12195
0.905	2.31628
0.9055	4.73328
0.906	0.10071
0.9065	7.04956
0.907	0.30212
0.9075	-0.60425
0.908	-0.60425
0.9085	-0.40283
0.909	-4.33044
0.9095	-0.20142
0.91	0.50354
0.9105	-4.12903
0.911	-6.04248
0.9115	-2.61841
0.912	0.60425
0.9125	-3.8269
0.913	-5.53894
0.9135	-1.61133
0.914	-1.40991
0.9145	2.81982
0.915	-0.20142
0.9155	-4.02832
0.916	-5.0354
0.9165	-6.2439
0.917	-0.10071
0.9175	2.81982
0.918	3.22266
0.9185	3.62549
0.919	4.12903
0.9195	0.50354
0.92	3.22266
0.9205	1.81274
0.921	-1.2085
0.9215	-1.81274
0.922	-3.12195
0.9225	5.94177
0.923	7.65381
0.9235	2.71912
0.924	2.01416
0.9245	-1.00708
0.925	4.63257
0.9255	-5.33752
0.926	-1.81274
0.9265	2.81982
0.927	1.40991
0.9275	-0.30212
0.928	-4.22974
0.9285	2.92053
0.929	-3.52478
0.9295	-1.3092
0.93	-3.02124
0.9305	-0.10071
0.931	-3.52478
0.9315	-0.20142
0.932	-0.90637
0.9325	3.92761
0.933	3.22266
0.9335	-0.70496
0.934	0.20142
0.9345	3.12195
0.935	-4.02832
0.9355	1.00708
0.936	-0.10071
0.9365	-0.10071
0.937	-0.10071
0.9375	1.3092
0.938	2.81982
0.9385	5.0354
0.939	1.81274
0.9395	-3.8269
0.94	-1.91345
0.9405	-4.53186
0.941	-1.91345
0.9415	0.10071
0.942	-1.51062
0.9425	3.8269
0.943	-1.81274
0.9435	2.11487
0.944	4.53186
0.9445	3.52478
0.945	3.42407
0.9455	2.41699
0.946	2.92053
0.9465	2.5177
0.947	-3.52478
0.9475	-2.92053
0.948	3.22266
0.9485	1.00708
0.949	1.40991
0.9495	4.22974
0.95	5.33752
0.9505	6.3446
0.951	2.01416
0.9515	0.80566
0.952	-0.10071
0.9525	0.70496
0.953	-3.32336
0.9535	-3.7262
0.954	-2.81982
0.9545	0.10071
0.955	-3.8269
0.9555	2.5177
0.956	-0.20142
0.9565	5.74036
0.957	-0.10071
0.9575	3.62549
0.958	5.0354
0.9585	4.63257
0.959	-0.80566
0.9595	-2.31628
0.96	0.60425
0.9605	-2.61841
0.961	-1.51062
0.9615	1.61133
0.962	-1.81274
0.9625	2.41699
0.963	-0.30212
0.9635	-3.62549
0.964	-7.25098
0.9645	-7.5531
0.965	-5.13611
0.9655	-3.8269
0.966	-2.81982
0.9665	0.40283
0.967	-3.02124
0.9675	-0.40283
0.968	-4.53186
0.9685	-7.04956
0.969	-7.75452
0.9695	-2.5177
0.97	-3.8269
0.9705	-1.71204
0.971	2.01416
0.9715	-0.10071
0.972	-2.61841
0.9725	-4.43115
0.973	-3.8269
0.9735	-4.63257
0.974	-3.62549
0.9745	-1.61133
0.975	-1.81274
0.9755	-1.2085
0.976	-5.94177
0.9765	3.22266
0.977	-1.3092
0.9775	-1.81274
0.978	-2.21558
0.9785	5.53894
0.979	2.01416
0.9795	1.40991
0.98	-0.10071
0.9805	0.30212
0.981	-1.81274
0.9815	-1.3092
0.982	3.62549
0.9825	7.15027
0.983	8.05664
0.9835	-0.60425
0.984	0.80566
0.9845	1.71204
0.985	2.5177
0.9855	-1.40991
0.986	0.70496
0.9865	-1.91345
0.987	1.2085
0.9875	-1.51062
0.988	3.7262
0.9885	-0.80566
0.989	-0.50354
0.9895	-2.11487
0.99	-2.01416
0.9905	-3.22266
0.991	-4.02832
0.9915	2.71912
0.992	-1.2085
0.9925	1.10779
0.993	4.43115
0.9935	0.30212
0.994	-1.51062
0.9945	-0.10071
0.995	1.2085
0.9955	-0.70496
0.996	-8.35876
0.9965	3.7262
0.997	-1.81274
0.9975	-1.81274
0.998	-2.11487
0.9985	-0.80566
0.999	3.62549
0.9995	-3.22266
1	2.21558
1.0005	-0.60425
1.001	-4.93469
1.0015	-1.00708
1.002	2.11487
1.0025	0.70496
1.003	0.10071
1.0035	-4.53186
1.004	-3.92761
1.0045	-3.32336
1.005	-1.00708
1.0055	1.40991
1.006	1.81274
1.0065	-2.41699
1.007	-2.11487
1.0075	-0.80566
1.008	-3.92761
1.0085	-4.83398
1.009	-0.90637
1.0095	5.33752
1.01	2.92053
1.0105	-5.43823
1.011	-1.71204
1.0115	-1.40991
1.012	-7.25098
1.0125	-2.21558
1.013	-6.3446
1.0135	-2.92053
1.014	-5.63965
1.0145	-3.8269
1.015	-3.02124
1.0155	-4.73328
1.016	-6.94885
1.0165	-3.92761
1.017	-1.71204
1.0175	-5.74036
1.018	-1.91345
1.0185	-2.11487
1.019	-1.91345
1.0195	0.10071
1.02	0.90637
1.0205	-3.12195
1.021	0.50354
1.0215	1.61133
1.022	1.71204
1.0225	-7.04956
1.023	-1.40991
1.0235	-6.64673
1.024	0.60425
1.0245	-0.40283
1.025	-4.53186
1.0255	-0.80566
1.026	-1.40991
1.0265	-4.63257
1.027	1.61133
1.0275	-1.2085
1.028	1.2085
1.0285	-1.51062
1.029	4.93469
1.0295	-2.61841
1.03	6.14319
1.0305	1.00708
1.031	3.52478
1.0315	1.2085
1.032	-0.70496
1.0325	0.20142
1.033	0.50354
1.0335	0.70496
1.034	2.21558
1.0345	1.3092
1.035	-0.80566
1.0355	-2.41699
1.036	-3.7262
1.0365	-2.81982
1.037	-6.84814
1.0375	0
1.038	-8.66089
1.0385	-3.42407
1.039	-2.31628
1.0395	-3.12195
1.04	-0.60425
1.0405	0.80566
1.041	-4.43115
1.0415	-3.8269
1.042	1.3092
1.0425	-2.81982
1.043	-2.81982
1.0435	-3.22266
1.044	0.20142
1.0445	3.02124
1.045	1.00708
1.0455	-3.92761
1.046	-2.11487
1.0465	-2.41699
1.047	-4.73328
1.0475	0.20142
1.048	-2.41699
1.0485	-2.31628
1.049	-0.10071
1.0495	-1.10779
1.05	1.3092
1.0505	-4.53186
1.051	1.40991
1.0515	2.31628
1.052	2.01416
1.0525	2.41699
1.053	1.2085
1.0535	7.35168
1.054	3.7262
1.0545	4.53186
1.055	2.21558
1.0555	3.52478
1.056	-1.91345
1.0565	-4.12903
1.057	3.12195
1.0575	4.22974
1.058	1.10779
1.0585	-6.54602
1.059	-7.65381
1.0595	-6.94885
1.06	-4.53186
1.0605	1.71204
1.061	0.60425
1.0615	-2.11487
1.062	-7.04956
1.0625	-1.2085
1.063	2.11487
1.0635	-5.53894
1.064	-2.5177
1.0645	-2.31628
1.065	-2.5177
1.0655	-6.84814
1.066	-0.70496
1.0665	-1.40991
1.067	-2.01416
1.0675	0.30212
1.068	-1.2085
1.0685	-1.91345
1.069	-0.30212
1.0695	1.91345
1.07	1.3092
1.0705	4.02832
1.071	-2.11487
1.0715	-1.61133
1.072	1.10779
1.0725	3.62549
1.073	0.50354
1.0735	-1.91345
1.074	-2.01416
1.0745	4.73328
1.075	2.31628
1.0755	2.01416
1.076	3.32336
1.0765	3.32336
1.077	5.33752
1.0775	6.54602
1.078	4.53186
1.0785	-0.40283
1.079	3.62549
1.0795	0.90637
1.08	2.5177
1.0805	1.71204
1.081	-3.52478
1.0815	-2.01416
1.082	4.12903
1.0825	2.61841
1.083	-1.10779
1.0835	-5.63965
1.084	1.51062
1.0845	0.70496
1.085	0
1.0855	3.22266
1.086	-2.31628
1.0865	4.93469
1.087	0.40283
1.0875	-0.40283
1.088	2.11487
1.0885	1.40991
1.089	-0.70496
1.0895	-1.10779
1.09	-0.20142
1.0905	1.81274
1.091	-3.42407
1.0915	1.51062
1.092	-2.01416
1.0925	0.40283
1.093	-1.3092
1.0935	-0.30212
1.094	2.11487
1.0945	-3.42407
1.095	-2.11487
1.0955	-3.32336
1.096	-1.40991
1.0965	0.40283
1.097	-1.10779
1.0975	-1.71204
1.098	2.71912
1.0985	-5.0354
1.099	-6.3446
1.0995	0.50354
1.1	1.00708
1.1005	-0.60425
1.101	0.40283
1.1015	-0.60425
1.102	1.40991
1.1025	0.80566
1.103	-1.91345
1.1035	2.41699
1.104	-2.81982
1.1045	-2.01416
1.105	-0.10071
1.1055	0.80566
1.106	-2.71912
1.1065	1.00708
1.107	-2.92053
1.1075	0.60425
1.108	-2.41699
1.1085	2.01416
1.109	-2.92053
1.1095	-0.60425
1.11	1.2085
1.1105	1.51062
1.111	-4.12903
1.1115	3.32336
1.112	-3.62549
1.1125	0.80566
1.113	-0.20142
1.1135	-7.5531
1.114	-3.32336
1.1145	-3.42407
1.115	-6.44531
1.1155	-6.54602
1.116	-4.43115
1.1165	-0.40283
1.117	-0.80566
1.1175	-2.92053
1.118	-2.71912
1.1185	-0.80566
1.119	-0.90637
1.1195	3.42407
1.12	-0.90637
1.1205	-4.12903
1.121	-3.7262
1.1215	1.10779
1.122	-2.81982
1.1225	-4.53186
1.123	-6.74744
1.1235	-8.66089
1.124	-7.45239
1.1245	-1.71204
1.125	-3.92761
1.1255	-5.13611
1.126	-2.81982
1.1265	2.21558
1.127	3.8269
1.1275	-0.70496
1.128	-3.22266
1.1285	1.51062
1.129	1.51062
1.1295	-0.60425
1.13	-0.50354
1.1305	-3.32336
1.131	-4.22974
1.1315	0.10071
1.132	1.40991
1.1325	-0.20142
1.133	-4.22974
1.1335	-3.7262
1.134	-0.90637
1.1345	-6.14319
1.135	-5.13611
1.1355	-0.70496
1.136	3.02124
1.1365	3.42407
1.137	2.31628
1.1375	2.11487
1.138	-0.10071
1.1385	-0.50354
1.139	8.8623
1.1395	0.10071
1.14	6.54602
1.1405	4.43115
1.141	6.64673
1.1415	6.74744
1.142	5.13611
1.1425	7.95593
1.143	2.92053
1.1435	3.8269
1.144	-1.2085
1.1445	-1.71204
1.145	1.71204
1.1455	2.01416
1.146	-2.41699
1.1465	-6.3446
1.147	2.81982
1.1475	2.5177
1.148	0.80566
1.1485	-5.53894
1.149	-4.93469
1.1495	-5.13611
1.15	-1.81274
1.1505	-7.75452
1.151	-4.43115
1.1515	-1.61133
1.152	-3.92761
1.1525	-3.7262
1.153	-3.8269
1.1535	0.60425
1.154	0.70496
1.1545	-2.21558
1.155	1.00708
1.1555	6.14319
1.156	0.30212
1.1565	-5.53894
1.157	0.10071
1.1575	-1.00708
1.158	-7.5531
1.1585	-7.85522
1.159	-7.35168
1.1595	-9.06372
1.16	-3.62549
1.1605	-3.22266
1.161	7.35168
1.1615	4.22974
1.162	0.70496
1.1625	-0.40283
1.163	3.32336
1.1635	3.22266
1.164	-0.70496
1.1645	-3.02124
1.165	2.71912
1.1655	2.11487
1.166	1.71204
1.1665	-2.11487
1.167	0.30212
1.1675	-6.14319
1.168	-4.73328
1.1685	-1.61133
1.169	0.40283
1.1695	1.61133
1.17	-2.01416
1.1705	1.3092
1.171	-0.20142
1.1715	-1.2085
1.172	-0.80566
1.1725	0.60425
1.173	-7.95593
1.1735	-2.81982
1.174	-5.84106
1.1745	-7.25098
1.175	-3.7262
1.1755	-1.71204
1.176	-3.42407
1.1765	-4.83398
1.177	-0.20142
1.1775	1.3092
1.178	1.3092
1.1785	-0.20142
1.179	1.2085
1.1795	-1.91345
1.18	-4.33044
1.1805	1.2085
1.181	-0.70496
1.1815	-3.32336
1.182	-1.10779
1.1825	-2.41699
1.183	-4.63257
1.1835	-1.00708
1.184	-3.12195
1.1845	-5.0354
1.185	-3.22266
1.1855	-0.50354
1.186	-2.71912
1.1865	-0.30212
1.187	-3.12195
1.1875	6.14319
1.188	6.2439
1.1885	1.51062
1.189	-4.83398
1.1895	1.2085
1.19	6.04248
1.1905	2.61841
1.191	3.02124
1.1915	4.63257
1.192	1.91345
1.1925	-3.52478
1.193	-2.01416
1.1935	-4.53186
1.194	-1.81274
1.1945	-3.52478
1.195	-2.21558
1.1955	-0.90637
1.196	-0.70496
1.1965	0
1.197	-1.40991
1.1975	-1.71204
1.198	-2.11487
1.1985	-5.23682
1.199	1.91345
1.1995	-0.60425
1.2	-2.11487
1.2005	5.53894
1.201	0.80566
1.2015	-0.40283
1.202	1.3092
1.2025	0.80566
1.203	-0.70496
1.2035	2.5177
1.204	7.15027
1.2045	-0.50354
1.205	-0.50354
1.2055	2.41699
1.206	9.26514
1.2065	8.15735
1.207	8.15735
1.2075	4.33044
1.208	3.12195
1.2085	2.41699
1.209	-7.75452
1.2095	-9.46655
1.21	-8.56018
1.2105	-10.17151
1.211	-4.73328
1.2115	-5.94177
1.212	-7.5531
1.2125	-2.71912
1.213	-2.61841
1.2135	1.3092
1.214	-0.40283
1.2145	-3.92761
1.215	0.40283
1.2155	-0.70496
1.216	0.10071
1.2165	-1.40991
1.217	-0.30212
1.2175	-2.31628
1.218	-3.42407
1.2185	1.81274
1.219	-1.00708
1.2195	-0.70496
1.22	2.61841
1.2205	0.70496
1.221	5.23682
1.2215	4.12903
1.222	-0.20142
1.2225	-0.40283
1.223	1.00708
1.2235	4.43115
1.224	3.62549
1.2245	5.43823
1.225	8.8623
1.2255	5.43823
1.226	5.84106
1.2265	2.41699
1.227	-2.41699
1.2275	3.42407
1.228	-1.2085
1.2285	-2.92053
1.229	-3.02124
1.2295	-1.2085
1.23	-7.95593
1.2305	-5.23682
1.231	2.41699
1.2315	1.51062
1.232	6.3446
1.2325	8.56018
1.233	6.84814
1.2335	6.84814
1.234	2.5177
1.2345	2.11487
1.235	5.84106
1.2355	1.3092
1.236	7.35168
1.2365	0.70496
1.237	-0.40283
1.2375	-7.75452
1.238	-7.65381
1.2385	-9.16443
1.239	-11.07788
1.2395	-15.20691
1.24	-7.15027
1.2405	-12.78992
1.241	-7.25098
1.2415	-5.94177
1.242	-4.33044
1.2425	-7.65381
1.243	-0.40283
1.2435	-2.01416
1.244	2.01416
1.2445	5.13611
1.245	3.7262
1.2455	-1.61133
1.246	6.84814
1.2465	5.94177
1.247	9.06372
1.2475	4.83398
1.248	0.40283
1.2485	-1.51062
1.249	0.60425
1.2495	2.01416
1.25	0.40283
1.2505	-0.30212
1.251	-4.73328
1.2515	-4.43115
1.252	-6.44531
1.2525	-4.53186
1.253	-2.5177
1.2535	-4.53186
1.254	3.02124
1.2545	-3.42407
1.255	-1.81274
1.2555	-1.00708
1.256	0.30212
1.2565	0.30212
1.257	0.50354
1.2575	0.30212
1.258	-0.90637
1.2585	0.70496
1.259	3.8269
1.2595	-0.40283
1.26	-2.11487
1.2605	-0.20142
1.261	-7.35168
1.2615	-6.84814
1.262	-11.17859
1.2625	-8.8623
1.263	1.81274
1.2635	8.7616
1.264	6.14319
1.2645	8.15735
1.265	2.61841
1.2655	1.61133
1.266	8.66089
1.2665	7.65381
1.267	-0.80566
1.2675	2.92053
1.268	1.51062
1.2685	14.09912
1.269	25.98267
1.2695	31.32019
1.27	32.7301
1.2705	33.13293
1.271	29.91028
1.2715	33.23364
1.272	37.86621
1.2725	39.27612
1.273	47.8363
1.2735	61.53259
1.274	66.6687
1.2745	68.98499
1.275	61.43188
1.2755	57.20215
1.276	50.85754
1.2765	33.33435
1.277	13.99841
1.2775	-7.95593
1.278	-31.82373
1.2785	-50.354
1.279	-63.04321
1.2795	-79.86145
1.28	-90.83862
1.2805	-96.67969
1.281	-100.20447
1.2815	-94.66553
1.282	-84.39331
1.2825	-78.95508
1.283	-74.02039
1.2835	-67.67578
1.284	-61.83472
1.2845	-45.41931
1.285	-35.2478
1.2855	-25.27771
1.286	-14.70337
1.2865	-7.15027
1.287	-3.12195
1.2875	-2.11487
1.288	0.80566
1.2885	-4.33044
1.289	-0.10071
1.2895	0.50354
1.29	1.10779
1.2905	0.30212
1.291	0.80566
1.2915	6.04248
1.292	6.74744
1.2925	2.01416
1.293	4.43115
1.2935	5.53894
1.294	2.71912
1.2945	-2.31628
1.295	-3.62549
1.2955	-2.92053
1.296	-8.45947
1.2965	-8.45947
1.297	-7.04956
1.2975	-3.62549
1.298	4.63257
1.2985	-1.3092
1.299	-4.33044
1.2995	-3.92761
1.3	-1.2085
1.3005	-4.12903
1.301	-0.80566
1.3015	1.00708
1.302	-2.11487
1.3025	-3.62549
1.303	-1.2085
1.3035	2.61841
1.304	-0.30212
1.3045	2.11487
1.305	-0.80566
1.3055	2.61841
1.306	-2.11487
1.3065	-1.51062
1.307	0.90637
1.3075	5.94177
1.308	0.60425
1.3085	3.22266
1.309	2.31628
1.3095	4.93469
1.31	2.11487
1.3105	1.3092
1.311	-0.50354
1.3115	5.13611
1.312	2.31628
1.3125	3.32336
1.313	6.74744
1.3135	8.8623
1.314	6.64673
1.3145	3.7262
1.315	2.92053
1.3155	0.90637
1.316	2.31628
1.3165	6.04248
1.317	5.43823
1.3175	2.61841
1.318	5.33752
1.3185	4.53186
1.319	-1.71204
1.3195	-3.7262
1.32	-3.62549
1.3205	-1.2085
1.321	2.61841
1.3215	-2.81982
1.322	-4.02832
1.3225	-2.5177
1.323	-7.25098
1.3235	-2.92053
1.324	-6.14319
1.3245	-6.2439
1.325	-6.44531
1.3255	-5.43823
1.326	-8.25806
1.3265	-8.15735
1.327	-6.54602
1.3275	-4.12903
1.328	-3.8269
1.3285	-4.53186
1.329	-4.12903
1.3295	-3.22266
1.33	3.02124
1.3305	0.80566
1.331	-0.70496
1.3315	0.60425
1.332	-4.02832
1.3325	-2.5177
1.333	1.51062
1.3335	-1.61133
1.334	-0.50354
1.3345	2.31628
1.335	-0.50354
1.3355	1.10779
1.336	2.71912
1.3365	-0.90637
1.337	3.8269
1.3375	0.40283
1.338	2.81982
1.3385	0.10071
1.339	-0.10071
1.3395	2.71912
1.34	1.91345
1.3405	-1.00708
1.341	4.93469
1.3415	0.20142
1.342	-5.13611
1.3425	-3.7262
1.343	-9.36584
1.3435	4.12903
1.344	2.11487
1.3445	2.5177
1.345	-3.12195
1.3455	-1.00708
1.346	-0.20142
1.3465	-1.2085
1.347	-1.3092
1.3475	-3.22266
1.348	-1.51062
1.3485	-4.12903
1.349	-13.89771
1.3495	-10.47363
1.35	-12.08496
1.3505	-5.0354
1.351	-4.43115
1.3515	-6.94885
1.352	-3.32336
1.3525	-7.85522
1.353	-5.94177
1.3535	-1.10779
1.354	-4.73328
1.3545	-10.47363
1.355	-3.62549
1.3555	-6.64673
1.356	0.50354
1.3565	0.60425
1.357	-3.8269
1.3575	-3.8269
1.358	2.41699
1.3585	-0.80566
1.359	0.70496
1.3595	4.83398
1.36	-0.20142
1.3605	2.11487
1.361	-2.61841
1.3615	-9.06372
1.362	-10.67505
1.3625	-6.04248
1.363	-7.45239
1.3635	-8.45947
1.364	-9.06372
1.3645	-8.05664
1.365	-6.94885
1.3655	-7.75452
1.366	2.81982
1.3665	1.10779
1.367	3.92761
1.3675	-8.05664
1.368	-2.71912
1.3685	-0.20142
1.369	0.50354
1.3695	1.51062
1.37	1.71204
1.3705	-1.3092
1.371	-1.10779
1.3715	-4.43115
1.372	-0.40283
1.3725	0.50354
1.373	-0.80566
1.3735	-0.20142
1.374	5.53894
1.3745	2.61841
1.375	4.43115
1.3755	-0.30212
1.376	-4.02832
1.3765	1.2085
1.377	1.91345
1.3775	-1.3092
1.378	6.74744
1.3785	5.33752
1.379	1.71204
1.3795	5.63965
1.38	-0.10071
1.3805	3.42407
1.381	1.40991
1.3815	5.74036
1.382	-1.3092
1.3825	0.50354
1.383	-0.60425
1.3835	-3.62549
1.384	1.2085
1.3845	5.63965
1.385	4.33044
1.3855	0.20142
1.386	6.64673
1.3865	-0.60425
1.387	1.51062
1.3875	-1.2085
1.388	0.10071
1.3885	1.40991
1.389	1.2085
1.3895	-4.63257
1.39	4.33044
1.3905	2.31628
1.391	0
1.3915	-4.53186
1.392	-1.3092
1.3925	-3.7262
1.393	2.41699
1.3935	6.64673
1.394	3.62549
1.3945	1.10779
1.395	-1.2085
1.3955	-0.30212
1.396	0.20142
1.3965	-0.30212
1.397	2.11487
1.3975	-4.43115
1.398	-6.84814
1.3985	-5.0354
1.399	-8.8623
1.3995	-9.56726
1.4	-2.01416
1.4005	-3.22266
1.401	-2.31628
1.4015	-2.81982
1.402	-5.0354
1.4025	-7.75452
1.403	-4.33044
1.4035	-11.38
1.404	-8.25806
1.4045	-6.54602
1.405	-11.48071
1.4055	-8.25806
1.406	-10.57434
1.4065	-5.33752
1.407	-6.3446
1.4075	-0.90637
1.408	-3.12195
1.4085	-10.47363
1.409	-7.35168
1.4095	-8.25806
1.41	-2.71912
1.4105	-5.33752
1.411	-1.71204
1.4115	-1.2085
1.412	-0.60425
1.4125	3.62549
1.413	5.84106
1.4135	3.12195
1.414	1.51062
1.4145	1.61133
1.415	1.00708
1.4155	0.30212
1.416	1.61133
1.4165	-5.53894
1.417	-2.81982
1.4175	3.32336
1.418	1.91345
1.4185	-0.10071
1.419	4.73328
1.4195	2.21558
1.42	3.52478
1.4205	0.70496
1.421	5.84106
1.4215	11.17859
1.422	11.58142
1.4225	13.69629
1.423	8.45947
1.4235	14.80408
1.424	6.84814
1.4245	1.71204
1.425	-0.70496
1.4255	-0.80566
1.426	3.42407
1.4265	-1.91345
1.427	-7.65381
1.4275	0.70496
1.428	-1.40991
1.4285	-1.2085
1.429	-1.40991
1.4295	-1.3092
1.43	-3.02124
1.4305	-1.91345
1.431	-0.30212
1.4315	2.71912
1.432	4.12903
1.4325	7.85522
1.433	10.0708
1.4335	7.75452
1.434	15.60974
1.4345	16.01257
1.435	7.04956
1.4355	5.13611
1.436	1.51062
1.4365	0.90637
1.437	5.74036
1.4375	1.61133
1.438	4.93469
1.4385	7.5531
1.439	0.90637
1.4395	-3.92761
1.44	-7.25098
1.4405	0.20142
1.441	2.41699
1.4415	-5.13611
1.442	-3.92761
1.4425	-0.50354
1.443	-9.36584
1.4435	-2.11487
1.444	-0.80566
1.4445	2.81982
1.445	2.11487
1.4455	-0.60425
1.446	-2.41699
1.4465	-6.44531
1.447	-0.90637
1.4475	3.22266
1.448	0.30212
1.4485	2.92053
1.449	0.50354
1.4495	4.22974
1.45	8.56018
1.4505	5.13611
1.451	10.0708
1.4515	8.35876
1.452	2.81982
1.4525	1.71204
1.453	2.41699
1.4535	7.25098
1.454	6.54602
1.4545	3.22266
1.455	4.53186
1.4555	4.53186
1.456	5.0354
1.4565	-1.81274
1.457	-2.5177
1.4575	-4.12903
1.458	-5.23682
1.4585	-4.33044
1.459	-10.57434
1.4595	-10.17151
1.46	-7.45239
1.4605	-4.73328
1.461	-5.63965
1.4615	-7.95593
1.462	-9.56726
1.4625	-2.71912
1.463	3.52478
1.4635	13.49487
1.464	19.03381
1.4645	20.94727
1.465	8.8623
1.4655	7.65381
1.466	4.93469
1.4665	6.04248
1.467	2.31628
1.4675	1.71204
1.468	-6.94885
1.4685	-2.31628
1.469	-5.63965
1.4695	0.30212
1.47	-4.83398
1.4705	-8.45947
1.471	-4.12903
1.4715	-5.23682
1.472	0.50354
1.4725	-0.70496
1.473	2.61841
1.4735	6.14319
1.474	10.37292
1.4745	15.50903
1.475	16.61682
1.4755	13.797
1.476	6.3446
1.4765	6.3446
1.477	9.66797
1.4775	8.56018
1.478	2.31628
1.4785	0.60425
1.479	5.53894
1.4795	6.54602
1.48	7.65381
1.4805	4.93469
1.481	4.53186
1.4815	5.0354
1.482	2.81982
1.4825	6.44531
1.483	5.94177
1.4835	8.66089
1.484	8.66089
1.4845	11.88354
1.485	7.65381
1.4855	4.83398
1.486	4.93469
1.4865	6.3446
1.487	0.60425
1.4875	-2.01416
1.488	0.90637
1.4885	-4.22974
1.489	-2.81982
1.4895	-2.21558
1.49	-7.15027
1.4905	-4.53186
1.491	1.51062
1.4915	-6.84814
1.492	-4.33044
1.4925	-3.32336
1.493	-4.73328
1.4935	-3.52478
1.494	-6.94885
1.4945	-6.44531
1.495	-10.17151
1.4955	-5.43823
1.496	-1.61133
1.4965	4.02832
1.497	5.23682
1.4975	2.41699
1.498	0.70496
1.4985	-6.84814
1.499	-9.26514
1.4995	-4.43115
1.5	1.51062
1.5005	8.25806
1.501	6.64673
1.5015	-0.80566
1.502	-21.45081
1.5025	-24.16992
1.503	-22.96143
1.5035	-24.16992
1.504	-19.53735
1.5045	-13.39417
1.505	-11.78284
1.5055	-11.38
1.506	-17.32178
1.5065	-14.60266
1.507	-11.68213
1.5075	-5.84106
1.508	6.3446
1.5085	17.72461
1.509	16.61682
1.5095	24.77417
1.51	25.78125
1.5105	32.52869
1.511	30.41382
1.5115	30.01099
1.512	35.14709
1.5125	28.60107
1.513	27.99683
1.5135	31.21948
1.514	31.11877
1.5145	37.46338
1.515	33.63647
1.5155	30.71594
1.516	26.78833
1.5165	23.26355
1.517	16.21399
1.5175	11.07788
1.518	9.97009
1.5185	15.30762
1.519	16.01257
1.5195	17.82532
1.52	21.65222
1.5205	16.51611
1.521	12.48779
1.5215	10.57434
1.522	5.13611
1.5225	-2.92053
1.523	0.10071
1.5235	-4.63257
1.524	-5.84106
1.5245	-10.27222
1.525	-15.50903
1.5255	-15.20691
1.526	-17.01965
1.5265	-19.43665
1.527	-22.15576
1.5275	-18.73169
1.528	-18.32886
1.5285	-16.51611
1.529	-4.53186
1.5295	7.45239
1.53	19.03381
1.5305	33.43506
1.531	40.2832
1.5315	32.42798
1.532	28.09753
1.5325	25.47913
1.533	20.64514
1.5335	13.59558
1.534	11.58142
1.5345	4.43115
1.535	-0.30212
1.5355	-1.40991
1.536	1.91345
1.5365	5.13611
1.537	12.5885
1.5375	7.15027
1.538	3.92761
1.5385	5.43823
1.539	2.21558
1.5395	5.13611
1.54	-1.71204
1.5405	-1.61133
1.541	2.5177
1.5415	5.13611
1.542	9.76868
1.5425	5.33752
1.543	2.5177
1.5435	6.44531
1.544	5.0354
1.5445	10.0708
1.545	3.92761
1.5455	2.81982
1.546	0.40283
1.5465	0.20142
1.547	-4.12903
1.5475	-4.33044
1.548	-3.92761
1.5485	-5.33752
1.549	-0.40283
1.5495	-4.02832
1.55	-3.12195
1.5505	-8.66089
1.551	-9.97009
1.5515	-1.61133
1.552	-8.66089
1.5525	1.40991
1.553	1.00708
1.5535	5.13611
1.554	0.40283
1.5545	1.40991
1.555	-0.10071
1.5555	-4.43115
1.556	-11.17859
1.5565	-16.11328
1.557	-21.45081
1.5575	-13.797
1.558	-12.18567
1.5585	-8.05664
1.559	0.10071
1.5595	1.81274
1.56	8.96301
1.5605	14.09912
1.561	10.97717
1.5615	6.64673
1.562	-0.60425
1.5625	0.80566
1.563	-4.33044
1.5635	-4.22974
1.564	-2.71912
1.5645	1.91345
1.565	0
1.5655	1.00708
1.566	-0.40283
1.5665	-3.22266
1.567	-12.99133
1.5675	-5.53894
1.568	-4.93469
1.5685	-6.54602
1.569	2.5177
1.5695	-8.45947
1.57	-7.5531
1.5705	-7.65381
1.571	-5.33752
1.5715	-9.26514
1.572	-3.12195
1.5725	-6.54602
1.573	-8.66089
1.5735	2.31628
1.574	1.10779
1.5745	-3.8269
1.575	-2.01416
1.5755	-3.62549
1.576	-7.5531
1.5765	0.80566
1.577	-0.60425
1.5775	-0.80566
1.578	-2.61841
1.5785	2.31628
1.579	-0.70496
1.5795	-2.01416
1.58	-3.42407
1.5805	-4.83398
1.581	-1.40991
1.5815	-4.12903
1.582	-5.33752
1.5825	-5.74036
1.583	-5.13611
1.5835	-7.85522
1.584	-3.62549
1.5845	-1.10779
1.585	-3.02124
1.5855	-5.43823
1.586	-6.84814
1.5865	-1.3092
1.587	-1.3092
1.5875	-2.92053
1.588	-2.92053
1.5885	-3.52478
1.589	0.90637
1.5895	0.90637
1.59	3.02124
1.5905	5.74036
1.591	0.40283
1.5915	-3.92761
1.592	-9.46655
1.5925	-10.37292
1.593	-11.78284
1.5935	-10.67505
1.594	-5.84106
1.5945	-9.97009
1.595	-12.78992
1.5955	-4.73328
1.596	-9.36584
1.5965	-5.43823
1.597	-5.33752
1.5975	-5.0354
1.598	-6.94885
1.5985	-7.95593
1.599	-6.2439
1.5995	-2.5177
1.6	-1.61133
1.6005	0.90637
1.601	-2.31628
1.6015	1.51062
1.602	2.5177
1.6025	-1.10779
1.603	-0.90637
1.6035	-0.90637
1.604	0.30212
1.6045	-5.13611
1.605	-13.49487
1.6055	-10.97717
1.606	-9.46655
1.6065	-10.17151
1.607	-2.01416
1.6075	-6.2439
1.608	-4.22974
1.6085	0.40283
1.609	0.40283
1.6095	-2.31628
1.61	-5.94177
1.6105	-8.56018
1.611	-5.74036
1.6115	-4.83398
1.612	-10.57434
1.6125	-1.61133
1.613	3.92761
1.6135	-0.50354
1.614	-1.3092
1.6145	-1.40991
1.615	1.61133
1.6155	6.84814
1.616	5.74036
1.6165	10.0708
1.617	8.56018
1.6175	6.04248
1.618	11.38
1.6185	5.43823
1.619	9.16443
1.6195	8.56018
1.62	6.84814
1.6205	6.2439
1.621	6.74744
1.6215	8.7616
1.622	1.10779
1.6225	6.2439
1.623	4.33044
1.6235	2.01416
1.624	9.76868
1.6245	-3.52478
1.625	-2.01416
1.6255	-9.86938
1.626	-3.32336
1.6265	-3.52478
1.627	-5.0354
1.6275	-0.20142
1.628	2.71912
1.6285	2.61841
1.629	-0.40283
1.6295	3.02124
1.63	5.84106
1.6305	5.94177
1.631	7.35168
1.6315	9.56726
1.632	1.10779
1.6325	1.51062
1.633	0.30212
1.6335	-1.71204
1.634	-10.27222
1.6345	-15.91187
1.635	-11.98425
1.6355	-11.2793
1.636	-9.06372
1.6365	-2.71912
1.637	-7.04956
1.6375	-13.99841
1.638	-8.56018
1.6385	-11.38
1.639	-10.37292
1.6395	-9.76868
1.64	-8.25806
1.6405	-11.17859
1.641	-6.2439
1.6415	-7.15027
1.642	-3.42407
1.6425	0.30212
1.643	-0.30212
1.6435	-1.81274
1.644	-3.02124
1.6445	-3.7262
1.645	0.10071
1.6455	1.10779
1.646	-1.2085
1.6465	-5.43823
1.647	0
1.6475	2.71912
1.648	2.81982
1.6485	1.2085
1.649	0.80566
1.6495	-0.40283
1.65	1.40991
1.6505	-0.70496
1.651	3.12195
1.6515	-4.83398
1.652	-1.2085
1.6525	-4.53186
1.653	-2.11487
1.6535	-4.02832
1.654	-5.84106
1.6545	-10.27222
1.655	-9.76868
1.6555	-5.94177
1.656	-13.89771
1.6565	-12.78992
1.657	-5.74036
1.6575	-0.20142
1.658	0.60425
1.6585	1.40991
1.659	3.22266
1.6595	-5.63965
1.66	1.2085
1.6605	-1.2085
1.661	-0.70496
1.6615	-6.74744
1.662	-7.5531
1.6625	-9.06372
1.663	-10.97717
1.6635	-8.45947
1.664	-7.95593
1.6645	-9.97009
1.665	-2.31628
1.6655	-0.40283
1.666	-4.02832
1.6665	-3.12195
1.667	-4.22974
1.6675	-4.43115
1.668	-8.96301
1.6685	-4.02832
1.669	-2.92053
1.6695	3.12195
1.67	-1.10779
1.6705	2.71912
1.671	-2.21558
1.6715	0.80566
1.672	1.81274
1.6725	4.02832
1.673	4.73328
1.6735	1.91345
1.674	-4.43115
1.6745	-1.71204
1.675	0.70496
1.6755	6.44531
1.676	-1.3092
1.6765	0.70496
1.677	-0.70496
1.6775	2.81982
1.678	3.62549
1.6785	-2.11487
1.679	-1.10779
1.6795	0.50354
1.68	-0.60425
1.6805	-2.5177
1.681	-1.71204
1.6815	2.11487
1.682	-5.33752
1.6825	-3.02124
1.683	-3.7262
1.6835	-0.10071
1.684	0.40283
1.6845	0.40283
1.685	2.71912
1.6855	-3.92761
1.686	3.62549
1.6865	3.12195
1.687	0.50354
1.6875	2.61841
1.688	-0.80566
1.6885	0.20142
1.689	-3.22266
1.6895	-0.80566
1.69	-4.33044
1.6905	-1.2085
1.691	-5.84106
1.6915	-1.2085
1.692	-0.70496
1.6925	3.62549
1.693	-3.92761
1.6935	-0.60425
1.694	-0.80566
1.6945	-3.92761
1.695	-0.60425
1.6955	-2.01416
1.696	-10.27222
1.6965	-6.64673
1.697	-8.25806
1.6975	-10.27222
1.698	-2.81982
1.6985	-5.23682
1.699	-4.93469
1.6995	-9.26514
1.7	-10.17151
1.7005	-7.45239
1.701	-7.25098
1.7015	-4.83398
1.702	-8.8623
1.7025	-8.25806
1.703	-14.60266
1.7035	-8.96301
1.704	-7.5531
1.7045	-8.15735
1.705	-3.7262
1.7055	-3.32336
1.706	2.41699
1.7065	-2.71912
1.707	0.10071
1.7075	3.22266
1.708	-4.63257
1.7085	3.22266
1.709	1.40991
1.7095	3.7262
1.71	2.92053
1.7105	2.5177
1.711	-2.71912
1.7115	1.71204
1.712	-0.40283
1.7125	-2.81982
1.713	-0.60425
1.7135	-3.92761
1.714	-3.8269
1.7145	-4.53186
1.715	3.52478
1.7155	4.02832
1.716	4.53186
1.7165	0.80566
1.717	2.11487
1.7175	4.93469
1.718	-1.51062
1.7185	0.30212
1.719	0.90637
1.7195	-0.40283
1.72	-3.7262
1.7205	0.70496
1.721	-1.2085
1.7215	-1.2085
1.722	-0.70496
1.7225	1.3092
1.723	-1.91345
1.7235	0.60425
1.724	-3.52478
1.7245	-4.43115
1.725	-3.52478
1.7255	1.91345
1.726	-6.2439
1.7265	-1.51062
1.727	-4.12903
1.7275	-1.51062
1.728	0.50354
1.7285	-1.81274
1.729	-1.71204
1.7295	2.21558
1.73	1.40991
1.7305	0.40283
1.731	-3.02124
1.7315	2.31628
1.732	0.80566
1.7325	-3.7262
1.733	-0.90637
1.7335	-4.02832
1.734	1.81274
1.7345	-2.41699
1.735	-4.53186
1.7355	-1.81274
1.736	-0.60425
1.7365	-4.83398
1.737	-2.61841
1.7375	-3.62549
1.738	0.40283
1.7385	0
1.739	0.30212
1.7395	-3.02124
1.74	-3.22266
1.7405	0.30212
1.741	-4.53186
1.7415	-4.22974
1.742	-6.74744
1.7425	-6.84814
1.743	0.90637
1.7435	3.92761
1.744	6.3446
1.7445	7.15027
1.745	-1.81274
1.7455	-0.10071
1.746	-0.80566
1.7465	-0.80566
1.747	-8.96301
1.7475	-0.50354
1.748	-5.33752
1.7485	-4.93469
1.749	-7.45239
1.7495	-16.41541
1.75	-12.08496
1.7505	-14.09912
1.751	-15.81116
1.7515	-11.78284
1.752	-12.99133
1.7525	-7.04956
1.753	3.32336
1.7535	9.66797
1.754	16.3147
1.7545	14.60266
1.755	11.48071
1.7555	17.72461
1.756	21.24939
1.7565	22.25647
1.757	23.46497
1.7575	24.77417
1.758	24.67346
1.7585	30.91736
1.759	28.70178
1.7595	29.10461
1.76	20.64514
1.7605	13.69629
1.761	3.02124
1.7615	4.83398
1.762	10.57434
1.7625	3.52478
1.763	8.56018
1.7635	0.50354
1.764	-10.17151
1.7645	-5.43823
1.765	-3.8269
1.7655	-4.33044
1.766	-2.92053
1.7665	-1.61133
1.767	1.00708
1.7675	-3.62549
1.768	-5.74036
1.7685	-10.27222
1.769	-6.74744
1.7695	-8.05664
1.77	-3.52478
1.7705	-11.58142
1.771	-9.46655
1.7715	-12.18567
1.772	-11.78284
1.7725	-10.0708
1.773	-15.30762
1.7735	-10.57434
1.774	-11.68213
1.7745	-9.56726
1.775	-13.69629
1.7755	-15.50903
1.776	-20.84656
1.7765	-18.42957
1.777	-14.60266
1.7775	-14.80408
1.778	-17.52319
1.7785	-18.53027
1.779	-17.82532
1.7795	-19.13452
1.78	-26.58691
1.7805	-23.26355
1.781	-24.97559
1.7815	-18.63098
1.782	-10.47363
1.7825	-3.12195
1.783	-3.32336
1.7835	-2.61841
1.784	-4.22974
1.7845	-6.3446
1.785	1.71204
1.7855	0.60425
1.786	6.94885
1.7865	13.49487
1.787	20.74585
1.7875	21.3501
1.788	15.30762
1.7885	4.93469
1.789	16.11328
1.7895	16.51611
1.79	18.93311
1.7905	27.29187
1.791	30.81665
1.7915	23.76709
1.792	15.20691
1.7925	10.47363
1.793	14.60266
1.7935	2.01416
1.794	-0.10071
1.7945	2.31628
1.795	4.02832
1.7955	13.797
1.796	13.39417
1.7965	20.34302
1.797	23.66638
1.7975	18.8324
1.798	12.78992
1.7985	9.36584
1.799	6.74744
1.7995	10.17151
1.8	1.40991
1.8005	-8.15735
1.801	-12.28638
1.8015	-18.32886
1.802	-23.36426
1.8025	-17.6239
1.803	-8.7616
1.8035	-5.84106
1.804	-1.91345
1.8045	2.92053
1.805	5.13611
1.8055	10.57434
1.806	11.07788
1.8065	10.37292
1.807	7.35168
1.8075	12.18567
1.808	4.02832
1.8085	4.53186
1.809	2.01416
1.8095	0.50354
1.81	-5.43823
1.8105	-3.92761
1.811	-8.96301
1.8115	3.32336
1.812	3.12195
1.8125	-6.84814
1.813	-11.07788
1.8135	-23.66638
1.814	-22.96143
1.8145	-25.37842
1.815	-22.25647
1.8155	-24.06921
1.816	-22.25647
1.8165	-21.75293
1.817	-25.07629
1.8175	-30.11169
1.818	-29.70886
1.8185	-37.26196
1.819	-30.2124
1.8195	-18.8324
1.82	4.53186
1.8205	27.39258
1.821	39.57825
1.8215	43.40515
1.822	39.98108
1.8225	20.64514
1.823	12.38708
1.8235	0.90637
1.824	-4.63257
1.8245	-1.2085
1.825	-2.41699
1.8255	8.66089
1.826	8.66089
1.8265	15.60974
1.827	19.94019
1.8275	9.46655
1.828	11.07788
1.8285	7.5531
1.829	8.7616
1.8295	15.81116
1.83	17.92603
1.8305	13.19275
1.831	16.61682
1.8315	18.42957
1.832	15.60974
1.8325	16.91895
1.833	15.91187
1.8335	12.68921
1.834	2.92053
1.8345	6.84814
1.835	3.8269
1.8355	6.84814
1.836	12.48779
1.8365	15.30762
1.837	10.97717
1.8375	1.71204
1.838	-8.56018
1.8385	-15.71045
1.839	-13.19275
1.8395	-9.56726
1.84	-2.92053
1.8405	-1.61133
1.841	-3.52478
1.8415	-0.30212
1.842	2.01416
1.8425	4.63257
1.843	7.5531
1.8435	0.60425
1.844	-0.10071
1.8445	-5.63965
1.845	-5.23682
1.8455	-7.25098
1.846	-6.14319
1.8465	-7.25098
1.847	-4.33044
1.8475	-7.75452
1.848	-13.09204
1.8485	-14.80408
1.849	-17.72461
1.8495	-9.36584
1.85	-10.67505
1.8505	-2.81982
1.851	3.7262
1.8515	6.2439
1.852	6.44531
1.8525	-0.70496
1.853	-3.62549
1.8535	-1.61133
1.854	0.80566
1.8545	-7.75452
1.855	-7.45239
1.8555	-5.43823
1.856	-1.71204
1.8565	-7.75452
1.857	-1.71204
1.8575	-0.60425
1.858	-5.0354
1.8585	-5.43823
1.859	-5.0354
1.8595	-4.22974
1.86	-0.90637
1.8605	-3.8269
1.861	-1.91345
1.8615	1.00708
1.862	-4.12903
1.8625	-2.11487
1.863	0.20142
1.8635	1.10779
1.864	-4.02832
1.8645	6.3446
1.865	1.10779
1.8655	0
1.866	4.02832
1.8665	-0.20142
1.867	-2.01416
1.8675	2.5177
1.868	4.83398
1.8685	2.31628
1.869	1.81274
1.8695	1.71204
1.87	0.70496
1.8705	5.53894
1.871	4.43115
1.8715	3.62549
1.872	-0.10071
1.8725	-0.70496
1.873	3.12195
1.8735	1.00708
1.874	1.10779
1.8745	6.64673
1.875	7.45239
1.8755	3.92761
1.876	2.31628
1.8765	2.41699
1.877	4.22974
1.8775	2.21558
1.878	4.02832
1.8785	1.40991
1.879	4.93469
1.8795	3.92761
1.88	-0.80566
1.8805	4.73328
1.881	-0.80566
1.8815	2.92053
1.882	2.92053
1.8825	-0.30212
1.883	-2.92053
1.8835	-4.63257
1.884	-2.41699
1.8845	3.52478
1.885	1.00708
1.8855	5.33752
1.886	11.2793
1.8865	8.66089
1.887	9.97009
1.8875	3.8269
1.888	2.71912
1.8885	5.13611
1.889	-0.10071
1.8895	3.42407
1.89	0.20142
1.8905	-0.20142
1.891	-0.10071
1.8915	2.71912
1.892	5.94177
1.8925	9.56726
1.893	14.19983
1.8935	19.83948
1.894	18.42957
1.8945	14.40125
1.895	11.98425
1.8955	8.7616
1.896	7.45239
1.8965	4.83398
1.897	4.53186
1.8975	5.43823
1.898	11.07788
1.8985	12.89062
1.899	15.40833
1.8995	17.32178
1.9	19.13452
1.9005	16.71753
1.901	11.2793
1.9015	15.00549
1.902	14.19983
1.9025	14.40125
1.903	2.71912
1.9035	-1.91345
1.904	-16.81824
1.9045	-15.20691
1.905	-13.19275
1.9055	-11.58142
1.906	-7.35168
1.9065	-8.8623
1.907	-4.73328
1.9075	-7.95593
1.908	-13.797
1.9085	-17.82532
1.909	-11.07788
1.9095	-11.78284
1.91	-3.8269
1.9105	-5.74036
1.911	-4.12903
1.9115	-5.43823
1.912	1.10779
1.9125	-0.30212
1.913	-0.60425
1.9135	-2.21558
1.914	-4.83398
1.9145	-6.94885
1.915	-3.22266
1.9155	-4.93469
1.916	-6.04248
1.9165	-2.5177
1.917	-4.12903
1.9175	-3.42407
1.918	1.61133
1.9185	2.92053
1.919	7.95593
1.9195	12.28638
1.92	13.09204
1.9205	12.99133
1.921	7.45239
1.9215	-1.00708
1.922	-9.16443
1.9225	-9.76868
1.923	-10.17151
1.9235	-8.66089
1.924	-3.8269
1.9245	-6.04248
1.925	-10.27222
1.9255	-16.3147
1.926	-17.72461
1.9265	-18.02673
1.927	-19.53735
1.9275	-14.90479
1.928	-17.01965
1.9285	-12.5885
1.929	-11.38
1.9295	-15.91187
1.93	-13.797
1.9305	-6.74744
1.931	-8.45947
1.9315	-3.52478
1.932	-9.26514
1.9325	-7.45239
1.933	-6.2439
1.9335	-9.46655
1.934	-9.56726
1.9345	-8.45947
1.935	-9.97009
1.9355	-1.2085
1.936	-4.53186
1.9365	-7.65381
1.937	-4.12903
1.9375	-7.95593
1.938	-3.8269
1.9385	-8.45947
1.939	-12.18567
1.9395	-14.09912
1.94	-12.5885
1.9405	-13.49487
1.941	-9.06372
1.9415	-16.81824
1.942	-17.12036
1.9425	-14.50195
1.943	-17.92603
1.9435	-13.69629
1.944	-16.41541
1.9445	-5.53894
1.945	-2.5177
1.9455	-1.51062
1.946	-5.43823
1.9465	-3.12195
1.947	-7.35168
1.9475	-8.45947
1.948	-6.44531
1.9485	-10.97717
1.949	-9.56726
1.9495	-5.84106
1.95	-7.65381
1.9505	-6.64673
1.951	-6.74744
1.9515	-8.25806
1.952	-4.53186
1.9525	-6.64673
1.953	-6.54602
1.9535	-7.04956
1.954	-6.3446
1.9545	-3.7262
1.955	-6.14319
1.9555	-4.73328
1.956	-5.53894
1.9565	-0.20142
1.957	2.21558
1.9575	0.60425
1.958	-0.30212
1.9585	-3.62549
1.959	-5.84106
1.9595	-3.12195
1.96	2.11487
1.9605	-2.31628
1.961	-1.2085
1.9615	-5.13611
1.962	-2.81982
1.9625	3.62549
1.963	1.2085
1.9635	-0.90637
1.964	3.42407
1.9645	0.20142
1.965	-3.02124
1.9655	-3.92761
1.966	0.30212
1.9665	1.61133
1.967	4.83398
1.9675	-1.10779
1.968	-2.81982
1.9685	-3.42407
1.969	2.11487
1.9695	-2.81982
1.97	-1.91345
1.9705	2.92053
1.971	1.81274
1.9715	-0.10071
1.972	-4.63257
1.9725	-1.81274
1.973	-1.00708
1.9735	-2.01416
1.974	0
1.9745	5.74036
1.975	-0.60425
1.9755	-0.20142
1.976	0.80566
1.9765	0
1.977	6.44531
1.9775	8.66089
1.978	4.33044
1.9785	-0.70496
1.979	-4.53186
1.9795	-3.7262
1.98	-4.63257
1.9805	-1.71204
1.981	-0.20142
1.9815	-4.22974
1.982	2.92053
1.9825	5.23682
1.983	0.20142
1.9835	4.12903
1.984	-2.01416
1.9845	0.80566
1.985	-2.01416
1.9855	-3.7262
1.986	-0.50354
1.9865	-4.33044
1.987	0.80566
1.9875	-3.52478
1.988	-0.90637
1.9885	-3.62549
1.989	-0.50354
1.9895	-7.95593
1.99	-0.70496
1.9905	-3.52478
1.991	-1.10779
1.9915	0.60425
1.992	-9.76868
1.9925	-8.8623
1.993	-2.71912
1.9935	0.90637
1.994	0.50354
1.9945	-2.71912
1.995	3.42407
1.9955	-0.30212
1.996	-4.02832
1.9965	-0.30212
1.997	4.22974
1.9975	2.11487
1.998	-2.92053
1.9985	3.12195
1.999	5.84106
1.9995	2.92053
2	1.71204
2.0005	1.71204
2.001	2.61841
2.0015	-0.90637
2.002	-2.41699
2.0025	0.40283
2.003	3.12195
2.0035	2.21558
2.004	-1.61133
2.0045	-2.41699
2.005	-8.15735
2.0055	-3.52478
2.006	-6.3446
2.0065	-6.2439
2.007	-10.27222
2.0075	-4.43115
2.008	-2.21558
2.0085	-4.63257
2.009	-5.53894
2.0095	-6.54602
2.01	0.50354
2.0105	-0.70496
2.011	-2.81982
2.0115	-5.13611
2.012	-2.71912
2.0125	-5.43823
2.013	-2.71912
2.0135	2.41699
2.014	-0.10071
2.0145	-0.50354
2.015	2.21558
2.0155	1.00708
2.016	-6.84814
2.0165	-2.41699
2.017	2.41699
2.0175	4.12903
2.018	5.0354
2.0185	4.73328
2.019	-0.90637
2.0195	7.75452
2.02	-3.12195
2.0205	-0.30212
2.021	2.81982
2.0215	-0.70496
2.022	-0.30212
2.0225	0.10071
2.023	6.64673
2.0235	3.02124
2.024	1.3092
2.0245	-6.2439
2.025	-6.04248
2.0255	-6.04248
2.026	-7.35168
2.0265	-12.48779
2.027	-11.38
2.0275	-10.97717
2.028	-9.56726
2.0285	-7.85522
2.029	-3.7262
2.0295	3.02124
2.03	5.33752
2.0305	6.54602
2.031	7.95593
2.0315	12.99133
2.032	12.89062
2.0325	12.28638
2.033	12.99133
2.0335	6.64673
2.034	7.35168
2.0345	4.93469
2.035	7.04956
2.0355	2.61841
2.036	2.41699
2.0365	0.50354
2.037	8.15735
2.0375	1.91345
2.038	6.84814
2.0385	1.10779
2.039	1.81274
2.0395	4.83398
2.04	1.81274
2.0405	5.53894
2.041	8.45947
2.0415	5.33752
2.042	-1.00708
2.0425	3.32336
2.043	2.81982
2.0435	1.10779
2.044	1.61133
2.0445	6.3446
2.045	8.25806
2.0455	4.93469
2.046	-2.41699
2.0465	5.53894
2.047	4.02832
2.0475	8.8623
2.048	1.3092
2.0485	2.01416
2.049	0.80566
2.0495	1.71204
2.05	2.71912
2.0505	0.50354
2.051	4.83398
2.0515	2.31628
2.052	-1.71204
2.0525	-1.3092
2.053	-2.31628
2.0535	0.50354
2.054	-3.22266
2.0545	-1.91345
2.055	1.81274
2.0555	-0.90637
2.056	-0.90637
2.0565	-1.81274
2.057	-3.52478
2.0575	1.71204
2.058	0.10071
2.0585	1.61133
2.059	-2.81982
2.0595	-0.80566
2.06	-0.60425
2.0605	-0.20142
2.061	2.71912
2.0615	-0.20142
2.062	2.21558
2.0625	-0.70496
2.063	1.61133
2.0635	-2.92053
2.064	-3.12195
2.0645	-0.40283
2.065	1.71204
2.0655	-1.61133
2.066	-5.84106
2.0665	-5.23682
2.067	-0.60425
2.0675	-2.11487
2.068	-8.96301
2.0685	-5.94177
2.069	2.21558
2.0695	2.61841
2.07	5.33752
2.0705	6.74744
2.071	7.25098
2.0715	14.50195
2.072	9.76868
2.0725	7.25098
2.073	5.43823
2.0735	1.3092
2.074	-2.5177
2.0745	-7.15027
2.075	-6.74744
2.0755	-7.5531
2.076	-8.56018
2.0765	-8.96301
2.077	-7.45239
2.0775	-3.52478
2.078	-5.43823
2.0785	-6.54602
2.079	-3.7262
2.0795	-4.02832
2.08	1.2085
2.0805	8.25806
2.081	14.09912
2.0815	11.58142
2.082	5.33752
2.0825	3.92761
2.083	12.38708
2.0835	7.04956
2.084	-0.40283
2.0845	5.94177
2.085	6.44531
2.0855	4.02832
2.086	4.53186
2.0865	4.53186
2.087	2.21558
2.0875	-3.42407
2.088	-1.00708
2.0885	-6.2439
2.089	-0.40283
2.0895	0.20142
2.09	6.64673
2.0905	1.91345
2.091	-0.80566
2.0915	0.10071
2.092	1.81274
2.0925	2.41699
2.093	2.31628
2.0935	-1.51062
2.094	-1.71204
2.0945	0.10071
2.095	-5.63965
2.0955	-0.40283
2.096	0.80566
2.0965	2.5177
2.097	3.62549
2.0975	1.3092
2.098	-3.32336
2.0985	-7.04956
2.099	-3.32336
2.0995	-7.65381
2.1	-6.14319
2.1005	-5.33752
2.101	-2.01416
2.1015	2.61841
2.102	0.20142
2.1025	-1.91345
2.103	-2.11487
2.1035	-1.10779
2.104	0.10071
2.1045	-2.21558
2.105	1.2085
2.1055	-1.51062
2.106	1.40991
2.1065	0.10071
2.107	-2.41699
2.1075	2.71912
2.108	-3.7262
2.1085	0.10071
2.109	-2.81982
2.1095	2.71912
2.11	6.84814
2.1105	1.00708
2.111	3.42407
2.1115	-5.43823
2.112	-3.7262
2.1125	-2.92053
2.113	-1.71204
2.1135	-5.74036
2.114	-4.43115
2.1145	-4.83398
2.115	-9.97009
2.1155	-4.53186
2.116	-12.18567
2.1165	-9.26514
2.117	-10.97717
2.1175	-13.19275
2.118	-8.15735
2.1185	-12.38708
2.119	-6.94885
2.1195	-1.10779
2.12	-2.21558
2.1205	-1.91345
2.121	-5.84106
2.1215	1.71204
2.122	2.61841
2.1225	3.7262
2.123	8.05664
2.1235	9.46655
2.124	8.45947
2.1245	10.17151
2.125	8.05664
2.1255	10.0708
2.126	10.0708
2.1265	5.43823
2.127	9.66797
2.1275	5.53894
2.128	4.33044
2.1285	3.7262
2.129	6.04248
2.1295	3.7262
2.13	7.75452
2.1305	7.75452
2.131	13.59558
2.1315	10.0708
2.132	6.14319
2.1325	7.25098
2.133	5.13611
2.1335	2.81982
2.134	1.3092
2.1345	6.94885
2.135	6.14319
2.1355	10.77576
2.136	10.17151
2.1365	11.98425
2.137	7.45239
2.1375	5.94177
2.138	-1.00708
2.1385	2.11487
2.139	4.93469
2.1395	0.40283
2.14	-0.90637
2.1405	2.01416
2.141	1.40991
2.1415	5.23682
2.142	5.63965
2.1425	2.71912
2.143	3.52478
2.1435	2.11487
2.144	3.22266
2.1445	1.2085
2.145	-1.3092
2.1455	-2.11487
2.146	-3.32336
2.1465	-1.91345
2.147	0.60425
2.1475	-4.22974
2.148	-4.83398
2.1485	-4.33044
2.149	0.90637
2.1495	3.52478
2.15	-2.21558
2.1505	2.41699
2.151	2.92053
2.1515	0
2.152	2.92053
2.1525	3.02124
2.153	5.23682
2.1535	7.25098
2.154	2.31628
2.1545	-3.32336
2.155	-4.22974
2.1555	-3.8269
2.156	-6.54602
2.1565	-2.5177
2.157	-3.02124
2.1575	-2.92053
2.158	-5.94177
2.1585	-5.0354
2.159	-4.02832
2.1595	3.62549
2.16	-0.70496
2.1605	-0.10071
2.161	0.70496
2.1615	-2.01416
2.162	-3.12195
2.1625	-3.8269
2.163	-0.60425
2.1635	4.93469
2.164	-1.61133
2.1645	0.80566
2.165	1.51062
2.1655	3.22266
2.166	4.33044
2.1665	3.02124
2.167	4.02832
2.1675	-0.60425
2.168	-1.3092
2.1685	-2.31628
2.169	0.70496
2.1695	-4.02832
2.17	-1.40991
2.1705	-9.26514
2.171	-9.36584
2.1715	-5.43823
2.172	-1.71204
2.1725	-7.04956
2.173	-12.28638
2.1735	-11.48071
2.174	-8.96301
2.1745	-4.73328
2.175	1.51062
2.1755	4.83398
2.176	6.3446
2.1765	9.97009
2.177	10.17151
2.1775	5.84106
2.178	10.17151
2.1785	8.66089
2.179	7.45239
2.1795	5.0354
2.18	7.15027
2.1805	4.63257
2.181	4.53186
2.1815	3.42407
2.182	4.22974
2.1825	6.84814
2.183	1.81274
2.1835	-5.43823
2.184	-1.00708
2.1845	0.50354
2.185	-0.80566
2.1855	-3.92761
2.186	-0.80566
2.1865	-5.33752
2.187	-5.84106
2.1875	-4.33044
2.188	0.90637
2.1885	-3.22266
2.189	-8.96301
2.1895	-8.45947
2.19	-3.32336
2.1905	-3.62549
2.191	-3.62549
2.1915	0.20142
2.192	1.2085
2.1925	-3.8269
2.193	3.32336
2.1935	-0.50354
2.194	-5.0354
2.1945	1.91345
2.195	-1.3092
2.1955	5.33752
2.196	1.61133
2.1965	4.83398
2.197	0.60425
2.1975	0.40283
2.198	-1.61133
2.1985	4.73328
2.199	0.50354
2.1995	-1.81274
2.2	0.70496
2.2005	-3.92761
2.201	-4.02832
2.2015	-0.20142
2.202	-5.43823
2.2025	-2.5177
2.203	-4.93469
2.2035	-3.62549
2.204	-3.92761
2.2045	-3.7262
2.205	0
2.2055	-1.71204
2.206	-0.50354
2.2065	7.95593
2.207	5.33752
2.2075	1.00708
2.208	2.11487
2.2085	0.60425
2.209	-0.70496
2.2095	5.43823
2.21	5.84106
2.2105	1.40991
2.211	3.12195
2.2115	3.42407
2.212	-0.90637
2.2125	2.71912
2.213	4.43115
2.2135	0.70496
2.214	6.64673
2.2145	2.01416
2.215	-0.30212
2.2155	1.81274
2.216	2.31628
2.2165	-0.40283
2.217	-1.71204
2.2175	-0.40283
2.218	-1.61133
2.2185	5.33752
2.219	2.61841
2.2195	0.50354
2.22	-0.30212
2.2205	8.66089
2.221	4.02832
2.2215	1.91345
2.222	5.74036
2.2225	-2.11487
2.223	-1.2085
2.2235	-5.53894
2.224	-4.83398
2.2245	-1.3092
2.225	4.22974
2.2255	1.91345
2.226	2.71912
2.2265	0.30212
2.227	-6.44531
2.2275	-5.63965
2.228	-1.71204
2.2285	0.70496
2.229	-5.23682
2.2295	-3.92761
2.23	0.10071
2.2305	6.44531
2.231	6.44531
2.2315	-0.20142
2.232	-0.80566
2.2325	2.31628
2.233	3.22266
2.2335	2.41699
2.234	0.20142
2.2345	4.83398
2.235	6.84814
2.2355	3.62549
2.236	-1.81274
2.2365	-2.5177
2.237	-2.61841
2.2375	-7.15027
2.238	-5.43823
2.2385	-0.90637
2.239	-4.12903
2.2395	-6.74744
2.24	-5.23682
2.2405	0.70496
2.241	-1.51062
2.2415	-5.53894
2.242	-3.42407
2.2425	-3.22266
2.243	-2.11487
2.2435	1.2085
2.244	1.51062
2.2445	-5.63965
2.245	-4.93469
2.2455	-2.81982
2.246	-0.20142
2.2465	0
2.247	0
2.2475	-4.02832
2.248	0.50354
2.2485	-3.22266
2.249	2.5177
2.2495	-0.40283
2.25	1.00708
2.2505	0.60425
2.251	-2.92053
2.2515	-2.71912
2.252	-7.25098
2.2525	-7.25098
2.253	-6.04248
2.2535	-5.94177
2.254	-3.12195
2.2545	-7.65381
2.255	-5.53894
2.2555	-3.62549
2.256	1.3092
2.2565	-1.00708
2.257	-1.81274
2.2575	-3.02124
2.258	-5.74036
2.2585	-1.2085
2.259	-2.41699
2.2595	-6.14319
2.26	4.12903
2.2605	-3.8269
2.261	1.3092
2.2615	-1.71204
2.262	-2.01416
2.2625	2.81982
2.263	3.02124
2.2635	5.63965
2.264	-3.7262
2.2645	4.02832
2.265	-3.62549
2.2655	-2.01416
2.266	-4.43115
2.2665	-7.25098
2.267	-2.81982
2.2675	-5.63965
2.268	-0.70496
2.2685	-4.22974
2.269	3.32336
2.2695	4.53186
2.27	2.21558
2.2705	0.10071
2.271	-1.40991
2.2715	3.7262
2.272	7.45239
2.2725	4.12903
2.273	7.35168
2.2735	7.15027
2.274	6.94885
2.2745	6.54602
2.275	-2.01416
2.2755	1.10779
2.276	-4.33044
2.2765	-3.32336
2.277	-4.93469
2.2775	-0.10071
2.278	1.91345
2.2785	-2.71912
2.279	-2.31628
2.2795	-5.23682
2.28	-0.80566
2.2805	-1.10779
2.281	0
2.2815	1.2085
2.282	-3.22266
2.2825	-5.33752
2.283	-0.60425
2.2835	-2.71912
2.284	-6.14319
2.2845	-0.50354
2.285	-0.50354
2.2855	-3.32336
2.286	-2.21558
2.2865	-4.43115
2.287	-7.5531
2.2875	-7.15027
2.288	-5.13611
2.2885	-2.5177
2.289	5.33752
2.2895	6.04248
2.29	3.32336
2.2905	3.7262
2.291	4.63257
2.2915	-2.21558
2.292	-1.61133
2.2925	0.20142
2.293	1.40991
2.2935	-3.52478
2.294	-0.90637
2.2945	0.40283
2.295	0.90637
2.2955	-2.01416
2.296	0.20142
2.2965	-3.22266
2.297	-4.22974
2.2975	-2.81982
2.298	-0.40283
2.2985	0.20142
2.299	-1.3092
2.2995	-1.81274
2.3	-1.40991
2.3005	3.92761
2.301	2.11487
2.3015	1.40991
2.302	2.11487
2.3025	3.02124
2.303	1.2085
2.3035	1.71204
2.304	6.94885
2.3045	5.63965
2.305	-0.70496
2.3055	-1.51062
2.306	-0.80566
2.3065	-4.93469
2.307	-1.10779
2.3075	2.21558
2.308	3.22266
2.3085	-0.70496
2.309	0
2.3095	-5.33752
2.31	3.42407
2.3105	-1.00708
2.311	1.2085
2.3115	1.10779
2.312	4.02832
2.3125	-0.80566
2.313	-1.61133
2.3135	5.13611
2.314	2.61841
2.3145	5.74036
2.315	0
2.3155	-0.40283
2.316	0.60425
2.3165	-0.50354
2.317	2.11487
2.3175	-1.40991
2.318	-4.93469
2.3185	-4.53186
2.319	-8.05664
2.3195	-5.0354
2.32	-6.74744
2.3205	-8.96301
2.321	-8.15735
2.3215	-2.01416
2.322	-3.32336
2.3225	-6.14319
2.323	-3.02124
2.3235	-2.21558
2.324	-5.43823
2.3245	-3.02124
2.325	-0.50354
2.3255	-8.05664
2.326	-5.43823
2.3265	-7.35168
2.327	-6.2439
2.3275	-4.83398
2.328	-2.92053
2.3285	-7.04956
2.329	0
2.3295	-8.25806
2.33	-7.04956
2.3305	-7.15027
2.331	0.80566
2.3315	-6.94885
2.332	-6.64673
2.3325	-6.14319
2.333	-1.2085
2.3335	-7.04956
2.334	-6.3446
2.3345	-6.64673
2.335	-7.15027
2.3355	-7.45239
2.336	-5.74036
2.3365	-4.43115
2.337	-7.65381
2.3375	-11.38
2.338	-9.56726
2.3385	-10.37292
2.339	-6.94885
2.3395	-2.5177
2.34	-4.43115
2.3405	-6.74744
2.341	-2.92053
2.3415	-4.93469
2.342	-10.0708
2.3425	-4.53186
2.343	-5.13611
2.3435	-5.33752
2.344	-3.22266
2.3445	-7.04956
2.345	-3.12195
2.3455	-8.35876
2.346	-9.06372
2.3465	-5.43823
2.347	-6.74744
2.3475	-3.12195
2.348	-2.71912
2.3485	-6.2439
2.349	-5.94177
2.3495	-1.51062
2.35	-5.74036
2.3505	-3.92761
2.351	-6.84814
2.3515	-4.12903
2.352	-6.74744
2.3525	-1.91345
2.353	-1.81274
2.3535	-7.95593
2.354	-5.0354
2.3545	-4.12903
2.355	-6.64673
2.3555	-2.31628
2.356	-0.80566
2.3565	-5.23682
2.357	-0.30212
2.3575	-0.90637
2.358	1.71204
2.3585	3.62549
2.359	-0.70496
2.3595	-0.60425
2.36	4.12903
2.3605	5.33752
2.361	3.22266
2.3615	-0.50354
2.362	-3.8269
2.3625	0.70496
2.363	-3.52478
2.3635	1.2085
2.364	2.61841
2.3645	-0.50354
2.365	3.22266
2.3655	2.71912
2.366	-0.90637
2.3665	-4.93469
2.367	-3.32336
2.3675	0.80566
2.368	-1.61133
2.3685	2.71912
2.369	2.41699
2.3695	2.11487
2.37	0.20142
2.3705	4.83398
2.371	4.63257
2.3715	4.93469
2.372	5.84106
2.3725	0.20142
2.373	-2.31628
2.3735	-3.92761
2.374	1.00708
2.3745	0.60425
2.375	0.90637
2.3755	-0.90637
2.376	-2.92053
2.3765	-2.92053
2.377	-1.51062
2.3775	-5.74036
2.378	-5.74036
2.3785	-5.74036
2.379	-5.74036
2.3795	-5.74036
2.38	-5.74036
2.3805	-5.74036
2.381	-5.74036
2.3815	-5.74036
2.382	-5.74036
2.3825	-5.74036
2.383	-5.74036
2.3835	-5.74036
2.384	-5.74036
2.3845	-5.74036
2.385	-5.74036
2.3855	-5.74036
2.386	-5.74036
2.3865	-5.74036
2.387	-5.74036
2.3875	-5.74036
2.388	-3.7262
2.3885	-1.61133
2.389	1.00708
2.3895	-2.41699
2.39	0.20142
2.3905	-0.40283
2.391	3.32336
2.3915	6.64673
2.392	-0.20142
2.3925	0.30212
2.393	1.00708
2.3935	-0.50354
2.394	0.10071
2.3945	-0.70496
2.395	0.60425
2.3955	2.31628
2.396	2.21558
2.3965	2.61841
2.397	0.70496
2.3975	1.10779
2.398	-0.20142
2.3985	-0.50354
2.399	3.62549
2.3995	7.25098
2.4	10.17151
2.4005	9.86938
2.401	1.91345
2.4015	5.63965
2.402	4.02832
2.4025	0.50354
2.403	1.51062
2.4035	2.92053
2.404	2.21558
2.4045	2.5177
2.405	2.11487
2.4055	7.35168
2.406	-0.80566
2.4065	-0.80566
2.407	2.71912
2.4075	3.8269
2.408	0.10071
2.4085	-1.40991
2.409	-1.3092
2.4095	1.71204
2.41	-4.02832
2.4105	-2.61841
2.411	-4.83398
2.4115	-4.02832
2.412	-2.31628
2.4125	-0.50354
2.413	2.71912
2.4135	2.71912
2.414	-1.40991
2.4145	-1.40991
2.415	-6.04248
2.4155	0
2.416	-2.01416
2.4165	-3.12195
2.417	-3.42407
2.4175	-0.10071
2.418	0
2.4185	-3.12195
2.419	-6.44531
2.4195	-8.8623
2.42	-1.51062
2.4205	0.10071
2.421	3.42407
2.4215	11.48071
2.422	17.6239
2.4225	40.68604
2.423	74.02039
2.4235	112.08801
2.424	170.19653
2.4245	207.76062
2.425	237.77161
2.4255	254.69055
2.426	279.1626
2.4265	304.23889
2.427	333.64563
2.4275	365.26794
2.428	399.60938
2.4285	421.46301
2.429	422.06726
2.4295	405.85327
2.43	361.03821
2.4305	300.31128
2.431	221.45691
2.4315	116.82129
2.432	0.70496
2.4325	-125.98572
2.433	-249.35303
2.4335	-348.14758
2.434	-437.87842
2.4345	-499.91455
2.435	-543.72253
2.4355	-558.62732
2.436	-557.92236
2.4365	-520.45898
2.437	-478.26233
2.4375	-424.98779
2.438	-373.02246
2.4385	-313.30261
2.439	-243.71338
2.4395	-177.04468
2.44	-112.08801
2.4405	-70.3949
2.441	-39.88037
2.4415	-17.92603
2.442	3.12195
2.4425	27.39258
2.443	59.1156
2.4435	78.25012
2.444	103.02429
2.4445	118.13049
2.445	136.15723
2.4455	145.52307
2.446	141.89758
2.4465	127.99988
2.447	102.01721
2.4475	83.78906
2.448	55.59082
2.4485	26.3855
2.449	-4.83398
2.4495	-36.55701
2.45	-59.1156
2.4505	-74.32251
2.451	-88.11951
2.4515	-88.0188
2.452	-91.34216
2.4525	-85.80322
2.453	-65.3595
2.4535	-27.99683
2.454	11.98425
2.4545	52.8717
2.455	83.48694
2.4555	111.28235
2.456	136.35864
2.4565	156.70166
2.457	175.13123
2.4575	194.87
2.458	210.58044
2.4585	206.95496
2.459	204.84009
2.4595	185.50415
2.46	149.45068
2.4605	117.72766
2.461	77.44446
2.4615	24.47205
2.462	-27.89612
2.4625	-75.4303
2.463	-125.7843
2.4635	-172.00928
2.464	-214.70947
2.4645	-237.26807
2.465	-244.41833
2.4655	-242.10205
2.466	-227.19727
2.4665	-208.96912
2.467	-185.50415
2.4675	-155.69458
2.468	-125.58289
2.4685	-96.57898
2.469	-69.1864
2.4695	-45.2179
2.47	-17.22107
2.4705	11.2793
2.471	46.42639
2.4715	80.66711
2.472	108.66394
2.4725	132.33032
2.473	160.83069
2.4735	172.00928
2.474	180.87158
2.4745	195.67566
2.475	213.29956
2.4755	238.37585
2.476	264.1571
2.4765	293.0603
2.477	318.74084
2.4775	340.19165
2.478	339.5874
2.4785	324.4812
2.479	300.31128
2.4795	269.29321
2.48	218.33496
2.4805	136.56006
2.481	44.71436
2.4815	-66.26587
2.482	-160.62927
2.4825	-255.2948
2.483	-343.51501
2.4835	-396.99097
2.484	-421.56372
2.4845	-416.93115
2.485	-384.30176
2.4855	-335.25696
2.486	-286.81641
2.4865	-228.30505
2.487	-155.09033
2.4875	-50.75684
2.488	87.01172
2.4885	229.21143
2.489	353.3844
2.4895	455.3009
2.49	509.98535
2.4905	528.31421
2.491	520.6604
2.4915	488.33313
2.492	423.17505
2.4925	347.84546
2.493	255.49622
2.4935	140.48767
2.494	22.05505
2.4945	-93.96057
2.495	-194.06433
2.4955	-297.995
2.496	-388.93433
2.4965	-456.30798
2.497	-493.06641
2.4975	-505.75562
2.498	-497.29614
2.4985	-474.93896
2.499	-425.69275
2.4995	-352.57874
2.5	-259.1217
2.5005	-140.99121
2.501	-32.62939
2.5015	54.38232
2.502	106.9519
2.5025	157.10449
2.503	184.49707
2.5035	189.33105
2.504	183.08716
2.5045	163.95264
2.505	161.93848
2.5055	136.56006
2.506	95.37048
2.5065	54.78516
2.507	-16.41541
2.5075	-84.2926
2.508	-149.95422
2.5085	-223.8739
2.509	-294.77234
2.5095	-350.26245
2.51	-395.37964
2.5105	-415.0177
2.511	-417.23328
2.5115	-405.24902
2.512	-365.06653
2.5125	-311.8927
2.513	-243.61267
2.5135	-184.09424
2.514	-118.93616
2.5145	-56.09436
2.515	8.35876
2.5155	58.91418
2.516	103.32642
2.5165	141.99829
2.517	159.82361
2.5175	169.7937
2.518	167.07458
2.5185	137.56714
2.519	100.20447
2.5195	65.46021
2.52	31.01807
2.5205	-2.5177
2.521	-38.26904
2.5215	-74.92676
2.522	-98.39172
2.5225	-103.02429
2.523	-76.03455
2.5235	-47.03064
2.524	-20.74585
2.5245	10.47363
2.525	36.65771
2.5255	55.49011
2.526	88.72375
2.5265	119.33899
2.527	144.91882
2.5275	173.31848
2.528	193.76221
2.5285	203.7323
2.529	204.13513
2.5295	212.99744
2.53	208.96912
2.5305	210.68115
2.531	188.6261
2.5315	169.39087
2.532	141.89758
2.5325	87.81738
2.533	27.79541
2.5335	-38.77258
2.534	-98.39172
2.5345	-164.7583
2.535	-230.72205
2.5355	-274.42932
2.536	-303.23181
2.5365	-312.39624
2.537	-302.92969
2.5375	-283.89587
2.538	-247.94312
2.5385	-195.27283
2.539	-136.56006
2.5395	-75.53101
2.54	-33.13293
2.5405	6.94885
2.541	39.77966
2.5415	59.41772
2.542	61.43188
2.5425	54.98657
2.543	33.23364
2.5435	11.98425
2.544	-9.36584
2.5445	-21.75293
2.545	-28.70178
2.5455	-33.43506
2.546	-34.03931
2.5465	-18.93311
2.547	-12.18567
2.5475	-2.61841
2.548	11.68213
2.5485	15.81116
2.549	32.93152
2.5495	41.79382
2.55	42.59949
2.5505	46.82922
2.551	39.57825
2.5515	36.95984
2.552	24.77417
2.5525	14.50195
2.553	14.90479
2.5535	15.20691
2.554	17.52319
2.5545	21.75293
2.555	31.72302
2.5555	31.01807
2.556	34.14001
2.5565	30.61523
2.557	28.80249
2.5575	32.7301
2.558	36.05347
2.5585	32.62939
2.559	28.80249
2.5595	20.54443
2.56	13.29346
2.5605	9.46655
2.561	3.92761
2.5615	-0.70496
2.562	1.51062
2.5625	1.2085
2.563	9.86938
2.5635	15.71045
2.564	20.24231
2.5645	18.22815
2.565	17.82532
2.5655	17.6239
2.566	24.47205
2.5665	26.08337
2.567	27.19116
2.5675	25.27771
2.568	28.80249
2.5685	32.83081
2.569	36.85913
2.5695	38.974
2.57	42.8009
2.5705	48.84338
2.571	47.93701
2.5715	62.9425
2.572	71.80481
2.5725	68.58215
2.573	72.20764
2.5735	65.56091
2.574	67.67578
2.5745	68.88428
2.575	65.86304
2.5755	53.57666
2.576	29.80957
2.5765	6.2439
2.577	-19.63806
2.5775	-38.87329
2.578	-45.3186
2.5785	-59.71985
2.579	-62.23755
2.5795	-57.40356
2.58	-60.72693
2.5805	-57.9071
2.581	-53.17383
2.5815	-44.31152
2.582	-28.80249
2.5825	-27.89612
2.583	-13.797
2.5835	-12.38708
2.584	-13.99841
2.5845	-16.01257
2.585	-7.85522
2.5855	-4.43115
2.586	-0.70496
2.5865	3.62549
2.587	11.38
2.5875	22.55859
2.588	26.58691
2.5885	32.7301
2.589	29.91028
2.5895	32.52869
2.59	31.92444
2.5905	31.62231
2.591	35.65063
2.5915	36.65771
2.592	34.54285
2.5925	31.32019
2.593	27.09045
2.5935	15.91187
2.594	13.09204
2.5945	12.28638
2.595	6.94885
2.5955	5.23682
2.596	3.52478
2.5965	4.33044
2.597	2.81982
2.5975	3.22266
2.598	-0.90637
2.5985	-0.90637
2.599	-4.73328
2.5995	-4.83398
2.6	-12.38708
2.6005	-18.73169
2.601	-22.86072
2.6015	-20.34302
2.602	-25.37842
2.6025	-13.99841
2.603	-8.8623
2.6035	-8.66089
2.604	-12.78992
2.6045	-16.01257
2.605	-11.58142
2.6055	-15.00549
2.606	-12.08496
2.6065	-12.89062
2.607	-13.59558
2.6075	-13.49487
2.608	-11.98425
2.6085	-10.97717
2.609	-12.48779
2.6095	-12.68921
2.61	-5.53894
2.6105	-2.5177
2.611	-9.36584
2.6115	-5.0354
2.612	-4.12903
2.6125	-3.12195
2.613	3.52478
2.6135	2.81982
2.614	2.81982
2.6145	7.35168
2.615	11.07788
2.6155	11.48071
2.616	12.99133
2.6165	7.5531
2.617	10.27222
2.6175	15.20691
2.618	16.71753
2.6185	13.59558
2.619	13.99841
2.6195	16.3147
2.62	19.73877
2.6205	15.81116
2.621	18.53027
2.6215	17.72461
2.622	23.36426
2.6225	29.10461
2.623	20.44373
2.6235	14.60266
2.624	13.89771
2.6245	9.26514
2.625	9.66797
2.6255	7.25098
2.626	8.66089
2.6265	8.15735
2.627	6.94885
2.6275	10.57434
2.628	7.85522
2.6285	11.58142
2.629	4.43115
2.6295	2.31628
2.63	2.01416
2.6305	1.71204
2.631	1.3092
2.6315	0.50354
2.632	-0.60425
2.6325	6.2439
2.633	-1.10779
2.6335	-1.81274
2.634	-3.8269
2.6345	-5.23682
2.635	-2.5177
2.6355	-0.10071
2.636	1.71204
2.6365	3.92761
2.637	10.17151
2.6375	17.12036
2.638	12.18567
2.6385	9.26514
2.639	14.50195
2.6395	12.89062
2.64	12.68921
2.6405	13.29346
2.641	18.53027
2.6415	15.1062
2.642	9.06372
2.6425	15.00549
2.643	19.73877
2.6435	13.89771
2.644	17.42249
2.6445	20.34302
2.645	12.28638
2.6455	4.43115
2.646	5.53894
2.6465	-1.71204
2.647	-8.7616
2.6475	-15.50903
2.648	-20.1416
2.6485	-20.04089
2.649	-23.36426
2.6495	-22.35718
2.65	-20.94727
2.6505	-17.52319
2.651	-11.48071
2.6515	-3.02124
2.652	0.70496
2.6525	17.22107
2.653	25.78125
2.6535	32.7301
2.654	40.08179
2.6545	43.80798
2.655	48.13843
2.6555	53.37524
2.656	50.55542
2.6565	54.48303
2.657	48.94409
2.6575	49.44763
2.658	44.21082
2.6585	41.99524
2.659	39.88037
2.6595	33.73718
2.66	31.11877
2.6605	14.80408
2.661	4.63257
2.6615	-12.99133
2.662	-23.96851
2.6625	-40.48462
2.663	-65.46021
2.6635	-84.79614
2.664	-100.70801
2.6645	-109.3689
2.665	-108.46252
2.6655	-108.46252
2.666	-89.22729
2.6665	-76.03455
2.667	-58.41064
2.6675	-52.771
2.668	-47.53418
2.6685	-38.974
2.669	-37.06055
2.6695	-29.60815
2.67	-30.51453
2.6705	-23.46497
2.671	-19.53735
2.6715	-21.55151
2.672	-13.99841
2.6725	-24.37134
2.673	-12.18567
2.6735	-12.18567
2.674	-8.96301
2.6745	-8.7616
2.675	-0.40283
2.6755	-6.64673
2.676	-1.00708
2.6765	1.2085
2.677	3.7262
2.6775	-1.91345
2.678	6.2439
2.6785	8.25806
2.679	0.70496
2.6795	4.63257
2.68	-2.92053
2.6805	-1.3092
2.681	-0.50354
2.6815	1.51062
2.682	4.73328
2.6825	6.44531
2.683	5.13611
2.6835	6.2439
2.684	1.51062
2.6845	7.15027
2.685	5.0354
2.6855	5.0354
2.686	8.66089
2.6865	11.98425
2.687	10.87646
2.6875	9.76868
2.688	11.78284
2.6885	2.31628
2.689	8.7616
2.6895	12.08496
2.69	5.53894
2.6905	2.01416
2.691	4.43115
2.6915	4.33044
2.692	3.02124
2.6925	-0.60425
2.693	1.40991
2.6935	-8.96301
2.694	-3.32336
2.6945	-1.3092
2.695	-1.71204
2.6955	0.80566
2.696	3.52478
2.6965	9.76868
2.697	7.45239
2.6975	9.86938
2.698	6.84814
2.6985	8.05664
2.699	1.71204
2.6995	1.91345
2.7	2.92053
2.7005	1.51062
2.701	8.66089
2.7015	4.83398
2.702	8.56018
2.7025	2.01416
2.703	8.96301
2.7035	3.92761
2.704	7.45239
2.7045	12.28638
2.705	9.06372
2.7055	9.86938
2.706	7.65381
2.7065	7.85522
2.707	1.00708
2.7075	0.90637
2.708	0.60425
2.7085	-4.83398
2.709	0.60425
2.7095	-3.02124
2.71	1.71204
2.7105	3.52478
2.711	-1.51062
2.7115	-6.3446
2.712	-4.22974
2.7125	-4.02832
2.713	-2.11487
2.7135	1.81274
2.714	0.40283
2.7145	2.5177
2.715	-2.61841
2.7155	0.20142
2.716	-0.70496
2.7165	-5.13611
2.717	-3.92761
2.7175	-8.05664
2.718	-2.61841
2.7185	-2.41699
2.719	-3.42407
2.7195	-3.12195
2.72	-0.90637
2.7205	-3.52478
2.721	0.50354
2.7215	1.40991
2.722	3.32336
2.7225	-1.71204
2.723	-1.51062
2.7235	-3.52478
2.724	-1.91345
2.7245	-4.93469
2.725	-4.22974
2.7255	-11.17859
2.726	-2.21558
2.7265	-5.43823
2.727	-6.04248
2.7275	-9.46655
2.728	-0.20142
2.7285	-4.33044
2.729	-6.3446
2.7295	-1.2085
2.73	-0.10071
2.7305	-2.01416
2.731	-7.75452
2.7315	-7.45239
2.732	-5.74036
2.7325	-2.61841
2.733	-1.71204
2.7335	4.83398
2.734	4.12903
2.7345	8.8623
2.735	7.45239
2.7355	5.94177
2.736	-2.11487
2.7365	-3.12195
2.737	-2.21558
2.7375	-8.15735
2.738	-8.15735
2.7385	-8.15735
2.739	-8.15735
2.7395	-8.15735
2.74	-8.15735
2.7405	-8.15735
2.741	-8.15735
2.7415	-8.15735
2.742	-8.15735
2.7425	-8.15735
2.743	-8.15735
2.7435	-8.15735
2.744	-8.15735
2.7445	-8.15735
2.745	-8.15735
2.7455	-8.15735
2.746	-8.15735
2.7465	-8.15735
2.747	-8.15735
2.7475	-8.15735
2.748	-6.44531
2.7485	-6.2439
2.749	-14.09912
2.7495	-13.99841
2.75	-10.47363
2.7505	-2.61841
2.751	1.51062
2.7515	-1.51062
2.752	-0.10071
2.7525	-0.50354
2.753	-3.62549
2.7535	-5.0354
2.754	-1.71204
2.7545	-1.00708
2.755	2.01416
2.7555	1.61133
2.756	0.40283
2.7565	3.42407
2.757	10.37292
2.7575	17.6239
2.758	14.09912
2.7585	8.15735
2.759	7.5531
2.7595	6.44531
2.76	5.74036
2.7605	-1.91345
2.761	-2.31628
2.7615	-6.44531
2.762	-7.15027
2.7625	2.21558
2.763	4.02832
2.7635	3.92761
2.764	4.43115
2.7645	8.25806
2.765	11.17859
2.7655	15.81116
2.766	5.43823
2.7665	1.3092
2.767	-7.04956
2.7675	-6.64673
2.768	-16.41541
2.7685	-21.95435
2.769	-21.95435
2.7695	-21.85364
2.77	-19.63806
2.7705	-17.92603
2.771	-11.88354
2.7715	-16.61682
2.772	-14.30054
2.7725	-8.45947
2.773	-4.63257
2.7735	-8.05664
2.774	-8.35876
2.7745	-8.25806
2.775	-2.11487
2.7755	-0.30212
2.776	1.51062
2.7765	1.2085
2.777	0.60425
2.7775	6.84814
2.778	8.96301
2.7785	3.22266
2.779	3.52478
2.7795	2.81982
2.78	1.61133
2.7805	2.92053
2.781	6.84814
2.7815	1.3092
2.782	6.64673
2.7825	6.74744
2.783	1.81274
2.7835	-0.80566
2.784	-3.02124
2.7845	-0.60425
2.785	1.91345
2.7855	2.81982
2.786	8.96301
2.7865	18.8324
2.787	20.64514
2.7875	37.26196
2.788	38.57117
2.7885	40.78674
2.789	26.68762
2.7895	22.96143
2.79	8.66089
2.7905	5.13611
2.791	-3.62549
2.7915	-8.15735
2.792	-12.89062
2.7925	-14.50195
2.793	-12.18567
2.7935	-6.44531
2.794	0.40283
2.7945	2.21558
2.795	4.43115
2.7955	-1.61133
2.796	-8.96301
2.7965	-15.71045
2.797	-23.8678
2.7975	-17.92603
2.798	-23.06213
2.7985	-22.96143
2.799	-21.24939
2.7995	-22.86072
2.8	-16.41541
2.8005	-12.89062
2.801	-6.14319
2.8015	-3.7262
2.802	-0.50354
2.8025	4.43115
2.803	-2.31628
2.8035	-7.15027
2.804	-1.10779
2.8045	-7.5531
2.805	-9.26514
2.8055	-10.67505
2.806	-10.27222
2.8065	-12.38708
2.807	-1.00708
2.8075	-2.71912
2.808	0.40283
2.8085	4.43115
2.809	5.53894
2.8095	11.68213
2.81	15.40833
2.8105	17.01965
2.811	16.41541
2.8115	1.91345
2.812	-2.21558
2.8125	3.62549
2.813	2.81982
2.8135	7.5531
2.814	0
2.8145	-8.05664
2.815	-12.28638
2.8155	-11.48071
2.816	-9.76868
2.8165	-10.97717
2.817	-16.3147
2.8175	-15.71045
2.818	-11.17859
2.8185	-11.2793
2.819	-11.88354
2.8195	-9.97009
2.82	-4.73328
2.8205	-5.23682
2.821	-3.22266
2.8215	-2.41699
2.822	0
2.8225	-1.61133
2.823	0
2.8235	3.02124
2.824	0.30212
2.8245	-0.30212
2.825	1.2085
2.8255	1.51062
2.826	3.22266
2.8265	5.13611
2.827	4.53186
2.8275	3.7262
2.828	2.5177
2.8285	-0.20142
2.829	5.13611
2.8295	-4.63257
2.83	-3.32336
2.8305	-1.61133
2.831	2.31628
2.8315	0.20142
2.832	3.52478
2.8325	7.85522
2.833	6.3446
2.8335	8.05664
2.834	5.63965
2.8345	5.74036
2.835	9.06372
2.8355	3.52478
2.836	8.8623
2.8365	8.35876
2.837	7.35168
2.8375	7.25098
2.838	9.56726
2.8385	13.797
2.839	12.18567
2.8395	11.38
2.84	6.94885
2.8405	8.96301
2.841	6.64673
2.8415	6.44531
2.842	6.74744
2.8425	1.81274
2.843	7.5531
2.8435	4.22974
2.844	6.84814
2.8445	6.04248
2.845	7.75452
2.8455	9.26514
2.846	5.23682
2.8465	4.33044
2.847	5.43823
2.8475	11.2793
2.848	10.0708
2.8485	-0.80566
2.849	2.81982
2.8495	7.04956
2.85	7.15027
2.8505	6.74744
2.851	6.04248
2.8515	9.16443
2.852	7.35168
2.8525	13.49487
2.853	5.84106
2.8535	2.5177
2.854	5.33752
2.8545	10.97717
2.855	10.87646
2.8555	6.64673
2.856	11.07788
2.8565	4.22974
2.857	5.63965
2.8575	12.78992
2.858	5.33752
2.8585	5.33752
2.859	8.25806
2.8595	7.75452
2.86	6.54602
2.8605	2.71912
2.861	2.11487
2.8615	-1.00708
2.862	-0.80566
2.8625	4.93469
2.863	2.71912
2.8635	5.63965
2.864	9.16443
2.8645	1.40991
2.865	7.25098
2.8655	1.51062
2.866	2.31628
2.8665	1.2085
2.867	1.71204
2.8675	3.42407
2.868	4.53186
2.8685	4.33044
2.869	0.70496
2.8695	2.11487
2.87	-0.10071
2.8705	-2.21558
2.871	2.11487
2.8715	-1.3092
2.872	-6.2439
2.8725	0.90637
2.873	-0.50354
2.8735	2.41699
2.874	2.71912
2.8745	4.93469
2.875	5.84106
2.8755	-1.3092
2.876	2.41699
2.8765	2.81982
2.877	-5.63965
2.8775	-0.50354
2.878	2.31628
2.8785	-0.60425
2.879	-2.71912
2.8795	-1.3092
2.88	0.10071
2.8805	2.11487
2.881	-1.81274
2.8815	-0.90637
2.882	-1.61133
2.8825	-3.42407
2.883	2.61841
2.8835	-0.50354
2.884	0
2.8845	-1.40991
2.885	-1.51062
2.8855	-5.63965
2.886	-6.74744
2.8865	-6.74744
2.887	-7.45239
2.8875	-2.31628
2.888	-3.42407
2.8885	0.20142
2.889	2.41699
2.8895	4.22974
2.89	-0.40283
2.8905	4.53186
2.891	4.93469
2.8915	1.3092
2.892	0.20142
2.8925	2.41699
2.893	-0.40283
2.8935	4.63257
2.894	0.50354
2.8945	-2.21558
2.895	-9.97009
2.8955	1.51062
2.896	-5.23682
2.8965	-5.94177
2.897	-10.27222
2.8975	-9.66797
2.898	-5.94177
2.8985	-4.22974
2.899	-2.61841
2.8995	-3.32336
2.9	-6.44531
2.9005	-4.02832
2.901	-3.42407
2.9015	-6.94885
2.902	-9.06372
2.9025	-2.01416
2.903	-8.7616
2.9035	-9.86938
2.904	-9.26514
2.9045	-13.39417
2.905	-9.86938
2.9055	-8.56018
2.906	-8.45947
2.9065	-3.62549
2.907	-3.7262
2.9075	-6.84814
2.908	-3.92761
2.9085	-4.73328
2.909	-5.43823
2.9095	-4.22974
2.91	-8.56018
2.9105	-10.47363
2.911	-9.46655
2.9115	-13.99841
2.912	-13.99841
2.9125	-12.68921
2.913	-7.5531
2.9135	-10.77576
2.914	-11.17859
2.9145	-14.40125
2.915	-13.89771
2.9155	-5.63965
2.916	-7.04956
2.9165	-13.59558
2.917	-7.5531
2.9175	-9.36584
2.918	-13.09204
2.9185	-9.46655
2.919	-14.80408
2.9195	-11.58142
2.92	-13.797
2.9205	-11.07788
2.921	-8.25806
2.9215	-12.38708
2.922	-8.66089
2.9225	-11.2793
2.923	-18.8324
2.9235	-12.5885
2.924	-15.40833
2.9245	-18.32886
2.925	-17.52319
2.9255	-19.83948
2.926	-16.51611
2.9265	-13.797
2.927	-19.53735
2.9275	-13.797
2.928	-5.74036
2.9285	3.02124
2.929	5.84106
2.9295	8.96301
2.93	2.41699
2.9305	0.70496
2.931	0.60425
2.9315	-1.40991
2.932	-0.10071
2.9325	-3.7262
2.933	-1.10779
2.9335	-4.63257
2.934	-7.25098
2.9345	-6.2439
2.935	-4.63257
2.9355	-1.40991
2.936	-3.52478
2.9365	-5.13611
2.937	-1.91345
2.9375	-6.14319
2.938	-11.48071
2.9385	-6.84814
2.939	-5.0354
2.9395	-3.62549
2.94	-3.62549
2.9405	0.80566
2.941	-9.46655
2.9415	-8.15735
2.942	-1.2085
2.9425	-0.90637
2.943	-1.10779
2.9435	-1.61133
2.944	-2.92053
2.9445	-8.7616
2.945	-1.61133
2.9455	-3.92761
2.946	-0.30212
2.9465	2.31628
2.947	2.5177
2.9475	0.10071
2.948	6.14319
2.9485	3.62549
2.949	4.02832
2.9495	6.14319
2.95	8.15735
2.9505	7.75452
2.951	10.57434
2.9515	7.65381
2.952	6.94885
2.9525	4.12903
2.953	11.48071
2.9535	5.63965
2.954	2.21558
2.9545	3.22266
2.955	1.81274
2.9555	3.8269
2.956	5.23682
2.9565	6.84814
2.957	7.75452
2.9575	4.02832
2.958	3.02124
2.9585	6.14319
2.959	3.92761
2.9595	4.53186
2.96	8.66089
2.9605	8.56018
2.961	3.92761
2.9615	6.94885
2.962	5.63965
2.9625	0.40283
2.963	6.94885
2.9635	4.83398
2.964	1.00708
2.9645	6.84814
2.965	13.59558
2.9655	10.77576
2.966	5.43823
2.9665	1.81274
2.967	10.17151
2.9675	14.50195
2.968	6.84814
2.9685	9.46655
2.969	12.08496
2.9695	11.98425
2.97	6.2439
2.9705	10.87646
2.971	8.66089
2.9715	10.0708
2.972	7.5531
2.9725	6.64673
2.973	3.12195
2.9735	7.04956
2.974	3.7262
2.9745	6.3446
2.975	0.90637
2.9755	3.02124
2.976	2.81982
2.9765	2.41699
2.977	2.11487
2.9775	4.93469
2.978	9.16443
2.9785	3.52478
2.979	6.14319
2.9795	3.7262
2.98	4.63257
2.9805	5.53894
2.981	5.74036
2.9815	6.94885
2.982	2.21558
2.9825	5.0354
2.983	5.63965
2.9835	5.33752
2.984	4.53186
2.9845	2.21558
2.985	4.43115
2.9855	5.13611
2.986	6.44531
2.9865	3.12195
2.987	3.7262
2.9875	-1.10779
2.988	-2.61841
2.9885	-1.61133
2.989	2.21558
2.9895	5.53894
2.99	2.31628
2.9905	-0.40283
2.991	1.2085
2.9915	-0.50354
2.992	-7.35168
2.9925	-1.3092
2.993	-4.33044
2.9935	-2.61841
2.994	-0.50354
2.9945	8.45947
2.995	7.25098
2.9955	9.46655
2.996	-0.20142
2.9965	-3.92761
2.997	-6.94885
2.9975	1.3092
2.998	1.91345
2.9985	-1.00708
2.999	2.5177
2.9995	-5.23682
3	1.40991
3.0005	-1.00708
3.001	2.11487
3.0015	-0.30212
3.002	0.50354
3.0025	-0.90637
3.003	-0.60425
3.0035	-6.54602
3.004	-2.41699
3.0045	-2.71912
3.005	-7.45239
3.0055	-6.44531
3.006	-5.23682
3.0065	-5.94177
3.007	-4.22974
3.0075	-6.64673
3.008	-5.13611
3.0085	-7.95593
3.009	-6.64673
3.0095	-8.15735
3.01	-8.8623
3.0105	-6.2439
3.011	-6.04248
3.0115	-12.5885
3.012	-7.35168
3.0125	-7.95593
3.013	-2.11487
3.0135	-6.54602
3.014	-1.81274
3.0145	-5.33752
3.015	-0.40283
3.0155	0.50354
3.016	-3.62549
3.0165	-0.60425
3.017	3.52478
3.0175	-0.20142
3.018	-4.22974
3.0185	-2.31628
3.019	-2.31628
3.0195	-3.92761
3.02	-1.61133
3.0205	-0.50354
3.021	0.50354
3.0215	4.83398
3.022	-3.22266
3.0225	-2.81982
3.023	-3.02124
3.0235	-1.71204
3.024	0.40283
3.0245	2.5177
3.025	0.20142
3.0255	-1.3092
3.026	0.40283
3.0265	2.92053
3.027	3.12195
3.0275	5.33752
3.028	1.00708
3.0285	-5.13611
3.029	-3.22266
3.0295	-5.94177
3.03	-1.10779
3.0305	-0.90637
3.031	-3.22266
3.0315	-3.62549
3.032	-2.31628
3.0325	-0.30212
3.033	1.2085
3.0335	-0.30212
3.034	-0.20142
3.0345	-8.66089
3.035	-7.75452
3.0355	-3.8269
3.036	-5.33752
3.0365	-3.02124
3.037	-2.81982
3.0375	-3.52478
3.038	-4.02832
3.0385	-5.13611
3.039	-4.02832
3.0395	-3.42407
3.04	-3.7262
3.0405	-1.51062
3.041	-3.42407
3.0415	-1.51062
3.042	-6.04248
3.0425	-8.66089
3.043	-3.42407
3.0435	-3.22266
3.044	-3.7262
3.0445	-4.73328
3.045	-4.53186
3.0455	-9.26514
3.046	-10.37292
3.0465	-8.15735
3.047	-5.23682
3.0475	-9.56726
3.048	-3.02124
3.0485	1.51062
3.049	-1.81274
3.0495	3.02124
3.05	-5.63965
3.0505	-0.30212
3.051	-1.71204
3.0515	4.73328
3.052	2.5177
3.0525	-0.80566
3.053	-4.43115
3.0535	1.00708
3.054	-4.43115
3.0545	-0.40283
3.055	-6.04248
3.0555	-5.43823
3.056	-1.81274
3.0565	-1.40991
3.057	-9.16443
3.0575	-3.52478
3.058	-4.73328
3.0585	-4.33044
3.059	-4.63257
3.0595	-4.53186
3.06	-4.53186
3.0605	2.5177
3.061	-2.01416
3.0615	2.81982
3.062	-3.62549
3.0625	2.11487
3.063	-0.80566
3.0635	-0.30212
3.064	1.91345
3.0645	-5.23682
3.065	-3.22266
3.0655	-4.33044
3.066	1.81274
3.0665	-1.10779
3.067	-1.71204
3.0675	-2.71912
3.068	1.00708
3.0685	-1.91345
3.069	-2.21558
3.0695	-5.53894
3.07	3.52478
3.0705	1.91345
3.071	-2.5177
3.0715	1.10779
3.072	-0.50354
3.0725	0.60425
3.073	10.0708
3.0735	10.47363
3.074	10.77576
3.0745	8.7616
3.075	7.35168
3.0755	7.35168
3.076	8.35876
3.0765	6.3446
3.077	2.11487
3.0775	3.62549
3.078	8.35876
3.0785	3.22266
3.079	7.35168
3.0795	3.02124
3.08	6.74744
3.0805	5.63965
3.081	5.43823
3.0815	-0.70496
3.082	5.0354
3.0825	0.10071
3.083	4.83398
3.0835	-1.00708
3.084	3.92761
3.0845	10.27222
3.085	7.85522
3.0855	3.62549
3.086	2.01416
3.0865	1.71204
3.087	3.92761
3.0875	1.71204
3.088	-1.10779
3.0885	1.00708
3.089	0.70496
3.0895	3.62549
3.09	2.01416
3.0905	0.20142
3.091	-0.40283
3.0915	5.94177
3.092	5.13611
3.0925	4.22974
3.093	-0.60425
3.0935	-2.71912
3.094	-0.60425
3.0945	-3.42407
3.095	6.14319
3.0955	4.12903
3.096	2.01416
3.0965	1.51062
3.097	2.5177
3.0975	1.81274
3.098	2.5177
3.0985	0.40283
3.099	4.73328
3.0995	1.61133
3.1	2.21558
3.1005	2.11487
3.101	2.21558
3.1015	3.42407
3.102	1.71204
3.1025	-1.91345
3.103	-1.00708
3.1035	4.22974
3.104	6.74744
3.1045	4.73328
3.105	7.35168
3.1055	7.25098
3.106	2.11487
3.1065	2.5177
3.107	-2.01416
3.1075	-0.30212
3.108	1.40991
3.1085	0
3.109	-1.10779
3.1095	1.81274
3.11	3.12195
3.1105	5.74036
3.111	3.8269
3.1115	1.61133
3.112	-1.00708
3.1125	-4.33044
3.113	-0.60425
3.1135	0
3.114	2.81982
3.1145	5.74036
3.115	2.21558
3.1155	6.54602
3.116	1.51062
3.1165	2.5177
3.117	3.8269
3.1175	1.71204
3.118	-0.70496
3.1185	-2.81982
3.119	-2.01416
3.1195	1.61133
3.12	-0.30212
3.1205	4.02832
3.121	-3.22266
3.1215	-1.71204
3.122	-2.21558
3.1225	2.61841
3.123	2.11487
3.1235	-3.32336
3.124	-0.30212
3.1245	-0.20142
3.125	8.7616
3.1255	4.33044
3.126	3.52478
3.1265	-2.11487
3.127	1.2085
3.1275	0.30212
3.128	1.2085
3.1285	-0.10071
3.129	-0.80566
3.1295	0.60425
3.13	-4.53186
3.1305	-4.93469
3.131	-1.51062
3.1315	1.61133
3.132	-0.80566
3.1325	0.20142
3.133	-3.7262
3.1335	-4.93469
3.134	-8.8623
3.1345	-4.02832
3.135	3.52478
3.1355	-0.10071
3.136	-1.2085
3.1365	1.61133
3.137	3.02124
3.1375	-2.31628
3.138	0.10071
3.1385	-1.91345
3.139	-7.04956
3.1395	-8.8623
3.14	-8.66089
3.1405	-6.54602
3.141	-0.70496
3.1415	-4.83398
3.142	-5.94177
3.1425	-7.75452
3.143	-1.51062
3.1435	-1.61133
3.144	-1.91345
3.1445	-2.01416
3.145	-4.02832
3.1455	-3.62549
3.146	-3.52478
3.1465	-1.3092
3.147	-0.40283
3.1475	-0.90637
3.148	-2.31628
3.1485	0.90637
3.149	-0.20142
3.1495	-0.20142
3.15	-0.50354
3.1505	2.11487
3.151	1.40991
3.1515	0.70496
3.152	-2.61841
3.1525	2.81982
3.153	0.30212
3.1535	-0.30212
3.154	-1.51062
3.1545	1.81274
3.155	5.33752
3.1555	-4.83398
3.156	4.22974
3.1565	-2.01416
3.157	2.61841
3.1575	-1.3092
3.158	7.85522
3.1585	0.80566
3.159	7.75452
3.1595	9.46655
3.16	2.01416
3.1605	3.8269
3.161	0.90637
3.1615	1.40991
3.162	2.71912
3.1625	1.51062
3.163	3.52478
3.1635	2.61841
3.164	-1.3092
3.1645	-1.00708
3.165	2.71912
3.1655	2.21558
3.166	1.51062
3.1665	-3.62549
3.167	-7.95593
3.1675	-1.40991
3.168	-2.41699
3.1685	-1.81274
3.169	1.10779
3.1695	-1.40991
3.17	-1.3092
3.1705	0.90637
3.171	-5.23682
3.1715	-4.12903
3.172	-2.81982
3.1725	-4.93469
3.173	-1.51062
3.1735	-2.81982
3.174	-2.5177
3.1745	-2.5177
3.175	-3.42407
3.1755	1.00708
3.176	-2.71912
3.1765	0.50354
3.177	-2.41699
3.1775	-4.73328
3.178	-2.41699
3.1785	2.5177
3.179	6.54602
3.1795	4.93469
3.18	2.5177
3.1805	-0.10071
3.181	0.60425
3.1815	2.01416
3.182	-4.22974
3.1825	0.50354
3.183	-0.10071
3.1835	1.51062
3.184	-3.02124
3.1845	0.10071
3.185	-3.7262
3.1855	-1.2085
3.186	-3.02124
3.1865	-2.92053
3.187	-2.71912
3.1875	-3.02124
3.188	-11.48071
3.1885	0.90637
3.189	-6.3446
3.1895	-1.00708
3.19	-1.00708
3.1905	-6.94885
3.191	4.02832
3.1915	-1.10779
3.192	-7.25098
3.1925	-3.42407
3.193	-2.41699
3.1935	-5.33752
3.194	-0.10071
3.1945	0.60425
3.195	-4.22974
3.1955	-2.31628
3.196	-2.31628
3.1965	-0.90637
3.197	-1.40991
3.1975	1.2085
3.198	-7.65381
3.1985	-6.2439
3.199	-0.50354
3.1995	-7.04956
3.2	-1.61133
3.2005	2.5177
3.201	-2.41699
3.2015	-2.61841
3.202	-2.92053
3.2025	-2.61841
3.203	1.10779
3.2035	0.10071
3.204	-3.02124
3.2045	3.12195
3.205	1.61133
3.2055	3.32336
3.206	4.63257
3.2065	1.10779
3.207	-7.85522
3.2075	-4.12903
3.208	-4.63257
3.2085	-2.92053
3.209	-0.20142
3.2095	-0.10071
3.21	-2.01416
3.2105	-0.10071
3.211	-5.33752
3.2115	-1.71204
3.212	1.3092
3.2125	5.13611
3.213	1.00708
3.2135	-0.30212
3.214	-4.93469
3.2145	-4.53186
3.215	-2.5177
3.2155	-1.3092
3.216	0.60425
3.2165	-1.3092
3.217	-5.84106
3.2175	-4.53186
3.218	0.80566
3.2185	-0.20142
3.219	-0.80566
3.2195	1.00708
3.22	-4.73328
3.2205	-10.77576
3.221	-4.02832
3.2215	-2.01416
3.222	0.90637
3.2225	-0.90637
3.223	-4.12903
3.2235	-2.92053
3.224	-5.94177
3.2245	-9.06372
3.225	-13.99841
3.2255	-10.0708
3.226	-5.43823
3.2265	-4.02832
3.227	-6.64673
3.2275	-10.0708
3.228	-2.81982
3.2285	-6.84814
3.229	-7.65381
3.2295	-8.96301
3.23	-5.53894
3.2305	-9.66797
3.231	-4.12903
3.2315	-1.91345
3.232	-4.22974
3.2325	-3.22266
3.233	-3.12195
3.2335	-1.40991
3.234	-2.31628
3.2345	-4.02832
3.235	-6.64673
3.2355	-4.83398
3.236	-4.02832
3.2365	-4.63257
3.237	-0.80566
3.2375	0.70496
3.238	-1.61133
3.2385	-0.20142
3.239	-4.33044
3.2395	-2.01416
3.24	-4.02832
3.2405	-8.25806
3.241	0.50354
3.2415	-6.2439
3.242	-1.00708
3.2425	0.80566
3.243	2.41699
3.2435	6.54602
3.244	3.22266
3.2445	4.53186
3.245	5.63965
3.2455	2.11487
3.246	-1.91345
3.2465	1.71204
3.247	-0.50354
3.2475	2.01416
3.248	0.50354
3.2485	-3.42407
3.249	1.3092
3.2495	-2.21558
3.25	3.7262
3.2505	0.90637
3.251	1.2085
3.2515	-0.50354
3.252	3.12195
3.2525	4.12903
3.253	4.63257
3.2535	4.63257
3.254	2.5177
3.2545	-0.60425
3.255	-3.02124
3.2555	-3.22266
3.256	-1.40991
3.2565	1.91345
3.257	3.32336
3.2575	6.54602
3.258	1.71204
3.2585	0.90637
3.259	-0.50354
3.2595	1.40991
3.26	2.61841
3.2605	-5.23682
3.261	-1.91345
3.2615	0
3.262	-1.3092
3.2625	-4.43115
3.263	1.10779
3.2635	-5.84106
3.264	-4.93469
3.2645	-1.10779
3.265	-2.5177
3.2655	-1.51062
3.266	-1.81274
3.2665	-3.52478
3.267	-1.71204
3.2675	-1.91345
3.268	-4.33044
3.2685	-4.33044
3.269	-0.50354
3.2695	3.42407
3.27	-2.31628
3.2705	0.90637
3.271	-2.01416
3.2715	-2.11487
3.272	-5.84106
3.2725	-0.40283
3.273	-2.11487
3.2735	-0.80566
3.274	2.01416
3.2745	-1.81274
3.275	-2.71912
3.2755	-0.60425
3.276	-0.50354
3.2765	2.5177
3.277	2.11487
3.2775	5.53894
3.278	1.40991
3.2785	-0.30212
3.279	1.3092
3.2795	-5.84106
3.28	-3.42407
3.2805	0.70496
3.281	2.41699
3.2815	2.41699
3.282	3.12195
3.2825	3.32336
3.283	0.60425
3.2835	2.01416
3.284	-0.90637
3.2845	-4.73328
3.285	-0.10071
3.2855	0.60425
3.286	2.81982
3.2865	-1.40991
3.287	2.5177
3.2875	1.10779
3.288	5.84106
3.2885	2.21558
3.289	-1.51062
3.2895	0
3.29	6.74744
3.2905	-0.70496
3.291	4.33044
3.2915	3.7262
3.292	0.70496
3.2925	2.71912
3.293	3.02124
3.2935	-1.61133
3.294	-0.80566
3.2945	-1.2085
3.295	3.22266
3.2955	3.12195
3.296	-1.61133
3.2965	-3.12195
3.297	-4.33044
3.2975	-2.31628
3.298	-5.13611
3.2985	2.11487
3.299	6.44531
3.2995	-1.40991
3.3	2.31628
3.3005	1.51062
3.301	2.61841
3.3015	4.93469
3.302	-1.91345
3.3025	0.70496
3.303	1.3092
3.3035	1.3092
3.304	2.92053
3.3045	2.92053
3.305	-1.61133
3.3055	6.74744
3.306	0
3.3065	3.42407
3.307	-0.10071
3.3075	-6.94885
3.308	-2.11487
3.3085	-1.40991
3.309	0.20142
3.3095	-2.11487
3.31	-2.41699
3.3105	1.61133
3.311	-6.64673
3.3115	-4.43115
3.312	-2.21558
3.3125	0.10071
3.313	2.61841
3.3135	1.00708
3.314	4.02832
3.3145	-1.3092
3.315	2.81982
3.3155	4.43115
3.316	1.91345
3.3165	4.02832
3.317	-1.91345
3.3175	1.00708
3.318	-3.02124
3.3185	-2.21558
3.319	-3.22266
3.3195	-3.22266
3.32	-5.13611
3.3205	-5.33752
3.321	-3.02124
3.3215	-4.22974
3.322	-0.70496
3.3225	-1.51062
3.323	1.61133
3.3235	-5.23682
3.324	-3.22266
3.3245	-2.21558
3.325	-0.60425
3.3255	2.41699
3.326	3.22266
3.3265	-0.90637
3.327	-3.02124
3.3275	-0.20142
3.328	-0.60425
3.3285	2.01416
3.329	-3.8269
3.3295	1.61133
3.33	-5.23682
3.3305	-4.22974
3.331	-1.71204
3.3315	-2.81982
3.332	-5.33752
3.3325	-2.41699
3.333	0
3.3335	-1.91345
3.334	-0.40283
3.3345	-1.61133
3.335	-2.5177
3.3355	0
3.336	0.10071
3.3365	0.20142
3.337	-3.8269
3.3375	1.61133
3.338	-2.31628
3.3385	-0.50354
3.339	-1.40991
3.3395	-4.33044
3.34	5.74036
3.3405	1.91345
3.341	-3.8269
3.3415	-1.71204
3.342	2.81982
3.3425	2.92053
3.343	0.10071
3.3435	1.91345
3.344	2.31628
3.3445	2.31628
3.345	2.5177
3.3455	1.71204
3.346	3.22266
3.3465	-0.60425
3.347	5.53894
3.3475	1.91345
3.348	-3.7262
3.3485	-4.63257
3.349	-3.22266
3.3495	1.00708
3.35	-1.61133
3.3505	-6.84814
3.351	-4.53186
3.3515	-4.33044
3.352	-6.54602
3.3525	-1.3092
3.353	-3.02124
3.3535	-4.53186
3.354	-6.04248
3.3545	-5.94177
3.355	-4.43115
3.3555	-1.00708
3.356	-1.51062
3.3565	0.60425
3.357	-5.33752
3.3575	0
3.358	-0.30212
3.3585	1.2085
3.359	0.50354
3.3595	1.61133
3.36	0.20142
3.3605	3.42407
3.361	-2.21558
3.3615	1.51062
3.362	-4.93469
3.3625	-4.83398
3.363	0.80566
3.3635	-7.15027
3.364	-2.21558
3.3645	-3.42407
3.365	-4.43115
3.3655	-6.04248
3.366	-4.53186
3.3665	-4.22974
3.367	0.20142
3.3675	-6.44531
3.368	-3.02124
3.3685	-8.25806
3.369	-4.02832
3.3695	-7.15027
3.37	-2.01416
3.3705	-4.22974
3.371	-4.73328
3.3715	-9.76868
3.372	-1.40991
3.3725	-3.22266
3.373	1.2085
3.3735	1.81274
3.374	-0.10071
3.3745	2.11487
3.375	-2.5177
3.3755	2.11487
3.376	-1.71204
3.3765	-5.53894
3.377	-1.3092
3.3775	-0.30212
3.378	1.71204
3.3785	1.61133
3.379	-4.53186
3.3795	-2.41699
3.38	0.10071
3.3805	5.43823
3.381	2.92053
3.3815	-0.30212
3.382	-2.41699
3.3825	-5.94177
3.383	-5.0354
3.3835	-3.22266
3.384	-9.26514
3.3845	-1.81274
3.385	-0.90637
3.3855	0.40283
3.386	-2.01416
3.3865	-0.80566
3.387	-0.70496
3.3875	-1.51062
3.388	3.12195
3.3885	-2.01416
3.389	-2.5177
3.3895	0
3.39	-4.22974
3.3905	0.30212
3.391	8.7616
3.3915	1.51062
3.392	3.62549
3.3925	2.41699
3.393	-0.10071
3.3935	-0.10071
3.394	-1.00708
3.3945	5.94177
3.395	5.74036
3.3955	-0.50354
3.396	1.10779
3.3965	1.51062
3.397	2.11487
3.3975	-0.40283
3.398	3.92761
3.3985	3.62549
3.399	8.56018
3.3995	0.40283
3.4	9.26514
3.4005	7.04956
3.401	-0.90637
3.4015	0.50354
3.402	6.2439
3.4025	4.33044
3.403	1.51062
3.4035	-1.71204
3.404	4.83398
3.4045	-1.00708
3.405	1.3092
3.4055	1.81274
3.406	-1.91345
3.4065	-1.2085
3.407	3.52478
3.4075	2.31628
3.408	2.21558
3.4085	-1.61133
3.409	-3.52478
3.4095	2.01416
3.41	0.70496
3.4105	2.61841
3.411	4.12903
3.4115	6.14319
3.412	1.10779
3.4125	4.33044
3.413	5.63965
3.4135	6.04248
3.414	0.20142
3.4145	0.70496
3.415	1.3092
3.4155	-0.20142
3.416	10.0708
3.4165	1.61133
3.417	3.92761
3.4175	6.84814
3.418	10.17151
3.4185	6.44531
3.419	3.52478
3.4195	-1.00708
3.42	-3.52478
3.4205	1.81274
3.421	-2.41699
3.4215	-2.61841
3.422	-2.01416
3.4225	-1.51062
3.423	1.2085
3.4235	-0.60425
3.424	0.40283
3.4245	-3.52478
3.425	-3.12195
3.4255	-2.31628
3.426	-2.41699
3.4265	-1.61133
3.427	0.10071
3.4275	5.23682
3.428	1.71204
3.4285	1.51062
3.429	2.21558
3.4295	-1.81274
3.43	2.01416
3.4305	0.10071
3.431	3.02124
3.4315	2.81982
3.432	0.30212
3.4325	-0.20142
3.433	2.81982
3.4335	10.77576
3.434	7.75452
3.4345	6.2439
3.435	-0.60425
3.4355	-3.8269
3.436	1.10779
3.4365	2.5177
3.437	-0.30212
3.4375	-4.22974
3.438	-1.61133
3.4385	-4.33044
3.439	-7.95593
3.4395	0
3.44	2.01416
3.4405	-4.93469
3.441	-1.40991
3.4415	-0.30212
3.442	-6.84814
3.4425	1.81274
3.443	1.91345
3.4435	0.80566
3.444	0.20142
3.4445	0.60425
3.445	4.12903
3.4455	-0.60425
3.446	-0.80566
3.4465	4.53186
3.447	2.5177
3.4475	0.40283
3.448	-1.71204
3.4485	-5.33752
3.449	-3.52478
3.4495	-2.61841
3.45	-3.32336
3.4505	-0.70496
3.451	-1.3092
3.4515	-0.10071
3.452	0.30212
3.4525	4.12903
3.453	5.74036
3.4535	-2.01416
3.454	-5.53894
3.4545	-8.56018
3.455	4.43115
3.4555	-1.10779
3.456	-1.40991
3.4565	-2.21558
3.457	-4.02832
3.4575	-5.33752
3.458	-5.33752
3.4585	0.40283
3.459	-2.41699
3.4595	-0.70496
3.46	-5.53894
3.4605	-1.61133
3.461	-1.81274
3.4615	-2.21558
3.462	2.61841
3.4625	-0.50354
3.463	2.92053
3.4635	3.22266
3.464	1.40991
3.4645	4.63257
3.465	3.42407
3.4655	-2.5177
3.466	0.10071
3.4665	-2.92053
3.467	0.50354
3.4675	-0.50354
3.468	-1.40991
3.4685	2.21558
3.469	1.10779
3.4695	-1.71204
3.47	2.01416
3.4705	1.91345
3.471	0.30212
3.4715	-1.3092
3.472	-1.40991
3.4725	-1.10779
3.473	1.10779
3.4735	-3.32336
3.474	-4.12903
3.4745	1.61133
3.475	-2.71912
3.4755	2.01416
3.476	-5.43823
3.4765	-2.11487
3.477	3.7262
3.4775	-1.61133
3.478	-3.8269
3.4785	1.00708
3.479	-0.40283
3.4795	-0.80566
3.48	0.90637
3.4805	-2.71912
3.481	0.20142
3.4815	1.91345
3.482	0.20142
3.4825	-3.62549
3.483	-0.90637
3.4835	1.61133
3.484	-1.91345
3.4845	-1.61133
3.485	-0.80566
3.4855	-4.63257
3.486	-2.21558
3.4865	2.21558
3.487	-3.02124
3.4875	2.5177
3.488	1.3092
3.4885	-1.81274
3.489	1.61133
3.4895	7.25098
3.49	-2.01416
3.4905	-0.10071
3.491	5.0354
3.4915	3.02124
3.492	2.61841
3.4925	1.71204
3.493	0.90637
3.4935	0.10071
3.494	1.81274
3.4945	-1.10779
3.495	-4.73328
3.4955	2.61841
3.496	3.62549
3.4965	1.2085
3.497	3.62549
3.4975	4.02832
3.498	0.30212
3.4985	-3.12195
3.499	-1.61133
3.4995	0.20142
3.5	4.12903
3.5005	-2.81982
3.501	-3.7262
3.5015	-3.12195
3.502	-3.12195
3.5025	-7.85522
3.503	-3.7262
3.5035	-1.2085
3.504	5.33752
3.5045	1.71204
3.505	-2.11487
3.5055	-1.51062
3.506	-3.32336
3.5065	0.50354
3.507	-4.63257
3.5075	1.51062
3.508	-2.5177
3.5085	-0.20142
3.509	1.40991
3.5095	0.30212
3.51	-2.71912
3.5105	1.91345
3.511	1.00708
3.5115	-1.00708
3.512	-5.33752
3.5125	-3.32336
3.513	-0.70496
3.5135	-6.94885
3.514	2.31628
3.5145	6.04248
3.515	-1.81274
3.5155	-7.15027
3.516	-3.62549
3.5165	-0.40283
3.517	0.80566
3.5175	4.83398
3.518	2.71912
3.5185	5.0354
3.519	3.62549
3.5195	1.3092
3.52	-0.20142
3.5205	4.02832
3.521	4.12903
3.5215	3.7262
3.522	-2.41699
3.5225	0.60425
3.523	1.10779
3.5235	-1.3092
3.524	-5.74036
3.5245	4.02832
3.525	4.93469
3.5255	3.8269
3.526	1.51062
3.5265	4.43115
3.527	2.31628
3.5275	3.22266
3.528	10.77576
3.5285	1.40991
3.529	-0.40283
3.5295	-0.10071
3.53	0
3.5305	3.52478
3.531	-3.42407
3.5315	-0.50354
3.532	4.12903
3.5325	5.84106
3.533	-0.90637
3.5335	0.50354
3.534	-0.80566
3.5345	-4.83398
3.535	-1.51062
3.5355	5.43823
3.536	0
3.5365	-5.0354
3.537	-4.02832
3.5375	-2.31628
3.538	-3.42407
3.5385	-3.7262
3.539	-6.3446
3.5395	-4.12903
3.54	-3.02124
3.5405	-1.61133
3.541	-7.04956
3.5415	-3.92761
3.542	-5.23682
3.5425	-11.68213
3.543	-9.26514
3.5435	-11.2793
3.544	-8.66089
3.5445	-11.17859
3.545	-5.84106
3.5455	-0.10071
3.546	-3.02124
3.5465	-7.75452
3.547	-7.45239
3.5475	-4.63257
3.548	-5.0354
3.5485	-8.7616
3.549	-7.95593
3.5495	-2.5177
3.55	-4.63257
3.5505	-4.83398
3.551	1.81274
3.5515	-2.71912
3.552	-6.2439
3.5525	5.43823
3.553	3.22266
3.5535	11.07788
3.554	15.91187
3.5545	15.00549
3.555	17.82532
3.5555	21.85364
3.556	29.91028
3.5565	26.88904
3.557	38.77258
3.5575	35.85205
3.558	35.14709
3.5585	28.19824
3.559	27.19116
3.5595	17.22107
3.56	11.38
3.5605	1.10779
3.561	-5.43823
3.5615	-17.32178
3.562	-17.82532
3.5625	-19.03381
3.563	-30.91736
3.5635	-31.21948
3.564	-30.81665
3.5645	-30.41382
3.565	-34.03931
3.5655	-29.00391
3.566	-31.4209
3.5665	-24.57275
3.567	-23.8678
3.5675	-26.3855
3.568	-17.22107
3.5685	-12.78992
3.569	-2.01416
3.5695	0.60425
3.57	1.3092
3.5705	0.60425
3.571	6.04248
3.5715	3.32336
3.572	3.62549
3.5725	7.25098
3.573	4.12903
3.5735	0.60425
3.574	0.90637
3.5745	6.14319
3.575	4.73328
3.5755	4.22974
3.576	0.40283
3.5765	4.12903
3.577	-1.3092
3.5775	2.01416
3.578	1.00708
3.5785	1.51062
3.579	3.42407
3.5795	3.12195
3.58	5.23682
3.5805	1.81274
3.581	0.20142
3.5815	0.30212
3.582	-2.5177
3.5825	-4.83398
3.583	-0.40283
3.5835	-3.7262
3.584	-7.04956
3.5845	-4.22974
3.585	-3.52478
3.5855	-4.22974
3.586	-2.11487
3.5865	-0.50354
3.587	-6.44531
3.5875	-5.0354
3.588	-4.93469
3.5885	-1.51062
3.589	-0.70496
3.5895	0.10071
3.59	-2.11487
3.5905	2.01416
3.591	1.91345
3.5915	-3.7262
3.592	-1.2085
3.5925	-2.61841
3.593	-1.61133
3.5935	-1.91345
3.594	1.10779
3.5945	4.43115
3.595	0.30212
3.5955	-1.51062
3.596	-8.8623
3.5965	0.20142
3.597	-3.92761
3.5975	-0.70496
3.598	1.3092
3.5985	3.32336
3.599	-3.02124
3.5995	-3.32336
3.6	7.04956
3.6005	2.5177
3.601	0.40283
3.6015	3.32336
3.602	3.22266
3.6025	1.00708
3.603	0.80566
3.6035	2.11487
3.604	-0.80566
3.6045	0.10071
3.605	1.61133
3.6055	2.92053
3.606	-1.3092
3.6065	-0.40283
3.607	1.91345
3.6075	-1.51062
3.608	-1.10779
3.6085	4.43115
3.609	2.5177
3.6095	3.62549
3.61	-4.93469
3.6105	2.71912
3.611	0.40283
3.6115	-0.70496
3.612	-6.54602
3.6125	-9.36584
3.613	-6.64673
3.6135	-5.33752
3.614	-9.56726
3.6145	-8.66089
3.615	-11.17859
3.6155	-1.51062
3.616	0.60425
3.6165	-2.92053
3.617	0.40283
3.6175	3.92761
3.618	-0.70496
3.6185	3.02124
3.619	-1.51062
3.6195	0.70496
3.62	2.61841
3.6205	1.81274
3.621	6.44531
3.6215	6.74744
3.622	5.84106
3.6225	2.71912
3.623	3.12195
3.6235	6.04248
3.624	2.31628
3.6245	1.91345
3.625	2.71912
3.6255	4.02832
3.626	5.53894
3.6265	4.12903
3.627	3.32336
3.6275	0.80566
3.628	6.04248
3.6285	2.81982
3.629	5.33752
3.6295	8.15735
3.63	10.27222
3.6305	6.14319
3.631	5.23682
3.6315	3.02124
3.632	0.90637
3.6325	-2.11487
3.633	-2.11487
3.6335	-4.73328
3.634	1.3092
3.6345	2.5177
3.635	1.10779
3.6355	-3.7262
3.636	-8.25806
3.6365	-13.49487
3.637	-13.49487
3.6375	-11.17859
3.638	-3.92761
3.6385	2.21558
3.639	13.49487
3.6395	25.98267
3.64	40.38391
3.6405	51.5625
3.641	52.26746
3.6415	57.10144
3.642	50.65613
3.6425	49.64905
3.643	43.20374
3.6435	29.70886
3.644	19.33594
3.6445	2.41699
3.645	-7.15027
3.6455	-22.15576
3.646	-38.47046
3.6465	-46.82922
3.647	-54.48303
3.6475	-62.43896
3.648	-57.8064
3.6485	-59.61914
3.649	-52.26746
3.6495	-46.12427
3.65	-44.31152
3.6505	-32.12585
3.651	-31.11877
3.6515	-30.81665
3.652	-22.86072
3.6525	-25.47913
3.653	-19.33594
3.6535	-5.13611
3.654	0.80566
3.6545	0.60425
3.655	-3.22266
3.6555	2.81982
3.656	-2.61841
3.6565	-4.33044
3.657	0.30212
3.6575	1.61133
3.658	0.70496
3.6585	-1.00708
3.659	1.81274
3.6595	4.43115
3.66	3.62549
3.6605	12.89062
3.661	13.19275
3.6615	15.40833
3.662	19.53735
3.6625	18.22815
3.663	17.72461
3.6635	14.09912
3.664	9.97009
3.6645	12.28638
3.665	7.75452
3.6655	7.45239
3.666	-1.81274
3.6665	-10.57434
3.667	-12.5885
3.6675	-17.6239
3.668	-19.13452
3.6685	-23.36426
3.669	-26.18408
3.6695	-25.68054
3.67	-23.06213
3.6705	-19.13452
3.671	-15.71045
3.6715	-10.0708
3.672	-2.81982
3.6725	-3.32336
3.673	-1.91345
3.6735	-4.93469
3.674	-2.81982
3.6745	-0.50354
3.675	1.3092
3.6755	4.53186
3.676	7.15027
3.6765	3.92761
3.677	4.43115
3.6775	4.93469
3.678	9.06372
3.6785	1.51062
3.679	-0.90637
3.6795	-2.61841
3.68	-1.71204
3.6805	-2.92053
3.681	-1.00708
3.6815	-1.40991
3.682	1.51062
3.6825	2.71912
3.683	-3.42407
3.6835	-1.81274
3.684	-7.25098
3.6845	-7.25098
3.685	-3.62549
3.6855	-7.5531
3.686	-2.92053
3.6865	-8.35876
3.687	-4.73328
3.6875	-5.13611
3.688	-7.75452
3.6885	-8.8623
3.689	-10.97717
3.6895	-8.66089
3.69	1.00708
3.6905	-2.11487
3.691	-2.31628
3.6915	-5.63965
3.692	-4.93469
3.6925	-1.40991
3.693	-8.45947
3.6935	-4.83398
3.694	1.71204
3.6945	0.30212
3.695	-0.40283
3.6955	-1.81274
3.696	0.10071
3.6965	-4.73328
3.697	-1.40991
3.6975	-1.40991
3.698	-3.02124
3.6985	4.02832
3.699	-0.10071
3.6995	-2.81982
3.7	0.40283
3.7005	1.71204
3.701	0.50354
3.7015	-2.11487
3.702	2.01416
3.7025	1.2085
3.703	2.81982
3.7035	-0.80566
3.704	2.31628
3.7045	0.50354
3.705	1.00708
3.7055	1.3092
3.706	4.73328
3.7065	8.56018
3.707	4.43115
3.7075	1.51062
3.708	3.02124
3.7085	-5.43823
3.709	1.00708
3.7095	-1.71204
3.71	-1.51062
3.7105	-1.10779
3.711	-1.91345
3.7115	0.40283
3.712	1.71204
3.7125	-1.10779
3.713	7.85522
3.7135	3.32336
3.714	4.53186
3.7145	0
3.715	2.41699
3.7155	4.73328
3.716	-0.70496
3.7165	-2.31628
3.717	1.61133
3.7175	0.60425
3.718	4.63257
3.7185	2.71912
3.719	3.32336
3.7195	1.2085
3.72	1.81274
3.7205	0
3.721	-7.5531
3.7215	1.51062
3.722	-5.43823
3.7225	-2.21558
3.723	-6.14319
3.7235	-2.41699
3.724	-2.21558
3.7245	-2.31628
3.725	2.92053
3.7255	1.91345
3.726	0.40283
3.7265	-1.00708
3.727	-4.12903
3.7275	-3.32336
3.728	-2.61841
3.7285	-0.40283
3.729	-4.43115
3.7295	-1.2085
3.73	1.71204
3.7305	-0.10071
3.731	-0.90637
3.7315	3.02124
3.732	1.61133
3.7325	2.11487
3.733	-8.05664
3.7335	-1.91345
3.734	-2.31628
3.7345	-3.7262
3.735	-5.23682
3.7355	-8.66089
3.736	-5.0354
3.7365	-2.21558
3.737	-0.80566
3.7375	-0.50354
3.738	2.21558
3.7385	-0.30212
3.739	-0.90637
3.7395	0.40283
3.74	-1.91345
3.7405	-1.10779
3.741	-5.94177
3.7415	-2.5177
3.742	-0.20142
3.7425	-3.8269
3.743	-1.81274
3.7435	4.73328
3.744	7.95593
3.7445	0.90637
3.745	0.50354
3.7455	5.63965
3.746	2.81982
3.7465	5.43823
3.747	1.61133
3.7475	-1.61133
3.748	2.21558
3.7485	-4.43115
3.749	0.80566
3.7495	4.02832
3.75	-4.33044
3.7505	-3.52478
3.751	-3.7262
3.7515	-0.50354
3.752	5.0354
3.7525	-1.40991
3.753	5.84106
3.7535	2.81982
3.754	3.7262
3.7545	-0.30212
3.755	0.70496
3.7555	-1.61133
3.756	-4.02832
3.7565	-3.32336
3.757	-5.53894
3.7575	-7.04956
3.758	-4.22974
3.7585	-2.41699
3.759	-11.07788
3.7595	-2.61841
3.76	-5.13611
3.7605	-8.56018
3.761	-6.44531
3.7615	1.71204
3.762	-2.92053
3.7625	-0.80566
3.763	-1.00708
3.7635	-3.7262
3.764	1.71204
3.7645	0.20142
3.765	-3.8269
3.7655	0.20142
3.766	-0.30212
3.7665	-0.70496
3.767	-4.02832
3.7675	-3.92761
3.768	-1.71204
3.7685	0.60425
3.769	2.61841
3.7695	-2.5177
3.77	-3.32336
3.7705	-3.02124
3.771	-1.61133
3.7715	-1.2085
3.772	-1.51062
3.7725	-8.56018
3.773	-6.14319
3.7735	-3.62549
3.774	-4.02832
3.7745	-7.65381
3.775	-7.85522
3.7755	-0.40283
3.776	-6.64673
3.7765	-8.05664
3.777	-6.74744
3.7775	-6.94885
3.778	-6.3446
3.7785	-6.14319
3.779	-3.8269
3.7795	2.21558
3.78	-5.13611
3.7805	-3.62549
3.781	-2.71912
3.7815	0.30212
3.782	-2.11487
3.7825	0.10071
3.783	-1.10779
3.7835	1.71204
3.784	1.3092
3.7845	-0.10071
3.785	8.25806
3.7855	1.2085
3.786	6.44531
3.7865	2.11487
3.787	7.15027
3.7875	1.10779
3.788	1.81274
3.7885	5.84106
3.789	8.56018
3.7895	3.42407
3.79	-2.21558
3.7905	-0.20142
3.791	3.62549
3.7915	4.12903
3.792	-2.31628
3.7925	-1.71204
3.793	6.84814
3.7935	0.10071
3.794	5.33752
3.7945	5.33752
3.795	8.25806
3.7955	7.25098
3.796	5.0354
3.7965	2.71912
3.797	4.43115
3.7975	9.97009
3.798	6.14319
3.7985	3.92761
3.799	5.94177
3.7995	3.92761
3.8	6.04248
3.8005	7.25098
3.801	10.87646
3.8015	7.65381
3.802	10.27222
3.8025	6.14319
3.803	4.93469
3.8035	3.12195
3.804	2.92053
3.8045	3.02124
3.805	1.61133
3.8055	4.43115
3.806	6.44531
3.8065	4.12903
3.807	-2.31628
3.8075	1.3092
3.808	5.43823
3.8085	5.63965
3.809	10.27222
3.8095	4.73328
3.81	6.74744
3.8105	4.12903
3.811	3.92761
3.8115	5.63965
3.812	5.13611
3.8125	7.65381
3.813	2.81982
3.8135	4.12903
3.814	2.31628
3.8145	3.02124
3.815	0.20142
3.8155	3.52478
3.816	0.10071
3.8165	-7.75452
3.817	-2.92053
3.8175	1.10779
3.818	-0.40283
3.8185	-2.31628
3.819	-2.01416
3.8195	4.53186
3.82	2.61841
3.8205	-2.71912
3.821	1.00708
3.8215	-2.11487
3.822	-2.81982
3.8225	-10.47363
3.823	-2.01416
3.8235	-0.70496
3.824	-0.30212
3.8245	-2.31628
3.825	0.20142
3.8255	4.02832
3.826	1.81274
3.8265	-4.43115
3.827	-5.74036
3.8275	-3.7262
3.828	-4.33044
3.8285	-6.74744
3.829	-6.14319
3.8295	0.40283
3.83	-1.81274
3.8305	-0.10071
3.831	2.41699
3.8315	-0.70496
3.832	-3.32336
3.8325	-5.13611
3.833	-3.52478
3.8335	-2.92053
3.834	-0.70496
3.8345	0.40283
3.835	0.60425
3.8355	2.21558
3.836	0.70496
3.8365	-0.50354
3.837	0.30212
3.8375	4.73328
3.838	-3.52478
3.8385	-4.22974
3.839	1.2085
3.8395	1.00708
3.84	6.04248
3.8405	1.00708
3.841	-2.11487
3.8415	1.40991
3.842	5.23682
3.8425	1.81274
3.843	4.53186
3.8435	1.81274
3.844	0
3.8445	3.8269
3.845	-1.91345
3.8455	2.01416
3.846	-2.21558
3.8465	-3.92761
3.847	2.61841
3.8475	0.10071
3.848	-0.80566
3.8485	-6.44531
3.849	-1.51062
3.8495	0.90637
3.85	-0.80566
3.8505	1.10779
3.851	3.22266
3.8515	-2.01416
3.852	-1.91345
3.8525	1.51062
3.853	0
3.8535	3.02124
3.854	3.52478
3.8545	4.73328
3.855	5.23682
3.8555	5.53894
3.856	6.04248
3.8565	1.61133
3.857	8.96301
3.8575	6.64673
3.858	-1.81274
3.8585	4.83398
3.859	-0.70496
3.8595	-2.41699
3.86	-4.22974
3.8605	-2.01416
3.861	-4.93469
3.8615	-0.70496
3.862	-4.83398
3.8625	-4.43115
3.863	-1.10779
3.8635	-8.56018
3.864	-8.15735
3.8645	-10.17151
3.865	-5.33752
3.8655	-6.04248
3.866	2.41699
3.8665	-6.04248
3.867	-4.83398
3.8675	-3.8269
3.868	-7.95593
3.8685	-2.5177
3.869	-8.56018
3.8695	-8.56018
3.87	1.3092
3.8705	-5.13611
3.871	-7.04956
3.8715	-2.81982
3.872	-3.12195
3.8725	-3.7262
3.873	2.01416
3.8735	-0.90637
3.874	0.90637
3.8745	-2.01416
3.875	1.2085
3.8755	4.22974
3.876	-0.50354
3.8765	4.43115
3.877	-0.50354
3.8775	-3.52478
3.878	1.71204
3.8785	1.10779
3.879	-4.02832
3.8795	-1.81274
3.88	5.63965
3.8805	3.02124
3.881	6.74744
3.8815	5.53894
3.882	3.8269
3.8825	0.70496
3.883	1.3092
3.8835	6.94885
3.884	5.63965
3.8845	-1.10779
3.885	4.12903
3.8855	6.54602
3.886	1.51062
3.8865	4.22974
3.887	4.33044
3.8875	1.81274
3.888	-5.43823
3.8885	-3.42407
3.889	-1.81274
3.8895	-4.93469
3.89	-7.15027
3.8905	-0.50354
3.891	0.80566
3.8915	1.2085
3.892	0.90637
3.8925	0.40283
3.893	1.00708
3.8935	1.51062
3.894	-4.43115
3.8945	1.00708
3.895	1.00708
3.8955	0.30212
3.896	0.90637
3.8965	2.5177
3.897	-0.80566
3.8975	-2.31628
3.898	-4.73328
3.8985	1.10779
3.899	5.94177
3.8995	3.42407
3.9	9.06372
3.9005	1.81274
3.901	9.16443
3.9015	6.3446
3.902	2.01416
3.9025	7.65381
3.903	3.92761
3.9035	2.01416
3.904	0.10071
3.9045	0.70496
3.905	2.81982
3.9055	4.53186
3.906	0.50354
3.9065	-3.22266
3.907	-1.10779
3.9075	-2.81982
3.908	2.41699
3.9085	6.54602
3.909	6.2439
3.9095	-0.60425
3.91	-0.40283
3.9105	0.30212
3.911	2.11487
3.9115	2.21558
3.912	1.61133
3.9125	-1.3092
3.913	-0.30212
3.9135	-2.21558
3.914	-6.94885
3.9145	-1.10779
3.915	2.31628
3.9155	-1.00708
3.916	-3.52478
3.9165	-1.81274
3.917	-5.53894
3.9175	-1.71204
3.918	-3.52478
3.9185	1.00708
3.919	-2.71912
3.9195	3.12195
3.92	4.73328
3.9205	5.84106
3.921	3.32336
3.9215	1.71204
3.922	-0.30212
3.9225	-1.10779
3.923	3.12195
3.9235	-1.51062
3.924	1.91345
3.9245	-0.50354
3.925	4.63257
3.9255	-0.60425
3.926	-1.3092
3.9265	4.63257
3.927	1.71204
3.9275	-1.10779
3.928	0
3.9285	3.8269
3.929	3.62549
3.9295	-5.0354
3.93	-5.94177
3.9305	-5.84106
3.931	-3.62549
3.9315	1.3092
3.932	0.30212
3.9325	-4.53186
3.933	-5.13611
3.9335	-1.2085
3.934	-0.80566
3.9345	2.5177
3.935	-1.91345
3.9355	-3.8269
3.936	1.81274
3.9365	-1.40991
3.937	1.00708
3.9375	-1.71204
3.938	2.81982
3.9385	-2.41699
3.939	-1.3092
3.9395	-1.00708
3.94	2.71912
3.9405	-0.20142
3.941	-2.01416
3.9415	0
3.942	-2.81982
3.9425	-0.60425
3.943	-1.40991
3.9435	-4.43115
3.944	0.40283
3.9445	-5.63965
3.945	-1.00708
3.9455	-1.71204
3.946	-6.04248
3.9465	-5.53894
3.947	-0.80566
3.9475	-2.81982
3.948	-5.63965
3.9485	-4.63257
3.949	1.3092
3.9495	3.52478
3.95	-0.40283
3.9505	-6.64673
3.951	-1.51062
3.9515	-4.12903
3.952	0.20142
3.9525	5.13611
3.953	3.7262
3.9535	0.70496
3.954	-3.12195
3.9545	0
3.955	-0.10071
3.9555	1.71204
3.956	1.91345
3.9565	4.53186
3.957	-4.12903
3.9575	-2.92053
3.958	1.61133
3.9585	-1.2085
3.959	-8.45947
3.9595	0.20142
3.96	-2.21558
3.9605	0
3.961	0.20142
3.9615	-0.70496
3.962	-0.60425
3.9625	4.63257
3.963	6.74744
3.9635	1.51062
3.964	2.01416
3.9645	-5.43823
3.965	3.32336
3.9655	0.60425
3.966	-2.11487
3.9665	-2.41699
3.967	-1.71204
3.9675	-3.12195
3.968	-4.33044
3.9685	-2.11487
3.969	-5.84106
3.9695	-4.12903
3.97	-2.11487
3.9705	0.50354
3.971	-5.43823
3.9715	-4.12903
3.972	-0.60425
3.9725	-0.60425
3.973	-2.92053
3.9735	-6.44531
3.974	-1.3092
3.9745	-1.2085
3.975	0
3.9755	2.71912
3.976	1.40991
3.9765	6.74744
3.977	0.90637
3.9775	-2.21558
3.978	0.60425
3.9785	-3.92761
3.979	-0.30212
3.9795	-5.63965
3.98	-3.42407
3.9805	-5.84106
3.981	0.60425
3.9815	0.90637
3.982	1.71204
3.9825	0.40283
3.983	-7.65381
3.9835	-3.12195
3.984	-1.2085
3.9845	-4.33044
3.985	-4.63257
3.9855	3.42407
3.986	-5.23682
3.9865	-5.33752
3.987	-1.3092
3.9875	-1.00708
3.988	-4.12903
3.9885	-4.83398
3.989	-6.2439
3.9895	-1.51062
3.99	2.81982
3.9905	-2.71912
3.991	-5.43823
3.9915	-2.41699
3.992	-2.92053
3.9925	0.60425
3.993	3.8269
3.9935	4.33044
3.994	4.83398
3.9945	2.71912
3.995	-2.92053
3.9955	0.50354
3.996	-0.30212
3.9965	-2.11487
3.997	0.20142
3.9975	-0.60425
3.998	5.84106
3.9985	0.10071
3.999	0.40283
3.9995	-0.60425
4	-0.90637
4.0005	4.22974
4.001	0.60425
4.0015	3.52478
4.002	2.41699
4.0025	-1.3092
4.003	-0.20142
4.0035	-1.71204
4.004	-4.12903
4.0045	2.71912
4.005	3.32336
4.0055	4.93469
4.006	1.3092
4.0065	0.10071
4.007	1.00708
4.0075	0.60425
4.008	-1.10779
