Gabriele_Carluccio_Right_2.c3d  



Time(s):	C_R_bicipite(μV):
0	-2.61841
0.0005	-6.54602
0.001	-7.75452
0.0015	-1.40991
0.002	-1.91345
0.0025	-2.41699
0.003	0.30212
0.0035	-2.01416
0.004	2.61841
0.0045	8.25806
0.005	5.33752
0.0055	4.63257
0.006	-2.21558
0.0065	-8.66089
0.007	-3.62549
0.0075	-6.3446
0.008	-11.88354
0.0085	-10.37292
0.009	-3.42407
0.0095	-8.8623
0.01	-7.04956
0.0105	-6.04248
0.011	-3.32336
0.0115	-6.74744
0.012	-7.85522
0.0125	-6.64673
0.013	1.61133
0.0135	12.78992
0.014	11.58142
0.0145	10.67505
0.015	9.26514
0.0155	2.31628
0.016	-2.41699
0.0165	3.42407
0.017	6.94885
0.0175	6.54602
0.018	7.25098
0.0185	6.44531
0.019	10.47363
0.0195	3.12195
0.02	3.42407
0.0205	3.8269
0.021	-1.2085
0.0215	0.70496
0.022	-0.50354
0.0225	2.61841
0.023	1.81274
0.0235	-0.10071
0.024	4.63257
0.0245	4.73328
0.025	5.33752
0.0255	0.60425
0.026	6.74744
0.0265	2.71912
0.027	-0.30212
0.0275	2.41699
0.028	6.14319
0.0285	3.42407
0.029	1.40991
0.0295	-2.92053
0.03	-4.63257
0.0305	0.60425
0.031	2.11487
0.0315	0.70496
0.032	-4.12903
0.0325	2.61841
0.033	2.11487
0.0335	3.32336
0.034	-2.5177
0.0345	-4.53186
0.035	-3.02124
0.0355	-3.42407
0.036	1.3092
0.0365	-3.92761
0.037	1.3092
0.0375	-1.51062
0.038	-5.53894
0.0385	-3.02124
0.039	-10.97717
0.0395	-3.02124
0.04	-0.40283
0.0405	-4.12903
0.041	-6.04248
0.0415	-4.22974
0.042	-1.3092
0.0425	0
0.043	-1.61133
0.0435	-4.02832
0.044	-6.3446
0.0445	-2.61841
0.045	2.11487
0.0455	-1.51062
0.046	-7.85522
0.0465	-3.62549
0.047	-9.56726
0.0475	-4.83398
0.048	-9.16443
0.0485	-6.04248
0.049	-9.26514
0.0495	-4.43115
0.05	-5.63965
0.0505	-6.44531
0.051	-1.40991
0.0515	0.20142
0.052	-1.91345
0.0525	1.71204
0.053	0
0.0535	1.71204
0.054	2.61841
0.0545	-0.20142
0.055	1.51062
0.0555	3.12195
0.056	4.12903
0.0565	5.23682
0.057	0.70496
0.0575	-0.60425
0.058	0.20142
0.0585	1.71204
0.059	7.95593
0.0595	3.92761
0.06	4.02832
0.0605	3.22266
0.061	3.32336
0.0615	-1.91345
0.062	-0.20142
0.0625	0.80566
0.063	5.0354
0.0635	5.43823
0.064	5.94177
0.0645	6.44531
0.065	3.62549
0.0655	9.76868
0.066	8.15735
0.0665	5.13611
0.067	5.23682
0.0675	3.8269
0.068	-0.10071
0.0685	-0.80566
0.069	-2.11487
0.0695	4.63257
0.07	2.5177
0.0705	-1.71204
0.071	-1.2085
0.0715	6.2439
0.072	1.40991
0.0725	0.50354
0.073	-2.31628
0.0735	-3.8269
0.074	-1.71204
0.0745	1.91345
0.075	-0.90637
0.0755	1.81274
0.076	6.74744
0.0765	7.85522
0.077	3.22266
0.0775	3.42407
0.078	8.35876
0.0785	4.12903
0.079	11.88354
0.0795	15.1062
0.08	13.59558
0.0805	9.86938
0.081	17.01965
0.0815	19.83948
0.082	20.94727
0.0825	27.09045
0.083	22.25647
0.0835	24.37134
0.084	17.01965
0.0845	12.78992
0.085	6.64673
0.0855	-4.73328
0.086	-14.50195
0.0865	-23.76709
0.087	-20.54443
0.0875	-27.6947
0.088	-36.65771
0.0885	-39.88037
0.089	-36.25488
0.0895	-32.32727
0.09	-21.3501
0.0905	-21.04797
0.091	-16.21399
0.0915	-12.28638
0.092	-5.74036
0.0925	-1.81274
0.093	2.01416
0.0935	-0.50354
0.094	2.01416
0.0945	-1.71204
0.095	-0.90637
0.0955	-3.7262
0.096	-4.93469
0.0965	-2.01416
0.097	2.71912
0.0975	2.11487
0.098	2.31628
0.0985	4.33044
0.099	2.71912
0.0995	2.31628
0.1	6.64673
0.1005	4.73328
0.101	2.61841
0.1015	3.52478
0.102	-0.60425
0.1025	3.12195
0.103	2.31628
0.1035	6.94885
0.104	9.26514
0.1045	7.85522
0.105	13.39417
0.1055	7.35168
0.106	6.2439
0.1065	6.14319
0.107	1.91345
0.1075	3.12195
0.108	7.25098
0.1085	12.5885
0.109	7.35168
0.1095	10.17151
0.11	9.76868
0.1105	8.25806
0.111	11.58142
0.1115	10.67505
0.112	8.15735
0.1125	8.7616
0.113	10.37292
0.1135	6.54602
0.114	7.95593
0.1145	7.85522
0.115	8.56018
0.1155	4.53186
0.116	9.16443
0.1165	8.25806
0.117	6.2439
0.1175	10.87646
0.118	4.83398
0.1185	2.71912
0.119	4.83398
0.1195	0.80566
0.12	-0.80566
0.1205	-1.71204
0.121	3.02124
0.1215	0.40283
0.122	0.40283
0.1225	6.2439
0.123	1.10779
0.1235	5.53894
0.124	-0.90637
0.1245	2.11487
0.125	1.81274
0.1255	4.93469
0.126	-0.30212
0.1265	-0.70496
0.127	-3.22266
0.1275	-3.12195
0.128	-3.62549
0.1285	-4.63257
0.129	-1.81274
0.1295	0.30212
0.13	5.63965
0.1305	2.21558
0.131	-1.61133
0.1315	-3.42407
0.132	1.91345
0.1325	4.02832
0.133	0
0.1335	-0.30212
0.134	-0.60425
0.1345	2.5177
0.135	5.0354
0.1355	4.43115
0.136	1.81274
0.1365	7.15027
0.137	6.14319
0.1375	6.3446
0.138	4.53186
0.1385	2.92053
0.139	7.5531
0.1395	4.73328
0.14	5.13611
0.1405	2.01416
0.141	7.95593
0.1415	12.08496
0.142	8.56018
0.1425	11.88354
0.143	8.56018
0.1435	8.15735
0.144	11.48071
0.1445	7.25098
0.145	11.17859
0.1455	6.64673
0.146	1.3092
0.1465	5.0354
0.147	-1.81274
0.1475	0.40283
0.148	3.42407
0.1485	10.47363
0.149	7.95593
0.1495	8.56018
0.15	5.84106
0.1505	4.43115
0.151	3.22266
0.1515	7.25098
0.152	5.94177
0.1525	6.74744
0.153	4.83398
0.1535	4.22974
0.154	6.54602
0.1545	3.02124
0.155	5.33752
0.1555	11.98425
0.156	9.46655
0.1565	7.15027
0.157	10.67505
0.1575	8.15735
0.158	7.45239
0.1585	4.12903
0.159	0.30212
0.1595	7.95593
0.16	2.11487
0.1605	3.22266
0.161	1.10779
0.1615	4.83398
0.162	-3.22266
0.1625	-3.22266
0.163	-3.62549
0.1635	-4.73328
0.164	9.86938
0.1645	4.73328
0.165	5.84106
0.1655	4.73328
0.166	6.74744
0.1665	4.93469
0.167	12.89062
0.1675	5.94177
0.168	8.25806
0.1685	10.17151
0.169	12.18567
0.1695	16.81824
0.17	13.797
0.1705	12.28638
0.171	11.68213
0.1715	10.47363
0.172	10.27222
0.1725	10.77576
0.173	2.5177
0.1735	12.08496
0.174	13.69629
0.1745	10.97717
0.175	9.46655
0.1755	6.74744
0.176	9.36584
0.1765	-0.70496
0.177	6.54602
0.1775	-1.51062
0.178	-0.60425
0.1785	1.81274
0.179	0.50354
0.1795	-1.00708
0.18	2.11487
0.1805	1.71204
0.181	-3.42407
0.1815	-5.0354
0.182	0.30212
0.1825	3.32336
0.183	0.70496
0.1835	2.71912
0.184	3.32336
0.1845	0.50354
0.185	-6.14319
0.1855	-2.21558
0.186	-7.35168
0.1865	-0.40283
0.187	-2.01416
0.1875	0.90637
0.188	-1.3092
0.1885	-7.45239
0.189	-2.71912
0.1895	-4.02832
0.19	-5.33752
0.1905	1.71204
0.191	2.41699
0.1915	-0.30212
0.192	-1.40991
0.1925	-1.3092
0.193	4.73328
0.1935	10.17151
0.194	4.93469
0.1945	5.84106
0.195	6.74744
0.1955	-1.81274
0.196	-2.5177
0.1965	-3.62549
0.197	-1.91345
0.1975	-6.84814
0.198	-4.83398
0.1985	-2.41699
0.199	-1.61133
0.1995	3.8269
0.2	4.33044
0.2005	2.31628
0.201	9.06372
0.2015	9.97009
0.202	11.07788
0.2025	13.09204
0.203	11.2793
0.2035	12.38708
0.204	17.52319
0.2045	20.94727
0.205	21.55151
0.2055	25.07629
0.206	20.1416
0.2065	27.49329
0.207	35.14709
0.2075	39.07471
0.208	36.55701
0.2085	43.50586
0.209	49.44763
0.2095	55.3894
0.21	55.79224
0.2105	59.31702
0.211	63.24463
0.2115	58.10852
0.212	52.16675
0.2125	37.36267
0.213	29.40674
0.2135	16.21399
0.214	-3.62549
0.2145	-19.83948
0.215	-29.40674
0.2155	-46.5271
0.216	-66.16516
0.2165	-73.81897
0.217	-87.21313
0.2175	-91.14075
0.218	-95.06836
0.2185	-95.67261
0.219	-94.46411
0.2195	-84.69543
0.22	-76.43738
0.2205	-64.151
0.221	-43.10303
0.2215	-35.44922
0.222	-27.79541
0.2225	-23.26355
0.223	-15.91187
0.2235	-13.59558
0.224	-0.80566
0.2245	0.60425
0.225	6.54602
0.2255	6.04248
0.226	8.05664
0.2265	3.02124
0.227	1.3092
0.2275	3.7262
0.228	2.92053
0.2285	7.35168
0.229	10.47363
0.2295	-1.40991
0.23	8.25806
0.2305	11.88354
0.231	6.94885
0.2315	4.43115
0.232	3.7262
0.2325	7.5531
0.233	0.30212
0.2335	3.92761
0.234	-0.80566
0.2345	-1.71204
0.235	0.40283
0.2355	-0.40283
0.236	8.8623
0.2365	2.5177
0.237	1.71204
0.2375	3.52478
0.238	2.11487
0.2385	2.21558
0.239	2.31628
0.2395	5.74036
0.24	1.91345
0.2405	7.04956
0.241	7.75452
0.2415	10.27222
0.242	9.16443
0.2425	6.2439
0.243	10.77576
0.2435	3.42407
0.244	6.84814
0.2445	6.44531
0.245	3.7262
0.2455	5.43823
0.246	2.31628
0.2465	6.94885
0.247	7.25098
0.2475	5.43823
0.248	2.71912
0.2485	2.81982
0.249	-0.50354
0.2495	1.61133
0.25	-0.40283
0.2505	1.51062
0.251	-1.10779
0.2515	-4.73328
0.252	-4.33044
0.2525	3.8269
0.253	3.32336
0.2535	2.61841
0.254	-0.80566
0.2545	0.90637
0.255	6.74744
0.2555	8.56018
0.256	-1.00708
0.2565	2.01416
0.257	4.33044
0.2575	-1.81274
0.258	-2.31628
0.2585	0.80566
0.259	-1.51062
0.2595	3.42407
0.26	6.04248
0.2605	1.51062
0.261	5.23682
0.2615	-0.50354
0.262	-2.41699
0.2625	-0.80566
0.263	1.2085
0.2635	1.10779
0.264	0.30212
0.2645	-1.10779
0.265	-3.62549
0.2655	-1.61133
0.266	-2.5177
0.2665	2.01416
0.267	4.43115
0.2675	2.31628
0.268	3.62549
0.2685	2.61841
0.269	3.02124
0.2695	0.80566
0.27	3.62549
0.2705	-0.20142
0.271	4.53186
0.2715	4.53186
0.272	12.28638
0.2725	7.04956
0.273	2.41699
0.2735	0.20142
0.274	0.40283
0.2745	-1.00708
0.275	-1.91345
0.2755	-1.3092
0.276	-3.32336
0.2765	-0.20142
0.277	1.40991
0.2775	4.43115
0.278	0.20142
0.2785	1.3092
0.279	-4.02832
0.2795	-2.5177
0.28	-7.85522
0.2805	-6.14319
0.281	-5.23682
0.2815	-3.12195
0.282	-4.73328
0.2825	-0.40283
0.283	0.20142
0.2835	0.20142
0.284	2.41699
0.2845	3.32336
0.285	0.50354
0.2855	-5.94177
0.286	-3.22266
0.2865	-2.41699
0.287	-6.74744
0.2875	-7.15027
0.288	-3.62549
0.2885	-0.90637
0.289	0.90637
0.2895	3.52478
0.29	3.22266
0.2905	2.31628
0.291	1.10779
0.2915	-3.52478
0.292	-2.92053
0.2925	-8.15735
0.293	-2.92053
0.2935	-2.81982
0.294	-2.31628
0.2945	-3.92761
0.295	-3.32336
0.2955	-2.92053
0.296	1.10779
0.2965	0.40283
0.297	-3.62549
0.2975	2.01416
0.298	-5.63965
0.2985	-3.42407
0.299	-3.32336
0.2995	-2.11487
0.3	0.80566
0.3005	-0.30212
0.301	-1.40991
0.3015	-1.00708
0.302	-3.42407
0.3025	-6.44531
0.303	-5.33752
0.3035	-11.07788
0.304	-4.73328
0.3045	-5.23682
0.305	-7.5531
0.3055	-4.43115
0.306	-2.5177
0.3065	-3.8269
0.307	-1.61133
0.3075	-7.15027
0.308	2.21558
0.3085	4.43115
0.309	-1.71204
0.3095	1.81274
0.31	-6.84814
0.3105	-3.52478
0.311	-2.92053
0.3115	-5.13611
0.312	-5.23682
0.3125	-7.35168
0.313	-8.7616
0.3135	-11.98425
0.314	-8.35876
0.3145	-6.2439
0.315	-0.10071
0.3155	2.5177
0.316	-5.53894
0.3165	-8.8623
0.317	-4.73328
0.3175	-7.5531
0.318	-6.44531
0.3185	-5.43823
0.319	-7.35168
0.3195	-5.94177
0.32	-9.56726
0.3205	-6.2439
0.321	-11.07788
0.3215	-6.54602
0.322	3.12195
0.3225	0.50354
0.323	-1.00708
0.3235	1.71204
0.324	1.40991
0.3245	-0.70496
0.325	1.91345
0.3255	0.90637
0.326	0.10071
0.3265	-4.93469
0.327	-3.8269
0.3275	-5.43823
0.328	-8.25806
0.3285	-9.46655
0.329	-3.92761
0.3295	-1.3092
0.33	-6.3446
0.3305	-3.12195
0.331	-5.84106
0.3315	0.10071
0.332	2.31628
0.3325	4.63257
0.333	6.14319
0.3335	4.12903
0.334	1.51062
0.3345	3.02124
0.335	-0.20142
0.3355	4.73328
0.336	5.23682
0.3365	1.3092
0.337	2.81982
0.3375	-0.40283
0.338	-3.62549
0.3385	-3.22266
0.339	-1.81274
0.3395	-2.81982
0.34	-4.93469
0.3405	-9.36584
0.341	-1.61133
0.3415	-5.23682
0.342	-3.92761
0.3425	-3.7262
0.343	0.20142
0.3435	-0.90637
0.344	2.71912
0.3445	5.13611
0.345	2.21558
0.3455	6.44531
0.346	10.37292
0.3465	12.5885
0.347	4.43115
0.3475	0.60425
0.348	1.40991
0.3485	8.25806
0.349	4.63257
0.3495	3.8269
0.35	10.77576
0.3505	1.3092
0.351	-2.01416
0.3515	1.51062
0.352	0.80566
0.3525	-0.60425
0.353	-0.30212
0.3535	-4.43115
0.354	-4.53186
0.3545	-7.04956
0.355	-4.93469
0.3555	-9.97009
0.356	-3.7262
0.3565	-4.12903
0.357	-5.53894
0.3575	-1.00708
0.358	-0.50354
0.3585	-2.92053
0.359	0.70496
0.3595	-2.71912
0.36	-0.20142
0.3605	1.3092
0.361	5.13611
0.3615	2.61841
0.362	-1.81274
0.3625	-1.91345
0.363	-5.0354
0.3635	-9.16443
0.364	-7.5531
0.3645	-3.52478
0.365	-3.7262
0.3655	-3.22266
0.366	-2.11487
0.3665	-2.81982
0.367	-1.51062
0.3675	2.92053
0.368	5.23682
0.3685	5.33752
0.369	1.81274
0.3695	-2.31628
0.37	-0.30212
0.3705	2.11487
0.371	2.11487
0.3715	0
0.372	-0.70496
0.3725	-3.62549
0.373	2.5177
0.3735	-0.80566
0.374	-1.3092
0.3745	3.62549
0.375	1.61133
0.3755	1.00708
0.376	0.30212
0.3765	0.50354
0.377	-5.33752
0.3775	-7.95593
0.378	-7.15027
0.3785	-7.25098
0.379	-5.13611
0.3795	-1.3092
0.38	4.02832
0.3805	-3.22266
0.381	-5.53894
0.3815	-2.81982
0.382	0.20142
0.3825	-2.61841
0.383	2.21558
0.3835	-1.61133
0.384	-2.01416
0.3845	0.80566
0.385	3.42407
0.3855	1.00708
0.386	-6.84814
0.3865	-4.33044
0.387	-4.22974
0.3875	-7.15027
0.388	-4.33044
0.3885	-2.61841
0.389	1.71204
0.3895	2.71912
0.39	3.62549
0.3905	-1.00708
0.391	-1.00708
0.3915	6.2439
0.392	4.33044
0.3925	2.31628
0.393	4.53186
0.3935	5.74036
0.394	9.97009
0.3945	6.64673
0.395	1.2085
0.3955	-1.00708
0.396	5.94177
0.3965	4.12903
0.397	-1.40991
0.3975	-7.45239
0.398	-2.31628
0.3985	-5.53894
0.399	-10.87646
0.3995	-5.74036
0.4	-4.12903
0.4005	-1.00708
0.401	-9.36584
0.4015	-3.22266
0.402	-3.32336
0.4025	-5.43823
0.403	-7.45239
0.4035	-5.23682
0.404	-4.73328
0.4045	-4.43115
0.405	1.00708
0.4055	1.3092
0.406	2.21558
0.4065	-7.04956
0.407	5.43823
0.4075	-6.44531
0.408	-2.41699
0.4085	-2.41699
0.409	-2.01416
0.4095	0.10071
0.41	1.91345
0.4105	1.2085
0.411	1.10779
0.4115	-8.7616
0.412	-1.2085
0.4125	1.10779
0.413	6.54602
0.4135	3.42407
0.414	1.91345
0.4145	0.10071
0.415	1.61133
0.4155	-1.51062
0.416	2.71912
0.4165	-0.10071
0.417	-0.60425
0.4175	0.50354
0.418	3.92761
0.4185	1.51062
0.419	4.12903
0.4195	0.90637
0.42	-1.71204
0.4205	6.44531
0.421	0.90637
0.4215	-3.02124
0.422	2.92053
0.4225	-2.21558
0.423	-4.02832
0.4235	0.30212
0.424	3.62549
0.4245	5.53894
0.425	0.60425
0.4255	-6.2439
0.426	-6.54602
0.4265	-7.95593
0.427	-0.60425
0.4275	1.51062
0.428	4.12903
0.4285	5.84106
0.429	8.7616
0.4295	6.54602
0.43	4.12903
0.4305	-0.60425
0.431	-2.5177
0.4315	-5.63965
0.432	0.10071
0.4325	-3.42407
0.433	-6.04248
0.4335	-1.91345
0.434	-6.3446
0.4345	-6.94885
0.435	-8.7616
0.4355	-4.22974
0.436	-3.62549
0.4365	-3.62549
0.437	-0.50354
0.4375	1.51062
0.438	-0.60425
0.4385	5.63965
0.439	7.35168
0.4395	6.14319
0.44	6.3446
0.4405	13.99841
0.441	8.66089
0.4415	4.63257
0.442	7.04956
0.4425	2.5177
0.443	1.51062
0.4435	1.2085
0.444	1.91345
0.4445	-1.71204
0.445	4.73328
0.4455	2.81982
0.446	4.12903
0.4465	10.17151
0.447	8.05664
0.4475	3.32336
0.448	0
0.4485	6.64673
0.449	2.92053
0.4495	4.33044
0.45	4.83398
0.4505	7.45239
0.451	1.51062
0.4515	0.70496
0.452	1.2085
0.4525	3.92761
0.453	1.51062
0.4535	6.14319
0.454	-0.90637
0.4545	-0.20142
0.455	-0.30212
0.4555	3.12195
0.456	5.13611
0.4565	1.51062
0.457	1.10779
0.4575	1.81274
0.458	0
0.4585	-0.30212
0.459	7.04956
0.4595	1.00708
0.46	5.63965
0.4605	1.00708
0.461	-2.61841
0.4615	-0.70496
0.462	5.53894
0.4625	-1.10779
0.463	-4.73328
0.4635	-3.22266
0.464	0
0.4645	4.73328
0.465	0.20142
0.4655	-0.90637
0.466	-7.45239
0.4665	-4.22974
0.467	2.71912
0.4675	-4.22974
0.468	-0.30212
0.4685	-0.90637
0.469	1.2085
0.4695	3.42407
0.47	3.8269
0.4705	1.91345
0.471	4.63257
0.4715	4.22974
0.472	3.7262
0.4725	-0.80566
0.473	0.30212
0.4735	4.22974
0.474	0.70496
0.4745	3.7262
0.475	-2.01416
0.4755	1.51062
0.476	-4.93469
0.4765	-0.80566
0.477	-0.20142
0.4775	-6.2439
0.478	-6.3446
0.4785	-3.42407
0.479	-2.5177
0.4795	-0.20142
0.48	0.60425
0.4805	-2.61841
0.481	-2.92053
0.4815	-5.63965
0.482	-0.60425
0.4825	1.61133
0.483	1.2085
0.4835	-1.2085
0.484	-1.71204
0.4845	-0.90637
0.485	-0.60425
0.4855	-5.23682
0.486	-1.51062
0.4865	1.91345
0.487	3.12195
0.4875	0.90637
0.488	4.33044
0.4885	-0.50354
0.489	-3.52478
0.4895	-6.04248
0.49	-3.62549
0.4905	2.21558
0.491	-3.02124
0.4915	0.30212
0.492	-6.14319
0.4925	-3.52478
0.493	1.10779
0.4935	5.23682
0.494	-4.83398
0.4945	3.12195
0.495	3.12195
0.4955	0.10071
0.496	-0.60425
0.4965	-4.83398
0.497	-5.94177
0.4975	-5.43823
0.498	-2.92053
0.4985	-1.10779
0.499	-1.81274
0.4995	-4.83398
0.5	-2.31628
0.5005	3.92761
0.501	-2.5177
0.5015	-1.00708
0.502	-3.52478
0.5025	-3.62549
0.503	-8.05664
0.5035	-5.0354
0.504	-3.22266
0.5045	-5.53894
0.505	-1.00708
0.5055	-2.5177
0.506	-4.33044
0.5065	-4.12903
0.507	1.10779
0.5075	-3.42407
0.508	0.50354
0.5085	-2.81982
0.509	-1.71204
0.5095	4.22974
0.51	1.61133
0.5105	-3.52478
0.511	-2.5177
0.5115	-8.96301
0.512	-2.5177
0.5125	-0.30212
0.513	6.04248
0.5135	9.36584
0.514	7.95593
0.5145	6.64673
0.515	3.12195
0.5155	-2.92053
0.516	-1.51062
0.5165	2.61841
0.517	3.02124
0.5175	0.80566
0.518	-0.20142
0.5185	-1.2085
0.519	-4.73328
0.5195	-2.71912
0.52	-2.81982
0.5205	-6.2439
0.521	-10.47363
0.5215	-9.26514
0.522	-12.28638
0.5225	-4.53186
0.523	-11.07788
0.5235	-7.85522
0.524	-3.22266
0.5245	-5.53894
0.525	-4.63257
0.5255	-5.0354
0.526	1.00708
0.5265	9.76868
0.527	8.56018
0.5275	18.8324
0.528	16.41541
0.5285	9.97009
0.529	10.37292
0.5295	5.94177
0.53	4.53186
0.5305	6.74744
0.531	3.42407
0.5315	-0.80566
0.532	-3.02124
0.5325	-0.40283
0.533	-3.52478
0.5335	-3.52478
0.534	-5.13611
0.5345	3.12195
0.535	2.11487
0.5355	1.40991
0.536	6.84814
0.5365	2.31628
0.537	3.02124
0.5375	-0.10071
0.538	-0.60425
0.5385	1.40991
0.539	2.01416
0.5395	-0.90637
0.54	-1.00708
0.5405	0.30212
0.541	4.02832
0.5415	-0.20142
0.542	-2.81982
0.5425	-2.81982
0.543	-1.71204
0.5435	2.5177
0.544	1.10779
0.5445	5.23682
0.545	-0.20142
0.5455	2.81982
0.546	-0.40283
0.5465	-1.61133
0.547	2.11487
0.5475	-1.61133
0.548	1.00708
0.5485	3.22266
0.549	4.73328
0.5495	3.42407
0.55	1.3092
0.5505	2.31628
0.551	-1.40991
0.5515	1.3092
0.552	-4.63257
0.5525	-9.46655
0.553	-5.84106
0.5535	-8.66089
0.554	-7.75452
0.5545	-6.2439
0.555	-3.8269
0.5555	-4.43115
0.556	-6.2439
0.5565	-5.0354
0.557	-0.90637
0.5575	-4.73328
0.558	-7.75452
0.5585	-2.21558
0.559	-1.61133
0.5595	-1.40991
0.56	-3.8269
0.5605	-5.53894
0.561	-1.91345
0.5615	-4.33044
0.562	-0.10071
0.5625	-2.31628
0.563	-4.12903
0.5635	1.3092
0.564	-3.12195
0.5645	-6.14319
0.565	-7.25098
0.5655	-7.85522
0.566	-5.53894
0.5665	-11.58142
0.567	-6.44531
0.5675	-8.25806
0.568	-10.17151
0.5685	-8.8623
0.569	-1.51062
0.5695	2.81982
0.57	2.81982
0.5705	3.52478
0.571	6.2439
0.5715	12.38708
0.572	4.22974
0.5725	6.3446
0.573	9.97009
0.5735	4.93469
0.574	3.32336
0.5745	-4.22974
0.575	-2.81982
0.5755	-0.90637
0.576	1.81274
0.5765	7.35168
0.577	4.63257
0.5775	4.53186
0.578	5.94177
0.5785	6.54602
0.579	2.61841
0.5795	0.90637
0.58	0.40283
0.5805	2.61841
0.581	0.20142
0.5815	1.91345
0.582	4.12903
0.5825	-0.70496
0.583	-3.8269
0.5835	-5.63965
0.584	-2.41699
0.5845	-7.45239
0.585	-0.80566
0.5855	-8.25806
0.586	-0.50354
0.5865	-0.50354
0.587	-2.01416
0.5875	-0.50354
0.588	-5.84106
0.5885	-7.15027
0.589	-1.40991
0.5895	-6.64673
0.59	-5.63965
0.5905	-1.51062
0.591	-7.65381
0.5915	-1.40991
0.592	-1.10779
0.5925	-2.31628
0.593	-2.92053
0.5935	-0.60425
0.594	-3.42407
0.5945	-1.40991
0.595	2.31628
0.5955	-0.80566
0.596	-1.2085
0.5965	-8.66089
0.597	-8.25806
0.5975	-3.52478
0.598	-2.71912
0.5985	-1.81274
0.599	-0.40283
0.5995	-2.61841
0.6	0.80566
0.6005	-1.61133
0.601	-5.63965
0.6015	-6.14319
0.602	-0.90637
0.6025	-1.3092
0.603	-0.40283
0.6035	-2.92053
0.604	-0.50354
0.6045	-0.80566
0.605	-4.83398
0.6055	-6.64673
0.606	-3.8269
0.6065	-8.25806
0.607	-3.8269
0.6075	-5.33752
0.608	-10.87646
0.6085	-2.01416
0.609	-2.41699
0.6095	-6.54602
0.61	-2.81982
0.6105	0.20142
0.611	-2.11487
0.6115	-3.62549
0.612	3.62549
0.6125	-1.10779
0.613	-4.12903
0.6135	-3.02124
0.614	1.61133
0.6145	2.01416
0.615	2.5177
0.6155	6.3446
0.616	7.45239
0.6165	3.12195
0.617	6.3446
0.6175	0.60425
0.618	2.81982
0.6185	1.91345
0.619	0.30212
0.6195	3.8269
0.62	3.32336
0.6205	-0.40283
0.621	-1.81274
0.6215	2.11487
0.622	4.63257
0.6225	2.61841
0.623	6.3446
0.6235	-0.20142
0.624	-5.23682
0.6245	-1.61133
0.625	2.5177
0.6255	5.0354
0.626	4.53186
0.6265	2.11487
0.627	5.63965
0.6275	-1.51062
0.628	1.2085
0.6285	2.81982
0.629	2.71912
0.6295	2.5177
0.63	-4.33044
0.6305	0.30212
0.631	-4.33044
0.6315	-4.43115
0.632	-8.66089
0.6325	-1.71204
0.633	-1.71204
0.6335	-1.3092
0.634	-0.20142
0.6345	0.50354
0.635	1.81274
0.6355	0.10071
0.636	-1.71204
0.6365	-3.22266
0.637	-6.2439
0.6375	-2.61841
0.638	-2.41699
0.6385	-5.0354
0.639	-3.32336
0.6395	-0.70496
0.64	-1.71204
0.6405	-2.81982
0.641	-2.01416
0.6415	-6.04248
0.642	-7.35168
0.6425	-4.63257
0.643	-2.11487
0.6435	2.71912
0.644	-3.52478
0.6445	0.30212
0.645	5.23682
0.6455	-0.20142
0.646	1.51062
0.6465	-7.75452
0.647	-3.12195
0.6475	-1.91345
0.648	-4.02832
0.6485	-0.70496
0.649	1.81274
0.6495	7.45239
0.65	8.05664
0.6505	3.92761
0.651	7.95593
0.6515	0.30212
0.652	-0.10071
0.6525	-3.52478
0.653	2.11487
0.6535	2.5177
0.654	2.61841
0.6545	0
0.655	-2.92053
0.6555	-0.80566
0.656	-3.02124
0.6565	-4.93469
0.657	-9.06372
0.6575	-9.26514
0.658	-6.84814
0.6585	-8.8623
0.659	-8.35876
0.6595	-8.56018
0.66	-10.47363
0.6605	-3.52478
0.661	-3.92761
0.6615	-3.32336
0.662	-7.85522
0.6625	1.51062
0.663	5.33752
0.6635	9.66797
0.664	13.797
0.6645	13.49487
0.665	14.80408
0.6655	7.45239
0.666	8.56018
0.6665	3.32336
0.667	0.70496
0.6675	5.13611
0.668	3.22266
0.6685	-1.51062
0.669	0.60425
0.6695	-0.90637
0.67	-1.2085
0.6705	-4.53186
0.671	-2.21558
0.6715	-5.84106
0.672	-2.71912
0.6725	-8.66089
0.673	-3.7262
0.6735	-2.81982
0.674	-2.11487
0.6745	-12.28638
0.675	-2.01416
0.6755	-2.21558
0.676	-3.22266
0.6765	-3.52478
0.677	-7.85522
0.6775	-12.78992
0.678	-6.54602
0.6785	-7.95593
0.679	-6.84814
0.6795	-10.0708
0.68	-11.98425
0.6805	-13.19275
0.681	-2.81982
0.6815	-5.74036
0.682	-1.51062
0.6825	3.62549
0.683	5.43823
0.6835	2.61841
0.684	2.61841
0.6845	2.21558
0.685	-4.33044
0.6855	3.62549
0.686	-0.90637
0.6865	6.2439
0.687	5.0354
0.6875	0.20142
0.688	0.10071
0.6885	-1.91345
0.689	0.40283
0.6895	-2.41699
0.69	0
0.6905	3.42407
0.691	3.52478
0.6915	-1.61133
0.692	-1.71204
0.6925	-2.31628
0.693	-1.81274
0.6935	-3.62549
0.694	-0.70496
0.6945	-0.10071
0.695	-2.31628
0.6955	-6.54602
0.696	-8.8623
0.6965	-2.5177
0.697	-1.40991
0.6975	-1.91345
0.698	-4.02832
0.6985	-5.63965
0.699	-5.0354
0.6995	-4.53186
0.7	-5.13611
0.7005	1.10779
0.701	-3.92761
0.7015	1.10779
0.702	-5.23682
0.7025	-2.11487
0.703	-5.53894
0.7035	3.8269
0.704	1.2085
0.7045	-0.30212
0.705	9.06372
0.7055	2.11487
0.706	4.02832
0.7065	-1.10779
0.707	6.14319
0.7075	3.92761
0.708	1.10779
0.7085	1.10779
0.709	-0.40283
0.7095	7.5531
0.71	7.25098
0.7105	2.61841
0.711	5.13611
0.7115	3.12195
0.712	-0.20142
0.7125	0.10071
0.713	2.5177
0.7135	2.5177
0.714	1.61133
0.7145	1.61133
0.715	-0.60425
0.7155	1.91345
0.716	0
0.7165	-0.10071
0.717	-0.70496
0.7175	-1.00708
0.718	3.92761
0.7185	-2.92053
0.719	-3.02124
0.7195	-0.40283
0.72	2.11487
0.7205	1.00708
0.721	-0.90637
0.7215	-6.84814
0.722	-1.81274
0.7225	-3.12195
0.723	-1.3092
0.7235	-4.73328
0.724	-9.46655
0.7245	-6.14319
0.725	-4.73328
0.7255	2.71912
0.726	-3.52478
0.7265	-3.12195
0.727	-3.22266
0.7275	-5.53894
0.728	-1.91345
0.7285	-5.43823
0.729	-2.11487
0.7295	-1.00708
0.73	-7.04956
0.7305	2.81982
0.731	-4.83398
0.7315	-3.02124
0.732	-3.32336
0.7325	-2.11487
0.733	-1.51062
0.7335	4.02832
0.734	-1.3092
0.7345	-3.12195
0.735	1.51062
0.7355	0.60425
0.736	1.81274
0.7365	-1.81274
0.737	-4.73328
0.7375	-4.93469
0.738	-4.22974
0.7385	-3.12195
0.739	-1.3092
0.7395	-1.2085
0.74	-0.40283
0.7405	1.51062
0.741	1.81274
0.7415	1.71204
0.742	-0.40283
0.7425	1.61133
0.743	-1.00708
0.7435	-2.71912
0.744	-5.63965
0.7445	-3.02124
0.745	-5.43823
0.7455	-2.92053
0.746	-1.91345
0.7465	3.52478
0.747	-0.80566
0.7475	-4.43115
0.748	0.50354
0.7485	-0.80566
0.749	1.61133
0.7495	4.83398
0.75	4.93469
0.7505	1.10779
0.751	0.10071
0.7515	4.02832
0.752	4.73328
0.7525	2.61841
0.753	-0.40283
0.7535	-0.80566
0.754	4.02832
0.7545	5.53894
0.755	6.54602
0.7555	5.74036
0.756	6.2439
0.7565	1.71204
0.757	5.0354
0.7575	2.92053
0.758	1.51062
0.7585	1.40991
0.759	2.01416
0.7595	1.3092
0.76	1.40991
0.7605	0.30212
0.761	-4.53186
0.7615	3.32336
0.762	-1.10779
0.7625	-5.13611
0.763	-5.74036
0.7635	-5.53894
0.764	-3.7262
0.7645	-7.45239
0.765	-9.26514
0.7655	-2.21558
0.766	-7.45239
0.7665	-2.81982
0.767	0.70496
0.7675	3.22266
0.768	5.13611
0.7685	3.52478
0.769	-2.5177
0.7695	2.92053
0.77	5.84106
0.7705	7.04956
0.771	7.15027
0.7715	1.3092
0.772	6.44531
0.7725	0.40283
0.773	-0.70496
0.7735	-3.02124
0.774	-2.81982
0.7745	0.80566
0.775	1.71204
0.7755	4.73328
0.776	4.22974
0.7765	0.10071
0.777	-0.10071
0.7775	-1.40991
0.778	2.01416
0.7785	0.60425
0.779	-7.35168
0.7795	-4.53186
0.78	-6.14319
0.7805	-3.7262
0.781	-5.13611
0.7815	-6.44531
0.782	-0.80566
0.7825	-4.22974
0.783	-5.74036
0.7835	-12.89062
0.784	-9.26514
0.7845	-13.19275
0.785	-11.88354
0.7855	-18.93311
0.786	-13.797
0.7865	-18.53027
0.787	-12.28638
0.7875	-15.00549
0.788	-8.15735
0.7885	-6.44531
0.789	-6.2439
0.7895	-2.31628
0.79	-2.41699
0.7905	1.00708
0.791	1.51062
0.7915	2.31628
0.792	8.35876
0.7925	11.78284
0.793	16.41541
0.7935	18.22815
0.794	19.53735
0.7945	22.05505
0.795	19.13452
0.7955	13.19275
0.796	8.35876
0.7965	7.45239
0.797	11.88354
0.7975	3.22266
0.798	2.5177
0.7985	5.94177
0.799	5.53894
0.7995	3.12195
0.8	6.74744
0.8005	3.02124
0.801	-2.92053
0.8015	-0.70496
0.802	2.5177
0.8025	-3.52478
0.803	2.81982
0.8035	-1.91345
0.804	-1.10779
0.8045	-4.63257
0.805	-7.25098
0.8055	-4.02832
0.806	-3.7262
0.8065	0
0.807	-0.80566
0.8075	0.90637
0.808	-3.22266
0.8085	-2.81982
0.809	7.65381
0.8095	5.74036
0.81	2.5177
0.8105	-2.41699
0.811	-5.23682
0.8115	0.90637
0.812	0.40283
0.8125	-2.21558
0.813	3.8269
0.8135	-0.60425
0.814	-6.84814
0.8145	-3.7262
0.815	-2.11487
0.8155	0.10071
0.816	-1.3092
0.8165	-4.33044
0.817	-3.92761
0.8175	-2.71912
0.818	-10.37292
0.8185	-11.17859
0.819	-7.04956
0.8195	-13.59558
0.82	-18.02673
0.8205	-19.43665
0.821	-12.89062
0.8215	-20.94727
0.822	-7.95593
0.8225	-7.35168
0.823	-2.01416
0.8235	4.53186
0.824	9.86938
0.8245	13.59558
0.825	4.93469
0.8255	6.44531
0.826	-0.70496
0.8265	7.65381
0.827	8.8623
0.8275	7.45239
0.828	7.95593
0.8285	0.90637
0.829	0.60425
0.8295	1.91345
0.83	1.00708
0.8305	-6.94885
0.831	-1.3092
0.8315	-2.41699
0.832	-1.91345
0.8325	-3.8269
0.833	1.71204
0.8335	-0.20142
0.834	4.83398
0.8345	6.94885
0.835	2.11487
0.8355	6.64673
0.836	8.7616
0.8365	9.26514
0.837	5.63965
0.8375	1.00708
0.838	2.81982
0.8385	5.43823
0.839	1.2085
0.8395	1.3092
0.84	4.43115
0.8405	6.74744
0.841	-0.20142
0.8415	-1.00708
0.842	1.10779
0.8425	-2.01416
0.843	-1.2085
0.8435	-2.5177
0.844	3.92761
0.8445	0.10071
0.845	2.01416
0.8455	3.52478
0.846	2.92053
0.8465	-1.91345
0.847	-6.3446
0.8475	1.81274
0.848	-1.91345
0.8485	-3.02124
0.849	-6.54602
0.8495	-5.43823
0.85	-8.96301
0.8505	-8.45947
0.851	-12.28638
0.8515	-10.77576
0.852	-14.40125
0.8525	-13.29346
0.853	-19.53735
0.8535	-14.50195
0.854	-9.66797
0.8545	-3.12195
0.855	1.91345
0.8555	10.0708
0.856	21.95435
0.8565	29.70886
0.857	30.61523
0.8575	24.06921
0.858	24.47205
0.8585	23.56567
0.859	17.6239
0.8595	12.48779
0.86	12.48779
0.8605	2.81982
0.861	6.44531
0.8615	-0.40283
0.862	-4.33044
0.8625	2.11487
0.863	5.43823
0.8635	6.84814
0.864	8.7616
0.8645	6.64673
0.865	2.71912
0.8655	-1.61133
0.866	0.60425
0.8665	-1.2085
0.867	-5.0354
0.8675	0.40283
0.868	-0.20142
0.8685	-0.50354
0.869	-4.63257
0.8695	-7.65381
0.87	-5.23682
0.8705	-5.43823
0.871	-6.64673
0.8715	-6.2439
0.872	-9.36584
0.8725	-1.91345
0.873	-0.70496
0.8735	-3.8269
0.874	-0.20142
0.8745	3.92761
0.875	5.63965
0.8755	10.57434
0.876	11.78284
0.8765	10.17151
0.877	12.08496
0.8775	4.73328
0.878	7.25098
0.8785	-4.43115
0.879	-0.30212
0.8795	-2.92053
0.88	-5.0354
0.8805	-4.12903
0.881	-10.77576
0.8815	-11.48071
0.882	-14.30054
0.8825	-11.78284
0.883	-10.77576
0.8835	-6.3446
0.884	5.23682
0.8845	4.83398
0.885	9.76868
0.8855	10.47363
0.886	9.06372
0.8865	0.80566
0.887	-6.2439
0.8875	-3.22266
0.888	-10.27222
0.8885	-11.07788
0.889	-5.13611
0.8895	-8.56018
0.89	-13.99841
0.8905	-15.1062
0.891	-7.45239
0.8915	-3.52478
0.892	6.84814
0.8925	4.83398
0.893	19.03381
0.8935	20.34302
0.894	19.83948
0.8945	13.89771
0.895	10.87646
0.8955	5.23682
0.896	6.74744
0.8965	2.92053
0.897	-7.04956
0.8975	-3.22266
0.898	-4.83398
0.8985	-2.5177
0.899	5.53894
0.8995	-0.50354
0.9	-0.50354
0.9005	-6.54602
0.901	-4.33044
0.9015	-3.22266
0.902	1.51062
0.9025	4.33044
0.903	13.39417
0.9035	23.06213
0.904	26.18408
0.9045	24.27063
0.905	18.73169
0.9055	17.01965
0.906	20.1416
0.9065	21.55151
0.907	10.17151
0.9075	9.66797
0.908	3.42407
0.9085	0.90637
0.909	2.31628
0.9095	3.52478
0.91	3.22266
0.9105	3.42407
0.911	5.84106
0.9115	-0.30212
0.912	-4.12903
0.9125	-2.92053
0.913	-12.68921
0.9135	-19.73877
0.914	-27.19116
0.9145	-21.65222
0.915	-18.63098
0.9155	-13.39417
0.916	-13.09204
0.9165	-9.86938
0.917	-0.50354
0.9175	13.89771
0.918	17.82532
0.9185	27.29187
0.919	25.37842
0.9195	26.28479
0.92	24.27063
0.9205	21.14868
0.921	27.79541
0.9215	23.8678
0.922	23.16284
0.9225	19.23523
0.923	13.09204
0.9235	7.04956
0.924	6.54602
0.9245	6.84814
0.925	7.15027
0.9255	11.2793
0.926	8.66089
0.9265	4.02832
0.927	1.91345
0.9275	8.15735
0.928	10.97717
0.9285	12.68921
0.929	8.25806
0.9295	10.77576
0.93	9.97009
0.9305	6.14319
0.931	1.3092
0.9315	-3.7262
0.932	-8.15735
0.9325	-4.12903
0.933	-9.46655
0.9335	-15.81116
0.934	-25.98267
0.9345	-29.10461
0.935	-32.83081
0.9355	-28.39966
0.936	-20.94727
0.9365	-13.69629
0.937	3.42407
0.9375	16.51611
0.938	38.67188
0.9385	55.99365
0.939	60.72693
0.9395	58.30994
0.94	53.87878
0.9405	53.17383
0.941	47.53418
0.9415	36.65771
0.942	39.57825
0.9425	29.50745
0.943	15.91187
0.9435	4.83398
0.944	-13.29346
0.9445	-23.76709
0.945	-26.88904
0.9455	-34.03931
0.946	-33.43506
0.9465	-32.62939
0.947	-33.9386
0.9475	-37.66479
0.948	-40.88745
0.9485	-30.71594
0.949	-17.22107
0.9495	-22.6593
0.95	-25.68054
0.9505	-25.27771
0.951	-32.52869
0.9515	-31.11877
0.952	-28.80249
0.9525	-27.29187
0.953	-27.59399
0.9535	-24.47205
0.954	-21.85364
0.9545	-22.15576
0.955	-17.32178
0.9555	-11.07788
0.956	-2.11487
0.9565	7.85522
0.957	19.23523
0.9575	29.80957
0.958	31.92444
0.9585	30.71594
0.959	30.01099
0.9595	22.15576
0.96	23.66638
0.9605	23.06213
0.961	16.11328
0.9615	19.94019
0.962	15.71045
0.9625	15.30762
0.963	12.28638
0.9635	12.28638
0.964	16.51611
0.9645	21.14868
0.965	29.20532
0.9655	27.49329
0.966	15.50903
0.9665	3.7262
0.967	-11.68213
0.9675	-31.32019
0.968	-51.76392
0.9685	-70.49561
0.969	-83.08411
0.9695	-76.23596
0.97	-73.41614
0.9705	-73.81897
0.971	-64.45312
0.9715	-57.60498
0.972	-51.5625
0.9725	-42.59949
0.973	-27.09045
0.9735	-34.34143
0.974	-33.03223
0.9745	-25.98267
0.975	-11.58142
0.9755	-2.11487
0.976	-9.56726
0.9765	-1.3092
0.977	2.31628
0.9775	3.02124
0.978	0.10071
0.9785	0.30212
0.979	0.70496
0.9795	0.40283
0.98	3.32336
0.9805	2.41699
0.981	4.53186
0.9815	6.04248
0.982	2.41699
0.9825	3.62549
0.983	9.36584
0.9835	3.12195
0.984	-7.25098
0.9845	-10.67505
0.985	-16.41541
0.9855	-16.3147
0.986	-20.94727
0.9865	-19.63806
0.987	-26.18408
0.9875	-20.24231
0.988	-19.73877
0.9885	-11.07788
0.989	-2.61841
0.9895	-0.20142
0.99	8.25806
0.9905	5.23682
0.991	12.18567
0.9915	17.52319
0.992	25.27771
0.9925	30.91736
0.993	29.91028
0.9935	26.28479
0.994	27.19116
0.9945	31.62231
0.995	31.62231
0.9955	38.26904
0.996	43.90869
0.9965	49.0448
0.997	59.51843
0.9975	62.64038
0.998	55.08728
0.9985	48.13843
0.999	34.34143
0.9995	24.57275
1	15.20691
1.0005	8.15735
1.001	0.60425
1.0015	-6.64673
1.002	-9.46655
1.0025	-19.03381
1.003	-30.31311
1.0035	-39.07471
1.004	-48.33984
1.0045	-57.8064
1.005	-53.57666
1.0055	-51.26038
1.006	-55.59082
1.0065	-46.12427
1.007	-41.08887
1.0075	-38.26904
1.008	-30.11169
1.0085	-21.3501
1.009	-10.47363
1.0095	-6.2439
1.01	-12.18567
1.0105	-9.56726
1.011	-6.74744
1.0115	-5.33752
1.012	3.02124
1.0125	9.46655
1.013	2.11487
1.0135	-0.70496
1.014	0.20142
1.0145	-2.01416
1.015	0.30212
1.0155	6.44531
1.016	11.48071
1.0165	7.04956
1.017	8.35876
1.0175	9.46655
1.018	10.77576
1.0185	3.8269
1.019	4.53186
1.0195	12.28638
1.02	13.69629
1.0205	13.39417
1.021	10.0708
1.0215	4.83398
1.022	0.20142
1.0225	7.5531
1.023	17.6239
1.0235	16.61682
1.024	31.72302
1.0245	33.13293
1.025	23.66638
1.0255	11.07788
1.026	-5.94177
1.0265	-14.30054
1.027	-12.68921
1.0275	-9.06372
1.028	-6.74744
1.0285	2.61841
1.029	-0.80566
1.0295	-2.71912
1.03	1.61133
1.0305	-6.64673
1.031	4.33044
1.0315	-3.12195
1.032	-0.20142
1.0325	-0.60425
1.033	-3.02124
1.0335	4.02832
1.034	1.91345
1.0345	0.20142
1.035	-3.12195
1.0355	4.53186
1.036	0.50354
1.0365	2.31628
1.037	0.50354
1.0375	3.8269
1.038	6.94885
1.0385	3.92761
1.039	1.00708
1.0395	1.61133
1.04	3.42407
1.0405	0.80566
1.041	0.10071
1.0415	5.84106
1.042	2.81982
1.0425	8.05664
1.043	4.73328
1.0435	2.61841
1.044	9.46655
1.0445	10.27222
1.045	10.17151
1.0455	7.75452
1.046	8.8623
1.0465	3.8269
1.047	8.25806
1.0475	8.56018
1.048	12.18567
1.0485	8.45947
1.049	6.04248
1.0495	5.53894
1.05	0.20142
1.0505	-1.2085
1.051	-4.53186
1.0515	-6.3446
1.052	-15.81116
1.0525	-12.5885
1.053	-9.66797
1.0535	-7.45239
1.054	-8.66089
1.0545	-5.23682
1.055	-7.35168
1.0555	-9.66797
1.056	-11.48071
1.0565	-11.07788
1.057	-8.45947
1.0575	-15.60974
1.058	-23.8678
1.0585	-24.87488
1.059	-29.60815
1.0595	-29.50745
1.06	-32.22656
1.0605	-25.98267
1.061	-23.66638
1.0615	-14.30054
1.062	-0.90637
1.0625	18.63098
1.063	26.78833
1.0635	13.29346
1.064	5.63965
1.0645	8.45947
1.065	0.80566
1.0655	4.93469
1.066	1.81274
1.0665	10.27222
1.067	9.26514
1.0675	2.61841
1.068	5.13611
1.0685	7.35168
1.069	4.02832
1.0695	2.11487
1.07	4.83398
1.0705	5.94177
1.071	1.91345
1.0715	5.13611
1.072	3.7262
1.0725	5.43823
1.073	2.71912
1.0735	9.97009
1.074	5.74036
1.0745	7.35168
1.075	9.97009
1.0755	9.46655
1.076	11.07788
1.0765	15.71045
1.077	16.01257
1.0775	13.29346
1.078	13.69629
1.0785	18.32886
1.079	15.91187
1.0795	16.91895
1.08	17.22107
1.0805	20.04089
1.081	15.91187
1.0815	10.97717
1.082	3.12195
1.0825	6.04248
1.083	1.61133
1.0835	-2.41699
1.084	-4.12903
1.0845	-3.92761
1.085	-0.30212
1.0855	-2.21558
1.086	6.84814
1.0865	6.84814
1.087	19.03381
1.0875	18.53027
1.088	20.04089
1.0885	21.24939
1.089	20.1416
1.0895	23.66638
1.09	24.06921
1.0905	24.87488
1.091	21.45081
1.0915	21.14868
1.092	18.63098
1.0925	20.44373
1.093	18.22815
1.0935	14.30054
1.094	10.47363
1.0945	10.27222
1.095	0.90637
1.0955	-8.7616
1.096	-19.63806
1.0965	-34.54285
1.097	-43.70728
1.0975	-59.92126
1.098	-66.46729
1.0985	-70.29419
1.099	-65.46021
1.0995	-60.12268
1.1	-49.95117
1.1005	-43.70728
1.101	-31.52161
1.1015	-25.78125
1.102	-17.22107
1.1025	-5.43823
1.103	1.61133
1.1035	5.74036
1.104	13.39417
1.1045	17.01965
1.105	22.6593
1.1055	29.20532
1.106	36.15417
1.1065	43.20374
1.107	47.63489
1.1075	50.95825
1.108	49.44763
1.1085	54.0802
1.109	40.88745
1.1095	33.9386
1.11	24.57275
1.1105	14.70337
1.111	7.95593
1.1115	-5.63965
1.112	-16.51611
1.1125	-30.81665
1.113	-36.75842
1.1135	-41.08887
1.114	-49.85046
1.1145	-50.45471
1.115	-52.56958
1.1155	-52.06604
1.116	-59.41772
1.1165	-55.69153
1.117	-48.64197
1.1175	-44.0094
1.118	-35.14709
1.1185	-25.27771
1.119	-20.64514
1.1195	-8.96301
1.12	-10.97717
1.1205	-4.33044
1.121	5.53894
1.1215	9.36584
1.122	5.13611
1.1225	5.33752
1.123	10.37292
1.1235	11.17859
1.124	5.84106
1.1245	6.2439
1.125	8.25806
1.1255	1.00708
1.126	-0.10071
1.1265	8.8623
1.127	5.84106
1.1275	32.93152
1.128	78.25012
1.1285	114.505
1.129	149.6521
1.1295	181.57654
1.13	204.9408
1.1305	217.63
1.131	221.3562
1.1315	225.48523
1.132	233.44116
1.1325	239.58435
1.133	228.10364
1.1335	192.95654
1.134	142.70325
1.1345	79.15649
1.135	17.12036
1.1355	-50.354
1.136	-104.13208
1.1365	-158.4137
1.137	-209.67407
1.1375	-247.7417
1.138	-269.89746
1.1385	-288.42773
1.139	-289.83765
1.1395	-288.72986
1.14	-271.20667
1.1405	-244.72046
1.141	-219.24133
1.1415	-190.53955
1.142	-151.46484
1.1425	-116.41846
1.143	-84.39331
1.1435	-62.03613
1.144	-54.48303
1.1445	-46.92993
1.145	-46.32568
1.1455	-35.95276
1.146	-23.96851
1.1465	-5.0354
1.147	7.75452
1.1475	11.88354
1.148	9.26514
1.1485	13.69629
1.149	15.50903
1.1495	9.86938
1.15	9.46655
1.1505	13.99841
1.151	18.02673
1.1515	15.91187
1.152	10.67505
1.1525	10.57434
1.153	11.48071
1.1535	12.99133
1.154	17.12036
1.1545	13.69629
1.155	14.60266
1.1555	7.35168
1.156	8.66089
1.1565	18.93311
1.157	21.24939
1.1575	24.27063
1.158	21.55151
1.1585	24.87488
1.159	24.47205
1.1595	29.20532
1.16	32.93152
1.1605	35.14709
1.161	27.79541
1.1615	28.50037
1.162	27.09045
1.1625	26.08337
1.163	21.85364
1.1635	17.12036
1.164	19.73877
1.1645	19.73877
1.165	19.43665
1.1655	22.76001
1.166	12.5885
1.1665	8.05664
1.167	7.25098
1.1675	4.43115
1.168	2.41699
1.1685	-8.35876
1.169	-17.92603
1.1695	-16.91895
1.17	-20.44373
1.1705	-16.51611
1.171	-7.15027
1.1715	-4.83398
1.172	4.53186
1.1725	-1.91345
1.173	-4.43115
1.1735	-0.10071
1.174	5.0354
1.1745	-0.90637
1.175	-1.81274
1.1755	-2.41699
1.176	-2.81982
1.1765	-4.12903
1.177	-4.02832
1.1775	-3.92761
1.178	-4.53186
1.1785	-2.01416
1.179	-3.92761
1.1795	-2.92053
1.18	-1.61133
1.1805	4.93469
1.181	2.5177
1.1815	5.63965
1.182	11.88354
1.1825	6.14319
1.183	6.94885
1.1835	9.66797
1.184	9.86938
1.1845	10.47363
1.185	12.38708
1.1855	13.69629
1.186	15.60974
1.1865	14.70337
1.187	11.78284
1.1875	12.68921
1.188	12.68921
1.1885	14.70337
1.189	20.84656
1.1895	17.82532
1.19	21.24939
1.1905	21.04797
1.191	21.65222
1.1915	18.93311
1.192	18.63098
1.1925	15.00549
1.193	6.84814
1.1935	-2.41699
1.194	-2.11487
1.1945	-7.35168
1.195	-9.86938
1.1955	-5.94177
1.196	-10.27222
1.1965	-16.61682
1.197	-21.24939
1.1975	-25.88196
1.198	-29.30603
1.1985	-24.06921
1.199	-22.6593
1.1995	-13.69629
1.2	-12.68921
1.2005	-9.26514
1.201	-2.92053
1.2015	-5.23682
1.202	-3.22266
1.2025	-6.04248
1.203	-5.74036
1.2035	-6.54602
1.204	-14.70337
1.2045	-15.30762
1.205	-13.69629
1.2055	-8.25806
1.206	-13.19275
1.2065	-15.71045
1.207	-18.42957
1.2075	-12.08496
1.208	-17.42249
1.2085	-14.40125
1.209	-10.67505
1.2095	-13.49487
1.21	-11.78284
1.2105	-9.76868
1.211	-5.13611
1.2115	-8.56018
1.212	-5.53894
1.2125	-3.42407
1.213	-0.10071
1.2135	8.05664
1.214	11.48071
1.2145	18.22815
1.215	32.42798
1.2155	41.89453
1.216	53.87878
1.2165	63.14392
1.217	64.25171
1.2175	70.09277
1.218	72.00623
1.2185	63.24463
1.219	52.67029
1.2195	50.75684
1.22	42.29736
1.2205	39.88037
1.221	36.65771
1.2215	25.07629
1.222	21.14868
1.2225	16.71753
1.223	6.54602
1.2235	-5.33752
1.224	-8.96301
1.2245	-29.60815
1.225	-48.03772
1.2255	-60.3241
1.226	-65.3595
1.2265	-64.65454
1.227	-70.3949
1.2275	-66.46729
1.228	-53.47595
1.2285	-41.99524
1.229	-29.10461
1.2295	-20.34302
1.23	-16.71753
1.2305	-8.8623
1.231	-12.99133
1.2315	-12.48779
1.232	-18.42957
1.2325	-13.69629
1.233	-15.20691
1.2335	-8.25806
1.234	-6.94885
1.2345	-12.18567
1.235	-9.06372
1.2355	-10.47363
1.236	-9.66797
1.2365	-9.16443
1.237	-7.15027
1.2375	-6.04248
1.238	0.60425
1.2385	-4.83398
1.239	-2.01416
1.2395	-8.05664
1.24	-7.5531
1.2405	-8.56018
1.241	-7.45239
1.2415	-9.86938
1.242	-6.74744
1.2425	-6.84814
1.243	-0.20142
1.2435	-0.10071
1.244	4.93469
1.2445	8.96301
1.245	10.47363
1.2455	12.38708
1.246	12.08496
1.2465	3.52478
1.247	9.86938
1.2475	12.89062
1.248	18.22815
1.2485	17.32178
1.249	14.70337
1.2495	11.2793
1.25	9.56726
1.2505	8.45947
1.251	4.02832
1.2515	13.59558
1.252	10.87646
1.2525	9.97009
1.253	9.46655
1.2535	14.40125
1.254	15.20691
1.2545	4.02832
1.255	1.61133
1.2555	-0.60425
1.256	0.90637
1.2565	-3.52478
1.257	1.91345
1.2575	1.40991
1.258	-0.50354
1.2585	4.22974
1.259	5.33752
1.2595	4.22974
1.26	2.92053
1.2605	1.10779
1.261	-0.40283
1.2615	1.2085
1.262	0.20142
1.2625	-1.2085
1.263	-1.40991
1.2635	-6.44531
1.264	-9.06372
1.2645	-6.84814
1.265	-4.02832
1.2655	0.30212
1.266	0.60425
1.2665	3.52478
1.267	6.84814
1.2675	7.95593
1.268	8.25806
1.2685	9.97009
1.269	7.95593
1.2695	10.87646
1.27	13.69629
1.2705	10.57434
1.271	15.00549
1.2715	11.78284
1.272	12.5885
1.2725	12.5885
1.273	14.90479
1.2735	10.17151
1.274	2.71912
1.2745	-3.22266
1.275	0.10071
1.2755	-5.53894
1.276	-17.92603
1.2765	-32.12585
1.277	-37.66479
1.2775	-39.57825
1.278	-42.49878
1.2785	-45.3186
1.279	-43.20374
1.2795	-34.84497
1.28	-28.80249
1.2805	-28.70178
1.281	-22.96143
1.2815	-19.03381
1.282	-14.50195
1.2825	-7.15027
1.283	-5.33752
1.2835	-4.22974
1.284	-4.02832
1.2845	4.63257
1.285	8.35876
1.2855	10.37292
1.286	11.17859
1.2865	16.91895
1.287	14.90479
1.2875	11.2793
1.288	10.87646
1.2885	13.29346
1.289	10.67505
1.2895	18.53027
1.29	14.40125
1.2905	14.60266
1.291	16.51611
1.2915	17.42249
1.292	20.1416
1.2925	24.47205
1.293	13.49487
1.2935	16.41541
1.294	13.19275
1.2945	9.97009
1.295	2.01416
1.2955	5.84106
1.296	4.83398
1.2965	4.22974
1.297	9.36584
1.2975	6.74744
1.298	0.40283
1.2985	-5.84106
1.299	-15.71045
1.2995	-20.04089
1.3	-29.70886
1.3005	-37.86621
1.301	-50.05188
1.3015	-50.65613
1.302	-52.771
1.3025	-50.05188
1.303	-49.85046
1.3035	-39.57825
1.304	-35.54993
1.3045	-27.99683
1.305	-19.33594
1.3055	-18.12744
1.306	-14.40125
1.3065	-8.56018
1.307	0.50354
1.3075	1.40991
1.308	5.53894
1.3085	1.2085
1.309	5.33752
1.3095	4.73328
1.31	7.85522
1.3105	14.40125
1.311	15.71045
1.3115	14.40125
1.312	8.96301
1.3125	8.25806
1.313	3.7262
1.3135	0.80566
1.314	3.22266
1.3145	-6.84814
1.315	-10.97717
1.3155	-19.13452
1.316	-16.11328
1.3165	-16.3147
1.317	-6.14319
1.3175	-5.94177
1.318	1.71204
1.3185	1.00708
1.319	7.95593
1.3195	10.57434
1.32	2.11487
1.3205	5.0354
1.321	8.15735
1.3215	8.15735
1.322	14.09912
1.3225	16.11328
1.323	12.99133
1.3235	16.41541
1.324	26.98975
1.3245	37.16125
1.325	42.29736
1.3255	39.07471
1.326	43.70728
1.3265	35.65063
1.327	35.44922
1.3275	31.72302
1.328	26.58691
1.3285	21.95435
1.329	24.77417
1.3295	18.12744
1.33	10.27222
1.3305	3.02124
1.331	-3.22266
1.3315	-18.73169
1.332	-22.86072
1.3325	-22.15576
1.333	-24.97559
1.3335	-38.57117
1.334	-54.48303
1.3345	-62.03613
1.335	-66.36658
1.3355	-68.48145
1.336	-55.08728
1.3365	-43.10303
1.337	-33.83789
1.3375	-27.99683
1.338	-26.68762
1.3385	-21.45081
1.339	-23.46497
1.3395	-12.99133
1.34	-9.06372
1.3405	-9.66797
1.341	-6.04248
1.3415	-5.84106
1.342	-1.40991
1.3425	-3.22266
1.343	1.91345
1.3435	2.61841
1.344	-0.80566
1.3445	2.5177
1.345	0.40283
1.3455	2.61841
1.346	7.25098
1.3465	8.35876
1.347	10.37292
1.3475	12.18567
1.348	16.51611
1.3485	16.61682
1.349	13.19275
1.3495	20.54443
1.35	19.94019
1.3505	21.04797
1.351	20.64514
1.3515	15.60974
1.352	21.24939
1.3525	19.23523
1.353	15.20691
1.3535	22.96143
1.354	15.71045
1.3545	20.24231
1.355	13.99841
1.3555	15.50903
1.356	15.30762
1.3565	10.37292
1.357	6.94885
1.3575	8.15735
1.358	2.11487
1.3585	-3.8269
1.359	-7.25098
1.3595	-13.99841
1.36	-16.3147
1.3605	-10.27222
1.361	-8.25806
1.3615	-10.17151
1.362	-12.18567
1.3625	-18.42957
1.363	-20.74585
1.3635	-16.81824
1.364	-17.01965
1.3645	-12.38708
1.365	-10.77576
1.3655	-13.99841
1.366	-5.53894
1.3665	-12.28638
1.367	-1.61133
1.3675	-1.2085
1.368	4.02832
1.3685	2.31628
1.369	4.73328
1.3695	6.74744
1.37	9.36584
1.3705	12.78992
1.371	12.78992
1.3715	11.48071
1.372	13.89771
1.3725	9.86938
1.373	9.76868
1.3735	8.35876
1.374	6.74744
1.3745	9.16443
1.375	3.12195
1.3755	1.2085
1.376	3.92761
1.3765	5.0354
1.377	3.42407
1.3775	-3.22266
1.378	0.10071
1.3785	6.04248
1.379	-1.3092
1.3795	2.61841
1.38	5.23682
1.3805	2.71912
1.381	1.51062
1.3815	-6.64673
1.382	-7.25098
1.3825	-11.17859
1.383	-9.86938
1.3835	-15.71045
1.384	-10.0708
1.3845	-17.52319
1.385	-18.42957
1.3855	-20.74585
1.386	-20.74585
1.3865	-18.12744
1.387	-14.40125
1.3875	-10.37292
1.388	-11.58142
1.3885	-16.01257
1.389	-15.1062
1.3895	-12.68921
1.39	-12.18567
1.3905	-3.32336
1.391	-4.73328
1.3915	-0.70496
1.392	-0.20142
1.3925	3.12195
1.393	4.43115
1.3935	3.62549
1.394	4.93469
1.3945	4.93469
1.395	4.43115
1.3955	6.54602
1.396	4.33044
1.3965	4.43115
1.397	8.66089
1.3975	10.97717
1.398	11.68213
1.3985	8.96301
1.399	5.53894
1.3995	5.63965
1.4	12.18567
1.4005	8.35876
1.401	12.08496
1.4015	10.87646
1.402	7.5531
1.4025	17.6239
1.403	9.06372
1.4035	5.94177
1.404	5.13611
1.4045	4.93469
1.405	1.71204
1.4055	7.5531
1.406	9.76868
1.4065	7.95593
1.407	5.0354
1.4075	1.3092
1.408	-4.02832
1.4085	-1.51062
1.409	-3.32336
1.4095	-5.23682
1.41	-12.28638
1.4105	-8.35876
1.411	-3.12195
1.4115	-0.10071
1.412	-0.70496
1.4125	3.12195
1.413	-0.70496
1.4135	3.7262
1.414	1.00708
1.4145	-1.3092
1.415	3.02124
1.4155	3.32336
1.416	12.68921
1.4165	15.71045
1.417	18.93311
1.4175	20.24231
1.418	21.14868
1.4185	18.73169
1.419	20.64514
1.4195	22.25647
1.42	28.39966
1.4205	25.68054
1.421	22.35718
1.4215	23.56567
1.422	21.3501
1.4225	21.55151
1.423	23.96851
1.4235	23.56567
1.424	22.15576
1.4245	16.21399
1.425	14.80408
1.4255	5.33752
1.426	-6.64673
1.4265	-7.45239
1.427	-15.1062
1.4275	-26.3855
1.428	-26.58691
1.4285	-27.79541
1.429	-20.54443
1.4295	-15.1062
1.43	-11.2793
1.4305	-17.01965
1.431	-9.46655
1.4315	-10.27222
1.432	-8.45947
1.4325	-19.94019
1.433	-26.88904
1.4335	-31.62231
1.434	-32.62939
1.4345	-40.88745
1.435	-39.88037
1.4355	-52.26746
1.436	-50.354
1.4365	-48.94409
1.437	-41.59241
1.4375	-27.99683
1.438	-22.15576
1.4385	-19.13452
1.439	-20.84656
1.4395	-19.23523
1.44	-13.69629
1.4405	-7.04956
1.441	-8.15735
1.4415	1.00708
1.442	1.00708
1.4425	4.02832
1.443	6.84814
1.4435	2.92053
1.444	7.35168
1.4445	11.78284
1.445	14.70337
1.4455	21.45081
1.446	23.36426
1.4465	28.80249
1.447	32.32727
1.4475	37.36267
1.448	33.9386
1.4485	35.75134
1.449	34.84497
1.4495	34.74426
1.45	21.24939
1.4505	16.51611
1.451	13.19275
1.4515	13.39417
1.452	7.35168
1.4525	4.43115
1.453	0.90637
1.4535	0.40283
1.454	-4.63257
1.4545	-6.3446
1.455	-18.32886
1.4555	-15.60974
1.456	-25.88196
1.4565	-30.11169
1.457	-39.27612
1.4575	-43.60657
1.458	-41.79382
1.4585	-35.75134
1.459	-34.54285
1.4595	-27.6947
1.46	-23.96851
1.4605	-16.61682
1.461	-13.89771
1.4615	-9.16443
1.462	-4.83398
1.4625	-9.66797
1.463	-3.12195
1.4635	0.70496
1.464	-8.8623
1.4645	-8.7616
1.465	-5.13611
1.4655	-13.49487
1.466	-14.80408
1.4665	-11.88354
1.467	-10.57434
1.4675	-9.66797
1.468	-4.33044
1.4685	-5.33752
1.469	1.3092
1.4695	-8.56018
1.47	-5.23682
1.4705	-0.60425
1.471	-1.2085
1.4715	-4.83398
1.472	1.40991
1.4725	-0.30212
1.473	4.43115
1.4735	4.33044
1.474	1.2085
1.4745	3.02124
1.475	2.71912
1.4755	0.60425
1.476	7.15027
1.4765	7.25098
1.477	4.33044
1.4775	-1.00708
1.478	-0.80566
1.4785	5.13611
1.479	9.16443
1.4795	1.40991
1.48	8.15735
1.4805	10.57434
1.481	15.60974
1.4815	12.99133
1.482	13.69629
1.4825	12.99133
1.483	17.01965
1.4835	16.91895
1.484	13.69629
1.4845	13.89771
1.485	24.57275
1.4855	28.60107
1.486	21.65222
1.4865	23.46497
1.487	22.96143
1.4875	22.6593
1.488	19.63806
1.4885	14.90479
1.489	16.3147
1.4895	19.63806
1.49	19.53735
1.4905	15.1062
1.491	17.42249
1.4915	20.74585
1.492	19.33594
1.4925	9.76868
1.493	3.92761
1.4935	-0.90637
1.494	0.70496
1.4945	-7.5531
1.495	-13.09204
1.4955	-23.36426
1.496	-26.48621
1.4965	-34.64355
1.497	-26.48621
1.4975	-25.07629
1.498	-18.12744
1.4985	-13.49487
1.499	-6.04248
1.4995	-0.50354
1.5	-1.51062
1.5005	-9.97009
1.501	-6.44531
1.5015	-5.23682
1.502	-5.33752
1.5025	-2.61841
1.503	-7.5531
1.5035	-5.13611
1.504	-11.38
1.5045	-10.47363
1.505	-15.1062
1.5055	-14.80408
1.506	-27.49329
1.5065	-22.05505
1.507	-21.24939
1.5075	-21.04797
1.508	-14.90479
1.5085	-17.01965
1.509	-18.32886
1.5095	-12.38708
1.51	-10.77576
1.5105	-8.45947
1.511	-6.3446
1.5115	-3.92761
1.512	1.00708
1.5125	2.41699
1.513	4.22974
1.5135	1.61133
1.514	1.81274
1.5145	1.2085
1.515	6.2439
1.5155	11.78284
1.516	11.58142
1.5165	18.02673
1.517	21.75293
1.5175	20.44373
1.518	22.86072
1.5185	21.14868
1.519	31.32019
1.5195	31.72302
1.52	22.05505
1.5205	25.78125
1.521	17.32178
1.5215	19.94019
1.522	17.92603
1.5225	18.63098
1.523	9.97009
1.5235	8.66089
1.524	-4.83398
1.5245	-15.30762
1.525	-22.15576
1.5255	-21.85364
1.526	-22.45789
1.5265	-19.23523
1.527	-21.14868
1.5275	-23.06213
1.528	-17.52319
1.5285	-13.19275
1.529	-13.49487
1.5295	-3.12195
1.53	-0.10071
1.5305	-5.84106
1.531	-3.7262
1.5315	3.92761
1.532	2.5177
1.5325	2.61841
1.533	3.8269
1.5335	4.12903
1.534	2.21558
1.5345	2.41699
1.535	1.91345
1.5355	-2.81982
1.536	-4.83398
1.5365	-6.84814
1.537	-9.56726
1.5375	-12.08496
1.538	-5.13611
1.5385	-6.74744
1.539	-5.0354
1.5395	-11.78284
1.54	-7.75452
1.5405	-9.06372
1.541	-10.0708
1.5415	-2.11487
1.542	-5.94177
1.5425	-0.50354
1.543	-1.2085
1.5435	0.80566
1.544	-2.31628
1.5445	-7.15027
1.545	-6.74744
1.5455	-6.54602
1.546	-5.53894
1.5465	-4.22974
1.547	-0.70496
1.5475	-0.30212
1.548	1.00708
1.5485	2.5177
1.549	3.52478
1.5495	3.62549
1.55	2.5177
1.5505	1.51062
1.551	6.74744
1.5515	1.10779
1.552	5.84106
1.5525	8.56018
1.553	8.45947
1.5535	7.95593
1.554	6.14319
1.5545	4.33044
1.555	5.94177
1.5555	3.02124
1.556	7.15027
1.5565	0.80566
1.557	3.7262
1.5575	3.7262
1.558	6.74744
1.5585	9.36584
1.559	12.99133
1.5595	15.1062
1.56	9.76868
1.5605	11.38
1.561	2.61841
1.5615	9.36584
1.562	7.65381
1.5625	9.36584
1.563	5.53894
1.5635	7.25098
1.564	8.45947
1.5645	8.96301
1.565	10.47363
1.5655	2.41699
1.566	2.61841
1.5665	-3.62549
1.567	-0.40283
1.5675	0.50354
1.568	2.31628
1.5685	3.62549
1.569	2.21558
1.5695	2.61841
1.57	-0.10071
1.5705	0.40283
1.571	2.41699
1.5715	5.0354
1.572	4.12903
1.5725	1.2085
1.573	0.80566
1.5735	3.22266
1.574	-3.22266
1.5745	-8.25806
1.575	-1.61133
1.5755	1.71204
1.576	3.7262
1.5765	-2.21558
1.577	-6.64673
1.5775	-8.45947
1.578	-10.0708
1.5785	-14.40125
1.579	-17.82532
1.5795	-10.47363
1.58	-7.65381
1.5805	-3.12195
1.581	0.90637
1.5815	-0.80566
1.582	-2.61841
1.5825	-10.0708
1.583	-5.63965
1.5835	-1.91345
1.584	-2.31628
1.5845	-0.20142
1.585	7.04956
1.5855	4.12903
1.586	5.84106
1.5865	7.15027
1.587	2.41699
1.5875	-2.92053
1.588	-2.01416
1.5885	1.91345
1.589	1.61133
1.5895	-0.80566
1.59	-0.50354
1.5905	-9.26514
1.591	-7.04956
1.5915	-7.65381
1.592	-3.32336
1.5925	1.71204
1.593	6.54602
1.5935	7.45239
1.594	17.92603
1.5945	22.76001
1.595	23.06213
1.5955	19.73877
1.596	19.33594
1.5965	18.42957
1.597	16.81824
1.5975	19.63806
1.598	17.72461
1.5985	8.05664
1.599	9.66797
1.5995	5.94177
1.6	6.94885
1.6005	0.50354
1.601	-2.11487
1.6015	-12.28638
1.602	-19.63806
1.6025	-26.78833
1.603	-30.71594
1.6035	-33.9386
1.604	-34.44214
1.6045	-30.01099
1.605	-25.27771
1.6055	-21.95435
1.606	-18.8324
1.6065	-13.99841
1.607	-11.48071
1.6075	-11.58142
1.608	-13.89771
1.6085	-16.01257
1.609	-13.59558
1.6095	-13.99841
1.61	-14.60266
1.6105	-4.73328
1.611	-9.06372
1.6115	-14.70337
1.612	-5.53894
1.6125	-2.41699
1.613	-1.81274
1.6135	-1.71204
1.614	1.91345
1.6145	-4.33044
1.615	0.70496
1.6155	-4.33044
1.616	-0.50354
1.6165	-3.22266
1.617	-4.12903
1.6175	-1.3092
1.618	2.31628
1.6185	7.75452
1.619	13.69629
1.6195	20.64514
1.62	16.51611
1.6205	24.77417
1.621	31.11877
1.6215	38.87329
1.622	43.70728
1.6225	47.43347
1.623	46.32568
1.6235	44.0094
1.624	41.4917
1.6245	35.2478
1.625	33.53577
1.6255	17.82532
1.626	10.57434
1.6265	0.30212
1.627	-7.85522
1.6275	-14.30054
1.628	-20.64514
1.6285	-19.53735
1.629	-19.23523
1.6295	-23.96851
1.63	-25.78125
1.6305	-19.23523
1.631	-22.35718
1.6315	-20.34302
1.632	-16.71753
1.6325	-14.30054
1.633	-14.09912
1.6335	-11.38
1.634	-8.15735
1.6345	-12.38708
1.635	-16.51611
1.6355	-10.17151
1.636	-5.0354
1.6365	-2.81982
1.637	-10.37292
1.6375	-10.67505
1.638	-12.5885
1.6385	-10.17151
1.639	-12.38708
1.6395	-12.28638
1.64	-17.52319
1.6405	-22.45789
1.641	-16.11328
1.6415	-7.45239
1.642	-4.02832
1.6425	-3.42407
1.643	-2.92053
1.6435	9.76868
1.644	12.68921
1.6445	10.87646
1.645	7.35168
1.6455	10.0708
1.646	13.69629
1.6465	18.22815
1.647	23.36426
1.6475	30.31311
1.648	27.89612
1.6485	25.27771
1.649	27.19116
1.6495	20.94727
1.65	23.8678
1.6505	15.91187
1.651	14.19983
1.6515	11.48071
1.652	8.96301
1.6525	7.95593
1.653	9.97009
1.6535	3.02124
1.654	11.07788
1.6545	11.17859
1.655	8.45947
1.6555	7.35168
1.656	-2.21558
1.6565	-1.71204
1.657	-13.797
1.6575	-30.91736
1.658	-35.65063
1.6585	-38.26904
1.659	-38.77258
1.6595	-48.54126
1.66	-52.771
1.6605	-49.54834
1.661	-41.18958
1.6615	-36.15417
1.662	-36.85913
1.6625	-39.67896
1.663	-36.95984
1.6635	-30.71594
1.664	-28.29895
1.6645	-18.32886
1.665	-8.45947
1.6655	-2.01416
1.666	5.23682
1.6665	6.54602
1.667	13.69629
1.6675	7.95593
1.668	8.66089
1.6685	9.97009
1.669	17.12036
1.6695	25.37842
1.67	27.99683
1.6705	34.64355
1.671	49.74976
1.6715	65.05737
1.672	84.89685
1.6725	106.64978
1.673	138.17139
1.6735	157.50732
1.674	168.28308
1.6745	189.83459
1.675	210.58044
1.6755	212.99744
1.676	205.24292
1.6765	186.30981
1.677	153.68042
1.6775	112.49084
1.678	60.92834
1.6785	20.94727
1.679	-22.35718
1.6795	-42.8009
1.68	-61.43188
1.6805	-87.31384
1.681	-112.79297
1.6815	-138.07068
1.682	-147.83936
1.6825	-149.14856
1.683	-138.27209
1.6835	-133.53882
1.684	-133.53882
1.6845	-135.45227
1.685	-133.84094
1.6855	-123.77014
1.686	-123.16589
1.6865	-129.40979
1.687	-120.95032
1.6875	-112.39014
1.688	-106.24695
1.6885	-97.88818
1.689	-88.82446
1.6895	-84.59473
1.69	-68.38074
1.6905	-56.29578
1.691	-43.90869
1.6915	-29.00391
1.692	-11.68213
1.6925	10.67505
1.693	16.51611
1.6935	25.27771
1.694	27.59399
1.6945	23.16284
1.695	18.73169
1.6955	4.12903
1.696	-4.83398
1.6965	-10.17151
1.697	-17.01965
1.6975	-21.04797
1.698	-33.83789
1.6985	-39.07471
1.699	-47.53418
1.6995	-38.16833
1.7	-21.85364
1.7005	-6.84814
1.701	1.51062
1.7015	4.02832
1.702	4.63257
1.7025	10.97717
1.703	15.40833
1.7035	16.01257
1.704	14.70337
1.7045	23.46497
1.705	30.11169
1.7055	39.77966
1.706	69.28711
1.7065	98.0896
1.707	121.45386
1.7075	143.81104
1.708	169.49158
1.7085	209.9762
1.709	242.30347
1.7095	249.15161
1.71	224.78027
1.7105	194.66858
1.711	140.48767
1.7115	78.65295
1.712	26.18408
1.7125	-34.94568
1.713	-93.15491
1.7135	-132.83386
1.714	-171.0022
1.7145	-179.05884
1.715	-162.2406
1.7155	-84.09119
1.716	14.40125
1.7165	106.9519
1.717	201.81885
1.7175	291.85181
1.718	376.64795
1.7185	431.53381
1.719	448.85559
1.7195	425.79346
1.72	373.02246
1.7205	288.93127
1.721	194.9707
1.7215	86.60889
1.722	-34.34143
1.7225	-157.50732
1.723	-275.93994
1.7235	-380.37415
1.724	-465.67383
1.7245	-519.95544
1.725	-529.92554
1.7255	-500.21667
1.726	-459.22852
1.7265	-392.25769
1.727	-316.22314
1.7275	-234.34753
1.728	-143.4082
1.7285	-51.86462
1.729	6.2439
1.7295	48.03772
1.73	78.25012
1.7305	107.05261
1.731	108.86536
1.7315	98.69385
1.732	67.47437
1.7325	30.31311
1.733	11.38
1.7335	17.42249
1.734	60.62622
1.7345	114.60571
1.735	136.35864
1.7355	147.1344
1.736	157.40662
1.7365	157.91016
1.737	189.53247
1.7375	252.37427
1.738	320.15076
1.7385	352.88086
1.739	347.94617
1.7395	308.87146
1.74	245.02258
1.7405	168.88733
1.741	77.04163
1.7415	-12.08496
1.742	-101.31226
1.7425	-196.58203
1.743	-284.09729
1.7435	-345.32776
1.744	-384.40247
1.7445	-405.95398
1.745	-418.94531
1.7455	-410.18372
1.746	-386.31592
1.7465	-339.99023
1.747	-300.31128
1.7475	-267.98401
1.748	-248.74878
1.7485	-226.08948
1.749	-185.10132
1.7495	-136.15723
1.75	-73.81897
1.7505	-32.52869
1.751	1.2085
1.7515	20.84656
1.752	29.40674
1.7525	33.13293
1.753	30.91736
1.7535	34.14001
1.754	49.34692
1.7545	68.98499
1.755	81.67419
1.7555	89.22729
1.756	90.5365
1.7565	94.16199
1.757	88.11951
1.7575	91.64429
1.758	80.56641
1.7585	70.19348
1.759	51.5625
1.7595	65.76233
1.76	82.47986
1.7605	83.28552
1.761	75.73242
1.7615	76.53809
1.762	72.61047
1.7625	63.24463
1.763	62.43896
1.7635	55.69153
1.764	62.03613
1.7645	61.12976
1.765	57.8064
1.7655	60.52551
1.766	51.96533
1.7665	34.44214
1.767	18.73169
1.7675	-9.36584
1.768	-44.71436
1.7685	-75.63171
1.769	-99.2981
1.7695	-111.8866
1.77	-119.74182
1.7705	-131.72607
1.771	-130.31616
1.7715	-121.25244
1.772	-91.54358
1.7725	-52.67029
1.773	-20.44373
1.7735	19.83948
1.774	90.73792
1.7745	159.7229
1.775	219.03992
1.7755	256.30188
1.776	272.21375
1.7765	266.87622
1.777	238.67798
1.7775	200.50964
1.778	158.61511
1.7785	122.15881
1.779	72.40906
1.7795	30.01099
1.78	-7.35168
1.7805	-45.72144
1.781	-85.70251
1.7815	-116.51917
1.782	-145.72449
1.7825	-168.88733
1.783	-193.46008
1.7835	-206.25
1.784	-224.98169
1.7845	-232.13196
1.785	-237.6709
1.7855	-204.73938
1.786	-163.24768
1.7865	-118.02979
1.787	-83.68835
1.7875	-60.12268
1.788	-33.33435
1.7885	-13.69629
1.789	-0.40283
1.7895	11.68213
1.79	29.20532
1.7905	42.29736
1.791	48.84338
1.7915	53.87878
1.792	42.19666
1.7925	44.61365
1.793	49.74976
1.7935	45.92285
1.794	47.8363
1.7945	48.54126
1.795	61.93542
1.7955	70.49561
1.796	75.4303
1.7965	76.53809
1.797	68.28003
1.7975	59.92126
1.798	46.82922
1.7985	33.73718
1.799	27.49329
1.7995	11.88354
1.8	11.2793
1.8005	5.53894
1.801	-7.85522
1.8015	-17.82532
1.802	-25.07629
1.8025	-25.78125
1.803	-33.83789
1.8035	-31.32019
1.804	-20.64514
1.8045	-17.92603
1.805	-12.18567
1.8055	-0.20142
1.806	13.19275
1.8065	23.66638
1.807	40.48462
1.8075	60.12268
1.808	83.99048
1.8085	104.53491
1.809	121.9574
1.8095	139.68201
1.81	167.276
1.8105	183.79211
1.811	184.29565
1.8115	169.29016
1.812	131.82678
1.8125	92.75208
1.813	30.51453
1.8135	-20.74585
1.814	-72.50977
1.8145	-123.06519
1.815	-153.98254
1.8155	-187.31689
1.816	-199.50256
1.8165	-206.45142
1.817	-199.40186
1.8175	-161.53564
1.818	-114.80713
1.8185	-70.29419
1.819	-45.2179
1.8195	-20.84656
1.82	-14.90479
1.8205	-5.53894
1.821	2.21558
1.8215	5.33752
1.822	19.13452
1.8225	60.4248
1.823	82.17773
1.8235	87.81738
1.824	77.948
1.8245	68.17932
1.825	50.15259
1.8255	20.54443
1.826	-12.5885
1.8265	-31.52161
1.827	-48.94409
1.8275	-56.79932
1.828	-64.55383
1.8285	-62.64038
1.829	-57.10144
1.8295	-58.61206
1.83	-53.87878
1.8305	-43.90869
1.831	-36.4563
1.8315	-19.03381
1.832	-17.12036
1.8325	-11.68213
1.833	-13.49487
1.8335	-16.41541
1.834	-8.45947
1.8345	-1.71204
1.835	6.3446
1.8355	3.22266
1.836	6.14319
1.8365	19.43665
1.837	50.65613
1.8375	90.73792
1.838	130.11475
1.8385	159.11865
1.839	154.38538
1.8395	152.67334
1.84	145.22095
1.8405	120.14465
1.841	95.77332
1.8415	68.07861
1.842	35.95276
1.8425	16.3147
1.843	-9.46655
1.8435	-26.28479
1.844	-57.20215
1.8445	-73.61755
1.845	-84.79614
1.8455	-83.08411
1.846	-79.45862
1.8465	-87.91809
1.847	-92.24854
1.8475	-111.08093
1.848	-130.71899
1.8485	-137.66785
1.849	-127.29492
1.8495	-116.922
1.85	-97.78748
1.8505	-71.90552
1.851	-36.95984
1.8515	-6.44531
1.852	49.34692
1.8525	86.50818
1.853	114.00146
1.8535	163.75122
1.854	196.88416
1.8545	218.53638
1.855	233.84399
1.8555	227.19727
1.856	209.77478
1.8565	174.72839
1.857	139.98413
1.8575	96.57898
1.858	58.71277
1.8585	2.21558
1.859	-45.01648
1.8595	-97.78748
1.86	-146.02661
1.8605	-162.03918
1.861	-175.83618
1.8615	-179.76379
1.862	-180.77087
1.8625	-172.3114
1.863	-157.10449
1.8635	-138.77563
1.864	-133.94165
1.8645	-122.46094
1.865	-90.93933
1.8655	-56.39648
1.866	-12.08496
1.8665	24.87488
1.867	29.20532
1.8675	21.55151
1.868	24.16992
1.8685	49.14551
1.869	72.10693
1.8695	81.67419
1.87	84.09119
1.8705	62.74109
1.871	52.771
1.8715	48.23914
1.872	37.66479
1.8725	22.76001
1.873	13.49487
1.8735	4.73328
1.874	18.12744
1.8745	63.54675
1.875	94.76624
1.8755	109.06677
1.876	98.99597
1.8765	77.44446
1.877	51.66321
1.8775	17.92603
1.878	-29.40674
1.8785	-75.93384
1.879	-116.61987
1.8795	-139.17847
1.88	-139.68201
1.8805	-133.94165
1.881	-131.02112
1.8815	-129.30908
1.882	-111.58447
1.8825	-96.67969
1.883	-71.90552
1.8835	-56.5979
1.884	-39.47754
1.8845	-27.19116
1.885	-16.81824
1.8855	-8.15735
1.886	2.61841
1.8865	6.64673
1.887	15.81116
1.8875	18.93311
1.888	27.59399
1.8885	31.32019
1.889	30.51453
1.8895	34.94568
1.89	31.72302
1.8905	42.59949
1.891	33.43506
1.8915	31.52161
1.892	40.68604
1.8925	38.06763
1.893	46.92993
1.8935	63.54675
1.894	75.22888
1.8945	94.3634
1.895	95.87402
1.8955	93.25562
1.896	84.19189
1.8965	64.25171
1.897	43.60657
1.8975	21.45081
1.898	-4.73328
1.8985	-27.6947
1.899	-53.67737
1.8995	-73.11401
1.9	-86.70959
1.9005	-89.93225
1.901	-97.68677
1.9015	-91.54358
1.902	-83.18481
1.9025	-62.8418
1.903	-42.09595
1.9035	-30.41382
1.904	-21.45081
1.9045	-10.57434
1.905	-3.62549
1.9055	3.8269
1.906	8.66089
1.9065	12.28638
1.907	17.22107
1.9075	17.42249
1.908	15.40833
1.9085	12.68921
1.909	26.3855
1.9095	46.62781
1.91	54.68445
1.9105	47.43347
1.911	74.72534
1.9115	141.49475
1.912	210.27832
1.9125	245.72754
1.913	257.71179
1.9135	229.91638
1.914	187.82043
1.9145	127.09351
1.915	62.8418
1.9155	-14.70337
1.916	-86.10535
1.9165	-147.83936
1.917	-186.71265
1.9175	-211.88965
1.918	-234.14612
1.9185	-238.27515
1.919	-221.75903
1.9195	-181.37512
1.92	-130.21545
1.9205	-47.13135
1.921	25.27771
1.9215	52.8717
1.922	68.17932
1.9225	103.02429
1.923	138.27209
1.9235	168.28308
1.924	219.54346
1.9245	239.38293
1.925	220.85266
1.9255	193.6615
1.926	160.9314
1.9265	112.08801
1.927	48.23914
1.9275	-26.88904
1.928	-98.39172
1.9285	-170.49866
1.929	-226.19019
1.9295	-247.7417
1.93	-268.99109
1.9305	-285.91003
1.931	-292.05322
1.9315	-269.89746
1.932	-230.1178
1.9325	-179.96521
1.933	-132.73315
1.9335	-87.71667
1.934	-59.21631
1.9345	-19.13452
1.935	1.10779
1.9355	19.94019
1.936	32.12585
1.9365	51.86462
1.937	63.84888
1.9375	61.12976
1.938	61.02905
1.9385	51.15967
1.939	43.00232
1.9395	45.11719
1.94	53.17383
1.9405	86.50818
1.941	125.07935
1.9415	154.78821
1.942	166.77246
1.9425	175.13123
1.943	164.95972
1.9435	134.24377
1.944	95.37048
1.9445	59.82056
1.945	26.48621
1.9455	-8.8623
1.946	-35.65063
1.9465	-68.98499
1.947	-89.12659
1.9475	-100.6073
1.948	-101.01013
1.9485	-97.48535
1.949	-91.94641
1.9495	-83.18481
1.95	-71.60339
1.9505	-58.00781
1.951	-42.8009
1.9515	-15.40833
1.952	4.63257
1.9525	29.40674
1.953	40.2832
1.9535	50.95825
1.954	52.97241
1.9545	64.65454
1.955	64.65454
1.9555	56.29578
1.956	38.87329
1.9565	30.2124
1.957	17.12036
1.9575	11.88354
1.958	-1.61133
1.9585	-6.14319
1.959	-1.81274
1.9595	5.43823
1.96	3.12195
1.9605	4.83398
1.961	4.12903
1.9615	-5.74036
1.962	-23.8678
1.9625	-36.4563
1.963	-46.82922
1.9635	-49.95117
1.964	-37.36267
1.9645	-37.16125
1.965	-26.78833
1.9655	-28.29895
1.966	-26.48621
1.9665	-23.06213
1.967	-24.27063
1.9675	-23.46497
1.968	-32.93152
1.9685	-29.00391
1.969	-26.3855
1.9695	-12.28638
1.97	-2.92053
1.9705	7.75452
1.971	3.92761
1.9715	5.33752
1.972	5.84106
1.9725	8.45947
1.973	7.45239
1.9735	9.46655
1.974	9.86938
1.9745	3.12195
1.975	9.76868
1.9755	7.35168
1.976	4.53186
1.9765	9.66797
1.977	8.35876
1.9775	6.44531
1.978	2.01416
1.9785	8.05664
1.979	8.25806
1.9795	9.46655
1.98	8.7616
1.9805	15.60974
1.981	13.19275
1.9815	13.797
1.982	22.86072
1.9825	19.63806
1.983	17.12036
1.9835	18.63098
1.984	22.25647
1.9845	20.24231
1.985	17.92603
1.9855	22.55859
1.986	17.6239
1.9865	19.94019
1.987	17.6239
1.9875	16.01257
1.988	15.60974
1.9885	15.20691
1.989	7.15027
1.9895	1.61133
1.99	-4.63257
1.9905	-11.2793
1.991	-10.77576
1.9915	-13.39417
1.992	-11.88354
1.9925	-10.27222
1.993	-8.45947
1.9935	-6.64673
1.994	-7.65381
1.9945	-6.3446
1.995	-9.36584
1.9955	-10.17151
1.996	-4.53186
1.9965	12.89062
1.997	26.18408
1.9975	26.18408
1.998	23.66638
1.9985	22.55859
1.999	19.33594
1.9995	12.38708
2	7.5531
2.0005	1.40991
2.001	-3.22266
2.0015	-4.73328
2.002	-9.16443
2.0025	-13.19275
2.003	-16.71753
2.0035	-13.29346
2.004	-10.47363
2.0045	-8.96301
2.005	-4.43115
2.0055	-5.84106
2.006	-4.93469
2.0065	-1.3092
2.007	-4.83398
2.0075	-1.51062
2.008	-0.30212
2.0085	0.10071
2.009	7.45239
2.0095	4.93469
2.01	3.02124
2.0105	10.97717
2.011	15.20691
2.0115	15.00549
2.012	18.22815
2.0125	16.41541
2.013	16.3147
2.0135	12.28638
2.014	14.30054
2.0145	19.33594
2.015	16.91895
2.0155	12.78992
2.016	10.87646
2.0165	11.88354
2.017	18.42957
2.0175	9.06372
2.018	10.27222
2.0185	6.94885
2.019	6.74744
2.0195	-7.25098
2.02	-6.04248
2.0205	-5.84106
2.021	-7.45239
2.0215	-19.94019
2.022	-21.3501
2.0225	-18.53027
2.023	-20.74585
2.0235	-17.52319
2.024	-19.13452
2.0245	-15.20691
2.025	-9.16443
2.0255	-6.14319
2.026	-2.41699
2.0265	-3.92761
2.027	-0.90637
2.0275	-2.11487
2.028	-5.94177
2.0285	-8.35876
2.029	-2.81982
2.0295	-2.92053
2.03	-1.40991
2.0305	0.20142
2.031	-3.22266
2.0315	2.11487
2.032	1.81274
2.0325	0.20142
2.033	3.42407
2.0335	-4.43115
2.034	0.10071
2.0345	-4.83398
2.035	-2.61841
2.0355	-2.31628
2.036	-1.81274
2.0365	0
2.037	2.11487
2.0375	-5.74036
2.038	-0.80566
2.0385	-2.61841
2.039	-4.53186
2.0395	-0.70496
2.04	-1.51062
2.0405	-6.84814
2.041	-7.04956
2.0415	-1.00708
2.042	1.91345
2.0425	-1.81274
2.043	0.40283
2.0435	-1.51062
2.044	0.60425
2.0445	3.32336
2.045	0.30212
2.0455	2.21558
2.046	30.91736
2.0465	93.0542
2.047	141.09192
2.0475	181.27441
2.048	204.13513
2.0485	197.08557
2.049	177.24609
2.0495	145.22095
2.05	101.11084
2.0505	45.01648
2.051	-5.23682
2.0515	-54.38232
2.052	-96.98181
2.0525	-129.71191
2.053	-159.92432
2.0535	-163.14697
2.054	-150.9613
2.0545	-134.94873
2.055	-123.46802
2.0555	-111.48376
2.056	-109.67102
2.0565	-104.83704
2.057	-83.48694
2.0575	-66.6687
2.058	-49.24622
2.0585	-27.6947
2.059	-13.69629
2.0595	-10.37292
2.06	-17.01965
2.0605	-5.53894
2.061	-3.92761
2.0615	-5.33752
2.062	2.21558
2.0625	0.10071
2.063	-4.63257
2.0635	-16.61682
2.064	-13.19275
2.0645	-9.46655
2.065	-15.1062
2.0655	-11.07788
2.066	-13.39417
2.0665	-6.3446
2.067	-2.21558
2.0675	-1.3092
2.068	-7.95593
2.0685	-3.7262
2.069	0.60425
2.0695	0.60425
2.07	5.33752
2.0705	5.94177
2.071	10.87646
2.0715	12.5885
2.072	12.48779
2.0725	4.53186
2.073	2.61841
2.0735	6.54602
2.074	0.80566
2.0745	4.83398
2.075	3.42407
2.0755	-4.33044
2.076	-6.3446
2.0765	-6.04248
2.077	-2.41699
2.0775	-2.92053
2.078	-4.63257
2.0785	-5.33752
2.079	-5.13611
2.0795	-2.92053
2.08	0.20142
2.0805	-5.23682
2.081	1.3092
2.0815	-0.60425
2.082	-0.60425
2.0825	-1.51062
2.083	-1.3092
2.0835	3.92761
2.084	4.02832
2.0845	-1.2085
2.085	-0.60425
2.0855	1.2085
2.086	0.50354
2.0865	-2.01416
2.087	0.30212
2.0875	6.04248
2.088	4.53186
2.0885	-0.80566
2.089	-0.60425
2.0895	-2.41699
2.09	0.90637
2.0905	-2.71912
2.091	0.50354
2.0915	2.01416
2.092	-1.2085
2.0925	-0.50354
2.093	0.20142
2.0935	1.40991
2.094	1.71204
2.0945	-1.51062
2.095	-4.33044
2.0955	-2.21558
2.096	2.41699
2.0965	0.40283
2.097	1.10779
2.0975	0.20142
2.098	-4.43115
2.0985	-7.95593
2.099	-5.0354
2.0995	-2.61841
2.1	-1.3092
2.1005	-3.32336
2.101	0.30212
2.1015	-5.33752
2.102	-10.47363
2.1025	-9.46655
2.103	-10.27222
2.1035	-2.11487
2.104	-9.26514
2.1045	-7.35168
2.105	-3.52478
2.1055	-6.2439
2.106	-0.70496
2.1065	3.12195
2.107	-4.83398
2.1075	-4.63257
2.108	-2.31628
2.1085	-2.01416
2.109	-0.90637
2.1095	-0.30212
2.11	-5.0354
2.1105	-5.13611
2.111	-5.23682
2.1115	-5.84106
2.112	-3.42407
2.1125	-1.51062
2.113	-3.32336
2.1135	-3.32336
2.114	-2.01416
2.1145	1.00708
2.115	-2.21558
2.1155	-3.22266
2.116	-0.80566
2.1165	0.30212
2.117	-0.90637
2.1175	1.2085
2.118	2.01416
2.1185	2.21558
2.119	-0.40283
2.1195	-1.00708
2.12	-1.81274
2.1205	-6.44531
2.121	-2.5177
2.1215	-2.31628
2.122	-11.17859
2.1225	-1.3092
2.123	-5.94177
2.1235	-4.83398
2.124	-10.67505
2.1245	-12.08496
2.125	-17.01965
2.1255	-18.02673
2.126	-16.71753
2.1265	-13.19275
2.127	-16.81824
2.1275	-19.03381
2.128	-13.99841
2.1285	-13.09204
2.129	-11.2793
2.1295	-14.50195
2.13	-10.0708
2.1305	-10.17151
2.131	-13.09204
2.1315	-10.57434
2.132	-6.94885
2.1325	-1.81274
2.133	-3.62549
2.1335	-0.70496
2.134	-1.81274
2.1345	0
2.135	-2.11487
2.1355	-4.73328
2.136	-6.2439
2.1365	-1.81274
2.137	-2.21558
2.1375	-2.61841
2.138	-5.43823
2.1385	-5.53894
2.139	-3.12195
2.1395	0.10071
2.14	-8.66089
2.1405	-3.42407
2.141	-3.7262
2.1415	-3.32336
2.142	-3.02124
2.1425	-7.85522
2.143	-13.29346
2.1435	-8.56018
2.144	-11.78284
2.1445	-12.89062
2.145	-14.30054
2.1455	-13.29346
2.146	-15.40833
2.1465	-20.34302
2.147	-21.14868
2.1475	-16.51611
2.148	-13.49487
2.1485	-15.1062
2.149	-19.33594
2.1495	-19.94019
2.15	-25.57983
2.1505	-18.02673
2.151	-16.61682
2.1515	-17.6239
2.152	-20.34302
2.1525	-18.22815
2.153	-15.30762
2.1535	-9.76868
2.154	-11.2793
2.1545	-16.91895
2.155	-12.99133
2.1555	-15.20691
2.156	-10.67505
2.1565	-6.04248
2.157	0.70496
2.1575	-5.43823
2.158	-1.40991
2.1585	-0.80566
2.159	-1.91345
2.1595	0
2.16	-2.41699
2.1605	-4.12903
2.161	-7.85522
2.1615	-6.74744
2.162	-5.43823
2.1625	-4.22974
2.163	-0.40283
2.1635	-10.97717
2.164	-8.8623
2.1645	-13.29346
2.165	-13.59558
2.1655	-16.81824
2.166	-13.797
2.1665	-22.86072
2.167	-15.71045
2.1675	-15.1062
2.168	-16.01257
2.1685	-11.2793
2.169	-11.88354
2.1695	-10.77576
2.17	-12.99133
2.1705	-5.43823
2.171	-5.33752
2.1715	-2.41699
2.172	-6.64673
2.1725	-6.84814
2.173	-9.46655
2.1735	-7.25098
2.174	-14.70337
2.1745	-3.7262
2.175	-6.64673
2.1755	-5.53894
2.176	-10.77576
2.1765	-8.56018
2.177	-6.64673
2.1775	-6.94885
2.178	-4.93469
2.1785	-11.58142
2.179	-8.45947
2.1795	-4.73328
2.18	-5.63965
2.1805	-12.5885
2.181	-8.66089
2.1815	-5.63965
2.182	-9.56726
2.1825	-3.52478
2.183	1.2085
2.1835	1.3092
2.184	-0.10071
2.1845	3.92761
2.185	3.32336
2.1855	4.22974
2.186	4.73328
2.1865	0.10071
2.187	-1.51062
2.1875	1.3092
2.188	-4.12903
2.1885	3.92761
2.189	1.00708
2.1895	2.92053
2.19	-0.80566
2.1905	-5.0354
2.191	-6.2439
2.1915	-7.5531
2.192	-6.84814
2.1925	-6.74744
2.193	-7.5531
2.1935	-9.16443
2.194	-12.38708
2.1945	-4.22974
2.195	-5.63965
2.1955	-3.22266
2.196	-11.98425
2.1965	-20.24231
2.197	-11.17859
2.1975	-10.17151
2.198	-2.92053
2.1985	-2.61841
2.199	-7.04956
2.1995	-4.12903
2.2	-7.85522
2.2005	-4.12903
2.201	-14.80408
2.2015	-12.89062
2.202	-2.92053
2.2025	0.20142
2.203	-1.10779
2.2035	5.33752
2.204	-1.51062
2.2045	0.60425
2.205	1.81274
2.2055	0.70496
2.206	2.41699
2.2065	5.0354
2.207	2.61841
2.2075	3.8269
2.208	2.92053
2.2085	3.7262
2.209	2.21558
2.2095	4.43115
2.21	4.93469
2.2105	3.62549
2.211	9.86938
2.2115	5.94177
2.212	4.73328
2.2125	8.25806
2.213	4.22974
2.2135	3.52478
2.214	7.5531
2.2145	4.43115
2.215	7.25098
2.2155	0.30212
2.216	-0.60425
2.2165	-5.74036
2.217	0.50354
2.2175	0.20142
2.218	-5.74036
2.2185	-0.80566
2.219	1.71204
2.2195	-1.91345
2.22	-5.53894
2.2205	1.3092
2.221	2.71912
2.2215	-3.02124
2.222	0.80566
2.2225	-3.92761
2.223	-2.11487
2.2235	-1.71204
2.224	3.32336
2.2245	0
2.225	0.90637
2.2255	2.5177
2.226	-3.42407
2.2265	-1.91345
2.227	-4.43115
2.2275	2.11487
2.228	-0.30212
2.2285	1.40991
2.229	1.81274
2.2295	0.40283
2.23	2.41699
2.2305	-2.81982
2.231	-4.12903
2.2315	-5.94177
2.232	-3.62549
2.2325	-7.35168
2.233	-1.81274
2.2335	-7.15027
2.234	-8.66089
2.2345	-5.94177
2.235	-3.12195
2.2355	-3.22266
2.236	0.20142
2.2365	-1.2085
2.237	-6.74744
2.2375	-3.42407
2.238	2.81982
2.2385	7.65381
2.239	5.94177
2.2395	2.01416
2.24	4.22974
2.2405	1.91345
2.241	2.31628
2.2415	3.92761
2.242	5.94177
2.2425	6.64673
2.243	2.71912
2.2435	0.10071
2.244	0.10071
2.2445	1.3092
2.245	-2.21558
2.2455	0.60425
2.246	0.40283
2.2465	1.2085
2.247	1.10779
2.2475	-1.3092
2.248	2.61841
2.2485	2.01416
2.249	-2.81982
2.2495	-3.62549
2.25	-0.40283
2.2505	2.31628
2.251	0.20142
2.2515	-2.11487
2.252	-1.61133
2.2525	-1.71204
2.253	4.02832
2.2535	-0.70496
2.254	3.42407
2.2545	-2.41699
2.255	2.31628
2.2555	0.70496
2.256	-1.51062
2.2565	-1.71204
2.257	-1.10779
2.2575	5.63965
2.258	3.12195
2.2585	2.11487
2.259	4.53186
2.2595	0.80566
2.26	2.92053
2.2605	3.42407
2.261	7.04956
2.2615	3.52478
2.262	5.33752
2.2625	1.00708
2.263	4.22974
2.2635	6.44531
2.264	7.15027
2.2645	3.52478
2.265	3.8269
2.2655	1.40991
2.266	7.25098
2.2665	1.2085
2.267	-0.60425
2.2675	3.92761
2.268	1.40991
2.2685	-4.43115
2.269	-9.16443
2.2695	-12.48779
2.27	-8.66089
2.2705	-7.5531
2.271	-8.66089
2.2715	-10.47363
2.272	-8.45947
2.2725	-4.93469
2.273	-2.61841
2.2735	-6.64673
2.274	-2.41699
2.2745	3.22266
2.275	-3.02124
2.2755	-0.60425
2.276	-2.61841
2.2765	-2.41699
2.277	1.00708
2.2775	-5.23682
2.278	-3.8269
2.2785	1.2085
2.279	0.90637
2.2795	2.5177
2.28	4.22974
2.2805	-0.30212
2.281	3.32336
2.2815	2.01416
2.282	-1.2085
2.2825	0.50354
2.283	7.25098
2.2835	0.90637
2.284	6.04248
2.2845	10.67505
2.285	19.03381
2.2855	13.29346
2.286	14.70337
2.2865	11.78284
2.287	14.30054
2.2875	13.89771
2.288	6.04248
2.2885	8.56018
2.289	7.95593
2.2895	-1.3092
2.29	-0.90637
2.2905	-2.31628
2.291	-7.15027
2.2915	-7.25098
2.292	-0.70496
2.2925	-5.74036
2.293	-16.41541
2.2935	-13.59558
2.294	-9.26514
2.2945	-4.02832
2.295	-10.67505
2.2955	-7.04956
2.296	-7.5531
2.2965	0.30212
2.297	-1.61133
2.2975	-2.92053
2.298	1.81274
2.2985	-0.40283
2.299	1.00708
2.2995	0
2.3	0.90637
2.3005	5.23682
2.301	0.90637
2.3015	4.53186
2.302	3.8269
2.3025	5.43823
2.303	5.0354
2.3035	4.12903
2.304	3.8269
2.3045	5.43823
2.305	4.73328
2.3055	4.43115
2.306	10.57434
2.3065	7.85522
2.307	3.42407
2.3075	1.10779
2.308	3.7262
2.3085	7.45239
2.309	5.84106
2.3095	7.04956
2.31	8.7616
2.3105	5.43823
2.311	6.84814
2.3115	4.02832
2.312	-1.40991
2.3125	5.33752
2.313	3.32336
2.3135	12.78992
2.314	9.97009
2.3145	9.06372
2.315	10.17151
2.3155	5.13611
2.316	2.21558
2.3165	12.5885
2.317	6.74744
2.3175	10.57434
2.318	13.59558
2.3185	10.77576
2.319	6.2439
2.3195	5.0354
2.32	4.73328
2.3205	2.01416
2.321	6.64673
2.3215	3.32336
2.322	3.62549
2.3225	8.66089
2.323	3.7262
2.3235	1.51062
2.324	3.32336
2.3245	5.0354
2.325	8.7616
2.3255	4.73328
2.326	-3.22266
2.3265	-2.92053
2.327	-9.56726
2.3275	-10.77576
2.328	-4.22974
2.3285	1.10779
2.329	-3.02124
2.3295	-3.8269
2.33	-2.5177
2.3305	3.32336
2.331	-1.3092
2.3315	3.52478
2.332	3.52478
2.3325	3.22266
2.333	1.10779
2.3335	3.02124
2.334	4.63257
2.3345	-1.40991
2.335	8.35876
2.3355	4.83398
2.336	9.46655
2.3365	10.0708
2.337	6.3446
2.3375	7.95593
2.338	9.26514
2.3385	5.13611
2.339	11.17859
2.3395	13.29346
2.34	7.65381
2.3405	11.17859
2.341	10.27222
2.3415	9.06372
2.342	3.22266
2.3425	-1.51062
2.343	-5.13611
2.3435	-10.17151
2.344	-10.77576
2.3445	-11.48071
2.345	-15.71045
2.3455	-18.02673
2.346	-9.86938
2.3465	-12.18567
2.347	-11.68213
2.3475	-8.56018
2.348	-3.22266
2.3485	-7.35168
2.349	-5.63965
2.3495	-2.11487
2.35	-1.10779
2.3505	-1.61133
2.351	-2.31628
2.3515	-7.25098
2.352	-6.64673
2.3525	-3.12195
2.353	-6.14319
2.3535	-1.40991
2.354	-3.42407
2.3545	-1.40991
2.355	-2.81982
2.3555	-3.52478
2.356	-5.33752
2.3565	-3.8269
2.357	-11.17859
2.3575	-4.22974
2.358	-5.53894
2.3585	-3.12195
2.359	-3.92761
2.3595	-1.81274
2.36	2.31628
2.3605	4.12903
2.361	4.33044
2.3615	3.62549
2.362	3.32336
2.3625	9.56726
2.363	5.13611
2.3635	1.3092
2.364	4.02832
2.3645	4.43115
2.365	3.12195
2.3655	-4.53186
2.366	-0.10071
2.3665	6.14319
2.367	-0.90637
2.3675	2.81982
2.368	2.11487
2.3685	2.5177
2.369	5.33752
2.3695	0
2.37	7.25098
2.3705	3.02124
2.371	4.63257
2.3715	0.50354
2.372	4.43115
2.3725	3.02124
2.373	5.94177
2.3735	7.15027
2.374	1.91345
2.3745	0.30212
2.375	3.92761
2.3755	-3.52478
2.376	-2.01416
2.3765	-0.40283
2.377	1.51062
2.3775	3.02124
2.378	3.02124
2.3785	0.20142
2.379	2.41699
2.3795	4.22974
2.38	-0.60425
2.3805	8.05664
2.381	4.12903
2.3815	3.12195
2.382	4.22974
2.3825	3.8269
2.383	3.52478
2.3835	-1.81274
2.384	3.02124
2.3845	2.61841
2.385	-2.31628
2.3855	-0.40283
2.386	0
2.3865	0.30212
2.387	-3.22266
2.3875	-2.71912
2.388	-3.32336
2.3885	-2.81982
2.389	-6.04248
2.3895	-1.51062
2.39	-0.80566
2.3905	-0.30212
2.391	-2.41699
2.3915	-0.60425
2.392	-2.01416
2.3925	-3.7262
2.393	-0.10071
2.3935	-0.80566
2.394	0.90637
2.3945	-0.20142
2.395	-0.60425
2.3955	-4.02832
2.396	0.10071
2.3965	-4.73328
2.397	-7.35168
2.3975	-2.21558
2.398	0.10071
2.3985	1.71204
2.399	-2.21558
2.3995	-6.64673
2.4	-2.71912
2.4005	3.8269
2.401	-1.51062
2.4015	-5.33752
2.402	-3.62549
2.4025	0.90637
2.403	-4.12903
2.4035	1.91345
2.404	3.02124
2.4045	0.90637
2.405	1.91345
2.4055	1.40991
2.406	-1.61133
2.4065	0.80566
2.407	2.11487
2.4075	-0.80566
2.408	-9.16443
2.4085	-4.33044
2.409	-5.74036
2.4095	-0.40283
2.41	-1.91345
2.4105	2.21558
2.411	1.61133
2.4115	1.81274
2.412	3.7262
2.4125	-3.7262
2.413	-1.40991
2.4135	-5.23682
2.414	-2.71912
2.4145	4.73328
2.415	0.40283
2.4155	-1.61133
2.416	-3.92761
2.4165	-3.7262
2.417	-4.02832
2.4175	1.40991
2.418	-0.90637
2.4185	3.32336
2.419	-1.71204
2.4195	4.02832
2.42	-0.60425
2.4205	-0.50354
2.421	-4.22974
2.4215	-3.32336
2.422	-5.53894
2.4225	0.10071
2.423	-3.62549
2.4235	-6.74744
2.424	-7.15027
2.4245	-3.52478
2.425	-5.53894
2.4255	-0.30212
2.426	-1.3092
2.4265	0.90637
2.427	3.22266
2.4275	0
2.428	1.40991
2.4285	0.30212
2.429	-7.45239
2.4295	-3.8269
2.43	-9.36584
2.4305	-8.35876
2.431	-6.94885
2.4315	-5.63965
2.432	-8.45947
2.4325	-3.02124
2.433	3.22266
2.4335	-1.91345
2.434	0
2.4345	-2.31628
2.435	3.22266
2.4355	7.75452
2.436	5.43823
2.4365	10.47363
2.437	14.40125
2.4375	11.98425
2.438	8.66089
2.4385	3.22266
2.439	5.84106
2.4395	6.54602
2.44	8.05664
2.4405	9.66797
2.441	5.0354
2.4415	3.12195
2.442	-0.40283
2.4425	-5.0354
2.443	-10.47363
2.4435	-12.99133
2.444	-10.97717
2.4445	-6.44531
2.445	-11.07788
2.4455	-11.48071
2.446	-8.25806
2.4465	-7.45239
2.447	-10.97717
2.4475	-7.65381
2.448	-3.22266
2.4485	-2.11487
2.449	-2.5177
2.4495	-6.2439
2.45	-3.92761
2.4505	-1.2085
2.451	-0.40283
2.4515	0.10071
2.452	-2.5177
2.4525	1.61133
2.453	-1.3092
2.4535	-0.40283
2.454	1.10779
2.4545	-1.71204
2.455	-4.83398
2.4555	-3.52478
2.456	-0.70496
2.4565	3.8269
2.457	-2.11487
2.4575	-4.22974
2.458	-1.00708
2.4585	-2.31628
2.459	-4.43115
2.4595	-1.3092
2.46	-4.12903
2.4605	-2.81982
2.461	-3.42407
2.4615	-2.11487
2.462	0.30212
2.4625	-1.10779
2.463	0.70496
2.4635	-2.5177
2.464	-0.90637
2.4645	-4.63257
2.465	-3.22266
2.4655	0.90637
2.466	-4.73328
2.4665	-2.31628
2.467	-0.70496
2.4675	-0.90637
2.468	3.7262
2.4685	0.50354
2.469	-3.22266
2.4695	-4.12903
2.47	2.11487
2.4705	-2.61841
2.471	-1.2085
2.4715	2.21558
2.472	6.84814
2.4725	5.0354
2.473	5.84106
2.4735	3.02124
2.474	-2.31628
2.4745	1.00708
2.475	0.30212
2.4755	0.80566
2.476	0.90637
2.4765	1.71204
2.477	6.44531
2.4775	3.92761
2.478	-1.3092
2.4785	1.00708
2.479	3.8269
2.4795	0
2.48	7.15027
2.4805	4.43115
2.481	3.32336
2.4815	8.35876
2.482	10.0708
2.4825	14.70337
2.483	9.36584
2.4835	10.97717
2.484	5.33752
2.4845	7.15027
2.485	8.15735
2.4855	2.81982
2.486	2.5177
2.4865	0.30212
2.487	-5.94177
2.4875	-7.04956
2.488	-13.19275
2.4885	-9.16443
2.489	-14.70337
2.4895	-14.30054
2.49	-18.12744
2.4905	-23.66638
2.491	-26.3855
2.4915	-25.68054
2.492	-29.50745
2.4925	-24.16992
2.493	-23.8678
2.4935	-24.06921
2.494	-14.60266
2.4945	-20.34302
2.495	-12.48779
2.4955	-11.78284
2.496	-13.49487
2.4965	-14.80408
2.497	-14.40125
2.4975	-5.74036
2.498	-7.75452
2.4985	-5.63965
2.499	-4.43115
2.4995	-4.02832
2.5	-1.81274
2.5005	-3.12195
2.501	-4.02832
2.5015	-3.32336
2.502	-0.30212
2.5025	-4.53186
2.503	1.10779
2.5035	3.12195
2.504	6.84814
2.5045	2.01416
2.505	1.81274
2.5055	4.53186
2.506	0.30212
2.5065	3.8269
2.507	3.02124
2.5075	7.5531
2.508	6.74744
2.5085	4.73328
2.509	3.32336
2.5095	6.14319
2.51	9.76868
2.5105	4.83398
2.511	7.25098
2.5115	3.42407
2.512	4.43115
2.5125	7.95593
2.513	5.23682
2.5135	1.2085
2.514	6.74744
2.5145	3.62549
2.515	4.22974
2.5155	5.84106
2.516	0.90637
2.5165	1.81274
2.517	5.53894
2.5175	6.3446
2.518	3.7262
2.5185	7.04956
2.519	4.43115
2.5195	7.5531
2.52	11.07788
2.5205	9.86938
2.521	8.7616
2.5215	4.93469
2.522	2.71912
2.5225	2.5177
2.523	0.50354
2.5235	2.01416
2.524	-1.61133
2.5245	2.81982
2.525	-2.01416
2.5255	-5.33752
2.526	-2.41699
2.5265	3.62549
2.527	2.92053
2.5275	3.52478
2.528	8.45947
2.5285	6.04248
2.529	2.01416
2.5295	-1.3092
2.53	0.60425
2.5305	-3.42407
2.531	-3.92761
2.5315	-1.61133
2.532	0.80566
2.5325	4.02832
2.533	0.40283
2.5335	-5.53894
2.534	2.61841
2.5345	0.90637
2.535	1.61133
2.5355	-1.81274
2.536	-0.20142
2.5365	-2.21558
2.537	-1.3092
2.5375	4.02832
2.538	-0.90637
2.5385	-4.43115
2.539	-1.91345
2.5395	-2.31628
2.54	-0.70496
2.5405	-2.71912
2.541	0.20142
2.5415	4.43115
2.542	-0.80566
2.5425	4.73328
2.543	4.02832
2.5435	8.05664
2.544	4.33044
2.5445	4.33044
2.545	5.33752
2.5455	2.11487
2.546	3.22266
2.5465	1.10779
2.547	4.22974
2.5475	2.31628
2.548	0.80566
2.5485	4.43115
2.549	8.45947
2.5495	4.93469
2.55	10.57434
2.5505	9.86938
2.551	6.04248
2.5515	6.04248
2.552	2.71912
2.5525	2.61841
2.553	9.36584
2.5535	7.45239
2.554	2.11487
2.5545	-0.30212
2.555	6.3446
2.5555	2.5177
2.556	-0.50354
2.5565	-1.91345
2.557	-4.02832
2.5575	2.71912
2.558	3.22266
2.5585	3.52478
2.559	-0.90637
2.5595	1.10779
2.56	0.20142
2.5605	5.74036
2.561	2.01416
2.5615	3.62549
2.562	2.01416
2.5625	-3.62549
2.563	-0.50354
2.5635	-1.40991
2.564	1.00708
2.5645	-4.53186
2.565	0.20142
2.5655	-0.60425
2.566	3.02124
2.5665	-3.32336
2.567	-2.5177
2.5675	1.51062
2.568	0
2.5685	6.04248
2.569	1.10779
2.5695	1.81274
2.57	-5.63965
2.5705	2.5177
2.571	2.92053
2.5715	2.71912
2.572	-0.60425
2.5725	-0.30212
2.573	-0.70496
2.5735	-3.22266
2.574	-6.54602
2.5745	-10.37292
2.575	-4.33044
2.5755	-0.50354
2.576	1.61133
2.5765	-1.3092
2.577	0.20142
2.5775	4.12903
2.578	-0.60425
2.5785	4.93469
2.579	-2.81982
2.5795	-0.40283
2.58	2.92053
2.5805	5.43823
2.581	3.02124
2.5815	3.52478
2.582	5.53894
2.5825	1.81274
2.583	-2.21558
2.5835	-6.74744
2.584	-1.61133
2.5845	-4.63257
2.585	-6.94885
2.5855	-6.74744
2.586	-6.14319
2.5865	-3.12195
2.587	-9.86938
2.5875	-8.05664
2.588	-3.32336
2.5885	-6.04248
2.589	-5.13611
2.5895	-4.63257
2.59	-4.43115
2.5905	-3.12195
2.591	0.30212
2.5915	-2.01416
2.592	-4.12903
2.5925	1.3092
2.593	3.62549
2.5935	1.81274
2.594	0.60425
2.5945	0.80566
2.595	1.40991
2.5955	-1.00708
2.596	-2.92053
2.5965	-0.20142
2.597	-1.61133
2.5975	-2.5177
2.598	-1.2085
2.5985	0.10071
2.599	-4.22974
2.5995	1.61133
2.6	-1.81274
2.6005	2.41699
2.601	-2.92053
2.6015	-5.43823
2.602	-4.53186
2.6025	-6.74744
2.603	-1.40991
2.6035	-4.12903
2.604	-1.81274
2.6045	-1.71204
2.605	-1.40991
2.6055	-4.02832
2.606	-5.74036
2.6065	-1.2085
2.607	-2.01416
2.6075	2.81982
2.608	-2.71912
2.6085	-5.23682
2.609	-2.01416
2.6095	-5.53894
2.61	-1.61133
2.6105	-2.01416
2.611	-4.93469
2.6115	-3.02124
2.612	0.30212
2.6125	-1.40991
2.613	0.20142
2.6135	-4.63257
2.614	-0.90637
2.6145	-0.90637
2.615	-1.3092
2.6155	-3.22266
2.616	-3.8269
2.6165	-7.35168
2.617	-4.53186
2.6175	-3.62549
2.618	-4.02832
2.6185	-5.53894
2.619	-4.73328
2.6195	-0.20142
2.62	-3.12195
2.6205	-0.30212
2.621	3.92761
2.6215	-4.22974
2.622	-0.10071
2.6225	4.43115
2.623	6.2439
2.6235	-2.41699
2.624	-1.71204
2.6245	1.3092
2.625	1.91345
2.6255	-6.74744
2.626	-4.73328
2.6265	-1.10779
2.627	-2.31628
2.6275	-0.40283
2.628	-0.20142
2.6285	-3.52478
2.629	-3.32336
2.6295	-1.61133
2.63	-3.8269
2.6305	-1.51062
2.631	-0.40283
2.6315	-1.3092
2.632	2.92053
2.6325	8.56018
2.633	2.71912
2.6335	-0.40283
2.634	0.70496
2.6345	-3.7262
2.635	6.54602
2.6355	0.70496
2.636	-1.61133
2.6365	-0.10071
2.637	6.94885
2.6375	1.3092
2.638	1.00708
2.6385	5.0354
2.639	-4.43115
2.6395	0.30212
2.64	-2.61841
2.6405	2.5177
2.641	-1.81274
2.6415	-2.5177
2.642	-4.73328
2.6425	-2.81982
2.643	-2.61841
2.6435	0
2.644	-2.21558
2.6445	-5.33752
2.645	1.81274
2.6455	3.8269
2.646	1.71204
2.6465	2.81982
2.647	9.86938
2.6475	4.02832
2.648	-0.90637
2.6485	7.35168
2.649	4.83398
2.6495	-2.21558
2.65	-0.20142
2.6505	2.92053
2.651	4.93469
2.6515	3.32336
2.652	9.26514
2.6525	12.18567
2.653	9.86938
2.6535	8.45947
2.654	5.33752
2.6545	10.27222
2.655	8.66089
2.6555	7.85522
2.656	-1.40991
2.6565	6.3446
2.657	6.04248
2.6575	5.33752
2.658	4.02832
2.6585	0.70496
2.659	-0.80566
2.6595	-2.61841
2.66	-1.51062
2.6605	0.20142
2.661	3.62549
2.6615	5.23682
2.662	3.32336
2.6625	0
2.663	-1.40991
2.6635	6.2439
2.664	2.21558
2.6645	-0.60425
2.665	-0.10071
2.6655	1.81274
2.666	-1.00708
2.6665	-0.30212
2.667	-1.3092
2.6675	2.5177
2.668	1.2085
2.6685	-0.70496
2.669	1.10779
2.6695	2.81982
2.67	-2.71912
2.6705	1.00708
2.671	-3.7262
2.6715	-3.42407
2.672	3.32336
2.6725	-0.40283
2.673	1.40991
2.6735	-0.60425
2.674	-2.01416
2.6745	-1.3092
2.675	4.12903
2.6755	-0.80566
2.676	1.81274
2.6765	-4.02832
2.677	-3.32336
2.6775	1.2085
2.678	0.80566
2.6785	-2.31628
2.679	-2.61841
2.6795	-4.12903
2.68	-0.70496
2.6805	-6.94885
2.681	-1.81274
2.6815	-5.33752
2.682	-0.90637
2.6825	5.23682
2.683	-0.30212
2.6835	1.81274
2.684	0.80566
2.6845	-2.01416
2.685	0.70496
2.6855	-3.7262
2.686	-3.32336
2.6865	-3.52478
2.687	-1.81274
2.6875	-8.7616
2.688	-7.15027
2.6885	-0.60425
2.689	0.30212
2.6895	-3.52478
2.69	-0.10071
2.6905	-0.40283
2.691	-3.32336
2.6915	0.60425
2.692	1.61133
2.6925	-1.61133
2.693	-4.02832
2.6935	-5.13611
2.694	-9.56726
2.6945	-3.42407
2.695	-9.36584
2.6955	-10.97717
2.696	-4.83398
2.6965	-1.10779
2.697	-3.92761
2.6975	-0.50354
2.698	-1.10779
2.6985	1.40991
2.699	-2.81982
2.6995	-4.12903
2.7	-8.25806
2.7005	-7.5531
2.701	-1.3092
2.7015	-8.66089
2.702	-3.52478
2.7025	-5.84106
2.703	-1.10779
2.7035	-5.0354
2.704	-0.90637
2.7045	4.43115
2.705	3.42407
2.7055	0.50354
2.706	-1.61133
2.7065	1.71204
2.707	3.32336
2.7075	10.97717
2.708	1.61133
2.7085	2.31628
2.709	2.61841
2.7095	1.51062
2.71	-1.81274
2.7105	2.21558
2.711	-4.33044
2.7115	-5.33752
2.712	-0.80566
2.7125	1.91345
2.713	2.61841
2.7135	0.10071
2.714	-1.51062
2.7145	1.81274
2.715	2.41699
2.7155	7.04956
2.716	3.92761
2.7165	-3.42407
2.717	4.93469
2.7175	-0.40283
2.718	-2.01416
2.7185	-1.40991
2.719	-4.02832
2.7195	0.70496
2.72	1.71204
2.7205	3.52478
2.721	4.12903
2.7215	1.81274
2.722	4.43115
2.7225	2.61841
2.723	-2.31628
2.7235	1.10779
2.724	-3.62549
2.7245	-3.7262
2.725	-2.92053
2.7255	0.10071
2.726	6.3446
2.7265	1.71204
2.727	0.10071
2.7275	-2.11487
2.728	-3.12195
2.7285	-1.81274
2.729	4.53186
2.7295	5.43823
2.73	0.30212
2.7305	2.5177
2.731	0.50354
2.7315	-2.41699
2.732	-5.84106
2.7325	-2.61841
2.733	-0.50354
2.7335	-3.12195
2.734	-4.33044
2.7345	-5.94177
2.735	-2.61841
2.7355	-0.70496
2.736	-0.40283
2.7365	1.00708
2.737	2.21558
2.7375	-6.54602
2.738	-6.64673
2.7385	-5.94177
2.739	-6.04248
2.7395	-2.11487
2.74	-8.05664
2.7405	-6.54602
2.741	-9.16443
2.7415	-14.50195
2.742	-7.15027
2.7425	-7.95593
2.743	-11.48071
2.7435	-10.67505
2.744	-9.06372
2.7445	-11.58142
2.745	-15.00549
2.7455	-13.59558
2.746	-13.89771
2.7465	-15.00549
2.747	-14.09912
2.7475	-8.56018
2.748	-11.2793
2.7485	-8.56018
2.749	-5.0354
2.7495	-7.35168
2.75	-10.87646
2.7505	-14.90479
2.751	-17.12036
2.7515	-8.35876
2.752	-7.65381
2.7525	-1.91345
2.753	-3.92761
2.7535	-5.33752
2.754	-11.88354
2.7545	-6.74744
2.755	-5.0354
2.7555	-4.83398
2.756	-3.02124
2.7565	2.11487
2.757	1.91345
2.7575	3.32336
2.758	-1.40991
2.7585	-3.22266
2.759	2.11487
2.7595	4.53186
2.76	7.65381
2.7605	3.02124
2.761	4.43115
2.7615	-1.3092
2.762	6.04248
2.7625	4.53186
2.763	5.84106
2.7635	8.05664
2.764	11.98425
2.7645	6.84814
2.765	10.87646
2.7655	9.36584
2.766	10.47363
2.7665	10.77576
2.767	10.0708
2.7675	10.87646
2.768	10.0708
2.7685	12.28638
2.769	12.08496
2.7695	12.38708
2.77	8.96301
2.7705	6.84814
2.771	11.38
2.7715	5.33752
2.772	13.09204
2.7725	13.99841
2.773	10.27222
2.7735	9.56726
2.774	8.56018
2.7745	6.64673
2.775	6.54602
2.7755	3.62549
2.776	-0.30212
2.7765	6.2439
2.777	6.3446
2.7775	3.52478
2.778	-2.81982
2.7785	-4.02832
2.779	-0.90637
2.7795	-8.35876
2.78	-5.63965
2.7805	-13.59558
2.781	-11.98425
2.7815	-4.33044
2.782	-6.94885
2.7825	-4.83398
2.783	-1.00708
2.7835	-1.71204
2.784	-6.44531
2.7845	-6.2439
2.785	1.81274
2.7855	-6.84814
2.786	-1.2085
2.7865	-2.61841
2.787	-4.22974
2.7875	2.01416
2.788	7.45239
2.7885	0.90637
2.789	4.73328
2.7895	-0.30212
2.79	-2.92053
2.7905	3.92761
2.791	4.02832
2.7915	3.8269
2.792	8.05664
2.7925	1.61133
2.793	-5.63965
2.7935	-1.91345
2.794	0.30212
2.7945	-0.60425
2.795	2.61841
2.7955	4.02832
2.796	3.02124
2.7965	5.53894
2.797	7.35168
2.7975	5.43823
2.798	5.23682
2.7985	3.62549
2.799	3.8269
2.7995	-1.00708
2.8	0.30212
2.8005	-2.31628
2.801	0.70496
2.8015	-1.2085
2.802	1.51062
2.8025	-10.57434
2.803	-4.83398
2.8035	-5.94177
2.804	1.51062
2.8045	4.33044
2.805	-0.90637
2.8055	4.43115
2.806	-5.84106
2.8065	-6.64673
2.807	0.60425
2.8075	-1.51062
2.808	1.40991
2.8085	-1.91345
2.809	-5.0354
2.8095	-8.05664
2.81	-5.43823
2.8105	-6.2439
2.811	-0.30212
2.8115	-2.21558
2.812	-1.2085
2.8125	0.10071
2.813	-0.50354
2.8135	-4.22974
2.814	-6.04248
2.8145	-2.41699
2.815	2.11487
2.8155	-1.51062
2.816	3.7262
2.8165	3.12195
2.817	-0.90637
2.8175	2.01416
2.818	2.31628
2.8185	-0.10071
2.819	1.81274
2.8195	5.43823
2.82	-1.51062
2.8205	1.10779
2.821	4.12903
2.8215	4.12903
2.822	2.11487
2.8225	4.12903
2.823	-2.21558
2.8235	0.70496
2.824	-2.92053
2.8245	0.40283
2.825	-5.0354
2.8255	-1.40991
2.826	-4.22974
2.8265	-4.02832
2.827	-1.71204
2.8275	0.80566
2.828	0.40283
2.8285	-1.2085
2.829	-2.31628
2.8295	-8.25806
2.83	-5.13611
2.8305	-2.31628
2.831	-1.00708
2.8315	-4.53186
2.832	-4.12903
2.8325	-5.23682
2.833	2.01416
2.8335	1.51062
2.834	4.02832
2.8345	-3.32336
2.835	-2.71912
2.8355	7.15027
2.836	-2.5177
2.8365	-2.21558
2.837	-4.22974
2.8375	-7.95593
2.838	-6.84814
2.8385	0.60425
2.839	-4.02832
2.8395	-0.80566
2.84	-8.7616
2.8405	-4.93469
2.841	-2.41699
2.8415	1.00708
2.842	-0.10071
2.8425	-3.92761
2.843	6.14319
2.8435	0.30212
2.844	1.10779
2.8445	-6.04248
2.845	-2.71912
2.8455	2.31628
2.846	2.11487
2.8465	0.30212
2.847	2.5177
2.8475	1.00708
2.848	3.92761
2.8485	4.22974
2.849	5.53894
2.8495	3.42407
2.85	1.00708
2.8505	2.71912
2.851	1.3092
2.8515	-0.10071
2.852	5.74036
2.8525	4.33044
2.853	3.12195
2.8535	1.2085
2.854	9.97009
2.8545	4.33044
2.855	6.64673
2.8555	4.22974
2.856	-0.30212
2.8565	4.02832
2.857	12.28638
2.8575	7.65381
2.858	4.73328
2.8585	5.0354
2.859	5.74036
2.8595	1.2085
2.86	-6.74744
2.8605	-3.62549
2.861	-2.31628
2.8615	-7.15027
2.862	-5.43823
2.8625	-6.94885
2.863	-4.22974
2.8635	-1.61133
2.864	-6.74744
2.8645	-6.84814
2.865	-7.25098
2.8655	-4.93469
2.866	-8.45947
2.8665	-3.8269
2.867	-3.22266
2.8675	-4.73328
2.868	-4.12903
2.8685	-1.81274
2.869	-6.94885
2.8695	-2.92053
2.87	-4.12903
2.8705	-6.3446
2.871	-9.66797
2.8715	-11.48071
2.872	-8.7616
2.8725	-9.26514
2.873	-4.43115
2.8735	-6.84814
2.874	1.91345
2.8745	1.40991
2.875	0.60425
2.8755	-1.00708
2.876	0.90637
2.8765	0.70496
2.877	2.61841
2.8775	-3.12195
2.878	-1.91345
2.8785	-3.92761
2.879	5.23682
2.8795	1.10779
2.88	-0.30212
2.8805	-0.90637
2.881	-0.60425
2.8815	-1.71204
2.882	-6.3446
2.8825	0.80566
2.883	3.12195
2.8835	2.31628
2.884	-1.40991
2.8845	2.81982
2.885	-1.71204
2.8855	3.02124
2.886	-3.42407
2.8865	2.41699
2.887	1.51062
2.8875	-1.40991
2.888	1.61133
2.8885	0
2.889	-0.60425
2.8895	5.53894
2.89	-2.5177
2.8905	-2.71912
2.891	-3.7262
2.8915	3.32336
2.892	-2.41699
2.8925	0.20142
2.893	6.84814
2.8935	8.45947
2.894	6.04248
2.8945	8.8623
2.895	4.63257
2.8955	6.14319
2.896	3.92761
2.8965	3.02124
2.897	3.02124
2.8975	-0.10071
2.898	-0.70496
2.8985	-0.40283
2.899	-3.92761
2.8995	-0.70496
2.9	-0.30212
2.9005	3.32336
2.901	-2.31628
2.9015	2.5177
2.902	-3.7262
2.9025	-2.81982
2.903	-1.51062
2.9035	1.51062
2.904	-0.70496
2.9045	-2.5177
2.905	-0.10071
2.9055	1.00708
2.906	-2.71912
2.9065	-7.35168
2.907	-3.22266
2.9075	-4.02832
2.908	-3.62549
2.9085	-7.45239
2.909	-0.50354
2.9095	-2.81982
2.91	-4.73328
2.9105	-2.92053
2.911	-5.84106
2.9115	-6.94885
2.912	-11.17859
2.9125	-6.44531
2.913	-8.8623
2.9135	-3.42407
2.914	-13.69629
2.9145	-10.47363
2.915	-10.47363
2.9155	-4.02832
2.916	-0.70496
2.9165	0.60425
2.917	0.70496
2.9175	4.12903
2.918	6.84814
2.9185	10.37292
2.919	12.18567
2.9195	16.91895
2.92	16.61682
2.9205	24.06921
2.921	14.50195
2.9215	17.22107
2.922	9.66797
2.9225	6.94885
2.923	8.8623
2.9235	6.04248
2.924	1.51062
2.9245	-3.92761
2.925	-3.52478
2.9255	-4.93469
2.926	-3.92761
2.9265	-3.52478
2.927	-6.2439
2.9275	-10.37292
2.928	-16.3147
2.9285	-15.71045
2.929	-18.53027
2.9295	-18.32886
2.93	-20.84656
2.9305	-12.08496
2.931	-11.58142
2.9315	-10.97717
2.932	-6.2439
2.9325	-3.52478
2.933	8.66089
2.9335	18.8324
2.934	22.25647
2.9345	24.67346
2.935	29.80957
2.9355	24.97559
2.936	30.61523
2.9365	24.27063
2.937	22.55859
2.9375	23.46497
2.938	28.19824
2.9385	26.88904
2.939	22.25647
2.9395	22.55859
2.94	17.12036
2.9405	8.05664
2.941	4.12903
2.9415	-10.0708
2.942	-13.89771
2.9425	-20.94727
2.943	-28.80249
2.9435	-34.24072
2.944	-47.63489
2.9445	-46.92993
2.945	-49.14551
2.9455	-57.20215
2.946	-45.82214
2.9465	-42.19666
2.947	-34.34143
2.9475	-24.77417
2.948	-21.55151
2.9485	-15.60974
2.949	-7.75452
2.9495	-6.84814
2.95	-6.84814
2.9505	-7.65381
2.951	-9.06372
2.9515	-7.5531
2.952	-0.10071
2.9525	4.93469
2.953	4.02832
2.9535	4.43115
2.954	7.65381
2.9545	6.2439
2.955	10.37292
2.9555	7.75452
2.956	7.35168
2.9565	1.3092
2.957	0.10071
2.9575	1.40991
2.958	3.92761
2.9585	3.92761
2.959	8.35876
2.9595	3.22266
2.96	4.53186
2.9605	6.74744
2.961	4.43115
2.9615	6.54602
2.962	9.16443
2.9625	6.74744
2.963	1.2085
2.9635	4.83398
2.964	1.00708
2.9645	3.62549
2.965	2.31628
2.9655	7.35168
2.966	8.66089
2.9665	13.59558
2.967	5.23682
2.9675	3.7262
2.968	4.63257
2.9685	-1.71204
2.969	1.2085
2.9695	-3.22266
2.97	-1.51062
2.9705	-4.83398
2.971	-1.00708
2.9715	-4.43115
2.972	-3.7262
2.9725	-6.64673
2.973	-2.5177
2.9735	-2.01416
2.974	-0.90637
2.9745	-4.33044
2.975	-0.60425
2.9755	0.60425
2.976	-1.3092
2.9765	2.71912
2.977	9.66797
2.9775	21.65222
2.978	36.05347
2.9785	42.90161
2.979	45.92285
2.9795	41.69312
2.98	36.25488
2.9805	32.42798
2.981	22.86072
2.9815	14.90479
2.982	1.51062
2.9825	-3.42407
2.983	-1.40991
2.9835	0.80566
2.984	-0.10071
2.9845	4.12903
2.985	6.64673
2.9855	10.47363
2.986	12.89062
2.9865	14.40125
2.987	10.87646
2.9875	2.81982
2.988	-11.2793
2.9885	-17.32178
2.989	-13.49487
2.9895	-12.38708
2.99	-12.28638
2.9905	-0.60425
2.991	-1.40991
2.9915	-0.20142
2.992	4.12903
2.9925	-2.11487
2.993	-2.41699
2.9935	-13.39417
2.994	-25.07629
2.9945	-25.68054
2.995	-42.49878
2.9955	-41.08887
2.996	-46.5271
2.9965	-45.62073
2.997	-41.39099
2.9975	-38.47046
2.998	-42.8009
2.9985	-42.29736
2.999	-31.52161
2.9995	-32.83081
3	-30.71594
3.0005	-18.12744
3.001	-11.07788
3.0015	-6.04248
3.002	6.94885
3.0025	22.55859
3.003	31.21948
3.0035	45.92285
3.004	57.8064
3.0045	63.04321
3.005	69.28711
3.0055	66.6687
3.006	64.95667
3.0065	49.74976
3.007	35.85205
3.0075	27.79541
3.008	6.14319
3.0085	-10.27222
3.009	-23.56567
3.0095	-37.36267
3.01	-45.2179
3.0105	-57.60498
3.011	-64.35242
3.0115	-67.67578
3.012	-62.8418
3.0125	-64.65454
3.013	-58.91418
3.0135	-47.93701
3.014	-42.90161
3.0145	-31.4209
3.015	-32.52869
3.0155	-23.26355
3.016	-22.25647
3.0165	-15.20691
3.017	-2.92053
3.0175	5.23682
3.018	10.0708
3.0185	12.68921
3.019	4.02832
3.0195	10.27222
3.02	20.74585
3.0205	30.31311
3.021	35.14709
3.0215	34.54285
3.022	49.74976
3.0225	90.43579
3.023	126.08643
3.0235	152.67334
3.024	161.13281
3.0245	156.70166
3.025	153.57971
3.0255	131.42395
3.026	99.90234
3.0265	63.74817
3.027	23.16284
3.0275	-17.22107
3.028	-66.06445
3.0285	-108.76465
3.029	-132.0282
3.0295	-151.96838
3.03	-158.31299
3.0305	-159.7229
3.031	-151.36414
3.0315	-130.41687
3.032	-106.54907
3.0325	-78.45154
3.033	-64.05029
3.0335	-41.89453
3.034	-18.12744
3.0345	1.51062
3.035	14.30054
3.0355	22.35718
3.036	35.65063
3.0365	41.18958
3.037	46.42639
3.0375	37.56409
3.038	39.57825
3.0385	27.29187
3.039	24.37134
3.0395	22.76001
3.04	13.49487
3.0405	10.57434
3.041	8.35876
3.0415	0.10071
3.042	-4.43115
3.0425	-12.28638
3.043	-16.3147
3.0435	-20.64514
3.044	-24.67346
3.0445	-29.60815
3.045	-32.42798
3.0455	-25.78125
3.046	-24.77417
3.0465	-18.93311
3.047	-15.60974
3.0475	-10.47363
3.048	0.10071
3.0485	-2.21558
3.049	7.45239
3.0495	0.10071
3.05	3.42407
3.0505	11.48071
3.051	18.42957
3.0515	18.12744
3.052	27.39258
3.0525	26.98975
3.053	29.70886
3.0535	26.88904
3.054	28.70178
3.0545	30.2124
3.055	18.63098
3.0555	14.50195
3.056	9.36584
3.0565	1.71204
3.057	-2.61841
3.0575	-8.45947
3.058	-9.16443
3.0585	-8.25806
3.059	3.42407
3.0595	5.43823
3.06	7.65381
3.0605	8.35876
3.061	14.90479
3.0615	15.1062
3.062	20.24231
3.0625	21.95435
3.063	19.43665
3.0635	38.57117
3.064	46.82922
3.0645	49.14551
3.065	47.03064
3.0655	47.8363
3.066	47.7356
3.0665	42.7002
3.067	51.36108
3.0675	53.07312
3.068	62.74109
3.0685	61.02905
3.069	49.74976
3.0695	37.16125
3.07	21.55151
3.0705	7.15027
3.071	-19.03381
3.0715	-33.43506
3.072	-46.02356
3.0725	-52.26746
3.073	-50.05188
3.0735	-52.67029
3.074	-52.36816
3.0745	-49.0448
3.075	-49.14551
3.0755	-48.23914
3.076	-39.77966
3.0765	-33.53577
3.077	-26.78833
3.0775	-16.11328
3.078	-6.3446
3.0785	-3.52478
3.079	-11.48071
3.0795	-2.5177
3.08	-7.35168
3.0805	-9.26514
3.081	-12.78992
3.0815	-19.73877
3.082	-9.97009
3.0825	-6.74744
3.083	-2.31628
3.0835	0.90637
3.084	-3.52478
3.0845	-1.71204
3.085	-6.64673
3.0855	-7.5531
3.086	-3.32336
3.0865	-7.5531
3.087	-13.99841
3.0875	-16.61682
3.088	-19.43665
3.0885	-26.28479
3.089	-23.8678
3.0895	-18.53027
3.09	-10.57434
3.0905	0.80566
3.091	9.36584
3.0915	10.77576
3.092	12.89062
3.0925	9.76868
3.093	11.48071
3.0935	10.77576
3.094	10.17151
3.0945	12.99133
3.095	7.25098
3.0955	9.16443
3.096	5.33752
3.0965	4.22974
3.097	-4.02832
3.0975	-11.88354
3.098	-19.13452
3.0985	-24.67346
3.099	-20.74585
3.0995	-21.65222
3.1	-23.56567
3.1005	-28.19824
3.101	-22.15576
3.1015	-14.90479
3.102	-12.18567
3.1025	1.40991
3.103	18.73169
3.1035	23.56567
3.104	31.21948
3.1045	26.3855
3.105	32.12585
3.1055	21.95435
3.106	20.74585
3.1065	24.06921
3.107	45.92285
3.1075	68.88428
3.108	79.76074
3.1085	77.44446
3.109	65.25879
3.1095	53.77808
3.11	42.8009
3.1105	47.7356
3.111	47.03064
3.1115	44.81506
3.112	24.77417
3.1125	4.22974
3.113	-10.77576
3.1135	-28.50037
3.114	-41.39099
3.1145	-52.46887
3.115	-67.47437
3.1155	-78.04871
3.116	-85.90393
3.1165	-87.01172
3.117	-79.55933
3.1175	-69.79065
3.118	-34.34143
3.1185	-14.40125
3.119	6.44531
3.1195	6.54602
3.12	16.3147
3.1205	15.81116
3.121	20.44373
3.1215	14.30054
3.122	5.53894
3.1225	-5.74036
3.123	-21.3501
3.1235	-27.6947
3.124	-33.03223
3.1245	-36.05347
3.125	-36.35559
3.1255	-44.21082
3.126	-36.55701
3.1265	-33.33435
3.127	-23.8678
3.1275	-20.34302
3.128	-22.15576
3.1285	-15.60974
3.129	-14.80408
3.1295	-14.19983
3.13	-8.45947
3.1305	-3.12195
3.131	9.16443
3.1315	10.0708
3.132	8.7616
3.1325	10.27222
3.133	14.30054
3.1335	16.61682
3.134	17.32178
3.1345	20.34302
3.135	11.78284
3.1355	7.04956
3.136	9.16443
3.1365	1.00708
3.137	0.30212
3.1375	-4.83398
3.138	-2.61841
3.1385	-8.05664
3.139	-13.69629
3.1395	-8.45947
3.14	-1.10779
3.1405	1.3092
3.141	7.75452
3.1415	10.27222
3.142	12.38708
3.1425	3.22266
3.143	6.64673
3.1435	3.92761
3.144	8.66089
3.1445	19.33594
3.145	20.04089
3.1455	10.37292
3.146	14.40125
3.1465	12.78992
3.147	5.13611
3.1475	3.52478
3.148	8.35876
3.1485	5.94177
3.149	0.80566
3.1495	3.92761
3.15	1.00708
3.1505	3.02124
3.151	4.93469
3.1515	9.76868
3.152	17.92603
3.1525	47.93701
3.153	56.69861
3.1535	66.76941
3.154	65.96375
3.1545	55.69153
3.155	47.33276
3.1555	31.01807
3.156	24.47205
3.1565	9.97009
3.157	-5.13611
3.1575	-24.87488
3.158	-29.91028
3.1585	3.7262
3.159	41.18958
3.1595	63.24463
3.16	69.79065
3.1605	69.99207
3.161	67.17224
3.1615	69.68994
3.162	62.74109
3.1625	37.86621
3.163	11.48071
3.1635	-10.17151
3.164	-29.20532
3.1645	-44.41223
3.165	-49.34692
3.1655	-49.44763
3.166	-46.82922
3.1665	-42.49878
3.167	-18.8324
3.1675	11.78284
3.168	48.13843
3.1685	57.30286
3.169	47.43347
3.1695	29.00391
3.17	24.87488
3.1705	31.01807
3.171	35.54993
3.1715	25.07629
3.172	15.91187
3.1725	-6.84814
3.173	-41.69312
3.1735	-64.55383
3.174	-81.67419
3.1745	-97.48535
3.175	-109.77173
3.1755	-106.34766
3.176	-88.0188
3.1765	-65.15808
3.177	-41.89453
3.1775	-24.27063
3.178	-13.69629
3.1785	-10.67505
3.179	-5.63965
3.1795	-2.92053
3.18	-2.41699
3.1805	9.06372
3.181	3.12195
3.1815	-6.2439
3.182	-29.50745
3.1825	-32.12585
3.183	-25.68054
3.1835	-24.06921
3.184	-27.19116
3.1845	-27.89612
3.185	-21.45081
3.1855	-22.05505
3.186	-20.04089
3.1865	-23.76709
3.187	-16.21399
3.1875	-5.84106
3.188	-0.30212
3.1885	3.52478
3.189	11.38
3.1895	17.22107
3.19	17.52319
3.1905	16.11328
3.191	10.97717
3.1915	10.97717
3.192	9.86938
3.1925	8.45947
3.193	4.83398
3.1935	1.2085
3.194	11.68213
3.1945	7.5531
3.195	1.00708
3.1955	1.71204
3.196	0.50354
3.1965	0
3.197	-2.61841
3.1975	-5.63965
3.198	-6.14319
3.1985	-2.41699
3.199	-7.5531
3.1995	-6.2439
3.2	0.40283
3.2005	14.70337
3.201	27.99683
3.2015	27.99683
3.202	35.14709
3.2025	40.98816
3.203	33.63647
3.2035	37.26196
3.204	30.81665
3.2045	26.48621
3.205	19.94019
3.2055	9.06372
3.206	3.7262
3.2065	-2.11487
3.207	-6.94885
3.2075	-13.09204
3.208	-15.50903
3.2085	-20.94727
3.209	-16.51611
3.2095	-16.21399
3.21	-13.99841
3.2105	-14.90479
3.211	-11.98425
3.2115	-16.41541
3.212	-16.61682
3.2125	-15.91187
3.213	-14.19983
3.2135	-11.88354
3.214	-11.48071
3.2145	-12.48779
3.215	-6.54602
3.2155	-5.84106
3.216	-5.43823
3.2165	-2.92053
3.217	3.12195
3.2175	14.80408
3.218	38.974
3.2185	45.3186
3.219	56.5979
3.2195	57.30286
3.22	55.2887
3.2205	93.65845
3.221	160.32715
3.2215	188.12256
3.222	191.64734
3.2225	166.47034
3.223	138.3728
3.2235	93.35632
3.224	48.64197
3.2245	-3.62549
3.225	-54.78516
3.2255	-95.26978
3.226	-133.94165
3.2265	-155.69458
3.227	-167.47742
3.2275	-174.8291
3.228	-169.18945
3.2285	-151.06201
3.229	-132.0282
3.2295	-97.58606
3.23	-72.81189
3.2305	-52.97241
3.231	-41.79382
3.2315	-35.75134
3.232	-27.49329
3.2325	-19.53735
3.233	-8.56018
3.2335	6.64673
3.234	18.8324
3.2345	24.47205
3.235	14.80408
3.2355	13.49487
3.236	17.01965
3.2365	11.07788
3.237	5.94177
3.2375	2.5177
3.238	1.91345
3.2385	2.01416
3.239	6.84814
3.2395	7.45239
3.24	10.0708
3.2405	7.45239
3.241	10.0708
3.2415	4.53186
3.242	0
3.2425	1.10779
3.243	-0.30212
3.2435	-0.70496
3.244	6.64673
3.2445	24.27063
3.245	47.13135
3.2455	63.34534
3.246	96.67969
3.2465	132.53174
3.247	156.39954
3.2475	167.17529
3.248	178.95813
3.2485	179.36096
3.249	145.22095
3.2495	120.54749
3.25	105.84412
3.2505	96.67969
3.251	72.61047
3.2515	21.85364
3.252	-20.74585
3.2525	-60.02197
3.253	-98.49243
3.2535	-114.20288
3.254	-124.07227
3.2545	-141.29333
3.255	-165.36255
3.2555	-173.11707
3.256	-183.18787
3.2565	-166.0675
3.257	-143.00537
3.2575	-114.30359
3.258	-88.82446
3.2585	-72.61047
3.259	-55.89294
3.2595	-39.57825
3.26	-32.62939
3.2605	-33.63647
3.261	-39.27612
3.2615	-41.39099
3.262	-40.58533
3.2625	-36.15417
3.263	-29.40674
3.2635	-22.86072
3.264	-15.40833
3.2645	-7.35168
3.265	7.15027
3.2655	16.51611
3.266	32.93152
3.2665	58.51135
3.267	80.56641
3.2675	81.67419
3.268	74.62463
3.2685	77.948
3.269	65.3595
3.2695	63.34534
3.27	39.37683
3.2705	27.19116
3.271	11.48071
3.2715	-0.40283
3.272	6.3446
3.2725	9.46655
3.273	11.88354
3.2735	12.18567
3.274	15.1062
3.2745	12.5885
3.275	10.87646
3.2755	11.58142
3.276	29.20532
3.2765	39.07471
3.277	39.88037
3.2775	27.39258
3.278	7.5531
3.2785	-11.2793
3.279	-24.47205
3.2795	-35.75134
3.28	-42.09595
3.2805	-39.07471
3.281	-36.95984
3.2815	-28.80249
3.282	-24.57275
3.2825	-29.40674
3.283	-34.03931
3.2835	-24.06921
3.284	-13.99841
3.2845	-8.35876
3.285	-5.33752
3.2855	-13.29346
3.286	-13.09204
3.2865	-14.40125
3.287	-9.76868
3.2875	-3.12195
3.288	-0.70496
3.2885	1.00708
3.289	-0.40283
3.2895	-7.65381
3.29	-6.44531
3.2905	-12.78992
3.291	-9.56726
3.2915	-4.43115
3.292	-0.20142
3.2925	2.92053
3.293	2.21558
3.2935	12.5885
3.294	23.26355
3.2945	46.02356
3.295	63.04321
3.2955	66.06445
3.296	62.64038
3.2965	53.77808
3.297	41.69312
3.2975	27.79541
3.298	15.60974
3.2985	-0.80566
3.299	-18.02673
3.2995	-24.47205
3.3	-39.57825
3.3005	-47.03064
3.301	-50.95825
3.3015	-51.46179
3.302	-46.12427
3.3025	-37.66479
3.303	-27.79541
3.3035	-18.12744
3.304	-7.5531
3.3045	-0.90637
3.305	-6.14319
3.3055	-3.8269
3.306	-5.53894
3.3065	1.81274
3.307	-5.33752
3.3075	-11.07788
3.308	-12.78992
3.3085	-17.32178
3.309	-19.23523
3.3095	-13.59558
3.31	-8.66089
3.3105	0.50354
3.311	-5.0354
3.3115	-5.53894
3.312	-11.98425
3.3125	-12.5885
3.313	-6.14319
3.3135	-9.56726
3.314	-12.18567
3.3145	-10.37292
3.315	-11.17859
3.3155	-7.95593
3.316	-3.12195
3.3165	0.20142
3.317	0.30212
3.3175	3.92761
3.318	29.70886
3.3185	91.64429
3.319	176.13831
3.3195	225.48523
3.32	234.75037
3.3205	230.21851
3.321	216.22009
3.3215	174.72839
3.322	120.84961
3.3225	59.31702
3.323	-7.95593
3.3235	-59.41772
3.324	-118.63403
3.3245	-165.86609
3.325	-191.64734
3.3255	-209.27124
3.326	-213.60168
3.3265	-203.02734
3.327	-189.83459
3.3275	-177.74963
3.328	-160.32715
3.3285	-137.96997
3.329	-115.91492
3.3295	-101.21155
3.33	-77.34375
3.3305	-54.28162
3.331	-30.61523
3.3315	-1.3092
3.332	10.17151
3.3325	22.6593
3.333	40.88745
3.3335	37.66479
3.334	55.3894
3.3345	65.86304
3.335	69.48853
3.3355	62.03613
3.336	51.96533
3.3365	37.66479
3.337	58.71277
3.3375	102.92358
3.338	157.70874
3.3385	187.82043
3.339	200.10681
3.3395	187.01477
3.34	162.54272
3.3405	136.05652
3.341	118.93616
3.3415	84.89685
3.342	40.78674
3.3425	-10.87646
3.343	-53.07312
3.3435	-96.98181
3.344	-124.57581
3.3445	-124.4751
3.345	-128.70483
3.3455	-133.03528
3.346	-141.99829
3.3465	-141.89758
3.347	-132.83386
3.3475	-131.62537
3.348	-119.74182
3.3485	-98.59314
3.349	-76.7395
3.3495	-58.41064
3.35	-37.66479
3.3505	-23.8678
3.351	-17.01965
3.3515	-16.41541
3.352	-3.12195
3.3525	1.00708
3.353	6.3446
3.3535	9.36584
3.354	7.5531
3.3545	-2.71912
3.355	6.54602
3.3555	17.82532
3.356	34.94568
3.3565	49.44763
3.357	61.83472
3.3575	75.22888
3.358	83.58765
3.3585	78.45154
3.359	62.13684
3.3595	49.24622
3.36	58.00781
3.3605	73.91968
3.361	78.75366
3.3615	60.72693
3.362	44.51294
3.3625	16.81824
3.363	-3.8269
3.3635	-17.6239
3.364	-28.29895
3.3645	-4.73328
3.365	16.51611
3.3655	16.41541
3.366	10.97717
3.3665	-2.41699
3.367	-13.89771
3.3675	-23.96851
3.368	-26.08337
3.3685	-31.21948
3.369	-49.54834
3.3695	-49.74976
3.37	-38.47046
3.3705	-23.8678
3.371	3.12195
3.3715	21.3501
3.372	24.67346
3.3725	25.57983
3.373	18.53027
3.3735	29.50745
3.374	54.0802
3.3745	78.95508
3.375	79.55933
3.3755	65.46021
3.376	54.98657
3.3765	72.61047
3.377	86.00464
3.3775	68.88428
3.378	30.51453
3.3785	-5.84106
3.379	-40.48462
3.3795	-68.48145
3.38	-88.32092
3.3805	-93.55774
3.381	-81.37207
3.3815	-61.6333
3.382	-45.82214
3.3825	-26.48621
3.383	-31.32019
3.3835	-38.16833
3.384	-40.58533
3.3845	-56.90002
3.385	-63.24463
3.3855	-75.53101
3.386	-78.14941
3.3865	-82.47986
3.387	-82.68127
3.3875	-76.7395
3.388	-58.81348
3.3885	-39.37683
3.389	-23.46497
3.3895	-19.03381
3.39	-14.70337
3.3905	-7.95593
3.391	-5.74036
3.3915	4.53186
3.392	35.04639
3.3925	59.51843
3.393	72.71118
3.3935	73.21472
3.394	77.54517
3.3945	94.2627
3.395	92.95349
3.3955	78.65295
3.396	60.4248
3.3965	40.38391
3.397	14.90479
3.3975	-12.78992
3.398	-28.70178
3.3985	-43.50586
3.399	-58.41064
3.3995	-39.88037
3.4	3.92761
3.4005	40.08179
3.401	68.68286
3.4015	100.90942
3.402	185.50415
3.4025	258.41675
3.403	271.81091
3.4035	255.2948
3.404	209.67407
3.4045	185.50415
3.405	160.52856
3.4055	113.69934
3.406	42.59949
3.4065	-36.65771
3.407	-113.49792
3.4075	-176.84326
3.408	-233.23975
3.4085	-273.42224
3.409	-291.34827
3.4095	-280.27039
3.41	-271.10596
3.4105	-254.38843
3.411	-228.50647
3.4115	-186.1084
3.412	-135.35156
3.4125	-100.40588
3.413	-60.52551
3.4135	-25.27771
3.414	-2.5177
3.4145	3.42407
3.415	11.2793
3.4155	33.73718
3.416	91.34216
3.4165	140.99121
3.417	148.94714
3.4175	155.896
3.418	162.54272
3.4185	156.90308
3.419	180.46875
3.4195	263.85498
3.42	320.6543
3.4205	302.22473
3.421	239.88647
3.4215	157.2052
3.422	72.50977
3.4225	-11.58142
3.423	-93.96057
3.4235	-172.61353
3.424	-229.81567
3.4245	-287.52136
3.425	-307.66296
3.4255	-310.5835
3.426	-288.0249
3.4265	-264.0564
3.427	-228.40576
3.4275	-183.69141
3.428	-134.04236
3.4285	-91.54358
3.429	-62.53967
3.4295	-30.51453
3.43	-4.63257
3.4305	19.03381
3.431	33.9386
3.4315	48.74268
3.432	45.2179
3.4325	31.82373
3.433	71.09985
3.4335	148.4436
3.434	187.71973
3.4345	185.60486
3.435	177.64893
3.4355	149.45068
3.436	125.88501
3.4365	83.48694
3.437	35.14709
3.4375	-4.33044
3.438	-45.01648
3.4385	-85.19897
3.439	-114.00146
3.4395	-128.80554
3.44	-133.3374
3.4405	-128.60413
3.441	-112.39014
3.4415	-91.64429
3.442	-72.9126
3.4425	-50.65613
3.443	-24.87488
3.4435	45.52002
3.444	103.62854
3.4445	138.3728
3.445	166.36963
3.4455	160.72998
3.446	145.32166
3.4465	133.43811
3.447	107.35474
3.4475	70.79773
3.448	33.03223
3.4485	-6.3446
3.449	-41.69312
3.4495	-66.46729
3.45	-80.66711
3.4505	-92.04712
3.451	-99.90234
3.4515	-110.47668
3.452	-112.28943
3.4525	-96.67969
3.453	-79.15649
3.4535	-73.51685
3.454	-30.61523
3.4545	31.52161
3.455	92.85278
3.4555	147.63794
3.456	160.83069
3.4565	151.56555
3.457	126.58997
3.4575	95.5719
3.458	77.24304
3.4585	67.97791
3.459	48.74268
3.4595	19.43665
3.46	-19.33594
3.4605	-56.69861
3.461	-80.96924
3.4615	-89.52942
3.462	-82.07703
3.4625	-76.43738
3.463	-68.68286
3.4635	-82.27844
3.464	-92.85278
3.4645	-92.14783
3.465	-92.34924
3.4655	-89.12659
3.466	-83.88977
3.4665	-82.9834
3.467	-88.72375
3.4675	-99.80164
3.468	-94.56482
3.4685	-83.48694
3.469	-67.67578
3.4695	-44.71436
3.47	-19.83948
3.4705	-2.81982
3.471	6.84814
3.4715	10.17151
3.472	19.13452
3.4725	24.37134
3.473	31.62231
3.4735	32.42798
3.474	40.68604
3.4745	47.53418
3.475	51.76392
3.4755	59.92126
3.476	75.12817
3.4765	110.07385
3.477	130.71899
3.4775	132.63245
3.478	115.7135
3.4785	86.70959
3.479	52.8717
3.4795	12.68921
3.48	-18.63098
3.4805	-50.05188
3.481	-70.69702
3.4815	-71.7041
3.482	-77.44446
3.4825	-82.88269
3.483	-82.9834
3.4835	-72.10693
3.484	-51.5625
3.4845	-9.56726
3.485	33.43506
3.4855	48.23914
3.486	49.24622
3.4865	42.8009
3.487	37.7655
3.4875	26.88904
3.488	21.24939
3.4885	-0.60425
3.489	-21.24939
3.4895	-42.39807
3.49	-46.32568
3.4905	-52.771
3.491	-60.62622
3.4915	-56.29578
3.492	-47.53418
3.4925	-1.71204
3.493	46.42639
3.4935	67.97791
3.494	72.20764
3.4945	77.04163
3.495	95.5719
3.4955	122.86377
3.496	132.93457
3.4965	128.60413
3.497	102.42004
3.4975	95.5719
3.498	118.73474
3.4985	158.71582
3.499	191.44592
3.4995	236.76453
3.5	232.93762
3.5005	202.4231
3.501	153.98254
3.5015	79.05579
3.502	-4.12903
3.5025	-73.41614
3.503	-144.81812
3.5035	-204.84009
3.504	-249.45374
3.5045	-285.20508
3.505	-306.8573
3.5055	-310.07996
3.506	-285.40649
3.5065	-246.13037
3.507	-198.99902
3.5075	-160.72998
3.508	-130.01404
3.5085	-84.59473
3.509	-13.99841
3.5095	118.83545
3.51	231.72913
3.5105	284.39941
3.511	265.66772
3.5115	231.52771
3.512	185.50415
3.5125	136.76147
3.513	71.50269
3.5135	7.35168
3.514	-47.8363
3.5145	-103.02429
3.515	-149.34998
3.5155	-179.8645
3.516	-199.50256
3.5165	-200.91248
3.517	-187.61902
3.5175	-173.5199
3.518	-156.50024
3.5185	-121.45386
3.519	-89.52942
3.5195	-64.151
3.52	-25.57983
3.5205	10.0708
3.521	32.83081
3.5215	41.39099
3.522	30.91736
3.5225	18.8324
3.523	13.39417
3.5235	12.89062
3.524	15.40833
3.5245	10.57434
3.525	-0.40283
3.5255	-0.10071
3.526	2.5177
3.5265	5.43823
3.527	3.52478
3.5275	-0.70496
3.528	4.93469
3.5285	3.12195
3.529	-4.63257
3.5295	9.46655
3.53	42.29736
3.5305	95.77332
3.531	127.59705
3.5315	162.13989
3.532	188.82751
3.5325	198.29407
3.533	180.77087
3.5335	157.30591
3.534	119.54041
3.5345	71.40198
3.535	31.82373
3.5355	-13.09204
3.536	-59.71985
3.5365	-111.08093
3.537	-154.6875
3.5375	-177.54822
3.538	-191.64734
3.5385	-176.64185
3.539	-157.00378
3.5395	-141.09192
3.54	-113.69934
3.5405	-91.54358
3.541	-0.60425
3.5415	153.78113
3.542	273.12012
3.5425	338.2782
3.543	366.87927
3.5435	409.88159
3.544	437.17346
3.5445	400.11292
3.545	317.93518
3.5455	207.65991
3.546	94.06128
3.5465	-10.67505
3.547	-96.07544
3.5475	-155.69458
3.548	-224.67957
3.5485	-281.37817
3.549	-327.20032
3.5495	-352.98157
3.55	-348.04688
3.5505	-317.33093
3.551	-278.96118
3.5515	-232.53479
3.552	-179.26025
3.5525	-135.55298
3.553	-105.6427
3.5535	-82.07703
3.554	-64.85596
3.5545	-54.78516
3.555	-44.91577
3.5555	-13.29346
3.556	3.02124
3.5565	21.14868
3.557	32.22656
3.5575	37.86621
3.558	38.77258
3.5585	31.92444
3.559	17.42249
3.5595	-2.01416
3.56	-21.3501
3.5605	-34.74426
3.561	-16.81824
3.5615	2.81982
3.562	17.52319
3.5625	28.70178
3.563	31.52161
3.5635	31.11877
3.564	34.94568
3.5645	36.65771
3.565	21.75293
3.5655	17.32178
3.566	10.27222
3.5665	5.33752
3.567	21.24939
3.5675	32.22656
3.568	39.37683
3.5685	38.974
3.569	32.22656
3.5695	28.60107
3.57	43.90869
3.5705	51.26038
3.571	53.77808
3.5715	41.59241
3.572	30.51453
3.5725	17.22107
3.573	-0.90637
3.5735	-20.74585
3.574	-40.08179
3.5745	-43.40515
3.575	-54.88586
3.5755	-57.70569
3.576	-61.83472
3.5765	-56.5979
3.577	-47.03064
3.5775	-17.72461
3.578	-1.00708
3.5785	13.69629
3.579	18.22815
3.5795	16.91895
3.58	9.06372
3.5805	5.43823
3.581	3.8269
3.5815	2.61841
3.582	-12.38708
3.5825	-28.39966
3.583	-47.63489
3.5835	-52.16675
3.584	-50.85754
3.5845	-45.82214
3.585	-36.85913
3.5855	-29.60815
3.586	-23.76709
3.5865	-23.96851
3.587	-4.43115
3.5875	4.93469
3.588	13.797
3.5885	20.1416
3.589	11.48071
3.5895	12.48779
3.59	12.68921
3.5905	15.91187
3.591	17.42249
3.5915	10.57434
3.592	9.76868
3.5925	9.16443
3.593	11.78284
3.5935	8.45947
3.594	4.63257
3.5945	4.02832
3.595	4.73328
3.5955	2.61841
3.596	3.02124
3.5965	1.71204
3.597	6.94885
3.5975	37.7655
3.598	72.00623
3.5985	89.63013
3.599	95.06836
3.5995	105.84412
3.6	100.70801
3.6005	86.00464
3.601	63.54675
3.6015	40.08179
3.602	8.15735
3.6025	-15.71045
3.603	-33.63647
3.6035	-58.71277
3.604	-52.46887
3.6045	-30.61523
3.605	-6.94885
3.6055	-3.42407
3.606	9.97009
3.6065	31.72302
3.607	92.24854
3.6075	212.4939
3.608	315.11536
3.6085	344.21997
3.609	322.46704
3.6095	259.82666
3.61	177.74963
3.6105	83.58765
3.611	-8.66089
3.6115	-109.97314
3.612	-187.21619
3.6125	-250.2594
3.613	-307.56226
3.6135	-333.74634
3.614	-334.24988
3.6145	-314.20898
3.615	-279.46472
3.6155	-235.75745
3.616	-206.35071
3.6165	-166.16821
3.617	-114.00146
3.6175	-48.74268
3.618	25.27771
3.6185	73.11401
3.619	91.64429
3.6195	83.38623
3.62	59.21631
3.6205	37.36267
3.621	16.81824
3.6215	-4.53186
3.622	-17.72461
3.6225	-31.62231
3.623	-48.74268
3.6235	-61.93542
3.624	-60.02197
3.6245	-53.37524
3.625	-35.95276
3.6255	-21.3501
3.626	-3.92761
3.6265	40.38391
3.627	92.44995
3.6275	123.97156
3.628	137.76855
3.6285	132.43103
3.629	119.94324
3.6295	106.44836
3.63	95.77332
3.6305	75.02747
3.631	51.05896
3.6315	27.59399
3.632	-5.94177
3.6325	-32.7301
3.633	-47.7356
3.6335	-76.63879
3.634	-93.0542
3.6345	-92.14783
3.635	-76.84021
3.6355	-63.54675
3.636	-50.95825
3.6365	-39.17542
3.637	-30.81665
3.6375	-6.2439
3.638	13.69629
3.6385	42.90161
3.639	65.86304
3.6395	90.33508
3.64	100.40588
3.6405	92.24854
3.641	88.22021
3.6415	76.03455
3.642	65.25879
3.6425	46.72852
3.643	13.19275
3.6435	-24.47205
3.644	-43.20374
3.6445	-60.62622
3.645	-72.00623
3.6455	-91.8457
3.646	-115.51208
3.6465	-127.69775
3.647	-121.35315
3.6475	-118.63403
3.648	-109.4696
3.6485	-85.5011
3.649	-64.85596
3.6495	-43.30444
3.65	-23.06213
3.6505	-11.68213
3.651	5.74036
3.6515	23.66638
3.652	36.55701
3.6525	41.08887
3.653	76.43738
3.6535	122.66235
3.654	125.07935
3.6545	118.73474
3.655	114.60571
3.6555	118.73474
3.656	106.34766
3.6565	82.9834
3.657	60.3241
3.6575	25.27771
3.658	-0.40283
3.6585	-35.65063
3.659	-60.52551
3.6595	-75.02747
3.66	-86.30676
3.6605	-94.76624
3.661	-95.5719
3.6615	-88.72375
3.662	-69.28711
3.6625	-54.68445
3.663	-45.52002
3.6635	-27.29187
3.664	-7.75452
3.6645	-1.61133
3.665	-2.11487
3.6655	-4.02832
3.666	5.0354
3.6665	19.33594
3.667	39.67896
3.6675	60.52551
3.668	93.35632
3.6685	137.26501
3.669	196.98486
3.6695	265.06348
3.67	286.7157
3.6705	302.42615
3.671	301.92261
3.6715	288.93127
3.672	242.90771
3.6725	165.26184
3.673	75.22888
3.6735	-21.95435
3.674	-118.2312
3.6745	-200.20752
3.675	-277.45056
3.6755	-323.172
3.676	-349.6582
3.6765	-359.12476
3.677	-344.42139
3.6775	-309.77783
3.678	-260.43091
3.6785	-190.84167
3.679	-140.28625
3.6795	-94.2627
3.68	-44.0094
3.6805	-4.33044
3.681	21.14868
3.6815	33.83789
3.682	32.62939
3.6825	33.03223
3.683	25.78125
3.6835	19.73877
3.684	20.44373
3.6845	12.89062
3.685	8.96301
3.6855	3.52478
3.686	1.40991
3.6865	-0.10071
3.687	1.81274
3.6875	-7.25098
3.688	-9.36584
3.6885	-17.12036
3.689	-12.78992
3.6895	-8.25806
3.69	-12.38708
3.6905	-1.91345
3.691	-0.40283
3.6915	3.92761
3.692	11.07788
3.6925	12.68921
3.693	12.48779
3.6935	17.12036
3.694	44.51294
3.6945	71.7041
3.695	98.29102
3.6955	112.18872
3.696	109.06677
3.6965	91.94641
3.697	92.95349
3.6975	70.09277
3.698	48.94409
3.6985	18.93311
3.699	-12.18567
3.6995	-39.77966
3.7	-63.24463
3.7005	-58.41064
3.701	-18.53027
3.7015	-3.02124
3.702	17.22107
3.7025	50.2533
3.703	94.3634
3.7035	113.1958
3.704	113.09509
3.7045	96.67969
3.705	78.85437
3.7055	56.39648
3.706	13.59558
3.7065	-27.49329
3.707	-77.34375
3.7075	-107.35474
3.708	-126.38855
3.7085	-132.0282
3.709	-119.03687
3.7095	-107.65686
3.71	-90.73792
3.7105	-77.74658
3.711	-70.49561
3.7115	-46.42639
3.712	-32.7301
3.7125	-21.65222
3.713	-12.18567
3.7135	-10.87646
3.714	-4.33044
3.7145	-3.7262
3.715	-4.53186
3.7155	-3.62549
3.716	-5.0354
3.7165	0
3.717	1.3092
3.7175	4.83398
3.718	5.84106
3.7185	4.73328
3.719	2.81982
3.7195	-0.20142
3.72	5.84106
3.7205	3.02124
3.721	2.81982
3.7215	1.91345
3.722	-3.32336
3.7225	2.21558
3.723	4.53186
3.7235	6.54602
3.724	6.64673
3.7245	0.30212
3.725	0.60425
3.7255	-1.71204
3.726	-1.71204
3.7265	-3.22266
3.727	0.60425
3.7275	0.60425
3.728	-1.40991
3.7285	2.21558
3.729	-3.8269
3.7295	-1.00708
3.73	-0.20142
3.7305	1.10779
3.731	-1.91345
3.7315	0.30212
3.732	-1.51062
3.7325	-4.22974
3.733	0.60425
3.7335	-2.81982
3.734	0.20142
3.7345	-4.53186
3.735	-3.12195
3.7355	-9.46655
3.736	-7.75452
3.7365	-14.40125
3.737	-2.81982
3.7375	16.71753
3.738	40.68604
3.7385	66.6687
3.739	74.52393
3.7395	67.27295
3.74	59.92126
3.7405	40.2832
3.741	22.55859
3.7415	1.71204
3.742	14.09912
3.7425	43.60657
3.743	84.39331
3.7435	134.04236
3.744	183.5907
3.7445	218.13354
3.745	244.61975
3.7455	239.68506
3.746	208.36487
3.7465	150.75989
3.747	87.71667
3.7475	14.09912
3.748	9.86938
3.7485	32.12585
3.749	37.96692
3.7495	26.88904
3.75	13.29346
3.7505	-10.87646
3.751	-41.29028
3.7515	-62.03613
3.752	-74.72534
3.7525	-88.62305
3.753	-106.34766
3.7535	-122.36023
3.754	-152.67334
3.7545	-185.50415
3.755	-218.03284
3.7555	-250.2594
3.756	-270.30029
3.7565	-263.75427
3.757	-253.17993
3.7575	-213.29956
3.758	-158.4137
3.7585	-100.00305
3.759	-46.22498
3.7595	-6.94885
3.76	7.04956
3.7605	9.56726
3.761	4.43115
3.7615	-2.01416
3.762	3.12195
3.7625	7.75452
3.763	8.66089
3.7635	0.80566
3.764	2.71912
3.7645	4.33044
3.765	-0.30212
3.7655	7.15027
3.766	9.97009
3.7665	6.04248
3.767	9.66797
3.7675	14.19983
3.768	15.50903
3.7685	14.09912
3.769	12.78992
3.7695	13.89771
3.77	17.01965
3.7705	14.90479
3.771	15.00549
3.7715	11.58142
3.772	10.47363
3.7725	10.87646
3.773	12.28638
3.7735	14.70337
3.774	16.11328
3.7745	24.16992
3.775	37.56409
3.7755	34.44214
3.776	28.80249
3.7765	22.15576
3.777	17.42249
3.7775	16.21399
3.778	13.09204
3.7785	4.53186
3.779	3.32336
3.7795	-1.00708
3.78	3.32336
3.7805	-1.3092
3.781	0.20142
3.7815	-0.20142
3.782	0.10071
3.7825	0.70496
3.783	-4.53186
3.7835	-13.09204
3.784	0.20142
3.7845	-3.92761
3.785	-0.40283
3.7855	26.3855
3.786	36.05347
3.7865	47.8363
3.787	46.12427
3.7875	55.18799
3.788	59.71985
3.7885	75.83313
3.789	91.04004
3.7895	112.69226
3.79	110.37598
3.7905	93.0542
3.791	72.40906
3.7915	79.2572
3.792	86.60889
3.7925	74.12109
3.793	49.24622
3.7935	33.43506
3.794	1.40991
3.7945	-26.88904
3.795	-57.40356
3.7955	-83.18481
3.796	-116.51917
3.7965	-137.16431
3.797	-153.27759
3.7975	-169.39087
3.798	-165.56396
3.7985	-153.57971
3.799	-139.88342
3.7995	-124.57581
3.8	-118.13049
3.8005	-94.46411
3.801	-66.16516
3.8015	-41.29028
3.802	-20.34302
3.8025	5.74036
3.803	21.55151
3.8035	44.41223
3.804	43.40515
3.8045	53.77808
3.805	54.58374
3.8055	53.67737
3.806	47.33276
3.8065	74.72534
3.807	120.14465
3.8075	148.3429
3.808	157.10449
3.8085	154.6875
3.809	134.84802
3.8095	108.56323
3.81	83.68835
3.8105	48.64197
3.811	7.65381
3.8115	-5.43823
3.812	-17.12036
3.8125	-36.15417
3.813	-44.71436
3.8135	-59.1156
3.814	-65.25879
3.8145	-82.78198
3.815	-89.22729
3.8155	-65.25879
3.816	-44.81506
3.8165	-24.97559
3.817	-14.40125
3.8175	-12.48779
3.818	-15.50903
3.8185	-27.29187
3.819	-42.19666
3.8195	-44.71436
3.82	-46.5271
3.8205	-49.44763
3.821	-34.03931
3.8215	-28.9032
3.822	-19.73877
3.8225	-24.06921
3.823	-38.26904
3.8235	-60.02197
3.824	-69.89136
3.8245	-68.68286
3.825	-68.48145
3.8255	-53.07312
3.826	-32.7301
3.8265	-9.16443
3.827	-0.60425
3.8275	8.66089
3.828	10.47363
3.8285	8.15735
3.829	7.35168
3.8295	10.17151
3.83	7.95593
3.8305	10.87646
3.831	7.45239
3.8315	5.84106
3.832	7.85522
3.8325	9.76868
3.833	18.42957
3.8335	17.42249
3.834	16.51611
3.8345	17.72461
3.835	56.90002
3.8355	98.29102
3.836	157.2052
3.8365	236.26099
3.837	296.18225
3.8375	339.28528
3.838	332.53784
3.8385	296.18225
3.839	239.78577
3.8395	160.62927
3.84	71.60339
3.8405	-23.16284
3.841	-115.10925
3.8415	-189.02893
3.842	-253.68347
3.8425	-290.5426
3.843	-312.39624
3.8435	-310.98633
3.844	-300.71411
3.8445	-261.13586
3.845	-211.48682
3.8455	-154.78821
3.846	-97.58606
3.8465	-47.13135
3.847	-19.03381
3.8475	18.8324
3.848	27.79541
3.8485	26.98975
3.849	28.09753
3.8495	22.45789
3.85	18.12744
3.8505	19.94019
3.851	13.19275
3.8515	14.50195
3.852	4.43115
3.8525	-0.20142
3.853	5.84106
3.8535	33.33435
3.854	96.47827
3.8545	141.99829
3.855	167.88025
3.8555	177.44751
3.856	181.57654
3.8565	150.05493
3.857	133.63953
3.8575	99.49951
3.858	63.74817
3.8585	19.63806
3.859	-32.7301
3.8595	-81.06995
3.86	-107.45544
3.8605	-132.22961
3.861	-145.52307
3.8615	-156.09741
3.862	-163.5498
3.8625	-154.18396
3.863	-116.11633
3.8635	-75.83313
3.864	-39.17542
3.8645	-17.01965
3.865	10.77576
3.8655	26.18408
3.866	21.65222
3.8665	16.3147
3.867	19.53735
3.8675	30.51453
3.868	38.16833
3.8685	24.06921
3.869	16.81824
3.8695	1.91345
3.87	-0.50354
3.8705	-6.84814
3.871	-6.54602
3.8715	-16.71753
3.872	-19.73877
3.8725	-24.06921
3.873	-21.75293
3.8735	-14.70337
3.874	2.61841
3.8745	14.09912
3.875	24.77417
3.8755	36.15417
3.876	61.43188
3.8765	76.7395
3.877	93.85986
3.8775	108.05969
3.878	115.31067
3.8785	115.41138
3.879	95.77332
3.8795	84.2926
3.88	82.47986
3.8805	69.99207
3.881	49.44763
3.8815	21.24939
3.882	-3.42407
3.8825	-20.94727
3.883	-21.24939
3.8835	-13.69629
3.884	-0.90637
3.8845	43.80798
3.885	89.22729
3.8855	97.08252
3.886	96.7804
3.8865	89.22729
3.887	61.73401
3.8875	18.73169
3.888	-30.31311
3.8885	-89.52942
3.889	-152.47192
3.8895	-196.78345
3.89	-223.06824
3.8905	-242.10205
3.891	-240.28931
3.8915	-224.37744
3.892	-200.50964
3.8925	-170.29724
3.893	-133.43811
3.8935	-84.79614
3.894	-41.39099
3.8945	-8.25806
3.895	14.40125
3.8955	20.34302
3.896	13.19275
3.8965	15.1062
3.897	13.49487
3.8975	11.88354
3.898	14.19983
3.8985	23.26355
3.899	14.60266
3.8995	14.70337
3.9	18.32886
3.9005	39.77966
3.901	54.0802
3.9015	68.48145
3.902	65.46021
3.9025	60.62622
3.903	58.20923
3.9035	51.86462
3.904	40.78674
3.9045	26.88904
3.905	17.42249
3.9055	1.2085
3.906	-7.25098
3.9065	-17.52319
3.907	-31.52161
3.9075	-30.81665
3.908	-34.64355
3.9085	-40.78674
3.909	-39.98108
3.9095	-36.35559
3.91	-30.71594
3.9105	-26.68762
3.911	-23.06213
3.9115	3.8269
3.912	26.08337
3.9125	46.62781
3.913	49.34692
3.9135	46.72852
