Leonardo_Garofalo_Right_2.c3d  



Time(s):	A_R_bicipite(μV):
0	0.80566
0.0005	5.63965
0.001	0.80566
0.0015	0.90637
0.002	-2.21558
0.0025	1.81274
0.003	4.22974
0.0035	4.73328
0.004	9.97009
0.0045	5.43823
0.005	3.7262
0.0055	10.27222
0.006	7.35168
0.0065	3.02124
0.007	7.45239
0.0075	7.35168
0.008	5.84106
0.0085	5.63965
0.009	-0.70496
0.0095	0.70496
0.01	3.12195
0.0105	4.93469
0.011	1.2085
0.0115	-2.21558
0.012	-2.5177
0.0125	8.25806
0.013	8.35876
0.0135	6.54602
0.014	3.22266
0.0145	3.62549
0.015	2.81982
0.0155	3.42407
0.016	1.81274
0.0165	3.92761
0.017	6.74744
0.0175	2.5177
0.018	6.54602
0.0185	-2.61841
0.019	0.80566
0.0195	3.22266
0.02	5.0354
0.0205	1.2085
0.021	-2.61841
0.0215	7.25098
0.022	-4.02832
0.0225	-0.40283
0.023	-3.32336
0.0235	-0.10071
0.024	-2.81982
0.0245	-1.10779
0.025	-1.40991
0.0255	5.33752
0.026	-1.3092
0.0265	7.45239
0.027	8.05664
0.0275	5.23682
0.028	7.65381
0.0285	6.44531
0.029	8.45947
0.0295	8.15735
0.03	12.99133
0.0305	5.53894
0.031	6.04248
0.0315	4.83398
0.032	5.94177
0.0325	6.14319
0.033	8.96301
0.0335	10.87646
0.034	5.74036
0.0345	4.02832
0.035	1.10779
0.0355	1.3092
0.036	2.11487
0.0365	7.35168
0.037	1.40991
0.0375	2.5177
0.038	4.43115
0.0385	0.70496
0.039	-0.90637
0.0395	0.90637
0.04	5.33752
0.0405	0.20142
0.041	0.50354
0.0415	5.84106
0.042	2.92053
0.0425	11.2793
0.043	6.64673
0.0435	6.14319
0.044	3.62549
0.0445	9.76868
0.045	3.8269
0.0455	7.75452
0.046	0.30212
0.0465	4.63257
0.047	3.32336
0.0475	4.63257
0.048	4.22974
0.0485	5.33752
0.049	1.10779
0.0495	2.11487
0.05	1.00708
0.0505	7.95593
0.051	9.46655
0.0515	8.96301
0.052	7.15027
0.0525	6.64673
0.053	12.89062
0.0535	16.71753
0.054	10.17151
0.0545	12.38708
0.055	10.37292
0.0555	11.48071
0.056	10.17151
0.0565	12.38708
0.057	10.47363
0.0575	8.05664
0.058	8.05664
0.0585	3.12195
0.059	4.83398
0.0595	5.63965
0.06	3.12195
0.0605	2.11487
0.061	9.97009
0.0615	7.25098
0.062	8.8623
0.0625	9.86938
0.063	9.16443
0.0635	10.77576
0.064	5.13611
0.0645	6.14319
0.065	1.81274
0.0655	2.81982
0.066	6.44531
0.0665	5.13611
0.067	3.22266
0.0675	8.66089
0.068	0.80566
0.0685	3.32336
0.069	-2.92053
0.0695	2.31628
0.07	1.81274
0.0705	3.22266
0.071	13.39417
0.0715	10.67505
0.072	10.37292
0.0725	8.15735
0.073	9.06372
0.0735	9.76868
0.074	10.27222
0.0745	12.89062
0.075	6.14319
0.0755	5.33752
0.076	5.43823
0.0765	-1.71204
0.077	-0.10071
0.0775	2.21558
0.078	5.13611
0.0785	3.02124
0.079	6.44531
0.0795	-0.30212
0.08	6.94885
0.0805	3.32336
0.081	6.94885
0.0815	4.73328
0.082	10.17151
0.0825	7.15027
0.083	5.74036
0.0835	9.97009
0.084	4.22974
0.0845	6.2439
0.085	5.63965
0.0855	11.88354
0.086	4.93469
0.0865	1.61133
0.087	5.74036
0.0875	8.15735
0.088	2.92053
0.0885	6.44531
0.089	-0.30212
0.0895	-0.40283
0.09	3.92761
0.0905	5.84106
0.091	6.94885
0.0915	9.36584
0.092	5.84106
0.0925	11.58142
0.093	7.85522
0.0935	7.15027
0.094	8.8623
0.0945	9.06372
0.095	4.93469
0.0955	7.65381
0.096	6.84814
0.0965	7.04956
0.097	4.63257
0.0975	1.71204
0.098	0.40283
0.0985	5.53894
0.099	2.21558
0.0995	7.75452
0.1	5.63965
0.1005	0.90637
0.101	3.22266
0.1015	-4.93469
0.102	2.81982
0.1025	1.3092
0.103	0.60425
0.1035	-1.51062
0.104	-1.81274
0.1045	0.40283
0.105	-0.80566
0.1055	-0.90637
0.106	5.23682
0.1065	3.12195
0.107	1.91345
0.1075	1.91345
0.108	7.04956
0.1085	-0.60425
0.109	-0.60425
0.1095	7.65381
0.11	5.94177
0.1105	4.93469
0.111	4.43115
0.1115	7.65381
0.112	0.40283
0.1125	2.31628
0.113	2.81982
0.1135	2.81982
0.114	4.53186
0.1145	0.10071
0.115	-4.12903
0.1155	0
0.116	0.90637
0.1165	-2.11487
0.117	1.40991
0.1175	5.13611
0.118	2.31628
0.1185	2.21558
0.119	-0.90637
0.1195	1.3092
0.12	-0.70496
0.1205	3.8269
0.121	2.21558
0.1215	5.13611
0.122	4.33044
0.1225	-0.80566
0.123	4.33044
0.1235	7.5531
0.124	1.71204
0.1245	2.81982
0.125	2.61841
0.1255	5.63965
0.126	8.7616
0.1265	7.35168
0.127	1.40991
0.1275	4.02832
0.128	3.32336
0.1285	1.81274
0.129	5.13611
0.1295	7.45239
0.13	4.83398
0.1305	8.8623
0.131	0.10071
0.1315	3.62549
0.132	5.33752
0.1325	3.32336
0.133	7.85522
0.1335	3.8269
0.134	5.23682
0.1345	-0.10071
0.135	5.43823
0.1355	6.54602
0.136	5.43823
0.1365	6.3446
0.137	12.78992
0.1375	12.38708
0.138	11.88354
0.1385	7.45239
0.139	13.39417
0.1395	6.54602
0.14	8.66089
0.1405	6.44531
0.141	8.96301
0.1415	8.35876
0.142	10.87646
0.1425	6.74744
0.143	8.25806
0.1435	6.44531
0.144	7.35168
0.1445	4.53186
0.145	8.96301
0.1455	6.14319
0.146	5.33752
0.1465	8.66089
0.147	9.26514
0.1475	5.84106
0.148	6.84814
0.1485	8.25806
0.149	9.16443
0.1495	7.85522
0.15	6.74744
0.1505	5.94177
0.151	7.65381
0.1515	7.15027
0.152	7.04956
0.1525	7.75452
0.153	9.86938
0.1535	8.8623
0.154	8.45947
0.1545	8.05664
0.155	13.59558
0.1555	14.60266
0.156	7.45239
0.1565	5.43823
0.157	11.68213
0.1575	4.63257
0.158	15.50903
0.1585	10.87646
0.159	12.5885
0.1595	13.99841
0.16	10.57434
0.1605	9.06372
0.161	6.84814
0.1615	11.38
0.162	14.90479
0.1625	14.80408
0.163	11.38
0.1635	9.56726
0.164	7.95593
0.1645	8.96301
0.165	9.06372
0.1655	11.2793
0.166	6.74744
0.1665	8.25806
0.167	9.06372
0.1675	9.56726
0.168	12.48779
0.1685	12.48779
0.169	14.50195
0.1695	5.84106
0.17	9.06372
0.1705	9.36584
0.171	13.49487
0.1715	13.39417
0.172	10.77576
0.1725	6.84814
0.173	11.2793
0.1735	11.58142
0.174	13.69629
0.1745	10.47363
0.175	10.57434
0.1755	14.40125
0.176	5.53894
0.1765	8.7616
0.177	8.66089
0.1775	5.94177
0.178	4.83398
0.1785	0.80566
0.179	1.71204
0.1795	1.81274
0.18	3.52478
0.1805	3.42407
0.181	2.92053
0.1815	2.31628
0.182	1.71204
0.1825	6.94885
0.183	3.02124
0.1835	8.8623
0.184	12.89062
0.1845	7.25098
0.185	10.27222
0.1855	7.45239
0.186	8.05664
0.1865	5.53894
0.187	6.2439
0.1875	8.66089
0.188	5.13611
0.1885	14.50195
0.189	13.59558
0.1895	9.26514
0.19	6.54602
0.1905	7.25098
0.191	9.56726
0.1915	10.97717
0.192	9.66797
0.1925	12.48779
0.193	5.43823
0.1935	4.93469
0.194	-1.51062
0.1945	-1.3092
0.195	-3.12195
0.1955	0.30212
0.196	-4.22974
0.1965	-9.16443
0.197	-6.3446
0.1975	-7.75452
0.198	-7.65381
0.1985	-0.10071
0.199	-5.33752
0.1995	-3.7262
0.2	-2.61841
0.2005	-2.01416
0.201	-0.70496
0.2015	1.2085
0.202	4.73328
0.2025	7.25098
0.203	7.35168
0.2035	5.0354
0.204	3.7262
0.2045	8.05664
0.205	9.56726
0.2055	5.74036
0.206	6.54602
0.2065	9.76868
0.207	12.38708
0.2075	8.7616
0.208	7.35168
0.2085	6.2439
0.209	6.2439
0.2095	9.46655
0.21	10.17151
0.2105	9.76868
0.211	8.56018
0.2115	3.02124
0.212	2.61841
0.2125	2.01416
0.213	6.44531
0.2135	7.5531
0.214	5.43823
0.2145	4.53186
0.215	5.84106
0.2155	0.90637
0.216	0
0.2165	2.11487
0.217	-2.31628
0.2175	-4.22974
0.218	-6.2439
0.2185	0.70496
0.219	-1.2085
0.2195	1.81274
0.22	-5.53894
0.2205	-4.83398
0.221	-0.60425
0.2215	-1.71204
0.222	-3.32336
0.2225	-0.20142
0.223	-4.73328
0.2235	0.60425
0.224	2.92053
0.2245	1.2085
0.225	1.61133
0.2255	2.11487
0.226	5.84106
0.2265	5.53894
0.227	7.5531
0.2275	3.22266
0.228	8.45947
0.2285	2.31628
0.229	2.81982
0.2295	0
0.23	1.10779
0.2305	4.63257
0.231	-0.90637
0.2315	1.2085
0.232	1.51062
0.2325	5.23682
0.233	3.92761
0.2335	3.42407
0.234	2.11487
0.2345	4.63257
0.235	0.50354
0.2355	-0.70496
0.236	-0.90637
0.2365	4.22974
0.237	4.22974
0.2375	5.84106
0.238	0.90637
0.2385	5.13611
0.239	6.14319
0.2395	3.22266
0.24	2.01416
0.2405	7.5531
0.241	1.81274
0.2415	0.60425
0.242	7.95593
0.2425	8.56018
0.243	-2.21558
0.2435	-0.10071
0.244	4.12903
0.2445	3.62549
0.245	5.84106
0.2455	1.71204
0.246	-0.80566
0.2465	-2.61841
0.247	7.5531
0.2475	7.75452
0.248	1.81274
0.2485	0.10071
0.249	4.83398
0.2495	9.97009
0.25	9.66797
0.2505	13.89771
0.251	10.47363
0.2515	10.57434
0.252	10.57434
0.2525	9.46655
0.253	7.15027
0.2535	6.14319
0.254	8.45947
0.2545	9.26514
0.255	11.58142
0.2555	12.18567
0.256	6.64673
0.2565	6.2439
0.257	4.73328
0.2575	9.86938
0.258	3.7262
0.2585	-1.40991
0.259	0.10071
0.2595	2.01416
0.26	-1.2085
0.2605	-1.00708
0.261	-2.61841
0.2615	-0.20142
0.262	4.12903
0.2625	7.25098
0.263	8.8623
0.2635	5.0354
0.264	2.21558
0.2645	3.32336
0.265	4.43115
0.2655	5.13611
0.266	8.15735
0.2665	2.01416
0.267	8.7616
0.2675	1.10779
0.268	0.60425
0.2685	2.61841
0.269	4.93469
0.2695	5.53894
0.27	3.62549
0.2705	-3.62549
0.271	-3.22266
0.2715	2.92053
0.272	1.51062
0.2725	0.50354
0.273	-1.00708
0.2735	-2.21558
0.274	0.70496
0.2745	-7.45239
0.275	-0.40283
0.2755	-5.13611
0.276	0.80566
0.2765	1.2085
0.277	0.40283
0.2775	3.92761
0.278	0.90637
0.2785	2.71912
0.279	-4.83398
0.2795	0.80566
0.28	-1.00708
0.2805	3.32336
0.281	-2.31628
0.2815	1.71204
0.282	3.32336
0.2825	2.71912
0.283	5.53894
0.2835	4.33044
0.284	7.75452
0.2845	4.43115
0.285	3.62549
0.2855	4.63257
0.286	7.75452
0.2865	7.95593
0.287	1.91345
0.2875	5.0354
0.288	9.06372
0.2885	8.25806
0.289	4.73328
0.2895	6.3446
0.29	1.51062
0.2905	3.62549
0.291	6.14319
0.2915	2.61841
0.292	-1.91345
0.2925	-1.61133
0.293	0.40283
0.2935	4.33044
0.294	2.61841
0.2945	0.80566
0.295	2.01416
0.2955	0.80566
0.296	1.40991
0.2965	-0.40283
0.297	-4.43115
0.2975	-2.41699
0.298	-4.02832
0.2985	0.10071
0.299	-0.40283
0.2995	-1.2085
0.3	-7.25098
0.3005	-0.60425
0.301	-0.70496
0.3015	-1.61133
0.302	2.31628
0.3025	0.80566
0.303	6.84814
0.3035	7.5531
0.304	5.13611
0.3045	0.70496
0.305	3.7262
0.3055	1.81274
0.306	-1.2085
0.3065	4.63257
0.307	2.5177
0.3075	2.61841
0.308	5.0354
0.3085	1.81274
0.309	-1.71204
0.3095	-0.20142
0.31	3.32336
0.3105	3.12195
0.311	1.91345
0.3115	-1.91345
0.312	-2.21558
0.3125	0.90637
0.313	-1.00708
0.3135	0.20142
0.314	4.73328
0.3145	6.94885
0.315	4.73328
0.3155	3.92761
0.316	-1.2085
0.3165	-2.21558
0.317	2.71912
0.3175	2.5177
0.318	3.62549
0.3185	3.02124
0.319	-2.61841
0.3195	-4.02832
0.32	-3.92761
0.3205	-1.10779
0.321	2.92053
0.3215	-3.52478
0.322	5.43823
0.3225	0.70496
0.323	-0.10071
0.3235	2.01416
0.324	-0.20142
0.3245	2.01416
0.325	4.33044
0.3255	3.02124
0.326	5.13611
0.3265	3.7262
0.327	7.04956
0.3275	10.17151
0.328	0.10071
0.3285	1.40991
0.329	1.81274
0.3295	1.61133
0.33	-4.93469
0.3305	-1.3092
0.331	0.10071
0.3315	-3.02124
0.332	7.45239
0.3325	7.45239
0.333	5.84106
0.3335	3.42407
0.334	1.91345
0.3345	1.91345
0.335	2.01416
0.3355	7.65381
0.336	4.12903
0.3365	5.13611
0.337	5.63965
0.3375	11.2793
0.338	3.22266
0.3385	4.63257
0.339	5.43823
0.3395	7.95593
0.34	4.93469
0.3405	5.74036
0.341	3.22266
0.3415	6.94885
0.342	1.40991
0.3425	6.2439
0.343	5.94177
0.3435	3.7262
0.344	9.66797
0.3445	8.8623
0.345	12.38708
0.3455	15.20691
0.346	13.29346
0.3465	8.96301
0.347	14.70337
0.3475	13.19275
0.348	15.1062
0.3485	18.63098
0.349	14.80408
0.3495	16.61682
0.35	16.41541
0.3505	13.99841
0.351	10.87646
0.3515	13.69629
0.352	6.2439
0.3525	4.63257
0.353	4.22974
0.3535	3.32336
0.354	8.96301
0.3545	0.70496
0.355	7.75452
0.3555	5.74036
0.356	1.00708
0.3565	6.14319
0.357	-0.40283
0.3575	-2.71912
0.358	-3.12195
0.3585	5.0354
0.359	4.12903
0.3595	2.11487
0.36	0.70496
0.3605	8.56018
0.361	7.04956
0.3615	8.45947
0.362	10.97717
0.3625	7.15027
0.363	8.15735
0.3635	5.74036
0.364	7.35168
0.3645	6.14319
0.365	4.93469
0.3655	8.96301
0.366	7.95593
0.3665	9.76868
0.367	11.38
0.3675	10.37292
0.368	8.96301
0.3685	9.66797
0.369	13.29346
0.3695	11.17859
0.37	14.80408
0.3705	13.39417
0.371	14.40125
0.3715	13.49487
0.372	16.71753
0.3725	10.27222
0.373	6.14319
0.3735	7.85522
0.374	9.97009
0.3745	7.25098
0.375	4.83398
0.3755	12.78992
0.376	10.47363
0.3765	8.66089
0.377	14.80408
0.3775	15.00549
0.378	12.48779
0.3785	10.0708
0.379	14.40125
0.3795	9.46655
0.38	15.60974
0.3805	8.45947
0.381	10.0708
0.3815	7.5531
0.382	7.45239
0.3825	11.17859
0.383	10.77576
0.3835	7.5531
0.384	9.26514
0.3845	10.77576
0.385	13.797
0.3855	14.40125
0.386	9.46655
0.3865	8.35876
0.387	11.07788
0.3875	9.46655
0.388	11.07788
0.3885	11.58142
0.389	6.3446
0.3895	6.2439
0.39	6.94885
0.3905	2.01416
0.391	8.45947
0.3915	9.66797
0.392	11.2793
0.3925	11.98425
0.393	7.95593
0.3935	7.15027
0.394	8.66089
0.3945	5.0354
0.395	3.92761
0.3955	6.84814
0.396	6.94885
0.3965	11.48071
0.397	12.68921
0.3975	14.90479
0.398	9.36584
0.3985	13.19275
0.399	8.66089
0.3995	7.15027
0.4	1.51062
0.4005	12.18567
0.401	10.67505
0.4015	13.59558
0.402	13.797
0.4025	10.67505
0.403	13.99841
0.4035	13.59558
0.404	12.28638
0.4045	9.16443
0.405	13.69629
0.4055	9.56726
0.406	11.48071
0.4065	9.06372
0.407	10.57434
0.4075	9.46655
0.408	14.30054
0.4085	13.59558
0.409	10.17151
0.4095	9.97009
0.41	11.58142
0.4105	12.5885
0.411	12.38708
0.4115	12.68921
0.412	5.74036
0.4125	6.74744
0.413	9.56726
0.4135	11.68213
0.414	10.87646
0.4145	10.37292
0.415	10.67505
0.4155	7.85522
0.416	10.67505
0.4165	7.85522
0.417	10.27222
0.4175	10.67505
0.418	6.54602
0.4185	8.7616
0.419	6.04248
0.4195	8.35876
0.42	9.26514
0.4205	4.33044
0.421	3.32336
0.4215	8.45947
0.422	3.02124
0.4225	-3.32336
0.423	-0.20142
0.4235	-0.50354
0.424	2.31628
0.4245	4.33044
0.425	0.50354
0.4255	8.56018
0.426	3.32336
0.4265	7.25098
0.427	7.75452
0.4275	6.44531
0.428	7.04956
0.4285	14.19983
0.429	11.2793
0.4295	10.67505
0.43	7.25098
0.4305	14.30054
0.431	9.36584
0.4315	9.56726
0.432	14.30054
0.4325	13.19275
0.433	9.56726
0.4335	9.46655
0.434	10.97717
0.4345	8.8623
0.435	10.47363
0.4355	7.35168
0.436	10.0708
0.4365	1.81274
0.437	5.53894
0.4375	0.80566
0.438	7.15027
0.4385	9.46655
0.439	8.8623
0.4395	13.59558
0.44	10.97717
0.4405	10.27222
0.441	10.0708
0.4415	13.29346
0.442	7.65381
0.4425	11.88354
0.443	15.40833
0.4435	7.15027
0.444	8.05664
0.4445	6.54602
0.445	9.56726
0.4455	2.61841
0.446	4.83398
0.4465	6.2439
0.447	14.70337
0.4475	9.86938
0.448	10.0708
0.4485	5.94177
0.449	5.0354
0.4495	8.56018
0.45	7.5531
0.4505	7.85522
0.451	13.89771
0.4515	4.02832
0.452	-0.60425
0.4525	4.22974
0.453	7.65381
0.4535	7.5531
0.454	-0.50354
0.4545	5.43823
0.455	-2.71912
0.4555	3.32336
0.456	6.2439
0.4565	1.3092
0.457	4.63257
0.4575	8.56018
0.458	2.5177
0.4585	2.01416
0.459	1.00708
0.4595	3.92761
0.46	3.02124
0.4605	1.3092
0.461	7.25098
0.4615	5.23682
0.462	8.7616
0.4625	8.25806
0.463	2.5177
0.4635	5.53894
0.464	-3.7262
0.4645	2.81982
0.465	-3.22266
0.4655	0.20142
0.466	-5.94177
0.4665	1.00708
0.467	2.21558
0.4675	0.90637
0.468	3.52478
0.4685	5.74036
0.469	3.62549
0.4695	7.45239
0.47	6.54602
0.4705	8.35876
0.471	5.33752
0.4715	6.84814
0.472	6.94885
0.4725	5.74036
0.473	3.42407
0.4735	6.84814
0.474	9.26514
0.4745	8.25806
0.475	10.27222
0.4755	9.46655
0.476	10.77576
0.4765	2.71912
0.477	6.14319
0.4775	5.0354
0.478	4.83398
0.4785	5.13611
0.479	-1.2085
0.4795	3.52478
0.48	1.00708
0.4805	2.31628
0.481	1.81274
0.4815	-3.02124
0.482	-2.61841
0.4825	1.81274
0.483	-1.71204
0.4835	-3.62549
0.484	-3.42407
0.4845	-5.74036
0.485	-9.97009
0.4855	-3.32336
0.486	-3.02124
0.4865	0.80566
0.487	-3.12195
0.4875	1.40991
0.488	-1.10779
0.4885	-1.81274
0.489	2.71912
0.4895	4.43115
0.49	6.44531
0.4905	2.81982
0.491	8.66089
0.4915	6.54602
0.492	5.43823
0.4925	5.33752
0.493	9.86938
0.4935	2.5177
0.494	5.63965
0.4945	3.62549
0.495	0.80566
0.4955	0.10071
0.496	-1.71204
0.4965	-3.7262
0.497	1.71204
0.4975	2.92053
0.498	5.84106
0.4985	5.53894
0.499	7.5531
0.4995	7.15027
0.5	1.61133
0.5005	0.30212
0.501	-0.30212
0.5015	7.85522
0.502	4.63257
0.5025	2.41699
0.503	7.95593
0.5035	3.92761
0.504	3.62549
0.5045	6.04248
0.505	10.67505
0.5055	9.97009
0.506	5.94177
0.5065	6.44531
0.507	3.42407
0.5075	1.71204
0.508	3.12195
0.5085	5.53894
0.509	2.92053
0.5095	3.92761
0.51	2.92053
0.5105	0.50354
0.511	5.53894
0.5115	3.92761
0.512	1.81274
0.5125	3.12195
0.513	4.22974
0.5135	3.32336
0.514	2.11487
0.5145	5.23682
0.515	10.27222
0.5155	11.2793
0.516	8.8623
0.5165	4.93469
0.517	0.50354
0.5175	2.11487
0.518	2.01416
0.5185	-2.21558
0.519	5.13611
0.5195	7.35168
0.52	4.02832
0.5205	4.12903
0.521	5.63965
0.5215	2.5177
0.522	-3.92761
0.5225	4.02832
0.523	5.0354
0.5235	3.12195
0.524	-1.10779
0.5245	0.30212
0.525	-4.12903
0.5255	-5.13611
0.526	0.10071
0.5265	3.7262
0.527	1.51062
0.5275	0.20142
0.528	0.60425
0.5285	2.31628
0.529	6.14319
0.5295	5.23682
0.53	-2.31628
0.5305	-3.92761
0.531	-2.92053
0.5315	-2.21558
0.532	-2.71912
0.5325	5.13611
0.533	7.25098
0.5335	9.16443
0.534	13.09204
0.5345	19.73877
0.535	19.63806
0.5355	21.24939
0.536	18.02673
0.5365	16.3147
0.537	12.38708
0.5375	9.76868
0.538	11.48071
0.5385	12.18567
0.539	6.44531
0.5395	12.38708
0.54	8.35876
0.5405	2.71912
0.541	4.22974
0.5415	1.40991
0.542	0.70496
0.5425	4.53186
0.543	3.12195
0.5435	4.73328
0.544	0.40283
0.5445	5.94177
0.545	5.13611
0.5455	7.85522
0.546	8.56018
0.5465	5.63965
0.547	3.8269
0.5475	2.31628
0.548	5.94177
0.5485	10.0708
0.549	12.08496
0.5495	8.56018
0.55	10.97717
0.5505	19.43665
0.551	19.03381
0.5515	13.19275
0.552	6.2439
0.5525	12.99133
0.553	3.52478
0.5535	0
0.554	-4.02832
0.5545	-5.23682
0.555	-7.15027
0.5555	-11.2793
0.556	-2.41699
0.5565	-5.0354
0.557	-5.0354
0.5575	-0.40283
0.558	2.92053
0.5585	2.71912
0.559	0.80566
0.5595	-2.21558
0.56	1.81274
0.5605	0.80566
0.561	5.94177
0.5615	4.93469
0.562	-0.70496
0.5625	-2.31628
0.563	-2.71912
0.5635	-3.8269
0.564	-1.51062
0.5645	5.13611
0.565	0.70496
0.5655	3.42407
0.566	5.74036
0.5665	2.61841
0.567	-0.80566
0.5675	-0.20142
0.568	3.22266
0.5685	4.22974
0.569	1.81274
0.5695	2.11487
0.57	-3.7262
0.5705	-3.92761
0.571	-0.90637
0.5715	2.21558
0.572	0.50354
0.5725	4.12903
0.573	3.8269
0.5735	3.7262
0.574	-4.02832
0.5745	5.0354
0.575	5.23682
0.5755	-2.01416
0.576	-2.92053
0.5765	7.45239
0.577	2.21558
0.5775	3.42407
0.578	1.2085
0.5785	2.11487
0.579	3.7262
0.5795	7.65381
0.58	7.04956
0.5805	8.15735
0.581	9.66797
0.5815	9.26514
0.582	9.56726
0.5825	12.08496
0.583	13.797
0.5835	14.50195
0.584	13.09204
0.5845	10.17151
0.585	13.09204
0.5855	10.77576
0.586	9.16443
0.5865	7.04956
0.587	11.17859
0.5875	9.66797
0.588	6.74744
0.5885	6.2439
0.589	2.61841
0.5895	1.00708
0.59	4.43115
0.5905	-0.80566
0.591	8.25806
0.5915	2.31628
0.592	4.93469
0.5925	4.02832
0.593	5.33752
0.5935	5.33752
0.594	4.43115
0.5945	0.80566
0.595	7.35168
0.5955	8.7616
0.596	5.74036
0.5965	5.53894
0.597	5.74036
0.5975	10.37292
0.598	8.15735
0.5985	2.81982
0.599	-3.02124
0.5995	3.42407
0.6	1.61133
0.6005	5.23682
0.601	1.10779
0.6015	3.92761
0.602	13.09204
0.6025	8.05664
0.603	9.66797
0.6035	12.38708
0.604	8.96301
0.6045	12.68921
0.605	9.16443
0.6055	13.09204
0.606	12.18567
0.6065	13.99841
0.607	15.40833
0.6075	11.38
0.608	10.37292
0.6085	12.38708
0.609	9.76868
0.6095	11.2793
0.61	18.73169
0.6105	8.96301
0.611	5.13611
0.6115	0
0.612	4.43115
0.6125	0.90637
0.613	3.92761
0.6135	-0.90637
0.614	6.3446
0.6145	0.50354
0.615	1.3092
0.6155	-1.3092
0.616	-2.01416
0.6165	-0.70496
0.617	-0.20142
0.6175	-2.21558
0.618	-1.51062
0.6185	-8.96301
0.619	-8.45947
0.6195	-3.02124
0.62	-0.60425
0.6205	-4.33044
0.621	-1.61133
0.6215	0.90637
0.622	3.42407
0.6225	7.25098
0.623	4.53186
0.6235	2.61841
0.624	2.81982
0.6245	8.15735
0.625	9.06372
0.6255	11.07788
0.626	11.88354
0.6265	8.66089
0.627	8.15735
0.6275	7.04956
0.628	10.0708
0.6285	11.2793
0.629	10.27222
0.6295	11.68213
0.63	9.36584
0.6305	12.78992
0.631	9.56726
0.6315	10.97717
0.632	3.42407
0.6325	4.12903
0.633	2.31628
0.6335	6.14319
0.634	0.40283
0.6345	1.71204
0.635	0
0.6355	5.74036
0.636	11.17859
0.6365	7.35168
0.637	5.43823
0.6375	5.74036
0.638	3.7262
0.6385	6.2439
0.639	4.33044
0.6395	3.62549
0.64	6.44531
0.6405	-2.81982
0.641	-3.32336
0.6415	4.43115
0.642	10.97717
0.6425	10.0708
0.643	12.68921
0.6435	17.12036
0.644	7.35168
0.6445	1.10779
0.645	5.43823
0.6455	8.45947
0.646	8.35876
0.6465	7.85522
0.647	7.65381
0.6475	16.11328
0.648	20.64514
0.6485	13.19275
0.649	20.94727
0.6495	19.23523
0.65	19.33594
0.6505	21.85364
0.651	32.62939
0.6515	30.71594
0.652	29.50745
0.6525	22.86072
0.653	20.04089
0.6535	20.84656
0.654	16.91895
0.6545	14.50195
0.655	17.42249
0.6555	15.81116
0.656	13.99841
0.6565	9.76868
0.657	6.3446
0.6575	11.17859
0.658	7.5531
0.6585	4.63257
0.659	0.20142
0.6595	6.84814
0.66	-8.96301
0.6605	-4.63257
0.661	0.40283
0.6615	-5.53894
0.662	-5.53894
0.6625	-0.60425
0.663	-4.02832
0.6635	-0.10071
0.664	-3.12195
0.6645	-9.86938
0.665	-5.0354
0.6655	-8.15735
0.666	-11.58142
0.6665	-4.02832
0.667	-1.3092
0.6675	-1.91345
0.668	3.52478
0.6685	1.61133
0.669	4.93469
0.6695	9.76868
0.67	13.39417
0.6705	10.97717
0.671	15.30762
0.6715	9.06372
0.672	3.42407
0.6725	8.35876
0.673	17.72461
0.6735	20.94727
0.674	23.76709
0.6745	30.81665
0.675	32.7301
0.6755	28.60107
0.676	26.68762
0.6765	34.94568
0.677	35.04639
0.6775	17.6239
0.678	11.38
0.6785	10.67505
0.679	4.93469
0.6795	3.12195
0.68	-11.78284
0.6805	-22.15576
0.681	-26.88904
0.6815	-32.7301
0.682	-32.22656
0.6825	-25.88196
0.683	-24.06921
0.6835	-15.60974
0.684	-11.2793
0.6845	1.40991
0.685	6.54602
0.6855	11.98425
0.686	19.13452
0.6865	14.60266
0.687	13.69629
0.6875	12.68921
0.688	10.97717
0.6885	17.42249
0.689	16.3147
0.6895	10.57434
0.69	13.69629
0.6905	8.8623
0.691	4.83398
0.6915	1.10779
0.692	-2.41699
0.6925	-1.71204
0.693	1.10779
0.6935	0.90637
0.694	-5.84106
0.6945	-8.15735
0.695	-5.33752
0.6955	0
0.696	-1.81274
0.6965	0.70496
0.697	3.02124
0.6975	10.17151
0.698	3.92761
0.6985	2.81982
0.699	2.81982
0.6995	7.15027
0.7	8.35876
0.7005	9.36584
0.701	11.48071
0.7015	12.5885
0.702	13.59558
0.7025	5.74036
0.703	9.46655
0.7035	15.00549
0.704	10.27222
0.7045	3.32336
0.705	1.81274
0.7055	9.46655
0.706	16.71753
0.7065	22.6593
0.707	29.91028
0.7075	30.51453
0.708	22.15576
0.7085	21.3501
0.709	14.50195
0.7095	12.68921
0.71	8.15735
0.7105	2.5177
0.711	2.71912
0.7115	6.3446
0.712	5.23682
0.7125	-0.30212
0.713	-2.31628
0.7135	-6.64673
0.714	-1.40991
0.7145	1.51062
0.715	5.94177
0.7155	10.67505
0.716	15.00549
0.7165	10.27222
0.717	16.01257
0.7175	19.53735
0.718	19.03381
0.7185	13.89771
0.719	9.36584
0.7195	9.06372
0.72	3.62549
0.7205	0.30212
0.721	-4.22974
0.7215	-4.43115
0.722	-9.26514
0.7225	-17.22107
0.723	-21.55151
0.7235	-17.92603
0.724	-19.43665
0.7245	-11.07788
0.725	-14.90479
0.7255	-1.40991
0.726	1.10779
0.7265	-3.32336
0.727	-3.92761
0.7275	8.05664
0.728	9.06372
0.7285	8.05664
0.729	9.86938
0.7295	3.22266
0.73	7.25098
0.7305	5.84106
0.731	4.63257
0.7315	1.81274
0.732	8.05664
0.7325	12.78992
0.733	14.09912
0.7335	14.19983
0.734	12.18567
0.7345	8.45947
0.735	8.8623
0.7355	20.1416
0.736	14.40125
0.7365	16.81824
0.737	23.06213
0.7375	23.76709
0.738	25.37842
0.7385	27.99683
0.739	22.45789
0.7395	26.68762
0.74	21.55151
0.7405	21.24939
0.741	9.06372
0.7415	15.40833
0.742	13.99841
0.7425	14.40125
0.743	9.06372
0.7435	7.45239
0.744	11.38
0.7445	11.78284
0.745	8.05664
0.7455	2.31628
0.746	2.92053
0.7465	-4.83398
0.747	-7.65381
0.7475	-3.12195
0.748	-4.93469
0.7485	0.80566
0.749	0.60425
0.7495	4.02832
0.75	5.33752
0.7505	3.62549
0.751	8.25806
0.7515	6.74744
0.752	11.68213
0.7525	12.99133
0.753	13.69629
0.7535	13.69629
0.754	12.08496
0.7545	11.58142
0.755	11.88354
0.7555	13.19275
0.756	11.07788
0.7565	6.2439
0.757	11.68213
0.7575	14.19983
0.758	9.76868
0.7585	6.44531
0.759	7.5531
0.7595	12.28638
0.76	8.15735
0.7605	8.35876
0.761	6.54602
0.7615	5.43823
0.762	13.29346
0.7625	7.5531
0.763	4.53186
0.7635	1.61133
0.764	5.23682
0.7645	4.53186
0.765	6.64673
0.7655	8.05664
0.766	5.43823
0.7665	1.51062
0.767	9.16443
0.7675	12.68921
0.768	10.57434
0.7685	9.16443
0.769	8.35876
0.7695	6.3446
0.77	6.84814
0.7705	0.10071
0.771	-0.10071
0.7715	-1.2085
0.772	-7.75452
0.7725	-0.20142
0.773	5.84106
0.7735	5.94177
0.774	-0.10071
0.7745	1.40991
0.775	-0.10071
0.7755	5.23682
0.776	5.0354
0.7765	5.33752
0.777	6.84814
0.7775	6.44531
0.778	7.04956
0.7785	2.5177
0.779	6.54602
0.7795	11.2793
0.78	7.45239
0.7805	2.92053
0.781	4.02832
0.7815	1.91345
0.782	4.12903
0.7825	8.96301
0.783	13.797
0.7835	8.8623
0.784	11.48071
0.7845	11.68213
0.785	8.15735
0.7855	10.87646
0.786	7.45239
0.7865	10.67505
0.787	14.30054
0.7875	11.58142
0.788	8.05664
0.7885	11.2793
0.789	3.12195
0.7895	4.73328
0.79	7.45239
0.7905	5.13611
0.791	12.08496
0.7915	9.46655
0.792	8.56018
0.7925	7.95593
0.793	8.7616
0.7935	8.8623
0.794	4.02832
0.7945	6.3446
0.795	2.71912
0.7955	8.8623
0.796	5.13611
0.7965	7.04956
0.797	7.25098
0.7975	8.66089
0.798	5.0354
0.7985	0.60425
0.799	9.26514
0.7995	2.11487
0.8	-0.10071
0.8005	-0.10071
0.801	-0.80566
0.8015	2.21558
0.802	6.2439
0.8025	1.71204
0.803	1.71204
0.8035	3.32336
0.804	2.92053
0.8045	-0.40283
0.805	2.01416
0.8055	6.04248
0.806	8.35876
0.8065	6.84814
0.807	12.28638
0.8075	11.78284
0.808	16.61682
0.8085	10.37292
0.809	9.76868
0.8095	6.54602
0.81	6.3446
0.8105	11.38
0.811	3.92761
0.8115	1.61133
0.812	1.61133
0.8125	8.7616
0.813	5.43823
0.8135	0.40283
0.814	3.22266
0.8145	4.22974
0.815	9.26514
0.8155	5.13611
0.816	2.5177
0.8165	1.10779
0.817	8.35876
0.8175	11.07788
0.818	7.04956
0.8185	7.65381
0.819	3.92761
0.8195	9.06372
0.82	7.35168
0.8205	2.01416
0.821	5.74036
0.8215	6.2439
0.822	10.47363
0.8225	7.85522
0.823	-1.2085
0.8235	2.92053
0.824	5.33752
0.8245	3.92761
0.825	3.42407
0.8255	5.13611
0.826	7.04956
0.8265	3.12195
0.827	3.22266
0.8275	2.71912
0.828	1.2085
0.8285	5.33752
0.829	3.7262
0.8295	6.94885
0.83	12.08496
0.8305	17.52319
0.831	15.71045
0.8315	16.91895
0.832	14.40125
0.8325	7.85522
0.833	6.3446
0.8335	8.15735
0.834	3.12195
0.8345	3.8269
0.835	7.04956
0.8355	2.71912
0.836	2.01416
0.8365	-0.50354
0.837	-5.23682
0.8375	0.50354
0.838	-5.13611
0.8385	-6.3446
0.839	-1.2085
0.8395	-1.71204
0.84	-1.51062
0.8405	-0.30212
0.841	1.51062
0.8415	2.61841
0.842	3.92761
0.8425	8.45947
0.843	3.12195
0.8435	6.64673
0.844	-2.21558
0.8445	0.30212
0.845	5.94177
0.8455	3.62549
0.846	7.25098
0.8465	6.54602
0.847	5.63965
0.8475	2.01416
0.848	5.94177
0.8485	4.53186
0.849	6.74744
0.8495	1.10779
0.85	3.52478
0.8505	-0.80566
0.851	-6.94885
0.8515	-2.61841
0.852	-2.41699
0.8525	-3.32336
0.853	-0.70496
0.8535	6.3446
0.854	5.94177
0.8545	4.12903
0.855	2.71912
0.8555	2.11487
0.856	5.84106
0.8565	6.44531
0.857	1.2085
0.8575	5.84106
0.858	3.8269
0.8585	6.2439
0.859	8.15735
0.8595	7.04956
0.86	13.39417
0.8605	6.54602
0.861	3.7262
0.8615	1.00708
0.862	5.33752
0.8625	5.74036
0.863	5.13611
0.8635	10.77576
0.864	3.12195
0.8645	2.81982
0.865	2.71912
0.8655	2.92053
0.866	2.31628
0.8665	1.61133
0.867	2.92053
0.8675	-3.22266
0.868	5.13611
0.8685	8.05664
0.869	5.74036
0.8695	6.64673
0.87	1.00708
0.8705	6.64673
0.871	11.98425
0.8715	6.54602
0.872	5.74036
0.8725	-1.51062
0.873	2.5177
0.8735	1.3092
0.874	2.81982
0.8745	8.66089
0.875	7.5531
0.8755	9.16443
0.876	12.48779
0.8765	12.89062
0.877	16.21399
0.8775	14.70337
0.878	12.08496
0.8785	11.38
0.879	2.11487
0.8795	8.7616
0.88	13.19275
0.8805	5.74036
0.881	4.83398
0.8815	6.94885
0.882	5.63965
0.8825	13.89771
0.883	9.06372
0.8835	7.15027
0.884	6.14319
0.8845	11.48071
0.885	18.22815
0.8855	17.92603
0.886	10.27222
0.8865	12.08496
0.887	9.16443
0.8875	9.16443
0.888	8.96301
0.8885	13.69629
0.889	15.40833
0.8895	12.89062
0.89	7.25098
0.8905	10.17151
0.891	7.95593
0.8915	8.25806
0.892	4.73328
0.8925	6.04248
0.893	5.33752
0.8935	6.94885
0.894	7.04956
0.8945	7.25098
0.895	7.65381
0.8955	8.66089
0.896	3.42407
0.8965	8.35876
0.897	6.04248
0.8975	0.50354
0.898	2.11487
0.8985	1.3092
0.899	0.90637
0.8995	4.02832
0.9	3.8269
0.9005	1.51062
0.901	-5.13611
0.9015	2.01416
0.902	5.74036
0.9025	9.66797
0.903	10.57434
0.9035	8.45947
0.904	6.2439
0.9045	8.96301
0.905	8.15735
0.9055	13.19275
0.906	11.17859
0.9065	9.46655
0.907	9.46655
0.9075	10.0708
0.908	12.5885
0.9085	10.57434
0.909	5.23682
0.9095	6.2439
0.91	16.11328
0.9105	10.97717
0.911	20.44373
0.9115	12.5885
0.912	5.43823
0.9125	7.04956
0.913	5.23682
0.9135	1.71204
0.914	2.11487
0.9145	-1.61133
0.915	4.63257
0.9155	0.30212
0.916	1.71204
0.9165	1.81274
0.917	2.21558
0.9175	-3.52478
0.918	-3.62549
0.9185	-4.12903
0.919	1.10779
0.9195	0.30212
0.92	1.00708
0.9205	0
0.921	-1.40991
0.9215	-7.35168
0.922	-4.93469
0.9225	-5.53894
0.923	-8.35876
0.9235	0.90637
0.924	4.22974
0.9245	0
0.925	-0.50354
0.9255	-1.61133
0.926	-3.42407
0.9265	-6.74744
0.927	-10.0708
0.9275	0.90637
0.928	4.83398
0.9285	1.81274
0.929	0.90637
0.9295	0.30212
0.93	6.54602
0.9305	7.65381
0.931	13.59558
0.9315	10.67505
0.932	11.88354
0.9325	22.35718
0.933	24.87488
0.9335	18.32886
0.934	18.53027
0.9345	11.88354
0.935	13.69629
0.9355	13.49487
0.936	7.65381
0.9365	6.44531
0.937	7.25098
0.9375	11.07788
0.938	6.94885
0.9385	11.38
0.939	16.91895
0.9395	12.78992
0.94	9.76868
0.9405	11.07788
0.941	11.48071
0.9415	10.27222
0.942	4.93469
0.9425	7.75452
0.943	10.57434
0.9435	7.25098
0.944	4.12903
0.9445	3.42407
0.945	-3.7262
0.9455	0.60425
0.946	-3.42407
0.9465	-3.52478
0.947	-5.23682
0.9475	-4.43115
0.948	-3.8269
0.9485	3.7262
0.949	5.0354
0.9495	3.42407
0.95	5.23682
0.9505	7.15027
0.951	4.33044
0.9515	9.97009
0.952	9.46655
0.9525	7.45239
0.953	6.84814
0.9535	9.56726
0.954	9.36584
0.9545	12.08496
0.955	16.11328
0.9555	15.91187
0.956	8.7616
0.9565	8.25806
0.957	14.70337
0.9575	10.37292
0.958	13.29346
0.9585	7.85522
0.959	4.33044
0.9595	4.63257
0.96	5.74036
0.9605	10.57434
0.961	15.40833
0.9615	18.63098
0.962	15.91187
0.9625	14.70337
0.963	7.5531
0.9635	15.30762
0.964	15.20691
0.9645	12.78992
0.965	10.97717
0.9655	9.66797
0.966	11.88354
0.9665	10.27222
0.967	12.38708
0.9675	12.28638
0.968	7.04956
0.9685	6.14319
0.969	7.04956
0.9695	7.85522
0.97	5.84106
0.9705	1.81274
0.971	1.40991
0.9715	5.74036
0.972	6.64673
0.9725	9.86938
0.973	10.97717
0.9735	8.45947
0.974	4.12903
0.9745	-0.80566
0.975	2.81982
0.9755	6.04248
0.976	0.90637
0.9765	6.44531
0.977	6.74744
0.9775	2.61841
0.978	5.0354
0.9785	4.43115
0.979	-1.3092
0.9795	1.10779
0.98	-3.62549
0.9805	-0.30212
0.981	-0.30212
0.9815	4.83398
0.982	6.94885
0.9825	11.48071
0.983	13.19275
0.9835	10.47363
0.984	12.18567
0.9845	9.46655
0.985	10.87646
0.9855	4.63257
0.986	7.95593
0.9865	5.13611
0.987	1.00708
0.9875	6.14319
0.988	1.71204
0.9885	2.41699
0.989	1.51062
0.9895	2.81982
0.99	1.00708
0.9905	0.20142
0.991	2.81982
0.9915	7.25098
0.992	5.84106
0.9925	12.99133
0.993	16.41541
0.9935	22.76001
0.994	16.91895
0.9945	14.30054
0.995	11.68213
0.9955	8.8623
0.996	9.06372
0.9965	4.73328
0.997	7.35168
0.9975	4.73328
0.998	10.87646
0.9985	2.01416
0.999	-0.90637
0.9995	0.40283
1	4.83398
1.0005	4.93469
1.001	9.26514
1.0015	15.00549
1.002	13.69629
1.0025	6.54602
1.003	11.07788
1.0035	5.74036
1.004	11.78284
1.0045	8.8623
1.005	16.51611
1.0055	17.82532
1.006	11.78284
1.0065	7.95593
1.007	11.07788
1.0075	8.96301
1.008	9.66797
1.0085	10.87646
1.009	9.97009
1.0095	7.75452
1.01	2.71912
1.0105	1.71204
1.011	0.40283
1.0115	-6.04248
1.012	-3.12195
1.0125	2.41699
1.013	-3.92761
1.0135	0.80566
1.014	5.0354
1.0145	9.26514
1.015	13.99841
1.0155	14.70337
1.016	16.91895
1.0165	15.60974
1.017	18.22815
1.0175	13.69629
1.018	3.12195
1.0185	-1.2085
1.019	0.90637
1.0195	-6.84814
1.02	-5.94177
1.0205	-12.68921
1.021	-12.68921
1.0215	-15.71045
1.022	-21.75293
1.0225	-21.04797
1.023	-12.38708
1.0235	-17.42249
1.024	-8.05664
1.0245	-7.5531
1.025	-5.74036
1.0255	-2.41699
1.026	2.61841
1.0265	1.3092
1.027	7.25098
1.0275	13.69629
1.028	8.15735
1.0285	4.33044
1.029	8.96301
1.0295	10.57434
1.03	12.68921
1.0305	14.30054
1.031	9.66797
1.0315	13.49487
1.032	35.54993
1.0325	38.974
1.033	46.02356
1.0335	41.4917
1.034	43.90869
1.0345	44.11011
1.035	33.73718
1.0355	29.40674
1.036	21.45081
1.0365	24.27063
1.037	28.39966
1.0375	27.39258
1.038	25.37842
1.0385	21.55151
1.039	21.3501
1.0395	16.81824
1.04	10.47363
1.0405	9.26514
1.041	6.3446
1.0415	3.22266
1.042	-4.93469
1.0425	-4.63257
1.043	-10.17151
1.0435	-7.95593
1.044	-8.35876
1.0445	-14.90479
1.045	-18.22815
1.0455	-23.8678
1.046	-32.62939
1.0465	-29.80957
1.047	-25.98267
1.0475	-31.82373
1.048	-25.88196
1.0485	-23.76709
1.049	-15.00549
1.0495	-6.3446
1.05	-4.93469
1.0505	9.26514
1.051	11.58142
1.0515	19.73877
1.052	14.40125
1.0525	13.19275
1.053	10.37292
1.0535	7.15027
1.054	3.32336
1.0545	3.7262
1.055	8.45947
1.0555	11.98425
1.056	7.35168
1.0565	7.65381
1.057	10.27222
1.0575	3.7262
1.058	8.8623
1.0585	6.84814
1.059	4.93469
1.0595	8.7616
1.06	14.80408
1.0605	19.83948
1.061	35.75134
1.0615	32.93152
1.062	38.87329
1.0625	34.24072
1.063	38.57117
1.0635	31.21948
1.064	26.08337
1.0645	21.85364
1.065	15.00549
1.0655	14.80408
1.066	3.8269
1.0665	0.90637
1.067	-0.30212
1.0675	-0.20142
1.068	-0.60425
1.0685	-3.8269
1.069	-3.52478
1.0695	-6.04248
1.07	-4.43115
1.0705	-9.56726
1.071	0.40283
1.0715	-2.81982
1.072	-1.10779
1.0725	-4.93469
1.073	-8.7616
1.0735	-0.20142
1.074	5.43823
1.0745	4.53186
1.075	5.84106
1.0755	2.31628
1.076	-0.30212
1.0765	-4.12903
1.077	-0.60425
1.0775	-1.51062
1.078	-1.71204
1.0785	-2.5177
1.079	1.51062
1.0795	-0.50354
1.08	-0.30212
1.0805	10.37292
1.081	7.75452
1.0815	4.93469
1.082	2.92053
1.0825	8.7616
1.083	13.09204
1.0835	10.87646
1.084	7.25098
1.0845	7.5531
1.085	6.54602
1.0855	12.48779
1.086	12.38708
1.0865	15.00549
1.087	12.08496
1.0875	9.76868
1.088	5.94177
1.0885	7.65381
1.089	4.12903
1.0895	7.25098
1.09	5.84106
1.0905	3.92761
1.091	3.32336
1.0915	6.84814
1.092	2.31628
1.0925	-2.11487
1.093	1.2085
1.0935	1.3092
1.094	5.0354
1.0945	5.43823
1.095	5.43823
1.0955	8.8623
1.096	5.43823
1.0965	10.87646
1.097	20.54443
1.0975	26.68762
1.098	28.50037
1.0985	32.52869
1.099	23.76709
1.0995	24.57275
1.1	29.30603
1.1005	25.07629
1.101	18.32886
1.1015	12.68921
1.102	9.76868
1.1025	8.7616
1.103	5.63965
1.1035	1.81274
1.104	10.87646
1.1045	13.797
1.105	9.66797
1.1055	8.7616
1.106	8.45947
1.1065	6.74744
1.107	3.62549
1.1075	4.53186
1.108	1.2085
1.1085	0.60425
1.109	-7.65381
1.1095	0.10071
1.11	-9.16443
1.1105	-1.71204
1.111	-3.92761
1.1115	-5.63965
1.112	-11.68213
1.1125	-19.23523
1.113	-16.61682
1.1135	-12.18567
1.114	-13.29346
1.1145	-6.04248
1.115	7.35168
1.1155	12.38708
1.116	16.61682
1.1165	20.64514
1.117	22.45789
1.1175	27.99683
1.118	23.06213
1.1185	22.25647
1.119	18.93311
1.1195	21.24939
1.12	18.22815
1.1205	15.00549
1.121	8.8623
1.1215	9.06372
1.122	6.64673
1.1225	5.23682
1.123	-0.40283
1.1235	0.60425
1.124	6.2439
1.1245	5.0354
1.125	7.85522
1.1255	5.84106
1.126	7.65381
1.1265	-0.90637
1.127	2.31628
1.1275	7.35168
1.128	0
1.1285	-2.31628
1.129	-8.96301
1.1295	-13.69629
1.13	-10.0708
1.1305	-8.56018
1.131	-9.76868
1.1315	-12.99133
1.132	-17.01965
1.1325	-19.83948
1.133	-19.23523
1.1335	-10.57434
1.134	-3.52478
1.1345	5.74036
1.135	16.81824
1.1355	19.94019
1.136	45.52002
1.1365	57.9071
1.137	68.58215
1.1375	69.28711
1.138	69.1864
1.1385	62.23755
1.139	57.30286
1.1395	44.11011
1.14	28.50037
1.1405	12.68921
1.141	6.04248
1.1415	4.02832
1.142	-5.0354
1.1425	-11.38
1.143	-5.23682
1.1435	3.52478
1.144	3.92761
1.1445	4.93469
1.145	1.3092
1.1455	-2.61841
1.146	-9.86938
1.1465	-14.60266
1.147	-4.73328
1.1475	0.10071
1.148	7.95593
1.1485	18.42957
1.149	15.71045
1.1495	11.2793
1.15	23.66638
1.1505	40.48462
1.151	56.90002
1.1515	59.71985
1.152	51.76392
1.1525	44.41223
1.153	24.67346
1.1535	2.92053
1.154	-13.99841
1.1545	-33.9386
1.155	-44.11011
1.1555	-52.16675
1.156	-62.23755
1.1565	-77.14233
1.157	-84.79614
1.1575	-82.27844
1.158	-76.7395
1.1585	-65.96375
1.159	-59.61914
1.1595	-55.2887
1.16	-47.93701
1.1605	-42.49878
1.161	-34.74426
1.1615	-18.42957
1.162	-8.56018
1.1625	2.41699
1.163	4.63257
1.1635	9.36584
1.164	9.06372
1.1645	14.70337
1.165	4.43115
1.1655	3.8269
1.166	-0.60425
1.1665	-1.61133
1.167	0.50354
1.1675	-0.50354
1.168	-2.11487
1.1685	-7.35168
1.169	-4.02832
1.1695	-4.22974
1.17	-8.56018
1.1705	-0.70496
1.171	4.93469
1.1715	3.42407
1.172	10.0708
1.1725	10.17151
1.173	7.85522
1.1735	6.94885
1.174	4.93469
1.1745	-0.20142
1.175	3.02124
1.1755	5.74036
1.176	2.61841
1.1765	5.0354
1.177	10.17151
1.1775	13.49487
1.178	6.94885
1.1785	13.99841
1.179	9.46655
1.1795	8.96301
1.18	6.44531
1.1805	3.8269
1.181	9.76868
1.1815	18.12744
1.182	21.04797
1.1825	15.1062
1.183	15.71045
1.1835	18.63098
1.184	13.99841
1.1845	12.48779
1.185	9.97009
1.1855	7.04956
1.186	8.05664
1.1865	10.77576
1.187	13.29346
1.1875	14.19983
1.188	11.17859
1.1885	13.89771
1.189	15.30762
1.1895	18.63098
1.19	12.5885
1.1905	17.42249
1.191	16.41541
1.1915	11.88354
1.192	10.77576
1.1925	11.07788
1.193	11.88354
1.1935	13.797
1.194	13.29346
1.1945	8.96301
1.195	14.40125
1.1955	10.67505
1.196	6.54602
1.1965	7.85522
1.197	10.77576
1.1975	14.30054
1.198	13.39417
1.1985	15.71045
1.199	7.25098
1.1995	14.90479
1.2	18.53027
1.2005	17.82532
1.201	13.29346
1.2015	14.90479
1.202	12.89062
1.2025	13.99841
1.203	11.88354
1.2035	10.47363
1.204	9.66797
1.2045	9.06372
1.205	15.40833
1.2055	6.44531
1.206	5.23682
1.2065	13.39417
1.207	17.52319
1.2075	16.81824
1.208	14.50195
1.2085	12.48779
1.209	13.39417
1.2095	16.81824
1.21	11.78284
1.2105	11.98425
1.211	9.26514
1.2115	15.00549
1.212	16.61682
1.2125	13.09204
1.213	15.81116
1.2135	17.42249
1.214	15.1062
1.2145	14.70337
1.215	10.47363
1.2155	13.19275
1.216	12.78992
1.2165	10.17151
1.217	12.48779
1.2175	16.41541
1.218	12.28638
1.2185	14.30054
1.219	12.68921
1.2195	8.35876
1.22	9.76868
1.2205	13.99841
1.221	13.69629
1.2215	14.90479
1.222	11.88354
1.2225	11.07788
1.223	5.43823
1.2235	3.62549
1.224	3.52478
1.2245	7.65381
1.225	1.40991
1.2255	8.15735
1.226	7.5531
1.2265	7.75452
1.227	10.47363
1.2275	10.37292
1.228	11.17859
1.2285	14.19983
1.229	12.18567
1.2295	21.14868
1.23	20.44373
1.2305	18.02673
1.231	18.02673
1.2315	15.30762
1.232	11.38
1.2325	18.32886
1.233	20.74585
1.2335	9.56726
1.234	11.48071
1.2345	6.74744
1.235	5.84106
1.2355	5.13611
1.236	10.17151
1.2365	7.35168
1.237	12.5885
1.2375	5.74036
1.238	6.74744
1.2385	7.15027
1.239	0.80566
1.2395	4.12903
1.24	4.63257
1.2405	6.04248
1.241	0.90637
1.2415	-6.3446
1.242	-9.26514
1.2425	-8.7616
1.243	-6.94885
1.2435	-12.48779
1.244	-15.91187
1.2445	-16.11328
1.245	-12.18567
1.2455	-4.83398
1.246	-2.61841
1.2465	5.23682
1.247	7.45239
1.2475	4.63257
1.248	5.74036
1.2485	-3.92761
1.249	6.74744
1.2495	9.36584
1.25	9.66797
1.2505	11.68213
1.251	10.27222
1.2515	5.13611
1.252	-0.10071
1.2525	-0.50354
1.253	0
1.2535	-0.80566
1.254	-1.91345
1.2545	-1.91345
1.255	-5.84106
1.2555	-6.14319
1.256	-4.33044
1.2565	-2.92053
1.257	-0.60425
1.2575	1.40991
1.258	-2.41699
1.2585	5.63965
1.259	7.45239
1.2595	13.29346
1.26	8.96301
1.2605	9.36584
1.261	5.23682
1.2615	6.14319
1.262	10.47363
1.2625	15.00549
1.263	12.18567
1.2635	12.38708
1.264	7.35168
1.2645	5.33752
1.265	0.80566
1.2655	2.41699
1.266	0.30212
1.2665	2.92053
1.267	1.71204
1.2675	0.60425
1.268	0.70496
1.2685	-0.40283
1.269	4.12903
1.2695	6.84814
1.27	8.35876
1.2705	11.38
1.271	12.48779
1.2715	7.25098
1.272	13.69629
1.2725	10.97717
1.273	10.0708
1.2735	17.22107
1.274	15.91187
1.2745	21.85364
1.275	21.75293
1.2755	23.16284
1.276	24.97559
1.2765	28.70178
1.277	30.41382
1.2775	30.71594
1.278	29.70886
1.2785	25.177
1.279	16.81824
1.2795	3.7262
1.28	3.7262
1.2805	-5.23682
1.281	-18.53027
1.2815	-23.16284
1.282	-29.20532
1.2825	-32.62939
1.283	-30.2124
1.2835	-34.34143
1.284	-35.04639
1.2845	-39.57825
1.285	-31.82373
1.2855	-18.32886
1.286	-10.67505
1.2865	2.31628
1.287	5.33752
1.2875	9.16443
1.288	9.56726
1.2885	17.32178
1.289	7.15027
1.2895	3.52478
1.29	4.33044
1.2905	14.30054
1.291	17.72461
1.2915	22.15576
1.292	20.04089
1.2925	17.72461
1.293	17.42249
1.2935	6.3446
1.294	2.92053
1.2945	6.44531
1.295	5.0354
1.2955	6.64673
1.296	4.22974
1.2965	3.02124
1.297	0.80566
1.2975	-1.2085
1.298	-2.41699
1.2985	-4.43115
1.299	-8.96301
1.2995	-8.45947
1.3	3.32336
1.3005	1.00708
1.301	7.15027
1.3015	9.76868
1.302	1.51062
1.3025	1.91345
1.303	6.74744
1.3035	4.43115
1.304	2.31628
1.3045	8.8623
1.305	6.94885
1.3055	1.40991
1.306	2.81982
1.3065	7.85522
1.307	6.94885
1.3075	8.05664
1.308	8.15735
1.3085	9.56726
1.309	6.84814
1.3095	12.48779
1.31	21.55151
1.3105	15.30762
1.311	16.11328
1.3115	19.13452
1.312	15.40833
1.3125	12.08496
1.313	8.8623
1.3135	14.50195
1.314	17.32178
1.3145	14.90479
1.315	13.99841
1.3155	6.14319
1.316	8.35876
1.3165	9.76868
1.317	13.797
1.3175	11.68213
1.318	13.99841
1.3185	11.58142
1.319	7.45239
1.3195	5.63965
1.32	-0.80566
1.3205	2.41699
1.321	1.3092
1.3215	1.81274
1.322	7.95593
1.3225	8.05664
1.323	5.84106
1.3235	2.81982
1.324	-0.70496
1.3245	5.43823
1.325	9.46655
1.3255	7.85522
1.326	8.8623
1.3265	9.46655
1.327	12.48779
1.3275	15.81116
1.328	7.35168
1.3285	8.45947
1.329	11.88354
1.3295	14.80408
1.33	8.25806
1.3305	4.83398
1.331	11.17859
1.3315	7.5531
1.332	5.23682
1.3325	8.96301
1.333	12.28638
1.3335	10.17151
1.334	4.33044
1.3345	2.81982
1.335	2.31628
1.3355	5.23682
1.336	11.38
1.3365	13.39417
1.337	11.58142
1.3375	7.85522
1.338	7.45239
1.3385	4.53186
1.339	4.63257
1.3395	4.02832
1.34	2.5177
1.3405	1.91345
1.341	6.64673
1.3415	3.12195
1.342	2.61841
1.3425	2.5177
1.343	1.40991
1.3435	0.80566
1.344	6.14319
1.3445	7.85522
1.345	5.84106
1.3455	6.2439
1.346	5.53894
1.3465	5.84106
1.347	11.07788
1.3475	10.27222
1.348	12.99133
1.3485	9.46655
1.349	8.8623
1.3495	12.99133
1.35	10.47363
1.3505	12.08496
1.351	7.04956
1.3515	5.63965
1.352	2.11487
1.3525	6.04248
1.353	11.58142
1.3535	10.17151
1.354	7.85522
1.3545	4.83398
1.355	0.50354
1.3555	-0.60425
1.356	0
1.3565	-2.01416
1.357	2.31628
1.3575	3.32336
1.358	7.5531
1.3585	5.33752
1.359	7.5531
1.3595	7.85522
1.36	6.64673
1.3605	7.15027
1.361	1.71204
1.3615	-3.7262
1.362	-1.91345
1.3625	7.65381
1.363	0.40283
1.3635	5.0354
1.364	4.02832
1.3645	1.51062
1.365	9.66797
1.3655	5.53894
1.366	4.83398
1.3665	9.16443
1.367	12.78992
1.3675	7.25098
1.368	9.26514
1.3685	2.71912
1.369	9.86938
1.3695	10.27222
1.37	4.33044
1.3705	1.91345
1.371	6.84814
1.3715	-0.10071
1.372	0.20142
1.3725	2.21558
1.373	4.93469
1.3735	5.43823
1.374	7.75452
1.3745	16.01257
1.375	11.17859
1.3755	6.54602
1.376	10.0708
1.3765	5.53894
1.377	4.53186
1.3775	7.65381
1.378	9.46655
1.3785	7.15027
1.379	10.47363
1.3795	12.18567
1.38	12.38708
1.3805	8.15735
1.381	13.39417
1.3815	9.86938
1.382	2.71912
1.3825	3.22266
1.383	4.63257
1.3835	5.13611
1.384	3.52478
1.3845	4.83398
1.385	5.84106
1.3855	-1.81274
1.386	-1.10779
1.3865	-0.10071
1.387	-4.73328
1.3875	-2.71912
1.388	-2.11487
1.3885	6.14319
1.389	5.94177
1.3895	2.41699
1.39	0.70496
1.3905	-6.84814
1.391	-2.61841
1.3915	3.02124
1.392	-0.60425
1.3925	-0.30212
1.393	-3.32336
1.3935	1.51062
1.394	-2.01416
1.3945	5.94177
1.395	6.54602
1.3955	9.86938
1.396	25.177
1.3965	27.99683
1.397	29.10461
1.3975	21.24939
1.398	21.3501
1.3985	25.47913
1.399	20.74585
1.3995	16.11328
1.4	11.17859
1.4005	10.87646
1.401	4.63257
1.4015	-12.28638
1.402	-16.71753
1.4025	-20.54443
1.403	-20.04089
1.4035	-17.6239
1.404	-8.56018
1.4045	0.90637
1.405	1.3092
1.4055	2.21558
1.406	2.41699
1.4065	2.01416
1.407	4.63257
1.4075	-0.30212
1.408	-3.02124
1.4085	-15.40833
1.409	-27.79541
1.4095	-38.974
1.41	-51.46179
1.4105	-42.19666
1.411	-42.09595
1.4115	-35.2478
1.412	-36.15417
1.4125	-30.71594
1.413	-27.89612
1.4135	-17.42249
1.414	0.20142
1.4145	3.8269
1.415	9.66797
1.4155	10.57434
1.416	9.46655
1.4165	7.15027
1.417	7.35168
1.4175	11.88354
1.418	13.49487
1.4185	11.98425
1.419	11.68213
1.4195	11.07788
1.42	12.89062
1.4205	13.39417
1.421	13.49487
1.4215	9.56726
1.422	13.797
1.4225	17.6239
1.423	9.76868
1.4235	10.57434
1.424	11.68213
1.4245	12.08496
1.425	6.14319
1.4255	10.0708
1.426	11.58142
1.4265	11.2793
1.427	4.73328
1.4275	13.19275
1.428	15.1062
1.4285	13.39417
1.429	12.38708
1.4295	15.30762
1.43	11.38
1.4305	9.26514
1.431	-0.50354
1.4315	1.51062
1.432	3.52478
1.4325	3.32336
1.433	4.22974
1.4335	4.43115
1.434	5.43823
1.4345	2.71912
1.435	-3.52478
1.4355	2.41699
1.436	-2.71912
1.4365	-3.12195
1.437	-3.02124
1.4375	-1.10779
1.438	3.02124
1.4385	5.74036
1.439	3.12195
1.4395	0.50354
1.44	3.12195
1.4405	11.48071
1.441	15.40833
1.4415	20.74585
1.442	18.32886
1.4425	15.30762
1.443	13.49487
1.4435	17.6239
1.444	11.2793
1.4445	17.22107
1.445	20.74585
1.4455	20.54443
1.446	18.73169
1.4465	16.11328
1.447	17.72461
1.4475	18.02673
1.448	13.49487
1.4485	5.13611
1.449	-3.12195
1.4495	-0.20142
1.45	-0.80566
1.4505	-1.2085
1.451	0.20142
1.4515	-2.41699
1.452	-1.61133
1.4525	-5.23682
1.453	-2.5177
1.4535	-10.17151
1.454	-16.51611
1.4545	-8.05664
1.455	-5.33752
1.4555	-1.61133
1.456	-0.80566
1.4565	2.31628
1.457	4.93469
1.4575	2.41699
1.458	3.7262
1.4585	0.70496
1.459	0
1.4595	-3.92761
1.46	-0.90637
1.4605	5.0354
1.461	9.06372
1.4615	10.57434
1.462	2.21558
1.4625	-1.2085
1.463	-1.81274
1.4635	-2.61841
1.464	4.93469
1.4645	5.23682
1.465	5.94177
1.4655	8.25806
1.466	4.12903
1.4665	-1.51062
1.467	-0.20142
1.4675	-1.81274
1.468	4.12903
1.4685	9.46655
1.469	10.77576
1.4695	2.31628
1.47	6.44531
1.4705	-1.51062
1.471	-0.90637
1.4715	-5.13611
1.472	-9.16443
1.4725	2.21558
1.473	6.14319
1.4735	19.23523
1.474	19.83948
1.4745	31.72302
1.475	32.32727
1.4755	29.80957
1.476	26.98975
1.4765	22.55859
1.477	19.23523
1.4775	9.97009
1.478	5.33752
1.4785	2.61841
1.479	-3.02124
1.4795	-9.06372
1.48	-11.98425
1.4805	-11.48071
1.481	-10.67505
1.4815	-15.71045
1.482	-15.60974
1.4825	-14.19983
1.483	-12.89062
1.4835	-13.49487
1.484	-3.92761
1.4845	-5.94177
1.485	0.60425
1.4855	0.70496
1.486	4.73328
1.4865	1.91345
1.487	-2.71912
1.4875	-1.3092
1.488	0.80566
1.4885	-1.40991
1.489	3.52478
1.4895	8.25806
1.49	14.30054
1.4905	15.50903
1.491	16.81824
1.4915	17.12036
1.492	17.82532
1.4925	13.59558
1.493	21.65222
1.4935	26.88904
1.494	21.85364
1.4945	20.94727
1.495	13.89771
1.4955	13.39417
1.496	23.76709
1.4965	25.07629
1.497	22.25647
1.4975	20.04089
1.498	22.76001
1.4985	22.15576
1.499	19.23523
1.4995	15.60974
1.5	9.97009
1.5005	15.1062
1.501	10.0708
1.5015	6.04248
1.502	5.94177
1.5025	2.61841
1.503	7.04956
1.5035	11.17859
1.504	20.34302
1.5045	33.53577
1.505	35.54993
1.5055	31.92444
1.506	25.88196
1.5065	18.02673
1.507	16.01257
1.5075	6.94885
1.508	0.70496
1.5085	-5.23682
1.509	-12.99133
1.5095	-12.38708
1.51	-8.05664
1.5105	-1.3092
1.511	-0.70496
1.5115	-1.3092
1.512	-2.21558
1.5125	1.51062
1.513	0.30212
1.5135	-2.01416
1.514	-6.2439
1.5145	-13.49487
1.515	-17.22107
1.5155	-25.88196
1.516	-23.8678
1.5165	-31.62231
1.517	-29.60815
1.5175	-32.22656
1.518	-28.39966
1.5185	-16.01257
1.519	0.60425
1.5195	10.87646
1.52	34.74426
1.5205	45.01648
1.521	53.07312
1.5215	63.84888
1.522	68.98499
1.5225	72.9126
1.523	65.3595
1.5235	55.79224
1.524	47.93701
1.5245	35.65063
1.525	29.40674
1.5255	27.79541
1.526	19.33594
1.5265	0.10071
1.527	-3.92761
1.5275	-14.40125
1.528	-23.8678
1.5285	-32.52869
1.529	-40.58533
1.5295	-52.46887
1.53	-55.99365
1.5305	-56.19507
1.531	-53.97949
1.5315	-44.41223
1.532	-34.84497
1.5325	-30.2124
1.533	-20.94727
1.5335	-27.79541
1.534	-18.8324
1.5345	-11.98425
1.535	-9.26514
1.5355	-5.63965
1.536	0.90637
1.5365	0.10071
1.537	-1.81274
1.5375	5.33752
1.538	9.46655
1.5385	12.78992
1.539	13.59558
1.5395	9.36584
1.54	2.31628
1.5405	2.01416
1.541	3.32336
1.5415	2.71912
1.542	3.12195
1.5425	5.74036
1.543	8.45947
1.5435	2.41699
1.544	6.2439
1.5445	-0.50354
1.545	-2.21558
1.5455	-2.41699
1.546	-0.90637
1.5465	2.31628
1.547	13.29346
1.5475	23.76709
1.548	20.24231
1.5485	27.89612
1.549	21.24939
1.5495	23.06213
1.55	15.00549
1.5505	12.5885
1.551	11.2793
1.5515	8.8623
1.552	4.43115
1.5525	1.91345
1.553	-0.40283
1.5535	-1.10779
1.554	-1.81274
1.5545	-0.10071
1.555	-0.20142
1.5555	-1.61133
1.556	3.32336
1.5565	4.22974
1.557	0.40283
1.5575	1.00708
1.558	-2.5177
1.5585	-1.51062
1.559	1.91345
1.5595	7.15027
1.56	4.12903
1.5605	0.80566
1.561	0.70496
1.5615	1.71204
1.562	10.27222
1.5625	8.45947
1.563	7.75452
1.5635	12.18567
1.564	8.56018
1.5645	15.71045
1.565	16.81824
1.5655	18.63098
1.566	16.21399
1.5665	6.2439
1.567	4.02832
1.5675	6.94885
1.568	11.2793
1.5685	4.43115
1.569	1.10779
1.5695	8.25806
1.57	3.62549
1.5705	4.93469
1.571	7.35168
1.5715	14.09912
1.572	9.56726
1.5725	13.39417
1.573	11.17859
1.5735	8.56018
1.574	14.90479
1.5745	14.70337
1.575	9.86938
1.5755	15.60974
1.576	18.53027
1.5765	23.06213
1.577	23.16284
1.5775	15.71045
1.578	13.59558
1.5785	17.01965
1.579	12.89062
1.5795	15.20691
1.58	11.2793
1.5805	1.81274
1.581	2.61841
1.5815	-4.73328
1.582	-6.3446
1.5825	-10.0708
1.583	-13.69629
1.5835	-3.22266
1.584	5.74036
1.5845	15.71045
1.585	23.06213
1.5855	19.63806
1.586	24.67346
1.5865	22.55859
1.587	28.80249
1.5875	23.66638
1.588	19.33594
1.5885	20.04089
1.589	15.60974
1.5895	11.88354
1.59	5.43823
1.5905	-1.81274
1.591	-1.51062
1.5915	-5.84106
1.592	-11.17859
1.5925	-18.73169
1.593	-16.3147
1.5935	-15.81116
1.594	-7.35168
1.5945	-0.70496
1.595	1.40991
1.5955	-0.60425
1.596	-6.44531
1.5965	-5.33752
1.597	-1.00708
1.5975	4.73328
1.598	9.06372
1.5985	8.8623
1.599	19.63806
1.5995	11.58142
1.6	10.17151
1.6005	17.82532
1.601	15.30762
1.6015	19.73877
1.602	22.76001
1.6025	18.73169
1.603	22.86072
1.6035	22.25647
1.604	20.54443
1.6045	19.43665
1.605	23.36426
1.6055	16.61682
1.606	14.30054
1.6065	7.75452
1.607	10.37292
1.6075	9.36584
1.608	19.03381
1.6085	20.94727
1.609	24.37134
1.6095	23.16284
1.61	17.82532
1.6105	23.76709
1.611	15.50903
1.6115	13.59558
1.612	11.38
1.6125	5.74036
1.613	-1.51062
1.6135	-9.66797
1.614	-11.98425
1.6145	-15.1062
1.615	-14.19983
1.6155	-17.92603
1.616	-18.63098
1.6165	-17.42249
1.617	-14.70337
1.6175	-12.99133
1.618	-11.88354
1.6185	-5.94177
1.619	-3.22266
1.6195	0.60425
1.62	3.8269
1.6205	0
1.621	2.71912
1.6215	3.42407
1.622	6.84814
1.6225	3.12195
1.623	5.43823
1.6235	4.73328
1.624	6.64673
1.6245	9.16443
1.625	7.95593
1.6255	9.26514
1.626	6.84814
1.6265	7.35168
1.627	7.04956
1.6275	4.73328
1.628	5.13611
1.6285	3.32336
1.629	2.01416
1.6295	1.10779
1.63	6.44531
1.6305	11.07788
1.631	12.28638
1.6315	5.43823
1.632	9.86938
1.6325	9.97009
1.633	11.48071
1.6335	7.25098
1.634	8.8623
1.6345	2.81982
1.635	6.64673
1.6355	5.84106
1.636	7.45239
1.6365	10.87646
1.637	9.66797
1.6375	4.93469
1.638	9.26514
1.6385	12.18567
1.639	7.25098
1.6395	12.38708
1.64	12.89062
1.6405	19.63806
1.641	20.44373
1.6415	25.68054
1.642	24.87488
1.6425	31.4209
1.643	24.57275
1.6435	25.27771
1.644	25.47913
1.6445	27.59399
1.645	23.26355
1.6455	24.06921
1.646	25.07629
1.6465	21.55151
1.647	19.43665
1.6475	17.42249
1.648	17.01965
1.6485	8.7616
1.649	7.85522
1.6495	-4.22974
1.65	-18.12744
1.6505	-24.77417
1.651	-31.32019
1.6515	-31.52161
1.652	-36.4563
1.6525	-36.4563
1.653	-35.54993
1.6535	-27.79541
1.654	-17.82532
1.6545	-17.22107
1.655	-4.43115
1.6555	-0.10071
1.656	6.64673
1.6565	9.46655
1.657	4.02832
1.6575	5.33752
1.658	7.35168
1.6585	3.32336
1.659	1.61133
1.6595	2.31628
1.66	6.94885
1.6605	9.26514
1.661	14.09912
1.6615	22.6593
1.662	18.63098
1.6625	20.64514
1.663	14.30054
1.6635	9.16443
1.664	12.5885
1.6645	11.2793
1.665	8.96301
1.6655	11.88354
1.666	6.54602
1.6665	10.17151
1.667	3.22266
1.6675	4.93469
1.668	5.23682
1.6685	-0.10071
1.669	5.53894
1.6695	4.73328
1.67	2.11487
1.6705	-1.00708
1.671	1.51062
1.6715	8.15735
1.672	6.3446
1.6725	1.51062
1.673	3.8269
1.6735	7.25098
1.674	12.48779
1.6745	13.29346
1.675	9.16443
1.6755	12.89062
1.676	11.2793
1.6765	3.92761
1.677	8.8623
1.6775	14.09912
1.678	13.49487
1.6785	8.96301
1.679	19.83948
1.6795	17.72461
1.68	21.95435
1.6805	18.63098
1.681	18.63098
1.6815	14.70337
1.682	13.797
1.6825	6.04248
1.683	8.66089
1.6835	6.54602
1.684	6.84814
1.6845	4.12903
1.685	1.10779
1.6855	-1.2085
1.686	-2.31628
1.6865	-10.47363
1.687	-11.17859
1.6875	-10.77576
1.688	-5.53894
1.6885	-10.17151
1.689	-5.84106
1.6895	-5.43823
1.69	-6.14319
1.6905	-1.40991
1.691	1.2085
1.6915	1.40991
1.692	5.13611
1.6925	4.73328
1.693	-2.5177
1.6935	-1.10779
1.694	-1.91345
1.6945	-2.21558
1.695	5.13611
1.6955	0.10071
1.696	-1.10779
1.6965	-1.61133
1.697	4.63257
1.6975	5.94177
1.698	3.62549
1.6985	5.84106
1.699	8.8623
1.6995	1.10779
1.7	0.60425
1.7005	-2.5177
1.701	1.10779
1.7015	-1.61133
1.702	-4.53186
1.7025	-0.70496
1.703	-3.02124
1.7035	1.40991
1.704	-3.62549
1.7045	-2.01416
1.705	-8.66089
1.7055	-3.22266
1.706	-6.44531
1.7065	-1.91345
1.707	-5.13611
1.7075	1.91345
1.708	-2.61841
1.7085	5.43823
1.709	4.22974
1.7095	5.33752
1.71	4.12903
1.7105	5.13611
1.711	6.84814
1.7115	8.66089
1.712	5.84106
1.7125	12.89062
1.713	19.13452
1.7135	22.6593
1.714	21.04797
1.7145	17.72461
1.715	12.68921
1.7155	8.35876
1.716	10.37292
1.7165	9.36584
1.717	6.3446
1.7175	9.26514
1.718	3.7262
1.7185	1.71204
1.719	3.22266
1.7195	5.23682
1.72	1.10779
1.7205	-2.01416
1.721	-2.81982
1.7215	0.80566
1.722	5.63965
1.7225	9.06372
1.723	6.3446
1.7235	2.21558
1.724	0.10071
1.7245	5.43823
1.725	0.40283
1.7255	10.27222
1.726	5.63965
1.7265	2.71912
1.727	-3.42407
1.7275	-2.92053
1.728	-6.84814
1.7285	-7.45239
1.729	-1.71204
1.7295	1.3092
1.73	7.25098
1.7305	9.66797
1.731	8.96301
1.7315	3.22266
1.732	-1.2085
1.7325	3.02124
1.733	8.96301
1.7335	7.25098
1.734	3.22266
1.7345	-8.15735
1.735	-6.54602
1.7355	-11.07788
1.736	-3.22266
1.7365	-4.02832
1.737	0.80566
1.7375	0.50354
1.738	7.5531
1.7385	11.98425
1.739	14.60266
1.7395	13.49487
1.74	11.07788
1.7405	13.59558
1.741	7.65381
1.7415	5.33752
1.742	12.89062
1.7425	9.97009
1.743	5.13611
1.7435	0.70496
1.744	-4.43115
1.7445	-2.31628
1.745	-4.33044
1.7455	-2.01416
1.746	1.10779
1.7465	-3.8269
1.747	1.2085
1.7475	2.01416
1.748	2.5177
1.7485	8.66089
1.749	0.50354
1.7495	7.85522
1.75	11.07788
1.7505	10.0708
1.751	8.45947
1.7515	9.76868
1.752	12.28638
1.7525	12.78992
1.753	9.66797
1.7535	11.98425
1.754	7.45239
1.7545	2.11487
1.755	3.32336
1.7555	1.81274
1.756	7.85522
1.7565	8.66089
1.757	9.26514
1.7575	7.04956
1.758	6.94885
1.7585	4.93469
1.759	6.3446
1.7595	4.33044
1.76	-0.20142
1.7605	0.90637
1.761	-1.61133
1.7615	-6.74744
1.762	-8.45947
1.7625	-2.01416
1.763	2.31628
1.7635	3.92761
1.764	4.02832
1.7645	6.94885
1.765	7.45239
1.7655	6.64673
1.766	3.02124
1.7665	7.25098
1.767	5.13611
1.7675	11.17859
1.768	17.92603
1.7685	27.89612
1.769	31.62231
1.7695	35.14709
1.77	35.2478
1.7705	38.77258
1.771	32.93152
1.7715	21.65222
1.772	15.50903
1.7725	13.49487
1.773	6.14319
1.7735	-0.60425
1.774	-13.89771
1.7745	-15.1062
1.775	-18.42957
1.7755	-19.83948
1.776	-20.44373
1.7765	-14.09912
1.777	-10.37292
1.7775	-7.95593
1.778	-2.01416
1.7785	2.81982
1.779	11.48071
1.7795	15.81116
1.78	20.64514
1.7805	16.91895
1.781	11.58142
1.7815	14.40125
1.782	10.27222
1.7825	3.42407
1.783	0.40283
1.7835	-7.85522
1.784	-16.3147
1.7845	-20.34302
1.785	-21.65222
1.7855	-19.13452
1.786	-23.16284
1.7865	-23.76709
1.787	-22.76001
1.7875	-15.60974
1.788	-12.89062
1.7885	-1.51062
1.789	2.21558
1.7895	10.57434
1.79	17.12036
1.7905	11.78284
1.791	16.71753
1.7915	10.0708
1.792	7.25098
1.7925	4.43115
1.793	4.33044
1.7935	5.94177
1.794	8.8623
1.7945	10.97717
1.795	5.53894
1.7955	11.68213
1.796	10.57434
1.7965	14.40125
1.797	12.48779
1.7975	13.19275
1.798	9.76868
1.7985	14.50195
1.799	13.29346
1.7995	7.95593
1.8	10.97717
1.8005	10.37292
1.801	2.71912
1.8015	10.0708
1.802	9.66797
1.8025	5.63965
1.803	2.31628
1.8035	10.77576
1.804	10.17151
1.8045	8.15735
1.805	5.0354
1.8055	4.73328
1.806	2.61841
1.8065	5.23682
1.807	8.8623
1.8075	11.98425
1.808	13.39417
1.8085	15.60974
1.809	16.41541
1.8095	10.97717
1.81	10.17151
1.8105	8.8623
1.811	6.2439
1.8115	8.96301
1.812	10.87646
1.8125	10.37292
1.813	11.68213
1.8135	15.20691
1.814	16.81824
1.8145	11.78284
1.815	9.86938
1.8155	10.47363
1.816	8.8623
1.8165	9.46655
1.817	8.66089
1.8175	9.26514
1.818	8.25806
1.8185	8.45947
1.819	11.2793
1.8195	16.71753
1.82	18.02673
1.8205	18.73169
1.821	16.41541
1.8215	10.87646
1.822	6.44531
1.8225	7.75452
1.823	5.63965
1.8235	2.92053
1.824	2.31628
1.8245	2.5177
1.825	3.02124
1.8255	-1.00708
1.826	0.60425
1.8265	1.10779
1.827	-0.70496
1.8275	-3.42407
1.828	5.43823
1.8285	3.92761
1.829	3.92761
1.8295	7.15027
1.83	8.15735
1.8305	14.80408
1.831	13.59558
1.8315	13.29346
1.832	14.09912
1.8325	17.12036
1.833	17.01965
1.8335	12.08496
1.834	16.3147
1.8345	19.63806
1.835	14.40125
1.8355	15.30762
1.836	14.09912
1.8365	14.90479
1.837	13.29346
1.8375	14.50195
1.838	10.17151
1.8385	14.09912
1.839	12.68921
1.8395	8.25806
1.84	12.28638
1.8405	12.5885
1.841	14.19983
1.8415	10.87646
1.842	4.33044
1.8425	-3.22266
1.843	-3.52478
1.8435	3.22266
1.844	-1.3092
1.8445	-4.53186
1.845	2.92053
1.8455	5.0354
1.846	5.94177
1.8465	7.04956
1.847	4.12903
1.8475	3.32336
1.848	5.23682
1.8485	5.63965
1.849	7.65381
1.8495	8.56018
1.85	5.94177
1.8505	2.31628
1.851	4.22974
1.8515	-2.41699
1.852	6.2439
1.8525	10.57434
1.853	6.14319
1.8535	6.64673
1.854	7.95593
1.8545	2.81982
1.855	5.0354
1.8555	1.81274
1.856	3.22266
1.8565	12.18567
1.857	17.82532
1.8575	8.66089
1.858	7.45239
1.8585	10.87646
1.859	9.86938
1.8595	15.1062
1.86	14.90479
1.8605	11.07788
1.861	12.28638
1.8615	4.33044
1.862	0.70496
1.8625	12.89062
1.863	15.30762
1.8635	10.87646
1.864	5.33752
1.8645	5.63965
1.865	8.8623
1.8655	13.49487
1.866	7.5531
1.8665	9.56726
1.867	11.58142
1.8675	8.35876
1.868	7.95593
1.8685	2.71912
1.869	6.14319
1.8695	5.94177
1.87	10.57434
1.8705	11.78284
1.871	5.0354
1.8715	-3.12195
1.872	-2.01416
1.8725	1.51062
1.873	-0.30212
1.8735	1.10779
1.874	1.51062
1.8745	4.43115
1.875	5.23682
1.8755	3.02124
1.876	5.33752
1.8765	2.21558
1.877	3.32336
1.8775	5.63965
1.878	6.64673
1.8785	7.04956
1.879	8.35876
1.8795	6.2439
1.88	9.56726
1.8805	6.54602
1.881	8.05664
1.8815	8.05664
1.882	1.51062
1.8825	8.05664
1.883	7.15027
1.8835	0.70496
1.884	-0.80566
1.8845	3.12195
1.885	0.90637
1.8855	6.14319
1.886	6.54602
1.8865	5.63965
1.887	2.61841
1.8875	0.20142
1.888	-2.01416
1.8885	-3.92761
1.889	-2.31628
1.8895	4.73328
1.89	1.91345
1.8905	0.50354
1.891	3.02124
1.8915	7.5531
1.892	6.14319
1.8925	11.17859
1.893	12.18567
1.8935	6.54602
1.894	7.65381
1.8945	2.81982
1.895	6.64673
1.8955	10.0708
1.896	11.48071
1.8965	8.45947
1.897	9.36584
1.8975	12.48779
1.898	6.3446
1.8985	4.02832
1.899	1.81274
1.8995	1.61133
1.9	5.84106
1.9005	7.04956
1.901	5.0354
1.9015	7.15027
1.902	2.81982
1.9025	3.7262
1.903	7.25098
1.9035	9.86938
1.904	10.0708
1.9045	11.17859
1.905	19.63806
1.9055	16.61682
1.906	14.80408
1.9065	5.94177
1.907	5.33752
1.9075	5.74036
1.908	2.41699
1.9085	-1.91345
1.909	1.3092
1.9095	0
1.91	6.2439
1.9105	12.48779
1.911	22.25647
1.9115	19.33594
1.912	14.19983
1.9125	18.8324
1.913	20.94727
1.9135	19.33594
1.914	16.81824
1.9145	5.13611
1.915	-2.92053
1.9155	-1.91345
1.916	-9.76868
1.9165	-13.39417
1.917	-17.52319
1.9175	-19.63806
1.918	-15.60974
1.9185	-16.21399
1.919	-13.29346
1.9195	-12.68921
1.92	-6.94885
1.9205	-8.56018
1.921	-3.12195
1.9215	-4.02832
1.922	3.62549
1.9225	7.75452
1.923	13.29346
1.9235	8.56018
1.924	11.07788
1.9245	10.57434
1.925	5.43823
1.9255	9.76868
1.926	2.81982
1.9265	8.8623
1.927	2.71912
1.9275	3.92761
1.928	10.0708
1.9285	6.94885
1.929	13.09204
1.9295	14.90479
1.93	10.47363
1.9305	7.95593
1.931	11.38
1.9315	7.85522
1.932	12.99133
1.9325	8.7616
1.933	12.68921
1.9335	10.27222
1.934	10.97717
1.9345	3.52478
1.935	3.92761
1.9355	4.83398
1.936	2.81982
1.9365	-0.20142
1.937	6.54602
1.9375	10.97717
1.938	8.45947
1.9385	16.71753
1.939	27.29187
1.9395	25.37842
1.94	25.68054
1.9405	30.81665
1.941	28.09753
1.9415	26.18408
1.942	26.88904
1.9425	29.30603
1.943	29.60815
1.9435	27.6947
1.944	25.78125
1.9445	26.58691
1.945	25.98267
1.9455	28.39966
1.946	20.54443
1.9465	15.60974
1.947	10.37292
1.9475	4.53186
1.948	3.62549
1.9485	-4.73328
1.949	-16.71753
1.9495	-19.94019
1.95	-30.51453
1.9505	-34.84497
1.951	-31.62231
1.9515	-29.70886
1.952	-26.48621
1.9525	-24.77417
1.953	-18.73169
1.9535	-13.99841
1.954	-5.23682
1.9545	3.02124
1.955	4.53186
1.9555	9.76868
1.956	7.5531
1.9565	12.38708
1.957	16.01257
1.9575	12.38708
1.958	15.20691
1.9585	15.60974
1.959	18.12744
1.9595	18.22815
1.96	11.07788
1.9605	12.89062
1.961	10.67505
1.9615	14.30054
1.962	8.66089
1.9625	16.21399
1.963	11.07788
1.9635	17.42249
1.964	14.60266
1.9645	10.27222
1.965	10.97717
1.9655	13.29346
1.966	10.97717
1.9665	15.20691
1.967	7.15027
1.9675	9.26514
1.968	6.3446
1.9685	4.73328
1.969	3.02124
1.9695	7.04956
1.97	3.02124
1.9705	5.84106
1.971	6.04248
1.9715	7.45239
1.972	4.73328
1.9725	6.3446
1.973	1.81274
1.9735	5.43823
1.974	1.10779
1.9745	6.2439
1.975	2.41699
1.9755	1.10779
1.976	4.63257
1.9765	0.40283
1.977	2.11487
1.9775	1.40991
1.978	-4.83398
1.9785	-2.01416
1.979	0
1.9795	-2.61841
1.98	0.20142
1.9805	3.32336
1.981	3.52478
1.9815	5.53894
1.982	5.13611
1.9825	7.25098
1.983	8.05664
1.9835	-0.30212
1.984	7.35168
1.9845	6.04248
1.985	7.85522
1.9855	7.75452
1.986	5.84106
1.9865	5.84106
1.987	-0.50354
1.9875	6.04248
1.988	6.54602
1.9885	1.3092
1.989	1.2085
1.9895	1.3092
1.99	11.38
1.9905	7.04956
1.991	15.71045
1.9915	9.76868
1.992	15.50903
1.9925	12.89062
1.993	15.20691
1.9935	18.42957
1.994	23.36426
1.9945	17.72461
1.995	10.67505
1.9955	7.95593
1.996	0
1.9965	2.92053
1.997	-1.51062
1.9975	-1.61133
1.998	-3.7262
1.9985	-6.14319
1.999	-5.84106
1.9995	-4.33044
2	0.60425
2.0005	-4.63257
2.001	5.33752
2.0015	3.8269
2.002	1.2085
2.0025	5.53894
2.003	2.31628
2.0035	-3.02124
2.004	-4.53186
2.0045	-2.41699
2.005	4.83398
2.0055	3.62549
2.006	8.45947
2.0065	5.33752
2.007	3.92761
2.0075	5.0354
2.008	5.23682
2.0085	1.10779
2.009	6.54602
2.0095	9.36584
2.01	8.7616
2.0105	7.25098
2.011	9.36584
2.0115	6.94885
2.012	9.76868
2.0125	8.8623
2.013	6.04248
2.0135	8.35876
2.014	-0.30212
2.0145	5.0354
2.015	6.44531
2.0155	10.27222
2.016	2.92053
2.0165	6.74744
2.017	10.77576
2.0175	11.68213
2.018	2.11487
2.0185	8.25806
2.019	7.35168
2.0195	6.04248
2.02	4.22974
2.0205	3.7262
2.021	9.26514
2.0215	5.23682
2.022	4.73328
2.0225	0.50354
2.023	-1.10779
2.0235	-2.21558
2.024	-4.83398
2.0245	0
2.025	-2.71912
2.0255	1.3092
2.026	1.3092
2.0265	6.3446
2.027	2.21558
2.0275	4.53186
2.028	8.25806
2.0285	12.18567
2.029	10.57434
2.0295	11.07788
2.03	7.25098
2.0305	6.04248
2.031	7.25098
2.0315	7.15027
2.032	2.5177
2.0325	3.42407
2.033	4.63257
2.0335	4.33044
2.034	6.64673
2.0345	8.35876
2.035	8.45947
2.0355	9.97009
2.036	9.26514
2.0365	10.47363
2.037	3.52478
2.0375	5.23682
2.038	9.46655
2.0385	10.67505
2.039	10.37292
2.0395	14.30054
2.04	9.26514
2.0405	5.23682
2.041	8.25806
2.0415	5.63965
2.042	6.54602
2.0425	14.80408
2.043	14.90479
2.0435	15.91187
2.044	16.21399
2.0445	14.09912
2.045	6.04248
2.0455	8.45947
2.046	8.15735
2.0465	3.22266
2.047	2.21558
2.0475	-3.32336
2.048	-2.01416
2.0485	0.10071
2.049	0.50354
2.0495	1.2085
2.05	4.33044
2.0505	3.92761
2.051	3.92761
2.0515	2.71912
2.052	4.02832
2.0525	-0.60425
2.053	-2.41699
2.0535	-0.40283
2.054	1.91345
2.0545	3.32336
2.055	3.42407
2.0555	6.54602
2.056	7.65381
2.0565	2.11487
2.057	4.53186
2.0575	4.53186
2.058	10.87646
2.0585	8.35876
2.059	9.06372
2.0595	11.88354
2.06	8.8623
2.0605	6.74744
2.061	6.54602
2.0615	7.25098
2.062	11.07788
2.0625	11.48071
2.063	18.02673
2.0635	12.68921
2.064	14.19983
2.0645	13.99841
2.065	9.76868
2.0655	10.67505
2.066	8.8623
2.0665	-2.81982
2.067	-3.62549
2.0675	-1.40991
2.068	-1.91345
2.0685	-3.8269
2.069	-2.41699
2.0695	-3.52478
2.07	5.13611
2.0705	6.3446
2.071	6.04248
2.0715	6.74744
2.072	7.25098
2.0725	6.14319
2.073	3.7262
2.0735	5.84106
2.074	10.0708
2.0745	14.09912
2.075	13.39417
2.0755	14.60266
2.076	20.74585
2.0765	18.22815
2.077	24.87488
2.0775	19.63806
2.078	26.28479
2.0785	19.73877
2.079	22.05505
2.0795	21.95435
2.08	21.45081
2.0805	17.01965
2.081	23.06213
2.0815	14.80408
2.082	12.38708
2.0825	3.52478
2.083	-2.92053
2.0835	-6.04248
2.084	-16.21399
2.0845	-28.9032
2.085	-24.47205
2.0855	-24.37134
2.086	-31.92444
2.0865	-29.10461
2.087	-27.49329
2.0875	-26.78833
2.088	-22.15576
2.0885	-24.57275
2.089	-13.09204
2.0895	-4.93469
2.09	0.10071
2.0905	5.94177
2.091	13.69629
2.0915	12.08496
2.092	9.86938
2.0925	7.15027
2.093	4.02832
2.0935	-1.3092
2.094	-1.91345
2.0945	-4.93469
2.095	-1.40991
2.0955	-0.70496
2.096	-2.01416
2.0965	5.23682
2.097	4.83398
2.0975	2.01416
2.098	2.41699
2.0985	2.61841
2.099	1.71204
2.0995	3.62549
2.1	-0.70496
2.1005	8.25806
2.101	5.84106
2.1015	8.66089
2.102	11.78284
2.1025	7.45239
2.103	10.57434
2.1035	11.38
2.104	10.97717
2.1045	13.09204
2.105	16.61682
2.1055	11.48071
2.106	13.89771
2.1065	17.01965
2.107	23.96851
2.1075	30.11169
2.108	25.07629
2.1085	22.35718
2.109	21.65222
2.1095	16.91895
2.11	12.99133
2.1105	18.22815
2.111	10.97717
2.1115	16.11328
2.112	12.28638
2.1125	11.38
2.113	8.35876
2.1135	10.77576
2.114	7.35168
2.1145	10.97717
2.115	8.45947
2.1155	7.25098
2.116	4.63257
2.1165	0
2.117	-2.21558
2.1175	-0.90637
2.118	-1.2085
2.1185	-0.10071
2.119	4.22974
2.1195	13.89771
2.12	14.09912
2.1205	11.68213
2.121	10.57434
2.1215	13.49487
2.122	11.48071
2.1225	12.68921
2.123	14.09912
2.1235	1.91345
2.124	-3.92761
2.1245	-5.43823
2.125	-1.3092
2.1255	3.8269
2.126	-1.81274
2.1265	-7.45239
2.127	-13.59558
2.1275	-10.0708
2.128	-2.81982
2.1285	-1.00708
2.129	0.60425
2.1295	3.32336
2.13	1.81274
2.1305	1.3092
2.131	9.26514
2.1315	7.95593
2.132	7.25098
2.1325	6.14319
2.133	4.12903
2.1335	-0.90637
2.134	8.15735
2.1345	5.43823
2.135	8.05664
2.1355	7.35168
2.136	15.00549
2.1365	7.04956
2.137	10.97717
2.1375	10.57434
2.138	12.68921
2.1385	9.86938
2.139	2.92053
2.1395	0.70496
2.14	9.36584
2.1405	16.51611
2.141	7.25098
2.1415	1.61133
2.142	2.31628
2.1425	6.3446
2.143	6.44531
2.1435	13.19275
2.144	12.99133
2.1445	9.46655
2.145	8.56018
2.1455	10.67505
2.146	13.09204
2.1465	11.68213
2.147	7.15027
2.1475	1.3092
2.148	1.51062
2.1485	0
2.149	-0.90637
2.1495	1.71204
2.15	-2.5177
2.1505	-3.02124
2.151	-2.31628
2.1515	-1.51062
2.152	2.01416
2.1525	15.40833
2.153	15.81116
2.1535	21.95435
2.154	23.66638
2.1545	31.11877
2.155	26.28479
2.1555	20.64514
2.156	20.64514
2.1565	18.93311
2.157	11.68213
2.1575	9.26514
2.158	2.11487
2.1585	1.91345
2.159	-2.01416
2.1595	-7.04956
2.16	-9.66797
2.1605	-11.68213
2.161	-20.64514
2.1615	-20.24231
2.162	-13.09204
2.1625	-13.59558
2.163	-5.53894
2.1635	-4.63257
2.164	3.42407
2.1645	5.23682
2.165	10.57434
2.1655	12.18567
2.166	10.0708
2.1665	5.74036
2.167	14.50195
2.1675	5.13611
2.168	8.15735
2.1685	10.17151
2.169	10.0708
2.1695	10.27222
2.17	11.88354
2.1705	10.27222
2.171	17.92603
2.1715	12.18567
2.172	11.58142
2.1725	18.02673
2.173	19.53735
2.1735	18.32886
2.174	14.90479
2.1745	17.92603
2.175	14.90479
2.1755	12.68921
2.176	10.47363
2.1765	10.57434
2.177	17.12036
2.1775	10.47363
2.178	16.51611
2.1785	15.1062
2.179	17.22107
2.1795	21.75293
2.18	28.60107
2.1805	26.48621
2.181	27.49329
2.1815	36.85913
2.182	36.95984
2.1825	34.03931
2.183	29.80957
2.1835	26.08337
2.184	23.26355
2.1845	18.02673
2.185	12.38708
2.1855	13.29346
2.186	16.41541
2.1865	10.87646
2.187	15.20691
2.1875	12.08496
2.188	6.94885
2.1885	5.13611
2.189	3.62549
2.1895	-7.5531
2.19	-15.60974
2.1905	-21.45081
2.191	-24.06921
2.1915	-24.77417
2.192	-30.01099
2.1925	-34.24072
2.193	-30.71594
2.1935	-26.58691
2.194	-17.52319
2.1945	-3.92761
2.195	9.36584
2.1955	17.12036
2.196	20.84656
2.1965	13.99841
2.197	11.17859
2.1975	8.05664
2.198	-0.90637
2.1985	-1.71204
2.199	-2.5177
2.1995	-2.81982
2.2	-0.70496
2.2005	-1.2085
2.201	-6.64673
2.2015	-9.66797
2.202	-12.28638
2.2025	-8.56018
2.203	-8.7616
2.2035	-12.99133
2.204	-12.78992
2.2045	-6.14319
2.205	-2.31628
2.2055	3.62549
2.206	-0.30212
2.2065	-5.74036
2.207	-9.36584
2.2075	-15.00549
2.208	-10.0708
2.2085	-3.22266
2.209	-0.70496
2.2095	1.00708
2.21	1.81274
2.2105	5.84106
2.211	9.76868
2.2115	15.30762
2.212	20.64514
2.2125	18.12744
2.213	25.68054
2.2135	25.177
2.214	22.15576
2.2145	30.61523
2.215	23.46497
2.2155	24.97559
2.216	15.30762
2.2165	11.78284
2.217	12.08496
2.2175	9.06372
2.218	4.22974
2.2185	2.21558
2.219	10.67505
2.2195	2.71912
2.22	8.66089
2.2205	23.46497
2.221	29.50745
2.2215	34.03931
2.222	32.42798
2.2225	27.39258
2.223	20.44373
2.2235	9.06372
2.224	1.71204
2.2245	-1.10779
2.225	-0.80566
2.2255	-8.7616
2.226	-11.98425
2.2265	-10.97717
2.227	-12.38708
2.2275	-20.74585
2.228	-18.12744
2.2285	-10.87646
2.229	-8.05664
2.2295	-6.2439
2.23	-8.7616
2.2305	2.71912
2.231	3.52478
2.2315	-1.51062
2.232	-8.25806
2.2325	-5.63965
2.233	-5.53894
2.2335	-2.41699
2.234	0.10071
2.2345	1.61133
2.235	2.31628
2.2355	2.21558
2.236	-2.31628
2.2365	8.66089
2.237	18.63098
2.2375	19.73877
2.238	18.22815
2.2385	25.07629
2.239	17.42249
2.2395	16.3147
2.24	12.08496
2.2405	12.48779
2.241	9.06372
2.2415	2.92053
2.242	6.74744
2.2425	10.27222
2.243	7.15027
2.2435	12.78992
2.244	12.38708
2.2445	3.42407
2.245	4.83398
2.2455	-2.61841
2.246	-1.51062
2.2465	-1.81274
2.247	-8.96301
2.2475	-5.43823
2.248	-7.5531
2.2485	-10.0708
2.249	-5.43823
2.2495	-6.2439
2.25	-2.11487
2.2505	0.70496
2.251	-0.80566
2.2515	7.04956
2.252	-0.30212
2.2525	2.92053
2.253	3.62549
2.2535	0.20142
2.254	4.83398
2.2545	7.04956
2.255	2.71912
2.2555	6.2439
2.256	5.13611
2.2565	2.71912
2.257	5.84106
2.2575	5.43823
2.258	3.7262
2.2585	2.81982
2.259	7.35168
2.2595	15.81116
2.26	18.73169
2.2605	18.8324
2.261	23.16284
2.2615	21.3501
2.262	16.41541
2.2625	13.89771
2.263	12.89062
2.2635	4.43115
2.264	2.81982
2.2645	8.96301
2.265	7.85522
2.2655	10.47363
2.266	5.53894
2.2665	18.02673
2.267	24.47205
2.2675	28.29895
2.268	32.02515
2.2685	32.22656
2.269	29.80957
2.2695	16.51611
2.27	4.12903
2.2705	-9.16443
2.271	-15.30762
2.2715	-12.18567
2.272	-24.57275
2.2725	-34.64355
2.273	-46.12427
2.2735	-51.36108
2.274	-51.96533
2.2745	-52.771
2.275	-46.62781
2.2755	-43.40515
2.276	-36.85913
2.2765	-23.76709
2.277	-12.38708
2.2775	9.86938
2.278	20.1416
2.2785	30.81665
2.279	29.70886
2.2795	19.63806
2.28	20.44373
2.2805	13.59558
2.281	6.2439
2.2815	-1.71204
2.282	-3.8269
2.2825	-3.22266
2.283	1.51062
2.2835	3.42407
2.284	8.66089
2.2845	15.30762
2.285	12.48779
2.2855	14.09912
2.286	17.42249
2.2865	21.14868
2.287	15.40833
2.2875	14.40125
2.288	3.52478
2.2885	1.3092
2.289	3.62549
2.2895	0.40283
2.29	1.71204
2.2905	5.33752
2.291	7.5531
2.2915	3.8269
2.292	-0.20142
2.2925	-6.74744
2.293	-1.71204
2.2935	4.73328
2.294	16.11328
2.2945	11.38
2.295	16.41541
2.2955	23.06213
2.296	19.13452
2.2965	27.99683
2.297	23.26355
2.2975	22.76001
2.298	24.06921
2.2985	19.43665
2.299	15.30762
2.2995	19.23523
2.3	13.89771
2.3005	15.00549
2.301	17.92603
2.3015	14.50195
2.302	8.35876
2.3025	13.69629
2.303	8.15735
2.3035	6.3446
2.304	13.99841
2.3045	9.46655
2.305	11.07788
2.3055	9.26514
2.306	28.29895
2.3065	43.30444
2.307	43.50586
2.3075	43.10303
2.308	48.44055
2.3085	48.84338
2.309	40.58533
2.3095	32.12585
2.31	24.06921
2.3105	15.20691
2.311	13.89771
2.3115	1.51062
2.312	-3.02124
2.3125	-13.69629
2.313	-14.80408
2.3135	-20.04089
2.314	-24.87488
2.3145	-31.52161
2.315	-32.42798
2.3155	-30.11169
2.316	-20.34302
2.3165	-15.91187
2.317	-19.03381
2.3175	-11.78284
2.318	-15.1062
2.3185	-14.19983
2.319	-12.68921
2.3195	-3.7262
2.32	1.91345
2.3205	3.42407
2.321	6.54602
2.3215	1.51062
2.322	1.71204
2.3225	-0.60425
2.323	0.10071
2.3235	2.81982
2.324	0.70496
2.3245	4.53186
2.325	4.83398
2.3255	9.36584
2.326	9.76868
2.3265	8.66089
2.327	6.14319
2.3275	7.04956
2.328	9.97009
2.3285	10.57434
2.329	8.56018
2.3295	6.94885
2.33	8.05664
2.3305	3.7262
2.331	2.21558
2.3315	6.74744
2.332	12.28638
2.3325	13.49487
2.333	21.55151
2.3335	25.07629
2.334	33.13293
2.3345	30.71594
2.335	34.03931
2.3355	33.83789
2.336	30.11169
2.3365	28.39966
2.337	31.92444
2.3375	30.11169
2.338	30.01099
2.3385	26.08337
2.339	13.59558
2.3395	12.38708
2.34	11.48071
2.3405	0.10071
2.341	-6.2439
2.3415	-18.42957
2.342	-16.3147
2.3425	-21.04797
2.343	-16.41541
2.3435	-14.19983
2.344	-21.95435
2.3445	-24.67346
2.345	-22.15576
2.3455	-14.90479
2.346	-6.2439
2.3465	-2.01416
2.347	-0.30212
2.3475	3.52478
2.348	4.22974
2.3485	5.0354
2.349	0.10071
2.3495	4.43115
2.35	8.15735
2.3505	11.68213
2.351	14.60266
2.3515	8.45947
2.352	16.21399
2.3525	21.3501
2.353	19.94019
2.3535	13.19275
2.354	12.48779
2.3545	13.797
2.355	13.49487
2.3555	1.71204
2.356	4.33044
2.3565	5.84106
2.357	1.51062
2.3575	2.92053
2.358	7.15027
2.3585	3.62549
2.359	5.94177
2.3595	4.22974
2.36	6.94885
2.3605	5.33752
2.361	2.41699
2.3615	1.00708
2.362	-3.22266
2.3625	0.90637
2.363	0.40283
2.3635	-2.61841
2.364	0.60425
2.3645	7.95593
2.365	9.26514
2.3655	7.25098
2.366	-4.53186
2.3665	2.81982
2.367	1.91345
2.3675	-7.5531
2.368	-2.81982
2.3685	0.80566
2.369	3.32336
2.3695	0.10071
2.37	-1.61133
2.3705	3.02124
2.371	2.92053
2.3715	4.73328
2.372	9.36584
2.3725	15.00549
2.373	10.97717
2.3735	5.74036
2.374	7.85522
2.3745	4.12903
2.375	4.02832
2.3755	4.63257
2.376	9.76868
2.3765	14.60266
2.377	14.90479
2.3775	15.20691
2.378	18.12744
2.3785	26.18408
2.379	28.80249
2.3795	36.05347
2.38	25.07629
2.3805	21.75293
2.381	15.1062
2.3815	2.5177
2.382	7.5531
2.3825	5.0354
2.383	7.45239
2.3835	5.43823
2.384	11.38
2.3845	10.27222
2.385	11.68213
2.3855	8.7616
2.386	11.2793
2.3865	23.56567
2.387	25.57983
2.3875	19.33594
2.388	8.05664
2.3885	-0.30212
2.389	-4.93469
2.3895	-13.797
2.39	-18.93311
2.3905	-27.19116
2.391	-18.93311
2.3915	-13.39417
2.392	-5.0354
2.3925	8.45947
2.393	9.36584
2.3935	7.04956
2.394	6.94885
2.3945	5.43823
2.395	-4.63257
2.3955	-3.22266
2.396	-10.17151
2.3965	-11.2793
2.397	-12.08496
2.3975	-7.35168
2.398	-5.0354
2.3985	-2.92053
2.399	-5.74036
2.3995	-3.92761
2.4	-7.5531
2.4005	-7.95593
2.401	-3.52478
2.4015	-3.22266
2.402	-1.71204
2.4025	1.00708
2.403	9.46655
2.4035	9.46655
2.404	14.30054
2.4045	8.66089
2.405	7.5531
2.4055	10.67505
2.406	10.57434
2.4065	12.99133
2.407	14.80408
2.4075	17.52319
2.408	22.86072
2.4085	20.94727
2.409	22.76001
2.4095	23.46497
2.41	18.8324
2.4105	21.65222
2.411	25.177
2.4115	22.35718
2.412	26.18408
2.4125	28.70178
2.413	26.88904
2.4135	25.68054
2.414	29.80957
2.4145	19.63806
2.415	14.40125
2.4155	5.23682
2.416	5.33752
2.4165	-2.41699
2.417	-9.76868
2.4175	-18.22815
2.418	-17.32178
2.4185	-21.3501
2.419	-19.73877
2.4195	-21.14868
2.42	-25.07629
2.4205	-19.53735
2.421	-17.72461
2.4215	-7.15027
2.422	-4.53186
2.4225	7.35168
2.423	13.89771
2.4235	9.36584
2.424	10.77576
2.4245	12.28638
2.425	11.48071
2.4255	11.88354
2.426	11.48071
2.4265	12.38708
2.427	19.83948
2.4275	16.91895
2.428	9.86938
2.4285	9.86938
2.429	8.15735
2.4295	1.40991
2.43	-4.22974
2.4305	-0.80566
2.431	-2.61841
2.4315	1.2085
2.432	3.52478
2.4325	5.63965
2.433	5.33752
2.4335	1.91345
2.434	0.30212
2.4345	-3.02124
2.435	0.10071
2.4355	4.12903
2.436	9.97009
2.4365	6.94885
2.437	9.97009
2.4375	8.7616
2.438	10.87646
2.4385	9.26514
2.439	12.68921
2.4395	9.26514
2.44	12.38708
2.4405	17.32178
2.441	24.67346
2.4415	16.3147
2.442	21.04797
2.4425	13.29346
2.443	14.30054
2.4435	8.35876
2.444	-1.91345
2.4445	-4.33044
2.445	-9.06372
2.4455	-13.89771
2.446	-15.30762
2.4465	-9.16443
2.447	-9.66797
2.4475	-0.50354
2.448	-7.35168
2.4485	-6.14319
2.449	-1.91345
2.4495	2.61841
2.45	3.52478
2.4505	3.42407
2.451	15.40833
2.4515	15.30762
2.452	19.13452
2.4525	26.58691
2.453	23.96851
2.4535	22.15576
2.454	20.34302
2.4545	12.89062
2.455	3.32336
2.4555	3.7262
2.456	2.92053
2.4565	-5.23682
2.457	6.2439
2.4575	7.5531
2.458	16.91895
2.4585	17.42249
2.459	13.39417
2.4595	21.14868
2.46	13.19275
2.4605	8.45947
2.461	3.32336
2.4615	1.81274
2.462	0.70496
2.4625	-3.52478
2.463	-2.5177
2.4635	5.13611
2.464	4.02832
2.4645	7.04956
2.465	3.32336
2.4655	5.43823
2.466	8.15735
2.4665	10.77576
2.467	5.0354
2.4675	3.22266
2.468	-4.83398
2.4685	-9.86938
2.469	-13.29346
2.4695	-6.44531
2.47	-5.13611
2.4705	-5.63965
2.471	-3.52478
2.4715	-6.74744
2.472	-2.71912
2.4725	-7.25098
2.473	-3.22266
2.4735	1.81274
2.474	1.10779
2.4745	5.84106
2.475	8.45947
2.4755	7.35168
2.476	11.98425
2.4765	2.21558
2.477	2.71912
2.4775	6.2439
2.478	12.78992
2.4785	16.81824
2.479	20.64514
2.4795	22.35718
2.48	38.26904
2.4805	49.44763
2.481	53.07312
2.4815	56.69861
2.482	50.354
2.4825	44.81506
2.483	30.31311
2.4835	25.37842
2.484	4.43115
2.4845	-1.61133
2.485	-21.24939
2.4855	-28.50037
2.486	-27.19116
2.4865	-24.06921
2.487	-18.02673
2.4875	-15.50903
2.488	-8.25806
2.4885	-1.81274
2.489	-1.10779
2.4895	-6.3446
2.49	-12.38708
2.4905	-18.42957
2.491	-19.73877
2.4915	-18.02673
2.492	-12.78992
2.4925	-11.07788
2.493	-12.78992
2.4935	-14.70337
2.494	-21.3501
2.4945	-14.50195
2.495	-8.8623
2.4955	-3.32336
2.496	3.7262
2.4965	10.27222
2.497	24.97559
2.4975	18.93311
2.498	18.12744
2.4985	11.88354
2.499	8.35876
2.4995	-0.30212
2.5	-1.2085
2.5005	-4.02832
2.501	-6.2439
2.5015	-5.63965
2.502	4.12903
2.5025	4.83398
2.503	9.56726
2.5035	7.15027
2.504	13.39417
2.5045	8.15735
2.505	7.5531
2.5055	11.48071
2.506	5.63965
2.5065	5.74036
2.507	-1.00708
2.5075	-0.20142
2.508	4.33044
2.5085	9.66797
2.509	9.26514
2.5095	4.73328
2.51	-0.80566
2.5105	5.94177
2.511	-1.10779
2.5115	-0.60425
2.512	2.81982
2.5125	5.94177
2.513	14.09912
2.5135	14.30054
2.514	18.02673
2.5145	18.53027
2.515	11.58142
2.5155	7.65381
2.516	5.33752
2.5165	7.25098
2.517	6.44531
2.5175	6.84814
2.518	7.45239
2.5185	2.61841
2.519	1.2085
2.5195	2.01416
2.52	4.02832
2.5205	-0.30212
2.521	4.33044
2.5215	2.01416
2.522	5.53894
2.5225	4.43115
2.523	4.83398
2.5235	-5.13611
2.524	3.52478
2.5245	7.25098
2.525	17.22107
2.5255	21.45081
2.526	28.9032
2.5265	26.68762
2.527	25.68054
2.5275	23.56567
2.528	18.93311
2.5285	15.60974
2.529	5.63965
2.5295	-2.81982
2.53	-7.75452
2.5305	-11.68213
2.531	-8.96301
2.5315	6.54602
2.532	9.66797
2.5325	19.83948
2.533	26.3855
2.5335	25.88196
2.534	25.47913
2.5345	23.8678
2.535	12.78992
2.5355	7.45239
2.536	8.96301
2.5365	-1.40991
2.537	-4.53186
2.5375	-9.36584
2.538	-10.37292
2.5385	-6.14319
2.539	-5.53894
2.5395	-6.74744
2.54	-8.15735
2.5405	-10.77576
2.541	-9.86938
2.5415	1.40991
2.542	6.04248
2.5425	7.35168
2.543	6.3446
2.5435	1.81274
2.544	4.63257
2.5445	8.45947
2.545	5.84106
2.5455	1.61133
2.546	7.15027
2.5465	3.02124
2.547	-1.81274
2.5475	5.63965
2.548	8.56018
2.5485	9.97009
2.549	11.17859
2.5495	14.30054
2.55	12.99133
2.5505	10.0708
2.551	16.01257
2.5515	6.94885
2.552	11.38
2.5525	13.69629
2.553	16.3147
2.5535	20.24231
2.554	21.14868
2.5545	13.49487
2.555	12.89062
2.5555	12.78992
2.556	13.09204
2.5565	9.06372
2.557	7.45239
2.5575	10.17151
2.558	13.09204
2.5585	15.60974
2.559	15.91187
2.5595	15.60974
2.56	15.1062
2.5605	24.47205
2.561	30.91736
2.5615	33.83789
2.562	32.7301
2.5625	33.73718
2.563	34.14001
2.5635	43.40515
2.564	47.93701
2.5645	51.96533
2.565	52.06604
2.5655	54.58374
2.566	48.54126
2.5665	44.81506
2.567	32.52869
2.5675	21.85364
2.568	3.32336
2.5685	-10.57434
2.569	-21.3501
2.5695	-34.54285
2.57	-39.37683
2.5705	-43.50586
2.571	-48.84338
2.5715	-48.03772
2.572	-46.82922
2.5725	-41.79382
2.573	-34.03931
2.5735	-22.6593
2.574	-17.6239
2.5745	-3.62549
2.575	5.94177
2.5755	7.04956
2.576	2.01416
2.5765	-4.73328
2.577	-9.16443
2.5775	-9.86938
2.578	-8.45947
2.5785	0.10071
2.579	4.12903
2.5795	-2.41699
2.58	-3.7262
2.5805	-2.71912
2.581	-0.20142
2.5815	-0.60425
2.582	-0.60425
2.5825	-1.40991
2.583	2.11487
2.5835	2.11487
2.584	4.93469
2.5845	0.10071
2.585	4.83398
2.5855	4.53186
2.586	12.28638
2.5865	18.73169
2.587	23.56567
2.5875	21.65222
2.588	17.6239
2.5885	17.6239
2.589	16.11328
2.5895	14.50195
2.59	7.75452
2.5905	5.43823
2.591	-2.41699
2.5915	-7.65381
2.592	-0.20142
2.5925	-0.30212
2.593	-0.30212
2.5935	5.0354
2.594	6.04248
2.5945	6.64673
2.595	8.66089
2.5955	5.13611
2.596	6.74744
2.5965	13.89771
2.597	12.18567
2.5975	11.88354
2.598	11.78284
2.5985	8.8623
2.599	10.57434
2.5995	10.57434
2.6	16.01257
2.6005	14.40125
2.601	10.17151
2.6015	7.85522
2.602	12.08496
2.6025	13.99841
2.603	18.42957
2.6035	16.41541
2.604	14.09912
2.6045	10.57434
2.605	6.3446
2.6055	5.0354
2.606	1.51062
2.6065	0.60425
2.607	-3.92761
2.6075	-4.63257
2.608	-4.33044
2.6085	-3.32336
2.609	-1.51062
2.6095	3.8269
2.61	6.54602
2.6105	6.64673
2.611	10.0708
2.6115	5.0354
2.612	7.65381
2.6125	2.11487
2.613	2.41699
2.6135	5.63965
2.614	1.10779
2.6145	3.92761
2.615	0.20142
2.6155	5.74036
2.616	5.23682
2.6165	3.12195
2.617	6.44531
2.6175	7.95593
2.618	8.96301
2.6185	5.63965
2.619	16.01257
2.6195	22.55859
2.62	24.57275
2.6205	21.65222
2.621	25.88196
2.6215	30.81665
2.622	36.35559
2.6225	23.8678
2.623	21.24939
2.6235	11.58142
2.624	6.44531
2.6245	0.10071
2.625	-7.95593
2.6255	-9.06372
2.626	-15.1062
2.6265	-12.38708
2.627	-16.01257
2.6275	-15.91187
2.628	-14.40125
2.6285	-13.09204
2.629	-7.45239
2.6295	-4.93469
2.63	1.81274
2.6305	-1.10779
2.631	5.94177
2.6315	8.66089
2.632	15.1062
2.6325	11.68213
2.633	13.29346
2.6335	7.04956
2.634	3.12195
2.6345	6.3446
2.635	12.18567
2.6355	19.83948
2.636	23.16284
2.6365	21.85364
2.637	19.63806
2.6375	19.13452
2.638	11.2793
2.6385	13.09204
2.639	17.82532
2.6395	16.21399
2.64	24.47205
2.6405	25.57983
2.641	25.88196
2.6415	23.26355
2.642	20.1416
2.6425	17.52319
2.643	9.86938
2.6435	7.35168
2.644	-0.60425
2.6445	-5.74036
2.645	-14.19983
2.6455	-19.63806
2.646	-20.1416
2.6465	-21.65222
2.647	-23.56567
2.6475	-22.05505
2.648	-24.27063
2.6485	-19.23523
2.649	-17.52319
2.6495	3.42407
2.65	25.07629
2.6505	19.94019
2.651	22.96143
2.6515	18.93311
2.652	18.12744
2.6525	10.27222
2.653	6.94885
2.6535	5.23682
2.654	2.71912
2.6545	-5.84106
2.655	-11.98425
2.6555	-2.81982
2.656	-5.63965
2.6565	1.61133
2.657	10.37292
2.6575	6.2439
2.658	9.26514
2.6585	7.35168
2.659	5.63965
2.6595	6.64673
2.66	8.35876
2.6605	10.57434
2.661	13.59558
2.6615	10.37292
2.662	12.48779
2.6625	10.27222
2.663	11.88354
2.6635	4.83398
2.664	9.36584
2.6645	7.95593
2.665	10.57434
2.6655	13.09204
2.666	14.70337
2.6665	10.87646
2.667	12.99133
2.6675	11.38
2.668	10.87646
2.6685	6.84814
2.669	3.02124
2.6695	-3.12195
2.67	-5.74036
2.6705	-8.8623
2.671	-13.19275
2.6715	-0.60425
2.672	3.02124
2.6725	10.57434
2.673	15.20691
2.6735	13.99841
2.674	12.48779
2.6745	10.87646
2.675	7.15027
2.6755	6.3446
2.676	8.05664
2.6765	6.04248
2.677	-1.81274
2.6775	-3.92761
2.678	-7.5531
2.6785	-12.28638
2.679	-5.74036
2.6795	-5.23682
2.68	-7.85522
2.6805	2.5177
2.681	15.50903
2.6815	15.71045
2.682	22.76001
2.6825	13.69629
2.683	13.797
2.6835	11.98425
2.684	5.63965
2.6845	7.45239
2.685	3.22266
2.6855	5.94177
2.686	13.99841
2.6865	7.25098
2.687	9.66797
2.6875	-1.51062
2.688	-1.2085
2.6885	-1.91345
2.689	4.02832
2.6895	5.53894
2.69	2.61841
2.6905	-4.22974
2.691	2.21558
2.6915	9.97009
2.692	27.29187
2.6925	35.34851
2.693	35.75134
2.6935	24.16992
2.694	26.28479
2.6945	29.00391
2.695	26.78833
2.6955	27.49329
2.696	18.42957
2.6965	13.69629
2.697	3.7262
2.6975	5.33752
2.698	4.33044
2.6985	5.84106
2.699	7.5531
2.6995	10.17151
2.7	17.22107
2.7005	23.06213
2.701	22.86072
2.7015	20.24231
2.702	8.7616
2.7025	5.23682
2.703	8.56018
2.7035	9.16443
2.704	9.76868
2.7045	1.91345
2.705	-13.19275
2.7055	-23.06213
2.706	-35.65063
2.7065	-46.12427
2.707	-47.13135
2.7075	-43.80798
2.708	-47.43347
2.7085	-35.34851
2.709	-28.9032
2.7095	-20.44373
2.71	-17.32178
2.7105	-7.45239
2.711	-7.35168
2.7115	-0.20142
2.712	-3.22266
2.7125	-11.88354
2.713	-5.74036
2.7135	-8.05664
2.714	-1.91345
2.7145	13.89771
2.715	17.82532
2.7155	16.51611
2.716	13.89771
2.7165	5.43823
2.717	7.75452
2.7175	10.97717
2.718	13.797
2.7185	15.91187
2.719	17.01965
2.7195	1.40991
2.72	2.41699
2.7205	-6.54602
2.721	-10.17151
2.7215	-10.27222
2.722	-9.86938
2.7225	-10.77576
2.723	-9.66797
2.7235	-12.99133
2.724	-9.86938
2.7245	-4.93469
2.725	-3.8269
2.7255	-0.70496
2.726	1.40991
2.7265	7.65381
2.727	7.25098
2.7275	12.28638
2.728	6.74744
2.7285	15.30762
2.729	14.40125
2.7295	14.30054
2.73	7.65381
2.7305	5.43823
2.731	5.84106
2.7315	6.3446
2.732	5.94177
2.7325	10.87646
2.733	6.3446
2.7335	9.36584
2.734	2.92053
2.7345	5.53894
2.735	9.86938
2.7355	11.58142
2.736	15.00549
2.7365	14.09912
2.737	11.48071
2.7375	8.96301
2.738	6.94885
2.7385	11.17859
2.739	8.05664
2.7395	5.33752
2.74	5.74036
2.7405	10.17151
2.741	-0.40283
2.7415	0.60425
2.742	-0.60425
2.7425	3.32336
2.743	1.71204
2.7435	0.70496
2.744	4.02832
2.7445	6.94885
2.745	8.25806
2.7455	6.2439
2.746	3.02124
2.7465	3.42407
2.747	0.90637
2.7475	4.93469
2.748	2.21558
2.7485	3.22266
2.749	1.71204
2.7495	5.53894
2.75	6.54602
2.7505	6.44531
2.751	5.43823
2.7515	9.76868
2.752	10.17151
2.7525	5.63965
2.753	10.97717
2.7535	9.46655
2.754	2.81982
2.7545	10.87646
2.755	14.40125
2.7555	11.98425
2.756	10.57434
2.7565	8.66089
2.757	6.04248
2.7575	7.15027
2.758	4.83398
2.7585	10.97717
2.759	7.35168
2.7595	4.33044
2.76	10.17151
2.7605	15.30762
2.761	13.99841
2.7615	7.95593
2.762	4.12903
2.7625	3.02124
2.763	5.94177
2.7635	5.33752
2.764	14.60266
2.7645	23.66638
2.765	20.04089
2.7655	14.70337
2.766	12.28638
2.7665	17.01965
2.767	16.41541
2.7675	20.74585
2.768	20.04089
2.7685	34.24072
2.769	38.47046
2.7695	52.67029
2.77	55.99365
2.7705	58.41064
2.771	55.2887
2.7715	51.05896
2.772	41.69312
2.7725	27.39258
2.773	13.59558
2.7735	4.43115
2.774	0.80566
2.7745	-10.77576
2.775	-18.63098
2.7755	-27.6947
2.776	-44.91577
2.7765	-54.38232
2.777	-59.82056
2.7775	-56.29578
2.778	-50.2533
2.7785	-47.63489
2.779	-44.31152
2.7795	-35.44922
2.78	-19.63806
2.7805	-0.20142
2.781	20.74585
2.7815	29.10461
2.782	36.4563
2.7825	38.47046
2.783	40.08179
2.7835	43.40515
2.784	37.46338
2.7845	30.81665
2.785	21.95435
2.7855	6.54602
2.786	-2.92053
2.7865	-10.37292
2.787	-15.60974
2.7875	-23.06213
2.788	-30.31311
2.7885	-34.94568
2.789	-27.99683
2.7895	-29.10461
2.79	-33.63647
2.7905	-31.52161
2.791	-33.03223
2.7915	-16.21399
2.792	-14.30054
2.7925	-11.07788
2.793	4.63257
2.7935	9.66797
2.794	15.1062
2.7945	18.63098
2.795	9.86938
2.7955	8.35876
2.796	7.04956
2.7965	-2.11487
2.797	-4.22974
2.7975	-9.16443
2.798	-6.74744
2.7985	6.84814
2.799	23.36426
2.7995	34.54285
2.8	41.08887
2.8005	42.09595
2.801	36.4563
2.8015	31.52161
2.802	32.12585
2.8025	23.46497
2.803	18.93311
2.8035	5.53894
2.804	4.22974
2.8045	-6.64673
2.805	-3.52478
2.8055	-6.3446
2.806	-4.93469
2.8065	-17.42249
2.807	-16.71753
2.8075	-17.52319
2.808	-21.65222
2.8085	-13.09204
2.809	-5.63965
2.8095	0.20142
2.81	-0.30212
2.8105	1.10779
2.811	2.01416
2.8115	3.12195
2.812	7.95593
2.8125	5.63965
2.813	4.63257
2.8135	7.45239
2.814	4.53186
2.8145	2.71912
2.815	3.7262
2.8155	4.22974
2.816	2.01416
2.8165	-1.2085
2.817	-8.25806
2.8175	-1.3092
2.818	-4.43115
2.8185	-3.32336
2.819	2.5177
2.8195	1.61133
2.82	0.60425
2.8205	-0.40283
2.821	18.42957
2.8215	21.45081
2.822	29.80957
2.8225	31.72302
2.823	31.01807
2.8235	20.94727
2.824	19.63806
2.8245	7.45239
2.825	8.15735
2.8255	1.40991
2.826	-3.8269
2.8265	-5.0354
2.827	0.60425
2.8275	1.00708
2.828	4.93469
2.8285	10.57434
2.829	7.25098
2.8295	13.19275
2.83	22.25647
2.8305	21.14868
2.831	26.3855
2.8315	24.67346
2.832	19.63806
2.8325	19.43665
2.833	18.53027
2.8335	9.97009
2.834	3.42407
2.8345	6.44531
2.835	10.87646
2.8355	16.41541
2.836	15.30762
2.8365	20.1416
2.837	26.48621
2.8375	23.46497
2.838	13.797
2.8385	3.22266
2.839	-8.05664
2.8395	-25.07629
2.84	-39.98108
2.8405	-42.29736
2.841	-38.87329
2.8415	-40.2832
2.842	-39.67896
2.8425	-34.34143
2.843	-23.66638
2.8435	-13.29346
2.844	-3.12195
2.8445	1.61133
2.845	-1.51062
2.8455	-1.40991
2.846	-4.73328
2.8465	1.81274
2.847	11.07788
2.8475	23.36426
2.848	24.97559
2.8485	32.93152
2.849	37.86621
2.8495	34.64355
2.85	30.61523
2.8505	34.74426
2.851	31.32019
2.8515	24.06921
2.852	16.01257
2.8525	12.5885
2.853	6.54602
2.8535	1.61133
2.854	-6.74744
2.8545	-9.16443
2.855	-10.67505
2.8555	-11.38
2.856	-16.61682
2.8565	-12.18567
2.857	-11.2793
2.8575	-4.33044
2.858	0.90637
2.8585	-0.20142
2.859	3.7262
2.8595	7.85522
2.86	6.64673
2.8605	3.92761
2.861	-0.60425
2.8615	6.64673
2.862	9.36584
2.8625	8.8623
2.863	8.8623
2.8635	7.85522
2.864	4.53186
2.8645	12.68921
2.865	10.47363
2.8655	4.93469
2.866	6.84814
2.8665	6.14319
2.867	5.0354
2.8675	5.74036
2.868	3.92761
2.8685	6.14319
2.869	2.21558
2.8695	-0.90637
2.87	6.54602
2.8705	2.81982
2.871	-1.3092
2.8715	-1.00708
2.872	-3.7262
2.8725	4.02832
2.873	4.83398
2.8735	0.70496
2.874	2.71912
2.8745	4.53186
2.875	8.96301
2.8755	1.2085
2.876	2.11487
2.8765	2.61841
2.877	13.69629
2.8775	23.76709
2.878	28.19824
2.8785	36.25488
2.879	49.85046
2.8795	59.01489
2.88	52.67029
2.8805	40.38391
2.881	28.19824
2.8815	10.77576
2.882	0.40283
2.8825	-10.47363
2.883	-15.71045
2.8835	-22.76001
2.884	-23.16284
2.8845	-20.24231
2.885	-19.03381
2.8855	-16.41541
2.886	-7.85522
2.8865	-3.02124
2.887	-1.40991
2.8875	9.16443
2.888	17.01965
2.8885	26.28479
2.889	23.36426
2.8895	28.50037
2.89	18.42957
2.8905	14.40125
2.891	2.81982
2.8915	7.65381
2.892	-0.60425
2.8925	6.2439
2.893	2.41699
2.8935	2.41699
2.894	6.2439
2.8945	-1.61133
2.895	-7.15027
2.8955	-3.12195
2.896	-0.90637
2.8965	-3.62549
2.897	-6.64673
2.8975	-6.64673
2.898	-7.5531
2.8985	-19.73877
2.899	-19.43665
2.8995	-20.54443
2.9	-25.47913
2.9005	-23.06213
2.901	-18.73169
2.9015	-4.53186
2.902	1.10779
2.9025	3.12195
2.903	11.58142
2.9035	9.76868
2.904	7.35168
2.9045	9.36584
2.905	10.57434
2.9055	11.68213
2.906	12.08496
2.9065	14.09912
2.907	8.56018
2.9075	20.74585
2.908	33.43506
2.9085	32.42798
2.909	29.10461
2.9095	18.12744
2.91	12.48779
2.9105	2.5177
2.911	-2.81982
2.9115	1.51062
2.912	-0.90637
2.9125	-5.63965
2.913	-5.84106
2.9135	-12.08496
2.914	-11.58142
2.9145	-7.25098
2.915	-8.15735
2.9155	-2.71912
2.916	-3.02124
2.9165	-8.45947
2.917	-4.53186
2.9175	-0.60425
2.918	7.35168
2.9185	9.86938
2.919	12.5885
2.9195	15.20691
2.92	19.03381
2.9205	13.797
2.921	15.81116
2.9215	22.25647
2.922	25.27771
2.9225	21.95435
2.923	18.8324
2.9235	12.5885
2.924	10.77576
2.9245	4.33044
2.925	5.63965
2.9255	13.19275
2.926	21.04797
2.9265	15.20691
2.927	7.45239
2.9275	1.81274
2.928	-0.90637
2.9285	-0.70496
2.929	-1.71204
2.9295	-2.71912
2.93	-8.8623
2.9305	-14.09912
2.931	-14.80408
2.9315	1.3092
2.932	20.1416
2.9325	28.39966
2.933	31.82373
2.9335	16.61682
2.934	9.26514
2.9345	9.56726
2.935	11.48071
2.9355	-1.61133
2.936	-13.797
2.9365	-15.30762
2.937	-13.19275
2.9375	-20.34302
2.938	-21.3501
2.9385	-19.73877
2.939	-11.78284
2.9395	-12.18567
2.94	-12.38708
2.9405	-13.99841
2.941	-6.2439
2.9415	-8.8623
2.942	-0.30212
2.9425	1.71204
2.943	5.94177
2.9435	3.92761
2.944	8.45947
2.9445	9.76868
2.945	10.87646
2.9455	11.88354
2.946	12.48779
2.9465	11.88354
2.947	14.30054
2.9475	12.5885
2.948	16.51611
2.9485	13.09204
2.949	17.12036
2.9495	12.08496
2.95	11.78284
2.9505	13.797
2.951	13.19275
2.9515	10.77576
2.952	8.96301
2.9525	6.64673
2.953	10.77576
2.9535	11.68213
2.954	9.97009
2.9545	14.70337
2.955	9.76868
2.9555	6.54602
2.956	4.63257
2.9565	7.15027
2.957	3.32336
2.9575	3.52478
2.958	2.5177
2.9585	3.22266
2.959	6.74744
2.9595	10.47363
2.96	12.99133
2.9605	16.11328
2.961	19.23523
2.9615	22.55859
2.962	19.03381
2.9625	20.24231
2.963	19.23523
2.9635	16.61682
2.964	23.26355
2.9645	18.63098
2.965	12.99133
2.9655	13.39417
2.966	10.97717
2.9665	8.45947
2.967	-2.71912
2.9675	-4.93469
2.968	-3.92761
2.9685	0.30212
2.969	-5.33752
2.9695	-2.11487
2.97	4.43115
2.9705	4.83398
2.971	0.40283
2.9715	7.95593
2.972	6.94885
2.9725	1.61133
2.973	12.18567
2.9735	15.1062
2.974	21.65222
2.9745	21.55151
2.975	20.54443
2.9755	27.6947
2.976	26.88904
2.9765	28.70178
2.977	27.79541
2.9775	34.03931
2.978	29.00391
2.9785	29.50745
2.979	28.70178
2.9795	25.07629
2.98	12.68921
2.9805	11.2793
2.981	14.40125
2.9815	14.60266
2.982	8.8623
2.9825	-1.81274
2.983	-11.88354
2.9835	-16.01257
2.984	-20.1416
2.9845	-26.58691
2.985	-25.37842
2.9855	-25.57983
2.986	-20.04089
2.9865	-9.76868
2.987	-9.26514
2.9875	0.90637
2.988	-8.15735
2.9885	-0.60425
2.989	0.20142
2.9895	-1.81274
2.99	6.44531
2.9905	15.50903
2.991	15.40833
2.9915	24.06921
2.992	23.96851
2.9925	23.56567
2.993	17.12036
2.9935	7.5531
2.994	11.58142
2.9945	8.15735
2.995	11.2793
2.9955	4.93469
2.996	13.59558
2.9965	6.3446
2.997	8.8623
2.9975	9.97009
2.998	19.63806
2.9985	33.43506
2.999	31.01807
2.9995	38.47046
3	35.65063
3.0005	29.80957
3.001	26.58691
3.0015	27.59399
3.002	23.56567
3.0025	11.98425
3.003	1.3092
3.0035	-6.74744
3.004	-15.50903
3.0045	-4.43115
3.005	4.83398
3.0055	33.9386
3.006	36.55701
3.0065	35.95276
3.007	22.55859
3.0075	9.56726
3.008	-0.70496
3.0085	-13.19275
3.009	-21.14868
3.0095	-30.61523
3.01	-32.7301
3.0105	-42.29736
3.011	-39.47754
3.0115	-30.71594
3.012	-18.8324
3.0125	-11.68213
3.013	-5.74036
3.0135	-6.3446
3.014	-6.04248
3.0145	-3.42407
3.015	-6.14319
3.0155	0
3.016	6.2439
3.0165	15.40833
3.017	17.82532
3.0175	15.71045
3.018	11.78284
3.0185	7.45239
3.019	7.25098
3.0195	11.78284
3.02	5.84106
3.0205	10.0708
3.021	12.38708
3.0215	4.33044
3.022	3.22266
3.0225	3.12195
3.023	5.74036
3.0235	5.74036
3.024	15.60974
3.0245	15.50903
3.025	13.59558
3.0255	8.15735
3.026	8.96301
3.0265	9.06372
3.027	16.81824
3.0275	10.0708
3.028	16.21399
3.0285	16.21399
3.029	13.39417
3.0295	6.64673
3.03	3.92761
3.0305	10.77576
3.031	7.85522
3.0315	0.20142
3.032	-4.22974
3.0325	-3.52478
3.033	-12.89062
3.0335	-16.01257
3.034	-21.24939
3.0345	-12.68921
3.035	-11.78284
3.0355	-1.71204
3.036	13.39417
3.0365	28.50037
3.037	32.52869
3.0375	40.48462
3.038	36.05347
3.0385	37.16125
3.039	46.5271
3.0395	43.90869
3.04	36.65771
3.0405	37.56409
3.041	39.67896
3.0415	31.62231
3.042	16.91895
3.0425	8.96301
3.043	-2.61841
3.0435	-13.09204
3.044	-18.12744
3.0445	-23.46497
3.045	-30.11169
3.0455	-38.57117
3.046	-39.17542
3.0465	-40.2832
3.047	-43.40515
3.0475	-38.77258
3.048	-29.80957
3.0485	-19.43665
3.049	-13.39417
3.0495	-14.19983
3.05	-9.97009
3.0505	-11.98425
3.051	-3.02124
3.0515	-3.22266
3.052	-0.50354
3.0525	2.41699
3.053	1.71204
3.0535	2.11487
3.054	0
3.0545	2.5177
3.055	7.15027
3.0555	11.58142
3.056	5.53894
3.0565	9.86938
3.057	12.5885
3.0575	14.09912
3.058	19.53735
3.0585	14.80408
3.059	13.29346
3.0595	19.94019
3.06	15.00549
3.0605	13.49487
3.061	15.91187
3.0615	11.2793
3.062	8.66089
3.0625	9.06372
3.063	30.71594
3.0635	40.48462
3.064	41.69312
3.0645	37.26196
3.065	31.01807
3.0655	17.32178
3.066	6.54602
3.0665	-2.11487
3.067	-5.13611
3.0675	-14.09912
3.068	-23.76709
3.0685	-24.47205
3.069	-22.86072
3.0695	-19.83948
3.07	-9.56726
3.0705	-4.12903
3.071	-4.02832
3.0715	-0.30212
3.072	-0.30212
3.0725	2.11487
3.073	-1.40991
3.0735	-2.11487
3.074	4.83398
3.0745	9.97009
3.075	8.45947
3.0755	5.74036
3.076	6.64673
3.0765	4.63257
3.077	0.60425
3.0775	3.7262
3.078	4.12903
3.0785	6.3446
3.079	5.94177
3.0795	5.33752
3.08	0.70496
3.0805	3.92761
3.081	1.61133
3.0815	0.40283
3.082	-0.30212
3.0825	-0.20142
3.083	4.73328
3.0835	9.66797
3.084	6.14319
3.0845	4.73328
3.085	8.96301
3.0855	15.50903
3.086	18.73169
3.0865	11.48071
3.087	8.56018
3.0875	4.73328
3.088	8.45947
3.0885	9.46655
3.089	12.99133
3.0895	13.797
3.09	18.22815
3.0905	9.26514
3.091	3.32336
3.0915	-5.53894
3.092	1.71204
3.0925	5.13611
3.093	7.35168
3.0935	-0.30212
3.094	0.60425
3.0945	-4.63257
3.095	0.90637
3.0955	12.18567
3.096	20.44373
3.0965	18.02673
3.097	8.8623
3.0975	2.61841
3.098	3.12195
3.0985	6.14319
3.099	11.38
3.0995	10.0708
3.1	7.15027
3.1005	7.75452
3.101	7.75452
3.1015	11.88354
3.102	10.57434
3.1025	1.91345
3.103	7.95593
3.1035	6.84814
3.104	4.02832
3.1045	11.17859
3.105	22.6593
3.1055	26.08337
3.106	28.9032
3.1065	32.12585
3.107	27.79541
3.1075	17.92603
3.108	12.5885
3.1085	0.40283
3.109	-6.64673
3.1095	-11.07788
3.11	-14.19983
3.1105	-15.30762
3.111	-5.63965
3.1115	-6.04248
3.112	-7.85522
3.1125	-3.12195
3.113	-2.11487
3.1135	-6.84814
3.114	-11.48071
3.1145	-5.33752
3.115	-2.31628
3.1155	-4.02832
3.116	1.51062
3.1165	1.00708
3.117	0.70496
3.1175	2.01416
3.118	7.75452
3.1185	5.63965
3.119	0.80566
3.1195	0.70496
3.12	6.04248
3.1205	8.66089
3.121	13.797
3.1215	10.17151
3.122	12.18567
3.1225	8.7616
3.123	13.89771
3.1235	11.48071
3.124	5.74036
3.1245	6.14319
3.125	4.33044
3.1255	7.5531
3.126	18.22815
3.1265	16.81824
3.127	21.45081
3.1275	18.42957
3.128	27.49329
3.1285	29.30603
3.129	26.3855
3.1295	30.41382
3.13	35.75134
3.1305	48.84338
3.131	63.74817
3.1315	67.47437
3.132	63.64746
3.1325	47.23206
3.133	22.96143
3.1335	9.46655
3.134	-5.53894
3.1345	-15.40833
3.135	-29.20532
3.1355	-42.29736
3.136	-50.05188
3.1365	-59.71985
3.137	-68.07861
3.1375	-67.77649
3.138	-59.41772
3.1385	-46.92993
3.139	-32.12585
3.1395	-28.70178
3.14	-19.03381
3.1405	-10.0708
3.141	7.25098
3.1415	12.18567
3.142	9.66797
3.1425	3.02124
3.143	9.26514
3.1435	10.37292
3.144	9.56726
3.1445	4.63257
3.145	4.73328
3.1455	5.0354
3.146	5.74036
3.1465	2.92053
3.147	8.56018
3.1475	7.25098
3.148	8.56018
3.1485	8.45947
3.149	5.84106
3.1495	2.11487
3.15	3.02124
3.1505	10.87646
3.151	11.88354
3.1515	10.77576
3.152	8.96301
3.1525	12.38708
3.153	8.05664
3.1535	13.89771
3.154	10.97717
3.1545	9.56726
3.155	8.35876
3.1555	9.36584
3.156	13.29346
3.1565	9.97009
3.157	12.48779
3.1575	12.48779
3.158	10.77576
3.1585	14.60266
3.159	11.58142
3.1595	18.93311
3.16	25.68054
3.1605	26.68762
3.161	20.64514
3.1615	26.08337
3.162	18.02673
3.1625	6.3446
3.163	3.22266
3.1635	-3.92761
3.164	-9.16443
3.1645	-13.59558
3.165	-8.8623
3.1655	-5.53894
3.166	-2.92053
3.1665	0.30212
3.167	-2.41699
3.1675	0.80566
3.168	6.3446
3.1685	15.40833
3.169	15.60974
3.1695	14.60266
3.17	23.56567
3.1705	31.21948
3.171	24.87488
3.1715	21.55151
3.172	16.71753
3.1725	12.68921
3.173	11.78284
3.1735	3.12195
3.174	-5.94177
3.1745	-7.65381
3.175	-8.05664
3.1755	-9.86938
3.176	-12.89062
3.1765	-9.86938
3.177	-3.42407
3.1775	5.13611
3.178	11.58142
3.1785	10.97717
3.179	9.86938
3.1795	10.57434
3.18	9.97009
3.1805	7.95593
3.181	6.84814
3.1815	4.22974
3.182	12.5885
3.1825	28.70178
3.183	44.0094
3.1835	54.48303
3.184	60.12268
3.1845	50.55542
3.185	41.99524
3.1855	25.27771
3.186	8.7616
3.1865	-1.00708
3.187	-9.97009
3.1875	-16.61682
3.188	-25.78125
3.1885	-30.61523
3.189	-31.72302
3.1895	-26.58691
3.19	-27.79541
3.1905	-22.76001
3.191	-17.12036
3.1915	-4.02832
3.192	1.71204
3.1925	4.12903
3.193	4.83398
3.1935	10.47363
3.194	8.56018
3.1945	4.33044
3.195	4.73328
3.1955	4.43115
3.196	1.91345
3.1965	-2.01416
3.197	3.92761
3.1975	1.40991
3.198	3.62549
3.1985	8.05664
3.199	2.5177
3.1995	6.14319
3.2	16.21399
3.2005	20.34302
3.201	29.20532
3.2015	34.64355
3.202	38.36975
3.2025	42.09595
3.203	51.96533
3.2035	55.2887
3.204	53.07312
3.2045	44.81506
3.205	40.78674
3.2055	35.75134
3.206	29.00391
3.2065	16.81824
3.207	-0.90637
3.2075	-15.00549
3.208	-21.95435
3.2085	-28.60107
3.209	-31.11877
3.2095	-23.16284
3.21	-19.63806
3.2105	-16.3147
3.211	-21.65222
3.2115	-32.22656
3.212	-23.46497
3.2125	-14.60266
3.213	-11.98425
3.2135	-20.34302
3.214	-15.20691
3.2145	-17.12036
3.215	-17.42249
3.2155	-10.17151
3.216	-9.26514
3.2165	-7.5531
3.217	-1.10779
3.2175	2.81982
3.218	1.61133
3.2185	-0.20142
3.219	8.35876
3.2195	9.26514
3.22	13.797
3.2205	17.92603
3.221	16.41541
3.2215	16.01257
3.222	13.29346
3.2225	7.35168
3.223	10.47363
3.2235	5.63965
3.224	2.31628
3.2245	8.35876
3.225	4.12903
3.2255	10.57434
3.226	12.38708
3.2265	12.08496
3.227	14.30054
3.2275	13.19275
3.228	10.17151
3.2285	0.90637
3.229	3.12195
3.2295	6.64673
3.23	5.74036
3.2305	11.38
3.231	16.51611
3.2315	11.17859
3.232	8.8623
3.2325	11.17859
3.233	17.22107
3.2335	20.74585
3.234	28.29895
3.2345	30.41382
3.235	40.78674
3.2355	41.59241
3.236	35.04639
3.2365	24.27063
3.237	14.40125
3.2375	1.2085
3.238	-13.09204
3.2385	-23.06213
3.239	-31.82373
3.2395	-27.19116
3.24	-20.64514
3.2405	-18.32886
3.241	-21.3501
3.2415	-19.03381
3.242	-10.0708
3.2425	-0.50354
3.243	-4.22974
3.2435	2.92053
3.244	7.45239
3.2445	12.08496
3.245	14.80408
3.2455	18.93311
3.246	19.03381
3.2465	9.86938
3.247	5.23682
3.2475	1.71204
3.248	4.33044
3.2485	4.12903
3.249	9.66797
3.2495	10.67505
3.25	15.81116
3.2505	10.27222
3.251	12.78992
3.2515	8.8623
3.252	10.67505
3.2525	12.48779
3.253	4.53186
3.2535	11.07788
3.254	7.5531
3.2545	11.58142
3.255	7.04956
3.2555	4.73328
3.256	7.75452
3.2565	13.797
3.257	11.68213
3.2575	6.2439
3.258	9.66797
3.2585	14.70337
3.259	20.54443
3.2595	18.22815
3.26	13.797
3.2605	21.75293
3.261	25.177
3.2615	30.01099
3.262	26.98975
3.2625	25.88196
3.263	28.9032
3.2635	28.39966
3.264	19.73877
3.2645	18.02673
3.265	12.68921
3.2655	9.16443
3.266	5.33752
3.2665	0
3.267	-6.84814
3.2675	-9.26514
3.268	-8.45947
3.2685	0.60425
3.269	7.95593
3.2695	7.45239
3.27	3.62549
3.2705	-4.73328
3.271	-12.08496
3.2715	-13.69629
3.272	-24.06921
3.2725	-26.58691
3.273	-23.46497
3.2735	-13.59558
3.274	-3.12195
3.2745	6.14319
3.275	11.38
3.2755	11.78284
3.276	10.57434
3.2765	5.43823
3.277	4.43115
3.2775	3.52478
3.278	-0.90637
3.2785	-8.7616
3.279	-13.49487
3.2795	-7.45239
3.28	-10.0708
3.2805	-13.19275
3.281	0.90637
3.2815	10.0708
3.282	22.05505
3.2825	32.7301
3.283	31.52161
3.2835	25.68054
3.284	24.27063
3.2845	16.71753
3.285	6.54602
3.2855	1.71204
3.286	-4.63257
3.2865	-4.73328
3.287	-13.99841
3.2875	-11.68213
3.288	-16.3147
3.2885	-15.50903
3.289	-4.22974
3.2895	-4.12903
3.29	1.91345
3.2905	5.0354
3.291	0.80566
3.2915	7.65381
3.292	15.40833
3.2925	21.45081
3.293	27.39258
3.2935	22.45789
3.294	18.02673
3.2945	16.81824
3.295	12.48779
3.2955	6.14319
3.296	3.12195
3.2965	3.42407
3.297	3.8269
3.2975	2.11487
3.298	3.42407
3.2985	3.32336
3.299	4.63257
3.2995	0.20142
3.3	2.21558
3.3005	-2.61841
3.301	2.71912
3.3015	1.61133
3.302	0.70496
3.3025	-3.52478
3.303	-1.91345
3.3035	4.22974
3.304	5.33752
3.3045	8.56018
3.305	4.63257
3.3055	4.33044
3.306	1.10779
3.3065	5.53894
3.307	2.31628
3.3075	3.62549
3.308	-0.10071
3.3085	-3.7262
3.309	-3.8269
3.3095	9.06372
3.31	4.22974
3.3105	6.64673
3.311	10.37292
3.3115	12.48779
3.312	13.797
3.3125	15.1062
3.313	15.30762
3.3135	12.99133
3.314	15.1062
3.3145	15.20691
3.315	11.88354
3.3155	12.28638
3.316	15.20691
3.3165	9.16443
3.317	5.94177
3.3175	3.92761
3.318	6.04248
3.3185	8.45947
3.319	4.93469
3.3195	5.53894
3.32	3.52478
3.3205	2.81982
3.321	8.7616
3.3215	15.91187
3.322	29.20532
3.3225	31.92444
3.323	35.95276
3.3235	28.09753
3.324	25.37842
3.3245	10.57434
3.325	2.92053
3.3255	2.31628
3.326	-0.10071
3.3265	-5.43823
3.327	-11.17859
3.3275	-7.25098
3.328	-5.84106
3.3285	-1.71204
3.329	-0.70496
3.3295	-0.90637
3.33	-4.83398
3.3305	-8.7616
3.331	-6.04248
3.3315	-0.90637
3.332	6.64673
3.3325	15.1062
3.333	10.17151
3.3335	9.06372
3.334	5.63965
3.3345	6.44531
3.335	8.45947
3.3355	12.89062
3.336	13.797
3.3365	9.76868
3.337	9.16443
3.3375	9.66797
3.338	10.27222
3.3385	5.53894
3.339	9.36584
3.3395	9.36584
3.34	20.64514
3.3405	31.92444
3.341	48.23914
3.3415	54.58374
3.342	54.38232
3.3425	50.55542
3.343	40.1825
3.3435	36.65771
3.344	26.68762
3.3445	22.6593
3.345	20.84656
3.3455	21.65222
3.346	15.91187
3.3465	7.45239
3.347	-1.2085
3.3475	-10.17151
3.348	-15.81116
3.3485	-22.25647
3.349	-31.92444
3.3495	-39.57825
3.35	-38.26904
3.3505	-35.14709
3.351	-41.89453
3.3515	-37.36267
3.352	-30.01099
3.3525	-26.18408
3.353	-24.87488
3.3535	-23.16284
3.354	-14.70337
3.3545	-12.68921
3.355	-1.71204
3.3555	1.51062
3.356	9.66797
3.3565	10.87646
3.357	12.99133
3.3575	5.74036
3.358	3.22266
3.3585	7.45239
3.359	17.32178
3.3595	24.37134
3.36	33.03223
3.3605	29.30603
3.361	26.3855
3.3615	14.80408
3.362	8.35876
3.3625	5.0354
3.363	2.01416
3.3635	3.12195
3.364	0.90637
3.3645	0.70496
3.365	0.80566
3.3655	-6.84814
3.366	-4.53186
3.3665	-1.00708
3.367	-1.2085
3.3675	1.81274
3.368	5.53894
3.3685	12.5885
3.369	18.22815
3.3695	27.09045
3.37	23.36426
3.3705	18.73169
3.371	14.30054
3.3715	10.47363
3.372	7.75452
3.3725	1.40991
3.373	-5.33752
3.3735	-8.7616
3.374	-9.16443
3.3745	-9.56726
3.375	-0.70496
3.3755	6.44531
3.376	14.80408
3.3765	17.22107
3.377	15.1062
3.3775	6.74744
3.378	5.0354
3.3785	12.08496
3.379	3.8269
3.3795	2.41699
3.38	-5.74036
3.3805	-5.33752
3.381	-6.44531
3.3815	-12.48779
3.382	-17.01965
3.3825	-15.50903
3.383	-12.08496
3.3835	-12.78992
3.384	-9.86938
3.3845	6.14319
3.385	15.50903
3.3855	23.36426
3.386	21.65222
3.3865	15.60974
3.387	1.61133
3.3875	0.30212
3.388	-7.95593
3.3885	-4.73328
3.389	-5.53894
3.3895	-0.70496
3.39	-7.35168
3.3905	-2.31628
3.391	2.81982
3.3915	8.7616
3.392	12.99133
3.3925	17.82532
3.393	8.8623
3.3935	11.48071
3.394	10.27222
3.3945	13.39417
3.395	22.15576
3.3955	24.47205
3.396	20.1416
3.3965	13.797
3.397	12.18567
3.3975	13.797
3.398	11.78284
3.3985	5.94177
3.399	4.12903
3.3995	9.46655
3.4	9.97009
3.4005	9.16443
3.401	19.13452
3.4015	23.26355
3.402	27.6947
3.4025	24.47205
3.403	19.94019
3.4035	11.17859
3.404	5.0354
3.4045	-0.10071
3.405	-0.20142
3.4055	-0.80566
3.406	0.50354
3.4065	9.86938
3.407	9.46655
3.4075	8.7616
3.408	2.81982
3.4085	8.96301
3.409	10.87646
3.4095	20.64514
3.41	14.30054
3.4105	16.3147
3.411	19.13452
3.4115	19.73877
3.412	22.6593
3.4125	15.81116
3.413	15.00549
3.4135	3.02124
3.414	3.62549
3.4145	1.91345
3.415	6.64673
3.4155	-1.51062
3.416	-6.94885
3.4165	-12.38708
3.417	-11.2793
3.4175	-15.50903
3.418	-13.39417
3.4185	-8.7616
3.419	-4.33044
3.4195	0
3.42	-1.00708
3.4205	-12.38708
3.421	-10.67505
3.4215	-11.58142
3.422	-4.93469
3.4225	-6.64673
3.423	-10.77576
3.4235	-7.35168
3.424	-2.81982
3.4245	0.30212
3.425	0.20142
3.4255	9.36584
3.426	6.04248
3.4265	12.08496
3.427	7.45239
3.4275	3.62549
3.428	-2.11487
3.4285	0.40283
3.429	-0.50354
3.4295	3.8269
3.43	-3.62549
3.4305	-2.5177
3.431	-6.94885
3.4315	-3.92761
3.432	2.11487
3.4325	10.17151
3.433	6.44531
3.4335	5.23682
3.434	4.22974
3.4345	-4.02832
3.435	-7.65381
3.4355	-0.80566
3.436	10.67505
3.4365	10.27222
3.437	7.25098
3.4375	15.50903
3.438	32.7301
3.4385	52.06604
3.439	49.0448
3.4395	38.87329
3.44	26.48621
3.4405	26.08337
3.441	24.67346
3.4415	28.09753
3.442	19.03381
3.4425	0.40283
3.443	-11.98425
3.4435	-2.92053
3.444	-3.92761
3.4445	4.83398
3.445	4.73328
3.4455	-1.3092
3.446	-6.44531
3.4465	-0.20142
3.447	13.99841
3.4475	16.91895
3.448	16.61682
3.4485	7.25098
3.449	2.92053
3.4495	-9.16443
3.45	-19.94019
3.4505	-36.25488
3.451	-38.36975
3.4515	-37.16125
3.452	-35.44922
3.4525	-30.31311
3.453	-14.09912
3.4535	5.43823
3.454	22.45789
3.4545	25.57983
3.455	31.01807
3.4555	30.2124
3.456	20.24231
3.4565	18.02673
3.457	26.28479
3.4575	15.81116
3.458	9.66797
3.4585	-3.52478
3.459	-12.99133
3.4595	-6.54602
3.46	-9.56726
3.4605	-7.5531
3.461	-2.21558
3.4615	1.2085
3.462	4.83398
3.4625	10.17151
3.463	11.78284
3.4635	8.66089
3.464	14.80408
3.4645	12.5885
3.465	13.99841
3.4655	16.3147
3.466	13.69629
3.4665	16.51611
3.467	20.84656
3.4675	26.28479
3.468	25.78125
3.4685	26.18408
3.469	28.39966
3.4695	24.37134
3.47	30.71594
3.4705	30.71594
3.471	22.25647
3.4715	24.06921
3.472	29.80957
3.4725	36.35559
3.473	31.4209
3.4735	28.80249
3.474	18.02673
3.4745	12.08496
3.475	17.32178
3.4755	4.12903
3.476	-6.64673
3.4765	-13.59558
3.477	-26.3855
3.4775	-27.79541
3.478	-27.09045
3.4785	-29.30603
3.479	-19.23523
3.4795	-17.01965
3.48	-8.45947
3.4805	-11.07788
3.481	-1.61133
3.4815	-11.07788
3.482	-1.00708
3.4825	6.94885
3.483	7.04956
3.4835	0.60425
3.484	3.7262
3.4845	2.92053
3.485	-1.10779
3.4855	0.50354
3.486	5.23682
3.4865	6.84814
3.487	3.32336
3.4875	9.56726
3.488	14.50195
3.4885	9.76868
3.489	11.17859
3.4895	13.69629
3.49	13.59558
3.4905	13.09204
3.491	13.69629
3.4915	21.85364
3.492	19.53735
3.4925	15.50903
3.493	18.22815
3.4935	10.0708
3.494	13.89771
3.4945	9.46655
3.495	8.8623
3.4955	12.5885
3.496	9.46655
3.4965	3.52478
3.497	6.44531
3.4975	1.91345
3.498	1.2085
3.4985	3.12195
3.499	9.26514
3.4995	9.36584
3.5	2.21558
3.5005	0.10071
3.501	3.7262
3.5015	6.04248
3.502	10.57434
3.5025	8.56018
3.503	4.12903
3.5035	12.89062
3.504	18.93311
3.5045	25.37842
3.505	24.27063
3.5055	19.53735
3.506	21.04797
3.5065	16.11328
3.507	6.14319
3.5075	7.65381
3.508	6.64673
3.5085	6.2439
3.509	-2.41699
3.5095	1.51062
3.51	0.20142
3.5105	-5.23682
3.511	-8.35876
3.5115	-10.77576
3.512	1.71204
3.5125	-3.42407
3.513	-2.31628
3.5135	7.85522
3.514	17.32178
3.5145	17.52319
3.515	12.28638
3.5155	10.67505
3.516	8.66089
3.5165	4.43115
3.517	3.32336
3.5175	4.22974
3.518	5.43823
3.5185	-6.74744
3.519	-1.61133
3.5195	3.02124
3.52	-2.01416
3.5205	2.81982
3.521	1.40991
3.5215	2.01416
3.522	4.83398
3.5225	11.07788
3.523	13.89771
3.5235	16.3147
3.524	12.99133
3.5245	13.29346
3.525	8.25806
3.5255	5.63965
3.526	-2.41699
3.5265	-4.73328
3.527	-5.94177
3.5275	-11.07788
3.528	-18.02673
3.5285	-16.3147
3.529	-11.68213
3.5295	-7.95593
3.53	-6.14319
3.5305	-0.40283
3.531	7.5531
3.5315	8.35876
3.532	10.77576
3.5325	14.90479
3.533	12.38708
3.5335	12.38708
3.534	7.5531
3.5345	12.38708
3.535	24.16992
3.5355	34.74426
3.536	34.24072
3.5365	31.32019
3.537	25.27771
3.5375	24.37134
3.538	9.36584
3.5385	-1.3092
3.539	-8.25806
3.5395	-10.77576
3.54	-5.43823
3.5405	-11.68213
3.541	-8.8623
3.5415	-7.95593
3.542	-6.04248
3.5425	-4.33044
3.543	-0.10071
3.5435	0.60425
3.544	-3.52478
3.5445	-0.80566
3.545	7.85522
3.5455	11.78284
3.546	8.45947
3.5465	9.97009
3.547	4.93469
3.5475	6.04248
3.548	8.25806
3.5485	18.93311
3.549	24.97559
3.5495	31.21948
3.55	28.60107
3.5505	29.80957
3.551	23.8678
3.5515	25.88196
3.552	29.50745
3.5525	30.01099
3.553	29.91028
3.5535	30.2124
3.554	24.06921
3.5545	23.8678
3.555	20.24231
3.5555	15.30762
3.556	22.6593
3.5565	27.99683
3.557	46.42639
3.5575	56.09436
3.558	54.38232
3.5585	38.26904
3.559	18.8324
3.5595	-0.10071
3.56	-21.04797
3.5605	-35.04639
3.561	-36.15417
3.5615	-49.44763
3.562	-61.43188
3.5625	-65.96375
3.563	-60.52551
3.5635	-57.9071
3.564	-47.23206
3.5645	-37.96692
3.565	-27.29187
3.5655	-17.72461
3.566	-11.17859
3.5665	3.42407
3.567	15.00549
3.5675	17.22107
3.568	27.79541
3.5685	27.6947
3.569	18.12744
3.5695	17.22107
3.57	3.8269
3.5705	-2.41699
3.571	-1.51062
3.5715	-8.35876
3.572	-11.07788
3.5725	-12.99133
3.573	-10.57434
3.5735	-11.17859
3.574	1.40991
3.5745	-6.2439
3.575	-0.30212
3.5755	2.61841
3.576	6.04248
3.5765	11.98425
3.577	12.89062
3.5775	9.46655
3.578	6.2439
3.5785	7.95593
3.579	6.74744
3.5795	4.63257
3.58	1.91345
3.5805	3.42407
3.581	-1.3092
3.5815	3.22266
3.582	5.94177
3.5825	4.12903
3.583	5.94177
3.5835	9.46655
3.584	7.35168
3.5845	7.04956
3.585	4.33044
3.5855	-1.3092
3.586	3.42407
3.5865	0.70496
3.587	-5.63965
3.5875	-7.35168
3.588	2.92053
3.5885	13.99841
3.589	15.20691
3.5895	16.01257
3.59	9.36584
3.5905	5.33752
3.591	1.10779
3.5915	3.12195
3.592	-2.11487
3.5925	-0.10071
3.593	-10.87646
3.5935	-16.11328
3.594	-14.19983
3.5945	-9.06372
3.595	-6.44531
3.5955	-3.7262
3.596	-5.53894
3.5965	-5.0354
3.597	-2.31628
3.5975	4.33044
3.598	3.42407
3.5985	11.07788
3.599	10.17151
3.5995	11.78284
3.6	8.35876
3.6005	8.96301
3.601	4.63257
3.6015	10.77576
3.602	9.46655
3.6025	9.06372
3.603	6.64673
3.6035	6.44531
3.604	13.39417
3.6045	8.96301
3.605	9.06372
3.6055	8.25806
3.606	8.35876
3.6065	5.53894
3.607	4.22974
3.6075	8.05664
3.608	7.35168
3.6085	5.0354
3.609	5.43823
3.6095	10.87646
3.61	10.47363
3.6105	9.86938
3.611	12.38708
3.6115	13.19275
3.612	7.35168
3.6125	8.45947
3.613	11.58142
3.6135	12.89062
3.614	16.81824
3.6145	12.99133
3.615	14.30054
3.6155	22.15576
3.616	17.22107
3.6165	10.47363
3.617	10.77576
3.6175	9.36584
3.618	1.81274
3.6185	2.41699
3.619	3.8269
3.6195	3.8269
3.62	9.86938
3.6205	9.56726
3.621	11.17859
3.6215	12.38708
3.622	9.06372
3.6225	10.57434
3.623	14.60266
3.6235	21.75293
3.624	28.70178
3.6245	27.6947
3.625	14.09912
3.6255	11.58142
3.626	7.15027
3.6265	6.54602
3.627	6.64673
3.6275	11.2793
3.628	15.00549
3.6285	18.63098
3.629	25.27771
3.6295	26.78833
3.63	25.07629
3.6305	36.15417
3.631	27.89612
3.6315	24.67346
3.632	28.50037
3.6325	18.63098
3.633	11.88354
3.6335	3.62549
3.634	2.81982
3.6345	-7.65381
3.635	-9.56726
3.6355	-6.74744
3.636	-10.67505
3.6365	-17.92603
3.637	-24.27063
3.6375	-22.96143
3.638	-24.47205
3.6385	-12.28638
3.639	-6.84814
3.6395	-3.8269
3.64	1.2085
3.6405	1.81274
3.641	15.30762
3.6415	26.08337
3.642	31.11877
3.6425	26.78833
3.643	24.06921
3.6435	17.12036
3.644	17.6239
3.6445	9.36584
3.645	-1.3092
3.6455	-1.71204
3.646	-4.12903
3.6465	0.30212
3.647	-6.14319
3.6475	-7.5531
3.648	-3.32336
3.6485	-2.11487
3.649	-1.61133
3.6495	-4.93469
3.65	-5.23682
3.6505	-5.43823
3.651	-2.31628
3.6515	3.7262
3.652	8.7616
3.6525	0.90637
3.653	0.80566
3.6535	-0.40283
3.654	2.01416
3.6545	2.11487
3.655	-4.53186
3.6555	0
3.656	3.52478
3.6565	9.36584
3.657	8.15735
3.6575	11.17859
3.658	10.17151
3.6585	7.25098
3.659	11.38
3.6595	18.93311
3.66	27.79541
3.6605	37.06055
3.661	29.10461
3.6615	27.99683
3.662	18.22815
3.6625	13.29346
3.663	7.15027
3.6635	0.60425
3.664	0.30212
3.6645	-10.27222
3.665	-16.51611
3.6655	-16.01257
3.666	-11.98425
3.6665	-5.43823
3.667	-6.94885
3.6675	-0.20142
3.668	10.57434
3.6685	22.86072
3.669	31.72302
3.6695	30.61523
3.67	29.00391
3.6705	21.95435
3.671	13.99841
3.6715	6.2439
3.672	3.52478
3.6725	-6.3446
3.673	-9.16443
3.6735	-11.68213
3.674	-12.89062
3.6745	-9.26514
3.675	-0.90637
3.6755	4.33044
3.676	1.40991
3.6765	-0.70496
3.677	2.61841
3.6775	7.65381
3.678	8.96301
3.6785	10.27222
3.679	6.2439
3.6795	8.96301
3.68	4.93469
3.6805	13.29346
3.681	6.54602
3.6815	2.5177
3.682	5.63965
3.6825	2.01416
3.683	2.71912
3.6835	6.2439
3.684	9.97009
3.6845	9.36584
3.685	7.5531
3.6855	12.48779
3.686	11.68213
3.6865	15.00549
3.687	13.39417
3.6875	15.71045
3.688	11.98425
3.6885	10.37292
3.689	8.7616
3.6895	10.0708
3.69	6.54602
3.6905	7.35168
3.691	10.97717
3.6915	12.89062
3.692	5.63965
3.6925	8.8623
3.693	1.81274
3.6935	5.63965
3.694	7.5531
3.6945	4.22974
3.695	3.7262
3.6955	5.33752
3.696	11.17859
3.6965	10.97717
3.697	6.14319
3.6975	10.27222
3.698	4.43115
3.6985	3.22266
3.699	0.50354
3.6995	8.45947
3.7	4.93469
3.7005	0.70496
3.701	-3.92761
3.7015	5.94177
3.702	5.13611
3.7025	4.12903
3.703	6.54602
3.7035	2.61841
3.704	17.42249
3.7045	15.81116
3.705	19.83948
3.7055	19.03381
3.706	19.33594
3.7065	17.12036
3.707	4.63257
3.7075	10.77576
3.708	14.09912
3.7085	18.12744
3.709	17.01965
3.7095	13.59558
3.71	16.21399
3.7105	17.72461
3.711	17.01965
3.7115	12.38708
3.712	4.53186
3.7125	-5.53894
3.713	-0.70496
3.7135	3.7262
3.714	7.45239
3.7145	4.53186
3.715	-12.28638
3.7155	-18.73169
3.716	-27.19116
3.7165	-31.52161
3.717	-31.11877
3.7175	-19.33594
3.718	-11.98425
3.7185	-3.32336
3.719	2.92053
3.7195	7.25098
3.72	7.15027
3.7205	5.13611
3.721	3.92761
3.7215	3.8269
3.722	-2.61841
3.7225	2.92053
3.723	2.21558
3.7235	4.83398
3.724	0.40283
3.7245	-8.96301
3.725	-9.06372
3.7255	-12.38708
3.726	-4.33044
3.7265	-2.11487
3.727	3.52478
3.7275	0
3.728	-1.10779
3.7285	-1.00708
3.729	8.7616
3.7295	16.11328
3.73	10.87646
3.7305	12.08496
3.731	9.76868
3.7315	5.23682
3.732	15.40833
3.7325	18.22815
3.733	21.85364
3.7335	30.41382
3.734	39.67896
3.7345	43.00232
3.735	38.77258
3.7355	34.14001
3.736	23.76709
3.7365	26.3855
3.737	30.31311
3.7375	29.10461
3.738	15.71045
3.7385	24.16992
3.739	16.3147
3.7395	8.96301
3.74	2.01416
3.7405	-6.64673
3.741	-12.99133
3.7415	-20.24231
3.742	-27.99683
3.7425	-32.42798
3.743	-34.54285
3.7435	-34.64355
3.744	-37.86621
3.7445	-33.43506
3.745	-25.88196
3.7455	-22.55859
3.746	-12.38708
3.7465	-5.43823
3.747	-2.5177
3.7475	-5.33752
3.748	2.31628
3.7485	10.0708
3.749	10.87646
3.7495	10.87646
3.75	12.89062
3.7505	13.49487
3.751	10.27222
3.7515	10.47363
3.752	7.35168
3.7525	8.05664
3.753	10.97717
3.7535	16.11328
3.754	19.33594
3.7545	18.93311
3.755	14.50195
3.7555	16.81824
3.756	11.17859
3.7565	11.98425
3.757	16.71753
3.7575	12.28638
3.758	15.30762
3.7585	18.22815
3.759	17.52319
3.7595	14.19983
3.76	21.85364
3.7605	29.70886
3.761	31.62231
3.7615	32.52869
3.762	22.05505
3.7625	14.70337
3.763	2.11487
3.7635	-0.40283
3.764	-6.14319
3.7645	-8.7616
3.765	-11.88354
3.7655	-13.69629
3.766	-15.40833
3.7665	-11.48071
3.767	-4.12903
3.7675	9.66797
3.768	6.3446
3.7685	5.74036
3.769	7.75452
3.7695	16.81824
3.77	27.79541
3.7705	25.177
3.771	28.39966
3.7715	36.65771
3.772	39.37683
3.7725	36.65771
3.773	26.58691
3.7735	15.60974
3.774	10.37292
3.7745	-0.80566
3.775	-5.84106
3.7755	-13.49487
3.776	-14.50195
3.7765	-19.03381
3.777	-23.46497
3.7775	-26.58691
3.778	-26.18408
3.7785	-16.71753
3.779	7.25098
3.7795	11.2793
3.78	9.86938
3.7805	8.7616
3.781	1.91345
3.7815	2.71912
3.782	2.31628
3.7825	-2.41699
3.783	-3.7262
3.7835	-6.14319
3.784	-3.7262
3.7845	-2.92053
3.785	-0.70496
3.7855	0.90637
3.786	-3.12195
3.7865	-2.01416
3.787	-3.12195
3.7875	-6.04248
3.788	-3.22266
3.7885	5.94177
3.789	11.78284
3.7895	9.36584
3.79	11.17859
3.7905	6.44531
3.791	6.3446
3.7915	11.98425
3.792	3.62549
3.7925	8.45947
3.793	8.96301
3.7935	9.06372
3.794	6.74744
3.7945	6.84814
3.795	10.0708
3.7955	6.3446
3.796	5.94177
3.7965	4.93469
3.797	7.65381
3.7975	7.15027
3.798	4.83398
3.7985	8.25806
3.799	5.94177
3.7995	8.66089
3.8	11.58142
3.8005	8.66089
3.801	7.25098
3.8015	11.88354
3.802	9.36584
3.8025	10.27222
3.803	14.30054
3.8035	11.48071
3.804	14.30054
3.8045	13.99841
3.805	13.29346
3.8055	15.81116
3.806	21.3501
3.8065	16.91895
3.807	14.09912
3.8075	12.28638
3.808	4.63257
3.8085	-2.71912
3.809	-6.84814
3.8095	-6.3446
3.81	-1.40991
3.8105	-2.31628
3.811	-1.61133
3.8115	12.38708
3.812	19.43665
3.8125	19.63806
3.813	20.04089
3.8135	17.22107
3.814	11.17859
3.8145	-2.01416
3.815	-2.31628
3.8155	-2.81982
3.816	3.22266
3.8165	5.94177
3.817	7.25098
3.8175	3.7262
3.818	15.91187
3.8185	25.78125
3.819	33.9386
3.8195	27.59399
3.82	26.88904
3.8205	21.3501
3.821	8.35876
3.8215	0.60425
3.822	-7.45239
3.8225	-7.85522
3.823	-17.32178
3.8235	-18.93311
3.824	-28.39966
3.8245	-33.83789
3.825	-34.14001
3.8255	-33.73718
3.826	-27.29187
3.8265	-15.00549
3.827	-12.89062
3.8275	-9.26514
3.828	8.8623
3.8285	17.82532
3.829	31.82373
3.8295	31.62231
3.83	22.25647
3.8305	18.8324
3.831	21.3501
3.8315	24.97559
3.832	23.46497
3.8325	16.61682
3.833	14.30054
3.8335	9.97009
3.834	7.75452
3.8345	0.90637
3.835	-0.40283
3.8355	-0.80566
3.836	6.84814
3.8365	5.94177
3.837	7.45239
3.8375	1.40991
3.838	7.65381
3.8385	13.797
3.839	12.08496
3.8395	-0.70496
3.84	3.02124
3.8405	8.25806
3.841	8.45947
3.8415	9.16443
3.842	7.04956
3.8425	5.33752
3.843	0.10071
3.8435	0.80566
3.844	-0.10071
3.8445	-1.51062
3.845	1.40991
3.8455	3.8269
3.846	5.53894
3.8465	5.23682
3.847	6.04248
3.8475	8.25806
3.848	2.31628
3.8485	8.05664
3.849	7.04956
3.8495	8.05664
3.85	9.16443
3.8505	24.67346
3.851	34.84497
3.8515	35.54993
3.852	31.92444
3.8525	20.34302
3.853	21.3501
3.8535	18.53027
3.854	33.23364
3.8545	34.74426
3.855	33.9386
3.8555	24.67346
3.856	20.24231
3.8565	4.43115
3.857	-2.81982
3.8575	-7.65381
3.858	-8.25806
3.8585	0.10071
3.859	12.48779
3.8595	14.50195
3.86	17.12036
3.8605	16.21399
3.861	16.71753
3.8615	17.52319
3.862	22.55859
3.8625	8.45947
3.863	-2.81982
3.8635	-11.38
3.864	-19.23523
3.8645	-25.47913
3.865	-25.27771
3.8655	-35.65063
3.866	-34.34143
3.8665	-29.20532
3.867	-24.06921
3.8675	-24.87488
3.868	-22.45789
3.8685	-8.8623
3.869	-3.92761
3.8695	2.31628
3.87	-1.51062
3.8705	5.84106
3.871	5.94177
3.8715	16.41541
3.872	11.98425
3.8725	9.56726
3.873	10.0708
3.8735	7.25098
3.874	19.33594
3.8745	22.15576
3.875	23.26355
3.8755	26.08337
3.876	27.89612
3.8765	16.51611
3.877	4.63257
3.8775	0.70496
3.878	0.60425
3.8785	8.45947
3.879	8.35876
3.8795	-3.52478
3.88	-5.33752
3.8805	-1.51062
3.881	-2.71912
3.8815	-4.12903
3.882	-3.92761
3.8825	-2.01416
3.883	-3.12195
3.8835	-1.2085
3.884	5.74036
3.8845	8.66089
3.885	16.21399
3.8855	13.69629
3.886	13.19275
3.8865	13.39417
3.887	15.50903
3.8875	10.97717
3.888	5.84106
3.8885	7.5531
3.889	5.33752
3.8895	4.73328
3.89	8.96301
3.8905	5.63965
3.891	14.09912
3.8915	12.28638
3.892	16.91895
3.8925	13.797
3.893	10.77576
3.8935	11.78284
3.894	11.38
3.8945	10.97717
3.895	17.72461
3.8955	11.48071
3.896	4.12903
3.8965	12.68921
3.897	24.87488
3.8975	25.47913
3.898	31.11877
3.8985	22.96143
3.899	20.34302
3.8995	16.61682
3.9	11.68213
3.9005	7.15027
3.901	4.93469
3.9015	-1.2085
3.902	7.75452
3.9025	3.92761
3.903	10.87646
3.9035	19.03381
3.904	19.53735
3.9045	15.00549
3.905	14.19983
3.9055	13.39417
3.906	7.15027
3.9065	8.45947
3.907	7.75452
3.9075	5.33752
3.908	4.53186
3.9085	2.21558
3.909	-2.81982
3.9095	-11.38
3.91	-9.26514
3.9105	-7.25098
3.911	-8.35876
3.9115	0
3.912	2.11487
3.9125	0.60425
3.913	1.61133
3.9135	1.40991
3.914	2.92053
3.9145	-1.91345
3.915	4.33044
3.9155	6.94885
3.916	8.7616
3.9165	12.08496
3.917	5.23682
3.9175	5.23682
3.918	-5.53894
3.9185	-2.41699
3.919	-10.67505
3.9195	-14.19983
3.92	-8.56018
3.9205	-11.2793
3.921	-3.12195
3.9215	3.52478
3.922	5.63965
3.9225	2.11487
3.923	3.32336
3.9235	6.04248
3.924	2.92053
3.9245	4.22974
3.925	1.51062
3.9255	11.07788
3.926	9.76868
3.9265	10.67505
3.927	2.92053
3.9275	1.40991
3.928	4.43115
3.9285	8.66089
3.929	10.17151
3.9295	11.88354
3.93	7.65381
3.9305	4.93469
3.931	7.95593
3.9315	8.35876
3.932	11.48071
3.9325	17.92603
3.933	23.16284
3.9335	21.24939
3.934	20.04089
3.9345	21.65222
3.935	35.95276
3.9355	40.68604
3.936	39.67896
3.9365	40.1825
3.937	32.22656
3.9375	18.32886
3.938	9.16443
3.9385	1.40991
3.939	-7.5531
3.9395	-9.46655
3.94	-14.30054
3.9405	-20.44373
3.941	-16.91895
3.9415	-20.64514
3.942	-15.20691
3.9425	-7.85522
3.943	-12.28638
3.9435	-11.68213
3.944	-11.17859
3.9445	-7.65381
3.945	-2.31628
3.9455	0.50354
3.946	14.09912
3.9465	10.87646
3.947	12.18567
3.9475	15.50903
3.948	16.11328
3.9485	17.6239
3.949	15.71045
3.9495	23.8678
3.95	30.91736
3.9505	43.00232
3.951	47.63489
3.9515	57.50427
3.952	48.64197
3.9525	42.09595
3.953	34.14001
3.9535	29.20532
3.954	28.39966
3.9545	12.68921
3.955	-1.61133
3.9555	-10.77576
3.956	-30.2124
3.9565	-43.80798
3.957	-49.54834
3.9575	-47.7356
3.958	-36.95984
3.9585	-32.62939
3.959	-18.02673
3.9595	-11.78284
3.96	-4.83398
3.9605	-5.84106
3.961	-0.50354
3.9615	-5.94177
3.962	-14.30054
3.9625	-9.16443
3.963	-3.52478
3.9635	0.10071
3.964	-2.71912
3.9645	-3.8269
3.965	-4.73328
3.9655	-3.8269
3.966	-5.13611
3.9665	-6.2439
3.967	-12.28638
3.9675	-11.38
3.968	-2.81982
3.9685	1.51062
3.969	1.61133
3.9695	-9.06372
3.97	-5.0354
3.9705	-4.33044
3.971	-1.71204
3.9715	-8.05664
3.972	-2.81982
3.9725	0.30212
3.973	2.21558
3.9735	3.32336
3.974	-1.00708
3.9745	-1.61133
3.975	2.41699
3.9755	0.90637
3.976	4.22974
3.9765	1.10779
3.977	-2.71912
3.9775	1.51062
3.978	5.53894
3.9785	5.74036
3.979	8.96301
3.9795	7.25098
3.98	9.26514
3.9805	10.47363
3.981	5.13611
3.9815	4.22974
3.982	6.14319
3.9825	9.56726
3.983	3.42407
3.9835	6.64673
3.984	7.95593
3.9845	12.5885
3.985	3.7262
3.9855	11.78284
3.986	9.26514
3.9865	19.94019
3.987	21.55151
3.9875	24.67346
3.988	21.14868
3.9885	13.49487
3.989	12.08496
3.9895	7.95593
3.99	0
3.9905	-3.32336
3.991	-2.31628
3.9915	6.74744
3.992	6.14319
3.9925	7.04956
3.993	15.60974
3.9935	20.94727
3.994	22.45789
3.9945	19.73877
3.995	20.64514
3.9955	6.94885
3.996	7.65381
3.9965	9.36584
3.997	9.16443
3.9975	7.85522
3.998	6.14319
3.9985	-2.31628
3.999	-3.8269
3.9995	-7.04956
4	-2.21558
4.0005	-5.13611
4.001	-2.61841
4.0015	-5.23682
4.002	-7.95593
4.0025	-4.02832
4.003	-2.61841
4.0035	0
4.004	5.84106
4.0045	2.61841
4.005	11.88354
4.0055	9.97009
4.006	7.25098
4.0065	16.21399
4.007	8.8623
4.0075	7.25098
4.008	15.91187
4.0085	16.11328
4.009	10.47363
4.0095	9.26514
4.01	13.89771
4.0105	9.86938
4.011	7.75452
