Alessio_Russo_Left_1.c3d  



Time(s):	C_L_bicipite(μV):
0	-43.00232
0.0005	-41.59241
0.001	-31.92444
0.0015	-25.68054
0.002	-21.14868
0.0025	-12.08496
0.003	31.92444
0.0035	60.12268
0.004	70.79773
0.0045	70.19348
0.005	55.89294
0.0055	45.92285
0.006	27.49329
0.0065	23.36426
0.007	12.08496
0.0075	3.42407
0.008	-3.02124
0.0085	-10.97717
0.009	-14.40125
0.0095	-7.85522
0.01	0.30212
0.0105	13.39417
0.011	77.44446
0.0115	118.2312
0.012	129.71191
0.0125	119.23828
0.013	87.71667
0.0135	60.22339
0.014	32.22656
0.0145	1.61133
0.015	-37.46338
0.0155	-61.12976
0.016	-72.50977
0.0165	-92.04712
0.017	-95.67261
0.0175	-85.90393
0.018	-67.67578
0.0185	-44.21082
0.019	-19.23523
0.0195	0.50354
0.02	12.5885
0.0205	13.69629
0.021	19.53735
0.0215	28.19824
0.022	27.49329
0.0225	19.94019
0.023	20.54443
0.0235	10.67505
0.024	5.33752
0.0245	3.8269
0.025	0.30212
0.0255	-12.78992
0.026	42.09595
0.0265	111.48376
0.027	122.46094
0.0275	101.8158
0.028	69.99207
0.0285	40.1825
0.029	33.33435
0.0295	24.67346
0.03	1.61133
0.0305	-29.30603
0.031	-52.26746
0.0315	-71.80481
0.032	-78.14941
0.0325	-75.63171
0.033	-31.4209
0.0335	-16.21399
0.034	-16.81824
0.0345	-10.37292
0.035	-4.43115
0.0355	7.25098
0.036	10.27222
0.0365	-1.61133
0.037	2.01416
0.0375	-6.14319
0.038	-11.88354
0.0385	-22.15576
0.039	-31.82373
0.0395	-37.16125
0.04	-39.57825
0.0405	-32.93152
0.041	-28.70178
0.0415	-20.34302
0.042	-11.17859
0.0425	-6.14319
0.043	-2.31628
0.0435	0.70496
0.044	20.1416
0.0445	36.4563
0.045	37.36267
0.0455	29.91028
0.046	28.50037
0.0465	22.55859
0.047	14.40125
0.0475	6.54602
0.048	-0.80566
0.0485	-9.97009
0.049	-12.78992
0.0495	-20.34302
0.05	-27.19116
0.0505	-31.01807
0.051	-25.27771
0.0515	-25.27771
0.052	-18.53027
0.0525	-14.90479
0.053	-7.95593
0.0535	3.62549
0.054	13.29346
0.0545	26.68762
0.055	29.80957
0.0555	31.92444
0.056	31.01807
0.0565	33.13293
0.057	32.32727
0.0575	27.99683
0.058	30.31311
0.0585	17.72461
0.059	23.26355
0.0595	71.09985
0.06	108.76465
0.0605	108.1604
0.061	91.54358
0.0615	65.56091
0.062	29.20532
0.0625	-0.80566
0.063	-28.50037
0.0635	-49.14551
0.064	-59.92126
0.0645	-61.23047
0.065	-58.30994
0.0655	-45.01648
0.066	-25.68054
0.0665	-15.1062
0.067	-4.53186
0.0675	12.18567
0.068	12.08496
0.0685	13.09204
0.069	15.91187
0.0695	14.90479
0.07	15.40833
0.0705	17.12036
0.071	21.95435
0.0715	26.48621
0.072	21.04797
0.0725	4.02832
0.073	-2.31628
0.0735	0.80566
0.074	-3.92761
0.0745	2.21558
0.075	8.8623
0.0755	20.04089
0.076	26.68762
0.0765	17.52319
0.077	8.96301
0.0775	3.02124
0.078	-0.50354
0.0785	-9.26514
0.079	-18.32886
0.0795	-19.83948
0.08	-20.44373
0.0805	-23.36426
0.081	-17.01965
0.0815	40.58533
0.082	88.0188
0.0825	112.18872
0.083	100.40588
0.0835	80.06287
0.084	47.33276
0.0845	22.15576
0.085	-14.09912
0.0855	-37.86621
0.086	-59.51843
0.0865	-74.62463
0.087	-78.65295
0.0875	-68.38074
0.088	-59.71985
0.0885	-36.15417
0.089	-15.30762
0.0895	1.61133
0.09	5.63965
0.0905	17.22107
0.091	20.64514
0.0915	21.95435
0.092	33.33435
0.0925	58.91418
0.093	81.97632
0.0935	82.17773
0.094	74.62463
0.0945	63.14392
0.095	49.0448
0.0955	35.44922
0.096	13.19275
0.0965	-5.74036
0.097	-20.84656
0.0975	-30.01099
0.098	-32.93152
0.0985	-46.62781
0.099	-55.59082
0.0995	-63.14392
0.1	-50.2533
0.1005	-28.9032
0.101	-22.86072
0.1015	-16.91895
0.102	-16.11328
0.1025	24.57275
0.103	63.24463
0.1035	67.57507
0.104	55.59082
0.1045	43.70728
0.105	29.50745
0.1055	8.7616
0.106	-5.53894
0.1065	-35.44922
0.107	-56.49719
0.1075	-66.97083
0.108	-67.07153
0.1085	-38.06763
0.109	-13.797
0.1095	6.3446
0.11	24.16992
0.1105	19.94019
0.111	11.78284
0.1115	14.30054
0.112	7.5531
0.1125	18.22815
0.113	44.41223
0.1135	56.39648
0.114	60.52551
0.1145	60.02197
0.115	48.64197
0.1155	32.42798
0.116	8.96301
0.1165	-9.26514
0.117	-13.29346
0.1175	-18.63098
0.118	-24.97559
0.1185	-38.67188
0.119	-35.44922
0.1195	-35.04639
0.12	-29.00391
0.1205	-16.71753
0.121	-3.02124
0.1215	4.22974
0.122	18.42957
0.1225	24.77417
0.123	29.50745
0.1235	23.76709
0.124	18.73169
0.1245	24.27063
0.125	37.36267
0.1255	34.64355
0.126	30.01099
0.1265	30.81665
0.127	35.95276
0.1275	108.05969
0.128	164.55688
0.1285	168.08167
0.129	145.52307
0.1295	107.75757
0.13	58.10852
0.1305	12.78992
0.131	-28.60107
0.1315	-66.36658
0.132	-89.63013
0.1325	-105.23987
0.133	-106.8512
0.1335	-103.52783
0.134	-90.83862
0.1345	-72.00623
0.135	-53.77808
0.1355	-57.00073
0.136	-46.42639
0.1365	-36.85913
0.137	-31.92444
0.1375	-19.63806
0.138	-4.73328
0.1385	8.15735
0.139	22.6593
0.1395	30.2124
0.14	36.85913
0.1405	45.52002
0.141	39.98108
0.1415	39.47754
0.142	36.25488
0.1425	34.54285
0.143	24.67346
0.1435	25.177
0.144	21.14868
0.1445	20.44373
0.145	12.78992
0.1455	5.53894
0.146	-0.20142
0.1465	-15.71045
0.147	-19.23523
0.1475	-15.71045
0.148	2.71912
0.1485	6.94885
0.149	13.09204
0.1495	8.56018
0.15	-5.74036
0.1505	-22.55859
0.151	-38.47046
0.1515	-48.54126
0.152	-48.74268
0.1525	-49.34692
0.153	-49.85046
0.1535	-41.39099
0.154	-31.92444
0.1545	-27.49329
0.155	-19.23523
0.1555	33.33435
0.156	96.57898
0.1565	130.71899
0.157	122.05811
0.1575	137.66785
0.158	141.59546
0.1585	123.56873
0.159	83.28552
0.1595	33.43506
0.16	-7.04956
0.1605	-42.29736
0.161	-79.76074
0.1615	-102.11792
0.162	-123.87085
0.1625	-124.4751
0.163	-120.54749
0.1635	-105.94482
0.164	-100.70801
0.1645	-78.75366
0.165	-70.59631
0.1655	-64.85596
0.166	-40.88745
0.1665	-24.47205
0.167	-14.09912
0.1675	-7.75452
0.168	-1.00708
0.1685	12.48779
0.169	18.22815
0.1695	23.8678
0.17	35.04639
0.1705	47.93701
0.171	51.26038
0.1715	55.08728
0.172	60.92834
0.1725	54.58374
0.173	55.99365
0.1735	58.10852
0.174	58.41064
0.1745	47.53418
0.175	51.76392
0.1755	82.47986
0.176	90.03296
0.1765	67.77649
0.177	44.61365
0.1775	14.70337
0.178	0.10071
0.1785	-18.93311
0.179	-17.82532
0.1795	-5.94177
0.18	0.10071
0.1805	-26.98975
0.181	-53.77808
0.1815	-70.29419
0.182	-70.09277
0.1825	-75.32959
0.183	-79.66003
0.1835	-85.40039
0.184	-80.26428
0.1845	-74.72534
0.185	-66.87012
0.1855	-54.38232
0.186	-37.46338
0.1865	-17.12036
0.187	7.15027
0.1875	31.52161
0.188	59.31702
0.1885	69.89136
0.189	74.92676
0.1895	70.09277
0.19	61.73401
0.1905	51.76392
0.191	48.03772
0.1915	42.8009
0.192	39.17542
0.1925	38.47046
0.193	41.99524
0.1935	43.10303
0.194	38.87329
0.1945	38.16833
0.195	27.79541
0.1955	22.45789
0.196	34.44214
0.1965	31.62231
0.197	34.34143
0.1975	36.05347
0.198	32.83081
0.1985	20.04089
0.199	13.59558
0.1995	19.73877
0.2	22.86072
0.2005	23.16284
0.201	12.78992
0.2015	3.42407
0.202	-8.7616
0.2025	-11.78284
0.203	-12.78992
0.2035	-20.1416
0.204	-24.37134
0.2045	-27.09045
0.205	-20.94727
0.2055	-19.23523
0.206	-22.55859
0.2065	-27.49329
0.207	-30.61523
0.2075	-23.46497
0.208	-17.52319
0.2085	-9.66797
0.209	-2.01416
0.2095	-3.52478
0.21	-6.74744
0.2105	-6.3446
0.211	-7.75452
0.2115	-7.04956
0.212	-4.63257
0.2125	3.42407
0.213	4.02832
0.2135	0.10071
0.214	2.31628
0.2145	0.30212
0.215	-4.33044
0.2155	-4.53186
0.216	1.40991
0.2165	8.15735
0.217	7.04956
0.2175	5.0354
0.218	13.49487
0.2185	18.12744
0.219	15.20691
0.2195	20.64514
0.22	33.23364
0.2205	56.79932
0.221	58.71277
0.2215	53.57666
0.222	33.73718
0.2225	15.91187
0.223	0.60425
0.2235	-15.30762
0.224	-34.03931
0.2245	-50.354
0.225	-54.68445
0.2255	-56.39648
0.226	-54.88586
0.2265	-48.03772
0.227	-40.68604
0.2275	-29.30603
0.228	-14.30054
0.2285	-1.40991
0.229	8.25806
0.2295	14.80408
0.23	24.27063
0.2305	70.09277
0.231	130.71899
0.2315	147.1344
0.232	150.75989
0.2325	127.29492
0.233	102.62146
0.2335	65.46021
0.234	23.8678
0.2345	-13.09204
0.235	-42.7002
0.2355	-63.54675
0.236	-56.39648
0.2365	-41.39099
0.237	-24.06921
0.2375	-22.15576
0.238	-22.35718
0.2385	-26.98975
0.239	-37.66479
0.2395	-34.84497
0.24	-16.71753
0.2405	-17.42249
0.241	-16.51611
0.2415	-25.177
0.242	-29.70886
0.2425	-28.50037
0.243	-20.84656
0.2435	-17.12036
0.244	-4.43115
0.2445	1.40991
0.245	-1.00708
0.2455	-0.80566
0.246	3.92761
0.2465	13.29346
0.247	17.12036
0.2475	17.12036
0.248	19.63806
0.2485	23.16284
0.249	29.60815
0.2495	27.99683
0.25	77.54517
0.2505	114.90784
0.251	119.94324
0.2515	120.95032
0.252	138.97705
0.2525	133.23669
0.253	91.94641
0.2535	48.44055
0.254	5.23682
0.2545	-36.75842
0.255	-79.05579
0.2555	-107.95898
0.256	-133.74023
0.2565	-143.71033
0.257	-131.92749
0.2575	-111.58447
0.258	-88.32092
0.2585	-57.50427
0.259	-28.19824
0.2595	-3.42407
0.26	8.56018
0.2605	13.99841
0.261	24.27063
0.2615	31.4209
0.262	49.44763
0.2625	49.24622
0.263	48.84338
0.2635	40.78674
0.264	39.17542
0.2645	22.76001
0.265	16.21399
0.2655	14.80408
0.266	14.90479
0.2665	17.52319
0.267	18.53027
0.2675	25.88196
0.268	25.37842
0.2685	36.35559
0.269	39.77966
0.2695	47.8363
0.27	52.06604
0.2705	84.39331
0.271	110.57739
0.2715	104.93774
0.272	89.52942
0.2725	60.72693
0.273	30.11169
0.2735	16.3147
0.274	-7.75452
0.2745	-27.19116
0.275	-41.39099
0.2755	-54.38232
0.276	-63.64746
0.2765	-67.97791
0.277	-54.98657
0.2775	-48.84338
0.278	-41.79382
0.2785	-38.974
0.279	-22.05505
0.2795	-14.50195
0.28	-7.85522
0.2805	-11.38
0.281	-15.40833
0.2815	-17.72461
0.282	-16.51611
0.2825	-12.48779
0.283	-7.65381
0.2835	-0.20142
0.284	9.76868
0.2845	21.45081
0.285	37.36267
0.2855	65.46021
0.286	68.58215
0.2865	65.56091
0.287	66.56799
0.2875	57.20215
0.288	47.7356
0.2885	32.12585
0.289	24.97559
0.2895	20.44373
0.29	12.08496
0.2905	2.31628
0.291	5.74036
0.2915	72.40906
0.292	141.49475
0.2925	146.12732
0.293	119.84253
0.2935	109.97314
0.294	114.4043
0.2945	98.49243
0.295	51.46179
0.2955	-3.7262
0.296	-52.771
0.2965	-92.44995
0.297	-126.18713
0.2975	-142.80396
0.298	-155.9967
0.2985	-147.94006
0.299	-149.04785
0.2995	-131.82678
0.3	-106.04553
0.3005	-78.65295
0.301	-56.90002
0.3015	-32.22656
0.302	-16.3147
0.3025	8.56018
0.303	28.19824
0.3035	36.85913
0.304	40.38391
0.3045	45.92285
0.305	32.7301
0.3055	18.73169
0.306	22.86072
0.3065	23.96851
0.307	17.52319
0.3075	24.27063
0.308	20.04089
0.3085	18.32886
0.309	15.50903
0.3095	18.63098
0.31	19.94019
0.3105	19.53735
0.311	21.95435
0.3115	43.60657
0.312	61.93542
0.3125	75.22888
0.313	75.4303
0.3135	59.1156
0.314	43.60657
0.3145	15.91187
0.315	-0.50354
0.3155	-17.82532
0.316	-35.34851
0.3165	-41.18958
0.317	-49.44763
0.3175	-53.77808
0.318	-50.85754
0.3185	-38.67188
0.319	-29.50745
0.3195	-23.8678
0.32	-25.68054
0.3205	-27.89612
0.321	-38.67188
0.3215	-39.07471
0.322	-37.66479
0.3225	-29.10461
0.323	-20.54443
0.3235	-3.12195
0.324	0.30212
0.3245	12.18567
0.325	11.98425
0.3255	7.5531
0.326	7.35168
0.3265	27.19116
0.327	34.14001
0.3275	39.77966
0.328	37.16125
0.3285	26.88904
0.329	17.72461
0.3295	5.84106
0.33	5.23682
0.3305	5.33752
0.331	2.61841
0.3315	0.80566
0.332	2.92053
0.3325	10.27222
0.333	16.71753
0.3335	19.53735
0.334	14.90479
0.3345	10.97717
0.335	5.94177
0.3355	13.19275
0.336	11.58142
0.3365	15.40833
0.337	13.69629
0.3375	20.74585
0.338	26.48621
0.3385	39.47754
0.339	38.67188
0.3395	34.34143
0.34	17.72461
0.3405	13.49487
0.341	8.45947
0.3415	2.71912
0.342	-7.04956
0.3425	-7.85522
0.343	-11.17859
0.3435	-14.80408
0.344	-18.73169
0.3445	-11.2793
0.345	-6.84814
0.3455	-5.0354
0.346	-1.40991
0.3465	-8.45947
0.347	-10.67505
0.3475	-0.20142
0.348	1.3092
0.3485	1.61133
0.349	0.80566
0.3495	-12.08496
0.35	-15.1062
0.3505	-22.76001
0.351	-22.76001
0.3515	-23.26355
0.352	-21.55151
0.3525	-19.83948
0.353	-18.22815
0.3535	-7.25098
0.354	2.81982
0.3545	10.47363
0.355	13.49487
0.3555	17.92603
0.356	18.42957
0.3565	22.6593
0.357	75.02747
0.3575	102.82288
0.358	99.49951
0.3585	88.82446
0.359	71.50269
0.3595	52.36816
0.36	29.00391
0.3605	3.32336
0.361	-19.23523
0.3615	-31.52161
0.362	-46.62781
0.3625	-54.18091
0.363	-54.88586
0.3635	-51.96533
0.364	-44.31152
0.3645	-31.92444
0.365	-17.82532
0.3655	23.76709
0.366	74.2218
0.3665	94.2627
0.367	84.79614
0.3675	51.05896
0.368	32.02515
0.3685	37.7655
0.369	47.8363
0.3695	35.34851
0.37	16.91895
0.3705	-1.61133
0.371	-8.35876
0.3715	29.40674
0.372	45.92285
0.3725	37.06055
0.373	12.38708
0.3735	-10.77576
0.374	-37.56409
0.3745	-69.58923
0.375	-84.19189
0.3755	-96.07544
0.376	-105.84412
0.3765	-110.77881
0.377	-102.31934
0.3775	-93.15491
0.378	-75.32959
0.3785	-62.23755
0.379	-50.55542
0.3795	-36.25488
0.38	-18.53027
0.3805	-1.71204
0.381	12.48779
0.3815	19.83948
0.382	28.9032
0.3825	28.70178
0.383	40.88745
0.3835	39.77966
0.384	45.41931
0.3845	46.42639
0.385	44.71436
0.3855	48.54126
0.386	43.70728
0.3865	37.96692
0.387	32.7301
0.3875	29.60815
0.388	32.7301
0.3885	30.2124
0.389	31.52161
0.3895	21.55151
0.39	20.04089
0.3905	22.45789
0.391	20.34302
0.3915	22.05505
0.392	22.45789
0.3925	26.18408
0.393	21.85364
0.3935	18.22815
0.394	17.12036
0.3945	9.76868
0.395	10.27222
0.3955	5.63965
0.396	-0.30212
0.3965	-4.53186
0.397	-3.32336
0.3975	-10.0708
0.398	9.36584
0.3985	30.01099
0.399	44.61365
0.3995	45.62073
0.4	33.33435
0.4005	19.73877
0.401	10.17151
0.4015	-2.31628
0.402	-11.07788
0.4025	-15.60974
0.403	-24.67346
0.4035	-26.88904
0.404	-21.04797
0.4045	-15.20691
0.405	-16.01257
0.4055	-16.91895
0.406	-18.63098
0.4065	-16.71753
0.407	-13.89771
0.4075	-12.5885
0.408	-8.7616
0.4085	-1.71204
0.409	2.71912
0.4095	1.91345
0.41	5.0354
0.4105	3.32336
0.411	13.39417
0.4115	14.60266
0.412	15.1062
0.4125	12.18567
0.413	3.22266
0.4135	-3.42407
0.414	-1.10779
0.4145	-8.45947
0.415	-11.07788
0.4155	-9.36584
0.416	22.15576
0.4165	48.74268
0.417	60.4248
0.4175	54.0802
0.418	43.60657
0.4185	31.82373
0.419	16.91895
0.4195	-0.30212
0.42	-11.17859
0.4205	-21.75293
0.421	-28.50037
0.4215	-32.83081
0.422	-31.72302
0.4225	-31.01807
0.423	-25.07629
0.4235	-14.40125
0.424	-4.12903
0.4245	0.80566
0.425	-2.92053
0.4255	6.74744
0.426	12.18567
0.4265	13.29346
0.427	8.96301
0.4275	6.74744
0.428	0.70496
0.4285	-9.66797
0.429	-9.26514
0.4295	-11.98425
0.43	-10.87646
0.4305	-3.32336
0.431	2.11487
0.4315	-2.21558
0.432	1.91345
0.4325	-3.02124
0.433	-3.02124
0.4335	-2.71912
0.434	4.63257
0.4345	-1.00708
0.435	-5.53894
0.4355	-7.5531
0.436	-1.51062
0.4365	55.79224
0.437	87.61597
0.4375	93.35632
0.438	75.4303
0.4385	61.02905
0.439	53.77808
0.4395	104.4342
0.44	127.29492
0.4405	106.34766
0.441	73.51685
0.4415	58.41064
0.442	54.98657
0.4425	37.06055
0.443	-3.22266
0.4435	-44.21082
0.444	-82.07703
0.4445	-113.69934
0.445	-128.50342
0.4455	-132.53174
0.446	-127.79846
0.4465	-69.08569
0.447	-30.61523
0.4475	-8.7616
0.448	-1.40991
0.4485	-1.51062
0.449	-4.22974
0.4495	-16.3147
0.45	-20.64514
0.4505	-20.44373
0.451	-23.76709
0.4515	-24.87488
0.452	-20.74585
0.4525	-7.85522
0.453	19.03381
0.4535	66.56799
0.454	93.15491
0.4545	98.69385
0.455	85.70251
0.4555	71.60339
0.456	46.62781
0.4565	19.83948
0.457	7.95593
0.4575	0.20142
0.458	-5.63965
0.4585	-4.22974
0.459	-14.40125
0.4595	-12.18567
0.46	-14.90479
0.4605	-17.82532
0.461	-13.49487
0.4615	-8.8623
0.462	-11.07788
0.4625	-2.41699
0.463	3.62549
0.4635	8.96301
0.464	11.2793
0.4645	21.14868
0.465	15.40833
0.4655	4.73328
0.466	7.15027
0.4665	10.37292
0.467	6.64673
0.4675	2.71912
0.468	7.25098
0.4685	4.93469
0.469	-0.90637
0.4695	-3.42407
0.47	-6.84814
0.4705	-7.15027
0.471	-10.17151
0.4715	-2.21558
0.472	5.53894
0.4725	13.69629
0.473	26.58691
0.4735	18.02673
0.474	9.66797
0.4745	4.12903
0.475	1.91345
0.4755	3.62549
0.476	2.81982
0.4765	-2.11487
0.477	0
0.4775	-0.80566
0.478	0.30212
0.4785	2.41699
0.479	-0.50354
0.4795	-3.02124
0.48	-15.30762
0.4805	-11.78284
0.481	-5.33752
0.4815	1.91345
0.482	1.00708
0.4825	8.8623
0.483	20.04089
0.4835	30.61523
0.484	37.86621
0.4845	35.34851
0.485	15.60974
0.4855	3.22266
0.486	-19.23523
0.4865	-28.80249
0.487	-39.47754
0.4875	-34.64355
0.488	-33.53577
0.4885	-19.53735
0.489	-12.28638
0.4895	0.30212
0.49	3.52478
0.4905	5.63965
0.491	2.71912
0.4915	5.94177
0.492	24.27063
0.4925	29.91028
0.493	34.44214
0.4935	39.57825
0.494	45.92285
0.4945	69.68994
0.495	85.70251
0.4955	81.47278
0.496	72.00623
0.4965	53.87878
0.497	35.44922
0.4975	18.73169
0.498	-4.22974
0.4985	-25.27771
0.499	-39.77966
0.4995	-53.87878
0.5	-60.02197
0.5005	-58.61206
0.501	-57.9071
0.5015	-45.72144
0.502	-14.80408
0.5025	50.95825
0.503	91.14075
0.5035	94.46411
0.504	78.14941
0.5045	53.37524
0.505	27.29187
0.5055	9.86938
0.506	-19.73877
0.5065	-47.7356
0.507	-59.92126
0.5075	-54.48303
0.508	-51.15967
0.5085	-44.11011
0.509	-33.43506
0.5095	-27.49329
0.51	-19.43665
0.5105	-13.19275
0.511	-2.31628
0.5115	-0.90637
0.512	3.22266
0.5125	13.99841
0.513	15.71045
0.5135	18.32886
0.514	14.80408
0.5145	14.80408
0.515	17.42249
0.5155	18.12744
0.516	6.44531
0.5165	-9.56726
0.517	25.68054
0.5175	60.52551
0.518	71.40198
0.5185	57.70569
0.519	42.90161
0.5195	27.99683
0.52	12.08496
0.5205	-5.13611
0.521	-28.29895
0.5215	-46.42639
0.522	-56.09436
0.5225	-54.38232
0.523	-58.41064
0.5235	-58.81348
0.524	-36.85913
0.5245	-5.33752
0.525	18.32886
0.5255	22.55859
0.526	24.16992
0.5265	18.63098
0.527	13.19275
0.5275	13.49487
0.528	15.71045
0.5285	22.15576
0.529	29.40674
0.5295	26.68762
0.53	33.63647
0.5305	43.80798
0.531	45.41931
0.5315	36.15417
0.532	33.53577
0.5325	27.39258
0.533	16.61682
0.5335	6.74744
0.534	9.06372
0.5345	7.75452
0.535	3.62549
0.5355	-2.61841
0.536	3.92761
0.5365	5.0354
0.537	10.57434
0.5375	6.04248
0.538	4.93469
0.5385	6.3446
0.539	6.04248
0.5395	0.40283
0.54	10.57434
0.5405	36.65771
0.541	64.95667
0.5415	84.19189
0.542	134.44519
0.5425	159.42078
0.543	159.92432
0.5435	125.98572
0.544	83.08411
0.5445	35.95276
0.545	-7.95593
0.5455	-42.8009
0.546	-81.47278
0.5465	-110.47668
0.547	-124.17297
0.5475	-121.35315
0.548	-112.99438
0.5485	-104.93774
0.549	-88.11951
0.5495	-69.58923
0.55	-47.23206
0.5505	-6.64673
0.551	93.0542
0.5515	152.77405
0.552	159.82361
0.5525	147.53723
0.553	112.69226
0.5535	58.61206
0.554	9.97009
0.5545	-33.23364
0.555	-77.948
0.5555	-96.27686
0.556	-104.93774
0.5565	-111.08093
0.557	-106.64978
0.5575	-100.50659
0.558	-92.14783
0.5585	-88.92517
0.559	-82.37915
0.5595	-75.12817
0.56	-63.64746
0.5605	-49.74976
0.561	-47.23206
0.5615	-33.9386
0.562	-20.04089
0.5625	-4.12903
0.563	10.0708
0.5635	33.43506
0.564	45.01648
0.5645	54.28162
0.565	51.5625
0.5655	50.45471
0.566	52.97241
0.5665	42.90161
0.567	36.55701
0.5675	28.70178
0.568	25.57983
0.5685	19.13452
0.569	19.03381
0.5695	17.22107
0.57	20.54443
0.5705	15.81116
0.571	48.23914
0.5715	109.16748
0.572	129.30908
0.5725	115.91492
0.573	93.75916
0.5735	57.60498
0.574	27.6947
0.5745	-5.84106
0.575	-36.75842
0.5755	-60.72693
0.576	-68.98499
0.5765	-70.99915
0.577	-67.67578
0.5775	-43.80798
0.578	-2.61841
0.5785	22.86072
0.579	30.41382
0.5795	26.08337
0.58	16.3147
0.5805	7.04956
0.581	-9.66797
0.5815	-17.6239
0.582	-9.26514
0.5825	18.02673
0.583	38.47046
0.5835	40.2832
0.584	27.89612
0.5845	16.01257
0.585	-4.83398
0.5855	-16.91895
0.586	-19.13452
0.5865	-26.28479
0.587	-36.05347
0.5875	-41.4917
0.588	-41.59241
0.5885	-36.85913
0.589	-24.47205
0.5895	-20.24231
0.59	-12.78992
0.5905	-3.22266
0.591	10.27222
0.5915	23.76709
0.592	37.56409
0.5925	48.33984
0.593	42.19666
0.5935	48.33984
0.594	59.71985
0.5945	85.40039
0.595	97.58606
0.5955	90.13367
0.596	80.96924
0.5965	58.51135
0.597	45.41931
0.5975	23.46497
0.598	5.63965
0.5985	-14.30054
0.599	-17.6239
0.5995	-21.14868
0.6	-29.91028
0.6005	-28.60107
0.601	-32.02515
0.6015	-26.3855
0.602	-17.72461
0.6025	-11.07788
0.603	-12.89062
0.6035	-2.01416
0.604	-0.20142
0.6045	-0.80566
0.605	-0.40283
0.6055	7.04956
0.606	4.73328
0.6065	6.54602
0.607	7.95593
0.6075	14.60266
0.608	10.0708
0.6085	6.94885
0.609	4.22974
0.6095	7.65381
0.61	5.84106
0.6105	7.35168
0.611	9.66797
0.6115	7.15027
0.612	1.10779
0.6125	0.20142
0.613	-4.83398
0.6135	-10.0708
0.614	-10.87646
0.6145	-12.28638
0.615	-4.43115
0.6155	-7.95593
0.616	-7.5531
0.6165	-0.30212
0.617	-0.20142
0.6175	0
0.618	5.74036
0.6185	3.12195
0.619	2.21558
0.6195	6.14319
0.62	37.56409
0.6205	79.05579
0.621	108.05969
0.6215	127.59705
0.622	161.73706
0.6225	165.46326
0.623	132.73315
0.6235	86.91101
0.624	26.58691
0.6245	-30.81665
0.625	-84.69543
0.6255	-125.48218
0.626	-148.64502
0.6265	-157.10449
0.627	-155.49316
0.6275	-152.87476
0.628	-138.3728
0.6285	-106.54907
0.629	-77.64587
0.6295	-47.7356
0.63	-19.94019
0.6305	-4.53186
0.631	11.2793
0.6315	8.25806
0.632	8.7616
0.6325	11.17859
0.633	35.95276
0.6335	105.94482
0.634	149.55139
0.6345	162.74414
0.635	148.14148
0.6355	148.54431
0.636	195.87708
0.6365	213.8031
0.637	196.88416
0.6375	150.35706
0.638	73.11401
0.6385	-15.30762
0.639	-91.745
0.6395	-146.22803
0.64	-190.94238
0.6405	-200.91248
0.641	-175.03052
0.6415	-152.37122
0.642	-125.28076
0.6425	-111.28235
0.643	-90.43579
0.6435	-71.40198
0.644	-65.66162
0.6445	-63.74817
0.645	-57.70569
0.6455	-52.06604
0.646	-45.62073
0.6465	-37.36267
0.647	-28.9032
0.6475	-10.57434
0.648	1.91345
0.6485	28.19824
0.649	60.12268
0.6495	87.91809
0.65	103.125
0.6505	103.52783
0.651	90.03296
0.6515	65.46021
0.652	57.50427
0.6525	52.16675
0.653	53.27454
0.6535	50.55542
0.654	43.70728
0.6545	48.64197
0.655	37.16125
0.6555	17.12036
0.656	3.92761
0.6565	14.60266
0.657	27.59399
0.6575	34.14001
0.658	28.50037
0.6585	19.03381
0.659	10.57434
0.6595	1.10779
0.66	-6.74744
0.6605	-15.40833
0.661	-23.36426
0.6615	-25.98267
0.662	-30.2124
0.6625	-20.84656
0.663	-16.11328
0.6635	0.90637
0.664	25.88196
0.6645	43.90869
0.665	51.5625
0.6655	54.78516
0.666	48.44055
0.6665	47.43347
0.667	41.08887
0.6675	32.02515
0.668	24.87488
0.6685	17.72461
0.669	10.27222
0.6695	2.71912
0.67	-0.80566
0.6705	-4.33044
0.671	-2.21558
0.6715	-0.70496
0.672	0.10071
0.6725	-1.00708
0.673	-3.52478
0.6735	-5.63965
0.674	-4.22974
0.6745	-2.92053
0.675	-7.45239
0.6755	-6.44531
0.676	-6.74744
0.6765	3.22266
0.677	9.36584
0.6775	4.73328
0.678	12.08496
0.6785	16.81824
0.679	18.63098
0.6795	15.81116
0.68	18.73169
0.6805	22.35718
0.681	32.22656
0.6815	28.60107
0.682	27.19116
0.6825	26.48621
0.683	18.63098
0.6835	9.36584
0.684	16.71753
0.6845	26.08337
0.685	26.08337
0.6855	22.15576
0.686	17.12036
0.6865	4.43115
0.687	-4.22974
0.6875	-10.17151
0.688	-23.36426
0.6885	-39.17542
0.689	-48.23914
0.6895	-59.21631
0.69	-65.05737
0.6905	-57.70569
0.691	-52.97241
0.6915	-45.72144
0.692	-25.47913
0.6925	19.03381
0.693	58.91418
0.6935	122.66235
0.694	173.5199
0.6945	159.32007
0.695	119.84253
0.6955	69.1864
0.696	27.09045
0.6965	-19.33594
0.697	-55.3894
0.6975	-89.02588
0.698	-111.48376
0.6985	-124.87793
0.699	-128.90625
0.6995	-79.05579
0.7	-19.13452
0.7005	21.24939
0.701	39.27612
0.7015	51.96533
0.702	44.61365
0.7025	34.94568
0.703	6.3446
0.7035	-22.55859
0.704	-40.58533
0.7045	-51.15967
0.705	-54.38232
0.7055	-58.81348
0.706	-39.67896
0.7065	-6.54602
0.707	20.1416
0.7075	30.51453
0.708	22.86072
0.7085	22.86072
0.709	30.41382
0.7095	37.86621
0.71	35.95276
0.7105	27.6947
0.711	37.66479
0.7115	49.24622
0.712	51.36108
0.7125	50.95825
0.713	37.86621
0.7135	33.53577
0.714	92.14783
0.7145	140.08484
0.715	136.66077
0.7155	109.26819
0.716	60.62622
0.7165	8.7616
0.717	-29.80957
0.7175	-61.02905
0.718	-89.73083
0.7185	-108.96606
0.719	-114.30359
0.7195	-108.1604
0.72	-104.53491
0.7205	-85.40039
0.721	-65.05737
0.7215	-55.2887
0.722	-32.32727
0.7225	-11.58142
0.723	-4.73328
0.7235	8.7616
0.724	17.01965
0.7245	13.797
0.725	31.11877
0.7255	39.67896
0.726	41.18958
0.7265	41.89453
0.727	48.03772
0.7275	44.31152
0.728	40.1825
0.7285	55.3894
0.729	67.57507
0.7295	73.01331
0.73	62.13684
0.7305	48.33984
0.731	26.3855
0.7315	12.68921
0.732	-5.33752
0.7325	-19.13452
0.733	-28.19824
0.7335	-40.38391
0.734	-46.72852
0.7345	-40.2832
0.735	-47.63489
0.7355	-41.99524
0.736	-26.68762
0.7365	-14.40125
0.737	-9.16443
0.7375	5.13611
0.738	28.60107
0.7385	52.16675
0.739	79.55933
0.7395	92.95349
0.74	94.2627
0.7405	85.90393
0.741	64.65454
0.7415	44.91577
0.742	18.02673
0.7425	-1.51062
0.743	-28.60107
0.7435	-45.52002
0.744	-46.12427
0.7445	-49.54834
0.745	-44.51294
0.7455	-37.06055
0.746	-21.24939
0.7465	-14.90479
0.747	-6.3446
0.7475	2.11487
0.748	4.12903
0.7485	8.96301
0.749	13.797
0.7495	15.91187
0.75	6.84814
0.7505	8.66089
0.751	2.81982
0.7515	10.87646
0.752	49.34692
0.7525	68.78357
0.753	92.24854
0.7535	141.79688
0.754	159.21936
0.7545	137.86926
0.755	100.30518
0.7555	61.12976
0.756	25.27771
0.7565	-6.44531
0.757	-35.14709
0.7575	-71.80481
0.758	-99.60022
0.7585	-114.60571
0.759	-112.89368
0.7595	-112.89368
0.76	-110.87952
0.7605	-88.11951
0.761	-57.70569
0.7615	-32.62939
0.762	-19.43665
0.7625	-16.71753
0.763	-11.48071
0.7635	-17.01965
0.764	-20.24231
0.7645	-19.63806
0.765	-15.60974
0.7655	-7.65381
0.766	-2.01416
0.7665	0
0.767	-6.14319
0.7675	-3.02124
0.768	5.43823
0.7685	30.41382
0.769	63.04321
0.7695	76.94092
0.77	80.26428
0.7705	73.51685
0.771	51.5625
0.7715	33.9386
0.772	12.18567
0.7725	-2.5177
0.773	-13.19275
0.7735	-23.36426
0.774	-30.81665
0.7745	-40.78674
0.775	-38.36975
0.7755	15.71045
0.776	60.02197
0.7765	81.97632
0.777	83.08411
0.7775	69.99207
0.778	54.88586
0.7785	20.04089
0.779	-17.82532
0.7795	-43.70728
0.78	-62.53967
0.7805	-84.99756
0.781	-92.34924
0.7815	-99.80164
0.782	-84.69543
0.7825	-22.76001
0.783	39.98108
0.7835	78.75366
0.784	80.96924
0.7845	66.6687
0.785	51.15967
0.7855	29.91028
0.786	0.10071
0.7865	-26.18408
0.787	-46.92993
0.7875	-63.94958
0.788	-66.6687
0.7885	-61.53259
0.789	-62.03613
0.7895	-40.58533
0.79	-22.86072
0.7905	-12.18567
0.791	1.3092
0.7915	13.29346
0.792	21.14868
0.7925	31.62231
0.793	37.66479
0.7935	34.03931
0.794	27.99683
0.7945	28.70178
0.795	33.9386
0.7955	99.2981
0.796	168.78662
0.7965	195.67566
0.797	174.8291
0.7975	131.32324
0.798	78.14941
0.7985	32.83081
0.799	-1.61133
0.7995	-41.59241
0.8	-72.00623
0.8005	-93.0542
0.801	-113.29651
0.8015	-106.34766
0.802	-94.3634
0.8025	-62.8418
0.803	-40.58533
0.8035	-22.55859
0.804	-10.87646
0.8045	1.3092
0.805	-2.21558
0.8055	-2.81982
0.806	-9.16443
0.8065	-6.04248
0.807	-9.76868
0.8075	-10.37292
0.808	-5.23682
0.8085	6.94885
0.809	36.55701
0.8095	55.3894
0.81	57.50427
0.8105	39.67896
0.811	24.57275
0.8115	11.48071
0.812	-3.7262
0.8125	-12.48779
0.813	-29.30603
0.8135	0.50354
0.814	53.97949
0.8145	83.58765
0.815	96.17615
0.8155	88.32092
0.816	62.64038
0.8165	36.35559
0.817	4.63257
0.8175	-33.83789
0.818	-59.61914
0.8185	-82.07703
0.819	-87.71667
0.8195	-80.06287
0.82	-52.46887
0.8205	-20.64514
0.821	1.51062
0.8215	19.13452
0.822	24.77417
0.8225	22.76001
0.823	19.73877
0.8235	28.60107
0.824	34.44214
0.8245	36.15417
0.825	25.37842
0.8255	11.38
0.826	0.50354
0.8265	7.15027
0.827	3.12195
0.8275	0.30212
0.828	-7.15027
0.8285	-9.66797
0.829	-14.09912
0.8295	-13.99841
0.83	-7.45239
0.8305	5.53894
0.831	11.88354
0.8315	1.3092
0.832	2.11487
0.8325	5.0354
0.833	4.83398
0.8335	8.96301
0.834	16.41541
0.8345	11.58142
0.835	12.08496
0.8355	15.00549
0.836	17.22107
0.8365	17.32178
0.837	12.68921
0.8375	16.21399
0.838	13.69629
0.8385	22.86072
0.839	29.30603
0.8395	29.50745
0.84	53.97949
0.8405	73.31543
0.841	76.13525
0.8415	71.7041
0.842	57.9071
0.8425	43.40515
0.843	17.22107
0.8435	-10.17151
0.844	-30.71594
0.8445	-48.23914
0.845	-66.46729
0.8455	-68.38074
0.846	-68.38074
0.8465	-74.12109
0.847	-63.04321
0.8475	-40.58533
0.848	-27.29187
0.8485	-27.49329
0.849	-20.1416
0.8495	-12.38708
0.85	15.40833
0.8505	48.94409
0.851	57.8064
0.8515	58.71277
0.852	61.83472
0.8525	65.46021
0.853	61.02905
0.8535	43.50586
0.854	16.81824
0.8545	-10.47363
0.855	-33.43506
0.8555	-50.55542
0.856	-52.8717
0.8565	-52.8717
0.857	-51.66321
0.8575	-42.8009
0.858	-33.03223
0.8585	-24.67346
0.859	-17.82532
0.8595	-8.25806
0.86	1.00708
0.8605	16.51611
0.861	31.32019
0.8615	38.87329
0.862	44.91577
0.8625	48.74268
0.863	53.27454
0.8635	57.00073
0.864	53.07312
0.8645	35.95276
0.865	30.71594
0.8655	53.57666
0.866	86.60889
0.8665	89.328
0.867	82.37915
0.8675	57.70569
0.868	25.57983
0.8685	-1.2085
0.869	-13.69629
0.8695	-17.32178
0.87	-20.94727
0.8705	-27.49329
0.871	-39.57825
0.8715	-56.5979
0.872	-52.8717
0.8725	-37.46338
0.873	-29.60815
0.8735	-35.2478
0.874	-48.13843
0.8745	-23.16284
0.875	44.21082
0.8755	86.30676
0.876	128.302
0.8765	150.55847
0.877	147.53723
0.8775	136.45935
0.878	104.83704
0.8785	59.71985
0.879	5.0354
0.8795	-50.354
0.88	-98.39172
0.8805	-128.302
0.881	-142.60254
0.8815	-148.64502
0.882	-145.12024
0.8825	-121.35315
0.883	-102.11792
0.8835	-65.96375
0.884	-36.15417
0.8845	-10.37292
0.885	3.92761
0.8855	13.99841
0.886	25.47913
0.8865	25.27771
0.887	21.85364
0.8875	16.11328
0.888	18.22815
0.8885	12.48779
0.889	14.90479
0.8895	14.80408
0.89	12.38708
0.8905	15.81116
0.891	12.08496
0.8915	9.46655
0.892	10.77576
0.8925	16.81824
0.893	16.41541
0.8935	15.1062
0.894	9.06372
0.8945	1.81274
0.895	11.17859
0.8955	18.22815
0.896	19.63806
0.8965	26.88904
0.897	25.47913
0.8975	20.64514
0.898	14.50195
0.8985	0.80566
0.899	-3.52478
0.8995	0.70496
0.9	0.10071
0.9005	-2.81982
0.901	-1.61133
0.9015	-7.65381
0.902	-25.07629
0.9025	-25.68054
0.903	-27.59399
0.9035	-24.47205
0.904	-22.05505
0.9045	-17.12036
0.905	-11.48071
0.9055	-0.10071
0.906	5.23682
0.9065	25.68054
0.907	51.5625
0.9075	74.42322
0.908	73.71826
0.9085	65.25879
0.909	41.79382
0.9095	28.19824
0.91	10.57434
0.9105	-9.76868
0.911	-22.45789
0.9115	-17.32178
0.912	-3.42407
0.9125	2.11487
0.913	-7.85522
0.9135	-20.04089
0.914	-27.19116
0.9145	-38.36975
0.915	-31.11877
0.9155	-9.36584
0.916	-6.44531
0.9165	-7.45239
0.917	-6.3446
0.9175	-5.84106
0.918	-3.32336
0.9185	-1.81274
0.919	4.53186
0.9195	9.46655
0.92	23.26355
0.9205	21.3501
0.921	22.25647
0.9215	12.38708
0.922	4.12903
0.9225	0.20142
0.923	2.41699
0.9235	35.2478
0.924	64.35242
0.9245	82.78198
0.925	76.84021
0.9255	56.69861
0.926	36.35559
0.9265	18.32886
0.927	-1.61133
0.9275	-10.77576
0.928	-6.04248
0.9285	-7.25098
0.929	-9.86938
0.9295	-1.3092
0.93	18.63098
0.9305	20.64514
0.931	20.34302
0.9315	8.45947
0.932	0
0.9325	-9.16443
0.933	-27.59399
0.9335	-31.72302
0.934	-37.7655
0.9345	-46.82922
0.935	-5.43823
0.9355	50.65613
0.936	88.82446
0.9365	98.69385
0.937	84.69543
0.9375	66.36658
0.938	35.95276
0.9385	9.26514
0.939	-23.46497
0.9395	-50.85754
0.94	-23.36426
0.9405	14.09912
0.941	40.58533
0.9415	100.70801
0.942	176.54114
0.9425	190.03601
0.943	161.83777
0.9435	106.44836
0.944	23.56567
0.9445	-43.10303
0.945	-96.17615
0.9455	-124.57581
0.946	-145.01953
0.9465	-160.62927
0.947	-162.74414
0.9475	-154.78821
0.948	-136.25793
0.9485	-115.51208
0.949	-94.06128
0.9495	-73.81897
0.95	-51.96533
0.9505	-33.73718
0.951	-24.77417
0.9515	-16.3147
0.952	-13.89771
0.9525	-7.85522
0.953	8.96301
0.9535	24.67346
0.954	38.57117
0.9545	52.06604
0.955	59.41772
0.9555	54.38232
0.956	51.05896
0.9565	46.22498
0.957	35.34851
0.9575	29.80957
0.958	26.88904
0.9585	25.88196
0.959	27.6947
0.9595	25.88196
0.96	28.80249
0.9605	27.99683
0.961	25.07629
0.9615	27.99683
0.962	60.02197
0.9625	72.71118
0.963	74.42322
0.9635	68.68286
0.964	55.18799
0.9645	35.95276
0.965	17.01965
0.9655	-1.40991
0.966	-33.43506
0.9665	-54.98657
0.967	-69.99207
0.9675	-83.18481
0.968	-85.5011
0.9685	-82.37915
0.969	-68.68286
0.9695	-57.50427
0.97	-36.95984
0.9705	-21.45081
0.971	0.50354
0.9715	9.36584
0.972	16.3147
0.9725	22.6593
0.973	33.9386
0.9735	56.39648
0.974	63.04321
0.9745	58.71277
0.975	43.90869
0.9755	46.32568
0.976	43.00232
0.9765	34.34143
0.977	28.09753
0.9775	24.37134
0.978	18.42957
0.9785	4.53186
0.979	-6.04248
0.9795	-10.17151
0.98	0.70496
0.9805	18.8324
0.981	32.32727
0.9815	25.27771
0.982	17.32178
0.9825	5.13611
0.983	9.56726
0.9835	-3.52478
0.984	-2.61841
0.9845	-11.2793
0.985	-19.23523
0.9855	-23.16284
0.986	-14.70337
0.9865	-12.38708
0.987	-10.47363
0.9875	-11.88354
0.988	3.32336
0.9885	22.45789
0.989	27.99683
0.9895	22.55859
0.99	25.78125
0.9905	25.37842
0.991	23.76709
0.9915	19.83948
0.992	8.35876
0.9925	-2.11487
0.993	-0.80566
0.9935	6.44531
0.994	18.32886
0.9945	16.71753
0.995	4.02832
0.9955	2.92053
0.996	-5.0354
0.9965	-3.62549
0.997	-0.30212
0.9975	-4.73328
0.998	-11.17859
0.9985	-15.40833
0.999	-18.8324
0.9995	-13.39417
1	-8.66089
1.0005	-4.33044
1.001	-3.12195
1.0015	-8.25806
1.002	-6.3446
1.0025	-4.63257
1.003	-3.92761
1.0035	-9.56726
1.004	2.5177
1.0045	23.56567
1.005	52.97241
1.0055	120.14465
1.006	172.81494
1.0065	171.0022
1.007	143.50891
1.0075	101.8158
1.008	48.94409
1.0085	4.93469
1.009	-27.39258
1.0095	-55.08728
1.01	-85.70251
1.0105	-107.35474
1.011	-116.11633
1.0115	-116.72058
1.012	-111.38306
1.0125	-89.02588
1.013	-63.34534
1.0135	-46.32568
1.014	-37.26196
1.0145	-18.53027
1.015	12.78992
1.0155	39.17542
1.016	37.36267
1.0165	30.91736
1.017	14.50195
1.0175	-4.12903
1.018	-5.84106
1.0185	-15.60974
1.019	0.80566
1.0195	61.83472
1.02	94.96765
1.0205	78.25012
1.021	60.22339
1.0215	71.40198
1.022	76.03455
1.0225	62.03613
1.023	33.9386
1.0235	19.43665
1.024	3.12195
1.0245	-13.19275
1.025	-44.71436
1.0255	-69.48853
1.026	-83.58765
1.0265	-85.19897
1.027	-82.07703
1.0275	-80.26428
1.028	-70.79773
1.0285	-65.76233
1.029	-53.07312
1.0295	-44.61365
1.03	-38.16833
1.0305	-12.99133
1.031	12.78992
1.0315	20.1416
1.032	30.31311
1.0325	23.96851
1.033	17.52319
1.0335	8.45947
1.034	9.76868
1.0345	6.84814
1.035	38.47046
1.0355	58.81348
1.036	71.7041
1.0365	67.67578
1.037	56.69861
1.0375	34.64355
1.038	12.78992
1.0385	6.74744
1.039	3.22266
1.0395	3.32336
1.04	-6.94885
1.0405	-13.29346
1.041	-20.74585
1.0415	-27.59399
1.042	-27.09045
1.0425	-27.99683
1.043	0.20142
1.0435	33.53577
1.044	50.55542
1.0445	51.5625
1.045	41.69312
1.0455	35.75134
1.046	24.27063
1.0465	14.50195
1.047	5.84106
1.0475	13.49487
1.048	17.72461
1.0485	12.28638
1.049	17.01965
1.0495	2.71912
1.05	-4.53186
1.0505	-14.70337
1.051	-13.49487
1.0515	-13.09204
1.052	-10.67505
1.0525	-11.58142
1.053	-16.81824
1.0535	-16.3147
1.054	-11.07788
1.0545	-1.00708
1.055	17.42249
1.0555	19.63806
1.056	31.62231
1.0565	30.61523
1.057	22.6593
1.0575	7.35168
1.058	-13.39417
1.0585	-22.86072
1.059	-29.10461
1.0595	-40.88745
1.06	-30.91736
1.0605	-10.87646
1.061	3.62549
1.0615	15.60974
1.062	57.8064
1.0625	104.73633
1.063	130.61829
1.0635	123.36731
1.064	92.34924
1.0645	47.43347
1.065	-6.04248
1.0655	-48.74268
1.066	-94.46411
1.0665	-102.31934
1.067	-113.29651
1.0675	-111.78589
1.068	-100.6073
1.0685	-93.45703
1.069	-84.69543
1.0695	-75.12817
1.07	-54.88586
1.0705	18.93311
1.071	101.8158
1.0715	138.67493
1.072	148.64502
1.0725	140.78979
1.073	114.10217
1.0735	79.15649
1.074	32.93152
1.0745	-4.12903
1.075	-31.21948
1.0755	-42.09595
1.076	-55.69153
1.0765	-61.93542
1.077	-54.98657
1.0775	-44.81506
1.078	-23.56567
1.0785	-2.61841
1.079	18.63098
1.0795	42.8009
1.08	57.9071
1.0805	67.97791
1.081	80.36499
1.0815	85.19897
1.082	76.33667
1.0825	56.39648
1.083	40.78674
1.0835	16.21399
1.084	-14.50195
1.0845	-44.11011
1.085	-33.53577
1.0855	10.87646
1.086	56.79932
1.0865	65.86304
1.087	49.14551
1.0875	15.00549
1.088	-20.84656
1.0885	-42.29736
1.089	-71.50269
1.0895	-76.23596
1.09	-65.3595
1.0905	-60.52551
1.091	-66.87012
1.0915	-70.69702
1.092	-76.63879
1.0925	-71.60339
1.093	-57.8064
1.0935	-36.15417
1.094	-14.90479
1.0945	0
1.095	16.51611
1.0955	27.99683
1.096	24.57275
1.0965	39.27612
1.097	48.33984
1.0975	55.89294
1.098	55.99365
1.0985	69.79065
1.099	58.71277
1.0995	31.21948
1.1	10.87646
1.1005	12.38708
1.101	19.03381
1.1015	27.59399
1.102	31.01807
1.1025	28.19824
1.103	18.53027
1.1035	-0.10071
1.104	-3.12195
1.1045	5.33752
1.105	5.0354
1.1055	-1.81274
1.106	-7.15027
1.1065	-13.99841
1.107	-9.46655
1.1075	-7.75452
1.108	-2.71912
1.1085	2.11487
1.109	5.63965
1.1095	7.25098
1.11	14.40125
1.1105	30.51453
1.111	66.36658
1.1115	114.4043
1.112	131.72607
1.1125	123.2666
1.113	109.26819
1.1135	75.02747
1.114	31.52161
1.1145	-13.49487
1.115	-46.22498
1.1155	-74.62463
1.116	-84.49402
1.1165	-85.70251
1.117	-80.76782
1.1175	-69.48853
1.118	-46.82922
1.1185	-33.43506
1.119	-19.73877
1.1195	-5.0354
1.12	12.28638
1.1205	12.99133
1.121	19.83948
1.1215	21.45081
1.122	21.95435
1.1225	19.73877
1.123	20.74585
1.1235	29.60815
1.124	34.34143
1.1245	90.73792
1.125	154.6875
1.1255	174.72839
1.126	154.18396
1.1265	116.922
1.127	59.21631
1.1275	6.04248
1.128	-32.52869
1.1285	-76.13525
1.129	-99.3988
1.1295	-119.13757
1.13	-140.8905
1.1305	-146.42944
1.131	-134.84802
1.1315	-99.70093
1.132	-67.77649
1.1325	-38.77258
1.133	-17.6239
1.1335	-10.67505
1.134	-8.45947
1.1345	-2.61841
1.135	0.10071
1.1355	4.83398
1.136	4.53186
1.1365	10.37292
1.137	29.00391
1.1375	36.95984
1.138	33.13293
1.1385	34.03931
1.139	56.19507
1.1395	85.40039
1.14	99.80164
1.1405	89.63013
1.141	69.68994
1.1415	45.72144
1.142	11.98425
1.1425	-13.39417
1.143	-38.77258
1.1435	-45.52002
1.144	-41.99524
1.1445	1.61133
1.145	28.70178
1.1455	41.29028
1.146	34.94568
1.1465	27.19116
1.147	14.90479
1.1475	11.48071
1.148	12.08496
1.1485	11.68213
1.149	4.43115
1.1495	-8.25806
1.15	2.41699
1.1505	9.76868
1.151	3.42407
1.1515	0.30212
1.152	-0.60425
1.1525	30.11169
1.153	62.64038
1.1535	70.29419
1.154	59.61914
1.1545	44.61365
1.155	43.90869
1.1555	36.05347
1.156	22.76001
1.1565	2.01416
1.157	-25.98267
1.1575	-35.34851
1.158	-39.98108
1.1585	-35.95276
1.159	-37.26196
1.1595	-51.05896
1.16	-54.18091
1.1605	-53.47595
1.161	-43.50586
1.1615	-38.57117
1.162	-54.0802
1.1625	-74.2218
1.163	-78.35083
1.1635	-26.78833
1.164	11.17859
1.1645	24.67346
1.165	20.04089
1.1655	6.3446
1.166	-15.50903
1.1665	-35.2478
1.167	-45.92285
1.1675	-58.10852
1.168	-63.54675
1.1685	-62.23755
1.169	-54.58374
1.1695	-40.78674
1.17	-20.34302
1.1705	12.5885
1.171	27.39258
1.1715	38.77258
1.172	51.05896
1.1725	47.53418
1.173	59.71985
1.1735	71.7041
1.174	90.73792
1.1745	98.0896
1.175	79.86145
1.1755	63.34534
1.176	88.11951
1.1765	141.69617
1.177	156.39954
1.1775	118.13049
1.178	69.79065
1.1785	33.23364
1.179	4.22974
1.1795	-31.32019
1.18	-71.7041
1.1805	-106.44836
1.181	-124.97864
1.1815	-133.63953
1.182	-130.41687
1.1825	-123.87085
1.183	-111.28235
1.1835	-86.30676
1.184	-58.91418
1.1845	-22.55859
1.185	0.30212
1.1855	75.02747
1.186	189.33105
1.1865	244.72046
1.187	226.49231
1.1875	191.1438
1.188	137.0636
1.1885	94.66553
1.189	55.79224
1.1895	9.66797
1.19	-21.14868
1.1905	-49.34692
1.191	-78.55225
1.1915	-84.2926
1.192	-84.89685
1.1925	-85.80322
1.193	-81.17065
1.1935	-59.71985
1.194	-38.77258
1.1945	-12.78992
1.195	14.60266
1.1955	28.9032
1.196	51.46179
1.1965	67.17224
1.197	65.3595
1.1975	58.41064
1.198	51.76392
1.1985	32.93152
1.199	6.74744
1.1995	-22.76001
1.2	-48.23914
1.2005	-61.73401
1.201	-63.84888
1.2015	-69.38782
1.202	-62.74109
1.2025	-50.55542
1.203	-33.23364
1.2035	-25.57983
1.204	-16.51611
1.2045	-17.42249
1.205	-4.83398
1.2055	-5.13611
1.206	53.57666
1.2065	146.83228
1.207	195.87708
1.2075	206.04858
1.208	199.09973
1.2085	177.04468
1.209	133.53882
1.2095	69.48853
1.21	10.0708
1.2105	-49.0448
1.211	-96.98181
1.2115	-119.84253
1.212	-137.46643
1.2125	-159.52148
1.213	-126.69067
1.2135	7.75452
1.214	118.83545
1.2145	188.82751
1.215	189.23035
1.2155	150.35706
1.216	78.14941
1.2165	-7.85522
1.217	-81.57349
1.2175	-148.54431
1.218	-203.83301
1.2185	-227.49939
1.219	-231.22559
1.2195	-220.55054
1.22	-195.07141
1.2205	-157.91016
1.221	-130.8197
1.2215	-100.80872
1.222	-61.02905
1.2225	-29.60815
1.223	-3.52478
1.2235	16.3147
1.224	25.88196
1.2245	30.51453
1.225	30.2124
1.2255	42.09595
1.226	47.63489
1.2265	108.1604
1.227	185.60486
1.2275	211.99036
1.228	190.43884
1.2285	147.43652
1.229	93.15491
1.2295	53.07312
1.23	18.32886
1.2305	-17.42249
1.231	-35.14709
1.2315	-50.45471
1.232	-53.87878
1.2325	-50.65613
1.233	-44.41223
1.2335	-29.50745
1.234	-19.43665
1.2345	-6.3446
1.235	1.91345
1.2355	8.96301
1.236	2.21558
1.2365	2.21558
1.237	2.61841
1.2375	6.2439
1.238	15.1062
1.2385	25.68054
1.239	34.54285
1.2395	36.65771
1.24	26.18408
1.2405	18.22815
1.241	15.60974
1.2415	10.57434
1.242	6.04248
1.2425	44.31152
1.243	79.96216
1.2435	82.9834
1.244	58.61206
1.2445	31.4209
1.245	3.12195
1.2455	-18.73169
1.246	-31.11877
1.2465	-49.34692
1.247	-54.18091
1.2475	-63.24463
1.248	-60.12268
1.2485	-59.41772
1.249	-65.96375
1.2495	-56.39648
1.25	-43.90869
1.2505	-31.52161
1.251	-15.30762
1.2515	-10.77576
1.252	0.20142
1.2525	5.23682
1.253	11.38
1.2535	20.24231
1.254	10.87646
1.2545	5.43823
1.255	-5.23682
1.2555	2.31628
1.256	18.8324
1.2565	35.54993
1.257	44.51294
1.2575	37.7655
1.258	38.77258
1.2585	40.48462
1.259	51.76392
1.2595	50.354
1.26	44.0094
1.2605	44.51294
1.261	34.84497
1.2615	32.62939
1.262	32.52869
1.2625	29.20532
1.263	38.36975
1.2635	45.62073
1.264	58.41064
1.2645	52.06604
1.265	34.03931
1.2655	31.52161
1.266	21.14868
1.2665	0.50354
1.267	-17.72461
1.2675	-28.09753
1.268	-22.96143
1.2685	-27.09045
1.269	-35.04639
1.2695	-46.12427
1.27	-41.69312
1.2705	-54.68445
1.271	-56.39648
1.2715	-51.76392
1.272	-28.50037
1.2725	37.36267
1.273	106.64978
1.2735	124.37439
1.274	124.77722
1.2745	95.06836
1.275	55.79224
1.2755	21.85364
1.276	5.74036
1.2765	-12.08496
1.277	-25.177
1.2775	-54.18091
1.278	-82.07703
1.2785	-93.65845
1.279	-91.24146
1.2795	-59.21631
1.28	-20.34302
1.2805	-7.04956
1.281	-1.51062
1.2815	43.70728
1.282	92.14783
1.2825	121.65527
1.283	111.18164
1.2835	100.20447
1.284	153.88184
1.2845	182.88574
1.285	154.88892
1.2855	91.8457
1.286	28.19824
1.2865	-24.37134
1.287	-63.84888
1.2875	-91.54358
1.288	-100.6073
1.2885	-96.98181
1.289	-96.37756
1.2895	-79.66003
1.29	-62.8418
1.2905	-44.21082
1.291	-29.70886
1.2915	-21.45081
1.292	-11.38
1.2925	-2.92053
1.293	10.27222
1.2935	15.91187
1.294	28.70178
1.2945	37.56409
1.295	76.13525
1.2955	91.04004
1.296	87.31384
1.2965	70.89844
1.297	45.11719
1.2975	22.45789
1.298	3.12195
1.2985	-12.38708
1.299	-25.07629
1.2995	-34.84497
1.3	-53.97949
1.3005	-62.9425
1.301	-73.51685
1.3015	-67.77649
1.302	-68.88428
1.3025	-65.15808
1.303	-54.88586
1.3035	-39.37683
1.304	-29.30603
1.3045	-13.89771
1.305	-7.45239
1.3055	7.35168
1.306	11.88354
1.3065	7.04956
1.307	6.14319
1.3075	0.20142
1.308	7.15027
1.3085	4.73328
1.309	10.27222
1.3095	-0.60425
1.31	-3.32336
1.3105	9.76868
1.311	14.60266
1.3115	10.47363
1.312	5.43823
1.3125	6.3446
1.313	16.51611
1.3135	84.79614
1.314	117.72766
1.3145	102.31934
1.315	68.58215
1.3155	35.85205
1.316	-1.61133
1.3165	-28.09753
1.317	-46.62781
1.3175	-65.15808
1.318	-85.90393
1.3185	-95.5719
1.319	-85.70251
1.3195	-79.96216
1.32	-64.45312
1.3205	-54.98657
1.321	-35.34851
1.3215	-10.57434
1.322	2.21558
1.3225	10.87646
1.323	21.24939
1.3235	30.71594
1.324	41.79382
1.3245	53.07312
1.325	57.10144
1.3255	45.92285
1.326	43.00232
1.3265	44.51294
1.327	39.98108
1.3275	17.01965
1.328	-2.31628
1.3285	-6.74744
1.329	-9.76868
1.3295	-11.68213
1.33	52.771
1.3305	111.38306
1.331	129.71191
1.3315	108.46252
1.332	63.04321
1.3325	11.2793
1.333	-30.91736
1.3335	-60.4248
1.334	-81.57349
1.3345	-89.12659
1.335	-89.63013
1.3355	-74.92676
1.336	-41.18958
1.3365	-9.97009
1.337	13.89771
1.3375	35.44922
1.338	54.38232
1.3385	56.69861
1.339	57.30286
1.3395	59.61914
1.34	53.57666
1.3405	47.7356
1.341	37.06055
1.3415	32.32727
1.342	29.80957
1.3425	34.84497
1.343	65.76233
1.3435	131.22253
1.344	159.82361
1.3445	160.9314
1.345	146.63086
1.3455	120.34607
1.346	89.02588
1.3465	51.86462
1.347	24.27063
1.3475	3.52478
1.348	-28.50037
1.3485	-75.73242
1.349	-116.51917
1.3495	-132.12891
1.35	-147.73865
1.3505	-144.21387
1.351	-136.96289
1.3515	-116.82129
1.352	-106.44836
1.3525	-89.73083
1.353	-75.4303
1.3535	-54.98657
1.354	-31.32019
1.3545	-5.23682
1.355	20.44373
1.3555	40.68604
1.356	53.37524
1.3565	56.49719
1.357	59.82056
1.3575	54.38232
1.358	57.20215
1.3585	61.12976
1.359	93.35632
1.3595	109.57031
1.36	97.88818
1.3605	83.38623
1.361	67.77649
1.3615	51.96533
1.362	30.61523
1.3625	16.41541
1.363	42.49878
1.3635	64.55383
1.364	54.88586
1.3645	22.45789
1.365	-14.50195
1.3655	-37.16125
1.366	-48.03772
1.3665	-59.51843
1.367	-76.63879
1.3675	-75.83313
1.368	-81.57349
1.3685	-70.49561
1.369	-59.82056
1.3695	-49.24622
1.37	-33.9386
1.3705	-23.06213
1.371	-13.39417
1.3715	-4.73328
1.372	0.50354
1.3725	7.15027
1.373	21.04797
1.3735	33.33435
1.374	42.29736
1.3745	50.75684
1.375	56.19507
1.3755	54.28162
1.376	49.95117
1.3765	35.2478
1.377	18.73169
1.3775	18.63098
1.378	5.63965
1.3785	9.46655
1.379	17.42249
1.3795	15.60974
1.38	15.30762
1.3805	0.10071
1.381	-16.11328
1.3815	-25.78125
1.382	-30.51453
1.3825	-35.85205
1.383	-35.04639
1.3835	-27.29187
1.384	-17.82532
1.3845	-7.5531
1.385	7.04956
1.3855	-3.62549
1.386	-11.38
1.3865	-12.5885
1.387	-24.06921
1.3875	-31.82373
1.388	-46.22498
1.3885	-58.30994
1.389	-70.49561
1.3895	-87.01172
1.39	-55.59082
1.3905	22.05505
1.391	64.75525
1.3915	78.35083
1.392	63.24463
1.3925	38.87329
1.393	19.23523
1.3935	17.92603
1.394	12.78992
1.3945	0.60425
1.395	2.21558
1.3955	-2.31628
1.396	2.01416
1.3965	14.40125
1.397	54.18091
1.3975	143.50891
1.398	198.59619
1.3985	252.17285
1.399	272.21375
1.3995	238.87939
1.4	186.1084
1.4005	124.27368
1.401	54.0802
1.4015	-11.38
1.402	-54.48303
1.4025	-106.14624
1.403	-140.28625
1.4035	-165.06042
1.404	-155.9967
1.4045	-137.46643
1.405	-107.95898
1.4055	-79.76074
1.406	-68.17932
1.4065	-54.0802
1.407	-46.82922
1.4075	-36.65771
1.408	-32.32727
1.4085	-18.22815
1.409	-15.40833
1.4095	-4.33044
1.41	5.63965
1.4105	17.32178
1.411	28.29895
1.4115	37.96692
1.412	35.2478
1.4125	59.1156
1.413	109.57031
1.4135	133.63953
1.414	122.76306
1.4145	106.64978
1.415	83.68835
1.4155	57.10144
1.416	20.34302
1.4165	-3.22266
1.417	-2.61841
1.4175	-0.60425
1.418	-21.24939
1.4185	-40.2832
1.419	-58.10852
1.4195	-68.88428
1.42	-76.43738
1.4205	-81.06995
1.421	-75.83313
1.4215	-67.17224
1.422	-66.97083
1.4225	-72.40906
1.423	-65.56091
1.4235	-54.0802
1.424	-45.3186
1.4245	-39.57825
1.425	-27.49329
1.4255	-8.96301
1.426	3.22266
1.4265	-1.71204
1.427	-9.16443
1.4275	-17.32178
1.428	-21.45081
1.4285	9.86938
1.429	43.00232
1.4295	58.61206
1.43	64.05029
1.4305	54.78516
1.431	47.13135
1.4315	28.39966
1.432	20.74585
1.4325	8.45947
1.433	6.64673
1.4335	0.90637
1.434	-3.42407
1.4345	2.21558
1.435	0.80566
1.4355	-0.70496
1.436	7.5531
1.4365	22.76001
1.437	38.77258
1.4375	56.09436
1.438	55.99365
1.4385	44.41223
1.439	35.14709
1.4395	29.70886
1.44	24.27063
1.4405	21.85364
1.441	24.27063
1.4415	28.19824
1.442	35.95276
1.4425	40.2832
1.443	38.87329
1.4435	31.82373
1.444	26.48621
1.4445	17.52319
1.445	13.09204
1.4455	-2.31628
1.446	-7.15027
1.4465	-5.53894
1.447	-0.70496
1.4475	3.42407
1.448	4.53186
1.4485	3.22266
1.449	1.40991
1.4495	-2.71912
1.45	-10.87646
1.4505	-21.65222
1.451	-15.40833
1.4515	-13.69629
1.452	-8.96301
1.4525	-5.23682
1.453	-15.91187
1.4535	-22.6593
1.454	-25.78125
1.4545	23.26355
1.455	78.65295
1.4555	107.45544
1.456	145.9259
1.4565	123.56873
1.457	70.49561
1.4575	2.21558
1.458	-55.59082
1.4585	-108.46252
1.459	-139.88342
1.4595	-156.29883
1.46	-164.25476
1.4605	-158.71582
1.461	-133.53882
1.4615	-113.59863
1.462	-75.22888
1.4625	-33.33435
1.463	11.17859
1.4635	50.45471
1.464	66.36658
1.4645	86.70959
1.465	89.73083
1.4655	92.14783
1.466	87.91809
1.4665	105.94482
1.467	113.59863
1.4675	99.3988
1.468	73.91968
1.4685	56.90002
1.469	42.39807
1.4695	34.64355
1.47	16.91895
1.4705	0.40283
1.471	-16.51611
1.4715	-32.42798
1.472	-40.38391
1.4725	-37.36267
1.473	-40.38391
1.4735	-37.7655
1.474	-24.37134
1.4745	-6.44531
1.475	7.04956
1.4755	20.84656
1.476	39.67896
1.4765	46.5271
1.477	53.27454
1.4775	52.16675
1.478	55.59082
1.4785	66.46729
1.479	97.38464
1.4795	107.45544
1.48	94.86694
1.4805	71.7041
1.481	48.13843
1.4815	23.26355
1.482	-0.20142
1.4825	-13.797
1.483	-36.25488
1.4835	-47.8363
1.484	-58.10852
1.4845	-72.61047
1.485	-78.85437
1.4855	-76.7395
1.486	-66.06445
1.4865	-50.05188
1.487	-30.71594
1.4875	11.07788
1.488	50.354
1.4885	58.41064
1.489	59.21631
1.4895	43.00232
1.49	33.33435
1.4905	11.88354
1.491	9.97009
1.4915	7.25098
1.492	3.22266
1.4925	-3.22266
1.493	-11.98425
1.4935	-33.63647
1.494	-50.354
1.4945	-51.76392
1.495	6.3446
1.4955	45.62073
1.496	25.78125
1.4965	-6.14319
1.497	-39.88037
1.4975	-51.76392
1.498	-59.21631
1.4985	-62.23755
1.499	-66.97083
1.4995	-65.25879
1.5	-73.61755
1.5005	-36.75842
1.501	12.5885
1.5015	25.98267
1.502	41.99524
1.5025	37.16125
1.503	26.08337
1.5035	12.28638
1.504	-1.00708
1.5045	-13.19275
1.505	-28.09753
1.5055	-39.77966
1.506	-45.3186
1.5065	-42.8009
1.507	-31.4209
1.5075	-23.76709
1.508	-36.25488
1.5085	-21.55151
1.509	42.49878
1.5095	86.91101
1.51	104.4342
1.5105	139.78271
1.511	148.3429
1.5115	160.32715
1.512	186.81335
1.5125	166.67175
1.513	101.9165
1.5135	36.25488
1.514	-27.59399
1.5145	-72.20764
1.515	-107.05261
1.5155	-131.82678
1.516	-144.51599
1.5165	-140.68909
1.517	-115.81421
1.5175	-90.33508
1.518	-53.97949
1.5185	-22.25647
1.519	2.81982
1.5195	15.81116
1.52	29.40674
1.5205	38.67188
1.521	46.92993
1.5215	39.57825
1.522	28.39966
1.5225	9.76868
1.523	-2.31628
1.5235	-10.37292
1.524	-7.35168
1.5245	-10.17151
1.525	-3.32336
1.5255	7.95593
1.526	22.25647
1.5265	38.87329
1.527	43.80798
1.5275	54.38232
1.528	53.47595
1.5285	48.74268
1.529	46.32568
1.5295	42.49878
1.53	35.14709
1.5305	26.08337
1.531	21.75293
1.5315	13.59558
1.532	22.15576
1.5325	40.68604
1.533	78.04871
1.5335	93.0542
1.534	78.04871
1.5345	49.95117
1.535	28.70178
1.5355	4.33044
1.536	-20.34302
1.5365	-52.26746
1.537	-87.51526
1.5375	-105.23987
1.538	-112.08801
1.5385	-110.17456
1.539	-95.97473
1.5395	-76.84021
1.54	-64.85596
1.5405	-41.79382
1.541	-19.83948
1.5415	-12.18567
1.542	8.96301
1.5425	36.95984
1.543	46.02356
1.5435	54.38232
1.544	44.51294
1.5445	34.64355
1.545	11.98425
1.5455	9.97009
1.546	7.65381
1.5465	4.83398
1.547	-2.71912
1.5475	-10.0708
1.548	-10.67505
1.5485	-7.04956
1.549	-5.84106
1.5495	-11.48071
1.55	-17.12036
1.5505	-17.72461
1.551	-17.42249
1.5515	-7.95593
1.552	-10.67505
1.5525	-8.96301
1.553	-10.57434
1.5535	-7.25098
1.554	0.40283
1.5545	18.63098
1.555	30.01099
1.5555	23.26355
1.556	11.17859
1.5565	17.72461
1.557	32.02515
1.5575	41.4917
1.558	39.37683
1.5585	37.96692
1.559	38.16833
1.5595	46.82922
1.56	39.57825
1.5605	22.25647
1.561	4.93469
1.5615	-21.75293
1.562	-43.40515
1.5625	-55.2887
1.563	-62.9425
1.5635	-60.82764
1.564	-61.02905
1.5645	-44.0094
1.565	-39.47754
1.5655	-30.2124
1.566	-14.60266
1.5665	-2.5177
1.567	0.90637
1.5675	27.89612
1.568	70.99915
1.5685	132.73315
1.569	154.98962
1.5695	120.24536
1.57	89.12659
1.5705	103.93066
1.571	95.87402
1.5715	125.68359
1.572	107.65686
1.5725	51.96533
1.573	-15.91187
1.5735	-72.71118
1.574	-124.17297
1.5745	-151.86768
1.575	-169.49158
1.5755	-171.20361
1.576	-165.9668
1.5765	-144.11316
1.577	-106.8512
1.5775	-62.8418
1.578	-17.52319
1.5785	21.55151
1.579	42.19666
1.5795	50.2533
1.58	55.99365
1.5805	39.98108
1.581	52.97241
1.5815	82.88269
1.582	93.96057
1.5825	82.27844
1.583	59.01489
1.5835	46.82922
1.584	25.177
1.5845	11.38
1.585	-12.38708
1.5855	-26.68762
1.586	-45.92285
1.5865	-53.17383
1.587	-62.13684
1.5875	-66.97083
1.588	-50.95825
1.5885	-29.70886
1.589	-2.81982
1.5895	11.48071
1.59	20.94727
1.5905	38.974
1.591	48.33984
1.5915	60.02197
1.592	67.27295
1.5925	66.56799
1.593	64.35242
1.5935	50.95825
1.594	34.74426
1.5945	23.76709
1.595	21.24939
1.5955	13.29346
1.596	4.73328
1.5965	-9.36584
1.597	-24.57275
1.5975	-31.32019
1.598	-17.01965
1.5985	-8.45947
1.599	7.04956
1.5995	-9.56726
1.6	-4.12903
1.6005	-9.36584
1.601	-13.89771
1.6015	-12.78992
1.602	-11.17859
1.6025	-13.797
1.603	-14.80408
1.6035	-1.71204
1.604	16.91895
1.6045	20.84656
1.605	30.2124
1.6055	35.65063
1.606	45.72144
1.6065	40.68604
1.607	33.13293
1.6075	28.60107
1.608	6.74744
1.6085	-4.93469
1.609	-8.25806
1.6095	-18.32886
1.61	-19.33594
1.6105	-22.45789
1.611	-20.24231
1.6115	-14.60266
1.612	-7.15027
1.6125	-7.15027
1.613	-7.75452
1.6135	-0.50354
1.614	-5.33752
1.6145	1.40991
1.615	19.43665
1.6155	24.77417
1.616	28.19824
1.6165	-1.61133
1.617	-8.66089
1.6175	-15.71045
1.618	-18.53027
1.6185	-23.06213
1.619	-25.78125
1.6195	-13.69629
1.62	21.65222
1.6205	49.44763
1.621	51.36108
1.6215	80.86853
1.622	137.26501
1.6225	155.39246
1.623	152.37122
1.6235	121.35315
1.624	67.97791
1.6245	67.37366
1.625	45.2179
1.6255	34.03931
1.626	-9.76868
1.6265	-65.05737
1.627	-108.46252
1.6275	-137.56714
1.628	-162.2406
1.6285	-169.49158
1.629	-150.15564
1.6295	-101.41296
1.63	-62.64038
1.6305	-43.40515
1.631	3.8269
1.6315	38.47046
1.632	51.36108
1.6325	56.69861
1.633	109.16748
1.6335	137.66785
1.634	115.81421
1.6345	60.02197
1.635	5.53894
1.6355	-42.59949
1.636	-67.57507
1.6365	-72.20764
1.637	-69.68994
1.6375	-58.10852
1.638	-42.39807
1.6385	-25.78125
1.639	-3.7262
1.6395	19.63806
1.64	38.47046
1.6405	57.10144
1.641	57.8064
1.6415	68.07861
1.642	62.03613
1.6425	53.87878
1.643	55.99365
1.6435	49.74976
1.644	38.26904
1.6445	28.70178
1.645	25.07629
1.6455	20.54443
1.646	16.91895
1.6465	10.77576
1.647	1.71204
1.6475	-10.97717
1.648	-18.93311
1.6485	-14.40125
1.649	1.40991
1.6495	9.06372
1.65	-1.10779
1.6505	-1.2085
1.651	-17.42249
1.6515	-28.9032
1.652	-32.83081
1.6525	-29.20532
1.653	-18.93311
1.6535	-7.65381
1.654	-5.74036
1.6545	1.2085
1.655	7.5531
1.6555	15.30762
1.656	23.26355
1.6565	16.61682
1.657	11.17859
1.6575	-24.47205
1.658	-50.75684
1.6585	-56.69861
1.659	-61.6333
1.6595	-51.36108
1.66	-39.98108
1.6605	-34.64355
1.661	-20.54443
1.6615	-12.89062
1.662	-8.7616
1.6625	-2.11487
1.663	8.96301
1.6635	21.75293
1.664	16.3147
1.6645	19.43665
1.665	27.6947
1.6655	30.91736
1.666	37.56409
1.6665	38.77258
1.667	54.18091
1.6675	50.75684
1.668	43.40515
1.6685	41.29028
1.669	44.61365
1.6695	39.77966
1.67	34.84497
1.6705	50.75684
1.671	118.13049
1.6715	138.97705
1.672	120.84961
1.6725	74.12109
1.673	13.99841
1.6735	-35.75134
1.674	-86.60889
1.6745	-124.97864
1.675	-141.69617
1.6755	-145.42236
1.676	-147.03369
1.6765	-139.37988
1.677	-126.48926
1.6775	-99.90234
1.678	-59.41772
1.6785	16.81824
1.679	66.97083
1.6795	95.77332
1.68	100.00305
1.6805	111.08093
1.681	110.47668
1.6815	94.46411
1.682	47.53418
1.6825	6.64673
1.683	-24.27063
1.6835	-53.07312
1.684	-69.1864
1.6845	-81.06995
1.685	-73.81897
1.6855	-65.46021
1.686	-46.62781
1.6865	-25.88196
1.687	40.2832
1.6875	111.28235
1.688	139.88342
1.6885	128.20129
1.689	113.29651
1.6895	76.53809
1.69	47.13135
1.6905	16.41541
1.691	-9.97009
1.6915	-33.13293
1.692	-58.00781
1.6925	-63.84888
1.693	-60.92834
1.6935	-43.50586
1.694	-39.98108
1.6945	-25.98267
1.695	-5.63965
1.6955	6.54602
1.696	19.63806
1.6965	30.31311
1.697	58.91418
1.6975	94.06128
1.698	106.24695
1.6985	95.47119
1.699	68.07861
1.6995	50.75684
1.7	40.78674
1.7005	31.62231
1.701	25.177
1.7015	18.73169
1.702	13.29346
1.7025	4.73328
1.703	-3.22266
1.7035	13.99841
1.704	74.32251
1.7045	112.39014
1.705	101.71509
1.7055	65.86304
1.706	46.5271
1.7065	22.25647
1.707	-0.30212
1.7075	-40.88745
1.708	-82.58057
1.7085	-116.01562
1.709	-123.36731
1.7095	-127.59705
1.71	-109.06677
1.7105	-84.89685
1.711	-77.14233
1.7115	-69.68994
1.712	-61.6333
1.7125	-60.02197
1.713	-42.90161
1.7135	-30.81665
1.714	-16.61682
1.7145	-1.2085
1.715	17.72461
1.7155	34.24072
1.716	45.82214
1.7165	52.67029
1.717	56.09436
1.7175	56.29578
1.718	57.9071
1.7185	47.53418
1.719	51.96533
1.7195	46.42639
1.72	46.42639
1.7205	46.5271
1.721	39.88037
1.7215	30.31311
1.722	66.87012
1.7225	132.33032
1.723	141.19263
1.7235	128.40271
1.724	87.21313
1.7245	34.64355
1.725	1.81274
1.7255	-34.54285
1.726	-63.44604
1.7265	-89.42871
1.727	-102.52075
1.7275	-105.23987
1.728	-97.58606
1.7285	-78.75366
1.729	-63.04321
1.7295	-42.29736
1.73	-30.2124
1.7305	-29.00391
1.731	-24.97559
1.7315	-14.30054
1.732	-11.38
1.7325	-9.97009
1.733	-1.00708
1.7335	6.2439
1.734	13.49487
1.7345	20.54443
1.735	19.43665
1.7355	18.93311
1.736	10.17151
1.7365	10.57434
1.737	22.86072
1.7375	17.52319
1.738	41.08887
1.7385	76.84021
1.739	84.59473
1.7395	81.37207
1.74	57.60498
1.7405	23.66638
1.741	-5.33752
1.7415	-21.85364
1.742	-34.24072
1.7425	-45.72144
1.743	-46.02356
1.7435	-15.91187
1.744	15.60974
1.7445	16.01257
1.745	8.7616
1.7455	-5.94177
1.746	-32.12585
1.7465	-45.01648
1.747	-39.77966
1.7475	-27.79541
1.748	-18.93311
1.7485	-3.7262
1.749	23.76709
1.7495	27.39258
1.75	26.28479
1.7505	5.63965
1.751	-10.97717
1.7515	-30.31311
1.752	-19.73877
1.7525	23.06213
1.753	30.71594
1.7535	25.78125
1.754	23.46497
1.7545	34.24072
1.755	35.04639
1.7555	30.41382
1.756	23.66638
1.7565	18.32886
1.757	12.89062
1.7575	-0.60425
1.758	-13.69629
1.7585	-17.32178
1.759	-14.70337
1.7595	-9.06372
1.76	1.51062
1.7605	16.11328
1.761	33.23364
1.7615	52.26746
1.762	67.27295
1.7625	70.99915
1.763	62.33826
1.7635	61.23047
1.764	58.61206
1.7645	37.96692
1.765	23.26355
1.7655	9.26514
1.766	43.00232
1.7665	73.61755
1.767	76.84021
1.7675	45.92285
1.768	-2.11487
1.7685	-42.7002
1.769	-80.86853
1.7695	-58.41064
1.77	12.18567
1.7705	31.21948
1.771	65.3595
1.7715	107.25403
1.772	103.22571
1.7725	70.89844
1.773	26.68762
1.7735	-23.76709
1.774	-58.61206
1.7745	-82.9834
1.775	-91.745
1.7755	-105.13916
1.776	-105.34058
1.7765	-92.34924
1.777	-72.9126
1.7775	-53.17383
1.778	-26.18408
1.7785	-13.29346
1.779	0.40283
1.7795	0.90637
1.78	1.3092
1.7805	4.83398
1.781	1.3092
1.7815	6.74744
1.782	19.83948
1.7825	32.22656
1.783	32.7301
1.7835	36.85913
1.784	35.85205
1.7845	33.53577
1.785	33.33435
1.7855	31.01807
1.786	23.26355
1.7865	11.2793
1.787	12.28638
1.7875	19.13452
1.788	20.34302
1.7885	27.29187
1.789	23.8678
1.7895	25.98267
1.79	25.37842
1.7905	16.51611
1.791	-2.01416
1.7915	-20.34302
1.792	-34.54285
1.7925	-39.88037
1.793	-45.82214
1.7935	-37.36267
1.794	-39.98108
1.7945	-33.13293
1.795	-26.18408
1.7955	-15.30762
1.796	-10.87646
1.7965	6.3446
1.797	25.88196
1.7975	30.41382
1.798	38.974
1.7985	44.31152
1.799	50.45471
1.7995	50.75684
1.8	49.44763
1.8005	70.89844
1.801	110.87952
1.8015	111.28235
1.802	94.56482
1.8025	66.87012
1.803	36.4563
1.8035	-1.51062
1.804	-36.15417
1.8045	-66.87012
1.805	-66.46729
1.8055	-48.84338
1.806	-47.23206
1.8065	-49.34692
1.807	-46.92993
1.8075	-38.47046
1.808	-34.14001
1.8085	-18.73169
1.809	-9.36584
1.8095	3.32336
1.81	5.63965
1.8105	4.63257
1.811	5.43823
1.8115	16.01257
1.812	21.55151
1.8125	18.53027
1.813	30.71594
1.8135	24.37134
1.814	11.98425
1.8145	-5.53894
1.815	-9.36584
1.8155	5.84106
1.816	30.91736
1.8165	44.51294
1.817	54.78516
1.8175	48.94409
1.818	30.2124
1.8185	11.48071
1.819	-9.56726
1.8195	-25.88196
1.82	-39.37683
1.8205	-43.30444
1.821	-45.11719
1.8215	-43.30444
1.822	-30.41382
1.8225	-9.46655
1.823	2.5177
1.8235	12.48779
1.824	18.73169
1.8245	13.69629
1.825	12.5885
1.8255	20.04089
1.826	29.80957
1.8265	57.30286
1.827	76.94092
1.8275	80.16357
1.828	66.36658
1.8285	62.03613
1.829	40.88745
1.8295	71.40198
1.83	74.32251
1.8305	41.08887
1.831	-8.15735
1.8315	-47.63489
1.832	-81.57349
1.8325	-102.31934
1.833	-120.54749
1.8335	-137.76855
1.834	-147.43652
1.8345	-133.13599
1.835	-123.16589
1.8355	-108.96606
1.836	-80.26428
1.8365	-59.82056
1.837	-29.40674
1.8375	3.02124
1.838	20.74585
1.8385	27.29187
1.839	32.62939
1.8395	45.01648
1.84	44.31152
1.8405	44.81506
1.841	31.11877
1.8415	39.17542
1.842	46.12427
1.8425	55.3894
1.843	98.59314
1.8435	125.48218
1.844	123.56873
1.8445	115.7135
1.845	92.95349
1.8455	68.17932
1.846	37.06055
1.8465	14.70337
1.847	-10.47363
1.8475	-30.31311
1.848	-43.80798
1.8485	-48.23914
1.849	-32.7301
1.8495	39.77966
1.85	64.35242
1.8505	66.87012
1.851	44.31152
1.8515	15.30762
1.852	-1.91345
1.8525	-28.60107
1.853	-49.85046
1.8535	-69.89136
1.854	-84.79614
1.8545	-82.88269
1.855	-36.75842
1.8555	-0.30212
1.856	9.56726
1.8565	4.43115
1.857	-5.74036
1.8575	-15.71045
1.858	-26.3855
1.8585	-51.5625
1.859	-60.12268
1.8595	-35.04639
1.86	-3.52478
1.8605	2.81982
1.861	-7.25098
1.8615	-9.46655
1.862	-17.42249
1.8625	-16.21399
1.863	-14.70337
1.8635	-22.96143
1.864	-29.00391
1.8645	-30.31311
1.865	-20.54443
1.8655	-7.65381
1.866	10.97717
1.8665	26.18408
1.867	42.09595
1.8675	54.68445
1.868	69.28711
1.8685	69.79065
1.869	70.99915
1.8695	76.63879
1.87	74.12109
1.8705	70.29419
1.871	61.43188
1.8715	42.29736
1.872	24.06921
1.8725	17.52319
1.873	16.11328
1.8735	8.66089
1.874	2.61841
1.8745	-0.40283
1.875	1.61133
1.8755	-3.8269
1.876	2.41699
1.8765	7.15027
1.877	11.78284
1.8775	16.51611
1.878	18.8324
1.8785	16.61682
1.879	8.56018
1.8795	1.51062
1.88	-3.7262
1.8805	-5.33752
1.881	-7.95593
1.8815	-11.68213
1.882	-26.88904
1.8825	-19.94019
1.883	-11.38
1.8835	-13.99841
1.884	-12.78992
1.8845	-14.19983
1.885	-39.67896
1.8855	-50.55542
1.886	-53.17383
1.8865	6.3446
1.887	83.28552
1.8875	101.71509
1.888	82.47986
1.8885	49.74976
1.889	7.65381
1.8895	-7.45239
1.89	-14.70337
1.8905	-23.96851
1.891	-44.91577
1.8915	-59.82056
1.892	-73.81897
1.8925	-63.04321
1.893	-49.85046
1.8935	-27.6947
1.894	-24.57275
1.8945	-15.20691
1.895	-13.49487
1.8955	-16.01257
1.896	-15.50903
1.8965	33.13293
1.897	83.18481
1.8975	106.04553
1.898	110.6781
1.8985	106.54907
1.899	96.27686
1.8995	76.84021
1.9	52.16675
1.9005	39.37683
1.901	21.04797
1.9015	-7.75452
1.902	-35.14709
1.9025	-50.85754
1.903	-47.33276
1.9035	-46.5271
1.904	-28.09753
1.9045	-22.25647
1.905	-10.47363
1.9055	4.12903
1.906	24.67346
1.9065	31.21948
1.907	22.15576
1.9075	10.67505
1.908	4.63257
1.9085	-2.11487
1.909	13.797
1.9095	86.40747
1.91	131.42395
1.9105	129.20837
1.911	148.14148
1.9115	165.66467
1.912	149.45068
1.9125	107.95898
1.913	53.47595
1.9135	-3.52478
1.914	-52.36816
1.9145	-93.15491
1.915	-116.11633
1.9155	-123.97156
1.916	-120.44678
1.9165	-106.9519
1.917	-82.58057
1.9175	-62.53967
1.918	-25.07629
1.9185	23.8678
1.919	41.89453
1.9195	38.16833
1.92	69.48853
1.9205	87.71667
1.921	78.14941
1.9215	54.0802
1.922	16.11328
1.9225	-15.1062
1.923	-44.0094
1.9235	-59.51843
1.924	-76.03455
1.9245	-80.4657
1.925	-80.26428
1.9255	-66.97083
1.926	-60.52551
1.9265	-46.92993
1.927	-25.177
1.9275	-11.98425
1.928	7.35168
1.9285	23.36426
1.929	30.61523
1.9295	37.66479
1.93	43.20374
1.9305	35.75134
1.931	29.20532
1.9315	15.30762
1.932	4.73328
1.9325	5.84106
1.933	7.5531
1.9335	9.16443
1.934	1.81274
1.9345	-9.97009
1.935	-8.96301
1.9355	-2.81982
1.936	0.70496
1.9365	-0.70496
1.937	-2.31628
1.9375	-1.2085
1.938	5.33752
1.9385	10.27222
1.939	63.84888
1.9395	122.56165
1.94	129.40979
1.9405	115.7135
1.941	84.2926
1.9415	55.79224
1.942	25.57983
1.9425	0.20142
1.943	-26.88904
1.9435	-41.59241
1.944	-55.89294
1.9445	-56.5979
1.945	-57.20215
1.9455	-58.41064
1.946	-48.23914
1.9465	-40.78674
1.947	-45.2179
1.9475	-44.0094
1.948	-42.7002
1.9485	-46.92993
1.949	-43.10303
1.9495	-25.88196
1.95	-14.09912
1.9505	2.71912
1.951	3.92761
1.9515	3.32336
1.952	-11.48071
1.9525	-3.32336
1.953	-3.52478
1.9535	-0.80566
1.954	0
1.9545	3.22266
1.955	8.56018
1.9555	14.30054
1.956	38.974
1.9565	84.69543
1.957	129.00696
1.9575	146.63086
1.958	141.79688
1.9585	126.9928
1.959	95.37048
1.9595	68.28003
1.96	36.85913
1.9605	8.35876
1.961	-14.60266
1.9615	-24.67346
1.962	-29.60815
1.9625	-35.95276
1.963	-40.1825
1.9635	-34.54285
1.964	-39.07471
1.9645	-40.98816
1.965	-39.47754
1.9655	-39.27612
1.966	-38.67188
1.9665	-27.29187
1.967	-20.54443
1.9675	28.70178
1.968	72.40906
1.9685	86.20605
1.969	79.76074
1.9695	58.10852
1.97	21.55151
1.9705	-2.71912
1.971	-16.61682
1.9715	-37.16125
1.972	-49.95117
1.9725	-59.61914
1.973	-77.14233
1.9735	-71.20056
1.974	-65.15808
1.9745	-49.54834
1.975	-5.23682
1.9755	36.75842
1.976	53.17383
1.9765	64.45312
1.977	53.17383
1.9775	48.84338
1.978	40.88745
1.9785	35.34851
1.979	21.55151
1.9795	13.29346
1.98	7.95593
1.9805	2.61841
1.981	1.10779
1.9815	1.10779
1.982	-3.12195
1.9825	-6.44531
1.983	7.25098
1.9835	50.05188
1.984	64.25171
1.9845	45.11719
1.985	22.96143
1.9855	3.42407
1.986	-22.6593
1.9865	-44.31152
1.987	-57.40356
1.9875	-65.66162
1.988	-60.52551
1.9885	-45.11719
1.989	-35.04639
1.9895	-41.4917
1.99	-34.84497
1.9905	-27.29187
1.991	-14.19983
1.9915	-7.65381
1.992	-4.02832
1.9925	-6.2439
1.993	-11.2793
1.9935	-7.25098
1.994	0
1.9945	19.43665
1.995	36.35559
1.9955	102.11792
1.996	160.83069
1.9965	174.72839
1.997	155.19104
1.9975	116.31775
1.998	57.70569
1.9985	8.7616
1.999	-37.16125
1.9995	-68.17932
2	-81.17065
2.0005	-77.24304
2.001	-68.38074
2.0015	-59.61914
2.002	33.13293
2.0025	149.85352
2.003	181.27441
2.0035	175.73547
2.004	141.29333
2.0045	84.39331
2.005	30.71594
2.0055	-24.77417
2.006	-75.32959
2.0065	-112.39014
2.007	-132.53174
2.0075	-143.4082
2.008	-144.41528
2.0085	-126.89209
2.009	-107.75757
2.0095	-81.27136
2.01	-66.26587
2.0105	-52.16675
2.011	-29.70886
2.0115	-18.22815
2.012	-0.60425
2.0125	13.89771
2.013	20.84656
2.0135	23.16284
2.014	18.63098
2.0145	16.81824
2.015	22.05505
2.0155	21.24939
2.016	26.28479
2.0165	22.86072
2.017	19.13452
2.0175	35.14709
2.018	58.71277
2.0185	67.17224
2.019	66.06445
2.0195	54.68445
2.02	39.67896
2.0205	55.59082
2.021	72.00623
2.0215	70.19348
2.022	60.82764
2.0225	39.88037
2.023	18.42957
2.0235	0.70496
2.024	-13.797
2.0245	-21.14868
2.025	-24.87488
2.0255	-30.91736
2.026	-38.36975
2.0265	-37.16125
2.027	-36.25488
2.0275	7.75452
2.028	54.88586
2.0285	87.21313
2.029	93.25562
2.0295	79.86145
2.03	54.28162
2.0305	25.98267
2.031	0.30212
2.0315	-36.15417
2.032	-60.22339
2.0325	-73.11401
2.033	-73.61755
2.0335	-66.56799
2.034	-48.84338
2.0345	-35.2478
2.035	7.35168
2.0355	41.89453
2.036	49.54834
2.0365	70.49561
2.037	81.06995
2.0375	72.81189
2.038	39.77966
2.0385	-0.90637
2.039	-39.37683
2.0395	-71.7041
2.04	-89.12659
2.0405	-103.42712
2.041	-113.09509
2.0415	-102.52075
2.042	-75.53101
2.0425	7.65381
2.043	66.16516
2.0435	82.17773
2.044	73.01331
2.0445	45.82214
2.045	13.797
2.0455	-15.1062
2.046	-40.88745
2.0465	-50.15259
2.047	-54.38232
2.0475	-59.92126
2.048	-61.53259
2.0485	-58.71277
2.049	-52.771
2.0495	-36.75842
2.05	-20.04089
2.0505	-2.01416
2.051	9.36584
2.0515	28.50037
2.052	50.2533
2.0525	51.36108
2.053	50.05188
2.0535	44.11011
2.054	45.01648
2.0545	39.37683
2.055	36.75842
2.0555	37.66479
2.056	43.30444
2.0565	44.91577
2.057	31.82373
2.0575	26.18408
2.058	26.08337
2.0585	31.72302
2.059	38.36975
2.0595	25.47913
2.06	11.17859
2.0605	7.5531
2.061	-0.70496
2.0615	-14.50195
2.062	-19.53735
2.0625	-23.66638
2.063	-21.95435
2.0635	-11.17859
2.064	-8.35876
2.0645	-9.76868
2.065	-0.60425
2.0655	6.54602
2.066	10.17151
2.0665	22.25647
2.067	25.07629
2.0675	29.20532
2.068	19.13452
2.0685	20.84656
2.069	23.16284
2.0695	21.14868
2.07	26.98975
2.0705	12.5885
2.071	-6.14319
2.0715	-7.85522
2.072	7.45239
2.0725	16.91895
2.073	14.50195
2.0735	-0.60425
2.074	-8.7616
2.0745	-22.25647
2.075	-24.77417
2.0755	-33.23364
2.076	-32.42798
2.0765	-24.37134
2.077	-15.91187
2.0775	14.90479
2.078	58.71277
2.0785	74.72534
2.079	86.8103
2.0795	73.61755
2.08	48.94409
2.0805	23.8678
2.081	4.63257
2.0815	-0.20142
2.082	52.8717
2.0825	70.59631
2.083	48.74268
2.0835	20.1416
2.084	-1.10779
2.0845	-18.8324
2.085	-29.50745
2.0855	-5.0354
2.086	27.29187
2.0865	24.37134
2.087	2.11487
2.0875	-23.06213
2.088	-35.04639
2.0885	-46.02356
2.089	-57.20215
2.0895	-65.76233
2.09	-64.85596
2.0905	-43.00232
2.091	-20.24231
2.0915	2.61841
2.092	21.14868
2.0925	30.41382
2.093	24.06921
2.0935	9.36584
2.094	10.87646
2.0945	-3.12195
2.095	-9.46655
2.0955	-16.71753
2.096	-26.3855
2.0965	-20.84656
2.097	-14.60266
2.0975	-8.25806
2.098	-7.35168
2.0985	-9.86938
2.099	0.30212
2.0995	14.70337
2.1	17.52319
2.1005	15.60974
2.101	8.8623
2.1015	-5.84106
2.102	-6.74744
2.1025	-0.50354
2.103	53.77808
2.1035	131.92749
2.104	149.24927
2.1045	125.28076
2.105	76.03455
2.1055	7.65381
2.106	-68.88428
2.1065	-125.28076
2.107	-170.59937
2.1075	-182.98645
2.108	-183.08716
2.1085	-169.69299
2.109	-139.5813
2.1095	-90.13367
2.11	-27.29187
2.1105	19.73877
2.111	51.46179
2.1115	66.56799
2.112	82.07703
2.1125	83.38623
2.113	71.09985
2.1135	53.87878
2.114	38.67188
2.1145	34.44214
2.115	29.10461
2.1155	31.52161
2.116	16.91895
2.1165	-7.35168
2.117	-36.4563
2.1175	-53.57666
2.118	-60.52551
2.1185	-42.19666
2.119	-26.18408
2.1195	0.70496
2.12	23.46497
2.1205	33.13293
2.121	45.01648
2.1215	44.91577
2.122	37.86621
2.1225	41.29028
2.123	51.76392
2.1235	59.1156
2.124	56.09436
2.1245	52.67029
2.125	51.96533
2.1255	58.30994
2.126	54.38232
2.1265	58.61206
2.127	51.5625
2.1275	42.39807
2.128	25.37842
2.1285	9.56726
2.129	-4.73328
2.1295	-6.64673
2.13	-1.81274
2.1305	22.15576
2.131	36.4563
2.1315	45.11719
2.132	34.24072
2.1325	12.68921
2.133	-10.67505
2.1335	-21.75293
2.134	24.97559
2.1345	56.19507
2.135	57.00073
2.1355	47.33276
2.136	19.94019
2.1365	11.48071
2.137	70.29419
2.1375	105.34058
2.138	85.60181
2.1385	39.57825
2.139	3.7262
2.1395	19.63806
2.14	16.61682
2.1405	-14.30054
2.141	-44.31152
2.1415	-84.69543
2.142	-102.11792
2.1425	-116.922
2.143	-118.83545
2.1435	-118.83545
2.144	-121.35315
2.1445	-120.24536
2.145	-100.20447
2.1455	-80.96924
2.146	-50.45471
2.1465	-25.07629
2.147	-4.63257
2.1475	9.46655
2.148	24.16992
2.1485	28.80249
2.149	33.53577
2.1495	31.52161
2.15	41.18958
2.1505	74.32251
2.151	106.64978
2.1515	116.31775
2.152	116.72058
2.1525	100.30518
2.153	73.61755
2.1535	63.64746
2.154	47.33276
2.1545	22.6593
2.155	1.91345
2.1555	-21.95435
2.156	-36.85913
2.1565	-40.48462
2.157	-43.30444
2.1575	-36.75842
2.158	-28.70178
2.1585	-23.36426
2.159	-15.50903
2.1595	-26.28479
2.16	16.01257
2.1605	82.47986
2.161	110.37598
2.1615	96.17615
2.162	65.96375
2.1625	17.82532
2.163	6.3446
2.1635	16.61682
2.164	14.60266
2.1645	9.97009
2.165	-17.82532
2.1655	-50.55542
2.166	-61.02905
2.1665	-69.48853
2.167	-77.74658
2.1675	-95.26978
2.168	-104.93774
2.1685	-99.49951
2.169	-90.13367
2.1695	-76.23596
2.17	-59.1156
2.1705	-52.36816
2.171	-38.974
2.1715	-13.09204
2.172	2.41699
2.1725	16.21399
2.173	18.73169
2.1735	24.57275
2.174	26.78833
2.1745	33.03223
2.175	32.62939
2.1755	39.47754
2.176	47.8363
2.1765	44.91577
2.177	35.2478
2.1775	51.46179
2.178	53.37524
2.1785	49.95117
2.179	33.63647
2.1795	16.71753
2.18	-0.70496
2.1805	-9.56726
2.181	-9.06372
2.1815	-11.07788
2.182	-15.20691
2.1825	-13.19275
2.183	-17.6239
2.1835	-10.27222
2.184	4.22974
2.1845	18.53027
2.185	24.77417
2.1855	31.92444
2.186	42.7002
2.1865	44.31152
2.187	57.8064
2.1875	51.5625
2.188	53.77808
2.1885	50.65613
2.189	49.85046
2.1895	42.59949
2.19	40.88745
2.1905	27.39258
2.191	19.94019
2.1915	23.06213
2.192	20.94727
2.1925	1.40991
2.193	-15.40833
2.1935	-25.37842
2.194	-28.29895
2.1945	-35.85205
2.195	-34.64355
2.1955	18.12744
2.196	83.78906
2.1965	109.77173
2.197	104.73633
2.1975	89.02588
2.198	55.59082
2.1985	13.89771
2.199	-21.85364
2.1995	-56.79932
2.2	-74.42322
2.2005	-93.35632
2.201	-88.42163
2.2015	-71.7041
2.202	-61.6333
2.2025	-56.69861
2.203	-30.01099
2.2035	2.31628
2.204	12.18567
2.2045	28.9032
2.205	81.37207
2.2055	143.91174
2.206	156.29883
2.2065	139.07776
2.207	92.34924
2.2075	41.18958
2.208	6.54602
2.2085	-34.34143
2.209	-71.09985
2.2095	-92.65137
2.21	-107.85828
2.2105	-105.23987
2.211	-86.00464
2.2115	-58.41064
2.212	-40.08179
2.2125	-26.98975
2.213	-7.95593
2.2135	9.26514
2.214	16.41541
2.2145	24.16992
2.215	61.12976
2.2155	101.51367
2.216	105.23987
2.2165	83.78906
2.217	64.05029
2.2175	45.2179
2.218	35.44922
2.2185	15.81116
2.219	9.36584
2.2195	67.77649
2.22	106.75049
2.2205	92.65137
2.221	68.58215
2.2215	35.14709
2.222	10.57434
2.2225	-6.2439
2.223	-19.43665
2.2235	-29.91028
2.224	-38.77258
2.2245	-55.69153
2.225	-69.38782
2.2255	-73.41614
2.226	-69.58923
2.2265	-45.72144
2.227	18.8324
2.2275	57.70569
2.228	67.67578
2.2285	54.88586
2.229	29.60815
2.2295	1.00708
2.23	-31.01807
2.2305	-57.70569
2.231	-81.7749
2.2315	-100.10376
2.232	-95.47119
2.2325	-84.89685
2.233	-82.9834
2.2335	-54.28162
2.234	-17.22107
2.2345	23.26355
2.235	36.95984
2.2355	34.24072
2.236	22.86072
2.2365	10.97717
2.237	-7.25098
2.2375	-19.73877
2.238	-19.73877
2.2385	-17.22107
2.239	-14.60266
2.2395	-2.92053
2.24	6.3446
2.2405	0.20142
2.241	18.02673
2.2415	32.22656
2.242	37.46338
2.2425	20.24231
2.243	-6.3446
2.2435	-22.6593
2.244	-23.76709
2.2445	-13.99841
2.245	16.81824
2.2455	52.56958
2.246	75.93384
2.2465	73.11401
2.247	60.4248
2.2475	56.69861
2.248	45.52002
2.2485	34.94568
2.249	30.41382
2.2495	9.66797
2.25	-7.5531
2.2505	-21.3501
2.251	-35.2478
2.2515	-37.56409
2.252	-31.4209
2.2525	-15.00549
2.253	10.97717
2.2535	35.34851
2.254	54.38232
2.2545	50.45471
2.255	48.13843
2.2555	33.9386
2.256	15.71045
2.2565	6.14319
2.257	-7.15027
2.2575	-19.83948
2.258	-25.98267
2.2585	6.44531
2.259	83.88977
2.2595	154.18396
2.26	197.58911
2.2605	168.38379
2.261	100.80872
2.2615	32.42798
2.262	-15.00549
2.2625	-55.79224
2.263	-105.13916
2.2635	-146.83228
2.264	-180.36804
2.2645	-187.11548
2.265	-183.18787
2.2655	-160.62927
2.266	-128.50342
2.2665	-91.54358
2.267	-53.87878
2.2675	-25.98267
2.268	3.02124
2.2685	39.77966
2.269	65.46021
2.2695	73.41614
2.27	81.7749
2.2705	85.19897
2.271	91.24146
2.2715	69.08569
2.272	56.39648
2.2725	50.45471
2.273	49.0448
2.2735	51.76392
2.274	49.95117
2.2745	39.27612
2.275	22.86072
2.2755	4.22974
2.276	3.42407
2.2765	-1.2085
2.277	6.54602
2.2775	13.59558
2.278	12.18567
2.2785	12.18567
2.279	11.38
2.2795	41.79382
2.28	84.49402
2.2805	101.21155
2.281	90.5365
2.2815	63.34534
2.282	34.14001
2.2825	-4.12903
2.283	-26.48621
2.2835	-39.57825
2.284	-13.09204
2.2845	35.14709
2.285	55.49011
2.2855	41.99524
2.286	18.53027
2.2865	-12.08496
2.287	-43.60657
2.2875	-38.57117
2.288	-13.29346
2.2885	-5.13611
2.289	-18.12744
2.2895	-39.77966
2.29	-65.15808
2.2905	-73.91968
2.291	-86.10535
2.2915	-76.13525
2.292	-73.31543
2.2925	-65.46021
2.293	-65.56091
2.2935	-67.57507
2.294	-46.02356
2.2945	-15.71045
2.295	-1.00708
2.2955	6.3446
2.296	5.13611
2.2965	-2.11487
2.297	8.15735
2.2975	10.97717
2.298	40.38391
2.2985	53.27454
2.299	61.6333
2.2995	57.50427
2.3	46.42639
2.3005	35.54993
2.301	29.00391
2.3015	22.25647
2.302	10.57434
2.3025	-14.50195
2.303	-32.52869
2.3035	-44.91577
2.304	-37.96692
2.3045	-35.54993
2.305	-19.94019
2.3055	-4.22974
2.306	26.28479
2.3065	33.83789
2.307	22.45789
2.3075	13.89771
2.308	9.66797
2.3085	2.81982
2.309	2.21558
2.3095	0.70496
2.31	-5.53894
2.3105	-22.86072
2.311	-20.94727
2.3115	26.18408
2.312	74.82605
2.3125	87.91809
2.313	76.63879
2.3135	58.51135
2.314	47.33276
2.3145	38.47046
2.315	91.8457
2.3155	130.21545
2.316	123.16589
2.3165	90.73792
2.317	51.66321
2.3175	8.8623
2.318	-11.48071
2.3185	-13.49487
2.319	2.92053
2.3195	30.81665
2.32	69.1864
2.3205	78.25012
2.321	52.771
2.3215	18.63098
2.322	-23.36426
2.3225	-58.81348
2.323	-87.71667
2.3235	-97.88818
2.324	-117.52625
2.3245	-129.30908
2.325	-135.55298
2.3255	-126.28784
2.326	-92.65137
2.3265	-53.37524
2.327	-24.87488
2.3275	-2.71912
2.328	15.30762
2.3285	22.05505
2.329	26.58691
2.3295	34.03931
2.33	37.86621
2.3305	36.25488
2.331	26.78833
2.3315	12.18567
2.332	13.09204
2.3325	10.17151
2.333	51.5625
2.3335	86.10535
2.334	88.62305
2.3345	70.99915
2.335	43.80798
2.3355	17.52319
2.336	3.7262
2.3365	-9.56726
2.337	-28.60107
2.3375	-46.22498
2.338	-64.35242
2.3385	-72.9126
2.339	-68.68286
2.3395	-68.58215
2.34	-65.15808
2.3405	-60.52551
2.341	-55.99365
2.3415	-53.17383
2.342	-51.76392
2.3425	-42.39807
2.343	-32.42798
2.3435	-1.91345
2.344	13.59558
2.3445	20.64514
2.345	23.46497
2.3455	21.85364
2.346	20.1416
2.3465	14.30054
2.347	11.58142
2.3475	2.11487
2.348	-3.8269
2.3485	-8.7616
2.349	-8.96301
2.3495	0.80566
2.35	14.70337
2.3505	13.99841
2.351	13.797
2.3515	21.45081
2.352	25.68054
2.3525	15.81116
2.353	29.70886
2.3535	61.02905
2.354	78.65295
2.3545	95.06836
2.355	154.88892
2.3555	168.4845
2.356	136.25793
2.3565	96.37756
2.357	54.98657
2.3575	16.91895
2.358	-24.97559
2.3585	-55.49011
2.359	-63.84888
2.3595	-73.61755
2.36	-80.16357
2.3605	-73.91968
2.361	-51.36108
2.3615	-29.30603
2.362	6.2439
2.3625	77.948
2.363	146.63086
2.3635	158.31299
2.364	117.22412
2.3645	44.0094
2.365	-23.76709
2.3655	-79.55933
2.366	-116.72058
2.3665	-147.43652
2.367	-149.34998
2.3675	-148.14148
2.368	-130.01404
2.3685	-108.66394
2.369	-85.29968
2.3695	-76.23596
2.37	-64.35242
2.3705	-44.31152
2.371	-25.07629
2.3715	-25.78125
2.372	-1.91345
2.3725	72.9126
2.373	137.66785
2.3735	174.62769
2.374	178.65601
2.3745	161.73706
2.375	127.59705
2.3755	91.24146
2.376	62.8418
2.3765	27.89612
2.377	-0.10071
2.3775	-17.42249
2.378	-21.75293
2.3785	-10.77576
2.379	14.19983
2.3795	33.53577
2.38	35.14709
2.3805	41.4917
2.381	34.54285
2.3815	42.49878
2.382	40.1825
2.3825	40.2832
2.383	42.09595
2.3835	38.16833
2.384	34.74426
2.3845	38.974
2.385	41.79382
2.3855	35.2478
2.386	24.37134
2.3865	16.21399
2.387	-2.31628
2.3875	-17.42249
2.388	-42.49878
2.3885	-26.88904
2.389	6.3446
2.3895	70.59631
2.39	121.05103
2.3905	105.54199
2.391	83.48694
2.3915	78.35083
2.392	52.36816
2.3925	15.30762
2.393	-34.03931
2.3935	-75.32959
2.394	-116.82129
2.3945	-138.77563
2.395	-153.17688
2.3955	-160.72998
2.396	-152.27051
2.3965	-138.97705
2.397	-117.22412
2.3975	-97.48535
2.398	-65.3595
2.3985	-39.27612
2.399	-21.04797
2.3995	-6.84814
2.4	-1.51062
2.4005	6.44531
2.401	11.58142
2.4015	26.68762
2.402	30.81665
2.4025	33.9386
2.403	45.72144
2.4035	47.43347
2.404	42.19666
2.4045	34.44214
2.405	24.57275
2.4055	14.80408
2.406	12.89062
2.4065	-2.61841
2.407	-17.42249
2.4075	-24.37134
2.408	-18.32886
2.4085	-19.13452
2.409	-22.45789
2.4095	-7.15027
2.41	9.16443
2.4105	13.99841
2.411	15.71045
2.4115	28.50037
2.412	44.0094
2.4125	59.31702
2.413	61.33118
2.4135	62.13684
2.414	127.39563
2.4145	196.78345
2.415	259.52454
2.4155	271.00525
2.416	237.26807
2.4165	184.39636
2.417	109.67102
2.4175	42.90161
2.418	-12.78992
2.4185	-62.13684
2.419	-98.19031
2.4195	-107.05261
2.42	-118.2312
2.4205	-112.99438
2.421	-98.79456
2.4215	-87.41455
2.422	-80.56641
2.4225	-87.81738
2.423	-78.14941
2.4235	-48.44055
2.424	7.5531
2.4245	66.36658
2.425	96.17615
2.4255	89.73083
2.426	49.0448
2.4265	-14.70337
2.427	-65.76233
2.4275	-69.1864
2.428	-60.82764
2.4285	-57.9071
2.429	-64.55383
2.4295	-72.61047
2.43	-69.99207
2.4305	-56.09436
2.431	-42.90161
2.4315	-36.35559
2.432	-26.28479
2.4325	-27.39258
2.433	-22.55859
2.4335	-3.7262
2.434	15.60974
2.4345	30.41382
2.435	39.27612
2.4355	53.17383
2.436	47.8363
2.4365	41.18958
2.437	32.42798
2.4375	20.54443
2.438	25.88196
2.4385	26.88904
2.439	23.46497
2.4395	18.93311
2.44	15.71045
2.4405	13.19275
2.441	9.16443
2.4415	4.73328
2.442	9.66797
2.4425	6.44531
2.443	12.08496
2.4435	5.13611
2.444	-3.62549
2.4445	-7.65381
2.445	25.177
2.4455	53.87878
2.446	57.60498
2.4465	52.36816
2.447	30.51453
2.4475	10.87646
2.448	-3.7262
2.4485	-19.43665
2.449	-28.09753
2.4495	-28.50037
2.45	-8.7616
2.4505	13.39417
2.451	40.1825
2.4515	58.91418
2.452	53.37524
2.4525	46.62781
2.453	31.72302
2.4535	9.97009
2.454	-10.17151
2.4545	-25.98267
2.455	-35.65063
2.4555	-40.1825
2.456	-42.09595
2.4565	-44.91577
2.457	-44.81506
2.4575	-40.78674
2.458	-29.20532
2.4585	-22.15576
2.459	-19.03381
2.4595	-12.38708
2.46	50.45471
2.4605	117.02271
2.461	125.18005
2.4615	171.20361
2.462	185.20203
2.4625	153.07617
2.463	101.31226
2.4635	47.93701
2.464	-12.68921
2.4645	-62.64038
2.465	-104.03137
2.4655	-132.93457
2.466	-142.40112
2.4665	-137.66785
2.467	-129.00696
2.4675	-105.13916
2.468	-61.02905
2.4685	-12.28638
2.469	22.86072
2.4695	38.47046
2.47	36.95984
2.4705	45.3186
2.471	45.92285
2.4715	48.94409
2.472	84.09119
2.4725	103.02429
2.473	90.5365
2.4735	62.33826
2.474	30.11169
2.4745	-0.10071
2.475	-31.32019
2.4755	-51.86462
2.476	-61.83472
2.4765	-70.49561
2.477	-73.01331
2.4775	-66.26587
2.478	-75.4303
2.4785	-65.46021
2.479	-41.99524
2.4795	-21.85364
2.48	0.70496
2.4805	0.30212
2.481	-13.89771
2.4815	-38.87329
2.482	-67.27295
2.4825	-87.71667
2.483	-73.61755
2.4835	-0.30212
2.484	41.4917
2.4845	85.60181
2.485	126.58997
2.4855	133.94165
2.486	120.04395
2.4865	94.66553
2.487	66.46729
2.4875	27.39258
2.488	2.01416
2.4885	-18.12744
2.489	-28.60107
2.4895	-34.54285
2.49	-28.09753
2.4905	-4.93469
2.491	8.45947
2.4915	17.6239
2.492	31.52161
2.4925	31.01807
2.493	28.09753
2.4935	29.60815
2.494	74.2218
2.4945	110.57739
2.495	117.92908
2.4955	97.88818
2.496	82.37915
2.4965	74.2218
2.497	95.97473
2.4975	77.24304
2.498	38.87329
2.4985	-10.0708
2.499	-55.99365
2.4995	-90.83862
2.5	-121.75598
2.5005	-136.66077
2.501	-143.3075
2.5015	-131.22253
2.502	-118.53333
2.5025	-104.13208
2.503	-82.58057
2.5035	-45.3186
2.504	-1.61133
2.5045	23.36426
2.505	40.1825
2.5055	34.54285
2.506	24.77417
2.5065	20.54443
2.507	11.48071
2.5075	17.22107
2.508	16.3147
2.5085	26.48621
2.509	44.31152
2.5095	89.63013
2.51	174.52698
2.5105	200.30823
2.511	190.74097
2.5115	160.32715
2.512	107.85828
2.5125	61.43188
2.513	3.42407
2.5135	-33.53577
2.514	-73.81897
2.5145	-87.51526
2.515	-91.04004
2.5155	-58.20923
2.516	-32.62939
2.5165	-18.22815
2.517	28.60107
2.5175	100.6073
2.518	111.58447
2.5185	78.45154
2.519	41.99524
2.5195	-1.81274
2.52	-33.9386
2.5205	-63.64746
2.521	-85.80322
2.5215	-93.85986
2.522	-86.20605
2.5225	-70.99915
2.523	-59.21631
2.5235	-33.33435
2.524	-12.18567
2.5245	-4.02832
2.525	-0.70496
2.5255	-2.92053
2.526	-0.10071
2.5265	4.93469
2.527	4.63257
2.5275	16.51611
2.528	15.1062
2.5285	24.06921
2.529	23.66638
2.5295	16.51611
2.53	0
2.5305	-17.12036
2.531	-34.54285
2.5315	-42.90161
2.532	-49.24622
2.5325	-61.12976
2.533	-61.83472
2.5335	-69.99207
2.534	-76.63879
2.5345	-93.96057
2.535	-94.2627
2.5355	-72.10693
2.536	-41.39099
2.5365	-23.96851
2.537	-14.19983
2.5375	-8.56018
2.538	-13.29346
2.5385	-0.40283
2.539	9.16443
2.5395	20.84656
2.54	30.11169
2.5405	38.16833
2.541	103.52783
2.5415	151.76697
2.542	160.02502
2.5425	148.04077
2.543	117.72766
2.5435	121.75598
2.544	147.33582
2.5445	132.12891
2.545	81.27136
2.5455	37.36267
2.546	-2.21558
2.5465	-16.51611
2.547	-34.54285
2.5475	-12.48779
2.548	-2.81982
2.5485	-10.77576
2.549	-24.67346
2.5495	-36.35559
2.55	-48.23914
2.5505	-60.52551
2.551	-52.56958
2.5515	-53.07312
2.552	-54.48303
2.5525	-57.60498
2.553	-46.92993
2.5535	-28.70178
2.554	55.08728
2.5545	131.32324
2.555	158.81653
2.5555	134.64661
2.556	92.55066
2.5565	48.13843
2.557	12.68921
2.5575	-16.01257
2.558	-46.22498
2.5585	-58.81348
2.559	-71.09985
2.5595	-60.4248
2.56	-47.53418
2.5605	-41.18958
2.561	-33.43506
2.5615	20.04089
2.562	78.14941
2.5625	100.80872
2.563	92.14783
2.5635	76.53809
2.564	50.05188
2.5645	16.71753
2.565	-16.21399
2.5655	-43.90869
2.566	-25.98267
2.5665	39.67896
2.567	48.23914
2.5675	29.00391
2.568	11.07788
2.5685	-18.32886
2.569	-28.50037
2.5695	-55.59082
2.57	-72.71118
2.5705	-77.64587
2.571	-93.55774
2.5715	-104.13208
2.572	-111.28235
2.5725	-92.44995
2.573	-68.28003
2.5735	-42.39807
2.574	-20.1416
2.5745	3.62549
2.575	27.39258
2.5755	52.771
2.576	69.28711
2.5765	75.83313
2.577	67.67578
2.5775	65.25879
2.578	89.52942
2.5785	96.7804
2.579	92.85278
2.5795	85.60181
2.58	65.25879
2.5805	50.55542
2.581	33.63647
2.5815	15.50903
2.582	-11.78284
2.5825	-40.08179
2.583	-54.98657
2.5835	-55.08728
2.584	-40.78674
2.5845	-37.06055
2.585	-47.23206
2.5855	-50.65613
2.586	-56.09436
2.5865	-67.07153
2.587	-69.28711
2.5875	-78.14941
2.588	-89.73083
2.5885	-82.17773
2.589	-68.28003
2.5895	-59.1156
2.59	-52.46887
2.5905	-47.7356
2.591	-31.52161
2.5915	-9.26514
2.592	8.96301
2.5925	47.63489
2.593	106.54907
2.5935	135.04944
2.594	126.48926
2.5945	101.51367
2.595	62.13684
2.5955	26.3855
2.596	15.20691
2.5965	26.58691
2.597	33.33435
2.5975	22.15576
2.598	-2.5177
2.5985	-21.65222
2.599	-25.47913
2.5995	-31.62231
2.6	-29.40674
2.6005	-7.15027
2.601	9.86938
2.6015	16.91895
2.602	27.09045
2.6025	101.9165
2.603	163.24768
2.6035	174.42627
2.604	149.34998
2.6045	109.06677
2.605	130.31616
2.6055	132.63245
2.606	89.93225
2.6065	37.06055
2.607	-25.07629
2.6075	-70.79773
2.608	-120.54749
2.6085	-148.64502
2.609	-162.54272
2.6095	-146.12732
2.61	-132.63245
2.6105	-113.29651
2.611	-89.93225
2.6115	-74.72534
2.612	-60.3241
2.6125	-42.7002
2.613	-27.09045
2.6135	7.85522
2.614	37.06055
2.6145	51.46179
2.615	53.07312
2.6155	42.7002
2.616	46.62781
2.6165	44.31152
2.617	44.71436
2.6175	38.77258
2.618	13.99841
2.6185	-7.04956
2.619	-23.06213
2.6195	-31.32019
2.62	-36.65771
2.6205	36.65771
2.621	95.97473
2.6215	107.45544
2.622	81.27136
2.6225	67.67578
2.623	40.58533
2.6235	17.92603
2.624	6.54602
2.6245	29.40674
2.625	40.2832
2.6255	30.51453
2.626	4.93469
2.6265	-8.96301
2.627	-16.41541
2.6275	-14.30054
2.628	-33.33435
2.6285	-49.24622
2.629	-57.70569
2.6295	-65.66162
2.63	-76.84021
2.6305	-75.22888
2.631	-75.93384
2.6315	-63.34534
2.632	-58.20923
2.6325	-41.79382
2.633	-24.77417
2.6335	-8.8623
2.634	11.38
2.6345	16.3147
2.635	26.68762
2.6355	32.62939
2.636	19.43665
2.6365	-11.48071
2.637	-30.71594
2.6375	-17.12036
2.638	-11.07788
2.6385	33.13293
2.639	67.77649
2.6395	82.17773
2.64	78.35083
2.6405	79.76074
2.641	81.57349
2.6415	97.58606
2.642	107.25403
2.6425	93.45703
2.643	71.40198
2.6435	39.77966
2.644	20.24231
2.6445	16.21399
2.645	12.48779
2.6455	10.77576
2.646	12.99133
2.6465	60.3241
2.647	95.06836
2.6475	94.86694
2.648	68.88428
2.6485	32.62939
2.649	-1.71204
2.6495	-31.92444
2.65	-61.53259
2.6505	-75.4303
2.651	-93.15491
2.6515	-97.58606
2.652	-92.55066
2.6525	-89.328
2.653	-77.948
2.6535	-59.92126
2.654	-40.98816
2.6545	-24.57275
2.655	-7.15027
2.6555	6.84814
2.656	35.54993
2.6565	106.8512
2.657	143.91174
2.6575	145.8252
2.658	139.5813
2.6585	112.28943
2.659	58.81348
2.6595	10.17151
2.66	-33.83789
2.6605	-17.22107
2.661	-5.43823
2.6615	-23.06213
2.662	-57.40356
2.6625	-89.63013
2.663	-115.20996
2.6635	-129.61121
2.664	-123.36731
2.6645	-118.13049
2.665	-115.61279
2.6655	-112.79297
2.666	-94.16199
2.6665	-5.33752
2.667	61.53259
2.6675	76.03455
2.668	91.04004
2.6685	127.99988
2.669	123.36731
2.6695	106.24695
2.67	77.44446
2.6705	58.91418
2.671	32.32727
2.6715	27.6947
2.672	15.20691
2.6725	-2.61841
2.673	-30.91736
2.6735	-20.34302
2.674	-16.3147
2.6745	-27.59399
2.675	-27.49329
2.6755	-39.67896
2.676	-47.8363
2.6765	-33.13293
2.677	-23.36426
2.6775	-27.99683
2.678	-26.98975
2.6785	-24.27063
2.679	-19.43665
2.6795	-21.24939
2.68	-29.70886
2.6805	-37.56409
2.681	-39.57825
2.6815	-23.06213
2.682	20.1416
2.6825	50.45471
2.683	61.02905
2.6835	66.56799
2.684	60.52551
2.6845	52.97241
2.685	33.23364
2.6855	54.68445
2.686	60.12268
2.6865	59.51843
2.687	56.39648
2.6875	61.02905
2.688	50.95825
2.6885	27.29187
2.689	5.74036
2.6895	-1.71204
2.69	-21.3501
2.6905	-19.63806
2.691	-4.83398
2.6915	38.16833
2.692	70.59631
2.6925	86.00464
2.693	86.91101
2.6935	76.33667
2.694	57.10144
2.6945	47.7356
2.695	27.39258
2.6955	-14.19983
2.696	-55.59082
2.6965	-71.90552
2.697	-76.7395
2.6975	-70.09277
2.698	-47.8363
2.6985	-39.67896
2.699	-35.95276
2.6995	-30.61523
2.7	-26.18408
2.7005	16.41541
2.701	42.49878
2.7015	43.60657
2.702	31.62231
2.7025	10.37292
2.703	38.87329
2.7035	124.97864
2.704	157.10449
2.7045	133.94165
2.705	72.40906
2.7055	8.66089
2.706	-48.64197
2.7065	-106.24695
2.707	-152.77405
2.7075	-174.72839
2.708	-147.23511
2.7085	-75.53101
2.709	-35.54993
2.7095	-13.09204
2.71	-0.90637
2.7105	1.00708
2.711	2.21558
2.7115	9.16443
2.712	0
2.7125	7.65381
2.713	-1.10779
2.7135	-6.94885
2.714	-27.09045
2.7145	-32.93152
2.715	-26.08337
2.7155	3.32336
2.716	30.71594
2.7165	54.68445
2.717	65.76233
2.7175	49.54834
2.718	36.4563
2.7185	26.3855
2.719	24.87488
2.7195	32.32727
2.72	65.25879
2.7205	133.94165
2.721	149.6521
2.7215	118.02979
2.722	80.56641
2.7225	39.98108
2.723	11.38
2.7235	-18.8324
2.724	-29.20532
2.7245	-36.05347
2.725	-51.76392
2.7255	-55.3894
2.726	-48.03772
2.7265	-44.21082
2.727	-38.06763
2.7275	-32.12585
2.728	-22.05505
2.7285	-22.96143
2.729	-22.55859
2.7295	-22.76001
2.73	-26.88904
2.7305	-30.01099
2.731	-35.75134
2.7315	-26.58691
2.732	-12.5885
2.7325	-5.84106
2.733	-0.90637
2.7335	2.81982
2.734	14.09912
2.7345	14.90479
2.735	14.80408
2.7355	6.54602
2.736	-20.54443
2.7365	-53.27454
2.737	-71.30127
2.7375	-89.12659
2.738	-92.75208
2.7385	-92.44995
2.739	-80.26428
2.7395	-60.02197
2.74	-41.79382
2.7405	-24.47205
2.741	-8.05664
2.7415	2.41699
2.742	26.28479
2.7425	39.77966
2.743	50.65613
2.7435	67.77649
2.744	78.14941
2.7445	82.88269
2.745	77.54517
2.7455	66.36658
2.746	92.95349
2.7465	139.37988
2.747	138.47351
2.7475	121.35315
2.748	87.41455
2.7485	99.49951
2.749	132.0282
2.7495	145.52307
2.75	137.0636
2.7505	91.34216
2.751	39.07471
2.7515	-13.29346
2.752	-55.69153
2.7525	-78.04871
2.753	-101.41296
2.7535	-112.69226
2.754	-79.66003
2.7545	-57.70569
2.755	-51.5625
2.7555	-37.46338
2.756	-22.05505
2.7565	-9.86938
2.757	5.43823
2.7575	17.72461
2.758	21.95435
2.7585	25.37842
2.759	25.68054
2.7595	15.91187
2.76	1.51062
2.7605	-5.43823
2.761	-5.63965
2.7615	43.00232
2.762	80.36499
2.7625	93.15491
2.763	82.27844
2.7635	74.42322
2.764	56.90002
2.7645	40.78674
2.765	57.9071
2.7655	142.90466
2.766	167.77954
2.7665	137.0636
2.767	78.25012
2.7675	20.44373
2.768	-27.59399
2.7685	-60.22339
2.769	-99.3988
2.7695	-143.81104
2.77	-177.64893
2.7705	-190.94238
2.771	-194.56787
2.7715	-180.77087
2.772	-163.14697
2.7725	-112.39014
2.773	-59.01489
2.7735	-35.54993
2.774	-21.04797
2.7745	-4.53186
2.775	11.88354
2.7755	32.52869
2.776	62.64038
2.7765	111.48376
2.777	150.25635
2.7775	150.25635
2.778	121.75598
2.7785	101.71509
2.779	74.42322
2.7795	40.98816
2.78	28.39966
2.7805	6.64673
2.781	-14.80408
2.7815	-30.2124
2.782	-41.79382
2.7825	-46.02356
2.783	-33.73718
2.7835	-23.06213
2.784	-7.5531
2.7845	17.01965
2.785	35.54993
2.7855	51.66321
2.786	49.34692
2.7865	38.57117
2.787	82.9834
2.7875	113.80005
2.788	91.745
2.7885	64.85596
2.789	30.51453
2.7895	4.63257
2.79	-17.42249
2.7905	-40.78674
2.791	-65.05737
2.7915	-86.40747
2.792	-96.57898
2.7925	-87.91809
2.793	-77.74658
2.7935	-65.56091
2.794	-53.77808
2.7945	-35.44922
2.795	-0.70496
2.7955	65.05737
2.796	109.3689
2.7965	124.27368
2.797	91.44287
2.7975	64.75525
2.798	35.95276
2.7985	2.61841
2.799	-22.76001
2.7995	-51.96533
2.8	-62.33826
2.8005	-60.4248
2.801	-51.46179
2.8015	-22.45789
2.802	29.40674
2.8025	51.26038
2.803	52.56958
2.8035	49.54834
2.804	35.44922
2.8045	64.65454
2.805	86.70959
2.8055	88.42163
2.806	63.24463
2.8065	20.64514
2.807	-7.15027
2.8075	-15.00549
2.808	-34.24072
2.8085	-63.44604
2.809	-47.8363
2.8095	-3.32336
2.81	2.5177
2.8105	-39.67896
2.811	-89.83154
2.8115	-86.70959
2.812	-65.56091
2.8125	-74.42322
2.813	-91.24146
2.8135	-109.26819
2.814	-130.51758
2.8145	-86.40747
2.815	-2.01416
2.8155	49.44763
2.816	149.04785
2.8165	251.77002
2.817	281.88171
2.8175	249.15161
2.818	197.18628
2.8185	117.42554
2.819	29.60815
2.8195	-53.37524
2.82	-100.90942
2.8205	-138.57422
2.821	-156.29883
2.8215	-151.76697
2.822	-136.66077
2.8225	-121.45386
2.823	-89.02588
2.8235	-57.9071
2.824	-30.31311
2.8245	-6.2439
2.825	8.66089
2.8255	38.87329
2.826	46.12427
2.8265	41.69312
2.827	38.36975
2.8275	140.78979
2.828	244.82117
2.8285	282.9895
2.829	258.01392
2.8295	180.46875
2.83	92.65137
2.8305	11.2793
2.831	-56.09436
2.8315	-110.37598
2.832	-137.26501
2.8325	-163.95264
2.833	-164.35547
2.8335	-146.93298
2.834	-113.39722
2.8345	-83.18481
2.835	-63.24463
2.8355	-56.29578
2.836	-36.85913
2.8365	-22.96143
2.837	-16.61682
2.8375	-17.12036
2.838	-16.01257
2.8385	-3.52478
2.839	8.05664
2.8395	16.01257
2.84	14.70337
2.8405	20.24231
2.841	27.19116
2.8415	34.54285
2.842	26.68762
2.8425	17.32178
2.843	-1.10779
2.8435	2.5177
2.844	1.00708
2.8445	86.40747
2.845	164.35547
2.8455	204.43726
2.846	241.69922
2.8465	248.24524
2.847	203.12805
2.8475	138.57422
2.848	146.83228
2.8485	164.95972
2.849	125.28076
2.8495	70.09277
2.85	16.11328
2.8505	-41.4917
2.851	-106.9519
2.8515	-154.08325
2.852	-166.16821
2.8525	-113.80005
2.853	-78.25012
2.8535	-77.64587
2.854	-81.47278
2.8545	-92.85278
2.855	-94.56482
2.8555	-111.8866
2.856	-131.52466
2.8565	-132.53174
2.857	-111.48376
2.8575	-107.55615
2.858	-101.21155
2.8585	-67.47437
2.859	-18.42957
2.8595	6.64673
2.86	23.66638
2.8605	31.4209
2.861	20.1416
2.8615	16.81824
2.862	57.8064
2.8625	71.40198
2.863	65.15808
2.8635	53.57666
2.864	65.86304
2.8645	50.65613
2.865	25.78125
2.8655	68.88428
2.866	107.25403
2.8665	83.78906
2.867	25.78125
2.8675	-27.49329
2.868	-88.52234
2.8685	-141.39404
2.869	-173.82202
2.8695	-193.76221
2.87	-199.09973
2.8705	-200.20752
2.871	-182.08008
2.8715	-146.22803
2.872	-44.81506
2.8725	37.56409
2.873	97.68677
2.8735	140.8905
2.874	164.45618
2.8745	178.65601
2.875	161.23352
2.8755	133.63953
2.876	110.07385
2.8765	73.41614
2.877	35.04639
2.8775	8.05664
2.878	-10.0708
2.8785	-22.6593
2.879	-30.91736
2.8795	-22.55859
2.88	-15.40833
2.8805	-16.11328
2.881	-5.84106
2.8815	14.30054
2.882	24.87488
2.8825	95.16907
2.883	165.36255
2.8835	188.32397
2.884	164.35547
2.8845	128.20129
2.885	76.84021
2.8855	34.64355
2.886	-1.51062
2.8865	-17.82532
2.887	-27.49329
2.8875	-22.05505
2.888	-23.06213
2.8885	-17.01965
2.889	-18.22815
2.8895	-22.86072
2.89	-23.46497
2.8905	20.54443
2.891	93.35632
2.8915	155.79529
2.892	217.42859
2.8925	219.54346
2.893	178.65601
2.8935	131.22253
2.894	119.54041
2.8945	159.62219
2.895	147.94006
2.8955	39.67896
2.896	-52.06604
2.8965	-115.20996
2.897	-169.39087
2.8975	-210.58044
2.898	-237.16736
2.8985	-251.06506
2.899	-260.02808
2.8995	-192.55371
2.9	-147.1344
2.9005	-140.08484
2.901	-187.31689
2.9015	-151.46484
2.902	-72.10693
2.9025	-39.67896
2.903	-28.80249
2.9035	-23.46497
2.904	-16.41541
2.9045	-18.93311
2.905	-20.54443
2.9055	-25.98267
2.906	-63.14392
2.9065	-79.76074
2.907	-69.28711
2.9075	-37.7655
2.908	-19.73877
2.9085	-7.95593
2.909	-16.21399
2.9095	-25.57983
2.91	12.48779
2.9105	47.33276
2.911	57.20215
2.9115	68.68286
2.912	64.55383
2.9125	38.26904
2.913	26.78833
2.9135	16.41541
2.914	3.62549
2.9145	-7.95593
2.915	-19.23523
2.9155	-36.75842
2.916	-48.84338
2.9165	-3.92761
2.917	163.04626
2.9175	302.22473
2.918	345.22705
2.9185	324.17908
2.919	281.27747
2.9195	206.25
2.92	136.66077
2.9205	63.14392
2.921	22.76001
2.9215	10.77576
2.922	-21.3501
2.9225	-74.92676
2.923	-120.54749
2.9235	-161.13281
2.924	-181.87866
2.9245	-180.26733
2.925	-170.59937
2.9255	-120.95032
2.926	-92.44995
2.9265	-57.20215
2.927	-33.73718
2.9275	-17.52319
2.928	4.02832
2.9285	18.8324
2.929	75.02747
2.9295	115.61279
2.93	159.62219
2.9305	213.90381
2.931	207.05566
2.9315	164.95972
2.932	106.44836
2.9325	70.29419
2.933	33.43506
2.9335	-9.26514
2.934	-34.84497
2.9345	-65.56091
2.935	-81.7749
2.9355	-54.18091
2.936	-13.69629
2.9365	-9.76868
2.937	-27.59399
2.9375	10.67505
2.938	106.64978
2.9385	141.19263
2.939	114.505
2.9395	34.64355
2.94	-55.69153
2.9405	-136.76147
2.941	-216.01868
2.9415	-266.97693
2.942	-291.14685
2.9425	-278.15552
2.943	-244.92188
2.9435	-202.02026
2.944	-152.1698
2.9445	-106.04553
2.945	-61.73401
2.9455	-13.89771
2.946	30.01099
2.9465	55.99365
2.947	83.58765
2.9475	112.99438
2.948	126.89209
2.9485	115.61279
2.949	82.37915
2.9495	61.02905
2.95	51.86462
2.9505	47.03064
2.951	48.33984
2.9515	71.90552
2.952	86.30676
2.9525	90.03296
2.953	65.05737
2.9535	34.54285
2.954	15.60974
2.9545	15.60974
2.955	37.7655
2.9555	46.72852
2.956	61.02905
2.9565	79.05579
2.957	109.97314
2.9575	120.44678
2.958	122.86377
2.9585	126.28784
2.959	133.84094
2.9595	120.04395
2.96	87.91809
2.9605	37.16125
2.961	38.47046
2.9615	187.92114
2.962	238.57727
2.9625	207.5592
2.963	150.8606
2.9635	102.82288
2.964	66.87012
2.9645	34.84497
2.965	2.81982
2.9655	-43.60657
2.966	-104.23279
2.9665	-146.02661
2.967	-185.50415
2.9675	-203.12805
2.968	-221.15479
2.9685	-207.65991
2.969	-189.73389
2.9695	-158.81653
2.97	-128.80554
2.9705	-103.125
2.971	-16.01257
2.9715	73.41614
2.972	70.99915
2.9725	38.974
2.973	13.99841
2.9735	-9.97009
2.974	-34.54285
2.9745	-47.93701
2.975	-8.25806
2.9755	2.61841
2.976	-1.3092
2.9765	17.52319
2.977	12.99133
2.9775	-25.78125
2.978	-64.75525
2.9785	-96.37756
2.979	-115.00854
2.9795	-125.68359
2.98	-124.17297
2.9805	-97.38464
2.981	-69.1864
2.9815	-46.42639
2.982	-34.84497
2.9825	-22.76001
2.983	-25.37842
2.9835	-13.69629
2.984	64.95667
2.9845	106.8512
2.985	101.21155
2.9855	138.77563
2.986	151.86768
2.9865	146.73157
2.987	124.57581
2.9875	81.7749
2.988	25.177
2.9885	-43.80798
2.989	-82.07703
2.9895	-92.34924
2.99	-101.41296
2.9905	-105.34058
2.991	-131.52466
2.9915	-128.90625
2.992	-73.11401
2.9925	-3.7262
2.993	54.78516
2.9935	77.84729
2.994	57.40356
2.9945	24.37134
2.995	-0.70496
2.9955	-25.88196
2.996	-46.32568
2.9965	-46.32568
2.997	-58.81348
2.9975	-60.72693
2.998	-41.39099
2.9985	-9.97009
2.999	12.38708
2.9995	119.74182
3	228.30505
3.0005	262.64648
3.001	246.13037
3.0015	228.20435
3.002	236.56311
3.0025	253.88489
3.003	225.18311
3.0035	168.78662
3.004	102.92358
3.0045	33.43506
3.005	-20.64514
3.0055	-70.79773
3.006	-109.16748
3.0065	-124.87793
3.007	-127.19421
3.0075	-130.51758
3.008	-148.24219
3.0085	-165.56396
3.009	-187.11548
3.0095	-181.57654
3.01	-153.88184
3.0105	-118.2312
3.011	-90.63721
3.0115	-62.33826
3.012	-47.33276
3.0125	-31.62231
3.013	-18.12744
3.0135	-18.02673
3.014	-37.16125
3.0145	-25.07629
3.015	18.8324
3.0155	37.86621
3.016	25.68054
3.0165	17.32178
3.017	2.01416
3.0175	-9.16443
3.018	-11.48071
3.0185	-40.1825
3.019	-58.30994
3.0195	-74.52393
3.02	-104.63562
3.0205	-103.52783
3.021	-62.8418
3.0215	93.15491
3.022	262.24365
3.0225	420.35522
3.023	472.8241
3.0235	424.18213
3.024	413.30566
3.0245	333.64563
3.025	211.08398
3.0255	67.8772
3.026	-92.14783
3.0265	-226.59302
3.027	-306.05164
3.0275	-350.16174
3.028	-368.18848
3.0285	-351.87378
3.029	-309.27429
3.0295	-252.87781
3.03	-181.073
3.0305	-123.36731
3.031	-78.14941
3.0315	-56.29578
3.032	-40.2832
3.0325	-41.18958
3.033	-28.19824
3.0335	24.37134
3.034	193.35938
3.0345	368.69202
3.035	450.86975
3.0355	436.3678
3.036	404.74548
3.0365	333.64563
3.037	247.7417
3.0375	158.61511
3.038	84.2926
3.0385	61.53259
3.039	33.33435
3.0395	-5.94177
3.04	-39.27612
3.0405	-70.59631
3.041	-106.24695
3.0415	-126.18713
3.042	-160.52856
3.0425	-206.85425
3.043	-229.71497
3.0435	-218.43567
3.044	-212.09106
3.0445	-199.40186
3.045	-165.86609
3.0455	-130.61829
3.046	-86.70959
3.0465	-21.65222
3.047	36.25488
3.0475	61.53259
3.048	55.69153
3.0485	59.41772
3.049	50.85754
3.0495	54.78516
3.05	50.85754
3.0505	63.54675
3.051	54.98657
3.0515	42.59949
3.052	43.10303
3.0525	51.05896
3.053	182.88574
3.0535	221.3562
3.054	184.09424
3.0545	131.92749
3.055	79.15649
3.0555	39.47754
3.056	30.61523
3.0565	5.0354
3.057	-56.79932
3.0575	-115.61279
3.058	-139.17847
3.0585	-100.00305
3.059	-67.37366
3.0595	-80.76782
3.06	-111.58447
3.0605	-118.83545
3.061	-123.06519
3.0615	-144.21387
3.062	-131.92749
3.0625	-102.01721
3.063	-93.65845
3.0635	-94.2627
3.064	-77.34375
3.0645	-20.44373
3.065	41.4917
3.0655	53.17383
3.066	29.40674
3.0665	-0.70496
3.067	55.89294
3.0675	74.32251
3.068	22.15576
3.0685	-54.68445
3.069	-107.55615
3.0695	-110.6781
3.07	-27.39258
3.0705	22.76001
3.071	59.21631
3.0715	53.57666
3.072	30.41382
3.0725	-6.74744
3.073	-26.58691
3.0735	-56.49719
3.074	-75.63171
3.0745	-69.89136
3.075	-55.3894
3.0755	-26.3855
3.076	-1.51062
3.0765	4.53186
3.077	8.7616
3.0775	18.02673
3.078	34.74426
3.0785	41.99524
3.079	50.354
3.0795	56.19507
3.08	67.47437
3.0805	135.55298
3.081	173.82202
3.0815	159.01794
3.082	177.95105
3.0825	282.38525
3.083	288.93127
3.0835	238.9801
3.084	179.26025
3.0845	127.29492
3.085	75.63171
3.0855	87.61597
3.086	123.77014
3.0865	105.44128
3.087	67.77649
3.0875	61.6333
3.088	37.66479
3.0885	-10.97717
3.089	-54.58374
3.0895	-103.93066
3.09	-147.43652
3.0905	-189.73389
3.091	-151.66626
3.0915	-41.08887
3.092	8.45947
3.0925	-15.81116
3.093	-10.67505
3.0935	-19.63806
3.094	-64.75525
3.0945	-108.96606
3.095	-135.25085
3.0955	-147.63794
3.096	-135.55298
3.0965	-121.65527
3.097	-104.63562
3.0975	-17.6239
3.098	84.99756
3.0985	163.04626
3.099	194.76929
3.0995	248.74878
3.1	295.07446
3.1005	302.52686
3.101	295.77942
3.1015	280.16968
3.102	242.60559
3.1025	183.69141
3.103	131.42395
3.1035	35.65063
3.104	-79.45862
3.1045	-203.12805
3.105	-302.12402
3.1055	-368.18848
3.106	-265.56702
3.1065	-192.25159
3.107	-153.27759
3.1075	-160.62927
3.108	-179.8645
3.1085	-196.07849
3.109	-185.40344
3.1095	-170.19653
3.11	-180.67017
3.1105	-209.87549
3.111	-219.34204
3.1115	-211.08398
3.112	-198.99902
3.1125	-159.01794
3.113	-119.74182
3.1135	-130.92041
3.114	-140.99121
3.1145	-124.4751
3.115	-83.68835
3.1155	-38.974
3.116	2.92053
3.1165	69.48853
3.117	137.46643
3.1175	131.82678
3.118	99.70093
3.1185	91.94641
3.119	82.37915
3.1195	94.2627
3.12	103.22571
3.1205	76.03455
3.121	75.73242
3.1215	124.07227
3.122	133.03528
3.1225	117.52625
3.123	106.44836
3.1235	88.22021
3.124	75.32959
3.1245	72.81189
3.125	50.45471
3.1255	23.46497
3.126	-15.20691
3.1265	-19.13452
3.127	-28.50037
3.1275	-62.74109
3.128	9.26514
3.1285	82.78198
3.129	112.99438
3.1295	145.62378
3.13	138.87634
3.1305	94.2627
3.131	33.83789
3.1315	-29.70886
3.132	-76.33667
3.1325	-96.07544
3.133	-122.56165
3.1335	-121.45386
3.134	-78.85437
3.1345	-23.46497
3.135	-7.95593
3.1355	-11.98425
3.136	-30.01099
3.1365	-22.86072
3.137	58.10852
3.1375	155.49316
3.138	264.35852
3.1385	402.73132
3.139	510.99243
3.1395	465.67383
3.14	358.82263
3.1405	274.22791
3.141	197.28699
3.1415	144.91882
3.142	95.47119
3.1425	8.45947
3.143	-93.85986
3.1435	-175.63477
3.144	-236.56311
3.1445	-281.57959
3.145	-302.52686
3.1455	-311.99341
3.146	-231.93054
3.1465	-144.41528
3.147	-105.13916
3.1475	-89.63013
3.148	-62.03613
3.1485	-55.69153
3.149	-68.68286
3.1495	-50.05188
3.15	-31.4209
3.1505	-30.41382
3.151	-22.55859
3.1515	-6.84814
3.152	16.41541
3.1525	22.6593
3.153	29.00391
3.1535	8.05664
3.154	-15.81116
3.1545	-46.5271
3.155	-60.62622
3.1555	-64.75525
3.156	-55.79224
3.1565	-32.12585
3.157	2.61841
3.1575	37.66479
3.158	72.20764
3.1585	96.17615
3.159	91.24146
3.1595	63.74817
3.16	41.89453
3.1605	41.79382
3.161	41.08887
3.1615	51.05896
3.162	81.47278
3.1625	130.92041
3.163	127.89917
3.1635	123.97156
3.164	193.05725
3.1645	185.70557
3.165	122.25952
3.1655	43.70728
3.166	-10.67505
3.1665	-48.74268
3.167	-111.28235
3.1675	-176.0376
3.168	-221.55762
3.1685	-177.44751
3.169	-127.89917
3.1695	-107.55615
3.17	-110.47668
3.1705	-135.45227
3.171	-163.85193
3.1715	-142.099
3.172	-0.90637
3.1725	67.37366
3.173	84.79614
3.1735	88.82446
3.174	49.85046
3.1745	-13.59558
3.175	75.4303
3.1755	200.50964
3.176	226.89514
3.1765	167.57812
3.177	134.74731
3.1775	120.44678
3.178	57.70569
3.1785	4.93469
3.179	-75.63171
3.1795	-150.65918
3.18	-188.22327
3.1805	-201.91956
3.181	-200.20752
3.1815	-169.59229
3.182	-99.2981
3.1825	29.40674
3.183	110.57739
3.1835	152.67334
3.184	172.00928
3.1845	171.0022
3.185	131.62537
3.1855	98.69385
3.186	76.84021
3.1865	52.97241
3.187	54.18091
3.1875	48.13843
3.188	13.797
3.1885	-3.42407
3.189	2.41699
3.1895	86.70959
3.19	203.63159
3.1905	193.46008
3.191	146.73157
3.1915	85.90393
3.192	25.68054
3.1925	-43.90869
3.193	-126.58997
3.1935	-208.7677
3.194	-243.51196
3.1945	-248.24524
3.195	-233.54187
3.1955	-188.52539
3.196	-168.38379
3.1965	-122.25952
3.197	-53.07312
3.1975	35.95276
3.198	138.67493
3.1985	234.34753
3.199	286.7157
3.1995	266.37268
3.2	226.3916
3.2005	190.03601
3.201	122.76306
3.2015	21.14868
3.202	-81.7749
3.2025	-200.71106
3.203	-296.58508
3.2035	-350.06104
3.204	-306.25305
3.2045	-168.4845
3.205	-80.36499
3.2055	-27.39258
3.206	-18.73169
3.2065	-12.68921
3.207	-17.82532
3.2075	14.80408
3.208	73.81897
3.2085	75.22888
3.209	42.19666
3.2095	17.52319
3.21	6.14319
3.2105	27.39258
3.211	37.06055
3.2115	55.08728
3.212	123.2666
3.2125	161.53564
3.213	155.79529
3.2135	139.48059
3.214	110.57739
3.2145	64.45312
3.215	17.32178
3.2155	0.70496
3.216	3.42407
3.2165	-10.57434
3.217	-5.13611
3.2175	43.20374
3.218	51.46179
3.2185	73.01331
3.219	203.93372
3.2195	316.82739
3.22	314.00757
3.2205	249.25232
3.221	167.276
3.2215	83.08411
3.222	-27.59399
3.2225	-144.81812
3.223	-224.17603
3.2235	-236.05957
3.224	-216.11938
3.2245	-231.427
3.225	-255.79834
3.2255	-240.89355
3.226	-204.53796
3.2265	-140.18555
3.227	-58.61206
3.2275	-22.76001
3.228	-6.84814
3.2285	12.78992
3.229	35.34851
3.2295	39.27612
3.23	33.73718
3.2305	22.35718
3.231	11.78284
3.2315	12.38708
3.232	-7.5531
3.2325	-14.80408
3.233	-30.2124
3.2335	-32.93152
3.234	-40.68604
3.2345	-48.64197
3.235	-54.88586
3.2355	-47.7356
3.236	-21.75293
3.2365	-6.94885
3.237	17.52319
3.2375	57.00073
3.238	56.90002
3.2385	64.75525
3.239	291.44897
3.2395	523.07739
3.24	568.19458
3.2405	474.83826
3.241	325.6897
3.2415	171.40503
3.242	7.85522
3.2425	-140.8905
3.243	-242.10205
3.2435	-323.67554
3.244	-296.08154
3.2445	-233.34045
3.245	-130.8197
3.2455	-87.71667
3.246	-88.32092
3.2465	-113.09509
3.247	-136.56006
3.2475	-105.23987
3.248	-38.77258
3.2485	-45.2179
3.249	-93.85986
3.2495	-96.37756
3.25	-73.01331
3.2505	-33.83789
3.251	-20.84656
3.2515	-4.12903
3.252	50.55542
3.2525	92.24854
3.253	100.00305
3.2535	70.29419
3.254	50.45471
3.2545	42.29736
3.255	33.03223
3.2555	2.5177
3.256	-33.43506
3.2565	-23.96851
3.257	50.45471
3.2575	141.19263
3.258	187.11548
3.2585	201.41602
3.259	183.5907
3.2595	133.13599
3.26	125.48218
3.2605	121.45386
3.261	125.48218
3.2615	121.35315
3.262	70.59631
3.2625	-2.41699
3.263	-106.44836
3.2635	-173.11707
3.264	-254.18701
3.2645	-291.65039
3.265	-278.45764
3.2655	-239.18152
3.266	-211.08398
3.2665	-182.3822
3.267	-93.45703
3.2675	25.78125
3.268	79.55933
3.2685	57.60498
3.269	42.8009
3.2695	133.53882
3.27	256.20117
3.2705	260.93445
3.271	212.19177
3.2715	134.44519
3.272	37.46338
3.2725	-51.46179
3.273	-109.97314
3.2735	-159.62219
3.274	-203.83301
3.2745	-128.60413
3.275	-13.49487
3.2755	57.50427
3.276	150.8606
3.2765	212.39319
3.277	203.93372
3.2775	162.54272
3.278	89.63013
3.2785	9.86938
3.279	-47.93701
3.2795	-96.37756
3.28	-152.87476
3.2805	-175.33264
3.281	-34.94568
3.2815	81.27136
3.282	100.80872
3.2825	76.23596
3.283	24.77417
3.2835	2.81982
3.284	-33.13293
3.2845	-33.23364
3.285	-3.12195
3.2855	10.97717
3.286	-4.33044
3.2865	-27.09045
3.287	-55.89294
3.2875	-65.3595
3.288	-68.17932
3.2885	-71.7041
3.289	-78.65295
3.2895	204.43726
3.29	397.49451
3.2905	387.92725
3.291	279.26331
3.2915	253.48206
3.292	216.11938
3.2925	135.25085
3.293	83.88977
3.2935	50.354
3.294	-25.07629
3.2945	-117.82837
3.295	-197.28699
3.2955	-253.68347
3.296	-282.9895
3.2965	-283.29163
3.297	-284.09729
3.2975	-312.39624
3.298	-343.41431
3.2985	-370.60547
3.299	-356.70776
3.2995	-305.14526
3.3	-181.87866
3.3005	-94.56482
3.301	-91.94641
3.3015	-100.80872
3.302	-125.7843
3.3025	-155.9967
3.303	-150.25635
3.3035	-66.97083
3.304	27.6947
3.3045	73.51685
3.305	78.85437
3.3055	93.85986
3.306	206.35071
3.3065	239.28223
3.307	187.4176
3.3075	137.56714
3.308	118.73474
3.3085	88.22021
3.309	12.78992
3.3095	-34.34143
3.31	-28.50037
3.3105	-19.13452
3.311	-53.97949
3.3115	-81.17065
3.312	-38.36975
3.3125	23.8678
3.313	106.54907
3.3135	114.10217
3.314	81.97632
3.3145	54.88586
3.315	51.36108
3.3155	79.05579
3.316	60.62622
3.3165	6.2439
3.317	-40.58533
3.3175	-65.46021
3.318	75.83313
3.3185	163.75122
3.319	150.75989
3.3195	75.63171
3.32	-9.46655
3.3205	-65.25879
3.321	6.84814
3.3215	37.86621
3.322	5.0354
3.3225	-46.82922
3.323	-90.23438
3.3235	-122.56165
3.324	-117.42554
3.3245	-124.67651
3.325	-105.34058
3.3255	-62.23755
3.326	-10.0708
3.3265	39.27612
3.327	48.23914
3.3275	107.15332
3.328	233.13904
3.3285	296.68579
3.329	370.90759
3.3295	412.09717
3.33	427.70691
3.3305	430.42603
3.331	394.07043
3.3315	366.17432
3.332	447.64709
3.3325	521.76819
3.333	577.76184
3.3335	468.59436
3.334	292.25464
3.3345	108.86536
3.335	-56.49719
3.3355	-183.99353
3.336	-303.43323
3.3365	-416.2262
3.337	-492.16003
3.3375	-515.72571
3.338	-511.99951
3.3385	-414.31274
3.339	-259.42383
3.3395	-147.83936
3.34	-138.47351
3.3405	-161.83777
3.341	-160.32715
3.3415	-146.32874
3.342	-140.38696
3.3425	-132.73315
3.343	-87.51526
3.3435	-48.33984
3.344	-30.91736
3.3445	-48.94409
3.345	-71.40198
3.3455	-109.87244
3.346	-170.29724
3.3465	-230.62134
3.347	-309.47571
3.3475	-364.16016
3.348	-364.46228
3.3485	-315.92102
3.349	-252.07214
3.3495	-202.12097
3.35	-159.21936
3.3505	-63.74817
3.351	60.82764
3.3515	132.73315
3.352	176.0376
3.3525	225.58594
3.353	205.94788
3.3535	161.33423
3.354	134.34448
3.3545	115.31067
3.355	138.87634
3.3555	197.58911
3.356	298.69995
3.3565	325.79041
3.357	279.76685
3.3575	228.70789
3.358	173.62061
3.3585	83.58765
3.359	-11.98425
3.3595	-101.8158
3.36	-211.68823
3.3605	-281.98242
3.361	-274.53003
3.3615	-195.17212
3.362	-110.6781
3.3625	-48.54126
3.363	-41.18958
3.3635	9.36584
3.364	58.71277
3.3645	65.96375
3.365	59.01489
3.3655	67.67578
3.366	234.75037
3.3665	360.53467
3.367	363.15308
3.3675	290.84473
3.368	199.09973
3.3685	112.89368
3.369	50.45471
3.3695	-18.42957
3.37	-92.95349
3.3705	-174.8291
3.371	-202.5238
3.3715	-200.20752
3.372	-169.08875
3.3725	-132.12891
3.373	-43.50586
3.3735	33.9386
3.374	69.68994
3.3745	79.86145
3.375	165.66467
3.3755	210.68115
3.376	178.5553
3.3765	98.29102
3.377	22.05505
3.3775	-44.71436
3.378	-94.56482
3.3785	20.34302
3.379	59.71985
3.3795	16.21399
3.38	-62.64038
3.3805	3.92761
3.381	121.55457
3.3815	169.89441
3.382	183.79211
3.3825	194.26575
3.383	163.4491
3.3835	98.49243
3.384	11.78284
3.3845	-85.80322
3.385	-164.35547
3.3855	-232.83691
3.386	-285.60791
3.3865	-302.42615
3.387	-277.45056
3.3875	-234.85107
3.388	-146.73157
3.3885	-8.45947
3.389	77.84729
3.3895	111.18164
3.39	112.08801
3.3905	90.73792
3.391	51.15967
3.3915	-23.56567
3.392	-81.06995
3.3925	-114.4043
3.393	-134.14307
3.3935	-142.80396
3.394	-127.39563
3.3945	-102.52075
3.395	-87.11243
3.3955	-65.3595
3.396	-45.3186
3.3965	-21.55151
3.397	-5.23682
3.3975	12.89062
3.398	46.82922
3.3985	82.17773
3.399	109.77173
3.3995	67.47437
3.4	54.98657
3.4005	124.67651
3.401	170.49866
3.4015	171.20361
3.402	158.01086
3.4025	130.11475
3.403	97.28394
3.4035	44.51294
3.404	-17.12036
3.4045	-58.10852
3.405	-96.67969
3.4055	-109.67102
3.406	-85.09827
3.4065	-74.12109
3.407	-50.75684
3.4075	8.05664
3.408	25.07629
3.4085	27.39258
3.409	38.16833
3.4095	30.11169
3.41	31.62231
3.4105	74.62463
3.411	126.28784
3.4115	163.75122
3.412	154.18396
3.4125	154.38538
3.413	166.97388
3.4135	167.37671
3.414	119.64111
3.4145	48.84338
3.415	-7.04956
3.4155	-58.71277
3.416	-60.12268
3.4165	-0.60425
3.417	26.68762
3.4175	16.3147
3.418	-3.8269
3.4185	-49.54834
3.419	-14.40125
3.4195	33.13293
3.42	52.56958
3.4205	43.60657
3.421	10.37292
3.4215	-34.54285
3.422	-88.0188
3.4225	-139.07776
3.423	-176.44043
3.4235	-186.81335
3.424	-178.15247
3.4245	-80.16357
3.425	157.00378
3.4255	369.90051
3.426	454.09241
3.4265	456.61011
3.427	402.22778
3.4275	323.97766
3.428	236.56311
3.4285	144.31458
3.429	39.88037
3.4295	-39.67896
3.43	-83.18481
3.4305	-128.60413
3.431	-166.0675
3.4315	-181.47583
3.432	-151.26343
3.4325	-45.52002
3.433	38.77258
3.4335	71.7041
3.434	100.80872
3.4345	133.94165
3.435	124.17297
3.4355	73.91968
3.436	31.82373
3.4365	25.68054
3.437	-6.94885
3.4375	-4.53186
3.438	39.57825
3.4385	23.16284
3.439	-11.78284
3.4395	-30.41382
3.44	-49.95117
3.4405	-78.35083
3.441	-139.37988
3.4415	-155.896
3.442	-70.29419
3.4425	-58.41064
3.443	-104.93774
3.4435	-141.79688
3.444	-145.8252
3.4445	-142.80396
3.445	-156.90308
3.4455	-164.05334
3.446	-178.95813
3.4465	-195.77637
3.447	-195.67566
3.4475	-205.0415
3.448	-201.01318
3.4485	-190.84167
3.449	-180.26733
3.4495	-74.42322
3.45	45.01648
3.4505	91.8457
3.451	96.37756
3.4515	70.49561
3.452	25.37842
3.4525	11.38
3.453	35.44922
3.4535	34.94568
3.454	51.15967
3.4545	80.4657
3.455	80.66711
3.4555	67.8772
3.456	56.09436
3.4565	46.92993
3.457	52.26746
3.4575	47.23206
3.458	59.61914
3.4585	136.86218
3.459	273.12012
3.4595	318.33801
3.46	258.71887
3.4605	113.49792
3.461	-1.00708
3.4615	-59.31702
3.462	-82.88269
3.4625	-87.41455
3.463	-88.62305
3.4635	-109.67102
3.464	-74.72534
3.4645	12.78992
3.465	65.25879
3.4655	89.73083
3.466	116.72058
3.4665	208.36487
3.467	227.90222
3.4675	185.00061
3.468	105.03845
3.4685	27.6947
3.469	-66.06445
3.4695	-119.4397
3.47	-139.48059
3.4705	-152.97546
3.471	-139.68201
3.4715	-82.68127
3.472	14.19983
3.4725	54.88586
3.473	31.72302
3.4735	46.02356
3.474	72.50977
3.4745	67.37366
3.475	7.5531
3.4755	-79.96216
3.476	-124.07227
3.4765	-142.70325
3.477	-163.85193
3.4775	-174.12415
3.478	-164.35547
3.4785	-135.75439
3.479	-98.39172
3.4795	-58.00781
3.48	-27.49329
3.4805	-0.40283
3.481	25.177
3.4815	41.99524
3.482	64.25171
3.4825	80.4657
3.483	83.58765
3.4835	58.81348
3.484	41.29028
3.4845	40.78674
3.485	63.14392
3.4855	109.67102
3.486	167.276
3.4865	198.59619
3.487	205.44434
3.4875	166.67175
3.488	138.47351
3.4885	121.45386
3.489	103.22571
3.4895	151.96838
3.49	257.00684
3.4905	268.89038
3.491	221.65833
3.4915	173.92273
3.492	136.66077
3.4925	109.06677
3.493	37.26196
3.4935	-133.23669
3.494	-351.26953
3.4945	-472.8241
3.495	-517.53845
3.4955	-514.61792
3.496	-472.9248
3.4965	-393.06335
3.497	-294.2688
3.4975	-207.5592
3.498	-139.5813
3.4985	-81.7749
3.499	-15.60974
3.4995	118.53333
3.5	380.97839
3.5005	524.99084
3.501	502.43225
3.5015	410.88867
3.502	286.7157
3.5025	146.53015
3.503	65.15808
3.5035	-15.50903
3.504	-101.21155
3.5045	-98.79456
3.505	-67.67578
3.5055	-73.51685
3.506	-114.00146
3.5065	-70.09277
3.507	-45.82214
3.5075	-23.06213
3.508	74.72534
3.5085	229.21143
3.509	351.16882
3.5095	470.70923
3.51	500.01526
3.5105	457.91931
3.511	307.56226
3.5115	102.11792
3.512	-106.8512
3.5125	-320.6543
3.513	-503.0365
3.5135	-609.18274
3.514	-665.67993
3.5145	-647.04895
3.515	-586.52344
3.5155	-495.28198
3.516	-361.64246
3.5165	-183.48999
3.517	-73.51685
3.5175	45.82214
3.518	142.099
3.5185	133.74023
3.519	91.14075
3.5195	80.86853
3.52	74.72534
3.5205	73.01331
3.521	85.5011
3.5215	151.56555
3.522	216.52222
3.5225	246.33179
3.523	216.42151
3.5235	146.22803
3.524	50.05188
3.5245	9.06372
3.525	-25.27771
3.5255	-74.82605
3.526	-127.79846
3.5265	-176.0376
3.527	-218.03284
3.5275	-219.64417
3.528	-142.30042
3.5285	61.02905
3.529	202.32239
3.5295	241.69922
3.53	206.55212
3.5305	165.86609
3.531	95.5719
3.5315	17.22107
3.532	-48.23914
3.5325	-112.69226
3.533	-126.18713
3.5335	-131.72607
3.534	-153.88184
3.5345	-34.84497
3.535	177.64893
3.5355	268.18542
3.536	252.7771
3.5365	204.23584
3.537	164.7583
3.5375	144.6167
3.538	119.4397
3.5385	77.44446
3.539	23.96851
3.5395	-30.61523
3.54	48.03772
3.5405	170.09583
3.541	212.69531
3.5415	185.30273
3.542	131.32324
3.5425	120.04395
3.543	136.86218
3.5435	132.43103
3.544	135.95581
3.5445	140.28625
3.545	85.70251
3.5455	-1.61133
3.546	-66.76941
3.5465	-107.75757
3.547	-141.89758
3.5475	-219.94629
3.548	-331.02722
3.5485	-387.52441
3.549	-402.93274
3.5495	-391.85486
3.55	-424.88708
3.5505	-416.62903
3.551	-252.07214
3.5515	-130.11475
3.552	-41.29028
3.5525	14.30054
3.553	56.19507
3.5535	125.98572
3.554	215.31372
3.5545	249.85657
3.555	256.30188
3.5555	242.40417
3.556	196.1792
3.5565	155.09033
3.557	144.21387
3.5575	127.49634
3.558	125.18005
3.5585	103.93066
3.559	153.3783
3.5595	194.66858
3.56	161.43494
3.5605	95.87402
3.561	53.77808
3.5615	71.20056
3.562	107.75757
3.5625	133.03528
3.563	201.71814
3.5635	349.96033
3.564	384.20105
3.5645	293.96667
3.565	144.41528
3.5655	37.96692
3.566	-72.40906
3.5665	-183.99353
3.567	-312.49695
3.5675	-429.72107
3.568	-461.24268
3.5685	-506.25916
3.569	-558.62732
3.5695	-592.46521
3.57	-584.10645
3.5705	-571.51794
3.571	-561.95068
3.5715	-606.36292
3.572	-656.41479
3.5725	-656.41479
3.573	-612.5061
3.5735	-537.78076
3.574	-369.09485
3.5745	-164.7583
3.575	82.17773
3.5755	245.62683
3.576	277.9541
3.5765	292.55676
3.577	338.47961
3.5775	377.95715
3.578	474.43542
3.5785	555.20325
3.579	567.28821
3.5795	513.51013
3.58	427.80762
3.5805	314.51111
3.581	221.96045
3.5815	171.50574
3.582	182.48291
3.5825	201.71814
3.583	227.49939
3.5835	224.88098
3.584	161.13281
3.5845	114.505
3.585	53.67737
3.5855	44.91577
3.586	71.90552
3.5865	107.45544
3.587	115.20996
3.5875	84.89685
3.588	40.88745
3.5885	-30.51453
3.589	-28.60107
3.5895	48.03772
3.59	109.97314
3.5905	83.48694
3.591	53.97949
3.5915	23.96851
3.592	47.13135
3.5925	226.69373
3.593	304.13818
3.5935	326.69678
3.594	287.21924
3.5945	190.03601
3.595	91.44287
3.5955	-96.98181
3.596	-344.6228
3.5965	-382.79114
3.597	-361.23962
3.5975	-368.89343
3.598	-427.50549
3.5985	-439.69116
3.599	-384.8053
3.5995	-291.7511
3.6	-99.70093
3.6005	29.50745
3.601	160.72998
3.6015	207.86133
3.602	136.15723
3.6025	-47.13135
3.603	-215.1123
3.6035	-275.93994
3.604	-258.41675
3.6045	-286.21216
3.605	-336.96899
3.6055	-380.17273
3.606	-344.92493
3.6065	-216.3208
3.607	-62.8418
3.6075	52.8717
3.608	152.27051
3.6085	207.65991
3.609	243.41125
3.6095	286.31287
3.61	302.82898
3.6105	281.37817
3.611	231.52771
3.6115	301.11694
3.612	453.28674
3.6125	565.07263
3.613	560.64148
3.6135	447.34497
3.614	306.95801
3.6145	187.31689
3.615	86.91101
3.6155	-4.63257
3.616	-65.05737
3.6165	-142.40112
3.617	-198.19336
3.6175	-152.47192
3.618	-90.5365
3.6185	-92.34924
3.619	-68.88428
3.6195	-13.29346
3.62	51.15967
3.6205	93.85986
3.621	74.72534
3.6215	10.17151
3.622	-49.24622
3.6225	65.86304
3.623	415.21912
3.6235	703.64685
3.624	750.97961
3.6245	592.26379
3.625	282.58667
3.6255	-49.64905
3.626	-291.04614
3.6265	-343.01147
3.627	-303.0304
3.6275	-197.99194
3.628	-191.34521
3.6285	-271.30737
3.629	-379.56848
3.6295	-435.26001
3.63	-450.2655
3.6305	-486.11755
3.631	-502.73438
3.6315	-510.18677
3.632	-509.17969
3.6325	-485.61401
3.633	-290.84473
3.6335	3.42407
3.634	209.9762
3.6345	302.92969
3.635	314.71252
3.6355	224.88098
3.636	61.43188
3.6365	-74.32251
3.637	-165.76538
3.6375	-239.38293
3.638	-173.41919
3.6385	-57.30286
3.639	29.60815
3.6395	64.95667
3.64	51.36108
3.6405	2.01416
3.641	-40.1825
3.6415	-116.41846
3.642	-253.17993
3.6425	-367.38281
3.643	-409.78088
3.6435	-367.58423
3.644	-228.80859
3.6445	-97.08252
3.645	14.60266
3.6455	127.39563
3.646	185.10132
3.6465	251.36719
3.647	293.46313
3.6475	326.79749
3.648	351.97449
3.6485	394.07043
3.649	393.76831
3.6495	350.8667
3.65	342.91077
3.6505	561.24573
3.651	748.15979
3.6515	741.91589
3.652	642.41638
3.6525	461.34338
3.653	258.01392
3.6535	30.91736
3.654	-209.17053
3.6545	-407.96814
3.655	-479.57153
3.6555	-540.90271
3.656	-574.13635
3.6565	-535.16235
3.657	-466.47949
3.6575	-408.06885
3.658	-342.91077
3.6585	-176.23901
3.659	87.01172
3.6595	310.07996
3.66	495.28198
3.6605	521.66748
3.661	442.51099
3.6615	322.76917
3.662	138.87634
3.6625	-60.02197
3.663	-204.23584
3.6635	-299.10278
3.664	-317.53235
3.6645	-319.34509
3.665	-305.14526
3.6655	-268.38684
3.666	-213.09814
3.6665	-87.81738
3.667	-23.96851
3.6675	-87.01172
3.668	-86.50818
3.6685	-99.60022
3.669	-52.26746
3.6695	2.81982
3.67	14.60266
3.6705	-13.89771
3.671	-41.29028
3.6715	-26.88904
3.672	-48.13843
3.6725	-120.04395
3.673	-180.16663
3.6735	-227.09656
3.674	-243.91479
3.6745	-281.78101
3.675	-292.85889
3.6755	-287.31995
3.676	-267.98401
3.6765	-244.41833
3.677	-215.81726
3.6775	-197.18628
3.678	-27.79541
3.6785	188.52539
3.679	483.29773
3.6795	743.32581
3.68	852.09045
3.6805	849.87488
3.681	769.00635
3.6815	603.6438
3.682	441.4032
3.6825	418.64319
3.683	350.36316
3.6835	280.4718
3.684	262.04224
3.6845	155.49316
3.685	-12.68921
3.6855	-197.08557
3.686	-321.9635
3.6865	-353.98865
3.687	-359.42688
3.6875	-375.64087
3.688	-399.20654
3.6885	-389.73999
3.689	-307.26013
3.6895	-189.9353
3.69	51.15967
3.6905	280.06897
3.691	413.7085
3.6915	468.79578
3.692	467.8894
3.6925	455.2002
3.693	395.17822
3.6935	339.99023
3.694	264.76135
3.6945	109.4696
3.695	-78.45154
3.6955	-165.46326
3.696	-215.41443
3.6965	-236.26099
3.697	-232.73621
3.6975	-239.18152
3.698	-225.18311
3.6985	-238.87939
3.699	-225.38452
3.6995	-253.78418
3.7	-306.45447
3.7005	-308.87146
3.701	-256.70471
3.7015	-147.53723
3.702	-40.08179
3.7025	36.55701
3.703	106.54907
3.7035	161.0321
3.704	228.50647
3.7045	232.83691
3.705	156.39954
3.7055	124.67651
3.706	91.8457
3.7065	53.67737
3.707	-4.02832
3.7075	-103.72925
3.708	-234.44824
3.7085	-401.52283
3.709	-425.79346
3.7095	-307.56226
3.71	-153.3783
3.7105	121.35315
3.711	268.78967
3.7115	201.91956
3.712	136.86218
3.7125	71.7041
3.713	-0.10071
3.7135	-25.37842
3.714	-7.04956
3.7145	57.20215
3.715	140.38696
3.7155	334.04846
3.716	434.75647
3.7165	415.42053
3.717	353.88794
3.7175	277.65198
3.718	165.56396
3.7185	42.7002
3.719	36.85913
3.7195	149.34998
3.72	182.78503
3.7205	158.61511
3.721	139.07776
3.7215	112.69226
3.722	58.30994
3.7225	-18.02673
3.723	-59.51843
3.7235	-35.04639
3.724	-56.90002
3.7245	-146.42944
3.725	-246.02966
3.7255	-308.46863
3.726	-292.45605
3.7265	-271.91162
3.727	-268.28613
3.7275	-221.85974
3.728	-230.62134
3.7285	-259.62524
3.729	-266.77551
3.7295	-283.29163
3.73	-340.69519
3.7305	-341.50085
3.731	-317.53235
3.7315	-317.73376
3.732	-333.94775
3.7325	-349.45679
3.733	-362.64954
3.7335	-262.14294
3.734	36.65771
3.7345	389.94141
3.735	691.76331
3.7355	746.44775
3.736	600.82397
3.7365	417.83752
3.737	172.91565
3.7375	-71.20056
3.738	-231.32629
3.7385	-376.44653
3.739	-423.47717
3.7395	-331.32935
3.74	-197.99194
3.7405	-19.73877
3.741	192.15088
3.7415	393.86902
3.742	559.53369
3.7425	639.69727
3.743	635.36682
3.7435	595.28503
3.744	540.60059
3.7445	472.01843
3.745	349.85962
3.7455	222.86682
3.746	147.83936
3.7465	137.66785
3.747	82.07703
3.7475	10.77576
3.748	-50.65613
3.7485	-148.54431
3.749	-206.85425
3.7495	-216.92505
3.75	-266.5741
3.7505	-407.4646
3.751	-539.39209
3.7515	-599.71619
3.752	-597.50061
3.7525	-475.14038
3.753	-320.25146
3.7535	-180.97229
3.754	-79.66003
3.7545	11.88354
3.755	114.60571
3.7555	203.7323
3.756	216.11938
3.7565	172.91565
3.757	73.61755
3.7575	-78.25012
3.758	-189.9353
3.7585	-212.79602
3.759	-163.24768
3.7595	38.16833
3.76	217.02576
3.7605	322.56775
3.761	391.25061
3.7615	417.73682
3.762	342.40723
3.7625	210.37903
3.763	67.17224
3.7635	-5.94177
3.764	-32.83081
3.7645	-50.05188
3.765	-94.76624
3.7655	-153.88184
3.766	-156.80237
3.7665	-130.92041
3.767	-142.19971
3.7675	-227.19727
3.768	-331.43005
3.7685	-359.22546
3.769	-302.02332
3.7695	-271.10596
3.77	-303.0304
3.7705	-334.24988
3.771	-214.70947
3.7715	-7.5531
3.772	135.15015
3.7725	213.70239
3.773	274.42932
3.7735	313.70544
3.774	334.95483
3.7745	354.89502
3.775	404.74548
3.7755	311.18774
3.776	163.65051
3.7765	68.98499
3.777	-35.85205
3.7775	-26.78833
