Alessio_Russo_Left_2.c3d  



Time(s):	C_L_bicipite(μV):
0	33.83789
0.0005	12.89062
0.001	-8.96301
0.0015	-22.55859
0.002	-37.06055
0.0025	-41.89453
0.003	-46.82922
0.0035	-50.05188
0.004	-46.72852
0.0045	-39.88037
0.005	-32.83081
0.0055	-21.75293
0.006	-11.68213
0.0065	-4.12903
0.007	2.61841
0.0075	3.12195
0.008	7.85522
0.0085	15.40833
0.009	20.84656
0.0095	14.90479
0.01	7.75452
0.0105	4.83398
0.011	8.35876
0.0115	15.30762
0.012	14.70337
0.0125	21.45081
0.013	16.91895
0.0135	12.5885
0.014	3.32336
0.0145	4.53186
0.015	12.99133
0.0155	16.91895
0.016	10.0708
0.0165	16.3147
0.017	11.38
0.0175	10.97717
0.018	11.58142
0.0185	11.78284
0.019	14.80408
0.0195	6.3446
0.02	8.15735
0.0205	7.25098
0.021	5.53894
0.0215	6.64673
0.022	7.75452
0.0225	5.23682
0.023	7.35168
0.0235	6.64673
0.024	4.22974
0.0245	2.21558
0.025	15.20691
0.0255	36.95984
0.026	46.42639
0.0265	49.74976
0.027	45.01648
0.0275	37.86621
0.028	24.57275
0.0285	16.91895
0.029	-0.10071
0.0295	-16.51611
0.03	-24.67346
0.0305	-29.40674
0.031	-36.65771
0.0315	-39.88037
0.032	-36.95984
0.0325	-33.73718
0.033	-30.11169
0.0335	-26.58691
0.034	-17.6239
0.0345	-12.78992
0.035	-10.97717
0.0355	-5.13611
0.036	-4.53186
0.0365	0.60425
0.037	2.41699
0.0375	4.63257
0.038	1.71204
0.0385	13.09204
0.039	10.67505
0.0395	8.56018
0.04	10.0708
0.0405	8.8623
0.041	8.45947
0.0415	3.22266
0.042	5.0354
0.0425	2.11487
0.043	12.08496
0.0435	13.39417
0.044	11.98425
0.0445	10.57434
0.045	1.3092
0.0455	8.45947
0.046	7.95593
0.0465	10.47363
0.047	7.04956
0.0475	9.16443
0.048	6.44531
0.0485	8.56018
0.049	5.94177
0.0495	9.26514
0.05	2.21558
0.0505	-1.2085
0.051	1.3092
0.0515	0.20142
0.052	-3.22266
0.0525	-4.22974
0.053	2.21558
0.0535	1.00708
0.054	5.94177
0.0545	4.43115
0.055	7.65381
0.0555	12.08496
0.056	11.58142
0.0565	5.13611
0.057	-3.7262
0.0575	2.92053
0.058	12.99133
0.0585	13.69629
0.059	17.6239
0.0595	17.32178
0.06	8.35876
0.0605	0.10071
0.061	-9.46655
0.0615	-17.92603
0.062	-19.23523
0.0625	-14.19983
0.063	-9.36584
0.0635	-2.5177
0.064	1.71204
0.0645	5.13611
0.065	7.15027
0.0655	7.25098
0.066	10.27222
0.0665	0.20142
0.067	-3.52478
0.0675	-13.69629
0.068	-18.63098
0.0685	-16.3147
0.069	-16.61682
0.0695	-14.09912
0.07	-13.29346
0.0705	-12.5885
0.071	-11.58142
0.0715	-4.73328
0.072	-4.63257
0.0725	-3.62549
0.073	-2.41699
0.0735	-2.41699
0.074	-2.01416
0.0745	0.90637
0.075	0.90637
0.0755	3.7262
0.076	3.92761
0.0765	5.53894
0.077	5.23682
0.0775	4.33044
0.078	6.04248
0.0785	9.16443
0.079	13.89771
0.0795	10.0708
0.08	11.38
0.0805	11.2793
0.081	17.6239
0.0815	16.21399
0.082	12.28638
0.0825	8.45947
0.083	10.0708
0.0835	6.54602
0.084	10.47363
0.0845	5.63965
0.085	3.12195
0.0855	2.01416
0.086	4.33044
0.0865	6.54602
0.087	5.74036
0.0875	6.14319
0.088	11.38
0.0885	7.15027
0.089	7.35168
0.0895	8.15735
0.09	2.5177
0.0905	-1.81274
0.091	0.90637
0.0915	2.5177
0.092	14.40125
0.0925	13.49487
0.093	5.0354
0.0935	11.58142
0.094	11.48071
0.0945	9.56726
0.095	20.44373
0.0955	18.32886
0.096	20.44373
0.0965	12.78992
0.097	19.13452
0.0975	19.83948
0.098	18.12744
0.0985	16.11328
0.099	15.00549
0.0995	13.89771
0.1	13.797
0.1005	15.50903
0.101	23.06213
0.1015	61.43188
0.102	98.29102
0.1025	105.13916
0.103	94.06128
0.1035	83.88977
0.104	59.71985
0.1045	25.78125
0.105	0
0.1055	-19.94019
0.106	-41.39099
0.1065	-55.2887
0.107	-64.95667
0.1075	-75.4303
0.108	-70.79773
0.1085	-60.92834
0.109	-54.58374
0.1095	-42.7002
0.11	-28.09753
0.1105	-21.55151
0.111	-8.25806
0.1115	-11.07788
0.112	-15.71045
0.1125	-12.5885
0.113	-9.66797
0.1135	-0.80566
0.114	8.66089
0.1145	10.67505
0.115	13.89771
0.1155	21.55151
0.116	24.77417
0.1165	24.87488
0.117	27.19116
0.1175	28.09753
0.118	29.10461
0.1185	24.67346
0.119	25.37842
0.1195	24.97559
0.12	23.96851
0.1205	18.63098
0.121	21.04797
0.1215	19.63806
0.122	21.3501
0.1225	18.12744
0.123	17.6239
0.1235	12.08496
0.124	4.83398
0.1245	7.75452
0.125	5.43823
0.1255	9.66797
0.126	8.05664
0.1265	3.22266
0.127	3.52478
0.1275	2.01416
0.128	2.71912
0.1285	-0.70496
0.129	-0.10071
0.1295	1.10779
0.13	-1.71204
0.1305	2.11487
0.131	-0.60425
0.1315	1.10779
0.132	1.40991
0.1325	4.33044
0.133	3.12195
0.1335	0.80566
0.134	1.51062
0.1345	-4.53186
0.135	-4.93469
0.1355	-10.37292
0.136	-12.08496
0.1365	-9.97009
0.137	-9.46655
0.1375	-2.01416
0.138	0.40283
0.1385	1.00708
0.139	2.11487
0.1395	7.25098
0.14	7.5531
0.1405	9.36584
0.141	8.15735
0.1415	7.5531
0.142	6.44531
0.1425	3.22266
0.143	2.92053
0.1435	10.77576
0.144	10.87646
0.1445	7.85522
0.145	11.68213
0.1455	16.11328
0.146	19.23523
0.1465	14.50195
0.147	13.89771
0.1475	14.90479
0.148	15.50903
0.1485	15.40833
0.149	15.71045
0.1495	15.1062
0.15	17.72461
0.1505	5.94177
0.151	0.80566
0.1515	7.75452
0.152	3.62549
0.1525	8.05664
0.153	7.15027
0.1535	5.84106
0.154	7.45239
0.1545	5.33752
0.155	3.92761
0.1555	1.91345
0.156	3.7262
0.1565	-1.10779
0.157	-1.51062
0.1575	-1.71204
0.158	-0.10071
0.1585	-5.94177
0.159	-2.31628
0.1595	-2.01416
0.16	0
0.1605	12.38708
0.161	43.80798
0.1615	56.90002
0.162	61.43188
0.1625	48.54126
0.163	30.91736
0.1635	17.82532
0.164	2.01416
0.1645	-9.66797
0.165	-19.83948
0.1655	-36.05347
0.166	-39.17542
0.1665	-40.08179
0.167	-36.75842
0.1675	-27.19116
0.168	-22.45789
0.1685	-15.50903
0.169	-6.94885
0.1695	2.61841
0.17	11.38
0.1705	18.32886
0.171	16.91895
0.1715	19.43665
0.172	14.90479
0.1725	12.28638
0.173	13.09204
0.1735	12.89062
0.174	14.90479
0.1745	13.49487
0.175	20.74585
0.1755	19.23523
0.176	18.8324
0.1765	11.88354
0.177	14.60266
0.1775	15.91187
0.178	8.66089
0.1785	15.30762
0.179	11.78284
0.1795	16.3147
0.18	13.797
0.1805	13.59558
0.181	21.14868
0.1815	24.37134
0.182	24.87488
0.1825	21.14868
0.183	10.87646
0.1835	7.5531
0.184	3.92761
0.1845	-0.70496
0.185	-3.62549
0.1855	-8.8623
0.186	-16.11328
0.1865	-13.69629
0.187	-15.81116
0.1875	-15.81116
0.188	-8.56018
0.1885	-5.0354
0.189	-9.06372
0.1895	-11.38
0.19	-5.23682
0.1905	-10.37292
0.191	-7.45239
0.1915	-3.92761
0.192	0.10071
0.1925	-1.10779
0.193	1.00708
0.1935	-2.01416
0.194	1.10779
0.1945	10.47363
0.195	8.56018
0.1955	3.12195
0.196	4.12903
0.1965	3.52478
0.197	4.43115
0.1975	7.45239
0.198	3.52478
0.1985	7.5531
0.199	5.43823
0.1995	7.95593
0.2	8.15735
0.2005	2.61841
0.201	6.3446
0.2015	2.61841
0.202	-1.2085
0.2025	-6.04248
0.203	-1.3092
0.2035	1.91345
0.204	-2.5177
0.2045	6.64673
0.205	4.73328
0.2055	4.53186
0.206	10.77576
0.2065	8.96301
0.207	13.99841
0.2075	16.01257
0.208	17.01965
0.2085	13.59558
0.209	13.39417
0.2095	11.58142
0.21	8.35876
0.2105	10.57434
0.211	5.33752
0.2115	8.56018
0.212	7.25098
0.2125	3.62549
0.213	5.74036
0.2135	5.74036
0.214	5.33752
0.2145	6.14319
0.215	5.13611
0.2155	9.36584
0.216	3.7262
0.2165	8.56018
0.217	7.15027
0.2175	10.47363
0.218	6.3446
0.2185	11.07788
0.219	9.66797
0.2195	10.0708
0.22	0.90637
0.2205	6.74744
0.221	7.95593
0.2215	7.5531
0.222	3.32336
0.2225	-0.60425
0.223	6.14319
0.2235	7.04956
0.224	4.73328
0.2245	5.13611
0.225	4.63257
0.2255	9.06372
0.226	10.0708
0.2265	9.26514
0.227	14.60266
0.2275	64.05029
0.228	97.58606
0.2285	105.94482
0.229	97.28394
0.2295	78.95508
0.23	54.48303
0.2305	29.10461
0.231	10.57434
0.2315	-13.797
0.232	-32.22656
0.2325	-48.64197
0.233	-55.69153
0.2335	-62.8418
0.234	-64.151
0.2345	-63.04321
0.235	-49.14551
0.2355	-45.11719
0.236	-32.7301
0.2365	-29.10461
0.237	-22.15576
0.2375	-14.50195
0.238	-13.29346
0.2385	-6.14319
0.239	2.61841
0.2395	9.86938
0.24	6.14319
0.2405	11.38
0.241	12.99133
0.2415	9.36584
0.242	5.13611
0.2425	7.35168
0.243	4.73328
0.2435	3.8269
0.244	-4.43115
0.2445	-4.83398
0.245	1.61133
0.2455	0.30212
0.246	7.5531
0.2465	10.97717
0.247	6.2439
0.2475	5.23682
0.248	8.05664
0.2485	5.23682
0.249	6.64673
0.2495	3.12195
0.25	6.94885
0.2505	7.15027
0.251	5.13611
0.2515	9.26514
0.252	7.65381
0.2525	10.0708
0.253	11.2793
0.2535	-0.60425
0.254	1.61133
0.2545	-1.51062
0.255	0.70496
0.2555	5.53894
0.256	3.8269
0.2565	14.80408
0.257	14.90479
0.2575	19.94019
0.258	13.49487
0.2585	19.83948
0.259	21.75293
0.2595	23.56567
0.26	23.16284
0.2605	19.43665
0.261	17.12036
0.2615	14.90479
0.262	11.07788
0.2625	20.54443
0.263	26.18408
0.2635	30.31311
0.264	31.62231
0.2645	26.58691
0.265	29.10461
0.2655	24.77417
0.266	24.16992
0.2665	20.1416
0.267	16.91895
0.2675	18.53027
0.268	18.42957
0.2685	7.15027
0.269	9.16443
0.2695	13.89771
0.27	13.09204
0.2705	11.58142
0.271	11.68213
0.2715	6.54602
0.272	4.63257
0.2725	2.92053
0.273	0.20142
0.2735	-7.04956
0.274	0.50354
0.2745	-3.92761
0.275	-2.01416
0.2755	1.61133
0.276	-0.10071
0.2765	2.92053
0.277	-0.80566
0.2775	-8.56018
0.278	-18.53027
0.2785	-19.23523
0.279	-20.84656
0.2795	-26.48621
0.28	-29.80957
0.2805	-20.84656
0.281	-24.37134
0.2815	-19.13452
0.282	-15.81116
0.2825	-12.78992
0.283	-8.15735
0.2835	-7.45239
0.284	-5.23682
0.2845	-1.91345
0.285	-5.43823
0.2855	-1.81274
0.286	0.60425
0.2865	-0.10071
0.287	4.22974
0.2875	8.25806
0.288	7.25098
0.2885	19.23523
0.289	12.78992
0.2895	13.59558
0.29	15.50903
0.2905	11.98425
0.291	10.67505
0.2915	11.38
0.292	11.17859
0.2925	13.69629
0.293	9.56726
0.2935	-1.61133
0.294	-0.90637
0.2945	-1.40991
0.295	-2.21558
0.2955	-4.12903
0.296	-8.7616
0.2965	-8.96301
0.297	-6.44531
0.2975	-5.53894
0.298	-9.66797
0.2985	-8.15735
0.299	-1.10779
0.2995	4.43115
0.3	2.31628
0.3005	0.90637
0.301	2.92053
0.3015	4.83398
0.302	7.5531
0.3025	10.37292
0.303	8.96301
0.3035	11.98425
0.304	10.77576
0.3045	28.50037
0.305	52.26746
0.3055	61.53259
0.306	66.26587
0.3065	60.02197
0.307	42.29736
0.3075	32.32727
0.308	18.53027
0.3085	4.53186
0.309	-12.28638
0.3095	-17.12036
0.31	-17.92603
0.3105	-25.37842
0.311	-24.47205
0.3115	-21.95435
0.312	-30.11169
0.3125	-23.26355
0.313	-23.56567
0.3135	-18.73169
0.314	-15.1062
0.3145	-5.13611
0.315	0.30212
0.3155	3.42407
0.316	4.12903
0.3165	4.93469
0.317	14.40125
0.3175	11.88354
0.318	12.48779
0.3185	14.19983
0.319	7.15027
0.3195	13.29346
0.32	18.22815
0.3205	21.45081
0.321	17.52319
0.3215	9.36584
0.322	12.18567
0.3225	8.25806
0.323	11.2793
0.3235	7.25098
0.324	18.42957
0.3245	54.38232
0.325	78.55225
0.3255	87.21313
0.326	77.84729
0.3265	56.09436
0.327	39.98108
0.3275	22.05505
0.328	2.81982
0.3285	-22.05505
0.329	-36.75842
0.3295	-51.05896
0.33	-60.62622
0.3305	-62.03613
0.331	-63.14392
0.3315	-57.20215
0.332	-50.2533
0.3325	-42.90161
0.333	-27.59399
0.3335	-16.51611
0.334	-13.69629
0.3345	-7.5531
0.335	1.61133
0.3355	-1.81274
0.336	-1.61133
0.3365	-7.85522
0.337	-5.94177
0.3375	-2.61841
0.338	-4.43115
0.3385	0.50354
0.339	10.0708
0.3395	7.5531
0.34	19.13452
0.3405	18.02673
0.341	11.17859
0.3415	13.49487
0.342	15.50903
0.3425	14.90479
0.343	11.48071
0.3435	15.60974
0.344	18.63098
0.3445	17.52319
0.345	15.81116
0.3455	18.93311
0.346	21.55151
0.3465	20.24231
0.347	20.84656
0.3475	17.42249
0.348	20.24231
0.3485	16.3147
0.349	15.40833
0.3495	20.64514
0.35	19.94019
0.3505	17.32178
0.351	19.13452
0.3515	20.94727
0.352	20.64514
0.3525	18.12744
0.353	14.50195
0.3535	11.48071
0.354	4.53186
0.3545	4.12903
0.355	2.31628
0.3555	5.13611
0.356	6.3446
0.3565	8.15735
0.357	0.80566
0.3575	9.66797
0.358	7.25098
0.3585	11.98425
0.359	9.46655
0.3595	10.27222
0.36	11.17859
0.3605	7.04956
0.361	2.61841
0.3615	4.73328
0.362	1.71204
0.3625	-0.50354
0.363	-2.5177
0.3635	-9.36584
0.364	-12.18567
0.3645	-6.44531
0.365	-5.43823
0.3655	-7.85522
0.366	-9.36584
0.3665	-4.63257
0.367	-3.92761
0.3675	-3.62549
0.368	1.00708
0.3685	0.90637
0.369	1.2085
0.3695	8.25806
0.37	10.37292
0.3705	10.57434
0.371	9.26514
0.3715	13.09204
0.372	14.50195
0.3725	11.07788
0.373	5.53894
0.3735	11.48071
0.374	13.19275
0.3745	17.72461
0.375	16.61682
0.3755	7.35168
0.376	8.7616
0.3765	6.74744
0.377	4.93469
0.3775	1.91345
0.378	2.5177
0.3785	3.62549
0.379	4.02832
0.3795	11.07788
0.38	10.67505
0.3805	13.69629
0.381	5.74036
0.3815	3.32336
0.382	5.53894
0.3825	6.84814
0.383	4.63257
0.3835	5.63965
0.384	5.13611
0.3845	7.95593
0.385	5.33752
0.3855	9.56726
0.386	12.08496
0.3865	11.48071
0.387	9.06372
0.3875	11.2793
0.388	9.66797
0.3885	15.71045
0.389	13.89771
0.3895	15.71045
0.39	5.33752
0.3905	13.09204
0.391	2.71912
0.3915	4.02832
0.392	7.75452
0.3925	10.37292
0.393	8.15735
0.3935	2.92053
0.394	5.74036
0.3945	5.94177
0.395	4.22974
0.3955	6.3446
0.396	1.00708
0.3965	3.32336
0.397	2.11487
0.3975	1.61133
0.398	3.22266
0.3985	3.92761
0.399	8.8623
0.3995	7.35168
0.4	6.44531
0.4005	8.25806
0.401	1.00708
0.4015	11.17859
0.402	10.37292
0.4025	12.08496
0.403	15.91187
0.4035	15.81116
0.404	9.76868
0.4045	6.94885
0.405	8.15735
0.4055	7.45239
0.406	2.81982
0.4065	3.02124
0.407	-1.40991
0.4075	-1.51062
0.408	3.12195
0.4085	2.81982
0.409	-0.90637
0.4095	3.42407
0.41	3.42407
0.4105	2.01416
0.411	-4.63257
0.4115	-0.80566
0.412	8.7616
0.4125	12.89062
0.413	18.42957
0.4135	26.58691
0.414	25.88196
0.4145	42.29736
0.415	52.26746
0.4155	60.3241
0.416	59.51843
0.4165	51.76392
0.417	31.52161
0.4175	14.30054
0.418	-1.00708
0.4185	30.51453
0.419	47.43347
0.4195	53.27454
0.42	42.09595
0.4205	21.3501
0.421	0.50354
0.4215	-21.85364
0.422	-36.25488
0.4225	-56.69861
0.423	-67.67578
0.4235	-69.28711
0.424	-73.21472
0.4245	-77.34375
0.425	-73.21472
0.4255	-70.59631
0.426	-60.4248
0.4265	-40.78674
0.427	-33.13293
0.4275	-22.86072
0.428	-12.89062
0.4285	-4.93469
0.429	1.51062
0.4295	7.75452
0.43	13.59558
0.4305	16.11328
0.431	16.51611
0.4315	17.32178
0.432	22.96143
0.4325	27.49329
0.433	32.02515
0.4335	28.9032
0.434	20.24231
0.4345	17.92603
0.435	11.07788
0.4355	4.73328
0.436	-3.22266
0.4365	0.30212
0.437	4.73328
0.4375	10.37292
0.438	9.26514
0.4385	18.73169
0.439	15.20691
0.4395	15.91187
0.44	27.59399
0.4405	26.58691
0.441	29.80957
0.4415	29.50745
0.442	29.50745
0.4425	23.76709
0.443	23.56567
0.4435	22.05505
0.444	18.32886
0.4445	16.91895
0.445	18.63098
0.4455	22.05505
0.446	22.15576
0.4465	14.40125
0.447	9.76868
0.4475	7.65381
0.448	3.62549
0.4485	7.75452
0.449	5.84106
0.4495	8.56018
0.45	2.5177
0.4505	-0.80566
0.451	-3.7262
0.4515	-5.94177
0.452	-6.84814
0.4525	1.81274
0.453	1.91345
0.4535	6.94885
0.454	3.52478
0.4545	3.02124
0.455	3.8269
0.4555	1.61133
0.456	-9.06372
0.4565	-7.25098
0.457	-5.0354
0.4575	-4.93469
0.458	-1.3092
0.4585	1.40991
0.459	1.10779
0.4595	7.15027
0.46	7.35168
0.4605	8.25806
0.461	9.76868
0.4615	12.48779
0.462	13.99841
0.4625	17.12036
0.463	17.01965
0.4635	15.40833
0.464	15.30762
0.4645	12.48779
0.465	11.88354
0.4655	13.29346
0.466	13.89771
0.4665	11.68213
0.467	11.88354
0.4675	5.94177
0.468	7.75452
0.4685	3.52478
0.469	5.33752
0.4695	4.02832
0.47	9.06372
0.4705	9.97009
0.471	11.48071
0.4715	4.63257
0.472	8.8623
0.4725	6.74744
0.473	5.94177
0.4735	10.57434
0.474	1.40991
0.4745	1.81274
0.475	-0.90637
0.4755	-5.53894
0.476	1.10779
0.4765	-2.81982
0.477	-7.04956
0.4775	-3.22266
0.478	-3.92761
0.4785	-1.81274
0.479	0.80566
0.4795	1.40991
0.48	2.01416
0.4805	-1.61133
0.481	0
0.4815	3.42407
0.482	0.60425
0.4825	8.35876
0.483	3.92761
0.4835	6.44531
0.484	7.75452
0.4845	4.83398
0.485	0.40283
0.4855	0.80566
0.486	-4.73328
0.4865	-2.92053
0.487	2.61841
0.4875	-3.22266
0.488	-4.83398
0.4885	-9.06372
0.489	-9.26514
0.4895	-11.17859
0.49	-9.26514
0.4905	-5.43823
0.491	-2.01416
0.4915	3.62549
0.492	4.83398
0.4925	7.95593
0.493	8.66089
0.4935	20.44373
0.494	17.22107
0.4945	9.56726
0.495	8.66089
0.4955	3.92761
0.496	9.56726
0.4965	2.31628
0.497	8.35876
0.4975	10.17151
0.498	9.16443
0.4985	3.02124
0.499	4.83398
0.4995	11.07788
0.5	12.18567
0.5005	18.32886
0.501	14.80408
0.5015	12.5885
0.502	8.8623
0.5025	10.57434
0.503	5.94177
0.5035	3.62549
0.504	0.60425
0.5045	4.12903
0.505	8.66089
0.5055	8.25806
0.506	9.76868
0.5065	10.0708
0.507	9.36584
0.5075	8.8623
0.508	11.78284
0.5085	10.97717
0.509	13.19275
0.5095	11.38
0.51	14.40125
0.5105	10.67505
0.511	9.97009
0.5115	10.47363
0.512	12.08496
0.5125	11.68213
0.513	10.0708
0.5135	11.07788
0.514	12.48779
0.5145	10.47363
0.515	8.45947
0.5155	8.05664
0.516	3.8269
0.5165	3.42407
0.517	1.10779
0.5175	6.74744
0.518	35.95276
0.5185	71.90552
0.519	86.8103
0.5195	84.39331
0.52	74.42322
0.5205	55.3894
0.521	35.85205
0.5215	16.51611
0.522	-1.71204
0.5225	-11.78284
0.523	-22.25647
0.5235	-14.30054
0.524	3.12195
0.5245	8.66089
0.525	-0.30212
0.5255	-4.33044
0.526	-7.75452
0.5265	-7.65381
0.527	-15.71045
0.5275	-17.92603
0.528	-26.78833
0.5285	-43.40515
0.529	-40.58533
0.5295	-43.60657
0.53	-47.93701
0.5305	-44.21082
0.531	-35.54993
0.5315	-22.15576
0.532	-11.98425
0.5325	-1.10779
0.533	1.40991
0.5335	2.11487
0.534	6.84814
0.5345	10.47363
0.535	4.53186
0.5355	7.25098
0.536	2.71912
0.5365	6.14319
0.537	1.2085
0.5375	0.60425
0.538	5.63965
0.5385	13.19275
0.539	6.44531
0.5395	6.94885
0.54	-2.01416
0.5405	-6.44531
0.541	-6.3446
0.5415	-9.66797
0.542	-10.17151
0.5425	-5.63965
0.543	-7.35168
0.5435	-1.10779
0.544	1.91345
0.5445	4.22974
0.545	16.81824
0.5455	19.73877
0.546	19.63806
0.5465	16.11328
0.547	17.01965
0.5475	15.00549
0.548	12.68921
0.5485	14.40125
0.549	17.52319
0.5495	15.91187
0.55	11.58142
0.5505	10.67505
0.551	10.37292
0.5515	14.90479
0.552	20.24231
0.5525	22.76001
0.553	14.90479
0.5535	16.21399
0.554	12.78992
0.5545	8.7616
0.555	7.35168
0.5555	2.92053
0.556	-1.61133
0.5565	-7.15027
0.557	-6.04248
0.5575	-5.84106
0.558	-2.11487
0.5585	-6.94885
0.559	0.80566
0.5595	0.50354
0.56	4.02832
0.5605	-1.40991
0.561	-0.10071
0.5615	-0.40283
0.562	-9.86938
0.5625	-8.7616
0.563	-9.76868
0.5635	-3.8269
0.564	0.10071
0.5645	4.93469
0.565	6.94885
0.5655	-1.51062
0.566	1.10779
0.5665	2.41699
0.567	7.04956
0.5675	4.33044
0.568	-0.30212
0.5685	-4.43115
0.569	-7.45239
0.5695	-6.14319
0.57	-5.84106
0.5705	0.90637
0.571	0.20142
0.5715	7.95593
0.572	7.95593
0.5725	11.78284
0.573	10.37292
0.5735	17.42249
0.574	16.01257
0.5745	17.42249
0.575	15.71045
0.5755	11.78284
0.576	9.76868
0.5765	10.87646
0.577	10.17151
0.5775	9.06372
0.578	11.17859
0.5785	9.06372
0.579	14.90479
0.5795	16.11328
0.58	14.80408
0.5805	13.29346
0.581	13.69629
0.5815	5.33752
0.582	13.29346
0.5825	15.91187
0.583	14.60266
0.5835	15.1062
0.584	11.07788
0.5845	5.63965
0.585	10.77576
0.5855	4.93469
0.586	5.43823
0.5865	9.46655
0.587	9.06372
0.5875	12.78992
0.588	12.99133
0.5885	9.86938
0.589	9.46655
0.5895	2.31628
0.59	5.33752
0.5905	3.02124
0.591	9.56726
0.5915	3.22266
0.592	3.62549
0.5925	4.33044
0.593	-0.10071
0.5935	9.86938
0.594	5.13611
0.5945	5.84106
0.595	7.85522
0.5955	7.75452
0.596	3.22266
0.5965	-2.01416
0.597	-2.71912
0.5975	-8.7616
0.598	-3.32336
0.5985	-8.15735
0.599	-2.11487
0.5995	-5.94177
0.6	-12.78992
0.6005	6.04248
0.601	10.97717
0.6015	7.95593
0.602	4.12903
0.6025	7.85522
0.603	16.01257
0.6035	15.60974
0.604	10.47363
0.6045	12.78992
0.605	12.99133
0.6055	17.82532
0.606	16.61682
0.6065	20.1416
0.607	15.30762
0.6075	11.48071
0.608	10.37292
0.6085	4.33044
0.609	1.00708
0.6095	-3.52478
0.61	-5.94177
0.6105	-1.91345
0.611	-2.71912
0.6115	-4.22974
0.612	-3.92761
0.6125	-3.52478
0.613	-1.71204
0.6135	-8.35876
0.614	-8.7616
0.6145	-8.66089
0.615	0.90637
0.6155	1.51062
0.616	0.20142
0.6165	3.22266
0.617	2.81982
0.6175	3.92761
0.618	3.42407
0.6185	6.64673
0.619	8.8623
0.6195	9.66797
0.62	7.25098
0.6205	10.87646
0.621	12.08496
0.6215	11.88354
0.622	7.35168
0.6225	10.0708
0.623	3.7262
0.6235	-0.70496
0.624	-1.71204
0.6245	6.14319
0.625	-0.10071
0.6255	1.10779
0.626	-1.61133
0.6265	4.22974
0.627	2.21558
0.6275	9.16443
0.628	11.98425
0.6285	9.97009
0.629	6.94885
0.6295	5.0354
0.63	4.33044
0.6305	4.33044
0.631	1.51062
0.6315	2.01416
0.632	3.32336
0.6325	0.50354
0.633	2.21558
0.6335	11.2793
0.634	54.0802
0.6345	95.16907
0.635	101.21155
0.6355	90.83862
0.636	72.20764
0.6365	51.86462
0.637	34.24072
0.6375	13.29346
0.638	-7.5531
0.6385	-27.79541
0.639	-45.92285
0.6395	-50.15259
0.64	-55.69153
0.6405	-59.82056
0.641	-58.10852
0.6415	-58.51135
0.642	-41.59241
0.6425	-33.03223
0.643	-24.16992
0.6435	-12.89062
0.644	-10.67505
0.6445	-7.65381
0.645	-6.94885
0.6455	1.71204
0.646	4.12903
0.6465	9.26514
0.647	10.17151
0.6475	9.46655
0.648	10.57434
0.6485	19.83948
0.649	16.21399
0.6495	12.68921
0.65	14.19983
0.6505	16.3147
0.651	11.88354
0.6515	11.68213
0.652	8.15735
0.6525	3.52478
0.653	6.3446
0.6535	6.2439
0.654	2.21558
0.6545	6.44531
0.655	3.92761
0.6555	4.33044
0.656	1.00708
0.6565	4.73328
0.657	4.73328
0.6575	8.96301
0.658	3.12195
0.6585	2.71912
0.659	3.8269
0.6595	13.09204
0.66	10.57434
0.6605	10.87646
0.661	16.61682
0.6615	13.69629
0.662	7.35168
0.6625	1.71204
0.663	-9.46655
0.6635	-13.69629
0.664	-16.71753
0.6645	-18.63098
0.665	-21.3501
0.6655	-17.01965
0.666	-12.48779
0.6665	-11.48071
0.667	-11.17859
0.6675	-12.99133
0.668	-7.45239
0.6685	4.53186
0.669	14.09912
0.6695	23.26355
0.67	22.76001
0.6705	26.98975
0.671	28.70178
0.6715	27.59399
0.672	29.40674
0.6725	25.47913
0.673	23.36426
0.6735	33.53577
0.674	23.36426
0.6745	17.42249
0.675	17.52319
0.6755	13.797
0.676	11.48071
0.6765	13.29346
0.677	10.27222
0.6775	14.09912
0.678	12.38708
0.6785	13.797
0.679	9.97009
0.6795	10.87646
0.68	9.97009
0.6805	12.48779
0.681	14.50195
0.6815	12.18567
0.682	13.69629
0.6825	10.27222
0.683	1.40991
0.6835	1.51062
0.684	1.71204
0.6845	0.60425
0.685	-0.80566
0.6855	4.43115
0.686	4.02832
0.6865	-0.30212
0.687	7.95593
0.6875	6.2439
0.688	4.53186
0.6885	0.90637
0.689	3.8269
0.6895	7.95593
0.69	-2.11487
0.6905	3.22266
0.691	1.00708
0.6915	4.83398
0.692	7.45239
0.6925	6.2439
0.693	1.81274
0.6935	2.31628
0.694	1.10779
0.6945	7.04956
0.695	3.52478
0.6955	-2.31628
0.696	6.74744
0.6965	2.71912
0.697	1.51062
0.6975	7.85522
0.698	3.22266
0.6985	0.70496
0.699	-3.52478
0.6995	-2.01416
0.7	-9.36584
0.7005	4.63257
0.701	32.42798
0.7015	45.82214
0.702	42.8009
0.7025	37.96692
0.703	29.40674
0.7035	13.99841
0.704	2.11487
0.7045	-9.26514
0.705	-20.94727
0.7055	-21.95435
0.706	-31.4209
0.7065	-27.99683
0.707	-29.60815
0.7075	-28.09753
0.708	-22.6593
0.7085	-22.05505
0.709	-18.93311
0.7095	-18.53027
0.71	-14.19983
0.7105	-10.57434
0.711	-6.2439
0.7115	-4.63257
0.712	0.40283
0.7125	2.31628
0.713	2.31628
0.7135	2.81982
0.714	6.54602
0.7145	2.81982
0.715	6.04248
0.7155	6.2439
0.716	6.94885
0.7165	4.43115
0.717	3.7262
0.7175	1.00708
0.718	3.12195
0.7185	4.43115
0.719	5.33752
0.7195	2.81982
0.72	1.00708
0.7205	0.50354
0.721	0.90637
0.7215	2.92053
0.722	1.91345
0.7225	1.10779
0.723	4.12903
0.7235	7.25098
0.724	7.35168
0.7245	8.56018
0.725	10.47363
0.7255	13.89771
0.726	14.60266
0.7265	16.61682
0.727	14.30054
0.7275	14.30054
0.728	17.32178
0.7285	21.45081
0.729	18.63098
0.7295	18.22815
0.73	16.81824
0.7305	16.21399
0.731	14.90479
0.7315	10.57434
0.732	8.8623
0.7325	7.25098
0.733	17.32178
0.7335	12.89062
0.734	5.53894
0.7345	12.5885
0.735	11.07788
0.7355	5.33752
0.736	12.28638
0.7365	9.06372
0.737	11.58142
0.7375	5.13611
0.738	7.5531
0.7385	13.49487
0.739	7.25098
0.7395	12.78992
0.74	11.58142
0.7405	11.07788
0.741	19.83948
0.7415	18.32886
0.742	19.53735
0.7425	15.30762
0.743	8.56018
0.7435	12.68921
0.744	13.49487
0.7445	17.82532
0.745	12.28638
0.7455	12.28638
0.746	9.36584
0.7465	11.38
0.747	7.85522
0.7475	0.20142
0.748	5.33752
0.7485	1.71204
0.749	6.3446
0.7495	-0.70496
0.75	-0.30212
0.7505	1.00708
0.751	3.42407
0.7515	3.52478
0.752	4.12903
0.7525	9.66797
0.753	7.04956
0.7535	5.43823
0.754	3.7262
0.7545	6.2439
0.755	9.16443
0.7555	9.97009
0.756	7.15027
0.7565	9.46655
0.757	12.38708
0.7575	18.22815
0.758	17.22107
0.7585	14.30054
0.759	10.0708
0.7595	7.95593
0.76	3.22266
0.7605	7.65381
0.761	57.00073
0.7615	93.25562
0.762	107.35474
0.7625	104.4342
0.763	90.73792
0.7635	67.57507
0.764	49.24622
0.7645	22.96143
0.765	-2.92053
0.7655	-27.99683
0.766	-35.44922
0.7665	-54.68445
0.767	-62.33826
0.7675	-69.08569
0.768	-78.65295
0.7685	-70.3949
0.769	-55.3894
0.7695	-50.85754
0.77	-49.44763
0.7705	-49.64905
0.771	-38.77258
0.7715	-30.2124
0.772	-14.90479
0.7725	-5.94177
0.773	2.41699
0.7735	8.45947
0.774	16.81824
0.7745	24.06921
0.775	35.44922
0.7755	30.01099
0.776	43.70728
0.7765	42.19666
0.777	45.01648
0.7775	50.05188
0.778	47.63489
0.7785	44.41223
0.779	32.32727
0.7795	18.8324
0.78	11.17859
0.7805	5.53894
0.781	6.54602
0.7815	3.02124
0.782	-1.3092
0.7825	-3.92761
0.783	-2.92053
0.7835	1.2085
0.784	6.54602
0.7845	9.76868
0.785	6.94885
0.7855	10.47363
0.786	10.37292
0.7865	14.60266
0.787	15.60974
0.7875	14.60266
0.788	16.61682
0.7885	15.81116
0.789	9.06372
0.7895	11.78284
0.79	7.65381
0.7905	5.13611
0.791	10.57434
0.7915	9.66797
0.792	4.02832
0.7925	4.43115
0.793	4.33044
0.7935	3.62549
0.794	2.92053
0.7945	-0.70496
0.795	0.50354
0.7955	-0.30212
0.796	1.81274
0.7965	2.41699
0.797	-2.92053
0.7975	-6.54602
0.798	-4.73328
0.7985	-0.50354
0.799	-1.3092
0.7995	-1.91345
0.8	15.71045
0.8005	41.59241
0.801	55.59082
0.8015	53.07312
0.802	47.53418
0.8025	39.98108
0.803	27.6947
0.8035	16.81824
0.804	2.5177
0.8045	-3.42407
0.805	-7.45239
0.8055	-12.89062
0.806	-12.48779
0.8065	-14.60266
0.807	-19.43665
0.8075	-20.54443
0.808	-22.45789
0.8085	-25.177
0.809	-20.64514
0.8095	-13.49487
0.81	-14.50195
0.8105	-15.50903
0.811	-12.99133
0.8115	-5.94177
0.812	-7.45239
0.8125	-5.94177
0.813	6.54602
0.8135	3.8269
0.814	4.02832
0.8145	5.63965
0.815	6.2439
0.8155	6.44531
0.816	2.92053
0.8165	2.5177
0.817	5.94177
0.8175	9.06372
0.818	8.05664
0.8185	9.76868
0.819	6.54602
0.8195	7.65381
0.82	6.54602
0.8205	11.38
0.821	7.45239
0.8215	4.53186
0.822	1.61133
0.8225	-5.23682
0.823	-3.12195
0.8235	-3.12195
0.824	0.80566
0.8245	4.63257
0.825	0
0.8255	6.54602
0.826	9.86938
0.8265	7.65381
0.827	13.59558
0.8275	8.25806
0.828	14.30054
0.8285	17.82532
0.829	18.42957
0.8295	18.8324
0.83	19.73877
0.8305	15.40833
0.831	14.19983
0.8315	11.98425
0.832	11.17859
0.8325	6.74744
0.833	7.95593
0.8335	7.25098
0.834	9.06372
0.8345	6.14319
0.835	7.75452
0.8355	3.8269
0.836	4.73328
0.8365	-1.51062
0.837	-0.40283
0.8375	3.62549
0.838	0.20142
0.8385	0.10071
0.839	-1.51062
0.8395	8.56018
0.84	4.63257
0.8405	11.2793
0.841	9.46655
0.8415	9.56726
0.842	3.42407
0.8425	2.5177
0.843	8.15735
0.8435	8.35876
0.844	6.14319
0.8445	7.45239
0.845	9.76868
0.8455	5.53894
0.846	5.53894
0.8465	8.96301
0.847	7.75452
0.8475	9.26514
0.848	5.63965
0.8485	7.85522
0.849	6.84814
0.8495	12.08496
0.85	11.07788
0.8505	9.36584
0.851	12.99133
0.8515	16.01257
0.852	9.76868
0.8525	4.02832
0.853	3.22266
0.8535	4.83398
0.854	7.5531
0.8545	6.04248
0.855	6.64673
0.8555	1.91345
0.856	7.25098
0.8565	4.22974
0.857	4.63257
0.8575	10.77576
0.858	6.94885
0.8585	3.12195
0.859	0.60425
0.8595	3.42407
0.86	9.36584
0.8605	2.11487
0.861	4.22974
0.8615	1.3092
0.862	4.83398
0.8625	6.04248
0.863	3.62549
0.8635	4.93469
0.864	6.04248
0.8645	13.797
0.865	10.47363
0.8655	9.76868
0.866	15.91187
0.8665	2.71912
0.867	14.09912
0.8675	11.07788
0.868	10.57434
0.8685	47.23206
0.869	82.07703
0.8695	95.37048
0.87	80.36499
0.8705	73.21472
0.871	55.3894
0.8715	26.48621
0.872	1.71204
0.8725	-15.50903
0.873	-34.84497
0.8735	-43.80798
0.874	-49.64905
0.8745	-55.18799
0.875	-54.38232
0.8755	-53.17383
0.876	-45.01648
0.8765	-40.58533
0.877	-22.6593
0.8775	-17.42249
0.878	-13.19275
0.8785	-7.85522
0.879	-4.22974
0.8795	-1.61133
0.88	-5.0354
0.8805	0.80566
0.881	5.33752
0.8815	3.22266
0.882	2.21558
0.8825	-0.60425
0.883	6.14319
0.8835	9.46655
0.884	6.84814
0.8845	3.92761
0.885	-0.70496
0.8855	2.01416
0.886	5.33752
0.8865	2.21558
0.887	4.43115
0.8875	6.64673
0.888	12.68921
0.8885	7.65381
0.889	4.83398
0.8895	3.12195
0.89	0.70496
0.8905	3.12195
0.891	2.92053
0.8915	7.35168
0.892	10.27222
0.8925	-1.71204
0.893	-2.92053
0.8935	-3.8269
0.894	-3.92761
0.8945	-1.91345
0.895	4.83398
0.8955	3.52478
0.896	10.17151
0.8965	13.19275
0.897	12.78992
0.8975	17.72461
0.898	18.73169
0.8985	22.96143
0.899	17.82532
0.8995	17.12036
0.9	18.32886
0.9005	29.10461
0.901	31.62231
0.9015	35.75134
0.902	29.91028
0.9025	25.47913
0.903	18.63098
0.9035	8.8623
0.904	1.61133
0.9045	0.60425
0.905	-3.02124
0.9055	-11.38
0.906	-3.7262
0.9065	-6.3446
0.907	-3.42407
0.9075	-6.54602
0.908	4.43115
0.9085	1.40991
0.909	4.73328
0.9095	10.47363
0.91	14.50195
0.9105	11.68213
0.911	11.98425
0.9115	6.94885
0.912	13.39417
0.9125	9.16443
0.913	7.95593
0.9135	17.52319
0.914	13.59558
0.9145	15.60974
0.915	10.47363
0.9155	12.68921
0.916	9.46655
0.9165	9.46655
0.917	12.99133
0.9175	6.74744
0.918	11.17859
0.9185	7.25098
0.919	0.30212
0.9195	4.12903
0.92	-2.31628
0.9205	6.44531
0.921	-1.2085
0.9215	5.43823
0.922	3.92761
0.9225	8.7616
0.923	2.11487
0.9235	4.12903
0.924	0.90637
0.9245	-2.81982
0.925	1.2085
0.9255	4.93469
0.926	4.53186
0.9265	4.73328
0.927	-1.71204
0.9275	3.22266
0.928	1.91345
0.9285	2.81982
0.929	2.81982
0.9295	-2.31628
0.93	2.92053
0.9305	0.60425
0.931	3.32336
0.9315	2.21558
0.932	3.7262
0.9325	3.32336
0.933	5.0354
0.9335	5.94177
0.934	-0.10071
0.9345	3.42407
0.935	1.10779
0.9355	3.62549
0.936	7.85522
0.9365	5.43823
0.937	7.65381
0.9375	13.29346
0.938	8.25806
0.9385	3.02124
0.939	11.78284
0.9395	9.56726
0.94	11.98425
0.9405	10.47363
0.941	10.37292
0.9415	18.53027
0.942	19.33594
0.9425	17.52319
0.943	15.1062
0.9435	10.87646
0.944	9.66797
0.9445	9.36584
0.945	7.04956
0.9455	-0.50354
0.946	0.50354
0.9465	-1.51062
0.947	3.92761
0.9475	3.22266
0.948	2.61841
0.9485	4.53186
0.949	7.25098
0.9495	0.90637
0.95	-6.04248
0.9505	-11.17859
0.951	-14.19983
0.9515	-15.60974
0.952	-10.47363
0.9525	-11.2793
0.953	-15.50903
0.9535	-15.50903
0.954	-17.12036
0.9545	-10.57434
0.955	-5.13611
0.9555	-4.02832
0.956	-3.02124
0.9565	-7.75452
0.957	-2.11487
0.9575	13.99841
0.958	36.25488
0.9585	51.46179
0.959	55.59082
0.9595	38.67188
0.96	38.26904
0.9605	17.92603
0.961	0.40283
0.9615	-9.06372
0.962	-11.58142
0.9625	-18.42957
0.963	-20.64514
0.9635	-24.97559
0.964	-22.05505
0.9645	-18.22815
0.965	-18.8324
0.9655	-17.6239
0.966	-16.61682
0.9665	-5.94177
0.967	0.50354
0.9675	7.75452
0.968	9.06372
0.9685	15.30762
0.969	14.09912
0.9695	15.40833
0.97	10.87646
0.9705	18.73169
0.971	15.30762
0.9715	13.39417
0.972	8.7616
0.9725	8.15735
0.973	8.15735
0.9735	8.7616
0.974	11.38
0.9745	12.48779
0.975	9.36584
0.9755	10.37292
0.976	8.8623
0.9765	1.61133
0.977	-2.01416
0.9775	-2.92053
0.978	-4.93469
0.9785	-4.53186
0.979	-1.3092
0.9795	0.90637
0.98	0
0.9805	-2.31628
0.981	1.91345
0.9815	8.25806
0.982	11.68213
0.9825	10.17151
0.983	9.06372
0.9835	15.71045
0.984	13.797
0.9845	15.60974
0.985	14.50195
0.9855	10.57434
0.986	15.30762
0.9865	6.84814
0.987	10.37292
0.9875	14.30054
0.988	9.06372
0.9885	13.39417
0.989	6.04248
0.9895	6.04248
0.99	3.32336
0.9905	8.15735
0.991	0.80566
0.9915	4.43115
0.992	7.65381
0.9925	0.30212
0.993	-0.50354
0.9935	-3.32336
0.994	-0.60425
0.9945	1.91345
0.995	2.31628
0.9955	1.81274
0.996	7.04956
0.9965	5.94177
0.997	39.17542
0.9975	78.25012
0.998	96.98181
0.9985	94.76624
0.999	82.37915
0.9995	69.99207
1	40.58533
1.0005	24.87488
1.001	-2.5177
1.0015	-26.68762
1.002	-43.50586
1.0025	-46.22498
1.003	-51.86462
1.0035	-55.08728
1.004	-49.85046
1.0045	-47.13135
1.005	-39.88037
1.0055	-37.46338
1.006	-26.78833
1.0065	-20.44373
1.007	-15.81116
1.0075	-16.71753
1.008	-18.22815
1.0085	-22.55859
1.009	-14.60266
1.0095	-4.12903
1.01	-5.74036
1.0105	0
1.011	1.00708
1.0115	5.0354
1.012	7.5531
1.0125	6.54602
1.013	8.96301
1.0135	6.64673
1.014	8.96301
1.0145	6.2439
1.015	4.53186
1.0155	11.48071
1.016	16.21399
1.0165	11.38
1.017	8.56018
1.0175	13.49487
1.018	25.07629
1.0185	19.53735
1.019	23.06213
1.0195	18.32886
1.02	17.12036
1.0205	10.57434
1.021	11.58142
1.0215	23.16284
1.022	27.6947
1.0225	24.77417
1.023	21.45081
1.0235	18.32886
1.024	10.37292
1.0245	9.06372
1.025	6.3446
1.0255	8.7616
1.026	4.53186
1.0265	1.00708
1.027	-3.42407
1.0275	-3.62549
1.028	1.2085
1.0285	-2.41699
1.029	-6.44531
1.0295	-4.12903
1.03	-1.51062
1.0305	0.30212
1.031	-2.01416
1.0315	-0.30212
1.032	-0.80566
1.0325	-1.51062
1.033	-1.00708
1.0335	-0.80566
1.034	-2.5177
1.0345	3.92761
1.035	7.85522
1.0355	15.1062
1.036	9.66797
1.0365	12.78992
1.037	10.0708
1.0375	7.5531
1.038	3.52478
1.0385	4.73328
1.039	0.60425
1.0395	2.41699
1.04	4.22974
1.0405	0.30212
1.041	3.52478
1.0415	2.21558
1.042	4.73328
1.0425	5.33752
1.043	6.74744
1.0435	5.53894
1.044	7.35168
1.0445	6.54602
1.045	-0.40283
1.0455	8.8623
1.046	2.01416
1.0465	6.44531
1.047	7.75452
1.0475	8.56018
1.048	-0.80566
1.0485	4.02832
1.049	6.64673
1.0495	7.95593
1.05	1.51062
1.0505	2.41699
1.051	0.40283
1.0515	1.91345
1.052	3.8269
1.0525	9.76868
1.053	6.3446
1.0535	8.66089
1.054	11.07788
1.0545	10.57434
1.055	12.08496
1.0555	15.40833
1.056	12.28638
1.0565	7.5531
1.057	13.19275
1.0575	6.44531
1.058	6.94885
1.0585	7.65381
1.059	10.17151
1.0595	6.2439
1.06	3.92761
1.0605	-2.31628
1.061	1.3092
1.0615	1.71204
1.062	2.01416
1.0625	1.61133
1.063	1.00708
1.0635	-1.10779
1.064	2.41699
1.0645	3.8269
1.065	5.0354
1.0655	5.43823
1.066	5.63965
1.0665	0.70496
1.067	0.70496
1.0675	-1.51062
1.068	0.40283
1.0685	-1.00708
1.069	1.61133
1.0695	-2.01416
1.07	0.30212
1.0705	4.02832
1.071	6.14319
1.0715	10.37292
1.072	8.45947
1.0725	9.56726
1.073	6.74744
1.0735	9.97009
1.074	4.33044
1.0745	-0.20142
1.075	-2.01416
1.0755	0.90637
1.076	-1.00708
1.0765	-0.80566
1.077	1.00708
1.0775	6.74744
1.078	8.56018
1.0785	9.56726
1.079	9.66797
1.0795	9.16443
1.08	4.02832
1.0805	5.23682
1.081	12.89062
1.0815	14.09912
1.082	8.66089
1.0825	10.77576
1.083	9.66797
1.0835	8.96301
1.084	10.37292
1.0845	9.97009
1.085	15.60974
1.0855	5.33752
1.086	-1.2085
1.0865	-5.94177
1.087	-3.32336
1.0875	-4.22974
1.088	-2.01416
1.0885	3.92761
1.089	0.90637
1.0895	4.12903
1.09	7.25098
1.0905	12.99133
1.091	12.99133
1.0915	17.6239
1.092	18.42957
1.0925	17.82532
1.093	14.30054
1.0935	17.22107
1.094	7.75452
1.0945	10.37292
1.095	10.47363
1.0955	11.38
1.096	7.65381
1.0965	-0.40283
1.097	-0.70496
1.0975	-5.33752
1.098	-12.08496
1.0985	-0.50354
1.099	-0.40283
1.0995	0.70496
1.1	-2.61841
1.1005	-0.90637
1.101	3.92761
1.1015	10.57434
1.102	3.02124
1.1025	11.17859
1.103	11.07788
1.1035	6.14319
1.104	9.26514
1.1045	4.43115
1.105	2.81982
1.1055	7.45239
1.106	8.7616
1.1065	7.85522
1.107	2.31628
1.1075	6.74744
1.108	6.94885
1.1085	13.797
1.109	14.60266
1.1095	14.70337
1.11	19.53735
1.1105	16.51611
1.111	11.07788
1.1115	14.80408
1.112	7.25098
1.1125	9.06372
1.113	7.65381
1.1135	6.74744
1.114	8.05664
1.1145	7.65381
1.115	0.50354
1.1155	3.92761
1.116	20.64514
1.1165	48.03772
1.117	54.98657
1.1175	57.30286
1.118	47.23206
1.1185	37.26196
1.119	22.15576
1.1195	9.06372
1.12	1.00708
1.1205	-14.50195
1.121	-22.25647
1.1215	-29.70886
1.122	-36.75842
1.1225	-31.4209
1.123	-38.16833
1.1235	-5.0354
1.124	36.85913
1.1245	58.30994
1.125	66.16516
1.1255	56.09436
1.126	46.5271
1.1265	28.80249
1.127	10.57434
1.1275	-10.17151
1.128	-38.87329
1.1285	-58.30994
1.129	-69.38782
1.1295	-81.37207
1.13	-85.19897
1.1305	-78.95508
1.131	-71.40198
1.1315	-54.18091
1.132	-43.90869
1.1325	-29.30603
1.133	-15.60974
1.1335	2.81982
1.134	7.75452
1.1345	9.06372
1.135	13.49487
1.1355	18.42957
1.136	19.03381
1.1365	22.55859
1.137	20.44373
1.1375	21.75293
1.138	15.20691
1.1385	12.99133
1.139	11.98425
1.1395	11.58142
1.14	8.96301
1.1405	7.95593
1.141	4.53186
1.1415	7.65381
1.142	17.01965
1.1425	21.55151
1.143	18.32886
1.1435	23.66638
1.144	20.84656
1.1445	21.45081
1.145	21.75293
1.1455	18.93311
1.146	22.55859
1.1465	21.65222
1.147	12.08496
1.1475	15.20691
1.148	14.09912
1.1485	15.20691
1.149	9.36584
1.1495	4.93469
1.15	8.66089
1.1505	6.84814
1.151	6.54602
1.1515	6.64673
1.152	5.84106
1.1525	5.13611
1.153	5.0354
1.1535	9.26514
1.154	4.73328
1.1545	9.56726
1.155	15.1062
1.1555	8.35876
1.156	-4.12903
1.1565	-6.44531
1.157	-4.12903
1.1575	2.81982
1.158	-4.53186
1.1585	2.81982
1.159	-0.60425
1.1595	-1.2085
1.16	-3.42407
1.1605	2.31628
1.161	2.41699
1.1615	5.13611
1.162	5.13611
1.1625	7.85522
1.163	8.15735
1.1635	17.6239
1.164	20.64514
1.1645	22.76001
1.165	31.82373
1.1655	30.91736
1.166	23.06213
1.1665	17.32178
1.167	13.29346
1.1675	6.84814
1.168	6.3446
1.1685	16.61682
1.169	18.22815
1.1695	16.21399
1.17	18.32886
1.1705	14.90479
1.171	7.5531
1.1715	2.61841
1.172	-3.52478
1.1725	-7.5531
1.173	-8.25806
1.1735	-18.8324
1.174	-25.98267
1.1745	-24.67346
1.175	-15.71045
1.1755	-12.28638
1.176	-11.88354
1.1765	-8.66089
1.177	1.51062
1.1775	7.15027
1.178	7.04956
1.1785	9.76868
1.179	5.43823
1.1795	9.46655
1.18	-2.11487
1.1805	-8.66089
1.181	-5.13611
1.1815	-4.53186
1.182	0.70496
1.1825	1.2085
1.183	8.25806
1.1835	16.3147
1.184	15.50903
1.1845	15.81116
1.185	18.42957
1.1855	10.37292
1.186	16.51611
1.1865	14.60266
1.187	12.78992
1.1875	13.797
1.188	17.22107
1.1885	15.91187
1.189	10.17151
1.1895	10.27222
1.19	12.28638
1.1905	9.86938
1.191	6.84814
1.1915	8.45947
1.192	4.83398
1.1925	1.10779
1.193	2.61841
1.1935	1.91345
1.194	2.41699
1.1945	0.50354
1.195	2.11487
1.1955	3.62549
1.196	-2.81982
1.1965	-1.2085
1.197	4.22974
1.1975	0
1.198	2.5177
1.1985	10.0708
1.199	7.45239
1.1995	9.46655
1.2	6.3446
1.2005	10.0708
1.201	10.37292
1.2015	12.5885
1.202	9.97009
1.2025	10.57434
1.203	0.40283
1.2035	4.63257
1.204	0.80566
1.2045	3.8269
1.205	6.74744
1.2055	0.90637
1.206	8.96301
1.2065	7.04956
1.207	10.0708
1.2075	6.44531
1.208	-3.02124
1.2085	-3.42407
1.209	-2.81982
1.2095	-5.63965
1.21	0.30212
1.2105	-4.93469
1.211	-5.23682
1.2115	-4.02832
1.212	1.61133
1.2125	6.44531
1.213	2.31628
1.2135	0.90637
1.214	3.02124
1.2145	5.94177
1.215	5.0354
1.2155	7.5531
1.216	7.25098
1.2165	5.53894
1.217	-2.81982
1.2175	-0.70496
1.218	0.10071
1.2185	-0.40283
1.219	-0.50354
1.2195	1.2085
1.22	1.91345
1.2205	7.75452
1.221	7.04956
1.2215	7.45239
1.222	6.2439
1.2225	9.76868
1.223	6.04248
1.2235	6.04248
1.224	9.06372
1.2245	7.95593
1.225	12.38708
1.2255	9.66797
1.226	5.94177
1.2265	7.15027
1.227	11.88354
1.2275	5.74036
1.228	3.7262
1.2285	4.02832
1.229	1.3092
1.2295	3.62549
1.23	3.42407
1.2305	2.71912
1.231	4.33044
1.2315	1.71204
1.232	-0.80566
1.2325	-6.94885
1.233	-3.32336
1.2335	-4.43115
1.234	-4.43115
1.2345	-6.74744
1.235	-5.33752
1.2355	-1.40991
1.236	-0.30212
1.2365	6.14319
1.237	10.97717
1.2375	9.26514
1.238	11.98425
1.2385	4.53186
1.239	8.15735
1.2395	8.8623
1.24	8.35876
1.2405	7.95593
1.241	8.25806
1.2415	10.67505
1.242	4.12903
1.2425	1.00708
1.243	2.61841
1.2435	4.22974
1.244	-0.30212
1.2445	14.40125
1.245	62.53967
1.2455	88.11951
1.246	95.16907
1.2465	84.69543
1.247	77.44446
1.2475	58.91418
1.248	38.47046
1.2485	20.54443
1.249	-1.3092
1.2495	-20.84656
1.25	-35.34851
1.2505	-43.40515
1.251	-59.51843
1.2515	-58.20923
1.252	-55.59082
1.2525	-49.24622
1.253	-43.30444
1.2535	-30.51453
1.254	-21.95435
1.2545	-11.78284
1.255	-14.40125
1.2555	-13.29346
1.256	-4.43115
1.2565	-4.83398
1.257	-2.11487
1.2575	-1.2085
1.258	3.7262
1.2585	1.81274
1.259	6.44531
1.2595	15.1062
1.26	18.8324
1.2605	11.48071
1.261	15.50903
1.2615	16.3147
1.262	4.73328
1.2625	5.13611
1.263	4.83398
1.2635	4.53186
1.264	6.64673
1.2645	5.43823
1.265	10.87646
1.2655	20.94727
1.266	17.01965
1.2665	20.84656
1.267	14.80408
1.2675	11.88354
1.268	9.86938
1.2685	10.77576
1.269	15.00549
1.2695	11.78284
1.27	8.25806
1.2705	9.86938
1.271	8.45947
1.2715	8.25806
1.272	9.06372
1.2725	6.2439
1.273	8.66089
1.2735	6.94885
1.274	6.64673
1.2745	5.74036
1.275	1.2085
1.2755	2.21558
1.276	5.23682
1.2765	1.61133
1.277	5.74036
1.2775	6.44531
1.278	8.05664
1.2785	4.33044
1.279	10.77576
1.2795	11.58142
1.28	7.65381
1.2805	10.97717
1.281	9.06372
1.2815	6.74744
1.282	7.15027
1.2825	9.66797
1.283	8.15735
1.2835	8.96301
1.284	7.25098
1.2845	6.74744
1.285	7.45239
1.2855	6.94885
1.286	4.53186
1.2865	5.13611
1.287	5.53894
1.2875	4.33044
1.288	12.99133
1.2885	3.52478
1.289	5.0354
1.2895	1.71204
1.29	9.16443
1.2905	9.46655
1.291	11.98425
1.2915	10.37292
1.292	8.35876
1.2925	13.39417
1.293	14.60266
1.2935	13.89771
1.294	13.797
1.2945	12.68921
1.295	13.69629
1.2955	9.97009
1.296	30.11169
1.2965	55.69153
1.297	62.13684
1.2975	55.2887
1.298	48.74268
1.2985	47.23206
1.299	40.48462
1.2995	25.07629
1.3	14.70337
1.3005	-1.2085
1.301	-11.2793
1.3015	-17.22107
1.302	-25.68054
1.3025	-33.03223
1.303	-40.58533
1.3035	-44.91577
1.304	-45.82214
1.3045	-42.39807
1.305	-30.01099
1.3055	-26.3855
1.306	-15.00549
1.3065	-6.64673
1.307	1.3092
1.3075	8.45947
1.308	8.15735
1.3085	15.81116
1.309	10.0708
1.3095	14.70337
1.31	15.40833
1.3105	16.3147
1.311	16.71753
1.3115	20.44373
1.312	22.35718
1.3125	24.67346
1.313	17.52319
1.3135	23.46497
1.314	18.32886
1.3145	14.60266
1.315	12.18567
1.3155	11.88354
1.316	16.71753
1.3165	11.2793
1.317	10.57434
1.3175	7.45239
1.318	10.87646
1.3185	12.99133
1.319	6.94885
1.3195	7.35168
1.32	6.14319
1.3205	5.63965
1.321	2.71912
1.3215	-2.5177
1.322	-0.50354
1.3225	-6.84814
1.323	-8.25806
1.3235	-6.44531
1.324	-2.92053
1.3245	-8.45947
1.325	-6.64673
1.3255	0.60425
1.326	-3.62549
1.3265	2.92053
1.327	-1.2085
1.3275	-0.30212
1.328	2.61841
1.3285	-5.13611
1.329	-11.68213
1.3295	-10.67505
1.33	-10.17151
1.3305	-11.68213
1.331	-10.27222
1.3315	-6.44531
1.332	-6.74744
1.3325	-5.74036
1.333	1.71204
1.3335	-0.70496
1.334	5.63965
1.3345	5.94177
1.335	8.96301
1.3355	7.75452
1.336	6.04248
1.3365	4.73328
1.337	12.08496
1.3375	10.17151
1.338	9.97009
1.3385	11.48071
1.339	14.19983
1.3395	6.14319
1.34	6.2439
1.3405	2.31628
1.341	5.0354
1.3415	-2.21558
1.342	-2.5177
1.3425	-5.63965
1.343	-5.33752
1.3435	-0.70496
1.344	1.2085
1.3445	-1.61133
1.345	3.7262
1.3455	3.02124
1.346	3.22266
1.3465	-0.20142
1.347	4.83398
1.3475	3.02124
1.348	-1.10779
1.3485	1.91345
1.349	2.92053
1.3495	10.17151
1.35	6.84814
1.3505	9.26514
1.351	4.93469
1.3515	16.71753
1.352	24.06921
1.3525	21.85364
1.353	14.80408
1.3535	11.38
1.354	12.48779
1.3545	7.04956
1.355	9.56726
1.3555	6.04248
1.356	2.92053
1.3565	2.31628
1.357	-2.41699
1.3575	-2.5177
1.358	5.63965
1.3585	7.35168
1.359	8.35876
1.3595	6.64673
1.36	8.7616
1.3605	4.93469
1.361	7.25098
1.3615	2.92053
1.362	9.36584
1.3625	12.78992
1.363	11.48071
1.3635	18.12744
1.364	16.81824
1.3645	17.52319
1.365	13.29346
1.3655	38.16833
1.366	77.04163
1.3665	95.67261
1.367	100.40588
1.3675	88.72375
1.368	62.9425
1.3685	45.3186
1.369	28.9032
1.3695	7.25098
1.37	-16.71753
1.3705	-28.9032
1.371	-42.90161
1.3715	-51.76392
1.372	-61.73401
1.3725	-55.08728
1.373	-56.5979
1.3735	-48.23914
1.374	-43.20374
1.3745	-31.11877
1.375	-22.6593
1.3755	-15.40833
1.376	-8.8623
1.3765	-4.43115
1.377	0.40283
1.3775	-0.80566
1.378	7.95593
1.3785	6.84814
1.379	15.40833
1.3795	15.50903
1.38	19.13452
1.3805	26.28479
1.381	24.06921
1.3815	19.94019
1.382	19.73877
1.3825	11.2793
1.383	13.29346
1.3835	11.78284
1.384	16.91895
1.3845	17.82532
1.385	18.12744
1.3855	19.33594
1.386	14.60266
1.3865	17.92603
1.387	12.08496
1.3875	12.18567
1.388	12.28638
1.3885	9.76868
1.389	8.35876
1.3895	5.74036
1.39	8.56018
1.3905	15.50903
1.391	15.20691
1.3915	13.19275
1.392	4.12903
1.3925	6.94885
1.393	9.46655
1.3935	7.75452
1.394	9.16443
1.3945	9.97009
1.395	4.53186
1.3955	7.04956
1.396	9.16443
1.3965	10.0708
1.397	14.09912
1.3975	14.60266
1.398	17.01965
1.3985	18.32886
1.399	11.58142
1.3995	7.85522
1.4	15.40833
1.4005	35.54993
1.401	50.354
1.4015	55.99365
1.402	55.49011
1.4025	49.24622
1.403	37.66479
1.4035	20.1416
1.404	8.96301
1.4045	-8.05664
1.405	-17.6239
1.4055	-20.44373
1.406	-30.41382
1.4065	-31.62231
1.407	-28.19824
1.4075	-25.68054
1.408	-27.49329
1.4085	-20.94727
1.409	-20.1416
1.4095	-10.77576
1.41	-8.45947
1.4105	-2.61841
1.411	1.51062
1.4115	4.73328
1.412	12.18567
1.4125	16.41541
1.413	13.19275
1.4135	7.35168
1.414	7.45239
1.4145	0.50354
1.415	-4.83398
1.4155	-5.43823
1.416	-10.0708
1.4165	-16.01257
1.417	-9.16443
1.4175	-9.76868
1.418	-5.13611
1.4185	7.5531
1.419	13.29346
1.4195	3.22266
1.42	14.19983
1.4205	15.1062
1.421	14.40125
1.4215	14.70337
1.422	14.09912
1.4225	22.35718
1.423	14.19983
1.4235	14.60266
1.424	13.797
1.4245	10.57434
1.425	7.25098
1.4255	5.74036
1.426	10.97717
1.4265	9.36584
1.427	10.27222
1.4275	4.33044
1.428	0.40283
1.4285	1.81274
1.429	-0.40283
1.4295	-6.2439
1.43	-5.74036
1.4305	-8.35876
1.431	-16.61682
1.4315	-15.30762
1.432	-13.59558
1.4325	-10.87646
1.433	-17.22107
1.4335	-14.40125
1.434	-11.78284
1.4345	-8.45947
1.435	-3.22266
1.4355	-2.5177
1.436	0.70496
1.4365	-5.13611
1.437	2.71912
1.4375	-1.61133
1.438	5.43823
1.4385	11.07788
1.439	13.29346
1.4395	11.2793
1.44	9.76868
1.4405	9.26514
1.441	9.06372
1.4415	7.15027
1.442	5.94177
1.4425	8.05664
1.443	3.12195
1.4435	10.87646
1.444	8.66089
1.4445	5.53894
1.445	15.1062
1.4455	15.81116
1.446	20.1416
1.4465	25.88196
1.447	21.3501
1.4475	18.93311
1.448	17.72461
1.4485	17.72461
1.449	18.8324
1.4495	23.36426
1.45	18.42957
1.4505	20.54443
1.451	12.78992
1.4515	14.70337
1.452	9.76868
1.4525	4.93469
1.453	11.58142
1.4535	12.89062
1.454	10.97717
1.4545	13.49487
1.455	12.18567
1.4555	4.33044
1.456	5.33752
1.4565	7.35168
1.457	7.75452
1.4575	1.51062
1.458	0.80566
1.4585	0.40283
1.459	-0.10071
1.4595	2.11487
1.46	-1.10779
1.4605	2.71912
1.461	4.83398
1.4615	-3.8269
1.462	6.74744
1.4625	1.2085
1.463	6.84814
1.4635	7.35168
1.464	7.35168
1.4645	1.61133
1.465	-4.02832
1.4655	0.80566
1.466	-2.61841
1.4665	0.20142
1.467	0.90637
1.4675	2.92053
1.468	4.73328
1.4685	1.81274
1.469	8.45947
1.4695	41.4917
1.47	79.05579
1.4705	94.56482
1.471	91.94641
1.4715	75.22888
1.472	60.3241
1.4725	35.85205
1.473	12.5885
1.4735	-6.2439
1.474	-29.50745
1.4745	-45.3186
1.475	-47.43347
1.4755	-56.5979
1.476	-58.71277
1.4765	-54.98657
1.477	-51.15967
1.4775	-36.05347
1.478	-33.33435
1.4785	-19.43665
1.479	-11.48071
1.4795	-3.42407
1.48	1.40991
1.4805	-0.60425
1.481	0
1.4815	4.43115
1.482	4.73328
1.4825	3.8269
1.483	6.2439
1.4835	9.26514
1.484	15.40833
1.4845	15.50903
1.485	17.01965
1.4855	16.41541
1.486	13.89771
1.4865	11.78284
1.487	9.86938
1.4875	12.99133
1.488	14.19983
1.4885	6.84814
1.489	13.19275
1.4895	6.84814
1.49	2.81982
1.4905	9.66797
1.491	6.14319
1.4915	10.27222
1.492	7.65381
1.4925	10.37292
1.493	11.68213
1.4935	10.97717
1.494	6.84814
1.4945	6.54602
1.495	7.95593
1.4955	9.16443
1.496	3.32336
1.4965	7.15027
1.497	7.04956
1.4975	4.22974
1.498	3.32336
1.4985	1.61133
1.499	-2.01416
1.4995	-9.06372
1.5	-14.50195
1.5005	-9.86938
1.501	-6.54602
1.5015	-4.63257
1.502	-3.12195
1.5025	-9.06372
1.503	-11.98425
1.5035	-10.0708
1.504	-8.45947
1.5045	-5.84106
1.505	-6.3446
1.5055	-3.32336
1.506	7.15027
1.5065	8.8623
1.507	10.77576
1.5075	12.18567
1.508	18.93311
1.5085	12.5885
1.509	20.24231
1.5095	17.01965
1.51	12.18567
1.5105	11.38
1.511	12.68921
1.5115	15.71045
1.512	9.66797
1.5125	8.15735
1.513	11.48071
1.5135	14.30054
1.514	9.97009
1.5145	13.19275
1.515	12.5885
1.5155	10.57434
1.516	11.88354
1.5165	11.78284
1.517	11.88354
1.5175	9.97009
1.518	18.42957
1.5185	14.19983
1.519	17.6239
1.5195	13.797
1.52	11.38
1.5205	5.74036
1.521	3.7262
1.5215	5.33752
1.522	1.00708
1.5225	0.60425
1.523	-1.81274
1.5235	0.90637
1.524	-0.50354
1.5245	4.83398
1.525	-0.90637
1.5255	-1.00708
1.526	-4.22974
1.5265	-3.92761
1.527	-8.35876
1.5275	-7.35168
1.528	-11.17859
1.5285	-5.23682
1.529	-9.26514
1.5295	-7.04956
1.53	-8.96301
1.5305	-5.74036
1.531	-6.44531
1.5315	6.44531
1.532	5.23682
1.5325	6.64673
1.533	7.15027
1.5335	7.65381
1.534	6.64673
1.5345	12.68921
1.535	18.32886
1.5355	17.82532
1.536	23.76709
1.5365	18.42957
1.537	18.32886
1.5375	36.95984
1.538	60.02197
1.5385	62.74109
1.539	65.56091
1.5395	55.89294
1.54	41.79382
1.5405	36.05347
1.541	18.73169
1.5415	3.62549
1.542	-14.90479
1.5425	-22.55859
1.543	-23.76709
1.5435	-34.54285
1.544	-30.71594
1.5445	-27.49329
1.545	-26.08337
1.5455	-24.37134
1.546	-22.76001
1.5465	-13.99841
1.547	-8.96301
1.5475	-1.10779
1.548	2.41699
1.5485	-1.51062
1.549	4.02832
1.5495	4.73328
1.55	20.54443
1.5505	24.37134
1.551	18.32886
1.5515	21.04797
1.552	19.33594
1.5525	17.42249
1.553	8.45947
1.5535	6.2439
1.554	13.49487
1.5545	8.35876
1.555	2.01416
1.5555	-0.50354
1.556	-5.84106
1.5565	-8.35876
1.557	-10.57434
1.5575	-10.87646
1.558	-8.7616
1.5585	-3.92761
1.559	-7.04956
1.5595	-8.56018
1.56	-6.94885
1.5605	-8.15735
1.561	-6.44531
1.5615	-7.65381
1.562	-4.12903
1.5625	-5.33752
1.563	0.70496
1.5635	4.02832
1.564	2.01416
1.5645	0.80566
1.565	-1.10779
1.5655	2.21558
1.566	0.20142
1.5665	4.12903
1.567	1.3092
1.5675	0
1.568	0.60425
1.5685	3.62549
1.569	7.15027
1.5695	7.95593
1.57	3.92761
1.5705	5.33752
1.571	2.61841
1.5715	-1.40991
1.572	-1.00708
1.5725	3.8269
1.573	0.70496
1.5735	2.21558
1.574	5.74036
1.5745	4.93469
1.575	4.73328
1.5755	1.2085
1.576	2.41699
1.5765	2.61841
1.577	35.95276
1.5775	80.86853
1.578	97.88818
1.5785	93.25562
1.579	84.2926
1.5795	64.05029
1.58	39.88037
1.5805	13.49487
1.581	-10.47363
1.5815	-26.88904
1.582	-41.29028
1.5825	-48.84338
1.583	-51.05896
1.5835	-59.21631
1.584	-57.50427
1.5845	-57.20215
1.585	-46.92993
1.5855	-47.7356
1.586	-36.25488
1.5865	-24.47205
1.587	-12.18567
1.5875	-10.0708
1.588	-9.97009
1.5885	-7.15027
1.589	-0.50354
1.5895	5.33752
1.59	8.66089
1.5905	13.39417
1.591	17.42249
1.5915	15.1062
1.592	20.04089
1.5925	17.82532
1.593	17.72461
1.5935	19.94019
1.594	9.46655
1.5945	8.25806
1.595	7.04956
1.5955	9.36584
1.596	13.39417
1.5965	9.06372
1.597	18.63098
1.5975	17.12036
1.598	12.48779
1.5985	9.36584
1.599	12.28638
1.5995	19.43665
1.6	22.35718
1.6005	17.6239
1.601	18.32886
1.6015	19.03381
1.602	19.53735
1.6025	21.85364
1.603	19.43665
1.6035	16.41541
1.604	19.13452
1.6045	20.04089
1.605	12.28638
1.6055	11.68213
1.606	6.94885
1.6065	4.43115
1.607	-0.10071
1.6075	-3.42407
1.608	2.11487
1.6085	-1.10779
1.609	-3.22266
1.6095	-1.61133
1.61	-0.30212
1.6105	1.91345
1.611	-3.12195
1.6115	6.74744
1.612	6.84814
1.6125	4.83398
1.613	8.8623
1.6135	15.91187
1.614	13.19275
1.6145	12.38708
1.615	15.30762
1.6155	6.3446
1.616	7.04956
1.6165	2.81982
1.617	-3.32336
1.6175	-6.94885
1.618	-8.15735
1.6185	-7.45239
1.619	-4.12903
1.6195	-2.01416
1.62	1.00708
1.6205	6.3446
1.621	8.25806
1.6215	16.61682
1.622	22.35718
1.6225	25.57983
1.623	20.74585
1.6235	24.57275
1.624	19.03381
1.6245	22.76001
1.625	20.94727
1.6255	19.43665
1.626	17.72461
1.6265	9.46655
1.627	15.50903
1.6275	15.81116
1.628	13.29346
1.6285	8.96301
1.629	9.26514
1.6295	5.0354
1.63	0.30212
1.6305	3.02124
1.631	-0.60425
1.6315	0.80566
1.632	-1.00708
1.6325	1.91345
1.633	3.22266
1.6335	10.57434
1.634	20.24231
1.6345	40.88745
1.635	52.8717
1.6355	62.23755
1.636	57.50427
1.6365	48.23914
1.637	35.2478
1.6375	18.32886
1.638	-2.71912
1.6385	-17.32178
1.639	-20.44373
1.6395	-29.30603
1.64	-36.65771
1.6405	-38.06763
1.641	-48.74268
1.6415	-41.18958
1.642	-33.83789
1.6425	-29.00391
1.643	-24.77417
1.6435	-10.77576
1.644	-7.15027
1.6445	-4.02832
1.645	-4.73328
1.6455	1.40991
1.646	-2.81982
1.6465	1.2085
1.647	0.30212
1.6475	-0.70496
1.648	5.74036
1.6485	9.16443
1.649	12.48779
1.6495	8.35876
1.65	6.3446
1.6505	9.26514
1.651	3.92761
1.6515	2.21558
1.652	3.92761
1.6525	-4.33044
1.653	-4.53186
1.6535	-2.61841
1.654	-1.71204
1.6545	-2.71912
1.655	4.63257
1.6555	5.0354
1.656	8.7616
1.6565	3.62549
1.657	7.15027
1.6575	5.33752
1.658	3.8269
1.6585	11.58142
1.659	11.88354
1.6595	17.22107
1.66	11.38
1.6605	14.80408
1.661	13.89771
1.6615	9.56726
1.662	4.63257
1.6625	0
1.663	-5.43823
1.6635	-9.46655
1.664	-0.30212
1.6645	0.10071
1.665	3.32336
1.6655	0.20142
1.666	4.53186
1.6665	3.8269
1.667	6.2439
1.6675	6.3446
1.668	16.41541
1.6685	27.99683
1.669	29.00391
1.6695	20.44373
1.67	17.01965
1.6705	12.08496
1.671	6.84814
1.6715	8.66089
1.672	2.01416
1.6725	2.11487
1.673	3.8269
1.6735	10.47363
1.674	10.77576
1.6745	16.01257
1.675	60.62622
1.6755	88.11951
1.676	99.19739
1.6765	91.04004
1.677	70.79773
1.6775	50.2533
1.678	29.91028
1.6785	4.83398
1.679	-15.20691
1.6795	-37.26196
1.68	-47.03064
1.6805	-54.48303
1.681	-53.37524
1.6815	-56.39648
1.682	-52.06604
1.6825	-43.20374
1.683	-36.15417
1.6835	-29.40674
1.684	-21.14868
1.6845	-16.81824
1.685	-15.81116
1.6855	-14.40125
1.686	-6.94885
1.6865	0.50354
1.687	1.81274
1.6875	8.7616
1.688	5.74036
1.6885	7.04956
1.689	6.94885
1.6895	14.50195
1.69	14.50195
1.6905	6.04248
1.691	-0.60425
1.6915	3.62549
1.692	6.3446
1.6925	1.91345
1.693	5.0354
1.6935	7.95593
1.694	6.04248
1.6945	6.04248
1.695	8.15735
1.6955	6.64673
1.696	6.94885
1.6965	5.33752
1.697	7.15027
1.6975	9.36584
1.698	4.22974
1.6985	2.31628
1.699	1.61133
1.6995	5.63965
1.7	4.53186
1.7005	9.76868
1.701	7.35168
1.7015	7.45239
1.702	7.45239
1.7025	5.23682
1.703	9.97009
1.7035	7.35168
1.704	6.14319
1.7045	6.84814
1.705	8.56018
1.7055	11.07788
1.706	14.30054
1.7065	11.58142
1.707	6.64673
1.7075	0.40283
1.708	-6.3446
1.7085	-1.81274
1.709	-0.50354
1.7095	-1.81274
1.71	-1.71204
1.7105	-1.51062
1.711	-0.10071
1.7115	1.2085
1.712	1.40991
1.7125	-2.81982
1.713	-12.18567
1.7135	-11.98425
1.714	-11.07788
1.7145	-2.61841
1.715	1.51062
1.7155	3.62549
1.716	8.96301
1.7165	9.76868
1.717	9.16443
1.7175	13.89771
1.718	11.68213
1.7185	14.19983
1.719	14.30054
1.7195	13.69629
1.72	11.58142
1.7205	14.19983
1.721	11.88354
1.7215	10.0708
1.722	13.69629
1.7225	38.47046
1.723	60.4248
1.7235	59.21631
1.724	57.50427
1.7245	41.89453
1.725	28.70178
1.7255	16.41541
1.726	8.15735
1.7265	-0.80566
1.727	-17.72461
1.7275	-21.65222
1.728	-21.04797
1.7285	-18.02673
1.729	-26.78833
1.7295	-24.37134
1.73	-22.45789
1.7305	-15.20691
1.731	-11.58142
1.7315	-8.45947
1.732	-1.40991
1.7325	1.40991
1.733	6.44531
1.7335	17.22107
1.734	21.3501
1.7345	18.8324
1.735	19.03381
1.7355	16.11328
1.736	11.07788
1.7365	9.56726
1.737	9.66797
1.7375	4.63257
1.738	4.83398
1.7385	3.42407
1.739	0.60425
1.7395	1.2085
1.74	4.22974
1.7405	3.12195
1.741	-0.70496
1.7415	8.25806
1.742	6.04248
1.7425	6.94885
1.743	-2.21558
1.7435	4.73328
1.744	3.62549
1.7445	-3.22266
1.745	1.40991
1.7455	2.81982
1.746	1.71204
1.7465	5.74036
1.747	1.00708
1.7475	6.84814
1.748	3.52478
1.7485	5.94177
1.749	7.65381
1.7495	10.17151
1.75	14.60266
1.7505	15.60974
1.751	19.13452
1.7515	17.42249
1.752	17.01965
1.7525	16.11328
1.753	13.39417
1.7535	12.28638
1.754	7.35168
1.7545	14.70337
1.755	15.30762
1.7555	19.03381
1.756	14.80408
1.7565	20.04089
1.757	13.797
1.7575	10.37292
1.758	10.97717
1.7585	6.64673
1.759	0.90637
1.7595	2.11487
1.76	5.43823
1.7605	2.92053
1.761	-2.92053
1.7615	-7.15027
1.762	-6.04248
1.7625	-8.8623
1.763	-7.5531
1.7635	-2.71912
1.764	2.5177
1.7645	5.0354
1.765	3.92761
1.7655	5.23682
1.766	5.43823
1.7665	3.32336
1.767	2.01416
1.7675	-1.10779
1.768	-3.8269
1.7685	-0.20142
1.769	-2.71912
1.7695	0.90637
1.77	1.91345
1.7705	1.61133
1.771	3.62549
1.7715	-0.90637
1.772	-0.30212
1.7725	4.73328
1.773	3.62549
1.7735	4.43115
1.774	3.22266
1.7745	5.53894
1.775	1.51062
1.7755	4.12903
1.776	9.46655
1.7765	52.67029
1.777	89.328
1.7775	97.18323
1.778	84.79614
1.7785	70.59631
1.779	48.44055
1.7795	29.00391
1.78	7.75452
1.7805	-11.48071
1.781	-31.52161
1.7815	-37.66479
1.782	-50.55542
1.7825	-58.61206
1.783	-63.94958
1.7835	-55.49011
1.784	-41.99524
1.7845	-31.11877
1.785	-16.71753
1.7855	-10.37292
1.786	-1.81274
1.7865	4.02832
1.787	5.84106
1.7875	11.07788
1.788	13.69629
1.7885	13.69629
1.789	16.3147
1.7895	13.99841
1.79	11.2793
1.7905	14.80408
1.791	15.40833
1.7915	12.5885
1.792	12.78992
1.7925	15.20691
1.793	6.74744
1.7935	2.71912
1.794	6.44531
1.7945	-0.20142
1.795	-0.40283
1.7955	-0.80566
1.796	-3.42407
1.7965	2.81982
1.797	4.02832
1.7975	5.23682
1.798	9.46655
1.7985	12.99133
1.799	10.47363
1.7995	10.27222
1.8	11.48071
1.8005	9.97009
1.801	5.84106
1.8015	1.91345
1.802	5.53894
1.8025	1.2085
1.803	2.41699
1.8035	0.10071
1.804	1.10779
1.8045	-8.15735
1.805	-4.83398
1.8055	-1.00708
1.806	0.30212
1.8065	-1.40991
1.807	3.42407
1.8075	0.60425
1.808	-2.01416
1.8085	-5.94177
1.809	-7.45239
1.8095	-6.64673
1.81	-3.62549
1.8105	-1.71204
1.811	-4.93469
1.8115	2.11487
1.812	3.92761
1.8125	5.53894
1.813	5.13611
1.8135	6.94885
1.814	13.09204
1.8145	9.36584
1.815	15.00549
1.8155	17.01965
1.816	14.19983
1.8165	16.91895
1.817	25.78125
1.8175	20.24231
1.818	16.21399
1.8185	19.33594
1.819	19.94019
1.8195	10.37292
1.82	4.73328
1.8205	1.51062
1.821	-3.42407
1.8215	-7.04956
1.822	-1.10779
1.8225	-0.40283
1.823	-1.61133
1.8235	-0.80566
1.824	-2.11487
1.8245	0.60425
1.825	6.14319
1.8255	13.99841
1.826	23.56567
1.8265	31.52161
1.827	33.43506
1.8275	25.177
1.828	23.8678
1.8285	16.61682
1.829	13.89771
1.8295	6.04248
1.83	4.43115
1.8305	-0.50354
1.831	-2.21558
1.8315	-1.61133
1.832	14.70337
1.8325	32.52869
1.833	42.8009
1.8335	44.51294
1.834	41.18958
1.8345	27.89612
1.835	18.93311
1.8355	2.92053
1.836	2.21558
1.8365	-10.67505
1.837	-19.43665
1.8375	-28.19824
1.838	-30.31311
1.8385	-30.2124
1.839	-33.53577
1.8395	-31.82373
1.84	-32.12585
1.8405	-25.98267
1.841	-15.71045
1.8415	-8.25806
1.842	-1.81274
1.8425	-3.22266
1.843	1.91345
1.8435	6.14319
1.844	4.63257
1.8445	6.94885
1.845	6.54602
1.8455	7.35168
1.846	15.1062
1.8465	17.52319
1.847	19.73877
1.8475	22.55859
1.848	20.34302
1.8485	16.51611
1.849	23.8678
1.8495	26.88904
1.85	25.177
1.8505	20.94727
1.851	25.07629
1.8515	12.18567
1.852	13.39417
1.8525	7.25098
1.853	5.84106
1.8535	2.21558
1.854	-0.90637
1.8545	-2.11487
1.855	-0.40283
1.8555	-2.01416
1.856	-1.00708
1.8565	-3.8269
1.857	-3.8269
1.8575	2.71912
1.858	7.45239
1.8585	0.60425
1.859	3.7262
1.8595	0.10071
1.86	4.63257
1.8605	4.02832
1.861	6.3446
1.8615	2.11487
1.862	2.81982
1.8625	4.12903
1.863	1.40991
1.8635	6.3446
1.864	4.93469
1.8645	2.11487
1.865	6.64673
1.8655	4.83398
1.866	6.2439
1.8665	-0.20142
1.867	7.65381
1.8675	12.5885
1.868	10.27222
1.8685	15.60974
1.869	10.57434
1.8695	11.17859
1.87	12.48779
1.8705	12.18567
1.871	12.99133
1.8715	15.71045
1.872	13.19275
1.8725	9.06372
1.873	11.78284
1.8735	13.09204
1.874	11.88354
1.8745	15.91187
1.875	8.66089
1.8755	10.57434
1.876	9.36584
1.8765	6.54602
1.877	1.00708
1.8775	4.63257
1.878	-3.22266
1.8785	2.81982
1.879	-1.51062
1.8795	-1.61133
1.88	6.2439
1.8805	4.43115
1.881	3.7262
1.8815	2.61841
1.882	4.53186
1.8825	1.71204
1.883	2.41699
1.8835	1.71204
1.884	0.50354
1.8845	-2.31628
1.885	-3.7262
1.8855	-0.90637
1.886	1.51062
1.8865	1.51062
1.887	5.0354
1.8875	5.53894
1.888	7.75452
1.8885	11.58142
1.889	15.71045
1.8895	15.71045
1.89	10.67505
1.8905	10.37292
1.891	5.33752
1.8915	2.41699
1.892	5.74036
1.8925	6.3446
1.893	-3.7262
1.8935	1.10779
1.894	45.01648
1.8945	79.76074
1.895	91.44287
1.8955	87.31384
1.896	71.30127
1.8965	49.14551
1.897	28.9032
1.8975	4.93469
1.898	-12.89062
1.8985	-27.89612
1.899	-44.71436
1.8995	-56.69861
1.9	-62.03613
1.9005	-60.12268
1.901	-56.49719
1.9015	-51.15967
1.902	-39.57825
1.9025	-31.32019
1.903	-21.85364
1.9035	-21.65222
1.904	-6.04248
1.9045	-3.22266
1.905	-0.80566
1.9055	4.53186
1.906	7.85522
1.9065	13.797
1.907	8.56018
1.9075	2.31628
1.908	7.25098
1.9085	11.88354
1.909	11.88354
1.9095	9.46655
1.91	3.52478
1.9105	6.04248
1.911	2.11487
1.9115	0.80566
1.912	0.20142
1.9125	2.71912
1.913	4.83398
1.9135	4.02832
1.914	10.47363
1.9145	11.17859
1.915	14.90479
1.9155	11.78284
1.916	6.44531
1.9165	0.20142
1.917	6.64673
1.9175	7.15027
1.918	8.96301
1.9185	10.37292
1.919	10.47363
1.9195	13.19275
1.92	7.35168
1.9205	4.02832
1.921	-0.70496
1.9215	-8.8623
1.922	-8.15735
1.9225	-5.63965
1.923	-5.23682
1.9235	-0.10071
1.924	0.20142
1.9245	-2.41699
1.925	-0.40283
1.9255	1.40991
1.926	5.33752
1.9265	11.98425
1.927	11.78284
1.9275	9.66797
1.928	3.22266
1.9285	4.93469
1.929	5.33752
1.9295	2.71912
1.93	4.33044
1.9305	4.33044
1.931	3.32336
1.9315	-0.70496
1.932	-2.41699
1.9325	-15.71045
1.933	-17.42249
1.9335	-15.20691
1.934	-10.57434
1.9345	-13.09204
1.935	-7.25098
1.9355	-7.04956
1.936	2.92053
1.9365	-0.30212
1.937	1.00708
1.9375	9.86938
1.938	13.09204
1.9385	7.95593
1.939	13.797
1.9395	5.84106
1.94	4.22974
1.9405	2.01416
1.941	9.06372
1.9415	8.56018
1.942	7.04956
1.9425	12.78992
1.943	4.93469
1.9435	6.14319
1.944	3.52478
1.9445	5.13611
1.945	6.64673
1.9455	6.64673
1.946	11.17859
1.9465	4.33044
1.947	11.68213
1.9475	16.91895
1.948	14.60266
1.9485	8.66089
1.949	15.60974
1.9495	11.48071
1.95	8.7616
1.9505	17.82532
1.951	15.20691
1.9515	12.68921
1.952	13.49487
1.9525	11.78284
1.953	14.80408
1.9535	15.60974
1.954	12.18567
1.9545	15.81116
1.955	8.35876
1.9555	9.06372
1.956	8.45947
1.9565	5.23682
1.957	12.78992
1.9575	11.17859
1.958	10.17151
1.9585	6.2439
1.959	16.91895
1.9595	9.76868
1.96	8.05664
1.9605	19.03381
1.961	43.60657
1.9615	56.09436
1.962	62.8418
1.9625	59.61914
1.963	51.46179
1.9635	39.27612
1.964	26.98975
1.9645	13.09204
1.965	1.2085
1.9655	-14.30054
1.966	-15.50903
1.9665	-22.05505
1.967	-23.56567
1.9675	-23.46497
1.968	-23.26355
1.9685	-17.32178
1.969	-20.94727
1.9695	-13.89771
1.97	-14.19983
1.9705	-8.25806
1.971	-1.81274
1.9715	0.40283
1.972	-5.43823
1.9725	-4.02832
1.973	-1.81274
1.9735	-4.43115
1.974	-5.13611
1.9745	-4.12903
1.975	-2.5177
1.9755	-3.62549
1.976	-2.31628
1.9765	2.41699
1.977	-1.81274
1.9775	-0.50354
1.978	0.40283
1.9785	5.0354
1.979	3.8269
1.9795	4.93469
1.98	8.8623
1.9805	15.20691
1.981	13.09204
1.9815	17.22107
1.982	11.78284
1.9825	10.87646
1.983	8.15735
1.9835	9.36584
1.984	2.5177
1.9845	3.22266
1.985	3.7262
1.9855	7.25098
1.986	8.25806
1.9865	6.2439
1.987	7.5531
1.9875	-0.70496
1.988	2.21558
1.9885	4.83398
1.989	3.7262
1.9895	0.10071
1.99	-0.40283
1.9905	-0.50354
1.991	0
1.9915	10.0708
1.992	15.20691
1.9925	13.59558
1.993	19.23523
1.9935	21.3501
1.994	26.58691
1.9945	28.50037
1.995	24.57275
1.9955	16.51611
1.996	17.72461
1.9965	11.58142
1.997	13.59558
1.9975	10.97717
1.998	9.97009
1.9985	21.55151
1.999	22.05505
1.9995	24.47205
2	62.33826
2.0005	90.03296
2.001	100.00305
2.0015	98.99597
2.002	82.47986
2.0025	65.25879
2.003	40.48462
2.0035	20.94727
2.004	7.15027
2.0045	-9.06372
2.005	-21.24939
2.0055	-38.26904
2.006	-51.46179
2.0065	-53.77808
2.007	-55.79224
2.0075	-56.29578
2.008	-50.05188
2.0085	-43.50586
2.009	-35.44922
2.0095	-27.09045
2.01	-21.85364
2.0105	-20.24231
2.011	-19.13452
2.0115	-14.19983
2.012	-8.05664
2.0125	-2.92053
2.013	1.2085
2.0135	3.22266
2.014	10.47363
2.0145	13.99841
2.015	13.19275
2.0155	9.46655
2.016	6.64673
2.0165	10.77576
2.017	8.45947
2.0175	4.43115
2.018	10.27222
2.0185	12.48779
2.019	8.96301
2.0195	7.5531
2.02	4.53186
2.0205	-2.01416
2.021	-7.5531
2.0215	-5.23682
2.022	-5.23682
2.0225	-2.71912
2.023	1.61133
2.0235	3.62549
2.024	7.5531
2.0245	1.00708
2.025	10.87646
2.0255	13.19275
2.026	14.60266
2.0265	13.89771
2.027	17.12036
2.0275	8.15735
2.028	1.91345
2.0285	4.53186
2.029	2.92053
2.0295	5.23682
2.03	6.2439
2.0305	13.19275
2.031	9.36584
2.0315	5.63965
2.032	6.44531
2.0325	6.84814
2.033	10.67505
2.0335	13.797
2.034	9.06372
2.0345	10.17151
2.035	9.97009
2.0355	7.75452
2.036	3.12195
2.0365	-0.60425
2.037	-2.31628
2.0375	6.44531
2.038	2.31628
2.0385	4.83398
2.039	2.5177
2.0395	-1.3092
2.04	2.11487
2.0405	5.43823
2.041	14.70337
2.0415	17.22107
2.042	18.63098
2.0425	18.63098
2.043	20.64514
2.0435	14.80408
2.044	11.58142
2.0445	13.99841
2.045	7.04956
2.0455	1.61133
2.046	-3.8269
2.0465	-4.43115
2.047	-5.53894
2.0475	-4.22974
2.048	-6.3446
2.0485	-5.63965
2.049	-7.45239
2.0495	3.8269
2.05	4.83398
2.0505	0.10071
2.051	4.22974
2.0515	6.44531
2.052	7.5531
2.0525	4.83398
2.053	6.04248
2.0535	1.51062
2.054	7.85522
2.0545	11.38
2.055	12.78992
2.0555	12.38708
2.056	15.50903
2.0565	11.07788
2.057	4.93469
2.0575	4.73328
2.058	-0.70496
2.0585	0.80566
2.059	2.5177
2.0595	-3.52478
2.06	-5.43823
2.0605	-6.94885
2.061	-3.22266
2.0615	-4.43115
2.062	-3.12195
2.0625	0.30212
2.063	5.94177
2.0635	3.52478
2.064	3.92761
2.0645	0.30212
2.065	5.94177
2.0655	1.10779
2.066	-2.31628
2.0665	4.33044
2.067	1.10779
2.0675	0.20142
2.068	-3.32336
2.0685	-2.41699
2.069	1.00708
2.0695	4.83398
2.07	7.25098
2.0705	7.35168
2.071	6.84814
2.0715	10.57434
2.072	6.54602
2.0725	8.8623
2.073	15.00549
2.0735	14.90479
2.074	16.3147
2.0745	17.12036
2.075	20.44373
2.0755	20.64514
2.076	14.40125
2.0765	18.32886
2.077	14.09912
2.0775	13.89771
2.078	12.18567
2.0785	7.25098
2.079	1.3092
2.0795	-6.14319
2.08	-2.31628
2.0805	-5.84106
2.081	1.61133
2.0815	3.12195
2.082	-0.40283
2.0825	-1.40991
2.083	0.80566
2.0835	7.85522
2.084	8.66089
2.0845	6.84814
2.085	6.04248
2.0855	7.75452
2.086	11.38
2.0865	16.81824
2.087	13.797
2.0875	14.19983
2.088	11.98425
2.0885	16.51611
2.089	13.19275
2.0895	15.20691
2.09	12.08496
2.0905	12.38708
2.091	11.68213
2.0915	10.27222
2.092	11.38
2.0925	9.66797
2.093	5.74036
2.0935	8.35876
2.094	5.53894
2.0945	8.96301
2.095	2.11487
2.0955	8.56018
2.096	7.85522
2.0965	4.93469
2.097	-2.01416
2.0975	-2.92053
2.098	2.81982
2.0985	2.11487
2.099	3.92761
2.0995	4.73328
2.1	6.94885
2.1005	2.21558
2.101	0.60425
2.1015	-0.30212
2.102	-1.61133
2.1025	-4.33044
2.103	9.86938
2.1035	35.75134
2.104	45.3186
2.1045	48.74268
2.105	44.81506
2.1055	34.64355
2.106	24.47205
2.1065	16.51611
2.107	0.90637
2.1075	-3.92761
2.108	-15.60974
2.1085	-19.83948
2.109	-32.12585
2.1095	-35.44922
2.11	-38.26904
2.1105	-34.74426
2.111	-26.68762
2.1115	-20.1416
2.112	-19.03381
2.1125	-11.48071
2.113	2.92053
2.1135	0.30212
2.114	-2.11487
2.1145	-0.80566
2.115	38.87329
2.1155	76.33667
2.116	86.40747
2.1165	83.99048
2.117	66.97083
2.1175	53.47595
2.118	36.05347
2.1185	16.21399
2.119	-8.56018
2.1195	-25.78125
2.12	-34.24072
2.1205	-38.26904
2.121	-49.0448
2.1215	-56.39648
2.122	-50.45471
2.1225	-46.62781
2.123	-41.79382
2.1235	-26.28479
2.124	-20.84656
2.1245	-10.97717
2.125	-5.33752
2.1255	-3.12195
2.126	-0.80566
2.1265	2.41699
2.127	-0.80566
2.1275	-2.41699
2.128	-2.31628
2.1285	9.56726
2.129	17.12036
2.1295	21.75293
2.13	26.08337
2.1305	21.65222
2.131	14.30054
2.1315	10.27222
2.132	5.84106
2.1325	7.5531
2.133	2.61841
2.1335	-2.5177
2.134	-9.66797
2.1345	-8.56018
2.135	-0.80566
2.1355	3.22266
2.136	4.83398
2.1365	6.3446
2.137	1.61133
2.1375	13.39417
2.138	8.56018
2.1385	10.57434
2.139	17.82532
2.1395	12.68921
2.14	11.38
2.1405	7.65381
2.141	2.61841
2.1415	6.3446
2.142	2.5177
2.1425	1.91345
2.143	0.10071
2.1435	-3.02124
2.144	-4.83398
2.1445	-0.90637
2.145	2.92053
2.1455	4.83398
2.146	2.01416
2.1465	3.22266
2.147	7.15027
2.1475	12.48779
2.148	12.99133
2.1485	15.30762
2.149	10.0708
2.1495	13.99841
2.15	14.80408
2.1505	13.09204
2.151	10.97717
2.1515	13.29346
2.152	15.60974
2.1525	16.71753
2.153	20.64514
2.1535	18.53027
2.154	15.91187
2.1545	15.40833
2.155	12.99133
2.1555	11.58142
2.156	7.25098
2.1565	1.71204
2.157	3.7262
2.1575	3.62549
2.158	2.31628
2.1585	0.10071
2.159	-3.8269
2.1595	-6.04248
2.16	-8.25806
2.1605	-5.23682
2.161	-3.92761
2.1615	3.7262
2.162	2.71912
2.1625	3.92761
2.163	3.8269
2.1635	4.93469
2.164	6.04248
2.1645	8.35876
2.165	5.74036
2.1655	5.43823
2.166	7.95593
2.1665	11.98425
2.167	10.27222
2.1675	12.18567
2.168	15.81116
2.1685	11.48071
2.169	5.94177
2.1695	7.35168
2.17	5.43823
2.1705	9.66797
2.171	4.63257
2.1715	4.63257
2.172	10.37292
2.1725	15.20691
2.173	11.2793
2.1735	7.45239
2.174	14.80408
2.1745	15.30762
2.175	9.86938
2.1755	8.15735
2.176	10.0708
2.1765	15.81116
2.177	6.2439
2.1775	3.7262
2.178	6.94885
2.1785	12.68921
2.179	6.14319
2.1795	14.40125
2.18	9.26514
2.1805	3.92761
2.181	5.53894
2.1815	5.0354
2.182	4.83398
2.1825	6.14319
2.183	6.04248
2.1835	8.25806
2.184	14.19983
2.1845	11.68213
2.185	2.31628
2.1855	2.11487
2.186	2.71912
2.1865	-2.61841
2.187	-4.63257
2.1875	1.81274
2.188	2.5177
2.1885	-0.70496
2.189	-1.3092
2.1895	0.40283
2.19	-2.41699
2.1905	1.71204
2.191	-1.00708
2.1915	0.50354
2.192	-1.71204
2.1925	-2.31628
2.193	-0.80566
2.1935	1.40991
2.194	-1.00708
2.1945	3.7262
2.195	7.15027
2.1955	4.43115
2.196	-5.43823
2.1965	-10.47363
2.197	-17.6239
2.1975	-17.82532
2.198	-18.42957
2.1985	-10.17151
2.199	-7.25098
2.1995	0.30212
2.2	-1.81274
2.2005	3.52478
2.201	11.58142
2.2015	13.59558
2.202	18.02673
2.2025	18.32886
2.203	17.72461
2.2035	15.1062
2.204	13.797
2.2045	19.53735
2.205	21.24939
2.2055	11.98425
2.206	15.81116
2.2065	18.12744
2.207	24.67346
2.2075	20.24231
2.208	13.89771
2.2085	14.90479
2.209	10.57434
2.2095	13.59558
2.21	8.96301
2.2105	3.92761
2.211	5.13611
2.2115	-3.7262
2.212	-0.40283
2.2125	-2.11487
2.213	10.67505
2.2135	31.21948
2.214	50.45471
2.2145	55.79224
2.215	48.33984
2.2155	39.88037
2.216	26.08337
2.2165	16.81824
2.217	4.93469
2.2175	-6.14319
2.218	-11.48071
2.2185	-23.16284
2.219	-30.31311
2.2195	-32.93152
2.22	-30.91736
2.2205	-28.70178
2.221	-18.12744
2.2215	-10.77576
2.222	-10.97717
2.2225	-2.11487
2.223	7.35168
2.2235	8.45947
2.224	9.86938
2.2245	10.0708
2.225	12.99133
2.2255	13.19275
2.226	6.74744
2.2265	11.2793
2.227	11.17859
2.2275	14.30054
2.228	15.81116
2.2285	12.18567
2.229	16.51611
2.2295	9.86938
2.23	13.49487
2.2305	18.22815
2.231	8.15735
2.2315	34.94568
2.232	77.04163
2.2325	93.85986
2.233	88.92517
2.2335	78.45154
2.234	59.51843
2.2345	41.18958
2.235	17.82532
2.2355	2.31628
2.236	-22.86072
2.2365	-35.95276
2.237	-47.03064
2.2375	-57.70569
2.238	-57.10144
2.2385	-61.83472
2.239	-57.9071
2.2395	-53.67737
2.24	-40.1825
2.2405	-34.64355
2.241	-26.78833
2.2415	-15.60974
2.242	-6.14319
2.2425	-9.16443
2.243	2.31628
2.2435	0.20142
2.244	0
2.2445	10.57434
2.245	4.83398
2.2455	8.7616
2.246	5.43823
2.2465	8.8623
2.247	4.73328
2.2475	2.71912
2.248	3.92761
2.2485	6.14319
2.249	4.93469
2.2495	8.15735
2.25	6.44531
2.2505	3.7262
2.251	1.00708
2.2515	4.43115
2.252	0.30212
2.2525	6.14319
2.253	1.91345
2.2535	11.2793
2.254	7.04956
2.2545	7.5531
2.255	9.06372
2.2555	15.00549
2.256	5.43823
2.2565	10.97717
2.257	8.66089
2.2575	4.63257
2.258	3.7262
2.2585	8.8623
2.259	11.48071
2.2595	7.65381
2.26	4.73328
2.2605	5.33752
2.261	10.57434
2.2615	10.57434
2.262	11.38
2.2625	12.89062
2.263	11.88354
2.2635	13.19275
2.264	11.2793
2.2645	13.59558
2.265	8.25806
2.2655	8.96301
2.266	5.13611
2.2665	7.65381
2.267	-1.10779
2.2675	0.10071
2.268	4.12903
2.2685	5.23682
2.269	3.52478
2.2695	4.02832
2.27	13.29346
2.2705	13.89771
2.271	12.68921
2.2715	13.29346
2.272	11.98425
2.2725	5.94177
2.273	0.90637
2.2735	-2.5177
2.274	-8.56018
2.2745	-7.45239
2.275	-18.02673
2.2755	-17.12036
2.276	-18.02673
2.2765	-12.68921
2.277	-12.78992
2.2775	-11.98425
2.278	-8.66089
2.2785	-0.10071
2.279	-0.50354
2.2795	4.43115
2.28	5.84106
2.2805	11.17859
2.281	16.11328
2.2815	13.49487
2.282	17.12036
2.2825	8.15735
2.283	14.50195
2.2835	18.32886
2.284	13.39417
2.2845	15.50903
2.285	7.85522
2.2855	8.56018
2.286	8.35876
2.2865	10.57434
2.287	10.77576
2.2875	9.76868
2.288	13.99841
2.2885	11.88354
2.289	14.80408
2.2895	18.42957
2.29	15.91187
2.2905	11.38
2.291	7.65381
2.2915	18.63098
2.292	13.797
2.2925	13.69629
2.293	12.28638
2.2935	15.1062
2.294	11.07788
2.2945	6.44531
2.295	3.12195
2.2955	5.84106
2.296	8.7616
2.2965	2.5177
2.297	5.74036
2.2975	8.05664
2.298	6.2439
2.2985	12.18567
2.299	14.09912
2.2995	14.80408
2.3	4.02832
2.3005	0.60425
2.301	0.10071
2.3015	2.41699
2.302	0.60425
2.3025	3.12195
2.303	-3.22266
2.3035	1.40991
2.304	0.60425
2.3045	6.14319
2.305	0.20142
2.3055	-2.71912
2.306	2.81982
2.3065	5.53894
2.307	1.61133
2.3075	-2.21558
2.308	4.12903
2.3085	0.70496
2.309	8.25806
2.3095	9.97009
2.31	5.74036
2.3105	12.78992
2.311	12.18567
2.3115	12.08496
2.312	8.56018
2.3125	9.16443
2.313	12.68921
2.3135	14.50195
2.314	22.15576
2.3145	14.80408
2.315	20.24231
2.3155	13.39417
2.316	15.81116
2.3165	18.73169
2.317	16.51611
2.3175	13.29346
2.318	6.54602
2.3185	6.44531
2.319	3.62549
2.3195	6.74744
2.32	4.43115
2.3205	4.22974
2.321	-1.71204
2.3215	7.85522
2.322	5.43823
2.3225	5.63965
2.323	2.5177
2.3235	4.53186
2.324	-0.20142
2.3245	2.31628
2.325	0.90637
2.3255	-3.52478
2.326	0.80566
2.3265	-11.98425
2.327	-14.60266
2.3275	-13.89771
2.328	-7.35168
2.3285	-1.81274
2.329	5.33752
2.3295	5.84106
2.33	8.8623
2.3305	6.44531
2.331	6.14319
2.3315	3.92761
2.332	10.17151
2.3325	9.26514
2.333	4.33044
2.3335	13.39417
2.334	9.06372
2.3345	11.88354
2.335	0.40283
2.3355	1.40991
2.336	4.02832
2.3365	7.04956
2.337	3.52478
2.3375	-2.11487
2.338	4.63257
2.3385	4.83398
2.339	2.81982
2.3395	5.33752
2.34	28.29895
2.3405	48.74268
2.341	51.96533
2.3415	50.45471
2.342	40.78674
2.3425	28.80249
2.343	14.50195
2.3435	6.54602
2.344	-5.74036
2.3445	-15.1062
2.345	-22.15576
2.3455	-24.97559
2.346	-29.00391
2.3465	-27.49329
2.347	-17.92603
2.3475	-19.33594
2.348	-16.21399
2.3485	-13.39417
2.349	-4.02832
2.3495	-3.42407
2.35	0
2.3505	1.00708
2.351	9.16443
2.3515	2.21558
2.352	7.75452
2.3525	4.83398
2.353	8.66089
2.3535	9.56726
2.354	9.86938
2.3545	13.797
2.355	21.65222
2.3555	26.88904
2.356	21.65222
2.3565	18.12744
2.357	45.2179
2.3575	82.58057
2.358	93.75916
2.3585	87.01172
2.359	68.58215
2.3595	51.76392
2.36	34.34143
2.3605	13.39417
2.361	-2.71912
2.3615	-20.84656
2.362	-42.09595
2.3625	-50.354
2.363	-59.71985
2.3635	-58.30994
2.364	-53.07312
2.3645	-47.63489
2.365	-38.87329
2.3655	-38.06763
2.366	-25.07629
2.3665	-13.09204
2.367	-4.93469
2.3675	-2.31628
2.368	1.10779
2.3685	2.21558
2.369	9.46655
2.3695	7.5531
2.37	10.77576
2.3705	15.40833
2.371	18.32886
2.3715	17.72461
2.372	18.12744
2.3725	8.7616
2.373	11.07788
2.3735	10.67505
2.374	15.20691
2.3745	6.94885
2.375	4.02832
2.3755	13.59558
2.376	8.96301
2.3765	17.6239
2.377	11.48071
2.3775	6.64673
2.378	8.8623
2.3785	6.54602
2.379	6.54602
2.3795	7.95593
2.38	2.01416
2.3805	7.85522
2.381	11.2793
2.3815	9.56726
2.382	9.76868
2.3825	8.15735
2.383	8.15735
2.3835	6.3446
2.384	3.12195
2.3845	0
2.385	-1.00708
2.3855	3.02124
2.386	7.75452
2.3865	9.97009
2.387	9.16443
2.3875	3.62549
2.388	-0.20142
2.3885	8.96301
2.389	9.76868
2.3895	5.53894
2.39	8.96301
2.3905	7.35168
2.391	10.0708
2.3915	4.63257
2.392	5.74036
2.3925	-0.20142
2.393	-0.40283
2.3935	10.57434
2.394	8.96301
2.3945	5.63965
2.395	5.23682
2.3955	10.0708
2.396	10.37292
2.3965	8.7616
2.397	14.60266
2.3975	13.39417
2.398	5.0354
2.3985	1.2085
2.399	-7.5531
2.3995	-9.56726
2.4	-11.88354
2.4005	-18.32886
2.401	-10.47363
2.4015	-6.3446
2.402	-0.70496
2.4025	-2.71912
2.403	8.8623
2.4035	13.99841
2.404	16.11328
2.4045	34.03931
2.405	45.11719
2.4055	46.42639
2.406	40.88745
2.4065	37.66479
2.407	34.54285
2.4075	25.78125
2.408	17.01965
2.4085	13.09204
2.409	4.93469
2.4095	-4.12903
2.41	-8.7616
2.4105	-14.09912
2.411	-11.48071
2.4115	-7.95593
2.412	-15.81116
2.4125	-10.47363
2.413	-8.7616
2.4135	-12.38708
2.414	-13.29346
2.4145	-12.28638
2.415	-10.87646
2.4155	-8.45947
2.416	-9.06372
2.4165	-8.25806
2.417	-1.71204
2.4175	3.62549
2.418	0.20142
2.4185	3.12195
2.419	0.80566
2.4195	1.71204
2.42	-0.20142
2.4205	-0.30212
2.421	1.40991
2.4215	2.71912
2.422	5.74036
2.4225	6.54602
2.423	7.15027
2.4235	7.25098
2.424	4.02832
2.4245	6.44531
2.425	10.0708
2.4255	10.0708
2.426	13.59558
2.4265	16.61682
2.427	12.68921
2.4275	15.1062
2.428	10.87646
2.4285	8.56018
2.429	10.57434
2.4295	13.797
2.43	8.05664
2.4305	8.7616
2.431	6.74744
2.4315	8.66089
2.432	3.32336
2.4325	3.7262
2.433	5.63965
2.4335	5.13611
2.434	11.38
2.4345	17.32178
2.435	15.40833
2.4355	11.38
2.436	2.5177
2.4365	2.31628
2.437	4.43115
2.4375	4.63257
2.438	1.71204
2.4385	7.85522
2.439	11.78284
2.4395	9.86938
2.44	4.22974
2.4405	6.44531
2.441	4.63257
2.4415	2.71912
2.442	1.40991
2.4425	2.71912
2.443	3.32336
2.4435	2.61841
2.444	4.22974
2.4445	7.35168
2.445	11.38
2.4455	5.63965
2.446	7.45239
2.4465	11.98425
2.447	8.15735
2.4475	8.15735
2.448	11.68213
2.4485	5.84106
2.449	6.44531
2.4495	7.5531
2.45	4.33044
2.4505	9.86938
2.451	4.93469
2.4515	10.87646
2.452	7.5531
2.4525	6.54602
2.453	6.14319
2.4535	2.21558
2.454	3.92761
2.4545	1.00708
2.455	2.71912
2.4555	6.14319
2.456	10.0708
2.4565	11.48071
2.457	9.66797
2.4575	11.07788
2.458	12.5885
2.4585	10.17151
2.459	8.7616
2.4595	3.8269
2.46	10.0708
2.4605	7.65381
2.461	10.67505
2.4615	6.74744
2.462	9.36584
2.4625	6.2439
2.463	7.45239
2.4635	10.27222
2.464	9.06372
2.4645	3.52478
2.465	9.86938
2.4655	2.01416
2.466	9.56726
2.4665	50.65613
2.467	80.86853
2.4675	89.52942
2.468	83.88977
2.4685	69.99207
2.469	51.76392
2.4695	34.14001
2.47	12.68921
2.4705	-8.8623
2.471	-28.19824
2.4715	-41.39099
2.472	-25.47913
2.4725	-11.78284
2.473	-5.0354
2.4735	-9.06372
2.474	-0.90637
2.4745	-3.92761
2.475	-12.78992
2.4755	-15.30762
2.476	-14.19983
2.4765	-15.20691
2.477	-24.06921
2.4775	-27.19116
2.478	-27.29187
2.4785	-28.09753
2.479	-29.20532
2.4795	-30.81665
2.48	-23.8678
2.4805	-16.71753
2.481	-8.7616
2.4815	-0.90637
2.482	-4.22974
2.4825	-6.04248
2.483	2.01416
2.4835	-2.31628
2.484	-1.40991
2.4845	1.51062
2.485	5.33752
2.4855	4.12903
2.486	5.23682
2.4865	0.50354
2.487	2.61841
2.4875	2.21558
2.488	3.12195
2.4885	2.01416
2.489	8.66089
2.4895	3.32336
2.49	9.66797
2.4905	3.22266
2.491	7.5531
2.4915	13.797
2.492	14.30054
2.4925	13.797
2.493	15.71045
2.4935	19.23523
2.494	16.11328
2.4945	17.52319
2.495	18.32886
2.4955	14.70337
2.496	16.3147
2.4965	17.01965
2.497	13.49487
2.4975	10.67505
2.498	7.95593
2.4985	6.94885
2.499	5.23682
2.4995	7.04956
2.5	4.63257
2.5005	4.93469
2.501	10.37292
2.5015	10.87646
2.502	8.05664
2.5025	5.43823
2.503	7.85522
2.5035	10.27222
2.504	3.32336
2.5045	3.7262
2.505	-0.70496
2.5055	5.33752
2.506	3.8269
2.5065	5.13611
2.507	-0.60425
2.5075	2.01416
2.508	9.97009
2.5085	3.52478
2.509	6.54602
2.5095	7.35168
2.51	3.22266
2.5105	3.7262
2.511	3.22266
2.5115	2.5177
2.512	2.01416
2.5125	2.92053
2.513	-0.10071
2.5135	1.40991
2.514	5.63965
2.5145	0.80566
2.515	0.10071
2.5155	6.44531
2.516	8.15735
2.5165	9.46655
2.517	7.65381
2.5175	9.76868
2.518	8.66089
2.5185	8.66089
2.519	3.12195
2.5195	-0.70496
2.52	2.71912
2.5205	5.0354
2.521	5.84106
2.5215	-2.01416
2.522	-0.60425
2.5225	0.90637
2.523	5.74036
2.5235	8.35876
2.524	4.83398
2.5245	5.74036
2.525	5.13611
2.5255	0.10071
2.526	-1.10779
2.5265	3.7262
2.527	6.2439
2.5275	2.41699
2.528	8.56018
2.5285	8.7616
2.529	4.53186
2.5295	3.92761
2.53	4.63257
2.5305	3.8269
2.531	1.3092
2.5315	3.42407
2.532	9.16443
2.5325	2.01416
2.533	-2.92053
2.5335	0.20142
2.534	-5.0354
2.5345	-8.25806
2.535	-3.8269
2.5355	5.23682
2.536	4.33044
2.5365	0.60425
2.537	8.25806
2.5375	14.09912
2.538	11.58142
2.5385	11.17859
2.539	11.88354
2.5395	6.54602
2.54	8.8623
2.5405	1.40991
2.541	-5.13611
2.5415	-11.07788
2.542	-18.53027
2.5425	-12.28638
2.543	-8.05664
2.5435	-1.71204
2.544	0
2.5445	3.8269
2.545	3.62549
2.5455	5.33752
2.546	5.43823
2.5465	2.41699
2.547	9.97009
2.5475	7.35168
2.548	7.65381
2.5485	9.16443
2.549	8.05664
2.5495	2.11487
2.55	2.31628
2.5505	3.12195
2.551	5.23682
2.5515	-2.41699
2.552	-5.23682
2.5525	-0.50354
2.553	-1.3092
2.5535	1.91345
2.554	-1.10779
2.5545	2.31628
2.555	-1.3092
2.5555	-0.10071
2.556	3.32336
2.5565	-2.5177
2.557	-2.41699
2.5575	0.20142
2.558	2.81982
2.5585	13.49487
2.559	10.87646
2.5595	7.65381
2.56	8.66089
2.5605	6.04248
2.561	5.84106
2.5615	-2.11487
2.562	3.12195
2.5625	6.3446
2.563	5.63965
2.5635	8.35876
2.564	12.68921
2.5645	3.7262
2.565	5.33752
2.5655	9.36584
2.566	8.45947
2.5665	10.17151
2.567	11.2793
2.5675	14.80408
2.568	11.07788
2.5685	8.35876
2.569	6.94885
2.5695	-0.80566
2.57	2.61841
2.5705	2.31628
2.571	0.50354
2.5715	5.0354
2.572	7.85522
2.5725	6.64673
2.573	4.53186
2.5735	1.10779
2.574	4.53186
2.5745	8.05664
2.575	13.69629
2.5755	14.19983
2.576	16.21399
2.5765	12.08496
2.577	14.90479
2.5775	12.48779
2.578	14.50195
2.5785	11.48071
2.579	8.25806
2.5795	16.21399
2.58	11.78284
2.5805	14.30054
2.581	14.50195
2.5815	13.39417
2.582	13.39417
2.5825	15.40833
2.583	3.92761
2.5835	13.797
2.584	11.48071
2.5845	12.78992
2.585	10.17151
2.5855	11.98425
2.586	12.18567
2.5865	7.45239
2.587	8.96301
2.5875	7.25098
2.588	1.71204
2.5885	9.26514
2.589	10.0708
2.5895	14.19983
2.59	7.15027
2.5905	6.14319
2.591	12.48779
2.5915	10.97717
2.592	8.96301
2.5925	8.7616
2.593	7.04956
2.5935	-1.00708
2.594	-2.41699
2.5945	-4.83398
2.595	-0.70496
2.5955	-4.73328
2.596	-7.45239
2.5965	-3.12195
2.597	1.61133
2.5975	-3.62549
2.598	1.61133
2.5985	-1.51062
2.599	-0.90637
2.5995	7.35168
2.6	19.33594
2.6005	59.21631
2.601	93.75916
2.6015	109.06677
2.602	98.39172
2.6025	91.745
2.603	62.9425
2.6035	42.7002
2.604	14.90479
2.6045	-12.48779
2.605	-33.53577
2.6055	-47.93701
2.606	-55.79224
2.6065	-62.03613
2.607	-66.97083
2.6075	-61.93542
2.608	-54.78516
2.6085	-45.2179
2.609	-34.24072
2.6095	-20.04089
2.61	-12.78992
2.6105	-11.98425
2.611	-4.12903
2.6115	4.12903
2.612	2.01416
2.6125	7.04956
2.613	10.87646
2.6135	19.03381
2.614	26.68762
2.6145	29.20532
2.615	29.30603
2.6155	33.13293
2.616	26.3855
2.6165	20.04089
2.617	13.89771
2.6175	18.02673
2.618	8.05664
2.6185	15.00549
2.619	14.40125
2.6195	7.95593
2.62	3.02124
2.6205	4.12903
2.621	1.61133
2.6215	2.31628
2.622	10.0708
2.6225	0.50354
2.623	16.11328
2.6235	40.48462
2.624	52.97241
2.6245	58.71277
2.625	56.90002
2.6255	46.22498
2.626	37.36267
2.6265	19.83948
2.627	11.2793
2.6275	-1.61133
2.628	-7.65381
2.6285	-20.1416
2.629	-25.88196
2.6295	-34.94568
2.63	-34.54285
2.6305	-31.92444
2.631	-29.40674
2.6315	-21.3501
2.632	-11.68213
2.6325	-12.48779
2.633	-2.81982
2.6335	-2.71912
2.634	0.80566
2.6345	0.60425
2.635	0
2.6355	-4.12903
2.636	-5.74036
2.6365	-1.00708
2.637	0
2.6375	3.62549
2.638	8.96301
2.6385	9.26514
2.639	5.74036
2.6395	5.74036
2.64	7.85522
2.6405	4.53186
2.641	9.36584
2.6415	0.60425
2.642	-3.52478
2.6425	-0.40283
2.643	-1.91345
2.6435	1.00708
2.644	3.22266
2.6445	4.53186
2.645	8.05664
2.6455	10.27222
2.646	9.76868
2.6465	9.66797
2.647	7.04956
2.6475	2.41699
2.648	-2.21558
2.6485	0.30212
2.649	-1.51062
2.6495	-5.84106
2.65	-11.38
2.6505	-8.96301
2.651	-11.07788
2.6515	-12.5885
2.652	-7.95593
2.6525	1.2085
2.653	-4.53186
2.6535	0.10071
2.654	-1.71204
2.6545	3.8269
2.655	8.56018
2.6555	8.7616
2.656	5.53894
2.6565	11.68213
2.657	9.26514
2.6575	9.46655
2.658	12.28638
2.6585	12.68921
2.659	18.8324
2.6595	20.44373
2.66	20.54443
2.6605	14.09912
2.661	12.99133
2.6615	14.60266
2.662	12.78992
2.6625	5.63965
2.663	2.11487
2.6635	8.56018
2.664	9.97009
2.6645	8.66089
2.665	8.56018
2.6655	8.15735
2.666	6.64673
2.6665	9.97009
2.667	15.1062
2.6675	12.18567
2.668	4.93469
2.6685	3.92761
2.669	7.45239
2.6695	7.65381
2.67	8.7616
2.6705	3.32336
2.671	3.12195
2.6715	4.53186
2.672	15.20691
2.6725	19.13452
2.673	18.8324
2.6735	11.68213
2.674	10.67505
2.6745	10.77576
2.675	2.71912
2.6755	1.71204
2.676	-0.70496
2.6765	-0.90637
2.677	-1.2085
2.6775	-5.63965
2.678	-1.71204
2.6785	-4.43115
2.679	-0.60425
2.6795	0
2.68	1.71204
2.6805	3.92761
2.681	6.04248
2.6815	5.0354
2.682	8.35876
2.6825	6.04248
2.683	7.04956
2.6835	4.33044
2.684	7.25098
2.6845	6.14319
2.685	2.01416
2.6855	-0.80566
2.686	-0.90637
2.6865	0.30212
2.687	5.53894
2.6875	1.51062
2.688	4.02832
2.6885	7.65381
2.689	5.43823
2.6895	7.04956
2.69	13.797
2.6905	13.19275
2.691	11.07788
2.6915	13.69629
2.692	9.66797
2.6925	14.19983
2.693	18.12744
2.6935	20.34302
2.694	16.51611
2.6945	17.32178
2.695	14.80408
2.6955	11.88354
2.696	7.04956
2.6965	5.0354
2.697	3.02124
2.6975	-2.5177
2.698	0
2.6985	-5.23682
2.699	-5.13611
2.6995	-2.41699
2.7	-2.11487
2.7005	3.92761
2.701	-0.40283
2.7015	-1.2085
2.702	3.92761
2.7025	5.53894
2.703	8.56018
2.7035	9.16443
2.704	9.36584
2.7045	10.0708
2.705	14.60266
2.7055	9.46655
2.706	12.5885
2.7065	11.98425
2.707	12.38708
2.7075	11.58142
2.708	6.54602
2.7085	-0.20142
2.709	10.27222
2.7095	9.16443
2.71	3.7262
2.7105	3.7262
2.711	4.53186
2.7115	3.42407
2.712	1.3092
2.7125	2.92053
2.713	1.10779
2.7135	-1.91345
2.714	-2.61841
2.7145	-1.3092
2.715	-7.04956
2.7155	0.50354
2.716	-6.74744
2.7165	-8.15735
2.717	-4.12903
2.7175	-7.85522
2.718	-2.92053
2.7185	1.10779
2.719	-1.10779
2.7195	1.3092
2.72	10.57434
2.7205	7.75452
2.721	13.39417
2.7215	3.22266
2.722	2.01416
2.7225	1.91345
2.723	10.47363
2.7235	8.66089
2.724	9.56726
2.7245	11.07788
2.725	15.30762
2.7255	18.8324
2.726	15.50903
2.7265	13.69629
2.727	10.87646
2.7275	8.15735
2.728	4.22974
2.7285	7.65381
2.729	9.46655
2.7295	15.20691
2.73	2.92053
2.7305	10.97717
2.731	13.59558
2.7315	7.65381
2.732	6.94885
2.7325	7.25098
2.733	21.14868
2.7335	62.8418
2.734	93.25562
2.7345	89.42871
2.735	75.12817
2.7355	63.84888
2.736	48.74268
2.7365	25.68054
2.737	5.43823
2.7375	-11.17859
2.738	-32.02515
2.7385	-44.11011
2.739	-52.67029
2.7395	-65.05737
2.74	-70.49561
2.7405	-61.73401
2.741	-54.38232
2.7415	-49.95117
2.742	-41.08887
2.7425	-32.7301
2.743	-27.59399
2.7435	-25.27771
2.744	-19.03381
2.7445	-12.78992
2.745	-12.68921
2.7455	-5.0354
2.746	-6.2439
2.7465	-5.0354
2.747	-5.0354
2.7475	2.5177
2.748	1.3092
2.7485	3.22266
2.749	7.04956
2.7495	6.3446
2.75	6.64673
2.7505	4.63257
2.751	12.08496
2.7515	7.04956
2.752	5.53894
2.7525	6.94885
2.753	12.78992
2.7535	17.82532
2.754	11.58142
2.7545	12.78992
2.755	10.67505
2.7555	7.15027
2.756	7.5531
2.7565	12.28638
2.757	18.12744
2.7575	16.21399
2.758	21.85364
2.7585	17.22107
2.759	18.93311
2.7595	24.16992
2.76	17.6239
2.7605	17.12036
2.761	14.09912
2.7615	23.16284
2.762	15.30762
2.7625	13.09204
2.763	9.97009
2.7635	11.38
2.764	10.97717
2.7645	4.43115
2.765	-0.40283
2.7655	0.30212
2.766	2.5177
2.7665	0.50354
2.767	6.64673
2.7675	-2.61841
2.768	2.61841
2.7685	24.47205
2.769	33.9386
2.7695	48.64197
2.77	42.7002
2.7705	38.974
2.771	37.66479
2.7715	27.49329
2.772	21.75293
2.7725	3.32336
2.773	-5.13611
2.7735	-14.30054
2.774	-20.44373
2.7745	-28.50037
2.775	-33.33435
2.7755	-42.7002
2.776	-40.1825
2.7765	-34.34143
2.777	-33.43506
2.7775	-24.67346
2.778	-16.91895
2.7785	-3.32336
2.779	-1.81274
2.7795	0.80566
2.78	8.45947
2.7805	10.97717
2.781	13.19275
2.7815	13.797
2.782	6.14319
2.7825	2.81982
2.783	3.42407
2.7835	0.60425
2.784	8.8623
2.7845	11.58142
2.785	19.33594
2.7855	20.1416
2.786	22.35718
2.7865	22.96143
2.787	24.57275
2.7875	25.37842
2.788	24.77417
2.7885	19.73877
2.789	22.05505
2.7895	19.03381
2.79	22.45789
2.7905	17.6239
2.791	15.1062
2.7915	9.76868
2.792	7.45239
2.7925	2.21558
2.793	3.52478
2.7935	-4.12903
2.794	-5.33752
2.7945	-4.22974
2.795	0
2.7955	-1.00708
2.796	7.35168
2.7965	12.78992
2.797	14.09912
2.7975	3.8269
2.798	12.89062
2.7985	9.16443
2.799	5.63965
2.7995	2.5177
2.8	-0.40283
2.8005	-0.60425
2.801	-0.70496
2.8015	0.80566
2.802	2.11487
2.8025	2.92053
2.803	6.3446
2.8035	9.46655
2.804	7.35168
2.8045	2.31628
2.805	7.95593
2.8055	9.36584
2.806	12.18567
2.8065	7.35168
2.807	12.18567
2.8075	7.15027
2.808	2.71912
2.8085	10.87646
2.809	10.17151
2.8095	10.47363
2.81	8.25806
2.8105	4.93469
2.811	4.93469
2.8115	5.63965
2.812	1.71204
2.8125	-0.60425
2.813	3.92761
2.8135	2.11487
2.814	4.43115
2.8145	1.81274
2.815	4.53186
2.8155	3.8269
2.816	3.32336
2.8165	-0.30212
2.817	-0.60425
2.8175	0.50354
2.818	4.33044
2.8185	8.35876
2.819	4.12903
2.8195	7.75452
2.82	4.22974
2.8205	9.46655
2.821	11.98425
2.8215	9.97009
2.822	0.70496
2.8225	0.40283
2.823	1.10779
2.8235	5.63965
2.824	8.15735
2.8245	7.25098
2.825	8.05664
2.8255	9.76868
2.826	5.0354
2.8265	8.56018
2.827	16.3147
2.8275	13.59558
2.828	15.81116
2.8285	15.60974
2.829	18.63098
2.8295	7.65381
2.83	8.66089
2.8305	7.15027
2.831	9.66797
2.8315	6.44531
2.832	10.27222
2.8325	13.797
2.833	15.50903
2.8335	14.50195
2.834	8.15735
2.8345	4.12903
2.835	-2.11487
2.8355	0.50354
2.836	6.44531
2.8365	44.71436
2.837	79.55933
2.8375	91.04004
2.838	93.65845
2.8385	79.15649
2.839	68.38074
2.8395	43.30444
2.84	19.63806
2.8405	4.12903
2.841	-16.3147
2.8415	-30.01099
2.842	-39.07471
2.8425	-50.75684
2.843	-60.02197
2.8435	-60.52551
2.844	-57.9071
2.8445	-57.40356
2.845	-48.33984
2.8455	-38.77258
2.846	-24.06921
2.8465	-19.73877
2.847	-15.60974
2.8475	-6.84814
2.848	-13.09204
2.8485	-6.3446
2.849	-0.70496
2.8495	2.81982
2.85	-1.81274
2.8505	-1.61133
2.851	8.56018
2.8515	8.66089
2.852	8.35876
2.8525	12.18567
2.853	14.80408
2.8535	19.83948
2.854	15.50903
2.8545	15.71045
2.855	22.86072
2.8555	21.3501
2.856	16.41541
2.8565	15.81116
2.857	13.69629
2.8575	11.58142
2.858	11.48071
2.8585	8.25806
2.859	1.51062
2.8595	10.67505
2.86	12.78992
2.8605	12.08496
2.861	10.67505
2.8615	10.67505
2.862	9.97009
2.8625	6.3446
2.863	5.84106
2.8635	11.2793
2.864	4.43115
2.8645	2.5177
2.865	-1.51062
2.8655	-10.17151
2.866	-6.64673
2.8665	-12.78992
2.867	-14.80408
2.8675	-7.95593
2.868	-4.73328
2.8685	-0.80566
2.869	8.8623
2.8695	41.18958
2.87	56.29578
2.8705	67.37366
2.871	65.86304
2.8715	52.8717
2.872	38.67188
2.8725	23.46497
2.873	9.06372
2.8735	-2.21558
2.874	-9.36584
2.8745	-20.94727
2.875	-27.79541
2.8755	-34.44214
2.876	-33.33435
2.8765	-34.34143
2.877	-30.91736
2.8775	-26.48621
2.878	-14.80408
2.8785	-9.36584
2.879	-2.61841
2.8795	11.2793
2.88	24.57275
2.8805	24.06921
2.881	26.18408
2.8815	29.10461
2.882	22.76001
2.8825	20.64514
2.883	19.23523
2.8835	9.56726
2.884	7.45239
2.8845	1.71204
2.885	4.63257
2.8855	2.11487
2.886	3.92761
2.8865	3.62549
2.887	1.71204
2.8875	4.43115
2.888	6.64673
2.8885	8.05664
2.889	3.12195
2.8895	0.60425
2.89	-5.0354
2.8905	0.50354
2.891	-1.40991
2.8915	-1.91345
2.892	1.81274
2.8925	6.2439
2.893	6.2439
2.8935	6.44531
2.894	9.16443
2.8945	6.84814
2.895	3.92761
2.8955	9.36584
2.896	6.84814
2.8965	2.31628
2.897	9.46655
2.8975	1.91345
2.898	0.90637
2.8985	1.2085
2.899	2.21558
2.8995	-0.40283
2.9	3.8269
2.9005	7.65381
2.901	3.42407
2.9015	2.41699
2.902	1.71204
2.9025	-0.10071
2.903	1.61133
2.9035	1.81274
2.904	-1.91345
2.9045	-4.53186
2.905	-0.90637
2.9055	4.12903
2.906	2.41699
2.9065	2.71912
2.907	1.91345
2.9075	2.41699
2.908	1.51062
2.9085	9.36584
2.909	6.04248
2.9095	4.83398
2.91	3.7262
2.9105	0.40283
2.911	12.5885
2.9115	14.30054
2.912	6.84814
2.9125	8.35876
2.913	12.5885
2.9135	12.78992
2.914	8.56018
2.9145	5.23682
2.915	12.08496
2.9155	7.45239
2.916	8.66089
2.9165	11.17859
2.917	6.94885
2.9175	15.00549
2.918	10.77576
2.9185	8.15735
2.919	8.05664
2.9195	1.81274
2.92	3.92761
2.9205	7.35168
2.921	12.68921
2.9215	9.16443
2.922	9.06372
2.9225	10.57434
2.923	13.29346
2.9235	13.09204
2.924	13.09204
2.9245	8.7616
2.925	9.76868
2.9255	2.31628
2.926	0.90637
2.9265	9.16443
2.927	16.01257
2.9275	10.27222
2.928	3.42407
2.9285	4.63257
2.929	0.70496
2.9295	-2.81982
2.93	-6.84814
2.9305	-9.86938
2.931	-5.43823
2.9315	-12.99133
2.932	-24.87488
2.9325	-24.57275
2.933	-26.28479
2.9335	-31.11877
2.934	-22.25647
2.9345	-19.83948
2.935	-13.69629
2.9355	-9.66797
2.936	-3.02124
2.9365	4.02832
2.937	2.01416
2.9375	11.78284
2.938	6.54602
2.9385	15.30762
2.939	11.2793
2.9395	12.99133
2.94	15.81116
2.9405	17.42249
2.941	11.58142
2.9415	8.7616
2.942	13.59558
2.9425	16.61682
2.943	14.50195
2.9435	12.28638
2.944	12.99133
2.9445	9.97009
2.945	10.37292
2.9455	4.83398
2.946	4.63257
2.9465	3.8269
2.947	4.73328
2.9475	1.61133
2.948	1.3092
2.9485	9.26514
2.949	13.797
2.9495	19.53735
2.95	20.74585
2.9505	16.01257
2.951	12.68921
2.9515	16.41541
2.952	15.40833
2.9525	15.60974
2.953	12.89062
2.9535	10.97717
2.954	6.2439
2.9545	4.83398
2.955	5.33752
2.9555	2.5177
2.956	9.76868
2.9565	14.50195
2.957	5.13611
2.9575	7.04956
2.958	6.44531
2.9585	6.74744
2.959	6.44531
2.9595	17.12036
2.96	64.55383
2.9605	93.75916
2.961	92.44995
2.9615	87.71667
2.962	80.36499
2.9625	52.36816
2.963	34.84497
2.9635	5.74036
2.964	-14.50195
2.9645	-30.2124
2.965	-39.67896
2.9655	-54.78516
2.966	-62.03613
2.9665	-63.04321
2.967	-55.2887
2.9675	-49.14551
2.968	-38.06763
2.9685	-27.49329
2.969	-26.88904
2.9695	-13.797
2.97	-11.07788
2.9705	-5.74036
2.971	2.21558
2.9715	-1.81274
2.972	3.22266
2.9725	3.52478
2.973	6.54602
2.9735	11.88354
2.974	9.56726
2.9745	15.91187
2.975	17.32178
2.9755	16.11328
2.976	15.20691
2.9765	10.77576
2.977	9.76868
2.9775	7.75452
2.978	8.25806
2.9785	1.71204
2.979	-2.11487
2.9795	-0.50354
2.98	8.35876
2.9805	4.73328
2.981	13.29346
2.9815	11.17859
2.982	14.09912
2.9825	13.49487
2.983	9.36584
2.9835	10.0708
2.984	6.94885
2.9845	13.69629
2.985	9.26514
2.9855	12.08496
2.986	8.15735
2.9865	8.25806
2.987	10.67505
2.9875	4.83398
2.988	11.98425
2.9885	14.50195
2.989	12.89062
2.9895	8.35876
2.99	4.43115
2.9905	7.25098
2.991	5.94177
2.9915	5.13611
2.992	1.71204
2.9925	3.02124
2.993	0.50354
2.9935	4.93469
2.994	5.94177
2.9945	11.68213
2.995	8.96301
2.9955	8.7616
2.996	-0.30212
2.9965	3.62549
2.997	3.42407
2.9975	2.92053
2.998	-1.61133
2.9985	2.5177
2.999	2.41699
2.9995	6.2439
3	2.61841
3.0005	0.50354
3.001	0.50354
3.0015	13.29346
3.002	30.81665
3.0025	47.13135
3.003	62.13684
3.0035	59.21631
3.004	47.7356
3.0045	41.69312
3.005	30.31311
3.0055	19.13452
3.006	11.38
3.0065	-0.80566
3.007	-11.98425
3.0075	-12.18567
3.008	-20.44373
3.0085	-26.08337
3.009	-28.29895
3.0095	-31.32019
3.01	-29.80957
3.0105	-27.09045
3.011	-13.59558
3.0115	-11.38
3.012	-4.22974
3.0125	-9.16443
3.013	-7.04956
3.0135	-6.64673
3.014	-14.40125
3.0145	-15.91187
3.015	-12.38708
3.0155	-11.38
3.016	-9.56726
3.0165	-1.3092
3.017	-0.10071
3.0175	4.43115
3.018	6.64673
3.0185	10.27222
3.019	8.05664
3.0195	14.40125
3.02	12.78992
3.0205	9.06372
3.021	16.91895
3.0215	18.73169
3.022	14.09912
3.0225	14.40125
3.023	9.97009
3.0235	0.20142
3.024	4.73328
3.0245	7.15027
3.025	7.65381
3.0255	5.74036
3.026	2.61841
3.0265	6.74744
3.027	6.84814
3.0275	8.96301
3.028	8.7616
3.0285	2.5177
3.029	9.46655
3.0295	8.56018
3.03	6.44531
3.0305	5.74036
3.031	6.74744
3.0315	10.77576
3.032	4.33044
3.0325	8.15735
3.033	7.35168
3.0335	4.63257
3.034	7.45239
3.0345	3.92761
3.035	6.74744
3.0355	10.97717
3.036	9.97009
3.0365	11.38
3.037	17.22107
3.0375	13.59558
3.038	12.68921
3.0385	10.0708
3.039	11.07788
3.0395	9.16443
3.04	7.25098
3.0405	6.2439
3.041	5.53894
3.0415	3.12195
3.042	-7.5531
3.0425	-2.5177
3.043	-13.89771
3.0435	-6.94885
3.044	-8.56018
3.0445	-7.04956
3.045	-11.48071
3.0455	-7.04956
3.046	-1.3092
3.0465	-0.40283
3.047	3.32336
3.0475	5.33752
3.048	0.50354
3.0485	0.10071
3.049	1.10779
3.0495	1.91345
3.05	4.33044
3.0505	4.63257
3.051	8.96301
3.0515	16.71753
3.052	25.57983
3.0525	30.41382
3.053	33.53577
3.0535	25.88196
3.054	16.81824
3.0545	12.18567
3.055	8.45947
3.0555	4.33044
3.056	-0.80566
3.0565	-8.25806
3.057	-13.19275
3.0575	-17.52319
3.058	-14.30054
3.0585	-6.64673
3.059	-7.5531
3.0595	-1.61133
3.06	-1.81274
3.0605	2.01416
3.061	5.13611
3.0615	5.33752
3.062	6.84814
3.0625	4.53186
3.063	1.51062
3.0635	36.55701
3.064	70.19348
3.0645	79.76074
3.065	81.97632
3.0655	73.41614
3.066	60.92834
3.0665	42.7002
3.067	22.45789
3.0675	7.95593
3.068	-11.98425
3.0685	-29.91028
3.069	-46.62781
3.0695	-55.59082
3.07	-55.49011
3.0705	-55.2887
3.071	-44.61365
3.0715	-38.974
3.072	-30.41382
3.0725	-19.53735
3.073	-10.97717
3.0735	-5.23682
3.074	3.42407
3.0745	5.53894
3.075	2.61841
3.0755	3.02124
3.076	6.84814
3.0765	1.00708
3.077	5.53894
3.0775	5.63965
3.078	13.797
3.0785	11.38
3.079	11.78284
3.0795	6.2439
3.08	3.7262
3.0805	5.63965
3.081	3.22266
3.0815	-1.91345
3.082	-1.71204
3.0825	2.61841
3.083	1.3092
3.0835	3.7262
3.084	6.04248
3.0845	3.92761
3.085	-2.41699
3.0855	8.66089
3.086	8.45947
3.0865	7.15027
3.087	8.56018
3.0875	10.37292
3.088	2.81982
3.0885	8.15735
3.089	10.27222
3.0895	8.15735
3.09	1.51062
3.0905	5.63965
3.091	5.94177
3.0915	6.84814
3.092	5.43823
3.0925	4.83398
3.093	7.15027
3.0935	5.84106
3.094	2.41699
3.0945	4.02832
3.095	6.04248
3.0955	6.44531
3.096	5.94177
3.0965	3.42407
3.097	8.7616
3.0975	3.02124
3.098	9.06372
3.0985	4.43115
3.099	7.04956
3.0995	3.32336
3.1	1.91345
3.1005	8.15735
3.101	2.01416
3.1015	1.40991
3.102	6.2439
3.1025	6.44531
3.103	9.36584
3.1035	7.75452
3.104	3.7262
3.1045	8.45947
3.105	7.95593
3.1055	9.76868
3.106	8.56018
3.1065	5.0354
3.107	12.99133
3.1075	17.6239
3.108	16.61682
3.1085	8.96301
3.109	7.04956
3.1095	5.33752
3.11	2.31628
3.1105	-2.92053
3.111	1.3092
3.1115	0.50354
3.112	-0.80566
3.1125	-1.81274
3.113	-0.20142
3.1135	2.61841
3.114	2.11487
3.1145	1.61133
3.115	7.75452
3.1155	6.54602
3.116	9.06372
3.1165	6.3446
3.117	2.61841
3.1175	6.94885
3.118	4.63257
3.1185	5.33752
3.119	6.54602
3.1195	4.33044
3.12	1.00708
3.1205	6.44531
3.121	9.56726
3.1215	8.8623
3.122	4.43115
3.1225	8.05664
3.123	10.57434
3.1235	13.49487
3.124	8.35876
3.1245	4.43115
3.125	0.10071
3.1255	-7.85522
3.126	-4.43115
3.1265	-2.31628
3.127	0.20142
3.1275	7.65381
3.128	4.73328
3.1285	10.27222
3.129	11.17859
3.1295	14.60266
3.13	20.1416
3.1305	17.72461
3.131	15.30762
3.1315	10.97717
3.132	10.0708
3.1325	16.61682
3.133	14.70337
3.1335	13.59558
3.134	11.78284
3.1345	1.51062
3.135	1.91345
3.1355	0.40283
3.136	0.40283
3.1365	-4.93469
3.137	0.10071
3.1375	-1.3092
3.138	2.5177
3.1385	1.81274
3.139	-0.50354
3.1395	2.01416
3.14	-1.3092
3.1405	-1.10779
3.141	1.10779
3.1415	3.22266
3.142	5.33752
3.1425	5.74036
3.143	12.18567
3.1435	7.35168
3.144	10.97717
3.1445	9.46655
3.145	4.43115
3.1455	3.12195
3.146	-1.61133
3.1465	0.70496
3.147	3.52478
3.1475	1.10779
3.148	1.81274
3.1485	2.41699
3.149	1.81274
3.1495	5.0354
3.15	9.06372
3.1505	8.15735
3.151	3.02124
3.1515	7.45239
3.152	8.56018
3.1525	9.56726
3.153	6.44531
3.1535	7.75452
3.154	8.66089
3.1545	11.07788
3.155	8.66089
3.1555	12.5885
3.156	10.57434
3.1565	4.83398
3.157	0.60425
3.1575	-0.30212
3.158	-7.95593
3.1585	-1.00708
3.159	-0.90637
3.1595	4.43115
3.16	5.23682
3.1605	6.74744
3.161	10.17151
3.1615	9.66797
3.162	18.8324
3.1625	16.41541
3.163	16.91895
3.1635	7.85522
3.164	7.35168
3.1645	8.45947
3.165	8.66089
3.1655	15.71045
3.166	13.69629
3.1665	17.72461
3.167	17.82532
3.1675	8.96301
3.168	7.35168
3.1685	8.96301
3.169	-0.20142
3.1695	1.91345
3.17	3.8269
3.1705	8.35876
3.171	1.81274
3.1715	6.94885
3.172	5.74036
3.1725	8.56018
3.173	16.81824
3.1735	15.50903
3.174	11.2793
3.1745	14.09912
3.175	8.66089
3.1755	2.5177
3.176	7.25098
3.1765	0.60425
3.177	0.70496
3.1775	-0.60425
3.178	3.12195
3.1785	-0.70496
3.179	-5.0354
3.1795	-4.73328
3.18	-0.80566
3.1805	0.90637
3.181	-0.40283
3.1815	0.70496
3.182	-0.40283
3.1825	-1.71204
3.183	-0.80566
3.1835	4.53186
3.184	3.22266
3.1845	-6.64673
3.185	-0.60425
3.1855	2.01416
3.186	-1.00708
3.1865	-1.71204
3.187	-1.10779
3.1875	-0.30212
3.188	0.40283
3.1885	4.22974
3.189	4.43115
3.1895	0.30212
3.19	2.21558
3.1905	6.04248
3.191	3.52478
3.1915	7.45239
3.192	0.30212
3.1925	3.02124
3.193	1.91345
3.1935	-0.50354
3.194	4.02832
3.1945	7.85522
3.195	1.2085
3.1955	7.5531
3.196	6.84814
3.1965	6.2439
3.197	11.07788
3.1975	13.39417
3.198	15.1062
3.1985	15.20691
3.199	13.29346
3.1995	15.91187
3.2	7.95593
3.2005	12.38708
3.201	15.81116
3.2015	12.68921
3.202	8.96301
3.2025	5.23682
3.203	7.25098
3.2035	10.97717
3.204	17.42249
3.2045	24.57275
3.205	18.02673
3.2055	43.20374
3.206	86.40747
3.2065	102.62146
3.207	97.98889
3.2075	79.55933
3.208	58.00781
3.2085	27.09045
3.209	6.64673
3.2095	-20.74585
3.21	-32.32727
3.2105	-44.71436
3.211	-51.15967
3.2115	-62.43896
3.212	-67.37366
3.2125	-61.23047
3.213	-56.90002
3.2135	-48.84338
3.214	-27.29187
3.2145	-19.63806
3.215	-10.77576
3.2155	-1.00708
3.216	13.59558
3.2165	6.84814
3.217	14.19983
3.2175	23.36426
3.218	26.48621
3.2185	27.99683
3.219	32.93152
3.2195	29.10461
3.22	28.80249
3.2205	25.27771
3.221	25.177
3.2215	12.18567
3.222	11.68213
3.2225	10.67505
3.223	13.69629
3.2235	8.56018
3.224	11.48071
3.2245	10.0708
3.225	10.37292
3.2255	13.29346
3.226	11.2793
3.2265	7.75452
3.227	1.10779
3.2275	-2.71912
3.228	-1.71204
3.2285	2.21558
3.229	5.84106
3.2295	0.60425
3.23	-5.53894
3.2305	-5.63965
3.231	0
3.2315	4.02832
3.232	3.42407
3.2325	1.40991
3.233	7.85522
3.2335	2.61841
3.234	4.33044
3.2345	5.94177
3.235	6.2439
3.2355	8.96301
3.236	10.0708
3.2365	14.19983
3.237	17.52319
3.2375	11.38
3.238	12.38708
3.2385	13.39417
3.239	12.48779
3.2395	10.57434
3.24	9.66797
3.2405	5.84106
3.241	6.54602
3.2415	2.61841
3.242	1.40991
3.2425	0.20142
3.243	2.31628
3.2435	1.81274
3.244	3.42407
3.2445	2.41699
3.245	-4.02832
3.2455	0.30212
3.246	0.20142
3.2465	2.61841
3.247	3.02124
3.2475	0.80566
3.248	-4.02832
3.2485	-5.0354
3.249	0.90637
3.2495	4.43115
3.25	4.12903
3.2505	1.61133
3.251	-4.12903
3.2515	-1.2085
3.252	-2.11487
3.2525	-0.60425
3.253	-3.8269
3.2535	-1.81274
3.254	1.91345
3.2545	0.40283
3.255	4.33044
3.2555	6.94885
3.256	2.71912
3.2565	5.53894
3.257	-0.40283
3.2575	0.40283
3.258	-1.51062
3.2585	-1.91345
3.259	3.02124
3.2595	2.81982
3.26	1.40991
3.2605	6.54602
3.261	3.92761
3.2615	4.22974
3.262	-1.3092
3.2625	-10.47363
3.263	-2.61841
3.2635	-1.71204
3.264	23.36426
3.2645	43.20374
3.265	54.18091
3.2655	63.54675
3.266	57.30286
3.2665	39.47754
3.267	31.92444
3.2675	25.37842
3.268	7.5531
3.2685	-2.61841
3.269	-12.38708
3.2695	-19.03381
3.27	-25.47913
3.2705	-34.94568
3.271	-33.83789
3.2715	-30.91736
3.272	-30.51453
3.2725	-22.45789
3.273	-20.34302
3.2735	-12.28638
3.274	-8.96301
3.2745	-3.62549
3.275	-6.54602
3.2755	1.00708
3.276	4.83398
3.2765	1.51062
3.277	6.64673
3.2775	7.75452
3.278	9.26514
3.2785	7.5531
3.279	8.05664
3.2795	19.43665
3.28	22.05505
3.2805	19.94019
3.281	16.41541
3.2815	11.17859
3.282	13.797
3.2825	15.20691
3.283	18.22815
3.2835	16.01257
3.284	16.81824
3.2845	16.61682
3.285	18.32886
3.2855	13.69629
3.286	15.71045
3.2865	16.21399
3.287	17.12036
3.2875	17.12036
3.288	11.38
3.2885	4.43115
3.289	4.63257
3.2895	4.93469
3.29	-5.23682
3.2905	-0.90637
3.291	2.92053
3.2915	5.33752
3.292	6.94885
3.2925	6.84814
3.293	10.97717
3.2935	13.59558
3.294	7.25098
3.2945	3.42407
3.295	7.15027
3.2955	3.52478
3.296	3.42407
3.2965	3.32336
3.297	4.73328
3.2975	2.5177
3.298	0.30212
3.2985	3.52478
3.299	8.45947
3.2995	8.05664
3.3	3.8269
3.3005	8.8623
3.301	7.15027
3.3015	4.02832
3.302	-0.60425
3.3025	0.30212
3.303	-6.3446
3.3035	-2.41699
3.304	-9.26514
3.3045	-10.67505
3.305	-4.43115
3.3055	-8.7616
3.306	-2.71912
3.3065	5.13611
3.307	39.88037
3.3075	89.22729
3.308	120.14465
3.3085	113.29651
3.309	105.23987
3.3095	78.14941
3.31	54.88586
3.3105	26.68762
3.311	-2.81982
3.3115	-24.77417
3.312	-39.98108
3.3125	-50.75684
3.313	-67.17224
3.3135	-71.50269
3.314	-69.68994
3.3145	-63.54675
3.315	-48.13843
3.3155	-38.77258
3.316	-31.4209
3.3165	-20.44373
3.317	-22.45789
3.3175	-20.54443
3.318	-19.53735
3.3185	-15.60974
3.319	-17.82532
3.3195	-11.38
3.32	-0.20142
3.3205	9.66797
3.321	10.27222
3.3215	11.48071
3.322	9.46655
3.3225	13.89771
3.323	12.08496
3.3235	7.15027
3.324	7.95593
3.3245	6.54602
3.325	6.74744
3.3255	6.54602
3.326	9.76868
3.3265	11.98425
3.327	3.32336
3.3275	4.63257
3.328	0.40283
3.3285	-1.10779
3.329	-1.81274
3.3295	-2.11487
3.33	0.10071
3.3305	-1.10779
3.331	-1.81274
3.3315	-1.00708
3.332	0.60425
3.3325	6.54602
3.333	6.04248
3.3335	10.0708
3.334	7.85522
3.3345	8.56018
3.335	7.15027
3.3355	11.48071
3.336	10.47363
3.3365	7.95593
3.337	10.47363
3.3375	7.25098
3.338	12.48779
3.3385	9.56726
3.339	0.80566
3.3395	1.00708
3.34	5.53894
3.3405	-0.60425
3.341	-2.5177
3.3415	-0.70496
3.342	-4.63257
3.3425	-0.40283
3.343	0.20142
3.3435	1.40991
3.344	-0.70496
3.3445	3.62549
3.345	8.96301
3.3455	3.62549
3.346	6.54602
3.3465	16.61682
3.347	14.30054
3.3475	16.21399
3.348	17.01965
3.3485	20.04089
3.349	17.82532
3.3495	16.81824
3.35	15.91187
3.3505	14.40125
3.351	6.04248
3.3515	3.02124
3.352	-3.02124
3.3525	-0.50354
3.353	5.13611
3.3535	8.8623
3.354	8.05664
3.3545	14.60266
3.355	17.6239
3.3555	19.63806
3.356	22.96143
3.3565	20.24231
3.357	12.08496
3.3575	14.80408
3.358	12.08496
3.3585	11.07788
3.359	9.06372
3.3595	8.7616
3.36	29.10461
3.3605	49.85046
3.361	56.90002
3.3615	51.86462
3.362	44.11011
3.3625	29.80957
3.363	20.54443
3.3635	5.94177
3.364	-7.85522
3.3645	-13.99841
3.365	-18.42957
3.3655	-24.06921
3.366	-22.96143
3.3665	-19.23523
3.367	-8.25806
3.3675	-10.67505
3.368	-7.65381
3.3685	-2.61841
3.369	2.81982
3.3695	3.22266
3.37	5.53894
3.3705	2.5177
3.371	3.8269
3.3715	6.44531
3.372	2.61841
3.3725	4.33044
3.373	8.56018
3.3735	7.35168
3.374	7.45239
3.3745	11.98425
3.375	5.74036
3.3755	11.07788
3.376	10.57434
3.3765	10.87646
3.377	13.39417
3.3775	12.08496
3.378	9.26514
3.3785	3.8269
3.379	4.02832
3.3795	-1.61133
3.38	0.20142
3.3805	1.51062
3.381	-1.3092
3.3815	1.71204
3.382	-0.10071
3.3825	-1.51062
3.383	2.41699
3.3835	1.40991
3.384	11.78284
3.3845	10.97717
3.385	11.58142
3.3855	9.66797
3.386	7.95593
3.3865	8.35876
3.387	11.2793
3.3875	14.70337
3.388	11.68213
3.3885	4.83398
3.389	-0.50354
3.3895	3.52478
3.39	15.1062
3.3905	19.63806
3.391	16.01257
3.3915	5.53894
3.392	-1.00708
3.3925	2.21558
3.393	-9.86938
3.3935	-13.29346
3.394	-13.797
3.3945	-19.63806
3.395	-19.23523
3.3955	-12.28638
3.396	-15.00549
3.3965	-11.88354
3.397	-9.56726
3.3975	-4.53186
3.398	-3.8269
3.3985	2.41699
3.399	7.25098
3.3995	12.28638
3.4	9.06372
3.4005	6.3446
3.401	11.07788
3.4015	44.51294
3.402	91.54358
3.4025	113.49792
3.403	117.82837
3.4035	102.72217
3.404	86.8103
3.4045	58.61206
3.405	31.32019
3.4055	2.11487
3.406	-18.42957
3.4065	-40.1825
3.407	-49.85046
3.4075	-67.67578
3.408	-70.99915
3.4085	-73.41614
3.409	-65.86304
3.4095	-64.35242
3.41	-55.08728
3.4105	-43.00232
3.411	-33.33435
3.4115	-27.99683
3.412	-19.23523
3.4125	-14.50195
3.413	-15.20691
3.4135	-13.09204
3.414	-4.43115
3.4145	-3.12195
3.415	5.23682
3.4155	5.94177
3.416	5.84106
3.4165	10.87646
3.417	4.83398
3.4175	3.12195
3.418	1.81274
3.4185	3.62549
3.419	-3.92761
3.4195	-2.21558
3.42	-1.3092
3.4205	-0.90637
3.421	1.40991
3.4215	1.10779
3.422	1.61133
3.4225	2.5177
3.423	7.15027
3.4235	2.01416
3.424	1.71204
3.4245	6.64673
3.425	1.81274
3.4255	-1.51062
3.426	-3.62549
3.4265	0.20142
3.427	5.74036
3.4275	9.66797
3.428	13.49487
3.4285	14.90479
3.429	19.43665
3.4295	28.09753
3.43	28.50037
3.4305	25.88196
3.431	23.16284
3.4315	27.59399
3.432	22.35718
3.4325	15.40833
3.433	14.70337
3.4335	21.04797
3.434	15.30762
3.4345	20.84656
3.435	13.39417
3.4355	13.59558
3.436	8.66089
3.4365	4.22974
3.437	1.10779
3.4375	-5.33752
3.438	-7.95593
3.4385	-7.5531
3.439	-3.42407
3.4395	-4.33044
3.44	-4.63257
3.4405	-2.41699
3.441	3.52478
3.4415	7.25098
3.442	12.78992
3.4425	6.94885
3.443	9.76868
3.4435	14.09912
3.444	11.98425
3.4445	20.24231
3.445	44.61365
3.4455	60.72693
3.446	73.11401
3.4465	71.20056
3.447	59.21631
3.4475	47.8363
3.448	33.63647
3.4485	15.20691
3.449	8.15735
3.4495	-1.2085
3.45	-14.90479
3.4505	-22.45789
3.451	-28.70178
3.4515	-31.52161
3.452	-37.36267
3.4525	-26.88904
3.453	-23.46497
3.4535	-17.32178
3.454	-17.12036
3.4545	-14.09912
3.455	-9.16443
3.4555	-3.02124
3.456	-7.85522
3.4565	-0.40283
3.457	-2.11487
3.4575	-2.11487
3.458	-0.80566
3.4585	-0.90637
3.459	14.19983
3.4595	14.90479
3.46	21.04797
3.4605	15.50903
3.461	16.71753
3.4615	17.32178
3.462	20.74585
3.4625	15.91187
3.463	10.37292
3.4635	15.00549
3.464	13.39417
3.4645	16.21399
3.465	13.89771
3.4655	15.1062
3.466	5.84106
3.4665	1.91345
3.467	7.5531
3.4675	30.2124
3.468	73.81897
3.4685	88.42163
3.469	89.22729
3.4695	84.99756
3.47	69.28711
3.4705	46.72852
3.471	26.08337
3.4715	1.10779
3.472	-28.09753
3.4725	-46.42639
3.473	-60.52551
3.4735	-71.30127
3.474	-74.12109
3.4745	-74.82605
3.475	-71.09985
3.4755	-60.12268
3.476	-51.76392
3.4765	-45.62073
3.477	-31.32019
3.4775	-18.42957
3.478	-7.65381
3.4785	8.56018
3.479	13.99841
3.4795	22.6593
3.48	21.85364
3.4805	19.43665
3.481	16.71753
3.4815	17.01965
3.482	21.65222
3.4825	24.06921
3.483	13.797
3.4835	17.12036
3.484	9.06372
3.4845	17.82532
3.485	14.30054
3.4855	16.81824
3.486	9.76868
3.4865	13.39417
3.487	15.30762
3.4875	15.30762
3.488	9.66797
3.4885	-1.2085
3.489	-7.65381
3.4895	-8.7616
3.49	-6.54602
3.4905	-10.47363
3.491	-13.59558
3.4915	-6.3446
3.492	-11.68213
3.4925	-8.35876
3.493	-10.47363
3.4935	-4.63257
3.494	4.53186
3.4945	6.44531
3.495	4.53186
3.4955	10.47363
3.496	14.40125
3.4965	15.1062
3.497	16.11328
3.4975	22.35718
3.498	23.56567
3.4985	25.177
3.499	20.1416
3.4995	22.15576
3.5	16.3147
3.5005	17.6239
3.501	12.38708
3.5015	9.36584
3.502	12.38708
3.5025	10.77576
3.503	10.17151
3.5035	9.76868
3.504	6.64673
3.5045	4.33044
3.505	6.84814
3.5055	10.37292
3.506	12.18567
3.5065	14.09912
3.507	19.13452
3.5075	15.60974
3.508	18.93311
3.5085	20.94727
3.509	20.24231
3.5095	10.17151
3.51	3.12195
3.5105	3.8269
3.511	-2.92053
3.5115	0.70496
3.512	7.65381
3.5125	13.89771
3.513	19.33594
3.5135	15.71045
3.514	19.94019
3.5145	15.91187
3.515	13.89771
3.5155	8.66089
3.516	6.54602
3.5165	3.12195
3.517	15.91187
3.5175	33.23364
3.518	50.85754
3.5185	56.69861
3.519	51.86462
3.5195	38.26904
3.52	22.55859
3.5205	7.15027
3.521	-5.94177
3.5215	-19.63806
3.522	-27.59399
3.5225	-34.34143
3.523	-34.44214
3.5235	-42.90161
3.524	-41.18958
3.5245	-37.06055
3.525	-30.31311
3.5255	-17.32178
3.526	-13.69629
3.5265	-3.12195
3.527	-0.40283
3.5275	0.70496
3.528	2.5177
3.5285	5.0354
3.529	0.90637
3.5295	5.53894
3.53	4.63257
3.5305	3.22266
3.531	2.71912
3.5315	5.0354
3.532	5.74036
3.5325	9.16443
3.533	4.12903
3.5335	2.5177
3.534	-2.11487
3.5345	2.21558
3.535	6.04248
3.5355	-0.70496
3.536	10.17151
3.5365	11.98425
3.537	16.71753
3.5375	12.38708
3.538	16.41541
3.5385	13.29346
3.539	17.6239
3.5395	24.87488
3.54	23.36426
3.5405	19.23523
3.541	34.44214
3.5415	68.48145
3.542	90.83862
3.5425	88.62305
3.543	73.21472
3.5435	58.20923
3.544	35.95276
3.5445	13.99841
3.545	-9.06372
3.5455	-29.70886
3.546	-42.49878
3.5465	-44.81506
3.547	-57.60498
3.5475	-61.83472
3.548	-63.04321
3.5485	-60.72693
3.549	-53.47595
3.5495	-40.78674
3.55	-29.30603
3.5505	-16.91895
3.551	1.2085
3.5515	10.67505
3.552	18.02673
3.5525	11.58142
3.553	-3.32336
3.5535	-8.66089
3.554	-7.15027
3.5545	0.50354
3.555	1.2085
3.5555	4.93469
3.556	6.14319
3.5565	10.0708
3.557	15.91187
3.5575	22.05505
3.558	43.20374
3.5585	49.44763
3.559	45.41931
3.5595	35.95276
3.56	27.99683
3.5605	26.58691
3.561	18.02673
3.5615	5.74036
3.562	6.64673
3.5625	-7.35168
3.563	-13.99841
3.5635	-14.19983
3.564	-16.21399
3.5645	-10.87646
3.565	-5.74036
3.5655	-2.21558
3.566	6.04248
3.5665	16.61682
3.567	22.45789
3.5675	22.86072
3.568	23.66638
3.5685	27.19116
3.569	27.79541
3.5695	30.01099
3.57	28.50037
3.5705	27.59399
3.571	20.44373
3.5715	24.37134
3.572	27.19116
3.5725	16.91895
3.573	10.47363
3.5735	8.8623
3.574	14.40125
3.5745	25.78125
3.575	37.96692
3.5755	37.56409
3.576	30.41382
3.5765	17.12036
3.577	11.07788
3.5775	4.53186
3.578	-9.66797
3.5785	-15.00549
3.579	-20.24231
3.5795	-32.42798
3.58	-29.40674
3.5805	-29.20532
3.581	-26.28479
3.5815	-28.70178
3.582	-31.21948
3.5825	-23.96851
3.583	-24.67346
3.5835	-25.98267
3.584	-17.6239
3.5845	-8.96301
3.585	-3.12195
3.5855	-2.11487
3.586	5.74036
3.5865	4.22974
3.587	8.35876
3.5875	9.46655
3.588	14.70337
3.5885	8.35876
3.589	15.91187
3.5895	18.12744
3.59	18.32886
3.5905	12.38708
3.591	12.38708
3.5915	12.38708
3.592	13.89771
3.5925	8.25806
3.593	9.76868
3.5935	14.60266
3.594	13.59558
3.5945	13.29346
3.595	12.89062
3.5955	64.65454
3.596	125.48218
3.5965	156.09741
3.597	158.71582
3.5975	146.73157
3.598	111.18164
3.5985	80.86853
3.599	37.26196
3.5995	-3.12195
3.6	-46.42639
3.6005	-67.37366
3.601	-90.03296
3.6015	-106.44836
3.602	-111.38306
3.6025	-115.10925
3.603	-106.54907
3.6035	-88.32092
3.604	-68.17932
3.6045	-49.74976
3.605	-35.2478
3.6055	-17.12036
3.606	-8.45947
3.6065	0.70496
3.607	4.53186
3.6075	14.30054
3.608	18.53027
3.6085	11.68213
3.609	5.43823
3.6095	0.30212
3.61	6.14319
3.6105	17.12036
3.611	13.49487
3.6115	8.05664
3.612	0.40283
3.6125	-5.84106
3.613	-9.06372
3.6135	-3.02124
3.614	5.23682
3.6145	8.05664
3.615	10.27222
3.6155	10.27222
3.616	5.53894
3.6165	6.64673
3.617	9.86938
3.6175	6.94885
3.618	4.63257
3.6185	2.81982
3.619	6.54602
3.6195	0.90637
3.62	4.53186
3.6205	7.95593
3.621	13.49487
3.6215	9.76868
3.622	7.25098
3.6225	12.89062
3.623	9.76868
3.6235	17.22107
3.624	20.54443
3.6245	17.82532
3.625	11.07788
3.6255	10.97717
3.626	11.58142
3.6265	15.40833
3.627	13.39417
3.6275	24.57275
3.628	26.08337
3.6285	29.30603
3.629	33.9386
3.6295	32.32727
3.63	32.62939
3.6305	30.51453
3.631	26.08337
3.6315	15.1062
3.632	10.37292
3.6325	4.12903
3.633	0.80566
3.6335	-0.40283
3.634	2.71912
3.6345	-7.75452
3.635	-16.41541
3.6355	-16.51611
3.636	-12.28638
3.6365	17.6239
3.637	36.35559
3.6375	44.81506
3.638	45.11719
3.6385	38.67188
3.639	45.3186
3.6395	57.9071
3.64	54.48303
3.6405	47.23206
3.641	33.53577
3.6415	11.58142
3.642	-8.05664
3.6425	-15.00549
3.643	-22.96143
3.6435	-13.797
3.644	-0.70496
3.6445	3.22266
3.645	-2.5177
3.6455	-5.74036
3.646	-16.81824
3.6465	-18.02673
3.647	19.23523
3.6475	49.74976
3.648	49.64905
3.6485	37.06055
3.649	30.71594
3.6495	28.80249
3.65	23.26355
3.6505	4.43115
3.651	-9.26514
3.6515	-23.06213
3.652	-36.4563
3.6525	-41.69312
3.653	-45.62073
3.6535	-56.5979
3.654	-65.66162
3.6545	-63.84888
3.655	-63.34534
3.6555	-57.30286
3.656	-47.7356
3.6565	-30.61523
3.657	-20.34302
3.6575	-7.85522
3.658	42.19666
3.6585	85.29968
3.659	97.68677
3.6595	91.8457
3.66	73.31543
3.6605	54.78516
3.661	30.41382
3.6615	6.44531
3.662	-18.12744
3.6625	-36.95984
3.663	-57.70569
3.6635	-76.94092
3.664	-78.45154
3.6645	-79.76074
3.665	-65.76233
3.6655	-50.354
3.666	-45.41931
3.6665	-34.03931
3.667	20.1416
3.6675	57.60498
3.668	75.73242
3.6685	80.56641
3.669	63.44604
3.6695	45.72144
3.67	31.92444
3.6705	19.33594
3.671	5.63965
3.6715	-15.40833
3.672	-18.73169
3.6725	-26.18408
3.673	-34.24072
3.6735	-31.01807
3.674	-31.62231
3.6745	-24.37134
3.675	-10.0708
3.6755	4.83398
3.676	13.19275
3.6765	33.63647
3.677	39.37683
3.6775	48.94409
3.678	57.8064
3.6785	56.90002
3.679	48.23914
3.6795	35.85205
3.68	25.47913
3.6805	11.88354
3.681	-4.83398
3.6815	-7.75452
3.682	-16.11328
3.6825	-22.6593
3.683	-30.01099
3.6835	-32.7301
3.684	-30.01099
3.6845	-28.19824
3.685	-26.88904
3.6855	-19.94019
3.686	-12.38708
3.6865	-6.14319
3.687	1.10779
3.6875	-0.20142
3.688	6.3446
3.6885	16.21399
3.689	18.42957
3.6895	21.04797
3.69	27.39258
3.6905	29.50745
3.691	27.6947
3.6915	29.00391
3.692	35.85205
3.6925	26.18408
3.693	25.27771
3.6935	21.55151
3.694	14.09912
3.6945	17.72461
3.695	21.24939
3.6955	12.48779
3.696	15.40833
3.6965	18.02673
3.697	23.16284
3.6975	25.78125
3.698	29.10461
3.6985	23.26355
3.699	25.07629
3.6995	18.8324
3.7	26.48621
3.7005	21.14868
3.701	14.90479
3.7015	18.12744
3.702	28.19824
3.7025	56.39648
3.703	66.26587
3.7035	66.46729
3.704	55.79224
3.7045	71.20056
3.705	77.84729
3.7055	74.92676
3.706	49.85046
3.7065	30.71594
3.707	25.37842
3.7075	17.82532
3.708	6.64673
3.7085	-5.63965
3.709	-23.26355
3.7095	-48.94409
3.71	-58.91418
3.7105	-67.8772
3.711	-77.84729
3.7115	-72.50977
3.712	-75.32959
3.7125	-77.44446
3.713	-81.17065
3.7135	-76.84021
3.714	-67.97791
3.7145	-68.98499
3.715	-66.6687
3.7155	-54.98657
3.716	-53.87878
3.7165	-45.52002
3.717	-40.2832
3.7175	-31.62231
3.718	-21.75293
3.7185	-13.49487
3.719	0.90637
3.7195	10.17151
3.72	29.00391
3.7205	29.60815
3.721	38.16833
3.7215	34.54285
3.722	34.94568
3.7225	36.25488
3.723	31.4209
3.7235	37.86621
3.724	32.42798
3.7245	63.54675
3.725	111.58447
3.7255	133.84094
3.726	133.3374
3.7265	129.10767
3.727	108.86536
3.7275	81.87561
3.728	44.31152
3.7285	5.84106
3.729	-31.92444
3.7295	-63.54675
3.73	-81.47278
3.7305	-100.6073
3.731	-105.03845
3.7315	-109.77173
3.732	-100.90942
3.7325	-83.28552
3.733	-52.36816
3.7335	-29.40674
3.734	-8.56018
3.7345	1.71204
3.735	5.53894
3.7355	-9.26514
3.736	-14.70337
3.7365	-13.49487
3.737	-13.89771
3.7375	-4.33044
3.738	2.01416
3.7385	11.07788
3.739	13.59558
3.7395	18.63098
3.74	19.33594
3.7405	18.63098
3.741	22.15576
3.7415	28.39966
3.742	38.16833
3.7425	40.88745
3.743	39.67896
3.7435	44.51294
3.744	73.11401
3.7445	84.89685
3.745	84.79614
3.7455	75.02747
3.746	74.12109
3.7465	64.151
3.747	43.10303
3.7475	20.74585
3.748	3.02124
3.7485	-9.26514
3.749	-31.32019
3.7495	-42.39807
3.75	-54.88586
3.7505	-54.48303
3.751	-55.79224
3.7515	-47.7356
3.752	-32.93152
3.7525	-20.84656
3.753	-13.89771
3.7535	2.5177
3.754	1.61133
3.7545	7.85522
3.755	10.0708
3.7555	5.63965
3.756	7.04956
3.7565	19.73877
3.757	24.67346
3.7575	25.78125
3.758	22.25647
3.7585	25.78125
3.759	31.4209
3.7595	35.75134
3.76	36.85913
3.7605	32.02515
3.761	25.27771
3.7615	16.11328
3.762	15.20691
3.7625	9.26514
3.763	9.06372
3.7635	6.14319
3.764	1.10779
3.7645	1.2085
3.765	2.21558
3.7655	9.16443
3.766	34.94568
3.7665	45.92285
3.767	57.9071
3.7675	58.61206
3.768	43.60657
3.7685	29.91028
3.769	15.81116
3.7695	-8.7616
3.77	-15.20691
3.7705	-23.8678
3.771	-25.68054
3.7715	-37.66479
3.772	-36.25488
3.7725	-39.47754
3.773	-42.59949
3.7735	-39.88037
3.774	-35.44922
3.7745	-35.85205
3.775	-31.01807
3.7755	-27.79541
3.776	-3.7262
3.7765	12.08496
3.777	13.89771
3.7775	17.6239
3.778	5.94177
3.7785	3.02124
3.779	2.71912
3.7795	1.81274
3.78	-0.40283
3.7805	1.2085
3.781	13.29346
3.7815	10.37292
3.782	9.76868
3.7825	13.09204
3.783	20.84656
3.7835	27.09045
3.784	52.8717
3.7845	82.37915
3.785	135.8551
3.7855	173.11707
3.786	164.15405
3.7865	136.05652
3.787	94.96765
3.7875	51.86462
3.788	2.01416
3.7885	-39.57825
3.789	-72.9126
3.7895	-107.25403
3.79	-126.48926
3.7905	-125.28076
3.791	-121.65527
3.7915	-111.18164
3.792	-94.16199
3.7925	-73.41614
3.793	-54.18091
3.7935	-43.90869
3.794	-35.14709
3.7945	-26.3855
3.795	-14.60266
3.7955	4.73328
3.796	12.78992
3.7965	22.96143
3.797	27.49329
3.7975	24.97559
3.798	20.24231
3.7985	24.16992
3.799	27.6947
3.7995	32.02515
3.8	47.43347
3.8005	37.86621
3.801	37.66479
3.8015	33.73718
3.802	37.56409
3.8025	28.29895
3.803	63.04321
3.8035	100.80872
3.804	110.07385
3.8045	104.63562
3.805	85.80322
3.8055	62.64038
3.806	35.54993
3.8065	5.0354
3.807	-27.19116
3.8075	-42.8009
3.808	-51.15967
3.8085	-55.3894
3.809	-66.06445
3.8095	-70.29419
3.81	-69.38782
3.8105	-63.04321
3.811	-60.72693
3.8115	-56.39648
3.812	-40.1825
3.8125	-30.11169
3.813	-18.53027
3.8135	-20.64514
3.814	-16.91895
3.8145	-9.06372
3.815	-4.53186
3.8155	-6.84814
3.816	-9.46655
3.8165	-9.56726
3.817	-7.15027
3.8175	-3.02124
3.818	-5.33752
3.8185	-11.78284
3.819	-9.76868
3.8195	-8.56018
3.82	-10.37292
3.8205	-12.5885
3.821	-3.8269
3.8215	2.92053
3.822	10.37292
3.8225	16.81824
3.823	18.8324
3.8235	19.94019
3.824	21.04797
3.8245	17.92603
3.825	26.08337
3.8255	27.29187
3.826	18.12744
3.8265	22.35718
3.827	24.06921
3.8275	22.76001
3.828	19.43665
3.8285	19.03381
3.829	25.68054
3.8295	27.49329
3.83	31.62231
3.8305	28.60107
3.831	27.19116
3.8315	22.15576
3.832	22.86072
3.8325	25.88196
3.833	23.8678
3.8335	23.8678
3.834	24.87488
3.8345	23.96851
3.835	17.82532
3.8355	16.81824
3.836	18.02673
3.8365	10.97717
3.837	6.3446
3.8375	17.6239
3.838	38.26904
3.8385	43.20374
3.839	41.89453
3.8395	26.18408
3.84	36.85913
3.8405	62.9425
3.841	76.53809
3.8415	70.19348
3.842	41.18958
3.8425	26.48621
3.843	9.16443
3.8435	-18.32886
3.844	-31.11877
3.8445	-42.19666
3.845	-49.34692
3.8455	-56.79932
3.846	-63.34534
3.8465	-63.64746
3.847	-63.64746
3.8475	-59.1156
3.848	-52.56958
3.8485	-40.58533
3.849	-36.95984
3.8495	-22.86072
3.85	-11.07788
3.8505	-11.17859
3.851	-3.8269
3.8515	-2.41699
3.852	2.11487
3.8525	4.12903
3.853	2.5177
3.8535	8.66089
3.854	3.8269
3.8545	-2.31628
3.855	-5.13611
3.8555	-8.66089
3.856	-1.2085
3.8565	12.48779
3.857	16.81824
3.8575	18.02673
3.858	12.18567
3.8585	24.57275
3.859	39.98108
3.8595	40.98816
3.86	65.96375
3.8605	94.3634
3.861	119.33899
3.8615	138.27209
3.862	131.22253
3.8625	107.95898
3.863	66.36658
3.8635	35.54993
3.864	10.67505
3.8645	-17.92603
3.865	-30.71594
3.8655	-42.49878
3.866	-58.81348
3.8665	-67.67578
3.867	-65.76233
3.8675	-64.05029
3.868	-55.79224
3.8685	-38.06763
3.869	-32.93152
3.8695	-20.24231
3.87	-6.64673
3.8705	6.54602
3.871	17.52319
3.8715	22.45789
3.872	24.77417
3.8725	22.35718
3.873	16.11328
3.8735	1.51062
3.874	-5.63965
3.8745	-4.83398
3.875	-6.64673
3.8755	-0.10071
3.876	6.54602
3.8765	10.97717
3.877	19.73877
3.8775	26.68762
3.878	32.93152
3.8785	44.0094
3.879	47.53418
3.8795	52.771
3.88	50.45471
3.8805	50.354
3.881	52.36816
3.8815	45.11719
3.882	48.64197
3.8825	38.974
3.883	34.84497
3.8835	24.37134
3.884	25.68054
3.8845	26.68762
3.885	18.53027
3.8855	9.26514
3.886	7.75452
3.8865	-1.61133
3.887	0.10071
3.8875	2.21558
3.888	0.30212
3.8885	0.60425
3.889	-1.3092
3.8895	0
3.89	0.40283
3.8905	-1.91345
3.891	0.60425
3.8915	-3.32336
3.892	-0.20142
3.8925	-4.22974
3.893	-4.22974
3.8935	-5.0354
3.894	-6.64673
3.8945	-0.40283
3.895	0.50354
3.8955	-2.11487
3.896	-8.15735
3.8965	-19.03381
3.897	-21.85364
3.8975	-23.46497
3.898	-21.45081
3.8985	-14.80408
3.899	-20.54443
3.8995	-20.84656
3.9	-18.42957
3.9005	-7.25098
3.901	-8.15735
3.9015	-1.3092
3.902	-2.61841
3.9025	-3.02124
3.903	0.50354
3.9035	7.25098
3.904	6.3446
3.9045	-17.6239
3.905	-23.76709
3.9055	-31.32019
3.906	-23.46497
3.9065	14.60266
3.907	36.55701
3.9075	39.07471
3.908	22.76001
3.9085	22.45789
3.909	21.65222
3.9095	17.92603
3.91	7.04956
3.9105	-12.99133
3.911	-39.27612
3.9115	-57.00073
3.912	-67.57507
3.9125	-62.8418
3.913	-58.81348
3.9135	-50.354
3.914	-42.39807
3.9145	-29.70886
3.915	-20.1416
3.9155	-12.89062
3.916	-1.00708
3.9165	7.15027
3.917	12.99133
3.9175	14.50195
3.918	15.30762
3.9185	19.63806
3.919	28.80249
3.9195	27.39258
3.92	22.35718
3.9205	17.72461
3.921	15.60974
3.9215	29.60815
3.922	42.90161
3.9225	51.26038
3.923	45.3186
3.9235	24.67346
3.924	15.30762
3.9245	7.75452
3.925	5.33752
3.9255	-2.5177
3.926	6.04248
3.9265	25.98267
3.927	37.66479
3.9275	28.19824
3.928	23.16284
3.9285	6.54602
3.929	-11.38
3.9295	-20.84656
3.93	-22.55859
3.9305	-33.23364
3.931	-36.4563
3.9315	-23.56567
3.932	6.64673
3.9325	28.60107
3.933	50.95825
3.9335	58.30994
3.934	57.70569
3.9345	60.72693
3.935	54.88586
3.9355	49.34692
3.936	35.75134
3.9365	25.57983
3.937	17.22107
3.9375	1.51062
3.938	-4.53186
3.9385	-0.50354
3.939	9.06372
3.9395	15.71045
3.94	18.22815
3.9405	16.21399
3.941	19.83948
3.9415	12.08496
3.942	14.70337
3.9425	6.94885
3.943	6.44531
3.9435	8.15735
3.944	10.57434
3.9445	4.93469
3.945	10.87646
3.9455	9.36584
3.946	8.15735
3.9465	7.75452
3.947	6.04248
3.9475	0.70496
3.948	-3.22266
3.9485	2.41699
3.949	-4.83398
3.9495	-0.10071
3.95	2.81982
3.9505	1.91345
3.951	0.50354
3.9515	-6.44531
3.952	-11.17859
3.9525	-12.18567
3.953	-14.70337
3.9535	-14.40125
3.954	-9.46655
3.9545	-3.8269
3.955	-0.50354
3.9555	7.5531
3.956	14.70337
3.9565	10.67505
3.957	6.94885
3.9575	2.71912
3.958	-2.31628
3.9585	2.92053
3.959	3.62549
3.9595	-12.08496
3.96	-11.17859
3.9605	-22.6593
3.961	-21.75293
3.9615	-9.56726
3.962	-7.95593
3.9625	-13.89771
3.963	-16.51611
3.9635	-18.73169
3.964	-24.97559
3.9645	-24.16992
3.965	-17.01965
3.9655	27.49329
3.966	60.3241
3.9665	75.93384
3.967	72.9126
3.9675	57.30286
3.968	26.78833
3.9685	11.88354
3.969	-13.99841
3.9695	-37.26196
3.97	-52.771
3.9705	-56.49719
3.971	-39.67896
3.9715	-9.06372
3.972	9.76868
3.9725	73.11401
3.973	122.15881
3.9735	158.01086
3.974	153.479
3.9745	125.7843
3.975	89.22729
3.9755	53.07312
3.976	13.69629
3.9765	-12.78992
3.977	-38.36975
3.9775	-57.50427
3.978	-71.60339
3.9785	-84.09119
3.979	-88.72375
3.9795	-82.88269
3.98	-70.29419
3.9805	-48.23914
3.981	-38.974
3.9815	-37.46338
3.982	-30.81665
3.9825	-33.53577
