Christian_Larivera_Left_2.c3d  



Time(s):	A_L_bicipite(μV):
0	48.44055
0.0005	37.86621
0.001	25.98267
0.0015	13.29346
0.002	4.02832
0.0025	-9.56726
0.003	-11.98425
0.0035	-20.94727
0.004	-5.43823
0.0045	18.93311
0.005	36.75842
0.0055	41.08887
0.006	40.58533
0.0065	30.91736
0.007	23.56567
0.0075	18.12744
0.008	2.61841
0.0085	-3.32336
0.009	-13.89771
0.0095	-30.41382
0.01	-36.85913
0.0105	-33.63647
0.011	-31.92444
0.0115	-26.88904
0.012	-28.29895
0.0125	-15.71045
0.013	-15.50903
0.0135	-13.797
0.014	-10.77576
0.0145	-3.8269
0.015	4.93469
0.0155	5.63965
0.016	4.93469
0.0165	11.07788
0.017	14.19983
0.0175	13.99841
0.018	9.06372
0.0185	7.35168
0.019	4.73328
0.0195	2.71912
0.02	-0.40283
0.0205	-0.70496
0.021	4.93469
0.0215	5.13611
0.022	4.93469
0.0225	6.44531
0.023	8.56018
0.0235	11.07788
0.024	16.01257
0.0245	17.22107
0.025	13.29346
0.0255	11.98425
0.026	11.07788
0.0265	9.76868
0.027	7.85522
0.0275	10.97717
0.028	12.78992
0.0285	15.00549
0.029	12.28638
0.0295	21.04797
0.03	15.71045
0.0305	14.80408
0.031	11.88354
0.0315	6.94885
0.032	15.81116
0.0325	16.21399
0.033	15.50903
0.0335	10.57434
0.034	11.78284
0.0345	10.77576
0.035	9.06372
0.0355	14.90479
0.036	10.47363
0.0365	9.56726
0.037	11.98425
0.0375	8.15735
0.038	7.35168
0.0385	1.61133
0.039	-1.51062
0.0395	2.92053
0.04	5.13611
0.0405	-2.31628
0.041	0.20142
0.0415	0.70496
0.042	2.5177
0.0425	-0.10071
0.043	4.33044
0.0435	2.81982
0.044	3.7262
0.0445	8.8623
0.045	4.93469
0.0455	5.74036
0.046	9.56726
0.0465	5.23682
0.047	13.99841
0.0475	15.1062
0.048	12.99133
0.0485	7.35168
0.049	12.78992
0.0495	4.43115
0.05	6.44531
0.0505	2.21558
0.051	2.01416
0.0515	-0.70496
0.052	1.51062
0.0525	-1.3092
0.053	1.71204
0.0535	5.23682
0.054	-0.50354
0.0545	0.60425
0.055	6.3446
0.0555	4.93469
0.056	0.80566
0.0565	4.83398
0.057	2.21558
0.0575	2.81982
0.058	8.25806
0.0585	6.64673
0.059	0.60425
0.0595	5.13611
0.06	5.94177
0.0605	6.54602
0.061	7.15027
0.0615	11.38
0.062	22.45789
0.0625	34.84497
0.063	36.65771
0.0635	32.22656
0.064	29.50745
0.0645	28.70178
0.065	20.84656
0.0655	19.23523
0.066	14.30054
0.0665	10.37292
0.067	6.94885
0.0675	8.15735
0.068	2.71912
0.0685	-1.61133
0.069	-5.13611
0.0695	-7.65381
0.07	-8.45947
0.0705	-13.19275
0.071	-13.89771
0.0715	-15.50903
0.072	-17.32178
0.0725	-15.00549
0.073	-11.48071
0.0735	-5.94177
0.074	-5.94177
0.0745	-0.20142
0.075	-4.43115
0.0755	-2.31628
0.076	4.02832
0.0765	5.0354
0.077	9.26514
0.0775	9.46655
0.078	8.56018
0.0785	5.43823
0.079	9.76868
0.0795	10.67505
0.08	5.74036
0.0805	14.40125
0.081	17.12036
0.0815	12.28638
0.082	18.63098
0.0825	32.83081
0.083	41.4917
0.0835	42.39807
0.084	36.05347
0.0845	28.09753
0.085	24.16992
0.0855	16.11328
0.086	0.70496
0.0865	-16.01257
0.087	-21.95435
0.0875	-28.39966
0.088	-33.33435
0.0885	-28.39966
0.089	-27.29187
0.0895	-27.39258
0.09	-24.97559
0.0905	-26.48621
0.091	-22.35718
0.0915	-13.19275
0.092	-5.0354
0.0925	-5.94177
0.093	-6.64673
0.0935	-4.73328
0.094	-6.74744
0.0945	0.80566
0.095	4.63257
0.0955	5.33752
0.096	7.45239
0.0965	6.74744
0.097	8.15735
0.0975	8.66089
0.098	7.45239
0.0985	9.46655
0.099	15.60974
0.0995	13.29346
0.1	14.40125
0.1005	12.89062
0.101	15.30762
0.1015	15.30762
0.102	6.64673
0.1025	7.45239
0.103	7.45239
0.1035	5.13611
0.104	3.02124
0.1045	1.61133
0.105	3.12195
0.1055	3.42407
0.106	2.11487
0.1065	3.7262
0.107	2.31628
0.1075	5.74036
0.108	2.5177
0.1085	-0.60425
0.109	1.40991
0.1095	5.0354
0.11	-0.30212
0.1105	4.53186
0.111	4.93469
0.1115	8.66089
0.112	10.97717
0.1125	0.30212
0.113	4.12903
0.1135	1.00708
0.114	1.2085
0.1145	1.81274
0.115	-2.92053
0.1155	1.61133
0.116	0.30212
0.1165	4.93469
0.117	12.28638
0.1175	13.69629
0.118	10.47363
0.1185	1.91345
0.119	-3.42407
0.1195	3.7262
0.12	-0.90637
0.1205	2.11487
0.121	-4.22974
0.1215	-1.61133
0.122	-3.02124
0.1225	0.70496
0.123	2.5177
0.1235	4.12903
0.124	2.71912
0.1245	1.91345
0.125	4.33044
0.1255	5.84106
0.126	14.19983
0.1265	14.70337
0.127	11.78284
0.1275	12.68921
0.128	15.00549
0.1285	13.89771
0.129	11.07788
0.1295	12.5885
0.13	9.76868
0.1305	12.89062
0.131	6.94885
0.1315	7.35168
0.132	6.44531
0.1325	0.70496
0.133	-0.40283
0.1335	-2.71912
0.134	1.61133
0.1345	5.63965
0.135	9.97009
0.1355	5.33752
0.136	6.54602
0.1365	6.74744
0.137	7.35168
0.1375	6.64673
0.138	11.38
0.1385	7.65381
0.139	12.18567
0.1395	8.66089
0.14	5.33752
0.1405	7.5531
0.141	6.94885
0.1415	7.85522
0.142	4.43115
0.1425	2.01416
0.143	4.83398
0.1435	4.43115
0.144	8.35876
0.1445	6.54602
0.145	3.42407
0.1455	8.35876
0.146	5.0354
0.1465	7.04956
0.147	9.46655
0.1475	17.72461
0.148	6.3446
0.1485	7.45239
0.149	5.94177
0.1495	1.40991
0.15	-1.00708
0.1505	-3.52478
0.151	-3.42407
0.1515	0.90637
0.152	-3.02124
0.1525	1.91345
0.153	0.20142
0.1535	4.02832
0.154	5.43823
0.1545	3.12195
0.155	4.43115
0.1555	2.71912
0.156	4.33044
0.1565	3.92761
0.157	6.14319
0.1575	8.05664
0.158	2.5177
0.1585	7.25098
0.159	11.48071
0.1595	13.09204
0.16	11.78284
0.1605	8.56018
0.161	7.95593
0.1615	7.45239
0.162	3.02124
0.1625	12.18567
0.163	34.24072
0.1635	41.18958
0.164	38.06763
0.1645	41.99524
0.165	43.20374
0.1655	40.48462
0.166	27.49329
0.1665	19.73877
0.167	1.40991
0.1675	-9.56726
0.168	-18.53027
0.1685	-28.70178
0.169	-32.32727
0.1695	-30.81665
0.17	-32.52869
0.1705	-28.80249
0.171	-25.177
0.1715	-18.8324
0.172	-15.91187
0.1725	-15.1062
0.173	-5.94177
0.1735	-0.40283
0.174	0.50354
0.1745	4.63257
0.175	11.68213
0.1755	18.8324
0.176	9.16443
0.1765	6.94885
0.177	3.8269
0.1775	10.57434
0.178	41.18958
0.1785	63.54675
0.179	68.28003
0.1795	67.77649
0.18	58.10852
0.1805	44.61365
0.181	46.82922
0.1815	45.11719
0.182	30.11169
0.1825	14.50195
0.183	3.42407
0.1835	-9.86938
0.184	-18.63098
0.1845	-37.7655
0.185	-45.82214
0.1855	-54.88586
0.186	-54.68445
0.1865	-49.24622
0.187	-46.72852
0.1875	-43.70728
0.188	-37.96692
0.1885	-34.34143
0.189	-25.47913
0.1895	-18.93311
0.19	-10.57434
0.1905	-5.43823
0.191	1.51062
0.1915	9.36584
0.192	10.87646
0.1925	10.77576
0.193	6.04248
0.1935	19.03381
0.194	35.75134
0.1945	40.78674
0.195	43.40515
0.1955	42.90161
0.196	38.06763
0.1965	30.31311
0.197	9.36584
0.1975	0.70496
0.198	-4.02832
0.1985	-12.38708
0.199	-22.15576
0.1995	-28.09753
0.2	-26.08337
0.2005	-27.6947
0.201	-23.8678
0.2015	-21.04797
0.202	-13.29346
0.2025	-6.64673
0.203	-1.81274
0.2035	-4.22974
0.204	5.13611
0.2045	14.70337
0.205	15.00549
0.2055	15.20691
0.206	16.21399
0.2065	18.53027
0.207	21.55151
0.2075	26.88904
0.208	24.67346
0.2085	23.46497
0.209	21.55151
0.2095	18.73169
0.21	21.65222
0.2105	22.35718
0.211	23.96851
0.2115	19.03381
0.212	13.59558
0.2125	13.19275
0.213	2.41699
0.2135	4.53186
0.214	8.96301
0.2145	5.63965
0.215	5.84106
0.2155	7.65381
0.216	6.3446
0.2165	2.5177
0.217	5.33752
0.2175	6.54602
0.218	-6.04248
0.2185	-2.11487
0.219	-0.60425
0.2195	-3.42407
0.22	-1.71204
0.2205	2.11487
0.221	-2.41699
0.2215	-6.04248
0.222	-1.3092
0.2225	-2.81982
0.223	2.71912
0.2235	-0.90637
0.224	7.85522
0.2245	6.3446
0.225	4.43115
0.2255	5.0354
0.226	6.3446
0.2265	0
0.227	4.53186
0.2275	9.76868
0.228	10.47363
0.2285	12.28638
0.229	15.60974
0.2295	14.50195
0.23	6.3446
0.2305	-2.92053
0.231	1.2085
0.2315	-0.60425
0.232	14.80408
0.2325	31.82373
0.233	51.86462
0.2335	57.9071
0.234	56.29578
0.2345	48.84338
0.235	37.56409
0.2355	21.3501
0.236	2.41699
0.2365	-13.09204
0.237	-23.46497
0.2375	-30.31311
0.238	-30.61523
0.2385	-34.34143
0.239	-36.15417
0.2395	-34.24072
0.24	-34.14001
0.2405	-30.31311
0.241	-26.18408
0.2415	-21.45081
0.242	-11.07788
0.2425	-12.99133
0.243	-14.60266
0.2435	-8.56018
0.244	3.42407
0.2445	10.0708
0.245	12.78992
0.2455	12.18567
0.246	19.13452
0.2465	13.89771
0.247	11.68213
0.2475	14.50195
0.248	11.48071
0.2485	10.37292
0.249	14.60266
0.2495	9.06372
0.25	7.35168
0.2505	8.96301
0.251	4.63257
0.2515	11.2793
0.252	10.77576
0.2525	12.5885
0.253	9.76868
0.2535	12.68921
0.254	12.18567
0.2545	10.37292
0.255	6.14319
0.2555	8.35876
0.256	7.85522
0.2565	6.94885
0.257	-0.80566
0.2575	0
0.258	-4.43115
0.2585	-5.74036
0.259	-9.06372
0.2595	-2.41699
0.26	-5.0354
0.2605	22.86072
0.261	50.45471
0.2615	65.56091
0.262	52.06604
0.2625	44.0094
0.263	28.70178
0.2635	14.60266
0.264	3.62549
0.2645	-13.19275
0.265	-31.52161
0.2655	-39.27612
0.266	-22.05505
0.2665	-8.8623
0.267	-3.42407
0.2675	-8.35876
0.268	-9.56726
0.2685	-17.52319
0.269	-12.5885
0.2695	-13.09204
0.27	-15.20691
0.2705	-19.73877
0.271	-12.18567
0.2715	-18.8324
0.272	-17.72461
0.2725	-10.87646
0.273	-10.27222
0.2735	-3.32336
0.274	-0.50354
0.2745	-2.5177
0.275	7.45239
0.2755	9.36584
0.276	13.19275
0.2765	9.86938
0.277	14.60266
0.2775	11.68213
0.278	15.30762
0.2785	17.12036
0.279	14.50195
0.2795	16.61682
0.28	17.12036
0.2805	10.67505
0.281	4.43115
0.2815	2.21558
0.282	8.35876
0.2825	7.85522
0.283	6.04248
0.2835	6.64673
0.284	6.14319
0.2845	1.61133
0.285	-3.7262
0.2855	-0.20142
0.286	-1.91345
0.2865	3.32336
0.287	3.62549
0.2875	3.62549
0.288	7.25098
0.2885	2.5177
0.289	2.92053
0.2895	15.40833
0.29	34.74426
0.2905	42.19666
0.291	41.99524
0.2915	47.13135
0.292	34.44214
0.2925	24.37134
0.293	17.52319
0.2935	13.69629
0.294	8.56018
0.2945	5.33752
0.295	-6.2439
0.2955	-12.18567
0.296	-15.40833
0.2965	-15.91187
0.297	-12.38708
0.2975	-18.93311
0.298	-13.49487
0.2985	-11.58142
0.299	-11.07788
0.2995	-11.88354
0.3	-13.797
0.3005	-3.62549
0.301	-5.13611
0.3015	-4.02832
0.302	-3.02124
0.3025	-7.75452
0.303	-7.85522
0.3035	-2.71912
0.304	0.60425
0.3045	6.94885
0.305	0.50354
0.3055	9.06372
0.306	11.17859
0.3065	12.68921
0.307	14.40125
0.3075	9.86938
0.308	7.75452
0.3085	11.38
0.309	9.06372
0.3095	10.67505
0.31	9.06372
0.3105	14.80408
0.311	11.68213
0.3115	6.14319
0.312	-0.80566
0.3125	6.3446
0.313	18.12744
0.3135	22.55859
0.314	14.60266
0.3145	11.68213
0.315	0.80566
0.3155	-6.3446
0.316	-5.94177
0.3165	-10.47363
0.317	3.62549
0.3175	23.56567
0.318	30.81665
0.3185	35.65063
0.319	29.70886
0.3195	29.91028
0.32	6.14319
0.3205	-5.74036
0.321	-12.08496
0.3215	-22.15576
0.322	-28.39966
0.3225	-24.37134
0.323	-24.67346
0.3235	-28.70178
0.324	-31.82373
0.3245	-30.91736
0.325	-29.91028
0.3255	-21.55151
0.326	-16.81824
0.3265	-11.58142
0.327	-6.44531
0.3275	-7.95593
0.328	-1.91345
0.3285	-0.30212
0.329	-0.10071
0.3295	4.53186
0.33	6.64673
0.3305	14.50195
0.331	18.93311
0.3315	15.60974
0.332	13.29346
0.3325	26.08337
0.333	19.03381
0.3335	17.01965
0.334	7.04956
0.3345	8.35876
0.335	13.19275
0.3355	9.46655
0.336	6.84814
0.3365	9.06372
0.337	6.64673
0.3375	6.04248
0.338	3.7262
0.3385	7.65381
0.339	9.76868
0.3395	9.66797
0.34	7.25098
0.3405	16.61682
0.341	20.54443
0.3415	25.98267
0.342	27.6947
0.3425	21.75293
0.343	12.38708
0.3435	12.78992
0.344	11.88354
0.3445	5.0354
0.345	-2.31628
0.3455	-6.74744
0.346	-11.2793
0.3465	-12.5885
0.347	-13.19275
0.3475	-10.87646
0.348	-14.50195
0.3485	-20.54443
0.349	-15.50903
0.3495	-18.73169
0.35	-22.15576
0.3505	-14.30054
0.351	-14.70337
0.3515	-9.86938
0.352	3.32336
0.3525	2.11487
0.353	4.63257
0.3535	7.25098
0.354	7.15027
0.3545	1.61133
0.355	5.0354
0.3555	9.56726
0.356	5.0354
0.3565	5.0354
0.357	1.71204
0.3575	0.80566
0.358	3.52478
0.3585	9.56726
0.359	16.81824
0.3595	10.57434
0.36	16.41541
0.3605	16.51611
0.361	22.45789
0.3615	20.04089
0.362	19.94019
0.3625	17.01965
0.363	19.83948
0.3635	10.67505
0.364	12.78992
0.3645	5.33752
0.365	26.98975
0.3655	51.15967
0.366	65.25879
0.3665	60.3241
0.367	44.41223
0.3675	23.26355
0.368	7.25098
0.3685	-16.21399
0.369	-22.86072
0.3695	-33.43506
0.37	-37.16125
0.3705	-34.54285
0.371	-37.46338
0.3715	-26.28479
0.372	-22.35718
0.3725	-21.55151
0.373	-17.82532
0.3735	-16.51611
0.374	-8.66089
0.3745	-5.13611
0.375	5.33752
0.3755	6.64673
0.376	5.23682
0.3765	13.09204
0.377	13.29346
0.3775	11.78284
0.378	13.19275
0.3785	14.30054
0.379	13.797
0.3795	9.66797
0.38	11.17859
0.3805	16.3147
0.381	16.91895
0.3815	19.94019
0.382	16.11328
0.3825	17.82532
0.383	10.0708
0.3835	14.30054
0.384	16.3147
0.3845	9.76868
0.385	11.2793
0.3855	10.47363
0.386	2.21558
0.3865	7.25098
0.387	0
0.3875	-6.64673
0.388	-1.40991
0.3885	1.00708
0.389	2.31628
0.3895	1.40991
0.39	-1.10779
0.3905	-0.10071
0.391	-1.40991
0.3915	10.0708
0.392	18.32886
0.3925	20.44373
0.393	14.60266
0.3935	11.98425
0.394	5.23682
0.3945	0.50354
0.395	0.70496
0.3955	-5.94177
0.396	-6.84814
0.3965	-5.84106
0.397	-1.61133
0.3975	6.14319
0.398	5.43823
0.3985	2.61841
0.399	6.94885
0.3995	5.23682
0.4	1.61133
0.4005	-0.90637
0.401	3.8269
0.4015	4.12903
0.402	-2.11487
0.4025	-1.81274
0.403	-6.3446
0.4035	-10.97717
0.404	-8.66089
0.4045	-7.25098
0.405	-9.46655
0.4055	-6.74744
0.406	11.98425
0.4065	27.89612
0.407	31.21948
0.4075	27.39258
0.408	21.14868
0.4085	-0.50354
0.409	-13.19275
0.4095	-19.03381
0.41	-26.88904
0.4105	-28.60107
0.411	-25.07629
0.4115	-20.94727
0.412	-25.07629
0.4125	-19.13452
0.413	-8.05664
0.4135	-5.94177
0.414	-5.94177
0.4145	-4.53186
0.415	0.80566
0.4155	10.67505
0.416	7.75452
0.4165	1.51062
0.417	2.11487
0.4175	-2.41699
0.418	-3.22266
0.4185	-4.63257
0.419	-2.5177
0.4195	-1.10779
0.42	2.11487
0.4205	7.85522
0.421	14.09912
0.4215	36.05347
0.422	53.57666
0.4225	53.37524
0.423	41.59241
0.4235	36.35559
0.424	21.04797
0.4245	14.60266
0.425	2.71912
0.4255	7.85522
0.426	21.85364
0.4265	18.32886
0.427	13.89771
0.4275	10.37292
0.428	0.10071
0.4285	-6.64673
0.429	-8.66089
0.4295	-12.68921
0.43	-12.78992
0.4305	-9.86938
0.431	-9.16443
0.4315	-16.11328
0.432	-16.11328
0.4325	-13.797
0.433	-18.32886
0.4335	-13.69629
0.434	4.53186
0.4345	5.33752
0.435	7.85522
0.4355	2.61841
0.436	-3.7262
0.4365	-2.61841
0.437	-5.84106
0.4375	-5.13611
0.438	-16.41541
0.4385	-14.60266
0.439	-16.61682
0.4395	-3.8269
0.44	2.5177
0.4405	7.15027
0.441	11.07788
0.4415	15.50903
0.442	15.20691
0.4425	19.83948
0.443	22.35718
0.4435	24.67346
0.444	23.46497
0.4445	21.04797
0.445	16.3147
0.4455	13.19275
0.446	13.89771
0.4465	15.81116
0.447	16.21399
0.4475	15.71045
0.448	21.45081
0.4485	16.11328
0.449	13.99841
0.4495	16.71753
0.45	13.69629
0.4505	3.7262
0.451	-7.65381
0.4515	-5.53894
0.452	-10.47363
0.4525	-10.97717
0.453	-11.48071
0.4535	-8.45947
0.454	-15.81116
0.4545	-18.02673
0.455	-18.73169
0.4555	-6.2439
0.456	-9.56726
0.4565	-5.74036
0.457	-4.12903
0.4575	-4.12903
0.458	-2.11487
0.4585	-1.91345
0.459	2.31628
0.4595	-0.60425
0.46	-0.90637
0.4605	-0.90637
0.461	-1.3092
0.4615	-9.76868
0.462	3.32336
0.4625	32.42798
0.463	43.10303
0.4635	43.60657
0.464	34.14001
0.4645	17.22107
0.465	1.3092
0.4655	-8.66089
0.466	-18.12744
0.4665	-27.6947
0.467	-25.78125
0.4675	-25.78125
0.468	-18.93311
0.4685	-15.20691
0.469	-12.78992
0.4695	-5.74036
0.47	-0.80566
0.4705	-2.92053
0.471	2.61841
0.4715	8.96301
0.472	12.38708
0.4725	7.35168
0.473	10.87646
0.4735	8.66089
0.474	13.19275
0.4745	13.49487
0.475	13.797
0.4755	7.04956
0.476	7.85522
0.4765	1.71204
0.477	5.53894
0.4775	5.43823
0.478	8.7616
0.4785	11.07788
0.479	10.87646
0.4795	14.19983
0.48	20.54443
0.4805	19.73877
0.481	20.74585
0.4815	23.8678
0.482	17.52319
0.4825	16.71753
0.483	8.66089
0.4835	5.94177
0.484	5.74036
0.4845	-1.61133
0.485	-13.29346
0.4855	-17.42249
0.486	-28.50037
0.4865	-24.87488
0.487	-21.04797
0.4875	-22.55859
0.488	-16.21399
0.4885	-11.58142
0.489	-5.23682
0.4895	-1.40991
0.49	-1.3092
0.4905	-1.61133
0.491	-1.51062
0.4915	-4.22974
0.492	3.8269
0.4925	6.14319
0.493	7.35168
0.4935	9.97009
0.494	11.88354
0.4945	14.19983
0.495	11.68213
0.4955	15.00549
0.496	10.67505
0.4965	15.20691
0.497	7.15027
0.4975	12.68921
0.498	16.71753
0.4985	18.32886
0.499	27.79541
0.4995	26.28479
0.5	21.45081
0.5005	20.84656
0.501	18.42957
0.5015	14.09912
0.502	14.80408
0.5025	10.67505
0.503	11.68213
0.5035	8.66089
0.504	3.7262
0.5045	7.65381
0.505	29.20532
0.5055	36.4563
0.506	43.60657
0.5065	26.58691
0.507	24.67346
0.5075	10.37292
0.508	0.60425
0.5085	-5.84106
0.509	-14.60266
0.5095	-9.16443
0.51	-9.86938
0.5105	-15.1062
0.511	-15.00549
0.5115	-19.33594
0.512	-20.64514
0.5125	-21.24939
0.513	-16.91895
0.5135	-18.63098
0.514	-15.20691
0.5145	-16.3147
0.515	-13.797
0.5155	-1.91345
0.516	-3.92761
0.5165	1.10779
0.517	-4.63257
0.5175	-4.83398
0.518	-7.5531
0.5185	-3.92761
0.519	-2.01416
0.5195	-2.71912
0.52	-2.5177
0.5205	-3.32336
0.521	-1.40991
0.5215	5.33752
0.522	2.71912
0.5225	4.83398
0.523	2.61841
0.5235	7.65381
0.524	6.2439
0.5245	9.36584
0.525	7.35168
0.5255	9.46655
0.526	10.17151
0.5265	7.04956
0.527	10.37292
0.5275	13.09204
0.528	11.07788
0.5285	14.70337
0.529	5.94177
0.5295	5.0354
0.53	6.2439
0.5305	1.10779
0.531	-0.50354
0.5315	3.02124
0.532	3.52478
0.5325	-3.62549
0.533	-5.33752
0.5335	-7.15027
0.534	-6.74744
0.5345	-10.47363
0.535	-8.56018
0.5355	-6.54602
0.536	-10.97717
0.5365	-3.7262
0.537	-2.71912
0.5375	1.81274
0.538	5.63965
0.5385	11.68213
0.539	13.797
0.5395	18.63098
0.54	20.34302
0.5405	14.09912
0.541	11.98425
0.5415	16.01257
0.542	15.81116
0.5425	14.90479
0.543	10.17151
0.5435	7.15027
0.544	7.45239
0.5445	7.65381
0.545	6.04248
0.5455	-3.7262
0.546	-7.95593
0.5465	-1.2085
0.547	0.20142
0.5475	6.2439
0.548	13.99841
0.5485	11.07788
0.549	10.87646
0.5495	12.08496
0.55	11.48071
0.5505	14.50195
0.551	8.25806
0.5515	11.98425
0.552	14.60266
0.5525	13.797
0.553	10.47363
0.5535	16.01257
0.554	11.98425
0.5545	12.38708
0.555	12.28638
0.5555	12.5885
0.556	6.54602
0.5565	4.22974
0.557	4.02832
0.5575	3.32336
0.558	3.42407
0.5585	5.43823
0.559	4.02832
0.5595	6.64673
0.56	0.90637
0.5605	2.31628
0.561	5.33752
0.5615	3.22266
0.562	4.93469
0.5625	5.33752
0.563	3.32336
0.5635	1.51062
0.564	2.01416
0.5645	6.54602
0.565	3.7262
0.5655	5.33752
0.566	7.04956
0.5665	2.5177
0.567	-7.45239
0.5675	-8.8623
0.568	-13.49487
0.5685	-8.25806
0.569	5.43823
0.5695	12.38708
0.57	16.71753
0.5705	12.48779
0.571	9.46655
0.5715	5.13611
0.572	5.33752
0.5725	1.40991
0.573	-2.21558
0.5735	-2.11487
0.574	-5.53894
0.5745	-8.96301
0.575	-8.96301
0.5755	-2.01416
0.576	3.42407
0.5765	3.02124
0.577	4.83398
0.5775	6.84814
0.578	8.45947
0.5785	9.86938
0.579	9.36584
0.5795	3.52478
0.58	-0.70496
0.5805	-2.61841
0.581	-2.92053
0.5815	0.30212
0.582	1.51062
0.5825	-5.63965
0.583	-1.00708
0.5835	1.00708
0.584	3.52478
0.5845	0.20142
0.585	-0.20142
0.5855	6.84814
0.586	10.57434
0.5865	10.0708
0.587	9.86938
0.5875	9.06372
0.588	11.68213
0.5885	-0.10071
0.589	2.5177
0.5895	-0.40283
0.59	-4.33044
0.5905	-2.92053
0.591	-3.92761
0.5915	2.5177
0.592	-3.42407
0.5925	-2.01416
0.593	-4.02832
0.5935	-4.83398
0.594	-10.57434
0.5945	4.43115
0.595	15.1062
0.5955	16.21399
0.596	9.36584
0.5965	9.86938
0.597	10.87646
0.5975	3.12195
0.598	-2.31628
0.5985	-10.27222
0.599	-7.15027
0.5995	-10.97717
0.6	-18.42957
0.6005	-16.3147
0.601	-10.37292
0.6015	0.40283
0.602	1.91345
0.6025	2.81982
0.603	4.53186
0.6035	7.65381
0.604	11.68213
0.6045	12.89062
0.605	17.12036
0.6055	21.24939
0.606	25.78125
0.6065	34.34143
0.607	31.52161
0.6075	29.50745
0.608	19.43665
0.6085	13.39417
0.609	9.56726
0.6095	6.84814
0.61	7.25098
0.6105	3.92761
0.611	2.01416
0.6115	14.30054
0.612	19.73877
0.6125	26.3855
0.613	20.64514
0.6135	14.80408
0.614	8.96301
0.6145	-2.5177
0.615	-8.05664
0.6155	-11.17859
0.616	-10.87646
0.6165	-18.93311
0.617	-16.21399
0.6175	-16.81824
0.618	-12.89062
0.6185	-0.70496
0.619	-3.7262
0.6195	1.10779
0.62	0.40283
0.6205	-3.7262
0.621	0.20142
0.6215	-2.11487
0.622	5.33752
0.6225	6.54602
0.623	9.16443
0.6235	6.84814
0.624	6.54602
0.6245	0.50354
0.625	5.33752
0.6255	8.35876
0.626	1.2085
0.6265	3.32336
0.627	-1.40991
0.6275	2.01416
0.628	3.62549
0.6285	4.12903
0.629	5.43823
0.6295	10.17151
0.63	11.58142
0.6305	7.65381
0.631	11.17859
0.6315	10.0708
0.632	16.11328
0.6325	9.56726
0.633	12.48779
0.6335	20.44373
0.634	15.71045
0.6345	17.92603
0.635	20.74585
0.6355	19.43665
0.636	15.40833
0.6365	10.27222
0.637	4.73328
0.6375	7.35168
0.638	3.02124
0.6385	8.66089
0.639	7.45239
0.6395	2.5177
0.64	-1.3092
0.6405	0.20142
0.641	5.43823
0.6415	8.05664
0.642	5.74036
0.6425	12.38708
0.643	12.28638
0.6435	7.25098
0.644	6.94885
0.6445	12.89062
0.645	7.15027
0.6455	11.38
0.646	13.89771
0.6465	13.59558
0.647	15.20691
0.6475	13.89771
0.648	13.59558
0.6485	13.69629
0.649	11.98425
0.6495	10.37292
0.65	10.47363
0.6505	6.2439
0.651	7.45239
0.6515	4.43115
0.652	5.0354
0.6525	-1.2085
0.653	2.41699
0.6535	-1.3092
0.654	-2.41699
0.6545	-5.13611
0.655	1.3092
0.6555	-0.20142
0.656	0.60425
0.6565	-0.30212
0.657	2.11487
0.6575	0.40283
0.658	5.0354
0.6585	0.20142
0.659	0.80566
0.6595	-4.73328
0.66	-1.51062
0.6605	-4.02832
0.661	-6.84814
0.6615	-5.63965
0.662	-2.31628
0.6625	2.41699
0.663	-0.50354
0.6635	1.3092
0.664	2.92053
0.6645	2.5177
0.665	-0.80566
0.6655	1.40991
0.666	1.10779
0.6665	6.14319
0.667	7.5531
0.6675	9.36584
0.668	3.92761
0.6685	-0.70496
0.669	-3.92761
0.6695	-3.32336
0.67	-5.63965
0.6705	-9.66797
0.671	-9.76868
0.6715	-0.90637
0.672	-2.81982
0.6725	3.7262
0.673	5.23682
0.6735	1.40991
0.674	2.41699
0.6745	7.85522
0.675	6.54602
0.6755	6.64673
0.676	6.84814
0.6765	6.2439
0.677	7.04956
0.6775	12.38708
0.678	4.93469
0.6785	-0.80566
0.679	-5.0354
0.6795	-10.97717
0.68	-23.8678
0.6805	-20.44373
0.681	-30.81665
0.6815	-20.34302
0.682	-18.22815
0.6825	-21.55151
0.683	-20.94727
0.6835	-11.88354
0.684	-10.37292
0.6845	-4.43115
0.685	-3.42407
0.6855	0.30212
0.686	1.2085
0.6865	-3.32336
0.687	0.20142
0.6875	8.35876
0.688	15.40833
0.6885	15.50903
0.689	14.40125
0.6895	2.31628
0.69	0.60425
0.6905	-6.04248
0.691	-4.12903
0.6915	-7.85522
0.692	-8.35876
0.6925	-10.27222
0.693	-8.35876
0.6935	-2.71912
0.694	-3.92761
0.6945	5.33752
0.695	9.46655
0.6955	8.8623
0.696	11.98425
0.6965	11.17859
0.697	16.51611
0.6975	13.09204
0.698	27.89612
0.6985	19.53735
0.699	13.29346
0.6995	11.78284
0.7	11.48071
0.7005	8.25806
0.701	10.27222
0.7015	5.74036
0.702	4.02832
0.7025	1.10779
0.703	4.73328
0.7035	15.91187
0.704	22.76001
0.7045	24.97559
0.705	24.37134
0.7055	22.35718
0.706	23.8678
0.7065	18.53027
0.707	21.45081
0.7075	18.32886
0.708	17.42249
0.7085	14.40125
0.709	8.8623
0.7095	13.09204
0.71	11.58142
0.7105	4.73328
0.711	6.14319
0.7115	9.46655
0.712	6.2439
0.7125	10.17151
0.713	6.94885
0.7135	11.68213
0.714	11.98425
0.7145	13.49487
0.715	10.87646
0.7155	13.09204
0.716	14.80408
0.7165	15.00549
0.717	12.78992
0.7175	13.39417
0.718	11.78284
0.7185	12.89062
0.719	7.5531
0.7195	10.67505
0.72	10.87646
0.7205	14.19983
0.721	12.18567
0.7215	9.86938
0.722	11.07788
0.7225	14.09912
0.723	8.35876
0.7235	6.3446
0.724	2.31628
0.7245	2.71912
0.725	2.11487
0.7255	1.3092
0.726	3.7262
0.7265	6.94885
0.727	12.48779
0.7275	25.177
0.728	26.18408
0.7285	18.53027
0.729	20.84656
0.7295	20.74585
0.73	21.3501
0.7305	17.6239
0.731	15.81116
0.7315	10.47363
0.732	6.54602
0.7325	5.43823
0.733	4.12903
0.7335	6.14319
0.734	2.31628
0.7345	1.10779
0.735	-2.41699
0.7355	0.60425
0.736	-4.53186
0.7365	4.93469
0.737	5.94177
0.7375	4.02832
0.738	3.92761
0.7385	-2.92053
0.739	-6.84814
0.7395	-1.81274
0.74	0
0.7405	0.50354
0.741	3.32336
0.7415	11.68213
0.742	6.94885
0.7425	16.51611
0.743	18.22815
0.7435	17.32178
0.744	22.96143
0.7445	13.59558
0.745	11.58142
0.7455	7.65381
0.746	4.02832
0.7465	7.04956
0.747	8.25806
0.7475	10.87646
0.748	9.97009
0.7485	12.68921
0.749	13.49487
0.7495	10.97717
0.75	7.5531
0.7505	5.43823
0.751	4.22974
0.7515	-0.20142
0.752	-2.81982
0.7525	-0.30212
0.753	-5.74036
0.7535	-4.93469
0.754	-3.32336
0.7545	1.00708
0.755	9.97009
0.7555	8.56018
0.756	7.5531
0.7565	4.02832
0.757	1.81274
0.7575	3.7262
0.758	8.56018
0.7585	5.74036
0.759	6.64673
0.7595	6.44531
0.76	10.77576
0.7605	4.83398
0.761	5.0354
0.7615	2.71912
0.762	8.45947
0.7625	15.1062
0.763	9.26514
0.7635	13.09204
0.764	17.52319
0.7645	17.72461
0.765	15.81116
0.7655	24.87488
0.766	15.30762
0.7665	12.99133
0.767	10.77576
0.7675	2.92053
0.768	1.10779
0.7685	-5.13611
0.769	-8.25806
0.7695	-5.13611
0.77	-6.74744
0.7705	0.90637
0.771	0.90637
0.7715	1.2085
0.772	7.04956
0.7725	-1.10779
0.773	2.21558
0.7735	2.71912
0.774	-0.30212
0.7745	-5.84106
0.775	-9.86938
0.7755	-0.70496
0.776	-7.35168
0.7765	-7.15027
0.777	-5.74036
0.7775	-2.21558
0.778	-0.20142
0.7785	1.51062
0.779	4.93469
0.7795	4.53186
0.78	4.33044
0.7805	3.42407
0.781	-1.51062
0.7815	-3.32336
0.782	0.40283
0.7825	5.0354
0.783	5.33752
0.7835	-0.20142
0.784	-3.12195
0.7845	-3.32336
0.785	-4.53186
0.7855	-5.74036
0.786	-7.35168
0.7865	10.67505
0.787	8.15735
0.7875	21.14868
0.788	24.87488
0.7885	23.8678
0.789	14.40125
0.7895	13.19275
0.79	11.88354
0.7905	10.17151
0.791	10.37292
0.7915	1.10779
0.792	-3.8269
0.7925	-1.91345
0.793	-0.20142
0.7935	7.15027
0.794	16.3147
0.7945	13.797
0.795	11.98425
0.7955	10.77576
0.796	10.77576
0.7965	6.74744
0.797	10.77576
0.7975	16.81824
0.798	13.29346
0.7985	9.46655
0.799	13.797
0.7995	11.58142
0.8	7.35168
0.8005	9.66797
0.801	2.41699
0.8015	6.44531
0.802	9.46655
0.8025	-1.10779
0.803	3.02124
0.8035	1.81274
0.804	11.98425
0.8045	14.80408
0.805	20.44373
0.8055	19.23523
0.806	23.46497
0.8065	28.39966
0.807	26.58691
0.8075	21.95435
0.808	21.55151
0.8085	21.75293
0.809	18.22815
0.8095	14.19983
0.81	6.64673
0.8105	1.2085
0.811	-3.52478
0.8115	-4.33044
0.812	-11.98425
0.8125	-7.75452
0.813	-8.35876
0.8135	-6.04248
0.814	-5.23682
0.8145	-1.51062
0.815	3.7262
0.8155	-3.12195
0.816	-0.40283
0.8165	4.63257
0.817	3.12195
0.8175	9.66797
0.818	6.64673
0.8185	11.2793
0.819	3.62549
0.8195	3.32336
0.82	0.20142
0.8205	2.41699
0.821	1.40991
0.8215	1.2085
0.822	5.0354
0.8225	9.76868
0.823	6.3446
0.8235	-3.7262
0.824	2.41699
0.8245	1.91345
0.825	-2.21558
0.8255	-0.40283
0.826	0.80566
0.8265	2.92053
0.827	10.97717
0.8275	16.81824
0.828	7.85522
0.8285	5.63965
0.829	2.31628
0.8295	-3.62549
0.83	-7.25098
0.8305	-6.94885
0.831	-5.63965
0.8315	-2.11487
0.832	5.94177
0.8325	4.63257
0.833	3.62549
0.8335	7.65381
0.834	13.49487
0.8345	13.09204
0.835	11.78284
0.8355	16.71753
0.836	12.68921
0.8365	16.21399
0.837	12.68921
0.8375	14.80408
0.838	11.07788
0.8385	2.21558
0.839	-3.8269
0.8395	-15.20691
0.84	-11.68213
0.8405	-4.53186
0.841	-6.54602
0.8415	-4.12903
0.842	-2.71912
0.8425	6.14319
0.843	11.78284
0.8435	10.47363
0.844	10.67505
0.8445	11.78284
0.845	7.75452
0.8455	11.2793
0.846	11.68213
0.8465	14.19983
0.847	15.00549
0.8475	19.43665
0.848	19.13452
0.8485	12.48779
0.849	9.66797
0.8495	8.66089
0.85	6.94885
0.8505	7.15027
0.851	4.33044
0.8515	3.42407
0.852	-3.52478
0.8525	-9.06372
0.853	-9.66797
0.8535	-9.46655
0.854	-0.40283
0.8545	-1.3092
0.855	-1.3092
0.8555	0
0.856	5.53894
0.8565	8.7616
0.857	10.77576
0.8575	10.87646
0.858	7.04956
0.8585	6.84814
0.859	4.53186
0.8595	2.5177
0.86	0.60425
0.8605	3.22266
0.861	4.63257
0.8615	-2.5177
0.862	-3.32336
0.8625	-6.74744
0.863	-5.53894
0.8635	-8.05664
0.864	-1.2085
0.8645	-6.3446
0.865	-2.11487
0.8655	0.10071
0.866	3.62549
0.8665	11.98425
0.867	8.8623
0.8675	10.87646
0.868	6.64673
0.8685	4.12903
0.869	1.3092
0.8695	0.10071
0.87	-0.50354
0.8705	-4.43115
0.871	-3.92761
0.8715	0.40283
0.872	1.3092
0.8725	7.85522
0.873	5.63965
0.8735	13.09204
0.874	13.99841
0.8745	13.29346
0.875	14.19983
0.8755	16.71753
0.876	19.43665
0.8765	25.68054
0.877	28.09753
0.8775	19.43665
0.878	19.63806
0.8785	7.5531
0.879	12.99133
0.8795	5.33752
0.88	10.87646
0.8805	3.8269
0.881	3.22266
0.8815	3.52478
0.882	6.3446
0.8825	0.30212
0.883	3.62549
0.8835	6.2439
0.884	3.02124
0.8845	2.71912
0.885	2.11487
0.8855	4.43115
0.886	11.78284
0.8865	1.71204
0.887	6.54602
0.8875	6.84814
0.888	7.15027
0.8885	19.83948
0.889	18.32886
0.8895	20.44373
0.89	14.80408
0.8905	12.5885
0.891	9.16443
0.8915	8.7616
0.892	7.15027
0.8925	-0.50354
0.893	-6.2439
0.8935	2.21558
0.894	4.02832
0.8945	2.01416
0.895	-4.53186
0.8955	-8.25806
0.896	-6.94885
0.8965	-6.44531
0.897	-2.71912
0.8975	-4.02832
0.898	0.90637
0.8985	3.02124
0.899	0.50354
0.8995	-0.70496
0.9	11.17859
0.9005	8.66089
0.901	7.15027
0.9015	10.97717
0.902	9.36584
0.9025	10.97717
0.903	4.63257
0.9035	4.33044
0.904	2.31628
0.9045	4.12903
0.905	1.3092
0.9055	7.35168
0.906	6.04248
0.9065	4.02832
0.907	3.8269
0.9075	7.15027
0.908	10.67505
0.9085	9.76868
0.909	11.07788
0.9095	1.40991
0.91	2.21558
0.9105	4.02832
0.911	1.91345
0.9115	-2.61841
0.912	-10.97717
0.9125	-16.21399
0.913	-10.67505
0.9135	-6.94885
0.914	-4.53186
0.9145	9.16443
0.915	7.85522
0.9155	10.87646
0.916	19.03381
0.9165	22.6593
0.917	29.10461
0.9175	30.91736
0.918	28.60107
0.9185	25.88196
0.919	21.55151
0.9195	12.89062
0.92	14.19983
0.9205	2.11487
0.921	7.5531
0.9215	12.5885
0.922	7.75452
0.9225	5.0354
0.923	2.61841
0.9235	0.90637
0.924	3.22266
0.9245	0.40283
0.925	-4.22974
0.9255	-7.5531
0.926	-12.48779
0.9265	-12.38708
0.927	-7.95593
0.9275	-8.25806
0.928	-8.96301
0.9285	1.10779
0.929	5.74036
0.9295	8.8623
0.93	10.87646
0.9305	11.88354
0.931	6.94885
0.9315	16.61682
0.932	17.82532
0.9325	9.86938
0.933	11.58142
0.9335	11.07788
0.934	6.94885
0.9345	5.43823
0.935	0.70496
0.9355	4.22974
0.936	4.43115
0.9365	2.21558
0.937	5.74036
0.9375	1.10779
0.938	-5.0354
0.9385	-4.02832
0.939	-6.64673
0.9395	-14.70337
0.94	-11.07788
0.9405	-14.80408
0.941	-19.23523
0.9415	-20.1416
0.942	-19.63806
0.9425	-16.41541
0.943	-6.94885
0.9435	-0.50354
0.944	7.85522
0.9445	2.31628
0.945	8.8623
0.9455	10.67505
0.946	13.59558
0.9465	12.5885
0.947	10.57434
0.9475	14.80408
0.948	15.91187
0.9485	10.77576
0.949	15.30762
0.9495	16.21399
0.95	13.89771
0.9505	15.1062
0.951	9.26514
0.9515	9.36584
0.952	6.84814
0.9525	7.5531
0.953	4.73328
0.9535	5.13611
0.954	2.92053
0.9545	2.11487
0.955	4.93469
0.9555	10.47363
0.956	7.45239
0.9565	12.08496
0.957	5.0354
0.9575	5.74036
0.958	1.2085
0.9585	-0.80566
0.959	-2.01416
0.9595	-7.04956
0.96	-16.41541
0.9605	-6.54602
0.961	0.70496
0.9615	2.92053
0.962	-0.90637
0.9625	3.02124
0.963	3.02124
0.9635	-2.11487
0.964	8.56018
0.9645	13.59558
0.965	18.12744
0.9655	23.8678
0.966	32.42798
0.9665	30.01099
0.967	27.89612
0.9675	24.87488
0.968	32.62939
0.9685	29.30603
0.969	23.56567
0.9695	17.6239
0.97	13.89771
0.9705	5.13611
0.971	1.2085
0.9715	6.84814
0.972	10.0708
0.9725	12.78992
0.973	13.39417
0.9735	11.68213
0.974	13.797
0.9745	12.99133
0.975	10.87646
0.9755	15.91187
0.976	19.83948
0.9765	27.89612
0.977	32.12585
0.9775	32.12585
0.978	33.13293
0.9785	32.22656
0.979	32.02515
0.9795	27.19116
0.98	18.63098
0.9805	10.77576
0.981	10.27222
0.9815	9.16443
0.982	12.5885
0.9825	12.28638
0.983	8.25806
0.9835	-3.12195
0.984	-5.53894
0.9845	-3.12195
0.985	1.2085
0.9855	13.19275
0.986	13.69629
0.9865	12.89062
0.987	17.12036
0.9875	9.36584
0.988	4.43115
0.9885	-5.94177
0.989	-14.40125
0.9895	-18.53027
0.99	-21.65222
0.9905	-25.177
0.991	-22.15576
0.9915	-20.94727
0.992	-16.71753
0.9925	-9.86938
0.993	-11.38
0.9935	-15.20691
0.994	-10.47363
0.9945	-11.88354
0.995	-7.85522
0.9955	-5.94177
0.996	-3.52478
0.9965	5.13611
0.997	9.66797
0.9975	13.39417
0.998	4.73328
0.9985	-3.22266
0.999	-1.40991
0.9995	-4.12903
1	-6.3446
1.0005	-1.81274
1.001	-4.93469
1.0015	-10.27222
1.002	-15.20691
1.0025	-24.57275
1.003	-24.97559
1.0035	-25.68054
1.004	-26.68762
1.0045	-18.93311
1.005	-12.08496
1.0055	1.61133
1.006	18.22815
1.0065	23.66638
1.007	31.4209
1.0075	41.89453
1.008	43.70728
1.0085	40.68604
1.009	34.54285
1.0095	38.87329
1.01	35.14709
1.0105	31.4209
1.011	35.04639
1.0115	28.9032
1.012	26.58691
1.0125	24.16992
1.013	15.40833
1.0135	18.73169
1.014	25.57983
1.0145	27.19116
1.015	33.9386
1.0155	29.00391
1.016	27.19116
1.0165	21.14868
1.017	23.96851
1.0175	22.25647
1.018	22.6593
1.0185	20.74585
1.019	12.28638
1.0195	6.94885
1.02	8.56018
1.0205	9.46655
1.021	8.8623
1.0215	9.66797
1.022	7.85522
1.0225	9.06372
1.023	14.80408
1.0235	14.30054
1.024	3.8269
1.0245	7.5531
1.025	3.92761
1.0255	-0.30212
1.026	-5.53894
1.0265	-12.89062
1.027	-7.95593
1.0275	-5.53894
1.028	3.32336
1.0285	9.56726
1.029	4.53186
1.0295	-0.60425
1.03	-2.41699
1.0305	5.13611
1.031	7.45239
1.0315	16.11328
1.032	22.86072
1.0325	23.66638
1.033	15.1062
1.0335	15.20691
1.034	6.64673
1.0345	7.65381
1.035	10.77576
1.0355	2.11487
1.036	2.41699
1.0365	1.71204
1.037	6.14319
1.0375	10.77576
1.038	15.81116
1.0385	18.12744
1.039	16.11328
1.0395	16.51611
1.04	14.50195
1.0405	7.65381
1.041	8.96301
1.0415	7.95593
1.042	6.64673
1.0425	6.3446
1.043	6.54602
1.0435	6.54602
1.044	6.04248
1.0445	6.64673
1.045	3.42407
1.0455	-6.04248
1.046	-12.5885
1.0465	-13.797
1.047	-9.06372
1.0475	-6.64673
1.048	-6.64673
1.0485	-0.50354
1.049	-1.81274
1.0495	-4.02832
1.05	-2.5177
1.0505	-3.62549
1.051	-0.40283
1.0515	-0.30212
1.052	0.60425
1.0525	-4.22974
1.053	0.90637
1.0535	-3.32336
1.054	-3.8269
1.0545	-0.80566
1.055	-1.61133
1.0555	0.70496
1.056	-1.3092
1.0565	6.44531
1.057	11.68213
1.0575	3.02124
1.058	2.21558
1.0585	-4.12903
1.059	-7.25098
1.0595	-3.22266
1.06	-2.31628
1.0605	3.32336
1.061	3.8269
1.0615	10.27222
1.062	7.04956
1.0625	3.7262
1.063	3.22266
1.0635	-2.81982
1.064	-1.10779
1.0645	4.22974
1.065	5.23682
1.0655	6.94885
1.066	11.78284
1.0665	18.93311
1.067	14.09912
1.0675	12.08496
1.068	16.3147
1.0685	23.8678
1.069	18.12744
1.0695	24.27063
1.07	24.06921
1.0705	26.68762
1.071	28.70178
1.0715	28.19824
1.072	20.74585
1.0725	21.95435
1.073	14.40125
1.0735	12.38708
1.074	2.11487
1.0745	2.41699
1.075	2.92053
1.0755	3.12195
1.076	8.56018
1.0765	5.94177
1.077	4.22974
1.0775	6.84814
1.078	10.67505
1.0785	17.72461
1.079	23.8678
1.0795	23.76709
1.08	25.57983
1.0805	24.37134
1.081	13.59558
1.0815	9.16443
1.082	5.33752
1.0825	0.70496
1.083	-2.61841
1.0835	-6.3446
1.084	-8.05664
1.0845	-13.29346
1.085	-13.29346
1.0855	-6.14319
1.086	-5.74036
1.0865	-11.48071
1.087	-17.32178
1.0875	-23.76709
1.088	-34.14001
1.0885	-35.04639
1.089	-40.08179
1.0895	-34.44214
1.09	-29.60815
1.0905	-22.86072
1.091	-10.77576
1.0915	-11.38
1.092	-6.3446
1.0925	-0.50354
1.093	1.61133
1.0935	0.90637
1.094	1.61133
1.0945	7.04956
1.095	12.08496
1.0955	9.46655
1.096	18.53027
1.0965	18.22815
1.097	18.73169
1.0975	17.12036
1.098	13.89771
1.0985	7.15027
1.099	-2.5177
1.0995	1.10779
1.1	4.73328
1.1005	6.74744
1.101	9.46655
1.1015	14.70337
1.102	9.56726
1.1025	13.59558
1.103	7.25098
1.1035	13.59558
1.104	14.40125
1.1045	10.47363
1.105	11.2793
1.1055	13.29346
1.106	16.71753
1.1065	17.92603
1.107	19.33594
1.1075	19.13452
1.108	13.29346
1.1085	12.08496
1.109	13.29346
1.1095	18.53027
1.11	21.85364
1.1105	22.35718
1.111	22.76001
1.1115	19.94019
1.112	21.14868
1.1125	25.78125
1.113	24.47205
1.1135	24.06921
1.114	18.42957
1.1145	24.77417
1.115	26.58691
1.1155	20.54443
1.116	16.91895
1.1165	12.78992
1.117	13.49487
1.1175	3.52478
1.118	-0.30212
1.1185	-4.02832
1.119	-5.94177
1.1195	-2.81982
1.12	4.43115
1.1205	8.05664
1.121	0.60425
1.1215	3.42407
1.122	6.74744
1.1225	5.63965
1.123	1.51062
1.1235	-5.94177
1.124	-9.46655
1.1245	-17.82532
1.125	-15.40833
1.1255	-15.40833
1.126	-8.15735
1.1265	-5.84106
1.127	-2.5177
1.1275	-0.40283
1.128	0.50354
1.1285	-5.13611
1.129	-3.12195
1.1295	-2.41699
1.13	-2.92053
1.1305	-1.40991
1.131	-9.06372
1.1315	0.50354
1.132	6.2439
1.1325	7.25098
1.133	10.17151
1.1335	11.78284
1.134	17.01965
1.1345	15.81116
1.135	16.01257
1.1355	13.29346
1.136	10.17151
1.1365	6.94885
1.137	3.8269
1.1375	-7.35168
1.138	-13.09204
1.1385	-19.63806
1.139	-22.15576
1.1395	-27.99683
1.14	-27.6947
1.1405	-21.45081
1.141	-5.63965
1.1415	-0.80566
1.142	3.8269
1.1425	13.99841
1.143	18.73169
1.1435	18.02673
1.144	18.42957
1.1445	25.78125
1.145	19.33594
1.1455	15.1062
1.146	-2.5177
1.1465	3.8269
1.147	-5.43823
1.1475	-9.76868
1.148	-4.33044
1.1485	-9.76868
1.149	-12.38708
1.1495	-14.30054
1.15	-8.25806
1.1505	-19.03381
1.151	-14.09912
1.1515	-7.65381
1.152	-9.26514
1.1525	-8.25806
1.153	-9.66797
1.1535	-10.0708
1.154	-14.30054
1.1545	-17.52319
1.155	-14.19983
1.1555	-15.40833
1.156	-13.19275
1.1565	-9.86938
1.157	-7.65381
1.1575	0.60425
1.158	1.91345
1.1585	4.83398
1.159	2.71912
1.1595	3.32336
1.16	4.43115
1.1605	-4.22974
1.161	-8.15735
1.1615	-8.66089
1.162	-12.5885
1.1625	-14.30054
1.163	-12.28638
1.1635	-9.56726
1.164	-1.91345
1.1645	2.92053
1.165	0.80566
1.1655	12.28638
1.166	17.32178
1.1665	12.48779
1.167	11.17859
1.1675	5.23682
1.168	8.25806
1.1685	7.15027
1.169	13.99841
1.1695	15.20691
1.17	24.37134
1.1705	15.71045
1.171	10.77576
1.1715	4.43115
1.172	12.38708
1.1725	12.28638
1.173	15.30762
1.1735	11.17859
1.174	13.19275
1.1745	10.17151
1.175	8.7616
1.1755	10.77576
1.176	13.09204
1.1765	12.78992
1.177	7.35168
1.1775	3.92761
1.178	5.63965
1.1785	2.92053
1.179	-3.62549
1.1795	4.53186
1.18	-2.5177
1.1805	1.2085
1.181	-1.71204
1.1815	-2.5177
1.182	6.84814
1.1825	8.25806
1.183	13.69629
1.1835	11.17859
1.184	14.30054
1.1845	13.59558
1.185	19.33594
1.1855	13.39417
1.186	11.88354
1.1865	7.04956
1.187	6.54602
1.1875	16.91895
1.188	21.45081
1.1885	22.45789
1.189	20.74585
1.1895	24.06921
1.19	25.07629
1.1905	22.55859
1.191	14.19983
1.1915	10.17151
1.192	5.53894
1.1925	4.33044
1.193	7.85522
1.1935	4.83398
1.194	6.2439
1.1945	6.14319
1.195	3.7262
1.1955	-0.80566
1.196	-3.42407
1.1965	-2.21558
1.197	-3.52478
1.1975	-5.13611
1.198	-7.15027
1.1985	-3.52478
1.199	0.60425
1.1995	6.44531
1.2	5.0354
1.2005	7.45239
1.201	4.83398
1.2015	6.3446
1.202	8.56018
1.2025	9.16443
1.203	5.33752
1.2035	5.94177
1.204	4.43115
1.2045	1.2085
1.205	5.0354
1.2055	8.8623
1.206	2.71912
1.2065	12.38708
1.207	10.0708
1.2075	8.96301
1.208	4.93469
1.2085	9.86938
1.209	7.04956
1.2095	5.84106
1.21	6.84814
1.2105	6.44531
1.211	5.63965
1.2115	6.3446
1.212	3.8269
1.2125	12.78992
1.213	11.48071
1.2135	14.40125
1.214	16.41541
1.2145	18.73169
1.215	22.45789
1.2155	22.25647
1.216	21.14868
1.2165	20.04089
1.217	17.01965
1.2175	11.48071
1.218	8.66089
1.2185	9.76868
1.219	12.5885
1.2195	8.8623
1.22	8.56018
1.2205	9.56726
1.221	6.74744
1.2215	1.51062
1.222	2.31628
1.2225	-1.91345
1.223	1.2085
1.2235	2.01416
1.224	3.12195
1.2245	4.22974
1.225	-0.30212
1.2255	6.3446
1.226	5.74036
1.2265	2.31628
1.227	-1.51062
1.2275	-4.22974
1.228	-5.63965
1.2285	-5.23682
1.229	-2.92053
1.2295	0.90637
1.23	3.42407
1.2305	-2.5177
1.231	-7.5531
1.2315	-8.96301
1.232	-6.3446
1.2325	-7.04956
1.233	-5.23682
1.2335	-6.14319
1.234	-4.73328
1.2345	-2.5177
1.235	-6.3446
1.2355	0.30212
1.236	-2.41699
1.2365	-2.21558
1.237	5.13611
1.2375	7.45239
1.238	9.26514
1.2385	14.70337
1.239	10.87646
1.2395	8.35876
1.24	14.90479
1.2405	10.17151
1.241	13.59558
1.2415	17.6239
1.242	20.44373
1.2425	15.91187
1.243	15.20691
1.2435	15.30762
1.244	17.32178
1.2445	18.32886
1.245	18.12744
1.2455	15.00549
1.246	12.08496
1.2465	12.68921
1.247	10.97717
1.2475	8.8623
1.248	7.25098
1.2485	2.71912
1.249	-4.53186
1.2495	-2.61841
1.25	-4.02832
1.2505	-7.45239
1.251	-3.42407
1.2515	-0.50354
1.252	7.85522
1.2525	8.56018
1.253	7.5531
1.2535	7.25098
1.254	11.07788
1.2545	-1.10779
1.255	0.70496
1.2555	0.70496
1.256	-3.7262
1.2565	-1.91345
1.257	1.3092
1.2575	5.0354
1.258	3.8269
1.2585	4.12903
1.259	1.91345
1.2595	1.2085
1.26	3.22266
1.2605	1.71204
1.261	4.63257
1.2615	4.43115
1.262	3.7262
1.2625	2.81982
1.263	-2.21558
1.2635	1.3092
1.264	4.12903
1.2645	1.91345
1.265	3.62549
1.2655	5.33752
1.266	3.7262
1.2665	4.22974
1.267	3.7262
1.2675	0
1.268	6.04248
1.2685	7.65381
1.269	9.76868
1.2695	14.30054
1.27	17.52319
1.2705	13.69629
1.271	14.90479
1.2715	18.22815
1.272	15.71045
1.2725	6.04248
1.273	11.07788
1.2735	12.68921
1.274	12.48779
1.2745	11.58142
1.275	2.5177
1.2755	3.32336
1.276	0.60425
1.2765	5.0354
1.277	16.51611
1.2775	15.40833
1.278	13.39417
1.2785	8.56018
1.279	8.35876
1.2795	-2.31628
1.28	-2.61841
1.2805	5.53894
1.281	10.37292
1.2815	12.99133
1.282	13.29346
1.2825	18.42957
1.283	20.1416
1.2835	23.8678
1.284	24.37134
1.2845	20.24231
1.285	18.22815
1.2855	12.68921
1.286	2.21558
1.2865	1.51062
1.287	-1.3092
1.2875	-9.26514
1.288	-1.81274
1.2885	1.10779
1.289	-0.40283
1.2895	8.45947
1.29	8.66089
1.2905	4.53186
1.291	12.89062
1.2915	8.25806
1.292	6.54602
1.2925	6.74744
1.293	7.75452
1.2935	1.51062
1.294	2.5177
1.2945	-3.42407
1.295	-4.73328
1.2955	-1.40991
1.296	-1.71204
1.2965	-2.81982
1.297	6.74744
1.2975	9.06372
1.298	9.86938
1.2985	14.80408
1.299	25.88196
1.2995	27.29187
1.3	28.70178
1.3005	34.34143
1.301	31.21948
1.3015	29.80957
1.302	28.80249
1.3025	26.28479
1.303	19.33594
1.3035	9.66797
1.304	0.20142
1.3045	-17.32178
1.305	-20.64514
1.3055	-18.73169
1.306	-20.44373
1.3065	-19.13452
1.307	-15.60974
1.3075	-12.28638
1.308	-7.25098
1.3085	-2.11487
1.309	2.41699
1.3095	7.45239
1.31	7.65381
1.3105	6.04248
1.311	7.25098
1.3115	10.17151
1.312	14.30054
1.3125	17.82532
1.313	18.12744
1.3135	16.01257
1.314	14.60266
1.3145	15.00549
1.315	15.40833
1.3155	8.96301
1.316	14.30054
1.3165	8.8623
1.317	3.8269
1.3175	5.53894
1.318	0.20142
1.3185	2.01416
1.319	1.71204
1.3195	-1.2085
1.32	3.7262
1.3205	1.40991
1.321	3.8269
1.3215	11.98425
1.322	23.56567
1.3225	18.8324
1.323	25.37842
1.3235	28.50037
1.324	29.40674
1.3245	31.11877
1.325	26.08337
1.3255	36.4563
1.326	31.21948
1.3265	32.22656
1.327	23.76709
1.3275	16.01257
1.328	14.09912
1.3285	7.04956
1.329	12.5885
1.3295	14.30054
1.33	10.17151
1.3305	2.71912
1.331	0.40283
1.3315	-0.80566
1.332	-1.71204
1.3325	4.73328
1.333	-3.22266
1.3335	-6.44531
1.334	-2.81982
1.3345	-4.43115
1.335	-1.61133
1.3355	0.10071
1.336	-3.02124
1.3365	-6.54602
1.337	-6.54602
1.3375	-8.05664
1.338	-4.83398
1.3385	-1.81274
1.339	-0.20142
1.3395	-2.21558
1.34	-0.40283
1.3405	9.76868
1.341	13.49487
1.3415	13.99841
1.342	21.14868
1.3425	20.1416
1.343	18.63098
1.3435	18.02673
1.344	19.43665
1.3445	15.71045
1.345	8.56018
1.3455	11.68213
1.346	10.37292
1.3465	5.53894
1.347	11.2793
1.3475	12.68921
1.348	13.19275
1.3485	9.66797
1.349	14.90479
1.3495	7.15027
1.35	6.54602
1.3505	10.57434
1.351	10.97717
1.3515	10.77576
1.352	13.89771
1.3525	11.58142
1.353	13.19275
1.3535	16.21399
1.354	21.14868
1.3545	20.24231
1.355	22.6593
1.3555	19.94019
1.356	20.84656
1.3565	12.78992
1.357	9.36584
1.3575	5.84106
1.358	4.63257
1.3585	6.74744
1.359	6.04248
1.3595	1.51062
1.36	2.61841
1.3605	0.70496
1.361	-2.71912
1.3615	-6.64673
1.362	-3.62549
1.3625	-3.7262
1.363	2.5177
1.3635	3.32336
1.364	9.26514
1.3645	0.50354
1.365	0.10071
1.3655	6.44531
1.366	8.66089
1.3665	7.15027
1.367	6.14319
1.3675	3.22266
1.368	1.71204
1.3685	2.61841
1.369	6.84814
1.3695	6.14319
1.37	11.48071
1.3705	9.66797
1.371	5.84106
1.3715	3.42407
1.372	4.93469
1.3725	6.14319
1.373	-0.40283
1.3735	3.32336
1.374	3.22266
1.3745	-2.21558
1.375	-0.60425
1.3755	-4.22974
1.376	2.21558
1.3765	1.3092
1.377	-1.2085
1.3775	-0.50354
1.378	-2.21558
1.3785	1.2085
1.379	6.64673
1.3795	9.46655
1.38	8.56018
1.3805	5.94177
1.381	5.84106
1.3815	-1.00708
1.382	3.02124
1.3825	1.00708
1.383	1.40991
1.3835	3.02124
1.384	9.56726
1.3845	11.17859
1.385	16.61682
1.3855	12.48779
1.386	9.16443
1.3865	13.89771
1.387	11.17859
1.3875	16.81824
1.388	16.91895
1.3885	16.71753
1.389	15.50903
1.3895	24.77417
1.39	22.15576
1.3905	23.8678
1.391	27.6947
1.3915	36.75842
1.392	34.74426
1.3925	27.49329
1.393	22.6593
1.3935	26.48621
1.394	30.31311
1.3945	28.29895
1.395	30.11169
1.3955	25.57983
1.396	24.06921
1.3965	14.70337
1.397	10.77576
1.3975	6.94885
1.398	3.22266
1.3985	-1.40991
1.399	0.50354
1.3995	6.2439
1.4	11.07788
1.4005	7.95593
1.401	7.85522
1.4015	5.63965
1.402	7.25098
1.4025	5.33752
1.403	9.06372
1.4035	18.02673
1.404	23.46497
1.4045	21.75293
1.405	21.65222
1.4055	27.29187
1.406	24.97559
1.4065	23.76709
1.407	21.95435
1.4075	16.51611
1.408	18.8324
1.4085	14.19983
1.409	9.26514
1.4095	9.66797
1.41	7.45239
1.4105	10.37292
1.411	15.00549
1.4115	4.73328
1.412	18.02673
1.4125	16.21399
1.413	21.45081
1.4135	27.89612
1.414	25.37842
1.4145	14.80408
1.415	9.86938
1.4155	10.0708
1.416	5.63965
1.4165	11.17859
1.417	15.81116
1.4175	19.94019
1.418	19.83948
1.4185	22.15576
1.419	18.93311
1.4195	20.84656
1.42	25.57983
1.4205	28.70178
1.421	28.9032
1.4215	16.51611
1.422	13.797
1.4225	16.01257
1.423	14.40125
1.4235	17.82532
1.424	19.94019
1.4245	12.78992
1.425	15.71045
1.4255	14.40125
1.426	12.48779
1.4265	14.30054
1.427	10.57434
1.4275	8.66089
1.428	8.56018
1.4285	6.04248
1.429	4.93469
1.4295	8.05664
1.43	7.5531
1.4305	10.37292
1.431	5.43823
1.4315	10.27222
1.432	14.19983
1.4325	14.60266
1.433	12.38708
1.4335	6.64673
1.434	4.53186
1.4345	2.31628
1.435	-3.52478
1.4355	3.22266
1.436	8.96301
1.4365	2.71912
1.437	2.41699
1.4375	0.70496
1.438	1.40991
1.4385	-0.20142
1.439	1.81274
1.4395	5.43823
1.44	10.67505
1.4405	4.33044
1.441	-4.12903
1.4415	-2.61841
1.442	6.84814
1.4425	8.15735
1.443	13.19275
1.4435	9.16443
1.444	9.66797
1.4445	16.3147
1.445	16.61682
1.4455	12.89062
1.446	17.01965
1.4465	14.50195
1.447	18.8324
1.4475	13.59558
1.448	13.09204
1.4485	15.1062
1.449	16.3147
1.4495	15.81116
1.45	14.60266
1.4505	15.91187
1.451	13.09204
1.4515	7.75452
1.452	2.11487
1.4525	2.5177
1.453	6.44531
1.4535	16.61682
1.454	12.5885
1.4545	16.71753
1.455	17.82532
1.4555	14.19983
1.456	17.52319
1.4565	9.06372
1.457	5.0354
1.4575	1.71204
1.458	1.40991
1.4585	6.64673
1.459	5.13611
1.4595	3.92761
1.46	6.74744
1.4605	0
1.461	5.84106
1.4615	7.45239
1.462	4.02832
1.4625	5.63965
1.463	6.44531
1.4635	7.65381
1.464	0.40283
1.4645	8.05664
1.465	4.93469
1.4655	5.43823
1.466	-2.92053
1.4665	-8.8623
1.467	-1.10779
1.4675	8.05664
1.468	8.7616
1.4685	6.84814
1.469	2.61841
1.4695	2.92053
1.47	6.64673
1.4705	13.99841
1.471	9.97009
1.4715	11.48071
1.472	10.27222
1.4725	18.73169
1.473	16.61682
1.4735	23.26355
1.474	22.96143
1.4745	25.27771
1.475	21.14868
1.4755	25.57983
1.476	17.52319
1.4765	11.98425
1.477	11.38
1.4775	5.33752
1.478	-3.62549
1.4785	-7.95593
1.479	-6.04248
1.4795	-18.42957
1.48	-22.76001
1.4805	-15.60974
1.481	-17.12036
1.4815	-17.12036
1.482	-18.8324
1.4825	-28.09753
1.483	-24.87488
1.4835	-21.75293
1.484	-15.20691
1.4845	-9.76868
1.485	-12.28638
1.4855	-6.64673
1.486	-7.85522
1.4865	3.92761
1.487	3.62549
1.4875	17.72461
1.488	24.37134
1.4885	23.06213
1.489	21.95435
1.4895	25.88196
1.49	28.70178
1.4905	28.70178
1.491	17.6239
1.4915	14.70337
1.492	6.54602
1.4925	9.26514
1.493	17.01965
1.4935	14.09912
1.494	11.48071
1.4945	8.25806
1.495	9.66797
1.4955	3.32336
1.496	1.10779
1.4965	2.61841
1.497	-3.22266
1.4975	0.10071
1.498	-4.43115
1.4985	-1.2085
1.499	2.5177
1.4995	5.0354
1.5	2.61841
1.5005	5.13611
1.501	5.94177
1.5015	7.15027
1.502	8.45947
1.5025	11.88354
1.503	9.56726
1.5035	16.51611
1.504	13.19275
1.5045	18.8324
1.505	22.05505
1.5055	17.72461
1.506	17.82532
1.5065	9.97009
1.507	11.58142
1.5075	6.64673
1.508	8.35876
1.5085	12.08496
1.509	14.70337
1.5095	9.36584
1.51	1.71204
1.5105	5.0354
1.511	8.35876
1.5115	10.0708
1.512	16.61682
1.5125	13.69629
1.513	11.38
1.5135	12.78992
1.514	8.25806
1.5145	5.63965
1.515	9.16443
1.5155	9.16443
1.516	1.40991
1.5165	7.04956
1.517	1.51062
1.5175	6.14319
1.518	8.25806
1.5185	7.85522
1.519	10.17151
1.5195	7.65381
1.52	15.60974
1.5205	17.92603
1.521	10.17151
1.5215	7.65381
1.522	5.84106
1.5225	4.33044
1.523	2.81982
1.5235	3.8269
1.524	11.48071
1.5245	7.5531
1.525	8.56018
1.5255	12.89062
1.526	12.99133
1.5265	12.68921
1.527	14.70337
1.5275	15.1062
1.528	12.89062
1.5285	15.00549
1.529	16.01257
1.5295	10.57434
1.53	10.37292
1.5305	13.99841
1.531	6.44531
1.5315	6.14319
1.532	-0.40283
1.5325	-0.90637
1.533	-0.70496
1.5335	-0.10071
1.534	5.53894
1.5345	5.74036
1.535	-3.52478
1.5355	-15.20691
1.536	-22.25647
1.5365	-21.55151
1.537	-16.41541
1.5375	-10.77576
1.538	-5.33752
1.5385	-8.15735
1.539	-8.15735
1.5395	1.3092
1.54	1.81274
1.5405	14.19983
1.541	17.6239
1.5415	24.27063
1.542	24.87488
1.5425	23.56567
1.543	25.78125
1.5435	23.36426
1.544	19.23523
1.5445	13.89771
1.545	11.58142
1.5455	-1.00708
1.546	-3.52478
1.5465	1.81274
1.547	5.13611
1.5475	1.3092
1.548	1.71204
1.5485	4.33044
1.549	3.92761
1.5495	1.3092
1.55	1.81274
1.5505	6.94885
1.551	-0.40283
1.5515	7.35168
1.552	1.2085
1.5525	8.35876
1.553	8.8623
1.5535	7.35168
1.554	4.43115
1.5545	4.53186
1.555	3.22266
1.5555	1.51062
1.556	5.53894
1.5565	5.33752
1.557	2.81982
1.5575	1.71204
1.558	3.7262
1.5585	13.797
1.559	11.38
1.5595	12.78992
1.56	9.76868
1.5605	7.45239
1.561	12.99133
1.5615	17.01965
1.562	17.22107
1.5625	22.55859
1.563	19.94019
1.5635	18.02673
1.564	23.16284
1.5645	22.55859
1.565	16.71753
1.5655	16.91895
1.566	13.59558
1.5665	3.22266
1.567	-3.22266
1.5675	-5.13611
1.568	-5.74036
1.5685	-3.92761
1.569	-5.0354
1.5695	-7.75452
1.57	-1.91345
1.5705	1.51062
1.571	0.80566
1.5715	7.45239
1.572	11.98425
1.5725	13.09204
1.573	8.35876
1.5735	2.41699
1.574	5.84106
1.5745	2.21558
1.575	-1.51062
1.5755	2.21558
1.576	-2.5177
1.5765	2.41699
1.577	9.26514
1.5775	7.75452
1.578	8.8623
1.5785	7.04956
1.579	6.74744
1.5795	12.08496
1.58	7.35168
1.5805	7.5531
1.581	10.47363
1.5815	5.13611
1.582	-2.81982
1.5825	-5.84106
1.583	-10.67505
1.5835	-13.99841
1.584	-1.40991
1.5845	5.0354
1.585	7.75452
1.5855	7.25098
1.586	7.85522
1.5865	0.40283
1.587	1.40991
1.5875	11.2793
1.588	9.86938
1.5885	5.63965
1.589	1.91345
1.5895	6.84814
1.59	8.35876
1.5905	5.53894
1.591	0.60425
1.5915	-5.23682
1.592	-13.39417
1.5925	-16.71753
1.593	-23.46497
1.5935	-32.32727
1.594	-26.88904
1.5945	-22.45789
1.595	-29.40674
1.5955	-22.45789
1.596	-15.1062
1.5965	-9.76868
1.597	-0.30212
1.5975	6.3446
1.598	10.87646
1.5985	14.09912
1.599	13.69629
1.5995	22.35718
1.6	22.25647
1.6005	20.74585
1.601	21.04797
1.6015	20.34302
1.602	28.09753
1.6025	27.79541
1.603	29.91028
1.6035	27.39258
1.604	22.15576
1.6045	23.96851
1.605	19.63806
1.6055	18.93311
1.606	24.37134
1.6065	19.33594
1.607	20.54443
1.6075	15.81116
1.608	9.46655
1.6085	8.35876
1.609	6.44531
1.6095	13.49487
1.61	9.06372
1.6105	10.97717
1.611	7.85522
1.6115	12.99133
1.612	13.29346
1.6125	14.70337
1.613	21.24939
1.6135	18.32886
1.614	10.47363
1.6145	8.66089
1.615	11.17859
1.6155	11.58142
1.616	6.54602
1.6165	1.40991
1.617	2.11487
1.6175	0.70496
1.618	1.00708
1.6185	-3.52478
1.619	-1.10779
1.6195	-6.3446
1.62	-6.74744
1.6205	-7.04956
1.621	-4.83398
1.6215	0.90637
1.622	-0.80566
1.6225	-1.51062
1.623	-3.32336
1.6235	-2.92053
1.624	-3.32336
1.6245	-1.00708
1.625	2.41699
1.6255	1.61133
1.626	1.3092
1.6265	5.43823
1.627	7.04956
1.6275	7.95593
1.628	7.5531
1.6285	11.17859
1.629	4.12903
1.6295	-1.10779
1.63	-0.20142
1.6305	0.80566
1.631	6.04248
1.6315	4.22974
1.632	2.41699
1.6325	-0.40283
1.633	5.33752
1.6335	9.66797
1.634	11.48071
1.6345	6.94885
1.635	8.35876
1.6355	9.66797
1.636	6.2439
1.6365	6.64673
1.637	-5.53894
1.6375	-15.40833
1.638	-16.71753
1.6385	-22.25647
1.639	-25.57983
1.6395	-27.6947
1.64	-25.98267
1.6405	-32.52869
1.641	-24.47205
1.6415	-24.06921
1.642	-21.55151
1.6425	-16.01257
1.643	-4.43115
1.6435	-1.2085
1.644	0
1.6445	6.94885
1.645	11.98425
1.6455	27.39258
1.646	35.04639
1.6465	31.32019
1.647	9.86938
1.6475	1.2085
1.648	-10.47363
1.6485	-19.33594
1.649	-26.68762
1.6495	-37.36267
1.65	-39.07471
1.6505	-37.26196
1.651	-27.59399
1.6515	-13.49487
1.652	-6.44531
1.6525	-2.81982
1.653	2.71912
1.6535	4.33044
1.654	2.71912
1.6545	9.06372
1.655	11.38
1.6555	17.42249
1.656	18.22815
1.6565	20.64514
1.657	18.32886
1.6575	37.26196
1.658	40.48462
1.6585	46.5271
1.659	52.16675
1.6595	52.8717
1.66	52.26746
1.6605	58.30994
1.661	58.20923
1.6615	62.64038
1.662	49.74976
1.6625	39.37683
1.663	37.56409
1.6635	29.60815
1.664	23.46497
1.6645	19.23523
1.665	19.33594
1.6655	17.92603
1.666	12.48779
1.6665	20.1416
1.667	19.63806
1.6675	12.99133
1.668	11.68213
1.6685	9.76868
1.669	5.0354
1.6695	1.3092
1.67	7.35168
1.6705	4.73328
1.671	8.96301
1.6715	9.46655
1.672	10.0708
1.6725	9.66797
1.673	11.38
1.6735	11.38
1.674	4.93469
1.6745	4.43115
1.675	9.06372
1.6755	2.01416
1.676	1.71204
1.6765	3.12195
1.677	5.23682
1.6775	1.2085
1.678	2.01416
1.6785	8.15735
1.679	-0.60425
1.6795	-0.50354
1.68	0
1.6805	0.70496
1.681	5.53894
1.6815	2.11487
1.682	-2.92053
1.6825	-8.56018
1.683	11.38
1.6835	26.18408
1.684	26.78833
1.6845	16.41541
1.685	10.0708
1.6855	5.94177
1.686	1.3092
1.6865	-13.49487
1.687	-12.99133
1.6875	-13.69629
1.688	-25.177
1.6885	-22.86072
1.689	-20.34302
1.6895	-19.03381
1.69	-12.78992
1.6905	-8.8623
1.691	-17.82532
1.6915	-19.03381
1.692	-17.92603
1.6925	-11.48071
1.693	-11.68213
1.6935	-11.88354
1.694	-17.32178
1.6945	-20.64514
1.695	-23.36426
1.6955	-17.92603
1.696	-14.60266
1.6965	-10.97717
1.697	-2.92053
1.6975	1.00708
1.698	7.65381
1.6985	11.98425
1.699	14.30054
1.6995	19.13452
1.7	22.6593
1.7005	18.73169
1.701	17.92603
1.7015	17.72461
1.702	16.71753
1.7025	18.93311
1.703	16.01257
1.7035	16.41541
1.704	18.02673
1.7045	17.22107
1.705	24.37134
1.7055	24.97559
1.706	24.67346
1.7065	24.67346
1.707	23.56567
1.7075	23.36426
1.708	15.50903
1.7085	17.12036
1.709	15.1062
1.7095	18.02673
1.71	16.01257
1.7105	21.04797
1.711	20.84656
1.7115	20.44373
1.712	18.32886
1.7125	23.36426
1.713	20.84656
1.7135	16.81824
1.714	12.28638
1.7145	15.20691
1.715	5.53894
1.7155	2.31628
1.716	1.40991
1.7165	2.31628
1.717	10.47363
1.7175	7.85522
1.718	6.2439
1.7185	6.44531
1.719	2.61841
1.7195	1.2085
1.72	3.22266
1.7205	4.93469
1.721	1.40991
1.7215	9.36584
1.722	13.49487
1.7225	12.68921
1.723	10.87646
1.7235	10.27222
1.724	8.56018
1.7245	6.3446
1.725	4.93469
1.7255	7.25098
1.726	-3.92761
1.7265	-7.45239
1.727	-10.17151
1.7275	-9.46655
1.728	-2.71912
1.7285	-0.50354
1.729	-2.01416
1.7295	-2.41699
1.73	-1.81274
1.7305	-1.51062
1.731	1.81274
1.7315	1.51062
1.732	2.5177
1.7325	-2.71912
1.733	-2.61841
1.7335	-5.63965
1.734	-7.95593
1.7345	-12.89062
1.735	-7.95593
1.7355	-7.04956
1.736	-10.0708
1.7365	-11.98425
1.737	-14.09912
1.7375	-16.91895
1.738	-11.38
1.7385	-9.26514
1.739	-7.25098
1.7395	-10.77576
1.74	-11.07788
1.7405	-12.78992
1.741	-7.85522
1.7415	1.2085
1.742	3.8269
1.7425	6.04248
1.743	-1.00708
1.7435	-8.8623
1.744	-2.01416
1.7445	-0.30212
1.745	3.42407
1.7455	-5.43823
1.746	-13.49487
1.7465	-11.2793
1.747	-6.2439
1.7475	-19.13452
1.748	-29.00391
1.7485	-42.29736
1.749	-41.4917
1.7495	-38.06763
1.75	-28.09753
1.7505	-24.57275
1.751	-9.46655
1.7515	-0.40283
1.752	12.78992
1.7525	20.84656
1.753	32.62939
1.7535	35.95276
1.754	40.48462
1.7545	53.27454
1.755	57.30286
1.7555	58.71277
1.756	51.05896
1.7565	53.07312
1.757	49.54834
1.7575	44.21082
1.758	45.41931
1.7585	42.90161
1.759	37.26196
1.7595	25.88196
1.76	27.49329
1.7605	20.74585
1.761	23.8678
1.7615	17.6239
1.762	12.99133
1.7625	9.06372
1.763	11.58142
1.7635	9.16443
1.764	16.11328
1.7645	19.23523
1.765	24.87488
1.7655	20.34302
1.766	15.00549
1.7665	14.40125
1.767	5.0354
1.7675	6.54602
1.768	7.65381
1.7685	-4.63257
1.769	3.32336
1.7695	9.06372
1.77	12.08496
1.7705	11.88354
1.771	6.64673
1.7715	1.91345
1.772	-7.65381
1.7725	-8.45947
1.773	-5.43823
1.7735	-12.18567
1.774	-15.50903
1.7745	-6.14319
1.775	-0.30212
1.7755	-1.91345
1.776	-7.04956
1.7765	-17.72461
1.777	-30.2124
1.7775	-13.59558
1.778	-3.32336
1.7785	12.18567
1.779	10.0708
1.7795	7.04956
1.78	5.63965
1.7805	3.8269
1.781	2.5177
1.7815	1.3092
1.782	-1.81274
1.7825	-1.10779
1.783	1.2085
1.7835	2.31628
1.784	6.14319
1.7845	12.08496
1.785	3.32336
1.7855	5.23682
1.786	4.83398
1.7865	9.97009
1.787	10.37292
1.7875	10.57434
1.788	19.83948
1.7885	27.99683
1.789	22.86072
1.7895	16.91895
1.79	21.14868
1.7905	10.67505
1.791	9.16443
1.7915	8.45947
1.792	8.66089
1.7925	6.54602
1.793	5.63965
1.7935	11.48071
1.794	12.38708
1.7945	9.36584
1.795	10.57434
1.7955	13.59558
1.796	11.48071
1.7965	7.95593
1.797	5.63965
1.7975	8.35876
1.798	11.68213
1.7985	6.54602
1.799	5.43823
1.7995	5.94177
1.8	4.83398
1.8005	-0.20142
1.801	5.94177
1.8015	4.33044
1.802	-1.91345
1.8025	-3.52478
1.803	-5.13611
1.8035	-7.5531
1.804	-16.51611
1.8045	-23.96851
1.805	-30.01099
1.8055	-33.83789
1.806	-34.34143
1.8065	-27.6947
1.807	-20.64514
1.8075	-13.59558
1.808	-13.19275
1.8085	-13.797
1.809	-14.40125
1.8095	-15.20691
1.81	-9.46655
1.8105	-8.66089
1.811	-1.81274
1.8115	2.21558
1.812	9.86938
1.8125	20.74585
1.813	39.07471
1.8135	38.974
1.814	34.14001
1.8145	29.60815
1.815	23.8678
1.8155	18.73169
1.816	19.73877
1.8165	18.8324
1.817	22.6593
1.8175	19.53735
1.818	17.52319
1.8185	19.94019
1.819	9.97009
1.8195	13.19275
1.82	10.67505
1.8205	11.58142
1.821	7.5531
1.8215	6.44531
1.822	10.47363
1.8225	9.06372
1.823	3.8269
1.8235	-13.797
1.824	-13.39417
1.8245	-23.96851
1.825	-19.03381
1.8255	-17.12036
1.826	-16.3147
1.8265	-44.11011
1.827	-21.45081
1.8275	9.36584
1.828	21.04797
1.8285	25.78125
1.829	28.39966
1.8295	26.18408
1.83	29.20532
1.8305	32.7301
1.831	36.4563
1.8315	-230.1178
1.832	-44.11011
1.8325	3.02124
1.833	-125.98572
1.8335	-298.29712
1.834	-80.4657
1.8345	-14.70337
1.835	7.25098
1.8355	18.63098
1.836	20.04089
1.8365	19.83948
1.837	17.52319
1.8375	15.50903
1.838	13.59558
1.8385	19.43665
1.839	20.54443
1.8395	23.36426
1.84	26.48621
1.8405	25.57983
1.841	25.68054
1.8415	24.16992
1.842	29.40674
1.8425	33.33435
1.843	33.63647
1.8435	40.1825
1.844	35.95276
1.8445	38.974
1.845	34.24072
1.8455	28.29895
1.846	26.88904
1.8465	25.177
1.847	18.42957
1.8475	16.91895
1.848	18.73169
1.8485	22.35718
1.849	22.86072
1.8495	18.53027
1.85	20.64514
1.8505	21.55151
1.851	26.18408
1.8515	24.67346
1.852	22.15576
1.8525	25.57983
1.853	21.24939
1.8535	21.95435
1.854	23.06213
1.8545	12.89062
1.855	12.99133
1.8555	13.49487
1.856	10.27222
1.8565	7.04956
1.857	8.45947
1.8575	9.56726
1.858	13.19275
1.8585	12.18567
1.859	25.27771
1.8595	19.53735
1.86	20.1416
1.8605	17.92603
1.861	14.60266
1.8615	11.88354
1.862	13.99841
1.8625	15.30762
1.863	9.46655
1.8635	5.53894
1.864	7.75452
1.8645	9.16443
1.865	5.63965
1.8655	3.92761
1.866	8.56018
1.8665	-3.32336
1.867	3.7262
1.8675	1.61133
1.868	4.73328
1.8685	16.21399
1.869	0
1.8695	-2.41699
1.87	6.44531
1.8705	2.21558
1.871	6.14319
1.8715	11.48071
1.872	21.85364
1.8725	13.29346
1.873	17.52319
1.8735	10.77576
1.874	15.71045
1.8745	21.95435
1.875	24.77417
1.8755	20.44373
1.876	18.02673
1.8765	21.04797
1.877	24.97559
1.8775	22.55859
1.878	22.05505
1.8785	16.81824
1.879	21.75293
1.8795	11.2793
1.88	9.26514
1.8805	9.06372
1.881	7.04956
1.8815	-0.70496
1.882	4.22974
1.8825	-1.10779
1.883	0
1.8835	-6.44531
1.884	-7.04956
1.8845	-9.36584
1.885	-18.02673
1.8855	-31.52161
1.886	-43.10303
1.8865	-39.77966
1.887	-34.94568
1.8875	-33.13293
1.888	-26.68762
1.8885	-21.3501
1.889	-22.55859
1.8895	-16.11328
1.89	-14.50195
1.8905	6.3446
1.891	24.87488
1.8915	39.47754
1.892	45.3186
1.8925	48.64197
1.893	43.80798
1.8935	35.95276
1.894	27.19116
1.8945	25.57983
1.895	28.50037
1.8955	29.20532
1.896	17.12036
1.8965	15.20691
1.897	19.73877
1.8975	16.3147
1.898	12.89062
1.8985	3.42407
1.899	-6.64673
1.8995	-1.61133
1.9	-7.45239
1.9005	-12.99133
1.901	-8.56018
1.9015	-5.13611
1.902	-5.63965
1.9025	-9.26514
1.903	-7.25098
1.9035	1.71204
1.904	6.44531
1.9045	7.45239
1.905	13.99841
1.9055	23.16284
1.906	32.52869
1.9065	34.24072
1.907	25.47913
1.9075	20.84656
1.908	16.01257
1.9085	13.39417
1.909	0.40283
1.9095	-10.47363
1.91	-21.3501
1.9105	-14.60266
1.911	-16.01257
1.9115	-17.12036
1.912	-9.76868
1.9125	-7.35168
1.913	-5.94177
1.9135	5.94177
1.914	13.797
1.9145	10.97717
1.915	17.82532
1.9155	15.40833
1.916	22.45789
1.9165	35.44922
1.917	35.95276
1.9175	41.29028
1.918	39.57825
1.9185	32.52869
1.919	37.7655
1.9195	29.00391
1.92	19.23523
1.9205	9.76868
1.921	6.14319
1.9215	11.58142
1.922	11.38
1.9225	19.33594
1.923	18.12744
1.9235	15.60974
1.924	4.63257
1.9245	0.20142
1.925	3.7262
1.9255	5.43823
1.926	9.66797
1.9265	8.56018
1.927	9.76868
1.9275	9.26514
1.928	9.56726
1.9285	10.67505
1.929	8.05664
1.9295	10.67505
1.93	12.48779
1.9305	10.0708
1.931	6.44531
1.9315	1.10779
1.932	6.74744
1.9325	3.12195
1.933	1.40991
1.9335	2.01416
1.934	2.21558
1.9345	6.54602
1.935	8.96301
1.9355	6.3446
1.936	2.92053
1.9365	0.50354
1.937	0.50354
1.9375	-0.70496
1.938	-1.3092
1.9385	7.04956
1.939	10.27222
1.9395	-1.10779
1.94	2.31628
1.9405	5.74036
1.941	3.7262
1.9415	-1.3092
1.942	3.8269
1.9425	3.8269
1.943	-0.70496
1.9435	3.62549
1.944	7.75452
1.9445	4.12903
1.945	3.42407
1.9455	-2.01416
1.946	-3.22266
1.9465	-6.14319
1.947	-0.90637
1.9475	6.04248
1.948	1.2085
1.9485	-2.61841
1.949	13.797
1.9495	13.797
1.95	18.73169
1.9505	23.16284
1.951	21.55151
1.9515	24.77417
1.952	23.76709
1.9525	19.83948
1.953	11.07788
1.9535	4.93469
1.954	2.5177
1.9545	4.02832
1.955	1.10779
1.9555	-5.23682
1.956	0.30212
1.9565	-2.61841
1.957	1.61133
1.9575	-9.97009
1.958	-8.35876
1.9585	-12.08496
1.959	-19.23523
1.9595	-16.81824
1.96	-18.22815
1.9605	-13.19275
1.961	-2.5177
1.9615	3.7262
1.962	5.74036
1.9625	5.63965
1.963	7.45239
1.9635	1.91345
1.964	4.02832
1.9645	3.22266
1.965	10.27222
1.9655	3.8269
1.966	4.02832
1.9665	0.70496
1.967	2.41699
1.9675	0.90637
1.968	6.2439
1.9685	9.66797
1.969	6.84814
1.9695	1.91345
1.97	9.06372
1.9705	11.98425
1.971	6.3446
1.9715	6.54602
1.972	6.2439
1.9725	5.74036
1.973	5.53894
1.9735	4.12903
1.974	1.3092
1.9745	5.74036
1.975	2.61841
1.9755	3.22266
1.976	-3.02124
1.9765	-2.11487
1.977	7.85522
1.9775	10.87646
1.978	4.43115
1.9785	9.56726
1.979	6.44531
1.9795	12.68921
1.98	4.83398
1.9805	-12.28638
1.981	-24.57275
1.9815	-30.71594
1.982	-32.32727
1.9825	-23.46497
1.983	-17.42249
1.9835	-3.42407
1.984	1.00708
1.9845	0.40283
1.985	5.63965
1.9855	4.83398
1.986	12.48779
1.9865	15.40833
1.987	20.64514
1.9875	26.3855
1.988	20.94727
1.9885	18.22815
1.989	20.1416
1.9895	19.73877
1.99	24.67346
1.9905	19.83948
1.991	18.42957
1.9915	11.98425
1.992	16.41541
1.9925	11.38
1.993	10.0708
1.9935	11.2793
1.994	10.47363
1.9945	12.28638
1.995	13.39417
1.9955	21.65222
1.996	22.45789
1.9965	18.32886
1.997	17.12036
1.9975	21.04797
1.998	14.70337
1.9985	8.8623
1.999	9.56726
1.9995	-8.66089
2	-26.18408
2.0005	-39.88037
2.001	-40.68604
2.0015	-41.4917
2.002	-41.89453
2.0025	-41.99524
2.003	-39.57825
2.0035	-33.03223
2.004	-27.29187
2.0045	-13.49487
2.005	-9.46655
2.0055	-5.74036
2.006	1.91345
2.0065	3.22266
2.007	5.43823
2.0075	8.7616
2.008	11.88354
2.0085	7.25098
2.009	9.86938
2.0095	10.77576
2.01	7.65381
2.0105	10.97717
2.011	13.59558
2.0115	8.66089
2.012	12.89062
2.0125	22.76001
2.013	20.74585
2.0135	21.65222
2.014	27.19116
2.0145	30.11169
2.015	48.33984
2.0155	65.3595
2.016	67.97791
2.0165	56.09436
2.017	46.32568
2.0175	32.7301
2.018	26.98975
2.0185	9.26514
2.019	-0.80566
2.0195	0.80566
2.02	-4.02832
2.0205	3.92761
2.021	0
2.0215	7.85522
2.022	8.45947
2.0225	10.77576
2.023	1.10779
2.0235	8.05664
2.024	10.27222
2.0245	11.58142
2.025	14.19983
2.0255	18.22815
2.026	21.3501
2.0265	24.57275
2.027	35.34851
2.0275	34.44214
2.028	39.57825
2.0285	30.61523
2.029	30.2124
2.0295	31.32019
2.03	18.32886
2.0305	12.78992
2.031	7.35168
2.0315	6.84814
2.032	8.96301
2.0325	13.69629
2.033	10.87646
2.0335	13.69629
2.034	13.09204
2.0345	15.60974
2.035	14.70337
2.0355	17.12036
2.036	13.39417
2.0365	18.73169
2.037	13.69629
2.0375	15.50903
2.038	12.5885
2.0385	9.16443
2.039	7.65381
2.0395	10.0708
2.04	2.61841
2.0405	-3.02124
2.041	-7.15027
2.0415	-5.23682
2.042	0.20142
2.0425	-4.43115
2.043	0.10071
2.0435	0.70496
2.044	-3.52478
2.0445	-8.8623
2.045	-5.94177
2.0455	-1.51062
2.046	-1.00708
2.0465	3.8269
2.047	9.97009
2.0475	8.56018
2.048	17.92603
2.0485	15.40833
2.049	19.03381
2.0495	22.05505
2.05	20.34302
2.0505	20.1416
2.051	22.15576
2.0515	12.5885
2.052	7.75452
2.0525	10.77576
2.053	4.83398
2.0535	-4.73328
2.054	-2.31628
2.0545	-6.94885
2.055	-11.88354
2.0555	-15.00549
2.056	-1.40991
2.0565	2.01416
2.057	6.3446
2.0575	9.66797
2.058	1.71204
2.0585	-1.91345
2.059	-2.01416
2.0595	-9.76868
2.06	-13.39417
2.0605	-14.70337
2.061	-18.73169
2.0615	-11.88354
2.062	-7.5531
2.0625	-7.85522
2.063	-21.04797
2.0635	-16.71753
2.064	-1.81274
2.0645	6.64673
2.065	14.60266
2.0655	5.63965
2.066	-16.3147
2.0665	-34.94568
2.067	-52.771
2.0675	-60.62622
2.068	-53.27454
2.0685	-41.39099
2.069	-34.64355
2.0695	-31.11877
2.07	-29.50745
2.0705	-19.94019
2.071	-17.01965
2.0715	-5.74036
2.072	-2.31628
2.0725	0
2.073	8.25806
2.0735	13.09204
2.074	20.74585
2.0745	31.21948
2.075	27.19116
2.0755	29.60815
2.076	39.37683
2.0765	45.2179
2.077	24.47205
2.0775	7.65381
2.078	0.80566
2.0785	-6.04248
2.079	-18.32886
2.0795	-26.28479
2.08	-31.21948
2.0805	-25.47913
2.081	-19.03381
2.0815	-12.08496
2.082	-0.70496
2.0825	8.35876
2.083	12.78992
2.0835	16.3147
2.084	22.05505
2.0845	32.62939
2.085	39.67896
2.0855	32.22656
2.086	34.24072
2.0865	39.27612
2.087	44.91577
2.0875	40.58533
2.088	38.67188
2.0885	31.92444
2.089	26.68762
2.0895	27.59399
2.09	28.50037
2.0905	30.71594
2.091	38.06763
2.0915	38.36975
2.092	34.64355
2.0925	36.35559
2.093	33.13293
2.0935	27.09045
2.094	13.797
2.0945	8.05664
2.095	1.91345
2.0955	3.7262
2.096	-11.38
2.0965	-15.30762
2.097	-1.3092
2.0975	21.85364
2.098	27.89612
2.0985	33.03223
2.099	22.86072
2.0995	32.32727
2.1	40.98816
2.1005	40.78674
2.101	26.08337
2.1015	11.78284
2.102	2.21558
2.1025	-15.1062
2.103	-26.08337
2.1035	-29.10461
2.104	-23.06213
2.1045	-22.86072
2.105	-31.92444
2.1055	-31.82373
2.106	-23.26355
2.1065	-15.00549
2.107	-6.3446
2.1075	-5.84106
2.108	-5.63965
2.1085	-5.53894
2.109	-2.21558
2.1095	-1.81274
2.11	2.92053
2.1105	14.60266
2.111	8.35876
2.1115	2.21558
2.112	-3.02124
2.1125	0
2.113	5.33752
2.1135	5.13611
2.114	4.33044
2.1145	3.92761
2.115	9.97009
2.1155	15.81116
2.116	20.04089
2.1165	24.47205
2.117	15.30762
2.1175	-3.12195
2.118	-13.19275
2.1185	-14.50195
2.119	-2.11487
2.1195	5.84106
2.12	2.92053
2.1205	3.92761
2.121	3.42407
2.1215	6.84814
2.122	6.54602
2.1225	8.8623
2.123	10.87646
2.1235	5.0354
2.124	12.68921
2.1245	18.93311
2.125	22.76001
2.1255	23.96851
2.126	22.96143
2.1265	20.04089
2.127	20.64514
2.1275	19.53735
2.128	23.46497
2.1285	26.68762
2.129	32.32727
2.1295	23.36426
2.13	23.26355
2.1305	25.07629
2.131	25.68054
2.1315	26.78833
2.132	17.92603
2.1325	10.27222
2.133	7.04956
2.1335	-2.01416
2.134	8.45947
2.1345	24.67346
2.135	21.85364
2.1355	29.40674
2.136	29.40674
2.1365	26.58691
2.137	16.91895
2.1375	9.06372
2.138	6.84814
2.1385	2.31628
2.139	0.70496
2.1395	-7.35168
2.14	-12.08496
2.1405	-12.08496
2.141	-11.68213
2.1415	-16.01257
2.142	-22.15576
2.1425	-22.6593
2.143	-24.67346
2.1435	-17.12036
2.144	-16.3147
2.1445	-16.11328
2.145	-13.797
2.1455	-20.54443
2.146	-20.64514
2.1465	-13.89771
2.147	0.90637
2.1475	30.91736
2.148	51.76392
2.1485	58.51135
2.149	67.57507
2.1495	68.17932
2.15	56.49719
2.1505	41.59241
2.151	25.98267
2.1515	11.38
2.152	0.50354
2.1525	-4.53186
2.153	-15.50903
2.1535	-16.61682
2.154	-11.98425
2.1545	-12.08496
2.155	-14.19983
2.1555	-41.59241
2.156	-57.40356
2.1565	-59.71985
2.157	-54.58374
2.1575	-39.07471
2.158	-40.08179
2.1585	-38.57117
2.159	-28.29895
2.1595	-20.64514
2.16	-10.87646
2.1605	2.21558
2.161	5.43823
2.1615	10.47363
2.162	11.88354
2.1625	11.48071
2.163	15.71045
2.1635	12.08496
2.164	9.06372
2.1645	11.58142
2.165	13.09204
2.1655	35.75134
2.166	45.01648
2.1665	46.5271
2.167	39.47754
2.1675	26.3855
2.168	14.40125
2.1685	2.92053
2.169	-10.0708
2.1695	-26.28479
2.17	-50.45471
2.1705	-51.26038
2.171	-34.24072
2.1715	-18.53027
2.172	-16.11328
2.1725	-14.40125
2.173	-12.48779
2.1735	-21.14868
2.174	-21.45081
2.1745	-18.02673
2.175	-9.56726
2.1755	-2.31628
2.176	3.02124
2.1765	10.37292
2.177	9.06372
2.1775	9.56726
2.178	14.80408
2.1785	5.33752
2.179	2.81982
2.1795	0.20142
2.18	7.65381
2.1805	22.76001
2.181	22.35718
2.1815	19.73877
2.182	13.39417
2.1825	12.48779
2.183	14.60266
2.1835	10.0708
2.184	10.37292
2.1845	14.50195
2.185	14.30054
2.1855	4.22974
2.186	8.7616
2.1865	20.04089
2.187	22.15576
2.1875	25.68054
2.188	14.50195
2.1885	3.8269
2.189	-8.7616
2.1895	-16.21399
2.19	-28.39966
2.1905	-27.89612
2.191	-32.93152
2.1915	-33.43506
2.192	-41.29028
2.1925	-34.64355
2.193	-31.82373
2.1935	-26.58691
2.194	-27.79541
2.1945	-32.7301
2.195	-40.78674
2.1955	-44.61365
2.196	-47.8363
2.1965	-58.10852
2.197	-56.69861
2.1975	-63.14392
2.198	-66.16516
2.1985	-66.36658
2.199	-64.25171
2.1995	-55.99365
2.2	-39.37683
2.2005	-19.33594
2.201	-4.73328
2.2015	19.23523
2.202	33.53577
2.2025	35.65063
2.203	42.59949
2.2035	58.00781
2.204	67.97791
2.2045	66.26587
2.205	65.05737
2.2055	61.53259
2.206	62.9425
2.2065	74.42322
2.207	83.78906
2.2075	86.70959
2.208	78.25012
2.2085	67.07153
2.209	46.12427
2.2095	35.75134
2.21	32.52869
2.2105	27.09045
2.211	24.87488
2.2115	25.88196
2.212	16.3147
2.2125	18.42957
2.213	14.70337
2.2135	14.40125
2.214	13.89771
2.2145	16.41541
2.215	17.32178
2.2155	15.40833
2.216	14.09912
2.2165	17.01965
2.217	12.89062
2.2175	2.92053
2.218	3.12195
2.2185	0.40283
2.219	4.63257
2.2195	9.56726
2.22	16.91895
2.2205	13.49487
2.221	18.12744
2.2215	16.71753
2.222	23.66638
2.2225	23.46497
2.223	26.28479
2.2235	16.21399
2.224	20.44373
2.2245	21.55151
2.225	33.73718
2.2255	31.72302
2.226	31.01807
2.2265	31.82373
2.227	30.41382
2.2275	26.48621
2.228	20.04089
2.2285	15.40833
2.229	5.94177
2.2295	3.32336
2.23	12.38708
2.2305	16.71753
2.231	22.25647
2.2315	22.96143
2.232	20.54443
2.2325	20.1416
2.233	11.88354
2.2335	1.81274
2.234	-6.64673
2.2345	-7.65381
2.235	-16.81824
2.2355	-20.94727
2.236	-17.52319
2.2365	-14.50195
2.237	-13.69629
2.2375	-7.5531
2.238	-16.01257
2.2385	-11.58142
2.239	-16.51611
2.2395	-24.37134
2.24	-24.47205
2.2405	-24.47205
2.241	-22.05505
2.2415	-16.91895
2.242	-12.89062
2.2425	-9.16443
2.243	1.51062
2.2435	-1.3092
2.244	0.10071
2.2445	4.63257
2.245	-180.77087
2.2455	-189.23035
2.246	-57.20215
2.2465	-26.48621
2.247	-11.88354
2.2475	-0.70496
2.248	7.15027
2.2485	2.31628
2.249	0.60425
2.2495	6.44531
2.25	13.09204
2.2505	20.54443
2.251	25.47913
2.2515	23.8678
2.252	14.50195
2.2525	8.8623
2.253	7.5531
2.2535	7.65381
2.254	11.07788
2.2545	7.5531
2.255	6.94885
2.2555	7.95593
2.256	7.45239
2.2565	5.43823
2.257	6.04248
2.2575	9.76868
2.258	12.99133
2.2585	19.83948
2.259	23.8678
2.2595	25.98267
2.26	24.06921
2.2605	13.19275
2.261	11.17859
2.2615	8.25806
2.262	3.42407
2.2625	-3.92761
2.263	-3.42407
2.2635	-6.44531
2.264	-2.81982
2.2645	-13.19275
2.265	-7.95593
2.2655	2.61841
2.266	-1.61133
2.2665	-5.0354
2.267	-5.13611
2.2675	2.81982
2.268	-1.81274
2.2685	-2.21558
2.269	-0.60425
2.2695	-6.74744
2.27	1.2085
2.2705	10.27222
2.271	19.53735
2.2715	29.60815
2.272	30.71594
2.2725	24.06921
2.273	22.86072
2.2735	24.37134
2.274	21.95435
2.2745	15.50903
2.275	4.22974
2.2755	-2.81982
2.276	0.50354
2.2765	-1.10779
2.277	-5.23682
2.2775	-3.22266
2.278	-4.63257
2.2785	-4.43115
2.279	-0.30212
2.2795	5.43823
2.28	7.65381
2.2805	10.17151
2.281	11.88354
2.2815	22.15576
2.282	28.39966
2.2825	38.47046
2.283	39.17542
2.2835	46.5271
2.284	37.16125
2.2845	27.49329
2.285	16.81824
2.2855	13.19275
2.286	8.8623
2.2865	-1.51062
2.287	-2.81982
2.2875	-6.3446
2.288	2.31628
2.2885	5.13611
2.289	4.02832
2.2895	5.0354
2.29	10.77576
2.2905	6.44531
2.291	2.11487
2.2915	5.13611
2.292	4.53186
2.2925	16.61682
2.293	24.27063
2.2935	19.83948
2.294	18.42957
2.2945	7.65381
2.295	5.13611
2.2955	1.3092
2.296	-0.10071
2.2965	5.63965
2.297	-8.66089
2.2975	-15.00549
2.298	-14.50195
2.2985	-13.29346
2.299	-11.58142
2.2995	-6.2439
2.3	-2.61841
2.3005	5.84106
2.301	12.99133
2.3015	23.26355
2.302	28.09753
2.3025	34.64355
2.303	43.10303
2.3035	40.88745
2.304	38.47046
2.3045	26.88904
2.305	15.91187
2.3055	3.42407
2.306	-26.88904
2.3065	-24.97559
2.307	-22.25647
2.3075	-20.24231
2.308	-37.26196
2.3085	-58.71277
2.309	-69.79065
2.3095	-78.04871
2.31	-80.06287
2.3105	-78.95508
2.311	-72.71118
2.3115	-66.46729
2.312	-52.8717
2.3125	-31.4209
2.313	-13.69629
2.3135	-14.50195
2.314	-22.45789
2.3145	-25.68054
2.315	-18.32886
2.3155	0.40283
2.316	12.18567
2.3165	19.83948
2.317	29.20532
2.3175	34.03931
2.318	39.17542
2.3185	34.54285
2.319	37.86621
2.3195	29.00391
2.32	17.72461
2.3205	-1.10779
2.321	-8.96301
2.3215	-16.71753
2.322	-12.38708
2.3225	-3.92761
2.323	8.35876
2.3235	26.88904
2.324	41.69312
2.3245	37.06055
2.325	35.2478
2.3255	24.87488
2.326	29.80957
2.3265	35.14709
2.327	39.47754
2.3275	46.32568
2.328	43.80798
2.3285	43.10303
2.329	41.79382
2.3295	35.04639
2.33	21.24939
2.3305	1.51062
2.331	4.33044
2.3315	-10.17151
2.332	-19.43665
2.3325	-23.56567
2.333	-31.32019
2.3335	-34.14001
2.334	-27.6947
2.3345	-28.50037
2.335	-34.24072
2.3355	-30.61523
2.336	-19.33594
2.3365	-6.64673
2.337	-4.43115
2.3375	-18.73169
2.338	-19.63806
2.3385	-9.97009
2.339	-4.43115
2.3395	-2.41699
2.34	12.18567
2.3405	10.37292
2.341	12.78992
2.3415	13.09204
2.342	1.40991
2.3425	-20.64514
2.343	-28.29895
2.3435	-36.15417
2.344	-36.95984
2.3445	-27.79541
2.345	-19.63806
2.3455	-5.84106
2.346	4.22974
2.3465	8.15735
2.347	15.81116
2.3475	40.68604
2.348	38.67188
2.3485	61.23047
2.349	79.86145
2.3495	90.03296
2.35	93.15491
2.3505	86.50818
2.351	79.55933
2.3515	80.76782
2.352	69.38782
2.3525	57.9071
2.353	52.67029
2.3535	48.64197
2.354	39.47754
2.3545	30.81665
2.355	29.10461
2.3555	29.91028
2.356	19.94019
2.3565	30.91736
2.357	26.68762
2.3575	24.97559
2.358	22.86072
2.3585	22.96143
2.359	19.83948
2.3595	12.99133
2.36	19.33594
2.3605	21.65222
2.361	20.84656
2.3615	23.26355
2.362	13.59558
2.3625	-4.63257
2.363	-18.8324
2.3635	-15.91187
2.364	-20.64514
2.3645	-30.01099
2.365	-31.62231
2.3655	-39.37683
2.366	-48.44055
2.3665	-53.67737
2.367	-56.69861
2.3675	-54.48303
2.368	-42.49878
2.3685	-35.75134
2.369	-23.26355
2.3695	-26.68762
2.37	-32.83081
2.3705	-30.41382
2.371	-21.55151
2.3715	-9.56726
2.372	-7.85522
2.3725	-5.94177
2.373	12.28638
2.3735	15.81116
2.374	9.06372
2.3745	4.02832
2.375	-4.63257
2.3755	-13.39417
2.376	-27.89612
2.3765	-26.18408
2.377	-9.56726
2.3775	0.80566
2.378	6.94885
2.3785	5.0354
2.379	-8.05664
2.3795	-12.08496
2.38	-7.45239
2.3805	-13.29346
2.381	-40.2832
2.3815	-58.71277
2.382	-69.1864
2.3825	-60.82764
2.383	-61.43188
2.3835	-58.81348
2.384	-61.53259
2.3845	-53.77808
2.385	-42.49878
2.3855	-33.43506
2.386	-22.15576
2.3865	-9.86938
2.387	3.22266
2.3875	-1.00708
2.388	12.08496
2.3885	25.47913
2.389	37.86621
2.3895	28.39966
2.39	29.20532
2.3905	38.87329
2.391	44.61365
2.3915	35.95276
2.392	32.22656
2.3925	31.82373
2.393	19.33594
2.3935	4.22974
2.394	-5.13611
2.3945	-0.10071
2.395	1.71204
2.3955	7.04956
2.396	24.87488
2.3965	27.99683
2.397	41.4917
2.3975	47.13135
2.398	65.05737
2.3985	70.99915
2.399	71.20056
2.3995	65.3595
2.4	57.00073
2.4005	56.39648
2.401	58.91418
2.4015	65.66162
2.402	68.17932
2.4025	71.09985
2.403	62.64038
2.4035	59.01489
2.404	65.86304
2.4045	65.66162
2.405	62.9425
2.4055	56.19507
2.406	43.30444
2.4065	41.89453
2.407	47.8363
2.4075	56.79932
2.408	48.64197
2.4085	40.78674
2.409	14.09912
2.4095	-6.14319
2.41	-18.63098
2.4105	-42.29736
2.411	-52.771
2.4115	-59.41772
2.412	-65.66162
2.4125	-48.94409
2.413	-36.25488
2.4135	-26.28479
2.414	-6.2439
2.4145	-6.2439
2.415	-12.08496
2.4155	-34.84497
2.416	-57.8064
2.4165	-57.50427
2.417	-42.19666
2.4175	-36.85913
2.418	-41.29028
2.4185	-49.54834
2.419	-37.56409
2.4195	-35.04639
2.42	-17.52319
2.4205	8.05664
2.421	20.44373
2.4215	18.53027
2.422	16.51611
2.4225	23.56567
2.423	26.08337
2.4235	29.20532
2.424	44.21082
2.4245	42.19666
2.425	49.0448
2.4255	45.41931
2.426	46.42639
2.4265	42.29736
2.427	28.60107
2.4275	24.77417
2.428	26.08337
2.4285	20.54443
2.429	9.56726
2.4295	-12.08496
2.43	-38.57117
2.4305	-56.69861
2.431	-71.80481
2.4315	-79.55933
2.432	-76.84021
2.4325	-76.03455
2.433	-66.36658
2.4335	-54.68445
2.434	-39.47754
2.4345	-14.50195
2.435	7.45239
2.4355	21.75293
2.436	46.5271
2.4365	67.37366
2.437	74.62463
2.4375	65.3595
2.438	67.27295
2.4385	58.30994
2.439	62.03613
2.4395	71.40198
2.44	75.32959
2.4405	71.80481
2.441	66.56799
2.4415	60.12268
2.442	57.9071
2.4425	55.99365
2.443	53.47595
2.4435	55.79224
2.444	53.07312
2.4445	55.79224
2.445	56.5979
2.4455	53.87878
2.446	46.72852
2.4465	39.37683
2.447	26.28479
2.4475	9.76868
2.448	-2.5177
2.4485	-5.84106
2.449	-9.46655
2.4495	-12.18567
2.45	-16.11328
2.4505	-24.87488
2.451	-23.56567
2.4515	-34.44214
2.452	-27.79541
2.4525	-0.70496
2.453	27.39258
2.4535	48.03772
2.454	51.26038
2.4545	34.14001
2.455	14.50195
2.4555	2.11487
2.456	-23.36426
2.4565	-37.36267
2.457	-52.36816
2.4575	-62.53967
2.458	-66.76941
2.4585	-76.43738
2.459	-79.15649
2.4595	-78.35083
2.46	-76.23596
2.4605	-64.65454
2.461	-40.2832
2.4615	-14.19983
2.462	20.04089
2.4625	44.11011
2.463	60.12268
2.4635	70.3949
2.464	79.15649
2.4645	75.83313
2.465	67.67578
2.4655	68.28003
2.466	58.81348
2.4665	40.08179
2.467	28.80249
2.4675	1.91345
2.468	-38.06763
2.4685	-61.23047
2.469	-73.21472
2.4695	-81.97632
2.47	-79.55933
2.4705	-75.22888
2.471	-69.38782
2.4715	-73.71826
2.472	-78.14941
2.4725	-72.9126
2.473	-82.17773
2.4735	-84.49402
2.474	-94.3634
2.4745	-80.66711
2.475	-61.02905
2.4755	-43.20374
2.476	-28.60107
2.4765	-5.84106
2.477	20.04089
2.4775	36.35559
2.478	42.7002
2.4785	37.86621
2.479	36.55701
2.4795	23.66638
2.48	13.89771
2.4805	20.24231
2.481	25.78125
2.4815	38.47046
2.482	46.72852
2.4825	49.44763
2.483	45.11719
2.4835	43.00232
2.484	49.85046
2.4845	56.39648
2.485	57.20215
2.4855	64.05029
2.486	70.3949
2.4865	86.70959
2.487	97.78748
2.4875	99.60022
2.488	91.8457
2.4885	69.68994
2.489	47.63489
2.4895	33.33435
2.49	14.70337
2.4905	3.7262
2.491	-4.63257
2.4915	-22.25647
2.492	-44.91577
2.4925	-66.06445
2.493	-82.47986
2.4935	-107.15332
2.494	-126.48926
2.4945	-127.49634
2.495	-121.35315
2.4955	-111.18164
2.496	-88.11951
2.4965	-72.30835
2.497	-47.33276
2.4975	-30.61523
2.498	-5.94177
2.4985	24.47205
2.499	43.50586
2.4995	60.82764
2.5	70.59631
2.5005	38.16833
2.501	-3.7262
2.5015	-37.06055
2.502	-38.47046
2.5025	-32.02515
2.503	-40.88745
2.5035	-57.20215
2.504	-68.17932
2.5045	-41.79382
2.505	-6.3446
2.5055	-1.81274
2.506	29.60815
2.5065	50.05188
2.507	71.40198
2.5075	80.56641
2.508	79.66003
2.5085	81.37207
2.509	69.89136
2.5095	67.07153
2.51	65.86304
2.5105	76.63879
2.511	86.30676
2.5115	86.20605
2.512	59.01489
2.5125	32.52869
2.513	17.42249
2.5135	38.77258
2.514	59.41772
2.5145	69.89136
2.515	85.70251
2.5155	90.63721
2.516	104.4342
2.5165	123.87085
2.517	129.5105
2.5175	132.12891
2.518	117.42554
2.5185	112.28943
2.519	107.35474
2.5195	100.80872
2.52	93.25562
2.5205	86.70959
2.521	79.05579
2.5215	82.47986
2.522	84.69543
2.5225	78.45154
2.523	78.65295
2.5235	74.92676
2.524	73.71826
2.5245	68.68286
2.525	56.69861
2.5255	38.87329
2.526	33.33435
2.5265	22.35718
2.527	4.73328
2.5275	-8.35876
2.528	-4.83398
2.5285	-9.97009
2.529	-10.17151
2.5295	-13.19275
2.53	-14.09912
2.5305	-12.08496
2.531	-15.00549
2.5315	-15.60974
2.532	1.51062
2.5325	13.69629
2.533	23.46497
2.5335	4.83398
2.534	-6.64673
2.5345	-20.24231
2.535	-37.46338
2.5355	-42.59949
2.536	-52.06604
2.5365	-59.82056
2.537	-62.43896
2.5375	-57.40356
2.538	-46.82922
2.5385	-44.41223
2.539	-37.7655
2.5395	-29.70886
2.54	-29.40674
2.5405	-37.7655
2.541	-28.60107
2.5415	-11.78284
2.542	-12.08496
2.5425	-10.37292
2.543	-6.94885
2.5435	-17.12036
2.544	-32.93152
2.5445	-45.52002
2.545	-43.30444
2.5455	-43.80798
2.546	-45.52002
2.5465	-41.79382
2.547	-36.95984
2.5475	-48.13843
2.548	-43.90869
2.5485	-45.62073
2.549	-51.05896
2.5495	-43.60657
2.55	-34.84497
2.5505	-25.98267
2.551	-27.29187
2.5515	-24.06921
2.552	-37.26196
2.5525	-45.72144
2.553	-62.53967
2.5535	-75.83313
2.554	-82.68127
2.5545	-70.99915
2.555	-45.52002
2.5555	-9.26514
2.556	16.91895
2.5565	35.95276
2.557	25.98267
2.5575	26.3855
2.558	30.2124
2.5585	33.73718
2.559	40.68604
2.5595	52.26746
2.56	62.23755
2.5605	64.25171
2.561	68.88428
2.5615	74.82605
2.562	97.98889
2.5625	120.44678
2.563	124.57581
2.5635	133.74023
2.564	121.65527
2.5645	104.63562
2.565	68.17932
2.5655	32.93152
2.566	5.84106
2.5665	2.5177
2.567	-6.54602
2.5675	23.46497
2.568	95.16907
2.5685	120.64819
2.569	117.02271
2.5695	97.98889
2.57	75.12817
2.5705	41.89453
2.571	2.92053
2.5715	-22.45789
2.572	-36.85913
2.5725	-51.46179
2.573	-55.69153
2.5735	-63.24463
2.574	-51.76392
2.5745	-42.29736
2.575	-6.04248
2.5755	30.71594
2.576	28.60107
2.5765	17.32178
2.577	-26.48621
2.5775	-44.51294
2.578	-37.96692
2.5785	-19.53735
2.579	-4.53186
2.5795	24.16992
2.58	29.80957
2.5805	26.18408
2.581	21.24939
2.5815	6.54602
2.582	9.46655
2.5825	18.53027
2.583	26.08337
2.5835	40.98816
2.584	55.18799
2.5845	63.94958
2.585	75.32959
2.5855	87.11243
2.586	90.93933
2.5865	90.13367
2.587	81.57349
2.5875	69.79065
2.588	60.92834
2.5885	44.41223
2.589	35.95276
2.5895	32.52869
2.59	33.13293
2.5905	33.9386
2.591	24.67346
2.5915	23.46497
2.592	16.81824
2.5925	12.28638
2.593	6.44531
2.5935	2.5177
2.594	2.5177
2.5945	3.7262
2.595	0.60425
2.5955	7.5531
2.596	15.81116
2.5965	13.49487
2.597	11.38
2.5975	12.68921
2.598	6.04248
2.5985	-5.63965
2.599	-11.07788
2.5995	-6.84814
2.6	-6.14319
2.6005	-4.63257
2.601	-12.78992
2.6015	-19.03381
2.602	-7.15027
2.6025	-1.2085
2.603	-5.63965
2.6035	-13.59558
2.604	-31.52161
2.6045	-59.61914
2.605	-85.19897
2.6055	-102.42004
2.606	-121.55457
2.6065	-129.91333
2.607	-124.57581
2.6075	-106.04553
2.608	-90.83862
2.6085	-78.35083
2.609	-72.20764
2.6095	-70.89844
2.61	-76.94092
2.6105	-59.1156
2.611	-40.78674
2.6115	-16.41541
2.612	1.51062
2.6125	8.35876
2.613	15.50903
2.6135	21.24939
2.614	3.62549
2.6145	-7.95593
2.615	-23.26355
2.6155	-8.96301
2.616	-4.63257
2.6165	9.76868
2.617	29.91028
2.6175	21.04797
2.618	-28.70178
2.6185	-95.06836
2.619	-142.80396
2.6195	-157.60803
2.62	-168.08167
2.6205	-151.26343
2.621	-117.02271
2.6215	-91.24146
2.622	-67.47437
2.6225	-52.8717
2.623	-29.50745
2.6235	4.53186
2.624	48.64197
2.6245	73.11401
2.625	72.00623
2.6255	57.10144
2.626	54.78516
2.6265	66.56799
2.627	67.97791
2.6275	69.38782
2.628	47.23206
2.6285	34.94568
2.629	23.96851
2.6295	36.95984
2.63	55.2887
2.6305	58.71277
2.631	76.53809
2.6315	99.2981
2.632	101.01013
2.6325	111.38306
2.633	122.86377
2.6335	128.70483
2.634	130.8197
2.6345	130.61829
2.635	124.67651
2.6355	126.48926
2.636	129.61121
2.6365	108.96606
2.637	93.65845
2.6375	92.24854
2.638	82.68127
2.6385	48.64197
2.639	17.32178
2.6395	-2.31628
2.64	-32.12585
2.6405	-64.95667
2.641	-70.29419
2.6415	-68.78357
2.642	-59.31702
2.6425	-50.15259
2.643	-31.72302
2.6435	-9.86938
2.644	0.30212
2.6445	-1.81274
2.645	-13.29346
2.6455	-16.41541
2.646	-9.66797
2.6465	-0.50354
2.647	-14.40125
2.6475	-44.61365
2.648	-73.81897
2.6485	-75.83313
2.649	-58.51135
2.6495	-61.83472
2.65	-78.65295
2.6505	-110.27527
2.651	-129.61121
2.6515	-127.39563
2.652	-111.8866
2.6525	-84.39331
2.653	-47.23206
2.6535	-20.74585
2.654	3.8269
2.6545	17.52319
2.655	40.1825
2.6555	65.86304
2.656	97.38464
2.6565	114.80713
2.657	123.97156
2.6575	138.27209
2.658	136.05652
2.6585	120.54749
2.659	103.02429
2.6595	87.61597
2.66	46.72852
2.6605	54.68445
2.661	119.13757
2.6615	142.40112
2.662	127.59705
2.6625	110.37598
2.663	82.9834
2.6635	47.53418
2.664	14.19983
2.6645	-9.86938
2.665	-27.39258
2.6655	-47.03064
2.666	-59.92126
2.6665	-76.94092
2.667	-71.80481
2.6675	-68.48145
2.668	-48.74268
2.6685	-68.07861
2.669	-103.02429
2.6695	-124.07227
2.67	-105.13916
2.6705	-52.67029
2.671	-17.42249
2.6715	14.40125
2.672	50.05188
2.6725	63.34534
2.673	47.7356
2.6735	30.91736
2.674	7.04956
2.6745	-1.71204
2.675	12.89062
2.6755	41.59241
2.676	60.52551
2.6765	78.85437
2.677	77.948
2.6775	65.05737
2.678	41.99524
2.6785	27.89612
2.679	20.04089
2.6795	31.21948
2.68	35.75134
2.6805	39.67896
2.681	47.23206
2.6815	36.65771
2.682	29.00391
2.6825	22.96143
2.683	23.06213
2.6835	34.84497
2.684	38.47046
2.6845	52.26746
2.685	26.28479
2.6855	-11.78284
2.686	-39.27612
2.6865	-66.56799
2.687	-76.03455
2.6875	-59.92126
2.688	-44.91577
2.6885	-36.95984
2.689	-36.55701
2.6895	-51.5625
2.69	-71.40198
2.6905	-75.63171
2.691	-73.31543
2.6915	-61.23047
2.692	-35.2478
2.6925	-25.27771
2.693	-28.19824
2.6935	-31.11877
2.694	-48.64197
2.6945	-81.47278
2.695	-106.04553
2.6955	-99.19739
2.696	-93.45703
2.6965	-83.18481
2.697	-64.35242
2.6975	-43.70728
2.698	-50.15259
2.6985	-86.00464
2.699	-118.2312
2.6995	-144.51599
2.7	-147.23511
2.7005	-130.41687
2.701	-91.24146
2.7015	-48.13843
2.702	-12.38708
2.7025	16.41541
2.703	30.61523
2.7035	49.95117
2.704	50.354
2.7045	55.59082
2.705	78.75366
2.7055	112.49084
2.706	148.24219
2.7065	167.77954
2.707	191.24451
2.7075	213.60168
2.708	220.24841
2.7085	217.22717
2.709	197.99194
2.7095	161.0321
2.71	82.78198
2.7105	-22.45789
2.711	-80.4657
2.7115	-113.1958
2.712	-125.18005
2.7125	-130.61829
2.713	-128.80554
2.7135	-111.8866
2.714	-89.73083
2.7145	-75.63171
2.715	-61.83472
2.7155	-44.91577
2.716	-9.26514
2.7165	9.66797
2.717	-68.28003
2.7175	-172.00928
2.718	-227.29797
2.7185	-185.90698
2.719	-123.66943
2.7195	-68.58215
2.72	-8.96301
2.7205	67.27295
2.721	95.67261
2.7215	90.5365
2.722	100.30518
2.7225	98.99597
2.723	74.52393
2.7235	44.21082
2.724	21.3501
2.7245	-0.70496
2.725	-38.67188
2.7255	-59.21631
2.726	-79.35791
2.7265	-74.12109
2.727	-66.06445
2.7275	-55.89294
2.728	-3.02124
2.7285	77.44446
2.729	153.78113
2.7295	206.85425
2.73	221.65833
2.7305	219.54346
2.731	217.5293
2.7315	213.70239
2.732	197.3877
2.7325	192.25159
2.733	202.4231
2.7335	193.56079
2.734	182.3822
2.7345	164.55688
2.735	136.35864
2.7355	124.27368
2.736	94.46411
2.7365	49.74976
2.737	25.07629
2.7375	44.31152
2.738	80.4657
2.7385	119.33899
2.739	151.46484
2.7395	160.02502
2.74	157.00378
2.7405	166.67175
2.741	164.45618
2.7415	155.39246
2.742	136.35864
2.7425	144.01245
2.743	150.45776
2.7435	157.30591
2.744	125.48218
2.7445	91.745
2.745	42.49878
2.7455	-75.22888
2.746	-197.79053
2.7465	-291.44897
2.747	-351.37024
2.7475	-388.43079
2.748	-355.59998
2.7485	-319.34509
2.749	-302.12402
2.7495	-249.85657
2.75	-152.27051
2.7505	-63.04321
2.751	15.1062
2.7515	99.49951
2.752	148.84644
2.7525	151.06201
2.753	157.60803
2.7535	147.73865
2.754	121.85669
2.7545	92.14783
2.755	76.84021
2.7555	68.38074
2.756	45.72144
2.7565	10.77576
2.757	-3.7262
2.7575	-10.77576
2.758	-34.24072
2.7585	-113.49792
2.759	-178.05176
2.7595	-179.76379
2.76	-163.34839
2.7605	-158.21228
2.761	-140.38696
2.7615	-132.53174
2.762	-128.20129
2.7625	-128.60413
2.763	-117.32483
2.7635	-110.87952
2.764	-99.2981
2.7645	-60.52551
2.765	-23.06213
2.7655	-1.81274
2.766	2.01416
2.7665	-38.16833
2.767	-73.91968
2.7675	-75.02747
2.768	-82.58057
2.7685	-63.64746
2.769	-73.41614
2.7695	-63.14392
2.77	-33.33435
2.7705	-34.34143
2.771	-11.58142
2.7715	-24.16992
2.772	-80.96924
2.7725	-72.50977
2.773	52.06604
2.7735	171.60645
2.774	227.39868
2.7745	215.81726
2.775	185.40344
2.7755	163.24768
2.776	153.98254
2.7765	143.50891
2.777	105.84412
2.7775	14.70337
2.778	-166.0675
2.7785	-346.53625
2.779	-535.7666
2.7795	-612.10327
2.78	-544.22607
2.7805	-445.02869
2.781	-368.28918
2.7815	-324.17908
2.782	-225.98877
2.7825	-82.88269
2.783	65.56091
2.7835	174.92981
2.784	242.20276
2.7845	264.0564
2.785	253.68347
2.7855	228.70789
2.786	201.71814
2.7865	158.71582
2.787	79.45862
2.7875	5.74036
2.788	-20.1416
2.7885	-24.06921
2.789	-7.5531
2.7895	17.22107
2.79	55.18799
2.7905	92.44995
2.791	124.87793
2.7915	169.18945
2.792	206.75354
2.7925	206.04858
2.793	186.91406
2.7935	156.50024
2.794	143.3075
2.7945	137.96997
2.795	135.75439
2.7955	115.41138
2.796	143.3075
2.7965	218.23425
2.797	257.8125
2.7975	264.55994
2.798	238.57727
2.7985	175.53406
2.799	131.42395
2.7995	133.23669
2.8	123.36731
2.8005	119.94324
2.801	206.35071
2.8015	261.94153
2.802	263.15002
2.8025	246.02966
2.803	187.51831
2.8035	112.99438
2.804	52.06604
2.8045	24.37134
2.805	-13.19275
2.8055	-54.98657
2.806	-103.72925
2.8065	-141.19263
2.807	-182.08008
2.8075	-188.52539
2.808	-216.52222
2.8085	-226.3916
2.809	-215.0116
2.8095	-183.5907
2.81	-144.41528
2.8105	-97.58606
2.811	-34.34143
2.8115	0.60425
2.812	38.67188
2.8125	80.66711
2.813	132.63245
2.8135	154.88892
2.814	165.36255
2.8145	183.89282
2.815	176.84326
2.8155	114.70642
2.816	48.74268
2.8165	5.13611
2.817	-35.14709
2.8175	-69.38782
2.818	-86.30676
2.8185	-79.45862
2.819	-77.34375
2.8195	-75.12817
2.82	-72.00623
2.8205	-84.99756
2.821	-87.91809
2.8215	-92.44995
2.822	-60.62622
2.8225	-31.72302
2.823	-103.32642
2.8235	-271.10596
2.824	-407.76672
2.8245	-475.64392
2.825	-436.46851
2.8255	-465.97595
2.826	-737.08191
2.8265	-837.78992
2.827	-792.57202
2.8275	-678.67126
2.828	-544.93103
2.8285	-391.35132
2.829	-212.19177
2.8295	-42.8009
2.83	169.08875
2.8305	323.67554
2.831	430.62744
2.8315	479.1687
2.832	494.47632
2.8325	454.99878
2.833	374.23096
2.8335	290.44189
2.834	187.51831
2.8345	66.16516
2.835	2.92053
2.8355	-22.35718
2.836	-19.53735
2.8365	13.89771
2.837	112.99438
2.8375	194.46716
2.838	268.58826
2.8385	331.02722
2.839	385.30884
2.8395	425.99487
2.84	446.53931
2.8405	409.07593
2.841	353.3844
2.8415	277.75269
2.842	188.6261
2.8425	109.4696
2.843	35.2478
2.8435	-9.46655
2.844	30.01099
2.8445	44.71436
2.845	12.78992
2.8455	-23.06213
2.846	-54.78516
2.8465	-8.56018
2.847	23.26355
2.8475	81.17065
2.848	161.0321
2.8485	271.00525
2.849	350.26245
2.8495	351.67236
2.85	288.32703
2.8505	235.35461
2.851	176.74255
2.8515	141.79688
2.852	117.22412
2.8525	75.12817
2.853	39.67896
2.8535	-18.63098
2.854	-97.48535
2.8545	-215.0116
2.855	-373.22388
2.8555	-469.0979
2.856	-479.26941
2.8565	-473.32764
2.857	-444.22302
2.8575	-365.57007
2.858	-285.91003
2.8585	-180.16663
2.859	-95.5719
2.8595	-21.95435
2.86	104.73633
2.8605	218.43567
2.861	264.86206
2.8615	282.9895
2.862	286.31287
2.8625	294.97375
2.863	234.24683
2.8635	108.76465
2.864	-34.24072
2.8645	-97.08252
2.865	-165.06042
2.8655	-229.51355
2.866	-177.64893
2.8665	-92.75208
2.867	-52.36816
2.8675	-14.80408
2.868	32.42798
2.8685	70.59631
2.869	92.55066
2.8695	68.07861
2.87	37.16125
2.8705	40.58533
2.871	77.34375
2.8715	138.97705
2.872	205.34363
2.8725	301.72119
2.873	400.11292
2.8735	459.93347
2.874	403.83911
2.8745	327.60315
2.875	301.41907
2.8755	258.01392
2.876	196.1792
2.8765	158.31299
2.877	128.80554
2.8775	82.78198
2.878	62.03613
2.8785	57.60498
2.879	66.87012
2.8795	78.14941
2.88	78.55225
2.8805	98.19031
2.881	103.62854
2.8815	103.52783
2.882	103.82996
2.8825	97.38464
2.883	96.98181
2.8835	108.96606
2.884	95.06836
2.8845	40.38391
2.885	-16.81824
2.8855	-56.19507
2.886	-98.39172
2.8865	-157.40662
2.887	-215.51514
2.8875	-252.67639
2.888	-262.24365
2.8885	-263.25073
2.889	-296.28296
2.8895	-306.35376
2.89	-347.64404
2.8905	-493.26782
2.891	-532.94678
2.8915	-494.77844
2.892	-448.25134
2.8925	-388.22937
2.893	-291.24756
2.8935	-148.24219
2.894	-35.65063
2.8945	41.69312
2.895	87.91809
2.8955	114.505
2.896	137.16431
2.8965	139.48059
2.897	110.98022
2.8975	64.25171
2.898	-9.66797
2.8985	-86.60889
2.899	-78.04871
2.8995	-17.22107
2.9	64.65454
2.9005	130.11475
2.901	141.39404
2.9015	129.91333
2.902	82.68127
2.9025	101.61438
2.903	171.30432
2.9035	220.75195
2.904	217.63
2.9045	182.78503
2.905	120.34607
2.9055	43.10303
2.906	22.86072
2.9065	34.03931
2.907	16.81824
2.9075	1.71204
2.908	-21.45081
2.9085	-32.52869
2.909	-44.11011
2.9095	-66.06445
2.91	-83.08411
2.9105	-94.76624
2.911	-96.98181
2.9115	-111.9873
2.912	-96.98181
2.9125	-57.9071
2.913	-22.15576
2.9135	-15.50903
2.914	-4.73328
2.9145	-11.98425
2.915	-30.01099
2.9155	-21.65222
2.916	27.09045
2.9165	62.9425
2.917	85.40039
2.9175	107.35474
2.918	127.69775
2.9185	130.21545
2.919	135.95581
2.9195	128.302
2.92	124.17297
2.9205	83.08411
2.921	-247.23816
2.9215	-493.56995
2.922	-607.4707
2.9225	-673.13232
2.923	-721.37146
2.9235	-683.10242
2.924	-494.77844
2.9245	-262.34436
2.925	-37.26196
2.9255	131.22253
2.926	264.0564
2.9265	361.23962
2.927	366.67786
2.9275	315.92102
2.928	246.4325
2.9285	184.39636
2.929	102.11792
2.9295	35.34851
2.93	1.3092
2.9305	18.12744
2.931	72.61047
2.9315	84.59473
2.932	55.79224
2.9325	31.52161
2.933	54.58374
2.9335	105.03845
2.934	140.58838
2.9345	221.15479
2.935	270.19958
2.9355	282.18384
2.936	219.64417
2.9365	125.98572
2.937	67.07153
2.9375	54.28162
2.938	61.12976
2.9385	69.89136
2.939	90.5365
2.9395	100.40588
2.94	98.69385
2.9405	70.59631
2.941	34.34143
2.9415	-16.3147
2.942	-176.64185
2.9425	-286.01074
2.943	-352.0752
2.9435	-370.10193
2.944	-316.22314
2.9445	-204.63867
2.945	-52.46887
2.9455	83.08411
2.946	208.86841
2.9465	280.87463
2.947	304.64172
2.9475	303.23181
2.948	270.19958
2.9485	196.38062
2.949	62.74109
2.9495	-96.67969
2.95	-209.77478
2.9505	-329.91943
2.951	-513.30872
2.9515	-702.43835
2.952	-903.45154
2.9525	-861.55701
2.953	-725.90332
2.9535	-598.10486
2.954	-461.5448
2.9545	-326.19324
2.955	-209.87549
2.9555	-86.40747
2.956	26.98975
2.9565	124.87793
2.957	236.05957
2.9575	285.30579
2.958	305.44739
2.9585	314.4104
2.959	322.66846
2.9595	306.65588
2.96	278.45764
2.9605	255.99976
2.961	293.16101
2.9615	388.33008
2.962	471.81702
2.9625	563.4613
2.963	598.30627
2.9635	542.11121
2.964	483.19702
2.9645	429.01611
2.965	398.90442
2.9655	359.93042
2.966	346.13342
2.9665	307.96509
2.967	214.81018
2.9675	76.94092
2.968	-45.82214
2.9685	-345.73059
2.969	-615.0238
2.9695	-714.3219
2.97	-669.90967
2.9705	-567.08679
2.971	-378.86353
2.9715	-188.82751
2.972	-62.13684
2.9725	4.63257
2.973	45.41931
2.9735	106.44836
2.974	80.06287
2.9745	-28.29895
2.975	-70.89844
2.9755	-31.32019
2.976	-25.57983
2.9765	-61.12976
2.977	20.94727
2.9775	234.04541
2.978	376.54724
2.9785	446.84143
2.979	419.04602
2.9795	332.43713
2.98	374.63379
2.9805	359.52759
2.981	286.21216
2.9815	226.89514
2.982	210.88257
2.9825	181.57654
2.983	122.86377
2.9835	-6.64673
2.984	-159.7229
2.9845	-204.73938
2.985	-278.65906
2.9855	-298.69995
2.986	-244.11621
2.9865	-138.87634
2.987	-74.82605
2.9875	-42.90161
2.988	-35.2478
2.9885	-31.11877
2.989	-68.28003
2.9895	-357.2113
2.99	-512.60376
2.9905	-520.25757
2.991	-485.91614
2.9915	-484.00269
2.992	-533.65173
2.9925	-573.63281
2.993	-511.8988
2.9935	-389.73999
2.994	-214.30664
2.9945	24.16992
2.995	242.10205
2.9955	335.86121
2.996	344.11926
2.9965	276.94702
2.997	234.64966
2.9975	227.49939
2.998	194.87
2.9985	92.44995
2.999	-33.73718
2.9995	-181.87866
3	-215.41443
3.0005	-215.0116
3.001	-203.32947
3.0015	-83.58765
3.002	45.01648
3.0025	122.15881
3.003	202.12097
3.0035	363.05237
3.004	494.57703
3.0045	584.20715
3.005	591.65955
3.0055	543.72253
3.006	430.42603
3.0065	263.25073
3.007	141.89758
3.0075	66.26587
3.008	49.34692
3.0085	67.77649
3.009	78.75366
3.0095	77.74658
3.01	42.90161
3.0105	-102.31934
3.011	-391.55273
3.0115	-467.68799
3.012	-543.42041
3.0125	-720.6665
3.013	-854.00391
3.0135	-823.38867
3.014	-679.57764
3.0145	-572.62573
3.015	-423.98071
3.0155	-289.83765
3.016	-377.05078
3.0165	-446.74072
3.017	-323.87695
3.0175	-144.41528
3.018	23.26355
3.0185	165.36255
3.019	258.61816
3.0195	352.47803
3.02	436.26709
3.0205	561.04431
3.021	696.09375
3.0215	788.94653
3.022	760.14404
3.0225	676.15356
3.023	570.71228
3.0235	483.39844
3.024	392.3584
3.0245	240.99426
3.025	19.43665
3.0255	-168.28308
3.026	-266.47339
3.0265	-361.03821
3.027	-415.0177
3.0275	-345.52917
3.028	-242.30347
3.0285	-266.6748
3.029	-404.74548
3.0295	-627.81372
3.03	-748.15979
3.0305	-757.22351
3.031	-687.03003
3.0315	-552.98767
3.032	-352.37732
3.0325	-120.54749
3.033	87.41455
3.0335	263.04932
3.034	434.35364
3.0345	550.16785
3.035	655.50842
3.0355	692.06543
3.036	646.34399
3.0365	609.8877
3.037	555.40466
3.0375	455.3009
3.038	371.0083
3.0385	358.21838
3.039	410.28442
3.0395	501.12305
3.04	599.31335
3.0405	607.97424
3.041	557.1167
3.0415	526.70288
3.042	475.4425
3.0425	397.29309
3.043	326.49536
3.0435	286.51428
3.044	242.40417
3.0445	206.35071
3.045	246.4325
3.0455	303.0304
3.046	307.46155
3.0465	190.03601
3.047	-60.52551
3.0475	-437.17346
3.048	-986.13281
3.0485	-1172.94617
3.049	-1099.73145
3.0495	-913.62305
3.05	-729.4281
3.0505	-492.56287
3.051	-360.03113
3.0515	-224.78027
3.052	-123.36731
3.0525	0.10071
3.053	31.01807
3.0535	61.53259
3.054	23.06213
3.0545	-106.54907
3.055	-202.5238
3.0555	-238.27515
3.056	-247.7417
3.0565	-249.95728
3.057	-604.75159
3.0575	-862.06055
3.058	-885.4248
3.0585	-769.10706
3.059	-590.04822
3.0595	-277.75269
3.06	51.66321
3.0605	335.05554
3.061	532.04041
3.0615	675.54932
3.062	811.203
3.0625	793.27698
3.063	627.71301
3.0635	431.93665
3.064	344.72351
3.0645	350.56458
3.065	378.05786
3.0655	382.18689
3.066	447.64709
3.0665	506.25916
3.067	467.58728
3.0675	439.59045
3.068	393.96973
3.0685	363.15308
3.069	380.67627
3.0695	452.98462
3.07	502.43225
3.0705	530.22766
3.071	482.59277
3.0715	396.38672
3.072	366.57715
3.0725	369.7998
3.073	356.50635
3.0735	252.07214
3.074	124.17297
3.0745	-16.81824
3.075	-142.80396
3.0755	-229.11072
3.076	-286.61499
3.0765	-390.44495
3.077	-497.79968
3.0775	-547.75085
3.078	-528.11279
3.0785	-456.91223
3.079	-394.47327
3.0795	-361.64246
3.08	-321.86279
3.0805	-284.80225
3.081	-228.20435
3.0815	-223.8739
3.082	-175.83618
3.0825	-51.76392
3.083	2.71912
3.0835	113.59863
3.084	199.30115
3.0845	242.10205
3.085	198.09265
3.0855	119.84253
3.086	7.95593
3.0865	-146.22803
3.087	-217.5293
3.0875	-170.19653
3.088	-67.37366
3.0885	63.34534
3.089	140.48767
3.0895	219.34204
3.09	256.10046
3.0905	198.6969
3.091	96.67969
3.0915	62.9425
3.092	165.46326
3.0925	274.93286
3.093	347.84546
3.0935	341.50085
3.094	239.08081
3.0945	148.04077
3.095	45.82214
3.0955	-51.26038
3.096	-69.89136
3.0965	-16.41541
3.097	22.6593
3.0975	62.03613
3.098	67.57507
3.0985	40.08179
3.099	27.19116
3.0995	26.88904
3.1	-128.10059
3.1005	-174.12415
3.101	-202.12097
3.1015	-383.69751
3.102	-409.07593
3.1025	-315.7196
3.103	-189.23035
3.1035	-54.88586
3.104	98.89526
3.1045	230.62134
3.105	344.32068
3.1055	431.23169
3.106	384.60388
3.1065	249.35303
3.107	-5.53894
3.1075	-237.26807
3.108	-329.5166
3.1085	-383.29468
3.109	-458.22144
3.1095	-477.15454
3.11	-417.83752
3.1105	-302.22473
3.111	-181.97937
3.1115	-38.87329
3.112	77.74658
3.1125	160.72998
3.113	206.75354
3.1135	260.43091
3.114	309.57642
3.1145	358.62122
3.115	319.34509
3.1155	226.3916
3.116	117.12341
3.1165	43.70728
3.117	-72.71118
3.1175	-165.16113
3.118	-245.52612
3.1185	-317.33093
3.119	-366.07361
3.1195	-540.09705
3.12	-882.60498
3.1205	-1093.08472
3.121	-1153.71094
3.1215	-1024.60327
3.122	-766.38794
3.1225	-460.73914
3.123	-165.9668
3.1235	83.88977
3.124	273.72437
3.1245	482.79419
3.125	580.78308
3.1255	545.93811
3.126	390.74707
3.1265	235.45532
3.127	150.65918
3.1275	26.58691
3.128	-116.61987
3.1285	-215.81726
3.129	-313.1012
3.1295	-305.95093
3.13	-172.41211
3.1305	-24.57275
3.131	80.16357
3.1315	86.00464
3.132	-131.92749
3.1325	-415.92407
3.133	-696.19446
3.1335	-857.7301
3.134	-899.72534
3.1345	-813.31787
3.135	-665.17639
3.1355	-470.91064
3.136	-247.03674
3.1365	-69.89136
3.137	99.90234
3.1375	336.96899
3.138	557.72095
3.1385	676.5564
3.139	757.02209
3.1395	756.31714
3.14	755.41077
3.1405	717.74597
3.141	718.45093
3.1415	724.89624
3.142	730.53589
3.1425	749.87183
3.143	842.82532
3.1435	944.84253
3.144	978.3783
3.1445	936.08093
3.145	843.53027
3.1455	774.04175
3.146	745.84351
3.1465	709.38721
3.147	661.34949
3.1475	628.31726
3.148	587.73193
3.1485	520.96252
3.149	422.26868
3.1495	309.67712
3.15	208.06274
3.1505	125.58289
3.151	66.87012
3.1515	16.01257
3.152	-17.6239
3.1525	-21.14868
3.153	-17.52319
3.1535	-25.68054
3.154	-41.08887
3.1545	-67.27295
3.155	-88.72375
3.1555	-96.7804
3.156	-100.70801
3.1565	-125.18005
3.157	-145.22095
3.1575	-158.5144
3.158	-162.84485
3.1585	-180.56946
3.159	-225.58594
3.1595	-263.65356
3.16	-255.79834
3.1605	-228.40576
3.161	-210.47974
3.1615	-211.18469
3.162	-190.13672
3.1625	-185.70557
3.163	-166.0675
3.1635	-154.18396
3.164	-151.46484
3.1645	-143.4082
3.165	-141.29333
3.1655	-137.36572
3.166	-169.29016
3.1665	-178.05176
3.167	-106.14624
3.1675	-34.24072
3.168	37.86621
3.1685	123.87085
3.169	158.81653
3.1695	112.69226
3.17	-3.8269
3.1705	-100.10376
3.171	-127.39563
3.1715	-161.43494
3.172	-225.0824
3.1725	-303.0304
3.173	-362.34741
3.1735	-402.02637
3.174	-437.47559
3.1745	-469.80286
3.175	-456.20728
3.1755	-414.11133
3.176	-394.77539
3.1765	-404.9469
3.177	-431.63452
3.1775	-452.6825
3.178	-516.02783
3.1785	-547.44873
3.179	-538.68713
3.1795	-439.08691
3.18	-318.94226
3.1805	-196.27991
3.181	-70.19348
3.1815	39.98108
3.182	156.29883
3.1825	241.19568
3.183	294.16809
3.1835	344.92493
3.184	378.76282
3.1845	348.04688
3.185	287.01782
3.1855	186.00769
3.186	150.75989
3.1865	204.53796
3.187	210.68115
3.1875	138.17139
3.188	-13.29346
3.1885	-205.74646
3.189	-386.21521
3.1895	-813.01575
3.19	-1327.83508
3.1905	-1435.29053
3.191	-1388.56201
3.1915	-1303.86658
3.192	-1090.96985
3.1925	-935.77881
3.193	-752.38953
3.1935	-449.66125
3.194	-58.61206
3.1945	277.04773
3.195	568.89954
3.1955	753.09448
3.196	803.85132
3.1965	757.42493
3.197	501.52588
3.1975	196.1792
3.198	91.745
3.1985	97.18323
3.199	112.28943
3.1995	166.0675
3.2	196.27991
3.2005	211.78894
3.201	150.45776
3.2015	182.28149
3.202	191.24451
3.2025	214.81018
3.203	247.03674
3.2035	238.47656
3.204	173.41919
3.2045	132.12891
3.205	89.12659
3.2055	-8.15735
3.206	-84.69543
3.2065	-93.85986
3.207	-59.41772
3.2075	-1.40991
3.208	90.83862
3.2085	177.54822
3.209	273.22083
3.2095	324.58191
3.21	368.08777
3.2105	403.23486
3.211	449.45984
3.2115	512.10022
3.212	538.2843
3.2125	482.8949
3.213	391.85486
3.2135	327.80457
3.214	302.62756
3.2145	270.19958
3.215	252.97852
3.2155	240.49072
3.216	191.44592
3.2165	142.60254
3.217	101.11084
3.2175	103.93066
3.218	105.6427
3.2185	114.90784
3.219	132.93457
3.2195	49.54834
3.22	21.14868
3.2205	48.54126
3.221	75.02747
3.2215	121.55457
3.222	169.7937
3.2225	198.6969
3.223	224.37744
3.2235	280.67322
3.224	339.38599
3.2245	371.41113
3.225	372.61963
3.2255	323.27271
3.226	256.70471
3.2265	186.71265
3.227	104.4342
3.2275	-27.79541
3.228	-173.21777
3.2285	-249.85657
3.229	-253.9856
3.2295	-212.89673
3.23	-170.09583
3.2305	-143.20679
3.231	-116.01562
3.2315	-109.87244
3.232	-92.24854
3.2325	-74.42322
3.233	-93.35632
3.2335	-124.87793
3.234	-179.96521
3.2345	-234.44824
3.235	-292.75818
3.2355	-348.85254
3.236	-378.96423
3.2365	-348.75183
3.237	-274.93286
3.2375	-177.85034
3.238	-83.28552
3.2385	5.33752
3.239	91.24146
3.2395	151.96838
3.24	202.92664
3.2405	212.5946
3.241	155.896
3.2415	92.85278
3.242	14.09912
3.2425	-63.54675
3.243	-165.06042
3.2435	-255.09338
3.244	-312.09412
3.2445	-329.61731
3.245	-285.80933
3.2455	-234.64966
3.246	-197.68982
3.2465	-174.12415
3.247	-145.9259
3.2475	-142.90466
3.248	-201.41602
3.2485	-265.66772
3.249	-304.84314
3.2495	-355.70068
3.25	-397.49451
3.2505	-390.24353
3.251	-366.87927
3.2515	-315.01465
3.252	-235.45532
3.2525	-169.69299
3.253	-118.73474
3.2535	-52.26746
3.254	6.04248
3.2545	46.22498
3.255	24.27063
3.2555	-168.98804
3.256	-420.0531
3.2565	-512.50305
3.257	-447.84851
3.2575	-359.12476
3.258	-288.22632
3.2585	-183.89282
3.259	-31.72302
3.2595	87.51526
3.26	176.23901
3.2605	241.79993
3.261	313.70544
3.2615	326.79749
3.262	291.95251
3.2625	227.70081
3.263	148.4436
3.2635	59.92126
3.264	-23.16284
3.2645	-71.80481
3.265	-112.28943
3.2655	-201.91956
3.266	-270.19958
3.2665	-232.43408
3.267	-193.05725
3.2675	-125.58289
3.268	-43.10303
3.2685	46.72852
3.269	176.54114
3.2695	273.12012
3.27	336.76758
3.2705	371.0083
3.271	379.06494
3.2715	332.83997
3.272	252.7771
3.2725	164.7583
3.273	85.19897
3.2735	-191.74805
3.274	-423.88
3.2745	-516.53137
3.275	-563.25989
3.2755	-593.27087
3.276	-554.39758
3.2765	-393.06335
3.277	-177.74963
3.2775	18.22815
3.278	95.16907
3.2785	14.30054
3.279	-44.51294
3.2795	-32.02515
3.28	80.56641
3.2805	230.92346
3.281	416.42761
3.2815	519.3512
3.282	589.14185
3.2825	630.83496
3.283	631.03638
3.2835	536.87439
3.284	377.45361
3.2845	306.05164
3.285	291.14685
3.2855	246.63391
3.286	170.09583
3.2865	70.49561
3.287	-23.36426
3.2875	-84.69543
3.288	-36.75842
3.2885	59.51843
3.289	116.922
3.2895	104.23279
3.29	33.63647
3.2905	-81.06995
3.291	-224.57886
3.2915	-273.62366
3.292	-265.76843
3.2925	-205.14221
3.293	-106.64978
3.2935	-20.84656
3.294	38.974
3.2945	33.23364
3.295	-22.6593
3.2955	-50.2533
3.296	-76.13525
3.2965	-74.92676
3.297	-44.11011
3.2975	-30.11169
3.298	-15.40833
3.2985	27.99683
3.299	38.26904
3.2995	44.81506
3.3	59.31702
3.3005	93.96057
3.301	160.52856
3.3015	218.33496
3.302	183.89282
3.3025	139.37988
3.303	69.89136
3.3035	-76.7395
3.304	-343.01147
3.3045	-546.64307
3.305	-629.22363
3.3055	-626.50452
3.306	-571.51794
3.3065	-361.94458
3.307	-100.50659
3.3075	89.52942
3.308	212.79602
3.3085	294.77234
3.309	371.91467
3.3095	440.69824
3.31	463.05542
3.3105	445.2301
3.311	396.68884
3.3115	274.83215
3.312	135.15015
3.3125	-23.06213
3.313	-201.01318
3.3135	-334.04846
3.314	-380.37415
3.3145	-372.82104
3.315	-289.13269
3.3155	-138.17139
3.316	12.28638
3.3165	143.71033
3.317	265.46631
3.3175	325.79041
3.318	363.05237
3.3185	388.43079
3.319	393.16406
3.3195	380.47485
3.32	324.27979
3.3205	202.5238
3.321	49.95117
3.3215	-66.97083
3.322	-105.03845
3.3225	-103.82996
3.323	-66.36658
3.3235	-67.17224
3.324	-69.48853
3.3245	-73.21472
3.325	-121.9574
3.3255	-209.9762
3.326	-256.30188
3.3265	-243.20984
3.327	-191.74805
3.3275	-126.58997
3.328	-77.04163
3.3285	-22.55859
3.329	24.06921
3.3295	82.58057
3.33	114.505
3.3305	88.22021
3.331	67.37366
3.3315	22.05505
3.332	-74.42322
3.3325	-175.63477
3.333	-233.13904
3.3335	-223.77319
3.334	-167.67883
3.3345	-159.21936
3.335	-132.22961
3.3355	-77.54517
3.336	-75.93384
3.3365	-157.50732
3.337	-257.30896
3.3375	-344.92493
3.338	-415.0177
3.3385	-399.81079
3.339	-306.8573
3.3395	-215.71655
3.34	-148.04077
3.3405	-62.53967
3.341	52.16675
3.3415	159.62219
3.342	188.52539
3.3425	177.04468
3.343	164.45618
3.3435	72.00623
3.344	-145.8252
3.3445	-247.33887
3.345	-299.90845
3.3455	-292.85889
3.346	-186.41052
3.3465	-39.88037
3.347	107.95898
3.3475	168.28308
3.348	184.79919
3.3485	213.09814
3.349	285.40649
3.3495	367.2821
3.35	392.66052
3.3505	382.08618
3.351	390.64636
3.3515	397.09167
3.352	408.27026
3.3525	431.83594
3.353	402.93274
3.3535	42.90161
3.354	-275.93994
3.3545	-403.23486
3.355	-447.14355
3.3555	-437.37488
3.356	-365.57007
3.3565	-236.16028
3.357	-86.60889
3.3575	114.80713
3.358	286.31287
3.3585	446.84143
3.359	544.32678
3.3595	561.14502
3.36	526.50146
3.3605	475.03967
3.361	419.44885
3.3615	369.7998
3.362	288.72986
3.3625	187.11548
3.363	89.02588
3.3635	-23.96851
3.364	-92.44995
3.3645	-114.00146
3.365	-118.83545
3.3655	-96.37756
3.366	-111.68518
3.3665	-153.78113
3.367	-101.11084
3.3675	-41.59241
3.368	22.45789
3.3685	77.74658
3.369	119.84253
3.3695	157.70874
3.37	203.22876
3.3705	225.88806
3.371	275.23499
3.3715	319.64722
3.372	311.8927
3.3725	210.47974
3.373	65.25879
3.3735	-66.6687
3.374	-178.45459
3.3745	-307.26013
3.375	-400.61646
3.3755	-427.50549
3.376	-382.08618
3.3765	-319.64722
3.377	-270.09888
3.3775	-334.65271
3.378	-401.01929
3.3785	-372.51892
3.379	-297.29004
3.3795	-226.49231
3.38	-179.76379
3.3805	-120.44678
3.381	-84.89685
3.3815	-151.56555
3.382	-264.25781
3.3825	-265.46631
3.383	-244.51904
3.3835	-315.7196
3.384	-418.7439
3.3845	-451.67542
3.385	-474.83826
3.3855	-440.89966
3.386	-380.37415
3.3865	-239.48364
3.387	-76.94092
3.3875	48.13843
3.388	124.57581
3.3885	78.95508
3.389	-95.97473
3.3895	-325.08545
3.39	-468.99719
3.3905	-506.7627
3.391	-473.83118
3.3915	-359.6283
3.392	-217.42859
3.3925	-171.30432
3.393	-429.01611
3.3935	-1007.18079
3.394	-1272.84851
3.3945	-1157.13501
3.395	-938.39722
3.3955	-616.33301
3.396	-191.54663
3.3965	243.61267
3.397	583.40149
3.3975	880.79224
3.398	1079.38843
3.3985	1156.73218
3.399	1115.44189
3.3995	1061.36169
3.4	954.5105
3.4005	766.08582
3.401	564.97192
3.4015	512.90588
3.402	597.90344
3.4025	710.69641
3.403	766.69006
3.4035	763.3667
3.404	691.76331
3.4045	579.17175
3.405	536.67297
3.4055	508.77686
3.406	475.03967
3.4065	351.67236
3.407	230.21851
3.4075	189.12964
3.408	161.93848
3.4085	127.39563
3.409	126.69067
3.4095	152.97546
3.41	211.2854
3.4105	251.4679
3.411	269.79675
3.4115	203.02734
3.412	40.68604
3.4125	-175.63477
3.413	-305.44739
3.4135	-309.17358
3.414	-282.68738
3.4145	-250.76294
3.415	-200.61035
3.4155	-173.01636
3.416	-127.79846
3.4165	-39.57825
3.417	35.44922
3.4175	117.52625
3.418	94.06128
3.4185	-233.03833
3.419	-415.62195
3.4195	-473.22693
3.42	-506.05774
3.4205	-471.31348
3.421	-332.0343
3.4215	-121.15173
3.422	153.68042
3.4225	342.30652
3.423	454.19312
3.4235	473.02551
3.424	403.7384
3.4245	332.73926
3.425	272.41516
3.4255	213.19885
3.426	115.20996
3.4265	2.21558
3.427	-59.82056
3.4275	-86.50818
3.428	-84.49402
3.4285	-48.84338
3.429	-11.17859
3.4295	11.17859
3.43	41.08887
3.4305	85.80322
3.431	81.7749
3.4315	16.3147
3.432	-90.63721
3.4325	-138.17139
3.433	-129.10767
3.4335	-125.88501
3.434	-101.71509
3.4345	-91.64429
3.435	-83.78906
3.4355	-59.41772
3.436	-21.85364
3.4365	12.38708
3.437	62.9425
3.4375	81.17065
3.438	86.70959
3.4385	74.02039
3.439	10.47363
3.4395	-35.2478
3.44	-59.41772
3.4405	-64.55383
3.441	-80.16357
3.4415	-158.71582
3.442	-368.28918
3.4425	-572.92786
3.443	-690.15198
3.4435	-851.28479
3.444	-1018.86292
3.4445	-1130.6488
3.445	-1043.13354
3.4455	-832.35168
3.446	-542.11121
3.4465	-200.50964
3.447	110.07385
3.4475	353.58582
3.448	545.13245
3.4485	665.17639
3.449	670.11108
3.4495	617.4408
3.45	453.89099
3.4505	291.34827
3.451	182.98645
3.4515	92.75208
3.452	77.34375
3.4525	135.75439
3.453	239.98718
3.4535	300.10986
3.454	294.16809
3.4545	244.31763
3.455	175.73547
3.4555	98.49243
3.456	61.53259
3.4565	49.24622
3.457	27.89612
3.4575	1.00708
3.458	-2.81982
3.4585	16.51611
3.459	40.1825
3.4595	59.31702
3.46	61.23047
3.4605	55.2887
3.461	-9.26514
3.4615	-157.80945
3.462	-275.33569
3.4625	-291.34827
3.463	-280.37109
3.4635	-275.03357
3.464	-256.70471
3.4645	-216.72363
3.465	-115.31067
3.4655	-67.8772
3.466	-56.69861
3.4665	-13.59558
3.467	66.76941
3.4675	152.57263
3.468	226.29089
3.4685	271.20667
3.469	309.67712
3.4695	313.30261
3.47	251.4679
3.4705	148.04077
3.471	93.35632
3.4715	38.974
3.472	25.47913
3.4725	-15.60974
3.473	-96.7804
3.4735	-206.55212
3.474	-377.35291
3.4745	-614.11743
3.475	-808.18176
3.4755	-840.91187
3.476	-858.53577
3.4765	-806.87256
3.477	-655.91125
3.4775	-490.64941
3.478	-352.57874
3.4785	-178.5553
3.479	34.94568
3.4795	237.26807
3.48	350.66528
3.4805	414.01062
3.481	434.05151
3.4815	393.56689
3.482	278.05481
3.4825	173.92273
3.483	67.47437
3.4835	-68.78357
3.484	-139.88342
3.4845	-87.61597
3.485	23.66638
3.4855	137.66785
3.486	235.95886
3.4865	316.42456
3.487	382.48901
3.4875	432.54089
3.488	466.88232
3.4885	477.15454
3.489	429.62036
3.4895	258.51746
3.49	-139.17847
3.4905	-450.76904
3.491	-705.35889
3.4915	-817.84973
3.492	-802.3407
3.4925	-692.36755
3.493	-513.30872
3.4935	-258.11462
3.494	8.66089
3.4945	292.85889
3.495	582.79724
3.4955	689.64844
3.496	605.55725
3.4965	507.87048
3.497	426.09558
3.4975	380.87769
3.498	383.49609
3.4985	375.33875
3.499	305.04456
3.4995	125.48218
3.5	-41.29028
3.5005	-89.02588
3.501	-86.60889
3.5015	-54.38232
3.502	27.79541
3.5025	103.42712
3.503	149.75281
3.5035	164.65759
3.504	46.32568
3.5045	-60.92834
3.505	-135.95581
3.5055	-201.61743
3.506	-202.92664
3.5065	-180.16663
3.507	-159.21936
3.5075	-115.10925
3.508	-62.9425
3.5085	19.03381
3.509	168.08167
3.5095	275.73853
3.51	331.43005
3.5105	323.172
3.511	282.28455
3.5115	203.43018
3.512	176.23901
3.5125	215.81726
3.513	255.39551
3.5135	270.30029
3.514	283.99658
3.5145	268.99109
3.515	225.0824
3.5155	202.32239
3.516	187.71973
3.5165	153.68042
3.517	65.05737
3.5175	-103.02429
3.518	-319.04297
3.5185	-447.24426
3.519	-504.84924
3.5195	-512.40234
3.52	-450.06409
3.5205	-376.64795
3.521	-281.27747
3.5215	-197.99194
3.522	-153.88184
3.5225	-133.23669
3.523	-151.36414
3.5235	-163.75122
3.524	-135.65369
3.5245	-73.41614
3.525	-14.90479
3.5255	26.78833
3.526	40.58533
3.5265	50.354
3.527	50.85754
3.5275	79.2572
3.528	41.59241
3.5285	-214.30664
3.529	-469.90356
3.5295	-596.59424
3.53	-599.51477
3.5305	-583.60291
3.531	-515.32288
3.5315	-465.77454
3.532	-449.45984
3.5325	-444.52515
3.533	-541.60767
3.5335	-517.23633
3.534	-384.50317
3.5345	-235.75745
3.535	-134.84802
3.5355	-59.41772
3.536	-88.72375
3.5365	-439.18762
3.537	-758.63342
3.5375	-741.00952
3.538	-477.35596
3.5385	-147.94006
3.539	172.10999
3.5395	440.39612
3.54	583.90503
3.5405	632.84912
3.541	775.55237
3.5415	889.75525
3.542	968.50891
3.5425	1007.28149
3.543	922.08252
3.5435	733.55713
3.544	410.38513
3.5445	111.68518
3.545	-95.5719
3.5455	-215.0116
3.546	-335.05554
3.5465	-472.62268
3.547	-516.63208
3.5475	-466.37878
3.548	-366.97998
3.5485	-260.73303
3.549	-62.33826
3.5495	168.38379
3.55	361.03821
3.5505	495.18127
3.551	576.75476
3.5515	574.23706
3.552	530.42908
3.5525	368.69202
3.553	244.21692
3.5535	-22.05505
3.554	-314.51111
3.5545	-486.52039
3.555	-538.18359
3.5555	-448.85559
3.556	-245.42542
3.5565	34.54285
3.557	274.83215
3.5575	491.95862
3.558	661.85303
3.5585	667.29126
3.559	429.51965
3.5595	170.80078
3.56	-23.46497
3.5605	-123.46802
3.561	-166.36963
3.5615	-92.24854
3.562	57.8064
3.5625	225.78735
3.563	339.5874
3.5635	454.39453
3.564	513.1073
3.5645	540.60059
3.565	538.48572
3.5655	443.41736
3.566	296.28296
3.5665	107.15332
3.567	-54.88586
3.5675	-107.05261
3.568	-109.67102
3.5685	-67.37366
3.569	41.18958
3.5695	135.45227
3.57	225.98877
3.5705	277.14844
3.571	254.0863
3.5715	223.06824
3.572	198.59619
3.5725	163.75122
3.573	128.90625
3.5735	78.14941
3.574	7.65381
3.5745	-41.08887
3.575	-50.2533
3.5755	-39.47754
3.576	-71.80481
3.5765	-111.18164
3.577	-129.20837
3.5775	-145.01953
3.578	-111.68518
3.5785	-26.08337
3.579	92.14783
3.5795	186.61194
3.58	235.65674
3.5805	260.93445
3.581	255.2948
3.5815	188.32397
3.582	76.63879
3.5825	-88.32092
3.583	-320.45288
3.5835	-544.42749
3.584	-750.17395
3.5845	-1118.16101
3.585	-1304.77295
3.5855	-1335.5896
3.586	-1281.81152
3.5865	-1099.1272
3.587	-815.83557
3.5875	-535.16235
3.588	-309.57642
3.5885	-69.28711
3.589	131.52466
3.5895	280.97534
3.59	283.39233
3.5905	74.52393
3.591	-403.83911
3.5915	-952.59705
3.592	-1327.53296
3.5925	-1395.81299
3.593	-1251.09558
3.5935	-875.85754
3.594	-494.37561
3.5945	-189.63318
3.595	-11.68213
3.5955	50.75684
3.596	140.68909
3.5965	258.92029
3.597	338.58032
3.5975	443.61877
3.598	376.34583
3.5985	-17.52319
3.599	-253.07922
3.5995	-365.16724
3.6	-110.27527
3.6005	353.3844
3.601	755.71289
3.6015	1055.92346
3.602	1242.43469
3.6025	1209.30176
3.603	1012.4176
3.6035	818.95752
3.604	733.65784
3.6045	731.14014
3.605	687.53357
3.6055	625.90027
3.606	601.42822
3.6065	572.2229
3.607	578.16467
3.6075	616.73584
3.608	664.37073
3.6085	716.73889
3.609	781.19202
3.6095	821.67664
3.61	775.55237
3.6105	625.29602
3.611	457.51648
3.6115	320.85571
3.612	184.49707
3.6125	-22.05505
3.613	-613.31177
3.6135	-1179.89502
3.614	-1385.33936
3.6145	-1323.30322
3.615	-1133.97217
3.6155	-840.50903
3.616	-517.23633
3.6165	-180.97229
3.617	143.20679
3.6175	424.38354
3.618	588.5376
3.6185	652.89001
3.619	626.3031
3.6195	514.71863
3.62	388.43079
3.6205	295.07446
3.621	258.81958
3.6215	205.44434
3.622	150.55847
3.6225	79.55933
3.623	47.23206
3.6235	64.151
3.624	-1.61133
3.6245	-73.81897
3.625	-115.7135
3.6255	-129.5105
3.626	-102.82288
3.6265	-26.68762
3.627	63.14392
3.6275	163.95264
3.628	235.1532
3.6285	303.0304
3.629	301.8219
3.6295	317.93518
3.63	323.57483
3.6305	269.29321
3.631	45.41931
3.6315	-353.98865
3.632	-635.76965
3.6325	-731.14014
3.633	-672.8302
3.6335	-618.24646
3.634	-523.68164
3.6345	-414.51416
3.635	-402.63062
3.6355	-380.57556
3.636	-383.79822
3.6365	-483.70056
3.637	-464.86816
3.6375	-358.52051
3.638	-222.76611
3.6385	-77.34375
3.639	28.50037
3.6395	107.85828
3.64	184.59778
3.6405	201.71814
3.641	238.17444
3.6415	263.55286
3.642	250.56152
3.6425	153.479
3.643	23.66638
3.6435	5.23682
3.644	-40.98816
3.6445	-160.62927
3.645	-213.29956
3.6455	-242.20276
3.646	-235.65674
3.6465	-190.64026
3.647	-261.43799
3.6475	-383.69751
3.648	-389.23645
3.6485	-376.74866
3.649	-384.50317
3.6495	-299.60632
3.65	-195.27283
3.6505	-151.26343
3.651	-81.97632
3.6515	-8.66089
3.652	43.80798
3.6525	66.97083
3.653	83.18481
3.6535	93.55774
3.654	111.18164
3.6545	162.03918
3.655	202.12097
3.6555	129.61121
3.656	-1.00708
3.6565	-72.61047
3.657	-130.21545
3.6575	-167.88025
3.658	-152.57263
3.6585	-140.18555
3.659	-187.31689
3.6595	-319.74792
3.66	-888.14392
3.6605	-1310.11047
3.661	-1470.43762
3.6615	-1554.62952
3.662	-1312.72888
3.6625	-866.59241
3.663	-433.95081
3.6635	-65.46021
3.664	298.49854
3.6645	657.01904
3.665	1055.72205
3.6655	1367.61475
3.666	1549.79553
3.6665	1551.50757
3.667	1380.9082
3.6675	1244.85168
3.668	1212.82654
3.6685	1129.94385
3.669	1032.25708
3.6695	894.68994
3.67	774.04175
3.6705	683.40454
3.671	583.30078
3.6715	492.16003
3.672	432.44019
3.6725	403.33557
3.673	406.2561
3.6735	411.2915
3.674	400.61646
3.6745	367.2821
3.675	334.04846
3.6755	301.01624
3.676	246.13037
3.6765	132.22961
3.677	-39.77966
3.6775	-169.18945
3.678	-229.71497
3.6785	-241.79993
3.679	-239.18152
3.6795	-230.1178
3.68	-197.99194
3.6805	-171.20361
3.681	-135.95581
3.6815	-91.94641
3.682	-47.13135
3.6825	-34.34143
3.683	-24.06921
3.6835	-34.54285
3.684	-86.10535
3.6845	-126.9928
3.685	-163.34839
3.6855	-222.06116
3.686	-364.96582
3.6865	-550.36926
3.687	-605.55725
3.6875	-578.16467
3.688	-502.23083
3.6885	-361.44104
3.689	-220.65125
3.6895	-113.49792
3.69	-45.52002
3.6905	7.35168
3.691	38.57117
3.6915	18.93311
3.692	-54.98657
3.6925	-170.39795
3.693	-233.23975
3.6935	-276.94702
3.694	-346.33484
3.6945	-436.77063
3.695	-423.37646
3.6955	-363.25378
3.696	-290.34119
3.6965	-209.57336
3.697	-118.53333
3.6975	-110.98022
3.698	-138.87634
3.6985	-125.38147
3.699	-92.04712
3.6995	-57.40356
3.7	-18.22815
3.7005	-22.55859
3.701	-13.69629
3.7015	-9.56726
3.702	-83.18481
3.7025	-95.67261
3.703	-13.19275
3.7035	63.94958
3.704	108.56323
3.7045	198.39478
3.705	319.64722
3.7055	351.37024
3.706	282.38525
3.7065	269.99817
3.707	259.42383
3.7075	208.36487
3.708	172.41211
3.7085	111.78589
3.709	13.69629
3.7095	-143.20679
3.71	-209.67407
3.7105	-179.76379
3.711	-132.63245
3.7115	-58.30994
3.712	49.95117
3.7125	147.33582
3.713	155.39246
3.7135	123.87085
3.714	56.19507
3.7145	-48.74268
3.715	-138.47351
3.7155	-379.36707
3.716	-716.33606
3.7165	-869.51294
3.717	-849.27063
3.7175	-732.65076
3.718	-571.31653
3.7185	-461.04126
3.719	-379.36707
3.7195	-391.1499
3.72	-293.36243
3.7205	-143.00537
3.721	60.52551
3.7215	214.60876
3.722	284.29871
3.7225	294.06738
3.723	264.66064
3.7235	222.36328
3.724	190.43884
3.7245	186.71265
3.725	258.92029
3.7255	329.91943
3.726	386.1145
3.7265	372.3175
3.727	156.19812
3.7275	-45.3186
3.728	-112.59155
3.7285	-25.98267
3.729	112.28943
3.7295	252.37427
3.73	369.90051
3.7305	406.75964
3.731	443.9209
3.7315	511.59668
3.732	558.02307
3.7325	537.27722
3.733	489.13879
3.7335	450.16479
3.734	396.1853
3.7345	300.81482
3.735	21.3501
3.7355	-319.74792
3.736	-419.65027
3.7365	-416.02478
3.737	-408.16956
3.7375	-428.51257
3.738	-388.43079
3.7385	-286.91711
3.739	-85.5011
3.7395	143.20679
3.74	316.52527
3.7405	444.92798
3.741	464.0625
3.7415	452.48108
3.742	437.47559
3.7425	399.00513
3.743	373.02246
3.7435	372.11609
3.744	348.349
3.7445	286.81641
3.745	196.58203
3.7455	162.64343
3.746	230.62134
3.7465	253.07922
3.747	224.37744
3.7475	187.92114
3.748	143.60962
3.7485	109.77173
3.749	83.38623
3.7495	51.86462
3.75	19.23523
3.7505	0.20142
3.751	-22.45789
3.7515	-31.62231
3.752	-44.21082
3.7525	-8.15735
3.753	37.36267
3.7535	64.65454
3.754	99.60022
3.7545	127.09351
3.755	134.04236
3.7555	113.29651
3.756	75.73242
3.7565	32.02515
3.757	-24.57275
3.7575	-100.10376
3.758	-192.05017
3.7585	-275.03357
3.759	-347.03979
3.7595	-435.56213
3.76	-551.47705
3.7605	-657.724
3.761	-691.86401
3.7615	-682.49817
3.762	-637.5824
3.7625	-605.96008
3.763	-670.91675
3.7635	-678.87268
3.764	-569.90662
3.7645	-424.88708
3.765	-336.06262
3.7655	-245.32471
3.766	-168.38379
3.7665	-167.77954
3.767	-271.81091
3.7675	-398.90442
3.768	-517.53845
3.7685	-667.7948
3.769	-786.12671
3.7695	-719.25659
3.77	-481.88782
3.7705	-206.35071
3.771	44.31152
3.7715	239.98718
3.772	237.77161
3.7725	141.19263
3.773	195.27283
3.7735	305.14526
3.774	342.40723
3.7745	343.11218
3.775	316.02173
3.7755	236.26099
3.776	131.82678
3.7765	84.99756
3.777	149.95422
3.7775	315.11536
3.778	479.57153
3.7785	569.40308
3.779	591.0553
3.7795	581.08521
3.78	587.42981
3.7805	633.15125
3.781	641.30859
3.7815	459.0271
3.782	242.50488
3.7825	105.6427
3.783	-26.78833
3.7835	-99.09668
3.784	-235.05249
3.7845	-443.41736
3.785	-563.76343
3.7855	-484.10339
3.786	-338.88245
3.7865	-182.98645
3.787	-3.02124
3.7875	188.42468
3.788	316.72668
3.7885	405.45044
3.789	438.68408
3.7895	444.82727
3.79	440.39612
3.7905	438.78479
3.791	413.30566
3.7915	317.33093
3.792	205.24292
3.7925	102.42004
3.793	28.70178
3.7935	12.5885
3.794	11.88354
3.7945	-10.57434
3.795	10.27222
3.7955	55.89294
3.796	85.60181
3.7965	134.94873
3.797	186.71265
3.7975	209.87549
3.798	225.68665
3.7985	219.14062
3.799	176.0376
3.7995	85.90393
3.8	-42.7002
3.8005	-99.2981
3.801	-91.04004
3.8015	-91.04004
3.802	-64.151
3.8025	3.8269
3.803	43.90869
3.8035	78.45154
3.804	123.56873
3.8045	176.44043
3.805	208.66699
3.8055	234.75037
3.806	228.20435
3.8065	184.8999
3.807	112.28943
3.8075	34.34143
3.808	-50.2533
3.8085	-85.19897
3.809	-84.09119
3.8095	-79.2572
3.81	-61.02905
3.8105	-60.4248
3.811	-65.15808
3.8115	-67.67578
3.812	-74.82605
3.8125	-110.98022
3.813	-141.99829
3.8135	-172.61353
3.814	-207.15637
3.8145	-418.03894
3.815	-695.18738
3.8155	-729.12598
3.816	-642.6178
3.8165	-515.82642
3.817	-369.90051
3.8175	-192.75513
3.818	-39.88037
3.8185	76.03455
3.819	107.65686
3.8195	112.18872
3.82	161.53564
3.8205	157.10449
3.821	134.84802
3.8215	87.11243
3.822	21.45081
3.8225	-9.76868
3.823	12.38708
3.8235	25.88196
3.824	18.22815
3.8245	-3.7262
3.825	-27.29187
3.8255	-32.7301
3.826	-47.23206
3.8265	-163.34839
3.827	-413.50708
3.8275	-827.5177
3.828	-981.09741
3.8285	-906.27136
3.829	-694.48242
3.8295	-502.63367
3.83	-280.27039
3.8305	-70.59631
3.831	119.54041
3.8315	292.95959
3.832	467.8894
3.8325	593.27087
3.833	585.31494
3.8335	426.59912
3.834	114.60571
3.8345	-212.39319
3.835	-409.17664
3.8355	-486.21826
3.836	-430.82886
3.8365	-280.4718
3.837	-85.19897
3.8375	131.72607
3.838	377.85645
3.8385	446.33789
3.839	338.98315
3.8395	269.79675
3.84	241.19568
3.8405	290.64331
3.841	379.97131
3.8415	392.55981
3.842	380.17273
3.8425	326.79749
3.843	320.55359
3.8435	388.22937
3.844	472.8241
3.8445	540.90271
3.845	529.11987
3.8455	477.05383
3.846	402.12708
3.8465	302.22473
3.847	176.0376
