Leonardo_Garofalo_Left_2.c3d  



Time(s):	A_L_bicipite(μV):
0	17.82532
0.0005	22.45789
0.001	19.53735
0.0015	21.75293
0.002	16.3147
0.0025	18.73169
0.003	16.11328
0.0035	8.7616
0.004	8.96301
0.0045	6.3446
0.005	3.7262
0.0055	3.8269
0.006	9.06372
0.0065	4.22974
0.007	-4.02832
0.0075	-2.92053
0.008	-7.65381
0.0085	2.71912
0.009	4.02832
0.0095	2.31628
0.01	6.74744
0.0105	13.39417
0.011	15.1062
0.0115	12.18567
0.012	-6.54602
0.0125	-8.96301
0.013	-13.29346
0.0135	-11.38
0.014	-6.94885
0.0145	-9.76868
0.015	-1.91345
0.0155	8.66089
0.016	20.64514
0.0165	22.35718
0.017	11.38
0.0175	4.53186
0.018	2.61841
0.0185	1.40991
0.019	12.28638
0.0195	14.60266
0.02	17.52319
0.0205	20.54443
0.021	29.60815
0.0215	30.51453
0.022	24.57275
0.0225	14.70337
0.023	6.54602
0.0235	0.50354
0.024	-0.90637
0.0245	-4.02832
0.025	-1.81274
0.0255	-6.3446
0.026	-1.81274
0.0265	-2.81982
0.027	-1.91345
0.0275	1.00708
0.028	-0.70496
0.0285	1.2085
0.029	-1.51062
0.0295	3.92761
0.03	5.63965
0.0305	9.46655
0.031	6.64673
0.0315	10.97717
0.032	7.85522
0.0325	13.69629
0.033	16.11328
0.0335	16.51611
0.034	15.91187
0.0345	10.97717
0.035	5.74036
0.0355	-1.40991
0.036	1.2085
0.0365	-4.93469
0.037	-3.92761
0.0375	4.02832
0.038	2.92053
0.0385	7.75452
0.039	10.47363
0.0395	11.88354
0.04	-3.22266
0.0405	-9.26514
0.041	-0.80566
0.0415	3.8269
0.042	12.68921
0.0425	18.73169
0.043	21.3501
0.0435	19.53735
0.044	23.16284
0.0445	26.58691
0.045	27.19116
0.0455	30.91736
0.046	27.89612
0.0465	24.87488
0.047	15.91187
0.0475	12.68921
0.048	15.00549
0.0485	16.71753
0.049	-2.71912
0.0495	-11.88354
0.05	-14.19983
0.0505	-15.40833
0.051	-21.14868
0.0515	-28.80249
0.052	-29.20532
0.0525	-32.02515
0.053	-35.44922
0.0535	-18.12744
0.054	-11.58142
0.0545	-0.60425
0.055	7.65381
0.0555	7.04956
0.056	10.0708
0.0565	10.47363
0.057	15.81116
0.0575	18.8324
0.058	23.46497
0.0585	28.09753
0.059	35.54993
0.0595	30.91736
0.06	22.15576
0.0605	17.01965
0.061	17.01965
0.0615	20.84656
0.062	18.53027
0.0625	4.63257
0.063	6.2439
0.0635	8.96301
0.064	4.83398
0.0645	5.74036
0.065	2.31628
0.0655	1.61133
0.066	-10.47363
0.0665	-21.04797
0.067	-12.38708
0.0675	0.40283
0.068	3.52478
0.0685	5.84106
0.069	13.89771
0.0695	13.29346
0.07	10.47363
0.0705	6.3446
0.071	11.98425
0.0715	15.71045
0.072	16.3147
0.0725	16.11328
0.073	11.17859
0.0735	8.66089
0.074	9.26514
0.0745	11.78284
0.075	10.77576
0.0755	7.25098
0.076	15.60974
0.0765	16.11328
0.077	15.60974
0.0775	10.97717
0.078	21.75293
0.0785	27.19116
0.079	27.99683
0.0795	24.06921
0.08	18.63098
0.0805	9.46655
0.081	-0.60425
0.0815	-2.41699
0.082	-0.20142
0.0825	15.00549
0.083	21.24939
0.0835	32.32727
0.084	34.74426
0.0845	33.43506
0.085	21.85364
0.0855	7.15027
0.086	-1.00708
0.0865	-1.00708
0.087	12.08496
0.0875	19.43665
0.088	28.9032
0.0885	20.64514
0.089	0.80566
0.0895	-5.53894
0.09	-19.43665
0.0905	-21.3501
0.091	-25.68054
0.0915	-23.16284
0.092	-23.06213
0.0925	-13.69629
0.093	-8.8623
0.0935	3.7262
0.094	10.47363
0.0945	12.78992
0.095	14.60266
0.0955	16.21399
0.096	15.60974
0.0965	17.6239
0.097	25.27771
0.0975	22.96143
0.098	24.16992
0.0985	20.84656
0.099	10.57434
0.0995	9.36584
0.1	13.99841
0.1005	10.37292
0.101	10.87646
0.1015	7.35168
0.102	-4.83398
0.1025	-11.58142
0.103	-20.24231
0.1035	-20.44373
0.104	-13.89771
0.1045	-27.89612
0.105	-21.3501
0.1055	-15.50903
0.106	-4.63257
0.1065	-1.61133
0.107	-9.56726
0.1075	-8.8623
0.108	-12.89062
0.1085	-8.05664
0.109	-8.35876
0.1095	-0.40283
0.11	1.00708
0.1105	2.92053
0.111	5.43823
0.1115	1.2085
0.112	11.68213
0.1125	16.81824
0.113	20.54443
0.1135	17.22107
0.114	16.71753
0.1145	12.89062
0.115	9.56726
0.1155	14.80408
0.116	8.7616
0.1165	18.53027
0.117	18.02673
0.1175	14.09912
0.118	5.43823
0.1185	10.47363
0.119	5.63965
0.1195	7.5531
0.12	5.84106
0.1205	6.14319
0.121	-0.80566
0.1215	3.42407
0.122	-8.96301
0.1225	-2.21558
0.123	-2.5177
0.1235	0.30212
0.124	-2.92053
0.1245	4.22974
0.125	13.19275
0.1255	15.50903
0.126	17.82532
0.1265	22.86072
0.127	15.50903
0.1275	12.68921
0.128	19.83948
0.1285	25.88196
0.129	37.26196
0.1295	40.38391
0.13	36.65771
0.1305	33.13293
0.131	30.2124
0.1315	20.44373
0.132	17.12036
0.1325	11.17859
0.133	13.69629
0.1335	22.15576
0.134	21.95435
0.1345	22.96143
0.135	8.25806
0.1355	-2.81982
0.136	-14.19983
0.1365	-19.73877
0.137	-21.45081
0.1375	-21.04797
0.138	-18.53027
0.1385	-20.1416
0.139	-14.50195
0.1395	-7.04956
0.14	-4.02832
0.1405	-14.90479
0.141	-26.08337
0.1415	-27.19116
0.142	-20.1416
0.1425	-8.7616
0.143	-7.5531
0.1435	0.60425
0.144	3.22266
0.1445	7.45239
0.145	6.14319
0.1455	14.60266
0.146	11.78284
0.1465	9.56726
0.147	7.5531
0.1475	17.42249
0.148	18.32886
0.1485	23.16284
0.149	23.66638
0.1495	27.79541
0.15	30.51453
0.1505	31.11877
0.151	27.29187
0.1515	24.97559
0.152	23.06213
0.1525	25.177
0.153	26.58691
0.1535	23.76709
0.154	6.14319
0.1545	-5.43823
0.155	-22.55859
0.1555	-34.03931
0.156	-41.39099
0.1565	-37.96692
0.157	-9.76868
0.1575	3.02124
0.158	9.06372
0.1585	2.81982
0.159	-2.41699
0.1595	5.23682
0.16	3.52478
0.1605	0.30212
0.161	-1.61133
0.1615	6.2439
0.162	13.09204
0.1625	16.01257
0.163	17.6239
0.1635	17.01965
0.164	9.26514
0.1645	10.97717
0.165	9.76868
0.1655	30.31311
0.166	26.68762
0.1665	16.01257
0.167	6.64673
0.1675	2.71912
0.168	13.29346
0.1685	17.6239
0.169	14.09912
0.1695	10.37292
0.17	0.40283
0.1705	-10.37292
0.171	-14.50195
0.1715	-16.11328
0.172	-11.2793
0.1725	-10.57434
0.173	-7.5531
0.1735	-3.52478
0.174	-1.40991
0.1745	-2.21558
0.175	-5.43823
0.1755	-4.02832
0.176	-9.86938
0.1765	-16.71753
0.177	-8.8623
0.1775	3.62549
0.178	14.09912
0.1785	16.71753
0.179	13.797
0.1795	18.42957
0.18	23.06213
0.1805	17.52319
0.181	14.09912
0.1815	9.36584
0.182	1.00708
0.1825	1.00708
0.183	-3.02124
0.1835	-0.60425
0.184	-10.47363
0.1845	-12.28638
0.185	-1.51062
0.1855	1.71204
0.186	4.12903
0.1865	1.2085
0.187	8.7616
0.1875	20.1416
0.188	22.15576
0.1885	27.19116
0.189	19.63806
0.1895	20.94727
0.19	22.96143
0.1905	29.20532
0.191	23.26355
0.1915	23.46497
0.192	18.93311
0.1925	25.177
0.193	22.05505
0.1935	21.04797
0.194	24.37134
0.1945	26.18408
0.195	22.15576
0.1955	19.63806
0.196	17.92603
0.1965	23.46497
0.197	18.93311
0.1975	16.81824
0.198	12.99133
0.1985	5.74036
0.199	-3.62549
0.1995	-7.5531
0.2	-5.63965
0.2005	-5.0354
0.201	-2.21558
0.2015	1.10779
0.202	-3.32336
0.2025	-11.68213
0.203	-15.00549
0.2035	-5.43823
0.204	12.99133
0.2045	17.42249
0.205	20.04089
0.2055	23.56567
0.206	29.00391
0.2065	36.25488
0.207	37.86621
0.2075	44.31152
0.208	25.07629
0.2085	7.25098
0.209	-12.89062
0.2095	-22.55859
0.21	-30.11169
0.2105	-32.93152
0.211	-25.98267
0.2115	-25.88196
0.212	-20.54443
0.2125	-4.22974
0.213	4.63257
0.2135	6.14319
0.214	7.75452
0.2145	4.33044
0.215	6.94885
0.2155	1.81274
0.216	-6.54602
0.2165	-4.53186
0.217	0.20142
0.2175	0.20142
0.218	3.22266
0.2185	11.78284
0.219	5.23682
0.2195	-3.32336
0.22	-5.63965
0.2205	-1.10779
0.221	3.62549
0.2215	16.41541
0.222	17.52319
0.2225	13.69629
0.223	9.76868
0.2235	13.89771
0.224	13.49487
0.2245	17.52319
0.225	15.91187
0.2255	10.57434
0.226	10.27222
0.2265	10.57434
0.227	10.87646
0.2275	13.99841
0.228	15.00549
0.2285	16.3147
0.229	12.48779
0.2295	12.99133
0.23	12.18567
0.2305	13.59558
0.231	16.11328
0.2315	21.95435
0.232	21.45081
0.2325	18.22815
0.233	7.5531
0.2335	11.78284
0.234	5.33752
0.2345	3.7262
0.235	2.92053
0.2355	6.54602
0.236	-1.91345
0.2365	9.46655
0.237	12.89062
0.2375	20.94727
0.238	20.64514
0.2385	19.94019
0.239	11.17859
0.2395	7.85522
0.24	15.00549
0.2405	19.94019
0.241	5.33752
0.2415	-8.8623
0.242	-11.78284
0.2425	-5.84106
0.243	-5.74036
0.2435	-8.45947
0.244	-6.3446
0.2445	-5.33752
0.245	-5.84106
0.2455	-6.64673
0.246	-12.89062
0.2465	-8.56018
0.247	-1.00708
0.2475	-1.40991
0.248	-0.40283
0.2485	-3.62549
0.249	5.84106
0.2495	12.68921
0.25	19.33594
0.2505	15.71045
0.251	19.53735
0.2515	20.74585
0.252	23.46497
0.2525	24.06921
0.253	26.3855
0.2535	34.54285
0.254	38.77258
0.2545	30.01099
0.255	18.12744
0.2555	6.44531
0.256	1.3092
0.2565	-2.5177
0.257	-6.54602
0.2575	-6.74744
0.258	3.12195
0.2585	3.42407
0.259	7.95593
0.2595	3.02124
0.26	20.34302
0.2605	27.09045
0.261	27.6947
0.2615	28.39966
0.262	29.91028
0.2625	37.26196
0.263	30.91736
0.2635	26.18408
0.264	13.99841
0.2645	-5.53894
0.265	-6.54602
0.2655	-9.36584
0.266	-6.84814
0.2665	-3.62549
0.267	-8.7616
0.2675	-2.5177
0.268	-10.67505
0.2685	-17.52319
0.269	-27.49329
0.2695	-29.10461
0.27	-24.27063
0.2705	-1.51062
0.271	14.50195
0.2715	21.85364
0.272	27.89612
0.2725	32.62939
0.273	36.65771
0.2735	36.25488
0.274	31.92444
0.2745	38.974
0.275	46.02356
0.2755	46.62781
0.276	44.61365
0.2765	39.17542
0.277	37.06055
0.2775	36.65771
0.278	30.51453
0.2785	15.60974
0.279	-2.31628
0.2795	-10.57434
0.28	-0.30212
0.2805	2.92053
0.281	-1.91345
0.2815	-8.45947
0.282	-23.26355
0.2825	-33.53577
0.283	-23.66638
0.2835	-21.04797
0.284	-29.10461
0.2845	-29.91028
0.285	-27.89612
0.2855	-16.71753
0.286	-1.61133
0.2865	16.81824
0.287	23.96851
0.2875	20.44373
0.288	26.28479
0.2885	26.3855
0.289	15.50903
0.2895	10.0708
0.29	12.08496
0.2905	6.2439
0.291	5.63965
0.2915	6.2439
0.292	9.76868
0.2925	8.66089
0.293	17.92603
0.2935	18.42957
0.294	17.32178
0.2945	16.01257
0.295	11.78284
0.2955	9.56726
0.296	12.28638
0.2965	17.92603
0.297	14.70337
0.2975	16.41541
0.298	15.1062
0.2985	1.71204
0.299	-2.81982
0.2995	-5.13611
0.3	-3.7262
0.3005	-7.15027
0.301	-6.3446
0.3015	2.81982
0.302	6.84814
0.3025	9.06372
0.303	9.86938
0.3035	10.67505
0.304	4.22974
0.3045	8.7616
0.305	6.3446
0.3055	12.08496
0.306	16.21399
0.3065	14.40125
0.307	18.73169
0.3075	24.97559
0.308	26.98975
0.3085	21.95435
0.309	18.02673
0.3095	10.77576
0.31	9.76868
0.3105	6.2439
0.311	3.22266
0.3115	1.3092
0.312	5.63965
0.3125	5.94177
0.313	12.99133
0.3135	13.39417
0.314	17.92603
0.3145	27.49329
0.315	20.04089
0.3155	11.17859
0.316	-0.70496
0.3165	-6.2439
0.317	-7.04956
0.3175	-7.25098
0.318	3.32336
0.3185	4.53186
0.319	4.63257
0.3195	13.09204
0.32	-2.31628
0.3205	-18.22815
0.321	-17.22107
0.3215	-15.60974
0.322	-12.48779
0.3225	-13.89771
0.323	-6.2439
0.3235	5.33752
0.324	13.99841
0.3245	17.32178
0.325	19.83948
0.3255	25.177
0.326	24.47205
0.3265	29.20532
0.327	28.70178
0.3275	25.27771
0.328	22.6593
0.3285	18.32886
0.329	15.30762
0.3295	17.01965
0.33	9.76868
0.3305	10.47363
0.331	22.25647
0.3315	26.78833
0.332	31.82373
0.3325	37.86621
0.333	46.02356
0.3335	43.00232
0.334	37.36267
0.3345	22.45789
0.335	-1.91345
0.3355	-15.1062
0.336	-12.89062
0.3365	-18.32886
0.337	-13.59558
0.3375	-10.0708
0.338	-0.20142
0.3385	3.32336
0.339	10.67505
0.3395	10.87646
0.34	3.62549
0.3405	8.15735
0.341	12.78992
0.3415	9.46655
0.342	9.06372
0.3425	3.8269
0.343	5.63965
0.3435	8.66089
0.344	11.68213
0.3445	7.85522
0.345	11.48071
0.3455	5.84106
0.346	2.31628
0.3465	-7.75452
0.347	-23.06213
0.3475	-27.59399
0.348	-16.11328
0.3485	3.12195
0.349	18.93311
0.3495	18.8324
0.35	17.72461
0.3505	9.56726
0.351	8.56018
0.3515	12.08496
0.352	18.22815
0.3525	11.48071
0.353	19.43665
0.3535	25.78125
0.354	28.39966
0.3545	29.91028
0.355	30.51453
0.3555	29.91028
0.356	23.56567
0.3565	21.24939
0.357	23.26355
0.3575	18.73169
0.358	11.17859
0.3585	11.68213
0.359	0
0.3595	-4.22974
0.36	4.22974
0.3605	5.53894
0.361	6.54602
0.3615	3.52478
0.362	3.7262
0.3625	-7.45239
0.363	-2.21558
0.3635	-0.30212
0.364	-6.14319
0.3645	-8.8623
0.365	-8.8623
0.3655	-3.22266
0.366	4.12903
0.3665	10.57434
0.367	17.52319
0.3675	30.41382
0.368	36.15417
0.3685	44.11011
0.369	54.18091
0.3695	56.5979
0.37	48.03772
0.3705	35.44922
0.371	23.06213
0.3715	12.5885
0.372	11.17859
0.3725	4.93469
0.373	9.06372
0.3735	0
0.374	-24.47205
0.3745	-39.07471
0.375	-36.65771
0.3755	-19.43665
0.376	-12.68921
0.3765	2.92053
0.377	4.22974
0.3775	7.5531
0.378	15.20691
0.3785	20.04089
0.379	21.14868
0.3795	21.24939
0.38	33.53577
0.3805	38.47046
0.381	44.51294
0.3815	58.10852
0.382	50.55542
0.3825	33.53577
0.383	25.57983
0.3835	14.09912
0.384	20.74585
0.3845	23.66638
0.385	30.71594
0.3855	24.57275
0.386	20.04089
0.3865	17.22107
0.387	-1.2085
0.3875	-21.75293
0.388	-30.51453
0.3885	-27.89612
0.389	-23.66638
0.3895	-12.18567
0.39	-2.81982
0.3905	-5.94177
0.391	-12.28638
0.3915	-15.00549
0.392	-19.03381
0.3925	-13.797
0.393	-4.12903
0.3935	-0.90637
0.394	-0.40283
0.3945	6.54602
0.395	20.44373
0.3955	27.09045
0.396	33.63647
0.3965	41.59241
0.397	36.85913
0.3975	26.48621
0.398	19.73877
0.3985	24.57275
0.399	15.71045
0.3995	13.09204
0.4	12.68921
0.4005	-1.3092
0.401	-13.797
0.4015	-20.24231
0.402	-8.05664
0.4025	1.91345
0.403	8.45947
0.4035	10.37292
0.404	-1.10779
0.4045	-17.82532
0.405	-18.42957
0.4055	-15.91187
0.406	-10.0708
0.4065	0
0.407	5.23682
0.4075	5.84106
0.408	11.38
0.4085	9.16443
0.409	15.50903
0.4095	9.97009
0.41	12.48779
0.4105	12.18567
0.411	16.11328
0.4115	14.50195
0.412	13.29346
0.4125	10.57434
0.413	10.57434
0.4135	19.33594
0.414	19.73877
0.4145	14.90479
0.415	11.38
0.4155	4.93469
0.416	12.18567
0.4165	19.13452
0.417	21.24939
0.4175	22.45789
0.418	22.25647
0.4185	6.94885
0.419	-10.0708
0.4195	-20.44373
0.42	-14.80408
0.4205	-9.97009
0.421	-1.40991
0.4215	-6.14319
0.422	-2.11487
0.4225	1.3092
0.423	7.5531
0.4235	8.96301
0.424	11.17859
0.4245	11.17859
0.425	11.68213
0.4255	17.01965
0.426	13.39417
0.4265	13.39417
0.427	12.28638
0.4275	15.91187
0.428	19.53735
0.4285	25.88196
0.429	16.81824
0.4295	20.24231
0.43	17.22107
0.4305	9.97009
0.431	2.71912
0.4315	4.02832
0.432	10.87646
0.4325	23.06213
0.433	20.34302
0.4335	-2.5177
0.434	-11.07788
0.4345	-15.60974
0.435	-9.66797
0.4355	-7.45239
0.436	-10.77576
0.4365	-10.77576
0.437	-7.75452
0.4375	-1.71204
0.438	4.83398
0.4385	21.85364
0.439	27.6947
0.4395	27.29187
0.44	32.52869
0.4405	33.03223
0.441	35.54993
0.4415	24.27063
0.442	29.20532
0.4425	32.32727
0.443	36.65771
0.4435	34.03931
0.444	35.75134
0.4445	29.70886
0.445	19.13452
0.4455	9.16443
0.446	4.02832
0.4465	3.8269
0.447	-13.39417
0.4475	-48.33984
0.448	-66.6687
0.4485	-57.70569
0.449	-37.36267
0.4495	-16.41541
0.45	-17.82532
0.4505	-24.57275
0.451	-19.03381
0.4515	-14.30054
0.452	-4.43115
0.4525	1.40991
0.453	7.95593
0.4535	10.47363
0.454	11.48071
0.4545	7.65381
0.455	6.74744
0.4555	2.5177
0.456	-11.48071
0.4565	-19.73877
0.457	-15.1062
0.4575	-2.71912
0.458	2.92053
0.4585	-1.61133
0.459	-7.25098
0.4595	-5.23682
0.46	-1.71204
0.4605	-5.23682
0.461	-19.03381
0.4615	-19.33594
0.462	-9.66797
0.4625	-3.8269
0.463	7.85522
0.4635	4.93469
0.464	3.22266
0.4645	-4.43115
0.465	-13.99841
0.4655	-6.44531
0.466	-4.83398
0.4665	-2.92053
0.467	-7.45239
0.4675	1.61133
0.468	6.3446
0.4685	9.36584
0.469	15.1062
0.4695	26.68762
0.47	27.99683
0.4705	38.974
0.471	38.67188
0.4715	33.03223
0.472	35.95276
0.4725	31.52161
0.473	29.70886
0.4735	30.11169
0.474	28.70178
0.4745	14.19983
0.475	1.61133
0.4755	-13.19275
0.476	-25.37842
0.4765	-24.97559
0.477	-15.40833
0.4775	-11.98425
0.478	-3.22266
0.4785	-5.63965
0.479	-12.5885
0.4795	-19.33594
0.48	-11.38
0.4805	-10.37292
0.481	2.41699
0.4815	9.56726
0.482	9.36584
0.4825	16.51611
0.483	7.95593
0.4835	7.95593
0.484	10.37292
0.4845	17.42249
0.485	24.67346
0.4855	27.09045
0.486	18.22815
0.4865	-2.01416
0.487	-4.02832
0.4875	-6.94885
0.488	5.33752
0.4885	22.05505
0.489	45.72144
0.4895	57.9071
0.49	49.44763
0.4905	25.37842
0.491	3.02124
0.4915	-6.54602
0.492	-8.35876
0.4925	-8.8623
0.493	-1.81274
0.4935	-0.20142
0.494	4.73328
0.4945	7.15027
0.495	10.47363
0.4955	7.65381
0.496	-2.71912
0.4965	-2.41699
0.497	-6.54602
0.4975	-9.86938
0.498	-15.20691
0.4985	-14.80408
0.499	-16.71753
0.4995	-20.04089
0.5	-20.34302
0.5005	-17.92603
0.501	-22.76001
0.5015	-23.56567
0.502	-16.71753
0.5025	-4.02832
0.503	4.83398
0.5035	5.43823
0.504	5.94177
0.5045	5.74036
0.505	4.33044
0.5055	8.15735
0.506	6.74744
0.5065	10.57434
0.507	5.94177
0.5075	7.35168
0.508	2.81982
0.5085	2.11487
0.509	-7.85522
0.5095	-6.14319
0.51	-2.92053
0.5105	-0.50354
0.511	0.50354
0.5115	-2.71912
0.512	1.00708
0.5125	4.22974
0.513	11.98425
0.5135	14.70337
0.514	16.3147
0.5145	23.36426
0.515	31.11877
0.5155	36.75842
0.516	44.51294
0.5165	40.98816
0.517	28.60107
0.5175	20.04089
0.518	17.52319
0.5185	23.66638
0.519	50.2533
0.5195	64.25171
0.52	62.13684
0.5205	60.52551
0.521	44.71436
0.5215	29.60815
0.522	32.22656
0.5225	43.60657
0.523	30.81665
0.5235	4.83398
0.524	-14.50195
0.5245	-26.3855
0.525	-25.27771
0.5255	-22.76001
0.526	-36.35559
0.5265	-40.68604
0.527	-30.71594
0.5275	-20.34302
0.528	-14.50195
0.5285	-4.33044
0.529	9.86938
0.5295	10.87646
0.53	18.73169
0.5305	17.01965
0.531	20.34302
0.5315	11.2793
0.532	8.15735
0.5325	7.35168
0.533	14.60266
0.5335	20.44373
0.534	23.56567
0.5345	22.15576
0.535	13.39417
0.5355	7.35168
0.536	13.29346
0.5365	18.8324
0.537	12.5885
0.5375	0.70496
0.538	-9.66797
0.5385	-24.77417
0.539	-18.42957
0.5395	-13.19275
0.54	-24.47205
0.5405	-30.41382
0.541	-32.93152
0.5415	-26.48621
0.542	-24.77417
0.5425	-22.76001
0.543	-24.16992
0.5435	-20.34302
0.544	-19.43665
0.5445	-17.52319
0.545	-15.1062
0.5455	-13.09204
0.546	-5.74036
0.5465	-2.01416
0.547	-1.2085
0.5475	0
0.548	3.62549
0.5485	4.02832
0.549	6.14319
0.5495	10.77576
0.55	14.40125
0.5505	25.07629
0.551	23.56567
0.5515	30.11169
0.552	34.44214
0.5525	41.39099
0.553	37.46338
0.5535	27.49329
0.554	22.35718
0.5545	17.01965
0.555	9.06372
0.5555	5.94177
0.556	-0.90637
0.5565	3.92761
0.557	-1.71204
0.5575	-23.76709
0.558	-36.55701
0.5585	-32.7301
0.559	-15.81116
0.5595	-17.72461
0.56	-15.40833
0.5605	-8.25806
0.561	-2.5177
0.5615	1.51062
0.562	7.15027
0.5625	13.19275
0.563	12.08496
0.5635	14.09912
0.564	12.99133
0.5645	2.5177
0.565	0.80566
0.5655	-0.30212
0.566	0.20142
0.5665	0.40283
0.567	5.13611
0.5675	8.05664
0.568	9.56726
0.5685	17.92603
0.569	16.01257
0.5695	19.83948
0.57	26.3855
0.5705	23.06213
0.571	18.32886
0.5715	21.14868
0.572	24.77417
0.5725	12.99133
0.573	7.65381
0.5735	2.01416
0.574	0.50354
0.5745	1.2085
0.575	5.13611
0.5755	6.14319
0.576	-3.7262
0.5765	-9.66797
0.577	-16.61682
0.5775	-22.45789
0.578	-31.52161
0.5785	-22.25647
0.579	-15.00549
0.5795	-14.80408
0.58	-10.67505
0.5805	-4.73328
0.581	-2.31628
0.5815	-7.65381
0.582	-1.3092
0.5825	13.69629
0.583	23.06213
0.5835	15.71045
0.584	-1.40991
0.5845	-1.40991
0.585	1.3092
0.5855	-1.3092
0.586	1.61133
0.5865	-0.20142
0.587	-3.12195
0.5875	4.02832
0.588	3.7262
0.5885	6.84814
0.589	25.177
0.5895	42.59949
0.59	49.24622
0.5905	44.0094
0.591	44.81506
0.5915	47.93701
0.592	25.98267
0.5925	8.25806
0.593	-8.15735
0.5935	-13.797
0.594	-19.83948
0.5945	-17.32178
0.595	-13.69629
0.5955	-13.09204
0.596	-17.32178
0.5965	-10.97717
0.597	-6.04248
0.5975	-11.17859
0.598	-13.39417
0.5985	-15.1062
0.599	-21.24939
0.5995	-19.53735
0.6	-8.8623
0.6005	3.32336
0.601	16.61682
0.6015	23.26355
0.602	20.1416
0.6025	16.01257
0.603	9.26514
0.6035	-0.30212
0.604	-8.7616
0.6045	-9.16443
0.605	-7.04956
0.6055	-12.78992
0.606	-11.88354
0.6065	-15.91187
0.607	-22.55859
0.6075	-29.91028
0.608	-24.97559
0.6085	-18.12744
0.609	-12.28638
0.6095	-9.76868
0.61	-16.3147
0.6105	-12.18567
0.611	-12.78992
0.6115	-6.2439
0.612	5.13611
0.6125	11.38
0.613	13.39417
0.6135	16.21399
0.614	13.49487
0.6145	8.7616
0.615	12.5885
0.6155	15.20691
0.616	15.00549
0.6165	10.17151
0.617	11.17859
0.6175	11.38
0.618	16.01257
0.6185	15.00549
0.619	17.01965
0.6195	17.52319
0.62	14.60266
0.6205	10.57434
0.621	13.59558
0.6215	8.66089
0.622	21.04797
0.6225	24.77417
0.623	22.15576
0.6235	22.25647
0.624	21.65222
0.6245	22.15576
0.625	18.12744
0.6255	16.61682
0.626	7.5531
0.6265	13.99841
0.627	12.08496
0.6275	18.32886
0.628	9.06372
0.6285	2.31628
0.629	2.81982
0.6295	-5.33752
0.63	-3.02124
0.6305	1.2085
0.631	2.11487
0.6315	4.02832
0.632	18.8324
0.6325	20.1416
0.633	7.15027
0.6335	1.2085
0.634	-2.5177
0.6345	-1.61133
0.635	0.10071
0.6355	2.41699
0.636	9.26514
0.6365	3.32336
0.637	8.56018
0.6375	8.56018
0.638	15.00549
0.6385	19.13452
0.639	13.797
0.6395	20.34302
0.64	21.24939
0.6405	28.09753
0.641	21.95435
0.6415	18.93311
0.642	14.30054
0.6425	6.94885
0.643	-1.61133
0.6435	-2.21558
0.644	-7.35168
0.6445	-18.02673
0.645	-30.31311
0.6455	-41.59241
0.646	-39.67896
0.6465	-44.41223
0.647	-45.11719
0.6475	-35.54993
0.648	-31.11877
0.6485	-25.07629
0.649	-19.83948
0.6495	-6.64673
0.65	0.70496
0.6505	3.92761
0.651	10.17151
0.6515	17.52319
0.652	16.81824
0.6525	16.41541
0.653	19.63806
0.6535	26.78833
0.654	27.39258
0.6545	31.52161
0.655	23.26355
0.6555	23.16284
0.656	22.25647
0.6565	29.30603
0.657	29.30603
0.6575	24.47205
0.658	21.14868
0.6585	12.18567
0.659	9.26514
0.6595	5.53894
0.66	1.61133
0.6605	-12.78992
0.661	-12.08496
0.6615	-9.86938
0.662	-5.33752
0.6625	0.60425
0.663	-1.91345
0.6635	-5.74036
0.664	-4.02832
0.6645	-4.12903
0.665	-2.92053
0.6655	3.8269
0.666	0.30212
0.6665	6.54602
0.667	7.65381
0.6675	8.56018
0.668	1.61133
0.6685	9.76868
0.669	1.71204
0.6695	4.43115
0.67	4.12903
0.6705	14.90479
0.671	10.0708
0.6715	9.76868
0.672	9.56726
0.6725	6.44531
0.673	2.11487
0.6735	10.47363
0.674	7.45239
0.6745	8.96301
0.675	5.63965
0.6755	5.0354
0.676	-11.68213
0.6765	-23.26355
0.677	-16.81824
0.6775	-11.38
0.678	0.60425
0.6785	0.70496
0.679	7.25098
0.6795	15.1062
0.68	14.90479
0.6805	16.01257
0.681	22.6593
0.6815	26.88904
0.682	24.37134
0.6825	18.22815
0.683	14.19983
0.6835	16.61682
0.684	9.66797
0.6845	12.78992
0.685	19.83948
0.6855	21.65222
0.686	21.65222
0.6865	17.32178
0.687	8.15735
0.6875	-7.15027
0.688	-19.23523
0.6885	-21.65222
0.689	-9.46655
0.6895	-5.33752
0.69	-9.97009
0.6905	-11.98425
0.691	-11.98425
0.6915	1.2085
0.692	6.3446
0.6925	8.15735
0.693	16.21399
0.6935	6.94885
0.694	-4.12903
0.6945	-4.02832
0.695	-8.25806
0.6955	-2.31628
0.696	-7.04956
0.6965	-7.5531
0.697	-4.43115
0.6975	-7.5531
0.698	2.61841
0.6985	8.25806
0.699	8.66089
0.6995	9.16443
0.7	6.44531
0.7005	12.78992
0.701	15.00549
0.7015	10.97717
0.702	8.35876
0.7025	8.96301
0.703	11.58142
0.7035	6.64673
0.704	8.15735
0.7045	10.67505
0.705	9.06372
0.7055	5.23682
0.706	-4.33044
0.7065	-2.31628
0.707	-3.02124
0.7075	3.22266
0.708	3.12195
0.7085	-0.30212
0.709	-4.33044
0.7095	-9.86938
0.71	-4.02832
0.7105	-0.70496
0.711	3.7262
0.7115	7.04956
0.712	4.63257
0.7125	8.96301
0.713	14.80408
0.7135	16.91895
0.714	12.89062
0.7145	14.50195
0.715	20.34302
0.7155	24.87488
0.716	28.50037
0.7165	25.68054
0.717	19.53735
0.7175	10.87646
0.718	9.46655
0.7185	4.53186
0.719	5.33752
0.7195	8.25806
0.72	6.84814
0.7205	-2.61841
0.721	1.91345
0.7215	-3.52478
0.722	-5.23682
0.7225	-13.89771
0.723	-24.37134
0.7235	-25.177
0.724	-23.66638
0.7245	-10.97717
0.725	-1.10779
0.7255	8.05664
0.726	8.96301
0.7265	7.65381
0.727	7.75452
0.7275	1.61133
0.728	-4.33044
0.7285	-7.5531
0.729	-7.75452
0.7295	-5.0354
0.73	-6.54602
0.7305	-8.25806
0.731	-11.38
0.7315	-4.73328
0.732	-9.56726
0.7325	-9.76868
0.733	-14.09912
0.7335	-8.66089
0.734	-8.25806
0.7345	-8.56018
0.735	-7.04956
0.7355	-1.81274
0.736	1.2085
0.7365	-0.30212
0.737	-3.92761
0.7375	-6.64673
0.738	-6.54602
0.7385	-7.75452
0.739	-13.69629
0.7395	-16.11328
0.74	-17.22107
0.7405	-15.40833
0.741	-10.17151
0.7415	-7.25098
0.742	-1.51062
0.7425	-0.60425
0.743	8.25806
0.7435	8.15735
0.744	11.98425
0.7445	13.99841
0.745	10.17151
0.7455	10.27222
0.746	10.47363
0.7465	9.46655
0.747	5.33752
0.7475	9.36584
0.748	9.66797
0.7485	8.66089
0.749	5.74036
0.7495	8.96301
0.75	7.65381
0.7505	16.01257
0.751	13.09204
0.7515	12.08496
0.752	15.20691
0.7525	19.73877
0.753	18.93311
0.7535	17.92603
0.754	20.44373
0.7545	21.24939
0.755	14.80408
0.7555	10.67505
0.756	9.97009
0.7565	10.27222
0.757	16.01257
0.7575	17.92603
0.758	21.24939
0.7585	15.40833
0.759	-0.50354
0.7595	-3.22266
0.76	-13.99841
0.7605	-15.71045
0.761	-7.5531
0.7615	-10.17151
0.762	-4.73328
0.7625	1.61133
0.763	-3.7262
0.7635	-1.71204
0.764	-2.31628
0.7645	-2.5177
0.765	-3.02124
0.7655	-3.42407
0.766	0.70496
0.7665	3.12195
0.767	-1.2085
0.7675	7.65381
0.768	16.41541
0.7685	23.36426
0.769	16.71753
0.7695	14.60266
0.77	17.72461
0.7705	18.02673
0.771	25.68054
0.7715	31.92444
0.772	29.10461
0.7725	26.58691
0.773	23.26355
0.7735	25.78125
0.774	32.83081
0.7745	25.27771
0.775	6.44531
0.7755	-7.04956
0.776	-9.36584
0.7765	-8.56018
0.777	-1.10779
0.7775	0.50354
0.778	4.02832
0.7785	0.40283
0.779	-2.01416
0.7795	-6.2439
0.78	-10.0708
0.7805	-11.17859
0.781	-12.38708
0.7815	-11.38
0.782	-7.35168
0.7825	-4.33044
0.783	4.12903
0.7835	4.43115
0.784	13.59558
0.7845	10.77576
0.785	10.77576
0.7855	2.92053
0.786	6.2439
0.7865	10.97717
0.787	5.94177
0.7875	3.7262
0.788	6.94885
0.7885	14.40125
0.789	10.0708
0.7895	7.15027
0.79	15.91187
0.7905	14.30054
0.791	10.87646
0.7915	14.40125
0.792	17.42249
0.7925	14.90479
0.793	19.33594
0.7935	20.74585
0.794	20.74585
0.7945	19.63806
0.795	15.50903
0.7955	12.48779
0.796	13.29346
0.7965	10.57434
0.797	3.8269
0.7975	5.23682
0.798	-0.40283
0.7985	-9.16443
0.799	-25.27771
0.7995	-33.63647
0.8	-35.2478
0.8005	-25.47913
0.801	-20.54443
0.8015	-14.30054
0.802	-9.16443
0.8025	-6.44531
0.803	-7.45239
0.8035	-5.13611
0.804	-5.0354
0.8045	-2.71912
0.805	-3.8269
0.8055	2.41699
0.806	1.2085
0.8065	6.84814
0.807	6.64673
0.8075	5.74036
0.808	7.15027
0.8085	3.32336
0.809	-0.70496
0.8095	-1.81274
0.81	-2.81982
0.8105	-5.0354
0.811	-8.25806
0.8115	-14.60266
0.812	-12.99133
0.8125	-17.82532
0.813	-17.52319
0.8135	-10.97717
0.814	-12.5885
0.8145	-5.43823
0.815	-7.5531
0.8155	-0.90637
0.816	9.66797
0.8165	7.85522
0.817	0.40283
0.8175	-2.92053
0.818	-1.40991
0.8185	0.60425
0.819	5.13611
0.8195	8.25806
0.82	10.77576
0.8205	10.57434
0.821	10.67505
0.8215	6.64673
0.822	4.02832
0.8225	5.13611
0.823	9.76868
0.8235	14.80408
0.824	16.71753
0.8245	19.13452
0.825	19.83948
0.8255	20.74585
0.826	20.04089
0.8265	20.24231
0.827	19.33594
0.8275	17.92603
0.828	13.89771
0.8285	11.78284
0.829	1.91345
0.8295	-0.80566
0.83	-1.91345
0.8305	-8.8623
0.831	-11.07788
0.8315	-18.22815
0.832	-18.32886
0.8325	-13.29346
0.833	-9.16443
0.8335	4.12903
0.834	1.3092
0.8345	5.43823
0.835	11.58142
0.8355	17.22107
0.836	23.96851
0.8365	17.32178
0.837	15.71045
0.8375	12.68921
0.838	8.96301
0.8385	15.00549
0.839	23.16284
0.8395	26.18408
0.84	40.1825
0.8405	48.64197
0.841	50.354
0.8415	58.91418
0.842	59.82056
0.8425	65.25879
0.843	61.83472
0.8435	52.46887
0.844	43.80798
0.8445	30.31311
0.845	21.45081
0.8455	4.53186
0.846	-11.58142
0.8465	-21.85364
0.847	-32.12585
0.8475	-38.57117
0.848	-41.18958
0.8485	-43.00232
0.849	-32.22656
0.8495	-24.57275
0.85	-12.99133
0.8505	-6.14319
0.851	-1.00708
0.8515	6.84814
0.852	10.57434
0.8525	8.56018
0.853	-1.3092
0.8535	-6.2439
0.854	-3.12195
0.8545	-1.81274
0.855	-12.5885
0.8555	-10.97717
0.856	-17.42249
0.8565	-27.09045
0.857	-27.89612
0.8575	-15.20691
0.858	-3.62549
0.8585	-2.61841
0.859	-0.90637
0.8595	-6.14319
0.86	-7.75452
0.8605	-2.5177
0.861	-4.73328
0.8615	-0.40283
0.862	4.93469
0.8625	3.7262
0.863	3.62549
0.8635	-1.81274
0.864	1.51062
0.8645	11.38
0.865	10.37292
0.8655	10.67505
0.866	10.37292
0.8665	9.86938
0.867	10.17151
0.8675	12.68921
0.868	12.5885
0.8685	8.35876
0.869	1.2085
0.8695	4.12903
0.87	4.22974
0.8705	9.66797
0.871	6.04248
0.8715	5.33752
0.872	9.97009
0.8725	11.2793
0.873	8.05664
0.8735	9.66797
0.874	6.54602
0.8745	10.37292
0.875	11.68213
0.8755	6.64673
0.876	1.3092
0.8765	1.3092
0.877	1.61133
0.8775	1.61133
0.878	15.00549
0.8785	11.17859
0.879	14.50195
0.8795	19.53735
0.88	15.1062
0.8805	5.33752
0.881	5.84106
0.8815	5.43823
0.882	-0.90637
0.8825	5.84106
0.883	2.61841
0.8835	0.90637
0.884	6.64673
0.8845	19.83948
0.885	10.67505
0.8855	3.42407
0.886	-7.45239
0.8865	-9.56726
0.887	-7.45239
0.8875	-9.36584
0.888	-1.71204
0.8885	-4.12903
0.889	-3.32336
0.8895	-1.10779
0.89	3.42407
0.8905	0.80566
0.891	3.7262
0.8915	11.88354
0.892	13.39417
0.8925	18.12744
0.893	25.57983
0.8935	24.57275
0.894	29.00391
0.8945	31.82373
0.895	30.81665
0.8955	26.78833
0.896	26.78833
0.8965	25.07629
0.897	25.07629
0.8975	15.91187
0.898	12.5885
0.8985	1.51062
0.899	-7.5531
0.8995	-12.28638
0.9	-18.63098
0.9005	-20.24231
0.901	-22.35718
0.9015	-12.68921
0.902	-5.74036
0.9025	8.66089
0.903	22.05505
0.9035	30.41382
0.904	39.57825
0.9045	31.32019
0.905	30.61523
0.9055	26.48621
0.906	17.6239
0.9065	6.84814
0.907	-7.45239
0.9075	-9.97009
0.908	-8.8623
0.9085	-12.48779
0.909	-13.59558
0.9095	-24.37134
0.91	-20.34302
0.9105	-9.86938
0.911	-5.94177
0.9115	3.62549
0.912	-1.00708
0.9125	4.02832
0.913	15.00549
0.9135	17.42249
0.914	17.01965
0.9145	14.30054
0.915	11.38
0.9155	4.33044
0.916	4.73328
0.9165	1.81274
0.917	2.61841
0.9175	3.42407
0.918	8.35876
0.9185	2.92053
0.919	4.63257
0.9195	12.08496
0.92	17.82532
0.9205	11.38
0.921	16.61682
0.9215	14.80408
0.922	19.53735
0.9225	24.06921
0.923	22.45789
0.9235	26.48621
0.924	20.24231
0.9245	27.39258
0.925	25.37842
0.9255	19.23523
0.926	15.00549
0.9265	16.91895
0.927	15.40833
0.9275	19.03381
0.928	18.63098
0.9285	19.83948
0.929	17.42249
0.9295	18.73169
0.93	16.41541
0.9305	16.51611
0.931	15.60974
0.9315	20.94727
0.932	22.6593
0.9325	15.91187
0.933	14.09912
0.9335	9.16443
0.934	8.05664
0.9345	0.60425
0.935	2.5177
0.9355	-0.80566
0.936	-11.78284
0.9365	-15.50903
0.937	-12.38708
0.9375	-7.25098
0.938	-3.12195
0.9385	-11.48071
0.939	-0.50354
0.9395	-6.3446
0.94	2.01416
0.9405	7.35168
0.941	11.78284
0.9415	-2.71912
0.942	-9.86938
0.9425	-10.17151
0.943	-6.44531
0.9435	-1.00708
0.944	2.5177
0.9445	13.39417
0.945	8.56018
0.9455	12.28638
0.946	14.50195
0.9465	15.81116
0.947	9.26514
0.9475	2.61841
0.948	-3.52478
0.9485	-9.26514
0.949	-7.5531
0.9495	0
0.95	5.94177
0.9505	2.31628
0.951	-1.40991
0.9515	-2.31628
0.952	-13.39417
0.9525	-22.05505
0.953	-17.22107
0.9535	-13.19275
0.954	-6.2439
0.9545	4.63257
0.955	5.53894
0.9555	8.7616
0.956	13.19275
0.9565	19.23523
0.957	20.04089
0.9575	22.76001
0.958	24.67346
0.9585	19.13452
0.959	13.49487
0.9595	14.30054
0.96	7.85522
0.9605	10.27222
0.961	7.25098
0.9615	-3.12195
0.962	-1.40991
0.9625	-6.74744
0.963	4.43115
0.9635	7.15027
0.964	2.71912
0.9645	0.50354
0.965	5.74036
0.9655	1.51062
0.966	7.65381
0.9665	0.50354
0.967	-5.13611
0.9675	-8.25806
0.968	-13.59558
0.9685	-14.80408
0.969	-11.17859
0.9695	-5.74036
0.97	-6.74744
0.9705	4.33044
0.971	1.3092
0.9715	5.23682
0.972	1.51062
0.9725	3.92761
0.973	7.35168
0.9735	2.11487
0.974	7.04956
0.9745	9.56726
0.975	5.63965
0.9755	0.30212
0.976	-5.94177
0.9765	-1.40991
0.977	3.32336
0.9775	2.71912
0.978	8.96301
0.9785	2.01416
0.979	12.89062
0.9795	16.01257
0.98	9.56726
0.9805	8.66089
0.981	13.39417
0.9815	17.82532
0.982	13.39417
0.9825	13.59558
0.983	17.01965
0.9835	11.68213
0.984	4.33044
0.9845	9.36584
0.985	-2.21558
0.9855	-9.56726
0.986	-10.77576
0.9865	-14.80408
0.987	-6.94885
0.9875	-10.37292
0.988	-5.23682
0.9885	-8.05664
0.989	-12.5885
0.9895	-10.37292
0.99	-13.89771
0.9905	-16.3147
0.991	-10.27222
0.9915	5.43823
0.992	14.70337
0.9925	13.69629
0.993	16.51611
0.9935	9.97009
0.994	9.16443
0.9945	2.81982
0.995	6.64673
0.9955	3.02124
0.996	2.21558
0.9965	-0.30212
0.997	-0.50354
0.9975	-0.10071
0.998	1.71204
0.9985	10.27222
0.999	8.8623
0.9995	9.56726
1	11.58142
1.0005	18.73169
1.001	16.41541
1.0015	15.1062
1.002	10.77576
1.0025	7.85522
1.003	4.33044
1.0035	5.23682
1.004	7.25098
1.0045	12.48779
1.005	14.70337
1.0055	15.40833
1.006	6.84814
1.0065	6.64673
1.007	3.92761
1.0075	6.44531
1.008	8.15735
1.0085	7.35168
1.009	-1.61133
1.0095	-9.16443
1.01	-10.0708
1.0105	-6.64673
1.011	-3.52478
1.0115	-6.44531
1.012	-15.91187
1.0125	-16.11328
1.013	-20.54443
1.0135	-18.63098
1.014	-16.51611
1.0145	-8.56018
1.015	-10.17151
1.0155	-9.97009
1.016	-6.3446
1.0165	-3.52478
1.017	8.66089
1.0175	5.43823
1.018	4.93469
1.0185	5.53894
1.019	15.60974
1.0195	17.52319
1.02	20.04089
1.0205	22.76001
1.021	18.73169
1.0215	8.35876
1.022	14.40125
1.0225	10.27222
1.023	8.35876
1.0235	-2.61841
1.024	-8.15735
1.0245	-16.11328
1.025	-16.81824
1.0255	-13.69629
1.026	-16.3147
1.0265	-12.68921
1.027	-14.30054
1.0275	-12.99133
1.028	-8.15735
1.0285	-4.22974
1.029	2.71912
1.0295	5.0354
1.03	6.2439
1.0305	-0.40283
1.031	4.93469
1.0315	9.56726
1.032	9.56726
1.0325	13.39417
1.033	17.82532
1.0335	23.96851
1.034	30.2124
1.0345	30.01099
1.035	28.19824
1.0355	32.93152
1.036	31.52161
1.0365	27.89612
1.037	27.49329
1.0375	36.75842
1.038	33.43506
1.0385	33.9386
1.039	33.33435
1.0395	29.70886
1.04	20.64514
1.0405	13.19275
1.041	6.04248
1.0415	10.0708
1.042	11.78284
1.0425	23.06213
1.043	23.26355
1.0435	28.80249
1.044	36.95984
1.0445	27.39258
1.045	8.15735
1.0455	-10.47363
1.046	-16.71753
1.0465	-21.24939
1.047	-12.18567
1.0475	-10.47363
1.048	-6.3446
1.0485	-6.04248
1.049	-10.37292
1.0495	-9.06372
1.05	-8.56018
1.0505	-10.97717
1.051	-8.45947
1.0515	-1.3092
1.052	2.81982
1.0525	12.5885
1.053	18.22815
1.0535	28.80249
1.054	28.70178
1.0545	30.31311
1.055	27.79541
1.0555	17.72461
1.056	13.09204
1.0565	6.04248
1.057	0.60425
1.0575	0.50354
1.058	-9.66797
1.0585	0.10071
1.059	1.91345
1.0595	-0.30212
1.06	-3.62549
1.0605	-4.33044
1.061	-4.12903
1.0615	-6.04248
1.062	-3.02124
1.0625	5.74036
1.063	6.64673
1.0635	4.12903
1.064	10.67505
1.0645	13.39417
1.065	19.63806
1.0655	10.67505
1.066	17.52319
1.0665	15.81116
1.067	17.52319
1.0675	15.40833
1.068	9.76868
1.0685	7.65381
1.069	3.52478
1.0695	0.70496
1.07	8.15735
1.0705	10.47363
1.071	9.66797
1.0715	11.07788
1.072	10.17151
1.0725	14.50195
1.073	14.40125
1.0735	23.06213
1.074	25.57983
1.0745	25.37842
1.075	27.6947
1.0755	32.42798
1.076	34.44214
1.0765	36.75842
1.077	33.73718
1.0775	38.36975
1.078	34.64355
1.0785	28.50037
1.079	25.78125
1.0795	18.53027
1.08	10.0708
1.0805	-4.22974
1.081	-11.38
1.0815	-15.40833
1.082	-25.88196
1.0825	-35.04639
1.083	-49.14551
1.0835	-58.41064
1.084	-55.3894
1.0845	-47.23206
1.085	-34.24072
1.0855	-16.3147
1.086	-5.84106
1.0865	-2.11487
1.087	-2.31628
1.0875	-5.23682
1.088	-4.02832
1.0885	-6.74744
1.089	-5.33752
1.0895	-5.63965
1.09	-7.85522
1.0905	-3.32336
1.091	0
1.0915	0.50354
1.092	-4.43115
1.0925	1.40991
1.093	6.14319
1.0935	2.5177
1.094	0
1.0945	4.12903
1.095	3.32336
1.0955	4.22974
1.096	2.92053
1.0965	6.14319
1.097	11.48071
1.0975	20.84656
1.098	16.41541
1.0985	23.46497
1.099	35.44922
1.0995	35.75134
1.1	37.36267
1.1005	39.88037
1.101	38.974
1.1015	37.46338
1.102	33.63647
1.1025	31.52161
1.103	17.32178
1.1035	-1.3092
1.104	-13.09204
1.1045	-25.07629
1.105	-25.27771
1.1055	-34.24072
1.106	-33.33435
1.1065	-23.56567
1.107	-15.60974
1.1075	-14.19983
1.108	-7.15027
1.1085	0.70496
1.109	7.25098
1.1095	4.53186
1.11	1.10779
1.1105	2.21558
1.111	5.0354
1.1115	-2.01416
1.112	-11.17859
1.1125	-4.73328
1.113	1.71204
1.1135	-4.12903
1.114	3.8269
1.1145	0.20142
1.115	4.33044
1.1155	6.14319
1.116	9.16443
1.1165	17.72461
1.117	12.5885
1.1175	13.49487
1.118	12.48779
1.1185	7.25098
1.119	7.04956
1.1195	5.13611
1.12	-3.12195
1.1205	-8.15735
1.121	-15.30762
1.1215	-12.89062
1.122	-1.10779
1.1225	1.2085
1.123	0.10071
1.1235	-7.5531
1.124	-12.99133
1.1245	-10.67505
1.125	-3.02124
1.1255	6.74744
1.126	17.42249
1.1265	19.63806
1.127	24.47205
1.1275	28.50037
1.128	21.95435
1.1285	17.32178
1.129	13.39417
1.1295	6.14319
1.13	4.22974
1.1305	9.86938
1.131	8.56018
1.1315	11.07788
1.132	7.04956
1.1325	9.66797
1.133	5.33752
1.1335	10.57434
1.134	15.1062
1.1345	14.80408
1.135	12.68921
1.1355	-0.10071
1.136	3.42407
1.1365	5.0354
1.137	-2.41699
1.1375	-6.54602
1.138	-5.23682
1.1385	-3.52478
1.139	8.66089
1.1395	7.5531
1.14	14.80408
1.1405	16.61682
1.141	21.24939
1.1415	17.22107
1.142	10.17151
1.1425	11.68213
1.143	16.11328
1.1435	17.42249
1.144	4.53186
1.1445	0.30212
1.145	-2.5177
1.1455	-3.62549
1.146	-7.75452
1.1465	-0.40283
1.147	5.0354
1.1475	6.3446
1.148	7.5531
1.1485	0.50354
1.149	0.20142
1.1495	0.60425
1.15	0.70496
1.1505	0
1.151	0.40283
1.1515	4.33044
1.152	3.02124
1.1525	0.80566
1.153	3.52478
1.1535	13.19275
1.154	19.63806
1.1545	20.64514
1.155	23.66638
1.1555	27.99683
1.156	22.15576
1.1565	30.01099
1.157	30.31311
1.1575	30.2124
1.158	36.65771
1.1585	31.11877
1.159	22.25647
1.1595	10.57434
1.16	1.81274
1.1605	-8.8623
1.161	-10.47363
1.1615	-17.92603
1.162	-18.42957
1.1625	-15.81116
1.163	-4.02832
1.1635	-12.99133
1.164	-33.13293
1.1645	-41.4917
1.165	-31.82373
1.1655	-21.45081
1.166	-15.20691
1.1665	-3.52478
1.167	2.92053
1.1675	2.81982
1.168	7.35168
1.1685	10.77576
1.169	6.44531
1.1695	5.13611
1.17	-2.81982
1.1705	-5.23682
1.171	-2.21558
1.1715	-2.31628
1.172	0.90637
1.1725	8.66089
1.173	9.76868
1.1735	13.39417
1.174	9.86938
1.1745	17.01965
1.175	22.96143
1.1755	29.60815
1.176	35.34851
1.1765	37.7655
1.177	49.14551
1.1775	52.36816
1.178	45.82214
1.1785	40.88745
1.179	35.14709
1.1795	20.04089
1.18	12.18567
1.1805	10.67505
1.181	12.5885
1.1815	8.66089
1.182	14.60266
1.1825	10.87646
1.183	-4.43115
1.1835	-23.66638
1.184	-38.87329
1.1845	-53.67737
1.185	-62.9425
1.1855	-56.39648
1.186	-48.64197
1.1865	-34.24072
1.187	-30.2124
1.1875	-8.15735
1.188	-2.5177
1.1885	3.52478
1.189	6.04248
1.1895	4.73328
1.19	1.10779
1.1905	2.21558
1.191	7.5531
1.1915	6.94885
1.192	12.38708
1.1925	23.26355
1.193	29.30603
1.1935	31.92444
1.194	21.14868
1.1945	1.71204
1.195	-3.8269
1.1955	-6.74744
1.196	-1.40991
1.1965	-8.35876
1.197	-17.42249
1.1975	-23.76709
1.198	-17.01965
1.1985	-10.17151
1.199	-4.63257
1.1995	1.51062
1.2	0.30212
1.2005	4.43115
1.201	13.69629
1.2015	22.96143
1.202	18.8324
1.2025	18.63098
1.203	17.72461
1.2035	24.97559
1.204	21.45081
1.2045	18.53027
1.205	15.00549
1.2055	7.85522
1.206	-0.80566
1.2065	-1.2085
1.207	5.0354
1.2075	6.3446
1.208	14.80408
1.2085	17.32178
1.209	14.80408
1.2095	10.77576
1.21	19.13452
1.2105	13.69629
1.211	16.11328
1.2115	14.50195
1.212	10.57434
1.2125	15.1062
1.213	16.41541
1.2135	7.85522
1.214	7.15027
1.2145	12.99133
1.215	24.47205
1.2155	30.01099
1.216	33.13293
1.2165	34.44214
1.217	30.31311
1.2175	24.27063
1.218	21.65222
1.2185	14.19983
1.219	3.32336
1.2195	4.73328
1.22	3.7262
1.2205	13.39417
1.221	16.51611
1.2215	12.48779
1.222	-2.61841
1.2225	-23.46497
1.223	-38.36975
1.2235	-55.3894
1.224	-54.48303
1.2245	-40.88745
1.225	-29.40674
1.2255	-14.80408
1.226	-5.43823
1.2265	11.58142
1.227	7.75452
1.2275	10.37292
1.228	11.2793
1.2285	7.25098
1.229	0.60425
1.2295	2.41699
1.23	-0.90637
1.2305	-0.70496
1.231	-4.73328
1.2315	-9.76868
1.232	-7.25098
1.2325	4.43115
1.233	11.48071
1.2335	12.99133
1.234	12.18567
1.2345	22.96143
1.235	34.14001
1.2355	36.55701
1.236	43.80798
1.2365	33.33435
1.237	22.96143
1.2375	11.58142
1.238	13.69629
1.2385	16.91895
1.239	13.59558
1.2395	10.47363
1.24	11.58142
1.2405	16.71753
1.241	23.56567
1.2415	19.33594
1.242	9.86938
1.2425	3.22266
1.243	4.43115
1.2435	8.15735
1.244	9.36584
1.2445	13.29346
1.245	13.09204
1.2455	18.02673
1.246	30.61523
1.2465	23.96851
1.247	19.94019
1.2475	15.91187
1.248	11.17859
1.2485	6.84814
1.249	7.65381
1.2495	3.62549
1.25	3.32336
1.2505	4.22974
1.251	5.23682
1.2515	3.8269
1.252	-5.94177
1.2525	-15.00549
1.253	-13.59558
1.2535	-16.61682
1.254	-13.59558
1.2545	-12.08496
1.255	-11.88354
1.2555	-2.71912
1.256	-0.30212
1.2565	-4.02832
1.257	-7.35168
1.2575	0
1.258	-9.36584
1.2585	-7.65381
1.259	-8.15735
1.2595	-7.15027
1.26	-7.35168
1.2605	-4.53186
1.261	7.04956
1.2615	10.27222
1.262	4.12903
1.2625	8.35876
1.263	4.12903
1.2635	2.92053
1.264	7.45239
1.2645	15.00549
1.265	17.01965
1.2655	12.89062
1.266	14.09912
1.2665	22.35718
1.267	27.29187
1.2675	35.14709
1.268	18.53027
1.2685	12.68921
1.269	4.93469
1.2695	-2.61841
1.27	-11.88354
1.2705	-7.85522
1.271	-5.63965
1.2715	-5.63965
1.272	-5.0354
1.2725	1.51062
1.273	-5.33752
1.2735	-11.78284
1.274	-15.91187
1.2745	-13.49487
1.275	-11.2793
1.2755	-6.14319
1.276	2.5177
1.2765	0.90637
1.277	-9.36584
1.2775	-3.02124
1.278	-4.63257
1.2785	0.40283
1.279	4.33044
1.2795	1.71204
1.28	0.60425
1.2805	-4.63257
1.281	-1.40991
1.2815	-0.70496
1.282	2.01416
1.2825	6.64673
1.283	7.04956
1.2835	12.68921
1.284	25.98267
1.2845	30.11169
1.285	27.29187
1.2855	30.71594
1.286	31.82373
1.2865	30.51453
1.287	34.84497
1.2875	28.70178
1.288	18.93311
1.2885	14.70337
1.289	10.17151
1.2895	11.38
1.29	18.53027
1.2905	12.28638
1.291	-2.61841
1.2915	-9.86938
1.292	-9.16443
1.2925	-7.35168
1.293	-7.25098
1.2935	-8.25806
1.294	-5.53894
1.2945	-2.71912
1.295	11.48071
1.2955	14.19983
1.296	16.21399
1.2965	10.67505
1.297	15.40833
1.2975	16.71753
1.298	6.14319
1.2985	5.13611
1.299	5.84106
1.2995	-2.71912
1.3	-3.22266
1.3005	-7.45239
1.301	-2.81982
1.3015	4.73328
1.302	14.60266
1.3025	29.40674
1.303	34.44214
1.3035	37.86621
1.304	36.55701
1.3045	39.27612
1.305	38.47046
1.3055	32.02515
1.306	34.84497
1.3065	26.78833
1.307	17.52319
1.3075	14.09912
1.308	5.43823
1.3085	4.12903
1.309	-1.00708
1.3095	-9.46655
1.31	-19.53735
1.3105	-22.25647
1.311	-23.8678
1.3115	-26.28479
1.312	-23.46497
1.3125	-13.89771
1.313	-21.3501
1.3135	-23.56567
1.314	-19.43665
1.3145	-14.60266
1.315	-26.3855
1.3155	-25.27771
1.316	-22.25647
1.3165	-16.01257
1.317	-13.19275
1.3175	-9.97009
1.318	-15.50903
1.3185	-18.12744
1.319	-20.94727
1.3195	-15.50903
1.32	-12.28638
1.3205	-9.56726
1.321	1.61133
1.3215	2.31628
1.322	2.11487
1.3225	-0.90637
1.323	3.8269
1.3235	5.74036
1.324	13.39417
1.3245	15.60974
1.325	16.71753
1.3255	15.20691
1.326	24.67346
1.3265	24.97559
1.327	17.42249
1.3275	11.07788
1.328	7.5531
1.3285	11.78284
1.329	17.32178
1.3295	22.86072
1.33	25.68054
1.3305	18.73169
1.331	11.48071
1.3315	1.10779
1.332	-7.25098
1.3325	-3.7262
1.333	-4.12903
1.3335	-6.3446
1.334	-8.56018
1.3345	-9.26514
1.335	-6.64673
1.3355	-0.70496
1.336	7.95593
1.3365	11.98425
1.337	10.0708
1.3375	4.43115
1.338	1.81274
1.3385	3.92761
1.339	9.36584
1.3395	41.18958
1.34	57.9071
1.3405	62.13684
1.341	68.07861
1.3415	85.90393
1.342	102.72217
1.3425	98.59314
1.343	81.7749
1.3435	68.38074
1.344	50.95825
1.3445	25.57983
1.345	4.22974
1.3455	-2.5177
1.346	-15.00549
1.3465	-14.30054
1.347	-9.36584
1.3475	-12.99133
1.348	-17.01965
1.3485	-12.89062
1.349	-23.06213
1.3495	-28.60107
1.35	-31.62231
1.3505	-35.75134
1.351	-40.08179
1.3515	-43.50586
1.352	-49.85046
1.3525	-50.354
1.353	-50.45471
1.3535	-44.0094
1.354	-51.76392
1.3545	-48.54126
1.355	-40.78674
1.3555	-45.3186
1.356	-41.39099
1.3565	-33.53577
1.357	-28.29895
1.3575	-10.87646
1.358	-10.87646
1.3585	-10.87646
1.359	-10.87646
1.3595	-10.87646
1.36	-10.87646
1.3605	-10.87646
1.361	-10.87646
1.3615	-10.87646
1.362	-10.87646
1.3625	-10.87646
1.363	-10.87646
1.3635	-10.87646
1.364	-10.87646
1.3645	-10.87646
1.365	-10.87646
1.3655	-10.87646
1.366	-10.87646
1.3665	-10.87646
1.367	-10.87646
1.3675	-10.87646
1.368	15.81116
1.3685	18.12744
1.369	17.01965
1.3695	9.86938
1.37	11.58142
1.3705	-1.81274
1.371	-9.66797
1.3715	-16.51611
1.372	-30.2124
1.3725	-21.04797
1.373	-9.06372
1.3735	-5.74036
1.374	-0.40283
1.3745	2.81982
1.375	9.16443
1.3755	6.94885
1.376	11.2793
1.3765	9.86938
1.377	18.73169
1.3775	22.6593
1.378	25.27771
1.3785	23.8678
1.379	25.177
1.3795	22.15576
1.38	24.97559
1.3805	18.32886
1.381	23.96851
1.3815	20.94727
1.382	19.03381
1.3825	24.77417
1.383	19.33594
1.3835	16.3147
1.384	6.84814
1.3845	-1.40991
1.385	-11.17859
1.3855	-10.67505
1.386	-2.11487
1.3865	-4.63257
1.387	-3.42407
1.3875	-2.41699
1.388	0.10071
1.3885	6.64673
1.389	11.88354
1.3895	7.35168
1.39	0.50354
1.3905	-6.3446
1.391	-6.74744
1.3915	3.42407
1.392	8.35876
1.3925	8.15735
1.393	7.45239
1.3935	9.16443
1.394	5.84106
1.3945	8.05664
1.395	3.8269
1.3955	11.78284
1.396	11.17859
1.3965	5.53894
1.397	12.78992
1.3975	15.81116
1.398	18.8324
1.3985	16.01257
1.399	14.30054
1.3995	9.36584
1.4	2.01416
1.4005	-6.2439
1.401	3.42407
1.4015	1.00708
1.402	6.54602
1.4025	6.74744
1.403	4.53186
1.4035	-2.61841
1.404	3.42407
1.4045	4.73328
1.405	0.80566
1.4055	4.53186
1.406	7.75452
1.4065	11.2793
1.407	16.91895
1.4075	21.3501
1.408	13.99841
1.4085	13.29346
1.409	7.5531
1.4095	15.30762
1.41	14.30054
1.4105	17.22107
1.411	16.21399
1.4115	18.02673
1.412	15.71045
1.4125	12.28638
1.413	8.35876
1.4135	5.53894
1.414	6.74744
1.4145	8.8623
1.415	13.99841
1.4155	7.65381
1.416	5.53894
1.4165	1.10779
1.417	3.22266
1.4175	3.02124
1.418	7.35168
1.4185	11.07788
1.419	19.83948
1.4195	18.53027
1.42	9.56726
1.4205	6.14319
1.421	1.00708
1.4215	3.7262
1.422	3.8269
1.4225	-3.8269
1.423	-9.16443
1.4235	-8.66089
1.424	-8.96301
1.4245	-6.84814
1.425	-7.04956
1.4255	-15.1062
1.426	-12.99133
1.4265	-14.80408
1.427	-14.40125
1.4275	-6.44531
1.428	-6.84814
1.4285	-8.8623
1.429	-0.70496
1.4295	-7.5531
1.43	1.10779
1.4305	-4.02832
1.431	-4.43115
1.4315	-0.30212
1.432	-2.61841
1.4325	-3.7262
1.433	-4.02832
1.4335	-4.43115
1.434	4.22974
1.4345	4.93469
1.435	8.15735
1.4355	4.43115
1.436	8.96301
1.4365	9.06372
1.437	5.43823
1.4375	6.84814
1.438	8.25806
1.4385	8.05664
1.439	5.63965
1.4395	6.2439
1.44	7.25098
1.4405	11.38
1.441	16.21399
1.4415	10.37292
1.442	1.40991
1.4425	-9.36584
1.443	-7.35168
1.4435	-9.76868
1.444	-0.90637
1.4445	-0.80566
1.445	0.30212
1.4455	0.20142
1.446	1.00708
1.4465	6.14319
1.447	6.44531
1.4475	11.48071
1.448	13.39417
1.4485	6.14319
1.449	1.51062
1.4495	-1.91345
1.45	0.70496
1.4505	-2.11487
1.451	-0.30212
1.4515	3.22266
1.452	2.31628
1.4525	-0.50354
1.453	0.70496
1.4535	4.83398
1.454	5.63965
1.4545	8.05664
1.455	27.79541
1.4555	44.51294
1.456	53.57666
1.4565	58.81348
1.457	67.57507
1.4575	61.93542
1.458	50.05188
1.4585	33.43506
1.459	19.23523
1.4595	2.21558
1.46	-15.20691
1.4605	-25.27771
1.461	-31.52161
1.4615	-33.9386
1.462	-39.98108
1.4625	-31.4209
1.463	-33.83789
1.4635	-30.2124
1.464	-25.57983
1.4645	-13.69629
1.465	-15.00549
1.4655	-8.15735
1.466	0.40283
1.4665	1.91345
1.467	10.97717
1.4675	11.68213
1.468	7.85522
1.4685	2.01416
1.469	14.90479
1.4695	12.5885
1.47	11.58142
1.4705	11.38
1.471	7.5531
1.4715	6.84814
1.472	8.56018
1.4725	4.43115
1.473	5.43823
1.4735	0.10071
1.474	0.70496
1.4745	2.31628
1.475	12.99133
1.4755	12.99133
1.476	9.36584
1.4765	12.89062
1.477	17.32178
1.4775	15.71045
1.478	13.49487
1.4785	13.29346
1.479	16.21399
1.4795	20.74585
1.48	16.91895
1.4805	12.78992
1.481	9.06372
1.4815	4.43115
1.482	-1.3092
1.4825	0.90637
1.483	0
1.4835	1.40991
1.484	4.63257
1.4845	-1.71204
1.485	-1.00708
1.4855	-0.50354
1.486	4.53186
1.4865	-1.3092
1.487	5.43823
1.4875	6.3446
1.488	8.15735
1.4885	6.94885
1.489	7.04956
1.4895	3.02124
1.49	0.80566
1.4905	-1.10779
1.491	-5.74036
1.4915	-3.32336
1.492	-3.02124
1.4925	-2.92053
1.493	-1.51062
1.4935	-0.60425
1.494	5.23682
1.4945	0.70496
1.495	-8.45947
1.4955	-7.65381
1.496	-3.32336
1.4965	2.11487
1.497	-2.31628
1.4975	7.85522
1.498	7.85522
1.4985	7.5531
1.499	-1.3092
1.4995	-1.40991
1.5	-2.31628
1.5005	-3.52478
1.501	-6.44531
1.5015	-5.23682
1.502	-3.8269
1.5025	-2.01416
1.503	2.81982
1.5035	7.25098
1.504	5.43823
1.5045	11.58142
1.505	9.86938
1.5055	12.5885
1.506	15.1062
1.5065	9.66797
1.507	8.25806
1.5075	5.23682
1.508	7.35168
1.5085	2.92053
1.509	4.12903
1.5095	7.15027
1.51	5.13611
1.5105	1.71204
1.511	3.12195
1.5115	-5.33752
1.512	-4.43115
1.5125	-4.53186
1.513	-5.33752
1.5135	-1.71204
1.514	-3.32336
1.5145	-3.22266
1.515	-2.92053
1.5155	-6.44531
1.516	-4.63257
1.5165	-5.0354
1.517	-5.84106
1.5175	-2.41699
1.518	-2.5177
1.5185	-2.71912
1.519	-4.22974
1.5195	1.40991
1.52	-0.30212
1.5205	3.32336
1.521	-1.10779
1.5215	2.71912
1.522	1.61133
1.5225	3.62549
1.523	4.33044
1.5235	-1.71204
1.524	0.80566
1.5245	1.2085
1.525	5.63965
1.5255	7.75452
1.526	11.68213
1.5265	9.66797
1.527	12.48779
1.5275	9.26514
1.528	12.08496
1.5285	11.48071
1.529	13.49487
1.5295	8.96301
1.53	8.45947
1.5305	10.0708
1.531	5.94177
1.5315	9.97009
1.532	6.94885
1.5325	3.52478
1.533	7.85522
1.5335	4.22974
1.534	11.17859
1.5345	11.2793
1.535	14.19983
1.5355	24.87488
1.536	53.57666
1.5365	66.76941
1.537	71.30127
1.5375	64.95667
1.538	52.06604
1.5385	41.99524
1.539	20.54443
1.5395	5.94177
1.54	-2.71912
1.5405	-13.99841
1.541	-27.19116
1.5415	-31.21948
1.542	-38.06763
1.5425	-35.2478
1.543	-37.26196
1.5435	-34.34143
1.544	-33.23364
1.5445	-30.41382
1.545	-23.46497
1.5455	-16.21399
1.546	-18.02673
1.5465	-13.39417
1.547	-6.54602
1.5475	-6.74744
1.548	-0.30212
1.5485	4.12903
1.549	4.93469
1.5495	10.97717
1.55	12.68921
1.5505	15.60974
1.551	34.64355
1.5515	35.65063
1.552	35.85205
1.5525	34.03931
1.553	27.39258
1.5535	24.57275
1.554	31.72302
1.5545	38.36975
1.555	30.91736
1.5555	32.83081
1.556	19.43665
1.5565	6.74744
1.557	-4.83398
1.5575	-18.73169
1.558	-26.08337
1.5585	-32.83081
1.559	-37.96692
1.5595	-37.96692
1.56	-34.03931
1.5605	-31.92444
1.561	-26.28479
1.5615	-20.94727
1.562	-23.96851
1.5625	-22.35718
1.563	-13.99841
1.5635	-12.38708
1.564	-4.33044
1.5645	-1.61133
1.565	4.63257
1.5655	1.00708
1.566	3.02124
1.5665	2.01416
1.567	3.52478
1.5675	10.67505
1.568	5.63965
1.5685	9.66797
1.569	4.63257
1.5695	0
1.57	9.26514
1.5705	10.17151
1.571	5.94177
1.5715	18.53027
1.572	41.99524
1.5725	51.26038
1.573	52.16675
1.5735	41.79382
1.574	32.93152
1.5745	22.96143
1.575	16.01257
1.5755	8.66089
1.576	-6.2439
1.5765	-8.66089
1.577	-15.1062
1.5775	-18.8324
1.578	-20.44373
1.5785	-16.91895
1.579	-20.64514
1.5795	-18.12744
1.58	-16.01257
1.5805	-10.57434
1.581	-8.15735
1.5815	-10.37292
1.582	-8.7616
1.5825	-7.25098
1.583	4.12903
1.5835	2.92053
1.584	6.14319
1.5845	3.42407
1.585	-0.20142
1.5855	5.53894
1.586	7.95593
1.5865	7.85522
1.587	9.06372
1.5875	8.05664
1.588	-0.20142
1.5885	8.8623
1.589	9.06372
1.5895	9.16443
1.59	8.66089
1.5905	11.17859
1.591	13.19275
1.5915	19.83948
1.592	31.62231
1.5925	41.39099
1.593	47.43347
1.5935	40.68604
1.594	36.25488
1.5945	30.71594
1.595	27.39258
1.5955	12.38708
1.596	8.35876
1.5965	3.8269
1.597	1.51062
1.5975	-3.92761
1.598	-9.26514
1.5985	-12.99133
1.599	-3.52478
1.5995	24.57275
1.6	44.51294
1.6005	50.85754
1.601	56.90002
1.6015	58.30994
1.602	48.33984
1.6025	41.99524
1.603	22.05505
1.6035	11.58142
1.604	-2.5177
1.6045	-9.36584
1.605	-21.04797
1.6055	-21.04797
1.606	-20.04089
1.6065	-21.3501
1.607	-27.49329
1.6075	-25.177
1.608	-20.74585
1.6085	-17.82532
1.609	-9.36584
1.6095	1.10779
1.61	5.43823
1.6105	12.78992
1.611	7.35168
1.6115	7.04956
1.612	5.43823
1.6125	10.17151
1.613	12.08496
1.6135	31.4209
1.614	35.54993
1.6145	32.22656
1.615	33.03223
1.6155	25.37842
1.616	13.39417
1.6165	-4.53186
1.617	-13.29346
1.6175	-20.44373
1.618	-4.43115
1.6185	22.45789
1.619	40.98816
1.6195	66.56799
1.62	68.07861
1.6205	63.24463
1.621	53.77808
1.6215	44.31152
1.622	31.82373
1.6225	26.68762
1.623	24.57275
1.6235	25.78125
1.624	30.31311
1.6245	33.53577
1.625	31.32019
1.6255	33.33435
1.626	31.92444
1.6265	30.91736
1.627	17.52319
1.6275	10.0708
1.628	2.5177
1.6285	-10.87646
1.629	-25.57983
1.6295	-37.96692
1.63	-46.72852
1.6305	-54.78516
1.631	-57.50427
1.6315	-64.45312
1.632	-72.81189
1.6325	-70.29419
1.633	-64.151
1.6335	-52.46887
1.634	-47.33276
1.6345	-41.59241
1.635	-33.43506
1.6355	-31.32019
1.636	-27.19116
1.6365	-19.23523
1.637	-9.46655
1.6375	6.3446
1.638	31.11877
1.6385	41.18958
1.639	46.32568
1.6395	38.67188
1.64	35.2478
1.6405	24.37134
1.641	10.37292
1.6415	-4.12903
1.642	-11.88354
1.6425	-11.2793
1.643	-20.74585
1.6435	-22.25647
1.644	-30.41382
1.6445	-31.4209
1.645	-25.177
1.6455	6.64673
1.646	25.177
1.6465	37.26196
1.647	36.35559
1.6475	39.98108
1.648	32.7301
1.6485	22.96143
1.649	13.29346
1.6495	5.13611
1.65	2.71912
1.6505	1.00708
1.651	2.71912
1.6515	7.65381
1.652	6.14319
1.6525	12.99133
1.653	30.01099
1.6535	59.51843
1.654	92.55066
1.6545	113.09509
1.655	122.96448
1.6555	127.09351
1.656	109.77173
1.6565	98.99597
1.657	86.60889
1.6575	66.6687
1.658	56.5979
1.6585	51.26038
1.659	35.65063
1.6595	23.06213
1.66	14.19983
1.6605	0.40283
1.661	-11.48071
1.6615	-25.177
1.662	-42.09595
1.6625	-65.3595
1.663	-80.4657
1.6635	-94.66553
1.664	-110.17456
1.6645	-116.01562
1.665	-126.28784
1.6655	-115.10925
1.666	-102.92358
1.6665	-92.65137
1.667	-79.35791
1.6675	-77.34375
1.668	-58.10852
1.6685	-36.85913
1.669	-25.98267
1.6695	-12.18567
1.67	-10.37292
1.6705	-7.04956
1.671	-5.0354
1.6715	-0.60425
1.672	-10.67505
1.6725	-26.08337
1.673	-29.20532
1.6735	-25.27771
1.674	-17.72461
1.6745	-11.07788
1.675	-2.21558
1.6755	19.13452
1.676	25.177
1.6765	30.41382
1.677	34.94568
1.6775	28.50037
1.678	32.02515
1.6785	21.24939
1.679	13.59558
1.6795	6.2439
1.68	3.22266
1.6805	-1.81274
1.681	-0.30212
1.6815	-2.41699
1.682	-3.32336
1.6825	-6.44531
1.683	-2.21558
1.6835	-2.01416
1.684	-4.22974
1.6845	10.67505
1.685	9.66797
1.6855	20.74585
1.686	19.03381
1.6865	26.3855
1.687	36.95984
1.6875	39.57825
1.688	35.85205
1.6885	38.57117
1.689	25.98267
1.6895	33.33435
1.69	30.31311
1.6905	25.27771
1.691	26.18408
1.6915	26.58691
1.692	28.9032
1.6925	26.68762
1.693	25.88196
1.6935	27.6947
1.694	27.09045
1.6945	26.08337
1.695	20.1416
1.6955	18.22815
1.696	17.6239
1.6965	11.98425
1.697	7.65381
1.6975	16.61682
1.698	13.89771
1.6985	14.09912
1.699	17.12036
1.6995	10.87646
1.7	14.60266
1.7005	24.57275
1.701	29.60815
1.7015	29.80957
1.702	38.36975
1.7025	40.48462
1.703	42.8009
1.7035	43.10303
1.704	40.48462
1.7045	43.10303
1.705	39.47754
1.7055	42.8009
1.706	41.79382
1.7065	40.1825
1.707	32.12585
1.7075	36.35559
1.708	34.94568
1.7085	30.2124
1.709	23.76709
1.7095	33.9386
1.71	41.59241
1.7105	45.52002
1.711	44.61365
1.7115	49.74976
1.712	42.8009
1.7125	40.08179
1.713	32.02515
1.7135	21.95435
1.714	19.33594
1.7145	17.12036
1.715	10.77576
1.7155	11.68213
1.716	10.67505
1.7165	7.45239
1.717	14.70337
1.7175	16.11328
1.718	15.81116
1.7185	25.88196
1.719	29.30603
1.7195	33.83789
1.72	29.00391
1.7205	19.63806
1.721	2.92053
1.7215	-20.94727
1.722	-41.69312
1.7225	-53.97949
1.723	-66.46729
1.7235	-80.4657
1.724	-91.64429
1.7245	-82.47986
1.725	-75.93384
1.7255	-67.8772
1.726	-65.05737
1.7265	-55.79224
1.727	-39.47754
1.7275	-35.44922
1.728	-20.54443
1.7285	-8.35876
1.729	-5.94177
1.7295	1.61133
1.73	-0.80566
1.7305	0.80566
1.731	-1.81274
1.7315	-0.30212
1.732	-2.21558
1.7325	-3.62549
1.733	1.2085
1.7335	6.64673
1.734	13.69629
1.7345	22.86072
1.735	24.27063
1.7355	20.84656
1.736	22.25647
1.7365	25.47913
1.737	35.75134
1.7375	35.04639
1.738	36.35559
1.7385	33.83789
1.739	30.41382
1.7395	26.3855
1.74	38.57117
1.7405	51.36108
1.741	61.33118
1.7415	66.87012
1.742	72.61047
1.7425	85.5011
1.743	99.09668
1.7435	98.89526
1.744	92.55066
1.7445	78.35083
1.745	59.61914
1.7455	41.89453
1.746	26.28479
1.7465	3.52478
1.747	-18.12744
1.7475	-31.82373
1.748	-44.11011
1.7485	-50.85754
1.749	-62.64038
1.7495	-68.68286
1.75	-69.48853
1.7505	-74.32251
1.751	-67.57507
1.7515	-63.54675
1.752	-47.13135
1.7525	-49.24622
1.753	-49.64905
1.7535	-58.00781
1.754	-66.26587
1.7545	-80.4657
1.755	-86.20605
1.7555	-89.22729
1.756	-90.5365
1.7565	-94.86694
1.757	-75.63171
1.7575	-69.48853
1.758	-62.13684
1.7585	-58.20923
1.759	-51.76392
1.7595	-44.11011
1.76	-36.95984
1.7605	-24.57275
1.761	-12.89062
1.7615	0.10071
1.762	9.06372
1.7625	14.90479
1.763	31.01807
1.7635	41.39099
1.764	52.67029
1.7645	54.98657
1.765	50.354
1.7655	50.05188
1.766	51.76392
1.7665	46.92993
1.767	44.0094
1.7675	45.3186
1.768	45.92285
1.7685	40.38391
1.769	39.07471
1.7695	36.85913
1.77	34.64355
1.7705	34.54285
1.771	28.09753
1.7715	22.6593
1.772	8.45947
1.7725	-0.60425
1.773	-11.17859
1.7735	-8.7616
1.774	-12.48779
1.7745	-8.96301
1.775	-1.3092
1.7755	-1.81274
1.776	-1.2085
1.7765	2.5177
1.777	11.48071
1.7775	26.18408
1.778	50.2533
1.7785	59.1156
1.779	67.57507
1.7795	69.58923
1.78	68.48145
1.7805	54.18091
1.781	42.09595
1.7815	35.95276
1.782	30.31311
1.7825	16.51611
1.783	0.80566
1.7835	-1.71204
1.784	-11.07788
1.7845	-21.65222
1.785	-30.71594
1.7855	-37.56409
1.786	-29.91028
1.7865	-25.68054
1.787	-25.68054
1.7875	-24.97559
1.788	-21.14868
1.7885	-25.78125
1.789	-32.32727
1.7895	-39.47754
1.79	-34.24072
1.7905	-32.7301
1.791	-29.20532
1.7915	-21.14868
1.792	-16.21399
1.7925	-11.78284
1.793	-12.99133
1.7935	-10.67505
1.794	-10.0708
1.7945	-10.87646
1.795	-3.22266
1.7955	5.33752
1.796	12.18567
1.7965	17.92603
1.797	18.63098
1.7975	21.85364
1.798	20.24231
1.7985	23.8678
1.799	21.24939
1.7995	30.31311
1.8	24.67346
1.8005	23.66638
1.801	19.43665
1.8015	19.83948
1.802	15.40833
1.8025	16.01257
1.803	13.49487
1.8035	10.17151
1.804	6.04248
1.8045	11.38
1.805	11.68213
1.8055	4.12903
1.806	6.04248
1.8065	6.44531
1.807	-5.0354
1.8075	-8.66089
1.808	-7.75452
1.8085	-11.58142
1.809	-21.14868
1.8095	-11.68213
1.81	-3.8269
1.8105	3.02124
1.811	7.45239
1.8115	7.5531
1.812	10.87646
1.8125	13.99841
1.813	12.89062
1.8135	21.04797
1.814	22.96143
1.8145	20.54443
1.815	15.50903
1.8155	20.84656
1.816	35.04639
1.8165	59.71985
1.817	74.2218
1.8175	63.74817
1.818	57.9071
1.8185	56.49719
1.819	51.76392
1.8195	44.81506
1.82	44.31152
1.8205	39.77966
1.821	39.17542
1.8215	40.08179
1.822	39.88037
1.8225	34.54285
1.823	32.42798
1.8235	25.27771
1.824	12.5885
1.8245	-4.53186
1.825	-21.45081
1.8255	-34.34143
1.826	-35.65063
1.8265	-51.36108
1.827	-60.22339
1.8275	-66.97083
1.828	-57.8064
1.8285	-54.78516
1.829	-44.81506
1.8295	-34.03931
1.83	-25.78125
1.8305	-19.03381
1.831	-12.38708
1.8315	-1.91345
1.832	-0.80566
1.8325	3.42407
1.833	10.27222
1.8335	9.56726
1.834	5.13611
1.8345	-4.22974
1.835	-3.02124
1.8355	-10.0708
1.836	-12.99133
1.8365	-14.30054
1.837	-8.56018
1.8375	-6.44531
1.838	-10.97717
1.8385	-10.67505
1.839	-15.60974
1.8395	-9.66797
1.84	-15.60974
1.8405	-15.71045
1.841	-15.50903
1.8415	-16.01257
1.842	0.20142
1.8425	12.5885
1.843	19.03381
1.8435	18.42957
1.844	20.04089
1.8445	18.02673
1.845	17.42249
1.8455	17.22107
1.846	20.34302
1.8465	13.49487
1.847	16.61682
1.8475	16.21399
1.848	13.99841
1.8485	13.49487
1.849	12.89062
1.8495	21.95435
1.85	22.15576
1.8505	20.74585
1.851	14.09912
1.8515	7.45239
1.852	3.52478
1.8525	3.42407
1.853	1.3092
1.8535	2.01416
1.854	-0.80566
1.8545	-3.8269
1.855	-5.74036
1.8555	-9.86938
1.856	-10.0708
1.8565	-14.19983
1.857	-22.86072
1.8575	-28.19824
1.858	-31.52161
1.8585	-21.14868
1.859	-20.44373
1.8595	-25.07629
1.86	-25.68054
1.8605	-29.20532
1.861	-26.3855
1.8615	-21.95435
1.862	-18.32886
1.8625	-14.09912
1.863	-11.2793
1.8635	-8.25806
1.864	-10.97717
1.8645	-5.63965
1.865	-1.71204
1.8655	5.0354
1.866	4.12903
1.8665	2.5177
1.867	5.0354
1.8675	11.38
1.868	7.85522
1.8685	12.18567
1.869	15.71045
1.8695	18.53027
1.87	22.86072
1.8705	24.06921
1.871	23.76709
1.8715	26.08337
1.872	24.67346
1.8725	30.31311
1.873	30.11169
1.8735	32.02515
1.874	34.24072
1.8745	32.62939
1.875	18.63098
1.8755	26.28479
1.876	31.21948
1.8765	33.83789
1.877	41.29028
1.8775	42.09595
1.878	47.33276
1.8785	48.74268
1.879	44.31152
1.8795	40.2832
1.88	26.78833
1.8805	21.85364
1.881	15.60974
1.8815	2.31628
1.882	-3.22266
1.8825	-11.2793
1.883	-23.66638
1.8835	-33.33435
1.884	-26.48621
1.8845	-28.80249
1.885	-27.6947
1.8855	-26.18408
1.886	-25.37842
1.8865	-26.68762
1.887	-27.89612
1.8875	-30.31311
1.888	-17.32178
1.8885	-10.67505
1.889	-8.35876
1.8895	-2.71912
1.89	4.02832
1.8905	2.5177
1.891	1.91345
1.8915	5.13611
1.892	7.75452
1.8925	5.94177
1.893	6.84814
1.8935	8.7616
1.894	13.19275
1.8945	12.38708
1.895	13.99841
1.8955	8.15735
1.896	4.93469
1.8965	1.2085
1.897	13.69629
1.8975	13.29346
1.898	19.43665
1.8985	26.48621
1.899	24.06921
1.8995	31.32019
1.9	31.11877
1.9005	41.29028
1.901	33.53577
1.9015	32.83081
1.902	29.91028
1.9025	30.81665
1.903	18.12744
1.9035	7.25098
1.904	7.45239
1.9045	1.71204
1.905	-0.30212
1.9055	-3.62549
1.906	-2.5177
1.9065	-0.70496
1.907	-10.97717
1.9075	-15.50903
1.908	-15.50903
1.9085	-15.50903
1.909	-15.50903
1.9095	-15.50903
1.91	-15.50903
1.9105	-15.50903
1.911	-15.50903
1.9115	-15.50903
1.912	-15.50903
1.9125	-15.50903
1.913	-15.50903
1.9135	-15.50903
1.914	-15.50903
1.9145	-15.50903
1.915	-15.50903
1.9155	-15.50903
1.916	-15.50903
1.9165	-15.50903
1.917	-15.50903
1.9175	-15.50903
1.918	2.31628
1.9185	4.22974
1.919	4.73328
1.9195	17.92603
1.92	34.54285
1.9205	47.53418
1.921	55.89294
1.9215	65.76233
1.922	64.95667
1.9225	67.8772
1.923	72.81189
1.9235	71.20056
1.924	51.46179
1.9245	51.15967
1.925	39.77966
1.9255	29.50745
1.926	14.60266
1.9265	11.48071
1.927	-4.12903
1.9275	-17.22107
1.928	-21.55151
1.9285	-32.62939
1.929	-42.09595
1.9295	-42.19666
1.93	-42.8009
1.9305	-32.93152
1.931	-16.91895
1.9315	-2.71912
1.932	1.51062
1.9325	3.52478
1.933	8.66089
1.9335	8.45947
1.934	3.8269
1.9345	-6.14319
1.935	-8.8623
1.9355	-22.76001
1.936	-26.98975
1.9365	-28.39966
1.937	-26.48621
1.9375	-19.94019
1.938	-18.42957
1.9385	-16.51611
1.939	-7.5531
1.9395	35.54993
1.94	83.88977
1.9405	110.07385
1.941	115.81421
1.9415	97.28394
1.942	71.90552
1.9425	43.30444
1.943	22.55859
1.9435	1.51062
1.944	-7.95593
1.9445	-19.73877
1.945	-38.06763
1.9455	-47.63489
1.946	-49.54834
1.9465	-43.50586
1.947	-39.57825
1.9475	-29.50745
1.948	20.24231
1.9485	50.2533
1.949	45.3186
1.9495	45.11719
1.95	44.71436
1.9505	38.36975
1.951	35.34851
1.9515	29.50745
1.952	32.22656
1.9525	32.7301
1.953	34.84497
1.9535	17.22107
1.954	4.83398
1.9545	-20.74585
1.955	24.87488
1.9555	58.30994
1.956	55.2887
1.9565	45.92285
1.957	41.39099
1.9575	28.60107
1.958	13.69629
1.9585	9.97009
1.959	0.30212
1.9595	-16.41541
1.96	-24.67346
1.9605	-44.21082
1.961	-58.91418
1.9615	-64.75525
1.962	-63.24463
1.9625	-59.31702
1.963	-65.46021
1.9635	-75.53101
1.964	-88.42163
1.9645	-89.12659
1.965	-92.75208
1.9655	-79.86145
1.966	-80.96924
1.9665	-92.55066
1.967	-83.99048
1.9675	-81.17065
1.968	-63.74817
1.9685	-54.18091
1.969	-38.47046
1.9695	-36.55701
1.97	-26.3855
1.9705	-14.09912
1.971	12.48779
1.9715	28.80249
1.972	43.50586
1.9725	44.31152
1.973	52.56958
1.9735	60.12268
1.974	61.12976
1.9745	60.72693
1.975	64.151
1.9755	67.8772
1.976	61.53259
1.9765	55.2887
1.977	43.10303
1.9775	31.62231
1.978	19.43665
1.9785	3.7262
1.979	-5.13611
1.9795	-9.36584
1.98	-10.97717
1.9805	-8.8623
1.981	-8.05664
1.9815	-5.94177
1.982	-3.22266
1.9825	-6.54602
1.983	-3.8269
1.9835	-5.0354
1.984	-0.20142
1.9845	8.15735
1.985	14.90479
1.9855	16.3147
1.986	18.93311
1.9865	23.36426
1.987	23.06213
1.9875	22.76001
1.988	14.19983
1.9885	5.84106
1.989	0.70496
1.9895	3.02124
1.99	-1.51062
1.9905	-3.52478
1.991	1.71204
1.9915	0.20142
1.992	8.56018
1.9925	1.00708
1.993	-2.61841
1.9935	-11.78284
1.994	-11.88354
1.9945	-16.11328
1.995	-17.92603
1.9955	-16.41541
1.996	-15.1062
1.9965	-12.5885
1.997	-6.3446
1.9975	-11.07788
1.998	-15.71045
1.9985	-14.90479
1.999	-16.51611
1.9995	-14.60266
2	-6.14319
2.0005	-1.91345
2.001	-8.45947
2.0015	-4.43115
2.002	-2.01416
2.0025	-2.41699
2.003	-0.50354
2.0035	-3.62549
2.004	-1.61133
2.0045	2.5177
2.005	6.14319
2.0055	4.93469
2.006	3.62549
2.0065	5.94177
2.007	10.17151
2.0075	5.33752
2.008	2.61841
2.0085	8.66089
2.009	5.74036
2.0095	5.43823
2.01	5.63965
2.0105	2.41699
2.011	5.63965
2.0115	10.17151
2.012	3.52478
2.0125	13.39417
2.013	11.07788
2.0135	12.38708
2.014	9.56726
2.0145	7.85522
2.015	5.94177
2.0155	8.15735
2.016	10.17151
2.0165	14.09912
2.017	15.00549
2.0175	14.70337
2.018	19.53735
2.0185	20.74585
2.019	24.47205
2.0195	23.06213
2.02	22.35718
2.0205	23.26355
2.021	24.67346
2.0215	24.57275
2.022	19.23523
2.0225	14.60266
2.023	10.57434
2.0235	15.91187
2.024	22.45789
2.0245	20.44373
2.025	21.3501
2.0255	20.74585
2.026	13.89771
2.0265	18.42957
2.027	10.17151
2.0275	18.22815
2.028	27.49329
2.0285	25.07629
2.029	25.07629
2.0295	22.25647
2.03	15.71045
2.0305	20.1416
2.031	18.22815
2.0315	17.82532
2.032	16.11328
2.0325	13.09204
2.033	7.65381
2.0335	12.08496
2.034	30.51453
2.0345	29.30603
2.035	31.82373
2.0355	35.65063
2.036	68.17932
2.0365	88.52234
2.037	95.26978
2.0375	84.79614
2.038	60.3241
2.0385	36.05347
2.039	12.48779
2.0395	-0.60425
2.04	-2.41699
2.0405	-13.49487
2.041	-32.12585
2.0415	-34.94568
2.042	4.12903
2.0425	33.03223
2.043	50.45471
2.0435	52.8717
2.044	43.10303
2.0445	27.59399
2.045	11.78284
2.0455	4.43115
2.046	-5.53894
2.0465	-16.81824
2.047	-21.55151
2.0475	-32.52869
2.048	-40.2832
2.0485	-53.37524
2.049	-34.34143
2.0495	-25.57983
2.05	-31.72302
2.0505	-49.14551
2.051	-68.17932
2.0515	-74.82605
2.052	-79.2572
2.0525	-76.63879
2.053	-75.32959
2.0535	-74.92676
2.054	-62.23755
2.0545	-59.92126
2.055	-66.16516
2.0555	-27.89612
2.056	49.0448
2.0565	82.17773
2.057	98.29102
2.0575	100.70801
2.058	91.24146
2.0585	75.83313
2.059	59.61914
2.0595	41.39099
2.06	15.20691
2.0605	-8.25806
2.061	-30.51453
2.0615	-55.18799
2.062	-84.59473
2.0625	-105.74341
2.063	-108.46252
2.0635	-122.15881
2.064	-122.05811
2.0645	-114.80713
2.065	-104.93774
2.0655	-81.97632
2.066	-73.31543
2.0665	-70.09277
2.067	-55.89294
2.0675	-36.75842
2.068	-29.80957
2.0685	-18.22815
2.069	-13.39417
2.0695	-9.46655
2.07	-3.12195
2.0705	-2.41699
2.071	4.63257
2.0715	17.52319
2.072	18.32886
2.0725	10.87646
2.073	8.7616
2.0735	10.67505
2.074	15.81116
2.0745	10.67505
2.075	11.17859
2.0755	16.51611
2.076	13.39417
2.0765	17.6239
2.077	15.00549
2.0775	20.64514
2.078	19.63806
2.0785	20.64514
2.079	20.1416
2.0795	22.76001
2.08	28.29895
2.0805	20.44373
2.081	24.47205
2.0815	23.56567
2.082	16.81824
2.0825	18.42957
2.083	15.71045
2.0835	19.33594
2.084	13.29346
2.0845	16.51611
2.085	16.91895
2.0855	20.1416
2.086	18.73169
2.0865	22.55859
2.087	13.29346
2.0875	11.68213
2.088	13.39417
2.0885	10.97717
2.089	11.98425
2.0895	17.82532
2.09	17.22107
2.0905	18.53027
2.091	18.93311
2.0915	22.76001
2.092	27.29187
2.0925	25.47913
2.093	26.98975
2.0935	29.50745
2.094	35.34851
2.0945	30.91736
2.095	27.39258
2.0955	26.3855
2.096	20.54443
2.0965	28.9032
2.097	35.44922
2.0975	35.54993
2.098	39.37683
2.0985	42.09595
2.099	37.16125
2.0995	33.03223
2.1	32.02515
2.1005	28.39966
2.101	23.06213
2.1015	16.61682
2.102	14.80408
2.1025	16.71753
2.103	15.60974
2.1035	13.797
2.104	7.45239
2.1045	-0.80566
2.105	-16.61682
2.1055	-27.09045
2.106	-39.17542
2.1065	-41.39099
2.107	-38.67188
2.1075	-39.07471
2.108	-33.43506
2.1085	-22.05505
2.109	-16.01257
2.1095	-11.2793
2.11	-1.51062
2.1105	-4.22974
2.111	-6.74744
2.1115	1.61133
2.112	-0.20142
2.1125	7.95593
2.113	0.90637
2.1135	-2.21558
2.114	0.60425
2.1145	2.5177
2.115	1.71204
2.1155	-1.71204
2.116	0.20142
2.1165	2.01416
2.117	5.0354
2.1175	2.81982
2.118	6.3446
2.1185	3.52478
2.119	5.84106
2.1195	8.7616
2.12	9.76868
2.1205	6.14319
2.121	11.17859
2.1215	12.38708
2.122	14.90479
2.1225	13.39417
2.123	23.96851
2.1235	25.07629
2.124	32.32727
2.1245	32.32727
2.125	34.24072
2.1255	32.62939
2.126	37.16125
2.1265	40.48462
2.127	38.57117
2.1275	43.10303
2.128	38.26904
2.1285	35.65063
2.129	35.2478
2.1295	37.86621
2.13	29.30603
2.1305	20.64514
2.131	16.61682
2.1315	9.76868
2.132	11.88354
2.1325	10.87646
2.133	22.86072
2.1335	24.37134
2.134	21.65222
2.1345	26.08337
2.135	37.7655
2.1355	41.4917
2.136	44.91577
2.1365	48.23914
2.137	32.02515
2.1375	23.06213
2.138	0.50354
2.1385	-23.8678
2.139	-44.91577
2.1395	-55.59082
2.14	-72.30835
2.1405	-88.0188
2.141	-103.02429
2.1415	-112.08801
2.142	-105.44128
2.1425	-91.745
2.143	-85.80322
2.1435	-76.43738
2.144	-67.57507
2.1445	-52.56958
2.145	-36.25488
2.1455	-21.95435
2.146	-4.43115
2.1465	3.52478
2.147	5.63965
2.1475	7.45239
2.148	4.43115
2.1485	6.2439
2.149	9.46655
2.1495	7.25098
2.15	24.67346
2.1505	32.7301
2.151	31.21948
2.1515	38.26904
2.152	30.71594
2.1525	22.76001
2.153	21.14868
2.1535	12.38708
2.154	13.19275
2.1545	4.33044
2.155	4.73328
2.1555	-3.02124
2.156	-2.71912
2.1565	3.62549
2.157	-2.21558
2.1575	-3.62549
2.158	-2.01416
2.1585	5.23682
2.159	6.54602
2.1595	12.08496
2.16	9.36584
2.1605	12.68921
2.161	14.50195
2.1615	16.51611
2.162	27.29187
2.1625	36.65771
2.163	82.88269
2.1635	110.37598
2.164	119.33899
2.1645	124.67651
2.165	122.66235
2.1655	124.77722
2.166	117.52625
2.1665	99.19739
2.167	87.11243
2.1675	66.46729
2.168	32.32727
2.1685	10.47363
2.169	-13.39417
2.1695	-36.25488
2.17	-60.22339
2.1705	-81.7749
2.171	-93.35632
2.1715	-80.66711
2.172	-58.30994
2.1725	-38.87329
2.173	-27.89612
2.1735	-18.12744
2.174	-16.41541
2.1745	3.12195
2.175	8.25806
2.1755	15.30762
2.176	7.45239
2.1765	2.41699
2.177	-10.37292
2.1775	-16.01257
2.178	-29.30603
2.1785	-21.14868
2.179	-9.36584
2.1795	-10.67505
2.18	-9.06372
2.1805	-6.44531
2.181	-5.63965
2.1815	62.33826
2.182	94.66553
2.1825	101.51367
2.183	109.97314
2.1835	126.79138
2.184	116.11633
2.1845	98.99597
2.185	60.62622
2.1855	22.05505
2.186	-25.88196
2.1865	-74.2218
2.187	-106.75049
2.1875	-146.22803
2.188	-161.63635
2.1885	-160.02502
2.189	-157.70874
2.1895	-150.75989
2.19	-137.26501
2.1905	-120.7489
2.191	-111.08093
2.1915	-98.79456
2.192	-78.14941
2.1925	-45.01648
2.193	-31.62231
2.1935	-32.22656
2.194	-30.31311
2.1945	-17.82532
2.195	2.31628
2.1955	14.40125
2.196	22.6593
2.1965	23.56567
2.197	20.94727
2.1975	17.22107
2.198	17.22107
2.1985	15.91187
2.199	18.12744
2.1995	18.53027
2.2	19.94019
2.2005	18.12744
2.201	23.66638
2.2015	20.84656
2.202	19.94019
2.2025	18.32886
2.203	18.42957
2.2035	24.67346
2.204	26.28479
2.2045	28.09753
2.205	41.89453
2.2055	49.54834
2.206	53.67737
2.2065	60.3241
2.207	78.25012
2.2075	89.93225
2.208	100.50659
2.2085	118.93616
2.209	132.93457
2.2095	149.04785
2.21	159.62219
2.2105	168.88733
2.211	172.51282
2.2115	166.97388
2.212	148.84644
2.2125	127.09351
2.213	94.66553
2.2135	57.9071
2.214	11.38
2.2145	-27.19116
2.215	-66.87012
2.2155	-92.75208
2.216	-105.74341
2.2165	-125.07935
2.217	-137.96997
2.2175	-133.43811
2.218	-122.96448
2.2185	-106.8512
2.219	-92.55066
2.2195	-79.2572
2.22	-70.79773
2.2205	-75.53101
2.221	-88.32092
2.2215	-91.745
2.222	-103.82996
2.2225	-89.12659
2.223	-67.8772
2.2235	-64.75525
2.224	-47.03064
2.2245	-32.93152
2.225	-33.63647
2.2255	-29.60815
2.226	-22.6593
2.2265	-16.01257
2.227	-6.54602
2.2275	-3.7262
2.228	-4.12903
2.2285	-0.70496
2.229	5.94177
2.2295	18.32886
2.23	16.3147
2.2305	19.33594
2.231	17.12036
2.2315	14.40125
2.232	13.09204
2.2325	16.11328
2.233	6.94885
2.2335	4.73328
2.234	5.74036
2.2345	7.25098
2.235	11.48071
2.2355	10.57434
2.236	12.38708
2.2365	15.71045
2.237	26.98975
2.2375	34.94568
2.238	37.46338
2.2385	40.88745
2.239	41.99524
2.2395	44.0094
2.24	51.96533
2.2405	43.60657
2.241	47.53418
2.2415	44.0094
2.242	45.2179
2.2425	42.09595
2.243	39.67896
2.2435	33.43506
2.244	29.70886
2.2445	21.95435
2.245	20.54443
2.2455	17.42249
2.246	19.94019
2.2465	17.32178
2.247	50.15259
2.2475	90.83862
2.248	120.24536
2.2485	116.21704
2.249	101.31226
2.2495	74.42322
2.25	43.30444
2.2505	15.60974
2.251	9.66797
2.2515	2.11487
2.252	-18.63098
2.2525	-35.14709
2.253	-65.05737
2.2535	-71.20056
2.254	-74.82605
2.2545	-73.51685
2.255	-81.37207
2.2555	-88.32092
2.256	-83.58765
2.2565	-67.8772
2.257	-69.89136
2.2575	-55.89294
2.258	-55.79224
2.2585	-51.46179
2.259	-40.88745
2.2595	-35.54993
2.26	-31.01807
2.2605	-25.177
2.261	-16.91895
2.2615	-7.85522
2.262	-4.73328
2.2625	7.65381
2.263	20.64514
2.2635	22.6593
2.264	32.62939
2.2645	31.01807
2.265	34.94568
2.2655	64.55383
2.266	97.58606
2.2665	100.40588
2.267	94.56482
2.2675	97.78748
2.268	85.80322
2.2685	81.37207
2.269	70.09277
2.2695	60.12268
2.27	52.26746
2.2705	28.80249
2.271	13.09204
2.2715	1.81274
2.272	-1.3092
2.2725	-14.70337
2.273	-27.59399
2.2735	-30.2124
2.274	-37.86621
2.2745	-46.42639
2.275	-51.05896
2.2755	-48.64197
2.276	-37.66479
2.2765	-31.11877
2.277	-18.32886
2.2775	-7.65381
2.278	0
2.2785	3.22266
2.279	7.95593
2.2795	9.86938
2.28	13.797
2.2805	18.02673
2.281	19.03381
2.2815	17.01965
2.282	26.28479
2.2825	25.47913
2.283	20.44373
2.2835	17.12036
2.284	19.63806
2.2845	22.6593
2.285	29.40674
2.2855	36.75842
2.286	68.68286
2.2865	107.15332
2.287	135.65369
2.2875	144.11316
2.288	144.91882
2.2885	145.9259
2.289	143.10608
2.2895	138.27209
2.29	126.08643
2.2905	112.49084
2.291	91.8457
2.2915	65.46021
2.292	36.05347
2.2925	8.05664
2.293	-3.22266
2.2935	49.85046
2.294	83.88977
2.2945	74.62463
2.295	60.92834
2.2955	46.5271
2.296	37.16125
2.2965	26.08337
2.297	23.26355
2.2975	4.73328
2.298	-28.80249
2.2985	-71.20056
2.299	-109.26819
2.2995	-137.36572
2.3	-160.62927
2.3005	-180.67017
2.301	-195.87708
2.3015	-203.22876
2.302	-196.27991
2.3025	-168.58521
2.303	-143.60962
2.3035	-129.10767
2.304	-99.60022
2.3045	-63.74817
2.305	-46.92993
2.3055	-35.04639
2.306	-31.11877
2.3065	-24.06921
2.307	-10.77576
2.3075	8.66089
2.308	25.68054
2.3085	26.98975
2.309	24.57275
2.3095	31.92444
2.31	34.94568
2.3105	45.41931
2.311	50.05188
2.3115	50.55542
2.312	52.8717
2.3125	54.48303
2.313	58.20923
2.3135	55.2887
2.314	54.78516
2.3145	55.99365
2.315	46.5271
2.3155	38.26904
2.316	29.40674
2.3165	17.52319
2.317	11.98425
2.3175	1.61133
2.318	-3.22266
2.3185	-8.35876
2.319	-5.94177
2.3195	-12.38708
2.32	-21.3501
2.3205	-28.39966
2.321	-28.39966
2.3215	-30.71594
2.322	-25.37842
2.3225	-19.03381
2.323	-5.74036
2.3235	4.22974
2.324	16.51611
2.3245	19.33594
2.325	23.96851
2.3255	26.3855
2.326	22.05505
2.3265	26.98975
2.327	25.68054
2.3275	33.23364
2.328	29.00391
2.3285	33.83789
2.329	34.44214
2.3295	31.92444
2.33	37.66479
2.3305	36.95984
2.331	29.30603
2.3315	24.27063
2.332	22.25647
2.3325	16.11328
2.333	13.99841
2.3335	15.81116
2.334	13.59558
2.3345	17.22107
2.335	13.39417
2.3355	12.78992
2.336	8.05664
2.3365	2.01416
2.337	-7.45239
2.3375	-16.91895
2.338	-19.33594
2.3385	-20.44373
2.339	-17.72461
2.3395	-26.88904
2.34	-37.96692
2.3405	-37.26196
2.341	-37.86621
2.3415	-34.03931
2.342	-28.60107
2.3425	-31.52161
2.343	-27.39258
2.3435	-20.24231
2.344	-11.58142
2.3445	10.27222
2.345	30.2124
2.3455	44.31152
2.346	55.99365
2.3465	54.98657
2.347	52.16675
2.3475	43.80798
2.348	25.27771
2.3485	10.97717
2.349	-0.50354
2.3495	-4.02832
2.35	-10.47363
2.3505	-22.96143
2.351	-28.9032
2.3515	-26.18408
2.352	-24.97559
2.3525	-25.27771
2.353	-18.93311
2.3535	-7.04956
2.354	-5.23682
2.3545	-1.61133
2.355	5.13611
2.3555	9.76868
2.356	15.81116
2.3565	15.30762
2.357	13.89771
2.3575	15.20691
2.358	17.6239
2.3585	15.91187
2.359	13.89771
2.3595	10.97717
2.36	11.58142
2.3605	12.18567
2.361	13.89771
2.3615	11.78284
2.362	11.98425
2.3625	12.08496
2.363	8.35876
2.3635	11.2793
2.364	13.99841
2.3645	20.64514
2.365	36.4563
2.3655	46.32568
2.366	64.55383
2.3665	83.18481
2.367	122.96448
2.3675	186.51123
2.368	237.46948
2.3685	260.93445
2.369	282.18384
2.3695	280.4718
2.37	286.41357
2.3705	272.01233
2.371	242.00134
2.3715	199.50256
2.372	143.71033
2.3725	85.19897
2.373	24.97559
2.3735	-30.91736
2.374	-78.04871
2.3745	-113.09509
2.375	-163.34839
2.3755	-205.94788
2.376	-234.24683
2.3765	-261.33728
2.377	-272.81799
2.3775	-275.23499
2.378	-272.71729
2.3785	-261.74011
2.379	-230.41992
2.3795	-197.79053
2.38	-166.77246
2.3805	-130.61829
2.381	-102.72217
2.3815	-78.35083
2.382	-69.68994
2.3825	-57.70569
2.383	-43.30444
2.3835	-30.71594
2.384	-17.01965
2.3845	-7.85522
2.385	2.31628
2.3855	12.48779
2.386	16.51611
2.3865	13.49487
2.387	15.71045
2.3875	16.21399
2.388	16.21399
2.3885	18.93311
2.389	18.63098
2.3895	23.36426
2.39	22.15576
2.3905	23.46497
2.391	23.06213
2.3915	26.48621
2.392	31.72302
2.3925	27.6947
2.393	25.47913
2.3935	23.26355
2.394	32.32727
2.3945	30.2124
2.395	27.6947
2.3955	25.98267
2.396	30.61523
2.3965	31.4209
2.397	43.60657
2.3975	54.68445
2.398	51.05896
2.3985	47.93701
2.399	44.31152
2.3995	34.44214
2.4	25.47913
2.4005	17.52319
2.401	15.60974
2.4015	8.7616
2.402	4.83398
2.4025	8.56018
2.403	6.3446
2.4035	6.2439
2.404	7.04956
2.4045	12.78992
2.405	14.40125
2.4055	22.76001
2.406	25.78125
2.4065	23.56567
2.407	25.07629
2.4075	21.14868
2.408	21.65222
2.4085	18.73169
2.409	19.53735
2.4095	19.13452
2.41	14.19983
2.4105	17.01965
2.411	14.40125
2.4115	12.08496
2.412	65.3595
2.4125	121.15173
2.413	127.39563
2.4135	128.50342
2.414	124.67651
2.4145	119.94324
2.415	105.54199
2.4155	83.08411
2.416	64.45312
2.4165	38.26904
2.417	15.50903
2.4175	-8.56018
2.418	-31.92444
2.4185	-50.55542
2.419	-61.43188
2.4195	-77.44446
2.42	-92.24854
2.4205	-85.09827
2.421	-71.09985
2.4215	-57.60498
2.422	-43.50586
2.4225	-30.31311
2.423	-10.27222
2.4235	-7.85522
2.424	-13.29346
2.4245	-23.66638
2.425	-24.67346
2.4255	-19.03381
2.426	-14.60266
2.4265	-15.81116
2.427	-13.797
2.4275	-18.02673
2.428	-19.23523
2.4285	-21.45081
2.429	-17.42249
2.4295	-11.88354
2.43	-8.45947
2.4305	1.51062
2.431	3.8269
2.4315	7.65381
2.432	7.95593
2.4325	10.97717
2.433	15.20691
2.4335	22.76001
2.434	15.81116
2.4345	19.13452
2.435	24.06921
2.4355	16.21399
2.436	16.21399
2.4365	6.14319
2.437	7.65381
2.4375	7.15027
2.438	2.41699
2.4385	9.26514
2.439	30.71594
2.4395	55.49011
2.44	111.08093
2.4405	184.69849
2.441	232.6355
2.4415	250.76294
2.442	254.79126
2.4425	243.81409
2.443	219.84558
2.4435	181.57654
2.444	140.8905
2.4445	97.58606
2.445	38.77258
2.4455	-19.03381
2.446	-80.06287
2.4465	-131.42395
2.447	-179.8645
2.4475	-212.39319
2.448	-224.07532
2.4485	-232.23267
2.449	-229.91638
2.4495	-210.27832
2.45	-181.073
2.4505	-146.22803
2.451	-107.75757
2.4515	-79.45862
2.452	-47.7356
2.4525	-41.39099
2.453	-31.01807
2.4535	-18.02673
2.454	-15.81116
2.4545	-19.83948
2.455	-12.99133
2.4555	-13.49487
2.456	-15.1062
2.4565	-23.96851
2.457	-16.71753
2.4575	-8.56018
2.458	-7.85522
2.4585	-0.30212
2.459	4.12903
2.4595	9.26514
2.46	11.88354
2.4605	17.92603
2.461	16.81824
2.4615	18.02673
2.462	16.11328
2.4625	14.80408
2.463	19.53735
2.4635	19.53735
2.464	19.43665
2.4645	15.30762
2.465	24.87488
2.4655	19.53735
2.466	22.96143
2.4665	21.14868
2.467	19.23523
2.4675	24.06921
2.468	24.37134
2.4685	16.91895
2.469	21.85364
2.4695	24.37134
2.47	27.39258
2.4705	21.14868
2.471	21.65222
2.4715	16.91895
2.472	20.44373
2.4725	23.16284
2.473	26.48621
2.4735	34.44214
2.474	43.40515
2.4745	51.36108
2.475	63.44604
2.4755	63.74817
2.476	56.79932
2.4765	48.13843
2.477	35.54993
2.4775	25.47913
2.478	18.8324
2.4785	9.06372
2.479	-10.0708
2.4795	-8.96301
2.48	-14.50195
2.4805	-21.55151
2.481	-30.31311
2.4815	-30.01099
2.482	-30.61523
2.4825	-26.78833
2.483	-17.42249
2.4835	-16.11328
2.484	-11.17859
2.4845	-7.65381
2.485	4.33044
2.4855	26.48621
2.486	49.14551
2.4865	82.9834
2.487	108.86536
2.4875	113.39722
2.488	110.6781
2.4885	90.73792
2.489	64.35242
2.4895	44.21082
2.49	25.57983
2.4905	9.66797
2.491	-7.65381
2.4915	-28.09753
2.492	-36.15417
2.4925	-41.99524
2.493	-40.48462
2.4935	-54.68445
2.494	-33.83789
2.4945	-15.40833
2.495	-6.04248
2.4955	-8.05664
2.496	-3.8269
2.4965	-7.5531
2.497	-3.52478
2.4975	-3.52478
2.498	-1.91345
2.4985	-14.70337
2.499	-32.42798
2.4995	-45.2179
2.5	-46.72852
2.5005	-44.91577
2.501	-44.71436
2.5015	-40.2832
2.502	-36.85913
2.5025	-38.36975
2.503	-30.01099
2.5035	-21.04797
2.504	-11.88354
2.5045	-2.71912
2.505	5.84106
2.5055	4.12903
2.506	5.53894
2.5065	0.80566
2.507	0
2.5075	4.02832
2.508	2.31628
2.5085	4.33044
2.509	10.0708
2.5095	9.86938
2.51	13.29346
2.5105	12.89062
2.511	19.03381
2.5115	15.50903
2.512	15.60974
2.5125	19.43665
2.513	15.30762
2.5135	19.13452
2.514	16.21399
2.5145	14.80408
2.515	11.38
2.5155	11.38
2.516	11.48071
2.5165	15.60974
2.517	17.52319
2.5175	12.78992
2.518	10.17151
2.5185	13.19275
2.519	19.33594
2.5195	12.38708
2.52	16.21399
2.5205	17.01965
2.521	18.12744
2.5215	14.80408
2.522	10.77576
2.5225	10.77576
2.523	14.60266
2.5235	10.37292
2.524	4.63257
2.5245	3.22266
2.525	6.14319
2.5255	4.12903
2.526	4.22974
2.5265	5.23682
2.527	7.25098
2.5275	12.5885
2.528	19.63806
2.5285	21.45081
2.529	23.8678
2.5295	27.79541
2.53	31.01807
2.5305	33.23364
2.531	36.85913
2.5315	38.26904
2.532	30.01099
2.5325	20.44373
2.533	20.94727
2.5335	13.797
2.534	9.36584
2.5345	-1.10779
2.535	-4.33044
2.5355	-6.2439
2.536	-6.94885
2.5365	-7.85522
2.537	-8.15735
2.5375	-10.37292
2.538	-10.67505
2.5385	-15.40833
2.539	-16.3147
2.5395	-15.81116
2.54	-19.03381
2.5405	-12.08496
2.541	-3.8269
2.5415	2.81982
2.542	4.33044
2.5425	-0.10071
2.543	-5.0354
2.5435	-8.35876
2.544	-9.16443
2.5445	-6.74744
2.545	-11.2793
2.5455	-2.11487
2.546	1.40991
2.5465	1.10779
2.547	1.51062
2.5475	3.52478
2.548	6.54602
2.5485	1.2085
2.549	8.8623
2.5495	10.77576
2.55	7.75452
2.5505	6.54602
2.551	10.97717
2.5515	11.98425
2.552	16.91895
2.5525	23.8678
2.553	21.3501
2.5535	17.6239
2.554	25.57983
2.5545	41.79382
2.555	59.71985
2.5555	69.79065
2.556	68.17932
2.5565	72.30835
2.557	80.76782
2.5575	76.43738
2.558	76.53809
2.5585	72.40906
2.559	61.23047
2.5595	57.40356
2.56	62.64038
2.5605	53.97949
2.561	72.40906
2.5615	114.80713
2.562	124.57581
2.5625	121.9574
2.563	119.33899
2.5635	99.2981
2.564	74.82605
2.5645	37.86621
2.565	0.50354
2.5655	-55.18799
2.566	-107.95898
2.5665	-143.00537
2.567	-166.47034
2.5675	-174.8291
2.568	-183.48999
2.5685	-181.47583
2.569	-178.25317
2.5695	-169.08875
2.57	-146.73157
2.5705	-131.02112
2.571	-100.90942
2.5715	-71.20056
2.572	-48.13843
2.5725	-25.98267
2.573	-12.99133
2.5735	-1.91345
2.574	4.02832
2.5745	5.74036
2.575	8.35876
2.5755	12.18567
2.576	15.40833
2.5765	13.89771
2.577	19.13452
2.5775	17.92603
2.578	9.56726
2.5785	12.68921
2.579	13.59558
2.5795	17.01965
2.58	19.83948
2.5805	15.81116
2.581	18.63098
2.5815	22.15576
2.582	19.83948
2.5825	24.06921
2.583	26.58691
2.5835	24.27063
2.584	28.70178
2.5845	27.19116
2.585	18.63098
2.5855	21.45081
2.586	21.3501
2.5865	21.65222
2.587	22.15576
2.5875	20.04089
2.588	16.51611
2.5885	16.51611
2.589	24.47205
2.5895	22.45789
2.59	23.76709
2.5905	34.24072
2.591	46.32568
2.5915	46.42639
2.592	48.64197
2.5925	48.44055
2.593	42.8009
2.5935	50.354
2.594	38.47046
2.5945	30.11169
2.595	27.6947
2.5955	24.57275
2.596	16.91895
2.5965	10.47363
2.597	1.10779
2.5975	-4.12903
2.598	0.50354
2.5985	9.76868
2.599	12.99133
2.5995	36.95984
2.6	56.90002
2.6005	61.33118
2.601	53.27454
2.6015	30.81665
2.602	13.99841
2.6025	-26.68762
2.603	-46.92993
2.6035	-61.43188
2.604	-66.06445
2.6045	-75.32959
2.605	-67.8772
2.6055	-53.47595
2.606	-45.11719
2.6065	-39.37683
2.607	-39.07471
2.6075	-37.56409
2.608	-32.52869
2.6085	-25.177
2.609	-15.60974
2.6095	-11.68213
2.61	4.73328
2.6105	7.95593
2.611	15.91187
2.6115	13.29346
2.612	15.20691
2.6125	9.76868
2.613	9.06372
2.6135	7.5531
2.614	5.23682
2.6145	9.56726
2.615	13.99841
2.6155	10.77576
2.616	13.49487
2.6165	11.38
2.617	9.36584
2.6175	8.96301
2.618	3.7262
2.6185	9.16443
2.619	14.30054
2.6195	11.38
2.62	7.5531
2.6205	10.17151
2.621	4.83398
2.6215	11.98425
2.622	13.99841
2.6225	8.66089
2.623	7.85522
2.6235	6.14319
2.624	6.64673
2.6245	6.94885
2.625	8.45947
2.6255	8.96301
2.626	5.74036
2.6265	7.95593
2.627	7.35168
2.6275	1.81274
2.628	8.96301
2.6285	11.38
2.629	16.91895
2.6295	22.15576
2.63	48.23914
2.6305	72.10693
2.631	82.47986
2.6315	90.23438
2.632	101.61438
2.6325	107.65686
2.633	109.87244
2.6335	110.77881
2.634	103.42712
2.6345	79.05579
2.635	64.151
2.6355	38.87329
2.636	23.46497
2.6365	0.60425
2.637	-20.84656
2.6375	-42.8009
2.638	-56.69861
2.6385	-67.37366
2.639	-78.75366
2.6395	-77.74658
2.64	-66.26587
2.6405	-59.1156
2.641	-60.02197
2.6415	-68.28003
2.642	-69.99207
2.6425	-60.72693
2.643	-63.64746
2.6435	-65.56091
2.644	-70.3949
2.6445	-72.9126
2.645	-71.20056
2.6455	-64.55383
2.646	-47.93701
2.6465	-34.74426
2.647	-23.06213
2.6475	-19.63806
2.648	-8.66089
2.6485	2.11487
2.649	2.92053
2.6495	6.74744
2.65	6.2439
2.6505	8.25806
2.651	9.56726
2.6515	14.09912
2.652	12.89062
2.6525	9.76868
2.653	8.56018
2.6535	13.29346
2.654	13.19275
2.6545	16.71753
2.655	13.09204
2.6555	14.09912
2.656	15.00549
2.6565	8.05664
2.657	12.99133
2.6575	13.19275
2.658	13.19275
2.6585	11.38
2.659	17.92603
2.6595	21.65222
2.66	19.83948
2.6605	18.22815
2.661	17.42249
2.6615	12.78992
2.662	21.24939
2.6625	93.35632
2.663	188.72681
2.6635	219.14062
2.664	231.22559
2.6645	207.25708
2.665	192.15088
2.6655	173.31848
2.666	129.00696
2.6665	78.55225
2.667	24.16992
2.6675	-29.60815
2.668	-82.9834
2.6685	-119.84253
2.669	-152.57263
2.6695	-165.66467
2.67	-172.21069
2.6705	-169.59229
2.671	-159.82361
2.6715	-132.33032
2.672	-107.15332
2.6725	-85.60181
2.673	-60.3241
2.6735	-32.12585
2.674	-15.30762
2.6745	-18.22815
2.675	-15.60974
2.6755	-16.01257
2.676	-13.69629
2.6765	-2.21558
2.677	5.84106
2.6775	10.57434
2.678	14.90479
2.6785	14.40125
2.679	17.42249
2.6795	15.71045
2.68	12.5885
2.6805	12.89062
2.681	15.71045
2.6815	18.12744
2.682	26.78833
2.6825	28.80249
2.683	42.8009
2.6835	41.4917
2.684	41.99524
2.6845	36.85913
2.685	28.50037
2.6855	21.45081
2.686	15.81116
2.6865	6.3446
2.687	2.31628
2.6875	-3.22266
2.688	2.81982
2.6885	19.94019
2.689	40.1825
2.6895	51.36108
2.69	60.72693
2.6905	78.25012
2.691	93.85986
2.6915	109.4696
2.692	118.83545
2.6925	117.72766
2.693	119.74182
2.6935	100.90942
2.694	86.60889
2.6945	61.6333
2.695	46.82922
2.6955	18.53027
2.696	1.2085
2.6965	-20.34302
2.697	-44.61365
2.6975	-57.30286
2.698	-61.93542
2.6985	-71.20056
2.699	-68.58215
2.6995	-59.61914
2.7	-64.151
2.7005	-58.81348
2.701	-59.61914
2.7015	-57.8064
2.702	-57.00073
2.7025	-49.85046
2.703	-39.07471
2.7035	-36.15417
2.704	-33.03223
2.7045	-28.70178
2.705	-24.37134
2.7055	-23.66638
2.706	-23.56567
2.7065	-19.63806
2.707	-15.71045
2.7075	-12.38708
2.708	-11.68213
2.7085	-8.7616
2.709	-5.43823
2.7095	-1.81274
2.71	1.00708
2.7105	4.63257
2.711	4.83398
2.7115	6.3446
2.712	6.74744
2.7125	10.77576
2.713	5.0354
2.7135	8.35876
2.714	11.58142
2.7145	12.99133
2.715	13.59558
2.7155	17.32178
2.716	69.08569
2.7165	128.60413
2.717	144.11316
2.7175	150.35706
2.718	157.40662
2.7185	159.52148
2.719	152.27051
2.7195	148.84644
2.72	143.20679
2.7205	128.60413
2.721	86.91101
2.7215	57.60498
2.722	31.01807
2.7225	1.81274
2.723	-32.02515
2.7235	-63.44604
2.724	-93.15491
2.7245	-115.81421
2.725	-126.58997
2.7255	-133.23669
2.726	-124.77722
2.7265	-89.93225
2.727	-51.15967
2.7275	-30.11169
2.728	-22.76001
2.7285	-29.40674
2.729	-35.2478
2.7295	-59.31702
2.73	-70.89844
2.7305	-76.7395
2.731	-85.29968
2.7315	-83.88977
2.732	-82.88269
2.7325	-65.66162
2.733	-56.09436
2.7335	-49.24622
2.734	-40.1825
2.7345	-24.27063
2.735	-23.8678
2.7355	-25.27771
2.736	-3.52478
2.7365	-0.20142
2.737	1.10779
2.7375	7.5531
2.738	11.78284
2.7385	8.45947
2.739	11.2793
2.7395	-3.8269
2.74	-19.23523
2.7405	-16.21399
2.741	-10.37292
2.7415	-6.74744
2.742	0.10071
2.7425	-1.91345
2.743	-2.11487
2.7435	2.61841
2.744	0.80566
2.7445	-1.40991
2.745	-0.20142
2.7455	0.30212
2.746	3.42407
2.7465	9.76868
2.747	5.53894
2.7475	16.21399
2.748	14.90479
2.7485	21.3501
2.749	29.40674
2.7495	32.52869
2.75	69.1864
2.7505	128.60413
2.751	187.61902
2.7515	207.96204
2.752	209.87549
2.7525	215.41443
2.753	218.93921
2.7535	208.36487
2.754	168.98804
2.7545	147.63794
2.755	123.87085
2.7555	91.54358
2.756	46.82922
2.7565	-3.92761
2.757	-37.96692
2.7575	-56.49719
2.758	-79.86145
2.7585	-87.51526
2.759	-71.50269
2.7595	-58.10852
2.76	-52.36816
2.7605	-50.45471
2.761	-52.8717
2.7615	-66.46729
2.762	-80.4657
2.7625	-95.26978
2.763	-98.49243
2.7635	-110.27527
2.764	-125.18005
2.7645	-138.67493
2.765	-144.6167
2.7655	-153.98254
2.766	-143.60962
2.7665	-126.28784
2.767	-111.38306
2.7675	-92.44995
2.768	-69.68994
2.7685	-47.33276
2.769	-29.70886
2.7695	-17.72461
2.77	2.81982
2.7705	8.25806
2.771	9.06372
2.7715	3.32336
2.772	7.75452
2.7725	5.84106
2.773	9.26514
2.7735	11.98425
2.774	9.66797
2.7745	0.90637
2.775	0.90637
2.7755	2.5177
2.776	4.43115
2.7765	0.20142
2.777	-0.50354
2.7775	-3.02124
2.778	-9.16443
2.7785	-3.02124
2.779	6.04248
2.7795	8.25806
2.78	14.19983
2.7805	25.68054
2.781	28.50037
2.7815	28.70178
2.782	33.53577
2.7825	34.64355
2.783	32.22656
2.7835	31.82373
2.784	30.41382
2.7845	28.09753
2.785	21.65222
2.7855	21.85364
2.786	24.57275
2.7865	22.6593
2.787	28.70178
2.7875	21.95435
2.788	24.16992
2.7885	23.66638
2.789	24.57275
2.7895	23.06213
2.79	24.37134
2.7905	21.55151
2.791	21.04797
2.7915	18.8324
2.792	23.56567
2.7925	20.64514
2.793	19.63806
2.7935	20.94727
2.794	17.12036
2.7945	21.14868
2.795	18.02673
2.7955	24.57275
2.796	26.98975
2.7965	28.80249
2.797	36.4563
2.7975	39.37683
2.798	42.8009
2.7985	38.06763
2.799	35.75134
2.7995	40.1825
2.8	51.36108
2.8005	57.70569
2.801	75.83313
2.8015	112.08801
2.802	125.28076
2.8025	126.28784
2.803	127.39563
2.8035	111.18164
2.804	100.40588
2.8045	84.39331
2.805	68.98499
2.8055	50.2533
2.806	15.91187
2.8065	-13.39417
2.807	-36.15417
2.8075	-55.3894
2.808	-81.47278
2.8085	-84.2926
2.809	-88.62305
2.8095	-95.26978
2.81	-70.79773
2.8105	-44.71436
2.811	-25.37842
2.8115	-19.33594
2.812	-15.71045
2.8125	-9.36584
2.813	-3.42407
2.8135	-15.1062
2.814	-25.27771
2.8145	-28.19824
2.815	-29.50745
2.8155	-31.32019
2.816	-25.37842
2.8165	-16.21399
2.817	-12.38708
2.8175	-5.94177
2.818	-11.58142
2.8185	-35.14709
2.819	-0.30212
2.8195	56.79932
2.82	79.35791
2.8205	76.13525
2.821	56.49719
2.8215	74.92676
2.822	90.83862
2.8225	87.51526
2.823	55.49011
2.8235	18.22815
2.824	-4.93469
2.8245	-17.12036
2.825	-37.7655
2.8255	-60.4248
2.826	-76.53809
2.8265	-80.26428
2.827	-94.86694
2.8275	-96.37756
2.828	-90.83862
2.8285	-83.18481
2.829	-71.80481
2.8295	-57.20215
2.83	-58.91418
2.8305	-73.01331
2.831	-74.52393
2.8315	-74.2218
2.832	-69.08569
2.8325	-46.62781
2.833	-43.20374
2.8335	-30.81665
2.834	-14.80408
2.8345	9.46655
2.835	28.80249
2.8355	58.81348
2.836	82.47986
2.8365	95.37048
2.837	96.7804
2.8375	104.53491
2.838	102.52075
2.8385	98.39172
2.839	92.04712
2.8395	89.42871
2.84	80.86853
2.8405	74.52393
2.841	68.98499
2.8415	61.53259
2.842	86.30676
2.8425	97.48535
2.843	101.21155
2.8435	85.40039
2.844	70.99915
2.8445	51.66321
2.845	34.84497
2.8455	28.29895
2.846	26.18408
2.8465	32.83081
2.847	37.56409
2.8475	17.12036
2.848	10.87646
2.8485	14.40125
2.849	24.06921
2.8495	26.58691
2.85	9.06372
2.8505	-12.08496
2.851	-35.95276
2.8515	-47.43347
2.852	-57.30286
2.8525	-58.91418
2.853	-61.43188
2.8535	-61.33118
2.854	-60.82764
2.8545	-67.27295
2.855	-73.31543
2.8555	-78.65295
2.856	-72.00623
2.8565	-63.64746
2.857	-56.79932
2.8575	-42.39807
2.858	-43.90869
2.8585	-48.03772
2.859	-56.5979
2.8595	-57.00073
2.86	-59.92126
2.8605	-61.73401
2.861	-59.21631
2.8615	-50.85754
2.862	-45.41931
2.8625	-40.48462
2.863	-32.52869
2.8635	-29.80957
2.864	-16.71753
2.8645	-6.04248
2.865	0.30212
2.8655	4.33044
2.866	13.59558
2.8665	11.88354
2.867	14.30054
2.8675	17.12036
2.868	18.42957
2.8685	21.04797
2.869	22.25647
2.8695	21.85364
2.87	20.04089
2.8705	19.03381
2.871	25.68054
2.8715	21.85364
2.872	21.3501
2.8725	25.98267
2.873	26.28479
2.8735	21.14868
2.874	34.44214
2.8745	37.96692
2.875	66.87012
2.8755	116.01562
2.876	140.18555
2.8765	145.72449
2.877	148.14148
2.8775	150.05493
2.878	138.07068
2.8785	123.36731
2.879	102.82288
2.8795	78.75366
2.88	39.57825
2.8805	10.57434
2.881	-15.30762
2.8815	-42.59949
2.882	-67.07153
2.8825	-85.60181
2.883	-102.31934
2.8835	-90.63721
2.884	-62.43896
2.8845	-43.40515
2.885	-31.72302
2.8855	-29.91028
2.886	-40.98816
2.8865	-51.86462
2.887	-54.98657
2.8875	-44.31152
2.888	-26.68762
2.8885	-24.57275
2.889	-20.34302
2.8895	-13.69629
2.89	-16.11328
2.8905	-12.68921
2.891	-18.8324
2.8915	-22.15576
2.892	-15.40833
2.8925	-10.77576
2.893	-5.94177
2.8935	4.02832
2.894	7.35168
2.8945	13.49487
2.895	16.11328
2.8955	10.67505
2.896	14.50195
2.8965	11.48071
2.897	9.97009
2.8975	10.87646
2.898	14.30054
2.8985	13.99841
2.899	18.32886
2.8995	26.08337
2.9	23.66638
2.9005	20.74585
2.901	20.54443
2.9015	23.66638
2.902	19.33594
2.9025	14.40125
2.903	21.3501
2.9035	18.8324
2.904	15.50903
2.9045	20.44373
2.905	24.77417
2.9055	20.24231
2.906	21.95435
2.9065	17.32178
2.907	21.75293
2.9075	24.06921
2.908	27.19116
2.9085	42.19666
2.909	59.82056
2.9095	67.17224
2.91	73.51685
2.9105	80.76782
2.911	97.88818
2.9115	132.73315
2.912	228.80859
2.9125	328.71094
2.913	351.47095
2.9135	347.84546
2.914	325.58899
2.9145	292.15393
2.915	246.02966
2.9155	193.05725
2.916	124.07227
2.9165	44.91577
2.917	-36.35559
2.9175	-110.98022
2.918	-175.13123
2.9185	-221.3562
2.919	-254.99268
2.9195	-284.90295
2.92	-287.72278
2.9205	-276.84631
2.921	-244.41833
2.9215	-205.94788
2.922	-138.77563
2.9225	-82.47986
2.923	-52.771
2.9235	-49.44763
2.924	-39.37683
2.9245	-17.32178
2.925	1.61133
2.9255	15.1062
2.926	23.26355
2.9265	17.42249
2.927	-2.71912
2.9275	-23.76709
2.928	-40.98816
2.9285	-59.41772
2.929	-76.84021
2.9295	-83.68835
2.93	-81.57349
2.9305	-82.27844
2.931	-76.53809
2.9315	-63.94958
2.932	-51.26038
2.9325	-37.26196
2.933	-14.80408
2.9335	11.58142
2.934	37.86621
2.9345	63.04321
2.935	67.47437
2.9355	82.58057
2.936	88.92517
2.9365	85.5011
2.937	69.79065
2.9375	58.61206
2.938	29.00391
2.9385	8.25806
2.939	-13.797
2.9395	-33.33435
2.94	-48.03772
2.9405	-60.3241
2.941	3.32336
2.9415	80.26428
2.942	104.93774
2.9425	95.97473
2.943	85.90393
2.9435	87.51526
2.944	103.02429
2.9445	131.92749
2.945	130.61829
2.9455	114.20288
2.946	87.01172
2.9465	48.94409
2.947	25.37842
2.9475	-16.61682
2.948	-43.20374
2.9485	-34.24072
2.949	-56.5979
2.9495	-54.68445
2.95	-52.56958
2.9505	-52.771
2.951	-59.41772
2.9515	-56.79932
2.952	-49.54834
2.9525	-51.66321
2.953	-61.12976
2.9535	-81.67419
2.954	-89.93225
2.9545	-95.16907
2.955	-79.55933
2.9555	-64.151
2.956	-58.81348
2.9565	-58.30994
2.957	-55.3894
2.9575	-43.70728
2.958	-15.50903
2.9585	10.57434
2.959	33.83789
2.9595	48.84338
2.96	65.25879
2.9605	87.81738
2.961	104.4342
2.9615	115.7135
2.962	101.31226
2.9625	97.18323
2.963	89.73083
2.9635	80.36499
2.964	80.4657
2.9645	81.27136
2.965	67.47437
2.9655	33.43506
2.966	-11.58142
2.9665	-41.69312
2.967	-62.23755
2.9675	-48.54126
2.968	-34.03931
2.9685	-14.80408
2.969	5.23682
2.9695	18.32886
2.97	25.37842
2.9705	10.0708
2.971	-4.33044
2.9715	-23.96851
2.972	-42.29736
2.9725	-60.02197
2.973	-81.06995
2.9735	-81.27136
2.974	-66.97083
2.9745	-47.63489
2.975	-21.3501
2.9755	3.12195
2.976	103.62854
2.9765	180.26733
2.977	214.10522
2.9775	224.47815
2.978	226.49231
2.9785	210.27832
2.979	182.48291
2.9795	158.21228
2.98	117.72766
2.9805	60.02197
2.981	-1.81274
2.9815	-41.18958
2.982	-26.68762
2.9825	-8.8623
2.983	-18.42957
2.9835	-29.50745
2.984	-6.3446
2.9845	-2.61841
2.985	16.3147
2.9855	30.11169
2.986	63.44604
2.9865	64.95667
2.987	21.24939
2.9875	-42.49878
2.988	-103.42712
2.9885	-153.78113
2.989	-189.12964
2.9895	-215.81726
2.99	-246.83533
2.9905	-260.73303
2.991	-258.71887
2.9915	-235.75745
2.992	-209.9762
2.9925	-166.97388
2.993	-142.60254
2.9935	-107.25403
2.994	-80.76782
2.9945	-53.07312
2.995	-25.78125
2.9955	-12.08496
2.996	11.2793
2.9965	39.17542
2.997	54.78516
2.9975	61.83472
2.998	65.46021
2.9985	77.74658
2.999	78.55225
2.9995	88.0188
3	93.65845
3.0005	141.19263
3.001	208.36487
3.0015	235.25391
3.002	281.07605
3.0025	309.77783
3.003	321.05713
3.0035	319.74792
3.004	297.59216
3.0045	298.90137
3.005	351.87378
3.0055	355.80139
3.006	324.58191
3.0065	256.20117
3.007	171.60645
3.0075	73.51685
3.008	-33.13293
3.0085	-140.68909
3.009	-238.47656
3.0095	-311.28845
3.01	-333.34351
3.0105	-330.92651
3.011	-328.2074
3.0115	-313.40332
3.012	-281.47888
3.0125	-254.0863
3.013	-229.91638
3.0135	-204.43726
3.014	-163.75122
3.0145	-124.67651
3.015	-101.11084
3.0155	-84.19189
3.016	-61.83472
3.0165	-38.47046
3.017	-25.57983
3.0175	-21.85364
3.018	-10.37292
3.0185	-14.50195
3.019	-11.68213
3.0195	-10.17151
3.02	-3.52478
3.0205	3.7262
3.021	2.61841
3.0215	13.69629
3.022	7.15027
3.0225	13.09204
3.023	12.99133
3.0235	16.21399
3.024	15.30762
3.0245	18.42957
3.025	18.93311
3.0255	19.83948
3.026	19.23523
3.0265	24.27063
3.027	31.62231
3.0275	34.14001
3.028	50.55542
3.0285	56.5979
3.029	57.10144
3.0295	48.03772
3.03	35.54993
3.0305	32.32727
3.031	34.34143
3.0315	71.7041
3.032	85.60181
3.0325	92.44995
3.033	96.67969
3.0335	113.59863
3.034	133.84094
3.0345	111.18164
3.035	89.52942
3.0355	48.44055
3.036	12.38708
3.0365	-36.35559
3.037	-68.17932
3.0375	-105.74341
3.038	-122.05811
3.0385	-133.94165
3.039	-115.61279
3.0395	-78.45154
3.04	-48.33984
3.0405	-27.6947
3.041	-13.69629
3.0415	14.19983
3.042	32.12585
3.0425	32.83081
3.043	22.35718
3.0435	30.01099
3.044	37.56409
3.0445	43.10303
3.045	39.57825
3.0455	32.7301
3.046	28.29895
3.0465	26.18408
3.047	32.32727
3.0475	42.59949
3.048	45.01648
3.0485	45.92285
3.049	41.99524
3.0495	38.974
3.05	37.26196
3.0505	37.06055
3.051	37.06055
3.0515	63.74817
3.052	129.30908
3.0525	207.25708
3.053	294.06738
3.0535	326.89819
3.054	320.05005
3.0545	277.65198
3.055	217.02576
3.0555	146.93298
3.056	77.14233
3.0565	13.49487
3.057	-46.72852
3.0575	-68.58215
3.058	-87.21313
3.0585	-74.42322
3.059	-30.81665
3.0595	-17.12036
3.06	0.10071
3.0605	20.84656
3.061	26.3855
3.0615	32.12585
3.062	28.19824
3.0625	0.40283
3.063	-41.39099
3.0635	-106.75049
3.064	-173.62061
3.0645	-199.30115
3.065	-219.24133
3.0655	-244.82117
3.066	-246.5332
3.0665	-242.00134
3.067	-226.89514
3.0675	-211.68823
3.068	-185.70557
3.0685	-151.96838
3.069	-121.05103
3.0695	-86.00464
3.07	-57.8064
3.0705	-44.31152
3.071	-27.39258
3.0715	-21.95435
3.072	-14.40125
3.0725	-14.30054
3.073	-9.36584
3.0735	-0.30212
3.074	-6.94885
3.0745	8.05664
3.075	41.39099
3.0755	109.67102
3.076	189.12964
3.0765	223.97461
3.077	249.35303
3.0775	288.42773
3.078	372.41821
3.0785	499.10889
3.079	547.14661
3.0795	500.11597
3.08	403.93982
3.0805	319.4458
3.081	270.60242
3.0815	229.41284
3.082	172.71423
3.0825	111.58447
3.083	46.22498
3.0835	-14.40125
3.084	-91.34216
3.0845	-163.85193
3.085	-244.11621
3.0855	-302.32544
3.086	-295.77942
3.0865	-293.46313
3.087	-304.94385
3.0875	-298.29712
3.088	-273.12012
3.0885	-249.0509
3.089	-231.62842
3.0895	-195.97778
3.09	-161.0321
3.0905	-152.1698
3.091	-154.58679
3.0915	-145.01953
3.092	-134.5459
3.0925	-138.57422
3.093	-141.79688
3.0935	-135.04944
3.094	-122.76306
3.0945	-108.86536
3.095	-89.22729
3.0955	-78.45154
3.096	-54.18091
3.0965	-29.00391
3.097	-8.8623
3.0975	6.14319
3.098	15.71045
3.0985	23.66638
3.099	26.58691
3.0995	37.56409
3.1	31.82373
3.1005	28.29895
3.101	36.25488
3.1015	36.4563
3.102	69.48853
3.1025	95.87402
3.103	105.74341
3.1035	112.18872
3.104	115.10925
3.1045	112.28943
3.105	160.02502
3.1055	244.21692
3.106	284.50012
3.1065	286.31287
3.107	241.4978
3.1075	175.93689
3.108	93.65845
3.1085	25.37842
3.109	-46.72852
3.1095	-110.47668
3.11	-166.36963
3.1105	-197.58911
3.111	-212.5946
3.1115	-217.22717
3.112	-207.76062
3.1125	-189.53247
3.113	-145.8252
3.1135	-96.27686
3.114	-57.8064
3.1145	-9.66797
3.115	14.70337
3.1155	12.38708
3.116	8.35876
3.1165	1.3092
3.117	2.71912
3.1175	17.32178
3.118	23.76709
3.1185	23.26355
3.119	23.06213
3.1195	23.96851
3.12	25.07629
3.1205	29.40674
3.121	29.30603
3.1215	33.83789
3.122	32.62939
3.1225	35.85205
3.123	35.04639
3.1235	27.99683
3.124	31.21948
3.1245	34.14001
3.125	28.50037
3.1255	31.92444
3.126	28.60107
3.1265	24.47205
3.127	23.66638
3.1275	26.98975
3.128	22.35718
3.1285	21.3501
3.129	24.57275
3.1295	24.16992
3.13	22.45789
3.1305	23.16284
3.131	20.34302
3.1315	32.12585
3.132	53.07312
3.1325	69.68994
3.133	92.44995
3.1335	133.3374
3.134	153.78113
3.1345	158.11157
3.135	164.05334
3.1355	145.52307
3.136	120.7489
3.1365	83.68835
3.137	45.82214
3.1375	9.66797
3.138	-27.6947
3.1385	-61.23047
3.139	-90.43579
3.1395	-104.73633
3.14	-115.10925
3.1405	-109.97314
3.141	-99.49951
3.1415	-79.86145
3.142	-51.86462
3.1425	-15.00549
3.143	11.48071
3.1435	26.58691
3.144	31.52161
3.1445	43.30444
3.145	39.67896
3.1455	42.39807
3.146	51.96533
3.1465	50.85754
3.147	42.09595
3.1475	27.39258
3.148	6.04248
3.1485	-6.64673
3.149	5.94177
3.1495	13.39417
3.15	76.23596
3.1505	122.86377
3.151	119.33899
3.1515	101.8158
3.152	80.16357
3.1525	48.74268
3.153	12.18567
3.1535	-26.68762
3.154	-19.33594
3.1545	-30.71594
3.155	-44.61365
3.1555	-53.57666
3.156	-70.79773
3.1565	-85.70251
3.157	-85.40039
3.1575	-98.79456
3.158	-101.01013
3.1585	-110.47668
3.159	-89.73083
3.1595	-53.57666
3.16	-8.05664
3.1605	119.84253
3.161	207.4585
3.1615	362.146
3.162	462.854
3.1625	457.01294
3.163	384.50317
3.1635	298.49854
3.164	181.97937
3.1645	51.46179
3.165	-72.81189
3.1655	-167.37671
3.166	-255.19409
3.1665	-326.19324
3.167	-385.30884
3.1675	-405.95398
3.168	-389.73999
3.1685	-345.02563
3.169	-310.5835
3.1695	-242.60559
3.17	-186.20911
3.1705	-152.67334
3.171	-121.25244
3.1715	-84.39331
3.172	-47.53418
3.1725	-25.88196
3.173	-7.85522
3.1735	24.37134
3.174	41.89453
3.1745	38.67188
3.175	40.1825
3.1755	31.52161
3.176	21.45081
3.1765	6.94885
3.177	-1.2085
3.1775	-11.17859
3.178	-16.81824
3.1785	-19.23523
3.179	-25.07629
3.1795	-31.92444
3.18	-41.4917
3.1805	-45.92285
3.181	-32.93152
3.1815	-22.05505
3.182	-9.16443
3.1825	13.59558
3.183	25.37842
3.1835	35.65063
3.184	42.8009
3.1845	50.95825
3.185	52.67029
3.1855	43.90869
3.186	34.64355
3.1865	35.44922
3.187	37.56409
3.1875	31.21948
3.188	34.34143
3.1885	35.2478
3.189	39.17542
3.1895	47.43347
3.19	51.76392
3.1905	56.90002
3.191	64.95667
3.1915	68.88428
3.192	70.19348
3.1925	60.82764
3.193	57.50427
3.1935	39.27612
3.194	35.04639
3.1945	20.84656
3.195	12.78992
3.1955	9.76868
3.196	17.42249
3.1965	29.30603
3.197	36.35559
3.1975	37.7655
3.198	41.79382
3.1985	49.74976
3.199	54.98657
3.1995	52.56958
3.2	44.91577
3.2005	37.86621
3.201	37.86621
3.2015	28.29895
3.202	30.31311
3.2025	23.66638
3.203	13.89771
3.2035	-6.04248
3.204	-27.89612
3.2045	-42.09595
3.205	-39.67896
3.2055	-52.36816
3.206	-54.28162
3.2065	-49.44763
3.207	-42.8009
3.2075	-24.87488
3.208	-13.69629
3.2085	-4.22974
3.209	4.22974
3.2095	12.48779
3.21	18.73169
3.2105	23.56567
3.211	24.06921
3.2115	27.19116
3.212	20.94727
3.2125	19.53735
3.213	12.5885
3.2135	15.1062
3.214	17.82532
3.2145	16.71753
3.215	11.88354
3.2155	5.84106
3.216	3.92761
3.2165	-0.40283
3.217	36.4563
3.2175	97.08252
3.218	133.63953
3.2185	163.95264
3.219	176.94397
3.2195	166.36963
3.22	142.50183
3.2205	103.52783
3.221	53.37524
3.2215	9.06372
3.222	-22.15576
3.2225	-34.74426
3.223	-40.88745
3.2235	-47.93701
3.224	-46.92993
3.2245	-52.06604
3.225	-58.81348
3.2255	-56.69861
3.226	-39.77966
3.2265	7.04956
3.227	93.55774
3.2275	151.66626
3.228	176.23901
3.2285	163.75122
3.229	149.75281
3.2295	113.09509
3.23	61.33118
3.2305	12.38708
3.231	17.01965
3.2315	35.2478
3.232	44.31152
3.2325	34.84497
3.233	30.01099
3.2335	-13.09204
3.234	-19.13452
3.2345	-28.50037
3.235	-45.2179
3.2355	-68.38074
3.236	-76.03455
3.2365	-67.97791
3.237	-31.82373
3.2375	-2.61841
3.238	91.94641
3.2385	299.50562
3.239	382.2876
3.2395	408.97522
3.24	413.30566
3.2405	352.27661
3.241	269.39392
3.2415	139.27917
3.242	17.82532
3.2425	-102.11792
3.243	-208.16345
3.2435	-283.89587
3.244	-362.2467
3.2445	-397.59521
3.245	-410.18372
3.2455	-435.26001
3.246	-434.95789
3.2465	-401.42212
3.247	-372.92175
3.2475	-347.24121
3.248	-292.65747
3.2485	-237.57019
3.249	-192.85583
3.2495	-145.12024
3.25	-113.49792
3.2505	-78.04871
3.251	-51.66321
3.2515	-37.96692
3.252	-21.95435
3.2525	-7.5531
3.253	6.3446
3.2535	18.63098
3.254	24.97559
3.2545	39.07471
3.255	44.31152
3.2555	49.14551
3.256	52.06604
3.2565	64.65454
3.257	72.71118
3.2575	80.26428
3.258	80.96924
3.2585	88.11951
3.259	83.78906
3.2595	84.39331
3.26	75.22888
3.2605	58.41064
3.261	52.771
3.2615	40.08179
3.262	34.84497
3.2625	23.16284
3.263	17.01965
3.2635	4.12903
3.264	-5.43823
3.2645	-3.8269
3.265	0.40283
3.2655	5.63965
3.266	16.61682
3.2665	19.23523
3.267	24.97559
3.2675	31.62231
3.268	31.92444
3.2685	28.9032
3.269	32.02515
3.2695	29.10461
3.27	28.19824
3.2705	30.41382
3.271	31.32019
3.2715	27.49329
3.272	32.32727
3.2725	23.96851
3.273	26.08337
3.2735	23.06213
3.274	21.65222
3.2745	22.45789
3.275	19.53735
3.2755	25.78125
3.276	20.94727
3.2765	17.12036
3.277	17.72461
3.2775	20.64514
3.278	18.63098
3.2785	19.13452
3.279	18.12744
3.2795	25.27771
3.28	25.177
3.2805	21.24939
3.281	29.20532
3.2815	28.39966
3.282	30.51453
3.2825	26.28479
3.283	23.26355
3.2835	15.40833
3.284	11.98425
3.2845	8.35876
3.285	8.45947
3.2855	6.84814
3.286	10.57434
3.2865	13.39417
3.287	8.25806
3.2875	1.00708
3.288	-1.81274
3.2885	4.43115
3.289	5.53894
3.2895	5.74036
3.29	2.81982
3.2905	7.95593
3.291	12.89062
3.2915	23.56567
3.292	24.37134
3.2925	23.76709
3.293	17.82532
3.2935	24.47205
3.294	29.80957
3.2945	23.76709
3.295	26.18408
3.2955	31.52161
3.296	27.6947
3.2965	26.18408
3.297	10.17151
3.2975	9.97009
3.298	10.97717
3.2985	9.76868
3.299	13.39417
3.2995	24.47205
3.3	27.49329
3.3005	33.53577
3.301	32.62939
3.3015	28.29895
3.302	45.3186
3.3025	82.68127
3.303	108.86536
3.3035	128.90625
3.304	152.1698
3.3045	156.29883
3.305	134.94873
3.3055	88.72375
3.306	37.26196
3.3065	-10.57434
3.307	-57.10144
3.3075	-89.42871
3.308	-109.26819
3.3085	-104.73633
3.309	-89.42871
3.3095	-80.66711
3.31	-77.24304
3.3105	-95.47119
3.311	-109.57031
3.3115	-122.15881
3.312	-113.1958
3.3125	-94.16199
3.313	-87.31384
3.3135	-83.08411
3.314	-69.38782
3.3145	-55.2887
3.315	-39.37683
3.3155	-34.24072
3.316	-24.47205
3.3165	-14.80408
3.317	-13.09204
3.3175	-5.84106
3.318	7.35168
3.3185	13.39417
3.319	5.0354
3.3195	7.15027
3.32	12.18567
3.3205	13.39417
3.321	18.42957
3.3215	19.63806
3.322	21.14868
3.3225	30.11169
3.323	31.11877
3.3235	32.32727
3.324	26.98975
3.3245	29.70886
3.325	34.44214
3.3255	31.32019
3.326	29.00391
3.3265	24.47205
3.327	20.1416
3.3275	18.63098
3.328	16.01257
3.3285	18.73169
3.329	23.16284
3.3295	31.11877
3.33	32.7301
3.3305	29.80957
3.331	32.42798
3.3315	37.26196
3.332	35.95276
3.3325	33.83789
3.333	37.86621
3.3335	32.02515
3.334	23.96851
3.3345	20.34302
3.335	10.77576
3.3355	-4.83398
3.336	-15.71045
3.3365	-22.25647
3.337	-23.26355
3.3375	-27.99683
3.338	-22.86072
3.3385	-14.50195
3.339	-12.68921
3.3395	-2.92053
3.34	-2.31628
3.3405	3.42407
3.341	31.11877
3.3415	99.49951
3.342	181.37512
3.3425	213.50098
3.343	226.19019
3.3435	193.25867
3.344	151.16272
3.3445	92.75208
3.345	39.67896
3.3455	-12.38708
3.346	-56.90002
3.3465	-96.17615
3.347	-120.54749
3.3475	-135.8551
3.348	-154.08325
3.3485	-141.49475
3.349	-109.26819
3.3495	-72.9126
3.35	-54.48303
3.3505	-41.29028
3.351	-24.87488
3.3515	-26.18408
3.352	-26.78833
3.3525	-37.7655
3.353	-39.67896
3.3535	-43.00232
3.354	-36.35559
3.3545	-39.47754
3.355	-50.354
3.3555	-52.771
3.356	-45.52002
3.3565	-34.44214
3.357	-34.54285
3.3575	-25.37842
3.358	-24.37134
3.3585	-18.02673
3.359	-16.81824
3.3595	1.2085
3.36	14.40125
3.3605	48.84338
3.361	77.34375
3.3615	92.34924
3.362	99.90234
3.3625	88.62305
3.363	81.7749
3.3635	62.64038
3.364	34.84497
3.3645	15.20691
3.365	4.43115
3.3655	-18.22815
3.366	-27.79541
3.3665	-40.98816
3.367	-41.29028
3.3675	-43.10303
3.368	-41.69312
3.3685	-39.67896
3.369	-19.83948
3.3695	6.3446
3.37	28.29895
3.3705	38.974
3.371	52.8717
3.3715	63.74817
3.372	51.46179
3.3725	28.09753
3.373	24.16992
3.3735	17.92603
3.374	9.86938
3.3745	6.64673
3.375	9.36584
3.3755	15.60974
3.376	26.88904
3.3765	23.76709
3.377	15.91187
3.3775	9.97009
3.378	-5.43823
3.3785	-22.35718
3.379	-7.65381
3.3795	15.00549
3.38	32.93152
3.3805	34.34143
3.381	24.87488
3.3815	-8.25806
3.382	-31.01807
3.3825	-52.67029
3.383	-65.25879
3.3835	-74.52393
3.384	-74.12109
3.3845	-41.79382
3.385	43.90869
3.3855	101.51367
3.386	115.51208
3.3865	147.53723
3.387	160.72998
3.3875	147.23511
3.388	122.46094
3.3885	91.24146
3.389	51.76392
3.3895	15.00549
3.39	-10.27222
3.3905	-36.95984
3.391	-54.38232
3.3915	-66.36658
3.392	-91.8457
3.3925	-106.8512
3.393	-109.57031
3.3935	-107.85828
3.394	-88.92517
3.3945	-71.60339
3.395	-53.07312
3.3955	-33.03223
3.396	-20.54443
3.3965	-14.40125
3.397	5.0354
3.3975	6.2439
3.398	10.27222
3.3985	15.20691
3.399	20.94727
3.3995	20.1416
3.4	11.98425
3.4005	11.17859
3.401	14.80408
3.4015	11.98425
3.402	11.17859
3.4025	7.45239
3.403	13.89771
3.4035	14.50195
3.404	19.43665
3.4045	16.21399
3.405	14.90479
3.4055	14.70337
3.406	23.76709
3.4065	23.8678
3.407	22.15576
3.4075	18.93311
3.408	12.38708
3.4085	8.8623
3.409	2.61841
3.4095	-1.3092
3.41	-3.12195
3.4105	-7.35168
3.411	-2.11487
3.4115	-1.3092
3.412	4.93469
3.4125	18.8324
3.413	21.04797
3.4135	23.56567
3.414	21.95435
3.4145	11.68213
3.415	9.76868
3.4155	11.48071
3.416	1.61133
3.4165	0.20142
3.417	7.45239
3.4175	14.60266
3.418	37.16125
3.4185	132.63245
3.419	182.68433
3.4195	210.88257
3.42	208.16345
3.4205	181.47583
3.421	155.59387
3.4215	130.01404
3.422	80.96924
3.4225	55.2887
3.423	51.86462
3.4235	45.01648
3.424	23.8678
3.4245	-12.38708
3.425	-46.92993
3.4255	-64.35242
3.426	-84.19189
3.4265	-108.46252
3.427	-122.86377
3.4275	-142.40112
3.428	-151.36414
3.4285	-162.94556
3.429	-165.86609
3.4295	-162.54272
3.43	-148.3429
3.4305	-129.71191
3.431	-111.9873
3.4315	-93.45703
3.432	-79.86145
3.4325	-54.68445
3.433	-24.87488
3.4335	4.12903
3.434	33.13293
3.4345	33.43506
3.435	35.44922
3.4355	31.21948
3.436	17.72461
3.4365	16.21399
3.437	17.52319
3.4375	13.09204
3.438	15.30762
3.4385	18.53027
3.439	25.07629
3.4395	20.64514
3.44	25.88196
3.4405	21.95435
3.441	18.22815
3.4415	20.74585
3.442	16.91895
3.4425	17.32178
3.443	17.6239
3.4435	24.87488
3.444	18.73169
3.4445	11.17859
3.445	14.40125
3.4455	19.53735
3.446	11.38
3.4465	19.63806
3.447	37.06055
3.4475	56.5979
3.448	72.30835
3.4485	84.79614
3.449	87.81738
3.4495	87.31384
3.45	85.29968
3.4505	72.71118
3.451	64.35242
3.4515	59.41772
3.452	49.85046
3.4525	38.36975
3.453	14.70337
3.4535	-10.87646
3.454	-34.84497
3.4545	-58.51135
3.455	-58.51135
3.4555	-70.29419
3.456	-69.1864
3.4565	-71.50269
3.457	-63.34534
3.4575	-55.49011
3.458	-49.0448
3.4585	-43.60657
3.459	-25.78125
3.4595	-14.30054
3.46	-8.8623
3.4605	-3.02124
3.461	-2.5177
3.4615	-5.63965
3.462	-4.73328
3.4625	-8.66089
3.463	-8.25806
3.4635	-5.63965
3.464	-3.42407
3.4645	7.45239
3.465	9.16443
3.4655	8.15735
3.466	4.53186
3.4665	1.40991
3.467	7.65381
3.4675	9.26514
3.468	15.40833
3.4685	18.93311
3.469	17.22107
3.4695	14.09912
3.47	21.85364
3.4705	16.01257
3.471	18.8324
3.4715	20.34302
3.472	17.92603
3.4725	14.70337
3.473	17.6239
3.4735	11.2793
3.474	12.99133
3.4745	15.71045
3.475	18.53027
3.4755	21.04797
3.476	15.71045
3.4765	19.03381
3.477	19.13452
3.4775	13.99841
3.478	15.50903
3.4785	12.99133
3.479	11.48071
3.4795	13.49487
3.48	14.19983
3.4805	17.42249
3.481	31.72302
3.4815	88.11951
3.482	137.26501
3.4825	189.63318
3.483	234.04541
3.4835	249.0509
3.484	222.96753
3.4845	173.21777
3.485	97.98889
3.4855	21.24939
3.486	-41.59241
3.4865	-96.37756
3.487	-128.10059
3.4875	-145.62378
3.488	-143.71033
3.4885	-136.15723
3.489	-115.51208
3.4895	-97.28394
3.49	-76.03455
3.4905	-37.06055
3.491	31.21948
3.4915	82.78198
3.492	111.18164
3.4925	129.10767
3.493	122.25952
3.4935	102.72217
3.494	68.88428
3.4945	22.86072
3.495	-14.19983
3.4955	-63.14392
3.496	-105.84412
3.4965	-138.97705
3.497	-156.80237
3.4975	-163.65051
3.498	-165.86609
3.4985	-164.55688
3.499	-155.39246
3.4995	-132.63245
3.5	-98.79456
3.5005	-68.17932
3.501	-32.32727
3.5015	-14.09912
3.502	14.30054
3.5025	27.6947
3.503	30.81665
3.5035	29.30603
3.504	38.67188
3.5045	86.60889
3.505	159.01794
3.5055	208.36487
3.506	223.06824
3.5065	211.2854
3.507	164.15405
3.5075	107.95898
3.508	58.51135
3.5085	17.22107
3.509	-25.47913
3.5095	-60.52551
3.51	-80.56641
3.5105	-96.57898
3.511	-110.07385
3.5115	-132.0282
3.512	-137.56714
3.5125	-129.81262
3.513	-102.52075
3.5135	-90.43579
3.514	-63.04321
3.5145	-52.06604
3.515	-43.80798
3.5155	-35.95276
3.516	-22.86072
3.5165	-14.40125
3.517	2.92053
3.5175	15.91187
3.518	14.90479
3.5185	18.22815
3.519	25.177
3.5195	28.19824
3.52	29.00391
3.5205	24.87488
3.521	21.45081
3.5215	22.55859
3.522	24.06921
3.5225	18.32886
3.523	16.71753
3.5235	19.43665
3.524	19.23523
3.5245	16.3147
3.525	15.81116
3.5255	14.09912
3.526	19.23523
3.5265	15.40833
3.527	15.00549
3.5275	7.25098
3.528	14.70337
3.5285	12.89062
3.529	9.26514
3.5295	11.68213
3.53	9.36584
3.5305	11.38
3.531	15.91187
3.5315	18.22815
3.532	26.88904
3.5325	26.68762
3.533	28.60107
3.5335	39.77966
3.534	40.48462
3.5345	42.49878
3.535	38.87329
3.5355	27.19116
3.536	17.42249
3.5365	12.28638
3.537	3.8269
3.5375	0
3.538	-3.22266
3.5385	-11.58142
3.539	-13.49487
3.5395	-17.32178
3.54	-15.00549
3.5405	-16.81824
3.541	-2.81982
3.5415	6.84814
3.542	19.43665
3.5425	41.18958
3.543	44.61365
3.5435	42.29736
3.544	39.88037
3.5445	44.11011
3.545	39.17542
3.5455	30.61523
3.546	24.77417
3.5465	33.03223
3.547	27.39258
3.5475	23.36426
3.548	18.53027
3.5485	9.97009
3.549	9.76868
3.5495	5.0354
3.55	5.13611
3.5505	-6.14319
3.551	-9.46655
3.5515	-22.45789
3.552	-31.52161
3.5525	-31.72302
3.553	-31.11877
3.5535	-26.68762
3.554	-13.69629
3.5545	-13.19275
3.555	-10.67505
3.5555	-7.45239
3.556	-10.77576
3.5565	-8.05664
3.557	-3.32336
3.5575	-2.92053
3.558	1.91345
3.5585	2.61841
3.559	4.33044
3.5595	6.54602
3.56	4.83398
3.5605	11.68213
3.561	12.99133
3.5615	26.48621
3.562	31.62231
3.5625	40.08179
3.563	36.65771
3.5635	38.47046
3.564	38.47046
3.5645	34.03931
3.565	29.70886
3.5655	18.53027
3.566	10.17151
3.5665	-2.11487
3.567	-5.53894
3.5675	-12.5885
3.568	-22.96143
3.5685	-35.2478
3.569	-40.38391
3.5695	-39.37683
3.57	-33.73718
3.5705	-25.68054
3.571	-20.04089
3.5715	-6.14319
3.572	-1.2085
3.5725	7.15027
3.573	6.44531
3.5735	8.7616
3.574	13.59558
3.5745	17.22107
3.575	11.98425
3.5755	40.2832
3.576	63.14392
3.5765	66.76941
3.577	64.35242
3.5775	60.12268
3.578	58.10852
3.5785	47.13135
3.579	36.05347
3.5795	43.40515
3.58	59.51843
3.5805	61.12976
3.581	43.10303
3.5815	21.24939
3.582	-1.2085
3.5825	-32.7301
3.583	-50.95825
3.5835	-63.74817
3.584	-63.44604
3.5845	-57.60498
3.585	-29.00391
3.5855	-2.61841
3.586	16.51611
3.5865	16.61682
3.587	23.76709
3.5875	33.33435
3.588	47.63489
3.5885	40.48462
3.589	31.52161
3.5895	12.18567
3.59	-6.3446
3.5905	-32.32727
3.591	-60.52551
3.5915	-68.28003
3.592	-82.58057
3.5925	-86.20605
3.593	-80.36499
3.5935	-67.77649
3.594	-47.43347
3.5945	-33.9386
3.595	-20.74585
3.5955	6.74744
3.596	71.80481
3.5965	97.08252
3.597	99.70093
3.5975	105.44128
3.598	118.02979
3.5985	104.4342
3.599	76.53809
3.5995	46.72852
3.6	32.12585
3.6005	30.01099
3.601	29.70886
3.6015	32.02515
3.602	45.82214
3.6025	55.89294
3.603	42.19666
3.6035	31.11877
3.604	17.32178
3.6045	2.31628
3.605	-3.02124
3.6055	-8.7616
3.606	-11.78284
3.6065	-11.88354
3.607	-28.60107
3.6075	-40.38391
3.608	-57.9071
3.6085	-72.50977
3.609	-86.30676
3.6095	-92.14783
3.61	-96.27686
3.6105	-97.88818
3.611	-89.42871
3.6115	-72.9126
3.612	-59.51843
3.6125	-52.26746
3.613	-44.0094
3.6135	-38.06763
3.614	-25.98267
3.6145	-16.61682
3.615	-6.64673
3.6155	-2.41699
3.616	2.21558
3.6165	-0.80566
3.617	0.30212
3.6175	3.32336
3.618	6.04248
3.6185	12.38708
3.619	15.1062
3.6195	13.19275
3.62	10.87646
3.6205	14.30054
3.621	13.797
3.6215	10.47363
3.622	15.00549
3.6225	11.38
3.623	16.41541
3.6235	15.1062
3.624	21.75293
3.6245	16.81824
3.625	23.56567
3.6255	16.81824
3.626	21.55151
3.6265	23.26355
3.627	18.8324
3.6275	17.42249
3.628	17.72461
3.6285	10.67505
3.629	15.20691
3.6295	17.92603
3.63	15.00549
3.6305	18.73169
3.631	19.94019
3.6315	17.01965
3.632	17.82532
3.6325	20.54443
3.633	17.12036
3.6335	14.80408
3.634	15.50903
3.6345	12.99133
3.635	13.09204
3.6355	12.5885
3.636	11.68213
3.6365	11.2793
3.637	11.88354
3.6375	5.53894
3.638	9.06372
3.6385	11.88354
3.639	10.67505
3.6395	9.06372
3.64	4.83398
3.6405	7.75452
3.641	10.67505
3.6415	7.25098
3.642	27.79541
3.6425	54.78516
3.643	85.70251
3.6435	90.5365
3.644	89.73083
3.6445	87.21313
3.645	84.19189
3.6455	72.30835
3.646	48.94409
3.6465	25.68054
3.647	3.42407
3.6475	-14.90479
3.648	-28.80249
3.6485	-34.24072
3.649	-33.53577
3.6495	-26.68762
3.65	-25.47913
3.6505	-19.13452
3.651	64.65454
3.6515	114.70642
3.652	136.66077
3.6525	129.91333
3.653	98.19031
3.6535	54.38232
3.654	7.35168
3.6545	-33.43506
3.655	-86.8103
3.6555	-122.96448
3.656	-137.86926
3.6565	-149.24927
3.657	-145.01953
3.6575	-149.85352
3.658	-134.64661
3.6585	-83.68835
3.659	-34.03931
3.6595	-12.68921
3.66	1.40991
3.6605	17.6239
3.661	24.37134
3.6615	13.69629
3.662	0.80566
3.6625	-7.95593
3.663	-8.05664
3.6635	-7.04956
3.664	-17.42249
3.6645	-17.52319
3.665	-26.88904
3.6655	-34.74426
3.666	-29.50745
3.6665	-32.32727
3.667	-22.55859
3.6675	-15.71045
3.668	-5.13611
3.6685	2.61841
3.669	3.52478
3.6695	13.49487
3.67	17.22107
3.6705	18.53027
3.671	15.20691
3.6715	19.03381
3.672	20.24231
3.6725	20.64514
3.673	27.09045
3.6735	26.78833
3.674	43.60657
3.6745	49.64905
3.675	56.5979
3.6755	64.55383
3.676	67.97791
3.6765	65.66162
3.677	62.13684
3.6775	49.95117
3.678	34.84497
3.6785	23.8678
3.679	12.89062
3.6795	-1.10779
3.68	-10.97717
3.6805	0.90637
3.681	16.01257
3.6815	33.43506
3.682	37.06055
3.6825	35.04639
3.683	25.37842
3.6835	14.50195
3.684	0.30212
3.6845	-15.1062
3.685	-30.61523
3.6855	-30.81665
3.686	-33.23364
3.6865	-41.4917
3.687	-53.97949
3.6875	-68.17932
3.688	-80.16357
3.6885	-81.7749
3.689	-76.84021
3.6895	-80.06287
3.69	-72.10693
3.6905	-52.16675
3.691	-29.30603
3.6915	-15.00549
3.692	-4.83398
3.6925	-0.40283
3.693	8.8623
3.6935	16.81824
3.694	23.26355
3.6945	28.80249
3.695	39.17542
3.6955	39.47754
3.696	39.47754
3.6965	40.68604
3.697	33.23364
3.6975	27.39258
3.698	34.94568
3.6985	41.39099
3.699	41.29028
3.6995	36.25488
3.7	27.89612
3.7005	25.57983
3.701	25.98267
3.7015	26.88904
3.702	17.32178
3.7025	12.89062
3.703	25.98267
3.7035	71.30127
3.704	76.53809
3.7045	79.76074
3.705	78.85437
3.7055	67.27295
3.706	47.03064
3.7065	25.27771
3.707	1.81274
3.7075	-23.76709
3.708	-41.69312
3.7085	-59.01489
3.709	-65.76233
3.7095	-58.00781
3.71	-34.54285
3.7105	-18.8324
3.711	-19.53735
3.7115	-11.38
3.712	-1.3092
3.7125	3.42407
3.713	-1.61133
3.7135	2.71912
3.714	0.80566
3.7145	-0.20142
3.715	-4.22974
3.7155	-6.94885
3.716	-14.50195
3.7165	-21.65222
3.717	-28.09753
3.7175	-29.20532
3.718	-30.11169
3.7185	-31.62231
3.719	-29.70886
3.7195	-2.01416
3.72	5.0354
3.7205	21.45081
3.721	28.60107
3.7215	28.60107
3.722	29.70886
3.7225	20.64514
3.723	8.66089
3.7235	4.43115
3.724	-1.10779
3.7245	-9.06372
3.725	-5.84106
3.7255	-13.797
3.726	-20.24231
3.7265	-28.39966
3.727	-27.6947
3.7275	-27.79541
3.728	-26.08337
3.7285	-22.35718
3.729	-17.22107
3.7295	-9.97009
3.73	-0.80566
3.7305	5.23682
3.731	8.8623
3.7315	8.8623
3.732	11.2793
3.7325	4.93469
3.733	7.65381
3.7335	9.06372
3.734	22.05505
3.7345	38.16833
3.735	63.54675
3.7355	72.00623
3.736	86.10535
3.7365	88.32092
3.737	99.49951
3.7375	103.93066
3.738	103.02429
3.7385	90.5365
3.739	85.90393
3.7395	76.53809
3.74	53.97949
3.7405	37.86621
3.741	17.42249
3.7415	-2.11487
3.742	-19.13452
3.7425	-30.91736
3.743	-44.81506
3.7435	-46.12427
3.744	-52.67029
3.7445	-60.52551
3.745	-53.37524
3.7455	-9.16443
3.746	36.35559
3.7465	56.39648
3.747	53.47595
3.7475	40.1825
3.748	14.90479
3.7485	-8.45947
3.749	-28.80249
3.7495	-40.48462
3.75	-58.61206
3.7505	-68.38074
3.751	-70.59631
3.7515	-63.14392
3.752	-58.41064
3.7525	-53.27454
3.753	-43.60657
3.7535	-19.63806
3.754	-11.07788
3.7545	4.73328
3.755	14.50195
3.7555	25.07629
3.756	35.65063
3.7565	35.95276
3.757	31.72302
3.7575	27.29187
3.758	17.42249
3.7585	9.76868
3.759	-0.40283
3.7595	-6.84814
3.76	-14.30054
3.7605	-22.35718
3.761	-17.92603
3.7615	-10.0708
3.762	78.85437
3.7625	163.95264
3.763	226.69373
3.7635	245.32471
3.764	218.03284
3.7645	182.18079
3.765	130.31616
3.7655	84.59473
3.766	26.48621
3.7665	-24.37134
3.767	-60.3241
3.7675	-97.48535
3.768	-122.66235
3.7685	-143.50891
3.769	-162.84485
3.7695	-156.39954
3.77	-146.32874
3.7705	-131.52466
3.771	-118.73474
3.7715	-93.0542
3.772	-56.5979
3.7725	-45.3186
3.773	-40.1825
3.7735	-30.51453
3.774	-30.61523
3.7745	-12.18567
3.775	8.35876
3.7755	16.01257
3.776	10.67505
3.7765	0
3.777	-1.61133
3.7775	3.22266
3.778	3.52478
3.7785	6.3446
3.779	9.97009
3.7795	24.47205
3.78	32.62939
3.7805	38.87329
3.781	39.37683
3.7815	37.06055
3.782	35.54993
3.7825	32.93152
3.783	25.177
3.7835	19.03381
3.784	13.19275
3.7845	16.71753
3.785	54.28162
3.7855	96.07544
3.786	106.75049
3.7865	115.10925
3.787	118.63403
3.7875	119.94324
3.788	108.86536
3.7885	89.93225
3.789	69.08569
3.7895	39.47754
3.79	10.97717
3.7905	-8.45947
3.791	-31.4209
3.7915	-47.43347
3.792	-59.31702
3.7925	-80.16357
3.793	-96.27686
3.7935	-121.65527
3.794	-124.27368
3.7945	-120.34607
3.795	-105.54199
3.7955	-75.22888
3.796	-56.09436
3.7965	-34.94568
3.797	-12.99133
3.7975	4.73328
3.798	10.17151
3.7985	7.15027
3.799	10.27222
3.7995	16.71753
3.8	18.8324
3.8005	23.96851
3.801	25.07629
3.8015	20.94727
3.802	24.77417
3.8025	20.54443
3.803	12.08496
3.8035	6.14319
3.804	10.77576
3.8045	1.81274
3.805	1.00708
3.8055	1.10779
3.806	9.06372
3.8065	-0.80566
3.807	1.71204
3.8075	-7.04956
3.808	-14.90479
3.8085	-17.6239
3.809	-17.22107
3.8095	-7.25098
3.81	16.21399
3.8105	28.9032
3.811	36.75842
3.8115	47.53418
3.812	48.44055
3.8125	58.30994
3.813	56.90002
3.8135	63.24463
3.814	53.57666
3.8145	40.1825
3.815	22.96143
3.8155	20.24231
3.816	6.14319
3.8165	-6.74744
3.817	-23.96851
3.8175	-36.55701
3.818	-47.33276
3.8185	-53.07312
3.819	-51.15967
3.8195	-47.8363
3.82	-41.59241
3.8205	-37.06055
3.821	-27.19116
3.8215	-16.91895
3.822	-2.61841
3.8225	4.43115
3.823	19.63806
3.8235	51.05896
3.824	92.14783
3.8245	112.39014
3.825	117.52625
3.8255	104.63562
3.826	80.96924
3.8265	57.10144
3.827	34.24072
3.8275	8.56018
3.828	-15.30762
3.8285	-25.78125
3.829	-34.74426
3.8295	-46.92993
3.83	-44.61365
3.8305	-45.92285
3.831	-36.85913
3.8315	-32.32727
3.832	-25.88196
3.8325	-23.66638
3.833	-13.49487
3.8335	3.32336
3.834	14.30054
3.8345	13.19275
3.835	3.92761
3.8355	2.5177
3.836	8.05664
3.8365	15.30762
3.837	21.55151
3.8375	26.08337
3.838	25.37842
3.8385	17.6239
3.839	25.07629
3.8395	31.21948
3.84	49.54834
3.8405	59.21631
3.841	62.43896
3.8415	62.74109
3.842	58.10852
3.8425	47.13135
3.843	38.974
3.8435	26.68762
3.844	13.19275
3.8445	-7.35168
3.845	-22.45789
3.8455	-35.2478
3.846	-45.01648
3.8465	-53.37524
3.847	-58.71277
3.8475	-62.13684
3.848	-64.05029
3.8485	-39.98108
3.849	-12.28638
3.8495	0.60425
3.85	6.74744
3.8505	7.35168
3.851	-4.53186
3.8515	-19.53735
3.852	-29.91028
3.8525	-27.49329
3.853	-13.59558
3.8535	-4.12903
3.854	11.48071
3.8545	28.39966
3.855	35.75134
3.8555	28.50037
3.856	23.8678
3.8565	11.98425
3.857	12.78992
3.8575	-1.71204
3.858	-6.14319
3.8585	-1.3092
3.859	12.28638
3.8595	17.52319
3.86	21.55151
3.8605	15.71045
3.861	19.83948
3.8615	65.25879
3.862	137.46643
3.8625	174.72839
3.863	184.09424
3.8635	163.24768
3.864	124.67651
3.8645	85.60181
3.865	33.9386
3.8655	-1.3092
3.866	-45.82214
3.8665	-81.37207
3.867	-101.9165
3.8675	-121.35315
3.868	-131.52466
3.8685	-125.48218
3.869	-116.21704
3.8695	-91.44287
3.87	-60.22339
3.8705	-34.74426
3.871	-23.06213
3.8715	1.71204
3.872	19.73877
3.8725	34.54285
3.873	42.39807
3.8735	42.8009
3.874	41.99524
3.8745	45.2179
