Leonardo_Garofalo_Left_3.c3d  



Time(s):	A_L_bicipite(μV):
0	35.04639
0.0005	23.16284
0.001	15.30762
0.0015	11.98425
0.002	2.11487
0.0025	3.12195
0.003	-2.21558
0.0035	-3.32336
0.004	-5.13611
0.0045	-5.94177
0.005	0.50354
0.0055	-5.23682
0.006	5.0354
0.0065	3.7262
0.007	12.28638
0.0075	21.45081
0.008	19.43665
0.0085	23.76709
0.009	25.98267
0.0095	23.66638
0.01	28.19824
0.0105	26.88904
0.011	19.53735
0.0115	16.41541
0.012	15.60974
0.0125	14.90479
0.013	4.22974
0.0135	-1.71204
0.014	-8.7616
0.0145	-5.13611
0.015	-12.48779
0.0155	-17.32178
0.016	-19.73877
0.0165	-17.82532
0.017	-18.53027
0.0175	-17.82532
0.018	-17.6239
0.0185	-7.95593
0.019	-7.95593
0.0195	-6.14319
0.02	-3.12195
0.0205	-3.52478
0.021	-2.31628
0.0215	-1.81274
0.022	-1.91345
0.0225	0.60425
0.023	-3.32336
0.0235	5.13611
0.024	4.83398
0.0245	6.04248
0.025	6.74744
0.0255	6.84814
0.026	6.14319
0.0265	14.30054
0.027	10.67505
0.0275	8.66089
0.028	12.99133
0.0285	19.94019
0.029	17.82532
0.0295	16.3147
0.03	7.5531
0.0305	4.33044
0.031	-1.51062
0.0315	-1.71204
0.032	1.10779
0.0325	0.40283
0.033	1.10779
0.0335	0.70496
0.034	3.22266
0.0345	6.04248
0.035	5.0354
0.0355	5.53894
0.036	-0.20142
0.0365	2.81982
0.037	2.61841
0.0375	-4.53186
0.038	-6.64673
0.0385	3.7262
0.039	8.45947
0.0395	11.38
0.04	4.02832
0.0405	9.56726
0.041	15.60974
0.0415	23.76709
0.042	28.09753
0.0425	26.78833
0.043	34.24072
0.0435	52.67029
0.044	48.94409
0.0445	56.69861
0.045	47.7356
0.0455	37.86621
0.046	23.36426
0.0465	13.09204
0.047	-10.77576
0.0475	-25.27771
0.048	-43.00232
0.0485	-51.86462
0.049	-62.43896
0.0495	-65.76233
0.05	-60.82764
0.0505	-55.3894
0.051	-44.51294
0.0515	-40.08179
0.052	-29.00391
0.0525	-21.45081
0.053	-14.80408
0.0535	-7.5531
0.054	2.31628
0.0545	-2.41699
0.055	0.60425
0.0555	-0.50354
0.056	-1.00708
0.0565	2.11487
0.057	2.71912
0.0575	1.40991
0.058	2.71912
0.0585	5.13611
0.059	2.5177
0.0595	10.17151
0.06	7.75452
0.0605	6.64673
0.061	7.35168
0.0615	8.66089
0.062	14.90479
0.0625	19.83948
0.063	25.37842
0.0635	28.50037
0.064	31.21948
0.0645	38.06763
0.065	39.37683
0.0655	41.69312
0.066	44.31152
0.0665	41.89453
0.067	37.7655
0.0675	27.59399
0.068	23.06213
0.0685	12.28638
0.069	5.0354
0.0695	-3.7262
0.07	-8.96301
0.0705	-7.04956
0.071	0.90637
0.0715	1.40991
0.072	1.91345
0.0725	6.04248
0.073	9.97009
0.0735	8.45947
0.074	9.36584
0.0745	9.97009
0.075	1.61133
0.0755	-3.22266
0.076	-9.36584
0.0765	-9.97009
0.077	-25.57983
0.0775	-22.96143
0.078	-22.55859
0.0785	-16.11328
0.079	-18.22815
0.0795	-11.98425
0.08	-14.90479
0.0805	-9.46655
0.081	-10.17151
0.0815	-11.07788
0.082	-11.98425
0.0825	0.50354
0.083	-1.81274
0.0835	3.52478
0.084	9.97009
0.0845	5.23682
0.085	7.65381
0.0855	8.96301
0.086	1.81274
0.0865	9.66797
0.087	9.16443
0.0875	13.39417
0.088	19.63806
0.0885	17.22107
0.089	20.1416
0.0895	22.96143
0.09	20.94727
0.0905	23.46497
0.091	29.50745
0.0915	32.22656
0.092	32.83081
0.0925	32.32727
0.093	34.84497
0.0935	35.65063
0.094	28.09753
0.0945	23.46497
0.095	26.78833
0.0955	21.85364
0.096	17.42249
0.0965	16.41541
0.097	16.11328
0.0975	7.15027
0.098	7.04956
0.0985	7.15027
0.099	3.42407
0.0995	1.2085
0.1	4.12903
0.1005	5.53894
0.101	8.05664
0.1015	13.99841
0.102	27.29187
0.1025	34.44214
0.103	38.67188
0.1035	45.72144
0.104	52.16675
0.1045	51.36108
0.105	39.88037
0.1055	31.21948
0.106	19.83948
0.1065	4.02832
0.107	-15.40833
0.1075	-30.81665
0.108	-32.02515
0.1085	-36.15417
0.109	-45.41931
0.1095	-51.66321
0.11	-60.52551
0.1105	-64.45312
0.111	-64.35242
0.1115	-61.73401
0.112	-56.29578
0.1125	-48.13843
0.113	-47.43347
0.1135	-42.29736
0.114	-38.47046
0.1145	-35.2478
0.115	-30.91736
0.1155	-17.82532
0.116	-6.44531
0.1165	0.70496
0.117	-2.92053
0.1175	5.63965
0.118	2.5177
0.1185	6.14319
0.119	6.04248
0.1195	7.25098
0.12	3.62549
0.1205	7.25098
0.121	7.85522
0.1215	12.48779
0.122	11.38
0.1225	11.98425
0.123	16.41541
0.1235	10.57434
0.124	10.57434
0.1245	10.37292
0.125	7.25098
0.1255	10.37292
0.126	3.42407
0.1265	1.61133
0.127	1.40991
0.1275	3.02124
0.128	2.11487
0.1285	-3.7262
0.129	-4.73328
0.1295	-4.63257
0.13	-4.02832
0.1305	3.42407
0.131	2.92053
0.1315	3.12195
0.132	9.36584
0.1325	13.29346
0.133	15.40833
0.1335	12.28638
0.134	8.25806
0.1345	3.22266
0.135	9.16443
0.1355	3.42407
0.136	2.11487
0.1365	3.52478
0.137	5.43823
0.1375	10.47363
0.138	8.35876
0.1385	0.80566
0.139	6.84814
0.1395	3.42407
0.14	1.40991
0.1405	8.56018
0.141	5.23682
0.1415	4.22974
0.142	4.22974
0.1425	5.23682
0.143	8.25806
0.1435	1.3092
0.144	6.84814
0.1445	5.13611
0.145	14.60266
0.1455	15.40833
0.146	22.55859
0.1465	26.18408
0.147	27.39258
0.1475	29.20532
0.148	28.29895
0.1485	33.43506
0.149	35.85205
0.1495	40.08179
0.15	48.84338
0.1505	55.49011
0.151	64.35242
0.1515	71.40198
0.152	80.06287
0.1525	78.85437
0.153	74.42322
0.1535	69.1864
0.154	54.48303
0.1545	35.44922
0.155	13.99841
0.1555	-0.30212
0.156	-20.94727
0.1565	-38.06763
0.157	-51.26038
0.1575	-71.30127
0.158	-79.05579
0.1585	-91.8457
0.159	-109.3689
0.1595	-109.06677
0.16	-101.21155
0.1605	-91.745
0.161	-79.86145
0.1615	-73.21472
0.162	-61.02905
0.1625	-56.09436
0.163	-49.85046
0.1635	-45.11719
0.164	-24.77417
0.1645	-16.61682
0.165	-15.60974
0.1655	-7.85522
0.166	-8.56018
0.1665	-6.54602
0.167	1.2085
0.1675	6.3446
0.168	4.02832
0.1685	10.67505
0.169	6.54602
0.1695	8.45947
0.17	10.87646
0.1705	4.73328
0.171	8.96301
0.1715	9.06372
0.172	7.35168
0.1725	7.45239
0.173	10.37292
0.1735	12.89062
0.174	8.05664
0.1745	9.86938
0.175	9.97009
0.1755	10.87646
0.176	10.27222
0.1765	11.2793
0.177	9.06372
0.1775	8.8623
0.178	14.30054
0.1785	15.60974
0.179	9.86938
0.1795	16.81824
0.18	16.11328
0.1805	23.36426
0.181	23.26355
0.1815	15.50903
0.182	16.51611
0.1825	11.88354
0.183	11.2793
0.1835	12.18567
0.184	9.76868
0.1845	15.91187
0.185	16.41541
0.1855	19.53735
0.186	20.1416
0.1865	17.82532
0.187	23.8678
0.1875	25.98267
0.188	32.83081
0.1885	37.96692
0.189	48.03772
0.1895	57.60498
0.19	56.49719
0.1905	60.62622
0.191	63.04321
0.1915	63.84888
0.192	57.30286
0.1925	55.18799
0.193	45.2179
0.1935	43.90869
0.194	40.38391
0.1945	34.54285
0.195	17.32178
0.1955	13.39417
0.196	1.51062
0.1965	-5.0354
0.197	-13.797
0.1975	-15.20691
0.198	-15.60974
0.1985	-9.76868
0.199	-16.71753
0.1995	-12.28638
0.2	-16.3147
0.2005	-22.45789
0.201	-33.73718
0.2015	-40.48462
0.202	-31.52161
0.2025	-33.13293
0.203	-34.54285
0.2035	-31.32019
0.204	-35.34851
0.2045	-30.61523
0.205	-28.9032
0.2055	-26.58691
0.206	-30.51453
0.2065	-19.53735
0.207	-18.22815
0.2075	-13.59558
0.208	-9.16443
0.2085	-9.16443
0.209	-7.25098
0.2095	-3.7262
0.21	-1.3092
0.2105	-2.81982
0.211	0.10071
0.2115	-0.80566
0.212	4.22974
0.2125	6.2439
0.213	9.46655
0.2135	6.94885
0.214	11.38
0.2145	10.97717
0.215	16.41541
0.2155	17.72461
0.216	13.59558
0.2165	11.38
0.217	10.37292
0.2175	13.29346
0.218	16.71753
0.2185	19.83948
0.219	15.00549
0.2195	14.80408
0.22	12.68921
0.2205	15.71045
0.221	11.98425
0.2215	5.63965
0.222	7.15027
0.2225	2.11487
0.223	9.06372
0.2235	12.38708
0.224	12.28638
0.2245	12.78992
0.225	13.19275
0.2255	17.82532
0.226	12.78992
0.2265	13.29346
0.227	16.71753
0.2275	19.03381
0.228	19.03381
0.2285	20.1416
0.229	15.71045
0.2295	17.82532
0.23	23.36426
0.2305	25.27771
0.231	26.88904
0.2315	32.52869
0.232	32.52869
0.2325	33.43506
0.233	43.40515
0.2335	36.65771
0.234	34.03931
0.2345	35.65063
0.235	30.51453
0.2355	38.36975
0.236	30.81665
0.2365	13.59558
0.237	0.50354
0.2375	-5.63965
0.238	-13.99841
0.2385	-18.73169
0.239	-18.42957
0.2395	-19.23523
0.24	-10.77576
0.2405	-8.96301
0.241	-7.25098
0.2415	-1.51062
0.242	1.51062
0.2425	5.84106
0.243	11.88354
0.2435	13.99841
0.244	0.60425
0.2445	-8.56018
0.245	-13.797
0.2455	-16.11328
0.246	-14.09912
0.2465	-10.27222
0.247	-5.43823
0.2475	0.70496
0.248	-0.20142
0.2485	5.0354
0.249	1.3092
0.2495	-1.40991
0.25	3.22266
0.2505	6.54602
0.251	3.62549
0.2515	-1.81274
0.252	-0.10071
0.2525	7.85522
0.253	6.44531
0.2535	15.40833
0.254	20.64514
0.2545	24.47205
0.255	27.79541
0.2555	31.72302
0.256	35.44922
0.2565	40.1825
0.257	42.7002
0.2575	45.3186
0.258	47.53418
0.2585	38.67188
0.259	27.59399
0.2595	26.18408
0.26	13.29346
0.2605	7.95593
0.261	-3.8269
0.2615	-10.37292
0.262	-11.2793
0.2625	-9.76868
0.263	-22.15576
0.2635	-26.88904
0.264	-36.95984
0.2645	-41.4917
0.265	-40.88745
0.2655	-35.85205
0.266	-40.98816
0.2665	-42.19666
0.267	-41.29028
0.2675	-39.77966
0.268	-26.58691
0.2685	-18.42957
0.269	-7.45239
0.2695	2.5177
0.27	11.88354
0.2705	26.78833
0.271	52.16675
0.2715	60.4248
0.272	66.6687
0.2725	72.20764
0.273	73.81897
0.2735	70.29419
0.274	66.97083
0.2745	62.74109
0.275	58.61206
0.2755	50.75684
0.276	46.42639
0.2765	37.56409
0.277	29.91028
0.2775	14.30054
0.278	0.70496
0.2785	-11.38
0.279	-24.67346
0.2795	-35.2478
0.28	-46.02356
0.2805	-54.78516
0.281	-58.20923
0.2815	-52.56958
0.282	-52.06604
0.2825	-44.61365
0.283	-34.74426
0.2835	-28.60107
0.284	-14.30054
0.2845	-8.25806
0.285	-9.16443
0.2855	-8.05664
0.286	-6.64673
0.2865	-1.00708
0.287	8.7616
0.2875	10.17151
0.288	14.09912
0.2885	18.53027
0.289	16.01257
0.2895	14.80408
0.29	11.88354
0.2905	12.5885
0.291	7.65381
0.2915	4.53186
0.292	4.63257
0.2925	7.85522
0.293	10.0708
0.2935	3.62549
0.294	3.52478
0.2945	4.12903
0.295	10.67505
0.2955	10.57434
0.296	9.76868
0.2965	9.46655
0.297	5.13611
0.2975	13.797
0.298	13.69629
0.2985	16.21399
0.299	15.50903
0.2995	9.16443
0.3	10.67505
0.3005	6.84814
0.301	8.8623
0.3015	10.17151
0.302	8.35876
0.3025	7.65381
0.303	11.88354
0.3035	8.7616
0.304	10.57434
0.3045	18.22815
0.305	31.72302
0.3055	38.36975
0.306	54.48303
0.3065	63.04321
0.307	78.14941
0.3075	106.8512
0.308	117.92908
0.3085	128.70483
0.309	137.46643
0.3095	131.62537
0.31	130.01404
0.3105	115.41138
0.311	84.39331
0.3115	49.95117
0.312	13.69629
0.3125	-33.83789
0.313	-71.30127
0.3135	-84.79614
0.314	-107.45544
0.3145	-111.08093
0.315	-112.49084
0.3155	-110.87952
0.316	-99.3988
0.3165	-91.94641
0.317	-76.23596
0.3175	-76.53809
0.318	-61.93542
0.3185	-51.05896
0.319	-50.85754
0.3195	-58.41064
0.32	-68.28003
0.3205	-74.02039
0.321	-70.59631
0.3215	-62.53967
0.322	-53.47595
0.3225	-45.01648
0.323	-37.36267
0.3235	-30.41382
0.324	-26.08337
0.3245	-22.55859
0.325	-15.81116
0.3255	-3.62549
0.326	5.13611
0.3265	15.00549
0.327	25.27771
0.3275	35.34851
0.328	38.67188
0.3285	37.7655
0.329	31.52161
0.3295	18.42957
0.33	14.40125
0.3305	3.8269
0.331	-1.40991
0.3315	-0.20142
0.332	-2.5177
0.3325	-10.17151
0.333	-6.74744
0.3335	-5.84106
0.334	-1.51062
0.3345	8.7616
0.335	17.52319
0.3355	27.39258
0.336	48.33984
0.3365	62.33826
0.337	71.90552
0.3375	72.50977
0.338	80.16357
0.3385	82.58057
0.339	80.26428
0.3395	70.99915
0.34	56.09436
0.3405	39.47754
0.341	26.98975
0.3415	4.73328
0.342	-14.80408
0.3425	-22.55859
0.343	-36.95984
0.3435	-47.8363
0.344	-57.20215
0.3445	-60.3241
0.345	-62.23755
0.3455	-62.9425
0.346	-53.17383
0.3465	-39.57825
0.347	-30.71594
0.3475	-26.48621
0.348	-4.83398
0.3485	-0.60425
0.349	12.18567
0.3495	21.45081
0.35	32.02515
0.3505	35.65063
0.351	38.77258
0.3515	41.69312
0.352	38.77258
0.3525	37.36267
0.353	30.81665
0.3535	29.10461
0.354	15.71045
0.3545	8.25806
0.355	1.2085
0.3555	-8.96301
0.356	-18.63098
0.3565	-23.06213
0.357	-26.88904
0.3575	-19.13452
0.358	-13.99841
0.3585	-9.36584
0.359	-7.5531
0.3595	5.33752
0.36	9.66797
0.3605	20.1416
0.361	32.7301
0.3615	44.81506
0.362	46.72852
0.3625	50.95825
0.363	51.86462
0.3635	49.0448
0.364	52.36816
0.3645	50.65613
0.365	54.0802
0.3655	53.87878
0.366	53.87878
0.3665	60.92834
0.367	59.92126
0.3675	66.87012
0.368	67.67578
0.3685	67.47437
0.369	62.74109
0.3695	47.33276
0.37	34.64355
0.3705	23.56567
0.371	4.02832
0.3715	-9.86938
0.372	-29.30603
0.3725	-42.90161
0.373	-54.68445
0.3735	-67.97791
0.374	-73.51685
0.3745	-73.21472
0.375	-65.25879
0.3755	-67.57507
0.376	-53.77808
0.3765	-42.7002
0.377	-31.4209
0.3775	-26.28479
0.378	-24.67346
0.3785	-29.30603
0.379	-35.04639
0.3795	-30.01099
0.38	-23.66638
0.3805	-16.91895
0.381	-7.65381
0.3815	-4.63257
0.382	2.11487
0.3825	-0.90637
0.383	-2.61841
0.3835	9.06372
0.384	9.36584
0.3845	12.78992
0.385	11.98425
0.3855	21.65222
0.386	21.85364
0.3865	28.39966
0.387	31.21948
0.3875	31.82373
0.388	28.60107
0.3885	33.9386
0.389	25.78125
0.3895	18.93311
0.39	14.80408
0.3905	-0.10071
0.391	-6.44531
0.3915	-9.97009
0.392	-15.60974
0.3925	-16.21399
0.393	-21.65222
0.3935	-17.82532
0.394	-19.33594
0.3945	-21.14868
0.395	-17.52319
0.3955	-18.53027
0.396	-11.98425
0.3965	-5.43823
0.397	6.3446
0.3975	15.91187
0.398	27.59399
0.3985	31.32019
0.399	31.11877
0.3995	34.34143
0.4	45.11719
0.4005	38.77258
0.401	31.32019
0.4015	25.68054
0.402	14.70337
0.4025	7.65381
0.403	3.62549
0.4035	1.2085
0.404	-3.22266
0.4045	-2.41699
0.405	-8.96301
0.4055	-14.50195
0.406	-14.19983
0.4065	-14.60266
0.407	-13.89771
0.4075	-10.97717
0.408	-9.86938
0.4085	-0.80566
0.409	0.60425
0.4095	2.01416
0.41	7.45239
0.4105	10.37292
0.411	17.92603
0.4115	17.32178
0.412	17.01965
0.4125	13.69629
0.413	14.60266
0.4135	9.06372
0.414	1.10779
0.4145	-7.04956
0.415	-9.76868
0.4155	-12.18567
0.416	-7.95593
0.4165	-8.45947
0.417	-8.8623
0.4175	-5.84106
0.418	-1.3092
0.4185	3.8269
0.419	3.62549
0.4195	13.89771
0.42	10.47363
0.4205	13.29346
0.421	14.50195
0.4215	14.09912
0.422	16.11328
0.4225	15.20691
0.423	18.63098
0.4235	18.8324
0.424	26.78833
0.4245	27.19116
0.425	30.2124
0.4255	26.88904
0.426	29.40674
0.4265	28.09753
0.427	25.88196
0.4275	29.50745
0.428	32.52869
0.4285	29.80957
0.429	28.9032
0.4295	28.70178
0.43	37.16125
0.4305	50.05188
0.431	68.98499
0.4315	80.4657
0.432	94.86694
0.4325	119.64111
0.433	139.07776
0.4335	148.54431
0.434	148.24219
0.4345	144.41528
0.435	121.9574
0.4355	103.22571
0.436	77.34375
0.4365	59.61914
0.437	50.65613
0.4375	44.31152
0.438	44.71436
0.4385	32.93152
0.439	27.79541
0.4395	-0.50354
0.44	-23.96851
0.4405	-63.34534
0.441	-98.49243
0.4415	-122.05811
0.442	-139.88342
0.4425	-147.23511
0.443	-158.91724
0.4435	-161.83777
0.444	-148.94714
0.4445	-127.09351
0.445	-120.34607
0.4455	-101.71509
0.446	-86.50818
0.4465	-60.3241
0.447	-48.84338
0.4475	-48.84338
0.448	-48.13843
0.4485	-36.35559
0.449	-23.76709
0.4495	-8.35876
0.45	4.02832
0.4505	20.94727
0.451	25.37842
0.4515	31.62231
0.452	34.64355
0.4525	37.7655
0.453	36.4563
0.4535	30.61523
0.454	21.45081
0.4545	9.66797
0.455	4.12903
0.4555	-2.5177
0.456	-4.02832
0.4565	1.91345
0.457	10.27222
0.4575	18.53027
0.458	26.3855
0.4585	29.20532
0.459	36.75842
0.4595	48.44055
0.46	59.61914
0.4605	79.15649
0.461	95.16907
0.4615	113.90076
0.462	122.96448
0.4625	120.64819
0.463	106.24695
0.4635	92.85278
0.464	70.99915
0.4645	56.5979
0.465	34.14001
0.4655	10.17151
0.466	-4.33044
0.4665	-12.99133
0.467	-19.33594
0.4675	-32.22656
0.468	-39.07471
0.4685	-46.82922
0.469	-55.79224
0.4695	-65.86304
0.47	-77.24304
0.4705	-85.80322
0.471	-86.30676
0.4715	-90.43579
0.472	-88.0188
0.4725	-85.29968
0.473	-74.42322
0.4735	-54.48303
0.474	-43.70728
0.4745	-35.54993
0.475	-27.59399
0.4755	-23.66638
0.476	-7.85522
0.4765	-3.8269
0.477	0.70496
0.4775	2.31628
0.478	13.59558
0.4785	8.25806
0.479	15.1062
0.4795	12.68921
0.48	15.1062
0.4805	11.07788
0.481	14.80408
0.4815	12.68921
0.482	17.42249
0.4825	15.40833
0.483	14.60266
0.4835	16.01257
0.484	22.15576
0.4845	26.28479
0.485	20.44373
0.4855	18.12744
0.486	21.45081
0.4865	23.66638
0.487	30.01099
0.4875	38.57117
0.488	46.22498
0.4885	52.36816
0.489	50.45471
0.4895	52.97241
0.49	49.64905
0.4905	42.09595
0.491	35.54993
0.4915	30.91736
0.492	23.8678
0.4925	27.39258
0.493	27.09045
0.4935	17.12036
0.494	7.95593
0.4945	7.04956
0.495	4.83398
0.4955	8.56018
0.496	-1.71204
0.4965	0.60425
0.497	-0.80566
0.4975	-3.62549
0.498	2.21558
0.4985	8.35876
0.499	13.99841
0.4995	9.66797
0.5	14.09912
0.5005	12.68921
0.501	12.89062
0.5015	10.37292
0.502	8.35876
0.5025	8.35876
0.503	12.5885
0.5035	14.90479
0.504	14.09912
0.5045	18.8324
0.505	22.05505
0.5055	26.68762
0.506	23.56567
0.5065	21.3501
0.507	17.22107
0.5075	8.05664
0.508	2.31628
0.5085	5.63965
0.509	7.85522
0.5095	10.57434
0.51	8.56018
0.5105	17.6239
0.511	18.8324
0.5115	27.6947
0.512	34.84497
0.5125	40.1825
0.513	51.86462
0.5135	59.61914
0.514	64.45312
0.5145	65.15808
0.515	73.01331
0.5155	66.36658
0.516	52.26746
0.5165	35.04639
0.517	10.37292
0.5175	-14.70337
0.518	-32.62939
0.5185	-50.95825
0.519	-69.28711
0.5195	-77.948
0.52	-83.38623
0.5205	-80.66711
0.521	-71.40198
0.5215	-68.98499
0.522	-60.12268
0.5225	-49.74976
0.523	-41.39099
0.5235	-33.9386
0.524	-31.01807
0.5245	-29.30603
0.525	-22.96143
0.5255	-23.26355
0.526	-15.00549
0.5265	-10.47363
0.527	-7.35168
0.5275	-6.2439
0.528	-5.84106
0.5285	6.2439
0.529	24.67346
0.5295	26.78833
0.53	33.13293
0.5305	33.9386
0.531	42.7002
0.5315	38.67188
0.532	37.86621
0.5325	43.80798
0.533	34.34143
0.5335	37.56409
0.534	43.40515
0.5345	38.16833
0.535	49.34692
0.5355	51.26038
0.536	51.15967
0.5365	52.06604
0.537	41.18958
0.5375	43.40515
0.538	33.83789
0.5385	25.37842
0.539	12.5885
0.5395	2.11487
0.54	5.23682
0.5405	6.2439
0.541	11.98425
0.5415	19.63806
0.542	26.88904
0.5425	25.88196
0.543	38.974
0.5435	57.20215
0.544	56.49719
0.5445	42.49878
0.545	25.27771
0.5455	16.41541
0.546	-11.38
0.5465	-41.29028
0.547	-65.56091
0.5475	-84.69543
0.548	-91.44287
0.5485	-95.26978
0.549	-85.5011
0.5495	-70.89844
0.55	-59.1156
0.5505	-49.95117
0.551	-36.15417
0.5515	-25.177
0.552	-12.68921
0.5525	-4.93469
0.553	-4.12903
0.5535	-5.43823
0.554	-3.92761
0.5545	2.21558
0.555	9.36584
0.5555	23.46497
0.556	28.60107
0.5565	35.44922
0.557	27.19116
0.5575	20.44373
0.558	16.01257
0.5585	12.28638
0.559	12.5885
0.5595	6.84814
0.56	7.95593
0.5605	13.797
0.561	17.01965
0.5615	19.53735
0.562	23.36426
0.5625	39.27612
0.563	64.85596
0.5635	82.68127
0.564	84.19189
0.5645	81.06995
0.565	69.38782
0.5655	55.08728
0.566	35.54993
0.5665	20.94727
0.567	11.98425
0.5675	3.52478
0.568	-13.09204
0.5685	-27.6947
0.569	-32.7301
0.5695	-30.11169
0.57	-25.78125
0.5705	-8.56018
0.571	-0.50354
0.5715	-4.73328
0.572	-7.85522
0.5725	-9.97009
0.573	-12.48779
0.5735	-10.87646
0.574	-17.82532
0.5745	-22.05505
0.575	-15.71045
0.5755	-15.91187
0.576	-22.96143
0.5765	-25.47913
0.577	-14.80408
0.5775	-11.17859
0.578	-2.01416
0.5785	-2.81982
0.579	4.93469
0.5795	33.43506
0.58	63.14392
0.5805	82.47986
0.581	93.45703
0.5815	98.39172
0.582	105.6427
0.5825	115.61279
0.583	116.82129
0.5835	121.75598
0.584	112.49084
0.5845	98.39172
0.585	89.02588
0.5855	78.04871
0.586	72.00623
0.5865	54.68445
0.587	36.4563
0.5875	9.56726
0.588	-18.32886
0.5885	-52.56958
0.589	-74.2218
0.5895	-82.88269
0.59	-88.72375
0.5905	-92.04712
0.591	-94.16199
0.5915	-93.85986
0.592	-83.28552
0.5925	-71.80481
0.593	-61.83472
0.5935	-61.43188
0.594	-47.53418
0.5945	-41.29028
0.595	-42.39807
0.5955	-44.11011
0.596	-41.99524
0.5965	-34.44214
0.597	-25.37842
0.5975	-11.2793
0.598	-0.50354
0.5985	17.6239
0.599	18.42957
0.5995	21.14868
0.6	22.35718
0.6005	23.8678
0.601	20.54443
0.6015	10.0708
0.602	-1.40991
0.6025	-19.43665
0.603	-29.30603
0.6035	-29.10461
0.604	-13.39417
0.6045	5.0354
0.605	21.75293
0.6055	33.03223
0.606	38.36975
0.6065	36.35559
0.607	34.94568
0.6075	27.09045
0.608	21.85364
0.6085	11.48071
0.609	8.05664
0.6095	-1.81274
0.61	-5.63965
0.6105	-6.44531
0.611	-11.07788
0.6115	-11.88354
0.612	-12.08496
0.6125	-19.63806
0.613	-21.24939
0.6135	-13.797
0.614	-3.32336
0.6145	-0.30212
0.615	13.19275
0.6155	27.6947
0.616	42.39807
0.6165	49.64905
0.617	50.15259
0.6175	50.75684
0.618	44.0094
0.6185	43.90869
0.619	47.33276
0.6195	59.92126
0.62	68.98499
0.6205	68.07861
0.621	66.6687
0.6215	64.65454
0.622	59.21631
0.6225	57.8064
0.623	46.42639
0.6235	34.24072
0.624	13.797
0.6245	-2.71912
0.625	-17.32178
0.6255	-31.11877
0.626	-51.5625
0.6265	-41.08887
0.627	-11.58142
0.6275	14.30054
0.628	20.44373
0.6285	25.07629
0.629	27.29187
0.6295	33.43506
0.63	36.25488
0.6305	42.29736
0.631	32.42798
0.6315	16.21399
0.632	-15.91187
0.6325	-41.39099
0.633	-57.60498
0.6335	-77.14233
0.634	-88.62305
0.6345	-91.745
0.635	-91.04004
0.6355	-90.03296
0.636	-79.86145
0.6365	-71.50269
0.637	-47.03064
0.6375	-47.43347
0.638	-34.94568
0.6385	-20.1416
0.639	-8.7616
0.6395	-13.29346
0.64	-8.35876
0.6405	-2.31628
0.641	2.31628
0.6415	5.63965
0.642	11.88354
0.6425	23.66638
0.643	26.88904
0.6435	28.39966
0.644	30.2124
0.6445	32.02515
0.645	32.62939
0.6455	31.92444
0.646	31.62231
0.6465	28.80249
0.647	34.44214
0.6475	35.54993
0.648	37.86621
0.6485	32.32727
0.649	30.61523
0.6495	22.05505
0.65	13.99841
0.6505	8.25806
0.651	6.2439
0.6515	1.61133
0.652	-4.63257
0.6525	-3.62549
0.653	-6.04248
0.6535	5.53894
0.654	4.02832
0.6545	3.32336
0.655	9.86938
0.6555	15.60974
0.656	12.5885
0.6565	18.93311
0.657	23.56567
0.6575	25.37842
0.658	31.01807
0.6585	35.54993
0.659	34.34143
0.6595	35.44922
0.66	30.81665
0.6605	19.73877
0.661	18.93311
0.6615	2.21558
0.662	-7.25098
0.6625	-13.59558
0.663	-17.52319
0.6635	-18.22815
0.664	-14.09912
0.6645	3.32336
0.665	16.3147
0.6655	23.8678
0.666	21.24939
0.6665	18.53027
0.667	4.53186
0.6675	5.23682
0.668	-8.56018
0.6685	-17.42249
0.669	-20.94727
0.6695	-25.177
0.67	-23.06213
0.6705	-21.55151
0.671	-8.56018
0.6715	-8.66089
0.672	-0.70496
0.6725	8.25806
0.673	12.5885
0.6735	20.1416
0.674	23.16284
0.6745	23.36426
0.675	21.3501
0.6755	24.47205
0.676	24.16992
0.6765	23.66638
0.677	21.04797
0.6775	22.35718
0.678	10.67505
0.6785	10.77576
0.679	6.2439
0.6795	-6.2439
0.68	-11.98425
0.6805	-17.42249
0.681	-22.96143
0.6815	-24.27063
0.682	-30.11169
0.6825	-37.46338
0.683	-32.32727
0.6835	-38.16833
0.684	-31.62231
0.6845	-14.09912
0.685	-1.00708
0.6855	10.37292
0.686	20.1416
0.6865	26.98975
0.687	41.59241
0.6875	89.02588
0.688	134.34448
0.6885	154.18396
0.689	159.11865
0.6895	156.80237
0.69	140.18555
0.6905	118.93616
0.691	96.27686
0.6915	57.40356
0.692	29.60815
0.6925	-14.09912
0.693	-28.9032
0.6935	-48.13843
0.694	-66.06445
0.6945	-78.95508
0.695	-86.40747
0.6955	-97.58606
0.696	-110.17456
0.6965	-124.17297
0.697	-129.20837
0.6975	-121.05103
0.698	-118.43262
0.6985	-100.30518
0.699	-83.18481
0.6995	-63.44604
0.7	-53.97949
0.7005	-53.07312
0.701	-48.44055
0.7015	-43.30444
0.702	-33.43506
0.7025	-37.7655
0.703	-38.67188
0.7035	-35.04639
0.704	-31.92444
0.7045	-23.26355
0.705	-11.17859
0.7055	-2.61841
0.706	-3.7262
0.7065	-3.32336
0.707	1.10779
0.7075	-2.01416
0.708	0.50354
0.7085	9.97009
0.709	33.83789
0.7095	43.40515
0.71	54.18091
0.7105	57.8064
0.711	63.54675
0.7115	67.57507
0.712	67.47437
0.7125	57.30286
0.713	49.24622
0.7135	41.29028
0.714	27.29187
0.7145	14.09912
0.715	3.62549
0.7155	-9.86938
0.716	-19.83948
0.7165	-22.55859
0.717	-28.70178
0.7175	-23.66638
0.718	-29.10461
0.7185	-27.09045
0.719	-24.16992
0.7195	-20.54443
0.72	-9.97009
0.7205	-0.50354
0.721	-5.43823
0.7215	-12.18567
0.722	-11.88354
0.7225	-8.8623
0.723	-9.56726
0.7235	-3.52478
0.724	-3.62549
0.7245	-3.42407
0.725	1.91345
0.7255	4.22974
0.726	6.74744
0.7265	12.89062
0.727	18.93311
0.7275	20.24231
0.728	19.73877
0.7285	32.12585
0.729	64.75525
0.7295	98.39172
0.73	109.4696
0.7305	121.85669
0.731	130.21545
0.7315	136.76147
0.732	147.53723
0.7325	137.36572
0.733	109.77173
0.7335	76.7395
0.734	33.43506
0.7345	-5.0354
0.735	-40.38391
0.7355	-70.79773
0.736	-94.3634
0.7365	-104.4342
0.737	-117.22412
0.7375	-108.66394
0.738	-94.3634
0.7385	-80.06287
0.739	-72.40906
0.7395	-70.19348
0.74	-65.15808
0.7405	-46.42639
0.741	-33.43506
0.7415	-29.80957
0.742	-18.8324
0.7425	-6.64673
0.743	-3.7262
0.7435	2.71912
0.744	6.44531
0.7445	0
0.745	-4.63257
0.7455	-10.0708
0.746	-9.66797
0.7465	-4.53186
0.747	9.56726
0.7475	33.33435
0.748	62.03613
0.7485	72.50977
0.749	94.86694
0.7495	104.3335
0.75	106.54907
0.7505	95.97473
0.751	86.20605
0.7515	80.36499
0.752	57.10144
0.7525	35.95276
0.753	17.6239
0.7535	3.62549
0.754	-12.38708
0.7545	-34.44214
0.755	-54.0802
0.7555	-54.68445
0.756	-55.59082
0.7565	-51.76392
0.757	-52.16675
0.7575	-48.03772
0.758	-34.24072
0.7585	-17.22107
0.759	-17.52319
0.7595	-24.27063
0.76	-25.78125
0.7605	-29.30603
0.761	-21.3501
0.7615	-15.71045
0.762	-9.26514
0.7625	-3.62549
0.763	-4.43115
0.7635	-0.10071
0.764	10.97717
0.7645	20.04089
0.765	26.88904
0.7655	25.27771
0.766	23.8678
0.7665	33.43506
0.767	39.88037
0.7675	44.21082
0.768	47.63489
0.7685	70.29419
0.769	107.15332
0.7695	112.69226
0.77	110.57739
0.7705	95.5719
0.771	74.52393
0.7715	52.46887
0.772	21.55151
0.7725	2.61841
0.773	-14.50195
0.7735	-37.86621
0.774	-49.0448
0.7745	-45.2179
0.775	-12.68921
0.7755	25.68054
0.776	63.24463
0.7765	83.08411
0.777	92.24854
0.7775	85.90393
0.778	79.55933
0.7785	74.62463
0.779	62.43896
0.7795	61.23047
0.78	50.55542
0.7805	33.83789
0.781	14.60266
0.7815	4.73328
0.782	-3.8269
0.7825	-5.84106
0.783	-8.7616
0.7835	-1.61133
0.784	-2.61841
0.7845	-8.8623
0.785	-7.75452
0.7855	3.02124
0.786	1.51062
0.7865	3.32336
0.787	9.66797
0.7875	6.3446
0.788	-8.35876
0.7885	-19.63806
0.789	-26.58691
0.7895	-34.44214
0.79	-30.41382
0.7905	-29.40674
0.791	-29.00391
0.7915	-20.04089
0.792	-23.36426
0.7925	-15.1062
0.793	-3.42407
0.7935	48.54126
0.794	82.88269
0.7945	94.16199
0.795	95.87402
0.7955	92.75208
0.796	87.21313
0.7965	72.81189
0.797	54.38232
0.7975	43.70728
0.798	25.98267
0.7985	3.52478
0.799	-10.87646
0.7995	-21.65222
0.8	-31.82373
0.8005	-40.08179
0.801	-52.06604
0.8015	-63.64746
0.802	-71.50269
0.8025	-74.82605
0.803	-71.7041
0.8035	-62.8418
0.804	-44.51294
0.8045	-26.48621
0.805	-8.8623
0.8055	40.48462
0.806	92.95349
0.8065	132.53174
0.807	148.14148
0.8075	153.98254
0.808	158.61511
0.8085	159.7229
0.809	161.73706
0.8095	149.6521
0.81	132.63245
0.8105	109.16748
0.811	85.60181
0.8115	49.34692
0.812	7.15027
0.8125	-36.95984
0.813	-83.68835
0.8135	-130.11475
0.814	-146.22803
0.8145	-155.896
0.815	-165.66467
0.8155	-165.26184
0.816	-159.42078
0.8165	-126.08643
0.817	-94.76624
0.8175	-72.20764
0.818	-53.07312
0.8185	-31.92444
0.819	-19.63806
0.8195	-10.77576
0.82	-5.74036
0.8205	9.26514
0.821	28.70178
0.8215	38.16833
0.822	38.47046
0.8225	44.81506
0.823	42.59949
0.8235	41.18958
0.824	30.2124
0.8245	28.60107
0.825	21.95435
0.8255	12.68921
0.826	2.11487
0.8265	0.90637
0.827	-3.92761
0.8275	-7.75452
0.828	-9.76868
0.8285	-13.49487
0.829	-9.76868
0.8295	-2.31628
0.83	15.00549
0.8305	26.88904
0.831	36.4563
0.8315	35.34851
0.832	34.44214
0.8325	27.09045
0.833	12.5885
0.8335	10.97717
0.834	5.94177
0.8345	8.7616
0.835	5.74036
0.8355	13.49487
0.836	18.93311
0.8365	19.13452
0.837	31.62231
0.8375	23.06213
0.838	27.99683
0.8385	26.88904
0.839	21.24939
0.8395	15.40833
0.84	24.97559
0.8405	14.40125
0.841	20.1416
0.8415	22.05505
0.842	18.53027
0.8425	17.01965
0.843	22.76001
0.8435	19.13452
0.844	14.40125
0.8445	13.69629
0.845	7.15027
0.8455	11.38
0.846	12.68921
0.8465	13.29346
0.847	9.86938
0.8475	15.71045
0.848	13.59558
0.8485	19.43665
0.849	20.84656
0.8495	21.24939
0.85	24.87488
0.8505	29.70886
0.851	27.09045
0.8515	30.81665
0.852	36.25488
0.8525	42.7002
0.853	43.10303
0.8535	47.7356
0.854	46.12427
0.8545	35.14709
0.855	24.47205
0.8555	17.22107
0.856	8.25806
0.8565	-1.51062
0.857	-9.16443
0.8575	-26.08337
0.858	-34.24072
0.8585	-37.66479
0.859	-22.35718
0.8595	-11.07788
0.86	-6.94885
0.8605	-2.11487
0.861	-4.12903
0.8615	-2.61841
0.862	3.22266
0.8625	4.73328
0.863	-2.61841
0.8635	-1.91345
0.864	-6.3446
0.8645	-13.29346
0.865	-8.05664
0.8655	-12.38708
0.866	-14.80408
0.8665	-7.65381
0.867	-1.2085
0.8675	-0.20142
0.868	-4.43115
0.8685	-5.53894
0.869	-8.45947
0.8695	-6.74744
0.87	6.3446
0.8705	10.27222
0.871	17.12036
0.8715	20.44373
0.872	29.10461
0.8725	53.27454
0.873	77.54517
0.8735	88.62305
0.874	93.15491
0.8745	85.90393
0.875	88.62305
0.8755	80.56641
0.876	60.3241
0.8765	35.2478
0.877	10.47363
0.8775	-17.82532
0.878	-8.8623
0.8785	-4.53186
0.879	-2.21558
0.8795	-5.84106
0.88	-21.04797
0.8805	-36.95984
0.881	-52.97241
0.8815	-62.64038
0.882	-82.37915
0.8825	-98.99597
0.883	-110.47668
0.8835	-102.72217
0.884	-98.99597
0.8845	-91.44287
0.885	-84.19189
0.8855	-73.41614
0.886	-52.26746
0.8865	-31.32019
0.887	-12.68921
0.8875	4.33044
0.888	13.797
0.8885	32.32727
0.889	45.2179
0.8895	46.92993
0.89	50.65613
0.8905	46.32568
0.891	51.96533
0.8915	55.49011
0.892	55.49011
0.8925	55.49011
0.893	55.49011
0.8935	55.49011
0.894	55.49011
0.8945	55.49011
0.895	55.49011
0.8955	55.49011
0.896	55.49011
0.8965	55.49011
0.897	55.49011
0.8975	55.49011
0.898	55.49011
0.8985	55.49011
0.899	55.49011
0.8995	55.49011
0.9	55.49011
0.9005	55.49011
0.901	55.49011
0.9015	55.49011
0.902	30.51453
0.9025	42.8009
0.903	48.94409
0.9035	39.67896
0.904	31.82373
0.9045	8.15735
0.905	-16.11328
0.9055	-39.88037
0.906	-61.6333
0.9065	-80.56641
0.907	-89.328
0.9075	-95.77332
0.908	-95.77332
0.9085	-78.75366
0.909	-69.48853
0.9095	-54.48303
0.91	-46.72852
0.9105	-24.37134
0.911	-8.56018
0.9115	-0.10071
0.912	1.10779
0.9125	-2.5177
0.913	4.53186
0.9135	7.15027
0.914	5.74036
0.9145	12.5885
0.915	14.30054
0.9155	16.71753
0.916	13.797
0.9165	10.67505
0.917	17.12036
0.9175	12.78992
0.918	10.77576
0.9185	9.16443
0.919	8.96301
0.9195	4.93469
0.92	8.15735
0.9205	7.85522
0.921	7.5531
0.9215	11.98425
0.922	7.65381
0.9225	14.30054
0.923	16.51611
0.9235	12.89062
0.924	19.13452
0.9245	15.40833
0.925	15.30762
0.9255	13.89771
0.926	14.40125
0.9265	13.19275
0.927	15.71045
0.9275	15.30762
0.928	16.41541
0.9285	24.47205
0.929	15.60974
0.9295	18.02673
0.93	11.17859
0.9305	15.30762
0.931	11.68213
0.9315	9.46655
0.932	4.73328
0.9325	2.5177
0.933	-4.63257
0.9335	-0.90637
0.934	-10.0708
0.9345	-6.14319
0.935	-8.05664
0.9355	-7.95593
0.936	-12.08496
0.9365	-10.57434
0.937	-9.06372
0.9375	1.91345
0.938	-5.63965
0.9385	4.43115
0.939	7.65381
0.9395	6.14319
0.94	7.15027
0.9405	1.81274
0.941	-0.30212
0.9415	4.33044
0.942	9.36584
0.9425	5.74036
0.943	8.05664
0.9435	5.33752
0.944	9.86938
0.9445	10.0708
0.945	6.14319
0.9455	8.25806
0.946	2.11487
0.9465	8.25806
0.947	4.83398
0.9475	8.25806
0.948	1.91345
0.9485	5.13611
0.949	2.92053
0.9495	-0.40283
0.95	5.13611
0.9505	0.80566
0.951	3.22266
0.9515	0.60425
0.952	0
0.9525	4.93469
0.953	3.42407
0.9535	-1.3092
0.954	1.00708
0.9545	4.22974
0.955	5.63965
0.9555	8.96301
0.956	2.92053
0.9565	8.35876
0.957	10.37292
0.9575	11.07788
0.958	13.99841
0.9585	13.39417
0.959	15.20691
0.9595	16.3147
0.96	16.41541
0.9605	18.32886
0.961	21.14868
0.9615	19.94019
0.962	18.63098
0.9625	12.78992
0.963	6.74744
0.9635	0.60425
0.964	-1.71204
0.9645	-7.04956
0.965	-11.38
0.9655	-9.26514
0.966	-12.38708
0.9665	-10.17151
0.967	-10.0708
0.9675	-12.38708
0.968	-12.38708
0.9685	-11.2793
0.969	-14.19983
0.9695	-2.92053
0.97	-5.23682
0.9705	-3.42407
0.971	2.11487
0.9715	7.45239
0.972	6.64673
0.9725	8.8623
0.973	5.23682
0.9735	14.09912
0.974	20.44373
0.9745	32.42798
0.975	33.03223
0.9755	32.42798
0.976	33.33435
0.9765	27.79541
0.977	22.55859
0.9775	18.32886
0.978	10.37292
0.9785	9.86938
0.979	7.45239
0.9795	-1.00708
0.98	-8.05664
0.9805	-15.50903
0.981	-21.24939
0.9815	-23.16284
0.982	-22.25647
0.9825	-21.85364
0.983	-12.48779
0.9835	-14.19983
0.984	-7.04956
0.9845	-1.91345
0.985	0.50354
0.9855	3.32336
0.986	1.61133
0.9865	4.02832
0.987	9.86938
0.9875	7.45239
0.988	10.37292
0.9885	8.96301
0.989	5.13611
0.9895	5.53894
0.99	5.74036
0.9905	5.84106
0.991	7.5531
0.9915	4.33044
0.992	8.15735
0.9925	22.76001
0.993	20.74585
0.9935	16.41541
0.994	21.95435
0.9945	19.13452
0.995	16.01257
0.9955	17.72461
0.996	16.91895
0.9965	15.81116
0.997	20.74585
0.9975	12.18567
0.998	12.99133
0.9985	12.78992
0.999	10.17151
0.9995	6.2439
1	7.25098
1.0005	6.74744
1.001	14.70337
1.0015	18.42957
1.002	17.6239
1.0025	19.83948
1.003	21.95435
1.0035	21.85364
1.004	26.68762
1.0045	26.18408
1.005	23.46497
1.0055	17.6239
1.006	11.07788
1.0065	6.54602
1.007	17.6239
1.0075	16.3147
1.008	18.32886
1.0085	27.19116
1.009	39.88037
1.0095	51.15967
1.01	66.6687
1.0105	73.71826
1.011	80.96924
1.0115	77.54517
1.012	62.23755
1.0125	38.974
1.013	7.45239
1.0135	-33.63647
1.014	-74.52393
1.0145	-98.99597
1.015	-118.83545
1.0155	-125.07935
1.016	-120.64819
1.0165	-116.31775
1.017	-96.47827
1.0175	-69.28711
1.018	-51.5625
1.0185	-29.80957
1.019	-14.90479
1.0195	-2.01416
1.02	1.3092
1.0205	-6.44531
1.021	0.20142
1.0215	-4.12903
1.022	-8.15735
1.0225	-11.68213
1.023	-11.58142
1.0235	-16.11328
1.024	-12.28638
1.0245	-8.35876
1.025	-5.53894
1.0255	-4.22974
1.026	-3.02124
1.0265	-1.00708
1.027	-7.04956
1.0275	-1.00708
1.028	1.2085
1.0285	6.84814
1.029	5.94177
1.0295	5.0354
1.03	9.06372
1.0305	14.50195
1.031	18.73169
1.0315	20.64514
1.032	15.60974
1.0325	18.42957
1.033	18.22815
1.0335	10.77576
1.034	10.67505
1.0345	11.68213
1.035	11.78284
1.0355	7.35168
1.036	3.52478
1.0365	9.36584
1.037	8.05664
1.0375	3.92761
1.038	-0.80566
1.0385	-0.60425
1.039	2.71912
1.0395	-5.13611
1.04	-4.53186
1.0405	-3.02124
1.041	-10.57434
1.0415	-5.84106
1.042	-1.91345
1.0425	-5.94177
1.043	-1.2085
1.0435	0.80566
1.044	5.43823
1.0445	8.56018
1.045	7.35168
1.0455	8.05664
1.046	9.16443
1.0465	9.76868
1.047	7.85522
1.0475	3.52478
1.048	1.91345
1.0485	5.94177
1.049	10.37292
1.0495	8.8623
1.05	10.97717
1.0505	9.76868
1.051	16.61682
1.0515	12.68921
1.052	17.52319
1.0525	11.98425
1.053	9.66797
1.0535	9.06372
1.054	8.45947
1.0545	4.93469
1.055	4.63257
1.0555	-3.8269
1.056	-0.50354
1.0565	-1.71204
1.057	-5.43823
1.0575	-14.40125
1.058	-10.0708
1.0585	-11.48071
1.059	-14.60266
1.0595	-17.52319
1.06	-17.01965
1.0605	-17.42249
1.061	-21.45081
1.0615	-17.32178
1.062	-12.28638
1.0625	-17.82532
1.063	-12.38708
1.0635	-6.94885
1.064	-4.73328
1.0645	-1.00708
1.065	-7.15027
1.0655	-4.43115
1.066	0.60425
1.0665	5.84106
1.067	8.56018
1.0675	6.2439
1.068	1.91345
1.0685	3.8269
1.069	4.93469
1.0695	4.12903
1.07	0.90637
1.0705	-1.51062
1.071	-0.60425
1.0715	-2.92053
1.072	-1.40991
1.0725	2.5177
1.073	-8.15735
1.0735	-2.92053
1.074	-6.74744
1.0745	-8.45947
1.075	-1.71204
1.0755	0.10071
1.076	-1.81274
1.0765	-2.01416
1.077	-5.33752
1.0775	2.21558
1.078	-5.53894
1.0785	-4.22974
1.079	-4.02832
1.0795	-1.91345
1.08	-0.40283
1.0805	-0.80566
1.081	2.01416
1.0815	4.33044
1.082	3.22266
1.0825	0.50354
1.083	7.15027
1.0835	2.31628
1.084	3.62549
1.0845	-2.31628
1.085	2.61841
1.0855	2.71912
1.086	8.66089
1.0865	3.22266
1.087	2.71912
1.0875	8.15735
1.088	17.72461
1.0885	16.01257
1.089	20.34302
1.0895	24.77417
1.09	26.88904
1.0905	35.14709
1.091	28.80249
1.0915	21.55151
1.092	17.6239
1.0925	6.94885
1.093	-1.3092
1.0935	-10.97717
1.094	-21.45081
1.0945	-34.84497
1.095	-45.72144
1.0955	-51.05896
1.096	-55.59082
1.0965	-55.2887
1.097	-47.53418
1.0975	-34.64355
1.098	-20.94727
1.0985	-16.51611
1.099	-10.77576
1.0995	-14.30054
1.1	-6.44531
1.1005	11.88354
1.101	8.8623
1.1015	14.19983
1.102	8.56018
1.1025	3.52478
1.103	7.25098
1.1035	7.15027
1.104	6.04248
1.1045	8.56018
1.105	2.5177
1.1055	2.21558
1.106	-0.50354
1.1065	-7.45239
1.107	-1.3092
1.1075	-4.33044
1.108	-3.7262
1.1085	-7.15027
1.109	-9.76868
1.1095	-11.48071
1.11	-12.08496
1.1105	-15.00549
1.111	-3.32336
1.1115	8.56018
1.112	16.01257
1.1125	32.93152
1.113	58.51135
1.1135	70.09277
1.114	69.38782
1.1145	62.43896
1.115	60.4248
1.1155	41.99524
1.116	30.71594
1.1165	24.47205
1.117	17.32178
1.1175	0.90637
1.118	-10.47363
1.1185	-21.3501
1.119	-23.26355
1.1195	-23.76709
1.12	-19.94019
1.1205	-27.79541
1.121	-30.31311
1.1215	-25.177
1.122	-26.68762
1.1225	-27.89612
1.123	-33.73718
1.1235	-40.58533
1.124	-47.53418
1.1245	-63.14392
1.125	-76.53809
1.1255	-90.03296
1.126	-96.47827
1.1265	-103.32642
1.127	-94.3634
1.1275	-85.80322
1.128	-74.42322
1.1285	-58.10852
1.129	-55.3894
1.1295	-46.22498
1.13	-41.99524
1.1305	-33.83789
1.131	-26.68762
1.1315	-26.78833
1.132	-19.63806
1.1325	-6.94885
1.133	-3.7262
1.1335	-1.51062
1.134	1.10779
1.1345	4.53186
1.135	1.91345
1.1355	12.89062
1.136	7.65381
1.1365	12.28638
1.137	1.61133
1.1375	0.50354
1.138	0.10071
1.1385	-3.12195
1.139	-9.36584
1.1395	-9.46655
1.14	-12.38708
1.1405	-14.60266
1.141	-18.73169
1.1415	-20.74585
1.142	-25.68054
1.1425	-20.94727
1.143	-27.79541
1.1435	-26.78833
1.144	-20.64514
1.1445	-23.26355
1.145	-20.94727
1.1455	-15.60974
1.146	-8.66089
1.1465	-7.65381
1.147	-5.63965
1.1475	-0.50354
1.148	-1.40991
1.1485	-2.81982
1.149	2.81982
1.1495	-2.11487
1.15	-8.35876
1.1505	-6.14319
1.151	-2.81982
1.1515	-3.32336
1.152	-7.25098
1.1525	-8.35876
1.153	-11.17859
1.1535	-3.92761
1.154	-3.22266
1.1545	-3.52478
1.155	-5.43823
1.1555	-2.11487
1.156	-1.81274
1.1565	0.60425
1.157	-2.21558
1.1575	-4.63257
1.158	-7.04956
1.1585	-7.35168
1.159	-4.63257
1.1595	-6.54602
1.16	-1.61133
1.1605	-8.7616
1.161	-3.8269
1.1615	1.40991
1.162	1.71204
1.1625	-0.90637
1.163	-1.51062
1.1635	-1.10779
1.164	-6.04248
1.1645	-7.95593
1.165	-3.7262
1.1655	-7.75452
1.166	0.50354
1.1665	-1.71204
1.167	-3.92761
1.1675	-2.41699
1.168	5.23682
1.1685	5.84106
1.169	3.62549
1.1695	10.27222
1.17	14.30054
1.1705	16.21399
1.171	10.67505
1.1715	11.2793
1.172	8.56018
1.1725	13.59558
1.173	20.64514
1.1735	30.81665
1.174	27.19116
1.1745	23.46497
1.175	24.77417
1.1755	26.58691
1.176	20.44373
1.1765	12.18567
1.177	8.35876
1.1775	0.50354
1.178	-5.94177
1.1785	-8.56018
1.179	-4.02832
1.1795	-15.71045
1.18	-17.42249
1.1805	-19.63806
1.181	-26.18408
1.1815	-27.39258
1.182	-34.24072
1.1825	-32.32727
1.183	-26.3855
1.1835	-28.19824
1.184	-20.74585
1.1845	-27.89612
1.185	-28.29895
1.1855	-20.44373
1.186	-14.80408
1.1865	-8.15735
1.187	-6.94885
1.1875	1.61133
1.188	5.53894
1.1885	0.70496
1.189	3.8269
1.1895	1.10779
1.19	-0.50354
1.1905	-3.8269
1.191	-0.80566
1.1915	0.10071
1.192	3.7262
1.1925	4.63257
1.193	6.54602
1.1935	7.35168
1.194	7.45239
1.1945	14.70337
1.195	15.40833
1.1955	22.96143
1.196	18.32886
1.1965	22.55859
1.197	23.36426
1.1975	27.6947
1.198	35.14709
1.1985	34.74426
1.199	38.87329
1.1995	38.974
1.2	37.46338
1.2005	33.13293
1.201	27.19116
1.2015	19.53735
1.202	12.99133
1.2025	3.62549
1.203	6.14319
1.2035	1.71204
1.204	-3.02124
1.2045	-1.71204
1.205	3.02124
1.2055	10.27222
1.206	11.88354
1.2065	17.72461
1.207	3.7262
1.2075	-2.5177
1.208	-20.74585
1.2085	-36.55701
1.209	-55.49011
1.2095	-67.17224
1.21	-69.79065
1.2105	-70.49561
1.211	-60.82764
1.2115	-51.76392
1.212	-42.09595
1.2125	-30.11169
1.213	-19.63806
1.2135	-14.09912
1.214	-11.78284
1.2145	-8.15735
1.215	-2.41699
1.2155	-3.8269
1.216	-2.92053
1.2165	-0.40283
1.217	3.62549
1.2175	3.52478
1.218	6.44531
1.2185	12.28638
1.219	8.96301
1.2195	10.47363
1.22	8.66089
1.2205	13.99841
1.221	18.53027
1.2215	11.48071
1.222	14.80408
1.2225	11.68213
1.223	14.80408
1.2235	14.09912
1.224	17.12036
1.2245	11.2793
1.225	11.58142
1.2255	15.60974
1.226	13.29346
1.2265	15.71045
1.227	16.81824
1.2275	17.92603
1.228	20.54443
1.2285	12.89062
1.229	19.23523
1.2295	18.02673
1.23	21.3501
1.2305	22.76001
1.231	25.27771
1.2315	24.87488
1.232	21.14868
1.2325	26.08337
1.233	18.63098
1.2335	16.41541
1.234	13.59558
1.2345	11.88354
1.235	2.81982
1.2355	1.3092
1.236	-3.32336
1.2365	-3.22266
1.237	1.40991
1.2375	-3.02124
1.238	-7.15027
1.2385	-11.78284
1.239	-7.85522
1.2395	-7.85522
1.24	-2.5177
1.2405	-3.32336
1.241	0.10071
1.2415	-4.63257
1.242	1.10779
1.2425	2.11487
1.243	2.92053
1.2435	0.20142
1.244	0.50354
1.2445	10.0708
1.245	0.60425
1.2455	5.23682
1.246	4.02832
1.2465	11.98425
1.247	20.04089
1.2475	21.95435
1.248	24.27063
1.2485	22.35718
1.249	24.27063
1.2495	21.75293
1.25	22.55859
1.2505	12.5885
1.251	13.09204
1.2515	10.0708
1.252	-0.30212
1.2525	-9.86938
1.253	-12.99133
1.2535	-15.71045
1.254	-8.7616
1.2545	-8.8623
1.255	-13.89771
1.2555	-13.59558
1.256	-15.71045
1.2565	-9.66797
1.257	-5.63965
1.2575	-7.65381
1.258	-1.2085
1.2585	7.04956
1.259	11.2793
1.2595	17.22107
1.26	16.01257
1.2605	14.70337
1.261	8.25806
1.2615	7.45239
1.262	9.86938
1.2625	8.25806
1.263	6.04248
1.2635	13.19275
1.264	12.28638
1.2645	9.16443
1.265	10.87646
1.2655	7.04956
1.266	10.0708
1.2665	12.38708
1.267	12.99133
1.2675	12.5885
1.268	13.09204
1.2685	12.08496
1.269	12.28638
1.2695	12.28638
1.27	15.1062
1.2705	10.97717
1.271	17.92603
1.2715	19.63806
1.272	17.01965
1.2725	17.82532
1.273	9.86938
1.2735	14.50195
1.274	8.15735
1.2745	11.2793
1.275	13.89771
1.2755	12.5885
1.276	19.13452
1.2765	15.40833
1.277	17.12036
1.2775	20.34302
1.278	12.18567
1.2785	19.23523
1.279	19.43665
1.2795	19.63806
1.28	16.61682
1.2805	17.01965
1.281	15.71045
1.2815	22.76001
1.282	17.92603
1.2825	18.42957
1.283	15.50903
1.2835	12.5885
1.284	17.72461
1.2845	9.46655
1.285	16.51611
1.2855	18.12744
1.286	13.59558
1.2865	11.78284
1.287	19.94019
1.2875	18.02673
1.288	14.60266
1.2885	20.24231
1.289	17.52319
1.2895	14.19983
1.29	17.92603
1.2905	16.01257
1.291	15.91187
1.2915	18.42957
1.292	17.32178
1.2925	15.1062
1.293	16.61682
1.2935	14.90479
1.294	12.78992
1.2945	14.80408
1.295	20.04089
1.2955	8.96301
1.296	10.47363
1.2965	12.89062
1.297	9.66797
1.2975	14.19983
1.298	15.91187
1.2985	11.68213
1.299	9.66797
1.2995	13.69629
1.3	11.07788
1.3005	8.35876
1.301	14.60266
1.3015	15.40833
1.302	18.73169
1.3025	20.34302
1.303	17.52319
1.3035	13.09204
1.304	19.43665
1.3045	19.83948
1.305	14.80408
1.3055	12.38708
1.306	18.32886
1.3065	18.53027
1.307	16.51611
1.3075	16.71753
1.308	19.83948
1.3085	15.91187
1.309	21.55151
1.3095	18.93311
1.31	16.11328
1.3105	12.08496
1.311	9.36584
1.3115	12.08496
1.312	17.01965
1.3125	13.69629
1.313	12.68921
1.3135	8.56018
1.314	12.08496
1.3145	14.40125
1.315	14.19983
1.3155	15.00549
1.316	14.50195
1.3165	11.78284
1.317	12.5885
1.3175	17.01965
1.318	6.04248
1.3185	10.27222
1.319	11.58142
1.3195	16.51611
1.32	14.30054
1.3205	14.70337
1.321	17.32178
1.3215	17.72461
1.322	23.96851
1.3225	21.65222
1.323	20.44373
1.3235	26.88904
1.324	23.06213
1.3245	22.45789
1.325	25.68054
1.3255	27.59399
1.326	21.04797
1.3265	25.57983
1.327	20.94727
1.3275	21.95435
1.328	23.26355
1.3285	18.53027
1.329	16.91895
1.3295	23.06213
1.33	22.86072
1.3305	23.66638
1.331	15.30762
1.3315	16.41541
1.332	20.04089
1.3325	13.29346
1.333	19.43665
1.3335	21.45081
1.334	17.42249
1.3345	20.1416
1.335	23.36426
1.3355	20.44373
1.336	21.65222
1.3365	19.43665
1.337	22.35718
1.3375	21.95435
1.338	18.12744
1.3385	16.01257
1.339	17.12036
1.3395	23.66638
1.34	22.76001
1.3405	26.08337
1.341	18.42957
1.3415	16.41541
1.342	22.86072
1.3425	23.56567
1.343	22.6593
1.3435	18.93311
1.344	24.06921
1.3445	20.64514
1.345	22.6593
1.3455	17.72461
1.346	14.19983
1.3465	17.32178
1.347	18.22815
1.3475	17.22107
1.348	16.3147
1.3485	21.95435
1.349	22.6593
1.3495	22.45789
1.35	25.57983
1.3505	24.87488
1.351	23.16284
1.3515	18.42957
1.352	19.13452
1.3525	22.55859
1.353	17.12036
1.3535	13.89771
1.354	15.40833
1.3545	11.78284
1.355	18.63098
1.3555	14.80408
1.356	18.22815
1.3565	15.30762
1.357	18.12744
1.3575	20.94727
1.358	22.55859
1.3585	17.6239
1.359	22.35718
1.3595	21.45081
1.36	22.15576
1.3605	23.96851
1.361	18.42957
1.3615	16.81824
1.362	17.12036
1.3625	21.04797
1.363	19.33594
1.3635	20.04089
1.364	20.04089
1.3645	14.70337
1.365	21.45081
1.3655	15.71045
1.366	18.53027
1.3665	19.63806
1.367	16.61682
1.3675	17.92603
1.368	17.92603
1.3685	20.24231
1.369	19.63806
1.3695	19.53735
1.37	21.55151
1.3705	15.40833
1.371	14.30054
1.3715	13.19275
1.372	13.29346
1.3725	14.30054
1.373	11.58142
1.3735	19.73877
1.374	20.84656
1.3745	18.42957
1.375	19.53735
1.3755	19.73877
1.376	20.24231
1.3765	11.78284
1.377	10.0708
1.3775	12.89062
1.378	15.00549
1.3785	9.46655
1.379	10.87646
1.3795	14.09912
1.38	12.99133
1.3805	10.67505
1.381	11.58142
1.3815	12.99133
1.382	11.07788
1.3825	12.99133
1.383	13.39417
1.3835	12.5885
1.384	10.97717
1.3845	16.51611
1.385	9.97009
1.3855	10.47363
1.386	13.99841
1.3865	14.70337
1.387	10.0708
1.3875	10.77576
1.388	7.75452
1.3885	6.94885
1.389	17.92603
1.3895	8.45947
1.39	11.68213
1.3905	15.91187
1.391	9.66797
1.3915	9.36584
1.392	8.7616
1.3925	14.80408
1.393	16.91895
1.3935	14.50195
1.394	14.50195
1.3945	16.71753
1.395	14.40125
1.3955	14.09912
1.396	13.09204
1.3965	16.71753
1.397	8.35876
1.3975	7.5531
1.398	8.8623
1.3985	6.3446
1.399	5.0354
1.3995	1.61133
1.4	4.33044
1.4005	1.51062
1.401	2.81982
1.4015	9.06372
1.402	7.85522
1.4025	10.57434
1.403	6.3446
1.4035	12.38708
1.404	14.19983
1.4045	8.56018
1.405	12.99133
1.4055	7.45239
1.406	7.04956
1.4065	5.0354
1.407	7.5531
1.4075	9.16443
1.408	8.7616
1.4085	8.96301
1.409	7.75452
1.4095	8.7616
1.41	6.14319
1.4105	7.95593
1.411	6.3446
1.4115	4.73328
1.412	6.84814
1.4125	9.06372
1.413	6.14319
1.4135	9.16443
1.414	4.12903
1.4145	7.15027
1.415	2.21558
1.4155	1.3092
1.416	3.7262
1.4165	4.43115
1.417	7.25098
1.4175	8.15735
1.418	-0.10071
1.4185	4.12903
1.419	3.02124
1.4195	0.20142
1.42	3.8269
1.4205	0.60425
1.421	6.74744
1.4215	8.05664
1.422	9.97009
1.4225	10.27222
1.423	7.45239
1.4235	7.45239
1.424	5.0354
1.4245	9.86938
1.425	14.30054
1.4255	15.1062
1.426	13.69629
1.4265	10.0708
1.427	8.25806
1.4275	5.33752
1.428	5.63965
1.4285	8.96301
1.429	14.70337
1.4295	15.60974
1.43	16.41541
1.4305	11.58142
1.431	14.60266
1.4315	9.36584
1.432	5.74036
1.4325	11.17859
1.433	10.47363
1.4335	13.39417
1.434	10.37292
1.4345	4.63257
1.435	5.33752
1.4355	8.45947
1.436	2.21558
1.4365	4.53186
1.437	0.20142
1.4375	7.25098
1.438	5.23682
1.4385	8.66089
1.439	9.36584
1.4395	8.8623
1.44	8.8623
1.4405	9.76868
1.441	11.2793
1.4415	6.64673
1.442	12.89062
1.4425	20.04089
1.443	12.99133
1.4435	13.89771
1.444	14.09912
1.4445	17.42249
1.445	13.29346
1.4455	18.12744
1.446	17.42249
1.4465	11.38
1.447	8.56018
1.4475	13.797
1.448	11.78284
1.4485	3.92761
1.449	8.8623
1.4495	8.05664
1.45	8.56018
1.4505	8.45947
1.451	10.97717
1.4515	16.91895
1.452	15.81116
1.4525	10.57434
1.453	15.60974
1.4535	16.81824
1.454	15.30762
1.4545	11.98425
1.455	13.59558
1.4555	13.49487
1.456	12.28638
1.4565	11.17859
1.457	13.19275
1.4575	11.58142
1.458	10.97717
1.4585	13.39417
1.459	17.92603
1.4595	18.8324
1.46	11.88354
1.4605	15.60974
1.461	15.1062
1.4615	13.39417
1.462	18.8324
1.4625	12.38708
1.463	16.01257
1.4635	16.61682
1.464	17.52319
1.4645	15.81116
1.465	10.87646
1.4655	12.28638
1.466	12.99133
1.4665	17.32178
1.467	13.49487
1.4675	12.38708
1.468	16.91895
1.4685	19.53735
1.469	18.63098
1.4695	17.01965
1.47	22.6593
1.4705	19.63806
1.471	15.91187
1.4715	13.69629
1.472	16.71753
1.4725	18.22815
1.473	17.42249
1.4735	20.74585
1.474	16.91895
1.4745	20.04089
1.475	20.54443
1.4755	12.68921
1.476	13.49487
1.4765	13.89771
1.477	17.22107
1.4775	14.90479
1.478	8.25806
1.4785	14.19983
1.479	15.20691
1.4795	14.70337
1.48	15.30762
1.4805	19.13452
1.481	12.28638
1.4815	12.5885
1.482	13.49487
1.4825	12.68921
1.483	19.63806
1.4835	12.68921
1.484	15.30762
1.4845	11.78284
1.485	11.78284
1.4855	18.32886
1.486	22.86072
1.4865	16.21399
1.487	13.89771
1.4875	13.99841
1.488	16.91895
1.4885	16.11328
1.489	13.09204
1.4895	12.08496
1.49	12.99133
1.4905	11.98425
1.491	15.00549
1.4915	13.49487
1.492	12.48779
1.4925	15.50903
1.493	20.34302
1.4935	12.5885
1.494	8.35876
1.4945	16.01257
1.495	12.08496
1.4955	10.77576
1.496	15.81116
1.4965	12.28638
1.497	10.67505
1.4975	13.09204
1.498	11.98425
1.4985	13.59558
1.499	9.86938
1.4995	21.04797
1.5	13.59558
1.5005	8.66089
1.501	5.23682
1.5015	10.0708
1.502	6.14319
1.5025	10.57434
1.503	9.86938
1.5035	10.37292
1.504	9.26514
1.5045	11.17859
1.505	7.35168
1.5055	9.86938
1.506	10.87646
1.5065	8.7616
1.507	12.78992
1.5075	12.89062
1.508	9.97009
1.5085	9.16443
1.509	6.84814
1.5095	4.22974
1.51	4.02832
1.5105	3.42407
1.511	9.46655
1.5115	8.66089
1.512	6.84814
1.5125	8.56018
1.513	5.43823
1.5135	10.47363
1.514	5.23682
1.5145	5.33752
1.515	6.54602
1.5155	9.36584
1.516	8.66089
1.5165	7.15027
1.517	3.32336
1.5175	1.40991
1.518	-2.21558
1.5185	-0.70496
1.519	1.91345
1.5195	3.52478
1.52	-0.80566
1.5205	0.40283
1.521	6.14319
1.5215	-0.50354
1.522	1.71204
1.5225	5.84106
1.523	4.53186
1.5235	1.51062
1.524	0.60425
1.5245	1.00708
1.525	-1.61133
1.5255	1.10779
1.526	2.11487
1.5265	-0.30212
1.527	-2.11487
1.5275	3.8269
1.528	2.31628
1.5285	-2.41699
1.529	1.3092
1.5295	0
1.53	4.02832
1.5305	1.40991
1.531	-0.20142
1.5315	-6.94885
1.532	-2.21558
1.5325	-3.02124
1.533	-5.13611
1.5335	-2.92053
1.534	3.12195
1.5345	0.50354
1.535	-0.70496
1.5355	2.61841
1.536	-2.41699
1.5365	-0.10071
1.537	0
1.5375	-4.12903
1.538	-4.73328
1.5385	-2.61841
1.539	-7.15027
1.5395	-0.10071
1.54	3.32336
1.5405	-0.60425
1.541	-4.12903
1.5415	-6.64673
1.542	-3.92761
1.5425	-4.12903
1.543	1.51062
1.5435	-9.06372
1.544	-6.14319
1.5445	0.20142
1.545	-6.54602
1.5455	0.10071
1.546	2.71912
1.5465	-3.32336
1.547	-1.10779
1.5475	-1.91345
1.548	-2.5177
1.5485	-5.13611
1.549	-1.2085
1.5495	-7.35168
1.55	-4.33044
1.5505	-4.43115
1.551	-0.40283
1.5515	-3.32336
1.552	0.40283
1.5525	-4.22974
1.553	-8.35876
1.5535	-8.45947
1.554	-0.90637
1.5545	-2.5177
1.555	-1.61133
1.5555	-3.8269
1.556	0.50354
1.5565	-1.10779
1.557	-1.10779
1.5575	-5.43823
1.558	-5.84106
1.5585	-0.70496
1.559	-6.84814
1.5595	-8.35876
1.56	-5.13611
1.5605	-3.92761
1.561	-2.61841
1.5615	-2.01416
1.562	-6.3446
1.5625	-6.2439
1.563	-4.63257
1.5635	-6.84814
1.564	-10.97717
1.5645	-9.46655
1.565	-8.05664
1.5655	-7.45239
1.566	-7.65381
1.5665	-3.8269
1.567	-1.71204
1.5675	-6.04248
1.568	-4.33044
1.5685	-1.2085
1.569	-2.71912
1.5695	-2.01416
1.57	-4.33044
1.5705	0.20142
1.571	-4.22974
1.5715	1.71204
1.572	-0.20142
1.5725	-1.61133
1.573	1.00708
1.5735	1.71204
1.574	0.10071
1.5745	1.10779
1.575	-0.80566
1.5755	-2.41699
1.576	-0.90637
1.5765	-3.32336
1.577	-2.11487
1.5775	4.12903
1.578	-1.91345
1.5785	-3.02124
1.579	-4.02832
1.5795	-1.91345
1.58	1.91345
1.5805	-3.32336
1.581	-7.75452
1.5815	2.11487
1.582	0
1.5825	0
1.583	2.01416
1.5835	0.30212
1.584	-4.73328
1.5845	-3.22266
1.585	-3.92761
1.5855	-1.2085
1.586	0.30212
1.5865	0.90637
1.587	-4.83398
1.5875	-5.43823
1.588	-6.3446
1.5885	-6.04248
1.589	-6.04248
1.5895	-5.74036
1.59	-7.25098
1.5905	-5.33752
1.591	-1.2085
1.5915	2.21558
1.592	-5.63965
1.5925	-3.02124
1.593	-1.40991
1.5935	-1.61133
1.594	-0.70496
1.5945	-5.13611
1.595	-0.80566
1.5955	-0.30212
1.596	-2.21558
1.5965	2.5177
1.597	1.51062
1.5975	3.62549
1.598	-2.5177
1.5985	-0.50354
1.599	3.8269
1.5995	0.90637
1.6	4.22974
1.6005	-0.30212
1.601	-3.32336
1.6015	-1.2085
1.602	-3.02124
1.6025	-5.84106
1.603	-2.01416
1.6035	-4.12903
1.604	-4.73328
1.6045	-2.41699
1.605	-3.02124
1.6055	-1.40991
1.606	-1.3092
1.6065	-6.3446
1.607	-2.31628
1.6075	-2.41699
1.608	-1.2085
1.6085	-6.14319
1.609	-6.74744
1.6095	-5.84106
1.61	-3.62549
1.6105	-3.52478
1.611	-0.70496
1.6115	-3.62549
1.612	-6.94885
1.6125	-6.3446
1.613	-8.56018
1.6135	-3.32336
1.614	-6.04248
1.6145	-9.26514
1.615	-8.25806
1.6155	-5.0354
1.616	-0.80566
1.6165	-6.14319
1.617	-3.22266
1.6175	-5.33752
1.618	-7.25098
1.6185	-2.41699
1.619	-1.71204
1.6195	-3.8269
1.62	1.00708
1.6205	-1.61133
1.621	-2.5177
1.6215	-3.02124
1.622	-0.80566
1.6225	0.70496
1.623	-0.30212
1.6235	-1.00708
1.624	1.10779
1.6245	-3.52478
1.625	0.60425
1.6255	-0.60425
1.626	-2.11487
1.6265	-6.14319
1.627	-4.43115
1.6275	-3.02124
1.628	-4.83398
1.6285	-4.83398
1.629	-4.33044
1.6295	-10.67505
1.63	-6.84814
1.6305	-4.63257
1.631	-6.74744
1.6315	-2.11487
1.632	-6.54602
1.6325	-6.44531
1.633	-0.20142
1.6335	-3.12195
1.634	-5.53894
1.6345	-5.63965
1.635	-2.41699
1.6355	-1.71204
1.636	-5.13611
1.6365	-6.2439
1.637	-4.83398
1.6375	2.21558
1.638	-3.42407
1.6385	-7.04956
1.639	-4.12903
1.6395	-1.71204
1.64	-3.8269
1.6405	0.40283
1.641	2.41699
1.6415	0.50354
1.642	-2.81982
1.6425	-2.71912
1.643	-0.30212
1.6435	0.50354
1.644	0.10071
1.6445	2.81982
1.645	4.73328
1.6455	4.33044
1.646	6.04248
1.6465	-0.40283
1.647	-2.11487
1.6475	0.70496
1.648	1.3092
1.6485	2.11487
1.649	6.14319
1.6495	0.10071
1.65	8.56018
1.6505	8.15735
1.651	2.61841
1.6515	2.41699
1.652	0.20142
1.6525	1.81274
1.653	-0.10071
1.6535	5.43823
1.654	0.10071
1.6545	-1.3092
1.655	-1.91345
1.6555	-1.61133
1.656	5.43823
1.6565	4.93469
1.657	4.22974
1.6575	8.66089
1.658	8.8623
1.6585	7.45239
1.659	10.0708
1.6595	1.2085
1.66	6.04248
1.6605	9.26514
1.661	9.66797
1.6615	11.07788
1.662	6.2439
1.6625	6.04248
1.663	5.13611
1.6635	10.0708
1.664	7.5531
1.6645	4.12903
1.665	6.84814
1.6655	9.46655
1.666	5.43823
1.6665	8.66089
1.667	9.36584
1.6675	4.63257
1.668	0.90637
1.6685	1.61133
1.669	5.13611
1.6695	8.96301
1.67	5.23682
1.6705	2.71912
1.671	10.0708
1.6715	6.04248
1.672	1.2085
1.6725	3.7262
1.673	3.62549
1.6735	7.15027
1.674	10.47363
1.6745	8.56018
1.675	6.74744
1.6755	5.63965
1.676	5.23682
1.6765	4.73328
1.677	2.81982
1.6775	3.62549
1.678	10.27222
1.6785	10.27222
1.679	5.43823
1.6795	4.53186
1.68	10.97717
1.6805	7.5531
1.681	7.45239
1.6815	8.35876
1.682	8.05664
1.6825	6.94885
1.683	10.0708
1.6835	5.13611
1.684	5.33752
1.6845	6.44531
1.685	2.71912
1.6855	7.5531
1.686	6.74744
1.6865	2.41699
1.687	7.65381
1.6875	9.86938
1.688	4.53186
1.6885	4.73328
1.689	9.86938
1.6895	9.86938
1.69	10.77576
1.6905	7.85522
1.691	7.04956
1.6915	5.74036
1.692	6.64673
1.6925	5.23682
1.693	6.14319
1.6935	8.15735
1.694	5.0354
1.6945	9.16443
1.695	6.74744
1.6955	1.3092
1.696	3.52478
1.6965	3.92761
1.697	4.63257
1.6975	4.93469
1.698	8.35876
1.6985	8.56018
1.699	9.26514
1.6995	6.64673
1.7	8.7616
1.7005	9.46655
1.701	8.56018
1.7015	6.04248
1.702	9.46655
1.7025	9.76868
1.703	10.17151
1.7035	4.63257
1.704	5.94177
1.7045	7.15027
1.705	8.8623
1.7055	10.67505
1.706	1.81274
1.7065	8.8623
1.707	8.8623
1.7075	6.84814
1.708	3.8269
1.7085	7.75452
1.709	10.47363
1.7095	5.23682
1.71	8.05664
1.7105	11.48071
1.711	9.76868
1.7115	4.43115
1.712	9.76868
1.7125	5.74036
1.713	8.66089
1.7135	10.27222
1.714	13.49487
1.7145	13.39417
1.715	8.7616
1.7155	8.05664
1.716	10.47363
1.7165	8.45947
1.717	11.68213
1.7175	3.32336
1.718	-0.80566
1.7185	4.22974
1.719	1.51062
1.7195	7.85522
1.72	9.06372
1.7205	8.45947
1.721	3.12195
1.7215	6.14319
1.722	2.01416
1.7225	8.56018
1.723	11.48071
1.7235	12.99133
1.724	8.45947
1.7245	8.25806
1.725	6.04248
1.7255	3.02124
1.726	9.36584
1.7265	6.44531
1.727	2.31628
1.7275	-0.50354
1.728	8.8623
1.7285	3.22266
1.729	4.43115
1.7295	8.05664
1.73	5.53894
1.7305	5.33752
1.731	4.22974
1.7315	9.56726
1.732	6.3446
1.7325	10.57434
1.733	7.45239
1.7335	8.35876
1.734	5.94177
1.7345	8.15735
1.735	5.23682
1.7355	7.15027
1.736	9.16443
1.7365	4.73328
1.737	-2.71912
1.7375	3.22266
1.738	0.20142
1.7385	0.60425
1.739	5.33752
1.7395	4.12903
1.74	4.22974
1.7405	4.63257
1.741	5.53894
1.7415	-0.40283
1.742	9.56726
1.7425	2.41699
1.743	7.45239
1.7435	7.35168
1.744	7.75452
1.7445	5.13611
1.745	10.27222
1.7455	6.44531
1.746	8.05664
1.7465	7.65381
1.747	11.38
1.7475	13.89771
1.748	10.97717
1.7485	12.78992
1.749	14.60266
1.7495	11.88354
1.75	11.78284
1.7505	11.68213
1.751	2.61841
1.7515	4.43115
1.752	6.64673
1.7525	6.74744
1.753	9.66797
1.7535	1.2085
1.754	6.14319
1.7545	7.45239
1.755	8.05664
1.7555	4.73328
1.756	7.25098
1.7565	7.04956
1.757	10.77576
1.7575	13.29346
1.758	13.39417
1.7585	14.50195
1.759	11.98425
1.7595	11.48071
1.76	12.89062
1.7605	15.71045
1.761	15.91187
1.7615	10.67505
1.762	11.07788
1.7625	12.18567
1.763	18.32886
1.7635	21.45081
1.764	23.16284
1.7645	13.89771
1.765	12.89062
1.7655	15.81116
1.766	15.00549
1.7665	13.09204
1.767	11.98425
1.7675	11.58142
1.768	12.48779
1.7685	15.30762
1.769	15.00549
1.7695	15.40833
1.77	20.24231
1.7705	14.80408
1.771	11.2793
1.7715	12.89062
1.772	15.50903
1.7725	14.60266
1.773	16.81824
1.7735	18.32886
1.774	13.797
1.7745	15.30762
1.775	12.08496
1.7755	12.28638
1.776	18.22815
1.7765	13.89771
1.777	15.50903
1.7775	14.80408
1.778	15.71045
1.7785	16.81824
1.779	20.94727
1.7795	21.65222
1.78	19.33594
1.7805	16.3147
1.781	20.24231
1.7815	19.73877
1.782	16.61682
1.7825	12.28638
1.783	14.70337
1.7835	18.53027
1.784	18.42957
1.7845	22.15576
1.785	19.43665
1.7855	21.24939
1.786	19.73877
1.7865	15.00549
1.787	20.04089
1.7875	24.27063
1.788	25.57983
1.7885	23.96851
1.789	20.1416
1.7895	20.34302
1.79	19.53735
1.7905	21.95435
1.791	23.06213
1.7915	19.94019
1.792	15.50903
1.7925	18.32886
1.793	18.93311
1.7935	18.63098
1.794	19.73877
1.7945	20.04089
1.795	20.04089
1.7955	20.04089
1.796	21.85364
1.7965	17.22107
1.797	17.22107
1.7975	13.39417
1.798	20.44373
1.7985	23.16284
1.799	18.22815
1.7995	19.13452
1.8	19.73877
1.8005	20.04089
1.801	21.55151
1.8015	18.02673
1.802	13.99841
1.8025	16.3147
1.803	14.19983
1.8035	11.17859
1.804	17.92603
1.8045	16.3147
1.805	16.51611
1.8055	20.74585
1.806	20.54443
1.8065	16.61682
1.807	18.12744
1.8075	23.06213
1.808	23.66638
1.8085	20.74585
1.809	19.63806
1.8095	17.32178
1.81	17.52319
1.8105	17.32178
1.811	19.53735
1.8115	17.6239
1.812	19.03381
1.8125	21.65222
1.813	12.99133
1.8135	14.60266
1.814	18.53027
1.8145	23.16284
1.815	20.34302
1.8155	20.64514
1.816	14.90479
1.8165	11.88354
1.817	16.71753
1.8175	10.47363
1.818	13.99841
1.8185	13.69629
1.819	14.50195
1.8195	10.57434
1.82	11.88354
1.8205	15.81116
1.821	14.09912
1.8215	10.67505
1.822	16.21399
1.8225	16.3147
1.823	17.52319
1.8235	14.90479
1.824	18.53027
1.8245	15.50903
1.825	19.33594
1.8255	14.09912
1.826	16.3147
1.8265	17.52319
1.827	10.87646
1.8275	10.37292
1.828	15.30762
1.8285	15.91187
1.829	14.09912
1.8295	13.29346
1.83	10.97717
1.8305	15.71045
1.831	16.51611
1.8315	11.78284
1.832	11.48071
1.8325	6.84814
1.833	10.47363
1.8335	11.68213
1.834	3.62549
1.8345	8.25806
1.835	11.68213
1.8355	12.5885
1.836	11.48071
1.8365	14.09912
1.837	9.06372
1.8375	8.15735
1.838	8.56018
1.8385	13.39417
1.839	12.68921
1.8395	9.36584
1.84	9.06372
1.8405	10.77576
1.841	8.35876
1.8415	10.47363
1.842	13.89771
1.8425	11.88354
1.843	5.53894
1.8435	6.14319
1.844	4.53186
1.8445	4.53186
1.845	6.3446
1.8455	5.43823
1.846	5.13611
1.8465	4.73328
1.847	-2.81982
1.8475	-1.2085
1.848	1.40991
1.8485	0.50354
1.849	1.81274
1.8495	3.92761
1.85	3.62549
1.8505	0.40283
1.851	2.5177
1.8515	-2.31628
1.852	-1.10779
1.8525	0.70496
1.853	-9.06372
1.8535	-1.61133
1.854	-7.5531
1.8545	-1.71204
1.855	-4.43115
1.8555	-1.91345
1.856	-0.90637
1.8565	-3.8269
1.857	-1.91345
1.8575	-6.2439
1.858	-6.84814
1.8585	-3.02124
1.859	-1.91345
1.8595	-0.40283
1.86	-7.85522
1.8605	-3.12195
1.861	-6.54602
1.8615	-5.33752
1.862	-7.5531
1.8625	-13.99841
1.863	-11.88354
1.8635	-9.66797
1.864	-7.75452
1.8645	-7.35168
1.865	-9.66797
1.8655	-4.63257
1.866	-13.59558
1.8665	-5.74036
1.867	-2.11487
1.8675	-1.3092
1.868	-2.11487
1.8685	-3.42407
1.869	-9.76868
1.8695	-10.17151
1.87	-9.26514
1.8705	-9.76868
1.871	-7.75452
1.8715	-12.99133
1.872	-13.19275
1.8725	-11.98425
1.873	-11.48071
1.8735	-12.48779
1.874	-8.35876
1.8745	-10.77576
1.875	-11.07788
1.8755	-6.44531
1.876	-10.17151
1.8765	-13.49487
1.877	-7.04956
1.8775	-11.2793
1.878	-13.09204
1.8785	-14.70337
1.879	-13.89771
1.8795	-14.50195
1.88	-10.97717
1.8805	-13.09204
1.881	-17.52319
1.8815	-16.11328
1.882	-14.09912
1.8825	-8.96301
1.883	-13.29346
1.8835	-10.27222
1.884	-15.50903
1.8845	-15.30762
1.885	-13.49487
1.8855	-16.01257
1.886	-12.48779
1.8865	-10.37292
1.887	-15.50903
1.8875	-16.51611
1.888	-18.12744
1.8885	-17.72461
1.889	-16.21399
1.8895	-15.81116
1.89	-10.67505
1.8905	-14.90479
1.891	-15.00549
1.8915	-14.80408
1.892	-11.17859
1.8925	-9.56726
1.893	-5.53894
1.8935	-14.60266
1.894	-22.45789
1.8945	-23.36426
1.895	-18.53027
1.8955	-17.82532
1.896	-12.48779
1.8965	-13.49487
1.897	-15.40833
1.8975	-10.87646
1.898	-17.12036
1.8985	-15.30762
1.899	-15.81116
1.8995	-15.40833
1.9	-15.40833
1.9005	-8.05664
1.901	-8.56018
1.9015	-8.96301
1.902	-15.40833
1.9025	-10.67505
1.903	-11.98425
1.9035	-15.60974
1.904	-16.51611
1.9045	-21.55151
1.905	-19.53735
1.9055	-14.90479
1.906	-12.68921
1.9065	-11.58142
1.907	-14.60266
1.9075	-13.09204
1.908	-16.11328
1.9085	-14.40125
1.909	-17.92603
1.9095	-16.91895
1.91	-15.30762
1.9105	-11.58142
1.911	-12.08496
1.9115	-11.07788
1.912	-11.48071
1.9125	-13.39417
1.913	-14.80408
1.9135	-15.71045
1.914	-22.76001
1.9145	-16.41541
1.915	-15.50903
1.9155	-15.30762
1.916	-12.99133
1.9165	-11.88354
1.917	-11.17859
1.9175	-16.21399
1.918	-14.60266
1.9185	-14.90479
1.919	-19.83948
1.9195	-11.2793
1.92	-13.39417
1.9205	-9.56726
1.921	-13.39417
1.9215	-6.2439
1.922	-12.89062
1.9225	-7.85522
1.923	-10.27222
1.9235	-11.2793
1.924	-10.47363
1.9245	-15.1062
1.925	-13.19275
1.9255	-8.05664
1.926	-8.15735
1.9265	-11.98425
1.927	-8.56018
1.9275	-9.66797
1.928	-10.47363
1.9285	-8.96301
1.929	-11.88354
1.9295	-14.40125
1.93	-11.78284
1.9305	-8.45947
1.931	-6.44531
1.9315	-5.94177
1.932	-1.81274
1.9325	-6.64673
1.933	-3.8269
1.9335	-9.26514
1.934	-4.93469
1.9345	-7.85522
1.935	-6.04248
1.9355	-9.97009
1.936	0.20142
1.9365	-7.35168
1.937	-8.05664
1.9375	-10.77576
1.938	-5.33752
1.9385	-2.41699
1.939	-7.25098
1.9395	-6.84814
1.94	-3.32336
1.9405	-4.63257
1.941	-1.81274
1.9415	-2.11487
1.942	-0.10071
1.9425	-2.71912
1.943	-4.22974
1.9435	0
1.944	-3.7262
1.9445	-1.00708
1.945	1.81274
1.9455	3.7262
1.946	4.12903
1.9465	4.43115
1.947	8.8623
1.9475	7.95593
1.948	0.10071
1.9485	-0.90637
1.949	1.2085
1.9495	-0.60425
1.95	9.66797
1.9505	7.5531
1.951	13.69629
1.9515	8.56018
1.952	13.99841
1.9525	12.48779
1.953	9.56726
1.9535	9.36584
1.954	10.87646
1.9545	9.97009
1.955	7.35168
1.9555	5.84106
1.956	4.93469
1.9565	4.83398
1.957	3.52478
1.9575	4.93469
1.958	8.96301
1.9585	2.31628
1.959	4.43115
1.9595	6.44531
1.96	7.65381
1.9605	5.13611
1.961	4.53186
1.9615	7.45239
1.962	5.84106
1.9625	7.15027
1.963	6.94885
1.9635	3.92761
1.964	5.53894
1.9645	8.8623
1.965	7.15027
1.9655	7.85522
1.966	8.66089
1.9665	2.5177
1.967	6.74744
1.9675	10.47363
1.968	13.59558
1.9685	12.89062
1.969	12.18567
1.9695	12.68921
1.97	10.57434
1.9705	7.65381
1.971	7.35168
1.9715	8.56018
1.972	8.96301
1.9725	12.38708
1.973	12.99133
1.9735	11.78284
1.974	9.76868
1.9745	7.15027
1.975	7.35168
1.9755	10.0708
1.976	7.5531
1.9765	4.53186
1.977	6.64673
1.9775	10.97717
1.978	10.47363
1.9785	10.0708
1.979	14.70337
1.9795	9.26514
1.98	8.35876
1.9805	9.76868
1.981	14.19983
1.9815	9.86938
1.982	9.16443
1.9825	13.19275
1.983	15.81116
1.9835	19.83948
1.984	14.50195
1.9845	16.91895
1.985	18.8324
1.9855	15.60974
1.986	14.09912
1.9865	11.68213
1.987	12.08496
1.9875	13.39417
1.988	16.11328
1.9885	11.78284
1.989	18.02673
1.9895	13.19275
1.99	13.39417
1.9905	14.90479
1.991	14.40125
1.9915	10.37292
1.992	15.91187
1.9925	15.30762
1.993	15.91187
1.9935	14.09912
1.994	10.57434
1.9945	16.21399
1.995	13.29346
1.9955	8.8623
1.996	13.09204
1.9965	11.38
1.997	10.17151
1.9975	9.16443
1.998	6.14319
1.9985	15.50903
1.999	10.0708
1.9995	12.68921
2	15.81116
2.0005	13.09204
2.001	9.86938
2.0015	9.36584
2.002	9.76868
2.0025	11.2793
2.003	13.797
2.0035	14.90479
2.004	11.07788
2.0045	12.68921
2.005	11.78284
2.0055	8.35876
2.006	9.36584
2.0065	15.30762
2.007	13.29346
2.0075	9.36584
2.008	3.42407
2.0085	10.17151
2.009	7.65381
2.0095	8.8623
2.01	14.40125
2.0105	14.40125
2.011	16.21399
2.0115	15.71045
2.012	15.00549
2.0125	12.68921
2.013	18.8324
2.0135	18.12744
2.014	17.82532
2.0145	20.24231
2.015	20.54443
2.0155	21.3501
2.016	22.45789
2.0165	24.16992
2.017	22.25647
2.0175	24.06921
2.018	21.55151
2.0185	21.45081
2.019	17.92603
2.0195	16.21399
2.02	13.19275
2.0205	13.29346
2.021	13.89771
2.0215	6.84814
2.022	6.04248
2.0225	12.28638
2.023	22.6593
2.0235	23.76709
2.024	20.1416
2.0245	19.73877
2.025	16.61682
2.0255	3.42407
2.026	0.30212
2.0265	-6.14319
2.027	-5.43823
2.0275	-10.67505
2.028	-12.89062
2.0285	-12.99133
2.029	-9.36584
2.0295	-10.97717
2.03	-7.15027
2.0305	-2.41699
2.031	0.50354
2.0315	4.53186
2.032	3.42407
2.0325	7.35168
2.033	6.54602
2.0335	6.14319
2.034	9.06372
2.0345	8.96301
2.035	11.38
2.0355	13.39417
2.036	13.797
2.0365	16.51611
2.037	19.63806
2.0375	19.23523
2.038	18.22815
2.0385	25.37842
2.039	24.47205
2.0395	33.73718
2.04	36.15417
2.0405	50.45471
2.041	50.65613
2.0415	56.79932
2.042	65.66162
2.0425	74.72534
2.043	74.72534
2.0435	67.77649
2.044	62.33826
2.0445	53.67737
2.045	44.31152
2.0455	35.44922
2.046	21.65222
2.0465	8.8623
2.047	-1.71204
2.0475	-12.38708
2.048	-25.78125
2.0485	-32.7301
2.049	-45.82214
2.0495	-52.8717
2.05	-55.69153
2.0505	-54.38232
2.051	-63.54675
2.0515	-64.65454
2.052	-53.77808
2.0525	-48.94409
2.053	-40.68604
2.0535	-31.62231
2.054	-18.8324
2.0545	-17.32178
2.055	-12.5885
2.0555	-9.86938
2.056	-4.43115
2.0565	-5.94177
2.057	-5.84106
2.0575	-14.09912
2.058	-8.35876
2.0585	-12.38708
2.059	-17.72461
2.0595	-15.00549
2.06	-5.13611
2.0605	-0.20142
2.061	2.31628
2.0615	1.2085
2.062	12.89062
2.0625	11.17859
2.063	18.73169
2.0635	22.6593
2.064	25.57983
2.0645	32.22656
2.065	39.77966
2.0655	38.16833
2.066	38.06763
2.0665	36.75842
2.067	37.86621
2.0675	36.65771
2.068	33.63647
2.0685	29.80957
2.069	28.09753
2.0695	23.06213
2.07	17.6239
2.0705	12.5885
2.071	-1.3092
2.0715	-3.8269
2.072	-6.54602
2.0725	-11.38
2.073	-16.3147
2.0735	-13.19275
2.074	-2.11487
2.0745	-2.31628
2.075	11.38
2.0755	18.73169
2.076	18.42957
2.0765	17.6239
2.077	15.71045
2.0775	9.46655
2.078	5.53894
2.0785	-2.61841
2.079	-14.60266
2.0795	-21.65222
2.08	-23.56567
2.0805	-25.57983
2.081	-24.57275
2.0815	-23.96851
2.082	-19.63806
2.0825	-6.64673
2.083	-7.04956
2.0835	-3.42407
2.084	0.90637
2.0845	-3.62549
2.085	-1.51062
2.0855	-6.14319
2.086	-11.58142
2.0865	-15.30762
2.087	-16.51611
2.0875	-9.46655
2.088	0.10071
2.0885	11.78284
2.089	23.66638
2.0895	37.56409
2.09	47.8363
2.0905	72.81189
2.091	89.12659
2.0915	97.38464
2.092	106.8512
2.0925	110.37598
2.093	111.38306
2.0935	102.72217
2.094	88.82446
2.0945	57.9071
2.095	36.4563
2.0955	10.87646
2.096	-6.2439
2.0965	-31.01807
2.097	-48.94409
2.0975	-64.25171
2.098	-78.65295
2.0985	-78.04871
2.099	-76.53809
2.0995	-78.35083
2.1	-84.19189
2.1005	-68.68286
2.101	-57.50427
2.1015	-43.40515
2.102	-30.31311
2.1025	-24.06921
2.103	-17.52319
2.1035	-8.05664
2.104	-3.42407
2.1045	-7.35168
2.105	-7.75452
2.1055	-11.48071
2.106	-14.30054
2.1065	-11.68213
2.107	-9.86938
2.1075	-15.60974
2.108	-9.06372
2.1085	-4.63257
2.109	5.13611
2.1095	13.39417
2.11	22.96143
2.1105	31.32019
2.111	37.56409
2.1115	40.78674
2.112	45.72144
2.1125	46.42639
2.113	39.17542
2.1135	23.66638
2.114	-4.63257
2.1145	-24.67346
2.115	-36.4563
2.1155	-44.61365
2.116	-52.36816
2.1165	-58.30994
2.117	-68.07861
2.1175	-62.53967
2.118	-59.01489
2.1185	-53.97949
2.119	-45.11719
2.1195	-27.29187
2.12	-8.8623
2.1205	9.16443
2.121	4.12903
2.1215	6.04248
2.122	-5.0354
2.1225	-15.71045
2.123	-17.12036
2.1235	-15.40833
2.124	-10.97717
2.1245	-13.89771
2.125	-7.15027
2.1255	-2.41699
2.126	-8.66089
2.1265	-10.37292
2.127	-18.93311
2.1275	-19.83948
2.128	-20.24231
2.1285	-18.22815
2.129	-22.15576
2.1295	-18.8324
2.13	-13.19275
2.1305	-10.97717
2.131	-8.96301
2.1315	-3.32336
2.132	5.13611
2.1325	0
2.133	3.92761
2.1335	9.36584
2.134	15.71045
2.1345	12.48779
2.135	13.19275
2.1355	14.70337
2.136	9.97009
2.1365	17.32178
2.137	16.91895
2.1375	19.13452
2.138	19.63806
2.1385	22.35718
2.139	23.36426
2.1395	22.25647
2.14	17.52319
2.1405	15.00549
2.141	16.11328
2.1415	17.42249
2.142	18.8324
2.1425	13.09204
2.143	14.40125
2.1435	14.19983
2.144	9.86938
2.1445	11.2793
2.145	9.26514
2.1455	4.22974
2.146	5.23682
2.1465	-2.01416
2.147	4.83398
2.1475	-3.02124
2.148	-9.06372
2.1485	-12.28638
2.149	-3.32336
2.1495	-2.92053
2.15	-0.60425
2.1505	-5.84106
2.151	-1.61133
2.1515	-1.71204
2.152	2.81982
2.1525	-2.71912
2.153	4.43115
2.1535	0.40283
2.154	3.8269
2.1545	11.2793
2.155	10.97717
2.1555	17.72461
2.156	16.21399
2.1565	17.92603
2.157	19.53735
2.1575	16.21399
2.158	19.23523
2.1585	20.34302
2.159	15.81116
2.1595	19.33594
2.16	23.56567
2.1605	18.12744
2.161	20.04089
2.1615	16.81824
2.162	17.32178
2.1625	23.96851
2.163	18.32886
2.1635	18.53027
2.164	14.50195
2.1645	11.07788
2.165	9.46655
2.1655	5.74036
2.166	5.43823
2.1665	5.23682
2.167	10.57434
2.1675	15.91187
2.168	17.22107
2.1685	20.74585
2.169	31.21948
2.1695	34.74426
2.17	48.03772
2.1705	55.08728
2.171	73.91968
2.1715	84.89685
2.172	95.87402
2.1725	115.7135
2.173	126.58997
2.1735	131.22253
2.174	123.36731
2.1745	111.78589
2.175	89.93225
2.1755	72.30835
2.176	45.01648
2.1765	6.2439
2.177	-21.55151
2.1775	-58.20923
2.178	-89.83154
2.1785	-100.80872
2.179	-109.26819
2.1795	-105.13916
2.18	-98.29102
2.1805	-74.72534
2.181	-53.67737
2.1815	-43.80798
2.182	-38.36975
2.1825	-32.02515
2.183	-29.50745
2.1835	-28.9032
2.184	-25.98267
2.1845	-27.39258
2.185	-33.03223
2.1855	-34.34143
2.186	-34.03931
2.1865	-35.95276
2.187	-41.29028
2.1875	-38.47046
2.188	-40.98816
2.1885	-26.68762
2.189	-24.06921
2.1895	-21.85364
2.19	-16.71753
2.1905	-9.56726
2.191	-2.31628
2.1915	-1.61133
2.192	3.8269
2.1925	5.94177
2.193	5.33752
2.1935	8.05664
2.194	12.38708
2.1945	12.28638
2.195	15.1062
2.1955	15.60974
2.196	19.33594
2.1965	19.03381
2.197	19.63806
2.1975	21.85364
2.198	27.09045
2.1985	31.21948
2.199	27.49329
2.1995	24.97559
2.2	25.57983
2.2005	23.8678
2.201	26.98975
2.2015	29.80957
2.202	29.80957
2.2025	32.22656
2.203	28.80249
2.2035	26.3855
2.204	27.6947
2.2045	29.91028
2.205	31.01807
2.2055	33.9386
2.206	26.88904
2.2065	28.50037
2.207	30.61523
2.2075	23.26355
2.208	25.78125
2.2085	25.98267
2.209	27.19116
2.2095	26.78833
2.21	26.58691
2.2105	23.56567
2.211	28.29895
2.2115	18.8324
2.212	21.55151
2.2125	25.78125
2.213	20.84656
2.2135	24.06921
2.214	21.95435
2.2145	23.66638
2.215	28.29895
2.2155	22.96143
2.216	16.91895
2.2165	14.09912
2.217	10.17151
2.2175	9.97009
2.218	9.76868
2.2185	12.08496
2.219	6.04248
2.2195	15.1062
2.22	9.46655
2.2205	7.75452
2.221	5.13611
2.2215	7.45239
2.222	5.84106
2.2225	2.61841
2.223	7.5531
2.2235	3.02124
2.224	7.75452
2.2245	1.10779
2.225	1.2085
2.2255	5.0354
2.226	-2.41699
2.2265	4.02832
2.227	6.04248
2.2275	7.5531
2.228	4.93469
2.2285	9.16443
2.229	12.89062
2.2295	13.09204
2.23	5.84106
2.2305	8.7616
2.231	11.2793
2.2315	9.56726
2.232	8.96301
2.2325	6.94885
2.233	5.33752
2.2335	6.54602
2.234	6.14319
2.2345	12.18567
2.235	7.75452
2.2355	6.54602
2.236	6.64673
2.2365	10.17151
2.237	10.67505
2.2375	10.47363
2.238	16.3147
2.2385	6.74744
2.239	5.63965
2.2395	0
2.24	0.50354
2.2405	12.78992
2.241	27.49329
2.2415	48.44055
2.242	67.97791
2.2425	81.87561
2.243	101.61438
2.2435	110.37598
2.244	126.58997
2.2445	128.10059
2.245	120.95032
2.2455	99.19739
2.246	83.08411
2.2465	62.64038
2.247	44.91577
2.2475	22.96143
2.248	-2.21558
2.2485	-20.1416
2.249	-40.1825
2.2495	-53.17383
2.25	-63.14392
2.2505	-70.29419
2.251	-70.59631
2.2515	-67.27295
2.252	-64.25171
2.2525	-65.56091
2.253	-71.30127
2.2535	-71.30127
2.254	-55.99365
2.2545	-47.13135
2.255	-31.62231
2.2555	-22.35718
2.256	-10.27222
2.2565	-5.63965
2.257	-6.64673
2.2575	0
2.258	1.10779
2.2585	10.17151
2.259	9.76868
2.2595	8.15735
2.26	6.14319
2.2605	3.8269
2.261	8.05664
2.2615	9.76868
2.262	20.84656
2.2625	23.06213
2.263	28.50037
2.2635	35.2478
2.264	39.77966
2.2645	49.24622
2.265	52.67029
2.2655	61.73401
2.266	64.55383
2.2665	69.89136
2.267	66.76941
2.2675	58.81348
2.268	40.2832
2.2685	21.55151
2.269	1.51062
2.2695	-16.21399
2.27	-32.83081
2.2705	-41.59241
2.271	-47.63489
2.2715	-47.63489
2.272	-42.19666
2.2725	-35.2478
2.273	-35.75134
2.2735	-27.09045
2.274	-17.22107
2.2745	-8.96301
2.275	-4.22974
2.2755	3.42407
2.276	13.19275
2.2765	1.61133
2.277	6.84814
2.2775	-0.10071
2.278	-11.2793
2.2785	-23.76709
2.279	-34.84497
2.2795	-45.01648
2.28	-45.11719
2.2805	-45.72144
2.281	-32.62939
2.2815	-19.13452
2.282	-11.78284
2.2825	0.10071
2.283	9.36584
2.2835	24.16992
2.284	32.02515
2.2845	37.36267
2.285	47.8363
2.2855	53.37524
2.286	58.20923
2.2865	64.35242
2.287	66.16516
2.2875	60.72693
2.288	52.36816
2.2885	47.43347
2.289	39.67896
2.2895	31.32019
2.29	25.37842
2.2905	17.6239
2.291	11.48071
2.2915	1.40991
2.292	-6.74744
2.2925	-11.58142
2.293	-15.50903
2.2935	-33.23364
2.294	-33.03223
2.2945	-38.87329
2.295	-40.88745
2.2955	-42.90161
2.296	-47.23206
2.2965	-42.09595
2.297	-34.54285
2.2975	-22.15576
2.298	3.62549
2.2985	22.05505
2.299	30.41382
2.2995	32.93152
2.3	35.04639
2.3005	32.32727
2.301	30.61523
2.3015	27.99683
2.302	19.53735
2.3025	7.45239
2.303	-0.30212
2.3035	-2.41699
2.304	-14.40125
2.3045	-18.8324
2.305	-17.42249
2.3055	-15.40833
2.306	-5.84106
2.3065	-11.98425
2.307	-7.95593
2.3075	-0.60425
2.308	4.22974
2.3085	9.26514
2.309	4.33044
2.3095	-0.80566
2.31	-8.05664
2.3105	-17.42249
2.311	-12.28638
2.3115	-11.98425
2.312	-2.31628
2.3125	-7.75452
2.313	-5.53894
2.3135	-1.71204
2.314	-0.90637
2.3145	3.8269
2.315	5.33752
2.3155	10.57434
2.316	9.97009
2.3165	16.41541
2.317	13.69629
2.3175	19.13452
2.318	10.97717
2.3185	15.1062
2.319	7.15027
2.3195	11.88354
2.32	10.57434
2.3205	9.76868
2.321	9.86938
2.3215	9.26514
2.322	9.97009
2.3225	10.77576
2.323	10.87646
2.3235	15.50903
2.324	11.17859
2.3245	8.96301
2.325	11.48071
2.3255	13.797
2.326	9.26514
2.3265	11.2793
2.327	9.56726
2.3275	13.19275
2.328	15.1062
2.3285	15.20691
2.329	13.19275
2.3295	8.8623
2.33	17.01965
2.3305	15.30762
2.331	24.27063
2.3315	26.88904
2.332	25.47913
2.3325	23.06213
2.333	28.09753
2.3335	25.88196
2.334	24.87488
2.3345	25.57983
2.335	23.26355
2.3355	22.45789
2.336	17.01965
2.3365	21.65222
2.337	22.25647
2.3375	19.94019
2.338	12.99133
2.3385	15.30762
2.339	15.00549
2.3395	11.2793
2.34	6.14319
2.3405	1.3092
2.341	6.3446
2.3415	-4.33044
2.342	1.2085
2.3425	1.10779
2.343	-2.92053
2.3435	-2.71912
2.344	3.12195
2.3445	5.43823
2.345	5.94177
2.3455	2.21558
2.346	10.57434
2.3465	6.74744
2.347	11.78284
2.3475	8.35876
2.348	1.3092
2.3485	-2.71912
2.349	-10.37292
2.3495	-10.0708
2.35	-17.6239
2.3505	-22.55859
2.351	-23.06213
2.3515	-23.56567
2.352	-22.96143
2.3525	-16.81824
2.353	-12.38708
2.3535	-11.48071
2.354	-9.46655
2.3545	-6.64673
2.355	-1.61133
2.3555	-4.12903
2.356	1.3092
2.3565	5.94177
2.357	6.84814
2.3575	5.43823
2.358	6.3446
2.3585	9.06372
2.359	6.44531
2.3595	15.30762
2.36	17.42249
2.3605	20.64514
2.361	28.9032
2.3615	27.89612
2.362	41.99524
2.3625	46.02356
2.363	54.68445
2.3635	57.30286
2.364	58.10852
2.3645	56.69861
2.365	53.17383
2.3655	43.20374
2.366	26.78833
2.3665	14.50195
2.367	-6.2439
2.3675	-22.76001
2.368	-39.17542
2.3685	-44.81506
2.369	-45.62073
2.3695	-41.59241
2.37	-36.65771
2.3705	-28.50037
2.371	-23.46497
2.3715	-10.47363
2.372	-18.63098
2.3725	-24.57275
2.373	-23.66638
2.3735	-26.88904
2.374	-23.96851
2.3745	-28.70178
2.375	-36.25488
2.3755	-26.98975
2.376	-22.76001
2.3765	-10.17151
2.377	4.93469
2.3775	34.54285
2.378	54.38232
2.3785	76.03455
2.379	94.96765
2.3795	106.75049
2.38	117.62695
2.3805	121.75598
2.381	109.26819
2.3815	89.02588
2.382	70.59631
2.3825	51.46179
2.383	27.19116
2.3835	2.71912
2.384	-26.88904
2.3845	-39.37683
2.385	-45.2179
2.3855	-49.85046
2.386	-45.52002
2.3865	-34.84497
2.387	-16.01257
2.3875	2.11487
2.388	5.33752
2.3885	-11.58142
2.389	-15.60974
2.3895	-21.95435
2.39	-26.58691
2.3905	-19.03381
2.391	-17.92603
2.3915	-15.81116
2.392	-20.74585
2.3925	-25.98267
2.393	-29.70886
2.3935	-20.54443
2.394	-21.65222
2.3945	-21.3501
2.395	-16.3147
2.3955	-9.86938
2.396	-4.43115
2.3965	-10.77576
2.397	-14.90479
2.3975	-9.76868
2.398	-11.58142
2.3985	-9.06372
2.399	-4.83398
2.3995	-1.3092
2.4	0.80566
2.4005	-4.53186
2.401	1.51062
2.4015	-2.81982
2.402	3.7262
2.4025	0.80566
2.403	3.52478
2.4035	3.92761
2.404	7.65381
2.4045	5.63965
2.405	9.56726
2.4055	6.04248
2.406	13.69629
2.4065	6.64673
2.407	14.90479
2.4075	17.42249
2.408	14.70337
2.4085	15.91187
2.409	15.60974
2.4095	16.21399
2.41	13.29346
2.4105	17.82532
2.411	14.30054
2.4115	17.22107
2.412	16.71753
2.4125	21.65222
2.413	19.94019
2.4135	22.55859
2.414	15.40833
2.4145	18.32886
2.415	9.16443
2.4155	13.89771
2.416	12.18567
2.4165	15.91187
2.417	18.53027
2.4175	14.30054
2.418	21.45081
2.4185	18.42957
2.419	20.1416
2.4195	10.87646
2.42	8.96301
2.4205	16.21399
2.421	17.42249
2.4215	14.60266
2.422	15.71045
2.4225	16.61682
2.423	13.59558
2.4235	18.32886
2.424	20.64514
2.4245	20.04089
2.425	17.32178
2.4255	16.71753
2.426	17.12036
2.4265	11.17859
2.427	6.14319
2.4275	2.92053
2.428	2.01416
2.4285	-0.40283
2.429	1.91345
2.4295	3.52478
2.43	4.83398
2.4305	4.93469
2.431	6.2439
2.4315	6.04248
2.432	9.36584
2.4325	3.02124
2.433	3.42407
2.4335	19.83948
2.434	18.42957
2.4345	19.83948
2.435	17.32178
2.4355	13.797
2.436	11.98425
2.4365	12.38708
2.437	15.00549
2.4375	12.89062
2.438	15.81116
2.4385	12.78992
2.439	6.2439
2.4395	4.22974
2.44	4.73328
2.4405	-2.31628
2.441	-3.8269
2.4415	-7.5531
2.442	-3.92761
2.4425	-7.65381
2.443	-4.63257
2.4435	-4.93469
2.444	-1.2085
2.4445	-1.71204
2.445	-3.62549
2.4455	-9.06372
2.446	-2.31628
2.4465	-3.8269
2.447	1.3092
2.4475	1.71204
2.448	0.40283
2.4485	-1.3092
2.449	2.5177
2.4495	1.10779
2.45	2.11487
2.4505	1.00708
2.451	0.50354
2.4515	2.31628
2.452	3.02124
2.4525	9.16443
2.453	10.47363
2.4535	21.14868
2.454	14.90479
2.4545	8.15735
2.455	12.89062
2.4555	9.56726
2.456	11.88354
2.4565	14.40125
2.457	11.58142
2.4575	13.59558
2.458	16.61682
2.4585	16.91895
2.459	18.12744
2.4595	30.61523
2.46	31.11877
2.4605	32.52869
2.461	37.7655
2.4615	38.26904
2.462	39.57825
2.4625	41.99524
2.463	31.92444
2.4635	42.7002
2.464	45.82214
2.4645	51.76392
2.465	50.05188
2.4655	49.14551
2.466	46.92993
2.4665	41.39099
2.467	29.00391
2.4675	22.76001
2.468	11.38
2.4685	2.71912
2.469	-11.07788
2.4695	-24.47205
2.47	-36.25488
2.4705	-43.30444
2.471	-42.7002
2.4715	-40.58533
2.472	-39.37683
2.4725	-35.34851
2.473	-24.97559
2.4735	-19.83948
2.474	-16.3147
2.4745	-18.93311
2.475	-20.94727
2.4755	-20.94727
2.476	-14.19983
2.4765	-15.30762
2.477	-8.66089
2.4775	5.0354
2.478	22.6593
2.4785	31.52161
2.479	44.31152
2.4795	60.4248
2.48	67.37366
2.4805	76.43738
2.481	70.3949
2.4815	72.9126
2.482	67.27295
2.4825	55.99365
2.483	45.72144
2.4835	28.09753
2.484	4.12903
2.4845	-14.70337
2.485	-24.47205
2.4855	-29.40674
2.486	-23.36426
2.4865	-17.32178
2.487	-9.97009
2.4875	-9.06372
2.488	-1.91345
2.4885	-3.12195
2.489	-0.70496
2.4895	4.12903
2.49	7.65381
2.4905	2.81982
2.491	-5.84106
2.4915	-15.1062
2.492	-27.29187
2.4925	-36.55701
2.493	-40.1825
2.4935	-34.84497
2.494	-38.57117
2.4945	-32.62939
2.495	-26.78833
2.4955	-22.45789
2.496	-19.73877
2.4965	-22.25647
2.497	-26.18408
2.4975	-28.09753
2.498	-24.27063
2.4985	-26.08337
2.499	-24.27063
2.4995	-18.63098
2.5	-13.09204
2.5005	-1.40991
2.501	4.02832
2.5015	7.65381
2.502	5.63965
2.5025	6.3446
2.503	13.29346
2.5035	15.00549
2.504	21.24939
2.5045	19.43665
2.505	21.75293
2.5055	14.30054
2.506	15.60974
2.5065	10.87646
2.507	5.33752
2.5075	3.12195
2.508	-1.2085
2.5085	-5.0354
2.509	-10.17151
2.5095	-5.74036
2.51	-3.42407
2.5105	-5.94177
2.511	-3.7262
2.5115	-7.04956
2.512	-1.51062
2.5125	2.11487
2.513	5.84106
2.5135	17.12036
2.514	14.40125
2.5145	19.94019
2.515	14.19983
2.5155	19.23523
2.516	15.50903
2.5165	17.82532
2.517	14.50195
2.5175	13.59558
2.518	17.92603
2.5185	19.53735
2.519	17.52319
2.5195	14.40125
2.52	14.70337
2.5205	12.48779
2.521	17.6239
2.5215	19.73877
2.522	18.8324
2.5225	12.99133
2.523	15.1062
2.5235	18.63098
2.524	16.11328
2.5245	13.29346
2.525	12.68921
2.5255	17.82532
2.526	13.89771
2.5265	18.93311
2.527	15.50903
2.5275	17.32178
2.528	18.02673
2.5285	13.49487
2.529	20.54443
2.5295	12.5885
2.53	15.40833
2.5305	11.07788
2.531	9.86938
2.5315	15.50903
2.532	15.20691
2.5325	17.92603
2.533	16.51611
2.5335	17.72461
2.534	11.48071
2.5345	11.48071
2.535	12.89062
2.5355	14.30054
2.536	11.07788
2.5365	21.85364
2.537	16.61682
2.5375	12.5885
2.538	8.7616
2.5385	8.7616
2.539	14.09912
2.5395	7.65381
2.54	8.56018
2.5405	8.96301
2.541	18.22815
2.5415	28.70178
2.542	26.48621
2.5425	24.16992
2.543	31.21948
2.5435	33.43506
2.544	31.72302
2.5445	34.84497
2.545	32.7301
2.5455	38.06763
2.546	32.22656
2.5465	29.91028
2.547	34.94568
2.5475	27.59399
2.548	16.81824
2.5485	15.60974
2.549	9.86938
2.5495	4.93469
2.55	-4.22974
2.5505	-9.76868
2.551	-10.17151
2.5515	-15.91187
2.552	-11.58142
2.5525	-15.60974
2.553	-7.04956
2.5535	0
2.554	9.36584
2.5545	13.69629
2.555	16.3147
2.5555	21.85364
2.556	25.78125
2.5565	23.06213
2.557	14.19983
2.5575	7.15027
2.558	0.90637
2.5585	-3.12195
2.559	-8.45947
2.5595	-8.56018
2.56	-12.08496
2.5605	-16.71753
2.561	-7.35168
2.5615	0.60425
2.562	15.71045
2.5625	41.39099
2.563	73.01331
2.5635	92.75208
2.564	111.58447
2.5645	121.9574
2.565	129.10767
2.5655	118.83545
2.566	100.10376
2.5665	72.81189
2.567	40.38391
2.5675	23.96851
2.568	9.36584
2.5685	-7.04956
2.569	-31.01807
2.5695	-53.57666
2.57	-67.07153
2.5705	-85.09827
2.571	-95.87402
2.5715	-114.20288
2.572	-116.72058
2.5725	-117.12341
2.573	-111.68518
2.5735	-103.72925
2.574	-108.96606
2.5745	-90.83862
2.575	-83.58765
2.5755	-66.06445
2.576	-47.13135
2.5765	-21.3501
2.577	-3.8269
2.5775	8.8623
2.578	14.50195
2.5785	15.91187
2.579	12.48779
2.5795	12.5885
2.58	13.99841
2.5805	8.15735
2.581	19.94019
2.5815	33.03223
2.582	36.65771
2.5825	48.23914
2.583	53.67737
2.5835	69.08569
2.584	66.6687
2.5845	62.53967
2.585	50.75684
2.5855	43.50586
2.586	30.11169
2.5865	9.66797
2.587	-3.42407
2.5875	-29.10461
2.588	-40.08179
2.5885	-48.23914
2.589	-47.7356
2.5895	-39.88037
2.59	-33.43506
2.5905	-18.73169
2.591	-11.98425
2.5915	1.40991
2.592	16.51611
2.5925	21.55151
2.593	22.45789
2.5935	28.09753
2.594	25.07629
2.5945	27.89612
2.595	29.70886
2.5955	25.57983
2.596	31.11877
2.5965	24.27063
2.597	22.05505
2.5975	20.1416
2.598	14.70337
2.5985	11.48071
2.599	11.17859
2.5995	11.58142
2.6	13.39417
2.6005	17.82532
2.601	16.61682
2.6015	21.14868
2.602	17.32178
2.6025	16.11328
2.603	12.5885
2.6035	21.65222
2.604	12.89062
2.6045	-2.11487
2.605	-6.74744
2.6055	-14.40125
2.606	-19.13452
2.6065	-22.55859
2.607	-23.16284
2.6075	-22.45789
2.608	-11.88354
2.6085	-8.8623
2.609	-7.25098
2.6095	-1.81274
2.61	-0.50354
2.6105	15.60974
2.611	17.42249
2.6115	15.50903
2.612	8.15735
2.6125	2.21558
2.613	-0.40283
2.6135	-2.61841
2.614	1.00708
2.6145	1.51062
2.615	-0.20142
2.6155	-5.23682
2.616	-6.84814
2.6165	-4.93469
2.617	-0.50354
2.6175	-6.74744
2.618	-7.45239
2.6185	-10.67505
2.619	3.7262
2.6195	10.67505
2.62	11.17859
2.6205	13.69629
2.621	6.64673
2.6215	12.89062
2.622	17.6239
2.6225	15.81116
2.623	20.04089
2.6235	26.78833
2.624	29.80957
2.6245	30.2124
2.625	32.12585
2.6255	29.40674
2.626	33.03223
2.6265	26.3855
2.627	25.27771
2.6275	18.42957
2.628	13.99841
2.6285	0
2.629	-6.74744
2.6295	-17.12036
2.63	-17.92603
2.6305	-17.92603
2.631	-17.6239
2.6315	-18.53027
2.632	-13.69629
2.6325	-5.94177
2.633	-2.61841
2.6335	5.43823
2.634	11.07788
2.6345	20.64514
2.635	26.78833
2.6355	28.70178
2.636	28.80249
2.6365	23.46497
2.637	24.47205
2.6375	23.8678
2.638	20.34302
2.6385	24.77417
2.639	26.98975
2.6395	23.16284
2.64	35.75134
2.6405	38.47046
2.641	41.18958
2.6415	39.88037
2.642	42.49878
2.6425	39.47754
2.643	29.00391
2.6435	17.72461
2.644	5.13611
2.6445	-13.89771
2.645	-28.19824
2.6455	-36.75842
2.646	-38.974
2.6465	-34.84497
2.647	-28.80249
2.6475	-29.60815
2.648	-23.26355
2.6485	-14.30054
2.649	-9.66797
2.6495	-9.56726
2.65	-10.37292
2.6505	-5.63965
2.651	-2.11487
2.6515	5.63965
2.652	11.07788
2.6525	14.19983
2.653	15.81116
2.6535	11.48071
2.654	11.2793
2.6545	4.53186
2.655	-8.8623
2.6555	-18.63098
2.656	-32.93152
2.6565	-42.49878
2.657	-44.11011
2.6575	-39.57825
2.658	-37.46338
2.6585	-28.60107
2.659	-16.41541
2.6595	-19.83948
2.66	-2.61841
2.6605	15.91187
2.661	23.36426
2.6615	30.81665
2.662	30.51453
2.6625	24.06921
2.663	21.45081
2.6635	20.84656
2.664	13.59558
2.6645	11.2793
2.665	8.56018
2.6655	7.04956
2.666	6.44531
2.6665	6.84814
2.667	0.50354
2.6675	-7.85522
2.668	-15.91187
2.6685	-13.59558
2.669	-0.90637
2.6695	15.20691
2.67	38.67188
2.6705	53.77808
2.671	62.9425
2.6715	78.85437
2.672	89.73083
2.6725	91.94641
2.673	82.07703
2.6735	72.10693
2.674	60.3241
2.6745	49.44763
2.675	43.40515
2.6755	29.91028
2.676	12.5885
2.6765	-0.80566
2.677	-12.78992
2.6775	-27.09045
2.678	-37.16125
2.6785	-57.8064
2.679	-58.10852
2.6795	-58.00781
2.68	-64.85596
2.6805	-78.55225
2.681	-78.25012
2.6815	-73.21472
2.682	-57.50427
2.6825	-37.06055
2.683	-23.56567
2.6835	-3.7262
2.684	9.06372
2.6845	13.797
2.685	21.45081
2.6855	18.8324
2.686	19.83948
2.6865	22.96143
2.687	17.52319
2.6875	16.81824
2.688	13.49487
2.6885	14.70337
2.689	19.43665
2.6895	13.49487
2.69	9.66797
2.6905	8.45947
2.691	4.63257
2.6915	3.02124
2.692	-4.83398
2.6925	-8.8623
2.693	-0.40283
2.6935	-4.12903
2.694	3.7262
2.6945	9.97009
2.695	12.18567
2.6955	16.21399
2.696	21.75293
2.6965	27.89612
2.697	26.08337
2.6975	24.16992
2.698	23.96851
2.6985	23.26355
2.699	21.65222
2.6995	15.1062
2.7	17.32178
2.7005	21.55151
2.701	22.05505
2.7015	18.93311
2.702	24.06921
2.7025	22.76001
2.703	24.77417
2.7035	24.37134
2.704	22.05505
2.7045	20.64514
2.705	16.61682
2.7055	15.1062
2.706	15.91187
2.7065	4.53186
2.707	1.40991
2.7075	8.25806
2.708	8.35876
2.7085	12.78992
2.709	14.80408
2.7095	21.95435
2.71	17.52319
2.7105	19.63806
2.711	21.45081
2.7115	15.1062
2.712	21.95435
2.7125	13.19275
2.713	5.0354
2.7135	2.31628
2.714	-5.23682
2.7145	-5.63965
2.715	-5.13611
2.7155	1.91345
2.716	5.43823
2.7165	17.12036
2.717	27.99683
2.7175	35.04639
2.718	32.52869
2.7185	33.63647
2.719	30.71594
2.7195	23.8678
2.72	14.70337
2.7205	-7.5531
2.721	-25.57983
2.7215	-45.11719
2.722	-52.8717
2.7225	-60.22339
2.723	-60.4248
2.7235	-55.08728
2.724	-40.08179
2.7245	-36.95984
2.725	-29.10461
2.7255	-21.45081
2.726	-15.20691
2.7265	-1.10779
2.727	8.45947
2.7275	12.78992
2.728	8.7616
2.7285	7.85522
2.729	11.2793
2.7295	18.12744
2.73	21.65222
2.7305	25.68054
2.731	21.14868
2.7315	21.14868
2.732	23.66638
2.7325	12.28638
2.733	5.53894
2.7335	0.50354
2.734	-10.77576
2.7345	-17.92603
2.735	-26.28479
2.7355	-28.50037
2.736	-27.59399
2.7365	-24.67346
2.737	-15.20691
2.7375	-16.41541
2.738	-10.77576
2.7385	-5.0354
2.739	-4.02832
2.7395	-3.92761
2.74	-4.33044
2.7405	-1.91345
2.741	5.23682
2.7415	4.83398
2.742	8.35876
2.7425	8.56018
2.743	8.05664
2.7435	15.20691
2.744	14.60266
2.7445	16.11328
2.745	18.12744
2.7455	26.28479
2.746	31.92444
2.7465	39.77966
2.747	44.91577
2.7475	51.96533
2.748	47.7356
2.7485	45.92285
2.749	34.03931
2.7495	32.22656
2.75	31.62231
2.7505	23.36426
2.751	19.63806
2.7515	15.60974
2.752	15.81116
2.7525	10.37292
2.753	9.66797
2.7535	9.97009
2.754	15.00549
2.7545	21.04797
2.755	17.92603
2.7555	14.50195
2.756	18.02673
2.7565	18.12744
2.757	14.80408
2.7575	7.5531
2.758	6.54602
2.7585	0.70496
2.759	-11.2793
2.7595	-25.47913
2.76	-43.70728
2.7605	-50.15259
2.761	-60.82764
2.7615	-67.27295
2.762	-65.56091
2.7625	-62.74109
2.763	-52.36816
2.7635	-36.65771
2.764	-31.62231
2.7645	-21.85364
2.765	-11.58142
2.7655	-12.99133
2.766	-8.8623
2.7665	-3.62549
2.767	-0.50354
2.7675	5.43823
2.768	4.22974
2.7685	6.14319
2.769	6.44531
2.7695	1.40991
2.77	-1.00708
2.7705	2.11487
2.771	3.22266
2.7715	2.92053
2.772	8.15735
2.7725	4.43115
2.773	8.45947
2.7735	10.47363
2.774	7.15027
2.7745	1.10779
2.775	3.62549
2.7755	6.54602
2.776	16.3147
2.7765	21.3501
2.777	30.71594
2.7775	29.70886
2.778	28.09753
2.7785	30.51453
2.779	24.57275
2.7795	30.51453
2.78	25.88196
2.7805	28.29895
2.781	31.52161
2.7815	38.26904
2.782	39.07471
2.7825	46.22498
2.783	49.14551
2.7835	52.26746
2.784	49.85046
2.7845	49.24622
2.785	46.92993
2.7855	46.42639
2.786	37.56409
2.7865	33.13293
2.787	32.32727
2.7875	26.28479
2.788	16.81824
2.7885	14.30054
2.789	7.35168
2.7895	-4.73328
2.79	-24.16992
2.7905	-38.26904
2.791	-56.69861
2.7915	-67.27295
2.792	-75.53101
2.7925	-77.84729
2.793	-73.51685
2.7935	-57.8064
2.794	-47.33276
2.7945	-36.65771
2.795	-24.27063
2.7955	-12.28638
2.796	-5.94177
2.7965	-4.93469
2.797	-2.31628
2.7975	0.60425
2.798	5.13611
2.7985	2.61841
2.799	-4.22974
2.7995	4.83398
2.8	3.8269
2.8005	4.22974
2.801	10.67505
2.8015	-1.3092
2.802	4.33044
2.8025	13.39417
2.803	16.51611
2.8035	16.41541
2.804	21.14868
2.8045	18.73169
2.805	20.34302
2.8055	19.63806
2.806	24.47205
2.8065	26.3855
2.807	25.57983
2.8075	25.37842
2.808	24.57275
2.8085	25.68054
2.809	26.98975
2.8095	21.85364
2.81	23.46497
2.8105	17.82532
2.811	17.92603
2.8115	13.89771
2.812	14.90479
2.8125	3.32336
2.813	-7.95593
2.8135	-11.2793
2.814	-13.29346
2.8145	-14.09912
2.815	-6.04248
2.8155	-5.23682
2.816	-3.42407
2.8165	2.31628
2.817	3.12195
2.8175	3.12195
2.818	3.12195
2.8185	6.54602
2.819	5.53894
2.8195	11.88354
2.82	14.19983
2.8205	7.25098
2.821	6.44531
2.8215	12.78992
2.822	4.22974
2.8225	3.52478
2.823	4.33044
2.8235	5.0354
2.824	4.63257
2.8245	4.53186
2.825	8.66089
2.8255	5.0354
2.826	-2.61841
2.8265	0
2.827	3.12195
2.8275	3.8269
2.828	3.92761
2.8285	5.43823
2.829	9.66797
2.8295	8.45947
2.83	9.16443
2.8305	10.57434
2.831	14.30054
2.8315	7.85522
2.832	12.78992
2.8325	10.67505
2.833	4.93469
2.8335	7.75452
2.834	7.45239
2.8345	11.68213
2.835	12.18567
2.8355	12.99133
2.836	14.90479
2.8365	16.21399
2.837	15.81116
2.8375	22.25647
2.838	25.47913
2.8385	20.44373
2.839	30.61523
2.8395	24.87488
2.84	24.67346
2.8405	16.21399
2.841	15.71045
2.8415	17.22107
2.842	11.68213
2.8425	12.18567
2.843	15.91187
2.8435	16.11328
2.844	2.01416
2.8445	0.30212
2.845	-1.3092
2.8455	-1.91345
2.846	-8.56018
2.8465	-12.08496
2.847	-12.99133
2.8475	-6.44531
2.848	-5.53894
2.8485	0.20142
2.849	13.99841
2.8495	32.62939
2.85	39.67896
2.8505	43.50586
2.851	46.5271
2.8515	40.88745
2.852	49.14551
2.8525	48.74268
2.853	49.95117
2.8535	50.75684
2.854	56.09436
2.8545	50.05188
2.855	51.76392
2.8555	50.75684
2.856	57.30286
2.8565	44.91577
2.857	30.51453
2.8575	16.3147
2.858	5.0354
2.8585	1.71204
2.859	-10.77576
2.8595	-4.22974
2.86	2.81982
2.8605	10.27222
2.861	3.8269
2.8615	1.3092
2.862	-5.13611
2.8625	-11.2793
2.863	-21.85364
2.8635	-41.4917
2.864	-68.28003
2.8645	-74.92676
2.865	-85.60181
2.8655	-85.19897
2.866	-86.10535
2.8665	-87.41455
2.867	-82.17773
2.8675	-77.64587
2.868	-74.92676
2.8685	-68.48145
2.869	-54.78516
2.8695	-36.85913
2.87	-19.83948
2.8705	-14.30054
2.871	-9.66797
2.8715	2.01416
2.872	13.19275
2.8725	14.40125
2.873	21.75293
2.8735	22.86072
2.874	29.00391
2.8745	19.03381
2.875	14.19983
2.8755	8.05664
2.876	7.95593
2.8765	6.04248
2.877	18.42957
2.8775	17.42249
2.878	18.32886
2.8785	20.44373
2.879	19.23523
2.8795	18.12744
2.88	11.17859
2.8805	7.95593
2.881	0.50354
2.8815	-10.47363
2.882	-13.797
2.8825	-16.81824
2.883	-12.5885
2.8835	-13.19275
2.884	-9.76868
2.8845	-16.3147
2.885	-11.98425
2.8855	-16.71753
2.886	-17.42249
2.8865	-15.30762
2.887	-16.01257
2.8875	-10.17151
2.888	-3.32336
2.8885	-0.70496
2.889	4.02832
2.8895	0.20142
2.89	4.73328
2.8905	9.06372
2.891	10.87646
2.8915	12.28638
2.892	13.99841
2.8925	16.21399
2.893	15.1062
2.8935	12.38708
2.894	14.30054
2.8945	10.57434
2.895	15.50903
2.8955	14.09912
2.896	9.76868
2.8965	8.56018
2.897	13.59558
2.8975	12.78992
2.898	19.13452
2.8985	18.02673
2.899	16.3147
2.8995	24.87488
2.9	22.76001
2.9005	22.05505
2.901	22.25647
2.9015	24.77417
2.902	23.26355
2.9025	23.56567
2.903	19.03381
2.9035	26.58691
2.904	25.57983
2.9045	25.68054
2.905	23.06213
2.9055	29.91028
2.906	26.28479
2.9065	25.88196
2.907	27.6947
2.9075	17.72461
2.908	14.30054
2.9085	14.30054
2.909	0
2.9095	-4.63257
2.91	-8.8623
2.9105	-14.50195
2.911	-8.7616
2.9115	-0.80566
2.912	0.80566
2.9125	6.2439
2.913	3.7262
2.9135	8.7616
2.914	7.95593
2.9145	13.29346
2.915	20.1416
2.9155	18.93311
2.916	15.81116
2.9165	12.5885
2.917	8.35876
2.9175	7.95593
2.918	9.76868
2.9185	12.78992
2.919	15.30762
2.9195	10.87646
2.92	12.18567
2.9205	7.85522
2.921	1.00708
2.9215	2.92053
2.922	9.16443
2.9225	-0.20142
2.923	3.02124
2.9235	1.51062
2.924	-4.43115
2.9245	-7.85522
2.925	-8.96301
2.9255	-8.25806
2.926	-7.95593
2.9265	-5.33752
2.927	-3.92761
2.9275	-0.50354
2.928	3.62549
2.9285	7.35168
2.929	2.01416
2.9295	3.02124
2.93	2.5177
2.9305	7.04956
2.931	6.04248
2.9315	1.71204
2.932	9.46655
2.9325	13.69629
2.933	10.97717
2.9335	11.88354
2.934	12.99133
2.9345	4.63257
2.935	5.84106
2.9355	9.26514
2.936	9.56726
2.9365	8.25806
2.937	11.17859
2.9375	9.56726
2.938	3.8269
2.9385	3.8269
2.939	10.77576
2.9395	6.74744
2.94	9.16443
2.9405	6.2439
2.941	1.10779
2.9415	0.80566
2.942	4.12903
2.9425	2.61841
2.943	3.22266
2.9435	9.16443
2.944	8.56018
2.9445	6.2439
2.945	6.54602
2.9455	15.30762
2.946	13.09204
2.9465	14.60266
2.947	14.40125
2.9475	12.68921
2.948	10.47363
2.9485	15.60974
2.949	12.78992
2.9495	23.56567
2.95	21.45081
2.9505	26.18408
2.951	35.54993
2.9515	38.47046
2.952	48.44055
2.9525	45.3186
2.953	49.44763
2.9535	53.37524
2.954	62.53967
2.9545	73.11401
2.955	86.40747
2.9555	91.54358
2.956	89.73083
2.9565	86.00464
2.957	73.31543
2.9575	54.88586
2.958	28.9032
2.9585	-3.22266
2.959	-32.62939
2.9595	-74.52393
2.96	-112.79297
2.9605	-131.92749
2.961	-140.48767
2.9615	-126.08643
2.962	-113.09509
2.9625	-91.24146
2.963	-70.3949
2.9635	-48.33984
2.964	-25.68054
2.9645	-6.04248
2.965	2.61841
2.9655	6.84814
2.966	15.50903
2.9665	13.69629
2.967	12.5885
2.9675	16.01257
2.968	17.32178
2.9685	16.71753
2.969	26.98975
2.9695	28.70178
2.97	28.80249
2.9705	24.77417
2.971	21.55151
2.9715	23.06213
2.972	27.59399
2.9725	21.95435
2.973	17.82532
2.9735	8.15735
2.974	5.13611
2.9745	1.2085
2.975	5.63965
2.9755	3.42407
2.976	4.12903
2.9765	8.8623
2.977	16.3147
2.9775	30.31311
2.978	46.32568
2.9785	53.77808
2.979	65.15808
2.9795	79.45862
2.98	73.81897
2.9805	61.93542
2.981	43.70728
2.9815	10.67505
2.982	-18.73169
2.9825	-34.54285
2.983	-55.18799
2.9835	-78.55225
2.984	-89.02588
2.9845	-102.01721
2.985	-107.75757
2.9855	-109.87244
2.986	-103.72925
2.9865	-94.06128
2.987	-85.60181
2.9875	-52.56958
2.988	-31.21948
2.9885	-18.8324
2.989	-12.68921
2.9895	-0.40283
2.99	11.2793
2.9905	15.30762
2.991	24.57275
2.9915	31.11877
2.992	33.83789
2.9925	30.11169
2.993	17.92603
2.9935	7.75452
2.994	-1.10779
2.9945	-9.16443
2.995	-14.80408
2.9955	-28.29895
2.996	-28.9032
2.9965	-30.61523
2.997	-31.82373
2.9975	-25.177
2.998	-29.30603
2.9985	-32.7301
2.999	-22.86072
2.9995	-23.96851
3	-11.88354
3.0005	-1.91345
3.001	0
3.0015	-4.63257
3.002	-2.92053
3.0025	-0.30212
3.003	6.64673
3.0035	14.80408
3.004	11.48071
3.0045	19.94019
3.005	18.42957
3.0055	23.26355
3.006	19.63806
3.0065	18.63098
3.007	25.98267
3.0075	28.80249
3.008	23.06213
3.0085	22.45789
3.009	22.6593
3.0095	28.60107
3.01	27.79541
3.0105	26.68762
3.011	27.39258
3.0115	25.78125
3.012	24.47205
3.0125	29.40674
3.013	21.3501
3.0135	20.64514
3.014	22.35718
3.0145	17.6239
3.015	23.06213
3.0155	19.83948
3.016	25.37842
3.0165	26.18408
3.017	20.64514
3.0175	27.89612
3.018	25.98267
3.0185	24.47205
3.019	22.15576
3.0195	24.57275
3.02	27.6947
3.0205	23.66638
3.021	27.39258
3.0215	32.62939
3.022	37.16125
3.0225	35.34851
3.023	38.36975
3.0235	41.99524
3.024	37.66479
3.0245	43.20374
3.025	44.31152
3.0255	39.57825
3.026	43.20374
3.0265	44.71436
3.027	53.17383
3.0275	60.3241
3.028	66.26587
3.0285	68.68286
3.029	66.76941
3.0295	57.9071
3.03	49.34692
3.0305	27.49329
3.031	8.8623
3.0315	-22.25647
3.032	-55.2887
3.0325	-81.37207
3.033	-93.35632
3.0335	-95.87402
3.034	-93.55774
3.0345	-80.26428
3.035	-75.02747
3.0355	-62.03613
3.036	-44.11011
3.0365	-30.2124
3.037	-17.32178
3.0375	-3.32336
3.038	-0.30212
3.0385	2.5177
3.039	2.5177
3.0395	8.7616
3.04	6.94885
3.0405	9.06372
3.041	7.04956
3.0415	15.50903
3.042	9.56726
3.0425	5.23682
3.043	9.06372
3.0435	17.92603
3.044	17.52319
3.0445	9.97009
3.045	13.29346
3.0455	8.45947
3.046	10.97717
3.0465	12.5885
3.047	9.46655
3.0475	19.53735
3.048	12.78992
3.0485	16.01257
3.049	15.50903
3.0495	16.3147
3.05	22.25647
3.0505	27.99683
3.051	37.86621
3.0515	41.29028
3.052	43.90869
3.0525	48.03772
3.053	46.02356
3.0535	50.95825
3.054	55.2887
3.0545	51.15967
3.055	50.354
3.0555	53.77808
3.056	52.56958
3.0565	49.0448
3.057	47.53418
3.0575	41.18958
3.058	39.77966
3.0585	35.85205
3.059	24.16992
3.0595	7.25098
3.06	-7.45239
3.0605	-23.26355
3.061	-33.63647
3.0615	-39.98108
3.062	-48.13843
3.0625	-42.39807
3.063	-39.57825
3.0635	-35.34851
3.064	-25.177
3.0645	-9.26514
3.065	-1.3092
3.0655	5.13611
3.066	4.12903
3.0665	3.8269
3.067	5.33752
3.0675	4.43115
3.068	-7.95593
3.0685	-17.52319
3.069	-22.55859
3.0695	-30.01099
3.07	-37.86621
3.0705	-24.87488
3.071	-28.60107
3.0715	-25.47913
3.072	-19.43665
3.0725	-16.91895
3.073	-21.75293
3.0735	-12.78992
3.074	-14.19983
3.0745	-4.53186
3.075	-3.8269
3.0755	4.02832
3.076	2.21558
3.0765	-0.10071
3.077	-3.12195
3.0775	-2.71912
3.078	-2.01416
3.0785	5.33752
3.079	2.5177
3.0795	4.83398
3.08	3.92761
3.0805	5.23682
3.081	11.58142
3.0815	5.53894
3.082	10.57434
3.0825	6.14319
3.083	5.0354
3.0835	11.2793
3.084	2.81982
3.0845	12.99133
3.085	13.19275
3.0855	14.30054
3.086	13.797
3.0865	9.16443
3.087	14.70337
3.0875	17.22107
3.088	10.37292
3.0885	10.57434
3.089	17.01965
3.0895	20.1416
3.09	13.19275
3.0905	12.78992
3.091	16.41541
3.0915	17.12036
3.092	19.23523
3.0925	12.78992
3.093	13.09204
3.0935	16.3147
3.094	16.41541
3.0945	10.17151
3.095	13.39417
3.0955	9.97009
3.096	15.71045
3.0965	24.97559
3.097	35.34851
3.0975	52.8717
3.098	63.44604
3.0985	76.13525
3.099	86.70959
3.0995	93.35632
3.1	100.50659
3.1005	86.8103
3.101	66.97083
3.1015	34.94568
3.102	17.22107
3.1025	-5.13611
3.103	-29.10461
3.1035	-57.40356
3.104	-68.48145
3.1045	-74.82605
3.105	-81.97632
3.1055	-76.33667
3.106	-75.02747
3.1065	-65.76233
3.107	-54.68445
3.1075	-35.65063
3.108	-31.62231
3.1085	-27.79541
3.109	-23.66638
3.1095	-20.04089
3.11	-13.29346
3.1105	-5.23682
3.111	-0.60425
3.1115	4.93469
3.112	5.94177
3.1125	1.61133
3.113	12.28638
3.1135	9.56726
3.114	8.05664
3.1145	8.05664
3.115	6.2439
3.1155	9.56726
3.116	12.68921
3.1165	8.05664
3.117	8.15735
3.1175	5.53894
3.118	8.56018
3.1185	9.97009
3.119	7.85522
3.1195	10.97717
3.12	7.45239
3.1205	7.25098
3.121	11.88354
3.1215	10.77576
3.122	6.14319
3.1225	11.38
3.123	15.40833
3.1235	16.01257
3.124	20.54443
3.1245	18.02673
3.125	17.82532
3.1255	18.12744
3.126	21.55151
3.1265	27.79541
3.127	39.47754
3.1275	39.17542
3.128	48.64197
3.1285	52.06604
3.129	72.50977
3.1295	83.88977
3.13	93.45703
3.1305	105.13916
3.131	111.78589
3.1315	115.61279
3.132	116.31775
3.1325	100.70801
3.133	78.55225
3.1335	61.02905
3.134	29.10461
3.1345	3.8269
3.135	-21.3501
3.1355	-38.47046
3.136	-49.0448
3.1365	-50.05188
3.137	-51.15967
3.1375	-55.69153
3.138	-57.9071
3.1385	-59.1156
3.139	-60.02197
3.1395	-63.34534
3.14	-65.56091
3.1405	-73.81897
3.141	-83.88977
3.1415	-88.32092
3.142	-91.745
3.1425	-85.90393
3.143	-79.55933
3.1435	-68.48145
3.144	-56.90002
3.1445	-47.93701
3.145	-37.7655
3.1455	-30.91736
3.146	-26.3855
3.1465	-17.82532
3.147	-14.09912
3.1475	-10.57434
3.148	-7.45239
3.1485	-8.56018
3.149	-6.74744
3.1495	0.50354
3.15	1.91345
3.1505	2.61841
3.151	10.67505
3.1515	8.35876
3.152	10.97717
3.1525	10.37292
3.153	9.26514
3.1535	15.20691
3.154	9.16443
3.1545	13.89771
3.155	12.89062
3.1555	18.53027
3.156	15.30762
3.1565	15.71045
3.157	15.91187
3.1575	19.83948
3.158	19.63806
3.1585	20.34302
3.159	16.3147
3.1595	18.02673
3.16	21.55151
3.1605	14.90479
3.161	14.60266
3.1615	12.08496
3.162	6.74744
3.1625	6.64673
3.163	5.33752
3.1635	9.36584
3.164	12.68921
3.1645	12.18567
3.165	9.36584
3.1655	14.19983
3.166	9.66797
3.1665	5.84106
3.167	5.33752
3.1675	8.7616
3.168	9.86938
3.1685	10.47363
3.169	8.45947
3.1695	5.23682
3.17	9.06372
3.1705	8.15735
3.171	5.53894
3.1715	5.0354
3.172	10.87646
3.1725	5.0354
3.173	5.84106
3.1735	14.70337
3.174	6.84814
3.1745	10.27222
3.175	12.18567
3.1755	6.2439
3.176	9.76868
3.1765	10.57434
3.177	9.36584
3.1775	9.36584
3.178	9.06372
3.1785	7.65381
3.179	8.15735
3.1795	10.67505
3.18	5.74036
3.1805	7.85522
3.181	6.84814
3.1815	11.88354
3.182	9.97009
3.1825	6.84814
3.183	4.43115
3.1835	8.45947
3.184	5.0354
3.1845	5.43823
3.185	2.11487
3.1855	0.80566
3.186	7.45239
3.1865	6.94885
3.187	-1.40991
3.1875	4.02832
3.188	7.65381
3.1885	7.25098
3.189	2.41699
3.1895	-1.00708
3.19	2.61841
3.1905	0.10071
3.191	3.02124
3.1915	4.22974
3.192	5.43823
3.1925	4.02832
3.193	1.2085
3.1935	2.81982
3.194	0.70496
3.1945	0.90637
3.195	6.94885
3.1955	4.02832
3.196	10.87646
3.1965	10.0708
3.197	11.78284
3.1975	5.33752
3.198	12.89062
3.1985	9.36584
3.199	9.97009
3.1995	11.88354
3.2	10.77576
3.2005	12.99133
3.201	13.797
3.2015	13.99841
3.202	16.21399
3.2025	18.02673
3.203	18.12744
3.2035	20.54443
3.204	18.12744
3.2045	18.53027
3.205	18.32886
3.2055	26.28479
3.206	28.9032
3.2065	37.36267
3.207	38.36975
3.2075	38.26904
3.208	36.35559
3.2085	30.81665
3.209	20.84656
3.2095	21.3501
3.21	14.60266
3.2105	12.28638
3.211	10.27222
3.2115	8.45947
3.212	13.797
3.2125	13.39417
3.213	9.86938
3.2135	12.68921
3.214	15.81116
3.2145	9.86938
3.215	0.60425
3.2155	-1.10779
3.216	-0.60425
3.2165	-0.90637
3.217	1.81274
3.2175	2.21558
3.218	5.13611
3.2185	1.51062
3.219	-2.5177
3.2195	-7.85522
3.22	-5.94177
3.2205	-11.2793
3.221	-15.30762
3.2215	-20.34302
3.222	-30.01099
3.2225	-30.81665
3.223	-31.01807
3.2235	-35.2478
3.224	-42.8009
3.2245	-37.26196
3.225	-33.23364
3.2255	-23.66638
3.226	-17.22107
3.2265	-14.60266
3.227	-0.70496
3.2275	6.94885
3.228	11.98425
3.2285	21.14868
3.229	29.80957
3.2295	29.91028
3.23	27.39258
3.2305	30.2124
3.231	31.82373
3.2315	37.86621
3.232	46.02356
3.2325	50.85754
3.233	52.36816
3.2335	59.92126
3.234	68.88428
3.2345	67.57507
3.235	63.84888
3.2355	50.2533
3.236	37.06055
3.2365	13.99841
3.237	-10.27222
3.2375	-39.47754
3.238	-61.23047
3.2385	-72.71118
3.239	-82.68127
3.2395	-72.61047
3.24	-72.9126
3.2405	-55.49011
3.241	-47.43347
3.2415	-35.85205
3.242	-22.45789
3.2425	-10.67505
3.243	-10.77576
3.2435	-1.61133
3.244	-3.42407
3.2445	-6.3446
3.245	-1.61133
3.2455	-7.95593
3.246	-2.5177
3.2465	2.11487
3.247	-0.50354
3.2475	-0.40283
3.248	-2.71912
3.2485	3.42407
3.249	1.51062
3.2495	4.43115
3.25	3.02124
3.2505	5.63965
3.251	2.31628
3.2515	6.44531
3.252	12.99133
3.2525	8.66089
3.253	8.66089
3.2535	8.7616
3.254	11.98425
3.2545	9.36584
3.255	6.74744
3.2555	8.96301
3.256	13.59558
3.2565	9.86938
3.257	10.27222
3.2575	12.89062
3.258	10.27222
3.2585	10.87646
3.259	9.46655
3.2595	8.56018
3.26	11.17859
3.2605	7.5531
3.261	13.09204
3.2615	15.50903
3.262	14.60266
3.2625	15.00549
3.263	17.22107
3.2635	16.51611
3.264	17.12036
3.2645	12.5885
3.265	16.41541
3.2655	10.57434
3.266	10.97717
3.2665	8.96301
3.267	14.09912
3.2675	7.75452
3.268	11.48071
3.2685	15.30762
3.269	9.97009
3.2695	10.17151
3.27	7.04956
3.2705	7.85522
3.271	10.97717
3.2715	10.67505
3.272	8.05664
3.2725	2.71912
3.273	5.53894
3.2735	-0.30212
3.274	1.91345
3.2745	8.05664
3.275	18.93311
3.2755	18.22815
3.276	18.22815
3.2765	24.67346
3.277	21.95435
3.2775	32.32727
3.278	41.39099
3.2785	43.10303
3.279	46.5271
3.2795	51.26038
3.28	53.57666
3.2805	59.82056
3.281	54.78516
3.2815	50.2533
3.282	38.36975
3.2825	21.14868
3.283	0.90637
3.2835	-18.63098
3.284	-44.51294
3.2845	-64.55383
3.285	-81.47278
3.2855	-87.11243
3.286	-89.83154
3.2865	-76.03455
3.287	-66.36658
3.2875	-46.82922
3.288	-33.13293
3.2885	-17.82532
3.289	-8.05664
3.2895	-0.50354
3.29	-0.50354
3.2905	-1.71204
3.291	5.23682
3.2915	0.30212
3.292	0.80566
3.2925	1.00708
3.293	-1.40991
3.2935	-2.5177
3.294	6.04248
3.2945	5.53894
3.295	6.2439
3.2955	4.33044
3.296	5.84106
3.2965	6.2439
3.297	9.66797
3.2975	9.16443
3.298	9.16443
3.2985	12.78992
3.299	10.77576
3.2995	3.52478
3.3	13.29346
3.3005	13.19275
3.301	9.06372
3.3015	13.09204
3.302	16.51611
3.3025	13.09204
3.303	11.2793
3.3035	13.19275
3.304	14.70337
3.3045	11.48071
3.305	5.63965
3.3055	7.15027
3.306	12.38708
3.3065	8.7616
3.307	10.87646
3.3075	7.5531
3.308	8.15735
3.3085	8.56018
3.309	9.76868
3.3095	6.2439
3.31	7.75452
3.3105	19.43665
3.311	18.93311
3.3115	28.80249
3.312	30.61523
3.3125	24.06921
3.313	18.73169
3.3135	29.60815
3.314	26.58691
3.3145	26.58691
3.315	20.04089
3.3155	16.41541
3.316	10.47363
3.3165	4.63257
3.317	6.14319
3.3175	6.04248
3.318	-6.14319
3.3185	-14.40125
3.319	-16.11328
3.3195	-24.67346
3.32	-24.16992
3.3205	-32.62939
3.321	-33.83789
3.3215	-30.51453
3.322	-26.28479
3.3225	-22.76001
3.323	-17.01965
3.3235	-16.21399
3.324	-10.37292
3.3245	-8.05664
3.325	-0.40283
3.3255	4.73328
3.326	0
3.3265	0.30212
3.327	2.71912
3.3275	4.73328
3.328	9.56726
3.3285	7.95593
3.329	9.06372
3.3295	7.75452
3.33	8.66089
3.3305	11.07788
3.331	8.96301
3.3315	6.94885
3.332	10.0708
3.3325	12.99133
3.333	12.08496
3.3335	8.8623
3.334	7.45239
3.3345	7.95593
3.335	6.84814
3.3355	13.89771
3.336	10.97717
3.3365	10.47363
3.337	13.39417
3.3375	13.99841
3.338	8.05664
3.3385	11.07788
3.339	6.2439
3.3395	5.53894
3.34	4.93469
3.3405	6.64673
3.341	9.56726
3.3415	8.8623
3.342	11.68213
3.3425	7.25098
3.343	3.62549
3.3435	3.62549
3.344	6.54602
3.3445	12.18567
3.345	6.3446
3.3455	7.04956
3.346	11.2793
3.3465	10.37292
3.347	12.18567
3.3475	17.01965
3.348	10.97717
3.3485	14.70337
3.349	11.38
3.3495	13.797
3.35	13.39417
3.3505	18.93311
3.351	14.70337
3.3515	8.35876
3.352	6.44531
3.3525	10.77576
3.353	5.43823
3.3535	12.08496
3.354	9.06372
3.3545	10.27222
3.355	5.74036
3.3555	5.33752
3.356	8.96301
3.3565	9.26514
3.357	13.19275
3.3575	5.94177
3.358	10.77576
3.3585	6.74744
3.359	2.71912
3.3595	6.2439
3.36	9.36584
3.3605	8.15735
3.361	6.04248
3.3615	7.35168
3.362	6.04248
3.3625	5.23682
3.363	9.46655
3.3635	6.84814
3.364	6.14319
3.3645	9.06372
3.365	6.64673
3.3655	4.73328
3.366	2.01416
3.3665	5.43823
3.367	5.33752
3.3675	4.93469
3.368	7.65381
3.3685	8.35876
3.369	5.63965
3.3695	8.25806
3.37	8.96301
3.3705	7.15027
3.371	11.58142
3.3715	14.30054
3.372	10.97717
3.3725	10.97717
3.373	19.53735
3.3735	19.73877
3.374	19.23523
3.3745	23.56567
3.375	21.85364
3.3755	23.8678
3.376	22.15576
3.3765	20.94727
3.377	14.70337
3.3775	13.19275
3.378	15.60974
3.3785	11.68213
3.379	3.92761
3.3795	-3.52478
3.38	-5.13611
3.3805	-7.04956
3.381	-0.30212
3.3815	7.35168
3.382	24.77417
3.3825	36.95984
3.383	48.94409
3.3835	64.85596
3.384	76.84021
3.3845	73.41614
3.385	84.59473
3.3855	82.07703
3.386	67.97791
3.3865	53.37524
3.387	34.44214
3.3875	21.3501
3.388	-7.15027
3.3885	-25.98267
3.389	-47.03064
3.3895	-61.23047
3.39	-55.99365
3.3905	-45.11719
3.391	-36.95984
3.3915	-26.3855
3.392	-25.88196
3.3925	-17.82532
3.393	-15.00549
3.3935	-10.97717
3.394	-8.45947
3.3945	-9.76868
3.395	-8.15735
3.3955	-10.67505
3.396	-6.54602
3.3965	-14.40125
3.397	-24.37134
3.3975	-28.80249
3.398	-37.96692
3.3985	-41.18958
3.399	-44.11011
3.3995	-37.16125
3.4	-43.50586
3.4005	-36.65771
3.401	-36.4563
3.4015	-31.01807
3.402	-22.25647
3.4025	-10.77576
3.403	-8.56018
3.4035	-6.2439
3.404	0.70496
3.4045	7.95593
3.405	8.96301
3.4055	10.87646
3.406	16.21399
3.4065	16.71753
3.407	21.65222
3.4075	21.24939
3.408	23.76709
3.4085	20.04089
3.409	21.65222
3.4095	23.96851
3.41	27.99683
3.4105	26.78833
3.411	26.88904
3.4115	22.25647
3.412	18.12744
3.4125	13.49487
3.413	4.83398
3.4135	3.7262
3.414	0
3.4145	-6.3446
3.415	-9.46655
3.4155	-3.62549
3.416	-9.76868
3.4165	-10.37292
3.417	-9.36584
3.4175	-4.33044
3.418	-2.92053
3.4185	3.7262
3.419	3.32336
3.4195	5.74036
3.42	6.3446
3.4205	9.86938
3.421	6.64673
3.4215	5.43823
3.422	2.81982
3.4225	6.2439
3.423	4.73328
3.4235	3.8269
3.424	12.18567
3.4245	7.65381
3.425	7.45239
3.4255	9.46655
3.426	7.85522
3.4265	5.33752
3.427	2.5177
3.4275	8.05664
3.428	6.54602
3.4285	7.75452
3.429	5.23682
3.4295	2.11487
3.43	3.12195
3.4305	3.52478
3.431	4.43115
3.4315	9.76868
3.432	4.83398
3.4325	6.3446
3.433	5.43823
3.4335	7.5531
3.434	-0.20142
3.4345	10.87646
3.435	7.5531
3.4355	6.14319
3.436	14.09912
3.4365	8.35876
3.437	7.75452
3.4375	9.26514
3.438	9.66797
3.4385	8.35876
3.439	8.96301
3.4395	4.63257
3.44	4.73328
3.4405	5.43823
3.441	2.92053
3.4415	2.81982
3.442	6.04248
3.4425	5.43823
3.443	8.05664
3.4435	6.94885
3.444	6.84814
3.4445	5.94177
3.445	5.74036
3.4455	1.2085
3.446	-1.00708
3.4465	5.13611
3.447	-2.01416
3.4475	0.90637
3.448	-2.21558
3.4485	0.10071
3.449	2.81982
3.4495	1.71204
3.45	0.10071
3.4505	-1.10779
3.451	6.2439
3.4515	-1.2085
3.452	1.81274
3.4525	4.53186
3.453	2.21558
3.4535	4.33044
3.454	0.30212
3.4545	9.16443
3.455	2.61841
3.4555	5.13611
3.456	5.63965
3.4565	2.31628
3.457	-2.21558
3.4575	3.42407
3.458	4.63257
3.4585	7.15027
3.459	3.42407
3.4595	-0.90637
3.46	2.01416
3.4605	4.33044
3.461	6.54602
3.4615	3.12195
3.462	1.81274
3.4625	3.92761
3.463	5.74036
3.4635	1.81274
3.464	6.54602
3.4645	11.2793
3.465	8.56018
3.4655	8.56018
3.466	4.43115
3.4665	4.63257
3.467	8.7616
3.4675	5.63965
3.468	6.2439
3.4685	7.65381
3.469	9.86938
3.4695	9.86938
3.47	6.54602
3.4705	6.44531
3.471	9.97009
3.4715	5.33752
3.472	8.05664
3.4725	3.52478
3.473	5.13611
3.4735	15.00549
3.474	3.32336
3.4745	3.52478
3.475	4.73328
3.4755	7.25098
3.476	-0.90637
3.4765	-1.00708
3.477	6.54602
3.4775	9.97009
3.478	1.00708
3.4785	0.80566
3.479	4.63257
3.4795	-0.10071
3.48	1.51062
3.4805	2.5177
3.481	4.83398
3.4815	3.92761
3.482	6.84814
3.4825	4.22974
3.483	4.22974
3.4835	8.25806
3.484	9.36584
3.4845	8.25806
3.485	7.85522
3.4855	8.96301
3.486	8.8623
3.4865	10.17151
3.487	9.97009
3.4875	6.94885
3.488	5.63965
3.4885	4.73328
3.489	1.81274
3.4895	3.52478
3.49	1.10779
3.4905	2.31628
3.491	2.01416
3.4915	5.13611
3.492	2.92053
3.4925	4.93469
3.493	3.22266
3.4935	7.04956
3.494	6.94885
3.4945	2.71912
3.495	2.21558
3.4955	6.04248
3.496	8.8623
3.4965	13.89771
3.497	11.07788
3.4975	12.08496
3.498	14.19983
3.4985	10.0708
3.499	10.57434
3.4995	10.0708
3.5	2.71912
3.5005	1.91345
3.501	-0.40283
3.5015	6.74744
3.502	6.94885
3.5025	3.62549
3.503	4.83398
3.5035	9.16443
3.504	3.22266
3.5045	-3.02124
3.505	-10.67505
3.5055	-17.42249
3.506	-22.6593
3.5065	-23.36426
3.507	-24.47205
3.5075	-24.77417
3.508	-22.76001
3.5085	-15.71045
3.509	-17.32178
3.5095	-10.17151
3.51	-7.65381
3.5105	5.94177
3.511	6.2439
3.5115	5.0354
3.512	10.57434
3.5125	6.04248
3.513	5.53894
3.5135	6.14319
3.514	7.25098
3.5145	3.02124
3.515	-0.40283
3.5155	6.94885
3.516	1.51062
3.5165	7.15027
3.517	6.64673
3.5175	6.74744
3.518	4.53186
3.5185	7.5531
3.519	-0.60425
3.5195	9.86938
3.52	11.17859
3.5205	7.65381
3.521	7.75452
3.5215	11.78284
3.522	15.91187
3.5225	17.72461
3.523	19.23523
3.5235	24.77417
3.524	26.3855
3.5245	26.18408
3.525	22.15576
3.5255	27.29187
3.526	28.09753
3.5265	31.62231
3.527	26.98975
3.5275	38.974
3.528	30.91736
3.5285	26.48621
3.529	16.11328
3.5295	17.72461
3.53	8.7616
3.5305	0.30212
3.531	-1.91345
3.5315	-11.68213
3.532	-19.23523
3.5325	-16.61682
3.533	-20.54443
3.5335	-15.71045
3.534	-12.68921
3.5345	-8.15735
3.535	-11.2793
3.5355	-8.7616
3.536	-3.02124
3.5365	-0.70496
3.537	-2.41699
3.5375	0.90637
3.538	5.23682
3.5385	1.10779
3.539	5.84106
3.5395	7.25098
3.54	9.86938
3.5405	7.25098
3.541	8.66089
3.5415	7.95593
3.542	6.44531
3.5425	4.43115
3.543	1.81274
3.5435	5.84106
3.544	-0.40283
3.5445	-0.50354
3.545	0.50354
3.5455	4.63257
3.546	9.36584
3.5465	15.40833
3.547	30.51453
3.5475	33.03223
3.548	30.01099
3.5485	32.62939
3.549	33.83789
3.5495	28.09753
3.55	24.67346
3.5505	16.51611
3.551	4.83398
3.5515	-2.92053
3.552	-20.04089
3.5525	-34.54285
3.553	-38.974
3.5535	-44.51294
3.554	-44.91577
3.5545	-36.85913
3.555	-29.70886
3.5555	-35.14709
3.556	-22.96143
3.5565	-14.90479
3.557	-12.99133
3.5575	-10.57434
3.558	-2.5177
3.5585	5.74036
3.559	7.25098
3.5595	4.73328
3.56	8.35876
3.5605	5.33752
3.561	8.05664
3.5615	6.04248
3.562	6.64673
3.5625	12.38708
3.563	13.29346
3.5635	10.0708
3.564	7.95593
3.5645	7.45239
3.565	7.25098
3.5655	9.26514
3.566	11.17859
3.5665	12.78992
3.567	8.45947
3.5675	4.73328
3.568	4.83398
3.5685	8.96301
3.569	12.78992
3.5695	12.38708
3.57	10.77576
3.5705	11.48071
3.571	14.09912
3.5715	13.39417
3.572	11.48071
3.5725	5.0354
3.573	4.93469
3.5735	4.93469
3.574	3.12195
3.5745	7.5531
3.575	4.73328
3.5755	7.95593
3.576	2.61841
3.5765	1.40991
3.577	2.81982
3.5775	4.83398
3.578	7.15027
3.5785	7.85522
3.579	9.46655
3.5795	8.66089
3.58	6.04248
3.5805	2.81982
3.581	1.10779
3.5815	3.22266
3.582	6.84814
3.5825	3.12195
3.583	2.92053
3.5835	4.93469
3.584	9.26514
3.5845	9.46655
3.585	3.32336
3.5855	7.25098
3.586	8.35876
3.5865	7.75452
3.587	6.44531
3.5875	2.11487
3.588	3.92761
3.5885	5.94177
3.589	5.0354
3.5895	1.71204
3.59	-1.10779
3.5905	1.91345
3.591	1.00708
3.5915	1.61133
3.592	-3.22266
3.5925	-1.40991
3.593	-1.61133
3.5935	0
3.594	3.7262
3.5945	5.74036
3.595	0
3.5955	-7.75452
3.596	-6.64673
3.5965	-2.61841
3.597	-6.64673
3.5975	-0.50354
3.598	-2.61841
3.5985	-7.04956
3.599	-3.52478
3.5995	-1.10779
3.6	3.32336
3.6005	-4.63257
3.601	-1.2085
3.6015	-4.02832
3.602	-4.22974
3.6025	-3.7262
3.603	-4.63257
3.6035	-6.14319
3.604	-3.7262
3.6045	-7.65381
3.605	-4.33044
3.6055	2.41699
3.606	-0.10071
3.6065	-2.21558
3.607	0.10071
3.6075	-2.81982
3.608	1.40991
3.6085	-2.81982
3.609	-3.22266
3.6095	0.50354
3.61	4.53186
3.6105	2.41699
3.611	1.2085
3.6115	2.21558
3.612	1.2085
3.6125	2.01416
3.613	2.81982
3.6135	7.25098
3.614	1.91345
3.6145	4.43115
3.615	3.7262
3.6155	4.43115
3.616	9.06372
3.6165	6.64673
3.617	7.95593
3.6175	15.1062
3.618	9.56726
3.6185	12.5885
3.619	14.80408
3.6195	10.97717
3.62	15.20691
3.6205	9.16443
3.621	15.60974
3.6215	16.81824
3.622	16.71753
3.6225	15.60974
3.623	21.04797
3.6235	14.60266
3.624	16.71753
3.6245	11.38
3.625	15.20691
3.6255	20.1416
3.626	21.3501
3.6265	20.74585
3.627	19.43665
3.6275	25.57983
3.628	24.77417
3.6285	24.87488
3.629	17.42249
3.6295	15.1062
3.63	9.86938
3.6305	1.3092
3.631	-6.84814
3.6315	-16.11328
3.632	-17.22107
3.6325	-17.42249
3.633	-16.41541
3.6335	-8.8623
3.634	-12.08496
3.6345	-9.46655
3.635	-4.63257
3.6355	5.0354
3.636	2.92053
3.6365	3.22266
3.637	5.53894
3.6375	4.33044
3.638	7.85522
3.6385	8.25806
3.639	9.46655
3.6395	15.30762
3.64	10.97717
3.6405	17.22107
3.641	16.81824
3.6415	11.88354
3.642	13.99841
3.6425	19.83948
3.643	24.87488
3.6435	27.09045
3.644	23.76709
3.6445	27.49329
3.645	33.03223
3.6455	35.54993
3.646	32.83081
3.6465	31.4209
3.647	32.32727
3.6475	27.39258
3.648	28.19824
3.6485	22.45789
3.649	11.17859
3.6495	6.2439
3.65	6.44531
3.6505	2.01416
3.651	-0.50354
3.6515	-5.53894
3.652	-8.15735
3.6525	-10.0708
3.653	-21.45081
3.6535	-23.46497
3.654	-24.06921
3.6545	-24.67346
3.655	-20.44373
3.6555	-14.70337
3.656	-11.68213
3.6565	-9.26514
3.657	-8.15735
3.6575	-13.89771
3.658	-6.04248
3.6585	-4.63257
3.659	-6.64673
3.6595	-8.45947
3.66	-7.65381
3.6605	-4.73328
3.661	-4.53186
3.6615	-1.2085
3.662	-0.80566
3.6625	-0.10071
3.663	-1.3092
3.6635	3.32336
3.664	1.91345
3.6645	9.97009
3.665	10.17151
3.6655	5.53894
3.666	10.97717
3.6665	11.58142
3.667	11.58142
3.6675	10.27222
3.668	6.54602
3.6685	3.42407
3.669	8.45947
3.6695	9.26514
3.67	6.54602
3.6705	11.38
3.671	11.98425
3.6715	5.53894
3.672	6.04248
3.6725	6.94885
3.673	2.92053
3.6735	4.22974
3.674	5.33752
3.6745	5.43823
3.675	5.0354
3.6755	5.33752
3.676	3.92761
3.6765	1.3092
3.677	7.45239
3.6775	10.47363
3.678	8.8623
3.6785	9.26514
3.679	8.66089
3.6795	6.84814
3.68	7.95593
3.6805	8.8623
3.681	7.35168
3.6815	10.37292
3.682	5.53894
3.6825	6.84814
3.683	0.80566
3.6835	1.91345
3.684	3.92761
3.6845	4.83398
3.685	3.62549
3.6855	3.12195
3.686	2.92053
3.6865	2.21558
3.687	4.93469
3.6875	7.25098
3.688	7.75452
3.6885	10.67505
3.689	5.33752
3.6895	4.02832
3.69	7.85522
3.6905	5.84106
3.691	6.74744
3.6915	12.38708
3.692	10.27222
3.6925	7.75452
3.693	9.46655
3.6935	9.86938
3.694	5.84106
3.6945	11.38
3.695	6.14319
3.6955	8.7616
3.696	10.47363
3.6965	7.35168
3.697	4.53186
3.6975	2.61841
3.698	1.40991
3.6985	-4.12903
3.699	3.7262
3.6995	4.12903
3.7	5.53894
3.7005	7.25098
3.701	9.36584
3.7015	9.97009
3.702	6.74744
3.7025	8.8623
3.703	6.14319
3.7035	8.35876
3.704	7.85522
3.7045	5.23682
3.705	6.04248
3.7055	7.25098
3.706	2.92053
3.7065	6.74744
3.707	2.31628
3.7075	6.74744
3.708	7.04956
3.7085	7.5531
3.709	2.11487
3.7095	7.25098
3.71	10.57434
3.7105	13.29346
3.711	12.89062
3.7115	13.39417
3.712	14.70337
3.7125	8.8623
3.713	6.3446
3.7135	5.84106
3.714	5.13611
3.7145	0
3.715	0.40283
3.7155	-1.81274
3.716	6.54602
3.7165	5.43823
3.717	4.53186
3.7175	-0.10071
3.718	4.53186
3.7185	6.44531
3.719	7.25098
3.7195	0.20142
3.72	9.76868
3.7205	2.92053
3.721	1.71204
3.7215	-1.10779
3.722	4.02832
3.7225	5.53894
3.723	3.32336
3.7235	0.80566
3.724	7.15027
3.7245	5.23682
3.725	6.94885
3.7255	3.32336
3.726	1.61133
3.7265	2.41699
3.727	6.84814
3.7275	5.43823
3.728	5.53894
3.7285	3.42407
3.729	0.70496
3.7295	-4.43115
3.73	3.32336
3.7305	2.61841
3.731	5.94177
3.7315	10.77576
3.732	4.22974
3.7325	6.84814
3.733	6.14319
3.7335	2.71912
3.734	7.65381
3.7345	6.74744
3.735	6.54602
3.7355	9.26514
3.736	4.33044
3.7365	4.02832
3.737	6.94885
3.7375	6.84814
3.738	10.77576
3.7385	8.25806
3.739	11.58142
3.7395	6.64673
3.74	9.86938
3.7405	10.0708
3.741	8.05664
3.7415	9.06372
3.742	8.96301
3.7425	10.0708
3.743	6.64673
3.7435	13.59558
3.744	15.40833
3.7445	15.00549
3.745	15.00549
3.7455	22.6593
3.746	27.29187
3.7465	31.32019
3.747	31.11877
3.7475	26.3855
3.748	17.6239
3.7485	14.60266
3.749	4.43115
3.7495	-4.33044
3.75	-12.18567
3.7505	-17.6239
3.751	-19.94019
3.7515	-16.11328
3.752	-20.44373
3.7525	-16.81824
3.753	-10.87646
3.7535	-11.48071
3.754	-12.08496
3.7545	-9.97009
3.755	-13.19275
3.7555	-16.91895
3.756	-19.94019
3.7565	-15.60974
3.757	-6.74744
3.7575	-6.54602
3.758	2.21558
3.7585	-0.40283
3.759	1.10779
3.7595	10.17151
3.76	5.94177
3.7605	7.45239
3.761	11.2793
3.7615	12.89062
3.762	7.95593
3.7625	6.14319
3.763	10.67505
3.7635	10.67505
3.764	10.17151
3.7645	3.7262
3.765	6.54602
3.7655	4.53186
3.766	8.56018
3.7665	6.54602
3.767	9.86938
3.7675	9.97009
3.768	11.88354
3.7685	8.35876
3.769	13.29346
3.7695	4.93469
3.77	4.63257
3.7705	7.45239
3.771	6.04248
3.7715	9.06372
3.772	5.63965
3.7725	1.2085
3.773	2.71912
3.7735	0.10071
3.774	4.63257
3.7745	7.45239
3.775	3.22266
3.7755	6.74744
3.776	10.67505
3.7765	8.7616
3.777	3.02124
3.7775	5.13611
3.778	8.05664
3.7785	10.17151
3.779	7.45239
3.7795	11.2793
3.78	6.84814
3.7805	7.45239
3.781	10.37292
3.7815	10.87646
3.782	5.63965
3.7825	9.16443
3.783	9.46655
3.7835	10.37292
3.784	10.57434
3.7845	8.05664
3.785	7.15027
3.7855	7.95593
3.786	3.42407
3.7865	5.94177
3.787	4.73328
3.7875	2.92053
3.788	6.3446
3.7885	8.56018
3.789	-0.60425
3.7895	6.14319
3.79	2.81982
3.7905	4.02832
3.791	6.64673
3.7915	9.16443
3.792	6.64673
3.7925	13.29346
3.793	7.95593
3.7935	10.47363
3.794	5.53894
3.7945	4.73328
3.795	6.74744
3.7955	6.2439
3.796	4.83398
3.7965	2.31628
3.797	7.45239
3.7975	3.42407
3.798	7.5531
3.7985	3.7262
3.799	5.84106
3.7995	5.43823
3.8	5.84106
3.8005	4.83398
3.801	8.35876
3.8015	4.43115
3.802	7.45239
3.8025	1.91345
3.803	4.22974
3.8035	7.25098
3.804	5.63965
3.8045	5.94177
3.805	5.74036
3.8055	3.12195
3.806	4.33044
3.8065	9.46655
3.807	4.12903
3.8075	2.21558
3.808	8.25806
3.8085	8.7616
3.809	9.16443
3.8095	12.78992
3.81	9.46655
3.8105	7.5531
3.811	8.15735
3.8115	14.30054
3.812	15.1062
3.8125	12.08496
3.813	4.83398
3.8135	3.52478
3.814	8.7616
3.8145	1.71204
3.815	0.70496
3.8155	3.7262
3.816	5.74036
3.8165	4.73328
3.817	3.8269
3.8175	4.22974
3.818	4.22974
3.8185	0.90637
3.819	-1.10779
3.8195	-2.11487
3.82	1.40991
3.8205	-2.21558
3.821	4.43115
3.8215	2.11487
3.822	3.52478
3.8225	7.5531
3.823	2.41699
3.8235	4.33044
3.824	5.84106
3.8245	9.56726
3.825	9.66797
3.8255	5.53894
3.826	5.0354
3.8265	5.33752
3.827	-0.40283
3.8275	3.92761
3.828	-0.60425
3.8285	-6.44531
3.829	2.11487
3.8295	0.10071
3.83	5.43823
3.8305	6.44531
3.831	3.42407
3.8315	7.75452
3.832	1.51062
3.8325	3.92761
3.833	4.53186
3.8335	8.7616
3.834	8.25806
3.8345	4.12903
3.835	5.84106
3.8355	8.35876
3.836	12.89062
3.8365	9.66797
3.837	7.15027
3.8375	3.12195
3.838	5.13611
3.8385	5.63965
3.839	9.06372
3.8395	8.8623
3.84	2.61841
3.8405	5.43823
3.841	6.44531
3.8415	11.07788
3.842	8.66089
3.8425	10.67505
3.843	16.91895
3.8435	11.58142
3.844	7.35168
3.8445	7.95593
3.845	8.7616
3.8455	10.27222
3.846	7.65381
3.8465	7.25098
3.847	11.78284
3.8475	5.94177
3.848	3.02124
3.8485	10.17151
3.849	3.62549
3.8495	8.15735
3.85	3.92761
3.8505	8.56018
3.851	2.92053
3.8515	7.04956
3.852	1.81274
3.8525	-1.91345
3.853	-2.61841
3.8535	2.11487
3.854	2.21558
3.8545	5.0354
3.855	2.31628
3.8555	3.22266
3.856	-0.70496
3.8565	4.22974
3.857	4.43115
3.8575	6.84814
3.858	2.81982
3.8585	3.52478
3.859	6.3446
3.8595	2.31628
3.86	3.62549
3.8605	4.33044
3.861	2.21558
3.8615	2.81982
3.862	10.0708
3.8625	8.8623
3.863	7.15027
3.8635	11.68213
3.864	15.20691
3.8645	19.03381
3.865	21.14868
3.8655	21.75293
3.866	19.63806
3.8665	23.8678
3.867	24.16992
3.8675	16.3147
3.868	16.41541
3.8685	13.69629
3.869	13.89771
3.8695	14.30054
3.87	11.17859
3.8705	4.33044
3.871	2.11487
3.8715	-3.52478
3.872	-10.67505
3.8725	-7.5531
3.873	-9.06372
3.8735	-7.65381
3.874	-7.65381
3.8745	-7.35168
3.875	-4.83398
3.8755	8.45947
3.876	11.68213
3.8765	19.13452
3.877	20.94727
3.8775	29.20532
3.878	28.60107
3.8785	20.04089
3.879	12.89062
3.8795	4.93469
3.88	-5.94177
3.8805	-14.60266
3.881	-13.29346
3.8815	-11.48071
3.882	-5.94177
3.8825	-7.5531
3.883	-7.25098
3.8835	-2.5177
3.884	3.22266
3.8845	12.28638
3.885	11.98425
3.8855	4.63257
3.886	4.43115
3.8865	8.96301
3.887	10.57434
3.8875	11.98425
3.888	8.66089
3.8885	12.99133
3.889	11.2793
3.8895	12.89062
3.89	8.15735
3.8905	8.35876
3.891	3.02124
3.8915	-0.90637
3.892	-7.75452
3.8925	-9.56726
3.893	-5.43823
3.8935	-2.92053
3.894	1.81274
3.8945	-0.80566
3.895	9.16443
3.8955	12.08496
3.896	10.17151
3.8965	7.85522
3.897	6.74744
3.8975	7.15027
3.898	4.83398
3.8985	6.3446
3.899	3.02124
3.8995	4.33044
3.9	3.02124
3.9005	7.35168
3.901	13.59558
3.9015	5.74036
3.902	3.02124
3.9025	8.45947
3.903	10.87646
3.9035	5.33752
3.904	2.01416
3.9045	5.13611
3.905	8.05664
3.9055	5.13611
3.906	4.73328
3.9065	6.3446
3.907	4.33044
3.9075	5.23682
3.908	9.97009
3.9085	4.22974
3.909	0.70496
3.9095	6.84814
3.91	6.94885
3.9105	4.93469
3.911	6.2439
3.9115	6.74744
3.912	7.35168
3.9125	3.62549
3.913	4.22974
3.9135	5.33752
3.914	12.28638
3.9145	7.15027
3.915	11.68213
3.9155	6.3446
3.916	5.94177
3.9165	3.8269
3.917	4.73328
3.9175	8.25806
3.918	6.2439
3.9185	9.86938
3.919	6.2439
3.9195	8.05664
3.92	0.70496
3.9205	-1.2085
3.921	0.90637
3.9215	8.96301
3.922	8.15735
3.9225	8.56018
3.923	7.95593
3.9235	7.5531
3.924	9.26514
3.9245	10.27222
3.925	10.47363
3.9255	8.05664
3.926	18.02673
3.9265	19.94019
3.927	13.29346
3.9275	17.52319
3.928	14.50195
3.9285	11.88354
3.929	12.48779
3.9295	16.01257
3.93	16.91895
3.9305	16.21399
3.931	13.19275
3.9315	13.29346
3.932	16.11328
3.9325	13.59558
3.933	13.797
3.9335	12.68921
3.934	11.88354
3.9345	11.38
3.935	9.56726
3.9355	4.93469
3.936	1.61133
3.9365	-9.46655
3.937	-4.63257
3.9375	-8.66089
3.938	-12.78992
