Christian_Larivera_Right_2.c3d  



Time(s):	B_R_bicipite(μV):
0	8.05664
0.0005	8.05664
0.001	3.92761
0.0015	7.85522
0.002	3.8269
0.0025	5.43823
0.003	3.8269
0.0035	6.94885
0.004	4.22974
0.0045	12.18567
0.005	16.71753
0.0055	19.33594
0.006	20.34302
0.0065	18.42957
0.007	16.71753
0.0075	10.97717
0.008	4.83398
0.0085	3.12195
0.009	2.01416
0.0095	1.61133
0.01	-10.37292
0.0105	-5.63965
0.011	-2.92053
0.0115	-2.92053
0.012	0
0.0125	-1.00708
0.013	-2.21558
0.0135	-0.30212
0.014	-10.97717
0.0145	-11.17859
0.015	-5.74036
0.0155	-3.62549
0.016	0.90637
0.0165	-1.2085
0.017	0.60425
0.0175	-3.52478
0.018	-1.3092
0.0185	10.27222
0.019	6.84814
0.0195	1.91345
0.02	3.8269
0.0205	0.50354
0.021	-1.00708
0.0215	2.71912
0.022	-5.43823
0.0225	-2.21558
0.023	-3.8269
0.0235	-6.94885
0.024	-4.53186
0.0245	1.2085
0.025	3.8269
0.0255	15.30762
0.026	14.90479
0.0265	16.41541
0.027	20.44373
0.0275	13.69629
0.028	11.98425
0.0285	8.7616
0.029	5.23682
0.0295	-1.91345
0.03	1.81274
0.0305	2.21558
0.031	2.31628
0.0315	2.5177
0.032	-3.02124
0.0325	3.22266
0.033	6.74744
0.0335	7.5531
0.034	8.05664
0.0345	16.01257
0.035	12.78992
0.0355	13.09204
0.036	13.29346
0.0365	13.59558
0.037	10.67505
0.0375	4.43115
0.038	10.87646
0.0385	4.02832
0.039	2.31628
0.0395	4.73328
0.04	6.94885
0.0405	4.63257
0.041	6.54602
0.0415	7.75452
0.042	6.2439
0.0425	4.33044
0.043	-0.30212
0.0435	5.53894
0.044	2.92053
0.0445	-1.10779
0.045	-1.2085
0.0455	3.7262
0.046	3.42407
0.0465	4.33044
0.047	2.21558
0.0475	4.12903
0.048	8.96301
0.0485	11.17859
0.049	10.37292
0.0495	4.93469
0.05	13.69629
0.0505	13.39417
0.051	12.89062
0.0515	13.29346
0.052	16.41541
0.0525	20.74585
0.053	22.96143
0.0535	26.18408
0.054	20.64514
0.0545	25.68054
0.055	18.93311
0.0555	22.86072
0.056	26.18408
0.0565	22.6593
0.057	13.09204
0.0575	10.67505
0.058	4.73328
0.0585	9.36584
0.059	-1.71204
0.0595	-2.21558
0.06	-6.64673
0.0605	-7.25098
0.061	0.10071
0.0615	3.8269
0.062	3.02124
0.0625	-2.21558
0.063	2.21558
0.0635	2.5177
0.064	4.02832
0.0645	1.91345
0.065	5.43823
0.0655	1.91345
0.066	0.60425
0.0665	0
0.067	1.71204
0.0675	0.20142
0.068	5.53894
0.0685	4.53186
0.069	5.94177
0.0695	5.33752
0.07	4.53186
0.0705	-1.00708
0.071	2.92053
0.0715	3.02124
0.072	7.04956
0.0725	8.7616
0.073	3.7262
0.0735	5.74036
0.074	5.23682
0.0745	2.71912
0.075	-2.41699
0.0755	-0.40283
0.076	0.60425
0.0765	5.13611
0.077	1.81274
0.0775	-0.40283
0.078	-3.32336
0.0785	-8.66089
0.079	-5.53894
0.0795	-4.73328
0.08	0.30212
0.0805	10.57434
0.081	4.53186
0.0815	9.26514
0.082	11.07788
0.0825	13.09204
0.083	12.89062
0.0835	12.28638
0.084	12.38708
0.0845	11.2793
0.085	13.99841
0.0855	13.09204
0.086	5.84106
0.0865	6.3446
0.087	10.27222
0.0875	5.0354
0.088	2.01416
0.0885	3.42407
0.089	0.80566
0.0895	2.21558
0.09	-2.21558
0.0905	-0.60425
0.091	4.43115
0.0915	3.22266
0.092	7.15027
0.0925	5.23682
0.093	4.22974
0.0935	5.84106
0.094	12.78992
0.0945	7.85522
0.095	9.06372
0.0955	5.53894
0.096	11.68213
0.0965	15.50903
0.097	16.51611
0.0975	16.91895
0.098	19.33594
0.0985	13.797
0.099	13.09204
0.0995	15.71045
0.1	12.18567
0.1005	17.42249
0.101	15.71045
0.1015	11.68213
0.102	5.63965
0.1025	6.04248
0.103	2.31628
0.1035	-2.5177
0.104	-4.53186
0.1045	-4.83398
0.105	-5.84106
0.1055	-2.81982
0.106	-2.41699
0.1065	-5.53894
0.107	-2.61841
0.1075	3.02124
0.108	5.84106
0.1085	5.43823
0.109	11.07788
0.1095	5.0354
0.11	4.22974
0.1105	4.02832
0.111	6.84814
0.1115	2.5177
0.112	4.53186
0.1125	4.83398
0.113	3.52478
0.1135	0.30212
0.114	-0.10071
0.1145	-5.23682
0.115	-6.3446
0.1155	-2.71912
0.116	1.00708
0.1165	-2.71912
0.117	0.70496
0.1175	4.43115
0.118	13.19275
0.1185	12.18567
0.119	20.84656
0.1195	19.43665
0.12	17.82532
0.1205	11.68213
0.121	6.2439
0.1215	-2.01416
0.122	-5.63965
0.1225	-5.13611
0.123	-9.16443
0.1235	-7.04956
0.124	2.21558
0.1245	1.2085
0.125	-0.90637
0.1255	3.32336
0.126	0.60425
0.1265	6.84814
0.127	9.56726
0.1275	7.04956
0.128	10.17151
0.1285	10.87646
0.129	8.8623
0.1295	8.8623
0.13	9.16443
0.1305	3.52478
0.131	2.81982
0.1315	1.3092
0.132	-6.3446
0.1325	-2.21558
0.133	-3.7262
0.1335	-1.91345
0.134	-5.53894
0.1345	1.71204
0.135	4.33044
0.1355	11.2793
0.136	8.15735
0.1365	4.43115
0.137	2.11487
0.1375	-1.51062
0.138	-8.96301
0.1385	-3.42407
0.139	3.7262
0.1395	0.30212
0.14	3.62549
0.1405	2.92053
0.141	2.31628
0.1415	8.96301
0.142	2.92053
0.1425	10.67505
0.143	13.797
0.1435	13.09204
0.144	7.75452
0.1445	1.00708
0.145	3.02124
0.1455	5.13611
0.146	6.64673
0.1465	6.94885
0.147	6.04248
0.1475	-0.20142
0.148	2.92053
0.1485	-2.21558
0.149	0.10071
0.1495	3.32336
0.15	-3.22266
0.1505	1.81274
0.151	4.43115
0.1515	3.8269
0.152	5.23682
0.1525	6.2439
0.153	9.86938
0.1535	4.53186
0.154	7.25098
0.1545	3.92761
0.155	-3.7262
0.1555	1.2085
0.156	-4.73328
0.1565	-5.23682
0.157	-4.12903
0.1575	-2.41699
0.158	2.01416
0.1585	3.62549
0.159	2.61841
0.1595	3.02124
0.16	9.16443
0.1605	6.04248
0.161	1.00708
0.1615	-0.90637
0.162	0.80566
0.1625	3.12195
0.163	8.45947
0.1635	6.64673
0.164	8.25806
0.1645	4.02832
0.165	9.36584
0.1655	10.37292
0.166	10.97717
0.1665	4.22974
0.167	2.11487
0.1675	-5.84106
0.168	-3.42407
0.1685	-2.92053
0.169	-2.21558
0.1695	-1.40991
0.17	-6.14319
0.1705	-4.12903
0.171	-2.71912
0.1715	2.31628
0.172	6.94885
0.1725	11.2793
0.173	12.5885
0.1735	12.99133
0.174	24.67346
0.1745	27.6947
0.175	24.27063
0.1755	20.54443
0.176	27.39258
0.1765	24.06921
0.177	19.63806
0.1775	13.797
0.178	7.5531
0.1785	-0.90637
0.179	1.91345
0.1795	-3.62549
0.18	-0.60425
0.1805	-0.80566
0.181	5.13611
0.1815	9.97009
0.182	10.57434
0.1825	11.2793
0.183	7.65381
0.1835	8.05664
0.184	8.66089
0.1845	10.27222
0.185	12.48779
0.1855	11.07788
0.186	9.36584
0.1865	5.33752
0.187	6.2439
0.1875	11.2793
0.188	14.19983
0.1885	3.8269
0.189	6.94885
0.1895	-0.30212
0.19	-0.70496
0.1905	0.50354
0.191	3.8269
0.1915	1.40991
0.192	5.43823
0.1925	1.3092
0.193	-0.90637
0.1935	-1.10779
0.194	-4.22974
0.1945	-0.80566
0.195	-5.84106
0.1955	2.01416
0.196	4.73328
0.1965	5.0354
0.197	-1.00708
0.1975	-0.80566
0.198	10.17151
0.1985	-1.00708
0.199	1.2085
0.1995	8.56018
0.2	7.95593
0.2005	3.7262
0.201	8.35876
0.2015	7.65381
0.202	8.35876
0.2025	10.27222
0.203	12.78992
0.2035	14.30054
0.204	14.90479
0.2045	13.69629
0.205	9.76868
0.2055	8.8623
0.206	9.56726
0.2065	9.76868
0.207	11.98425
0.2075	7.95593
0.208	2.11487
0.2085	2.11487
0.209	-1.51062
0.2095	0
0.21	-3.02124
0.2105	5.94177
0.211	3.52478
0.2115	-0.30212
0.212	4.43115
0.2125	1.00708
0.213	-3.22266
0.2135	-2.11487
0.214	-1.00708
0.2145	-0.60425
0.215	1.00708
0.2155	4.22974
0.216	-1.3092
0.2165	0.90637
0.217	8.15735
0.2175	7.15027
0.218	7.25098
0.2185	10.0708
0.219	12.18567
0.2195	20.54443
0.22	18.63098
0.2205	16.01257
0.221	16.11328
0.2215	12.78992
0.222	20.1416
0.2225	15.20691
0.223	18.53027
0.2235	10.47363
0.224	10.27222
0.2245	4.93469
0.225	5.33752
0.2255	7.85522
0.226	4.83398
0.2265	4.22974
0.227	0
0.2275	6.84814
0.228	8.45947
0.2285	8.96301
0.229	9.56726
0.2295	12.99133
0.23	8.25806
0.2305	8.15735
0.231	7.85522
0.2315	3.7262
0.232	2.31628
0.2325	-5.84106
0.233	-7.75452
0.2335	-13.29346
0.234	-5.0354
0.2345	-4.02832
0.235	-1.51062
0.2355	-8.8623
0.236	-1.10779
0.2365	-2.01416
0.237	-2.41699
0.2375	-2.61841
0.238	1.40991
0.2385	3.02124
0.239	2.31628
0.2395	-2.31628
0.24	-0.60425
0.2405	-3.22266
0.241	-1.81274
0.2415	3.8269
0.242	11.17859
0.2425	14.70337
0.243	5.94177
0.2435	14.19983
0.244	13.99841
0.2445	21.04797
0.245	19.83948
0.2455	23.8678
0.246	21.55151
0.2465	20.34302
0.247	17.12036
0.2475	9.66797
0.248	8.96301
0.2485	5.0354
0.249	-2.92053
0.2495	-7.45239
0.25	-12.08496
0.2505	-16.21399
0.251	-12.28638
0.2515	-7.15027
0.252	-6.64673
0.2525	-1.40991
0.253	-7.04956
0.2535	-5.94177
0.254	-4.53186
0.2545	-0.20142
0.255	-0.60425
0.2555	8.96301
0.256	6.54602
0.2565	7.65381
0.257	0.70496
0.2575	1.51062
0.258	4.73328
0.2585	8.56018
0.259	11.68213
0.2595	13.59558
0.26	14.50195
0.2605	10.97717
0.261	17.01965
0.2615	13.39417
0.262	7.95593
0.2625	7.65381
0.263	8.05664
0.2635	9.97009
0.264	9.16443
0.2645	1.71204
0.265	-3.32336
0.2655	-1.00708
0.266	-7.95593
0.2665	-11.2793
0.267	-6.74744
0.2675	-6.44531
0.268	-5.94177
0.2685	-1.10779
0.269	-2.81982
0.2695	-0.60425
0.27	-1.00708
0.2705	0.70496
0.271	4.43115
0.2715	7.15027
0.272	7.85522
0.2725	6.84814
0.273	9.36584
0.2735	9.97009
0.274	11.78284
0.2745	5.0354
0.275	5.84106
0.2755	6.94885
0.276	5.23682
0.2765	7.65381
0.277	10.0708
0.2775	8.15735
0.278	11.88354
0.2785	14.19983
0.279	14.90479
0.2795	10.47363
0.28	15.91187
0.2805	15.00549
0.281	9.66797
0.2815	10.97717
0.282	9.16443
0.2825	4.43115
0.283	2.11487
0.2835	-8.45947
0.284	-6.94885
0.2845	-10.87646
0.285	-10.37292
0.2855	-11.38
0.286	-16.01257
0.2865	-15.00549
0.287	-13.09204
0.2875	-8.96301
0.288	-2.71912
0.2885	-6.54602
0.289	-3.12195
0.2895	1.10779
0.29	3.22266
0.2905	2.5177
0.291	10.77576
0.2915	7.95593
0.292	12.99133
0.2925	11.68213
0.293	12.08496
0.2935	15.40833
0.294	12.68921
0.2945	10.77576
0.295	10.87646
0.2955	8.66089
0.296	7.85522
0.2965	5.23682
0.297	-2.21558
0.2975	5.33752
0.298	-0.40283
0.2985	2.92053
0.299	-0.60425
0.2995	-4.73328
0.3	2.71912
0.3005	-1.40991
0.301	-1.91345
0.3015	-2.41699
0.302	-1.61133
0.3025	0.10071
0.303	-1.51062
0.3035	1.2085
0.304	-4.02832
0.3045	-5.43823
0.305	4.12903
0.3055	3.32336
0.306	8.25806
0.3065	7.45239
0.307	9.76868
0.3075	12.68921
0.308	8.45947
0.3085	5.33752
0.309	9.97009
0.3095	11.38
0.31	4.12903
0.3105	7.5531
0.311	-1.10779
0.3115	3.32336
0.312	3.8269
0.3125	-1.81274
0.313	1.61133
0.3135	1.2085
0.314	7.25098
0.3145	8.8623
0.315	8.25806
0.3155	13.19275
0.316	16.61682
0.3165	10.97717
0.317	11.17859
0.3175	11.68213
0.318	8.05664
0.3185	6.64673
0.319	2.31628
0.3195	6.14319
0.32	4.53186
0.3205	7.5531
0.321	-0.30212
0.3215	-9.46655
0.322	-6.64673
0.3225	-3.62549
0.323	-5.13611
0.3235	-7.75452
0.324	-6.64673
0.3245	-4.83398
0.325	1.2085
0.3255	9.46655
0.326	5.84106
0.3265	7.45239
0.327	-0.40283
0.3275	5.33752
0.328	6.94885
0.3285	10.27222
0.329	7.5531
0.3295	6.2439
0.33	9.06372
0.3305	8.15735
0.331	1.40991
0.3315	-2.71912
0.332	2.61841
0.3325	-2.31628
0.333	-10.37292
0.3335	-2.61841
0.334	-4.22974
0.3345	2.31628
0.335	1.51062
0.3355	11.78284
0.336	9.86938
0.3365	12.08496
0.337	12.48779
0.3375	12.48779
0.338	11.38
0.3385	8.7616
0.339	8.56018
0.3395	6.2439
0.34	9.36584
0.3405	4.83398
0.341	2.21558
0.3415	-4.12903
0.342	-6.94885
0.3425	0.90637
0.343	1.61133
0.3435	-0.80566
0.344	7.45239
0.3445	1.81274
0.345	3.52478
0.3455	0
0.346	2.61841
0.3465	5.33752
0.347	2.92053
0.3475	5.84106
0.348	6.3446
0.3485	6.64673
0.349	6.44531
0.3495	11.07788
0.35	5.53894
0.3505	4.33044
0.351	3.52478
0.3515	-1.40991
0.352	-0.10071
0.3525	-2.21558
0.353	-3.42407
0.3535	4.83398
0.354	1.10779
0.3545	4.22974
0.355	3.02124
0.3555	3.32336
0.356	3.22266
0.3565	2.5177
0.357	2.71912
0.3575	-3.7262
0.358	1.40991
0.3585	-4.33044
0.359	-2.21558
0.3595	-3.52478
0.36	0.30212
0.3605	8.35876
0.361	8.7616
0.3615	9.36584
0.362	6.14319
0.3625	10.47363
0.363	9.97009
0.3635	5.43823
0.364	1.81274
0.3645	4.53186
0.365	2.31628
0.3655	0.10071
0.366	1.91345
0.3665	1.91345
0.367	-2.92053
0.3675	-5.84106
0.368	-9.06372
0.3685	-9.16443
0.369	-7.85522
0.3695	-10.37292
0.37	-2.31628
0.3705	3.02124
0.371	1.2085
0.3715	5.23682
0.372	9.46655
0.3725	14.50195
0.373	13.69629
0.3735	20.44373
0.374	22.76001
0.3745	18.93311
0.375	22.6593
0.3755	9.56726
0.376	9.76868
0.3765	1.00708
0.377	-3.7262
0.3775	-6.2439
0.378	-4.53186
0.3785	-10.0708
0.379	-11.07788
0.3795	-7.65381
0.38	0.10071
0.3805	9.06372
0.381	7.25098
0.3815	15.00549
0.382	13.39417
0.3825	7.65381
0.383	4.93469
0.3835	5.94177
0.384	-2.71912
0.3845	4.83398
0.385	-3.42407
0.3855	-1.71204
0.386	-7.25098
0.3865	-5.43823
0.387	0
0.3875	-0.40283
0.388	-3.02124
0.3885	1.00708
0.389	5.84106
0.3895	1.61133
0.39	8.35876
0.3905	9.16443
0.391	12.38708
0.3915	11.17859
0.392	8.25806
0.3925	5.53894
0.393	5.63965
0.3935	4.93469
0.394	0.20142
0.3945	-3.12195
0.395	-8.25806
0.3955	-7.04956
0.396	-7.5531
0.3965	-6.44531
0.397	-5.0354
0.3975	-1.40991
0.398	-5.53894
0.3985	-4.83398
0.399	0.60425
0.3995	-2.31628
0.4	3.32336
0.4005	4.02832
0.401	7.75452
0.4015	0.50354
0.402	-0.30212
0.4025	-4.83398
0.403	1.51062
0.4035	7.95593
0.404	1.61133
0.4045	3.12195
0.405	9.16443
0.4055	7.45239
0.406	6.54602
0.4065	9.66797
0.407	7.5531
0.4075	6.94885
0.408	9.76868
0.4085	9.86938
0.409	7.04956
0.4095	6.94885
0.41	5.43823
0.4105	6.2439
0.411	5.53894
0.4115	7.95593
0.412	7.25098
0.4125	9.66797
0.413	11.17859
0.4135	6.94885
0.414	14.50195
0.4145	18.22815
0.415	10.0708
0.4155	9.56726
0.416	6.3446
0.4165	13.49487
0.417	14.30054
0.4175	11.38
0.418	11.78284
0.4185	9.97009
0.419	10.27222
0.4195	8.96301
0.42	-1.40991
0.4205	4.02832
0.421	4.22974
0.4215	4.73328
0.422	-1.10779
0.4225	-1.10779
0.423	-7.85522
0.4235	-2.92053
0.424	-3.42407
0.4245	2.31628
0.425	2.11487
0.4255	3.32336
0.426	3.92761
0.4265	3.7262
0.427	0.10071
0.4275	2.81982
0.428	0.50354
0.4285	4.43115
0.429	4.53186
0.4295	1.51062
0.43	0
0.4305	7.85522
0.431	7.5531
0.4315	8.7616
0.432	7.35168
0.4325	1.10779
0.433	3.42407
0.4335	4.63257
0.434	1.71204
0.4345	2.81982
0.435	-3.52478
0.4355	-1.51062
0.436	0.10071
0.4365	-0.10071
0.437	3.92761
0.4375	4.53186
0.438	0.40283
0.4385	-5.33752
0.439	-7.65381
0.4395	-6.14319
0.44	-3.92761
0.4405	-2.11487
0.441	-5.33752
0.4415	-1.00708
0.442	-1.2085
0.4425	-2.71912
0.443	0.60425
0.4435	-1.40991
0.444	3.32336
0.4445	4.33044
0.445	-1.10779
0.4455	1.51062
0.446	5.13611
0.4465	1.00708
0.447	-4.83398
0.4475	-5.43823
0.448	-6.44531
0.4485	-6.54602
0.449	-6.94885
0.4495	-10.17151
0.45	-8.7616
0.4505	-6.74744
0.451	-5.23682
0.4515	-1.81274
0.452	3.32336
0.4525	-1.91345
0.453	-0.90637
0.4535	2.41699
0.454	-1.81274
0.4545	2.31628
0.455	2.21558
0.4555	7.75452
0.456	5.33752
0.4565	7.35168
0.457	8.66089
0.4575	13.89771
0.458	21.85364
0.4585	16.21399
0.459	16.01257
0.4595	11.88354
0.46	17.01965
0.4605	20.44373
0.461	14.50195
0.4615	11.98425
0.462	3.7262
0.4625	5.23682
0.463	2.5177
0.4635	5.74036
0.464	-5.63965
0.4645	-10.67505
0.465	-6.74744
0.4655	-1.91345
0.466	-8.96301
0.4665	-2.11487
0.467	5.74036
0.4675	7.25098
0.468	12.48779
0.4685	9.76868
0.469	10.57434
0.4695	11.58142
0.47	12.68921
0.4705	13.29346
0.471	20.34302
0.4715	10.77576
0.472	11.78284
0.4725	7.45239
0.473	6.64673
0.4735	7.25098
0.474	11.68213
0.4745	3.7262
0.475	7.25098
0.4755	8.56018
0.476	8.15735
0.4765	14.50195
0.477	17.01965
0.4775	18.93311
0.478	15.40833
0.4785	13.59558
0.479	13.69629
0.4795	15.40833
0.48	11.48071
0.4805	15.30762
0.481	16.01257
0.4815	13.39417
0.482	5.23682
0.4825	7.65381
0.483	4.33044
0.4835	4.12903
0.484	11.48071
0.4845	3.52478
0.485	5.94177
0.4855	9.76868
0.486	10.37292
0.4865	9.56726
0.487	5.74036
0.4875	8.45947
0.488	9.36584
0.4885	6.3446
0.489	8.8623
0.4895	7.04956
0.49	3.32336
0.4905	3.22266
0.491	-1.00708
0.4915	0.50354
0.492	-0.60425
0.4925	-1.10779
0.493	-0.80566
0.4935	4.73328
0.494	6.84814
0.4945	7.5531
0.495	12.99133
0.4955	4.63257
0.496	16.81824
0.4965	16.21399
0.497	20.74585
0.4975	24.16992
0.498	22.15576
0.4985	13.99841
0.499	12.5885
0.4995	7.65381
0.5	1.10779
0.5005	-1.51062
0.501	1.71204
0.5015	2.5177
0.502	3.52478
0.5025	3.42407
0.503	6.64673
0.5035	-0.50354
0.504	-0.10071
0.5045	-0.50354
0.505	-2.11487
0.5055	-1.91345
0.506	4.22974
0.5065	1.81274
0.507	4.63257
0.5075	7.04956
0.508	12.38708
0.5085	13.29346
0.509	13.39417
0.5095	13.99841
0.51	14.30054
0.5105	11.98425
0.511	14.70337
0.5115	12.89062
0.512	13.99841
0.5125	12.18567
0.513	13.19275
0.5135	10.77576
0.514	14.50195
0.5145	15.00549
0.515	15.50903
0.5155	15.20691
0.516	24.57275
0.5165	23.16284
0.517	21.55151
0.5175	15.81116
0.518	11.2793
0.5185	9.36584
0.519	5.74036
0.5195	2.21558
0.52	1.71204
0.5205	5.94177
0.521	3.32336
0.5215	-6.84814
0.522	-0.40283
0.5225	-6.14319
0.523	-7.04956
0.5235	-1.3092
0.524	-0.30212
0.5245	-0.80566
0.525	-0.20142
0.5255	1.81274
0.526	8.8623
0.5265	13.59558
0.527	8.7616
0.5275	7.15027
0.528	13.59558
0.5285	13.69629
0.529	22.05505
0.5295	14.30054
0.53	16.41541
0.5305	6.2439
0.531	6.3446
0.5315	4.22974
0.532	3.02124
0.5325	0.90637
0.533	-2.71912
0.5335	-2.31628
0.534	-3.42407
0.5345	-0.70496
0.535	-11.68213
0.5355	-4.83398
0.536	-3.42407
0.5365	0.40283
0.537	0.80566
0.5375	2.21558
0.538	-2.61841
0.5385	6.04248
0.539	0.80566
0.5395	9.36584
0.54	4.22974
0.5405	10.27222
0.541	7.35168
0.5415	9.97009
0.542	1.81274
0.5425	3.62549
0.543	5.23682
0.5435	11.68213
0.544	21.24939
0.5445	21.95435
0.545	12.5885
0.5455	23.36426
0.546	18.12744
0.5465	17.82532
0.547	22.45789
0.5475	16.11328
0.548	10.77576
0.5485	9.76868
0.549	11.78284
0.5495	5.94177
0.55	-3.02124
0.5505	6.64673
0.551	2.81982
0.5515	4.22974
0.552	7.75452
0.5525	2.31628
0.553	7.04956
0.5535	12.68921
0.554	10.97717
0.5545	11.98425
0.555	19.03381
0.5555	14.30054
0.556	16.61682
0.5565	15.20691
0.557	12.68921
0.5575	16.01257
0.558	16.51611
0.5585	12.89062
0.559	10.0708
0.5595	2.41699
0.56	-0.30212
0.5605	-5.43823
0.561	-7.95593
0.5615	-10.67505
0.562	-16.41541
0.5625	-15.40833
0.563	-8.45947
0.5635	-11.68213
0.564	-9.97009
0.5645	-11.48071
0.565	-10.27222
0.5655	-8.45947
0.566	-1.00708
0.5665	3.8269
0.567	7.85522
0.5675	7.45239
0.568	15.50903
0.5685	13.29346
0.569	17.72461
0.5695	16.51611
0.57	20.74585
0.5705	14.19983
0.571	10.87646
0.5715	12.28638
0.572	14.50195
0.5725	15.60974
0.573	15.40833
0.5735	6.04248
0.574	3.8269
0.5745	0.50354
0.575	-4.22974
0.5755	-0.60425
0.576	5.63965
0.5765	5.63965
0.577	5.43823
0.5775	0.90637
0.578	3.22266
0.5785	0.20142
0.579	0.20142
0.5795	0.60425
0.58	-4.73328
0.5805	-11.68213
0.581	-10.47363
0.5815	-8.7616
0.582	-2.92053
0.5825	10.27222
0.583	9.46655
0.5835	11.68213
0.584	12.28638
0.5845	11.38
0.585	13.49487
0.5855	8.35876
0.586	10.0708
0.5865	6.3446
0.587	4.93469
0.5875	3.02124
0.588	5.43823
0.5885	2.21558
0.589	0.90637
0.5895	1.71204
0.59	-4.43115
0.5905	-12.28638
0.591	-13.797
0.5915	-6.64673
0.592	0.90637
0.5925	4.43115
0.593	-1.81274
0.5935	8.56018
0.594	12.08496
0.5945	8.96301
0.595	4.22974
0.5955	10.17151
0.596	7.25098
0.5965	7.85522
0.597	6.04248
0.5975	13.19275
0.598	6.94885
0.5985	3.7262
0.599	-1.00708
0.5995	5.33752
0.6	6.64673
0.6005	6.44531
0.601	8.45947
0.6015	11.17859
0.602	7.35168
0.6025	6.04248
0.603	12.28638
0.6035	14.50195
0.604	11.78284
0.6045	2.5177
0.605	4.43115
0.6055	-6.64673
0.606	-3.7262
0.6065	0
0.607	-1.00708
0.6075	3.22266
0.608	1.3092
0.6085	4.63257
0.609	1.71204
0.6095	4.83398
0.61	-0.10071
0.6105	-4.53186
0.611	-6.94885
0.6115	-1.81274
0.612	-7.25098
0.6125	-9.86938
0.613	-2.41699
0.6135	-4.53186
0.614	2.92053
0.6145	7.65381
0.615	12.99133
0.6155	24.67346
0.616	28.80249
0.6165	27.99683
0.617	24.67346
0.6175	26.88904
0.618	22.15576
0.6185	26.88904
0.619	19.73877
0.6195	11.58142
0.62	1.81274
0.6205	-0.60425
0.621	-5.74036
0.6215	-2.01416
0.622	-3.7262
0.6225	-1.40991
0.623	-5.23682
0.6235	-8.8623
0.624	-4.33044
0.6245	-5.94177
0.625	0
0.6255	-0.60425
0.626	2.81982
0.6265	1.3092
0.627	-2.92053
0.6275	-7.15027
0.628	-5.74036
0.6285	-8.8623
0.629	-17.32178
0.6295	-11.2793
0.63	-10.77576
0.6305	-28.80249
0.631	-39.47754
0.6315	-39.67896
0.632	-23.66638
0.6325	-24.57275
0.633	-25.177
0.6335	-30.31311
0.634	-16.41541
0.6345	-8.25806
0.635	8.56018
0.6355	10.17151
0.636	25.57983
0.6365	34.74426
0.637	36.65771
0.6375	34.94568
0.638	37.96692
0.6385	45.01648
0.639	49.14551
0.6395	42.8009
0.64	37.7655
0.6405	30.31311
0.641	18.8324
0.6415	15.60974
0.642	6.74744
0.6425	0.40283
0.643	0.60425
0.6435	2.41699
0.644	2.01416
0.6445	6.44531
0.645	13.59558
0.6455	16.61682
0.646	20.74585
0.6465	25.47913
0.647	26.28479
0.6475	27.99683
0.648	17.52319
0.6485	12.78992
0.649	9.46655
0.6495	5.53894
0.65	0.60425
0.6505	-3.62549
0.651	-12.78992
0.6515	-12.68921
0.652	-6.04248
0.6525	-9.46655
0.653	-5.33752
0.6535	-7.25098
0.654	-2.11487
0.6545	2.71912
0.655	-2.21558
0.6555	4.43115
0.656	6.3446
0.6565	4.12903
0.657	1.81274
0.6575	5.33752
0.658	1.00708
0.6585	-1.10779
0.659	-2.81982
0.6595	-1.00708
0.66	-2.11487
0.6605	-3.02124
0.661	-2.61841
0.6615	-2.31628
0.662	-6.04248
0.6625	-3.22266
0.663	1.71204
0.6635	1.81274
0.664	1.61133
0.6645	-5.74036
0.665	-1.81274
0.6655	1.61133
0.666	1.00708
0.6665	-1.2085
0.667	-3.62549
0.6675	2.92053
0.668	-2.81982
0.6685	-7.15027
0.669	-3.02124
0.6695	-2.31628
0.67	-5.0354
0.6705	-5.43823
0.671	-4.73328
0.6715	-1.00708
0.672	1.3092
0.6725	6.84814
0.673	0
0.6735	2.41699
0.674	0
0.6745	0.60425
0.675	7.85522
0.6755	4.83398
0.676	6.74744
0.6765	7.65381
0.677	11.98425
0.6775	15.1062
0.678	10.47363
0.6785	11.98425
0.679	9.86938
0.6795	-2.5177
0.68	-4.22974
0.6805	4.22974
0.681	-4.12903
0.6815	-8.56018
0.682	-6.04248
0.6825	-14.40125
0.683	-13.29346
0.6835	-10.87646
0.684	-3.7262
0.6845	3.42407
0.685	4.73328
0.6855	4.53186
0.686	8.96301
0.6865	13.69629
0.687	15.91187
0.6875	15.20691
0.688	11.07788
0.6885	6.74744
0.689	9.76868
0.6895	2.81982
0.69	-1.00708
0.6905	-8.45947
0.691	-2.71912
0.6915	-9.66797
0.692	-10.27222
0.6925	1.00708
0.693	-3.42407
0.6935	-4.63257
0.694	4.22974
0.6945	8.45947
0.695	7.45239
0.6955	7.5531
0.696	4.43115
0.6965	2.71912
0.697	1.3092
0.6975	2.92053
0.698	0.10071
0.6985	-1.00708
0.699	-0.10071
0.6995	2.92053
0.7	3.7262
0.7005	9.97009
0.701	15.20691
0.7015	10.37292
0.702	15.30762
0.7025	18.53027
0.703	12.89062
0.7035	18.12744
0.704	17.6239
0.7045	12.89062
0.705	14.19983
0.7055	0
0.706	-2.5177
0.7065	-2.92053
0.707	0
0.7075	-4.22974
0.708	-2.92053
0.7085	-9.46655
0.709	-9.06372
0.7095	-6.14319
0.71	-0.80566
0.7105	4.33044
0.711	5.63965
0.7115	6.54602
0.712	7.75452
0.7125	8.96301
0.713	5.23682
0.7135	2.61841
0.714	2.92053
0.7145	0
0.715	-3.02124
0.7155	-1.71204
0.716	2.11487
0.7165	7.5531
0.717	2.21558
0.7175	4.33044
0.718	12.99133
0.7185	11.68213
0.719	9.46655
0.7195	12.68921
0.72	9.97009
0.7205	8.8623
0.721	9.97009
0.7215	10.87646
0.722	5.63965
0.7225	-1.40991
0.723	-1.2085
0.7235	-2.41699
0.724	-7.35168
0.7245	-5.33752
0.725	-5.94177
0.7255	-8.25806
0.726	-5.53894
0.7265	-13.89771
0.727	-9.66797
0.7275	-3.22266
0.728	3.32336
0.7285	4.83398
0.729	15.00549
0.7295	15.30762
0.73	16.81824
0.7305	20.1416
0.731	15.81116
0.7315	19.03381
0.732	16.51611
0.7325	22.15576
0.733	17.52319
0.7335	10.57434
0.734	6.74744
0.7345	6.3446
0.735	7.85522
0.7355	10.97717
0.736	11.07788
0.7365	9.26514
0.737	5.0354
0.7375	5.33752
0.738	4.73328
0.7385	5.84106
0.739	4.43115
0.7395	2.71912
0.74	1.2085
0.7405	7.04956
0.741	11.78284
0.7415	7.25098
0.742	6.74744
0.7425	6.44531
0.743	8.66089
0.7435	14.09912
0.744	9.06372
0.7445	11.48071
0.745	6.94885
0.7455	-2.31628
0.746	-0.20142
0.7465	2.92053
0.747	-1.61133
0.7475	0.70496
0.748	-6.3446
0.7485	-7.95593
0.749	-6.44531
0.7495	-4.73328
0.75	-1.61133
0.7505	-1.61133
0.751	-2.01416
0.7515	2.31628
0.752	0.60425
0.7525	2.61841
0.753	-0.50354
0.7535	5.33752
0.754	12.48779
0.7545	19.63806
0.755	21.95435
0.7555	27.39258
0.756	24.87488
0.7565	23.36426
0.757	26.78833
0.7575	25.88196
0.758	23.8678
0.7585	25.47913
0.759	25.177
0.7595	23.96851
0.76	8.7616
0.7605	4.22974
0.761	1.2085
0.7615	0.50354
0.762	0.10071
0.7625	-0.60425
0.763	3.12195
0.7635	-5.74036
0.764	4.02832
0.7645	3.8269
0.765	3.02124
0.7655	9.46655
0.766	15.00549
0.7665	16.3147
0.767	10.27222
0.7675	9.36584
0.768	6.04248
0.7685	6.94885
0.769	-0.40283
0.7695	3.32336
0.77	1.91345
0.7705	9.46655
0.771	7.35168
0.7715	2.31628
0.772	7.35168
0.7725	4.02832
0.773	-8.25806
0.7735	-18.53027
0.774	-21.24939
0.7745	-22.35718
0.775	-19.43665
0.7755	-13.19275
0.776	-14.09912
0.7765	-9.36584
0.777	3.8269
0.7775	14.50195
0.778	12.38708
0.7785	18.63098
0.779	32.02515
0.7795	28.9032
0.78	33.73718
0.7805	29.60815
0.781	26.3855
0.7815	21.75293
0.782	32.02515
0.7825	24.77417
0.783	21.3501
0.7835	14.40125
0.784	13.09204
0.7845	5.84106
0.785	7.5531
0.7855	1.10779
0.786	-3.8269
0.7865	2.21558
0.787	2.31628
0.7875	0.40283
0.788	-0.60425
0.7885	4.83398
0.789	5.84106
0.7895	9.36584
0.79	4.53186
0.7905	3.7262
0.791	-2.41699
0.7915	1.3092
0.792	-1.10779
0.7925	-8.7616
0.793	-6.74744
0.7935	-8.45947
0.794	-4.22974
0.7945	-5.84106
0.795	0
0.7955	1.91345
0.796	0.20142
0.7965	5.23682
0.797	2.81982
0.7975	5.53894
0.798	3.7262
0.7985	1.00708
0.799	-7.95593
0.7995	-5.94177
0.8	-4.33044
0.8005	0.60425
0.801	0.40283
0.8015	4.43115
0.802	1.51062
0.8025	0.30212
0.803	5.53894
0.8035	8.15735
0.804	7.85522
0.8045	7.95593
0.805	13.19275
0.8055	9.36584
0.806	7.45239
0.8065	5.13611
0.807	9.26514
0.8075	7.65381
0.808	4.63257
0.8085	8.15735
0.809	-1.10779
0.8095	3.32336
0.81	1.61133
0.8105	-5.63965
0.811	-2.01416
0.8115	-1.40991
0.812	1.3092
0.8125	0.40283
0.813	-1.40991
0.8135	-1.3092
0.814	-2.01416
0.8145	-1.40991
0.815	-8.15735
0.8155	-7.15027
0.816	-9.66797
0.8165	-12.08496
0.817	-12.78992
0.8175	-11.68213
0.818	-10.17151
0.8185	-3.52478
0.819	-3.52478
0.8195	-2.21558
0.82	3.52478
0.8205	3.7262
0.821	5.43823
0.8215	7.75452
0.822	13.19275
0.8225	15.00549
0.823	20.44373
0.8235	18.8324
0.824	27.09045
0.8245	24.67346
0.825	18.32886
0.8255	6.84814
0.826	1.00708
0.8265	-8.66089
0.827	-7.15027
0.8275	-10.17151
0.828	-5.13611
0.8285	0.80566
0.829	7.04956
0.8295	9.76868
0.83	5.23682
0.8305	0.20142
0.831	1.2085
0.8315	5.23682
0.832	-0.80566
0.8325	-5.23682
0.833	-0.90637
0.8335	0.50354
0.834	-9.66797
0.8345	-5.84106
0.835	-5.63965
0.8355	-3.42407
0.836	-4.22974
0.8365	-9.86938
0.837	-7.45239
0.8375	-4.02832
0.838	-8.05664
0.8385	-0.40283
0.839	-1.91345
0.8395	11.17859
0.84	4.53186
0.8405	0.30212
0.841	3.62549
0.8415	1.71204
0.842	5.13611
0.8425	3.62549
0.843	5.33752
0.8435	5.63965
0.844	4.93469
0.8445	9.66797
0.845	5.13611
0.8455	6.74744
0.846	10.27222
0.8465	9.86938
0.847	15.40833
0.8475	24.77417
0.848	35.54993
0.8485	36.95984
0.849	30.91736
0.8495	22.15576
0.85	24.57275
0.8505	14.40125
0.851	-1.91345
0.8515	0.30212
0.852	-0.60425
0.8525	0
0.853	-3.92761
0.8535	6.14319
0.854	6.3446
0.8545	8.8623
0.855	14.50195
0.8555	14.50195
0.856	22.25647
0.8565	25.78125
0.857	22.15576
0.8575	18.53027
0.858	9.16443
0.8585	7.75452
0.859	-6.44531
0.8595	-4.53186
0.86	2.31628
0.8605	6.64673
0.861	1.51062
0.8615	-1.61133
0.862	-5.43823
0.8625	-19.03381
0.863	-29.91028
0.8635	-37.46338
0.864	-31.32019
0.8645	-29.91028
0.865	-32.42798
0.8655	-29.20532
0.866	-18.93311
0.8665	-10.0708
0.867	-7.45239
0.8675	-7.5531
0.868	-6.74744
0.8685	4.63257
0.869	4.12903
0.8695	14.80408
0.87	16.51611
0.8705	24.37134
0.871	26.08337
0.8715	24.87488
0.872	13.09204
0.8725	10.77576
0.873	15.40833
0.8735	11.78284
0.874	6.2439
0.8745	11.98425
0.875	5.33752
0.8755	3.7262
0.876	-2.41699
0.8765	2.31628
0.877	-2.01416
0.8775	3.12195
0.878	12.68921
0.8785	22.6593
0.879	24.97559
0.8795	23.06213
0.88	8.25806
0.8805	-2.92053
0.881	0.90637
0.8815	0
0.882	2.71912
0.8825	5.63965
0.883	5.53894
0.8835	13.797
0.884	27.19116
0.8845	30.2124
0.885	29.80957
0.8855	27.19116
0.886	25.177
0.8865	19.63806
0.887	25.57983
0.8875	26.68762
0.888	19.43665
0.8885	13.69629
0.889	14.80408
0.8895	11.58142
0.89	10.47363
0.8905	8.56018
0.891	6.44531
0.8915	-3.02124
0.892	-1.40991
0.8925	-5.94177
0.893	-0.30212
0.8935	1.00708
0.894	3.92761
0.8945	8.05664
0.895	7.75452
0.8955	4.83398
0.896	3.22266
0.8965	4.53186
0.897	5.84106
0.8975	-1.3092
0.898	-5.53894
0.8985	-2.81982
0.899	-6.74744
0.8995	-6.44531
0.9	-9.56726
0.9005	-12.18567
0.901	-9.46655
0.9015	-10.37292
0.902	-10.47363
0.9025	-7.15027
0.903	-3.92761
0.9035	0.10071
0.904	7.25098
0.9045	14.30054
0.905	10.47363
0.9055	8.7616
0.906	-0.20142
0.9065	-4.73328
0.907	-5.94177
0.9075	-2.81982
0.908	2.21558
0.9085	1.40991
0.909	2.31628
0.9095	-7.15027
0.91	-5.13611
0.9105	-3.12195
0.911	0.20142
0.9115	-4.43115
0.912	-0.20142
0.9125	3.92761
0.913	7.5531
0.9135	11.98425
0.914	15.20691
0.9145	20.64514
0.915	21.3501
0.9155	19.94019
0.916	23.06213
0.9165	19.33594
0.917	17.6239
0.9175	16.21399
0.918	12.28638
0.9185	4.02832
0.919	7.25098
0.9195	7.5531
0.92	2.31628
0.9205	9.36584
0.921	4.33044
0.9215	7.15027
0.922	7.85522
0.9225	11.2793
0.923	13.99841
0.9235	7.45239
0.924	14.50195
0.9245	10.67505
0.925	10.57434
0.9255	10.77576
0.926	12.89062
0.9265	6.54602
0.927	9.46655
0.9275	0
0.928	6.3446
0.9285	5.63965
0.929	5.94177
0.9295	-5.53894
0.93	-6.54602
0.9305	-7.04956
0.931	-5.13611
0.9315	-4.63257
0.932	-3.32336
0.9325	-4.33044
0.933	1.10779
0.9335	0.50354
0.934	1.61133
0.9345	6.54602
0.935	7.95593
0.9355	4.22974
0.936	7.15027
0.9365	9.86938
0.937	2.41699
0.9375	9.26514
0.938	5.84106
0.9385	6.94885
0.939	2.01416
0.9395	2.11487
0.94	-0.80566
0.9405	-3.52478
0.941	-5.13611
0.9415	-2.21558
0.942	-7.65381
0.9425	-4.93469
0.943	-6.44531
0.9435	-5.33752
0.944	8.15735
0.9445	17.82532
0.945	16.11328
0.9455	9.16443
0.946	8.66089
0.9465	9.06372
0.947	21.04797
0.9475	22.05505
0.948	21.55151
0.9485	19.73877
0.949	18.8324
0.9495	13.69629
0.95	12.89062
0.9505	10.37292
0.951	5.84106
0.9515	4.53186
0.952	2.41699
0.9525	0.30212
0.953	1.40991
0.9535	-0.70496
0.954	-2.31628
0.9545	-3.02124
0.955	-3.8269
0.9555	-0.50354
0.956	0.30212
0.9565	5.94177
0.957	-1.51062
0.9575	0.80566
0.958	6.04248
0.9585	2.81982
0.959	4.83398
0.9595	-1.00708
0.96	-3.62549
0.9605	-2.71912
0.961	-2.41699
0.9615	-1.51062
0.962	-2.71912
0.9625	-0.50354
0.963	3.52478
0.9635	9.56726
0.964	5.43823
0.9645	3.22266
0.965	9.66797
0.9655	8.96301
0.966	12.99133
0.9665	19.03381
0.967	18.63098
0.9675	26.78833
0.968	24.06921
0.9685	21.24939
0.969	9.06372
0.9695	4.93469
0.97	5.43823
0.9705	7.85522
0.971	10.37292
0.9715	6.94885
0.972	4.63257
0.9725	9.86938
0.973	10.17151
0.9735	8.96301
0.974	9.76868
0.9745	17.01965
0.975	11.48071
0.9755	7.85522
0.976	13.89771
0.9765	13.59558
0.977	10.57434
0.9775	10.17151
0.978	3.62549
0.9785	-4.02832
0.979	-10.47363
0.9795	-14.09912
0.98	-13.49487
0.9805	-17.42249
0.981	-11.2793
0.9815	-27.39258
0.982	-42.29736
0.9825	-42.19666
0.983	-38.77258
0.9835	-41.59241
0.984	-31.11877
0.9845	-19.33594
0.985	-8.25806
0.9855	-2.21558
0.986	3.12195
0.9865	2.21558
0.987	-1.40991
0.9875	-0.10071
0.988	3.42407
0.9885	1.61133
0.989	2.71912
0.9895	14.30054
0.99	14.09912
0.9905	19.03381
0.991	12.68921
0.9915	12.28638
0.992	9.86938
0.9925	9.97009
0.993	8.45947
0.9935	9.06372
0.994	7.5531
0.9945	7.65381
0.995	4.22974
0.9955	4.63257
0.996	10.87646
0.9965	12.89062
0.997	23.06213
0.9975	13.19275
0.998	15.30762
0.9985	8.56018
0.999	-0.70496
0.9995	-1.71204
1	-5.13611
1.0005	-1.3092
1.001	3.62549
1.0015	5.23682
1.002	1.51062
1.0025	-0.50354
1.003	4.22974
1.0035	0.90637
1.004	-6.04248
1.0045	-2.61841
1.005	-1.61133
1.0055	11.2793
1.006	4.02832
1.0065	11.98425
1.007	9.56726
1.0075	10.87646
1.008	10.57434
1.0085	14.60266
1.009	11.88354
1.0095	14.09912
1.01	12.5885
1.0105	13.49487
1.011	6.14319
1.0115	9.36584
1.012	13.19275
1.0125	13.19275
1.013	15.71045
1.0135	16.61682
1.014	17.82532
1.0145	27.29187
1.015	30.91736
1.0155	26.58691
1.016	26.98975
1.0165	27.99683
1.017	24.77417
1.0175	26.18408
1.018	27.29187
1.0185	19.03381
1.019	7.75452
1.0195	8.56018
1.02	-2.01416
1.0205	2.21558
1.021	6.64673
1.0215	-1.00708
1.022	0.10071
1.0225	-0.80566
1.023	5.84106
1.0235	6.64673
1.024	10.97717
1.0245	14.40125
1.025	13.69629
1.0255	5.74036
1.026	4.53186
1.0265	3.02124
1.027	9.26514
1.0275	5.94177
1.028	13.39417
1.0285	10.37292
1.029	8.35876
1.0295	6.14319
1.03	8.56018
1.0305	6.14319
1.031	1.91345
1.0315	5.0354
1.032	-2.31628
1.0325	0.60425
1.033	-3.22266
1.0335	-3.92761
1.034	1.81274
1.0345	3.12195
1.035	0.90637
1.0355	-5.0354
1.036	0.10071
1.0365	-2.92053
1.037	-4.53186
1.0375	-3.7262
1.038	6.14319
1.0385	7.45239
1.039	9.76868
1.0395	11.48071
1.04	14.80408
1.0405	17.82532
1.041	24.57275
1.0415	31.62231
1.042	24.37134
1.0425	17.72461
1.043	14.30054
1.0435	11.2793
1.044	5.43823
1.0445	8.25806
1.045	-1.61133
1.0455	0.60425
1.046	5.94177
1.0465	6.94885
1.047	18.02673
1.0475	22.25647
1.048	14.09912
1.0485	4.73328
1.049	-1.61133
1.0495	-0.90637
1.05	0.30212
1.0505	-1.51062
1.051	-7.45239
1.0515	2.31628
1.052	3.32336
1.0525	8.7616
1.053	18.12744
1.0535	17.12036
1.054	19.94019
1.0545	20.84656
1.055	20.44373
1.0555	16.81824
1.056	15.81116
1.0565	8.45947
1.057	1.3092
1.0575	-0.70496
1.058	2.5177
1.0585	-4.53186
1.059	0.20142
1.0595	1.00708
1.06	-6.84814
1.0605	-5.0354
1.061	-5.43823
1.0615	1.00708
1.062	2.31628
1.0625	2.71912
1.063	-3.62549
1.0635	-0.50354
1.064	5.94177
1.0645	3.8269
1.065	6.64673
1.0655	9.26514
1.066	11.78284
1.0665	12.18567
1.067	13.09204
1.0675	11.98425
1.068	16.3147
1.0685	11.78284
1.069	8.56018
1.0695	3.22266
1.07	5.23682
1.0705	13.49487
1.071	13.49487
1.0715	4.83398
1.072	16.21399
1.0725	20.04089
1.073	18.63098
1.0735	13.09204
1.074	20.84656
1.0745	18.02673
1.075	16.61682
1.0755	12.08496
1.076	7.35168
1.0765	2.11487
1.077	7.35168
1.0775	3.22266
1.078	9.06372
1.0785	17.32178
1.079	7.35168
1.0795	7.5531
1.08	3.12195
1.0805	-0.60425
1.081	-2.71912
1.0815	-4.02832
1.082	-7.25098
1.0825	-8.66089
1.083	-3.22266
1.0835	-0.10071
1.084	-5.63965
1.0845	0.40283
1.085	1.61133
1.0855	-1.91345
1.086	1.81274
1.0865	0.10071
1.087	3.92761
1.0875	-1.91345
1.088	4.02832
1.0885	7.15027
1.089	7.85522
1.0895	2.81982
1.09	4.63257
1.0905	0.70496
1.091	1.51062
1.0915	4.83398
1.092	3.52478
1.0925	0.60425
1.093	0.80566
1.0935	6.74744
1.094	3.22266
1.0945	2.41699
1.095	-0.90637
1.0955	3.92761
1.096	3.42407
1.0965	0.80566
1.097	5.33752
1.0975	0.20142
1.098	0.80566
1.0985	0.80566
1.099	1.10779
1.0995	-4.73328
1.1	-4.73328
1.1005	-10.17151
1.101	-6.14319
1.1015	-9.46655
1.102	-11.98425
1.1025	-6.3446
1.103	-6.14319
1.1035	-17.6239
1.104	-36.4563
1.1045	-46.92993
1.105	-56.09436
1.1055	-52.56958
1.106	-47.33276
1.1065	-36.55701
1.107	-27.29187
1.1075	-17.52319
1.108	-5.33752
1.1085	-1.10779
1.109	0.60425
1.1095	-0.70496
1.11	7.5531
1.1105	11.07788
1.111	14.60266
1.1115	23.16284
1.112	29.40674
1.1125	42.09595
1.113	51.66321
1.1135	46.22498
1.114	47.8363
1.1145	51.26038
1.115	43.00232
1.1155	36.4563
1.116	30.81665
1.1165	29.10461
1.117	27.09045
1.1175	31.11877
1.118	28.50037
1.1185	21.04797
1.119	18.8324
1.1195	12.48779
1.12	12.68921
1.1205	13.39417
1.121	17.6239
1.1215	8.45947
1.122	7.04956
1.1225	2.81982
1.123	-2.5177
1.1235	-1.00708
1.124	4.73328
1.1245	15.50903
1.125	11.07788
1.1255	7.65381
1.126	6.14319
1.1265	2.61841
1.127	-7.95593
1.1275	-3.92761
1.128	-4.12903
1.1285	-4.22974
1.129	6.3446
1.1295	2.71912
1.13	1.10779
1.1305	5.53894
1.131	4.63257
1.1315	9.26514
1.132	-2.31628
1.1325	-0.50354
1.133	0.20142
1.1335	-2.01416
1.134	-4.63257
1.1345	-10.17151
1.135	-11.58142
1.1355	-2.21558
1.136	-9.56726
1.1365	-6.84814
1.137	-6.64673
1.1375	-2.01416
1.138	-7.85522
1.1385	-8.05664
1.139	-4.53186
1.1395	0.30212
1.14	-4.22974
1.1405	-6.44531
1.141	-5.63965
1.1415	-2.71912
1.142	-2.11487
1.1425	0.20142
1.143	0.60425
1.1435	2.11487
1.144	2.81982
1.1445	-2.21558
1.145	-3.12195
1.1455	-1.51062
1.146	-3.8269
1.1465	-1.10779
1.147	0
1.1475	5.63965
1.148	6.94885
1.1485	3.32336
1.149	8.35876
1.1495	9.86938
1.15	17.82532
1.1505	21.14868
1.151	21.65222
1.1515	9.36584
1.152	3.12195
1.1525	-15.00549
1.153	-37.46338
1.1535	-56.69861
1.154	-54.98657
1.1545	-47.03064
1.155	-42.39807
1.1555	-38.974
1.156	-33.13293
1.1565	-20.34302
1.157	-18.22815
1.1575	-6.64673
1.158	5.0354
1.1585	13.19275
1.159	17.12036
1.1595	18.32886
1.16	20.94727
1.1605	25.78125
1.161	30.51453
1.1615	29.91028
1.162	35.44922
1.1625	42.90161
1.163	39.57825
1.1635	44.41223
1.164	43.80798
1.1645	35.2478
1.165	20.94727
1.1655	9.56726
1.166	6.14319
1.1665	-4.02832
1.167	1.2085
1.1675	9.26514
1.168	5.63965
1.1685	9.76868
1.169	11.48071
1.1695	4.83398
1.17	6.14319
1.1705	7.75452
1.171	7.75452
1.1715	12.48779
1.172	9.56726
1.1725	11.48071
1.173	16.41541
1.1735	7.65381
1.174	8.15735
1.1745	9.66797
1.175	14.09912
1.1755	14.90479
1.176	13.49487
1.1765	15.50903
1.177	10.77576
1.1775	12.18567
1.178	13.39417
1.1785	13.29346
1.179	7.95593
1.1795	8.96301
1.18	4.63257
1.1805	2.01416
1.181	9.66797
1.1815	7.85522
1.182	0.50354
1.1825	3.42407
1.183	9.76868
1.1835	9.16443
1.184	21.24939
1.1845	26.58691
1.185	21.75293
1.1855	19.63806
1.186	15.81116
1.1865	17.01965
1.187	5.74036
1.1875	10.97717
1.188	4.43115
1.1885	0.80566
1.189	4.12903
1.1895	-0.10071
1.19	2.41699
1.1905	6.14319
1.191	8.05664
1.1915	12.5885
1.192	18.02673
1.1925	12.68921
1.193	18.73169
1.1935	24.67346
1.194	24.57275
1.1945	18.42957
1.195	12.38708
1.1955	11.58142
1.196	7.5531
1.1965	1.81274
1.197	-6.94885
1.1975	-12.18567
1.198	-13.19275
1.1985	-14.30054
1.199	-19.03381
1.1995	-15.40833
1.2	-18.93311
1.2005	-8.7616
1.201	-5.53894
1.2015	-5.63965
1.202	-0.90637
1.2025	1.3092
1.203	-2.31628
1.2035	1.91345
1.204	1.71204
1.2045	-2.31628
1.205	-7.75452
1.2055	-10.77576
1.206	-10.37292
1.2065	-11.78284
1.207	-5.33752
1.2075	-11.17859
1.208	-15.1062
1.2085	-9.76868
1.209	-7.85522
1.2095	-6.44531
1.21	-5.13611
1.2105	-4.33044
1.211	-1.61133
1.2115	-6.84814
1.212	3.8269
1.2125	8.35876
1.213	10.57434
1.2135	10.47363
1.214	1.00708
1.2145	7.25098
1.215	13.59558
1.2155	6.74744
1.216	7.35168
1.2165	4.12903
1.217	-9.46655
1.2175	-19.33594
1.218	-11.07788
1.2185	-12.5885
1.219	-0.30212
1.2195	4.12903
1.22	5.23682
1.2205	6.14319
1.221	-0.60425
1.2215	-0.70496
1.222	3.22266
1.2225	3.42407
1.223	3.52478
1.2235	5.74036
1.224	2.61841
1.2245	3.7262
1.225	4.73328
1.2255	-1.91345
1.226	3.62549
1.2265	15.00549
1.227	10.87646
1.2275	-3.8269
1.228	-8.05664
1.2285	-5.84106
1.229	-0.50354
1.2295	1.00708
1.23	-12.68921
1.2305	-9.06372
1.231	-8.45947
1.2315	-12.08496
1.232	-8.05664
1.2325	-1.91345
1.233	11.48071
1.2335	24.57275
1.234	26.08337
1.2345	20.34302
1.235	24.97559
1.2355	26.68762
1.236	29.91028
1.2365	24.97559
1.237	17.42249
1.2375	12.08496
1.238	6.04248
1.2385	12.18567
1.239	16.81824
1.2395	21.55151
1.24	25.47913
1.2405	33.13293
1.241	32.22656
1.2415	22.15576
1.242	18.32886
1.2425	15.40833
1.243	13.69629
1.2435	10.87646
1.244	5.63965
1.2445	5.43823
1.245	9.86938
1.2455	13.59558
1.246	16.01257
1.2465	20.84656
1.247	15.81116
1.2475	12.28638
1.248	10.27222
1.2485	14.19983
1.249	5.43823
1.2495	10.37292
1.25	14.60266
1.2505	11.38
1.251	8.25806
1.2515	5.43823
1.252	6.14319
1.2525	10.57434
1.253	6.54602
1.2535	11.2793
1.254	9.46655
1.2545	8.96301
1.255	14.40125
1.2555	21.55151
1.256	22.55859
1.2565	18.22815
1.257	12.89062
1.2575	11.58142
1.258	5.23682
1.2585	2.11487
1.259	2.41699
1.2595	2.31628
1.26	5.33752
1.2605	8.25806
1.261	2.5177
1.2615	2.61841
1.262	4.83398
1.2625	6.3446
1.263	3.42407
1.2635	-0.90637
1.264	-9.76868
1.2645	-3.92761
1.265	-4.22974
1.2655	-4.93469
1.266	-2.31628
1.2665	-8.25806
1.267	0
1.2675	-3.8269
1.268	-7.75452
1.2685	-5.0354
1.269	-3.52478
1.2695	-2.21558
1.27	-0.40283
1.2705	-0.60425
1.271	-1.00708
1.2715	3.52478
1.272	-1.00708
1.2725	-2.71912
1.273	2.31628
1.2735	5.43823
1.274	3.62549
1.2745	12.08496
1.275	17.42249
1.2755	24.77417
1.276	19.63806
1.2765	8.45947
1.277	4.83398
1.2775	3.12195
1.278	1.81274
1.2785	-13.99841
1.279	-41.29028
1.2795	-56.19507
1.28	-61.53259
1.2805	-52.56958
1.281	-40.1825
1.2815	-25.57983
1.282	-20.74585
1.2825	-12.89062
1.283	6.3446
1.2835	18.53027
1.284	32.32727
1.2845	33.53577
1.285	36.15417
1.2855	39.07471
1.286	47.7356
1.2865	48.13843
1.287	49.54834
1.2875	40.08179
1.288	26.98975
1.2885	20.94727
1.289	20.84656
1.2895	19.73877
1.29	20.1416
1.2905	13.49487
1.291	14.70337
1.2915	14.30054
1.292	10.47363
1.2925	16.11328
1.293	12.28638
1.2935	10.87646
1.294	5.63965
1.2945	2.81982
1.295	12.89062
1.2955	12.48779
1.296	8.05664
1.2965	0.50354
1.297	4.02832
1.2975	1.00708
1.298	0.50354
1.2985	-1.3092
1.299	4.02832
1.2995	7.85522
1.3	8.15735
1.3005	6.2439
1.301	11.68213
1.3015	14.09912
1.302	4.33044
1.3025	2.01416
1.303	2.61841
1.3035	0.80566
1.304	-0.90637
1.3045	3.42407
1.305	8.96301
1.3055	12.5885
1.306	17.01965
1.3065	14.60266
1.307	11.07788
1.3075	13.09204
1.308	10.17151
1.3085	6.04248
1.309	0.80566
1.3095	-0.60425
1.31	-1.71204
1.3105	-3.92761
1.311	-3.62549
1.3115	-16.81824
1.312	-34.34143
1.3125	-38.36975
1.313	-35.34851
1.3135	-32.7301
1.314	-22.35718
1.3145	-13.49487
1.315	-13.39417
1.3155	-8.45947
1.316	-4.53186
1.3165	-12.78992
1.317	-17.12036
1.3175	-9.66797
1.318	-8.15735
1.3185	-9.46655
1.319	-9.36584
1.3195	-0.20142
1.32	6.64673
1.3205	12.28638
1.321	20.24231
1.3215	25.47913
1.322	27.49329
1.3225	28.70178
1.323	33.43506
1.3235	32.62939
1.324	35.95276
1.3245	39.47754
1.325	41.99524
1.3255	46.32568
1.326	46.82922
1.3265	32.7301
1.327	26.18408
1.3275	20.1416
1.328	10.67505
1.3285	14.40125
1.329	16.11328
1.3295	5.0354
1.33	-15.81116
1.3305	-18.53027
1.331	-21.85364
1.3315	-16.91895
1.332	-17.01965
1.3325	-12.89062
1.333	-9.66797
1.3335	-4.02832
1.334	1.2085
1.3345	-1.00708
1.335	0.20142
1.3355	-0.50354
1.336	3.22266
1.3365	1.91345
1.337	-2.41699
1.3375	-0.60425
1.338	-9.56726
1.3385	-9.06372
1.339	-11.38
1.3395	-7.35168
1.34	-11.17859
1.3405	-7.75452
1.341	-6.44531
1.3415	-8.25806
1.342	-2.21558
1.3425	6.84814
1.343	9.36584
1.3435	9.76868
1.344	10.67505
1.3445	11.88354
1.345	6.2439
1.3455	9.66797
1.346	5.0354
1.3465	0.30212
1.347	2.21558
1.3475	2.11487
1.348	8.7616
1.3485	2.71912
1.349	-3.22266
1.3495	-8.15735
1.35	-2.92053
1.3505	-6.74744
1.351	-9.86938
1.3515	-20.04089
1.352	-19.53735
1.3525	-15.30762
1.353	-11.07788
1.3535	-6.14319
1.354	5.63965
1.3545	13.29346
1.355	21.14868
1.3555	29.70886
1.356	33.23364
1.3565	36.05347
1.357	33.33435
1.3575	27.19116
1.358	20.94727
1.3585	22.76001
1.359	12.18567
1.3595	7.25098
1.36	5.94177
1.3605	13.19275
1.361	23.56567
1.3615	20.84656
1.362	13.59558
1.3625	19.73877
1.363	14.70337
1.3635	13.59558
1.364	17.22107
1.3645	12.5885
1.365	13.49487
1.3655	14.09912
1.366	13.69629
1.3665	-5.33752
1.367	-3.92761
1.3675	-10.17151
1.368	-16.3147
1.3685	-18.22815
1.369	-15.60974
1.3695	-14.40125
1.37	-13.19275
1.3705	-11.17859
1.371	-10.37292
1.3715	-9.66797
1.372	-13.49487
1.3725	-12.68921
1.373	-9.26514
1.3735	1.51062
1.374	8.35876
1.3745	9.66797
1.375	15.40833
1.3755	23.66638
1.376	17.6239
1.3765	23.56567
1.377	22.86072
1.3775	19.94019
1.378	14.40125
1.3785	16.51611
1.379	19.83948
1.3795	15.1062
1.38	19.23523
1.3805	30.91736
1.381	22.45789
1.3815	15.1062
1.382	15.00549
1.3825	9.86938
1.383	5.0354
1.3835	5.74036
1.384	4.73328
1.3845	6.04248
1.385	5.84106
1.3855	1.91345
1.386	8.66089
1.3865	9.86938
1.387	10.67505
1.3875	13.49487
1.388	7.85522
1.3885	11.07788
1.389	8.7616
1.3895	11.48071
1.39	10.0708
1.3905	11.88354
1.391	2.61841
1.3915	-3.7262
1.392	-9.97009
1.3925	-7.45239
1.393	-8.8623
1.3935	-34.14001
1.394	-60.72693
1.3945	-64.95667
1.395	-57.60498
1.3955	-56.39648
1.396	-47.93701
1.3965	-35.14709
1.397	-25.27771
1.3975	-25.47913
1.398	-13.59558
1.3985	1.91345
1.399	15.00549
1.3995	25.57983
1.4	27.89612
1.4005	26.88904
1.401	26.3855
1.4015	33.23364
1.402	38.77258
1.4025	33.13293
1.403	26.3855
1.4035	22.76001
1.404	29.80957
1.4045	32.32727
1.405	22.55859
1.4055	13.797
1.406	4.02832
1.4065	-3.02124
1.407	-4.02832
1.4075	0.80566
1.408	0.60425
1.4085	9.76868
1.409	19.63806
1.4095	20.54443
1.41	18.53027
1.4105	27.59399
1.411	27.09045
1.4115	25.37842
1.412	25.88196
1.4125	20.54443
1.413	21.85364
1.4135	20.44373
1.414	24.57275
1.4145	23.26355
1.415	19.43665
1.4155	21.65222
1.416	19.73877
1.4165	18.93311
1.417	19.33594
1.4175	2.01416
1.418	0.60425
1.4185	-7.15027
1.419	-12.48779
1.4195	-11.68213
1.42	-12.28638
1.4205	-4.73328
1.421	-9.36584
1.4215	-3.52478
1.422	-6.44531
1.4225	-2.21558
1.423	4.33044
1.4235	4.73328
1.424	6.74744
1.4245	14.50195
1.425	16.61682
1.4255	12.5885
1.426	5.53894
1.4265	6.04248
1.427	12.48779
1.4275	2.41699
1.428	-0.90637
1.4285	-0.10071
1.429	-5.94177
1.4295	-5.23682
1.43	0
1.4305	3.52478
1.431	10.0708
1.4315	14.80408
1.432	10.27222
1.4325	2.01416
1.433	-1.71204
1.4335	10.37292
1.434	8.25806
1.4345	-15.1062
1.435	-31.32019
1.4355	-31.4209
1.436	-36.55701
1.4365	-35.34851
1.437	-28.39966
1.4375	-24.27063
1.438	-18.12744
1.4385	-16.01257
1.439	-8.05664
1.4395	-2.21558
1.44	11.2793
1.4405	20.64514
1.441	23.8678
1.4415	22.55859
1.442	28.9032
1.4425	32.52869
1.443	37.56409
1.4435	34.03931
1.444	23.06213
1.4445	15.60974
1.445	11.38
1.4455	11.2793
1.446	10.17151
1.4465	2.41699
1.447	-6.64673
1.4475	-15.81116
1.448	-22.05505
1.4485	-19.03381
1.449	-18.12744
1.4495	-18.63098
1.45	-19.23523
1.4505	-19.94019
1.451	-9.76868
1.4515	-14.40125
1.452	-15.71045
1.4525	-8.25806
1.453	0
1.4535	-19.83948
1.454	-54.68445
1.4545	-81.67419
1.455	-88.62305
1.4555	-84.89685
1.456	-82.07703
1.4565	-67.37366
1.457	-47.03064
1.4575	-10.27222
1.458	30.01099
1.4585	54.68445
1.459	74.32251
1.4595	86.20605
1.46	102.52075
1.4605	95.77332
1.461	86.40747
1.4615	72.10693
1.462	63.54675
1.4625	52.97241
1.463	29.60815
1.4635	9.66797
1.464	2.71912
1.4645	5.43823
1.465	6.3446
1.4655	3.32336
1.466	12.18567
1.4665	9.76868
1.467	13.49487
1.4675	6.74744
1.468	3.02124
1.4685	-3.42407
1.469	-9.46655
1.4695	-10.17151
1.47	-12.5885
1.4705	-8.15735
1.471	-8.8623
1.4715	1.00708
1.472	1.81274
1.4725	7.95593
1.473	10.67505
1.4735	14.30054
1.474	31.92444
1.4745	36.4563
1.475	44.31152
1.4755	57.00073
1.476	55.89294
1.4765	40.2832
1.477	27.29187
1.4775	23.76709
1.478	11.2793
1.4785	9.56726
1.479	15.1062
1.4795	9.16443
1.48	-2.01416
1.4805	4.43115
1.481	4.63257
1.4815	1.10779
1.482	-2.5177
1.4825	-3.52478
1.483	7.04956
1.4835	5.13611
1.484	3.62549
1.4845	9.16443
1.485	14.09912
1.4855	22.6593
1.486	22.76001
1.4865	23.56567
1.487	24.97559
1.4875	23.66638
1.488	24.97559
1.4885	12.78992
1.489	2.41699
1.4895	1.91345
1.49	-16.41541
1.4905	-19.73877
1.491	-22.05505
1.4915	-25.27771
1.492	-28.70178
1.4925	-17.42249
1.493	-24.87488
1.4935	-19.03381
1.494	-13.69629
1.4945	-12.68921
1.495	-17.22107
1.4955	-11.98425
1.496	-11.17859
1.4965	-2.61841
1.497	-9.56726
1.4975	-44.21082
1.498	-78.85437
1.4985	-113.39722
1.499	-132.53174
1.4995	-124.37439
1.5	-104.4342
1.5005	-79.45862
1.501	-57.60498
1.5015	-27.19116
1.502	1.00708
1.5025	25.37842
1.503	42.29736
1.5035	67.8772
1.504	72.10693
1.5045	81.57349
1.505	80.56641
1.5055	92.24854
1.506	88.0188
1.5065	74.62463
1.507	65.66162
1.5075	60.4248
1.508	57.40356
1.5085	55.49011
1.509	49.14551
1.5095	37.06055
1.51	22.86072
1.5105	14.30054
1.511	10.47363
1.5115	9.86938
1.512	6.2439
1.5125	8.45947
1.513	11.2793
1.5135	8.45947
1.514	5.53894
1.5145	0.60425
1.515	-2.92053
1.5155	-7.45239
1.516	-2.31628
1.5165	0.10071
1.517	3.12195
1.5175	8.96301
1.518	14.50195
1.5185	17.82532
1.519	22.55859
1.5195	21.85364
1.52	19.94019
1.5205	15.00549
1.521	11.48071
1.5215	9.06372
1.522	9.36584
1.5225	13.99841
1.523	24.57275
1.5235	33.33435
1.524	27.99683
1.5245	20.24231
1.525	20.64514
1.5255	14.30054
1.526	11.78284
1.5265	10.17151
1.527	14.50195
1.5275	14.09912
1.528	10.97717
1.5285	6.54602
1.529	1.81274
1.5295	-2.31628
1.53	-6.2439
1.5305	1.40991
1.531	10.47363
1.5315	1.00708
1.532	-4.43115
1.5325	-6.64673
1.533	-9.16443
1.5335	-9.56726
1.534	-3.22266
1.5345	-7.75452
1.535	-12.48779
1.5355	-12.08496
1.536	-6.84814
1.5365	-10.67505
1.537	-15.30762
1.5375	-6.44531
1.538	-5.43823
1.5385	-1.2085
1.539	-2.31628
1.5395	-2.81982
1.54	-1.40991
1.5405	2.01416
1.541	-1.3092
1.5415	-1.3092
1.542	6.84814
1.5425	8.35876
1.543	10.0708
1.5435	18.73169
1.544	18.93311
1.5445	10.47363
1.545	6.44531
1.5455	-8.96301
1.546	-28.70178
1.5465	-31.62231
1.547	-29.50745
1.5475	-37.06055
1.548	-33.83789
1.5485	-21.65222
1.549	-17.22107
1.5495	-14.40125
1.55	-11.88354
1.5505	-6.64673
1.551	-1.81274
1.5515	10.47363
1.552	19.23523
1.5525	21.95435
1.553	43.40515
1.5535	50.55542
1.554	46.5271
1.5545	43.50586
1.555	31.32019
1.5555	20.74585
1.556	13.99841
1.5565	6.94885
1.557	8.25806
1.5575	16.11328
1.558	14.09912
1.5585	29.20532
1.559	33.83789
1.5595	46.12427
1.56	38.87329
1.5605	32.83081
1.561	31.92444
1.5615	30.01099
1.562	21.55151
1.5625	27.19116
1.563	30.71594
1.5635	31.82373
1.564	22.86072
1.5645	15.91187
1.565	5.53894
1.5655	-2.21558
1.566	-9.86938
1.5665	-15.1062
1.567	-23.36426
1.5675	-22.55859
1.568	-15.50903
1.5685	-12.78992
1.569	-12.48779
1.5695	-9.26514
1.57	-11.38
1.5705	-22.35718
1.571	-34.54285
1.5715	-44.41223
1.572	-50.45471
1.5725	-41.18958
1.573	-39.67896
1.5735	-37.96692
1.574	-32.02515
1.5745	-23.46497
1.575	-23.46497
1.5755	-15.81116
1.576	-9.16443
1.5765	-6.64673
1.577	5.53894
1.5775	14.19983
1.578	18.73169
1.5785	23.46497
1.579	29.10461
1.5795	33.23364
1.58	26.18408
1.5805	14.50195
1.581	11.17859
1.5815	9.06372
1.582	8.15735
1.5825	13.59558
1.583	13.89771
1.5835	10.27222
1.584	8.15735
1.5845	3.22266
1.585	5.43823
1.5855	8.56018
1.586	10.77576
1.5865	13.09204
1.587	9.97009
1.5875	6.84814
1.588	6.54602
1.5885	-3.42407
1.589	-1.71204
1.5895	-9.46655
1.59	-14.09912
1.5905	-18.53027
1.591	-25.07629
1.5915	-20.94727
1.592	-21.24939
1.5925	-20.84656
1.593	-21.65222
1.5935	-20.44373
1.594	-17.72461
1.5945	-17.52319
1.595	-17.32178
1.5955	-9.97009
1.596	-8.66089
1.5965	1.10779
1.597	2.61841
1.5975	2.61841
1.598	5.13611
1.5985	1.51062
1.599	-1.2085
1.5995	4.12903
1.6	3.8269
1.6005	4.33044
1.601	1.2085
1.6015	2.31628
1.602	7.85522
1.6025	6.3446
1.603	0.10071
1.6035	4.83398
1.604	5.43823
1.6045	0.10071
1.605	12.48779
1.6055	19.13452
1.606	23.46497
1.6065	35.34851
1.607	37.86621
1.6075	32.32727
1.608	26.68762
1.6085	10.67505
1.609	-5.84106
1.6095	-52.26746
1.61	-108.36182
1.6105	-145.72449
1.611	-157.10449
1.6115	-147.43652
1.612	-127.59705
1.6125	-100.10376
1.613	-70.99915
1.6135	-24.97559
1.614	13.69629
1.6145	57.00073
1.615	84.39331
1.6155	113.59863
1.616	120.95032
1.6165	126.9928
1.617	124.67651
1.6175	133.13599
1.618	125.7843
1.6185	95.97473
1.619	64.95667
1.6195	50.75684
1.62	42.39807
1.6205	35.14709
1.621	25.37842
1.6215	29.10461
1.622	23.36426
1.6225	17.52319
1.623	16.11328
1.6235	17.92603
1.624	15.40833
1.6245	17.6239
1.625	21.75293
1.6255	25.37842
1.626	22.6593
1.6265	18.32886
1.627	19.94019
1.6275	17.12036
1.628	18.63098
1.6285	24.87488
1.629	25.68054
1.6295	20.64514
1.63	10.57434
1.6305	13.49487
1.631	12.99133
1.6315	3.12195
1.632	-12.38708
1.6325	-26.68762
1.633	-18.63098
1.6335	-16.91895
1.634	-20.24231
1.6345	-13.89771
1.635	5.0354
1.6355	8.96301
1.636	2.21558
1.6365	-3.32336
1.637	-4.02832
1.6375	0.80566
1.638	2.41699
1.6385	0.60425
1.639	2.41699
1.6395	5.0354
1.64	4.33044
1.6405	3.42407
1.641	5.43823
1.6415	14.09912
1.642	12.89062
1.6425	11.88354
1.643	0.30212
1.6435	3.62549
1.644	4.63257
1.6445	-0.40283
1.645	-5.63965
1.6455	-2.01416
1.646	-10.67505
1.6465	-13.99841
1.647	-17.42249
1.6475	-16.41541
1.648	-11.88354
1.6485	-11.98425
1.649	-7.85522
1.6495	-7.15027
1.65	-3.42407
1.6505	2.41699
1.651	-3.32336
1.6515	1.51062
1.652	6.2439
1.6525	12.5885
1.653	14.90479
1.6535	17.92603
1.654	17.01965
1.6545	11.2793
1.655	17.01965
1.6555	8.45947
1.656	13.89771
1.6565	23.66638
1.657	13.99841
1.6575	4.12903
1.658	-1.2085
1.6585	-8.56018
1.659	-3.52478
1.6595	-1.2085
1.66	6.14319
1.6605	5.23682
1.661	7.75452
1.6615	18.42957
1.662	29.30603
1.6625	22.86072
1.663	25.47913
1.6635	32.42798
1.664	30.81665
1.6645	25.78125
1.665	3.8269
1.6655	-17.32178
1.666	-26.58691
1.6665	-43.70728
1.667	-51.5625
1.6675	-46.92993
1.668	-47.43347
1.6685	-44.51294
1.669	-37.86621
1.6695	-27.09045
1.67	-20.84656
1.6705	-22.05505
1.671	-15.1062
1.6715	-8.56018
1.672	-4.33044
1.6725	11.38
1.673	21.45081
1.6735	33.63647
1.674	23.96851
1.6745	9.56726
1.675	12.28638
1.6755	5.63965
1.676	-6.84814
1.6765	-8.8623
1.677	-2.92053
1.6775	4.02832
1.678	8.7616
1.6785	16.11328
1.679	22.55859
1.6795	24.37134
1.68	30.2124
1.6805	37.46338
1.681	41.89453
1.6815	38.67188
1.682	34.64355
1.6825	32.22656
1.683	46.92993
1.6835	57.30286
1.684	42.09595
1.6845	31.72302
1.685	34.34143
1.6855	34.54285
1.686	30.81665
1.6865	24.47205
1.687	23.06213
1.6875	15.60974
1.688	9.26514
1.6885	9.06372
1.689	5.74036
1.6895	6.2439
1.69	6.2439
1.6905	10.27222
1.691	16.71753
1.6915	12.28638
1.692	8.56018
1.6925	2.92053
1.693	-6.2439
1.6935	-5.0354
1.694	-13.797
1.6945	-10.97717
1.695	-13.29346
1.6955	-3.42407
1.696	2.01416
1.6965	5.33752
1.697	6.84814
1.6975	10.17151
1.698	8.8623
1.6985	8.8623
1.699	8.7616
1.6995	5.53894
1.7	12.68921
1.7005	4.73328
1.701	1.51062
1.7015	-2.92053
1.702	-6.44531
1.7025	-11.17859
1.703	-16.01257
1.7035	-11.98425
1.704	-15.81116
1.7045	-17.32178
1.705	-19.13452
1.7055	-21.55151
1.706	-19.53735
1.7065	-17.82532
1.707	-12.68921
1.7075	-8.96301
1.708	-8.66089
1.7085	-7.95593
1.709	-4.22974
1.7095	1.71204
1.71	-13.99841
1.7105	-34.34143
1.711	-42.7002
1.7115	-39.27612
1.712	-40.68604
1.7125	-29.30603
1.713	-11.88354
1.7135	1.40991
1.714	4.02832
1.7145	9.86938
1.715	25.07629
1.7155	26.78833
1.716	34.44214
1.7165	38.974
1.717	27.6947
1.7175	21.75293
1.718	23.26355
1.7185	19.33594
1.719	23.36426
1.7195	24.67346
1.72	27.09045
1.7205	31.62231
1.721	20.74585
1.7215	18.02673
1.722	7.04956
1.7225	-6.94885
1.723	-12.5885
1.7235	-12.48779
1.724	-12.99133
1.7245	-8.45947
1.725	-0.40283
1.7255	0.50354
1.726	-4.93469
1.7265	3.42407
1.727	9.97009
1.7275	-2.11487
1.728	-3.92761
1.7285	-3.32336
1.729	13.49487
1.7295	3.62549
1.73	-2.41699
1.7305	-9.46655
1.731	-5.84106
1.7315	-19.43665
1.732	-20.1416
1.7325	-15.40833
1.733	6.64673
1.7335	26.08337
1.734	36.85913
1.7345	40.1825
1.735	43.90869
1.7355	44.71436
1.736	36.95984
1.7365	32.83081
1.737	30.91736
1.7375	32.12585
1.738	25.37842
1.7385	24.06921
1.739	14.19983
1.7395	13.99841
1.74	11.07788
1.7405	17.42249
1.741	15.1062
1.7415	17.22107
1.742	11.48071
1.7425	7.25098
1.743	-3.02124
1.7435	-5.33752
1.744	-6.74744
1.7445	-13.99841
1.745	-12.68921
1.7455	-8.15735
1.746	-4.53186
1.7465	-7.85522
1.747	0
1.7475	2.5177
1.748	3.02124
1.7485	-2.5177
1.749	-2.61841
1.7495	-1.2085
1.75	3.62549
1.7505	12.48779
1.751	14.19983
1.7515	10.37292
1.752	8.15735
1.7525	5.33752
1.753	11.68213
1.7535	7.65381
1.754	6.94885
1.7545	4.63257
1.755	8.45947
1.7555	12.38708
1.756	11.88354
1.7565	8.35876
1.757	8.96301
1.7575	1.91345
1.758	0.80566
1.7585	10.57434
1.759	4.22974
1.7595	-1.61133
1.76	3.32336
1.7605	-0.10071
1.761	-18.8324
1.7615	-28.09753
1.762	-41.4917
1.7625	-36.95984
1.763	-42.90161
1.7635	-41.18958
1.764	-39.17542
1.7645	-35.75134
1.765	-27.49329
1.7655	-24.37134
1.766	-18.12744
1.7665	-13.99841
1.767	-4.43115
1.7675	-4.83398
1.768	1.91345
1.7685	10.17151
1.769	14.80408
1.7695	17.92603
1.77	25.37842
1.7705	36.85913
1.771	40.08179
1.7715	50.354
1.772	60.22339
1.7725	59.71985
1.773	57.40356
1.7735	54.78516
1.774	47.7356
1.7745	36.65771
1.775	24.27063
1.7755	17.52319
1.776	2.92053
1.7765	-5.43823
1.777	-11.48071
1.7775	-9.86938
1.778	-43.10303
1.7785	-65.56091
1.779	-75.63171
1.7795	-75.63171
1.78	-72.20764
1.7805	-72.00623
1.781	-49.44763
1.7815	-34.84497
1.782	-11.88354
1.7825	5.63965
1.783	31.62231
1.7835	55.18799
1.784	65.76233
1.7845	74.42322
1.785	69.28711
1.7855	66.97083
1.786	59.51843
1.7865	45.2179
1.787	32.22656
1.7875	24.47205
1.788	18.93311
1.7885	8.66089
1.789	23.06213
1.7895	28.60107
1.79	19.43665
1.7905	18.53027
1.791	19.83948
1.7915	12.99133
1.792	14.09912
1.7925	14.09912
1.793	10.27222
1.7935	14.50195
1.794	7.25098
1.7945	6.04248
1.795	5.53894
1.7955	-1.81274
1.796	-5.43823
1.7965	-1.2085
1.797	-1.61133
1.7975	-21.14868
1.798	-27.39258
1.7985	-22.35718
1.799	-20.04089
1.7995	-13.59558
1.8	-8.25806
1.8005	-3.02124
1.801	0.80566
1.8015	5.74036
1.802	9.86938
1.8025	18.22815
1.803	14.60266
1.8035	28.50037
1.804	20.94727
1.8045	17.52319
1.805	24.37134
1.8055	38.67188
1.806	28.80249
1.8065	30.91736
1.807	24.67346
1.8075	32.12585
1.808	22.76001
1.8085	20.34302
1.809	15.40833
1.8095	15.91187
1.81	11.68213
1.8105	15.40833
1.811	7.5531
1.8115	0.10071
1.812	4.53186
1.8125	3.62549
1.813	-5.84106
1.8135	-4.53186
1.814	-3.8269
1.8145	0.40283
1.815	1.81274
1.8155	-2.31628
1.816	-8.05664
1.8165	-9.26514
1.817	-16.51611
1.8175	-39.17542
1.818	-50.45471
1.8185	-52.56958
1.819	-50.65613
1.8195	-47.7356
1.82	-38.77258
1.8205	-31.01807
1.821	-28.19824
1.8215	-13.19275
1.822	6.44531
1.8225	19.53735
1.823	21.3501
1.8235	26.48621
1.824	17.32178
1.8245	17.42249
1.825	38.47046
1.8255	28.80249
1.826	14.60266
1.8265	8.96301
1.827	32.83081
1.8275	40.08179
1.828	38.87329
1.8285	32.12585
1.829	30.81665
1.8295	30.61523
1.83	27.19116
1.8305	28.29895
1.831	11.2793
1.8315	11.68213
1.832	20.34302
1.8325	34.14001
1.833	51.5625
1.8335	62.13684
1.834	70.3949
1.8345	69.08569
1.835	68.58215
1.8355	46.62781
1.836	33.63647
1.8365	16.51611
1.837	4.73328
1.8375	5.43823
1.838	-4.33044
1.8385	-11.07788
1.839	-12.5885
1.8395	-11.88354
1.84	-13.59558
1.8405	-8.96301
1.841	-8.25806
1.8415	-3.92761
1.842	-17.12036
1.8425	-24.57275
1.843	-22.6593
1.8435	-20.24231
1.844	-15.20691
1.8445	-6.84814
1.845	-2.92053
1.8455	4.22974
1.846	12.99133
1.8465	26.88904
1.847	26.98975
1.8475	32.52869
1.848	34.44214
1.8485	34.34143
1.849	26.58691
1.8495	33.43506
1.85	23.66638
1.8505	11.07788
1.851	-4.93469
1.8515	-0.50354
1.852	1.81274
1.8525	7.75452
1.853	0.20142
1.8535	0.80566
1.854	-4.33044
1.8545	-20.24231
1.855	-32.22656
1.8555	-38.47046
1.856	-39.37683
1.8565	-35.75134
1.857	-39.77966
1.8575	-30.31311
1.858	-23.46497
1.8585	-19.63806
1.859	-8.7616
1.8595	-4.12903
1.86	0
1.8605	7.75452
1.861	12.28638
1.8615	19.43665
1.862	21.3501
1.8625	11.98425
1.863	4.43115
1.8635	4.43115
1.864	6.74744
1.8645	6.94885
1.865	6.14319
1.8655	12.38708
1.866	6.74744
1.8665	5.94177
1.867	4.53186
1.8675	0.20142
1.868	0.60425
1.8685	1.91345
1.869	-15.40833
1.8695	-13.59558
1.87	-11.98425
1.8705	-10.47363
1.871	8.15735
1.8715	22.25647
1.872	33.83789
1.8725	42.90161
1.873	42.8009
1.8735	44.31152
1.874	46.22498
1.8745	35.95276
1.875	28.29895
1.8755	31.11877
1.876	32.93152
1.8765	25.27771
1.877	22.05505
1.8775	24.06921
1.878	22.6593
1.8785	19.73877
1.879	14.70337
1.8795	20.1416
1.88	16.51611
1.8805	18.73169
1.881	11.48071
1.8815	9.16443
1.882	5.33752
1.8825	6.84814
1.883	10.27222
1.8835	7.75452
1.884	8.15735
1.8845	10.27222
1.885	6.64673
1.8855	5.0354
1.886	1.00708
1.8865	-1.51062
1.887	-5.33752
1.8875	-4.12903
1.888	-6.44531
1.8885	-10.97717
1.889	-14.09912
1.8895	-18.02673
1.89	-6.84814
1.8905	-3.42407
1.891	-10.97717
1.8915	-1.81274
1.892	5.74036
1.8925	11.58142
1.893	14.19983
1.8935	8.45947
1.894	6.94885
1.8945	10.0708
1.895	6.14319
1.8955	9.56726
1.896	3.92761
1.8965	-4.53186
1.897	-1.91345
1.8975	2.81982
1.898	-0.60425
1.8985	-4.22974
1.899	-12.08496
1.8995	-11.48071
1.9	-12.89062
1.9005	-12.48779
1.901	-10.87646
1.9015	-7.65381
1.902	-3.12195
1.9025	-0.50354
1.903	-0.80566
1.9035	5.53894
1.904	8.35876
1.9045	7.5531
1.905	19.03381
1.9055	23.8678
1.906	22.15576
1.9065	13.99841
1.907	13.39417
1.9075	15.40833
1.908	5.53894
1.9085	1.00708
1.909	-1.51062
1.9095	-4.43115
1.91	-4.93469
1.9105	-8.96301
1.911	-3.02124
1.9115	0.80566
1.912	-5.0354
1.9125	-2.11487
1.913	0.80566
1.9135	2.01416
1.914	0.50354
1.9145	-3.42407
1.915	7.5531
1.9155	-2.21558
1.916	1.2085
1.9165	10.57434
1.917	21.55151
1.9175	24.77417
1.918	14.60266
1.9185	16.21399
1.919	-1.51062
1.9195	-0.10071
1.92	-10.27222
1.9205	-33.13293
1.921	-58.51135
1.9215	-62.13684
1.922	-68.38074
1.9225	-64.35242
1.923	-55.59082
1.9235	-43.30444
1.924	-31.01807
1.9245	-19.33594
1.925	6.54602
1.9255	30.2124
1.926	41.89453
1.9265	45.2179
1.927	50.95825
1.9275	74.82605
1.928	92.34924
1.9285	91.745
1.929	76.63879
1.9295	55.99365
1.93	40.38391
1.9305	35.14709
1.931	31.92444
1.9315	19.23523
1.932	18.8324
1.9325	12.18567
1.933	5.84106
1.9335	2.61841
1.934	3.42407
1.9345	-3.02124
1.935	-2.92053
1.9355	-0.70496
1.936	-2.5177
1.9365	-7.85522
1.937	-14.30054
1.9375	-18.22815
1.938	-22.35718
1.9385	-23.66638
1.939	-24.87488
1.9395	-31.72302
1.94	-28.70178
1.9405	-24.06921
1.941	-19.33594
1.9415	-23.36426
1.942	-18.63098
1.9425	-8.66089
1.943	6.94885
1.9435	11.48071
1.944	20.1416
1.9445	13.09204
1.945	17.12036
1.9455	31.82373
1.946	33.9386
1.9465	27.09045
1.947	23.16284
1.9475	26.98975
1.948	20.74585
1.9485	17.82532
1.949	13.797
1.9495	-1.61133
1.95	-6.44531
1.9505	-18.53027
1.951	-20.94727
1.9515	-19.94019
1.952	-18.32886
1.9525	-13.797
1.953	-6.94885
1.9535	1.71204
1.954	2.31628
1.9545	5.84106
1.955	6.44531
1.9555	10.37292
1.956	14.80408
1.9565	10.97717
1.957	18.93311
1.9575	20.24231
1.958	23.06213
1.9585	16.61682
1.959	19.33594
1.9595	22.55859
1.96	20.1416
1.9605	15.71045
1.961	22.35718
1.9615	17.72461
1.962	15.30762
1.9625	23.66638
1.963	22.86072
1.9635	28.80249
1.964	27.89612
1.9645	18.22815
1.965	10.47363
1.9655	8.05664
1.966	12.68921
1.9665	12.18567
1.967	5.74036
1.9675	6.54602
1.968	5.84106
1.9685	4.63257
1.969	-3.7262
1.9695	-8.25806
1.97	-25.177
1.9705	-66.16516
1.971	-99.60022
1.9715	-106.24695
1.972	-109.4696
1.9725	-103.02429
1.973	-81.97632
1.9735	-56.90002
1.974	-48.13843
1.9745	-32.32727
1.975	-9.76868
1.9755	12.68921
1.976	36.25488
1.9765	58.41064
1.977	79.15649
1.9775	80.56641
1.978	98.99597
1.9785	98.69385
1.979	83.38623
1.9795	58.10852
1.98	47.03064
1.9805	32.42798
1.981	21.14868
1.9815	16.41541
1.982	9.36584
1.9825	10.87646
1.983	23.76709
1.9835	35.75134
1.984	32.02515
1.9845	23.06213
1.985	24.16992
1.9855	16.71753
1.986	17.32178
1.9865	18.22815
1.987	13.89771
1.9875	13.89771
1.988	15.20691
1.9885	11.58142
1.989	9.76868
1.9895	-2.11487
1.99	-1.71204
1.9905	-3.62549
1.991	-0.20142
1.9915	-1.10779
1.992	-6.14319
1.9925	-5.63965
1.993	-0.50354
1.9935	0.70496
1.994	0.80566
1.9945	1.71204
1.995	3.7262
1.9955	5.43823
1.996	9.36584
1.9965	12.38708
1.997	10.47363
1.9975	11.88354
1.998	7.5531
1.9985	-0.20142
1.999	-6.44531
1.9995	-9.16443
2	-12.5885
2.0005	-18.8324
2.001	-22.35718
2.0015	-22.86072
2.002	-33.23364
2.0025	-48.74268
2.003	-50.15259
2.0035	-45.41931
2.004	-39.17542
2.0045	-40.48462
2.005	-28.60107
2.0055	-21.04797
2.006	-8.35876
2.0065	-9.26514
2.007	-5.74036
2.0075	5.43823
2.008	8.15735
2.0085	8.96301
2.009	15.81116
2.0095	7.25098
2.01	3.02124
2.0105	22.6593
2.011	36.85913
2.0115	43.60657
2.012	40.68604
2.0125	35.85205
2.013	40.98816
2.0135	30.51453
2.014	17.42249
2.0145	1.51062
2.015	-14.40125
2.0155	-22.05505
2.016	-31.32019
2.0165	-33.23364
2.017	-36.55701
2.0175	-24.87488
2.018	-21.3501
2.0185	-13.09204
2.019	-2.61841
2.0195	1.3092
2.02	6.2439
2.0205	9.46655
2.021	11.58142
2.0215	14.90479
2.022	14.09912
2.0225	3.02124
2.023	6.04248
2.0235	10.87646
2.024	18.53027
2.0245	20.54443
2.025	35.75134
2.0255	48.64197
2.026	48.44055
2.0265	50.95825
2.027	44.71436
2.0275	48.23914
2.028	58.20923
2.0285	50.45471
2.029	38.67188
2.0295	32.12585
2.03	33.73718
2.0305	18.42957
2.031	8.96301
2.0315	-10.17151
2.032	-20.64514
2.0325	-28.19824
2.033	-21.14868
2.0335	-19.63806
2.034	-21.95435
2.0345	-19.53735
2.035	-29.50745
2.0355	-41.89453
2.036	-41.69312
2.0365	-30.61523
2.037	-32.02515
2.0375	-31.21948
2.038	-17.72461
2.0385	-10.17151
2.039	-3.32336
2.0395	6.54602
2.04	16.51611
2.0405	21.3501
2.041	22.15576
2.0415	26.3855
2.042	22.45789
2.0425	25.78125
2.043	24.87488
2.0435	18.02673
2.044	21.04797
2.0445	12.78992
2.045	16.11328
2.0455	3.42407
2.046	5.33752
2.0465	1.81274
2.047	-1.61133
2.0475	11.48071
2.048	10.27222
2.0485	12.78992
2.049	5.63965
2.0495	14.09912
2.05	5.43823
2.0505	-5.53894
2.051	-0.80566
2.0515	9.66797
2.052	2.71912
2.0525	1.71204
2.053	9.26514
2.0535	21.85364
2.054	16.41541
2.0545	12.28638
2.055	16.81824
2.0555	15.40833
2.056	24.57275
2.0565	28.09753
2.057	24.97559
2.0575	25.57983
2.058	35.2478
2.0585	34.84497
2.059	28.9032
2.0595	-2.31628
2.06	-32.42798
2.0605	-44.21082
2.061	-43.90869
2.0615	-50.95825
2.062	-49.44763
2.0625	-40.08179
2.063	-24.47205
2.0635	-8.35876
2.064	14.50195
2.0645	37.86621
2.065	61.23047
2.0655	75.02747
2.066	88.92517
2.0665	84.99756
2.067	83.28552
2.0675	80.26428
2.068	57.50427
2.0685	37.7655
2.069	22.05505
2.0695	15.71045
2.07	7.25098
2.0705	12.08496
2.071	2.01416
2.0715	-11.2793
2.072	-17.52319
2.0725	-13.39417
2.073	-10.97717
2.0735	-12.28638
2.074	-6.44531
2.0745	0
2.075	3.62549
2.0755	8.45947
2.076	9.86938
2.0765	16.91895
2.077	14.80408
2.0775	10.97717
2.078	9.86938
2.0785	1.00708
2.079	-6.64673
2.0795	0.80566
2.08	1.00708
2.0805	-2.61841
2.081	-2.61841
2.0815	-2.21558
2.082	9.66797
2.0825	6.74744
2.083	-3.42407
2.0835	-5.13611
2.084	-3.62549
2.0845	-11.2793
2.085	-13.19275
2.0855	-4.33044
2.086	-5.74036
2.0865	-3.7262
2.087	-7.5531
2.0875	-0.90637
2.088	-1.2085
2.0885	3.42407
2.089	-3.42407
2.0895	-5.43823
2.09	-5.43823
2.0905	-8.25806
2.091	-12.68921
2.0915	-13.89771
2.092	-18.02673
2.0925	-16.01257
2.093	-16.61682
2.0935	-12.48779
2.094	-14.30054
2.0945	-5.53894
2.095	-8.35876
2.0955	13.59558
2.096	25.98267
2.0965	27.29187
2.097	25.57983
2.0975	11.58142
2.098	6.44531
2.0985	11.68213
2.099	7.5531
2.0995	7.04956
2.1	6.14319
2.1005	8.8623
2.101	8.8623
2.1015	8.8623
2.102	8.8623
2.1025	8.8623
2.103	8.8623
2.1035	8.8623
2.104	8.8623
2.1045	8.8623
2.105	8.8623
2.1055	8.8623
2.106	8.8623
2.1065	8.8623
2.107	8.8623
2.1075	8.8623
2.108	8.8623
2.1085	8.8623
2.109	8.8623
2.1095	8.8623
2.11	8.8623
2.1105	8.8623
2.111	22.96143
2.1115	24.57275
2.112	14.30054
2.1125	9.36584
2.113	13.69629
2.1135	18.8324
2.114	16.11328
2.1145	1.71204
2.115	-15.60974
2.1155	-31.21948
2.116	-41.79382
2.1165	-59.82056
2.117	-45.41931
2.1175	-30.41382
2.118	-26.58691
2.1185	-24.37134
2.119	-20.44373
2.1195	-20.54443
2.12	-12.5885
2.1205	-5.94177
2.121	-6.04248
2.1215	2.21558
2.122	10.77576
2.1225	17.72461
2.123	20.64514
2.1235	26.58691
2.124	38.87329
2.1245	46.12427
2.125	45.3186
2.1255	55.89294
2.126	58.30994
2.1265	53.17383
2.127	44.71436
2.1275	42.19666
2.128	34.44214
2.1285	28.39966
2.129	30.01099
2.1295	26.18408
2.13	22.76001
2.1305	3.02124
2.131	-16.91895
2.1315	-23.46497
2.132	-28.80249
2.1325	-29.91028
2.133	-24.47205
2.1335	-26.78833
2.134	-24.47205
2.1345	-22.86072
2.135	-13.797
2.1355	-5.33752
2.136	4.43115
2.1365	13.09204
2.137	12.99133
2.1375	9.26514
2.138	11.88354
2.1385	11.58142
2.139	4.02832
2.1395	-18.8324
2.14	-26.08337
2.1405	-38.36975
2.141	-64.45312
2.1415	-106.54907
2.142	-128.40271
2.1425	-135.55298
2.143	-127.89917
2.1435	-109.3689
2.144	-86.50818
2.1445	-68.78357
2.145	-48.44055
2.1455	-25.78125
2.146	4.12903
2.1465	34.24072
2.147	52.8717
2.1475	86.70959
2.148	110.17456
2.1485	103.62854
2.149	86.10535
2.1495	71.50269
2.15	53.97949
2.1505	7.85522
2.151	-28.50037
2.1515	-22.96143
2.152	-6.3446
2.1525	0.70496
2.153	-39.98108
2.1535	-84.19189
2.154	-126.58997
2.1545	-136.56006
2.155	-140.78979
2.1555	-121.15173
2.156	-104.83704
2.1565	-90.93933
2.157	-73.51685
2.1575	-40.08179
2.158	-0.80566
2.1585	23.06213
2.159	67.77649
2.1595	102.62146
2.16	119.4397
2.1605	120.34607
2.161	127.19421
2.1615	111.78589
2.162	104.53491
2.1625	91.8457
2.163	89.02588
2.1635	79.15649
2.164	82.27844
2.1645	57.40356
2.165	26.18408
2.1655	14.40125
2.166	21.85364
2.1665	41.59241
2.167	32.32727
2.1675	31.52161
2.168	33.33435
2.1685	34.84497
2.169	34.54285
2.1695	40.68604
2.17	36.05347
2.1705	41.4917
2.171	28.9032
2.1715	15.20691
2.172	0.90637
2.1725	9.56726
2.173	30.91736
2.1735	36.95984
2.174	41.39099
2.1745	54.48303
2.175	58.71277
2.1755	51.36108
2.176	58.41064
2.1765	62.8418
2.177	46.32568
2.1775	33.9386
2.178	29.40674
2.1785	23.06213
2.179	24.47205
2.1795	21.55151
2.18	21.3501
2.1805	13.99841
2.181	10.27222
2.1815	7.65381
2.182	4.53186
2.1825	4.53186
2.183	-2.71912
2.1835	0
2.184	7.45239
2.1845	6.2439
2.185	10.97717
2.1855	4.33044
2.186	-2.11487
2.1865	2.81982
2.187	-6.14319
2.1875	-2.71912
2.188	-2.81982
2.1885	-1.61133
2.189	-3.42407
2.1895	-3.8269
2.19	-7.25098
2.1905	-7.25098
2.191	-11.58142
2.1915	-16.71753
2.192	-31.52161
2.1925	-36.05347
2.193	-39.67896
2.1935	-40.88745
2.194	-42.29736
2.1945	-41.29028
2.195	-36.4563
2.1955	-30.51453
2.196	-29.00391
2.1965	-21.75293
2.197	-16.11328
2.1975	-5.33752
2.198	-1.81274
2.1985	4.22974
2.199	14.90479
2.1995	19.53735
2.2	22.6593
2.2005	27.09045
2.201	16.81824
2.2015	26.48621
2.202	26.48621
2.2025	30.81665
2.203	31.82373
2.2035	17.42249
2.204	-6.74744
2.2045	-40.68604
2.205	-57.40356
2.2055	-68.48145
2.206	-72.71118
2.2065	-64.95667
2.207	-60.52551
2.2075	-56.29578
2.208	-41.4917
2.2085	-32.32727
2.209	-14.70337
2.2095	8.25806
2.21	25.07629
2.2105	33.73718
2.211	51.15967
2.2115	75.02747
2.212	67.67578
2.2125	53.97949
2.213	44.31152
2.2135	49.0448
2.214	38.26904
2.2145	39.67896
2.215	34.03931
2.2155	22.96143
2.216	19.23523
2.2165	27.49329
2.217	32.52869
2.2175	23.96851
2.218	22.35718
2.2185	34.34143
2.219	36.85913
2.2195	31.4209
2.22	30.2124
2.2205	40.48462
2.221	36.4563
2.2215	18.42957
2.222	12.18567
2.2225	3.52478
2.223	-4.02832
2.2235	-6.3446
2.224	-2.01416
2.2245	-13.39417
2.225	-18.73169
2.2255	-17.12036
2.226	-42.49878
2.2265	-45.52002
2.227	-51.46179
2.2275	-48.23914
2.228	-44.91577
2.2285	-37.56409
2.229	-38.974
2.2295	-29.40674
2.23	-23.96851
2.2305	-22.35718
2.231	-9.06372
2.2315	-4.33044
2.232	3.52478
2.2325	11.88354
2.233	24.47205
2.2335	25.07629
2.234	29.70886
2.2345	36.05347
2.235	33.53577
2.2355	41.79382
2.236	47.7356
2.2365	44.31152
2.237	35.34851
2.2375	36.25488
2.238	25.57983
2.2385	12.28638
2.239	10.67505
2.2395	10.57434
2.24	5.0354
2.2405	-0.30212
2.241	-0.10071
2.2415	-4.22974
2.242	-6.74744
2.2425	1.2085
2.243	0.40283
2.2435	5.94177
2.244	8.25806
2.2445	4.33044
2.245	8.56018
2.2455	2.61841
2.246	-4.53186
2.2465	-9.76868
2.247	-8.25806
2.2475	-10.0708
2.248	-4.22974
2.2485	12.28638
2.249	31.52161
2.2495	36.4563
2.25	38.47046
2.2505	31.72302
2.251	24.37134
2.2515	15.30762
2.252	4.22974
2.2525	9.86938
2.253	3.02124
2.2535	8.56018
2.254	12.08496
2.2545	15.40833
2.255	7.65381
2.2555	-11.98425
2.256	-42.49878
2.2565	-65.86304
2.257	-87.21313
2.2575	-105.13916
2.258	-91.8457
2.2585	-72.9126
2.259	-61.83472
2.2595	-71.40198
2.26	-82.88269
2.2605	-79.05579
2.261	-86.30676
2.2615	-86.40747
2.262	-79.55933
2.2625	-65.76233
2.263	-53.37524
2.2635	-30.71594
2.264	-8.8623
2.2645	23.56567
2.265	59.21631
2.2655	70.09277
2.266	55.89294
2.2665	43.80798
2.267	48.64197
2.2675	52.67029
2.268	30.91736
2.2685	4.93469
2.269	-33.13293
2.2695	-80.86853
2.27	-89.83154
2.2705	-81.27136
2.271	-58.81348
2.2715	-23.8678
2.272	26.58691
2.2725	46.22498
2.273	65.15808
2.2735	86.30676
2.274	102.21863
2.2745	89.93225
2.275	83.88977
2.2755	80.66711
2.276	64.45312
2.2765	43.50586
2.277	44.81506
2.2775	46.22498
2.278	50.85754
2.2785	45.52002
2.279	44.11011
2.2795	53.67737
2.28	58.91418
2.2805	55.89294
2.281	55.79224
2.2815	65.25879
2.282	68.78357
2.2825	58.61206
2.283	42.59949
2.2835	32.42798
2.284	20.34302
2.2845	11.17859
2.285	-3.52478
2.2855	-9.06372
2.286	-15.1062
2.2865	-20.84656
2.287	-22.05505
2.2875	-10.0708
2.288	-3.22266
2.2885	5.13611
2.289	10.97717
2.2895	15.50903
2.29	8.96301
2.2905	-12.38708
2.291	-28.50037
2.2915	-31.52161
2.292	-29.60815
2.2925	-29.10461
2.293	-27.19116
2.2935	-9.46655
2.294	13.49487
2.2945	24.37134
2.295	27.49329
2.2955	44.0094
2.296	45.2179
2.2965	47.53418
2.297	32.42798
2.2975	33.53577
2.298	35.65063
2.2985	27.89612
2.299	18.42957
2.2995	15.50903
2.3	17.22107
2.3005	12.48779
2.301	8.15735
2.3015	12.68921
2.302	18.42957
2.3025	6.94885
2.303	5.43823
2.3035	5.63965
2.304	5.0354
2.3045	3.62549
2.305	15.30762
2.3055	16.81824
2.306	21.24939
2.3065	30.71594
2.307	42.8009
2.3075	42.19666
2.308	41.59241
2.3085	30.81665
2.309	36.75842
2.3095	34.84497
2.31	23.46497
2.3105	18.42957
2.311	12.28638
2.3115	-1.81274
2.312	-11.88354
2.3125	-18.73169
2.313	-10.67505
2.3135	-9.86938
2.314	-8.56018
2.3145	-10.67505
2.315	-6.94885
2.3155	-7.75452
2.316	0.30212
2.3165	-6.84814
2.317	-8.15735
2.3175	-11.38
2.318	-12.28638
2.3185	-22.05505
2.319	-32.42798
2.3195	-37.16125
2.32	-40.88745
2.3205	-48.03772
2.321	-33.83789
2.3215	-20.84656
2.322	-2.81982
2.3225	8.56018
2.323	8.25806
2.3235	5.43823
2.324	10.57434
2.3245	4.12903
2.325	3.8269
2.3255	18.63098
2.326	13.59558
2.3265	20.74585
2.327	13.19275
2.3275	0
2.328	-19.23523
2.3285	-32.83081
2.329	-40.1825
2.3295	-38.06763
2.33	-29.60815
2.3305	-31.62231
2.331	-36.15417
2.3315	-36.95984
2.332	-22.96143
2.3325	-19.13452
2.333	-19.63806
2.3335	-16.71753
2.334	-10.17151
2.3345	-5.0354
2.335	-14.90479
2.3355	-25.47913
2.336	-44.91577
2.3365	-53.87878
2.337	-60.12268
2.3375	-57.00073
2.338	-44.41223
2.3385	-20.74585
2.339	-0.10071
2.3395	28.60107
2.34	51.5625
2.3405	69.79065
2.341	82.07703
2.3415	93.45703
2.342	81.7749
2.3425	68.68286
2.343	66.87012
2.3435	42.8009
2.344	13.69629
2.3445	-6.3446
2.345	-47.93701
2.3455	-75.93384
2.346	-101.9165
2.3465	-114.20288
2.347	-103.22571
2.3475	-67.17224
2.348	-39.88037
2.3485	-18.02673
2.349	1.00708
2.3495	36.25488
2.35	64.151
2.3505	83.99048
2.351	111.78589
2.3515	127.19421
2.352	140.99121
2.3525	147.33582
2.353	124.87793
2.3535	81.57349
2.354	64.45312
2.3545	66.36658
2.355	60.92834
2.3555	47.03064
2.356	46.42639
2.3565	29.00391
2.357	4.22974
2.3575	-4.33044
2.358	-20.94727
2.3585	-19.63806
2.359	-19.83948
2.3595	-28.80249
2.36	-35.34851
2.3605	-33.73718
2.361	-27.09045
2.3615	-13.99841
2.362	-2.41699
2.3625	-17.52319
2.363	-86.10535
2.3635	-108.1604
2.364	-97.28394
2.3645	-72.30835
2.365	-46.02356
2.3655	-18.53027
2.366	2.71912
2.3665	39.27612
2.367	91.14075
2.3675	124.4751
2.368	129.91333
2.3685	101.71509
2.369	84.2926
2.3695	50.45471
2.37	-69.79065
2.3705	-183.48999
2.371	-235.95886
2.3715	-234.85107
2.372	-194.36646
2.3725	-142.60254
2.373	-85.29968
2.3735	-13.89771
2.374	41.89453
2.3745	113.09509
2.375	174.92981
2.3755	202.32239
2.376	214.70947
2.3765	218.43567
2.377	203.22876
2.3775	155.49316
2.378	104.4342
2.3785	57.50427
2.379	19.94019
2.3795	9.36584
2.38	-2.71912
2.3805	-6.54602
2.381	-1.00708
2.3815	-4.53186
2.382	-19.13452
2.3825	-38.06763
2.383	-46.42639
2.3835	-42.09595
2.384	-27.39258
2.3845	-5.13611
2.385	6.64673
2.3855	25.78125
2.386	36.15417
2.3865	31.92444
2.387	19.73877
2.3875	9.56726
2.388	-7.04956
2.3885	-9.86938
2.389	-8.56018
2.3895	-21.75293
2.39	-19.33594
2.3905	8.25806
2.391	13.69629
2.3915	9.76868
2.392	4.83398
2.3925	11.68213
2.393	34.44214
2.3935	60.02197
2.394	80.26428
2.3945	75.4303
2.395	84.49402
2.3955	95.5719
2.396	84.69543
2.3965	79.66003
2.397	59.01489
2.3975	45.41931
2.398	46.5271
2.3985	31.32019
2.399	16.51611
2.3995	5.13611
2.4	0.60425
2.4005	-7.35168
2.401	-4.73328
2.4015	-4.63257
2.402	-1.81274
2.4025	-0.40283
2.403	-16.3147
2.4035	-54.38232
2.404	-64.25171
2.4045	-70.99915
2.405	-79.35791
2.4055	-85.80322
2.406	-75.63171
2.4065	-62.9425
2.407	-47.33276
2.4075	-14.90479
2.408	12.78992
2.4085	18.32886
2.409	26.3855
2.4095	48.44055
2.41	48.54126
2.4105	59.92126
2.411	85.60181
2.4115	71.40198
2.412	50.354
2.4125	55.3894
2.413	68.78357
2.4135	60.72693
2.414	47.7356
2.4145	28.60107
2.415	27.6947
2.4155	17.6239
2.416	16.41541
2.4165	9.76868
2.417	6.84814
2.4175	5.53894
2.418	9.46655
2.4185	11.58142
2.419	12.78992
2.4195	6.54602
2.42	-0.90637
2.4205	-1.3092
2.421	-0.10071
2.4215	-6.3446
2.422	-3.92761
2.4225	-1.2085
2.423	-6.44531
2.4235	-13.89771
2.424	-12.78992
2.4245	-8.8623
2.425	-5.0354
2.4255	-8.7616
2.426	-4.53186
2.4265	-4.33044
2.427	-10.37292
2.4275	-4.63257
2.428	-12.89062
2.4285	-14.70337
2.429	-13.99841
2.4295	-13.59558
2.43	-12.99133
2.4305	-10.97717
2.431	-11.98425
2.4315	-5.13611
2.432	-1.81274
2.4325	-0.20142
2.433	17.22107
2.4335	18.42957
2.434	1.2085
2.4345	-37.7655
2.435	-68.58215
2.4355	-88.22021
2.436	-82.78198
2.4365	-82.07703
2.437	-71.7041
2.4375	-57.30286
2.438	-41.4917
2.4385	-31.11877
2.439	-11.38
2.4395	-1.51062
2.44	7.15027
2.4405	6.3446
2.441	-3.32336
2.4415	-3.32336
2.442	8.8623
2.4425	25.68054
2.443	41.4917
2.4435	53.57666
2.444	55.59082
2.4445	51.66321
2.445	17.12036
2.4455	-39.98108
2.446	-54.48303
2.4465	-35.95276
2.447	-11.48071
2.4475	14.40125
2.448	30.91736
2.4485	41.59241
2.449	59.1156
2.4495	72.40906
2.45	93.15491
2.4505	98.0896
2.451	95.16907
2.4515	92.55066
2.452	79.05579
2.4525	59.61914
2.453	21.3501
2.4535	5.0354
2.454	26.78833
2.4545	40.68604
2.455	39.17542
2.4555	28.70178
2.456	23.46497
2.4565	21.3501
2.457	20.44373
2.4575	15.81116
2.458	10.27222
2.4585	10.0708
2.459	6.84814
2.4595	-15.30762
2.46	-28.70178
2.4605	-39.27612
2.461	-44.31152
2.4615	-40.78674
2.462	-42.09595
2.4625	-44.61365
2.463	-36.85913
2.4635	-29.10461
2.464	-23.66638
2.4645	-14.09912
2.465	2.11487
2.4655	7.75452
2.466	18.22815
2.4665	24.67346
2.467	22.96143
2.4675	32.93152
2.468	27.39258
2.4685	14.50195
2.469	7.5531
2.4695	-6.14319
2.47	-9.66797
2.4705	-11.38
2.471	-6.54602
2.4715	-1.10779
2.472	-0.80566
2.4725	3.02124
2.473	0.50354
2.4735	2.61841
2.474	1.3092
2.4745	14.80408
2.475	21.65222
2.4755	18.32886
2.476	12.08496
2.4765	15.71045
2.477	15.91187
2.4775	25.98267
2.478	27.49329
2.4785	15.00549
2.479	13.09204
2.4795	6.74744
2.48	-3.92761
2.4805	-8.56018
2.481	-0.20142
2.4815	1.2085
2.482	-1.10779
2.4825	-0.60425
2.483	-14.30054
2.4835	-10.97717
2.484	-6.44531
2.4845	-2.92053
2.485	9.97009
2.4855	12.89062
2.486	20.74585
2.4865	25.68054
2.487	23.16284
2.4875	18.02673
2.488	4.93469
2.4885	-12.28638
2.489	-14.80408
2.4895	-9.26514
2.49	-14.80408
2.4905	-13.29346
2.491	-26.28479
2.4915	-30.91736
2.492	-30.01099
2.4925	-31.92444
2.493	-28.50037
2.4935	-19.03381
2.494	-13.99841
2.4945	-11.07788
2.495	0.30212
2.4955	9.66797
2.496	20.64514
2.4965	25.57983
2.497	30.2124
2.4975	29.91028
2.498	36.4563
2.4985	36.15417
2.499	37.46338
2.4995	38.974
2.5	26.68762
2.5005	18.12744
2.501	9.66797
2.5015	-2.61841
2.502	-14.30054
2.5025	-7.75452
2.503	-14.90479
2.5035	-28.9032
2.504	-47.23206
2.5045	-76.03455
2.505	-80.36499
2.5055	-61.43188
2.506	-56.09436
2.5065	-44.0094
2.507	-28.70178
2.5075	-25.37842
2.508	-16.61682
2.5085	-10.97717
2.509	-7.65381
2.5095	-16.81824
2.51	-14.19983
2.5105	3.42407
2.511	3.42407
2.5115	3.42407
2.512	3.42407
2.5125	3.42407
2.513	3.42407
2.5135	3.42407
2.514	3.42407
2.5145	3.42407
2.515	3.42407
2.5155	3.42407
2.516	3.42407
2.5165	3.42407
2.517	3.42407
2.5175	3.42407
2.518	3.42407
2.5185	3.42407
2.519	3.42407
2.5195	3.42407
2.52	3.42407
2.5205	3.42407
2.521	19.63806
2.5215	10.57434
2.522	3.7262
2.5225	-2.61841
2.523	2.11487
2.5235	9.36584
2.524	2.92053
2.5245	-6.14319
2.525	-13.19275
2.5255	-18.42957
2.526	-13.49487
2.5265	-13.99841
2.527	-14.70337
2.5275	-10.0708
2.528	-5.0354
2.5285	-0.80566
2.529	-4.33044
2.5295	-5.74036
2.53	-0.20142
2.5305	-3.8269
2.531	-8.45947
2.5315	-12.68921
2.532	-20.24231
2.5325	-17.32178
2.533	-24.87488
2.5335	-10.57434
2.534	14.19983
2.5345	21.95435
2.535	22.96143
2.5355	3.12195
2.536	-40.48462
2.5365	-87.11243
2.537	-107.85828
2.5375	-116.41846
2.538	-109.97314
2.5385	-100.20447
2.539	-75.12817
2.5395	-38.47046
2.54	-3.52478
2.5405	20.74585
2.541	56.79932
2.5415	76.63879
2.542	96.67969
2.5425	116.51917
2.543	126.18713
2.5435	129.81262
2.544	101.21155
2.5445	73.61755
2.545	50.354
2.5455	35.54993
2.546	19.73877
2.5465	18.53027
2.547	23.96851
2.5475	28.29895
2.548	29.60815
2.5485	23.36426
2.549	7.5531
2.5495	2.92053
2.55	1.61133
2.5505	0.60425
2.551	3.52478
2.5515	4.33044
2.552	6.94885
2.5525	5.0354
2.553	4.83398
2.5535	0.70496
2.554	2.31628
2.5545	4.22974
2.555	13.49487
2.5555	12.38708
2.556	12.99133
2.5565	13.19275
2.557	7.15027
2.5575	5.63965
2.558	-2.41699
2.5585	-5.74036
2.559	-6.94885
2.5595	-9.06372
2.56	-15.81116
2.5605	-21.55151
2.561	-25.27771
2.5615	-26.78833
2.562	-22.76001
2.5625	-26.88904
2.563	-24.97559
2.5635	-18.73169
2.564	-12.89062
2.5645	-13.99841
2.565	-7.85522
2.5655	-2.61841
2.566	10.17151
2.5665	14.80408
2.567	14.30054
2.5675	20.34302
2.568	19.73877
2.5685	16.11328
2.569	20.74585
2.5695	20.64514
2.57	17.52319
2.5705	13.99841
2.571	14.80408
2.5715	9.36584
2.572	-1.00708
2.5725	-6.44531
2.573	-7.15027
2.5735	-5.53894
2.574	2.31628
2.5745	-0.90637
2.575	4.33044
2.5755	2.01416
2.576	-1.2085
2.5765	-8.45947
2.577	-10.67505
2.5775	-18.63098
2.578	-17.92603
2.5785	-14.40125
2.579	-21.65222
2.5795	-22.86072
2.58	-23.96851
2.5805	-23.76709
2.581	-23.46497
2.5815	-21.45081
2.582	-23.26355
2.5825	-24.87488
2.583	-26.58691
2.5835	-18.73169
2.584	-15.00549
2.5845	-15.30762
2.585	-9.56726
2.5855	-6.84814
2.586	-10.47363
2.5865	-7.95593
2.587	-11.17859
2.5875	-18.53027
2.588	-20.54443
2.5885	-25.78125
2.589	-23.56567
2.5895	-20.1416
2.59	-12.89062
2.5905	-12.99133
2.591	-16.51611
2.5915	-22.55859
2.592	-30.71594
2.5925	-28.60107
2.593	-13.59558
2.5935	-8.15735
2.594	-13.09204
2.5945	-17.32178
2.595	-11.2793
2.5955	-12.38708
2.596	-0.90637
2.5965	-3.62549
2.597	-2.71912
2.5975	-8.45947
2.598	-4.22974
2.5985	1.2085
2.599	12.08496
2.5995	25.27771
2.6	35.75134
2.6005	34.44214
2.601	41.89453
2.6015	60.22339
2.602	55.49011
2.6025	63.64746
2.603	67.17224
2.6035	57.70569
2.604	41.39099
2.6045	30.41382
2.605	25.37842
2.6055	24.57275
2.606	24.37134
2.6065	24.57275
2.607	25.57983
2.6075	29.60815
2.608	30.71594
2.6085	33.9386
2.609	33.23364
2.6095	27.19116
2.61	33.63647
2.6105	39.67896
2.611	31.62231
2.6115	31.32019
2.612	27.09045
2.6125	14.50195
2.613	8.45947
2.6135	6.54602
2.614	3.7262
2.6145	8.66089
2.615	-0.10071
2.6155	1.81274
2.616	0
2.6165	3.02124
2.617	0.90637
2.6175	8.56018
2.618	-5.33752
2.6185	-10.87646
2.619	-25.27771
2.6195	-39.77966
2.62	-44.81506
2.6205	-36.4563
2.621	-25.177
2.6215	-24.06921
2.622	-18.32886
2.6225	-8.96301
2.623	-7.45239
2.6235	1.00708
2.624	18.22815
2.6245	26.48621
2.625	26.48621
2.6255	13.49487
2.626	4.02832
2.6265	4.12903
2.627	6.74744
2.6275	-0.40283
2.628	-6.74744
2.6285	-6.54602
2.629	-13.89771
2.6295	-18.22815
2.63	-23.46497
2.6305	-40.2832
2.631	-58.61206
2.6315	-58.71277
2.632	-54.58374
2.6325	-44.0094
2.633	-42.7002
2.6335	-54.58374
2.634	-59.21631
2.6345	-44.41223
2.635	-25.177
2.6355	-5.43823
2.636	18.12744
2.6365	39.17542
2.637	55.79224
2.6375	59.61914
2.638	57.50427
2.6385	69.38782
2.639	76.63879
2.6395	72.9126
2.64	66.16516
2.6405	64.55383
2.641	57.30286
2.6415	49.95117
2.642	49.54834
2.6425	58.81348
2.643	54.18091
2.6435	47.13135
2.644	33.9386
2.6445	16.21399
2.645	5.84106
2.6455	9.26514
2.646	18.93311
2.6465	29.10461
2.647	32.12585
2.6475	33.73718
2.648	21.45081
2.6485	17.52319
2.649	11.17859
2.6495	12.89062
2.65	1.61133
2.6505	-5.84106
2.651	-12.5885
2.6515	-8.8623
2.652	-5.94177
2.6525	-9.36584
2.653	-13.19275
2.6535	-15.00549
2.654	-14.09912
2.6545	-10.17151
2.655	-3.7262
2.6555	0.60425
2.656	8.25806
2.6565	18.53027
2.657	22.35718
2.6575	23.16284
2.658	19.63806
2.6585	14.80408
2.659	15.1062
2.6595	9.97009
2.66	18.8324
2.6605	10.0708
2.661	5.13611
2.6615	-0.30212
2.662	0.90637
2.6625	1.00708
2.663	-0.60425
2.6635	7.95593
2.664	9.76868
2.6645	7.15027
2.665	8.7616
2.6655	-0.10071
2.666	-2.01416
2.6665	-6.84814
2.667	-3.22266
2.6675	-10.37292
2.668	-7.75452
2.6685	-11.17859
2.669	-9.46655
2.6695	-12.89062
2.67	-7.85522
2.6705	-4.22974
2.671	-21.75293
2.6715	-52.67029
2.672	-78.55225
2.6725	-96.27686
2.673	-106.8512
2.6735	-124.67651
2.674	-130.21545
2.6745	-136.05652
2.675	-129.20837
2.6755	-109.16748
2.676	-70.99915
2.6765	-26.88904
2.677	-7.45239
2.6775	14.19983
2.678	33.9386
2.6785	41.18958
2.679	44.31152
2.6795	53.27454
2.68	60.12268
2.6805	64.85596
2.681	68.78357
2.6815	67.67578
2.682	89.63013
2.6825	103.42712
2.683	110.77881
2.6835	111.08093
2.684	99.60022
2.6845	90.13367
2.685	78.25012
2.6855	71.80481
2.686	73.91968
2.6865	71.09985
2.687	61.83472
2.6875	46.42639
2.688	39.98108
2.6885	40.78674
2.689	38.57117
2.6895	46.82922
2.69	42.19666
2.6905	37.56409
2.691	35.54993
2.6915	26.3855
2.692	17.92603
2.6925	18.73169
2.693	15.30762
2.6935	11.17859
2.694	8.7616
2.6945	4.02832
2.695	-8.96301
2.6955	-12.28638
2.696	-10.17151
2.6965	-13.29346
2.697	-10.27222
2.6975	-18.63098
2.698	-18.93311
2.6985	-18.32886
2.699	-24.37134
2.6995	-23.8678
2.7	-29.80957
2.7005	-38.36975
2.701	-34.94568
2.7015	-33.43506
2.702	-33.43506
2.7025	-25.47913
2.703	-18.53027
2.7035	-14.70337
2.704	-12.78992
2.7045	-5.33752
2.705	1.81274
2.7055	7.25098
2.706	16.41541
2.7065	12.18567
2.707	7.35168
2.7075	-18.63098
2.708	-41.79382
2.7085	-49.74976
2.709	-58.00781
2.7095	-54.28162
2.71	-57.20215
2.7105	-65.05737
2.711	-56.79932
2.7115	-41.4917
2.712	-25.177
2.7125	-2.01416
2.713	12.38708
2.7135	19.83948
2.714	31.92444
2.7145	44.91577
2.715	48.23914
2.7155	52.26746
2.716	50.45471
2.7165	51.96533
2.717	54.0802
2.7175	62.33826
2.718	48.13843
2.7185	46.72852
2.719	52.8717
2.7195	54.48303
2.72	36.15417
2.7205	23.8678
2.721	29.50745
2.7215	24.27063
2.722	28.19824
2.7225	31.62231
2.723	27.29187
2.7235	2.92053
2.724	-16.91895
2.7245	-33.9386
2.725	-34.84497
2.7255	-42.39807
2.726	-39.88037
2.7265	-36.75842
2.727	-23.56567
2.7275	-12.48779
2.728	-12.08496
2.7285	-12.28638
2.729	-12.48779
2.7295	-7.45239
2.73	4.73328
2.7305	7.25098
2.731	-1.61133
2.7315	2.5177
2.732	28.39966
2.7325	45.92285
2.733	56.79932
2.7335	60.12268
2.734	64.25171
2.7345	58.20923
2.735	52.06604
2.7355	49.24622
2.736	42.7002
2.7365	42.8009
2.737	41.4917
2.7375	49.34692
2.738	37.46338
2.7385	31.62231
2.739	22.6593
2.7395	9.56726
2.74	-9.36584
2.7405	-25.78125
2.741	-28.70178
2.7415	-23.16284
2.742	-28.9032
2.7425	-31.11877
2.743	-29.20532
2.7435	-21.24939
2.744	-11.58142
2.7445	-9.56726
2.745	-5.13611
2.7455	-1.2085
2.746	5.33752
2.7465	5.63965
2.747	9.86938
2.7475	19.83948
2.748	23.96851
2.7485	24.87488
2.749	28.29895
2.7495	32.12585
2.75	36.25488
2.7505	27.79541
2.751	25.98267
2.7515	22.55859
2.752	26.08337
2.7525	18.42957
2.753	2.5177
2.7535	-3.12195
2.754	-11.17859
2.7545	-10.47363
2.755	-13.49487
2.7555	-3.02124
2.756	19.23523
2.7565	21.04797
2.757	22.15576
2.7575	17.32178
2.758	16.21399
2.7585	5.63965
2.759	6.2439
2.7595	2.11487
2.76	4.53186
2.7605	8.15735
2.761	5.84106
2.7615	3.22266
2.762	5.84106
2.7625	16.91895
2.763	17.22107
2.7635	11.07788
2.764	0
2.7645	-11.88354
2.765	-20.84656
2.7655	-24.67346
2.766	-44.31152
2.7665	-53.57666
2.767	-57.9071
2.7675	-56.29578
2.768	-46.02356
2.7685	-44.51294
2.769	-40.1825
2.7695	-30.51453
2.77	-26.18408
2.7705	-15.40833
2.771	-6.64673
2.7715	1.71204
2.772	15.1062
2.7725	32.42798
2.773	40.68604
2.7735	42.29736
2.774	43.00232
2.7745	47.93701
2.775	52.36816
2.7755	43.20374
2.776	38.36975
2.7765	46.02356
2.777	57.40356
2.7775	52.56958
2.778	42.90161
2.7785	45.62073
2.779	45.72144
2.7795	37.16125
2.78	35.85205
2.7805	22.86072
2.781	-11.88354
2.7815	-45.92285
2.782	-67.8772
2.7825	-81.17065
2.783	-81.06995
2.7835	-70.69702
2.784	-47.03064
2.7845	-35.54993
2.785	-25.37842
2.7855	-26.28479
2.786	-29.30603
2.7865	-20.94727
2.787	1.3092
2.7875	3.7262
2.788	2.92053
2.7885	11.38
2.789	20.1416
2.7895	22.05505
2.79	17.52319
2.7905	8.45947
2.791	17.12036
2.7915	20.34302
2.792	32.02515
2.7925	38.974
2.793	48.74268
2.7935	46.22498
2.794	48.64197
2.7945	51.5625
2.795	47.33276
2.7955	43.50586
2.796	48.74268
2.7965	45.2179
2.797	44.61365
2.7975	39.27612
2.798	44.11011
2.7985	49.64905
2.799	41.18958
2.7995	29.30603
2.8	24.97559
2.8005	21.75293
2.801	16.51611
2.8015	15.81116
2.802	12.08496
2.8025	11.48071
2.803	5.94177
2.8035	-10.27222
2.804	-19.43665
2.8045	-17.72461
2.805	-27.09045
2.8055	-29.30603
2.806	-38.974
2.8065	-41.59241
2.807	-49.64905
2.8075	-62.64038
2.808	-70.29419
2.8085	-63.94958
2.809	-48.44055
2.8095	-42.49878
2.81	-29.80957
2.8105	-16.41541
2.811	5.63965
2.8115	10.0708
2.812	12.68921
2.8125	21.75293
2.813	37.26196
2.8135	47.43347
2.814	53.87878
2.8145	57.20215
2.815	39.27612
2.8155	31.92444
2.816	16.3147
2.8165	7.75452
2.817	1.71204
2.8175	9.06372
2.818	11.38
2.8185	12.78992
2.819	20.54443
2.8195	14.50195
2.82	1.3092
2.8205	-5.23682
2.821	-9.86938
2.8215	-21.55151
2.822	-24.67346
2.8225	-18.63098
2.823	-17.52319
2.8235	-7.75452
2.824	-2.01416
2.8245	1.61133
2.825	3.12195
2.8255	0.10071
2.826	-2.61841
2.8265	-2.21558
2.827	9.66797
2.8275	22.15576
2.828	24.97559
2.8285	35.95276
2.829	60.3241
2.8295	66.36658
2.83	51.66321
2.8305	33.53577
2.831	35.95276
2.8315	22.35718
2.832	16.3147
2.8325	17.42249
2.833	18.73169
2.8335	20.84656
2.834	22.25647
2.8345	14.30054
2.835	10.47363
2.8355	1.00708
2.836	-1.2085
2.8365	-4.53186
2.837	-9.76868
2.8375	-22.25647
2.838	-21.75293
2.8385	-10.57434
2.839	12.99133
2.8395	15.50903
2.84	9.66797
2.8405	11.17859
2.841	14.60266
2.8415	13.69629
2.842	19.23523
2.8425	14.80408
2.843	8.05664
2.8435	-1.00708
2.844	14.40125
2.8445	23.16284
2.845	21.14868
2.8455	19.33594
2.846	24.47205
2.8465	15.50903
2.847	11.07788
2.8475	11.78284
2.848	14.09912
2.8485	18.02673
2.849	21.85364
2.8495	31.4209
2.85	29.00391
2.8505	18.53027
2.851	11.78284
2.8515	2.21558
2.852	-1.81274
2.8525	-1.3092
2.853	8.56018
2.8535	5.43823
2.854	10.97717
2.8545	8.05664
2.855	-13.99841
2.8555	-15.00549
2.856	-18.42957
2.8565	-17.82532
2.857	-19.33594
2.8575	-21.14868
2.858	-17.6239
2.8585	-5.23682
2.859	0.30212
2.8595	2.5177
2.86	5.74036
2.8605	2.11487
2.861	-14.30054
2.8615	-41.29028
2.862	-57.20215
2.8625	-60.12268
2.863	-63.24463
2.8635	-64.55383
2.864	-49.0448
2.8645	-37.96692
2.865	-9.56726
2.8655	15.00549
2.866	33.33435
2.8665	46.62781
2.867	64.95667
2.8675	79.76074
2.868	66.76941
2.8685	56.19507
2.869	46.12427
2.8695	40.88745
2.87	15.1062
2.8705	-3.42407
2.871	-33.03223
2.8715	-63.44604
2.872	-64.95667
2.8725	-75.83313
2.873	-77.84729
2.8735	-64.05029
2.874	-52.67029
2.8745	-41.29028
2.875	-16.71753
2.8755	4.12903
2.876	18.02673
2.8765	36.65771
2.877	50.85754
2.8775	63.14392
2.878	67.57507
2.8785	73.21472
2.879	77.44446
2.8795	64.05029
2.88	42.8009
2.8805	38.67188
2.881	36.05347
2.8815	41.39099
2.882	45.52002
2.8825	45.11719
2.883	52.46887
2.8835	55.3894
2.884	60.02197
2.8845	34.54285
2.885	12.68921
2.8855	-13.59558
2.886	-15.40833
2.8865	-26.08337
2.887	-29.80957
2.8875	-22.76001
2.888	-12.08496
2.8885	-14.40125
2.889	-8.8623
2.8895	-17.22107
2.89	-35.2478
2.8905	-43.40515
2.891	-45.92285
2.8915	-50.05188
2.892	-57.60498
2.8925	-57.9071
2.893	-56.39648
2.8935	-42.8009
2.894	-21.75293
2.8945	-13.29346
2.895	-32.93152
2.8955	-50.95825
2.896	-47.33276
2.8965	-29.91028
2.897	-19.13452
2.8975	-15.40833
2.898	4.02832
2.8985	14.70337
2.899	13.09204
2.8995	9.56726
2.9	23.56567
2.9005	42.90161
2.901	58.71277
2.9015	74.72534
2.902	70.59631
2.9025	54.0802
2.903	45.82214
2.9035	47.8363
2.904	69.79065
2.9045	71.09985
2.905	60.72693
2.9055	53.77808
2.906	47.43347
2.9065	37.46338
2.907	26.58691
2.9075	18.53027
2.908	15.30762
2.9085	27.39258
2.909	43.90869
2.9095	57.50427
2.91	64.85596
2.9105	62.53967
2.911	61.02905
2.9115	53.87878
2.912	38.06763
2.9125	32.62939
2.913	20.24231
2.9135	12.18567
2.914	8.35876
2.9145	10.87646
2.915	8.66089
2.9155	4.33044
2.916	-1.3092
2.9165	-7.65381
2.917	-9.26514
2.9175	-18.42957
2.918	-15.60974
2.9185	-14.80408
2.919	-19.53735
2.9195	-12.99133
2.92	3.52478
2.9205	3.02124
2.921	-4.73328
2.9215	-13.89771
2.922	-17.22107
2.9225	-29.60815
2.923	-35.04639
2.9235	-43.50586
2.924	-46.62781
2.9245	-59.71985
2.925	-57.8064
2.9255	-52.16675
2.926	-41.99524
2.9265	-21.75293
2.927	-10.47363
2.9275	-4.43115
2.928	-3.22266
2.9285	6.94885
2.929	14.90479
2.9295	21.3501
2.93	21.65222
2.9305	26.18408
2.931	21.45081
2.9315	35.34851
2.932	17.6239
2.9325	9.06372
2.933	4.43115
2.9335	15.20691
2.934	25.47913
2.9345	26.68762
2.935	21.45081
2.9355	21.45081
2.936	19.03381
2.9365	13.09204
2.937	4.22974
2.9375	4.02832
2.938	-7.75452
2.9385	-7.25098
2.939	-3.7262
2.9395	-5.43823
2.94	-4.63257
2.9405	6.44531
2.941	13.89771
2.9415	11.88354
2.942	12.28638
2.9425	23.96851
2.943	26.58691
2.9435	29.10461
2.944	26.78833
2.9445	31.4209
2.945	33.33435
2.9455	29.20532
2.946	20.84656
2.9465	12.78992
2.947	16.91895
2.9475	12.78992
2.948	9.76868
2.9485	5.43823
2.949	13.59558
2.9495	20.34302
2.95	8.35876
2.9505	6.94885
2.951	12.18567
2.9515	17.12036
2.952	19.43665
2.9525	21.95435
2.953	9.56726
2.9535	6.04248
2.954	-5.74036
2.9545	-17.92603
2.955	-22.25647
2.9555	-23.8678
2.956	-23.06213
2.9565	-27.39258
2.957	-35.2478
2.9575	-34.84497
2.958	-30.2124
2.9585	-22.35718
2.959	-19.83948
2.9595	-17.52319
2.96	-7.15027
2.9605	5.43823
2.961	16.61682
2.9615	31.11877
2.962	31.62231
2.9625	15.60974
2.963	-0.90637
2.9635	-7.95593
2.964	-6.44531
2.9645	-4.43115
2.965	6.44531
2.9655	15.91187
2.966	13.89771
2.9665	-12.68921
2.967	-38.26904
2.9675	-53.17383
2.968	-53.37524
2.9685	-46.12427
2.969	-25.177
2.9695	-8.7616
2.97	11.48071
2.9705	9.76868
2.971	-2.61841
2.9715	6.84814
2.972	11.38
2.9725	17.52319
2.973	15.91187
2.9735	11.68213
2.974	-2.31628
2.9745	-26.88904
2.975	-52.16675
2.9755	-61.02905
2.976	-63.94958
2.9765	-54.68445
2.977	-41.39099
2.9775	-37.36267
2.978	-30.2124
2.9785	-1.2085
2.979	24.57275
2.9795	42.8009
2.98	64.55383
2.9805	73.41614
2.981	74.02039
2.9815	66.87012
2.982	64.95667
2.9825	72.81189
2.983	80.26428
2.9835	80.06287
2.984	80.56641
2.9845	68.58215
2.985	55.99365
2.9855	37.36267
2.986	31.62231
2.9865	27.6947
2.987	17.42249
2.9875	0.30212
2.988	-11.88354
2.9885	-25.78125
2.989	-38.26904
2.9895	-41.08887
2.99	-45.41931
2.9905	-31.52161
2.991	-17.42249
2.9915	-7.85522
2.992	2.92053
2.9925	-1.40991
2.993	5.63965
2.9935	22.45789
2.994	11.68213
2.9945	-9.46655
2.995	-14.80408
2.9955	-18.73169
2.996	-12.28638
2.9965	-13.49487
2.997	-12.38708
2.9975	-10.27222
2.998	10.27222
2.9985	28.80249
2.999	29.70886
2.9995	27.19116
3	38.47046
3.0005	43.20374
3.001	51.15967
3.0015	64.85596
3.002	55.18799
3.0025	32.52869
3.003	24.87488
3.0035	32.52869
3.004	35.14709
3.0045	31.62231
3.005	29.20532
3.0055	13.797
3.006	12.78992
3.0065	7.45239
3.007	14.09912
3.0075	22.05505
3.008	13.09204
3.0085	6.84814
3.009	8.05664
3.0095	7.35168
3.01	-0.70496
3.0105	-12.38708
3.011	-17.01965
3.0115	-15.30762
3.012	-17.6239
3.0125	-9.97009
3.013	7.5531
3.0135	11.98425
3.014	19.63806
3.0145	14.50195
3.015	10.87646
3.0155	8.45947
3.016	2.71912
3.0165	2.71912
3.017	9.46655
3.0175	-2.21558
3.018	-3.02124
3.0185	-11.78284
3.019	-17.32178
3.0195	-29.30603
3.02	-42.49878
3.0205	-55.3894
3.021	-52.16675
3.0215	-50.75684
3.022	-46.22498
3.0225	-43.10303
3.023	-34.03931
3.0235	-27.29187
3.024	-20.1416
3.0245	-6.3446
3.025	3.22266
3.0255	17.01965
3.026	25.47913
3.0265	30.61523
3.027	39.37683
3.0275	30.31311
3.028	20.54443
3.0285	14.50195
3.029	9.56726
3.0295	-1.10779
3.03	2.01416
3.0305	-2.61841
3.031	0.60425
3.0315	2.71912
3.032	4.02832
3.0325	6.04248
3.033	4.22974
3.0335	4.12903
3.034	6.74744
3.0345	4.53186
3.035	15.00549
3.0355	15.60974
3.036	9.06372
3.0365	-3.52478
3.037	-6.3446
3.0375	1.10779
3.038	1.00708
3.0385	8.15735
3.039	4.22974
3.0395	7.35168
3.04	7.65381
3.0405	19.53735
3.041	27.09045
3.0415	25.68054
3.042	15.60974
3.0425	13.797
3.043	13.69629
3.0435	10.87646
3.044	13.49487
3.0445	12.18567
3.045	15.60974
3.0455	26.3855
3.046	60.72693
3.0465	75.02747
3.047	64.85596
3.0475	56.29578
3.048	49.14551
3.0485	36.85913
3.049	25.98267
3.0495	20.64514
3.05	7.75452
3.0505	-4.22974
3.051	-2.61841
3.0515	-9.36584
3.052	-12.89062
3.0525	-17.72461
3.053	-26.58691
3.0535	-30.91736
3.054	-26.88904
3.0545	-21.85364
3.055	-20.94727
3.0555	-16.11328
3.056	-9.66797
3.0565	-6.14319
3.057	1.81274
3.0575	4.73328
3.058	5.43823
3.0585	13.89771
3.059	3.62549
3.0595	-6.94885
3.06	-18.73169
3.0605	-22.96143
3.061	-34.34143
3.0615	-60.62622
3.062	-95.37048
3.0625	-122.76306
3.063	-134.94873
3.0635	-132.83386
3.064	-135.65369
3.0645	-127.99988
3.065	-106.14624
3.0655	-78.75366
3.066	-45.82214
3.0665	-10.0708
3.067	21.04797
3.0675	53.17383
3.068	80.36499
3.0685	97.98889
3.069	115.10925
3.0695	126.79138
3.07	105.13916
3.0705	93.15491
3.071	97.68677
3.0715	89.328
3.072	71.50269
3.0725	76.23596
3.073	83.78906
3.0735	84.09119
3.074	78.65295
3.0745	71.80481
3.075	55.69153
3.0755	38.77258
3.076	29.80957
3.0765	30.01099
3.077	35.95276
3.0775	31.01807
3.078	30.81665
3.0785	26.88904
3.079	29.91028
3.0795	24.77417
3.08	15.00549
3.0805	3.22266
3.081	-0.90637
3.0815	1.3092
3.082	-4.02832
3.0825	-3.32336
3.083	-7.35168
3.0835	-7.75452
3.084	-11.68213
3.0845	-15.1062
3.085	-10.77576
3.0855	-7.45239
3.086	-3.02124
3.0865	-6.94885
3.087	-11.48071
3.0875	-11.2793
3.088	-15.40833
3.0885	-19.23523
3.089	-17.6239
3.0895	-2.11487
3.09	-0.70496
3.0905	-10.37292
3.091	-27.19116
3.0915	-40.68604
3.092	-43.10303
3.0925	-40.98816
3.093	-32.93152
3.0935	-30.2124
3.094	-28.39966
3.0945	-33.03223
3.095	-27.99683
3.0955	-20.04089
3.096	-18.93311
3.0965	-7.65381
3.097	-5.13611
3.0975	1.61133
3.098	-5.23682
3.0985	9.36584
3.099	16.91895
3.0995	6.94885
3.1	3.8269
3.1005	2.01416
3.101	-3.7262
3.1015	-12.18567
3.102	-33.13293
3.1025	-35.75134
3.103	-35.04639
3.1035	-36.15417
3.104	-36.95984
3.1045	-37.06055
3.105	-35.2478
3.1055	-20.54443
3.106	-6.14319
3.1065	7.35168
3.107	17.52319
3.1075	30.61523
3.108	49.0448
3.1085	51.76392
3.109	59.92126
3.1095	65.86304
3.11	63.74817
3.1105	52.97241
3.111	29.50745
3.1115	18.73169
3.112	1.10779
3.1125	-14.70337
3.113	-18.73169
3.1135	-6.44531
3.114	12.68921
3.1145	17.72461
3.115	18.63098
3.1155	40.98816
3.116	54.98657
3.1165	60.3241
3.117	58.91418
3.1175	49.34692
3.118	48.64197
3.1185	38.67188
3.119	31.11877
3.1195	16.71753
3.12	20.84656
3.1205	25.78125
3.121	24.16992
3.1215	18.53027
3.122	17.01965
3.1225	17.32178
3.123	18.02673
3.1235	3.8269
3.124	-2.81982
3.1245	-8.66089
3.125	-13.89771
3.1255	-21.14868
3.126	-31.72302
3.1265	-46.72852
3.127	-48.94409
3.1275	-42.39807
3.128	-33.23364
3.1285	-23.96851
3.129	-10.87646
3.1295	-5.74036
3.13	2.61841
3.1305	19.03381
3.131	28.09753
3.1315	37.86621
3.132	39.17542
3.1325	43.60657
3.133	37.86621
3.1335	33.23364
3.134	44.41223
3.1345	28.60107
3.135	25.57983
3.1355	24.77417
3.136	14.80408
3.1365	2.21558
3.137	-9.56726
3.1375	-12.99133
3.138	-16.3147
3.1385	-19.03381
3.139	-28.9032
3.1395	-43.50586
3.14	-44.21082
3.1405	-44.81506
3.141	-35.44922
3.1415	-32.7301
3.142	-18.73169
3.1425	-5.53894
3.143	9.56726
3.1435	25.88196
3.144	36.4563
3.1445	49.24622
3.145	53.47595
3.1455	49.34692
3.146	48.74268
3.1465	47.33276
3.147	49.0448
3.1475	36.95984
3.148	29.40674
3.1485	22.86072
3.149	27.59399
3.1495	26.58691
3.15	5.94177
3.1505	-18.8324
3.151	-34.34143
3.1515	-34.54285
3.152	-34.54285
3.1525	-24.87488
3.153	-14.40125
3.1535	-3.7262
3.154	10.77576
3.1545	2.41699
3.155	3.02124
3.1555	14.50195
3.156	22.55859
3.1565	38.67188
3.157	42.90161
3.1575	36.15417
3.158	13.99841
3.1585	1.40991
3.159	-1.00708
3.1595	-2.71912
3.16	-29.60815
3.1605	-49.44763
3.161	-62.74109
3.1615	-73.11401
3.162	-71.7041
3.1625	-71.20056
3.163	-68.48145
3.1635	-60.92834
3.164	-43.40515
3.1645	-23.26355
3.165	0.20142
3.1655	17.01965
3.166	40.98816
3.1665	48.23914
3.167	56.79932
3.1675	73.71826
3.168	80.36499
3.1685	54.28162
3.169	43.30444
3.1695	32.42798
3.17	14.70337
3.1705	-1.81274
3.171	-20.94727
3.1715	-24.97559
3.172	-28.29895
3.1725	-29.00391
3.173	-41.4917
3.1735	-38.16833
3.174	-44.0094
3.1745	-36.05347
3.175	-35.54993
3.1755	-35.65063
3.176	-32.7301
3.1765	-34.03931
3.177	-36.75842
3.1775	-31.32019
3.178	-22.55859
3.1785	-4.33044
3.179	3.12195
3.1795	16.51611
3.18	27.19116
3.1805	37.7655
3.181	44.91577
3.1815	52.16675
3.182	57.00073
3.1825	44.81506
3.183	30.61523
3.1835	33.73718
3.184	32.42798
3.1845	19.83948
3.185	9.97009
3.1855	6.3446
3.186	-2.81982
3.1865	0.40283
3.187	7.65381
3.1875	5.63965
3.188	4.63257
3.1885	11.38
3.189	29.20532
3.1895	39.27612
3.19	59.1156
3.1905	86.40747
3.191	100.50659
3.1915	100.50659
3.192	102.82288
3.1925	96.67969
3.193	82.78198
3.1935	70.49561
3.194	70.29419
3.1945	57.00073
3.195	40.68604
3.1955	31.52161
3.196	28.9032
3.1965	17.72461
3.197	15.20691
3.1975	16.11328
3.198	20.84656
3.1985	19.83948
3.199	16.41541
3.1995	12.5885
3.2	5.94177
3.2005	5.0354
3.201	5.84106
3.2015	4.43115
3.202	-1.10779
3.2025	-11.98425
3.203	-11.07788
3.2035	-11.07788
3.204	-17.82532
3.2045	-20.74585
3.205	-19.73877
3.2055	-18.12744
3.206	-9.86938
3.2065	-9.46655
3.207	-11.58142
3.2075	-13.09204
3.208	-9.06372
3.2085	-7.04956
3.209	-13.797
3.2095	-11.38
3.21	-18.12744
3.2105	-15.91187
3.211	-14.60266
3.2115	-11.98425
3.212	-10.67505
3.2125	-16.51611
3.213	-8.66089
3.2135	-9.76868
3.214	-10.0708
3.2145	-8.66089
3.215	-7.75452
3.2155	-7.35168
3.216	-2.31628
3.2165	2.41699
3.217	-2.92053
3.2175	-6.3446
3.218	-1.3092
3.2185	-5.13611
3.219	-6.14319
3.2195	-0.20142
3.22	2.92053
3.2205	5.94177
3.221	5.13611
3.2215	7.45239
3.222	17.22107
3.2225	11.78284
3.223	11.88354
3.2235	10.87646
3.224	15.1062
3.2245	9.86938
3.225	6.3446
3.2255	3.7262
3.226	-2.21558
3.2265	-10.0708
3.227	-8.35876
3.2275	-10.57434
3.228	-4.12903
3.2285	-2.81982
3.229	4.12903
3.2295	-2.81982
3.23	-4.63257
3.2305	-20.44373
3.231	-22.55859
3.2315	-23.8678
3.232	-22.05505
3.2325	-17.22107
3.233	-11.38
3.2335	2.11487
3.234	11.07788
3.2345	5.23682
3.235	1.40991
3.2355	-6.04248
3.236	-9.76868
3.2365	-8.35876
3.237	-8.15735
3.2375	-5.23682
3.238	-10.0708
3.2385	-26.58691
3.239	-44.0094
3.2395	-49.24622
3.24	-44.91577
3.2405	-40.98816
3.241	-35.44922
3.2415	-45.3186
3.242	-41.69312
3.2425	-35.85205
3.243	-21.3501
3.2435	-16.91895
3.244	-7.04956
3.2445	-2.21558
3.245	16.41541
3.2455	36.4563
3.246	52.67029
3.2465	53.97949
3.247	57.70569
3.2475	50.2533
3.248	32.32727
3.2485	16.41541
3.249	-0.20142
3.2495	-4.73328
3.25	-8.56018
3.2505	-32.02515
3.251	-31.11877
3.2515	-17.72461
3.252	-8.35876
3.2525	18.53027
3.253	63.74817
3.2535	88.72375
3.254	99.2981
3.2545	89.93225
3.255	87.11243
3.2555	86.70959
3.256	64.05029
3.2565	40.08179
3.257	23.26355
3.2575	13.69629
3.258	12.78992
3.2585	11.38
3.259	12.5885
3.2595	13.69629
3.26	10.37292
3.2605	17.82532
3.261	39.07471
3.2615	50.85754
3.262	43.80798
3.2625	36.95984
3.263	40.38391
3.2635	15.1062
3.264	-9.06372
3.2645	-21.3501
3.265	-33.43506
3.2655	-32.42798
3.266	-28.60107
3.2665	-34.24072
3.267	-33.23364
3.2675	-41.79382
3.268	-57.30286
3.2685	-57.9071
3.269	-47.33276
3.2695	-31.11877
3.27	-19.03381
3.2705	5.63965
3.271	36.95984
3.2715	49.44763
3.272	54.0802
3.2725	49.54834
3.273	52.56958
3.2735	54.48303
3.274	38.06763
3.2745	17.52319
3.275	5.94177
3.2755	-8.7616
3.276	-21.85364
3.2765	-37.66479
3.277	-41.4917
3.2775	-31.62231
3.278	-13.59558
3.2785	-2.61841
3.279	-0.50354
3.2795	-1.10779
3.28	5.53894
3.2805	8.66089
3.281	4.43115
3.2815	6.54602
3.282	15.71045
3.2825	25.68054
3.283	29.40674
3.2835	23.8678
3.284	22.35718
3.2845	23.76709
3.285	22.76001
3.2855	20.04089
3.286	13.39417
3.2865	5.53894
3.287	2.41699
3.2875	-2.21558
3.288	-2.41699
3.2885	-6.54602
3.289	-13.59558
3.2895	-15.91187
3.29	-19.13452
3.2905	-21.14868
3.291	-21.14868
3.2915	-18.02673
3.292	-19.03381
3.2925	-21.95435
3.293	-18.12744
3.2935	-17.72461
3.294	-4.93469
3.2945	-1.81274
3.295	-1.10779
3.2955	-11.68213
3.296	-3.12195
3.2965	3.7262
3.297	13.39417
3.2975	25.78125
3.298	28.50037
3.2985	27.99683
3.299	19.53735
3.2995	16.3147
3.3	16.81824
3.3005	24.67346
3.301	17.6239
3.3015	11.78284
3.302	-0.10071
3.3025	2.31628
3.303	8.96301
3.3035	15.60974
3.304	29.30603
3.3045	47.33276
3.305	48.44055
3.3055	44.21082
3.306	26.48621
3.3065	12.89062
3.307	17.12036
3.3075	13.09204
3.308	14.09912
3.3085	8.8623
3.309	3.02124
3.3095	-6.2439
3.31	-14.70337
3.3105	-34.14001
3.311	-50.85754
3.3115	-60.92834
3.312	-71.09985
3.3125	-90.73792
3.313	-92.24854
3.3135	-100.10376
3.314	-90.5365
3.3145	-79.55933
3.315	-69.68994
3.3155	-60.3241
3.316	-40.48462
3.3165	-19.03381
3.317	21.65222
3.3175	30.91736
3.318	31.52161
3.3185	38.974
3.319	49.34692
3.3195	60.02197
3.32	63.74817
3.3205	67.57507
3.321	74.2218
3.3215	67.17224
3.322	61.23047
3.3225	70.09277
3.323	74.42322
3.3235	75.53101
3.324	87.41455
3.3245	95.16907
3.325	91.14075
3.3255	78.85437
3.326	75.32959
3.3265	60.3241
3.327	38.77258
3.3275	29.10461
3.328	17.72461
3.3285	8.25806
3.329	6.2439
3.3295	9.16443
3.33	5.33752
3.3305	10.17151
3.331	12.89062
3.3315	16.21399
3.332	11.48071
3.3325	14.09912
3.333	9.56726
3.3335	10.67505
3.334	6.44531
3.3345	3.62549
3.335	-20.64514
3.3355	-44.31152
3.336	-59.31702
3.3365	-61.33118
3.337	-59.71985
3.3375	-54.28162
3.338	-49.24622
3.3385	-31.11877
3.339	-20.64514
3.3395	4.83398
3.34	8.66089
3.3405	-27.59399
3.341	-57.30286
3.3415	-68.98499
3.342	-82.37915
3.3425	-93.45703
3.343	-87.61597
3.3435	-77.44446
3.344	-62.9425
3.3445	-47.03064
3.345	-31.52161
3.3455	-13.99841
3.346	2.31628
3.3465	18.32886
3.347	27.99683
3.3475	37.06055
3.348	39.57825
3.3485	46.5271
3.349	51.76392
3.3495	47.43347
3.35	40.38391
3.3505	31.52161
3.351	19.23523
3.3515	30.11169
3.352	43.80798
3.3525	46.42639
3.353	52.26746
3.3535	63.14392
3.354	67.77649
3.3545	62.8418
3.355	67.8772
3.3555	68.17932
3.356	57.30286
3.3565	47.33276
3.357	33.23364
3.3575	25.177
3.358	22.45789
3.3585	19.13452
3.359	28.19824
3.3595	31.21948
3.36	33.63647
3.3605	35.04639
3.361	36.75842
3.3615	37.96692
3.362	38.36975
3.3625	45.62073
3.363	39.37683
3.3635	31.52161
3.364	27.6947
3.3645	16.3147
3.365	13.39417
3.3655	7.95593
3.366	-1.51062
3.3665	-7.45239
3.367	-26.68762
3.3675	-32.93152
3.368	-44.11011
3.3685	-48.84338
3.369	-46.5271
3.3695	-47.03064
3.37	-56.69861
3.3705	-60.22339
3.371	-55.99365
3.3715	-49.0448
3.372	-45.92285
3.3725	-34.34143
3.373	-19.23523
3.3735	-4.93469
3.374	8.25806
3.3745	28.50037
3.375	44.71436
3.3755	61.02905
3.376	69.08569
3.3765	66.76941
3.377	58.51135
3.3775	44.81506
3.378	30.11169
3.3785	18.02673
3.379	8.8623
3.3795	7.45239
3.38	6.44531
3.3805	17.52319
3.381	17.01965
3.3815	10.87646
3.382	5.0354
3.3825	-2.5177
3.383	-16.01257
3.3835	-18.42957
3.384	-19.43665
3.3845	-12.08496
3.385	-6.04248
3.3855	-1.81274
3.386	-3.7262
3.3865	8.56018
3.387	16.51611
3.3875	19.53735
3.388	22.25647
3.3885	30.11169
3.389	22.86072
3.3895	5.0354
3.39	8.35876
3.3905	8.05664
3.391	-4.02832
3.3915	4.22974
3.392	4.33044
3.3925	2.71912
3.393	18.8324
3.3935	26.3855
3.394	33.83789
3.3945	21.04797
3.395	11.78284
3.3955	7.15027
3.396	14.19983
3.3965	17.82532
3.397	5.23682
3.3975	-19.63806
3.398	-57.50427
3.3985	-88.0188
3.399	-95.67261
3.3995	-93.75916
3.4	-88.72375
3.4005	-80.36499
3.401	-52.97241
3.4015	-41.18958
3.402	-39.57825
3.4025	-10.0708
3.403	2.31628
3.4035	13.99841
3.404	22.15576
3.4045	17.22107
3.405	26.88904
3.4055	48.13843
3.406	70.19348
3.4065	65.56091
3.407	48.54126
3.4075	40.88745
3.408	40.48462
3.4085	41.59241
3.409	45.82214
3.4095	54.68445
3.41	51.36108
3.4105	49.85046
3.411	42.09595
3.4115	41.99524
3.412	35.85205
3.4125	33.53577
3.413	27.79541
3.4135	22.15576
3.414	21.45081
3.4145	12.08496
3.415	6.2439
3.4155	-7.15027
3.416	-3.02124
3.4165	-1.81274
3.417	-9.86938
3.4175	-10.67505
3.418	2.21558
3.4185	-3.8269
3.419	-16.41541
3.4195	-28.50037
3.42	-39.98108
3.4205	-32.7301
3.421	-22.35718
3.4215	-10.47363
3.422	9.76868
3.4225	10.67505
3.423	13.89771
3.4235	20.74585
3.424	32.42798
3.4245	45.72144
3.425	58.61206
3.4255	56.19507
3.426	48.64197
3.4265	34.94568
3.427	18.42957
3.4275	9.46655
3.428	-0.60425
3.4285	-8.25806
3.429	-14.09912
3.4295	-15.91187
3.43	-14.30054
3.4305	-22.15576
3.431	-24.47205
3.4315	-25.78125
3.432	-11.48071
3.4325	-9.06372
3.433	1.00708
3.4335	10.77576
3.434	19.73877
3.4345	15.20691
3.435	12.99133
3.4355	17.32178
3.436	19.94019
3.4365	22.6593
3.437	21.85364
3.4375	13.99841
3.438	17.01965
3.4385	-1.10779
3.439	-2.11487
3.4395	-8.7616
3.44	-9.06372
3.4405	-10.37292
3.441	-10.87646
3.4415	-7.65381
3.442	0.30212
3.4425	3.32336
3.443	12.08496
3.4435	12.18567
3.444	16.01257
3.4445	18.22815
3.445	13.99841
3.4455	2.5177
3.446	-20.94727
3.4465	-38.67188
3.447	-49.14551
3.4475	-63.14392
3.448	-57.40356
3.4485	-47.8363
3.449	-45.52002
3.4495	-36.75842
3.45	-20.84656
3.4505	-6.3446
3.451	11.68213
3.4515	23.16284
3.452	32.22656
3.4525	40.38391
3.453	46.32568
3.4535	54.38232
3.454	64.75525
3.4545	51.26038
3.455	47.63489
3.4555	32.7301
3.456	30.41382
3.4565	41.69312
3.457	41.79382
3.4575	41.29028
3.458	37.16125
3.4585	22.05505
3.459	11.07788
3.4595	6.14319
3.46	-2.61841
3.4605	-5.84106
3.461	-7.35168
3.4615	-10.97717
3.462	-7.45239
3.4625	1.91345
3.463	6.64673
3.4635	12.68921
3.464	15.91187
3.4645	9.06372
3.465	8.25806
3.4655	9.97009
3.466	6.64673
3.4665	1.10779
3.467	1.10779
3.4675	4.12903
3.468	3.32336
3.4685	2.81982
3.469	-4.33044
3.4695	-0.90637
3.47	1.10779
3.4705	1.00708
3.471	-2.92053
3.4715	-6.84814
3.472	-7.15027
3.4725	-14.80408
3.473	-8.35876
3.4735	-13.99841
3.474	-10.57434
3.4745	-21.65222
3.475	-19.73877
3.4755	-12.78992
3.476	-3.22266
3.4765	-2.61841
3.477	5.84106
3.4775	11.58142
3.478	19.43665
3.4785	21.24939
3.479	12.5885
3.4795	17.72461
3.48	8.96301
3.4805	6.94885
3.481	2.81982
3.4815	7.25098
3.482	7.85522
3.4825	4.12903
3.483	4.33044
3.4835	1.71204
3.484	-0.80566
3.4845	-4.63257
3.485	2.01416
3.4855	8.7616
3.486	6.44531
3.4865	1.61133
3.487	-2.01416
3.4875	1.91345
3.488	-6.54602
3.4885	-1.00708
3.489	-3.42407
3.4895	-3.32336
3.49	-11.78284
3.4905	-25.57983
3.491	-29.60815
3.4915	-31.21948
3.492	-28.29895
3.4925	-18.8324
3.493	-7.35168
3.4935	0.40283
3.494	10.67505
3.4945	14.30054
3.495	19.33594
3.4955	15.91187
3.496	14.90479
3.4965	23.76709
3.497	22.76001
3.4975	23.56567
3.498	16.81824
3.4985	5.0354
3.499	-9.26514
3.4995	-14.70337
3.5	-15.81116
3.5005	-14.40125
3.501	-9.97009
3.5015	-3.32336
3.502	3.8269
3.5025	13.39417
3.503	6.04248
3.5035	7.25098
3.504	8.45947
3.5045	1.81274
3.505	3.22266
3.5055	4.53186
3.506	3.8269
3.5065	-3.7262
3.507	-1.91345
3.5075	0.30212
3.508	19.94019
3.5085	34.24072
3.509	30.31311
3.5095	22.45789
3.51	16.41541
3.5105	10.27222
3.511	7.65381
3.5115	2.81982
3.512	-8.35876
3.5125	-8.7616
3.513	-7.5531
3.5135	-16.01257
3.514	3.22266
3.5145	16.51611
3.515	1.81274
3.5155	-12.38708
3.516	-21.75293
3.5165	-22.15576
3.517	-23.56567
3.5175	-19.23523
3.518	-22.86072
3.5185	-15.40833
3.519	-16.01257
3.5195	-11.48071
3.52	-17.52319
3.5205	-7.95593
3.521	-4.83398
3.5215	-0.30212
3.522	11.48071
3.5225	17.6239
3.523	27.89612
3.5235	33.03223
3.524	31.21948
3.5245	32.62939
3.525	32.02515
3.5255	35.14709
3.526	30.71594
3.5265	32.02515
3.527	28.39966
3.5275	30.51453
3.528	31.32019
3.5285	11.88354
3.529	-13.89771
3.5295	-19.94019
3.53	-20.04089
3.5305	-22.35718
3.531	-49.64905
3.5315	-64.25171
3.532	-62.64038
3.5325	-59.41772
3.533	-49.24622
3.5335	-44.41223
3.534	-32.22656
3.5345	-16.41541
3.535	0.80566
3.5355	6.3446
3.536	25.37842
3.5365	32.22656
3.537	30.31311
3.5375	31.52161
3.538	21.45081
3.5385	0.70496
3.539	-12.78992
3.5395	-18.53027
3.54	-16.81824
3.5405	-20.34302
3.541	-23.46497
3.5415	-9.36584
3.542	-5.33752
3.5425	-3.02124
3.543	4.02832
3.5435	6.2439
3.544	13.89771
3.5445	25.98267
3.545	33.23364
3.5455	30.31311
3.546	31.4209
3.5465	33.73718
3.547	55.69153
3.5475	60.82764
3.548	49.85046
3.5485	43.40515
3.549	52.8717
3.5495	58.51135
3.55	57.60498
3.5505	59.31702
3.551	59.31702
3.5515	59.31702
3.552	59.31702
3.5525	59.31702
3.553	59.31702
3.5535	59.31702
3.554	59.31702
3.5545	59.31702
3.555	59.31702
3.5555	59.31702
3.556	59.31702
3.5565	59.31702
3.557	59.31702
3.5575	59.31702
3.558	59.31702
3.5585	59.31702
3.559	59.31702
3.5595	59.31702
3.56	59.31702
3.5605	59.31702
3.561	25.68054
3.5615	23.46497
3.562	7.85522
3.5625	0.70496
3.563	4.12903
3.5635	6.74744
3.564	8.56018
3.5645	10.17151
3.565	12.08496
3.5655	7.45239
3.566	11.88354
3.5665	9.86938
3.567	3.52478
3.5675	0.40283
3.568	0.20142
3.5685	16.61682
3.569	18.12744
3.5695	10.17151
3.57	18.8324
3.5705	16.41541
3.571	21.04797
3.5715	28.39966
3.572	34.54285
3.5725	26.68762
3.573	26.58691
3.5735	15.50903
3.574	8.25806
3.5745	9.06372
3.575	0.30212
3.5755	4.33044
3.576	-5.23682
3.5765	-4.53186
3.577	-9.86938
3.5775	-4.02832
3.578	-7.5531
3.5785	-3.62549
3.579	-1.71204
3.5795	3.52478
3.58	6.84814
3.5805	11.98425
3.581	13.797
3.5815	19.03381
3.582	30.71594
3.5825	22.25647
3.583	-0.10071
3.5835	-16.3147
3.584	-30.11169
3.5845	-40.68604
3.585	-46.42639
3.5855	-20.24231
3.586	-13.19275
3.5865	-21.65222
3.587	-20.04089
3.5875	-19.73877
3.588	-20.04089
3.5885	-11.17859
3.589	6.84814
3.5895	12.28638
3.59	16.3147
3.5905	15.30762
3.591	13.49487
3.5915	13.49487
3.592	6.74744
3.5925	10.67505
3.593	8.8623
3.5935	10.77576
3.594	11.17859
3.5945	16.41541
3.595	13.39417
3.5955	13.797
3.596	8.8623
3.5965	17.12036
3.597	23.16284
3.5975	19.23523
3.598	11.98425
3.5985	-3.42407
3.599	-6.84814
3.5995	-9.06372
3.6	-15.71045
3.6005	-13.39417
3.601	-12.5885
3.6015	-5.63965
3.602	-7.5531
3.6025	-3.7262
3.603	3.42407
3.6035	3.42407
3.604	6.74744
3.6045	5.74036
3.605	6.64673
3.6055	15.71045
3.606	5.43823
3.6065	-0.40283
3.607	-6.14319
3.6075	-12.99133
3.608	-10.67505
3.6085	-16.81824
3.609	-19.33594
3.6095	-22.96143
3.61	-19.33594
3.6105	-20.1416
3.611	-19.94019
3.6115	-28.29895
3.612	-56.39648
3.6125	-83.68835
3.613	-97.38464
3.6135	-102.31934
3.614	-88.22021
3.6145	-71.30127
3.615	-60.52551
3.6155	-40.38391
3.616	-16.81824
3.6165	6.14319
3.617	35.44922
3.6175	61.02905
3.618	75.02747
3.6185	72.71118
3.619	65.86304
3.6195	58.10852
3.62	63.44604
3.6205	66.6687
3.621	71.20056
3.6215	60.12268
3.622	34.54285
3.6225	21.45081
3.623	3.52478
3.6235	-7.15027
3.624	-0.80566
3.6245	10.0708
3.625	14.80408
3.6255	10.97717
3.626	22.25647
3.6265	36.75842
3.627	37.96692
3.6275	37.26196
3.628	36.95984
3.6285	41.08887
3.629	43.80798
3.6295	44.51294
3.63	39.88037
3.6305	31.01807
3.631	29.30603
3.6315	29.60815
3.632	33.53577
3.6325	39.17542
3.633	32.62939
3.6335	33.53577
3.634	28.29895
3.6345	25.177
3.635	21.14868
3.6355	21.85364
3.636	22.15576
3.6365	19.83948
3.637	14.80408
3.6375	10.67505
3.638	3.7262
3.6385	-3.22266
3.639	-9.76868
3.6395	-10.0708
3.64	-13.69629
3.6405	-13.797
3.641	-8.7616
3.6415	-21.04797
3.642	-21.3501
3.6425	-31.72302
3.643	-41.18958
3.6435	-39.47754
3.644	-37.86621
3.6445	-40.38391
3.645	-32.22656
3.6455	-30.91736
3.646	-29.20532
3.6465	-21.04797
3.647	-12.78992
3.6475	-14.19983
3.648	-13.99841
3.6485	-15.30762
3.649	-6.2439
3.6495	0.70496
3.65	3.7262
3.6505	6.2439
3.651	-4.22974
3.6515	0.10071
3.652	9.97009
3.6525	13.39417
3.653	9.76868
3.6535	-1.51062
3.654	-8.7616
3.6545	-5.33752
3.655	-8.7616
3.6555	-7.04956
3.656	-1.91345
3.6565	0.90637
3.657	4.12903
3.6575	10.67505
3.658	27.29187
3.6585	29.10461
3.659	36.35559
3.6595	33.83789
3.66	20.64514
3.6605	7.35168
3.661	3.7262
3.6615	6.3446
3.662	6.2439
3.6625	4.22974
3.663	-1.3092
3.6635	9.56726
3.664	13.69629
3.6645	9.86938
3.665	-6.64673
3.6655	3.12195
3.666	11.2793
3.6665	7.75452
3.667	5.43823
3.6675	8.8623
3.668	10.17151
3.6685	27.49329
3.669	35.75134
3.6695	32.52869
3.67	24.37134
3.6705	26.18408
3.671	33.43506
3.6715	30.61523
3.672	26.3855
3.6725	15.30762
3.673	10.47363
3.6735	2.01416
3.674	1.81274
3.6745	1.91345
3.675	2.01416
3.6755	-1.91345
3.676	-4.22974
3.6765	-3.52478
3.677	-12.89062
3.6775	-10.77576
3.678	-5.13611
3.6785	4.83398
3.679	3.8269
3.6795	3.52478
3.68	16.51611
3.6805	8.45947
3.681	-2.11487
3.6815	10.97717
3.682	-10.27222
3.6825	-37.66479
3.683	-59.51843
3.6835	-64.85596
3.684	-71.90552
3.6845	-75.4303
3.685	-76.23596
3.6855	-70.19348
3.686	-56.90002
3.6865	-34.74426
3.687	-3.42407
3.6875	17.6239
3.688	36.25488
3.6885	53.37524
3.689	59.51843
3.6895	64.95667
3.69	70.69702
3.6905	58.51135
3.691	43.70728
3.6915	35.04639
3.692	37.06055
3.6925	36.85913
3.693	34.74426
3.6935	24.16992
3.694	25.47913
3.6945	30.41382
3.695	28.70178
3.6955	24.16992
3.696	18.63098
3.6965	17.52319
3.697	13.797
3.6975	6.84814
3.698	3.52478
3.6985	-13.89771
3.699	-24.16992
3.6995	-30.51453
3.7	-42.49878
3.7005	-49.14551
3.701	-47.03064
3.7015	-46.92993
3.702	-35.75134
3.7025	-14.60266
3.703	-5.23682
3.7035	7.25098
3.704	18.8324
3.7045	27.99683
3.705	38.87329
3.7055	44.81506
3.706	55.59082
3.7065	56.39648
3.707	52.56958
3.7075	52.06604
3.708	47.63489
3.7085	47.53418
3.709	55.49011
3.7095	51.76392
3.71	50.85754
3.7105	44.71436
3.711	36.4563
3.7115	30.71594
3.712	16.71753
3.7125	12.38708
3.713	7.5531
3.7135	-2.5177
3.714	-2.41699
3.7145	-11.78284
3.715	-15.00549
3.7155	-19.73877
3.716	-16.71753
3.7165	-14.60266
3.717	-6.74744
3.7175	3.92761
3.718	7.75452
3.7185	9.06372
3.719	13.59558
3.7195	10.57434
3.72	18.8324
3.7205	11.2793
3.721	17.32178
3.7215	14.19983
3.722	13.99841
3.7225	10.0708
3.723	7.45239
3.7235	-5.43823
3.724	-10.27222
3.7245	-19.33594
3.725	-36.65771
3.7255	-40.48462
3.726	-46.82922
3.7265	-44.31152
3.727	-35.34851
3.7275	-36.25488
3.728	-44.21082
3.7285	-45.01648
3.729	-33.53577
3.7295	-20.64514
3.73	-3.32336
3.7305	11.38
3.731	18.22815
3.7315	27.59399
3.732	21.65222
3.7325	22.15576
3.733	20.94727
3.7335	30.91736
3.734	37.56409
3.7345	35.65063
3.735	22.45789
3.7355	-7.04956
3.736	-10.0708
3.7365	-16.81824
3.737	-26.08337
3.7375	-43.30444
3.738	-46.82922
3.7385	-35.44922
3.739	-17.01965
3.7395	-4.12903
3.74	-7.45239
3.7405	-4.73328
3.741	-5.63965
3.7415	-4.53186
3.742	-0.80566
3.7425	2.71912
3.743	4.22974
3.7435	9.16443
3.744	18.12744
3.7445	40.88745
3.745	66.76941
3.7455	72.61047
3.746	55.2887
3.7465	52.46887
3.747	44.51294
3.7475	40.78674
3.748	31.72302
3.7485	36.15417
3.749	35.14709
3.7495	31.72302
3.75	23.56567
3.7505	20.34302
3.751	18.53027
3.7515	13.89771
3.752	14.90479
3.7525	10.47363
3.753	9.46655
3.7535	8.96301
3.754	-2.41699
3.7545	0.60425
3.755	-0.80566
3.7555	-13.797
3.756	-20.94727
3.7565	-1.51062
3.757	-9.26514
3.7575	-19.23523
3.758	-27.49329
3.7585	-22.86072
3.759	-21.95435
3.7595	-14.09912
3.76	-1.10779
3.7605	1.10779
3.761	1.10779
3.7615	1.10779
3.762	1.10779
3.7625	1.10779
3.763	1.10779
3.7635	1.10779
3.764	1.10779
3.7645	1.10779
3.765	1.10779
3.7655	1.10779
3.766	1.10779
3.7665	1.10779
3.767	1.10779
3.7675	1.10779
3.768	1.10779
3.7685	1.10779
3.769	1.10779
3.7695	1.10779
3.77	1.10779
3.7705	1.10779
3.771	6.94885
3.7715	-2.21558
3.772	-0.70496
3.7725	0.90637
3.773	2.5177
3.7735	-5.33752
3.774	-4.12903
3.7745	2.81982
3.775	2.11487
3.7755	14.50195
3.776	26.88904
3.7765	30.61523
3.777	38.26904
3.7775	29.30603
3.778	28.09753
3.7785	26.48621
3.779	29.10461
3.7795	23.96851
3.78	29.40674
3.7805	16.11328
3.781	16.21399
3.7815	9.46655
3.782	3.52478
3.7825	9.76868
3.783	6.74744
3.7835	1.71204
3.784	-3.12195
3.7845	2.01416
3.785	5.84106
3.7855	10.57434
3.786	18.22815
3.7865	21.14868
3.787	11.17859
3.7875	13.09204
3.788	24.77417
3.7885	31.11877
3.789	23.26355
3.7895	19.03381
3.79	19.94019
3.7905	15.40833
3.791	8.66089
3.7915	7.65381
3.792	2.21558
3.7925	5.13611
3.793	2.01416
3.7935	-2.92053
3.794	-4.22974
3.7945	-4.43115
3.795	-11.68213
3.7955	-12.89062
3.796	-12.18567
3.7965	-13.69629
3.797	-10.37292
3.7975	-27.19116
3.798	-32.42798
3.7985	-36.95984
3.799	-47.8363
3.7995	-46.5271
3.8	-42.19666
3.8005	-37.36267
3.801	-31.21948
3.8015	-23.66638
3.802	-20.44373
3.8025	-10.27222
3.803	-1.61133
3.8035	-1.10779
3.804	3.92761
3.8045	2.92053
3.805	21.45081
3.8055	29.50745
3.806	39.27612
3.8065	39.67896
3.807	29.70886
3.8075	27.49329
3.808	21.3501
3.8085	31.11877
3.809	30.2124
3.8095	31.11877
3.81	40.2832
3.8105	41.69312
3.811	36.55701
3.8115	30.11169
3.812	23.26355
3.8125	24.87488
3.813	20.94727
3.8135	19.03381
3.814	15.91187
3.8145	14.40125
3.815	7.85522
3.8155	8.7616
3.816	1.40991
3.8165	-2.92053
3.817	-5.13611
3.8175	-13.99841
3.818	-12.18567
3.8185	-14.90479
3.819	-7.65381
3.8195	8.96301
3.82	16.61682
3.8205	5.74036
3.821	-5.53894
3.8215	-14.30054
3.822	-14.90479
3.8225	-16.3147
3.823	-26.28479
3.8235	-40.78674
3.824	-45.72144
3.8245	-31.11877
3.825	-8.96301
3.8255	-5.63965
3.826	-2.11487
3.8265	11.98425
3.827	20.54443
3.8275	26.88904
3.828	20.1416
3.8285	-2.81982
3.829	-15.00549
3.8295	-24.97559
3.83	-27.99683
3.8305	-50.354
3.831	-69.08569
3.8315	-86.50818
3.832	-82.27844
3.8325	-67.37366
3.833	-49.95117
3.8335	-25.88196
3.834	-11.38
3.8345	5.0354
3.835	19.63806
3.8355	30.81665
3.836	28.60107
3.8365	47.8363
3.837	54.38232
3.8375	39.67896
3.838	37.26196
3.8385	24.37134
3.839	13.29346
3.8395	11.07788
3.84	13.29346
3.8405	19.83948
3.841	32.93152
3.8415	37.26196
3.842	38.77258
3.8425	40.08179
3.843	45.01648
3.8435	45.11719
3.844	36.25488
3.8445	20.74585
3.845	10.27222
3.8455	-0.40283
3.846	-5.84106
3.8465	-6.2439
3.847	-5.84106
3.8475	-4.63257
3.848	10.77576
3.8485	25.07629
3.849	23.26355
3.8495	24.47205
3.85	32.62939
3.8505	48.13843
3.851	43.60657
3.8515	34.84497
3.852	31.01807
3.8525	23.8678
3.853	13.99841
3.8535	4.33044
3.854	0.50354
3.8545	3.42407
3.855	0.20142
3.8555	3.42407
3.856	5.94177
3.8565	-0.10071
3.857	5.13611
3.8575	-1.91345
3.858	-2.21558
3.8585	-2.71912
3.859	-5.13611
3.8595	-9.66797
3.86	0.60425
3.8605	12.28638
3.861	8.8623
3.8615	9.46655
3.862	13.29346
3.8625	9.46655
3.863	12.89062
3.8635	11.68213
3.864	8.66089
3.8645	5.94177
3.865	12.48779
3.8655	18.63098
3.866	19.73877
3.8665	17.12036
3.867	19.63806
3.8675	11.58142
3.868	11.68213
3.8685	5.53894
3.869	5.23682
3.8695	6.14319
3.87	0.80566
3.8705	3.52478
3.871	6.2439
3.8715	11.2793
3.872	12.28638
3.8725	8.96301
3.873	10.37292
3.8735	5.63965
3.874	0.40283
3.8745	0.70496
3.875	3.8269
3.8755	0.40283
3.876	-3.22266
3.8765	-10.17151
3.877	-29.20532
3.8775	-35.34851
3.878	-33.43506
3.8785	-36.55701
3.879	-34.94568
3.8795	-27.6947
3.88	-24.06921
3.8805	-15.1062
3.881	-11.98425
3.8815	0.60425
3.882	7.04956
3.8825	6.04248
3.883	7.04956
3.8835	4.02832
3.884	5.74036
3.8845	10.87646
3.885	12.08496
3.8855	14.90479
3.886	21.75293
3.8865	10.77576
3.887	8.05664
3.8875	11.2793
3.888	15.20691
3.8885	15.30762
3.889	15.91187
3.8895	7.04956
3.89	-1.71204
3.8905	1.61133
3.891	3.42407
3.8915	4.73328
3.892	7.45239
3.8925	17.92603
3.893	21.75293
3.8935	19.83948
3.894	20.84656
3.8945	21.75293
3.895	22.05505
3.8955	23.36426
3.896	21.75293
3.8965	19.73877
3.897	18.32886
3.8975	18.93311
3.898	7.45239
3.8985	9.97009
3.899	18.93311
3.8995	17.72461
3.9	23.26355
3.9005	38.16833
3.901	36.35559
3.9015	45.82214
3.902	52.06604
3.9025	52.771
3.903	43.10303
3.9035	34.14001
3.904	27.29187
3.9045	13.29346
3.905	18.12744
3.9055	18.12744
3.906	19.23523
3.9065	23.16284
3.907	20.1416
3.9075	18.42957
3.908	13.797
3.9085	8.56018
3.909	5.33752
3.9095	13.39417
3.91	13.59558
3.9105	10.77576
3.911	11.58142
3.9115	6.94885
3.912	5.74036
3.9125	-1.71204
3.913	0
3.9135	-4.33044
3.914	-2.01416
3.9145	0.20142
3.915	-3.02124
3.9155	-14.60266
3.916	-32.83081
3.9165	-41.69312
3.917	-31.72302
3.9175	-33.63647
3.918	-34.74426
3.9185	-36.65771
3.919	-26.88904
3.9195	-26.08337
3.92	-10.57434
3.9205	-7.85522
3.921	2.92053
3.9215	17.52319
3.922	23.56567
3.9225	28.29895
3.923	34.64355
3.9235	36.65771
3.924	39.17542
3.9245	47.13135
3.925	36.25488
3.9255	25.37842
3.926	19.13452
3.9265	14.70337
3.927	1.40991
3.9275	-1.40991
3.928	0
3.9285	-6.04248
3.929	-20.04089
3.9295	-42.8009
3.93	-52.16675
3.9305	-51.26038
3.931	-40.1825
