Leonardo_Garofalo_Left_2.c3d  



Time(s):	A_L_bicipite(μV):
0	-0.10071
0.0005	2.71912
0.001	5.84106
0.0015	6.74744
0.002	6.3446
0.0025	5.13611
0.003	5.74036
0.0035	0
0.004	1.51062
0.0045	5.13611
0.005	12.38708
0.0055	5.23682
0.006	8.8623
0.0065	5.53894
0.007	10.37292
0.0075	8.66089
0.008	8.66089
0.0085	5.13611
0.009	5.63965
0.0095	8.7616
0.01	8.05664
0.0105	8.56018
0.011	3.8269
0.0115	4.63257
0.012	7.85522
0.0125	12.48779
0.013	12.28638
0.0135	12.48779
0.014	9.26514
0.0145	6.84814
0.015	6.54602
0.0155	3.92761
0.016	5.94177
0.0165	3.22266
0.017	5.0354
0.0175	8.56018
0.018	0.20142
0.0185	8.7616
0.019	-1.81274
0.0195	3.22266
0.02	2.31628
0.0205	0.70496
0.021	2.11487
0.0215	9.06372
0.022	3.02124
0.0225	6.94885
0.023	3.32336
0.0235	-2.61841
0.024	5.53894
0.0245	7.95593
0.025	8.25806
0.0255	9.26514
0.026	11.17859
0.0265	8.25806
0.027	9.56726
0.0275	3.22266
0.028	6.14319
0.0285	10.0708
0.029	8.25806
0.0295	9.16443
0.03	8.56018
0.0305	7.15027
0.031	7.75452
0.0315	1.40991
0.032	-0.60425
0.0325	3.52478
0.033	6.04248
0.0335	5.74036
0.034	1.91345
0.0345	-0.40283
0.035	-5.0354
0.0355	-2.41699
0.036	-4.83398
0.0365	5.13611
0.037	3.12195
0.0375	2.81982
0.038	3.32336
0.0385	4.93469
0.039	4.43115
0.0395	9.97009
0.04	12.78992
0.0405	5.43823
0.041	6.44531
0.0415	4.22974
0.042	3.62549
0.0425	1.91345
0.043	3.8269
0.0435	-0.90637
0.044	5.74036
0.0445	8.7616
0.045	4.73328
0.0455	6.44531
0.046	9.66797
0.0465	10.77576
0.047	8.66089
0.0475	11.48071
0.048	7.45239
0.0485	6.84814
0.049	11.38
0.0495	7.75452
0.05	6.54602
0.0505	5.84106
0.051	3.7262
0.0515	1.91345
0.052	6.04248
0.0525	8.66089
0.053	6.14319
0.0535	10.67505
0.054	8.56018
0.0545	1.2085
0.055	0.70496
0.0555	10.47363
0.056	0.50354
0.0565	2.5177
0.057	0.40283
0.0575	-0.60425
0.058	0.40283
0.0585	-2.5177
0.059	-1.2085
0.0595	-1.71204
0.06	0.60425
0.0605	-2.31628
0.061	-0.20142
0.0615	-0.80566
0.062	-4.22974
0.0625	-1.91345
0.063	2.5177
0.0635	6.04248
0.064	5.94177
0.0645	9.26514
0.065	4.53186
0.0655	1.10779
0.066	3.52478
0.0665	7.45239
0.067	9.36584
0.0675	10.17151
0.068	11.88354
0.0685	8.25806
0.069	8.45947
0.0695	14.70337
0.07	8.25806
0.0705	11.98425
0.071	13.19275
0.0715	15.91187
0.072	15.20691
0.0725	19.03381
0.073	10.97717
0.0735	8.56018
0.074	12.68921
0.0745	8.35876
0.075	13.99841
0.0755	11.38
0.076	7.75452
0.0765	9.86938
0.077	6.94885
0.0775	9.36584
0.078	11.78284
0.0785	13.09204
0.079	8.05664
0.0795	5.84106
0.08	10.67505
0.0805	1.10779
0.081	0.30212
0.0815	-0.90637
0.082	4.63257
0.0825	7.15027
0.083	5.94177
0.0835	-1.00708
0.084	0.10071
0.0845	-1.3092
0.085	0.50354
0.0855	8.35876
0.086	7.25098
0.0865	7.45239
0.087	6.74744
0.0875	6.04248
0.088	1.61133
0.0885	4.63257
0.089	6.74744
0.0895	3.7262
0.09	1.81274
0.0905	3.62549
0.091	4.73328
0.0915	3.8269
0.092	3.22266
0.0925	-1.3092
0.093	2.5177
0.0935	-5.23682
0.094	-2.81982
0.0945	-0.80566
0.095	0.50354
0.0955	5.0354
0.096	2.01416
0.0965	0.10071
0.097	1.2085
0.0975	6.14319
0.098	-0.40283
0.0985	-4.02832
0.099	0.80566
0.0995	7.04956
0.1	7.5531
0.1005	-1.61133
0.101	5.63965
0.1015	-1.3092
0.102	0.40283
0.1025	1.2085
0.103	-0.50354
0.1035	-1.71204
0.104	4.93469
0.1045	2.81982
0.105	6.04248
0.1055	1.2085
0.106	4.22974
0.1065	2.01416
0.107	-1.51062
0.1075	5.33752
0.108	0.40283
0.1085	-0.90637
0.109	6.2439
0.1095	4.43115
0.11	-1.2085
0.1105	1.2085
0.111	2.31628
0.1115	3.52478
0.112	2.92053
0.1125	2.01416
0.113	4.22974
0.1135	5.0354
0.114	2.01416
0.1145	-0.50354
0.115	1.00708
0.1155	4.83398
0.116	4.53186
0.1165	12.5885
0.117	8.96301
0.1175	12.38708
0.118	7.45239
0.1185	10.57434
0.119	11.98425
0.1195	7.85522
0.12	14.30054
0.1205	8.96301
0.121	9.86938
0.1215	10.67505
0.122	9.46655
0.1225	8.45947
0.123	7.15027
0.1235	5.0354
0.124	2.41699
0.1245	1.81274
0.125	-2.11487
0.1255	8.66089
0.126	7.25098
0.1265	7.45239
0.127	0.60425
0.1275	5.43823
0.128	3.8269
0.1285	1.40991
0.129	-2.21558
0.1295	-5.33752
0.13	2.21558
0.1305	-1.40991
0.131	-4.63257
0.1315	2.01416
0.132	4.22974
0.1325	2.11487
0.133	4.02832
0.1335	2.01416
0.134	-0.10071
0.1345	-3.02124
0.135	-0.30212
0.1355	-1.00708
0.136	1.00708
0.1365	3.12195
0.137	4.33044
0.1375	0.40283
0.138	-3.12195
0.1385	-2.41699
0.139	-9.76868
0.1395	-0.70496
0.14	5.63965
0.1405	-1.3092
0.141	-3.62549
0.1415	-7.35168
0.142	-9.86938
0.1425	-3.92761
0.143	-2.5177
0.1435	9.26514
0.144	4.83398
0.1445	3.52478
0.145	5.13611
0.1455	0
0.146	4.02832
0.1465	5.13611
0.147	2.31628
0.1475	5.33752
0.148	8.8623
0.1485	8.56018
0.149	2.71912
0.1495	4.93469
0.15	-2.01416
0.1505	1.2085
0.151	3.12195
0.1515	-0.10071
0.152	1.10779
0.1525	4.83398
0.153	4.73328
0.1535	2.31628
0.154	0.10071
0.1545	1.91345
0.155	3.62549
0.1555	4.73328
0.156	3.12195
0.1565	5.53894
0.157	9.06372
0.1575	5.13611
0.158	11.58142
0.1585	8.25806
0.159	7.35168
0.1595	5.53894
0.16	7.25098
0.1605	9.46655
0.161	7.85522
0.1615	6.74744
0.162	3.62549
0.1625	6.14319
0.163	7.65381
0.1635	6.84814
0.164	4.83398
0.1645	7.5531
0.165	7.45239
0.1655	3.62549
0.166	2.71912
0.1665	5.13611
0.167	5.84106
0.1675	8.45947
0.168	10.87646
0.1685	6.04248
0.169	3.52478
0.1695	3.12195
0.17	2.92053
0.1705	5.43823
0.171	2.92053
0.1715	3.02124
0.172	8.8623
0.1725	9.26514
0.173	6.14319
0.1735	4.12903
0.174	10.77576
0.1745	2.5177
0.175	4.02832
0.1755	0.10071
0.176	4.22974
0.1765	5.94177
0.177	9.76868
0.1775	6.2439
0.178	8.8623
0.1785	12.68921
0.179	9.36584
0.1795	8.66089
0.18	10.17151
0.1805	10.47363
0.181	10.17151
0.1815	10.77576
0.182	6.94885
0.1825	6.54602
0.183	11.58142
0.1835	12.5885
0.184	5.63965
0.1845	4.83398
0.185	3.32336
0.1855	5.74036
0.186	7.25098
0.1865	2.31628
0.187	7.15027
0.1875	4.22974
0.188	3.62549
0.1885	2.92053
0.189	2.41699
0.1895	8.35876
0.19	5.94177
0.1905	7.15027
0.191	5.53894
0.1915	3.12195
0.192	2.61841
0.1925	3.42407
0.193	2.92053
0.1935	5.53894
0.194	8.15735
0.1945	6.2439
0.195	1.61133
0.1955	-3.7262
0.196	4.93469
0.1965	2.11487
0.197	-0.60425
0.1975	1.3092
0.198	4.93469
0.1985	8.7616
0.199	0.70496
0.1995	2.81982
0.2	5.43823
0.2005	0.50354
0.201	4.12903
0.2015	1.00708
0.202	1.61133
0.2025	5.23682
0.203	1.51062
0.2035	-1.3092
0.204	0.90637
0.2045	0
0.205	3.62549
0.2055	5.63965
0.206	4.73328
0.2065	1.81274
0.207	8.15735
0.2075	3.32336
0.208	4.22974
0.2085	7.5531
0.209	9.46655
0.2095	9.16443
0.21	9.97009
0.2105	5.63965
0.211	8.8623
0.2115	12.28638
0.212	6.64673
0.2125	5.0354
0.213	2.71912
0.2135	1.40991
0.214	12.18567
0.2145	6.3446
0.215	4.33044
0.2155	-1.81274
0.216	0.10071
0.2165	1.81274
0.217	1.71204
0.2175	4.63257
0.218	6.2439
0.2185	6.94885
0.219	12.68921
0.2195	15.60974
0.22	12.38708
0.2205	6.74744
0.221	8.05664
0.2215	7.15027
0.222	4.73328
0.2225	4.33044
0.223	6.04248
0.2235	10.77576
0.224	5.53894
0.2245	7.04956
0.225	7.95593
0.2255	7.35168
0.226	6.14319
0.2265	7.85522
0.227	7.04956
0.2275	6.54602
0.228	7.04956
0.2285	6.64673
0.229	11.58142
0.2295	6.44531
0.23	5.63965
0.2305	7.25098
0.231	10.27222
0.2315	7.75452
0.232	6.04248
0.2325	4.73328
0.233	5.84106
0.2335	3.92761
0.234	3.62549
0.2345	6.04248
0.235	9.06372
0.2355	4.63257
0.236	6.14319
0.2365	6.14319
0.237	5.63965
0.2375	2.5177
0.238	8.15735
0.2385	8.7616
0.239	10.97717
0.2395	6.74744
0.24	3.52478
0.2405	3.02124
0.241	-1.3092
0.2415	-2.41699
0.242	1.2085
0.2425	4.12903
0.243	7.35168
0.2435	3.52478
0.244	3.92761
0.2445	2.01416
0.245	2.11487
0.2455	2.61841
0.246	1.71204
0.2465	3.12195
0.247	4.93469
0.2475	1.3092
0.248	10.37292
0.2485	7.65381
0.249	6.84814
0.2495	5.53894
0.25	8.45947
0.2505	8.15735
0.251	8.45947
0.2515	5.13611
0.252	11.68213
0.2525	13.19275
0.253	9.76868
0.2535	9.76868
0.254	9.46655
0.2545	13.89771
0.255	10.0708
0.2555	5.33752
0.256	8.35876
0.2565	4.33044
0.257	5.33752
0.2575	3.32336
0.258	5.33752
0.2585	6.44531
0.259	1.00708
0.2595	3.32336
0.26	2.41699
0.2605	7.35168
0.261	3.22266
0.2615	7.25098
0.262	7.35168
0.2625	4.83398
0.263	7.95593
0.2635	9.86938
0.264	-0.10071
0.2645	-0.30212
0.265	2.81982
0.2655	1.71204
0.266	3.22266
0.2665	4.93469
0.267	2.01416
0.2675	-0.30212
0.268	0.90637
0.2685	-0.30212
0.269	-5.0354
0.2695	0.80566
0.27	-0.30212
0.2705	7.5531
0.271	5.84106
0.2715	7.45239
0.272	7.45239
0.2725	5.0354
0.273	6.3446
0.2735	12.08496
0.274	9.16443
0.2745	9.46655
0.275	5.43823
0.2755	3.8269
0.276	-1.81274
0.2765	4.33044
0.277	7.65381
0.2775	1.40991
0.278	2.92053
0.2785	4.73328
0.279	6.74744
0.2795	7.15027
0.28	3.62549
0.2805	6.84814
0.281	-0.40283
0.2815	5.33752
0.282	5.63965
0.2825	5.13611
0.283	3.7262
0.2835	-1.40991
0.284	-0.20142
0.2845	-3.52478
0.285	-0.50354
0.2855	2.01416
0.286	2.01416
0.2865	7.85522
0.287	6.2439
0.2875	6.74744
0.288	5.13611
0.2885	5.53894
0.289	3.62549
0.2895	1.71204
0.29	5.53894
0.2905	6.74744
0.291	6.84814
0.2915	6.54602
0.292	6.3446
0.2925	2.92053
0.293	4.53186
0.2935	7.35168
0.294	10.67505
0.2945	14.50195
0.295	11.98425
0.2955	11.88354
0.296	12.18567
0.2965	7.5531
0.297	11.38
0.2975	13.99841
0.298	12.08496
0.2985	7.65381
0.299	8.8623
0.2995	10.57434
0.3	7.45239
0.3005	5.53894
0.301	4.83398
0.3015	7.95593
0.302	8.66089
0.3025	8.35876
0.303	6.74744
0.3035	6.14319
0.304	3.7262
0.3045	8.35876
0.305	2.5177
0.3055	6.3446
0.306	2.31628
0.3065	6.14319
0.307	5.94177
0.3075	3.32336
0.308	7.04956
0.3085	10.27222
0.309	9.56726
0.3095	7.45239
0.31	7.35168
0.3105	10.87646
0.311	9.06372
0.3115	8.7616
0.312	13.89771
0.3125	8.45947
0.313	8.35876
0.3135	9.66797
0.314	10.17151
0.3145	8.56018
0.315	9.36584
0.3155	11.07788
0.316	5.63965
0.3165	3.12195
0.317	6.3446
0.3175	-2.11487
0.318	0
0.3185	-3.32336
0.319	-4.22974
0.3195	-5.0354
0.32	-0.80566
0.3205	-2.01416
0.321	-0.90637
0.3215	5.94177
0.322	2.41699
0.3225	-2.92053
0.323	2.11487
0.3235	5.74036
0.324	2.71912
0.3245	4.63257
0.325	5.74036
0.3255	4.33044
0.326	3.8269
0.3265	1.3092
0.327	1.71204
0.3275	2.81982
0.328	4.93469
0.3285	1.61133
0.329	5.43823
0.3295	3.92761
0.33	7.75452
0.3305	4.12903
0.331	7.5531
0.3315	7.45239
0.332	5.33752
0.3325	6.3446
0.333	6.84814
0.3335	2.61841
0.334	4.83398
0.3345	-0.30212
0.335	2.81982
0.3355	3.12195
0.336	1.61133
0.3365	3.32336
0.337	3.22266
0.3375	1.10779
0.338	8.66089
0.3385	6.94885
0.339	2.01416
0.3395	1.61133
0.34	5.23682
0.3405	4.12903
0.341	4.43115
0.3415	3.32336
0.342	5.84106
0.3425	9.97009
0.343	12.18567
0.3435	5.43823
0.344	1.71204
0.3445	9.26514
0.345	7.04956
0.3455	4.93469
0.346	3.02124
0.3465	4.53186
0.347	3.92761
0.3475	5.13611
0.348	0.70496
0.3485	4.33044
0.349	10.97717
0.3495	7.25098
0.35	7.25098
0.3505	4.83398
0.351	8.35876
0.3515	1.61133
0.352	5.74036
0.3525	11.48071
0.353	10.47363
0.3535	10.87646
0.354	6.94885
0.3545	3.62549
0.355	4.12903
0.3555	6.84814
0.356	9.26514
0.3565	10.67505
0.357	4.22974
0.3575	3.32336
0.358	10.57434
0.3585	11.07788
0.359	8.66089
0.3595	6.14319
0.36	6.64673
0.3605	4.02832
0.361	4.63257
0.3615	2.61841
0.362	-1.91345
0.3625	-7.45239
0.363	-2.92053
0.3635	5.53894
0.364	5.23682
0.3645	4.53186
0.365	9.36584
0.3655	3.92761
0.366	6.04248
0.3665	1.51062
0.367	5.84106
0.3675	3.22266
0.368	5.13611
0.3685	-1.3092
0.369	3.22266
0.3695	2.92053
0.37	1.61133
0.3705	1.71204
0.371	0.40283
0.3715	5.53894
0.372	4.73328
0.3725	7.15027
0.373	0.90637
0.3735	2.11487
0.374	4.02832
0.3745	2.21558
0.375	-2.5177
0.3755	4.83398
0.376	5.0354
0.3765	2.71912
0.377	0.60425
0.3775	-0.80566
0.378	-0.10071
0.3785	4.53186
0.379	-0.70496
0.3795	0.50354
0.38	3.8269
0.3805	-1.40991
0.381	2.01416
0.3815	1.2085
0.382	3.62549
0.3825	3.52478
0.383	1.71204
0.3835	1.81274
0.384	0.30212
0.3845	4.53186
0.385	4.12903
0.3855	3.62549
0.386	5.53894
0.3865	7.65381
0.387	9.86938
0.3875	8.56018
0.388	4.22974
0.3885	7.75452
0.389	7.95593
0.3895	6.14319
0.39	2.31628
0.3905	10.0708
0.391	9.16443
0.3915	10.47363
0.392	9.56726
0.3925	6.74744
0.393	2.01416
0.3935	6.2439
0.394	6.14319
0.3945	9.66797
0.395	6.2439
0.3955	11.88354
0.396	8.15735
0.3965	9.06372
0.397	-0.40283
0.3975	1.3092
0.398	2.41699
0.3985	1.51062
0.399	4.43115
0.3995	5.0354
0.4	2.61841
0.4005	5.23682
0.401	6.64673
0.4015	0
0.402	1.61133
0.4025	2.21558
0.403	5.0354
0.4035	5.74036
0.404	7.85522
0.4045	9.36584
0.405	4.73328
0.4055	2.41699
0.406	1.51062
0.4065	9.36584
0.407	13.99841
0.4075	11.68213
0.408	1.71204
0.4085	7.35168
0.409	8.66089
0.4095	7.85522
0.41	8.96301
0.4105	6.94885
0.411	8.66089
0.4115	13.19275
0.412	12.89062
0.4125	4.83398
0.413	6.84814
0.4135	5.63965
0.414	9.16443
0.4145	8.35876
0.415	5.53894
0.4155	12.5885
0.416	8.66089
0.4165	7.95593
0.417	5.13611
0.4175	5.84106
0.418	6.64673
0.4185	9.16443
0.419	7.85522
0.4195	4.73328
0.42	5.53894
0.4205	11.2793
0.421	4.43115
0.4215	7.15027
0.422	14.60266
0.4225	11.17859
0.423	7.95593
0.4235	10.47363
0.424	9.76868
0.4245	7.45239
0.425	7.65381
0.4255	12.5885
0.426	11.07788
0.4265	11.07788
0.427	11.48071
0.4275	12.18567
0.428	9.66797
0.4285	13.69629
0.429	12.38708
0.4295	10.47363
0.43	13.29346
0.4305	8.45947
0.431	7.35168
0.4315	3.7262
0.432	6.04248
0.4325	7.95593
0.433	3.8269
0.4335	3.42407
0.434	7.75452
0.4345	9.97009
0.435	9.06372
0.4355	11.2793
0.436	8.25806
0.4365	11.78284
0.437	9.66797
0.4375	11.58142
0.438	8.8623
0.4385	7.5531
0.439	9.46655
0.4395	12.5885
0.44	4.12903
0.4405	5.23682
0.441	3.92761
0.4415	9.56726
0.442	7.5531
0.4425	4.22974
0.443	2.01416
0.4435	2.11487
0.444	2.61841
0.4445	6.2439
0.445	7.35168
0.4455	5.94177
0.446	7.65381
0.4465	5.43823
0.447	3.22266
0.4475	4.43115
0.448	-0.30212
0.4485	5.0354
0.449	3.62549
0.4495	3.8269
0.45	-0.10071
0.4505	2.5177
0.451	8.15735
0.4515	2.71912
0.452	1.61133
0.4525	2.5177
0.453	3.52478
0.4535	4.43115
0.454	4.93469
0.4545	10.57434
0.455	8.66089
0.4555	8.7616
0.456	7.95593
0.4565	9.76868
0.457	3.12195
0.4575	7.75452
0.458	12.68921
0.4585	14.40125
0.459	14.40125
0.4595	5.94177
0.46	7.75452
0.4605	7.5531
0.461	6.74744
0.4615	6.54602
0.462	3.92761
0.4625	-1.3092
0.463	2.11487
0.4635	2.21558
0.464	1.91345
0.4645	0.40283
0.465	4.12903
0.4655	-0.30212
0.466	-1.10779
0.4665	3.22266
0.467	5.33752
0.4675	5.0354
0.468	6.54602
0.4685	-2.71912
0.469	0.50354
0.4695	-0.50354
0.47	5.94177
0.4705	3.42407
0.471	5.43823
0.4715	3.52478
0.472	1.00708
0.4725	4.43115
0.473	7.04956
0.4735	4.53186
0.474	4.53186
0.4745	0.90637
0.475	2.11487
0.4755	3.42407
0.476	4.33044
0.4765	9.66797
0.477	-0.30212
0.4775	4.02832
0.478	0.20142
0.4785	0.10071
0.479	3.62549
0.4795	6.54602
0.48	2.81982
0.4805	3.22266
0.481	2.61841
0.4815	-1.10779
0.482	5.13611
0.4825	-0.50354
0.483	-0.80566
0.4835	7.5531
0.484	8.56018
0.4845	12.28638
0.485	6.44531
0.4855	2.81982
0.486	9.97009
0.4865	3.12195
0.487	4.22974
0.4875	3.42407
0.488	0.30212
0.4885	1.71204
0.489	-3.22266
0.4895	-0.50354
0.49	1.00708
0.4905	6.2439
0.491	3.62549
0.4915	-2.11487
0.492	-3.62549
0.4925	-1.00708
0.493	-0.10071
0.4935	0.10071
0.494	4.12903
0.4945	2.31628
0.495	5.74036
0.4955	4.53186
0.496	-1.2085
0.4965	0.70496
0.497	5.13611
0.4975	3.32336
0.498	6.84814
0.4985	1.71204
0.499	5.33752
0.4995	9.56726
0.5	9.86938
0.5005	11.58142
0.501	3.12195
0.5015	0.90637
0.502	5.23682
0.5025	3.42407
0.503	3.02124
0.5035	0.30212
0.504	4.73328
0.5045	6.44531
0.505	5.23682
0.5055	6.74744
0.506	7.15027
0.5065	5.23682
0.507	6.54602
0.5075	6.94885
0.508	11.78284
0.5085	10.17151
0.509	15.30762
0.5095	10.67505
0.51	11.68213
0.5105	14.09912
0.511	13.797
0.5115	12.48779
0.512	16.51611
0.5125	7.04956
0.513	5.84106
0.5135	9.46655
0.514	5.23682
0.5145	5.94177
0.515	8.7616
0.5155	3.12195
0.516	3.32336
0.5165	4.12903
0.517	5.43823
0.5175	1.2085
0.518	4.43115
0.5185	5.0354
0.519	9.46655
0.5195	14.09912
0.52	9.56726
0.5205	6.94885
0.521	3.92761
0.5215	2.92053
0.522	3.7262
0.5225	3.52478
0.523	3.52478
0.5235	7.45239
0.524	4.12903
0.5245	2.61841
0.525	-1.10779
0.5255	7.95593
0.526	6.14319
0.5265	1.51062
0.527	5.74036
0.5275	0
0.528	-0.80566
0.5285	0.20142
0.529	2.92053
0.5295	2.21558
0.53	1.91345
0.5305	3.02124
0.531	2.21558
0.5315	7.04956
0.532	3.92761
0.5325	3.92761
0.533	3.52478
0.5335	3.62549
0.534	4.12903
0.5345	5.0354
0.535	9.46655
0.5355	4.73328
0.536	6.84814
0.5365	5.43823
0.537	10.97717
0.5375	12.99133
0.538	9.16443
0.5385	8.66089
0.539	14.19983
0.5395	12.48779
0.54	5.84106
0.5405	10.17151
0.541	8.66089
0.5415	14.30054
0.542	8.25806
0.5425	10.37292
0.543	7.75452
0.5435	20.84656
0.544	13.49487
0.5445	14.19983
0.545	12.68921
0.5455	7.5531
0.546	10.77576
0.5465	15.60974
0.547	10.0708
0.5475	7.65381
0.548	8.7616
0.5485	11.38
0.549	7.85522
0.5495	1.00708
0.55	-0.60425
0.5505	1.40991
0.551	5.23682
0.5515	4.12903
0.552	7.45239
0.5525	10.17151
0.553	10.77576
0.5535	9.16443
0.554	10.57434
0.5545	5.0354
0.555	3.22266
0.5555	8.35876
0.556	2.31628
0.5565	6.84814
0.557	9.46655
0.5575	2.5177
0.558	8.56018
0.5585	7.04956
0.559	9.36584
0.5595	7.85522
0.56	9.97009
0.5605	7.65381
0.561	11.78284
0.5615	7.85522
0.562	6.3446
0.5625	7.75452
0.563	6.3446
0.5635	14.30054
0.564	7.5531
0.5645	4.02832
0.565	8.15735
0.5655	11.38
0.566	8.56018
0.5665	9.16443
0.567	7.65381
0.5675	8.7616
0.568	9.66797
0.5685	11.48071
0.569	12.38708
0.5695	7.65381
0.57	9.26514
0.5705	4.33044
0.571	2.92053
0.5715	8.35876
0.572	10.97717
0.5725	7.35168
0.573	6.44531
0.5735	6.64673
0.574	6.14319
0.5745	2.92053
0.575	9.97009
0.5755	6.94885
0.576	6.74744
0.5765	2.61841
0.577	2.92053
0.5775	2.61841
0.578	-0.20142
0.5785	8.8623
0.579	4.43115
0.5795	12.48779
0.58	13.09204
0.5805	9.06372
0.581	11.58142
0.5815	17.6239
0.582	14.70337
0.5825	16.61682
0.583	18.12744
0.5835	20.34302
0.584	14.80408
0.5845	10.67505
0.585	11.78284
0.5855	7.5531
0.586	13.797
0.5865	7.35168
0.587	5.33752
0.5875	6.3446
0.588	6.14319
0.5885	3.22266
0.589	5.33752
0.5895	8.15735
0.59	13.49487
0.5905	7.75452
0.591	6.94885
0.5915	5.23682
0.592	2.41699
0.5925	9.76868
0.593	5.84106
0.5935	5.33752
0.594	6.14319
0.5945	10.67505
0.595	8.15735
0.5955	13.89771
0.596	10.0708
0.5965	8.35876
0.597	3.92761
0.5975	6.94885
0.598	13.09204
0.5985	8.66089
0.599	13.39417
0.5995	8.25806
0.6	5.53894
0.6005	7.25098
0.601	8.25806
0.6015	7.75452
0.602	9.76868
0.6025	13.49487
0.603	1.51062
0.6035	9.56726
0.604	8.66089
0.6045	7.45239
0.605	12.78992
0.6055	9.36584
0.606	9.16443
0.6065	12.68921
0.607	11.48071
0.6075	12.28638
0.608	13.797
0.6085	14.70337
0.609	8.96301
0.6095	9.16443
0.61	7.85522
0.6105	9.56726
0.611	7.85522
0.6115	14.90479
0.612	8.7616
0.6125	10.37292
0.613	12.78992
0.6135	16.01257
0.614	16.51611
0.6145	13.19275
0.615	16.21399
0.6155	13.89771
0.616	12.5885
0.6165	13.49487
0.617	11.58142
0.6175	14.30054
0.618	14.60266
0.6185	19.94019
0.619	12.28638
0.6195	5.53894
0.62	10.27222
0.6205	5.84106
0.621	8.05664
0.6215	10.47363
0.622	9.46655
0.6225	16.81824
0.623	9.06372
0.6235	2.11487
0.624	8.15735
0.6245	6.54602
0.625	5.94177
0.6255	6.84814
0.626	5.94177
0.6265	4.02832
0.627	6.74744
0.6275	7.65381
0.628	1.71204
0.6285	2.5177
0.629	-2.61841
0.6295	-3.02124
0.63	-4.22974
0.6305	3.22266
0.631	-0.20142
0.6315	3.62549
0.632	-0.80566
0.6325	4.93469
0.633	-2.31628
0.6335	0.30212
0.634	0.90637
0.6345	6.64673
0.635	4.73328
0.6355	5.94177
0.636	5.33752
0.6365	3.42407
0.637	3.52478
0.6375	3.42407
0.638	0.40283
0.6385	5.94177
0.639	9.06372
0.6395	8.56018
0.64	3.32336
0.6405	4.53186
0.641	1.51062
0.6415	2.41699
0.642	1.00708
0.6425	-0.70496
0.643	3.92761
0.6435	6.14319
0.644	8.45947
0.6445	4.33044
0.645	-1.3092
0.6455	6.14319
0.646	7.75452
0.6465	13.39417
0.647	10.77576
0.6475	10.27222
0.648	13.99841
0.6485	12.5885
0.649	9.16443
0.6495	7.15027
0.65	11.2793
0.6505	7.95593
0.651	1.91345
0.6515	6.74744
0.652	9.56726
0.6525	12.18567
0.653	8.96301
0.6535	10.77576
0.654	12.5885
0.6545	13.99841
0.655	9.46655
0.6555	8.56018
0.656	6.84814
0.6565	5.53894
0.657	10.47363
0.6575	6.84814
0.658	6.3446
0.6585	9.76868
0.659	6.84814
0.6595	7.65381
0.66	7.04956
0.6605	6.04248
0.661	7.04956
0.6615	5.13611
0.662	4.12903
0.6625	0.80566
0.663	7.5531
0.6635	3.8269
0.664	6.44531
0.6645	3.62549
0.665	9.56726
0.6655	6.84814
0.666	5.43823
0.6665	9.16443
0.667	1.10779
0.6675	4.43115
0.668	12.89062
0.6685	10.27222
0.669	13.19275
0.6695	11.78284
0.67	9.16443
0.6705	6.04248
0.671	9.97009
0.6715	11.07788
0.672	9.06372
0.6725	10.27222
0.673	12.08496
0.6735	9.36584
0.674	6.64673
0.6745	2.61841
0.675	-1.3092
0.6755	1.3092
0.676	2.61841
0.6765	5.43823
0.677	3.92761
0.6775	9.56726
0.678	9.46655
0.6785	13.19275
0.679	8.7616
0.6795	3.92761
0.68	-1.51062
0.6805	-2.5177
0.681	6.04248
0.6815	4.02832
0.682	4.12903
0.6825	5.13611
0.683	0
0.6835	-0.50354
0.684	0.40283
0.6845	-4.53186
0.685	-0.30212
0.6855	-2.41699
0.686	-5.84106
0.6865	0.10071
0.687	-0.10071
0.6875	6.04248
0.688	1.3092
0.6885	4.02832
0.689	0.40283
0.6895	-2.21558
0.69	3.02124
0.6905	6.74744
0.691	7.25098
0.6915	6.54602
0.692	2.41699
0.6925	-3.7262
0.693	-4.22974
0.6935	-4.43115
0.694	-0.70496
0.6945	-3.22266
0.695	-1.71204
0.6955	3.02124
0.696	4.43115
0.6965	8.45947
0.697	2.41699
0.6975	0.50354
0.698	5.33752
0.6985	7.25098
0.699	8.96301
0.6995	15.60974
0.7	10.97717
0.7005	6.94885
0.701	14.70337
0.7015	11.17859
0.702	10.27222
0.7025	16.91895
0.703	7.15027
0.7035	11.78284
0.704	10.57434
0.7045	10.0708
0.705	10.57434
0.7055	14.30054
0.706	9.06372
0.7065	1.81274
0.707	7.95593
0.7075	7.75452
0.708	8.05664
0.7085	9.66797
0.709	13.89771
0.7095	10.27222
0.71	11.2793
0.7105	8.35876
0.711	6.04248
0.7115	7.75452
0.712	5.53894
0.7125	5.63965
0.713	8.25806
0.7135	6.3446
0.714	4.73328
0.7145	6.94885
0.715	9.26514
0.7155	7.65381
0.716	6.64673
0.7165	5.94177
0.717	6.2439
0.7175	2.92053
0.718	-3.42407
0.7185	1.81274
0.719	1.91345
0.7195	8.05664
0.72	4.93469
0.7205	9.36584
0.721	10.47363
0.7215	8.45947
0.722	7.85522
0.7225	6.84814
0.723	9.76868
0.7235	8.8623
0.724	8.7616
0.7245	10.0708
0.725	11.68213
0.7255	13.59558
0.726	5.84106
0.7265	10.87646
0.727	7.45239
0.7275	12.08496
0.728	9.97009
0.7285	11.17859
0.729	10.17151
0.7295	8.25806
0.73	9.26514
0.7305	5.63965
0.731	8.05664
0.7315	7.65381
0.732	5.74036
0.7325	7.25098
0.733	8.96301
0.7335	9.06372
0.734	4.53186
0.7345	11.2793
0.735	12.68921
0.7355	15.1062
0.736	5.23682
0.7365	7.75452
0.737	7.15027
0.7375	8.45947
0.738	7.85522
0.7385	-0.50354
0.739	-2.61841
0.7395	-1.40991
0.74	-0.60425
0.7405	4.43115
0.741	3.7262
0.7415	3.22266
0.742	3.02124
0.7425	2.01416
0.743	-0.50354
0.7435	-1.81274
0.744	5.94177
0.7445	5.33752
0.745	3.22266
0.7455	0.30212
0.746	-1.2085
0.7465	2.41699
0.747	3.92761
0.7475	5.74036
0.748	6.94885
0.7485	4.22974
0.749	8.66089
0.7495	8.66089
0.75	2.21558
0.7505	8.25806
0.751	9.36584
0.7515	11.68213
0.752	11.98425
0.7525	9.76868
0.753	6.3446
0.7535	8.05664
0.754	2.11487
0.7545	0.70496
0.755	0.80566
0.7555	0.80566
0.756	3.12195
0.7565	-0.80566
0.757	-7.5531
0.7575	0.20142
0.758	2.01416
0.7585	5.94177
0.759	3.92761
0.7595	10.37292
0.76	4.33044
0.7605	1.10779
0.761	1.81274
0.7615	3.52478
0.762	7.5531
0.7625	10.0708
0.763	16.21399
0.7635	8.45947
0.764	10.27222
0.7645	10.17151
0.765	15.00549
0.7655	10.0708
0.766	10.47363
0.7665	11.68213
0.767	10.37292
0.7675	9.36584
0.768	8.45947
0.7685	7.04956
0.769	7.25098
0.7695	9.16443
0.77	3.8269
0.7705	5.63965
0.771	4.83398
0.7715	6.94885
0.772	6.3446
0.7725	9.86938
0.773	11.38
0.7735	8.35876
0.774	8.56018
0.7745	8.7616
0.775	9.56726
0.7755	4.63257
0.776	5.13611
0.7765	1.61133
0.777	-0.80566
0.7775	-1.00708
0.778	2.01416
0.7785	1.51062
0.779	1.61133
0.7795	4.63257
0.78	3.62549
0.7805	-1.51062
0.781	5.23682
0.7815	4.12903
0.782	5.0354
0.7825	5.94177
0.783	9.26514
0.7835	6.2439
0.784	6.3446
0.7845	3.42407
0.785	9.16443
0.7855	8.25806
0.786	7.25098
0.7865	12.38708
0.787	6.64673
0.7875	7.04956
0.788	10.17151
0.7885	13.09204
0.789	15.00549
0.7895	17.42249
0.79	18.53027
0.7905	18.12744
0.791	11.78284
0.7915	13.09204
0.792	10.77576
0.7925	3.7262
0.793	7.04956
0.7935	6.3446
0.794	8.45947
0.7945	12.48779
0.795	9.56726
0.7955	9.86938
0.796	17.22107
0.7965	18.22815
0.797	14.90479
0.7975	11.38
0.798	10.77576
0.7985	11.88354
0.799	12.68921
0.7995	10.77576
0.8	9.26514
0.8005	3.52478
0.801	3.02124
0.8015	2.01416
0.802	3.22266
0.8025	1.10779
0.803	1.61133
0.8035	3.02124
0.804	5.33752
0.8045	3.92761
0.805	1.10779
0.8055	3.22266
0.806	2.01416
0.8065	1.40991
0.807	1.71204
0.8075	7.45239
0.808	3.42407
0.8085	11.68213
0.809	9.06372
0.8095	7.45239
0.81	6.3446
0.8105	4.02832
0.811	5.0354
0.8115	4.33044
0.812	1.2085
0.8125	1.40991
0.813	4.02832
0.8135	7.45239
0.814	5.63965
0.8145	8.7616
0.815	1.10779
0.8155	1.61133
0.816	-3.32336
0.8165	-8.35876
0.817	-8.96301
0.8175	-13.59558
0.818	-5.13611
0.8185	-4.33044
0.819	-0.60425
0.8195	1.3092
0.82	3.12195
0.8205	2.92053
0.821	1.91345
0.8215	6.14319
0.822	7.95593
0.8225	6.3446
0.823	-2.01416
0.8235	2.31628
0.824	2.11487
0.8245	0.50354
0.825	-0.10071
0.8255	1.40991
0.826	6.04248
0.8265	-0.70496
0.827	4.63257
0.8275	2.5177
0.828	4.33044
0.8285	9.97009
0.829	9.16443
0.8295	9.56726
0.83	6.14319
0.8305	6.44531
0.831	9.56726
0.8315	12.28638
0.832	10.27222
0.8325	5.23682
0.833	10.97717
0.8335	8.45947
0.834	6.04248
0.8345	2.31628
0.835	4.33044
0.8355	2.01416
0.836	6.44531
0.8365	5.0354
0.837	11.98425
0.8375	5.0354
0.838	2.31628
0.8385	2.61841
0.839	-1.40991
0.8395	4.63257
0.84	3.8269
0.8405	2.61841
0.841	0.20142
0.8415	-1.10779
0.842	-0.70496
0.8425	-0.20142
0.843	0.20142
0.8435	4.43115
0.844	5.33752
0.8445	5.13611
0.845	0.80566
0.8455	3.92761
0.846	2.92053
0.8465	2.71912
0.847	-3.32336
0.8475	2.11487
0.848	3.52478
0.8485	-2.61841
0.849	-4.12903
0.8495	-0.60425
0.85	0.40283
0.8505	1.81274
0.851	2.61841
0.8515	3.32336
0.852	3.02124
0.8525	-4.33044
0.853	2.31628
0.8535	6.84814
0.854	4.02832
0.8545	2.11487
0.855	6.3446
0.8555	6.94885
0.856	7.65381
0.8565	6.2439
0.857	0.40283
0.8575	4.43115
0.858	6.94885
0.8585	4.43115
0.859	-0.60425
0.8595	4.93469
0.86	7.25098
0.8605	0.40283
0.861	2.81982
0.8615	1.3092
0.862	0.20142
0.8625	-3.8269
0.863	-1.91345
0.8635	-0.40283
0.864	5.13611
0.8645	5.43823
0.865	4.02832
0.8655	6.04248
0.866	2.92053
0.8665	7.25098
0.867	1.10779
0.8675	0.90637
0.868	7.04956
0.8685	1.61133
0.869	2.81982
0.8695	4.53186
0.87	0.40283
0.8705	1.81274
0.871	7.35168
0.8715	5.0354
0.872	3.52478
0.8725	12.48779
0.873	10.37292
0.8735	10.57434
0.874	10.27222
0.8745	4.83398
0.875	6.64673
0.8755	12.78992
0.876	13.39417
0.8765	11.48071
0.877	1.71204
0.8775	5.74036
0.878	0.40283
0.8785	-2.61841
0.879	-6.74744
0.8795	-10.27222
0.88	-16.11328
0.8805	-7.5531
0.881	-7.04956
0.8815	-1.81274
0.882	-4.73328
0.8825	1.51062
0.883	3.62549
0.8835	7.15027
0.884	10.27222
0.8845	11.2793
0.885	10.0708
0.8855	7.45239
0.886	10.0708
0.8865	9.36584
0.887	11.07788
0.8875	7.35168
0.888	7.75452
0.8885	3.52478
0.889	0.20142
0.8895	3.32336
0.89	6.04248
0.8905	4.12903
0.891	7.15027
0.8915	4.02832
0.892	6.84814
0.8925	5.0354
0.893	-2.01416
0.8935	-3.8269
0.894	3.92761
0.8945	6.64673
0.895	10.27222
0.8955	8.05664
0.896	6.84814
0.8965	2.92053
0.897	1.61133
0.8975	-1.10779
0.898	5.84106
0.8985	3.52478
0.899	7.25098
0.8995	4.22974
0.9	-0.10071
0.9005	-1.10779
0.901	1.3092
0.9015	2.41699
0.902	5.84106
0.9025	6.3446
0.903	2.5177
0.9035	7.95593
0.904	7.04956
0.9045	8.05664
0.905	12.38708
0.9055	7.75452
0.906	6.3446
0.9065	7.25098
0.907	1.61133
0.9075	2.31628
0.908	2.21558
0.9085	8.66089
0.909	8.66089
0.9095	8.7616
0.91	8.7616
0.9105	5.43823
0.911	5.63965
0.9115	4.33044
0.912	-1.2085
0.9125	-2.21558
0.913	-0.40283
0.9135	1.3092
0.914	4.33044
0.9145	4.93469
0.915	2.71912
0.9155	8.8623
0.916	7.25098
0.9165	1.40991
0.917	3.32336
0.9175	13.09204
0.918	8.05664
0.9185	3.7262
0.919	2.92053
0.9195	5.74036
0.92	7.15027
0.9205	8.66089
0.921	10.57434
0.9215	3.02124
0.922	4.43115
0.9225	4.83398
0.923	3.52478
0.9235	7.5531
0.924	12.78992
0.9245	14.50195
0.925	9.16443
0.9255	5.94177
0.926	5.0354
0.9265	3.02124
0.927	5.94177
0.9275	7.25098
0.928	4.02832
0.9285	3.42407
0.929	0.90637
0.9295	2.71912
0.93	-2.5177
0.9305	-0.30212
0.931	1.61133
0.9315	5.23682
0.932	5.43823
0.9325	-3.12195
0.933	2.5177
0.9335	-0.80566
0.934	3.8269
0.9345	5.43823
0.935	4.53186
0.9355	4.83398
0.936	3.62549
0.9365	2.5177
0.937	-1.2085
0.9375	3.22266
0.938	6.44531
0.9385	2.11487
0.939	1.81274
0.9395	-0.60425
0.94	-2.11487
0.9405	-4.93469
0.941	3.92761
0.9415	4.43115
0.942	6.64673
0.9425	4.43115
0.943	3.62549
0.9435	0.80566
0.944	-0.80566
0.9445	-1.51062
0.945	5.23682
0.9455	5.13611
0.946	7.65381
0.9465	3.42407
0.947	1.71204
0.9475	5.23682
0.948	0.80566
0.9485	0.90637
0.949	8.15735
0.9495	7.5531
0.95	4.33044
0.9505	5.23682
0.951	7.65381
0.9515	2.11487
0.952	9.36584
0.9525	9.97009
0.953	2.41699
0.9535	1.91345
0.954	4.02832
0.9545	1.61133
0.955	11.98425
0.9555	8.7616
0.956	7.45239
0.9565	11.17859
0.957	5.84106
0.9575	-0.40283
0.958	6.64673
0.9585	6.2439
0.959	4.43115
0.9595	4.12903
0.96	3.62549
0.9605	-1.91345
0.961	3.22266
0.9615	1.3092
0.962	5.23682
0.9625	3.7262
0.963	-0.20142
0.9635	-1.00708
0.964	1.2085
0.9645	3.02124
0.965	0.90637
0.9655	3.7262
0.966	7.45239
0.9665	5.53894
0.967	2.01416
0.9675	6.74744
0.968	2.01416
0.9685	2.61841
0.969	-0.40283
0.9695	4.02832
0.97	6.64673
0.9705	4.83398
0.971	11.2793
0.9715	4.73328
0.972	0.60425
0.9725	6.14319
0.973	2.31628
0.9735	3.7262
0.974	5.0354
0.9745	2.01416
0.975	9.86938
0.9755	6.74744
0.976	5.94177
0.9765	6.64673
0.977	5.94177
0.9775	6.84814
0.978	8.35876
0.9785	8.45947
0.979	5.94177
0.9795	4.12903
0.98	6.84814
0.9805	1.71204
0.981	2.81982
0.9815	2.81982
0.982	6.64673
0.9825	3.12195
0.983	3.92761
0.9835	3.92761
0.984	-1.40991
0.9845	2.5177
0.985	4.02832
0.9855	0.70496
0.986	2.5177
0.9865	5.33752
0.987	2.01416
0.9875	3.8269
0.988	2.61841
0.9885	2.61841
0.989	-1.10779
0.9895	3.02124
0.99	2.81982
0.9905	1.81274
0.991	-2.11487
0.9915	-2.5177
0.992	6.2439
0.9925	2.21558
0.993	0.30212
0.9935	4.63257
0.994	8.25806
0.9945	10.47363
0.995	6.84814
0.9955	10.37292
0.996	5.0354
0.9965	3.42407
0.997	4.33044
0.9975	2.92053
0.998	9.97009
0.9985	8.96301
0.999	6.54602
0.9995	10.67505
1	1.71204
1.0005	0.50354
1.001	3.32336
1.0015	-0.40283
1.002	7.5531
1.0025	9.97009
1.003	7.85522
1.0035	11.2793
1.004	6.54602
1.0045	10.77576
1.005	5.74036
1.0055	13.39417
1.006	5.84106
1.0065	6.14319
1.007	5.23682
1.0075	8.45947
1.008	5.63965
1.0085	2.21558
1.009	3.52478
1.0095	4.63257
1.01	3.12195
1.0105	2.71912
1.011	-1.51062
1.0115	3.92761
1.012	4.93469
1.0125	-0.20142
1.013	5.23682
1.0135	6.54602
1.014	2.5177
1.0145	6.74744
1.015	6.94885
1.0155	5.0354
1.016	1.51062
1.0165	3.12195
1.017	3.32336
1.0175	5.33752
1.018	3.92761
1.0185	3.32336
1.019	5.74036
1.0195	-1.00708
1.02	1.71204
1.0205	-3.7262
1.021	3.52478
1.0215	2.41699
1.022	6.74744
1.0225	7.65381
1.023	4.83398
1.0235	4.22974
1.024	6.44531
1.0245	7.15027
1.025	2.21558
1.0255	5.43823
1.026	5.33752
1.0265	5.43823
1.027	5.13611
1.0275	4.22974
1.028	7.5531
1.0285	2.61841
1.029	3.12195
1.0295	8.15735
1.03	6.14319
1.0305	6.2439
1.031	4.63257
1.0315	8.15735
1.032	4.53186
1.0325	0.30212
1.033	1.61133
1.0335	3.22266
1.034	7.04956
1.0345	12.99133
1.035	6.04248
1.0355	1.2085
1.036	0.40283
1.0365	-1.81274
1.037	0.50354
1.0375	-3.22266
1.038	8.7616
1.0385	7.65381
1.039	3.92761
1.0395	1.40991
1.04	3.8269
1.0405	2.92053
1.041	5.74036
1.0415	1.61133
1.042	1.91345
1.0425	-1.51062
1.043	4.12903
1.0435	6.54602
1.044	6.44531
1.0445	3.32336
1.045	5.43823
1.0455	4.43115
1.046	3.92761
1.0465	8.66089
1.047	8.96301
1.0475	6.14319
1.048	8.66089
1.0485	8.66089
1.049	13.99841
1.0495	9.56726
1.05	4.12903
1.0505	7.85522
1.051	8.35876
1.0515	8.25806
1.052	11.58142
1.0525	9.56726
1.053	12.08496
1.0535	13.29346
1.054	14.30054
1.0545	14.40125
1.055	8.15735
1.0555	6.74744
1.056	7.25098
1.0565	11.2793
1.057	9.36584
1.0575	9.26514
1.058	10.47363
1.0585	7.45239
1.059	7.15027
1.0595	4.53186
1.06	4.02832
1.0605	1.2085
1.061	1.71204
1.0615	1.71204
1.062	-0.50354
1.0625	-0.50354
1.063	-5.33752
1.0635	3.62549
1.064	2.5177
1.0645	4.33044
1.065	5.43823
1.0655	-0.20142
1.066	3.92761
1.0665	3.22266
1.067	0.40283
1.0675	-4.83398
1.068	-1.3092
1.0685	-0.90637
1.069	4.73328
1.0695	9.06372
1.07	7.75452
1.0705	15.40833
1.071	4.63257
1.0715	6.94885
1.072	7.65381
1.0725	10.0708
1.073	11.2793
1.0735	6.44531
1.074	5.53894
1.0745	11.68213
1.075	7.35168
1.0755	9.26514
1.076	8.66089
1.0765	7.85522
1.077	10.57434
1.0775	15.71045
1.078	6.64673
1.0785	5.84106
1.079	-0.40283
1.0795	1.71204
1.08	1.51062
1.0805	2.61841
1.081	9.36584
1.0815	10.37292
1.082	7.25098
1.0825	0.40283
1.083	-4.02832
1.0835	5.94177
1.084	2.71912
1.0845	-3.02124
1.085	3.42407
1.0855	2.92053
1.086	1.3092
1.0865	0.60425
1.087	-6.84814
1.0875	-4.02832
1.088	-2.71912
1.0885	-2.11487
1.089	-1.40991
1.0895	-3.42407
1.09	-5.94177
1.0905	-3.92761
1.091	-6.94885
1.0915	-4.12903
1.092	-9.86938
1.0925	0.10071
1.093	-2.61841
1.0935	-7.65381
1.094	-5.43823
1.0945	-4.53186
1.095	-1.91345
1.0955	-6.84814
1.096	-1.61133
1.0965	-1.10779
1.097	3.02124
1.0975	2.41699
1.098	-0.10071
1.0985	5.33752
1.099	3.92761
1.0995	2.41699
1.1	-0.60425
1.1005	8.15735
1.101	5.94177
1.1015	1.51062
1.102	2.81982
1.1025	-1.81274
1.103	1.2085
1.1035	-0.10071
1.104	3.92761
1.1045	3.52478
1.105	5.23682
1.1055	2.31628
1.106	4.33044
1.1065	6.84814
1.107	5.0354
1.1075	5.0354
1.108	-0.20142
1.1085	2.61841
1.109	3.42407
1.1095	0.10071
1.11	2.61841
1.1105	3.42407
1.111	3.52478
1.1115	0.30212
1.112	1.10779
1.1125	-4.33044
1.113	-1.71204
1.1135	4.22974
1.114	7.15027
1.1145	4.22974
1.115	5.94177
1.1155	4.73328
1.116	6.3446
1.1165	3.32336
1.117	5.0354
1.1175	5.63965
1.118	-0.10071
1.1185	-0.70496
1.119	4.83398
1.1195	1.10779
1.12	-1.40991
1.1205	-1.00708
1.121	-5.74036
1.1215	-4.12903
1.122	-4.73328
1.1225	-5.43823
1.123	-5.74036
1.1235	-2.41699
1.124	-0.80566
1.1245	-4.63257
1.125	1.40991
1.1255	1.40991
1.126	1.51062
1.1265	-5.74036
1.127	-5.84106
1.1275	-6.54602
1.128	-8.15735
1.1285	-2.01416
1.129	-4.12903
1.1295	0.10071
1.13	0.70496
1.1305	-3.92761
1.131	-8.56018
1.1315	-6.54602
1.132	-3.12195
1.1325	0.10071
1.133	0.50354
1.1335	4.33044
1.134	7.04956
1.1345	1.3092
1.135	4.22974
1.1355	9.06372
1.136	4.22974
1.1365	-1.10779
1.137	4.22974
1.1375	4.93469
1.138	10.37292
1.1385	8.25806
1.139	5.74036
1.1395	5.84106
1.14	6.04248
1.1405	3.02124
1.141	12.5885
1.1415	14.40125
1.142	10.0708
1.1425	11.38
1.143	10.87646
1.1435	11.78284
1.144	10.47363
1.1445	8.25806
1.145	5.94177
1.1455	4.12903
1.146	4.12903
1.1465	3.8269
1.147	6.84814
1.1475	5.23682
1.148	3.22266
1.1485	2.71912
1.149	0.40283
1.1495	2.92053
1.15	2.61841
1.1505	1.00708
1.151	0.90637
1.1515	-0.70496
1.152	-0.80566
1.1525	-0.30212
1.153	2.31628
1.1535	4.12903
1.154	5.0354
1.1545	1.40991
1.155	2.21558
1.1555	-1.40991
1.156	1.91345
1.1565	-0.10071
1.157	0.40283
1.1575	4.43115
1.158	4.63257
1.1585	4.12903
1.159	4.93469
1.1595	4.43115
1.16	2.01416
1.1605	7.15027
1.161	10.37292
1.1615	7.04956
1.162	9.36584
1.1625	7.65381
1.163	4.73328
1.1635	8.56018
1.164	9.66797
1.1645	7.75452
1.165	6.04248
1.1655	-0.50354
1.166	4.43115
1.1665	1.10779
1.167	2.41699
1.1675	4.33044
1.168	2.31628
1.1685	1.91345
1.169	-8.35876
1.1695	7.85522
1.17	6.04248
1.1705	8.45947
1.171	11.17859
1.1715	9.06372
1.172	8.96301
1.1725	7.04956
1.173	7.35168
1.1735	0.50354
1.174	2.61841
1.1745	-4.83398
1.175	-0.20142
1.1755	4.63257
1.176	3.62549
1.1765	-2.11487
1.177	0.80566
1.1775	3.52478
1.178	3.62549
1.1785	6.74744
1.179	6.64673
1.1795	10.97717
1.18	7.25098
1.1805	9.16443
1.181	8.96301
1.1815	13.99841
1.182	10.67505
1.1825	9.66797
1.183	11.07788
1.1835	9.16443
1.184	11.88354
1.1845	7.75452
1.185	8.96301
1.1855	10.37292
1.186	10.0708
1.1865	6.3446
1.187	4.43115
1.1875	3.62549
1.188	8.05664
1.1885	3.8269
1.189	9.76868
1.1895	7.95593
1.19	4.83398
1.1905	4.43115
1.191	4.02832
1.1915	7.75452
1.192	9.56726
1.1925	6.14319
1.193	3.42407
1.1935	2.81982
1.194	4.22974
1.1945	0.50354
1.195	3.7262
1.1955	6.54602
1.196	3.02124
1.1965	8.56018
1.197	12.48779
1.1975	8.8623
1.198	3.42407
1.1985	1.3092
1.199	0.20142
1.1995	4.93469
1.2	6.2439
1.2005	6.94885
1.201	5.33752
1.2015	1.10779
1.202	4.53186
1.2025	3.52478
1.203	-0.20142
1.2035	6.3446
1.204	8.45947
1.2045	4.83398
1.205	4.83398
1.2055	3.62549
1.206	6.84814
1.2065	3.32336
1.207	8.45947
1.2075	3.32336
1.208	6.2439
1.2085	-0.20142
1.209	0.20142
1.2095	-2.31628
1.21	-2.71912
1.2105	-7.5531
1.211	-8.15735
1.2115	-6.14319
1.212	-5.13611
1.2125	-4.12903
1.213	-6.74744
1.2135	-7.85522
1.214	-3.02124
1.2145	-1.81274
1.215	0.40283
1.2155	2.11487
1.216	0.20142
1.2165	-4.22974
1.217	-6.14319
1.2175	-4.83398
1.218	-1.91345
1.2185	-1.3092
1.219	0
1.2195	-10.0708
1.22	-4.53186
1.2205	-4.53186
1.221	-6.84814
1.2215	-8.45947
1.222	-0.90637
1.2225	1.2085
1.223	1.71204
1.2235	5.23682
1.224	0.80566
1.2245	3.7262
1.225	1.81274
1.2255	7.75452
1.226	5.23682
1.2265	7.04956
1.227	1.40991
1.2275	4.12903
1.228	-2.41699
1.2285	-3.92761
1.229	-1.71204
1.2295	3.7262
1.23	7.25098
1.2305	0.10071
1.231	4.83398
1.2315	3.92761
1.232	-5.33752
1.2325	0
1.233	3.7262
1.2335	-0.90637
1.234	4.22974
1.2345	-4.53186
1.235	-7.75452
1.2355	-3.12195
1.236	1.61133
1.2365	-3.02124
1.237	-1.61133
1.2375	-3.32336
1.238	-4.83398
1.2385	-7.65381
1.239	-7.85522
1.2395	-2.11487
1.24	-5.94177
1.2405	-5.13611
1.241	1.40991
1.2415	0.30212
1.242	0.10071
1.2425	5.74036
1.243	0.10071
1.2435	1.51062
1.244	5.43823
1.2445	6.44531
1.245	2.21558
1.2455	4.53186
1.246	-0.20142
1.2465	2.61841
1.247	1.71204
1.2475	4.22974
1.248	-0.30212
1.2485	5.53894
1.249	3.12195
1.2495	3.22266
1.25	4.63257
1.2505	4.83398
1.251	-1.10779
1.2515	-0.80566
1.252	5.94177
1.2525	-3.42407
1.253	0.70496
1.2535	2.92053
1.254	3.92761
1.2545	3.32336
1.255	3.7262
1.2555	5.0354
1.256	6.44531
1.2565	5.74036
1.257	5.94177
1.2575	6.14319
1.258	4.93469
1.2585	4.83398
1.259	5.74036
1.2595	10.47363
1.26	12.68921
1.2605	9.16443
1.261	6.54602
1.2615	9.06372
1.262	9.06372
1.2625	5.63965
1.263	9.46655
1.2635	7.75452
1.264	9.76868
1.2645	9.16443
1.265	8.66089
1.2655	8.35876
1.266	7.25098
1.2665	16.41541
1.267	10.97717
1.2675	12.78992
1.268	8.56018
1.2685	9.16443
1.269	14.60266
1.2695	16.41541
1.27	10.27222
1.2705	12.38708
1.271	9.97009
1.2715	11.07788
1.272	12.48779
1.2725	5.94177
1.273	11.98425
1.2735	10.47363
1.274	9.76868
1.2745	14.80408
1.275	10.0708
1.2755	14.09912
1.276	8.56018
1.2765	9.46655
1.277	7.5531
1.2775	8.45947
1.278	5.74036
1.2785	3.7262
1.279	4.93469
1.2795	7.04956
1.28	10.37292
1.2805	5.23682
1.281	3.92761
1.2815	7.15027
1.282	2.81982
1.2825	11.48071
1.283	2.92053
1.2835	6.14319
1.284	4.83398
1.2845	8.05664
1.285	8.15735
1.2855	7.15027
1.286	5.84106
1.2865	5.43823
1.287	5.94177
1.2875	8.56018
1.288	1.71204
1.2885	5.13611
1.289	2.11487
1.2895	5.53894
1.29	1.51062
1.2905	2.5177
1.291	2.01416
1.2915	0.90637
1.292	-2.11487
1.2925	1.2085
1.293	-1.51062
1.2935	-3.8269
1.294	-0.10071
1.2945	-0.90637
1.295	2.21558
1.2955	0.10071
1.296	-0.10071
1.2965	-1.81274
1.297	-3.22266
1.2975	-0.80566
1.298	0.10071
1.2985	3.12195
1.299	0.70496
1.2995	-0.60425
1.3	-4.73328
1.3005	-3.32336
1.301	0.50354
1.3015	3.12195
1.302	1.2085
1.3025	-1.10779
1.303	1.61133
1.3035	-5.0354
1.304	-7.95593
1.3045	-5.94177
1.305	-3.62549
1.3055	-5.84106
1.306	-3.12195
1.3065	-2.31628
1.307	0.20142
1.3075	-2.31628
1.308	-2.71912
1.3085	-4.12903
1.309	-4.22974
1.3095	-4.53186
1.31	-1.61133
1.3105	-2.01416
1.311	-11.88354
1.3115	-10.77576
1.312	-6.54602
1.3125	-5.84106
1.313	-0.40283
1.3135	0.90637
1.314	6.14319
1.3145	7.45239
1.315	8.96301
1.3155	6.84814
1.316	15.1062
1.3165	17.6239
1.317	21.85364
1.3175	16.61682
1.318	20.34302
1.3185	23.06213
1.319	22.76001
1.3195	21.85364
1.32	19.03381
1.3205	19.63806
1.321	15.50903
1.3215	16.3147
1.322	12.18567
1.3225	8.7616
1.323	8.7616
1.3235	11.68213
1.324	10.27222
1.3245	8.8623
1.325	6.14319
1.3255	4.12903
1.326	2.61841
1.3265	7.25098
1.327	0.60425
1.3275	1.10779
1.328	4.53186
1.3285	-0.10071
1.329	6.44531
1.3295	6.74744
1.33	2.5177
1.3305	1.91345
1.331	4.83398
1.3315	1.00708
1.332	0.90637
1.3325	0.90637
1.333	0.30212
1.3335	-1.91345
1.334	1.10779
1.3345	7.5531
1.335	7.75452
1.3355	-2.01416
1.336	1.10779
1.3365	4.22974
1.337	7.35168
1.3375	1.40991
1.338	3.92761
1.3385	5.84106
1.339	7.25098
1.3395	5.63965
1.34	-1.3092
1.3405	-0.40283
1.341	-3.02124
1.3415	4.12903
1.342	0.50354
1.3425	1.91345
1.343	-3.92761
1.3435	-3.7262
1.344	0.50354
1.3445	-5.23682
1.345	-5.84106
1.3455	-1.40991
1.346	-1.51062
1.3465	2.81982
1.347	-4.02832
1.3475	-3.22266
1.348	-0.80566
1.3485	1.10779
1.349	4.63257
1.3495	6.94885
1.35	7.25098
1.3505	3.92761
1.351	7.04956
1.3515	2.21558
1.352	-0.50354
1.3525	6.2439
1.353	4.53186
1.3535	3.62549
1.354	3.22266
1.3545	8.05664
1.355	0.50354
1.3555	2.01416
1.356	4.12903
1.3565	5.94177
1.357	3.8269
1.3575	7.35168
1.358	2.92053
1.3585	5.23682
1.359	9.16443
1.3595	9.26514
1.36	9.06372
1.3605	0.50354
1.361	6.74744
1.3615	6.84814
1.362	3.22266
1.3625	4.33044
1.363	1.81274
1.3635	-0.60425
1.364	-0.40283
1.3645	2.21558
1.365	2.61841
1.3655	6.94885
1.366	-0.70496
1.3665	2.01416
1.367	1.10779
1.3675	5.74036
1.368	5.43823
1.3685	-0.70496
1.369	9.66797
1.3695	6.64673
1.37	2.31628
1.3705	1.2085
1.371	-0.10071
1.3715	7.65381
1.372	13.29346
1.3725	10.47363
1.373	5.94177
1.3735	1.2085
1.374	-2.21558
1.3745	-2.01416
1.375	0.20142
1.3755	-1.3092
1.376	5.74036
1.3765	7.04956
1.377	7.45239
1.3775	9.97009
1.378	4.53186
1.3785	3.42407
1.379	1.61133
1.3795	1.81274
1.38	0.70496
1.3805	-4.33044
1.381	0.40283
1.3815	3.62549
1.382	0.70496
1.3825	-0.50354
1.383	1.40991
1.3835	2.81982
1.384	8.56018
1.3845	6.2439
1.385	3.62549
1.3855	3.7262
1.386	7.25098
1.3865	8.05664
1.387	7.04956
1.3875	3.32336
1.388	4.53186
1.3885	3.32336
1.389	2.61841
1.3895	3.12195
1.39	3.7262
1.3905	0.80566
1.391	9.56726
1.3915	1.3092
1.392	1.00708
1.3925	1.81274
1.393	3.02124
1.3935	1.71204
1.394	3.52478
1.3945	2.5177
1.395	1.2085
1.3955	3.02124
1.396	1.51062
1.3965	4.83398
1.397	-0.30212
1.3975	1.3092
1.398	3.02124
1.3985	-0.20142
1.399	7.04956
1.3995	8.15735
1.4	1.51062
1.4005	5.63965
1.401	4.33044
1.4015	-0.10071
1.402	0.30212
1.4025	5.53894
1.403	4.33044
1.4035	5.43823
1.404	5.23682
1.4045	4.73328
1.405	5.53894
1.4055	8.7616
1.406	8.7616
1.4065	7.5531
1.407	4.63257
1.4075	6.3446
1.408	6.2439
1.4085	0.30212
1.409	0.20142
1.4095	6.44531
1.41	8.05664
1.4105	7.15027
1.411	3.22266
1.4115	4.93469
1.412	6.44531
1.4125	4.93469
1.413	4.43115
1.4135	6.54602
1.414	4.93469
1.4145	5.94177
1.415	2.81982
1.4155	2.71912
1.416	-1.91345
1.4165	2.61841
1.417	6.64673
1.4175	3.52478
1.418	8.35876
1.4185	5.13611
1.419	6.04248
1.4195	5.23682
1.42	5.33752
1.4205	10.67505
1.421	6.74744
1.4215	6.64673
1.422	7.15027
1.4225	1.81274
1.423	-0.90637
1.4235	-2.21558
1.424	0.60425
1.4245	7.75452
1.425	3.62549
1.4255	6.3446
1.426	14.30054
1.4265	7.15027
1.427	5.0354
1.4275	6.74744
1.428	9.56726
1.4285	8.45947
1.429	13.797
1.4295	9.06372
1.43	9.26514
1.4305	9.56726
1.431	8.15735
1.4315	8.15735
1.432	10.0708
1.4325	17.52319
1.433	12.89062
1.4335	12.48779
1.434	11.88354
1.4345	13.797
1.435	10.57434
1.4355	15.71045
1.436	16.71753
1.4365	21.04797
1.437	21.14868
1.4375	19.53735
1.438	15.50903
1.4385	18.12744
1.439	14.19983
1.4395	8.45947
1.44	16.61682
1.4405	15.81116
1.441	12.68921
1.4415	7.45239
1.442	11.2793
1.4425	15.1062
1.443	7.75452
1.4435	5.84106
1.444	11.17859
1.4445	11.38
1.445	17.92603
1.4455	12.48779
1.446	13.797
1.4465	10.87646
1.447	6.64673
1.4475	9.16443
1.448	10.67505
1.4485	6.54602
1.449	7.35168
1.4495	4.93469
1.45	2.61841
1.4505	0.40283
1.451	-1.3092
1.4515	2.31628
1.452	0.30212
1.4525	-1.91345
1.453	-2.81982
1.4535	0.20142
1.454	1.3092
1.4545	0.10071
1.455	7.35168
1.4555	1.51062
1.456	4.02832
1.4565	10.0708
1.457	4.43115
1.4575	6.94885
1.458	5.63965
1.4585	5.63965
1.459	10.37292
1.4595	8.15735
1.46	7.75452
1.4605	7.95593
1.461	4.73328
1.4615	1.00708
1.462	3.52478
1.4625	-0.60425
1.463	3.7262
1.4635	1.81274
1.464	4.83398
1.4645	5.43823
1.465	9.36584
1.4655	13.39417
1.466	7.75452
1.4665	9.97009
1.467	8.05664
1.4675	7.35168
1.468	9.66797
1.4685	7.45239
1.469	-0.60425
1.4695	1.71204
1.47	0.20142
1.4705	7.5531
1.471	1.2085
1.4715	-1.10779
1.472	-0.60425
1.4725	-1.81274
1.473	-0.40283
1.4735	-4.02832
1.474	0.90637
1.4745	-1.2085
1.475	1.91345
1.4755	2.21558
1.476	-0.10071
1.4765	-1.51062
1.477	-2.92053
1.4775	-1.81274
1.478	3.92761
1.4785	5.74036
1.479	3.92761
1.4795	3.22266
1.48	4.73328
1.4805	1.51062
1.481	8.15735
1.4815	7.45239
1.482	7.75452
1.4825	10.77576
1.483	6.64673
1.4835	11.98425
1.484	10.17151
1.4845	10.37292
1.485	4.53186
1.4855	5.0354
1.486	7.04956
1.4865	8.96301
1.487	12.38708
1.4875	15.40833
1.488	9.76868
1.4885	10.77576
1.489	9.97009
1.4895	11.38
1.49	14.60266
1.4905	9.76868
1.491	9.66797
1.4915	9.36584
1.492	10.37292
1.4925	8.66089
1.493	4.53186
1.4935	7.65381
1.494	10.47363
1.4945	12.99133
1.495	13.89771
1.4955	10.47363
1.496	5.63965
1.4965	8.15735
1.497	7.75452
1.4975	5.94177
1.498	10.27222
1.4985	9.06372
1.499	6.44531
1.4995	5.0354
1.5	5.84106
1.5005	-0.60425
1.501	1.3092
1.5015	3.42407
1.502	7.15027
1.5025	8.45947
1.503	8.05664
1.5035	9.26514
1.504	6.74744
1.5045	8.05664
1.505	6.2439
1.5055	5.13611
1.506	0.90637
1.5065	7.25098
1.507	2.11487
1.5075	5.53894
1.508	6.2439
1.5085	8.56018
1.509	9.86938
1.5095	8.45947
1.51	4.12903
1.5105	-1.81274
1.511	3.42407
1.5115	4.22974
1.512	1.10779
1.5125	0.10071
1.513	-1.81274
1.5135	1.40991
1.514	1.71204
1.5145	3.62549
1.515	1.71204
1.5155	0.90637
1.516	-2.41699
1.5165	4.83398
1.517	7.35168
1.5175	1.3092
1.518	1.00708
1.5185	6.84814
1.519	9.46655
1.5195	5.0354
1.52	10.37292
1.5205	6.2439
1.521	8.25806
1.5215	3.02124
1.522	3.32336
1.5225	5.13611
1.523	4.53186
1.5235	3.62549
1.524	0.80566
1.5245	-4.22974
1.525	0.90637
1.5255	4.53186
1.526	-2.11487
1.5265	-0.20142
1.527	2.61841
1.5275	2.61841
1.528	-0.90637
1.5285	7.25098
1.529	4.53186
1.5295	4.93469
1.53	7.95593
1.5305	5.0354
1.531	5.23682
1.5315	3.32336
1.532	6.44531
1.5325	0.50354
1.533	4.63257
1.5335	7.15027
1.534	11.07788
1.5345	6.2439
1.535	9.16443
1.5355	11.78284
1.536	16.91895
1.5365	15.30762
1.537	14.09912
1.5375	12.68921
1.538	12.18567
1.5385	6.44531
1.539	6.14319
1.5395	11.2793
1.54	12.08496
1.5405	10.27222
1.541	6.74744
1.5415	7.45239
1.542	10.57434
1.5425	3.02124
1.543	6.74744
1.5435	10.0708
1.544	12.08496
1.5445	8.45947
1.545	10.27222
1.5455	4.33044
1.546	12.18567
1.5465	9.36584
1.547	10.37292
1.5475	10.97717
1.548	10.37292
1.5485	4.93469
1.549	8.8623
1.5495	5.53894
1.55	11.78284
1.5505	13.69629
1.551	13.39417
1.5515	4.83398
1.552	4.02832
1.5525	9.46655
1.553	12.38708
1.5535	10.77576
1.554	15.60974
1.5545	9.46655
1.555	12.48779
1.5555	10.67505
1.556	8.25806
1.5565	10.97717
1.557	10.67505
1.5575	5.53894
1.558	10.87646
1.5585	7.95593
1.559	7.45239
1.5595	4.12903
1.56	0.20142
1.5605	1.51062
1.561	4.33044
1.5615	3.7262
1.562	4.83398
1.5625	6.64673
1.563	3.02124
1.5635	6.84814
1.564	10.47363
1.5645	3.42407
1.565	0.90637
1.5655	6.14319
1.566	6.54602
1.5665	7.65381
1.567	5.23682
1.5675	4.02832
1.568	10.27222
1.5685	5.43823
1.569	7.85522
1.5695	9.36584
1.57	9.16443
1.5705	8.7616
1.571	15.00549
1.5715	6.64673
1.572	8.7616
1.5725	8.7616
1.573	5.0354
1.5735	3.42407
1.574	3.7262
1.5745	1.51062
1.575	8.66089
1.5755	5.13611
1.576	6.44531
1.5765	15.30762
1.577	10.17151
1.5775	5.94177
1.578	15.00549
1.5785	12.68921
1.579	11.17859
1.5795	8.25806
1.58	9.36584
1.5805	7.45239
1.581	6.94885
1.5815	8.35876
1.582	7.04956
1.5825	5.84106
1.583	6.3446
1.5835	5.23682
1.584	4.43115
1.5845	5.0354
1.585	3.8269
1.5855	6.64673
1.586	5.53894
1.5865	5.0354
1.587	8.05664
1.5875	4.33044
1.588	2.11487
1.5885	1.2085
1.589	5.84106
1.5895	4.53186
1.59	1.10779
1.5905	1.91345
1.591	8.66089
1.5915	3.8269
1.592	3.7262
1.5925	3.32336
1.593	3.42407
1.5935	0.10071
1.594	7.65381
1.5945	-1.61133
1.595	-1.40991
1.5955	5.94177
1.596	3.7262
1.5965	2.21558
1.597	3.62549
1.5975	3.42407
1.598	7.65381
1.5985	11.07788
1.599	0.10071
1.5995	3.92761
1.6	9.26514
1.6005	7.5531
1.601	9.86938
1.6015	2.5177
1.602	-0.10071
1.6025	8.7616
1.603	11.17859
1.6035	11.78284
1.604	7.45239
1.6045	6.84814
1.605	1.91345
1.6055	7.35168
1.606	9.56726
1.6065	8.45947
1.607	6.74744
1.6075	10.87646
1.608	3.22266
1.6085	2.71912
1.609	3.8269
1.6095	4.22974
1.61	-0.20142
1.6105	-2.11487
1.611	-5.13611
1.6115	-2.61841
1.612	-1.2085
1.6125	-1.40991
1.613	4.22974
1.6135	7.65381
1.614	2.11487
1.6145	-3.8269
1.615	-2.5177
1.6155	0.90637
1.616	0.80566
1.6165	2.61841
1.617	7.5531
1.6175	7.95593
1.618	2.11487
1.6185	6.44531
1.619	11.88354
1.6195	9.06372
1.62	10.57434
1.6205	9.46655
1.621	12.5885
1.6215	9.26514
1.622	8.8623
1.6225	9.46655
1.623	6.94885
1.6235	8.35876
1.624	4.33044
1.6245	11.07788
1.625	8.45947
1.6255	6.54602
1.626	5.0354
1.6265	4.63257
1.627	5.0354
1.6275	3.42407
1.628	7.15027
1.6285	9.06372
1.629	4.93469
1.6295	3.32336
1.63	4.12903
1.6305	4.63257
1.631	8.45947
1.6315	7.35168
1.632	11.2793
1.6325	10.27222
1.633	12.48779
1.6335	9.97009
1.634	7.85522
1.6345	9.76868
1.635	10.77576
1.6355	13.49487
1.636	14.90479
1.6365	17.42249
1.637	15.71045
1.6375	11.38
1.638	14.70337
1.6385	6.54602
1.639	10.27222
1.6395	8.56018
1.64	7.45239
1.6405	-1.71204
1.641	4.22974
1.6415	10.77576
1.642	13.29346
1.6425	5.84106
1.643	4.83398
1.6435	6.14319
1.644	1.91345
1.6445	6.64673
1.645	10.0708
1.6455	5.74036
1.646	2.61841
1.6465	8.45947
1.647	8.7616
1.6475	5.33752
1.648	12.78992
1.6485	11.78284
1.649	15.60974
1.6495	13.59558
1.65	13.99841
1.6505	3.02124
1.651	8.45947
1.6515	9.46655
1.652	12.68921
1.6525	11.17859
1.653	8.8623
1.6535	10.37292
1.654	12.38708
1.6545	10.27222
1.655	8.8623
1.6555	8.25806
1.656	8.45947
1.6565	2.01416
1.657	4.53186
1.6575	1.81274
1.658	7.15027
1.6585	5.53894
1.659	4.43115
1.6595	-1.00708
1.66	4.73328
1.6605	5.33752
1.661	6.44531
1.6615	7.95593
1.662	2.81982
1.6625	6.44531
1.663	5.33752
1.6635	3.32336
1.664	12.78992
1.6645	13.49487
1.665	10.27222
1.6655	5.33752
1.666	4.53186
1.6665	2.31628
1.667	6.84814
1.6675	8.56018
1.668	5.43823
1.6685	8.25806
1.669	3.12195
1.6695	7.45239
1.67	1.91345
1.6705	6.84814
1.671	16.51611
1.6715	6.04248
1.672	3.7262
1.6725	7.5531
1.673	3.32336
1.6735	1.71204
1.674	4.63257
1.6745	5.23682
1.675	6.94885
1.6755	1.00708
1.676	0.30212
1.6765	7.75452
1.677	9.97009
1.6775	9.26514
1.678	1.91345
1.6785	4.83398
1.679	-2.11487
1.6795	-1.40991
1.68	2.01416
1.6805	6.2439
1.681	4.53186
1.6815	5.84106
1.682	0.30212
1.6825	6.04248
1.683	6.54602
1.6835	6.04248
1.684	1.00708
1.6845	1.2085
1.685	5.0354
1.6855	2.21558
1.686	4.22974
1.6865	4.43115
1.687	12.08496
1.6875	8.7616
1.688	2.31628
1.6885	-0.80566
1.689	3.52478
1.6895	2.92053
1.69	0.80566
1.6905	2.41699
1.691	0.20142
1.6915	0.70496
1.692	3.22266
1.6925	-2.41699
1.693	4.33044
1.6935	3.12195
1.694	8.35876
1.6945	7.04956
1.695	1.61133
1.6955	6.14319
1.696	0.30212
1.6965	2.5177
1.697	4.73328
1.6975	0.90637
1.698	2.41699
1.6985	-1.00708
1.699	0.20142
1.6995	0
1.7	1.3092
1.7005	4.83398
1.701	0.70496
1.7015	3.12195
1.702	5.43823
1.7025	6.44531
1.703	9.46655
1.7035	9.56726
1.704	3.7262
1.7045	2.5177
1.705	-0.20142
1.7055	5.43823
1.706	4.53186
1.7065	-0.80566
1.707	1.61133
1.7075	-0.60425
1.708	5.43823
1.7085	6.54602
1.709	9.26514
1.7095	0
1.71	6.84814
1.7105	10.97717
1.711	7.15027
1.7115	3.52478
1.712	5.74036
1.7125	4.83398
1.713	5.13611
1.7135	8.96301
1.714	2.21558
1.7145	6.44531
1.715	6.64673
1.7155	9.56726
1.716	14.50195
1.7165	7.85522
1.717	6.54602
1.7175	0.40283
1.718	6.64673
1.7185	3.02124
1.719	1.40991
1.7195	1.71204
1.72	2.11487
1.7205	1.00708
1.721	2.11487
1.7215	0.90637
1.722	5.84106
1.7225	-0.70496
1.723	-0.50354
1.7235	10.17151
1.724	10.77576
1.7245	10.97717
1.725	15.20691
1.7255	12.38708
1.726	10.57434
1.7265	12.38708
1.727	7.04956
1.7275	8.35876
1.728	3.92761
1.7285	-5.13611
1.729	-3.02124
1.7295	-2.5177
1.73	1.81274
1.7305	1.2085
1.731	9.36584
1.7315	9.86938
1.732	4.83398
1.7325	2.5177
1.733	8.25806
1.7335	2.11487
1.734	6.84814
1.7345	5.63965
1.735	2.31628
1.7355	1.81274
1.736	-0.50354
1.7365	0.20142
1.737	-3.52478
1.7375	1.00708
1.738	3.02124
1.7385	-2.11487
1.739	3.12195
1.7395	0.80566
1.74	2.21558
1.7405	0.20142
1.741	-1.00708
1.7415	-2.5177
1.742	0.90637
1.7425	5.23682
1.743	7.85522
1.7435	8.35876
1.744	4.93469
1.7445	3.32336
1.745	-2.71912
1.7455	3.32336
1.746	7.25098
1.7465	4.53186
1.747	7.95593
1.7475	7.95593
1.748	4.12903
1.7485	9.86938
1.749	11.98425
1.7495	6.74744
1.75	8.25806
1.7505	10.77576
1.751	6.14319
1.7515	12.68921
1.752	10.37292
1.7525	5.63965
1.753	7.95593
1.7535	4.83398
1.754	8.96301
1.7545	9.56726
1.755	0.80566
1.7555	6.84814
1.756	6.74744
1.7565	7.04956
1.757	9.56726
1.7575	7.25098
1.758	7.95593
1.7585	8.56018
1.759	3.02124
1.7595	2.11487
1.76	5.33752
1.7605	1.51062
1.761	4.73328
1.7615	-0.30212
1.762	1.2085
1.7625	0.30212
1.763	4.83398
1.7635	3.12195
1.764	-0.70496
1.7645	-4.53186
1.765	-4.53186
1.7655	-0.50354
1.766	-1.2085
1.7665	-2.31628
1.767	-0.10071
1.7675	-3.12195
1.768	-1.71204
1.7685	0.40283
1.769	-2.21558
1.7695	3.12195
1.77	-0.40283
1.7705	1.10779
1.771	-2.92053
1.7715	1.10779
1.772	6.74744
1.7725	6.44531
1.773	-1.10779
1.7735	6.54602
1.774	6.14319
1.7745	5.33752
1.775	11.2793
1.7755	6.74744
1.776	2.61841
1.7765	5.53894
1.777	7.5531
1.7775	7.75452
1.778	6.94885
1.7785	8.15735
1.779	9.66797
1.7795	4.12903
1.78	3.7262
1.7805	0.70496
1.781	0.30212
1.7815	7.35168
1.782	9.66797
1.7825	9.66797
1.783	6.74744
1.7835	6.84814
1.784	3.32336
1.7845	4.73328
1.785	1.00708
1.7855	8.56018
1.786	7.95593
1.7865	6.44531
1.787	11.07788
1.7875	12.78992
1.788	14.80408
1.7885	11.48071
1.789	14.90479
1.7895	5.84106
1.79	5.43823
1.7905	9.46655
1.791	8.35876
1.7915	4.22974
1.792	2.71912
1.7925	4.53186
1.793	-0.50354
1.7935	-3.92761
1.794	-1.51062
1.7945	-3.52478
1.795	0.30212
1.7955	0.50354
1.796	2.81982
1.7965	1.10779
1.797	-2.21558
1.7975	-1.40991
1.798	2.31628
1.7985	5.84106
1.799	11.58142
1.7995	10.87646
1.8	10.67505
1.8005	9.56726
1.801	3.12195
1.8015	7.75452
1.802	6.04248
1.8025	8.8623
1.803	11.98425
1.8035	7.45239
1.804	9.06372
1.8045	5.63965
1.805	6.14319
1.8055	2.01416
1.806	3.12195
1.8065	7.95593
1.807	6.3446
1.8075	7.75452
1.808	8.05664
1.8085	5.84106
1.809	3.7262
1.8095	5.33752
1.81	5.23682
1.8105	7.95593
1.811	4.12903
1.8115	5.74036
1.812	9.97009
1.8125	8.66089
1.813	9.16443
1.8135	8.96301
1.814	6.54602
1.8145	8.66089
1.815	4.63257
1.8155	6.3446
1.816	7.5531
1.8165	12.89062
1.817	11.07788
1.8175	8.7616
1.818	4.63257
1.8185	3.62549
1.819	7.75452
1.8195	9.16443
1.82	10.27222
1.8205	10.87646
1.821	9.86938
1.8215	5.43823
1.822	5.0354
1.8225	8.05664
1.823	7.5531
1.8235	9.36584
1.824	4.83398
1.8245	7.15027
1.825	4.53186
1.8255	0.60425
1.826	6.64673
1.8265	2.92053
1.827	3.7262
1.8275	8.45947
1.828	10.87646
1.8285	6.84814
1.829	9.66797
1.8295	9.36584
1.83	2.71912
1.8305	2.21558
1.831	5.84106
1.8315	4.12903
1.832	1.71204
1.8325	3.32336
1.833	4.33044
1.8335	6.44531
1.834	7.35168
1.8345	8.7616
1.835	5.53894
1.8355	9.56726
1.836	13.19275
1.8365	10.97717
1.837	11.38
1.8375	12.48779
1.838	10.57434
1.8385	11.07788
1.839	9.76868
1.8395	4.33044
1.84	10.47363
1.8405	12.28638
1.841	8.15735
1.8415	13.19275
1.842	13.19275
1.8425	13.99841
1.843	15.30762
1.8435	15.50903
1.844	17.6239
1.8445	21.65222
1.845	22.45789
1.8455	20.04089
1.846	15.1062
1.8465	12.48779
1.847	3.8269
1.8475	3.62549
1.848	-3.7262
1.8485	5.53894
1.849	3.92761
1.8495	0.50354
1.85	-2.31628
1.8505	1.91345
1.851	5.53894
1.8515	3.42407
1.852	-2.92053
1.8525	5.84106
1.853	5.74036
1.8535	7.04956
1.854	3.22266
1.8545	0.20142
1.855	4.02832
1.8555	-3.7262
1.856	6.2439
1.8565	-3.42407
1.857	10.17151
1.8575	8.15735
1.858	7.35168
1.8585	1.71204
1.859	0.70496
1.8595	-2.41699
1.86	-0.60425
1.8605	1.3092
1.861	-3.02124
1.8615	-3.02124
1.862	0.70496
1.8625	-0.40283
1.863	3.92761
1.8635	5.0354
1.864	4.63257
1.8645	6.2439
1.865	5.23682
1.8655	7.65381
1.866	6.54602
1.8665	5.43823
1.867	9.16443
1.8675	8.25806
1.868	12.78992
1.8685	2.81982
1.869	8.56018
1.8695	8.25806
1.87	4.53186
1.8705	5.13611
1.871	8.66089
1.8715	12.08496
1.872	12.18567
1.8725	7.45239
1.873	4.73328
1.8735	2.11487
1.874	10.67505
1.8745	8.66089
1.875	7.75452
1.8755	-0.70496
1.876	6.04248
1.8765	5.33752
1.877	-0.60425
1.8775	4.43115
1.878	-0.20142
1.8785	4.12903
1.879	8.05664
1.8795	2.11487
1.88	3.22266
1.8805	4.43115
1.881	6.94885
1.8815	1.40991
1.882	7.45239
1.8825	12.18567
1.883	12.18567
1.8835	13.39417
1.884	16.01257
1.8845	6.74744
1.885	8.96301
1.8855	2.41699
1.886	9.66797
1.8865	10.17151
1.887	12.38708
1.8875	9.26514
1.888	13.09204
1.8885	13.09204
1.889	9.86938
1.8895	1.81274
1.89	12.68921
1.8905	7.95593
1.891	3.52478
1.8915	5.43823
1.892	6.14319
1.8925	0.70496
1.893	3.12195
1.8935	4.73328
1.894	5.0354
1.8945	-0.30212
1.895	1.71204
1.8955	6.3446
1.896	7.15027
1.8965	1.81274
1.897	2.31628
1.8975	6.14319
1.898	-4.63257
1.8985	-4.22974
1.899	-6.84814
1.8995	-0.10071
1.9	-1.2085
1.9005	-0.30212
1.901	4.53186
1.9015	4.43115
1.902	1.91345
1.9025	1.91345
1.903	11.17859
1.9035	17.42249
1.904	18.8324
1.9045	18.42957
1.905	15.50903
1.9055	17.82532
1.906	17.12036
1.9065	22.15576
1.907	19.94019
1.9075	16.3147
1.908	13.99841
1.9085	20.54443
1.909	8.15735
1.9095	13.797
1.91	9.46655
1.9105	6.44531
1.911	12.99133
1.9115	7.45239
1.912	8.25806
1.9125	10.97717
1.913	7.04956
1.9135	10.97717
1.914	5.74036
1.9145	14.19983
1.915	12.68921
1.9155	8.35876
1.916	5.33752
1.9165	10.17151
1.917	7.15027
1.9175	4.22974
1.918	7.95593
1.9185	9.06372
1.919	1.71204
1.9195	9.06372
1.92	10.27222
1.9205	10.97717
1.921	12.5885
1.9215	5.74036
1.922	5.33752
1.9225	6.3446
1.923	6.04248
1.9235	5.43823
1.924	0.60425
1.9245	8.15735
1.925	3.8269
1.9255	6.04248
1.926	4.83398
1.9265	1.2085
1.927	4.83398
1.9275	2.41699
1.928	2.5177
1.9285	0.10071
1.929	2.21558
1.9295	2.11487
1.93	-1.51062
1.9305	4.73328
1.931	3.62549
1.9315	-0.50354
1.932	5.23682
1.9325	2.92053
1.933	9.26514
1.9335	7.35168
1.934	2.92053
1.9345	5.53894
1.935	7.65381
1.9355	4.73328
1.936	5.84106
1.9365	1.51062
1.937	4.63257
1.9375	8.8623
1.938	5.33752
1.9385	8.56018
1.939	3.62549
1.9395	4.02832
1.94	2.61841
1.9405	8.45947
1.941	6.3446
1.9415	10.0708
1.942	7.15027
1.9425	2.61841
1.943	7.04956
1.9435	0.70496
1.944	1.61133
1.9445	-2.92053
1.945	-2.81982
1.9455	-1.2085
1.946	-2.5177
1.9465	-0.90637
1.947	-4.93469
1.9475	0.10071
1.948	-2.5177
1.9485	3.32336
1.949	3.92761
1.9495	4.63257
1.95	3.42407
1.9505	5.84106
1.951	2.41699
1.9515	5.94177
1.952	1.3092
1.9525	3.52478
1.953	7.5531
1.9535	10.0708
1.954	9.46655
1.9545	16.41541
1.955	8.66089
1.9555	8.25806
1.956	10.47363
1.9565	11.2793
1.957	9.86938
1.9575	11.98425
1.958	9.66797
1.9585	8.56018
1.959	11.88354
1.9595	8.66089
1.96	7.95593
1.9605	7.45239
1.961	7.95593
1.9615	13.29346
1.962	16.21399
1.9625	15.30762
1.963	15.81116
1.9635	10.37292
1.964	10.37292
1.9645	6.04248
1.965	-0.20142
1.9655	3.12195
1.966	7.85522
1.9665	10.87646
1.967	9.06372
1.9675	7.75452
1.968	10.77576
1.9685	7.85522
1.969	12.18567
1.9695	8.25806
1.97	9.36584
1.9705	5.33752
1.971	-2.5177
1.9715	1.51062
1.972	-3.7262
1.9725	-5.33752
1.973	-6.54602
1.9735	-6.74744
1.974	-0.90637
1.9745	2.11487
1.975	1.3092
1.9755	-1.00708
1.976	-3.62549
1.9765	4.83398
1.977	-1.10779
1.9775	-2.31628
1.978	0.10071
1.9785	-5.63965
1.979	5.0354
1.9795	7.5531
1.98	10.27222
1.9805	9.76868
1.981	9.97009
1.9815	13.39417
1.982	16.3147
1.9825	14.90479
1.983	10.17151
1.9835	1.00708
1.984	-7.25098
1.9845	-7.25098
1.985	-3.12195
1.9855	-4.22974
1.986	1.10779
1.9865	-2.41699
1.987	0.40283
1.9875	6.04248
1.988	6.84814
1.9885	5.0354
1.989	11.38
1.9895	12.48779
1.99	11.38
1.9905	8.8623
1.991	3.02124
1.9915	5.63965
1.992	2.81982
1.9925	-3.42407
1.993	0.30212
1.9935	9.46655
1.994	3.02124
1.9945	1.00708
1.995	6.04248
1.9955	3.8269
1.996	3.22266
1.9965	-0.40283
1.997	2.41699
1.9975	1.3092
1.998	8.66089
1.9985	6.14319
1.999	11.07788
1.9995	1.71204
2	3.92761
2.0005	1.91345
2.001	-0.30212
2.0015	2.11487
2.002	1.91345
2.0025	3.92761
2.003	9.97009
2.0035	5.53894
2.004	-0.20142
2.0045	4.02832
2.005	7.65381
2.0055	6.14319
2.006	8.56018
2.0065	0.60425
2.007	1.51062
2.0075	3.8269
2.008	3.62549
2.0085	-0.20142
2.009	-1.3092
2.0095	0
2.01	0.50354
2.0105	-0.50354
2.011	5.74036
2.0115	6.94885
2.012	-1.3092
2.0125	-3.92761
2.013	-1.3092
2.0135	-0.80566
2.014	1.2085
2.0145	5.33752
2.015	2.41699
2.0155	0.50354
2.016	0
2.0165	5.94177
2.017	5.13611
2.0175	7.25098
2.018	11.48071
2.0185	13.39417
2.019	10.97717
2.0195	7.5531
2.02	14.09912
2.0205	7.5531
2.021	7.25098
2.0215	6.54602
2.022	1.3092
2.0225	8.35876
2.023	15.50903
2.0235	8.05664
2.024	6.54602
2.0245	5.74036
2.025	6.44531
2.0255	14.90479
2.026	13.99841
2.0265	10.87646
2.027	7.25098
2.0275	8.8623
2.028	8.8623
2.0285	14.70337
2.029	8.66089
2.0295	9.66797
2.03	10.17151
2.0305	14.19983
2.031	15.00549
2.0315	10.77576
2.032	14.40125
2.0325	10.87646
2.033	10.77576
2.0335	6.74744
2.034	7.95593
2.0345	13.59558
2.035	13.797
2.0355	7.15027
2.036	1.81274
2.0365	4.43115
2.037	3.02124
2.0375	2.92053
2.038	1.61133
2.0385	1.40991
2.039	0
2.0395	-1.81274
2.04	-1.51062
2.0405	5.33752
2.041	9.66797
2.0415	3.8269
2.042	4.53186
2.0425	2.11487
2.043	7.5531
2.0435	10.37292
2.044	4.53186
2.0445	1.00708
2.045	2.81982
2.0455	4.93469
2.046	3.62549
2.0465	4.22974
2.047	4.63257
2.0475	3.32336
2.048	10.17151
2.0485	9.76868
2.049	10.0708
2.0495	13.59558
2.05	9.26514
2.0505	6.2439
2.051	5.13611
2.0515	5.84106
2.052	1.10779
2.0525	1.51062
2.053	-0.40283
2.0535	3.7262
2.054	-1.71204
2.0545	0.80566
2.055	1.2085
2.0555	6.2439
2.056	4.93469
2.0565	13.29346
2.057	4.22974
2.0575	9.36584
2.058	9.16443
2.0585	11.48071
2.059	13.29346
2.0595	13.89771
2.06	15.71045
2.0605	10.0708
2.061	12.28638
2.0615	9.26514
2.062	14.80408
2.0625	15.40833
2.063	11.88354
2.0635	9.56726
2.064	10.87646
2.0645	8.7616
2.065	0.70496
2.0655	-0.10071
2.066	4.02832
2.0665	3.02124
2.067	8.7616
2.0675	4.53186
2.068	3.22266
2.0685	5.13611
2.069	0.80566
2.0695	0.30212
2.07	0
2.0705	2.71912
2.071	2.92053
2.0715	4.63257
2.072	6.94885
2.0725	0.10071
2.073	2.41699
2.0735	5.43823
2.074	6.54602
2.0745	2.71912
2.075	6.2439
2.0755	4.83398
2.076	1.10779
2.0765	3.02124
2.077	0
2.0775	5.33752
2.078	3.42407
2.0785	8.96301
2.079	4.53186
2.0795	9.06372
2.08	10.0708
2.0805	8.15735
2.081	9.86938
2.0815	12.08496
2.082	6.54602
2.0825	5.23682
2.083	9.16443
2.0835	2.31628
2.084	4.12903
2.0845	7.35168
2.085	3.7262
2.0855	-3.02124
2.086	1.71204
2.0865	2.61841
2.087	13.29346
2.0875	7.95593
2.088	1.61133
2.0885	6.64673
2.089	6.54602
2.0895	6.54602
2.09	2.81982
2.0905	5.53894
2.091	2.21558
2.0915	2.01416
2.092	1.40991
2.0925	4.53186
2.093	2.71912
2.0935	1.91345
2.094	3.8269
2.0945	-0.20142
2.095	1.71204
2.0955	4.33044
2.096	6.44531
2.0965	4.83398
2.097	3.52478
2.0975	11.58142
2.098	10.87646
2.0985	10.47363
2.099	8.25806
2.0995	6.04248
2.1	-0.30212
2.1005	1.51062
2.101	2.01416
2.1015	4.02832
2.102	7.45239
2.1025	2.92053
2.103	7.75452
2.1035	1.91345
2.104	1.61133
2.1045	8.7616
2.105	12.28638
2.1055	9.26514
2.106	8.7616
2.1065	11.78284
2.107	10.27222
2.1075	5.33752
2.108	12.78992
2.1085	10.37292
2.109	16.81824
2.1095	11.58142
2.11	13.99841
2.1105	9.36584
2.111	13.69629
2.1115	13.39417
2.112	12.48779
2.1125	11.58142
2.113	10.67505
2.1135	7.75452
2.114	4.33044
2.1145	2.71912
2.115	9.26514
2.1155	11.58142
2.116	2.21558
2.1165	6.3446
2.117	1.00708
2.1175	3.32336
2.118	5.74036
2.1185	2.61841
2.119	2.81982
2.1195	5.43823
2.12	-3.42407
2.1205	3.92761
2.121	9.97009
2.1215	9.76868
2.122	9.36584
2.1225	9.16443
2.123	4.43115
2.1235	5.74036
2.124	0.60425
2.1245	6.3446
2.125	2.61841
2.1255	9.56726
2.126	0.50354
2.1265	-1.61133
2.127	5.0354
2.1275	4.83398
2.128	1.91345
2.1285	1.81274
2.129	3.8269
2.1295	10.37292
2.13	0.90637
2.1305	5.53894
2.131	1.40991
2.1315	4.22974
2.132	5.43823
2.1325	11.38
2.133	10.27222
2.1335	6.2439
2.134	8.25806
2.1345	3.8269
2.135	13.39417
2.1355	13.39417
2.136	8.45947
2.1365	7.85522
2.137	10.27222
2.1375	13.99841
2.138	10.37292
2.1385	12.08496
2.139	12.08496
2.1395	11.48071
2.14	13.29346
2.1405	11.07788
2.141	13.39417
2.1415	12.68921
2.142	10.37292
2.1425	7.85522
2.143	9.66797
2.1435	14.09912
2.144	7.75452
2.1445	9.66797
2.145	10.87646
2.1455	5.33752
2.146	5.33752
2.1465	8.8623
2.147	5.84106
2.1475	6.44531
2.148	5.0354
2.1485	11.07788
2.149	2.81982
2.1495	6.14319
2.15	8.15735
2.1505	10.57434
2.151	10.97717
2.1515	12.28638
2.152	6.14319
2.1525	12.89062
2.153	9.56726
2.1535	7.04956
2.154	10.67505
2.1545	6.64673
2.155	1.10779
2.1555	5.63965
2.156	9.36584
2.1565	6.04248
2.157	6.54602
2.1575	8.8623
2.158	3.62549
2.1585	5.74036
2.159	3.8269
2.1595	4.93469
2.16	6.84814
2.1605	4.22974
2.161	3.12195
2.1615	7.65381
2.162	8.35876
2.1625	6.84814
2.163	3.52478
2.1635	1.81274
2.164	6.54602
2.1645	8.45947
2.165	4.22974
2.1655	5.84106
2.166	6.74744
2.1665	8.35876
2.167	7.95593
2.1675	4.63257
2.168	6.54602
2.1685	4.63257
2.169	3.12195
2.1695	-0.50354
2.17	1.40991
2.1705	2.92053
2.171	-0.30212
2.1715	-2.41699
2.172	5.63965
2.1725	4.83398
2.173	6.64673
2.1735	0.10071
2.174	4.63257
2.1745	5.84106
2.175	1.51062
2.1755	-3.32336
2.176	1.71204
2.1765	5.74036
2.177	8.35876
2.1775	2.81982
2.178	4.22974
2.1785	2.61841
2.179	5.84106
2.1795	-1.00708
2.18	2.21558
2.1805	6.54602
2.181	9.56726
2.1815	4.53186
2.182	7.95593
2.1825	6.64673
2.183	3.62549
2.1835	7.15027
2.184	7.85522
2.1845	4.12903
2.185	8.56018
2.1855	5.94177
2.186	4.63257
2.1865	6.94885
2.187	14.19983
2.1875	14.40125
2.188	10.27222
2.1885	9.06372
2.189	12.18567
2.1895	9.06372
2.19	9.56726
2.1905	11.68213
2.191	9.26514
2.1915	5.63965
2.192	7.95593
2.1925	0.70496
2.193	8.45947
2.1935	9.16443
2.194	9.46655
2.1945	4.63257
2.195	2.5177
2.1955	5.43823
2.196	9.66797
2.1965	6.94885
2.197	3.12195
2.1975	0.30212
2.198	6.84814
2.1985	6.04248
2.199	7.25098
2.1995	4.93469
2.2	4.83398
2.2005	9.46655
2.201	3.32336
2.2015	4.22974
2.202	1.81274
2.2025	2.31628
2.203	2.31628
2.2035	1.10779
2.204	9.66797
2.2045	3.52478
2.205	3.8269
2.2055	2.11487
2.206	2.21558
2.2065	6.94885
2.207	4.02832
2.2075	1.10779
2.208	4.73328
2.2085	3.02124
2.209	9.56726
2.2095	9.36584
2.21	10.17151
2.2105	9.06372
2.211	13.09204
2.2115	9.36584
2.212	4.93469
2.2125	10.77576
2.213	12.89062
2.2135	10.67505
2.214	7.95593
2.2145	10.87646
2.215	13.69629
2.2155	7.85522
2.216	6.74744
2.2165	6.14319
2.217	11.58142
2.2175	9.46655
2.218	8.8623
2.2185	9.36584
2.219	8.56018
2.2195	4.73328
2.22	10.87646
2.2205	8.7616
2.221	9.16443
2.2215	8.05664
2.222	2.71912
2.2225	10.67505
2.223	10.0708
2.2235	4.63257
2.224	0.10071
2.2245	8.7616
2.225	7.65381
2.2255	7.04956
2.226	10.57434
2.2265	7.85522
2.227	5.84106
2.2275	8.66089
2.228	9.36584
2.2285	11.78284
2.229	11.68213
2.2295	3.62549
2.23	3.22266
2.2305	3.22266
2.231	2.11487
2.2315	-1.3092
2.232	2.01416
2.2325	1.51062
2.233	0.40283
2.2335	4.12903
2.234	2.41699
2.2345	-1.71204
2.235	-0.80566
2.2355	-1.51062
2.236	-0.70496
2.2365	3.7262
2.237	-0.90637
2.2375	-0.30212
2.238	2.92053
2.2385	1.61133
2.239	-0.30212
2.2395	1.61133
2.24	6.54602
2.2405	3.7262
2.241	7.15027
2.2415	5.23682
2.242	2.92053
2.2425	2.5177
2.243	5.53894
2.2435	14.19983
2.244	7.04956
2.2445	10.57434
2.245	7.25098
2.2455	6.14319
2.246	9.86938
2.2465	7.45239
2.247	4.53186
2.2475	5.84106
2.248	5.74036
2.2485	5.63965
2.249	11.78284
2.2495	6.3446
2.25	2.5177
2.2505	2.92053
2.251	2.81982
2.2515	7.5531
2.252	7.5531
2.2525	10.67505
2.253	6.04248
2.2535	4.33044
2.254	-4.12903
2.2545	2.31628
2.255	-1.51062
2.2555	-1.3092
2.256	5.53894
2.2565	8.15735
2.257	7.25098
2.2575	1.10779
2.258	4.53186
2.2585	5.94177
2.259	7.04956
2.2595	6.54602
2.26	8.45947
2.2605	9.46655
2.261	4.43115
2.2615	0.60425
2.262	2.71912
2.2625	2.41699
2.263	2.5177
2.2635	-1.51062
2.264	3.52478
2.2645	4.12903
2.265	0.80566
2.2655	5.84106
2.266	5.0354
2.2665	-1.91345
2.267	-5.53894
2.2675	-0.70496
2.268	-4.12903
2.2685	0.40283
2.269	4.43115
2.2695	-3.52478
2.27	-3.8269
2.2705	-0.30212
2.271	2.11487
2.2715	1.2085
2.272	1.51062
2.2725	6.3446
2.273	5.63965
2.2735	5.84106
2.274	3.52478
2.2745	2.11487
2.275	-2.21558
2.2755	3.7262
2.276	3.12195
2.2765	-0.90637
2.277	3.12195
2.2775	-0.70496
2.278	-1.81274
2.2785	-0.90637
2.279	0.80566
2.2795	-1.91345
2.28	-0.40283
2.2805	0.40283
2.281	-5.33752
2.2815	-2.01416
2.282	-2.31628
2.2825	-2.92053
2.283	-2.01416
2.2835	-3.7262
2.284	-1.61133
2.2845	1.3092
2.285	2.5177
2.2855	1.81274
2.286	-2.81982
2.2865	-1.2085
2.287	2.01416
2.2875	0.20142
2.288	3.32336
2.2885	1.10779
2.289	8.8623
2.2895	7.35168
2.29	3.8269
2.2905	0.10071
2.291	4.53186
2.2915	4.63257
2.292	4.12903
2.2925	8.8623
2.293	7.65381
2.2935	9.16443
2.294	3.8269
2.2945	3.02124
2.295	4.83398
2.2955	0.90637
2.296	3.22266
2.2965	3.92761
2.297	1.91345
2.2975	4.12903
2.298	8.96301
2.2985	11.88354
2.299	8.15735
2.2995	13.09204
2.3	6.84814
2.3005	6.64673
2.301	2.11487
2.3015	4.63257
2.302	5.53894
2.3025	3.52478
2.303	7.75452
2.3035	6.14319
2.304	8.25806
2.3045	6.54602
2.305	8.56018
2.3055	7.85522
2.306	5.23682
2.3065	4.93469
2.307	-1.3092
2.3075	-1.3092
2.308	0.50354
2.3085	-1.81274
2.309	3.32336
2.3095	0.30212
2.31	-0.10071
2.3105	-1.51062
2.311	4.53186
2.3115	2.92053
2.312	7.25098
2.3125	9.97009
2.313	10.77576
2.3135	9.06372
2.314	7.5531
2.3145	10.77576
2.315	10.67505
2.3155	10.27222
2.316	9.76868
2.3165	5.0354
2.317	7.75452
2.3175	1.00708
2.318	6.44531
2.3185	0.20142
2.319	5.74036
2.3195	2.5177
2.32	5.74036
2.3205	6.84814
2.321	6.04248
2.3215	7.5531
2.322	2.41699
2.3225	-0.20142
2.323	4.12903
2.3235	4.93469
2.324	3.7262
2.3245	7.15027
2.325	4.22974
2.3255	5.84106
2.326	11.48071
2.3265	9.97009
2.327	13.59558
2.3275	5.23682
2.328	6.84814
2.3285	8.8623
2.329	5.63965
2.3295	6.14319
2.33	5.94177
2.3305	6.44531
2.331	4.93469
2.3315	1.10779
2.332	1.81274
2.3325	5.23682
2.333	7.04956
2.3335	-2.81982
2.334	3.22266
2.3345	8.25806
2.335	8.96301
2.3355	12.18567
2.336	7.5531
2.3365	7.75452
2.337	11.98425
2.3375	15.60974
2.338	8.66089
2.3385	6.44531
2.339	7.35168
2.3395	9.46655
2.34	11.07788
2.3405	10.17151
2.341	9.36584
2.3415	6.74744
2.342	7.25098
2.3425	3.62549
2.343	5.43823
2.3435	8.45947
2.344	5.23682
2.3445	5.43823
2.345	4.83398
2.3455	7.15027
2.346	5.43823
2.3465	4.83398
2.347	0.60425
2.3475	5.0354
2.348	8.05664
2.3485	8.45947
2.349	9.97009
2.3495	5.43823
2.35	4.63257
2.3505	1.61133
2.351	2.81982
2.3515	1.40991
2.352	3.32336
2.3525	4.43115
2.353	5.43823
2.3535	1.51062
2.354	4.53186
2.3545	-1.91345
2.355	2.5177
2.3555	5.33752
2.356	1.10779
2.3565	7.5531
2.357	11.2793
2.3575	4.43115
2.358	8.05664
2.3585	1.40991
2.359	2.31628
2.3595	8.7616
2.36	8.66089
2.3605	8.25806
2.361	7.04956
2.3615	3.22266
2.362	5.74036
2.3625	5.0354
2.363	4.22974
2.3635	9.16443
2.364	7.45239
2.3645	6.84814
2.365	1.61133
2.3655	1.61133
2.366	1.10779
2.3665	7.04956
2.367	10.37292
2.3675	8.45947
2.368	7.85522
2.3685	7.35168
2.369	7.95593
2.3695	5.23682
2.37	4.83398
2.3705	6.3446
2.371	5.23682
2.3715	13.29346
2.372	6.94885
2.3725	10.0708
2.373	4.93469
2.3735	5.0354
2.374	1.71204
2.3745	5.63965
2.375	-2.11487
2.3755	-2.01416
2.376	3.92761
2.3765	10.97717
2.377	2.61841
2.3775	-2.31628
2.378	-1.40991
2.3785	2.61841
2.379	7.75452
2.3795	5.23682
2.38	9.26514
2.3805	5.0354
2.381	2.01416
2.3815	3.42407
2.382	8.96301
2.3825	8.96301
2.383	5.43823
2.3835	2.31628
2.384	5.23682
2.3845	1.10779
2.385	1.3092
2.3855	4.22974
2.386	1.40991
2.3865	2.31628
2.387	6.2439
2.3875	4.73328
2.388	4.02832
2.3885	1.61133
2.389	6.14319
2.3895	4.33044
2.39	-1.51062
2.3905	4.53186
2.391	-2.01416
2.3915	2.21558
2.392	-3.32336
2.3925	-2.61841
2.393	1.10779
2.3935	-4.12903
2.394	-2.41699
2.3945	-0.30212
2.395	-0.30212
2.3955	0
2.396	8.15735
2.3965	6.3446
2.397	7.35168
2.3975	7.45239
2.398	8.25806
2.3985	5.23682
2.399	6.44531
2.3995	8.45947
2.4	8.7616
2.4005	10.0708
2.401	10.47363
2.4015	7.5531
2.402	4.53186
2.4025	13.797
2.403	10.0708
2.4035	10.27222
2.404	10.47363
2.4045	6.14319
2.405	7.25098
2.4055	6.64673
2.406	10.67505
2.4065	18.02673
2.407	15.71045
2.4075	12.48779
2.408	10.0708
2.4085	10.87646
2.409	11.17859
2.4095	8.15735
2.41	10.37292
2.4105	9.97009
2.411	9.56726
2.4115	5.13611
2.412	9.86938
2.4125	11.88354
2.413	9.76868
2.4135	9.06372
2.414	2.01416
2.4145	3.42407
2.415	3.22266
2.4155	6.14319
2.416	-0.20142
2.4165	-2.61841
2.417	4.22974
2.4175	11.48071
2.418	9.36584
2.4185	9.06372
2.419	5.23682
2.4195	9.76868
2.42	6.14319
2.4205	10.37292
2.421	6.54602
2.4215	5.13611
2.422	3.62549
2.4225	6.74744
2.423	7.95593
2.4235	4.33044
2.424	1.51062
2.4245	1.00708
2.425	4.22974
2.4255	11.17859
2.426	8.45947
2.4265	5.13611
2.427	7.15027
2.4275	6.54602
2.428	12.68921
2.4285	3.52478
2.429	3.62549
2.4295	4.12903
2.43	10.77576
2.4305	12.68921
2.431	4.02832
2.4315	9.56726
2.432	8.7616
2.4325	0.90637
2.433	9.06372
2.4335	5.0354
2.434	4.12903
2.4345	8.35876
2.435	5.43823
2.4355	5.33752
2.436	8.25806
2.4365	5.33752
2.437	7.65381
2.4375	-0.50354
2.438	4.33044
2.4385	-1.3092
2.439	9.06372
2.4395	12.08496
2.44	9.26514
2.4405	10.67505
2.441	8.56018
2.4415	13.89771
2.442	6.64673
2.4425	7.45239
2.443	11.78284
2.4435	7.75452
2.444	6.04248
2.4445	2.61841
2.445	4.93469
2.4455	6.54602
2.446	6.84814
2.4465	6.64673
2.447	7.45239
2.4475	4.93469
2.448	7.45239
2.4485	3.62549
2.449	3.02124
2.4495	8.8623
2.45	6.54602
2.4505	3.62549
2.451	6.64673
2.4515	8.45947
2.452	5.13611
2.4525	11.17859
2.453	11.48071
2.4535	11.68213
2.454	9.16443
2.4545	8.05664
2.455	6.2439
2.4555	12.99133
2.456	4.33044
2.4565	6.2439
2.457	3.42407
2.4575	1.51062
2.458	1.51062
2.4585	-0.90637
2.459	-0.30212
2.4595	-1.10779
2.46	3.02124
2.4605	3.02124
2.461	-0.90637
2.4615	2.81982
2.462	0.70496
2.4625	0.60425
2.463	-1.2085
2.4635	1.2085
2.464	-2.01416
2.4645	2.41699
2.465	1.91345
2.4655	0.10071
2.466	3.12195
2.4665	5.43823
2.467	2.01416
2.4675	3.92761
2.468	5.63965
2.4685	1.61133
2.469	2.41699
2.4695	3.7262
2.47	4.02832
2.4705	-0.30212
2.471	7.35168
2.4715	8.05664
2.472	6.84814
2.4725	8.25806
2.473	6.54602
2.4735	8.35876
2.474	1.3092
2.4745	2.01416
2.475	3.32336
2.4755	6.94885
2.476	-0.80566
2.4765	7.04956
2.477	-0.40283
2.4775	-3.22266
2.478	-2.21558
2.4785	-4.33044
2.479	3.52478
2.4795	3.42407
2.48	8.8623
2.4805	4.12903
2.481	0.70496
2.4815	1.2085
2.482	0.40283
2.4825	4.73328
2.483	-1.2085
2.4835	6.14319
2.484	5.63965
2.4845	2.01416
2.485	1.61133
2.4855	-2.11487
2.486	2.21558
2.4865	1.10779
2.487	3.12195
2.4875	6.84814
2.488	2.92053
2.4885	3.42407
2.489	7.35168
2.4895	9.26514
2.49	10.47363
2.4905	3.8269
2.491	6.14319
2.4915	3.8269
2.492	3.7262
2.4925	5.33752
2.493	-3.42407
2.4935	5.0354
2.494	3.92761
2.4945	-5.33752
2.495	1.10779
2.4955	6.44531
2.496	-0.70496
2.4965	4.43115
2.497	10.17151
2.4975	4.63257
2.498	1.3092
2.4985	-2.31628
2.499	6.44531
2.4995	3.62549
2.5	0.10071
2.5005	4.12903
2.501	-1.81274
2.5015	1.10779
2.502	-1.2085
2.5025	-2.92053
2.503	-5.0354
2.5035	-5.43823
2.504	0.50354
2.5045	-3.92761
2.505	-7.95593
2.5055	-9.66797
2.506	-3.52478
2.5065	3.42407
2.507	-5.0354
2.5075	-6.54602
2.508	2.01416
2.5085	4.93469
2.509	0.60425
2.5095	-2.41699
2.51	-0.10071
2.5105	-3.62549
2.511	-0.20142
2.5115	-2.31628
2.512	1.81274
2.5125	1.71204
2.513	0.40283
2.5135	-3.92761
2.514	2.21558
2.5145	-0.90637
2.515	1.61133
2.5155	6.04248
2.516	0.70496
2.5165	3.62549
2.517	6.74744
2.5175	5.13611
2.518	8.25806
2.5185	6.2439
2.519	3.8269
2.5195	7.95593
2.52	10.67505
2.5205	8.56018
2.521	3.42407
2.5215	3.52478
2.522	6.94885
2.5225	7.65381
2.523	3.8269
2.5235	5.94177
2.524	5.43823
2.5245	2.81982
2.525	2.11487
2.5255	1.71204
2.526	5.94177
2.5265	0.30212
2.527	-3.62549
2.5275	-3.32336
2.528	4.73328
2.5285	1.10779
2.529	7.45239
2.5295	7.75452
2.53	7.65381
2.5305	4.93469
2.531	9.36584
2.5315	7.75452
2.532	11.07788
2.5325	10.27222
2.533	7.04956
2.5335	8.96301
2.534	3.8269
2.5345	9.06372
2.535	7.25098
2.5355	7.95593
2.536	1.71204
2.5365	8.66089
2.537	9.26514
2.5375	2.61841
2.538	5.33752
2.5385	7.65381
2.539	5.33752
2.5395	0.60425
2.54	7.15027
2.5405	7.95593
2.541	4.33044
2.5415	7.75452
2.542	11.58142
2.5425	12.18567
2.543	8.96301
2.5435	6.74744
2.544	10.27222
2.5445	11.38
2.545	3.32336
2.5455	11.07788
2.546	5.33752
2.5465	8.45947
2.547	4.83398
2.5475	10.77576
2.548	6.14319
2.5485	7.5531
2.549	6.54602
2.5495	6.04248
2.55	-0.10071
2.5505	2.31628
2.551	2.41699
2.5515	6.54602
2.552	1.71204
2.5525	2.81982
2.553	5.0354
2.5535	5.43823
2.554	-1.51062
2.5545	1.81274
2.555	3.12195
2.5555	2.5177
2.556	2.41699
2.5565	13.09204
2.557	3.7262
2.5575	0.10071
2.558	4.73328
2.5585	9.26514
2.559	7.85522
2.5595	6.04248
2.56	8.05664
2.5605	12.38708
2.561	10.47363
2.5615	9.97009
2.562	15.1062
2.5625	10.57434
2.563	6.94885
2.5635	8.56018
2.564	7.75452
2.5645	11.78284
2.565	9.06372
2.5655	6.44531
2.566	2.21558
2.5665	6.94885
2.567	10.97717
2.5675	9.06372
2.568	10.27222
2.5685	4.93469
2.569	3.8269
2.5695	11.58142
2.57	6.14319
2.5705	7.45239
2.571	11.38
2.5715	15.91187
2.572	10.27222
2.5725	9.16443
2.573	11.78284
2.5735	12.08496
2.574	10.17151
2.5745	4.12903
2.575	3.32336
2.5755	5.84106
2.576	7.75452
2.5765	6.84814
2.577	9.76868
2.5775	7.5531
2.578	11.2793
2.5785	11.07788
2.579	8.15735
2.5795	9.56726
2.58	6.64673
2.5805	10.87646
2.581	6.14319
2.5815	9.66797
2.582	13.09204
2.5825	6.54602
2.583	6.04248
2.5835	-2.81982
2.584	1.3092
2.5845	6.14319
2.585	9.36584
2.5855	12.99133
2.586	8.45947
2.5865	7.75452
2.587	10.67505
2.5875	9.06372
2.588	7.35168
2.5885	3.32336
2.589	9.86938
2.5895	9.66797
2.59	12.28638
2.5905	11.98425
2.591	12.78992
2.5915	10.17151
2.592	9.86938
2.5925	2.5177
2.593	2.5177
2.5935	3.32336
2.594	8.66089
2.5945	4.83398
2.595	5.63965
2.5955	7.25098
2.596	7.75452
2.5965	5.63965
2.597	1.61133
2.5975	1.2085
2.598	0.90637
2.5985	7.35168
2.599	4.22974
2.5995	3.12195
2.6	3.62549
2.6005	3.22266
2.601	4.73328
2.6015	10.17151
2.602	8.56018
2.6025	14.50195
2.603	16.71753
2.6035	15.71045
2.604	9.66797
2.6045	11.48071
2.605	11.48071
2.6055	18.8324
2.606	20.04089
2.6065	11.17859
2.607	6.94885
2.6075	12.08496
2.608	9.86938
2.6085	10.47363
2.609	17.52319
2.6095	14.30054
2.61	7.04956
2.6105	10.67505
2.611	17.32178
2.6115	16.41541
2.612	8.35876
2.6125	14.70337
2.613	13.69629
2.6135	16.91895
2.614	19.23523
2.6145	12.89062
2.615	7.5531
2.6155	9.06372
2.616	-1.81274
2.6165	-0.20142
2.617	5.13611
2.6175	4.93469
2.618	6.14319
2.6185	1.91345
2.619	4.63257
2.6195	6.2439
2.62	0.20142
2.6205	2.81982
2.621	3.12195
2.6215	1.61133
2.622	10.0708
2.6225	5.63965
2.623	6.64673
2.6235	4.83398
2.624	2.21558
2.6245	-1.00708
2.625	5.43823
2.6255	8.66089
2.626	6.84814
2.6265	5.84106
2.627	5.74036
2.6275	5.84106
2.628	6.14319
2.6285	6.64673
2.629	6.64673
2.6295	8.56018
2.63	7.25098
2.6305	2.5177
2.631	1.61133
2.6315	4.63257
2.632	0
2.6325	0
2.633	1.00708
2.6335	3.92761
2.634	4.43115
2.6345	4.63257
2.635	2.41699
2.6355	1.3092
2.636	1.00708
2.6365	5.13611
2.637	3.92761
2.6375	3.22266
2.638	-0.30212
2.6385	-2.61841
2.639	4.53186
2.6395	0.90637
2.64	3.8269
2.6405	9.97009
2.641	0.80566
2.6415	8.15735
2.642	10.77576
2.6425	8.15735
2.643	3.12195
2.6435	-0.90637
2.644	3.12195
2.6445	2.71912
2.645	-2.11487
2.6455	-2.5177
2.646	-1.91345
2.6465	0.20142
2.647	-1.61133
2.6475	-1.10779
2.648	6.3446
2.6485	3.42407
2.649	-3.02124
2.6495	-3.22266
2.65	0.20142
2.6505	0.50354
2.651	-3.62549
2.6515	-5.63965
2.652	-2.92053
2.6525	-2.71912
2.653	-2.92053
2.6535	-1.3092
2.654	-2.92053
2.6545	-0.50354
2.655	5.94177
2.6555	-1.71204
2.656	3.62549
2.6565	0.60425
2.657	-3.12195
2.6575	1.3092
2.658	-2.5177
2.6585	0.60425
2.659	1.40991
2.6595	7.04956
2.66	8.7616
2.6605	10.97717
2.661	1.71204
2.6615	7.45239
2.662	9.86938
2.6625	5.53894
2.663	8.45947
2.6635	7.35168
2.664	9.56726
2.6645	10.17151
2.665	6.44531
2.6655	6.44531
2.666	7.85522
2.6665	5.13611
2.667	12.5885
2.6675	4.83398
2.668	6.04248
2.6685	5.94177
2.669	4.93469
2.6695	5.13611
2.67	7.75452
2.6705	6.14319
2.671	5.63965
2.6715	6.44531
2.672	6.44531
2.6725	11.17859
2.673	9.56726
2.6735	7.04956
2.674	8.56018
2.6745	7.5531
2.675	10.87646
2.6755	5.84106
2.676	7.85522
2.6765	7.25098
2.677	5.74036
2.6775	3.52478
2.678	3.32336
2.6785	-0.20142
2.679	5.84106
2.6795	6.54602
2.68	7.75452
2.6805	9.36584
2.681	6.84814
2.6815	9.66797
2.682	8.05664
2.6825	7.35168
2.683	3.92761
2.6835	17.42249
2.684	11.17859
2.6845	12.38708
2.685	13.89771
2.6855	9.16443
2.686	6.2439
2.6865	3.42407
2.687	8.8623
2.6875	12.38708
2.688	14.60266
2.6885	11.2793
2.689	16.61682
2.6895	12.78992
2.69	16.3147
2.6905	12.78992
2.691	10.0708
2.6915	9.36584
2.692	5.94177
2.6925	5.84106
2.693	11.88354
2.6935	8.7616
2.694	8.7616
2.6945	12.68921
2.695	11.38
2.6955	8.35876
2.696	4.93469
2.6965	7.75452
2.697	7.5531
2.6975	7.35168
2.698	5.13611
2.6985	11.17859
2.699	6.14319
2.6995	7.15027
2.7	9.46655
2.7005	1.81274
2.701	4.12903
2.7015	5.53894
2.702	7.85522
2.7025	6.44531
2.703	9.56726
2.7035	7.35168
2.704	8.45947
2.7045	6.54602
2.705	5.84106
2.7055	9.97009
2.706	11.98425
2.7065	10.87646
2.707	11.58142
2.7075	11.2793
2.708	17.32178
2.7085	8.8623
2.709	9.36584
2.7095	12.68921
2.71	21.14868
2.7105	19.94019
2.711	18.02673
2.7115	15.1062
2.712	15.00549
2.7125	16.61682
2.713	15.30762
2.7135	10.37292
2.714	11.38
2.7145	11.78284
2.715	14.19983
2.7155	11.17859
2.716	18.93311
2.7165	11.17859
2.717	9.76868
2.7175	8.25806
2.718	16.81824
2.7185	15.1062
2.719	18.12744
2.7195	13.59558
2.72	11.88354
2.7205	12.78992
2.721	15.20691
2.7215	10.0708
2.722	11.78284
2.7225	15.00549
2.723	8.96301
2.7235	13.19275
2.724	8.05664
2.7245	10.87646
2.725	3.7262
2.7255	9.26514
2.726	8.25806
2.7265	11.88354
2.727	12.28638
2.7275	9.76868
2.728	5.0354
2.7285	3.32336
2.729	9.36584
2.7295	3.32336
2.73	8.8623
2.7305	2.92053
2.731	1.10779
2.7315	0.80566
2.732	1.40991
2.7325	1.40991
2.733	4.22974
2.7335	-4.43115
2.734	-0.30212
2.7345	3.12195
2.735	1.91345
2.7355	2.5177
2.736	4.33044
2.7365	4.53186
2.737	0.10071
2.7375	-1.10779
2.738	0.60425
2.7385	3.12195
2.739	-2.71912
2.7395	2.41699
2.74	3.62549
2.7405	3.52478
2.741	2.81982
2.7415	-5.0354
2.742	-2.11487
2.7425	-2.31628
2.743	-2.41699
2.7435	-2.01416
2.744	1.81274
2.7445	-2.5177
2.745	-4.63257
2.7455	-0.10071
2.746	-0.60425
2.7465	-8.96301
2.747	-4.02832
2.7475	-8.56018
2.748	-1.10779
2.7485	0.30212
2.749	-3.62549
2.7495	-4.43115
2.75	-2.61841
2.7505	-4.43115
2.751	1.10779
2.7515	0.10071
2.752	3.92761
2.7525	2.21558
2.753	-4.22974
2.7535	-4.63257
2.754	-0.10071
2.7545	0
2.755	2.81982
2.7555	0.70496
2.756	0.30212
2.7565	-2.61841
2.757	-5.23682
2.7575	-1.40991
2.758	0.90637
2.7585	2.21558
2.759	1.51062
2.7595	1.10779
2.76	1.00708
2.7605	1.91345
2.761	1.51062
2.7615	-1.71204
2.762	-0.40283
2.7625	-4.02832
2.763	-3.12195
2.7635	-3.7262
2.764	-6.84814
2.7645	-5.53894
2.765	-1.3092
2.7655	-1.00708
2.766	-5.0354
2.7665	-3.92761
2.767	-0.70496
2.7675	-1.71204
2.768	-6.3446
2.7685	-4.93469
2.769	-2.31628
2.7695	-2.81982
2.77	-2.11487
2.7705	-0.90637
2.771	-4.12903
2.7715	5.74036
2.772	15.00549
2.7725	12.18567
2.773	7.85522
2.7735	12.48779
2.774	8.56018
2.7745	6.74744
2.775	0.20142
2.7755	0.60425
2.776	2.31628
2.7765	5.0354
2.777	-0.40283
2.7775	0.40283
2.778	0.90637
2.7785	8.25806
2.779	7.85522
2.7795	9.97009
2.78	6.64673
2.7805	5.53894
2.781	8.8623
2.7815	5.0354
2.782	7.25098
2.7825	8.66089
2.783	3.52478
2.7835	7.35168
2.784	14.90479
2.7845	8.35876
2.785	10.27222
2.7855	9.66797
2.786	15.1062
2.7865	6.04248
2.787	5.94177
2.7875	2.61841
2.788	3.92761
2.7885	6.94885
2.789	6.74744
2.7895	4.12903
2.79	1.40991
2.7905	3.52478
2.791	6.74744
2.7915	7.5531
2.792	12.48779
2.7925	7.45239
2.793	9.36584
2.7935	8.15735
2.794	8.8623
2.7945	3.62549
2.795	4.53186
2.7955	2.81982
2.796	5.53894
2.7965	-0.30212
2.797	3.92761
2.7975	10.97717
2.798	4.63257
2.7985	1.3092
2.799	2.92053
2.7995	0.70496
2.8	4.02832
2.8005	6.74744
2.801	3.52478
2.8015	3.92761
2.802	9.16443
2.8025	12.5885
2.803	4.73328
2.8035	3.02124
2.804	5.94177
2.8045	5.33752
2.805	2.21558
2.8055	4.93469
2.806	6.54602
2.8065	4.53186
2.807	6.64673
2.8075	4.22974
2.808	7.65381
2.8085	5.53894
2.809	10.77576
2.8095	8.96301
2.81	8.56018
2.8105	9.66797
2.811	6.94885
2.8115	6.04248
2.812	9.86938
2.8125	12.18567
2.813	11.58142
2.8135	12.99133
2.814	8.7616
2.8145	3.7262
2.815	4.43115
2.8155	5.84106
2.816	3.52478
2.8165	6.94885
2.817	15.1062
2.8175	13.69629
2.818	16.3147
2.8185	14.90479
2.819	4.93469
2.8195	11.98425
2.82	12.5885
2.8205	11.78284
2.821	14.19983
2.8215	10.17151
2.822	9.16443
2.8225	1.2085
2.823	6.44531
2.8235	7.35168
2.824	5.63965
2.8245	4.43115
2.825	4.83398
2.8255	8.7616
2.826	9.06372
2.8265	13.59558
2.827	11.58142
2.8275	12.38708
2.828	5.53894
2.8285	9.26514
2.829	14.80408
2.8295	16.01257
2.83	13.797
2.8305	6.2439
2.831	10.77576
2.8315	9.06372
2.832	3.8269
2.8325	2.21558
2.833	12.5885
2.8335	8.66089
2.834	11.07788
2.8345	3.22266
2.835	3.32336
2.8355	2.31628
2.836	-1.2085
2.8365	3.42407
2.837	-0.10071
2.8375	1.51062
2.838	-5.43823
2.8385	-6.3446
2.839	-5.94177
2.8395	1.10779
2.84	-5.23682
2.8405	-7.65381
2.841	2.81982
2.8415	1.40991
2.842	-1.2085
2.8425	1.10779
2.843	-5.13611
2.8435	-7.15027
2.844	-2.01416
2.8445	-2.71912
2.845	-5.94177
2.8455	-2.01416
2.846	-1.3092
2.8465	-1.71204
2.847	0
2.8475	-2.11487
2.848	-2.31628
2.8485	0.50354
2.849	0.50354
2.8495	2.71912
2.85	5.0354
2.8505	5.84106
2.851	1.51062
2.8515	0.40283
2.852	3.62549
2.8525	5.23682
2.853	4.83398
2.8535	7.15027
2.854	5.84106
2.8545	-2.11487
2.855	3.7262
2.8555	1.61133
2.856	0.90637
2.8565	5.84106
2.857	8.8623
2.8575	9.66797
2.858	6.74744
2.8585	6.3446
2.859	5.63965
2.8595	5.23682
2.86	0.90637
2.8605	1.61133
2.861	-2.92053
2.8615	0.30212
2.862	-3.8269
2.8625	-3.92761
2.863	-1.40991
2.8635	-1.51062
2.864	0.80566
2.8645	2.5177
2.865	5.13611
2.8655	4.33044
2.866	0.10071
2.8665	-1.3092
2.867	1.61133
2.8675	-0.60425
2.868	1.10779
2.8685	0.30212
2.869	1.91345
2.8695	-3.8269
2.87	-6.44531
2.8705	-6.44531
2.871	-5.74036
2.8715	-6.64673
2.872	2.21558
2.8725	-0.50354
2.873	4.73328
2.8735	6.74744
2.874	6.64673
2.8745	1.61133
2.875	3.62549
2.8755	3.62549
2.876	-0.10071
2.8765	5.74036
2.877	7.45239
2.8775	5.84106
2.878	1.51062
2.8785	6.3446
2.879	3.92761
2.8795	6.2439
2.88	6.84814
2.8805	10.27222
2.881	11.58142
2.8815	16.51611
2.882	5.84106
2.8825	11.48071
2.883	11.88354
2.8835	8.05664
2.884	14.90479
2.8845	10.97717
2.885	9.16443
2.8855	9.66797
2.886	6.14319
2.8865	-0.10071
2.887	-0.90637
2.8875	0.60425
2.888	7.5531
2.8885	9.56726
2.889	11.17859
2.8895	18.12744
2.89	18.8324
2.8905	16.41541
2.891	16.51611
2.8915	8.7616
2.892	11.2793
2.8925	13.09204
2.893	13.29346
2.8935	15.20691
2.894	14.09912
2.8945	16.71753
2.895	16.3147
2.8955	13.59558
2.896	11.88354
2.8965	16.91895
2.897	20.54443
2.8975	20.04089
2.898	15.81116
2.8985	9.66797
2.899	10.0708
2.8995	12.89062
2.9	12.78992
2.9005	11.17859
2.901	11.07788
2.9015	13.29346
2.902	13.39417
2.9025	11.68213
2.903	12.99133
2.9035	9.56726
2.904	5.94177
2.9045	5.13611
2.905	10.17151
2.9055	12.18567
2.906	12.08496
2.9065	3.42407
2.907	9.06372
2.9075	8.35876
2.908	5.84106
2.9085	9.66797
2.909	8.35876
2.9095	9.66797
2.91	9.66797
2.9105	5.74036
2.911	-1.81274
2.9115	1.61133
2.912	4.93469
2.9125	4.63257
2.913	10.67505
2.9135	11.48071
2.914	12.18567
2.9145	12.68921
2.915	8.7616
2.9155	7.15027
2.916	6.04248
2.9165	11.98425
2.917	12.28638
2.9175	10.97717
2.918	12.28638
2.9185	6.64673
2.919	6.84814
2.9195	4.93469
2.92	10.87646
2.9205	7.95593
2.921	6.54602
2.9215	7.75452
2.922	3.22266
2.9225	7.45239
2.923	3.12195
2.9235	2.81982
2.924	5.84106
2.9245	3.12195
2.925	8.8623
2.9255	8.45947
2.926	7.45239
2.9265	7.35168
2.927	5.53894
2.9275	8.05664
2.928	8.15735
2.9285	8.66089
2.929	6.3446
2.9295	11.38
2.93	14.30054
2.9305	8.15735
2.931	9.66797
2.9315	9.86938
2.932	12.48779
2.9325	11.38
2.933	14.80408
2.9335	10.67505
2.934	15.20691
2.9345	9.56726
2.935	14.40125
2.9355	11.88354
2.936	11.68213
2.9365	3.52478
2.937	5.74036
2.9375	5.53894
2.938	8.96301
2.9385	6.44531
2.939	7.85522
2.9395	11.2793
2.94	6.94885
2.9405	5.33752
2.941	9.86938
2.9415	8.8623
2.942	8.45947
2.9425	9.46655
2.943	10.27222
2.9435	9.06372
2.944	13.19275
2.9445	9.26514
2.945	10.47363
2.9455	6.84814
2.946	9.66797
2.9465	7.04956
2.947	8.56018
2.9475	9.97009
2.948	8.45947
2.9485	1.3092
2.949	2.61841
2.9495	6.84814
2.95	0.40283
2.9505	0.20142
2.951	2.01416
2.9515	1.00708
2.952	0.90637
2.9525	0.80566
2.953	0.50354
2.9535	2.5177
2.954	9.26514
2.9545	3.62549
2.955	7.15027
2.9555	3.02124
2.956	6.2439
2.9565	8.05664
2.957	9.97009
2.9575	9.86938
2.958	7.25098
2.9585	7.45239
2.959	6.84814
2.9595	8.05664
2.96	8.15735
2.9605	7.04956
2.961	8.8623
2.9615	5.94177
2.962	5.53894
2.9625	7.15027
2.963	6.54602
2.9635	6.84814
2.964	7.85522
2.9645	3.52478
2.965	4.12903
2.9655	10.47363
2.966	4.83398
2.9665	6.84814
2.967	6.54602
2.9675	7.45239
2.968	8.66089
2.9685	2.61841
2.969	0
2.9695	0.60425
2.97	6.54602
2.9705	2.71912
2.971	1.71204
2.9715	-0.30212
2.972	-2.71912
2.9725	1.2085
2.973	-5.13611
2.9735	-4.93469
2.974	-3.52478
2.9745	0.80566
2.975	0
2.9755	8.66089
2.976	4.22974
2.9765	7.15027
2.977	8.56018
2.9775	8.7616
2.978	7.95593
2.9785	10.97717
2.979	11.2793
2.9795	8.96301
2.98	13.09204
2.9805	6.84814
2.981	4.33044
2.9815	5.94177
2.982	10.0708
2.9825	10.37292
2.983	5.23682
2.9835	8.56018
2.984	14.09912
2.9845	11.98425
2.985	11.17859
2.9855	11.98425
2.986	9.06372
2.9865	8.05664
2.987	5.63965
2.9875	6.64673
2.988	4.12903
2.9885	-0.60425
2.989	4.93469
2.9895	7.15027
2.99	6.54602
2.9905	4.93469
2.991	2.01416
2.9915	4.02832
2.992	8.66089
2.9925	3.52478
2.993	6.64673
2.9935	7.15027
2.994	10.87646
2.9945	9.76868
2.995	9.06372
2.9955	6.84814
2.996	-0.10071
2.9965	-1.51062
2.997	1.40991
2.9975	7.35168
2.998	13.59558
2.9985	6.64673
2.999	5.63965
2.9995	4.83398
3	9.26514
3.0005	8.56018
3.001	6.94885
3.0015	7.85522
3.002	7.75452
3.0025	5.23682
3.003	4.33044
3.0035	13.29346
3.004	11.58142
3.0045	13.39417
3.005	9.26514
3.0055	16.81824
3.006	13.89771
3.0065	16.61682
3.007	13.19275
3.0075	10.67505
3.008	11.17859
3.0085	10.37292
3.009	14.70337
3.0095	12.99133
3.01	15.20691
3.0105	16.3147
3.011	11.2793
3.0115	11.38
3.012	12.18567
3.0125	13.19275
3.013	12.48779
3.0135	9.76868
3.014	4.43115
3.0145	7.35168
3.015	12.78992
3.0155	6.54602
3.016	4.93469
3.0165	5.23682
3.017	6.3446
3.0175	12.38708
3.018	13.69629
3.0185	17.42249
3.019	17.22107
3.0195	12.89062
3.02	15.81116
3.0205	18.12744
3.021	20.44373
3.0215	10.87646
3.022	12.18567
3.0225	10.27222
3.023	9.86938
3.0235	9.36584
3.024	10.37292
3.0245	6.04248
3.025	11.17859
3.0255	16.21399
3.026	14.19983
3.0265	6.94885
3.027	8.35876
3.0275	10.47363
3.028	8.35876
3.0285	1.61133
3.029	10.67505
3.0295	5.33752
3.03	7.45239
3.0305	8.45947
3.031	4.12903
3.0315	5.0354
3.032	4.22974
3.0325	1.71204
3.033	4.43115
3.0335	4.53186
3.034	7.45239
3.0345	6.2439
3.035	4.73328
3.0355	10.27222
3.036	7.04956
3.0365	8.05664
3.037	9.36584
3.0375	9.16443
3.038	7.95593
3.0385	3.92761
3.039	6.2439
3.0395	9.56726
3.04	6.74744
3.0405	2.21558
3.041	-2.5177
3.0415	-2.11487
3.042	4.33044
3.0425	3.22266
3.043	-3.8269
3.0435	-1.40991
3.044	-1.00708
3.0445	-1.71204
3.045	0.10071
3.0455	-2.21558
3.046	-1.40991
3.0465	3.62549
3.047	4.43115
3.0475	1.91345
3.048	3.7262
3.0485	4.93469
3.049	6.04248
3.0495	8.05664
3.05	-1.10779
3.0505	5.13611
3.051	1.81274
3.0515	-0.20142
3.052	6.14319
3.0525	5.74036
3.053	6.44531
3.0535	6.94885
3.054	2.21558
3.0545	5.43823
3.055	3.52478
3.0555	1.00708
3.056	6.04248
3.0565	1.2085
3.057	1.40991
3.0575	1.51062
3.058	-0.40283
3.0585	1.40991
3.059	1.91345
3.0595	5.33752
3.06	5.23682
3.0605	4.53186
3.061	1.51062
3.0615	6.64673
3.062	1.2085
3.0625	4.22974
3.063	-1.3092
3.0635	1.51062
3.064	-2.5177
3.0645	-2.71912
3.065	-0.40283
3.0655	-3.7262
3.066	-0.90637
3.0665	-2.11487
3.067	-1.00708
3.0675	-5.94177
3.068	-5.74036
3.0685	-7.5531
3.069	1.10779
3.0695	-0.10071
3.07	4.02832
3.0705	2.71912
3.071	10.47363
3.0715	10.17151
3.072	10.37292
3.0725	9.97009
3.073	10.87646
3.0735	3.02124
3.074	-1.40991
3.0745	-2.81982
3.075	0
3.0755	-4.73328
3.076	-3.52478
3.0765	0.60425
3.077	2.01416
3.0775	-4.73328
3.078	10.37292
3.0785	8.66089
3.079	6.44531
3.0795	5.0354
3.08	1.2085
3.0805	-2.71912
3.081	-0.10071
3.0815	-0.90637
3.082	-0.90637
3.0825	1.2085
3.083	2.61841
3.0835	2.92053
3.084	2.61841
3.0845	-0.30212
3.085	10.37292
3.0855	9.06372
3.086	6.74744
3.0865	2.81982
3.087	5.53894
3.0875	5.53894
3.088	5.63965
3.0885	4.33044
3.089	6.14319
3.0895	4.43115
3.09	3.62549
3.0905	2.01416
3.091	2.41699
3.0915	6.14319
3.092	2.01416
3.0925	-3.42407
3.093	-1.61133
3.0935	-0.20142
3.094	4.53186
3.0945	-0.50354
3.095	-0.20142
3.0955	-1.00708
3.096	2.31628
3.0965	-2.41699
3.097	-8.66089
3.0975	-4.93469
3.098	-3.7262
3.0985	-6.74744
3.099	-7.95593
3.0995	-3.7262
3.1	-1.81274
3.1005	-3.12195
3.101	-3.12195
3.1015	0.50354
3.102	1.2085
3.1025	-2.61841
3.103	-0.90637
3.1035	-5.94177
3.104	-7.85522
3.1045	-6.14319
3.105	-3.8269
3.1055	-1.61133
3.106	-2.71912
3.1065	5.33752
3.107	1.91345
3.1075	3.7262
3.108	6.54602
3.1085	7.85522
3.109	6.84814
3.1095	8.56018
3.11	2.71912
3.1105	2.41699
3.111	6.2439
3.1115	2.92053
3.112	7.15027
3.1125	9.97009
3.113	1.61133
3.1135	3.52478
3.114	3.12195
3.1145	6.14319
3.115	9.56726
3.1155	9.26514
3.116	7.95593
3.1165	11.58142
3.117	7.04956
3.1175	3.32336
3.118	5.13611
3.1185	11.2793
3.119	11.17859
3.1195	2.41699
3.12	4.43115
3.1205	2.31628
3.121	7.25098
3.1215	7.35168
3.122	4.63257
3.1225	6.2439
3.123	8.35876
3.1235	2.71912
3.124	4.93469
3.1245	3.22266
3.125	0.50354
3.1255	3.22266
3.126	0.80566
3.1265	3.42407
3.127	3.12195
3.1275	1.81274
3.128	4.73328
3.1285	-0.50354
3.129	-1.00708
3.1295	3.92761
3.13	-4.43115
3.1305	-2.21558
3.131	3.02124
3.1315	4.53186
3.132	5.33752
3.1325	3.8269
3.133	-2.5177
3.1335	2.11487
3.134	0.30212
3.1345	1.00708
3.135	0.50354
3.1355	-1.61133
3.136	4.02832
3.1365	4.53186
3.137	6.04248
3.1375	2.71912
3.138	3.22266
3.1385	5.13611
3.139	2.5177
3.1395	6.74744
3.14	-0.90637
3.1405	2.61841
3.141	6.94885
3.1415	0.70496
3.142	2.41699
3.1425	-2.5177
3.143	-2.41699
3.1435	3.92761
3.144	9.56726
3.1445	12.78992
3.145	10.17151
3.1455	6.04248
3.146	3.22266
3.1465	7.75452
3.147	9.06372
3.1475	4.63257
3.148	10.27222
3.1485	6.64673
3.149	8.56018
3.1495	8.15735
3.15	9.46655
3.1505	5.0354
3.151	6.44531
3.1515	2.71912
3.152	10.57434
3.1525	7.35168
3.153	6.54602
3.1535	7.15027
3.154	4.83398
3.1545	6.44531
3.155	5.63965
3.1555	3.7262
3.156	2.61841
3.1565	2.21558
3.157	-2.31628
3.1575	-0.50354
3.158	3.22266
3.1585	-2.5177
3.159	0.10071
3.1595	-0.30212
3.16	-1.2085
3.1605	-5.74036
3.161	-4.53186
3.1615	-3.92761
3.162	-1.51062
3.1625	-0.80566
3.163	-2.92053
3.1635	-5.63965
3.164	-2.5177
3.1645	-2.21558
3.165	-0.70496
3.1655	-0.60425
3.166	3.7262
3.1665	8.35876
3.167	12.18567
3.1675	12.18567
3.168	15.30762
3.1685	17.32178
3.169	11.38
3.1695	12.28638
3.17	14.80408
3.1705	12.78992
3.171	6.84814
3.1715	3.42407
3.172	2.81982
3.1725	2.5177
3.173	6.14319
3.1735	6.94885
3.174	2.11487
3.1745	9.46655
3.175	9.66797
3.1755	11.68213
3.176	9.86938
3.1765	10.57434
3.177	9.36584
3.1775	7.75452
3.178	11.38
3.1785	11.58142
3.179	7.75452
3.1795	3.02124
3.18	5.0354
3.1805	0.40283
3.181	0.60425
3.1815	2.31628
3.182	1.00708
3.1825	5.13611
3.183	1.40991
3.1835	6.04248
3.184	-2.81982
3.1845	-1.81274
3.185	5.94177
3.1855	3.22266
3.186	-2.11487
3.1865	0.60425
3.187	2.71912
3.1875	3.8269
3.188	4.93469
3.1885	2.71912
3.189	0.30212
3.1895	1.2085
3.19	1.91345
3.1905	6.14319
3.191	11.07788
3.1915	5.63965
3.192	7.85522
3.1925	4.63257
3.193	6.2439
3.1935	4.53186
3.194	3.42407
3.1945	0.90637
3.195	-0.20142
3.1955	-1.71204
3.196	2.41699
3.1965	0.20142
3.197	1.3092
3.1975	1.61133
3.198	7.85522
3.1985	3.22266
3.199	4.33044
3.1995	5.0354
3.2	0
3.2005	2.71912
3.201	7.45239
3.2015	3.52478
3.202	2.21558
3.2025	0.10071
3.203	6.44531
3.2035	6.54602
3.204	0.20142
3.2045	2.71912
3.205	8.56018
3.2055	5.84106
3.206	9.06372
3.2065	4.12903
3.207	7.75452
3.2075	10.97717
3.208	10.57434
3.2085	2.61841
3.209	10.27222
3.2095	0.70496
3.21	2.81982
3.2105	0.80566
3.211	0.90637
3.2115	2.71912
3.212	2.71912
3.2125	5.94177
3.213	4.43115
3.2135	5.43823
3.214	1.81274
3.2145	0.60425
3.215	-1.2085
3.2155	1.71204
3.216	3.12195
3.2165	3.62549
3.217	1.81274
3.2175	0.20142
3.218	2.5177
3.2185	-3.92761
3.219	-2.01416
3.2195	2.71912
3.22	-5.53894
3.2205	-4.63257
3.221	0.80566
3.2215	-4.12903
3.222	-5.43823
3.2225	-6.3446
3.223	-0.80566
3.2235	1.81274
3.224	2.41699
3.2245	-4.43115
3.225	-0.90637
3.2255	2.01416
3.226	1.61133
3.2265	6.2439
3.227	5.94177
3.2275	5.74036
3.228	5.63965
3.2285	11.88354
3.229	6.74744
3.2295	5.94177
3.23	3.02124
3.2305	4.53186
3.231	2.5177
3.2315	2.01416
3.232	-3.42407
3.2325	-1.51062
3.233	1.61133
3.2335	1.71204
3.234	-1.61133
3.2345	-2.01416
3.235	-2.31628
3.2355	1.40991
3.236	3.52478
3.2365	2.61841
3.237	3.32336
3.2375	0.30212
3.238	1.40991
3.2385	-2.71912
3.239	-5.23682
3.2395	-0.80566
3.24	2.11487
3.2405	-0.40283
3.241	3.32336
3.2415	-1.3092
3.242	3.7262
3.2425	8.56018
3.243	5.74036
3.2435	1.81274
3.244	3.32336
3.2445	-1.2085
3.245	-5.94177
3.2455	-3.42407
3.246	1.40991
3.2465	-1.40991
3.247	-6.2439
3.2475	-5.33752
3.248	3.7262
3.2485	0.20142
3.249	-1.2085
3.2495	-1.10779
3.25	-3.42407
3.2505	-7.85522
3.251	-1.10779
3.2515	-7.15027
3.252	0.50354
3.2525	-3.22266
3.253	-1.00708
3.2535	-4.33044
3.254	-1.71204
3.2545	-7.25098
3.255	-1.91345
3.2555	-2.21558
3.256	2.5177
3.2565	5.0354
3.257	3.92761
3.2575	6.04248
3.258	-1.00708
3.2585	0.60425
3.259	0.30212
3.2595	-1.71204
3.26	3.32336
3.2605	4.33044
3.261	10.17151
3.2615	11.17859
3.262	2.11487
3.2625	7.65381
3.263	2.41699
3.2635	8.7616
3.264	4.73328
3.2645	6.04248
3.265	1.81274
3.2655	1.81274
3.266	3.52478
3.2665	0.60425
3.267	5.74036
3.2675	9.16443
3.268	9.06372
3.2685	7.45239
3.269	9.26514
3.2695	10.0708
3.27	11.38
3.2705	9.76868
3.271	9.06372
3.2715	7.95593
3.272	5.84106
3.2725	6.04248
3.273	5.63965
3.2735	4.93469
3.274	4.43115
3.2745	9.66797
3.275	4.33044
3.2755	4.43115
3.276	3.22266
3.2765	5.74036
3.277	4.83398
3.2775	2.11487
3.278	-0.60425
3.2785	-0.30212
3.279	5.0354
3.2795	6.14319
3.28	3.62549
3.2805	6.54602
3.281	8.15735
3.2815	7.75452
3.282	3.92761
3.2825	7.04956
3.283	9.26514
3.2835	11.48071
3.284	11.98425
3.2845	14.50195
3.285	11.2793
3.2855	17.01965
3.286	14.80408
3.2865	11.78284
3.287	6.2439
3.2875	9.66797
3.288	1.91345
3.2885	1.3092
3.289	4.53186
3.2895	3.52478
3.29	5.33752
3.2905	5.13611
3.291	5.43823
3.2915	5.94177
3.292	7.95593
3.2925	8.66089
3.293	8.05664
3.2935	2.11487
3.294	5.74036
3.2945	5.74036
3.295	5.74036
3.2955	5.74036
3.296	5.74036
3.2965	5.74036
3.297	5.74036
3.2975	5.74036
3.298	5.74036
3.2985	5.74036
3.299	5.74036
3.2995	5.74036
3.3	5.74036
3.3005	5.74036
3.301	5.74036
3.3015	5.74036
3.302	5.74036
3.3025	5.74036
3.303	5.74036
3.3035	5.74036
3.304	5.74036
3.3045	11.58142
3.305	6.74744
3.3055	6.44531
3.306	12.28638
3.3065	12.89062
3.307	9.76868
3.3075	6.84814
3.308	9.76868
3.3085	8.7616
3.309	8.45947
3.3095	6.84814
3.31	11.88354
3.3105	11.88354
3.311	12.28638
3.3115	14.19983
3.312	13.59558
3.3125	13.29346
3.313	13.09204
3.3135	11.78284
3.314	12.38708
3.3145	4.33044
3.315	10.67505
3.3155	10.87646
3.316	9.36584
3.3165	6.64673
3.317	4.53186
3.3175	8.56018
3.318	11.2793
3.3185	4.33044
3.319	4.53186
3.3195	4.22974
3.32	-6.44531
3.3205	-10.57434
3.321	-20.84656
3.3215	-28.70178
3.322	-37.96692
3.3225	-55.79224
3.323	-69.1864
3.3235	-77.04163
3.324	-91.34216
3.3245	-90.13367
3.325	-94.2627
3.3255	-103.93066
3.326	-105.44128
3.3265	-102.72217
3.327	-96.17615
3.3275	-82.78198
3.328	-58.71277
3.3285	-36.55701
3.329	-8.15735
3.3295	20.54443
3.33	49.74976
3.3305	76.84021
3.331	94.76624
3.3315	110.07385
3.332	113.90076
3.3325	123.36731
3.333	119.94324
3.3335	119.33899
3.334	110.98022
3.3345	108.26111
3.335	91.24146
3.3355	78.04871
3.336	67.27295
3.3365	63.54675
3.337	53.97949
3.3375	48.54126
3.338	40.88745
3.3385	31.4209
3.339	26.3855
3.3395	17.6239
3.34	9.86938
3.3405	3.8269
3.341	0.70496
3.3415	-0.20142
3.342	6.3446
3.3425	6.64673
3.343	5.74036
3.3435	0.40283
3.344	-3.22266
3.3445	-9.76868
3.345	-2.41699
3.3455	2.61841
3.346	-4.73328
3.3465	-5.0354
3.347	-9.56726
3.3475	-1.61133
3.348	2.5177
3.3485	-3.02124
3.349	-2.41699
3.3495	0.20142
3.35	-1.2085
3.3505	0.30212
3.351	-6.14319
3.3515	-4.22974
3.352	-2.01416
3.3525	-6.04248
3.353	-5.94177
3.3535	-8.35876
3.354	-4.83398
3.3545	-7.85522
3.355	-8.45947
3.3555	-13.59558
3.356	-9.76868
3.3565	-10.57434
3.357	-1.71204
3.3575	-4.73328
3.358	-3.12195
3.3585	-0.40283
3.359	1.00708
3.3595	-1.81274
3.36	-2.81982
3.3605	-4.33044
3.361	-9.97009
3.3615	-22.96143
3.362	-20.94727
3.3625	-13.797
3.363	-17.82532
3.3635	-16.41541
3.364	-19.33594
3.3645	-21.04797
3.365	-24.57275
3.3655	-25.57983
3.366	-28.19824
3.3665	-27.49329
3.367	-24.57275
3.3675	-34.34143
3.368	-30.01099
3.3685	-31.21948
3.369	-29.00391
3.3695	-26.78833
3.37	-22.6593
3.3705	-42.7002
3.371	-53.27454
3.3715	-52.97241
3.372	-46.32568
3.3725	-35.2478
3.373	-20.24231
3.3735	-22.55859
3.374	-17.32178
3.3745	-12.38708
3.375	-3.92761
3.3755	-16.3147
3.376	-3.32336
3.3765	-1.61133
3.377	1.10779
3.3775	19.33594
3.378	18.32886
3.3785	15.81116
3.379	15.91187
3.3795	16.51611
3.38	18.42957
3.3805	20.44373
3.381	15.91187
3.3815	26.58691
3.382	26.18408
3.3825	28.50037
3.383	27.99683
3.3835	30.61523
3.384	30.91736
3.3845	34.74426
3.385	35.2478
3.3855	31.72302
3.386	28.09753
3.3865	20.54443
3.387	18.22815
3.3875	11.48071
3.388	11.07788
3.3885	9.66797
3.389	-0.10071
3.3895	7.5531
3.39	1.51062
3.3905	-3.7262
3.391	-4.02832
3.3915	-3.92761
3.392	-9.16443
3.3925	-7.75452
3.393	-12.18567
3.3935	-12.38708
3.394	-12.48779
3.3945	-11.88354
3.395	-4.63257
3.3955	-4.33044
3.396	-6.04248
3.3965	-4.33044
3.397	-10.27222
3.3975	-6.2439
3.398	-9.86938
3.3985	-9.26514
3.399	-16.51611
3.3995	-15.1062
3.4	-18.53027
3.4005	-17.52319
3.401	-16.81824
3.4015	-12.18567
3.402	-11.48071
3.4025	-13.09204
3.403	-15.60974
3.4035	-14.90479
3.404	-15.50903
3.4045	-14.40125
3.405	-16.91895
3.4055	-15.91187
3.406	-20.1416
3.4065	-41.99524
3.407	-45.72144
3.4075	-48.23914
3.408	-54.28162
3.4085	-55.69153
3.409	-49.34692
3.4095	-41.79382
3.41	-43.80798
3.4105	-40.38391
3.411	-29.91028
3.4115	-25.68054
3.412	-23.06213
3.4125	-18.32886
3.413	-18.42957
3.4135	-20.74585
3.414	-12.18567
3.4145	-5.13611
3.415	8.96301
3.4155	12.99133
3.416	24.16992
3.4165	30.11169
3.417	34.24072
3.4175	53.47595
3.418	61.83472
3.4185	60.4248
3.419	71.20056
3.4195	75.4303
3.42	77.04163
3.4205	73.21472
3.421	71.30127
3.4215	67.37366
3.422	62.13684
3.4225	56.5979
3.423	48.64197
3.4235	42.7002
3.424	32.7301
3.4245	25.78125
3.425	16.3147
3.4255	16.41541
3.426	9.46655
3.4265	3.62549
3.427	-3.92761
3.4275	0.20142
3.428	-4.22974
3.4285	-2.01416
3.429	0.70496
3.4295	-2.21558
3.43	-2.31628
3.4305	-2.61841
3.431	-3.8269
3.4315	1.00708
3.432	-3.12195
3.4325	-6.3446
3.433	-5.63965
3.4335	-2.71912
3.434	1.00708
3.4345	3.22266
3.435	4.12903
3.4355	0.60425
3.436	-0.10071
3.4365	0.50354
3.437	5.53894
3.4375	9.97009
3.438	15.20691
3.4385	6.94885
3.439	8.96301
3.4395	11.78284
3.44	13.69629
3.4405	7.15027
3.441	9.97009
3.4415	10.37292
3.442	8.05664
3.4425	2.61841
3.443	1.00708
3.4435	-4.33044
3.444	-4.53186
3.4445	-3.52478
3.445	-7.35168
3.4455	0.60425
3.446	0.30212
3.4465	4.73328
3.447	8.8623
3.4475	7.04956
3.448	6.44531
3.4485	3.7262
3.449	20.74585
3.4495	21.24939
3.45	25.68054
3.4505	30.41382
3.451	31.72302
3.4515	37.56409
3.452	33.23364
3.4525	38.974
3.453	36.05347
3.4535	36.55701
3.454	34.94568
3.4545	36.85913
3.455	34.94568
3.4555	37.56409
3.456	37.46338
3.4565	35.14709
3.457	32.83081
3.4575	33.03223
3.458	29.10461
3.4585	26.98975
3.459	28.50037
3.4595	21.55151
3.46	20.24231
3.4605	15.50903
3.461	17.12036
3.4615	16.81824
3.462	14.19983
3.4625	11.88354
3.463	4.43115
3.4635	8.35876
3.464	7.5531
3.4645	5.63965
3.465	10.87646
3.4655	14.50195
3.466	14.30054
3.4665	14.09912
3.467	19.43665
3.4675	10.17151
3.468	3.52478
3.4685	1.81274
3.469	8.15735
3.4695	7.75452
3.47	13.59558
3.4705	8.96301
3.471	8.15735
3.4715	11.58142
3.472	5.43823
3.4725	6.54602
3.473	6.74744
3.4735	7.15027
3.474	8.35876
3.4745	5.84106
3.475	10.0708
3.4755	11.68213
3.476	13.89771
3.4765	17.6239
3.477	15.20691
3.4775	15.1062
3.478	17.12036
3.4785	16.41541
3.479	20.64514
3.4795	14.90479
3.48	21.95435
3.4805	20.34302
3.481	20.04089
3.4815	18.32886
3.482	11.38
3.4825	14.40125
3.483	9.76868
3.4835	12.38708
3.484	10.17151
3.4845	10.27222
3.485	6.74744
3.4855	5.33752
3.486	10.17151
3.4865	14.19983
3.487	11.78284
3.4875	11.38
3.488	11.48071
3.4885	9.36584
3.489	10.77576
3.4895	6.04248
3.49	9.26514
3.4905	8.66089
3.491	8.66089
3.4915	8.05664
3.492	0.80566
3.4925	4.12903
3.493	5.74036
3.4935	5.94177
3.494	1.51062
3.4945	-0.50354
3.495	6.04248
3.4955	-3.8269
3.496	-7.85522
3.4965	-17.92603
3.497	-18.32886
3.4975	-31.62231
3.498	-38.87329
3.4985	-55.89294
3.499	-62.53967
3.4995	-68.68286
3.5	-67.17224
3.5005	-75.63171
3.501	-73.81897
3.5015	-68.07861
3.502	-56.19507
3.5025	-30.81665
3.503	-13.09204
3.5035	10.0708
3.504	26.98975
3.5045	47.53418
3.505	61.53259
3.5055	66.16516
3.506	70.99915
3.5065	79.35791
3.507	80.96924
3.5075	76.53809
3.508	69.58923
3.5085	58.30994
3.509	41.29028
3.5095	28.60107
3.51	-2.21558
3.5105	-22.55859
3.511	-37.26196
3.5115	-51.26038
3.512	-57.50427
3.5125	-72.00623
3.513	-76.53809
3.5135	-74.82605
3.514	-72.50977
3.5145	-62.74109
3.515	-44.21082
3.5155	-17.92603
3.516	6.54602
3.5165	21.04797
3.517	53.57666
3.5175	71.7041
3.518	84.89685
3.5185	95.97473
3.519	101.51367
3.5195	101.31226
3.52	96.07544
3.5205	88.42163
3.521	79.15649
3.5215	72.00623
3.522	59.92126
3.5225	53.87878
3.523	48.54126
3.5235	47.7356
3.524	48.03772
3.5245	41.08887
3.525	33.73718
3.5255	16.91895
3.526	16.11328
3.5265	11.58142
3.527	12.28638
3.5275	2.11487
3.528	7.15027
3.5285	0.50354
3.529	2.92053
3.5295	3.02124
3.53	-3.42407
3.5305	-6.2439
3.531	-2.41699
3.5315	-5.74036
3.532	-7.75452
3.5325	-10.0708
3.533	-15.00549
3.5335	-10.77576
3.534	-14.19983
3.5345	-7.75452
3.535	-11.88354
3.5355	-13.29346
3.536	-10.67505
3.5365	-16.41541
3.537	-18.02673
3.5375	-10.17151
3.538	-11.17859
3.5385	-13.69629
3.539	-11.2793
3.5395	-5.43823
3.54	-3.22266
3.5405	-3.22266
3.541	-1.51062
3.5415	-3.12195
3.542	-4.73328
3.5425	-0.50354
3.543	6.74744
3.5435	2.71912
3.544	6.14319
3.5445	5.0354
3.545	9.56726
3.5455	14.90479
3.546	14.50195
3.5465	19.13452
3.547	15.91187
3.5475	17.6239
3.548	20.1416
3.5485	15.50903
3.549	11.88354
3.5495	10.67505
3.55	16.91895
3.5505	13.39417
3.551	11.68213
3.5515	6.44531
3.552	6.2439
3.5525	3.62549
3.553	8.25806
3.5535	4.73328
3.554	8.25806
3.5545	8.96301
3.555	10.0708
3.5555	6.54602
3.556	13.09204
3.5565	15.60974
3.557	13.29346
3.5575	13.89771
3.558	9.76868
3.5585	11.98425
3.559	8.8623
3.5595	-4.02832
3.56	-21.14868
3.5605	-24.27063
3.561	-22.55859
3.5615	-28.70178
3.562	-28.60107
3.5625	-26.58691
3.563	-22.05505
3.5635	-27.39258
3.564	-30.41382
3.5645	-21.95435
3.565	-22.6593
3.5655	-18.53027
3.566	-10.87646
3.5665	-11.78284
3.567	-9.06372
3.5675	-13.99841
3.568	-10.97717
3.5685	-9.56726
3.569	-11.48071
3.5695	-6.14319
3.57	-3.02124
3.5705	6.3446
3.571	18.02673
3.5715	20.04089
3.572	30.11169
3.5725	33.9386
3.573	32.52869
3.5735	29.50745
3.574	22.25647
3.5745	25.68054
3.575	25.07629
3.5755	24.27063
3.576	24.37134
3.5765	23.66638
3.577	26.58691
3.5775	23.26355
3.578	19.73877
3.5785	22.05505
3.579	19.23523
3.5795	22.15576
3.58	22.25647
3.5805	18.63098
3.581	20.24231
3.5815	20.34302
3.582	15.20691
3.5825	16.91895
3.583	26.48621
3.5835	23.16284
3.584	25.68054
3.5845	24.37134
3.585	25.07629
3.5855	16.61682
3.586	19.03381
3.5865	20.1416
3.587	13.29346
3.5875	15.60974
3.588	6.64673
3.5885	5.74036
3.589	3.62549
3.5895	-1.10779
3.59	-0.80566
3.5905	-5.33752
3.591	-3.8269
3.5915	-0.70496
3.592	1.3092
3.5925	2.11487
3.593	0.80566
3.5935	-2.21558
3.594	3.62549
3.5945	-3.52478
3.595	-2.81982
3.5955	-3.8269
3.596	-1.40991
3.5965	4.73328
3.597	6.14319
3.5975	-5.13611
3.598	-3.32336
3.5985	6.2439
3.599	7.75452
3.5995	10.17151
3.6	15.20691
3.6005	19.53735
3.601	17.32178
3.6015	19.83948
3.602	12.78992
3.6025	17.22107
3.603	22.86072
3.6035	20.64514
3.604	26.48621
3.6045	21.14868
3.605	26.48621
3.6055	21.75293
3.606	18.53027
3.6065	19.83948
3.607	17.12036
3.6075	15.81116
3.608	15.00549
3.6085	8.35876
3.609	15.1062
3.6095	11.88354
3.61	10.47363
3.6105	-1.00708
3.611	3.42407
3.6115	-5.53894
3.612	-8.35876
3.6125	-7.45239
3.613	-17.6239
3.6135	-20.94727
3.614	-29.10461
3.6145	-15.91187
3.615	-24.27063
3.6155	-26.68762
3.616	-26.28479
3.6165	-29.30603
3.617	-33.03223
3.6175	-20.74585
3.618	-13.39417
3.6185	-6.64673
3.619	-6.54602
3.6195	7.04956
3.62	27.6947
3.6205	31.52161
3.621	36.95984
3.6215	31.32019
3.622	16.51611
3.6225	6.74744
3.623	-0.70496
3.6235	-5.23682
3.624	-7.75452
3.6245	-1.81274
3.625	4.73328
3.6255	5.23682
3.626	16.61682
3.6265	24.97559
3.627	44.71436
3.6275	61.43188
3.628	69.08569
3.6285	70.99915
3.629	73.71826
3.6295	68.38074
3.63	56.29578
3.6305	43.80798
3.631	33.03223
3.6315	28.09753
3.632	19.83948
3.6325	18.12744
3.633	9.76868
3.6335	12.18567
3.634	7.15027
3.6345	1.81274
3.635	-0.20142
3.6355	-7.5531
3.636	-11.98425
3.6365	-11.98425
3.637	-10.47363
3.6375	-12.18567
3.638	-16.11328
3.6385	-14.40125
3.639	-15.50903
3.6395	-19.23523
3.64	-21.75293
3.6405	-15.71045
3.641	-14.30054
3.6415	-11.58142
3.642	-2.31628
3.6425	1.3092
3.643	10.27222
3.6435	12.08496
3.644	15.81116
3.6445	18.32886
3.645	17.01965
3.6455	20.74585
3.646	22.55859
3.6465	20.64514
3.647	19.03381
3.6475	15.71045
3.648	20.34302
3.6485	18.12744
3.649	14.80408
3.6495	10.67505
3.65	5.53894
3.6505	9.16443
3.651	9.97009
3.6515	8.45947
3.652	8.56018
3.6525	6.2439
3.653	3.22266
3.6535	2.31628
3.654	-8.15735
3.6545	-0.80566
3.655	2.71912
3.6555	-0.30212
3.656	-1.3092
3.6565	1.91345
3.657	1.00708
3.6575	-2.71912
3.658	-5.94177
3.6585	-5.0354
3.659	-1.2085
3.6595	-0.20142
3.66	-6.44531
3.6605	-2.01416
3.661	-4.22974
3.6615	-2.21558
3.662	-1.00708
3.6625	3.02124
3.663	7.35168
3.6635	1.40991
3.664	2.71912
3.6645	1.81274
3.665	3.62549
3.6655	3.92761
3.666	2.92053
3.6665	11.17859
3.667	2.31628
3.6675	14.30054
3.668	16.41541
3.6685	17.12036
3.669	10.17151
3.6695	9.76868
3.67	13.39417
3.6705	14.40125
3.671	14.30054
3.6715	8.35876
3.672	9.46655
3.6725	10.87646
3.673	5.74036
3.6735	6.04248
3.674	9.76868
3.6745	18.42957
3.675	9.66797
3.6755	6.74744
3.676	3.92761
3.6765	2.21558
3.677	0.60425
3.6775	-1.2085
3.678	2.01416
3.6785	-3.32336
3.679	-1.61133
3.6795	-0.50354
3.68	0.60425
3.6805	-2.31628
3.681	-3.92761
3.6815	-8.7616
3.682	-3.42407
3.6825	-7.15027
3.683	-0.50354
3.6835	-0.40283
3.684	0.90637
3.6845	-3.12195
3.685	3.22266
3.6855	3.12195
3.686	8.66089
3.6865	4.63257
3.687	3.02124
3.6875	4.33044
3.688	6.14319
3.6885	9.86938
3.689	10.67505
3.6895	4.83398
3.69	7.35168
3.6905	10.77576
3.691	8.05664
3.6915	7.25098
3.692	9.86938
3.6925	9.76868
3.693	8.15735
3.6935	8.66089
3.694	7.75452
3.6945	0.40283
3.695	-0.60425
3.6955	-0.90637
3.696	-2.81982
3.6965	-1.81274
3.697	3.32336
3.6975	5.0354
3.698	4.33044
3.6985	7.25098
3.699	6.84814
3.6995	6.2439
3.7	17.82532
3.7005	19.43665
3.701	16.91895
3.7015	13.59558
3.702	15.20691
3.7025	7.35168
3.703	8.7616
3.7035	8.45947
3.704	13.19275
3.7045	10.77576
3.705	10.57434
3.7055	8.8623
3.706	10.0708
3.7065	12.5885
3.707	12.08496
3.7075	11.17859
3.708	6.74744
3.7085	7.85522
3.709	4.83398
3.7095	6.74744
3.71	4.63257
3.7105	6.14319
3.711	1.51062
3.7115	1.40991
3.712	9.56726
3.7125	6.14319
3.713	-0.30212
3.7135	-1.71204
3.714	-6.84814
3.7145	-9.66797
3.715	-8.56018
3.7155	-13.09204
3.716	-8.35876
3.7165	-5.53894
3.717	2.5177
3.7175	3.7262
3.718	4.12903
3.7185	7.04956
3.719	3.42407
3.7195	3.12195
3.72	10.0708
3.7205	12.28638
3.721	10.17151
3.7215	7.95593
3.722	9.46655
3.7225	17.12036
3.723	18.53027
3.7235	12.68921
3.724	10.0708
3.7245	10.67505
3.725	11.17859
3.7255	11.07788
3.726	11.88354
3.7265	9.66797
3.727	9.16443
3.7275	4.53186
3.728	5.0354
3.7285	1.10779
3.729	0.30212
3.7295	1.3092
3.73	-6.74744
3.7305	-14.09912
3.731	-19.43665
3.7315	-21.65222
3.732	-30.71594
3.7325	-33.73718
3.733	-36.95984
3.7335	-45.72144
3.734	-53.87878
3.7345	-60.82764
3.735	-76.63879
3.7355	-79.86145
3.736	-89.52942
3.7365	-91.94641
3.737	-87.11243
3.7375	-85.09827
3.738	-74.2218
3.7385	-60.4248
3.739	-40.78674
3.7395	-10.97717
3.74	10.37292
3.7405	35.34851
3.741	78.75366
3.7415	106.64978
3.742	142.70325
3.7425	168.88733
3.743	164.95972
3.7435	153.07617
3.744	154.38538
3.7445	139.48059
3.745	122.86377
3.7455	100.90942
3.746	80.06287
3.7465	64.55383
3.747	45.41931
3.7475	35.34851
3.748	25.07629
3.7485	11.58142
3.749	1.51062
3.7495	3.62549
3.75	1.40991
3.7505	-4.12903
3.751	-11.78284
3.7515	-9.56726
3.752	-6.84814
3.7525	-5.53894
3.753	-11.17859
3.7535	-16.41541
3.754	-18.93311
3.7545	-21.3501
3.755	-20.44373
3.7555	-13.09204
3.756	-11.48071
3.7565	-8.35876
3.757	-18.53027
3.7575	-4.22974
3.758	-13.59558
3.7585	-1.3092
3.759	4.12903
3.7595	9.26514
3.76	9.06372
3.7605	12.48779
3.761	11.78284
3.7615	9.36584
3.762	8.35876
3.7625	17.42249
3.763	11.78284
3.7635	14.60266
3.764	20.34302
3.7645	19.13452
3.765	12.78992
3.7655	7.75452
3.766	7.45239
3.7665	4.73328
3.767	2.71912
3.7675	1.3092
3.768	-6.84814
3.7685	-3.32336
3.769	-10.17151
3.7695	-7.25098
3.77	-5.63965
3.7705	-8.05664
3.771	-12.08496
3.7715	-4.22974
3.772	-6.64673
3.7725	-5.53894
3.773	-4.93469
3.7735	-3.62549
3.774	-6.14319
3.7745	-8.8623
3.775	-4.33044
3.7755	-0.90637
3.776	-2.92053
3.7765	4.53186
3.777	6.84814
3.7775	7.35168
3.778	13.39417
3.7785	13.09204
3.779	11.17859
3.7795	16.61682
3.78	13.49487
3.7805	10.37292
3.781	11.98425
3.7815	5.63965
3.782	12.68921
3.7825	9.56726
3.783	11.07788
3.7835	6.54602
3.784	4.53186
3.7845	5.63965
3.785	1.40991
3.7855	0.90637
3.786	1.2085
3.7865	-4.22974
3.787	-2.5177
3.7875	-5.23682
3.788	-4.73328
3.7885	-4.43115
3.789	-3.62549
3.7895	-6.04248
3.79	-4.43115
3.7905	2.21558
3.791	6.2439
3.7915	6.74744
3.792	3.22266
3.7925	4.33044
3.793	1.71204
3.7935	-1.71204
3.794	2.5177
3.7945	1.81274
3.795	3.12195
3.7955	0.20142
3.796	3.02124
3.7965	2.71912
3.797	1.91345
3.7975	3.62549
3.798	11.2793
3.7985	3.12195
3.799	1.10779
3.7995	2.11487
3.8	5.0354
3.8005	6.54602
3.801	2.31628
3.8015	6.3446
3.802	11.17859
3.8025	5.84106
3.803	11.38
3.8035	13.69629
3.804	12.99133
3.8045	13.797
3.805	16.3147
3.8055	13.39417
3.806	13.29346
3.8065	18.8324
3.807	16.21399
3.8075	16.91895
3.808	11.2793
3.8085	16.71753
3.809	21.65222
3.8095	18.42957
3.81	15.00549
3.8105	19.23523
3.811	14.19983
3.8115	15.40833
3.812	10.67505
3.8125	9.66797
3.813	15.40833
3.8135	19.33594
3.814	18.8324
3.8145	19.13452
3.815	14.90479
3.8155	22.76001
3.816	21.55151
3.8165	15.81116
3.817	2.5177
3.8175	-1.81274
3.818	-4.33044
3.8185	-4.43115
3.819	-10.87646
3.8195	-8.96301
3.82	-2.21558
3.8205	-9.97009
3.821	-1.61133
3.8215	-0.70496
3.822	-3.52478
3.8225	-3.52478
3.823	-2.92053
3.8235	1.61133
3.824	3.42407
3.8245	-1.51062
3.825	-2.21558
3.8255	-2.11487
3.826	-1.2085
3.8265	7.35168
3.827	16.41541
3.8275	17.01965
3.828	16.11328
3.8285	14.19983
3.829	19.53735
3.8295	20.74585
3.83	13.19275
3.8305	12.99133
3.831	7.95593
3.8315	11.78284
3.832	7.5531
3.8325	10.67505
3.833	5.0354
3.8335	6.74744
3.834	3.92761
3.8345	1.10779
3.835	6.74744
3.8355	0.70496
3.836	3.8269
3.8365	4.43115
3.837	6.64673
3.8375	3.7262
3.838	-0.80566
3.8385	-1.81274
3.839	5.23682
3.8395	1.10779
3.84	-4.02832
3.8405	-2.5177
3.841	-7.75452
3.8415	-10.57434
3.842	-16.71753
3.8425	-21.65222
3.843	-17.12036
3.8435	-24.06921
3.844	-22.86072
3.8445	-21.24939
3.845	-22.55859
3.8455	-18.12744
3.846	-8.15735
3.8465	0.60425
3.847	17.72461
3.8475	26.28479
3.848	30.11169
3.8485	30.31311
3.849	32.12585
3.8495	25.98267
3.85	26.58691
3.8505	19.94019
3.851	8.96301
3.8515	-1.40991
3.852	-20.34302
3.8525	-31.01807
3.853	-36.95984
3.8535	-38.974
3.854	-50.75684
3.8545	-52.26746
3.855	-54.38232
3.8555	-50.65613
3.856	-43.80798
3.8565	-30.61523
3.857	-14.09912
3.8575	-0.90637
3.858	17.72461
3.8585	36.35559
3.859	52.771
3.8595	72.50977
3.86	76.03455
3.8605	75.53101
3.861	77.84729
3.8615	81.37207
3.862	66.36658
3.8625	57.9071
3.863	51.5625
3.8635	39.88037
3.864	31.92444
3.8645	27.39258
3.865	23.96851
3.8655	12.68921
3.866	9.16443
3.8665	-1.81274
3.867	-9.76868
3.8675	-17.72461
3.868	-21.75293
3.8685	-24.06921
3.869	-17.52319
3.8695	-18.8324
3.87	-21.65222
3.8705	-18.63098
3.871	-18.02673
3.8715	-11.38
3.872	-1.3092
3.8725	-0.10071
3.873	9.56726
3.8735	13.39417
3.874	18.63098
3.8745	26.48621
3.875	30.61523
3.8755	26.98975
3.876	20.94727
3.8765	27.29187
3.877	22.35718
3.8775	16.3147
3.878	19.53735
3.8785	21.85364
3.879	21.55151
3.8795	15.40833
3.88	6.84814
3.8805	12.99133
3.881	9.26514
3.8815	13.39417
3.882	5.63965
3.8825	8.45947
3.883	3.7262
3.8835	10.47363
3.884	9.16443
3.8845	3.42407
3.885	5.33752
3.8855	5.23682
3.886	7.45239
3.8865	5.63965
3.887	4.73328
3.8875	8.45947
3.888	4.12903
3.8885	6.64673
3.889	1.3092
3.8895	-0.60425
3.89	-4.22974
3.8905	-4.83398
3.891	-4.63257
3.8915	-8.56018
3.892	-10.17151
3.8925	-5.94177
3.893	-3.02124
3.8935	-4.33044
3.894	-2.41699
3.8945	-0.50354
3.895	0.50354
3.8955	5.33752
3.896	7.04956
3.8965	4.93469
3.897	5.63965
3.8975	13.89771
3.898	18.93311
3.8985	17.72461
3.899	21.24939
3.8995	20.04089
3.9	20.44373
3.9005	25.27771
3.901	19.73877
3.9015	23.96851
3.902	19.63806
3.9025	12.38708
3.903	10.87646
3.9035	7.65381
3.904	1.3092
3.9045	8.7616
3.905	5.0354
3.9055	6.04248
3.906	9.66797
3.9065	6.04248
3.907	7.85522
3.9075	7.95593
3.908	12.68921
3.9085	18.12744
3.909	9.66797
3.9095	11.38
3.91	5.74036
3.9105	7.35168
3.911	2.92053
3.9115	3.22266
3.912	2.01416
3.9125	9.16443
3.913	10.17151
3.9135	6.84814
3.914	6.44531
3.9145	9.36584
3.915	8.45947
3.9155	10.27222
3.916	9.16443
3.9165	5.0354
3.917	6.64673
3.9175	7.65381
3.918	4.93469
3.9185	4.73328
3.919	0.50354
3.9195	8.45947
3.92	3.42407
3.9205	3.7262
3.921	5.94177
3.9215	4.93469
3.922	7.04956
3.9225	7.45239
3.923	4.53186
3.9235	7.04956
3.924	27.99683
3.9245	53.47595
3.925	73.11401
3.9255	76.63879
3.926	60.3241
3.9265	43.00232
3.927	32.52869
3.9275	13.59558
3.928	5.63965
3.9285	-7.35168
3.929	-14.70337
3.9295	-18.8324
3.93	-35.44922
3.9305	-36.75842
3.931	-36.25488
3.9315	-32.52869
3.932	-24.57275
3.9325	-23.36426
3.933	-15.91187
3.9335	-14.80408
3.934	-19.43665
3.9345	-20.1416
3.935	-13.19275
3.9355	-10.57434
3.936	-9.06372
3.9365	-8.35876
3.937	-7.25098
3.9375	0.10071
3.938	4.83398
3.9385	2.92053
3.939	6.14319
3.9395	3.52478
3.94	4.22974
3.9405	8.96301
3.941	8.05664
3.9415	1.00708
3.942	0.70496
3.9425	4.43115
3.943	0.80566
3.9435	3.8269
3.944	-3.62549
3.9445	-3.52478
3.945	-2.5177
3.9455	-1.81274
3.946	-5.23682
3.9465	2.5177
3.947	0.10071
3.9475	-4.02832
3.948	-3.42407
3.9485	-3.32336
3.949	-2.61841
3.9495	-5.0354
3.95	-4.93469
3.9505	-3.8269
3.951	-3.92761
3.9515	-5.74036
3.952	-7.04956
3.9525	-3.32336
3.953	-3.12195
3.9535	-10.37292
3.954	-8.25806
3.9545	-10.47363
3.955	-10.97717
3.9555	-5.84106
3.956	-3.12195
3.9565	-2.41699
3.957	-3.62549
3.9575	0.40283
3.958	-4.53186
3.9585	-0.80566
3.959	-4.53186
3.9595	-2.31628
3.96	-1.40991
3.9605	-4.22974
3.961	-2.81982
3.9615	-6.54602
3.962	-5.63965
3.9625	-6.2439
3.963	-1.3092
3.9635	-1.71204
3.964	-3.7262
3.9645	3.62549
3.965	1.40991
3.9655	2.71912
3.966	4.43115
3.9665	4.43115
3.967	10.0708
3.9675	11.48071
3.968	13.49487
3.9685	11.68213
3.969	9.86938
3.9695	8.96301
3.97	8.35876
3.9705	8.45947
3.971	6.44531
3.9715	10.37292
3.972	8.7616
3.9725	4.02832
3.973	3.52478
3.9735	1.3092
3.974	8.05664
3.9745	4.33044
3.975	1.71204
3.9755	6.64673
3.976	7.85522
3.9765	11.2793
3.977	11.48071
3.9775	3.62549
3.978	3.92761
3.9785	3.62549
3.979	3.62549
3.9795	3.22266
3.98	2.5177
3.9805	0.10071
3.981	-2.01416
3.9815	2.5177
3.982	0.90637
3.9825	7.35168
3.983	2.81982
3.9835	4.63257
3.984	4.53186
3.9845	5.33752
3.985	4.63257
3.9855	4.83398
3.986	5.23682
3.9865	5.13611
3.987	3.8269
3.9875	6.74744
3.988	1.61133
3.9885	-3.12195
3.989	0.10071
3.9895	-5.63965
3.99	-0.50354
3.9905	0.10071
3.991	0.90637
3.9915	2.81982
3.992	-1.51062
3.9925	-1.61133
3.993	4.02832
3.9935	2.71912
3.994	2.5177
3.9945	7.25098
3.995	6.04248
3.9955	2.71912
3.996	7.85522
3.9965	-0.50354
3.997	2.92053
3.9975	6.54602
3.998	3.32336
3.9985	5.74036
3.999	8.15735
3.9995	6.04248
4	3.62549
4.0005	5.0354
4.001	5.63965
4.0015	0.70496
4.002	3.7262
4.0025	2.41699
4.003	3.32336
4.0035	3.22266
4.004	10.77576
4.0045	7.45239
4.005	7.95593
4.0055	8.96301
4.006	9.66797
4.0065	15.40833
4.007	9.56726
4.0075	12.08496
4.008	5.23682
4.0085	4.02832
4.009	5.63965
4.0095	9.86938
4.01	12.5885
4.0105	15.00549
4.011	16.51611
4.0115	11.78284
4.012	8.8623
4.0125	3.7262
4.013	5.13611
4.0135	7.04956
4.014	5.0354
4.0145	4.73328
4.015	6.04248
4.0155	9.76868
4.016	8.66089
4.0165	5.43823
4.017	2.61841
4.0175	0.60425
4.018	5.94177
4.0185	6.94885
4.019	6.44531
4.0195	6.2439
4.02	10.37292
4.0205	7.15027
4.021	5.23682
4.0215	0.90637
4.022	1.00708
4.0225	-5.84106
4.023	-2.5177
4.0235	-4.53186
4.024	-3.12195
4.0245	1.71204
4.025	-0.80566
4.0255	5.0354
4.026	2.41699
4.0265	3.62549
4.027	-1.2085
4.0275	8.96301
4.028	-0.50354
4.0285	3.02124
4.029	2.71912
4.0295	9.36584
4.03	0.30212
4.0305	5.33752
4.031	4.83398
4.0315	4.63257
4.032	4.63257
4.0325	7.15027
4.033	9.16443
4.0335	-0.20142
4.034	0.40283
4.0345	1.3092
4.035	2.71912
4.0355	6.54602
4.036	10.0708
4.0365	5.33752
4.037	6.44531
4.0375	8.96301
4.038	5.33752
4.0385	6.54602
4.039	5.0354
4.0395	8.25806
4.04	3.8269
4.0405	3.42407
4.041	9.76868
4.0415	5.94177
4.042	2.31628
4.0425	4.22974
4.043	-1.2085
4.0435	-1.40991
4.044	0.20142
4.0445	-2.61841
4.045	-1.10779
4.0455	-5.53894
4.046	1.71204
4.0465	3.62549
4.047	4.63257
4.0475	-1.71204
4.048	-11.38
4.0485	-8.66089
4.049	-6.64673
4.0495	-10.47363
4.05	-6.2439
4.0505	-7.25098
4.051	-14.19983
4.0515	-10.27222
4.052	-9.56726
4.0525	-9.36584
4.053	-14.70337
4.0535	-19.63806
4.054	-20.64514
4.0545	-28.29895
4.055	-37.96692
4.0555	-40.68604
4.056	-40.58533
4.0565	-46.02356
4.057	-42.8009
4.0575	-39.77966
4.058	-35.04639
4.0585	-26.68762
4.059	-15.1062
4.0595	-2.11487
4.06	17.12036
4.0605	35.2478
4.061	52.56958
4.0615	61.02905
4.062	71.60339
4.0625	74.12109
4.063	71.90552
4.0635	78.35083
4.064	66.87012
4.0645	60.3241
4.065	53.07312
4.0655	41.59241
4.066	36.25488
4.0665	40.68604
4.067	34.54285
4.0675	27.99683
4.068	26.28479
4.0685	13.69629
4.069	10.17151
4.0695	15.71045
4.07	18.63098
4.0705	16.01257
4.071	17.72461
4.0715	10.87646
4.072	7.25098
4.0725	7.95593
4.073	-6.54602
4.0735	0.40283
4.074	-5.53894
4.0745	-11.48071
4.075	-9.56726
4.0755	-11.2793
4.076	-9.36584
4.0765	-6.64673
4.077	-1.81274
4.0775	-1.10779
