Daniele_De_Santis_Left_2.c3d  



Time(s):	A_R_bicipite(μV):
0	12.78992
0.0005	14.80408
0.001	14.60266
0.0015	7.45239
0.002	9.36584
0.0025	-1.51062
0.003	-5.63965
0.0035	-10.97717
0.004	-10.77576
0.0045	-10.27222
0.005	-13.797
0.0055	-11.58142
0.006	-10.77576
0.0065	-12.78992
0.007	-9.76868
0.0075	-6.2439
0.008	-3.8269
0.0085	-7.25098
0.009	-3.52478
0.0095	-2.01416
0.01	-1.61133
0.0105	-9.76868
0.011	-10.37292
0.0115	-2.81982
0.012	-5.74036
0.0125	-1.91345
0.013	1.81274
0.0135	-2.41699
0.014	-3.62549
0.0145	-4.33044
0.015	-2.01416
0.0155	-3.7262
0.016	-2.5177
0.0165	-0.50354
0.017	1.51062
0.0175	-1.91345
0.018	-0.90637
0.0185	-7.15027
0.019	-7.04956
0.0195	-9.86938
0.02	-0.20142
0.0205	-3.02124
0.021	1.3092
0.0215	1.3092
0.022	-1.91345
0.0225	2.21558
0.023	0.30212
0.0235	5.0354
0.024	2.5177
0.0245	5.74036
0.025	8.25806
0.0255	10.27222
0.026	5.63965
0.0265	6.84814
0.027	8.66089
0.0275	8.05664
0.028	7.35168
0.0285	10.47363
0.029	9.46655
0.0295	9.06372
0.03	7.04956
0.0305	10.0708
0.031	10.87646
0.0315	12.99133
0.032	11.48071
0.0325	10.17151
0.033	14.50195
0.0335	9.06372
0.034	12.08496
0.0345	9.66797
0.035	12.28638
0.0355	4.33044
0.036	6.54602
0.0365	12.28638
0.037	13.797
0.0375	11.68213
0.038	13.19275
0.0385	11.78284
0.039	9.36584
0.0395	7.75452
0.04	6.74744
0.0405	-1.61133
0.041	4.73328
0.0415	5.63965
0.042	11.48071
0.0425	7.5531
0.043	3.92761
0.0435	4.63257
0.044	-0.60425
0.0445	-0.40283
0.045	2.81982
0.0455	3.42407
0.046	-0.40283
0.0465	-1.10779
0.047	-0.40283
0.0475	1.00708
0.048	4.83398
0.0485	3.92761
0.049	3.02124
0.0495	1.3092
0.05	6.44531
0.0505	4.43115
0.051	5.13611
0.0515	5.84106
0.052	6.14319
0.0525	6.84814
0.053	0.10071
0.0535	0.10071
0.054	3.52478
0.0545	7.85522
0.055	4.02832
0.0555	5.33752
0.056	2.41699
0.0565	5.33752
0.057	10.0708
0.0575	8.8623
0.058	10.67505
0.0585	7.75452
0.059	5.53894
0.0595	11.58142
0.06	9.16443
0.0605	11.2793
0.061	4.63257
0.0615	4.83398
0.062	2.5177
0.0625	4.02832
0.063	3.52478
0.0635	6.44531
0.064	5.84106
0.0645	16.3147
0.065	11.2793
0.0655	12.18567
0.066	13.89771
0.0665	6.14319
0.067	14.09912
0.0675	7.45239
0.068	7.25098
0.0685	10.87646
0.069	13.09204
0.0695	14.09912
0.07	7.45239
0.0705	13.19275
0.071	15.81116
0.0715	12.08496
0.072	9.06372
0.0725	6.54602
0.073	5.84106
0.0735	10.0708
0.074	6.94885
0.0745	2.21558
0.075	7.25098
0.0755	1.81274
0.076	1.3092
0.0765	7.5531
0.077	5.43823
0.0775	4.12903
0.078	1.91345
0.0785	8.05664
0.079	5.84106
0.0795	5.0354
0.08	2.5177
0.0805	3.22266
0.081	1.91345
0.0815	2.5177
0.082	2.11487
0.0825	2.5177
0.083	9.56726
0.0835	5.74036
0.084	6.3446
0.0845	0.80566
0.085	3.32336
0.0855	0.90637
0.086	8.25806
0.0865	6.44531
0.087	8.66089
0.0875	7.35168
0.088	7.95593
0.0885	6.64673
0.089	2.81982
0.0895	11.98425
0.09	11.2793
0.0905	13.49487
0.091	14.50195
0.0915	13.19275
0.092	6.2439
0.0925	2.92053
0.093	10.57434
0.0935	3.7262
0.094	4.02832
0.0945	4.12903
0.095	2.11487
0.0955	5.13611
0.096	8.35876
0.0965	11.2793
0.097	3.7262
0.0975	2.31628
0.098	7.15027
0.0985	4.83398
0.099	5.94177
0.0995	8.15735
0.1	5.33752
0.1005	5.0354
0.101	7.65381
0.1015	6.44531
0.102	9.46655
0.1025	6.3446
0.103	8.35876
0.1035	6.04248
0.104	8.56018
0.1045	2.01416
0.105	3.32336
0.1055	1.91345
0.106	7.75452
0.1065	5.0354
0.107	6.94885
0.1075	5.84106
0.108	8.35876
0.1085	10.87646
0.109	10.87646
0.1095	14.40125
0.11	3.92761
0.1105	5.33752
0.111	6.04248
0.1115	9.86938
0.112	8.96301
0.1125	9.66797
0.113	10.37292
0.1135	14.50195
0.114	9.76868
0.1145	8.7616
0.115	4.53186
0.1155	12.68921
0.116	14.19983
0.1165	12.28638
0.117	9.76868
0.1175	11.78284
0.118	8.7616
0.1185	7.15027
0.119	3.22266
0.1195	6.54602
0.12	8.25806
0.1205	11.07788
0.121	4.12903
0.1215	6.3446
0.122	12.89062
0.1225	7.85522
0.123	4.53186
0.1235	7.35168
0.124	5.43823
0.1245	6.74744
0.125	2.11487
0.1255	2.61841
0.126	6.2439
0.1265	7.35168
0.127	8.96301
0.1275	9.26514
0.128	4.53186
0.1285	8.05664
0.129	10.37292
0.1295	10.37292
0.13	13.09204
0.1305	11.2793
0.131	7.5531
0.1315	9.97009
0.132	6.44531
0.1325	6.54602
0.133	8.56018
0.1335	6.04248
0.134	6.44531
0.1345	9.56726
0.135	4.63257
0.1355	8.8623
0.136	6.74744
0.1365	10.57434
0.137	12.38708
0.1375	8.15735
0.138	8.8623
0.1385	7.95593
0.139	11.2793
0.1395	9.86938
0.14	6.04248
0.1405	8.66089
0.141	7.35168
0.1415	10.77576
0.142	10.17151
0.1425	8.66089
0.143	4.02832
0.1435	4.02832
0.144	8.25806
0.1445	12.48779
0.145	7.5531
0.1455	4.73328
0.146	4.83398
0.1465	0.90637
0.147	3.32336
0.1475	6.44531
0.148	1.00708
0.1485	5.23682
0.149	10.97717
0.1495	3.52478
0.15	4.83398
0.1505	6.04248
0.151	4.73328
0.1515	2.61841
0.152	6.44531
0.1525	-0.70496
0.153	-1.2085
0.1535	1.81274
0.154	9.86938
0.1545	3.62549
0.155	4.63257
0.1555	-1.10779
0.156	2.11487
0.1565	6.64673
0.157	4.83398
0.1575	-3.8269
0.158	0.70496
0.1585	2.41699
0.159	-1.51062
0.1595	-0.90637
0.16	0.10071
0.1605	6.14319
0.161	0.40283
0.1615	2.21558
0.162	6.04248
0.1625	4.63257
0.163	-0.10071
0.1635	-4.22974
0.164	-0.70496
0.1645	1.71204
0.165	0.80566
0.1655	5.33752
0.166	6.2439
0.1665	3.7262
0.167	-1.3092
0.1675	0.70496
0.168	-0.50354
0.1685	5.33752
0.169	0.80566
0.1695	-1.61133
0.17	1.91345
0.1705	2.61841
0.171	-3.52478
0.1715	0.60425
0.172	-1.71204
0.1725	0.10071
0.173	2.5177
0.1735	-1.40991
0.174	-4.43115
0.1745	-1.51062
0.175	-4.63257
0.1755	-0.40283
0.176	3.8269
0.1765	-0.20142
0.177	4.12903
0.1775	5.13611
0.178	1.10779
0.1785	5.84106
0.179	-0.10071
0.1795	1.61133
0.18	3.42407
0.1805	4.33044
0.181	6.3446
0.1815	8.25806
0.182	9.86938
0.1825	6.94885
0.183	4.73328
0.1835	4.83398
0.184	3.52478
0.1845	8.35876
0.185	0.90637
0.1855	2.21558
0.186	3.52478
0.1865	2.61841
0.187	2.01416
0.1875	2.41699
0.188	2.01416
0.1885	3.22266
0.189	0.20142
0.1895	3.32336
0.19	5.84106
0.1905	4.02832
0.191	8.25806
0.1915	8.56018
0.192	5.74036
0.1925	4.83398
0.193	6.2439
0.1935	8.7616
0.194	4.63257
0.1945	4.43115
0.195	3.42407
0.1955	4.63257
0.196	3.02124
0.1965	5.74036
0.197	1.00708
0.1975	5.43823
0.198	3.7262
0.1985	10.87646
0.199	7.65381
0.1995	7.04956
0.2	6.74744
0.2005	1.10779
0.201	3.7262
0.2015	7.85522
0.202	7.45239
0.2025	3.12195
0.203	7.04956
0.2035	6.2439
0.204	6.74744
0.2045	6.44531
0.205	6.2439
0.2055	-1.81274
0.206	6.74744
0.2065	10.67505
0.207	1.91345
0.2075	-0.70496
0.208	5.0354
0.2085	6.2439
0.209	7.15027
0.2095	6.74744
0.21	7.35168
0.2105	5.43823
0.211	9.97009
0.2115	9.46655
0.212	5.13611
0.2125	7.95593
0.213	6.14319
0.2135	-0.30212
0.214	7.15027
0.2145	3.22266
0.215	1.81274
0.2155	4.22974
0.216	2.21558
0.2165	3.12195
0.217	4.73328
0.2175	-0.70496
0.218	2.41699
0.2185	4.33044
0.219	5.23682
0.2195	5.33752
0.22	0.30212
0.2205	7.85522
0.221	2.31628
0.2215	7.5531
0.222	6.74744
0.2225	6.3446
0.223	0.40283
0.2235	1.51062
0.224	3.92761
0.2245	6.3446
0.225	6.3446
0.2255	3.42407
0.226	6.2439
0.2265	-0.30212
0.227	3.12195
0.2275	4.33044
0.228	1.51062
0.2285	2.92053
0.229	1.3092
0.2295	3.52478
0.23	2.21558
0.2305	3.22266
0.231	4.83398
0.2315	0.70496
0.232	4.63257
0.2325	1.10779
0.233	2.61841
0.2335	7.25098
0.234	2.92053
0.2345	4.83398
0.235	3.92761
0.2355	5.13611
0.236	8.15735
0.2365	6.84814
0.237	7.85522
0.2375	4.33044
0.238	4.63257
0.2385	5.63965
0.239	4.53186
0.2395	-0.40283
0.24	8.45947
0.2405	10.27222
0.241	3.52478
0.2415	1.71204
0.242	5.84106
0.2425	3.92761
0.243	6.54602
0.2435	3.52478
0.244	3.02124
0.2445	5.84106
0.245	8.15735
0.2455	1.10779
0.246	3.02124
0.2465	5.94177
0.247	3.22266
0.2475	5.13611
0.248	2.11487
0.2485	9.66797
0.249	4.02832
0.2495	7.75452
0.25	3.32336
0.2505	1.2085
0.251	5.33752
0.2515	5.23682
0.252	3.12195
0.2525	8.25806
0.253	2.41699
0.2535	1.61133
0.254	4.53186
0.2545	5.0354
0.255	1.91345
0.2555	5.84106
0.256	4.43115
0.2565	5.43823
0.257	4.93469
0.2575	4.22974
0.258	5.33752
0.2585	0.40283
0.259	2.5177
0.2595	5.43823
0.26	6.64673
0.2605	10.77576
0.261	4.33044
0.2615	8.96301
0.262	5.84106
0.2625	11.48071
0.263	6.64673
0.2635	10.27222
0.264	7.35168
0.2645	9.06372
0.265	7.45239
0.2655	7.04956
0.266	6.04248
0.2665	10.37292
0.267	8.35876
0.2675	5.0354
0.268	1.40991
0.2685	4.12903
0.269	3.02124
0.2695	5.63965
0.27	10.47363
0.2705	0.40283
0.271	1.81274
0.2715	12.78992
0.272	4.93469
0.2725	4.83398
0.273	9.26514
0.2735	7.15027
0.274	10.67505
0.2745	6.2439
0.275	4.22974
0.2755	3.7262
0.276	8.25806
0.2765	3.7262
0.277	2.81982
0.2775	5.0354
0.278	5.33752
0.2785	4.43115
0.279	-0.30212
0.2795	-0.90637
0.28	1.3092
0.2805	5.84106
0.281	1.81274
0.2815	-1.00708
0.282	4.63257
0.2825	4.12903
0.283	2.61841
0.2835	4.02832
0.284	2.11487
0.2845	0.20142
0.285	1.91345
0.2855	5.43823
0.286	6.94885
0.2865	3.62549
0.287	-4.12903
0.2875	2.5177
0.288	6.3446
0.2885	2.01416
0.289	2.11487
0.2895	3.62549
0.29	5.43823
0.2905	3.92761
0.291	0.60425
0.2915	2.21558
0.292	-0.20142
0.2925	2.11487
0.293	-1.61133
0.2935	3.7262
0.294	2.41699
0.2945	5.53894
0.295	3.02124
0.2955	4.63257
0.296	3.7262
0.2965	8.15735
0.297	2.41699
0.2975	8.15735
0.298	6.04248
0.2985	6.64673
0.299	-0.10071
0.2995	10.0708
0.3	2.61841
0.3005	3.32336
0.301	3.52478
0.3015	4.83398
0.302	6.04248
0.3025	6.44531
0.303	7.45239
0.3035	6.3446
0.304	9.06372
0.3045	8.66089
0.305	2.61841
0.3055	3.52478
0.306	5.23682
0.3065	6.2439
0.307	7.04956
0.3075	8.15735
0.308	2.31628
0.3085	3.32336
0.309	6.64673
0.3095	3.52478
0.31	9.46655
0.3105	6.2439
0.311	10.27222
0.3115	11.68213
0.312	4.22974
0.3125	6.3446
0.313	13.39417
0.3135	10.37292
0.314	1.91345
0.3145	3.92761
0.315	-0.40283
0.3155	7.95593
0.316	7.35168
0.3165	2.11487
0.317	6.74744
0.3175	5.13611
0.318	7.04956
0.3185	4.43115
0.319	5.84106
0.3195	3.92761
0.32	5.13611
0.3205	10.27222
0.321	7.75452
0.3215	10.27222
0.322	9.86938
0.3225	7.15027
0.323	6.44531
0.3235	8.66089
0.324	5.43823
0.3245	9.46655
0.325	6.64673
0.3255	6.54602
0.326	8.56018
0.3265	8.15735
0.327	10.67505
0.3275	10.37292
0.328	7.65381
0.3285	8.66089
0.329	9.86938
0.3295	7.5531
0.33	7.75452
0.3305	2.71912
0.331	6.04248
0.3315	15.40833
0.332	6.74744
0.3325	8.35876
0.333	8.96301
0.3335	11.58142
0.334	10.47363
0.3345	5.94177
0.335	5.13611
0.3355	9.56726
0.336	7.5531
0.3365	5.23682
0.337	9.76868
0.3375	7.35168
0.338	9.36584
0.3385	12.5885
0.339	9.86938
0.3395	5.94177
0.34	1.71204
0.3405	5.33752
0.341	5.63965
0.3415	7.45239
0.342	5.0354
0.3425	15.50903
0.343	12.28638
0.3435	11.58142
0.344	9.66797
0.3445	13.89771
0.345	5.74036
0.3455	12.5885
0.346	8.66089
0.3465	12.18567
0.347	6.74744
0.3475	2.41699
0.348	1.71204
0.3485	1.71204
0.349	-0.90637
0.3495	6.14319
0.35	1.40991
0.3505	5.43823
0.351	5.53894
0.3515	8.35876
0.352	4.53186
0.3525	7.5531
0.353	6.44531
0.3535	6.04248
0.354	6.2439
0.3545	6.84814
0.355	3.22266
0.3555	1.91345
0.356	8.7616
0.3565	11.17859
0.357	7.65381
0.3575	13.09204
0.358	4.53186
0.3585	2.81982
0.359	-4.12903
0.3595	4.02832
0.36	7.35168
0.3605	1.71204
0.361	7.75452
0.3615	4.12903
0.362	4.02832
0.3625	3.62549
0.363	-1.61133
0.3635	5.53894
0.364	6.04248
0.3645	6.04248
0.365	2.92053
0.3655	8.25806
0.366	1.61133
0.3665	8.05664
0.367	6.84814
0.3675	2.01416
0.368	1.61133
0.3685	6.94885
0.369	3.52478
0.3695	3.8269
0.37	7.95593
0.3705	5.23682
0.371	6.84814
0.3715	6.3446
0.372	6.14319
0.3725	0.50354
0.373	1.00708
0.3735	-3.02124
0.374	1.61133
0.3745	-3.02124
0.375	-7.65381
0.3755	-3.12195
0.376	-5.0354
0.3765	-5.13611
0.377	3.52478
0.3775	-2.11487
0.378	-3.62549
0.3785	0.40283
0.379	-0.70496
0.3795	1.81274
0.38	0.10071
0.3805	4.02832
0.381	1.00708
0.3815	1.3092
0.382	-4.63257
0.3825	0.70496
0.383	1.10779
0.3835	-0.70496
0.384	0.50354
0.3845	1.91345
0.385	-4.22974
0.3855	0.10071
0.386	2.21558
0.3865	0.80566
0.387	2.31628
0.3875	2.81982
0.388	7.5531
0.3885	2.01416
0.389	1.10779
0.3895	-2.11487
0.39	5.63965
0.3905	0.60425
0.391	5.53894
0.3915	9.06372
0.392	4.63257
0.3925	3.42407
0.393	1.81274
0.3935	1.51062
0.394	5.53894
0.3945	0.10071
0.395	-0.40283
0.3955	-1.40991
0.396	3.92761
0.3965	5.43823
0.397	5.63965
0.3975	3.52478
0.398	0.30212
0.3985	4.02832
0.399	6.94885
0.3995	3.8269
0.4	-0.70496
0.4005	5.23682
0.401	8.96301
0.4015	4.12903
0.402	6.74744
0.4025	2.71912
0.403	5.23682
0.4035	0.40283
0.404	-2.11487
0.4045	2.5177
0.405	-1.3092
0.4055	-1.00708
0.406	-2.61841
0.4065	5.33752
0.407	1.81274
0.4075	-0.90637
0.408	2.92053
0.4085	8.8623
0.409	3.02124
0.4095	6.3446
0.41	-0.40283
0.4105	6.94885
0.411	4.43115
0.4115	8.15735
0.412	6.94885
0.4125	6.14319
0.413	4.33044
0.4135	6.3446
0.414	9.66797
0.4145	3.8269
0.415	5.53894
0.4155	8.56018
0.416	4.43115
0.4165	1.81274
0.417	3.32336
0.4175	6.94885
0.418	6.84814
0.4185	5.84106
0.419	10.27222
0.4195	10.17151
0.42	9.26514
0.4205	4.12903
0.421	4.93469
0.4215	5.0354
0.422	9.36584
0.4225	3.7262
0.423	9.06372
0.4235	9.56726
0.424	8.35876
0.4245	8.25806
0.425	11.07788
0.4255	12.28638
0.426	9.56726
0.4265	6.94885
0.427	8.96301
0.4275	10.0708
0.428	6.2439
0.4285	6.14319
0.429	6.84814
0.4295	7.15027
0.43	8.15735
0.4305	11.38
0.431	7.5531
0.4315	6.74744
0.432	1.51062
0.4325	4.02832
0.433	6.44531
0.4335	12.28638
0.434	6.94885
0.4345	8.66089
0.435	4.22974
0.4355	7.65381
0.436	8.25806
0.4365	6.94885
0.437	7.45239
0.4375	4.53186
0.438	4.02832
0.4385	1.00708
0.439	5.84106
0.4395	6.74744
0.44	4.02832
0.4405	0
0.441	2.81982
0.4415	3.32336
0.442	0.20142
0.4425	2.92053
0.443	5.53894
0.4435	2.61841
0.444	7.04956
0.4445	4.02832
0.445	3.92761
0.4455	1.40991
0.446	4.02832
0.4465	6.2439
0.447	6.44531
0.4475	8.45947
0.448	6.3446
0.4485	8.05664
0.449	11.07788
0.4495	9.06372
0.45	6.04248
0.4505	5.84106
0.451	4.02832
0.4515	5.94177
0.452	5.23682
0.4525	7.75452
0.453	8.35876
0.4535	12.48779
0.454	9.66797
0.4545	7.35168
0.455	5.43823
0.4555	4.22974
0.456	6.74744
0.4565	5.23682
0.457	5.94177
0.4575	9.26514
0.458	9.97009
0.4585	7.15027
0.459	14.19983
0.4595	5.84106
0.46	7.45239
0.4605	7.85522
0.461	8.25806
0.4615	9.36584
0.462	13.19275
0.4625	10.0708
0.463	11.17859
0.4635	10.67505
0.464	12.48779
0.4645	13.09204
0.465	9.36584
0.4655	5.84106
0.466	7.25098
0.4665	4.43115
0.467	12.5885
0.4675	13.59558
0.468	16.61682
0.4685	12.28638
0.469	11.38
0.4695	16.41541
0.47	10.17151
0.4705	13.89771
0.471	12.5885
0.4715	16.81824
0.472	11.58142
0.4725	7.04956
0.473	17.92603
0.4735	9.26514
0.474	5.63965
0.4745	10.67505
0.475	7.95593
0.4755	5.33752
0.476	10.17151
0.4765	10.87646
0.477	10.77576
0.4775	12.99133
0.478	10.67505
0.4785	11.48071
0.479	11.07788
0.4795	14.90479
0.48	5.23682
0.4805	7.35168
0.481	4.22974
0.4815	9.16443
0.482	5.94177
0.4825	9.06372
0.483	9.76868
0.4835	3.42407
0.484	4.22974
0.4845	6.04248
0.485	12.08496
0.4855	10.17151
0.486	14.70337
0.4865	13.797
0.487	11.48071
0.4875	6.44531
0.488	6.54602
0.4885	7.5531
0.489	8.25806
0.4895	7.15027
0.49	9.06372
0.4905	8.56018
0.491	11.07788
0.4915	10.97717
0.492	12.99133
0.4925	16.81824
0.493	7.85522
0.4935	6.44531
0.494	5.94177
0.4945	5.0354
0.495	11.07788
0.4955	9.66797
0.496	8.96301
0.4965	9.76868
0.497	6.14319
0.4975	10.17151
0.498	9.46655
0.4985	8.96301
0.499	11.98425
0.4995	13.797
0.5	5.33752
0.5005	8.7616
0.501	11.07788
0.5015	5.33752
0.502	7.85522
0.5025	6.44531
0.503	8.05664
0.5035	7.35168
0.504	9.97009
0.5045	5.23682
0.505	7.75452
0.5055	8.15735
0.506	6.2439
0.5065	10.17151
0.507	6.44531
0.5075	6.04248
0.508	6.54602
0.5085	6.94885
0.509	6.54602
0.5095	9.56726
0.51	11.17859
0.5105	11.2793
0.511	9.36584
0.5115	13.99841
0.512	11.17859
0.5125	13.39417
0.513	10.27222
0.5135	10.27222
0.514	9.36584
0.5145	10.0708
0.515	9.16443
0.5155	7.25098
0.516	6.74744
0.5165	8.8623
0.517	7.45239
0.5175	4.73328
0.518	6.64673
0.5185	3.42407
0.519	8.56018
0.5195	7.04956
0.52	10.17151
0.5205	7.25098
0.521	6.3446
0.5215	8.8623
0.522	-0.30212
0.5225	3.42407
0.523	5.13611
0.5235	2.81982
0.524	11.68213
0.5245	4.63257
0.525	3.8269
0.5255	8.96301
0.526	7.85522
0.5265	9.16443
0.527	8.15735
0.5275	8.7616
0.528	9.36584
0.5285	10.87646
0.529	8.35876
0.5295	6.14319
0.53	4.93469
0.5305	8.05664
0.531	7.25098
0.5315	6.04248
0.532	10.87646
0.5325	9.97009
0.533	9.97009
0.5335	4.73328
0.534	5.53894
0.5345	8.35876
0.535	2.41699
0.5355	9.56726
0.536	8.35876
0.5365	5.94177
0.537	10.0708
0.5375	6.3446
0.538	10.37292
0.5385	7.85522
0.539	9.46655
0.5395	9.86938
0.54	10.97717
0.5405	5.94177
0.541	4.43115
0.5415	10.27222
0.542	12.48779
0.5425	9.16443
0.543	10.77576
0.5435	9.26514
0.544	9.06372
0.5445	10.57434
0.545	12.68921
0.5455	10.0708
0.546	15.1062
0.5465	17.82532
0.547	14.90479
0.5475	5.74036
0.548	4.12903
0.5485	4.12903
0.549	14.70337
0.5495	9.06372
0.55	4.22974
0.5505	7.75452
0.551	6.3446
0.5515	10.17151
0.552	5.53894
0.5525	10.97717
0.553	8.25806
0.5535	2.11487
0.554	6.44531
0.5545	7.45239
0.555	5.84106
0.5555	8.05664
0.556	15.60974
0.5565	8.56018
0.557	7.25098
0.5575	7.75452
0.558	7.45239
0.5585	6.74744
0.559	9.46655
0.5595	1.00708
0.56	-0.90637
0.5605	-1.61133
0.561	1.81274
0.5615	3.62549
0.562	1.71204
0.5625	4.83398
0.563	6.54602
0.5635	5.63965
0.564	4.33044
0.5645	0.10071
0.565	4.83398
0.5655	5.33752
0.566	1.61133
0.5665	1.10779
0.567	0.80566
0.5675	4.02832
0.568	0.40283
0.5685	5.94177
0.569	2.31628
0.5695	-0.30212
0.57	-1.40991
0.5705	1.40991
0.571	-0.90637
0.5715	-1.91345
0.572	-5.43823
0.5725	-1.81274
0.573	-2.61841
0.5735	-0.20142
0.574	-1.81274
0.5745	-0.10071
0.575	-1.51062
0.5755	-0.20142
0.576	-2.71912
0.5765	-6.94885
0.577	-7.85522
0.5775	-6.74744
0.578	-8.35876
0.5785	-2.31628
0.579	0
0.5795	-1.61133
0.58	3.02124
0.5805	5.53894
0.581	4.33044
0.5815	1.00708
0.582	3.62549
0.5825	4.02832
0.583	-5.13611
0.5835	0.40283
0.584	6.74744
0.5845	5.33752
0.585	-1.2085
0.5855	6.04248
0.586	6.2439
0.5865	9.86938
0.587	7.95593
0.5875	9.36584
0.588	-0.80566
0.5885	6.84814
0.589	6.54602
0.5895	2.41699
0.59	11.38
0.5905	10.37292
0.591	10.0708
0.5915	13.59558
0.592	13.797
0.5925	10.77576
0.593	15.1062
0.5935	9.46655
0.594	10.97717
0.5945	5.53894
0.595	11.68213
0.5955	8.96301
0.596	13.59558
0.5965	10.27222
0.597	9.36584
0.5975	11.98425
0.598	10.77576
0.5985	10.87646
0.599	12.99133
0.5995	13.59558
0.6	8.8623
0.6005	12.28638
0.601	6.2439
0.6015	8.96301
0.602	4.12903
0.6025	9.36584
0.603	9.46655
0.6035	8.8623
0.604	6.94885
0.6045	5.74036
0.605	7.75452
0.6055	9.16443
0.606	10.17151
0.6065	7.45239
0.607	7.65381
0.6075	7.65381
0.608	9.66797
0.6085	6.54602
0.609	5.53894
0.6095	7.65381
0.61	6.74744
0.6105	4.83398
0.611	2.01416
0.6115	6.44531
0.612	4.53186
0.6125	6.84814
0.613	7.15027
0.6135	7.75452
0.614	7.75452
0.6145	11.38
0.615	8.7616
0.6155	11.17859
0.616	9.86938
0.6165	9.97009
0.617	8.8623
0.6175	9.36584
0.618	9.86938
0.6185	7.5531
0.619	10.67505
0.6195	10.57434
0.62	7.5531
0.6205	15.40833
0.621	11.07788
0.6215	7.95593
0.622	9.56726
0.6225	11.78284
0.623	14.70337
0.6235	11.68213
0.624	4.43115
0.6245	1.2085
0.625	9.06372
0.6255	8.45947
0.626	6.74744
0.6265	3.42407
0.627	5.63965
0.6275	2.61841
0.628	4.02832
0.6285	3.02124
0.629	7.35168
0.6295	-0.80566
0.63	2.01416
0.6305	4.83398
0.631	3.8269
0.6315	-3.52478
0.632	3.22266
0.6325	6.64673
0.633	3.8269
0.6335	6.3446
0.634	4.93469
0.6345	3.62549
0.635	-2.71912
0.6355	7.85522
0.636	4.43115
0.6365	3.32336
0.637	1.3092
0.6375	1.40991
0.638	5.74036
0.6385	1.91345
0.639	2.81982
0.6395	1.71204
0.64	4.12903
0.6405	1.81274
0.641	4.63257
0.6415	4.43115
0.642	3.02124
0.6425	4.53186
0.643	5.33752
0.6435	8.7616
0.644	-1.00708
0.6445	1.51062
0.645	2.21558
0.6455	2.21558
0.646	-0.50354
0.6465	1.91345
0.647	2.92053
0.6475	2.11487
0.648	6.74744
0.6485	4.22974
0.649	2.21558
0.6495	-2.5177
0.65	4.63257
0.6505	-0.70496
0.651	6.74744
0.6515	1.91345
0.652	3.32336
0.6525	4.83398
0.653	5.53894
0.6535	2.11487
0.654	2.61841
0.6545	2.92053
0.655	5.23682
0.6555	4.22974
0.656	0.70496
0.6565	5.53894
0.657	2.92053
0.6575	0.80566
0.658	7.25098
0.6585	3.22266
0.659	3.02124
0.6595	5.74036
0.66	2.41699
0.6605	3.02124
0.661	1.2085
0.6615	1.51062
0.662	3.8269
0.6625	4.33044
0.663	1.71204
0.6635	4.93469
0.664	0.80566
0.6645	7.04956
0.665	8.56018
0.6655	10.17151
0.666	1.81274
0.6665	1.71204
0.667	3.22266
0.6675	6.2439
0.668	0.90637
0.6685	0.70496
0.669	-0.80566
0.6695	1.71204
0.67	3.8269
0.6705	3.42407
0.671	2.61841
0.6715	3.52478
0.672	3.8269
0.6725	1.71204
0.673	5.23682
0.6735	5.33752
0.674	11.68213
0.6745	3.22266
0.675	6.74744
0.6755	5.74036
0.676	8.35876
0.6765	4.02832
0.677	3.22266
0.6775	1.3092
0.678	4.12903
0.6785	7.75452
0.679	7.15027
0.6795	5.33752
0.68	3.12195
0.6805	8.56018
0.681	6.14319
0.6815	8.56018
0.682	11.68213
0.6825	9.26514
0.683	7.35168
0.6835	11.17859
0.684	6.3446
0.6845	9.26514
0.685	7.45239
0.6855	8.56018
0.686	7.95593
0.6865	7.85522
0.687	2.81982
0.6875	3.32336
0.688	6.3446
0.6885	6.14319
0.689	6.04248
0.6895	6.3446
0.69	11.2793
0.6905	7.25098
0.691	11.88354
0.6915	9.16443
0.692	6.3446
0.6925	1.40991
0.693	4.02832
0.6935	5.33752
0.694	4.73328
0.6945	9.06372
0.695	7.65381
0.6955	1.71204
0.696	10.97717
0.6965	5.33752
0.697	4.22974
0.6975	7.65381
0.698	5.0354
0.6985	4.22974
0.699	5.53894
0.6995	9.26514
0.7	12.28638
0.7005	12.89062
0.701	5.13611
0.7015	6.44531
0.702	6.2439
0.7025	1.2085
0.703	-0.40283
0.7035	6.04248
0.704	6.14319
0.7045	5.23682
0.705	5.53894
0.7055	2.31628
0.706	2.71912
0.7065	1.91345
0.707	2.81982
0.7075	3.12195
0.708	8.05664
0.7085	3.52478
0.709	2.92053
0.7095	5.13611
0.71	0.40283
0.7105	2.31628
0.711	4.33044
0.7115	5.53894
0.712	4.93469
0.7125	1.61133
0.713	0.50354
0.7135	2.92053
0.714	5.53894
0.7145	8.25806
0.715	2.92053
0.7155	10.97717
0.716	1.61133
0.7165	2.81982
0.717	1.71204
0.7175	2.61841
0.718	5.53894
0.7185	4.63257
0.719	3.22266
0.7195	-2.81982
0.72	3.52478
0.7205	5.74036
0.721	-0.30212
0.7215	-1.00708
0.722	-1.71204
0.7225	1.2085
0.723	3.02124
0.7235	4.33044
0.724	3.62549
0.7245	4.53186
0.725	4.83398
0.7255	2.21558
0.726	4.83398
0.7265	-0.10071
0.727	4.12903
0.7275	3.92761
0.728	-3.42407
0.7285	4.93469
0.729	6.14319
0.7295	1.2085
0.73	7.45239
0.7305	4.02832
0.731	1.10779
0.7315	-1.51062
0.732	4.53186
0.7325	7.75452
0.733	3.42407
0.7335	3.7262
0.734	6.3446
0.7345	4.33044
0.735	10.97717
0.7355	10.87646
0.736	10.67505
0.7365	1.81274
0.737	6.84814
0.7375	14.40125
0.738	12.78992
0.7385	11.88354
0.739	11.48071
0.7395	6.84814
0.74	5.74036
0.7405	7.04956
0.741	10.47363
0.7415	10.37292
0.742	6.2439
0.7425	6.2439
0.743	7.15027
0.7435	3.62549
0.744	8.15735
0.7445	4.22974
0.745	7.15027
0.7455	5.53894
0.746	11.98425
0.7465	6.54602
0.747	9.36584
0.7475	5.33752
0.748	9.46655
0.7485	5.13611
0.749	6.84814
0.7495	3.7262
0.75	5.63965
0.7505	6.84814
0.751	4.22974
0.7515	8.15735
0.752	5.13611
0.7525	2.41699
0.753	5.0354
0.7535	3.92761
0.754	0.30212
0.7545	2.81982
0.755	2.41699
0.7555	3.42407
0.756	8.7616
0.7565	3.92761
0.757	10.17151
0.7575	9.36584
0.758	5.74036
0.7585	1.61133
0.759	2.61841
0.7595	6.14319
0.76	2.01416
0.7605	4.63257
0.761	3.8269
0.7615	7.75452
0.762	6.14319
0.7625	4.02832
0.763	2.21558
0.7635	5.43823
0.764	6.3446
0.7645	4.33044
0.765	7.35168
0.7655	9.06372
0.766	6.2439
0.7665	5.94177
0.767	12.08496
0.7675	10.67505
0.768	4.43115
0.7685	5.53894
0.769	10.87646
0.7695	9.16443
0.77	8.66089
0.7705	9.66797
0.771	9.06372
0.7715	8.45947
0.772	8.96301
0.7725	10.47363
0.773	6.2439
0.7735	9.16443
0.774	9.66797
0.7745	9.76868
0.775	13.19275
0.7755	5.53894
0.776	3.92761
0.7765	9.46655
0.777	5.0354
0.7775	5.74036
0.778	9.36584
0.7785	11.88354
0.779	3.92761
0.7795	6.84814
0.78	8.8623
0.7805	8.96301
0.781	6.94885
0.7815	4.63257
0.782	4.02832
0.7825	2.92053
0.783	5.33752
0.7835	5.0354
0.784	1.71204
0.7845	3.62549
0.785	6.74744
0.7855	3.42407
0.786	6.94885
0.7865	7.25098
0.787	3.62549
0.7875	8.25806
0.788	10.0708
0.7885	6.54602
0.789	8.96301
0.7895	7.75452
0.79	6.94885
0.7905	8.66089
0.791	5.63965
0.7915	12.48779
0.792	2.61841
0.7925	8.66089
0.793	8.8623
0.7935	4.43115
0.794	2.11487
0.7945	7.35168
0.795	9.86938
0.7955	9.36584
0.796	9.66797
0.7965	2.5177
0.797	3.7262
0.7975	8.25806
0.798	7.75452
0.7985	1.51062
0.799	10.17151
0.7995	9.86938
0.8	10.67505
0.8005	10.0708
0.801	7.04956
0.8015	7.35168
0.802	6.64673
0.8025	2.92053
0.803	6.2439
0.8035	6.74744
0.804	4.12903
0.8045	5.23682
0.805	1.71204
0.8055	0.10071
0.806	1.2085
0.8065	-1.71204
0.807	2.01416
0.8075	3.22266
0.808	-4.33044
0.8085	-5.74036
0.809	-0.50354
0.8095	-1.61133
0.81	1.71204
0.8105	1.81274
0.811	2.31628
0.8115	-1.81274
0.812	0.80566
0.8125	0.20142
0.813	2.61841
0.8135	3.62549
0.814	-0.90637
0.8145	2.31628
0.815	-5.94177
0.8155	2.31628
0.816	2.31628
0.8165	4.53186
0.817	-2.11487
0.8175	3.12195
0.818	3.02124
0.8185	0.40283
0.819	-0.40283
0.8195	-0.70496
0.82	6.14319
0.8205	-1.00708
0.821	-1.40991
0.8215	3.22266
0.822	-0.10071
0.8225	3.7262
0.823	0.80566
0.8235	6.3446
0.824	4.33044
0.8245	1.71204
0.825	6.2439
0.8255	2.41699
0.826	1.00708
0.8265	-2.5177
0.827	2.01416
0.8275	-0.40283
0.828	-1.00708
0.8285	4.22974
0.829	4.93469
0.8295	4.02832
0.83	3.12195
0.8305	4.43115
0.831	4.22974
0.8315	6.64673
0.832	-0.70496
0.8325	4.12903
0.833	0.90637
0.8335	5.43823
0.834	7.65381
0.8345	7.65381
0.835	8.56018
0.8355	5.94177
0.836	7.85522
0.8365	8.05664
0.837	3.22266
0.8375	2.81982
0.838	0.30212
0.8385	1.81274
0.839	0.90637
0.8395	6.74744
0.84	5.13611
0.8405	3.42407
0.841	3.7262
0.8415	5.84106
0.842	6.74744
0.8425	6.44531
0.843	4.02832
0.8435	6.84814
0.844	1.61133
0.8445	3.8269
0.845	4.22974
0.8455	-1.10779
0.846	2.71912
0.8465	1.00708
0.847	2.5177
0.8475	5.63965
0.848	9.36584
0.8485	6.2439
0.849	8.56018
0.8495	5.43823
0.85	-3.52478
0.8505	1.40991
0.851	2.01416
0.8515	3.52478
0.852	4.22974
0.8525	4.93469
0.853	4.22974
0.8535	6.44531
0.854	6.2439
0.8545	7.35168
0.855	7.95593
0.8555	4.33044
0.856	4.02832
0.8565	3.52478
0.857	5.53894
0.8575	9.56726
0.858	10.97717
0.8585	7.95593
0.859	5.84106
0.8595	4.43115
0.86	3.62549
0.8605	7.95593
0.861	6.54602
0.8615	4.83398
0.862	6.84814
0.8625	8.45947
0.863	7.35168
0.8635	9.06372
0.864	5.53894
0.8645	8.15735
0.865	4.12903
0.8655	-0.10071
0.866	4.12903
0.8665	10.47363
0.867	4.83398
0.8675	-1.2085
0.868	3.02124
0.8685	0.30212
0.869	4.33044
0.8695	0.40283
0.87	3.22266
0.8705	3.62549
0.871	2.01416
0.8715	4.22974
0.872	2.81982
0.8725	4.33044
0.873	-0.20142
0.8735	-3.32336
0.874	0.10071
0.8745	2.5177
0.875	0.90637
0.8755	0.90637
0.876	-2.71912
0.8765	-0.60425
0.877	3.92761
0.8775	6.84814
0.878	2.41699
0.8785	7.45239
0.879	1.51062
0.8795	3.22266
0.88	2.71912
0.8805	0.20142
0.881	6.2439
0.8815	-0.30212
0.882	5.53894
0.8825	6.2439
0.883	5.13611
0.8835	3.62549
0.884	2.31628
0.8845	-1.10779
0.885	6.74744
0.8855	4.02832
0.886	9.56726
0.8865	4.22974
0.887	11.07788
0.8875	4.63257
0.888	4.53186
0.8885	2.5177
0.889	0.60425
0.8895	0.90637
0.89	6.74744
0.8905	4.12903
0.891	3.92761
0.8915	3.62549
0.892	3.8269
0.8925	0.90637
0.893	-1.71204
0.8935	3.52478
0.894	3.32336
0.8945	-1.91345
0.895	1.81274
0.8955	3.12195
0.896	4.33044
0.8965	6.3446
0.897	8.8623
0.8975	6.54602
0.898	6.54602
0.8985	5.43823
0.899	5.53894
0.8995	5.13611
0.9	9.16443
0.9005	1.3092
0.901	6.84814
0.9015	5.0354
0.902	8.7616
0.9025	6.84814
0.903	8.8623
0.9035	8.7616
0.904	7.15027
0.9045	12.68921
0.905	7.85522
0.9055	9.36584
0.906	0
0.9065	13.29346
0.907	3.92761
0.9075	2.5177
0.908	3.8269
0.9085	4.02832
0.909	6.3446
0.9095	10.97717
0.91	4.43115
0.9105	9.16443
0.911	6.54602
0.9115	5.53894
0.912	12.38708
0.9125	9.36584
0.913	6.3446
0.9135	5.63965
0.914	6.14319
0.9145	3.8269
0.915	4.02832
0.9155	7.85522
0.916	5.53894
0.9165	5.53894
0.917	2.11487
0.9175	4.22974
0.918	8.05664
0.9185	7.35168
0.919	10.97717
0.9195	3.92761
0.92	4.33044
0.9205	6.14319
0.921	5.63965
0.9215	9.56726
0.922	7.5531
0.9225	7.85522
0.923	6.94885
0.9235	7.75452
0.924	12.48779
0.9245	6.04248
0.925	4.12903
0.9255	6.94885
0.926	8.15735
0.9265	10.97717
0.927	4.53186
0.9275	5.63965
0.928	4.53186
0.9285	8.05664
0.929	9.06372
0.9295	2.92053
0.93	9.06372
0.9305	8.7616
0.931	10.27222
0.9315	9.16443
0.932	7.35168
0.9325	8.25806
0.933	7.25098
0.9335	9.26514
0.934	6.74744
0.9345	7.45239
0.935	6.2439
0.9355	11.07788
0.936	12.5885
0.9365	6.14319
0.937	8.35876
0.9375	3.92761
0.938	5.74036
0.9385	8.35876
0.939	6.94885
0.9395	6.2439
0.94	5.53894
0.9405	3.32336
0.941	6.54602
0.9415	7.65381
0.942	4.53186
0.9425	1.91345
0.943	10.17151
0.9435	7.25098
0.944	5.53894
0.9445	11.17859
0.945	9.97009
0.9455	9.26514
0.946	11.68213
0.9465	7.45239
0.947	8.56018
0.9475	7.95593
0.948	4.12903
0.9485	-4.73328
0.949	2.5177
0.9495	8.45947
0.95	1.10779
0.9505	11.17859
0.951	9.16443
0.9515	5.53894
0.952	5.0354
0.9525	0.50354
0.953	0.40283
0.9535	6.2439
0.954	11.88354
0.9545	4.93469
0.955	6.14319
0.9555	4.12903
0.956	1.71204
0.9565	5.53894
0.957	6.44531
0.9575	4.53186
0.958	3.52478
0.9585	6.84814
0.959	5.84106
0.9595	4.22974
0.96	1.51062
0.9605	2.92053
0.961	2.5177
0.9615	3.12195
0.962	1.91345
0.9625	4.83398
0.963	7.15027
0.9635	7.04956
0.964	3.52478
0.9645	-1.71204
0.965	3.32336
0.9655	4.22974
0.966	7.25098
0.9665	9.86938
0.967	6.74744
0.9675	7.95593
0.968	1.81274
0.9685	10.47363
0.969	6.54602
0.9695	5.0354
0.97	7.45239
0.9705	7.85522
0.971	4.73328
0.9715	6.2439
0.972	5.33752
0.9725	1.91345
0.973	11.38
0.9735	3.02124
0.974	5.33752
0.9745	13.797
0.975	4.33044
0.9755	6.2439
0.976	5.23682
0.9765	6.64673
0.977	8.66089
0.9775	0.50354
0.978	6.14319
0.9785	5.43823
0.979	6.74744
0.9795	4.53186
0.98	10.67505
0.9805	11.38
0.981	13.797
0.9815	5.94177
0.982	4.93469
0.9825	10.97717
0.983	3.92761
0.9835	13.797
0.984	10.17151
0.9845	6.74744
0.985	10.77576
0.9855	7.5531
0.986	8.96301
0.9865	9.56726
0.987	10.67505
0.9875	12.89062
0.988	10.37292
0.9885	8.96301
0.989	7.65381
0.9895	4.12903
0.99	2.71912
0.9905	1.91345
0.991	6.04248
0.9915	5.43823
0.992	4.83398
0.9925	2.71912
0.993	7.15027
0.9935	6.64673
0.994	3.8269
0.9945	9.06372
0.995	4.73328
0.9955	4.02832
0.996	6.84814
0.9965	10.17151
0.997	9.46655
0.9975	8.7616
0.998	9.26514
0.9985	9.26514
0.999	8.7616
0.9995	9.66797
1	8.96301
1.0005	8.05664
1.001	2.71912
1.0015	7.35168
1.002	7.35168
1.0025	4.12903
1.003	9.56726
1.0035	5.84106
1.004	4.63257
1.0045	3.22266
1.005	7.25098
1.0055	10.37292
1.006	4.73328
1.0065	7.75452
1.007	11.48071
1.0075	6.14319
1.008	3.32336
1.0085	3.02124
1.009	5.0354
1.0095	6.74744
1.01	9.16443
1.0105	7.65381
1.011	7.5531
1.0115	7.45239
1.012	3.12195
1.0125	3.42407
1.013	2.11487
1.0135	2.92053
1.014	5.43823
1.0145	2.21558
1.015	7.15027
1.0155	2.31628
1.016	3.22266
1.0165	5.13611
1.017	3.22266
1.0175	2.71912
1.018	9.97009
1.0185	6.3446
1.019	3.62549
1.0195	3.62549
1.02	7.5531
1.0205	5.74036
1.021	0.70496
1.0215	6.14319
1.022	7.25098
1.0225	2.11487
1.023	2.01416
1.0235	1.81274
1.024	3.52478
1.0245	5.43823
1.025	6.74744
1.0255	6.04248
1.026	6.64673
1.0265	6.3446
1.027	6.94885
1.0275	9.26514
1.028	7.5531
1.0285	3.32336
1.029	8.56018
1.0295	11.17859
1.03	11.68213
1.0305	8.25806
1.031	9.66797
1.0315	6.3446
1.032	4.53186
1.0325	1.2085
1.033	-2.61841
1.0335	0.20142
1.034	2.31628
1.0345	4.53186
1.035	4.73328
1.0355	1.40991
1.036	1.2085
1.0365	5.53894
1.037	4.12903
1.0375	3.42407
1.038	1.51062
1.0385	1.2085
1.039	-0.80566
1.0395	4.12903
1.04	5.0354
1.0405	6.3446
1.041	1.10779
1.0415	2.71912
1.042	6.64673
1.0425	3.52478
1.043	-0.30212
1.0435	1.2085
1.044	-0.70496
1.0445	2.11487
1.045	5.0354
1.0455	12.78992
1.046	6.44531
1.0465	2.11487
1.047	-1.10779
1.0475	2.81982
1.048	0.20142
1.0485	3.42407
1.049	3.62549
1.0495	3.92761
1.05	5.33752
1.0505	5.74036
1.051	5.23682
1.0515	0.20142
1.052	7.04956
1.0525	4.43115
1.053	-1.40991
1.0535	4.63257
1.054	-1.51062
1.0545	4.12903
1.055	-2.31628
1.0555	4.22974
1.056	2.11487
1.0565	0.50354
1.057	1.3092
1.0575	4.33044
1.058	3.22266
1.0585	3.8269
1.059	9.16443
1.0595	4.33044
1.06	5.0354
1.0605	-1.51062
1.061	7.35168
1.0615	3.32336
1.062	1.10779
1.0625	0.40283
1.063	-1.61133
1.0635	-0.90637
1.064	3.62549
1.0645	-1.3092
1.065	5.84106
1.0655	2.5177
1.066	5.74036
1.0665	-0.90637
1.067	1.10779
1.0675	4.53186
1.068	2.5177
1.0685	-1.10779
1.069	1.91345
1.0695	4.33044
1.07	1.91345
1.0705	2.21558
1.071	-0.30212
1.0715	1.2085
1.072	4.83398
1.0725	0.40283
1.073	3.52478
1.0735	-1.40991
1.074	4.02832
1.0745	1.71204
1.075	7.04956
1.0755	8.15735
1.076	1.71204
1.0765	-1.40991
1.077	2.31628
1.0775	3.52478
1.078	3.32336
1.0785	3.92761
1.079	2.31628
1.0795	7.65381
1.08	7.65381
1.0805	-3.62549
1.081	-0.80566
1.0815	3.12195
1.082	3.22266
1.0825	0.10071
1.083	3.92761
1.0835	4.73328
1.084	5.84106
1.0845	1.2085
1.085	0.40283
1.0855	-0.30212
1.086	0.90637
1.0865	2.11487
1.087	6.2439
1.0875	6.3446
1.088	10.47363
1.0885	3.02124
1.089	5.0354
1.0895	3.22266
1.09	11.07788
1.0905	7.45239
1.091	8.8623
1.0915	5.74036
1.092	5.33752
1.0925	6.74744
1.093	9.76868
1.0935	12.28638
1.094	7.04956
1.0945	5.74036
1.095	4.33044
1.0955	4.83398
1.096	6.04248
1.0965	7.95593
1.097	7.45239
1.0975	8.15735
1.098	4.63257
1.0985	6.14319
1.099	5.43823
1.0995	6.84814
1.1	8.7616
1.1005	8.05664
1.101	8.05664
1.1015	5.94177
1.102	6.44531
1.1025	12.18567
1.103	9.36584
1.1035	6.44531
1.104	11.2793
1.1045	9.06372
1.105	9.16443
1.1055	10.47363
1.106	6.04248
1.1065	5.63965
1.107	13.69629
1.1075	6.94885
1.108	4.73328
1.1085	6.94885
1.109	7.45239
1.1095	8.66089
1.11	8.56018
1.1105	8.35876
1.111	5.53894
1.1115	3.02124
1.112	10.87646
1.1125	6.2439
1.113	8.7616
1.1135	8.96301
1.114	12.5885
1.1145	9.86938
1.115	12.68921
1.1155	6.64673
1.116	4.02832
1.1165	4.73328
1.117	4.93469
1.1175	7.95593
1.118	15.60974
1.1185	12.68921
1.119	4.43115
1.1195	4.63257
1.12	4.83398
1.1205	3.22266
1.121	4.73328
1.1215	3.42407
1.122	5.13611
1.1225	4.43115
1.123	5.33752
1.1235	6.94885
1.124	-0.80566
1.1245	2.92053
1.125	6.84814
1.1255	3.52478
1.126	4.33044
1.1265	9.06372
1.127	2.41699
1.1275	1.71204
1.128	2.11487
1.1285	8.05664
1.129	4.12903
1.1295	4.83398
1.13	3.22266
1.1305	3.8269
1.131	1.3092
1.1315	6.94885
1.132	1.81274
1.1325	3.12195
1.133	10.17151
1.1335	5.74036
1.134	6.54602
1.1345	8.15735
1.135	7.15027
1.1355	8.56018
1.136	3.8269
1.1365	3.92761
1.137	12.18567
1.1375	6.54602
1.138	5.74036
1.1385	12.28638
1.139	11.48071
1.1395	7.5531
1.14	7.5531
1.1405	6.64673
1.141	9.06372
1.1415	7.95593
1.142	10.27222
1.1425	6.14319
1.143	2.71912
1.1435	4.63257
1.144	8.66089
1.1445	13.99841
1.145	9.97009
1.1455	8.66089
1.146	9.26514
1.1465	10.87646
1.147	0.70496
1.1475	5.74036
1.148	15.1062
1.1485	4.22974
1.149	5.43823
1.1495	3.12195
1.15	5.23682
1.1505	11.48071
1.151	4.83398
1.1515	8.56018
1.152	11.58142
1.1525	6.94885
1.153	7.35168
1.1535	7.15027
1.154	12.68921
1.1545	8.96301
1.155	6.44531
1.1555	9.06372
1.156	8.56018
1.1565	7.65381
1.157	9.06372
1.1575	8.45947
1.158	6.74744
1.1585	1.51062
1.159	9.86938
1.1595	10.67505
1.16	5.0354
1.1605	6.54602
1.161	9.86938
1.1615	8.7616
1.162	5.23682
1.1625	4.12903
1.163	6.3446
1.1635	2.61841
1.164	5.84106
1.1645	7.65381
1.165	9.76868
1.1655	9.16443
1.166	6.64673
1.1665	8.45947
1.167	10.97717
1.1675	10.37292
1.168	7.35168
1.1685	6.14319
1.169	9.16443
1.1695	6.84814
1.17	12.08496
1.1705	9.46655
1.171	8.96301
1.1715	6.04248
1.172	9.56726
1.1725	14.09912
1.173	12.68921
1.1735	15.1062
1.174	14.19983
1.1745	9.97009
1.175	6.04248
1.1755	11.88354
1.176	12.38708
1.1765	13.29346
1.177	9.46655
1.1775	14.90479
1.178	10.97717
1.1785	16.01257
1.179	11.2793
1.1795	9.16443
1.18	9.16443
1.1805	12.89062
1.181	11.98425
1.1815	11.68213
1.182	13.49487
1.1825	11.88354
1.183	13.09204
1.1835	18.63098
1.184	17.22107
1.1845	15.50903
1.185	15.60974
1.1855	11.2793
1.186	9.76868
1.1865	13.89771
1.187	11.17859
1.1875	13.29346
1.188	12.5885
1.1885	12.18567
1.189	7.65381
1.1895	10.77576
1.19	12.78992
1.1905	7.95593
1.191	11.78284
1.1915	10.37292
1.192	9.66797
1.1925	6.44531
1.193	8.45947
1.1935	7.65381
1.194	7.95593
1.1945	6.94885
1.195	6.2439
1.1955	1.10779
1.196	11.2793
1.1965	6.74744
1.197	5.43823
1.1975	5.53894
1.198	3.7262
1.1985	4.83398
1.199	4.83398
1.1995	1.3092
1.2	1.3092
1.2005	0
1.201	6.84814
1.2015	4.93469
1.202	-1.40991
1.2025	-2.31628
1.203	-2.21558
1.2035	0.20142
1.204	-1.40991
1.2045	-1.51062
1.205	-1.10779
1.2055	3.52478
1.206	-0.80566
1.2065	-3.62549
1.207	-7.04956
1.2075	-7.04956
1.208	-5.84106
1.2085	-4.93469
1.209	0.30212
1.2095	-1.51062
1.21	-7.75452
1.2105	-0.60425
1.211	-3.32336
1.2115	0.80566
1.212	4.53186
1.2125	-1.40991
1.213	-1.00708
1.2135	1.61133
1.214	-0.80566
1.2145	5.63965
1.215	3.52478
1.2155	4.22974
1.216	1.40991
1.2165	3.02124
1.217	2.81982
1.2175	4.53186
1.218	4.73328
1.2185	6.64673
1.219	5.84106
1.2195	7.35168
1.22	3.02124
1.2205	11.07788
1.221	7.35168
1.2215	4.73328
1.222	5.63965
1.2225	7.95593
1.223	5.53894
1.2235	2.81982
1.224	2.01416
1.2245	6.2439
1.225	5.84106
1.2255	7.04956
1.226	6.2439
1.2265	7.15027
1.227	5.94177
1.2275	5.0354
1.228	6.3446
1.2285	8.05664
1.229	9.26514
1.2295	12.28638
1.23	9.97009
1.2305	7.35168
1.231	8.35876
1.2315	12.78992
1.232	8.56018
1.2325	6.3446
1.233	6.44531
1.2335	4.83398
1.234	10.17151
1.2345	10.67505
1.235	8.66089
1.2355	11.58142
1.236	12.18567
1.2365	16.71753
1.237	9.97009
1.2375	7.15027
1.238	10.17151
1.2385	12.08496
1.239	9.66797
1.2395	9.26514
1.24	9.86938
1.2405	3.7262
1.241	5.43823
1.2415	6.64673
1.242	12.99133
1.2425	9.46655
1.243	8.15735
1.2435	8.35876
1.244	10.57434
1.2445	6.44531
1.245	10.27222
1.2455	11.38
1.246	7.75452
1.2465	10.27222
1.247	15.00549
1.2475	8.45947
1.248	5.43823
1.2485	10.97717
1.249	11.17859
1.2495	10.87646
1.25	11.38
1.2505	16.01257
1.251	6.94885
1.2515	9.97009
1.252	7.65381
1.2525	6.3446
1.253	7.15027
1.2535	9.46655
1.254	10.67505
1.2545	11.2793
1.255	8.7616
1.2555	9.97009
1.256	8.05664
1.2565	10.97717
1.257	8.25806
1.2575	3.92761
1.258	10.87646
1.2585	11.98425
1.259	10.67505
1.2595	7.04956
1.26	8.35876
1.2605	6.44531
1.261	4.22974
1.2615	4.93469
1.262	1.81274
1.2625	7.45239
1.263	12.68921
1.2635	5.94177
1.264	2.11487
1.2645	9.97009
1.265	8.35876
1.2655	2.5177
1.266	7.65381
1.2665	4.33044
1.267	6.14319
1.2675	5.43823
1.268	2.31628
1.2685	0.60425
1.269	3.12195
1.2695	-1.2085
1.27	0.20142
1.2705	3.92761
1.271	7.45239
1.2715	3.02124
1.272	4.33044
1.2725	2.11487
1.273	11.2793
1.2735	5.33752
1.274	3.32336
1.2745	8.35876
1.275	2.92053
1.2755	3.12195
1.276	5.63965
1.2765	5.13611
1.277	3.02124
1.2775	4.93469
1.278	7.15027
1.2785	5.63965
1.279	5.94177
1.2795	8.15735
1.28	4.83398
1.2805	7.85522
1.281	7.95593
1.2815	5.33752
1.282	9.76868
1.2825	11.17859
1.283	8.35876
1.2835	7.15027
1.284	6.2439
1.2845	7.04956
1.285	8.66089
1.2855	6.14319
1.286	9.76868
1.2865	4.33044
1.287	6.14319
1.2875	7.15027
1.288	3.7262
1.2885	5.84106
1.289	3.92761
1.2895	3.8269
1.29	4.73328
1.2905	2.41699
1.291	0.40283
1.2915	7.35168
1.292	4.02832
1.2925	-1.3092
1.293	2.21558
1.2935	-1.2085
1.294	6.14319
1.2945	6.54602
1.295	5.53894
1.2955	5.13611
1.296	6.44531
1.2965	1.10779
1.297	0.60425
1.2975	1.61133
1.298	3.52478
1.2985	6.54602
1.299	7.95593
1.2995	5.0354
1.3	6.84814
1.3005	7.15027
1.301	5.84106
1.3015	6.74744
1.302	1.10779
1.3025	2.21558
1.303	8.96301
1.3035	3.22266
1.304	1.61133
1.3045	8.15735
1.305	7.35168
1.3055	6.44531
1.306	8.56018
1.3065	5.53894
1.307	10.47363
1.3075	9.66797
1.308	4.93469
1.3085	-1.40991
1.309	2.11487
1.3095	3.7262
1.31	6.74744
1.3105	2.41699
1.311	8.7616
1.3115	7.75452
1.312	4.83398
1.3125	6.3446
1.313	9.16443
1.3135	9.16443
1.314	12.89062
1.3145	8.7616
1.315	4.53186
1.3155	3.8269
1.316	3.32336
1.3165	4.02832
1.317	9.06372
1.3175	1.2085
1.318	5.53894
1.3185	2.81982
1.319	-1.10779
1.3195	1.71204
1.32	5.74036
1.3205	5.0354
1.321	6.14319
1.3215	7.15027
1.322	10.27222
1.3225	4.33044
1.323	-1.61133
1.3235	2.81982
1.324	0.80566
1.3245	2.31628
1.325	4.83398
1.3255	5.63965
1.326	6.84814
1.3265	0.80566
1.327	-0.20142
1.3275	2.92053
1.328	-3.32336
1.3285	9.26514
1.329	-1.00708
1.3295	2.61841
1.33	6.54602
1.3305	-0.40283
1.331	2.01416
1.3315	-0.90637
1.332	7.35168
1.3325	5.94177
1.333	-5.13611
1.3335	-1.91345
1.334	1.61133
1.3345	3.8269
1.335	2.61841
1.3355	1.3092
1.336	2.41699
1.3365	5.33752
1.337	1.81274
1.3375	-0.60425
1.338	5.53894
1.3385	10.17151
1.339	4.73328
1.3395	-0.50354
1.34	2.5177
1.3405	1.51062
1.341	3.62549
1.3415	2.81982
1.342	-1.91345
1.3425	0.60425
1.343	9.66797
1.3435	2.71912
1.344	5.74036
1.3445	7.75452
1.345	8.25806
1.3455	8.8623
1.346	4.33044
1.3465	6.84814
1.347	6.74744
1.3475	5.13611
1.348	0.10071
1.3485	6.64673
1.349	7.95593
1.3495	4.22974
1.35	5.23682
1.3505	3.52478
1.351	-1.00708
1.3515	1.2085
1.352	0.90637
1.3525	2.92053
1.353	2.5177
1.3535	3.42407
1.354	6.44531
1.3545	5.13611
1.355	4.02832
1.3555	7.35168
1.356	6.04248
1.3565	5.94177
1.357	0.90637
1.3575	-1.40991
1.358	0.30212
1.3585	5.33752
1.359	3.7262
1.3595	5.53894
1.36	0.60425
1.3605	-2.21558
1.361	3.02124
1.3615	4.12903
1.362	2.61841
1.3625	0.40283
1.363	1.10779
1.3635	3.62549
1.364	6.2439
1.3645	6.2439
1.365	2.31628
1.3655	1.3092
1.366	3.62549
1.3665	4.83398
1.367	3.42407
1.3675	6.84814
1.368	10.37292
1.3685	7.95593
1.369	2.71912
1.3695	5.33752
1.37	6.74744
1.3705	7.85522
1.371	4.63257
1.3715	3.52478
1.372	-1.71204
1.3725	1.10779
1.373	5.94177
1.3735	3.7262
1.374	5.63965
1.3745	-1.00708
1.375	4.73328
1.3755	6.2439
1.376	1.71204
1.3765	5.63965
1.377	4.93469
1.3775	2.21558
1.378	4.12903
1.3785	3.7262
1.379	2.31628
1.3795	4.73328
1.38	3.12195
1.3805	5.13611
1.381	3.92761
1.3815	7.95593
1.382	5.0354
1.3825	8.45947
1.383	4.22974
1.3835	5.13611
1.384	4.43115
1.3845	4.33044
1.385	3.22266
1.3855	4.73328
1.386	6.74744
1.3865	4.73328
1.387	6.44531
1.3875	1.2085
1.388	6.94885
1.3885	6.74744
1.389	-0.90637
1.3895	2.92053
1.39	7.95593
1.3905	7.5531
1.391	5.53894
1.3915	0.70496
1.392	5.23682
1.3925	5.33752
1.393	10.37292
1.3935	8.8623
1.394	5.94177
1.3945	1.81274
1.395	3.32336
1.3955	8.66089
1.396	6.74744
1.3965	9.86938
1.397	6.14319
1.3975	4.43115
1.398	8.66089
1.3985	10.77576
1.399	12.78992
1.3995	11.17859
1.4	5.23682
1.4005	5.43823
1.401	4.33044
1.4015	9.26514
1.402	2.01416
1.4025	7.04956
1.403	9.66797
1.4035	9.06372
1.404	6.74744
1.4045	8.56018
1.405	7.45239
1.4055	6.94885
1.406	11.07788
1.4065	8.15735
1.407	9.16443
1.4075	16.3147
1.408	9.16443
1.4085	7.75452
1.409	8.25806
1.4095	7.25098
1.41	11.07788
1.4105	17.92603
1.411	12.18567
1.4115	7.15027
1.412	7.85522
1.4125	6.84814
1.413	10.67505
1.4135	9.06372
1.414	7.95593
1.4145	8.15735
1.415	8.96301
1.4155	13.39417
1.416	10.97717
1.4165	8.56018
1.417	7.25098
1.4175	7.15027
1.418	7.5531
1.4185	5.13611
1.419	11.98425
1.4195	11.17859
1.42	5.23682
1.4205	11.17859
1.421	8.35876
1.4215	10.0708
1.422	9.46655
1.4225	6.54602
1.423	6.2439
1.4235	5.63965
1.424	7.65381
1.4245	6.2439
1.425	10.87646
1.4255	7.65381
1.426	6.14319
1.4265	3.62549
1.427	-0.10071
1.4275	-0.60425
1.428	4.63257
1.4285	4.63257
1.429	4.83398
1.4295	4.93469
1.43	9.46655
1.4305	9.66797
1.431	6.54602
1.4315	5.84106
1.432	7.04956
1.4325	11.38
1.433	11.78284
1.4335	12.5885
1.434	10.17151
1.4345	4.02832
1.435	8.66089
1.4355	9.46655
1.436	9.16443
1.4365	8.35876
1.437	9.06372
1.4375	5.53894
1.438	8.56018
1.4385	4.83398
1.439	6.04248
1.4395	16.01257
1.44	12.99133
1.4405	10.17151
1.441	8.56018
1.4415	10.47363
1.442	9.86938
1.4425	9.16443
1.443	9.36584
1.4435	12.89062
1.444	13.19275
1.4445	17.92603
1.445	20.44373
1.4455	27.29187
1.446	26.58691
1.4465	20.64514
1.447	25.98267
1.4475	21.85364
1.448	24.16992
1.4485	21.24939
1.449	27.49329
1.4495	41.59241
1.45	49.74976
1.4505	53.47595
1.451	54.28162
1.4515	48.54126
1.452	42.7002
1.4525	29.60815
1.453	15.71045
1.4535	9.76868
1.454	5.53894
1.4545	3.02124
1.455	9.36584
1.4555	4.02832
1.456	4.83398
1.4565	9.76868
1.457	8.35876
1.4575	5.74036
1.458	8.15735
1.4585	4.33044
1.459	-2.92053
1.4595	-2.41699
1.46	-4.63257
1.4605	-7.95593
1.461	-12.08496
1.4615	-11.58142
1.462	-19.03381
1.4625	-17.72461
1.463	-22.35718
1.4635	-24.06921
1.464	-20.04089
1.4645	-18.8324
1.465	-17.22107
1.4655	-19.13452
1.466	-21.3501
1.4665	-24.47205
1.467	-20.64514
1.4675	-0.90637
1.468	27.29187
1.4685	71.50269
1.469	101.01013
1.4695	114.20288
1.47	117.82837
1.4705	108.76465
1.471	91.34216
1.4715	78.25012
1.472	74.92676
1.4725	66.46729
1.473	54.98657
1.4735	51.46179
1.474	43.10303
1.4745	29.50745
1.475	12.08496
1.4755	-1.71204
1.476	-13.39417
1.4765	-23.36426
1.477	-33.33435
1.4775	-47.53418
1.478	-58.10852
1.4785	-66.26587
1.479	-58.00781
1.4795	-61.93542
1.48	-54.28162
1.4805	-55.59082
1.481	-50.354
1.4815	-45.3186
1.482	-38.57117
1.4825	-31.01807
1.483	-41.08887
1.4835	-40.98816
1.484	-37.26196
1.4845	-43.40515
1.485	-50.45471
1.4855	-52.97241
1.486	-46.72852
1.4865	-42.90161
1.487	-39.07471
1.4875	-29.10461
1.488	-16.71753
1.4885	-2.21558
1.489	14.30054
1.4895	31.01807
1.49	49.34692
1.4905	56.39648
1.491	60.4248
1.4915	56.29578
1.492	50.65613
1.4925	59.41772
1.493	79.35791
1.4935	89.52942
1.494	103.93066
1.4945	149.04785
1.495	178.45459
1.4955	177.04468
1.496	158.21228
1.4965	122.76306
1.497	121.65527
1.4975	135.04944
1.498	125.48218
1.4985	125.48218
1.499	108.26111
1.4995	69.58923
1.5	35.34851
1.5005	0.70496
1.501	-29.30603
1.5015	-58.30994
1.502	-72.40906
1.5025	-92.95349
1.503	-107.35474
1.5035	-121.05103
1.504	-135.35156
1.5045	-136.35864
1.505	-147.83936
1.5055	-141.09192
1.506	-143.71033
1.5065	-146.63086
1.507	-142.30042
1.5075	-131.62537
1.508	-124.77722
1.5085	-127.99988
1.509	-118.2312
1.5095	-102.42004
1.51	-85.80322
1.5105	-78.04871
1.511	-60.62622
1.5115	-51.86462
1.512	-44.61365
1.5125	-20.64514
1.513	-8.45947
1.5135	-7.65381
1.514	-0.10071
1.5145	8.15735
1.515	8.35876
1.5155	9.97009
1.516	14.90479
1.5165	29.40674
1.517	52.56958
1.5175	61.12976
1.518	63.14392
1.5185	57.8064
1.519	57.00073
1.5195	52.46887
1.52	41.99524
1.5205	38.06763
1.521	31.82373
1.5215	23.66638
1.522	20.94727
1.5225	12.18567
1.523	8.25806
1.5235	1.40991
1.524	-6.2439
1.5245	-0.90637
1.525	-8.45947
1.5255	3.22266
1.526	13.19275
1.5265	20.84656
1.527	27.29187
1.5275	49.74976
1.528	76.23596
1.5285	107.95898
1.529	124.97864
1.5295	130.71899
1.53	129.61121
1.5305	123.46802
1.531	106.24695
1.5315	107.15332
1.532	117.82837
1.5325	132.73315
1.533	137.36572
1.5335	119.74182
1.534	97.88818
1.5345	65.86304
1.535	40.98816
1.5355	13.59558
1.536	0.80566
1.5365	-9.66797
1.537	-28.39966
1.5375	-53.17383
1.538	-75.53101
1.5385	-89.328
1.539	-95.5719
1.5395	-69.1864
1.54	-52.46887
1.5405	-37.56409
1.541	-36.4563
1.5415	-34.14001
1.542	-41.4917
1.5425	-47.8363
1.543	-41.39099
1.5435	-37.7655
1.544	-30.41382
1.5445	-12.48779
1.545	9.97009
1.5455	30.41382
1.546	80.16357
1.5465	98.49243
1.547	102.82288
1.5475	91.54358
1.548	69.58923
1.5485	26.98975
1.549	2.01416
1.5495	-32.83081
1.55	-55.79224
1.5505	-81.57349
1.551	-90.83862
1.5515	-103.42712
1.552	-118.02979
1.5525	-129.10767
1.553	-109.87244
1.5535	-96.57898
1.554	-80.96924
1.5545	-77.64587
1.555	-66.97083
1.5555	-57.30286
1.556	-44.31152
1.5565	-33.43506
1.557	-17.6239
1.5575	22.55859
1.558	53.27454
1.5585	78.45154
1.559	87.91809
1.5595	74.62463
1.56	52.67029
1.5605	29.20532
1.561	12.38708
1.5615	0.40283
1.562	-11.58142
1.5625	-24.87488
1.563	-30.61523
1.5635	-30.11169
1.564	-28.9032
1.5645	-29.20532
1.565	-35.85205
1.5655	-31.01807
1.566	-34.74426
1.5665	-27.29187
1.567	-25.88196
1.5675	-26.48621
1.568	-29.91028
1.5685	-31.72302
1.569	-28.09753
1.5695	-19.23523
1.57	-8.05664
1.5705	-2.11487
1.571	2.11487
1.5715	16.01257
1.572	21.45081
1.5725	19.53735
1.573	20.04089
1.5735	20.64514
1.574	13.89771
1.5745	18.93311
1.575	31.21948
1.5755	43.40515
1.576	46.12427
1.5765	49.34692
1.577	43.90869
1.5775	36.85913
1.578	35.44922
1.5785	36.15417
1.579	32.12585
1.5795	33.63647
1.58	26.78833
1.5805	27.49329
1.581	22.25647
1.5815	21.55151
1.582	19.13452
1.5825	17.01965
1.583	15.40833
1.5835	1.40991
1.584	-2.01416
1.5845	-9.66797
1.585	-15.00549
1.5855	-22.05505
1.586	-22.6593
1.5865	-19.23523
1.587	-14.60266
1.5875	-16.71753
1.588	-15.1062
1.5885	-8.96301
1.589	-1.10779
1.5895	5.53894
1.59	6.74744
1.5905	16.51611
1.591	11.98425
1.5915	10.17151
1.592	11.07788
1.5925	10.57434
1.593	7.95593
1.5935	28.9032
1.594	44.71436
1.5945	66.76941
1.595	77.44446
1.5955	80.56641
1.596	69.1864
1.5965	53.27454
1.597	46.72852
1.5975	36.55701
1.598	32.32727
1.5985	24.57275
1.599	16.21399
1.5995	5.0354
1.6	0.50354
1.6005	-5.74036
1.601	-9.97009
1.6015	-12.18567
1.602	-4.83398
1.6025	-12.48779
1.603	-11.48071
1.6035	-5.0354
1.604	-0.80566
1.6045	1.3092
1.605	0.70496
1.6055	-7.25098
1.606	-2.31628
1.6065	-1.51062
1.607	0.60425
1.6075	3.02124
1.608	-2.92053
1.6085	2.01416
1.609	0.90637
1.6095	3.02124
1.61	3.92761
1.6105	4.22974
1.611	0.80566
1.6115	-1.10779
1.612	1.91345
1.6125	-2.92053
1.613	-5.0354
1.6135	-7.25098
1.614	-5.13611
1.6145	-2.92053
1.615	2.21558
1.6155	8.15735
1.616	14.09912
1.6165	17.52319
1.617	14.09912
1.6175	17.72461
1.618	31.62231
1.6185	41.29028
1.619	46.22498
1.6195	48.54126
1.62	71.20056
1.6205	110.37598
1.621	138.3728
1.6215	146.12732
1.622	133.23669
1.6225	104.73633
1.623	80.76782
1.6235	51.36108
1.624	22.25647
1.6245	2.01416
1.625	-11.48071
1.6255	9.26514
1.626	33.9386
1.6265	46.02356
1.627	57.60498
1.6275	54.38232
1.628	41.29028
1.6285	17.32178
1.629	-1.3092
1.6295	-22.35718
1.63	-35.54993
1.6305	-51.96533
1.631	-62.13684
1.6315	-64.85596
1.632	-74.42322
1.6325	-74.2218
1.633	-80.36499
1.6335	-89.63013
1.634	-100.50659
1.6345	-100.50659
1.635	-106.34766
1.6355	-103.72925
1.636	-94.86694
1.6365	-76.63879
1.637	-57.60498
1.6375	-34.74426
1.638	-17.42249
1.6385	-10.47363
1.639	0.40283
1.6395	10.57434
1.64	5.63965
1.6405	4.53186
1.641	5.0354
1.6415	9.46655
1.642	7.15027
1.6425	10.57434
1.643	18.32886
1.6435	18.02673
1.644	18.42957
1.6445	27.29187
1.645	34.34143
1.6455	34.14001
1.646	36.25488
1.6465	30.61523
1.647	28.29895
1.6475	31.72302
1.648	35.44922
1.6485	28.29895
1.649	30.01099
1.6495	27.89612
1.65	26.18408
1.6505	20.64514
1.651	18.42957
1.6515	14.70337
1.652	9.46655
1.6525	8.45947
1.653	9.46655
1.6535	9.76868
1.654	8.56018
1.6545	5.84106
1.655	5.33752
1.6555	3.62549
1.656	0.80566
1.6565	-7.35168
1.657	-7.15027
1.6575	1.00708
1.658	5.84106
1.6585	12.89062
1.659	13.797
1.6595	20.34302
1.66	20.44373
1.6605	21.85364
1.661	15.91187
1.6615	1.81274
1.662	-2.21558
1.6625	-6.2439
1.663	0.80566
1.6635	-2.11487
1.664	-2.41699
1.6645	1.51062
1.665	1.00708
1.6655	-1.40991
1.666	-1.61133
1.6665	5.94177
1.667	0.20142
1.6675	-1.51062
1.668	4.53186
1.6685	3.8269
1.669	23.76709
1.6695	28.60107
1.67	36.85913
1.6705	38.57117
1.671	40.98816
1.6715	34.14001
1.672	29.60815
1.6725	29.00391
1.673	20.94727
1.6735	16.91895
1.674	24.37134
1.6745	36.75842
1.675	49.14551
1.6755	51.86462
1.676	55.59082
1.6765	44.51294
1.677	29.60815
1.6775	23.56567
1.678	10.57434
1.6785	0.50354
1.679	-0.30212
1.6795	-7.75452
1.68	-8.66089
1.6805	-8.35876
1.681	-10.87646
1.6815	-14.30054
1.682	-11.78284
1.6825	-17.01965
1.683	-21.55151
1.6835	-26.18408
1.684	-27.6947
1.6845	-30.61523
1.685	-29.00391
1.6855	-15.20691
1.686	-5.84106
1.6865	0.70496
1.687	4.02832
1.6875	17.32178
1.688	39.57825
1.6885	63.44604
1.689	70.99915
1.6895	61.93542
1.69	50.55542
1.6905	38.26904
1.691	28.19824
1.6915	33.13293
1.692	44.41223
1.6925	40.1825
1.693	33.13293
1.6935	26.08337
1.694	12.68921
1.6945	-7.45239
1.695	-20.04089
1.6955	-30.51453
1.696	-33.13293
1.6965	-38.67188
1.697	-45.82214
1.6975	-47.63489
1.698	-49.95117
1.6985	-40.88745
1.699	-24.87488
1.6995	-11.98425
1.7	-0.30212
1.7005	1.40991
1.701	-4.12903
1.7015	-8.45947
1.702	-11.98425
1.7025	-7.75452
1.703	3.42407
1.7035	8.66089
1.704	20.1416
1.7045	30.41382
1.705	26.18408
1.7055	27.19116
1.706	26.3855
1.7065	29.40674
1.707	38.16833
1.7075	35.75134
1.708	35.2478
1.7085	33.43506
1.709	24.97559
1.7095	18.53027
1.71	14.50195
1.7105	17.72461
1.711	20.04089
1.7115	9.16443
1.712	15.40833
1.7125	14.30054
1.713	16.81824
1.7135	16.3147
1.714	5.0354
1.7145	-7.35168
1.715	-19.63806
1.7155	-26.48621
1.716	-32.7301
1.7165	-32.7301
1.717	-34.14001
1.7175	-28.09753
1.718	-26.58691
1.7185	-26.18408
1.719	-34.94568
1.7195	-33.13293
1.72	-21.55151
1.7205	1.61133
1.721	22.15576
1.7215	55.3894
1.722	74.02039
1.7225	67.07153
1.723	64.45312
1.7235	67.8772
1.724	59.92126
1.7245	50.65613
1.725	36.85913
1.7255	29.80957
1.726	9.56726
1.7265	-3.52478
1.727	-15.60974
1.7275	-17.52319
1.728	-23.56567
1.7285	-26.78833
1.729	-34.14001
1.7295	-43.30444
1.73	-41.29028
1.7305	-46.22498
1.731	-46.12427
1.7315	-36.95984
1.732	-28.9032
1.7325	-15.1062
1.733	-15.00549
1.7335	-7.35168
1.734	-9.06372
1.7345	-11.48071
1.735	-12.68921
1.7355	-15.91187
1.736	-7.04956
1.7365	-7.95593
1.737	-11.2793
1.7375	-7.15027
1.738	-5.94177
1.7385	-7.75452
1.739	-6.2439
1.7395	-5.13611
1.74	0.50354
1.7405	0.90637
1.741	3.22266
1.7415	31.01807
1.742	41.08887
1.7425	51.96533
1.743	54.58374
1.7435	43.70728
1.744	38.06763
1.7445	27.99683
1.745	21.04797
1.7455	21.55151
1.746	37.06055
1.7465	36.95984
1.747	47.53418
1.7475	54.58374
1.748	60.4248
1.7485	52.16675
1.749	42.39807
1.7495	22.05505
1.75	-6.74744
1.7505	-29.40674
1.751	-36.55701
1.7515	-36.75842
1.752	-35.54993
1.7525	-45.3186
1.753	-38.77258
1.7535	-29.70886
1.754	-27.59399
1.7545	-23.76709
1.755	-25.98267
1.7555	-21.65222
1.756	-21.95435
1.7565	-21.85364
1.757	-2.61841
1.7575	34.64355
1.758	59.92126
1.7585	76.23596
1.759	83.08411
1.7595	75.53101
1.76	61.33118
1.7605	41.99524
1.761	33.23364
1.7615	36.85913
1.762	29.30603
1.7625	39.17542
1.763	37.36267
1.7635	26.18408
1.764	6.84814
1.7645	-4.12903
1.765	-21.95435
1.7655	-35.44922
1.766	-56.19507
1.7665	-74.52393
1.767	-71.80481
1.7675	-70.69702
1.768	-62.53967
1.7685	-46.12427
1.769	-35.75134
1.7695	-29.70886
1.77	-27.49329
1.7705	-24.47205
1.771	-31.11877
1.7715	-31.21948
1.772	-29.50745
1.7725	-19.43665
1.773	-11.68213
1.7735	-4.12903
1.774	3.02124
1.7745	17.52319
1.775	21.45081
1.7755	22.15576
1.776	18.12744
1.7765	19.73877
1.777	29.80957
1.7775	27.39258
1.778	22.45789
1.7785	21.75293
1.779	11.38
1.7795	4.53186
1.78	-0.30212
1.7805	2.31628
1.781	-5.43823
1.7815	-9.56726
1.782	-5.13611
1.7825	-0.40283
1.783	-3.32336
1.7835	-2.71912
1.784	0.30212
1.7845	0.80566
1.785	6.94885
1.7855	13.19275
1.786	17.82532
1.7865	20.1416
1.787	30.01099
1.7875	26.3855
1.788	28.50037
1.7885	20.1416
1.789	20.84656
1.7895	20.74585
1.79	27.49329
1.7905	31.32019
1.791	45.01648
1.7915	47.63489
1.792	43.10303
1.7925	37.56409
1.793	32.32727
1.7935	21.95435
1.794	21.3501
1.7945	29.20532
1.795	27.39258
1.7955	20.24231
1.796	7.65381
1.7965	-12.5885
1.797	-13.89771
1.7975	-28.19824
1.798	-37.86621
1.7985	-34.44214
1.799	-29.10461
1.7995	-29.60815
1.8	-24.16992
1.8005	-19.43665
1.801	-9.06372
1.8015	7.15027
1.802	14.50195
1.8025	23.36426
1.803	22.25647
1.8035	12.18567
1.804	14.09912
1.8045	9.26514
1.805	8.7616
1.8055	13.797
1.806	15.20691
1.8065	19.53735
1.807	24.97559
1.8075	24.27063
1.808	23.16284
1.8085	16.21399
1.809	13.89771
1.8095	35.2478
1.81	54.0802
1.8105	93.35632
1.811	106.34766
1.8115	105.6427
1.812	87.11243
1.8125	60.4248
1.813	32.52869
1.8135	3.02124
1.814	-27.09045
1.8145	-46.32568
1.815	-64.55383
1.8155	-80.66711
1.816	-88.11951
1.8165	-85.60181
1.817	-90.13367
1.8175	-83.18481
1.818	-76.33667
1.8185	-59.21631
1.819	-50.45471
1.8195	-40.2832
1.82	-23.26355
1.8205	-5.33752
1.821	4.33044
1.8215	14.80408
1.822	18.93311
1.8225	20.94727
1.823	13.29346
1.8235	1.2085
1.824	-7.85522
1.8245	-4.73328
1.825	-3.62549
1.8255	5.23682
1.826	-0.30212
1.8265	1.10779
1.827	2.21558
1.8275	-3.92761
1.828	8.15735
1.8285	6.54602
1.829	9.66797
1.8295	42.7002
1.83	68.88428
1.8305	74.82605
1.831	64.75525
1.8315	56.39648
1.832	35.65063
1.8325	14.50195
1.833	1.00708
1.8335	-12.78992
1.834	-28.80249
1.8345	-44.81506
1.835	-51.76392
1.8355	-43.50586
1.836	-47.63489
1.8365	-45.2179
1.837	-42.8009
1.8375	-35.65063
1.838	-40.68604
1.8385	-38.26904
1.839	-38.974
1.8395	-29.10461
1.84	-12.38708
1.8405	3.12195
1.841	13.59558
1.8415	14.40125
1.842	23.16284
1.8425	23.56567
1.843	17.12036
1.8435	11.78284
1.844	8.7616
1.8445	10.27222
1.845	8.56018
1.8455	11.68213
1.846	5.74036
1.8465	8.56018
1.847	5.53894
1.8475	1.61133
1.848	4.02832
1.8485	1.3092
1.849	5.33752
1.8495	1.71204
1.85	2.11487
1.8505	2.41699
1.851	7.65381
1.8515	5.43823
1.852	4.63257
1.8525	2.01416
1.853	4.63257
1.8535	2.11487
1.854	1.51062
1.8545	-1.10779
1.855	2.01416
1.8555	12.99133
1.856	17.32178
1.8565	15.71045
1.857	12.48779
1.8575	14.19983
1.858	9.97009
1.8585	6.64673
1.859	9.97009
1.8595	16.11328
1.86	17.22107
1.8605	22.6593
1.861	23.8678
1.8615	23.96851
1.862	23.16284
1.8625	28.50037
1.863	28.09753
1.8635	28.39966
1.864	23.46497
1.8645	13.69629
1.865	13.19275
1.8655	8.35876
1.866	2.81982
1.8665	-4.63257
1.867	-6.3446
1.8675	-6.2439
1.868	-6.84814
1.8685	0.90637
1.869	3.7262
1.8695	9.76868
1.87	24.16992
1.8705	31.11877
1.871	35.2478
1.8715	37.56409
1.872	35.04639
1.8725	28.29895
1.873	32.32727
1.8735	39.27612
1.874	49.85046
1.8745	60.72693
1.875	53.27454
1.8755	44.0094
1.876	36.35559
1.8765	54.28162
1.877	86.30676
1.8775	92.65137
1.878	76.23596
1.8785	59.71985
1.879	35.34851
1.8795	30.71594
1.88	15.81116
1.8805	-3.22266
1.881	-31.11877
1.8815	-54.98657
1.882	-79.05579
1.8825	-91.745
1.883	-101.31226
1.8835	-105.6427
1.884	-91.44287
1.8845	-77.14233
1.885	-70.29419
1.8855	-71.40198
1.886	-59.1156
1.8865	-44.51294
1.887	-34.24072
1.8875	-26.3855
1.888	-11.78284
1.8885	3.92761
1.889	12.89062
1.8895	23.76709
1.89	35.95276
1.8905	44.41223
1.891	49.85046
1.8915	50.2533
1.892	44.71436
1.8925	48.13843
1.893	51.96533
1.8935	48.84338
1.894	44.31152
1.8945	44.91577
1.895	36.25488
1.8955	27.99683
1.896	25.88196
1.8965	25.07629
1.897	28.60107
1.8975	16.81824
1.898	6.04248
1.8985	2.21558
1.899	13.49487
1.8995	16.3147
1.9	21.65222
1.9005	11.38
1.901	-0.10071
1.9015	-6.04248
1.902	-18.22815
1.9025	-29.30603
1.903	-38.67188
1.9035	-42.19666
1.904	-47.23206
1.9045	-50.85754
1.905	-41.59241
1.9055	-37.7655
1.906	-36.75842
1.9065	-33.53577
1.907	-33.73718
1.9075	-26.98975
1.908	-9.26514
1.9085	1.71204
1.909	13.49487
1.9095	32.93152
1.91	41.99524
1.9105	48.23914
1.911	36.15417
1.9115	31.52161
1.912	21.85364
1.9125	21.85364
1.913	21.14868
1.9135	13.59558
1.914	3.52478
1.9145	-4.43115
1.915	-6.84814
1.9155	0.50354
1.916	-9.56726
1.9165	-13.89771
1.917	-12.28638
1.9175	-13.39417
1.918	-10.0708
1.9185	-7.65381
1.919	0.80566
1.9195	19.53735
1.92	34.74426
1.9205	42.19666
1.921	42.49878
1.9215	33.13293
1.922	28.50037
1.9225	26.08337
1.923	21.85364
1.9235	20.74585
1.924	18.63098
1.9245	18.63098
1.925	20.94727
1.9255	22.86072
1.926	20.24231
1.9265	16.71753
1.927	14.50195
1.9275	13.09204
1.928	9.86938
1.9285	6.54602
1.929	8.15735
1.9295	1.10779
1.93	-3.32336
1.9305	2.01416
1.931	-0.20142
1.9315	-1.00708
1.932	-5.53894
1.9325	-1.51062
1.933	0.10071
1.9335	-0.30212
1.934	-0.50354
1.9345	4.53186
1.935	0
1.9355	4.63257
1.936	3.62549
1.9365	0.60425
1.937	7.45239
1.9375	-0.10071
1.938	4.63257
1.9385	10.57434
1.939	14.19983
1.9395	23.16284
1.94	25.98267
1.9405	29.30603
1.941	31.4209
1.9415	27.09045
1.942	30.2124
1.9425	39.57825
1.943	35.2478
1.9435	38.36975
1.944	32.02515
1.9445	49.44763
1.945	64.35242
1.9455	67.57507
1.946	60.12268
1.9465	47.03064
1.947	28.80249
1.9475	13.19275
1.948	-7.45239
1.9485	-26.3855
1.949	-37.86621
1.9495	-39.88037
1.95	-40.88745
1.9505	-44.91577
1.951	-39.27612
1.9515	-34.44214
1.952	-30.61523
1.9525	-28.19824
1.953	-39.88037
1.9535	-44.21082
1.954	-43.80798
1.9545	-41.29028
1.955	-36.35559
1.9555	-28.29895
1.956	-20.1416
1.9565	-15.20691
1.957	-12.99133
1.9575	-9.36584
1.958	-4.53186
1.9585	-4.83398
1.959	-4.73328
1.9595	-6.2439
1.96	4.63257
1.9605	9.46655
1.961	21.24939
1.9615	23.06213
1.962	19.53735
1.9625	19.63806
1.963	19.33594
1.9635	30.11169
1.964	36.85913
1.9645	45.01648
1.965	38.77258
1.9655	27.39258
1.966	17.52319
1.9665	13.59558
1.967	4.63257
1.9675	8.05664
1.968	16.01257
1.9685	11.78284
1.969	7.25098
1.9695	4.43115
1.97	3.92761
1.9705	-2.41699
1.971	-0.70496
1.9715	-2.11487
1.972	-3.52478
1.9725	-6.94885
1.973	1.40991
1.9735	24.77417
1.974	40.2832
1.9745	38.87329
1.975	35.2478
1.9755	26.98975
1.976	21.55151
1.9765	19.94019
1.977	0.40283
1.9775	-14.80408
1.978	-18.22815
1.9785	-23.96851
1.979	-28.39966
1.9795	-24.67346
1.98	-26.18408
1.9805	-15.20691
1.981	-5.33752
1.9815	-6.04248
1.982	-5.74036
1.9825	-7.15027
1.983	-2.41699
1.9835	-2.11487
1.984	1.3092
1.9845	13.09204
1.985	29.70886
1.9855	41.29028
1.986	41.99524
1.9865	38.47046
1.987	31.21948
1.9875	25.177
1.988	19.43665
1.9885	20.1416
1.989	19.23523
1.9895	12.18567
1.99	15.30762
1.9905	0.90637
1.991	-5.63965
1.9915	-3.22266
1.992	-8.35876
1.9925	11.68213
1.993	19.94019
1.9935	41.59241
1.994	47.13135
1.9945	47.53418
1.995	41.79382
1.9955	35.54993
1.996	19.03381
1.9965	10.47363
1.997	-8.05664
1.9975	-22.25647
1.998	-29.70886
1.9985	-31.01807
1.999	-30.61523
1.9995	-27.89612
2	-27.6947
2.0005	-31.11877
2.001	-33.33435
2.0015	-29.70886
2.002	-29.20532
2.0025	-18.63098
2.003	-4.93469
2.0035	4.53186
2.004	21.14868
2.0045	30.71594
2.005	25.37842
2.0055	21.04797
2.006	8.96301
2.0065	7.85522
2.007	2.71912
2.0075	5.94177
2.008	10.0708
2.0085	11.98425
2.009	19.73877
2.0095	17.22107
2.01	22.76001
2.0105	26.18408
2.011	25.27771
2.0115	19.23523
2.012	20.44373
2.0125	21.24939
2.013	21.24939
2.0135	19.53735
2.014	15.40833
2.0145	4.83398
2.015	1.2085
2.0155	1.71204
2.016	-2.31628
2.0165	-7.75452
2.017	-9.36584
2.0175	-2.5177
2.018	46.32568
2.0185	85.60181
2.019	89.22729
2.0195	86.50818
2.02	84.19189
2.0205	68.48145
2.021	45.92285
2.0215	27.19116
2.022	6.84814
2.0225	-17.82532
2.023	-33.33435
2.0235	-36.4563
2.024	-41.08887
2.0245	-36.55701
2.025	-38.47046
2.0255	-38.47046
2.026	-45.41931
2.0265	-41.59241
2.027	-46.22498
2.0275	-49.54834
2.028	-40.78674
2.0285	-28.19824
2.029	-22.05505
2.0295	-16.3147
2.03	-15.30762
2.0305	-7.15027
2.031	-8.96301
2.0315	-8.7616
2.032	-11.48071
2.0325	-8.8623
2.033	-3.62549
2.0335	5.43823
2.034	6.14319
2.0345	0.10071
2.035	5.84106
2.0355	1.81274
2.036	4.02832
2.0365	3.52478
2.037	6.74744
2.0375	9.16443
2.038	7.65381
2.0385	15.81116
2.039	18.53027
2.0395	15.71045
2.04	12.5885
2.0405	10.37292
2.041	7.5531
2.0415	2.41699
2.042	5.94177
2.0425	1.40991
2.043	2.31628
2.0435	4.53186
2.044	10.27222
2.0445	12.38708
2.045	12.99133
2.0455	16.81824
2.046	26.58691
2.0465	44.81506
2.047	47.23206
2.0475	44.91577
2.048	46.42639
2.0485	42.7002
2.049	38.77258
2.0495	20.34302
2.05	16.01257
2.0505	11.17859
2.051	1.40991
2.0515	-7.85522
2.052	-1.61133
2.0525	-6.14319
2.053	-11.07788
2.0535	-10.17151
2.054	-23.46497
2.0545	-34.84497
2.055	-38.47046
2.0555	-48.13843
2.056	-49.95117
2.0565	-53.17383
2.057	-44.71436
2.0575	-30.61523
2.058	-23.36426
2.0585	-16.11328
2.059	-12.68921
2.0595	-10.57434
2.06	-12.38708
2.0605	-6.64673
2.061	0.60425
2.0615	29.00391
2.062	114.10217
2.0625	166.97388
2.063	172.61353
2.0635	149.95422
2.064	110.37598
2.0645	63.24463
2.065	16.11328
2.0655	-18.02673
2.066	-49.95117
2.0665	-77.84729
2.067	-93.85986
2.0675	-98.39172
2.068	-96.57898
2.0685	-88.42163
2.069	-89.42871
2.0695	-81.17065
2.07	-79.15649
2.0705	-64.55383
2.071	-51.26038
2.0715	-30.11169
2.072	-4.93469
2.0725	17.82532
2.073	32.32727
2.0735	37.56409
2.074	36.55701
2.0745	33.73718
2.075	15.71045
2.0755	18.53027
2.076	14.19983
2.0765	9.46655
2.077	9.86938
2.0775	8.45947
2.078	16.41541
2.0785	18.12744
2.079	16.61682
2.0795	15.81116
2.08	20.1416
2.0805	21.3501
2.081	18.12744
2.0815	14.90479
2.082	18.12744
2.0825	15.71045
2.083	21.95435
2.0835	15.20691
2.084	15.20691
2.0845	14.40125
2.085	12.18567
2.0855	8.15735
2.086	11.78284
2.0865	5.84106
2.087	7.85522
2.0875	8.96301
2.088	11.58142
2.0885	8.35876
2.089	9.86938
2.0895	10.47363
2.09	14.09912
2.0905	10.47363
2.091	10.87646
2.0915	17.52319
2.092	10.47363
2.0925	8.66089
2.093	9.97009
2.0935	8.8623
2.094	11.88354
2.0945	19.23523
2.095	16.81824
2.0955	21.85364
2.096	19.94019
2.0965	14.80408
2.097	11.48071
2.0975	14.09912
2.098	19.73877
2.0985	16.3147
2.099	17.01965
2.0995	8.66089
2.1	5.84106
2.1005	-0.40283
2.101	-1.40991
2.1015	-9.76868
2.102	-10.67505
2.1025	-12.89062
2.103	-9.16443
2.1035	-3.22266
2.104	-1.40991
2.1045	-0.40283
2.105	8.56018
2.1055	13.39417
2.106	13.59558
2.1065	8.25806
2.107	1.2085
2.1075	4.12903
2.108	13.39417
2.1085	26.68762
2.109	17.6239
2.1095	10.57434
2.11	6.44531
2.1105	-3.8269
2.111	2.92053
2.1115	3.22266
2.112	8.35876
2.1125	4.83398
2.113	10.47363
2.1135	5.13611
2.114	-0.10071
2.1145	4.53186
2.115	0.90637
2.1155	-1.2085
2.116	-3.22266
2.1165	0.20142
2.117	-3.02124
2.1175	1.3092
2.118	0.10071
2.1185	2.11487
2.119	5.53894
2.1195	3.52478
2.12	2.11487
2.1205	-0.30212
2.121	0.50354
2.1215	1.71204
2.122	-1.10779
2.1225	1.3092
2.123	4.53186
2.1235	0.50354
2.124	-3.12195
2.1245	-3.42407
2.125	-9.36584
2.1255	-8.25806
2.126	-5.53894
2.1265	-4.93469
2.127	-1.91345
2.1275	-6.3446
2.128	2.71912
2.1285	-5.74036
2.129	4.12903
2.1295	5.0354
2.13	3.52478
2.1305	3.92761
2.131	5.13611
2.1315	-1.91345
2.132	1.3092
2.1325	8.25806
2.133	41.08887
2.1335	61.93542
2.134	62.74109
2.1345	49.74976
2.135	40.98816
2.1355	25.27771
2.136	11.98425
2.1365	-5.74036
2.137	-6.44531
2.1375	-2.41699
2.138	2.21558
2.1385	19.23523
2.139	32.12585
2.1395	37.56409
2.14	38.06763
2.1405	30.91736
2.141	20.44373
2.1415	7.75452
2.142	-5.13611
2.1425	-14.60266
2.143	-9.06372
2.1435	-6.54602
2.144	2.71912
2.1445	-8.05664
2.145	-22.76001
2.1455	-26.68762
2.146	-34.03931
2.1465	-29.10461
2.147	-34.64355
2.1475	-32.42798
2.148	-30.2124
2.1485	-17.72461
2.149	-4.73328
2.1495	13.19275
2.15	11.68213
2.1505	2.41699
2.151	3.02124
2.1515	-6.2439
2.152	-5.94177
2.1525	-14.19983
2.153	-15.20691
2.1535	-12.18567
2.154	-13.29346
2.1545	-10.17151
2.155	-7.85522
2.1555	-7.85522
2.156	-1.81274
2.1565	6.54602
2.157	7.04956
2.1575	7.5531
2.158	5.0354
2.1585	12.28638
2.159	11.38
2.1595	7.35168
2.16	10.77576
2.1605	7.45239
2.161	32.32727
2.1615	54.18091
2.162	65.96375
2.1625	69.38782
2.163	62.53967
2.1635	51.46179
2.164	38.16833
2.1645	22.05505
2.165	16.21399
2.1655	9.76868
2.166	7.35168
2.1665	-0.80566
2.167	-10.57434
2.1675	-12.28638
2.168	-4.73328
2.1685	-14.19983
2.169	-15.20691
2.1695	-16.41541
2.17	-11.58142
2.1705	-6.54602
2.171	-5.53894
2.1715	-0.70496
2.172	-1.81274
2.1725	1.10779
2.173	0.20142
2.1735	-2.01416
2.174	-7.65381
2.1745	-13.59558
2.175	-9.06372
2.1755	-13.29346
2.176	-7.35168
2.1765	-3.52478
2.177	5.23682
2.1775	2.92053
2.178	8.96301
2.1785	8.8623
2.179	7.35168
2.1795	3.52478
2.18	1.10779
2.1805	2.5177
2.181	6.14319
2.1815	6.74744
2.182	3.42407
2.1825	0.60425
2.183	-1.10779
2.1835	3.22266
2.184	2.61841
2.1845	2.21558
2.185	5.43823
2.1855	1.61133
2.186	7.95593
2.1865	4.22974
2.187	6.04248
2.1875	6.04248
2.188	15.60974
2.1885	19.83948
2.189	27.89612
2.1895	27.39258
2.19	31.01807
2.1905	28.09753
2.191	25.177
2.1915	27.49329
2.192	25.27771
2.1925	20.64514
2.193	15.81116
2.1935	13.19275
2.194	11.48071
2.1945	15.71045
2.195	14.50195
2.1955	12.89062
2.196	16.11328
2.1965	21.04797
2.197	22.76001
2.1975	28.70178
2.198	28.09753
2.1985	25.27771
2.199	25.27771
2.1995	13.69629
2.2	5.0354
2.2005	8.25806
2.201	4.53186
2.2015	8.7616
2.202	12.5885
2.2025	5.63965
2.203	-6.2439
2.2035	-10.47363
2.204	-11.07788
2.2045	-15.71045
2.205	-14.30054
2.2055	-20.24231
2.206	-26.68762
2.2065	-25.07629
2.207	-22.55859
2.2075	-25.78125
2.208	-31.01807
2.2085	-21.65222
2.209	-20.64514
2.2095	-14.90479
2.21	-11.48071
2.2105	-8.96301
2.211	-5.84106
2.2115	-4.83398
2.212	4.83398
2.2125	6.44531
2.213	1.81274
2.2135	10.57434
2.214	44.11011
2.2145	77.84729
2.215	92.55066
2.2155	88.0188
2.216	66.06445
2.2165	53.27454
2.217	36.65771
2.2175	19.23523
2.218	4.83398
2.2185	-19.73877
2.219	-32.12585
2.2195	-33.83789
2.22	-21.75293
2.2205	-22.76001
2.221	-17.12036
2.2215	-3.32336
2.222	7.15027
2.2225	3.7262
2.223	1.2085
2.2235	-7.45239
2.224	-7.85522
2.2245	-6.14319
2.225	5.74036
2.2255	9.97009
2.226	9.16443
2.2265	-6.3446
2.227	-23.16284
2.2275	-36.25488
2.228	-42.19666
2.2285	-46.12427
2.229	-38.87329
2.2295	-31.52161
2.23	-25.27771
2.2305	-28.09753
2.231	-17.6239
2.2315	-12.99133
2.232	-5.13611
2.2325	2.5177
2.233	11.2793
2.2335	20.64514
2.234	12.48779
2.2345	9.36584
2.235	12.89062
2.2355	15.20691
2.236	14.19983
2.2365	13.39417
2.237	17.32178
2.2375	20.54443
2.238	23.26355
2.2385	37.7655
2.239	36.95984
2.2395	34.44214
2.24	41.39099
2.2405	34.74426
2.241	33.53577
2.2415	32.7301
2.242	25.68054
2.2425	24.57275
2.243	20.24231
2.2435	18.8324
2.244	48.54126
2.2445	52.771
2.245	37.16125
2.2455	28.50037
2.246	6.44531
2.2465	-3.42407
2.247	-16.51611
2.2475	-31.11877
2.248	-37.26196
2.2485	-44.0094
2.249	-52.771
2.2495	-52.46887
2.25	-43.40515
2.2505	-39.17542
2.251	-41.89453
2.2515	-38.57117
2.252	-35.44922
2.2525	-9.46655
2.253	12.89062
2.2535	40.08179
2.254	48.64197
2.2545	49.44763
2.255	46.42639
2.2555	36.4563
2.256	38.87329
2.2565	46.02356
2.257	42.59949
2.2575	33.43506
2.258	18.53027
2.2585	11.38
2.259	1.40991
2.2595	-3.7262
2.26	-20.94727
2.2605	-21.75293
2.261	-7.35168
2.2615	-5.23682
2.262	-6.54602
2.2625	8.45947
2.263	47.03064
2.2635	51.66321
2.264	44.31152
2.2645	33.03223
2.265	8.7616
2.2655	-7.85522
2.266	-26.28479
2.2665	-41.29028
2.267	-48.94409
2.2675	-54.88586
2.268	-59.1156
2.2685	-45.82214
2.269	-38.47046
2.2695	-29.00391
2.27	-24.87488
2.2705	-16.3147
2.271	-8.96301
2.2715	-0.60425
2.272	-1.2085
2.2725	3.02124
2.273	9.66797
2.2735	16.11328
2.274	14.09912
2.2745	14.70337
2.275	7.65381
2.2755	8.96301
2.276	4.43115
2.2765	6.44531
2.277	5.13611
2.2775	7.35168
2.278	10.37292
2.2785	13.99841
2.279	10.87646
2.2795	11.17859
2.28	10.27222
2.2805	10.87646
2.281	11.48071
2.2815	10.0708
2.282	7.65381
2.2825	5.13611
2.283	7.65381
2.2835	7.45239
2.284	7.25098
2.2845	6.54602
2.285	9.16443
2.2855	9.97009
2.286	7.95593
2.2865	9.56726
2.287	2.81982
2.2875	0.40283
2.288	5.33752
2.2885	25.68054
2.289	33.63647
2.2895	36.55701
2.29	33.9386
2.2905	36.65771
2.291	24.06921
2.2915	10.57434
2.292	6.64673
2.2925	-2.81982
2.293	-0.70496
2.2935	-1.40991
2.294	1.91345
2.2945	5.33752
2.295	16.21399
2.2955	16.71753
2.296	20.64514
2.2965	23.66638
2.297	23.56567
2.2975	15.60974
2.298	15.91187
2.2985	11.58142
2.299	4.43115
2.2995	6.44531
2.3	9.66797
2.3005	13.09204
2.301	6.14319
2.3015	4.63257
2.302	0.70496
2.3025	6.74744
2.303	15.00549
2.3035	32.83081
2.304	40.58533
2.3045	39.67896
2.305	41.29028
2.3055	30.31311
2.306	17.82532
2.3065	15.20691
2.307	5.23682
2.3075	-9.26514
2.308	-16.3147
2.3085	-11.88354
2.309	-14.70337
2.3095	-5.94177
2.31	-10.47363
2.3105	-19.53735
2.311	-37.06055
2.3115	-48.64197
2.312	-66.36658
2.3125	-70.3949
2.313	-46.32568
2.3135	-30.01099
2.314	-17.6239
2.3145	-19.83948
2.315	-15.30762
2.3155	-17.22107
2.316	-33.43506
2.3165	-42.49878
2.317	-33.43506
2.3175	-29.91028
2.318	-23.56567
2.3185	-17.52319
2.319	-7.65381
2.3195	0.60425
2.32	8.66089
2.3205	7.25098
2.321	8.05664
2.3215	11.88354
2.322	19.43665
2.3225	20.04089
2.323	20.44373
2.3235	19.23523
2.324	25.07629
2.3245	30.51453
2.325	62.13684
2.3255	75.93384
2.326	75.83313
2.3265	61.53259
2.327	47.33276
2.3275	29.40674
2.328	10.17151
2.3285	0.10071
2.329	-20.74585
2.3295	-27.09045
2.33	-34.64355
2.3305	-35.14709
2.331	-21.55151
2.3315	-19.43665
2.332	-19.03381
2.3325	-18.32886
2.333	-10.67505
2.3335	-7.15027
2.334	0
2.3345	6.54602
2.335	10.17151
2.3355	18.73169
2.336	23.96851
2.3365	22.25647
2.337	20.74585
2.3375	19.13452
2.338	17.92603
2.3385	11.88354
2.339	3.02124
2.3395	1.51062
2.34	-0.20142
2.3405	-3.92761
2.341	-8.45947
2.3415	-7.65381
2.342	-4.73328
2.3425	-3.42407
2.343	-4.93469
2.3435	-4.83398
2.344	-1.81274
2.3445	0.70496
2.345	0.90637
2.3455	-2.01416
2.346	2.11487
2.3465	0.50354
2.347	4.02832
2.3475	5.43823
2.348	4.12903
2.3485	3.62549
2.349	12.48779
2.3495	19.73877
2.35	25.37842
2.3505	24.37134
2.351	18.22815
2.3515	22.55859
2.352	26.88904
2.3525	23.16284
2.353	17.01965
2.3535	10.0708
2.354	8.96301
2.3545	6.2439
2.355	7.95593
2.3555	8.15735
2.356	6.2439
2.3565	5.33752
2.357	-2.11487
2.3575	8.15735
2.358	6.84814
2.3585	7.25098
2.359	22.45789
2.3595	46.5271
2.36	52.56958
2.3605	74.32251
2.361	92.75208
2.3615	109.4696
2.362	107.75757
2.3625	89.73083
2.363	68.78357
2.3635	25.47913
2.364	-0.70496
2.3645	-22.25647
2.365	-43.20374
2.3655	-57.30286
2.366	-60.62622
2.3665	-67.8772
2.367	-70.99915
2.3675	-70.69702
2.368	-61.73401
2.3685	-43.10303
2.369	-28.39966
2.3695	-19.33594
2.37	-13.49487
2.3705	-15.00549
2.371	1.40991
2.3715	26.18408
2.372	34.74426
2.3725	38.36975
2.373	35.54993
2.3735	26.98975
2.374	13.19275
2.3745	5.63965
2.375	-1.81274
2.3755	-13.39417
2.376	-20.04089
2.3765	-14.09912
2.377	-11.17859
2.3775	-7.25098
2.378	-5.0354
2.3785	-0.80566
2.379	-2.71912
2.3795	3.92761
2.38	3.7262
2.3805	8.8623
2.381	18.8324
2.3815	28.80249
2.382	32.22656
2.3825	35.75134
2.383	34.84497
2.3835	23.36426
2.384	12.28638
2.3845	4.53186
2.385	2.21558
2.3855	0.30212
2.386	-4.83398
2.3865	-0.30212
2.387	-0.50354
2.3875	0.90637
2.388	-0.70496
2.3885	17.72461
2.389	54.88586
2.3895	65.25879
2.39	55.18799
2.3905	41.39099
2.391	33.13293
2.3915	17.01965
2.392	-1.40991
2.3925	-10.27222
2.393	-21.24939
2.3935	-16.3147
2.394	-9.06372
2.3945	-9.46655
2.395	-7.45239
2.3955	1.3092
2.396	-3.22266
2.3965	-7.65381
2.397	-3.42407
2.3975	-7.25098
2.398	-10.67505
2.3985	-10.57434
2.399	3.02124
2.3995	11.68213
2.4	13.797
2.4005	8.05664
2.401	2.11487
2.4015	-3.12195
2.402	-1.91345
2.4025	-0.90637
2.403	1.51062
2.4035	11.68213
2.404	15.20691
2.4045	19.03381
2.405	22.76001
2.4055	21.65222
2.406	16.01257
2.4065	17.22107
2.407	13.99841
2.4075	10.97717
2.408	4.83398
2.4085	0.60425
2.409	0.40283
2.4095	-1.2085
2.41	-0.20142
2.4105	3.62549
2.411	-3.8269
2.4115	0.80566
2.412	1.91345
2.4125	0.10071
2.413	-1.00708
2.4135	4.73328
2.414	3.62549
2.4145	7.35168
2.415	3.7262
2.4155	-1.2085
2.416	7.25098
2.4165	5.63965
2.417	6.14319
2.4175	3.62549
2.418	9.06372
2.4185	10.0708
2.419	11.2793
2.4195	7.85522
2.42	7.45239
2.4205	6.2439
2.421	7.95593
2.4215	5.33752
2.422	2.5177
2.4225	-0.10071
2.423	2.81982
2.4235	7.95593
2.424	9.66797
2.4245	6.54602
2.425	5.63965
2.4255	6.74744
2.426	8.05664
2.4265	15.91187
2.427	20.84656
2.4275	9.76868
2.428	8.25806
2.4285	4.53186
2.429	2.41699
2.4295	6.54602
2.43	16.81824
2.4305	22.76001
2.431	36.35559
2.4315	39.07471
2.432	38.67188
2.4325	45.41931
2.433	64.35242
2.4335	79.86145
2.434	67.17224
2.4345	57.60498
2.435	44.11011
2.4355	21.95435
2.436	5.74036
2.4365	1.51062
2.437	-17.52319
2.4375	-21.75293
2.438	-23.16284
2.4385	-10.47363
2.439	14.80408
2.4395	23.26355
2.44	24.67346
2.4405	12.5885
2.441	-0.60425
2.4415	-10.17151
2.442	-7.04956
2.4425	-7.25098
2.443	-0.40283
2.4435	1.51062
2.444	-0.40283
2.4445	-7.25098
2.445	-21.3501
2.4455	-35.14709
2.446	-49.44763
2.4465	-53.07312
2.447	-51.86462
2.4475	-25.88196
2.448	-3.7262
2.4485	3.52478
2.449	3.52478
2.4495	8.05664
2.45	0.10071
2.4505	-13.09204
2.451	-29.80957
2.4515	-38.974
2.452	-56.09436
2.4525	-61.83472
2.453	-25.27771
2.4535	5.33752
2.454	30.61523
2.4545	32.93152
2.455	34.34143
2.4555	19.03381
2.456	7.45239
2.4565	-7.45239
2.457	-17.82532
2.4575	-16.81824
2.458	-20.44373
2.4585	-16.01257
2.459	-20.1416
2.4595	-18.63098
2.46	-25.98267
2.4605	-28.29895
2.461	-22.96143
2.4615	-20.74585
2.462	-12.5885
2.4625	-15.40833
2.463	-14.80408
2.4635	-12.5885
2.464	-17.22107
2.4645	-3.8269
2.465	-5.33752
2.4655	5.0354
2.466	18.53027
2.4665	30.51453
2.467	30.31311
2.4675	26.3855
2.468	28.50037
2.4685	28.09753
2.469	28.19824
2.4695	25.37842
2.47	36.25488
2.4705	44.31152
2.471	52.8717
2.4715	55.79224
2.472	46.42639
2.4725	34.54285
2.473	19.03381
2.4735	6.44531
2.474	-11.07788
2.4745	-19.63806
2.475	-23.36426
2.4755	-27.6947
2.476	-41.89453
2.4765	-40.08179
2.477	-34.14001
2.4775	-27.79541
2.478	-20.84656
2.4785	-18.12744
2.479	-15.91187
2.4795	-10.67505
2.48	-11.17859
2.4805	-7.95593
2.481	-0.60425
2.4815	-0.30212
2.482	3.62549
2.4825	10.47363
2.483	17.32178
2.4835	15.50903
2.484	11.88354
2.4845	10.17151
2.485	-1.10779
2.4855	0.50354
2.486	1.61133
2.4865	3.7262
2.487	11.88354
2.4875	18.22815
2.488	16.61682
2.4885	16.3147
2.489	16.81824
2.4895	11.38
2.49	7.75452
2.4905	8.25806
2.491	11.38
2.4915	15.71045
2.492	10.57434
2.4925	16.3147
2.493	16.81824
2.4935	22.55859
2.494	20.04089
2.4945	14.40125
2.495	14.60266
2.4955	14.30054
2.496	17.82532
2.4965	17.42249
2.497	13.59558
2.4975	10.27222
2.498	13.39417
2.4985	15.1062
2.499	20.24231
2.4995	17.6239
2.5	26.48621
2.5005	30.41382
2.501	41.89453
2.5015	81.37207
2.502	105.34058
2.5025	97.48535
2.503	88.22021
2.5035	73.91968
2.504	54.28162
2.5045	28.19824
2.505	7.65381
2.5055	-11.58142
2.506	-18.12744
2.5065	-34.94568
2.507	-39.47754
2.5075	-40.68604
2.508	-52.8717
2.5085	-48.33984
2.509	-31.01807
2.5095	-12.99133
2.51	8.56018
2.5105	45.52002
2.511	62.03613
2.5115	66.87012
2.512	71.50269
2.5125	55.59082
2.513	35.75134
2.5135	10.37292
2.514	-11.78284
2.5145	-31.21948
2.515	-43.40515
2.5155	-42.8009
2.516	-50.354
2.5165	-50.05188
2.517	-53.07312
2.5175	-46.62781
2.518	-22.55859
2.5185	1.40991
2.519	19.83948
2.5195	27.79541
2.52	27.59399
2.5205	25.98267
2.521	27.49329
2.5215	32.32727
2.522	21.14868
2.5225	4.12903
2.523	0.30212
2.5235	4.33044
2.524	8.96301
2.5245	1.91345
2.525	-3.22266
2.5255	-9.56726
2.526	-24.67346
2.5265	-33.9386
2.527	-28.9032
2.5275	-24.47205
2.528	-17.92603
2.5285	-17.42249
2.529	-7.25098
2.5295	0.80566
2.53	5.74036
2.5305	-0.70496
2.531	0.70496
2.5315	9.06372
2.532	2.61841
2.5325	7.25098
2.533	8.66089
2.5335	11.98425
2.534	24.37134
2.5345	32.32727
2.535	37.7655
2.5355	38.16833
2.536	33.83789
2.5365	34.34143
2.537	31.52161
2.5375	30.2124
2.538	33.63647
2.5385	37.46338
2.539	25.37842
2.5395	25.177
2.54	20.94727
2.5405	13.797
2.541	4.63257
2.5415	-3.02124
2.542	-13.29346
2.5425	-8.7616
2.543	-10.57434
2.5435	-1.51062
2.544	0
2.5445	1.10779
2.545	-4.83398
2.5455	-10.57434
2.546	-7.95593
2.5465	-6.94885
2.547	-1.00708
2.5475	-1.81274
2.548	-2.41699
2.5485	14.09912
2.549	42.90161
2.5495	58.10852
2.55	60.82764
2.5505	55.69153
2.551	64.25171
2.5515	91.24146
2.552	100.6073
2.5525	93.0542
2.553	65.25879
2.5535	35.75134
2.554	12.08496
2.5545	-6.44531
2.555	-28.29895
2.5555	-39.67896
2.556	-47.63489
2.5565	-59.21631
2.557	-67.37366
2.5575	-70.89844
2.558	-65.25879
2.5585	-40.2832
2.559	6.14319
2.5595	37.56409
2.56	42.09595
2.5605	41.59241
2.561	26.68762
2.5615	17.72461
2.562	3.32336
2.5625	-6.04248
2.563	-11.98425
2.5635	-17.01965
2.564	-14.90479
2.5645	-13.59558
2.565	-15.71045
2.5655	-11.98425
2.566	-15.00549
2.5665	-8.66089
2.567	-5.94177
2.5675	-3.62549
2.568	-12.48779
2.5685	-15.81116
2.569	-10.0708
2.5695	-4.02832
2.57	-2.5177
2.5705	0.50354
2.571	-0.20142
2.5715	-10.0708
2.572	-14.50195
2.5725	-12.99133
2.573	-6.44531
2.5735	2.41699
2.574	13.59558
2.5745	30.81665
2.575	46.12427
2.5755	51.26038
2.576	49.34692
2.5765	48.13843
2.577	51.36108
2.5775	51.26038
2.578	43.20374
2.5785	53.07312
2.579	63.94958
2.5795	51.26038
2.58	60.3241
2.5805	73.61755
2.581	61.93542
2.5815	56.19507
2.582	40.38391
2.5825	14.80408
2.583	-9.16443
2.5835	-39.77966
2.584	-59.31702
2.5845	-66.36658
2.585	-70.79773
2.5855	-65.96375
2.586	-69.48853
2.5865	-66.46729
2.587	-62.53967
2.5875	-46.62781
2.588	-40.98816
2.5885	-37.56409
2.589	-34.54285
2.5895	-27.79541
2.59	-16.61682
2.5905	0.10071
2.591	0.90637
2.5915	7.45239
2.592	6.3446
2.5925	2.01416
2.593	9.56726
2.5935	-0.80566
2.594	-1.2085
2.5945	-4.33044
2.595	-1.3092
2.5955	16.51611
2.596	43.40515
2.5965	54.38232
2.597	67.47437
2.5975	69.79065
2.598	69.48853
2.5985	63.94958
2.599	58.30994
2.5995	42.59949
2.6	35.04639
2.6005	21.3501
2.601	11.58142
2.6015	2.61841
2.602	-5.94177
2.6025	-13.797
2.603	-5.43823
2.6035	-13.09204
2.604	-16.3147
2.6045	-18.8324
2.605	-22.25647
2.6055	-13.99841
2.606	-18.42957
2.6065	-19.53735
2.607	-6.74744
2.6075	-7.25098
2.608	13.19275
2.6085	18.73169
2.609	21.14868
2.6095	14.60266
2.61	9.46655
2.6105	11.17859
2.611	14.09912
2.6115	4.93469
2.612	1.61133
2.6125	2.21558
2.613	-3.12195
2.6135	2.71912
2.614	-4.43115
2.6145	-2.11487
2.615	-2.41699
2.6155	-2.11487
2.616	1.00708
2.6165	1.3092
2.617	1.00708
2.6175	1.00708
2.618	-0.70496
2.6185	32.12585
2.619	71.60339
2.6195	87.81738
2.62	88.72375
2.6205	71.7041
2.621	47.43347
2.6215	23.36426
2.622	-1.51062
2.6225	-19.13452
2.623	-35.04639
2.6235	-9.86938
2.624	12.08496
2.6245	30.81665
2.625	26.28479
2.6255	18.12744
2.626	2.5177
2.6265	-2.01416
2.627	-14.80408
2.6275	-25.68054
2.628	-31.62231
2.6285	-40.58533
2.629	-48.64197
2.6295	-43.10303
2.63	-37.56409
2.6305	-22.96143
2.631	-13.39417
2.6315	-10.37292
2.632	4.93469
2.6325	48.03772
2.633	61.6333
2.6335	65.86304
2.634	70.69702
2.6345	84.59473
2.635	92.34924
2.6355	93.85986
2.636	83.08411
2.6365	62.8418
2.637	40.88745
2.6375	17.92603
2.638	-4.53186
2.6385	-26.48621
2.639	-43.70728
2.6395	-51.36108
2.64	-48.44055
2.6405	-38.06763
2.641	-22.55859
2.6415	-14.90479
2.642	-6.74744
2.6425	-24.37134
2.643	-40.58533
2.6435	-48.23914
2.644	-26.3855
2.6445	-8.96301
2.645	15.60974
2.6455	22.86072
2.646	15.60974
2.6465	1.81274
2.647	-12.38708
2.6475	-18.93311
2.648	-5.43823
2.6485	0.30212
2.649	-1.61133
2.6495	-8.8623
2.65	-8.35876
2.6505	4.12903
2.651	12.18567
2.6515	16.01257
2.652	15.20691
2.6525	5.23682
2.653	-3.7262
2.6535	-4.22974
2.654	-4.53186
2.6545	6.14319
2.655	9.97009
2.6555	10.77576
2.656	7.35168
2.6565	5.43823
2.657	-7.95593
2.6575	-14.19983
2.658	-4.22974
2.6585	-7.35168
2.659	-3.8269
2.6595	-10.87646
2.66	-7.5531
2.6605	-10.27222
2.661	-11.68213
2.6615	-13.49487
2.662	-14.80408
2.6625	-6.64673
2.663	-1.3092
2.6635	19.13452
2.664	72.50977
2.6645	98.19031
2.665	104.13208
2.6655	97.48535
2.666	68.98499
2.6665	47.03064
2.667	24.57275
2.6675	-5.53894
2.668	-13.99841
2.6685	-23.06213
2.669	-35.75134
2.6695	-47.03064
2.67	-45.11719
2.6705	-55.99365
2.671	-52.26746
2.6715	-58.41064
2.672	-60.3241
2.6725	-65.76233
2.673	-72.81189
2.6735	-68.28003
2.674	-64.65454
2.6745	-57.20215
2.675	-34.34143
2.6755	-20.04089
2.676	-14.19983
2.6765	-15.20691
2.677	-5.43823
2.6775	5.33752
2.678	22.05505
2.6785	33.9386
2.679	41.59241
2.6795	38.06763
2.68	38.16833
2.6805	36.25488
2.681	31.11877
2.6815	24.27063
2.682	20.94727
2.6825	51.05896
2.683	80.56641
2.6835	85.09827
2.684	83.88977
2.6845	82.78198
2.685	75.53101
2.6855	59.01489
2.686	43.80798
2.6865	30.71594
2.687	19.13452
2.6875	10.0708
2.688	-7.35168
2.6885	-9.36584
2.689	-23.96851
2.6895	-25.37842
2.69	-27.6947
2.6905	-34.54285
2.691	-42.19666
2.6915	-41.99524
2.692	-39.67896
2.6925	-38.77258
2.693	-25.88196
2.6935	-18.93311
2.694	-8.05664
2.6945	-9.66797
2.695	-8.35876
2.6955	-3.52478
2.696	-0.20142
2.6965	-0.50354
2.697	1.00708
2.6975	5.43823
2.698	13.797
2.6985	11.58142
2.699	12.99133
2.6995	39.88037
2.7	74.42322
2.7005	93.55774
2.701	94.96765
2.7015	85.90393
2.702	102.21863
2.7025	107.65686
2.703	115.41138
2.7035	100.40588
2.704	81.37207
2.7045	55.3894
2.705	18.63098
2.7055	-13.99841
2.706	-33.03223
2.7065	-50.05188
2.707	-62.43896
2.7075	-56.5979
2.708	-52.06604
2.7085	-46.92993
2.709	-38.87329
2.7095	-37.16125
2.71	-49.14551
2.7105	-57.10144
2.711	-68.88428
2.7115	-68.98499
2.712	-55.59082
2.7125	-44.11011
2.713	-45.11719
2.7135	-45.11719
2.714	-38.87329
2.7145	-25.57983
2.715	-27.39258
2.7155	-25.37842
2.716	-14.90479
2.7165	17.6239
2.717	48.33984
2.7175	71.90552
2.718	81.27136
2.7185	73.11401
2.719	60.4248
2.7195	43.20374
2.72	40.68604
2.7205	57.70569
2.721	61.83472
2.7215	63.24463
2.722	42.19666
2.7225	26.3855
2.723	21.75293
2.7235	30.41382
2.724	31.4209
2.7245	18.63098
2.725	10.57434
2.7255	9.56726
2.726	15.71045
2.7265	18.02673
2.727	16.11328
2.7275	9.66797
2.728	-6.74744
2.7285	-17.22107
2.729	-23.16284
2.7295	-25.27771
2.73	-34.74426
2.7305	-37.7655
2.731	-42.49878
2.7315	-38.87329
2.732	-60.02197
2.7325	-73.61755
2.733	-77.14233
2.7335	-74.62463
2.734	-77.948
2.7345	-59.71985
2.735	-40.68604
2.7355	-20.34302
2.736	-0.90637
2.7365	12.89062
2.737	30.41382
2.7375	73.71826
2.738	101.01013
2.7385	105.84412
2.739	101.21155
2.7395	87.01172
2.74	69.89136
2.7405	54.28162
2.741	43.40515
2.7415	25.57983
2.742	15.71045
2.7425	1.00708
2.743	-13.49487
2.7435	-21.85364
2.744	-26.78833
2.7445	-23.26355
2.745	-29.40674
2.7455	-33.73718
2.746	-21.85364
2.7465	-15.1062
2.747	-1.2085
2.7475	3.62549
2.748	8.25806
2.7485	29.91028
2.749	90.93933
2.7495	153.88184
2.75	206.75354
2.7505	223.26965
2.751	207.65991
2.7515	160.9314
2.752	111.48376
2.7525	54.88586
2.753	-0.30212
2.7535	-47.63489
2.754	-91.34216
2.7545	-112.49084
2.755	-129.81262
2.7555	-135.35156
2.756	-128.90625
2.7565	-117.92908
2.757	-66.26587
2.7575	-19.73877
2.758	24.47205
2.7585	42.7002
2.759	44.11011
2.7595	56.79932
2.76	58.91418
2.7605	61.6333
2.761	61.73401
2.7615	48.03772
2.762	48.84338
2.7625	46.32568
2.763	37.36267
2.7635	23.46497
2.764	25.177
2.7645	7.85522
2.765	-5.94177
2.7655	-17.6239
2.766	-24.77417
2.7665	-42.09595
2.767	-49.95117
2.7675	-55.2887
2.768	-66.6687
2.7685	-62.64038
2.769	-63.54675
2.7695	-72.71118
2.77	-80.96924
2.7705	-76.7395
2.771	-55.89294
2.7715	-39.27612
2.772	-29.20532
2.7725	-28.39966
2.773	-25.177
2.7735	-27.79541
2.774	-30.41382
2.7745	-33.63647
2.775	-39.88037
2.7755	-40.1825
2.776	-36.25488
2.7765	-40.38391
2.777	-33.43506
2.7775	-30.2124
2.778	-17.32178
2.7785	-16.21399
2.779	-14.40125
2.7795	1.3092
2.78	0.20142
2.7805	1.40991
2.781	1.2085
2.7815	25.57983
2.782	51.46179
2.7825	64.25171
2.783	70.89844
2.7835	60.22339
2.784	50.15259
2.7845	49.34692
2.785	35.2478
2.7855	29.70886
2.786	58.51135
2.7865	113.1958
2.787	142.50183
2.7875	151.46484
2.788	140.8905
2.7885	109.87244
2.789	77.74658
2.7895	60.82764
2.79	31.72302
2.7905	2.81982
2.791	-17.01965
2.7915	-30.41382
2.792	-15.40833
2.7925	2.11487
2.793	8.15735
2.7935	5.74036
2.794	4.12903
2.7945	-9.97009
2.795	-32.93152
2.7955	-52.36816
2.796	-64.151
2.7965	-65.25879
2.797	-59.82056
2.7975	-56.69861
2.798	-51.36108
2.7985	-41.59241
2.799	-41.59241
2.7995	-37.16125
2.8	-26.08337
2.8005	-23.36426
2.801	-21.45081
2.8015	-21.95435
2.802	-21.95435
2.8025	-14.30054
2.803	35.75134
2.8035	110.27527
2.804	144.71741
2.8045	143.10608
2.805	122.86377
2.8055	91.34216
2.806	56.09436
2.8065	23.76709
2.807	-11.48071
2.8075	-38.77258
2.808	-66.16516
2.8085	-84.09119
2.809	-84.2926
2.8095	-37.06055
2.81	-0.10071
2.8105	9.76868
2.811	2.41699
2.8115	-4.02832
2.812	30.11169
2.8125	60.02197
2.813	76.13525
2.8135	83.38623
2.814	73.61755
2.8145	49.85046
2.815	24.16992
2.8155	-4.93469
2.816	-25.07629
2.8165	-43.50586
2.817	-42.29736
2.8175	-35.75134
2.818	-28.29895
2.8185	-27.79541
2.819	-31.52161
2.8195	-32.83081
2.82	-30.61523
2.8205	-23.8678
2.821	-24.67346
2.8215	-19.73877
2.822	-20.74585
2.8225	-19.13452
2.823	-11.48071
2.8235	-5.13611
2.824	-7.75452
2.8245	-11.07788
2.825	-12.89062
2.8255	21.24939
2.826	47.53418
2.8265	53.17383
2.827	42.39807
2.8275	32.22656
2.828	27.59399
2.8285	29.70886
2.829	27.49329
2.8295	29.30603
2.83	16.11328
2.8305	8.56018
2.831	2.5177
2.8315	-4.02832
2.832	-5.53894
2.8325	-18.02673
2.833	-26.48621
2.8335	-40.38391
2.834	-42.29736
2.8345	-42.8009
2.835	-39.07471
2.8355	-41.89453
2.836	-36.75842
2.8365	-31.4209
2.837	-37.26196
2.8375	-29.91028
2.838	-23.26355
2.8385	-15.00549
2.839	-6.04248
2.8395	15.40833
2.84	30.61523
2.8405	37.66479
2.841	37.06055
2.8415	22.6593
2.842	18.63098
2.8425	9.97009
2.843	1.3092
2.8435	-9.46655
2.844	-16.61682
2.8445	-21.65222
2.845	-24.16992
2.8455	-22.05505
2.846	-24.77417
2.8465	-25.68054
2.847	-17.92603
2.8475	-5.13611
2.848	14.30054
2.8485	24.87488
2.849	28.70178
2.8495	44.31152
2.85	60.02197
2.8505	64.85596
2.851	62.33826
2.8515	66.06445
2.852	67.97791
2.8525	62.8418
2.853	47.63489
2.8535	25.27771
2.854	4.93469
2.8545	-8.15735
2.855	-19.73877
2.8555	-32.32727
2.856	-43.60657
2.8565	-44.51294
2.857	-27.29187
2.8575	3.92761
2.858	18.42957
2.8585	25.37842
2.859	21.95435
2.8595	19.83948
2.86	10.47363
2.8605	-6.14319
2.861	-10.77576
2.8615	-17.92603
2.862	-17.22107
2.8625	-15.81116
2.863	-16.11328
2.8635	-12.89062
2.864	-4.93469
2.8645	-10.27222
2.865	8.25806
2.8655	24.16992
2.866	35.95276
2.8665	39.47754
2.867	48.54126
2.8675	90.73792
2.868	128.20129
2.8685	129.71191
2.869	116.922
2.8695	116.922
2.87	118.02979
2.8705	98.59314
2.871	98.69385
2.8715	88.11951
2.872	58.00781
2.8725	24.47205
2.873	-6.04248
2.8735	-37.06055
2.874	-67.57507
2.8745	-86.10535
2.875	-97.88818
2.8755	-101.61438
2.876	-98.79456
2.8765	-88.62305
2.877	-96.57898
2.8775	-105.44128
2.878	-90.73792
2.8785	-74.62463
2.879	-61.53259
2.8795	-45.52002
2.88	-47.53418
2.8805	-39.77966
2.881	-27.39258
2.8815	-9.86938
2.882	23.76709
2.8825	68.78357
2.883	105.03845
2.8835	162.74414
2.884	202.5238
2.8845	207.76062
2.885	200.30823
2.8855	168.28308
2.886	131.62537
2.8865	100.80872
2.887	63.94958
2.8875	27.79541
2.888	3.92761
2.8885	-24.47205
2.889	-42.90161
2.8895	-53.27454
2.89	-65.86304
2.8905	-71.40198
2.891	-74.42322
2.8915	-72.61047
2.892	-71.7041
2.8925	-72.61047
2.893	-64.95667
2.8935	-58.81348
2.894	-48.44055
2.8945	-35.34851
2.895	-25.07629
2.8955	-19.13452
2.896	-17.52319
2.8965	-20.24231
2.897	-29.80957
2.8975	-37.7655
2.898	-40.78674
2.8985	-41.59241
2.899	-41.18958
2.8995	-35.44922
2.9	-42.09595
2.9005	-35.14709
2.901	-32.02515
2.9015	-25.47913
2.902	-19.83948
2.9025	-12.18567
2.903	-11.88354
2.9035	-15.30762
2.904	-10.0708
2.9045	-5.53894
2.905	1.10779
2.9055	25.177
2.906	83.58765
2.9065	153.479
2.907	215.31372
2.9075	241.09497
2.908	239.78577
2.9085	200.61035
2.909	167.57812
2.9095	125.68359
2.91	77.44446
2.9105	27.39258
2.911	-16.41541
2.9115	-62.23755
2.912	-81.17065
2.9125	-102.92358
2.913	-115.31067
2.9135	-120.34607
2.914	-126.69067
2.9145	-129.00696
2.915	-140.08484
2.9155	-126.18713
2.916	-93.75916
2.9165	-50.05188
2.917	-9.06372
2.9175	14.40125
2.918	21.45081
2.9185	18.8324
2.919	11.88354
2.9195	-0.40283
2.92	-9.97009
2.9205	-13.59558
2.921	-14.70337
2.9215	-7.5531
2.922	2.11487
2.9225	3.02124
2.923	7.75452
2.9235	7.04956
2.924	12.08496
2.9245	14.19983
2.925	16.41541
2.9255	22.96143
2.926	37.86621
2.9265	51.96533
2.927	46.22498
2.9275	41.59241
2.928	42.19666
2.9285	27.59399
2.929	17.01965
2.9295	4.33044
2.93	-5.13611
2.9305	-9.56726
2.931	-11.68213
2.9315	-10.97717
2.932	-4.33044
2.9325	-7.85522
2.933	-3.92761
2.9335	13.19275
2.934	20.34302
2.9345	18.63098
2.935	23.16284
2.9355	25.47913
2.936	34.34143
2.9365	59.31702
2.937	94.76624
2.9375	111.48376
2.938	109.97314
2.9385	91.14075
2.939	69.89136
2.9395	38.67188
2.94	16.41541
2.9405	-1.2085
2.941	-8.35876
2.9415	-12.68921
2.942	-28.09753
2.9425	-41.99524
2.943	-50.2533
2.9435	-44.31152
2.944	-36.65771
2.9445	-40.68604
2.945	-37.86621
2.9455	-39.57825
2.946	-33.53577
2.9465	-19.83948
2.947	0
2.9475	10.47363
2.948	15.71045
2.9485	23.8678
2.949	17.42249
2.9495	3.12195
2.95	-0.20142
2.9505	-3.62549
2.951	-7.25098
2.9515	-4.33044
2.952	-8.56018
2.9525	-4.73328
2.953	-11.17859
2.9535	-5.94177
2.954	-6.84814
2.9545	3.7262
2.955	17.6239
2.9555	21.24939
2.956	25.07629
2.9565	19.63806
2.957	7.45239
2.9575	0.50354
2.958	4.12903
2.9585	3.32336
2.959	6.44531
2.9595	0.30212
2.96	-0.20142
2.9605	0.40283
2.961	7.15027
2.9615	17.42249
2.962	19.23523
2.9625	11.07788
2.963	21.95435
2.9635	29.40674
2.964	30.71594
2.9645	35.65063
2.965	40.78674
2.9655	45.3186
2.966	53.97949
2.9665	69.38782
2.967	70.89844
2.9675	51.76392
2.968	56.29578
2.9685	123.56873
2.969	186.81335
2.9695	198.39478
2.97	179.05884
2.9705	140.68909
2.971	78.75366
2.9715	41.99524
2.972	9.26514
2.9725	-17.82532
2.973	-30.71594
2.9735	-53.27454
2.974	-80.16357
2.9745	-94.2627
2.975	-108.36182
2.9755	-117.02271
2.976	-89.63013
2.9765	-80.4657
2.977	-69.58923
2.9775	-47.63489
2.978	-23.26355
2.9785	-0.50354
2.979	0.20142
2.9795	-17.82532
2.98	-36.65771
2.9805	-61.6333
2.981	-74.72534
2.9815	-75.83313
2.982	-73.51685
2.9825	-66.06445
2.983	-67.47437
2.9835	-71.09985
2.984	-57.70569
2.9845	-44.31152
2.985	-29.30603
2.9855	-11.98425
2.986	-3.8269
2.9865	3.52478
2.987	7.04956
2.9875	3.92761
2.988	10.37292
2.9885	20.84656
2.989	25.88196
2.9895	25.88196
2.99	23.8678
2.9905	19.13452
2.991	30.71594
2.9915	56.5979
2.992	73.21472
2.9925	70.89844
2.993	78.55225
2.9935	135.95581
2.994	167.67883
2.9945	169.18945
2.995	155.59387
2.9955	126.48926
2.996	88.42163
2.9965	55.79224
2.997	30.51453
2.9975	0.50354
2.998	-18.73169
2.9985	-39.37683
2.999	-58.61206
2.9995	-71.20056
3	-82.88269
3.0005	-90.23438
3.001	-98.39172
3.0015	-110.37598
3.002	-116.01562
3.0025	-113.09509
3.003	-98.0896
3.0035	-73.51685
3.004	-38.77258
3.0045	-8.66089
3.005	12.89062
3.0055	27.79541
3.006	25.88196
3.0065	17.6239
3.007	10.57434
3.0075	9.76868
3.008	9.46655
3.0085	1.71204
3.009	-2.81982
3.0095	-15.1062
3.01	-23.76709
3.0105	-24.77417
3.011	-22.55859
3.0115	-19.43665
3.012	-14.60266
3.0125	-14.80408
3.013	-9.16443
3.0135	-11.78284
3.014	-9.06372
3.0145	-10.0708
3.015	-12.78992
3.0155	-9.86938
3.016	15.71045
3.0165	53.17383
3.017	92.44995
3.0175	124.17297
3.018	147.83936
3.0185	136.86218
3.019	101.61438
3.0195	54.78516
3.02	10.27222
3.0205	-26.78833
3.021	-59.21631
3.0215	-72.71118
3.022	-88.72375
3.0225	-89.328
3.023	-79.76074
3.0235	-67.47437
3.024	-65.66162
3.0245	-64.45312
3.025	-52.06604
3.0255	-20.94727
3.026	9.66797
3.0265	27.6947
3.027	47.23206
3.0275	57.60498
3.028	61.23047
3.0285	58.71277
3.029	49.24622
3.0295	49.44763
3.03	52.36816
3.0305	62.33826
3.031	76.7395
3.0315	82.58057
3.032	75.63171
3.0325	63.14392
3.033	39.98108
3.0335	30.2124
3.034	11.17859
3.0345	-4.73328
3.035	-16.21399
3.0355	-22.25647
3.036	-30.11169
3.0365	-34.14001
3.037	0.60425
3.0375	93.85986
3.038	130.21545
3.0385	136.45935
3.039	121.15173
3.0395	79.05579
3.04	62.64038
3.0405	55.18799
3.041	37.7655
3.0415	13.69629
3.042	-18.73169
3.0425	-34.74426
3.043	-51.36108
3.0435	-39.07471
3.044	-2.5177
3.0445	6.84814
3.045	-8.56018
3.0455	-22.35718
3.046	-31.11877
3.0465	-30.01099
3.047	-25.07629
3.0475	19.63806
3.048	73.91968
3.0485	98.19031
3.049	78.35083
3.0495	41.99524
3.05	4.73328
3.0505	-32.83081
3.051	-43.80798
3.0515	-63.64746
3.052	-71.90552
3.0525	-75.4303
3.053	-80.06287
3.0535	-81.37207
3.054	-75.93384
3.0545	-65.76233
3.055	-54.68445
3.0555	-51.96533
3.056	-42.90161
3.0565	-44.81506
3.057	-43.10303
3.0575	-32.62939
3.058	-21.45081
3.0585	-18.12744
3.059	-24.06921
3.0595	-19.94019
3.06	-6.64673
3.0605	0.20142
3.061	-3.02124
3.0615	6.44531
3.062	18.12744
3.0625	34.74426
3.063	29.30603
3.0635	17.52319
3.064	3.92761
3.0645	-19.63806
3.065	-32.22656
3.0655	-54.28162
3.066	-59.01489
3.0665	-45.92285
3.067	-26.48621
3.0675	-11.68213
3.068	-7.45239
3.0685	10.0708
3.069	0.30212
3.0695	-2.5177
3.07	-13.39417
3.0705	-17.72461
3.071	-15.60974
3.0715	2.61841
3.072	19.03381
3.0725	33.33435
3.073	53.77808
3.0735	51.5625
3.074	51.26038
3.0745	45.01648
3.075	32.22656
3.0755	28.39966
3.076	19.94019
3.0765	28.70178
3.077	41.59241
3.0775	50.95825
3.078	55.79224
3.0785	55.49011
3.079	58.00781
3.0795	55.89294
3.08	41.79382
3.0805	32.02515
3.081	17.12036
3.0815	5.63965
3.082	-2.41699
3.0825	-0.60425
3.083	1.81274
3.0835	-2.81982
3.084	-6.04248
3.0845	-9.76868
3.085	-13.99841
3.0855	-17.6239
3.086	-18.53027
3.0865	-15.00549
3.087	-13.797
3.0875	-15.50903
3.088	-14.40125
3.0885	-4.83398
3.089	1.3092
3.0895	7.35168
3.09	6.44531
3.0905	5.74036
3.091	5.13611
3.0915	13.89771
3.092	13.09204
3.0925	18.53027
3.093	23.26355
3.0935	21.04797
3.094	8.15735
3.0945	12.48779
3.095	12.38708
3.0955	37.86621
3.096	121.55457
3.0965	200.20752
3.097	286.61499
3.0975	304.74243
3.098	281.98242
3.0985	232.33337
3.099	170.19653
3.0995	94.3634
3.1	13.59558
3.1005	-60.3241
3.101	-109.16748
3.1015	-147.63794
3.102	-172.21069
3.1025	-171.30432
3.103	-163.5498
3.1035	-153.17688
3.104	-152.97546
3.1045	-150.45776
3.105	-144.01245
3.1055	-132.83386
3.106	-113.29651
3.1065	-89.328
3.107	-50.2533
3.1075	-18.22815
3.108	5.23682
3.1085	2.92053
3.109	-2.71912
3.1095	-2.41699
3.11	10.87646
3.1105	30.01099
3.111	51.86462
3.1115	103.52783
3.112	145.9259
3.1125	150.55847
3.113	141.19263
3.1135	129.10767
3.114	109.77173
3.1145	94.06128
3.115	86.50818
3.1155	72.40906
3.116	43.60657
3.1165	9.46655
3.117	-30.51453
3.1175	-61.83472
3.118	-80.86853
3.1185	-98.69385
3.119	-106.14624
3.1195	-121.15173
3.12	-121.55457
3.1205	-113.09509
3.121	-90.43579
3.1215	-58.30994
3.122	-29.30603
3.1225	-22.15576
3.123	-12.78992
3.1235	-3.7262
3.124	-0.70496
3.1245	-2.31628
3.125	-8.15735
3.1255	-3.22266
3.126	-2.21558
3.1265	-2.31628
3.127	1.10779
3.1275	7.5531
3.128	8.05664
3.1285	11.68213
3.129	11.17859
3.1295	14.09912
3.13	12.99133
3.1305	12.08496
3.131	10.87646
3.1315	8.05664
3.132	10.67505
3.1325	4.43115
3.133	4.33044
3.1335	8.7616
3.134	12.5885
3.1345	14.60266
3.135	12.28638
3.1355	12.68921
3.136	14.40125
3.1365	10.97717
3.137	14.19983
3.1375	9.06372
3.138	24.47205
3.1385	44.51294
3.139	54.28162
3.1395	65.76233
3.14	84.19189
3.1405	92.04712
3.141	123.97156
3.1415	136.45935
3.142	119.33899
3.1425	102.31934
3.143	65.66162
3.1435	25.88196
3.144	-1.10779
3.1445	-16.81824
3.145	-28.9032
3.1455	-46.22498
3.146	-56.5979
3.1465	-71.20056
3.147	-58.61206
3.1475	-7.25098
3.148	27.49329
3.1485	44.21082
3.149	44.61365
3.1495	40.2832
3.15	36.4563
3.1505	33.43506
3.151	22.6593
3.1515	10.67505
3.152	-6.84814
3.1525	-5.0354
3.153	5.63965
3.1535	5.74036
3.154	0.60425
3.1545	-10.0708
3.155	-17.72461
3.1555	-31.72302
3.156	-37.26196
3.1565	-42.09595
3.157	-48.74268
3.1575	-44.21082
3.158	-31.21948
3.1585	-22.35718
3.159	-23.26355
3.1595	-19.83948
3.16	-21.24939
3.1605	-28.39966
3.161	-36.55701
3.1615	-38.57117
3.162	-34.54285
3.1625	-22.25647
3.163	-11.78284
3.1635	32.52869
3.164	96.98181
3.1645	120.7489
3.165	134.44519
3.1655	136.45935
3.166	124.27368
3.1665	105.74341
3.167	83.68835
3.1675	60.62622
3.168	28.70178
3.1685	4.22974
3.169	20.84656
3.1695	52.36816
3.17	82.9834
3.1705	101.01013
3.171	110.17456
3.1715	93.55774
3.172	80.76782
3.1725	77.14233
3.173	102.42004
3.1735	109.3689
3.174	108.96606
3.1745	96.27686
3.175	56.90002
3.1755	14.19983
3.176	-26.78833
3.1765	-76.94092
3.177	-116.51917
3.1775	-139.07776
3.178	-157.50732
3.1785	-162.34131
3.179	-152.87476
3.1795	-160.62927
3.18	-154.6875
3.1805	-158.91724
3.181	-161.63635
3.1815	-151.16272
3.182	-137.46643
3.1825	-109.97314
3.183	-83.48694
3.1835	-69.38782
3.184	-74.92676
3.1845	-73.81897
3.185	-64.35242
3.1855	-44.51294
3.186	-39.57825
3.1865	-35.04639
3.187	-37.66479
3.1875	-33.83789
3.188	-32.62939
3.1885	-6.54602
3.189	19.33594
3.1895	66.56799
3.19	89.83154
3.1905	97.98889
3.191	100.90942
3.1915	94.3634
3.192	68.68286
3.1925	55.2887
3.193	49.24622
3.1935	25.177
3.194	2.61841
3.1945	-20.94727
3.195	-37.26196
3.1955	-42.8009
3.196	-27.79541
3.1965	3.62549
3.197	47.03064
3.1975	57.30286
3.198	46.42639
3.1985	66.76941
3.199	96.47827
3.1995	90.23438
3.2	68.98499
3.2005	42.8009
3.201	17.72461
3.2015	-12.08496
3.202	-42.8009
3.2025	-67.67578
3.203	-80.36499
3.2035	-81.37207
3.204	-88.52234
3.2045	-84.39331
3.205	-69.79065
3.2055	-63.54675
3.206	-56.5979
3.2065	-33.73718
3.207	-1.3092
3.2075	28.60107
3.208	35.85205
3.2085	32.12585
3.209	23.96851
3.2095	38.87329
3.21	90.43579
3.2105	144.6167
3.211	170.09583
3.2115	181.87866
3.212	167.37671
3.2125	144.01245
3.213	116.11633
3.2135	78.65295
3.214	50.75684
3.2145	22.45789
3.215	-4.83398
3.2155	-26.88904
3.216	-46.22498
3.2165	-64.95667
3.217	-72.9126
3.2175	-80.96924
3.218	-79.45862
3.2185	-68.48145
3.219	-48.74268
3.2195	-39.07471
3.22	-33.03223
3.2205	-33.73718
3.221	-26.78833
3.2215	-20.44373
3.222	-0.50354
3.2225	15.91187
3.223	28.70178
3.2235	28.39966
3.224	32.02515
3.2245	45.2179
3.225	41.08887
3.2255	34.94568
3.226	33.83789
3.2265	24.57275
3.227	11.98425
3.2275	4.63257
3.228	-15.30762
3.2285	-20.24231
3.229	-29.50745
3.2295	-38.87329
3.23	-48.13843
3.2305	-49.95117
3.231	-56.49719
3.2315	-63.94958
3.232	-64.25171
3.2325	-55.79224
3.233	-57.20215
3.2335	-47.93701
3.234	-39.67896
3.2345	-31.92444
3.235	-24.47205
3.2355	-10.57434
3.236	-5.84106
3.2365	-13.89771
3.237	-25.68054
3.2375	-25.88196
3.238	-28.09753
3.2385	-20.74585
3.239	-7.35168
3.2395	-3.32336
3.24	2.31628
3.2405	7.75452
3.241	18.63098
3.2415	48.64197
3.242	72.40906
3.2425	102.52075
3.243	150.05493
3.2435	198.09265
3.244	198.99902
3.2445	164.95972
3.245	117.22412
3.2455	66.26587
3.246	15.30762
3.2465	-40.2832
3.247	-88.62305
3.2475	-123.77014
3.248	-146.22803
3.2485	-138.3728
3.249	-106.34766
3.2495	-72.81189
3.25	-63.84888
3.2505	-49.24622
3.251	-34.64355
3.2515	-17.72461
3.252	-7.15027
3.2525	-13.29346
3.253	-11.78284
3.2535	-9.56726
3.254	-12.99133
3.2545	-11.78284
3.255	-11.78284
3.2555	-16.41541
3.256	-18.93311
3.2565	-25.47913
3.257	-20.94727
3.2575	-9.56726
3.258	9.26514
3.2585	25.98267
3.259	34.94568
3.2595	46.5271
3.26	35.85205
3.2605	24.67346
3.261	26.78833
3.2615	23.8678
3.262	15.71045
3.2625	16.3147
3.263	9.36584
3.2635	33.13293
3.264	56.19507
3.2645	77.74658
3.265	80.86853
3.2655	72.40906
3.266	80.06287
3.2665	86.50818
3.267	77.948
3.2675	55.18799
3.268	25.68054
3.2685	0.80566
3.269	-21.65222
3.2695	-42.7002
3.27	-47.7356
3.2705	-60.02197
3.271	-62.74109
3.2715	-59.01489
3.272	-47.43347
3.2725	-25.88196
3.273	-8.56018
3.2735	1.61133
3.274	16.11328
3.2745	21.85364
3.275	14.60266
3.2755	6.2439
3.276	-4.43115
3.2765	-0.30212
3.277	9.76868
3.2775	22.6593
3.278	15.50903
3.2785	9.46655
3.279	1.91345
3.2795	3.12195
3.28	9.16443
3.2805	8.96301
3.281	9.46655
3.2815	14.70337
3.282	13.09204
3.2825	21.24939
3.283	18.53027
3.2835	15.60974
3.284	24.06921
3.2845	22.6593
3.285	35.44922
3.2855	47.43347
3.286	50.2533
3.2865	59.51843
3.287	70.49561
3.2875	75.12817
3.288	76.63879
3.2885	69.58923
3.289	59.1156
3.2895	49.24622
3.29	38.36975
3.2905	54.38232
3.291	53.17383
3.2915	58.71277
3.292	45.72144
3.2925	26.3855
3.293	6.04248
3.2935	-13.89771
3.294	-32.52869
3.2945	-45.11719
3.295	-52.8717
3.2955	-62.13684
3.296	-70.3949
3.2965	-66.16516
3.297	-67.77649
3.2975	-64.151
3.298	-62.9425
3.2985	-64.25171
3.299	-57.60498
3.2995	-54.0802
3.3	-46.12427
3.3005	-25.27771
3.301	-12.5885
3.3015	-4.83398
3.302	-5.13611
3.3025	0.40283
3.303	4.33044
3.3035	6.74744
3.304	14.60266
3.3045	10.97717
3.305	10.0708
3.3055	7.35168
3.306	8.7616
3.3065	9.86938
3.307	4.73328
3.3075	4.12903
3.308	27.39258
3.3085	53.17383
3.309	62.13684
3.3095	58.61206
3.31	44.11011
3.3105	36.05347
3.311	17.12036
3.3115	1.71204
3.312	-13.797
3.3125	-20.34302
3.313	-16.91895
3.3135	-7.04956
3.314	-13.49487
3.3145	-10.17151
3.315	-19.13452
3.3155	-25.98267
3.316	-22.45789
3.3165	29.00391
3.317	87.71667
3.3175	121.25244
3.318	119.4397
3.3185	109.67102
3.319	93.45703
3.3195	65.05737
3.32	36.4563
3.3205	25.68054
3.321	9.97009
3.3215	8.96301
3.322	15.30762
3.3225	14.09912
3.323	10.37292
3.3235	17.22107
3.324	14.80408
3.3245	0.20142
3.325	-8.35876
3.3255	-9.26514
3.326	-25.47913
3.3265	-42.90161
3.327	-58.20923
3.3275	-78.35083
3.328	-91.14075
3.3285	-90.23438
3.329	-65.56091
3.3295	-33.73718
3.33	-6.84814
3.3305	-2.21558
3.331	-0.50354
3.3315	0.90637
3.332	4.33044
3.3325	10.47363
3.333	16.01257
3.3335	10.47363
3.334	6.64673
3.3345	5.84106
3.335	3.02124
3.3355	3.42407
3.336	9.66797
3.3365	18.93311
3.337	21.55151
3.3375	27.49329
3.338	36.4563
3.3385	54.0802
3.339	69.48853
3.3395	83.58765
3.34	94.76624
3.3405	88.62305
3.341	79.66003
3.3415	67.37366
3.342	46.12427
3.3425	30.31311
3.343	13.89771
3.3435	-3.62549
3.344	6.04248
3.3445	7.04956
3.345	-7.15027
3.3455	-30.01099
3.346	-52.26746
3.3465	-75.73242
3.347	-69.28711
3.3475	-53.87878
3.348	-42.90161
3.3485	-29.60815
3.349	-8.7616
3.3495	11.07788
3.35	19.43665
3.3505	7.75452
3.351	10.87646
3.3515	4.73328
3.352	0.80566
3.3525	-13.19275
3.353	-26.78833
3.3535	-39.57825
3.354	-38.16833
3.3545	-32.22656
3.355	-28.50037
3.3555	-28.9032
3.356	-33.63647
3.3565	-35.54993
3.357	-33.73718
3.3575	-30.31311
3.358	-21.14868
3.3585	0.10071
3.359	8.15735
3.3595	10.0708
3.36	15.1062
3.3605	16.91895
3.361	21.45081
3.3615	13.89771
3.362	18.63098
3.3625	13.69629
3.363	10.77576
3.3635	17.82532
3.364	13.89771
3.3645	11.38
3.365	11.38
3.3655	3.52478
3.366	3.02124
3.3665	3.62549
3.367	5.43823
3.3675	9.06372
3.368	5.94177
3.3685	6.54602
3.369	13.19275
3.3695	9.16443
3.37	7.75452
3.3705	3.02124
3.371	4.83398
3.3715	8.05664
3.372	10.17151
3.3725	11.07788
3.373	12.48779
3.3735	13.49487
3.374	10.97717
3.3745	10.37292
3.375	19.94019
3.3755	19.23523
3.376	18.12744
3.3765	13.09204
3.377	12.48779
3.3775	7.95593
3.378	9.76868
3.3785	12.28638
3.379	9.36584
3.3795	13.797
3.38	31.11877
3.3805	38.26904
3.381	36.75842
3.3815	33.9386
3.382	24.37134
3.3825	7.25098
3.383	-2.31628
3.3835	-7.65381
3.384	-21.75293
3.3845	-28.9032
3.385	-21.65222
3.3855	-18.32886
3.386	-14.50195
3.3865	-13.89771
3.387	-10.67505
3.3875	-5.94177
3.388	-11.98425
3.3885	8.56018
3.389	25.47913
3.3895	44.41223
3.39	46.72852
3.3905	37.26196
3.391	26.78833
3.3915	24.97559
3.392	19.63806
3.3925	22.05505
3.393	20.1416
3.3935	11.07788
3.394	6.14319
3.3945	4.63257
3.395	2.31628
3.3955	-0.40283
3.396	2.21558
3.3965	-9.46655
3.397	-2.41699
3.3975	4.12903
3.398	25.98267
3.3985	75.32959
3.399	139.37988
3.3995	175.83618
3.4	173.11707
3.4005	162.84485
3.401	135.75439
3.4015	105.44128
3.402	66.76941
3.4025	22.6593
3.403	-0.60425
3.4035	-28.09753
3.404	-40.98816
3.4045	-29.70886
3.405	-18.32886
3.4055	-3.8269
3.406	-7.15027
3.4065	-21.85364
3.407	-39.07471
3.4075	-59.51843
3.408	-70.49561
3.4085	-91.745
3.409	-96.57898
3.4095	-97.38464
3.41	-99.49951
3.4105	-92.65137
3.411	-104.83704
3.4115	-101.71509
3.412	-92.24854
3.4125	-96.98181
3.413	-99.3988
3.4135	-86.8103
3.414	-68.98499
3.4145	-42.90161
3.415	-3.32336
3.4155	23.56567
3.416	41.99524
3.4165	49.95117
3.417	44.51294
3.4175	51.05896
3.418	84.69543
3.4185	132.43103
3.419	166.26892
3.4195	184.39636
3.42	186.30981
3.4205	166.36963
3.421	140.38696
3.4215	101.31226
3.422	52.46887
3.4225	7.25098
3.423	-31.82373
3.4235	-66.56799
3.424	-101.11084
3.4245	-107.15332
3.425	-104.03137
3.4255	-112.08801
3.426	-117.42554
3.4265	-108.36182
3.427	-97.28394
3.4275	-87.41455
3.428	-75.83313
3.4285	-67.8772
3.429	-50.75684
3.4295	-25.57983
3.43	-14.19983
3.4305	-12.28638
3.431	-24.47205
3.4315	-28.50037
3.432	-28.09753
3.4325	-17.42249
3.433	9.86938
3.4335	43.10303
3.434	58.41064
3.4345	54.78516
3.435	42.7002
3.4355	25.98267
3.436	18.22815
3.4365	7.95593
3.437	3.42407
3.4375	-8.96301
3.438	-3.52478
3.4385	-6.04248
3.439	2.5177
3.4395	14.90479
3.44	17.32178
3.4405	23.36426
3.441	23.36426
3.4415	40.08179
3.442	63.64746
3.4425	80.06287
3.443	81.06995
3.4435	78.95508
3.444	73.71826
3.4445	63.84888
3.445	68.98499
3.4455	66.56799
3.446	68.28003
3.4465	65.76233
3.447	57.50427
3.4475	47.63489
3.448	29.40674
3.4485	10.77576
3.449	0.30212
3.4495	-9.26514
3.45	-15.50903
3.4505	-17.22107
3.451	-25.68054
3.4515	-21.14868
3.452	-2.71912
3.4525	19.63806
3.453	30.31311
3.4535	27.99683
3.454	34.54285
3.4545	23.76709
3.455	18.12744
3.4555	21.14868
3.456	19.53735
3.4565	33.23364
3.457	44.0094
3.4575	76.23596
3.458	74.92676
3.4585	43.90869
3.459	22.76001
3.4595	5.13611
3.46	-16.41541
3.4605	-25.37842
3.461	-26.3855
3.4615	-27.09045
3.462	-30.2124
3.4625	-37.66479
3.463	-44.31152
3.4635	-42.19666
3.464	-41.18958
3.4645	-56.90002
3.465	-80.36499
3.4655	-87.51526
3.466	-79.66003
3.4665	-66.06445
3.467	-51.15967
3.4675	-33.03223
3.468	-18.12744
3.4685	-15.30762
3.469	-17.22107
3.4695	-7.85522
3.47	5.63965
3.4705	24.47205
3.471	44.0094
3.4715	65.25879
3.472	106.34766
3.4725	150.65918
3.473	181.17371
3.4735	168.88733
3.474	131.22253
3.4745	92.34924
3.475	58.20923
3.4755	35.75134
3.476	19.43665
3.4765	-15.30762
3.477	-47.63489
3.4775	-75.93384
3.478	-93.96057
3.4785	-92.55066
3.479	-100.50659
3.4795	-108.26111
3.48	-104.83704
3.4805	-93.85986
3.481	-69.58923
3.4815	-48.23914
3.482	-17.72461
3.4825	5.53894
3.483	21.24939
3.4835	15.91187
3.484	7.65381
3.4845	0.70496
3.485	-3.42407
3.4855	-2.61841
3.486	-4.33044
3.4865	3.8269
3.487	27.49329
3.4875	38.974
3.488	47.7356
3.4885	53.47595
3.489	60.92834
3.4895	53.67737
3.49	28.9032
3.4905	9.16443
3.491	-6.94885
3.4915	-23.56567
3.492	-38.06763
3.4925	-45.01648
3.493	-36.85913
3.4935	-29.10461
3.494	-13.29346
3.4945	-13.29346
3.495	-9.26514
3.4955	-2.11487
3.496	-2.41699
3.4965	-1.2085
3.497	-8.05664
3.4975	-5.63965
3.498	8.56018
3.4985	9.97009
3.499	3.52478
3.4995	7.15027
3.5	7.35168
3.5005	15.1062
3.501	17.92603
3.5015	19.94019
3.502	20.54443
3.5025	13.19275
3.503	24.16992
3.5035	36.85913
3.504	37.7655
3.5045	39.98108
3.505	40.48462
3.5055	35.95276
3.506	21.14868
3.5065	15.81116
3.507	5.33752
3.5075	-8.66089
3.508	-9.86938
3.5085	-6.64673
3.509	-4.93469
3.5095	7.45239
3.51	5.94177
3.5105	17.52319
3.511	49.85046
3.5115	73.21472
3.512	77.84729
3.5125	70.49561
3.513	55.2887
3.5135	38.06763
3.514	24.87488
3.5145	11.58142
3.515	3.02124
3.5155	-1.2085
3.516	6.3446
3.5165	5.33752
3.517	-8.96301
3.5175	-31.21948
3.518	-48.74268
3.5185	-64.95667
3.519	-73.41614
3.5195	-57.30286
3.52	-46.02356
3.5205	-32.22656
3.521	-8.8623
3.5215	26.78833
3.522	46.82922
3.5225	48.94409
3.523	61.43188
3.5235	60.62622
3.524	65.56091
3.5245	61.02905
3.525	49.34692
3.5255	45.72144
3.526	50.85754
3.5265	86.20605
3.527	154.6875
3.5275	183.28857
3.528	176.84326
3.5285	140.28625
3.529	82.07703
3.5295	24.27063
3.53	-21.65222
3.5305	-64.55383
3.531	-87.01172
3.5315	-101.51367
3.532	-118.2312
3.5325	-124.87793
3.533	-139.68201
3.5335	-142.40112
3.534	-135.45227
3.5345	-133.43811
3.535	-128.70483
3.5355	-111.8866
3.536	-95.5719
3.5365	-60.22339
3.537	-24.16992
3.5375	5.0354
3.538	25.78125
3.5385	42.39807
3.539	51.46179
3.5395	47.93701
3.54	40.98816
3.5405	38.974
3.541	50.55542
3.5415	66.56799
3.542	72.30835
3.5425	67.77649
3.543	61.43188
3.5435	77.04163
3.544	100.50659
3.5445	132.53174
3.545	145.22095
3.5455	125.88501
3.546	94.46411
3.5465	64.45312
3.547	21.95435
3.5475	-35.95276
3.548	-88.0188
3.5485	-106.24695
3.549	-131.12183
3.5495	-144.71741
3.55	-143.60962
3.5505	-140.28625
3.551	-123.16589
3.5515	-119.74182
3.552	-94.66553
3.5525	-82.47986
3.553	-54.0802
3.5535	-18.32886
3.554	27.79541
3.5545	70.29419
3.555	85.70251
3.5555	84.69543
3.556	74.82605
3.5565	52.67029
3.557	39.98108
3.5575	27.19116
3.558	17.92603
3.5585	7.04956
3.559	-6.14319
3.5595	-17.12036
3.56	-11.58142
3.5605	-8.66089
3.561	-14.90479
3.5615	-12.68921
3.562	-5.63965
3.5625	-3.42407
3.563	6.64673
3.5635	11.98425
3.564	23.8678
3.5645	34.54285
3.565	33.23364
3.5655	57.00073
3.566	69.1864
3.5665	83.38623
3.567	78.14941
3.5675	74.62463
3.568	55.08728
3.5685	36.75842
3.569	21.65222
3.5695	15.1062
3.57	5.13611
3.5705	-0.20142
3.571	-10.77576
3.5715	-21.04797
3.572	-23.96851
3.5725	-41.08887
3.573	-47.23206
3.5735	-57.70569
3.574	-60.92834
3.5745	-54.98657
3.575	-32.7301
3.5755	-16.01257
3.576	-4.33044
3.5765	22.35718
3.577	77.84729
3.5775	132.93457
3.578	165.86609
3.5785	178.75671
3.579	188.42468
3.5795	169.7937
3.58	142.19971
3.5805	104.13208
3.581	68.28003
3.5815	38.974
3.582	18.32886
3.5825	-1.00708
3.583	-19.83948
3.5835	-50.2533
3.584	-89.42871
3.5845	-100.10376
3.585	-81.06995
3.5855	-72.40906
3.586	-74.32251
3.5865	-79.05579
3.587	-84.79614
3.5875	-86.8103
3.588	-80.36499
3.5885	-49.24622
3.589	-17.6239
3.5895	10.87646
3.59	27.59399
3.5905	46.92993
3.591	58.20923
3.5915	61.6333
3.592	51.96533
3.5925	33.23364
3.593	-4.02832
3.5935	-22.96143
3.594	-24.47205
3.5945	3.32336
3.595	23.76709
3.5955	42.29736
3.596	50.45471
3.5965	35.14709
3.597	17.52319
3.5975	15.60974
3.598	-2.31628
3.5985	-12.99133
3.599	24.97559
3.5995	57.00073
3.6	69.48853
3.6005	55.99365
3.601	58.41064
3.6015	67.8772
3.602	48.23914
3.6025	6.14319
3.603	-28.19824
3.6035	-46.42639
3.604	-58.30994
3.6045	-54.28162
3.605	-49.24622
3.6055	-40.1825
3.606	-39.47754
3.6065	-26.98975
3.607	-21.65222
3.6075	-14.80408
3.608	-12.89062
3.6085	-8.96301
3.609	-6.64673
3.6095	-5.33752
3.61	11.07788
3.6105	19.33594
3.611	13.19275
3.6115	-5.63965
3.612	-5.33752
3.6125	-10.37292
3.613	-18.8324
3.6135	-22.55859
3.614	-25.57983
3.6145	-29.80957
3.615	-37.7655
3.6155	-24.06921
3.616	5.84106
3.6165	34.03931
3.617	66.26587
3.6175	97.88818
3.618	103.02429
3.6185	116.41846
3.619	124.87793
3.6195	108.56323
3.62	97.88818
3.6205	72.10693
3.621	53.17383
3.6215	19.94019
3.622	-20.04089
3.6225	-48.44055
3.623	-69.1864
3.6235	-73.21472
3.624	-59.71985
3.6245	-55.79224
3.625	-33.33435
3.6255	6.04248
3.626	21.3501
3.6265	15.00549
3.627	17.22107
3.6275	18.42957
3.628	19.83948
3.6285	30.91736
3.629	21.24939
3.6295	8.45947
3.63	1.71204
3.6305	-16.21399
3.631	-37.36267
3.6315	-60.92834
3.632	-75.22888
3.6325	-78.45154
3.633	-77.34375
3.6335	-80.76782
3.634	-79.76074
3.6345	-66.36658
3.635	-56.29578
3.6355	-33.83789
3.636	0.70496
3.6365	21.65222
3.637	23.56567
3.6375	19.94019
3.638	28.9032
3.6385	34.64355
3.639	35.95276
3.6395	40.68604
3.64	28.19824
3.6405	27.6947
3.641	21.14868
3.6415	23.06213
3.642	33.53577
3.6425	42.09595
3.643	37.16125
3.6435	39.88037
3.644	54.28162
3.6445	65.56091
3.645	83.68835
3.6455	107.25403
3.646	111.9873
3.6465	106.14624
3.647	95.77332
3.6475	72.00623
3.648	50.65613
3.6485	31.92444
3.649	-2.5177
3.6495	-32.12585
3.65	-55.99365
3.6505	-77.04163
3.651	-69.68994
3.6515	-44.21082
3.652	17.32178
3.6525	57.8064
3.653	80.06287
3.6535	68.17932
3.654	39.17542
3.6545	-3.32336
3.655	-45.72144
3.6555	-72.61047
3.656	-83.08411
3.6565	-98.89526
3.657	-119.74182
3.6575	-132.53174
3.658	-139.78271
3.6585	-134.5459
3.659	-148.3429
3.6595	-139.78271
3.66	-135.65369
3.6605	-104.73633
3.661	-64.55383
3.6615	-20.24231
3.662	17.52319
3.6625	39.37683
3.663	52.26746
3.6635	56.90002
3.664	65.25879
3.6645	62.64038
3.665	66.26587
3.6655	66.87012
3.666	76.13525
3.6665	83.99048
3.667	81.67419
3.6675	76.43738
3.668	74.92676
3.6685	92.04712
3.669	100.40588
3.6695	107.05261
3.67	140.38696
3.6705	147.33582
3.671	136.56006
3.6715	121.25244
3.672	120.95032
3.6725	157.2052
3.673	180.36804
3.6735	182.78503
3.674	184.8999
3.6745	174.8291
3.675	147.63794
3.6755	108.26111
3.676	69.99207
3.6765	11.07788
3.677	-57.30286
3.6775	-106.44836
3.678	-143.60962
3.6785	-163.75122
3.679	-193.15796
3.6795	-202.82593
3.68	-215.41443
3.6805	-224.98169
3.681	-231.32629
3.6815	-207.05566
3.682	-165.16113
3.6825	-134.5459
3.683	-100.00305
3.6835	-47.93701
3.684	-30.2124
3.6845	-41.29028
3.685	-44.81506
3.6855	-26.18408
3.686	-18.63098
3.6865	-8.66089
3.687	0.20142
3.6875	4.63257
3.688	23.06213
3.6885	40.1825
3.689	40.2832
3.6895	34.94568
3.69	43.40515
3.6905	41.39099
3.691	39.17542
3.6915	32.93152
3.692	23.96851
3.6925	9.76868
3.693	16.01257
3.6935	30.61523
3.694	36.75842
3.6945	43.50586
3.695	32.7301
3.6955	19.03381
3.696	37.86621
3.6965	76.94092
3.697	103.22571
3.6975	117.32483
3.698	104.23279
3.6985	81.97632
3.699	61.33118
3.6995	31.01807
3.7	-0.80566
3.7005	-28.9032
3.701	-51.76392
3.7015	-52.26746
3.702	-44.0094
3.7025	-34.74426
3.703	-26.18408
3.7035	-16.11328
3.704	-15.20691
3.7045	-19.33594
3.705	-14.19983
3.7055	11.17859
3.706	20.1416
3.7065	44.31152
3.707	48.64197
3.7075	62.9425
3.708	61.73401
3.7085	55.08728
3.709	32.62939
3.7095	37.06055
3.71	28.19824
3.7105	20.1416
3.711	29.91028
3.7115	15.71045
3.712	4.83398
3.7125	-15.00549
3.713	-38.36975
3.7135	-48.74268
3.714	-56.90002
3.7145	-59.01489
3.715	-39.17542
3.7155	-24.16992
3.716	-33.73718
3.7165	-31.82373
3.717	14.50195
3.7175	52.16675
3.718	82.37915
3.7185	76.84021
3.719	48.23914
3.7195	19.33594
3.72	-24.16992
3.7205	-56.69861
3.721	-71.7041
3.7215	-82.17773
3.722	-107.65686
3.7225	-104.3335
3.723	-85.90393
3.7235	-64.25171
3.724	-33.63647
3.7245	3.32336
3.725	33.83789
3.7255	49.74976
3.726	58.81348
3.7265	45.3186
3.727	20.34302
3.7275	19.13452
3.728	37.36267
3.7285	55.99365
3.729	45.92285
3.7295	44.31152
3.73	42.59949
3.7305	29.20532
3.731	28.29895
3.7315	24.37134
3.732	40.58533
3.7325	46.72852
3.733	47.53418
3.7335	56.29578
3.734	64.151
3.7345	46.12427
3.735	37.7655
3.7355	25.37842
3.736	16.01257
3.7365	8.96301
3.737	11.58142
3.7375	25.88196
3.738	36.15417
3.7385	50.75684
3.739	55.3894
3.7395	44.41223
3.74	4.43115
3.7405	-23.46497
3.741	-52.56958
3.7415	-72.50977
3.742	-76.13525
3.7425	-77.54517
3.743	-75.93384
3.7435	-76.33667
3.744	-64.35242
3.7445	-45.01648
3.745	-24.97559
3.7455	-9.46655
3.746	-13.29346
3.7465	-14.19983
3.747	11.17859
3.7475	26.58691
3.748	22.6593
3.7485	4.93469
3.749	-24.16992
3.7495	-34.74426
3.75	-52.56958
3.7505	-58.41064
3.751	-58.51135
3.7515	-43.20374
3.752	-29.40674
3.7525	20.24231
3.753	106.54907
3.7535	186.71265
3.754	221.25549
3.7545	227.70081
3.755	216.52222
3.7555	202.62451
3.756	160.42786
3.7565	103.125
3.757	41.18958
3.7575	-13.59558
3.758	-49.0448
3.7585	-69.38782
3.759	-80.96924
3.7595	-93.35632
3.76	-96.37756
3.7605	-105.84412
3.761	-119.4397
3.7615	-121.75598
3.762	-111.58447
3.7625	-98.29102
3.763	-93.55774
3.7635	-90.33508
3.764	-81.06995
3.7645	-62.03613
3.765	-55.99365
3.7655	-31.92444
3.766	-9.26514
3.7665	15.91187
3.767	20.1416
3.7675	15.20691
3.768	17.01965
3.7685	26.28479
3.769	25.78125
3.7695	24.57275
3.77	18.53027
3.7705	27.79541
3.771	33.73718
3.7715	40.1825
3.772	33.33435
3.7725	32.7301
3.773	44.51294
3.7735	42.7002
3.774	36.35559
3.7745	18.93311
3.775	12.78992
3.7755	5.43823
3.776	21.85364
3.7765	50.65613
3.777	57.60498
3.7775	90.73792
3.778	114.60571
3.7785	102.52075
3.779	75.22888
3.7795	35.85205
3.78	-1.2085
3.7805	-64.151
3.781	-104.73633
3.7815	-120.64819
3.782	-112.28943
3.7825	-104.63562
3.783	-76.84021
3.7835	-51.15967
3.784	-24.77417
3.7845	8.8623
3.785	31.01807
3.7855	56.39648
3.786	55.49011
3.7865	47.13135
3.787	38.06763
3.7875	16.61682
3.788	-3.92761
3.7885	-20.04089
3.789	-37.46338
3.7895	-60.3241
3.79	-81.7749
3.7905	-82.17773
3.791	-71.7041
3.7915	-64.05029
3.792	-55.59082
3.7925	-51.46179
3.793	-47.33276
3.7935	-29.00391
3.794	-17.92603
3.7945	-21.85364
3.795	-30.01099
3.7955	-46.5271
3.796	-47.93701
3.7965	-26.28479
3.797	-28.09753
3.7975	-33.83789
3.798	-32.7301
3.7985	-22.55859
3.799	32.12585
3.7995	93.45703
3.8	164.55688
3.8005	220.047
3.801	228.30505
3.8015	198.49548
3.802	170.19653
3.8025	120.7489
3.803	90.13367
3.8035	55.99365
3.804	7.75452
3.8045	-42.90161
3.805	-80.16357
3.8055	-94.96765
3.806	-87.21313
3.8065	-95.67261
3.807	-92.95349
3.8075	-51.05896
3.808	1.71204
3.8085	27.19116
3.809	35.95276
3.8095	37.26196
3.81	38.47046
3.8105	36.25488
3.811	54.18091
3.8115	59.61914
3.812	67.37366
3.8125	89.52942
3.813	104.73633
3.8135	93.85986
3.814	72.20764
3.8145	62.33826
3.815	31.82373
3.8155	-10.47363
3.816	-38.06763
3.8165	-69.99207
3.817	-91.34216
3.8175	-115.91492
3.818	-126.69067
3.8185	-140.58838
3.819	-143.81104
3.8195	-139.68201
3.82	-126.08643
3.8205	-113.49792
3.821	-86.91101
3.8215	-55.08728
3.822	-11.88354
3.8225	44.0094
3.823	94.76624
3.8235	146.53015
3.824	173.82202
3.8245	172.10999
3.825	150.75989
3.8255	136.35864
3.826	118.73474
3.8265	98.59314
3.827	63.94958
3.8275	17.12036
3.828	2.5177
3.8285	3.12195
3.829	29.10461
3.8295	38.16833
3.83	27.19116
3.8305	6.74744
3.831	-27.59399
3.8315	-67.17224
3.832	-101.21155
3.8325	-131.12183
3.833	-125.28076
3.8335	-117.12341
3.834	-108.26111
3.8345	-93.65845
3.835	-82.58057
3.8355	-38.47046
3.836	-27.99683
3.8365	-29.70886
3.837	-43.60657
3.8375	-55.89294
3.838	-53.87878
3.8385	-29.40674
3.839	7.85522
3.8395	19.03381
3.84	17.12036
3.8405	2.01416
3.841	-16.01257
3.8415	-21.45081
3.842	-17.92603
3.8425	-23.26355
3.843	-24.87488
3.8435	-32.32727
3.844	-24.16992
3.8445	11.58142
3.845	40.08179
3.8455	45.72144
3.846	40.38391
3.8465	23.46497
3.847	13.99841
3.8475	0.40283
3.848	-22.15576
3.8485	-36.85913
3.849	-45.92285
3.8495	-49.64905
3.85	-36.75842
3.8505	15.60974
3.851	53.27454
3.8515	55.18799
3.852	57.30286
3.8525	61.53259
3.853	58.81348
3.8535	73.81897
3.854	89.52942
3.8545	63.24463
3.855	25.27771
3.8555	2.71912
3.856	-19.94019
3.8565	-20.34302
3.857	-35.34851
3.8575	-41.18958
3.858	-43.80798
3.8585	-16.51611
3.859	-0.10071
3.8595	15.1062
3.86	55.18799
3.8605	78.95508
3.861	99.90234
3.8615	130.11475
3.862	160.72998
3.8625	219.94629
3.863	237.6709
3.8635	214.50806
3.864	178.15247
3.8645	147.73865
3.865	112.89368
3.8655	59.41772
3.866	-7.25098
3.8665	-62.43896
3.867	-98.19031
3.8675	-131.52466
3.868	-158.81653
3.8685	-158.91724
3.869	-129.40979
3.8695	-81.47278
3.87	-66.06445
3.8705	-65.15808
3.871	-34.64355
3.8715	-16.21399
3.872	-19.83948
3.8725	-29.60815
3.873	-29.70886
3.8735	-35.2478
3.874	-47.43347
3.8745	-40.78674
3.875	-24.37134
3.8755	-6.74744
3.876	4.33044
3.8765	8.96301
3.877	0.40283
3.8775	-2.71912
3.878	15.30762
3.8785	21.75293
3.879	8.8623
3.8795	-16.91895
3.88	-47.63489
3.8805	-81.87561
3.881	-104.3335
3.8815	-115.31067
3.882	-105.74341
3.8825	-69.68994
3.883	5.23682
3.8835	45.01648
3.884	56.79932
3.8845	43.80798
3.885	26.08337
3.8855	17.82532
3.886	19.63806
3.8865	33.23364
3.887	29.70886
3.8875	9.26514
3.888	-2.5177
3.8885	-25.88196
3.889	-28.60107
3.8895	7.15027
3.89	49.64905
3.8905	43.10303
3.891	18.93311
3.8915	2.01416
3.892	-0.90637
3.8925	-3.52478
3.893	1.51062
3.8935	0.10071
3.894	-12.28638
3.8945	-33.43506
3.895	-38.36975
3.8955	-32.42798
3.896	-7.95593
3.8965	14.80408
3.897	32.22656
3.8975	34.14001
3.898	23.8678
3.8985	12.5885
3.899	2.31628
3.8995	0.60425
3.9	8.35876
3.9005	-0.40283
3.901	8.15735
3.9015	41.39099
3.902	65.46021
3.9025	81.7749
3.903	108.56323
3.9035	140.28625
3.904	162.74414
3.9045	161.93848
3.905	162.54272
3.9055	158.01086
3.906	150.9613
3.9065	123.56873
3.907	86.91101
3.9075	55.49011
3.908	65.3595
3.9085	128.10059
3.909	199.50256
3.9095	215.51514
3.91	198.59619
3.9105	188.52539
3.911	148.14148
3.9115	88.42163
3.912	24.87488
3.9125	-55.49011
3.913	-144.91882
3.9135	-205.54504
3.914	-237.77161
3.9145	-265.3656
3.915	-288.52844
3.9155	-291.7511
3.916	-286.41357
3.9165	-258.92029
3.917	-198.19336
3.9175	-147.73865
3.918	-97.48535
3.9185	-26.28479
3.919	13.29346
3.9195	71.7041
3.92	114.30359
3.9205	109.87244
3.921	81.67419
3.9215	49.0448
3.922	51.15967
3.9225	59.1156
3.923	51.05896
3.9235	14.19983
3.924	-68.68286
3.9245	-145.01953
3.925	-178.05176
3.9255	-173.01636
3.926	-163.24768
3.9265	-134.34448
3.927	-128.10059
3.9275	-133.13599
3.928	-137.46643
3.9285	-123.2666
3.929	-98.69385
3.9295	-90.93933
3.93	-84.39331
3.9305	-51.5625
3.931	18.42957
3.9315	63.64746
3.932	90.03296
3.9325	75.83313
3.933	49.54834
3.9335	17.22107
3.934	0.80566
3.9345	35.54993
3.935	75.12817
3.9355	87.21313
3.936	87.61597
3.9365	63.34534
3.937	43.80798
3.9375	40.48462
3.938	35.54993
3.9385	42.29736
3.939	57.8064
3.9395	67.37366
3.94	71.90552
3.9405	85.40039
3.941	132.33032
3.9415	165.36255
