Alessio_Russo_Right_2.c3d  



Time(s):	A_L_bicipite(μV):
0	-39.67896
0.0005	18.53027
0.001	73.11401
0.0015	100.20447
0.002	140.58838
0.0025	166.87317
0.003	193.46008
0.0035	211.99036
0.004	206.35071
0.0045	170.19653
0.005	127.69775
0.0055	84.79614
0.006	47.33276
0.0065	2.92053
0.007	-48.84338
0.0075	-92.95349
0.008	-97.58606
0.0085	-87.71667
0.009	-69.1864
0.0095	-63.94958
0.01	-65.56091
0.0105	-65.86304
0.011	-56.39648
0.0115	-34.44214
0.012	-20.84656
0.0125	13.19275
0.013	36.75842
0.0135	62.43896
0.014	80.26428
0.0145	89.63013
0.015	98.49243
0.0155	97.38464
0.016	96.47827
0.0165	90.73792
0.017	97.88818
0.0175	110.77881
0.018	106.04553
0.0185	99.49951
0.019	96.98181
0.0195	94.3634
0.02	97.98889
0.0205	67.8772
0.021	-19.03381
0.0215	-116.82129
0.022	-208.96912
0.0225	-285.20508
0.023	-312.09412
0.0235	-290.5426
0.024	-230.52063
0.0245	-175.53406
0.025	-115.10925
0.0255	-83.28552
0.026	-112.18872
0.0265	-132.12891
0.027	-118.83545
0.0275	-80.66711
0.028	-40.2832
0.0285	-20.94727
0.029	3.22266
0.0295	25.37842
0.03	85.5011
0.0305	147.63794
0.031	187.82043
0.0315	201.61743
0.032	199.50256
0.0325	186.41052
0.033	160.42786
0.0335	130.8197
0.034	122.56165
0.0345	103.22571
0.035	90.73792
0.0355	79.05579
0.036	70.79773
0.0365	69.99207
0.037	65.66162
0.0375	74.12109
0.038	72.81189
0.0385	36.25488
0.039	6.74744
0.0395	5.33752
0.04	-10.77576
0.0405	-34.44214
0.041	-61.6333
0.0415	-72.10693
0.042	-77.14233
0.0425	-68.78357
0.043	-80.56641
0.0435	-93.55774
0.044	-91.94641
0.0445	-105.44128
0.045	-102.72217
0.0455	-88.11951
0.046	-43.60657
0.0465	11.07788
0.047	36.65771
0.0475	-19.33594
0.048	-114.10217
0.0485	-193.05725
0.049	-233.34045
0.0495	-234.34753
0.05	-249.0509
0.0505	-236.66382
0.051	-188.12256
0.0515	-114.60571
0.052	-21.95435
0.0525	71.09985
0.053	150.75989
0.0535	206.25
0.054	251.77002
0.0545	277.34985
0.055	302.32544
0.0555	313.1012
0.056	301.21765
0.0565	291.54968
0.057	284.70154
0.0575	213.09814
0.058	94.3634
0.0585	10.87646
0.059	-20.54443
0.0595	-32.83081
0.06	-26.58691
0.0605	-15.1062
0.061	-3.62549
0.0615	-3.02124
0.062	-9.06372
0.0625	-18.12744
0.063	-18.93311
0.0635	-9.26514
0.064	-5.13611
0.0645	15.1062
0.065	25.78125
0.0655	29.80957
0.066	-3.02124
0.0665	-109.4696
0.067	-233.9447
0.0675	-286.01074
0.068	-323.07129
0.0685	-340.99731
0.069	-309.07288
0.0695	-254.18701
0.07	-186.71265
0.0705	-101.01013
0.071	-2.31628
0.0715	87.11243
0.072	159.62219
0.0725	211.88965
0.073	242.50488
0.0735	266.5741
0.074	294.36951
0.0745	305.44739
0.075	275.4364
0.0755	223.37036
0.076	184.19495
0.0765	154.98962
0.077	120.7489
0.0775	108.66394
0.078	70.29419
0.0785	9.97009
0.079	-23.06213
0.0795	-45.62073
0.08	-69.99207
0.0805	-87.71667
0.081	-89.02588
0.0815	-88.52234
0.082	-97.68677
0.0825	-102.52075
0.083	-119.84253
0.0835	-156.90308
0.084	-186.81335
0.0845	-171.10291
0.085	-137.0636
0.0855	-87.81738
0.086	-37.26196
0.0865	18.22815
0.087	73.71826
0.0875	115.7135
0.088	148.74573
0.0885	165.16113
0.089	158.01086
0.0895	151.96838
0.09	146.53015
0.0905	161.63635
0.091	172.21069
0.0915	149.24927
0.092	114.70642
0.0925	94.76624
0.093	64.25171
0.0935	15.91187
0.094	-54.18091
0.0945	-123.16589
0.095	-224.47815
0.0955	-298.39783
0.096	-325.48828
0.0965	-298.0957
0.097	-247.64099
0.0975	-200.10681
0.098	-128.60413
0.0985	-78.14941
0.099	-77.14233
0.0995	-88.92517
0.1	-118.93616
0.1005	-142.60254
0.101	-128.80554
0.1015	-106.04553
0.102	-75.4303
0.1025	-54.38232
0.103	-48.74268
0.1035	-33.13293
0.104	-10.87646
0.1045	15.60974
0.105	22.15576
0.1055	10.47363
0.106	16.51611
0.1065	50.85754
0.107	108.96606
0.1075	175.83618
0.108	217.83142
0.1085	217.5293
0.109	213.8031
0.1095	212.4939
0.11	190.74097
0.1105	173.5199
0.111	195.07141
0.1115	233.03833
0.112	266.87622
0.1125	267.17834
0.113	245.12329
0.1135	225.38452
0.114	203.53088
0.1145	174.42627
0.115	138.47351
0.1155	95.47119
0.116	57.20215
0.1165	10.27222
0.117	-25.78125
0.1175	-72.20764
0.118	-144.21387
0.1185	-182.08008
0.119	-170.59937
0.1195	-144.91882
0.12	-99.60022
0.1205	-54.0802
0.121	-18.93311
0.1215	9.16443
0.122	16.11328
0.1225	-9.76868
0.123	-67.27295
0.1235	-127.49634
0.124	-188.92822
0.1245	-210.98328
0.125	-186.00769
0.1255	-133.63953
0.126	-82.58057
0.1265	-20.64514
0.127	32.7301
0.1275	81.7749
0.128	132.43103
0.1285	159.01794
0.129	159.92432
0.1295	156.90308
0.13	148.14148
0.1305	144.51599
0.131	122.05811
0.1315	86.20605
0.132	50.85754
0.1325	29.10461
0.133	29.20532
0.1335	45.01648
0.134	62.9425
0.1345	55.89294
0.135	3.02124
0.1355	-89.02588
0.136	-210.17761
0.1365	-277.65198
0.137	-336.56616
0.1375	-363.4552
0.138	-363.25378
0.1385	-361.54175
0.139	-317.43164
0.1395	-259.92737
0.14	-179.8645
0.1405	-108.86536
0.141	-39.37683
0.1415	-17.22107
0.142	-15.1062
0.1425	11.48071
0.143	44.81506
0.1435	75.53101
0.144	118.02979
0.1445	153.27759
0.145	212.39319
0.1455	235.55603
0.146	207.35779
0.1465	181.67725
0.147	114.30359
0.1475	20.84656
0.148	-55.2887
0.1485	-112.18872
0.149	-159.52148
0.1495	-239.68506
0.15	-273.32153
0.1505	-250.05798
0.151	-189.73389
0.1515	-106.64978
0.152	-21.55151
0.1525	61.83472
0.153	119.64111
0.1535	138.47351
0.154	96.67969
0.1545	60.02197
0.155	89.12659
0.1555	150.8606
0.156	180.56946
0.1565	213.40027
0.157	257.00684
0.1575	308.67004
0.158	326.69678
0.1585	304.23889
0.159	274.1272
0.1595	250.36011
0.16	192.55371
0.1605	114.00146
0.161	32.52869
0.1615	-31.92444
0.162	-80.16357
0.1625	-88.32092
0.163	-77.54517
0.1635	-38.47046
0.164	12.5885
0.1645	16.01257
0.165	33.73718
0.1655	41.18958
0.166	42.8009
0.1665	41.99524
0.167	14.80408
0.1675	-26.48621
0.168	-64.85596
0.1685	-61.02905
0.169	-21.3501
0.1695	-11.88354
0.17	-18.73169
0.1705	-44.11011
0.171	-41.4917
0.1715	-44.31152
0.172	-60.62622
0.1725	-106.8512
0.173	-144.6167
0.1735	-155.29175
0.174	-159.62219
0.1745	-143.3075
0.175	-112.79297
0.1755	-62.9425
0.176	-13.39417
0.1765	48.94409
0.177	46.22498
0.1775	-13.39417
0.178	-57.50427
0.1785	-97.78748
0.179	-118.73474
0.1795	-116.61987
0.18	-117.72766
0.1805	-84.49402
0.181	-24.37134
0.1815	45.2179
0.182	109.4696
0.1825	193.15796
0.183	275.63782
0.1835	311.59058
0.184	324.38049
0.1845	308.0658
0.185	288.52844
0.1855	263.04932
0.186	217.32788
0.1865	128.80554
0.187	50.2533
0.1875	18.02673
0.188	30.01099
0.1885	35.34851
0.189	31.4209
0.1895	14.90479
0.19	1.81274
0.1905	-29.10461
0.191	-58.20923
0.1915	-87.11243
0.192	-105.74341
0.1925	-121.9574
0.193	-130.11475
0.1935	-128.90625
0.194	-135.95581
0.1945	-143.20679
0.195	-178.95813
0.1955	-213.90381
0.196	-191.24451
0.1965	-151.86768
0.197	-125.07935
0.1975	-80.66711
0.198	-13.797
0.1985	59.51843
0.199	108.56323
0.1995	139.5813
0.2	154.38538
0.2005	169.59229
0.201	152.67334
0.2015	119.84253
0.202	90.93933
0.2025	93.25562
0.203	106.14624
0.2035	74.92676
0.204	25.177
0.2045	-32.83081
0.205	-74.32251
0.2055	-97.78748
0.206	-123.16589
0.2065	-183.28857
0.207	-238.77869
0.2075	-264.25781
0.208	-272.61658
0.2085	-261.6394
0.209	-256.40259
0.2095	-254.58984
0.21	-230.72205
0.2105	-189.63318
0.211	-105.54199
0.2115	4.12903
0.212	108.76465
0.2125	186.61194
0.213	231.72913
0.2135	239.88647
0.214	232.33337
0.2145	232.53479
0.215	228.80859
0.2155	192.85583
0.216	148.84644
0.2165	112.59155
0.217	93.75916
0.2175	99.80164
0.218	124.37439
0.2185	126.18713
0.219	90.73792
0.2195	58.10852
0.22	36.65771
0.2205	29.40674
0.221	29.80957
0.2215	28.39966
0.222	22.76001
0.2225	-7.45239
0.223	-22.35718
0.2235	-44.61365
0.224	-36.85913
0.2245	-42.59949
0.225	-68.88428
0.2255	-88.82446
0.226	-78.75366
0.2265	-66.26587
0.227	-32.83081
0.2275	-6.04248
0.228	15.1062
0.2285	25.37842
0.229	29.60815
0.2295	29.40674
0.23	44.31152
0.2305	39.07471
0.231	14.80408
0.2315	2.61841
0.232	8.35876
0.2325	22.15576
0.233	33.53577
0.2335	41.4917
0.234	64.45312
0.2345	77.14233
0.235	67.8772
0.2355	52.56958
0.236	50.55542
0.2365	43.10303
0.237	33.43506
0.2375	23.76709
0.238	1.61133
0.2385	-43.70728
0.239	-163.5498
0.2395	-247.43958
0.24	-308.0658
0.2405	-340.09094
0.241	-317.83447
0.2415	-271.40808
0.242	-180.06592
0.2425	-72.10693
0.243	21.14868
0.2435	96.98181
0.244	142.40112
0.2445	174.8291
0.245	184.19495
0.2455	177.14539
0.246	184.59778
0.2465	184.29565
0.247	173.5199
0.2475	159.52148
0.248	112.99438
0.2485	79.55933
0.249	63.34534
0.2495	43.40515
0.25	42.90161
0.2505	32.02515
0.251	-51.76392
0.2515	-150.05493
0.252	-185.70557
0.2525	-175.03052
0.253	-137.86926
0.2535	-93.96057
0.254	-60.22339
0.2545	-33.13293
0.255	6.74744
0.2555	23.16284
0.256	-8.7616
0.2565	-59.92126
0.257	-129.00696
0.2575	-198.79761
0.258	-230.1178
0.2585	-206.85425
0.259	-154.78821
0.2595	-96.8811
0.26	-47.63489
0.2605	9.46655
0.261	79.66003
0.2615	127.39563
0.262	147.73865
0.2625	155.9967
0.263	154.88892
0.2635	158.61511
0.264	177.3468
0.2645	198.19336
0.265	189.43176
0.2655	129.81262
0.266	106.04553
0.2665	119.13757
0.267	138.17139
0.2675	130.61829
0.268	138.47351
0.2685	145.62378
0.269	139.5813
0.2695	132.93457
0.27	117.72766
0.2705	111.48376
0.271	101.11084
0.2715	88.62305
0.272	81.67419
0.2725	75.93384
0.273	74.2218
0.2735	82.27844
0.274	111.48376
0.2745	111.58447
0.275	94.16199
0.2755	66.97083
0.276	34.34143
0.2765	20.94727
0.277	10.57434
0.2775	-15.40833
0.278	-46.62781
0.2785	-61.73401
0.279	-73.61755
0.2795	-86.70959
0.28	-92.34924
0.2805	-86.50818
0.281	-107.15332
0.2815	-111.28235
0.282	-102.92358
0.2825	-88.92517
0.283	-76.03455
0.2835	-59.61914
0.284	-33.83789
0.2845	-28.39966
0.285	-16.01257
0.2855	-10.37292
0.286	-20.34302
0.2865	-27.19116
0.287	-33.53577
0.2875	-34.24072
0.288	-50.05188
0.2885	-86.91101
0.289	-118.02979
0.2895	-120.84961
0.29	-94.86694
0.2905	-67.8772
0.291	-53.07312
0.2915	-52.771
0.292	-29.40674
0.2925	1.61133
0.293	37.06055
0.2935	72.9126
0.294	83.08411
0.2945	74.62463
0.295	70.99915
0.2955	65.76233
0.296	80.76782
0.2965	66.46729
0.297	26.88904
0.2975	-4.22974
0.298	-17.22107
0.2985	-19.94019
0.299	-27.09045
0.2995	-24.87488
0.3	-30.71594
0.3005	-29.60815
0.301	-46.62781
0.3015	-78.55225
0.302	-114.505
0.3025	-138.27209
0.303	-187.21619
0.3035	-204.23584
0.304	-212.79602
0.3045	-208.26416
0.305	-180.36804
0.3055	-171.0022
0.306	-186.1084
0.3065	-188.92822
0.307	-154.28467
0.3075	-90.23438
0.308	-31.52161
0.3085	39.07471
0.309	96.37756
0.3095	115.91492
0.31	98.49243
0.3105	98.19031
0.311	105.34058
0.3115	117.52625
0.312	89.63013
0.3125	58.41064
0.313	54.18091
0.3135	57.40356
0.314	73.01331
0.3145	92.44995
0.315	108.05969
0.3155	126.9928
0.316	150.8606
0.3165	167.37671
0.317	158.61511
0.3175	157.40662
0.318	156.19812
0.3185	143.81104
0.319	125.88501
0.3195	93.75916
0.32	79.05579
0.3205	57.50427
0.321	44.31152
0.3215	51.26038
0.322	48.23914
0.3225	11.68213
0.323	-27.6947
0.3235	-45.2179
0.324	-51.66321
0.3245	-72.30835
0.325	-102.42004
0.3255	-119.64111
0.326	-108.46252
0.3265	-108.36182
0.327	-79.55933
0.3275	-53.47595
0.328	-30.51453
0.3285	-18.02673
0.329	-2.41699
0.3295	12.68921
0.33	25.37842
0.3305	28.70178
0.331	51.15967
0.3315	76.23596
0.332	124.57581
0.3325	178.35388
0.333	216.01868
0.3335	227.70081
0.334	198.6969
0.3345	166.26892
0.335	138.07068
0.3355	104.93774
0.336	81.37207
0.3365	64.55383
0.337	49.14551
0.3375	47.33276
0.338	29.80957
0.3385	20.74585
0.339	-16.81824
0.3395	-58.20923
0.34	-90.83862
0.3405	-132.22961
0.341	-157.10449
0.3415	-182.58362
0.342	-200.20752
0.3425	-197.4884
0.343	-178.25317
0.3435	-149.45068
0.344	-115.00854
0.3445	-72.71118
0.345	-15.50903
0.3455	22.76001
0.346	24.16992
0.3465	32.7301
0.347	59.51843
0.3475	84.49402
0.348	91.64429
0.3485	71.50269
0.349	58.10852
0.3495	52.36816
0.35	25.57983
0.3505	-8.7616
0.351	-25.37842
0.3515	-11.38
0.352	27.89612
0.3525	59.21631
0.353	99.49951
0.3535	117.92908
0.354	127.49634
0.3545	118.63403
0.355	104.3335
0.3555	86.70959
0.356	81.7749
0.3565	67.47437
0.357	45.2179
0.3575	14.40125
0.358	-31.82373
0.3585	-103.62854
0.359	-142.30042
0.3595	-142.70325
0.36	-115.31067
0.3605	-93.55774
0.361	-76.94092
0.3615	-70.3949
0.362	-54.78516
0.3625	-82.88269
0.363	-99.90234
0.3635	-89.02588
0.364	-62.03613
0.3645	-26.48621
0.365	18.12744
0.3655	76.03455
0.366	102.72217
0.3665	101.11084
0.367	88.82446
0.3675	51.26038
0.368	17.82532
0.3685	-14.90479
0.369	-54.28162
0.3695	-116.11633
0.37	-174.8291
0.3705	-209.17053
0.371	-274.02649
0.3715	-320.6543
0.372	-336.06262
0.3725	-305.95093
0.373	-229.41284
0.3735	-152.1698
0.374	-77.44446
0.3745	-34.24072
0.375	11.48071
0.3755	49.14551
0.376	105.6427
0.3765	167.77954
0.377	185.00061
0.3775	174.12415
0.378	201.41602
0.3785	243.51196
0.379	274.42932
0.3795	294.77234
0.38	299.60632
0.3805	288.93127
0.381	254.99268
0.3815	215.0116
0.382	169.08875
0.3825	113.59863
0.383	68.68286
0.3835	4.12903
0.384	-37.96692
0.3845	-50.65613
0.385	-50.95825
0.3855	-35.54993
0.386	-41.59241
0.3865	-52.56958
0.387	-79.55933
0.3875	-86.70959
0.388	-67.8772
0.3885	-37.66479
0.389	-12.18567
0.3895	12.48779
0.39	52.97241
0.3905	115.61279
0.391	147.53723
0.3915	159.62219
0.392	161.43494
0.3925	151.16272
0.393	117.42554
0.3935	65.15808
0.394	9.36584
0.3945	-12.38708
0.395	-19.53735
0.3955	-14.80408
0.396	-52.97241
0.3965	-82.88269
0.397	-90.93933
0.3975	-104.13208
0.398	-134.5459
0.3985	-137.56714
0.399	-116.41846
0.3995	-69.68994
0.4	-36.35559
0.4005	0.90637
0.401	28.70178
0.4015	45.92285
0.402	58.30994
0.4025	51.15967
0.403	47.63489
0.4035	49.54834
0.404	42.39807
0.4045	33.63647
0.405	38.26904
0.4055	32.7301
0.406	40.38391
0.4065	45.92285
0.407	21.65222
0.4075	8.66089
0.408	2.31628
0.4085	6.04248
0.409	11.88354
0.4095	19.83948
0.41	9.56726
0.4105	-64.151
0.411	-137.86926
0.4115	-162.03918
0.412	-162.34131
0.4125	-143.91174
0.413	-115.91492
0.4135	-83.68835
0.414	-58.61206
0.4145	-59.31702
0.415	-86.91101
0.4155	-110.07385
0.416	-126.08643
0.4165	-138.77563
0.417	-112.08801
0.4175	-73.71826
0.418	-25.57983
0.4185	10.77576
0.419	38.47046
0.4195	68.68286
0.42	69.99207
0.4205	74.02039
0.421	56.09436
0.4215	28.60107
0.422	19.53735
0.4225	32.62939
0.423	47.03064
0.4235	70.89844
0.424	110.6781
0.4245	146.02661
0.425	156.70166
0.4255	148.64502
0.426	95.77332
0.4265	-12.89062
0.427	-89.12659
0.4275	-135.95581
0.428	-165.26184
0.4285	-171.20361
0.429	-181.073
0.4295	-189.63318
0.43	-189.43176
0.4305	-185.30273
0.431	-175.93689
0.4315	-155.896
0.432	-121.35315
0.4325	-82.68127
0.433	-43.10303
0.4335	0.80566
0.434	59.21631
0.4345	105.44128
0.435	143.91174
0.4355	175.73547
0.436	198.79761
0.4365	224.47815
0.437	246.33179
0.4375	266.37268
0.438	294.57092
0.4385	305.44739
0.439	276.04065
0.4395	239.58435
0.44	215.61584
0.4405	171.80786
0.441	136.05652
0.4415	110.57739
0.442	87.11243
0.4425	50.55542
0.443	21.75293
0.4435	12.68921
0.444	-11.38
0.4445	-29.00391
0.445	-34.64355
0.4455	-32.22656
0.446	-39.27612
0.4465	-33.13293
0.447	-43.70728
0.4475	-44.51294
0.448	-33.23364
0.4485	-46.42639
0.449	-84.09119
0.4495	-115.91492
0.45	-125.07935
0.4505	-134.84802
0.451	-130.11475
0.4515	-103.52783
0.452	-80.76782
0.4525	-49.14551
0.453	-26.18408
0.4535	-4.73328
0.454	30.11169
0.4545	66.36658
0.455	87.81738
0.4555	89.328
0.456	76.33667
0.4565	50.95825
0.457	37.26196
0.4575	32.32727
0.458	19.73877
0.4585	-13.69629
0.459	-13.29346
0.4595	-18.32886
0.46	-41.39099
0.4605	-55.49011
0.461	-64.95667
0.4615	-47.03064
0.462	-26.08337
0.4625	-16.01257
0.463	-25.27771
0.4635	-34.54285
0.464	-31.11877
0.4645	-16.21399
0.465	2.92053
0.4655	4.93469
0.466	22.45789
0.4665	40.08179
0.467	46.5271
0.4675	31.62231
0.468	36.25488
0.4685	49.74976
0.469	62.33826
0.4695	71.09985
0.47	77.04163
0.4705	65.25879
0.471	63.74817
0.4715	67.57507
0.472	83.08411
0.4725	70.99915
0.473	62.8418
0.4735	42.59949
0.474	21.85364
0.4745	15.81116
0.475	6.64673
0.4755	-4.53186
0.476	-32.52869
0.4765	-65.15808
0.477	-98.49243
0.4775	-107.15332
0.478	-105.94482
0.4785	-94.96765
0.479	-77.04163
0.4795	-45.82214
0.48	-41.18958
0.4805	-70.49561
0.481	-98.69385
0.4815	-122.76306
0.482	-112.89368
0.4825	-90.43579
0.483	-62.9425
0.4835	-36.75842
0.484	-25.57983
0.4845	-11.58142
0.485	1.71204
0.4855	15.20691
0.486	-18.42957
0.4865	-100.10376
0.487	-191.1438
0.4875	-235.05249
0.488	-251.4679
0.4885	-251.26648
0.489	-221.85974
0.4895	-211.99036
0.49	-213.09814
0.4905	-212.19177
0.491	-180.87158
0.4915	-114.505
0.492	-45.72144
0.4925	11.48071
0.493	27.49329
0.4935	19.53735
0.494	48.03772
0.4945	116.31775
0.495	166.36963
0.4955	203.53088
0.496	220.047
0.4965	230.21851
0.497	223.67249
0.4975	233.64258
0.498	245.92896
0.4985	223.37036
0.499	184.79919
0.4995	140.08484
0.5	118.43262
0.5005	123.66943
0.501	138.57422
0.5015	133.84094
0.502	119.84253
0.5025	120.64819
0.503	106.8512
0.5035	105.54199
0.504	135.75439
0.5045	143.4082
0.505	99.90234
0.5055	69.99207
0.506	51.76392
0.5065	57.8064
0.507	70.09277
0.5075	2.61841
0.508	-70.69702
0.5085	-105.03845
0.509	-115.31067
0.5095	-110.47668
0.51	-91.44287
0.5105	-57.10144
0.511	-14.19983
0.5115	10.0708
0.512	20.74585
0.5125	13.19275
0.513	24.77417
0.5135	25.57983
0.514	10.67505
0.5145	-7.65381
0.515	-17.52319
0.5155	-10.67505
0.516	8.45947
0.5165	33.83789
0.517	37.46338
0.5175	34.84497
0.518	24.06921
0.5185	19.73877
0.519	6.64673
0.5195	-4.02832
0.52	-35.14709
0.5205	-47.13135
0.521	-54.88586
0.5215	-60.62622
0.522	-49.54834
0.5225	-23.36426
0.523	11.07788
0.5235	32.12585
0.524	38.974
0.5245	19.83948
0.525	-71.40198
0.5255	-198.79761
0.526	-381.68335
0.5265	-548.25439
0.527	-634.76257
0.5275	-607.67212
0.528	-506.56128
0.5285	-354.49219
0.529	-205.94788
0.5295	-54.38232
0.53	75.63171
0.5305	189.9353
0.531	272.01233
0.5315	316.42456
0.532	345.42847
0.5325	366.27502
0.533	378.86353
0.5335	382.2876
0.534	371.81396
0.5345	334.24988
0.535	285.10437
0.5355	218.73779
0.536	184.09424
0.5365	166.87317
0.537	152.06909
0.5375	138.97705
0.538	126.08643
0.5385	117.42554
0.539	114.90784
0.5395	83.99048
0.54	51.15967
0.5405	32.32727
0.541	29.20532
0.5415	20.34302
0.542	10.17151
0.5425	-40.78674
0.543	-119.13757
0.5435	-174.92981
0.544	-177.24609
0.5445	-120.14465
0.545	-65.66162
0.5455	2.31628
0.546	55.2887
0.5465	89.83154
0.547	85.19897
0.5475	79.76074
0.548	64.151
0.5485	30.41382
0.549	9.56726
0.5495	6.84814
0.55	27.79541
0.5505	58.81348
0.551	81.17065
0.5515	86.70959
0.552	86.20605
0.5525	61.53259
0.553	55.49011
0.5535	57.9071
0.554	32.7301
0.5545	-5.84106
0.555	-40.2832
0.5555	-72.10693
0.556	-125.58289
0.5565	-200.10681
0.557	-279.56543
0.5575	-348.14758
0.558	-386.92017
0.5585	-408.37097
0.559	-420.25452
0.5595	-389.03503
0.56	-345.32776
0.5605	-283.79517
0.561	-245.52612
0.5615	-235.1532
0.562	-204.73938
0.5625	-182.28149
0.563	-135.95581
0.5635	-129.81262
0.564	-119.33899
0.5645	-105.94482
0.565	-101.21155
0.5655	-69.28711
0.566	19.94019
0.5665	128.90625
0.567	243.20984
0.5675	334.04846
0.568	413.00354
0.5685	446.94214
0.569	447.84851
0.5695	403.33557
0.57	347.64404
0.5705	280.57251
0.571	226.99585
0.5715	207.65991
0.572	197.3877
0.5725	201.51672
0.573	205.74646
0.5735	185.80627
0.574	143.10608
0.5745	93.0542
0.575	76.84021
0.5755	83.08411
0.576	74.52393
0.5765	60.22339
0.577	36.4563
0.5775	12.89062
0.578	13.797
0.5785	-1.00708
0.579	-44.41223
0.5795	-76.7395
0.58	-87.01172
0.5805	-81.06995
0.581	-44.0094
0.5815	-12.78992
0.582	34.94568
0.5825	45.41931
0.583	30.2124
0.5835	37.36267
0.584	50.15259
0.5845	52.36816
0.585	27.39258
0.5855	1.61133
0.586	-27.6947
0.5865	-41.08887
0.587	-75.63171
0.5875	-88.52234
0.588	-107.65686
0.5885	-108.96606
0.589	-84.69543
0.5895	-59.92126
0.59	-47.33276
0.5905	-46.62781
0.591	-74.82605
0.5915	-108.86536
0.592	-123.56873
0.5925	-102.52075
0.593	-63.84888
0.5935	-21.14868
0.594	25.57983
0.5945	53.77808
0.595	46.02356
0.5955	4.22974
0.596	-41.79382
0.5965	-66.06445
0.597	-84.89685
0.5975	-63.34534
0.598	-31.72302
0.5985	11.68213
0.599	51.76392
0.5995	9.26514
0.6	-95.87402
0.6005	-193.46008
0.601	-225.28381
0.6015	-193.86292
0.602	-162.84485
0.6025	-132.43103
0.603	-84.89685
0.6035	-4.83398
0.604	68.48145
0.6045	153.57971
0.605	228.10364
0.6055	275.4364
0.606	239.18152
0.6065	172.21069
0.607	133.94165
0.6075	103.93066
0.608	81.87561
0.6085	65.15808
0.609	49.0448
0.6095	38.26904
0.61	72.20764
0.6105	111.8866
0.611	150.55847
0.6115	173.01636
0.612	172.91565
0.6125	161.0321
0.613	147.73865
0.6135	121.85669
0.614	86.60889
0.6145	72.20764
0.615	60.72693
0.6155	25.47913
0.616	-26.3855
0.6165	-57.20215
0.617	-53.67737
0.6175	-43.20374
0.618	-12.99133
0.6185	-8.15735
0.619	-41.4917
0.6195	-77.74658
0.62	-110.98022
0.6205	-120.95032
0.621	-97.58606
0.6215	-58.51135
0.622	-23.96851
0.6225	12.38708
0.623	-11.88354
0.6235	-53.07312
0.624	-78.45154
0.6245	-95.77332
0.625	-134.34448
0.6255	-179.76379
0.626	-194.26575
0.6265	-186.00769
0.627	-165.36255
0.6275	-129.40979
0.628	-110.37598
0.6285	-88.52234
0.629	-60.22339
0.6295	-27.6947
0.63	-63.24463
0.6305	-105.54199
0.631	-72.40906
0.6315	-15.30762
0.632	30.41382
0.6325	95.77332
0.633	179.8645
0.6335	262.74719
0.634	337.77466
0.6345	383.69751
0.635	345.73059
0.6355	262.64648
0.636	152.57263
0.6365	46.32568
0.637	-50.95825
0.6375	-132.0282
0.638	-166.97388
0.6385	-152.87476
0.639	-111.18164
0.6395	-58.61206
0.64	16.41541
0.6405	73.71826
0.641	102.11792
0.6415	57.50427
0.642	0.80566
0.6425	-6.04248
0.643	17.92603
0.6435	58.00781
0.644	92.04712
0.6445	96.37756
0.645	118.2312
0.6455	147.23511
0.646	165.86609
0.6465	178.45459
0.647	182.3822
0.6475	118.63403
0.648	54.98657
0.6485	15.1062
0.649	25.68054
0.6495	24.37134
0.65	16.3147
0.6505	-1.2085
0.651	-19.23523
0.6515	-48.13843
0.652	-58.10852
0.6525	-40.98816
0.653	-37.56409
0.6535	-45.72144
0.654	-48.44055
0.6545	-60.72693
0.655	-46.5271
0.6555	-4.22974
0.656	34.34143
0.6565	46.62781
0.657	50.55542
0.6575	18.42957
0.658	-47.63489
0.6585	-104.03137
0.659	-143.71033
0.6595	-200.81177
0.66	-307.96509
0.6605	-352.47803
0.661	-342.50793
0.6615	-311.18774
0.662	-272.71729
0.6625	-222.96753
0.663	-150.55847
0.6635	-51.96533
0.664	23.36426
0.6645	73.31543
0.665	125.18005
0.6655	160.32715
0.666	193.56079
0.6665	205.74646
0.667	194.26575
0.6675	169.59229
0.668	165.66467
0.6685	176.33972
0.669	178.25317
0.6695	167.77954
0.67	168.18237
0.6705	150.35706
0.671	116.51917
0.6715	60.22339
0.672	29.20532
0.6725	4.73328
0.673	-5.53894
0.6735	-11.48071
0.674	1.00708
0.6745	11.48071
0.675	7.04956
0.6755	-34.14001
0.676	-82.88269
0.6765	-103.72925
0.677	-102.42004
0.6775	-68.28003
0.678	-39.98108
0.6785	-34.34143
0.679	-32.12585
0.6795	-35.85205
0.68	-4.73328
0.6805	9.46655
0.681	-16.41541
0.6815	-51.86462
0.682	-57.20215
0.6825	-41.59241
0.683	16.01257
0.6835	46.82922
0.684	49.74976
0.6845	36.15417
0.685	53.27454
0.6855	68.48145
0.686	34.64355
0.6865	-14.90479
0.687	-47.43347
0.6875	-102.11792
0.688	-127.19421
0.6885	-126.89209
0.689	-90.5365
0.6895	-52.56958
0.69	-53.17383
0.6905	-29.50745
0.691	14.60266
0.6915	67.37366
0.692	111.18164
0.6925	136.25793
0.693	154.6875
0.6935	152.06909
0.694	121.45386
0.6945	54.0802
0.695	-22.05505
0.6955	-92.24854
0.696	-168.18237
0.6965	-212.69531
0.697	-216.52222
0.6975	-218.33496
0.698	-246.02966
0.6985	-216.92505
0.699	-173.31848
0.6995	-149.85352
0.7	-99.2981
0.7005	-52.46887
0.701	30.41382
0.7015	114.00146
0.702	181.47583
0.7025	201.41602
0.703	222.26257
0.7035	237.36877
0.704	199.40186
0.7045	139.07776
0.705	77.34375
0.7055	27.89612
0.706	-16.3147
0.7065	-65.66162
0.707	-79.05579
0.7075	-27.19116
0.708	40.68604
0.7085	72.61047
0.709	43.90869
0.7095	-52.8717
0.71	-143.10608
0.7105	-174.72839
0.711	-135.95581
0.7115	-71.50269
0.712	-4.33044
0.7125	69.79065
0.713	151.86768
0.7135	224.47815
0.714	282.48596
0.7145	307.26013
0.715	298.90137
0.7155	266.87622
0.716	222.66541
0.7165	177.44751
0.717	153.68042
0.7175	110.37598
0.718	73.91968
0.7185	46.72852
0.719	35.85205
0.7195	19.03381
0.72	2.21558
0.7205	-1.81274
0.721	-14.90479
0.7215	-0.50354
0.722	25.177
0.7225	29.20532
0.723	35.65063
0.7235	-4.02832
0.724	-127.69775
0.7245	-270.09888
0.725	-347.44263
0.7255	-363.75732
0.726	-353.48511
0.7265	-354.19006
0.727	-346.13342
0.7275	-296.28296
0.728	-223.67249
0.7285	-133.13599
0.729	-41.89453
0.7295	61.12976
0.73	138.67493
0.7305	191.84875
0.731	233.74329
0.7315	265.76843
0.732	298.49854
0.7325	321.05713
0.733	311.18774
0.7335	295.37659
0.734	271.40808
0.7345	224.07532
0.735	177.24609
0.7355	123.56873
0.736	-13.29346
0.7365	-129.10767
0.737	-202.5238
0.7375	-243.41125
0.738	-251.16577
0.7385	-257.20825
0.739	-252.37427
0.7395	-232.13196
0.74	-189.53247
0.7405	-165.26184
0.741	-135.55298
0.7415	-111.8866
0.742	-75.73242
0.7425	-31.4209
0.743	-11.88354
0.7435	10.0708
0.744	45.2179
0.7445	68.58215
0.745	64.85596
0.7455	70.99915
0.746	80.06287
0.7465	111.8866
0.747	175.53406
0.7475	228.80859
0.748	265.96985
0.7485	276.44348
0.749	267.17834
0.7495	217.63
0.75	112.89368
0.7505	-8.96301
0.751	-94.3634
0.7515	-163.24768
0.752	-196.1792
0.7525	-206.95496
0.753	-152.27051
0.7535	-67.17224
0.754	-10.47363
0.7545	32.42798
0.755	79.76074
0.7555	121.65527
0.756	154.6875
0.7565	161.83777
0.757	178.05176
0.7575	194.16504
0.758	196.78345
0.7585	204.63867
0.759	202.62451
0.7595	177.54822
0.76	131.32324
0.7605	69.28711
0.761	24.16992
0.7615	7.15027
0.762	7.15027
0.7625	7.65381
0.763	-3.62549
0.7635	-6.14319
0.764	-3.42407
0.7645	-5.13611
0.765	8.35876
0.7655	20.94727
0.766	31.82373
0.7665	18.12744
0.767	-3.22266
0.7675	-32.52869
0.768	-57.10144
0.7685	-47.7356
0.769	-47.03064
0.7695	-58.10852
0.77	-58.81348
0.7705	-100.70801
0.771	-115.20996
0.7715	-127.09351
0.772	-145.8252
0.7725	-151.36414
0.773	-131.32324
0.7735	-92.75208
0.774	-43.90869
0.7745	-1.3092
0.775	-28.60107
0.7755	-68.68286
0.776	-78.85437
0.7765	-115.61279
0.777	-190.33813
0.7775	-235.25391
0.778	-213.40027
0.7785	-158.21228
0.779	-86.50818
0.7795	3.8269
0.78	77.14233
0.7805	140.08484
0.781	157.80945
0.7815	166.0675
0.782	146.63086
0.7825	127.49634
0.783	126.38855
0.7835	136.56006
0.784	84.2926
0.7845	14.50195
0.785	-13.99841
0.7855	-41.79382
0.786	-74.82605
0.7865	-137.0636
0.787	-231.427
0.7875	-339.08386
0.788	-375.84229
0.7885	-333.2428
0.789	-263.25073
0.7895	-184.8999
0.79	-85.70251
0.7905	21.45081
0.791	137.66785
0.7915	246.33179
0.792	317.33093
0.7925	324.78333
0.793	292.85889
0.7935	259.42383
0.794	243.51196
0.7945	246.4325
0.795	248.84949
0.7955	242.10205
0.796	202.12097
0.7965	182.88574
0.797	176.33972
0.7975	160.52856
0.798	123.16589
0.7985	72.30835
0.799	20.74585
0.7995	-5.13611
0.8	-18.02673
0.8005	-9.76868
0.801	-10.97717
0.8015	-12.89062
0.802	-35.34851
0.8025	-51.15967
0.803	-48.03772
0.8035	-26.18408
0.804	-28.29895
0.8045	-55.2887
0.805	-78.75366
0.8055	-79.55933
0.806	-64.151
0.8065	-38.36975
0.807	15.81116
0.8075	69.68994
0.808	124.07227
0.8085	128.10059
0.809	123.66943
0.8095	114.4043
0.81	108.96606
0.8105	76.13525
0.811	32.83081
0.8115	11.38
0.812	10.37292
0.8125	2.71912
0.813	-18.53027
0.8135	-23.56567
0.814	-1.2085
0.8145	17.6239
0.815	26.48621
0.8155	21.14868
0.816	5.94177
0.8165	-19.53735
0.817	-61.73401
0.8175	-105.84412
0.818	-156.60095
0.8185	-187.71973
0.819	-207.96204
0.8195	-221.96045
0.82	-223.26965
0.8205	-215.31372
0.821	-227.70081
0.8215	-188.6261
0.822	-108.76465
0.8225	-25.27771
0.823	36.55701
0.8235	88.72375
0.824	144.41528
0.8245	193.05725
0.825	201.81885
0.8255	186.61194
0.826	150.35706
0.8265	115.7135
0.827	57.20215
0.8275	-38.77258
0.828	-118.93616
0.8285	-176.94397
0.829	-222.26257
0.8295	-302.62756
0.83	-368.38989
0.8305	-357.00989
0.831	-295.67871
0.8315	-211.78894
0.832	-109.67102
0.8325	-6.84814
0.833	90.73792
0.8335	177.24609
0.834	232.43408
0.8345	259.92737
0.835	262.14294
0.8355	245.32471
0.836	260.63232
0.8365	289.13269
0.837	323.37341
0.8375	323.67554
0.838	311.59058
0.8385	249.35303
0.839	165.66467
0.8395	84.99756
0.84	2.01416
0.8405	-105.84412
0.841	-176.54114
0.8415	-199.80469
0.842	-202.4231
0.8425	-207.35779
0.843	-189.9353
0.8435	-143.91174
0.844	-82.17773
0.8445	-32.7301
0.845	18.8324
0.8455	60.52551
0.846	92.75208
0.8465	101.51367
0.847	83.18481
0.8475	79.2572
0.848	99.80164
0.8485	88.0188
0.849	65.86304
0.8495	26.08337
0.85	-5.84106
0.8505	-15.40833
0.851	-14.50195
0.8515	-12.99133
0.852	0.70496
0.8525	30.81665
0.853	54.78516
0.8535	29.80957
0.854	-21.45081
0.8545	-82.78198
0.855	-138.77563
0.8555	-179.26025
0.856	-195.97778
0.8565	-197.68982
0.857	-216.62292
0.8575	-220.65125
0.858	-186.81335
0.8585	-112.28943
0.859	-43.50586
0.8595	16.81824
0.86	64.85596
0.8605	106.75049
0.861	122.76306
0.8615	151.46484
0.862	184.59778
0.8625	211.68823
0.863	218.73779
0.8635	232.53479
0.864	189.83459
0.8645	90.33508
0.865	-44.0094
0.8655	-176.74255
0.866	-292.15393
0.8665	-364.56299
0.867	-354.49219
0.8675	-301.72119
0.868	-235.85815
0.8685	-156.29883
0.869	-70.09277
0.8695	21.24939
0.87	89.73083
0.8705	126.48926
0.871	136.86218
0.8715	110.37598
0.872	88.62305
0.8725	50.354
0.873	6.84814
0.8735	-17.92603
0.874	14.19983
0.8745	74.92676
0.875	114.505
0.8755	153.3783
0.876	155.19104
0.8765	129.5105
0.877	84.69543
0.8775	46.5271
0.878	-0.40283
0.8785	-59.1156
0.879	-98.29102
0.8795	-91.94641
0.88	-37.66479
0.8805	23.46497
0.881	69.38782
0.8815	107.75757
0.882	121.85669
0.8825	126.48926
0.883	117.32483
0.8835	106.04553
0.884	110.98022
0.8845	105.84412
0.885	49.85046
0.8855	-14.40125
0.886	-38.67188
0.8865	-25.27771
0.887	8.8623
0.8875	45.82214
0.888	74.32251
0.8885	110.57739
0.889	122.25952
0.8895	124.57581
0.89	117.62695
0.8905	115.81421
0.891	103.93066
0.8915	102.42004
0.892	94.76624
0.8925	81.57349
0.893	56.39648
0.8935	33.9386
0.894	8.7616
0.8945	-15.40833
0.895	-74.72534
0.8955	-143.50891
0.896	-251.06506
0.8965	-312.59766
0.897	-314.51111
0.8975	-268.08472
0.898	-206.65283
0.8985	-160.72998
0.899	-114.20288
0.8995	-65.25879
0.9	-39.57825
0.9005	-44.51294
0.901	-65.96375
0.9015	-84.39331
0.902	-74.12109
0.9025	-55.99365
0.903	-31.4209
0.9035	-2.11487
0.904	21.85364
0.9045	36.4563
0.905	59.21631
0.9055	55.69153
0.906	29.40674
0.9065	23.76709
0.907	49.0448
0.9075	58.81348
0.908	75.63171
0.9085	87.21313
0.909	64.45312
0.9095	-32.42798
0.91	-157.30591
0.9105	-210.58044
0.911	-198.49548
0.9115	-164.25476
0.912	-133.63953
0.9125	-100.10376
0.913	-54.88586
0.9135	22.05505
0.914	121.9574
0.9145	185.60486
0.915	232.03125
0.9155	230.01709
0.916	182.28149
0.9165	151.36414
0.917	142.19971
0.9175	120.7489
0.918	80.16357
0.9185	27.19116
0.919	6.74744
0.9195	21.55151
0.92	49.54834
0.9205	71.90552
0.921	84.2926
0.9215	65.76233
0.922	52.26746
0.9225	54.38232
0.923	46.62781
0.9235	-9.66797
0.924	-81.37207
0.9245	-130.31616
0.925	-122.25952
0.9255	-83.99048
0.926	-44.21082
0.9265	7.65381
0.927	76.03455
0.9275	138.17139
0.928	173.21777
0.9285	183.5907
0.929	187.61902
0.9295	187.51831
0.93	174.12415
0.9305	139.17847
0.931	119.84253
0.9315	100.30518
0.932	76.33667
0.9325	50.05188
0.933	44.61365
0.9335	50.65613
0.934	53.97949
0.9345	51.66321
0.935	22.6593
0.9355	-26.18408
0.936	-93.55774
0.9365	-161.43494
0.937	-226.29089
0.9375	-246.73462
0.938	-252.07214
0.9385	-225.68665
0.939	-184.29565
0.9395	-134.74731
0.94	-71.20056
0.9405	-28.80249
0.941	15.40833
0.9415	58.10852
0.942	92.95349
0.9425	106.04553
0.943	69.1864
0.9435	9.06372
0.944	-4.53186
0.9445	5.94177
0.945	11.98425
0.9455	28.09753
0.946	83.48694
0.9465	115.31067
0.947	91.14075
0.9475	40.78674
0.948	-19.73877
0.9485	-111.38306
0.949	-235.1532
0.9495	-329.61731
0.95	-362.04529
0.9505	-361.64246
0.951	-324.07837
0.9515	-259.22241
0.952	-165.9668
0.9525	-72.00623
0.953	38.16833
0.9535	134.5459
0.954	197.58911
0.9545	250.76294
0.955	280.97534
0.9555	307.36084
0.956	338.88245
0.9565	314.71252
0.957	285.10437
0.9575	267.58118
0.958	195.57495
0.9585	107.75757
0.959	49.54834
0.9595	-7.15027
0.96	-110.17456
0.9605	-208.96912
0.961	-262.34436
0.9615	-269.29321
0.962	-272.01233
0.9625	-280.67322
0.963	-267.37976
0.9635	-219.34204
0.964	-147.23511
0.9645	-85.09827
0.965	-21.85364
0.9655	2.71912
0.966	14.19983
0.9665	33.83789
0.967	38.26904
0.9675	63.34534
0.968	90.03296
0.9685	136.76147
0.969	195.67566
0.9695	261.74011
0.97	319.54651
0.9705	345.22705
0.971	340.7959
0.9715	331.12793
0.972	316.72668
0.9725	276.34277
0.973	239.58435
0.9735	199.09973
0.974	137.26501
0.9745	74.92676
0.975	0.10071
0.9755	-86.60889
0.976	-154.18396
0.9765	-186.91406
0.977	-185.30273
0.9775	-163.24768
0.978	-117.92908
0.9785	-77.34375
0.979	-64.55383
0.9795	-72.71118
0.98	-79.55933
0.9805	-70.59631
0.981	-75.32959
0.9815	-87.41455
0.982	-87.61597
0.9825	-71.7041
0.983	-60.22339
0.9835	-30.41382
0.984	5.63965
0.9845	18.63098
0.985	23.8678
0.9855	16.51611
0.986	30.31311
0.9865	58.81348
0.987	98.69385
0.9875	118.13049
0.988	114.70642
0.9885	82.17773
0.989	44.0094
0.9895	19.53735
0.99	2.5177
0.9905	-59.21631
0.991	-135.8551
0.9915	-171.90857
0.992	-154.58679
0.9925	-118.43262
0.993	-107.05261
0.9935	-100.50659
0.994	-95.97473
0.9945	-80.56641
0.995	-53.87878
0.9955	-27.6947
0.996	0
0.9965	21.45081
0.997	19.43665
0.9975	12.28638
0.998	2.61841
0.9985	18.02673
0.999	77.64587
0.9995	132.22961
1	131.82678
1.0005	119.4397
1.001	110.37598
1.0015	103.02429
1.002	95.97473
1.0025	87.71667
1.003	58.61206
1.0035	10.57434
1.004	-33.13293
1.0045	-61.23047
1.005	-84.49402
1.0055	-134.64661
1.006	-176.23901
1.0065	-190.13672
1.007	-174.12415
1.0075	-141.29333
1.008	-96.57898
1.0085	-66.06445
1.009	-37.46338
1.0095	-31.62231
1.01	-6.14319
1.0105	15.40833
1.011	15.30762
1.0115	-13.99841
1.012	-81.27136
1.0125	-120.84961
1.013	-133.94165
1.0135	-110.27527
1.014	-85.70251
1.0145	-77.84729
1.015	-51.86462
1.0155	-16.71753
1.016	30.81665
1.0165	64.45312
1.017	74.12109
1.0175	71.90552
1.018	78.55225
1.0185	69.58923
1.019	71.50269
1.0195	66.06445
1.02	45.52002
1.0205	36.4563
1.021	74.62463
1.0215	103.82996
1.022	127.69775
1.0225	144.11316
1.023	168.78662
1.0235	186.61194
1.024	203.83301
1.0245	211.78894
1.025	221.96045
1.0255	198.19336
1.026	174.62769
1.0265	145.8252
1.027	104.4342
1.0275	50.55542
1.028	-3.52478
1.0285	-34.14001
1.029	-55.49011
1.0295	-61.53259
1.03	-59.01489
1.0305	-31.82373
1.031	8.45947
1.0315	40.58533
1.032	42.90161
1.0325	16.81824
1.033	-37.86621
1.0335	-118.53333
1.034	-179.15955
1.0345	-200.81177
1.035	-210.17761
1.0355	-251.5686
1.036	-265.66772
1.0365	-241.4978
1.037	-195.97778
1.0375	-123.77014
1.038	-69.08569
1.0385	-10.87646
1.039	54.38232
1.0395	108.56323
1.04	139.68201
1.0405	138.67493
1.041	154.38538
1.0415	146.32874
1.042	117.62695
1.0425	87.41455
1.043	80.76782
1.0435	100.30518
1.044	104.03137
1.0445	83.58765
1.045	60.3241
1.0455	43.90869
1.046	47.8363
1.0465	51.46179
1.047	42.59949
1.0475	40.2832
1.048	38.87329
1.0485	0.60425
1.049	-39.67896
1.0495	-40.2832
1.05	-29.00391
1.0505	-28.09753
1.051	-8.15735
1.0515	10.77576
1.052	0.60425
1.0525	-8.7616
1.053	-6.04248
1.0535	-7.45239
1.054	-21.65222
1.0545	-37.06055
1.055	-36.65771
1.0555	-59.41772
1.056	-85.40039
1.0565	-200.30823
1.057	-355.80139
1.0575	-422.16797
1.058	-392.45911
1.0585	-313.70544
1.059	-219.44275
1.0595	-115.7135
1.06	2.71912
1.0605	75.83313
1.061	113.69934
1.0615	108.66394
1.062	81.37207
1.0625	90.93933
1.063	123.46802
1.0635	140.28625
1.064	154.48608
1.0645	165.06042
1.065	193.46008
1.0655	205.54504
1.066	214.20593
1.0665	224.27673
1.067	222.66541
1.0675	230.92346
1.068	231.12488
1.0685	225.78735
1.069	155.59387
1.0695	71.7041
1.07	-18.8324
1.0705	-86.50818
1.071	-100.70801
1.0715	-116.21704
1.072	-127.99988
1.0725	-159.42078
1.073	-185.10132
1.0735	-173.31848
1.074	-139.78271
1.0745	-115.41138
1.075	-101.41296
1.0755	-84.89685
1.076	-54.78516
1.0765	-7.15027
1.077	38.77258
1.0775	75.73242
1.078	132.12891
1.0785	178.85742
1.079	211.18469
1.0795	232.73621
1.08	235.55603
1.0805	232.83691
1.081	199.60327
1.0815	146.12732
1.082	93.15491
1.0825	52.67029
1.083	29.50745
1.0835	10.57434
1.084	-7.5531
1.0845	-32.62939
1.085	-83.78906
1.0855	-188.82751
1.086	-267.07764
1.0865	-290.34119
1.087	-282.38525
1.0875	-261.94153
1.088	-211.38611
1.0885	-148.14148
1.089	-70.09277
1.0895	-24.27063
1.09	-5.74036
1.0905	4.73328
1.091	30.91736
1.0915	56.90002
1.092	77.74658
1.0925	78.35083
1.093	75.63171
1.0935	81.47278
1.094	68.28003
1.0945	57.70569
1.095	44.51294
1.0955	24.57275
1.096	-14.80408
1.0965	-20.34302
1.097	-3.02124
1.0975	33.63647
1.098	59.61914
1.0985	94.3634
1.099	95.87402
1.0995	83.48694
1.1	69.1864
1.1005	69.08569
1.101	63.34534
1.1015	60.3241
1.102	60.72693
1.1025	40.1825
1.103	11.38
1.1035	-1.51062
1.104	6.44531
1.1045	-41.69312
1.105	-124.4751
1.1055	-190.03601
1.106	-224.78027
1.1065	-247.64099
1.107	-225.28381
1.1075	-208.96912
1.108	-182.68433
1.1085	-130.11475
1.109	-52.771
1.1095	27.59399
1.11	83.28552
1.1105	124.57581
1.111	151.26343
1.1115	160.9314
1.112	153.07617
1.1125	137.86926
1.113	133.94165
1.1135	112.59155
1.114	87.21313
1.1145	104.83704
1.115	128.70483
1.1155	105.23987
1.116	61.6333
1.1165	1.91345
1.117	-43.30444
1.1175	-43.20374
1.118	-28.39966
1.1185	-5.63965
1.119	5.13611
1.1195	-36.65771
1.12	-79.55933
1.1205	-111.68518
1.121	-110.17456
1.1215	-95.16907
1.122	-64.95667
1.1225	-6.54602
1.123	28.60107
1.1235	58.20923
1.124	56.5979
1.1245	72.20764
1.125	79.45862
1.1255	74.52393
1.126	52.8717
1.1265	40.1825
1.127	40.2832
1.1275	58.10852
1.128	98.59314
1.1285	139.27917
1.129	171.20361
1.1295	171.30432
1.13	139.17847
1.1305	92.65137
1.131	47.23206
1.1315	-10.87646
1.132	-32.12585
1.1325	-45.62073
1.133	-52.26746
1.1335	-45.3186
1.134	-31.11877
1.1345	-14.70337
1.135	9.06372
1.1355	-15.71045
1.136	-57.30286
1.1365	-91.64429
1.137	-102.62146
1.1375	-115.41138
1.138	-111.8866
1.1385	-86.50818
1.139	-57.70569
1.1395	-18.93311
1.14	28.29895
1.1405	71.90552
1.141	96.17615
1.1415	94.06128
1.142	85.90393
1.1425	78.75366
1.143	81.7749
1.1435	63.94958
1.144	18.22815
1.1445	-38.77258
1.145	-102.92358
1.1455	-163.65051
1.146	-206.25
1.1465	-206.65283
1.147	-175.03052
1.1475	-122.66235
1.148	-68.48145
1.1485	-23.06213
1.149	3.8269
1.1495	12.89062
1.15	14.80408
1.1505	-3.92761
1.151	-42.90161
1.1515	-58.81348
1.152	-52.56958
1.1525	-31.92444
1.153	-17.82532
1.1535	6.84814
1.154	40.1825
1.1545	45.52002
1.155	34.14001
1.1555	59.82056
1.156	98.59314
1.1565	100.40588
1.157	104.73633
1.1575	107.95898
1.158	108.36182
1.1585	104.53491
1.159	74.82605
1.1595	14.90479
1.16	-25.47913
1.1605	-50.65613
1.161	-81.87561
1.1615	-157.10449
1.162	-205.74646
1.1625	-222.46399
1.163	-222.26257
1.1635	-185.80627
1.164	-140.8905
1.1645	-75.02747
1.165	-27.19116
1.1655	34.94568
1.166	102.52075
1.1665	151.96838
1.167	160.9314
1.1675	164.55688
1.168	125.58289
1.1685	101.01013
1.169	113.29651
1.1695	131.52466
1.17	142.70325
1.1705	152.77405
1.171	146.42944
1.1715	153.68042
1.172	144.51599
1.1725	112.89368
1.173	91.34216
1.1735	69.28711
1.174	58.81348
1.1745	32.62939
1.175	1.40991
1.1755	-32.93152
1.176	-84.39331
1.1765	-116.01562
1.177	-124.07227
1.1775	-87.51526
1.178	-56.79932
1.1785	-18.73169
1.179	18.73169
1.1795	49.24622
1.18	67.07153
1.1805	26.28479
1.181	-22.35718
1.1815	-58.00781
1.182	-83.08411
1.1825	-90.03296
1.183	-88.0188
1.1835	-69.1864
1.184	-40.2832
1.1845	-13.797
1.185	7.75452
1.1855	18.8324
1.186	35.95276
1.1865	60.72693
1.187	102.52075
1.1875	97.08252
1.188	87.31384
1.1885	83.48694
1.189	53.67737
1.1895	-9.46655
1.19	-91.54358
1.1905	-161.43494
1.191	-179.66309
1.1915	-165.9668
1.192	-135.65369
1.1925	-85.90393
1.193	-20.24231
1.1935	60.52551
1.194	127.99988
1.1945	169.99512
1.195	179.8645
1.1955	178.25317
1.196	176.84326
1.1965	161.0321
1.197	129.30908
1.1975	96.07544
1.198	88.11951
1.1985	57.60498
1.199	21.55151
1.1995	5.53894
1.2	-8.8623
1.2005	-29.30603
1.201	-39.47754
1.2015	-60.92834
1.202	-60.12268
1.2025	-53.77808
1.203	-68.98499
1.2035	-98.99597
1.204	-115.51208
1.2045	-147.43652
1.205	-174.8291
1.2055	-187.4176
1.206	-174.52698
1.2065	-129.40979
1.207	-83.28552
1.2075	-35.85205
1.208	3.62549
1.2085	9.66797
1.209	3.92761
1.2095	13.99841
1.21	17.12036
1.2105	8.25806
1.211	-12.38708
1.2115	-24.97559
1.212	-33.9386
1.2125	-41.79382
1.213	-67.47437
1.2135	-64.45312
1.214	-53.47595
1.2145	-50.15259
1.215	-20.94727
1.2155	34.24072
1.216	85.90393
1.2165	119.54041
1.217	111.58447
1.2175	105.54199
1.218	125.28076
1.2185	148.4436
1.219	125.38147
1.2195	115.41138
1.22	137.36572
1.2205	174.8291
1.221	199.20044
1.2215	178.05176
1.222	142.40112
1.2225	126.69067
1.223	122.76306
1.2235	113.1958
1.224	113.39722
1.2245	117.12341
1.225	133.84094
1.2255	130.11475
1.226	85.40039
1.2265	51.36108
1.227	12.28638
1.2275	-5.94177
1.228	-12.78992
1.2285	-7.85522
1.229	-11.07788
1.2295	-30.31311
1.23	-76.43738
1.2305	-122.05811
1.231	-173.31848
1.2315	-222.26257
1.232	-239.88647
1.2325	-243.71338
1.233	-203.83301
1.2335	-143.00537
1.234	-83.08411
1.2345	-37.46338
1.235	-7.85522
1.2355	5.23682
1.236	24.97559
1.2365	49.85046
1.237	71.20056
1.2375	75.93384
1.238	50.85754
1.2385	31.01807
1.239	38.06763
1.2395	82.37915
1.24	140.48767
1.2405	166.47034
1.241	136.96289
1.2415	87.01172
1.242	56.79932
1.2425	27.19116
1.243	21.04797
1.2435	23.96851
1.244	33.33435
1.2445	40.88745
1.245	30.41382
1.2455	21.14868
1.246	12.68921
1.2465	-18.8324
1.247	-51.46179
1.2475	-64.151
1.248	-75.22888
1.2485	-67.57507
1.249	-44.21082
1.2495	-35.65063
1.25	-19.73877
1.2505	3.22266
1.251	6.44531
1.2515	-27.79541
1.252	-41.79382
1.2525	-34.44214
1.253	-26.88904
1.2535	-13.19275
1.254	-25.07629
1.2545	-38.57117
1.255	-85.5011
1.2555	-96.98181
1.256	-72.61047
1.2565	-43.70728
1.257	-4.22974
1.2575	21.65222
1.258	50.354
1.2585	79.2572
1.259	91.14075
1.2595	26.18408
1.26	-63.44604
1.2605	-162.2406
1.261	-245.224
1.2615	-273.92578
1.262	-271.30737
1.2625	-259.92737
1.263	-198.6969
1.2635	-104.93774
1.264	-15.30762
1.2645	9.06372
1.265	10.77576
1.2655	-32.42798
1.266	-43.60657
1.2665	-2.41699
1.267	41.89453
1.2675	72.40906
1.268	107.45544
1.2685	119.33899
1.269	149.24927
1.2695	206.25
1.27	255.59692
1.2705	275.13428
1.271	269.49463
1.2715	230.62134
1.272	209.57336
1.2725	198.79761
1.273	182.08008
1.2735	153.68042
1.274	123.56873
1.2745	75.83313
1.275	31.82373
1.2755	-9.56726
1.276	-42.09595
1.2765	-59.51843
1.277	-66.97083
1.2775	-86.70959
1.278	-110.47668
1.2785	-120.54749
1.279	-89.22729
1.2795	-59.92126
1.28	-37.46338
1.2805	-18.32886
1.281	-15.40833
1.2815	-11.38
1.282	0.10071
1.2825	-9.16443
1.283	-12.89062
1.2835	-23.36426
1.284	-20.1416
1.2845	11.78284
1.285	58.91418
1.2855	106.44836
1.286	141.39404
1.2865	159.82361
1.287	163.75122
1.2875	161.63635
1.288	150.45776
1.2885	96.57898
1.289	15.1062
1.2895	-36.95984
1.29	-49.95117
1.2905	-62.13684
1.291	-70.69702
1.2915	-57.8064
1.292	-37.36267
1.2925	0
1.293	33.83789
1.2935	47.13135
1.294	29.30603
1.2945	13.29346
1.295	7.95593
1.2955	6.44531
1.296	-6.74744
1.2965	-14.60266
1.297	-2.71912
1.2975	-4.63257
1.298	-37.96692
1.2985	-68.28003
1.299	-72.10693
1.2995	-65.3595
1.3	-35.04639
1.3005	-25.177
1.301	-19.33594
1.3015	-6.2439
1.302	32.83081
1.3025	82.07703
1.303	82.68127
1.3035	47.93701
1.304	17.12036
1.3045	6.64673
1.305	-1.51062
1.3055	-2.31628
1.306	-12.78992
1.3065	-80.16357
1.307	-136.96289
1.3075	-177.14539
1.308	-179.46167
1.3085	-166.77246
1.309	-157.70874
1.3095	-155.59387
1.31	-187.11548
1.3105	-189.73389
1.311	-217.42859
1.3115	-256.70471
1.312	-252.57568
1.3125	-222.26257
1.313	-175.03052
1.3135	-123.77014
1.314	-67.97791
1.3145	-8.25806
1.315	33.83789
1.3155	48.13843
1.316	45.01648
1.3165	87.71667
1.317	155.49316
1.3175	219.34204
1.318	261.74011
1.3185	273.72437
1.319	269.39392
1.3195	243.31055
1.32	199.30115
1.3205	190.33813
1.321	195.17212
1.3215	205.84717
1.322	216.52222
1.3225	220.85266
1.323	226.29089
1.3235	214.50806
1.324	195.47424
1.3245	130.92041
1.325	32.62939
1.3255	-41.69312
1.326	-129.00696
1.3265	-228.20435
1.327	-281.07605
1.3275	-287.82349
1.328	-285.20508
1.3285	-278.55835
1.329	-243.20984
1.3295	-177.3468
1.33	-119.94324
1.3305	-67.07153
1.331	-21.55151
1.3315	30.61523
1.332	95.5719
1.3325	148.04077
1.333	196.88416
1.3335	231.22559
1.334	256.10046
1.3345	264.35852
1.335	282.38525
1.3355	269.1925
1.336	248.84949
1.3365	237.87231
1.337	226.19019
1.3375	194.9707
1.338	157.60803
1.3385	87.11243
1.339	14.90479
1.3395	-57.70569
1.34	-122.56165
1.3405	-161.43494
1.341	-185.70557
1.3415	-207.86133
1.342	-202.92664
1.3425	-187.4176
1.343	-160.83069
1.3435	-112.28943
1.344	-54.18091
1.3445	-3.92761
1.345	28.19824
1.3455	59.31702
1.346	91.44287
1.3465	126.89209
1.347	141.79688
1.3475	154.98962
1.348	163.85193
1.3485	127.69775
1.349	77.84729
1.3495	16.11328
1.35	-35.44922
1.3505	-73.31543
1.351	-120.34607
1.3515	-165.16113
1.352	-225.38452
1.3525	-328.71094
1.353	-416.42761
1.3535	-430.32532
1.354	-410.28442
1.3545	-334.45129
1.355	-265.16418
1.3555	-178.25317
1.356	-82.17773
1.3565	15.60974
1.357	122.46094
1.3575	202.32239
1.358	231.12488
1.3585	241.19568
1.359	242.90771
1.3595	232.33337
1.36	212.09106
1.3605	194.46716
1.361	170.09583
1.3615	110.98022
1.362	37.36267
1.3625	-15.20691
1.363	-44.11011
1.3635	-68.28003
1.364	-80.26428
1.3645	-70.19348
1.365	-37.36267
1.3655	-13.29346
1.366	8.56018
1.3665	2.92053
1.367	-19.63806
1.3675	-38.67188
1.368	-55.59082
1.3685	-50.45471
1.369	-30.81665
1.3695	-11.78284
1.37	5.43823
1.3705	28.9032
1.371	62.74109
1.3715	100.80872
1.372	132.73315
1.3725	151.56555
1.373	150.35706
1.3735	144.91882
1.374	149.6521
1.3745	145.62378
1.375	112.89368
1.3755	68.07861
1.376	25.88196
1.3765	-25.27771
1.377	-120.24536
1.3775	-190.03601
1.378	-207.15637
1.3785	-169.89441
1.379	-113.59863
1.3795	-106.64978
1.38	-123.36731
1.3805	-139.07776
1.381	-118.13049
1.3815	-73.41614
1.382	-0.60425
1.3825	52.46887
1.383	75.12817
1.3835	69.58923
1.384	31.82373
1.3845	28.09753
1.385	49.74976
1.3855	79.05579
1.386	97.38464
1.3865	125.18005
1.387	172.51282
1.3875	198.89832
1.388	228.30505
1.3885	249.15161
1.389	227.49939
1.3895	193.76221
1.39	163.95264
1.3905	140.28625
1.391	117.52625
1.3915	91.64429
1.392	81.06995
1.3925	68.68286
1.393	12.28638
1.3935	-68.88428
1.394	-129.81262
1.3945	-138.77563
1.395	-99.3988
1.3955	-62.64038
1.396	-38.67188
1.3965	-32.32727
1.397	-36.85913
1.3975	-50.65613
1.398	-60.72693
1.3985	-90.83862
1.399	-129.71191
1.3995	-174.12415
1.4	-188.92822
1.4005	-195.27283
1.401	-189.33105
1.4015	-168.68591
1.402	-142.40112
1.4025	-130.11475
1.403	-121.35315
1.4035	-79.76074
1.404	-31.01807
1.4045	-3.02124
1.405	18.93311
1.4055	31.01807
1.406	24.27063
1.4065	3.12195
1.407	6.74744
1.4075	11.07788
1.408	10.17151
1.4085	23.8678
1.409	26.28479
1.4095	24.16992
1.41	38.47046
1.4105	18.42957
1.411	-45.3186
1.4115	-80.26428
1.412	-72.61047
1.4125	-52.06604
1.413	-15.30762
1.4135	46.5271
1.414	87.11243
1.4145	135.65369
1.415	169.7937
1.4155	182.28149
1.416	165.46326
1.4165	155.09033
1.417	157.80945
1.4175	155.39246
1.418	151.36414
1.4185	120.24536
1.419	114.60571
1.4195	124.67651
1.42	150.8606
1.4205	163.85193
1.421	175.63477
1.4215	173.31848
1.422	166.87317
1.4225	124.37439
1.423	84.79614
1.4235	65.05737
1.424	47.13135
1.4245	30.91736
1.425	-9.06372
1.4255	-51.26038
1.426	-85.5011
1.4265	-100.50659
1.427	-147.43652
1.4275	-175.03052
1.428	-224.88098
1.4285	-254.48914
1.429	-252.17285
1.4295	-209.47266
1.43	-157.70874
1.4305	-147.1344
1.431	-184.49707
1.4315	-195.47424
1.432	-161.0321
1.4325	-122.46094
1.433	-106.24695
1.4335	-114.60571
1.434	-102.92358
1.4345	-82.07703
1.435	-26.3855
1.4355	37.7655
1.436	88.92517
1.4365	109.16748
1.437	118.93616
1.4375	131.22253
1.438	136.25793
1.4385	106.54907
1.439	74.2218
1.4395	46.62781
1.44	29.80957
1.4405	16.41541
1.441	35.04639
1.4415	68.98499
1.442	107.55615
1.4425	149.55139
1.443	167.37671
1.4435	167.47742
1.444	165.36255
1.4445	137.86926
1.445	79.55933
1.4455	15.50903
1.446	-33.33435
1.4465	-86.8103
1.447	-116.41846
1.4475	-114.00146
1.448	-94.2627
1.4485	-72.81189
1.449	-54.18091
1.4495	-63.34534
1.45	-80.96924
1.4505	-62.64038
1.451	-32.32727
1.4515	2.61841
1.452	39.37683
1.4525	60.92834
1.453	80.86853
1.4535	95.87402
1.454	104.03137
1.4545	132.0282
1.455	148.3429
1.4555	130.51758
1.456	88.72375
1.4565	54.38232
1.457	24.77417
1.4575	-24.87488
1.458	-106.8512
1.4585	-210.68115
1.459	-278.25623
1.4595	-282.68738
1.46	-237.57019
1.4605	-181.47583
1.461	-144.6167
1.4615	-120.64819
1.462	-77.948
1.4625	-40.08179
1.463	-27.79541
1.4635	-40.98816
1.464	-68.07861
1.4645	-73.11401
1.465	-43.10303
1.4655	-2.71912
1.466	51.96533
1.4665	129.91333
1.467	149.85352
1.4675	126.28784
1.468	116.922
1.4685	133.74023
1.469	143.91174
1.4695	170.09583
1.47	121.35315
1.4705	40.1825
1.471	-23.8678
1.4715	-50.05188
1.472	-49.0448
1.4725	-32.32727
1.473	1.00708
1.4735	15.1062
1.474	29.80957
1.4745	54.0802
1.475	74.02039
1.4755	109.26819
1.476	150.05493
1.4765	155.79529
1.477	146.32874
1.4775	140.48767
1.478	125.48218
1.4785	113.39722
1.479	85.19897
1.4795	49.54834
1.48	1.10779
1.4805	-20.34302
1.481	-23.76709
1.4815	-24.57275
1.482	-51.76392
1.4825	-67.77649
1.483	-60.12268
1.4835	-40.88745
1.484	-1.10779
1.4845	28.9032
1.485	25.78125
1.4855	-7.35168
1.486	-85.90393
1.4865	-221.45691
1.487	-327.09961
1.4875	-376.44653
1.488	-403.03345
1.4885	-395.27893
1.489	-347.24121
1.4895	-235.05249
1.49	-102.11792
1.4905	13.09204
1.491	103.42712
1.4915	168.78662
1.492	216.11938
1.4925	266.87622
1.493	322.16492
1.4935	348.14758
1.494	331.43005
1.4945	281.88171
1.495	224.17603
1.4955	178.75671
1.496	162.44202
1.4965	141.09192
1.497	96.7804
1.4975	31.92444
1.498	-13.19275
1.4985	-54.28162
1.499	-88.52234
1.4995	-126.18713
1.5	-157.80945
1.5005	-179.56238
1.501	-191.44592
1.5015	-173.82202
1.502	-114.4043
1.5025	-45.2179
1.503	9.86938
1.5035	60.22339
1.504	78.25012
1.5045	116.922
1.505	174.92981
1.5055	197.18628
1.506	239.28223
1.5065	269.79675
1.507	286.51428
1.5075	258.21533
1.508	200.30823
1.5085	152.67334
1.509	127.59705
1.5095	106.75049
1.51	95.97473
1.5105	64.151
1.511	-9.97009
1.5115	-103.82996
1.512	-201.91956
1.5125	-315.82031
1.513	-387.92725
1.5135	-405.24902
1.514	-384.10034
1.5145	-374.63379
1.515	-344.82422
1.5155	-287.31995
1.516	-196.07849
1.5165	-106.04553
1.517	-28.19824
1.5175	52.8717
1.518	124.27368
1.5185	171.0022
1.519	195.97778
1.5195	237.46948
1.52	276.54419
1.5205	307.26013
1.521	315.11536
1.5215	294.2688
1.522	211.78894
1.5225	130.71899
1.523	75.32959
1.5235	37.46338
1.524	13.59558
1.5245	16.21399
1.525	11.07788
1.5255	-7.25098
1.526	-66.6687
1.5265	-133.03528
1.527	-190.94238
1.5275	-282.48596
1.528	-386.51733
1.5285	-445.73364
1.529	-422.87292
1.5295	-365.46936
1.53	-295.98083
1.5305	-206.95496
1.531	-156.19812
1.5315	-118.13049
1.532	-73.81897
1.5325	-49.54834
1.533	-42.90161
1.5335	-19.63806
1.534	42.19666
1.5345	125.07935
1.535	231.427
1.5355	325.89111
1.536	345.62988
1.5365	335.7605
1.537	319.74792
1.5375	330.62439
1.538	351.37024
1.5385	371.20972
1.539	366.77856
1.5395	333.04138
1.54	292.15393
1.5405	250.2594
1.541	200.10681
1.5415	141.79688
1.542	60.4248
1.5425	-24.87488
1.543	-91.8457
1.5435	-133.84094
1.544	-170.80078
1.5445	-176.0376
1.545	-173.41919
1.5455	-171.30432
1.546	-151.66626
1.5465	-118.53333
1.547	-76.84021
1.5475	-45.62073
1.548	-13.99841
1.5485	11.2793
1.549	47.53418
1.5495	63.84888
1.55	96.67969
1.5505	97.88818
1.551	81.57349
1.5515	82.17773
1.552	56.39648
1.5525	40.68604
1.553	42.19666
1.5535	54.18091
1.554	21.24939
1.5545	-70.59631
1.555	-147.53723
1.5555	-193.35938
1.556	-238.47656
1.5565	-266.17126
1.557	-251.26648
1.5575	-210.78186
1.558	-221.05408
1.5585	-223.57178
1.559	-197.08557
1.5595	-159.11865
1.56	-105.13916
1.5605	-49.74976
1.561	-13.19275
1.5615	3.42407
1.562	24.67346
1.5625	61.23047
1.563	97.98889
1.5635	137.46643
1.564	167.88025
1.5645	190.84167
1.565	192.05017
1.5655	191.54663
1.566	225.18311
1.5665	256.30188
1.567	266.37268
1.5675	254.58984
1.568	166.97388
1.5685	61.33118
1.569	-14.40125
1.5695	-119.33899
1.57	-238.77869
1.5705	-334.65271
1.571	-401.82495
1.5715	-430.1239
1.572	-475.24109
1.5725	-475.03967
1.573	-406.86035
1.5735	-291.54968
1.574	-141.19263
1.5745	1.40991
1.575	146.22803
1.5755	262.24365
1.576	339.28528
1.5765	401.12
1.577	414.61487
1.5775	366.37573
1.578	300.41199
1.5785	231.62842
1.579	178.35388
1.5795	138.87634
1.58	103.125
1.5805	89.52942
1.581	39.07471
1.5815	11.48071
1.582	28.70178
1.5825	41.99524
1.583	26.58691
1.5835	2.71912
1.584	-28.19824
1.5845	-48.44055
1.585	-96.27686
1.5855	-146.93298
1.586	-166.57104
1.5865	-125.58289
1.587	-69.48853
1.5875	-35.85205
1.588	-12.48779
1.5885	11.2793
1.589	26.48621
1.5895	38.57117
1.59	50.85754
1.5905	61.12976
1.591	61.93542
1.5915	16.91895
1.592	-45.82214
1.5925	-70.19348
1.593	-96.57898
1.5935	-104.93774
1.594	-86.50818
1.5945	-30.31311
1.595	57.10144
1.5955	132.83386
1.596	153.88184
1.5965	141.19263
1.597	123.77014
1.5975	109.67102
1.598	94.2627
1.5985	91.14075
1.599	85.60181
1.5995	79.15649
1.6	57.40356
1.6005	54.88586
1.601	69.08569
1.6015	51.26038
1.602	8.25806
1.6025	-4.83398
1.603	-0.70496
1.6035	-4.93469
1.604	-33.23364
1.6045	-108.05969
1.605	-187.31689
1.6055	-220.14771
1.606	-213.90381
1.6065	-186.30981
1.607	-150.25635
1.6075	-91.8457
1.608	-42.09595
1.6085	11.38
1.609	59.51843
1.6095	117.22412
1.61	139.37988
1.6105	140.48767
1.611	121.85669
1.6115	114.90784
1.612	100.20447
1.6125	82.58057
1.613	62.33826
1.6135	44.81506
1.614	7.35168
1.6145	-24.87488
1.615	-26.18408
1.6155	-65.66162
1.616	-145.22095
1.6165	-175.43335
1.617	-181.87866
1.6175	-158.81653
1.618	-160.9314
1.6185	-170.59937
1.619	-176.44043
1.6195	-156.50024
1.62	-91.34216
1.6205	-5.84106
1.621	67.07153
1.6215	100.20447
1.622	97.78748
1.6225	98.79456
1.623	106.34766
1.6235	113.39722
1.624	100.00305
1.6245	92.34924
1.625	79.45862
1.6255	62.33826
1.626	39.17542
1.6265	25.88196
1.627	-0.70496
1.6275	-28.70178
1.628	-70.49561
1.6285	-81.7749
1.629	-65.3595
1.6295	0.70496
1.63	55.79224
1.6305	104.93774
1.631	147.43652
1.6315	181.073
1.632	190.64026
1.6325	185.20203
1.633	157.80945
1.6335	116.51917
1.634	77.14233
1.6345	59.1156
1.635	60.3241
1.6355	52.67029
1.636	57.40356
1.6365	83.88977
1.637	80.56641
1.6375	21.45081
1.638	-33.23364
1.6385	-57.50427
1.639	-90.23438
1.6395	-112.69226
1.64	-103.52783
1.6405	-91.64429
1.641	-70.29419
1.6415	-42.8009
1.642	-10.27222
1.6425	-0.50354
1.643	-29.70886
1.6435	-61.73401
1.644	-76.43738
1.6445	-68.98499
1.645	-41.18958
1.6455	-16.51611
1.646	1.10779
1.6465	4.83398
1.647	-10.0708
1.6475	-18.8324
1.648	-11.38
1.6485	21.85364
1.649	49.44763
1.6495	57.40356
1.65	39.77966
1.6505	-3.7262
1.651	-41.4917
1.6515	-67.17224
1.652	-83.78906
1.6525	-142.30042
1.653	-168.58521
1.6535	-134.14307
1.654	-92.14783
1.6545	-83.48694
1.655	-68.98499
1.6555	-13.69629
1.656	51.26038
1.6565	100.30518
1.657	138.77563
1.6575	170.90149
1.658	176.74255
1.6585	173.5199
1.659	172.81494
1.6595	139.68201
1.66	110.17456
1.6605	79.45862
1.661	60.4248
1.6615	15.81116
1.662	-24.87488
1.6625	-22.76001
1.663	-16.61682
1.6635	-1.51062
1.664	-10.17151
1.6645	-36.85913
1.665	-152.06909
1.6655	-264.66064
1.666	-323.172
1.6665	-293.96667
1.667	-225.98877
1.6675	-144.91882
1.668	-90.73792
1.6685	-44.71436
1.669	-2.21558
1.6695	29.10461
1.67	70.29419
1.6705	110.98022
1.671	137.66785
1.6715	183.79211
1.672	226.69373
1.6725	274.53003
1.673	296.28296
1.6735	228.00293
1.674	81.06995
1.6745	-77.74658
1.675	-145.9259
1.6755	-137.86926
1.676	-102.01721
1.6765	-111.78589
1.677	-125.7843
1.6775	-105.84412
1.678	-63.44604
1.6785	2.81982
1.679	70.09277
1.6795	130.21545
1.68	155.69458
1.6805	161.0321
1.681	170.90149
1.6815	198.49548
1.682	213.90381
1.6825	182.88574
1.683	98.79456
1.6835	18.22815
1.684	-56.90002
1.6845	-100.40588
1.685	-113.59863
1.6855	-112.49084
1.686	-93.25562
1.6865	-76.7395
1.687	-66.26587
1.6875	-57.9071
1.688	-44.71436
1.6885	-35.2478
1.689	-19.63806
1.6895	-25.88196
1.69	-54.68445
1.6905	-119.84253
1.691	-180.46875
1.6915	-189.23035
1.692	-144.11316
1.6925	-93.96057
1.693	-41.79382
1.6935	-9.86938
1.694	11.07788
1.6945	58.41064
1.695	91.24146
1.6955	112.08801
1.696	132.12891
1.6965	158.11157
1.697	163.14697
1.6975	158.01086
1.698	169.59229
1.6985	191.34521
1.699	213.50098
1.6995	209.37195
1.7	198.89832
1.7005	160.22644
1.701	86.30676
1.7015	23.16284
1.702	-86.10535
1.7025	-189.23035
1.703	-261.33728
1.7035	-268.68896
1.704	-286.11145
1.7045	-285.30579
1.705	-244.41833
1.7055	-183.79211
1.706	-139.17847
1.7065	-87.01172
1.707	-37.56409
1.7075	-11.38
1.708	-9.16443
1.7085	12.08496
1.709	57.20215
1.7095	81.67419
1.71	84.99756
1.7105	76.43738
1.711	58.71277
1.7115	39.27612
1.712	10.67505
1.7125	21.65222
1.713	9.06372
1.7135	-17.12036
1.714	-28.60107
1.7145	-6.44531
1.715	40.88745
1.7155	97.88818
1.716	137.96997
1.7165	133.23669
1.717	140.08484
1.7175	163.95264
1.718	192.65442
1.7185	202.92664
1.719	185.60486
1.7195	162.84485
1.72	146.53015
1.7205	104.4342
1.721	38.47046
1.7215	-31.52161
1.722	-97.08252
1.7225	-117.92908
1.723	-94.76624
1.7235	-44.81506
1.724	-1.61133
1.7245	19.03381
1.725	37.36267
1.7255	60.12268
1.726	76.63879
1.7265	82.47986
1.727	34.24072
1.7275	-43.10303
1.728	-105.34058
1.7285	-126.48926
1.729	-138.57422
1.7295	-141.29333
1.73	-125.7843
1.7305	-91.14075
1.731	-45.3186
1.7315	-15.00549
1.732	-8.96301
1.7325	-5.63965
1.733	18.73169
1.7335	38.67188
1.734	46.12427
1.7345	27.79541
1.735	13.19275
1.7355	-3.52478
1.736	-32.42798
1.7365	-26.58691
1.737	0.30212
1.7375	35.44922
1.738	66.26587
1.7385	85.90393
1.739	33.03223
1.7395	-39.27612
1.74	-58.10852
1.7405	-59.41772
1.741	-60.4248
1.7415	-60.92834
1.742	-53.77808
1.7425	-31.32019
1.743	-3.22266
1.7435	38.974
1.744	76.53809
1.7445	64.35242
1.745	39.88037
1.7455	46.62781
1.746	67.17224
1.7465	81.37207
1.747	70.99915
1.7475	23.66638
1.748	-13.49487
1.7485	-32.22656
1.749	-19.33594
1.7495	14.40125
1.75	51.15967
1.7505	96.67969
1.751	139.68201
1.7515	161.23352
1.752	157.40662
1.7525	120.95032
1.753	53.57666
1.7535	-22.86072
1.754	-59.1156
1.7545	-42.29736
1.755	-3.12195
1.7555	37.06055
1.756	61.33118
1.7565	91.745
1.757	95.37048
1.7575	74.92676
1.758	59.41772
1.7585	22.55859
1.759	-24.27063
1.7595	-52.56958
1.76	-68.88428
1.7605	-69.28711
1.761	-61.23047
1.7615	-44.41223
1.762	-29.50745
1.7625	-45.11719
1.763	-60.52551
1.7635	-70.09277
1.764	-108.36182
1.7645	-156.39954
1.765	-168.28308
1.7655	-161.13281
1.766	-125.58289
1.7665	-94.46411
1.767	-48.64197
1.7675	4.93469
1.768	29.20532
1.7685	58.81348
1.769	77.04163
1.7695	72.00623
1.77	56.09436
1.7705	57.40356
1.771	66.56799
1.7715	67.37366
1.772	89.12659
1.7725	102.92358
1.773	97.78748
1.7735	92.55066
1.774	70.29419
1.7745	57.40356
1.775	42.19666
1.7755	34.34143
1.776	29.10461
1.7765	6.64673
1.777	-48.23914
1.7775	-127.69775
1.778	-170.70007
1.7785	-186.71265
1.779	-211.2854
1.7795	-218.93921
1.78	-215.41443
1.7805	-219.64417
1.781	-213.60168
1.7815	-171.80786
1.782	-108.76465
1.7825	-44.91577
1.783	12.89062
1.7835	43.50586
1.784	48.54126
1.7845	74.72534
1.785	102.21863
1.7855	142.60254
1.786	174.32556
1.7865	145.72449
1.787	64.25171
1.7875	-18.12744
1.788	-71.50269
1.7885	-50.55542
1.789	3.32336
1.7895	76.84021
1.79	96.37756
1.7905	73.01331
1.791	66.26587
1.7915	71.20056
1.792	94.56482
1.7925	133.84094
1.793	141.39404
1.7935	153.479
1.794	147.63794
1.7945	140.68909
1.795	132.43103
1.7955	118.2312
1.796	109.67102
1.7965	102.72217
1.797	86.60889
1.7975	89.42871
1.798	105.54199
1.7985	123.16589
1.799	134.64661
1.7995	124.97864
1.8	104.63562
1.8005	68.78357
1.801	37.86621
1.8015	16.11328
1.802	14.30054
1.8025	-4.83398
1.803	-57.10144
1.8035	-118.93616
1.804	-161.83777
1.8045	-174.62769
1.805	-164.35547
1.8055	-140.08484
1.806	-131.22253
1.8065	-141.39404
1.807	-138.17139
1.8075	-121.75598
1.808	-84.39331
1.8085	-74.32251
1.809	-85.40039
1.8095	-127.79846
1.81	-165.9668
1.8105	-166.67175
1.811	-136.15723
1.8115	-104.4342
1.812	-72.00623
1.8125	-17.01965
1.813	53.77808
1.8135	116.11633
1.814	165.46326
1.8145	191.34521
1.815	188.42468
1.8155	187.4176
1.816	188.42468
1.8165	187.82043
1.817	182.48291
1.8175	159.11865
1.818	123.87085
1.8185	117.32483
1.819	143.3075
1.8195	161.73706
1.82	133.84094
1.8205	68.28003
1.821	15.60974
1.8215	-78.85437
1.822	-213.09814
1.8225	-337.27112
1.823	-423.07434
1.8235	-430.82886
1.824	-376.34583
1.8245	-293.26172
1.825	-204.73938
1.8255	-118.53333
1.826	-45.62073
1.8265	11.58142
1.827	79.05579
1.8275	122.05811
1.828	151.46484
1.8285	172.41211
1.829	177.95105
1.8295	183.08716
1.83	197.68982
1.8305	203.7323
1.831	202.32239
1.8315	170.70007
1.832	106.24695
1.8325	27.89612
1.833	-22.96143
1.8335	-43.60657
1.834	-40.58533
1.8345	-21.85364
1.835	-12.18567
1.8355	-20.64514
1.836	-53.97949
1.8365	-74.52393
1.837	-71.80481
1.8375	-93.35632
1.838	-116.82129
1.8385	-115.20996
1.839	-74.92676
1.8395	-18.93311
1.84	66.36658
1.8405	138.77563
1.841	172.00928
1.8415	183.99353
1.842	192.85583
1.8425	202.5238
1.843	215.91797
1.8435	210.68115
1.844	183.08716
1.8445	166.16821
1.845	121.55457
1.8455	60.92834
1.846	27.19116
1.8465	17.01965
1.847	1.61133
1.8475	-6.54602
1.848	-10.57434
1.8485	-43.80798
1.849	-115.51208
1.8495	-162.54272
1.85	-197.3877
1.8505	-224.98169
1.851	-221.55762
1.8515	-200.40894
1.852	-158.21228
1.8525	-91.54358
1.853	-34.44214
1.8535	10.27222
1.854	37.36267
1.8545	66.06445
1.855	83.48694
1.8555	83.18481
1.856	91.94641
1.8565	68.98499
1.857	28.70178
1.8575	-12.38708
1.858	-11.07788
1.8585	11.48071
1.859	32.83081
1.8595	50.354
1.86	70.3949
1.8605	59.21631
1.861	30.51453
1.8615	12.48779
1.862	-0.40283
1.8625	-15.91187
1.863	-54.38232
1.8635	-95.47119
1.864	-100.40588
1.8645	-88.62305
1.865	-81.57349
1.8655	-62.43896
1.866	-65.66162
1.8665	-73.21472
1.867	-76.43738
1.8675	-87.01172
1.868	-112.39014
1.8685	-137.56714
1.869	-162.03918
1.8695	-161.13281
1.87	-118.43262
1.8705	-54.98657
1.871	6.14319
1.8715	25.177
1.872	18.42957
1.8725	21.24939
1.873	49.14551
1.8735	58.30994
1.874	45.11719
1.8745	-17.12036
1.875	-48.44055
1.8755	-39.37683
1.876	-4.12903
1.8765	42.49878
1.877	79.86145
1.8775	105.6427
1.878	122.76306
1.8785	137.36572
1.879	144.21387
1.8795	144.6167
1.88	131.82678
1.8805	102.31934
1.881	86.00464
1.8815	80.16357
1.882	85.19897
1.8825	83.48694
1.883	47.8363
1.8835	-22.25647
1.884	-117.02271
1.8845	-209.57336
1.885	-243.31055
1.8855	-254.99268
1.886	-226.59302
1.8865	-219.24133
1.887	-221.25549
1.8875	-190.84167
1.888	-125.68359
1.8885	-18.02673
1.889	63.94958
1.8895	124.4751
1.89	142.099
1.8905	144.11316
1.891	110.77881
1.8915	112.49084
1.892	147.1344
1.8925	163.34839
1.893	145.52307
1.8935	104.53491
1.894	82.9834
1.8945	87.91809
1.895	79.66003
1.8955	62.23755
1.896	4.02832
1.8965	-65.86304
1.897	-103.72925
1.8975	-114.4043
1.898	-92.75208
1.8985	-65.25879
1.899	-34.74426
1.8995	0.60425
1.9	68.28003
1.9005	122.05811
1.901	159.7229
1.9015	193.25867
1.902	222.5647
1.9025	241.19568
1.903	229.51355
1.9035	211.2854
1.904	190.94238
1.9045	165.9668
1.905	129.30908
1.9055	96.7804
1.906	70.29419
1.9065	64.35242
1.907	51.05896
1.9075	18.93311
1.908	-7.85522
1.9085	-11.2793
1.909	-8.7616
1.9095	1.71204
1.91	17.12036
1.9105	25.88196
1.911	15.81116
1.9115	-6.04248
1.912	-21.65222
1.9125	-50.55542
1.913	-99.80164
1.9135	-155.19104
1.914	-217.42859
1.9145	-271.30737
1.915	-288.12561
1.9155	-300.91553
1.916	-269.59534
1.9165	-223.37036
1.917	-200.61035
1.9175	-174.72839
1.918	-147.83936
1.9185	-125.68359
1.919	-108.1604
1.9195	-75.83313
1.92	-32.52869
1.9205	26.68762
1.921	93.65845
1.9215	150.05493
1.922	172.71423
1.9225	185.50415
1.923	168.58521
1.9235	67.07153
1.924	-24.77417
1.9245	-104.53491
1.925	-120.54749
1.9255	-104.03137
1.926	-78.04871
1.9265	-68.17932
1.927	-68.88428
1.9275	-76.13525
1.928	-111.78589
1.9285	-124.4751
1.929	-115.81421
1.9295	-80.86853
1.93	-48.84338
1.9305	-4.93469
1.931	68.48145
1.9315	186.51123
1.932	292.95959
1.9325	334.14917
1.933	329.5166
1.9335	307.05872
1.934	292.55676
1.9345	278.75977
1.935	244.11621
1.9355	213.29956
1.936	196.38062
1.9365	167.17529
1.937	115.61279
1.9375	47.93701
1.938	-41.99524
1.9385	-128.50342
1.939	-196.88416
1.9395	-259.021
1.94	-277.45056
1.9405	-250.2594
1.941	-185.40344
1.9415	-120.14465
1.942	-38.57117
1.9425	47.43347
1.943	95.06836
1.9435	132.12891
1.944	160.52856
1.9445	171.40503
1.945	181.47583
1.9455	186.41052
1.946	128.80554
1.9465	38.16833
1.947	-62.33826
1.9475	-115.51208
1.948	-109.4696
1.9485	-96.8811
1.949	-58.51135
1.9495	-54.58374
1.95	-66.76941
1.9505	-68.98499
1.951	-57.30286
1.9515	-32.32727
1.952	1.91345
1.9525	38.67188
1.953	45.01648
1.9535	40.08179
1.954	41.4917
1.9545	50.65613
1.955	69.58923
1.9555	78.95508
1.956	90.33508
1.9565	102.11792
1.957	113.80005
1.9575	113.09509
1.958	110.37598
1.9585	100.6073
1.959	83.38623
1.9595	62.8418
1.96	43.90869
1.9605	26.28479
1.961	-31.82373
1.9615	-77.44446
1.962	-96.37756
1.9625	-110.07385
1.963	-107.95898
1.9635	-113.90076
1.964	-106.24695
1.9645	-92.95349
1.965	-78.95508
1.9655	-73.81897
1.966	-72.71118
1.9665	-59.51843
1.967	-65.15808
1.9675	-83.28552
1.968	-97.88818
1.9685	-72.00623
1.969	-34.74426
1.9695	-18.93311
1.97	-12.38708
1.9705	-5.63965
1.971	9.16443
1.9715	24.47205
1.972	30.91736
1.9725	49.95117
1.973	83.88977
1.9735	100.80872
1.974	103.125
1.9745	79.45862
1.975	45.82214
1.9755	33.73718
1.976	33.53577
1.9765	35.14709
1.977	27.39258
1.9775	-2.5177
1.978	-69.1864
1.9785	-155.896
1.979	-234.64966
1.9795	-272.41516
1.98	-266.5741
1.9805	-230.52063
1.981	-143.50891
1.9815	-60.3241
1.982	2.5177
1.9825	56.79932
1.983	102.52075
1.9835	109.06677
1.984	97.88818
1.9845	112.39014
1.985	125.7843
1.9855	112.69226
1.986	89.93225
1.9865	94.76624
1.987	111.58447
1.9875	96.27686
1.988	97.58606
1.9885	76.7395
1.989	44.21082
1.9895	49.0448
1.99	58.81348
1.9905	80.96924
1.991	114.4043
1.9915	121.65527
1.992	108.26111
1.9925	83.08411
1.993	46.82922
1.9935	10.0708
1.994	-4.83398
1.9945	-21.65222
1.995	-32.42798
1.9955	-26.98975
1.996	-4.63257
1.9965	18.53027
1.997	21.3501
1.9975	9.36584
1.998	-64.25171
1.9985	-172.3114
1.999	-245.92896
1.9995	-298.39783
2	-312.19482
2.0005	-262.24365
2.001	-176.33972
2.0015	-92.95349
2.002	-20.74585
2.0025	18.63098
2.003	34.64355
2.0035	66.36658
2.004	98.49243
2.0045	121.85669
2.005	155.39246
2.0055	173.72131
2.006	189.83459
2.0065	178.75671
2.007	139.17847
2.0075	107.15332
2.008	109.57031
2.0085	108.66394
2.009	107.75757
2.0095	108.56323
2.01	117.32483
2.0105	102.42004
2.011	68.17932
2.0115	30.2124
2.012	1.10779
2.0125	-12.28638
2.013	-6.74744
2.0135	7.5531
2.014	17.32178
2.0145	15.91187
2.015	-15.71045
2.0155	-51.15967
2.016	-83.08411
2.0165	-79.86145
2.017	-62.23755
2.0175	-59.1156
2.018	-63.74817
2.0185	-47.03064
2.019	-20.54443
2.0195	-3.32336
2.02	17.01965
2.0205	32.7301
2.021	37.86621
2.0215	39.47754
2.022	48.64197
2.0225	49.64905
2.023	46.62781
2.0235	51.76392
2.024	39.57825
2.0245	11.68213
2.025	-3.7262
2.0255	-10.57434
2.026	-34.74426
2.0265	-65.86304
2.027	-90.83862
2.0275	-91.54358
2.028	-66.26587
2.0285	-33.23364
2.029	-7.35168
2.0295	-16.21399
2.03	-54.88586
2.0305	-65.05737
2.031	-53.87878
2.0315	-47.13135
2.032	-51.36108
2.0325	-60.72693
2.033	-73.31543
2.0335	-68.88428
2.034	-29.91028
2.0345	0.70496
2.035	8.35876
2.0355	-28.80249
2.036	-86.40747
2.0365	-120.7489
2.037	-114.30359
2.0375	-66.06445
2.038	-14.40125
2.0385	7.45239
2.039	22.05505
2.0395	21.95435
2.04	41.99524
2.0405	73.21472
2.041	99.90234
2.0415	131.02112
2.042	155.59387
2.0425	146.42944
2.043	118.2312
2.0435	72.71118
2.044	59.1156
2.0445	59.71985
2.045	34.24072
2.0455	8.8623
2.046	-28.60107
2.0465	-63.24463
2.047	-68.98499
2.0475	-106.8512
2.048	-144.6167
2.0485	-145.52307
2.049	-125.7843
2.0495	-74.2218
2.05	-3.7262
2.0505	86.70959
2.051	168.58521
2.0515	211.38611
2.052	185.70557
2.0525	145.22095
2.053	120.04395
2.0535	115.00854
2.054	122.76306
2.0545	126.18713
2.055	131.12183
2.0555	139.5813
2.056	143.91174
2.0565	116.72058
2.057	80.06287
2.0575	56.79932
2.058	17.92603
2.0585	-64.85596
2.059	-164.05334
2.0595	-242.30347
2.06	-250.86365
2.0605	-230.62134
2.061	-187.4176
2.0615	-137.96997
2.062	-74.62463
2.0625	-17.82532
2.063	32.7301
2.0635	86.20605
2.064	135.04944
2.0645	167.17529
2.065	170.19653
2.0655	159.7229
2.066	125.48218
2.0665	123.97156
2.067	129.5105
2.0675	118.33191
2.068	111.18164
2.0685	118.2312
2.069	104.83704
2.0695	82.78198
2.07	62.53967
2.0705	34.03931
2.071	4.53186
2.0715	-23.16284
2.072	-48.74268
2.0725	-91.04004
2.073	-115.41138
2.0735	-138.87634
2.074	-155.79529
2.0745	-162.94556
2.075	-162.2406
2.0755	-149.04785
2.076	-103.02429
2.0765	-63.24463
2.077	-15.60974
2.0775	26.58691
2.078	63.44604
2.0785	86.30676
2.079	84.2926
2.0795	74.42322
2.08	72.20764
2.0805	57.20215
2.081	63.04321
2.0815	62.64038
2.082	42.90161
2.0825	-27.39258
2.083	-76.94092
2.0835	-105.6427
2.084	-115.91492
2.0845	-115.00854
2.085	-98.79456
2.0855	-69.28711
2.086	-52.26746
2.0865	-47.33276
2.087	-70.3949
2.0875	-82.9834
2.088	-83.38623
2.0885	-93.15491
2.089	-106.14624
2.0895	-106.64978
2.09	-82.27844
2.0905	-45.2179
2.091	-10.97717
2.0915	21.3501
2.092	63.54675
2.0925	98.79456
2.093	112.89368
2.0935	130.61829
2.094	165.56396
2.0945	182.18079
2.095	179.96521
2.0955	166.0675
2.096	170.29724
2.0965	150.8606
2.097	89.93225
2.0975	10.47363
2.098	-68.48145
2.0985	-155.79529
2.099	-226.19019
2.0995	-239.68506
2.1	-213.90381
2.1005	-164.35547
2.101	-97.08252
2.1015	-30.61523
2.102	16.41541
2.1025	33.13293
2.103	14.19983
2.1035	-20.1416
2.104	-61.12976
2.1045	-71.60339
2.105	-39.47754
2.1055	-9.06372
2.106	16.91895
2.1065	29.60815
2.107	48.13843
2.1075	81.57349
2.108	90.93933
2.1085	101.31226
2.109	107.65686
2.1095	105.6427
2.11	104.83704
2.1105	116.922
2.111	113.59863
2.1115	111.08093
2.112	96.47827
2.1125	88.11951
2.113	96.67969
2.1135	103.32642
2.114	107.15332
2.1145	113.29651
2.115	117.32483
2.1155	110.77881
2.116	106.44836
2.1165	90.43579
2.117	73.11401
2.1175	49.0448
2.118	47.33276
2.1185	66.36658
2.119	72.10693
2.1195	64.95667
2.12	30.81665
2.1205	-3.7262
2.121	-105.23987
2.1215	-182.68433
2.122	-210.0769
2.1225	-193.35938
2.123	-162.84485
2.1235	-114.70642
2.124	-75.12817
2.1245	-43.10303
2.125	-8.8623
2.1255	24.37134
2.126	62.53967
2.1265	78.65295
2.127	83.18481
2.1275	73.31543
2.128	51.86462
2.1285	8.25806
2.129	-5.13611
2.1295	-12.38708
2.13	-34.54285
2.1305	-60.82764
2.131	-66.26587
2.1315	-85.80322
2.132	-104.73633
2.1325	-131.92749
2.133	-173.11707
2.1335	-197.28699
2.134	-194.36646
2.1345	-157.2052
2.135	-114.505
2.1355	-85.60181
2.136	-66.56799
2.1365	-35.44922
2.137	1.00708
2.1375	23.16284
2.138	53.17383
2.1385	76.43738
2.139	104.83704
2.1395	151.86768
2.14	168.78662
2.1405	204.13513
2.141	203.7323
2.1415	190.23743
2.142	147.43652
2.1425	92.34924
2.143	43.30444
2.1435	18.02673
2.144	12.5885
2.1445	1.91345
2.145	-1.51062
2.1455	-6.04248
2.146	0.90637
2.1465	-13.89771
2.147	-33.33435
2.1475	-44.11011
2.148	-48.44055
2.1485	-53.57666
2.149	-59.51843
2.1495	-52.06604
2.15	-35.85205
2.1505	-24.47205
2.151	-20.74585
2.1515	-19.33594
2.152	-9.36584
2.1525	13.29346
2.153	33.83789
2.1535	50.65613
2.154	64.75525
2.1545	88.22021
2.155	105.13916
2.1555	103.62854
2.156	86.20605
2.1565	81.57349
2.157	75.4303
2.1575	50.2533
2.158	40.78674
2.1585	31.62231
2.159	15.71045
2.1595	-6.64673
2.16	-55.3894
2.1605	-136.05652
2.161	-191.74805
2.1615	-204.43726
2.162	-182.68433
2.1625	-133.43811
2.163	-73.91968
2.1635	-9.66797
2.164	36.4563
2.1645	57.20215
2.165	71.90552
2.1655	67.67578
2.166	38.974
2.1665	1.81274
2.167	-16.91895
2.1675	-20.34302
2.168	-19.63806
2.1685	-32.22656
2.169	-44.71436
2.1695	-33.63647
2.17	-6.84814
2.1705	9.56726
2.171	16.81824
2.1715	26.18408
2.172	24.16992
2.1725	-24.06921
2.173	-65.76233
2.1735	-68.48145
2.174	-42.8009
2.1745	-18.73169
2.175	4.73328
2.1755	37.66479
2.176	57.60498
2.1765	68.68286
2.177	72.30835
2.1775	74.62463
2.178	93.0542
2.1785	96.27686
2.179	89.42871
2.1795	67.8772
2.18	43.00232
2.1805	10.87646
2.181	-9.16443
2.1815	-49.54834
2.182	-82.78198
2.1825	-112.99438
2.183	-145.8252
2.1835	-203.12805
2.184	-240.59143
2.1845	-265.3656
2.185	-254.28772
2.1855	-196.58203
2.186	-132.53174
2.1865	-67.77649
2.187	-11.17859
2.1875	42.7002
2.188	70.69702
2.1885	85.60181
2.189	97.48535
2.1895	119.4397
2.19	164.15405
2.1905	203.32947
2.191	236.26099
2.1915	278.55835
2.192	294.87305
2.1925	283.39233
2.193	267.37976
2.1935	264.45923
2.194	249.75586
2.1945	238.57727
2.195	227.6001
2.1955	193.46008
2.196	109.97314
2.1965	25.78125
2.197	-28.29895
2.1975	-72.30835
2.198	-99.49951
2.1985	-98.69385
2.199	-83.88977
2.1995	-52.67029
2.2	-15.20691
2.2005	15.1062
2.201	41.18958
2.2015	56.29578
2.202	45.11719
2.2025	16.71753
2.203	2.01416
2.2035	-18.12744
2.204	-22.05505
2.2045	-17.32178
2.205	-35.54993
2.2055	-57.30286
2.206	-60.82764
2.2065	-49.95117
2.207	-40.38391
2.2075	-34.24072
2.208	-32.42798
2.2085	-35.2478
2.209	-39.98108
2.2095	-31.72302
2.21	-38.36975
2.2105	-61.12976
2.211	-73.81897
2.2115	-74.82605
2.212	-74.2218
2.2125	-67.27295
2.213	-65.25879
2.2135	-103.32642
2.214	-138.47351
2.2145	-161.0321
2.215	-214.91089
2.2155	-249.95728
2.216	-244.0155
2.2165	-194.76929
2.217	-119.84253
2.2175	-59.51843
2.218	-3.32336
2.2185	70.79773
2.219	116.41846
2.2195	146.02661
2.22	158.81653
2.2205	168.78662
2.221	138.3728
2.2215	85.90393
2.222	34.64355
2.2225	-4.73328
2.223	-32.93152
2.2235	-58.00781
2.224	-60.22339
2.2245	-35.85205
2.225	2.21558
2.2255	13.59558
2.226	9.66797
2.2265	6.54602
2.227	-0.80566
2.2275	-0.60425
2.228	6.64673
2.2285	37.66479
2.229	90.03296
2.2295	117.52625
2.23	136.56006
2.2305	131.42395
2.231	132.43103
2.2315	125.48218
2.232	112.49084
2.2325	85.29968
2.233	26.78833
2.2335	-56.09436
2.234	-140.48767
2.2345	-231.22559
2.235	-293.96667
2.2355	-303.33252
2.236	-269.69604
2.2365	-194.16504
2.237	-106.64978
2.2375	-13.29346
2.238	48.94409
2.2385	38.06763
2.239	-14.60266
2.2395	-29.30603
2.24	-3.12195
2.2405	20.1416
2.241	45.01648
2.2415	69.38782
2.242	103.22571
2.2425	128.90625
2.243	163.4491
2.2435	217.12646
2.244	269.1925
2.2445	286.91711
2.245	285.10437
2.2455	259.22241
2.246	232.33337
2.2465	206.45142
2.247	185.30273
2.2475	176.84326
2.248	153.57971
2.2485	137.86926
2.249	126.89209
2.2495	101.61438
2.25	74.2218
2.2505	44.61365
2.251	18.02673
2.2515	-2.5177
2.252	-26.48621
2.2525	-41.59241
2.253	-64.75525
2.2535	-83.58765
2.254	-98.0896
2.2545	-100.20447
2.255	-89.52942
2.2555	-76.7395
2.256	-57.50427
2.2565	-36.75842
2.257	-54.38232
2.2575	-87.31384
2.258	-93.75916
2.2585	-87.61597
2.259	-67.67578
2.2595	-62.13684
2.26	-66.87012
2.2605	-108.26111
2.261	-174.42627
2.2615	-193.15796
2.262	-149.55139
2.2625	-111.18164
2.263	-89.12659
2.2635	-79.2572
2.264	-75.12817
2.2645	-94.2627
2.265	-142.60254
2.2655	-142.80396
2.266	-90.33508
2.2665	-8.05664
2.267	57.40356
2.2675	95.67261
2.268	127.69775
2.2685	155.59387
2.269	166.67175
2.2695	171.50574
2.27	153.78113
2.2705	138.27209
2.271	132.22961
2.2715	121.25244
2.272	100.30518
2.2725	67.47437
2.273	44.11011
2.2735	-3.42407
2.274	-53.27454
2.2745	-92.24854
2.275	-107.65686
2.2755	-100.6073
2.276	-101.71509
2.2765	-97.18323
2.277	-87.01172
2.2775	-50.55542
2.278	11.38
2.2785	70.69702
2.279	114.10217
2.2795	125.7843
2.28	122.76306
2.2805	120.54749
2.281	103.02429
2.2815	95.16907
2.282	121.65527
2.2825	172.3114
2.283	201.61743
2.2835	189.43176
2.284	134.04236
2.2845	66.56799
2.285	31.32019
2.2855	-0.60425
2.286	-58.41064
2.2865	-118.53333
2.287	-188.82751
2.2875	-240.89355
2.288	-249.35303
2.2885	-244.61975
2.289	-213.19885
2.2895	-188.32397
2.29	-154.18396
2.2905	-138.07068
2.291	-106.04553
2.2915	-59.71985
2.292	5.84106
2.2925	59.92126
2.293	117.92908
2.2935	149.85352
2.294	163.85193
2.2945	167.57812
2.295	174.12415
2.2955	159.82361
2.296	134.14307
2.2965	124.17297
2.297	109.06677
2.2975	95.47119
2.298	71.09985
2.2985	68.38074
2.299	54.48303
2.2995	16.21399
2.3	-14.19983
2.3005	-28.9032
2.301	-44.91577
2.3015	-48.23914
2.302	-47.33276
2.3025	-35.65063
2.303	-63.74817
2.3035	-134.34448
2.304	-186.91406
2.3045	-219.03992
2.305	-215.91797
2.3055	-211.08398
2.306	-176.23901
2.3065	-126.28784
2.307	-78.95508
2.3075	-25.78125
2.308	35.65063
2.3085	85.90393
2.309	117.82837
2.3095	146.83228
2.31	169.18945
2.3105	197.58911
2.311	201.01318
2.3115	190.03601
2.312	191.24451
2.3125	167.37671
2.313	122.46094
2.3135	54.58374
2.314	10.27222
2.3145	-18.32886
2.315	-10.47363
2.3155	17.52319
2.316	39.37683
2.3165	58.71277
2.317	66.97083
2.3175	75.12817
2.318	69.79065
2.3185	68.68286
2.319	71.50269
2.3195	53.87878
2.32	13.69629
2.3205	-14.80408
2.321	-23.56567
2.3215	-33.83789
2.322	-45.62073
2.3225	-57.70569
2.323	-77.64587
2.3235	-106.75049
2.324	-122.76306
2.3245	-131.12183
2.325	-141.39404
2.3255	-143.00537
2.326	-131.72607
2.3265	-110.87952
2.327	-75.83313
2.3275	-37.96692
2.328	-4.02832
2.3285	3.62549
2.329	-7.95593
2.3295	-31.52161
2.33	-48.03772
2.3305	-52.26746
2.331	-25.98267
2.3315	13.59558
2.332	45.11719
2.3325	83.99048
2.333	108.96606
2.3335	106.54907
2.334	94.96765
2.3345	84.99756
2.335	100.90942
2.3355	111.58447
2.336	101.11084
2.3365	67.8772
2.337	34.24072
2.3375	-21.45081
2.338	-60.92834
2.3385	-89.73083
2.339	-98.49243
2.3395	-108.26111
2.34	-102.21863
2.3405	-74.42322
2.341	-32.52869
2.3415	11.07788
2.342	56.79932
2.3425	84.2926
2.343	111.28235
2.3435	117.12341
2.344	118.13049
2.3445	105.03845
2.345	93.15491
2.3455	57.40356
2.346	20.74585
2.3465	0.40283
2.347	4.22974
2.3475	8.96301
2.348	-11.58142
2.3485	-34.14001
2.349	-36.65771
2.3495	-34.34143
2.35	-30.41382
2.3505	-32.42798
2.351	-33.43506
2.3515	-47.8363
2.352	-51.36108
2.3525	-42.59949
2.353	-44.0094
2.3535	-37.86621
2.354	-20.74585
2.3545	7.65381
2.355	20.94727
2.3555	-0.10071
2.356	-34.14001
2.3565	-75.63171
2.357	-96.57898
2.3575	-110.57739
2.358	-91.94641
2.3585	-57.20215
2.359	-21.24939
2.3595	20.54443
2.36	60.3241
2.3605	94.56482
2.361	98.39172
2.3615	78.95508
2.362	53.97949
2.3625	8.8623
2.363	-26.88904
2.3635	-39.57825
2.364	-70.69702
2.3645	-96.07544
2.365	-102.72217
2.3655	-93.35632
2.366	-88.72375
2.3665	-71.09985
2.367	-42.90161
2.3675	-4.63257
2.368	25.07629
2.3685	59.01489
2.369	91.14075
2.3695	126.79138
2.37	150.35706
2.3705	158.91724
2.371	174.02344
2.3715	182.18079
2.372	168.18237
2.3725	138.87634
2.373	101.21155
2.3735	55.49011
2.374	29.10461
2.3745	6.84814
2.375	6.94885
2.3755	18.22815
2.376	18.53027
2.3765	-8.45947
2.377	-39.27612
2.3775	-74.82605
2.378	-81.57349
2.3785	-94.66553
2.379	-116.11633
2.3795	-116.41846
2.38	-89.02588
2.3805	-42.29736
2.381	-5.94177
2.3815	23.96851
2.382	27.09045
2.3825	36.85913
2.383	35.34851
2.3835	48.94409
2.384	61.73401
2.3845	75.53101
2.385	104.4342
2.3855	119.23828
2.386	85.40039
2.3865	30.31311
2.387	-4.73328
2.3875	-14.90479
2.388	-5.0354
2.3885	-3.22266
2.389	0.90637
2.3895	-11.38
2.39	-28.39966
2.3905	-29.20532
2.391	-31.21948
2.3915	-37.46338
2.392	-42.7002
2.3925	-29.60815
2.393	-3.62549
2.3935	16.01257
2.394	27.39258
2.3945	-14.90479
2.395	-77.84729
2.3955	-179.15955
2.396	-245.32471
2.3965	-267.48047
2.397	-258.21533
2.3975	-221.55762
2.398	-159.82361
2.3985	-81.7749
2.399	-13.19275
2.3995	47.63489
2.4	107.95898
2.4005	158.81653
2.401	167.07458
2.4015	128.60413
2.402	79.15649
2.4025	48.13843
2.403	24.47205
2.4035	-3.8269
2.404	-29.50745
2.4045	-36.95984
2.405	-38.77258
2.4055	-39.57825
2.406	-26.98975
2.4065	-8.66089
2.407	3.32336
2.4075	27.99683
2.408	73.81897
2.4085	103.42712
2.409	123.16589
2.4095	120.95032
2.41	100.10376
2.4105	88.52234
2.411	91.14075
2.4115	69.1864
2.412	17.52319
2.4125	-15.71045
2.413	-6.74744
2.4135	18.42957
2.414	31.21948
2.4145	39.98108
2.415	69.79065
2.4155	84.79614
2.416	92.24854
2.4165	86.60889
2.417	73.91968
2.4175	56.19507
2.418	45.11719
2.4185	44.11011
2.419	45.82214
2.4195	53.87878
2.42	39.67896
2.4205	26.48621
2.421	12.89062
2.4215	17.42249
2.422	41.89453
2.4225	66.16516
2.423	85.09827
2.4235	99.3988
2.424	106.44836
2.4245	99.3988
2.425	89.22729
2.4255	70.3949
2.426	20.24231
2.4265	-34.94568
2.427	-90.63721
2.4275	-126.89209
2.428	-139.07776
2.4285	-127.79846
2.429	-101.8158
2.4295	-79.86145
2.43	-55.49011
2.4305	-27.6947
2.431	10.47363
2.4315	22.55859
2.432	35.95276
2.4325	29.80957
2.433	34.54285
2.4335	28.09753
2.434	20.1416
2.4345	31.11877
2.435	19.33594
2.4355	7.65381
2.436	1.00708
2.4365	10.57434
2.437	19.73877
2.4375	33.03223
2.438	46.82922
2.4385	68.48145
2.439	53.37524
2.4395	14.40125
2.44	-42.29736
2.4405	-105.44128
2.441	-148.54431
2.4415	-160.22644
2.442	-155.19104
2.4425	-126.18713
2.443	-98.0896
2.4435	-67.17224
2.444	-22.25647
2.4445	9.86938
2.445	39.37683
2.4455	44.11011
2.446	48.44055
2.4465	44.91577
2.447	55.59082
2.4475	47.13135
2.448	43.40515
2.4485	59.1156
2.449	61.83472
2.4495	29.10461
2.45	-5.13611
2.4505	-27.49329
2.451	-59.01489
2.4515	-83.08411
2.452	-90.03296
2.4525	-86.20605
2.453	-81.17065
2.4535	-70.89844
2.454	-79.15649
2.4545	-94.16199
2.455	-87.51526
2.4555	-63.04321
2.456	-37.06055
2.4565	-35.54993
2.457	-53.57666
2.4575	-46.42639
2.458	-26.78833
2.4585	5.74036
2.459	43.10303
2.4595	93.0542
2.46	125.58289
2.4605	163.95264
2.461	188.72681
2.4615	184.49707
2.462	167.47742
2.4625	144.81812
2.463	79.96216
2.4635	3.7262
2.464	-55.89294
2.4645	-88.32092
2.465	-107.75757
2.4655	-101.8158
2.466	-110.77881
2.4665	-132.73315
2.467	-156.39954
2.4675	-158.4137
2.468	-137.76855
2.4685	-91.8457
2.469	-34.03931
2.4695	15.1062
2.47	76.13525
2.4705	115.31067
2.471	136.15723
2.4715	139.88342
2.472	101.31226
2.4725	8.45947
2.473	-67.57507
2.4735	-128.80554
2.474	-109.26819
2.4745	-50.95825
2.475	22.6593
2.4755	94.3634
2.476	144.41528
2.4765	155.39246
2.477	140.78979
2.4775	115.31067
2.478	95.37048
2.4785	103.62854
2.479	114.60571
2.4795	119.84253
2.48	124.27368
2.4805	115.81421
2.481	103.82996
2.4815	61.83472
2.482	2.41699
2.4825	-37.46338
2.483	-61.23047
2.4835	-72.50977
2.484	-114.00146
2.4845	-171.50574
2.485	-199.30115
2.4855	-207.86133
2.486	-208.66699
2.4865	-227.90222
2.487	-239.08081
2.4875	-211.99036
2.488	-159.7229
2.4885	-110.27527
2.489	-60.22339
2.4895	7.45239
2.49	82.78198
2.4905	143.20679
2.491	176.44043
2.4915	188.52539
2.492	193.96362
2.4925	198.59619
2.493	176.84326
2.4935	144.6167
2.494	155.79529
2.4945	189.73389
2.495	213.60168
2.4955	195.07141
2.496	171.80786
2.4965	153.68042
2.497	140.18555
2.4975	110.07385
2.498	89.52942
2.4985	73.81897
2.499	48.33984
2.4995	6.54602
2.5	-30.11169
2.5005	-57.9071
2.501	-84.89685
2.5015	-94.56482
2.502	-98.59314
2.5025	-82.37915
2.503	-84.99756
2.5035	-120.64819
2.504	-145.42236
2.5045	-157.80945
2.505	-168.38379
2.5055	-175.93689
2.506	-155.09033
2.5065	-113.49792
2.507	-62.8418
2.5075	-41.79382
2.508	-37.7655
2.5085	-27.6947
2.509	-16.01257
2.5095	-16.01257
2.51	-17.12036
2.5105	17.6239
2.511	63.84888
2.5115	113.39722
2.512	149.95422
2.5125	179.66309
2.513	177.14539
2.5135	147.33582
2.514	98.0896
2.5145	59.31702
2.515	40.68604
2.5155	31.62231
2.516	23.16284
2.5165	4.73328
2.517	-5.43823
2.5175	-2.11487
2.518	0.30212
2.5185	15.50903
2.519	21.65222
2.5195	20.1416
2.52	6.74744
2.5205	-22.05505
2.521	-67.77649
2.5215	-101.51367
2.522	-112.28943
2.5225	-105.23987
2.523	-70.69702
2.5235	-66.46729
2.524	-95.87402
2.5245	-94.2627
2.525	-80.4657
2.5255	-72.30835
2.526	-66.97083
2.5265	-89.12659
2.527	-114.505
2.5275	-121.15173
2.528	-105.54199
2.5285	-65.86304
2.529	-13.69629
2.5295	37.26196
2.53	66.16516
2.5305	80.16357
2.531	96.98181
2.5315	130.92041
2.532	134.44519
2.5325	120.14465
2.533	64.75525
2.5335	19.53735
2.534	10.57434
2.5345	37.46338
2.535	66.16516
2.5355	93.55774
2.536	103.52783
2.5365	86.60889
2.537	55.99365
2.5375	19.13452
2.538	-11.88354
2.5385	-29.50745
2.539	-39.47754
2.5395	-36.05347
2.54	-19.83948
2.5405	8.45947
2.541	26.28479
2.5415	49.24622
2.542	60.4248
2.5425	70.19348
2.543	76.94092
2.5435	98.49243
2.544	98.29102
2.5445	84.89685
2.545	61.93542
2.5455	26.08337
2.546	-5.84106
2.5465	-29.40674
2.547	-62.23755
2.5475	-78.65295
2.548	-77.84729
2.5485	-61.53259
2.549	-38.67188
2.5495	-10.97717
2.55	2.81982
2.5505	20.94727
2.551	23.46497
2.5515	30.01099
2.552	21.65222
2.5525	43.50586
2.553	60.4248
2.5535	73.41614
2.554	76.94092
2.5545	61.83472
2.555	49.85046
2.5555	50.85754
2.556	55.49011
2.5565	50.05188
2.557	51.76392
2.5575	16.71753
2.558	-42.7002
2.5585	-87.61597
2.559	-98.79456
2.5595	-113.09509
2.56	-149.95422
2.5605	-182.58362
2.561	-203.53088
2.5615	-206.95496
2.562	-205.64575
2.5625	-187.21619
2.563	-147.33582
2.5635	-108.96606
2.564	-57.8064
2.5645	-5.33752
2.565	56.49719
2.5655	82.88269
2.566	55.08728
2.5665	15.40833
2.567	-11.17859
2.5675	-23.36426
2.568	-3.02124
2.5685	45.3186
2.569	94.96765
2.5695	149.55139
2.57	192.15088
2.5705	215.71655
2.571	216.62292
2.5715	223.97461
2.572	230.72205
2.5725	206.45142
2.573	179.36096
2.5735	169.29016
2.574	157.10449
2.5745	126.79138
2.575	99.60022
2.5755	86.30676
2.576	67.17224
2.5765	43.80798
2.577	13.69629
2.5775	6.94885
2.578	-7.45239
2.5785	-39.57825
2.579	-57.50427
2.5795	-65.56091
2.58	-74.02039
2.5805	-83.99048
2.581	-86.60889
2.5815	-74.42322
2.582	-57.8064
2.5825	-69.38782
2.583	-77.44446
2.5835	-72.40906
2.584	-45.41931
2.5845	-19.94019
2.585	0.60425
2.5855	17.72461
2.586	14.19983
2.5865	-24.87488
2.587	-36.95984
2.5875	-26.28479
2.588	-12.38708
2.5885	-3.8269
2.589	6.2439
2.5895	-13.89771
2.59	-32.12585
2.5905	-43.00232
2.591	-32.93152
2.5915	-22.96143
2.592	-33.9386
2.5925	-52.8717
2.593	-66.56799
2.5935	-79.2572
2.594	-77.14233
2.5945	-73.21472
2.595	-115.31067
2.5955	-165.16113
2.596	-167.276
2.5965	-130.51758
2.597	-110.07385
2.5975	-142.099
2.598	-190.94238
2.5985	-204.43726
2.599	-180.46875
2.5995	-124.57581
2.6	-46.72852
2.6005	54.68445
2.601	140.58838
2.6015	200.30823
2.602	229.21143
2.6025	261.43799
2.603	287.21924
2.6035	279.86755
2.604	234.75037
2.6045	180.97229
2.605	152.67334
2.6055	116.922
2.606	81.87561
2.6065	58.10852
2.607	55.3894
2.6075	66.97083
2.608	58.41064
2.6085	6.3446
2.609	-30.81665
2.6095	-28.70178
2.61	-8.05664
2.6105	16.41541
2.611	29.91028
2.6115	37.56409
2.612	29.40674
2.6125	-6.44531
2.613	-45.41931
2.6135	-62.43896
2.614	-50.85754
2.6145	-31.82373
2.615	-15.50903
2.6155	7.04956
2.616	6.04248
2.6165	-15.20691
2.617	-26.88904
2.6175	-29.30603
2.618	-33.43506
2.6185	-21.95435
2.619	7.65381
2.6195	34.24072
2.62	45.92285
2.6205	47.93701
2.621	52.36816
2.6215	51.66321
2.622	55.69153
2.6225	63.54675
2.623	54.0802
2.6235	13.39417
2.624	-22.45789
2.6245	-29.91028
2.625	-29.00391
2.6255	-13.39417
2.626	5.13611
2.6265	45.2179
2.627	64.85596
2.6275	67.67578
2.628	66.36658
2.6285	59.01489
2.629	58.51135
2.6295	51.96533
2.63	13.19275
2.6305	-16.3147
2.631	-22.6593
2.6315	-30.11169
2.632	-48.64197
2.6325	-70.49561
2.633	-82.17773
2.6335	-78.95508
2.634	-96.67969
2.6345	-123.36731
2.635	-146.53015
2.6355	-183.79211
2.636	-226.49231
2.6365	-250.36011
2.637	-273.42224
2.6375	-298.80066
2.638	-303.63464
2.6385	-269.59534
2.639	-214.00452
2.6395	-153.68042
2.64	-70.99915
2.6405	11.07788
2.641	81.06995
2.6415	141.29333
2.642	200.10681
2.6425	236.05957
2.643	240.69214
2.6435	186.30981
2.644	131.62537
2.6445	88.82446
2.645	88.22021
2.6455	100.50659
2.646	106.75049
2.6465	87.41455
2.647	75.63171
2.6475	68.28003
2.648	71.30127
2.6485	86.8103
2.649	105.94482
2.6495	110.87952
2.65	79.76074
2.6505	46.62781
2.651	38.36975
2.6515	57.50427
2.652	77.54517
2.6525	97.68677
2.653	95.77332
2.6535	96.57898
2.654	96.17615
2.6545	96.17615
2.655	82.68127
2.6555	61.02905
2.656	51.46179
2.6565	21.65222
2.657	-33.63647
2.6575	-74.92676
2.658	-106.54907
2.6585	-147.33582
2.659	-182.88574
2.6595	-166.67175
2.66	-114.90784
2.6605	-55.69153
2.661	24.87488
2.6615	117.02271
2.662	167.67883
2.6625	178.25317
2.663	177.04468
2.6635	159.42078
2.664	139.68201
2.6645	118.33191
2.665	90.5365
2.6655	54.58374
2.666	7.65381
2.6665	-40.78674
2.667	-67.8772
2.6675	-61.02905
2.668	-37.26196
2.6685	-33.33435
2.669	-26.58691
2.6695	-25.68054
2.67	-67.67578
2.6705	-155.29175
2.671	-217.63
2.6715	-233.34045
2.672	-202.82593
2.6725	-144.6167
2.673	-63.14392
2.6735	0.20142
2.674	56.69861
2.6745	107.85828
2.675	136.05652
2.6755	146.12732
2.676	134.94873
2.6765	133.84094
2.677	98.79456
2.6775	33.23364
2.678	23.8678
2.6785	43.20374
2.679	55.89294
2.6795	49.34692
2.68	39.88037
2.6805	46.02356
2.681	57.40356
2.6815	54.78516
2.682	46.02356
2.6825	10.87646
2.683	-10.0708
2.6835	-36.4563
2.684	-65.25879
2.6845	-91.94641
2.685	-128.90625
2.6855	-152.87476
2.686	-180.87158
2.6865	-195.17212
2.687	-186.71265
2.6875	-162.94556
2.688	-115.91492
2.6885	-29.50745
2.689	17.72461
2.6895	42.59949
2.69	37.96692
2.6905	32.32727
2.691	19.23523
2.6915	-12.28638
2.692	-31.11877
2.6925	-43.20374
2.693	-65.3595
2.6935	-69.28711
2.694	-70.09277
2.6945	-115.81421
2.695	-146.32874
2.6955	-147.03369
2.696	-116.41846
2.6965	-77.44446
2.697	-38.16833
2.6975	12.78992
2.698	56.5979
2.6985	118.43262
2.699	190.13672
2.6995	247.13745
2.7	303.1311
2.7005	351.67236
2.701	351.67236
2.7015	313.00049
2.702	261.43799
2.7025	173.21777
2.703	66.26587
2.7035	-42.39807
2.704	-77.44446
2.7045	-84.79614
2.705	-60.82764
2.7055	-12.38708
2.706	34.64355
2.7065	72.30835
2.707	58.81348
2.7075	-3.7262
2.708	-64.55383
2.7085	-92.85278
2.709	-98.39172
2.7095	-112.69226
2.71	-93.35632
2.7105	-59.01489
2.711	-25.47913
2.7115	-43.00232
2.712	-74.12109
2.7125	-110.87952
2.713	-117.92908
2.7135	-93.85986
2.714	-49.85046
2.7145	8.25806
2.715	42.19666
2.7155	36.95984
2.716	21.45081
2.7165	13.69629
2.717	27.59399
2.7175	47.23206
2.718	72.9126
2.7185	84.79614
2.719	97.38464
2.7195	125.88501
2.72	137.0636
2.7205	129.91333
2.721	125.88501
2.7215	124.37439
2.722	129.61121
2.7225	130.41687
2.723	134.24377
2.7235	138.77563
2.724	133.03528
2.7245	122.76306
2.725	83.78906
2.7255	53.47595
2.726	30.11169
2.7265	1.81274
2.727	-31.82373
2.7275	-70.59631
2.728	-126.38855
2.7285	-151.86768
2.729	-155.59387
2.7295	-136.66077
2.73	-107.45544
2.7305	-70.59631
2.731	-41.69312
2.7315	-33.13293
2.732	-24.06921
2.7325	-4.93469
2.733	11.2793
2.7335	9.76868
2.734	-6.84814
2.7345	-26.98975
2.735	-31.72302
2.7355	-42.39807
2.736	-68.17932
2.7365	-71.30127
2.737	-49.44763
2.7375	-22.55859
2.738	9.36584
2.7385	20.34302
2.739	18.8324
2.7395	11.98425
2.74	6.3446
2.7405	6.3446
2.741	18.42957
2.7415	19.73877
2.742	16.61682
2.7425	-2.41699
2.743	-34.64355
2.7435	-93.45703
2.744	-197.18628
2.7445	-295.98083
2.745	-359.32617
2.7455	-400.91858
2.746	-373.72742
2.7465	-296.38367
2.747	-191.04309
2.7475	-82.17773
2.748	12.28638
2.7485	66.97083
2.749	102.92358
2.7495	135.15015
2.75	160.02502
2.7505	181.67725
2.751	209.37195
2.7515	189.12964
2.752	139.88342
2.7525	103.125
2.753	76.7395
2.7535	23.96851
2.754	-68.98499
2.7545	-125.18005
2.755	-141.69617
2.7555	-136.25793
2.756	-103.93066
2.7565	-55.49011
2.757	0.10071
2.7575	59.21631
2.758	115.20996
2.7585	157.80945
2.759	178.95813
2.7595	212.4939
2.76	253.38135
2.7605	277.55127
2.761	265.96985
2.7615	254.28772
2.762	249.25232
2.7625	225.58594
2.763	182.28149
2.7635	151.56555
2.764	153.57971
2.7645	166.16821
2.765	176.84326
2.7655	178.5553
2.766	144.71741
2.7665	100.50659
2.767	22.76001
2.7675	-41.89453
2.768	-88.62305
2.7685	-147.94006
2.769	-222.06116
2.7695	-248.74878
2.77	-243.81409
2.7705	-212.89673
2.771	-171.20361
2.7715	-148.14148
2.772	-125.58289
2.7725	-87.61597
2.773	-48.84338
2.7735	-20.1416
2.774	11.78284
2.7745	41.89453
2.775	63.34534
2.7755	71.60339
2.776	66.26587
2.7765	54.58374
2.777	56.69861
2.7775	75.4303
2.778	83.48694
2.7785	68.38074
2.779	60.4248
2.7795	73.21472
2.78	81.97632
2.7805	67.8772
2.781	51.5625
2.7815	41.18958
2.782	49.0448
2.7825	37.7655
2.783	21.3501
2.7835	8.05664
2.784	9.46655
2.7845	-7.65381
2.785	-78.14941
2.7855	-146.73157
2.786	-186.81335
2.7865	-202.5238
2.787	-180.77087
2.7875	-161.93848
2.788	-145.22095
2.7885	-174.92981
2.789	-235.05249
2.7895	-271.00525
2.79	-263.65356
2.7905	-231.72913
2.791	-225.38452
2.7915	-235.05249
2.792	-193.76221
2.7925	-122.15881
2.793	-45.52002
2.7935	27.39258
2.794	94.56482
2.7945	143.91174
2.795	174.22485
2.7955	209.37195
2.796	238.17444
2.7965	299.60632
2.797	339.38599
2.7975	323.47412
2.798	289.13269
2.7985	247.7417
2.799	213.19885
2.7995	179.66309
2.8	178.35388
2.8005	181.17371
2.801	170.80078
2.8015	129.30908
2.802	73.01331
2.8025	0
2.803	-49.64905
2.8035	-75.32959
2.804	-90.43579
2.8045	-81.06995
2.805	-88.72375
2.8055	-94.16199
2.806	-87.01172
2.8065	-76.53809
2.807	-67.37366
2.8075	-65.56091
2.808	-57.30286
2.8085	-31.52161
2.809	-1.40991
2.8095	16.21399
2.81	0.90637
2.8105	-19.13452
2.811	-41.4917
2.8115	-34.24072
2.812	-0.60425
2.8125	41.39099
2.813	72.50977
2.8135	76.53809
2.814	66.56799
2.8145	47.43347
2.815	25.88196
2.8155	3.22266
2.816	-9.66797
2.8165	-5.63965
2.817	7.85522
2.8175	13.99841
2.818	14.50195
2.8185	5.0354
2.819	-8.96301
2.8195	-8.66089
2.82	3.32336
2.8205	10.77576
2.821	14.30054
2.8215	25.78125
2.822	31.01807
2.8225	19.63806
2.823	4.93469
2.8235	22.15576
2.824	41.29028
2.8245	35.34851
2.825	22.96143
2.8255	22.55859
2.826	35.2478
2.8265	64.151
2.827	71.40198
2.8275	48.54126
2.828	22.96143
2.8285	-4.43115
2.829	-35.44922
2.8295	-33.03223
2.83	-20.1416
2.8305	-11.48071
2.831	-26.98975
2.8315	-38.87329
2.832	-36.25488
2.8325	-32.62939
2.833	-47.33276
2.8335	-82.68127
2.834	-110.17456
2.8345	-125.88501
2.835	-126.58997
2.8355	-123.97156
2.836	-106.64978
2.8365	-90.5365
2.837	-75.02747
2.8375	-78.65295
2.838	-63.04321
2.8385	-45.52002
2.839	-24.27063
2.8395	-35.14709
2.84	-66.6687
2.8405	-120.34607
2.841	-149.45068
2.8415	-149.95422
2.842	-94.86694
2.8425	-40.1825
2.843	-13.99841
2.8435	-36.55701
2.844	-53.87878
2.8445	-43.30444
2.845	4.33044
2.8455	39.77966
2.846	61.33118
2.8465	94.06128
2.847	96.27686
2.8475	90.33508
2.848	97.88818
2.8485	122.46094
2.849	161.83777
2.8495	214.00452
2.85	252.87781
2.8505	269.89746
2.851	241.69922
2.8515	215.51514
2.852	180.77087
2.8525	128.70483
2.853	92.44995
2.8535	77.74658
2.854	59.51843
2.8545	36.55701
2.855	25.37842
2.8555	8.45947
2.856	6.3446
2.8565	13.797
2.857	0.50354
2.8575	3.42407
2.858	-11.58142
2.8585	-22.35718
2.859	-25.78125
2.8595	-46.12427
2.86	-67.17224
2.8605	-75.93384
2.861	-79.66003
2.8615	-84.19189
2.862	-82.47986
2.8625	-60.62622
2.863	-44.31152
2.8635	-43.20374
2.864	-45.41931
2.8645	-75.4303
2.865	-122.36023
2.8655	-135.25085
2.866	-133.13599
2.8665	-98.39172
2.867	-40.68604
2.8675	38.36975
2.868	101.51367
2.8685	130.8197
2.869	152.27051
2.8695	169.69299
2.87	156.50024
2.8705	136.05652
2.871	110.6781
2.8715	100.40588
2.872	76.03455
2.8725	47.7356
2.873	28.80249
2.8735	25.98267
2.874	-7.5531
2.8745	-37.56409
2.875	-40.68604
2.8755	-34.34143
2.876	-23.76709
2.8765	5.0354
2.877	42.90161
2.8775	57.9071
2.878	73.81897
2.8785	74.2218
2.879	65.76233
2.8795	57.50427
2.88	49.14551
2.8805	26.78833
2.881	-9.97009
2.8815	-61.43188
2.882	-89.328
2.8825	-78.25012
2.883	-64.85596
2.8835	-71.60339
2.884	-71.50269
2.8845	-79.66003
2.885	-84.69543
2.8855	-71.40198
2.886	-47.23206
2.8865	-29.70886
2.887	-27.59399
2.8875	-26.88904
2.888	-38.16833
2.8885	-49.95117
2.889	-46.92993
2.8895	-93.25562
2.89	-128.80554
2.8905	-147.23511
2.891	-166.47034
2.8915	-163.14697
2.892	-148.4436
2.8925	-141.99829
2.893	-125.88501
2.8935	-125.07935
2.894	-149.55139
2.8945	-130.31616
2.895	-111.9873
2.8955	-81.37207
2.896	-35.75134
2.8965	36.65771
2.897	106.64978
2.8975	180.06592
2.898	225.0824
2.8985	267.58118
2.899	292.85889
2.8995	302.32544
2.9	308.87146
2.9005	291.24756
2.901	257.20825
2.9015	191.04309
2.902	121.45386
2.9025	67.47437
2.903	7.5531
2.9035	-44.11011
2.904	-59.92126
2.9045	-60.62622
2.905	-63.24463
2.9055	-45.92285
2.906	-20.04089
2.9065	7.65381
2.907	37.56409
2.9075	78.55225
2.908	92.95349
2.9085	74.42322
2.909	16.21399
2.9095	-77.04163
2.91	-158.71582
2.9105	-191.94946
2.911	-215.81726
2.9115	-247.84241
2.912	-272.31445
2.9125	-235.65674
2.913	-166.77246
2.9135	-96.17615
2.914	-29.60815
2.9145	41.39099
2.915	88.42163
2.9155	118.13049
2.916	143.00537
2.9165	155.49316
2.917	189.73389
2.9175	234.85107
2.918	270.09888
2.9185	273.52295
2.919	262.54578
2.9195	240.1886
2.92	199.60327
2.9205	166.67175
2.921	144.31458
2.9215	119.94324
2.922	84.09119
2.9225	47.23206
2.923	8.7616
2.9235	-52.97241
2.924	-130.71899
2.9245	-201.81885
2.925	-220.75195
2.9255	-204.73938
2.926	-183.28857
2.9265	-156.90308
2.927	-110.37598
2.9275	-64.95667
2.928	-20.64514
2.9285	25.07629
2.929	64.25171
2.9295	87.61597
2.93	96.57898
2.9305	104.03137
2.931	92.85278
2.9315	80.26428
2.932	75.12817
2.9325	63.44604
2.933	45.41931
2.9335	9.97009
2.934	-6.74744
2.9345	-9.56726
2.935	-6.94885
2.9355	-13.49487
2.936	-17.22107
2.9365	-20.64514
2.937	-24.06921
2.9375	-46.72852
2.938	-100.70801
2.9385	-163.5498
2.939	-173.31848
2.9395	-165.66467
2.94	-148.64502
2.9405	-125.48218
2.941	-79.2572
2.9415	-22.25647
2.942	26.18408
2.9425	68.28003
2.943	97.18323
2.9435	107.55615
2.944	111.38306
2.9445	86.50818
2.945	65.3595
2.9455	39.67896
2.946	-10.57434
2.9465	-67.57507
2.947	-82.58057
2.9475	-68.68286
2.948	-39.88037
2.9485	-15.00549
2.949	18.42957
2.9495	32.12585
2.95	66.06445
2.9505	75.12817
2.951	58.61206
2.9515	51.66321
2.952	62.74109
2.9525	73.81897
2.953	78.45154
2.9535	50.85754
2.954	12.89062
2.9545	-2.21558
2.955	-13.59558
2.9555	-29.70886
2.956	-114.505
2.9565	-208.7677
2.957	-257.00684
2.9575	-249.55444
2.958	-216.3208
2.9585	-190.23743
2.959	-171.20361
2.9595	-157.91016
2.96	-145.52307
2.9605	-129.20837
2.961	-104.73633
2.9615	-81.7749
2.962	-75.32959
2.9625	-74.32251
2.963	-67.37366
2.9635	-55.99365
2.964	-38.16833
2.9645	13.19275
2.965	61.02905
2.9655	114.70642
2.966	161.0321
2.9665	189.63318
2.967	220.75195
2.9675	251.5686
2.968	280.06897
2.9685	261.33728
2.969	223.47107
2.9695	195.97778
2.97	174.42627
2.9705	152.1698
2.971	134.74731
2.9715	108.76465
2.972	83.08411
2.9725	68.38074
2.973	53.27454
2.9735	58.61206
2.974	85.70251
2.9745	106.75049
2.975	103.72925
2.9755	84.79614
2.976	63.94958
2.9765	22.15576
2.977	6.2439
2.9775	-8.05664
2.978	-2.81982
2.9785	1.91345
2.979	12.48779
2.9795	5.23682
2.98	-19.94019
2.9805	-56.5979
2.981	-147.53723
2.9815	-241.90063
2.982	-326.29395
2.9825	-370.90759
2.983	-382.38831
2.9835	-333.44421
2.984	-233.9447
2.9845	-127.49634
2.985	-19.73877
2.9855	66.36658
2.986	136.05652
2.9865	181.073
2.987	215.71655
2.9875	239.18152
2.988	234.64966
2.9885	208.16345
2.989	168.58521
2.9895	98.0896
2.99	27.6947
2.9905	-20.94727
2.991	-18.02673
2.9915	19.53735
2.992	53.77808
2.9925	76.84021
2.993	72.10693
2.9935	64.55383
2.994	65.05737
2.9945	73.51685
2.995	92.24854
2.9955	100.6073
2.996	92.55066
2.9965	60.4248
2.997	33.13293
2.9975	28.29895
2.998	18.73169
2.9985	-1.40991
2.999	-23.56567
2.9995	-50.85754
3	-64.151
3.0005	-52.46887
3.001	-39.67896
3.0015	-34.64355
3.002	-36.35559
3.0025	-37.86621
3.003	-57.10144
3.0035	-79.55933
3.004	-100.20447
3.0045	-106.54907
3.005	-101.01013
3.0055	-98.59314
3.006	-106.34766
3.0065	-145.01953
3.007	-163.14697
3.0075	-162.54272
3.008	-181.27441
3.0085	-211.68823
3.009	-220.24841
3.0095	-195.17212
3.01	-172.10999
3.0105	-127.29492
3.011	-31.11877
3.0115	50.15259
3.012	110.07385
3.0125	140.18555
3.013	171.20361
3.0135	203.02734
3.014	237.16736
3.0145	259.021
3.015	281.27747
3.0155	284.29871
3.016	273.22083
3.0165	245.12329
3.017	210.78186
3.0175	164.7583
3.018	122.76306
3.0185	104.83704
3.019	77.24304
3.0195	40.08179
3.02	-5.23682
3.0205	-54.18091
3.021	-84.89685
3.0215	-106.44836
3.022	-106.14624
3.0225	-97.58606
3.023	-108.56323
3.0235	-102.42004
3.024	-75.22888
3.0245	-29.80957
3.025	14.80408
3.0255	60.12268
3.026	102.72217
3.0265	135.35156
3.027	141.19263
3.0275	121.45386
3.028	105.54199
3.0285	69.1864
3.029	32.32727
3.0295	-7.5531
3.03	-22.15576
3.0305	-41.4917
3.031	-122.25952
3.0315	-191.94946
3.032	-240.08789
3.0325	-241.69922
3.033	-214.40735
3.0335	-168.88733
3.034	-119.84253
3.0345	-73.91968
3.035	-65.56091
3.0355	-56.79932
3.036	-35.2478
3.0365	0.80566
3.037	30.81665
3.0375	56.79932
3.038	93.96057
3.0385	124.4751
3.039	152.1698
3.0395	160.32715
3.04	140.08484
3.0405	95.06836
3.041	4.02832
3.0415	-99.70093
3.042	-144.41528
3.0425	-120.34607
3.043	-60.62622
3.0435	-7.95593
3.044	27.59399
3.0445	37.16125
3.045	53.97949
3.0455	50.2533
3.046	22.55859
3.0465	-12.89062
3.047	-30.81665
3.0475	-41.4917
3.048	-42.90161
3.0485	-37.86621
3.049	-36.65771
3.0495	-11.58142
3.05	6.44531
3.0505	-3.22266
3.051	4.73328
3.0515	14.60266
3.052	50.95825
3.0525	99.2981
3.053	135.15015
3.0535	157.50732
3.054	186.71265
3.0545	205.74646
3.055	192.65442
3.0555	152.67334
3.056	100.80872
3.0565	76.7395
3.057	44.21082
3.0575	-60.62622
3.058	-172.81494
3.0585	-239.28223
3.059	-248.24524
3.0595	-199.50256
3.06	-138.97705
3.0605	-72.9126
3.061	-16.21399
3.0615	32.32727
3.062	87.31384
3.0625	129.40979
3.063	159.21936
3.0635	166.0675
3.064	152.77405
3.0645	104.93774
3.065	72.10693
3.0655	59.82056
3.066	61.6333
3.0665	75.53101
3.067	101.31226
3.0675	121.9574
3.068	109.87244
3.0685	71.60339
3.069	19.73877
3.0695	-16.3147
3.07	-36.65771
3.0705	-43.50586
3.071	-43.10303
3.0715	-62.43896
3.072	-106.75049
3.0725	-132.43103
3.073	-140.18555
3.0735	-120.14465
3.074	-97.68677
3.0745	-61.33118
3.075	-20.34302
3.0755	17.01965
3.076	21.75293
3.0765	2.41699
3.077	-41.69312
3.0775	-86.30676
3.078	-102.52075
3.0785	-119.84253
3.079	-117.72766
3.0795	-74.92676
3.08	-16.3147
3.0805	28.39966
3.081	52.67029
3.0815	58.00781
3.082	47.7356
3.0825	39.47754
3.083	43.10303
3.0835	51.5625
3.084	61.02905
3.0845	54.48303
3.085	32.32727
3.0855	13.49487
3.086	11.17859
3.0865	-35.14709
3.087	-72.81189
3.0875	-82.37915
3.088	-59.31702
3.0885	-29.50745
3.089	16.61682
3.0895	65.76233
3.09	73.11401
3.0905	58.51135
3.091	30.61523
3.0915	26.28479
3.092	30.31311
3.0925	53.27454
3.093	101.9165
3.0935	126.18713
3.094	114.70642
3.0945	75.4303
3.095	-2.5177
3.0955	-103.42712
3.096	-168.38379
3.0965	-203.53088
3.097	-217.12646
3.0975	-218.73779
3.098	-208.56628
3.0985	-172.91565
3.099	-145.22095
3.0995	-113.09509
3.1	-75.22888
3.1005	-53.57666
3.101	-33.23364
3.1015	-5.13611
3.102	29.10461
3.1025	54.78516
3.103	74.82605
3.1035	90.73792
3.104	108.96606
3.1045	135.25085
3.105	165.86609
3.1055	171.90857
3.106	157.80945
3.1065	169.7937
3.107	203.12805
3.1075	230.92346
3.108	249.95728
3.1085	252.87781
3.109	219.34204
3.1095	172.21069
3.11	114.90784
3.1105	68.38074
3.111	54.0802
3.1115	10.67505
3.112	-26.18408
3.1125	-48.74268
3.113	-63.74817
3.1135	-82.47986
3.114	-110.77881
3.1145	-110.87952
3.115	-102.42004
3.1155	-84.79614
3.116	-82.88269
3.1165	-74.42322
3.117	-64.151
3.1175	-54.38232
3.118	-41.89453
3.1185	-34.64355
3.119	-13.49487
3.1195	0.70496
3.12	7.15027
3.1205	15.30762
3.121	41.08887
3.1215	56.90002
3.122	65.66162
3.1225	78.35083
3.123	75.4303
3.1235	59.51843
3.124	43.50586
3.1245	29.40674
3.125	-10.97717
3.1255	-60.12268
3.126	-88.32092
3.1265	-113.39722
3.127	-120.64819
3.1275	-114.00146
3.128	-93.55774
3.1285	-60.02197
3.129	-28.9032
3.1295	-38.36975
3.13	-82.17773
3.1305	-107.95898
3.131	-128.80554
3.1315	-150.9613
3.132	-195.07141
3.1325	-259.22241
3.133	-304.44031
3.1335	-269.1925
3.134	-225.58594
3.1345	-147.23511
3.135	-50.55542
3.1355	42.19666
3.136	134.94873
3.1365	194.06433
3.137	217.22717
3.1375	237.87231
3.138	223.16895
3.1385	184.59778
3.139	130.41687
3.1395	105.74341
3.14	101.41296
3.1405	99.49951
3.141	106.14624
3.1415	96.37756
3.142	66.87012
3.1425	39.98108
3.143	38.77258
3.1435	45.2179
3.144	55.49011
3.1445	65.66162
3.145	77.14233
3.1455	74.82605
3.146	82.78198
3.1465	104.73633
3.147	136.86218
3.1475	137.36572
3.148	122.05811
3.1485	108.26111
3.149	88.72375
3.1495	79.45862
3.15	77.74658
3.1505	75.4303
3.151	46.32568
3.1515	-3.52478
3.152	-35.65063
3.1525	-58.61206
3.153	-108.66394
3.1535	-127.09351
3.154	-123.46802
3.1545	-95.06836
3.155	-47.63489
3.1555	-12.38708
3.156	13.59558
3.1565	9.86938
3.157	-13.09204
3.1575	-29.80957
3.158	-29.91028
3.1585	-30.61523
3.159	-15.60974
3.1595	-8.45947
3.16	-21.3501
3.1605	-37.66479
3.161	-27.99683
3.1615	-11.07788
3.162	8.7616
3.1625	51.96533
3.163	100.20447
3.1635	123.36731
3.164	107.85828
3.1645	86.00464
3.165	62.03613
3.1655	42.90161
3.166	32.22656
3.1665	39.98108
3.167	34.74426
3.1675	22.86072
3.168	34.03931
3.1685	40.48462
3.169	48.33984
3.1695	52.56958
3.17	51.96533
3.1705	41.59241
3.171	30.11169
3.1715	4.93469
3.172	-76.43738
3.1725	-184.19495
3.173	-293.16101
3.1735	-375.54016
3.174	-436.46851
3.1745	-464.56604
3.175	-440.69824
3.1755	-369.39697
3.176	-280.27039
3.1765	-176.0376
3.177	-68.88428
3.1775	24.37134
3.178	109.67102
3.1785	178.15247
3.179	239.38293
3.1795	292.95959
3.18	327.40173
3.1805	357.91626
3.181	387.323
3.1815	371.31042
3.182	334.65271
3.1825	299.40491
3.183	255.89905
3.1835	201.81885
3.184	140.38696
3.1845	95.77332
3.185	65.15808
3.1855	-6.14319
3.186	-93.75916
3.1865	-186.51123
3.187	-284.09729
3.1875	-334.95483
3.188	-359.12476
3.1885	-356.00281
3.189	-328.91235
3.1895	-297.39075
3.19	-234.44824
3.1905	-149.75281
3.191	-61.83472
3.1915	8.7616
3.192	76.23596
3.1925	117.12341
3.193	129.91333
3.1935	142.19971
3.194	159.62219
3.1945	161.33423
3.195	139.37988
3.1955	131.72607
3.196	136.25793
3.1965	154.58679
3.197	179.46167
3.1975	195.77637
3.198	200.30823
3.1985	194.56787
3.199	186.20911
3.1995	189.63318
3.2	159.52148
3.2005	107.35474
3.201	51.76392
3.2015	4.12903
3.202	-24.27063
3.2025	-39.07471
3.203	-39.88037
3.2035	-42.19666
3.204	-53.87878
3.2045	-67.37366
3.205	-69.1864
3.2055	-84.99756
3.206	-85.70251
3.2065	-71.30127
3.207	-51.36108
3.2075	-43.70728
3.208	-41.29028
3.2085	-32.32727
3.209	-14.80408
3.2095	5.53894
3.21	19.83948
3.2105	16.71753
3.211	-25.68054
3.2115	-58.00781
3.212	-73.71826
3.2125	-93.75916
3.213	-111.8866
3.2135	-113.90076
3.214	-126.79138
3.2145	-130.51758
3.215	-102.11792
3.2155	-53.77808
3.216	-27.39258
3.2165	-48.64197
3.217	-59.41772
3.2175	-45.72144
3.218	-18.8324
3.2185	21.85364
3.219	40.68604
3.2195	64.35242
3.22	80.26428
3.2205	103.62854
3.221	108.86536
3.2215	110.47668
3.222	81.27136
3.2225	59.92126
3.223	13.29346
3.2235	-50.45471
3.224	-79.2572
3.2245	-86.70959
3.225	-97.68677
3.2255	-120.84961
3.226	-128.302
3.2265	-78.55225
3.227	-20.34302
3.2275	15.30762
3.228	42.49878
3.2285	63.04321
3.229	75.63171
3.2295	78.55225
3.23	81.97632
3.2305	75.22888
3.231	58.91418
3.2315	68.38074
3.232	76.53809
3.2325	66.36658
3.233	65.3595
3.2335	58.10852
3.234	22.76001
3.2345	-12.99133
3.235	-45.41931
3.2355	-52.8717
3.236	-50.45471
3.2365	-43.60657
3.237	-50.15259
3.2375	-40.68604
3.238	-12.68921
3.2385	15.50903
3.239	59.01489
3.2395	99.90234
3.24	131.62537
3.2405	147.73865
3.241	156.60095
3.2415	148.4436
3.242	157.60803
3.2425	157.10449
3.243	143.91174
3.2435	114.80713
3.244	74.72534
3.2445	36.55701
3.245	16.71753
3.2455	4.53186
3.246	-14.40125
3.2465	-78.14941
3.247	-147.53723
3.2475	-172.81494
3.248	-145.8252
3.2485	-96.17615
3.249	-50.15259
3.2495	-12.08496
3.25	5.43823
3.2505	-1.91345
3.251	-43.20374
3.2515	-104.23279
3.252	-140.08484
3.2525	-151.56555
3.253	-146.12732
3.2535	-140.78979
3.254	-117.62695
3.2545	-76.7395
3.255	-32.52869
3.2555	-2.31628
3.256	34.84497
3.2565	80.06287
3.257	110.17456
3.2575	132.83386
3.258	153.07617
3.2585	169.99512
3.259	179.26025
3.2595	183.69141
3.26	176.84326
3.2605	154.88892
3.261	149.45068
3.2615	121.35315
3.262	77.64587
3.2625	30.81665
3.263	2.21558
3.2635	-61.53259
3.264	-125.7843
3.2645	-184.09424
3.265	-237.16736
3.2655	-233.9447
3.266	-198.6969
3.2665	-132.83386
3.267	-59.61914
3.2675	12.38708
3.268	57.8064
3.2685	97.08252
3.269	135.8551
3.2695	162.03918
3.27	161.13281
3.2705	128.90625
3.271	76.53809
3.2715	-4.33044
3.272	-64.95667
3.2725	-83.68835
3.273	-72.40906
3.2735	-44.91577
3.274	-17.22107
3.2745	8.45947
3.275	38.47046
3.2755	41.89453
3.276	24.57275
3.2765	22.45789
3.277	-6.14319
3.2775	-73.11401
3.278	-151.26343
3.2785	-219.24133
3.279	-254.89197
3.2795	-263.04932
3.28	-249.35303
3.2805	-210.88257
3.281	-160.42786
3.2815	-84.2926
3.282	6.44531
3.2825	88.0188
3.283	128.70483
3.2835	155.59387
3.284	174.72839
3.2845	188.92822
3.285	203.02734
3.2855	212.69531
3.286	206.14929
3.2865	145.22095
3.287	109.67102
3.2875	84.19189
3.288	81.27136
3.2885	103.62854
3.289	118.02979
3.2895	109.97314
3.29	95.87402
3.2905	68.58215
3.291	17.72461
3.2915	-23.36426
3.292	-54.0802
3.2925	-66.36658
3.293	-62.43896
3.2935	-80.86853
3.294	-106.64978
3.2945	-131.92749
3.295	-181.073
3.2955	-225.68665
3.296	-238.67798
3.2965	-222.66541
3.297	-174.22485
3.2975	-95.97473
3.298	-39.07471
3.2985	20.1416
3.299	59.61914
3.2995	78.75366
3.3	88.82446
3.3005	111.8866
3.301	146.32874
3.3015	173.62061
3.302	183.38928
3.3025	184.8999
3.303	188.82751
3.3035	169.29016
3.304	127.19421
3.3045	81.47278
3.305	44.31152
3.3055	22.45789
3.306	14.70337
3.3065	32.93152
3.307	52.46887
3.3075	50.2533
3.308	38.57117
3.3085	45.92285
3.309	50.15259
3.3095	69.08569
3.31	88.82446
3.3105	98.39172
3.311	97.98889
3.3115	74.32251
3.312	50.15259
3.3125	47.33276
3.313	41.89453
3.3135	28.19824
3.314	23.26355
3.3145	-7.95593
3.315	-80.96924
3.3155	-146.63086
3.316	-182.58362
3.3165	-193.15796
3.317	-181.87866
3.3175	-148.64502
3.318	-131.92749
3.3185	-132.0282
3.319	-125.98572
3.3195	-100.50659
3.32	-60.82764
3.3205	-4.93469
3.321	41.39099
3.3215	38.57117
3.322	20.24231
3.3225	3.02124
3.323	-11.98425
3.3235	-51.36108
3.324	-78.45154
3.3245	-104.03137
3.325	-117.12341
3.3255	-103.82996
3.326	-105.13916
3.3265	-103.42712
3.327	-94.86694
3.3275	-87.21313
3.328	-79.66003
3.3285	-58.91418
3.329	-25.98267
3.3295	31.21948
3.33	93.35632
3.3305	134.84802
3.331	149.55139
3.3315	142.80396
3.332	159.7229
3.3325	168.08167
3.333	173.82202
3.3335	166.77246
3.334	152.67334
3.3345	127.99988
3.335	115.91492
3.3355	120.04395
3.336	106.9519
3.3365	79.05579
3.337	54.58374
3.3375	-10.67505
3.338	-85.19897
3.3385	-123.06519
3.339	-109.16748
3.3395	-68.98499
3.34	-39.07471
3.3405	-5.0354
3.341	43.20374
3.3415	93.15491
3.342	129.81262
3.3425	151.46484
3.343	146.02661
3.3435	142.099
3.344	118.02979
3.3445	76.53809
3.345	-19.23523
3.3455	-103.32642
3.346	-155.59387
3.3465	-182.08008
3.347	-170.80078
3.3475	-121.25244
3.348	-72.71118
3.3485	-15.1062
3.349	10.77576
3.3495	28.09753
3.35	36.85913
3.3505	31.82373
3.351	39.37683
3.3515	32.02515
3.352	17.22107
3.3525	-22.35718
3.353	-83.08411
3.3535	-148.3429
3.354	-170.90149
3.3545	-137.86926
3.355	-95.77332
3.3555	-48.44055
3.356	-7.75452
3.3565	23.36426
3.357	43.90869
3.3575	76.33667
3.358	85.60181
3.3585	99.2981
3.359	118.83545
3.3595	136.86218
3.36	145.32166
3.3605	129.71191
3.361	115.10925
3.3615	106.24695
3.362	78.25012
3.3625	36.55701
3.363	15.30762
3.3635	12.99133
3.364	23.26355
3.3645	39.98108
3.365	46.62781
3.3655	29.10461
3.366	-3.42407
3.3665	-48.84338
3.367	-83.78906
3.3675	-80.76782
3.368	-52.36816
3.3685	-29.00391
3.369	-14.80408
3.3695	8.45947
3.37	22.45789
3.3705	15.50903
3.371	1.51062
3.3715	-17.72461
3.372	-13.29346
3.3725	-27.59399
3.373	-33.53577
3.3735	-22.35718
3.374	6.54602
3.3745	33.13293
3.375	49.34692
3.3755	38.26904
3.376	41.89453
3.3765	59.21631
3.377	76.23596
3.3775	62.74109
3.378	5.53894
3.3785	-85.29968
3.379	-177.64893
3.3795	-245.42542
3.38	-239.98718
3.3805	-197.58911
3.381	-124.67651
3.3815	-50.45471
3.382	26.78833
3.3825	96.57898
3.383	159.32007
3.3835	190.84167
3.384	186.91406
3.3845	160.52856
3.385	129.10767
3.3855	93.55774
3.386	61.73401
3.3865	31.01807
3.387	20.04089
3.3875	-1.2085
3.388	-33.13293
3.3885	-45.2179
3.389	-49.24622
3.3895	-66.26587
3.39	-95.37048
3.3905	-139.27917
3.391	-157.00378
3.3915	-139.17847
3.392	-104.63562
3.3925	-50.55542
3.393	2.81982
3.3935	43.60657
3.394	57.40356
3.3945	28.70178
3.395	-34.74426
3.3955	-74.72534
3.396	-94.66553
3.3965	-108.05969
3.397	-114.30359
3.3975	-104.3335
3.398	-63.24463
3.3985	11.88354
3.399	61.12976
3.3995	67.07153
3.4	82.88269
3.4005	92.85278
3.401	107.85828
3.4015	88.22021
3.402	70.79773
3.4025	36.85913
3.403	24.67346
3.4035	19.43665
3.404	15.30762
3.4045	-5.63965
3.405	-51.15967
3.4055	-84.19189
3.406	-80.16357
3.4065	-67.57507
3.407	-35.04639
3.4075	-3.12195
3.408	-2.11487
3.4085	-3.32336
3.409	6.74744
3.4095	26.98975
3.41	69.28711
3.4105	80.86853
3.411	88.72375
3.4115	116.21704
3.412	127.29492
3.4125	104.83704
3.413	60.22339
3.4135	9.36584
3.414	-27.99683
3.4145	-32.7301
3.415	-3.02124
3.4155	34.54285
3.416	70.09277
3.4165	83.58765
3.417	76.84021
3.4175	80.26428
3.418	89.328
3.4185	107.65686
3.419	133.43811
3.4195	146.42944
3.42	156.60095
3.4205	133.84094
3.421	91.34216
3.4215	65.46021
3.422	47.33276
3.4225	21.14868
3.423	4.33044
3.4235	-9.56726
3.424	-0.10071
3.4245	10.27222
3.425	-2.61841
3.4255	-11.78284
3.426	-15.50903
3.4265	-10.0708
3.427	-9.76868
3.4275	-7.5531
3.428	-7.75452
3.4285	-4.33044
3.429	-7.85522
3.4295	-2.71912
3.43	-4.83398
3.4305	-6.94885
3.431	1.40991
3.4315	7.65381
3.432	4.02832
3.4325	5.63965
3.433	7.15027
3.4335	4.83398
3.434	1.2085
3.4345	-27.99683
3.435	-96.37756
3.4355	-142.30042
3.436	-154.6875
3.4365	-142.099
3.437	-109.97314
3.4375	-94.86694
3.438	-87.61597
3.4385	-65.15808
3.439	-25.27771
3.4395	12.48779
3.44	56.49719
3.4405	101.21155
3.441	115.7135
3.4415	110.47668
3.442	104.53491
3.4425	90.43579
3.443	29.20532
3.4435	-34.64355
3.444	-98.29102
3.4445	-144.21387
3.445	-178.25317
3.4455	-186.30981
3.446	-153.3783
3.4465	-144.01245
3.447	-120.7489
3.4475	-89.42871
3.448	-54.78516
3.4485	-63.54675
3.449	-125.7843
3.4495	-159.11865
3.45	-148.4436
3.4505	-103.42712
3.451	-49.95117
3.4515	-14.90479
3.452	-3.42407
3.4525	19.73877
3.453	83.88977
3.4535	139.98413
3.454	168.18237
3.4545	189.23035
3.455	190.84167
3.4555	186.71265
3.456	163.5498
3.4565	142.70325
3.457	128.302
3.4575	77.84729
3.458	32.62939
3.4585	-1.61133
3.459	-43.30444
3.4595	-114.20288
3.46	-209.47266
3.4605	-254.89197
3.461	-225.48523
3.4615	-146.32874
3.462	-38.87329
3.4625	42.59949
3.463	105.74341
3.4635	144.01245
3.464	178.95813
3.4645	206.14929
3.465	228.40576
3.4655	242.7063
3.466	230.1178
3.4665	221.25549
3.467	207.65991
3.4675	186.20911
3.468	143.91174
3.4685	88.42163
3.469	28.60107
3.4695	-16.81824
3.47	-46.92993
3.4705	-65.05737
3.471	-38.16833
3.4715	-12.68921
3.472	12.38708
3.4725	21.24939
3.473	26.88904
3.4735	25.88196
3.474	26.3855
3.4745	12.99133
3.475	2.81982
3.4755	2.92053
3.476	-2.21558
3.4765	-17.32178
3.477	-8.66089
3.4775	1.81274
3.478	18.12744
3.4785	26.08337
3.479	25.27771
3.4795	18.02673
3.48	12.08496
3.4805	7.04956
3.481	12.18567
3.4815	11.68213
3.482	21.14868
3.4825	14.70337
3.483	-11.2793
3.4835	-34.44214
3.484	-66.87012
3.4845	-101.01013
3.485	-129.40979
3.4855	-130.11475
3.486	-108.66394
3.4865	-92.24854
3.487	-83.88977
3.4875	-67.17224
3.488	-52.46887
3.4885	-43.30444
3.489	-43.80798
3.4895	-39.67896
3.49	-34.34143
3.4905	-21.85364
3.491	-33.73718
3.4915	-63.64746
3.492	-70.3949
3.4925	-63.14392
3.493	-84.09119
3.4935	-119.33899
3.494	-151.56555
3.4945	-141.09192
3.495	-97.08252
3.4955	-43.20374
3.496	10.67505
3.4965	53.47595
3.497	34.44214
3.4975	-32.32727
3.498	-109.67102
3.4985	-150.75989
3.499	-173.41919
3.4995	-190.03601
3.5	-202.02026
3.5005	-198.09265
3.501	-212.09106
3.5015	-199.50256
3.502	-125.18005
3.5025	-25.47913
3.503	64.25171
3.5035	150.45776
3.504	213.90381
3.5045	251.77002
3.505	269.49463
3.5055	288.72986
3.506	297.89429
3.5065	307.05872
3.507	327.09961
3.5075	332.53784
3.508	317.83447
3.5085	299.3042
3.509	279.76685
3.5095	233.34045
3.51	179.76379
3.5105	122.66235
3.511	76.03455
3.5115	40.98816
3.512	-4.33044
3.5125	-39.88037
3.513	-64.65454
3.5135	-85.60181
3.514	-114.70642
3.5145	-134.44519
3.515	-150.35706
3.5155	-146.42944
3.516	-123.56873
3.5165	-95.97473
3.517	-63.14392
3.5175	-15.40833
3.518	28.29895
3.5185	48.13843
3.519	34.64355
3.5195	33.13293
3.52	39.98108
3.5205	57.40356
3.521	85.19897
3.5215	107.45544
3.522	145.12024
3.5225	183.99353
3.523	193.6615
3.5235	167.07458
3.524	127.59705
3.5245	90.73792
3.525	73.51685
3.5255	39.67896
3.526	13.89771
3.5265	-17.32178
3.527	-30.31311
3.5275	-47.7356
3.528	-54.0802
3.5285	-67.27295
3.529	-90.23438
3.5295	-96.8811
3.53	-91.64429
3.5305	-85.70251
3.531	-90.03296
3.5315	-107.25403
3.532	-113.59863
3.5325	-122.46094
3.533	-140.28625
3.5335	-141.19263
3.534	-134.34448
3.5345	-106.24695
3.535	-67.37366
3.5355	-36.25488
3.536	-7.45239
3.5365	12.48779
3.537	24.57275
3.5375	10.57434
3.538	1.81274
3.5385	2.21558
3.539	1.2085
3.5395	2.81982
3.54	-12.68921
3.5405	-12.89062
3.541	11.98425
3.5415	10.87646
3.542	-12.78992
3.5425	-87.91809
3.543	-150.9613
3.5435	-187.92114
3.544	-231.93054
3.5445	-248.64807
3.545	-292.55676
3.5455	-340.89661
3.546	-406.05469
3.5465	-425.69275
3.547	-362.34741
3.5475	-251.97144
3.548	-136.76147
3.5485	-22.05505
3.549	87.01172
3.5495	207.96204
3.55	336.96899
3.5505	429.41895
3.551	438.18054
3.5515	390.14282
3.552	346.33484
3.5525	308.87146
3.553	248.14453
3.5535	193.25867
3.554	154.08325
3.5545	104.03137
3.555	50.95825
3.5555	26.68762
3.556	20.84656
3.5565	22.05505
3.557	21.65222
3.5575	37.16125
3.558	41.08887
3.5585	43.50586
3.559	42.39807
3.5595	41.69312
3.56	36.15417
3.5605	38.47046
3.561	57.20215
3.5615	69.48853
3.562	85.60181
3.5625	101.8158
3.563	100.50659
3.5635	94.06128
3.564	84.49402
3.5645	84.59473
3.565	62.43896
3.5655	40.88745
3.566	15.20691
3.5665	-8.35876
3.567	-39.07471
3.5675	-43.60657
3.568	-32.42798
3.5685	-20.24231
3.569	13.39417
3.5695	67.37366
3.57	91.14075
3.5705	87.11243
3.571	80.4657
3.5715	79.45862
3.572	82.88269
3.5725	61.23047
3.573	27.6947
3.5735	4.53186
3.574	-7.15027
3.5745	-30.31311
3.575	-51.15967
3.5755	-68.38074
3.576	-107.15332
3.5765	-156.70166
3.577	-176.23901
3.5775	-179.76379
3.578	-158.4137
3.5785	-128.90625
3.579	-93.25562
3.5795	-96.47827
3.58	-107.35474
3.5805	-109.97314
3.581	-87.01172
3.5815	-68.58215
3.582	-60.92834
3.5825	-62.23755
3.583	-86.00464
3.5835	-125.98572
3.584	-158.01086
3.5845	-178.35388
3.585	-174.72839
3.5855	-134.04236
3.586	-92.04712
3.5865	-27.59399
3.587	36.25488
3.5875	106.8512
3.588	160.32715
3.5885	204.9408
3.589	231.52771
3.5895	231.82983
3.59	225.18311
3.5905	225.0824
3.591	208.26416
3.5915	182.88574
3.592	164.15405
3.5925	153.57971
3.593	112.59155
3.5935	70.59631
3.594	27.99683
3.5945	6.94885
3.595	-55.08728
3.5955	-125.98572
3.596	-166.16821
3.5965	-152.06909
3.597	-115.81421
3.5975	-62.9425
3.598	-8.7616
3.5985	51.86462
3.599	82.68127
3.5995	61.6333
3.6	29.00391
3.6005	14.80408
3.601	2.21558
3.6015	1.81274
3.602	-13.39417
3.6025	-39.47754
3.603	-63.34534
3.6035	-68.17932
3.604	-82.9834
3.6045	-130.11475
3.605	-161.0321
3.6055	-172.91565
3.606	-182.88574
3.6065	-178.15247
3.607	-153.17688
3.6075	-89.328
3.608	-13.99841
3.6085	22.15576
3.609	58.10852
3.6095	90.93933
3.61	113.39722
3.6105	131.02112
3.611	138.47351
3.6115	151.06201
3.612	169.99512
3.6125	174.12415
3.613	166.26892
3.6135	161.53564
3.614	148.74573
3.6145	120.44678
3.615	106.54907
3.6155	111.8866
3.616	118.13049
3.6165	134.5459
3.617	126.69067
3.6175	126.58997
3.618	120.34607
3.6185	106.54907
3.619	66.36658
3.6195	14.30054
3.62	-33.43506
3.6205	-66.26587
3.621	-89.328
3.6215	-88.52234
3.622	-96.7804
3.6225	-101.11084
3.623	-123.56873
3.6235	-144.01245
3.624	-163.4491
3.6245	-212.19177
3.625	-240.89355
3.6255	-236.66382
3.626	-227.80151
3.6265	-206.75354
3.627	-170.09583
3.6275	-122.25952
3.628	-65.3595
3.6285	-21.65222
3.629	27.09045
3.6295	69.08569
3.63	111.08093
3.6305	140.58838
3.631	160.12573
3.6315	160.42786
3.632	175.93689
3.6325	197.99194
3.633	198.79761
3.6335	180.56946
3.634	147.1344
3.6345	119.33899
3.635	97.18323
3.6355	66.87012
3.636	24.87488
3.6365	-8.35876
3.637	-33.83789
3.6375	-29.60815
3.638	-24.37134
3.6385	-13.39417
3.639	3.62549
3.6395	29.00391
3.64	37.36267
3.6405	46.5271
3.641	43.00232
3.6415	46.12427
3.642	29.50745
3.6425	3.52478
3.643	-32.7301
3.6435	-54.38232
3.644	-121.75598
3.6445	-143.10608
3.645	-143.50891
3.6455	-127.79846
3.646	-107.15332
3.6465	-120.14465
3.647	-162.34131
3.6475	-214.81018
3.648	-256.20117
3.6485	-242.40417
3.649	-230.52063
3.6495	-193.05725
3.65	-155.69458
3.6505	-110.47668
3.651	-79.05579
3.6515	-33.83789
3.652	16.61682
3.6525	81.87561
3.653	132.53174
3.6535	158.21228
3.654	175.23193
3.6545	199.30115
3.655	224.57886
3.6555	225.68665
3.656	198.09265
3.6565	176.44043
3.657	151.16272
3.6575	134.64661
3.658	85.70251
3.6585	69.99207
3.659	98.0896
3.6595	140.28625
3.66	159.42078
3.6605	159.62219
3.661	151.16272
3.6615	123.06519
3.662	73.51685
3.6625	20.54443
3.663	-25.88196
3.6635	-72.40906
3.664	-89.328
3.6645	-81.47278
3.665	-69.58923
3.6655	-64.45312
3.666	-47.8363
3.6665	-28.29895
3.667	-11.78284
3.6675	7.15027
3.668	22.15576
3.6685	15.20691
3.669	23.56567
3.6695	38.26904
3.67	52.36816
3.6705	56.5979
3.671	40.48462
3.6715	36.4563
3.672	31.92444
3.6725	37.96692
3.673	75.02747
3.6735	110.57739
3.674	104.53491
3.6745	43.90869
3.675	-39.37683
3.6755	-89.63013
3.676	-107.15332
3.6765	-94.06128
3.677	-66.06445
3.6775	-24.87488
3.678	18.22815
3.6785	48.94409
3.679	64.85596
3.6795	90.13367
3.68	107.95898
3.6805	114.60571
3.681	110.27527
3.6815	61.33118
3.682	-0.90637
3.6825	-57.50427
3.683	-94.16199
3.6835	-98.0896
3.684	-91.24146
3.6845	-89.83154
3.685	-77.74658
3.6855	-60.72693
3.686	-61.83472
3.6865	-68.98499
3.687	-71.80481
3.6875	-78.25012
3.688	-80.36499
3.6885	-89.42871
3.689	-88.62305
3.6895	-92.04712
3.69	-107.35474
3.6905	-103.82996
3.691	-100.70801
3.6915	-76.13525
3.692	-29.70886
3.6925	-27.79541
3.693	-28.39966
3.6935	-18.02673
3.694	-14.09912
3.6945	-35.95276
3.695	-32.93152
3.6955	-11.88354
3.696	24.16992
3.6965	58.71277
3.697	86.8103
3.6975	100.50659
3.698	93.45703
3.6985	69.48853
3.699	34.03931
3.6995	9.86938
3.7	18.12744
3.7005	-12.38708
3.701	-44.51294
3.7015	-62.53967
3.702	-45.2179
3.7025	-27.39258
3.703	4.43115
3.7035	40.88745
3.704	84.59473
3.7045	115.81421
3.705	141.49475
3.7055	128.60413
3.706	127.39563
3.7065	114.80713
3.707	132.12891
3.7075	149.24927
3.708	125.68359
3.7085	85.80322
3.709	32.42798
3.7095	-19.33594
3.71	-69.58923
3.7105	-72.50977
3.711	-71.50269
3.7115	-97.38464
3.712	-125.58289
3.7125	-150.9613
3.713	-156.29883
3.7135	-151.26343
