Antonio_Festa_Right_2.c3d  



Time(s):	C_R_bicipite(μV):
0	6.84814
0.0005	9.16443
0.001	7.04956
0.0015	8.25806
0.002	8.05664
0.0025	6.64673
0.003	2.92053
0.0035	6.44531
0.004	6.44531
0.0045	2.92053
0.005	1.40991
0.0055	0
0.006	-6.3446
0.0065	-13.59558
0.007	-21.95435
0.0075	-20.34302
0.008	-17.01965
0.0085	-13.59558
0.009	-5.63965
0.0095	-3.12195
0.01	-0.60425
0.0105	5.63965
0.011	5.13611
0.0115	0.70496
0.012	2.71912
0.0125	-2.21558
0.013	-0.60425
0.0135	-2.81982
0.014	2.01416
0.0145	7.45239
0.015	5.63965
0.0155	11.68213
0.016	14.80408
0.0165	9.97009
0.017	9.97009
0.0175	7.35168
0.018	6.2439
0.0185	5.33752
0.019	-1.3092
0.0195	-6.3446
0.02	-6.84814
0.0205	-12.28638
0.021	-15.1062
0.0215	-11.98425
0.022	-4.53186
0.0225	-4.33044
0.023	-6.54602
0.0235	-6.54602
0.024	-8.66089
0.0245	-6.44531
0.025	-8.35876
0.0255	-6.74744
0.026	-6.74744
0.0265	-4.73328
0.027	3.02124
0.0275	12.99133
0.028	16.61682
0.0285	17.72461
0.029	17.82532
0.0295	11.48071
0.03	0.30212
0.0305	2.21558
0.031	10.0708
0.0315	-0.30212
0.032	-7.5531
0.0325	-12.89062
0.033	-19.53735
0.0335	-16.91895
0.034	-10.37292
0.0345	-2.01416
0.035	6.04248
0.0355	7.5531
0.036	1.3092
0.0365	0.70496
0.037	6.54602
0.0375	9.36584
0.038	10.87646
0.0385	6.64673
0.039	2.61841
0.0395	-4.12903
0.04	-0.10071
0.0405	4.22974
0.041	2.92053
0.0415	-6.94885
0.042	-11.17859
0.0425	-20.94727
0.043	-22.35718
0.0435	-17.6239
0.044	-5.74036
0.0445	-7.5531
0.045	-20.64514
0.0455	-22.05505
0.046	-23.36426
0.0465	-24.37134
0.047	-23.36426
0.0475	-29.80957
0.048	-28.50037
0.0485	-25.98267
0.049	-21.85364
0.0495	-17.92603
0.05	-11.88354
0.0505	-17.82532
0.051	-19.03381
0.0515	-14.09912
0.052	-16.61682
0.0525	-15.50903
0.053	-16.21399
0.0535	-11.48071
0.054	-4.53186
0.0545	3.52478
0.055	-1.51062
0.0555	2.92053
0.056	3.92761
0.0565	9.76868
0.057	9.16443
0.0575	-2.11487
0.058	-2.01416
0.0585	0.50354
0.059	-7.85522
0.0595	-5.94177
0.06	-13.09204
0.0605	-7.45239
0.061	-4.33044
0.0615	-6.54602
0.062	-8.05664
0.0625	-4.83398
0.063	-1.3092
0.0635	-7.75452
0.064	-7.5531
0.0645	-3.12195
0.065	2.01416
0.0655	1.3092
0.066	-2.81982
0.0665	3.12195
0.067	11.58142
0.0675	27.29187
0.068	32.93152
0.0685	30.81665
0.069	29.30603
0.0695	30.2124
0.07	24.06921
0.0705	14.40125
0.071	16.11328
0.0715	16.11328
0.072	6.64673
0.0725	2.31628
0.073	-5.33752
0.0735	-7.45239
0.074	-3.22266
0.0745	-2.71912
0.075	-3.42407
0.0755	-2.71912
0.076	-7.25098
0.0765	-4.63257
0.077	13.29346
0.0775	16.81824
0.078	14.80408
0.0785	11.68213
0.079	9.46655
0.0795	7.04956
0.08	5.74036
0.0805	0.80566
0.081	5.74036
0.0815	16.91895
0.082	22.86072
0.0825	27.39258
0.083	30.01099
0.0835	23.26355
0.084	10.27222
0.0845	-1.40991
0.085	-1.00708
0.0855	-3.92761
0.086	-7.15027
0.0865	-4.43115
0.087	-4.43115
0.0875	-5.63965
0.088	-18.53027
0.0885	-21.14868
0.089	-22.76001
0.0895	-14.19983
0.09	-14.50195
0.0905	-15.60974
0.091	-20.44373
0.0915	-19.13452
0.092	-28.80249
0.0925	-25.88196
0.093	-26.3855
0.0935	-21.04797
0.094	-13.19275
0.0945	-9.66797
0.095	-15.1062
0.0955	-10.97717
0.096	-8.15735
0.0965	-6.94885
0.097	1.40991
0.0975	0.30212
0.098	0
0.0985	3.52478
0.099	-0.20142
0.0995	-6.04248
0.1	-2.92053
0.1005	-0.30212
0.101	2.41699
0.1015	-1.2085
0.102	-0.20142
0.1025	-5.94177
0.103	-6.14319
0.1035	-5.13611
0.104	-1.61133
0.1045	-2.81982
0.105	0.10071
0.1055	10.77576
0.106	16.91895
0.1065	16.51611
0.107	8.35876
0.1075	3.22266
0.108	-6.84814
0.1085	-11.38
0.109	-23.26355
0.1095	-23.76709
0.11	-20.04089
0.1105	-13.39417
0.111	-11.68213
0.1115	-4.22974
0.112	-3.32336
0.1125	-3.8269
0.113	-3.52478
0.1135	-5.94177
0.114	-3.42407
0.1145	1.91345
0.115	0.90637
0.1155	2.31628
0.116	1.91345
0.1165	1.3092
0.117	0.20142
0.1175	-3.92761
0.118	-8.66089
0.1185	-5.0354
0.119	-15.1062
0.1195	-22.15576
0.12	-18.63098
0.1205	-22.25647
0.121	-21.85364
0.1215	-21.95435
0.122	-21.95435
0.1225	-15.60974
0.123	-1.40991
0.1235	4.12903
0.124	7.04956
0.1245	11.58142
0.125	16.11328
0.1255	13.19275
0.126	20.1416
0.1265	22.25647
0.127	25.07629
0.1275	19.13452
0.128	15.91187
0.1285	19.63806
0.129	19.33594
0.1295	26.48621
0.13	21.14868
0.1305	14.90479
0.131	16.21399
0.1315	16.41541
0.132	16.3147
0.1325	14.09912
0.133	15.30762
0.1335	10.87646
0.134	1.81274
0.1345	-2.61841
0.135	-1.10779
0.1355	-4.02832
0.136	4.02832
0.1365	7.15027
0.137	2.61841
0.1375	2.5177
0.138	-5.53894
0.1385	-0.70496
0.139	3.32336
0.1395	3.7262
0.14	7.65381
0.1405	2.41699
0.141	7.45239
0.1415	12.78992
0.142	14.80408
0.1425	16.41541
0.143	27.09045
0.1435	23.76709
0.144	10.17151
0.1445	3.52478
0.145	-0.80566
0.1455	3.62549
0.146	0
0.1465	-1.10779
0.147	-0.20142
0.1475	-7.45239
0.148	-18.12744
0.1485	-27.79541
0.149	-24.37134
0.1495	-15.50903
0.15	-13.29346
0.1505	-22.86072
0.151	-18.73169
0.1515	-22.55859
0.152	-24.47205
0.1525	-24.57275
0.153	-30.51453
0.1535	-28.09753
0.154	-21.95435
0.1545	-14.90479
0.155	-11.38
0.1555	-1.71204
0.156	-2.01416
0.1565	-0.30212
0.157	0.70496
0.1575	1.00708
0.158	-2.5177
0.1585	-0.50354
0.159	-1.91345
0.1595	-1.40991
0.16	-4.02832
0.1605	-9.56726
0.161	-9.56726
0.1615	-14.80408
0.162	-10.87646
0.1625	-11.78284
0.163	-11.98425
0.1635	-13.09204
0.164	-13.49487
0.1645	-19.94019
0.165	-27.99683
0.1655	-21.75293
0.166	-9.56726
0.1665	-1.10779
0.167	6.64673
0.1675	9.97009
0.168	9.56726
0.1685	4.93469
0.169	8.35876
0.1695	10.47363
0.17	16.51611
0.1705	20.04089
0.171	20.54443
0.1715	22.25647
0.172	14.60266
0.1725	13.59558
0.173	2.81982
0.1735	-1.3092
0.174	-14.09912
0.1745	-15.1062
0.175	-6.64673
0.1755	-1.10779
0.176	-12.48779
0.1765	-21.45081
0.177	-20.74585
0.1775	-15.81116
0.178	-9.86938
0.1785	-3.92761
0.179	-5.0354
0.1795	-0.90637
0.18	-6.14319
0.1805	-2.41699
0.181	-3.52478
0.1815	-6.04248
0.182	1.10779
0.1825	2.5177
0.183	3.22266
0.1835	3.7262
0.184	-1.40991
0.1845	-11.2793
0.185	-15.00549
0.1855	-26.58691
0.186	-30.31311
0.1865	-34.24072
0.187	-35.54993
0.1875	-35.14709
0.188	-33.03223
0.1885	-23.76709
0.189	-13.09204
0.1895	-7.04956
0.19	1.71204
0.1905	-2.41699
0.191	-2.61841
0.1915	0.30212
0.192	-0.50354
0.1925	0.50354
0.193	4.53186
0.1935	4.12903
0.194	-11.78284
0.1945	-18.93311
0.195	-18.32886
0.1955	-9.16443
0.196	14.90479
0.1965	22.45789
0.197	16.81824
0.1975	15.91187
0.198	14.60266
0.1985	7.35168
0.199	4.02832
0.1995	4.43115
0.2	2.31628
0.2005	9.06372
0.201	5.0354
0.2015	9.36584
0.202	9.76868
0.2025	10.87646
0.203	22.96143
0.2035	23.56567
0.204	26.28479
0.2045	30.11169
0.205	29.20532
0.2055	15.30762
0.206	13.69629
0.2065	15.50903
0.207	10.47363
0.2075	8.05664
0.208	8.15735
0.2085	4.22974
0.209	9.66797
0.2095	6.44531
0.21	-3.22266
0.2105	-12.18567
0.211	-21.14868
0.2115	-12.78992
0.212	-19.23523
0.2125	-14.70337
0.213	-20.24231
0.2135	-16.11328
0.214	-12.68921
0.2145	-1.10779
0.215	-0.30212
0.2155	-5.0354
0.216	-7.35168
0.2165	-7.75452
0.217	-7.15027
0.2175	-2.31628
0.218	-0.20142
0.2185	5.13611
0.219	8.7616
0.2195	14.19983
0.22	18.32886
0.2205	20.94727
0.221	19.23523
0.2215	9.26514
0.222	9.66797
0.2225	14.09912
0.223	10.37292
0.2235	15.30762
0.224	10.37292
0.2245	10.97717
0.225	2.31628
0.2255	2.21558
0.226	-9.06372
0.2265	-8.15735
0.227	-11.78284
0.2275	-11.48071
0.228	-12.38708
0.2285	-17.82532
0.229	-21.85364
0.2295	-27.79541
0.23	-24.16992
0.2305	-32.62939
0.231	-34.74426
0.2315	-28.80249
0.232	-21.65222
0.2325	-15.60974
0.233	-8.05664
0.2335	-9.66797
0.234	-6.2439
0.2345	-0.80566
0.235	-2.92053
0.2355	2.21558
0.236	6.74744
0.2365	4.93469
0.237	-3.32336
0.2375	-4.83398
0.238	7.15027
0.2385	7.45239
0.239	6.14319
0.2395	6.14319
0.24	9.66797
0.2405	6.84814
0.241	4.43115
0.2415	7.04956
0.242	3.42407
0.2425	1.71204
0.243	0.30212
0.2435	-9.56726
0.244	-7.25098
0.2445	-1.91345
0.245	9.56726
0.2455	5.94177
0.246	4.73328
0.2465	1.2085
0.247	4.33044
0.2475	6.3446
0.248	1.51062
0.2485	-3.12195
0.249	-7.45239
0.2495	-3.42407
0.25	5.94177
0.2505	7.65381
0.251	4.83398
0.2515	0.60425
0.252	-0.10071
0.2525	-3.22266
0.253	-10.87646
0.2535	-11.2793
0.254	-12.28638
0.2545	-11.38
0.255	-11.17859
0.2555	-8.15735
0.256	-1.40991
0.2565	-1.00708
0.257	-5.84106
0.2575	-18.53027
0.258	-29.40674
0.2585	-28.80249
0.259	-29.10461
0.2595	-34.14001
0.26	-37.86621
0.2605	-33.53577
0.261	-23.46497
0.2615	-19.23523
0.262	-31.82373
0.2625	-26.98975
0.263	-19.43665
0.2635	-20.24231
0.264	-24.27063
0.2645	-20.74585
0.265	-25.78125
0.2655	-32.93152
0.266	-43.80798
0.2665	-43.40515
0.267	-32.32727
0.2675	-25.57983
0.268	-17.92603
0.2685	-19.13452
0.269	-20.24231
0.2695	-16.41541
0.27	-5.63965
0.2705	25.07629
0.271	47.63489
0.2715	49.85046
0.272	41.08887
0.2725	22.15576
0.273	11.07788
0.2735	3.62549
0.274	-1.71204
0.2745	-1.3092
0.275	-1.10779
0.2755	-3.52478
0.276	0.50354
0.2765	5.84106
0.277	1.71204
0.2775	5.33752
0.278	9.26514
0.2785	30.01099
0.279	37.16125
0.2795	37.46338
0.28	35.54993
0.2805	36.25488
0.281	29.00391
0.2815	25.78125
0.282	30.31311
0.2825	27.99683
0.283	25.57983
0.2835	24.57275
0.284	17.01965
0.2845	19.63806
0.285	16.01257
0.2855	19.13452
0.286	20.54443
0.2865	22.55859
0.287	18.42957
0.2875	15.20691
0.288	13.99841
0.2885	9.06372
0.289	2.61841
0.2895	-3.52478
0.29	2.81982
0.2905	-0.80566
0.291	-6.44531
0.2915	-7.95593
0.292	-15.20691
0.2925	-24.27063
0.293	-30.81665
0.2935	-24.57275
0.294	-8.25806
0.2945	2.11487
0.295	-0.50354
0.2955	-2.71912
0.296	-6.04248
0.2965	-9.36584
0.297	-4.33044
0.2975	-5.74036
0.298	-6.04248
0.2985	-3.02124
0.299	0.60425
0.2995	4.63257
0.3	10.67505
0.3005	15.1062
0.301	14.09912
0.3015	-2.01416
0.302	-12.28638
0.3025	-18.53027
0.303	-20.64514
0.3035	-19.23523
0.304	-17.6239
0.3045	-20.24231
0.305	-12.28638
0.3055	-7.75452
0.306	-14.90479
0.3065	-16.71753
0.307	-16.81824
0.3075	-9.46655
0.308	-7.25098
0.3085	-8.25806
0.309	-5.33752
0.3095	0
0.31	1.81274
0.3105	-3.42407
0.311	1.40991
0.3115	-2.01416
0.312	-2.41699
0.3125	-0.50354
0.313	2.71912
0.3135	-7.95593
0.314	-16.01257
0.3145	-10.77576
0.315	-1.81274
0.3155	-2.71912
0.316	-1.61133
0.3165	-8.05664
0.317	-7.04956
0.3175	-4.02832
0.318	-11.48071
0.3185	-11.07788
0.319	-18.63098
0.3195	-25.47913
0.32	-27.79541
0.3205	-23.36426
0.321	-20.04089
0.3215	-24.06921
0.322	-26.68762
0.3225	-19.23523
0.323	-14.19983
0.3235	-4.83398
0.324	-4.02832
0.3245	-3.02124
0.325	4.63257
0.3255	7.15027
0.326	3.7262
0.3265	-2.11487
0.327	0.70496
0.3275	-3.92761
0.328	-8.96301
0.3285	-16.41541
0.329	-22.55859
0.3295	-27.29187
0.33	-26.88904
0.3305	-22.76001
0.331	-8.15735
0.3315	-13.19275
0.332	-20.1416
0.3325	-17.12036
0.333	-27.59399
0.3335	-28.60107
0.334	-30.2124
0.3345	-29.50745
0.335	-25.57983
0.3355	-20.04089
0.336	-7.15027
0.3365	-10.37292
0.337	-10.37292
0.3375	-8.45947
0.338	-8.7616
0.3385	-5.43823
0.339	-19.33594
0.3395	-20.34302
0.34	-13.49487
0.3405	-15.50903
0.341	-6.64673
0.3415	-4.33044
0.342	-6.04248
0.3425	-9.86938
0.343	-24.67346
0.3435	-31.21948
0.344	-34.34143
0.3445	-31.92444
0.345	-19.03381
0.3455	-15.40833
0.346	-15.50903
0.3465	-11.78284
0.347	-7.45239
0.3475	-6.94885
0.348	-2.11487
0.3485	-6.94885
0.349	-9.36584
0.3495	-9.26514
0.35	-13.19275
0.3505	-14.60266
0.351	-16.91895
0.3515	-15.71045
0.352	-13.99841
0.3525	0.70496
0.353	16.3147
0.3535	14.70337
0.354	14.09912
0.3545	14.30054
0.355	17.52319
0.3555	6.84814
0.356	6.54602
0.3565	-0.70496
0.357	4.02832
0.3575	-8.7616
0.358	-11.68213
0.3585	-11.78284
0.359	-10.0708
0.3595	-14.70337
0.36	-11.38
0.3605	-7.5531
0.361	-9.16443
0.3615	-3.92761
0.362	-3.32336
0.3625	0.30212
0.363	-3.42407
0.3635	4.12903
0.364	2.11487
0.3645	10.17151
0.365	11.38
0.3655	13.69629
0.366	14.19983
0.3665	11.38
0.367	11.17859
0.3675	12.68921
0.368	4.33044
0.3685	-2.31628
0.369	-5.13611
0.3695	-21.85364
0.37	-33.03223
0.3705	-29.70886
0.371	-26.28479
0.3715	-28.50037
0.372	-35.44922
0.3725	-34.84497
0.373	-24.67346
0.3735	-21.55151
0.374	-31.32019
0.3745	-37.16125
0.375	-37.56409
0.3755	-27.89612
0.376	-14.90479
0.3765	1.81274
0.377	13.797
0.3775	10.87646
0.378	14.90479
0.3785	20.94727
0.379	26.68762
0.3795	26.68762
0.38	27.6947
0.3805	24.37134
0.381	34.94568
0.3815	35.75134
0.382	37.66479
0.3825	31.92444
0.383	21.85364
0.3835	31.4209
0.384	27.49329
0.3845	14.60266
0.385	10.17151
0.3855	6.64673
0.386	-0.90637
0.3865	-0.20142
0.387	-2.01416
0.3875	-9.56726
0.388	-11.78284
0.3885	-3.8269
0.389	4.83398
0.3895	9.06372
0.39	8.35876
0.3905	5.0354
0.391	14.70337
0.3915	13.29346
0.392	12.08496
0.3925	15.1062
0.393	22.35718
0.3935	15.91187
0.394	13.49487
0.3945	10.0708
0.395	-3.22266
0.3955	-10.47363
0.396	-21.24939
0.3965	-21.95435
0.397	-28.39966
0.3975	-36.15417
0.398	-43.40515
0.3985	-34.44214
0.399	-30.71594
0.3995	-18.02673
0.4	-9.97009
0.4005	-1.3092
0.401	4.83398
0.4015	12.18567
0.402	15.30762
0.4025	16.11328
0.403	12.89062
0.4035	11.88354
0.404	37.46338
0.4045	51.76392
0.405	45.52002
0.4055	33.9386
0.406	14.70337
0.4065	0.20142
0.407	-17.01965
0.4075	-30.61523
0.408	-28.9032
0.4085	-24.77417
0.409	-26.3855
0.4095	-30.2124
0.41	-32.52869
0.4105	-32.22656
0.411	-21.14868
0.4115	-13.39417
0.412	-6.14319
0.4125	-3.12195
0.413	-7.45239
0.4135	-10.27222
0.414	-18.93311
0.4145	-16.71753
0.415	-22.15576
0.4155	-19.63806
0.416	-16.11328
0.4165	-14.50195
0.417	-15.30762
0.4175	-10.0708
0.418	-4.73328
0.4185	-6.74744
0.419	-1.2085
0.4195	8.05664
0.42	11.88354
0.4205	13.19275
0.421	1.81274
0.4215	-1.2085
0.422	-3.12195
0.4225	0.60425
0.423	-5.84106
0.4235	-5.84106
0.424	-4.63257
0.4245	-1.51062
0.425	-3.62549
0.4255	-2.5177
0.426	0.80566
0.4265	0.50354
0.427	-1.81274
0.4275	-1.00708
0.428	-3.12195
0.4285	-4.22974
0.429	-6.74744
0.4295	-2.81982
0.43	2.61841
0.4305	3.02124
0.431	11.48071
0.4315	12.89062
0.432	11.78284
0.4325	12.99133
0.433	2.01416
0.4335	-4.93469
0.434	-1.2085
0.4345	0
0.435	7.04956
0.4355	9.16443
0.436	2.21558
0.4365	1.3092
0.437	1.81274
0.4375	2.5177
0.438	4.33044
0.4385	11.98425
0.439	29.40674
0.4395	31.72302
0.44	33.63647
0.4405	25.78125
0.441	3.02124
0.4415	-7.15027
0.442	-2.5177
0.4425	5.33752
0.443	8.66089
0.4435	10.17151
0.444	4.83398
0.4445	3.12195
0.445	-1.51062
0.4455	-2.21558
0.446	9.26514
0.4465	22.25647
0.447	25.68054
0.4475	36.35559
0.448	41.4917
0.4485	38.87329
0.449	37.66479
0.4495	33.23364
0.45	29.10461
0.4505	20.44373
0.451	3.12195
0.4515	-22.35718
0.452	-35.44922
0.4525	-41.08887
0.453	-27.89612
0.4535	-23.16284
0.454	-21.85364
0.4545	-19.23523
0.455	-15.40833
0.4555	-11.38
0.456	-5.33752
0.4565	1.61133
0.457	6.94885
0.4575	5.74036
0.458	7.35168
0.4585	2.01416
0.459	-8.96301
0.4595	-7.45239
0.46	-2.5177
0.4605	7.5531
0.461	14.09912
0.4615	18.63098
0.462	19.33594
0.4625	21.75293
0.463	15.20691
0.4635	15.1062
0.464	14.19983
0.4645	12.18567
0.465	9.36584
0.4655	-11.2793
0.466	-21.24939
0.4665	-39.77966
0.467	-41.89453
0.4675	-30.11169
0.468	-23.36426
0.4685	-18.93311
0.469	-16.21399
0.4695	-16.01257
0.47	-21.95435
0.4705	-27.59399
0.471	-33.53577
0.4715	-42.49878
0.472	-42.29736
0.4725	-41.69312
0.473	-39.57825
0.4735	-37.46338
0.474	-27.79541
0.4745	-24.77417
0.475	-23.16284
0.4755	-16.21399
0.476	-7.75452
0.4765	6.84814
0.477	14.80408
0.4775	20.24231
0.478	22.55859
0.4785	30.81665
0.479	30.91736
0.4795	26.08337
0.48	26.28479
0.4805	22.86072
0.481	26.3855
0.4815	20.94727
0.482	17.6239
0.4825	17.32178
0.483	17.82532
0.4835	18.42957
0.484	26.58691
0.4845	19.94019
0.485	12.28638
0.4855	9.06372
0.486	9.56726
0.4865	25.88196
0.487	27.89612
0.4875	24.06921
0.488	16.91895
0.4885	19.73877
0.489	25.07629
0.4895	26.88904
0.49	25.57983
0.4905	22.15576
0.491	18.42957
0.4915	26.28479
0.492	24.77417
0.4925	17.32178
0.493	8.05664
0.4935	3.42407
0.494	-3.12195
0.4945	-12.08496
0.495	-16.91895
0.4955	-16.11328
0.496	-23.26355
0.4965	-20.44373
0.497	-11.78284
0.4975	-12.38708
0.498	-11.2793
0.4985	-16.21399
0.499	-26.48621
0.4995	-29.10461
0.5	-26.48621
0.5005	-19.33594
0.501	-11.2793
0.5015	-0.80566
0.502	-2.11487
0.5025	1.71204
0.503	-0.50354
0.5035	-2.11487
0.504	-0.30212
0.5045	0.10071
0.505	6.54602
0.5055	8.25806
0.506	5.84106
0.5065	3.52478
0.507	-7.85522
0.5075	-22.86072
0.508	-35.2478
0.5085	-31.32019
0.509	-33.13293
0.5095	-26.08337
0.51	-27.59399
0.5105	-34.64355
0.511	-32.7301
0.5115	-24.27063
0.512	-10.27222
0.5125	-4.63257
0.513	0
0.5135	2.81982
0.514	4.63257
0.5145	7.5531
0.515	17.52319
0.5155	22.15576
0.516	26.88904
0.5165	26.28479
0.517	12.89062
0.5175	7.45239
0.518	-4.43115
0.5185	-12.48779
0.519	-15.40833
0.5195	-13.59558
0.52	0.40283
0.5205	13.49487
0.521	33.63647
0.5215	36.65771
0.522	20.64514
0.5225	25.88196
0.523	20.84656
0.5235	12.99133
0.524	0.80566
0.5245	-6.3446
0.525	-20.64514
0.5255	-21.85364
0.526	-22.55859
0.5265	-17.72461
0.527	-3.8269
0.5275	-7.35168
0.528	-5.84106
0.5285	-8.15735
0.529	-1.3092
0.5295	-2.11487
0.53	-7.95593
0.5305	-10.87646
0.531	-5.63965
0.5315	-2.81982
0.532	-5.63965
0.5325	-3.02124
0.533	2.92053
0.5335	-0.70496
0.534	-0.50354
0.5345	2.01416
0.535	-6.3446
0.5355	-7.85522
0.536	-8.66089
0.5365	-5.23682
0.537	6.84814
0.5375	8.05664
0.538	6.94885
0.5385	13.39417
0.539	10.57434
0.5395	3.62549
0.54	-4.22974
0.5405	-5.94177
0.541	1.61133
0.5415	1.81274
0.542	12.48779
0.5425	8.45947
0.543	16.41541
0.5435	23.16284
0.544	24.47205
0.5445	28.9032
0.545	26.48621
0.5455	29.10461
0.546	24.27063
0.5465	22.76001
0.547	20.1416
0.5475	25.98267
0.548	17.82532
0.5485	17.6239
0.549	37.26196
0.5495	44.61365
0.55	37.7655
0.5505	4.02832
0.551	-11.78284
0.5515	-1.51062
0.552	3.22266
0.5525	8.7616
0.553	11.38
0.5535	11.68213
0.554	11.68213
0.5545	11.68213
0.555	11.68213
0.5555	11.68213
0.556	11.68213
0.5565	11.68213
0.557	11.68213
0.5575	11.68213
0.558	11.68213
0.5585	11.68213
0.559	11.68213
0.5595	11.68213
0.56	11.68213
0.5605	11.68213
0.561	11.68213
0.5615	11.68213
0.562	11.68213
0.5625	11.68213
0.563	11.68213
0.5635	11.68213
0.564	53.57666
0.5645	36.75842
0.565	27.29187
0.5655	19.53735
0.566	4.63257
0.5665	-4.63257
0.567	-15.71045
0.5675	-14.70337
0.568	-6.3446
0.5685	-9.26514
0.569	-5.74036
0.5695	-5.33752
0.57	-9.16443
0.5705	-15.30762
0.571	-13.39417
0.5715	-10.97717
0.572	-7.85522
0.5725	-0.20142
0.573	0.40283
0.5735	1.40991
0.574	-0.60425
0.5745	2.41699
0.575	-3.02124
0.5755	-8.35876
0.576	-17.32178
0.5765	-25.177
0.577	-31.82373
0.5775	-40.38391
0.578	-47.33276
0.5785	-62.8418
0.579	-74.62463
0.5795	-83.08411
0.58	-86.8103
0.5805	-83.28552
0.581	-67.27295
0.5815	-41.89453
0.582	-25.98267
0.5825	0.50354
0.583	15.20691
0.5835	29.00391
0.584	36.65771
0.5845	45.11719
0.585	49.85046
0.5855	58.00781
0.586	57.8064
0.5865	62.43896
0.587	65.05737
0.5875	65.15808
0.588	54.38232
0.5885	51.15967
0.589	46.82922
0.5895	34.24072
0.59	23.46497
0.5905	9.26514
0.591	-0.50354
0.5915	-13.89771
0.592	-16.91895
0.5925	-26.08337
0.593	-26.68762
0.5935	-25.47913
0.594	-21.95435
0.5945	-24.57275
0.595	-14.19983
0.5955	-6.3446
0.596	-18.63098
0.5965	-24.37134
0.597	-20.24231
0.5975	-15.50903
0.598	-18.73169
0.5985	-16.01257
0.599	-18.53027
0.5995	-19.23523
0.6	-19.33594
0.6005	-20.64514
0.601	-15.91187
0.6015	-7.75452
0.602	-10.37292
0.6025	-7.5531
0.603	-7.04956
0.6035	-5.23682
0.604	-3.7262
0.6045	-6.74744
0.605	-17.12036
0.6055	-17.92603
0.606	-20.04089
0.6065	-26.08337
0.607	-28.09753
0.6075	-33.23364
0.608	-44.41223
0.6085	-47.13135
0.609	-48.44055
0.6095	-46.82922
0.61	-49.24622
0.6105	-45.82214
0.611	-38.67188
0.6115	-36.05347
0.612	-31.82373
0.6125	-27.09045
0.613	-25.07629
0.6135	-17.92603
0.614	-22.96143
0.6145	-28.80249
0.615	-41.89453
0.6155	-50.05188
0.616	-40.48462
0.6165	-24.87488
0.617	-10.27222
0.6175	4.02832
0.618	12.89062
0.6185	15.91187
0.619	13.19275
0.6195	-3.02124
0.62	-10.17151
0.6205	-15.1062
0.621	-15.40833
0.6215	-16.51611
0.622	-17.22107
0.6225	-24.27063
0.623	-31.01807
0.6235	-32.52869
0.624	-25.78125
0.6245	-17.92603
0.625	-22.45789
0.6255	-20.04089
0.626	-20.64514
0.6265	-20.34302
0.627	-24.97559
0.6275	-23.96851
0.628	-28.9032
0.6285	-33.73718
0.629	-31.01807
0.6295	-34.44214
0.63	-33.13293
0.6305	-47.63489
0.631	-55.59082
0.6315	-54.18091
0.632	-54.0802
0.6325	-51.46179
0.633	-39.47754
0.6335	-34.74426
0.634	-37.26196
0.6345	-33.03223
0.635	-22.05505
0.6355	-21.75293
0.636	-23.46497
0.6365	-24.57275
0.637	-26.78833
0.6375	-27.29187
0.638	-21.55151
0.6385	-13.49487
0.639	-5.43823
0.6395	-2.61841
0.64	-8.96301
0.6405	-17.32178
0.641	-23.66638
0.6415	-33.83789
0.642	-52.8717
0.6425	-56.69861
0.643	-47.63489
0.6435	-36.55701
0.644	-30.41382
0.6445	-20.1416
0.645	-8.45947
0.6455	10.37292
0.646	22.05505
0.6465	24.16992
0.647	15.1062
0.6475	7.85522
0.648	17.42249
0.6485	19.73877
0.649	24.87488
0.6495	17.82532
0.65	25.68054
0.6505	31.72302
0.651	31.4209
0.6515	21.75293
0.652	19.94019
0.6525	22.35718
0.653	31.32019
0.6535	20.1416
0.654	17.22107
0.6545	10.77576
0.655	10.47363
0.6555	6.04248
0.656	2.61841
0.6565	1.2085
0.657	4.83398
0.6575	3.52478
0.658	6.84814
0.6585	12.18567
0.659	19.73877
0.6595	23.66638
0.66	22.6593
0.6605	21.55151
0.661	19.94019
0.6615	12.68921
0.662	5.0354
0.6625	2.61841
0.663	-5.84106
0.6635	-7.35168
0.664	-9.86938
0.6645	2.01416
0.665	11.38
0.6655	16.81824
0.666	21.85364
0.6665	29.00391
0.667	24.37134
0.6675	23.8678
0.668	21.75293
0.6685	12.68921
0.669	19.23523
0.6695	11.17859
0.67	-5.84106
0.6705	-27.19116
0.671	-42.09595
0.6715	-59.71985
0.672	-55.08728
0.6725	-46.42639
0.673	-28.70178
0.6735	-23.26355
0.674	-12.18567
0.6745	-4.93469
0.675	-4.93469
0.6755	1.00708
0.676	7.15027
0.6765	9.46655
0.677	7.45239
0.6775	8.15735
0.678	0.20142
0.6785	5.0354
0.679	0.70496
0.6795	3.42407
0.68	-1.91345
0.6805	-2.92053
0.681	-3.52478
0.6815	-0.20142
0.682	-5.23682
0.6825	-6.44531
0.683	-14.09912
0.6835	-16.71753
0.684	-21.24939
0.6845	-31.32019
0.685	-45.82214
0.6855	-42.49878
0.686	-20.04089
0.6865	-0.40283
0.687	9.97009
0.6875	8.05664
0.688	0.40283
0.6885	-8.25806
0.689	-25.98267
0.6895	-33.33435
0.69	-45.01648
0.6905	-46.12427
0.691	-44.11011
0.6915	-42.39807
0.692	-29.20532
0.6925	-24.57275
0.693	-21.14868
0.6935	-8.66089
0.694	9.76868
0.6945	21.04797
0.695	31.32019
0.6955	44.11011
0.696	59.1156
0.6965	66.6687
0.697	72.61047
0.6975	79.2572
0.698	61.53259
0.6985	42.09595
0.699	17.01965
0.6995	1.00708
0.7	-3.42407
0.7005	3.7262
0.701	8.25806
0.7015	11.2793
0.702	20.74585
0.7025	20.24231
0.703	9.66797
0.7035	1.10779
0.704	-8.66089
0.7045	-15.00549
0.705	-16.61682
0.7055	-21.14868
0.706	-11.17859
0.7065	-8.35876
0.707	4.93469
0.7075	11.58142
0.708	15.30762
0.7085	9.76868
0.709	0.60425
0.7095	7.15027
0.71	7.04956
0.7105	4.73328
0.711	4.22974
0.7115	8.35876
0.712	13.797
0.7125	10.57434
0.713	10.27222
0.7135	13.69629
0.714	7.04956
0.7145	16.11328
0.715	20.64514
0.7155	26.18408
0.716	25.07629
0.7165	25.177
0.717	23.8678
0.7175	21.04797
0.718	14.80408
0.7185	10.0708
0.719	5.63965
0.7195	9.16443
0.72	2.81982
0.7205	-10.57434
0.721	-16.3147
0.7215	-42.39807
0.722	-65.05737
0.7225	-69.79065
0.723	-71.20056
0.7235	-62.74109
0.724	-53.87878
0.7245	-48.23914
0.725	-33.73718
0.7255	-25.98267
0.726	4.02832
0.7265	20.94727
0.727	36.65771
0.7275	56.5979
0.728	71.7041
0.7285	77.34375
0.729	73.31543
0.7295	64.55383
0.73	61.6333
0.7305	64.151
0.731	58.91418
0.7315	49.64905
0.732	35.95276
0.7325	29.80957
0.733	27.89612
0.7335	26.3855
0.734	17.32178
0.7345	8.25806
0.735	0.90637
0.7355	-1.51062
0.736	-1.40991
0.7365	-1.71204
0.737	-6.3446
0.7375	-5.53894
0.738	-6.3446
0.7385	-3.22266
0.739	-4.53186
0.7395	-2.92053
0.74	-6.94885
0.7405	-8.45947
0.741	-3.52478
0.7415	7.65381
0.742	9.66797
0.7425	9.86938
0.743	9.97009
0.7435	9.46655
0.744	13.29346
0.7445	13.99841
0.745	4.33044
0.7455	2.5177
0.746	-1.71204
0.7465	2.01416
0.747	6.54602
0.7475	10.57434
0.748	22.96143
0.7485	18.93311
0.749	16.51611
0.7495	5.63965
0.75	-1.3092
0.7505	0.20142
0.751	3.22266
0.7515	2.5177
0.752	9.56726
0.7525	11.68213
0.753	14.19983
0.7535	15.60974
0.754	13.59558
0.7545	12.08496
0.755	8.25806
0.7555	-8.56018
0.756	-16.11328
0.7565	-32.42798
0.757	-34.84497
0.7575	-52.36816
0.758	-65.25879
0.7585	-69.99207
0.759	-55.08728
0.7595	-19.63806
0.76	-2.31628
0.7605	2.61841
0.761	11.17859
0.7615	18.63098
0.762	7.65381
0.7625	1.10779
0.763	-3.8269
0.7635	-6.84814
0.764	6.14319
0.7645	15.00549
0.765	24.16992
0.7655	10.87646
0.766	-15.71045
0.7665	-33.23364
0.767	-32.7301
0.7675	-25.07629
0.768	-9.56726
0.7685	6.04248
0.769	15.71045
0.7695	20.34302
0.77	7.25098
0.7705	5.74036
0.771	-2.81982
0.7715	1.40991
0.772	3.7262
0.7725	-1.40991
0.773	-23.56567
0.7735	-29.91028
0.774	-26.48621
0.7745	-26.68762
0.775	-23.96851
0.7755	-26.3855
0.776	-35.85205
0.7765	-27.99683
0.777	-23.8678
0.7775	-8.15735
0.778	-3.32336
0.7785	4.43115
0.779	3.52478
0.7795	9.86938
0.78	20.44373
0.7805	25.88196
0.781	29.60815
0.7815	32.32727
0.782	27.19116
0.7825	29.70886
0.783	24.47205
0.7835	24.16992
0.784	20.04089
0.7845	26.3855
0.785	30.2124
0.7855	33.03223
0.786	25.07629
0.7865	25.88196
0.787	17.52319
0.7875	8.96301
0.788	1.61133
0.7885	6.84814
0.789	9.36584
0.7895	5.74036
0.79	10.87646
0.7905	20.74585
0.791	21.55151
0.7915	23.76709
0.792	18.53027
0.7925	23.76709
0.793	28.39966
0.7935	37.66479
0.794	38.87329
0.7945	31.92444
0.795	26.08337
0.7955	28.39966
0.796	16.51611
0.7965	-3.92761
0.797	-18.12744
0.7975	-21.3501
0.798	-15.50903
0.7985	-5.84106
0.799	-1.3092
0.7995	-0.70496
0.8	-1.10779
0.8005	-7.15027
0.801	-18.42957
0.8015	-17.6239
0.802	-16.71753
0.8025	-14.40125
0.803	-7.15027
0.8035	-0.30212
0.804	-1.3092
0.8045	1.00708
0.805	0.60425
0.8055	0.70496
0.806	-1.10779
0.8065	-6.64673
0.807	-8.96301
0.8075	-12.68921
0.808	-15.1062
0.8085	-15.30762
0.809	-12.18567
0.8095	-10.87646
0.81	-3.02124
0.8105	8.25806
0.811	20.34302
0.8115	35.85205
0.812	40.1825
0.8125	35.65063
0.813	34.03931
0.8135	25.68054
0.814	17.72461
0.8145	15.60974
0.815	8.25806
0.8155	10.57434
0.816	11.2793
0.8165	3.7262
0.817	-9.76868
0.8175	-15.00549
0.818	-15.1062
0.8185	-7.45239
0.819	-8.45947
0.8195	0.30212
0.82	9.06372
0.8205	-2.61841
0.821	1.40991
0.8215	0.60425
0.822	1.71204
0.8225	1.00708
0.823	1.71204
0.8235	7.95593
0.824	5.84106
0.8245	7.35168
0.825	15.30762
0.8255	18.63098
0.826	19.23523
0.8265	26.48621
0.827	19.13452
0.8275	19.43665
0.828	16.71753
0.8285	17.01965
0.829	13.69629
0.8295	11.2793
0.83	7.04956
0.8305	-4.33044
0.831	-1.81274
0.8315	2.01416
0.832	10.17151
0.8325	6.94885
0.833	-0.60425
0.8335	2.61841
0.834	-6.54602
0.8345	-0.50354
0.835	-6.84814
0.8355	-4.33044
0.836	-6.74744
0.8365	8.45947
0.837	6.44531
0.8375	-3.32336
0.838	-10.77576
0.8385	-29.00391
0.839	-47.13135
0.8395	-63.34534
0.84	-82.37915
0.8405	-86.8103
0.841	-68.68286
0.8415	-55.59082
0.842	-39.17542
0.8425	-35.85205
0.843	-38.16833
0.8435	-38.16833
0.844	-28.80249
0.8445	-23.8678
0.845	-19.43665
0.8455	-14.60266
0.846	-11.58142
0.8465	-11.68213
0.847	-6.2439
0.8475	-7.75452
0.848	-6.94885
0.8485	-6.84814
0.849	-9.97009
0.8495	-7.85522
0.85	-10.0708
0.8505	-14.50195
0.851	-14.60266
0.8515	-19.73877
0.852	-31.52161
0.8525	-26.58691
0.853	-27.39258
0.8535	-25.37842
0.854	-26.3855
0.8545	-18.22815
0.855	-11.07788
0.8555	1.40991
0.856	10.77576
0.8565	20.54443
0.857	20.54443
0.8575	25.37842
0.858	27.6947
0.8585	27.99683
0.859	36.05347
0.8595	29.70886
0.86	40.08179
0.8605	42.7002
0.861	39.88037
0.8615	34.34143
0.862	24.57275
0.8625	26.08337
0.863	20.94727
0.8635	29.10461
0.864	27.99683
0.8645	36.65771
0.865	38.26904
0.8655	38.36975
0.866	41.99524
0.8665	42.29736
0.867	35.2478
0.8675	41.79382
0.868	41.59241
0.8685	35.95276
0.869	27.99683
0.8695	28.09753
0.87	27.99683
0.8705	29.10461
0.871	22.25647
0.8715	13.69629
0.872	12.99133
0.8725	13.29346
0.873	11.58142
0.8735	13.49487
0.874	12.28638
0.8745	8.7616
0.875	6.84814
0.8755	2.01416
0.876	2.81982
0.8765	-1.81274
0.877	-4.43115
0.8775	-5.74036
0.878	-4.33044
0.8785	-2.92053
0.879	-4.83398
0.8795	-2.71912
0.88	-6.14319
0.8805	-12.08496
0.881	-19.13452
0.8815	-18.02673
0.882	-18.93311
0.8825	-23.76709
0.883	-27.6947
0.8835	-27.59399
0.884	-29.20532
0.8845	-35.95276
0.885	-31.62231
0.8855	-30.71594
0.886	-33.23364
0.8865	-37.16125
0.887	-43.60657
0.8875	-45.2179
0.888	-50.65613
0.8885	-57.10144
0.889	-60.02197
0.8895	-65.46021
0.89	-67.77649
0.8905	-81.67419
0.891	-83.99048
0.8915	-79.66003
0.892	-90.23438
0.8925	-84.09119
0.893	-78.45154
0.8935	-65.3595
0.894	-19.13452
0.8945	20.24231
0.895	52.46887
0.8955	66.87012
0.896	80.36499
0.8965	70.19348
0.897	59.51843
0.8975	56.29578
0.898	44.41223
0.8985	28.80249
0.899	23.26355
0.8995	15.40833
0.9	19.23523
0.9005	29.80957
0.901	42.90161
0.9015	60.02197
0.902	65.15808
0.9025	66.36658
0.903	46.02356
0.9035	22.76001
0.904	7.15027
0.9045	1.40991
0.905	-1.10779
0.9055	-7.85522
0.906	-7.45239
0.9065	-10.77576
0.907	-23.46497
0.9075	-20.64514
0.908	-25.27771
0.9085	-31.4209
0.909	-40.38391
0.9095	-44.31152
0.91	-43.50586
0.9105	-48.44055
0.911	-44.41223
0.9115	-44.61365
0.912	-52.06604
0.9125	-49.34692
0.913	-43.70728
0.9135	-43.50586
0.914	-31.72302
0.9145	-18.22815
0.915	0.70496
0.9155	5.63965
0.916	17.12036
0.9165	14.70337
0.917	20.64514
0.9175	15.71045
0.918	19.73877
0.9185	14.80408
0.919	5.23682
0.9195	5.94177
0.92	10.87646
0.9205	13.99841
0.921	16.01257
0.9215	10.37292
0.922	11.58142
0.9225	14.40125
0.923	14.80408
0.9235	17.01965
0.924	21.14868
0.9245	13.59558
0.925	19.03381
0.9255	29.60815
0.926	38.47046
0.9265	51.86462
0.927	67.8772
0.9275	77.84729
0.928	80.56641
0.9285	77.34375
0.929	68.78357
0.9295	63.34534
0.93	68.48145
0.9305	65.56091
0.931	62.13684
0.9315	49.64905
0.932	39.07471
0.9325	22.35718
0.933	6.74744
0.9335	3.92761
0.934	12.78992
0.9345	18.53027
0.935	21.85364
0.9355	22.45789
0.936	23.56567
0.9365	23.46497
0.937	6.3446
0.9375	-4.53186
0.938	-16.21399
0.9385	-26.48621
0.939	-39.98108
0.9395	-43.70728
0.94	-48.23914
0.9405	-53.37524
0.941	-55.18799
0.9415	-48.03772
0.942	-33.13293
0.9425	-32.93152
0.943	-29.10461
0.9435	-26.28479
0.944	-22.86072
0.9445	-33.13293
0.945	-30.71594
0.9455	-18.02673
0.946	-15.60974
0.9465	-12.48779
0.947	-4.43115
0.9475	-5.43823
0.948	-7.35168
0.9485	-12.48779
0.949	-16.51611
0.9495	-17.42249
0.95	-13.39417
0.9505	-22.6593
0.951	-22.76001
0.9515	-27.89612
0.952	-28.70178
0.9525	-27.6947
0.953	-22.05505
0.9535	-17.6239
0.954	-21.75293
0.9545	-19.13452
0.955	-16.71753
0.9555	-21.04797
0.956	-27.09045
0.9565	-23.36426
0.957	-28.80249
0.9575	-28.50037
0.958	-31.92444
0.9585	-40.78674
0.959	-47.53418
0.9595	-59.01489
0.96	-75.22888
0.9605	-76.33667
0.961	-69.99207
0.9615	-59.92126
0.962	-50.45471
0.9625	-37.56409
0.963	-31.62231
0.9635	-14.09912
0.964	3.7262
0.9645	19.03381
0.965	36.15417
0.9655	46.22498
0.966	52.16675
0.9665	50.15259
0.967	44.81506
0.9675	48.23914
0.968	43.50586
0.9685	41.18958
0.969	37.16125
0.9695	31.4209
0.97	37.66479
0.9705	45.62073
0.971	43.20374
0.9715	25.98267
0.972	13.59558
0.9725	15.91187
0.973	8.45947
0.9735	2.41699
0.974	-4.02832
0.9745	-11.78284
0.975	-16.91895
0.9755	-12.99133
0.976	-13.09204
0.9765	-20.64514
0.977	-16.91895
0.9775	-15.1062
0.978	-13.99841
0.9785	-17.92603
0.979	-20.64514
0.9795	-19.73877
0.98	-18.63098
0.9805	-21.85364
0.981	-19.43665
0.9815	-18.8324
0.982	-24.06921
0.9825	-27.09045
0.983	-26.68762
0.9835	-23.8678
0.984	-25.177
0.9845	-27.49329
0.985	-30.61523
0.9855	-31.92444
0.986	-28.60107
0.9865	-15.50903
0.987	-1.81274
0.9875	14.80408
0.988	29.50745
0.9885	35.95276
0.989	40.1825
0.9895	46.42639
0.99	37.56409
0.9905	41.59241
0.991	37.7655
0.9915	38.57117
0.992	34.84497
0.9925	30.11169
0.993	22.05505
0.9935	16.91895
0.994	16.21399
0.9945	18.32886
0.995	7.15027
0.9955	-1.00708
0.996	-12.78992
0.9965	-20.84656
0.997	-8.45947
0.9975	8.7616
0.998	16.81824
0.9985	28.29895
0.999	35.85205
0.9995	38.57117
1	48.13843
1.0005	50.15259
1.001	34.44214
1.0015	8.45947
1.002	-22.25647
1.0025	-50.75684
1.003	-80.86853
1.0035	-103.82996
1.004	-127.29492
1.0045	-160.62927
1.005	-176.84326
1.0055	-210.98328
1.006	-225.0824
1.0065	-232.13196
1.007	-237.06665
1.0075	-199.09973
1.008	-116.21704
1.0085	-32.7301
1.009	41.69312
1.0095	106.9519
1.01	140.28625
1.0105	182.3822
1.011	208.56628
1.0115	204.9408
1.012	196.48132
1.0125	180.26733
1.013	158.81653
1.0135	130.11475
1.014	122.56165
1.0145	125.38147
1.015	124.77722
1.0155	118.33191
1.016	109.4696
1.0165	88.11951
1.017	63.14392
1.0175	49.44763
1.018	34.54285
1.0185	31.52161
1.019	27.09045
1.0195	13.39417
1.02	12.5885
1.0205	17.32178
1.021	19.53735
1.0215	17.82532
1.022	17.82532
1.0225	16.91895
1.023	11.58142
1.0235	-1.40991
1.024	-7.35168
1.0245	-13.797
1.025	-18.93311
1.0255	-15.91187
1.026	-22.05505
1.0265	-23.96851
1.027	-19.33594
1.0275	-7.25098
1.028	-6.2439
1.0285	-8.66089
1.029	-5.84106
1.0295	-4.73328
1.03	-12.18567
1.0305	-5.33752
1.031	-19.63806
1.0315	-17.12036
1.032	-19.53735
1.0325	-19.23523
1.033	-12.08496
1.0335	-10.97717
1.034	-6.94885
1.0345	-7.95593
1.035	-2.31628
1.0355	5.74036
1.036	21.3501
1.0365	33.13293
1.037	41.59241
1.0375	48.13843
1.038	61.33118
1.0385	51.96533
1.039	54.88586
1.0395	47.13135
1.04	36.65771
1.0405	30.11169
1.041	18.22815
1.0415	12.5885
1.042	-5.13611
1.0425	-8.7616
1.043	-15.71045
1.0435	-13.39417
1.044	-23.66638
1.0445	-20.94727
1.045	-17.01965
1.0455	-8.66089
1.046	-4.83398
1.0465	0
1.047	2.61841
1.0475	9.66797
1.048	18.22815
1.0485	14.40125
1.049	4.43115
1.0495	-12.48779
1.05	-22.15576
1.0505	-34.44214
1.051	-51.66321
1.0515	-67.17224
1.052	-70.89844
1.0525	-82.17773
1.053	-95.37048
1.0535	-106.54907
1.054	-119.64111
1.0545	-129.00696
1.055	-128.60413
1.0555	-122.56165
1.056	-127.49634
1.0565	-121.25244
1.057	-124.57581
1.0575	-127.49634
1.058	-129.91333
1.0585	-124.17297
1.059	-130.51758
1.0595	-128.70483
1.06	-115.91492
1.0605	-87.61597
1.061	-64.95667
1.0615	-42.59949
1.062	-41.4917
1.0625	-40.98816
1.063	-46.82922
1.0635	-42.59949
1.064	-29.70886
1.0645	-4.02832
1.065	22.25647
1.0655	46.32568
1.066	40.08179
1.0665	25.78125
1.067	12.38708
1.0675	28.09753
1.068	62.9425
1.0685	107.35474
1.069	137.36572
1.0695	170.19653
1.07	197.89124
1.0705	205.0415
1.071	207.15637
1.0715	211.18469
1.072	202.22168
1.0725	188.32397
1.073	168.18237
1.0735	149.45068
1.074	145.62378
1.0745	146.02661
1.075	137.0636
1.0755	141.79688
1.076	131.22253
1.0765	116.72058
1.077	96.37756
1.0775	87.31384
1.078	72.9126
1.0785	57.8064
1.079	51.66321
1.0795	32.32727
1.08	24.87488
1.0805	9.97009
1.081	-8.7616
1.0815	-15.91187
1.082	-35.14709
1.0825	-55.18799
1.083	-63.94958
1.0835	-77.64587
1.084	-93.0542
1.0845	-109.87244
1.085	-120.54749
1.0855	-134.34448
1.086	-127.69775
1.0865	-138.17139
1.087	-118.73474
1.0875	-73.81897
1.088	-56.49719
1.0885	-49.14551
1.089	-45.62073
1.0895	-58.81348
1.09	-86.8103
1.0905	-99.60022
1.091	-108.1604
1.0915	-107.15332
1.092	-111.38306
1.0925	-109.06677
1.093	-113.29651
1.0935	-104.93774
1.094	-102.42004
1.0945	-98.79456
1.095	-90.5365
1.0955	-73.41614
1.096	-54.38232
1.0965	-32.42798
1.097	19.03381
1.0975	54.58374
1.098	77.74658
1.0985	83.58765
1.099	80.16357
1.0995	53.67737
1.1	44.91577
1.1005	38.57117
1.101	61.43188
1.1015	108.1604
1.102	138.87634
1.1025	142.099
1.103	136.25793
1.1035	109.87244
1.104	82.17773
1.1045	66.26587
1.105	38.87329
1.1055	14.90479
1.106	0.80566
1.1065	-13.797
1.107	-18.02673
1.1075	-28.9032
1.108	-28.9032
1.1085	-29.91028
1.109	-16.71753
1.1095	-15.71045
1.11	-6.2439
1.1105	-2.11487
1.111	2.31628
1.1115	8.35876
1.112	4.33044
1.1125	3.7262
1.113	6.84814
1.1135	26.08337
1.114	53.27454
1.1145	54.18091
1.115	35.95276
1.1155	18.93311
1.116	-1.81274
1.1165	-14.80408
1.117	-27.79541
1.1175	-43.50586
1.118	-51.46179
1.1185	-58.81348
1.119	-60.22339
1.1195	-60.22339
1.12	-62.13684
1.1205	-51.66321
1.121	-45.72144
1.1215	-33.9386
1.122	-33.23364
1.1225	-38.06763
1.123	-49.85046
1.1235	-51.5625
1.124	-32.22656
1.1245	-27.09045
1.125	-23.06213
1.1255	-33.23364
1.126	-42.19666
1.1265	-46.12427
1.127	-51.46179
1.1275	-35.95276
1.128	-27.99683
1.1285	-6.84814
1.129	9.97009
1.1295	33.53577
1.13	43.00232
1.1305	47.43347
1.131	44.71436
1.1315	31.82373
1.132	9.06372
1.1325	-4.73328
1.133	-12.28638
1.1335	-12.08496
1.134	-6.54602
1.1345	-4.93469
1.135	-6.64673
1.1355	-7.75452
1.136	7.65381
1.1365	32.62939
1.137	42.59949
1.1375	41.99524
1.138	43.00232
1.1385	32.42798
1.139	19.43665
1.1395	8.35876
1.14	-6.74744
1.1405	-15.20691
1.141	-20.54443
1.1415	-21.85364
1.142	-35.65063
1.1425	-46.42639
1.143	-43.50586
1.1435	-37.7655
1.144	-24.97559
1.1445	1.3092
1.145	32.02515
1.1455	77.948
1.146	71.90552
1.1465	64.95667
1.147	46.22498
1.1475	48.84338
1.148	51.36108
1.1485	60.52551
1.149	64.05029
1.1495	58.10852
1.15	38.06763
1.1505	13.89771
1.151	0.10071
1.1515	-9.76868
1.152	-16.51611
1.1525	-15.81116
1.153	-22.45789
1.1535	-31.4209
1.154	-35.04639
1.1545	-41.29028
1.155	-44.41223
1.1555	-47.93701
1.156	-41.08887
1.1565	-36.95984
1.157	-27.19116
1.1575	-17.6239
1.158	5.43823
1.1585	30.2124
1.159	66.97083
1.1595	91.745
1.16	97.48535
1.1605	103.125
1.161	90.83862
1.1615	87.71667
1.162	84.09119
1.1625	68.58215
1.163	59.31702
1.1635	42.8009
1.164	39.88037
1.1645	43.40515
1.165	48.84338
1.1655	50.2533
1.166	41.59241
1.1665	27.29187
1.167	17.12036
1.1675	17.12036
1.168	3.32336
1.1685	-6.14319
1.169	-21.04797
1.1695	-29.30603
1.17	-42.7002
1.1705	-50.75684
1.171	-64.151
1.1715	-77.84729
1.172	-89.93225
1.1725	-114.80713
1.173	-127.59705
1.1735	-127.49634
1.174	-131.12183
1.1745	-112.99438
1.175	-100.50659
1.1755	-80.56641
1.176	-63.84888
1.1765	-39.27612
1.177	10.77576
1.1775	38.57117
1.178	50.354
1.1785	59.41772
1.179	53.27454
1.1795	35.65063
1.18	25.78125
1.1805	17.6239
1.181	9.46655
1.1815	-6.44531
1.182	-27.59399
1.1825	-42.90161
1.183	-46.62781
1.1835	-59.21631
1.184	-64.65454
1.1845	-66.87012
1.185	-73.31543
1.1855	-67.67578
1.186	-60.82764
1.1865	-59.31702
1.187	-45.3186
1.1875	-29.60815
1.188	-4.73328
1.1885	8.96301
1.189	12.89062
1.1895	-0.50354
1.19	-19.94019
1.1905	-46.72852
1.191	-63.14392
1.1915	-85.60181
1.192	-97.08252
1.1925	-96.27686
1.193	-95.06836
1.1935	-99.09668
1.194	-95.37048
1.1945	-84.69543
1.195	-62.23755
1.1955	-27.6947
1.196	25.27771
1.1965	65.05737
1.197	85.09827
1.1975	95.5719
1.198	84.79614
1.1985	67.17224
1.199	45.41931
1.1995	27.19116
1.2	15.81116
1.2005	14.19983
1.201	14.80408
1.2015	10.0708
1.202	14.80408
1.2025	20.54443
1.203	20.74585
1.2035	30.81665
1.204	35.44922
1.2045	52.97241
1.205	63.14392
1.2055	57.9071
1.206	50.354
1.2065	42.49878
1.207	34.44214
1.2075	17.6239
1.208	5.84106
1.2085	-6.14319
1.209	-2.61841
1.2095	7.85522
1.21	22.76001
1.2105	20.94727
1.211	27.29187
1.2115	26.88904
1.212	23.26355
1.2125	22.55859
1.213	13.29346
1.2135	-8.05664
1.214	-33.9386
1.2145	-57.50427
1.215	-67.97791
1.2155	-73.21472
1.216	-68.68286
1.2165	-58.71277
1.217	-58.00781
1.2175	-44.71436
1.218	-29.60815
1.2185	-17.32178
1.219	-3.92761
1.2195	13.797
1.22	31.01807
1.2205	35.65063
1.221	48.33984
1.2215	53.07312
1.222	48.94409
1.2225	44.91577
1.223	24.37134
1.2235	9.56726
1.224	5.23682
1.2245	6.84814
1.225	8.05664
1.2255	13.29346
1.226	11.38
1.2265	18.32886
1.227	32.52869
1.2275	60.12268
1.228	84.39331
1.2285	101.61438
1.229	116.51917
1.2295	129.71191
1.23	130.71899
1.2305	126.38855
1.231	114.505
1.2315	100.20447
1.232	70.09277
1.2325	52.56958
1.233	41.29028
1.2335	31.01807
1.234	16.01257
1.2345	8.05664
1.235	-5.84106
1.2355	-9.46655
1.236	-16.11328
1.2365	-23.36426
1.237	-29.91028
1.2375	-39.37683
1.238	-50.05188
1.2385	-52.46887
1.239	-49.54834
1.2395	-44.11011
1.24	-42.39807
1.2405	-38.36975
1.241	-39.27612
1.2415	-50.65613
1.242	-49.44763
1.2425	-60.02197
1.243	-66.56799
1.2435	-79.55933
1.244	-94.3634
1.2445	-105.03845
1.245	-129.5105
1.2455	-125.7843
1.246	-117.82837
1.2465	-99.60022
1.247	-79.55933
1.2475	-58.71277
1.248	-32.32727
1.2485	-2.71912
1.249	29.91028
1.2495	55.2887
1.25	82.88269
1.2505	126.08643
1.251	144.11316
1.2515	141.79688
1.252	128.70483
1.2525	102.72217
1.253	70.69702
1.2535	45.82214
1.254	35.14709
1.2545	9.66797
1.255	1.51062
1.2555	-2.81982
1.256	-12.5885
1.2565	-8.8623
1.257	-14.60266
1.2575	-19.73877
1.258	-27.79541
1.2585	-29.50745
1.259	-39.77966
1.2595	-46.5271
1.26	-53.77808
1.2605	-63.04321
1.261	-79.35791
1.2615	-92.34924
1.262	-100.6073
1.2625	-100.40588
1.263	-113.69934
1.2635	-116.01562
1.264	-120.24536
1.2645	-119.13757
1.265	-114.30359
1.2655	-119.94324
1.266	-131.92749
1.2665	-136.66077
1.267	-147.53723
1.2675	-150.45776
1.268	-165.36255
1.2685	-170.19653
1.269	-174.52698
1.2695	-173.21777
1.27	-158.81653
1.2705	-141.19263
1.271	-102.82288
1.2715	-55.69153
1.272	-9.46655
1.2725	39.47754
1.273	77.54517
1.2735	116.31775
1.274	147.73865
1.2745	156.80237
1.275	152.67334
1.2755	134.5459
1.276	131.92749
1.2765	143.3075
1.277	124.97864
1.2775	107.15332
1.278	93.35632
1.2785	84.19189
1.279	77.44446
1.2795	80.66711
1.28	75.73242
1.2805	60.4248
1.281	41.79382
1.2815	9.36584
1.282	-15.1062
1.2825	-25.57983
1.283	-37.56409
1.2835	-47.8363
1.284	-52.06604
1.2845	-61.6333
1.285	-70.19348
1.2855	-65.46021
1.286	-65.46021
1.2865	-62.23755
1.287	-65.76233
1.2875	-57.8064
1.288	-54.48303
1.2885	-45.3186
1.289	-36.75842
1.2895	-35.44922
1.29	-31.82373
1.2905	-18.42957
1.291	-0.70496
1.2915	17.82532
1.292	55.79224
1.2925	85.09827
1.293	115.20996
1.2935	141.19263
1.294	159.7229
1.2945	174.12415
1.295	193.15796
1.2955	191.44592
1.296	171.90857
1.2965	144.71741
1.297	128.60413
1.2975	110.27527
1.298	91.94641
1.2985	78.14941
1.299	70.69702
1.2995	53.07312
1.3	49.74976
1.3005	51.76392
1.301	62.9425
1.3015	70.29419
1.302	73.61755
1.3025	71.40198
1.303	65.96375
1.3035	62.03613
1.304	49.24622
1.3045	32.02515
1.305	26.68762
1.3055	22.76001
1.306	15.60974
1.3065	11.68213
1.307	0
1.3075	-6.04248
1.308	-10.97717
1.3085	-13.39417
1.309	-20.94727
1.3095	-24.87488
1.31	-31.32019
1.3105	-32.52869
1.311	-31.82373
1.3115	-40.68604
1.312	-40.98816
1.3125	-42.49878
1.313	-43.50586
1.3135	-45.2179
1.314	-43.60657
1.3145	-45.3186
1.315	-48.44055
1.3155	-48.94409
1.316	-49.24622
1.3165	-48.44055
1.317	-47.23206
1.3175	-51.05896
1.318	-43.30444
1.3185	-40.68604
1.319	-33.43506
1.3195	-26.08337
1.32	-15.91187
1.3205	-10.17151
1.321	-12.48779
1.3215	-12.68921
1.322	-24.37134
1.3225	-41.18958
1.323	-51.05896
1.3235	-56.19507
1.324	-72.81189
1.3245	-81.67419
1.325	-97.48535
1.3255	-108.96606
1.326	-120.64819
1.3265	-127.89917
1.327	-141.19263
1.3275	-139.07776
1.328	-146.12732
1.3285	-146.22803
1.329	-144.71741
1.3295	-139.48059
1.33	-135.04944
1.3305	-116.61987
1.331	-102.62146
1.3315	-76.03455
1.332	-48.54126
1.3325	-23.56567
1.333	6.54602
1.3335	39.27612
1.334	64.151
1.3345	83.48694
1.335	84.89685
1.3355	72.71118
1.336	62.53967
1.3365	50.05188
1.337	23.8678
1.3375	-22.25647
1.338	-56.39648
1.3385	-94.3634
1.339	-135.8551
1.3395	-174.72839
1.34	-204.84009
1.3405	-229.41284
1.341	-237.57019
1.3415	-237.36877
1.342	-231.93054
1.3425	-216.3208
1.343	-189.73389
1.3435	-162.2406
1.344	-136.15723
1.3445	-104.3335
1.345	-62.33826
1.3455	-6.04248
1.346	48.54126
1.3465	92.95349
1.347	130.8197
1.3475	178.45459
1.348	207.4585
1.3485	216.82434
1.349	226.69373
1.3495	228.50647
1.35	229.81567
1.3505	226.89514
1.351	202.32239
1.3515	173.72131
1.352	151.16272
1.3525	130.61829
1.353	117.52625
1.3535	109.67102
1.354	106.34766
1.3545	93.35632
1.355	87.81738
1.3555	77.24304
1.356	74.32251
1.3565	70.89844
1.357	57.50427
1.3575	39.47754
1.358	19.63806
1.3585	0.90637
1.359	-11.88354
1.3595	-22.05505
1.36	-27.09045
1.3605	-27.79541
1.361	-30.2124
1.3615	-29.20532
1.362	-22.05505
1.3625	-18.42957
1.363	-12.18567
1.3635	-2.61841
1.364	-5.33752
1.3645	-5.53894
1.365	-12.28638
1.3655	-15.40833
1.366	-22.86072
1.3665	-22.76001
1.367	-20.44373
1.3675	-12.28638
1.368	-12.28638
1.3685	-12.78992
1.369	-13.89771
1.3695	-12.48779
1.37	-19.43665
1.3705	-23.56567
1.371	-31.52161
1.3715	-31.4209
1.372	-26.18408
1.3725	-25.68054
1.373	-27.39258
1.3735	-23.76709
1.374	-29.80957
1.3745	-28.19824
1.375	-13.39417
1.3755	6.14319
1.376	22.25647
1.3765	50.15259
1.377	74.52393
1.3775	86.30676
1.378	76.33667
1.3785	62.74109
1.379	46.5271
1.3795	36.95984
1.38	26.18408
1.3805	20.94727
1.381	9.86938
1.3815	4.22974
1.382	9.46655
1.3825	18.93311
1.383	18.73169
1.3835	14.60266
1.384	6.3446
1.3845	3.22266
1.385	-4.12903
1.3855	0.70496
1.386	-5.74036
1.3865	-7.04956
1.387	-13.69629
1.3875	-13.69629
1.388	-18.53027
1.3885	-23.56567
1.389	-33.73718
1.3895	-42.7002
1.39	-40.2832
1.3905	-45.2179
1.391	-44.0094
1.3915	-35.85205
1.392	-29.30603
1.3925	-21.14868
1.393	-10.0708
1.3935	-8.56018
1.394	7.15027
1.3945	22.45789
1.395	44.51294
1.3955	51.05896
1.396	47.03064
1.3965	36.95984
1.397	27.39258
1.3975	14.30054
1.398	2.71912
1.3985	-4.12903
1.399	-6.3446
1.3995	-7.65381
1.4	-11.2793
1.4005	-8.7616
1.401	-5.53894
1.4015	-5.53894
1.402	-4.73328
1.4025	-4.73328
1.403	-11.17859
1.4035	-12.78992
1.404	-21.45081
1.4045	-23.56567
1.405	-30.11169
1.4055	-28.80249
1.406	-33.03223
1.4065	-34.94568
1.407	-35.34851
1.4075	-26.68762
1.408	-25.27771
1.4085	-22.45789
1.409	-23.96851
1.4095	-23.96851
1.41	-20.04089
1.4105	-10.37292
1.411	-13.89771
1.4115	-17.72461
1.412	-25.37842
1.4125	-28.19824
1.413	-34.24072
1.4135	-36.75842
1.414	-45.2179
1.4145	-59.92126
1.415	-82.68127
1.4155	-97.38464
1.416	-118.93616
1.4165	-119.4397
1.417	-135.65369
1.4175	-138.77563
1.418	-144.71741
1.4185	-146.63086
1.419	-144.11316
1.4195	-132.73315
1.42	-120.04395
1.4205	-98.39172
1.421	-75.73242
1.4215	-50.2533
1.422	-32.32727
1.4225	-17.42249
1.423	2.71912
1.4235	20.54443
1.424	45.41931
1.4245	52.8717
1.425	63.54675
1.4255	68.58215
1.426	74.82605
1.4265	76.94092
1.427	86.60889
1.4275	81.06995
1.428	68.98499
1.4285	61.93542
1.429	42.39807
1.4295	29.91028
1.43	9.36584
1.4305	-15.71045
1.431	-31.52161
1.4315	-37.66479
1.432	-29.91028
1.4325	-24.37134
1.433	-11.68213
1.4335	-4.93469
1.434	9.06372
1.4345	32.93152
1.435	55.3894
1.4355	88.11951
1.436	120.14465
1.4365	136.35864
1.437	144.81812
1.4375	144.81812
1.438	137.56714
1.4385	130.92041
1.439	130.41687
1.4395	116.21704
1.44	112.89368
1.4405	105.44128
1.441	97.68677
1.4415	73.21472
1.442	54.38232
1.4425	21.75293
1.443	-2.61841
1.4435	-23.36426
1.444	-49.74976
1.4445	-66.46729
1.445	-85.19897
1.4455	-95.37048
1.446	-105.74341
1.4465	-110.77881
1.447	-111.9873
1.4475	-98.99597
1.448	-85.70251
1.4485	-56.79932
1.449	-22.45789
1.4495	12.68921
1.45	46.22498
1.4505	70.79773
1.451	99.2981
1.4515	116.21704
1.452	113.49792
1.4525	100.80872
1.453	81.27136
1.4535	63.54675
1.454	54.18091
1.4545	52.06604
1.455	43.20374
1.4555	41.89453
1.456	32.52869
1.4565	27.89612
1.457	18.22815
1.4575	13.59558
1.458	12.38708
1.4585	10.87646
1.459	14.40125
1.4595	5.94177
1.46	4.12903
1.4605	6.04248
1.461	1.91345
1.4615	-0.30212
1.462	-5.23682
1.4625	-7.95593
1.463	-7.65381
1.4635	-13.39417
1.464	-18.02673
1.4645	-17.12036
1.465	-17.22107
1.4655	-18.53027
1.466	-13.89771
1.4665	-22.76001
1.467	-22.96143
1.4675	-19.94019
1.468	-21.65222
1.4685	-17.92603
1.469	-12.78992
1.4695	-10.0708
1.47	-10.67505
1.4705	-10.77576
1.471	-6.84814
1.4715	-8.15735
1.472	-10.97717
1.4725	-10.37292
1.473	-13.99841
1.4735	-14.60266
1.474	-9.97009
1.4745	-4.33044
1.475	-10.0708
1.4755	-6.14319
1.476	-5.94177
1.4765	-0.90637
1.477	-0.90637
1.4775	-5.33752
1.478	-6.84814
1.4785	-13.19275
1.479	-8.66089
1.4795	-19.94019
1.48	-28.60107
1.4805	-36.05347
1.481	-45.2179
1.4815	-52.06604
1.482	-59.21631
1.4825	-61.73401
1.483	-70.59631
1.4835	-73.51685
1.484	-77.04163
1.4845	-79.76074
1.485	-76.53809
1.4855	-71.50269
1.486	-70.69702
1.4865	-55.49011
1.487	-47.13135
1.4875	-50.354
1.488	-43.00232
1.4885	-40.88745
1.489	-33.03223
1.4895	-21.65222
1.49	-16.81824
1.4905	-15.91187
1.491	-9.36584
1.4915	-10.27222
1.492	0.50354
1.4925	3.02124
1.493	3.8269
1.4935	16.41541
1.494	22.05505
1.4945	22.76001
1.495	17.52319
1.4955	25.27771
1.496	26.28479
1.4965	32.02515
1.497	39.37683
1.4975	51.5625
1.498	49.95117
1.4985	51.5625
1.499	48.44055
1.4995	47.93701
1.5	46.5271
1.5005	48.23914
1.501	46.42639
1.5015	48.94409
1.502	45.72144
1.5025	43.80798
1.503	34.34143
1.5035	24.57275
1.504	25.37842
1.5045	22.96143
1.505	22.15576
1.5055	18.63098
1.506	18.73169
1.5065	17.32178
1.507	4.93469
1.5075	-1.61133
1.508	-3.8269
1.5085	-6.64673
1.509	-5.84106
1.5095	-14.80408
1.51	-21.24939
1.5105	-37.16125
1.511	-46.5271
1.5115	-67.8772
1.512	-84.09119
1.5125	-112.28943
1.513	-135.45227
1.5135	-145.8252
1.514	-167.07458
1.5145	-176.84326
1.515	-175.13123
1.5155	-187.82043
1.516	-186.41052
1.5165	-186.41052
1.517	-172.71423
1.5175	-150.8606
1.518	-131.62537
1.5185	-109.97314
1.519	-77.74658
1.5195	-39.57825
1.52	-5.33752
1.5205	25.78125
1.521	62.33826
1.5215	108.36182
1.522	130.21545
1.5225	146.32874
1.523	151.96838
1.5235	168.4845
1.524	177.44751
1.5245	174.42627
1.525	171.0022
1.5255	157.70874
1.526	149.45068
1.5265	133.53882
1.527	116.21704
1.5275	101.11084
1.528	86.60889
1.5285	69.38782
1.529	65.96375
1.5295	55.08728
1.53	53.27454
1.5305	49.95117
1.531	43.60657
1.5315	30.01099
1.532	22.45789
1.5325	10.17151
1.533	10.57434
1.5335	7.45239
1.534	3.7262
1.5345	8.35876
1.535	16.41541
1.5355	20.54443
1.536	16.51611
1.5365	20.54443
1.537	30.01099
1.5375	46.42639
1.538	56.5979
1.5385	62.23755
1.539	64.95667
1.5395	71.60339
1.54	69.38782
1.5405	56.09436
1.541	32.22656
1.5415	7.25098
1.542	-12.08496
1.5425	-25.177
1.543	-37.26196
1.5435	-50.55542
1.544	-59.51843
1.5445	-69.48853
1.545	-72.50977
1.5455	-68.07861
1.546	-60.3241
1.5465	-47.33276
1.547	-29.10461
1.5475	-10.37292
1.548	9.66797
1.5485	37.26196
1.549	57.20215
1.5495	81.67419
1.55	95.77332
1.5505	101.51367
1.551	108.86536
1.5515	98.89526
1.552	84.79614
1.5525	60.92834
1.553	39.07471
1.5535	25.177
1.554	19.94019
1.5545	14.80408
1.555	1.91345
1.5555	2.81982
1.556	-1.81274
1.5565	-7.95593
1.557	-6.54602
1.5575	-10.0708
1.558	-12.89062
1.5585	-13.69629
1.559	-15.00549
1.5595	-15.71045
1.56	-11.48071
1.5605	-12.38708
1.561	-10.17151
1.5615	-11.48071
1.562	-8.8623
1.5625	-6.64673
1.563	-8.8623
1.5635	-2.01416
1.564	-3.22266
1.5645	-12.08496
1.565	-8.15735
1.5655	-10.27222
1.566	-5.33752
1.5665	-4.02832
1.567	-6.74744
1.5675	-5.74036
1.568	-11.68213
1.5685	-11.58142
1.569	-11.38
1.5695	-12.38708
1.57	-17.82532
1.5705	-14.70337
1.571	-16.91895
1.5715	-31.32019
1.572	-42.09595
1.5725	-51.96533
1.573	-58.71277
1.5735	-66.46729
1.574	-69.79065
1.5745	-75.32959
1.575	-80.96924
1.5755	-82.88269
1.576	-75.73242
1.5765	-71.80481
1.577	-70.59631
1.5775	-64.45312
1.578	-63.94958
1.5785	-58.20923
1.579	-49.34692
1.5795	-35.34851
1.58	-23.26355
1.5805	-22.15576
1.581	-19.23523
1.5815	-21.85364
1.582	-21.45081
1.5825	-26.78833
1.583	-36.85913
1.5835	-41.99524
1.584	-39.17542
1.5845	-38.06763
1.585	-26.48621
1.5855	-21.45081
1.586	-9.26514
1.5865	-1.61133
1.587	1.2085
1.5875	5.94177
1.588	9.16443
1.5885	18.32886
1.589	24.06921
1.5895	34.24072
1.59	40.88745
1.5905	43.00232
1.591	60.82764
1.5915	70.89844
1.592	81.7749
1.5925	96.98181
1.593	121.05103
1.5935	122.66235
1.594	126.9928
1.5945	115.51208
1.595	101.71509
1.5955	86.60889
1.596	69.28711
1.5965	59.21631
1.597	51.5625
1.5975	41.4917
1.598	29.50745
1.5985	21.45081
1.599	16.61682
1.5995	8.45947
1.6	11.07788
1.6005	1.51062
1.601	1.3092
1.6015	0
1.602	-3.92761
1.6025	-2.81982
1.603	-20.64514
1.6035	-27.59399
1.604	-30.91736
1.6045	-30.41382
1.605	-38.87329
1.6055	-41.79382
1.606	-50.15259
1.6065	-42.7002
1.607	-42.59949
1.6075	-45.11719
1.608	-47.63489
1.6085	-50.05188
1.609	-44.41223
1.6095	-34.34143
1.61	-22.45789
1.6105	-12.78992
1.611	-2.92053
1.6115	8.7616
1.612	14.19983
1.6125	11.98425
1.613	18.02673
1.6135	13.59558
1.614	18.32886
1.6145	13.19275
1.615	23.16284
1.6155	16.71753
1.616	17.22107
1.6165	21.24939
1.617	19.13452
1.6175	11.98425
1.618	-8.15735
1.6185	-19.83948
1.619	-39.27612
1.6195	-45.41931
1.62	-55.89294
1.6205	-65.3595
1.621	-75.83313
1.6215	-79.66003
1.622	-81.06995
1.6225	-70.3949
1.623	-57.70569
1.6235	-41.18958
1.624	-26.18408
1.6245	-17.92603
1.625	-12.78992
1.6255	-10.47363
1.626	-0.60425
1.6265	4.53186
1.627	1.81274
1.6275	0.30212
1.628	-7.5531
1.6285	-12.08496
1.629	-13.69629
1.6295	-15.00549
1.63	-13.49487
1.6305	-0.80566
1.631	9.66797
1.6315	20.24231
1.632	40.68604
1.6325	57.00073
1.633	72.20764
1.6335	79.86145
1.634	89.63013
1.6345	95.97473
1.635	108.26111
1.6355	109.26819
1.636	112.89368
1.6365	103.72925
1.637	87.61597
1.6375	77.44446
1.638	63.94958
1.6385	52.67029
1.639	32.62939
1.6395	10.77576
1.64	-0.80566
1.6405	0.10071
1.641	-0.40283
1.6415	6.74744
1.642	6.44531
1.6425	13.797
1.643	18.73169
1.6435	29.20532
1.644	37.26196
1.6445	44.11011
1.645	46.62781
1.6455	39.98108
1.646	32.02515
1.6465	15.30762
1.647	0.40283
1.6475	-17.72461
1.648	-32.12585
1.6485	-54.38232
1.649	-75.12817
1.6495	-83.08411
1.65	-97.58606
1.6505	-108.56323
1.651	-123.66943
1.6515	-134.34448
1.652	-146.63086
1.6525	-143.91174
1.653	-146.83228
1.6535	-142.80396
1.654	-138.97705
1.6545	-125.28076
1.655	-115.7135
1.6555	-88.42163
1.656	-61.73401
1.6565	-32.02515
1.657	-3.8269
1.6575	29.20532
1.658	60.12268
1.6585	90.63721
1.659	109.97314
1.6595	129.5105
1.66	138.77563
1.6605	139.5813
1.661	138.97705
1.6615	132.22961
1.662	127.69775
1.6625	115.31067
1.663	106.44836
1.6635	87.91809
1.664	70.29419
1.6645	57.60498
1.665	52.16675
1.6655	41.59241
1.666	41.99524
1.6665	45.41931
1.667	35.75134
1.6675	36.05347
1.668	37.86621
1.6685	37.66479
1.669	42.49878
1.6695	40.58533
1.67	37.06055
1.6705	21.65222
1.671	11.2793
1.6715	15.60974
1.672	7.04956
1.6725	10.57434
1.673	-2.5177
1.6735	0.80566
1.674	-6.74744
1.6745	-4.53186
1.675	-4.73328
1.6755	1.3092
1.676	-0.80566
1.6765	-4.83398
1.677	-8.45947
1.6775	-9.16443
1.678	-9.66797
1.6785	-14.70337
1.679	-13.797
1.6795	-20.64514
1.68	-19.03381
1.6805	-16.91895
1.681	-22.15576
1.6815	-30.2124
1.682	-36.05347
1.6825	-39.37683
1.683	-47.43347
1.6835	-50.85754
1.684	-51.5625
1.6845	-60.92834
1.685	-63.14392
1.6855	-67.17224
1.686	-74.82605
1.6865	-78.45154
1.687	-82.9834
1.6875	-95.06836
1.688	-100.40588
1.6885	-94.66553
1.689	-94.16199
1.6895	-82.78198
1.69	-70.49561
1.6905	-52.97241
1.691	-42.09595
1.6915	-17.12036
1.692	-1.40991
1.6925	12.28638
1.693	22.05505
1.6935	35.34851
1.694	37.56409
1.6945	52.06604
1.695	59.21631
1.6955	62.03613
1.696	67.57507
1.6965	78.85437
1.697	85.60181
1.6975	87.51526
1.698	79.05579
1.6985	82.58057
1.699	72.9126
1.6995	63.34534
1.7	51.76392
1.7005	48.13843
1.701	38.974
1.7015	24.16992
1.702	28.09753
1.7025	22.15576
1.703	18.93311
1.7035	21.04797
1.704	15.60974
1.7045	17.22107
1.705	5.94177
1.7055	-2.31628
1.706	-2.21558
1.7065	-16.61682
1.707	-29.60815
1.7075	-41.08887
1.708	-43.10303
1.7085	-54.68445
1.709	-70.99915
1.7095	-89.02588
1.71	-87.41455
1.7105	-100.80872
1.711	-103.02429
1.7115	-108.86536
1.712	-107.85828
1.7125	-101.9165
1.713	-93.0542
1.7135	-86.40747
1.714	-80.4657
1.7145	-69.28711
1.715	-41.18958
1.7155	-15.60974
1.716	4.02832
1.7165	14.09912
1.717	20.64514
1.7175	34.44214
1.718	40.1825
1.7185	26.18408
1.719	14.30054
1.7195	1.51062
1.72	0.90637
1.7205	-3.32336
1.721	-1.71204
1.7215	-3.32336
1.722	-2.21558
1.7225	1.91345
1.723	11.38
1.7235	20.34302
1.724	36.85913
1.7245	58.41064
1.725	79.15649
1.7255	89.328
1.726	97.98889
1.7265	109.97314
1.727	118.2312
1.7275	125.7843
1.728	120.14465
1.7285	115.10925
1.729	99.49951
1.7295	90.13367
1.73	73.71826
1.7305	68.07861
1.731	59.01489
1.7315	47.03064
1.732	31.62231
1.7325	25.98267
1.733	22.15576
1.7335	21.95435
1.734	15.1062
1.7345	20.94727
1.735	24.47205
1.7355	23.36426
1.736	15.20691
1.7365	-1.3092
1.737	-10.67505
1.7375	-10.47363
1.738	-2.11487
1.7385	-4.53186
1.739	-3.62549
1.7395	-5.94177
1.74	-1.81274
1.7405	0.80566
1.741	-0.50354
1.7415	-10.37292
1.742	-25.177
1.7425	-36.15417
1.743	-48.74268
1.7435	-64.95667
1.744	-81.7749
1.7445	-92.24854
1.745	-99.09668
1.7455	-107.05261
1.746	-115.7135
1.7465	-111.78589
1.747	-104.03137
1.7475	-117.02271
1.748	-109.26819
1.7485	-106.8512
1.749	-99.70093
1.7495	-93.15491
1.75	-78.45154
1.7505	-61.43188
1.751	-50.55542
1.7515	-38.57117
1.752	-43.20374
1.7525	-37.06055
1.753	-17.52319
1.7535	-8.25806
1.754	3.62549
1.7545	9.86938
1.755	20.1416
1.7555	22.35718
1.756	30.81665
1.7565	32.32727
1.757	38.47046
1.7575	35.85205
1.758	44.41223
1.7585	55.69153
1.759	68.68286
1.7595	67.07153
1.76	63.54675
1.7605	66.76941
1.761	76.63879
1.7615	91.8457
1.762	103.32642
1.7625	105.74341
1.763	107.85828
1.7635	108.66394
1.764	109.67102
1.7645	105.34058
1.765	97.08252
1.7655	89.63013
1.766	77.64587
1.7665	63.64746
1.767	58.00781
1.7675	47.63489
1.768	43.30444
1.7685	45.2179
1.769	44.21082
1.7695	41.59241
1.77	33.13293
1.7705	29.00391
1.771	25.07629
1.7715	20.24231
1.772	21.65222
1.7725	15.00549
1.773	10.37292
1.7735	8.8623
1.774	5.63965
1.7745	7.35168
1.775	-2.71912
1.7755	-1.81274
1.776	-3.52478
1.7765	-3.7262
1.777	-1.91345
1.7775	-5.23682
1.778	-0.70496
1.7785	-3.8269
1.779	-6.04248
1.7795	-5.43823
1.78	-5.0354
1.7805	-4.73328
1.781	-5.63965
1.7815	-10.0708
1.782	-4.63257
1.7825	-2.92053
1.783	-1.81274
1.7835	-7.15027
1.784	-15.00549
1.7845	-22.76001
1.785	-31.82373
1.7855	-29.30603
1.786	-19.33594
1.7865	-14.50195
1.787	-11.17859
1.7875	-19.83948
1.788	-23.26355
1.7885	-24.06921
1.789	-27.59399
1.7895	-24.77417
1.79	-26.48621
1.7905	-29.91028
1.791	-27.39258
1.7915	-30.71594
1.792	-31.52161
1.7925	-34.94568
1.793	-40.88745
1.7935	-41.4917
1.794	-52.56958
1.7945	-59.01489
1.795	-64.151
1.7955	-67.37366
1.796	-76.13525
1.7965	-78.14941
1.797	-86.30676
1.7975	-94.2627
1.798	-93.15491
1.7985	-103.22571
1.799	-108.46252
1.7995	-105.94482
1.8	-108.56323
1.8005	-121.75598
1.801	-136.05652
1.8015	-121.85669
1.802	-96.07544
1.8025	-73.31543
1.803	-44.0094
1.8035	-7.45239
1.804	22.15576
1.8045	54.18091
1.805	85.60181
1.8055	107.15332
1.806	108.26111
1.8065	105.54199
1.807	102.21863
1.8075	103.125
1.808	107.75757
1.8085	98.49243
1.809	82.78198
1.8095	70.89844
1.81	65.25879
1.8105	48.54126
1.811	45.01648
1.8115	37.26196
1.812	32.83081
1.8125	20.54443
1.813	17.32178
1.8135	14.50195
1.814	24.37134
1.8145	22.35718
1.815	29.10461
1.8155	35.85205
1.816	27.89612
1.8165	26.28479
1.817	16.01257
1.8175	9.86938
1.818	7.15027
1.8185	1.91345
1.819	5.0354
1.8195	4.02832
1.82	3.42407
1.8205	-20.94727
1.821	-25.37842
1.8215	-31.72302
1.822	-32.12585
1.8225	-34.24072
1.823	-30.71594
1.8235	-25.98267
1.824	-14.70337
1.8245	-6.14319
1.825	-8.56018
1.8255	-0.50354
1.826	11.38
1.8265	20.84656
1.827	36.75842
1.8275	44.11011
1.828	47.03064
1.8285	50.15259
1.829	53.67737
1.8295	55.59082
1.83	47.53418
1.8305	35.2478
1.831	42.19666
1.8315	34.94568
1.832	32.32727
1.8325	27.39258
1.833	19.03381
1.8335	19.03381
1.834	17.22107
1.8345	24.67346
1.835	18.53027
1.8355	20.64514
1.836	20.84656
1.8365	17.01965
1.837	12.5885
1.8375	1.81274
1.838	-15.71045
1.8385	-55.69153
1.839	-96.57898
1.8395	-114.90784
1.84	-125.68359
1.8405	-137.26501
1.841	-143.20679
1.8415	-141.49475
1.842	-139.5813
1.8425	-145.42236
1.843	-141.09192
1.8435	-125.7843
1.844	-113.59863
1.8445	-107.65686
1.845	-90.5365
1.8455	-75.63171
1.846	-59.01489
1.8465	-42.19666
1.847	-22.35718
1.8475	-1.91345
1.848	25.177
1.8485	41.99524
1.849	61.93542
1.8495	78.35083
1.85	86.70959
1.8505	86.91101
1.851	85.40039
1.8515	70.09277
1.852	61.6333
1.8525	57.70569
1.853	50.55542
1.8535	46.92993
1.854	36.65771
1.8545	29.50745
1.855	31.4209
1.8555	46.62781
1.856	65.25879
1.8565	65.66162
1.857	75.73242
1.8575	73.01331
1.858	76.13525
1.8585	78.55225
1.859	80.96924
1.8595	89.73083
1.86	86.50818
1.8605	78.04871
1.861	83.08411
1.8615	87.21313
1.862	92.55066
1.8625	90.43579
1.863	74.92676
1.8635	55.2887
1.864	41.4917
1.8645	33.43506
1.865	29.00391
1.8655	22.25647
1.866	13.19275
1.8665	8.96301
1.867	4.02832
1.8675	5.53894
1.868	-3.42407
1.8685	-6.64673
1.869	-7.45239
1.8695	-13.29346
1.87	-17.52319
1.8705	-15.81116
1.871	-17.82532
1.8715	-21.04797
1.872	-16.21399
1.8725	-22.55859
1.873	-20.94727
1.8735	-23.66638
1.874	-23.56567
1.8745	-25.78125
1.875	-30.81665
1.8755	-32.52869
1.876	-36.85913
1.8765	-48.54126
1.877	-65.56091
1.8775	-89.73083
1.878	-109.97314
1.8785	-113.80005
1.879	-112.89368
1.8795	-108.46252
1.88	-99.19739
1.8805	-94.96765
1.881	-87.91809
1.8815	-72.71118
1.882	-71.7041
1.8825	-55.79224
1.883	-49.24622
1.8835	-44.71436
1.884	-40.68604
1.8845	-32.32727
1.885	-14.30054
1.8855	-3.02124
1.886	5.33752
1.8865	3.42407
1.887	11.07788
1.8875	24.27063
1.888	40.2832
1.8885	67.27295
1.889	87.11243
1.8895	93.0542
1.89	98.49243
1.8905	101.9165
1.891	110.47668
1.8915	100.90942
1.892	94.06128
1.8925	83.78906
1.893	73.51685
1.8935	61.23047
1.894	47.33276
1.8945	44.71436
1.895	34.44214
1.8955	19.83948
1.896	2.92053
1.8965	-25.27771
1.897	-46.02356
1.8975	-52.8717
1.898	-50.05188
1.8985	-37.7655
1.899	-31.72302
1.8995	-27.99683
1.9	-25.177
1.9005	-21.04797
1.901	-23.46497
1.9015	-30.2124
1.902	-42.09595
1.9025	-53.97949
1.903	-65.96375
1.9035	-76.23596
1.904	-84.19189
1.9045	-92.14783
1.905	-97.28394
1.9055	-82.9834
1.906	-57.8064
1.9065	-41.18958
1.907	-27.89612
1.9075	-6.74744
1.908	-2.31628
1.9085	15.30762
1.909	29.30603
1.9095	43.20374
1.91	47.23206
1.9105	48.33984
1.911	52.97241
1.9115	54.18091
1.912	52.36816
1.9125	58.00781
1.913	54.58374
1.9135	51.66321
1.914	47.7356
1.9145	38.16833
1.915	32.42798
1.9155	24.06921
1.916	22.6593
1.9165	15.1062
1.917	17.72461
1.9175	11.48071
1.918	5.53894
1.9185	8.8623
1.919	13.09204
1.9195	17.6239
1.92	24.37134
1.9205	31.21948
1.921	26.68762
1.9215	31.82373
1.922	34.74426
1.9225	32.93152
1.923	28.39966
1.9235	26.98975
1.924	20.1416
1.9245	18.8324
1.925	15.40833
1.9255	12.38708
1.926	3.02124
1.9265	0.40283
1.927	-9.97009
1.9275	-15.50903
1.928	-25.27771
1.9285	-25.78125
1.929	-24.37134
1.9295	-25.98267
1.93	-29.91028
1.9305	-37.96692
1.931	-40.98816
1.9315	-45.41931
1.932	-40.68604
1.9325	-57.30286
1.933	-72.20764
1.9335	-78.55225
1.934	-75.53101
1.9345	-60.4248
1.935	-51.86462
1.9355	-29.30603
1.936	-17.92603
1.9365	-4.73328
1.937	8.45947
1.9375	17.42249
1.938	22.05505
1.9385	20.94727
1.939	23.8678
1.9395	25.57983
1.94	21.75293
1.9405	23.56567
1.941	13.69629
1.9415	14.40125
1.942	16.01257
1.9425	9.97009
1.943	5.74036
1.9435	4.02832
1.944	0
1.9445	-19.63806
1.945	-45.41931
1.9455	-64.65454
1.946	-84.69543
1.9465	-87.41455
1.947	-99.2981
1.9475	-102.82288
1.948	-92.55066
1.9485	-89.93225
1.949	-80.66711
1.9495	-68.88428
1.95	-54.38232
1.9505	-28.80249
1.951	-0.10071
1.9515	27.19116
1.952	58.41064
1.9525	95.26978
1.953	133.03528
1.9535	151.36414
1.954	139.17847
1.9545	122.96448
1.955	106.54907
1.9555	86.50818
1.956	69.79065
1.9565	54.48303
1.957	48.44055
1.9575	38.974
1.958	32.32727
1.9585	34.34143
1.959	36.55701
1.9595	37.96692
1.96	39.88037
1.9605	33.83789
1.961	24.27063
1.9615	7.04956
1.962	-0.10071
1.9625	-6.74744
1.963	-9.06372
1.9635	-1.2085
1.964	1.61133
1.9645	8.25806
1.965	6.04248
1.9655	15.20691
1.966	21.3501
1.9665	25.177
1.967	29.40674
1.9675	35.2478
1.968	34.64355
1.9685	32.62939
1.969	19.73877
1.9695	13.69629
1.97	2.5177
1.9705	6.04248
1.971	7.04956
1.9715	2.92053
1.972	11.07788
1.9725	-3.32336
1.973	-8.05664
1.9735	-21.45081
1.974	-45.52002
1.9745	-50.95825
1.975	-49.24622
1.9755	-52.46887
1.976	-62.8418
1.9765	-72.10693
1.977	-74.92676
1.9775	-88.92517
1.978	-87.91809
1.9785	-80.76782
1.979	-68.68286
1.9795	-71.30127
1.98	-82.58057
1.9805	-108.1604
1.981	-124.17297
1.9815	-122.36023
1.982	-121.25244
1.9825	-116.61987
1.983	-114.00146
1.9835	-109.26819
1.984	-88.72375
1.9845	-79.35791
1.985	-55.08728
1.9855	-40.08179
1.986	-17.92603
1.9865	0.80566
1.987	6.44531
1.9875	14.90479
1.988	25.37842
1.9885	29.70886
1.989	39.98108
1.9895	41.29028
1.99	36.75842
1.9905	31.11877
1.991	26.68762
1.9915	25.68054
1.992	27.99683
1.9925	44.91577
1.993	55.3894
1.9935	68.78357
1.994	87.61597
1.9945	109.57031
1.995	118.13049
1.9955	113.1958
1.996	100.90942
1.9965	97.58606
1.997	93.55774
1.9975	98.89526
1.998	97.98889
1.9985	94.96765
1.999	87.31384
1.9995	69.68994
2	60.72693
2.0005	60.12268
2.001	36.65771
2.0015	10.77576
2.002	-21.3501
2.0025	-35.14709
2.003	-41.39099
2.0035	-45.2179
2.004	-51.86462
2.0045	-52.56958
2.005	-44.11011
2.0055	-30.81665
2.006	-20.34302
2.0065	-6.44531
2.007	5.84106
2.0075	7.5531
2.008	15.91187
2.0085	16.91895
2.009	17.32178
2.0095	11.58142
2.01	6.94885
2.0105	3.92761
2.011	9.36584
2.0115	17.12036
2.012	33.23364
2.0125	43.60657
2.013	46.82922
2.0135	47.93701
2.014	42.29736
2.0145	39.37683
2.015	38.47046
2.0155	38.87329
2.016	39.98108
2.0165	32.02515
2.017	28.09753
2.0175	25.88196
2.018	19.73877
2.0185	17.52319
2.019	22.15576
2.0195	21.75293
2.02	14.09912
2.0205	11.2793
2.021	-0.90637
2.0215	4.33044
2.022	-1.40991
2.0225	-0.60425
2.023	-3.8269
2.0235	-7.75452
2.024	-10.37292
2.0245	-13.89771
2.025	-10.97717
2.0255	-10.77576
2.026	-18.93311
2.0265	-22.35718
2.027	-25.88196
2.0275	-34.03931
2.028	-45.11719
2.0285	-42.19666
2.029	-43.00232
2.0295	-41.69312
2.03	-48.44055
2.0305	-45.62073
2.031	-41.39099
2.0315	-39.88037
2.032	-41.29028
2.0325	-53.27454
2.033	-54.28162
2.0335	-57.40356
2.034	-59.31702
2.0345	-51.05896
2.035	-46.62781
2.0355	-38.16833
2.036	-38.77258
2.0365	-27.89612
2.037	-22.76001
2.0375	-9.16443
2.038	1.40991
2.0385	1.91345
2.039	-8.35876
2.0395	-14.50195
2.04	-15.20691
2.0405	-10.87646
2.041	-4.33044
2.0415	-0.20142
2.042	12.89062
2.0425	22.96143
2.043	30.11169
2.0435	37.36267
2.044	42.39807
2.0445	36.35559
2.045	39.27612
2.0455	45.11719
2.046	52.36816
2.0465	56.5979
2.047	55.49011
2.0475	47.13135
2.048	40.1825
2.0485	29.80957
2.049	11.48071
2.0495	-4.22974
2.05	-13.49487
2.0505	-6.94885
2.051	-2.01416
2.0515	-10.87646
2.052	-13.59558
2.0525	-13.09204
2.053	-11.48071
2.0535	-12.08496
2.054	-9.56726
2.0545	-13.99841
2.055	-13.69629
2.0555	-18.73169
2.056	-20.44373
2.0565	-19.63806
2.057	-21.14868
2.0575	-19.03381
2.058	-18.53027
2.0585	-16.3147
2.059	-7.95593
2.0595	-9.36584
2.06	-10.57434
2.0605	-24.57275
2.061	-32.02515
2.0615	-34.94568
2.062	-46.92993
2.0625	-56.39648
2.063	-66.87012
2.0635	-73.31543
2.064	-88.11951
2.0645	-104.93774
2.065	-130.61829
2.0655	-148.04077
2.066	-157.00378
2.0665	-166.36963
2.067	-178.35388
2.0675	-188.32397
2.068	-202.4231
2.0685	-198.89832
2.069	-202.72522
2.0695	-192.65442
2.07	-169.99512
2.0705	-155.49316
2.071	-134.5459
2.0715	-119.54041
2.072	-97.28394
2.0725	-63.84888
2.073	-33.63647
2.0735	-1.3092
2.074	24.97559
2.0745	56.90002
2.075	84.39331
2.0755	112.89368
2.076	123.06519
2.0765	125.18005
2.077	133.74023
2.0775	145.22095
2.078	163.14697
2.0785	159.32007
2.079	151.36414
2.0795	142.80396
2.08	142.19971
2.0805	140.8905
2.081	150.9613
2.0815	165.06042
2.082	164.7583
2.0825	167.17529
2.083	152.77405
2.0835	129.00696
2.084	113.39722
2.0845	91.54358
2.085	69.48853
2.0855	62.53967
2.086	69.1864
2.0865	68.38074
2.087	75.83313
2.0875	83.28552
2.088	83.18481
2.0885	85.70251
2.089	77.04163
2.0895	75.4303
2.09	78.35083
2.0905	68.98499
2.091	50.65613
2.0915	45.01648
2.092	28.80249
2.0925	21.65222
2.093	21.3501
2.0935	9.76868
2.094	-6.3446
2.0945	-21.04797
2.095	-27.39258
2.0955	-37.86621
2.096	-46.02356
2.0965	-54.68445
2.097	-64.95667
2.0975	-74.2218
2.098	-74.92676
2.0985	-75.83313
2.099	-73.11401
2.0995	-64.65454
2.1	-54.48303
2.1005	-44.0094
2.101	-33.83789
2.1015	-26.18408
2.102	-20.64514
2.1025	-20.24231
2.103	-39.67896
2.1035	-44.11011
2.104	-40.98816
2.1045	-26.98975
2.105	-25.177
2.1055	-12.5885
2.106	-0.40283
2.1065	9.86938
2.107	27.29187
2.1075	33.23364
2.108	18.02673
2.1085	6.14319
2.109	-5.0354
2.1095	-3.62549
2.11	4.93469
2.1105	6.74744
2.111	19.83948
2.1115	23.56567
2.112	25.68054
2.1125	24.37134
2.113	22.25647
2.1135	31.72302
2.114	21.55151
2.1145	12.48779
2.115	3.62549
2.1155	4.83398
2.116	7.35168
2.1165	5.63965
2.117	18.32886
2.1175	17.42249
2.118	20.74585
2.1185	19.43665
2.119	14.50195
2.1195	11.2793
2.12	7.85522
2.1205	5.23682
2.121	11.48071
2.1215	10.87646
2.122	11.48071
2.1225	6.74744
2.123	4.12903
2.1235	-0.50354
2.124	-3.52478
2.1245	-3.7262
2.125	-0.60425
2.1255	1.81274
2.126	2.61841
2.1265	-0.80566
2.127	-2.31628
2.1275	-0.70496
2.128	-4.33044
2.1285	-6.84814
2.129	-4.53186
2.1295	-5.74036
2.13	-4.22974
2.1305	-6.2439
2.131	-4.02832
2.1315	-5.84106
2.132	-11.2793
2.1325	-7.85522
2.133	-12.48779
2.1335	-18.63098
2.134	-17.22107
2.1345	-20.24231
2.135	-20.24231
2.1355	-24.16992
2.136	-27.59399
2.1365	-39.37683
2.137	-41.4917
2.1375	-48.03772
2.138	-46.92993
2.1385	-47.7356
2.139	-44.61365
2.1395	-47.43347
2.14	-48.44055
2.1405	-52.67029
2.141	-51.26038
2.1415	-54.98657
2.142	-58.71277
2.1425	-59.82056
2.143	-64.05029
2.1435	-69.68994
2.144	-79.05579
2.1445	-84.99756
2.145	-92.55066
2.1455	-94.2627
2.146	-98.99597
2.1465	-92.55066
2.147	-76.84021
2.1475	-68.28003
2.148	-55.2887
2.1485	-50.75684
2.149	-35.44922
2.1495	-18.32886
2.15	-4.12903
2.1505	8.7616
2.151	13.49487
2.1515	23.56567
2.152	38.974
2.1525	53.17383
2.153	54.98657
2.1535	47.53418
2.154	36.55701
2.1545	29.10461
2.155	5.13611
2.1555	-16.71753
2.156	-32.32727
2.1565	-33.23364
2.157	-47.03064
2.1575	-61.6333
2.158	-77.54517
2.1585	-80.36499
2.159	-84.39331
2.1595	-80.4657
2.16	-77.64587
2.1605	-61.73401
2.161	-38.26904
2.1615	-34.74426
2.162	-24.97559
2.1625	-22.55859
2.163	-1.51062
2.1635	3.32336
2.164	25.47913
2.1645	36.75842
2.165	41.4917
2.1655	32.62939
2.166	21.55151
2.1665	19.13452
2.167	27.39258
2.1675	36.95984
2.168	46.32568
2.1685	38.974
2.169	30.31311
2.1695	14.50195
2.17	0.50354
2.1705	6.2439
2.171	8.15735
2.1715	12.28638
2.172	15.1062
2.1725	8.35876
2.173	-0.70496
2.1735	-13.49487
2.174	-24.67346
2.1745	-25.177
2.175	-23.96851
2.1755	-22.86072
2.176	-12.48779
2.1765	1.81274
2.177	10.37292
2.1775	11.68213
2.178	10.77576
2.1785	-0.80566
2.179	-13.09204
2.1795	-19.43665
2.18	-37.56409
2.1805	-58.00781
2.181	-60.3241
2.1815	-41.08887
2.182	-20.64514
2.1825	9.26514
2.183	41.69312
2.1835	66.26587
2.184	87.51526
2.1845	93.75916
2.185	107.75757
2.1855	116.41846
2.186	122.25952
2.1865	129.71191
2.187	138.27209
2.1875	153.78113
2.188	151.86768
2.1885	145.62378
2.189	136.15723
2.1895	130.61829
2.19	127.19421
2.1905	120.04395
2.191	119.84253
2.1915	126.9928
2.192	102.21863
2.1925	78.55225
2.193	61.73401
2.1935	53.27454
2.194	52.8717
2.1945	38.36975
2.195	11.38
2.1955	-65.66162
2.196	-107.95898
2.1965	-127.59705
2.197	-141.59546
2.1975	-132.83386
2.198	-105.74341
2.1985	-80.4657
2.199	-70.3949
2.1995	-49.44763
2.2	-31.82373
2.2005	-20.54443
2.201	-21.3501
2.2015	-25.177
2.202	-38.67188
2.2025	-54.48303
2.203	-78.75366
2.2035	-97.48535
2.204	-114.505
2.2045	-109.16748
2.205	-98.89526
2.2055	-81.67419
2.206	-62.64038
2.2065	-55.59082
2.207	-43.20374
2.2075	-40.58533
2.208	-36.65771
2.2085	-26.88904
2.209	-11.68213
2.2095	4.02832
2.21	29.80957
2.2105	38.47046
2.211	62.8418
2.2115	77.74658
2.212	95.37048
2.2125	113.80005
2.213	136.25793
2.2135	144.71741
2.214	148.54431
2.2145	149.55139
2.215	160.83069
2.2155	166.87317
2.216	154.98962
2.2165	134.44519
2.217	110.87952
2.2175	94.66553
2.218	82.17773
2.2185	81.57349
2.219	80.66711
2.2195	81.97632
2.22	62.9425
2.2205	44.41223
2.221	33.83789
2.2215	28.19824
2.222	14.19983
2.2225	4.83398
2.223	-5.84106
2.2235	-15.71045
2.224	-20.64514
2.2245	-39.88037
2.225	-62.74109
2.2255	-96.57898
2.226	-127.39563
2.2265	-135.55298
2.227	-133.3374
2.2275	-129.71191
2.228	-141.69617
2.2285	-156.70166
2.229	-167.07458
2.2295	-164.45618
2.23	-165.46326
2.2305	-167.57812
2.231	-173.31848
2.2315	-174.52698
2.232	-169.49158
2.2325	-180.67017
2.233	-201.41602
2.2335	-205.64575
2.234	-205.64575
2.2345	-205.64575
2.235	-205.64575
2.2355	-205.64575
2.236	-205.64575
2.2365	-205.64575
2.237	-205.64575
2.2375	-205.64575
2.238	-205.64575
2.2385	-205.64575
2.239	-205.64575
2.2395	-205.64575
2.24	-205.64575
2.2405	-205.64575
2.241	-205.64575
2.2415	-205.64575
2.242	-205.64575
2.2425	-205.64575
2.243	-205.64575
2.2435	-205.64575
2.244	19.43665
2.2445	-30.81665
2.245	-86.60889
2.2455	-144.71741
2.246	-176.0376
2.2465	-181.77795
2.247	-183.38928
2.2475	-176.64185
2.248	-149.24927
2.2485	-116.41846
2.249	-80.16357
2.2495	-26.08337
2.25	16.81824
2.2505	69.08569
2.251	109.67102
2.2515	149.14856
2.252	184.8999
2.2525	195.67566
2.253	189.83459
2.2535	191.74805
2.254	189.12964
2.2545	183.89282
2.255	168.68591
2.2555	139.78271
2.256	115.61279
2.2565	88.11951
2.257	70.49561
2.2575	57.70569
2.258	46.82922
2.2585	50.95825
2.259	52.8717
2.2595	56.49719
2.26	52.26746
2.2605	51.36108
2.261	53.27454
2.2615	49.74976
2.262	57.40356
2.2625	64.75525
2.263	71.20056
2.2635	92.44995
2.264	110.37598
2.2645	112.28943
2.265	94.86694
2.2655	78.85437
2.266	65.66162
2.2665	51.96533
2.267	49.44763
2.2675	37.06055
2.268	27.49329
2.2685	18.12744
2.269	4.33044
2.2695	1.00708
2.27	-0.60425
2.2705	-8.8623
2.271	-12.28638
2.2715	-22.76001
2.272	-24.57275
2.2725	-46.62781
2.273	-53.67737
2.2735	-62.43896
2.274	-66.56799
2.2745	-72.61047
2.275	-70.89844
2.2755	-81.47278
2.276	-91.34216
2.2765	-99.90234
2.277	-106.04553
2.2775	-104.53491
2.278	-98.19031
2.2785	-91.8457
2.279	-76.53809
2.2795	-64.25171
2.28	-49.85046
2.2805	-37.36267
2.281	-15.50903
2.2815	1.81274
2.282	-1.2085
2.2825	-14.50195
2.283	-28.19824
2.2835	-50.75684
2.284	-76.63879
2.2845	-100.30518
2.285	-110.6781
2.2855	-117.42554
2.286	-107.05261
2.2865	-105.54199
2.287	-111.58447
2.2875	-111.48376
2.288	-104.23279
2.2885	-74.2218
2.289	-55.69153
2.2895	-35.04639
2.29	-12.89062
2.2905	2.92053
2.291	14.90479
2.2915	36.55701
2.292	69.68994
2.2925	98.79456
2.293	131.02112
2.2935	149.55139
2.294	158.61511
2.2945	158.5144
2.295	142.80396
2.2955	120.95032
2.296	92.44995
2.2965	64.95667
2.297	47.53418
2.2975	31.4209
2.298	28.09753
2.2985	26.98975
2.299	10.67505
2.2995	-3.62549
2.3	-17.42249
2.3005	-12.89062
2.301	-17.92603
2.3015	-11.07788
2.302	-1.61133
2.3025	-7.45239
2.303	-11.98425
2.3035	-19.23523
2.304	-20.04089
2.3045	-19.73877
2.305	-19.23523
2.3055	-19.73877
2.306	-24.57275
2.3065	-34.44214
2.307	-41.39099
2.3075	-41.08887
2.308	-40.1825
2.3085	-27.39258
2.309	-11.98425
2.3095	4.12903
2.31	21.65222
2.3105	32.93152
2.311	68.58215
2.3115	94.66553
2.312	112.08801
2.3125	117.72766
2.313	131.62537
2.3135	140.68909
2.314	125.58289
2.3145	103.82996
2.315	75.02747
2.3155	54.48303
2.316	42.19666
2.3165	33.23364
2.317	20.74585
2.3175	18.8324
2.318	12.78992
2.3185	4.43115
2.319	-6.44531
2.3195	-5.94177
2.32	2.61841
2.3205	1.91345
2.321	-42.90161
2.3215	-75.63171
2.322	-97.88818
2.3225	-136.76147
2.323	-164.25476
2.3235	-146.63086
2.324	-121.55457
2.3245	-81.06995
2.325	-52.26746
2.3255	-26.68762
2.326	-20.64514
2.3265	-35.95276
2.327	-36.75842
2.3275	-31.72302
2.328	-23.76709
2.3285	-24.06921
2.329	-28.9032
2.3295	-28.29895
2.33	-31.01807
2.3305	-45.72144
2.331	-73.21472
2.3315	-101.01013
2.332	-114.70642
2.3325	-135.55298
2.333	-159.7229
2.3335	-171.20361
2.334	-191.24451
2.3345	-192.453
2.335	-191.64734
2.3355	-185.00061
2.336	-161.23352
2.3365	-149.85352
2.337	-121.25244
2.3375	-103.93066
2.338	-81.06995
2.3385	-48.44055
2.339	-10.0708
2.3395	26.08337
2.34	63.64746
2.3405	88.62305
2.341	105.6427
2.3415	126.08643
2.342	137.36572
2.3425	157.91016
2.343	177.85034
2.3435	191.94946
2.344	186.71265
2.3445	181.27441
2.345	163.5498
2.3455	144.71741
2.346	140.68909
2.3465	128.50342
2.347	123.2666
2.3475	129.10767
2.348	131.82678
2.3485	127.69775
2.349	126.48926
2.3495	122.36023
2.35	112.08801
2.3505	95.06836
2.351	70.79773
2.3515	33.63647
2.352	6.64673
2.3525	-44.91577
2.353	-78.65295
2.3535	-108.46252
2.354	-108.1604
2.3545	-109.16748
2.355	-106.8512
2.3555	-111.8866
2.356	-116.11633
2.3565	-109.87244
2.357	-105.6427
2.3575	-92.55066
2.358	-82.88269
2.3585	-86.8103
2.359	-112.39014
2.3595	-125.98572
2.36	-134.24377
2.3605	-120.84961
2.361	-134.5459
2.3615	-177.95105
2.362	-209.47266
2.3625	-226.08948
2.363	-218.73779
2.3635	-177.44751
2.364	-123.56873
2.3645	-70.99915
2.365	-22.55859
2.3655	5.74036
2.366	23.56567
2.3665	43.80798
2.367	56.09436
2.3675	76.03455
2.368	92.65137
2.3685	95.47119
2.369	90.83862
2.3695	97.88818
2.37	88.42163
2.3705	65.46021
2.371	43.20374
2.3715	44.61365
2.372	35.65063
2.3725	26.58691
2.373	17.6239
2.3735	15.91187
2.374	15.20691
2.3745	13.797
2.375	4.43115
2.3755	-5.33752
2.376	-16.91895
2.3765	-17.72461
2.377	-12.89062
2.3775	8.8623
2.378	45.01648
2.3785	77.34375
2.379	109.16748
2.3795	150.75989
2.38	185.10132
2.3805	196.48132
2.381	202.02026
2.3815	202.22168
2.382	218.93921
2.3825	210.78186
2.383	194.76929
2.3835	176.13831
2.384	164.45618
2.3845	137.0636
2.385	112.49084
2.3855	80.86853
2.386	55.99365
2.3865	35.75134
2.387	23.8678
2.3875	12.28638
2.388	-1.00708
2.3885	-1.51062
2.389	-8.66089
2.3895	-8.25806
2.39	-7.04956
2.3905	-8.15735
2.391	-19.33594
2.3915	-23.56567
2.392	-17.22107
2.3925	-26.48621
2.393	-38.47046
2.3935	-51.86462
2.394	-53.67737
2.3945	-61.6333
2.395	-54.58374
2.3955	-54.58374
2.396	-58.81348
2.3965	-93.75916
2.397	-126.89209
2.3975	-166.87317
2.398	-210.68115
2.3985	-231.22559
2.399	-266.47339
2.3995	-314.51111
2.4	-365.06653
2.4005	-400.61646
2.401	-403.53699
2.4015	-396.58813
2.402	-364.86511
2.4025	-312.29553
2.403	-247.03674
2.4035	-180.67017
2.404	-171.90857
2.4045	-167.57812
2.405	-130.21545
2.4055	-51.46179
2.406	49.54834
2.4065	139.68201
2.407	218.73779
2.4075	272.11304
2.408	239.08081
2.4085	217.93213
2.409	201.91956
2.4095	200.61035
2.41	154.18396
2.4105	108.66394
2.411	88.32092
2.4115	82.17773
2.412	66.06445
2.4125	50.45471
2.413	35.04639
2.4135	16.41541
2.414	-0.50354
2.4145	-66.06445
2.415	-184.69849
2.4155	-257.71179
2.416	-254.69055
2.4165	-188.22327
2.417	-111.08093
2.4175	-39.27612
2.418	14.30054
2.4185	53.77808
2.419	94.66553
2.4195	129.20837
2.42	168.78662
2.4205	200.20752
2.421	225.78735
2.4215	248.14453
2.422	257.10754
2.4225	239.38293
2.423	228.30505
2.4235	220.047
2.424	210.0769
2.4245	201.91956
2.425	183.79211
2.4255	151.86768
2.426	138.17139
2.4265	134.14307
2.427	147.94006
2.4275	139.98413
2.428	107.95898
2.4285	40.1825
2.429	-10.27222
2.4295	-34.94568
2.43	-60.3241
2.4305	-98.99597
2.431	-149.04785
2.4315	-173.41919
2.432	-176.54114
2.4325	-173.41919
2.433	-149.04785
2.4335	-111.68518
2.434	-75.12817
2.4345	-30.2124
2.435	26.58691
2.4355	62.43896
2.436	103.32642
2.4365	147.03369
2.437	178.65601
2.4375	201.81885
2.438	214.20593
2.4385	223.97461
2.439	231.62842
2.4395	218.23425
2.44	184.19495
2.4405	162.64343
2.441	154.48608
2.4415	136.25793
2.442	111.48376
2.4425	89.73083
2.443	82.17773
2.4435	85.09827
2.444	87.41455
2.4445	79.96216
2.445	65.05737
2.4455	52.36816
2.446	46.32568
2.4465	36.95984
2.447	38.16833
2.4475	29.30603
2.448	18.73169
2.4485	-6.64673
2.449	-57.30286
2.4495	-111.8866
2.45	-135.65369
2.4505	-127.09351
2.451	-155.59387
2.4515	-186.91406
2.452	-196.78345
2.4525	-199.09973
2.453	-167.47742
2.4535	-131.92749
2.454	-96.37756
2.4545	-64.45312
2.455	-31.72302
2.4555	-13.09204
2.456	1.51062
2.4565	8.45947
2.457	12.28638
2.4575	33.9386
2.458	29.40674
2.4585	-108.1604
2.459	-249.65515
2.4595	-323.47412
2.46	-316.9281
2.4605	-263.65356
2.461	-192.453
2.4615	-187.92114
2.462	-163.75122
2.4625	-102.31934
2.463	-21.3501
2.4635	57.30286
2.464	106.44836
2.4645	112.59155
2.465	99.49951
2.4655	66.16516
2.466	63.24463
2.4665	70.19348
2.467	10.87646
2.4675	-44.51294
2.468	-96.57898
2.4685	-176.94397
2.469	-233.84399
2.4695	-217.93213
2.47	-174.12415
2.4705	-128.10059
2.471	-75.63171
2.4715	-46.12427
2.472	-29.40674
2.4725	-31.01807
2.473	5.74036
2.4735	42.90161
2.474	95.26978
2.4745	161.33423
2.475	225.88806
2.4755	273.82507
2.476	308.67004
2.4765	306.15234
2.477	280.77393
2.4775	246.02966
2.478	223.57178
2.4785	137.56714
2.479	80.4657
2.4795	22.25647
2.48	-5.74036
2.4805	-9.97009
2.481	-62.43896
2.4815	-90.73792
2.482	-89.22729
2.4825	-62.53967
2.483	-7.95593
2.4835	46.5271
2.484	101.31226
2.4845	163.24768
2.485	229.71497
2.4855	267.17834
2.486	294.87305
2.4865	325.6897
2.487	338.17749
2.4875	324.78333
2.488	321.76208
2.4885	308.67004
2.489	250.46082
2.4895	176.0376
2.49	98.39172
2.4905	27.29187
2.491	-30.61523
2.4915	-49.14551
2.492	-48.03772
2.4925	-35.85205
2.493	-30.91736
2.4935	-11.78284
2.494	-17.01965
2.4945	-2.5177
2.495	25.07629
2.4955	17.92603
2.496	30.2124
2.4965	56.79932
2.497	23.16284
2.4975	3.22266
2.498	20.1416
2.4985	52.97241
2.499	62.64038
2.4995	63.24463
2.5	45.11719
2.5005	1.51062
2.501	-7.95593
2.5015	-5.74036
2.502	-17.72461
2.5025	-68.88428
2.503	-106.9519
2.5035	-150.65918
2.504	-173.21777
2.5045	-145.42236
2.505	-70.49561
2.5055	-4.33044
2.506	-20.04089
2.5065	-56.19507
2.507	-112.18872
2.5075	-132.12891
2.508	-111.8866
2.5085	-90.43579
2.509	-70.79773
2.5095	-63.34534
2.51	-32.22656
2.5105	39.07471
2.511	81.7749
2.5115	121.75598
2.512	67.57507
2.5125	-69.08569
2.513	-137.66785
2.5135	-157.30591
2.514	-145.9259
2.5145	-107.25403
2.515	-26.68762
2.5155	37.16125
2.516	41.08887
2.5165	4.22974
2.517	-72.20764
2.5175	-274.32861
2.518	-501.02234
2.5185	-683.50525
2.519	-850.78125
2.5195	-908.78906
2.52	-831.54602
2.5205	-694.38171
2.521	-501.32446
2.5215	-312.89978
2.522	-168.08167
2.5225	-36.35559
2.523	90.13367
2.5235	221.96045
2.524	348.349
2.5245	465.17029
2.525	546.84448
2.5255	625.79956
2.526	596.39282
2.5265	566.28113
2.527	536.47156
2.5275	478.16162
2.528	428.8147
2.5285	419.44885
2.529	425.39062
2.5295	444.82727
2.53	454.49524
2.5305	452.6825
2.531	418.64319
2.5315	369.59839
2.532	332.23572
2.5325	316.62598
2.533	290.74402
2.5335	264.35852
2.534	231.427
2.5345	199.50256
2.535	171.0022
2.5355	155.39246
2.536	148.24219
2.5365	163.75122
2.537	200.91248
2.5375	223.26965
2.538	208.7677
2.5385	179.66309
2.539	145.52307
2.5395	126.89209
2.54	111.8866
2.5405	89.328
2.541	59.82056
2.5415	34.44214
2.542	7.75452
2.5425	-9.26514
2.543	-15.60974
2.5435	-25.47913
2.544	-35.14709
2.5445	-38.57117
2.545	-36.85913
2.5455	-44.21082
2.546	-48.64197
2.5465	-52.16675
2.547	-57.9071
2.5475	-61.02905
2.548	-68.78357
2.5485	-70.3949
2.549	-68.38074
2.5495	-61.43188
2.55	-64.45312
2.5505	-57.20215
2.551	-53.57666
2.5515	-41.69312
2.552	-38.57117
2.5525	-40.58533
2.553	-45.62073
2.5535	-49.34692
2.554	-37.26196
2.5545	-35.65063
2.555	-47.43347
2.5555	-68.88428
2.556	-79.76074
2.5565	-108.36182
2.557	-144.6167
2.5575	-178.85742
2.558	-184.69849
2.5585	-162.64343
2.559	-131.32324
2.5595	-167.98096
2.56	-279.36401
2.5605	-372.72034
2.561	-437.97913
2.5615	-467.18445
2.562	-456.5094
2.5625	-428.31116
2.563	-403.43628
2.5635	-363.25378
2.564	-338.78174
2.5645	-349.15466
2.565	-383.49609
2.5655	-532.64465
2.566	-695.38879
2.5665	-805.86548
2.567	-824.49646
2.5675	-806.1676
2.568	-725.39978
2.5685	-612.00256
2.569	-488.73596
2.5695	-358.21838
2.57	-205.74646
2.5705	-80.36499
2.571	36.95984
2.5715	175.13123
2.572	294.16809
2.5725	392.45911
2.573	460.03418
2.5735	491.45508
2.574	502.83508
2.5745	545.33386
2.575	560.23865
2.5755	544.22607
2.576	534.75952
2.5765	504.64783
2.577	456.30798
2.5775	411.59363
2.578	338.78174
2.5785	284.60083
2.579	229.31213
2.5795	179.15955
2.58	142.50183
2.5805	97.98889
2.581	19.33594
2.5815	-29.60815
2.582	-47.93701
2.5825	-47.93701
2.583	-38.77258
2.5835	2.81982
2.584	54.58374
2.5845	116.21704
2.585	168.98804
2.5855	199.20044
2.586	177.74963
2.5865	143.60962
2.587	120.14465
2.5875	114.80713
2.588	106.04553
2.5885	76.23596
2.589	48.84338
2.5895	46.72852
2.59	57.8064
2.5905	78.95508
2.591	93.55774
2.5915	94.86694
2.592	116.31775
2.5925	134.14307
2.593	126.89209
2.5935	-30.81665
2.594	-212.4939
2.5945	-323.172
2.595	-345.22705
2.5955	-343.11218
2.596	-341.60156
2.5965	-352.27661
2.597	-363.85803
2.5975	-377.15149
2.598	-347.24121
2.5985	-256.90613
2.599	-145.62378
2.5995	-25.37842
2.6	76.53809
2.6005	155.29175
2.601	235.95886
2.6015	299.00208
2.602	348.44971
2.6025	353.88794
2.603	305.24597
2.6035	267.07764
2.604	273.72437
2.6045	275.4364
2.605	277.65198
2.6055	229.11072
2.606	185.70557
2.6065	132.43103
2.607	72.61047
2.6075	10.77576
2.608	-64.85596
2.6085	-151.86768
2.609	-239.38293
2.6095	-337.0697
2.61	-401.12
2.6105	-417.73682
2.611	-383.99963
2.6115	-351.57166
2.612	-452.6825
2.6125	-573.33069
2.613	-658.42896
2.6135	-668.09692
2.614	-656.5155
2.6145	-664.67285
2.615	-642.31567
2.6155	-601.62964
2.616	-516.43066
2.6165	-422.26868
2.617	-294.47021
2.6175	-160.9314
2.618	-32.93152
2.6185	61.33118
2.619	119.23828
2.6195	199.70398
2.62	291.95251
2.6205	325.6897
2.621	326.09253
2.6215	331.83289
2.622	319.24438
2.6225	300.21057
2.623	296.08154
2.6235	283.89587
2.624	200.81177
2.6245	120.24536
2.625	69.28711
2.6255	24.77417
2.626	13.39417
2.6265	16.91895
2.627	38.16833
2.6275	81.57349
2.628	135.04944
2.6285	160.83069
2.629	172.51282
2.6295	191.44592
2.63	177.85034
2.6305	178.15247
2.631	190.03601
2.6315	222.66541
2.632	253.9856
2.6325	250.96436
2.633	190.33813
2.6335	99.70093
2.634	77.14233
2.6345	124.37439
2.635	224.78027
2.6355	302.92969
2.636	375.84229
2.6365	439.48975
2.637	468.09082
2.6375	465.17029
2.638	457.51648
2.6385	425.28992
2.639	390.24353
2.6395	344.92493
2.64	305.74951
2.6405	285.70862
2.641	254.18701
2.6415	216.62292
2.642	184.79919
2.6425	163.4491
2.643	126.28784
2.6435	97.68677
2.644	53.57666
2.6445	16.81824
2.645	-51.5625
2.6455	-105.34058
2.646	-128.40271
2.6465	-143.20679
2.647	-167.276
2.6475	-243.10913
2.648	-344.32068
2.6485	-401.92566
2.649	-379.97131
2.6495	-396.08459
2.65	-539.19067
2.6505	-682.59888
2.651	-760.44617
2.6515	-746.44775
2.652	-691.15906
2.6525	-628.92151
2.653	-750.87891
2.6535	-982.50732
2.654	-1055.31921
2.6545	-1056.62842
2.655	-941.61987
2.6555	-792.2699
2.656	-616.73584
2.6565	-446.84143
2.657	-313.90686
2.6575	-126.9928
2.658	70.89844
2.6585	276.44348
2.659	475.74463
2.6595	549.86572
2.66	533.04749
2.6605	495.58411
2.661	411.99646
2.6615	346.93909
2.662	365.06653
2.6625	406.86035
2.663	465.57312
2.6635	542.11121
2.664	571.92078
2.6645	492.56287
2.665	400.81787
2.6655	261.13586
2.666	128.50342
2.6665	73.01331
2.667	80.96924
2.6675	112.39014
2.668	130.01404
2.6685	44.41223
2.669	-48.54126
2.6695	-75.73242
2.67	-56.39648
2.6705	-25.177
2.671	-24.47205
2.6715	-40.48462
2.672	-37.06055
2.6725	-8.8623
2.673	36.05347
2.6735	38.16833
2.674	48.74268
2.6745	116.72058
2.675	224.37744
2.6755	349.85962
2.676	444.62585
2.6765	470.80994
2.677	479.87366
2.6775	490.64941
2.678	481.08215
2.6785	448.45276
2.679	419.65027
2.6795	393.06335
2.68	329.71802
2.6805	218.63708
2.681	41.69312
2.6815	-150.25635
2.682	-287.52136
2.6825	-345.22705
2.683	-336.06262
2.6835	-319.54651
2.684	-290.13977
2.6845	-251.77002
2.685	-204.73938
2.6855	-141.39404
2.686	-75.73242
2.6865	-38.06763
2.687	-36.55701
2.6875	-62.03613
2.688	-91.14075
2.6885	-102.01721
2.689	-78.55225
2.6895	-23.96851
2.69	38.77258
2.6905	58.61206
2.691	20.64514
2.6915	-17.22107
2.692	-57.8064
2.6925	-66.16516
2.693	-38.26904
2.6935	17.52319
2.694	60.4248
2.6945	80.36499
2.695	84.89685
2.6955	65.76233
2.696	34.14001
2.6965	2.81982
2.697	16.71753
2.6975	4.53186
2.698	1.00708
2.6985	-1.61133
2.699	2.21558
2.6995	18.53027
2.7	-3.92761
2.7005	-55.79224
2.701	-192.05017
2.7015	-368.38989
2.702	-468.39294
2.7025	-513.20801
2.703	-523.1781
2.7035	-516.73279
2.704	-549.96643
2.7045	-711.30066
2.705	-884.61914
2.7055	-929.83704
2.706	-846.75293
2.7065	-746.95129
2.707	-603.44238
2.7075	-461.84692
2.708	-357.1106
2.7085	-455.60303
2.709	-614.82239
2.7095	-633.65479
2.71	-531.43616
2.7105	-353.18298
2.711	-121.75598
2.7115	91.54358
2.712	262.64648
2.7125	455.90515
2.713	617.64221
2.7135	722.37854
2.714	791.16211
2.7145	778.77502
2.715	667.08984
2.7155	550.67139
2.716	557.92236
2.7165	602.83813
2.717	609.8877
2.7175	522.97668
2.718	451.77612
2.7185	391.25061
2.719	201.31531
2.7195	38.06763
2.72	-44.81506
2.7205	-47.03064
2.721	-10.47363
2.7215	27.09045
2.722	78.95508
2.7225	123.36731
2.723	150.35706
2.7235	209.27124
2.724	261.94153
2.7245	323.07129
2.725	355.9021
2.7255	363.05237
2.726	371.81396
2.7265	377.55432
2.727	342.20581
2.7275	333.84705
2.728	376.74866
2.7285	438.48267
2.729	470.70923
2.7295	460.73914
2.73	395.98389
2.7305	298.59924
2.731	242.60559
2.7315	207.15637
2.732	118.33191
2.7325	-148.84644
2.733	-487.9303
2.7335	-861.75842
2.734	-1088.35144
2.7345	-1076.5686
2.735	-891.46729
2.7355	-675.65002
2.736	-486.82251
2.7365	-275.83923
2.737	-80.96924
2.7375	78.04871
2.738	160.72998
2.7385	255.59692
2.739	369.39697
2.7395	404.54407
2.74	466.47949
2.7405	533.14819
2.741	545.63599
2.7415	502.53296
2.742	411.59363
2.7425	307.96509
2.743	250.36011
2.7435	186.81335
2.744	7.45239
2.7445	-268.18542
2.745	-516.9342
2.7455	-648.66028
2.746	-677.76489
2.7465	-656.5155
2.747	-626.90735
2.7475	-567.38892
2.748	-449.35913
2.7485	-312.39624
2.749	-186.61194
2.7495	-96.17615
2.75	-59.71985
2.7505	12.5885
2.751	99.2981
2.7515	186.51123
2.752	203.43018
2.7525	131.22253
2.753	-27.89612
2.7535	-138.27209
2.754	-171.10291
2.7545	-192.25159
2.755	-257.30896
2.7555	-280.97534
2.756	-250.46082
2.7565	-266.17126
2.757	-273.52295
2.7575	-251.97144
2.758	-168.28308
2.7585	-87.11243
2.759	-14.09912
2.7595	97.08252
2.76	244.31763
2.7605	378.46069
2.761	399.81079
2.7615	364.05945
2.762	332.13501
2.7625	304.64172
2.763	250.86365
2.7635	149.95422
2.764	44.81506
2.7645	-64.25171
2.765	-187.4176
2.7655	-226.89514
2.766	-135.8551
2.7665	-13.19275
2.767	86.60889
2.7675	151.46484
2.768	182.88574
2.7685	239.88647
2.769	303.33252
2.7695	351.26953
2.77	381.28052
2.7705	361.74316
2.771	247.84241
2.7715	128.80554
2.772	20.74585
2.7725	-50.55542
2.773	-102.01721
2.7735	-167.77954
2.774	-242.40417
2.7745	-312.09412
2.775	-345.52917
2.7755	-331.22864
2.776	-342.20581
2.7765	-357.91626
2.777	-353.48511
2.7775	-347.74475
2.778	-311.8927
2.7785	-232.03125
2.779	-152.06909
2.7795	-115.00854
2.78	-104.83704
2.7805	-38.47046
2.781	31.4209
2.7815	88.62305
2.782	139.78271
2.7825	153.479
2.783	152.77405
2.7835	182.98645
2.784	202.62451
2.7845	201.91956
2.785	223.16895
2.7855	253.17993
2.786	305.24597
2.7865	366.57715
2.787	404.44336
2.7875	417.5354
2.788	405.34973
2.7885	401.62354
2.789	400.11292
2.7895	394.97681
2.79	386.1145
2.7905	365.87219
2.791	375.03662
2.7915	395.27893
2.792	407.16248
2.7925	384.30176
2.793	326.39465
2.7935	278.55835
2.794	254.99268
2.7945	227.49939
2.795	161.53564
2.7955	72.81189
2.796	-51.26038
2.7965	-271.30737
2.797	-552.98767
2.7975	-783.81042
2.798	-857.12585
2.7985	-799.823
2.799	-725.6012
2.7995	-629.52576
2.8	-584.30786
2.8005	-576.0498
2.801	-509.58252
2.8015	-438.48267
2.802	-442.7124
2.8025	-637.78381
2.803	-889.05029
2.8035	-919.06128
2.804	-815.83557
2.8045	-618.44788
2.805	-470.91064
2.8055	-362.64954
2.806	-200.50964
2.8065	7.65381
2.807	108.36182
2.8075	168.68591
2.808	243.71338
2.8085	259.42383
2.809	257.91321
2.8095	278.35693
2.81	312.39624
2.8105	250.05798
2.811	129.10767
2.8115	33.23364
2.812	-16.01257
2.8125	-27.39258
2.813	17.82532
2.8135	117.62695
2.814	258.92029
2.8145	392.55981
2.815	500.11597
2.8155	566.38184
2.816	652.28577
2.8165	710.19287
2.817	758.12988
2.8175	779.7821
2.818	772.93396
2.8185	702.53906
2.819	647.85461
2.8195	539.69421
2.82	439.48975
2.8205	275.4364
2.821	108.05969
2.8215	-12.08496
2.822	-48.54126
2.8225	-49.95117
2.823	-46.92993
2.8235	-29.40674
2.824	-25.27771
2.8245	-18.73169
2.825	-5.0354
2.8255	13.49487
2.826	55.18799
2.8265	78.65295
2.827	83.18481
2.8275	77.84729
2.828	80.16357
2.8285	78.25012
2.829	45.11719
2.8295	27.39258
2.83	14.60266
2.8305	0.60425
2.831	17.72461
2.8315	36.85913
2.832	13.39417
2.8325	1.2085
2.833	8.56018
2.8335	21.24939
2.834	29.00391
2.8345	27.09045
2.835	-1.71204
2.8355	-44.11011
2.836	-46.82922
2.8365	-48.44055
2.837	-46.5271
2.8375	-51.76392
2.838	-50.45471
2.8385	-36.75842
2.839	-66.06445
2.8395	-150.75989
2.84	-249.0509
2.8405	-321.76208
2.841	-398.19946
2.8415	-420.45593
2.842	-391.95557
2.8425	-394.97681
2.843	-426.49841
2.8435	-459.93347
2.844	-488.93738
2.8445	-496.38977
2.845	-503.13721
2.8455	-503.74146
2.846	-491.85791
2.8465	-450.76904
2.847	-404.84619
2.8475	-368.38989
2.848	-345.52917
2.8485	-321.9635
2.849	-252.47498
2.8495	-126.18713
2.85	-36.25488
2.8505	23.76709
2.851	85.29968
2.8515	153.57971
2.852	254.69055
2.8525	335.7605
2.853	383.09326
2.8535	407.4646
2.854	415.62195
2.8545	441.10107
2.855	450.97046
2.8555	426.19629
2.856	354.19006
2.8565	261.6394
2.857	179.36096
2.8575	113.80005
2.858	58.10852
2.8585	61.83472
2.859	60.12268
2.8595	81.47278
2.86	88.72375
2.8605	96.27686
2.861	98.99597
2.8615	109.67102
2.862	130.61829
2.8625	149.34998
2.863	145.42236
2.8635	46.22498
2.864	-95.06836
2.8645	-290.84473
2.865	-402.02637
2.8655	-448.25134
2.866	-425.0885
2.8665	-335.55908
2.867	-223.16895
2.8675	-90.13367
2.868	32.12585
2.8685	128.90625
2.869	145.01953
2.8695	128.302
2.87	74.52393
2.8705	23.16284
2.871	-41.29028
2.8715	-43.70728
2.872	-24.27063
2.8725	-26.98975
2.873	-61.33118
2.8735	-57.30286
2.874	-38.26904
2.8745	-6.04248
2.875	33.23364
2.8755	40.2832
2.876	81.97632
2.8765	137.46643
2.877	216.92505
2.8775	272.71729
2.878	297.39075
2.8785	307.36084
2.879	270.401
2.8795	242.40417
2.88	225.58594
2.8805	209.67407
2.881	155.29175
2.8815	47.13135
2.882	-35.44922
2.8825	-86.10535
2.883	-130.21545
2.8835	-142.70325
2.884	-154.6875
2.8845	-179.56238
2.885	-158.31299
2.8855	-164.25476
2.886	-193.25867
2.8865	-227.09656
2.887	-217.02576
2.8875	-187.92114
2.888	-168.78662
2.8885	-207.96204
2.889	-325.79041
2.8895	-536.67297
2.89	-711.60278
2.8905	-854.70886
2.891	-1042.12646
2.8915	-1126.8219
2.892	-1085.93445
2.8925	-957.93457
2.893	-764.77661
2.8935	-517.03491
2.894	-304.94385
2.8945	-133.23669
2.895	60.02197
2.8955	274.53003
2.896	443.61877
2.8965	569.50378
2.897	641.20789
2.8975	683.70667
2.898	743.93005
2.8985	798.21167
2.899	778.07007
2.8995	692.46826
2.9	613.21106
2.9005	609.8877
2.901	610.89478
2.9015	607.4707
2.902	666.88843
2.9025	704.15039
2.903	688.54065
2.9035	601.62964
2.904	441.70532
2.9045	288.32703
2.905	171.30432
2.9055	93.85986
2.906	33.53577
2.9065	-2.11487
2.907	-29.00391
2.9075	-36.65771
2.908	-2.61841
2.9085	46.82922
2.909	84.59473
2.9095	108.05969
2.91	97.88818
2.9105	84.19189
2.911	63.04321
2.9115	45.01648
2.912	25.98267
2.9125	-4.83398
2.913	-34.74426
2.9135	-69.68994
2.914	-99.49951
2.9145	-119.64111
2.915	-128.70483
2.9155	-133.23669
2.916	-120.14465
2.9165	-118.63403
2.917	-111.58447
2.9175	-114.00146
2.918	-120.84961
2.9185	-120.04395
2.919	-87.31384
2.9195	-58.00781
2.92	-31.4209
2.9205	-6.14319
2.921	-28.19824
2.9215	-120.44678
2.922	-276.04065
2.9225	-381.28052
2.923	-406.2561
2.9235	-384.10034
2.924	-327.40173
2.9245	-263.95569
2.925	-184.79919
2.9255	-123.46802
2.926	-86.40747
2.9265	-133.94165
2.927	-212.79602
2.9275	-286.7157
2.928	-265.16418
2.9285	-207.15637
2.929	-154.48608
2.9295	-101.41296
2.93	-89.93225
2.9305	-131.82678
2.931	-195.67566
2.9315	-191.84875
2.932	-122.56165
2.9325	-38.77258
2.933	30.01099
2.9335	90.93933
2.934	105.44128
2.9345	87.21313
2.935	71.60339
2.9355	81.97632
2.936	94.86694
2.9365	65.66162
2.937	3.7262
2.9375	-45.82214
2.938	-145.8252
2.9385	-312.89978
2.939	-463.05542
2.9395	-545.93811
2.94	-542.61475
2.9405	-455.60303
2.941	-353.98865
2.9415	-275.03357
2.942	-210.98328
2.9425	-132.12891
2.943	-33.9386
2.9435	10.27222
2.944	54.48303
2.9445	143.3075
2.945	215.81726
2.9455	311.59058
2.946	401.01929
2.9465	446.64001
2.947	449.96338
2.9475	403.6377
2.948	284.39941
2.9485	150.45776
2.949	-156.09741
2.9495	-488.03101
2.95	-671.72241
2.9505	-647.25037
2.951	-519.95544
2.9515	-398.60229
2.952	-252.7771
2.9525	-115.51208
2.953	-12.5885
2.9535	77.24304
2.954	142.40112
2.9545	168.78662
2.955	217.12646
2.9555	254.79126
2.956	274.53003
2.9565	311.69128
2.957	381.17981
2.9575	379.87061
2.958	289.73694
2.9585	209.87549
2.959	141.39404
2.9595	84.2926
2.96	51.66321
2.9605	-16.41541
2.961	-114.30359
2.9615	-230.72205
2.962	-320.25146
2.9625	-332.23572
2.963	-280.57251
2.9635	-176.64185
2.964	-65.66162
2.9645	58.30994
2.965	151.06201
2.9655	257.10754
2.966	348.04688
2.9665	419.95239
2.967	432.84302
2.9675	466.88232
2.968	500.11597
2.9685	468.79578
2.969	386.1145
2.9695	307.46155
2.97	300.81482
2.9705	296.18225
2.971	262.44507
2.9715	175.83618
2.972	91.44287
2.9725	24.57275
2.973	-13.49487
2.9735	-20.54443
2.974	-4.02832
2.9745	9.06372
2.975	27.6947
2.9755	-0.50354
2.976	-22.6593
2.9765	-56.39648
2.977	-74.32251
2.9775	-46.92993
2.978	-43.70728
2.9785	-105.13916
2.979	-255.59692
2.9795	-365.9729
2.98	-358.21838
2.9805	-304.64172
2.981	-249.35303
2.9815	-160.32715
2.982	-71.09985
2.9825	13.89771
2.983	92.44995
2.9835	167.88025
2.984	211.68823
2.9845	227.80151
2.985	233.03833
2.9855	220.44983
2.986	191.54663
2.9865	199.50256
2.987	194.36646
2.9875	142.30042
2.988	55.3894
2.9885	-137.76855
2.989	-422.36938
2.9895	-706.46667
2.99	-895.49561
2.9905	-1113.0249
2.991	-1232.86743
2.9915	-1188.35449
2.992	-1037.89673
2.9925	-928.125
2.993	-782.40051
2.9935	-623.88611
2.994	-411.59363
2.9945	-174.92981
2.995	38.77258
2.9955	199.50256
2.996	334.65271
2.9965	405.65186
2.997	436.56921
2.9975	444.62585
2.998	499.20959
2.9985	619.15283
2.999	754.00085
2.9995	816.43982
3	698.61145
3.0005	529.72412
3.001	467.8894
3.0015	452.58179
3.002	423.07434
3.0025	411.99646
3.003	398.40088
3.0035	345.93201
3.004	298.69995
3.0045	316.02173
3.005	368.4906
3.0055	382.89185
3.006	414.81628
3.0065	478.46375
3.007	498.10181
3.0075	417.43469
3.008	210.47974
3.0085	5.13611
3.009	-222.5647
3.0095	-421.06018
3.01	-516.63208
3.0105	-549.06006
3.011	-534.86023
3.0115	-501.22375
3.012	-453.58887
3.0125	-399.30725
3.013	-335.25696
3.0135	-247.54028
3.014	-168.98804
3.0145	-109.67102
3.015	-55.69153
3.0155	-13.89771
3.016	-31.01807
3.0165	-16.41541
3.017	-97.18323
3.0175	-153.479
3.018	-195.37354
3.0185	-225.88806
3.019	-230.72205
3.0195	-226.79443
3.02	-192.15088
3.0205	-178.75671
3.021	-232.83691
3.0215	-270.30029
3.022	-255.39551
3.0225	-230.1178
3.023	-171.90857
3.0235	-84.19189
3.024	-27.89612
3.0245	-3.42407
3.025	8.05664
3.0255	42.19666
3.026	99.09668
3.0265	142.90466
3.027	211.38611
3.0275	230.01709
3.028	250.2594
3.0285	277.9541
3.029	269.29321
3.0295	243.61267
3.03	220.75195
3.0305	226.69373
3.031	220.34912
3.0315	182.98645
3.032	126.48926
3.0325	105.23987
3.033	91.94641
3.0335	109.77173
3.034	159.52148
3.0345	234.54895
3.035	303.53394
3.0355	365.67078
3.036	404.14124
3.0365	424.98779
3.037	439.48975
3.0375	440.49683
3.038	458.22144
3.0385	478.96729
3.039	453.58887
3.0395	439.48975
3.04	414.91699
3.0405	351.06812
3.041	213.70239
3.0415	68.98499
3.042	-27.6947
3.0425	-64.85596
3.043	-68.98499
3.0435	-70.49561
3.044	-63.04321
3.0445	-26.78833
3.045	-3.42407
3.0455	-40.88745
3.046	-134.64661
3.0465	-306.75659
3.047	-465.57312
3.0475	-607.97424
3.048	-806.67114
3.0485	-1015.64026
3.049	-1251.80054
3.0495	-1433.37708
3.05	-1551.70898
3.0505	-1616.36353
3.051	-1606.69556
3.0515	-1512.23145
3.052	-1325.11597
3.0525	-1101.34277
3.053	-916.64429
3.0535	-747.15271
3.054	-559.13086
3.0545	-333.44421
3.055	-70.99915
3.0555	150.15564
3.056	300.21057
3.0565	348.14758
3.057	367.08069
3.0575	462.854
3.058	595.48645
3.0585	730.03235
3.059	896.30127
3.0595	1000.03052
3.06	1006.67725
3.0605	954.30908
3.061	808.48389
3.0615	589.54468
3.062	370.60547
3.0625	248.04382
3.063	87.01172
3.0635	-141.69617
3.064	-291.44897
3.0645	-373.92883
3.065	-428.10974
3.0655	-358.72192
3.066	-250.56152
3.0665	-195.77637
3.067	-154.48608
3.0675	-2.11487
3.068	196.27991
3.0685	380.07202
3.069	549.5636
3.0695	667.59338
3.07	719.86084
3.0705	660.34241
3.071	507.26624
3.0715	433.44727
3.072	416.62903
3.0725	352.27661
3.073	175.23193
3.0735	-2.41699
3.074	-67.47437
3.0745	-134.94873
3.075	-284.09729
3.0755	-427.80762
3.076	-481.78711
3.0765	-484.50623
3.077	-479.87366
3.0775	-437.97913
3.078	-406.1554
3.0785	-322.76917
3.079	-241.4978
3.0795	-163.34839
3.08	0
3.0805	190.94238
3.081	377.45361
3.0815	528.71704
3.082	636.97815
3.0825	689.44702
3.083	747.15271
3.0835	794.48547
3.084	861.35559
3.0845	898.11401
3.085	911.40747
3.0855	885.02197
3.086	818.05115
3.0865	712.50916
3.087	623.48328
3.0875	574.33777
3.088	537.27722
3.0885	498.50464
3.089	448.04993
3.0895	387.72583
3.09	316.12244
3.0905	237.06665
3.091	171.30432
3.0915	122.56165
3.092	85.19897
3.0925	67.27295
3.093	44.81506
3.0935	37.06055
3.094	5.13611
3.0945	-36.75842
3.095	-70.79773
3.0955	-101.21155
3.096	-126.89209
3.0965	-161.73706
3.097	-220.65125
3.0975	-294.16809
3.098	-387.323
3.0985	-476.34888
3.099	-526.30005
3.0995	-519.14978
3.1	-472.62268
3.1005	-398.30017
3.101	-343.41431
3.1015	-322.56775
3.102	-328.30811
3.1025	-357.71484
3.103	-346.13342
3.1035	-308.26721
3.104	-289.43481
3.1045	-273.82507
3.105	-267.48047
3.1055	-267.98401
3.106	-321.76208
3.1065	-452.27966
3.107	-568.89954
3.1075	-587.93335
3.108	-534.75952
3.1085	-612.80823
3.109	-966.59546
3.1095	-1188.95874
3.11	-1205.87769
3.1105	-1094.69604
3.111	-923.79456
3.1115	-808.38318
3.112	-724.59412
3.1125	-634.86328
3.113	-498.20251
3.1135	-371.10901
3.114	-288.93127
3.1145	-234.24683
3.115	-165.16113
3.1155	-51.05896
3.116	100.00305
3.1165	161.53564
3.117	133.23669
3.1175	136.86218
3.118	196.98486
3.1185	283.89587
3.119	436.87134
3.1195	730.7373
3.12	931.44836
3.1205	931.8512
3.121	770.61768
3.1215	567.38892
3.122	376.14441
3.1225	313.1012
3.123	291.24756
3.1235	302.02332
3.124	286.11145
3.1245	181.17371
3.125	20.64514
3.1255	-25.68054
3.126	17.12036
3.1265	122.76306
3.127	279.66614
3.1275	472.52197
3.128	602.4353
3.1285	667.59338
3.129	644.73267
3.1295	591.55884
3.13	564.26697
3.1305	590.65247
3.131	612.00256
3.1315	574.84131
3.132	487.82959
3.1325	384.70459
3.133	152.1698
3.1335	-74.02039
3.134	-237.77161
3.1345	-335.35767
3.135	-430.92957
3.1355	-495.88623
3.136	-564.46838
3.1365	-637.88452
3.137	-718.85376
3.1375	-742.31873
3.138	-715.5304
3.1385	-657.52258
3.139	-636.57532
3.1395	-622.67761
3.14	-546.24023
3.1405	-443.41736
3.141	-276.6449
3.1415	-73.11401
3.142	112.18872
3.1425	298.69995
3.143	449.66125
3.1435	563.25989
3.144	660.84595
3.1445	734.26208
3.145	809.8938
3.1455	875.75684
3.146	866.99524
3.1465	784.11255
3.147	620.26062
3.1475	526.9043
3.148	475.03967
3.1485	416.52832
3.149	345.73059
3.1495	317.63306
3.15	329.81873
3.1505	348.85254
3.151	321.35925
3.1515	251.5686
3.152	187.82043
3.1525	137.0636
3.153	104.83704
3.1535	95.06836
3.154	103.82996
3.1545	94.86694
3.155	62.43896
3.1555	32.32727
3.156	14.90479
3.1565	-15.40833
3.157	-98.29102
3.1575	-172.61353
3.158	-222.96753
3.1585	-258.61816
3.159	-342.30652
3.1595	-434.15222
3.16	-596.0907
3.1605	-720.76721
3.161	-778.27148
3.1615	-843.42957
3.162	-857.7301
3.1625	-827.41699
3.163	-795.79468
3.1635	-758.83484
3.164	-717.24243
3.1645	-671.11816
3.165	-690.85693
3.1655	-632.34558
3.166	-515.72571
3.1665	-342.40723
3.167	-187.11548
3.1675	-35.54993
3.168	66.97083
3.1685	145.72449
3.169	254.58984
3.1695	319.34509
3.17	331.83289
3.1705	296.28296
3.171	189.12964
3.1715	45.72144
3.172	-35.95276
3.1725	-193.05725
3.173	-530.22766
3.1735	-908.58765
3.174	-1243.54248
3.1745	-1320.98694
3.175	-1244.14673
3.1755	-1042.22717
3.176	-809.69238
3.1765	-551.47705
3.177	-265.86914
3.1775	21.55151
3.178	178.15247
3.1785	259.62524
3.179	410.78796
3.1795	631.64062
3.18	751.28174
3.1805	761.55396
3.181	724.59412
3.1815	686.72791
3.182	628.31726
3.1825	576.55334
3.183	436.97205
3.1835	342.00439
3.184	290.64331
3.1845	324.68262
3.185	383.5968
3.1855	451.77612
3.186	535.06165
3.1865	596.49353
3.187	655.70984
3.1875	724.99695
3.188	755.41077
3.1885	758.23059
3.189	754.00085
3.1895	740.10315
3.19	676.5564
3.1905	641.10718
3.191	619.85779
3.1915	574.23706
3.192	502.73438
3.1925	420.35522
3.193	362.44812
3.1935	357.81555
3.194	398.40088
3.1945	426.90125
3.195	442.41028
3.1955	386.92017
3.196	297.69287
3.1965	207.25708
3.197	129.30908
3.1975	77.34375
3.198	29.20532
3.1985	-25.98267
3.199	-81.17065
3.1995	-167.17529
3.2	-244.61975
3.2005	-325.28687
3.201	-387.92725
3.2015	-419.34814
3.202	-436.06567
3.2025	-457.7179
3.203	-465.57312
3.2035	-461.34338
3.204	-465.67383
3.2045	-435.76355
3.205	-371.31042
3.2055	-296.28296
3.206	-251.66931
3.2065	-225.88806
3.207	-175.83618
3.2075	-72.30835
3.208	50.354
3.2085	157.60803
3.209	189.83459
3.2095	167.98096
3.21	148.94714
3.2105	94.3634
3.211	33.83789
3.2115	21.45081
3.212	29.20532
3.2125	19.53735
3.213	-60.62622
3.2135	-118.63403
3.214	-154.18396
3.2145	-162.13989
3.215	-129.61121
3.2155	-106.64978
3.216	-136.05652
3.2165	-262.34436
3.217	-470.4071
3.2175	-661.14807
3.218	-795.69397
3.2185	-935.77881
3.219	-1059.44824
3.2195	-1117.65747
3.22	-1175.96741
3.2205	-1236.89575
3.221	-1233.7738
3.2215	-1090.16418
3.222	-873.44055
3.2225	-593.97583
3.223	-354.39148
3.2235	-194.46716
3.224	-124.77722
3.2245	-26.08337
3.225	99.3988
3.2255	339.38599
3.226	532.94678
3.2265	603.14026
3.227	603.24097
3.2275	622.87903
3.228	660.74524
3.2285	660.74524
3.229	692.36755
3.2295	669.30542
3.23	602.03247
3.2305	553.79333
3.231	572.62573
3.2315	463.86108
3.232	204.13513
3.2325	42.7002
3.233	-76.94092
3.2335	-282.48596
3.234	-482.79419
3.2345	-541.10413
3.235	-492.56287
3.2355	-421.76514
3.236	-280.57251
3.2365	-109.87244
3.237	-24.27063
3.2375	-154.08325
3.238	-446.4386
3.2385	-730.23376
3.239	-909.49402
3.2395	-930.94482
3.24	-925.30518
3.2405	-893.88428
3.241	-851.18408
3.2415	-708.27942
3.242	-505.65491
3.2425	-326.79749
3.243	-230.62134
3.2435	31.92444
3.244	365.57007
3.2445	709.48792
3.245	1057.33337
3.2455	1192.78564
3.246	1181.30493
3.2465	1223.90442
3.247	1220.27893
3.2475	1149.58191
3.248	1048.37036
3.2485	963.3728
3.249	942.22412
3.2495	1013.82751
3.25	1057.93762
3.2505	1031.95496
3.251	997.00928
3.2515	923.69385
3.252	829.12903
3.2525	752.18811
3.253	682.69958
3.2535	576.45264
3.254	470.10498
3.2545	378.66211
3.255	292.35535
3.2555	217.73071
3.256	163.65051
3.2565	125.68359
3.257	82.68127
3.2575	51.76392
3.258	30.11169
3.2585	-0.20142
3.259	-45.82214
3.2595	-83.68835
3.26	-111.8866
3.2605	-132.43103
3.261	-155.9967
3.2615	-172.3114
3.262	-198.49548
3.2625	-218.23425
3.263	-229.21143
3.2635	-224.37744
3.264	-230.31921
3.2645	-217.93213
3.265	-207.76062
3.2655	-217.22717
3.266	-242.80701
3.2665	-266.77551
3.267	-281.78101
3.2675	-287.92419
3.268	-283.29163
3.2685	-255.2948
3.269	-239.18152
3.2695	-231.02417
3.27	-222.26257
3.2705	-202.02026
3.271	-163.5498
3.2715	-116.31775
3.272	-92.04712
3.2725	-100.00305
3.273	-112.18872
3.2735	-123.97156
3.274	-107.95898
3.2745	-85.19897
3.275	-68.78357
3.2755	-71.50269
3.276	-83.38623
3.2765	-93.65845
3.277	-121.65527
3.2775	-203.22876
3.278	-332.83997
3.2785	-510.5896
3.279	-679.87976
3.2795	-760.64758
3.28	-766.58936
3.2805	-738.79395
3.281	-696.09375
3.2815	-744.43359
3.282	-909.99756
3.2825	-1113.42773
3.283	-1195.50476
3.2835	-1161.26404
3.284	-1014.63318
3.2845	-810.39734
3.285	-585.71777
3.2855	-446.84143
3.286	-364.86511
3.2865	-260.43091
3.287	-143.50891
3.2875	-43.10303
3.288	66.87012
3.2885	192.55371
3.289	332.0343
3.2895	421.76514
3.29	471.01135
3.2905	493.56995
3.291	503.43933
3.2915	502.43225
3.292	490.14587
3.2925	525.59509
3.293	560.33936
3.2935	596.59424
3.294	627.00806
3.2945	682.49817
3.295	707.47375
3.2955	712.00562
3.296	709.38721
3.2965	669.80896
3.297	627.00806
3.2975	564.56909
3.298	512.70447
3.2985	465.47241
3.299	436.97205
3.2995	415.92407
3.3	374.23096
3.3005	328.30811
3.301	286.61499
3.3015	257.71179
3.302	228.30505
3.3025	199.09973
3.303	174.02344
3.3035	168.38379
3.304	152.37122
3.3045	105.03845
3.305	70.99915
3.3055	51.76392
3.306	28.70178
3.3065	-22.6593
3.307	-70.69702
3.3075	-133.13599
3.308	-182.88574
3.3085	-207.65991
3.309	-205.34363
3.3095	-190.33813
3.31	-206.14929
3.3105	-238.67798
3.311	-285.5072
3.3115	-414.11133
3.312	-608.07495
3.3125	-729.02527
3.313	-753.09448
3.3135	-725.80261
3.314	-799.11804
3.3145	-954.81262
3.315	-1031.75354
3.3155	-1010.60486
3.316	-922.38464
3.3165	-800.83008
3.317	-665.2771
3.3175	-511.19385
3.318	-337.97607
3.3185	-140.18555
3.319	113.29651
3.3195	347.1405
3.32	534.86023
3.3205	645.43762
3.321	681.89392
3.3215	719.15588
3.322	756.82068
3.3225	762.25891
3.323	758.12988
3.3235	742.0166
3.324	668.39905
3.3245	547.75085
3.325	413.30566
3.3255	251.97144
3.326	137.96997
3.3265	73.31543
3.327	25.27771
3.3275	28.60107
3.328	48.94409
3.3285	72.9126
3.329	132.53174
3.3295	169.08875
3.33	170.19653
3.3305	126.79138
3.331	90.5365
3.3315	25.68054
3.332	-37.96692
3.3325	-95.97473
3.333	-101.21155
3.3335	-124.77722
3.334	-173.41919
3.3345	-182.48291
3.335	-229.41284
3.3355	-284.70154
3.336	-268.68896
3.3365	-206.95496
3.337	-198.39478
3.3375	-209.87549
3.338	-226.49231
3.3385	-194.26575
3.339	-153.88184
3.3395	-105.44128
3.34	-61.12976
3.3405	-44.61365
3.341	-44.31152
3.3415	-132.33032
3.342	-216.22009
3.3425	-219.94629
3.343	-164.85901
3.3435	-121.45386
3.344	-49.64905
3.3445	8.25806
3.345	11.98425
3.3455	-3.02124
3.346	34.94568
3.3465	76.63879
3.347	141.69617
3.3475	178.15247
3.348	213.8031
3.3485	220.75195
3.349	168.68591
3.3495	132.63245
3.35	147.63794
3.3505	191.84875
3.351	226.89514
3.3515	240.89355
3.352	229.21143
3.3525	47.33276
3.353	-100.30518
3.3535	-246.83533
3.354	-503.54004
3.3545	-839.80408
3.355	-1121.28296
3.3555	-1287.55188
3.356	-1345.55969
3.3565	-1334.88464
3.357	-1244.65027
3.3575	-1042.12646
3.358	-771.42334
3.3585	-520.25757
3.359	-259.62524
3.3595	-18.22815
3.36	226.29089
3.3605	483.80127
3.361	645.33691
3.3615	750.27466
3.362	827.31628
3.3625	949.67651
3.363	1052.80151
3.3635	984.11865
3.364	833.66089
3.3645	760.14404
3.365	687.9364
3.3655	597.19849
3.366	568.59741
3.3665	569.10095
3.367	564.56909
3.3675	528.11279
3.368	497.79968
3.3685	445.02869
3.369	316.02173
3.3695	208.06274
3.37	94.76624
3.3705	-57.60498
3.371	-132.43103
3.3715	-146.73157
3.372	-110.57739
3.3725	-88.11951
3.373	-71.40198
3.3735	-37.16125
3.374	9.36584
3.3745	41.08887
3.375	60.82764
3.3755	64.45312
3.376	112.69226
3.3765	193.46008
3.377	244.92188
3.3775	254.18701
3.378	237.87231
3.3785	151.86768
3.379	36.95984
3.3795	-66.16516
3.38	-139.07776
3.3805	-189.33105
3.381	-180.56946
3.3815	-125.28076
3.382	-114.60571
3.3825	-130.11475
3.383	-174.8291
3.3835	-199.30115
3.384	-194.36646
3.3845	-185.70557
3.385	-179.05884
3.3855	-148.4436
3.386	-95.67261
3.3865	-65.05737
3.387	-49.85046
3.3875	42.09595
3.388	132.12891
3.3885	194.66858
3.389	205.34363
3.3895	217.5293
3.39	204.33655
3.3905	174.12415
3.391	155.9967
3.3915	144.11316
3.392	135.55298
3.3925	128.10059
3.393	113.09509
3.3935	77.948
3.394	47.53418
3.3945	12.5885
3.395	-10.47363
3.3955	-28.29895
3.396	-41.99524
3.3965	-58.61206
3.397	-78.35083
3.3975	-89.83154
3.398	-96.7804
3.3985	-90.5365
3.399	-68.28003
3.3995	-55.99365
3.4	-74.72534
3.4005	-95.77332
3.401	-169.59229
3.4015	-261.43799
3.402	-325.89111
3.4025	-346.53625
3.403	-330.32227
3.4035	-308.77075
3.404	-280.57251
3.4045	-243.51196
3.405	-207.86133
3.4055	-169.99512
3.406	-156.60095
3.4065	-175.63477
3.407	-244.61975
3.4075	-298.0957
3.408	-395.98389
3.4085	-589.04114
3.409	-846.65222
3.4095	-1069.72046
3.41	-1174.85962
3.4105	-1145.45288
3.411	-991.77246
3.4115	-819.56177
3.412	-639.39514
3.4125	-451.77612
3.413	-251.16577
3.4135	-129.00696
3.414	-22.05505
3.4145	111.18164
3.415	263.35144
3.4155	431.23169
3.416	599.11194
3.4165	656.61621
3.417	519.25049
3.4175	307.26013
3.418	144.11316
3.4185	80.36499
3.419	82.68127
3.4195	147.23511
3.42	220.44983
3.4205	249.35303
3.421	241.29639
3.4215	256.30188
3.422	310.18066
3.4225	353.18298
3.423	429.01611
3.4235	498.80676
3.424	527.005
3.4245	541.90979
3.425	571.82007
3.4255	589.54468
3.426	579.17175
3.4265	467.18445
3.427	328.2074
3.4275	220.44983
3.428	153.88184
3.4285	174.22485
3.429	220.24841
3.4295	260.3302
3.43	286.91711
3.4305	260.63232
3.431	188.72681
3.4315	174.8291
3.432	211.08398
3.4325	234.54895
3.433	288.12561
3.4335	332.83997
3.434	312.39624
3.4345	232.83691
3.435	114.90784
3.4355	56.29578
3.436	33.53577
3.4365	18.8324
3.437	7.45239
3.4375	-25.98267
3.438	-43.80798
3.4385	-61.73401
3.439	-76.33667
3.4395	-94.06128
3.44	-106.75049
3.4405	-108.56323
3.441	-83.99048
3.4415	-59.21631
3.442	-32.93152
3.4425	-5.43823
3.443	-16.61682
3.4435	-34.84497
3.444	-26.3855
3.4445	-6.44531
3.445	-7.5531
3.4455	-23.66638
3.446	-41.89453
3.4465	-47.13135
3.447	-43.70728
3.4475	-40.38391
3.448	-56.39648
3.4485	-83.58765
3.449	-99.2981
3.4495	-101.31226
3.45	-131.82678
3.4505	-152.27051
3.451	-162.13989
3.4515	-126.48926
3.452	-95.06836
3.4525	-48.23914
3.453	-8.05664
3.4535	2.21558
3.454	-26.18408
3.4545	-72.9126
3.455	-144.6167
3.4555	-227.90222
3.456	-384.70459
3.4565	-688.84277
3.457	-953.20129
3.4575	-1157.53784
3.458	-1304.37012
3.4585	-1392.79175
3.459	-1387.55493
3.4595	-1302.45667
3.46	-1158.34351
3.4605	-992.47742
3.461	-783.30688
3.4615	-546.03882
3.462	-301.51978
3.4625	-79.66003
3.463	139.5813
3.4635	394.37256
3.464	545.8374
3.4645	603.44238
3.465	641.91284
3.4655	766.89148
3.466	871.42639
3.4665	891.06445
3.467	857.83081
3.4675	796.80176
3.468	733.45642
3.4685	682.19604
3.469	658.63037
3.4695	633.45337
3.47	549.26147
3.4705	391.65344
3.471	233.03833
3.4715	138.47351
3.472	93.45703
3.4725	67.77649
3.473	18.22815
3.4735	-61.12976
3.474	-117.42554
3.4745	-144.91882
3.475	-219.14062
3.4755	-371.91467
3.476	-515.32288
3.4765	-506.35986
3.477	-423.98071
3.4775	-248.9502
3.478	-89.63013
3.4785	20.64514
3.479	45.92285
3.4795	45.3186
3.48	86.30676
3.4805	169.69299
3.481	223.8739
3.4815	235.25391
3.482	235.05249
3.4825	295.47729
3.483	378.35999
3.4835	437.17346
3.484	430.52673
3.4845	372.61963
3.485	328.50952
3.4855	326.9989
3.486	313.1012
3.4865	301.31836
3.487	259.22241
3.4875	155.39246
3.488	26.78833
3.4885	-135.45227
3.489	-281.88171
3.4895	-382.18689
3.49	-437.77771
3.4905	-437.677
3.491	-402.73132
3.4915	-429.62036
3.492	-479.26941
3.4925	-549.96643
3.493	-596.0907
3.4935	-602.4353
3.494	-567.38892
3.4945	-482.08923
3.495	-354.08936
3.4955	-247.13745
3.496	-166.0675
3.4965	-95.26978
3.497	24.87488
3.4975	198.59619
3.498	358.62122
3.4985	443.41736
3.499	497.79968
3.4995	501.12305
3.5	466.47949
3.5005	443.51807
3.501	459.12781
3.5015	482.99561
3.502	471.31348
3.5025	438.68408
3.503	398.60229
3.5035	337.47253
3.504	319.24438
3.5045	295.77942
3.505	250.46082
3.5055	208.96912
3.506	178.75671
3.5065	154.48608
3.507	125.18005
3.5075	94.96765
3.508	72.30835
3.5085	59.61914
3.509	56.69861
3.5095	50.55542
3.51	55.49011
3.5105	43.90869
3.511	1.71204
3.5115	-50.15259
3.512	-83.88977
3.5125	-107.25403
3.513	-156.70166
3.5135	-197.3877
3.514	-263.04932
3.5145	-348.85254
3.515	-378.86353
3.5155	-384.30176
3.516	-345.02563
3.5165	-287.42065
3.517	-296.08154
3.5175	-355.49927
3.518	-394.57397
3.5185	-489.2395
3.519	-679.1748
3.5195	-830.74036
3.52	-858.73718
3.5205	-777.76794
3.521	-687.53357
3.5215	-638.99231
3.522	-576.65405
3.5225	-562.65564
3.523	-684.81445
3.5235	-788.14087
3.524	-781.59485
3.5245	-738.89465
3.525	-676.45569
3.5255	-553.18909
3.526	-419.75098
3.5265	-351.26953
3.527	-380.97839
3.5275	-337.27112
3.528	-321.45996
3.5285	-303.1311
3.529	-197.4884
3.5295	-5.33752
3.53	205.0415
3.5305	430.62744
3.531	590.45105
3.5315	671.82312
3.532	766.18652
3.5325	902.44446
3.533	982.70874
3.5335	1013.92822
3.534	1021.68274
3.5345	998.31848
3.535	970.9259
3.5355	971.32874
3.536	923.89526
3.5365	816.03699
3.537	705.35889
3.5375	646.14258
3.538	486.41968
3.5385	244.61975
3.539	-131.22253
3.5395	-552.48413
3.54	-861.65771
3.5405	-1010.80627
3.541	-1046.45691
3.5415	-1036.18469
3.542	-984.01794
3.5425	-930.54199
3.543	-875.15259
3.5435	-752.28882
3.544	-585.81848
3.5445	-373.22388
3.545	-135.15015
3.5455	86.20605
3.546	283.49304
3.5465	424.88708
3.547	583.40149
3.5475	780.9906
3.548	983.4137
3.5485	1111.31287
3.549	1100.4364
3.5495	1060.1532
3.55	1072.43958
3.5505	1036.58752
3.551	939.80713
3.5515	769.50989
3.552	595.78857
3.5525	453.9917
3.553	370.00122
3.5535	325.99182
3.554	310.5835
3.5545	284.39941
3.555	302.92969
3.5555	285.10437
3.556	124.4751
3.5565	-106.75049
3.557	-300.71411
3.5575	-435.1593
3.558	-483.29773
3.5585	-476.85242
3.559	-434.85718
3.5595	-377.75574
3.56	-315.21606
3.5605	-266.6748
3.561	-225.48523
3.5615	-173.92273
3.562	-65.3595
3.5625	53.87878
3.563	178.85742
3.5635	207.4585
3.564	48.33984
3.5645	-212.89673
3.565	-399.20654
3.5655	-462.14905
3.566	-460.73914
3.5665	-402.32849
3.567	-276.04065
3.5675	-198.6969
3.568	-180.16663
3.5685	-116.21704
3.569	-100.70801
3.5695	-87.61597
3.57	-139.5813
3.5705	-233.64258
3.571	-196.98486
3.5715	-56.09436
3.572	22.25647
3.5725	87.91809
3.573	111.48376
3.5735	102.62146
3.574	199.40186
3.5745	358.62122
3.575	430.62744
3.5755	449.05701
3.576	493.06641
3.5765	473.32764
3.577	383.19397
3.5775	250.15869
3.578	121.9574
3.5785	-13.09204
3.579	-100.00305
3.5795	-147.33582
3.58	-165.56396
3.5805	-173.21777
3.581	-106.8512
3.5815	-19.73877
3.582	91.14075
3.5825	165.06042
3.583	187.71973
3.5835	153.78113
3.584	154.48608
3.5845	163.34839
3.585	188.6261
3.5855	222.66541
3.586	251.06506
3.5865	256.5033
3.587	237.46948
3.5875	188.92822
3.588	107.25403
3.5885	18.32886
3.589	-138.97705
3.5895	-260.12878
3.59	-411.1908
3.5905	-556.81458
3.591	-616.83655
3.5915	-590.24963
3.592	-552.68555
3.5925	-550.46997
3.593	-547.85156
3.5935	-503.43933
3.594	-451.17188
3.5945	-401.72424
3.595	-317.63306
3.5955	-193.05725
3.596	-24.16992
3.5965	61.33118
3.597	43.00232
3.5975	16.71753
3.598	2.61841
3.5985	8.05664
3.599	-4.93469
3.5995	2.5177
3.6	-16.41541
3.6005	-116.11633
3.601	-155.59387
3.6015	-214.20593
3.602	-226.99585
3.6025	-126.28784
3.603	19.13452
3.6035	142.40112
3.604	305.85022
3.6045	447.14355
3.605	562.05139
3.6055	450.06409
3.606	195.77637
3.6065	-49.14551
3.607	-217.93213
3.6075	-286.31287
3.608	-393.36548
3.6085	-434.45435
3.609	-463.55896
3.6095	-505.45349
3.61	-518.84766
3.6105	-486.01685
3.611	-356.10352
3.6115	-161.23352
3.612	71.30127
3.6125	277.14844
3.613	477.96021
3.6135	636.87744
3.614	718.45093
3.6145	702.53906
3.615	707.47375
3.6155	734.16138
3.616	787.43591
3.6165	757.62634
3.617	669.0033
3.6175	582.19299
3.618	525.79651
3.6185	524.4873
3.619	498.10181
3.6195	435.26001
3.62	382.69043
3.6205	335.96191
3.621	282.78809
3.6215	244.31763
3.622	211.48682
3.6225	154.88892
3.623	127.39563
3.6235	123.66943
3.624	118.02979
3.6245	75.83313
3.625	14.60266
3.6255	-58.51135
3.626	-89.02588
3.6265	-81.57349
3.627	-61.02905
3.6275	-52.67029
3.628	-111.38306
3.6285	-141.69617
3.629	-167.57812
3.6295	-212.69531
3.63	-252.87781
3.6305	-261.74011
3.631	-250.2594
3.6315	-259.52454
3.632	-282.58667
3.6325	-309.67712
3.633	-364.56299
3.6335	-411.89575
3.634	-439.08691
3.6345	-423.37646
3.635	-394.37256
3.6355	-342.30652
3.636	-274.93286
3.6365	-222.66541
3.637	-139.68201
3.6375	-65.3595
3.638	-59.51843
3.6385	-120.14465
3.639	-187.01477
3.6395	-312.19482
3.64	-493.67065
3.6405	-648.9624
3.641	-724.3927
3.6415	-754.40369
3.642	-695.99304
3.6425	-530.02625
3.643	-341.19873
3.6435	-179.46167
3.644	-43.80798
3.6445	19.73877
3.645	30.71594
3.6455	26.88904
3.646	61.83472
3.6465	103.32642
3.647	192.85583
3.6475	339.38599
3.648	365.46936
3.6485	271.91162
3.649	168.38379
3.6495	144.31458
3.65	156.50024
3.6505	172.91565
3.651	277.24915
3.6515	434.05151
3.652	541.30554
3.6525	553.3905
3.653	474.83826
3.6535	268.78967
3.654	128.40271
3.6545	71.80481
3.655	48.23914
3.6555	36.55701
3.656	102.21863
3.6565	177.95105
3.657	215.41443
3.6575	199.80469
3.658	118.73474
3.6585	-21.45081
3.659	-121.35315
3.6595	-158.81653
3.66	-143.4082
3.6605	-124.97864
3.661	-240.99426
3.6615	-432.13806
3.662	-608.98132
3.6625	-778.87573
3.663	-882.10144
3.6635	-897.40906
3.664	-822.4823
3.6645	-714.72473
3.665	-603.84521
3.6655	-462.7533
3.666	-217.22717
3.6665	31.21948
3.667	276.44348
3.6675	467.58728
3.668	619.75708
3.6685	761.35254
3.669	802.03857
3.6695	729.32739
3.67	724.49341
3.6705	717.14172
3.671	617.74292
3.6715	563.56201
3.672	517.13562
3.6725	398.30017
3.673	241.39709
3.6735	83.18481
3.674	-100.70801
3.6745	-261.03516
3.675	-324.38049
3.6755	-290.24048
3.676	-213.90381
3.6765	-75.22888
3.677	61.73401
3.6775	139.98413
3.678	185.10132
3.6785	221.96045
3.679	272.41516
3.6795	306.05164
3.68	332.23572
3.6805	398.703
3.681	400.51575
3.6815	337.0697
3.682	276.04065
3.6825	215.1123
3.683	152.57263
3.6835	168.98804
3.684	234.24683
3.6845	237.87231
3.685	153.57971
3.6855	57.30286
3.686	-7.45239
3.6865	-113.09509
3.687	-221.45691
3.6875	-286.41357
3.688	-333.2428
3.6885	-355.49927
3.689	-323.47412
3.6895	-258.71887
3.69	-195.47424
3.6905	-106.9519
3.691	-28.29895
3.6915	22.35718
3.692	35.85205
3.6925	30.71594
3.693	35.04639
3.6935	48.64197
3.694	33.73718
3.6945	-17.32178
3.695	-96.8811
3.6955	-135.04944
3.696	-135.55298
3.6965	-143.71033
3.697	-138.27209
3.6975	-121.35315
3.698	-78.95508
3.6985	-49.44763
3.699	-36.15417
3.6995	-19.13452
3.7	8.7616
3.7005	30.01099
3.701	35.44922
3.7015	44.51294
3.702	32.12585
3.7025	-8.66089
3.703	-42.29736
3.7035	-45.72144
3.704	-39.07471
3.7045	-46.92993
3.705	-82.78198
3.7055	-111.9873
3.706	-127.99988
3.7065	-158.21228
3.707	-190.43884
3.7075	-192.453
3.708	-219.03992
3.7085	-285.70862
3.709	-349.6582
3.7095	-335.55908
3.71	-288.93127
3.7105	-281.57959
3.711	-370.70618
3.7115	-434.35364
3.712	-400.51575
3.7125	-330.92651
3.713	-268.08472
3.7135	-245.62683
3.714	-352.0752
3.7145	-499.00818
3.715	-690.75623
3.7155	-841.3147
3.716	-957.22961
3.7165	-1009.29565
3.717	-989.45618
3.7175	-972.53723
3.718	-886.93542
3.7185	-694.28101
3.719	-476.85242
3.7195	-276.24207
3.72	1.51062
3.7205	209.9762
3.721	428.51257
3.7215	698.10791
3.722	1017.25159
3.7225	1234.17664
3.723	1387.1521
3.7235	1455.63354
3.724	1480.91125
3.7245	1368.52112
3.725	1186.84387
3.7255	1002.64893
3.726	870.01648
3.7265	734.76562
3.727	657.01904
3.7275	658.9325
3.728	658.32825
3.7285	612.60681
3.729	539.39209
3.7295	467.68799
3.73	404.14124
3.7305	345.02563
3.731	315.21606
3.7315	281.07605
3.732	243.61267
3.7325	208.66699
3.733	189.9353
3.7335	147.1344
3.734	88.0188
3.7345	40.08179
3.735	-57.9071
3.7355	-227.6001
3.736	-368.89343
3.7365	-458.12073
3.737	-489.34021
3.7375	-500.21667
3.738	-486.31897
3.7385	-461.44409
3.739	-474.23401
3.7395	-586.82556
3.74	-649.56665
3.7405	-667.69409
3.741	-604.55017
