Daniele_De_Santis_Right_2.c3d  



Time(s):	A_L_bicipite(μV):
0	-3.02124
0.0005	0.40283
0.001	0.50354
0.0015	0.90637
0.002	6.94885
0.0025	7.95593
0.003	16.41541
0.0035	12.38708
0.004	6.84814
0.0045	6.04248
0.005	3.42407
0.0055	4.53186
0.006	8.25806
0.0065	9.06372
0.007	6.74744
0.0075	3.62549
0.008	4.83398
0.0085	4.12903
0.009	0.90637
0.0095	0.30212
0.01	-1.10779
0.0105	1.3092
0.011	7.04956
0.0115	8.45947
0.012	-0.90637
0.0125	-2.41699
0.013	1.2085
0.0135	0.80566
0.014	-3.12195
0.0145	3.12195
0.015	2.5177
0.0155	2.71912
0.016	6.2439
0.0165	0.90637
0.017	2.61841
0.0175	2.11487
0.018	4.12903
0.0185	4.53186
0.019	0.10071
0.0195	2.01416
0.02	1.61133
0.0205	7.15027
0.021	-0.70496
0.0215	4.22974
0.022	7.65381
0.0225	3.7262
0.023	7.15027
0.0235	5.84106
0.024	7.5531
0.0245	3.22266
0.025	6.2439
0.0255	0.80566
0.026	6.2439
0.0265	7.65381
0.027	7.75452
0.0275	9.46655
0.028	4.12903
0.0285	6.84814
0.029	4.73328
0.0295	4.12903
0.03	7.45239
0.0305	5.84106
0.031	2.31628
0.0315	4.43115
0.032	11.07788
0.0325	2.01416
0.033	4.43115
0.0335	6.04248
0.034	6.2439
0.0345	8.56018
0.035	1.40991
0.0355	-1.00708
0.036	0.90637
0.0365	2.61841
0.037	-2.92053
0.0375	0.30212
0.038	6.2439
0.0385	4.43115
0.039	3.62549
0.0395	-3.42407
0.04	-2.31628
0.0405	4.93469
0.041	4.22974
0.0415	-1.61133
0.042	-5.0354
0.0425	2.21558
0.043	1.71204
0.0435	6.74744
0.044	1.00708
0.0445	3.52478
0.045	1.3092
0.0455	7.15027
0.046	2.71912
0.0465	2.5177
0.047	-0.40283
0.0475	-0.40283
0.048	-0.80566
0.0485	2.92053
0.049	-3.12195
0.0495	-6.94885
0.05	0.60425
0.0505	3.62549
0.051	5.63965
0.0515	8.66089
0.052	8.8623
0.0525	7.04956
0.053	6.3446
0.0535	4.33044
0.054	7.45239
0.0545	7.65381
0.055	6.54602
0.0555	11.38
0.056	4.83398
0.0565	7.5531
0.057	4.02832
0.0575	6.94885
0.058	11.98425
0.0585	8.25806
0.059	2.5177
0.0595	7.25098
0.06	5.0354
0.0605	3.92761
0.061	12.78992
0.0615	6.3446
0.062	5.74036
0.0625	10.97717
0.063	11.07788
0.0635	4.93469
0.064	3.62549
0.0645	1.91345
0.065	4.02832
0.0655	7.15027
0.066	1.81274
0.0665	0.90637
0.067	3.02124
0.0675	1.00708
0.068	4.63257
0.0685	4.83398
0.069	9.16443
0.0695	5.63965
0.07	6.64673
0.0705	9.16443
0.071	1.40991
0.0715	12.28638
0.072	6.84814
0.0725	6.3446
0.073	6.64673
0.0735	1.91345
0.074	5.23682
0.0745	1.00708
0.075	2.92053
0.0755	2.81982
0.076	7.5531
0.0765	5.94177
0.077	3.92761
0.0775	1.91345
0.078	0.10071
0.0785	2.92053
0.079	5.74036
0.0795	8.45947
0.08	5.84106
0.0805	-2.21558
0.081	1.91345
0.0815	1.81274
0.082	2.92053
0.0825	1.91345
0.083	5.13611
0.0835	1.61133
0.084	2.61841
0.0845	1.81274
0.085	1.91345
0.0855	4.12903
0.086	2.71912
0.0865	-0.90637
0.087	0.70496
0.0875	4.93469
0.088	-1.10779
0.0885	2.21558
0.089	-2.01416
0.0895	-0.50354
0.09	2.5177
0.0905	2.41699
0.091	5.0354
0.0915	4.93469
0.092	3.32336
0.0925	3.7262
0.093	-2.41699
0.0935	4.73328
0.094	3.12195
0.0945	12.38708
0.095	10.57434
0.0955	8.66089
0.096	7.85522
0.0965	13.59558
0.097	9.26514
0.0975	8.66089
0.098	6.64673
0.0985	5.94177
0.099	6.84814
0.0995	6.44531
0.1	6.74744
0.1005	1.71204
0.101	9.36584
0.1015	6.3446
0.102	8.15735
0.1025	7.35168
0.103	4.83398
0.1035	9.26514
0.104	8.7616
0.1045	2.71912
0.105	-1.00708
0.1055	3.52478
0.106	7.95593
0.1065	7.85522
0.107	5.74036
0.1075	-0.80566
0.108	-1.3092
0.1085	0.10071
0.109	1.61133
0.1095	1.71204
0.11	0.80566
0.1105	2.71912
0.111	0.90637
0.1115	2.61841
0.112	3.02124
0.1125	-2.71912
0.113	-6.3446
0.1135	-3.52478
0.114	-6.44531
0.1145	-3.62549
0.115	-0.20142
0.1155	-0.10071
0.116	5.63965
0.1165	8.05664
0.117	10.77576
0.1175	9.66797
0.118	10.0708
0.1185	11.2793
0.119	8.25806
0.1195	5.84106
0.12	11.17859
0.1205	10.0708
0.121	5.13611
0.1215	6.74744
0.122	6.84814
0.1225	3.62549
0.123	5.74036
0.1235	0.70496
0.124	1.71204
0.1245	1.10779
0.125	1.91345
0.1255	-2.21558
0.126	2.21558
0.1265	3.62549
0.127	3.32336
0.1275	2.81982
0.128	9.97009
0.1285	1.81274
0.129	3.12195
0.1295	10.17151
0.13	7.15027
0.1305	6.54602
0.131	5.43823
0.1315	6.44531
0.132	2.5177
0.1325	-1.3092
0.133	-2.5177
0.1335	2.31628
0.134	3.62549
0.1345	-0.20142
0.135	3.22266
0.1355	1.81274
0.136	0.50354
0.1365	2.31628
0.137	-0.20142
0.1375	1.3092
0.138	8.05664
0.1385	2.31628
0.139	7.65381
0.1395	5.23682
0.14	7.45239
0.1405	2.11487
0.141	8.7616
0.1415	3.92761
0.142	2.92053
0.1425	3.22266
0.143	2.01416
0.1435	3.62549
0.144	6.94885
0.1445	2.21558
0.145	-1.2085
0.1455	3.7262
0.146	0.80566
0.1465	1.91345
0.147	1.40991
0.1475	-0.30212
0.148	1.81274
0.1485	4.33044
0.149	4.43115
0.1495	2.41699
0.15	1.71204
0.1505	3.52478
0.151	4.22974
0.1515	4.83398
0.152	1.71204
0.1525	6.3446
0.153	10.87646
0.1535	9.16443
0.154	7.85522
0.1545	4.12903
0.155	2.81982
0.1555	3.42407
0.156	2.01416
0.1565	0.40283
0.157	6.84814
0.1575	1.51062
0.158	6.54602
0.1585	4.22974
0.159	6.64673
0.1595	5.33752
0.16	2.81982
0.1605	2.92053
0.161	3.7262
0.1615	-0.50354
0.162	-1.61133
0.1625	6.3446
0.163	5.13611
0.1635	5.13611
0.164	-1.10779
0.1645	9.26514
0.165	8.8623
0.1655	9.36584
0.166	6.54602
0.1665	8.8623
0.167	6.74744
0.1675	7.04956
0.168	3.42407
0.1685	5.13611
0.169	2.92053
0.1695	4.22974
0.17	4.22974
0.1705	2.5177
0.171	5.0354
0.1715	4.53186
0.172	6.2439
0.1725	5.13611
0.173	11.17859
0.1735	4.83398
0.174	10.27222
0.1745	4.43115
0.175	12.78992
0.1755	12.78992
0.176	8.66089
0.1765	4.33044
0.177	5.84106
0.1775	6.14319
0.178	2.01416
0.1785	2.01416
0.179	-0.10071
0.1795	3.22266
0.18	2.81982
0.1805	6.84814
0.181	8.66089
0.1815	7.04956
0.182	9.36584
0.1825	9.97009
0.183	7.15027
0.1835	7.5531
0.184	9.46655
0.1845	4.43115
0.185	9.36584
0.1855	5.43823
0.186	5.23682
0.1865	1.81274
0.187	3.12195
0.1875	4.12903
0.188	1.91345
0.1885	6.64673
0.189	5.33752
0.1895	4.73328
0.19	4.43115
0.1905	5.63965
0.191	5.0354
0.1915	5.63965
0.192	7.5531
0.1925	9.56726
0.193	5.94177
0.1935	2.41699
0.194	4.73328
0.1945	1.51062
0.195	1.10779
0.1955	3.02124
0.196	1.81274
0.1965	3.42407
0.197	6.44531
0.1975	8.05664
0.198	6.2439
0.1985	4.22974
0.199	1.00708
0.1995	6.04248
0.2	5.53894
0.2005	0.40283
0.201	0.70496
0.2015	1.40991
0.202	3.22266
0.2025	4.63257
0.203	2.11487
0.2035	1.81274
0.204	5.23682
0.2045	0.10071
0.205	0.60425
0.2055	7.25098
0.206	6.64673
0.2065	4.93469
0.207	8.05664
0.2075	6.54602
0.208	7.95593
0.2085	4.73328
0.209	3.22266
0.2095	7.85522
0.21	11.68213
0.2105	5.0354
0.211	10.47363
0.2115	5.94177
0.212	7.25098
0.2125	5.33752
0.213	0.80566
0.2135	4.43115
0.214	6.44531
0.2145	7.15027
0.215	11.48071
0.2155	9.06372
0.216	7.85522
0.2165	7.85522
0.217	3.02124
0.2175	7.85522
0.218	4.12903
0.2185	3.12195
0.219	4.43115
0.2195	4.83398
0.22	5.84106
0.2205	6.94885
0.221	8.7616
0.2215	7.45239
0.222	12.08496
0.2225	11.98425
0.223	4.12903
0.2235	12.38708
0.224	11.88354
0.2245	12.48779
0.225	10.57434
0.2255	6.64673
0.226	6.54602
0.2265	12.38708
0.227	15.71045
0.2275	7.25098
0.228	3.32336
0.2285	9.97009
0.229	12.5885
0.2295	8.8623
0.23	6.94885
0.2305	7.35168
0.231	11.68213
0.2315	10.57434
0.232	12.28638
0.2325	10.77576
0.233	10.47363
0.2335	6.14319
0.234	8.96301
0.2345	10.67505
0.235	9.46655
0.2355	5.43823
0.236	8.56018
0.2365	16.61682
0.237	11.98425
0.2375	13.69629
0.238	9.26514
0.2385	4.83398
0.239	2.31628
0.2395	5.0354
0.24	2.21558
0.2405	4.43115
0.241	5.74036
0.2415	5.43823
0.242	4.83398
0.2425	1.61133
0.243	7.45239
0.2435	3.22266
0.244	7.45239
0.2445	6.54602
0.245	4.63257
0.2455	11.48071
0.246	9.66797
0.2465	11.2793
0.247	2.92053
0.2475	12.5885
0.248	2.92053
0.2485	4.83398
0.249	2.71912
0.2495	4.43115
0.25	6.64673
0.2505	3.42407
0.251	-0.10071
0.2515	12.89062
0.252	10.47363
0.2525	11.48071
0.253	8.05664
0.2535	6.04248
0.254	13.19275
0.2545	9.46655
0.255	11.68213
0.2555	8.8623
0.256	6.94885
0.2565	4.53186
0.257	5.53894
0.2575	8.56018
0.258	9.06372
0.2585	8.45947
0.259	5.74036
0.2595	9.26514
0.26	2.5177
0.2605	5.0354
0.261	5.13611
0.2615	12.48779
0.262	11.88354
0.2625	12.78992
0.263	8.66089
0.2635	7.25098
0.264	14.19983
0.2645	7.15027
0.265	4.63257
0.2655	3.8269
0.266	7.95593
0.2665	3.62549
0.267	2.5177
0.2675	4.93469
0.268	6.94885
0.2685	10.37292
0.269	9.86938
0.2695	6.3446
0.27	7.85522
0.2705	9.36584
0.271	2.92053
0.2715	8.35876
0.272	0.20142
0.2725	5.84106
0.273	5.84106
0.2735	7.75452
0.274	5.23682
0.2745	6.54602
0.275	2.61841
0.2755	5.63965
0.276	6.44531
0.2765	5.0354
0.277	8.8623
0.2775	6.84814
0.278	5.74036
0.2785	3.62549
0.279	3.32336
0.2795	6.3446
0.28	3.8269
0.2805	7.95593
0.281	9.86938
0.2815	8.8623
0.282	4.63257
0.2825	5.94177
0.283	9.56726
0.2835	13.09204
0.284	8.8623
0.2845	7.45239
0.285	3.62549
0.2855	6.2439
0.286	6.04248
0.2865	3.8269
0.287	2.11487
0.2875	3.32336
0.288	6.84814
0.2885	5.13611
0.289	10.37292
0.2895	8.8623
0.29	10.77576
0.2905	4.73328
0.291	11.78284
0.2915	10.97717
0.292	7.65381
0.2925	8.35876
0.293	8.56018
0.2935	6.04248
0.294	4.93469
0.2945	4.02832
0.295	2.5177
0.2955	1.40991
0.296	4.83398
0.2965	9.76868
0.297	8.96301
0.2975	3.22266
0.298	4.63257
0.2985	2.71912
0.299	9.06372
0.2995	6.2439
0.3	5.84106
0.3005	6.84814
0.301	0.20142
0.3015	-1.81274
0.302	-1.00708
0.3025	2.31628
0.303	4.12903
0.3035	6.2439
0.304	3.52478
0.3045	2.01416
0.305	4.43115
0.3055	4.63257
0.306	6.2439
0.3065	6.74744
0.307	5.74036
0.3075	7.15027
0.308	4.12903
0.3085	5.33752
0.309	4.43115
0.3095	2.21558
0.31	6.74744
0.3105	1.91345
0.311	1.91345
0.3115	3.7262
0.312	0
0.3125	2.11487
0.313	4.93469
0.3135	5.0354
0.314	2.81982
0.3145	12.18567
0.315	6.04248
0.3155	6.54602
0.316	8.05664
0.3165	5.94177
0.317	3.02124
0.3175	4.12903
0.318	1.71204
0.3185	4.02832
0.319	3.52478
0.3195	4.43115
0.32	0.50354
0.3205	5.13611
0.321	4.83398
0.3215	3.42407
0.322	3.22266
0.3225	9.86938
0.323	10.77576
0.3235	5.63965
0.324	2.41699
0.3245	6.14319
0.325	4.43115
0.3255	10.97717
0.326	8.35876
0.3265	8.8623
0.327	5.23682
0.3275	0.80566
0.328	0.50354
0.3285	0.70496
0.329	8.96301
0.3295	1.00708
0.33	4.73328
0.3305	-0.80566
0.331	0.40283
0.3315	2.11487
0.332	2.61841
0.3325	4.93469
0.333	5.63965
0.3335	-0.30212
0.334	-1.81274
0.3345	0.90637
0.335	3.22266
0.3355	9.46655
0.336	1.2085
0.3365	5.33752
0.337	1.40991
0.3375	2.71912
0.338	6.04248
0.3385	7.45239
0.339	13.797
0.3395	6.44531
0.34	9.86938
0.3405	7.04956
0.341	3.52478
0.3415	8.25806
0.342	1.3092
0.3425	1.81274
0.343	4.02832
0.3435	7.75452
0.344	4.22974
0.3445	4.22974
0.345	8.45947
0.3455	2.5177
0.346	3.02124
0.3465	7.5531
0.347	4.73328
0.3475	1.71204
0.348	3.12195
0.3485	7.15027
0.349	9.97009
0.3495	6.54602
0.35	0.90637
0.3505	-1.40991
0.351	1.51062
0.3515	8.05664
0.352	2.92053
0.3525	3.02124
0.353	1.00708
0.3535	4.02832
0.354	1.81274
0.3545	4.53186
0.355	6.74744
0.3555	13.59558
0.356	3.22266
0.3565	3.52478
0.357	7.85522
0.3575	5.13611
0.358	8.35876
0.3585	7.65381
0.359	8.56018
0.3595	3.62549
0.36	6.64673
0.3605	6.54602
0.361	0
0.3615	3.62549
0.362	0.80566
0.3625	5.43823
0.363	6.64673
0.3635	6.04248
0.364	5.23682
0.3645	8.56018
0.365	8.7616
0.3655	8.56018
0.366	8.7616
0.3665	7.85522
0.367	5.13611
0.3675	7.35168
0.368	9.36584
0.3685	11.98425
0.369	6.84814
0.3695	2.81982
0.37	5.94177
0.3705	12.08496
0.371	10.0708
0.3715	9.56726
0.372	10.97717
0.3725	10.47363
0.373	9.06372
0.3735	10.37292
0.374	8.8623
0.3745	13.39417
0.375	13.89771
0.3755	10.77576
0.376	5.74036
0.3765	4.83398
0.377	9.36584
0.3775	5.33752
0.378	7.35168
0.3785	7.5531
0.379	3.42407
0.3795	3.32336
0.38	4.22974
0.3805	5.33752
0.381	8.7616
0.3815	4.02832
0.382	6.54602
0.3825	9.16443
0.383	-1.00708
0.3835	9.16443
0.384	8.7616
0.3845	2.71912
0.385	6.14319
0.3855	6.94885
0.386	6.54602
0.3865	9.56726
0.387	4.73328
0.3875	5.94177
0.388	5.53894
0.3885	7.25098
0.389	8.56018
0.3895	7.25098
0.39	7.95593
0.3905	7.25098
0.391	8.05664
0.3915	4.53186
0.392	0.80566
0.3925	7.45239
0.393	5.84106
0.3935	-2.71912
0.394	-0.10071
0.3945	1.3092
0.395	5.13611
0.3955	3.92761
0.396	0.90637
0.3965	1.00708
0.397	5.74036
0.3975	2.5177
0.398	9.56726
0.3985	4.93469
0.399	6.94885
0.3995	4.02832
0.4	1.51062
0.4005	5.33752
0.401	3.62549
0.4015	0.60425
0.402	6.14319
0.4025	0.30212
0.403	8.7616
0.4035	4.73328
0.404	8.05664
0.4045	5.43823
0.405	-4.33044
0.4055	3.62549
0.406	5.33752
0.4065	7.45239
0.407	0.90637
0.4075	-0.30212
0.408	0.90637
0.4085	-1.61133
0.409	6.64673
0.4095	-0.30212
0.41	5.63965
0.4105	0.10071
0.411	2.41699
0.4115	-1.51062
0.412	3.32336
0.4125	-1.2085
0.413	8.56018
0.4135	6.3446
0.414	-1.71204
0.4145	4.73328
0.415	6.64673
0.4155	4.83398
0.416	0.80566
0.4165	0.70496
0.417	-1.40991
0.4175	2.41699
0.418	0.70496
0.4185	1.71204
0.419	1.10779
0.4195	6.54602
0.42	5.43823
0.4205	1.3092
0.421	7.35168
0.4215	6.74744
0.422	6.64673
0.4225	8.45947
0.423	8.35876
0.4235	4.83398
0.424	0.10071
0.4245	-0.80566
0.425	4.22974
0.4255	7.25098
0.426	9.06372
0.4265	9.26514
0.427	11.38
0.4275	11.38
0.428	11.38
0.4285	4.73328
0.429	8.25806
0.4295	5.74036
0.43	7.45239
0.4305	2.41699
0.431	-0.10071
0.4315	10.77576
0.432	6.2439
0.4325	4.63257
0.433	6.64673
0.4335	9.76868
0.434	2.21558
0.4345	4.63257
0.435	2.81982
0.4355	6.94885
0.436	5.94177
0.4365	6.64673
0.437	4.63257
0.4375	9.66797
0.438	7.25098
0.4385	8.66089
0.439	9.66797
0.4395	2.41699
0.44	6.94885
0.4405	6.84814
0.441	6.44531
0.4415	8.8623
0.442	5.0354
0.4425	6.74744
0.443	10.37292
0.4435	8.96301
0.444	6.2439
0.4445	2.11487
0.445	-0.80566
0.4455	7.15027
0.446	9.16443
0.4465	5.74036
0.447	7.35168
0.4475	1.61133
0.448	6.94885
0.4485	7.04956
0.449	6.3446
0.4495	7.04956
0.45	10.87646
0.4505	10.37292
0.451	7.45239
0.4515	10.47363
0.452	6.64673
0.4525	4.12903
0.453	10.97717
0.4535	7.45239
0.454	7.5531
0.4545	2.11487
0.455	6.54602
0.4555	5.63965
0.456	6.14319
0.4565	6.44531
0.457	8.45947
0.4575	7.35168
0.458	11.78284
0.4585	8.8623
0.459	9.16443
0.4595	6.14319
0.46	11.68213
0.4605	9.46655
0.461	8.15735
0.4615	3.8269
0.462	4.73328
0.4625	3.7262
0.463	4.02832
0.4635	6.94885
0.464	2.11487
0.4645	3.42407
0.465	0.80566
0.4655	5.13611
0.466	7.95593
0.4665	5.53894
0.467	1.91345
0.4675	8.96301
0.468	2.92053
0.4685	6.84814
0.469	8.05664
0.4695	-0.40283
0.47	1.71204
0.4705	6.64673
0.471	5.43823
0.4715	7.85522
0.472	6.14319
0.4725	4.93469
0.473	7.95593
0.4735	2.92053
0.474	6.44531
0.4745	5.63965
0.475	8.56018
0.4755	13.39417
0.476	11.2793
0.4765	13.69629
0.477	12.08496
0.4775	11.58142
0.478	10.17151
0.4785	5.94177
0.479	6.14319
0.4795	6.94885
0.48	-2.61841
0.4805	-4.02832
0.481	1.71204
0.4815	5.84106
0.482	5.53894
0.4825	5.63965
0.483	4.93469
0.4835	7.85522
0.484	12.08496
0.4845	7.75452
0.485	8.35876
0.4855	2.81982
0.486	2.92053
0.4865	8.66089
0.487	7.95593
0.4875	4.53186
0.488	6.94885
0.4885	2.61841
0.489	-4.02832
0.4895	1.2085
0.49	4.83398
0.4905	0.80566
0.491	3.42407
0.4915	6.04248
0.492	2.71912
0.4925	4.02832
0.493	8.7616
0.4935	11.88354
0.494	7.5531
0.4945	9.97009
0.495	10.77576
0.4955	0.40283
0.496	6.94885
0.4965	9.66797
0.497	4.43115
0.4975	2.01416
0.498	2.01416
0.4985	13.69629
0.499	7.04956
0.4995	6.64673
0.5	5.23682
0.5005	6.14319
0.501	5.84106
0.5015	9.06372
0.502	8.05664
0.5025	8.25806
0.503	4.33044
0.5035	7.95593
0.504	5.23682
0.5045	0.70496
0.505	8.05664
0.5055	8.15735
0.506	3.22266
0.5065	3.8269
0.507	6.3446
0.5075	7.15027
0.508	8.8623
0.5085	8.96301
0.509	10.17151
0.5095	5.94177
0.51	5.33752
0.5105	10.97717
0.511	4.53186
0.5115	7.65381
0.512	7.04956
0.5125	7.5531
0.513	7.95593
0.5135	3.8269
0.514	0.70496
0.5145	7.35168
0.515	1.00708
0.5155	2.71912
0.516	2.71912
0.5165	1.40991
0.517	6.44531
0.5175	7.15027
0.518	7.25098
0.5185	7.5531
0.519	8.45947
0.5195	4.02832
0.52	6.64673
0.5205	0.60425
0.521	-2.01416
0.5215	-0.10071
0.522	2.01416
0.5225	2.41699
0.523	0.80566
0.5235	4.93469
0.524	7.15027
0.5245	1.00708
0.525	6.3446
0.5255	8.8623
0.526	4.43115
0.5265	5.94177
0.527	7.04956
0.5275	4.53186
0.528	5.84106
0.5285	3.42407
0.529	5.13611
0.5295	1.10779
0.53	1.10779
0.5305	0.50354
0.531	10.37292
0.5315	6.14319
0.532	2.92053
0.5325	7.45239
0.533	1.91345
0.5335	4.22974
0.534	2.71912
0.5345	7.75452
0.535	2.11487
0.5355	10.67505
0.536	4.22974
0.5365	5.13611
0.537	4.33044
0.5375	-0.40283
0.538	1.71204
0.5385	2.81982
0.539	2.5177
0.5395	5.23682
0.54	5.43823
0.5405	6.74744
0.541	4.83398
0.5415	5.63965
0.542	7.75452
0.5425	1.61133
0.543	6.04248
0.5435	5.13611
0.544	6.3446
0.5445	3.8269
0.545	5.23682
0.5455	9.56726
0.546	11.98425
0.5465	8.66089
0.547	12.28638
0.5475	11.07788
0.548	9.46655
0.5485	10.97717
0.549	10.97717
0.5495	9.06372
0.55	6.64673
0.5505	11.48071
0.551	7.45239
0.5515	10.97717
0.552	7.45239
0.5525	6.14319
0.553	4.43115
0.5535	8.56018
0.554	8.96301
0.5545	7.04956
0.555	2.01416
0.5555	4.93469
0.556	5.33752
0.5565	7.25098
0.557	6.64673
0.5575	10.87646
0.558	5.94177
0.5585	7.95593
0.559	6.3446
0.5595	2.01416
0.56	5.33752
0.5605	1.10779
0.561	4.22974
0.5615	8.8623
0.562	6.64673
0.5625	5.74036
0.563	4.93469
0.5635	2.81982
0.564	5.53894
0.5645	0.30212
0.565	4.63257
0.5655	4.12903
0.566	2.71912
0.5665	4.93469
0.567	0.30212
0.5675	-0.60425
0.568	4.22974
0.5685	-0.50354
0.569	2.01416
0.5695	4.22974
0.57	1.71204
0.5705	1.91345
0.571	1.10779
0.5715	3.62549
0.572	1.00708
0.5725	-2.21558
0.573	-2.71912
0.5735	4.53186
0.574	5.53894
0.5745	2.41699
0.575	6.94885
0.5755	9.86938
0.576	3.02124
0.5765	1.2085
0.577	1.81274
0.5775	-0.30212
0.578	-0.60425
0.5785	-1.61133
0.579	-4.22974
0.5795	-3.22266
0.58	0.80566
0.5805	-0.30212
0.581	4.63257
0.5815	8.45947
0.582	9.06372
0.5825	4.22974
0.583	5.43823
0.5835	7.04956
0.584	5.43823
0.5845	5.63965
0.585	0.60425
0.5855	2.5177
0.586	5.13611
0.5865	0.80566
0.587	4.12903
0.5875	-8.15735
0.588	-2.41699
0.5885	2.81982
0.589	2.61841
0.5895	6.14319
0.59	6.44531
0.5905	5.94177
0.591	7.75452
0.5915	7.95593
0.592	7.45239
0.5925	5.84106
0.593	4.83398
0.5935	9.06372
0.594	1.81274
0.5945	-0.10071
0.595	9.56726
0.5955	2.01416
0.596	1.3092
0.5965	5.0354
0.597	9.46655
0.5975	4.93469
0.598	6.74744
0.5985	9.26514
0.599	8.05664
0.5995	6.84814
0.6	4.22974
0.6005	0.50354
0.601	8.66089
0.6015	4.93469
0.602	6.94885
0.6025	7.5531
0.603	4.53186
0.6035	5.13611
0.604	4.53186
0.6045	2.31628
0.605	6.14319
0.6055	4.12903
0.606	10.37292
0.6065	9.46655
0.607	6.04248
0.6075	2.41699
0.608	4.12903
0.6085	2.81982
0.609	4.33044
0.6095	-0.10071
0.61	1.40991
0.6105	4.02832
0.611	10.87646
0.6115	1.51062
0.612	7.5531
0.6125	-0.30212
0.613	2.71912
0.6135	-2.31628
0.614	-2.5177
0.6145	0
0.615	1.3092
0.6155	6.3446
0.616	5.0354
0.6165	1.81274
0.617	6.14319
0.6175	1.3092
0.618	2.11487
0.6185	-1.40991
0.619	0.40283
0.6195	2.21558
0.62	4.33044
0.6205	6.64673
0.621	1.40991
0.6215	1.51062
0.622	1.51062
0.6225	6.2439
0.623	4.93469
0.6235	5.33752
0.624	9.97009
0.6245	8.25806
0.625	8.56018
0.6255	12.5885
0.626	8.7616
0.6265	6.74744
0.627	9.76868
0.6275	8.7616
0.628	6.2439
0.6285	2.81982
0.629	3.62549
0.6295	6.44531
0.63	6.14319
0.6305	5.94177
0.631	4.53186
0.6315	4.93469
0.632	7.45239
0.6325	3.8269
0.633	2.5177
0.6335	9.46655
0.634	6.74744
0.6345	7.04956
0.635	10.17151
0.6355	11.38
0.636	2.31628
0.6365	7.5531
0.637	4.43115
0.6375	6.74744
0.638	0
0.6385	6.44531
0.639	10.37292
0.6395	7.75452
0.64	4.22974
0.6405	4.73328
0.641	4.63257
0.6415	7.04956
0.642	14.50195
0.6425	12.5885
0.643	4.93469
0.6435	6.74744
0.644	8.96301
0.6445	3.7262
0.645	5.43823
0.6455	7.5531
0.646	9.06372
0.6465	11.48071
0.647	3.8269
0.6475	10.0708
0.648	6.74744
0.6485	10.17151
0.649	10.0708
0.6495	6.3446
0.65	10.27222
0.6505	9.46655
0.651	6.84814
0.6515	8.15735
0.652	0.70496
0.6525	11.38
0.653	9.86938
0.6535	9.16443
0.654	4.93469
0.6545	4.43115
0.655	4.12903
0.6555	5.13611
0.656	8.05664
0.6565	6.64673
0.657	2.31628
0.6575	6.44531
0.658	4.83398
0.6585	11.17859
0.659	10.77576
0.6595	8.15735
0.66	8.35876
0.6605	6.3446
0.661	7.65381
0.6615	5.0354
0.662	4.83398
0.6625	4.53186
0.663	6.74744
0.6635	6.74744
0.664	6.64673
0.6645	5.74036
0.665	10.0708
0.6655	8.7616
0.666	8.56018
0.6665	7.15027
0.667	5.94177
0.6675	6.2439
0.668	6.14319
0.6685	11.07788
0.669	14.60266
0.6695	5.74036
0.67	5.13611
0.6705	4.73328
0.671	0.60425
0.6715	1.00708
0.672	9.16443
0.6725	4.53186
0.673	4.22974
0.6735	5.33752
0.674	1.3092
0.6745	-0.20142
0.675	0.90637
0.6755	7.04956
0.676	5.94177
0.6765	1.40991
0.677	4.33044
0.6775	-3.62549
0.678	0.20142
0.6785	-2.21558
0.679	3.02124
0.6795	-0.50354
0.68	0.60425
0.6805	3.22266
0.681	6.3446
0.6815	4.02832
0.682	1.2085
0.6825	3.12195
0.683	3.52478
0.6835	2.92053
0.684	2.5177
0.6845	4.73328
0.685	4.22974
0.6855	3.42407
0.686	2.41699
0.6865	3.22266
0.687	2.41699
0.6875	1.10779
0.688	2.81982
0.6885	6.14319
0.689	4.53186
0.6895	1.3092
0.69	0.70496
0.6905	7.15027
0.691	6.3446
0.6915	3.02124
0.692	-1.10779
0.6925	2.61841
0.693	3.8269
0.6935	6.54602
0.694	0.70496
0.6945	4.22974
0.695	0.90637
0.6955	3.12195
0.696	6.14319
0.6965	2.31628
0.697	4.83398
0.6975	3.8269
0.698	8.35876
0.6985	10.0708
0.699	5.94177
0.6995	6.64673
0.7	4.73328
0.7005	5.43823
0.701	7.5531
0.7015	-0.60425
0.702	1.91345
0.7025	9.26514
0.703	4.83398
0.7035	3.8269
0.704	8.66089
0.7045	1.71204
0.705	4.12903
0.7055	7.04956
0.706	7.15027
0.7065	9.56726
0.707	8.66089
0.7075	3.8269
0.708	4.22974
0.7085	6.84814
0.709	5.63965
0.7095	4.63257
0.71	4.22974
0.7105	11.48071
0.711	4.43115
0.7115	0.80566
0.712	4.73328
0.7125	5.74036
0.713	11.07788
0.7135	6.64673
0.714	5.94177
0.7145	7.95593
0.715	12.48779
0.7155	3.8269
0.716	8.05664
0.7165	5.33752
0.717	8.7616
0.7175	11.48071
0.718	8.96301
0.7185	10.37292
0.719	2.21558
0.7195	2.92053
0.72	9.76868
0.7205	3.12195
0.721	7.45239
0.7215	4.53186
0.722	3.62549
0.7225	7.85522
0.723	5.94177
0.7235	3.22266
0.724	7.45239
0.7245	5.63965
0.725	6.2439
0.7255	4.93469
0.726	8.35876
0.7265	9.06372
0.727	4.12903
0.7275	1.3092
0.728	4.53186
0.7285	6.84814
0.729	1.61133
0.7295	3.8269
0.73	2.11487
0.7305	3.7262
0.731	4.12903
0.7315	2.41699
0.732	8.96301
0.7325	6.74744
0.733	7.65381
0.7335	7.65381
0.734	4.83398
0.7345	3.22266
0.735	6.14319
0.7355	5.53894
0.736	4.12903
0.7365	6.2439
0.737	4.93469
0.7375	5.33752
0.738	10.47363
0.7385	1.81274
0.739	2.5177
0.7395	6.2439
0.74	4.12903
0.7405	6.64673
0.741	6.14319
0.7415	0.70496
0.742	4.73328
0.7425	2.5177
0.743	9.36584
0.7435	7.35168
0.744	7.5531
0.7445	6.3446
0.745	6.84814
0.7455	7.5531
0.746	5.53894
0.7465	4.53186
0.747	-0.90637
0.7475	3.02124
0.748	3.02124
0.7485	6.2439
0.749	7.65381
0.7495	2.5177
0.75	0.40283
0.7505	6.74744
0.751	4.12903
0.7515	7.45239
0.752	5.33752
0.7525	4.02832
0.753	3.22266
0.7535	8.8623
0.754	4.33044
0.7545	3.42407
0.755	-0.30212
0.7555	6.84814
0.756	1.10779
0.7565	-1.10779
0.757	-2.01416
0.7575	3.02124
0.758	0.40283
0.7585	3.8269
0.759	9.86938
0.7595	2.41699
0.76	6.64673
0.7605	2.21558
0.761	3.22266
0.7615	5.13611
0.762	1.81274
0.7625	2.92053
0.763	2.71912
0.7635	2.61841
0.764	5.74036
0.7645	6.64673
0.765	1.51062
0.7655	3.92761
0.766	7.85522
0.7665	8.7616
0.767	7.85522
0.7675	9.06372
0.768	6.04248
0.7685	5.13611
0.769	3.7262
0.7695	4.83398
0.77	10.37292
0.7705	4.53186
0.771	9.16443
0.7715	4.43115
0.772	5.0354
0.7725	8.56018
0.773	13.59558
0.7735	8.66089
0.774	8.35876
0.7745	11.58142
0.775	10.67505
0.7755	7.85522
0.776	11.88354
0.7765	9.06372
0.777	7.85522
0.7775	6.94885
0.778	4.22974
0.7785	5.23682
0.779	10.67505
0.7795	6.64673
0.78	0.20142
0.7805	4.73328
0.781	7.15027
0.7815	6.94885
0.782	10.67505
0.7825	12.08496
0.783	12.38708
0.7835	8.96301
0.784	9.66797
0.7845	8.05664
0.785	6.84814
0.7855	7.95593
0.786	6.3446
0.7865	6.84814
0.787	3.22266
0.7875	1.91345
0.788	1.10779
0.7885	1.91345
0.789	9.97009
0.7895	5.63965
0.79	6.3446
0.7905	5.53894
0.791	8.56018
0.7915	10.47363
0.792	6.14319
0.7925	13.59558
0.793	9.26514
0.7935	8.56018
0.794	2.11487
0.7945	6.84814
0.795	2.01416
0.7955	5.63965
0.796	1.2085
0.7965	3.12195
0.797	5.94177
0.7975	6.3446
0.798	11.98425
0.7985	9.76868
0.799	5.63965
0.7995	3.22266
0.8	4.43115
0.8005	2.92053
0.801	7.75452
0.8015	8.05664
0.802	2.81982
0.8025	3.22266
0.803	9.97009
0.8035	4.83398
0.804	3.7262
0.8045	3.62549
0.805	4.22974
0.8055	6.3446
0.806	6.64673
0.8065	7.65381
0.807	2.61841
0.8075	3.62549
0.808	5.0354
0.8085	4.73328
0.809	5.13611
0.8095	2.61841
0.81	3.52478
0.8105	7.04956
0.811	10.0708
0.8115	6.44531
0.812	7.15027
0.8125	0.50354
0.813	5.84106
0.8135	7.45239
0.814	1.2085
0.8145	3.32336
0.815	5.94177
0.8155	5.74036
0.816	11.58142
0.8165	6.64673
0.817	3.8269
0.8175	3.12195
0.818	5.13611
0.8185	4.02832
0.819	2.31628
0.8195	7.15027
0.82	5.0354
0.8205	6.74744
0.821	4.33044
0.8215	4.33044
0.822	3.12195
0.8225	4.53186
0.823	0.60425
0.8235	10.0708
0.824	4.73328
0.8245	7.25098
0.825	3.02124
0.8255	4.93469
0.826	6.54602
0.8265	3.92761
0.827	1.10779
0.8275	-0.80566
0.828	3.32336
0.8285	-1.81274
0.829	-3.62549
0.8295	1.71204
0.83	4.53186
0.8305	6.04248
0.831	5.84106
0.8315	3.92761
0.832	4.53186
0.8325	3.8269
0.833	5.43823
0.8335	0.80566
0.834	2.81982
0.8345	4.02832
0.835	5.33752
0.8355	3.62549
0.836	3.8269
0.8365	5.33752
0.837	2.5177
0.8375	4.53186
0.838	0.20142
0.8385	-2.01416
0.839	1.2085
0.8395	-1.00708
0.84	3.12195
0.8405	3.62549
0.841	4.22974
0.8415	4.33044
0.842	12.5885
0.8425	5.53894
0.843	8.7616
0.8435	16.11328
0.844	15.91187
0.8445	14.09912
0.845	8.35876
0.8455	0.40283
0.846	7.95593
0.8465	10.0708
0.847	6.54602
0.8475	3.92761
0.848	9.56726
0.8485	9.76868
0.849	5.13611
0.8495	6.54602
0.85	7.45239
0.8505	5.23682
0.851	7.75452
0.8515	5.43823
0.852	3.12195
0.8525	5.13611
0.853	8.15735
0.8535	0.80566
0.854	2.01416
0.8545	6.94885
0.855	9.16443
0.8555	4.22974
0.856	-1.81274
0.8565	5.94177
0.857	3.12195
0.8575	0.80566
0.858	5.33752
0.8585	3.62549
0.859	2.11487
0.8595	8.15735
0.86	4.12903
0.8605	5.0354
0.861	4.33044
0.8615	4.33044
0.862	8.25806
0.8625	13.09204
0.863	7.45239
0.8635	3.42407
0.864	8.66089
0.8645	7.25098
0.865	4.63257
0.8655	5.63965
0.866	-0.50354
0.8665	1.40991
0.867	7.04956
0.8675	7.35168
0.868	10.67505
0.8685	10.0708
0.869	6.64673
0.8695	-2.71912
0.87	2.31628
0.8705	-0.90637
0.871	5.43823
0.8715	4.22974
0.872	7.15027
0.8725	8.7616
0.873	0.90637
0.8735	2.92053
0.874	6.2439
0.8745	0.60425
0.875	-2.41699
0.8755	-2.71912
0.876	1.91345
0.8765	3.52478
0.877	4.12903
0.8775	5.63965
0.878	3.7262
0.8785	4.12903
0.879	0.20142
0.8795	-3.02124
0.88	1.51062
0.8805	-1.81274
0.881	-3.7262
0.8815	-1.10779
0.882	-0.20142
0.8825	8.05664
0.883	3.12195
0.8835	6.04248
0.884	9.36584
0.8845	4.43115
0.885	3.42407
0.8855	5.43823
0.886	7.95593
0.8865	6.54602
0.887	5.23682
0.8875	8.25806
0.888	2.21558
0.8885	8.45947
0.889	5.94177
0.8895	7.25098
0.89	-2.01416
0.8905	5.13611
0.891	5.74036
0.8915	7.04956
0.892	6.84814
0.8925	0.70496
0.893	2.41699
0.8935	3.12195
0.894	4.43115
0.8945	8.56018
0.895	6.2439
0.8955	3.12195
0.896	5.13611
0.8965	10.27222
0.897	1.81274
0.8975	5.13611
0.898	8.66089
0.8985	8.66089
0.899	5.84106
0.8995	4.63257
0.9	9.36584
0.9005	6.64673
0.901	4.33044
0.9015	5.23682
0.902	8.8623
0.9025	10.37292
0.903	7.5531
0.9035	8.15735
0.904	4.63257
0.9045	5.13611
0.905	6.64673
0.9055	2.41699
0.906	0.70496
0.9065	5.0354
0.907	6.64673
0.9075	8.45947
0.908	6.74744
0.9085	10.77576
0.909	6.74744
0.9095	1.40991
0.91	5.43823
0.9105	8.25806
0.911	8.35876
0.9115	6.3446
0.912	6.94885
0.9125	7.85522
0.913	10.27222
0.9135	5.94177
0.914	5.63965
0.9145	0.50354
0.915	5.53894
0.9155	7.65381
0.916	6.74744
0.9165	4.43115
0.917	5.53894
0.9175	3.12195
0.918	5.33752
0.9185	5.63965
0.919	8.05664
0.9195	7.04956
0.92	5.53894
0.9205	3.22266
0.921	6.14319
0.9215	2.11487
0.922	4.12903
0.9225	4.43115
0.923	6.84814
0.9235	0.80566
0.924	3.92761
0.9245	4.73328
0.925	6.64673
0.9255	9.46655
0.926	14.60266
0.9265	9.16443
0.927	7.5531
0.9275	3.92761
0.928	2.31628
0.9285	3.02124
0.929	6.74744
0.9295	8.56018
0.93	7.04956
0.9305	7.25098
0.931	7.04956
0.9315	8.66089
0.932	14.70337
0.9325	11.58142
0.933	13.59558
0.9335	6.84814
0.934	7.04956
0.9345	7.5531
0.935	6.54602
0.9355	8.66089
0.936	4.83398
0.9365	11.07788
0.937	10.17151
0.9375	12.48779
0.938	8.35876
0.9385	13.19275
0.939	15.91187
0.9395	19.33594
0.94	11.78284
0.9405	15.91187
0.941	12.99133
0.9415	15.71045
0.942	16.81824
0.9425	15.71045
0.943	9.66797
0.9435	9.76868
0.944	12.89062
0.9445	13.39417
0.945	8.05664
0.9455	9.46655
0.946	12.89062
0.9465	12.68921
0.947	11.88354
0.9475	7.15027
0.948	8.66089
0.9485	12.78992
0.949	6.14319
0.9495	3.42407
0.95	8.66089
0.9505	-0.90637
0.951	3.92761
0.9515	6.44531
0.952	5.43823
0.9525	3.62549
0.953	8.96301
0.9535	6.44531
0.954	1.81274
0.9545	3.12195
0.955	6.14319
0.9555	8.45947
0.956	8.15735
0.9565	11.07788
0.957	7.04956
0.9575	6.84814
0.958	10.47363
0.9585	1.61133
0.959	1.81274
0.9595	3.12195
0.96	5.63965
0.9605	6.44531
0.961	5.84106
0.9615	3.7262
0.962	1.91345
0.9625	-1.2085
0.963	6.74744
0.9635	3.92761
0.964	7.65381
0.9645	5.63965
0.965	7.85522
0.9655	1.3092
0.966	6.74744
0.9665	9.06372
0.967	5.84106
0.9675	6.04248
0.968	3.8269
0.9685	3.12195
0.969	5.63965
0.9695	1.3092
0.97	1.91345
0.9705	-0.60425
0.971	-0.40283
0.9715	4.73328
0.972	2.41699
0.9725	6.04248
0.973	3.02124
0.9735	1.00708
0.974	-4.33044
0.9745	-1.00708
0.975	6.2439
0.9755	9.06372
0.976	2.71912
0.9765	6.14319
0.977	3.8269
0.9775	6.64673
0.978	6.44531
0.9785	5.33752
0.979	7.35168
0.9795	5.84106
0.98	7.15027
0.9805	6.64673
0.981	1.51062
0.9815	2.11487
0.982	3.22266
0.9825	-0.80566
0.983	1.10779
0.9835	10.97717
0.984	5.23682
0.9845	6.74744
0.985	4.93469
0.9855	7.25098
0.986	3.02124
0.9865	4.73328
0.987	11.58142
0.9875	8.15735
0.988	4.83398
0.9885	10.77576
0.989	4.53186
0.9895	10.97717
0.99	5.33752
0.9905	5.43823
0.991	2.41699
0.9915	1.81274
0.992	3.22266
0.9925	1.81274
0.993	3.52478
0.9935	9.66797
0.994	7.5531
0.9945	7.45239
0.995	3.12195
0.9955	6.54602
0.996	5.53894
0.9965	3.62549
0.997	3.32336
0.9975	0.50354
0.998	3.32336
0.9985	3.8269
0.999	3.92761
0.9995	5.33752
1	2.21558
1.0005	6.84814
1.001	9.06372
1.0015	4.43115
1.002	10.47363
1.0025	7.35168
1.003	10.27222
1.0035	7.15027
1.004	10.0708
1.0045	8.66089
1.005	7.25098
1.0055	8.66089
1.006	5.53894
1.0065	6.44531
1.007	6.44531
1.0075	2.71912
1.008	5.13611
1.0085	7.85522
1.009	3.62549
1.0095	7.45239
1.01	4.33044
1.0105	6.3446
1.011	3.32336
1.0115	2.5177
1.012	-1.61133
1.0125	-0.50354
1.013	2.41699
1.0135	1.00708
1.014	0.20142
1.0145	2.31628
1.015	8.05664
1.0155	6.54602
1.016	-1.00708
1.0165	1.10779
1.017	6.3446
1.0175	5.53894
1.018	0.60425
1.0185	-2.92053
1.019	1.61133
1.0195	5.84106
1.02	4.43115
1.0205	5.43823
1.021	7.04956
1.0215	5.13611
1.022	1.10779
1.0225	-1.81274
1.023	6.44531
1.0235	6.54602
1.024	8.96301
1.0245	2.61841
1.025	1.71204
1.0255	2.31628
1.026	2.11487
1.0265	1.2085
1.027	2.11487
1.0275	6.84814
1.028	2.11487
1.0285	5.13611
1.029	3.7262
1.0295	8.66089
1.03	7.15027
1.0305	8.45947
1.031	6.94885
1.0315	5.84106
1.032	2.31628
1.0325	7.15027
1.033	2.11487
1.0335	10.27222
1.034	4.22974
1.0345	3.7262
1.035	4.53186
1.0355	4.93469
1.036	5.43823
1.0365	5.84106
1.037	7.5531
1.0375	3.62549
1.038	4.02832
1.0385	2.5177
1.039	4.63257
1.0395	1.91345
1.04	8.7616
1.0405	7.85522
1.041	3.62549
1.0415	5.13611
1.042	9.86938
1.0425	11.48071
1.043	11.17859
1.0435	6.84814
1.044	5.74036
1.0445	4.73328
1.045	6.3446
1.0455	3.32336
1.046	1.40991
1.0465	0.20142
1.047	2.21558
1.0475	2.81982
1.048	-1.00708
1.0485	3.42407
1.049	5.74036
1.0495	3.62549
1.05	6.74744
1.0505	2.92053
1.051	1.91345
1.0515	6.2439
1.052	2.81982
1.0525	0.30212
1.053	4.63257
1.0535	5.23682
1.054	0.60425
1.0545	-1.2085
1.055	2.11487
1.0555	7.35168
1.056	9.16443
1.0565	6.3446
1.057	6.44531
1.0575	4.93469
1.058	1.3092
1.0585	10.37292
1.059	11.17859
1.0595	5.43823
1.06	4.43115
1.0605	6.14319
1.061	3.02124
1.0615	10.0708
1.062	7.5531
1.0625	10.0708
1.063	1.3092
1.0635	5.23682
1.064	1.81274
1.0645	6.84814
1.065	5.13611
1.0655	6.94885
1.066	5.53894
1.0665	8.15735
1.067	4.93469
1.0675	4.93469
1.068	13.89771
1.0685	10.17151
1.069	8.8623
1.0695	4.43115
1.07	6.84814
1.0705	2.92053
1.071	6.14319
1.0715	7.15027
1.072	6.44531
1.0725	7.15027
1.073	10.37292
1.0735	7.25098
1.074	0.40283
1.0745	-0.30212
1.075	4.43115
1.0755	4.53186
1.076	2.41699
1.0765	2.92053
1.077	4.93469
1.0775	-2.5177
1.078	0.90637
1.0785	-1.61133
1.079	0.90637
1.0795	-2.61841
1.08	-2.01416
1.0805	1.00708
1.081	-1.2085
1.0815	3.62549
1.082	-0.50354
1.0825	3.92761
1.083	0.20142
1.0835	4.33044
1.084	4.22974
1.0845	3.62549
1.085	3.42407
1.0855	3.92761
1.086	3.32336
1.0865	3.42407
1.087	5.74036
1.0875	1.40991
1.088	4.83398
1.0885	7.04956
1.089	1.61133
1.0895	6.44531
1.09	5.84106
1.0905	6.64673
1.091	5.53894
1.0915	10.47363
1.092	4.12903
1.0925	1.10779
1.093	3.42407
1.0935	2.21558
1.094	2.31628
1.0945	5.94177
1.095	2.71912
1.0955	2.5177
1.096	7.15027
1.0965	6.54602
1.097	5.0354
1.0975	2.92053
1.098	2.31628
1.0985	3.62549
1.099	5.0354
1.0995	4.93469
1.1	1.10779
1.1005	2.81982
1.101	-0.30212
1.1015	1.61133
1.102	5.74036
1.1025	2.41699
1.103	5.53894
1.1035	4.53186
1.104	8.15735
1.1045	7.85522
1.105	8.8623
1.1055	4.83398
1.106	7.15027
1.1065	5.23682
1.107	2.71912
1.1075	4.02832
1.108	10.0708
1.1085	4.43115
1.109	6.3446
1.1095	0.90637
1.11	2.61841
1.1105	5.33752
1.111	3.52478
1.1115	9.66797
1.112	6.3446
1.1125	3.92761
1.113	5.53894
1.1135	7.04956
1.114	6.14319
1.1145	11.48071
1.115	13.29346
1.1155	10.0708
1.116	12.38708
1.1165	9.36584
1.117	10.0708
1.1175	7.5531
1.118	9.97009
1.1185	6.44531
1.119	7.5531
1.1195	4.73328
1.12	10.27222
1.1205	13.797
1.121	10.27222
1.1215	12.78992
1.122	12.28638
1.1225	7.65381
1.123	3.42407
1.1235	5.0354
1.124	3.42407
1.1245	4.93469
1.125	2.61841
1.1255	10.77576
1.126	7.65381
1.1265	6.3446
1.127	5.43823
1.1275	9.86938
1.128	9.26514
1.1285	5.43823
1.129	8.35876
1.1295	8.25806
1.13	8.45947
1.1305	10.47363
1.131	7.75452
1.1315	9.76868
1.132	6.3446
1.1325	5.23682
1.133	5.33752
1.1335	5.63965
1.134	6.84814
1.1345	9.66797
1.135	8.45947
1.1355	0.70496
1.136	3.22266
1.1365	1.2085
1.137	0.20142
1.1375	7.25098
1.138	1.71204
1.1385	4.02832
1.139	6.2439
1.1395	3.62549
1.14	7.85522
1.1405	6.14319
1.141	7.45239
1.1415	11.38
1.142	11.78284
1.1425	7.04956
1.143	1.40991
1.1435	2.5177
1.144	-0.90637
1.1445	3.22266
1.145	3.7262
1.1455	3.12195
1.146	3.02124
1.1465	2.61841
1.147	2.11487
1.1475	2.31628
1.148	6.14319
1.1485	8.05664
1.149	7.95593
1.1495	6.94885
1.15	6.2439
1.1505	1.91345
1.151	1.71204
1.1515	2.61841
1.152	2.92053
1.1525	4.33044
1.153	8.15735
1.1535	11.07788
1.154	5.33752
1.1545	2.11487
1.155	4.33044
1.1555	2.61841
1.156	2.41699
1.1565	5.43823
1.157	6.74744
1.1575	3.8269
1.158	6.44531
1.1585	11.68213
1.159	12.89062
1.1595	8.05664
1.16	7.65381
1.1605	9.36584
1.161	1.3092
1.1615	2.81982
1.162	10.0708
1.1625	2.41699
1.163	6.2439
1.1635	5.23682
1.164	4.73328
1.1645	4.43115
1.165	5.63965
1.1655	8.56018
1.166	6.44531
1.1665	7.25098
1.167	8.45947
1.1675	10.47363
1.168	12.78992
1.1685	4.33044
1.169	8.15735
1.1695	10.57434
1.17	1.81274
1.1705	2.92053
1.171	2.5177
1.1715	3.42407
1.172	5.43823
1.1725	8.56018
1.173	8.66089
1.1735	5.23682
1.174	7.25098
1.1745	5.13611
1.175	7.95593
1.1755	4.63257
1.176	7.45239
1.1765	4.73328
1.177	1.61133
1.1775	-1.91345
1.178	-4.22974
1.1785	-3.42407
1.179	0.80566
1.1795	-1.2085
1.18	3.7262
1.1805	5.53894
1.181	2.21558
1.1815	0.30212
1.182	5.84106
1.1825	8.56018
1.183	1.3092
1.1835	8.56018
1.184	8.35876
1.1845	7.15027
1.185	4.93469
1.1855	6.44531
1.186	5.63965
1.1865	4.73328
1.187	3.32336
1.1875	12.78992
1.188	9.36584
1.1885	13.99841
1.189	6.64673
1.1895	13.49487
1.19	11.38
1.1905	7.65381
1.191	7.65381
1.1915	7.95593
1.192	3.8269
1.1925	6.04248
1.193	7.45239
1.1935	8.05664
1.194	5.94177
1.1945	5.84106
1.195	9.97009
1.1955	9.76868
1.196	-1.61133
1.1965	6.3446
1.197	4.12903
1.1975	3.02124
1.198	11.07788
1.1985	5.84106
1.199	9.56726
1.1995	0.70496
1.2	7.45239
1.2005	0
1.201	9.86938
1.2015	6.3446
1.202	12.68921
1.2025	8.05664
1.203	11.58142
1.2035	11.17859
1.204	13.89771
1.2045	15.71045
1.205	6.74744
1.2055	12.28638
1.206	9.56726
1.2065	11.07788
1.207	2.41699
1.2075	12.78992
1.208	11.58142
1.2085	10.87646
1.209	4.22974
1.2095	6.84814
1.21	7.25098
1.2105	5.94177
1.211	6.14319
1.2115	4.22974
1.212	1.71204
1.2125	5.84106
1.213	7.25098
1.2135	4.63257
1.214	7.35168
1.2145	5.13611
1.215	7.95593
1.2155	4.83398
1.216	8.66089
1.2165	6.74744
1.217	1.81274
1.2175	7.95593
1.218	9.76868
1.2185	6.14319
1.219	8.45947
1.2195	3.62549
1.22	7.75452
1.2205	3.62549
1.221	5.43823
1.2215	7.5531
1.222	5.53894
1.2225	8.8623
1.223	3.8269
1.2235	6.14319
1.224	2.92053
1.2245	6.44531
1.225	11.68213
1.2255	2.61841
1.226	6.04248
1.2265	2.92053
1.227	7.15027
1.2275	8.8623
1.228	6.54602
1.2285	5.84106
1.229	9.16443
1.2295	10.37292
1.23	5.94177
1.2305	3.62549
1.231	6.54602
1.2315	4.63257
1.232	2.41699
1.2325	3.7262
1.233	8.56018
1.2335	7.65381
1.234	7.35168
1.2345	6.94885
1.235	1.2085
1.2355	7.04956
1.236	7.04956
1.2365	5.13611
1.237	0.70496
1.2375	2.31628
1.238	4.33044
1.2385	2.5177
1.239	5.74036
1.2395	3.92761
1.24	8.15735
1.2405	3.92761
1.241	2.81982
1.2415	3.52478
1.242	6.3446
1.2425	7.45239
1.243	4.02832
1.2435	6.44531
1.244	1.81274
1.2445	3.92761
1.245	1.40991
1.2455	4.02832
1.246	9.46655
1.2465	5.23682
1.247	4.73328
1.2475	4.83398
1.248	2.81982
1.2485	4.33044
1.249	3.8269
1.2495	4.93469
1.25	3.22266
1.2505	-0.20142
1.251	3.42407
1.2515	2.61841
1.252	0.50354
1.2525	0.10071
1.253	-0.50354
1.2535	5.74036
1.254	1.40991
1.2545	2.61841
1.255	-0.80566
1.2555	2.81982
1.256	1.71204
1.2565	2.11487
1.257	4.73328
1.2575	4.93469
1.258	2.41699
1.2585	5.43823
1.259	3.02124
1.2595	4.22974
1.26	2.5177
1.2605	6.44531
1.261	7.65381
1.2615	12.18567
1.262	2.92053
1.2625	6.64673
1.263	9.86938
1.2635	9.36584
1.264	13.59558
1.2645	6.94885
1.265	7.65381
1.2655	11.98425
1.266	15.30762
1.2665	9.97009
1.267	12.08496
1.2675	11.68213
1.268	11.17859
1.2685	12.08496
1.269	7.45239
1.2695	2.41699
1.27	1.91345
1.2705	6.3446
1.271	4.12903
1.2715	6.04248
1.272	6.94885
1.2725	1.81274
1.273	2.31628
1.2735	4.43115
1.274	6.54602
1.2745	9.66797
1.275	0.10071
1.2755	1.3092
1.276	7.65381
1.2765	2.5177
1.277	2.41699
1.2775	-0.70496
1.278	2.01416
1.2785	0.40283
1.279	6.54602
1.2795	1.00708
1.28	1.81274
1.2805	-3.8269
1.281	-0.70496
1.2815	1.71204
1.282	0.50354
1.2825	0.90637
1.283	3.02124
1.2835	6.44531
1.284	4.02832
1.2845	0.10071
1.285	0.10071
1.2855	3.12195
1.286	3.52478
1.2865	5.74036
1.287	1.10779
1.2875	3.32336
1.288	7.45239
1.2885	6.94885
1.289	9.76868
1.2895	8.05664
1.29	4.93469
1.2905	0.70496
1.291	5.94177
1.2915	6.94885
1.292	3.62549
1.2925	4.33044
1.293	1.40991
1.2935	1.2085
1.294	8.05664
1.2945	4.12903
1.295	-0.70496
1.2955	3.7262
1.296	3.8269
1.2965	1.40991
1.297	0.30212
1.2975	2.61841
1.298	-1.61133
1.2985	1.00708
1.299	0.80566
1.2995	6.94885
1.3	3.22266
1.3005	-0.60425
1.301	2.41699
1.3015	2.11487
1.302	2.21558
1.3025	7.45239
1.303	7.5531
1.3035	3.8269
1.304	2.61841
1.3045	2.11487
1.305	1.81274
1.3055	5.53894
1.306	2.31628
1.3065	4.53186
1.307	1.2085
1.3075	5.23682
1.308	0.10071
1.3085	0.60425
1.309	1.00708
1.3095	3.7262
1.31	2.31628
1.3105	1.00708
1.311	4.53186
1.3115	3.32336
1.312	3.8269
1.3125	1.00708
1.313	6.44531
1.3135	8.25806
1.314	5.63965
1.3145	5.53894
1.315	7.35168
1.3155	4.83398
1.316	4.83398
1.3165	9.36584
1.317	7.95593
1.3175	5.53894
1.318	5.13611
1.3185	11.07788
1.319	7.15027
1.3195	5.23682
1.32	1.61133
1.3205	6.2439
1.321	4.12903
1.3215	7.04956
1.322	5.94177
1.3225	2.5177
1.323	5.43823
1.3235	0.50354
1.324	2.01416
1.3245	7.35168
1.325	3.92761
1.3255	3.12195
1.326	7.35168
1.3265	11.88354
1.327	8.45947
1.3275	5.53894
1.328	4.53186
1.3285	8.7616
1.329	1.81274
1.3295	8.7616
1.33	1.61133
1.3305	6.54602
1.331	5.74036
1.3315	6.74744
1.332	13.49487
1.3325	7.25098
1.333	4.43115
1.3335	3.62549
1.334	4.22974
1.3345	5.74036
1.335	4.63257
1.3355	5.43823
1.336	4.93469
1.3365	3.22266
1.337	5.23682
1.3375	6.94885
1.338	7.95593
1.3385	2.92053
1.339	3.12195
1.3395	5.63965
1.34	6.84814
1.3405	7.04956
1.341	6.04248
1.3415	4.02832
1.342	7.25098
1.3425	3.52478
1.343	3.62549
1.3435	7.25098
1.344	3.42407
1.3445	6.64673
1.345	5.13611
1.3455	7.45239
1.346	11.2793
1.3465	6.84814
1.347	4.73328
1.3475	6.2439
1.348	7.95593
1.3485	7.65381
1.349	1.2085
1.3495	5.23682
1.35	7.5531
1.3505	2.81982
1.351	1.61133
1.3515	2.81982
1.352	6.74744
1.3525	3.22266
1.353	6.3446
1.3535	2.92053
1.354	2.92053
1.3545	3.7262
1.355	7.25098
1.3555	7.15027
1.356	8.05664
1.3565	5.33752
1.357	2.5177
1.3575	3.8269
1.358	1.40991
1.3585	5.23682
1.359	5.43823
1.3595	5.0354
1.36	-0.50354
1.3605	0.20142
1.361	3.22266
1.3615	0.20142
1.362	7.25098
1.3625	5.43823
1.363	8.7616
1.3635	1.51062
1.364	2.31628
1.3645	0.60425
1.365	0.20142
1.3655	4.12903
1.366	6.54602
1.3665	1.71204
1.367	6.74744
1.3675	8.25806
1.368	4.93469
1.3685	7.15027
1.369	6.3446
1.3695	5.43823
1.37	4.02832
1.3705	6.64673
1.371	8.35876
1.3715	6.74744
1.372	5.33752
1.3725	9.76868
1.373	7.15027
1.3735	11.17859
1.374	10.17151
1.3745	5.33752
1.375	9.26514
1.3755	9.86938
1.376	7.85522
1.3765	9.36584
1.377	8.45947
1.3775	7.65381
1.378	12.38708
1.3785	12.5885
1.379	11.17859
1.3795	8.8623
1.38	5.33752
1.3805	1.3092
1.381	4.43115
1.3815	5.13611
1.382	9.16443
1.3825	5.33752
1.383	7.5531
1.3835	7.45239
1.384	11.17859
1.3845	4.83398
1.385	7.25098
1.3855	3.92761
1.386	8.56018
1.3865	6.2439
1.387	6.84814
1.3875	2.41699
1.388	3.52478
1.3885	3.22266
1.389	0.60425
1.3895	8.66089
1.39	7.65381
1.3905	7.65381
1.391	2.92053
1.3915	3.8269
1.392	0.30212
1.3925	6.2439
1.393	6.14319
1.3935	6.84814
1.394	3.22266
1.3945	-0.70496
1.395	0.20142
1.3955	5.0354
1.396	1.81274
1.3965	3.62549
1.397	4.73328
1.3975	9.66797
1.398	5.33752
1.3985	3.22266
1.399	4.22974
1.3995	1.51062
1.4	6.94885
1.4005	3.52478
1.401	3.52478
1.4015	5.13611
1.402	10.17151
1.4025	4.93469
1.403	4.12903
1.4035	-0.70496
1.404	-1.2085
1.4045	3.92761
1.405	6.64673
1.4055	-0.20142
1.406	9.97009
1.4065	4.53186
1.407	4.22974
1.4075	4.12903
1.408	3.42407
1.4085	6.64673
1.409	5.53894
1.4095	5.53894
1.41	4.73328
1.4105	7.25098
1.411	3.52478
1.4115	9.26514
1.412	3.8269
1.4125	-0.70496
1.413	5.23682
1.4135	8.96301
1.414	0.10071
1.4145	2.5177
1.415	7.85522
1.4155	5.0354
1.416	-4.22974
1.4165	1.91345
1.417	1.2085
1.4175	3.7262
1.418	5.33752
1.4185	1.3092
1.419	3.12195
1.4195	4.93469
1.42	8.8623
1.4205	8.45947
1.421	6.2439
1.4215	5.23682
1.422	8.96301
1.4225	8.15735
1.423	4.02832
1.4235	5.63965
1.424	7.35168
1.4245	6.04248
1.425	3.8269
1.4255	3.7262
1.426	0.20142
1.4265	-1.00708
1.427	-0.50354
1.4275	1.10779
1.428	0.40283
1.4285	-0.70496
1.429	-1.10779
1.4295	-1.00708
1.43	0.40283
1.4305	5.53894
1.431	8.45947
1.4315	5.94177
1.432	6.94885
1.4325	8.15735
1.433	4.63257
1.4335	3.62549
1.434	8.8623
1.4345	7.35168
1.435	10.27222
1.4355	14.50195
1.436	4.73328
1.4365	4.12903
1.437	7.04956
1.4375	1.3092
1.438	7.04956
1.4385	7.35168
1.439	1.71204
1.4395	3.62549
1.44	0.50354
1.4405	4.43115
1.441	9.36584
1.4415	7.75452
1.442	8.7616
1.4425	2.61841
1.443	5.33752
1.4435	10.27222
1.444	7.95593
1.4445	9.06372
1.445	7.25098
1.4455	3.12195
1.446	5.23682
1.4465	3.22266
1.447	5.13611
1.4475	4.73328
1.448	4.12903
1.4485	8.8623
1.449	9.76868
1.4495	6.04248
1.45	3.92761
1.4505	4.53186
1.451	9.66797
1.4515	7.65381
1.452	3.8269
1.4525	4.63257
1.453	-1.81274
1.4535	2.81982
1.454	2.01416
1.4545	4.43115
1.455	6.74744
1.4555	0
1.456	1.91345
1.4565	3.8269
1.457	5.43823
1.4575	5.0354
1.458	4.33044
1.4585	2.31628
1.459	10.57434
1.4595	3.92761
1.46	6.04248
1.4605	2.92053
1.461	8.66089
1.4615	5.53894
1.462	3.7262
1.4625	1.40991
1.463	8.25806
1.4635	4.93469
1.464	8.8623
1.4645	6.44531
1.465	5.94177
1.4655	4.73328
1.466	2.11487
1.4665	7.75452
1.467	5.63965
1.4675	7.95593
1.468	10.17151
1.4685	8.15735
1.469	11.17859
1.4695	8.45947
1.47	4.63257
1.4705	6.04248
1.471	2.71912
1.4715	4.12903
1.472	8.35876
1.4725	7.95593
1.473	8.15735
1.4735	7.65381
1.474	3.52478
1.4745	8.35876
1.475	12.08496
1.4755	7.35168
1.476	8.66089
1.4765	11.68213
1.477	12.5885
1.4775	5.43823
1.478	8.35876
1.4785	12.89062
1.479	2.71912
1.4795	4.73328
1.48	0.60425
1.4805	5.63965
1.481	3.52478
1.4815	8.05664
1.482	7.04956
1.4825	8.66089
1.483	2.01416
1.4835	2.31628
1.484	3.8269
1.4845	8.15735
1.485	7.65381
1.4855	6.84814
1.486	5.23682
1.4865	5.13611
1.487	9.16443
1.4875	6.3446
1.488	5.43823
1.4885	8.66089
1.489	2.92053
1.4895	8.7616
1.49	13.69629
1.4905	4.22974
1.491	7.85522
1.4915	2.41699
1.492	6.44531
1.4925	6.74744
1.493	7.5531
1.4935	6.2439
1.494	3.92761
1.4945	-1.61133
1.495	7.85522
1.4955	1.61133
1.496	9.86938
1.4965	8.7616
1.497	1.2085
1.4975	3.42407
1.498	3.02124
1.4985	-0.80566
1.499	4.43115
1.4995	8.35876
1.5	4.22974
1.5005	3.12195
1.501	6.14319
1.5015	6.64673
1.502	2.71912
1.5025	-2.41699
1.503	2.71912
1.5035	2.61841
1.504	7.75452
1.5045	5.53894
1.505	5.63965
1.5055	7.35168
1.506	8.56018
1.5065	5.0354
1.507	9.16443
1.5075	6.54602
1.508	4.33044
1.5085	8.05664
1.509	2.31628
1.5095	5.23682
1.51	-0.90637
1.5105	-1.2085
1.511	5.13611
1.5115	4.22974
1.512	7.15027
1.5125	4.22974
1.513	5.84106
1.5135	4.12903
1.514	2.81982
1.5145	9.36584
1.515	7.65381
1.5155	10.97717
1.516	10.47363
1.5165	4.93469
1.517	3.22266
1.5175	1.3092
1.518	3.92761
1.5185	3.22266
1.519	1.40991
1.5195	5.0354
1.52	3.52478
1.5205	3.52478
1.521	3.8269
1.5215	-3.22266
1.522	-0.50354
1.5225	-2.71912
1.523	4.33044
1.5235	2.61841
1.524	8.35876
1.5245	2.61841
1.525	8.35876
1.5255	0.90637
1.526	4.22974
1.5265	8.35876
1.527	2.81982
1.5275	6.04248
1.528	2.81982
1.5285	4.02832
1.529	3.7262
1.5295	2.21558
1.53	3.7262
1.5305	4.12903
1.531	6.94885
1.5315	5.23682
1.532	4.12903
1.5325	6.44531
1.533	6.04248
1.5335	10.17151
1.534	9.06372
1.5345	6.64673
1.535	12.38708
1.5355	5.23682
1.536	-0.10071
1.5365	-0.10071
1.537	3.52478
1.5375	3.62549
1.538	-2.92053
1.5385	6.2439
1.539	4.63257
1.5395	5.53894
1.54	7.04956
1.5405	4.63257
1.541	4.53186
1.5415	7.75452
1.542	3.22266
1.5425	3.62549
1.543	8.8623
1.5435	7.25098
1.544	4.83398
1.5445	4.22974
1.545	7.45239
1.5455	-0.90637
1.546	4.33044
1.5465	4.02832
1.547	6.84814
1.5475	0.60425
1.548	3.52478
1.5485	1.00708
1.549	1.3092
1.5495	-0.40283
1.55	7.15027
1.5505	7.45239
1.551	3.42407
1.5515	4.73328
1.552	3.8269
1.5525	-0.10071
1.553	2.31628
1.5535	2.31628
1.554	-1.71204
1.5545	3.22266
1.555	3.8269
1.5555	6.54602
1.556	1.91345
1.5565	2.61841
1.557	-0.30212
1.5575	0.50354
1.558	1.3092
1.5585	3.52478
1.559	2.01416
1.5595	3.42407
1.56	2.71912
1.5605	3.02124
1.561	3.62549
1.5615	1.91345
1.562	4.93469
1.5625	7.85522
1.563	7.95593
1.5635	10.0708
1.564	7.75452
1.5645	5.43823
1.565	8.8623
1.5655	6.54602
1.566	8.56018
1.5665	3.32336
1.567	8.05664
1.5675	8.8623
1.568	6.54602
1.5685	8.8623
1.569	4.73328
1.5695	8.35876
1.57	8.15735
1.5705	10.87646
1.571	9.06372
1.5715	5.74036
1.572	10.47363
1.5725	6.04248
1.573	6.04248
1.5735	7.15027
1.574	10.37292
1.5745	9.97009
1.575	10.27222
1.5755	4.02832
1.576	4.93469
1.5765	7.65381
1.577	4.93469
1.5775	4.43115
1.578	7.95593
1.5785	13.39417
1.579	11.2793
1.5795	5.0354
1.58	9.36584
1.5805	6.94885
1.581	-0.20142
1.5815	6.94885
1.582	7.65381
1.5825	4.73328
1.583	8.15735
1.5835	6.44531
1.584	8.96301
1.5845	7.75452
1.585	5.13611
1.5855	6.44531
1.586	1.81274
1.5865	2.01416
1.587	3.62549
1.5875	3.22266
1.588	4.53186
1.5885	2.81982
1.589	5.13611
1.5895	2.31628
1.59	7.65381
1.5905	2.61841
1.591	2.41699
1.5915	8.56018
1.592	5.94177
1.5925	3.12195
1.593	1.00708
1.5935	1.81274
1.594	8.15735
1.5945	8.35876
1.595	4.93469
1.5955	3.7262
1.596	0.70496
1.5965	7.95593
1.597	3.62549
1.5975	8.05664
1.598	4.22974
1.5985	5.63965
1.599	7.15027
1.5995	3.12195
1.6	9.46655
1.6005	6.44531
1.601	7.15027
1.6015	11.2793
1.602	13.89771
1.6025	12.18567
1.603	8.35876
1.6035	5.84106
1.604	10.47363
1.6045	2.11487
1.605	11.78284
1.6055	7.5531
1.606	7.45239
1.6065	7.25098
1.607	9.66797
1.6075	12.78992
1.608	9.36584
1.6085	7.15027
1.609	15.91187
1.6095	10.87646
1.61	6.64673
1.6105	5.33752
1.611	7.04956
1.6115	11.98425
1.612	9.16443
1.6125	11.07788
1.613	12.08496
1.6135	8.66089
1.614	9.06372
1.6145	7.04956
1.615	5.43823
1.6155	9.56726
1.616	9.66797
1.6165	16.01257
1.617	8.8623
1.6175	10.47363
1.618	15.1062
1.6185	13.797
1.619	16.41541
1.6195	10.47363
1.62	6.74744
1.6205	10.97717
1.621	8.96301
1.6215	10.17151
1.622	9.16443
1.6225	6.74744
1.623	7.15027
1.6235	8.05664
1.624	3.8269
1.6245	2.31628
1.625	7.15027
1.6255	7.5531
1.626	7.15027
1.6265	6.14319
1.627	2.41699
1.6275	6.44531
1.628	9.86938
1.6285	4.73328
1.629	4.93469
1.6295	2.21558
1.63	1.61133
1.6305	3.22266
1.631	4.83398
1.6315	0.10071
1.632	2.81982
1.6325	6.3446
1.633	0.50354
1.6335	0.30212
1.634	7.65381
1.6345	6.44531
1.635	-1.40991
1.6355	3.02124
1.636	3.92761
1.6365	1.10779
1.637	-1.71204
1.6375	4.12903
1.638	1.3092
1.6385	4.02832
1.639	0.20142
1.6395	2.21558
1.64	4.73328
1.6405	2.71912
1.641	4.63257
1.6415	3.52478
1.642	5.74036
1.6425	-0.90637
1.643	8.45947
1.6435	0
1.644	3.02124
1.6445	-7.04956
1.645	1.71204
1.6455	2.61841
1.646	0.70496
1.6465	0.20142
1.647	3.02124
1.6475	4.93469
1.648	-3.7262
1.6485	3.22266
1.649	0.90637
1.6495	6.14319
1.65	4.22974
1.6505	1.51062
1.651	6.54602
1.6515	4.93469
1.652	1.61133
1.6525	3.62549
1.653	1.61133
1.6535	0.40283
1.654	2.61841
1.6545	1.3092
1.655	0
1.6555	0.60425
1.656	6.14319
1.6565	6.54602
1.657	3.62549
1.6575	8.8623
1.658	1.3092
1.6585	0.70496
1.659	7.85522
1.6595	8.25806
1.66	8.45947
1.6605	4.33044
1.661	2.61841
1.6615	-0.90637
1.662	-3.22266
1.6625	-1.71204
1.663	1.3092
1.6635	1.91345
1.664	4.02832
1.6645	3.92761
1.665	-2.92053
1.6655	4.22974
1.666	1.71204
1.6665	-4.43115
1.667	-8.35876
1.6675	-1.40991
1.668	-2.92053
1.6685	3.8269
1.669	3.62549
1.6695	4.63257
1.67	6.44531
1.6705	2.92053
1.671	0.50354
1.6715	0.60425
1.672	-0.60425
1.6725	1.91345
1.673	2.5177
1.6735	0.40283
1.674	3.22266
1.6745	7.45239
1.675	4.43115
1.6755	8.15735
1.676	14.60266
1.6765	11.48071
1.677	11.07788
1.6775	10.77576
1.678	12.99133
1.6785	13.89771
1.679	11.68213
1.6795	10.77576
1.68	9.66797
1.6805	9.46655
1.681	8.96301
1.6815	10.47363
1.682	8.05664
1.6825	8.8623
1.683	4.33044
1.6835	7.04956
1.684	2.5177
1.6845	3.02124
1.685	-0.20142
1.6855	1.00708
1.686	1.61133
1.6865	4.02832
1.687	0.70496
1.6875	1.51062
1.688	-0.80566
1.6885	-3.12195
1.689	1.61133
1.6895	-0.90637
1.69	-3.42407
1.6905	-0.60425
1.691	-1.71204
1.6915	-2.5177
1.692	0.90637
1.6925	-0.50354
1.693	-3.02124
1.6935	-0.70496
1.694	4.53186
1.6945	7.5531
1.695	6.54602
1.6955	9.86938
1.696	8.7616
1.6965	9.56726
1.697	13.39417
1.6975	14.30054
1.698	19.43665
1.6985	17.6239
1.699	16.51611
1.6995	18.32886
1.7	20.24231
1.7005	26.28479
1.701	24.57275
1.7015	20.54443
1.702	17.42249
1.7025	18.93311
1.703	14.40125
1.7035	11.2793
1.704	8.8623
1.7045	10.27222
1.705	7.04956
1.7055	5.94177
1.706	10.67505
1.7065	8.05664
1.707	5.43823
1.7075	12.38708
1.708	10.37292
1.7085	8.05664
1.709	5.13611
1.7095	2.71912
1.71	6.54602
1.7105	5.33752
1.711	0.40283
1.7115	3.32336
1.712	8.25806
1.7125	6.2439
1.713	4.93469
1.7135	4.22974
1.714	-1.81274
1.7145	2.21558
1.715	1.51062
1.7155	1.81274
1.716	-1.10779
1.7165	1.71204
1.717	4.43115
1.7175	8.7616
1.718	3.32336
1.7185	6.3446
1.719	6.14319
1.7195	6.14319
1.72	1.40991
1.7205	1.91345
1.721	5.53894
1.7215	10.67505
1.722	3.92761
1.7225	5.43823
1.723	7.5531
1.7235	5.94177
1.724	7.85522
1.7245	6.3446
1.725	5.53894
1.7255	3.32336
1.726	1.61133
1.7265	5.0354
1.727	3.52478
1.7275	3.02124
1.728	6.84814
1.7285	4.63257
1.729	8.35876
1.7295	9.56726
1.73	11.88354
1.7305	13.29346
1.731	10.77576
1.7315	2.71912
1.732	6.2439
1.7325	3.32336
1.733	4.83398
1.7335	3.12195
1.734	1.2085
1.7345	-0.90637
1.735	-0.40283
1.7355	0.90637
1.736	-7.15027
1.7365	-7.75452
1.737	-5.94177
1.7375	-2.92053
1.738	-14.70337
1.7385	-15.60974
1.739	-17.32178
1.7395	-16.11328
1.74	-14.80408
1.7405	-18.63098
1.741	-10.77576
1.7415	-9.97009
1.742	-8.25806
1.7425	-7.75452
1.743	-4.83398
1.7435	-6.94885
1.744	-0.90637
1.7445	-5.13611
1.745	-2.21558
1.7455	-1.71204
1.746	-6.94885
1.7465	-11.58142
1.747	-11.38
1.7475	-6.84814
1.748	-6.3446
1.7485	-0.10071
1.749	4.12903
1.7495	3.42407
1.75	6.44531
1.7505	12.89062
1.751	15.50903
1.7515	20.54443
1.752	22.96143
1.7525	20.04089
1.753	21.95435
1.7535	21.3501
1.754	19.13452
1.7545	23.36426
1.755	18.93311
1.7555	16.71753
1.756	17.22107
1.7565	15.00549
1.757	11.88354
1.7575	14.09912
1.758	12.89062
1.7585	13.49487
1.759	16.91895
1.7595	19.03381
1.76	15.71045
1.7605	16.11328
1.761	21.75293
1.7615	23.26355
1.762	26.58691
1.7625	19.13452
1.763	21.55151
1.7635	19.83948
1.764	15.91187
1.7645	15.71045
1.765	11.17859
1.7655	7.04956
1.766	3.52478
1.7665	6.14319
1.767	3.12195
1.7675	-5.23682
1.768	-7.25098
1.7685	-5.63965
1.769	-3.7262
1.7695	-6.04248
1.77	-9.97009
1.7705	-14.19983
1.771	-11.07788
1.7715	-15.40833
1.772	-17.42249
1.7725	-12.28638
1.773	-20.94727
1.7735	-16.21399
1.774	-9.76868
1.7745	-9.06372
1.775	-9.97009
1.7755	-7.45239
1.776	-14.70337
1.7765	-16.41541
1.777	-19.94019
1.7775	-22.25647
1.778	-28.09753
1.7785	-28.29895
1.779	-31.4209
1.7795	-24.57275
1.78	-24.77417
1.7805	-24.97559
1.781	-16.3147
1.7815	-8.7616
1.782	-6.54602
1.7825	-2.5177
1.783	3.62549
1.7835	8.96301
1.784	13.99841
1.7845	15.40833
1.785	17.92603
1.7855	21.55151
1.786	27.49329
1.7865	27.89612
1.787	22.6593
1.7875	23.66638
1.788	28.09753
1.7885	33.33435
1.789	28.50037
1.7895	31.82373
1.79	27.79541
1.7905	27.49329
1.791	29.50745
1.7915	27.39258
1.792	33.43506
1.7925	32.62939
1.793	38.26904
1.7935	36.65771
1.794	45.01648
1.7945	40.48462
1.795	41.69312
1.7955	35.44922
1.796	29.20532
1.7965	25.68054
1.797	20.1416
1.7975	15.71045
1.798	10.57434
1.7985	13.29346
1.799	7.85522
1.7995	7.15027
1.8	7.5531
1.8005	1.2085
1.801	4.93469
1.8015	8.8623
1.802	8.05664
1.8025	8.56018
1.803	4.43115
1.8035	11.38
1.804	9.86938
1.8045	10.27222
1.805	4.12903
1.8055	1.71204
1.806	10.77576
1.8065	8.8623
1.807	8.35876
1.8075	4.73328
1.808	-2.01416
1.8085	-6.84814
1.809	-12.08496
1.8095	-1.10779
1.81	-9.66797
1.8105	-9.97009
1.811	-13.49487
1.8115	-22.25647
1.812	-26.28479
1.8125	-43.90869
1.813	-49.64905
1.8135	-53.37524
1.814	-61.73401
1.8145	-80.86853
1.815	-82.07703
1.8155	-87.31384
1.816	-96.57898
1.8165	-94.3634
1.817	-86.91101
1.8175	-76.94092
1.818	-65.76233
1.8185	-51.36108
1.819	-33.9386
1.8195	-4.33044
1.82	16.21399
1.8205	25.98267
1.821	45.52002
1.8215	62.64038
1.822	76.7395
1.8225	85.40039
1.823	92.44995
1.8235	98.99597
1.824	102.62146
1.8245	96.07544
1.825	86.20605
1.8255	68.07861
1.826	52.67029
1.8265	41.79382
1.827	28.60107
1.8275	16.11328
1.828	2.61841
1.8285	0.20142
1.829	-4.53186
1.8295	-9.36584
1.83	-11.68213
1.8305	-21.04797
1.831	-22.86072
1.8315	-27.6947
1.832	-23.56567
1.8325	-27.09045
1.833	-21.55151
1.8335	-11.17859
1.834	-7.95593
1.8345	-7.75452
1.835	4.73328
1.8355	11.98425
1.836	12.5885
1.8365	7.15027
1.837	4.83398
1.8375	9.16443
1.838	9.76868
1.8385	7.65381
1.839	10.97717
1.8395	16.11328
1.84	10.97717
1.8405	13.29346
1.841	22.6593
1.8415	28.70178
1.842	28.80249
1.8425	32.32727
1.843	38.87329
1.8435	54.78516
1.844	57.30286
1.8445	55.3894
1.845	58.10852
1.8455	66.6687
1.846	64.45312
1.8465	69.79065
1.847	73.01331
1.8475	68.58215
1.848	67.27295
1.8485	64.05029
1.849	58.30994
1.8495	51.15967
1.85	41.08887
1.8505	31.92444
1.851	20.44373
1.8515	14.09912
1.852	1.61133
1.8525	-9.56726
1.853	-36.75842
1.8535	-65.96375
1.854	-95.67261
1.8545	-111.28235
1.855	-123.2666
1.8555	-132.33032
1.856	-145.32166
1.8565	-151.96838
1.857	-153.3783
1.8575	-156.90308
1.858	-153.57971
1.8585	-141.29333
1.859	-134.84802
1.8595	-114.20288
1.86	-93.75916
1.8605	-69.38782
1.861	-35.75134
1.8615	-6.2439
1.862	19.23523
1.8625	44.31152
1.863	78.45154
1.8635	104.13208
1.864	114.20288
1.8645	128.70483
1.865	135.25085
1.8655	136.15723
1.866	133.63953
1.8665	111.18164
1.867	91.94641
1.8675	82.88269
1.868	71.40198
1.8685	56.09436
1.869	49.24622
1.8695	39.47754
1.87	39.98108
1.8705	33.23364
1.871	32.12585
1.8715	31.21948
1.872	35.34851
1.8725	34.64355
1.873	40.2832
1.8735	36.95984
1.874	27.59399
1.8745	29.10461
1.875	30.81665
1.8755	21.65222
1.876	7.95593
1.8765	1.81274
1.877	-0.20142
1.8775	-15.50903
1.878	-27.29187
1.8785	-30.91736
1.879	-32.93152
1.8795	-46.82922
1.88	-49.44763
1.8805	-53.07312
1.881	-45.41931
1.8815	-39.88037
1.882	-35.65063
1.8825	-26.58691
1.883	-15.30762
1.8835	-3.12195
1.884	9.16443
1.8845	10.77576
1.885	13.59558
1.8855	22.45789
1.886	30.2124
1.8865	37.96692
1.887	36.95984
1.8875	17.01965
1.888	16.11328
1.8885	7.04956
1.889	6.74744
1.8895	0.60425
1.89	-11.48071
1.8905	-15.00549
1.891	-17.01965
1.8915	-23.8678
1.892	-30.01099
1.8925	-36.65771
1.893	-38.26904
1.8935	-35.44922
1.894	-27.89612
1.8945	-14.60266
1.895	-5.33752
1.8955	9.97009
1.896	21.95435
1.8965	31.21948
1.897	39.98108
1.8975	51.05896
1.898	55.69153
1.8985	58.91418
1.899	67.8772
1.8995	64.151
1.9	55.69153
1.9005	50.45471
1.901	47.23206
1.9015	40.88745
1.902	23.66638
1.9025	18.22815
1.903	6.44531
1.9035	0.30212
1.904	-4.02832
1.9045	-11.2793
1.905	-3.02124
1.9055	-5.13611
1.906	2.01416
1.9065	8.15735
1.907	12.89062
1.9075	14.50195
1.908	13.99841
1.9085	14.60266
1.909	12.18567
1.9095	6.64673
1.91	5.74036
1.9105	4.73328
1.911	0.90637
1.9115	4.22974
1.912	0.10071
1.9125	-0.20142
1.913	4.22974
1.9135	9.46655
1.914	5.23682
1.9145	0.70496
1.915	3.62549
1.9155	4.02832
1.916	10.47363
1.9165	7.45239
1.917	1.61133
1.9175	-1.91345
1.918	2.11487
1.9185	-3.92761
1.919	-5.53894
1.9195	-1.71204
1.92	-16.11328
1.9205	-23.76709
1.921	-27.29187
1.9215	-21.45081
1.922	-18.02673
1.9225	-15.30762
1.923	-8.7616
1.9235	-13.19275
1.924	-2.61841
1.9245	-2.11487
1.925	-3.12195
1.9255	0.10071
1.926	3.02124
1.9265	5.94177
1.927	3.8269
1.9275	11.88354
1.928	14.30054
1.9285	15.71045
1.929	10.87646
1.9295	16.51611
1.93	7.35168
1.9305	13.29346
1.931	21.3501
1.9315	17.22107
1.932	6.84814
1.9325	-2.01416
1.933	-5.13611
1.9335	-8.15735
1.934	-11.88354
1.9345	-11.88354
1.935	-6.94885
1.9355	-15.30762
1.936	-16.01257
1.9365	-33.83789
1.937	-45.72144
1.9375	-56.09436
1.938	-73.21472
1.9385	-88.72375
1.939	-95.37048
1.9395	-98.79456
1.94	-101.31226
1.9405	-97.38464
1.941	-93.55774
1.9415	-86.70959
1.942	-74.32251
1.9425	-53.57666
1.943	-43.10303
1.9435	-21.55151
1.944	-0.30212
1.9445	22.55859
1.945	41.59241
1.9455	62.9425
1.946	77.54517
1.9465	104.3335
1.947	116.922
1.9475	124.07227
1.948	119.4397
1.9485	119.23828
1.949	116.41846
1.9495	108.56323
1.95	99.70093
1.9505	88.62305
1.951	76.43738
1.9515	63.74817
1.952	54.68445
1.9525	42.90161
1.953	30.71594
1.9535	22.76001
1.954	14.09912
1.9545	10.77576
1.955	12.18567
1.9555	3.62549
1.956	-3.8269
1.9565	-6.04248
1.957	-6.74744
1.9575	-11.58142
1.958	-23.66638
1.9585	-21.04797
1.959	-30.31311
1.9595	-26.3855
1.96	-26.28479
1.9605	-24.47205
1.961	-22.45789
1.9615	-20.34302
1.962	-22.55859
1.9625	-20.44373
1.963	-20.84656
1.9635	-17.6239
1.964	-13.29346
1.9645	-14.19983
1.965	-16.41541
1.9655	-19.94019
1.966	-17.72461
1.9665	-10.77576
1.967	-8.7616
1.9675	-10.97717
1.968	-10.67505
1.9685	-16.71753
1.969	-20.84656
1.9695	-15.60974
1.97	-23.8678
1.9705	-23.56567
1.971	-23.16284
1.9715	-17.6239
1.972	-4.22974
1.9725	2.41699
1.973	3.02124
1.9735	11.98425
1.974	13.797
1.9745	22.55859
1.975	21.55151
1.9755	18.53027
1.976	17.32178
1.9765	23.66638
1.977	23.56567
1.9775	17.82532
1.978	13.69629
1.9785	19.13452
1.979	18.42957
1.9795	24.16992
1.98	19.23523
1.9805	24.57275
1.981	26.48621
1.9815	23.06213
1.982	16.41541
1.9825	12.68921
1.983	7.45239
1.9835	8.05664
1.984	6.2439
1.9845	2.31628
1.985	0.10071
1.9855	-1.91345
1.986	-3.12195
1.9865	-5.74036
1.987	-8.05664
1.9875	-15.20691
1.988	-19.53735
1.9885	-26.28479
1.989	-23.06213
1.9895	-27.59399
1.99	-26.68762
1.9905	-26.28479
1.991	-25.07629
1.9915	-23.36426
1.992	-22.15576
1.9925	-9.46655
1.993	-2.71912
1.9935	6.14319
1.994	14.60266
1.9945	19.13452
1.995	26.78833
1.9955	34.44214
1.996	39.37683
1.9965	40.48462
1.997	36.35559
1.9975	24.16992
1.998	24.16992
1.9985	19.53735
1.999	12.78992
1.9995	5.63965
2	-2.61841
2.0005	-7.75452
2.001	-11.78284
2.0015	-10.97717
2.002	-12.18567
2.0025	-9.06372
2.003	-4.73328
2.0035	-0.20142
2.004	-5.13611
2.0045	-6.14319
2.005	5.13611
2.0055	13.39417
2.006	8.56018
2.0065	26.28479
2.007	20.84656
2.0075	24.87488
2.008	27.89612
2.0085	26.08337
2.009	28.39966
2.0095	23.56567
2.01	27.29187
2.0105	28.60107
2.011	24.67346
2.0115	16.41541
2.012	15.00549
2.0125	12.18567
2.013	2.01416
2.0135	-0.20142
2.014	-16.91895
2.0145	-22.25647
2.015	-30.51453
2.0155	-44.61365
2.016	-51.86462
2.0165	-58.00781
2.017	-58.20923
2.0175	-51.36108
2.018	-47.23206
2.0185	-50.95825
2.019	-48.54126
2.0195	-46.22498
2.02	-42.29736
2.0205	-32.42798
2.021	-23.8678
2.0215	-8.7616
2.022	-3.8269
2.0225	1.2085
2.023	-2.71912
2.0235	-12.48779
2.024	-15.71045
2.0245	-22.86072
2.025	-27.79541
2.0255	-26.18408
2.026	-35.65063
2.0265	-49.0448
2.027	-58.41064
2.0275	-66.36658
2.028	-73.11401
2.0285	-75.63171
2.029	-65.05737
2.0295	-44.41223
2.03	-35.44922
2.0305	-21.55151
2.031	3.32336
2.0315	17.12036
2.032	25.27771
2.0325	37.06055
2.033	49.24622
2.0335	58.51135
2.034	67.67578
2.0345	72.71118
2.035	78.75366
2.0355	77.14233
2.036	72.10693
2.0365	72.50977
2.037	76.13525
2.0375	72.30835
2.038	75.53101
2.0385	75.83313
2.039	61.6333
2.0395	50.05188
2.04	33.53577
2.0405	20.74585
2.041	23.36426
2.0415	20.44373
2.042	5.13611
2.0425	6.04248
2.043	10.57434
2.0435	21.45081
2.044	25.27771
2.0445	27.59399
2.045	36.25488
2.0455	34.64355
2.046	37.06055
2.0465	50.65613
2.047	44.81506
2.0475	51.26038
2.048	51.05896
2.0485	52.36816
2.049	51.5625
2.0495	38.87329
2.05	37.66479
2.0505	35.95276
2.051	35.54993
2.0515	35.2478
2.052	34.14001
2.0525	33.53577
2.053	34.34143
2.0535	37.96692
2.054	42.19666
2.0545	39.37683
2.055	37.16125
2.0555	36.05347
2.056	28.29895
2.0565	27.79541
2.057	22.45789
2.0575	14.70337
2.058	7.65381
2.0585	5.13611
2.059	5.43823
2.0595	-0.60425
2.06	-9.16443
2.0605	-16.81824
2.061	-26.3855
2.0615	-31.11877
2.062	-38.974
2.0625	-33.13293
2.063	-28.50037
2.0635	-30.2124
2.064	-23.46497
2.0645	-20.54443
2.065	-15.00549
2.0655	-12.38708
2.066	-9.06372
2.0665	-8.45947
2.067	-12.99133
2.0675	-3.32336
2.068	-3.22266
2.0685	0.70496
2.069	11.07788
2.0695	9.86938
2.07	22.86072
2.0705	23.16284
2.071	15.20691
2.0715	-3.7262
2.072	-12.18567
2.0725	-27.19116
2.073	-29.80957
2.0735	-34.74426
2.074	-38.47046
2.0745	-32.12585
2.075	-20.04089
2.0755	-9.16443
2.076	-2.31628
2.0765	4.73328
2.077	11.88354
2.0775	19.23523
2.078	25.78125
2.0785	26.78833
2.079	32.52869
2.0795	37.36267
2.08	36.25488
2.0805	39.17542
2.081	37.46338
2.0815	30.71594
2.082	21.95435
2.0825	15.91187
2.083	10.87646
2.0835	9.76868
2.084	2.41699
2.0845	-1.3092
2.085	-5.13611
2.0855	-5.13611
2.086	-3.62549
2.0865	-2.31628
2.087	-1.81274
2.0875	-4.73328
2.088	-7.65381
2.0885	-4.02832
2.089	-1.10779
2.0895	-2.71912
2.09	-2.61841
2.0905	1.81274
2.091	-2.61841
2.0915	-1.81274
2.092	-3.42407
2.0925	-12.89062
2.093	-15.30762
2.0935	-11.78284
2.094	-8.96301
2.0945	-5.53894
2.095	2.01416
2.0955	2.92053
2.096	8.05664
2.0965	10.57434
2.097	7.45239
2.0975	12.48779
2.098	7.75452
2.0985	4.22974
2.099	7.75452
2.0995	-0.60425
2.1	2.71912
2.1005	2.41699
2.101	-5.0354
2.1015	-13.19275
2.102	-18.53027
2.1025	-18.53027
2.103	-22.05505
2.1035	-24.06921
2.104	-29.70886
2.1045	-24.87488
2.105	-21.65222
2.1055	-20.84656
2.106	-21.04797
2.1065	-21.55151
2.107	-31.01807
2.1075	-29.91028
2.108	-27.19116
2.1085	-30.41382
2.109	-27.39258
2.1095	-21.3501
2.11	-20.94727
2.1105	-16.11328
2.111	-11.98425
2.1115	-3.8269
2.112	2.11487
2.1125	2.11487
2.113	2.11487
2.1135	-2.81982
2.114	1.61133
2.1145	-0.20142
2.115	-4.43115
2.1155	-6.3446
2.116	4.33044
2.1165	2.31628
2.117	5.63965
2.1175	10.87646
2.118	12.38708
2.1185	21.04797
2.119	17.22107
2.1195	25.27771
2.12	21.65222
2.1205	15.91187
2.121	24.37134
2.1215	29.60815
2.122	23.56567
2.1225	16.91895
2.123	4.53186
2.1235	-3.52478
2.124	-7.5531
2.1245	-17.52319
2.125	-15.50903
2.1255	-8.8623
2.126	-2.11487
2.1265	1.81274
2.127	13.89771
2.1275	19.53735
2.128	24.57275
2.1285	26.48621
2.129	28.60107
2.1295	37.96692
2.13	34.34143
2.1305	33.73718
2.131	43.00232
2.1315	50.15259
2.132	45.11719
2.1325	38.26904
2.133	34.34143
2.1335	32.93152
2.134	33.83789
2.1345	34.94568
2.135	17.6239
2.1355	0.60425
2.136	-18.32886
2.1365	-24.97559
2.137	-38.36975
2.1375	-37.26196
2.138	-37.26196
2.1385	-32.52869
2.139	-25.27771
2.1395	-23.36426
2.14	-13.59558
2.1405	-5.13611
2.141	2.61841
2.1415	11.48071
2.142	16.21399
2.1425	15.00549
2.143	20.64514
2.1435	24.27063
2.144	34.64355
2.1445	40.78674
2.145	36.25488
2.1455	42.29736
2.146	36.65771
2.1465	46.12427
2.147	41.59241
2.1475	37.36267
2.148	34.84497
2.1485	34.03931
2.149	34.94568
2.1495	21.3501
2.15	19.94019
2.1505	18.42957
2.151	13.797
2.1515	19.13452
2.152	10.97717
2.1525	4.43115
2.153	0.90637
2.1535	-0.50354
2.154	-8.56018
2.1545	-18.02673
2.155	-18.12744
2.1555	-18.63098
2.156	-24.67346
2.1565	-29.10461
2.157	-30.91736
2.1575	-38.47046
2.158	-42.09595
2.1585	-43.50586
2.159	-40.48462
2.1595	-38.47046
2.16	-36.35559
2.1605	-31.72302
2.161	-30.41382
2.1615	-33.23364
2.162	-37.26196
2.1625	-38.47046
2.163	-30.51453
2.1635	-27.49329
2.164	-25.68054
2.1645	-19.33594
2.165	-8.7616
2.1655	0.10071
2.166	5.63965
2.1665	20.64514
2.167	34.03931
2.1675	40.38391
2.168	50.354
2.1685	63.94958
2.169	65.76233
2.1695	72.00623
2.17	76.33667
2.1705	79.66003
2.171	71.20056
2.1715	56.69861
2.172	51.46179
2.1725	39.27612
2.173	32.93152
2.1735	23.76709
2.174	15.00549
2.1745	6.84814
2.175	6.2439
2.1755	-13.29346
2.176	-55.69153
2.1765	-86.10535
2.177	-100.10376
2.1775	-104.4342
2.178	-102.01721
2.1785	-96.47827
2.179	-84.19189
2.1795	-70.49561
2.18	-62.13684
2.1805	-37.56409
2.181	-23.16284
2.1815	-2.71912
2.182	15.40833
2.1825	30.01099
2.183	49.14551
2.1835	65.15808
2.184	77.04163
2.1845	86.10535
2.185	97.98889
2.1855	95.26978
2.186	97.08252
2.1865	87.11243
2.187	77.44446
2.1875	72.50977
2.188	61.93542
2.1885	52.26746
2.189	42.59949
2.1895	48.13843
2.19	48.64197
2.1905	46.32568
2.191	46.92993
2.1915	39.27612
2.192	30.41382
2.1925	28.09753
2.193	14.30054
2.1935	7.45239
2.194	4.63257
2.1945	-25.78125
2.195	-46.62781
2.1955	-57.00073
2.196	-65.76233
2.1965	-64.05029
2.197	-57.8064
2.1975	-59.41772
2.198	-62.03613
2.1985	-82.07703
2.199	-85.40039
2.1995	-79.45862
2.2	-70.49561
2.2005	-66.6687
2.201	-47.7356
2.2015	-27.89612
2.202	-8.25806
2.2025	13.09204
2.203	29.60815
2.2035	48.13843
2.204	54.88586
2.2045	66.46729
2.205	75.4303
2.2055	81.67419
2.206	87.81738
2.2065	81.97632
2.207	75.02747
2.2075	65.25879
2.208	50.95825
2.2085	42.29736
2.209	35.85205
2.2095	28.29895
2.21	21.45081
2.2105	12.18567
2.211	9.76868
2.2115	10.27222
2.212	17.01965
2.2125	22.45789
2.213	24.47205
2.2135	15.00549
2.214	11.07788
2.2145	8.8623
2.215	-2.5177
2.2155	-5.74036
2.216	-9.76868
2.2165	-1.91345
2.217	-3.42407
2.2175	-5.94177
2.218	-4.73328
2.2185	-11.58142
2.219	-10.47363
2.2195	-9.66797
2.22	-9.56726
2.2205	-7.85522
2.221	-4.22974
2.2215	-6.64673
2.222	-11.78284
2.2225	-6.44531
2.223	-10.97717
2.2235	-10.47363
2.224	-12.5885
2.2245	-11.68213
2.225	-8.35876
2.2255	-3.12195
2.226	-1.2085
2.2265	5.74036
2.227	8.56018
2.2275	13.09204
2.228	20.94727
2.2285	28.60107
2.229	36.25488
2.2295	33.23364
2.23	31.52161
2.2305	38.77258
2.231	41.99524
2.2315	34.14001
2.232	34.34143
2.2325	26.28479
2.233	13.89771
2.2335	-1.91345
2.234	-14.19983
2.2345	-16.21399
2.235	-15.50903
2.2355	-16.71753
2.236	-19.73877
2.2365	-12.68921
2.237	-17.82532
2.2375	-20.54443
2.238	-8.66089
2.2385	-11.07788
2.239	-8.45947
2.2395	-1.61133
2.24	-4.12903
2.2405	4.83398
2.241	4.02832
2.2415	11.68213
2.242	0.70496
2.2425	-13.69629
2.243	-17.12036
2.2435	-29.40674
2.244	-38.16833
2.2445	-39.37683
2.245	-46.02356
2.2455	-47.7356
2.246	-41.99524
2.2465	-38.57117
2.247	-28.60107
2.2475	-19.23523
2.248	-6.94885
2.2485	16.01257
2.249	22.86072
2.2495	31.32019
2.25	43.80798
2.2505	53.47595
2.251	58.81348
2.2515	60.22339
2.252	64.25171
2.2525	69.79065
2.253	80.86853
2.2535	84.99756
2.254	82.88269
2.2545	66.16516
2.255	46.02356
2.2555	37.06055
2.256	18.12744
2.2565	6.74744
2.257	0.90637
2.2575	-4.02832
2.258	-12.68921
2.2585	-14.40125
2.259	-17.01965
2.2595	-17.92603
2.26	-22.76001
2.2605	-36.55701
2.261	-63.74817
2.2615	-83.58765
2.262	-91.8457
2.2625	-78.65295
2.263	-69.68994
2.2635	-51.46179
2.264	-34.94568
2.2645	-22.25647
2.265	-10.87646
2.2655	5.33752
2.266	7.35168
2.2665	1.10779
2.267	16.3147
2.2675	22.45789
2.268	24.27063
2.2685	31.11877
2.269	44.41223
2.2695	50.65613
2.27	45.11719
2.2705	51.26038
2.271	49.74976
2.2715	42.19666
2.272	35.85205
2.2725	31.21948
2.273	37.7655
2.2735	39.67896
2.274	48.54126
2.2745	45.82214
2.275	48.13843
2.2755	42.49878
2.276	46.32568
2.2765	39.98108
2.277	31.01807
2.2775	7.5531
2.278	-16.3147
2.2785	-28.39966
2.279	-29.50745
2.2795	-27.09045
2.28	-33.83789
2.2805	-35.44922
2.281	-36.4563
2.2815	-28.19824
2.282	-21.14868
2.2825	-11.58142
2.283	-2.81982
2.2835	5.23682
2.284	13.29346
2.2845	20.64514
2.285	21.75293
2.2855	26.28479
2.286	26.98975
2.2865	9.86938
2.287	11.98425
2.2875	8.7616
2.288	4.12903
2.2885	3.22266
2.289	6.14319
2.2895	13.39417
2.29	16.51611
2.2905	24.47205
2.291	27.79541
2.2915	32.12585
2.292	33.23364
2.2925	27.19116
2.293	29.60815
2.2935	25.98267
2.294	20.34302
2.2945	27.79541
2.295	28.9032
2.2955	32.42798
2.296	33.63647
2.2965	19.03381
2.297	16.41541
2.2975	-0.30212
2.298	-3.8269
2.2985	-8.96301
2.299	-11.17859
2.2995	-6.44531
2.3	-7.65381
2.3005	-2.31628
2.301	5.13611
2.3015	3.92761
2.302	8.45947
2.3025	9.36584
2.303	1.51062
2.3035	4.33044
2.304	6.44531
2.3045	6.3446
2.305	3.12195
2.3055	10.67505
2.306	10.67505
2.3065	10.87646
2.307	9.97009
2.3075	4.43115
2.308	-4.22974
2.3085	-3.02124
2.309	1.2085
2.3095	4.02832
2.31	-2.71912
2.3105	-7.95593
2.311	-9.06372
2.3115	-46.82922
2.312	-64.65454
2.3125	-79.96216
2.313	-83.48694
2.3135	-87.51526
2.314	-82.68127
2.3145	-74.02039
2.315	-70.19348
2.3155	-55.08728
2.316	-44.91577
2.3165	-31.92444
2.317	-22.86072
2.3175	-8.05664
2.318	-4.53186
2.3185	2.01416
2.319	4.02832
2.3195	7.45239
2.32	18.8324
2.3205	25.98267
2.321	38.06763
2.3215	46.92993
2.322	54.28162
2.3225	59.31702
2.323	70.29419
2.3235	85.40039
2.324	95.37048
2.3245	90.13367
2.325	79.66003
2.3255	66.87012
2.326	34.03931
2.3265	2.11487
2.327	-27.6947
2.3275	-52.97241
2.328	-67.67578
2.3285	-83.88977
2.329	-76.63879
2.3295	-89.02588
2.33	-93.45703
2.3305	-92.85278
2.331	-70.09277
2.3315	-46.22498
2.332	-26.28479
2.3325	-13.89771
2.333	2.11487
2.3335	20.94727
2.334	39.88037
2.3345	53.67737
2.335	64.45312
2.3355	65.15808
2.336	59.21631
2.3365	48.94409
2.337	58.10852
2.3375	67.77649
2.338	69.79065
2.3385	76.43738
2.339	78.14941
2.3395	80.76782
2.34	75.73242
2.3405	74.32251
2.341	71.90552
2.3415	68.07861
2.342	60.72693
2.3425	60.22339
2.343	62.64038
2.3435	53.77808
2.344	48.44055
2.3445	29.30603
2.345	17.6239
2.3455	4.43115
2.346	-1.10779
2.3465	-3.52478
2.347	-11.88354
2.3475	-36.25488
2.348	-53.17383
2.3485	-62.64038
2.349	-58.51135
2.3495	-54.88586
2.35	-46.82922
2.3505	-33.53577
2.351	-25.68054
2.3515	-9.16443
2.352	3.8269
2.3525	14.60266
2.353	25.88196
2.3535	35.34851
2.354	33.9386
2.3545	43.20374
2.355	38.36975
2.3555	25.57983
2.356	7.15027
2.3565	2.31628
2.357	-0.80566
2.3575	-13.89771
2.358	-32.12585
2.3585	-41.89453
2.359	-45.52002
2.3595	-41.79382
2.36	-36.05347
2.3605	-25.27771
2.361	-17.42249
2.3615	-11.88354
2.362	2.61841
2.3625	18.12744
2.363	23.16284
2.3635	30.31311
2.364	34.44214
2.3645	40.2832
2.365	49.44763
2.3655	54.28162
2.366	49.0448
2.3665	52.46887
2.367	58.51135
2.3675	62.13684
2.368	40.88745
2.3685	24.16992
2.369	-0.40283
2.3695	-12.78992
2.37	-22.15576
2.3705	-26.3855
2.371	-51.26038
2.3715	-78.04871
2.372	-84.59473
2.3725	-74.52393
2.373	-61.83472
2.3735	-43.90869
2.374	-21.75293
2.3745	-8.25806
2.375	6.64673
2.3755	30.61523
2.376	53.67737
2.3765	68.88428
2.377	87.71667
2.3775	98.29102
2.378	100.6073
2.3785	96.17615
2.379	81.47278
2.3795	73.71826
2.38	66.76941
2.3805	50.45471
2.381	40.98816
2.3815	33.53577
2.382	23.66638
2.3825	22.15576
2.383	11.38
2.3835	6.74744
2.384	-4.02832
2.3845	-13.09204
2.385	-15.00549
2.3855	-26.08337
2.386	-38.16833
2.3865	-45.3186
2.387	-47.8363
2.3875	-52.67029
2.388	-41.69312
2.3885	-33.23364
2.389	-42.09595
2.3895	-35.95276
2.39	-32.7301
2.3905	-29.91028
2.391	-26.68762
2.3915	-19.94019
2.392	-9.26514
2.3925	-6.44531
2.393	-1.2085
2.3935	3.12195
2.394	9.36584
2.3945	1.10779
2.395	-12.68921
2.3955	-30.51453
2.396	-43.50586
2.3965	-66.06445
2.397	-81.97632
2.3975	-78.14941
2.398	-72.9126
2.3985	-64.05029
2.399	-43.50586
2.3995	-21.95435
2.4	-11.2793
2.4005	-2.31628
2.401	-12.99133
2.4015	-11.07788
2.402	7.75452
2.4025	27.39258
2.403	48.64197
2.4035	76.13525
2.404	86.10535
2.4045	93.75916
2.405	94.76624
2.4055	91.44287
2.406	91.04004
2.4065	91.34216
2.407	94.2627
2.4075	96.67969
2.408	94.76624
2.4085	87.61597
2.409	83.78906
2.4095	75.73242
2.41	71.80481
2.4105	57.40356
2.411	53.67737
2.4115	40.78674
2.412	21.75293
2.4125	5.43823
2.413	-3.92761
2.4135	-20.34302
2.414	-35.34851
2.4145	-39.07471
2.415	-42.7002
2.4155	-38.87329
2.416	-39.27612
2.4165	-53.47595
2.417	-71.7041
2.4175	-76.63879
2.418	-71.7041
2.4185	-66.16516
2.419	-51.46179
2.4195	-42.19666
2.42	-35.75134
2.4205	-15.91187
2.421	-7.04956
2.4215	-10.87646
2.422	0.60425
2.4225	12.18567
2.423	20.04089
2.4235	22.15576
2.424	24.16992
2.4245	22.25647
2.425	11.07788
2.4255	9.06372
2.426	4.73328
2.4265	6.04248
2.427	5.13611
2.4275	10.27222
2.428	18.02673
2.4285	21.24939
2.429	24.57275
2.4295	27.29187
2.43	27.59399
2.4305	32.62939
2.431	35.85205
2.4315	33.13293
2.432	42.59949
2.4325	59.41772
2.433	64.151
2.4335	65.15808
2.434	56.29578
2.4345	48.84338
2.435	43.70728
2.4355	34.03931
2.436	23.66638
2.4365	12.89062
2.437	2.31628
2.4375	-26.88904
2.438	-42.7002
2.4385	-43.40515
2.439	-48.13843
2.4395	-48.44055
2.44	-50.45471
2.4405	-45.72144
2.441	-70.69702
2.4415	-120.14465
2.442	-141.59546
2.4425	-147.23511
2.443	-125.98572
2.4435	-100.30518
2.444	-70.99915
2.4445	-33.13293
2.445	-6.74744
2.4455	31.62231
2.446	51.86462
2.4465	62.53967
2.447	83.99048
2.4475	94.56482
2.448	96.57898
2.4485	109.3689
2.449	107.75757
2.4495	109.06677
2.45	113.80005
2.4505	110.98022
2.451	93.96057
2.4515	80.06287
2.452	54.28162
2.4525	27.59399
2.453	12.18567
2.4535	10.0708
2.454	-2.41699
2.4545	-40.08179
2.455	-69.58923
2.4555	-68.98499
2.456	-62.53967
2.4565	-50.45471
2.457	-33.23364
2.4575	-23.66638
2.458	-7.45239
2.4585	-6.84814
2.459	0
2.4595	3.92761
2.46	8.7616
2.4605	19.94019
2.461	29.00391
2.4615	40.38391
2.462	19.53735
2.4625	-2.21558
2.463	-13.19275
2.4635	-34.54285
2.464	-40.88745
2.4645	-27.29187
2.465	-23.06213
2.4655	-14.19983
2.466	7.65381
2.4665	22.35718
2.467	29.40674
2.4675	35.04639
2.468	47.23206
2.4685	64.45312
2.469	77.74658
2.4695	96.98181
2.47	111.9873
2.4705	122.36023
2.471	130.8197
2.4715	127.79846
2.472	120.84961
2.4725	110.57739
2.473	96.67969
2.4735	69.28711
2.474	30.91736
2.4745	-0.40283
2.475	-19.23523
2.4755	-25.68054
2.476	-24.16992
2.4765	-26.48621
2.477	-27.99683
2.4775	-29.40674
2.478	-23.56567
2.4785	-23.66638
2.479	-16.51611
2.4795	-21.45081
2.48	-31.72302
2.4805	-35.95276
2.481	-38.87329
2.4815	-41.4917
2.482	-38.36975
2.4825	-36.65771
2.483	-36.75842
2.4835	-31.32019
2.484	-22.96143
2.4845	-22.05505
2.485	-23.76709
2.4855	-25.78125
2.486	-13.49487
2.4865	-16.01257
2.487	-9.06372
2.4875	-2.81982
2.488	-4.12903
2.4885	0.10071
2.489	7.75452
2.4895	8.56018
2.49	14.70337
2.4905	20.04089
2.491	32.42798
2.4915	43.10303
2.492	58.41064
2.4925	70.3949
2.493	79.35791
2.4935	78.95508
2.494	71.50269
2.4945	67.97791
2.495	55.18799
2.4955	41.08887
2.496	26.28479
2.4965	14.40125
2.497	7.04956
2.4975	-4.33044
2.498	-8.8623
2.4985	-8.35876
2.499	-15.40833
2.4995	-23.8678
2.5	-25.177
2.5005	-36.15417
2.501	-39.37683
2.5015	-41.29028
2.502	-51.36108
2.5025	-58.20923
2.503	-60.52551
2.5035	-61.43188
2.504	-58.00781
2.5045	-44.91577
2.505	-42.59949
2.5055	-32.7301
2.506	-13.29346
2.5065	5.33752
2.507	28.09753
2.5075	31.72302
2.508	36.25488
2.5085	39.98108
2.509	31.01807
2.5095	35.2478
2.51	45.52002
2.5105	56.5979
2.511	66.46729
2.5115	62.13684
2.512	64.45312
2.5125	48.94409
2.513	26.08337
2.5135	17.92603
2.514	3.12195
2.5145	4.93469
2.515	1.91345
2.5155	9.46655
2.516	-10.37292
2.5165	-24.06921
2.517	-41.29028
2.5175	-55.2887
2.518	-64.05029
2.5185	-57.20215
2.519	-40.58533
2.5195	-23.46497
2.52	-2.41699
2.5205	17.92603
2.521	41.29028
2.5215	51.36108
2.522	53.07312
2.5225	53.67737
2.523	61.02905
2.5235	64.25171
2.524	65.66162
2.5245	74.52393
2.525	68.78357
2.5255	74.12109
2.526	59.41772
2.5265	28.70178
2.527	6.14319
2.5275	-6.14319
2.528	-15.71045
2.5285	-35.54993
2.529	-46.92993
2.5295	-50.75684
2.53	-49.74976
2.5305	-48.84338
2.531	-33.43506
2.5315	-22.55859
2.532	-12.89062
2.5325	-26.58691
2.533	-32.7301
2.5335	-49.85046
2.534	-103.52783
2.5345	-146.53015
2.535	-156.29883
2.5355	-155.19104
2.536	-140.78979
2.5365	-130.71899
2.537	-111.08093
2.5375	-121.65527
2.538	-123.77014
2.5385	-95.47119
2.539	-60.82764
2.5395	-13.99841
2.54	19.03381
2.5405	53.27454
2.541	75.53101
2.5415	91.34216
2.542	103.32642
2.5425	127.79846
2.543	149.95422
2.5435	141.49475
2.544	132.12891
2.5445	110.98022
2.545	100.90942
2.5455	89.63013
2.546	78.55225
2.5465	65.46021
2.547	57.40356
2.5475	45.3186
2.548	34.84497
2.5485	42.90161
2.549	55.49011
2.5495	56.79932
2.55	68.38074
2.5505	92.14783
2.551	99.19739
2.5515	106.14624
2.552	100.70801
2.5525	92.55066
2.553	79.96216
2.5535	53.27454
2.554	45.62073
2.5545	41.89453
2.555	30.11169
2.5555	28.60107
2.556	25.88196
2.5565	-19.94019
2.557	-79.86145
2.5575	-119.94324
2.558	-124.87793
2.5585	-122.25952
2.559	-101.11084
2.5595	-75.63171
2.56	-42.90161
2.5605	-11.58142
2.561	17.52319
2.5615	42.8009
2.562	71.40198
2.5625	91.54358
2.563	97.48535
2.5635	108.96606
2.564	112.79297
2.5645	108.46252
2.565	96.47827
2.5655	92.24854
2.566	83.18481
2.5665	66.76941
2.567	44.61365
2.5675	23.46497
2.568	12.68921
2.5685	2.61841
2.569	-1.61133
2.5695	5.53894
2.57	-3.7262
2.5705	-7.75452
2.571	-4.22974
2.5715	-5.74036
2.572	-3.12195
2.5725	-12.99133
2.573	-17.72461
2.5735	-51.76392
2.574	-105.13916
2.5745	-133.43811
2.575	-130.31616
2.5755	-127.89917
2.576	-108.1604
2.5765	-85.90393
2.577	-64.95667
2.5775	-37.66479
2.578	-12.89062
2.5785	-0.10071
2.579	-1.91345
2.5795	3.22266
2.58	-17.72461
2.5805	-53.87878
2.581	-79.96216
2.5815	-73.21472
2.582	-60.82764
2.5825	-42.90161
2.583	-19.23523
2.5835	0.20142
2.584	13.99841
2.5845	21.45081
2.585	37.26196
2.5855	55.2887
2.586	74.82605
2.5865	98.99597
2.587	96.37756
2.5875	79.45862
2.588	64.65454
2.5885	43.70728
2.589	34.24072
2.5895	22.96143
2.59	23.36426
2.5905	17.01965
2.591	16.41541
2.5915	17.72461
2.592	0.10071
2.5925	-16.91895
2.593	-22.55859
2.5935	-30.01099
2.594	-54.88586
2.5945	-64.95667
2.595	-78.85437
2.5955	-84.79614
2.596	-77.44446
2.5965	-95.37048
2.597	-104.93774
2.5975	-96.37756
2.598	-66.46729
2.5985	-33.63647
2.599	-14.60266
2.5995	7.5531
2.6	33.03223
2.6005	62.03613
2.601	99.2981
2.6015	124.77722
2.602	134.5459
2.6025	132.63245
2.603	120.64819
2.6035	103.82996
2.604	76.13525
2.6045	51.46179
2.605	17.12036
2.6055	-15.81116
2.606	-40.68604
2.6065	-48.64197
2.607	-45.52002
2.6075	-52.26746
2.608	-35.2478
2.6085	-27.29187
2.609	-10.97717
2.6095	-4.63257
2.61	-6.84814
2.6105	-1.3092
2.611	-2.81982
2.6115	0.40283
2.612	-6.44531
2.6125	-7.65381
2.613	-19.73877
2.6135	-21.95435
2.614	-28.50037
2.6145	-9.16443
2.615	9.16443
2.6155	28.19824
2.616	42.90161
2.6165	50.95825
2.617	59.61914
2.6175	65.3595
2.618	58.30994
2.6185	49.34692
2.619	22.55859
2.6195	-10.87646
2.62	-60.52551
2.6205	-109.16748
2.621	-142.60254
2.6215	-155.896
2.622	-158.81653
2.6225	-171.0022
2.623	-161.23352
2.6235	-119.54041
2.624	-74.12109
2.6245	-25.57983
2.625	40.2832
2.6255	92.14783
2.626	130.8197
2.6265	160.52856
2.627	180.16663
2.6275	195.27283
2.628	209.77478
2.6285	201.51672
2.629	179.26025
2.6295	154.58679
2.63	130.71899
2.6305	97.68677
2.631	72.61047
2.6315	54.68445
2.632	35.44922
2.6325	23.8678
2.633	12.68921
2.6335	-1.10779
2.634	-35.54993
2.6345	-80.76782
2.635	-143.50891
2.6355	-202.22168
2.636	-215.91797
2.6365	-205.54504
2.637	-177.3468
2.6375	-150.25635
2.638	-101.8158
2.6385	-49.44763
2.639	-8.45947
2.6395	28.70178
2.64	62.43896
2.6405	80.26428
2.641	81.67419
2.6415	74.82605
2.642	73.11401
2.6425	68.88428
2.643	62.33826
2.6435	42.90161
2.644	19.03381
2.6445	3.8269
2.645	-2.21558
2.6455	-6.2439
2.646	-0.50354
2.6465	2.81982
2.647	0.30212
2.6475	-6.04248
2.648	-13.69629
2.6485	-3.32336
2.649	0.30212
2.6495	16.61682
2.65	26.78833
2.6505	33.33435
2.651	34.94568
2.6515	34.24072
2.652	46.22498
2.6525	43.20374
2.653	31.21948
2.6535	21.75293
2.654	15.20691
2.6545	11.2793
2.655	9.06372
2.6555	6.94885
2.656	4.83398
2.6565	1.81274
2.657	-22.05505
2.6575	-70.19348
2.658	-107.65686
2.6585	-133.84094
2.659	-142.60254
2.6595	-131.72607
2.66	-110.57739
2.6605	-82.17773
2.661	-57.00073
2.6615	-27.09045
2.662	4.12903
2.6625	32.22656
2.663	53.77808
2.6635	80.26428
2.664	98.89526
2.6645	112.18872
2.665	113.90076
2.6655	101.71509
2.666	97.68677
2.6665	85.09827
2.667	75.73242
2.6675	69.48853
2.668	54.38232
2.6685	41.69312
2.669	38.36975
2.6695	40.48462
2.67	27.29187
2.6705	31.01807
2.671	26.98975
2.6715	33.03223
2.672	30.01099
2.6725	21.75293
2.673	14.09912
2.6735	10.87646
2.674	10.27222
2.6745	7.04956
2.675	2.61841
2.6755	-0.60425
2.676	-4.33044
2.6765	-13.49487
2.677	-9.26514
2.6775	-7.75452
2.678	-11.48071
2.6785	-17.01965
2.679	-15.81116
2.6795	-16.91895
2.68	-11.98425
2.6805	-10.27222
2.681	-4.53186
2.6815	-10.77576
2.682	-9.86938
2.6825	-4.63257
2.683	-11.48071
2.6835	-15.91187
2.684	-28.50037
2.6845	-84.2926
2.685	-182.68433
2.6855	-319.94934
2.686	-388.53149
2.6865	-425.39062
2.687	-439.69116
2.6875	-398.90442
2.688	-311.18774
2.6885	-208.46558
2.689	-82.27844
2.6895	46.62781
2.69	164.65759
2.6905	267.78259
2.691	354.5929
2.6915	414.01062
2.692	457.21436
2.6925	469.19861
2.693	442.81311
2.6935	395.58105
2.694	330.02014
2.6945	259.22241
2.695	163.65051
2.6955	90.73792
2.696	57.40356
2.6965	31.32019
2.697	24.57275
2.6975	28.19824
2.698	13.49487
2.6985	13.09204
2.699	13.29346
2.6995	12.5885
2.7	13.69629
2.7005	4.12903
2.701	3.32336
2.7015	-4.73328
2.702	-4.93469
2.7025	-8.7616
2.703	-13.19275
2.7035	-14.09912
2.704	-14.09912
2.7045	-11.98425
2.705	-11.98425
2.7055	-18.22815
2.706	-18.22815
2.7065	-21.3501
2.707	-22.6593
2.7075	-24.06921
2.708	-25.88196
2.7085	-24.77417
2.709	-23.56567
2.7095	-28.39966
2.71	-34.34143
2.7105	-30.91736
2.711	-38.87329
2.7115	-35.75134
2.712	-39.98108
2.7125	-36.85913
2.713	-41.69312
2.7135	-40.78674
2.714	-36.25488
2.7145	-29.60815
2.715	-28.39966
2.7155	-22.35718
2.716	-13.99841
2.7165	-4.33044
2.717	-2.92053
2.7175	6.04248
2.718	13.99841
2.7185	13.49487
2.719	12.89062
2.7195	23.96851
2.72	27.6947
2.7205	34.03931
2.721	43.20374
2.7215	45.92285
2.722	39.77966
2.7225	35.14709
2.723	26.18408
2.7235	22.25647
2.724	16.91895
2.7245	17.01965
2.725	14.19983
2.7255	12.18567
2.726	10.77576
2.7265	5.74036
2.727	1.61133
2.7275	3.92761
2.728	5.63965
2.7285	10.37292
2.729	11.38
2.7295	14.40125
2.73	10.47363
2.7305	10.17151
2.731	10.67505
2.7315	11.78284
2.732	11.2793
2.7325	12.48779
2.733	16.61682
2.7335	17.01965
2.734	13.19275
2.7345	17.32178
2.735	8.66089
2.7355	-2.01416
2.736	-5.94177
2.7365	-7.25098
2.737	-7.85522
2.7375	-9.36584
2.738	-11.07788
2.7385	-10.37292
2.739	-15.30762
2.7395	-7.75452
2.74	-7.25098
2.7405	-4.43115
2.741	-4.22974
2.7415	-3.12195
2.742	4.12903
2.7425	2.61841
2.743	-8.7616
2.7435	-19.33594
2.744	-24.27063
2.7445	-29.70886
2.745	-33.73718
2.7455	-33.9386
2.746	-32.12585
2.7465	-49.54834
2.747	-70.89844
2.7475	-60.02197
2.748	-48.44055
2.7485	-46.72852
2.749	-37.96692
2.7495	-25.37842
2.75	-17.72461
2.7505	0.10071
2.751	18.53027
2.7515	37.46338
2.752	53.27454
2.7525	66.76941
2.753	88.62305
2.7535	103.72925
2.754	100.10376
2.7545	99.70093
2.755	98.89526
2.7555	93.65845
2.756	80.66711
2.7565	67.97791
2.757	62.43896
2.7575	44.81506
2.758	26.18408
2.7585	0.40283
2.759	-22.96143
2.7595	-73.11401
2.76	-153.88184
2.7605	-218.53638
2.761	-283.79517
2.7615	-325.6897
2.762	-334.45129
2.7625	-315.11536
2.763	-250.2594
2.7635	-191.04309
2.764	-117.72766
2.7645	-45.72144
2.765	32.62939
2.7655	90.5365
2.766	143.81104
2.7665	181.073
2.767	214.81018
2.7675	226.08948
2.768	231.93054
2.7685	221.96045
2.769	202.32239
2.7695	172.00928
2.77	143.71033
2.7705	110.57739
2.771	82.07703
2.7715	79.76074
2.772	74.62463
2.7725	20.84656
2.773	-65.56091
2.7735	-115.31067
2.774	-160.62927
2.7745	-189.63318
2.775	-232.03125
2.7755	-253.88489
2.776	-240.99426
2.7765	-196.58203
2.777	-133.63953
2.7775	-68.07861
2.778	1.40991
2.7785	61.23047
2.779	122.86377
2.7795	163.14697
2.78	197.08557
2.7805	211.18469
2.781	230.01709
2.7815	234.24683
2.782	210.78186
2.7825	185.70557
2.783	143.10608
2.7835	114.505
2.784	84.39331
2.7845	66.97083
2.785	50.05188
2.7855	45.41931
2.786	42.49878
2.7865	44.91577
2.787	37.46338
2.7875	22.05505
2.788	10.37292
2.7885	11.68213
2.789	11.58142
2.7895	1.71204
2.79	-2.31628
2.7905	0.90637
2.791	-6.54602
2.7915	-7.25098
2.792	-3.32336
2.7925	-10.87646
2.793	-36.95984
2.7935	-55.69153
2.794	-53.17383
2.7945	-54.28162
2.795	-50.05188
2.7955	-62.8418
2.796	-75.32959
2.7965	-89.83154
2.797	-95.37048
2.7975	-82.37915
2.798	-60.4248
2.7985	-25.37842
2.799	5.94177
2.7995	36.65771
2.8	51.66321
2.8005	72.61047
2.801	99.80164
2.8015	115.10925
2.802	116.41846
2.8025	91.64429
2.803	69.1864
2.8035	58.10852
2.804	55.18799
2.8045	49.24622
2.805	43.90869
2.8055	38.16833
2.806	33.63647
2.8065	35.34851
2.807	27.99683
2.8075	22.76001
2.808	19.73877
2.8085	8.25806
2.809	7.25098
2.8095	2.81982
2.81	0.40283
2.8105	0.30212
2.811	-8.25806
2.8115	-5.63965
2.812	-8.15735
2.8125	-1.91345
2.813	-0.60425
2.8135	1.71204
2.814	-2.01416
2.8145	-4.83398
2.815	-3.8269
2.8155	-5.23682
2.816	-12.89062
2.8165	-13.99841
2.817	-15.60974
2.8175	-18.02673
2.818	-13.19275
2.8185	-20.34302
2.819	-15.71045
2.8195	-14.30054
2.82	-16.61682
2.8205	-31.82373
2.821	-42.59949
2.8215	-38.77258
2.822	-37.36267
2.8225	-31.72302
2.823	-22.35718
2.8235	-13.19275
2.824	-8.8623
2.8245	-15.00549
2.825	-16.21399
2.8255	-18.42957
2.826	-16.81824
2.8265	-19.73877
2.827	-26.58691
2.8275	-40.08179
2.828	-71.7041
2.8285	-86.30676
2.829	-72.00623
2.8295	-53.17383
2.83	-33.73718
2.8305	-4.53186
2.831	6.14319
2.8315	7.75452
2.832	24.57275
2.8325	33.9386
2.833	35.95276
2.8335	61.73401
2.834	84.79614
2.8345	109.97314
2.835	112.99438
2.8355	106.04553
2.836	93.65845
2.8365	78.55225
2.837	70.49561
2.8375	48.64197
2.838	34.74426
2.8385	9.46655
2.839	-16.41541
2.8395	-23.26355
2.84	-19.23523
2.8405	-30.2124
2.841	-34.64355
2.8415	-32.02515
2.842	-32.42798
2.8425	-25.57983
2.843	-30.71594
2.8435	-37.36267
2.844	-40.1825
2.8445	-30.01099
2.845	-25.98267
2.8455	-7.5531
2.846	6.44531
2.8465	-23.56567
2.847	-52.06604
2.8475	-77.14233
2.848	-105.13916
2.8485	-112.08801
2.849	-105.13916
2.8495	-84.19189
2.85	-56.29578
2.8505	-27.6947
2.851	6.14319
2.8515	33.23364
2.852	58.51135
2.8525	77.44446
2.853	90.93933
2.8535	102.01721
2.854	114.90784
2.8545	126.9928
2.855	126.08643
2.8555	109.4696
2.856	89.12659
2.8565	61.02905
2.857	45.82214
2.8575	20.74585
2.858	4.93469
2.8585	2.71912
2.859	6.2439
2.8595	4.02832
2.86	7.15027
2.8605	18.63098
2.861	27.99683
2.8615	33.33435
2.862	38.36975
2.8625	37.66479
2.863	39.57825
2.8635	30.81665
2.864	17.72461
2.8645	9.56726
2.865	-1.91345
2.8655	-26.3855
2.866	-49.14551
2.8665	-75.53101
2.867	-98.39172
2.8675	-103.72925
2.868	-97.88818
2.8685	-72.81189
2.869	-52.06604
2.8695	-28.29895
2.87	-2.11487
2.8705	25.57983
2.871	47.33276
2.8715	65.3595
2.872	76.43738
2.8725	78.85437
2.873	100.00305
2.8735	104.83704
2.874	104.4342
2.8745	92.34924
2.875	69.48853
2.8755	40.58533
2.876	26.58691
2.8765	1.40991
2.877	-11.07788
2.8775	-30.81665
2.878	-35.44922
2.8785	-28.50037
2.879	-16.81824
2.8795	-12.5885
2.88	-40.38391
2.8805	-69.38782
2.881	-80.4657
2.8815	-80.36499
2.882	-74.72534
2.8825	-65.86304
2.883	-65.56091
2.8835	-62.64038
2.884	-47.23206
2.8845	-26.58691
2.885	-13.797
2.8855	4.93469
2.886	11.78284
2.8865	2.5177
2.887	3.32336
2.8875	-14.90479
2.888	-31.11877
2.8885	-43.90869
2.889	-70.79773
2.8895	-119.4397
2.89	-166.67175
2.8905	-174.32556
2.891	-159.21936
2.8915	-121.45386
2.892	-93.35632
2.8925	-67.27295
2.893	-62.74109
2.8935	-63.14392
2.894	-53.17383
2.8945	-16.01257
2.895	23.66638
2.8955	68.17932
2.896	101.31226
2.8965	139.98413
2.897	154.18396
2.8975	170.09583
2.898	181.47583
2.8985	177.44751
2.899	188.22327
2.8995	181.17371
2.9	183.28857
2.9005	176.44043
2.901	166.67175
2.9015	142.50183
2.902	122.05811
2.9025	89.83154
2.903	56.69861
2.9035	9.97009
2.904	-22.6593
2.9045	-50.45471
2.905	-57.20215
2.9055	-51.86462
2.906	-41.29028
2.9065	-25.27771
2.907	0.60425
2.9075	28.29895
2.908	64.25171
2.9085	87.21313
2.909	108.05969
2.9095	120.95032
2.91	122.96448
2.9105	120.95032
2.911	109.97314
2.9115	87.91809
2.912	64.95667
2.9125	43.50586
2.913	23.8678
2.9135	9.76868
2.914	-17.92603
2.9145	-31.72302
2.915	-34.94568
2.9155	-32.83081
2.916	-21.85364
2.9165	-9.97009
2.917	-3.32336
2.9175	10.47363
2.918	18.02673
2.9185	28.09753
2.919	41.18958
2.9195	48.23914
2.92	45.82214
2.9205	26.48621
2.921	8.15735
2.9215	0.50354
2.922	-6.3446
2.9225	-5.53894
2.923	-1.51062
2.9235	7.25098
2.924	4.02832
2.9245	0.80566
2.925	-12.38708
2.9255	-26.98975
2.926	-42.49878
2.9265	-47.63489
2.927	-63.54675
2.9275	-110.07385
2.928	-139.48059
2.9285	-146.63086
2.929	-143.50891
2.9295	-130.61829
2.93	-108.1604
2.9305	-86.30676
2.931	-58.00781
2.9315	-30.31311
2.932	-27.79541
2.9325	-25.177
2.933	-17.72461
2.9335	-0.40283
2.934	9.16443
2.9345	25.177
2.935	38.36975
2.9355	46.22498
2.936	49.44763
2.9365	41.99524
2.937	35.75134
2.9375	37.46338
2.938	42.09595
2.9385	46.42639
2.939	25.27771
2.9395	-32.52869
2.94	-89.02588
2.9405	-98.19031
2.941	-96.47827
2.9415	-86.10535
2.942	-76.03455
2.9425	-65.56091
2.943	-43.50586
2.9435	-5.53894
2.944	29.80957
2.9445	59.31702
2.945	84.59473
2.9455	121.75598
2.946	158.4137
2.9465	175.13123
2.947	171.30432
2.9475	160.42786
2.948	139.37988
2.9485	122.15881
2.949	87.11243
2.9495	59.71985
2.95	59.21631
2.9505	56.29578
2.951	48.54126
2.9515	42.8009
2.952	42.19666
2.9525	44.51294
2.953	34.64355
2.9535	27.49329
2.954	19.53735
2.9545	6.44531
2.955	-13.59558
2.9555	-24.57275
2.956	-32.02515
2.9565	-43.00232
2.957	-58.30994
2.9575	-69.08569
2.958	-70.69702
2.9585	-61.12976
2.959	-47.63489
2.9595	-34.54285
2.96	-18.12744
2.9605	-6.94885
2.961	0.40283
2.9615	3.32336
2.962	2.71912
2.9625	6.2439
2.963	-7.95593
2.9635	-16.41541
2.964	-10.0708
2.9645	-11.78284
2.965	-1.71204
2.9655	7.5531
2.966	14.60266
2.9665	13.69629
2.967	20.64514
2.9675	31.01807
2.968	38.36975
2.9685	52.26746
2.969	63.14392
2.9695	65.56091
2.97	65.3595
2.9705	60.82764
2.971	54.88586
2.9715	34.64355
2.972	14.70337
2.9725	-9.97009
2.973	-35.14709
2.9735	-54.68445
2.974	-67.37366
2.9745	-87.61597
2.975	-97.38464
2.9755	-137.0636
2.976	-182.3822
2.9765	-211.78894
2.977	-211.18469
2.9775	-177.85034
2.978	-140.48767
2.9785	-91.64429
2.979	-41.39099
2.9795	22.86072
2.98	80.86853
2.9805	140.08484
2.981	178.45459
2.9815	211.38611
2.982	227.19727
2.9825	242.00134
2.983	228.00293
2.9835	189.43176
2.984	150.45776
2.9845	112.79297
2.985	64.35242
2.9855	23.06213
2.986	1.91345
2.9865	-6.44531
2.987	-11.68213
2.9875	-9.06372
2.988	-4.33044
2.9885	15.60974
2.989	23.8678
2.9895	29.40674
2.99	36.65771
2.9905	31.92444
2.991	26.78833
2.9915	33.23364
2.992	28.19824
2.9925	16.51611
2.993	13.39417
2.9935	11.78284
2.994	5.53894
2.9945	-19.94019
2.995	-97.98889
2.9955	-173.01636
2.996	-212.19177
2.9965	-224.17603
2.997	-224.47815
2.9975	-201.11389
2.998	-168.38379
2.9985	-125.7843
2.999	-82.27844
2.9995	-39.57825
3	-30.81665
3.0005	-5.53894
3.001	-17.72461
3.0015	-14.09912
3.002	-6.84814
3.0025	-4.02832
3.003	6.04248
3.0035	18.93311
3.004	24.06921
3.0045	24.57275
3.005	37.46338
3.0055	57.40356
3.006	82.68127
3.0065	113.09509
3.007	120.7489
3.0075	133.13599
3.008	134.64661
3.0085	127.19421
3.009	123.16589
3.0095	118.02979
3.01	105.13916
3.0105	90.13367
3.011	58.10852
3.0115	32.62939
3.012	3.22266
3.0125	-8.15735
3.013	-2.5177
3.0135	4.22974
3.014	2.5177
3.0145	10.47363
3.015	20.74585
3.0155	35.75134
3.016	43.50586
3.0165	30.31311
3.017	9.26514
3.0175	-9.56726
3.018	-29.80957
3.0185	-27.19116
3.019	-12.18567
3.0195	2.92053
3.02	16.01257
3.0205	30.31311
3.021	45.62073
3.0215	62.9425
3.022	66.16516
3.0225	67.17224
3.023	65.66162
3.0235	54.88586
3.024	43.10303
3.0245	30.81665
3.025	28.60107
3.0255	11.58142
3.026	7.25098
3.0265	7.25098
3.027	4.83398
3.0275	5.13611
3.028	9.56726
3.0285	8.7616
3.029	8.25806
3.0295	3.22266
3.03	-11.17859
3.0305	-37.06055
3.031	-58.71277
3.0315	-88.11951
3.032	-107.45544
3.0325	-120.34607
3.033	-125.07935
3.0335	-117.72766
3.034	-117.42554
3.0345	-116.41846
3.035	-115.10925
3.0355	-105.54199
3.036	-85.40039
3.0365	-75.93384
3.037	-75.93384
3.0375	-93.15491
3.038	-78.35083
3.0385	-53.57666
3.039	-20.74585
3.0395	6.14319
3.04	27.19116
3.0405	55.59082
3.041	82.58057
3.0415	101.8158
3.042	120.54749
3.0425	130.92041
3.043	131.02112
3.0435	129.81262
3.044	130.61829
3.0445	120.24536
3.045	100.50659
3.0455	71.60339
3.046	13.99841
3.0465	-42.19666
3.047	-82.27844
3.0475	-97.08252
3.048	-98.49243
3.0485	-94.46411
3.049	-71.7041
3.0495	-55.08728
3.05	-61.83472
3.0505	-72.61047
3.051	-86.40747
3.0515	-86.60889
3.052	-92.34924
3.0525	-115.31067
3.053	-120.84961
3.0535	-106.14624
3.054	-78.04871
3.0545	-44.31152
3.055	-2.61841
3.0555	22.86072
3.056	40.98816
3.0565	54.68445
3.057	55.69153
3.0575	83.58765
3.058	107.85828
3.0585	146.12732
3.059	154.58679
3.0595	150.45776
3.06	138.3728
3.0605	138.3728
3.061	145.22095
3.0615	146.83228
3.062	128.70483
3.0625	97.58606
3.063	77.948
3.0635	65.56091
3.064	65.86304
3.0645	60.52551
3.065	38.57117
3.0655	26.28479
3.066	11.48071
3.0665	11.2793
3.067	4.93469
3.0675	-16.91895
3.068	-34.94568
3.0685	-44.11011
3.069	-50.15259
3.0695	-51.05896
3.07	-67.07153
3.0705	-72.50977
3.071	-74.62463
3.0715	-69.99207
3.072	-68.68286
3.0725	-68.17932
3.073	-63.24463
3.0735	-48.23914
3.074	-38.67188
3.0745	-29.91028
3.075	-5.0354
3.0755	11.68213
3.076	7.15027
3.0765	-1.81274
3.077	-2.21558
3.0775	4.93469
3.078	-17.01965
3.0785	-61.73401
3.079	-120.14465
3.0795	-148.4436
3.08	-166.26892
3.0805	-187.51831
3.081	-218.63708
3.0815	-221.75903
3.082	-204.63867
3.0825	-177.64893
3.083	-118.13049
3.0835	-57.30286
3.084	-7.75452
3.0845	25.47913
3.085	31.32019
3.0855	58.41064
3.086	81.27136
3.0865	111.18164
3.087	129.5105
3.0875	145.01953
3.088	149.6521
3.0885	144.51599
3.089	136.45935
3.0895	135.75439
3.09	135.45227
3.0905	125.88501
3.091	131.92749
3.0915	138.97705
3.092	158.01086
3.0925	157.30591
3.093	152.97546
3.0935	142.50183
3.094	129.30908
3.0945	106.9519
3.095	51.66321
3.0955	12.68921
3.096	-20.74585
3.0965	-38.87329
3.097	-43.80798
3.0975	-41.59241
3.098	-40.78674
3.0985	-35.14709
3.099	-29.20532
3.0995	-33.83789
3.1	-25.177
3.1005	-10.27222
3.101	0.80566
3.1015	-28.09753
3.102	-107.35474
3.1025	-157.70874
3.103	-188.6261
3.1035	-232.23267
3.104	-246.93604
3.1045	-241.79993
3.105	-215.81726
3.1055	-175.73547
3.106	-115.7135
3.1065	-47.13135
3.107	2.61841
3.1075	48.84338
3.108	89.52942
3.1085	128.302
3.109	152.47192
3.1095	183.38928
3.11	200.40894
3.1105	213.50098
3.111	198.89832
3.1115	168.88733
3.112	138.47351
3.1125	114.30359
3.113	81.87561
3.1135	60.62622
3.114	53.87878
3.1145	48.33984
3.115	34.94568
3.1155	25.37842
3.116	-9.16443
3.1165	-110.47668
3.117	-183.48999
3.1175	-221.96045
3.118	-238.9801
3.1185	-246.83533
3.119	-224.88098
3.1195	-197.89124
3.12	-161.43494
3.1205	-118.53333
3.121	-78.55225
3.1215	-39.17542
3.122	4.93469
3.1225	61.02905
3.123	112.18872
3.1235	152.37122
3.124	181.97937
3.1245	192.85583
3.125	194.36646
3.1255	149.95422
3.126	109.06677
3.1265	80.76782
3.127	61.6333
3.1275	38.87329
3.128	-24.06921
3.1285	-93.65845
3.129	-152.67334
3.1295	-202.32239
3.13	-218.13354
3.1305	-227.70081
3.131	-216.01868
3.1315	-182.88574
3.132	-135.25085
3.1325	-82.07703
3.133	-23.8678
3.1335	29.80957
3.134	82.27844
3.1345	129.10767
3.135	180.87158
3.1355	218.03284
3.136	220.55054
3.1365	224.17603
3.137	222.86682
3.1375	198.09265
3.138	168.68591
3.1385	142.50183
3.139	101.9165
3.1395	63.84888
3.14	37.16125
3.1405	19.23523
3.141	-37.26196
3.1415	-68.28003
3.142	-71.50269
3.1425	-66.06445
3.143	-52.97241
3.1435	-49.64905
3.144	-55.99365
3.1445	-45.52002
3.145	-11.58142
3.1455	9.36584
3.146	30.31311
3.1465	53.47595
3.147	75.4303
3.1475	104.83704
3.148	106.64978
3.1485	75.32959
3.149	27.29187
3.1495	-11.78284
3.15	-40.78674
3.1505	-91.04004
3.151	-126.48926
3.1515	-129.5105
3.152	-121.85669
3.1525	-121.85669
3.153	-144.91882
3.1535	-158.21228
3.154	-176.84326
3.1545	-194.26575
3.155	-183.99353
3.1555	-157.80945
3.156	-113.69934
3.1565	-60.4248
3.157	-7.5531
3.1575	44.91577
3.158	102.82288
3.1585	121.85669
3.159	101.8158
3.1595	101.01013
3.16	106.54907
3.1605	92.14783
3.161	94.3634
3.1615	113.39722
3.162	109.57031
3.1625	88.82446
3.163	72.9126
3.1635	73.81897
3.164	61.33118
3.1645	70.29419
3.165	89.42871
3.1655	108.96606
3.166	114.70642
3.1665	103.22571
3.167	101.31226
3.1675	100.80872
3.168	83.18481
3.1685	67.57507
3.169	51.05896
3.1695	32.7301
3.17	10.47363
3.1705	-15.81116
3.171	-40.08179
3.1715	-64.95667
3.172	-75.02747
3.1725	-64.75525
3.173	-52.46887
3.1735	-44.81506
3.174	-29.30603
3.1745	2.71912
3.175	34.34143
3.1755	58.61206
3.176	77.14233
3.1765	61.12976
3.177	57.50427
3.1775	53.47595
3.178	12.89062
3.1785	-80.06287
3.179	-207.96204
3.1795	-294.16809
3.18	-361.64246
3.1805	-391.35132
3.181	-377.45361
3.1815	-334.45129
3.182	-293.86597
3.1825	-253.68347
3.183	-189.02893
3.1835	-129.40979
3.184	-69.58923
3.1845	-13.19275
3.185	52.26746
3.1855	75.22888
3.186	117.52625
3.1865	158.91724
3.187	193.86292
3.1875	230.1178
3.188	247.43958
3.1885	203.53088
3.189	145.42236
3.1895	90.13367
3.19	55.69153
3.1905	32.7301
3.191	50.2533
3.1915	66.26587
3.192	78.04871
3.1925	92.65137
3.193	129.91333
3.1935	153.68042
3.194	162.34131
3.1945	157.80945
3.195	162.44202
3.1955	166.16821
3.196	178.05176
3.1965	181.47583
3.197	180.26733
3.1975	151.76697
3.198	117.62695
3.1985	112.79297
3.199	104.63562
3.1995	50.2533
3.2	-20.34302
3.2005	-99.60022
3.201	-156.50024
3.2015	-185.40344
3.202	-211.58752
3.2025	-247.94312
3.203	-242.7063
3.2035	-213.29956
3.204	-189.73389
3.2045	-178.5553
3.205	-158.91724
3.2055	-171.50574
3.206	-145.01953
3.2065	-115.10925
3.207	-56.69861
3.2075	-3.7262
3.208	48.33984
3.2085	87.11243
3.209	109.3689
3.2095	142.19971
3.21	172.00928
3.2105	182.3822
3.211	220.85266
3.2115	245.42542
3.212	257.10754
3.2125	239.68506
3.213	224.27673
3.2135	213.50098
3.214	197.89124
3.2145	161.13281
3.215	126.08643
3.2155	68.07861
3.216	-13.19275
3.2165	-127.79846
3.217	-217.73071
3.2175	-259.021
3.218	-265.3656
3.2185	-242.80701
3.219	-204.53796
3.2195	-183.08716
3.22	-191.1438
3.2205	-199.40186
3.221	-165.76538
3.2215	-132.83386
3.222	-90.33508
3.2225	-25.07629
3.223	26.68762
3.2235	75.4303
3.224	97.88818
3.2245	50.45471
3.225	-0.50354
3.2255	-30.91736
3.226	-42.39807
3.2265	-38.47046
3.227	-23.56567
3.2275	-6.3446
3.228	9.56726
3.2285	34.54285
3.229	62.53967
3.2295	53.67737
3.23	-4.93469
3.2305	-45.92285
3.231	-62.9425
3.2315	-40.88745
3.232	-9.16443
3.2325	20.84656
3.233	38.47046
3.2335	71.80481
3.234	96.17615
3.2345	105.74341
3.235	95.47119
3.2355	103.42712
3.236	114.70642
3.2365	130.8197
3.237	128.80554
3.2375	121.05103
3.238	132.0282
3.2385	139.17847
3.239	139.27917
3.2395	132.0282
3.24	109.67102
3.2405	48.84338
3.241	-21.85364
3.2415	-60.72693
3.242	-79.15649
3.2425	-102.52075
3.243	-116.31775
3.2435	-104.3335
3.244	-87.21313
3.2445	-57.10144
3.245	-33.33435
3.2455	-18.73169
3.246	-4.83398
3.2465	25.78125
3.247	61.12976
3.2475	104.03137
3.248	138.77563
3.2485	145.12024
3.249	155.69458
3.2495	160.72998
3.25	161.93848
3.2505	145.9259
3.251	93.45703
3.2515	42.19666
3.252	25.47913
3.2525	15.81116
3.253	10.47363
3.2535	-38.36975
3.254	-95.97473
3.2545	-134.94873
3.255	-185.50415
3.2555	-247.54028
3.256	-273.92578
3.2565	-258.92029
3.257	-226.79443
3.2575	-182.48291
3.258	-140.48767
3.2585	-96.98181
3.259	-44.21082
3.2595	20.44373
3.26	80.86853
3.2605	133.3374
3.261	174.52698
3.2615	214.91089
3.262	239.88647
3.2625	230.1178
3.263	190.13672
3.2635	135.45227
3.264	103.72925
3.2645	3.02124
3.265	-121.9574
3.2655	-249.65515
3.266	-319.64722
3.2665	-371.10901
3.267	-372.82104
3.2675	-322.66846
3.268	-256.5033
3.2685	-194.46716
3.269	-120.24536
3.2695	-32.62939
3.27	56.5979
3.2705	130.92041
3.271	202.72522
3.2715	265.96985
3.272	317.63306
3.2725	338.58032
3.273	324.58191
3.2735	287.01782
3.274	240.28931
3.2745	196.68274
3.275	179.26025
3.2755	161.73706
3.276	140.28625
3.2765	119.4397
3.277	108.05969
3.2775	93.55774
3.278	83.18481
3.2785	73.11401
3.279	65.66162
3.2795	61.12976
3.28	65.25879
3.2805	73.91968
3.281	67.67578
3.2815	58.00781
3.282	43.70728
3.2825	11.58142
3.283	-24.27063
3.2835	-79.55933
3.284	-110.17456
3.2845	-163.95264
3.285	-206.95496
3.2855	-218.43567
3.286	-221.05408
3.2865	-218.13354
3.287	-211.18469
3.2875	-210.27832
3.288	-214.30664
3.2885	-227.39868
3.289	-231.52771
3.2895	-209.06982
3.29	-169.69299
3.2905	-157.00378
3.291	-166.0675
3.2915	-143.50891
3.292	-101.11084
3.2925	-75.63171
3.293	-59.51843
3.2935	-38.47046
3.294	-23.56567
3.2945	6.54602
3.295	45.11719
3.2955	77.84729
3.296	80.16357
3.2965	49.0448
3.297	40.58533
3.2975	55.59082
3.298	71.60339
3.2985	87.81738
3.299	114.60571
3.2995	136.76147
3.3	140.48767
3.3005	122.05811
3.301	69.79065
3.3015	9.46655
3.302	-54.58374
3.3025	-97.88818
3.303	-100.40588
3.3035	-71.7041
3.304	-40.48462
3.3045	-7.75452
3.305	28.19824
3.3055	63.84888
3.306	96.47827
3.3065	150.25635
3.307	195.47424
3.3075	244.51904
3.308	271.91162
3.3085	275.33569
3.309	277.75269
3.3095	271.40808
3.31	253.58276
3.3105	233.9447
3.311	197.08557
3.3115	129.5105
3.312	68.07861
3.3125	28.19824
3.313	-27.6947
3.3135	-73.11401
3.314	-79.66003
3.3145	-68.78357
3.315	-37.86621
3.3155	-35.54993
3.316	-55.79224
3.3165	-75.4303
3.317	-77.04163
3.3175	-96.8811
3.318	-92.85278
3.3185	-67.17224
3.319	-30.91736
3.3195	-18.53027
3.32	-122.15881
3.3205	-202.12097
3.321	-219.24133
3.3215	-235.35461
3.322	-239.68506
3.3225	-203.53088
3.323	-169.59229
3.3235	-137.16431
3.324	-114.505
3.3245	-99.49951
3.325	-73.81897
3.3255	-92.75208
3.326	-137.46643
3.3265	-145.01953
3.327	-97.08252
3.3275	-39.98108
3.328	-20.84656
3.3285	15.91187
3.329	60.52551
3.3295	107.65686
3.33	141.69617
3.3305	116.41846
3.331	-12.38708
3.3315	-128.60413
3.332	-146.73157
3.3325	-116.31775
3.333	-86.50818
3.3335	-76.94092
3.334	-104.93774
3.3345	-269.29321
3.335	-386.31592
3.3355	-417.13257
3.336	-375.64087
3.3365	-330.62439
3.337	-263.15002
3.3375	-174.62769
3.338	-76.94092
3.3385	38.57117
3.339	151.16272
3.3395	276.04065
3.34	375.64087
3.3405	440.29541
3.341	498.90747
3.3415	554.90112
3.342	549.76501
3.3425	503.13721
3.343	440.09399
3.3435	319.24438
3.344	219.84558
3.3445	153.479
3.345	112.39014
3.3455	75.02747
3.346	46.92993
3.3465	-4.83398
3.347	-82.47986
3.3475	-136.25793
3.348	-146.32874
3.3485	-109.57031
3.349	-58.10852
3.3495	-31.92444
3.35	-25.57983
3.3505	-32.32727
3.351	-31.11877
3.3515	-18.32886
3.352	-1.2085
3.3525	23.66638
3.353	52.8717
3.3535	76.43738
3.354	83.48694
3.3545	122.96448
3.355	162.2406
3.3555	194.16504
3.356	221.65833
3.3565	236.96594
3.357	262.94861
3.3575	279.66614
3.358	297.79358
3.3585	277.75269
3.359	231.52771
3.3595	181.87866
3.36	137.46643
3.3605	115.7135
3.361	93.55774
3.3615	73.21472
3.362	31.11877
3.3625	18.42957
3.363	14.80408
3.3635	26.68762
3.364	29.30603
3.3645	37.96692
3.365	6.64673
3.3655	-65.05737
3.366	-178.05176
3.3665	-231.22559
3.367	-249.0509
3.3675	-245.52612
3.368	-235.95886
3.3685	-211.2854
3.369	-213.50098
3.3695	-242.80701
3.37	-338.98315
3.3705	-443.41736
3.371	-468.09082
3.3715	-436.3678
3.372	-380.17273
3.3725	-293.56384
3.373	-280.4718
3.3735	-241.69922
3.374	-170.80078
3.3745	-81.47278
3.375	11.48071
3.3755	92.14783
3.376	142.70325
3.3765	168.28308
3.377	198.89832
3.3775	232.6355
3.378	247.03674
3.3785	255.59692
3.379	213.70239
3.3795	70.49561
3.38	-49.14551
3.3805	-87.11243
3.381	-64.95667
3.3815	-45.72144
3.382	-26.88904
3.3825	9.26514
3.383	60.92834
3.3835	87.81738
3.384	98.0896
3.3845	139.48059
3.385	154.98962
3.3855	125.28076
3.386	39.67896
3.3865	-13.797
3.387	-35.65063
3.3875	-25.78125
3.388	-15.1062
3.3885	22.35718
3.389	79.66003
3.3895	133.03528
3.39	173.31848
3.3905	203.93372
3.391	219.84558
3.3915	246.13037
3.392	235.35461
3.3925	122.76306
3.393	8.66089
3.3935	-73.31543
3.394	-131.22253
3.3945	-166.67175
3.395	-205.54504
3.3955	-224.37744
3.396	-214.50806
3.3965	-192.05017
3.397	-148.4436
3.3975	-99.09668
3.398	-49.54834
3.3985	6.64673
3.399	75.32959
3.3995	110.47668
3.4	102.11792
3.4005	62.64038
3.401	26.08337
3.4015	7.25098
3.402	-14.80408
3.4025	-20.1416
3.403	-47.43347
3.4035	-88.0188
3.404	-102.21863
3.4045	-81.67419
3.405	-68.68286
3.4055	-72.40906
3.406	-60.3241
3.4065	-36.55701
3.407	6.3446
3.4075	68.48145
3.408	143.71033
3.4085	204.9408
3.409	241.59851
3.4095	276.94702
3.41	315.7196
3.4105	343.71643
3.411	348.55042
3.4115	362.04529
3.412	346.33484
3.4125	245.224
3.413	101.9165
3.4135	-81.87561
3.414	-265.96985
3.4145	-384.10034
3.415	-465.3717
3.4155	-517.94128
3.416	-534.55811
3.4165	-541.40625
3.417	-518.24341
3.4175	-468.79578
3.418	-423.47717
3.4185	-361.54175
3.419	-265.76843
3.4195	-139.5813
3.42	-6.74744
3.4205	131.72607
3.421	247.54028
3.4215	363.4552
3.422	453.48816
3.4225	520.45898
3.423	555.8075
3.4235	546.44165
3.424	517.94128
3.4245	500.01526
3.425	429.82178
3.4255	360.43396
3.426	292.55676
3.4265	229.01001
3.427	180.36804
3.4275	134.04236
3.428	87.41455
3.4285	-48.44055
3.429	-203.32947
3.4295	-326.9989
3.43	-392.15698
3.4305	-393.86902
3.431	-389.23645
3.4315	-375.54016
3.432	-353.48511
3.4325	-297.79358
3.433	-201.51672
3.4335	-101.11084
3.434	-24.16992
3.4345	51.26038
3.435	119.13757
3.4355	134.84802
3.436	137.26501
3.4365	157.91016
3.437	173.01636
3.4375	178.45459
3.438	164.55688
3.4385	159.52148
3.439	159.42078
3.4395	157.60803
3.44	79.15649
3.4405	-77.74658
3.441	-190.23743
3.4415	-247.13745
3.442	-285.30579
3.4425	-275.93994
3.443	-235.65674
3.4435	-183.48999
3.444	-109.06677
3.4445	-19.53735
3.445	61.12976
3.4455	126.28784
3.446	188.52539
3.4465	234.75037
3.447	245.82825
3.4475	251.87073
3.448	235.65674
3.4485	206.25
3.449	175.13123
3.4495	157.91016
3.45	142.70325
3.4505	133.94165
3.451	117.32483
3.4515	107.05261
3.452	105.94482
3.4525	75.22888
3.453	-147.43652
3.4535	-359.93042
3.454	-432.33948
3.4545	-444.82727
3.455	-411.2915
3.4555	-350.76599
3.456	-276.74561
3.4565	-191.94946
3.457	-115.31067
3.4575	-47.03064
3.458	14.60266
3.4585	63.44604
3.459	130.21545
3.4595	193.35938
3.46	235.75745
3.4605	247.03674
3.461	283.39233
3.4615	317.12952
3.462	340.99731
3.4625	335.05554
3.463	282.38525
3.4635	184.69849
3.464	102.52075
3.4645	50.2533
3.465	7.25098
3.4655	-7.95593
3.466	-29.80957
3.4665	-71.09985
3.467	-94.96765
3.4675	-92.14783
3.468	-100.30518
3.4685	-85.60181
3.469	-72.50977
3.4695	-53.27454
3.47	-54.78516
3.4705	-43.70728
3.471	-41.59241
3.4715	-3.52478
3.472	18.42957
3.4725	62.64038
3.473	120.95032
3.4735	153.57971
3.474	187.11548
3.4745	218.8385
3.475	182.18079
3.4755	70.89844
3.476	-1.2085
3.4765	-84.2926
3.477	-177.24609
3.4775	-260.83374
3.478	-351.77307
3.4785	-465.3717
3.479	-522.57385
3.4795	-499.00818
3.48	-427.20337
3.4805	-327.30103
3.481	-181.27441
3.4815	-64.25171
3.482	-73.91968
3.4825	-211.78894
3.483	-339.68811
3.4835	-430.32532
3.484	-446.33789
3.4845	-358.82263
3.485	-335.96191
3.4855	-352.98157
3.486	-367.38281
3.4865	-321.9635
3.487	-231.12488
3.4875	-141.39404
3.488	-11.2793
3.4885	155.59387
3.489	317.83447
3.4895	463.96179
3.49	586.62415
3.4905	675.85144
3.491	697.80579
3.4915	695.38879
3.492	718.45093
3.4925	731.14014
3.493	708.58154
3.4935	625.79956
3.494	538.88855
3.4945	473.73047
3.495	412.80212
3.4955	354.79431
3.496	323.07129
3.4965	278.15552
3.497	218.53638
3.4975	180.77087
3.498	158.81653
3.4985	123.46802
3.499	98.89526
3.4995	55.89294
3.5	39.57825
3.5005	23.66638
3.501	8.05664
3.5015	-9.86938
3.502	-24.77417
3.5025	-26.58691
3.503	-19.33594
3.5035	-21.14868
3.504	-20.04089
3.5045	-13.797
3.505	-27.99683
3.5055	-46.5271
3.506	-44.41223
3.5065	-95.06836
3.507	-162.13989
3.5075	-179.15955
3.508	-167.276
3.5085	-139.78271
3.509	-104.23279
3.5095	-89.73083
3.51	-109.3689
3.5105	-99.49951
3.511	-71.80481
3.5115	-41.59241
3.512	-30.2124
3.5125	-47.03064
3.513	-114.00146
3.5135	-177.04468
3.514	-221.75903
3.5145	-235.1532
3.515	-213.70239
3.5155	-193.96362
3.516	-161.0321
3.5165	-146.32874
3.517	-152.97546
3.5175	-133.13599
3.518	-90.5365
3.5185	-66.76941
3.519	-55.18799
3.5195	-23.06213
3.52	31.01807
3.5205	48.23914
3.521	-101.9165
3.5215	-227.49939
3.522	-281.88171
3.5225	-330.22156
3.523	-333.84705
3.5235	-286.41357
3.524	-227.19727
3.5245	-204.84009
3.525	-165.36255
3.5255	-136.86218
3.526	-97.18323
3.5265	-50.05188
3.527	-55.89294
3.5275	-51.36108
3.528	-77.64587
3.5285	-89.83154
3.529	-71.20056
3.5295	-67.47437
3.53	-76.63879
3.5305	-191.1438
3.531	-481.78711
3.5315	-918.35632
3.532	-1191.47644
3.5325	-1233.37097
3.533	-1161.26404
3.5335	-988.75122
3.534	-810.39734
3.5345	-637.38098
3.535	-527.81067
3.5355	-415.42053
3.536	-214.30664
3.5365	4.33044
3.537	226.79443
3.5375	449.86267
3.538	592.16309
3.5385	500.72021
3.539	323.67554
3.5395	-0.20142
3.54	-231.62842
3.5405	-267.98401
3.541	-288.72986
3.5415	-323.87695
3.542	-260.22949
3.5425	-165.36255
3.543	-91.745
3.5435	-19.03381
3.544	-12.68921
3.5445	57.00073
3.545	224.07532
3.5455	463.35754
3.546	667.69409
3.5465	809.69238
3.547	842.72461
3.5475	822.28088
3.548	853.50037
3.5485	951.58997
3.549	1042.63
3.5495	1119.06738
3.55	1112.52136
3.5505	1089.86206
3.551	1047.66541
3.5515	971.73157
3.552	859.14001
3.5525	763.56812
3.553	705.35889
3.5535	644.73267
3.554	599.01123
3.5545	542.71545
3.555	485.91614
3.5555	436.06567
3.556	405.55115
3.5565	354.19006
3.557	321.56067
3.5575	283.29163
3.558	216.22009
3.5585	140.28625
3.559	60.72693
3.5595	-34.94568
3.56	-101.71509
3.5605	-140.28625
3.561	-164.45618
3.5615	-197.18628
3.562	-211.48682
3.5625	-188.6261
3.563	-169.49158
3.5635	-212.19177
3.564	-568.69812
3.5645	-840.30762
3.565	-938.29651
3.5655	-981.09741
3.566	-928.42712
3.5665	-827.71912
3.567	-704.65393
3.5675	-553.28979
3.568	-414.41345
3.5685	-324.68262
3.569	-326.69678
3.5695	-316.82739
3.57	-233.74329
3.5705	-119.23828
3.571	-21.24939
3.5715	19.63806
3.572	-62.13684
3.5725	-242.10205
3.573	-409.88159
3.5735	-534.55811
3.574	-614.01672
3.5745	-701.63269
3.575	-736.17554
3.5755	-735.57129
3.576	-619.75708
3.5765	-384.8053
3.577	-120.24536
3.5775	66.76941
3.578	139.68201
3.5785	106.14624
3.579	96.98181
3.5795	147.33582
3.58	288.52844
3.5805	468.89648
3.581	610.18982
3.5815	708.078
3.582	782.80334
3.5825	844.33594
3.583	890.15808
3.5835	895.59631
3.584	889.55383
3.5845	809.79309
3.585	650.87585
3.5855	478.16162
3.586	326.9989
3.5865	156.80237
3.587	37.26196
3.5875	-21.24939
3.588	-60.4248
3.5885	-125.18005
3.589	-187.92114
3.5895	-452.27966
3.59	-1069.0155
3.5905	-1783.53882
3.591	-2139.94434
3.5915	-2149.71313
3.592	-1979.91943
3.5925	-1716.56799
3.593	-1389.16626
3.5935	-969.21387
3.594	-487.9303
3.5945	57.50427
3.595	619.35425
3.5955	1117.75818
3.596	1571.04492
3.5965	1934.198
3.597	2172.37231
3.5975	2248.00415
3.598	2149.10889
3.5985	1931.98242
3.599	1666.91895
3.5995	1353.91846
3.6	1074.45374
3.6005	851.98975
3.601	676.25427
3.6015	475.3418
3.602	205.0415
3.6025	47.33276
3.603	-66.76941
3.6035	-114.30359
3.604	-250.15869
3.6045	-345.42847
3.605	-387.323
3.6055	-398.80371
3.606	-428.31116
3.6065	-609.58557
3.607	-823.08655
3.6075	-940.00854
3.608	-962.36572
3.6085	-862.96692
3.609	-736.17554
3.6095	-585.81848
3.61	-435.1593
3.6105	-255.69763
3.611	-59.92126
3.6115	137.86926
3.612	313.90686
3.6125	495.68481
3.613	633.25195
3.6135	715.12756
3.614	732.65076
3.6145	667.39197
3.615	572.2229
3.6155	528.2135
3.616	509.88464
3.6165	483.19702
3.617	413.7085
3.6175	334.24988
3.618	249.65515
3.6185	98.39172
3.619	-87.71667
3.6195	-205.0415
3.62	-274.42932
3.6205	-433.95081
3.621	-611.39832
3.6215	-688.94348
3.622	-678.16772
3.6225	-647.04895
3.623	-595.48645
3.6235	-503.94287
3.624	-394.27185
3.6245	-332.13501
3.625	-259.92737
3.6255	-155.69458
3.626	-39.07471
3.6265	51.86462
3.627	104.73633
3.6275	141.39404
3.628	34.14001
3.6285	-134.34448
3.629	-174.92981
3.6295	-128.50342
3.63	-146.93298
3.6305	-196.98486
3.631	-155.59387
3.6315	-46.42639
3.632	24.77417
3.6325	45.62073
3.633	32.62939
3.6335	-79.2572
3.634	-333.74634
3.6345	-564.26697
3.635	-767.99927
3.6355	-857.02515
3.636	-864.37683
3.6365	-777.36511
3.637	-641.81213
3.6375	-433.24585
3.638	-220.24841
3.6385	49.14551
3.639	311.28845
3.6395	553.79333
3.64	799.72229
3.6405	1006.17371
3.641	1139.81323
3.6415	1208.39539
3.642	1183.31909
3.6425	1054.81567
3.643	867.39807
3.6435	707.27234
3.644	559.93652
3.6445	472.11914
3.645	377.05078
3.6455	303.53394
3.646	241.29639
3.6465	236.26099
3.647	241.69922
3.6475	240.08789
3.648	224.88098
3.6485	217.22717
3.649	219.74487
3.6495	226.79443
3.65	213.8031
3.6505	190.84167
3.651	172.21069
3.6515	162.84485
3.652	54.28162
3.6525	-245.32471
3.653	-528.01208
3.6535	-709.48792
3.654	-771.12122
3.6545	-766.28723
3.655	-719.3573
3.6555	-613.7146
3.656	-470.70923
3.6565	-332.23572
3.657	-201.01318
3.6575	-81.47278
3.658	38.87329
3.6585	147.83936
3.659	246.73462
3.6595	337.57324
3.66	384.60388
3.6605	354.99573
3.661	205.14221
3.6615	97.38464
3.662	-1.10779
3.6625	-86.00464
3.663	-148.64502
3.6635	-201.71814
3.664	-212.4939
3.6645	-171.50574
3.665	-128.302
3.6655	-37.16125
3.666	52.26746
3.6665	123.97156
3.667	186.51123
3.6675	203.12805
3.668	185.80627
3.6685	193.05725
3.669	208.26416
3.6695	182.78503
3.67	159.42078
3.6705	138.77563
3.671	102.52075
3.6715	71.7041
3.672	40.08179
3.6725	46.42639
3.673	56.19507
3.6735	52.06604
3.674	60.82764
3.6745	67.07153
3.675	73.41614
3.6755	36.85913
3.676	-82.47986
3.6765	-262.74719
3.677	-379.06494
3.6775	-414.11133
3.678	-372.51892
3.6785	-316.02173
3.679	-257.61108
3.6795	-201.11389
3.68	-120.04395
3.6805	-27.89612
3.681	38.77258
3.6815	108.46252
3.682	144.21387
3.6825	162.64343
3.683	176.54114
3.6835	189.53247
3.684	177.64893
3.6845	137.56714
3.685	80.76782
3.6855	-15.00549
3.686	-181.57654
3.6865	-417.93823
3.687	-580.68237
3.6875	-716.13464
3.688	-739.59961
3.6885	-678.77197
3.689	-571.82007
3.6895	-444.12231
3.69	-305.34668
3.6905	-173.92273
3.691	-35.34851
3.6915	70.69702
3.692	125.88501
3.6925	140.38696
3.693	198.99902
3.6935	254.0863
3.694	305.6488
3.6945	326.29395
3.695	283.59375
3.6955	253.28064
3.696	115.81421
3.6965	9.16443
3.697	-36.25488
3.6975	-52.56958
3.698	-105.94482
3.6985	-244.11621
3.699	-313.60474
3.6995	-331.32935
3.7	-266.37268
3.7005	-134.64661
3.701	-21.04797
3.7015	78.25012
3.702	119.84253
3.7025	167.37671
3.703	175.23193
3.7035	114.90784
3.704	78.95508
3.7045	82.47986
3.705	-4.33044
3.7055	-191.54663
3.706	-353.98865
3.7065	-517.03491
3.707	-722.78137
3.7075	-853.29895
3.708	-895.29419
3.7085	-911.00464
3.709	-780.38635
3.7095	-586.82556
3.71	-372.3175
3.7105	-116.11633
3.711	95.37048
3.7115	314.20898
3.712	474.03259
3.7125	631.13708
3.713	766.79077
3.7135	906.06995
3.714	1009.79919
3.7145	1047.26257
3.715	985.52856
3.7155	930.6427
3.716	865.08179
3.7165	782.80334
3.717	650.47302
3.7175	507.76978
3.718	385.10742
3.7185	220.65125
3.719	-65.15808
3.7195	-282.48596
3.72	-373.526
3.7205	-389.03503
3.721	-335.05554
3.7215	-290.44189
3.722	-248.44666
3.7225	-243.81409
3.723	-336.46545
3.7235	-384.70459
3.724	-354.89502
3.7245	-276.74561
3.725	-197.18628
3.7255	-100.50659
3.726	-9.26514
3.7265	107.35474
3.727	220.95337
3.7275	328.71094
3.728	439.08691
3.7285	516.43066
3.729	557.82166
3.7295	561.14502
3.73	540.90271
3.7305	502.02942
3.731	475.03967
3.7315	427.30408
3.732	383.29468
3.7325	328.50952
3.733	279.46472
3.7335	233.54187
3.734	178.15247
3.7345	110.77881
3.735	68.17932
3.7355	44.0094
3.736	29.30603
3.7365	-1.10779
3.737	-13.29346
3.7375	-50.75684
3.738	-105.74341
3.7385	-144.11316
3.739	-163.95264
3.7395	-172.21069
3.74	-158.81653
3.7405	-144.51599
3.741	-129.20837
3.7415	-140.18555
3.742	-140.38696
3.7425	-139.88342
3.743	-152.1698
3.7435	-160.72998
3.744	-163.24768
3.7445	-170.19653
3.745	-168.98804
3.7455	-188.6261
3.746	-204.9408
3.7465	-219.44275
3.747	-222.16187
3.7475	-216.3208
3.748	-203.83301
3.7485	-176.54114
3.749	-130.21545
3.7495	-79.2572
3.75	-39.27612
3.7505	-9.86938
3.751	13.797
3.7515	43.60657
3.752	76.43738
3.7525	100.10376
3.753	117.32483
3.7535	124.07227
3.754	126.08643
3.7545	116.922
3.755	100.40588
3.7555	83.99048
3.756	71.90552
3.7565	60.52551
3.757	53.97949
3.7575	48.33984
3.758	43.50586
3.7585	31.62231
3.759	0.80566
3.7595	-41.18958
3.76	-140.48767
3.7605	-216.72363
3.761	-239.28223
3.7615	-226.3916
3.762	-206.75354
3.7625	-176.0376
3.763	-144.51599
3.7635	-115.81421
3.764	-124.77722
3.7645	-156.50024
3.765	-174.22485
3.7655	-186.51123
3.766	-166.87317
3.7665	-132.93457
3.767	-93.55774
3.7675	-45.2179
3.768	-17.42249
3.7685	-10.47363
3.769	-50.65613
3.7695	-80.96924
3.77	-105.13916
3.7705	-137.0636
3.771	-157.40662
3.7715	-174.62769
3.772	-163.85193
3.7725	-124.27368
3.773	-73.61755
3.7735	1.3092
3.774	71.50269
3.7745	134.74731
3.775	188.22327
3.7755	237.57019
3.776	276.44348
3.7765	288.72986
3.777	296.98792
3.7775	272.31445
3.778	240.08789
3.7785	216.62292
3.779	175.03052
3.7795	161.23352
3.78	139.48059
3.7805	124.07227
3.781	124.57581
3.7815	134.14307
3.782	139.17847
3.7825	139.37988
3.783	136.96289
3.7835	115.31067
3.784	81.87561
3.7845	-2.31628
3.785	-63.54675
3.7855	-120.14465
3.786	-132.12891
3.7865	-136.56006
3.787	-168.38379
3.7875	-203.53088
3.788	-248.84949
3.7885	-259.92737
3.789	-233.84399
3.7895	-191.54663
3.79	-163.14697
3.7905	-147.43652
3.791	-91.64429
3.7915	-55.99365
3.792	-81.17065
3.7925	-386.41663
3.793	-884.82056
3.7935	-1120.17517
3.794	-1119.2688
3.7945	-1000.93689
3.795	-823.38867
3.7955	-637.78381
3.796	-425.69275
3.7965	-201.61743
3.797	44.31152
3.7975	286.31287
3.798	513.51013
3.7985	686.22437
3.799	817.64832
3.7995	883.20923
3.8	891.26587
3.8005	869.61365
3.801	804.35486
3.8015	695.38879
3.802	561.64856
3.8025	452.27966
3.803	359.729
3.8035	286.91711
3.804	224.88098
3.8045	171.60645
3.805	132.83386
3.8055	104.3335
3.806	85.90393
3.8065	88.32092
3.807	105.03845
3.8075	112.28943
3.808	76.23596
3.8085	24.27063
3.809	-13.59558
3.8095	-27.09045
3.81	-49.34692
3.8105	-131.52466
3.811	-264.1571
3.8115	-362.85095
3.812	-417.03186
3.8125	-419.14673
3.813	-376.54724
3.8135	-297.79358
3.814	-189.83459
3.8145	-80.26428
3.815	10.37292
3.8155	83.88977
3.816	137.0636
3.8165	178.35388
3.817	195.37354
3.8175	199.40186
3.818	195.67566
3.8185	179.26025
3.819	111.8866
3.8195	59.51843
3.82	21.85364
3.8205	23.66638
3.821	14.09912
3.8215	20.94727
3.822	28.60107
3.8225	-5.33752
3.823	-89.42871
3.8235	-162.84485
3.824	-207.76062
3.8245	-229.11072
3.825	-190.13672
3.8255	-102.42004
3.826	-21.3501
3.8265	76.7395
3.827	149.45068
3.8275	203.32947
3.828	258.51746
3.8285	281.88171
3.829	308.67004
3.8295	316.12244
3.83	308.46863
3.8305	284.90295
3.831	230.72205
3.8315	132.93457
3.832	54.98657
3.8325	-10.47363
3.833	-47.7356
3.8335	-86.30676
3.834	-109.77173
3.8345	-106.34766
3.835	-98.59314
3.8355	-168.68591
3.836	-226.89514
3.8365	-225.28381
3.837	-177.24609
3.8375	-147.1344
3.838	-167.88025
3.8385	-195.27283
3.839	-194.66858
3.8395	-218.93921
3.84	-250.2594
3.8405	-263.25073
3.841	-229.21143
3.8415	-152.87476
3.842	-63.74817
3.8425	12.78992
3.843	70.99915
3.8435	130.71899
3.844	130.61829
3.8445	85.5011
3.845	32.93152
3.8455	-6.84814
3.846	-18.53027
3.8465	-33.9386
3.847	-21.04797
3.8475	0.80566
3.848	-54.18091
3.8485	-132.53174
3.849	-150.65918
3.8495	-130.92041
3.85	-115.61279
3.8505	-127.79846
3.851	-160.83069
3.8515	-143.50891
3.852	-114.80713
3.8525	-56.5979
3.853	4.12903
3.8535	66.87012
3.854	128.50342
3.8545	192.65442
3.855	248.9502
3.8555	296.7865
3.856	302.92969
3.8565	218.03284
3.857	157.70874
3.8575	99.90234
3.858	-28.80249
3.8585	-148.3429
3.859	-230.52063
3.8595	-273.62366
3.86	-296.38367
3.8605	-322.26562
3.861	-384.60388
3.8615	-530.63049
3.862	-555.9082
3.8625	-524.68872
3.863	-408.97522
3.8635	-260.93445
3.864	-138.17139
3.8645	2.21558
3.865	130.61829
3.8655	230.21851
3.866	335.65979
3.8665	401.72424
3.867	366.07361
3.8675	355.80139
3.868	381.58264
3.8685	424.38354
3.869	403.33557
3.8695	337.17041
3.87	259.92737
3.8705	125.28076
3.871	16.41541
3.8715	-40.48462
3.872	-47.93701
3.8725	-21.04797
3.873	18.22815
3.8735	3.12195
3.874	35.14709
3.8745	77.44446
3.875	142.099
3.8755	200.10681
3.876	249.15161
3.8765	247.23816
3.877	185.40344
3.8775	91.8457
3.878	-148.74573
3.8785	-566.88538
3.879	-805.96619
3.8795	-846.45081
3.88	-851.58691
3.8805	-827.21558
3.881	-637.5824
3.8815	-406.05469
3.882	-161.43494
3.8825	62.8418
3.883	223.16895
3.8835	390.64636
3.884	528.41492
3.8845	637.17957
3.885	720.26367
3.8855	748.36121
3.886	741.71448
3.8865	692.87109
3.887	453.68958
3.8875	157.10449
3.888	-134.34448
3.8885	-369.19556
3.889	-460.2356
3.8895	-426.49841
3.89	-346.53625
3.8905	-269.0918
3.891	-164.85901
3.8915	-41.99524
3.892	77.84729
3.8925	192.05017
3.893	322.76917
3.8935	435.05859
3.894	504.14429
3.8945	551.27563
3.895	539.89563
3.8955	439.79187
3.896	216.52222
3.8965	14.19983
3.897	-70.59631
3.8975	-63.94958
3.898	-91.8457
3.8985	-173.01636
3.899	-338.98315
3.8995	-405.95398
3.9	-368.4906
3.9005	-314.30969
3.901	-350.8667
3.9015	-521.8689
3.902	-691.76331
3.9025	-779.6814
3.903	-822.4823
3.9035	-769.00635
3.904	-645.1355
3.9045	-485.61401
3.905	-285.00366
3.9055	-72.50977
3.906	123.16589
3.9065	317.33093
3.907	514.61792
3.9075	683.10242
3.908	786.73096
3.9085	731.84509
3.909	640.50293
3.9095	638.8916
3.91	625.19531
3.9105	577.2583
3.911	534.25598
3.9115	491.25366
3.912	477.8595
3.9125	466.5802
3.913	500.82092
