Marco_Margarita_Right_2.c3d  



Time(s):	C_L_bicipite(μV):
0	9.36584
0.0005	7.85522
0.001	7.65381
0.0015	8.96301
0.002	7.75452
0.0025	-3.42407
0.003	2.11487
0.0035	3.7262
0.004	6.94885
0.0045	9.26514
0.005	8.05664
0.0055	6.54602
0.006	8.35876
0.0065	11.88354
0.007	8.7616
0.0075	10.37292
0.008	3.8269
0.0085	5.94177
0.009	4.53186
0.0095	6.84814
0.01	3.22266
0.0105	6.04248
0.011	6.94885
0.0115	9.46655
0.012	9.16443
0.0125	3.02124
0.013	4.73328
0.0135	5.13611
0.014	10.17151
0.0145	6.64673
0.015	12.68921
0.0155	8.45947
0.016	7.25098
0.0165	10.87646
0.017	1.81274
0.0175	5.13611
0.018	9.16443
0.0185	8.56018
0.019	8.66089
0.0195	7.15027
0.02	10.27222
0.0205	14.80408
0.021	7.15027
0.0215	11.78284
0.022	4.53186
0.0225	4.33044
0.023	4.43115
0.0235	8.15735
0.024	9.97009
0.0245	12.08496
0.025	7.65381
0.0255	9.97009
0.026	14.60266
0.0265	10.27222
0.027	9.46655
0.0275	11.58142
0.028	9.86938
0.0285	12.38708
0.029	8.05664
0.0295	6.3446
0.03	8.25806
0.0305	11.68213
0.031	15.40833
0.0315	14.70337
0.032	10.37292
0.0325	9.56726
0.033	16.01257
0.0335	11.38
0.034	8.25806
0.0345	7.65381
0.035	5.74036
0.0355	-1.2085
0.036	2.21558
0.0365	5.74036
0.037	7.25098
0.0375	7.04956
0.038	8.25806
0.0385	8.56018
0.039	5.33752
0.0395	13.797
0.04	5.33752
0.0405	5.23682
0.041	8.15735
0.0415	4.22974
0.042	3.42407
0.0425	3.7262
0.043	2.01416
0.0435	1.61133
0.044	8.35876
0.0445	6.3446
0.045	3.22266
0.0455	4.73328
0.046	8.25806
0.0465	9.26514
0.047	3.62549
0.0475	1.00708
0.048	2.92053
0.0485	1.71204
0.049	5.94177
0.0495	6.44531
0.05	2.81982
0.0505	2.31628
0.051	1.00708
0.0515	0
0.052	-2.71912
0.0525	-1.71204
0.053	-5.33752
0.0535	-3.12195
0.054	2.11487
0.0545	1.81274
0.055	3.52478
0.0555	9.66797
0.056	6.54602
0.0565	9.56726
0.057	5.33752
0.0575	0.80566
0.058	9.06372
0.0585	7.04956
0.059	12.28638
0.0595	10.27222
0.06	6.2439
0.0605	5.33752
0.061	0
0.0615	2.61841
0.062	7.45239
0.0625	1.71204
0.063	0.80566
0.0635	3.32336
0.064	3.92761
0.0645	3.42407
0.065	5.0354
0.0655	7.85522
0.066	10.0708
0.0665	3.92761
0.067	3.42407
0.0675	6.94885
0.068	4.83398
0.0685	7.75452
0.069	4.33044
0.0695	8.96301
0.07	5.74036
0.0705	6.44531
0.071	1.51062
0.0715	1.10779
0.072	5.0354
0.0725	4.63257
0.073	3.8269
0.0735	4.33044
0.074	3.62549
0.0745	2.41699
0.075	2.92053
0.0755	2.92053
0.076	4.02832
0.0765	6.3446
0.077	9.56726
0.0775	4.33044
0.078	4.43115
0.0785	10.57434
0.079	12.78992
0.0795	13.797
0.08	7.65381
0.0805	8.25806
0.081	4.63257
0.0815	10.37292
0.082	1.51062
0.0825	2.81982
0.083	1.3092
0.0835	7.75452
0.084	7.25098
0.0845	9.46655
0.085	11.17859
0.0855	2.21558
0.086	2.11487
0.0865	6.64673
0.087	6.64673
0.0875	5.13611
0.088	3.62549
0.0885	9.16443
0.089	11.58142
0.0895	6.44531
0.09	9.26514
0.0905	7.45239
0.091	7.04956
0.0915	11.58142
0.092	9.06372
0.0925	16.71753
0.093	10.87646
0.0935	9.06372
0.094	5.43823
0.0945	11.68213
0.095	3.52478
0.0955	5.13611
0.096	6.14319
0.0965	4.02832
0.097	3.92761
0.0975	6.64673
0.098	6.94885
0.0985	3.7262
0.099	12.48779
0.0995	5.33752
0.1	4.73328
0.1005	8.66089
0.101	8.8623
0.1015	7.25098
0.102	5.13611
0.1025	5.63965
0.103	6.04248
0.1035	3.22266
0.104	6.14319
0.1045	6.04248
0.105	2.21558
0.1055	4.02832
0.106	7.5531
0.1065	2.5177
0.107	10.87646
0.1075	9.26514
0.108	8.7616
0.1085	4.83398
0.109	11.38
0.1095	7.85522
0.11	5.43823
0.1105	4.12903
0.111	9.56726
0.1115	8.35876
0.112	7.25098
0.1125	3.62549
0.113	7.85522
0.1135	6.14319
0.114	4.93469
0.1145	9.97009
0.115	7.5531
0.1155	4.63257
0.116	4.53186
0.1165	2.41699
0.117	9.06372
0.1175	1.51062
0.118	2.61841
0.1185	1.2085
0.119	4.22974
0.1195	4.43115
0.12	7.35168
0.1205	5.0354
0.121	4.73328
0.1215	2.92053
0.122	1.3092
0.1225	5.74036
0.123	2.11487
0.1235	3.62549
0.124	7.04956
0.1245	3.32336
0.125	5.13611
0.1255	3.12195
0.126	2.61841
0.1265	3.52478
0.127	1.51062
0.1275	3.92761
0.128	3.32336
0.1285	8.35876
0.129	11.17859
0.1295	7.25098
0.13	9.86938
0.1305	8.35876
0.131	6.3446
0.1315	9.76868
0.132	10.0708
0.1325	10.67505
0.133	4.93469
0.1335	3.02124
0.134	10.0708
0.1345	10.87646
0.135	13.797
0.1355	7.65381
0.136	10.47363
0.1365	5.33752
0.137	5.43823
0.1375	6.14319
0.138	2.92053
0.1385	6.44531
0.139	2.5177
0.1395	0.90637
0.14	2.5177
0.1405	6.84814
0.141	-0.20142
0.1415	5.43823
0.142	4.12903
0.1425	6.3446
0.143	4.33044
0.1435	4.73328
0.144	5.0354
0.1445	3.7262
0.145	9.76868
0.1455	5.84106
0.146	3.42407
0.1465	3.92761
0.147	8.15735
0.1475	6.94885
0.148	8.7616
0.1485	3.62549
0.149	3.22266
0.1495	5.74036
0.15	6.54602
0.1505	8.15735
0.151	7.25098
0.1515	5.43823
0.152	7.45239
0.1525	9.66797
0.153	10.17151
0.1535	7.45239
0.154	8.15735
0.1545	7.65381
0.155	6.64673
0.1555	6.74744
0.156	4.93469
0.1565	0.40283
0.157	7.75452
0.1575	13.09204
0.158	7.04956
0.1585	-2.01416
0.159	2.5177
0.1595	-0.40283
0.16	3.7262
0.1605	4.02832
0.161	0.60425
0.1615	4.33044
0.162	5.74036
0.1625	5.84106
0.163	9.97009
0.1635	5.33752
0.164	1.71204
0.1645	7.04956
0.165	4.33044
0.1655	-0.40283
0.166	-2.71912
0.1665	5.23682
0.167	8.25806
0.1675	6.74744
0.168	1.91345
0.1685	4.43115
0.169	7.25098
0.1695	6.44531
0.17	6.2439
0.1705	7.95593
0.171	10.77576
0.1715	7.5531
0.172	7.5531
0.1725	10.77576
0.173	10.17151
0.1735	8.8623
0.174	-0.70496
0.1745	5.33752
0.175	7.25098
0.1755	6.14319
0.176	5.74036
0.1765	4.02832
0.177	10.57434
0.1775	4.53186
0.178	1.10779
0.1785	4.02832
0.179	0.20142
0.1795	3.52478
0.18	6.3446
0.1805	5.63965
0.181	8.8623
0.1815	7.95593
0.182	6.14319
0.1825	6.04248
0.183	5.33752
0.1835	0.40283
0.184	9.06372
0.1845	5.13611
0.185	9.06372
0.1855	6.94885
0.186	4.22974
0.1865	8.15735
0.187	7.35168
0.1875	9.76868
0.188	7.95593
0.1885	6.64673
0.189	6.04248
0.1895	3.42407
0.19	-1.00708
0.1905	7.5531
0.191	12.08496
0.1915	6.2439
0.192	5.43823
0.1925	11.98425
0.193	8.05664
0.1935	4.43115
0.194	3.7262
0.1945	2.21558
0.195	4.12903
0.1955	4.02832
0.196	2.5177
0.1965	-0.30212
0.197	1.3092
0.1975	-2.31628
0.198	-0.40283
0.1985	-1.71204
0.199	2.92053
0.1995	3.62549
0.2	-1.71204
0.2005	-1.2085
0.201	-1.10779
0.2015	-0.50354
0.202	3.42407
0.2025	1.40991
0.203	-0.60425
0.2035	1.61133
0.204	6.14319
0.2045	7.65381
0.205	8.05664
0.2055	-1.00708
0.206	5.43823
0.2065	7.35168
0.207	3.62549
0.2075	8.25806
0.208	6.74744
0.2085	4.73328
0.209	6.3446
0.2095	13.29346
0.21	7.5531
0.2105	7.15027
0.211	2.71912
0.2115	3.32336
0.212	7.04956
0.2125	10.17151
0.213	2.21558
0.2135	5.23682
0.214	4.93469
0.2145	2.31628
0.215	4.83398
0.2155	-1.2085
0.216	2.92053
0.2165	3.52478
0.217	4.53186
0.2175	8.66089
0.218	7.35168
0.2185	9.16443
0.219	7.65381
0.2195	4.93469
0.22	10.17151
0.2205	10.87646
0.221	4.93469
0.2215	0.40283
0.222	9.26514
0.2225	3.02124
0.223	6.84814
0.2235	7.35168
0.224	12.78992
0.2245	2.11487
0.225	3.02124
0.2255	2.01416
0.226	9.46655
0.2265	2.71912
0.227	3.22266
0.2275	6.3446
0.228	10.17151
0.2285	9.56726
0.229	6.2439
0.2295	6.3446
0.23	8.66089
0.2305	2.31628
0.231	3.62549
0.2315	9.56726
0.232	4.43115
0.2325	3.12195
0.233	5.43823
0.2335	-2.01416
0.234	3.32336
0.2345	6.84814
0.235	5.63965
0.2355	1.3092
0.236	2.01416
0.2365	3.62549
0.237	3.42407
0.2375	2.92053
0.238	4.63257
0.2385	12.89062
0.239	7.04956
0.2395	6.94885
0.24	3.12195
0.2405	6.74744
0.241	8.15735
0.2415	10.67505
0.242	2.01416
0.2425	7.04956
0.243	11.88354
0.2435	7.75452
0.244	7.15027
0.2445	10.0708
0.245	8.7616
0.2455	5.63965
0.246	10.57434
0.2465	7.65381
0.247	8.15735
0.2475	10.17151
0.248	7.04956
0.2485	10.57434
0.249	7.15027
0.2495	7.04956
0.25	10.0708
0.2505	3.52478
0.251	9.16443
0.2515	7.85522
0.252	11.07788
0.2525	7.85522
0.253	9.46655
0.2535	7.75452
0.254	5.0354
0.2545	1.71204
0.255	5.33752
0.2555	9.06372
0.256	5.13611
0.2565	6.64673
0.257	9.16443
0.2575	2.11487
0.258	10.57434
0.2585	8.15735
0.259	3.8269
0.2595	6.04248
0.26	5.74036
0.2605	1.40991
0.261	7.45239
0.2615	0.40283
0.262	5.23682
0.2625	3.62549
0.263	2.41699
0.2635	0.80566
0.264	3.62549
0.2645	2.11487
0.265	4.73328
0.2655	-1.61133
0.266	1.81274
0.2665	3.42407
0.267	5.13611
0.2675	3.32336
0.268	3.62549
0.2685	-2.41699
0.269	0.10071
0.2695	5.23682
0.27	4.02832
0.2705	-0.10071
0.271	5.0354
0.2715	4.22974
0.272	0.50354
0.2725	0.80566
0.273	2.01416
0.2735	0.40283
0.274	2.61841
0.2745	-0.50354
0.275	-0.80566
0.2755	3.42407
0.276	1.71204
0.2765	5.74036
0.277	0.60425
0.2775	2.5177
0.278	5.33752
0.2785	3.62549
0.279	4.02832
0.2795	2.01416
0.28	9.97009
0.2805	8.7616
0.281	5.74036
0.2815	2.01416
0.282	6.74744
0.2825	5.33752
0.283	4.73328
0.2835	4.12903
0.284	6.54602
0.2845	3.7262
0.285	3.62549
0.2855	4.02832
0.286	4.33044
0.2865	9.36584
0.287	5.53894
0.2875	5.94177
0.288	4.83398
0.2885	6.2439
0.289	6.3446
0.2895	6.14319
0.29	12.18567
0.2905	5.84106
0.291	5.63965
0.2915	5.43823
0.292	1.3092
0.2925	5.33752
0.293	-1.91345
0.2935	2.81982
0.294	6.04248
0.2945	3.22266
0.295	6.3446
0.2955	11.68213
0.296	5.33752
0.2965	2.71912
0.297	1.61133
0.2975	-0.70496
0.298	2.5177
0.2985	4.12903
0.299	4.63257
0.2995	2.21558
0.3	7.5531
0.3005	8.45947
0.301	5.84106
0.3015	4.53186
0.302	6.94885
0.3025	3.02124
0.303	4.63257
0.3035	-1.10779
0.304	2.11487
0.3045	5.53894
0.305	6.44531
0.3055	5.0354
0.306	4.53186
0.3065	6.04248
0.307	3.42407
0.3075	9.56726
0.308	4.33044
0.3085	4.53186
0.309	7.75452
0.3095	10.0708
0.31	5.63965
0.3105	8.45947
0.311	11.58142
0.3115	7.04956
0.312	8.45947
0.3125	9.16443
0.313	10.37292
0.3135	6.74744
0.314	8.96301
0.3145	4.43115
0.315	6.44531
0.3155	8.05664
0.316	6.94885
0.3165	3.42407
0.317	6.64673
0.3175	5.63965
0.318	7.65381
0.3185	9.06372
0.319	3.7262
0.3195	4.63257
0.32	9.97009
0.3205	4.02832
0.321	1.71204
0.3215	0.90637
0.322	1.81274
0.3225	4.63257
0.323	7.45239
0.3235	5.13611
0.324	3.62549
0.3245	3.8269
0.325	7.95593
0.3255	4.12903
0.326	5.53894
0.3265	7.5531
0.327	9.16443
0.3275	8.45947
0.328	6.44531
0.3285	3.7262
0.329	2.11487
0.3295	4.33044
0.33	4.93469
0.3305	7.04956
0.331	6.94885
0.3315	6.74744
0.332	8.25806
0.3325	8.8623
0.333	6.64673
0.3335	2.5177
0.334	4.83398
0.3345	7.15027
0.335	10.17151
0.3355	10.47363
0.336	5.33752
0.3365	5.23682
0.337	3.8269
0.3375	2.71912
0.338	2.21558
0.3385	1.2085
0.339	5.74036
0.3395	-3.22266
0.34	0.40283
0.3405	-0.10071
0.341	5.43823
0.3415	0.50354
0.342	7.04956
0.3425	4.93469
0.343	6.64673
0.3435	7.85522
0.344	11.38
0.3445	8.45947
0.345	8.45947
0.3455	9.26514
0.346	8.05664
0.3465	6.54602
0.347	9.26514
0.3475	8.7616
0.348	4.93469
0.3485	6.64673
0.349	6.54602
0.3495	2.5177
0.35	8.96301
0.3505	1.61133
0.351	-1.40991
0.3515	5.63965
0.352	1.91345
0.3525	1.71204
0.353	4.83398
0.3535	5.33752
0.354	5.33752
0.3545	7.15027
0.355	8.96301
0.3555	-0.10071
0.356	2.41699
0.3565	3.7262
0.357	3.12195
0.3575	-2.41699
0.358	7.35168
0.3585	3.42407
0.359	8.35876
0.3595	6.94885
0.36	7.35168
0.3605	7.04956
0.361	5.13611
0.3615	8.45947
0.362	6.04248
0.3625	5.23682
0.363	9.66797
0.3635	7.95593
0.364	6.04248
0.3645	5.53894
0.365	-0.30212
0.3655	3.22266
0.366	4.02832
0.3665	5.33752
0.367	2.71912
0.3675	6.74744
0.368	6.04248
0.3685	5.23682
0.369	10.67505
0.3695	12.08496
0.37	7.85522
0.3705	9.86938
0.371	6.54602
0.3715	3.22266
0.372	7.95593
0.3725	3.52478
0.373	9.06372
0.3735	9.36584
0.374	9.46655
0.3745	3.52478
0.375	1.61133
0.3755	5.23682
0.376	3.8269
0.3765	4.43115
0.377	11.17859
0.3775	6.54602
0.378	-1.00708
0.3785	6.64673
0.379	3.92761
0.3795	10.67505
0.38	7.65381
0.3805	5.0354
0.381	6.2439
0.3815	3.92761
0.382	6.54602
0.3825	5.0354
0.383	8.7616
0.3835	5.74036
0.384	5.13611
0.3845	6.74744
0.385	0.20142
0.3855	-1.00708
0.386	1.10779
0.3865	3.92761
0.387	3.62549
0.3875	3.22266
0.388	1.61133
0.3885	2.41699
0.389	3.32336
0.3895	3.8269
0.39	1.91345
0.3905	3.92761
0.391	3.62549
0.3915	5.94177
0.392	3.12195
0.3925	2.92053
0.393	2.01416
0.3935	5.74036
0.394	8.7616
0.3945	0.10071
0.395	-1.2085
0.3955	6.3446
0.396	-1.51062
0.3965	4.93469
0.397	7.75452
0.3975	7.65381
0.398	3.8269
0.3985	4.73328
0.399	2.71912
0.3995	4.63257
0.4	-3.02124
0.4005	-4.93469
0.401	4.43115
0.4015	6.2439
0.402	3.42407
0.4025	4.93469
0.403	2.5177
0.4035	8.15735
0.404	8.8623
0.4045	6.04248
0.405	2.01416
0.4055	8.66089
0.406	2.01416
0.4065	3.92761
0.407	-4.93469
0.4075	1.81274
0.408	1.81274
0.4085	2.81982
0.409	-1.3092
0.4095	-0.40283
0.41	1.51062
0.4105	5.0354
0.411	6.3446
0.4115	0.30212
0.412	2.21558
0.4125	6.94885
0.413	2.92053
0.4135	2.41699
0.414	3.52478
0.4145	6.04248
0.415	4.43115
0.4155	7.45239
0.416	6.44531
0.4165	7.04956
0.417	6.14319
0.4175	5.43823
0.418	6.04248
0.4185	8.66089
0.419	5.43823
0.4195	7.75452
0.42	3.52478
0.4205	4.33044
0.421	1.40991
0.4215	3.8269
0.422	4.93469
0.4225	2.41699
0.423	6.64673
0.4235	8.15735
0.424	6.64673
0.4245	4.43115
0.425	5.0354
0.4255	2.5177
0.426	3.62549
0.4265	6.64673
0.427	8.8623
0.4275	10.57434
0.428	7.75452
0.4285	8.05664
0.429	10.97717
0.4295	5.53894
0.43	6.2439
0.4305	5.74036
0.431	5.43823
0.4315	2.01416
0.432	4.12903
0.4325	1.3092
0.433	5.0354
0.4335	3.22266
0.434	5.74036
0.4345	5.13611
0.435	10.0708
0.4355	1.3092
0.436	0.50354
0.4365	9.06372
0.437	10.17151
0.4375	10.67505
0.438	8.35876
0.4385	5.63965
0.439	3.8269
0.4395	2.5177
0.44	11.2793
0.4405	7.35168
0.441	5.43823
0.4415	6.74744
0.442	6.74744
0.4425	4.02832
0.443	7.75452
0.4435	2.81982
0.444	5.23682
0.4445	6.04248
0.445	9.56726
0.4455	6.04248
0.446	0.80566
0.4465	3.7262
0.447	1.40991
0.4475	4.53186
0.448	8.05664
0.4485	3.8269
0.449	1.51062
0.4495	5.0354
0.45	3.02124
0.4505	1.61133
0.451	3.8269
0.4515	1.91345
0.452	2.31628
0.4525	1.61133
0.453	6.94885
0.4535	2.31628
0.454	2.01416
0.4545	6.14319
0.455	5.53894
0.4555	7.35168
0.456	10.57434
0.4565	9.06372
0.457	10.97717
0.4575	8.05664
0.458	4.83398
0.4585	6.44531
0.459	4.93469
0.4595	5.43823
0.46	6.14319
0.4605	8.15735
0.461	5.43823
0.4615	7.25098
0.462	5.84106
0.4625	8.8623
0.463	6.84814
0.4635	2.11487
0.464	4.12903
0.4645	4.73328
0.465	8.05664
0.4655	0.40283
0.466	3.42407
0.4665	2.21558
0.467	1.40991
0.4675	7.15027
0.468	1.61133
0.4685	6.04248
0.469	7.65381
0.4695	4.12903
0.47	2.81982
0.4705	5.43823
0.471	2.81982
0.4715	2.01416
0.472	5.23682
0.4725	9.36584
0.473	10.77576
0.4735	11.38
0.474	11.68213
0.4745	9.16443
0.475	7.5531
0.4755	12.48779
0.476	7.85522
0.4765	2.71912
0.477	0.10071
0.4775	2.21558
0.478	0.90637
0.4785	-1.40991
0.479	3.52478
0.4795	4.63257
0.48	9.97009
0.4805	4.63257
0.481	4.93469
0.4815	10.27222
0.482	3.42407
0.4825	2.21558
0.483	1.91345
0.4835	1.71204
0.484	5.84106
0.4845	8.66089
0.485	-1.00708
0.4855	-0.10071
0.486	1.3092
0.4865	0.20142
0.487	-1.71204
0.4875	3.62549
0.488	5.23682
0.4885	4.43115
0.489	5.33752
0.4895	3.8269
0.49	3.12195
0.4905	5.0354
0.491	-0.60425
0.4915	4.02832
0.492	5.13611
0.4925	2.21558
0.493	6.44531
0.4935	6.74744
0.494	7.35168
0.4945	4.53186
0.495	1.61133
0.4955	2.31628
0.496	3.7262
0.4965	7.15027
0.497	4.02832
0.4975	4.33044
0.498	3.8269
0.4985	7.75452
0.499	6.2439
0.4995	4.33044
0.5	8.45947
0.5005	2.01416
0.501	6.3446
0.5015	8.96301
0.502	5.94177
0.5025	3.12195
0.503	7.35168
0.5035	2.71912
0.504	3.12195
0.5045	7.95593
0.505	8.45947
0.5055	5.84106
0.506	10.17151
0.5065	12.99133
0.507	7.35168
0.5075	5.53894
0.508	6.74744
0.5085	8.45947
0.509	8.25806
0.5095	12.08496
0.51	9.06372
0.5105	10.37292
0.511	7.95593
0.5115	-0.70496
0.512	7.35168
0.5125	2.92053
0.513	2.71912
0.5135	5.43823
0.514	8.25806
0.5145	11.98425
0.515	10.87646
0.5155	2.31628
0.516	5.84106
0.5165	14.60266
0.517	11.48071
0.5175	7.15027
0.518	6.14319
0.5185	0.70496
0.519	8.56018
0.5195	11.48071
0.52	10.17151
0.5205	7.75452
0.521	6.54602
0.5215	4.93469
0.522	5.43823
0.5225	8.45947
0.523	3.92761
0.5235	8.8623
0.524	4.02832
0.5245	5.33752
0.525	0.50354
0.5255	-0.80566
0.526	2.31628
0.5265	0.40283
0.527	6.74744
0.5275	8.05664
0.528	6.74744
0.5285	5.0354
0.529	5.13611
0.5295	7.25098
0.53	4.12903
0.5305	2.31628
0.531	-0.90637
0.5315	1.3092
0.532	1.51062
0.5325	6.14319
0.533	8.05664
0.5335	4.53186
0.534	6.74744
0.5345	2.21558
0.535	4.02832
0.5355	7.25098
0.536	6.44531
0.5365	9.66797
0.537	9.97009
0.5375	6.04248
0.538	5.13611
0.5385	5.74036
0.539	3.42407
0.5395	6.54602
0.54	8.7616
0.5405	3.8269
0.541	-1.81274
0.5415	6.04248
0.542	7.85522
0.5425	5.33752
0.543	8.25806
0.5435	5.23682
0.544	8.7616
0.5445	4.33044
0.545	7.5531
0.5455	9.76868
0.546	7.35168
0.5465	6.94885
0.547	5.74036
0.5475	7.04956
0.548	5.13611
0.5485	-0.50354
0.549	2.01416
0.5495	3.12195
0.55	0.20142
0.5505	-0.60425
0.551	2.92053
0.5515	0.70496
0.552	2.41699
0.5525	6.64673
0.553	3.8269
0.5535	9.16443
0.554	3.8269
0.5545	3.32336
0.555	7.85522
0.5555	7.75452
0.556	0.50354
0.5565	3.7262
0.557	7.45239
0.5575	1.40991
0.558	4.02832
0.5585	3.92761
0.559	3.62549
0.5595	1.91345
0.56	3.02124
0.5605	1.00708
0.561	3.32336
0.5615	3.22266
0.562	2.31628
0.5625	4.73328
0.563	5.33752
0.5635	1.61133
0.564	7.35168
0.5645	7.65381
0.565	8.8623
0.5655	5.43823
0.566	5.84106
0.5665	1.81274
0.567	3.02124
0.5675	3.02124
0.568	-0.10071
0.5685	0.90637
0.569	3.12195
0.5695	2.5177
0.57	8.8623
0.5705	4.73328
0.571	2.31628
0.5715	2.01416
0.572	8.7616
0.5725	5.33752
0.573	6.84814
0.5735	7.04956
0.574	6.64673
0.5745	5.33752
0.575	1.00708
0.5755	9.06372
0.576	6.84814
0.5765	5.23682
0.577	11.78284
0.5775	9.76868
0.578	6.44531
0.5785	5.74036
0.579	7.25098
0.5795	0.70496
0.58	2.01416
0.5805	6.44531
0.581	-0.40283
0.5815	7.04956
0.582	3.7262
0.5825	4.22974
0.583	6.94885
0.5835	12.18567
0.584	10.77576
0.5845	6.74744
0.585	4.73328
0.5855	3.22266
0.586	4.22974
0.5865	3.62549
0.587	3.52478
0.5875	3.42407
0.588	7.35168
0.5885	5.43823
0.589	6.64673
0.5895	7.5531
0.59	0.50354
0.5905	-0.40283
0.591	4.02832
0.5915	-2.21558
0.592	3.62549
0.5925	4.53186
0.593	4.63257
0.5935	1.2085
0.594	10.77576
0.5945	13.19275
0.595	6.84814
0.5955	5.0354
0.596	-1.91345
0.5965	4.12903
0.597	2.11487
0.5975	3.12195
0.598	2.71912
0.5985	7.25098
0.599	2.71912
0.5995	1.61133
0.6	4.93469
0.6005	3.7262
0.601	4.43115
0.6015	6.44531
0.602	4.73328
0.6025	10.17151
0.603	9.06372
0.6035	8.56018
0.604	2.21558
0.6045	3.8269
0.605	12.48779
0.6055	4.02832
0.606	3.12195
0.6065	8.25806
0.607	5.94177
0.6075	7.65381
0.608	10.37292
0.6085	8.96301
0.609	3.02124
0.6095	6.2439
0.61	7.5531
0.6105	11.88354
0.611	5.74036
0.6115	5.63965
0.612	8.05664
0.6125	3.42407
0.613	5.84106
0.6135	10.0708
0.614	3.7262
0.6145	4.22974
0.615	3.42407
0.6155	6.44531
0.616	2.81982
0.6165	-2.31628
0.617	1.51062
0.6175	1.40991
0.618	5.13611
0.6185	4.33044
0.619	4.33044
0.6195	1.71204
0.62	-0.30212
0.6205	-4.53186
0.621	-6.44531
0.6215	0.70496
0.622	-3.92761
0.6225	4.02832
0.623	5.43823
0.6235	1.3092
0.624	2.01416
0.6245	-1.71204
0.625	0.90637
0.6255	3.8269
0.626	2.92053
0.6265	3.52478
0.627	-0.70496
0.6275	2.21558
0.628	-2.5177
0.6285	1.3092
0.629	-3.22266
0.6295	-2.21558
0.63	1.81274
0.6305	5.53894
0.631	3.8269
0.6315	3.02124
0.632	3.42407
0.6325	2.5177
0.633	3.8269
0.6335	4.73328
0.634	2.21558
0.6345	4.43115
0.635	3.32336
0.6355	2.92053
0.636	3.32336
0.6365	10.17151
0.637	5.43823
0.6375	2.92053
0.638	3.7262
0.6385	1.00708
0.639	4.73328
0.6395	1.3092
0.64	5.63965
0.6405	9.06372
0.641	6.94885
0.6415	4.93469
0.642	8.25806
0.6425	6.3446
0.643	4.02832
0.6435	10.57434
0.644	8.66089
0.6445	10.87646
0.645	8.7616
0.6455	9.56726
0.646	8.8623
0.6465	6.2439
0.647	7.15027
0.6475	9.16443
0.648	5.13611
0.6485	6.64673
0.649	12.78992
0.6495	7.04956
0.65	6.64673
0.6505	8.25806
0.651	6.04248
0.6515	12.68921
0.652	3.8269
0.6525	4.63257
0.653	5.13611
0.6535	4.43115
0.654	6.74744
0.6545	11.48071
0.655	7.75452
0.6555	8.25806
0.656	5.13611
0.6565	7.5531
0.657	1.61133
0.6575	7.25098
0.658	9.46655
0.6585	10.17151
0.659	8.15735
0.6595	7.85522
0.66	0.90637
0.6605	5.33752
0.661	10.27222
0.6615	6.44531
0.662	3.92761
0.6625	3.62549
0.663	4.02832
0.6635	5.53894
0.664	5.84106
0.6645	-1.3092
0.665	2.31628
0.6655	9.16443
0.666	1.91345
0.6665	4.53186
0.667	4.33044
0.6675	10.37292
0.668	11.98425
0.6685	4.73328
0.669	8.35876
0.6695	5.74036
0.67	11.38
0.6705	13.29346
0.671	6.84814
0.6715	5.0354
0.672	11.48071
0.6725	5.23682
0.673	2.21558
0.6735	7.5531
0.674	4.63257
0.6745	6.94885
0.675	-0.50354
0.6755	8.96301
0.676	8.56018
0.6765	2.71912
0.677	5.43823
0.6775	6.84814
0.678	7.75452
0.6785	2.31628
0.679	6.74744
0.6795	5.74036
0.68	5.23682
0.6805	3.62549
0.681	2.31628
0.6815	2.41699
0.682	3.42407
0.6825	6.74744
0.683	7.75452
0.6835	7.5531
0.684	4.63257
0.6845	5.43823
0.685	7.15027
0.6855	10.67505
0.686	11.98425
0.6865	6.54602
0.687	8.8623
0.6875	1.40991
0.688	5.43823
0.6885	6.54602
0.689	0.70496
0.6895	5.23682
0.69	6.74744
0.6905	2.81982
0.691	7.5531
0.6915	7.35168
0.692	4.22974
0.6925	5.33752
0.693	-0.40283
0.6935	4.02832
0.694	6.3446
0.6945	7.35168
0.695	13.59558
0.6955	12.38708
0.696	6.74744
0.6965	6.44531
0.697	9.06372
0.6975	2.01416
0.698	5.23682
0.6985	1.10779
0.699	3.52478
0.6995	7.75452
0.7	3.92761
0.7005	-0.50354
0.701	1.10779
0.7015	8.96301
0.702	6.2439
0.7025	3.62549
0.703	-0.10071
0.7035	6.54602
0.704	8.56018
0.7045	3.52478
0.705	5.84106
0.7055	11.88354
0.706	3.7262
0.7065	8.15735
0.707	5.13611
0.7075	8.25806
0.708	-2.81982
0.7085	2.81982
0.709	7.15027
0.7095	6.74744
0.71	7.25098
0.7105	6.44531
0.711	3.02124
0.7115	4.12903
0.712	8.8623
0.7125	1.51062
0.713	5.43823
0.7135	6.14319
0.714	3.62549
0.7145	10.27222
0.715	12.08496
0.7155	13.89771
0.716	6.2439
0.7165	1.81274
0.717	6.54602
0.7175	10.77576
0.718	7.04956
0.7185	5.94177
0.719	6.44531
0.7195	7.04956
0.72	3.92761
0.7205	2.81982
0.721	11.68213
0.7215	6.14319
0.722	6.74744
0.7225	11.78284
0.723	8.96301
0.7235	7.75452
0.724	5.43823
0.7245	10.27222
0.725	5.53894
0.7255	7.65381
0.726	5.23682
0.7265	10.87646
0.727	5.74036
0.7275	5.63965
0.728	5.74036
0.7285	4.22974
0.729	6.2439
0.7295	1.91345
0.73	3.7262
0.7305	3.32336
0.731	5.23682
0.7315	6.44531
0.732	4.02832
0.7325	0.70496
0.733	-4.73328
0.7335	-1.10779
0.734	-0.40283
0.7345	4.93469
0.735	-0.20142
0.7355	1.71204
0.736	-0.50354
0.7365	9.76868
0.737	6.94885
0.7375	4.83398
0.738	9.06372
0.7385	11.88354
0.739	5.94177
0.7395	9.97009
0.74	11.38
0.7405	8.7616
0.741	5.23682
0.7415	10.37292
0.742	4.53186
0.7425	5.74036
0.743	7.5531
0.7435	3.7262
0.744	6.3446
0.7445	-0.80566
0.745	7.35168
0.7455	5.43823
0.746	10.37292
0.7465	7.25098
0.747	7.65381
0.7475	9.66797
0.748	8.35876
0.7485	3.02124
0.749	3.12195
0.7495	4.93469
0.75	6.2439
0.7505	2.71912
0.751	10.17151
0.7515	6.84814
0.752	2.21558
0.7525	5.53894
0.753	3.02124
0.7535	3.52478
0.754	1.10779
0.7545	5.94177
0.755	11.98425
0.7555	3.62549
0.756	7.15027
0.7565	9.46655
0.757	9.36584
0.7575	11.38
0.758	9.86938
0.7585	10.37292
0.759	10.0708
0.7595	4.22974
0.76	4.63257
0.7605	8.35876
0.761	6.64673
0.7615	4.93469
0.762	4.73328
0.7625	1.00708
0.763	7.85522
0.7635	6.2439
0.764	7.04956
0.7645	4.33044
0.765	3.22266
0.7655	5.94177
0.766	6.74744
0.7665	4.63257
0.767	5.63965
0.7675	4.53186
0.768	4.83398
0.7685	3.52478
0.769	6.94885
0.7695	10.67505
0.77	7.85522
0.7705	8.56018
0.771	9.36584
0.7715	8.7616
0.772	8.8623
0.7725	8.15735
0.773	8.35876
0.7735	8.15735
0.774	11.98425
0.7745	11.78284
0.775	4.93469
0.7755	8.35876
0.776	6.74744
0.7765	3.22266
0.777	2.71912
0.7775	4.02832
0.778	5.0354
0.7785	9.56726
0.779	5.84106
0.7795	0.90637
0.78	7.45239
0.7805	3.32336
0.781	9.56726
0.7815	5.43823
0.782	5.94177
0.7825	7.75452
0.783	9.86938
0.7835	7.35168
0.784	8.7616
0.7845	11.2793
0.785	11.2793
0.7855	6.64673
0.786	3.8269
0.7865	5.33752
0.787	2.31628
0.7875	3.7262
0.788	1.61133
0.7885	3.52478
0.789	1.51062
0.7895	4.33044
0.79	-0.60425
0.7905	-0.40283
0.791	-1.10779
0.7915	0.60425
0.792	6.94885
0.7925	4.02832
0.793	1.51062
0.7935	6.14319
0.794	8.45947
0.7945	8.96301
0.795	3.92761
0.7955	0.90637
0.796	7.5531
0.7965	8.56018
0.797	4.53186
0.7975	8.15735
0.798	6.54602
0.7985	2.92053
0.799	1.40991
0.7995	2.01416
0.8	5.33752
0.8005	4.53186
0.801	4.53186
0.8015	3.42407
0.802	7.85522
0.8025	7.75452
0.803	6.74744
0.8035	8.8623
0.804	8.96301
0.8045	9.36584
0.805	8.7616
0.8055	8.15735
0.806	3.92761
0.8065	5.43823
0.807	1.10779
0.8075	3.8269
0.808	8.45947
0.8085	2.11487
0.809	5.43823
0.8095	9.26514
0.81	3.52478
0.8105	2.92053
0.811	5.13611
0.8115	6.3446
0.812	8.7616
0.8125	11.17859
0.813	11.88354
0.8135	4.93469
0.814	9.46655
0.8145	9.56726
0.815	7.25098
0.8155	7.95593
0.816	8.25806
0.8165	10.27222
0.817	8.96301
0.8175	7.65381
0.818	10.67505
0.8185	8.66089
0.819	7.65381
0.8195	6.44531
0.82	0.60425
0.8205	9.56726
0.821	1.61133
0.8215	4.73328
0.822	6.84814
0.8225	5.43823
0.823	2.61841
0.8235	8.05664
0.824	2.11487
0.8245	1.3092
0.825	6.14319
0.8255	6.74744
0.826	5.13611
0.8265	6.14319
0.827	1.40991
0.8275	9.16443
0.828	4.33044
0.8285	7.15027
0.829	6.04248
0.8295	6.54602
0.83	5.23682
0.8305	5.63965
0.831	6.44531
0.8315	8.7616
0.832	7.5531
0.8325	6.14319
0.833	4.53186
0.8335	4.53186
0.834	5.84106
0.8345	4.43115
0.835	5.84106
0.8355	6.64673
0.836	6.54602
0.8365	6.74744
0.837	8.05664
0.8375	12.38708
0.838	10.27222
0.8385	3.52478
0.839	6.2439
0.8395	4.43115
0.84	7.25098
0.8405	7.95593
0.841	6.94885
0.8415	10.87646
0.842	8.56018
0.8425	15.50903
0.843	8.96301
0.8435	4.53186
0.844	3.8269
0.8445	8.7616
0.845	12.28638
0.8455	11.07788
0.846	10.87646
0.8465	8.05664
0.847	5.84106
0.8475	14.60266
0.848	14.70337
0.8485	7.35168
0.849	5.63965
0.8495	9.86938
0.85	0.90637
0.8505	8.35876
0.851	6.64673
0.8515	4.02832
0.852	10.17151
0.8525	8.66089
0.853	4.33044
0.8535	4.53186
0.854	2.81982
0.8545	7.25098
0.855	7.5531
0.8555	-1.00708
0.856	9.76868
0.8565	7.04956
0.857	4.63257
0.8575	7.75452
0.858	3.42407
0.8585	2.81982
0.859	7.65381
0.8595	5.43823
0.86	8.8623
0.8605	0
0.861	2.81982
0.8615	10.37292
0.862	3.22266
0.8625	5.84106
0.863	5.74036
0.8635	9.76868
0.864	10.87646
0.8645	7.95593
0.865	7.04956
0.8655	3.52478
0.866	-1.00708
0.8665	-1.2085
0.867	4.53186
0.8675	4.43115
0.868	0.10071
0.8685	0.70496
0.869	3.22266
0.8695	-0.50354
0.87	-1.61133
0.8705	2.01416
0.871	7.15027
0.8715	8.96301
0.872	5.13611
0.8725	5.23682
0.873	8.66089
0.8735	4.22974
0.874	5.94177
0.8745	10.27222
0.875	9.56726
0.8755	11.98425
0.876	12.48779
0.8765	10.37292
0.877	6.94885
0.8775	8.25806
0.878	6.74744
0.8785	7.45239
0.879	7.04956
0.8795	7.35168
0.88	5.33752
0.8805	8.05664
0.881	6.2439
0.8815	8.56018
0.882	6.3446
0.8825	4.33044
0.883	6.94885
0.8835	7.65381
0.884	7.85522
0.8845	4.53186
0.885	7.75452
0.8855	9.46655
0.886	5.43823
0.8865	3.62549
0.887	7.15027
0.8875	6.44531
0.888	3.92761
0.8885	7.75452
0.889	6.44531
0.8895	5.13611
0.89	9.86938
0.8905	12.08496
0.891	8.96301
0.8915	7.5531
0.892	4.93469
0.8925	2.5177
0.893	4.73328
0.8935	3.32336
0.894	4.22974
0.8945	1.81274
0.895	2.5177
0.8955	6.3446
0.896	11.38
0.8965	3.8269
0.897	6.64673
0.8975	7.95593
0.898	7.45239
0.8985	2.92053
0.899	5.94177
0.8995	3.12195
0.9	9.36584
0.9005	7.75452
0.901	7.5531
0.9015	5.94177
0.902	4.43115
0.9025	6.74744
0.903	0.30212
0.9035	2.41699
0.904	6.3446
0.9045	6.3446
0.905	13.19275
0.9055	10.17151
0.906	6.54602
0.9065	7.5531
0.907	7.95593
0.9075	4.43115
0.908	4.53186
0.9085	8.45947
0.909	1.61133
0.9095	1.91345
0.91	4.12903
0.9105	3.52478
0.911	2.92053
0.9115	8.15735
0.912	9.76868
0.9125	7.45239
0.913	10.47363
0.9135	5.0354
0.914	3.32336
0.9145	2.21558
0.915	3.52478
0.9155	2.01416
0.916	9.86938
0.9165	4.73328
0.917	4.73328
0.9175	2.92053
0.918	3.92761
0.9185	-0.80566
0.919	5.74036
0.9195	8.96301
0.92	6.44531
0.9205	6.94885
0.921	4.12903
0.9215	3.8269
0.922	6.14319
0.9225	2.5177
0.923	5.33752
0.9235	8.35876
0.924	5.74036
0.9245	5.43823
0.925	9.26514
0.9255	10.27222
0.926	6.74744
0.9265	7.25098
0.927	4.22974
0.9275	9.66797
0.928	7.5531
0.9285	7.45239
0.929	2.11487
0.9295	6.84814
0.93	3.8269
0.9305	5.94177
0.931	5.43823
0.9315	0.70496
0.932	0.80566
0.9325	0
0.933	4.43115
0.9335	3.62549
0.934	3.12195
0.9345	0.60425
0.935	0.70496
0.9355	3.92761
0.936	10.57434
0.9365	5.63965
0.937	4.83398
0.9375	7.65381
0.938	4.12903
0.9385	8.7616
0.939	6.14319
0.9395	2.81982
0.94	7.25098
0.9405	6.44531
0.941	6.14319
0.9415	3.92761
0.942	5.63965
0.9425	3.7262
0.943	4.73328
0.9435	1.71204
0.944	1.10779
0.9445	9.46655
0.945	8.96301
0.9455	6.2439
0.946	2.31628
0.9465	4.53186
0.947	7.95593
0.9475	2.81982
0.948	-0.60425
0.9485	1.10779
0.949	-1.2085
0.9495	0.80566
0.95	3.12195
0.9505	2.41699
0.951	0.20142
0.9515	2.21558
0.952	5.13611
0.9525	4.83398
0.953	3.7262
0.9535	3.02124
0.954	5.23682
0.9545	3.22266
0.955	6.64673
0.9555	1.91345
0.956	4.43115
0.9565	0.90637
0.957	0.60425
0.9575	0.70496
0.958	5.53894
0.9585	0.60425
0.959	5.94177
0.9595	-2.92053
0.96	3.22266
0.9605	5.84106
0.961	2.81982
0.9615	3.52478
0.962	-1.2085
0.9625	-1.81274
0.963	10.77576
0.9635	1.3092
0.964	6.04248
0.9645	6.54602
0.965	11.98425
0.9655	10.87646
0.966	4.53186
0.9665	8.7616
0.967	3.12195
0.9675	4.33044
0.968	3.7262
0.9685	8.45947
0.969	6.64673
0.9695	7.15027
0.97	5.13611
0.9705	7.25098
0.971	8.35876
0.9715	7.25098
0.972	3.32336
0.9725	8.56018
0.973	7.65381
0.9735	5.94177
0.974	10.87646
0.9745	6.3446
0.975	9.97009
0.9755	5.74036
0.976	4.12903
0.9765	3.8269
0.977	4.43115
0.9775	7.04956
0.978	3.42407
0.9785	1.61133
0.979	1.40991
0.9795	1.61133
0.98	6.44531
0.9805	8.56018
0.981	7.04956
0.9815	7.15027
0.982	5.23682
0.9825	2.11487
0.983	4.22974
0.9835	7.45239
0.984	2.11487
0.9845	8.56018
0.985	7.04956
0.9855	3.52478
0.986	3.7262
0.9865	5.63965
0.987	9.06372
0.9875	6.44531
0.988	6.84814
0.9885	7.15027
0.989	3.42407
0.9895	4.93469
0.99	13.89771
0.9905	3.92761
0.991	0.40283
0.9915	8.05664
0.992	4.43115
0.9925	4.02832
0.993	1.51062
0.9935	2.31628
0.994	3.62549
0.9945	5.33752
0.995	-1.40991
0.9955	1.91345
0.996	6.84814
0.9965	3.92761
0.997	5.33752
0.9975	4.93469
0.998	2.41699
0.9985	5.33752
0.999	2.92053
0.9995	5.33752
1	5.13611
1.0005	1.40991
1.001	7.04956
1.0015	2.21558
1.002	4.33044
1.0025	6.64673
1.003	4.43115
1.0035	4.02832
1.004	8.96301
1.0045	6.04248
1.005	6.14319
1.0055	4.73328
1.006	0.80566
1.0065	4.73328
1.007	6.3446
1.0075	1.00708
1.008	-0.20142
1.0085	6.94885
1.009	1.61133
1.0095	2.92053
1.01	1.71204
1.0105	-2.71912
1.011	1.71204
1.0115	-0.80566
1.012	2.5177
1.0125	5.13611
1.013	5.33752
1.0135	3.7262
1.014	2.92053
1.0145	3.32336
1.015	0.90637
1.0155	-0.50354
1.016	4.53186
1.0165	5.33752
1.017	4.02832
1.0175	7.65381
1.018	8.96301
1.0185	5.33752
1.019	5.33752
1.0195	3.8269
1.02	4.53186
1.0205	5.84106
1.021	7.5531
1.0215	9.46655
1.022	7.65381
1.0225	5.94177
1.023	6.14319
1.0235	9.16443
1.024	9.97009
1.0245	11.38
1.025	8.96301
1.0255	0.70496
1.026	4.93469
1.0265	4.93469
1.027	3.22266
1.0275	5.13611
1.028	5.23682
1.0285	4.12903
1.029	4.43115
1.0295	7.75452
1.03	7.5531
1.0305	0.50354
1.031	2.81982
1.0315	3.92761
1.032	1.91345
1.0325	1.51062
1.033	1.2085
1.0335	6.04248
1.034	0
1.0345	1.71204
1.035	2.5177
1.0355	2.11487
1.036	6.64673
1.0365	4.83398
1.037	10.17151
1.0375	5.74036
1.038	-0.10071
1.0385	0.20142
1.039	6.94885
1.0395	4.43115
1.04	7.35168
1.0405	0.30212
1.041	4.02832
1.0415	2.81982
1.042	2.5177
1.0425	3.52478
1.043	5.23682
1.0435	8.7616
1.044	4.22974
1.0445	2.61841
1.045	4.43115
1.0455	2.41699
1.046	1.71204
1.0465	6.3446
1.047	5.74036
1.0475	8.66089
1.048	3.8269
1.0485	3.32336
1.049	5.43823
1.0495	11.2793
1.05	3.52478
1.0505	3.8269
1.051	5.84106
1.0515	4.33044
1.052	3.52478
1.0525	5.63965
1.053	2.11487
1.0535	-0.50354
1.054	0.80566
1.0545	2.01416
1.055	8.05664
1.0555	2.71912
1.056	10.77576
1.0565	3.32336
1.057	8.35876
1.0575	7.65381
1.058	6.64673
1.0585	2.71912
1.059	6.74744
1.0595	5.13611
1.06	8.96301
1.0605	0.80566
1.061	4.63257
1.0615	9.26514
1.062	10.17151
1.0625	2.01416
1.063	0.50354
1.0635	0
1.064	3.52478
1.0645	5.84106
1.065	3.02124
1.0655	6.44531
1.066	6.2439
1.0665	8.8623
1.067	8.7616
1.0675	6.54602
1.068	10.47363
1.0685	12.78992
1.069	8.05664
1.0695	7.65381
1.07	6.2439
1.0705	4.02832
1.071	6.54602
1.0715	7.65381
1.072	10.27222
1.0725	11.78284
1.073	7.75452
1.0735	7.04956
1.074	10.47363
1.0745	10.87646
1.075	10.0708
1.0755	6.84814
1.076	11.2793
1.0765	12.48779
1.077	9.66797
1.0775	5.33752
1.078	3.92761
1.0785	9.56726
1.079	6.44531
1.0795	4.12903
1.08	8.15735
1.0805	4.02832
1.081	5.13611
1.0815	4.22974
1.082	4.22974
1.0825	1.61133
1.083	1.40991
1.0835	2.11487
1.084	2.41699
1.0845	0.40283
1.085	2.11487
1.0855	2.61841
1.086	2.71912
1.0865	0.10071
1.087	7.95593
1.0875	4.02832
1.088	11.48071
1.0885	10.97717
1.089	5.63965
1.0895	2.5177
1.09	2.41699
1.0905	2.41699
1.091	5.53894
1.0915	8.8623
1.092	8.05664
1.0925	7.35168
1.093	12.99133
1.0935	11.07788
1.094	11.58142
1.0945	8.56018
1.095	5.43823
1.0955	7.65381
1.096	8.05664
1.0965	2.01416
1.097	1.61133
1.0975	0.80566
1.098	2.41699
1.0985	9.97009
1.099	5.84106
1.0995	5.53894
1.1	4.63257
1.1005	3.62549
1.101	6.04248
1.1015	5.53894
1.102	2.31628
1.1025	2.92053
1.103	-0.10071
1.1035	-1.2085
1.104	-3.22266
1.1045	0.40283
1.105	1.2085
1.1055	4.02832
1.106	9.36584
1.1065	6.3446
1.107	7.95593
1.1075	4.53186
1.108	10.17151
1.1085	4.22974
1.109	6.2439
1.1095	5.33752
1.11	9.66797
1.1105	8.25806
1.111	5.53894
1.1115	3.92761
1.112	6.84814
1.1125	1.51062
1.113	2.21558
1.1135	0.20142
1.114	6.44531
1.1145	5.94177
1.115	8.35876
1.1155	9.06372
1.116	4.02832
1.1165	3.92761
1.117	-2.01416
1.1175	3.52478
1.118	3.02124
1.1185	4.02832
1.119	2.31628
1.1195	2.61841
1.12	7.25098
1.1205	4.83398
1.121	6.3446
1.1215	8.56018
1.122	3.92761
1.1225	3.42407
1.123	10.0708
1.1235	10.77576
1.124	7.5531
1.1245	8.35876
1.125	4.02832
1.1255	8.15735
1.126	-0.50354
1.1265	4.02832
1.127	6.44531
1.1275	8.56018
1.128	8.56018
1.1285	4.12903
1.129	9.06372
1.1295	3.32336
1.13	3.92761
1.1305	1.91345
1.131	-0.50354
1.1315	5.23682
1.132	5.23682
1.1325	8.7616
1.133	5.53894
1.1335	5.23682
1.134	11.88354
1.1345	10.27222
1.135	3.62549
1.1355	1.51062
1.136	9.97009
1.1365	9.26514
1.137	6.3446
1.1375	5.84106
1.138	5.94177
1.1385	8.56018
1.139	3.52478
1.1395	1.10779
1.14	0.30212
1.1405	2.11487
1.141	6.2439
1.1415	7.75452
1.142	6.54602
1.1425	6.94885
1.143	5.33752
1.1435	6.2439
1.144	4.73328
1.1445	2.5177
1.145	5.13611
1.1455	9.66797
1.146	7.25098
1.1465	6.2439
1.147	4.43115
1.1475	7.5531
1.148	6.84814
1.1485	2.41699
1.149	10.17151
1.1495	6.94885
1.15	7.95593
1.1505	5.13611
1.151	8.66089
1.1515	9.36584
1.152	5.74036
1.1525	1.81274
1.153	3.92761
1.1535	3.12195
1.154	1.10779
1.1545	2.81982
1.155	-0.40283
1.1555	4.53186
1.156	8.7616
1.1565	2.92053
1.157	3.02124
1.1575	-1.81274
1.158	-1.00708
1.1585	5.33752
1.159	1.81274
1.1595	1.10779
1.16	2.5177
1.1605	5.84106
1.161	0.90637
1.1615	0.90637
1.162	4.22974
1.1625	4.02832
1.163	5.0354
1.1635	2.21558
1.164	7.15027
1.1645	3.62549
1.165	1.61133
1.1655	6.94885
1.166	7.15027
1.1665	1.10779
1.167	5.94177
1.1675	6.94885
1.168	9.46655
1.1685	9.97009
1.169	5.94177
1.1695	1.51062
1.17	6.2439
1.1705	8.96301
1.171	2.61841
1.1715	3.92761
1.172	8.05664
1.1725	7.95593
1.173	3.02124
1.1735	4.63257
1.174	8.35876
1.1745	4.73328
1.175	3.02124
1.1755	-0.50354
1.176	9.86938
1.1765	6.94885
1.177	8.8623
1.1775	7.35168
1.178	9.36584
1.1785	5.23682
1.179	9.16443
1.1795	4.02832
1.18	2.31628
1.1805	2.21558
1.181	6.2439
1.1815	4.73328
1.182	6.2439
1.1825	7.5531
1.183	6.44531
1.1835	3.12195
1.184	3.62549
1.1845	8.35876
1.185	11.17859
1.1855	13.09204
1.186	9.06372
1.1865	12.89062
1.187	16.61682
1.1875	6.3446
1.188	10.87646
1.1885	8.66089
1.189	8.05664
1.1895	8.7616
1.19	12.68921
1.1905	12.48779
1.191	8.66089
1.1915	6.14319
1.192	5.43823
1.1925	5.63965
1.193	9.16443
1.1935	7.75452
1.194	7.45239
1.1945	10.97717
1.195	12.48779
1.1955	0.90637
1.196	-1.00708
1.1965	6.04248
1.197	6.2439
1.1975	5.0354
1.198	3.7262
1.1985	3.8269
1.199	6.54602
1.1995	7.65381
1.2	1.40991
1.2005	6.04248
1.201	2.41699
1.2015	-0.30212
1.202	4.53186
1.2025	6.64673
1.203	8.15735
1.2035	8.35876
1.204	4.02832
1.2045	5.33752
1.205	4.12903
1.2055	-0.10071
1.206	5.13611
1.2065	5.63965
1.207	5.23682
1.2075	6.64673
1.208	0.40283
1.2085	2.01416
1.209	2.31628
1.2095	0.30212
1.21	3.02124
1.2105	-2.5177
1.211	4.43115
1.2115	6.84814
1.212	3.7262
1.2125	3.42407
1.213	-1.3092
1.2135	5.13611
1.214	3.12195
1.2145	-0.70496
1.215	1.81274
1.2155	5.43823
1.216	7.45239
1.2165	3.7262
1.217	3.42407
1.2175	5.84106
1.218	5.43823
1.2185	3.62549
1.219	7.65381
1.2195	5.74036
1.22	6.2439
1.2205	7.25098
1.221	4.53186
1.2215	6.2439
1.222	7.15027
1.2225	4.12903
1.223	7.65381
1.2235	11.48071
1.224	11.38
1.2245	7.45239
1.225	7.04956
1.2255	6.04248
1.226	3.7262
1.2265	0
1.227	3.52478
1.2275	1.40991
1.228	-1.2085
1.2285	2.92053
1.229	6.14319
1.2295	3.52478
1.23	5.63965
1.2305	3.8269
1.231	5.84106
1.2315	7.95593
1.232	3.22266
1.2325	2.21558
1.233	1.71204
1.2335	0.70496
1.234	0.10071
1.2345	5.33752
1.235	3.42407
1.2355	0.80566
1.236	7.75452
1.2365	1.81274
1.237	-1.91345
1.2375	1.10779
1.238	-2.11487
1.2385	2.71912
1.239	-3.02124
1.2395	-2.21558
1.24	3.8269
1.2405	1.71204
1.241	-0.50354
1.2415	0.90637
1.242	1.51062
1.2425	-0.50354
1.243	8.66089
1.2435	8.05664
1.244	2.81982
1.2445	4.83398
1.245	-0.10071
1.2455	0.80566
1.246	-0.50354
1.2465	-2.41699
1.247	0
1.2475	-2.31628
1.248	-2.11487
1.2485	1.51062
1.249	-1.00708
1.2495	1.71204
1.25	3.62549
1.2505	3.92761
1.251	2.92053
1.2515	-2.61841
1.252	9.56726
1.2525	7.04956
1.253	8.56018
1.2535	9.46655
1.254	8.7616
1.2545	6.3446
1.255	5.84106
1.2555	9.06372
1.256	6.74744
1.2565	10.67505
1.257	6.14319
1.2575	8.45947
1.258	1.51062
1.2585	0.40283
1.259	2.81982
1.2595	6.74744
1.26	6.2439
1.2605	8.35876
1.261	9.76868
1.2615	11.07788
1.262	8.96301
1.2625	9.36584
1.263	4.12903
1.2635	7.65381
1.264	10.67505
1.2645	12.99133
1.265	7.45239
1.2655	7.45239
1.266	10.37292
1.2665	11.88354
1.267	12.28638
1.2675	11.78284
1.268	11.78284
1.2685	6.3446
1.269	7.95593
1.2695	5.33752
1.27	6.44531
1.2705	7.95593
1.271	10.97717
1.2715	15.00549
1.272	10.97717
1.2725	5.63965
1.273	11.17859
1.2735	9.06372
1.274	12.89062
1.2745	12.68921
1.275	10.47363
1.2755	8.15735
1.276	10.37292
1.2765	9.76868
1.277	6.64673
1.2775	8.8623
1.278	7.45239
1.2785	12.68921
1.279	9.16443
1.2795	13.49487
1.28	10.37292
1.2805	13.89771
1.281	9.56726
1.2815	6.74744
1.282	5.74036
1.2825	2.5177
1.283	7.25098
1.2835	3.22266
1.284	5.53894
1.2845	0.50354
1.285	2.01416
1.2855	7.95593
1.286	9.76868
1.2865	10.57434
1.287	9.56726
1.2875	6.74744
1.288	4.63257
1.2885	11.88354
1.289	12.18567
1.2895	9.16443
1.29	7.5531
1.2905	4.93469
1.291	3.8269
1.2915	9.36584
1.292	4.83398
1.2925	12.18567
1.293	14.70337
1.2935	4.83398
1.294	8.96301
1.2945	3.02124
1.295	2.92053
1.2955	1.3092
1.296	7.45239
1.2965	1.61133
1.297	-3.7262
1.2975	2.81982
1.298	0.50354
1.2985	1.2085
1.299	11.2793
1.2995	11.88354
1.3	9.26514
1.3005	5.63965
1.301	12.48779
1.3015	5.74036
1.302	6.2439
1.3025	1.91345
1.303	-1.00708
1.3035	5.23682
1.304	7.45239
1.3045	0.50354
1.305	3.7262
1.3055	7.95593
1.306	11.68213
1.3065	5.63965
1.307	2.11487
1.3075	4.93469
1.308	6.74744
1.3085	6.94885
1.309	4.33044
1.3095	11.88354
1.31	7.5531
1.3105	5.23682
1.311	4.63257
1.3115	3.92761
1.312	6.74744
1.3125	9.97009
1.313	6.84814
1.3135	3.52478
1.314	-0.60425
1.3145	-0.90637
1.315	-0.60425
1.3155	4.93469
1.316	3.32336
1.3165	5.43823
1.317	4.12903
1.3175	4.12903
1.318	1.51062
1.3185	7.85522
1.319	6.74744
1.3195	3.62549
1.32	0.70496
1.3205	3.52478
1.321	8.8623
1.3215	11.48071
1.322	6.74744
1.3225	6.94885
1.323	10.27222
1.3235	5.43823
1.324	7.04956
1.3245	5.13611
1.325	10.27222
1.3255	7.45239
1.326	9.46655
1.3265	5.84106
1.327	9.36584
1.3275	8.45947
1.328	7.25098
1.3285	6.14319
1.329	3.12195
1.3295	9.86938
1.33	4.63257
1.3305	2.31628
1.331	4.22974
1.3315	5.0354
1.332	7.25098
1.3325	7.04956
1.333	0.10071
1.3335	3.12195
1.334	3.52478
1.3345	5.33752
1.335	4.73328
1.3355	3.22266
1.336	7.04956
1.3365	8.15735
1.337	13.49487
1.3375	6.2439
1.338	7.45239
1.3385	10.97717
1.339	3.32336
1.3395	7.35168
1.34	13.39417
1.3405	4.43115
1.341	4.63257
1.3415	3.7262
1.342	9.46655
1.3425	8.05664
1.343	11.58142
1.3435	10.87646
1.344	7.5531
1.3445	3.62549
1.345	6.54602
1.3455	7.5531
1.346	10.87646
1.3465	7.65381
1.347	7.65381
1.3475	10.57434
1.348	11.07788
1.3485	8.7616
1.349	7.04956
1.3495	1.2085
1.35	4.22974
1.3505	-3.8269
1.351	-2.81982
1.3515	1.51062
1.352	3.22266
1.3525	2.11487
1.353	7.15027
1.3535	5.0354
1.354	8.35876
1.3545	3.42407
1.355	10.37292
1.3555	8.45947
1.356	9.36584
1.3565	1.71204
1.357	3.22266
1.3575	7.85522
1.358	5.84106
1.3585	0.70496
1.359	1.2085
1.3595	-1.61133
1.36	1.2085
1.3605	4.33044
1.361	4.83398
1.3615	4.43115
1.362	4.22974
1.3625	6.04248
1.363	-0.30212
1.3635	2.71912
1.364	4.83398
1.3645	2.41699
1.365	1.3092
1.3655	5.53894
1.366	4.33044
1.3665	7.35168
1.367	6.54602
1.3675	4.33044
1.368	5.53894
1.3685	4.73328
1.369	-1.71204
1.3695	4.63257
1.37	7.35168
1.3705	5.84106
1.371	3.8269
1.3715	11.17859
1.372	7.15027
1.3725	9.16443
1.373	8.35876
1.3735	6.3446
1.374	3.52478
1.3745	7.25098
1.375	7.5531
1.3755	3.42407
1.376	1.3092
1.3765	5.84106
1.377	9.56726
1.3775	4.63257
1.378	4.33044
1.3785	4.93469
1.379	8.15735
1.3795	3.22266
1.38	6.44531
1.3805	2.5177
1.381	2.71912
1.3815	3.52478
1.382	0.40283
1.3825	3.02124
1.383	5.84106
1.3835	10.27222
1.384	8.15735
1.3845	9.16443
1.385	4.12903
1.3855	11.17859
1.386	6.04248
1.3865	7.85522
1.387	4.22974
1.3875	3.52478
1.388	3.32336
1.3885	1.91345
1.389	6.44531
1.3895	10.87646
1.39	3.12195
1.3905	9.26514
1.391	7.5531
1.3915	8.7616
1.392	8.05664
1.3925	6.94885
1.393	10.97717
1.3935	10.87646
1.394	4.02832
1.3945	12.68921
1.395	5.0354
1.3955	9.16443
1.396	3.12195
1.3965	8.25806
1.397	8.7616
1.3975	6.64673
1.398	3.32336
1.3985	4.83398
1.399	5.13611
1.3995	6.64673
1.4	-0.60425
1.4005	-1.51062
1.401	3.92761
1.4015	3.7262
1.402	5.43823
1.4025	7.15027
1.403	6.64673
1.4035	12.48779
1.404	8.8623
1.4045	12.08496
1.405	6.84814
1.4055	7.5531
1.406	5.63965
1.4065	4.63257
1.407	4.63257
1.4075	7.15027
1.408	7.65381
1.4085	6.94885
1.409	2.61841
1.4095	0.30212
1.41	2.01416
1.4105	-0.80566
1.411	-3.92761
1.4115	-6.04248
1.412	-1.2085
1.4125	-4.83398
1.413	-0.60425
1.4135	2.5177
1.414	2.5177
1.4145	7.15027
1.415	-2.11487
1.4155	-3.32336
1.416	1.3092
1.4165	-1.00708
1.417	1.40991
1.4175	2.5177
1.418	3.42407
1.4185	0.10071
1.419	-2.71912
1.4195	-2.41699
1.42	0.40283
1.4205	5.84106
1.421	8.25806
1.4215	2.01416
1.422	5.63965
1.4225	5.53894
1.423	8.56018
1.4235	6.2439
1.424	6.14319
1.4245	9.76868
1.425	5.84106
1.4255	4.02832
1.426	5.74036
1.4265	5.23682
1.427	5.74036
1.4275	10.47363
1.428	4.22974
1.4285	8.7616
1.429	9.56726
1.4295	2.21558
1.43	3.12195
1.4305	7.25098
1.431	6.54602
1.4315	8.35876
1.432	4.73328
1.4325	2.31628
1.433	3.12195
1.4335	3.02124
1.434	9.06372
1.4345	8.35876
1.435	4.93469
1.4355	3.92761
1.436	6.04248
1.4365	5.23682
1.437	0
1.4375	0
1.438	5.43823
1.4385	2.01416
1.439	5.63965
1.4395	7.85522
1.44	6.94885
1.4405	7.15027
1.441	3.22266
1.4415	5.0354
1.442	4.33044
1.4425	9.76868
1.443	9.26514
1.4435	11.07788
1.444	5.74036
1.4445	6.94885
1.445	3.42407
1.4455	2.21558
1.446	6.94885
1.4465	5.74036
1.447	7.65381
1.4475	5.84106
1.448	2.61841
1.4485	1.81274
1.449	2.81982
1.4495	5.84106
1.45	6.3446
1.4505	4.33044
1.451	9.26514
1.4515	5.94177
1.452	4.22974
1.4525	7.35168
1.453	11.58142
1.4535	12.18567
1.454	7.35168
1.4545	11.2793
1.455	6.44531
1.4555	3.02124
1.456	6.3446
1.4565	8.8623
1.457	3.92761
1.4575	6.3446
1.458	7.15027
1.4585	10.17151
1.459	9.06372
1.4595	5.43823
1.46	4.43115
1.4605	0.90637
1.461	1.81274
1.4615	2.21558
1.462	4.12903
1.4625	5.74036
1.463	4.93469
1.4635	4.43115
1.464	2.5177
1.4645	2.41699
1.465	6.3446
1.4655	5.53894
1.466	3.52478
1.4665	3.7262
1.467	0.70496
1.4675	1.81274
1.468	5.84106
1.4685	5.63965
1.469	6.74744
1.4695	2.81982
1.47	4.63257
1.4705	-0.10071
1.471	-1.00708
1.4715	1.61133
1.472	1.40991
1.4725	3.7262
1.473	7.5531
1.4735	-1.91345
1.474	8.96301
1.4745	8.66089
1.475	4.02832
1.4755	10.47363
1.476	6.14319
1.4765	1.91345
1.477	7.15027
1.4775	4.43115
1.478	7.04956
1.4785	7.15027
1.479	9.97009
1.4795	2.61841
1.48	0.60425
1.4805	3.02124
1.481	0.80566
1.4815	1.61133
1.482	4.83398
1.4825	2.31628
1.483	0.20142
1.4835	1.40991
1.484	1.71204
1.4845	3.12195
1.485	2.41699
1.4855	3.12195
1.486	3.32336
1.4865	5.33752
1.487	4.12903
1.4875	3.02124
1.488	8.35876
1.4885	5.84106
1.489	0.10071
1.4895	5.43823
1.49	2.61841
1.4905	4.63257
1.491	7.65381
1.4915	3.7262
1.492	3.12195
1.4925	5.63965
1.493	6.04248
1.4935	9.06372
1.494	5.53894
1.4945	5.63965
1.495	5.74036
1.4955	7.35168
1.496	5.43823
1.4965	3.22266
1.497	2.81982
1.4975	0.50354
1.498	2.61841
1.4985	8.96301
1.499	3.7262
1.4995	8.66089
1.5	9.76868
1.5005	3.62549
1.501	7.85522
1.5015	6.84814
1.502	11.48071
1.5025	8.35876
1.503	7.04956
1.5035	7.04956
1.504	12.68921
1.5045	12.99133
1.505	12.18567
1.5055	6.84814
1.506	8.7616
1.5065	7.25098
1.507	5.43823
1.5075	4.93469
1.508	6.14319
1.5085	8.56018
1.509	9.06372
1.5095	8.45947
1.51	6.54602
1.5105	2.81982
1.511	-0.30212
1.5115	-1.00708
1.512	1.40991
1.5125	-1.10779
1.513	0.40283
1.5135	-0.70496
1.514	-0.90637
1.5145	-1.51062
1.515	4.53186
1.5155	1.2085
1.516	4.33044
1.5165	4.22974
1.517	7.85522
1.5175	6.74744
1.518	5.23682
1.5185	9.97009
1.519	10.0708
1.5195	9.26514
1.52	6.2439
1.5205	9.76868
1.521	8.15735
1.5215	8.56018
1.522	7.35168
1.5225	6.44531
1.523	2.11487
1.5235	0.70496
1.524	1.71204
1.5245	5.63965
1.525	8.45947
1.5255	8.35876
1.526	11.48071
1.5265	8.7616
1.527	9.56726
1.5275	9.66797
1.528	8.56018
1.5285	6.84814
1.529	5.94177
1.5295	8.66089
1.53	6.84814
1.5305	7.5531
1.531	8.66089
1.5315	6.04248
1.532	4.33044
1.5325	3.92761
1.533	5.43823
1.5335	7.5531
1.534	8.96301
1.5345	1.91345
1.535	7.65381
1.5355	7.25098
1.536	9.06372
1.5365	6.2439
1.537	2.61841
1.5375	8.45947
1.538	4.73328
1.5385	4.43115
1.539	7.65381
1.5395	7.15027
1.54	7.25098
1.5405	1.10779
1.541	4.33044
1.5415	5.0354
1.542	6.14319
1.5425	6.84814
1.543	10.17151
1.5435	7.35168
1.544	8.96301
1.5445	5.33752
1.545	4.83398
1.5455	8.35876
1.546	4.93469
1.5465	5.23682
1.547	-1.91345
1.5475	2.71912
1.548	-0.60425
1.5485	3.02124
1.549	2.01416
1.5495	3.52478
1.55	8.45947
1.5505	5.43823
1.551	10.67505
1.5515	2.92053
1.552	5.43823
1.5525	9.26514
1.553	7.65381
1.5535	5.0354
1.554	3.42407
1.5545	4.12903
1.555	4.63257
1.5555	2.61841
1.556	2.71912
1.5565	9.16443
1.557	6.54602
1.5575	7.95593
1.558	4.02832
1.5585	6.64673
1.559	3.52478
1.5595	4.93469
1.56	5.63965
1.5605	6.84814
1.561	5.74036
1.5615	7.15027
1.562	9.26514
1.5625	9.97009
1.563	8.56018
1.5635	5.0354
1.564	5.0354
1.5645	5.23682
1.565	6.44531
1.5655	8.25806
1.566	5.94177
1.5665	5.74036
1.567	2.21558
1.5675	4.63257
1.568	4.43115
1.5685	11.58142
1.569	6.44531
1.5695	8.66089
1.57	3.92761
1.5705	2.81982
1.571	6.54602
1.5715	5.33752
1.572	3.12195
1.5725	7.15027
1.573	9.76868
1.5735	6.14319
1.574	9.16443
1.5745	8.8623
1.575	5.13611
1.5755	4.43115
1.576	3.52478
1.5765	5.74036
1.577	7.85522
1.5775	-2.92053
1.578	5.94177
1.5785	7.65381
1.579	2.01416
1.5795	5.43823
1.58	4.93469
1.5805	2.61841
1.581	3.92761
1.5815	0.70496
1.582	1.61133
1.5825	2.01416
1.583	4.83398
1.5835	6.84814
1.584	3.8269
1.5845	3.52478
1.585	-0.60425
1.5855	0.60425
1.586	4.12903
1.5865	5.74036
1.587	2.31628
1.5875	9.97009
1.588	7.95593
1.5885	4.73328
1.589	8.7616
1.5895	4.02832
1.59	2.5177
1.5905	4.63257
1.591	5.13611
1.5915	3.7262
1.592	3.32336
1.5925	11.17859
1.593	9.16443
1.5935	7.04956
1.594	6.3446
1.5945	7.25098
1.595	3.42407
1.5955	10.87646
1.596	9.16443
1.5965	6.44531
1.597	8.7616
1.5975	9.56726
1.598	12.68921
1.5985	9.06372
1.599	4.83398
1.5995	6.94885
1.6	10.97717
1.6005	8.15735
1.601	3.42407
1.6015	9.06372
1.602	7.5531
1.6025	8.96301
1.603	8.35876
1.6035	8.66089
1.604	8.45947
1.6045	6.64673
1.605	6.64673
1.6055	5.63965
1.606	4.53186
1.6065	4.93469
1.607	2.41699
1.6075	6.2439
1.608	6.64673
1.6085	2.81982
1.609	8.35876
1.6095	2.21558
1.61	1.61133
1.6105	-1.71204
1.611	6.44531
1.6115	7.04956
1.612	12.08496
1.6125	10.87646
1.613	4.93469
1.6135	1.00708
1.614	1.91345
1.6145	3.52478
1.615	3.7262
1.6155	6.2439
1.616	11.58142
1.6165	7.04956
1.617	7.04956
1.6175	5.94177
1.618	4.83398
1.6185	4.73328
1.619	2.61841
1.6195	5.0354
1.62	10.27222
1.6205	8.25806
1.621	-1.3092
1.6215	9.56726
1.622	8.05664
1.6225	3.92761
1.623	4.02832
1.6235	6.3446
1.624	11.58142
1.6245	8.05664
1.625	6.44531
1.6255	7.25098
1.626	3.42407
1.6265	3.62549
1.627	4.63257
1.6275	4.12903
1.628	6.64673
1.6285	7.85522
1.629	4.93469
1.6295	9.36584
1.63	13.59558
1.6305	7.35168
1.631	9.06372
1.6315	6.84814
1.632	10.87646
1.6325	7.65381
1.633	5.33752
1.6335	6.2439
1.634	11.07788
1.6345	5.84106
1.635	5.94177
1.6355	2.92053
1.636	1.2085
1.6365	4.73328
1.637	8.56018
1.6375	4.63257
1.638	9.46655
1.6385	9.86938
1.639	4.33044
1.6395	5.63965
1.64	5.33752
1.6405	3.02124
1.641	9.06372
1.6415	8.05664
1.642	0.60425
1.6425	-1.3092
1.643	6.84814
1.6435	7.15027
1.644	1.81274
1.6445	5.23682
1.645	1.71204
1.6455	-0.30212
1.646	3.32336
1.6465	7.35168
1.647	6.64673
1.6475	8.25806
1.648	7.25098
1.6485	3.32336
1.649	4.33044
1.6495	4.12903
1.65	2.81982
1.6505	2.31628
1.651	2.21558
1.6515	9.36584
1.652	8.35876
1.6525	2.11487
1.653	3.12195
1.6535	5.84106
1.654	2.5177
1.6545	10.67505
1.655	4.43115
1.6555	1.91345
1.656	2.81982
1.6565	-0.90637
1.657	4.22974
1.6575	9.16443
1.658	3.22266
1.6585	-2.01416
1.659	4.83398
1.6595	4.83398
1.66	7.75452
1.6605	10.87646
1.661	3.8269
1.6615	2.61841
1.662	2.01416
1.6625	-0.50354
1.663	-0.50354
1.6635	-1.00708
1.664	-0.40283
1.6645	1.00708
1.665	8.96301
1.6655	2.11487
1.666	1.00708
1.6665	4.22974
1.667	8.96301
1.6675	1.2085
1.668	4.93469
1.6685	9.46655
1.669	8.25806
1.6695	4.22974
1.67	9.36584
1.6705	4.53186
1.671	6.2439
1.6715	2.71912
1.672	3.42407
1.6725	1.71204
1.673	4.22974
1.6735	2.61841
1.674	9.26514
1.6745	4.02832
1.675	8.15735
1.6755	1.2085
1.676	1.2085
1.6765	1.51062
1.677	1.2085
1.6775	3.92761
1.678	3.62549
1.6785	9.76868
1.679	1.91345
1.6795	10.37292
1.68	4.33044
1.6805	5.74036
1.681	7.35168
1.6815	8.05664
1.682	6.2439
1.6825	3.42407
1.683	5.23682
1.6835	11.17859
1.684	6.54602
1.6845	6.04248
1.685	4.83398
1.6855	4.63257
1.686	2.31628
1.6865	6.54602
1.687	4.83398
1.6875	2.92053
1.688	4.73328
1.6885	2.01416
1.689	2.11487
1.6895	1.00708
1.69	2.41699
1.6905	7.04956
1.691	7.85522
1.6915	4.63257
1.692	3.52478
1.6925	3.32336
1.693	1.2085
1.6935	6.44531
1.694	4.73328
1.6945	2.31628
1.695	0.90637
1.6955	4.53186
1.696	3.12195
1.6965	3.02124
1.697	6.3446
1.6975	6.04248
1.698	6.64673
1.6985	10.0708
1.699	4.93469
1.6995	5.84106
1.7	2.5177
1.7005	8.35876
1.701	8.35876
1.7015	6.14319
1.702	4.22974
1.7025	7.65381
1.703	2.71912
1.7035	1.61133
1.704	-0.20142
1.7045	0.10071
1.705	3.8269
1.7055	11.17859
1.706	8.45947
1.7065	4.83398
1.707	1.2085
1.7075	2.41699
1.708	4.02832
1.7085	3.7262
1.709	12.38708
1.7095	6.84814
1.71	2.41699
1.7105	6.94885
1.711	10.77576
1.7115	7.45239
1.712	1.40991
1.7125	6.3446
1.713	10.57434
1.7135	9.36584
1.714	2.11487
1.7145	7.5531
1.715	3.42407
1.7155	3.7262
1.716	7.65381
1.7165	7.85522
1.717	2.41699
1.7175	6.14319
1.718	8.96301
1.7185	7.15027
1.719	3.22266
1.7195	3.62549
1.72	5.53894
1.7205	2.81982
1.721	1.3092
1.7215	8.35876
1.722	10.17151
1.7225	9.16443
1.723	8.35876
1.7235	5.63965
1.724	6.84814
1.7245	1.61133
1.725	5.74036
1.7255	6.14319
1.726	2.31628
1.7265	-1.3092
1.727	3.32336
1.7275	3.22266
1.728	7.65381
1.7285	7.75452
1.729	4.73328
1.7295	6.74744
1.73	6.94885
1.7305	4.73328
1.731	6.3446
1.7315	9.97009
1.732	11.78284
1.7325	9.66797
1.733	2.11487
1.7335	3.02124
1.734	5.74036
1.7345	7.15027
1.735	9.16443
1.7355	10.37292
1.736	-0.10071
1.7365	-0.50354
1.737	3.7262
1.7375	5.84106
1.738	2.81982
1.7385	8.96301
1.739	0.70496
1.7395	8.05664
1.74	-0.80566
1.7405	0.80566
1.741	2.21558
1.7415	3.12195
1.742	5.53894
1.7425	3.42407
1.743	5.13611
1.7435	4.93469
1.744	8.05664
1.7445	5.43823
1.745	6.84814
1.7455	8.96301
1.746	8.7616
1.7465	6.94885
1.747	6.14319
1.7475	6.3446
1.748	8.05664
1.7485	12.68921
1.749	8.15735
1.7495	2.92053
1.75	10.97717
1.7505	2.5177
1.751	7.15027
1.7515	11.38
1.752	9.97009
1.7525	11.07788
1.753	6.3446
1.7535	9.66797
1.754	12.68921
1.7545	6.74744
1.755	6.3446
1.7555	4.12903
1.756	8.45947
1.7565	9.86938
1.757	9.16443
1.7575	5.94177
1.758	4.53186
1.7585	1.71204
1.759	-1.10779
1.7595	2.81982
1.76	2.5177
1.7605	0
1.761	-1.40991
1.7615	3.92761
1.762	0.10071
1.7625	0.70496
1.763	5.43823
1.7635	4.22974
1.764	9.16443
1.7645	4.93469
1.765	4.83398
1.7655	8.45947
1.766	2.5177
1.7665	0.60425
1.767	-1.81274
1.7675	3.22266
1.768	-1.10779
1.7685	3.22266
1.769	0.30212
1.7695	2.81982
1.77	2.71912
1.7705	-1.91345
1.771	5.23682
1.7715	5.74036
1.772	7.15027
1.7725	3.12195
1.773	7.5531
1.7735	7.04956
1.774	6.74744
1.7745	8.05664
1.775	5.33752
1.7755	3.62549
1.776	4.93469
1.7765	6.54602
1.777	8.25806
1.7775	6.44531
1.778	8.45947
1.7785	7.45239
1.779	9.16443
1.7795	11.07788
1.78	6.2439
1.7805	7.75452
1.781	7.5531
1.7815	4.63257
1.782	5.43823
1.7825	6.14319
1.783	5.33752
1.7835	8.96301
1.784	7.04956
1.7845	5.63965
1.785	5.23682
1.7855	4.63257
1.786	5.23682
1.7865	11.07788
1.787	6.74744
1.7875	7.15027
1.788	7.45239
1.7885	4.33044
1.789	4.93469
1.7895	2.11487
1.79	4.83398
1.7905	5.13611
1.791	0.10071
1.7915	5.13611
1.792	4.63257
1.7925	4.53186
1.793	7.65381
1.7935	2.71912
1.794	7.95593
1.7945	2.11487
1.795	6.94885
1.7955	8.7616
1.796	4.33044
1.7965	2.81982
1.797	6.3446
1.7975	5.33752
1.798	5.84106
1.7985	2.5177
1.799	0.40283
1.7995	4.83398
1.8	3.22266
1.8005	8.66089
1.801	3.22266
1.8015	8.05664
1.802	4.73328
1.8025	3.8269
1.803	4.22974
1.8035	7.5531
1.804	4.33044
1.8045	8.7616
1.805	6.64673
1.8055	5.74036
1.806	4.33044
1.8065	1.61133
1.807	8.25806
1.8075	-0.30212
1.808	9.56726
1.8085	3.7262
1.809	4.22974
1.8095	-0.20142
1.81	3.12195
1.8105	4.93469
1.811	2.81982
1.8115	3.8269
1.812	0.20142
1.8125	9.86938
1.813	6.94885
1.8135	7.15027
1.814	2.21558
1.8145	6.84814
1.815	6.54602
1.8155	0.80566
1.816	6.64673
1.8165	6.64673
1.817	4.12903
1.8175	7.75452
1.818	12.18567
1.8185	11.2793
1.819	11.58142
1.8195	5.23682
1.82	5.23682
1.8205	6.74744
1.821	5.84106
1.8215	2.11487
1.822	6.64673
1.8225	3.62549
1.823	6.54602
1.8235	5.23682
1.824	6.64673
1.8245	5.23682
1.825	2.81982
1.8255	4.93469
1.826	1.81274
1.8265	2.01416
1.827	4.02832
1.8275	2.61841
1.828	2.61841
1.8285	5.13611
1.829	7.04956
1.8295	4.12903
1.83	3.42407
1.8305	7.65381
1.831	0.80566
1.8315	2.41699
1.832	2.41699
1.8325	6.2439
1.833	4.12903
1.8335	4.02832
1.834	6.3446
1.8345	2.5177
1.835	5.23682
1.8355	2.21558
1.836	5.0354
1.8365	10.47363
1.837	5.74036
1.8375	6.04248
1.838	6.74744
1.8385	4.73328
1.839	8.96301
1.8395	3.42407
1.84	9.97009
1.8405	11.38
1.841	12.99133
1.8415	5.23682
1.842	10.17151
1.8425	3.22266
1.843	4.22974
1.8435	7.65381
1.844	11.07788
1.8445	9.06372
1.845	7.04956
1.8455	6.04248
1.846	6.14319
1.8465	7.35168
1.847	7.25098
1.8475	6.84814
1.848	5.43823
1.8485	12.68921
1.849	11.88354
1.8495	14.40125
1.85	15.20691
1.8505	12.68921
1.851	9.16443
1.8515	8.8623
1.852	13.29346
1.8525	11.2793
1.853	9.76868
1.8535	9.86938
1.854	8.35876
1.8545	0.90637
1.855	3.8269
1.8555	12.5885
1.856	6.14319
1.8565	1.81274
1.857	2.5177
1.8575	6.3446
1.858	4.43115
1.8585	1.61133
1.859	5.94177
1.8595	6.84814
1.86	4.83398
1.8605	3.62549
1.861	7.25098
1.8615	9.76868
1.862	0.10071
1.8625	8.05664
1.863	12.68921
1.8635	12.08496
1.864	5.33752
1.8645	7.04956
1.865	10.97717
1.8655	8.45947
1.866	7.04956
1.8665	5.74036
1.867	6.04248
1.8675	2.61841
1.868	5.13611
1.8685	7.15027
1.869	3.12195
1.8695	4.12903
1.87	4.73328
1.8705	6.54602
1.871	3.8269
1.8715	3.42407
1.872	6.14319
1.8725	1.61133
1.873	4.83398
1.8735	-1.71204
1.874	2.31628
1.8745	1.91345
1.875	5.23682
1.8755	8.05664
1.876	0.10071
1.8765	8.25806
1.877	7.35168
1.8775	-0.20142
1.878	1.61133
1.8785	5.94177
1.879	4.02832
1.8795	3.92761
1.88	1.51062
1.8805	3.12195
1.881	2.01416
1.8815	-0.30212
1.882	4.12903
1.8825	0.70496
1.883	3.7262
1.8835	0.60425
1.884	7.85522
1.8845	7.45239
1.885	2.41699
1.8855	3.42407
1.886	2.81982
1.8865	-0.10071
1.887	5.13611
1.8875	4.63257
1.888	2.61841
1.8885	-1.51062
1.889	3.22266
1.8895	2.61841
1.89	2.81982
1.8905	3.7262
1.891	2.21558
1.8915	-2.61841
1.892	-2.71912
1.8925	-0.20142
1.893	3.8269
1.8935	4.43115
1.894	6.84814
1.8945	2.81982
1.895	2.92053
1.8955	1.10779
1.896	0.60425
1.8965	1.40991
1.897	2.81982
1.8975	3.02124
1.898	-0.60425
1.8985	1.40991
1.899	2.81982
1.8995	8.15735
1.9	10.27222
1.9005	6.74744
1.901	8.35876
1.9015	3.62549
1.902	5.84106
1.9025	5.53894
1.903	5.43823
1.9035	6.44531
1.904	7.04956
1.9045	7.5531
1.905	3.62549
1.9055	5.94177
1.906	8.45947
1.9065	5.43823
1.907	5.33752
1.9075	7.15027
1.908	10.37292
1.9085	6.84814
1.909	12.5885
1.9095	10.37292
1.91	5.63965
1.9105	13.59558
1.911	7.25098
1.9115	6.04248
1.912	4.33044
1.9125	3.8269
1.913	5.63965
1.9135	6.3446
1.914	12.18567
1.9145	5.33752
1.915	4.63257
1.9155	2.92053
1.916	4.12903
1.9165	4.12903
1.917	6.94885
1.9175	10.47363
1.918	9.56726
1.9185	9.97009
1.919	10.47363
1.9195	5.63965
1.92	4.22974
1.9205	8.66089
1.921	5.43823
1.9215	8.05664
1.922	8.15735
1.9225	6.04248
1.923	7.15027
1.9235	6.64673
1.924	8.7616
1.9245	8.25806
1.925	6.04248
1.9255	8.35876
1.926	9.76868
1.9265	10.0708
1.927	2.21558
1.9275	5.94177
1.928	8.05664
1.9285	9.16443
1.929	7.85522
1.9295	11.38
1.93	6.14319
1.9305	10.87646
1.931	7.25098
1.9315	8.05664
1.932	4.43115
1.9325	4.22974
1.933	3.22266
1.9335	5.63965
1.934	4.12903
1.9345	5.0354
1.935	4.73328
1.9355	4.93469
1.936	7.95593
1.9365	8.66089
1.937	8.15735
1.9375	7.04956
1.938	8.25806
1.9385	6.74744
1.939	-1.3092
1.9395	4.22974
1.94	4.12903
1.9405	-0.10071
1.941	7.65381
1.9415	3.92761
1.942	0.80566
1.9425	5.13611
1.943	2.5177
1.9435	9.56726
1.944	9.16443
1.9445	6.64673
1.945	4.53186
1.9455	5.94177
1.946	-2.31628
1.9465	4.73328
1.947	6.54602
1.9475	4.02832
1.948	7.45239
1.9485	3.62549
1.949	4.33044
1.9495	4.43115
1.95	3.7262
1.9505	2.92053
1.951	9.26514
1.9515	4.02832
1.952	6.3446
1.9525	2.81982
1.953	1.00708
1.9535	0.50354
1.954	2.71912
1.9545	2.41699
1.955	4.63257
1.9555	4.73328
1.956	5.13611
1.9565	7.35168
1.957	2.81982
1.9575	5.74036
1.958	2.21558
1.9585	5.84106
1.959	8.45947
1.9595	4.33044
1.96	0.70496
1.9605	5.33752
1.961	4.02832
1.9615	6.3446
1.962	6.2439
1.9625	1.51062
1.963	5.63965
1.9635	4.73328
1.964	5.43823
1.9645	3.92761
1.965	6.2439
1.9655	6.74744
1.966	6.74744
1.9665	4.63257
1.967	4.73328
1.9675	6.04248
1.968	3.62549
1.9685	5.23682
1.969	9.56726
1.9695	4.43115
1.97	4.43115
1.9705	0.80566
1.971	-1.2085
1.9715	-1.81274
1.972	6.04248
1.9725	3.02124
1.973	6.44531
1.9735	4.63257
1.974	6.94885
1.9745	7.35168
1.975	8.56018
1.9755	6.94885
1.976	5.53894
1.9765	4.63257
1.977	6.54602
1.9775	6.3446
1.978	0.90637
1.9785	2.41699
1.979	3.7262
1.9795	6.2439
1.98	6.94885
1.9805	7.04956
1.981	6.04248
1.9815	8.45947
1.982	4.53186
1.9825	5.23682
1.983	9.86938
1.9835	12.48779
1.984	12.89062
1.9845	8.05664
1.985	6.54602
1.9855	5.53894
1.986	6.2439
1.9865	3.92761
1.987	4.22974
1.9875	8.45947
1.988	5.23682
1.9885	8.7616
1.989	8.15735
1.9895	6.74744
1.99	8.35876
1.9905	5.0354
1.991	6.64673
1.9915	7.45239
1.992	4.43115
1.9925	6.74744
1.993	5.23682
1.9935	5.74036
1.994	8.7616
1.9945	8.05664
1.995	3.8269
1.9955	1.51062
1.996	3.62549
1.9965	2.41699
1.997	5.53894
1.9975	-1.51062
1.998	4.93469
1.9985	5.23682
1.999	6.3446
1.9995	6.84814
2	7.04956
2.0005	3.8269
2.001	10.67505
2.0015	9.16443
2.002	5.63965
2.0025	5.0354
2.003	6.84814
2.0035	5.43823
2.004	4.22974
2.0045	0.50354
2.005	2.21558
2.0055	6.04248
2.006	3.92761
2.0065	10.17151
2.007	4.43115
2.0075	1.61133
2.008	1.3092
2.0085	6.04248
2.009	6.84814
2.0095	3.12195
2.01	5.94177
2.0105	6.14319
2.011	3.8269
2.0115	5.33752
2.012	5.84106
2.0125	7.5531
2.013	2.81982
2.0135	13.09204
2.014	5.43823
2.0145	9.36584
2.015	5.13611
2.0155	5.0354
2.016	3.22266
2.0165	1.61133
2.017	2.71912
2.0175	-0.70496
2.018	4.02832
2.0185	6.3446
2.019	6.04248
2.0195	3.32336
2.02	-2.71912
2.0205	3.92761
2.021	6.14319
2.0215	-0.30212
2.022	3.12195
2.0225	4.63257
2.023	7.5531
2.0235	5.94177
2.024	11.07788
2.0245	5.84106
2.025	7.25098
2.0255	5.63965
2.026	4.22974
2.0265	3.7262
2.027	4.63257
2.0275	5.84106
2.028	4.33044
2.0285	2.01416
2.029	4.73328
2.0295	9.16443
2.03	9.46655
2.0305	-0.90637
2.031	4.12903
2.0315	1.91345
2.032	2.71912
2.0325	4.12903
2.033	3.92761
2.0335	0.30212
2.034	1.71204
2.0345	7.75452
2.035	2.21558
2.0355	8.56018
2.036	10.17151
2.0365	14.40125
2.037	25.37842
2.0375	32.12585
2.038	36.75842
2.0385	40.2832
2.039	37.96692
2.0395	32.32727
2.04	26.28479
2.0405	24.77417
2.041	21.24939
2.0415	18.63098
2.042	17.72461
2.0425	9.97009
2.043	7.95593
2.0435	-3.42407
2.044	-10.17151
2.0445	-8.7616
2.045	-10.37292
2.0455	-14.80408
2.046	-17.72461
2.0465	-16.91895
2.047	-15.71045
2.0475	-15.40833
2.048	-12.08496
2.0485	-10.87646
2.049	-13.49487
2.0495	-5.94177
2.05	-7.85522
2.0505	-0.10071
2.051	-2.41699
2.0515	4.22974
2.052	-4.02832
2.0525	-2.41699
2.053	1.00708
2.0535	6.54602
2.054	6.84814
2.0545	12.5885
2.055	13.797
2.0555	6.3446
2.056	11.88354
2.0565	8.56018
2.057	10.87646
2.0575	7.65381
2.058	12.28638
2.0585	13.39417
2.059	11.17859
2.0595	0.80566
2.06	3.12195
2.0605	6.74744
2.061	-1.2085
2.0615	3.42407
2.062	2.31628
2.0625	7.75452
2.063	5.23682
2.0635	4.12903
2.064	5.53894
2.0645	7.85522
2.065	8.66089
2.0655	1.00708
2.066	7.04956
2.0665	3.22266
2.067	4.02832
2.0675	11.98425
2.068	13.797
2.0685	9.66797
2.069	9.36584
2.0695	5.53894
2.07	15.60974
2.0705	20.24231
2.071	22.15576
2.0715	21.85364
2.072	25.37842
2.0725	22.05505
2.073	23.76709
2.0735	21.85364
2.074	17.82532
2.0745	10.97717
2.075	11.07788
2.0755	12.28638
2.076	9.16443
2.0765	1.00708
2.077	2.11487
2.0775	3.62549
2.078	-4.02832
2.0785	-3.52478
2.079	-9.06372
2.0795	-5.23682
2.08	-13.99841
2.0805	-2.11487
2.081	-3.32336
2.0815	-1.10779
2.082	1.2085
2.0825	-1.00708
2.083	2.21558
2.0835	2.31628
2.084	1.61133
2.0845	-0.10071
2.085	1.10779
2.0855	13.59558
2.086	5.13611
2.0865	5.23682
2.087	1.61133
2.0875	7.35168
2.088	4.33044
2.0885	2.92053
2.089	2.81982
2.0895	9.36584
2.09	5.33752
2.0905	7.15027
2.091	8.96301
2.0915	5.94177
2.092	9.56726
2.0925	8.8623
2.093	7.15027
2.0935	8.05664
2.094	7.95593
2.0945	4.02832
2.095	4.93469
2.0955	0.60425
2.096	0.50354
2.0965	-3.7262
2.097	-2.71912
2.0975	0
2.098	-6.64673
2.0985	1.10779
2.099	-3.62549
2.0995	-0.10071
2.1	-2.61841
2.1005	-3.62549
2.101	-0.70496
2.1015	-1.10779
2.102	-1.51062
2.1025	-4.43115
2.103	4.12903
2.1035	2.61841
2.104	5.43823
2.1045	0.70496
2.105	6.74744
2.1055	4.73328
2.106	7.85522
2.1065	5.0354
2.107	6.3446
2.1075	6.44531
2.108	5.84106
2.1085	3.32336
2.109	4.53186
2.1095	6.54602
2.11	7.04956
2.1105	2.21558
2.111	7.04956
2.1115	4.93469
2.112	6.04248
2.1125	6.2439
2.113	6.74744
2.1135	5.74036
2.114	12.48779
2.1145	5.53894
2.115	8.7616
2.1155	6.04248
2.116	7.75452
2.1165	9.86938
2.117	8.45947
2.1175	7.45239
2.118	5.23682
2.1185	0.40283
2.119	4.33044
2.1195	5.94177
2.12	5.23682
2.1205	7.5531
2.121	4.43115
2.1215	4.93469
2.122	5.33752
2.1225	0.70496
2.123	4.02832
2.1235	5.74036
2.124	8.05664
2.1245	5.0354
2.125	1.2085
2.1255	2.81982
2.126	7.25098
2.1265	4.43115
2.127	1.71204
2.1275	4.43115
2.128	3.42407
2.1285	10.27222
2.129	5.53894
2.1295	13.49487
2.13	8.35876
2.1305	0.90637
2.131	4.02832
2.1315	2.01416
2.132	6.74744
2.1325	3.12195
2.133	4.02832
2.1335	4.12903
2.134	6.94885
2.1345	8.05664
2.135	6.44531
2.1355	6.14319
2.136	4.02832
2.1365	4.93469
2.137	8.25806
2.1375	6.3446
2.138	6.14319
2.1385	2.71912
2.139	7.35168
2.1395	7.5531
2.14	9.26514
2.1405	-0.50354
2.141	4.63257
2.1415	-2.31628
2.142	-0.50354
2.1425	2.81982
2.143	7.65381
2.1435	9.86938
2.144	11.98425
2.1445	8.35876
2.145	12.48779
2.1455	12.68921
2.146	15.20691
2.1465	13.49487
2.147	13.99841
2.1475	17.12036
2.148	14.90479
2.1485	8.25806
2.149	7.25098
2.1495	14.90479
2.15	10.87646
2.1505	7.95593
2.151	5.74036
2.1515	2.5177
2.152	2.01416
2.1525	5.33752
2.153	1.2085
2.1535	2.5177
2.154	6.3446
2.1545	1.71204
2.155	7.75452
2.1555	7.35168
2.156	8.8623
2.1565	15.81116
2.157	24.77417
2.1575	29.30603
2.158	26.08337
2.1585	24.16992
2.159	21.45081
2.1595	24.16992
2.16	16.3147
2.1605	9.16443
2.161	9.36584
2.1615	1.71204
2.162	0.50354
2.1625	-2.41699
2.163	-4.93469
2.1635	-11.98425
2.164	-14.60266
2.1645	-16.21399
2.165	-17.72461
2.1655	-15.20691
2.166	-17.01965
2.1665	-20.64514
2.167	-13.39417
2.1675	-10.87646
2.168	-13.19275
2.1685	-8.8623
2.169	-3.62549
2.1695	-2.61841
2.17	0.60425
2.1705	1.10779
2.171	-0.20142
2.1715	2.01416
2.172	-0.80566
2.1725	0.10071
2.173	0.10071
2.1735	0
2.174	-1.00708
2.1745	7.35168
2.175	2.01416
2.1755	0.90637
2.176	-1.91345
2.1765	3.52478
2.177	3.32336
2.1775	2.61841
2.178	3.8269
2.1785	0.60425
2.179	1.10779
2.1795	4.53186
2.18	1.81274
2.1805	3.12195
2.181	10.0708
2.1815	8.7616
2.182	10.27222
2.1825	8.7616
2.183	8.8623
2.1835	11.48071
2.184	10.47363
2.1845	13.19275
2.185	14.70337
2.1855	16.71753
2.186	20.34302
2.1865	21.45081
2.187	24.97559
2.1875	21.85364
2.188	21.65222
2.1885	16.21399
2.189	14.40125
2.1895	11.2793
2.19	7.95593
2.1905	-3.02124
2.191	3.52478
2.1915	0.80566
2.192	-9.56726
2.1925	-7.25098
2.193	-16.71753
2.1935	-15.1062
2.194	-12.08496
2.1945	-10.97717
2.195	-3.42407
2.1955	-2.71912
2.196	-2.71912
2.1965	-2.71912
2.197	5.43823
2.1975	-1.51062
2.198	-0.50354
2.1985	-0.40283
2.199	1.2085
2.1995	11.2793
2.2	22.45789
2.2005	27.6947
2.201	35.65063
2.2015	34.64355
2.202	37.7655
2.2025	36.75842
2.203	34.94568
2.2035	40.08179
2.204	37.96692
2.2045	31.21948
2.205	14.70337
2.2055	8.15735
2.206	-0.20142
2.2065	-1.10779
2.207	-9.46655
2.2075	-21.45081
2.208	-27.59399
2.2085	-29.20532
2.209	-33.63647
2.2095	-32.12585
2.21	-29.30603
2.2105	-26.78833
2.211	-19.63806
2.2115	-12.28638
2.212	-14.09912
2.2125	-15.20691
2.213	-9.56726
2.2135	-4.12903
2.214	-0.40283
2.2145	3.32336
2.215	5.74036
2.2155	4.63257
2.216	8.35876
2.2165	11.2793
2.217	14.90479
2.2175	15.50903
2.218	13.39417
2.2185	10.27222
2.219	7.45239
2.2195	9.76868
2.22	2.5177
2.2205	10.17151
2.221	8.56018
2.2215	8.66089
2.222	0.70496
2.2225	7.95593
2.223	9.26514
2.2235	7.04956
2.224	3.8269
2.2245	2.41699
2.225	-4.93469
2.2255	7.35168
2.226	8.45947
2.2265	21.55151
2.227	23.76709
2.2275	23.76709
2.228	25.37842
2.2285	22.15576
2.229	25.37842
2.2295	22.6593
2.23	25.07629
2.2305	18.12744
2.231	15.81116
2.2315	13.99841
2.232	15.00549
2.2325	14.09912
2.233	12.78992
2.2335	11.17859
2.234	9.86938
2.2345	4.43115
2.235	-9.16443
2.2355	-7.35168
2.236	-7.85522
2.2365	1.40991
2.237	-3.92761
2.2375	-1.00708
2.238	-6.2439
2.2385	-10.0708
2.239	-6.64673
2.2395	-1.00708
2.24	5.84106
2.2405	17.92603
2.241	20.24231
2.2415	19.53735
2.242	22.6593
2.2425	23.06213
2.243	32.02515
2.2435	24.97559
2.244	22.05505
2.2445	16.3147
2.245	18.42957
2.2455	16.81824
2.246	10.77576
2.2465	6.3446
2.247	-3.02124
2.2475	-14.40125
2.248	-16.61682
2.2485	-23.66638
2.249	-27.49329
2.2495	-29.91028
2.25	-31.11877
2.2505	-24.67346
2.251	-23.36426
2.2515	-15.91187
2.252	-11.07788
2.2525	-10.0708
2.253	-1.51062
2.2535	-0.50354
2.254	3.32336
2.2545	7.15027
2.255	6.3446
2.2555	8.8623
2.256	4.02832
2.2565	5.63965
2.257	12.68921
2.2575	17.32178
2.258	16.61682
2.2585	12.38708
2.259	10.77576
2.2595	7.5531
2.26	9.06372
2.2605	10.27222
2.261	11.2793
2.2615	6.44531
2.262	6.94885
2.2625	8.05664
2.263	6.2439
2.2635	3.12195
2.264	4.22974
2.2645	7.45239
2.265	7.15027
2.2655	4.02832
2.266	6.74744
2.2665	2.71912
2.267	10.17151
2.2675	12.18567
2.268	10.27222
2.2685	10.97717
2.269	9.16443
2.2695	5.0354
2.27	12.28638
2.2705	9.06372
2.271	13.797
2.2715	13.29346
2.272	13.99841
2.2725	15.1062
2.273	13.99841
2.2735	15.30762
2.274	17.42249
2.2745	13.49487
2.275	9.76868
2.2755	8.8623
2.276	11.58142
2.2765	3.8269
2.277	3.7262
2.2775	0.30212
2.278	1.61133
2.2785	1.71204
2.279	3.32336
2.2795	1.61133
2.28	3.8269
2.2805	0.30212
2.281	-3.7262
2.2815	-3.32336
2.282	8.96301
2.2825	16.21399
2.283	17.6239
2.2835	14.40125
2.284	17.22107
2.2845	18.12744
2.285	13.69629
2.2855	15.81116
2.286	10.77576
2.2865	1.51062
2.287	-2.81982
2.2875	-6.74744
2.288	-12.38708
2.2885	-16.11328
2.289	-18.93311
2.2895	-18.8324
2.29	-15.30762
2.2905	-14.30054
2.291	-7.65381
2.2915	-5.84106
2.292	-6.54602
2.2925	-7.04956
2.293	-4.93469
2.2935	1.10779
2.294	2.71912
2.2945	8.45947
2.295	13.09204
2.2955	14.70337
2.296	13.99841
2.2965	13.09204
2.297	17.01965
2.2975	21.3501
2.298	19.43665
2.2985	16.81824
2.299	9.46655
2.2995	14.30054
2.3	15.30762
2.3005	12.38708
2.301	7.65381
2.3015	13.09204
2.302	6.04248
2.3025	6.04248
2.303	8.15735
2.3035	6.14319
2.304	11.88354
2.3045	8.15735
2.305	5.0354
2.3055	5.23682
2.306	10.27222
2.3065	6.84814
2.307	3.32336
2.3075	4.53186
2.308	5.33752
2.3085	6.3446
2.309	7.35168
2.3095	8.56018
2.31	10.97717
2.3105	6.14319
2.311	5.63965
2.3115	5.43823
2.312	3.02124
2.3125	5.74036
2.313	2.92053
2.3135	2.5177
2.314	9.56726
2.3145	5.74036
2.315	7.15027
2.3155	9.16443
2.316	3.7262
2.3165	4.73328
2.317	6.3446
2.3175	0.80566
2.318	2.61841
2.3185	8.66089
2.319	8.15735
2.3195	4.93469
2.32	11.98425
2.3205	9.76868
2.321	3.32336
2.3215	0.70496
2.322	6.3446
2.3225	7.95593
2.323	5.74036
2.3235	4.63257
2.324	12.78992
2.3245	11.17859
2.325	6.04248
2.3255	6.74744
2.326	11.48071
2.3265	7.85522
2.327	8.25806
2.3275	2.61841
2.328	3.22266
2.3285	1.91345
2.329	7.65381
2.3295	4.73328
2.33	6.94885
2.3305	0.90637
2.331	2.11487
2.3315	7.45239
2.332	3.42407
2.3325	3.22266
2.333	-1.00708
2.3335	-0.90637
2.334	0
2.3345	5.94177
2.335	8.45947
2.3355	9.06372
2.336	6.94885
2.3365	8.7616
2.337	9.97009
2.3375	8.35876
2.338	0.90637
2.3385	3.32336
2.339	7.65381
2.3395	7.35168
2.34	2.81982
2.3405	4.33044
2.341	1.81274
2.3415	6.04248
2.342	7.04956
2.3425	11.98425
2.343	7.65381
2.3435	12.48779
2.344	13.49487
2.3445	10.97717
2.345	13.59558
2.3455	8.66089
2.346	6.2439
2.3465	2.5177
2.347	8.56018
2.3475	10.57434
2.348	20.54443
2.3485	18.02673
2.349	17.32178
2.3495	14.50195
2.35	9.97009
2.3505	12.08496
2.351	9.36584
2.3515	3.52478
2.352	4.22974
2.3525	3.92761
2.353	11.38
2.3535	12.78992
2.354	12.5885
2.3545	6.2439
2.355	8.66089
2.3555	11.17859
2.356	1.40991
2.3565	-1.71204
2.357	-4.83398
2.3575	-7.95593
2.358	-9.97009
2.3585	-8.66089
2.359	-11.38
2.3595	-13.797
2.36	-9.06372
2.3605	-11.68213
2.361	-11.07788
2.3615	-6.54602
2.362	-6.04248
2.3625	8.15735
2.363	18.53027
2.3635	13.39417
2.364	20.24231
2.3645	27.79541
2.365	35.34851
2.3655	41.89453
2.366	59.21631
2.3665	74.92676
2.367	91.04004
2.3675	103.02429
2.368	106.9519
2.3685	98.69385
2.369	90.33508
2.3695	71.09985
2.37	51.86462
2.3705	36.95984
2.371	22.86072
2.3715	3.22266
2.372	-13.797
2.3725	-24.37134
2.373	-44.51294
2.3735	-53.77808
2.374	-62.53967
2.3745	-66.36658
2.375	-71.50269
2.3755	-70.29419
2.376	-70.3949
2.3765	-68.88428
2.377	-63.94958
2.3775	-63.04321
2.378	-54.98657
2.3785	-49.74976
2.379	-35.95276
2.3795	-19.53735
2.38	-1.00708
2.3805	11.68213
2.381	20.74585
2.3815	31.72302
2.382	40.1825
2.3825	55.69153
2.383	67.67578
2.3835	83.28552
2.384	92.04712
2.3845	87.31384
2.385	80.4657
2.3855	78.75366
2.386	70.3949
2.3865	63.94958
2.387	69.68994
2.3875	71.7041
2.388	66.87012
2.3885	55.59082
2.389	44.11011
2.3895	30.71594
2.39	21.75293
2.3905	10.87646
2.391	-6.44531
2.3915	-16.3147
2.392	-31.01807
2.3925	-46.5271
2.393	-53.27454
2.3935	-64.85596
2.394	-69.89136
2.3945	-82.68127
2.395	-87.11243
2.3955	-101.61438
2.396	-99.09668
2.3965	-86.10535
2.397	-85.5011
2.3975	-77.04163
2.398	-75.12817
2.3985	-65.56091
2.399	-56.39648
2.3995	-52.46887
2.4	-43.90869
2.4005	-39.47754
2.401	-28.09753
2.4015	-20.64514
2.402	-15.00549
2.4025	-4.43115
2.403	-0.80566
2.4035	2.92053
2.404	8.8623
2.4045	13.797
2.405	23.56567
2.4055	18.32886
2.406	16.71753
2.4065	17.32178
2.407	14.19983
2.4075	15.50903
2.408	18.93311
2.4085	12.5885
2.409	12.08496
2.4095	11.88354
2.41	11.58142
2.4105	8.8623
2.411	11.88354
2.4115	12.78992
2.412	16.91895
2.4125	19.53735
2.413	17.82532
2.4135	19.23523
2.414	24.67346
2.4145	24.87488
2.415	21.45081
2.4155	19.73877
2.416	15.40833
2.4165	21.45081
2.417	21.65222
2.4175	22.35718
2.418	20.44373
2.4185	23.96851
2.419	22.6593
2.4195	24.57275
2.42	22.15576
2.4205	16.11328
2.421	17.32178
2.4215	10.67505
2.422	15.50903
2.4225	14.30054
2.423	15.91187
2.4235	14.70337
2.424	7.95593
2.4245	7.65381
2.425	9.66797
2.4255	6.3446
2.426	6.04248
2.4265	5.13611
2.427	9.56726
2.4275	10.47363
2.428	15.71045
2.4285	19.83948
2.429	17.82532
2.4295	20.84656
2.43	18.53027
2.4305	15.20691
2.431	15.50903
2.4315	16.21399
2.432	17.12036
2.4325	15.81116
2.433	11.38
2.4335	14.80408
2.434	15.91187
2.4345	20.24231
2.435	19.73877
2.4355	24.37134
2.436	30.61523
2.4365	37.36267
2.437	48.33984
2.4375	56.19507
2.438	67.17224
2.4385	78.75366
2.439	82.78198
2.4395	78.25012
2.44	84.19189
2.4405	70.89844
2.441	56.49719
2.4415	48.94409
2.442	37.56409
2.4425	20.1416
2.443	17.6239
2.4435	6.04248
2.444	-0.40283
2.4445	-7.5531
2.445	-20.94727
2.4455	-29.10461
2.446	-32.62939
2.4465	-37.26196
2.447	-43.50586
2.4475	-50.2533
2.448	-52.67029
2.4485	-58.10852
2.449	-55.3894
2.4495	-59.1156
2.45	-60.82764
2.4505	-57.8064
2.451	-47.53418
2.4515	-40.88745
2.452	-28.60107
2.4525	-22.6593
2.453	-21.65222
2.4535	-10.67505
2.454	-8.66089
2.4545	-6.54602
2.455	-8.66089
2.4555	-5.63965
2.456	-6.44531
2.4565	-14.09912
2.457	-11.68213
2.4575	-12.5885
2.458	5.43823
2.4585	19.53735
2.459	24.87488
2.4595	32.22656
2.46	35.85205
2.4605	33.73718
2.461	40.08179
2.4615	36.05347
2.462	36.25488
2.4625	27.99683
2.463	15.20691
2.4635	6.2439
2.464	-1.61133
2.4645	-11.58142
2.465	-25.177
2.4655	-36.65771
2.466	-36.25488
2.4665	-42.19666
2.467	-42.19666
2.4675	-41.08887
2.468	-32.62939
2.4685	-31.11877
2.469	-22.35718
2.4695	-11.38
2.47	-1.10779
2.4705	2.71912
2.471	4.53186
2.4715	10.67505
2.472	12.18567
2.4725	16.41541
2.473	23.26355
2.4735	30.2124
2.474	35.14709
2.4745	44.31152
2.475	42.29736
2.4755	48.84338
2.476	68.68286
2.4765	81.37207
2.477	91.04004
2.4775	91.14075
2.478	91.44287
2.4785	94.16199
2.479	84.69543
2.4795	75.02747
2.48	64.151
2.4805	45.3186
2.481	32.7301
2.4815	10.47363
2.482	2.21558
2.4825	-8.8623
2.483	-11.07788
2.4835	-4.33044
2.484	-7.85522
2.4845	-15.50903
2.485	-23.06213
2.4855	-20.94727
2.486	-20.34302
2.4865	-11.78284
2.487	-2.41699
2.4875	17.52319
2.488	34.44214
2.4885	49.95117
2.489	49.85046
2.4895	42.59949
2.49	40.58533
2.4905	39.37683
2.491	41.59241
2.4915	29.40674
2.492	25.47913
2.4925	29.10461
2.493	33.23364
2.4935	30.11169
2.494	27.6947
2.4945	23.96851
2.495	15.71045
2.4955	25.98267
2.496	33.53577
2.4965	28.9032
2.497	24.77417
2.4975	17.72461
2.498	8.96301
2.4985	-3.22266
2.499	-8.96301
2.4995	-18.73169
2.5	-39.27612
2.5005	-43.80798
2.501	-44.81506
2.5015	-52.46887
2.502	-64.95667
2.5025	-67.17224
2.503	-63.64746
2.5035	-60.3241
2.504	-51.36108
2.5045	-52.36816
2.505	-54.18091
2.5055	-58.41064
2.506	-60.4248
2.5065	-61.53259
2.507	-53.17383
2.5075	-47.53418
2.508	-47.13135
2.5085	-41.29028
2.509	-42.90161
2.5095	-38.87329
2.51	-33.13293
2.5105	-26.3855
2.511	-30.51453
2.5115	-27.6947
2.512	-20.64514
2.5125	-9.66797
2.513	1.71204
2.5135	-0.30212
2.514	6.64673
2.5145	10.37292
2.515	14.40125
2.5155	21.24939
2.516	22.05505
2.5165	32.22656
2.517	41.18958
2.5175	42.7002
2.518	37.96692
2.5185	39.37683
2.519	36.05347
2.5195	29.80957
2.52	30.51453
2.5205	35.14709
2.521	39.27612
2.5215	47.33276
2.522	41.69312
2.5225	43.10303
2.523	39.98108
2.5235	51.5625
2.524	62.53967
2.5245	72.40906
2.525	74.62463
2.5255	76.33667
2.526	67.8772
2.5265	61.6333
2.527	49.14551
2.5275	37.06055
2.528	24.87488
2.5285	31.72302
2.529	43.60657
2.5295	50.15259
2.53	66.16516
2.5305	88.11951
2.531	102.11792
2.5315	103.125
2.532	94.66553
2.5325	80.06287
2.533	86.30676
2.5335	109.57031
2.534	111.38306
2.5345	88.82446
2.535	58.71277
2.5355	31.72302
2.536	6.2439
2.5365	-16.61682
2.537	-31.82373
2.5375	-42.49878
2.538	-61.53259
2.5385	-81.06995
2.539	-95.06836
2.5395	-123.2666
2.54	-140.58838
2.5405	-151.66626
2.541	-168.18237
2.5415	-168.08167
2.542	-163.04626
2.5425	-150.75989
2.543	-131.32324
2.5435	-94.66553
2.544	-62.13684
2.5445	-36.85913
2.545	-17.42249
2.5455	0.20142
2.546	-0.10071
2.5465	-8.25806
2.547	-8.25806
2.5475	-18.32886
2.548	-9.66797
2.5485	10.17151
2.549	18.73169
2.5495	22.35718
2.55	24.57275
2.5505	22.76001
2.551	17.32178
2.5515	6.14319
2.552	-1.51062
2.5525	-14.70337
2.553	-27.19116
2.5535	-38.36975
2.554	-38.67188
2.5545	-37.46338
2.555	-39.27612
2.5555	-33.43506
2.556	-18.63098
2.5565	2.41699
2.557	16.51611
2.5575	26.08337
2.558	25.07629
2.5585	18.02673
2.559	20.1416
2.5595	20.34302
2.56	16.71753
2.5605	6.54602
2.561	8.56018
2.5615	7.85522
2.562	9.36584
2.5625	30.2124
2.563	45.41931
2.5635	49.95117
2.564	50.2533
2.5645	53.57666
2.565	47.03064
2.5655	36.05347
2.566	35.95276
2.5665	46.02356
2.567	42.09595
2.5675	41.99524
2.568	38.36975
2.5685	24.87488
2.569	14.50195
2.5695	7.35168
2.57	3.02124
2.5705	6.64673
2.571	19.94019
2.5715	43.30444
2.572	52.46887
2.5725	51.76392
2.573	52.67029
2.5735	42.19666
2.574	43.10303
2.5745	32.93152
2.575	31.4209
2.5755	22.05505
2.576	18.8324
2.5765	9.46655
2.577	2.31628
2.5775	-7.25098
2.578	-15.1062
2.5785	-23.8678
2.579	-20.84656
2.5795	-27.19116
2.58	-25.27771
2.5805	-31.01807
2.581	-25.78125
2.5815	-18.12744
2.582	-1.51062
2.5825	22.15576
2.583	30.91736
2.5835	30.11169
2.584	31.11877
2.5845	26.98975
2.585	27.19116
2.5855	23.46497
2.586	14.60266
2.5865	16.61682
2.587	5.74036
2.5875	4.43115
2.588	-10.57434
2.5885	-19.23523
2.589	-29.60815
2.5895	-32.62939
2.59	-41.4917
2.5905	-41.89453
2.591	-35.04639
2.5915	-19.23523
2.592	-2.21558
2.5925	10.17151
2.593	13.89771
2.5935	7.04956
2.594	10.0708
2.5945	7.25098
2.595	13.19275
2.5955	8.15735
2.596	0.10071
2.5965	6.44531
2.597	32.83081
2.5975	57.30286
2.598	60.92834
2.5985	54.78516
2.599	50.45471
2.5995	39.37683
2.6	35.85205
2.6005	27.39258
2.601	23.16284
2.6015	26.98975
2.602	24.57275
2.6025	17.01965
2.603	10.47363
2.6035	5.0354
2.604	-2.81982
2.6045	-16.81824
2.605	-17.92603
2.6055	-16.41541
2.606	-16.61682
2.6065	-16.01257
2.607	-10.17151
2.6075	-6.3446
2.608	10.0708
2.6085	15.81116
2.609	31.92444
2.6095	32.7301
2.61	30.11169
2.6105	27.79541
2.611	24.67346
2.6115	27.59399
2.612	25.98267
2.6125	21.75293
2.613	16.11328
2.6135	8.96301
2.614	9.26514
2.6145	-4.43115
2.615	-9.76868
2.6155	-11.68213
2.616	-15.1062
2.6165	-14.60266
2.617	-17.52319
2.6175	-9.56726
2.618	-1.71204
2.6185	-1.61133
2.619	3.92761
2.6195	8.56018
2.62	7.04956
2.6205	5.53894
2.621	6.74744
2.6215	3.12195
2.622	0.10071
2.6225	-5.13611
2.623	-4.43115
2.6235	-1.51062
2.624	-4.63257
2.6245	-0.20142
2.625	-11.88354
2.6255	-4.53186
2.626	-8.25806
2.6265	-4.12903
2.627	-5.23682
2.6275	-2.71912
2.628	3.02124
2.6285	28.70178
2.629	54.88586
2.6295	55.3894
2.63	47.13135
2.6305	42.39807
2.631	36.55701
2.6315	33.63647
2.632	28.60107
2.6325	25.07629
2.633	16.61682
2.6335	10.17151
2.634	-4.22974
2.6345	-11.78284
2.635	-16.11328
2.6355	-17.52319
2.636	-13.39417
2.6365	-14.50195
2.637	-8.7616
2.6375	-8.15735
2.638	-10.77576
2.6385	-11.07788
2.639	-5.0354
2.6395	2.81982
2.64	12.18567
2.6405	22.96143
2.641	24.77417
2.6415	22.86072
2.642	25.78125
2.6425	35.14709
2.643	39.17542
2.6435	48.64197
2.644	45.72144
2.6445	32.22656
2.645	22.05505
2.6455	23.96851
2.646	19.63806
2.6465	17.22107
2.647	26.98975
2.6475	25.37842
2.648	25.57983
2.6485	21.04797
2.649	16.71753
2.6495	10.27222
2.65	-2.81982
2.6505	12.08496
2.651	60.3241
2.6515	73.41614
2.652	80.26428
2.6525	70.09277
2.653	57.20215
2.6535	40.38391
2.654	22.6593
2.6545	-2.21558
2.655	-13.39417
2.6555	-31.32019
2.656	-47.53418
2.6565	-58.51135
2.657	-59.51843
2.6575	-70.99915
2.658	-66.56799
2.6585	-53.97949
2.659	-35.95276
2.6595	-32.52869
2.66	-17.32178
2.6605	13.99841
2.661	41.59241
2.6615	45.2179
2.662	34.03931
2.6625	23.26355
2.663	4.73328
2.6635	-15.50903
2.664	-40.1825
2.6645	-54.18091
2.665	-72.81189
2.6655	-82.47986
2.666	-65.66162
2.6665	-55.2887
2.667	-50.65613
2.6675	-54.68445
2.668	-44.61365
2.6685	-35.34851
2.669	-30.61523
2.6695	-18.12744
2.67	-17.6239
2.6705	3.22266
2.671	64.151
2.6715	135.15015
2.672	166.47034
2.6725	164.65759
2.673	141.59546
2.6735	110.37598
2.674	71.90552
2.6745	30.71594
2.675	0.70496
2.6755	-31.82373
2.676	-71.7041
2.6765	-95.16907
2.677	-100.00305
2.6775	-94.66553
2.678	-91.64429
2.6785	-78.45154
2.679	-72.20764
2.6795	-70.19348
2.68	-67.67578
2.6805	-56.79932
2.681	-46.62781
2.6815	-45.11719
2.682	-26.08337
2.6825	-12.5885
2.683	-15.1062
2.6835	-11.68213
2.684	3.02124
2.6845	36.4563
2.685	54.68445
2.6855	68.38074
2.686	66.97083
2.6865	63.54675
2.687	51.15967
2.6875	36.4563
2.688	25.177
2.6885	15.91187
2.689	8.66089
2.6895	-3.92761
2.69	-7.04956
2.6905	-16.91895
2.691	-9.46655
2.6915	-1.71204
2.692	-4.53186
2.6925	-2.71912
2.693	-0.90637
2.6935	-2.41699
2.694	2.61841
2.6945	2.31628
2.695	-0.30212
2.6955	1.81274
2.696	-5.94177
2.6965	-2.5177
2.697	23.46497
2.6975	47.53418
2.698	63.64746
2.6985	72.40906
2.699	65.76233
2.6995	53.67737
2.7	31.4209
2.7005	17.42249
2.701	-0.70496
2.7015	-9.66797
2.702	-21.75293
2.7025	-31.4209
2.703	-32.93152
2.7035	-37.96692
2.704	-34.44214
2.7045	-35.2478
2.705	-28.60107
2.7055	-18.32886
2.706	-12.99133
2.7065	1.61133
2.707	5.63965
2.7075	6.54602
2.708	11.38
2.7085	19.13452
2.709	32.42798
2.7095	34.34143
2.71	30.11169
2.7105	34.14001
2.711	38.87329
2.7115	51.05896
2.712	63.74817
2.7125	62.53967
2.713	57.60498
2.7135	49.34692
2.714	44.91577
2.7145	29.60815
2.715	20.74585
2.7155	6.64673
2.716	-1.2085
2.7165	-17.72461
2.717	-32.42798
2.7175	-41.18958
2.718	-47.23206
2.7185	-45.62073
2.719	-28.60107
2.7195	1.00708
2.72	69.89136
2.7205	115.10925
2.721	131.72607
2.7215	133.53882
2.722	108.46252
2.7225	77.44446
2.723	63.64746
2.7235	45.72144
2.724	10.97717
2.7245	-14.90479
2.725	-42.49878
2.7255	-72.71118
2.726	-94.16199
2.7265	-109.77173
2.727	-124.37439
2.7275	-135.55298
2.728	-131.42395
2.7285	-73.81897
2.729	-2.61841
2.7295	40.68604
2.73	75.93384
2.7305	120.14465
2.731	129.81262
2.7315	102.52075
2.732	61.43188
2.7325	13.89771
2.733	-32.93152
2.7335	-84.59473
2.734	-117.92908
2.7345	-129.91333
2.735	-143.3075
2.7355	-137.16431
2.736	-136.56006
2.7365	-124.27368
2.737	-110.98022
2.7375	-89.02588
2.738	-72.61047
2.7385	-52.16675
2.739	-31.11877
2.7395	-8.25806
2.74	1.61133
2.7405	8.35876
2.741	11.68213
2.7415	16.51611
2.742	27.29187
2.7425	42.49878
2.743	45.72144
2.7435	49.54834
2.744	55.3894
2.7445	53.27454
2.745	56.79932
2.7455	50.75684
2.746	46.72852
2.7465	33.9386
2.747	23.16284
2.7475	30.81665
2.748	40.48462
2.7485	41.79382
2.749	47.33276
2.7495	41.99524
2.75	34.24072
2.7505	20.94727
2.751	12.28638
2.7515	5.13611
2.752	8.56018
2.7525	2.41699
2.753	14.60266
2.7535	19.33594
2.754	20.94727
2.7545	22.96143
2.755	33.9386
2.7555	41.99524
2.756	42.49878
2.7565	39.88037
2.757	36.55701
2.7575	25.88196
2.758	15.1062
2.7585	16.41541
2.759	36.4563
2.7595	45.2179
2.76	45.52002
2.7605	40.78674
2.761	40.38391
2.7615	33.9386
2.762	23.06213
2.7625	3.92761
2.763	-10.97717
2.7635	-16.11328
2.764	-23.56567
2.7645	4.22974
2.765	16.81824
2.7655	20.94727
2.766	19.33594
2.7665	14.40125
2.767	12.38708
2.7675	1.91345
2.768	-2.92053
2.7685	5.53894
2.769	-1.3092
2.7695	-5.43823
2.77	-16.01257
2.7705	-27.09045
2.771	-37.46338
2.7715	-39.47754
2.772	-35.34851
2.7725	-36.05347
2.773	-44.31152
2.7735	-53.87878
2.774	-61.12976
2.7745	-65.25879
2.775	-64.35242
2.7755	-57.70569
2.776	-46.62781
2.7765	-39.67896
2.777	-37.66479
2.7775	-9.36584
2.778	29.70886
2.7785	52.8717
2.779	50.95825
2.7795	50.85754
2.78	41.29028
2.7805	41.59241
2.781	33.03223
2.7815	18.93311
2.782	6.44531
2.7825	-2.81982
2.783	16.3147
2.7835	35.44922
2.784	34.34143
2.7845	26.78833
2.785	19.13452
2.7855	14.40125
2.786	15.50903
2.7865	15.81116
2.787	4.53186
2.7875	4.93469
2.788	8.35876
2.7885	14.90479
2.789	6.74744
2.7895	17.82532
2.79	72.30835
2.7905	102.52075
2.791	109.4696
2.7915	105.54199
2.792	85.5011
2.7925	57.70569
2.793	29.00391
2.7935	-1.81274
2.794	-25.88196
2.7945	-44.21082
2.795	-54.58374
2.7955	-64.45312
2.796	-60.92834
2.7965	-67.07153
2.797	-67.8772
2.7975	-65.56091
2.798	-53.37524
2.7985	-40.78674
2.799	-25.78125
2.7995	-8.66089
2.8	8.25806
2.8005	17.52319
2.801	20.24231
2.8015	13.09204
2.802	7.5531
2.8025	-8.05664
2.803	-9.36584
2.8035	-9.46655
2.804	-15.81116
2.8045	-30.61523
2.805	-40.1825
2.8055	-39.67896
2.806	-44.11011
2.8065	-28.19824
2.807	-11.98425
2.8075	-5.94177
2.808	-7.25098
2.8085	-12.89062
2.809	-10.17151
2.8095	-11.58142
2.81	-13.09204
2.8105	-5.94177
2.811	11.07788
2.8115	14.70337
2.812	31.82373
2.8125	48.84338
2.813	53.67737
2.8135	59.71985
2.814	56.69861
2.8145	46.32568
2.815	33.53577
2.8155	28.39966
2.816	24.97559
2.8165	24.77417
2.817	13.797
2.8175	12.38708
2.818	24.47205
2.8185	51.5625
2.819	64.85596
2.8195	67.77649
2.82	60.3241
2.8205	46.12427
2.821	35.44922
2.8215	14.19983
2.822	2.21558
2.8225	-13.39417
2.823	-32.22656
2.8235	-53.67737
2.824	-58.00781
2.8245	-54.18091
2.825	-56.09436
2.8255	-46.5271
2.826	5.23682
2.8265	41.79382
2.827	56.39648
2.8275	58.10852
2.828	43.90869
2.8285	41.89453
2.829	40.48462
2.8295	30.81665
2.83	18.73169
2.8305	-9.06372
2.831	-22.6593
2.8315	-34.94568
2.832	-36.65771
2.8325	-20.44373
2.833	-20.1416
2.8335	-24.37134
2.834	-18.22815
2.8345	-11.48071
2.835	-5.23682
2.8355	-5.53894
2.836	-5.63965
2.8365	10.47363
2.837	73.41614
2.8375	114.80713
2.838	122.36023
2.8385	105.84412
2.839	84.49402
2.8395	60.62622
2.84	32.7301
2.8405	8.15735
2.841	-19.73877
2.8415	-35.95276
2.842	-54.88586
2.8425	-60.92834
2.843	-69.08569
2.8435	-72.81189
2.844	-55.99365
2.8445	-23.16284
2.845	4.02832
2.8455	8.45947
2.846	10.27222
2.8465	9.06372
2.847	1.91345
2.8475	-12.5885
2.848	-19.83948
2.8485	-34.64355
2.849	-41.79382
2.8495	-32.22656
2.85	-31.11877
2.8505	-28.39966
2.851	-21.85364
2.8515	-18.32886
2.852	-14.60266
2.8525	-7.25098
2.853	-2.11487
2.8535	3.12195
2.854	1.2085
2.8545	12.99133
2.855	27.39258
2.8555	65.3595
2.856	126.48926
2.8565	142.099
2.857	139.68201
2.8575	132.63245
2.858	113.09509
2.8585	66.76941
2.859	17.52319
2.8595	-28.9032
2.86	-74.32251
2.8605	-103.52783
2.861	-122.76306
2.8615	-134.64661
2.862	-141.79688
2.8625	-131.62537
2.863	-112.89368
2.8635	-93.45703
2.864	-66.36658
2.8645	-48.54126
2.865	-34.54285
2.8655	-23.96851
2.866	-17.6239
2.8665	11.78284
2.867	41.29028
2.8675	46.32568
2.868	43.40515
2.8685	55.08728
2.869	64.35242
2.8695	71.7041
2.87	63.94958
2.8705	50.75684
2.871	45.92285
2.8715	39.98108
2.872	33.13293
2.8725	26.18408
2.873	14.09912
2.8735	13.09204
2.874	-0.70496
2.8745	-9.76868
2.875	-19.43665
2.8755	-17.22107
2.876	-10.47363
2.8765	-4.43115
2.877	-1.61133
2.8775	-1.00708
2.878	-7.25098
2.8785	-7.75452
2.879	0.30212
2.8795	-2.31628
2.88	-2.01416
2.8805	-0.50354
2.881	2.11487
2.8815	-5.84106
2.882	0.20142
2.8825	-6.44531
2.883	5.63965
2.8835	14.80408
2.884	27.29187
2.8845	26.78833
2.885	17.22107
2.8855	9.36584
2.886	15.30762
2.8865	19.73877
2.887	25.07629
2.8875	25.68054
2.888	29.50745
2.8885	25.27771
2.889	11.17859
2.8895	3.52478
2.89	-11.58142
2.8905	-38.87329
2.891	-40.38391
2.8915	-49.0448
2.892	-40.98816
2.8925	-22.25647
2.893	-10.37292
2.8935	-2.81982
2.894	6.3446
2.8945	9.86938
2.895	12.28638
2.8955	14.70337
2.896	14.60266
2.8965	11.68213
2.897	11.07788
2.8975	9.97009
2.898	19.53735
2.8985	29.10461
2.899	48.13843
2.8995	46.12427
2.9	26.3855
2.9005	23.06213
2.901	12.28638
2.9015	10.57434
2.902	18.53027
2.9025	22.6593
2.903	19.53735
2.9035	41.4917
2.904	55.79224
2.9045	69.38782
2.905	68.78357
2.9055	55.79224
2.906	28.09753
2.9065	2.61841
2.907	-13.39417
2.9075	-39.07471
2.908	-56.49719
2.9085	-72.30835
2.909	-77.24304
2.9095	-79.76074
2.91	-79.66003
2.9105	-65.76233
2.911	-56.79932
2.9115	-48.84338
2.912	-38.16833
2.9125	-18.8324
2.913	17.12036
2.9135	44.61365
2.914	66.6687
2.9145	85.5011
2.915	96.17615
2.9155	92.65137
2.916	72.81189
2.9165	47.93701
2.917	30.71594
2.9175	3.32336
2.918	-16.81824
2.9185	-36.65771
2.919	-52.771
2.9195	-47.03064
2.92	-42.49878
2.9205	2.5177
2.921	52.771
2.9215	83.58765
2.922	118.13049
2.9225	163.4491
2.923	176.74255
2.9235	154.38538
2.924	106.8512
2.9245	51.15967
2.925	9.16443
2.9255	-26.18408
2.926	-55.99365
2.9265	-86.50818
2.927	-113.29651
2.9275	-113.49792
2.928	-103.125
2.9285	-90.43579
2.929	-78.45154
2.9295	-59.31702
2.93	-40.98816
2.9305	-21.45081
2.931	-8.45947
2.9315	4.53186
2.932	-2.41699
2.9325	-11.2793
2.933	-18.53027
2.9335	-10.47363
2.934	19.03381
2.9345	77.24304
2.935	109.3689
2.9355	118.43262
2.936	99.49951
2.9365	68.17932
2.937	41.08887
2.9375	-0.90637
2.938	-39.37683
2.9385	-63.94958
2.939	-80.16357
2.9395	-90.13367
2.94	-93.45703
2.9405	-85.60181
2.941	-72.9126
2.9415	-72.9126
2.942	-59.61914
2.9425	-56.90002
2.943	-48.33984
2.9435	-34.54285
2.944	-25.27771
2.9445	-22.25647
2.945	-16.61682
2.9455	-1.3092
2.946	8.25806
2.9465	15.71045
2.947	31.32019
2.9475	42.39807
2.948	43.10303
2.9485	36.25488
2.949	30.71594
2.9495	24.77417
2.95	22.25647
2.9505	28.60107
2.951	41.08887
2.9515	55.08728
2.952	54.48303
2.9525	48.74268
2.953	37.96692
2.9535	28.50037
2.954	16.71753
2.9545	18.42957
2.955	14.40125
2.9555	14.40125
2.956	13.69629
2.9565	9.97009
2.957	13.29346
2.9575	10.57434
2.958	9.36584
2.9585	4.73328
2.959	5.0354
2.9595	20.24231
2.96	47.43347
2.9605	53.47595
2.961	56.69861
2.9615	54.98657
2.962	46.62781
2.9625	29.80957
2.963	16.11328
2.9635	-0.70496
2.964	-21.55151
2.9645	-37.26196
2.965	-43.80798
2.9655	-50.75684
2.966	-51.86462
2.9665	-44.71436
2.967	-36.85913
2.9675	-30.91736
2.968	-25.57983
2.9685	-15.91187
2.969	-13.19275
2.9695	-9.26514
2.97	-11.17859
2.9705	3.32336
2.971	20.44373
2.9715	28.80249
2.972	38.974
2.9725	68.78357
2.973	77.14233
2.9735	68.17932
2.974	46.72852
2.9745	24.87488
2.975	-9.66797
2.9755	-31.62231
2.976	-59.21631
2.9765	-78.45154
2.977	-92.65137
2.9775	-88.82446
2.978	-79.86145
2.9785	-70.89844
2.979	-61.23047
2.9795	-50.354
2.98	-39.77966
2.9805	-31.52161
2.981	-23.96851
2.9815	-14.40125
2.982	-6.3446
2.9825	8.05664
2.983	32.12585
2.9835	35.04639
2.984	28.39966
2.9845	27.19116
2.985	31.62231
2.9855	31.01807
2.986	29.20532
2.9865	24.06921
2.987	24.37134
2.9875	27.59399
2.988	37.66479
2.9885	66.36658
2.989	87.41455
2.9895	96.67969
2.99	84.49402
2.9905	69.48853
2.991	52.46887
2.9915	32.62939
2.992	13.29346
2.9925	3.02124
2.993	-12.48779
2.9935	63.14392
2.994	141.29333
2.9945	181.87866
2.995	182.98645
2.9955	141.09192
2.996	76.7395
2.9965	3.92761
2.997	-84.99756
2.9975	-162.74414
2.998	-218.73779
2.9985	-241.59851
2.999	-241.09497
2.9995	-237.16736
3	-218.53638
3.0005	-187.11548
3.001	-134.34448
3.0015	-76.63879
3.002	-34.34143
3.0025	-0.90637
3.003	33.03223
3.0035	53.27454
3.004	70.3949
3.0045	59.01489
3.005	46.32568
3.0055	55.79224
3.006	84.99756
3.0065	96.8811
3.007	77.24304
3.0075	56.29578
3.008	40.68604
3.0085	27.99683
3.009	15.50903
3.0095	14.60266
3.01	4.33044
3.0105	-6.64673
3.011	-2.5177
3.0115	7.95593
3.012	25.47913
3.0125	34.94568
3.013	29.60815
3.0135	20.24231
3.014	12.48779
3.0145	14.70337
3.015	5.84106
3.0155	7.75452
3.016	12.99133
3.0165	10.17151
3.017	11.68213
3.0175	17.12036
3.018	22.05505
3.0185	29.91028
3.019	27.49329
3.0195	26.58691
3.02	20.74585
3.0205	17.32178
3.021	8.8623
3.0215	12.78992
3.022	10.47363
3.0225	5.74036
3.023	-3.32336
3.0235	-16.41541
3.024	-19.83948
3.0245	-24.27063
3.025	-28.29895
3.0255	-21.45081
3.026	-14.70337
3.0265	-16.81824
3.027	-13.09204
3.0275	-4.73328
3.028	-0.40283
3.0285	7.04956
3.029	15.1062
3.0295	14.90479
3.03	9.46655
3.0305	6.3446
3.031	4.93469
3.0315	3.02124
3.032	-0.50354
3.0325	3.52478
3.033	1.00708
3.0335	-0.10071
3.034	10.0708
3.0345	37.36267
3.035	54.0802
3.0355	65.96375
3.036	82.88269
3.0365	84.2926
3.037	94.46411
3.0375	97.98889
3.038	98.49243
3.0385	100.6073
3.039	76.33667
3.0395	38.77258
3.04	3.7262
3.0405	-39.27612
3.041	-78.14941
3.0415	-114.70642
3.042	-155.59387
3.0425	-179.96521
3.043	-189.83459
3.0435	-167.47742
3.044	-88.82446
3.0445	-35.65063
3.045	4.53186
3.0455	27.6947
3.046	42.19666
3.0465	33.03223
3.047	27.79541
3.0475	20.34302
3.048	9.86938
3.0485	13.99841
3.049	22.55859
3.0495	21.04797
3.05	18.63098
3.0505	8.45947
3.051	7.04956
3.0515	7.04956
3.052	8.35876
3.0525	-4.12903
3.053	-5.43823
3.0535	0.90637
3.054	18.93311
3.0545	22.15576
3.055	22.25647
3.0555	34.03931
3.056	41.69312
3.0565	28.29895
3.057	10.57434
3.0575	13.59558
3.058	21.14868
3.0585	30.2124
3.059	27.59399
3.0595	25.07629
3.06	26.18408
3.0605	25.88196
3.061	17.92603
3.0615	5.43823
3.062	8.8623
3.0625	4.02832
3.063	-0.40283
3.0635	-0.40283
3.064	6.04248
3.0645	11.17859
3.065	18.32886
3.0655	18.22815
3.066	15.81116
3.0665	17.6239
3.067	18.73169
3.0675	13.49487
3.068	14.80408
3.0685	16.01257
3.069	12.89062
3.0695	10.57434
3.07	10.17151
3.0705	11.78284
3.071	11.58142
3.0715	12.08496
3.072	26.98975
3.0725	42.19666
3.073	45.82214
3.0735	43.60657
3.074	30.71594
3.0745	4.43115
3.075	-12.5885
3.0755	-23.96851
3.076	-31.01807
3.0765	-33.23364
3.077	-37.16125
3.0775	-45.72144
3.078	-49.0448
3.0785	-39.88037
3.079	-37.96692
3.0795	-39.77966
3.08	-35.95276
3.0805	-39.07471
3.081	-52.36816
3.0815	-42.8009
3.082	-17.92603
3.0825	-6.44531
3.083	-8.05664
3.0835	39.88037
3.084	66.97083
3.0845	69.38782
3.085	50.75684
3.0855	22.55859
3.086	-7.65381
3.0865	-23.96851
3.087	-38.26904
3.0875	-45.11719
3.088	-43.50586
3.0885	-37.96692
3.089	-27.49329
3.0895	-10.87646
3.09	-1.00708
3.0905	18.63098
3.091	20.94727
3.0915	18.73169
3.092	11.78284
3.0925	0.30212
3.093	3.92761
3.0935	8.8623
3.094	-0.80566
3.0945	-16.91895
3.095	-22.45789
3.0955	-22.55859
3.096	-14.90479
3.0965	-3.92761
3.097	10.37292
3.0975	30.71594
3.098	49.0448
3.0985	60.82764
3.099	90.43579
3.0995	136.86218
3.1	138.97705
3.1005	127.19421
3.101	92.34924
3.1015	48.64197
3.102	18.8324
3.1025	-11.78284
3.103	-36.05347
3.1035	-57.40356
3.104	-71.30127
3.1045	-60.62622
3.105	-57.8064
3.1055	-58.20923
3.106	-42.59949
3.1065	-19.13452
3.107	-1.3092
3.1075	14.19983
3.108	24.47205
3.1085	27.99683
3.109	48.84338
3.1095	55.99365
3.11	52.97241
3.1105	42.8009
3.111	36.95984
3.1115	34.94568
3.112	19.83948
3.1125	9.76868
3.113	11.58142
3.1135	12.18567
3.114	14.90479
3.1145	15.40833
3.115	12.99133
3.1155	36.65771
3.116	88.22021
3.1165	115.91492
3.117	107.65686
3.1175	83.08411
3.118	46.72852
3.1185	13.59558
3.119	-17.12036
3.1195	-48.84338
3.12	-72.81189
3.1205	-86.60889
3.121	-79.35791
3.1215	-75.4303
3.122	-47.63489
3.1225	-15.30762
3.123	-9.56726
3.1235	0.50354
3.124	-6.64673
3.1245	-20.94727
3.125	-45.62073
3.1255	-72.00623
3.126	-95.47119
3.1265	-101.01013
3.127	-104.73633
3.1275	-78.04871
3.128	-48.54126
3.1285	-39.37683
3.129	-24.57275
3.1295	-20.1416
3.13	-4.02832
3.1305	2.92053
3.131	17.12036
3.1315	29.10461
3.132	43.90869
3.1325	48.03772
3.133	45.3186
3.1335	38.67188
3.134	37.36267
3.1345	46.32568
3.135	38.16833
3.1355	21.24939
3.136	25.88196
3.1365	16.3147
3.137	21.14868
3.1375	15.00549
3.138	9.56726
3.1385	12.5885
3.139	14.30054
3.1395	16.71753
3.14	22.35718
3.1405	27.89612
3.141	31.92444
3.1415	25.78125
3.142	21.85364
3.1425	20.34302
3.143	20.1416
3.1435	20.34302
3.144	15.60974
3.1445	12.48779
3.145	9.97009
3.1455	9.97009
3.146	6.14319
3.1465	0.40283
3.147	25.88196
3.1475	36.35559
3.148	24.06921
3.1485	22.25647
3.149	27.39258
3.1495	20.44373
3.15	-7.45239
3.1505	-24.97559
3.151	-38.26904
3.1515	-54.28162
3.152	-53.97949
3.1525	-55.79224
3.153	-74.42322
3.1535	-81.37207
3.154	-84.59473
3.1545	-81.27136
3.155	-76.63879
3.1555	-73.91968
3.156	-64.25171
3.1565	-31.52161
3.157	22.45789
3.1575	43.30444
3.158	37.7655
3.1585	27.6947
3.159	36.75842
3.1595	44.31152
3.16	52.36816
3.1605	91.745
3.161	119.23828
3.1615	95.77332
3.162	44.71436
3.1625	-13.39417
3.163	-62.03613
3.1635	-110.17456
3.164	-154.08325
3.1645	-159.62219
3.165	-152.27051
3.1655	-135.45227
3.166	-106.54907
3.1665	-80.76782
3.167	-55.08728
3.1675	-18.93311
3.168	43.40515
3.1685	98.29102
3.169	131.62537
3.1695	146.53015
3.17	146.32874
3.1705	154.78821
3.171	156.19812
3.1715	145.8252
3.172	126.58997
3.1725	108.66394
3.173	91.745
3.1735	85.29968
3.174	73.51685
3.1745	54.48303
3.175	46.32568
3.1755	42.49878
3.176	33.23364
3.1765	22.76001
3.177	11.98425
3.1775	-1.40991
3.178	-2.61841
3.1785	-1.10779
3.179	-12.5885
3.1795	-25.27771
3.18	-35.95276
3.1805	-56.39648
3.181	-58.00781
3.1815	-25.47913
3.182	-0.10071
3.1825	4.93469
3.183	2.92053
3.1835	-11.17859
3.184	-26.28479
3.1845	-51.96533
3.185	-72.50977
3.1855	-93.25562
3.186	-94.46411
3.1865	-91.24146
3.187	-97.18323
3.1875	-70.79773
3.188	-11.88354
3.1885	57.60498
3.189	116.41846
3.1895	153.27759
3.19	172.41211
3.1905	170.80078
3.191	151.66626
3.1915	125.58289
3.192	103.52783
3.1925	76.03455
3.193	43.00232
3.1935	23.46497
3.194	2.81982
3.1945	-10.57434
3.195	-18.22815
3.1955	-22.45789
3.196	-33.63647
3.1965	-45.3186
3.197	-57.60498
3.1975	-61.43188
3.198	-58.00781
3.1985	-48.23914
3.199	-49.0448
3.1995	-41.89453
3.2	-43.00232
3.2005	-54.0802
3.201	-51.46179
3.2015	-48.54126
3.202	-55.2887
3.2025	-59.31702
3.203	-62.74109
3.2035	-67.97791
3.204	-30.01099
3.2045	63.74817
3.205	106.9519
3.2055	86.70959
3.206	31.32019
3.2065	-15.20691
3.207	-57.30286
3.2075	-97.08252
3.208	-127.49634
3.2085	-157.40662
3.209	-171.80786
3.2095	-162.34131
3.21	-150.75989
3.2105	-124.97864
3.211	-96.47827
3.2115	-66.46729
3.212	-37.16125
3.2125	2.31628
3.213	46.92993
3.2135	91.44287
3.214	128.40271
3.2145	122.05811
3.215	124.97864
3.2155	171.70715
3.216	205.74646
3.2165	191.94946
3.217	150.25635
3.2175	122.76306
3.218	101.21155
3.2185	73.21472
3.219	40.48462
3.2195	8.96301
3.22	-8.25806
3.2205	-31.72302
3.221	-44.61365
3.2215	-32.62939
3.222	31.52161
3.2225	92.75208
3.223	106.75049
3.2235	83.38623
3.224	47.93701
3.2245	-4.02832
3.225	-56.49719
3.2255	-112.59155
3.226	-169.7937
3.2265	-204.03442
3.227	-211.2854
3.2275	-217.32788
3.228	-193.46008
3.2285	-155.79529
3.229	-112.49084
3.2295	-91.04004
3.23	-90.5365
3.2305	-58.00781
3.231	-15.71045
3.2315	20.24231
3.232	30.71594
3.2325	16.11328
3.233	3.52478
3.2335	27.89612
3.234	55.49011
3.2345	66.36658
3.235	49.85046
3.2355	45.92285
3.236	68.58215
3.2365	125.38147
3.237	212.09106
3.2375	263.85498
3.238	251.26648
3.2385	211.88965
3.239	181.67725
3.2395	134.5459
3.24	105.03845
3.2405	70.59631
3.241	56.29578
3.2415	46.82922
3.242	24.47205
3.2425	2.5177
3.243	-8.05664
3.2435	-11.07788
3.244	-15.91187
3.2445	-12.89062
3.245	-10.37292
3.2455	-10.47363
3.246	-18.93311
3.2465	-12.48779
3.247	2.21558
3.2475	17.22107
3.248	16.71753
3.2485	18.22815
3.249	24.87488
3.2495	20.54443
3.25	2.81982
3.2505	-18.22815
3.251	-28.50037
3.2515	-35.65063
3.252	-33.63647
3.2525	-25.07629
3.253	-21.95435
3.2535	-15.30762
3.254	-8.15735
3.2545	-7.45239
3.255	-11.07788
3.2555	35.04639
3.256	73.71826
3.2565	66.16516
3.257	28.60107
3.2575	1.10779
3.258	23.16284
3.2585	48.44055
3.259	49.95117
3.2595	9.36584
3.26	-45.52002
3.2605	-82.37915
3.261	-96.8811
3.2615	-129.20837
3.262	-159.01794
3.2625	-165.9668
3.263	-165.16113
3.2635	-155.896
3.264	-139.17847
3.2645	-118.63403
3.265	-81.47278
3.2655	-39.77966
3.266	7.85522
3.2665	75.73242
3.267	119.23828
3.2675	132.43103
3.268	139.98413
3.2685	141.29333
3.269	117.92908
3.2695	74.2218
3.27	26.18408
3.2705	5.94177
3.271	6.44531
3.2715	9.76868
3.272	9.97009
3.2725	15.00549
3.273	12.99133
3.2735	22.86072
3.274	15.81116
3.2745	2.71912
3.275	-7.5531
3.2755	-14.70337
3.276	-19.83948
3.2765	-23.96851
3.277	-25.177
3.2775	-15.00549
3.278	3.7262
3.2785	34.14001
3.279	68.28003
3.2795	86.70959
3.28	77.24304
3.2805	58.30994
3.281	39.07471
3.2815	32.02515
3.282	15.20691
3.2825	15.60974
3.283	9.46655
3.2835	-10.77576
3.284	-20.54443
3.2845	-26.18408
3.285	-40.78674
3.2855	-48.44055
3.286	-54.98657
3.2865	-54.0802
3.287	-49.54834
3.2875	-51.46179
3.288	-47.93701
3.2885	-40.48462
3.289	-28.39966
3.2895	-22.6593
3.29	-4.12903
3.2905	46.42639
3.291	60.72693
3.2915	57.60498
3.292	39.77966
3.2925	10.47363
3.293	1.91345
3.2935	17.42249
3.294	10.27222
3.2945	-9.46655
3.295	-25.78125
3.2955	-39.67896
3.296	-5.94177
3.2965	10.77576
3.297	-12.5885
3.2975	-49.0448
3.298	-55.89294
3.2985	-47.43347
3.299	-44.91577
3.2995	-52.46887
3.3	-60.4248
3.3005	-57.20215
3.301	-47.7356
3.3015	-32.22656
3.302	-10.17151
3.3025	18.63098
3.303	73.41614
3.3035	114.70642
3.304	130.51758
3.3045	115.41138
3.305	88.22021
3.3055	65.05737
3.306	56.5979
3.3065	85.09827
3.307	101.31226
3.3075	113.59863
3.308	103.22571
3.3085	79.45862
3.309	41.29028
3.3095	-12.18567
3.31	-67.97791
3.3105	-97.28394
3.311	-110.6781
3.3115	-114.505
3.312	-114.30359
3.3125	-100.20447
3.313	-90.83862
3.3135	-86.30676
3.314	-65.3595
3.3145	-44.0094
3.315	-28.80249
3.3155	-16.01257
3.316	-18.53027
3.3165	-31.01807
3.317	-18.73169
3.3175	30.31311
3.318	99.49951
3.3185	137.46643
3.319	155.9967
3.3195	158.4137
3.32	171.50574
3.3205	148.3429
3.321	124.67651
3.3215	110.98022
3.322	73.11401
3.3225	33.33435
3.323	-19.43665
3.3235	-60.22339
3.324	-80.4657
3.3245	-26.08337
3.325	13.797
3.3255	14.40125
3.326	11.17859
3.3265	-3.32336
3.327	-35.85205
3.3275	-59.21631
3.328	-77.04163
3.3285	-85.90393
3.329	-87.31384
3.3295	-97.48535
3.33	-86.00464
3.3305	-52.771
3.331	-12.68921
3.3315	-2.92053
3.332	12.68921
3.3325	25.37842
3.333	39.88037
3.3335	47.7356
3.334	45.62073
3.3345	41.59241
3.335	35.75134
3.3355	27.99683
3.336	41.89453
3.3365	141.59546
3.337	254.58984
3.3375	276.74561
3.338	271.00525
3.3385	205.74646
3.339	102.52075
3.3395	-29.50745
3.34	-144.21387
3.3405	-241.09497
3.341	-300.91553
3.3415	-334.14917
3.342	-345.8313
3.3425	-290.5426
3.343	-200.0061
3.3435	-127.79846
3.344	-78.55225
3.3445	-18.63098
3.345	40.88745
3.3455	81.7749
3.346	94.06128
3.3465	85.5011
3.347	85.5011
3.3475	73.51685
3.348	65.05737
3.3485	69.99207
3.349	80.66711
3.3495	75.83313
3.35	56.09436
3.3505	43.60657
3.351	26.28479
3.3515	46.82922
3.352	84.09119
3.3525	90.43579
3.353	82.9834
3.3535	80.4657
3.354	67.37366
3.3545	41.79382
3.355	1.2085
3.3555	-29.40674
3.356	-50.05188
3.3565	-61.83472
3.357	-54.68445
3.3575	-29.60815
3.358	-33.63647
3.3585	8.8623
3.359	31.01807
3.3595	26.18408
3.36	-1.10779
3.3605	-51.5625
3.361	-70.3949
3.3615	13.797
3.362	65.76233
3.3625	47.23206
3.363	36.25488
3.3635	56.29578
3.364	57.10144
3.3645	46.32568
3.365	19.83948
3.3655	-42.49878
3.366	-107.95898
3.3665	-161.73706
3.367	-199.50256
3.3675	-238.87939
3.368	-243.20984
3.3685	-232.23267
3.369	-204.84009
3.3695	-169.69299
3.37	-128.70483
3.3705	-79.96216
3.371	-36.55701
3.3715	-0.20142
3.372	24.47205
3.3725	31.62231
3.373	52.46887
3.3735	65.46021
3.374	96.67969
3.3745	221.96045
3.375	384.40247
3.3755	448.55347
3.376	439.89258
3.3765	391.04919
3.377	312.29553
3.3775	193.56079
3.378	68.78357
3.3785	-58.51135
3.379	-154.18396
3.3795	-218.33496
3.38	-229.41284
3.3805	-157.00378
3.381	-33.03223
3.3815	38.06763
3.382	71.7041
3.3825	70.99915
3.383	45.92285
3.3835	25.78125
3.384	-4.43115
3.3845	-43.90869
3.385	-100.10376
3.3855	-117.42554
3.386	-113.09509
3.3865	-124.57581
3.387	-146.02661
3.3875	-135.15015
3.388	-107.05261
3.3885	-80.06287
3.389	-56.39648
3.3895	-38.26904
3.39	-36.15417
3.3905	-21.65222
3.391	36.85913
3.3915	87.01172
3.392	116.21704
3.3925	135.35156
3.393	141.09192
3.3935	89.02588
3.394	23.66638
3.3945	-8.56018
3.395	-6.54602
3.3955	111.08093
3.396	194.87
3.3965	235.45532
3.397	227.6001
3.3975	178.25317
3.398	99.3988
3.3985	13.19275
3.399	-82.78198
3.3995	-146.42944
3.4	-184.59778
3.4005	-199.40186
3.401	-204.73938
3.4015	-159.82361
3.402	-113.80005
3.4025	-59.61914
3.403	-10.0708
3.4035	15.1062
3.404	40.78674
3.4045	49.44763
3.405	35.95276
3.4055	8.45947
3.406	-51.05896
3.4065	-92.24854
3.407	-113.90076
3.4075	-120.84961
3.408	-118.2312
3.4085	-122.36023
3.409	-111.8866
3.4095	-74.52393
3.41	-49.54834
3.4105	-4.02832
3.411	24.27063
3.4115	36.95984
3.412	62.13684
3.4125	86.50818
3.413	127.69775
3.4135	145.42236
3.414	147.43652
3.4145	114.80713
3.415	87.01172
3.4155	56.79932
3.416	38.06763
3.4165	100.20447
3.417	144.71741
3.4175	153.17688
3.418	127.69775
3.4185	139.78271
3.419	134.14307
3.4195	111.08093
3.42	84.79614
3.4205	21.65222
3.421	-69.68994
3.4215	-147.03369
3.422	-191.94946
3.4225	-240.49072
3.423	-271.91162
3.4235	-277.9541
3.424	-254.58984
3.4245	-224.17603
3.425	-155.09033
3.4255	-66.6687
3.426	4.73328
3.4265	36.55701
3.427	59.82056
3.4275	75.4303
3.428	96.37756
3.4285	93.55774
3.429	86.70959
3.4295	88.72375
3.43	97.38464
3.4305	109.57031
3.431	119.03687
3.4315	115.61279
3.432	107.75757
3.4325	92.55066
3.433	80.56641
3.4335	50.354
3.434	10.0708
3.4345	-0.50354
3.435	86.20605
3.4355	234.04541
3.436	301.62048
3.4365	284.70154
3.437	230.72205
3.4375	244.72046
3.438	186.61194
3.4385	62.23755
3.439	-56.69861
3.4395	-149.24927
3.44	-228.70789
3.4405	-279.86755
3.441	-305.74951
3.4415	-299.70703
3.442	-271.71021
3.4425	-204.23584
3.443	-97.18323
3.4435	-4.33044
3.444	44.61365
3.4445	66.06445
3.445	63.74817
3.4455	57.50427
3.446	57.9071
3.4465	85.5011
3.447	118.2312
3.4475	110.47668
3.448	85.09827
3.4485	65.76233
3.449	46.5271
3.4495	64.75525
3.45	59.51843
3.4505	51.15967
3.451	40.08179
3.4515	23.96851
3.452	8.56018
3.4525	5.0354
3.453	-5.53894
3.4535	-24.57275
3.454	11.2793
3.4545	108.96606
3.455	166.26892
3.4555	181.47583
3.456	153.17688
3.4565	106.34766
3.457	50.2533
3.4575	19.23523
3.458	-34.94568
3.4585	-100.6073
3.459	-166.57104
3.4595	-185.50415
3.46	-99.60022
3.4605	-47.33276
3.461	-30.11169
3.4615	-58.30994
3.462	-107.25403
3.4625	-117.02271
3.463	-25.57983
3.4635	45.11719
3.464	12.48779
3.4645	-69.28711
3.465	-150.05493
3.4655	-179.15955
3.466	-206.55212
3.4665	-240.59143
3.467	-230.1178
3.4675	-184.8999
3.468	-126.58997
3.4685	-67.77649
3.469	26.08337
3.4695	84.69543
3.47	93.45703
3.4705	82.37915
3.471	87.91809
3.4715	61.73401
3.472	39.07471
3.4725	-10.27222
3.473	-13.59558
3.4735	55.99365
3.474	191.44592
3.4745	371.51184
3.475	414.91699
3.4755	355.39856
3.476	264.35852
3.4765	150.8606
3.477	34.84497
3.4775	-76.94092
3.478	-158.31299
3.4785	-204.9408
3.479	-241.19568
3.4795	-246.93604
3.48	-217.63
3.4805	-14.50195
3.481	368.4906
3.4815	674.44153
3.482	776.55945
3.4825	754.70581
3.483	626.70593
3.4835	423.17505
3.484	143.50891
3.4845	-119.33899
3.485	-300.5127
3.4855	-404.64478
3.486	-457.31506
3.4865	-473.93188
3.487	-463.96179
3.4875	-412.29858
3.488	-335.15625
3.4885	-263.25073
3.489	-168.88733
3.4895	-112.28943
3.49	-72.61047
3.4905	-67.77649
3.491	-77.04163
3.4915	-77.44446
3.492	-58.81348
3.4925	-30.71594
3.493	8.25806
3.4935	58.10852
3.494	71.50269
3.4945	65.15808
3.495	76.53809
3.4955	97.78748
3.496	86.8103
3.4965	108.36182
3.497	235.85815
3.4975	293.16101
3.498	278.96118
3.4985	197.79053
3.499	78.14941
3.4995	-45.2179
3.5	-157.00378
3.5005	-227.19727
3.501	-266.27197
3.5015	-265.86914
3.502	-192.453
3.5025	-94.76624
3.503	-38.87329
3.5035	-13.797
3.504	32.83081
3.5045	155.49316
3.505	346.43555
3.5055	470.91064
3.506	484.80835
3.5065	391.45203
3.507	192.453
3.5075	-5.23682
3.508	-154.08325
3.5085	-286.41357
3.509	-383.39539
3.5095	-421.3623
3.51	-404.04053
3.5105	-350.56458
3.511	-274.1272
3.5115	-206.25
3.512	-130.41687
3.5125	-43.80798
3.513	23.76709
3.5135	70.49561
3.514	81.87561
3.5145	87.51526
3.515	93.0542
3.5155	134.04236
3.516	201.71814
3.5165	222.36328
3.517	195.67566
3.5175	217.73071
3.518	319.14368
3.5185	381.98547
3.519	386.92017
3.5195	342.00439
3.52	244.21692
3.5205	117.42554
3.521	-25.68054
3.5215	-136.15723
3.522	-210.0769
3.5225	-238.57727
3.523	-259.22241
3.5235	-261.5387
3.524	-218.23425
3.5245	-157.60803
3.525	-110.6781
3.5255	-97.08252
3.526	-91.54358
3.5265	-80.76782
3.527	-82.47986
3.5275	-109.77173
3.528	-80.96924
3.5285	-38.57117
3.529	27.6947
3.5295	56.09436
3.53	36.35559
3.5305	4.73328
3.531	-46.82922
3.5315	-27.39258
3.532	104.93774
3.5325	221.65833
3.533	266.77551
3.5335	254.89197
3.534	184.29565
3.5345	86.91101
3.535	45.92285
3.5355	13.99841
3.536	-14.60266
3.5365	-26.78833
3.537	-39.37683
3.5375	-56.29578
3.538	-61.53259
3.5385	-54.98657
3.539	-36.35559
3.5395	-12.38708
3.54	2.41699
3.5405	6.3446
3.541	-4.33044
3.5415	-36.55701
3.542	-49.34692
3.5425	15.81116
3.543	72.9126
3.5435	121.35315
3.544	115.91492
3.5445	64.45312
3.545	16.61682
3.5455	-11.88354
3.546	-41.18958
3.5465	-76.43738
3.547	-112.69226
3.5475	-89.83154
3.548	56.79932
3.5485	236.56311
3.549	289.2334
3.5495	271.50879
3.55	184.79919
3.5505	51.86462
3.551	-77.14233
3.5515	-188.52539
3.552	-256.70471
3.5525	-173.11707
3.553	-51.15967
3.5535	85.70251
3.554	259.62524
3.5545	342.50793
3.555	330.92651
3.5555	245.62683
3.556	64.25171
3.5565	-148.54431
3.557	-331.93359
3.5575	-468.69507
3.558	-541.00342
3.5585	-522.37244
3.559	-449.35913
3.5595	-365.9729
3.56	-254.69055
3.5605	-118.02979
3.561	1.40991
3.5615	82.58057
3.562	129.5105
3.5625	136.96289
3.563	152.27051
3.5635	165.76538
3.564	151.66626
3.5645	101.11084
3.565	57.00073
3.5655	26.18408
3.566	6.04248
3.5665	26.48621
3.567	95.77332
3.5675	248.24524
3.568	326.69678
3.5685	347.1405
3.569	335.35767
3.5695	249.85657
3.57	144.71741
3.5705	44.11011
3.571	-60.72693
3.5715	-102.92358
3.572	-88.52234
3.5725	-8.45947
3.573	148.24219
3.5735	261.6394
3.574	313.70544
3.5745	321.56067
3.575	264.76135
3.5755	165.26184
3.576	37.56409
3.5765	-136.56006
3.577	-299.90845
3.5775	-385.51025
3.578	-396.38672
3.5785	-203.83301
3.579	79.86145
3.5795	225.88806
3.58	218.13354
3.5805	113.49792
3.581	-59.01489
3.5815	-210.47974
3.582	-320.25146
3.5825	-341.60156
3.583	-277.85339
3.5835	-109.06677
3.584	-12.78992
3.5845	25.78125
3.585	15.30762
3.5855	-12.08496
3.586	-17.01965
3.5865	40.88745
3.587	65.46021
3.5875	33.83789
3.588	-28.29895
3.5885	-87.71667
3.589	-137.56714
3.5895	-144.01245
3.59	-123.77014
3.5905	-110.98022
3.591	-103.02429
3.5915	-92.95349
3.592	-67.77649
3.5925	-59.82056
3.593	-35.54993
3.5935	-15.81116
3.594	15.40833
3.5945	28.9032
3.595	20.44373
3.5955	5.94177
3.596	0.80566
3.5965	9.46655
3.597	30.91736
3.5975	42.29736
3.598	44.0094
3.5985	41.39099
3.599	40.68604
3.5995	33.83789
3.6	34.74426
3.6005	67.8772
3.601	88.72375
3.6015	85.09827
3.602	69.68994
3.6025	49.85046
3.603	119.74182
3.6035	172.81494
3.604	157.80945
3.6045	89.12659
3.605	0.70496
3.6055	-61.93542
3.606	-100.20447
3.6065	-90.33508
3.607	-97.58606
3.6075	-86.60889
3.608	-52.26746
3.6085	-27.49329
3.609	-22.55859
3.6095	-16.01257
3.61	-55.49011
3.6105	-88.22021
3.611	-101.31226
3.6115	-106.14624
3.612	-83.78906
3.6125	-53.87878
3.613	-17.92603
3.6135	9.86938
3.614	74.62463
3.6145	123.77014
3.615	154.18396
3.6155	140.58838
3.616	120.34607
3.6165	123.56873
3.617	104.93774
3.6175	87.91809
3.618	72.9126
3.6185	51.66321
3.619	31.32019
3.6195	74.92676
3.62	236.05957
3.6205	406.45752
3.621	450.97046
3.6215	390.04211
3.622	264.0564
3.6225	141.19263
3.623	2.01416
3.6235	-169.59229
3.624	-253.07922
3.6245	-304.44031
3.625	-303.23181
3.6255	-301.01624
3.626	-282.38525
3.6265	-240.79285
3.627	-185.90698
3.6275	-169.89441
3.628	-189.12964
3.6285	-183.89282
3.629	-141.69617
3.6295	-120.54749
3.63	-85.29968
3.6305	-13.39417
3.631	86.60889
3.6315	150.8606
3.632	150.8606
3.6325	102.31934
3.633	48.23914
3.6335	-3.32336
3.634	-47.13135
3.6345	-10.17151
3.635	51.66321
3.6355	171.60645
3.636	338.37891
3.6365	418.94531
3.637	535.06165
3.6375	592.86804
3.638	629.22363
3.6385	544.12537
3.639	313.70544
3.6395	29.20532
3.64	-211.2854
3.6405	-427.20337
3.641	-590.95459
3.6415	-680.78613
3.642	-690.65552
3.6425	-636.47461
3.643	-560.54077
3.6435	-473.93188
3.644	-354.89502
3.6445	-240.28931
3.645	-144.11316
3.6455	-19.33594
3.646	108.86536
3.6465	223.97461
3.647	330.62439
3.6475	342.40723
3.648	287.21924
3.6485	201.51672
3.649	113.90076
3.6495	44.11011
3.65	-11.98425
3.6505	-54.18091
3.651	-79.86145
3.6515	-92.44995
3.652	-66.6687
3.6525	-29.00391
3.653	64.75525
3.6535	192.55371
3.654	235.55603
3.6545	239.98718
3.655	269.49463
3.6555	278.05481
3.656	226.49231
3.6565	126.9928
3.657	41.59241
3.6575	-28.60107
3.658	-108.86536
3.6585	-151.86768
3.659	-151.56555
3.6595	-108.66394
3.66	-66.6687
3.6605	-44.41223
3.661	-47.33276
3.6615	-45.01648
3.662	-33.33435
3.6625	-32.62939
3.663	-21.65222
3.6635	-8.56018
3.664	-9.97009
3.6645	14.90479
3.665	48.44055
3.6655	53.17383
3.666	2.21558
3.6665	-26.98975
3.667	-8.45947
3.6675	14.30054
3.668	10.87646
3.6685	24.77417
3.669	78.95508
3.6695	62.43896
3.67	11.68213
3.6705	9.76868
3.671	159.7229
3.6715	228.60718
3.672	177.04468
3.6725	79.15649
3.673	-72.10693
3.6735	-207.86133
3.674	-305.24597
3.6745	-321.05713
3.675	-278.35693
3.6755	-205.34363
3.676	-169.08875
3.6765	-129.20837
3.677	-51.86462
3.6775	45.01648
3.678	95.37048
3.6785	128.10059
3.679	164.25476
3.6795	161.13281
3.68	108.66394
3.6805	68.48145
3.681	72.40906
3.6815	105.6427
3.682	110.47668
3.6825	70.3949
3.683	53.67737
3.6835	71.7041
3.684	65.15808
3.6845	52.67029
3.685	36.85913
3.6855	158.81653
3.686	283.69446
3.6865	346.43555
3.687	329.11377
3.6875	237.87231
3.688	89.73083
3.6885	-67.57507
3.689	-199.70398
3.6895	-248.54736
3.69	-153.479
3.6905	-35.95276
3.691	7.65381
3.6915	55.49011
3.692	72.9126
3.6925	100.10376
3.693	191.24451
3.6935	206.95496
3.694	110.87952
3.6945	-55.69153
3.695	-235.95886
3.6955	-316.02173
3.696	-316.22314
3.6965	-267.37976
3.697	-228.80859
3.6975	-230.72205
3.698	-236.96594
3.6985	-247.54028
3.699	-236.36169
3.6995	-198.29407
3.7	-143.71033
3.7005	-99.70093
3.701	-59.21631
3.7015	-38.36975
3.702	-28.50037
3.7025	20.84656
3.703	108.96606
3.7035	132.83386
3.704	123.06519
3.7045	247.03674
3.705	492.26074
3.7055	661.65161
3.706	845.74585
3.7065	1073.14453
3.707	1009.09424
3.7075	702.53906
3.708	334.75342
3.7085	-9.16443
3.709	-336.96899
3.7095	-580.78308
3.71	-771.32263
3.7105	-857.62939
3.711	-850.78125
3.7115	-772.43042
3.712	-645.73975
3.7125	-494.2749
3.713	-308.97217
3.7135	-177.3468
3.714	-66.76941
3.7145	5.33752
3.715	69.28711
3.7155	125.7843
3.716	118.53333
3.7165	50.85754
3.717	14.30054
3.7175	25.68054
3.718	25.47913
3.7185	-12.08496
3.719	-21.04797
3.7195	-44.21082
3.72	-61.93542
3.7205	-71.20056
3.721	-60.02197
3.7215	-37.16125
3.722	-4.02832
3.7225	32.83081
3.723	91.745
3.7235	124.17297
3.724	119.74182
3.7245	75.53101
3.725	40.38391
3.7255	17.6239
3.726	-0.90637
3.7265	8.25806
3.727	39.57825
3.7275	50.354
3.728	98.79456
3.7285	162.94556
3.729	208.96912
3.7295	317.23022
3.73	521.76819
3.7305	627.31018
3.731	601.22681
3.7315	534.86023
3.732	338.98315
3.7325	79.96216
3.733	-169.99512
3.7335	-306.45447
3.734	-268.58826
3.7345	-115.10925
3.735	133.53882
3.7355	247.84241
3.736	178.95813
3.7365	19.23523
3.737	-133.03528
3.7375	-240.28931
3.738	-361.84387
3.7385	-528.31421
3.739	-600.92468
3.7395	-513.1073
3.74	-351.97449
3.7405	-256.5033
3.741	-253.78418
3.7415	-198.39478
3.742	-84.59473
3.7425	-41.08887
3.743	-21.95435
3.7435	17.92603
3.744	78.55225
3.7445	114.30359
3.745	122.05811
3.7455	131.12183
3.746	154.38538
3.7465	180.77087
3.747	165.86609
3.7475	136.56006
3.748	66.46729
3.7485	4.53186
3.749	49.24622
3.7495	316.62598
3.75	541.60767
3.7505	750.07324
3.751	840.1062
3.7515	866.69312
3.752	856.01807
3.7525	631.84204
3.753	307.15942
3.7535	-71.60339
3.754	-405.85327
3.7545	-666.5863
3.755	-830.23682
3.7555	-907.88269
3.756	-912.71667
3.7565	-819.25964
3.757	-658.9325
3.7575	-487.32605
3.758	-372.72034
3.7585	-278.05481
3.759	-170.29724
3.7595	-116.72058
3.76	-49.34692
3.7605	13.29346
3.761	49.14551
3.7615	82.07703
3.762	116.31775
3.7625	136.96289
3.763	155.09033
3.7635	139.37988
3.764	114.4043
3.7645	76.13525
3.765	50.45471
3.7655	40.98816
3.766	26.18408
3.7665	11.78284
3.767	1.10779
3.7675	3.02124
3.768	4.73328
3.7685	11.88354
3.769	67.57507
3.7695	192.15088
3.77	268.89038
3.7705	285.40649
3.771	267.78259
3.7715	227.39868
3.772	210.78186
3.7725	153.27759
3.773	63.64746
3.7735	-46.42639
3.774	-140.18555
3.7745	-222.06116
3.775	-291.85181
3.7755	-293.0603
3.776	-268.89038
3.7765	-233.44116
3.777	-216.52222
3.7775	-208.56628
3.778	92.95349
3.7785	429.21753
3.779	620.0592
3.7795	685.51941
3.78	562.85706
3.7805	270.90454
3.781	-30.41382
3.7815	-238.37585
3.782	-371.10901
3.7825	-441.50391
3.783	-412.70142
3.7835	-307.56226
3.784	-223.37036
3.7845	-142.50183
3.785	-97.58606
3.7855	-70.49561
3.786	-82.27844
3.7865	-59.21631
3.787	-30.61523
3.7875	-27.79541
3.788	-12.28638
3.7885	20.64514
3.789	59.1156
3.7895	140.8905
3.79	290.74402
3.7905	406.55823
3.791	403.83911
3.7915	379.56848
3.792	390.14282
3.7925	321.56067
3.793	226.08948
3.7935	132.73315
3.794	67.07153
3.7945	-23.16284
3.795	-113.1958
3.7955	-67.57507
3.796	-18.8324
3.7965	-11.58142
3.797	40.78674
3.7975	41.99524
3.798	20.1416
3.7985	2.11487
3.799	-5.53894
3.7995	-22.96143
3.8	-100.70801
3.8005	-190.84167
3.801	-215.71655
3.8015	-179.56238
3.802	-160.32715
3.8025	-88.82446
3.803	95.5719
3.8035	313.40332
3.804	658.83179
3.8045	758.43201
3.805	594.98291
3.8055	314.00757
3.806	2.5177
3.8065	-290.74402
3.807	-613.11035
3.8075	-842.12036
3.808	-934.87244
3.8085	-926.9165
3.809	-867.39807
3.8095	-718.65234
3.81	-467.99011
3.8105	-209.77478
3.811	-76.84021
3.8115	-29.91028
3.812	34.03931
3.8125	93.55774
3.813	78.95508
3.8135	180.26733
3.814	387.42371
3.8145	595.08362
3.815	768.60352
3.8155	716.53748
3.816	561.54785
3.8165	350.76599
3.817	147.63794
3.8175	-36.55701
3.818	-146.32874
3.8185	-239.78577
3.819	-253.78418
3.8195	-185.90698
3.82	-57.10144
3.8205	66.6687
3.821	94.56482
3.8215	101.61438
3.822	53.27454
3.8225	19.03381
3.823	-16.61682
3.8235	-82.58057
3.824	-161.83777
3.8245	-185.20203
3.825	-143.00537
3.8255	-102.62146
3.826	-93.25562
3.8265	-125.68359
3.827	-138.87634
3.8275	-92.75208
3.828	-44.71436
3.8285	25.88196
3.829	67.57507
3.8295	118.02979
3.83	155.59387
3.8305	214.20593
3.831	276.04065
3.8315	459.42993
3.832	558.02307
3.8325	680.88684
3.833	819.36035
3.8335	646.4447
3.834	276.34277
3.8345	-159.92432
3.835	-601.22681
3.8355	-976.26343
3.836	-1186.84387
3.8365	-1224.40796
3.837	-1127.52686
3.8375	-915.83862
3.838	-601.83105
3.8385	-251.16577
3.839	94.86694
3.8395	347.64404
3.84	492.56287
3.8405	581.68945
3.841	525.49438
3.8415	415.31982
3.842	351.37024
3.8425	292.15393
3.843	225.28381
3.8435	126.18713
3.844	19.13452
3.8445	-3.7262
3.845	42.8009
3.8455	77.54517
3.846	94.66553
3.8465	87.01172
3.847	49.95117
3.8475	-15.30762
3.848	-138.77563
3.8485	-188.72681
3.849	-44.61365
3.8495	240.39001
3.85	377.35291
3.8505	359.42688
3.851	235.65674
3.8515	61.93542
3.852	-108.76465
3.8525	-217.02576
3.853	-318.43872
3.8535	-383.29468
3.854	-375.23804
3.8545	-331.73218
3.855	-251.26648
3.8555	-158.4137
3.856	-43.20374
3.8565	52.26746
3.857	71.90552
3.8575	114.505
3.858	119.03687
3.8585	135.95581
3.859	145.12024
3.8595	136.05652
3.86	71.50269
3.8605	-2.61841
3.861	-77.54517
3.8615	-149.55139
3.862	-170.80078
3.8625	-131.22253
3.863	-23.36426
3.8635	84.79614
3.864	185.70557
3.8645	222.96753
3.865	199.9054
3.8655	264.55994
3.866	416.3269
3.8665	429.62036
3.867	373.62671
3.8675	250.36011
3.868	89.328
3.8685	-29.40674
3.869	-133.74023
3.8695	-231.93054
3.87	-315.7196
3.8705	-302.02332
3.871	-221.15479
3.8715	-184.39636
3.872	-47.93701
3.8725	388.22937
3.873	772.02759
3.8735	1135.5835
3.874	1187.04529
3.8745	954.61121
3.875	554.39758
3.8755	121.25244
3.876	-338.07678
3.8765	-741.41235
3.877	-999.62769
3.8775	-1033.96912
3.878	-904.66003
3.8785	-746.44775
3.879	-543.11829
3.8795	-326.9989
3.88	-104.93774
3.8805	-8.66089
3.881	105.84412
3.8815	116.31775
3.882	-12.5885
3.8825	-106.75049
3.883	-116.31775
3.8835	-88.82446
3.884	-85.70251
3.8845	-157.50732
3.885	-211.58752
3.8855	-226.19019
3.886	-216.01868
3.8865	-144.31458
3.887	-55.3894
3.8875	34.84497
3.888	85.80322
3.8885	97.98889
3.889	107.05261
3.8895	189.63318
3.89	632.34558
3.8905	930.44128
3.891	1013.92822
3.8915	939.10217
3.892	710.89783
3.8925	353.18298
3.893	-15.50903
3.8935	-356.00281
3.894	-590.45105
3.8945	-689.1449
3.895	-661.4502
3.8955	-572.92786
3.896	-325.6897
3.8965	-3.52478
3.897	268.78967
3.8975	581.79016
3.898	778.27148
3.8985	743.12439
3.899	555.60608
3.8995	343.21289
3.9	121.9574
3.9005	-133.13599
3.901	-436.97205
3.9015	-652.38647
3.902	-746.95129
3.9025	-731.03943
3.903	-641.81213
3.9035	-460.63843
3.904	-296.88721
3.9045	-121.25244
3.905	13.39417
3.9055	151.66626
3.906	263.65356
3.9065	291.54968
3.907	163.85193
3.9075	7.65381
3.908	-61.73401
3.9085	-120.95032
3.909	-173.62061
3.9095	-222.46399
3.91	-222.46399
3.9105	-204.33655
3.911	-150.55847
3.9115	-96.37756
3.912	-33.9386
3.9125	11.38
3.913	67.57507
3.9135	141.29333
3.914	328.81165
3.9145	448.45276
3.915	408.47168
3.9155	318.03589
3.916	291.85181
3.9165	443.11523
3.917	445.63293
3.9175	368.59131
3.918	191.44592
3.9185	-54.68445
3.919	-330.22156
3.9195	-543.42041
3.92	-698.10791
3.9205	-745.94421
3.921	-699.51782
3.9215	-490.54871
3.922	-298.19641
3.9225	-235.75745
3.923	-168.18237
3.9235	4.22974
3.924	172.61353
3.9245	232.93762
3.925	268.28613
3.9255	277.14844
3.926	231.52771
3.9265	181.97937
3.927	167.57812
3.9275	169.99512
3.928	308.36792
3.9285	772.229
3.929	1274.76196
3.9295	1458.55408
3.93	1331.35986
3.9305	1111.61499
3.931	718.55164
3.9315	175.43335
3.932	-396.68884
3.9325	-850.68054
3.933	-1087.24365
3.9335	-1178.08228
3.934	-1190.57007
3.9345	-1065.39001
3.935	-835.17151
3.9355	-564.6698
3.936	-230.72205
3.9365	257.51038
3.937	522.57385
3.9375	762.86316
3.938	1018.96362
3.9385	1093.18542
3.939	875.15259
3.9395	424.98779
3.94	-72.30835
3.9405	-505.45349
3.941	-806.87256
3.9415	-998.31848
3.942	-1036.18469
3.9425	-1006.27441
3.943	-870.01648
3.9435	-655.91125
3.944	-410.88867
3.9445	-172.3114
3.945	22.25647
3.9455	225.78735
3.946	391.1499
3.9465	448.45276
3.947	380.87769
3.9475	278.65906
3.948	201.51672
3.9485	129.71191
3.949	51.15967
3.9495	-63.74817
3.95	-7.35168
3.9505	388.12866
3.951	800.02441
3.9515	967.40112
3.952	888.54675
3.9525	629.12292
3.953	266.97693
3.9535	-61.43188
3.954	-236.66382
3.9545	-286.61499
3.955	-209.06982
3.9555	20.44373
3.956	277.14844
3.9565	350.06104
3.957	296.08154
3.9575	127.69775
3.958	-120.24536
3.9585	-407.06177
3.959	-559.53369
3.9595	-715.32898
3.96	-786.93237
3.9605	-740.20386
3.961	-661.65161
3.9615	-551.98059
3.962	-346.73767
3.9625	-114.70642
3.963	9.36584
3.9635	96.47827
3.964	232.93762
3.9645	495.4834
3.965	656.5155
3.9655	723.28491
3.966	583.80432
3.9665	296.08154
3.967	7.25098
3.9675	-248.34595
3.968	-489.64233
3.9685	-586.72485
3.969	-578.76892
3.9695	-486.52039
3.97	-368.79272
3.9705	-273.72437
3.971	-167.276
3.9715	0.40283
3.972	156.90308
3.9725	241.09497
3.973	319.14368
3.9735	587.53052
3.974	788.14087
3.9745	802.44141
