Leonardo_Garofalo_Right_3.c3d  



Time(s):	A_R_bicipite(μV):
0	7.5531
0.0005	4.73328
0.001	5.94177
0.0015	8.05664
0.002	1.10779
0.0025	2.41699
0.003	4.63257
0.0035	0.20142
0.004	5.74036
0.0045	0.30212
0.005	-3.92761
0.0055	1.81274
0.006	6.54602
0.0065	11.78284
0.007	5.23682
0.0075	2.61841
0.008	8.45947
0.0085	9.86938
0.009	10.0708
0.0095	12.68921
0.01	11.78284
0.0105	15.71045
0.011	9.56726
0.0115	9.86938
0.012	7.85522
0.0125	8.66089
0.013	4.53186
0.0135	3.12195
0.014	0.90637
0.0145	-6.3446
0.015	-6.2439
0.0155	-3.62549
0.016	0
0.0165	-1.10779
0.017	2.01416
0.0175	2.41699
0.018	2.41699
0.0185	1.81274
0.019	8.35876
0.0195	9.46655
0.02	-0.30212
0.0205	3.02124
0.021	1.3092
0.0215	-1.51062
0.022	-3.92761
0.0225	-1.91345
0.023	5.0354
0.0235	0.70496
0.024	-4.12903
0.0245	1.71204
0.025	6.2439
0.0255	6.04248
0.026	10.67505
0.0265	13.39417
0.027	15.60974
0.0275	18.02673
0.028	22.45789
0.0285	14.09912
0.029	16.41541
0.0295	12.5885
0.03	14.70337
0.0305	11.17859
0.031	12.08496
0.0315	11.2793
0.032	16.21399
0.0325	10.0708
0.033	12.48779
0.0335	7.65381
0.034	1.40991
0.0345	4.33044
0.035	6.74744
0.0355	4.83398
0.036	4.02832
0.0365	3.92761
0.037	2.01416
0.0375	3.8269
0.038	10.67505
0.0385	8.66089
0.039	3.12195
0.0395	6.94885
0.04	3.92761
0.0405	2.31628
0.041	6.94885
0.0415	3.8269
0.042	4.73328
0.0425	6.3446
0.043	6.54602
0.0435	3.02124
0.044	4.02832
0.0445	1.61133
0.045	5.13611
0.0455	-2.92053
0.046	-1.2085
0.0465	3.02124
0.047	3.02124
0.0475	5.13611
0.048	4.12903
0.0485	5.63965
0.049	8.05664
0.0495	8.7616
0.05	5.63965
0.0505	5.43823
0.051	8.7616
0.0515	8.05664
0.052	7.25098
0.0525	9.36584
0.053	5.53894
0.0535	5.53894
0.054	12.48779
0.0545	8.66089
0.055	9.76868
0.0555	11.68213
0.056	8.7616
0.0565	4.93469
0.057	0.10071
0.0575	-1.61133
0.058	7.35168
0.0585	1.40991
0.059	2.21558
0.0595	1.00708
0.06	3.42407
0.0605	7.15027
0.061	3.7262
0.0615	-1.10779
0.062	-1.40991
0.0625	1.61133
0.063	6.3446
0.0635	3.92761
0.064	3.02124
0.0645	1.51062
0.065	1.51062
0.0655	4.83398
0.066	5.94177
0.0665	6.44531
0.067	5.94177
0.0675	6.94885
0.068	8.35876
0.0685	10.47363
0.069	9.56726
0.0695	6.94885
0.07	5.94177
0.0705	1.10779
0.071	-2.81982
0.0715	-5.63965
0.072	-12.18567
0.0725	-14.40125
0.073	-18.32886
0.0735	-13.797
0.074	-17.22107
0.0745	-9.76868
0.075	-6.74744
0.0755	-4.22974
0.076	-7.65381
0.0765	-1.2085
0.077	9.36584
0.0775	8.05664
0.078	14.40125
0.0785	19.43665
0.079	28.70178
0.0795	25.88196
0.08	22.76001
0.0805	21.95435
0.081	19.94019
0.0815	19.53735
0.082	18.93311
0.0825	17.32178
0.083	15.71045
0.0835	12.28638
0.084	16.3147
0.0845	16.81824
0.085	15.00549
0.0855	7.95593
0.086	12.89062
0.0865	9.66797
0.087	9.46655
0.0875	5.74036
0.088	7.75452
0.0885	2.21558
0.089	1.91345
0.0895	7.5531
0.09	9.16443
0.0905	4.12903
0.091	6.64673
0.0915	5.63965
0.092	7.15027
0.0925	5.84106
0.093	6.44531
0.0935	5.23682
0.094	5.53894
0.0945	5.63965
0.095	8.66089
0.0955	6.3446
0.096	6.64673
0.0965	8.05664
0.097	7.25098
0.0975	6.04248
0.098	3.22266
0.0985	6.44531
0.099	3.62549
0.0995	1.00708
0.1	-1.3092
0.1005	-1.81274
0.101	-7.04956
0.1015	-5.84106
0.102	3.42407
0.1025	6.84814
0.103	2.92053
0.1035	4.63257
0.104	7.5531
0.1045	6.14319
0.105	7.25098
0.1055	4.02832
0.106	0.30212
0.1065	5.63965
0.107	6.74744
0.1075	3.32336
0.108	6.14319
0.1085	-0.60425
0.109	8.05664
0.1095	14.80408
0.11	6.54602
0.1105	0.50354
0.111	-2.11487
0.1115	5.84106
0.112	5.0354
0.1125	8.15735
0.113	0.50354
0.1135	1.91345
0.114	1.71204
0.1145	4.83398
0.115	-0.30212
0.1155	-2.21558
0.116	-0.80566
0.1165	-4.33044
0.117	-5.74036
0.1175	-0.90637
0.118	-3.92761
0.1185	-2.81982
0.119	-4.43115
0.1195	-5.63965
0.12	-4.53186
0.1205	0.40283
0.121	9.16443
0.1215	5.74036
0.122	8.96301
0.1225	11.88354
0.123	12.48779
0.1235	13.39417
0.124	17.32178
0.1245	16.01257
0.125	18.8324
0.1255	21.14868
0.126	20.04089
0.1265	12.48779
0.127	13.99841
0.1275	13.09204
0.128	8.35876
0.1285	7.04956
0.129	13.19275
0.1295	10.47363
0.13	12.18567
0.1305	8.15735
0.131	12.38708
0.1315	4.83398
0.132	1.00708
0.1325	3.52478
0.133	0.50354
0.1335	2.5177
0.134	7.15027
0.1345	9.66797
0.135	3.32336
0.1355	6.2439
0.136	2.41699
0.1365	2.01416
0.137	5.84106
0.1375	5.63965
0.138	8.56018
0.1385	7.04956
0.139	9.46655
0.1395	11.2793
0.14	9.76868
0.1405	10.67505
0.141	13.69629
0.1415	10.97717
0.142	13.797
0.1425	14.60266
0.143	14.50195
0.1435	18.32886
0.144	13.59558
0.1445	11.07788
0.145	12.48779
0.1455	9.16443
0.146	8.56018
0.1465	6.44531
0.147	0.10071
0.1475	1.40991
0.148	7.35168
0.1485	9.26514
0.149	9.76868
0.1495	1.2085
0.15	5.33752
0.1505	7.25098
0.151	-5.63965
0.1515	-4.33044
0.152	4.63257
0.1525	8.35876
0.153	4.73328
0.1535	7.95593
0.154	11.07788
0.1545	14.40125
0.155	8.45947
0.1555	11.2793
0.156	4.53186
0.1565	4.63257
0.157	9.36584
0.1575	6.44531
0.158	12.38708
0.1585	9.36584
0.159	-0.40283
0.1595	-3.32336
0.16	-2.92053
0.1605	0.10071
0.161	1.3092
0.1615	-0.10071
0.162	-0.20142
0.1625	-4.53186
0.163	0.80566
0.1635	3.12195
0.164	4.93469
0.1645	2.61841
0.165	5.94177
0.1655	2.21558
0.166	1.71204
0.1665	-2.21558
0.167	-2.5177
0.1675	-5.53894
0.168	-9.76868
0.1685	-7.95593
0.169	-19.63806
0.1695	-11.88354
0.17	-11.2793
0.1705	-11.38
0.171	-8.8623
0.1715	-7.5531
0.172	-5.33752
0.1725	0.10071
0.173	-2.5177
0.1735	-6.3446
0.174	-3.62549
0.1745	-6.04248
0.175	-3.62549
0.1755	-3.92761
0.176	-3.32336
0.1765	1.10779
0.177	2.11487
0.1775	3.02124
0.178	8.45947
0.1785	13.69629
0.179	17.72461
0.1795	24.27063
0.18	25.37842
0.1805	29.30603
0.181	30.11169
0.1815	27.89612
0.182	24.37134
0.1825	24.47205
0.183	24.47205
0.1835	26.58691
0.184	19.43665
0.1845	19.23523
0.185	19.13452
0.1855	10.97717
0.186	14.50195
0.1865	12.08496
0.187	8.8623
0.1875	11.48071
0.188	6.2439
0.1885	-0.20142
0.189	2.31628
0.1895	-7.04956
0.19	-3.92761
0.1905	-2.11487
0.191	4.73328
0.1915	3.7262
0.192	5.53894
0.1925	-0.10071
0.193	-5.0354
0.1935	-1.40991
0.194	-5.13611
0.1945	-10.47363
0.195	-10.37292
0.1955	-12.28638
0.196	-10.87646
0.1965	-1.61133
0.197	-4.12903
0.1975	-1.51062
0.198	4.53186
0.1985	2.61841
0.199	4.02832
0.1995	9.46655
0.2	11.07788
0.2005	11.38
0.201	13.797
0.2015	12.5885
0.202	15.40833
0.2025	16.21399
0.203	9.97009
0.2035	8.45947
0.204	8.96301
0.2045	8.15735
0.205	8.96301
0.2055	3.32336
0.206	3.8269
0.2065	1.81274
0.207	1.2085
0.2075	0.50354
0.208	0.30212
0.2085	1.91345
0.209	8.8623
0.2095	7.65381
0.21	2.92053
0.2105	8.45947
0.211	5.33752
0.2115	7.35168
0.212	11.58142
0.2125	10.27222
0.213	7.75452
0.2135	4.63257
0.214	10.77576
0.2145	8.56018
0.215	4.22974
0.2155	3.62549
0.216	5.0354
0.2165	2.61841
0.217	0.30212
0.2175	1.91345
0.218	4.12903
0.2185	-1.40991
0.219	-2.5177
0.2195	2.71912
0.22	4.22974
0.2205	2.01416
0.221	2.11487
0.2215	4.02832
0.222	3.52478
0.2225	2.21558
0.223	6.94885
0.2235	3.92761
0.224	3.12195
0.2245	5.0354
0.225	5.53894
0.2255	3.8269
0.226	4.53186
0.2265	6.84814
0.227	8.35876
0.2275	8.56018
0.228	9.16443
0.2285	22.96143
0.229	18.22815
0.2295	13.69629
0.23	15.71045
0.2305	11.88354
0.231	10.17151
0.2315	4.33044
0.232	6.2439
0.2325	2.01416
0.233	-0.20142
0.2335	3.42407
0.234	-0.80566
0.2345	-2.11487
0.235	1.81274
0.2355	4.93469
0.236	6.54602
0.2365	5.0354
0.237	3.92761
0.2375	5.94177
0.238	10.17151
0.2385	5.74036
0.239	4.43115
0.2395	8.66089
0.24	12.28638
0.2405	13.49487
0.241	10.0708
0.2415	7.65381
0.242	3.92761
0.2425	10.87646
0.243	2.31628
0.2435	4.93469
0.244	2.71912
0.2445	3.12195
0.245	2.01416
0.2455	1.40991
0.246	3.8269
0.2465	11.17859
0.247	6.14319
0.2475	6.44531
0.248	6.74744
0.2485	13.59558
0.249	7.5531
0.2495	10.0708
0.25	11.48071
0.2505	9.86938
0.251	12.48779
0.2515	6.44531
0.252	10.27222
0.2525	5.43823
0.253	4.43115
0.2535	10.17151
0.254	7.45239
0.2545	11.17859
0.255	8.05664
0.2555	8.35876
0.256	6.54602
0.2565	3.32336
0.257	7.65381
0.2575	8.15735
0.258	6.3446
0.2585	5.74036
0.259	-0.10071
0.2595	4.12903
0.26	5.84106
0.2605	8.35876
0.261	5.0354
0.2615	1.40991
0.262	5.23682
0.2625	5.23682
0.263	5.13611
0.2635	7.75452
0.264	3.52478
0.2645	1.71204
0.265	0.20142
0.2655	5.33752
0.266	-2.41699
0.2665	-6.2439
0.267	1.10779
0.2675	4.93469
0.268	3.32336
0.2685	4.33044
0.269	4.53186
0.2695	3.12195
0.27	5.13611
0.2705	4.12903
0.271	9.46655
0.2715	11.78284
0.272	14.90479
0.2725	11.78284
0.273	11.48071
0.2735	13.797
0.274	15.40833
0.2745	12.08496
0.275	15.60974
0.2755	12.68921
0.276	12.89062
0.2765	10.97717
0.277	3.32336
0.2775	5.74036
0.278	-1.00708
0.2785	-2.21558
0.279	-6.94885
0.2795	-7.5531
0.28	-6.3446
0.2805	-12.28638
0.281	-19.13452
0.2815	-15.30762
0.282	-14.70337
0.2825	-7.04956
0.283	-8.15735
0.2835	-8.35876
0.284	-1.10779
0.2845	5.53894
0.285	8.7616
0.2855	13.19275
0.286	16.61682
0.2865	24.37134
0.287	18.32886
0.2875	17.6239
0.288	23.06213
0.2885	26.28479
0.289	26.78833
0.2895	29.40674
0.29	19.13452
0.2905	24.16992
0.291	25.78125
0.2915	21.65222
0.292	15.30762
0.2925	17.52319
0.293	10.47363
0.2935	10.77576
0.294	12.99133
0.2945	7.04956
0.295	11.78284
0.2955	3.92761
0.296	3.32336
0.2965	4.02832
0.297	-4.22974
0.2975	1.40991
0.298	0
0.2985	-1.71204
0.299	-1.40991
0.2995	-4.83398
0.3	0.50354
0.3005	4.33044
0.301	1.71204
0.3015	-0.10071
0.302	-4.33044
0.3025	-4.02832
0.303	-6.04248
0.3035	-2.01416
0.304	-8.25806
0.3045	-7.75452
0.305	-9.16443
0.3055	-7.85522
0.306	-9.66797
0.3065	-10.57434
0.307	-12.89062
0.3075	-9.97009
0.308	-5.63965
0.3085	-4.33044
0.309	-1.81274
0.3095	-5.53894
0.31	1.2085
0.3105	3.7262
0.311	3.92761
0.3115	9.66797
0.312	9.86938
0.3125	12.38708
0.313	12.5885
0.3135	9.86938
0.314	6.14319
0.3145	8.96301
0.315	15.91187
0.3155	16.71753
0.316	17.6239
0.3165	21.55151
0.317	15.81116
0.3175	24.77417
0.318	14.30054
0.3185	17.72461
0.319	14.80408
0.3195	17.42249
0.32	16.3147
0.3205	8.45947
0.321	13.797
0.3215	16.11328
0.322	17.22107
0.3225	12.89062
0.323	8.05664
0.3235	12.48779
0.324	11.98425
0.3245	4.22974
0.325	1.10779
0.3255	4.43115
0.326	6.14319
0.3265	12.99133
0.327	14.09912
0.3275	7.35168
0.328	7.45239
0.3285	7.25098
0.329	8.66089
0.3295	6.74744
0.33	7.35168
0.3305	4.22974
0.331	2.41699
0.3315	6.2439
0.332	3.32336
0.3325	10.77576
0.333	4.33044
0.3335	-0.70496
0.334	1.00708
0.3345	2.31628
0.335	-2.01416
0.3355	5.94177
0.336	7.25098
0.3365	8.7616
0.337	5.23682
0.3375	7.95593
0.338	10.67505
0.3385	7.5531
0.339	6.3446
0.3395	5.33752
0.34	4.63257
0.3405	-0.70496
0.341	3.7262
0.3415	3.8269
0.342	0.20142
0.3425	-0.60425
0.343	4.73328
0.3435	-0.90637
0.344	0.70496
0.3445	3.62549
0.345	3.92761
0.3455	8.66089
0.346	11.78284
0.3465	5.13611
0.347	11.17859
0.3475	8.7616
0.348	8.96301
0.3485	4.73328
0.349	4.63257
0.3495	5.63965
0.35	7.15027
0.3505	7.5531
0.351	7.65381
0.3515	9.76868
0.352	8.05664
0.3525	10.37292
0.353	10.17151
0.3535	11.98425
0.354	7.15027
0.3545	3.02124
0.355	5.33752
0.3555	7.65381
0.356	6.84814
0.3565	9.86938
0.357	7.35168
0.3575	10.67505
0.358	6.14319
0.3585	3.52478
0.359	7.04956
0.3595	5.23682
0.36	0.20142
0.3605	5.23682
0.361	2.5177
0.3615	-1.51062
0.362	-1.3092
0.3625	-3.62549
0.363	-4.53186
0.3635	2.5177
0.364	1.51062
0.3645	2.21558
0.365	-4.12903
0.3655	1.91345
0.366	1.91345
0.3665	-0.90637
0.367	0.60425
0.3675	5.63965
0.368	6.3446
0.3685	8.45947
0.369	13.19275
0.3695	13.19275
0.37	22.6593
0.3705	23.76709
0.371	24.57275
0.3715	25.78125
0.372	23.56567
0.3725	22.45789
0.373	17.72461
0.3735	18.8324
0.374	17.42249
0.3745	11.68213
0.375	8.05664
0.3755	6.2439
0.376	-0.40283
0.3765	-3.22266
0.377	0.20142
0.3775	0.80566
0.378	5.84106
0.3785	9.56726
0.379	6.74744
0.3795	9.86938
0.38	5.94177
0.3805	4.12903
0.381	-6.04248
0.3815	-4.33044
0.382	-7.25098
0.3825	-8.35876
0.383	-13.19275
0.3835	-13.19275
0.384	-7.65381
0.3845	-2.41699
0.385	-1.00708
0.3855	-1.61133
0.386	1.71204
0.3865	-0.50354
0.387	17.82532
0.3875	16.81824
0.388	15.40833
0.3885	18.53027
0.389	12.68921
0.3895	10.47363
0.39	13.19275
0.3905	14.90479
0.391	6.44531
0.3915	10.97717
0.392	10.87646
0.3925	11.38
0.393	13.59558
0.3935	12.38708
0.394	10.47363
0.3945	12.48779
0.395	5.74036
0.3955	3.7262
0.396	0.40283
0.3965	-2.01416
0.397	1.3092
0.3975	-3.02124
0.398	0.90637
0.3985	6.14319
0.399	1.3092
0.3995	1.91345
0.4	7.35168
0.4005	5.43823
0.401	1.40991
0.4015	2.11487
0.402	4.53186
0.4025	12.38708
0.403	5.63965
0.4035	4.53186
0.404	7.95593
0.4045	0.80566
0.405	4.73328
0.4055	1.51062
0.406	6.04248
0.4065	0.40283
0.407	2.21558
0.4075	2.61841
0.408	3.12195
0.4085	2.31628
0.409	6.84814
0.4095	7.04956
0.41	6.64673
0.4105	11.48071
0.411	13.99841
0.4115	14.30054
0.412	12.99133
0.4125	8.56018
0.413	11.38
0.4135	11.07788
0.414	13.797
0.4145	13.49487
0.415	13.797
0.4155	14.09912
0.416	9.56726
0.4165	6.44531
0.417	1.91345
0.4175	3.52478
0.418	7.25098
0.4185	3.12195
0.419	6.14319
0.4195	6.3446
0.42	2.81982
0.4205	7.85522
0.421	9.66797
0.4215	7.85522
0.422	2.01416
0.4225	3.42407
0.423	6.64673
0.4235	5.23682
0.424	7.04956
0.4245	9.16443
0.425	4.63257
0.4255	3.22266
0.426	8.35876
0.4265	5.94177
0.427	6.74744
0.4275	6.74744
0.428	4.22974
0.4285	5.84106
0.429	4.02832
0.4295	1.61133
0.43	2.81982
0.4305	5.43823
0.431	8.8623
0.4315	10.47363
0.432	8.45947
0.4325	6.94885
0.433	7.15027
0.4335	8.7616
0.434	11.17859
0.4345	5.13611
0.435	4.12903
0.4355	7.65381
0.436	7.95593
0.4365	6.74744
0.437	4.93469
0.4375	6.94885
0.438	5.74036
0.4385	6.94885
0.439	4.02832
0.4395	1.91345
0.44	2.31628
0.4405	1.40991
0.441	-0.60425
0.4415	2.41699
0.442	0.80566
0.4425	11.07788
0.443	6.3446
0.4435	5.74036
0.444	2.81982
0.4445	8.45947
0.445	14.50195
0.4455	12.38708
0.446	14.90479
0.4465	10.47363
0.447	15.40833
0.4475	10.37292
0.448	6.2439
0.4485	7.5531
0.449	4.33044
0.4495	6.44531
0.45	-3.32336
0.4505	-1.10779
0.451	0.10071
0.4515	1.91345
0.452	-4.22974
0.4525	-1.91345
0.453	0.70496
0.4535	-4.63257
0.454	-7.25098
0.4545	-1.10779
0.455	2.81982
0.4555	1.81274
0.456	8.56018
0.4565	10.37292
0.457	1.81274
0.4575	2.31628
0.458	4.73328
0.4585	5.84106
0.459	7.35168
0.4595	14.60266
0.46	8.15735
0.4605	13.59558
0.461	14.09912
0.4615	21.04797
0.462	14.09912
0.4625	15.71045
0.463	14.70337
0.4635	14.80408
0.464	1.71204
0.4645	-1.00708
0.465	-3.92761
0.4655	-10.37292
0.466	-6.44531
0.4665	-8.7616
0.467	1.91345
0.4675	0.40283
0.468	4.83398
0.4685	3.92761
0.469	4.43115
0.4695	10.57434
0.47	7.15027
0.4705	13.39417
0.471	10.37292
0.4715	15.60974
0.472	11.07788
0.4725	11.88354
0.473	9.56726
0.4735	10.27222
0.474	8.96301
0.4745	7.15027
0.475	3.32336
0.4755	-4.73328
0.476	-6.94885
0.4765	-5.84106
0.477	-12.18567
0.4775	-13.19275
0.478	-15.1062
0.4785	-9.76868
0.479	-8.15735
0.4795	-3.22266
0.48	-8.45947
0.4805	-5.84106
0.481	5.33752
0.4815	7.85522
0.482	7.65381
0.4825	8.96301
0.483	11.07788
0.4835	12.38708
0.484	15.50903
0.4845	18.73169
0.485	19.43665
0.4855	15.00549
0.486	17.82532
0.4865	12.89062
0.487	3.32336
0.4875	10.77576
0.488	17.22107
0.4885	15.71045
0.489	13.29346
0.4895	14.30054
0.49	6.14319
0.4905	4.43115
0.491	7.5531
0.4915	5.74036
0.492	3.22266
0.4925	3.02124
0.493	6.2439
0.4935	4.53186
0.494	4.33044
0.4945	2.81982
0.495	4.53186
0.4955	10.17151
0.496	12.68921
0.4965	17.12036
0.497	9.86938
0.4975	10.67505
0.498	9.76868
0.4985	7.65381
0.499	10.0708
0.4995	8.66089
0.5	9.66797
0.5005	7.25098
0.501	8.66089
0.5015	10.87646
0.502	4.43115
0.5025	5.94177
0.503	4.53186
0.5035	11.98425
0.504	9.66797
0.5045	13.29346
0.505	2.92053
0.5055	3.52478
0.506	6.84814
0.5065	12.28638
0.507	2.61841
0.5075	4.33044
0.508	10.67505
0.5085	6.74744
0.509	-1.71204
0.5095	-8.05664
0.51	-3.32336
0.5105	0.20142
0.511	0
0.5115	-4.33044
0.512	0.10071
0.5125	5.23682
0.513	8.05664
0.5135	8.66089
0.514	2.21558
0.5145	8.45947
0.515	3.52478
0.5155	4.93469
0.516	4.73328
0.5165	-0.20142
0.517	8.56018
0.5175	4.83398
0.518	6.54602
0.5185	9.46655
0.519	3.52478
0.5195	3.32336
0.52	2.61841
0.5205	0.70496
0.521	2.5177
0.5215	5.63965
0.522	-1.71204
0.5225	-1.2085
0.523	2.41699
0.5235	5.33752
0.524	3.7262
0.5245	2.01416
0.525	2.61841
0.5255	5.53894
0.526	3.52478
0.5265	5.94177
0.527	5.74036
0.5275	8.15735
0.528	4.73328
0.5285	-0.50354
0.529	-0.80566
0.5295	-1.71204
0.53	4.53186
0.5305	4.53186
0.531	-1.91345
0.5315	-3.92761
0.532	1.40991
0.5325	2.71912
0.533	14.09912
0.5335	4.12903
0.534	1.40991
0.5345	5.23682
0.535	10.0708
0.5355	11.48071
0.536	7.95593
0.5365	10.77576
0.537	3.52478
0.5375	5.74036
0.538	8.35876
0.5385	7.04956
0.539	6.14319
0.5395	9.46655
0.54	14.09912
0.5405	9.56726
0.541	9.66797
0.5415	11.88354
0.542	9.06372
0.5425	9.36584
0.543	8.66089
0.5435	14.19983
0.544	9.46655
0.5445	12.89062
0.545	2.81982
0.5455	6.2439
0.546	3.32336
0.5465	9.66797
0.547	5.74036
0.5475	7.15027
0.548	10.57434
0.5485	5.74036
0.549	5.63965
0.5495	-2.92053
0.55	-3.7262
0.5505	-2.81982
0.551	0
0.5515	4.93469
0.552	3.22266
0.5525	4.93469
0.553	4.22974
0.5535	-0.40283
0.554	-1.10779
0.5545	2.5177
0.555	0.70496
0.5555	0.80566
0.556	0
0.5565	-1.2085
0.557	-1.71204
0.5575	1.81274
0.558	3.22266
0.5585	-0.60425
0.559	-0.40283
0.5595	-0.90637
0.56	-1.71204
0.5605	4.12903
0.561	-0.30212
0.5615	8.7616
0.562	3.52478
0.5625	16.01257
0.563	14.19983
0.5635	17.52319
0.564	9.97009
0.5645	12.89062
0.565	14.50195
0.5655	9.76868
0.566	11.2793
0.5665	6.64673
0.567	9.26514
0.5675	6.44531
0.568	6.54602
0.5685	9.97009
0.569	9.76868
0.5695	11.78284
0.57	5.23682
0.5705	5.84106
0.571	11.98425
0.5715	7.15027
0.572	8.56018
0.5725	4.93469
0.573	11.38
0.5735	8.8623
0.574	4.43115
0.5745	2.11487
0.575	-2.41699
0.5755	1.81274
0.576	-1.71204
0.5765	6.54602
0.577	10.57434
0.5775	4.93469
0.578	9.06372
0.5785	8.25806
0.579	8.15735
0.5795	11.58142
0.58	10.47363
0.5805	14.40125
0.581	13.19275
0.5815	6.84814
0.582	4.02832
0.5825	9.46655
0.583	3.32336
0.5835	9.26514
0.584	6.94885
0.5845	5.13611
0.585	3.92761
0.5855	-0.30212
0.586	2.92053
0.5865	0.20142
0.587	-0.30212
0.5875	1.81274
0.588	4.73328
0.5885	0
0.589	2.21558
0.5895	0.80566
0.59	1.51062
0.5905	3.52478
0.591	1.71204
0.5915	5.33752
0.592	9.26514
0.5925	3.12195
0.593	11.48071
0.5935	4.22974
0.594	8.56018
0.5945	5.43823
0.595	4.12903
0.5955	9.66797
0.596	12.5885
0.5965	14.40125
0.597	12.5885
0.5975	9.36584
0.598	12.68921
0.5985	10.97717
0.599	11.68213
0.5995	10.97717
0.6	14.09912
0.6005	10.17151
0.601	3.32336
0.6015	6.54602
0.602	13.09204
0.6025	7.85522
0.603	11.78284
0.6035	5.84106
0.604	-0.80566
0.6045	-11.48071
0.605	-6.54602
0.6055	-5.23682
0.606	-13.39417
0.6065	-12.28638
0.607	-9.36584
0.6075	-5.33752
0.608	-4.93469
0.6085	3.8269
0.609	5.23682
0.6095	10.47363
0.61	18.63098
0.6105	17.82532
0.611	13.797
0.6115	19.03381
0.612	15.91187
0.6125	12.89062
0.613	15.81116
0.6135	6.2439
0.614	13.19275
0.6145	6.74744
0.615	10.0708
0.6155	6.94885
0.616	8.25806
0.6165	13.09204
0.617	7.95593
0.6175	5.94177
0.618	6.74744
0.6185	3.02124
0.619	1.40991
0.6195	3.32336
0.62	1.61133
0.6205	2.31628
0.621	10.27222
0.6215	5.53894
0.622	9.56726
0.6225	9.66797
0.623	1.10779
0.6235	1.2085
0.624	-4.83398
0.6245	-6.64673
0.625	-7.04956
0.6255	-7.25098
0.626	-7.45239
0.6265	-5.33752
0.627	2.21558
0.6275	3.92761
0.628	-1.81274
0.6285	3.7262
0.629	9.46655
0.6295	13.69629
0.63	12.48779
0.6305	14.60266
0.631	14.70337
0.6315	13.797
0.632	16.61682
0.6325	12.5885
0.633	11.17859
0.6335	16.71753
0.634	11.78284
0.6345	14.09912
0.635	9.46655
0.6355	9.76868
0.636	13.49487
0.6365	9.36584
0.637	14.90479
0.6375	6.44531
0.638	7.95593
0.6385	4.83398
0.639	-1.40991
0.6395	2.11487
0.64	-1.71204
0.6405	-4.33044
0.641	-2.01416
0.6415	-2.11487
0.642	-4.93469
0.6425	-7.45239
0.643	0.60425
0.6435	-2.31628
0.644	-3.22266
0.6445	-3.32336
0.645	0.50354
0.6455	-0.60425
0.646	0.60425
0.6465	-4.53186
0.647	0.90637
0.6475	8.45947
0.648	3.32336
0.6485	6.44531
0.649	9.26514
0.6495	13.89771
0.65	9.16443
0.6505	13.19275
0.651	7.15027
0.6515	12.99133
0.652	8.45947
0.6525	14.19983
0.653	14.50195
0.6535	6.04248
0.654	6.94885
0.6545	7.25098
0.655	5.33752
0.6555	4.83398
0.656	3.32336
0.6565	3.62549
0.657	4.12903
0.6575	1.40991
0.658	3.42407
0.6585	5.94177
0.659	6.94885
0.6595	3.52478
0.66	-5.0354
0.6605	-5.0354
0.661	-4.83398
0.6615	-4.33044
0.662	2.61841
0.6625	1.81274
0.663	-1.51062
0.6635	0.50354
0.664	-2.81982
0.6645	-0.70496
0.665	2.41699
0.6655	9.26514
0.666	11.98425
0.6665	17.52319
0.667	17.72461
0.6675	15.20691
0.668	17.32178
0.6685	20.54443
0.669	23.16284
0.6695	21.3501
0.67	29.60815
0.6705	25.177
0.671	22.76001
0.6715	16.61682
0.672	15.30762
0.6725	12.18567
0.673	7.15027
0.6735	2.71912
0.674	2.71912
0.6745	-0.80566
0.675	2.21558
0.6755	3.42407
0.676	-0.20142
0.6765	0.80566
0.677	-0.90637
0.6775	4.53186
0.678	8.25806
0.6785	4.33044
0.679	8.15735
0.6795	13.49487
0.68	11.48071
0.6805	12.08496
0.681	12.99133
0.6815	9.36584
0.682	11.88354
0.6825	7.25098
0.683	10.57434
0.6835	10.17151
0.684	14.09912
0.6845	12.48779
0.685	11.38
0.6855	12.38708
0.686	14.70337
0.6865	16.81824
0.687	13.29346
0.6875	10.67505
0.688	8.05664
0.6885	7.15027
0.689	6.2439
0.6895	9.56726
0.69	11.98425
0.6905	5.23682
0.691	0.40283
0.6915	7.85522
0.692	1.91345
0.6925	3.8269
0.693	8.56018
0.6935	1.00708
0.694	4.53186
0.6945	8.25806
0.695	1.10779
0.6955	1.40991
0.696	2.61841
0.6965	2.71912
0.697	2.41699
0.6975	-1.00708
0.698	3.02124
0.6985	-1.91345
0.699	1.3092
0.6995	7.04956
0.7	8.66089
0.7005	9.36584
0.701	12.08496
0.7015	14.19983
0.702	12.99133
0.7025	11.38
0.703	12.5885
0.7035	13.89771
0.704	5.43823
0.7045	8.05664
0.705	8.05664
0.7055	2.5177
0.706	5.53894
0.7065	0.80566
0.707	0.10071
0.7075	2.01416
0.708	0.50354
0.7085	2.31628
0.709	-0.30212
0.7095	5.43823
0.71	4.02832
0.7105	10.67505
0.711	5.94177
0.7115	1.61133
0.712	-1.71204
0.7125	-10.27222
0.713	-15.91187
0.7135	-13.89771
0.714	-18.8324
0.7145	-16.51611
0.715	-22.6593
0.7155	-16.21399
0.716	-14.40125
0.7165	-23.46497
0.717	-23.76709
0.7175	-16.61682
0.718	-7.25098
0.7185	11.68213
0.719	16.81824
0.7195	21.24939
0.72	22.96143
0.7205	21.65222
0.721	28.19824
0.7215	26.28479
0.722	30.71594
0.7225	22.05505
0.723	27.39258
0.7235	19.83948
0.724	23.8678
0.7245	25.47913
0.725	23.26355
0.7255	20.64514
0.726	22.25647
0.7265	19.83948
0.727	13.99841
0.7275	6.04248
0.728	1.3092
0.7285	1.3092
0.729	2.01416
0.7295	5.13611
0.73	8.96301
0.7305	7.45239
0.731	3.02124
0.7315	-1.00708
0.732	-7.65381
0.7325	-5.43823
0.733	-2.71912
0.7335	-4.53186
0.734	-1.00708
0.7345	-2.21558
0.735	3.42407
0.7355	1.51062
0.736	5.43823
0.7365	3.02124
0.737	1.2085
0.7375	4.43115
0.738	10.37292
0.7385	7.25098
0.739	6.54602
0.7395	-1.10779
0.74	2.31628
0.7405	1.00708
0.741	4.93469
0.7415	1.91345
0.742	-4.43115
0.7425	3.32336
0.743	-6.94885
0.7435	-1.3092
0.744	-8.15735
0.7445	-4.12903
0.745	-4.53186
0.7455	0.90637
0.746	4.33044
0.7465	4.93469
0.747	5.63965
0.7475	12.08496
0.748	8.15735
0.7485	10.87646
0.749	9.16443
0.7495	7.04956
0.75	14.50195
0.7505	8.45947
0.751	7.35168
0.7515	6.64673
0.752	6.44531
0.7525	12.99133
0.753	13.69629
0.7535	13.69629
0.754	8.05664
0.7545	6.3446
0.755	9.36584
0.7555	3.22266
0.756	10.27222
0.7565	5.74036
0.757	9.66797
0.7575	8.66089
0.758	1.2085
0.7585	5.74036
0.759	5.0354
0.7595	8.35876
0.76	6.74744
0.7605	10.17151
0.761	6.44531
0.7615	10.27222
0.762	9.16443
0.7625	7.85522
0.763	5.13611
0.7635	9.26514
0.764	2.81982
0.7645	3.02124
0.765	-0.90637
0.7655	1.61133
0.766	4.63257
0.7665	6.74744
0.767	4.02832
0.7675	2.81982
0.768	1.10779
0.7685	1.71204
0.769	4.73328
0.7695	7.45239
0.77	7.65381
0.7705	9.36584
0.771	8.35876
0.7715	3.32336
0.772	11.58142
0.7725	8.56018
0.773	8.7616
0.7735	10.97717
0.774	11.78284
0.7745	13.19275
0.775	9.56726
0.7755	7.65381
0.776	0.90637
0.7765	-2.31628
0.777	-2.81982
0.7775	2.11487
0.778	-2.61841
0.7785	2.61841
0.779	-3.02124
0.7795	-2.81982
0.78	-1.00708
0.7805	4.53186
0.781	5.33752
0.7815	-3.12195
0.782	11.78284
0.7825	6.04248
0.783	12.78992
0.7835	13.49487
0.784	13.59558
0.7845	11.98425
0.785	15.30762
0.7855	15.50903
0.786	16.11328
0.7865	17.32178
0.787	17.42249
0.7875	7.65381
0.788	9.26514
0.7885	10.17151
0.789	4.83398
0.7895	2.92053
0.79	0.90637
0.7905	0.10071
0.791	1.81274
0.7915	6.14319
0.792	4.33044
0.7925	5.74036
0.793	3.32336
0.7935	1.00708
0.794	1.00708
0.7945	1.00708
0.795	0.50354
0.7955	2.61841
0.796	3.62549
0.7965	4.33044
0.797	4.02832
0.7975	6.84814
0.798	5.53894
0.7985	5.0354
0.799	3.8269
0.7995	1.10779
0.8	-0.10071
0.8005	-4.63257
0.801	-7.85522
0.8015	-7.15027
0.802	2.71912
0.8025	6.84814
0.803	7.04956
0.8035	2.92053
0.804	3.92761
0.8045	3.42407
0.805	4.33044
0.8055	-0.50354
0.806	4.43115
0.8065	0.70496
0.807	-3.7262
0.8075	-8.45947
0.808	-1.81274
0.8085	-4.93469
0.809	4.83398
0.8095	6.64673
0.81	6.04248
0.8105	13.797
0.811	13.39417
0.8115	21.95435
0.812	22.15576
0.8125	22.55859
0.813	24.67346
0.8135	16.21399
0.814	18.73169
0.8145	17.01965
0.815	16.41541
0.8155	11.48071
0.816	5.43823
0.8165	6.54602
0.817	2.81982
0.8175	6.74744
0.818	4.93469
0.8185	8.66089
0.819	3.12195
0.8195	9.36584
0.82	12.48779
0.8205	8.66089
0.821	3.12195
0.8215	5.0354
0.822	5.23682
0.8225	3.12195
0.823	3.62549
0.8235	4.02832
0.824	1.61133
0.8245	4.63257
0.825	0.10071
0.8255	2.92053
0.826	0.30212
0.8265	3.22266
0.827	7.15027
0.8275	9.26514
0.828	2.71912
0.8285	1.2085
0.829	2.92053
0.8295	6.54602
0.83	8.35876
0.8305	4.53186
0.831	7.85522
0.8315	11.17859
0.832	4.12903
0.8325	1.3092
0.833	2.41699
0.8335	3.02124
0.834	2.11487
0.8345	-3.7262
0.835	-1.2085
0.8355	-5.63965
0.836	-2.5177
0.8365	-8.7616
0.837	-8.7616
0.8375	-15.00549
0.838	-8.35876
0.8385	-0.10071
0.839	-3.92761
0.8395	3.22266
0.84	2.41699
0.8405	7.35168
0.841	10.77576
0.8415	13.39417
0.842	10.77576
0.8425	18.12744
0.843	25.68054
0.8435	18.73169
0.844	20.04089
0.8445	21.65222
0.845	14.19983
0.8455	12.38708
0.846	11.2793
0.8465	14.30054
0.847	8.66089
0.8475	15.30762
0.848	17.32178
0.8485	13.89771
0.849	8.35876
0.8495	4.22974
0.85	0.80566
0.8505	2.81982
0.851	1.51062
0.8515	7.5531
0.852	4.02832
0.8525	8.56018
0.853	3.62549
0.8535	5.94177
0.854	3.92761
0.8545	7.15027
0.855	6.3446
0.8555	7.04956
0.856	5.33752
0.8565	9.26514
0.857	9.26514
0.8575	8.05664
0.858	5.53894
0.8585	5.84106
0.859	1.91345
0.8595	4.33044
0.86	0.80566
0.8605	-0.70496
0.861	2.92053
0.8615	1.2085
0.862	0.50354
0.8625	3.52478
0.863	-3.32336
0.8635	-4.53186
0.864	-4.93469
0.8645	-2.11487
0.865	-3.8269
0.8655	1.71204
0.866	6.74744
0.8665	3.12195
0.867	2.81982
0.8675	0.10071
0.868	1.2085
0.8685	2.11487
0.869	2.92053
0.8695	5.74036
0.87	11.2793
0.8705	13.797
0.871	12.08496
0.8715	10.87646
0.872	8.96301
0.8725	22.15576
0.873	13.59558
0.8735	12.28638
0.874	8.96301
0.8745	9.97009
0.875	10.97717
0.8755	10.27222
0.876	4.02832
0.8765	4.43115
0.877	5.0354
0.8775	-0.20142
0.878	-6.2439
0.8785	-11.2793
0.879	-13.59558
0.8795	-13.99841
0.88	-11.88354
0.8805	-4.22974
0.881	0.80566
0.8815	1.3092
0.882	6.44531
0.8825	7.85522
0.883	8.66089
0.8835	14.19983
0.884	11.38
0.8845	10.0708
0.885	14.09912
0.8855	5.74036
0.886	2.92053
0.8865	3.8269
0.887	-6.3446
0.8875	-10.97717
0.888	-9.56726
0.8885	-13.09204
0.889	-10.47363
0.8895	-7.04956
0.89	-9.26514
0.8905	-2.41699
0.891	-1.71204
0.8915	5.94177
0.892	8.7616
0.8925	14.19983
0.893	20.1416
0.8935	27.6947
0.894	29.40674
0.8945	29.20532
0.895	29.70886
0.8955	29.80957
0.896	25.27771
0.8965	30.61523
0.897	25.07629
0.8975	15.00549
0.898	11.2793
0.8985	10.47363
0.899	7.35168
0.8995	7.25098
0.9	-0.50354
0.9005	-2.41699
0.901	-2.21558
0.9015	-0.20142
0.902	-2.5177
0.9025	-1.91345
0.903	-2.41699
0.9035	5.43823
0.904	3.12195
0.9045	4.12903
0.905	8.25806
0.9055	8.7616
0.906	5.84106
0.9065	5.43823
0.907	4.33044
0.9075	3.02124
0.908	5.33752
0.9085	7.95593
0.909	9.46655
0.9095	1.61133
0.91	5.94177
0.9105	2.31628
0.911	11.98425
0.9115	9.06372
0.912	10.47363
0.9125	6.44531
0.913	7.65381
0.9135	4.12903
0.914	11.88354
0.9145	7.25098
0.915	6.94885
0.9155	11.48071
0.916	5.33752
0.9165	7.65381
0.917	8.35876
0.9175	8.45947
0.918	7.25098
0.9185	3.8269
0.919	5.94177
0.9195	9.16443
0.92	7.25098
0.9205	3.92761
0.921	4.63257
0.9215	9.46655
0.922	10.87646
0.9225	2.92053
0.923	6.14319
0.9235	9.56726
0.924	6.64673
0.9245	9.56726
0.925	7.25098
0.9255	4.33044
0.926	11.07788
0.9265	11.68213
0.927	10.17151
0.9275	13.19275
0.928	8.45947
0.9285	5.0354
0.929	6.54602
0.9295	10.47363
0.93	10.67505
0.9305	5.33752
0.931	5.0354
0.9315	7.5531
0.932	7.85522
0.9325	4.22974
0.933	5.0354
0.9335	7.35168
0.934	-0.70496
0.9345	2.41699
0.935	7.15027
0.9355	0.10071
0.936	3.32336
0.9365	0.90637
0.937	0.30212
0.9375	2.5177
0.938	7.35168
0.9385	8.66089
0.939	4.63257
0.9395	5.0354
0.94	-2.61841
0.9405	-3.52478
0.941	-2.21558
0.9415	-3.52478
0.942	1.61133
0.9425	-2.81982
0.943	-0.90637
0.9435	-0.40283
0.944	-0.80566
0.9445	5.13611
0.945	9.97009
0.9455	9.16443
0.946	0.60425
0.9465	-1.3092
0.947	-5.84106
0.9475	-5.23682
0.948	-9.26514
0.9485	-13.49487
0.949	-7.35168
0.9495	-4.83398
0.95	2.01416
0.9505	2.5177
0.951	5.84106
0.9515	4.33044
0.952	12.78992
0.9525	18.22815
0.953	20.24231
0.9535	16.91895
0.954	17.01965
0.9545	20.04089
0.955	19.63806
0.9555	16.71753
0.956	11.78284
0.9565	12.78992
0.957	15.1062
0.9575	14.60266
0.958	14.40125
0.9585	11.98425
0.959	8.35876
0.9595	11.68213
0.96	13.19275
0.9605	14.09912
0.961	1.10779
0.9615	-0.90637
0.962	-2.01416
0.9625	-5.23682
0.963	-4.33044
0.9635	-2.21558
0.964	-1.40991
0.9645	8.35876
0.965	6.84814
0.9655	2.5177
0.966	0.40283
0.9665	1.91345
0.967	1.40991
0.9675	0
0.968	-4.73328
0.9685	-6.54602
0.969	-4.22974
0.9695	-3.42407
0.97	-3.12195
0.9705	-10.47363
0.971	-4.22974
0.9715	-0.30212
0.972	-0.20142
0.9725	-4.53186
0.973	1.3092
0.9735	1.2085
0.974	2.71912
0.9745	10.17151
0.975	10.17151
0.9755	16.41541
0.976	20.84656
0.9765	18.8324
0.977	18.42957
0.9775	13.19275
0.978	17.72461
0.9785	14.19983
0.979	14.70337
0.9795	15.30762
0.98	16.21399
0.9805	15.91187
0.981	13.59558
0.9815	7.45239
0.982	4.02832
0.9825	4.73328
0.983	7.35168
0.9835	4.22974
0.984	3.12195
0.9845	4.53186
0.985	7.04956
0.9855	10.37292
0.986	4.33044
0.9865	-1.00708
0.987	5.94177
0.9875	-0.80566
0.988	2.41699
0.9885	-3.12195
0.989	5.94177
0.9895	-4.63257
0.99	-0.40283
0.9905	-2.92053
0.991	-6.94885
0.9915	-0.90637
0.992	-6.3446
0.9925	-3.12195
0.993	-4.12903
0.9935	-1.00708
0.994	6.64673
0.9945	2.41699
0.995	5.33752
0.9955	11.58142
0.996	16.21399
0.9965	17.12036
0.997	16.51611
0.9975	21.3501
0.998	16.21399
0.9985	16.51611
0.999	20.44373
0.9995	18.42957
1	20.94727
1.0005	18.8324
1.001	11.17859
1.0015	11.58142
1.002	11.2793
1.0025	14.30054
1.003	15.1062
1.0035	10.0708
1.004	17.72461
1.0045	12.38708
1.005	12.99133
1.0055	12.5885
1.006	9.97009
1.0065	7.75452
1.007	11.78284
1.0075	7.35168
1.008	6.64673
1.0085	2.21558
1.009	3.52478
1.0095	4.22974
1.01	3.92761
1.0105	2.31628
1.011	2.61841
1.0115	-0.70496
1.012	-3.02124
1.0125	2.41699
1.013	3.52478
1.0135	-0.80566
1.014	-3.8269
1.0145	2.92053
1.015	6.3446
1.0155	1.40991
1.016	1.71204
1.0165	3.92761
1.017	4.02832
1.0175	5.74036
1.018	0.20142
1.0185	-2.92053
1.019	-6.3446
1.0195	-4.22974
1.02	-2.92053
1.0205	-1.00708
1.021	-4.33044
1.0215	-4.02832
1.022	-2.31628
1.0225	0.70496
1.023	-1.51062
1.0235	0.70496
1.024	3.7262
1.0245	4.43115
1.025	7.25098
1.0255	14.09912
1.026	11.78284
1.0265	9.66797
1.027	13.59558
1.0275	14.19983
1.028	8.45947
1.0285	14.40125
1.029	10.57434
1.0295	7.25098
1.03	9.46655
1.0305	1.2085
1.031	3.02124
1.0315	6.2439
1.032	8.15735
1.0325	6.74744
1.033	2.31628
1.0335	6.64673
1.034	8.25806
1.0345	6.2439
1.035	4.63257
1.0355	1.61133
1.036	3.12195
1.0365	-1.3092
1.037	-10.27222
1.0375	-5.74036
1.038	-5.53894
1.0385	-1.3092
1.039	-0.90637
1.0395	4.12903
1.04	6.84814
1.0405	5.84106
1.041	3.22266
1.0415	4.93469
1.042	8.7616
1.0425	12.18567
1.043	15.40833
1.0435	18.63098
1.044	14.50195
1.0445	10.97717
1.045	13.59558
1.0455	10.17151
1.046	5.53894
1.0465	9.97009
1.047	8.25806
1.0475	10.37292
1.048	6.64673
1.0485	7.15027
1.049	-3.42407
1.0495	-0.90637
1.05	-4.73328
1.0505	-8.35876
1.051	-11.58142
1.0515	-7.75452
1.052	-1.40991
1.0525	-1.61133
1.053	-4.22974
1.0535	4.83398
1.054	3.02124
1.0545	7.04956
1.055	2.81982
1.0555	2.5177
1.056	8.8623
1.0565	5.43823
1.057	6.74744
1.0575	7.95593
1.058	11.07788
1.0585	9.86938
1.059	10.37292
1.0595	17.92603
1.06	21.24939
1.0605	15.40833
1.061	18.73169
1.0615	12.68921
1.062	15.60974
1.0625	15.81116
1.063	11.38
1.0635	9.16443
1.064	18.42957
1.0645	18.12744
1.065	11.2793
1.0655	13.09204
1.066	6.64673
1.0665	8.25806
1.067	2.92053
1.0675	3.32336
1.068	6.84814
1.0685	4.53186
1.069	3.22266
1.0695	1.81274
1.07	-4.53186
1.0705	6.44531
1.071	1.81274
1.0715	10.97717
1.072	5.0354
1.0725	3.92761
1.073	4.63257
1.0735	5.23682
1.074	6.14319
1.0745	2.92053
1.075	6.2439
1.0755	5.53894
1.076	2.41699
1.0765	10.87646
1.077	8.7616
1.0775	10.77576
1.078	11.68213
1.0785	6.94885
1.079	11.17859
1.0795	7.75452
1.08	8.15735
1.0805	8.15735
1.081	7.5531
1.0815	7.65381
1.082	7.15027
1.0825	0.20142
1.083	1.71204
1.0835	8.05664
1.084	6.74744
1.0845	2.71912
1.085	-6.94885
1.0855	-0.40283
1.086	-1.10779
1.0865	1.51062
1.087	5.23682
1.0875	1.81274
1.088	1.40991
1.0885	5.0354
1.089	7.25098
1.0895	11.07788
1.09	8.45947
1.0905	0.10071
1.091	3.62549
1.0915	3.02124
1.092	6.64673
1.0925	6.14319
1.093	6.04248
1.0935	1.2085
1.094	-9.46655
1.0945	-3.42407
1.095	-1.81274
1.0955	-3.7262
1.096	-2.61841
1.0965	-1.91345
1.097	-8.15735
1.0975	-6.94885
1.098	-2.5177
1.0985	3.02124
1.099	7.95593
1.0995	8.7616
1.1	13.59558
1.1005	14.40125
1.101	15.60974
1.1015	16.81824
1.102	17.32178
1.1025	20.74585
1.103	19.43665
1.1035	18.02673
1.104	18.53027
1.1045	25.57983
1.105	22.96143
1.1055	14.30054
1.106	16.01257
1.1065	17.01965
1.107	19.33594
1.1075	11.38
1.108	5.0354
1.1085	5.33752
1.109	8.25806
1.1095	8.25806
1.11	10.37292
1.1105	10.77576
1.111	6.44531
1.1115	-3.12195
1.112	-4.43115
1.1125	-1.71204
1.113	-3.42407
1.1135	-1.81274
1.114	0.40283
1.1145	2.41699
1.115	1.51062
1.1155	0.30212
1.116	3.7262
1.1165	1.71204
1.117	1.2085
1.1175	4.02832
1.118	2.01416
1.1185	2.71912
1.119	8.35876
1.1195	9.36584
1.12	7.25098
1.1205	2.41699
1.121	5.94177
1.1215	9.86938
1.122	7.35168
1.1225	2.01416
1.123	6.04248
1.1235	6.94885
1.124	4.53186
1.1245	2.71912
1.125	6.64673
1.1255	4.83398
1.126	6.94885
1.1265	7.15027
1.127	5.43823
1.1275	6.04248
1.128	3.12195
1.1285	3.62549
1.129	8.15735
1.1295	9.36584
1.13	6.2439
1.1305	4.12903
1.131	5.84106
1.1315	9.66797
1.132	7.65381
1.1325	7.15027
1.133	1.00708
1.1335	1.61133
1.134	3.32336
1.1345	7.75452
1.135	8.8623
1.1355	8.7616
1.136	4.33044
1.1365	12.78992
1.137	14.90479
1.1375	11.58142
1.138	5.33752
1.1385	-4.12903
1.139	-7.95593
1.1395	-6.04248
1.14	-10.37292
1.1405	-6.54602
1.141	-7.45239
1.1415	-3.12195
1.142	-3.52478
1.1425	-0.40283
1.143	-2.71912
1.1435	-3.92761
1.144	-6.14319
1.1445	-2.81982
1.145	-5.23682
1.1455	0.60425
1.146	-0.20142
1.1465	3.22266
1.147	7.65381
1.1475	9.36584
1.148	10.57434
1.1485	10.37292
1.149	17.22107
1.1495	20.24231
1.15	16.3147
1.1505	16.21399
1.151	16.71753
1.1515	11.2793
1.152	10.47363
1.1525	10.97717
1.153	8.15735
1.1535	6.74744
1.154	5.63965
1.1545	10.27222
1.155	10.27222
1.1555	6.3446
1.156	9.66797
1.1565	7.75452
1.157	3.92761
1.1575	2.21558
1.158	3.42407
1.1585	5.23682
1.159	-3.32336
1.1595	-0.90637
1.16	4.02832
1.1605	7.45239
1.161	11.78284
1.1615	11.88354
1.162	10.87646
1.1625	9.76868
1.163	9.06372
1.1635	10.17151
1.164	5.94177
1.1645	10.87646
1.165	16.71753
1.1655	19.83948
1.166	16.61682
1.1665	17.12036
1.167	14.60266
1.1675	9.66797
1.168	11.88354
1.1685	9.16443
1.169	8.05664
1.1695	5.33752
1.17	8.25806
1.1705	6.54602
1.171	9.26514
1.1715	8.15735
1.172	2.81982
1.1725	11.17859
1.173	13.89771
1.1735	9.97009
1.174	1.3092
1.1745	1.61133
1.175	3.62549
1.1755	9.56726
1.176	8.56018
1.1765	3.92761
1.177	4.02832
1.1775	-0.50354
1.178	5.53894
1.1785	-2.31628
1.179	-3.92761
1.1795	-1.00708
1.18	-0.20142
1.1805	7.85522
1.181	6.44531
1.1815	16.01257
1.182	9.06372
1.1825	15.71045
1.183	11.17859
1.1835	20.64514
1.184	6.74744
1.1845	8.96301
1.185	10.0708
1.1855	4.93469
1.186	10.17151
1.1865	6.04248
1.187	8.8623
1.1875	4.43115
1.188	2.11487
1.1885	8.56018
1.189	3.02124
1.1895	6.3446
1.19	5.84106
1.1905	3.7262
1.191	3.8269
1.1915	6.2439
1.192	3.02124
1.1925	5.43823
1.193	9.97009
1.1935	9.86938
1.194	3.8269
1.1945	7.5531
1.195	10.37292
1.1955	13.797
1.196	8.56018
1.1965	8.25806
1.197	7.35168
1.1975	5.63965
1.198	6.94885
1.1985	6.14319
1.199	9.16443
1.1995	9.16443
1.2	7.5531
1.2005	4.43115
1.201	0.90637
1.2015	8.7616
1.202	5.0354
1.2025	3.62549
1.203	3.32336
1.2035	7.15027
1.204	10.17151
1.2045	-3.92761
1.205	0.60425
1.2055	3.22266
1.206	3.52478
1.2065	5.0354
1.207	5.13611
1.2075	3.7262
1.208	4.53186
1.2085	10.77576
1.209	10.37292
1.2095	9.76868
1.21	2.5177
1.2105	6.3446
1.211	1.91345
1.2115	3.92761
1.212	5.94177
1.2125	2.81982
1.213	10.37292
1.2135	7.25098
1.214	4.83398
1.2145	9.66797
1.215	7.85522
1.2155	3.22266
1.216	-7.45239
1.2165	-5.94177
1.217	-7.15027
1.2175	-7.45239
1.218	-9.76868
1.2185	-7.75452
1.219	-10.87646
1.2195	-7.65381
1.22	1.51062
1.2205	-1.00708
1.221	0.70496
1.2215	1.91345
1.222	5.33752
1.2225	9.86938
1.223	3.52478
1.2235	7.35168
1.224	15.81116
1.2245	19.43665
1.225	22.45789
1.2255	18.63098
1.226	15.1062
1.2265	13.09204
1.227	13.99841
1.2275	13.797
1.228	12.08496
1.2285	14.09912
1.229	9.66797
1.2295	10.97717
1.23	4.02832
1.2305	9.06372
1.231	6.74744
1.2315	1.91345
1.232	-0.80566
1.2325	-1.10779
1.233	-9.46655
1.2335	0.10071
1.234	-1.00708
1.2345	-1.40991
1.235	0.40283
1.2355	3.62549
1.236	1.81274
1.2365	-1.61133
1.237	-5.13611
1.2375	-7.35168
1.238	-5.53894
1.2385	-1.2085
1.239	-5.63965
1.2395	-3.7262
1.24	-1.51062
1.2405	2.21558
1.241	0.10071
1.2415	4.33044
1.242	6.44531
1.2425	12.78992
1.243	14.19983
1.2435	13.09204
1.244	9.16443
1.2445	9.16443
1.245	7.15027
1.2455	7.04956
1.246	2.01416
1.2465	-4.53186
1.247	-5.23682
1.2475	1.00708
1.248	0.40283
1.2485	-0.60425
1.249	4.22974
1.2495	10.0708
1.25	12.89062
1.2505	9.36584
1.251	10.97717
1.2515	12.89062
1.252	10.67505
1.2525	10.37292
1.253	9.66797
1.2535	9.46655
1.254	5.94177
1.2545	10.67505
1.255	9.97009
1.2555	4.73328
1.256	5.43823
1.2565	1.10779
1.257	4.22974
1.2575	2.21558
1.258	2.5177
1.2585	3.12195
1.259	3.02124
1.2595	1.61133
1.26	1.51062
1.2605	2.41699
1.261	7.25098
1.2615	8.15735
1.262	5.33752
1.2625	6.54602
1.263	11.38
1.2635	9.46655
1.264	6.94885
1.2645	7.15027
1.265	6.84814
1.2655	13.09204
1.266	10.97717
1.2665	8.35876
1.267	4.73328
1.2675	2.71912
1.268	7.95593
1.2685	5.33752
1.269	2.31628
1.2695	3.12195
1.27	-0.40283
1.2705	-0.40283
1.271	1.51062
1.2715	2.61841
1.272	0.40283
1.2725	-2.92053
1.273	-2.81982
1.2735	-5.63965
1.274	-8.8623
1.2745	-13.59558
1.275	-12.5885
1.2755	-8.45947
1.276	-6.3446
1.2765	-0.40283
1.277	0.50354
1.2775	6.44531
1.278	6.64673
1.2785	17.42249
1.279	24.37134
1.2795	22.86072
1.28	25.47913
1.2805	27.79541
1.281	25.27771
1.2815	26.3855
1.282	22.45789
1.2825	21.24939
1.283	20.04089
1.2835	17.72461
1.284	15.50903
1.2845	17.32178
1.285	16.3147
1.2855	18.12744
1.286	13.59558
1.2865	11.38
1.287	10.47363
1.2875	13.19275
1.288	7.95593
1.2885	6.04248
1.289	7.35168
1.2895	11.78284
1.29	8.05664
1.2905	11.17859
1.291	15.91187
1.2915	12.18567
1.292	10.17151
1.2925	7.85522
1.293	-0.60425
1.2935	-6.3446
1.294	-0.90637
1.2945	2.31628
1.295	4.02832
1.2955	2.61841
1.296	3.92761
1.2965	3.8269
1.297	4.33044
1.2975	7.04956
1.298	6.04248
1.2985	5.84106
1.299	10.17151
1.2995	8.7616
1.3	0.50354
1.3005	-1.10779
1.301	-1.3092
1.3015	2.41699
1.302	-2.81982
1.3025	2.21558
1.303	3.02124
1.3035	-0.50354
1.304	2.01416
1.3045	0
1.305	2.61841
1.3055	5.23682
1.306	4.73328
1.3065	3.92761
1.307	2.71912
1.3075	4.33044
1.308	11.07788
1.3085	7.04956
1.309	4.93469
1.3095	0.60425
1.31	2.41699
1.3105	-2.71912
1.311	3.92761
1.3115	3.32336
1.312	5.74036
1.3125	4.63257
1.313	2.71912
1.3135	8.56018
1.314	7.85522
1.3145	8.45947
1.315	5.53894
1.3155	9.56726
1.316	9.76868
1.3165	9.76868
1.317	12.89062
1.3175	10.57434
1.318	7.25098
1.3185	0.60425
1.319	-2.41699
1.3195	-0.80566
1.32	2.01416
1.3205	0.80566
1.321	4.83398
1.3215	3.32336
1.322	1.51062
1.3225	1.00708
1.323	5.63965
1.3235	8.96301
1.324	9.26514
1.3245	12.48779
1.325	14.40125
1.3255	12.28638
1.326	8.8623
1.3265	8.56018
1.327	4.22974
1.3275	4.22974
1.328	-2.61841
1.3285	3.12195
1.329	6.3446
1.3295	4.83398
1.33	4.93469
1.3305	4.12903
1.331	5.84106
1.3315	4.43115
1.332	3.32336
1.3325	6.74744
1.333	6.14319
1.3335	1.91345
1.334	0.80566
1.3345	-3.7262
1.335	-1.91345
1.3355	-1.81274
1.336	-1.00708
1.3365	-1.71204
1.337	2.31628
1.3375	1.40991
1.338	-1.61133
1.3385	6.14319
1.339	7.35168
1.3395	3.62549
1.34	10.0708
1.3405	9.56726
1.341	15.00549
1.3415	12.68921
1.342	11.17859
1.3425	14.09912
1.343	19.43665
1.3435	20.54443
1.344	18.32886
1.3445	17.72461
1.345	18.32886
1.3455	11.78284
1.346	15.00549
1.3465	14.40125
1.347	7.85522
1.3475	8.8623
1.348	1.91345
1.3485	5.63965
1.349	4.22974
1.3495	11.68213
1.35	5.53894
1.3505	7.25098
1.351	4.43115
1.3515	6.74744
1.352	7.04956
1.3525	10.87646
1.353	12.89062
1.3535	5.63965
1.354	14.40125
1.3545	9.86938
1.355	13.49487
1.3555	6.3446
1.356	10.17151
1.3565	12.08496
1.357	12.89062
1.3575	8.66089
1.358	4.33044
1.3585	9.66797
1.359	4.43115
1.3595	2.01416
1.36	-4.02832
1.3605	-3.8269
1.361	-6.94885
1.3615	-7.35168
1.362	-4.02832
1.3625	0.10071
1.363	2.31628
1.3635	-0.80566
1.364	-2.01416
1.3645	2.5177
1.365	5.43823
1.3655	11.68213
1.366	0.60425
1.3665	-0.10071
1.367	1.40991
1.3675	4.63257
1.368	5.74036
1.3685	8.7616
1.369	7.75452
1.3695	5.13611
1.37	6.64673
1.3705	7.45239
1.371	11.07788
1.3715	8.56018
1.372	8.35876
1.3725	11.38
1.373	11.88354
1.3735	6.74744
1.374	5.0354
1.3745	4.33044
1.375	4.12903
1.3755	0.20142
1.376	-1.00708
1.3765	0.20142
1.377	-1.00708
1.3775	-7.65381
1.378	-11.2793
1.3785	-7.45239
1.379	-7.5531
1.3795	-1.10779
1.38	-0.40283
1.3805	-1.3092
1.381	2.41699
1.3815	4.53186
1.382	8.8623
1.3825	8.05664
1.383	3.22266
1.3835	8.56018
1.384	12.48779
1.3845	15.91187
1.385	13.29346
1.3855	21.14868
1.386	14.60266
1.3865	14.09912
1.387	14.60266
1.3875	9.46655
1.388	-0.10071
1.3885	5.74036
1.389	0.30212
1.3895	1.71204
1.39	-0.80566
1.3905	-0.70496
1.391	1.61133
1.3915	3.8269
1.392	4.93469
1.3925	9.36584
1.393	10.37292
1.3935	4.63257
1.394	11.58142
1.3945	8.96301
1.395	6.3446
1.3955	11.07788
1.396	11.78284
1.3965	10.57434
1.397	10.97717
1.3975	9.86938
1.398	1.91345
1.3985	-0.40283
1.399	0.40283
1.3995	-5.74036
1.4	-4.22974
1.4005	-3.02124
1.401	-1.2085
1.4015	-3.62549
1.402	-5.13611
1.4025	-0.90637
1.403	-3.32336
1.4035	-2.11487
1.404	0.40283
1.4045	4.83398
1.405	4.22974
1.4055	6.74744
1.406	10.27222
1.4065	14.50195
1.407	15.1062
1.4075	15.1062
1.408	17.6239
1.4085	13.99841
1.409	8.96301
1.4095	8.25806
1.41	0.20142
1.4105	5.13611
1.411	-0.30212
1.4115	5.53894
1.412	1.2085
1.4125	-5.13611
1.413	-7.45239
1.4135	-11.07788
1.414	-12.68921
1.4145	-9.16443
1.415	-6.54602
1.4155	-10.0708
1.416	-3.32336
1.4165	-7.65381
1.417	-5.53894
1.4175	0.10071
1.418	6.54602
1.4185	15.20691
1.419	10.57434
1.4195	12.08496
1.42	15.1062
1.4205	14.80408
1.421	17.32178
1.4215	18.12744
1.422	21.55151
1.4225	16.61682
1.423	22.05505
1.4235	19.13452
1.424	19.03381
1.4245	15.30762
1.425	16.51611
1.4255	13.19275
1.426	9.46655
1.4265	8.45947
1.427	5.33752
1.4275	6.04248
1.428	3.92761
1.4285	2.21558
1.429	2.41699
1.4295	3.22266
1.43	5.94177
1.4305	12.48779
1.431	9.76868
1.4315	10.87646
1.432	7.85522
1.4325	2.92053
1.433	7.35168
1.4335	3.92761
1.434	7.5531
1.4345	4.73328
1.435	0.40283
1.4355	1.40991
1.436	5.0354
1.4365	-0.90637
1.437	3.7262
1.4375	1.40991
1.438	2.41699
1.4385	6.3446
1.439	9.06372
1.4395	4.53186
1.44	7.45239
1.4405	5.23682
1.441	9.36584
1.4415	10.37292
1.442	11.2793
1.4425	9.06372
1.443	8.45947
1.4435	5.23682
1.444	6.3446
1.4445	5.23682
1.445	0.40283
1.4455	7.45239
1.446	3.32336
1.4465	11.78284
1.447	7.95593
1.4475	0.30212
1.448	1.40991
1.4485	1.3092
1.449	-1.10779
1.4495	-2.21558
1.45	-0.10071
1.4505	2.01416
1.451	0.40283
1.4515	7.5531
1.452	3.62549
1.4525	4.43115
1.453	5.94177
1.4535	7.35168
1.454	11.07788
1.4545	10.47363
1.455	5.63965
1.4555	8.15735
1.456	7.85522
1.4565	6.64673
1.457	1.61133
1.4575	1.71204
1.458	2.11487
1.4585	7.95593
1.459	6.54602
1.4595	-2.11487
1.46	7.85522
1.4605	7.85522
1.461	12.48779
1.4615	13.89771
1.462	20.94727
1.4625	17.32178
1.463	19.13452
1.4635	17.82532
1.464	17.82532
1.4645	17.12036
1.465	16.51611
1.4655	15.30762
1.466	12.18567
1.4665	16.3147
1.467	13.59558
1.4675	13.29346
1.468	11.07788
1.4685	11.38
1.469	5.0354
1.4695	5.43823
1.47	8.15735
1.4705	2.21558
1.471	1.81274
1.4715	3.12195
1.472	4.73328
1.4725	4.93469
1.473	-2.41699
1.4735	4.02832
1.474	0.30212
1.4745	2.41699
1.475	1.00708
1.4755	4.02832
1.476	-2.21558
1.4765	-4.02832
1.477	-1.00708
1.4775	-3.32336
1.478	1.81274
1.4785	0.10071
1.479	-4.33044
1.4795	-8.96301
1.48	2.5177
1.4805	2.5177
1.481	4.22974
1.4815	4.33044
1.482	9.97009
1.4825	11.38
1.483	4.43115
1.4835	9.06372
1.484	11.88354
1.4845	9.66797
1.485	9.06372
1.4855	8.45947
1.486	5.74036
1.4865	2.81982
1.487	1.3092
1.4875	0.50354
1.488	4.63257
1.4885	9.06372
1.489	12.08496
1.4895	12.38708
1.49	15.30762
1.4905	8.35876
1.491	10.87646
1.4915	6.14319
1.492	1.00708
1.4925	-0.40283
1.493	-1.2085
1.4935	-1.81274
1.494	-5.74036
1.4945	-2.92053
1.495	-3.62549
1.4955	-0.20142
1.496	-0.60425
1.4965	-1.91345
1.497	6.2439
1.4975	2.5177
1.498	10.77576
1.4985	12.48779
1.499	12.48779
1.4995	11.88354
1.5	10.77576
1.5005	13.19275
1.501	11.17859
1.5015	9.26514
1.502	0.90637
1.5025	3.52478
1.503	6.2439
1.5035	11.78284
1.504	10.77576
1.5045	7.5531
1.505	5.53894
1.5055	10.0708
1.506	9.97009
1.5065	8.66089
1.507	5.74036
1.5075	4.12903
1.508	7.15027
1.5085	7.65381
1.509	6.44531
1.5095	0.70496
1.51	2.01416
1.5105	10.97717
1.511	11.68213
1.5115	9.86938
1.512	11.2793
1.5125	9.66797
1.513	6.04248
1.5135	7.85522
1.514	7.25098
1.5145	8.45947
1.515	4.22974
1.5155	6.14319
1.516	2.21558
1.5165	4.33044
1.517	-3.92761
1.5175	-0.10071
1.518	-2.31628
1.5185	0.80566
1.519	-2.61841
1.5195	-2.71912
1.52	2.21558
1.5205	2.41699
1.521	0.60425
1.5215	8.35876
1.522	7.75452
1.5225	12.68921
1.523	17.22107
1.5235	15.20691
1.524	14.19983
1.5245	15.20691
1.525	19.53735
1.5255	19.73877
1.526	19.23523
1.5265	19.33594
1.527	19.13452
1.5275	13.99841
1.528	7.15027
1.5285	7.45239
1.529	10.37292
1.5295	6.74744
1.53	5.94177
1.5305	3.22266
1.531	10.17151
1.5315	-0.50354
1.532	4.53186
1.5325	-0.60425
1.533	6.54602
1.5335	4.12903
1.534	1.61133
1.5345	-4.02832
1.535	-8.25806
1.5355	-10.27222
1.536	-9.36584
1.5365	-5.94177
1.537	-6.2439
1.5375	-6.2439
1.538	-7.95593
1.5385	-3.8269
1.539	0.60425
1.5395	3.22266
1.54	1.10779
1.5405	3.62549
1.541	12.68921
1.5415	11.17859
1.542	13.797
1.5425	12.38708
1.543	10.97717
1.5435	5.43823
1.544	6.74744
1.5445	9.46655
1.545	4.73328
1.5455	6.74744
1.546	6.2439
1.5465	8.15735
1.547	7.35168
1.5475	6.3446
1.548	9.46655
1.5485	5.94177
1.549	2.71912
1.5495	2.5177
1.55	6.54602
1.5505	13.09204
1.551	6.64673
1.5515	13.69629
1.552	13.49487
1.5525	16.51611
1.553	18.12744
1.5535	15.00549
1.554	23.06213
1.5545	20.64514
1.555	18.22815
1.5555	12.38708
1.556	14.50195
1.5565	13.797
1.557	15.00549
1.5575	7.95593
1.558	7.75452
1.5585	10.87646
1.559	5.13611
1.5595	6.74744
1.56	9.26514
1.5605	10.0708
1.561	5.74036
1.5615	0.10071
1.562	-2.11487
1.5625	-5.13611
1.563	-3.12195
1.5635	-0.90637
1.564	0.70496
1.5645	7.04956
1.565	6.3446
1.5655	3.52478
1.566	4.53186
1.5665	3.12195
1.567	3.52478
1.5675	3.42407
1.568	1.2085
1.5685	9.06372
1.569	10.27222
1.5695	14.09912
1.57	11.78284
1.5705	5.33752
1.571	2.31628
1.5715	1.71204
1.572	4.53186
1.5725	0.40283
1.573	8.35876
1.5735	9.06372
1.574	5.13611
1.5745	3.7262
1.575	7.95593
1.5755	4.73328
1.576	5.13611
1.5765	-1.81274
1.577	-3.42407
1.5775	-0.50354
1.578	-1.51062
1.5785	-0.40283
1.579	-4.93469
1.5795	-0.30212
1.58	0.10071
1.5805	5.63965
1.581	0.10071
1.5815	5.33752
1.582	5.74036
1.5825	4.43115
1.583	8.35876
1.5835	8.56018
1.584	10.27222
1.5845	10.37292
1.585	13.59558
1.5855	20.24231
1.586	15.20691
1.5865	17.12036
1.587	11.98425
1.5875	12.18567
1.588	9.76868
1.5885	11.88354
1.589	10.87646
1.5895	13.69629
1.59	15.00549
1.5905	18.42957
1.591	15.1062
1.5915	13.19275
1.592	8.56018
1.5925	1.00708
1.593	-0.60425
1.5935	1.3092
1.594	5.63965
1.5945	4.83398
1.595	5.84106
1.5955	1.51062
1.596	2.21558
1.5965	-1.10779
1.597	3.42407
1.5975	0.50354
1.598	6.04248
1.5985	5.0354
1.599	3.02124
1.5995	2.81982
1.6	5.13611
1.6005	3.22266
1.601	-5.94177
1.6015	-2.71912
1.602	5.0354
1.6025	0.70496
1.603	4.63257
1.6035	5.13611
1.604	4.83398
1.6045	-0.40283
1.605	6.84814
1.6055	3.42407
1.606	3.12195
1.6065	7.45239
1.607	8.05664
1.6075	9.06372
1.608	6.3446
1.6085	7.95593
1.609	8.8623
1.6095	10.27222
1.61	5.0354
1.6105	0.70496
1.611	0.80566
1.6115	1.00708
1.612	0.70496
1.6125	2.31628
1.613	3.8269
1.6135	-0.80566
1.614	5.0354
1.6145	9.76868
1.615	6.74744
1.6155	4.73328
1.616	6.74744
1.6165	11.48071
1.617	8.45947
1.6175	8.66089
1.618	9.16443
1.6185	10.17151
1.619	6.54602
1.6195	9.46655
1.62	9.26514
1.6205	10.47363
1.621	10.37292
1.6215	9.66797
1.622	8.7616
1.6225	7.75452
1.623	5.53894
1.6235	6.3446
1.624	9.66797
1.6245	7.5531
1.625	7.65381
1.6255	7.75452
1.626	1.91345
1.6265	2.92053
1.627	0.30212
1.6275	1.10779
1.628	-1.71204
1.6285	-5.53894
1.629	-1.00708
1.6295	-5.53894
1.63	-0.70496
1.6305	1.00708
1.631	1.00708
1.6315	-2.31628
1.632	1.2085
1.6325	-1.3092
1.633	0.70496
1.6335	0.50354
1.634	0
1.6345	-0.20142
1.635	3.22266
1.6355	5.84106
1.636	10.37292
1.6365	5.63965
1.637	6.04248
1.6375	2.01416
1.638	6.54602
1.6385	6.04248
1.639	5.74036
1.6395	-4.73328
1.64	-1.2085
1.6405	6.74744
1.641	6.2439
1.6415	3.8269
1.642	7.25098
1.6425	4.43115
1.643	3.8269
1.6435	-1.00708
1.644	-0.80566
1.6445	0.50354
1.645	7.04956
1.6455	7.5531
1.646	6.84814
1.6465	4.93469
1.647	4.63257
1.6475	2.31628
1.648	5.33752
1.6485	7.75452
1.649	7.45239
1.6495	11.78284
1.65	12.28638
1.6505	10.77576
1.651	7.75452
1.6515	2.61841
1.652	2.11487
1.6525	5.23682
1.653	1.61133
1.6535	1.40991
1.654	-1.3092
1.6545	-10.17151
1.655	-3.62549
1.6555	-3.7262
1.656	3.62549
1.6565	4.33044
1.657	6.94885
1.6575	8.96301
1.658	6.44531
1.6585	7.35168
1.659	11.07788
1.6595	5.74036
1.66	9.36584
1.6605	10.67505
1.661	8.8623
1.6615	7.75452
1.662	-0.50354
1.6625	3.32336
1.663	1.61133
1.6635	1.91345
1.664	2.41699
1.6645	3.52478
1.665	4.93469
1.6655	5.94177
1.666	9.06372
1.6665	10.37292
1.667	17.72461
1.6675	15.20691
1.668	10.97717
1.6685	9.66797
1.669	12.18567
1.6695	18.93311
1.67	15.30762
1.6705	13.69629
1.671	13.09204
1.6715	19.94019
1.672	13.19275
1.6725	7.25098
1.673	9.16443
1.6735	5.43823
1.674	0.80566
1.6745	4.43115
1.675	7.85522
1.6755	6.04248
1.676	8.7616
1.6765	6.64673
1.677	6.14319
1.6775	6.3446
1.678	2.41699
1.6785	0.70496
1.679	-5.84106
1.6795	-8.96301
1.68	-12.68921
1.6805	-6.74744
1.681	-11.58142
1.6815	-12.68921
1.682	-18.42957
1.6825	-12.89062
1.683	-13.49487
1.6835	-7.95593
1.684	-6.64673
1.6845	1.40991
1.685	6.94885
1.6855	7.25098
1.686	16.51611
1.6865	17.82532
1.687	15.50903
1.6875	20.54443
1.688	22.96143
1.6885	17.22107
1.689	21.24939
1.6895	23.8678
1.69	27.29187
1.6905	18.32886
1.691	17.6239
1.6915	22.86072
1.692	18.22815
1.6925	18.93311
1.693	8.56018
1.6935	16.71753
1.694	11.38
1.6945	8.45947
1.695	11.98425
1.6955	11.2793
1.696	7.65381
1.6965	4.83398
1.697	6.44531
1.6975	11.58142
1.698	6.04248
1.6985	-1.91345
1.699	5.63965
1.6995	4.43115
1.7	7.45239
1.7005	5.94177
1.701	5.94177
1.7015	6.44531
1.702	4.63257
1.7025	6.04248
1.703	3.8269
1.7035	9.16443
1.704	5.94177
1.7045	10.97717
1.705	17.6239
1.7055	11.38
1.706	7.5531
1.7065	8.96301
1.707	6.94885
1.7075	8.45947
1.708	5.94177
1.7085	5.0354
1.709	-1.71204
1.7095	-5.0354
1.71	-6.2439
1.7105	-15.71045
1.711	-13.69629
1.7115	-7.35168
1.712	-8.56018
1.7125	-14.70337
1.713	-8.8623
1.7135	-3.42407
1.714	-2.92053
1.7145	0.50354
1.715	4.93469
1.7155	3.52478
1.716	10.27222
1.7165	8.15735
1.717	10.57434
1.7175	15.81116
1.718	16.81824
1.7185	11.98425
1.719	13.39417
1.7195	9.36584
1.72	6.94885
1.7205	4.22974
1.721	5.84106
1.7215	13.59558
1.722	10.17151
1.7225	11.07788
1.723	6.54602
1.7235	7.5531
1.724	4.02832
1.7245	8.45947
1.725	6.94885
1.7255	5.43823
1.726	12.99133
1.7265	11.38
1.727	7.15027
1.7275	7.25098
1.728	7.65381
1.7285	9.97009
1.729	8.66089
1.7295	8.25806
1.73	5.33752
1.7305	7.25098
1.731	10.17151
1.7315	11.38
1.732	6.44531
1.7325	7.04956
1.733	13.09204
1.7335	11.68213
1.734	12.78992
1.7345	10.0708
1.735	10.77576
1.7355	11.2793
1.736	8.8623
1.7365	6.84814
1.737	9.86938
1.7375	7.25098
1.738	1.00708
1.7385	6.84814
1.739	5.43823
1.7395	8.8623
1.74	5.53894
1.7405	3.52478
1.741	1.3092
1.7415	4.02832
1.742	3.42407
1.7425	3.62549
1.743	1.81274
1.7435	3.02124
1.744	7.95593
1.7445	4.83398
1.745	6.44531
1.7455	5.53894
1.746	4.93469
1.7465	2.01416
1.747	3.7262
1.7475	3.8269
1.748	1.61133
1.7485	-0.40283
1.749	3.12195
1.7495	2.41699
1.75	3.62549
1.7505	5.13611
1.751	1.91345
1.7515	6.54602
1.752	4.53186
1.7525	8.35876
1.753	4.63257
1.7535	5.33752
1.754	4.43115
1.7545	7.45239
1.755	5.63965
1.7555	9.26514
1.756	7.85522
1.7565	5.0354
1.757	4.43115
1.7575	7.04956
1.758	8.35876
1.7585	2.31628
1.759	-0.50354
1.7595	-0.10071
1.76	-6.94885
1.7605	-4.33044
1.761	-6.14319
1.7615	-3.42407
1.762	-6.2439
1.7625	-5.74036
1.763	-1.71204
1.7635	-2.41699
1.764	2.11487
1.7645	7.5531
1.765	9.46655
1.7655	12.78992
1.766	12.5885
1.7665	20.94727
1.767	22.96143
1.7675	17.92603
1.768	16.61682
1.7685	18.42957
1.769	12.99133
1.7695	7.75452
1.77	3.8269
1.7705	-0.50354
1.771	1.40991
1.7715	3.42407
1.772	2.92053
1.7725	4.12903
1.773	6.84814
1.7735	8.05664
1.774	7.04956
1.7745	5.84106
1.775	4.33044
1.7755	0.60425
1.776	5.33752
1.7765	4.93469
1.777	5.53894
1.7775	8.45947
1.778	1.81274
1.7785	0.90637
1.779	6.64673
1.7795	3.02124
1.78	-0.10071
1.7805	-2.92053
1.781	-5.84106
1.7815	-5.33752
1.782	-3.42407
1.7825	0.90637
1.783	-2.61841
1.7835	2.41699
1.784	0.20142
1.7845	5.53894
1.785	3.42407
1.7855	9.16443
1.786	7.45239
1.7865	7.85522
1.787	16.61682
1.7875	13.09204
1.788	15.00549
1.7885	12.38708
1.789	9.46655
1.7895	11.78284
1.79	11.48071
1.7905	8.96301
1.791	10.27222
1.7915	8.96301
1.792	8.45947
1.7925	11.2793
1.793	7.85522
1.7935	10.77576
1.794	6.04248
1.7945	4.63257
1.795	3.22266
1.7955	-2.92053
1.796	2.71912
1.7965	0.50354
1.797	5.84106
1.7975	4.93469
1.798	6.54602
1.7985	0
1.799	-1.10779
1.7995	3.7262
1.8	7.85522
1.8005	10.17151
1.801	11.78284
1.8015	7.95593
1.802	10.37292
1.8025	13.69629
1.803	7.95593
1.8035	8.7616
1.804	2.11487
1.8045	3.32336
1.805	7.65381
1.8055	4.02832
1.806	5.0354
1.8065	4.83398
1.807	6.44531
1.8075	6.54602
1.808	6.04248
1.8085	0.90637
1.809	5.94177
1.8095	2.81982
1.81	8.45947
1.8105	2.5177
1.811	6.64673
1.8115	-3.12195
1.812	-5.0354
1.8125	-5.74036
1.813	-6.84814
1.8135	-6.04248
1.814	-11.38
1.8145	-7.5531
1.815	0.20142
1.8155	3.52478
1.816	1.51062
1.8165	6.04248
1.817	17.52319
1.8175	13.99841
1.818	20.74585
1.8185	20.74585
1.819	20.64514
1.8195	23.36426
1.82	26.98975
1.8205	23.8678
1.821	28.39966
1.8215	19.13452
1.822	18.12744
1.8225	16.3147
1.823	12.08496
1.8235	5.84106
1.824	1.81274
1.8245	7.45239
1.825	9.46655
1.8255	5.74036
1.826	9.06372
1.8265	7.15027
1.827	3.42407
1.8275	2.92053
1.828	-3.7262
1.8285	-4.02832
1.829	-2.01416
1.8295	5.33752
1.83	9.56726
1.8305	3.42407
1.831	7.5531
1.8315	7.25098
1.832	3.92761
1.8325	6.44531
1.833	5.63965
1.8335	5.43823
1.834	3.12195
1.8345	6.2439
1.835	6.44531
1.8355	5.94177
1.836	3.52478
1.8365	6.74744
1.837	5.23682
1.8375	1.71204
1.838	0.20142
1.8385	3.7262
1.839	-1.40991
1.8395	-4.43115
1.84	-0.30212
1.8405	-1.51062
1.841	1.61133
1.8415	1.2085
1.842	3.22266
1.8425	2.21558
1.843	9.36584
1.8435	11.68213
1.844	11.58142
1.8445	14.50195
1.845	18.93311
1.8455	15.91187
1.846	17.22107
1.8465	18.32886
1.847	8.25806
1.8475	16.91895
1.848	10.17151
1.8485	12.48779
1.849	7.5531
1.8495	11.48071
1.85	9.26514
1.8505	9.97009
1.851	6.74744
1.8515	7.04956
1.852	3.32336
1.8525	4.83398
1.853	-1.2085
1.8535	1.81274
1.854	1.71204
1.8545	5.63965
1.855	4.73328
1.8555	4.73328
1.856	-1.91345
1.8565	-0.70496
1.857	0
1.8575	-0.20142
1.858	1.51062
1.8585	6.84814
1.859	-0.80566
1.8595	2.21558
1.86	3.62549
1.8605	7.25098
1.861	10.37292
1.8615	9.97009
1.862	8.45947
1.8625	5.33752
1.863	0.80566
1.8635	0.10071
1.864	-3.02124
1.8645	2.21558
1.865	4.12903
1.8655	-3.32336
1.866	-6.14319
1.8665	-5.43823
1.867	-10.57434
1.8675	-1.10779
1.868	0.90637
1.8685	-3.7262
1.869	-0.50354
1.8695	5.74036
1.87	9.06372
1.8705	6.64673
1.871	8.45947
1.8715	8.7616
1.872	8.15735
1.8725	8.56018
1.873	13.19275
1.8735	13.39417
1.874	12.08496
1.8745	17.12036
1.875	15.50903
1.8755	11.98425
1.876	11.68213
1.8765	5.43823
1.877	3.92761
1.8775	2.71912
1.878	-3.12195
1.8785	-6.3446
1.879	-11.07788
1.8795	-7.35168
1.88	-10.17151
1.8805	0.70496
1.881	-1.2085
1.8815	1.40991
1.882	4.22974
1.8825	4.63257
1.883	8.96301
1.8835	6.04248
1.884	11.88354
1.8845	3.52478
1.885	10.97717
1.8855	5.43823
1.886	5.53894
1.8865	11.48071
1.887	5.43823
1.8875	5.63965
1.888	1.51062
1.8885	0.30212
1.889	6.74744
1.8895	5.33752
1.89	7.04956
1.8905	7.35168
1.891	11.98425
1.8915	10.17151
1.892	6.04248
1.8925	11.98425
1.893	4.22974
1.8935	8.8623
1.894	8.8623
1.8945	10.47363
1.895	12.5885
1.8955	13.89771
1.896	15.00549
1.8965	8.66089
1.897	10.57434
1.8975	3.7262
1.898	1.2085
1.8985	-1.71204
1.899	0.60425
1.8995	0.30212
1.9	-2.11487
1.9005	0.70496
1.901	-0.90637
1.9015	-1.3092
1.902	1.71204
1.9025	5.53894
1.903	7.04956
1.9035	13.09204
1.904	8.66089
1.9045	6.04248
1.905	1.71204
1.9055	7.35168
1.906	1.71204
1.9065	0.90637
1.907	1.10779
1.9075	2.01416
1.908	2.71912
1.9085	2.21558
1.909	5.74036
1.9095	4.33044
1.91	3.62549
1.9105	4.02832
1.911	9.46655
1.9115	-1.10779
1.912	1.51062
1.9125	1.51062
1.913	4.22974
1.9135	10.27222
1.914	11.07788
1.9145	7.04956
1.915	5.33752
1.9155	-0.50354
1.916	1.2085
1.9165	4.12903
1.917	5.23682
1.9175	3.12195
1.918	-2.31628
1.9185	4.63257
1.919	2.41699
1.9195	-3.12195
1.92	3.22266
1.9205	3.42407
1.921	7.75452
1.9215	-1.81274
1.922	1.40991
1.9225	-1.51062
1.923	-0.50354
1.9235	-1.3092
1.924	4.53186
1.9245	-1.10779
1.925	1.40991
1.9255	1.51062
1.926	2.41699
1.9265	4.53186
1.927	7.75452
1.9275	15.71045
1.928	11.58142
1.9285	11.48071
1.929	13.59558
1.9295	10.87646
1.93	7.04956
1.9305	7.65381
1.931	10.77576
1.9315	8.8623
1.932	10.17151
1.9325	4.93469
1.933	7.5531
1.9335	4.63257
1.934	1.71204
1.9345	3.32336
1.935	-1.3092
1.9355	-0.40283
1.936	3.42407
1.9365	0.70496
1.937	2.71912
1.9375	2.01416
1.938	2.01416
1.9385	4.22974
1.939	3.8269
1.9395	-1.3092
1.94	0.70496
1.9405	5.23682
1.941	7.75452
1.9415	7.85522
1.942	7.04956
1.9425	7.35168
1.943	13.39417
1.9435	6.44531
1.944	9.56726
1.9445	5.63965
1.945	6.94885
1.9455	3.02124
1.946	5.84106
1.9465	4.53186
1.947	7.85522
1.9475	5.84106
1.948	6.2439
1.9485	1.71204
1.949	1.51062
1.9495	2.31628
1.95	6.3446
1.9505	4.53186
1.951	12.38708
1.9515	6.94885
1.952	3.22266
1.9525	9.16443
1.953	4.53186
1.9535	7.35168
1.954	8.66089
1.9545	11.07788
1.955	8.7616
1.9555	9.36584
1.956	3.42407
1.9565	4.33044
1.957	11.98425
1.9575	6.94885
1.958	9.16443
1.9585	8.35876
1.959	7.85522
1.9595	1.71204
1.96	-4.02832
1.9605	-7.15027
1.961	-12.78992
1.9615	-12.28638
1.962	-17.12036
1.9625	-16.3147
1.963	-16.41541
1.9635	-13.09204
1.964	-10.37292
1.9645	-7.35168
1.965	0.50354
1.9655	3.42407
1.966	9.06372
1.9665	13.49487
1.967	16.21399
1.9675	23.36426
1.968	33.03223
1.9685	32.42798
1.969	32.52869
1.9695	30.41382
1.97	24.37134
1.9705	22.25647
1.971	16.81824
1.9715	16.51611
1.972	6.94885
1.9725	9.36584
1.973	5.23682
1.9735	4.83398
1.974	6.44531
1.9745	-0.50354
1.975	-2.01416
1.9755	-3.02124
1.976	-5.84106
1.9765	-2.61841
1.977	-3.7262
1.9775	-0.90637
1.978	3.62549
1.9785	5.33752
1.979	12.99133
1.9795	9.86938
1.98	11.68213
1.9805	12.89062
1.981	15.30762
1.9815	14.60266
1.982	13.19275
1.9825	11.2793
1.983	7.45239
1.9835	11.58142
1.984	8.7616
1.9845	9.06372
1.985	4.02832
1.9855	6.04248
1.986	4.83398
1.9865	0.30212
1.987	-0.50354
1.9875	4.93469
1.988	5.33752
1.9885	8.56018
1.989	3.7262
1.9895	7.25098
1.99	3.52478
1.9905	2.21558
1.991	5.23682
1.9915	3.12195
1.992	2.01416
1.9925	7.25098
1.993	0.50354
1.9935	-0.20142
1.994	-2.92053
1.9945	4.83398
1.995	5.43823
1.9955	4.63257
1.996	12.18567
1.9965	7.85522
1.997	11.68213
1.9975	12.68921
1.998	10.97717
1.9985	10.17151
1.999	8.35876
1.9995	19.73877
2	13.29346
2.0005	20.44373
2.001	18.8324
2.0015	17.12036
2.002	13.69629
2.0025	13.09204
2.003	13.19275
2.0035	11.98425
2.004	10.0708
2.0045	8.45947
2.005	4.53186
2.0055	10.17151
2.006	10.87646
2.0065	7.35168
2.007	10.37292
2.0075	7.04956
2.008	6.64673
2.0085	4.93469
2.009	0.40283
2.0095	4.93469
2.01	11.98425
2.0105	10.67505
2.011	8.56018
2.0115	9.06372
2.012	11.88354
2.0125	3.62549
2.013	8.56018
2.0135	7.35168
2.014	5.94177
2.0145	10.37292
2.015	3.62549
2.0155	6.64673
2.016	5.84106
2.0165	6.94885
2.017	3.02124
2.0175	1.51062
2.018	2.01416
2.0185	4.43115
2.019	2.71912
2.0195	5.13611
2.02	12.78992
2.0205	8.45947
2.021	10.47363
2.0215	4.02832
2.022	3.8269
2.0225	7.04956
2.023	6.84814
2.0235	-0.10071
2.024	6.14319
2.0245	4.73328
2.025	0.50354
2.0255	0.10071
2.026	-0.80566
2.0265	2.01416
2.027	-2.21558
2.0275	2.71912
2.028	-1.00708
2.0285	0.10071
2.029	-0.90637
2.0295	1.3092
2.03	3.7262
2.0305	1.71204
2.031	1.00708
2.0315	-3.12195
2.032	-1.2085
2.0325	1.71204
2.033	0.10071
2.0335	-1.51062
2.034	4.43115
2.0345	4.83398
2.035	10.47363
2.0355	5.0354
2.036	-1.91345
2.0365	4.83398
2.037	8.35876
2.0375	4.02832
2.038	8.8623
2.0385	7.35168
2.039	-0.20142
2.0395	1.10779
2.04	8.8623
2.0405	3.02124
2.041	3.32336
2.0415	9.86938
2.042	3.62549
2.0425	7.15027
2.043	8.56018
2.0435	9.97009
2.044	15.40833
2.0445	9.46655
2.045	7.45239
2.0455	5.13611
2.046	7.25098
2.0465	0.80566
2.047	6.2439
2.0475	2.71912
2.048	2.81982
2.0485	1.61133
2.049	4.43115
2.0495	5.63965
2.05	2.21558
2.0505	5.74036
2.051	2.81982
2.0515	8.7616
2.052	11.78284
2.0525	14.09912
2.053	17.32178
2.0535	19.73877
2.054	14.80408
2.0545	19.43665
2.055	15.1062
2.0555	16.71753
2.056	14.19983
2.0565	4.53186
2.057	6.94885
2.0575	7.35168
2.058	5.84106
2.0585	7.95593
2.059	6.94885
2.0595	4.83398
2.06	3.42407
2.0605	-0.80566
2.061	-0.50354
2.0615	-1.61133
2.062	2.5177
2.0625	2.31628
2.063	2.92053
2.0635	2.41699
2.064	2.21558
2.0645	4.93469
2.065	4.02832
2.0655	4.02832
2.066	6.84814
2.0665	1.10779
2.067	4.22974
2.0675	2.5177
2.068	3.42407
2.0685	3.22266
2.069	8.45947
2.0695	5.63965
2.07	4.43115
2.0705	4.83398
2.071	8.7616
2.0715	3.92761
2.072	4.22974
2.0725	-0.10071
2.073	0.40283
2.0735	-1.10779
2.074	2.21558
2.0745	-2.61841
2.075	5.74036
2.0755	0.10071
2.076	-1.91345
2.0765	2.92053
2.077	0.60425
2.0775	0.70496
2.078	4.12903
2.0785	5.43823
2.079	7.95593
2.0795	12.18567
2.08	8.56018
2.0805	7.15027
2.081	11.78284
2.0815	13.797
2.082	10.67505
2.0825	17.72461
2.083	13.39417
2.0835	16.41541
2.084	10.0708
2.0845	9.56726
2.085	6.44531
2.0855	3.42407
2.086	5.53894
2.0865	4.12903
2.087	1.2085
2.0875	-2.11487
2.088	-2.5177
2.0885	-3.32336
2.089	-1.10779
2.0895	-2.61841
2.09	4.22974
2.0905	2.41699
2.091	-0.30212
2.0915	4.93469
2.092	11.58142
2.0925	15.81116
2.093	11.38
2.0935	16.3147
2.094	14.40125
2.0945	15.30762
2.095	22.55859
2.0955	21.3501
2.096	20.34302
2.0965	22.6593
2.097	15.40833
2.0975	11.88354
2.098	10.97717
2.0985	7.75452
2.099	11.58142
2.0995	10.17151
2.1	10.37292
2.1005	8.45947
2.101	13.89771
2.1015	13.09204
2.102	8.8623
2.1025	7.75452
2.103	3.52478
2.1035	1.00708
2.104	0.50354
2.1045	6.74744
2.105	9.76868
2.1055	8.05664
2.106	6.64673
2.1065	9.76868
2.107	10.77576
2.1075	8.35876
2.108	9.76868
2.1085	4.63257
2.109	4.63257
2.1095	11.17859
2.11	8.15735
2.1105	8.66089
2.111	7.35168
2.1115	9.76868
2.112	11.17859
2.1125	11.38
2.113	10.17151
2.1135	3.22266
2.114	1.2085
2.1145	1.2085
2.115	3.62549
2.1155	4.02832
2.116	3.7262
2.1165	4.33044
2.117	1.71204
2.1175	3.32336
2.118	4.73328
2.1185	6.94885
2.119	-0.10071
2.1195	1.71204
2.12	2.21558
2.1205	-5.94177
2.121	-4.22974
2.1215	-4.12903
2.122	-3.8269
2.1225	-3.7262
2.123	-2.21558
2.1235	2.5177
2.124	3.52478
2.1245	3.22266
2.125	4.33044
2.1255	0.30212
2.126	-2.01416
2.1265	-4.83398
2.127	2.92053
2.1275	-1.00708
2.128	12.48779
2.1285	9.36584
2.129	8.96301
2.1295	12.5885
2.13	13.69629
2.1305	19.33594
2.131	19.13452
2.1315	21.75293
2.132	17.42249
2.1325	14.90479
2.133	18.22815
2.1335	12.68921
2.134	5.94177
2.1345	7.75452
2.135	7.75452
2.1355	8.15735
2.136	5.84106
2.1365	5.53894
2.137	10.47363
2.1375	9.06372
2.138	11.17859
2.1385	-0.60425
2.139	-0.10071
2.1395	6.54602
2.14	6.04248
2.1405	6.3446
2.141	5.63965
2.1415	-4.43115
2.142	0.90637
2.1425	5.84106
2.143	2.11487
2.1435	8.56018
2.144	8.56018
2.1445	6.3446
2.145	13.59558
2.1455	10.67505
2.146	14.30054
2.1465	13.19275
2.147	15.91187
2.1475	7.25098
2.148	6.74744
2.1485	6.14319
2.149	0.90637
2.1495	-5.94177
2.15	-1.81274
2.1505	-3.52478
2.151	-7.65381
2.1515	-11.48071
2.152	-17.01965
2.1525	-17.72461
2.153	-14.90479
2.1535	-15.81116
2.154	-10.0708
2.1545	-12.5885
2.155	-7.5531
2.1555	1.10779
2.156	6.54602
2.1565	9.76868
2.157	10.97717
2.1575	19.94019
2.158	17.92603
2.1585	24.77417
2.159	20.34302
2.1595	23.16284
2.16	21.3501
2.1605	20.64514
2.161	18.8324
2.1615	13.99841
2.162	10.0708
2.1625	11.48071
2.163	15.1062
2.1635	14.09912
2.164	12.89062
2.1645	11.68213
2.165	15.71045
2.1655	14.19983
2.166	12.38708
2.1665	19.33594
2.167	15.20691
2.1675	9.26514
2.168	7.65381
2.1685	8.45947
2.169	4.02832
2.1695	8.15735
2.17	8.35876
2.1705	5.43823
2.171	8.96301
2.1715	10.0708
2.172	3.02124
2.1725	-0.60425
2.173	-4.93469
2.1735	-7.85522
2.174	-2.31628
2.1745	1.91345
2.175	-3.02124
2.1755	0.40283
2.176	4.63257
2.1765	3.52478
2.177	6.14319
2.1775	3.8269
2.178	-0.10071
2.1785	-4.33044
2.179	-2.61841
2.1795	4.93469
2.18	-1.10779
2.1805	9.66797
2.181	5.13611
2.1815	1.61133
2.182	2.5177
2.1825	3.02124
2.183	-1.71204
2.1835	2.92053
2.184	10.27222
2.1845	14.09912
2.185	9.66797
2.1855	3.92761
2.186	11.17859
2.1865	8.05664
2.187	4.93469
2.1875	0.70496
2.188	0.10071
2.1885	3.22266
2.189	3.22266
2.1895	4.53186
2.19	-0.10071
2.1905	2.92053
2.191	5.94177
2.1915	7.25098
2.192	5.0354
2.1925	6.2439
2.193	4.73328
2.1935	4.73328
2.194	-1.00708
2.1945	1.91345
2.195	5.0354
2.1955	3.62549
2.196	1.71204
2.1965	0.10071
2.197	-0.10071
2.1975	-0.10071
2.198	0.80566
2.1985	-0.60425
2.199	3.52478
2.1995	-2.92053
2.2	6.14319
2.2005	2.31628
2.201	-3.8269
2.2015	0.70496
2.202	6.54602
2.2025	9.36584
2.203	13.09204
2.2035	15.1062
2.204	17.22107
2.2045	12.68921
2.205	20.04089
2.2055	24.87488
2.206	19.63806
2.2065	16.51611
2.207	14.50195
2.2075	13.19275
2.208	10.37292
2.2085	12.08496
2.209	11.07788
2.2095	9.36584
2.21	11.07788
2.2105	12.99133
2.211	9.86938
2.2115	9.56726
2.212	14.19983
2.2125	9.66797
2.213	5.23682
2.2135	4.43115
2.214	0.70496
2.2145	0.80566
2.215	3.12195
2.2155	6.14319
2.216	-1.81274
2.2165	-4.22974
2.217	-1.2085
2.2175	-5.13611
2.218	-3.8269
2.2185	-9.86938
2.219	-5.53894
2.2195	-6.2439
2.22	-1.71204
2.2205	-7.65381
2.221	-5.94177
2.2215	-3.32336
2.222	-4.12903
2.2225	2.92053
2.223	3.22266
2.2235	2.61841
2.224	6.44531
2.2245	12.18567
2.225	2.92053
2.2255	6.14319
2.226	4.83398
2.2265	14.30054
2.227	17.32178
2.2275	18.53027
2.228	19.83948
2.2285	17.72461
2.229	12.38708
2.2295	16.01257
2.23	21.3501
2.2305	18.32886
2.231	15.1062
2.2315	12.08496
2.232	7.5531
2.2325	3.02124
2.233	-5.33752
2.2335	-4.02832
2.234	-6.2439
2.2345	-5.74036
2.235	-4.43115
2.2355	-4.63257
2.236	0.40283
2.2365	0.90637
2.237	1.81274
2.2375	6.44531
2.238	10.47363
2.2385	13.29346
2.239	14.60266
2.2395	17.72461
2.24	21.95435
2.2405	23.36426
2.241	22.96143
2.2415	22.96143
2.242	24.47205
2.2425	25.37842
2.243	21.3501
2.2435	21.55151
2.244	17.52319
2.2445	20.44373
2.245	23.66638
2.2455	21.04797
2.246	18.63098
2.2465	13.39417
2.247	13.39417
2.2475	4.93469
2.248	0.70496
2.2485	-3.8269
2.249	-4.12903
2.2495	1.61133
2.25	-2.71912
2.2505	-3.02124
2.251	-2.41699
2.2515	-8.15735
2.252	-0.70496
2.2525	-1.3092
2.253	-2.5177
2.2535	0.40283
2.254	1.40991
2.2545	-2.61841
2.255	-4.22974
2.2555	1.3092
2.256	-4.02832
2.2565	0.70496
2.257	0.40283
2.2575	0.10071
2.258	0.40283
2.2585	-0.60425
2.259	2.31628
2.2595	6.94885
2.26	8.05664
2.2605	5.84106
2.261	2.5177
2.2615	6.94885
2.262	9.26514
2.2625	12.08496
2.263	9.36584
2.2635	5.74036
2.264	5.43823
2.2645	4.93469
2.265	3.7262
2.2655	6.84814
2.266	2.71912
2.2665	1.71204
2.267	4.53186
2.2675	3.8269
2.268	7.04956
2.2685	4.53186
2.269	9.26514
2.2695	7.25098
2.27	6.14319
2.2705	7.85522
2.271	9.76868
2.2715	9.36584
2.272	8.15735
2.2725	8.7616
2.273	2.81982
2.2735	8.25806
2.274	4.33044
2.2745	8.35876
2.275	4.22974
2.2755	1.2085
2.276	2.92053
2.2765	5.53894
2.277	7.85522
2.2775	4.63257
2.278	1.51062
2.2785	-0.20142
2.279	-4.22974
2.2795	2.11487
2.28	1.00708
2.2805	-3.62549
2.281	7.25098
2.2815	4.43115
2.282	11.58142
2.2825	17.82532
2.283	9.06372
2.2835	10.27222
2.284	13.797
2.2845	21.85364
2.285	27.6947
2.2855	20.74585
2.286	23.36426
2.2865	24.27063
2.287	16.81824
2.2875	17.6239
2.288	12.68921
2.2885	8.35876
2.289	10.67505
2.2895	6.84814
2.29	9.26514
2.2905	10.27222
2.291	8.35876
2.2915	10.57434
2.292	5.63965
2.2925	10.17151
2.293	11.38
2.2935	6.3446
2.294	10.0708
2.2945	1.2085
2.295	3.12195
2.2955	1.91345
2.296	0.80566
2.2965	-0.30212
2.297	6.44531
2.2975	8.8623
2.298	8.05664
2.2985	4.12903
2.299	8.25806
2.2995	8.45947
2.3	8.15735
2.3005	4.93469
2.301	10.77576
2.3015	5.84106
2.302	2.71912
2.3025	-1.3092
2.303	2.11487
2.3035	4.93469
2.304	6.2439
2.3045	1.71204
2.305	-1.10779
2.3055	0.90637
2.306	2.5177
2.3065	-0.30212
2.307	2.41699
2.3075	1.40991
2.308	2.92053
2.3085	6.3446
2.309	0.20142
2.3095	4.83398
2.31	4.83398
2.3105	11.07788
2.311	3.62549
2.3115	2.11487
2.312	1.40991
2.3125	4.93469
2.313	1.3092
2.3135	-2.01416
2.314	-5.13611
2.3145	-9.66797
2.315	-4.53186
2.3155	-8.56018
2.316	0.50354
2.3165	-2.11487
2.317	-0.80566
2.3175	1.2085
2.318	7.04956
2.3185	1.00708
2.319	8.7616
2.3195	13.29346
2.32	11.48071
2.3205	16.3147
2.321	17.82532
2.3215	12.38708
2.322	18.12744
2.3225	15.40833
2.323	12.18567
2.3235	13.19275
2.324	15.40833
2.3245	12.48779
2.325	13.39417
2.3255	14.50195
2.326	3.8269
2.3265	-7.85522
2.327	-6.94885
2.3275	-6.94885
2.328	-4.73328
2.3285	-1.91345
2.329	-4.02832
2.3295	0.70496
2.33	1.3092
2.3305	2.5177
2.331	8.7616
2.3315	4.53186
2.332	2.31628
2.3325	3.32336
2.333	0.90637
2.3335	2.92053
2.334	5.33752
2.3345	6.94885
2.335	6.3446
2.3355	8.8623
2.336	12.08496
2.3365	8.25806
2.337	6.94885
2.3375	9.97009
2.338	7.95593
2.3385	5.23682
2.339	3.02124
2.3395	9.76868
2.34	5.84106
2.3405	8.25806
2.341	6.04248
2.3415	6.54602
2.342	7.15027
2.3425	6.2439
2.343	3.7262
2.3435	7.85522
2.344	9.46655
2.3445	5.84106
2.345	8.25806
2.3455	6.3446
2.346	5.84106
2.3465	-1.10779
2.347	-3.8269
2.3475	-10.47363
2.348	-10.27222
2.3485	-8.96301
2.349	-12.48779
2.3495	-13.69629
2.35	-8.45947
2.3505	-11.17859
2.351	-7.04956
2.3515	-0.90637
2.352	4.93469
2.3525	5.0354
2.353	14.70337
2.3535	23.26355
2.354	24.16992
2.3545	23.36426
2.355	22.25647
2.3555	19.94019
2.356	14.90479
2.3565	18.73169
2.357	21.85364
2.3575	22.86072
2.358	22.45789
2.3585	21.55151
2.359	22.35718
2.3595	12.99133
2.36	12.68921
2.3605	13.99841
2.361	7.35168
2.3615	8.45947
2.362	5.23682
2.3625	-4.02832
2.363	-7.95593
2.3635	-3.62549
2.364	-2.71912
2.3645	-8.25806
2.365	-5.74036
2.3655	-11.07788
2.366	-6.84814
2.3665	-8.45947
2.367	-9.46655
2.3675	-10.17151
2.368	-11.48071
2.3685	-9.46655
2.369	-11.38
2.3695	-11.38
2.37	-11.78284
2.3705	-12.68921
2.371	-11.17859
2.3715	-4.12903
2.372	1.00708
2.3725	3.22266
2.373	7.35168
2.3735	15.40833
2.374	19.33594
2.3745	20.64514
2.375	11.17859
2.3755	17.82532
2.376	20.84656
2.3765	17.92603
2.377	17.01965
2.3775	18.8324
2.378	17.82532
2.3785	13.89771
2.379	11.98425
2.3795	8.45947
2.38	8.96301
2.3805	9.26514
2.381	1.51062
2.3815	3.12195
2.382	-1.61133
2.3825	-6.14319
2.383	-8.45947
2.3835	-8.25806
2.384	-4.12903
2.3845	1.3092
2.385	0.60425
2.3855	1.3092
2.386	11.68213
2.3865	8.7616
2.387	12.28638
2.3875	10.67505
2.388	10.17151
2.3885	11.98425
2.389	12.68921
2.3895	9.76868
2.39	6.94885
2.3905	13.99841
2.391	10.57434
2.3915	13.797
2.392	9.46655
2.3925	12.99133
2.393	11.78284
2.3935	10.97717
2.394	8.35876
2.3945	6.84814
2.395	9.97009
2.3955	13.29346
2.396	10.47363
2.3965	11.07788
2.397	6.2439
2.3975	2.92053
2.398	8.35876
2.3985	14.90479
2.399	16.01257
2.3995	15.81116
2.4	12.18567
2.4005	12.78992
2.401	11.17859
2.4015	10.77576
2.402	8.35876
2.4025	3.42407
2.403	6.94885
2.4035	4.93469
2.404	3.42407
2.4045	-2.01416
2.405	-2.41699
2.4055	-3.12195
2.406	-8.15735
2.4065	-4.22974
2.407	-1.2085
2.4075	-3.52478
2.408	-1.61133
2.4085	-8.35876
2.409	-7.35168
2.4095	-7.65381
2.41	-0.20142
2.4105	2.21558
2.411	4.93469
2.4115	7.65381
2.412	7.45239
2.4125	7.95593
2.413	12.18567
2.4135	11.88354
2.414	11.88354
2.4145	22.15576
2.415	14.70337
2.4155	8.45947
2.416	6.2439
2.4165	12.5885
2.417	10.47363
2.4175	10.97717
2.418	10.47363
2.4185	11.07788
2.419	7.5531
2.4195	10.97717
2.42	9.86938
2.4205	7.95593
2.421	9.76868
2.4215	14.70337
2.422	7.85522
2.4225	3.52478
2.423	4.63257
2.4235	10.67505
2.424	8.35876
2.4245	4.63257
2.425	8.15735
2.4255	9.56726
2.426	10.97717
2.4265	9.66797
2.427	13.29346
2.4275	8.15735
2.428	8.66089
2.4285	11.38
2.429	10.87646
2.4295	7.35168
2.43	3.62549
2.4305	5.53894
2.431	6.3446
2.4315	8.66089
2.432	4.12903
2.4325	7.25098
2.433	6.64673
2.4335	2.5177
2.434	-2.31628
2.4345	-5.33752
2.435	-2.01416
2.4355	-6.44531
2.436	-6.3446
2.4365	-5.43823
2.437	-6.94885
2.4375	-11.17859
2.438	-12.78992
2.4385	-13.19275
2.439	-13.19275
2.4395	-6.14319
2.44	-7.35168
2.4405	-1.40991
2.441	2.41699
2.4415	2.01416
2.442	1.71204
2.4425	1.2085
2.443	0.90637
2.4435	5.0354
2.444	6.14319
2.4445	8.7616
2.445	7.25098
2.4455	8.15735
2.446	7.25098
2.4465	8.8623
2.447	12.48779
2.4475	10.77576
2.448	11.07788
2.4485	15.1062
2.449	11.68213
2.4495	12.48779
2.45	17.01965
2.4505	15.71045
2.451	13.09204
2.4515	17.82532
2.452	13.49487
2.4525	15.20691
2.453	10.17151
2.4535	6.3446
2.454	9.36584
2.4545	0.30212
2.455	0.80566
2.4555	-2.81982
2.456	-6.74744
2.4565	-9.86938
2.457	-16.21399
2.4575	-15.20691
2.458	-11.98425
2.4585	-15.00549
2.459	-15.91187
2.4595	-17.6239
2.46	-13.89771
2.4605	-2.71912
2.461	1.81274
2.4615	11.78284
2.462	15.20691
2.4625	20.34302
2.463	26.28479
2.4635	29.40674
2.464	26.98975
2.4645	26.08337
2.465	24.16992
2.4655	17.22107
2.466	13.49487
2.4665	10.37292
2.467	11.2793
2.4675	15.20691
2.468	12.18567
2.4685	15.30762
2.469	12.48779
2.4695	6.14319
2.47	7.04956
2.4705	7.25098
2.471	8.25806
2.4715	-2.81982
2.472	-6.14319
2.4725	-5.63965
2.473	-2.01416
2.4735	-1.40991
2.474	1.91345
2.4745	5.53894
2.475	5.23682
2.4755	1.00708
2.476	3.7262
2.4765	-6.2439
2.477	3.12195
2.4775	0
2.478	-6.74744
2.4785	-3.92761
2.479	-0.80566
2.4795	6.64673
2.48	3.42407
2.4805	6.64673
2.481	5.53894
2.4815	3.32336
2.482	8.7616
2.4825	8.8623
2.483	6.44531
2.4835	4.63257
2.484	12.28638
2.4845	16.01257
2.485	15.00549
2.4855	14.60266
2.486	13.797
2.4865	10.17151
2.487	6.84814
2.4875	1.61133
2.488	-1.91345
2.4885	2.92053
2.489	-3.42407
2.4895	-1.2085
2.49	-0.80566
2.4905	3.92761
2.491	5.43823
2.4915	5.63965
2.492	4.33044
2.4925	2.41699
2.493	3.12195
2.4935	1.00708
2.494	2.81982
2.4945	2.81982
2.495	3.52478
2.4955	3.8269
2.496	7.04956
2.4965	6.2439
2.497	2.61841
2.4975	5.33752
2.498	12.5885
2.4985	9.66797
2.499	14.80408
2.4995	6.84814
2.5	19.83948
2.5005	14.80408
2.501	14.40125
2.5015	15.71045
2.502	21.14868
2.5025	16.91895
2.503	18.02673
2.5035	16.71753
2.504	20.04089
2.5045	18.93311
2.505	10.97717
2.5055	6.64673
2.506	3.62549
2.5065	1.51062
2.507	-2.61841
2.5075	0.90637
2.508	0.80566
2.5085	0.60425
2.509	0.10071
2.5095	2.5177
2.51	8.56018
2.5105	1.61133
2.511	6.44531
2.5115	5.13611
2.512	8.45947
2.5125	13.19275
2.513	14.60266
2.5135	8.35876
2.514	4.53186
2.5145	9.86938
2.515	9.76868
2.5155	12.99133
2.516	10.47363
2.5165	8.35876
2.517	6.2439
2.5175	7.35168
2.518	5.84106
2.5185	8.96301
2.519	10.0708
2.5195	9.76868
2.52	7.95593
2.5205	8.66089
2.521	4.12903
2.5215	4.63257
2.522	1.2085
2.5225	3.22266
2.523	-0.80566
2.5235	7.04956
2.524	4.83398
2.5245	2.41699
2.525	5.33752
2.5255	6.44531
2.526	4.83398
2.5265	3.42407
2.527	0.90637
2.5275	5.74036
2.528	1.61133
2.5285	-3.42407
2.529	-6.84814
2.5295	-4.43115
2.53	-1.61133
2.5305	2.5177
2.531	3.32336
2.5315	7.45239
2.532	5.43823
2.5325	8.25806
2.533	7.45239
2.5335	16.51611
2.534	11.98425
2.5345	15.91187
2.535	12.99133
2.5355	11.17859
2.536	0.30212
2.5365	5.53894
2.537	8.15735
2.5375	7.85522
2.538	5.84106
2.5385	8.15735
2.539	15.40833
2.5395	9.97009
2.54	11.07788
2.5405	10.37292
2.541	8.15735
2.5415	2.01416
2.542	3.12195
2.5425	4.63257
2.543	2.71912
2.5435	-0.90637
2.544	2.61841
2.5445	-0.80566
2.545	-6.3446
2.5455	-4.53186
2.546	-3.52478
2.5465	-12.18567
2.547	-9.26514
2.5475	-12.5885
2.548	-12.38708
2.5485	-7.85522
2.549	-9.97009
2.5495	-1.91345
2.55	0
2.5505	-1.00708
2.551	4.33044
2.5515	8.8623
2.552	12.28638
2.5525	18.53027
2.553	21.04797
2.5535	22.05505
2.554	21.55151
2.5545	20.1416
2.555	19.73877
2.5555	20.74585
2.556	15.91187
2.5565	21.14868
2.557	14.80408
2.5575	19.13452
2.558	15.91187
2.5585	20.44373
2.559	18.02673
2.5595	12.68921
2.56	6.44531
2.5605	3.8269
2.561	-4.73328
2.5615	0.60425
2.562	1.71204
2.5625	5.23682
2.563	9.46655
2.5635	8.96301
2.564	9.26514
2.5645	7.85522
2.565	5.94177
2.5655	7.45239
2.566	4.22974
2.5665	3.62549
2.567	12.68921
2.5675	13.797
2.568	8.05664
2.5685	9.66797
2.569	8.15735
2.5695	3.8269
2.57	2.11487
2.5705	2.01416
2.571	1.91345
2.5715	4.02832
2.572	6.14319
2.5725	2.41699
2.573	0.90637
2.5735	4.43115
2.574	3.92761
2.5745	7.25098
2.575	3.92761
2.5755	1.40991
2.576	3.12195
2.5765	6.04248
2.577	4.83398
2.5775	6.74744
2.578	3.22266
2.5785	3.22266
2.579	11.48071
2.5795	15.91187
2.58	10.67505
2.5805	8.15735
2.581	10.47363
2.5815	4.33044
2.582	12.5885
2.5825	6.3446
2.583	9.97009
2.5835	2.81982
2.584	10.0708
2.5845	7.95593
2.585	10.57434
2.5855	5.43823
2.586	9.97009
2.5865	7.85522
2.587	6.54602
2.5875	8.8623
2.588	8.35876
2.5885	1.81274
2.589	7.15027
2.5895	4.63257
2.59	5.84106
2.5905	3.92761
2.591	4.02832
2.5915	1.91345
2.592	10.37292
2.5925	4.93469
2.593	5.0354
2.5935	7.04956
2.594	3.32336
2.5945	5.94177
2.595	1.10779
2.5955	2.11487
2.596	-1.71204
2.5965	-3.32336
2.597	-1.10779
2.5975	4.53186
2.598	8.96301
2.5985	8.66089
2.599	7.5531
2.5995	2.5177
2.6	3.7262
2.6005	6.84814
2.601	3.22266
2.6015	5.43823
2.602	6.74744
2.6025	4.73328
2.603	5.63965
2.6035	7.95593
2.604	8.56018
2.6045	4.12903
2.605	8.15735
2.6055	13.797
2.606	5.33752
2.6065	7.35168
2.607	0.40283
2.6075	-3.92761
2.608	-0.70496
2.6085	-11.2793
2.609	-10.67505
2.6095	-11.68213
2.61	-18.73169
2.6105	-14.50195
2.611	-15.40833
2.6115	-7.15027
2.612	-3.92761
2.6125	-6.44531
2.613	-4.63257
2.6135	7.95593
2.614	9.86938
2.6145	17.92603
2.615	23.8678
2.6155	27.6947
2.616	33.03223
2.6165	36.95984
2.617	30.2124
2.6175	26.18408
2.618	14.80408
2.6185	14.40125
2.619	8.56018
2.6195	15.00549
2.62	10.67505
2.6205	7.04956
2.621	8.96301
2.6215	10.87646
2.622	3.02124
2.6225	5.74036
2.623	7.85522
2.6235	8.7616
2.624	14.30054
2.6245	9.46655
2.625	9.36584
2.6255	13.29346
2.626	10.0708
2.6265	10.97717
2.627	12.68921
2.6275	15.1062
2.628	12.99133
2.6285	11.78284
2.629	12.68921
2.6295	10.57434
2.63	12.38708
2.6305	14.50195
2.631	14.30054
2.6315	3.62549
2.632	2.31628
2.6325	4.22974
2.633	-0.10071
2.6335	0.50354
2.634	1.3092
2.6345	-4.12903
2.635	3.52478
2.6355	5.74036
2.636	1.00708
2.6365	-0.70496
2.637	1.91345
2.6375	3.02124
2.638	2.61841
2.6385	4.73328
2.639	7.35168
2.6395	3.52478
2.64	1.3092
2.6405	3.8269
2.641	2.92053
2.6415	7.04956
2.642	6.94885
2.6425	1.2085
2.643	5.74036
2.6435	3.92761
2.644	5.0354
2.6445	0.50354
2.645	4.33044
2.6455	4.02832
2.646	0.10071
2.6465	6.2439
2.647	-1.61133
2.6475	0.70496
2.648	5.13611
2.6485	1.2085
2.649	2.31628
2.6495	6.64673
2.65	6.2439
2.6505	7.35168
2.651	7.5531
2.6515	8.15735
2.652	9.06372
2.6525	10.0708
2.653	5.84106
2.6535	9.36584
2.654	12.08496
2.6545	15.00549
2.655	12.89062
2.6555	12.08496
2.656	13.69629
2.6565	11.48071
2.657	9.46655
2.6575	8.7616
2.658	9.56726
2.6585	6.44531
2.659	6.64673
2.6595	4.22974
2.66	1.2085
2.6605	-7.25098
2.661	-14.09912
2.6615	-10.37292
2.662	-9.16443
2.6625	-12.38708
2.663	-19.13452
2.6635	-20.74585
2.664	-15.20691
2.6645	-11.58142
2.665	-8.45947
2.6655	-3.22266
2.666	1.61133
2.6665	9.66797
2.667	11.17859
2.6675	17.12036
2.668	17.82532
2.6685	20.84656
2.669	18.32886
2.6695	17.32178
2.67	15.81116
2.6705	12.99133
2.671	12.68921
2.6715	14.50195
2.672	9.66797
2.6725	13.09204
2.673	10.0708
2.6735	10.57434
2.674	12.89062
2.6745	12.28638
2.675	10.67505
2.6755	-2.11487
2.676	-5.84106
2.6765	-5.53894
2.677	-14.30054
2.6775	-12.28638
2.678	-2.61841
2.6785	-4.12903
2.679	-1.00708
2.6795	-1.51062
2.68	-3.12195
2.6805	1.81274
2.681	2.21558
2.6815	2.11487
2.682	3.32336
2.6825	10.87646
2.683	7.95593
2.6835	4.02832
2.684	12.18567
2.6845	8.15735
2.685	8.66089
2.6855	6.64673
2.686	9.66797
2.6865	10.67505
2.687	7.15027
2.6875	2.41699
2.688	-1.10779
2.6885	-11.98425
2.689	-8.25806
2.6895	-7.75452
2.69	-2.31628
2.6905	-4.22974
2.691	-2.01416
2.6915	3.42407
2.692	4.22974
2.6925	7.15027
2.693	11.78284
2.6935	11.07788
2.694	17.12036
2.6945	16.81824
2.695	16.91895
2.6955	14.90479
2.696	15.00549
2.6965	20.54443
2.697	19.13452
2.6975	16.51611
2.698	9.66797
2.6985	5.84106
2.699	3.92761
2.6995	5.0354
2.7	6.14319
2.7005	3.22266
2.701	-5.13611
2.7015	-1.00708
2.702	-8.15735
2.7025	-11.17859
2.703	-3.02124
2.7035	-9.06372
2.704	-3.12195
2.7045	-4.83398
2.705	4.12903
2.7055	1.2085
2.706	8.66089
2.7065	1.51062
2.707	5.23682
2.7075	5.94177
2.708	9.56726
2.7085	12.38708
2.709	9.97009
2.7095	13.797
2.71	10.77576
2.7105	14.90479
2.711	14.60266
2.7115	12.38708
2.712	9.66797
2.7125	15.20691
2.713	11.2793
2.7135	8.7616
2.714	8.8623
2.7145	11.2793
2.715	9.36584
2.7155	10.97717
2.716	9.56726
2.7165	7.04956
2.717	7.04956
2.7175	7.15027
2.718	7.25098
2.7185	5.84106
2.719	-0.80566
2.7195	5.74036
2.72	7.5531
2.7205	9.86938
2.721	2.81982
2.7215	4.43115
2.722	4.33044
2.7225	9.36584
2.723	5.74036
2.7235	7.04956
2.724	12.48779
2.7245	11.88354
2.725	14.19983
2.7255	10.47363
2.726	4.33044
2.7265	4.73328
2.727	1.71204
2.7275	5.13611
2.728	6.94885
2.7285	15.30762
2.729	7.65381
2.7295	12.08496
2.73	10.27222
2.7305	8.45947
2.731	4.33044
2.7315	10.37292
2.732	11.58142
2.7325	5.0354
2.733	12.08496
2.7335	7.25098
2.734	6.44531
2.7345	8.45947
2.735	10.87646
2.7355	11.38
2.736	8.15735
2.7365	5.84106
2.737	6.04248
2.7375	8.66089
2.738	8.15735
2.7385	7.15027
2.739	7.5531
2.7395	5.63965
2.74	3.02124
2.7405	1.00708
2.741	0
2.7415	0.30212
2.742	5.0354
2.7425	2.81982
2.743	-0.80566
2.7435	1.61133
2.744	6.54602
2.7445	6.04248
2.745	7.75452
2.7455	9.26514
2.746	5.13611
2.7465	5.0354
2.747	4.12903
2.7475	4.93469
2.748	6.84814
2.7485	6.44531
2.749	8.66089
2.7495	9.66797
2.75	9.76868
2.7505	10.17151
2.751	13.39417
2.7515	8.35876
2.752	5.94177
2.7525	7.95593
2.753	3.02124
2.7535	4.53186
2.754	4.83398
2.7545	1.51062
2.755	7.04956
2.7555	11.17859
2.756	8.8623
2.7565	12.18567
2.757	11.48071
2.7575	4.73328
2.758	9.26514
2.7585	11.38
2.759	6.44531
2.7595	6.3446
2.76	6.74744
2.7605	2.71912
2.761	5.84106
2.7615	5.63965
2.762	6.2439
2.7625	-0.50354
2.763	3.62549
2.7635	-6.54602
2.764	-8.96301
2.7645	-13.69629
2.765	-21.24939
2.7655	-19.03381
2.766	-16.81824
2.7665	-17.22107
2.767	-15.00549
2.7675	-12.48779
2.768	-10.17151
2.7685	1.3092
2.769	2.21558
2.7695	2.11487
2.77	8.05664
2.7705	6.64673
2.771	16.81824
2.7715	13.09204
2.772	16.51611
2.7725	13.29346
2.773	17.22107
2.7735	14.90479
2.774	18.93311
2.7745	20.24231
2.775	11.2793
2.7755	17.42249
2.776	20.04089
2.7765	19.63806
2.777	23.8678
2.7775	25.98267
2.778	29.20532
2.7785	23.46497
2.779	15.50903
2.7795	18.02673
2.78	14.19983
2.7805	9.97009
2.781	10.97717
2.7815	15.71045
2.782	17.22107
2.7825	12.68921
2.783	11.68213
2.7835	11.68213
2.784	10.87646
2.7845	7.15027
2.785	1.40991
2.7855	-7.75452
2.786	-1.71204
2.7865	0
2.787	-1.91345
2.7875	1.81274
2.788	1.71204
2.7885	0.60425
2.789	0.70496
2.7895	2.71912
2.79	-0.60425
2.7905	0
2.791	-0.60425
2.7915	-5.33752
2.792	-3.92761
2.7925	-5.94177
2.793	-3.8269
2.7935	-3.92761
2.794	-3.62549
2.7945	-3.62549
2.795	-3.62549
2.7955	-1.81274
2.796	3.42407
2.7965	3.8269
2.797	2.92053
2.7975	4.93469
2.798	11.38
2.7985	9.06372
2.799	12.99133
2.7995	17.01965
2.8	17.01965
2.8005	20.24231
2.801	18.8324
2.8015	15.40833
2.802	13.39417
2.8025	10.0708
2.803	11.17859
2.8035	9.46655
2.804	6.04248
2.8045	8.35876
2.805	8.56018
2.8055	3.62549
2.806	-3.32336
2.8065	1.00708
2.807	-2.61841
2.8075	-0.80566
2.808	1.51062
2.8085	-2.71912
2.809	-3.32336
2.8095	-0.40283
2.81	4.73328
2.8105	4.02832
2.811	2.5177
2.8115	6.64673
2.812	7.04956
2.8125	8.25806
2.813	9.36584
2.8135	18.63098
2.814	14.70337
2.8145	14.30054
2.815	9.46655
2.8155	10.17151
2.816	15.00549
2.8165	6.14319
2.817	7.15027
2.8175	5.43823
2.818	12.78992
2.8185	8.15735
2.819	1.81274
2.8195	-2.11487
2.82	5.0354
2.8205	1.00708
2.821	5.84106
2.8215	5.74036
2.822	0.20142
2.8225	0.10071
2.823	-7.15027
2.8235	-5.0354
2.824	-1.71204
2.8245	0
2.825	2.11487
2.8255	2.71912
2.826	4.02832
2.8265	6.2439
2.827	4.12903
2.8275	1.3092
2.828	1.40991
2.8285	3.42407
2.829	1.10779
2.8295	-0.50354
2.83	-2.61841
2.8305	-0.50354
2.831	5.74036
2.8315	5.0354
2.832	4.33044
2.8325	9.36584
2.833	10.47363
2.8335	14.60266
2.834	18.63098
2.8345	22.86072
2.835	16.41541
2.8355	12.5885
2.836	12.18567
2.8365	6.44531
2.837	0.70496
2.8375	0.60425
2.838	-6.14319
2.8385	-6.14319
2.839	-8.7616
2.8395	-0.30212
2.84	-5.94177
2.8405	-1.81274
2.841	-1.00708
2.8415	2.61841
2.842	1.00708
2.8425	8.05664
2.843	9.46655
2.8435	11.38
2.844	12.5885
2.8445	11.38
2.845	15.30762
2.8455	14.09912
2.846	8.15735
2.8465	-2.71912
2.847	-9.56726
2.8475	-8.7616
2.848	-10.17151
2.8485	-6.54602
2.849	-7.25098
2.8495	-7.5531
2.85	2.41699
2.8505	4.02832
2.851	12.89062
2.8515	14.90479
2.852	16.71753
2.8525	15.60974
2.853	19.73877
2.8535	20.34302
2.854	16.71753
2.8545	17.42249
2.855	23.26355
2.8555	24.27063
2.856	19.03381
2.8565	24.57275
2.857	16.51611
2.8575	13.39417
2.858	13.29346
2.8585	8.35876
2.859	7.85522
2.8595	8.66089
2.86	3.12195
2.8605	1.61133
2.861	2.31628
2.8615	1.91345
2.862	-0.40283
2.8625	-0.20142
2.863	0.20142
2.8635	-1.81274
2.864	1.10779
2.8645	2.41699
2.865	2.01416
2.8655	-3.22266
2.866	-2.92053
2.8665	-0.60425
2.867	-2.01416
2.8675	0.80566
2.868	-1.51062
2.8685	-11.48071
2.869	-9.66797
2.8695	-8.15735
2.87	-2.31628
2.8705	5.23682
2.871	7.75452
2.8715	6.04248
2.872	7.85522
2.8725	17.12036
2.873	11.17859
2.8735	12.48779
2.874	15.40833
2.8745	12.78992
2.875	11.98425
2.8755	14.80408
2.876	12.68921
2.8765	9.76868
2.877	6.74744
2.8775	7.75452
2.878	16.11328
2.8785	13.797
2.879	6.64673
2.8795	7.35168
2.88	6.3446
2.8805	5.84106
2.881	7.95593
2.8815	9.16443
2.882	1.3092
2.8825	1.00708
2.883	2.31628
2.8835	6.2439
2.884	7.25098
2.8845	8.56018
2.885	6.44531
2.8855	9.76868
2.886	15.91187
2.8865	7.95593
2.887	4.43115
2.8875	1.00708
2.888	-1.2085
2.8885	-4.12903
2.889	-5.43823
2.8895	-1.00708
2.89	-3.92761
2.8905	-0.40283
2.891	-0.50354
2.8915	-0.80566
2.892	2.71912
2.8925	4.73328
2.893	1.91345
2.8935	1.61133
2.894	6.2439
2.8945	6.54602
2.895	7.15027
2.8955	3.92761
2.896	6.14319
2.8965	3.12195
2.897	2.81982
2.8975	4.02832
2.898	9.06372
2.8985	7.45239
2.899	6.54602
2.8995	5.63965
2.9	2.5177
2.9005	3.7262
2.901	4.43115
2.9015	8.66089
2.902	7.25098
2.9025	9.66797
2.903	12.28638
2.9035	11.17859
2.904	7.45239
2.9045	9.86938
2.905	4.12903
2.9055	4.53186
2.906	5.13611
2.9065	5.74036
2.907	3.02124
2.9075	-6.94885
2.908	2.31628
2.9085	0.50354
2.909	-1.10779
2.9095	-0.10071
2.91	1.3092
2.9105	5.13611
2.911	-2.71912
2.9115	4.33044
2.912	1.40991
2.9125	7.15027
2.913	4.53186
2.9135	6.84814
2.914	11.78284
2.9145	9.56726
2.915	15.91187
2.9155	18.42957
2.916	10.77576
2.9165	9.06372
2.917	7.04956
2.9175	2.81982
2.918	5.84106
2.9185	4.33044
2.919	5.0354
2.9195	3.52478
2.92	2.81982
2.9205	-4.33044
2.921	-2.21558
2.9215	-2.21558
2.922	-4.73328
2.9225	-3.22266
2.923	-8.45947
2.9235	-9.76868
2.924	-2.5177
2.9245	0.60425
2.925	6.3446
2.9255	11.88354
2.926	14.40125
2.9265	22.86072
2.927	22.96143
2.9275	23.46497
2.928	24.37134
2.9285	22.86072
2.929	21.75293
2.9295	17.32178
2.93	18.42957
2.9305	6.54602
2.931	8.45947
2.9315	8.66089
2.932	5.74036
2.9325	2.71912
2.933	5.63965
2.9335	-0.30212
2.934	2.81982
2.9345	3.42407
2.935	2.41699
2.9355	-0.20142
2.936	-3.12195
2.9365	-2.31628
2.937	-1.00708
2.9375	0.70496
2.938	10.67505
2.9385	10.67505
2.939	10.17151
2.9395	4.22974
2.94	3.12195
2.9405	-2.01416
2.941	-5.13611
2.9415	-9.06372
2.942	-5.53894
2.9425	-4.12903
2.943	-6.14319
2.9435	-2.41699
2.944	-3.52478
2.9445	-2.41699
2.945	0.60425
2.9455	-2.71912
2.946	4.93469
2.9465	7.45239
2.947	9.56726
2.9475	16.71753
2.948	15.00549
2.9485	13.99841
2.949	11.38
2.9495	15.1062
2.95	12.08496
2.9505	11.88354
2.951	16.41541
2.9515	14.70337
2.952	20.1416
2.9525	23.06213
2.953	20.84656
2.9535	26.28479
2.954	23.46497
2.9545	17.6239
2.955	14.90479
2.9555	10.47363
2.956	9.16443
2.9565	5.0354
2.957	5.23682
2.9575	2.01416
2.958	6.44531
2.9585	8.96301
2.959	6.2439
2.9595	8.15735
2.96	3.22266
2.9605	4.12903
2.961	3.02124
2.9615	0
2.962	0.40283
2.9625	0.60425
2.963	3.7262
2.9635	4.63257
2.964	12.08496
2.9645	4.12903
2.965	1.40991
2.9655	10.17151
2.966	1.61133
2.9665	4.63257
2.967	5.33752
2.9675	5.53894
2.968	5.63965
2.9685	8.25806
2.969	9.76868
2.9695	11.48071
2.97	4.22974
2.9705	1.40991
2.971	10.27222
2.9715	8.25806
2.972	8.7616
2.9725	14.30054
2.973	8.35876
2.9735	8.96301
2.974	15.1062
2.9745	10.87646
2.975	7.45239
2.9755	5.53894
2.976	3.8269
2.9765	3.92761
2.977	6.44531
2.9775	1.91345
2.978	2.5177
2.9785	1.91345
2.979	4.83398
2.9795	5.13611
2.98	15.71045
2.9805	9.36584
2.981	10.97717
2.9815	13.49487
2.982	8.7616
2.9825	5.84106
2.983	7.35168
2.9835	5.13611
2.984	8.56018
2.9845	3.92761
2.985	10.97717
2.9855	4.93469
2.986	1.3092
2.9865	3.92761
2.987	-1.81274
2.9875	-3.02124
2.988	-2.41699
2.9885	1.40991
2.989	0.20142
2.9895	3.12195
2.99	-0.20142
2.9905	0.90637
2.991	4.93469
2.9915	1.71204
2.992	4.33044
2.9925	7.35168
2.993	6.74744
2.9935	6.2439
2.994	13.19275
2.9945	7.35168
2.995	9.66797
2.9955	9.26514
2.996	11.78284
2.9965	7.95593
2.997	6.3446
2.9975	2.81982
2.998	-3.7262
2.9985	1.81274
2.999	-3.32336
2.9995	1.40991
3	4.63257
3.0005	1.61133
3.001	-1.2085
3.0015	5.13611
3.002	5.84106
3.0025	9.16443
3.003	10.47363
3.0035	9.56726
3.004	14.30054
3.0045	10.17151
3.005	8.8623
3.0055	-2.61841
3.006	-2.5177
3.0065	4.43115
3.007	-1.10779
3.0075	-2.01416
3.008	6.2439
3.0085	-0.10071
3.009	2.11487
3.0095	2.61841
3.01	8.15735
3.0105	8.7616
3.011	10.0708
3.0115	18.63098
3.012	20.04089
3.0125	17.6239
3.013	12.78992
3.0135	12.18567
3.014	15.1062
3.0145	12.38708
3.015	11.07788
3.0155	12.38708
3.016	12.99133
3.0165	11.2793
3.017	14.50195
3.0175	13.59558
3.018	13.29346
3.0185	12.28638
3.019	8.8623
3.0195	8.35876
3.02	5.23682
3.0205	-3.32336
3.021	5.53894
3.0215	1.40991
3.022	-3.02124
3.0225	0.10071
3.023	3.12195
3.0235	6.74744
3.024	3.52478
3.0245	6.94885
3.025	3.32336
3.0255	0.70496
3.026	3.22266
3.0265	3.8269
3.027	7.75452
3.0275	4.93469
3.028	1.51062
3.0285	-0.60425
3.029	-3.12195
3.0295	0.40283
3.03	-6.3446
3.0305	-9.26514
3.031	-21.45081
3.0315	-15.00549
3.032	-16.3147
3.0325	-16.3147
3.033	-17.22107
3.0335	-12.99133
3.034	-12.5885
3.0345	-6.74744
3.035	-6.3446
3.0355	2.01416
3.036	10.17151
3.0365	13.69629
3.037	16.01257
3.0375	19.33594
3.038	24.16992
3.0385	24.97559
3.039	24.77417
3.0395	22.55859
3.04	28.09753
3.0405	25.177
3.041	22.86072
3.0415	17.42249
3.042	17.52319
3.0425	14.60266
3.043	22.76001
3.0435	20.74585
3.044	19.23523
3.0445	10.87646
3.045	2.61841
3.0455	5.53894
3.046	4.53186
3.0465	7.35168
3.047	4.63257
3.0475	12.08496
3.048	9.46655
3.0485	14.60266
3.049	8.96301
3.0495	15.40833
3.05	16.41541
3.0505	12.68921
3.051	7.95593
3.0515	1.3092
3.052	0.60425
3.0525	0.50354
3.053	-0.70496
3.0535	6.84814
3.054	1.81274
3.0545	-4.83398
3.055	-4.43115
3.0555	0
3.056	-3.32336
3.0565	-0.80566
3.057	-5.43823
3.0575	0.20142
3.058	6.04248
3.0585	3.12195
3.059	-1.00708
3.0595	2.71912
3.06	6.2439
3.0605	2.92053
3.061	4.63257
3.0615	1.40991
3.062	14.09912
3.0625	8.35876
3.063	4.22974
3.0635	-1.2085
3.064	-2.41699
3.0645	0.80566
3.065	4.33044
3.0655	8.05664
3.066	4.12903
3.0665	1.61133
3.067	-1.40991
3.0675	0.70496
3.068	3.7262
3.0685	5.0354
3.069	8.56018
3.0695	5.84106
3.07	9.26514
3.0705	17.01965
3.071	9.97009
3.0715	11.07788
3.072	10.77576
3.0725	8.8623
3.073	4.43115
3.0735	6.44531
3.074	0.20142
3.0745	0
3.075	-2.11487
3.0755	-0.80566
3.076	4.43115
3.0765	-0.80566
3.077	2.21558
3.0775	-1.51062
3.078	-1.61133
3.0785	-4.93469
3.079	-4.83398
3.0795	-7.5531
3.08	-6.04248
3.0805	-3.12195
3.081	-1.71204
3.0815	-0.70496
3.082	1.61133
3.0825	-1.2085
3.083	-1.51062
3.0835	1.3092
3.084	8.25806
3.0845	2.61841
3.085	7.15027
3.0855	6.84814
3.086	6.64673
3.0865	6.94885
3.087	8.45947
3.0875	5.23682
3.088	1.2085
3.0885	6.84814
3.089	5.43823
3.0895	9.36584
3.09	8.35876
3.0905	5.74036
3.091	8.66089
3.0915	7.04956
3.092	6.3446
3.0925	8.96301
3.093	4.63257
3.0935	1.10779
3.094	9.16443
3.0945	6.94885
3.095	-1.2085
3.0955	-2.21558
3.096	-1.00708
3.0965	-3.7262
3.097	-1.10779
3.0975	-3.12195
3.098	0.60425
3.0985	-2.61841
3.099	2.71912
3.0995	-4.22974
3.1	-0.60425
3.1005	6.3446
3.101	4.33044
3.1015	7.5531
3.102	10.27222
3.1025	9.97009
3.103	9.66797
3.1035	12.78992
3.104	11.07788
3.1045	9.06372
3.105	9.16443
3.1055	17.6239
3.106	3.7262
3.1065	4.33044
3.107	0.80566
3.1075	1.10779
3.108	0.40283
3.1085	2.01416
3.109	0.20142
3.1095	2.01416
3.11	5.63965
3.1105	1.91345
3.111	5.74036
3.1115	8.56018
3.112	9.56726
3.1125	12.78992
3.113	15.30762
3.1135	13.69629
3.114	15.1062
3.1145	13.69629
3.115	13.09204
3.1155	12.89062
3.116	16.11328
3.1165	14.09912
3.117	6.14319
3.1175	7.15027
3.118	5.23682
3.1185	4.63257
3.119	9.76868
3.1195	5.43823
3.12	6.04248
3.1205	3.92761
3.121	3.52478
3.1215	6.44531
3.122	1.61133
3.1225	1.51062
3.123	5.84106
3.1235	9.16443
3.124	3.92761
3.1245	1.61133
3.125	-0.10071
3.1255	-0.80566
3.126	-6.54602
3.1265	3.7262
3.127	0.90637
3.1275	1.40991
3.128	0.30212
3.1285	4.93469
3.129	4.12903
3.1295	4.12903
3.13	5.13611
3.1305	3.22266
3.131	10.67505
3.1315	6.94885
3.132	8.15735
3.1325	5.84106
3.133	7.95593
3.1335	14.50195
3.134	15.60974
3.1345	12.48779
3.135	9.76868
3.1355	7.25098
3.136	-1.3092
3.1365	1.81274
3.137	2.01416
3.1375	-4.63257
3.138	-3.02124
3.1385	3.62549
3.139	-2.11487
3.1395	0.40283
3.14	3.62549
3.1405	7.15027
3.141	-3.52478
3.1415	2.31628
3.142	1.91345
3.1425	6.3446
3.143	6.64673
3.1435	10.57434
3.144	6.3446
3.1445	11.48071
3.145	8.8623
3.1455	6.14319
3.146	4.83398
3.1465	3.7262
3.147	-0.10071
3.1475	-7.95593
3.148	-7.25098
3.1485	-7.75452
3.149	-7.35168
3.1495	-10.27222
3.15	-7.35168
3.1505	-0.10071
3.151	-5.0354
3.1515	0.80566
3.152	6.54602
3.1525	2.5177
3.153	18.22815
3.1535	22.15576
3.154	20.54443
3.1545	20.44373
3.155	24.87488
3.1555	20.84656
3.156	23.8678
3.1565	22.76001
3.157	26.98975
3.1575	17.12036
3.158	20.54443
3.1585	16.11328
3.159	22.05505
3.1595	16.41541
3.16	13.99841
3.1605	17.12036
3.161	10.47363
3.1615	3.42407
3.162	-1.3092
3.1625	1.81274
3.163	-1.91345
3.1635	-5.74036
3.164	0.40283
3.1645	0.70496
3.165	5.63965
3.1655	-2.21558
3.166	-4.53186
3.1665	-13.09204
3.167	-11.48071
3.1675	-12.48779
3.168	-13.99841
3.1685	-6.84814
3.169	-5.43823
3.1695	-3.92761
3.17	1.91345
3.1705	1.51062
3.171	3.92761
3.1715	6.64673
3.172	12.99133
3.1725	8.25806
3.173	10.67505
3.1735	16.21399
3.174	13.89771
3.1745	13.39417
3.175	12.08496
3.1755	12.48779
3.176	11.48071
3.1765	10.57434
3.177	17.32178
3.1775	17.22107
3.178	14.60266
3.1785	13.797
3.179	13.797
3.1795	9.56726
3.18	11.58142
3.1805	6.54602
3.181	7.95593
3.1815	5.23682
3.182	5.74036
3.1825	-0.40283
3.183	3.62549
3.1835	11.38
3.184	10.17151
3.1845	2.11487
3.185	5.13611
3.1855	5.84106
3.186	3.92761
3.1865	11.17859
3.187	6.14319
3.1875	5.13611
3.188	3.22266
3.1885	-0.10071
3.189	5.43823
3.1895	-1.3092
3.19	-1.61133
3.1905	2.01416
3.191	-3.32336
3.1915	-1.10779
3.192	2.31628
3.1925	0.60425
3.193	2.21558
3.1935	6.64673
3.194	-1.10779
3.1945	4.73328
3.195	5.13611
3.1955	9.66797
3.196	7.75452
3.1965	7.04956
3.197	7.15027
3.1975	5.74036
3.198	11.78284
3.1985	14.60266
3.199	6.84814
3.1995	3.52478
3.2	7.75452
3.2005	9.26514
3.201	11.2793
3.2015	10.37292
3.202	11.2793
3.2025	6.44531
3.203	5.53894
3.2035	9.56726
3.204	5.43823
3.2045	6.94885
3.205	3.52478
3.2055	-3.7262
3.206	0.70496
3.2065	-0.50354
3.207	1.81274
3.2075	0.50354
3.208	1.61133
3.2085	1.61133
3.209	1.91345
3.2095	-0.90637
3.21	4.63257
3.2105	6.44531
3.211	8.8623
3.2115	6.44531
3.212	8.96301
3.2125	7.85522
3.213	6.84814
3.2135	7.5531
3.214	4.63257
3.2145	5.53894
3.215	4.02832
3.2155	9.66797
3.216	4.93469
3.2165	3.22266
3.217	3.42407
3.2175	1.10779
3.218	1.10779
3.2185	-1.10779
3.219	-6.44531
3.2195	-1.2085
3.22	-0.30212
3.2205	4.33044
3.221	3.92761
3.2215	5.74036
3.222	6.44531
3.2225	6.04248
3.223	14.09912
3.2235	18.42957
3.224	16.61682
3.2245	13.29346
3.225	14.70337
3.2255	11.58142
3.226	17.42249
3.2265	14.40125
3.227	10.47363
3.2275	7.04956
3.228	10.87646
3.2285	7.15027
3.229	7.95593
3.2295	9.56726
3.23	10.47363
3.2305	2.81982
3.231	0.10071
3.2315	-0.30212
3.232	4.12903
3.2325	6.74744
3.233	10.37292
3.2335	12.78992
3.234	4.53186
3.2345	1.3092
3.235	0.30212
3.2355	-0.90637
3.236	1.61133
3.2365	1.81274
3.237	2.81982
3.2375	-0.50354
3.238	-0.70496
3.2385	1.40991
3.239	3.52478
3.2395	5.23682
3.24	10.47363
3.2405	11.98425
3.241	12.18567
3.2415	15.60974
3.242	11.38
3.2425	13.797
3.243	14.80408
3.2435	8.66089
3.244	9.86938
3.2445	6.94885
3.245	0.70496
3.2455	2.11487
3.246	1.2085
3.2465	-1.2085
3.247	1.40991
3.2475	-3.22266
3.248	-0.60425
3.2485	3.22266
3.249	5.33752
3.2495	11.98425
3.25	8.8623
3.2505	12.99133
3.251	10.77576
3.2515	9.66797
3.252	15.60974
3.2525	17.72461
3.253	12.5885
3.2535	10.97717
3.254	5.63965
3.2545	-4.33044
3.255	-8.7616
3.2555	-5.53894
3.256	-3.22266
3.2565	-1.3092
3.257	4.63257
3.2575	8.15735
3.258	6.54602
3.2585	4.12903
3.259	7.45239
3.2595	13.99841
3.26	12.99133
3.2605	15.60974
3.261	23.16284
3.2615	23.56567
3.262	22.6593
3.2625	20.84656
3.263	14.40125
3.2635	17.52319
3.264	11.98425
3.2645	16.61682
3.265	11.88354
3.2655	14.50195
3.266	11.2793
3.2665	10.0708
3.267	7.85522
3.2675	7.75452
3.268	8.15735
3.2685	5.63965
3.269	5.33752
3.2695	4.12903
3.27	2.41699
3.2705	0.70496
3.271	3.32336
3.2715	0.30212
3.272	-1.00708
3.2725	1.2085
3.273	2.21558
3.2735	2.5177
3.274	6.2439
3.2745	4.53186
3.275	8.15735
3.2755	12.89062
3.276	11.07788
3.2765	15.40833
3.277	8.66089
3.2775	6.2439
3.278	7.35168
3.2785	5.33752
3.279	2.71912
3.2795	5.43823
3.28	5.53894
3.2805	6.74744
3.281	5.53894
3.2815	3.22266
3.282	3.12195
3.2825	-1.51062
3.283	-13.59558
3.2835	-13.99841
3.284	-7.25098
3.2845	-4.93469
3.285	-9.86938
3.2855	-2.01416
3.286	-5.33752
3.2865	-1.91345
3.287	-1.61133
3.2875	-4.53186
3.288	-6.64673
3.2885	-3.92761
3.289	0
3.2895	3.42407
3.29	-1.10779
3.2905	4.22974
3.291	1.3092
3.2915	7.25098
3.292	7.35168
3.2925	5.23682
3.293	4.53186
3.2935	8.56018
3.294	-1.61133
3.2945	-1.3092
3.295	-3.52478
3.2955	-1.3092
3.296	-2.21558
3.2965	0
3.297	3.32336
3.2975	0.80566
3.298	1.3092
3.2985	0.20142
3.299	1.71204
3.2995	6.04248
3.3	0.60425
3.3005	1.00708
3.301	-2.11487
3.3015	-1.00708
3.302	-0.70496
3.3025	4.93469
3.303	1.00708
3.3035	-0.10071
3.304	-0.20142
3.3045	-4.02832
3.305	4.22974
3.3055	1.3092
3.306	3.22266
3.3065	1.81274
3.307	5.0354
3.3075	7.35168
3.308	6.44531
3.3085	7.45239
3.309	5.84106
3.3095	5.0354
3.31	7.75452
3.3105	11.88354
3.311	10.47363
3.3115	11.17859
3.312	12.08496
3.3125	4.73328
3.313	3.92761
3.3135	-0.70496
3.314	2.61841
3.3145	-0.20142
3.315	-4.02832
3.3155	-7.04956
3.316	-4.43115
3.3165	-0.30212
3.317	1.51062
3.3175	10.17151
3.318	7.65381
3.3185	6.64673
3.319	4.73328
3.3195	8.66089
3.32	17.12036
3.3205	19.23523
3.321	26.3855
3.3215	22.05505
3.322	23.8678
3.3225	19.03381
3.323	17.42249
3.3235	15.00549
3.324	9.76868
3.3245	4.83398
3.325	3.7262
3.3255	-0.50354
3.326	3.42407
3.3265	7.95593
3.327	7.04956
3.3275	10.77576
3.328	6.14319
3.3285	1.2085
3.329	-5.94177
3.3295	0.90637
3.33	2.01416
3.3305	-2.92053
3.331	0.90637
3.3315	3.92761
3.332	1.10779
3.3325	4.12903
3.333	6.2439
3.3335	4.43115
3.334	10.77576
3.3345	3.8269
3.335	13.99841
3.3355	16.91895
3.336	22.35718
3.3365	20.94727
3.337	17.6239
3.3375	14.60266
3.338	15.00549
3.3385	10.27222
3.339	4.02832
3.3395	1.81274
3.34	3.52478
3.3405	0
3.341	-3.92761
3.3415	-3.92761
3.342	-2.31628
3.3425	-9.56726
3.343	-3.7262
3.3435	-0.70496
3.344	-4.93469
3.3445	1.10779
3.345	6.2439
3.3455	20.1416
3.346	23.16284
3.3465	24.97559
3.347	28.9032
3.3475	23.26355
3.348	18.73169
3.3485	21.3501
3.349	20.1416
3.3495	20.94727
3.35	20.94727
3.3505	21.3501
3.351	22.05505
3.3515	20.1416
3.352	8.8623
3.3525	9.06372
3.353	1.81274
3.3535	-0.90637
3.354	-2.01416
3.3545	-1.61133
3.355	-7.35168
3.3555	-3.22266
3.356	1.61133
3.3565	-0.90637
3.357	1.71204
3.3575	3.22266
3.358	3.52478
3.3585	7.15027
3.359	0
3.3595	-1.10779
3.36	-4.02832
3.3605	1.81274
3.361	5.84106
3.3615	6.14319
3.362	6.2439
3.3625	-0.70496
3.363	1.91345
3.3635	3.92761
3.364	1.40991
3.3645	2.92053
3.365	-0.60425
3.3655	0.80566
3.366	-0.50354
3.3665	6.44531
3.367	9.36584
3.3675	10.57434
3.368	10.17151
3.3685	6.64673
3.369	4.63257
3.3695	2.21558
3.37	5.33752
3.3705	9.36584
3.371	8.7616
3.3715	8.45947
3.372	8.45947
3.3725	6.94885
3.373	6.64673
3.3735	3.12195
3.374	7.35168
3.3745	4.83398
3.375	11.2793
3.3755	12.38708
3.376	13.797
3.3765	0.10071
3.377	-1.2085
3.3775	4.73328
3.378	10.0708
3.3785	4.53186
3.379	-4.73328
3.3795	-2.01416
3.38	0.50354
3.3805	1.40991
3.381	-4.12903
3.3815	0.80566
3.382	0.90637
3.3825	-0.10071
3.383	2.61841
3.3835	2.71912
3.384	9.26514
3.3845	11.78284
3.385	9.76868
3.3855	15.1062
3.386	15.81116
3.3865	11.48071
3.387	11.17859
3.3875	11.78284
3.388	9.06372
3.3885	4.22974
3.389	7.95593
3.3895	0.60425
3.39	3.7262
3.3905	8.35876
3.391	10.17151
3.3915	9.56726
3.392	1.40991
3.3925	3.12195
3.393	8.45947
3.3935	4.22974
3.394	8.05664
3.3945	9.86938
3.395	7.15027
3.3955	3.12195
3.396	6.94885
3.3965	4.33044
3.397	3.22266
3.3975	0.20142
3.398	6.84814
3.3985	10.47363
3.399	11.68213
3.3995	1.10779
3.4	8.7616
3.4005	5.84106
3.401	3.32336
3.4015	1.71204
3.402	1.00708
3.4025	1.51062
3.403	3.32336
3.4035	2.01416
3.404	1.3092
3.4045	1.61133
3.405	1.61133
3.4055	3.02124
3.406	-0.10071
3.4065	5.84106
3.407	3.42407
3.4075	1.71204
3.408	1.3092
3.4085	6.14319
3.409	6.04248
3.4095	3.42407
3.41	1.40991
3.4105	1.3092
3.411	0.90637
3.4115	5.94177
3.412	2.11487
3.4125	6.04248
3.413	4.93469
3.4135	4.93469
3.414	4.43115
3.4145	-5.43823
3.415	-9.16443
3.4155	-4.73328
3.416	0.50354
3.4165	5.84106
3.417	6.3446
3.4175	14.60266
3.418	16.11328
3.4185	18.93311
3.419	19.03381
3.4195	26.48621
3.42	28.09753
3.4205	26.28479
3.421	20.74585
3.4215	20.1416
3.422	27.39258
3.4225	25.47913
3.423	23.66638
3.4235	25.27771
3.424	24.06921
3.4245	12.78992
3.425	19.03381
3.4255	15.30762
3.426	18.02673
3.4265	12.38708
3.427	9.66797
3.4275	7.25098
3.428	2.31628
3.4285	5.0354
3.429	8.7616
3.4295	1.51062
3.43	1.51062
3.4305	0
3.431	-8.05664
3.4315	-6.54602
3.432	-10.87646
3.4325	-10.37292
3.433	-9.16443
3.4335	2.11487
3.434	-2.71912
3.4345	4.22974
3.435	9.66797
3.4355	12.28638
3.436	13.49487
3.4365	19.23523
3.437	16.91895
3.4375	11.38
3.438	12.48779
3.4385	9.16443
3.439	11.2793
3.4395	9.97009
3.44	17.12036
3.4405	8.96301
3.441	9.26514
3.4415	13.19275
3.442	18.12744
3.4425	12.18567
3.443	13.99841
3.4435	5.43823
3.444	1.91345
3.4445	5.63965
3.445	2.92053
3.4455	0.90637
3.446	5.53894
3.4465	4.53186
3.447	9.26514
3.4475	9.16443
3.448	11.07788
3.4485	3.52478
3.449	5.13611
3.4495	7.85522
3.45	4.93469
3.4505	-0.20142
3.451	2.5177
3.4515	4.73328
3.452	6.04248
3.4525	6.44531
3.453	1.91345
3.4535	1.71204
3.454	-0.60425
3.4545	-4.73328
3.455	-7.04956
3.4555	-6.04248
3.456	-6.04248
3.4565	-3.52478
3.457	-4.22974
3.4575	10.17151
3.458	6.54602
3.4585	6.64673
3.459	5.43823
3.4595	10.77576
3.46	8.45947
3.4605	4.22974
3.461	6.84814
3.4615	-0.60425
3.462	4.83398
3.4625	3.42407
3.463	2.31628
3.4635	1.81274
3.464	0.40283
3.4645	0.70496
3.465	-0.30212
3.4655	3.42407
3.466	1.00708
3.4665	6.04248
3.467	9.16443
3.4675	8.66089
3.468	7.45239
3.4685	5.43823
3.469	9.66797
3.4695	5.74036
3.47	2.31628
3.4705	4.93469
3.471	6.74744
3.4715	6.64673
3.472	1.10779
3.4725	9.86938
3.473	10.17151
3.4735	8.15735
3.474	5.74036
3.4745	7.75452
3.475	10.0708
3.4755	7.04956
3.476	12.28638
3.4765	6.74744
3.477	8.96301
3.4775	11.88354
3.478	11.68213
3.4785	14.50195
3.479	13.59558
3.4795	13.797
3.48	10.37292
3.4805	12.18567
3.481	5.94177
3.4815	6.3446
3.482	6.04248
3.4825	1.2085
3.483	0.50354
3.4835	0.60425
3.484	-0.50354
3.4845	1.2085
3.485	0.10071
3.4855	-2.41699
3.486	-6.64673
3.4865	-7.75452
3.487	-11.07788
3.4875	-8.15735
3.488	-5.84106
3.4885	-5.43823
3.489	-8.35876
3.4895	-4.22974
3.49	0.10071
3.4905	11.2793
3.491	8.45947
3.4915	11.07788
3.492	17.22107
3.4925	20.34302
3.493	17.72461
3.4935	16.71753
3.494	12.08496
3.4945	17.22107
3.495	13.49487
3.4955	10.97717
3.496	8.25806
3.4965	15.40833
3.497	15.1062
3.4975	10.97717
3.498	8.45947
3.4985	10.97717
3.499	9.86938
3.4995	8.35876
3.5	4.12903
3.5005	-1.2085
3.501	2.01416
3.5015	-2.31628
3.502	-9.16443
3.5025	-6.84814
3.503	-9.66797
3.5035	-2.21558
3.504	-3.32336
3.5045	2.31628
3.505	1.91345
3.5055	5.63965
3.506	12.48779
3.5065	12.68921
3.507	8.7616
3.5075	3.7262
3.508	2.81982
3.5085	13.69629
3.509	13.09204
3.5095	12.78992
3.51	12.99133
3.5105	15.20691
3.511	15.60974
3.5115	14.50195
3.512	13.09204
3.5125	11.68213
3.513	6.94885
3.5135	5.94177
3.514	0.50354
3.5145	2.81982
3.515	-1.10779
3.5155	0.30212
3.516	-8.35876
3.5165	-7.35168
3.517	-12.48779
3.5175	-4.53186
3.518	-8.45947
3.5185	-8.8623
3.519	-2.41699
3.5195	0.50354
3.52	4.43115
3.5205	10.37292
3.521	12.68921
3.5215	17.82532
3.522	22.05505
3.5225	24.77417
3.523	24.57275
3.5235	21.3501
3.524	17.42249
3.5245	19.83948
3.525	15.81116
3.5255	16.3147
3.526	16.21399
3.5265	14.80408
3.527	7.95593
3.5275	8.8623
3.528	7.5531
3.5285	6.64673
3.529	9.16443
3.5295	4.22974
3.53	-0.90637
3.5305	0.30212
3.531	-1.91345
3.5315	0.70496
3.532	4.53186
3.5325	2.11487
3.533	-6.74744
3.5335	-3.22266
3.534	-2.92053
3.5345	0.50354
3.535	3.42407
3.5355	2.21558
3.536	2.41699
3.5365	2.61841
3.537	4.93469
3.5375	5.23682
3.538	7.25098
3.5385	5.63965
3.539	9.56726
3.5395	11.58142
3.54	19.43665
3.5405	18.63098
3.541	18.42957
3.5415	15.50903
3.542	12.38708
3.5425	10.47363
3.543	2.5177
3.5435	5.94177
3.544	2.21558
3.5445	4.43115
3.545	4.43115
3.5455	-1.2085
3.546	-7.75452
3.5465	-13.29346
3.547	-13.797
3.5475	-18.32886
3.548	-14.40125
3.5485	-10.47363
3.549	-8.7616
3.5495	-4.93469
3.55	-4.53186
3.5505	1.81274
3.551	2.71912
3.5515	2.21558
3.552	9.26514
3.5525	13.797
3.553	12.28638
3.5535	18.42957
3.554	18.93311
3.5545	25.177
3.555	29.50745
3.5555	21.65222
3.556	20.1416
3.5565	16.91895
3.557	18.22815
3.5575	9.26514
3.558	12.99133
3.5585	10.57434
3.559	6.14319
3.5595	11.48071
3.56	8.35876
3.5605	1.71204
3.561	-0.50354
3.5615	0.60425
3.562	2.92053
3.5625	2.21558
3.563	6.2439
3.5635	8.7616
3.564	13.39417
3.5645	9.66797
3.565	5.33752
3.5655	10.27222
3.566	3.42407
3.5665	7.25098
3.567	7.25098
3.5675	0.60425
3.568	4.22974
3.5685	3.92761
3.569	2.31628
3.5695	1.40991
3.57	-3.42407
3.5705	-4.22974
3.571	-0.60425
3.5715	3.12195
3.572	2.11487
3.5725	4.73328
3.573	4.93469
3.5735	6.3446
3.574	2.41699
3.5745	8.05664
3.575	8.05664
3.5755	6.54602
3.576	4.43115
3.5765	4.43115
3.577	8.35876
3.5775	6.3446
3.578	12.5885
3.5785	14.19983
3.579	12.48779
3.5795	11.58142
3.58	9.66797
3.5805	10.17151
3.581	11.17859
3.5815	10.87646
3.582	10.17151
3.5825	4.93469
3.583	5.23682
3.5835	1.71204
3.584	1.40991
3.5845	2.81982
3.585	1.3092
3.5855	0.80566
3.586	-1.40991
3.5865	-2.21558
3.587	-3.92761
3.5875	-2.81982
3.588	-1.2085
3.5885	0.20142
3.589	2.21558
3.5895	1.10779
3.59	7.75452
3.5905	9.97009
3.591	9.97009
3.5915	10.67505
3.592	10.87646
3.5925	8.66089
3.593	7.25098
3.5935	8.7616
3.594	10.67505
3.5945	10.87646
3.595	20.04089
3.5955	15.91187
3.596	20.54443
3.5965	19.03381
3.597	19.23523
3.5975	11.58142
3.598	10.67505
3.5985	1.10779
3.599	-3.32336
3.5995	-3.12195
3.6	-2.92053
3.6005	-2.01416
3.601	5.0354
3.6015	3.42407
3.602	-2.31628
3.6025	5.13611
3.603	4.22974
3.6035	3.22266
3.604	2.41699
3.6045	3.12195
3.605	2.5177
3.6055	5.63965
3.606	8.8623
3.6065	10.17151
3.607	9.66797
3.6075	10.57434
3.608	11.58142
3.6085	6.04248
3.609	6.94885
3.6095	9.26514
3.61	8.45947
3.6105	6.04248
3.611	6.14319
3.6115	6.14319
3.612	0.40283
3.6125	-5.94177
3.613	-2.11487
3.6135	-3.52478
3.614	-0.80566
3.6145	4.83398
3.615	8.8623
3.6155	3.62549
3.616	3.52478
3.6165	0
3.617	5.23682
3.6175	11.58142
3.618	5.84106
3.6185	8.96301
3.619	6.2439
3.6195	9.36584
3.62	3.22266
3.6205	-0.10071
3.621	2.5177
3.6215	11.07788
3.622	6.04248
3.6225	1.3092
3.623	3.8269
3.6235	0.70496
3.624	7.5531
3.6245	3.7262
3.625	4.53186
3.6255	3.62549
3.626	-4.22974
3.6265	-2.01416
3.627	5.13611
3.6275	2.01416
3.628	0.30212
3.6285	1.10779
3.629	3.8269
3.6295	3.42407
3.63	2.92053
3.6305	5.43823
3.631	10.17151
3.6315	6.3446
3.632	7.5531
3.6325	12.28638
3.633	15.50903
3.6335	17.12036
3.634	16.91895
3.6345	18.53027
3.635	17.72461
3.6355	15.1062
3.636	21.85364
3.6365	17.12036
3.637	13.89771
3.6375	11.17859
3.638	11.38
3.6385	4.43115
3.639	3.7262
3.6395	6.84814
3.64	9.66797
3.6405	5.53894
3.641	3.8269
3.6415	3.8269
3.642	3.8269
3.6425	2.71912
3.643	-0.40283
3.6435	-1.51062
3.644	7.04956
3.6445	4.63257
3.645	6.94885
3.6455	7.35168
3.646	4.63257
3.6465	1.40991
3.647	2.41699
3.6475	7.35168
3.648	5.94177
3.6485	4.33044
3.649	6.54602
3.6495	5.13611
3.65	3.92761
3.6505	7.5531
3.651	7.15027
3.6515	11.38
3.652	15.50903
3.6525	13.99841
3.653	11.07788
3.6535	5.13611
3.654	10.17151
3.6545	12.18567
3.655	11.48071
3.6555	9.46655
3.656	10.37292
3.6565	7.5531
3.657	6.94885
3.6575	4.22974
3.658	2.61841
3.6585	-3.62549
3.659	3.32336
3.6595	2.71912
3.66	0.50354
3.6605	4.33044
3.661	2.41699
3.6615	4.12903
3.662	2.01416
3.6625	3.02124
3.663	-0.90637
3.6635	4.73328
3.664	-0.70496
3.6645	5.74036
3.665	3.12195
3.6655	3.92761
3.666	0.70496
3.6665	-0.30212
3.667	4.93469
3.6675	3.22266
3.668	3.92761
3.6685	1.51062
3.669	3.52478
3.6695	2.81982
3.67	7.04956
3.6705	5.33752
3.671	4.43115
3.6715	4.33044
3.672	7.15027
3.6725	1.00708
3.673	4.93469
3.6735	8.45947
3.674	9.36584
3.6745	8.45947
3.675	9.06372
3.6755	11.98425
3.676	2.81982
3.6765	8.8623
3.677	4.43115
3.6775	4.43115
3.678	3.42407
3.6785	4.12903
3.679	2.81982
3.6795	7.04956
3.68	6.84814
3.6805	5.94177
3.681	6.44531
3.6815	1.40991
3.682	-2.21558
3.6825	1.61133
3.683	7.45239
3.6835	6.84814
3.684	0.60425
3.6845	-0.50354
3.685	-0.50354
3.6855	-1.81274
3.686	-0.70496
3.6865	-0.20142
3.687	4.33044
3.6875	5.33752
3.688	4.83398
3.6885	-3.22266
3.689	-8.15735
3.6895	-4.83398
3.69	-2.71912
3.6905	-0.10071
3.691	2.01416
3.6915	-2.01416
3.692	3.7262
3.6925	3.02124
3.693	13.89771
3.6935	10.47363
3.694	14.80408
3.6945	6.14319
3.695	15.50903
3.6955	17.72461
3.696	21.95435
3.6965	21.85364
3.697	17.01965
3.6975	17.32178
3.698	15.40833
3.6985	9.56726
3.699	13.39417
3.6995	12.68921
3.7	7.04956
3.7005	11.17859
3.701	5.53894
3.7015	7.5531
3.702	10.97717
3.7025	9.56726
3.703	2.71912
3.7035	10.87646
3.704	5.0354
3.7045	7.25098
3.705	5.94177
3.7055	4.93469
3.706	8.66089
3.7065	2.11487
3.707	6.64673
3.7075	13.19275
3.708	4.53186
3.7085	4.02832
3.709	6.74744
3.7095	3.12195
3.71	2.71912
3.7105	-0.80566
3.711	5.23682
3.7115	0.50354
3.712	2.31628
3.7125	-1.51062
3.713	-2.31628
3.7135	-9.16443
3.714	-4.53186
3.7145	-6.14319
3.715	-5.43823
3.7155	-9.46655
3.716	-4.63257
3.7165	-2.92053
3.717	0.40283
3.7175	-1.3092
3.718	3.22266
3.7185	3.52478
3.719	5.63965
3.7195	10.97717
3.72	10.87646
3.7205	12.78992
3.721	16.91895
3.7215	11.78284
3.722	13.797
3.7225	12.99133
3.723	15.40833
3.7235	9.06372
3.724	5.43823
3.7245	6.44531
3.725	7.35168
3.7255	2.41699
3.726	5.84106
3.7265	8.7616
3.727	0.60425
3.7275	-0.90637
3.728	-0.80566
3.7285	-2.31628
3.729	2.21558
3.7295	-2.81982
3.73	3.42407
3.7305	3.62549
3.731	2.21558
3.7315	5.43823
3.732	11.07788
3.7325	8.35876
3.733	12.08496
3.7335	11.17859
3.734	12.78992
3.7345	12.48779
3.735	14.50195
3.7355	6.64673
3.736	11.58142
3.7365	10.57434
3.737	16.01257
3.7375	12.18567
3.738	14.09912
3.7385	7.04956
3.739	7.5531
3.7395	10.27222
3.74	6.44531
3.7405	7.15027
3.741	5.33752
3.7415	-3.12195
3.742	-1.3092
3.7425	1.3092
3.743	-0.70496
3.7435	-3.12195
3.744	2.21558
3.7445	-8.96301
3.745	1.71204
3.7455	-7.5531
3.746	-7.5531
3.7465	-14.19983
3.747	-11.2793
3.7475	-3.7262
3.748	-3.8269
3.7485	-0.10071
3.749	0.30212
3.7495	5.74036
3.75	7.45239
3.7505	10.37292
3.751	6.64673
3.7515	8.45947
3.752	9.06372
3.7525	8.35876
3.753	4.12903
3.7535	6.14319
3.754	2.71912
3.7545	6.14319
3.755	4.73328
3.7555	2.21558
3.756	1.40991
3.7565	3.42407
3.757	5.94177
3.7575	14.09912
3.758	10.87646
3.7585	12.5885
3.759	13.89771
3.7595	19.03381
3.76	18.42957
3.7605	17.22107
3.761	20.54443
3.7615	25.47913
3.762	13.29346
3.7625	12.89062
3.763	10.17151
3.7635	7.04956
3.764	10.67505
3.7645	10.67505
3.765	12.89062
3.7655	13.19275
3.766	4.12903
3.7665	6.84814
3.767	0.30212
3.7675	-2.11487
3.768	-5.43823
3.7685	-1.91345
3.769	0.50354
3.7695	0.70496
3.77	-2.81982
3.7705	-1.3092
3.771	1.51062
3.7715	8.35876
3.772	4.12903
3.7725	9.06372
3.773	2.31628
3.7735	1.10779
3.774	-1.91345
3.7745	8.7616
3.775	2.11487
3.7755	2.71912
3.776	4.43115
3.7765	4.93469
3.777	9.46655
3.7775	2.41699
3.778	2.71912
3.7785	3.22266
3.779	0.90637
3.7795	4.43115
3.78	4.73328
3.7805	2.92053
3.781	0.50354
3.7815	3.22266
3.782	4.73328
3.7825	1.3092
3.783	2.11487
3.7835	11.2793
3.784	8.56018
3.7845	10.57434
3.785	8.25806
3.7855	9.46655
3.786	9.97009
3.7865	9.76868
3.787	6.84814
3.7875	10.37292
3.788	12.99133
3.7885	10.77576
3.789	4.53186
3.7895	3.62549
3.79	4.83398
3.7905	7.04956
3.791	7.04956
3.7915	4.93469
3.792	8.66089
3.7925	11.48071
3.793	12.89062
3.7935	12.48779
3.794	10.37292
3.7945	7.95593
3.795	9.76868
3.7955	15.40833
3.796	9.66797
3.7965	16.01257
3.797	11.78284
3.7975	11.17859
3.798	1.81274
3.7985	-5.13611
3.799	-1.91345
3.7995	-7.85522
3.8	-10.37292
3.8005	-10.57434
3.801	-18.8324
3.8015	-21.55151
3.802	-13.09204
3.8025	-6.94885
3.803	-10.17151
3.8035	1.71204
3.804	2.01416
3.8045	9.86938
3.805	18.93311
3.8055	20.74585
3.806	20.94727
3.8065	30.01099
3.807	25.88196
3.8075	30.41382
3.808	25.27771
3.8085	27.09045
3.809	19.94019
3.8095	22.96143
3.81	18.73169
3.8105	12.78992
3.811	7.65381
3.8115	15.30762
3.812	15.1062
3.8125	7.95593
3.813	4.93469
3.8135	1.00708
3.814	1.40991
3.8145	2.11487
3.815	-0.10071
3.8155	3.62549
3.816	4.22974
3.8165	9.26514
3.817	9.26514
3.8175	7.15027
3.818	4.53186
3.8185	0.90637
3.819	-1.00708
3.8195	-4.73328
3.82	0.20142
3.8205	-9.56726
3.821	-7.95593
3.8215	-10.0708
3.822	-7.95593
3.8225	-6.04248
3.823	-4.02832
3.8235	-0.90637
3.824	0.20142
3.8245	1.61133
3.825	5.63965
3.8255	2.5177
3.826	0
3.8265	4.12903
3.827	3.62549
3.8275	12.38708
3.828	15.71045
3.8285	10.47363
3.829	20.24231
3.8295	20.74585
3.83	18.73169
3.8305	14.40125
3.831	14.19983
3.8315	11.38
3.832	3.32336
3.8325	7.25098
3.833	3.22266
3.8335	6.74744
3.834	4.93469
3.8345	5.33752
3.835	2.81982
3.8355	6.04248
3.836	3.12195
3.8365	5.74036
3.837	8.96301
3.8375	5.0354
3.838	7.5531
3.8385	2.11487
3.839	5.53894
3.8395	16.41541
3.84	9.26514
3.8405	9.76868
3.841	15.71045
3.8415	4.63257
3.842	6.64673
3.8425	2.5177
3.843	9.26514
3.8435	7.5531
3.844	0.50354
3.8445	2.11487
3.845	2.92053
3.8455	5.74036
3.846	-0.40283
3.8465	1.40991
3.847	0.60425
3.8475	-3.22266
3.848	0.80566
3.8485	6.3446
3.849	6.54602
3.8495	4.83398
3.85	-3.42407
3.8505	3.02124
3.851	7.04956
3.8515	2.81982
3.852	2.31628
3.8525	4.63257
3.853	0.50354
3.8535	-2.21558
3.854	-6.84814
3.8545	-3.12195
3.855	-0.30212
3.8555	1.71204
3.856	2.21558
3.8565	0.20142
3.857	1.91345
3.8575	-1.00708
3.858	3.02124
3.8585	8.8623
3.859	8.7616
3.8595	14.70337
3.86	16.3147
3.8605	15.30762
3.861	16.71753
3.8615	13.19275
3.862	9.76868
3.8625	12.08496
3.863	11.88354
3.8635	9.46655
3.864	10.87646
3.8645	10.57434
3.865	13.99841
3.8655	15.30762
3.866	13.59558
3.8665	9.97009
3.867	7.65381
3.8675	8.56018
3.868	8.56018
3.8685	11.78284
3.869	9.06372
3.8695	10.57434
3.87	12.78992
3.8705	13.29346
3.871	13.29346
3.8715	11.38
3.872	6.54602
3.8725	2.71912
3.873	-0.70496
3.8735	-1.00708
3.874	7.04956
3.8745	0.30212
3.875	7.5531
3.8755	-1.00708
3.876	-5.94177
3.8765	-1.40991
3.877	-0.50354
3.8775	-3.22266
3.878	-7.45239
3.8785	-3.22266
3.879	1.61133
3.8795	7.65381
3.88	2.5177
3.8805	4.73328
3.881	2.92053
3.8815	1.61133
3.882	3.22266
3.8825	6.44531
3.883	5.84106
3.8835	5.33752
3.884	8.56018
3.8845	6.04248
3.885	7.95593
3.8855	7.45239
3.886	5.0354
3.8865	7.85522
3.887	5.13611
3.8875	7.25098
3.888	5.53894
3.8885	7.25098
3.889	5.13611
3.8895	13.19275
3.89	13.09204
3.8905	13.69629
3.891	16.71753
3.8915	14.70337
3.892	15.91187
3.8925	11.58142
3.893	7.85522
3.8935	2.61841
3.894	0.90637
3.8945	0.90637
3.895	-6.14319
3.8955	-4.02832
3.896	-1.2085
3.8965	0.90637
3.897	2.11487
3.8975	0.70496
3.898	1.51062
3.8985	0
3.899	0.50354
3.8995	-0.10071
3.9	3.02124
3.9005	3.92761
3.901	6.44531
3.9015	3.32336
3.902	-2.41699
3.9025	-0.10071
3.903	2.01416
3.9035	11.98425
3.904	7.65381
3.9045	8.35876
3.905	11.98425
3.9055	12.18567
3.906	15.1062
3.9065	17.52319
3.907	16.01257
3.9075	17.42249
3.908	16.71753
3.9085	13.69629
3.909	15.60974
3.9095	19.94019
3.91	11.58142
3.9105	12.08496
3.911	12.48779
3.9115	6.84814
3.912	1.2085
3.9125	-1.51062
3.913	2.31628
3.9135	0.60425
3.914	4.63257
3.9145	-0.20142
3.915	3.62549
3.9155	5.63965
3.916	0.50354
3.9165	0.80566
3.917	3.12195
3.9175	3.12195
3.918	1.3092
3.9185	5.74036
3.919	7.04956
3.9195	3.32336
3.92	6.54602
3.9205	3.02124
3.921	5.23682
3.9215	0.30212
3.922	-2.92053
3.9225	-2.41699
3.923	0.40283
3.9235	-3.12195
3.924	-1.10779
3.9245	0.20142
3.925	3.7262
3.9255	-6.84814
3.926	-2.41699
3.9265	-4.33044
3.927	6.2439
3.9275	0.70496
3.928	1.91345
3.9285	1.00708
3.929	1.61133
3.9295	-1.2085
3.93	-1.10779
3.9305	-3.8269
3.931	-10.17151
3.9315	-12.5885
3.932	-9.46655
3.9325	-3.52478
3.933	-2.71912
3.9335	-1.00708
3.934	6.94885
3.9345	9.66797
3.935	13.19275
3.9355	17.32178
3.936	14.50195
3.9365	13.89771
3.937	21.95435
3.9375	23.46497
3.938	18.73169
3.9385	23.16284
3.939	12.5885
3.9395	9.56726
3.94	14.90479
3.9405	13.59558
3.941	19.94019
3.9415	12.28638
3.942	12.68921
3.9425	9.56726
3.943	8.35876
3.9435	4.73328
3.944	-1.10779
3.9445	2.5177
3.945	5.23682
3.9455	5.13611
3.946	6.14319
3.9465	8.05664
3.947	6.94885
3.9475	12.08496
3.948	11.38
3.9485	15.1062
3.949	23.56567
3.9495	22.05505
3.95	21.3501
3.9505	15.1062
3.951	13.29346
3.9515	11.07788
3.952	11.17859
3.9525	13.99841
3.953	13.49487
3.9535	13.29346
3.954	11.48071
3.9545	19.63806
3.955	12.18567
3.9555	12.08496
3.956	11.07788
3.9565	6.3446
3.957	1.91345
3.9575	7.5531
3.958	1.51062
3.9585	5.33752
3.959	7.65381
3.9595	5.84106
3.96	3.12195
3.9605	-0.10071
3.961	-3.12195
3.9615	-1.91345
3.962	-1.51062
3.9625	-2.5177
3.963	-2.11487
3.9635	-2.01416
3.964	-5.74036
3.9645	-1.51062
3.965	1.10779
3.9655	4.93469
3.966	6.14319
3.9665	1.71204
3.967	6.14319
3.9675	8.45947
3.968	1.51062
3.9685	1.10779
3.969	4.53186
3.9695	2.61841
3.97	4.02832
3.9705	2.11487
3.971	4.22974
3.9715	-0.40283
3.972	2.21558
3.9725	1.91345
3.973	5.23682
3.9735	5.84106
3.974	-1.3092
3.9745	-1.3092
3.975	0.50354
3.9755	-2.11487
3.976	2.61841
3.9765	9.97009
3.977	7.85522
3.9775	11.2793
3.978	10.37292
3.9785	8.15735
3.979	13.39417
3.9795	9.26514
3.98	3.92761
3.9805	8.25806
3.981	7.15027
3.9815	8.8623
3.982	9.76868
3.9825	9.46655
3.983	8.66089
3.9835	14.80408
3.984	12.28638
3.9845	7.65381
3.985	1.81274
3.9855	4.43115
3.986	5.84106
3.9865	4.12903
3.987	3.32336
3.9875	3.42407
3.988	6.04248
3.9885	7.95593
3.989	7.15027
3.9895	13.99841
3.99	9.97009
3.9905	3.22266
3.991	-1.10779
3.9915	2.61841
3.992	-3.62549
3.9925	-6.94885
3.993	-5.0354
3.9935	-3.7262
3.994	3.42407
3.9945	5.33752
3.995	10.77576
3.9955	5.63965
3.996	8.45947
3.9965	4.83398
3.997	7.35168
3.9975	9.76868
3.998	5.84106
3.9985	6.74744
3.999	8.15735
3.9995	10.67505
4	11.68213
4.0005	14.19983
4.001	14.09912
4.0015	7.15027
4.002	4.53186
4.0025	11.48071
4.003	9.66797
4.0035	4.93469
4.004	2.41699
4.0045	3.62549
4.005	1.40991
4.0055	4.22974
4.006	2.41699
4.0065	-0.80566
4.007	-0.80566
4.0075	-0.90637
4.008	2.71912
4.0085	5.63965
4.009	5.94177
4.0095	7.25098
4.01	8.25806
4.0105	10.97717
4.011	9.46655
4.0115	9.76868
4.012	4.12903
4.0125	7.15027
4.013	5.23682
4.0135	7.75452
4.014	12.78992
4.0145	10.0708
4.015	7.75452
4.0155	2.01416
4.016	1.40991
4.0165	4.93469
4.017	0.80566
4.0175	3.8269
4.018	7.04956
4.0185	5.13611
4.019	8.7616
4.0195	9.56726
4.02	6.3446
4.0205	7.75452
4.021	8.56018
4.0215	4.83398
4.022	5.53894
4.0225	-1.2085
4.023	0.90637
4.0235	6.2439
4.024	-4.83398
4.0245	-7.15027
4.025	-4.83398
4.0255	-8.35876
4.026	-6.2439
4.0265	-10.37292
4.027	-14.80408
4.0275	-9.76868
4.028	-10.97717
4.0285	-10.77576
4.029	-7.5531
4.0295	-1.10779
4.03	1.61133
4.0305	-0.90637
4.031	0.30212
4.0315	6.04248
4.032	2.71912
4.0325	5.63965
4.033	4.02832
4.0335	3.42407
4.034	10.17151
4.0345	8.7616
4.035	9.56726
4.0355	10.0708
4.036	13.19275
4.0365	11.98425
4.037	20.84656
4.0375	25.47913
4.038	26.98975
4.0385	28.80249
4.039	16.81824
4.0395	19.73877
4.04	17.01965
4.0405	13.89771
4.041	11.48071
4.0415	7.5531
4.042	11.58142
4.0425	12.38708
4.043	11.58142
4.0435	11.78284
4.044	9.97009
4.0445	8.56018
4.045	5.94177
4.0455	-1.40991
4.046	0.70496
4.0465	2.92053
4.047	1.2085
4.0475	2.61841
4.048	9.46655
4.0485	6.2439
4.049	9.76868
4.0495	13.59558
4.05	10.17151
4.0505	9.06372
4.051	3.32336
4.0515	2.92053
4.052	5.43823
4.0525	5.23682
4.053	6.3446
4.0535	12.48779
4.054	13.09204
4.0545	12.5885
4.055	5.74036
4.0555	4.12903
4.056	1.10779
4.0565	-1.61133
4.057	4.53186
4.0575	3.42407
4.058	-0.60425
4.0585	9.66797
4.059	7.65381
4.0595	5.13611
4.06	2.41699
4.0605	3.02124
4.061	3.02124
4.0615	0
