Daniele_De_Santis_Left_1.c3d  



Time(s):	B_R_bicipite(μV):
0	5.84106
0.0005	9.66797
0.001	4.43115
0.0015	0.80566
0.002	-3.22266
0.0025	1.71204
0.003	2.5177
0.0035	-3.32336
0.004	-3.52478
0.0045	0.80566
0.005	0.50354
0.0055	5.43823
0.006	3.32336
0.0065	2.31628
0.007	2.21558
0.0075	2.31628
0.008	0.80566
0.0085	4.02832
0.009	4.22974
0.0095	10.17151
0.01	12.08496
0.0105	7.65381
0.011	4.22974
0.0115	1.2085
0.012	1.2085
0.0125	4.83398
0.013	6.44531
0.0135	4.02832
0.014	6.14319
0.0145	2.01416
0.015	3.42407
0.0155	4.93469
0.016	4.83398
0.0165	2.01416
0.017	4.63257
0.0175	4.43115
0.018	1.2085
0.0185	-0.60425
0.019	6.64673
0.0195	4.73328
0.02	4.93469
0.0205	8.66089
0.021	6.3446
0.0215	4.93469
0.022	4.33044
0.0225	11.48071
0.023	7.15027
0.0235	4.83398
0.024	7.5531
0.0245	6.2439
0.025	8.05664
0.0255	10.57434
0.026	13.89771
0.0265	4.83398
0.027	6.14319
0.0275	5.53894
0.028	7.95593
0.0285	9.36584
0.029	5.0354
0.0295	4.12903
0.03	5.33752
0.0305	4.12903
0.031	9.76868
0.0315	12.08496
0.032	7.15027
0.0325	5.74036
0.033	7.15027
0.0335	7.85522
0.034	17.82532
0.0345	11.38
0.035	11.2793
0.0355	11.78284
0.036	11.48071
0.0365	6.74744
0.037	8.96301
0.0375	11.68213
0.038	4.83398
0.0385	6.2439
0.039	16.3147
0.0395	10.17151
0.04	7.15027
0.0405	5.43823
0.041	4.83398
0.0415	2.61841
0.042	9.36584
0.0425	12.99133
0.043	12.78992
0.0435	7.75452
0.044	7.35168
0.0445	11.38
0.045	9.26514
0.0455	2.31628
0.046	0.50354
0.0465	1.51062
0.047	-2.41699
0.0475	6.3446
0.048	1.51062
0.0485	-0.40283
0.049	1.10779
0.0495	2.21558
0.05	5.84106
0.0505	9.46655
0.051	5.74036
0.0515	3.42407
0.052	1.2085
0.0525	6.94885
0.053	1.81274
0.0535	-1.91345
0.054	3.8269
0.0545	8.66089
0.055	8.8623
0.0555	3.22266
0.056	10.0708
0.0565	7.35168
0.057	3.62549
0.0575	4.63257
0.058	6.64673
0.0585	3.8269
0.059	1.61133
0.0595	3.02124
0.06	3.42407
0.0605	7.85522
0.061	5.94177
0.0615	4.83398
0.062	8.05664
0.0625	2.31628
0.063	1.81274
0.0635	-0.60425
0.064	3.12195
0.0645	5.43823
0.065	5.13611
0.0655	2.5177
0.066	1.00708
0.0665	0.40283
0.067	5.84106
0.0675	2.92053
0.068	3.8269
0.0685	2.81982
0.069	2.5177
0.0695	7.45239
0.07	7.65381
0.0705	4.83398
0.071	7.15027
0.0715	4.33044
0.072	-0.80566
0.0725	10.97717
0.073	7.85522
0.0735	7.04956
0.074	5.0354
0.0745	5.33752
0.075	7.75452
0.0755	6.3446
0.076	10.87646
0.0765	7.15027
0.077	6.84814
0.0775	4.93469
0.078	6.84814
0.0785	9.56726
0.079	7.35168
0.0795	6.04248
0.08	5.74036
0.0805	5.23682
0.081	8.05664
0.0815	11.78284
0.082	5.63965
0.0825	10.67505
0.083	10.57434
0.0835	7.75452
0.084	10.37292
0.0845	13.69629
0.085	13.29346
0.0855	12.08496
0.086	12.5885
0.0865	11.38
0.087	6.2439
0.0875	8.66089
0.088	3.92761
0.0885	6.74744
0.089	6.2439
0.0895	5.23682
0.09	6.2439
0.0905	3.22266
0.091	3.8269
0.0915	10.27222
0.092	2.21558
0.0925	8.45947
0.093	3.22266
0.0935	5.84106
0.094	5.74036
0.0945	2.21558
0.095	7.5531
0.0955	5.0354
0.096	1.51062
0.0965	1.91345
0.097	5.23682
0.0975	4.43115
0.098	12.28638
0.0985	7.45239
0.099	4.93469
0.0995	3.12195
0.1	9.76868
0.1005	6.64673
0.101	3.12195
0.1015	8.8623
0.102	4.53186
0.1025	5.43823
0.103	5.33752
0.1035	5.0354
0.104	3.32336
0.1045	5.53894
0.105	9.46655
0.1055	4.73328
0.106	8.7616
0.1065	8.15735
0.107	8.96301
0.1075	12.48779
0.108	12.5885
0.1085	6.64673
0.109	11.58142
0.1095	10.47363
0.11	10.97717
0.1105	10.47363
0.111	11.88354
0.1115	9.46655
0.112	10.0708
0.1125	10.0708
0.113	10.67505
0.1135	5.84106
0.114	9.16443
0.1145	9.06372
0.115	5.43823
0.1155	0.30212
0.116	4.43115
0.1165	0.20142
0.117	1.40991
0.1175	7.15027
0.118	4.22974
0.1185	6.94885
0.119	5.0354
0.1195	8.35876
0.12	4.43115
0.1205	2.71912
0.121	6.14319
0.1215	7.25098
0.122	5.74036
0.1225	3.22266
0.123	9.76868
0.1235	2.21558
0.124	1.91345
0.1245	2.41699
0.125	-0.20142
0.1255	6.04248
0.126	3.22266
0.1265	0.80566
0.127	4.73328
0.1275	8.7616
0.128	5.33752
0.1285	4.63257
0.129	11.17859
0.1295	0.80566
0.13	-0.80566
0.1305	0.20142
0.131	3.32336
0.1315	-3.32336
0.132	-3.7262
0.1325	-2.92053
0.133	-0.70496
0.1335	-3.32336
0.134	-3.8269
0.1345	1.00708
0.135	-0.50354
0.1355	-3.32336
0.136	-3.8269
0.1365	-4.43115
0.137	-2.92053
0.1375	-6.14319
0.138	-7.95593
0.1385	-10.27222
0.139	-12.78992
0.1395	-4.12903
0.14	-13.797
0.1405	-12.38708
0.141	-8.7616
0.1415	-4.43115
0.142	-4.83398
0.1425	-7.45239
0.143	-11.98425
0.1435	-8.45947
0.144	-7.65381
0.1445	-6.84814
0.145	-0.90637
0.1455	0
0.146	-5.84106
0.1465	-3.62549
0.147	-4.22974
0.1475	-3.22266
0.148	-5.0354
0.1485	-0.60425
0.149	2.5177
0.1495	1.3092
0.15	3.02124
0.1505	0.90637
0.151	2.61841
0.1515	0.60425
0.152	0.60425
0.1525	4.63257
0.153	8.7616
0.1535	6.14319
0.154	5.53894
0.1545	8.05664
0.155	6.84814
0.1555	8.7616
0.156	8.96301
0.1565	8.7616
0.157	9.26514
0.1575	12.78992
0.158	7.75452
0.1585	11.88354
0.159	13.39417
0.1595	12.68921
0.16	7.15027
0.1605	4.93469
0.161	2.41699
0.1615	9.06372
0.162	8.25806
0.1625	5.23682
0.163	9.46655
0.1635	5.94177
0.164	9.26514
0.1645	18.73169
0.165	16.11328
0.1655	10.17151
0.166	10.57434
0.1665	13.19275
0.167	14.09912
0.1675	9.26514
0.168	6.04248
0.1685	15.40833
0.169	15.1062
0.1695	14.09912
0.17	11.98425
0.1705	11.98425
0.171	14.40125
0.1715	13.99841
0.172	14.50195
0.1725	17.6239
0.173	13.39417
0.1735	6.04248
0.174	7.25098
0.1745	10.17151
0.175	10.37292
0.1755	8.25806
0.176	13.99841
0.1765	9.16443
0.177	7.25098
0.1775	1.81274
0.178	10.77576
0.1785	7.15027
0.179	10.27222
0.1795	12.68921
0.18	9.46655
0.1805	10.37292
0.181	10.47363
0.1815	9.66797
0.182	6.3446
0.1825	11.38
0.183	11.58142
0.1835	11.58142
0.184	9.86938
0.1845	8.96301
0.185	10.17151
0.1855	10.27222
0.186	7.45239
0.1865	14.30054
0.187	6.64673
0.1875	11.88354
0.188	13.29346
0.1885	8.66089
0.189	12.08496
0.1895	11.68213
0.19	8.96301
0.1905	13.39417
0.191	11.38
0.1915	9.46655
0.192	11.78284
0.1925	10.77576
0.193	7.45239
0.1935	3.12195
0.194	12.48779
0.1945	14.30054
0.195	7.45239
0.1955	9.06372
0.196	10.47363
0.1965	10.17151
0.197	6.3446
0.1975	12.08496
0.198	6.14319
0.1985	3.22266
0.199	4.93469
0.1995	6.74744
0.2	5.13611
0.2005	9.56726
0.201	10.97717
0.2015	12.89062
0.202	11.58142
0.2025	8.8623
0.203	6.2439
0.2035	8.96301
0.204	12.68921
0.2045	5.63965
0.205	5.74036
0.2055	9.46655
0.206	5.53894
0.2065	3.32336
0.207	6.04248
0.2075	11.98425
0.208	1.91345
0.2085	5.74036
0.209	4.93469
0.2095	9.76868
0.21	6.74744
0.2105	7.45239
0.211	3.8269
0.2115	5.94177
0.212	6.84814
0.2125	4.12903
0.213	10.0708
0.2135	2.71912
0.214	7.5531
0.2145	8.15735
0.215	5.23682
0.2155	5.74036
0.216	7.5531
0.2165	5.53894
0.217	11.48071
0.2175	9.97009
0.218	8.8623
0.2185	5.53894
0.219	5.23682
0.2195	9.06372
0.22	4.93469
0.2205	2.81982
0.221	7.75452
0.2215	8.05664
0.222	5.23682
0.2225	1.71204
0.223	4.83398
0.2235	6.14319
0.224	5.84106
0.2245	5.0354
0.225	6.94885
0.2255	7.15027
0.226	7.15027
0.2265	8.25806
0.227	6.3446
0.2275	6.14319
0.228	6.14319
0.2285	6.04248
0.229	10.97717
0.2295	5.43823
0.23	9.36584
0.2305	7.45239
0.231	5.94177
0.2315	9.97009
0.232	7.35168
0.2325	12.08496
0.233	7.75452
0.2335	3.22266
0.234	4.02832
0.2345	5.33752
0.235	-0.40283
0.2355	7.45239
0.236	6.44531
0.2365	5.13611
0.237	4.63257
0.2375	2.41699
0.238	4.93469
0.2385	0.90637
0.239	4.22974
0.2395	-0.20142
0.24	5.84106
0.2405	9.66797
0.241	4.02832
0.2415	4.22974
0.242	4.43115
0.2425	9.66797
0.243	7.95593
0.2435	4.73328
0.244	8.25806
0.2445	7.45239
0.245	2.21558
0.2455	7.65381
0.246	5.0354
0.2465	5.33752
0.247	7.25098
0.2475	4.53186
0.248	6.44531
0.2485	4.53186
0.249	4.43115
0.2495	3.62549
0.25	5.63965
0.2505	8.15735
0.251	6.94885
0.2515	2.31628
0.252	2.92053
0.2525	4.93469
0.253	2.71912
0.2535	2.92053
0.254	5.23682
0.2545	6.3446
0.255	3.22266
0.2555	5.0354
0.256	5.74036
0.2565	2.61841
0.257	-2.81982
0.2575	3.02124
0.258	-0.20142
0.2585	-3.32336
0.259	-3.12195
0.2595	1.81274
0.26	4.02832
0.2605	5.0354
0.261	4.73328
0.2615	7.45239
0.262	7.5531
0.2625	7.04956
0.263	-1.40991
0.2635	-0.50354
0.264	-2.71912
0.2645	5.33752
0.265	2.41699
0.2655	1.40991
0.266	4.93469
0.2665	2.92053
0.267	2.21558
0.2675	2.11487
0.268	4.22974
0.2685	4.73328
0.269	7.45239
0.2695	-1.91345
0.27	-0.30212
0.2705	1.61133
0.271	0.20142
0.2715	1.2085
0.272	2.21558
0.2725	3.92761
0.273	3.92761
0.2735	2.81982
0.274	3.32336
0.2745	1.3092
0.275	4.53186
0.2755	4.53186
0.276	-1.10779
0.2765	2.61841
0.277	5.63965
0.2775	4.02832
0.278	3.32336
0.2785	2.41699
0.279	3.62549
0.2795	6.04248
0.28	4.02832
0.2805	6.74744
0.281	6.74744
0.2815	4.02832
0.282	3.02124
0.2825	5.63965
0.283	2.61841
0.2835	2.71912
0.284	4.12903
0.2845	5.13611
0.285	3.7262
0.2855	2.71912
0.286	7.5531
0.2865	5.84106
0.287	5.43823
0.2875	11.2793
0.288	5.33752
0.2885	6.3446
0.289	10.27222
0.2895	9.76868
0.29	11.07788
0.2905	8.15735
0.291	9.46655
0.2915	5.84106
0.292	11.78284
0.2925	6.44531
0.293	6.54602
0.2935	4.93469
0.294	6.14319
0.2945	8.66089
0.295	5.63965
0.2955	-1.81274
0.296	3.02124
0.2965	3.7262
0.297	4.53186
0.2975	4.43115
0.298	6.44531
0.2985	6.04248
0.299	10.37292
0.2995	1.00708
0.3	3.8269
0.3005	4.53186
0.301	1.40991
0.3015	7.5531
0.302	6.84814
0.3025	8.25806
0.303	4.63257
0.3035	2.31628
0.304	3.52478
0.3045	2.41699
0.305	5.53894
0.3055	8.8623
0.306	10.27222
0.3065	5.94177
0.307	8.56018
0.3075	10.27222
0.308	2.61841
0.3085	2.21558
0.309	5.13611
0.3095	4.12903
0.31	3.32336
0.3105	1.71204
0.311	0.30212
0.3115	-0.70496
0.312	2.81982
0.3125	2.31628
0.313	5.13611
0.3135	4.63257
0.314	-1.00708
0.3145	-3.32336
0.315	6.94885
0.3155	0.60425
0.316	-4.63257
0.3165	2.41699
0.317	-4.22974
0.3175	-7.45239
0.318	-4.22974
0.3185	-0.40283
0.319	-2.81982
0.3195	1.81274
0.32	6.64673
0.3205	2.92053
0.321	-1.91345
0.3215	-3.8269
0.322	0.80566
0.3225	2.5177
0.323	3.92761
0.3235	2.01416
0.324	1.40991
0.3245	5.74036
0.325	3.02124
0.3255	5.33752
0.326	8.05664
0.3265	8.7616
0.327	6.54602
0.3275	7.95593
0.328	9.86938
0.3285	6.04248
0.329	6.94885
0.3295	9.06372
0.33	9.06372
0.3305	6.84814
0.331	7.35168
0.3315	5.74036
0.332	6.3446
0.3325	4.43115
0.333	4.12903
0.3335	7.35168
0.334	3.8269
0.3345	9.26514
0.335	8.45947
0.3355	8.8623
0.336	-0.10071
0.3365	6.04248
0.337	11.98425
0.3375	8.15735
0.338	6.64673
0.3385	9.06372
0.339	9.06372
0.3395	10.87646
0.34	7.5531
0.3405	5.94177
0.341	5.63965
0.3415	5.23682
0.342	6.94885
0.3425	5.94177
0.343	2.5177
0.3435	8.56018
0.344	5.43823
0.3445	3.92761
0.345	-1.51062
0.3455	2.5177
0.346	10.67505
0.3465	2.11487
0.347	8.35876
0.3475	1.61133
0.348	5.23682
0.3485	7.15027
0.349	11.17859
0.3495	8.66089
0.35	4.12903
0.3505	6.84814
0.351	7.35168
0.3515	4.83398
0.352	5.0354
0.3525	2.41699
0.353	8.35876
0.3535	8.96301
0.354	2.71912
0.3545	4.43115
0.355	1.40991
0.3555	6.2439
0.356	4.93469
0.3565	1.91345
0.357	4.63257
0.3575	3.02124
0.358	2.71912
0.3585	1.2085
0.359	2.71912
0.3595	2.5177
0.36	6.44531
0.3605	3.62549
0.361	3.7262
0.3615	3.12195
0.362	4.02832
0.3625	6.2439
0.363	4.83398
0.3635	4.02832
0.364	6.74744
0.3645	12.78992
0.365	3.52478
0.3655	8.25806
0.366	8.15735
0.3665	9.46655
0.367	15.50903
0.3675	12.38708
0.368	3.52478
0.3685	8.8623
0.369	7.45239
0.3695	2.71912
0.37	4.63257
0.3705	2.71912
0.371	6.3446
0.3715	3.52478
0.372	5.13611
0.3725	2.92053
0.373	4.43115
0.3735	2.71912
0.374	10.47363
0.3745	4.53186
0.375	5.23682
0.3755	2.41699
0.376	4.43115
0.3765	4.63257
0.377	7.45239
0.3775	8.25806
0.378	13.19275
0.3785	9.66797
0.379	13.19275
0.3795	12.99133
0.38	13.797
0.3805	6.2439
0.381	9.46655
0.3815	2.81982
0.382	3.7262
0.3825	5.33752
0.383	0.20142
0.3835	5.63965
0.384	3.7262
0.3845	6.2439
0.385	5.43823
0.3855	7.75452
0.386	8.56018
0.3865	6.04248
0.387	11.2793
0.3875	8.35876
0.388	11.07788
0.3885	7.04956
0.389	1.91345
0.3895	2.11487
0.39	6.64673
0.3905	8.35876
0.391	8.45947
0.3915	-1.3092
0.392	2.31628
0.3925	3.8269
0.393	2.61841
0.3935	6.54602
0.394	2.01416
0.3945	4.43115
0.395	3.42407
0.3955	3.32336
0.396	8.96301
0.3965	6.04248
0.397	2.61841
0.3975	3.8269
0.398	4.02832
0.3985	6.54602
0.399	7.15027
0.3995	0.10071
0.4	-0.20142
0.4005	7.25098
0.401	1.71204
0.4015	4.83398
0.402	0.10071
0.4025	2.21558
0.403	4.73328
0.4035	0.80566
0.404	5.84106
0.4045	9.46655
0.405	6.3446
0.4055	3.8269
0.406	3.62549
0.4065	1.40991
0.407	4.63257
0.4075	9.36584
0.408	6.2439
0.4085	8.96301
0.409	2.01416
0.4095	1.51062
0.41	4.63257
0.4105	4.33044
0.411	4.73328
0.4115	5.0354
0.412	12.48779
0.4125	10.47363
0.413	3.22266
0.4135	1.40991
0.414	0.50354
0.4145	3.02124
0.415	2.81982
0.4155	2.92053
0.416	8.15735
0.4165	7.65381
0.417	5.74036
0.4175	2.5177
0.418	3.22266
0.4185	5.43823
0.419	6.14319
0.4195	-1.2085
0.42	8.05664
0.4205	8.45947
0.421	5.74036
0.4215	5.0354
0.422	6.84814
0.4225	1.81274
0.423	3.62549
0.4235	3.12195
0.424	0.60425
0.4245	2.01416
0.425	4.53186
0.4255	11.88354
0.426	4.63257
0.4265	1.10779
0.427	3.8269
0.4275	1.81274
0.428	1.71204
0.4285	7.5531
0.429	4.93469
0.4295	4.22974
0.43	0.60425
0.4305	9.36584
0.431	4.93469
0.4315	4.12903
0.432	2.01416
0.4325	2.61841
0.433	2.5177
0.4335	2.31628
0.434	5.94177
0.4345	2.81982
0.435	-1.2085
0.4355	0.80566
0.436	4.73328
0.4365	0.20142
0.437	2.71912
0.4375	6.64673
0.438	6.74744
0.4385	8.05664
0.439	5.74036
0.4395	4.73328
0.44	1.00708
0.4405	4.43115
0.441	1.61133
0.4415	5.13611
0.442	5.43823
0.4425	7.85522
0.443	8.35876
0.4435	0.60425
0.444	6.94885
0.4445	5.63965
0.445	5.84106
0.4455	8.8623
0.446	4.53186
0.4465	8.7616
0.447	10.57434
0.4475	5.63965
0.448	11.68213
0.4485	7.95593
0.449	8.96301
0.4495	6.3446
0.45	4.02832
0.4505	3.22266
0.451	10.0708
0.4515	10.27222
0.452	11.38
0.4525	6.74744
0.453	13.797
0.4535	13.39417
0.454	8.7616
0.4545	11.88354
0.455	7.25098
0.4555	13.797
0.456	8.66089
0.4565	7.5531
0.457	0.10071
0.4575	2.61841
0.458	4.53186
0.4585	1.91345
0.459	6.04248
0.4595	5.94177
0.46	1.2085
0.4605	6.2439
0.461	5.13611
0.4615	7.65381
0.462	5.0354
0.4625	11.78284
0.463	2.5177
0.4635	4.73328
0.464	5.0354
0.4645	7.85522
0.465	6.84814
0.4655	2.21558
0.466	6.2439
0.4665	5.23682
0.467	3.52478
0.4675	3.02124
0.468	5.43823
0.4685	4.93469
0.469	3.32336
0.4695	6.74744
0.47	11.38
0.4705	8.45947
0.471	10.0708
0.4715	4.02832
0.472	6.14319
0.4725	7.25098
0.473	8.96301
0.4735	11.48071
0.474	10.27222
0.4745	13.09204
0.475	12.18567
0.4755	9.97009
0.476	12.99133
0.4765	8.66089
0.477	15.71045
0.4775	15.30762
0.478	7.95593
0.4785	10.97717
0.479	10.17151
0.4795	7.25098
0.48	11.68213
0.4805	6.64673
0.481	3.92761
0.4815	7.35168
0.482	2.92053
0.4825	1.51062
0.483	4.53186
0.4835	3.02124
0.484	5.23682
0.4845	12.08496
0.485	7.85522
0.4855	6.2439
0.486	6.64673
0.4865	4.22974
0.487	4.12903
0.4875	4.63257
0.488	5.74036
0.4885	8.7616
0.489	5.63965
0.4895	1.91345
0.49	10.67505
0.4905	6.3446
0.491	6.94885
0.4915	7.15027
0.492	1.71204
0.4925	9.97009
0.493	4.12903
0.4935	1.00708
0.494	9.66797
0.4945	5.13611
0.495	9.26514
0.4955	12.28638
0.496	7.85522
0.4965	5.74036
0.497	8.05664
0.4975	9.16443
0.498	3.52478
0.4985	5.13611
0.499	10.57434
0.4995	10.47363
0.5	6.94885
0.5005	11.2793
0.501	11.07788
0.5015	12.48779
0.502	5.23682
0.5025	9.16443
0.503	7.35168
0.5035	8.05664
0.504	7.75452
0.5045	10.77576
0.505	10.27222
0.5055	4.63257
0.506	8.25806
0.5065	3.02124
0.507	4.73328
0.5075	6.94885
0.508	-1.00708
0.5085	-0.30212
0.509	8.05664
0.5095	5.13611
0.51	6.14319
0.5105	1.91345
0.511	2.01416
0.5115	4.63257
0.512	6.64673
0.5125	6.14319
0.513	5.63965
0.5135	5.74036
0.514	3.62549
0.5145	2.21558
0.515	6.64673
0.5155	4.12903
0.516	5.0354
0.5165	2.41699
0.517	3.42407
0.5175	3.62549
0.518	3.22266
0.5185	4.02832
0.519	5.43823
0.5195	4.33044
0.52	-0.40283
0.5205	5.23682
0.521	4.53186
0.5215	3.02124
0.522	2.61841
0.5225	2.21558
0.523	4.63257
0.5235	1.40991
0.524	7.35168
0.5245	12.08496
0.525	7.04956
0.5255	7.15027
0.526	6.54602
0.5265	9.66797
0.527	17.42249
0.5275	10.17151
0.528	7.04956
0.5285	4.53186
0.529	8.66089
0.5295	4.93469
0.53	8.8623
0.5305	5.43823
0.531	5.23682
0.5315	9.76868
0.532	10.37292
0.5325	6.64673
0.533	12.48779
0.5335	6.74744
0.534	7.45239
0.5345	2.5177
0.535	1.40991
0.5355	10.37292
0.536	11.2793
0.5365	8.8623
0.537	4.02832
0.5375	9.86938
0.538	-2.11487
0.5385	3.8269
0.539	3.52478
0.5395	7.5531
0.54	-0.10071
0.5405	4.73328
0.541	5.94177
0.5415	1.00708
0.542	0.40283
0.5425	-0.80566
0.543	1.3092
0.5435	1.2085
0.544	7.15027
0.5445	6.04248
0.545	1.51062
0.5455	8.7616
0.546	6.54602
0.5465	3.62549
0.547	7.35168
0.5475	7.5531
0.548	11.07788
0.5485	9.66797
0.549	11.98425
0.5495	8.96301
0.55	6.84814
0.5505	12.08496
0.551	7.25098
0.5515	8.35876
0.552	5.74036
0.5525	8.66089
0.553	9.66797
0.5535	8.56018
0.554	1.81274
0.5545	4.63257
0.555	4.12903
0.5555	3.22266
0.556	7.15027
0.5565	0.10071
0.557	4.22974
0.5575	6.14319
0.558	6.3446
0.5585	2.41699
0.559	3.92761
0.5595	6.14319
0.56	7.65381
0.5605	5.94177
0.561	5.94177
0.5615	8.66089
0.562	5.43823
0.5625	3.8269
0.563	5.43823
0.5635	7.5531
0.564	4.83398
0.5645	7.5531
0.565	10.77576
0.5655	4.63257
0.566	5.13611
0.5665	4.22974
0.567	7.15027
0.5675	6.3446
0.568	2.41699
0.5685	8.66089
0.569	1.3092
0.5695	6.3446
0.57	10.0708
0.5705	1.2085
0.571	4.53186
0.5715	6.84814
0.572	4.93469
0.5725	0.30212
0.573	5.74036
0.5735	4.93469
0.574	5.33752
0.5745	6.3446
0.575	4.73328
0.5755	7.25098
0.576	2.81982
0.5765	5.53894
0.577	4.63257
0.5775	7.65381
0.578	9.66797
0.5785	2.5177
0.579	10.27222
0.5795	11.88354
0.58	7.85522
0.5805	11.17859
0.581	14.09912
0.5815	9.66797
0.582	11.58142
0.5825	8.96301
0.583	9.76868
0.5835	6.74744
0.584	12.38708
0.5845	9.16443
0.585	7.25098
0.5855	7.85522
0.586	9.06372
0.5865	8.35876
0.587	6.54602
0.5875	8.56018
0.588	8.35876
0.5885	7.35168
0.589	9.16443
0.5895	6.94885
0.59	3.22266
0.5905	9.06372
0.591	9.76868
0.5915	6.3446
0.592	7.85522
0.5925	7.04956
0.593	2.41699
0.5935	5.13611
0.594	9.06372
0.5945	6.14319
0.595	5.13611
0.5955	4.73328
0.596	6.84814
0.5965	4.02832
0.597	5.53894
0.5975	5.63965
0.598	9.76868
0.5985	8.66089
0.599	10.27222
0.5995	5.63965
0.6	8.56018
0.6005	2.5177
0.601	10.37292
0.6015	5.84106
0.602	5.84106
0.6025	7.45239
0.603	8.05664
0.6035	5.43823
0.604	3.8269
0.6045	4.73328
0.605	6.04248
0.6055	9.86938
0.606	8.7616
0.6065	3.92761
0.607	6.54602
0.6075	4.73328
0.608	3.52478
0.6085	13.09204
0.609	9.16443
0.6095	4.73328
0.61	8.96301
0.6105	11.17859
0.611	8.15735
0.6115	6.44531
0.612	4.02832
0.6125	6.2439
0.613	3.8269
0.6135	2.21558
0.614	4.93469
0.6145	3.02124
0.615	-0.60425
0.6155	3.7262
0.616	0.30212
0.6165	4.33044
0.617	2.21558
0.6175	6.44531
0.618	3.92761
0.6185	2.31628
0.619	3.02124
0.6195	6.94885
0.62	3.62549
0.6205	0.20142
0.621	-1.51062
0.6215	9.66797
0.622	3.8269
0.6225	1.2085
0.623	-0.30212
0.6235	5.53894
0.624	11.58142
0.6245	3.62549
0.625	5.0354
0.6255	9.46655
0.626	10.37292
0.6265	7.25098
0.627	10.77576
0.6275	14.50195
0.628	7.95593
0.6285	11.98425
0.629	4.22974
0.6295	3.62549
0.63	4.02832
0.6305	4.02832
0.631	1.61133
0.6315	-1.71204
0.632	5.43823
0.6325	3.42407
0.633	2.61841
0.6335	3.02124
0.634	4.02832
0.6345	0.80566
0.635	4.02832
0.6355	6.54602
0.636	8.45947
0.6365	1.3092
0.637	0
0.6375	0.40283
0.638	4.02832
0.6385	8.45947
0.639	4.53186
0.6395	4.33044
0.64	3.22266
0.6405	4.63257
0.641	7.15027
0.6415	4.12903
0.642	2.41699
0.6425	11.48071
0.643	1.91345
0.6435	2.41699
0.644	5.53894
0.6445	9.66797
0.645	7.65381
0.6455	8.45947
0.646	5.23682
0.6465	6.14319
0.647	8.56018
0.6475	8.25806
0.648	10.57434
0.6485	13.19275
0.649	11.88354
0.6495	13.59558
0.65	7.95593
0.6505	6.3446
0.651	6.3446
0.6515	13.49487
0.652	9.66797
0.6525	8.8623
0.653	4.73328
0.6535	8.35876
0.654	15.60974
0.6545	8.15735
0.655	8.96301
0.6555	7.25098
0.656	1.61133
0.6565	2.5177
0.657	6.94885
0.6575	-1.40991
0.658	0.80566
0.6585	2.71912
0.659	1.81274
0.6595	-0.90637
0.66	3.92761
0.6605	4.83398
0.661	11.88354
0.6615	9.86938
0.662	4.43115
0.6625	4.33044
0.663	3.02124
0.6635	1.51062
0.664	4.73328
0.6645	8.05664
0.665	3.92761
0.6655	2.61841
0.666	3.22266
0.6665	7.65381
0.667	11.88354
0.6675	2.21558
0.668	1.81274
0.6685	7.5531
0.669	11.07788
0.6695	7.5531
0.67	4.63257
0.6705	6.74744
0.671	11.98425
0.6715	7.15027
0.672	5.33752
0.6725	12.89062
0.673	6.2439
0.6735	7.15027
0.674	7.04956
0.6745	4.93469
0.675	9.16443
0.6755	5.63965
0.676	6.74744
0.6765	9.06372
0.677	5.0354
0.6775	3.42407
0.678	7.85522
0.6785	10.27222
0.679	2.71912
0.6795	3.8269
0.68	3.8269
0.6805	-0.60425
0.681	7.85522
0.6815	9.66797
0.682	5.13611
0.6825	6.74744
0.683	12.48779
0.6835	3.62549
0.684	3.32336
0.6845	13.49487
0.685	6.54602
0.6855	8.7616
0.686	2.92053
0.6865	7.95593
0.687	3.02124
0.6875	7.95593
0.688	2.61841
0.6885	3.02124
0.689	10.77576
0.6895	10.97717
0.69	7.5531
0.6905	6.3446
0.691	14.80408
0.6915	13.29346
0.692	9.86938
0.6925	10.97717
0.693	9.16443
0.6935	8.66089
0.694	9.16443
0.6945	8.45947
0.695	5.94177
0.6955	12.68921
0.696	6.84814
0.6965	9.26514
0.697	13.89771
0.6975	7.25098
0.698	5.33752
0.6985	9.36584
0.699	5.0354
0.6995	12.48779
0.7	14.60266
0.7005	7.04956
0.701	8.66089
0.7015	8.05664
0.702	8.96301
0.7025	11.07788
0.703	9.56726
0.7035	8.7616
0.704	7.04956
0.7045	5.43823
0.705	5.23682
0.7055	11.48071
0.706	8.15735
0.7065	11.48071
0.707	7.5531
0.7075	-2.61841
0.708	0.90637
0.7085	3.22266
0.709	6.14319
0.7095	7.25098
0.71	4.83398
0.7105	0.30212
0.711	-0.30212
0.7115	2.92053
0.712	-4.73328
0.7125	-1.10779
0.713	3.22266
0.7135	-0.80566
0.714	0.30212
0.7145	-0.50354
0.715	2.31628
0.7155	-6.84814
0.716	-2.81982
0.7165	-1.61133
0.717	-6.94885
0.7175	-3.12195
0.718	-5.33752
0.7185	-5.13611
0.719	-10.77576
0.7195	-16.01257
0.72	-12.89062
0.7205	-9.56726
0.721	-7.95593
0.7215	-3.7262
0.722	-8.25806
0.7225	-5.33752
0.723	-4.22974
0.7235	-8.05664
0.724	-5.0354
0.7245	-9.66797
0.725	-5.63965
0.7255	-4.43115
0.726	0.10071
0.7265	1.00708
0.727	-5.0354
0.7275	-4.22974
0.728	-1.61133
0.7285	-0.20142
0.729	3.12195
0.7295	-0.70496
0.73	-0.20142
0.7305	-0.60425
0.731	2.31628
0.7315	4.73328
0.732	2.81982
0.7325	3.42407
0.733	7.85522
0.7335	7.25098
0.734	10.17151
0.7345	3.12195
0.735	0.40283
0.7355	6.14319
0.736	0.60425
0.7365	9.06372
0.737	7.85522
0.7375	9.16443
0.738	7.5531
0.7385	7.85522
0.739	10.67505
0.7395	9.86938
0.74	9.97009
0.7405	11.68213
0.741	8.96301
0.7415	9.76868
0.742	10.37292
0.7425	12.48779
0.743	10.57434
0.7435	13.29346
0.744	11.88354
0.7445	12.18567
0.745	6.3446
0.7455	10.47363
0.746	10.67505
0.7465	8.25806
0.747	4.02832
0.7475	1.91345
0.748	6.44531
0.7485	6.94885
0.749	8.7616
0.7495	7.45239
0.75	3.62549
0.7505	4.33044
0.751	7.04956
0.7515	2.61841
0.752	4.22974
0.7525	5.13611
0.753	16.21399
0.7535	6.94885
0.754	7.25098
0.7545	11.98425
0.755	8.25806
0.7555	11.68213
0.756	12.28638
0.7565	10.37292
0.757	11.07788
0.7575	9.36584
0.758	10.47363
0.7585	8.35876
0.759	8.7616
0.7595	10.27222
0.76	9.06372
0.7605	6.3446
0.761	4.73328
0.7615	9.86938
0.762	9.26514
0.7625	10.57434
0.763	6.3446
0.7635	5.23682
0.764	6.64673
0.7645	8.35876
0.765	11.48071
0.7655	9.16443
0.766	5.23682
0.7665	4.02832
0.767	10.67505
0.7675	6.04248
0.768	6.04248
0.7685	7.95593
0.769	9.16443
0.7695	7.25098
0.77	10.97717
0.7705	9.06372
0.771	9.26514
0.7715	10.17151
0.772	6.04248
0.7725	9.86938
0.773	9.86938
0.7735	7.35168
0.774	9.36584
0.7745	8.66089
0.775	7.85522
0.7755	6.14319
0.776	10.57434
0.7765	8.66089
0.777	9.97009
0.7775	7.35168
0.778	4.73328
0.7785	5.84106
0.779	9.76868
0.7795	8.15735
0.78	3.32336
0.7805	1.91345
0.781	3.92761
0.7815	10.97717
0.782	9.56726
0.7825	9.56726
0.783	6.54602
0.7835	8.56018
0.784	8.25806
0.7845	9.46655
0.785	7.04956
0.7855	6.94885
0.786	6.64673
0.7865	3.02124
0.787	2.71912
0.7875	3.22266
0.788	3.8269
0.7885	10.47363
0.789	2.11487
0.7895	4.22974
0.79	6.84814
0.7905	5.84106
0.791	7.65381
0.7915	8.96301
0.792	5.84106
0.7925	7.65381
0.793	12.38708
0.7935	5.94177
0.794	6.44531
0.7945	0.20142
0.795	2.92053
0.7955	10.37292
0.796	8.05664
0.7965	3.7262
0.797	7.5531
0.7975	6.04248
0.798	11.2793
0.7985	11.78284
0.799	9.46655
0.7995	8.66089
0.8	4.22974
0.8005	6.3446
0.801	8.25806
0.8015	11.2793
0.802	18.53027
0.8025	15.1062
0.803	12.28638
0.8035	9.16443
0.804	6.54602
0.8045	6.44531
0.805	4.12903
0.8055	9.16443
0.806	6.14319
0.8065	6.44531
0.807	7.95593
0.8075	4.73328
0.808	2.81982
0.8085	6.94885
0.809	-1.71204
0.8095	-0.70496
0.81	-1.51062
0.8105	-0.30212
0.811	4.12903
0.8115	7.15027
0.812	4.93469
0.8125	6.94885
0.813	6.84814
0.8135	2.61841
0.814	0.70496
0.8145	1.3092
0.815	2.11487
0.8155	8.25806
0.816	7.75452
0.8165	4.43115
0.817	7.95593
0.8175	4.63257
0.818	4.83398
0.8185	5.33752
0.819	3.7262
0.8195	8.45947
0.82	6.64673
0.8205	5.84106
0.821	8.35876
0.8215	5.63965
0.822	7.04956
0.8225	5.63965
0.823	10.0708
0.8235	2.61841
0.824	3.8269
0.8245	8.15735
0.825	6.54602
0.8255	9.16443
0.826	4.43115
0.8265	2.11487
0.827	0.40283
0.8275	6.14319
0.828	5.0354
0.8285	7.15027
0.829	8.8623
0.8295	3.92761
0.83	7.95593
0.8305	1.61133
0.831	-1.71204
0.8315	2.21558
0.832	7.35168
0.8325	7.95593
0.833	6.74744
0.8335	12.48779
0.834	9.76868
0.8345	1.91345
0.835	5.84106
0.8355	8.45947
0.836	3.02124
0.8365	0.60425
0.837	5.43823
0.8375	3.42407
0.838	8.35876
0.8385	3.32336
0.839	6.2439
0.8395	8.05664
0.84	5.94177
0.8405	-5.33752
0.841	1.71204
0.8415	-1.10779
0.842	8.56018
0.8425	11.38
0.843	4.53186
0.8435	0.90637
0.844	4.63257
0.8445	1.2085
0.845	5.74036
0.8455	1.61133
0.846	4.02832
0.8465	-0.80566
0.847	-2.5177
0.8475	1.71204
0.848	-2.21558
0.8485	1.3092
0.849	3.7262
0.8495	-0.40283
0.85	4.53186
0.8505	-0.70496
0.851	-1.81274
0.8515	-0.10071
0.852	4.22974
0.8525	1.81274
0.853	1.00708
0.8535	1.2085
0.854	2.92053
0.8545	2.11487
0.855	0.20142
0.8555	7.15027
0.856	2.31628
0.8565	5.0354
0.857	5.0354
0.8575	0.60425
0.858	1.51062
0.8585	5.0354
0.859	6.44531
0.8595	8.15735
0.86	4.43115
0.8605	5.74036
0.861	6.2439
0.8615	6.44531
0.862	5.23682
0.8625	11.2793
0.863	1.91345
0.8635	3.8269
0.864	8.45947
0.8645	8.25806
0.865	10.0708
0.8655	10.57434
0.866	5.43823
0.8665	2.01416
0.867	6.44531
0.8675	8.05664
0.868	5.13611
0.8685	8.45947
0.869	2.11487
0.8695	0.40283
0.87	2.01416
0.8705	5.74036
0.871	7.04956
0.8715	4.43115
0.872	7.04956
0.8725	7.35168
0.873	7.65381
0.8735	2.21558
0.874	1.10779
0.8745	0.20142
0.875	6.94885
0.8755	3.32336
0.876	5.94177
0.8765	0.80566
0.877	4.12903
0.8775	0.70496
0.878	8.66089
0.8785	3.32336
0.879	4.53186
0.8795	6.64673
0.88	10.57434
0.8805	4.63257
0.881	3.7262
0.8815	11.38
0.882	7.25098
0.8825	7.25098
0.883	6.94885
0.8835	5.33752
0.884	5.94177
0.8845	8.56018
0.885	4.73328
0.8855	3.62549
0.886	1.2085
0.8865	1.61133
0.887	1.61133
0.8875	6.3446
0.888	4.02832
0.8885	4.02832
0.889	7.25098
0.8895	3.52478
0.89	-3.22266
0.8905	2.81982
0.891	1.40991
0.8915	4.22974
0.892	0
0.8925	-1.91345
0.893	2.61841
0.8935	2.92053
0.894	-1.61133
0.8945	-1.40991
0.895	0.10071
0.8955	-0.50354
0.896	5.84106
0.8965	2.71912
0.897	4.53186
0.8975	-0.70496
0.898	5.33752
0.8985	8.15735
0.899	2.01416
0.8995	3.12195
0.9	4.73328
0.9005	6.54602
0.901	13.49487
0.9015	11.68213
0.902	11.2793
0.9025	12.68921
0.903	14.09912
0.9035	7.45239
0.904	7.04956
0.9045	13.09204
0.905	7.5531
0.9055	3.62549
0.906	9.76868
0.9065	16.91895
0.907	12.99133
0.9075	13.69629
0.908	3.02124
0.9085	3.22266
0.909	2.21558
0.9095	1.51062
0.91	6.84814
0.9105	7.04956
0.911	6.14319
0.9115	5.13611
0.912	9.16443
0.9125	4.73328
0.913	1.00708
0.9135	0.10071
0.914	-2.61841
0.9145	2.11487
0.915	3.22266
0.9155	2.11487
0.916	3.7262
0.9165	0.80566
0.917	3.32336
0.9175	2.31628
0.918	1.61133
0.9185	5.63965
0.919	7.04956
0.9195	3.22266
0.92	4.83398
0.9205	-0.60425
0.921	-0.30212
0.9215	-0.80566
0.922	2.01416
0.9225	5.0354
0.923	3.22266
0.9235	1.00708
0.924	4.53186
0.9245	2.61841
0.925	8.8623
0.9255	8.8623
0.926	12.5885
0.9265	5.43823
0.927	5.43823
0.9275	12.99133
0.928	7.15027
0.9285	4.53186
0.929	8.15735
0.9295	4.53186
0.93	6.14319
0.9305	7.04956
0.931	10.37292
0.9315	1.61133
0.932	5.74036
0.9325	9.86938
0.933	4.43115
0.9335	1.2085
0.934	1.40991
0.9345	2.41699
0.935	-1.3092
0.9355	2.5177
0.936	2.21558
0.9365	2.5177
0.937	0.10071
0.9375	-3.42407
0.938	1.91345
0.9385	0.50354
0.939	3.52478
0.9395	2.41699
0.94	3.02124
0.9405	4.73328
0.941	3.8269
0.9415	4.43115
0.942	4.12903
0.9425	4.93469
0.943	6.94885
0.9435	-0.70496
0.944	9.26514
0.9445	3.62549
0.945	3.42407
0.9455	3.32336
0.946	4.73328
0.9465	3.22266
0.947	6.14319
0.9475	6.54602
0.948	11.78284
0.9485	0.70496
0.949	4.93469
0.9495	15.1062
0.95	8.96301
0.9505	5.33752
0.951	6.44531
0.9515	12.68921
0.952	5.0354
0.9525	2.71912
0.953	7.15027
0.9535	6.14319
0.954	8.35876
0.9545	9.66797
0.955	8.96301
0.9555	11.48071
0.956	13.09204
0.9565	10.27222
0.957	13.09204
0.9575	16.61682
0.958	9.56726
0.9585	7.35168
0.959	13.19275
0.9595	6.44531
0.96	3.32336
0.9605	3.62549
0.961	2.11487
0.9615	5.84106
0.962	3.02124
0.9625	5.23682
0.963	4.83398
0.9635	3.7262
0.964	1.91345
0.9645	5.43823
0.965	9.56726
0.9655	11.48071
0.966	3.02124
0.9665	4.73328
0.967	3.7262
0.9675	3.32336
0.968	5.53894
0.9685	7.95593
0.969	3.32336
0.9695	7.04956
0.97	7.45239
0.9705	7.65381
0.971	3.62549
0.9715	9.16443
0.972	10.27222
0.9725	6.54602
0.973	8.96301
0.9735	10.37292
0.974	9.06372
0.9745	5.0354
0.975	11.2793
0.9755	9.66797
0.976	7.15027
0.9765	4.53186
0.977	12.28638
0.9775	10.27222
0.978	4.73328
0.9785	5.23682
0.979	10.27222
0.9795	10.0708
0.98	10.87646
0.9805	11.38
0.981	13.19275
0.9815	8.45947
0.982	14.40125
0.9825	8.7616
0.983	15.91187
0.9835	10.77576
0.984	10.57434
0.9845	9.97009
0.985	9.06372
0.9855	9.56726
0.986	9.46655
0.9865	5.74036
0.987	10.0708
0.9875	0.30212
0.988	5.53894
0.9885	9.26514
0.989	3.52478
0.9895	5.74036
0.99	6.94885
0.9905	10.17151
0.991	9.76868
0.9915	10.67505
0.992	7.25098
0.9925	7.95593
0.993	12.5885
0.9935	10.17151
0.994	8.15735
0.9945	9.86938
0.995	8.8623
0.9955	4.83398
0.996	8.66089
0.9965	5.43823
0.997	4.73328
0.9975	5.23682
0.998	6.44531
0.9985	4.43115
0.999	1.2085
0.9995	0.20142
1	3.32336
1.0005	3.22266
1.001	5.74036
1.0015	0
1.002	1.10779
1.0025	-1.00708
1.003	-2.01416
1.0035	1.61133
1.004	4.12903
1.0045	1.40991
1.005	1.71204
1.0055	8.45947
1.006	4.33044
1.0065	6.94885
1.007	7.15027
1.0075	5.13611
1.008	2.31628
1.0085	-0.50354
1.009	3.42407
1.0095	1.3092
1.01	-0.10071
1.0105	-0.90637
1.011	7.95593
1.0115	4.63257
1.012	8.45947
1.0125	5.94177
1.013	9.26514
1.0135	8.7616
1.014	5.23682
1.0145	4.63257
1.015	4.63257
1.0155	2.61841
1.016	9.97009
1.0165	4.63257
1.017	3.62549
1.0175	7.25098
1.018	9.46655
1.0185	5.23682
1.019	4.53186
1.0195	3.02124
1.02	4.93469
1.0205	9.36584
1.021	5.33752
1.0215	9.36584
1.022	10.97717
1.0225	11.58142
1.023	11.07788
1.0235	5.0354
1.024	6.3446
1.0245	7.75452
1.025	7.5531
1.0255	6.74744
1.026	6.54602
1.0265	1.81274
1.027	3.62549
1.0275	1.40991
1.028	1.00708
1.0285	6.44531
1.029	8.25806
1.0295	7.95593
1.03	2.61841
1.0305	2.5177
1.031	7.95593
1.0315	2.61841
1.032	5.74036
1.0325	5.84106
1.033	0.30212
1.0335	-2.01416
1.034	2.41699
1.0345	2.11487
1.035	-1.81274
1.0355	3.32336
1.036	5.63965
1.0365	3.22266
1.037	2.21558
1.0375	1.91345
1.038	5.0354
1.0385	1.81274
1.039	2.71912
1.0395	3.62549
1.04	6.3446
1.0405	8.66089
1.041	4.22974
1.0415	6.64673
1.042	6.84814
1.0425	10.67505
1.043	5.94177
1.0435	8.15735
1.044	5.84106
1.0445	7.04956
1.045	12.89062
1.0455	12.68921
1.046	7.45239
1.0465	8.96301
1.047	7.65381
1.0475	8.66089
1.048	1.2085
1.0485	-3.92761
1.049	-1.81274
1.0495	4.63257
1.05	4.63257
1.0505	1.61133
1.051	-2.5177
1.0515	0.30212
1.052	5.13611
1.0525	5.63965
1.053	3.12195
1.0535	-1.51062
1.054	4.12903
1.0545	4.12903
1.055	-2.41699
1.0555	1.40991
1.056	4.33044
1.0565	2.92053
1.057	4.53186
1.0575	4.22974
1.058	3.02124
1.0585	2.31628
1.059	8.56018
1.0595	1.81274
1.06	4.93469
1.0605	6.94885
1.061	9.26514
1.0615	2.71912
1.062	4.22974
1.0625	8.25806
1.063	3.22266
1.0635	2.81982
1.064	5.63965
1.0645	7.04956
1.065	6.94885
1.0655	4.33044
1.066	5.63965
1.0665	3.7262
1.067	6.74744
1.0675	-1.81274
1.068	7.75452
1.0685	6.54602
1.069	6.44531
1.0695	2.11487
1.07	5.94177
1.0705	6.2439
1.071	2.61841
1.0715	7.65381
1.072	10.0708
1.0725	5.0354
1.073	-0.70496
1.0735	-0.50354
1.074	-2.61841
1.0745	5.0354
1.075	-0.90637
1.0755	1.91345
1.076	-1.40991
1.0765	3.22266
1.077	2.92053
1.0775	2.5177
1.078	5.74036
1.0785	4.22974
1.079	2.21558
1.0795	5.63965
1.08	4.22974
1.0805	5.74036
1.081	5.53894
1.0815	1.00708
1.082	6.2439
1.0825	3.8269
1.083	4.93469
1.0835	-4.93469
1.084	6.3446
1.0845	1.81274
1.085	6.04248
1.0855	4.02832
1.086	4.63257
1.0865	5.43823
1.087	4.83398
1.0875	-4.43115
1.088	-0.20142
1.0885	1.10779
1.089	3.8269
1.0895	3.02124
1.09	5.74036
1.0905	2.21558
1.091	-2.01416
1.0915	0.40283
1.092	-0.80566
1.0925	0
1.093	6.54602
1.0935	7.5531
1.094	3.02124
1.0945	12.99133
1.095	5.74036
1.0955	8.45947
1.096	6.74744
1.0965	8.05664
1.097	4.83398
1.0975	2.61841
1.098	2.31628
1.0985	3.62549
1.099	3.92761
1.0995	6.14319
1.1	8.45947
1.1005	5.0354
1.101	11.98425
1.1015	11.38
1.102	10.0708
1.1025	9.76868
1.103	5.13611
1.1035	3.22266
1.104	12.78992
1.1045	9.26514
1.105	6.04248
1.1055	3.92761
1.106	10.67505
1.1065	11.2793
1.107	13.39417
1.1075	8.45947
1.108	7.04956
1.1085	10.97717
1.109	9.56726
1.1095	9.97009
1.11	10.87646
1.1105	6.44531
1.111	6.54602
1.1115	11.2793
1.112	12.78992
1.1125	11.78284
1.113	5.13611
1.1135	6.64673
1.114	7.65381
1.1145	2.5177
1.115	9.56726
1.1155	5.13611
1.116	6.04248
1.1165	5.23682
1.117	1.51062
1.1175	1.40991
1.118	4.63257
1.1185	1.40991
1.119	5.63965
1.1195	6.64673
1.12	2.92053
1.1205	3.12195
1.121	5.23682
1.1215	2.01416
1.122	6.3446
1.1225	2.01416
1.123	4.43115
1.1235	2.5177
1.124	6.84814
1.1245	8.45947
1.125	6.14319
1.1255	8.66089
1.126	8.7616
1.1265	8.25806
1.127	10.47363
1.1275	5.53894
1.128	9.36584
1.1285	9.16443
1.129	13.69629
1.1295	13.49487
1.13	11.07788
1.1305	10.67505
1.131	11.78284
1.1315	8.7616
1.132	14.50195
1.1325	13.19275
1.133	14.90479
1.1335	13.797
1.134	9.36584
1.1345	9.26514
1.135	11.07788
1.1355	11.07788
1.136	11.68213
1.1365	8.66089
1.137	6.2439
1.1375	13.89771
1.138	13.09204
1.1385	7.45239
1.139	13.09204
1.1395	7.15027
1.14	9.16443
1.1405	3.52478
1.141	5.23682
1.1415	10.67505
1.142	8.96301
1.1425	13.99841
1.143	7.65381
1.1435	6.04248
1.144	2.31628
1.1445	9.06372
1.145	6.94885
1.1455	6.74744
1.146	13.29346
1.1465	6.84814
1.147	8.96301
1.1475	2.21558
1.148	4.73328
1.1485	2.92053
1.149	2.92053
1.1495	2.11487
1.15	4.53186
1.1505	5.84106
1.151	6.44531
1.1515	3.42407
1.152	6.44531
1.1525	-0.10071
1.153	1.2085
1.1535	1.71204
1.154	4.12903
1.1545	6.54602
1.155	4.73328
1.1555	7.35168
1.156	7.65381
1.1565	6.84814
1.157	6.14319
1.1575	5.33752
1.158	7.85522
1.1585	9.36584
1.159	9.66797
1.1595	7.75452
1.16	7.35168
1.1605	4.02832
1.161	3.32336
1.1615	7.15027
1.162	6.74744
1.1625	7.45239
1.163	6.14319
1.1635	6.2439
1.164	7.5531
1.1645	1.10779
1.165	6.74744
1.1655	3.12195
1.166	7.04956
1.1665	4.93469
1.167	5.0354
1.1675	5.33752
1.168	4.43115
1.1685	4.43115
1.169	4.73328
1.1695	10.67505
1.17	7.04956
1.1705	5.23682
1.171	2.92053
1.1715	7.85522
1.172	6.14319
1.1725	6.04248
1.173	7.04956
1.1735	8.8623
1.174	4.83398
1.1745	0.60425
1.175	7.25098
1.1755	7.95593
1.176	5.63965
1.1765	8.96301
1.177	9.36584
1.1775	8.8623
1.178	6.2439
1.1785	13.29346
1.179	12.28638
1.1795	7.04956
1.18	2.5177
1.1805	11.07788
1.181	9.36584
1.1815	10.57434
1.182	6.44531
1.1825	7.45239
1.183	8.56018
1.1835	3.92761
1.184	3.12195
1.1845	6.54602
1.185	12.48779
1.1855	8.35876
1.186	7.5531
1.1865	7.04956
1.187	12.5885
1.1875	7.5531
1.188	4.53186
1.1885	8.25806
1.189	7.95593
1.1895	3.92761
1.19	1.40991
1.1905	5.23682
1.191	2.61841
1.1915	7.25098
1.192	-0.90637
1.1925	2.71912
1.193	4.83398
1.1935	6.3446
1.194	3.02124
1.1945	2.41699
1.195	1.61133
1.1955	4.12903
1.196	6.94885
1.1965	-0.10071
1.197	4.43115
1.1975	11.78284
1.198	0.20142
1.1985	5.43823
1.199	7.85522
1.1995	5.74036
1.2	4.02832
1.2005	3.8269
1.201	-0.70496
1.2015	-0.80566
1.202	5.43823
1.2025	0.80566
1.203	4.12903
1.2035	-1.91345
1.204	6.84814
1.2045	2.5177
1.205	0.40283
1.2055	3.62549
1.206	4.63257
1.2065	5.23682
1.207	8.05664
1.2075	3.52478
1.208	2.61841
1.2085	7.04956
1.209	0.30212
1.2095	4.83398
1.21	3.52478
1.2105	6.3446
1.211	5.23682
1.2115	5.33752
1.212	8.05664
1.2125	8.05664
1.213	8.35876
1.2135	1.2085
1.214	6.14319
1.2145	7.65381
1.215	8.45947
1.2155	7.65381
1.216	7.75452
1.2165	8.96301
1.217	7.75452
1.2175	5.53894
1.218	5.63965
1.2185	4.73328
1.219	13.59558
1.2195	5.74036
1.22	7.35168
1.2205	6.2439
1.221	8.05664
1.2215	12.18567
1.222	9.46655
1.2225	10.67505
1.223	10.0708
1.2235	14.40125
1.224	10.97717
1.2245	10.17151
1.225	9.16443
1.2255	5.74036
1.226	8.35876
1.2265	7.85522
1.227	11.58142
1.2275	11.17859
1.228	8.96301
1.2285	8.15735
1.229	8.15735
1.2295	5.74036
1.23	5.33752
1.2305	3.8269
1.231	2.31628
1.2315	2.92053
1.232	-0.50354
1.2325	3.02124
1.233	2.01416
1.2335	1.2085
1.234	1.10779
1.2345	5.53894
1.235	4.22974
1.2355	-1.3092
1.236	0
1.2365	4.02832
1.237	0.50354
1.2375	-2.11487
1.238	-3.32336
1.2385	-0.80566
1.239	3.32336
1.2395	3.8269
1.24	-1.3092
1.2405	3.12195
1.241	0.90637
1.2415	2.81982
1.242	0
1.2425	0
1.243	2.61841
1.2435	3.62549
1.244	5.23682
1.2445	7.65381
1.245	7.75452
1.2455	9.26514
1.246	3.92761
1.2465	7.04956
1.247	14.40125
1.2475	6.14319
1.248	8.8623
1.2485	5.0354
1.249	7.5531
1.2495	10.87646
1.25	5.84106
1.2505	5.0354
1.251	3.92761
1.2515	12.08496
1.252	12.38708
1.2525	8.8623
1.253	8.15735
1.2535	3.92761
1.254	-0.80566
1.2545	5.94177
1.255	3.52478
1.2555	4.93469
1.256	-1.51062
1.2565	3.02124
1.257	5.0354
1.2575	2.31628
1.258	6.3446
1.2585	4.22974
1.259	2.92053
1.2595	6.64673
1.26	4.63257
1.2605	3.42407
1.261	2.61841
1.2615	-0.60425
1.262	4.53186
1.2625	2.31628
1.263	1.51062
1.2635	0
1.264	2.01416
1.2645	2.5177
1.265	6.3446
1.2655	4.43115
1.266	2.31628
1.2665	6.74744
1.267	4.83398
1.2675	4.53186
1.268	9.66797
1.2685	13.49487
1.269	5.74036
1.2695	5.94177
1.27	9.97009
1.2705	9.97009
1.271	6.94885
1.2715	11.2793
1.272	10.47363
1.2725	8.66089
1.273	10.67505
1.2735	7.75452
1.274	13.99841
1.2745	16.11328
1.275	6.04248
1.2755	6.14319
1.276	11.38
1.2765	6.04248
1.277	5.23682
1.2775	4.43115
1.278	6.14319
1.2785	2.5177
1.279	-2.01416
1.2795	5.53894
1.28	3.7262
1.2805	6.64673
1.281	9.46655
1.2815	10.27222
1.282	9.46655
1.2825	7.85522
1.283	6.2439
1.2835	4.53186
1.284	8.8623
1.2845	11.48071
1.285	7.85522
1.2855	7.45239
1.286	4.43115
1.2865	6.84814
1.287	9.06372
1.2875	7.04956
1.288	1.61133
1.2885	1.51062
1.289	0.80566
1.2895	2.21558
1.29	1.00708
1.2905	-0.50354
1.291	0.80566
1.2915	-1.40991
1.292	4.53186
1.2925	5.53894
1.293	3.8269
1.2935	-2.01416
1.294	-0.30212
1.2945	3.52478
1.295	-0.80566
1.2955	3.62549
1.296	-0.60425
1.2965	2.21558
1.297	-0.40283
1.2975	0.30212
1.298	4.43115
1.2985	0.60425
1.299	5.63965
1.2995	-0.20142
1.3	-1.2085
1.3005	-3.52478
1.301	-4.63257
1.3015	-4.22974
1.302	0.20142
1.3025	-1.51062
1.303	-6.84814
1.3035	-11.98425
1.304	-9.36584
1.3045	-15.71045
1.305	-16.11328
1.3055	-15.1062
1.306	-11.98425
1.3065	-15.81116
1.307	-11.38
1.3075	-9.06372
1.308	-12.5885
1.3085	-7.15027
1.309	-4.02832
1.3095	-5.0354
1.31	-5.74036
1.3105	-8.05664
1.311	-9.26514
1.3115	-8.8623
1.312	-5.63965
1.3125	-7.85522
1.313	0.40283
1.3135	1.61133
1.314	1.61133
1.3145	-5.13611
1.315	-1.51062
1.3155	0.60425
1.316	0.30212
1.3165	2.5177
1.317	7.65381
1.3175	6.2439
1.318	1.40991
1.3185	3.42407
1.319	6.2439
1.3195	4.53186
1.32	7.65381
1.3205	8.05664
1.321	7.85522
1.3215	5.84106
1.322	10.57434
1.3225	4.33044
1.323	12.18567
1.3235	10.37292
1.324	11.78284
1.3245	15.40833
1.325	9.76868
1.3255	17.92603
1.326	12.89062
1.3265	14.19983
1.327	16.01257
1.3275	13.69629
1.328	11.38
1.3285	15.30762
1.329	15.40833
1.3295	15.50903
1.33	8.7616
1.3305	14.19983
1.331	21.75293
1.3315	15.81116
1.332	19.03381
1.3325	13.49487
1.333	13.59558
1.3335	11.48071
1.334	16.71753
1.3345	13.89771
1.335	14.40125
1.3355	16.41541
1.336	10.57434
1.3365	9.86938
1.337	11.58142
1.3375	13.09204
1.338	11.68213
1.3385	9.16443
1.339	7.95593
1.3395	13.49487
1.34	13.89771
1.3405	14.80408
1.341	12.78992
1.3415	18.22815
1.342	15.81116
1.3425	14.50195
1.343	11.58142
1.3435	14.90479
1.344	11.07788
1.3445	11.07788
1.345	12.08496
1.3455	10.87646
1.346	9.06372
1.3465	14.30054
1.347	16.71753
1.3475	15.40833
1.348	18.93311
1.3485	15.71045
1.349	20.04089
1.3495	18.93311
1.35	10.87646
1.3505	12.38708
1.351	10.0708
1.3515	9.66797
1.352	8.25806
1.3525	7.35168
1.353	4.83398
1.3535	2.81982
1.354	8.15735
1.3545	9.86938
1.355	9.97009
1.3555	11.58142
1.356	8.8623
1.3565	6.2439
1.357	7.75452
1.3575	6.64673
1.358	1.81274
1.3585	7.35168
1.359	5.33752
1.3595	11.2793
1.36	9.86938
1.3605	2.81982
1.361	7.35168
1.3615	10.27222
1.362	5.53894
1.3625	2.81982
1.363	0.40283
1.3635	1.61133
1.364	0.10071
1.3645	5.84106
1.365	3.32336
1.3655	1.71204
1.366	2.81982
1.3665	3.12195
1.367	-2.01416
1.3675	-4.33044
1.368	-1.00708
1.3685	3.42407
1.369	2.71912
1.3695	-3.52478
1.37	-1.00708
1.3705	2.5177
1.371	2.92053
1.3715	5.74036
1.372	2.71912
1.3725	3.8269
1.373	2.5177
1.3735	2.01416
1.374	4.83398
1.3745	0.40283
1.375	1.61133
1.3755	3.52478
1.376	4.22974
1.3765	3.42407
1.377	3.42407
1.3775	0.40283
1.378	2.5177
1.3785	3.32336
1.379	3.12195
1.3795	6.54602
1.38	6.84814
1.3805	-1.61133
1.381	5.0354
1.3815	0.30212
1.382	0.30212
1.3825	10.47363
1.383	7.5531
1.3835	8.35876
1.384	6.84814
1.3845	4.33044
1.385	-1.91345
1.3855	3.92761
1.386	5.13611
1.3865	2.11487
1.387	10.57434
1.3875	12.99133
1.388	8.25806
1.3885	3.7262
1.389	10.17151
1.3895	4.73328
1.39	6.84814
1.3905	7.95593
1.391	9.76868
1.3915	8.05664
1.392	4.43115
1.3925	8.35876
1.393	8.56018
1.3935	13.59558
1.394	9.36584
1.3945	13.89771
1.395	13.29346
1.3955	10.67505
1.396	6.54602
1.3965	7.35168
1.397	6.3446
1.3975	8.8623
1.398	10.0708
1.3985	7.25098
1.399	4.63257
1.3995	6.84814
1.4	8.05664
1.4005	10.27222
1.401	10.77576
1.4015	5.84106
1.402	6.84814
1.4025	3.52478
1.403	7.04956
1.4035	12.68921
1.404	14.50195
1.4045	11.88354
1.405	9.46655
1.4055	7.15027
1.406	10.87646
1.4065	6.04248
1.407	5.0354
1.4075	6.04248
1.408	5.53894
1.4085	7.5531
1.409	8.35876
1.4095	0.50354
1.41	9.76868
1.4105	7.15027
1.411	12.99133
1.4115	8.05664
1.412	8.45947
1.4125	8.56018
1.413	8.05664
1.4135	3.92761
1.414	3.7262
1.4145	7.45239
1.415	4.53186
1.4155	8.05664
1.416	6.84814
1.4165	8.56018
1.417	4.43115
1.4175	8.8623
1.418	6.04248
1.4185	5.53894
1.419	-0.20142
1.4195	1.10779
1.42	2.92053
1.4205	1.61133
1.421	3.7262
1.4215	-3.02124
1.422	2.61841
1.4225	3.12195
1.423	2.61841
1.4235	3.62549
1.424	7.04956
1.4245	5.23682
1.425	8.45947
1.4255	-0.10071
1.426	8.7616
1.4265	2.21558
1.427	2.81982
1.4275	7.15027
1.428	7.15027
1.4285	10.0708
1.429	10.0708
1.4295	0.70496
1.43	6.94885
1.4305	9.26514
1.431	3.62549
1.4315	1.00708
1.432	2.71912
1.4325	6.64673
1.433	5.0354
1.4335	6.64673
1.434	10.27222
1.4345	8.25806
1.435	8.56018
1.4355	9.36584
1.436	1.10779
1.4365	6.84814
1.437	3.32336
1.4375	1.3092
1.438	2.21558
1.4385	12.78992
1.439	6.3446
1.4395	13.29346
1.44	16.81824
1.4405	16.61682
1.441	7.15027
1.4415	9.86938
1.442	10.0708
1.4425	5.94177
1.443	12.5885
1.4435	8.15735
1.444	2.31628
1.4445	1.61133
1.445	5.63965
1.4455	6.54602
1.446	1.61133
1.4465	3.12195
1.447	1.3092
1.4475	7.45239
1.448	7.85522
1.4485	9.56726
1.449	1.61133
1.4495	3.8269
1.45	7.95593
1.4505	8.56018
1.451	7.5531
1.4515	3.92761
1.452	3.12195
1.4525	-0.60425
1.453	1.00708
1.4535	0.30212
1.454	0.60425
1.4545	6.2439
1.455	1.61133
1.4555	3.12195
1.456	4.53186
1.4565	7.65381
1.457	2.5177
1.4575	7.95593
1.458	4.63257
1.4585	7.75452
1.459	8.7616
1.4595	10.57434
1.46	2.92053
1.4605	5.94177
1.461	11.58142
1.4615	7.85522
1.462	0.60425
1.4625	2.92053
1.463	4.83398
1.4635	5.33752
1.464	10.77576
1.4645	9.86938
1.465	11.68213
1.4655	2.31628
1.466	3.32336
1.4665	8.8623
1.467	2.21558
1.4675	3.52478
1.468	3.7262
1.4685	1.00708
1.469	5.53894
1.4695	-0.20142
1.47	1.71204
1.4705	3.42407
1.471	3.52478
1.4715	10.17151
1.472	4.43115
1.4725	7.5531
1.473	4.83398
1.4735	4.53186
1.474	1.71204
1.4745	-2.31628
1.475	9.46655
1.4755	5.84106
1.476	0.60425
1.4765	0.50354
1.477	-2.71912
1.4775	-4.12903
1.478	-0.80566
1.4785	4.43115
1.479	-1.81274
1.4795	1.71204
1.48	0.60425
1.4805	2.5177
1.481	-0.10071
1.4815	0.40283
1.482	2.11487
1.4825	1.00708
1.483	3.02124
1.4835	4.83398
1.484	0.60425
1.4845	3.8269
1.485	7.35168
1.4855	4.12903
1.486	6.84814
1.4865	0.60425
1.487	2.21558
1.4875	3.8269
1.488	7.65381
1.4885	2.41699
1.489	-0.70496
1.4895	-1.51062
1.49	-0.40283
1.4905	-2.21558
1.491	4.43115
1.4915	5.84106
1.492	2.81982
1.4925	1.81274
1.493	0.60425
1.4935	3.92761
1.494	5.13611
1.4945	4.53186
1.495	-1.00708
1.4955	-0.80566
1.496	-5.53894
1.4965	-0.70496
1.497	-0.90637
1.4975	1.61133
1.498	0.60425
1.4985	-0.40283
1.499	-0.90637
1.4995	-1.3092
1.5	-3.12195
1.5005	1.40991
1.501	0
1.5015	0.50354
1.502	3.62549
1.5025	0.30212
1.503	7.04956
1.5035	6.14319
1.504	3.32336
1.5045	-0.20142
1.505	-2.92053
1.5055	5.84106
1.506	8.96301
1.5065	6.2439
1.507	9.16443
1.5075	9.56726
1.508	10.0708
1.5085	6.04248
1.509	1.61133
1.5095	1.10779
1.51	3.22266
1.5105	0.10071
1.511	4.63257
1.5115	2.92053
1.512	4.43115
1.5125	0.90637
1.513	2.31628
1.5135	2.21558
1.514	5.43823
1.5145	1.10779
1.515	-5.33752
1.5155	3.32336
1.516	0.50354
1.5165	3.22266
1.517	-0.80566
1.5175	1.10779
1.518	-0.80566
1.5185	1.40991
1.519	1.00708
1.5195	4.43115
1.52	3.7262
1.5205	2.71912
1.521	3.52478
1.5215	3.8269
1.522	1.00708
1.5225	2.21558
1.523	9.26514
1.5235	4.53186
1.524	8.25806
1.5245	7.15027
1.525	1.40991
1.5255	2.61841
1.526	3.02124
1.5265	4.33044
1.527	3.7262
1.5275	3.7262
1.528	3.12195
1.5285	4.02832
1.529	3.12195
1.5295	4.73328
1.53	-1.00708
1.5305	-1.51062
1.531	-3.8269
1.5315	-0.30212
1.532	-0.80566
1.5325	5.94177
1.533	-1.2085
1.5335	2.81982
1.534	2.5177
1.5345	3.42407
1.535	4.83398
1.5355	3.32336
1.536	4.02832
1.5365	5.0354
1.537	1.61133
1.5375	3.62549
1.538	2.01416
1.5385	-1.00708
1.539	1.10779
1.5395	4.02832
1.54	2.81982
1.5405	7.95593
1.541	3.02124
1.5415	6.3446
1.542	4.22974
1.5425	0.10071
1.543	2.21558
1.5435	3.92761
1.544	3.42407
1.5445	5.13611
1.545	2.5177
1.5455	3.92761
1.546	6.2439
1.5465	2.71912
1.547	7.5531
1.5475	5.33752
1.548	7.65381
1.5485	6.44531
1.549	6.44531
1.5495	8.96301
1.55	4.12903
1.5505	6.64673
1.551	2.5177
1.5515	3.52478
1.552	5.84106
1.5525	3.7262
1.553	7.85522
1.5535	6.94885
1.554	8.7616
1.5545	6.2439
1.555	3.02124
1.5555	1.51062
1.556	3.7262
1.5565	2.01416
1.557	6.3446
1.5575	4.53186
1.558	7.85522
1.5585	5.53894
1.559	6.94885
1.5595	10.17151
1.56	3.62549
1.5605	2.81982
1.561	8.56018
1.5615	4.33044
1.562	8.15735
1.5625	3.8269
1.563	3.7262
1.5635	5.23682
1.564	4.83398
1.5645	1.10779
1.565	5.74036
1.5655	4.22974
1.566	4.43115
1.5665	3.22266
1.567	4.02832
1.5675	6.74744
1.568	7.65381
1.5685	9.06372
1.569	9.97009
1.5695	5.33752
1.57	7.65381
1.5705	11.2793
1.571	9.97009
1.5715	8.56018
1.572	7.45239
1.5725	4.43115
1.573	6.94885
1.5735	4.53186
1.574	10.47363
1.5745	14.50195
1.575	8.56018
1.5755	11.38
1.576	5.74036
1.5765	4.33044
1.577	6.54602
1.5775	8.96301
1.578	5.63965
1.5785	6.2439
1.579	2.21558
1.5795	2.71912
1.58	0.60425
1.5805	2.92053
1.581	3.22266
1.5815	3.62549
1.582	0.90637
1.5825	6.94885
1.583	4.43115
1.5835	0.90637
1.584	1.81274
1.5845	-0.80566
1.585	-0.90637
1.5855	0.10071
1.586	4.43115
1.5865	6.54602
1.587	7.75452
1.5875	9.56726
1.588	7.45239
1.5885	11.88354
1.589	10.27222
1.5895	9.66797
1.59	9.46655
1.5905	6.04248
1.591	6.04248
1.5915	3.12195
1.592	1.71204
1.5925	6.04248
1.593	9.36584
1.5935	6.94885
1.594	5.0354
1.5945	7.35168
1.595	4.63257
1.5955	5.43823
1.596	5.94177
1.5965	5.74036
1.597	8.66089
1.5975	6.2439
1.598	2.11487
1.5985	2.61841
1.599	0.70496
1.5995	8.7616
1.6	9.76868
1.6005	6.14319
1.601	7.25098
1.6015	0
1.602	6.74744
1.6025	11.48071
1.603	5.84106
1.6035	11.48071
1.604	8.25806
1.6045	4.93469
1.605	8.35876
1.6055	8.45947
1.606	9.97009
1.6065	11.58142
1.607	14.60266
1.6075	12.5885
1.608	10.47363
1.6085	7.04956
1.609	8.05664
1.6095	5.94177
1.61	4.12903
1.6105	12.48779
1.611	9.86938
1.6115	9.46655
1.612	3.62549
1.6125	3.7262
1.613	9.06372
1.6135	8.66089
1.614	8.8623
1.6145	16.11328
1.615	8.8623
1.6155	7.04956
1.616	7.95593
1.6165	2.31628
1.617	5.13611
1.6175	7.04956
1.618	4.63257
1.6185	2.92053
1.619	8.96301
1.6195	10.27222
1.62	5.43823
1.6205	3.7262
1.621	6.3446
1.6215	5.74036
1.622	6.04248
1.6225	10.27222
1.623	6.14319
1.6235	4.33044
1.624	7.95593
1.6245	10.47363
1.625	9.56726
1.6255	9.26514
1.626	8.96301
1.6265	10.67505
1.627	5.63965
1.6275	8.15735
1.628	3.32336
1.6285	8.25806
1.629	7.75452
1.6295	5.84106
1.63	3.42407
1.6305	3.52478
1.631	3.92761
1.6315	7.35168
1.632	6.94885
1.6325	8.35876
1.633	-1.3092
1.6335	2.5177
1.634	2.92053
1.6345	2.01416
1.635	2.61841
1.6355	5.94177
1.636	0.40283
1.6365	3.02124
1.637	6.14319
1.6375	8.35876
1.638	8.15735
1.6385	6.64673
1.639	2.92053
1.6395	4.02832
1.64	9.97009
1.6405	7.75452
1.641	6.3446
1.6415	6.54602
1.642	6.44531
1.6425	6.44531
1.643	3.32336
1.6435	4.22974
1.644	1.91345
1.6445	5.74036
1.645	5.53894
1.6455	3.62549
1.646	1.3092
1.6465	0.90637
1.647	4.53186
1.6475	3.8269
1.648	5.43823
1.6485	0.30212
1.649	2.5177
1.6495	7.45239
1.65	0.50354
1.6505	8.45947
1.651	6.3446
1.6515	7.35168
1.652	1.40991
1.6525	7.85522
1.653	4.02832
1.6535	-0.40283
1.654	1.81274
1.6545	1.2085
1.655	2.41699
1.6555	3.52478
1.656	4.02832
1.6565	7.15027
1.657	5.84106
1.6575	2.31628
1.658	3.52478
1.6585	5.63965
1.659	4.53186
1.6595	10.17151
1.66	5.23682
1.6605	4.63257
1.661	2.11487
1.6615	5.23682
1.662	10.17151
1.6625	10.17151
1.663	10.87646
1.6635	5.0354
1.664	4.63257
1.6645	8.66089
1.665	11.88354
1.6655	10.97717
1.666	10.27222
1.6665	6.64673
1.667	1.2085
1.6675	10.47363
1.668	8.66089
1.6685	9.56726
1.669	8.25806
1.6695	8.56018
1.67	13.39417
1.6705	5.13611
1.671	6.54602
1.6715	6.54602
1.672	7.95593
1.6725	7.95593
1.673	2.81982
1.6735	4.22974
1.674	6.2439
1.6745	5.13611
1.675	9.97009
1.6755	3.32336
1.676	4.12903
1.6765	4.22974
1.677	10.37292
1.6775	11.78284
1.678	7.5531
1.6785	8.05664
1.679	4.73328
1.6795	7.5531
1.68	11.17859
1.6805	9.76868
1.681	10.97717
1.6815	9.06372
1.682	15.30762
1.6825	16.41541
1.683	12.89062
1.6835	7.75452
1.684	14.30054
1.6845	12.78992
1.685	17.22107
1.6855	6.2439
1.686	10.0708
1.6865	7.15027
1.687	5.53894
1.6875	3.52478
1.688	5.23682
1.6885	7.45239
1.689	5.23682
1.6895	7.85522
1.69	9.26514
1.6905	8.25806
1.691	5.84106
1.6915	10.47363
1.692	12.38708
1.6925	9.26514
1.693	3.8269
1.6935	3.32336
1.694	5.0354
1.6945	7.65381
1.695	4.93469
1.6955	5.53894
1.696	3.02124
1.6965	2.11487
1.697	6.04248
1.6975	5.63965
1.698	8.45947
1.6985	9.06372
1.699	8.05664
1.6995	13.39417
1.7	9.66797
1.7005	4.43115
1.701	7.25098
1.7015	2.11487
1.702	10.17151
1.7025	9.97009
1.703	9.26514
1.7035	5.84106
1.704	8.35876
1.7045	5.0354
1.705	5.74036
1.7055	8.45947
1.706	5.63965
1.7065	6.94885
1.707	2.61841
1.7075	10.17151
1.708	5.94177
1.7085	6.2439
1.709	6.44531
1.7095	6.04248
1.71	9.16443
1.7105	2.01416
1.711	-3.8269
1.7115	5.0354
1.712	4.73328
1.7125	-0.70496
1.713	2.5177
1.7135	5.13611
1.714	0.70496
1.7145	-1.2085
1.715	-0.70496
1.7155	6.64673
1.716	4.93469
1.7165	1.61133
1.717	2.01416
1.7175	0
1.718	3.7262
1.7185	4.43115
1.719	4.53186
1.7195	-2.21558
1.72	6.14319
1.7205	1.3092
1.721	1.91345
1.7215	10.97717
1.722	2.92053
1.7225	7.04956
1.723	6.3446
1.7235	6.74744
1.724	3.8269
1.7245	7.95593
1.725	9.16443
1.7255	7.5531
1.726	8.56018
1.7265	8.96301
1.727	8.56018
1.7275	5.74036
1.728	15.91187
1.7285	7.95593
1.729	9.16443
1.7295	4.73328
1.73	8.05664
1.7305	8.05664
1.731	9.06372
1.7315	6.84814
1.732	7.25098
1.7325	10.67505
1.733	9.66797
1.7335	7.25098
1.734	12.38708
1.7345	8.8623
1.735	9.06372
1.7355	3.42407
1.736	8.66089
1.7365	5.33752
1.737	13.797
1.7375	9.06372
1.738	10.37292
1.7385	10.27222
1.739	5.43823
1.7395	11.07788
1.74	8.35876
1.7405	13.19275
1.741	7.5531
1.7415	8.96301
1.742	6.3446
1.7425	10.47363
1.743	8.66089
1.7435	8.35876
1.744	8.25806
1.7445	4.43115
1.745	9.46655
1.7455	12.38708
1.746	6.04248
1.7465	7.75452
1.747	9.97009
1.7475	0.10071
1.748	2.5177
1.7485	7.65381
1.749	9.66797
1.7495	8.35876
1.75	9.56726
1.7505	7.25098
1.751	9.26514
1.7515	12.99133
1.752	11.68213
1.7525	8.05664
1.753	8.8623
1.7535	7.15027
1.754	3.32336
1.7545	7.5531
1.755	11.17859
1.7555	9.97009
1.756	6.74744
1.7565	6.14319
1.757	8.96301
1.7575	5.53894
1.758	3.32336
1.7585	5.13611
1.759	3.7262
1.7595	9.76868
1.76	5.53894
1.7605	7.15027
1.761	4.22974
1.7615	10.97717
1.762	7.15027
1.7625	1.91345
1.763	11.78284
1.7635	8.35876
1.764	8.66089
1.7645	5.63965
1.765	9.66797
1.7655	13.69629
1.766	9.86938
1.7665	9.26514
1.767	7.75452
1.7675	4.43115
1.768	6.74744
1.7685	6.64673
1.769	1.40991
1.7695	4.12903
1.77	3.12195
1.7705	6.54602
1.771	0.90637
1.7715	4.22974
1.772	0.20142
1.7725	6.84814
1.773	3.22266
1.7735	5.43823
1.774	5.43823
1.7745	4.53186
1.775	3.22266
1.7755	4.63257
1.776	8.8623
1.7765	4.02832
1.777	5.0354
1.7775	2.71912
1.778	9.36584
1.7785	6.2439
1.779	3.8269
1.7795	4.22974
1.78	3.22266
1.7805	4.63257
1.781	-2.41699
1.7815	1.51062
1.782	1.3092
1.7825	2.81982
1.783	0.70496
1.7835	-3.62549
1.784	2.92053
1.7845	7.5531
1.785	-0.50354
1.7855	2.31628
1.786	1.2085
1.7865	1.3092
1.787	0.90637
1.7875	5.0354
1.788	5.84106
1.7885	-1.2085
1.789	1.61133
1.7895	-1.61133
1.79	7.85522
1.7905	6.3446
1.791	0.10071
1.7915	3.62549
1.792	4.12903
1.7925	-1.00708
1.793	5.33752
1.7935	4.63257
1.794	5.74036
1.7945	6.84814
1.795	4.43115
1.7955	8.8623
1.796	2.21558
1.7965	1.00708
1.797	5.53894
1.7975	0.80566
1.798	11.38
1.7985	6.94885
1.799	4.12903
1.7995	5.23682
1.8	6.74744
1.8005	8.25806
1.801	5.84106
1.8015	6.74744
1.802	14.80408
1.8025	9.46655
1.803	4.63257
1.8035	11.38
1.804	10.97717
1.8045	10.57434
1.805	15.71045
1.8055	15.40833
1.806	8.35876
1.8065	3.92761
1.807	9.76868
1.8075	7.95593
1.808	12.18567
1.8085	10.37292
1.809	5.63965
1.8095	10.0708
1.81	9.66797
1.8105	12.5885
1.811	5.63965
1.8115	4.83398
1.812	0.80566
1.8125	6.2439
1.813	5.43823
1.8135	7.65381
1.814	4.43115
1.8145	4.22974
1.815	4.02832
1.8155	7.25098
1.816	6.94885
1.8165	7.35168
1.817	4.12903
1.8175	7.75452
1.818	6.14319
1.8185	1.40991
1.819	0.60425
1.8195	3.62549
1.82	8.7616
1.8205	10.67505
1.821	7.75452
1.8215	4.73328
1.822	6.04248
1.8225	6.14319
1.823	4.02832
1.8235	3.62549
1.824	7.35168
1.8245	9.06372
1.825	6.14319
1.8255	3.62549
1.826	8.15735
1.8265	6.94885
1.827	6.64673
1.8275	6.3446
1.828	10.57434
1.8285	7.85522
1.829	7.45239
1.8295	12.38708
1.83	5.0354
1.8305	4.33044
1.831	12.89062
1.8315	7.04956
1.832	3.62549
1.8325	2.81982
1.833	1.81274
1.8335	4.43115
1.834	2.41699
1.8345	8.15735
1.835	6.44531
1.8355	1.40991
1.836	11.38
1.8365	2.81982
1.837	4.53186
1.8375	10.87646
1.838	11.17859
1.8385	10.77576
1.839	3.42407
1.8395	8.66089
1.84	13.39417
1.8405	14.60266
1.841	11.48071
1.8415	8.66089
1.842	7.85522
1.8425	6.54602
1.843	4.63257
1.8435	2.21558
1.844	3.92761
1.8445	11.78284
1.845	2.92053
1.8455	4.43115
1.846	2.31628
1.8465	6.74744
1.847	7.65381
1.8475	6.44531
1.848	0.70496
1.8485	7.45239
1.849	4.83398
1.8495	8.66089
1.85	4.22974
1.8505	8.15735
1.851	3.22266
1.8515	0.70496
1.852	-2.92053
1.8525	5.13611
1.853	6.64673
1.8535	3.32336
1.854	6.04248
1.8545	7.25098
1.855	2.5177
1.8555	4.53186
1.856	2.01416
1.8565	3.02124
1.857	5.43823
1.8575	10.57434
1.858	11.68213
1.8585	5.53894
1.859	12.18567
1.8595	11.48071
1.86	7.95593
1.8605	7.15027
1.861	4.33044
1.8615	3.32336
1.862	3.8269
1.8625	4.53186
1.863	8.35876
1.8635	3.22266
1.864	4.22974
1.8645	4.83398
1.865	3.52478
1.8655	-1.00708
1.866	3.02124
1.8665	-1.91345
1.867	3.62549
1.8675	5.94177
1.868	0.30212
1.8685	1.51062
1.869	1.71204
1.8695	2.41699
1.87	6.44531
1.8705	1.10779
1.871	-3.32336
1.8715	-2.41699
1.872	1.00708
1.8725	1.2085
1.873	3.42407
1.8735	1.91345
1.874	1.00708
1.8745	2.41699
1.875	2.71912
1.8755	7.25098
1.876	4.02832
1.8765	7.35168
1.877	4.93469
1.8775	0.90637
1.878	10.77576
1.8785	4.53186
1.879	9.06372
1.8795	6.54602
1.88	2.61841
1.8805	8.25806
1.881	8.8623
1.8815	7.04956
1.882	6.64673
1.8825	4.73328
1.883	9.76868
1.8835	4.73328
1.884	6.94885
1.8845	9.76868
1.885	15.30762
1.8855	12.18567
1.886	5.63965
1.8865	7.85522
1.887	9.76868
1.8875	5.94177
1.888	6.04248
1.8885	4.73328
1.889	-4.12903
1.8895	0.10071
1.89	-0.10071
1.8905	7.45239
1.891	0.90637
1.8915	7.04956
1.892	2.41699
1.8925	12.78992
1.893	7.15027
1.8935	6.04248
1.894	12.5885
1.8945	11.98425
1.895	7.75452
1.8955	6.94885
1.896	12.28638
1.8965	10.77576
1.897	7.75452
1.8975	10.47363
1.898	12.08496
1.8985	8.7616
1.899	10.77576
1.8995	9.97009
1.9	8.7616
1.9005	3.52478
1.901	9.36584
1.9015	8.15735
1.902	9.16443
1.9025	7.45239
1.903	5.33752
1.9035	9.36584
1.904	5.53894
1.9045	6.54602
1.905	4.12903
1.9055	4.83398
1.906	2.81982
1.9065	1.91345
1.907	2.61841
1.9075	-0.20142
1.908	-2.41699
1.9085	0.60425
1.909	-5.53894
1.9095	-7.95593
1.91	-13.89771
1.9105	-6.3446
1.911	-5.84106
1.9115	-4.12903
1.912	-5.43823
1.9125	-8.7616
1.913	-6.54602
1.9135	-17.6239
1.914	-10.57434
1.9145	-5.33752
1.915	-8.56018
1.9155	-5.84106
1.916	-7.45239
1.9165	-9.06372
1.917	-13.59558
1.9175	-8.05664
1.918	-10.17151
1.9185	-14.40125
1.919	-15.30762
1.9195	-13.29346
1.92	-11.88354
1.9205	-5.94177
1.921	-3.02124
1.9215	-4.43115
1.922	-3.22266
1.9225	-5.23682
1.923	-1.61133
1.9235	-0.20142
1.924	0.20142
1.9245	-6.74744
1.925	-1.51062
1.9255	0.10071
1.926	1.40991
1.9265	2.61841
1.927	3.52478
1.9275	2.01416
1.928	2.61841
1.9285	8.8623
1.929	7.85522
1.9295	7.5531
1.93	3.62549
1.9305	10.87646
1.931	5.0354
1.9315	7.25098
1.932	11.17859
1.9325	6.84814
1.933	10.0708
1.9335	10.77576
1.934	11.48071
1.9345	16.91895
1.935	13.89771
1.9355	16.41541
1.936	9.36584
1.9365	13.797
1.937	14.90479
1.9375	10.67505
1.938	6.74744
1.9385	2.11487
1.939	5.0354
1.9395	9.06372
1.94	15.20691
1.9405	10.37292
1.941	9.16443
1.9415	12.68921
1.942	10.0708
1.9425	15.81116
1.943	16.51611
1.9435	11.48071
1.944	12.38708
1.9445	13.49487
1.945	13.797
1.9455	13.89771
1.946	11.68213
1.9465	17.12036
1.947	15.81116
1.9475	14.70337
1.948	12.5885
1.9485	13.39417
1.949	10.0708
1.9495	8.96301
1.95	13.29346
1.9505	8.8623
1.951	13.09204
1.9515	11.68213
1.952	16.51611
1.9525	9.86938
1.953	11.88354
1.9535	11.07788
1.954	10.77576
1.9545	10.87646
1.955	14.40125
1.9555	12.78992
1.956	12.28638
1.9565	14.19983
1.957	7.95593
1.9575	5.84106
1.958	14.09912
1.9585	8.15735
1.959	10.97717
1.9595	13.49487
1.96	11.48071
1.9605	16.11328
1.961	16.41541
1.9615	12.99133
1.962	14.70337
1.9625	9.56726
1.963	6.74744
1.9635	6.44531
1.964	1.91345
1.9645	6.74744
1.965	7.15027
1.9655	9.97009
1.966	8.45947
1.9665	9.16443
1.967	8.66089
1.9675	12.28638
1.968	13.59558
1.9685	7.65381
1.969	8.35876
1.9695	10.57434
1.97	8.7616
1.9705	8.05664
1.971	10.57434
1.9715	12.18567
1.972	8.05664
1.9725	9.06372
1.973	10.0708
1.9735	3.7262
1.974	9.76868
1.9745	9.46655
1.975	10.67505
1.9755	11.2793
1.976	10.97717
1.9765	7.5531
1.977	6.54602
1.9775	6.74744
1.978	6.74744
1.9785	5.43823
1.979	6.3446
1.9795	2.71912
1.98	4.12903
1.9805	3.42407
1.981	1.00708
1.9815	6.54602
1.982	6.54602
1.9825	4.43115
1.983	0.20142
1.9835	-2.61841
1.984	0.80566
1.9845	-0.40283
1.985	3.12195
1.9855	6.74744
1.986	4.53186
1.9865	4.93469
1.987	0.80566
1.9875	3.32336
1.988	7.35168
1.9885	6.94885
1.989	4.63257
1.9895	3.02124
1.99	5.53894
1.9905	8.25806
1.991	4.12903
1.9915	6.74744
1.992	6.64673
1.9925	9.97009
1.993	8.25806
1.9935	5.74036
1.994	8.8623
1.9945	6.2439
1.995	10.17151
1.9955	7.85522
1.996	6.2439
1.9965	12.28638
1.997	2.31628
1.9975	9.97009
1.998	4.63257
1.9985	9.46655
1.999	6.54602
1.9995	3.42407
2	0.60425
2.0005	4.93469
2.001	4.63257
2.0015	9.36584
2.002	9.56726
2.0025	6.74744
2.003	10.87646
2.0035	2.61841
2.004	7.45239
2.0045	11.68213
2.005	8.45947
2.0055	4.22974
2.006	2.92053
2.0065	4.83398
2.007	4.33044
2.0075	0
2.008	1.91345
2.0085	-4.12903
2.009	0.30212
2.0095	4.73328
2.01	12.89062
2.0105	6.64673
2.011	6.2439
2.0115	4.93469
2.012	5.13611
2.0125	-0.40283
2.013	-1.91345
2.0135	0.40283
2.014	4.02832
2.0145	5.94177
2.015	1.61133
2.0155	3.7262
2.016	1.71204
2.0165	5.13611
2.017	1.91345
2.0175	-2.81982
2.018	3.32336
2.0185	5.33752
2.019	7.15027
2.0195	6.84814
2.02	8.05664
2.0205	9.86938
2.021	8.05664
2.0215	4.83398
2.022	7.25098
2.0225	7.75452
2.023	4.53186
2.0235	4.63257
2.024	0
2.0245	6.2439
2.025	3.22266
2.0255	2.81982
2.026	3.32336
2.0265	7.04956
2.027	-0.40283
2.0275	0.20142
2.028	2.61841
2.0285	3.8269
2.029	0.60425
2.0295	3.92761
2.03	6.74744
2.0305	7.5531
2.031	2.11487
2.0315	2.21558
2.032	4.63257
2.0325	2.01416
2.033	7.45239
2.0335	11.07788
2.034	6.44531
2.0345	8.66089
2.035	6.14319
2.0355	3.8269
2.036	3.8269
2.0365	2.41699
2.037	1.51062
2.0375	6.84814
2.038	4.93469
2.0385	8.45947
2.039	10.57434
2.0395	6.84814
2.04	7.5531
2.0405	7.85522
2.041	5.33752
2.0415	13.49487
2.042	4.83398
2.0425	11.68213
2.043	6.44531
2.0435	1.00708
2.044	4.83398
2.0445	1.40991
2.045	5.53894
2.0455	6.54602
2.046	6.84814
2.0465	6.84814
2.047	9.46655
2.0475	0.80566
2.048	2.5177
2.0485	3.92761
2.049	3.42407
2.0495	4.43115
2.05	3.8269
2.0505	6.14319
2.051	4.02832
2.0515	3.22266
2.052	-4.02832
2.0525	5.74036
2.053	-2.31628
2.0535	3.7262
2.054	-1.51062
2.0545	-2.92053
2.055	-1.00708
2.0555	-3.8269
2.056	4.12903
2.0565	7.45239
2.057	2.31628
2.0575	4.83398
2.058	3.42407
2.0585	5.84106
2.059	0.90637
2.0595	5.53894
2.06	6.54602
2.0605	6.84814
2.061	7.5531
2.0615	6.84814
2.062	8.8623
2.0625	7.75452
2.063	8.7616
2.0635	8.05664
2.064	10.97717
2.0645	6.94885
2.065	4.73328
2.0655	7.95593
2.066	9.26514
2.0665	7.75452
2.067	8.66089
2.0675	13.09204
2.068	13.99841
2.0685	9.16443
2.069	6.14319
2.0695	8.15735
2.07	5.13611
2.0705	9.66797
2.071	7.04956
2.0715	7.75452
2.072	7.75452
2.0725	3.22266
2.073	5.33752
2.0735	2.61841
2.074	8.15735
2.0745	8.05664
2.075	6.54602
2.0755	8.45947
2.076	10.87646
2.0765	10.87646
2.077	10.37292
2.0775	8.8623
2.078	6.54602
2.0785	6.04248
2.079	3.7262
2.0795	0.70496
2.08	3.32336
2.0805	3.62549
2.081	7.65381
2.0815	7.45239
2.082	7.95593
2.0825	7.25098
2.083	6.84814
2.0835	4.93469
2.084	7.45239
2.0845	6.2439
2.085	5.63965
2.0855	7.25098
2.086	-2.11487
2.0865	1.71204
2.087	9.36584
2.0875	5.0354
2.088	0.70496
2.0885	2.92053
2.089	0.60425
2.0895	7.45239
2.09	8.66089
2.0905	5.0354
2.091	6.3446
2.0915	6.2439
2.092	4.02832
2.0925	11.48071
2.093	6.64673
2.0935	6.44531
2.094	7.95593
2.0945	4.63257
2.095	8.56018
2.0955	5.13611
2.096	10.67505
2.0965	5.43823
2.097	7.45239
2.0975	7.75452
2.098	-0.50354
2.0985	3.8269
2.099	4.43115
2.0995	0
2.1	6.04248
2.1005	0.90637
2.101	2.71912
2.1015	-4.22974
2.102	2.41699
2.1025	0.70496
2.103	7.04956
2.1035	5.94177
2.104	8.66089
2.1045	2.01416
2.105	1.10779
2.1055	6.2439
2.106	4.43115
2.1065	6.94885
2.107	5.0354
2.1075	4.53186
2.108	1.40991
2.1085	2.11487
2.109	1.3092
2.1095	4.93469
2.11	7.04956
2.1105	5.94177
2.111	5.0354
2.1115	4.02832
2.112	1.2085
2.1125	5.53894
2.113	5.23682
2.1135	5.33752
2.114	0.70496
2.1145	8.66089
2.115	4.63257
2.1155	7.25098
2.116	2.71912
2.1165	-1.81274
2.117	-2.41699
2.1175	4.33044
2.118	0
2.1185	4.12903
2.119	-0.50354
2.1195	2.71912
2.12	-0.30212
2.1205	1.81274
2.121	-0.60425
2.1215	2.71912
2.122	2.92053
2.1225	4.43115
2.123	7.65381
2.1235	3.42407
2.124	2.71912
2.1245	5.94177
2.125	8.96301
2.1255	6.3446
2.126	4.93469
2.1265	5.84106
2.127	11.2793
2.1275	4.83398
2.128	3.8269
2.1285	7.75452
2.129	6.3446
2.1295	3.8269
2.13	8.35876
2.1305	7.85522
2.131	12.38708
2.1315	3.42407
2.132	2.41699
2.1325	0.40283
2.133	1.2085
2.1335	4.43115
2.134	8.05664
2.1345	9.36584
2.135	6.04248
2.1355	2.81982
2.136	0.90637
2.1365	0.90637
2.137	7.25098
2.1375	12.99133
2.138	6.84814
2.1385	7.15027
2.139	7.04956
2.1395	8.05664
2.14	5.94177
2.1405	-0.50354
2.141	9.06372
2.1415	12.68921
2.142	10.87646
2.1425	7.45239
2.143	9.66797
2.1435	7.75452
2.144	4.22974
2.1445	12.68921
2.145	12.89062
2.1455	2.92053
2.146	3.22266
2.1465	3.42407
2.147	5.84106
2.1475	5.94177
2.148	0.90637
2.1485	6.14319
2.149	6.54602
2.1495	6.44531
2.15	8.45947
2.1505	9.66797
2.151	9.26514
2.1515	9.26514
2.152	4.83398
2.1525	8.25806
2.153	12.78992
2.1535	6.54602
2.154	5.53894
2.1545	11.17859
2.155	12.5885
2.1555	11.38
2.156	7.75452
2.1565	4.33044
2.157	6.3446
2.1575	6.74744
2.158	6.44531
2.1585	7.45239
2.159	5.43823
2.1595	8.15735
2.16	4.73328
2.1605	6.54602
2.161	9.26514
2.1615	4.93469
2.162	6.54602
2.1625	7.5531
2.163	8.25806
2.1635	7.25098
2.164	7.25098
2.1645	2.92053
2.165	5.63965
2.1655	8.05664
2.166	2.21558
2.1665	5.13611
2.167	3.62549
2.1675	8.96301
2.168	9.26514
2.1685	16.11328
2.169	12.99133
2.1695	11.68213
2.17	9.66797
2.1705	11.98425
2.171	11.98425
2.1715	1.71204
2.172	8.15735
2.1725	7.04956
2.173	9.97009
2.1735	5.23682
2.174	10.97717
2.1745	7.85522
2.175	9.26514
2.1755	9.46655
2.176	2.31628
2.1765	2.11487
2.177	6.44531
2.1775	4.93469
2.178	6.54602
2.1785	3.12195
2.179	7.45239
2.1795	9.66797
2.18	10.37292
2.1805	10.97717
2.181	6.04248
2.1815	11.17859
2.182	4.93469
2.1825	6.2439
2.183	7.45239
2.1835	2.92053
2.184	2.01416
2.1845	1.81274
2.185	4.12903
2.1855	1.91345
2.186	2.21558
2.1865	4.43115
2.187	2.21558
2.1875	-0.50354
2.188	2.5177
2.1885	3.62549
2.189	8.96301
2.1895	-2.5177
2.19	2.71912
2.1905	2.81982
2.191	4.73328
2.1915	2.5177
2.192	0
2.1925	2.81982
2.193	5.94177
2.1935	-0.60425
2.194	2.01416
2.1945	3.52478
2.195	3.62549
2.1955	-6.04248
2.196	6.2439
2.1965	8.7616
2.197	8.45947
2.1975	11.58142
2.198	8.05664
2.1985	6.04248
2.199	5.23682
2.1995	6.04248
2.2	7.95593
2.2005	4.12903
2.201	11.38
2.2015	11.2793
2.202	7.95593
2.2025	5.74036
2.203	12.38708
2.2035	8.15735
2.204	10.97717
2.2045	8.96301
2.205	9.26514
2.2055	5.33752
2.206	5.43823
2.2065	10.87646
2.207	10.47363
2.2075	9.06372
2.208	4.93469
2.2085	2.92053
2.209	8.35876
2.2095	4.93469
2.21	14.40125
2.2105	8.8623
2.211	3.32336
2.2115	-1.3092
2.212	2.11487
2.2125	4.83398
2.213	1.61133
2.2135	1.51062
2.214	1.10779
2.2145	6.94885
2.215	6.3446
2.2155	2.5177
2.216	7.95593
2.2165	0.70496
2.217	4.22974
2.2175	3.92761
2.218	-1.71204
2.2185	-1.00708
2.219	3.22266
2.2195	1.71204
2.22	-2.92053
2.2205	6.94885
2.221	3.12195
2.2215	2.5177
2.222	2.81982
2.2225	3.52478
2.223	0.10071
2.2235	1.2085
2.224	8.05664
2.2245	7.45239
2.225	3.32336
2.2255	5.43823
2.226	5.94177
2.2265	-0.50354
2.227	-1.81274
2.2275	4.73328
2.228	0
2.2285	-0.20142
2.229	-7.04956
2.2295	-1.61133
2.23	4.43115
2.2305	-0.20142
2.231	2.92053
2.2315	-2.41699
2.232	0.90637
2.2325	1.10779
2.233	-2.92053
2.2335	4.33044
2.234	7.75452
2.2345	4.83398
2.235	3.02124
2.2355	2.41699
2.236	3.92761
2.2365	0.60425
2.237	3.22266
2.2375	3.32336
2.238	5.43823
2.2385	1.71204
2.239	0.80566
2.2395	6.94885
2.24	-4.02832
2.2405	4.93469
2.241	4.33044
2.2415	7.04956
2.242	11.88354
2.2425	7.65381
2.243	7.35168
2.2435	1.3092
2.244	11.2793
2.2445	2.41699
2.245	-0.40283
2.2455	4.73328
2.246	9.06372
2.2465	4.93469
2.247	1.40991
2.2475	2.31628
2.248	2.21558
2.2485	1.61133
2.249	0
2.2495	-0.50354
2.25	2.21558
2.2505	6.54602
2.251	10.57434
2.2515	6.94885
2.252	6.64673
2.2525	4.83398
2.253	7.5531
2.2535	4.73328
2.254	8.05664
2.2545	10.27222
2.255	7.25098
2.2555	3.42407
2.256	9.97009
2.2565	5.84106
2.257	4.33044
2.2575	7.25098
2.258	9.36584
2.2585	7.15027
2.259	4.53186
2.2595	-0.30212
2.26	2.41699
2.2605	7.35168
2.261	5.23682
2.2615	3.02124
2.262	3.42407
2.2625	6.3446
2.263	8.96301
2.2635	6.2439
2.264	6.54602
2.2645	6.04248
2.265	6.94885
2.2655	2.81982
2.266	4.22974
2.2665	12.78992
2.267	7.35168
2.2675	10.0708
2.268	3.22266
2.2685	5.84106
2.269	2.81982
2.2695	8.45947
2.27	9.86938
2.2705	6.84814
2.271	8.15735
2.2715	5.84106
2.272	7.25098
2.2725	3.42407
2.273	10.67505
2.2735	4.63257
2.274	5.23682
2.2745	7.25098
2.275	7.5531
2.2755	4.33044
2.276	5.53894
2.2765	7.5531
2.277	-1.2085
2.2775	8.66089
2.278	3.62549
2.2785	5.63965
2.279	7.95593
2.2795	5.94177
2.28	7.85522
2.2805	11.07788
2.281	7.04956
2.2815	4.33044
2.282	7.45239
2.2825	9.46655
2.283	4.02832
2.2835	9.97009
2.284	4.12903
2.2845	8.8623
2.285	7.75452
2.2855	2.01416
2.286	1.81274
2.2865	-1.10779
2.287	0.10071
2.2875	5.13611
2.288	6.3446
2.2885	7.65381
2.289	9.76868
2.2895	6.14319
2.29	2.01416
2.2905	4.33044
2.291	7.75452
2.2915	7.15027
2.292	0.20142
2.2925	6.84814
2.293	6.84814
2.2935	8.15735
2.294	6.14319
2.2945	7.5531
2.295	4.53186
2.2955	12.08496
2.296	9.06372
2.2965	8.56018
2.297	12.18567
2.2975	8.15735
2.298	9.97009
2.2985	6.54602
2.299	6.84814
2.2995	3.8269
2.3	5.33752
2.3005	-0.10071
2.301	6.74744
2.3015	5.84106
2.302	9.66797
2.3025	12.78992
2.303	8.8623
2.3035	11.2793
2.304	7.35168
2.3045	9.76868
2.305	6.44531
2.3055	6.3446
2.306	11.38
2.3065	11.38
2.307	13.09204
2.3075	7.45239
2.308	7.85522
2.3085	7.75452
2.309	5.84106
2.3095	8.56018
2.31	2.71912
2.3105	7.45239
2.311	7.65381
2.3115	7.5531
2.312	6.44531
2.3125	3.32336
2.313	0.10071
2.3135	-0.40283
2.314	1.3092
2.3145	5.0354
2.315	-0.90637
2.3155	3.02124
2.316	0.90637
2.3165	1.10779
2.317	2.31628
2.3175	4.43115
2.318	1.51062
2.3185	5.0354
2.319	4.02832
2.3195	2.71912
2.32	3.52478
2.3205	0.30212
2.321	2.61841
2.3215	5.13611
2.322	7.45239
2.3225	2.92053
2.323	10.17151
2.3235	1.91345
2.324	5.74036
2.3245	6.3446
2.325	8.66089
2.3255	4.93469
2.326	6.3446
2.3265	8.66089
2.327	8.05664
2.3275	0.30212
2.328	11.98425
2.3285	13.39417
2.329	5.63965
2.3295	8.7616
2.33	1.2085
2.3305	4.63257
2.331	4.33044
2.3315	6.54602
2.332	8.25806
2.3325	4.73328
2.333	3.22266
2.3335	0.60425
2.334	5.33752
2.3345	10.47363
2.335	10.87646
2.3355	10.0708
2.336	2.41699
2.3365	3.12195
2.337	6.44531
2.3375	1.3092
2.338	0.20142
2.3385	4.22974
2.339	3.8269
2.3395	2.21558
2.34	-1.51062
2.3405	-1.40991
2.341	6.74744
2.3415	2.71912
2.342	0
2.3425	2.81982
2.343	2.92053
2.3435	-1.2085
2.344	2.5177
2.3445	-2.92053
2.345	3.02124
2.3455	2.92053
2.346	5.0354
2.3465	4.53186
2.347	-1.51062
2.3475	-1.3092
2.348	0.50354
2.3485	1.10779
2.349	7.85522
2.3495	1.2085
2.35	3.02124
2.3505	1.51062
2.351	4.12903
2.3515	5.63965
2.352	-0.70496
2.3525	0.80566
2.353	9.66797
2.3535	3.02124
2.354	4.73328
2.3545	3.92761
2.355	6.44531
2.3555	8.96301
2.356	7.95593
2.3565	7.04956
2.357	7.65381
2.3575	5.33752
2.358	5.94177
2.3585	6.14319
2.359	6.94885
2.3595	4.53186
2.36	4.43115
2.3605	6.44531
2.361	6.3446
2.3615	3.92761
2.362	3.8269
2.3625	-2.01416
2.363	5.84106
2.3635	5.84106
2.364	2.21558
2.3645	3.8269
2.365	-1.00708
2.3655	3.22266
2.366	-1.2085
2.3665	4.83398
2.367	8.96301
2.3675	6.14319
2.368	6.84814
2.3685	6.54602
2.369	8.8623
2.3695	0.80566
2.37	3.22266
2.3705	5.63965
2.371	4.83398
2.3715	7.04956
2.372	7.45239
2.3725	1.40991
2.373	1.40991
2.3735	2.71912
2.374	2.81982
2.3745	4.02832
2.375	3.12195
2.3755	3.02124
2.376	4.73328
2.3765	2.92053
2.377	2.92053
2.3775	-0.50354
2.378	7.5531
2.3785	7.35168
2.379	8.35876
2.3795	3.52478
2.38	10.0708
2.3805	15.20691
2.381	15.40833
2.3815	7.35168
2.382	7.65381
2.3825	7.45239
2.383	7.85522
2.3835	4.12903
2.384	13.39417
2.3845	6.3446
2.385	10.77576
2.3855	8.66089
2.386	3.12195
2.3865	8.25806
2.387	5.13611
2.3875	9.76868
2.388	10.17151
2.3885	2.71912
2.389	8.56018
2.3895	3.8269
2.39	7.15027
2.3905	9.66797
2.391	5.63965
2.3915	12.78992
2.392	10.97717
2.3925	11.68213
2.393	12.28638
2.3935	12.89062
2.394	7.25098
2.3945	7.35168
2.395	11.38
2.3955	11.98425
2.396	13.09204
2.3965	10.87646
2.397	1.3092
2.3975	1.00708
2.398	3.02124
2.3985	9.16443
2.399	7.25098
2.3995	1.40991
2.4	8.15735
2.4005	3.42407
2.401	5.33752
2.4015	8.05664
2.402	7.04956
2.4025	12.68921
2.403	10.87646
2.4035	9.56726
2.404	11.48071
2.4045	7.65381
2.405	10.97717
2.4055	10.57434
2.406	8.05664
2.4065	9.97009
2.407	10.0708
2.4075	5.94177
2.408	4.53186
2.4085	7.85522
2.409	11.38
2.4095	5.0354
2.41	7.25098
2.4105	12.78992
2.411	13.797
2.4115	13.39417
2.412	12.18567
2.4125	6.74744
2.413	7.25098
2.4135	6.94885
2.414	10.77576
2.4145	8.35876
2.415	6.94885
2.4155	6.54602
2.416	6.54602
2.4165	8.45947
2.417	7.04956
2.4175	10.97717
2.418	11.38
2.4185	7.15027
2.419	13.09204
2.4195	6.94885
2.42	12.28638
2.4205	5.63965
2.421	8.35876
2.4215	10.27222
2.422	17.72461
2.4225	11.68213
2.423	4.73328
2.4235	0.30212
2.424	6.3446
2.4245	9.66797
2.425	10.17151
2.4255	8.45947
2.426	2.92053
2.4265	3.42407
2.427	4.73328
2.4275	6.3446
2.428	7.95593
2.4285	6.2439
2.429	11.2793
2.4295	9.97009
2.43	5.74036
2.4305	5.74036
2.431	2.61841
2.4315	3.92761
2.432	11.17859
2.4325	12.38708
2.433	5.74036
2.4335	3.92761
2.434	7.45239
2.4345	7.85522
2.435	9.76868
2.4355	9.56726
2.436	5.84106
2.4365	10.87646
2.437	9.76868
2.4375	9.16443
2.438	5.94177
2.4385	6.94885
2.439	5.63965
2.4395	6.2439
2.44	1.71204
2.4405	7.45239
2.441	8.66089
2.4415	5.63965
2.442	7.35168
2.4425	3.42407
2.443	9.26514
2.4435	3.22266
2.444	4.12903
2.4445	4.12903
2.445	6.04248
2.4455	6.44531
2.446	7.35168
2.4465	6.74744
2.447	8.25806
2.4475	6.44531
2.448	0.50354
2.4485	4.93469
2.449	6.84814
2.4495	7.65381
2.45	5.63965
2.4505	6.04248
2.451	5.43823
2.4515	6.3446
2.452	4.53186
2.4525	5.63965
2.453	6.54602
2.4535	7.45239
2.454	0.80566
2.4545	5.13611
2.455	5.53894
2.4555	7.45239
2.456	2.92053
2.4565	8.45947
2.457	3.22266
2.4575	2.92053
2.458	0.40283
2.4585	0.90637
2.459	4.83398
2.4595	-1.00708
2.46	2.01416
2.4605	8.35876
2.461	2.92053
2.4615	0.90637
2.462	4.73328
2.4625	5.0354
2.463	3.8269
2.4635	2.5177
2.464	4.02832
2.4645	4.02832
2.465	5.63965
2.4655	4.43115
2.466	4.83398
2.4665	8.7616
2.467	8.66089
2.4675	8.15735
2.468	5.53894
2.4685	3.8269
2.469	3.8269
2.4695	5.33752
2.47	4.33044
2.4705	2.41699
2.471	3.62549
2.4715	-3.62549
2.472	2.81982
2.4725	2.11487
2.473	3.52478
2.4735	4.02832
2.474	2.01416
2.4745	5.94177
2.475	4.73328
2.4755	8.45947
2.476	6.54602
2.4765	1.51062
2.477	8.15735
2.4775	7.45239
2.478	12.68921
2.4785	7.95593
2.479	6.14319
2.4795	12.08496
2.48	8.15735
2.4805	10.57434
2.481	8.7616
2.4815	9.36584
2.482	6.54602
2.4825	7.25098
2.483	4.73328
2.4835	4.22974
2.484	10.67505
2.4845	7.65381
2.485	7.75452
2.4855	11.68213
2.486	7.5531
2.4865	3.32336
2.487	-0.40283
2.4875	7.04956
2.488	8.45947
2.4885	6.64673
2.489	4.33044
2.4895	5.94177
2.49	6.64673
2.4905	6.84814
2.491	10.0708
2.4915	10.67505
2.492	7.15027
2.4925	2.61841
2.493	4.33044
2.4935	2.21558
2.494	5.84106
2.4945	7.5531
2.495	6.04248
2.4955	2.31628
2.496	9.26514
2.4965	3.02124
2.497	4.73328
2.4975	6.64673
2.498	5.13611
2.4985	10.0708
2.499	12.08496
2.4995	7.45239
2.5	4.83398
2.5005	9.86938
2.501	4.22974
2.5015	9.66797
2.502	7.15027
2.5025	5.53894
2.503	5.53894
2.5035	1.51062
2.504	5.33752
2.5045	7.65381
2.505	10.0708
2.5055	9.56726
2.506	8.7616
2.5065	9.46655
2.507	8.15735
2.5075	9.86938
2.508	8.15735
2.5085	10.47363
2.509	9.06372
2.5095	7.45239
2.51	10.17151
2.5105	7.95593
2.511	6.64673
2.5115	11.17859
2.512	9.76868
2.5125	8.05664
2.513	7.85522
2.5135	5.63965
2.514	12.38708
2.5145	8.8623
2.515	10.0708
2.5155	8.56018
2.516	0
2.5165	9.16443
2.517	4.93469
2.5175	1.81274
2.518	5.43823
2.5185	5.43823
2.519	2.71912
2.5195	7.85522
2.52	12.38708
2.5205	8.15735
2.521	9.97009
2.5215	7.75452
2.522	3.7262
2.5225	5.43823
2.523	7.5531
2.5235	0.50354
2.524	3.32336
2.5245	1.71204
2.525	-1.00708
2.5255	-3.12195
2.526	6.14319
2.5265	7.45239
2.527	6.44531
2.5275	3.12195
2.528	-0.40283
2.5285	0.90637
2.529	3.32336
2.5295	3.92761
2.53	-2.21558
2.5305	-0.90637
2.531	-4.02832
2.5315	-1.71204
2.532	-3.02124
2.5325	-2.71912
2.533	-1.3092
2.5335	-7.35168
2.534	-7.85522
2.5345	-9.06372
2.535	-10.57434
2.5355	-7.5531
2.536	-11.07788
2.5365	-6.14319
2.537	-6.54602
2.5375	-7.35168
2.538	-6.94885
2.5385	-9.26514
2.539	-9.46655
2.5395	-8.96301
2.54	-10.77576
2.5405	-8.7616
2.541	-7.95593
2.5415	-8.66089
2.542	-8.25806
2.5425	-8.25806
2.543	-10.27222
2.5435	-15.91187
2.544	-11.98425
2.5445	-8.35876
2.545	-8.7616
2.5455	-6.74744
2.546	-9.06372
2.5465	-5.23682
2.547	-4.93469
2.5475	-0.10071
2.548	-2.31628
2.5485	-4.73328
2.549	-4.63257
2.5495	-4.73328
2.55	-6.44531
2.5505	-7.65381
2.551	-0.90637
2.5515	-1.61133
2.552	-1.00708
2.5525	-1.3092
2.553	-0.70496
2.5535	1.2085
2.554	2.01416
2.5545	2.11487
2.555	0
2.5555	-4.63257
2.556	-1.81274
2.5565	8.96301
2.557	10.17151
2.5575	2.41699
2.558	9.46655
2.5585	10.77576
2.559	8.66089
2.5595	6.84814
2.56	9.26514
2.5605	6.3446
2.561	6.94885
2.5615	5.74036
2.562	12.28638
2.5625	8.35876
2.563	5.13611
2.5635	11.58142
2.564	13.49487
2.5645	10.57434
2.565	11.2793
2.5655	12.48779
2.566	17.82532
2.5665	19.03381
2.567	12.78992
2.5675	15.30762
2.568	12.28638
2.5685	9.97009
2.569	11.48071
2.5695	12.08496
2.57	10.0708
2.5705	11.78284
2.571	10.0708
2.5715	13.99841
2.572	15.71045
2.5725	12.48779
2.573	9.86938
2.5735	10.47363
2.574	7.25098
2.5745	13.39417
2.575	14.30054
2.5755	11.48071
2.576	15.00549
2.5765	13.19275
2.577	6.54602
2.5775	10.67505
2.578	15.50903
2.5785	14.09912
2.579	14.30054
2.5795	11.38
2.58	11.17859
2.5805	8.7616
2.581	16.71753
2.5815	10.77576
2.582	12.08496
2.5825	9.86938
2.583	14.50195
2.5835	5.43823
2.584	8.8623
2.5845	4.73328
2.585	8.15735
2.5855	10.17151
2.586	9.16443
2.5865	6.14319
2.587	5.94177
2.5875	7.35168
2.588	9.76868
2.5885	2.11487
2.589	5.84106
2.5895	9.06372
2.59	9.36584
2.5905	8.05664
2.591	6.04248
2.5915	6.54602
2.592	5.23682
2.5925	6.64673
2.593	5.84106
2.5935	8.25806
2.594	8.56018
2.5945	7.65381
2.595	2.71912
2.5955	5.23682
2.596	8.96301
2.5965	7.85522
2.597	9.97009
2.5975	11.38
2.598	9.36584
2.5985	5.43823
2.599	9.86938
2.5995	8.35876
2.6	9.86938
2.6005	8.35876
2.601	11.88354
2.6015	14.70337
2.602	7.45239
2.6025	10.27222
2.603	10.47363
2.6035	5.94177
2.604	3.32336
2.6045	5.74036
2.605	8.56018
2.6055	3.22266
2.606	5.94177
2.6065	7.15027
2.607	8.35876
2.6075	9.26514
2.608	8.05664
2.6085	5.94177
2.609	7.15027
2.6095	8.45947
2.61	10.47363
2.6105	4.53186
2.611	8.96301
2.6115	9.56726
2.612	12.68921
2.6125	13.19275
2.613	7.5531
2.6135	4.43115
2.614	6.3446
2.6145	11.68213
2.615	9.97009
2.6155	11.17859
2.616	8.66089
2.6165	10.47363
2.617	9.36584
2.6175	7.04956
2.618	7.65381
2.6185	12.38708
2.619	11.88354
2.6195	5.23682
2.62	1.91345
2.6205	4.22974
2.621	10.17151
2.6215	5.13611
2.622	7.5531
2.6225	4.22974
2.623	8.05664
2.6235	3.12195
2.624	11.98425
2.6245	8.96301
2.625	13.29346
2.6255	14.19983
2.626	13.69629
2.6265	10.17151
2.627	10.57434
2.6275	14.09912
2.628	12.78992
2.6285	9.97009
2.629	11.98425
2.6295	6.3446
2.63	8.25806
2.6305	8.05664
2.631	8.96301
2.6315	6.94885
2.632	9.66797
2.6325	4.63257
2.633	7.85522
2.6335	5.23682
2.634	8.35876
2.6345	4.63257
2.635	7.35168
2.6355	7.04956
2.636	12.38708
2.6365	11.48071
2.637	6.74744
2.6375	10.67505
2.638	6.54602
2.6385	2.71912
2.639	8.7616
2.6395	4.63257
2.64	4.63257
2.6405	9.86938
2.641	6.14319
2.6415	7.35168
2.642	6.54602
2.6425	6.74744
2.643	11.38
2.6435	12.08496
2.644	8.96301
2.6445	11.58142
2.645	10.47363
2.6455	6.84814
2.646	8.45947
2.6465	10.27222
2.647	4.53186
2.6475	9.56726
2.648	7.25098
2.6485	4.12903
2.649	2.11487
2.6495	1.71204
2.65	2.5177
2.6505	0.90637
2.651	0.70496
2.6515	3.52478
2.652	3.7262
2.6525	7.65381
2.653	7.5531
2.6535	4.93469
2.654	3.8269
2.6545	7.95593
2.655	8.25806
2.6555	2.31628
2.656	5.53894
2.6565	1.00708
2.657	2.92053
2.6575	4.73328
2.658	4.12903
2.6585	9.26514
2.659	6.64673
2.6595	3.42407
2.66	6.54602
2.6605	7.45239
2.661	4.93469
2.6615	12.38708
2.662	8.56018
2.6625	3.52478
2.663	5.74036
2.6635	4.12903
2.664	-1.81274
2.6645	-1.2085
2.665	5.53894
2.6655	6.44531
2.666	6.44531
2.6665	6.14319
2.667	-1.2085
2.6675	5.43823
2.668	4.63257
2.6685	9.66797
2.669	5.23682
2.6695	8.45947
2.67	3.92761
2.6705	6.3446
2.671	0.80566
2.6715	7.15027
2.672	6.14319
2.6725	2.41699
2.673	5.63965
2.6735	2.92053
2.674	-0.70496
2.6745	4.43115
2.675	4.33044
2.6755	7.85522
2.676	5.74036
2.6765	6.94885
2.677	5.0354
2.6775	5.63965
2.678	7.5531
2.6785	7.04956
2.679	10.27222
2.6795	5.53894
2.68	4.73328
2.6805	10.57434
2.681	6.64673
2.6815	1.61133
2.682	2.71912
2.6825	6.2439
2.683	5.84106
2.6835	1.2085
2.684	2.21558
2.6845	1.3092
2.685	0.50354
2.6855	4.53186
2.686	2.71912
2.6865	3.92761
2.687	7.45239
2.6875	6.74744
2.688	5.74036
2.6885	4.43115
2.689	6.54602
2.6895	2.92053
2.69	5.53894
2.6905	5.43823
2.691	6.3446
2.6915	13.39417
2.692	9.76868
2.6925	3.22266
2.693	1.10779
2.6935	3.7262
2.694	4.63257
2.6945	7.85522
2.695	0
2.6955	5.33752
2.696	8.66089
2.6965	6.2439
2.697	8.25806
2.6975	5.63965
2.698	5.63965
2.6985	2.92053
2.699	4.63257
2.6995	7.65381
2.7	9.06372
2.7005	5.43823
2.701	3.92761
2.7015	5.53894
2.702	0.60425
2.7025	5.13611
2.703	0.70496
2.7035	-1.61133
2.704	1.2085
2.7045	-2.5177
2.705	2.21558
2.7055	1.91345
2.706	-1.40991
2.7065	1.3092
2.707	6.04248
2.7075	3.52478
2.708	8.05664
2.7085	4.93469
2.709	9.76868
2.7095	5.43823
2.71	6.14319
2.7105	7.15027
2.711	9.16443
2.7115	7.45239
2.712	10.87646
2.7125	2.21558
2.713	7.15027
2.7135	4.63257
2.714	8.66089
2.7145	0.60425
2.715	0.60425
2.7155	1.2085
2.716	0.20142
2.7165	5.23682
2.717	1.51062
2.7175	-3.42407
2.718	-1.51062
2.7185	-0.70496
2.719	-1.00708
2.7195	-0.50354
2.72	4.83398
2.7205	8.56018
2.721	3.42407
2.7215	0.10071
2.722	4.12903
2.7225	5.63965
2.723	1.91345
2.7235	6.04248
2.724	9.36584
2.7245	6.54602
2.725	1.51062
2.7255	4.73328
2.726	2.61841
2.7265	4.83398
2.727	3.12195
2.7275	0.40283
2.728	0.90637
2.7285	5.33752
2.729	4.83398
2.7295	5.43823
2.73	4.12903
2.7305	1.71204
2.731	2.81982
2.7315	-0.90637
2.732	-0.80566
2.7325	4.22974
2.733	6.3446
2.7335	2.31628
2.734	8.56018
2.7345	8.45947
2.735	6.64673
2.7355	6.44531
2.736	8.8623
2.7365	3.92761
2.737	6.14319
2.7375	11.88354
2.738	11.58142
2.7385	8.56018
2.739	8.66089
2.7395	2.92053
2.74	1.71204
2.7405	4.83398
2.741	6.3446
2.7415	2.92053
2.742	5.84106
2.7425	10.77576
2.743	5.84106
2.7435	-1.3092
2.744	7.45239
2.7445	6.54602
2.745	4.63257
2.7455	6.04248
2.746	8.56018
2.7465	3.92761
2.747	-1.51062
2.7475	6.84814
2.748	3.02124
2.7485	2.71912
2.749	0.20142
2.7495	0.30212
2.75	0.90637
2.7505	-1.3092
2.751	0.90637
2.7515	2.11487
2.752	5.43823
2.7525	3.62549
2.753	4.93469
2.7535	3.02124
2.754	4.43115
2.7545	0.80566
2.755	2.71912
2.7555	-0.10071
2.756	5.94177
2.7565	7.85522
2.757	8.66089
2.7575	10.37292
2.758	4.53186
2.7585	7.35168
2.759	4.73328
2.7595	1.61133
2.76	3.32336
2.7605	10.37292
2.761	1.91345
2.7615	0
2.762	2.11487
2.7625	6.84814
2.763	5.94177
2.7635	2.71912
2.764	7.45239
2.7645	3.8269
2.765	-0.80566
2.7655	3.12195
2.766	1.3092
2.7665	4.93469
2.767	8.8623
2.7675	3.62549
2.768	6.3446
2.7685	12.28638
2.769	8.35876
2.7695	10.0708
2.77	9.76868
2.7705	11.2793
2.771	11.48071
2.7715	9.16443
2.772	7.45239
2.7725	9.06372
2.773	3.92761
2.7735	6.14319
2.774	2.81982
2.7745	8.8623
2.775	11.17859
2.7755	8.45947
2.776	10.37292
2.7765	12.78992
2.777	13.29346
2.7775	5.13611
2.778	8.66089
2.7785	14.80408
2.779	7.85522
2.7795	10.97717
2.78	12.68921
2.7805	11.38
2.781	6.94885
2.7815	7.75452
2.782	9.66797
2.7825	4.93469
2.783	7.25098
2.7835	4.53186
2.784	5.53894
2.7845	5.74036
2.785	7.75452
2.7855	4.02832
2.786	5.74036
2.7865	3.62549
2.787	6.2439
2.7875	4.93469
2.788	0.70496
2.7885	1.40991
2.789	4.53186
2.7895	0.50354
2.79	6.94885
2.7905	8.45947
2.791	4.43115
2.7915	8.05664
2.792	7.85522
2.7925	8.7616
2.793	8.05664
2.7935	7.75452
2.794	6.3446
2.7945	5.53894
2.795	5.74036
2.7955	3.8269
2.796	3.52478
2.7965	6.84814
2.797	7.25098
2.7975	8.7616
2.798	8.25806
2.7985	1.00708
2.799	1.3092
2.7995	9.46655
2.8	-2.81982
2.8005	5.33752
2.801	5.53894
2.8015	7.45239
2.802	7.25098
2.8025	6.04248
2.803	11.78284
2.8035	6.74744
2.804	4.63257
2.8045	7.5531
2.805	5.74036
2.8055	8.35876
2.806	11.2793
2.8065	7.04956
2.807	7.95593
2.8075	9.16443
2.808	6.54602
2.8085	6.14319
2.809	10.17151
2.8095	11.48071
2.81	13.99841
2.8105	11.07788
2.811	8.25806
2.8115	2.21558
2.812	6.64673
2.8125	7.45239
2.813	5.84106
2.8135	11.78284
2.814	9.56726
2.8145	8.56018
2.815	6.74744
2.8155	10.17151
2.816	11.98425
2.8165	10.77576
2.817	13.49487
2.8175	8.7616
2.818	8.35876
2.8185	11.48071
2.819	8.66089
2.8195	9.56726
2.82	10.77576
2.8205	11.17859
2.821	6.64673
2.8215	4.53186
2.822	8.25806
2.8225	8.56018
2.823	6.84814
2.8235	5.84106
2.824	11.38
2.8245	14.60266
2.825	8.45947
2.8255	8.96301
2.826	6.94885
2.8265	7.45239
2.827	6.54602
2.8275	8.8623
2.828	9.26514
2.8285	6.04248
2.829	3.32336
2.8295	0.60425
2.83	2.61841
2.8305	3.62549
2.831	7.15027
2.8315	0.80566
2.832	0.10071
2.8325	0.90637
2.833	-1.91345
2.8335	8.25806
2.834	8.56018
2.8345	4.02832
2.835	4.43115
2.8355	6.04248
2.836	5.94177
2.8365	6.54602
2.837	8.35876
2.8375	4.73328
2.838	3.32336
2.8385	8.66089
2.839	6.54602
2.8395	5.23682
2.84	1.2085
2.8405	7.25098
2.841	10.67505
2.8415	7.5531
2.842	4.22974
2.8425	7.75452
2.843	4.73328
2.8435	9.16443
2.844	4.12903
2.8445	6.74744
2.845	3.7262
2.8455	5.94177
2.846	5.13611
2.8465	8.7616
2.847	5.84106
2.8475	4.93469
2.848	7.15027
2.8485	4.73328
2.849	5.53894
2.8495	7.75452
2.85	11.07788
2.8505	3.52478
2.851	2.31628
2.8515	3.22266
2.852	5.33752
2.8525	7.04956
2.853	-0.70496
2.8535	-0.90637
2.854	2.5177
2.8545	2.5177
2.855	-3.8269
2.8555	-0.80566
2.856	-4.93469
2.8565	-4.02832
2.857	7.35168
2.8575	2.41699
2.858	-0.40283
2.8585	3.02124
2.859	3.7262
2.8595	4.53186
2.86	4.43115
2.8605	4.43115
2.861	4.43115
2.8615	4.43115
2.862	4.43115
2.8625	4.43115
2.863	4.43115
2.8635	4.43115
2.864	4.43115
2.8645	4.43115
2.865	4.43115
2.8655	4.43115
2.866	4.43115
2.8665	4.43115
2.867	4.43115
2.8675	4.43115
2.868	4.43115
2.8685	4.43115
2.869	4.43115
2.8695	4.43115
2.87	4.43115
2.8705	1.2085
2.871	4.02832
2.8715	7.35168
2.872	10.97717
2.8725	10.17151
2.873	11.58142
2.8735	1.00708
2.874	6.64673
2.8745	3.22266
2.875	2.11487
2.8755	5.13611
2.876	4.93469
2.8765	5.53894
2.877	6.14319
2.8775	6.44531
2.878	3.92761
2.8785	0.70496
2.879	4.63257
2.8795	7.25098
2.88	4.93469
2.8805	4.12903
2.881	4.83398
2.8815	6.64673
2.882	6.14319
2.8825	5.13611
2.883	10.17151
2.8835	-1.3092
2.884	5.53894
2.8845	5.13611
2.885	8.56018
2.8855	6.84814
2.886	8.66089
2.8865	12.18567
2.887	8.96301
2.8875	10.67505
2.888	10.67505
2.8885	9.76868
2.889	7.35168
2.8895	9.66797
2.89	9.26514
2.8905	5.74036
2.891	6.3446
2.8915	2.71912
2.892	3.92761
2.8925	6.2439
2.893	6.84814
2.8935	2.41699
2.894	1.51062
2.8945	6.2439
2.895	0.50354
2.8955	5.23682
2.896	5.53894
2.8965	3.92761
2.897	2.41699
2.8975	3.32336
2.898	1.91345
2.8985	0.70496
2.899	4.22974
2.8995	8.15735
2.9	0.50354
2.9005	-2.5177
2.901	6.44531
2.9015	1.51062
2.902	0.40283
2.9025	5.0354
2.903	3.12195
2.9035	6.64673
2.904	2.71912
2.9045	2.31628
2.905	3.8269
2.9055	5.33752
2.906	5.63965
2.9065	7.75452
2.907	6.14319
2.9075	3.52478
2.908	1.3092
2.9085	7.5531
2.909	9.16443
2.9095	6.3446
2.91	3.22266
2.9105	2.41699
2.911	4.12903
2.9115	1.10779
2.912	-0.90637
2.9125	8.8623
2.913	8.15735
2.9135	1.40991
2.914	4.43115
2.9145	2.01416
2.915	3.02124
2.9155	-1.71204
2.916	6.14319
2.9165	5.33752
2.917	6.44531
2.9175	5.53894
2.918	5.43823
2.9185	-0.20142
2.919	5.63965
2.9195	5.0354
2.92	10.17151
2.9205	3.92761
2.921	0.30212
2.9215	0.70496
2.922	0.60425
2.9225	6.54602
2.923	5.94177
2.9235	-0.70496
2.924	6.64673
2.9245	9.16443
2.925	9.97009
2.9255	5.63965
2.926	8.56018
2.9265	11.17859
2.927	3.42407
2.9275	4.73328
2.928	5.94177
2.9285	3.32336
2.929	5.94177
2.9295	6.04248
2.93	6.04248
2.9305	6.04248
2.931	6.04248
2.9315	6.04248
2.932	6.04248
2.9325	6.04248
2.933	6.04248
2.9335	6.04248
2.934	6.04248
2.9345	6.04248
2.935	6.04248
2.9355	6.04248
2.936	6.04248
2.9365	6.04248
2.937	6.04248
2.9375	6.04248
2.938	6.04248
2.9385	6.04248
2.939	6.04248
2.9395	6.04248
2.94	6.04248
2.9405	6.64673
2.941	6.44531
2.9415	6.2439
2.942	6.44531
2.9425	4.12903
2.943	0.60425
2.9435	4.53186
2.944	7.85522
2.9445	9.36584
2.945	7.65381
2.9455	5.84106
2.946	2.21558
2.9465	3.02124
2.947	4.33044
2.9475	7.25098
2.948	3.02124
2.9485	4.73328
2.949	8.66089
2.9495	10.0708
2.95	5.84106
2.9505	5.74036
2.951	8.8623
2.9515	1.81274
2.952	9.97009
2.9525	12.08496
2.953	10.47363
2.9535	1.81274
2.954	2.71912
2.9545	6.94885
2.955	3.8269
2.9555	3.62549
2.956	6.64673
2.9565	4.33044
2.957	2.92053
2.9575	1.91345
2.958	5.53894
2.9585	2.31628
2.959	1.61133
2.9595	4.63257
2.96	5.84106
2.9605	0.30212
2.961	5.13611
2.9615	-0.60425
2.962	7.04956
2.9625	5.33752
2.963	4.83398
2.9635	-0.20142
2.964	10.47363
2.9645	5.43823
2.965	4.93469
2.9655	6.04248
2.966	-1.71204
2.9665	-2.01416
2.967	2.11487
2.9675	8.25806
2.968	5.33752
2.9685	5.43823
2.969	5.33752
2.9695	13.89771
2.97	7.04956
2.9705	5.63965
2.971	4.63257
2.9715	5.33752
2.972	5.94177
2.9725	9.46655
2.973	6.84814
2.9735	2.81982
2.974	8.35876
2.9745	9.56726
2.975	7.25098
2.9755	2.92053
2.976	6.84814
2.9765	8.45947
2.977	10.27222
2.9775	6.64673
2.978	8.35876
2.9785	4.83398
2.979	3.62549
2.9795	0.70496
2.98	2.81982
2.9805	-2.5177
2.981	-1.51062
2.9815	-2.41699
2.982	6.04248
2.9825	0.20142
2.983	10.47363
2.9835	2.71912
2.984	-0.80566
2.9845	0.40283
2.985	-0.40283
2.9855	-2.61841
2.986	6.04248
2.9865	4.63257
2.987	7.45239
2.9875	-1.3092
2.988	-0.10071
2.9885	5.63965
2.989	7.25098
2.9895	3.42407
2.99	4.12903
2.9905	-1.81274
2.991	2.92053
2.9915	6.64673
2.992	10.17151
2.9925	9.46655
2.993	4.63257
2.9935	1.71204
2.994	2.61841
2.9945	7.35168
2.995	10.77576
2.9955	12.99133
2.996	12.68921
2.9965	10.77576
2.997	13.29346
2.9975	11.48071
2.998	11.78284
2.9985	7.45239
2.999	13.39417
2.9995	10.0708
3	15.40833
3.0005	12.99133
3.001	14.09912
3.0015	10.97717
3.002	8.15735
3.0025	10.97717
3.003	12.38708
3.0035	10.67505
3.004	12.08496
3.0045	9.97009
3.005	7.65381
3.0055	10.27222
3.006	8.8623
3.0065	3.62549
3.007	6.2439
3.0075	3.8269
3.008	4.33044
3.0085	5.13611
3.009	8.56018
3.0095	5.13611
3.01	4.73328
3.0105	7.25098
3.011	8.45947
3.0115	5.13611
3.012	3.62549
3.0125	4.53186
3.013	6.3446
3.0135	4.33044
3.014	4.73328
3.0145	7.95593
3.015	5.13611
3.0155	2.5177
3.016	0.80566
3.0165	7.04956
3.017	1.40991
3.0175	4.73328
3.018	7.15027
3.0185	-1.2085
3.019	5.94177
3.0195	8.7616
3.02	2.01416
3.0205	11.38
3.021	6.04248
3.0215	4.93469
3.022	7.85522
3.0225	8.05664
3.023	5.63965
3.0235	8.25806
3.024	4.33044
3.0245	10.27222
3.025	11.98425
3.0255	12.89062
3.026	12.68921
3.0265	4.43115
3.027	2.81982
3.0275	9.86938
3.028	8.66089
3.0285	8.25806
3.029	5.84106
3.0295	12.89062
3.03	10.47363
3.0305	7.04956
3.031	4.53186
3.0315	6.04248
3.032	9.56726
3.0325	13.09204
3.033	6.64673
3.0335	6.44531
3.034	6.54602
3.0345	7.35168
3.035	7.45239
3.0355	8.45947
3.036	12.28638
3.0365	5.33752
3.037	4.63257
3.0375	9.16443
3.038	4.43115
3.0385	5.33752
3.039	6.94885
3.0395	7.75452
3.04	6.2439
3.0405	5.33752
3.041	2.61841
3.0415	3.8269
3.042	1.2085
3.0425	7.25098
3.043	6.14319
3.0435	-1.00708
3.044	4.02832
3.0445	-0.20142
3.045	0.70496
3.0455	3.62549
3.046	4.73328
3.0465	4.93469
3.047	4.22974
3.0475	0.40283
3.048	7.35168
3.0485	6.54602
3.049	5.94177
3.0495	-3.02124
3.05	1.51062
3.0505	2.01416
3.051	1.91345
3.0515	3.8269
3.052	-3.62549
3.0525	3.22266
3.053	0.60425
3.0535	0.40283
3.054	1.10779
3.0545	7.65381
3.055	5.0354
3.0555	-0.20142
3.056	-3.12195
3.0565	-0.60425
3.057	2.61841
3.0575	0.80566
3.058	2.92053
3.0585	6.74744
3.059	5.13611
3.0595	2.61841
3.06	2.21558
3.0605	1.51062
3.061	-0.30212
3.0615	2.41699
3.062	4.63257
3.0625	3.8269
3.063	-0.10071
3.0635	-2.11487
3.064	1.2085
3.0645	0
3.065	-0.70496
3.0655	0.80566
3.066	7.15027
3.0665	4.33044
3.067	1.61133
3.0675	0.20142
3.068	-1.51062
3.0685	5.84106
3.069	6.04248
3.0695	5.23682
3.07	3.62549
3.0705	3.12195
3.071	-3.7262
3.0715	1.91345
3.072	7.04956
3.0725	9.36584
3.073	4.02832
3.0735	5.0354
3.074	9.86938
3.0745	8.15735
3.075	0.30212
3.0755	1.2085
3.076	6.3446
3.0765	7.15027
3.077	4.63257
3.0775	7.15027
3.078	3.02124
3.0785	4.43115
3.079	-2.21558
3.0795	2.61841
3.08	7.65381
3.0805	10.17151
3.081	6.2439
3.0815	8.25806
3.082	6.3446
3.0825	11.2793
3.083	8.15735
3.0835	5.84106
3.084	7.35168
3.0845	6.74744
3.085	5.23682
3.0855	8.05664
3.086	8.05664
3.0865	11.07788
3.087	7.45239
3.0875	4.33044
3.088	7.25098
3.0885	6.2439
3.089	9.36584
3.0895	3.52478
3.09	5.63965
3.0905	5.13611
3.091	5.74036
3.0915	4.43115
3.092	3.22266
3.0925	2.81982
3.093	7.35168
3.0935	2.01416
3.094	1.3092
3.0945	2.31628
3.095	6.04248
3.0955	4.02832
3.096	7.35168
3.0965	3.7262
3.097	1.51062
3.0975	2.61841
3.098	5.74036
3.0985	4.22974
3.099	4.83398
3.0995	7.65381
3.1	2.01416
3.1005	7.25098
3.101	6.2439
3.1015	6.3446
3.102	5.94177
3.1025	7.75452
3.103	7.5531
3.1035	4.43115
3.104	1.2085
3.1045	3.8269
3.105	5.84106
3.1055	5.43823
3.106	3.7262
3.1065	1.51062
3.107	7.75452
3.1075	5.33752
3.108	3.02124
3.1085	8.35876
3.109	1.3092
3.1095	4.33044
3.11	2.81982
3.1105	-0.90637
3.111	-0.60425
3.1115	4.63257
3.112	-1.91345
3.1125	-2.01416
3.113	0.40283
3.1135	2.61841
3.114	1.2085
3.1145	0.60425
3.115	-1.10779
3.1155	4.63257
3.116	3.02124
3.1165	5.94177
3.117	3.32336
3.1175	2.5177
3.118	7.5531
3.1185	10.77576
3.119	5.43823
3.1195	6.14319
3.12	7.5531
3.1205	6.2439
3.121	8.66089
3.1215	5.23682
3.122	8.25806
3.1225	5.63965
3.123	7.35168
3.1235	1.2085
3.124	2.81982
3.1245	7.85522
3.125	8.35876
3.1255	7.15027
3.126	7.85522
3.1265	5.53894
3.127	3.92761
3.1275	2.5177
3.128	7.35168
3.1285	2.01416
3.129	6.44531
3.1295	7.75452
3.13	9.16443
3.1305	5.33752
3.131	5.94177
3.1315	1.61133
3.132	2.81982
3.1325	3.42407
3.133	1.81274
3.1335	2.31628
3.134	4.73328
3.1345	8.35876
3.135	0.20142
3.1355	5.94177
3.136	6.64673
3.1365	8.25806
3.137	0
3.1375	7.35168
3.138	7.25098
3.1385	11.38
3.139	8.45947
3.1395	9.86938
3.14	5.0354
3.1405	8.96301
3.141	9.46655
3.1415	10.17151
3.142	8.96301
3.1425	6.94885
3.143	6.14319
3.1435	7.04956
3.144	6.64673
3.1445	6.2439
3.145	1.71204
3.1455	3.12195
3.146	8.15735
3.1465	2.41699
3.147	3.62549
3.1475	2.11487
3.148	4.93469
3.1485	10.67505
3.149	2.71912
3.1495	9.97009
3.15	4.93469
3.1505	4.83398
3.151	8.7616
3.1515	0.90637
3.152	9.36584
3.1525	8.96301
3.153	3.12195
3.1535	0.30212
3.154	-2.01416
3.1545	2.5177
3.155	7.5531
3.1555	6.44531
3.156	9.76868
3.1565	7.85522
3.157	7.25098
3.1575	7.5531
3.158	1.81274
3.1585	5.53894
3.159	8.96301
3.1595	3.52478
3.16	5.33752
3.1605	3.12195
3.161	5.13611
3.1615	5.63965
3.162	6.44531
3.1625	11.2793
3.163	11.48071
3.1635	8.35876
3.164	4.33044
3.1645	7.85522
3.165	5.84106
3.1655	11.38
3.166	14.50195
3.1665	16.51611
3.167	10.87646
3.1675	15.91187
3.168	8.8623
3.1685	7.95593
3.169	4.02832
3.1695	10.0708
3.17	9.16443
3.1705	4.63257
3.171	8.7616
3.1715	10.0708
3.172	5.84106
3.1725	7.75452
3.173	5.13611
3.1735	1.10779
3.174	5.13611
3.1745	9.86938
3.175	0
3.1755	3.7262
3.176	3.8269
3.1765	5.53894
3.177	6.84814
3.1775	11.38
3.178	6.74744
3.1785	5.84106
3.179	10.67505
3.1795	10.47363
3.18	9.86938
3.1805	13.29346
3.181	6.74744
3.1815	6.14319
3.182	6.64673
3.1825	5.94177
3.183	8.96301
3.1835	1.40991
3.184	1.91345
3.1845	-2.31628
3.185	3.12195
3.1855	1.71204
3.186	2.92053
3.1865	1.71204
3.187	-5.13611
3.1875	-5.13611
3.188	-3.42407
3.1885	-8.7616
3.189	-5.23682
3.1895	-12.5885
3.19	-9.97009
3.1905	-10.97717
3.191	-9.26514
3.1915	-9.76868
3.192	-10.57434
3.1925	-14.60266
3.193	-14.19983
3.1935	-11.98425
3.194	-9.66797
3.1945	-11.88354
3.195	-8.96301
3.1955	-5.23682
3.196	-4.73328
3.1965	-8.56018
3.197	-3.42407
3.1975	1.2085
3.198	-4.22974
3.1985	-0.30212
3.199	2.92053
3.1995	2.31628
3.2	0
3.2005	3.62549
3.201	3.12195
3.2015	4.83398
3.202	1.51062
3.2025	3.92761
3.203	3.12195
3.2035	9.26514
3.204	6.54602
3.2045	-1.40991
3.205	3.32336
3.2055	-1.00708
3.206	6.74744
3.2065	2.61841
3.207	10.17151
3.2075	7.95593
3.208	5.43823
3.2085	10.77576
3.209	7.85522
3.2095	10.0708
3.21	9.16443
3.2105	12.68921
3.211	12.28638
3.2115	15.1062
3.212	13.99841
3.2125	15.71045
3.213	11.98425
3.2135	8.56018
3.214	10.0708
3.2145	11.88354
3.215	12.28638
3.2155	8.8623
3.216	10.37292
3.2165	9.06372
3.217	16.11328
3.2175	12.68921
3.218	14.60266
3.2185	15.00549
3.219	8.8623
3.2195	12.38708
3.22	9.16443
3.2205	10.77576
3.221	9.36584
3.2215	9.26514
3.222	10.97717
3.2225	9.16443
3.223	11.2793
3.2235	14.90479
3.224	16.71753
3.2245	15.40833
3.225	17.82532
3.2255	12.99133
3.226	14.70337
3.2265	19.63806
3.227	17.82532
3.2275	15.1062
3.228	15.00549
3.2285	12.78992
3.229	7.75452
3.2295	7.5531
3.23	6.44531
3.2305	9.56726
3.231	6.44531
3.2315	8.05664
3.232	8.8623
3.2325	7.04956
3.233	13.09204
3.2335	6.14319
3.234	6.54602
3.2345	5.23682
3.235	7.75452
3.2355	-1.81274
3.236	2.92053
3.2365	7.35168
3.237	2.31628
3.2375	5.74036
3.238	11.17859
3.2385	6.74744
3.239	7.25098
3.2395	7.25098
3.24	3.12195
3.2405	3.62549
3.241	2.92053
3.2415	3.7262
3.242	4.83398
3.2425	6.64673
3.243	9.16443
3.2435	6.94885
3.244	2.31628
3.2445	8.56018
3.245	8.25806
3.2455	9.16443
3.246	7.95593
3.2465	12.18567
3.247	10.47363
3.2475	5.43823
3.248	6.74744
3.2485	6.44531
3.249	4.43115
3.2495	7.75452
3.25	6.04248
3.2505	6.04248
3.251	8.05664
3.2515	6.94885
3.252	10.0708
3.2525	4.12903
3.253	1.81274
3.2535	3.32336
3.254	6.74744
3.2545	2.21558
3.255	3.42407
3.2555	6.94885
3.256	4.22974
3.2565	5.74036
3.257	3.7262
3.2575	-1.00708
3.258	4.33044
3.2585	-0.80566
3.259	2.11487
3.2595	5.84106
3.26	4.12903
3.2605	5.23682
3.261	3.92761
3.2615	2.01416
3.262	0.50354
3.2625	5.63965
3.263	0.70496
3.2635	4.63257
3.264	5.53894
3.2645	6.74744
3.265	4.33044
3.2655	5.43823
3.266	6.14319
3.2665	0
3.267	-0.50354
3.2675	1.61133
3.268	2.61841
3.2685	8.15735
3.269	5.43823
3.2695	2.92053
3.27	-0.10071
3.2705	2.31628
3.271	4.63257
3.2715	5.63965
3.272	3.22266
3.2725	5.33752
3.273	8.45947
3.2735	6.54602
3.274	7.25098
3.2745	7.5531
3.275	6.44531
3.2755	7.25098
3.276	7.95593
3.2765	9.16443
3.277	6.64673
3.2775	8.56018
3.278	11.68213
3.2785	14.90479
3.279	10.47363
3.2795	8.25806
3.28	8.8623
3.2805	13.59558
3.281	11.68213
3.2815	13.19275
3.282	12.89062
3.2825	17.52319
3.283	15.30762
3.2835	10.67505
3.284	12.78992
3.2845	10.17151
3.285	7.15027
3.2855	8.35876
3.286	10.97717
3.2865	11.78284
3.287	9.66797
3.2875	7.65381
3.288	4.02832
3.2885	5.43823
3.289	6.14319
3.2895	5.23682
3.29	14.70337
3.2905	11.17859
3.291	9.97009
3.2915	8.66089
3.292	7.95593
3.2925	9.86938
3.293	11.78284
3.2935	10.87646
3.294	10.77576
3.2945	7.95593
3.295	11.2793
3.2955	11.98425
3.296	11.68213
3.2965	4.12903
3.297	8.8623
3.2975	10.57434
3.298	5.53894
3.2985	7.95593
3.299	10.77576
3.2995	8.96301
3.3	3.52478
3.3005	10.27222
3.301	5.33752
3.3015	4.53186
3.302	9.26514
3.3025	6.2439
3.303	12.18567
3.3035	5.33752
3.304	9.76868
3.3045	17.82532
3.305	8.96301
3.3055	10.77576
3.306	7.75452
3.3065	-1.00708
3.307	0.90637
3.3075	3.92761
3.308	0.90637
3.3085	-1.40991
3.309	-4.33044
3.3095	5.74036
3.31	8.7616
3.3105	-1.10779
3.311	6.74744
3.3115	1.91345
3.312	5.23682
3.3125	6.54602
3.313	5.53894
3.3135	4.93469
3.314	6.14319
3.3145	4.12903
3.315	3.22266
3.3155	7.65381
3.316	10.0708
3.3165	10.27222
3.317	-2.92053
3.3175	8.15735
3.318	8.66089
3.3185	9.16443
3.319	11.07788
3.3195	9.97009
3.32	2.41699
3.3205	4.22974
3.321	10.37292
3.3215	5.84106
3.322	5.0354
3.3225	2.61841
3.323	4.33044
3.3235	4.33044
3.324	9.76868
3.3245	9.16443
3.325	8.15735
3.3255	9.97009
3.326	6.2439
3.3265	10.37292
3.327	4.83398
3.3275	7.04956
3.328	7.35168
3.3285	3.12195
3.329	5.84106
3.3295	2.5177
3.33	2.01416
3.3305	7.65381
3.331	-2.61841
3.3315	1.81274
3.332	1.40991
3.3325	0.70496
3.333	3.52478
3.3335	1.10779
3.334	3.22266
3.3345	3.12195
3.335	3.8269
3.3355	10.37292
3.336	3.32336
3.3365	7.04956
3.337	3.02124
3.3375	-1.00708
3.338	-1.10779
3.3385	2.5177
3.339	4.93469
3.3395	2.5177
3.34	5.63965
3.3405	6.74744
3.341	9.06372
3.3415	1.00708
3.342	1.81274
3.3425	1.3092
3.343	3.52478
3.3435	3.62549
3.344	7.45239
3.3445	7.75452
3.345	4.12903
3.3455	7.15027
3.346	2.21558
3.3465	6.2439
3.347	5.43823
3.3475	0.90637
3.348	8.35876
3.3485	4.93469
3.349	4.63257
3.3495	7.35168
3.35	6.64673
3.3505	7.25098
3.351	-1.40991
3.3515	0.40283
3.352	7.45239
3.3525	6.54602
3.353	3.7262
3.3535	-1.71204
3.354	-4.22974
3.3545	3.7262
3.355	-0.80566
3.3555	-0.20142
3.356	2.11487
3.3565	5.43823
3.357	2.92053
3.3575	4.63257
3.358	4.63257
3.3585	-0.50354
3.359	-0.10071
3.3595	1.40991
3.36	10.27222
3.3605	12.18567
3.361	4.63257
3.3615	2.11487
3.362	1.71204
3.3625	2.81982
3.363	-0.90637
3.3635	-2.21558
3.364	9.26514
3.3645	5.84106
3.365	5.0354
3.3655	4.02832
3.366	2.92053
3.3665	-0.30212
3.367	2.11487
3.3675	3.12195
3.368	1.81274
3.3685	3.42407
3.369	-2.01416
3.3695	3.02124
3.37	3.8269
3.3705	1.51062
3.371	4.02832
3.3715	7.85522
3.372	3.12195
3.3725	9.86938
3.373	9.46655
3.3735	8.96301
3.374	0.40283
3.3745	4.63257
3.375	3.7262
3.3755	2.92053
3.376	1.61133
3.3765	8.45947
3.377	5.33752
3.3775	7.65381
3.378	-0.70496
3.3785	3.12195
3.379	0.90637
3.3795	0.40283
3.38	4.83398
3.3805	0.50354
3.381	-2.41699
3.3815	2.61841
3.382	4.73328
3.3825	4.63257
3.383	4.12903
3.3835	3.8269
3.384	5.13611
3.3845	1.71204
3.385	2.5177
3.3855	6.3446
3.386	7.25098
3.3865	4.33044
3.387	2.21558
3.3875	6.84814
3.388	8.45947
3.3885	6.04248
3.389	6.94885
3.3895	7.35168
3.39	4.53186
3.3905	4.53186
3.391	4.53186
3.3915	6.3446
3.392	9.56726
3.3925	3.8269
3.393	8.15735
3.3935	3.52478
3.394	4.02832
3.3945	3.42407
3.395	8.8623
3.3955	8.15735
3.396	7.25098
3.3965	11.78284
3.397	5.33752
3.3975	3.32336
3.398	3.42407
3.3985	-2.81982
3.399	7.65381
3.3995	0.40283
3.4	6.44531
3.4005	4.12903
3.401	6.2439
3.4015	3.02124
3.402	-1.10779
3.4025	5.53894
3.403	0.50354
3.4035	5.63965
3.404	0.30212
3.4045	3.32336
3.405	5.63965
3.4055	9.97009
3.406	4.93469
3.4065	5.13611
3.407	4.33044
3.4075	-2.01416
3.408	2.01416
3.4085	7.15027
3.409	7.35168
3.4095	6.3446
3.41	-0.30212
3.4105	-3.7262
3.411	6.2439
3.4115	3.32336
3.412	8.8623
3.4125	4.22974
3.413	0.30212
3.4135	4.22974
3.414	1.91345
3.4145	-0.40283
3.415	1.3092
3.4155	2.31628
3.416	6.44531
3.4165	4.63257
3.417	5.13611
3.4175	2.5177
3.418	3.52478
3.4185	6.54602
3.419	6.64673
3.4195	9.66797
3.42	10.67505
3.4205	0.50354
3.421	5.33752
3.4215	5.74036
3.422	6.3446
3.4225	10.87646
3.423	11.58142
3.4235	10.17151
3.424	8.96301
3.4245	7.04956
3.425	8.7616
3.4255	7.95593
3.426	9.16443
3.4265	6.64673
3.427	9.26514
3.4275	5.94177
3.428	8.15735
3.4285	9.36584
3.429	6.04248
3.4295	7.65381
3.43	4.93469
3.4305	4.43115
3.431	4.22974
3.4315	2.71912
3.432	5.74036
3.4325	9.16443
3.433	5.84106
3.4335	2.21558
3.434	1.40991
3.4345	4.53186
3.435	-0.60425
3.4355	1.71204
3.436	3.92761
3.4365	2.61841
3.437	7.35168
3.4375	1.2085
3.438	6.74744
3.4385	6.94885
3.439	6.04248
3.4395	9.16443
3.44	6.54602
3.4405	12.99133
3.441	18.73169
3.4415	9.46655
3.442	14.30054
3.4425	9.36584
3.443	3.32336
3.4435	9.66797
3.444	10.47363
3.4445	5.74036
3.445	9.06372
3.4455	5.13611
3.446	3.52478
3.4465	2.92053
3.447	3.12195
3.4475	7.04956
3.448	1.10779
3.4485	8.15735
3.449	9.56726
3.4495	7.04956
3.45	9.66797
3.4505	6.04248
3.451	8.7616
3.4515	2.71912
3.452	4.83398
3.4525	11.38
3.453	1.51062
3.4535	4.33044
3.454	5.0354
3.4545	6.44531
3.455	5.74036
3.4555	12.08496
3.456	10.67505
3.4565	7.65381
3.457	3.8269
3.4575	5.84106
3.458	2.11487
3.4585	4.73328
3.459	4.33044
3.4595	5.23682
3.46	7.65381
3.4605	5.23682
3.461	8.15735
3.4615	1.61133
3.462	2.21558
3.4625	5.53894
3.463	4.93469
3.4635	3.42407
3.464	8.45947
3.4645	1.61133
3.465	4.43115
3.4655	-0.20142
3.466	3.22266
3.4665	-1.71204
3.467	-0.20142
3.4675	-0.90637
3.468	0.40283
3.4685	1.51062
3.469	3.52478
3.4695	6.3446
3.47	10.0708
3.4705	11.38
3.471	8.05664
3.4715	8.05664
3.472	5.74036
3.4725	9.26514
3.473	10.17151
3.4735	3.42407
3.474	10.0708
3.4745	9.97009
3.475	9.46655
3.4755	10.17151
3.476	12.08496
3.4765	6.04248
3.477	6.14319
3.4775	5.94177
3.478	9.76868
3.4785	8.45947
3.479	8.45947
3.4795	10.17151
3.48	9.86938
3.4805	10.0708
3.481	8.8623
3.4815	12.99133
3.482	13.89771
3.4825	6.64673
3.483	10.37292
3.4835	2.41699
3.484	8.96301
3.4845	10.67505
3.485	6.84814
3.4855	1.61133
3.486	8.35876
3.4865	2.11487
3.487	6.14319
3.4875	8.35876
3.488	5.13611
3.4885	7.15027
3.489	7.35168
3.4895	8.35876
3.49	4.73328
3.4905	5.23682
3.491	13.09204
3.4915	10.17151
3.492	14.60266
3.4925	7.25098
3.493	7.04956
3.4935	9.06372
3.494	11.17859
3.4945	8.35876
3.495	5.74036
3.4955	-0.20142
3.496	0
3.4965	9.86938
3.497	8.45947
3.4975	6.94885
3.498	3.52478
3.4985	5.33752
3.499	7.65381
3.4995	8.45947
3.5	3.02124
3.5005	7.04956
3.501	3.8269
3.5015	8.35876
3.502	9.06372
3.5025	4.73328
3.503	7.04956
3.5035	2.41699
3.504	3.32336
3.5045	2.01416
3.505	5.84106
3.5055	7.25098
3.506	6.64673
3.5065	8.56018
3.507	5.33752
3.5075	4.43115
3.508	1.51062
3.5085	6.74744
3.509	7.45239
3.5095	7.65381
3.51	6.74744
3.5105	8.8623
3.511	11.98425
3.5115	6.3446
3.512	5.53894
3.5125	7.95593
3.513	4.53186
3.5135	0.70496
3.514	1.61133
3.5145	6.04248
3.515	4.02832
3.5155	6.04248
3.516	7.15027
3.5165	8.05664
3.517	1.00708
3.5175	8.8623
3.518	7.85522
3.5185	8.7616
3.519	5.13611
3.5195	11.78284
3.52	12.18567
3.5205	6.44531
3.521	14.50195
3.5215	10.47363
3.522	8.7616
3.5225	6.3446
3.523	7.35168
3.5235	9.36584
3.524	10.27222
3.5245	6.3446
3.525	9.66797
3.5255	11.17859
3.526	10.97717
3.5265	7.45239
3.527	6.2439
3.5275	5.23682
3.528	6.04248
3.5285	7.5531
3.529	12.18567
3.5295	5.84106
3.53	3.12195
3.5305	2.71912
3.531	-0.50354
3.5315	0.90637
3.532	2.81982
3.5325	0.60425
3.533	-4.12903
3.5335	-3.62549
3.534	2.81982
3.5345	5.33752
3.535	2.01416
3.5355	3.42407
3.536	1.81274
3.5365	1.00708
3.537	2.31628
3.5375	3.22266
3.538	6.2439
3.5385	6.64673
3.539	1.40991
3.5395	0.60425
3.54	7.95593
3.5405	2.41699
3.541	3.7262
3.5415	5.33752
3.542	8.7616
3.5425	9.66797
3.543	9.26514
3.5435	9.16443
3.544	13.09204
3.5445	8.8623
3.545	2.31628
3.5455	5.74036
3.546	5.43823
3.5465	5.63965
3.547	2.5177
3.5475	6.94885
3.548	5.43823
3.5485	11.07788
3.549	8.8623
3.5495	8.96301
3.55	15.40833
3.5505	9.46655
3.551	9.86938
3.5515	8.05664
3.552	2.81982
3.5525	5.43823
3.553	9.36584
3.5535	6.44531
3.554	3.8269
3.5545	5.53894
3.555	9.26514
3.5555	7.5531
3.556	4.12903
3.5565	7.95593
3.557	6.44531
3.5575	3.32336
3.558	6.14319
3.5585	7.04956
3.559	1.00708
3.5595	2.41699
3.56	1.10779
3.5605	4.22974
3.561	8.56018
3.5615	6.04248
3.562	6.3446
3.5625	4.43115
3.563	3.92761
3.5635	4.43115
3.564	7.15027
3.5645	2.21558
3.565	10.97717
3.5655	-1.40991
3.566	1.61133
3.5665	3.8269
3.567	-0.40283
3.5675	2.11487
3.568	-1.3092
3.5685	5.84106
3.569	4.33044
3.5695	2.71912
3.57	0.30212
3.5705	-0.40283
3.571	2.01416
3.5715	4.12903
3.572	2.5177
3.5725	2.61841
3.573	0.40283
3.5735	0.60425
3.574	5.94177
3.5745	1.51062
3.575	1.91345
3.5755	4.63257
3.576	3.42407
3.5765	3.32336
3.577	9.97009
3.5775	7.35168
3.578	8.66089
3.5785	5.23682
3.579	7.75452
3.5795	3.92761
3.58	9.26514
3.5805	5.74036
3.581	5.33752
3.5815	-2.92053
3.582	1.40991
3.5825	-0.30212
3.583	0.70496
3.5835	4.43115
3.584	6.84814
3.5845	5.23682
3.585	3.62549
3.5855	9.66797
3.586	3.22266
3.5865	4.53186
3.587	4.73328
3.5875	1.61133
3.588	-2.11487
3.5885	9.06372
3.589	10.17151
3.5895	9.97009
3.59	10.47363
3.5905	9.86938
3.591	9.26514
3.5915	2.61841
3.592	3.62549
3.5925	9.06372
3.593	9.66797
3.5935	3.12195
3.594	4.02832
3.5945	7.25098
3.595	7.65381
3.5955	5.53894
3.596	11.07788
3.5965	11.07788
3.597	5.33752
3.5975	7.35168
3.598	3.7262
3.5985	8.7616
3.599	5.84106
3.5995	7.25098
3.6	7.75452
3.6005	9.56726
3.601	7.45239
3.6015	10.87646
3.602	5.53894
3.6025	4.12903
3.603	2.21558
3.6035	3.8269
3.604	7.35168
3.6045	3.92761
3.605	4.02832
3.6055	3.7262
3.606	2.5177
3.6065	5.53894
3.607	2.71912
3.6075	5.94177
3.608	8.96301
3.6085	10.57434
3.609	2.71912
3.6095	6.84814
3.61	8.35876
3.6105	4.33044
3.611	5.63965
3.6115	6.64673
3.612	8.05664
3.6125	2.81982
3.613	1.61133
3.6135	6.14319
3.614	6.84814
3.6145	3.7262
3.615	4.22974
3.6155	2.61841
3.616	2.61841
3.6165	7.75452
3.617	1.51062
3.6175	3.12195
3.618	7.25098
3.6185	8.66089
3.619	7.75452
3.6195	9.56726
3.62	1.51062
3.6205	6.14319
3.621	10.67505
3.6215	5.94177
3.622	9.97009
3.6225	6.74744
3.623	3.22266
3.6235	2.92053
3.624	3.62549
3.6245	5.33752
3.625	5.74036
3.6255	6.64673
3.626	10.17151
3.6265	8.05664
3.627	6.44531
3.6275	10.0708
3.628	6.64673
3.6285	11.17859
3.629	4.83398
3.6295	7.15027
3.63	8.35876
3.6305	4.73328
3.631	4.43115
3.6315	8.35876
3.632	2.5177
3.6325	4.02832
3.633	-1.00708
3.6335	-1.51062
3.634	-1.81274
3.6345	5.53894
3.635	-0.40283
3.6355	4.63257
3.636	4.02832
3.6365	5.63965
3.637	3.32336
3.6375	3.92761
3.638	6.74744
3.6385	4.02832
3.639	2.61841
3.6395	1.91345
3.64	0.40283
3.6405	-0.70496
3.641	5.13611
3.6415	5.23682
3.642	4.93469
3.6425	3.32336
3.643	1.00708
3.6435	-4.53186
3.644	6.14319
3.6445	2.61841
3.645	2.01416
3.6455	5.84106
3.646	6.94885
3.6465	4.63257
3.647	4.93469
3.6475	5.0354
3.648	2.31628
3.6485	-1.91345
3.649	7.25098
3.6495	11.17859
3.65	10.17151
3.6505	4.83398
3.651	6.14319
3.6515	6.44531
3.652	5.13611
3.6525	7.45239
3.653	10.0708
3.6535	3.8269
3.654	6.94885
3.6545	2.01416
3.655	4.53186
3.6555	2.01416
3.656	7.65381
3.6565	5.23682
3.657	8.8623
3.6575	0.10071
3.658	6.54602
3.6585	8.56018
3.659	7.85522
3.6595	6.74744
3.66	4.93469
3.6605	5.33752
3.661	8.7616
3.6615	4.63257
3.662	4.53186
3.6625	5.23682
3.663	3.92761
3.6635	-2.21558
3.664	4.53186
3.6645	8.35876
3.665	5.53894
3.6655	7.65381
3.666	9.86938
3.6665	9.16443
3.667	6.94885
3.6675	4.93469
3.668	6.64673
3.6685	3.02124
3.669	8.96301
3.6695	6.94885
3.67	1.3092
3.6705	-0.90637
3.671	3.92761
3.6715	5.0354
3.672	4.12903
3.6725	7.65381
3.673	7.75452
3.6735	4.63257
3.674	2.41699
3.6745	2.81982
3.675	0.30212
3.6755	4.93469
3.676	4.93469
3.6765	4.33044
3.677	4.22974
3.6775	9.56726
3.678	6.94885
3.6785	3.32336
3.679	1.91345
3.6795	9.16443
3.68	5.84106
3.6805	7.95593
3.681	6.44531
3.6815	6.84814
3.682	4.53186
3.6825	11.78284
3.683	2.01416
3.6835	3.52478
3.684	3.52478
3.6845	3.22266
3.685	2.71912
3.6855	-3.92761
3.686	0.30212
3.6865	1.2085
3.687	4.33044
3.6875	4.93469
3.688	3.02124
3.6885	1.71204
3.689	-0.10071
3.6895	6.2439
3.69	8.96301
3.6905	4.22974
3.691	8.25806
3.6915	3.32336
3.692	3.7262
3.6925	4.12903
3.693	2.01416
3.6935	2.71912
3.694	7.04956
3.6945	7.95593
3.695	3.32336
3.6955	1.2085
3.696	5.33752
3.6965	10.37292
3.697	0.90637
3.6975	3.8269
3.698	3.7262
3.6985	2.92053
3.699	-2.41699
3.6995	3.8269
3.7	1.2085
3.7005	2.31628
3.701	3.52478
3.7015	-0.20142
3.702	7.35168
3.7025	3.02124
3.703	4.33044
3.7035	3.32336
3.704	0.30212
3.7045	-0.10071
3.705	1.91345
3.7055	0.80566
3.706	3.02124
3.7065	2.92053
3.707	1.00708
3.7075	1.71204
3.708	6.94885
3.7085	5.84106
3.709	1.61133
3.7095	2.01416
3.71	5.84106
3.7105	1.10779
3.711	2.61841
3.7115	-0.90637
3.712	2.92053
3.7125	4.02832
3.713	11.2793
3.7135	3.42407
3.714	8.7616
3.7145	8.8623
3.715	14.60266
3.7155	5.94177
3.716	3.22266
3.7165	7.5531
3.717	7.75452
3.7175	4.63257
3.718	3.7262
3.7185	4.43115
3.719	6.44531
3.7195	2.21558
3.72	5.23682
3.7205	5.94177
3.721	3.62549
3.7215	9.36584
3.722	0.80566
3.7225	4.63257
3.723	5.13611
3.7235	1.71204
3.724	0.30212
3.7245	4.22974
3.725	8.96301
3.7255	7.25098
3.726	1.61133
3.7265	4.12903
3.727	3.62549
3.7275	4.43115
3.728	13.69629
3.7285	7.45239
3.729	7.65381
3.7295	1.2085
3.73	5.84106
3.7305	7.45239
3.731	5.63965
3.7315	4.63257
3.732	9.76868
3.7325	9.06372
3.733	6.14319
3.7335	9.16443
3.734	8.25806
3.7345	9.16443
3.735	6.94885
3.7355	8.66089
3.736	3.12195
3.7365	7.85522
3.737	9.16443
3.7375	7.35168
3.738	8.05664
3.7385	7.95593
3.739	4.22974
3.7395	6.74744
3.74	6.94885
3.7405	7.45239
3.741	8.25806
3.7415	17.01965
3.742	12.68921
3.7425	11.2793
3.743	7.85522
3.7435	6.44531
3.744	4.33044
3.7445	9.66797
3.745	6.44531
3.7455	11.88354
3.746	6.74744
3.7465	12.89062
3.747	10.77576
3.7475	6.74744
3.748	6.64673
3.7485	13.89771
3.749	13.39417
3.7495	13.49487
3.75	9.86938
3.7505	7.65381
3.751	14.60266
3.7515	11.17859
3.752	10.27222
3.7525	9.26514
3.753	6.3446
3.7535	3.22266
3.754	6.44531
3.7545	8.8623
3.755	6.64673
3.7555	7.85522
3.756	9.97009
3.7565	9.86938
3.757	11.17859
3.7575	4.63257
3.758	8.15735
3.7585	4.12903
3.759	6.04248
3.7595	6.44531
3.76	5.23682
3.7605	11.88354
3.761	6.54602
3.7615	7.75452
3.762	9.76868
3.7625	5.33752
3.763	9.46655
3.7635	6.44531
3.764	5.43823
3.7645	10.17151
3.765	9.06372
3.7655	10.47363
3.766	11.17859
3.7665	13.19275
3.767	15.50903
3.7675	13.49487
3.768	8.35876
3.7685	9.76868
3.769	7.95593
3.7695	6.3446
3.77	10.77576
3.7705	7.04956
3.771	10.47363
3.7715	6.44531
3.772	7.65381
3.7725	8.8623
3.773	5.13611
3.7735	2.01416
3.774	3.12195
3.7745	4.33044
3.775	7.25098
3.7755	10.87646
3.776	10.17151
3.7765	10.87646
3.777	5.53894
3.7775	1.81274
3.778	6.94885
3.7785	8.35876
3.779	1.10779
3.7795	2.11487
3.78	2.5177
3.7805	-0.60425
3.781	7.15027
3.7815	5.63965
3.782	3.7262
3.7825	8.96301
3.783	10.57434
3.7835	8.35876
3.784	10.27222
3.7845	7.45239
3.785	4.53186
3.7855	3.22266
3.786	3.62549
3.7865	9.36584
3.787	11.17859
3.7875	4.93469
3.788	3.62549
3.7885	2.21558
3.789	7.75452
3.7895	5.13611
3.79	7.04956
3.7905	7.04956
3.791	5.94177
3.7915	8.7616
3.792	4.63257
3.7925	5.13611
3.793	5.94177
3.7935	5.74036
3.794	3.32336
3.7945	1.40991
3.795	1.51062
3.7955	6.04248
3.796	-1.51062
3.7965	4.53186
3.797	8.15735
3.7975	-2.21558
3.798	2.41699
3.7985	2.81982
3.799	4.93469
3.7995	4.12903
3.8	5.23682
3.8005	4.83398
3.801	4.12903
3.8015	2.71912
3.802	4.53186
3.8025	5.74036
3.803	5.84106
3.8035	4.83398
3.804	-4.73328
3.8045	1.81274
3.805	8.05664
3.8055	1.81274
3.806	5.53894
3.8065	5.94177
3.807	1.71204
3.8075	5.84106
3.808	0.70496
3.8085	0.90637
3.809	7.35168
3.8095	4.93469
3.81	7.15027
3.8105	9.46655
3.811	4.63257
3.8115	5.13611
3.812	10.27222
3.8125	10.47363
3.813	11.07788
3.8135	9.97009
3.814	10.37292
3.8145	9.26514
3.815	7.25098
3.8155	7.85522
3.816	11.68213
3.8165	7.85522
3.817	13.797
3.8175	17.22107
3.818	13.59558
3.8185	6.64673
3.819	8.66089
3.8195	7.25098
3.82	4.12903
3.8205	7.85522
3.821	8.96301
3.8215	5.13611
3.822	8.15735
3.8225	7.45239
3.823	5.63965
3.8235	6.3446
3.824	5.13611
3.8245	1.3092
3.825	7.95593
3.8255	8.25806
3.826	4.83398
3.8265	4.02832
3.827	0.70496
3.8275	8.15735
3.828	10.37292
3.8285	9.46655
3.829	2.31628
3.8295	3.7262
3.83	12.48779
3.8305	10.97717
3.831	14.50195
3.8315	7.65381
3.832	8.56018
3.8325	5.74036
3.833	10.17151
3.8335	7.65381
3.834	7.75452
3.8345	9.16443
3.835	6.84814
3.8355	7.35168
3.836	4.83398
3.8365	6.44531
3.837	7.15027
3.8375	7.45239
3.838	8.56018
3.8385	6.14319
3.839	6.2439
3.8395	9.56726
3.84	4.93469
3.8405	6.84814
3.841	6.84814
3.8415	2.41699
3.842	3.92761
3.8425	6.2439
3.843	3.42407
3.8435	7.25098
3.844	10.27222
3.8445	7.65381
3.845	8.45947
3.8455	8.96301
3.846	8.05664
3.8465	12.99133
3.847	15.30762
3.8475	7.04956
3.848	9.66797
3.8485	5.13611
3.849	5.74036
3.8495	5.13611
3.85	0.70496
3.8505	9.16443
3.851	12.78992
3.8515	7.5531
3.852	10.87646
3.8525	8.7616
3.853	8.56018
3.8535	4.12903
3.854	6.04248
3.8545	5.23682
3.855	6.2439
3.8555	12.99133
3.856	12.08496
3.8565	11.78284
3.857	8.25806
3.8575	5.74036
3.858	7.45239
3.8585	5.63965
3.859	7.5531
3.8595	8.05664
3.86	5.23682
3.8605	3.42407
3.861	-3.92761
3.8615	4.33044
3.862	2.61841
3.8625	3.62549
3.863	2.11487
3.8635	1.3092
3.864	5.23682
3.8645	1.10779
3.865	-3.92761
3.8655	-2.92053
3.866	-2.81982
3.8665	-4.12903
3.867	-6.74744
3.8675	-5.94177
3.868	-10.97717
3.8685	-7.15027
3.869	-6.04248
3.8695	-9.56726
3.87	-5.53894
3.8705	-11.48071
3.871	-12.78992
3.8715	-10.87646
3.872	-8.8623
3.8725	-12.68921
3.873	-11.58142
3.8735	-15.1062
3.874	-12.89062
3.8745	-7.35168
3.875	-6.74744
3.8755	-10.77576
3.876	-3.32336
3.8765	-8.7616
3.877	-4.22974
3.8775	-5.74036
3.878	-0.20142
3.8785	-1.71204
3.879	1.61133
3.8795	2.21558
3.88	-0.20142
3.8805	1.61133
3.881	-0.50354
3.8815	-0.40283
3.882	7.15027
3.8825	4.83398
3.883	0
3.8835	6.64673
3.884	0.70496
3.8845	4.12903
3.885	2.5177
3.8855	10.87646
3.886	11.2793
3.8865	6.44531
3.887	8.25806
3.8875	14.80408
3.888	12.89062
3.8885	10.27222
3.889	13.39417
3.8895	6.84814
3.89	12.89062
3.8905	8.56018
3.891	12.08496
3.8915	9.16443
3.892	9.26514
3.8925	9.56726
3.893	8.96301
3.8935	5.33752
3.894	11.48071
3.8945	9.06372
3.895	5.84106
3.8955	7.75452
3.896	13.39417
3.8965	8.35876
3.897	12.18567
3.8975	11.48071
3.898	9.97009
3.8985	11.58142
3.899	7.5531
3.8995	7.35168
3.9	11.07788
3.9005	11.78284
3.901	4.33044
3.9015	8.05664
3.902	7.95593
3.9025	13.29346
3.903	13.89771
3.9035	9.16443
3.904	9.66797
3.9045	12.18567
3.905	5.63965
3.9055	10.27222
3.906	7.45239
3.9065	7.75452
3.907	3.12195
3.9075	6.84814
3.908	7.75452
3.9085	2.11487
3.909	0.30212
3.9095	2.41699
3.91	4.83398
3.9105	5.23682
3.911	4.43115
3.9115	5.33752
3.912	5.53894
3.9125	6.3446
3.913	5.33752
3.9135	8.05664
3.914	6.04248
3.9145	7.65381
3.915	13.39417
3.9155	15.81116
3.916	12.08496
3.9165	12.89062
3.917	10.37292
3.9175	11.58142
3.918	6.44531
3.9185	3.12195
3.919	6.54602
3.9195	7.65381
3.92	7.45239
3.9205	8.45947
3.921	8.56018
3.9215	9.16443
3.922	12.18567
3.9225	5.23682
3.923	5.43823
3.9235	4.63257
3.924	-0.20142
3.9245	8.45947
3.925	7.04956
3.9255	4.02832
3.926	4.43115
3.9265	7.85522
3.927	9.46655
3.9275	3.42407
3.928	2.11487
3.9285	7.35168
3.929	10.17151
3.9295	11.2793
3.93	8.56018
3.9305	3.32336
3.931	6.94885
3.9315	7.5531
3.932	8.96301
3.9325	3.32336
3.933	2.71912
3.9335	13.19275
3.934	8.96301
3.9345	3.62549
3.935	11.38
3.9355	6.64673
3.936	5.94177
3.9365	5.53894
3.937	7.95593
3.9375	6.04248
3.938	6.64673
3.9385	7.45239
3.939	4.53186
3.9395	7.25098
3.94	9.86938
3.9405	5.74036
3.941	6.94885
3.9415	8.96301
3.942	5.74036
3.9425	4.63257
3.943	8.66089
3.9435	7.35168
3.944	4.43115
3.9445	7.25098
3.945	4.22974
3.9455	5.0354
3.946	2.41699
3.9465	1.3092
3.947	5.43823
3.9475	-0.40283
3.948	3.92761
3.9485	2.41699
3.949	2.92053
3.9495	3.12195
3.95	1.61133
3.9505	7.35168
3.951	5.94177
3.9515	15.1062
3.952	10.67505
3.9525	7.85522
3.953	7.25098
3.9535	6.3446
3.954	9.16443
3.9545	10.17151
3.955	4.83398
3.9555	2.11487
3.956	7.04956
3.9565	6.94885
3.957	6.64673
3.9575	5.94177
3.958	3.7262
3.9585	4.22974
3.959	2.41699
3.9595	7.15027
3.96	7.35168
3.9605	8.05664
3.961	6.74744
3.9615	6.44531
3.962	5.43823
3.9625	1.00708
3.963	8.66089
3.9635	8.45947
3.964	9.46655
3.9645	10.57434
3.965	4.63257
3.9655	4.22974
3.966	8.8623
3.9665	2.71912
3.967	4.43115
3.9675	0.90637
3.968	1.81274
3.9685	2.81982
3.969	0.10071
3.9695	10.0708
3.97	1.40991
3.9705	1.3092
3.971	2.61841
3.9715	6.2439
3.972	9.26514
3.9725	6.74744
3.973	0.70496
3.9735	1.51062
3.974	-0.10071
3.9745	6.64673
3.975	4.53186
3.9755	9.06372
3.976	6.04248
3.9765	8.05664
3.977	1.3092
3.9775	4.12903
3.978	7.25098
3.9785	3.32336
3.979	4.63257
3.9795	6.14319
3.98	10.27222
3.9805	11.58142
3.981	9.26514
3.9815	7.35168
3.982	7.15027
3.9825	8.35876
3.983	8.05664
3.9835	5.84106
3.984	9.06372
3.9845	6.64673
3.985	7.65381
3.9855	9.76868
3.986	7.45239
3.9865	4.73328
3.987	5.33752
3.9875	9.06372
3.988	2.5177
3.9885	6.54602
3.989	6.44531
3.9895	1.71204
3.99	4.43115
3.9905	3.8269
3.991	9.16443
3.9915	13.49487
3.992	5.13611
3.9925	7.25098
3.993	4.02832
3.9935	5.43823
3.994	-0.20142
3.9945	1.2085
3.995	7.04956
3.9955	5.43823
3.996	-0.90637
3.9965	5.0354
3.997	5.74036
3.9975	2.01416
3.998	7.45239
3.9985	3.22266
3.999	4.12903
3.9995	1.00708
4	-1.91345
4.0005	-0.50354
4.001	-1.81274
4.0015	1.2085
4.002	6.74744
4.0025	9.97009
4.003	8.96301
4.0035	7.45239
4.004	9.16443
4.0045	5.13611
4.005	4.33044
4.0055	7.5531
4.006	4.93469
4.0065	9.06372
4.007	9.06372
4.0075	9.16443
4.008	8.56018
4.0085	8.96301
4.009	4.43115
4.0095	10.27222
4.01	12.5885
4.0105	7.45239
4.011	7.65381
4.0115	9.26514
4.012	5.63965
4.0125	5.13611
4.013	6.14319
4.0135	0.40283
4.014	6.04248
4.0145	5.13611
4.015	10.0708
4.0155	8.8623
4.016	9.26514
4.0165	3.12195
4.017	6.74744
4.0175	8.05664
4.018	7.25098
4.0185	9.56726
4.019	6.94885
4.0195	9.16443
4.02	8.25806
4.0205	5.63965
4.021	7.25098
4.0215	6.2439
4.022	5.13611
4.0225	4.22974
4.023	6.3446
4.0235	4.73328
4.024	3.62549
4.0245	6.84814
4.025	2.71912
4.0255	3.32336
4.026	1.40991
4.0265	5.13611
4.027	-0.60425
4.0275	5.23682
4.028	9.16443
4.0285	4.12903
4.029	12.48779
4.0295	8.45947
4.03	4.43115
4.0305	8.05664
4.031	7.5531
4.0315	7.25098
4.032	11.88354
4.0325	8.8623
4.033	5.74036
4.0335	4.33044
4.034	11.68213
4.0345	6.84814
4.035	8.15735
4.0355	8.05664
4.036	5.0354
4.0365	7.75452
4.037	10.37292
4.0375	6.3446
4.038	11.98425
4.0385	11.78284
4.039	4.83398
4.0395	1.3092
4.04	5.23682
4.0405	2.11487
4.041	4.63257
4.0415	8.7616
4.042	9.97009
4.0425	9.16443
4.043	11.48071
4.0435	7.65381
4.044	11.48071
4.0445	12.08496
4.045	13.39417
4.0455	8.96301
4.046	7.15027
4.0465	8.66089
4.047	10.37292
4.0475	11.07788
4.048	8.45947
4.0485	9.76868
4.049	14.90479
4.0495	8.66089
4.05	8.56018
4.0505	4.93469
4.051	4.93469
4.0515	4.12903
4.052	8.25806
4.0525	6.94885
4.053	9.06372
4.0535	4.22974
4.054	6.64673
4.0545	5.74036
4.055	5.13611
4.0555	4.63257
4.056	3.52478
4.0565	6.64673
4.057	3.02124
4.0575	3.12195
4.058	3.52478
4.0585	5.13611
4.059	6.94885
4.0595	7.65381
4.06	6.2439
4.0605	5.33752
4.061	0.20142
4.0615	-0.90637
4.062	4.93469
4.0625	3.02124
4.063	4.12903
4.0635	5.84106
4.064	4.12903
4.0645	4.43115
4.065	5.13611
4.0655	1.10779
4.066	-1.71204
4.0665	0.60425
4.067	6.94885
4.0675	6.64673
4.068	9.46655
4.0685	7.5531
4.069	6.64673
4.0695	5.0354
4.07	3.8269
4.0705	1.00708
4.071	-1.2085
4.0715	-1.3092
4.072	1.71204
4.0725	0.10071
4.073	6.3446
4.0735	3.22266
4.074	2.11487
4.0745	3.92761
4.075	11.48071
4.0755	7.45239
4.076	8.25806
4.0765	3.62549
4.077	2.5177
4.0775	2.92053
4.078	7.65381
4.0785	4.33044
4.079	-0.40283
4.0795	0.40283
4.08	1.40991
4.0805	0
4.081	4.83398
4.0815	2.81982
4.082	-1.10779
4.0825	5.53894
4.083	3.12195
4.0835	7.5531
4.084	-0.10071
4.0845	3.32336
4.085	-0.40283
4.0855	-0.90637
4.086	1.91345
4.0865	2.11487
4.087	1.61133
4.0875	4.43115
4.088	4.73328
4.0885	-0.90637
4.089	1.91345
4.0895	3.12195
4.09	5.63965
4.0905	7.85522
4.091	12.28638
4.0915	7.04956
4.092	0.90637
4.0925	3.12195
4.093	6.84814
4.0935	-3.02124
4.094	-2.11487
4.0945	3.7262
4.095	3.42407
4.0955	3.8269
4.096	5.94177
4.0965	3.7262
4.097	8.56018
4.0975	4.83398
4.098	5.43823
4.0985	11.68213
4.099	6.74744
4.0995	5.33752
4.1	6.3446
4.1005	0.70496
4.101	4.02832
4.1015	8.66089
4.102	9.36584
4.1025	4.33044
4.103	7.04956
4.1035	4.83398
4.104	5.43823
4.1045	0.80566
4.105	4.73328
4.1055	4.93469
4.106	1.2085
4.1065	3.02124
4.107	1.71204
4.1075	0.60425
4.108	4.63257
4.1085	6.84814
4.109	7.25098
4.1095	2.5177
4.11	0.20142
4.1105	0.30212
4.111	-1.10779
4.1115	3.22266
4.112	-1.10779
4.1125	1.61133
4.113	-3.12195
4.1135	4.22974
4.114	2.21558
4.1145	5.43823
4.115	-0.10071
4.1155	-1.00708
4.116	6.54602
4.1165	8.56018
4.117	4.53186
4.1175	3.42407
4.118	5.84106
4.1185	3.7262
4.119	1.61133
4.1195	1.71204
4.12	0.80566
4.1205	-1.2085
4.121	-0.10071
4.1215	2.21558
4.122	0.90637
4.1225	4.12903
4.123	9.06372
4.1235	1.61133
4.124	4.33044
4.1245	-1.61133
4.125	2.92053
4.1255	4.22974
4.126	6.04248
4.1265	7.85522
4.127	5.13611
4.1275	3.92761
4.128	1.51062
4.1285	5.43823
4.129	7.25098
4.1295	4.33044
4.13	0
4.1305	-0.90637
