Domenico_Di_Fonza_Right_1.c3d  



Time(s):	B_R_bicipite(μV):
0	-75.32959
0.0005	-80.4657
0.001	-77.948
0.0015	-57.60498
0.002	-31.52161
0.0025	-8.8623
0.003	12.28638
0.0035	29.20532
0.004	44.61365
0.0045	57.40356
0.005	65.3595
0.0055	63.44604
0.006	64.45312
0.0065	49.64905
0.007	38.06763
0.0075	30.71594
0.008	12.08496
0.0085	5.74036
0.009	-6.3446
0.0095	-20.34302
0.01	-22.45789
0.0105	-26.78833
0.011	-35.04639
0.0115	-41.39099
0.012	-39.17542
0.0125	-40.1825
0.013	-34.54285
0.0135	-19.03381
0.014	-10.67505
0.0145	-3.12195
0.015	6.84814
0.0155	10.0708
0.016	26.68762
0.0165	30.51453
0.017	38.26904
0.0175	43.80798
0.018	53.07312
0.0185	48.03772
0.019	40.88745
0.0195	31.21948
0.02	20.04089
0.0205	13.69629
0.021	12.18567
0.0215	11.38
0.022	3.92761
0.0225	-12.89062
0.023	-16.21399
0.0235	-16.01257
0.024	-15.50903
0.0245	-17.72461
0.025	-13.89771
0.0255	-13.49487
0.026	-20.44373
0.0265	-25.88196
0.027	-33.43506
0.0275	-43.90869
0.028	-61.53259
0.0285	-67.27295
0.029	-71.50269
0.0295	-67.97791
0.03	-69.68994
0.0305	-69.38782
0.031	-57.70569
0.0315	-45.41931
0.032	-25.98267
0.0325	-8.8623
0.033	14.40125
0.0335	46.72852
0.034	79.96216
0.0345	112.39014
0.035	143.81104
0.0355	161.13281
0.036	164.85901
0.0365	158.11157
0.037	151.76697
0.0375	139.68201
0.038	120.64819
0.0385	94.96765
0.039	70.89844
0.0395	44.71436
0.04	15.60974
0.0405	-4.83398
0.041	-13.69629
0.0415	-5.33752
0.042	-1.00708
0.0425	-5.94177
0.043	-20.34302
0.0435	-14.30054
0.044	-13.797
0.0445	-16.81824
0.045	-8.45947
0.0455	-16.01257
0.046	-6.94885
0.0465	-13.39417
0.047	-14.19983
0.0475	-12.38708
0.048	-14.09912
0.0485	-23.56567
0.049	-22.25647
0.0495	-24.47205
0.05	-25.88196
0.0505	-20.1416
0.051	-15.81116
0.0515	-18.42957
0.052	-25.88196
0.0525	-20.34302
0.053	-16.3147
0.0535	-13.89771
0.054	-8.7616
0.0545	2.41699
0.055	4.53186
0.0555	7.15027
0.056	7.5531
0.0565	15.1062
0.057	14.09912
0.0575	15.40833
0.058	16.71753
0.0585	14.60266
0.059	13.99841
0.0595	17.52319
0.06	19.13452
0.0605	13.59558
0.061	3.8269
0.0615	-5.43823
0.062	-8.45947
0.0625	-20.94727
0.063	-21.3501
0.0635	-23.46497
0.064	-26.3855
0.0645	-25.78125
0.065	-24.57275
0.0655	-25.78125
0.066	-19.33594
0.0665	-13.89771
0.067	-12.99133
0.0675	-16.3147
0.068	-13.99841
0.0685	-6.54602
0.069	1.91345
0.0695	1.81274
0.07	4.73328
0.0705	8.05664
0.071	11.78284
0.0715	15.20691
0.072	12.89062
0.0725	10.17151
0.073	15.60974
0.0735	15.71045
0.074	15.1062
0.0745	16.61682
0.075	21.14868
0.0755	20.34302
0.076	10.17151
0.0765	9.06372
0.077	20.34302
0.0775	19.23523
0.078	21.45081
0.0785	22.6593
0.079	25.68054
0.0795	29.30603
0.08	23.56567
0.0805	27.09045
0.081	19.94019
0.0815	15.71045
0.082	14.19983
0.0825	11.98425
0.083	19.03381
0.0835	22.96143
0.084	19.13452
0.0845	14.09912
0.085	9.06372
0.0855	-5.33752
0.086	-13.797
0.0865	-23.76709
0.087	-20.24231
0.0875	-25.37842
0.088	-23.76709
0.0885	-23.66638
0.089	-21.65222
0.0895	-17.42249
0.09	-14.70337
0.0905	-10.37292
0.091	-2.92053
0.0915	6.3446
0.092	7.75452
0.0925	18.02673
0.093	24.27063
0.0935	21.3501
0.094	22.6593
0.0945	27.99683
0.095	26.88904
0.0955	22.96143
0.096	14.19983
0.0965	1.2085
0.097	1.51062
0.0975	-0.30212
0.098	4.33044
0.0985	4.22974
0.099	2.92053
0.0995	4.43115
0.1	-0.40283
0.1005	-3.92761
0.101	-13.59558
0.1015	-19.53735
0.102	-20.54443
0.1025	-15.30762
0.103	-10.47363
0.1035	-14.70337
0.104	-15.20691
0.1045	-16.01257
0.105	-12.99133
0.1055	-11.98425
0.106	-15.00549
0.1065	-8.45947
0.107	-13.39417
0.1075	-5.63965
0.108	-6.2439
0.1085	1.61133
0.109	13.39417
0.1095	12.78992
0.11	21.3501
0.1105	23.26355
0.111	22.25647
0.1115	21.95435
0.112	26.98975
0.1125	23.8678
0.113	22.35718
0.1135	23.96851
0.114	22.45789
0.1145	20.04089
0.115	19.03381
0.1155	18.12744
0.116	15.40833
0.1165	9.86938
0.117	10.57434
0.1175	5.53894
0.118	6.2439
0.1185	6.64673
0.119	3.7262
0.1195	1.81274
0.12	2.21558
0.1205	-3.62549
0.121	-9.76868
0.1215	-13.09204
0.122	-11.2793
0.1225	-21.85364
0.123	-21.95435
0.1235	-19.43665
0.124	-33.53577
0.1245	-41.99524
0.125	-49.24622
0.1255	-47.63489
0.126	-48.03772
0.1265	-49.64905
0.127	-58.61206
0.1275	-64.75525
0.128	-59.82056
0.1285	-60.4248
0.129	-58.61206
0.1295	-53.17383
0.13	-44.21082
0.1305	-35.75134
0.131	-33.23364
0.1315	-29.80957
0.132	-14.60266
0.1325	1.2085
0.133	6.3446
0.1335	29.10461
0.134	58.10852
0.1345	87.61597
0.135	107.55615
0.1355	127.09351
0.136	139.48059
0.1365	147.83936
0.137	148.64502
0.1375	142.60254
0.138	131.02112
0.1385	113.80005
0.139	75.4303
0.1395	52.06604
0.14	34.34143
0.1405	17.32178
0.141	4.73328
0.1415	-2.41699
0.142	-3.7262
0.1425	-16.3147
0.143	-23.76709
0.1435	-27.09045
0.144	-26.18408
0.1445	-15.71045
0.145	0.20142
0.1455	15.71045
0.146	24.06921
0.1465	32.52869
0.147	32.42798
0.1475	32.93152
0.148	30.2124
0.1485	24.67346
0.149	19.83948
0.1495	14.90479
0.15	-5.33752
0.1505	-13.69629
0.151	-29.00391
0.1515	-32.62939
0.152	-36.65771
0.1525	-39.77966
0.153	-44.91577
0.1535	-41.99524
0.154	-37.56409
0.1545	-34.84497
0.155	-33.43506
0.1555	-30.81665
0.156	-19.43665
0.1565	-13.29346
0.157	2.01416
0.1575	10.47363
0.158	16.71753
0.1585	20.84656
0.159	27.79541
0.1595	38.87329
0.16	42.49878
0.1605	47.53418
0.161	47.53418
0.1615	47.53418
0.162	47.53418
0.1625	47.53418
0.163	47.53418
0.1635	47.53418
0.164	47.53418
0.1645	47.53418
0.165	47.53418
0.1655	47.53418
0.166	47.53418
0.1665	47.53418
0.167	47.53418
0.1675	47.53418
0.168	47.53418
0.1685	47.53418
0.169	47.53418
0.1695	47.53418
0.17	47.53418
0.1705	47.53418
0.171	-6.44531
0.1715	-4.63257
0.172	-8.66089
0.1725	-6.74744
0.173	-7.25098
0.1735	-9.26514
0.174	-4.33044
0.1745	-6.64673
0.175	-4.73328
0.1755	-1.61133
0.176	0.40283
0.1765	-0.40283
0.177	-3.42407
0.1775	-10.27222
0.178	-6.84814
0.1785	-8.66089
0.179	-8.7616
0.1795	-11.17859
0.18	-19.13452
0.1805	-22.05505
0.181	-17.92603
0.1815	-29.60815
0.182	-33.43506
0.1825	-32.32727
0.183	-36.15417
0.1835	-28.39966
0.184	-23.36426
0.1845	-24.06921
0.185	-12.99133
0.1855	-12.18567
0.186	-6.2439
0.1865	-4.12903
0.187	4.63257
0.1875	15.71045
0.188	21.55151
0.1885	27.79541
0.189	34.74426
0.1895	39.77966
0.19	45.62073
0.1905	43.60657
0.191	48.64197
0.1915	47.7356
0.192	46.82922
0.1925	44.91577
0.193	41.59241
0.1935	45.11719
0.194	35.54993
0.1945	34.84497
0.195	25.57983
0.1955	20.64514
0.196	16.51611
0.1965	11.98425
0.197	12.5885
0.1975	14.50195
0.198	4.83398
0.1985	-1.40991
0.199	2.61841
0.1995	-2.41699
0.2	-6.04248
0.2005	-1.40991
0.201	0.70496
0.2015	-3.52478
0.202	-5.33752
0.2025	-8.35876
0.203	-6.94885
0.2035	-6.54602
0.204	-4.02832
0.2045	-5.74036
0.205	-5.23682
0.2055	-9.16443
0.206	-8.05664
0.2065	-14.80408
0.207	-9.16443
0.2075	-10.0708
0.208	-10.97717
0.2085	-9.66797
0.209	-1.91345
0.2095	-1.81274
0.21	-11.98425
0.2105	-16.3147
0.211	-23.66638
0.2115	-29.10461
0.212	-33.53577
0.2125	-31.62231
0.213	-31.62231
0.2135	-27.29187
0.214	-20.64514
0.2145	-16.91895
0.215	-13.19275
0.2155	-8.96301
0.216	-3.7262
0.2165	-3.92761
0.217	4.63257
0.2175	11.68213
0.218	26.78833
0.2185	29.00391
0.219	41.08887
0.2195	42.09595
0.22	46.62781
0.2205	48.03772
0.221	52.771
0.2215	44.81506
0.222	40.2832
0.2225	32.12585
0.223	14.70337
0.2235	3.52478
0.224	-10.97717
0.2245	-31.62231
0.225	-42.09595
0.2255	-57.30286
0.226	-71.7041
0.2265	-83.48694
0.227	-94.76624
0.2275	-92.75208
0.228	-83.08411
0.2285	-68.17932
0.229	-49.64905
0.2295	-22.96143
0.23	-1.3092
0.2305	31.4209
0.231	48.33984
0.2315	76.7395
0.232	95.87402
0.2325	114.20288
0.233	129.40979
0.2335	130.21545
0.234	128.10059
0.2345	117.52625
0.235	98.99597
0.2355	74.42322
0.236	54.28162
0.2365	31.21948
0.237	20.94727
0.2375	9.56726
0.238	-7.35168
0.2385	-19.03381
0.239	-29.50745
0.2395	-26.3855
0.24	-23.96851
0.2405	-14.70337
0.241	-16.11328
0.2415	-11.48071
0.242	-9.86938
0.2425	-6.2439
0.243	-7.04956
0.2435	-5.53894
0.244	-2.41699
0.2445	-4.73328
0.245	-10.77576
0.2455	-11.2793
0.246	-15.71045
0.2465	-12.48779
0.247	-14.90479
0.2475	-26.08337
0.248	-21.75293
0.2485	-21.24939
0.249	-26.58691
0.2495	-28.50037
0.25	-27.19116
0.2505	-25.88196
0.251	-29.40674
0.2515	-28.50037
0.252	-30.11169
0.2525	-25.37842
0.253	-20.1416
0.2535	-10.17151
0.254	0.20142
0.2545	2.41699
0.255	11.98425
0.2555	19.63806
0.256	32.22656
0.2565	43.00232
0.257	45.11719
0.2575	51.5625
0.258	48.44055
0.2585	50.354
0.259	56.90002
0.2595	52.8717
0.26	44.81506
0.2605	41.39099
0.261	35.65063
0.2615	36.85913
0.262	23.26355
0.2625	26.08337
0.263	27.39258
0.2635	24.06921
0.264	22.05505
0.2645	22.6593
0.265	22.35718
0.2655	17.82532
0.266	13.09204
0.2665	13.59558
0.267	11.58142
0.2675	1.3092
0.268	-5.13611
0.2685	-15.50903
0.269	-15.20691
0.2695	-17.92603
0.27	-21.14868
0.2705	-17.12036
0.271	-11.38
0.2715	-12.89062
0.272	-9.76868
0.2725	-1.00708
0.273	10.0708
0.2735	18.22815
0.274	18.8324
0.2745	23.66638
0.275	27.59399
0.2755	34.64355
0.276	26.48621
0.2765	23.06213
0.277	15.1062
0.2775	5.43823
0.278	4.22974
0.2785	-0.20142
0.279	-9.86938
0.2795	-15.30762
0.28	-17.22107
0.2805	-13.99841
0.281	-8.25806
0.2815	-14.70337
0.282	-9.86938
0.2825	-4.83398
0.283	0.40283
0.2835	1.10779
0.284	3.42407
0.2845	4.22974
0.285	7.04956
0.2855	9.26514
0.286	9.66797
0.2865	15.60974
0.287	16.71753
0.2875	19.13452
0.288	17.22107
0.2885	21.55151
0.289	21.75293
0.2895	19.23523
0.29	17.32178
0.2905	16.21399
0.291	16.3147
0.2915	10.67505
0.292	5.94177
0.2925	9.26514
0.293	0.10071
0.2935	-0.90637
0.294	-8.96301
0.2945	-7.95593
0.295	-14.40125
0.2955	-10.77576
0.296	-5.74036
0.2965	-6.74744
0.297	1.61133
0.2975	0
0.298	1.81274
0.2985	5.13611
0.299	2.61841
0.2995	1.91345
0.3	-5.43823
0.3005	-17.82532
0.301	-18.02673
0.3015	-24.97559
0.302	-27.19116
0.3025	-25.78125
0.303	-20.44373
0.3035	-17.32178
0.304	-11.07788
0.3045	-6.74744
0.305	-1.61133
0.3055	-4.22974
0.306	-0.40283
0.3065	-1.00708
0.307	-2.61841
0.3075	3.52478
0.308	10.17151
0.3085	12.28638
0.309	18.12744
0.3095	14.60266
0.31	13.19275
0.3105	12.28638
0.311	11.98425
0.3115	13.19275
0.312	19.53735
0.3125	15.00549
0.313	18.12744
0.3135	19.73877
0.314	24.67346
0.3145	23.46497
0.315	21.85364
0.3155	24.27063
0.316	25.47913
0.3165	22.86072
0.317	25.27771
0.3175	22.96143
0.318	24.27063
0.3185	23.36426
0.319	20.84656
0.3195	21.45081
0.32	15.20691
0.3205	16.41541
0.321	16.91895
0.3215	12.89062
0.322	6.74744
0.3225	11.48071
0.323	8.25806
0.3235	6.2439
0.324	2.5177
0.3245	3.02124
0.325	-0.80566
0.3255	-3.22266
0.326	-3.92761
0.3265	-6.44531
0.327	-1.91345
0.3275	-8.8623
0.328	-16.3147
0.3285	-22.86072
0.329	-22.76001
0.3295	-30.41382
0.33	-30.31311
0.3305	-28.60107
0.331	-18.63098
0.3315	-7.95593
0.332	2.71912
0.3325	12.48779
0.333	24.37134
0.3335	30.51453
0.334	41.18958
0.3345	46.5271
0.335	49.54834
0.3355	51.05896
0.336	44.61365
0.3365	44.41223
0.337	45.3186
0.3375	41.99524
0.338	29.30603
0.3385	23.66638
0.339	17.42249
0.3395	5.74036
0.34	-6.04248
0.3405	-12.08496
0.341	-20.34302
0.3415	-19.94019
0.342	-16.51611
0.3425	-6.64673
0.343	-3.02124
0.3435	2.31628
0.344	10.17151
0.3445	17.42249
0.345	23.26355
0.3455	24.16992
0.346	23.36426
0.3465	30.11169
0.347	27.39258
0.3475	23.96851
0.348	13.29346
0.3485	4.02832
0.349	-7.75452
0.3495	-19.53735
0.35	-23.26355
0.3505	-20.74585
0.351	-16.3147
0.3515	-16.81824
0.352	-14.80408
0.3525	-4.22974
0.353	1.61133
0.3535	10.97717
0.354	34.14001
0.3545	44.61365
0.355	56.90002
0.3555	60.4248
0.356	64.55383
0.3565	60.52551
0.357	49.85046
0.3575	43.30444
0.358	33.33435
0.3585	18.22815
0.359	18.12744
0.3595	2.31628
0.36	-0.50354
0.3605	-13.49487
0.361	-23.06213
0.3615	-32.93152
0.362	-40.38391
0.3625	-30.91736
0.363	-27.29187
0.3635	-20.74585
0.364	-21.24939
0.3645	-20.04089
0.365	-11.58142
0.3655	-2.31628
0.366	5.53894
0.3665	9.36584
0.367	12.68921
0.3675	15.81116
0.368	16.01257
0.3685	25.78125
0.369	30.11169
0.3695	38.67188
0.37	37.86621
0.3705	36.05347
0.371	38.67188
0.3715	31.52161
0.372	36.35559
0.3725	31.92444
0.373	28.29895
0.3735	28.80249
0.374	18.53027
0.3745	4.43115
0.375	-6.94885
0.3755	-15.71045
0.376	-20.54443
0.3765	-22.05505
0.377	-21.95435
0.3775	-18.32886
0.378	-15.00549
0.3785	-9.97009
0.379	-10.87646
0.3795	-10.47363
0.38	-11.68213
0.3805	-2.61841
0.381	1.3092
0.3815	1.91345
0.382	4.22974
0.3825	4.73328
0.383	7.04956
0.3835	8.66089
0.384	8.56018
0.3845	14.19983
0.385	14.50195
0.3855	17.92603
0.386	16.51611
0.3865	16.01257
0.387	13.19275
0.3875	19.23523
0.388	8.15735
0.3885	6.64673
0.389	0.10071
0.3895	-1.61133
0.39	-5.84106
0.3905	-16.11328
0.391	-22.15576
0.3915	-29.50745
0.392	-25.98267
0.3925	-25.98267
0.393	-16.21399
0.3935	-13.39417
0.394	-3.92761
0.3945	2.61841
0.395	7.85522
0.3955	11.98425
0.396	17.92603
0.3965	23.46497
0.397	25.68054
0.3975	30.01099
0.398	26.68762
0.3985	25.177
0.399	23.06213
0.3995	16.21399
0.4	13.797
0.4005	11.88354
0.401	5.84106
0.4015	6.3446
0.402	4.33044
0.4025	2.41699
0.403	-3.02124
0.4035	-4.12903
0.404	-9.56726
0.4045	-10.47363
0.405	-13.09204
0.4055	-19.13452
0.406	-20.94727
0.4065	-20.34302
0.407	-28.09753
0.4075	-26.28479
0.408	-23.46497
0.4085	-17.92603
0.409	-19.33594
0.4095	-12.68921
0.41	-4.22974
0.4105	-1.3092
0.411	-1.51062
0.4115	-4.33044
0.412	-1.00708
0.4125	-1.61133
0.413	-7.45239
0.4135	-18.93311
0.414	-28.19824
0.4145	-29.70886
0.415	-37.26196
0.4155	-38.974
0.416	-35.34851
0.4165	-29.91028
0.417	-13.89771
0.4175	11.58142
0.418	28.39966
0.4185	51.26038
0.419	68.78357
0.4195	77.04163
0.42	85.60181
0.4205	91.54358
0.421	92.55066
0.4215	93.65845
0.422	91.14075
0.4225	82.9834
0.423	70.3949
0.4235	50.55542
0.424	32.83081
0.4245	15.91187
0.425	-0.20142
0.4255	-11.2793
0.426	-13.797
0.4265	-14.40125
0.427	-17.12036
0.4275	-18.42957
0.428	-18.22815
0.4285	-18.93311
0.429	-16.41541
0.4295	-11.98425
0.43	-9.76868
0.4305	0.20142
0.431	-0.50354
0.4315	-10.37292
0.432	-16.21399
0.4325	-23.26355
0.433	-28.19824
0.4335	-37.66479
0.434	-43.90869
0.4345	-47.8363
0.435	-51.46179
0.4355	-42.49878
0.436	-26.18408
0.4365	-11.48071
0.437	-1.71204
0.4375	6.74744
0.438	17.52319
0.4385	36.75842
0.439	45.82214
0.4395	59.92126
0.44	69.38782
0.4405	75.83313
0.441	75.83313
0.4415	75.83313
0.442	75.83313
0.4425	75.83313
0.443	75.83313
0.4435	75.83313
0.444	75.83313
0.4445	75.83313
0.445	75.83313
0.4455	75.83313
0.446	75.83313
0.4465	75.83313
0.447	75.83313
0.4475	75.83313
0.448	75.83313
0.4485	75.83313
0.449	75.83313
0.4495	75.83313
0.45	75.83313
0.4505	75.83313
0.451	13.59558
0.4515	8.56018
0.452	11.68213
0.4525	10.37292
0.453	13.59558
0.4535	11.98425
0.454	2.21558
0.4545	4.53186
0.455	1.00708
0.4555	0.10071
0.456	-1.61133
0.4565	-1.61133
0.457	1.2085
0.4575	5.94177
0.458	1.00708
0.4585	-3.52478
0.459	1.3092
0.4595	-3.02124
0.46	1.51062
0.4605	-2.21558
0.461	4.22974
0.4615	7.45239
0.462	-2.41699
0.4625	2.11487
0.463	7.04956
0.4635	4.53186
0.464	3.42407
0.4645	2.41699
0.465	2.41699
0.4655	7.75452
0.466	10.17151
0.4665	9.76868
0.467	9.46655
0.4675	-0.30212
0.468	-1.71204
0.4685	-6.54602
0.469	-12.18567
0.4695	-16.91895
0.47	-24.77417
0.4705	-26.18408
0.471	-27.29187
0.4715	-22.86072
0.472	-16.91895
0.4725	-10.97717
0.473	-6.84814
0.4735	-3.92761
0.474	7.35168
0.4745	18.02673
0.475	23.36426
0.4755	28.70178
0.476	33.63647
0.4765	34.03931
0.477	28.80249
0.4775	30.51453
0.478	32.83081
0.4785	29.30603
0.479	25.37842
0.4795	14.50195
0.48	11.38
0.4805	7.45239
0.481	-3.12195
0.4815	-7.85522
0.482	-10.47363
0.4825	-7.35168
0.483	-13.39417
0.4835	-6.3446
0.484	-6.94885
0.4845	-3.02124
0.485	-1.00708
0.4855	-1.40991
0.486	1.71204
0.4865	-1.2085
0.487	-2.21558
0.4875	7.95593
0.488	3.92761
0.4885	4.73328
0.489	3.32336
0.4895	12.08496
0.49	10.0708
0.4905	11.58142
0.491	6.54602
0.4915	4.22974
0.492	0.30212
0.4925	-8.05664
0.493	-12.18567
0.4935	-20.84656
0.494	-26.88904
0.4945	-19.03381
0.495	-17.12036
0.4955	-16.3147
0.496	-8.05664
0.4965	9.76868
0.497	17.32178
0.4975	24.47205
0.498	26.28479
0.4985	32.32727
0.499	45.52002
0.4995	51.15967
0.5	49.0448
0.5005	48.44055
0.501	46.42639
0.5015	40.58533
0.502	40.98816
0.5025	33.13293
0.503	27.39258
0.5035	20.74585
0.504	19.73877
0.5045	19.03381
0.505	14.70337
0.5055	18.32886
0.506	19.94019
0.5065	13.09204
0.507	8.66089
0.5075	4.63257
0.508	7.65381
0.5085	3.12195
0.509	-8.05664
0.5095	-11.07788
0.51	-22.15576
0.5105	-28.60107
0.511	-44.41223
0.5115	-50.354
0.512	-54.88586
0.5125	-61.93542
0.513	-62.33826
0.5135	-69.38782
0.514	-64.05029
0.5145	-55.59082
0.515	-46.12427
0.5155	-24.87488
0.516	-5.74036
0.5165	8.15735
0.517	19.53735
0.5175	44.0094
0.518	57.60498
0.5185	66.87012
0.519	70.79773
0.5195	73.51685
0.52	71.80481
0.5205	62.53967
0.521	56.5979
0.5215	52.771
0.522	37.66479
0.5225	27.39258
0.523	16.11328
0.5235	11.2793
0.524	4.33044
0.5245	0.40283
0.525	-6.84814
0.5255	-6.74744
0.526	-13.49487
0.5265	-17.72461
0.527	-23.46497
0.5275	-25.177
0.528	-26.18408
0.5285	-24.87488
0.529	-21.3501
0.5295	-23.06213
0.53	-20.94727
0.5305	-13.09204
0.531	-11.88354
0.5315	-8.35876
0.532	-4.02832
0.5325	5.43823
0.533	6.3446
0.5335	7.04956
0.534	10.0708
0.5345	17.42249
0.535	17.22107
0.5355	16.41541
0.536	15.40833
0.5365	17.01965
0.537	18.93311
0.5375	16.71753
0.538	16.41541
0.5385	11.2793
0.539	10.77576
0.5395	12.48779
0.54	7.5531
0.5405	0.60425
0.541	2.01416
0.5415	-4.73328
0.542	-13.69629
0.5425	-11.58142
0.543	-12.18567
0.5435	-3.42407
0.544	1.91345
0.5445	2.92053
0.545	0.60425
0.5455	-2.31628
0.546	-7.5531
0.5465	-6.74744
0.547	-14.30054
0.5475	-16.71753
0.548	-17.22107
0.5485	-14.90479
0.549	-6.2439
0.5495	4.53186
0.55	14.50195
0.5505	25.88196
0.551	34.14001
0.5515	36.35559
0.552	38.47046
0.5525	43.30444
0.553	42.7002
0.5535	39.67896
0.554	41.29028
0.5545	28.9032
0.555	13.69629
0.5555	0.20142
0.556	-6.3446
0.5565	-16.51611
0.557	-22.96143
0.5575	-31.11877
0.558	-42.59949
0.5585	-51.96533
0.559	-51.76392
0.5595	-44.31152
0.56	-35.14709
0.5605	-29.50745
0.561	-18.53027
0.5615	-6.14319
0.562	5.94177
0.5625	13.89771
0.563	20.1416
0.5635	23.36426
0.564	24.37134
0.5645	24.57275
0.565	25.98267
0.5655	24.97559
0.566	26.98975
0.5665	24.57275
0.567	27.19116
0.5675	29.60815
0.568	29.91028
0.5685	40.48462
0.569	41.99524
0.5695	48.03772
0.57	47.93701
0.5705	45.92285
0.571	50.45471
0.5715	46.42639
0.572	30.41382
0.5725	26.78833
0.573	18.73169
0.5735	9.26514
0.574	6.64673
0.5745	3.62549
0.575	0.60425
0.5755	1.40991
0.576	4.12903
0.5765	1.40991
0.577	-5.53894
0.5775	-4.22974
0.578	-3.7262
0.5785	-6.94885
0.579	-6.54602
0.5795	-8.56018
0.58	-8.66089
0.5805	-2.31628
0.581	-1.00708
0.5815	-5.74036
0.582	-8.8623
0.5825	-12.18567
0.583	-9.76868
0.5835	-8.8623
0.584	-15.81116
0.5845	-13.797
0.585	-18.8324
0.5855	-17.52319
0.586	-22.45789
0.5865	-23.8678
0.587	-22.55859
0.5875	-21.24939
0.588	-17.52319
0.5885	-15.00549
0.589	-11.88354
0.5895	-0.50354
0.59	4.33044
0.5905	5.33752
0.591	13.19275
0.5915	13.29346
0.592	16.91895
0.5925	9.16443
0.593	16.51611
0.5935	21.75293
0.594	19.13452
0.5945	24.57275
0.595	24.27063
0.5955	23.06213
0.596	22.45789
0.5965	12.18567
0.597	5.43823
0.5975	1.00708
0.598	-6.3446
0.5985	-2.81982
0.599	0.30212
0.5995	2.5177
0.6	7.5531
0.6005	8.05664
0.601	3.12195
0.6015	-5.0354
0.602	-11.38
0.6025	-19.94019
0.603	-20.34302
0.6035	-27.29187
0.604	-22.05505
0.6045	-22.15576
0.605	-14.70337
0.6055	-15.00549
0.606	-18.32886
0.6065	-9.46655
0.607	-1.10779
0.6075	6.84814
0.608	9.97009
0.6085	20.64514
0.609	23.56567
0.6095	29.91028
0.61	36.25488
0.6105	45.3186
0.611	46.5271
0.6115	49.24622
0.612	52.46887
0.6125	55.2887
0.613	45.41931
0.6135	44.21082
0.614	37.86621
0.6145	29.00391
0.615	26.98975
0.6155	21.95435
0.616	19.33594
0.6165	16.3147
0.617	10.0708
0.6175	-2.81982
0.618	-3.8269
0.6185	-3.22266
0.619	-0.80566
0.6195	0.60425
0.62	4.73328
0.6205	0.40283
0.621	2.5177
0.6215	-0.80566
0.622	2.41699
0.6225	2.92053
0.623	7.95593
0.6235	5.23682
0.624	1.71204
0.6245	0.30212
0.625	9.16443
0.6255	4.43115
0.626	2.01416
0.6265	3.52478
0.627	9.36584
0.6275	7.45239
0.628	3.8269
0.6285	5.13611
0.629	7.95593
0.6295	6.14319
0.63	4.12903
0.6305	3.92761
0.631	2.11487
0.6315	-1.00708
0.632	-3.22266
0.6325	-2.92053
0.633	-1.51062
0.6335	-0.90637
0.634	-2.11487
0.6345	-7.5531
0.635	-15.81116
0.6355	-16.81824
0.636	-34.64355
0.6365	-50.65613
0.637	-64.45312
0.6375	-72.30835
0.638	-75.83313
0.6385	-75.4303
0.639	-71.40198
0.6395	-64.65454
0.64	-51.96533
0.6405	-29.50745
0.641	-11.98425
0.6415	-3.8269
0.642	-0.40283
0.6425	12.5885
0.643	25.98267
0.6435	40.38391
0.644	53.57666
0.6445	54.58374
0.645	58.71277
0.6455	63.44604
0.646	54.48303
0.6465	48.84338
0.647	38.36975
0.6475	36.4563
0.648	39.67896
0.6485	34.94568
0.649	24.97559
0.6495	24.47205
0.65	21.75293
0.6505	8.8623
0.651	2.11487
0.6515	12.89062
0.652	20.84656
0.6525	25.88196
0.653	35.54993
0.6535	29.60815
0.654	31.4209
0.6545	21.55151
0.655	16.21399
0.6555	17.52319
0.656	9.06372
0.6565	-6.2439
0.657	-12.78992
0.6575	-19.03381
0.658	-29.80957
0.6585	-29.30603
0.659	-32.22656
0.6595	-27.09045
0.66	-22.76001
0.6605	-8.45947
0.661	-6.3446
0.6615	-2.41699
0.662	10.57434
0.6625	21.95435
0.663	36.15417
0.6635	42.8009
0.664	44.91577
0.6645	53.67737
0.665	56.29578
0.6655	51.15967
0.666	45.52002
0.6665	38.36975
0.667	26.28479
0.6675	13.29346
0.668	4.63257
0.6685	-10.0708
0.669	-9.26514
0.6695	-13.19275
0.67	-20.44373
0.6705	-23.66638
0.671	-21.95435
0.6715	-16.01257
0.672	-2.71912
0.6725	1.61133
0.673	11.88354
0.6735	22.15576
0.674	23.16284
0.6745	24.06921
0.675	20.34302
0.6755	19.83948
0.676	16.81824
0.6765	12.18567
0.677	10.17151
0.6775	10.67505
0.678	8.05664
0.6785	-1.91345
0.679	-0.60425
0.6795	4.22974
0.68	-2.01416
0.6805	-2.01416
0.681	-1.2085
0.6815	-2.41699
0.682	0.60425
0.6825	-1.40991
0.683	0.80566
0.6835	2.92053
0.684	5.84106
0.6845	4.22974
0.685	2.5177
0.6855	-3.12195
0.686	2.01416
0.6865	1.2085
0.687	2.11487
0.6875	5.23682
0.688	1.61133
0.6885	6.54602
0.689	12.99133
0.6895	3.62549
0.69	1.40991
0.6905	6.94885
0.691	7.04956
0.6915	3.62549
0.692	5.94177
0.6925	4.22974
0.693	9.76868
0.6935	10.57434
0.694	6.14319
0.6945	8.25806
0.695	3.92761
0.6955	6.3446
0.696	6.54602
0.6965	2.92053
0.697	3.32336
0.6975	7.65381
0.698	10.87646
0.6985	6.44531
0.699	8.56018
0.6995	1.10779
0.7	2.61841
0.7005	1.81274
0.701	4.22974
0.7015	1.61133
0.702	8.15735
0.7025	1.61133
0.703	0.80566
0.7035	-2.71912
0.704	-3.62549
0.7045	2.71912
0.705	2.5177
0.7055	2.5177
0.706	1.40991
0.7065	9.76868
0.707	1.81274
0.7075	1.3092
0.708	9.76868
0.7085	13.19275
0.709	10.37292
0.7095	8.45947
0.71	7.85522
0.7105	10.17151
0.711	12.5885
0.7115	7.5531
0.712	12.08496
0.7125	10.47363
0.713	12.99133
0.7135	10.97717
0.714	11.48071
0.7145	2.41699
0.715	1.10779
0.7155	-5.74036
0.716	-3.02124
0.7165	-14.09912
0.717	-18.73169
0.7175	-30.51453
0.718	-41.18958
0.7185	-43.50586
0.719	-41.18958
0.7195	-41.99524
0.72	-31.62231
0.7205	-26.58691
0.721	-21.95435
0.7215	-11.48071
0.722	1.81274
0.7225	6.2439
0.723	11.58142
0.7235	30.2124
0.724	33.9386
0.7245	40.78674
0.725	50.75684
0.7255	58.10852
0.726	65.25879
0.7265	67.77649
0.727	69.38782
0.7275	61.12976
0.728	57.70569
0.7285	52.16675
0.729	41.69312
0.7295	26.88904
0.73	11.68213
0.7305	6.44531
0.731	8.7616
0.7315	2.71912
0.732	-3.02124
0.7325	-2.11487
0.733	-0.20142
0.7335	-0.20142
0.734	7.04956
0.7345	1.61133
0.735	1.10779
0.7355	0.10071
0.736	4.12903
0.7365	1.00708
0.737	-2.81982
0.7375	-2.71912
0.738	-1.3092
0.7385	-4.83398
0.739	-4.22974
0.7395	-9.26514
0.74	-13.89771
0.7405	-14.19983
0.741	-10.67505
0.7415	-11.07788
0.742	-12.28638
0.7425	-10.27222
0.743	-8.15735
0.7435	-3.52478
0.744	-1.81274
0.7445	-6.44531
0.745	-8.56018
0.7455	-8.56018
0.746	-5.43823
0.7465	2.5177
0.747	-3.32336
0.7475	3.02124
0.748	3.62549
0.7485	-1.71204
0.749	-2.61841
0.7495	5.53894
0.75	-3.7262
0.7505	-8.66089
0.751	-6.54602
0.7515	-7.15027
0.752	-5.53894
0.7525	0.90637
0.753	-0.30212
0.7535	-0.70496
0.754	-6.94885
0.7545	-3.32336
0.755	-3.42407
0.7555	-1.10779
0.756	1.71204
0.7565	-2.5177
0.757	-4.63257
0.7575	6.64673
0.758	2.11487
0.7585	7.65381
0.759	8.45947
0.7595	12.68921
0.76	19.43665
0.7605	26.3855
0.761	31.11877
0.7615	30.51453
0.762	33.63647
0.7625	29.50745
0.763	27.49329
0.7635	16.81824
0.764	10.77576
0.7645	2.11487
0.765	-2.41699
0.7655	-9.46655
0.766	-15.30762
0.7665	-11.38
0.767	-7.35168
0.7675	-2.5177
0.768	0.60425
0.7685	6.84814
0.769	11.38
0.7695	15.40833
0.77	23.76709
0.7705	25.37842
0.771	29.91028
0.7715	33.33435
0.772	33.23364
0.7725	28.9032
0.773	29.80957
0.7735	36.85913
0.774	40.08179
0.7745	41.39099
0.775	38.36975
0.7755	39.67896
0.776	30.71594
0.7765	17.42249
0.777	10.77576
0.7775	8.96301
0.778	4.33044
0.7785	-0.40283
0.779	-3.7262
0.7795	-5.74036
0.78	-3.92761
0.7805	-3.22266
0.781	1.61133
0.7815	4.33044
0.782	2.31628
0.7825	-0.60425
0.783	-5.84106
0.7835	-5.53894
0.784	-6.64673
0.7845	-9.66797
0.785	-10.0708
0.7855	-13.09204
0.786	-13.49487
0.7865	-11.88354
0.787	-17.52319
0.7875	-10.97717
0.788	-11.78284
0.7885	-6.2439
0.789	-3.52478
0.7895	11.68213
0.79	11.68213
0.7905	14.09912
0.791	23.36426
0.7915	18.93311
0.792	23.56567
0.7925	15.60974
0.793	14.90479
0.7935	4.02832
0.794	-0.70496
0.7945	-4.93469
0.795	-20.34302
0.7955	-20.94727
0.796	-20.64514
0.7965	-18.73169
0.797	-27.59399
0.7975	-21.65222
0.798	-24.27063
0.7985	-31.01807
0.799	-30.51453
0.7995	-38.67188
0.8	-34.54285
0.8005	-37.86621
0.801	-47.8363
0.8015	-41.08887
0.802	-36.4563
0.8025	-24.57275
0.803	-15.91187
0.8035	-9.36584
0.804	4.43115
0.8045	10.87646
0.805	25.177
0.8055	28.09753
0.806	24.57275
0.8065	28.09753
0.807	33.83789
0.8075	32.93152
0.808	34.74426
0.8085	40.58533
0.809	40.08179
0.8095	37.06055
0.81	39.27612
0.8105	37.36267
0.811	35.14709
0.8115	30.41382
0.812	28.80249
0.8125	19.73877
0.813	20.74585
0.8135	18.73169
0.814	8.15735
0.8145	10.47363
0.815	10.97717
0.8155	10.0708
0.816	13.49487
0.8165	22.86072
0.817	16.71753
0.8175	10.77576
0.818	4.02832
0.8185	-5.0354
0.819	3.52478
0.8195	4.33044
0.82	3.02124
0.8205	2.41699
0.821	-3.02124
0.8215	-4.53186
0.822	-13.19275
0.8225	-10.87646
0.823	-7.95593
0.8235	-8.66089
0.824	-8.8623
0.8245	-8.8623
0.825	-4.43115
0.8255	-3.7262
0.826	1.2085
0.8265	5.74036
0.827	5.53894
0.8275	11.07788
0.828	11.48071
0.8285	13.69629
0.829	23.16284
0.8295	26.3855
0.83	27.49329
0.8305	36.4563
0.831	33.23364
0.8315	30.81665
0.832	35.75134
0.8325	34.64355
0.833	34.94568
0.8335	29.91028
0.834	20.34302
0.8345	17.01965
0.835	19.73877
0.8355	17.42249
0.836	17.82532
0.8365	7.35168
0.837	-0.30212
0.8375	-2.31628
0.838	-0.60425
0.8385	0.90637
0.839	-0.50354
0.8395	-3.12195
0.84	-7.15027
0.8405	-13.59558
0.841	-20.1416
0.8415	-19.94019
0.842	-17.12036
0.8425	-24.47205
0.843	-21.14868
0.8435	-18.73169
0.844	-21.65222
0.8445	-20.84656
0.845	-12.99133
0.8455	-16.91895
0.846	-4.63257
0.8465	-1.61133
0.847	-1.00708
0.8475	4.83398
0.848	-1.40991
0.8485	6.84814
0.849	13.09204
0.8495	7.15027
0.85	6.44531
0.8505	4.33044
0.851	6.04248
0.8515	0.20142
0.852	9.16443
0.8525	10.57434
0.853	5.94177
0.8535	0.40283
0.854	-5.43823
0.8545	-7.65381
0.855	-12.38708
0.8555	-14.50195
0.856	-12.5885
0.8565	-16.51611
0.857	-13.69629
0.8575	-8.15735
0.858	-8.56018
0.8585	-1.10779
0.859	-0.30212
0.8595	2.81982
0.86	6.74744
0.8605	15.91187
0.861	18.73169
0.8615	18.93311
0.862	19.03381
0.8625	20.84656
0.863	20.04089
0.8635	14.40125
0.864	10.47363
0.8645	8.05664
0.865	-4.12903
0.8655	-8.25806
0.866	-5.94177
0.8665	-7.5531
0.867	-15.50903
0.8675	-21.85364
0.868	-22.35718
0.8685	-24.37134
0.869	-21.3501
0.8695	-19.23523
0.87	-22.15576
0.8705	-24.16992
0.871	-20.1416
0.8715	-21.65222
0.872	-14.09912
0.8725	-16.61682
0.873	-10.77576
0.8735	-13.29346
0.874	-5.94177
0.8745	0.70496
0.875	2.61841
0.8755	8.96301
0.876	14.40125
0.8765	26.3855
0.877	23.76709
0.8775	16.11328
0.878	5.13611
0.8785	0.50354
0.879	-7.25098
0.8795	-11.88354
0.88	-19.73877
0.8805	-25.78125
0.881	-18.32886
0.8815	-12.38708
0.882	-13.39417
0.8825	0.80566
0.883	20.24231
0.8835	35.95276
0.884	49.24622
0.8845	70.3949
0.885	85.40039
0.8855	99.19739
0.886	97.68677
0.8865	96.57898
0.887	100.50659
0.8875	81.06995
0.888	74.72534
0.8885	59.31702
0.889	49.64905
0.8895	39.67896
0.89	33.73718
0.8905	24.57275
0.891	17.12036
0.8915	9.46655
0.892	2.41699
0.8925	-0.10071
0.893	-1.51062
0.8935	1.40991
0.894	-3.62549
0.8945	-5.53894
0.895	-9.97009
0.8955	-12.99133
0.896	-20.04089
0.8965	-26.18408
0.897	-25.98267
0.8975	-36.75842
0.898	-38.16833
0.8985	-43.10303
0.899	-49.0448
0.8995	-50.354
0.9	-55.79224
0.9005	-49.54834
0.901	-52.36816
0.9015	-46.92993
0.902	-39.07471
0.9025	-33.33435
0.903	-23.76709
0.9035	-9.26514
0.904	2.21558
0.9045	19.33594
0.905	31.92444
0.9055	39.47754
0.906	46.12427
0.9065	60.52551
0.907	63.04321
0.9075	64.151
0.908	65.66162
0.9085	63.84888
0.909	63.54675
0.9095	51.26038
0.91	37.16125
0.9105	33.83789
0.911	31.82373
0.9115	20.44373
0.912	17.92603
0.9125	10.37292
0.913	7.5531
0.9135	-4.73328
0.914	-5.23682
0.9145	-10.17151
0.915	-4.53186
0.9155	-2.61841
0.916	-0.60425
0.9165	6.44531
0.917	3.7262
0.9175	8.35876
0.918	5.43823
0.9185	8.56018
0.919	10.97717
0.9195	14.70337
0.92	15.20691
0.9205	19.43665
0.921	15.81116
0.9215	14.80408
0.922	15.71045
0.9225	14.90479
0.923	24.47205
0.9235	13.59558
0.924	14.90479
0.9245	19.33594
0.925	13.69629
0.9255	15.50903
0.926	10.97717
0.9265	3.32336
0.927	2.21558
0.9275	1.10779
0.928	-1.51062
0.9285	-2.92053
0.929	-1.3092
0.9295	-5.84106
0.93	-1.3092
0.9305	-1.10779
0.931	1.3092
0.9315	-0.10071
0.932	-6.44531
0.9325	-6.84814
0.933	-6.44531
0.9335	-2.92053
0.934	-6.3446
0.9345	-2.71912
0.935	0.70496
0.9355	2.5177
0.936	3.8269
0.9365	2.81982
0.937	5.23682
0.9375	4.93469
0.938	0.90637
0.9385	2.11487
0.939	3.22266
0.9395	7.25098
0.94	10.77576
0.9405	8.96301
0.941	5.63965
0.9415	6.2439
0.942	6.2439
0.9425	6.2439
0.943	6.54602
0.9435	5.63965
0.944	8.8623
0.9445	6.44531
0.945	4.33044
0.9455	2.21558
0.946	1.81274
0.9465	8.8623
0.947	6.64673
0.9475	7.04956
0.948	12.08496
0.9485	5.43823
0.949	5.53894
0.9495	13.09204
0.95	2.81982
0.9505	7.04956
0.951	5.23682
0.9515	7.75452
0.952	7.75452
0.9525	6.2439
0.953	5.43823
0.9535	5.53894
0.954	5.43823
0.9545	5.0354
0.955	5.63965
0.9555	6.2439
0.956	6.54602
0.9565	7.04956
0.957	5.33752
0.9575	7.15027
0.958	5.33752
0.9585	7.04956
0.959	5.63965
0.9595	4.02832
0.96	4.63257
0.9605	3.8269
0.961	6.54602
0.9615	7.25098
0.962	8.56018
0.9625	7.04956
0.963	12.38708
0.9635	3.92761
0.964	1.71204
0.9645	-3.52478
0.965	1.71204
0.9655	0.60425
0.966	1.71204
0.9665	4.63257
0.967	0.50354
0.9675	3.02124
0.968	6.64673
0.9685	7.85522
0.969	6.94885
0.9695	4.43115
0.97	4.43115
0.9705	-2.92053
0.971	-3.92761
0.9715	-3.32336
0.972	-5.94177
0.9725	-13.29346
0.973	-14.80408
0.9735	-17.6239
0.974	-16.01257
0.9745	-19.13452
0.975	-15.20691
0.9755	-11.07788
0.976	-17.12036
0.9765	-20.44373
0.977	-22.96143
0.9775	-18.93311
0.978	-20.34302
0.9785	-18.22815
0.979	-16.41541
0.9795	-16.51611
0.98	-7.85522
0.9805	-10.67505
0.981	-8.7616
0.9815	-3.8269
0.982	1.81274
0.9825	13.797
0.983	21.95435
0.9835	32.42798
0.984	38.67188
0.9845	49.64905
0.985	57.50427
0.9855	61.23047
0.986	59.41772
0.9865	56.29578
0.987	58.10852
0.9875	56.19507
0.988	57.30286
0.9885	57.50427
0.989	44.81506
0.9895	27.09045
0.99	22.96143
0.9905	14.09912
0.991	-1.00708
0.9915	-5.94177
0.992	-12.28638
0.9925	-15.00549
0.993	-21.14868
0.9935	-21.55151
0.994	-13.69629
0.9945	-10.0708
0.995	-11.58142
0.9955	-3.02124
0.996	5.63965
0.9965	15.30762
0.997	23.06213
0.9975	30.01099
0.998	32.83081
0.9985	34.34143
0.999	30.61523
0.9995	34.03931
1	25.07629
1.0005	21.55151
1.001	13.89771
1.0015	13.19275
1.002	7.95593
1.0025	3.12195
1.003	4.73328
1.0035	4.12903
1.004	1.40991
1.0045	1.40991
1.005	-0.50354
1.0055	-0.60425
1.006	3.52478
1.0065	1.71204
1.007	5.43823
1.0075	6.54602
1.008	6.04248
1.0085	2.01416
1.009	-2.5177
1.0095	-3.52478
1.01	5.94177
1.0105	-4.93469
1.011	-1.61133
1.0115	-1.3092
1.012	0.70496
1.0125	-1.2085
1.013	3.7262
1.0135	9.76868
1.014	10.67505
1.0145	17.92603
1.015	18.22815
1.0155	17.42249
1.016	21.14868
1.0165	21.55151
1.017	20.84656
1.0175	22.05505
1.018	16.41541
1.0185	20.1416
1.019	20.04089
1.0195	22.45789
1.02	19.94019
1.0205	22.25647
1.021	16.21399
1.0215	16.61682
1.022	10.77576
1.0225	8.66089
1.023	15.50903
1.0235	12.38708
1.024	6.94885
1.0245	-0.50354
1.025	0
1.0255	0.40283
1.026	-7.65381
1.0265	-6.2439
1.027	-2.5177
1.0275	-4.63257
1.028	-9.86938
1.0285	-11.07788
1.029	-10.27222
1.0295	-15.20691
1.03	-12.5885
1.0305	-15.81116
1.031	-11.17859
1.0315	-4.22974
1.032	-3.02124
1.0325	6.44531
1.033	10.27222
1.0335	24.16992
1.034	27.89612
1.0345	25.07629
1.035	25.07629
1.0355	24.27063
1.036	20.44373
1.0365	18.42957
1.037	16.3147
1.0375	13.89771
1.038	-2.11487
1.0385	2.81982
1.039	-4.83398
1.0395	-3.62549
1.04	-5.0354
1.0405	-2.81982
1.041	-4.83398
1.0415	0
1.042	-2.92053
1.0425	-3.42407
1.043	-8.66089
1.0435	-20.64514
1.044	-37.66479
1.0445	-51.5625
1.045	-57.40356
1.0455	-72.61047
1.046	-74.52393
1.0465	-78.95508
1.047	-74.52393
1.0475	-75.32959
1.048	-63.84888
1.0485	-55.3894
1.049	-46.12427
1.0495	-36.55701
1.05	-18.8324
1.0505	-2.11487
1.051	23.36426
1.0515	43.20374
1.052	66.56799
1.0525	82.68127
1.053	92.24854
1.0535	93.15491
1.054	84.19189
1.0545	78.14941
1.055	79.45862
1.0555	74.02039
1.056	71.7041
1.0565	61.43188
1.057	47.53418
1.0575	30.81665
1.058	15.71045
1.0585	9.46655
1.059	5.33752
1.0595	7.75452
1.06	13.39417
1.0605	-0.80566
1.061	-8.45947
1.0615	-4.22974
1.062	-2.5177
1.0625	0.40283
1.063	2.01416
1.0635	-5.33752
1.064	-7.25098
1.0645	-11.78284
1.065	-15.71045
1.0655	-15.20691
1.066	-20.54443
1.0665	-24.16992
1.067	-25.68054
1.0675	-30.11169
1.068	-39.07471
1.0685	-30.41382
1.069	-32.22656
1.0695	-30.01099
1.07	-25.07629
1.0705	-20.34302
1.071	-13.69629
1.0715	-7.75452
1.072	1.10779
1.0725	11.68213
1.073	12.68921
1.0735	17.92603
1.074	21.14868
1.0745	26.28479
1.075	23.16284
1.0755	27.99683
1.076	26.68762
1.0765	19.53735
1.077	20.04089
1.0775	18.53027
1.078	14.90479
1.0785	11.68213
1.079	9.06372
1.0795	4.43115
1.08	-6.94885
1.0805	-7.85522
1.081	-7.04956
1.0815	-7.5531
1.082	-15.50903
1.0825	-16.3147
1.083	-11.98425
1.0835	-9.56726
1.084	-9.26514
1.0845	-2.92053
1.085	1.2085
1.0855	-5.0354
1.086	-13.49487
1.0865	-6.64673
1.087	-0.20142
1.0875	2.21558
1.088	1.91345
1.0885	6.94885
1.089	20.34302
1.0895	20.54443
1.09	21.14868
1.0905	24.77417
1.091	27.6947
1.0915	35.44922
1.092	45.41931
1.0925	44.21082
1.093	33.53577
1.0935	38.06763
1.094	38.36975
1.0945	38.47046
1.095	37.86621
1.0955	39.37683
1.096	41.18958
1.0965	42.90161
1.097	41.18958
1.0975	34.03931
1.098	34.84497
1.0985	23.06213
1.099	10.77576
1.0995	4.43115
1.1	2.41699
1.1005	2.5177
1.101	-2.01416
1.1015	-5.84106
1.102	-9.76868
1.1025	-10.87646
1.103	-13.69629
1.1035	-13.99841
1.104	-13.29346
1.1045	-15.20691
1.105	-12.5885
1.1055	-12.78992
1.106	-8.8623
1.1065	-19.23523
1.107	-9.66797
1.1075	-8.66089
1.108	-5.43823
1.1085	-1.40991
1.109	-0.80566
1.1095	7.45239
1.11	3.22266
1.1105	9.76868
1.111	5.23682
1.1115	4.53186
1.112	11.17859
1.1125	11.78284
1.113	10.57434
1.1135	2.92053
1.114	0.90637
1.1145	0.90637
1.115	3.7262
1.1155	-0.50354
1.116	-4.93469
1.1165	-3.42407
1.117	-11.07788
1.1175	-4.73328
1.118	-6.84814
1.1185	-5.33752
1.119	0.50354
1.1195	7.15027
1.12	7.65381
1.1205	7.5531
1.121	10.87646
1.1215	6.54602
1.122	8.7616
1.1225	2.81982
1.123	-1.81274
1.1235	-9.26514
1.124	-17.12036
1.1245	-15.30762
1.125	-18.32886
1.1255	-25.27771
1.126	-24.27063
1.1265	-24.27063
1.127	-24.87488
1.1275	-20.34302
1.128	-22.76001
1.1285	-18.53027
1.129	-22.76001
1.1295	-12.5885
1.13	-8.05664
1.1305	-7.65381
1.131	6.04248
1.1315	10.0708
1.132	6.44531
1.1325	8.05664
1.133	7.5531
1.1335	13.09204
1.134	11.38
1.1345	4.43115
1.135	-0.50354
1.1355	-4.63257
1.136	-12.78992
1.1365	-12.68921
1.137	-18.93311
1.1375	-16.51611
1.138	-19.03381
1.1385	-26.78833
1.139	-35.85205
1.1395	-37.66479
1.14	-42.59949
1.1405	-55.59082
1.141	-66.76941
1.1415	-65.66162
1.142	-59.92126
1.1425	-52.67029
1.143	-38.67188
1.1435	-24.47205
1.144	-8.05664
1.1445	9.56726
1.145	26.3855
1.1455	41.79382
1.146	53.97949
1.1465	62.53967
1.147	78.35083
1.1475	88.52234
1.148	89.83154
1.1485	81.97632
1.149	81.7749
1.1495	81.97632
1.15	84.09119
1.1505	90.73792
1.151	80.4657
1.1515	73.21472
1.152	64.55383
1.1525	59.1156
1.153	61.12976
1.1535	65.05737
1.154	57.40356
1.1545	47.93701
1.155	36.65771
1.1555	25.37842
1.156	16.11328
1.1565	10.27222
1.157	0.50354
1.1575	-5.0354
1.158	-3.22266
1.1585	-11.38
1.159	-4.93469
1.1595	-4.43115
1.16	-4.73328
1.1605	-12.5885
1.161	-12.28638
1.1615	-22.05505
1.162	-41.79382
1.1625	-62.53967
1.163	-75.12817
1.1635	-84.19189
1.164	-88.11951
1.1645	-89.02588
1.165	-77.64587
1.1655	-69.48853
1.166	-52.46887
1.1665	-32.62939
1.167	-5.13611
1.1675	25.37842
1.168	43.70728
1.1685	59.71985
1.169	83.99048
1.1695	98.29102
1.17	107.45544
1.1705	110.57739
1.171	109.06677
1.1715	102.62146
1.172	95.26978
1.1725	79.35791
1.173	62.23755
1.1735	53.17383
1.174	50.354
1.1745	39.07471
1.175	28.60107
1.1755	8.66089
1.176	1.71204
1.1765	-8.56018
1.177	-19.13452
1.1775	-21.75293
1.178	-15.20691
1.1785	-15.1062
1.179	-16.3147
1.1795	-9.86938
1.18	-9.06372
1.1805	-7.35168
1.181	-1.10779
1.1815	2.31628
1.182	-0.90637
1.1825	3.7262
1.183	1.91345
1.1835	2.61841
1.184	1.71204
1.1845	-2.61841
1.185	-1.91345
1.1855	-3.22266
1.186	-2.81982
1.1865	-6.44531
1.187	-5.53894
1.1875	-1.91345
1.188	1.2085
1.1885	-3.32336
1.189	-3.42407
1.1895	-3.32336
1.19	-8.15735
1.1905	-5.33752
1.191	-7.04956
1.1915	-4.33044
1.192	-3.52478
1.1925	-6.64673
1.193	-4.12903
1.1935	-0.30212
1.194	-2.01416
1.1945	-2.81982
1.195	-0.40283
1.1955	-2.71912
1.196	-4.63257
1.1965	-5.43823
1.197	-6.94885
1.1975	-1.00708
1.198	-8.25806
1.1985	-6.3446
1.199	-0.20142
1.1995	-2.31628
1.2	-0.20142
1.2005	2.21558
1.201	0.90637
1.2015	5.33752
1.202	2.21558
1.2025	-0.50354
1.203	-5.84106
1.2035	-3.92761
1.204	-8.56018
1.2045	-9.06372
1.205	-12.08496
1.2055	-10.0708
1.206	-6.54602
1.2065	-12.38708
1.207	-19.73877
1.2075	-16.71753
1.208	-16.61682
1.2085	-12.38708
1.209	-9.36584
1.2095	-7.85522
1.21	-8.15735
1.2105	-6.3446
1.211	-3.92761
1.2115	-11.68213
1.212	-10.67505
1.2125	1.61133
1.213	6.64673
1.2135	8.66089
1.214	17.01965
1.2145	25.88196
1.215	29.80957
1.2155	28.50037
1.216	30.31311
1.2165	28.60107
1.217	17.82532
1.2175	17.01965
1.218	12.08496
1.2185	9.66797
1.219	8.05664
1.2195	2.01416
1.22	3.22266
1.2205	-1.81274
1.221	2.11487
1.2215	-8.45947
1.222	-7.95593
1.2225	-5.53894
1.223	-2.41699
1.2235	-1.2085
1.224	-2.11487
1.2245	-6.04248
1.225	-8.7616
1.2255	-4.12903
1.226	0
1.2265	0.60425
1.227	-9.66797
1.2275	-4.93469
1.228	-0.70496
1.2285	4.73328
1.229	12.68921
1.2295	17.22107
1.23	30.51453
1.2305	40.78674
1.231	47.03064
1.2315	49.24622
1.232	58.51135
1.2325	58.00781
1.233	52.771
1.2335	44.31152
1.234	33.43506
1.2345	20.24231
1.235	8.8623
1.2355	5.23682
1.236	-2.01416
1.2365	-4.43115
1.237	-5.43823
1.2375	-15.30762
1.238	-16.21399
1.2385	-3.8269
1.239	-1.2085
1.2395	10.77576
1.24	17.72461
1.2405	20.54443
1.241	27.6947
1.2415	28.60107
1.242	31.82373
1.2425	30.71594
1.243	33.03223
1.2435	32.12585
1.244	24.57275
1.2445	16.41541
1.245	7.75452
1.2455	10.77576
1.246	7.65381
1.2465	5.43823
1.247	-0.60425
1.2475	-1.40991
1.248	-5.13611
1.2485	-11.2793
1.249	-13.99841
1.2495	-10.57434
1.25	-9.76868
1.2505	-10.17151
1.251	-10.47363
1.2515	-14.50195
1.252	-14.60266
1.2525	-12.5885
1.253	-11.2793
1.2535	-12.78992
1.254	-10.77576
1.2545	-1.61133
1.255	-7.75452
1.2555	-5.23682
1.256	-1.51062
1.2565	-3.8269
1.257	3.32336
1.2575	1.51062
1.258	4.12903
1.2585	12.18567
1.259	5.43823
1.2595	11.2793
1.26	17.32178
1.2605	12.68921
1.261	10.27222
1.2615	15.20691
1.262	5.94177
1.2625	10.67505
1.263	10.97717
1.2635	16.61682
1.264	13.89771
1.2645	10.17151
1.265	11.17859
1.2655	11.17859
1.266	0.30212
1.2665	4.33044
1.267	-4.83398
1.2675	-5.84106
1.268	-5.74036
1.2685	-8.45947
1.269	-12.08496
1.2695	-14.60266
1.27	-9.76868
1.2705	-6.94885
1.271	-7.95593
1.2715	-9.06372
1.272	-9.46655
1.2725	-5.13611
1.273	-3.42407
1.2735	5.13611
1.274	6.14319
1.2745	8.25806
1.275	17.32178
1.2755	18.42957
1.276	20.94727
1.2765	17.32178
1.277	18.53027
1.2775	23.26355
1.278	24.57275
1.2785	21.75293
1.279	19.43665
1.2795	15.1062
1.28	15.1062
1.2805	15.50903
1.281	13.09204
1.2815	9.36584
1.282	4.02832
1.2825	1.10779
1.283	-4.93469
1.2835	-1.00708
1.284	-1.71204
1.2845	-0.20142
1.285	11.98425
1.2855	0.90637
1.286	-0.60425
1.2865	3.32336
1.287	-4.93469
1.2875	-12.38708
1.288	-17.92603
1.2885	-23.16284
1.289	-26.08337
1.2895	-28.29895
1.29	-22.96143
1.2905	-13.59558
1.291	-9.66797
1.2915	-8.35876
1.292	-2.81982
1.2925	7.95593
1.293	13.49487
1.2935	17.42249
1.294	20.44373
1.2945	27.09045
1.295	42.19666
1.2955	42.90161
1.296	43.30444
1.2965	49.34692
1.297	53.97949
1.2975	50.95825
1.298	51.46179
1.2985	50.2533
1.299	41.89453
1.2995	37.16125
1.3	38.16833
1.3005	34.24072
1.301	24.06921
1.3015	20.74585
1.302	15.71045
1.3025	15.30762
1.303	17.82532
1.3035	22.45789
1.304	19.94019
1.3045	14.19983
1.305	5.94177
1.3055	3.02124
1.306	2.5177
1.3065	5.13611
1.307	4.73328
1.3075	3.42407
1.308	-1.81274
1.3085	-2.81982
1.309	1.71204
1.3095	-1.00708
1.31	-5.94177
1.3105	-6.74744
1.311	-8.66089
1.3115	-9.97009
1.312	-15.20691
1.3125	-14.30054
1.313	-14.70337
1.3135	-9.56726
1.314	-8.66089
1.3145	-10.87646
1.315	-11.17859
1.3155	-8.96301
1.316	-8.96301
1.3165	-9.46655
1.317	1.51062
1.3175	0.10071
1.318	2.81982
1.3185	2.81982
1.319	3.8269
1.3195	5.74036
1.32	10.27222
1.3205	2.71912
1.321	-0.20142
1.3215	1.81274
1.322	2.21558
1.3225	-2.92053
1.323	3.42407
1.3235	-1.2085
1.324	0.10071
1.3245	-6.74744
1.325	-2.31628
1.3255	-1.3092
1.326	0.40283
1.3265	-2.21558
1.327	4.33044
1.3275	6.84814
1.328	4.53186
1.3285	10.77576
1.329	10.37292
1.3295	8.56018
1.33	4.43115
1.3305	1.71204
1.331	3.7262
1.3315	6.74744
1.332	-1.2085
1.3325	1.91345
1.333	-3.62549
1.3335	-2.92053
1.334	2.71912
1.3345	2.21558
1.335	-2.81982
1.3355	-4.43115
1.336	-7.45239
1.3365	-8.8623
1.337	-8.25806
1.3375	-9.97009
1.338	-7.35168
1.3385	-10.37292
1.339	-13.09204
1.3395	-20.64514
1.34	-19.73877
1.3405	-14.09912
1.341	-8.96301
1.3415	-14.80408
1.342	-16.01257
1.3425	-12.99133
1.343	-15.71045
1.3435	-17.42249
1.344	-9.86938
1.3445	-12.38708
1.345	-14.50195
1.3455	-14.19983
1.346	-12.99133
1.3465	-9.86938
1.347	-10.77576
1.3475	-9.06372
1.348	-9.76868
1.3485	-9.97009
1.349	-11.07788
1.3495	-9.46655
1.35	-6.64673
1.3505	-9.16443
1.351	-5.53894
1.3515	-3.02124
1.352	5.84106
1.3525	11.17859
1.353	9.86938
1.3535	20.34302
1.354	23.56567
1.3545	31.32019
1.355	31.11877
1.3555	32.62939
1.356	31.62231
1.3565	25.177
1.357	27.19116
1.3575	17.42249
1.358	9.56726
1.3585	7.65381
1.359	1.3092
1.3595	-4.02832
1.36	-3.42407
1.3605	-6.2439
1.361	-9.66797
1.3615	-0.10071
1.362	8.96301
1.3625	12.38708
1.363	17.52319
1.3635	15.50903
1.364	16.71753
1.3645	19.43665
1.365	17.52319
1.3655	15.81116
1.366	13.797
1.3665	13.29346
1.367	9.76868
1.3675	11.58142
1.368	12.68921
1.3685	18.12744
1.369	23.46497
1.3695	26.28479
1.37	31.01807
1.3705	28.70178
1.371	27.29187
1.3715	28.70178
1.372	29.50745
1.3725	27.99683
1.373	24.27063
1.3735	25.27771
1.374	29.30603
1.3745	31.82373
1.375	29.70886
1.3755	34.44214
1.376	32.22656
1.3765	29.60815
1.377	30.61523
1.3775	28.09753
1.378	20.34302
1.3785	13.99841
1.379	1.00708
1.3795	-4.02832
1.38	-8.15735
1.3805	-13.09204
1.381	-18.02673
1.3815	-10.97717
1.382	-10.87646
1.3825	-16.91895
1.383	-27.29187
1.3835	-27.49329
1.384	-27.29187
1.3845	-30.41382
1.385	-28.60107
1.3855	-32.22656
1.386	-47.63489
1.3865	-47.53418
1.387	-48.74268
1.3875	-43.40515
1.388	-39.57825
1.3885	-44.11011
1.389	-36.75842
1.3895	-34.34143
1.39	-32.42798
1.3905	-22.05505
1.391	-24.57275
1.3915	-18.02673
1.392	-17.42249
1.3925	-17.82532
1.393	-17.72461
1.3935	0.30212
1.394	15.20691
1.3945	23.96851
1.395	30.71594
1.3955	36.95984
1.396	37.36267
1.3965	36.95984
1.397	36.55701
1.3975	38.47046
1.398	36.75842
1.3985	41.18958
1.399	46.32568
1.3995	43.70728
1.4	42.19666
1.4005	36.35559
1.401	27.29187
1.4015	22.96143
1.402	20.94727
1.4025	30.51453
1.403	27.6947
1.4035	26.98975
1.404	27.19116
1.4045	33.33435
1.405	34.44214
1.4055	33.63647
1.406	37.96692
1.4065	31.92444
1.407	32.12585
1.4075	27.29187
1.408	24.16992
1.4085	22.86072
1.409	16.11328
1.4095	5.43823
1.41	-3.7262
1.4105	-12.38708
1.411	-22.76001
1.4115	-22.05505
1.412	-13.19275
1.4125	-16.11328
1.413	-13.69629
1.4135	-12.38708
1.414	-13.09204
1.4145	-10.77576
1.415	-15.1062
1.4155	-21.85364
1.416	-24.27063
1.4165	-17.52319
1.417	-8.35876
1.4175	-10.97717
1.418	-9.56726
1.4185	-5.13611
1.419	-0.50354
1.4195	-5.23682
1.42	1.91345
1.4205	11.17859
1.421	13.59558
1.4215	4.33044
1.422	6.54602
1.4225	4.02832
1.423	-1.2085
1.4235	1.3092
1.424	4.43115
1.4245	3.92761
1.425	1.2085
1.4255	0.40283
1.426	-11.48071
1.4265	-8.8623
1.427	-20.94727
1.4275	-24.67346
1.428	-26.68762
1.4285	-34.54285
1.429	-36.25488
1.4295	-39.67896
1.43	-38.77258
1.4305	-46.22498
1.431	-42.7002
1.4315	-37.16125
1.432	-37.16125
1.4325	-36.4563
1.433	-31.32019
1.4335	-23.96851
1.434	-16.11328
1.4345	-13.19275
1.435	-2.71912
1.4355	2.61841
1.436	12.78992
1.4365	21.45081
1.437	31.72302
1.4375	44.91577
1.438	49.64905
1.4385	52.771
1.439	53.27454
1.4395	67.77649
1.44	68.78357
1.4405	68.28003
1.441	60.4248
1.4415	56.29578
1.442	45.2179
1.4425	41.89453
1.443	36.75842
1.4435	31.11877
1.444	21.45081
1.4445	18.32886
1.445	10.87646
1.4455	14.09912
1.446	11.68213
1.4465	3.52478
1.447	6.2439
1.4475	7.25098
1.448	3.7262
1.4485	7.95593
1.449	14.19983
1.4495	11.07788
1.45	10.77576
1.4505	8.25806
1.451	9.97009
1.4515	11.78284
1.452	9.66797
1.4525	10.67505
1.453	11.38
1.4535	7.45239
1.454	6.94885
1.4545	0.30212
1.455	-4.43115
1.4555	-17.92603
1.456	-36.15417
1.4565	-44.71436
1.457	-57.40356
1.4575	-67.57507
1.458	-77.04163
1.4585	-78.14941
1.459	-83.68835
1.4595	-69.38782
1.46	-66.76941
1.4605	-58.41064
1.461	-48.94409
1.4615	-39.47754
1.462	-25.177
1.4625	-1.2085
1.463	17.52319
1.4635	33.9386
1.464	48.74268
1.4645	60.72693
1.465	71.50269
1.4655	81.06995
1.466	81.27136
1.4665	77.74658
1.467	78.04871
1.4675	63.14392
1.468	62.8418
1.4685	47.93701
1.469	39.07471
1.4695	26.68762
1.47	17.92603
1.4705	8.15735
1.471	6.44531
1.4715	5.33752
1.472	-0.30212
1.4725	-3.02124
1.473	-8.66089
1.4735	-10.37292
1.474	-13.49487
1.4745	-15.30762
1.475	-19.63806
1.4755	-18.12744
1.476	-14.09912
1.4765	-9.06372
1.477	-9.76868
1.4775	-8.56018
1.478	-7.65381
1.4785	-13.19275
1.479	-25.27771
1.4795	-35.75134
1.48	-53.37524
1.4805	-65.56091
1.481	-70.19348
1.4815	-73.71826
1.482	-76.43738
1.4825	-75.93384
1.483	-69.48853
1.4835	-56.19507
1.484	-35.65063
1.4845	-22.25647
1.485	-0.70496
1.4855	8.05664
1.486	18.73169
1.4865	13.99841
1.487	18.32886
1.4875	10.37292
1.488	7.95593
1.4885	-0.30212
1.489	4.22974
1.4895	11.68213
1.49	27.89612
1.4905	45.11719
1.491	63.24463
1.4915	91.94641
1.492	112.28943
1.4925	141.59546
1.493	149.34998
1.4935	153.57971
1.494	153.17688
1.4945	141.89758
1.495	121.85669
1.4955	78.75366
1.496	47.53418
1.4965	22.55859
1.497	-12.99133
1.4975	-44.41223
1.498	-72.30835
1.4985	-85.80322
1.499	-82.37915
1.4995	-84.2926
1.5	-74.62463
1.5005	-48.94409
1.501	-32.62939
1.5015	-6.74744
1.502	21.04797
1.5025	47.03064
1.503	65.66162
1.5035	82.88269
1.504	84.2926
1.5045	73.41614
1.505	64.75525
1.5055	39.98108
1.506	28.9032
1.5065	-1.91345
1.507	-10.0708
1.5075	-22.6593
1.508	-28.19824
1.5085	-31.32019
1.509	-26.78833
1.5095	-23.96851
1.51	-10.97717
1.5105	-3.22266
1.511	-2.81982
1.5115	11.78284
1.512	34.03931
1.5125	43.50586
1.513	45.11719
1.5135	49.85046
1.514	49.74976
1.5145	51.15967
1.515	53.07312
1.5155	55.08728
1.516	52.67029
1.5165	43.40515
1.517	40.1825
1.5175	31.62231
1.518	33.33435
1.5185	31.32019
1.519	25.27771
1.5195	19.33594
1.52	15.40833
1.5205	10.47363
1.521	13.29346
1.5215	11.88354
1.522	4.22974
1.5225	0.20142
1.523	4.12903
1.5235	1.81274
1.524	-4.73328
1.5245	-6.04248
1.525	-13.19275
1.5255	-24.27063
1.526	-16.61682
1.5265	-19.53735
1.527	-21.65222
1.5275	-19.03381
1.528	-19.03381
1.5285	-25.07629
1.529	-34.14001
1.5295	-35.65063
1.53	-41.18958
1.5305	-46.5271
1.531	-46.92993
1.5315	-42.29736
1.532	-40.88745
1.5325	-35.65063
1.533	-30.61523
1.5335	-14.70337
1.534	-7.95593
1.5345	2.5177
1.535	13.39417
1.5355	15.40833
1.536	28.39966
1.5365	34.34143
1.537	35.95276
1.5375	38.974
1.538	41.4917
1.5385	33.9386
1.539	30.71594
1.5395	31.11877
1.54	20.34302
1.5405	20.64514
1.541	12.89062
1.5415	2.61841
1.542	-13.99841
1.5425	-24.87488
1.543	-27.29187
1.5435	-19.73877
1.544	-10.77576
1.5445	-12.99133
1.545	-9.86938
1.5455	-10.47363
1.546	-25.177
1.5465	-25.07629
1.547	-28.50037
1.5475	-40.38391
1.548	-35.75134
1.5485	-47.63489
1.549	-50.15259
1.5495	-53.87878
1.55	-48.54126
1.5505	-39.17542
1.551	-22.55859
1.5515	-7.15027
1.552	10.87646
1.5525	27.29187
1.553	46.62781
1.5535	61.43188
1.554	71.7041
1.5545	76.13525
1.555	74.72534
1.5555	75.83313
1.556	74.92676
1.5565	73.21472
1.557	61.23047
1.5575	52.16675
1.558	29.10461
1.5585	16.21399
1.559	5.63965
1.5595	4.53186
1.56	2.01416
1.5605	1.2085
1.561	-3.02124
1.5615	-10.77576
1.562	-19.53735
1.5625	-27.49329
1.563	-30.31311
1.5635	-27.59399
1.564	-18.02673
1.5645	-9.86938
1.565	-5.63965
1.5655	10.47363
1.566	10.87646
1.5665	21.65222
1.567	28.19824
1.5675	30.91736
1.568	30.31311
1.5685	36.75842
1.569	39.47754
1.5695	44.11011
1.57	46.82922
1.5705	51.66321
1.571	40.1825
1.5715	37.66479
1.572	28.9032
1.5725	7.65381
1.573	4.02832
1.5735	-2.41699
1.574	-11.07788
1.5745	-13.99841
1.575	-18.53027
1.5755	-17.22107
1.576	-20.74585
1.5765	-22.25647
1.577	-26.88904
1.5775	-33.13293
1.578	-40.48462
1.5785	-39.17542
1.579	-48.54126
1.5795	-56.19507
1.58	-79.66003
1.5805	-86.91101
1.581	-91.14075
1.5815	-84.89685
1.582	-70.89844
1.5825	-59.01489
1.583	-39.27612
1.5835	-23.26355
1.584	-3.32336
1.5845	10.77576
1.585	24.67346
1.5855	36.75842
1.586	44.0094
1.5865	41.4917
1.587	37.66479
1.5875	32.83081
1.588	30.61523
1.5885	37.46338
1.589	42.59949
1.5895	48.13843
1.59	53.07312
1.5905	58.71277
1.591	56.5979
1.5915	57.9071
1.592	43.80798
1.5925	34.24072
1.593	28.60107
1.5935	20.84656
1.594	1.40991
1.5945	-5.63965
1.595	-17.32178
1.5955	-29.91028
1.596	-35.04639
1.5965	-44.0094
1.597	-46.42639
1.5975	-47.33276
1.598	-42.8009
1.5985	-34.03931
1.599	-39.67896
1.5995	-32.52869
1.6	-23.96851
1.6005	-20.04089
1.601	-8.7616
1.6015	-1.61133
1.602	3.8269
1.6025	12.99133
1.603	15.30762
1.6035	17.22107
1.604	16.91895
1.6045	23.46497
1.605	36.05347
1.6055	41.29028
1.606	51.15967
1.6065	52.56958
1.607	50.45471
1.6075	64.95667
1.608	79.2572
1.6085	89.12659
1.609	96.47827
1.6095	104.4342
1.61	112.79297
1.6105	110.47668
1.611	105.54199
1.6115	84.2926
1.612	62.33826
1.6125	38.77258
1.613	22.05505
1.6135	1.61133
1.614	-15.30762
1.6145	-29.10461
1.615	-28.60107
1.6155	-29.10461
1.616	-21.55151
1.6165	-26.08337
1.617	-23.96851
1.6175	-23.56567
1.618	-14.30054
1.6185	-14.19983
1.619	-10.97717
1.6195	-0.30212
1.62	2.61841
1.6205	3.12195
1.621	10.67505
1.6215	15.50903
1.622	17.72461
1.6225	17.92603
1.623	16.91895
1.6235	8.45947
1.624	3.32336
1.6245	-8.15735
1.625	-11.38
1.6255	-12.48779
1.626	-17.82532
1.6265	-29.40674
1.627	-28.29895
1.6275	-27.59399
1.628	-25.68054
1.6285	-14.19983
1.629	0.80566
1.6295	13.797
1.63	18.8324
1.6305	20.94727
1.631	32.7301
1.6315	40.98816
1.632	46.42639
1.6325	46.12427
1.633	53.47595
1.6335	44.61365
1.634	38.57117
1.6345	32.42798
1.635	16.11328
1.6355	8.8623
1.636	1.2085
1.6365	-4.12903
1.637	-4.22974
1.6375	-6.84814
1.638	-8.66089
1.6385	-22.55859
1.639	-26.28479
1.6395	-25.177
1.64	-25.68054
1.6405	-20.94727
1.641	-21.24939
1.6415	-17.12036
1.642	-19.53735
1.6425	-19.13452
1.643	-22.96143
1.6435	-27.99683
1.644	-25.57983
1.6445	-22.96143
1.645	-29.60815
1.6455	-31.01807
1.646	-29.80957
1.6465	-35.54993
1.647	-34.24072
1.6475	-33.83789
1.648	-30.51453
1.6485	-24.37134
1.649	-16.81824
1.6495	-14.50195
1.65	-11.58142
1.6505	-4.73328
1.651	0.90637
1.6515	16.21399
1.652	26.28479
1.6525	33.53577
1.653	39.88037
1.6535	40.1825
1.654	37.26196
1.6545	34.03931
1.655	22.45789
1.6555	-4.43115
1.656	-11.48071
1.6565	-31.4209
1.657	-24.27063
1.6575	-28.9032
1.658	-21.65222
1.6585	-14.70337
1.659	8.8623
1.6595	21.24939
1.66	28.09753
1.6605	38.57117
1.661	43.70728
1.6615	40.58533
1.662	41.18958
1.6625	48.23914
1.663	45.82214
1.6635	49.14551
1.664	45.01648
1.6645	38.47046
1.665	37.86621
1.6655	30.31311
1.666	28.60107
1.6665	22.86072
1.667	15.40833
1.6675	11.78284
1.668	9.36584
1.6685	3.22266
1.669	-2.61841
1.6695	-19.03381
1.67	-36.4563
1.6705	-52.771
1.671	-58.91418
1.6715	-57.30286
1.672	-57.70569
1.6725	-53.47595
1.673	-52.67029
1.6735	-51.46179
1.674	-46.5271
1.6745	-39.57825
1.675	-39.77966
1.6755	-37.56409
1.676	-18.93311
1.6765	-12.5885
1.677	-1.00708
1.6775	8.15735
1.678	18.42957
1.6785	23.06213
1.679	13.89771
1.6795	17.6239
1.68	24.87488
1.6805	29.70886
1.681	32.52869
1.6815	38.87329
1.682	39.67896
1.6825	39.67896
1.683	38.57117
1.6835	27.6947
1.684	22.86072
1.6845	23.96851
1.685	24.67346
1.6855	29.80957
1.686	35.65063
1.6865	45.3186
1.687	60.82764
1.6875	69.79065
1.688	80.66711
1.6885	93.55774
1.689	104.3335
1.6895	101.71509
1.69	94.96765
1.6905	77.04163
1.691	59.41772
1.6915	38.26904
1.692	25.27771
1.6925	20.74585
1.693	9.06372
1.6935	-1.00708
1.694	2.01416
1.6945	-2.81982
1.695	-12.08496
1.6955	-21.04797
1.696	-28.39966
1.6965	-25.07629
1.697	-22.25647
1.6975	-13.69629
1.698	-10.87646
1.6985	-4.12903
1.699	-3.7262
1.6995	-2.41699
1.7	-10.97717
1.7005	-8.15735
1.701	-4.63257
1.7015	-4.73328
1.702	-3.52478
1.7025	-11.98425
1.703	-8.25806
1.7035	-10.37292
1.704	-3.42407
1.7045	-4.73328
1.705	-4.43115
1.7055	-11.48071
1.706	-13.09204
1.7065	-10.47363
1.707	-15.81116
1.7075	-18.53027
1.708	-15.71045
1.7085	-19.03381
1.709	-21.95435
1.7095	-18.22815
1.71	-15.30762
1.7105	-12.78992
1.711	-13.29346
1.7115	-12.68921
1.712	-14.60266
1.7125	-8.56018
1.713	-17.72461
1.7135	-23.56567
1.714	-23.26355
1.7145	-18.73169
1.715	-19.43665
1.7155	-11.68213
1.716	-3.8269
1.7165	-1.10779
1.717	6.2439
1.7175	-2.31628
1.718	0
1.7185	11.98425
1.719	12.18567
1.7195	16.61682
1.72	13.69629
1.7205	4.63257
1.721	-4.53186
1.7215	-15.50903
1.722	-19.94019
1.7225	-5.84106
1.723	-5.33752
1.7235	-14.09912
1.724	-16.51611
1.7245	-31.82373
1.725	-42.7002
1.7255	-47.23206
1.726	-46.62781
1.7265	-55.08728
1.727	-72.20764
1.7275	-74.12109
1.728	-77.34375
1.7285	-87.51526
1.729	-83.18481
1.7295	-81.87561
1.73	-66.16516
1.7305	-42.39807
1.731	-27.29187
1.7315	-3.92761
1.732	26.48621
1.7325	63.54675
1.733	100.30518
1.7335	120.24536
1.734	139.98413
1.7345	151.26343
1.735	152.47192
1.7355	149.14856
1.736	141.49475
1.7365	141.29333
1.737	135.35156
1.7375	123.2666
1.738	101.9165
1.7385	91.44287
1.739	76.33667
1.7395	50.45471
1.74	26.08337
1.7405	12.18567
1.741	0.10071
1.7415	-2.5177
1.742	-0.20142
1.7425	-3.62549
1.743	-1.91345
1.7435	-6.94885
1.744	-11.98425
1.7445	-8.15735
1.745	5.13611
1.7455	-2.61841
1.746	-6.94885
1.7465	-6.74744
1.747	-7.45239
1.7475	-9.86938
1.748	-8.7616
1.7485	-5.53894
1.749	-10.57434
1.7495	-6.3446
1.75	-12.78992
1.7505	-14.90479
1.751	-10.97717
1.7515	-8.96301
1.752	-7.35168
1.7525	-6.84814
1.753	-5.94177
1.7535	-4.02832
1.754	-0.60425
1.7545	-10.17151
1.755	-15.81116
1.7555	-11.17859
1.756	-19.83948
1.7565	-18.53027
1.757	-18.53027
1.7575	-16.11328
1.758	-23.8678
1.7585	-28.80249
1.759	-31.4209
1.7595	-40.48462
1.76	-42.7002
1.7605	-40.98816
1.761	-42.90161
1.7615	-51.15967
1.762	-54.58374
1.7625	-52.36816
1.763	-56.19507
1.7635	-47.93701
1.764	-37.56409
1.7645	-26.28479
1.765	-12.18567
1.7655	1.2085
1.766	7.95593
1.7665	14.09912
1.767	20.94727
1.7675	25.27771
1.768	30.2124
1.7685	37.66479
1.769	41.69312
1.7695	47.23206
1.77	48.23914
1.7705	47.8363
1.771	45.82214
1.7715	42.49878
1.772	46.82922
1.7725	42.49878
1.773	33.63647
1.7735	33.23364
1.774	33.63647
1.7745	40.48462
1.775	41.18958
1.7755	39.37683
1.776	40.68604
1.7765	39.67896
1.777	35.75134
1.7775	28.80249
1.778	26.78833
1.7785	24.37134
1.779	19.83948
1.7795	16.41541
1.78	10.27222
1.7805	-5.0354
1.781	-15.1062
1.7815	-18.73169
1.782	-27.6947
1.7825	-20.64514
1.783	-20.64514
1.7835	-18.73169
1.784	-18.42957
1.7845	-16.3147
1.785	-17.92603
1.7855	-12.18567
1.786	-13.39417
1.7865	-19.23523
1.787	-14.50195
1.7875	-12.38708
1.788	-5.84106
1.7885	-2.61841
1.789	0.10071
1.7895	3.7262
1.79	3.62549
1.7905	4.33044
1.791	10.87646
1.7915	16.21399
1.792	16.11328
1.7925	18.63098
1.793	21.85364
1.7935	18.73169
1.794	19.94019
1.7945	16.01257
1.795	14.80408
1.7955	6.54602
1.796	-10.47363
1.7965	-15.71045
1.797	-19.94019
1.7975	-23.46497
1.798	-25.37842
1.7985	-25.98267
1.799	-26.98975
1.7995	-38.06763
1.8	-40.48462
1.8005	-40.78674
1.801	-39.17542
1.8015	-36.05347
1.802	-27.6947
1.8025	-16.3147
1.803	-8.35876
1.8035	1.51062
1.804	15.71045
1.8045	28.70178
1.805	36.75842
1.8055	41.39099
1.806	52.26746
1.8065	62.23755
1.807	66.87012
1.8075	72.9126
1.808	66.26587
1.8085	63.64746
1.809	66.56799
1.8095	57.30286
1.81	57.9071
1.8105	48.74268
1.811	33.53577
1.8115	32.83081
1.812	29.00391
1.8125	25.78125
1.813	28.60107
1.8135	26.08337
1.814	20.34302
1.8145	10.77576
1.815	6.04248
1.8155	6.94885
1.816	2.11487
1.8165	6.94885
1.817	6.64673
1.8175	14.09912
1.818	10.27222
1.8185	5.0354
1.819	6.14319
1.8195	-0.40283
1.82	-0.30212
1.8205	-0.50354
1.821	3.8269
1.8215	-4.22974
1.822	-0.90637
1.8225	-0.70496
1.823	-4.53186
1.8235	2.11487
1.824	0
1.8245	0.80566
1.825	0.50354
1.8255	7.15027
1.826	-2.71912
1.8265	-7.45239
1.827	-10.0708
1.8275	-17.82532
1.828	-21.04797
1.8285	-20.74585
1.829	-22.76001
1.8295	-26.18408
1.83	-26.48621
1.8305	-35.04639
1.831	-42.8009
1.8315	-37.46338
1.832	-35.44922
1.8325	-24.97559
1.833	-20.24231
1.8335	-22.96143
1.834	-24.97559
1.8345	-21.85364
1.835	-22.86072
1.8355	-7.95593
1.836	-5.33752
1.8365	-8.8623
1.837	-2.21558
1.8375	-1.3092
1.838	-3.52478
1.8385	3.42407
1.839	6.54602
1.8395	1.81274
1.84	-4.63257
1.8405	-15.20691
1.841	-6.2439
1.8415	-4.12903
1.842	14.40125
1.8425	34.84497
1.843	50.65613
1.8435	53.57666
1.844	53.87878
1.8445	54.88586
1.845	59.31702
1.8455	62.13684
1.846	52.36816
1.8465	47.23206
1.847	35.14709
1.8475	20.64514
1.848	22.86072
1.8485	21.24939
1.849	26.48621
1.8495	27.59399
1.85	30.71594
1.8505	42.39807
1.851	47.63489
1.8515	46.92993
1.852	55.89294
1.8525	59.01489
1.853	57.8064
1.8535	48.03772
1.854	45.72144
1.8545	38.36975
1.855	29.60815
1.8555	12.5885
1.856	8.8623
1.8565	3.52478
1.857	7.5531
1.8575	4.33044
1.858	2.71912
1.8585	-2.41699
1.859	-11.88354
1.8595	-13.09204
1.86	-17.52319
1.8605	-14.90479
1.861	-15.30762
1.8615	-8.45947
1.862	-9.16443
1.8625	-13.89771
1.863	-13.19275
1.8635	-15.1062
1.864	-18.32886
1.8645	-26.28479
1.865	-15.81116
1.8655	-22.05505
1.866	-17.6239
1.8665	-19.03381
1.867	-24.27063
1.8675	-26.58691
1.868	-31.32019
1.8685	-33.03223
1.869	-34.44214
1.8695	-30.31311
1.87	-21.85364
1.8705	-9.66797
1.871	-5.74036
1.8715	-4.93469
1.872	-9.46655
1.8725	-11.58142
1.873	-13.89771
1.8735	-17.72461
1.874	-14.70337
1.8745	-19.63806
1.875	-21.04797
1.8755	-17.01965
1.876	-14.90479
1.8765	-0.50354
1.877	9.76868
1.8775	12.5885
1.878	24.57275
1.8785	38.67188
1.879	50.55542
1.8795	70.79773
1.88	76.7395
1.8805	82.37915
1.881	83.99048
1.8815	91.8457
1.882	86.91101
1.8825	73.11401
1.883	61.73401
1.8835	48.03772
1.884	42.90161
1.8845	24.77417
1.885	12.5885
1.8855	4.33044
1.886	-5.0354
1.8865	-13.69629
1.887	-17.01965
1.8875	-16.71753
1.888	-21.65222
1.8885	-20.34302
1.889	-15.71045
1.8895	-9.46655
1.89	-0.20142
1.8905	-1.00708
1.891	-5.23682
1.8915	3.62549
1.892	6.54602
1.8925	15.50903
1.893	16.11328
1.8935	16.91895
1.894	11.88354
1.8945	13.59558
1.895	1.81274
1.8955	3.62549
1.896	3.52478
1.8965	0.70496
1.897	-2.11487
1.8975	-4.63257
1.898	-8.15735
1.8985	-11.2793
1.899	-18.8324
1.8995	-23.26355
1.9	-19.63806
1.9005	-7.65381
1.901	-5.94177
1.9015	0.40283
1.902	2.61841
1.9025	-1.00708
1.903	6.44531
1.9035	7.45239
1.904	5.0354
1.9045	3.42407
1.905	-4.22974
1.9055	3.42407
1.906	10.17151
1.9065	13.49487
1.907	17.52319
1.9075	15.1062
1.908	18.12744
1.9085	19.53735
1.909	20.64514
1.9095	18.53027
1.91	17.6239
1.9105	15.30762
1.911	12.08496
1.9115	16.61682
1.912	18.8324
1.9125	19.83948
1.913	18.63098
1.9135	16.01257
1.914	14.09912
1.9145	3.62549
1.915	5.94177
1.9155	7.95593
1.916	9.26514
1.9165	2.01416
1.917	2.11487
1.9175	3.7262
1.918	5.74036
1.9185	7.04956
1.919	1.10779
1.9195	0.90637
1.92	-1.71204
1.9205	-5.13611
1.921	-4.43115
1.9215	-2.31628
1.922	-4.33044
1.9225	-8.8623
1.923	-10.77576
1.9235	-12.99133
1.924	-12.89062
1.9245	-7.5531
1.925	-9.26514
1.9255	-5.13611
1.926	-4.63257
1.9265	4.33044
1.927	5.94177
1.9275	4.93469
1.928	11.58142
1.9285	12.38708
1.929	6.94885
1.9295	6.04248
1.93	3.12195
1.9305	-1.10779
1.931	-0.70496
1.9315	-4.22974
1.932	-2.41699
1.9325	1.61133
1.933	-4.93469
1.9335	-0.90637
1.934	-0.10071
1.9345	10.57434
1.935	8.66089
1.9355	12.68921
1.936	14.70337
1.9365	22.55859
1.937	19.53735
1.9375	9.06372
1.938	7.85522
1.9385	4.63257
1.939	3.02124
1.9395	-2.01416
1.94	1.00708
1.9405	3.42407
1.941	7.75452
1.9415	8.45947
1.942	11.58142
1.9425	7.95593
1.943	-5.13611
1.9435	-0.70496
1.944	-7.04956
1.9445	-9.06372
1.945	-15.20691
1.9455	-12.78992
1.946	-5.0354
1.9465	-8.45947
1.947	-4.12903
1.9475	-9.36584
1.948	-4.53186
1.9485	0.60425
1.949	-4.22974
1.9495	-1.81274
1.95	-8.35876
1.9505	-23.8678
1.951	-36.55701
1.9515	-43.30444
1.952	-41.89453
1.9525	-38.974
1.953	-36.25488
1.9535	-21.75293
1.954	-0.70496
1.9545	6.2439
1.955	23.56567
1.9555	41.59241
1.956	60.92834
1.9565	67.8772
1.957	87.21313
1.9575	88.11951
1.958	85.90393
1.9585	79.15649
1.959	59.01489
1.9595	48.94409
1.96	44.51294
1.9605	32.52869
1.961	26.98975
1.9615	22.45789
1.962	17.12036
1.9625	2.21558
1.963	-3.8269
1.9635	-0.70496
1.964	9.06372
1.9645	10.37292
1.965	13.09204
1.9655	19.23523
1.966	4.33044
1.9665	-5.23682
1.967	-7.04956
1.9675	-15.20691
1.968	-8.05664
1.9685	-18.73169
1.969	-22.15576
1.9695	-25.98267
1.97	-22.45789
1.9705	-15.60974
1.971	-4.83398
1.9715	1.61133
1.972	1.61133
1.9725	3.22266
1.973	0.70496
1.9735	10.27222
1.974	4.02832
1.9745	14.09912
1.975	21.45081
1.9755	20.94727
1.976	25.37842
1.9765	35.95276
1.977	23.96851
1.9775	23.56567
1.978	13.797
1.9785	4.93469
1.979	-6.3446
1.9795	-18.8324
1.98	-27.99683
1.9805	-28.19824
1.981	-24.87488
1.9815	-29.20532
1.982	-33.9386
1.9825	-29.70886
1.983	-22.86072
1.9835	-18.42957
1.984	-17.22107
1.9845	-19.23523
1.985	-22.15576
1.9855	-15.40833
1.986	-7.95593
1.9865	0.50354
1.987	1.40991
1.9875	10.37292
1.988	16.81824
1.9885	19.33594
1.989	23.46497
1.9895	35.04639
1.99	31.11877
1.9905	29.50745
1.991	24.97559
1.9915	19.53735
1.992	14.09912
1.9925	8.96301
1.993	6.84814
1.9935	-2.81982
1.994	-13.29346
1.9945	-25.88196
1.995	-34.74426
1.9955	-35.85205
1.996	-37.46338
1.9965	-36.55701
1.997	-36.75842
1.9975	-32.12585
1.998	-30.31311
1.9985	-30.91736
1.999	-25.47913
1.9995	-22.15576
2	-13.39417
2.0005	3.8269
2.001	17.6239
2.0015	33.03223
2.002	45.82214
2.0025	51.26038
2.003	57.40356
2.0035	58.91418
2.004	61.43188
2.0045	56.79932
2.005	56.09436
2.0055	42.29736
2.006	36.55701
2.0065	27.89612
2.007	21.45081
2.0075	8.8623
2.008	8.96301
2.0085	6.94885
2.009	12.38708
2.0095	7.95593
2.01	4.83398
2.0105	1.3092
2.011	0.40283
2.0115	1.00708
2.012	-6.2439
2.0125	-1.3092
2.013	-1.51062
2.0135	-3.92761
2.014	0.70496
2.0145	-4.02832
2.015	-8.15735
2.0155	-9.46655
2.016	-6.44531
2.0165	-6.94885
2.017	-5.94177
2.0175	-7.85522
2.018	-12.48779
2.0185	-20.34302
2.019	-16.81824
2.0195	-19.53735
2.02	-15.60974
2.0205	-8.05664
2.021	-1.71204
2.0215	3.92761
2.022	10.47363
2.0225	14.19983
2.023	19.53735
2.0235	23.96851
2.024	29.50745
2.0245	30.71594
2.025	29.60815
2.0255	27.09045
2.026	29.00391
2.0265	24.16992
2.027	30.71594
2.0275	20.64514
2.028	17.52319
2.0285	14.09912
2.029	10.47363
2.0295	8.25806
2.03	-1.61133
2.0305	0.30212
2.031	-0.20142
2.0315	5.13611
2.032	-0.60425
2.0325	-2.61841
2.033	-10.27222
2.0335	-11.88354
2.034	-8.25806
2.0345	-1.10779
2.035	-4.93469
2.0355	-4.63257
2.036	0
2.0365	-4.22974
2.037	-1.3092
2.0375	2.11487
2.038	-0.70496
2.0385	-5.33752
2.039	2.21558
2.0395	0.30212
2.04	-5.0354
2.0405	-2.31628
2.041	-5.94177
2.0415	-10.47363
2.042	-10.77576
2.0425	-17.42249
2.043	-20.34302
2.0435	-20.04089
2.044	-18.12744
2.0445	-21.14868
2.045	-21.3501
2.0455	-17.52319
2.046	-14.70337
2.0465	-4.02832
2.047	-6.44531
2.0475	-10.77576
2.048	-9.56726
2.0485	-1.51062
2.049	6.14319
2.0495	11.68213
2.05	17.6239
2.0505	30.11169
2.051	29.10461
2.0515	28.50037
2.052	23.66638
2.0525	32.83081
2.053	35.04639
2.0535	31.62231
2.054	17.6239
2.0545	11.48071
2.055	-1.71204
2.0555	-5.53894
2.056	-22.6593
2.0565	-25.27771
2.057	-34.74426
2.0575	-37.7655
2.058	-42.39807
2.0585	-46.12427
2.059	-44.91577
2.0595	-26.88904
2.06	-13.29346
2.0605	11.2793
2.061	25.68054
2.0615	44.91577
2.062	53.67737
2.0625	59.82056
2.063	78.04871
2.0635	82.17773
2.064	82.27844
2.0645	78.85437
2.065	73.51685
2.0655	68.07861
2.066	58.41064
2.0665	48.84338
2.067	38.67188
2.0675	33.53577
2.068	17.6239
2.0685	10.77576
2.069	-0.50354
2.0695	5.74036
2.07	2.01416
2.0705	4.83398
2.071	4.83398
2.0715	8.25806
2.072	11.17859
2.0725	-1.61133
2.073	-11.98425
2.0735	-19.63806
2.074	-26.3855
2.0745	-15.30762
2.075	-15.60974
2.0755	-13.39417
2.076	-10.67505
2.0765	2.11487
2.077	0.80566
2.0775	1.91345
2.078	3.12195
2.0785	-0.10071
2.079	8.35876
2.0795	5.94177
2.08	-6.2439
2.0805	-4.73328
2.081	-15.30762
2.0815	-11.38
2.082	-8.35876
2.0825	-13.09204
2.083	-14.09912
2.0835	-14.90479
2.084	-16.61682
2.0845	-10.67505
2.085	-10.47363
2.0855	-8.66089
2.086	-6.84814
2.0865	-13.99841
2.087	-19.13452
2.0875	-18.02673
2.088	-19.94019
2.0885	-22.25647
2.089	-16.51611
2.0895	-9.26514
2.09	1.3092
2.0905	13.09204
2.091	23.66638
2.0915	35.2478
2.092	39.88037
2.0925	37.66479
2.093	42.90161
2.0935	37.96692
2.094	27.89612
2.0945	29.80957
2.095	26.48621
2.0955	23.46497
2.096	29.60815
2.0965	32.7301
2.097	39.07471
2.0975	36.65771
2.098	31.72302
2.0985	32.52869
2.099	34.24072
2.0995	40.38391
2.1	48.03772
2.1005	42.09595
2.101	36.25488
2.1015	36.4563
2.102	39.57825
2.1025	29.70886
2.103	23.8678
2.1035	15.71045
2.104	3.02124
2.1045	-4.22974
2.105	-12.5885
2.1055	-15.71045
2.106	-20.74585
2.1065	-15.40833
2.107	-19.23523
2.1075	-13.29346
2.108	-19.94019
2.1085	-29.20532
2.109	-26.3855
2.1095	-24.67346
2.11	-26.68762
2.1105	-20.04089
2.111	-20.84656
2.1115	-25.177
2.112	-18.93311
2.1125	-22.05505
2.113	-12.38708
2.1135	-10.37292
2.114	-10.27222
2.1145	-9.86938
2.115	-1.71204
2.1155	-0.10071
2.116	3.52478
2.1165	8.66089
2.117	15.60974
2.1175	18.22815
2.118	21.55151
2.1185	11.88354
2.119	8.7616
2.1195	-1.40991
2.12	-11.48071
2.1205	-16.91895
2.121	-22.96143
2.1215	-28.80249
2.122	-33.73718
2.1225	-34.64355
2.123	-34.54285
2.1235	-21.3501
2.124	-16.61682
2.1245	-3.8269
2.125	12.68921
2.1255	22.15576
2.126	34.94568
2.1265	45.2179
2.127	60.02197
2.1275	69.28711
2.128	72.81189
2.1285	79.15649
2.129	71.20056
2.1295	64.05029
2.13	55.79224
2.1305	47.33276
2.131	40.68604
2.1315	33.9386
2.132	14.09912
2.1325	6.04248
2.133	1.2085
2.1335	2.5177
2.134	5.53894
2.1345	-3.7262
2.135	-6.84814
2.1355	-11.2793
2.136	-4.02832
2.1365	-9.56726
2.137	-3.22266
2.1375	3.12195
2.138	1.91345
2.1385	1.81274
2.139	3.42407
2.1395	-3.7262
2.14	-4.53186
2.1405	-6.04248
2.141	-12.18567
2.1415	-17.42249
2.142	-26.88904
2.1425	-21.45081
2.143	-17.22107
2.1435	-18.12744
2.144	-21.85364
2.1445	-17.42249
2.145	-19.33594
2.1455	-21.65222
2.146	-31.01807
2.1465	-36.4563
2.147	-46.92993
2.1475	-51.36108
2.148	-43.50586
2.1485	-26.58691
2.149	-18.12744
2.1495	-6.44531
2.15	11.48071
2.1505	27.99683
2.151	36.75842
2.1515	49.74976
2.152	59.92126
2.1525	73.41614
2.153	68.98499
2.1535	77.04163
2.154	76.23596
2.1545	73.31543
2.155	72.71118
2.1555	55.89294
2.156	44.51294
2.1565	42.29736
2.157	36.35559
2.1575	25.47913
2.158	24.97559
2.1585	26.48621
2.159	18.53027
2.1595	8.25806
2.16	8.35876
2.1605	10.17151
2.161	2.71912
2.1615	-3.52478
2.162	-4.22974
2.1625	-1.2085
2.163	0.30212
2.1635	4.12903
2.164	-0.90637
2.1645	1.40991
2.165	4.02832
2.1655	6.84814
2.166	4.43115
2.1665	3.62549
2.167	-0.90637
2.1675	5.13611
2.168	1.3092
2.1685	4.12903
2.169	6.2439
2.1695	13.797
2.17	5.23682
2.1705	4.12903
2.171	4.12903
2.1715	2.92053
2.172	-1.71204
2.1725	-5.94177
2.173	3.02124
2.1735	0.60425
2.174	-3.8269
2.1745	-1.51062
2.175	-2.21558
2.1755	-3.02124
2.176	-7.75452
2.1765	-1.71204
2.177	-0.30212
2.1775	-0.40283
2.178	0
2.1785	-1.2085
2.179	-3.62549
2.1795	-4.33044
2.18	-1.00708
2.1805	-5.84106
2.181	-5.63965
2.1815	-7.45239
2.182	-9.26514
2.1825	-8.7616
2.183	-7.45239
2.1835	-8.66089
2.184	-13.09204
2.1845	-12.89062
2.185	-14.80408
2.1855	-11.2793
2.186	-5.53894
2.1865	-14.70337
2.187	-9.56726
2.1875	-2.11487
2.188	1.10779
2.1885	4.43115
2.189	6.14319
2.1895	14.80408
2.19	15.1062
2.1905	17.22107
2.191	18.12744
2.1915	28.80249
2.192	26.98975
2.1925	20.74585
2.193	20.84656
2.1935	17.6239
2.194	21.24939
2.1945	17.52319
2.195	16.41541
2.1955	15.91187
2.196	16.41541
2.1965	16.71753
2.197	17.52319
2.1975	20.1416
2.198	19.13452
2.1985	10.97717
2.199	-2.21558
2.1995	-6.04248
2.2	-8.25806
2.2005	-7.85522
2.201	-7.95593
2.2015	-9.86938
2.202	-11.48071
2.2025	-17.42249
2.203	-20.44373
2.2035	-24.97559
2.204	-31.21948
2.2045	-35.44922
2.205	-32.7301
2.2055	-31.4209
2.206	-36.05347
2.2065	-41.29028
2.207	-36.65771
2.2075	-31.92444
2.208	-29.80957
2.2085	-27.99683
2.209	-23.76709
2.2095	-20.1416
2.21	-16.11328
2.2105	-8.25806
2.211	0.50354
2.2115	7.65381
2.212	17.52319
2.2125	24.57275
2.213	27.6947
2.2135	27.39258
2.214	34.44214
2.2145	41.99524
2.215	42.19666
2.2155	45.52002
2.216	51.26038
2.2165	50.05188
2.217	42.90161
2.2175	39.27612
2.218	35.2478
2.2185	33.53577
2.219	33.43506
2.2195	27.29187
2.22	28.39966
2.2205	26.08337
2.221	20.24231
2.2215	19.73877
2.222	17.6239
2.2225	9.66797
2.223	1.61133
2.2235	-4.22974
2.224	-9.97009
2.2245	-16.51611
2.225	-15.1062
2.2255	-14.80408
2.226	-17.42249
2.2265	-11.88354
2.227	-14.50195
2.2275	-18.63098
2.228	-28.70178
2.2285	-30.41382
2.229	-18.42957
2.2295	-15.30762
2.23	-16.41541
2.2305	-0.90637
2.231	4.22974
2.2315	6.14319
2.232	15.71045
2.2325	20.34302
2.233	24.47205
2.2335	26.3855
2.234	30.71594
2.2345	33.13293
2.235	33.13293
2.2355	29.80957
2.236	29.30603
2.2365	25.78125
2.237	30.61523
2.2375	29.00391
2.238	28.29895
2.2385	28.50037
2.239	21.75293
2.2395	21.65222
2.24	25.57983
2.2405	15.81116
2.241	15.40833
2.2415	14.50195
2.242	16.3147
2.2425	14.09912
2.243	6.74744
2.2435	2.5177
2.244	2.21558
2.2445	8.25806
2.245	12.48779
2.2455	8.66089
2.246	5.94177
2.2465	5.33752
2.247	5.13611
2.2475	3.22266
2.248	-10.0708
2.2485	-14.70337
2.249	-15.1062
2.2495	-18.63098
2.25	-23.96851
2.2505	-43.70728
2.251	-54.88586
2.2515	-74.12109
2.252	-84.69543
2.2525	-88.11951
2.253	-100.40588
2.2535	-97.48535
2.254	-90.23438
2.2545	-67.97791
2.255	-52.06604
2.2555	-34.84497
2.256	-17.32178
2.2565	0.10071
2.257	22.76001
2.2575	42.19666
2.258	52.67029
2.2585	62.43896
2.259	75.53101
2.2595	84.69543
2.26	75.93384
2.2605	74.02039
2.261	65.96375
2.2615	58.91418
2.262	49.85046
2.2625	40.68604
2.263	29.30603
2.2635	18.73169
2.264	8.35876
2.2645	-1.51062
2.265	-6.3446
2.2655	-15.00549
2.266	-19.43665
2.2665	-25.177
2.267	-26.48621
2.2675	-15.00549
2.268	-3.52478
2.2685	3.02124
2.269	18.42957
2.2695	23.76709
2.27	34.34143
2.2705	49.14551
2.271	57.00073
2.2715	55.79224
2.272	59.21631
2.2725	60.4248
2.273	51.05896
2.2735	42.7002
2.274	32.62939
2.2745	23.06213
2.275	12.18567
2.2755	9.46655
2.276	0.50354
2.2765	-4.12903
2.277	-11.58142
2.2775	-17.52319
2.278	-18.8324
2.2785	-13.49487
2.279	-9.26514
2.2795	-11.58142
2.28	-12.28638
2.2805	-10.77576
2.281	-12.78992
2.2815	-4.93469
2.282	0.30212
2.2825	8.8623
2.283	7.45239
2.2835	12.5885
2.284	9.06372
2.2845	20.74585
2.285	22.6593
2.2855	27.79541
2.286	22.45789
2.2865	23.96851
2.287	22.05505
2.2875	16.51611
2.288	9.26514
2.2885	16.01257
2.289	12.89062
2.2895	17.6239
2.29	14.40125
2.2905	7.65381
2.291	9.46655
2.2915	5.84106
2.292	4.93469
2.2925	-6.64673
2.293	-0.50354
2.2935	-3.42407
2.294	-2.41699
2.2945	-0.70496
2.295	6.84814
2.2955	7.65381
2.296	9.36584
2.2965	12.99133
2.297	14.30054
2.2975	22.55859
2.298	21.95435
2.2985	19.43665
2.299	21.75293
2.2995	20.84656
2.3	16.41541
2.3005	15.50903
2.301	6.2439
2.3015	-1.51062
2.302	-5.84106
2.3025	-8.05664
2.303	-6.2439
2.3035	-3.52478
2.304	1.00708
2.3045	2.21558
2.305	10.27222
2.3055	6.44531
2.306	4.43115
2.3065	15.30762
2.307	9.97009
2.3075	16.71753
2.308	17.82532
2.3085	15.40833
2.309	12.18567
2.3095	15.91187
2.31	11.58142
2.3105	8.8623
2.311	14.70337
2.3115	15.50903
2.312	10.87646
2.3125	11.88354
2.313	14.19983
2.3135	8.05664
2.314	9.06372
2.3145	3.22266
2.315	-8.35876
2.3155	-17.12036
2.316	-25.177
2.3165	-25.78125
2.317	-27.19116
2.3175	-29.50745
2.318	-25.07629
2.3185	-21.95435
2.319	-12.5885
2.3195	-8.56018
2.32	-0.10071
2.3205	-6.84814
2.321	-10.0708
2.3215	-11.98425
2.322	-13.49487
2.3225	-8.45947
2.323	-18.32886
2.3235	-20.74585
2.324	-26.08337
2.3245	-24.37134
2.325	-19.63806
2.3255	-12.28638
2.326	-22.25647
2.3265	-26.78833
2.327	-30.91736
2.3275	-25.68054
2.328	-24.47205
2.3285	-27.59399
2.329	-21.14868
2.3295	-20.74585
2.33	-23.26355
2.3305	-19.53735
2.331	-6.94885
2.3315	11.48071
2.332	21.55151
2.3325	36.75842
2.333	49.54834
2.3335	53.77808
2.334	68.88428
2.3345	78.35083
2.335	78.35083
2.3355	89.02588
2.336	82.9834
2.3365	79.55933
2.337	67.17224
2.3375	48.03772
2.338	30.41382
2.3385	19.73877
2.339	10.27222
2.3395	1.00708
2.34	-15.60974
2.3405	-28.39966
2.341	-39.57825
2.3415	-30.71594
2.342	-25.37842
2.3425	-26.98975
2.343	-26.58691
2.3435	-29.30603
2.344	-18.22815
2.3445	-19.73877
2.345	-12.48779
2.3455	-4.63257
2.346	5.43823
2.3465	15.81116
2.347	20.24231
2.3475	30.31311
2.348	37.96692
2.3485	44.61365
2.349	57.10144
2.3495	68.78357
2.35	66.87012
2.3505	57.50427
2.351	44.91577
2.3515	32.7301
2.352	25.27771
2.3525	16.91895
2.353	5.33752
2.3535	-0.30212
2.354	-0.40283
2.3545	3.7262
2.355	-7.95593
2.3555	-20.04089
2.356	-26.18408
2.3565	-24.87488
2.357	-26.48621
2.3575	-33.33435
2.358	-36.35559
2.3585	-37.16125
2.359	-43.10303
2.3595	-36.15417
2.36	-33.53577
2.3605	-35.54993
2.361	-32.7301
2.3615	-27.19116
2.362	-7.5531
2.3625	-0.10071
2.363	17.6239
2.3635	30.61523
2.364	49.44763
2.3645	55.3894
2.365	64.151
2.3655	72.00623
2.366	83.88977
2.3665	79.2572
2.367	78.65295
2.3675	58.81348
2.368	46.72852
2.3685	34.03931
2.369	23.26355
2.3695	6.74744
2.37	-0.90637
2.3705	-6.84814
2.371	-18.22815
2.3715	-24.16992
2.372	-25.47913
2.3725	-29.80957
2.373	-27.19116
2.3735	-19.53735
2.374	-16.01257
2.3745	-6.2439
2.375	-4.12903
2.3755	-1.61133
2.376	4.73328
2.3765	2.31628
2.377	10.97717
2.3775	10.17151
2.378	6.74744
2.3785	9.76868
2.379	10.47363
2.3795	14.40125
2.38	8.66089
2.3805	13.09204
2.381	2.5177
2.3815	5.63965
2.382	4.43115
2.3825	8.56018
2.383	1.61133
2.3835	-16.3147
2.384	-21.85364
2.3845	-27.89612
2.385	-30.01099
2.3855	-33.83789
2.386	-32.52869
2.3865	-30.01099
2.387	-28.19824
2.3875	-23.96851
2.388	-28.29895
2.3885	-29.70886
2.389	-28.70178
2.3895	-24.06921
2.39	-21.65222
2.3905	-9.76868
2.391	7.04956
2.3915	14.60266
2.392	22.35718
2.3925	27.99683
2.393	39.07471
2.3935	53.87878
2.394	59.71985
2.3945	70.19348
2.395	70.69702
2.3955	80.36499
2.396	68.78357
2.3965	61.23047
2.397	49.64905
2.3975	36.95984
2.398	24.27063
2.3985	7.85522
2.399	-4.33044
2.3995	-13.797
2.4	-13.89771
2.4005	-16.01257
2.401	-9.86938
2.4015	-3.7262
2.402	-0.70496
2.4025	7.65381
2.403	6.14319
2.4035	12.28638
2.404	6.04248
2.4045	1.91345
2.405	8.56018
2.4055	3.02124
2.406	2.92053
2.4065	-7.75452
2.407	-8.05664
2.4075	-10.87646
2.408	-15.30762
2.4085	-26.88904
2.409	-36.25488
2.4095	-36.55701
2.41	-38.57117
2.4105	-40.1825
2.411	-31.72302
2.4115	-28.9032
2.412	-17.82532
2.4125	-5.74036
2.413	-4.83398
2.4135	5.33752
2.414	8.7616
2.4145	16.71753
2.415	21.55151
2.4155	19.94019
2.416	19.53735
2.4165	9.36584
2.417	9.56726
2.4175	4.02832
2.418	7.25098
2.4185	14.90479
2.419	19.63806
2.4195	23.66638
2.42	26.78833
2.4205	26.58691
2.421	34.94568
2.4215	30.91736
2.422	32.22656
2.4225	22.96143
2.423	23.96851
2.4235	22.05505
2.424	23.36426
2.4245	22.25647
2.425	27.79541
2.4255	24.97559
2.426	17.52319
2.4265	13.69629
2.427	10.17151
2.4275	4.83398
2.428	-2.5177
2.4285	-7.04956
2.429	-11.17859
2.4295	-9.26514
2.43	-10.67505
2.4305	-7.5531
2.431	-6.2439
2.4315	-8.96301
2.432	-6.74744
2.4325	-8.96301
2.433	-3.12195
2.4335	-7.85522
2.434	-3.22266
2.4345	0.20142
2.435	10.17151
2.4355	10.57434
2.436	16.51611
2.4365	21.04797
2.437	25.37842
2.4375	24.77417
2.438	15.1062
2.4385	11.48071
2.439	14.80408
2.4395	10.67505
2.44	13.29346
2.4405	9.86938
2.441	7.65381
2.4415	3.7262
2.442	-3.32336
2.4425	-3.62549
2.443	-1.40991
2.4435	3.32336
2.444	8.7616
2.4445	7.15027
2.445	8.15735
2.4455	9.36584
2.446	2.01416
2.4465	-13.797
2.447	-24.47205
2.4475	-28.19824
2.448	-38.06763
2.4485	-40.78674
2.449	-44.0094
2.4495	-34.84497
2.45	-37.46338
2.4505	-29.50745
2.451	-13.797
2.4515	0.90637
2.452	10.67505
2.4525	25.88196
2.453	38.36975
2.4535	54.48303
2.454	66.56799
2.4545	73.01331
2.455	82.88269
2.4555	78.75366
2.456	60.4248
2.4565	53.77808
2.457	43.70728
2.4575	33.53577
2.458	21.04797
2.4585	7.45239
2.459	-2.41699
2.4595	-17.6239
2.46	-29.40674
2.4605	-37.46338
2.461	-53.57666
2.4615	-57.20215
2.462	-51.76392
2.4625	-44.11011
2.463	-47.7356
2.4635	-41.89453
2.464	-44.41223
2.4645	-45.52002
2.465	-39.98108
2.4655	-34.74426
2.466	-28.09753
2.4665	-15.91187
2.467	2.61841
2.4675	21.45081
2.468	35.65063
2.4685	41.79382
2.469	63.44604
2.4695	74.2218
2.47	83.99048
2.4705	92.04712
2.471	95.87402
2.4715	91.64429
2.472	78.95508
2.4725	77.04163
2.473	63.54675
2.4735	51.46179
2.474	28.19824
2.4745	10.67505
2.475	-6.74744
2.4755	-19.94019
2.476	-28.80249
2.4765	-35.34851
2.477	-34.14001
2.4775	-28.60107
2.478	-22.35718
2.4785	-26.28479
2.479	-25.27771
2.4795	-28.70178
2.48	-24.47205
2.4805	-20.64514
2.481	-16.21399
2.4815	-7.45239
2.482	-9.46655
2.4825	-3.92761
2.483	0.10071
2.4835	2.81982
2.484	6.64673
2.4845	7.85522
2.485	14.19983
2.4855	12.18567
2.486	12.38708
2.4865	21.24939
2.487	17.72461
2.4875	22.15576
2.488	24.97559
2.4885	25.47913
2.489	9.76868
2.4895	6.84814
2.49	-0.60425
2.4905	-9.06372
2.491	-21.55151
2.4915	-29.30603
2.492	-35.04639
2.4925	-37.26196
2.493	-35.34851
2.4935	-27.99683
2.494	-20.34302
2.4945	-19.23523
2.495	-13.99841
2.4955	-21.45081
2.496	-18.53027
2.4965	-12.5885
2.497	-8.35876
2.4975	-5.33752
2.498	-1.10779
2.4985	1.61133
2.499	5.13611
2.4995	12.28638
2.5	15.40833
2.5005	15.30762
2.501	12.89062
2.5015	9.76868
2.502	7.5531
2.5025	13.59558
2.503	11.58142
2.5035	13.29346
2.504	13.19275
2.5045	15.50903
2.505	11.17859
2.5055	6.64673
2.506	3.52478
2.5065	5.63965
2.507	-0.20142
2.5075	0.60425
2.508	-3.52478
2.5085	-3.22266
2.509	-1.2085
2.5095	-2.21558
2.51	-1.81274
2.5105	-0.70496
2.511	15.50903
2.5115	20.44373
2.512	23.66638
2.5125	18.32886
2.513	20.74585
2.5135	19.83948
2.514	13.19275
2.5145	18.73169
2.515	14.90479
2.5155	2.41699
2.516	-7.45239
2.5165	-13.49487
2.517	-15.50903
2.5175	-15.30762
2.518	-17.6239
2.5185	-22.6593
2.519	-35.65063
2.5195	-42.09595
2.52	-40.38391
2.5205	-37.16125
2.521	-36.05347
2.5215	-19.63806
2.522	-7.65381
2.5225	2.21558
2.523	21.14868
2.5235	35.04639
2.524	49.24622
2.5245	60.4248
2.525	69.68994
2.5255	65.86304
2.526	65.56091
2.5265	64.55383
2.527	62.13684
2.5275	57.10144
2.528	45.92285
2.5285	36.35559
2.529	35.14709
2.5295	24.87488
2.53	13.99841
2.5305	10.0708
2.531	6.3446
2.5315	8.8623
2.532	-0.20142
2.5325	-7.25098
2.533	-24.27063
2.5335	-39.67896
2.534	-52.06604
2.5345	-61.23047
2.535	-69.89136
2.5355	-74.2218
2.536	-78.55225
2.5365	-74.02039
2.537	-65.66162
2.5375	-62.9425
2.538	-65.05737
2.5385	-56.29578
2.539	-45.41931
2.5395	-29.80957
2.54	-14.60266
2.5405	0.80566
2.541	8.96301
2.5415	26.08337
2.542	45.62073
2.5425	62.74109
2.543	77.64587
2.5435	78.95508
2.544	83.68835
2.5445	86.60889
2.545	85.29968
2.5455	76.63879
2.546	72.61047
2.5465	66.76941
2.547	54.28162
2.5475	38.06763
2.548	37.46338
2.5485	33.43506
2.549	34.24072
2.5495	32.52869
2.55	32.52869
2.5505	31.72302
2.551	30.71594
2.5515	32.93152
2.552	19.83948
2.5525	10.67505
2.553	-9.46655
2.5535	-17.22107
2.554	-23.16284
2.5545	-16.51611
2.555	-17.32178
2.5555	-12.18567
2.556	-15.20691
2.5565	-15.20691
2.557	-13.29346
2.5575	-11.98425
2.558	-4.53186
2.5585	-11.2793
2.559	-9.16443
2.5595	-13.09204
2.56	-7.45239
2.5605	-5.63965
2.561	-5.84106
2.5615	-2.81982
2.562	-0.70496
2.5625	0.10071
2.563	2.01416
2.5635	3.52478
2.564	3.02124
2.5645	6.2439
2.565	7.95593
2.5655	12.38708
2.566	10.77576
2.5665	14.70337
2.567	17.82532
2.5675	7.04956
2.568	13.89771
2.5685	14.80408
2.569	15.71045
2.5695	18.32886
2.57	12.38708
2.5705	18.53027
2.571	22.25647
2.5715	13.29346
2.572	6.44531
2.5725	-0.40283
2.573	-1.2085
2.5735	-4.83398
2.574	-3.32336
2.5745	0.60425
2.575	-0.40283
2.5755	-0.80566
2.576	0.20142
2.5765	-0.60425
2.577	-2.41699
2.5775	2.5177
2.578	-3.32336
2.5785	-2.5177
2.579	-1.81274
2.5795	-2.41699
2.58	-2.31628
2.5805	-2.81982
2.581	0.60425
2.5815	-0.40283
2.582	3.32336
2.5825	4.33044
2.583	2.61841
2.5835	-0.60425
2.584	-1.81274
2.5845	5.63965
2.585	7.85522
2.5855	14.80408
2.586	18.22815
2.5865	12.48779
2.587	11.07788
2.5875	7.65381
2.588	3.32336
2.5885	2.61841
2.589	4.22974
2.5895	15.30762
2.59	17.52319
2.5905	9.46655
2.591	6.44531
2.5915	9.06372
2.592	11.98425
2.5925	18.63098
2.593	20.04089
2.5935	19.83948
2.594	11.78284
2.5945	5.0354
2.595	-2.81982
2.5955	-5.33752
2.596	-7.45239
2.5965	-8.56018
2.597	-11.98425
2.5975	-12.89062
2.598	-10.17151
2.5985	-4.43115
2.599	-4.93469
2.5995	-9.46655
2.6	-12.89062
2.6005	-3.22266
2.601	-4.93469
2.6015	-1.10779
2.602	-6.64673
2.6025	-1.51062
2.603	0.50354
2.6035	-5.23682
2.604	-3.7262
2.6045	-1.91345
2.605	-6.04248
2.6055	-8.7616
2.606	-13.59558
2.6065	-11.68213
2.607	-13.69629
2.6075	-12.18567
2.608	-10.77576
2.6085	-2.61841
2.609	7.65381
2.6095	10.27222
2.61	18.93311
2.6105	19.63806
2.611	18.93311
2.6115	18.93311
2.612	27.49329
2.6125	28.9032
2.613	26.58691
2.6135	24.57275
2.614	32.32727
2.6145	32.02515
2.615	24.87488
2.6155	18.93311
2.616	15.00549
2.6165	8.96301
2.617	5.0354
2.6175	-4.83398
2.618	-12.68921
2.6185	-17.52319
2.619	-17.22107
2.6195	-16.91895
2.62	-21.95435
2.6205	-31.92444
2.621	-31.32019
2.6215	-39.67896
2.622	-48.23914
2.6225	-53.07312
2.623	-51.36108
2.6235	-53.27454
2.624	-65.46021
2.6245	-60.3241
2.625	-60.02197
2.6255	-54.88586
2.626	-48.94409
2.6265	-33.83789
2.627	-20.44373
2.6275	6.74744
2.628	29.40674
2.6285	57.60498
2.629	76.7395
2.6295	94.86694
2.63	115.7135
2.6305	127.69775
2.631	129.71191
2.6315	126.89209
2.632	118.02979
2.6325	103.62854
2.633	94.76624
2.6335	83.88977
2.634	73.01331
2.6345	55.2887
2.635	36.4563
2.6355	17.01965
2.636	-1.10779
2.6365	-8.45947
2.637	-18.53027
2.6375	-18.22815
2.638	-15.60974
2.6385	-15.30762
2.639	-12.99133
2.6395	-12.89062
2.64	-10.47363
2.6405	-28.09753
2.641	-29.70886
2.6415	-32.7301
2.642	-40.78674
2.6425	-35.65063
2.643	-34.94568
2.6435	-44.0094
2.644	-39.57825
2.6445	-24.47205
2.645	-18.63098
2.6455	-10.17151
2.646	2.71912
2.6465	7.65381
2.647	15.1062
2.6475	17.72461
2.648	27.79541
2.6485	37.46338
2.649	45.01648
2.6495	43.00232
2.65	37.66479
2.6505	33.13293
2.651	27.89612
2.6515	31.11877
2.652	35.65063
2.6525	25.07629
2.653	19.33594
2.6535	6.04248
2.654	5.33752
2.6545	-5.0354
2.655	-5.0354
2.6555	-7.65381
2.656	-11.17859
2.6565	-12.89062
2.657	-6.84814
2.6575	5.13611
2.658	4.43115
2.6585	9.36584
2.659	17.82532
2.6595	23.16284
2.66	20.44373
2.6605	24.57275
2.661	25.78125
2.6615	23.26355
2.662	21.95435
2.6625	25.177
2.663	18.8324
2.6635	12.08496
2.664	3.12195
2.6645	-6.94885
2.665	-11.48071
2.6655	-10.57434
2.666	-2.71912
2.6665	-2.81982
2.667	-1.81274
2.6675	-4.93469
2.668	-3.32336
2.6685	-13.19275
2.669	-10.47363
2.6695	-16.11328
2.67	-17.72461
2.6705	-16.91895
2.671	-10.27222
2.6715	-7.65381
2.672	-12.38708
2.6725	-10.77576
2.673	-6.3446
2.6735	-4.53186
2.674	0.20142
2.6745	-4.33044
2.675	-7.04956
2.6755	-7.35168
2.676	-5.84106
2.6765	-15.81116
2.677	-27.39258
2.6775	-31.82373
2.678	-39.67896
2.6785	-41.39099
2.679	-33.53577
2.6795	-30.71594
2.68	-14.09912
2.6805	-11.07788
2.681	-3.52478
2.6815	9.97009
2.682	11.48071
2.6825	11.38
2.683	19.43665
2.6835	30.51453
2.684	36.4563
2.6845	43.00232
2.685	41.18958
2.6855	50.2533
2.686	50.15259
2.6865	50.2533
2.687	43.80798
2.6875	37.46338
2.688	29.80957
2.6885	21.14868
2.689	18.53027
2.6895	13.09204
2.69	15.71045
2.6905	12.68921
2.691	3.42407
2.6915	-2.01416
2.692	-6.74744
2.6925	-13.09204
2.693	-23.16284
2.6935	-28.80249
2.694	-23.36426
2.6945	-27.49329
2.695	-27.89612
2.6955	-38.06763
2.696	-39.37683
2.6965	-43.80798
2.697	-49.54834
2.6975	-61.43188
2.698	-76.84021
2.6985	-74.2218
2.699	-81.57349
2.6995	-80.26428
2.7	-74.12109
2.7005	-57.9071
2.701	-38.36975
2.7015	-13.29346
2.702	-5.33752
2.7025	4.33044
2.703	18.73169
2.7035	35.75134
2.704	56.90002
2.7045	75.53101
2.705	93.96057
2.7055	108.26111
2.706	119.54041
2.7065	115.20996
2.707	119.54041
2.7075	120.95032
2.708	118.73474
2.7085	117.02271
2.709	106.24695
2.7095	98.49243
2.71	94.46411
2.7105	86.70959
2.711	80.36499
2.7115	64.55383
2.712	54.28162
2.7125	44.11011
2.713	27.99683
2.7135	19.73877
2.714	19.73877
2.7145	8.25806
2.715	11.38
2.7155	9.76868
2.716	-1.91345
2.7165	-14.09912
2.717	-11.58142
2.7175	-9.36584
2.718	-12.99133
2.7185	-18.63098
2.719	-22.15576
2.7195	-23.76709
2.72	-21.24939
2.7205	-9.46655
2.721	-10.37292
2.7215	-18.63098
2.722	-19.13452
2.7225	-22.6593
2.723	-28.29895
2.7235	-37.36267
2.724	-38.06763
2.7245	-44.21082
2.725	-42.49878
2.7255	-36.25488
2.726	-33.9386
2.7265	-21.14868
2.727	-12.89062
2.7275	-11.58142
2.728	-1.51062
2.7285	8.8623
2.729	15.00549
2.7295	13.29346
2.73	9.76868
2.7305	11.2793
2.731	29.91028
2.7315	26.58691
2.732	27.39258
2.7325	26.48621
2.733	29.50745
2.7335	32.62939
2.734	24.27063
2.7345	28.60107
2.735	22.15576
2.7355	24.16992
2.736	17.72461
2.7365	19.94019
2.737	15.60974
2.7375	12.99133
2.738	4.63257
2.7385	-4.63257
2.739	-7.45239
2.7395	-10.57434
2.74	-11.78284
2.7405	-16.41541
2.741	-8.35876
2.7415	-6.94885
2.742	-11.07788
2.7425	-8.56018
2.743	-15.20691
2.7435	-20.54443
2.744	-24.47205
2.7445	-16.91895
2.745	-14.80408
2.7455	-16.11328
2.746	-6.84814
2.7465	-5.74036
2.747	1.3092
2.7475	2.61841
2.748	3.52478
2.7485	9.86938
2.749	6.54602
2.7495	12.28638
2.75	18.53027
2.7505	18.8324
2.751	23.66638
2.7515	27.19116
2.752	21.95435
2.7525	24.97559
2.753	25.98267
2.7535	25.27771
2.754	28.29895
2.7545	28.50037
2.755	28.50037
2.7555	15.81116
2.756	19.13452
2.7565	10.37292
2.757	7.45239
2.7575	-0.20142
2.758	1.51062
2.7585	-4.93469
2.759	-10.37292
2.7595	-11.78284
2.76	-12.28638
2.7605	-8.96301
2.761	-7.25098
2.7615	-9.66797
2.762	1.2085
2.7625	1.61133
2.763	6.54602
2.7635	3.7262
2.764	7.5531
2.7645	7.85522
2.765	3.8269
2.7655	1.81274
2.766	1.51062
2.7665	-4.73328
2.767	-10.37292
2.7675	-15.71045
2.768	-21.75293
2.7685	-21.65222
2.769	-20.94727
2.7695	-23.46497
2.77	-23.46497
2.7705	-33.23364
2.771	-35.85205
2.7715	-37.7655
2.772	-33.73718
2.7725	-20.24231
2.773	-6.84814
2.7735	-0.40283
2.774	14.09912
2.7745	23.96851
2.775	33.9386
2.7755	39.67896
2.776	46.72852
2.7765	38.06763
2.777	43.50586
2.7775	44.91577
2.778	40.1825
2.7785	34.54285
2.779	26.78833
2.7795	14.90479
2.78	6.04248
2.7805	-6.64673
2.781	-12.68921
2.7815	-24.67346
2.782	-29.40674
2.7825	-33.53577
2.783	-23.8678
2.7835	-23.56567
2.784	-30.01099
2.7845	-23.56567
2.785	-20.74585
2.7855	-15.00549
2.786	-13.19275
2.7865	-9.06372
2.787	1.71204
2.7875	13.49487
2.788	31.52161
2.7885	39.07471
2.789	37.66479
2.7895	39.98108
2.79	34.03931
2.7905	28.50037
2.791	24.37134
2.7915	19.53735
2.792	2.01416
2.7925	1.40991
2.793	-15.50903
2.7935	-11.48071
2.794	-13.09204
2.7945	-10.17151
2.795	-12.68921
2.7955	-11.48071
2.796	-8.56018
2.7965	-0.50354
2.797	12.78992
2.7975	27.79541
2.798	37.26196
2.7985	44.51294
2.799	52.771
2.7995	50.65613
2.8	48.74268
2.8005	37.7655
2.801	32.42798
2.8015	19.83948
2.802	10.67505
2.8025	12.99133
2.803	6.04248
2.8035	0.10071
2.804	-6.2439
2.8045	-9.66797
2.805	-16.11328
2.8055	-11.48071
2.806	-6.14319
2.8065	3.12195
2.807	12.48779
2.8075	12.99133
2.808	20.04089
2.8085	21.45081
2.809	20.94727
2.8095	16.3147
2.81	13.89771
2.8105	17.12036
2.811	18.32886
2.8115	17.42249
2.812	21.65222
2.8125	19.53735
2.813	25.37842
2.8135	17.12036
2.814	21.3501
2.8145	18.02673
2.815	18.12744
2.8155	9.26514
2.816	5.63965
2.8165	-1.51062
2.817	0.80566
2.8175	1.51062
2.818	-9.16443
2.8185	-4.33044
2.819	-11.98425
2.8195	-10.37292
2.82	-9.97009
2.8205	-4.02832
2.821	-1.10779
2.8215	1.51062
2.822	4.63257
2.8225	5.13611
2.823	0.70496
2.8235	1.81274
2.824	1.51062
2.8245	2.81982
2.825	13.49487
2.8255	9.46655
2.826	7.5531
2.8265	0.30212
2.827	0.40283
2.8275	-7.45239
2.828	-6.04248
2.8285	-6.74744
2.829	-9.66797
2.8295	-14.50195
2.83	-27.19116
2.8305	-34.94568
2.831	-41.39099
2.8315	-45.62073
2.832	-48.44055
2.8325	-48.94409
2.833	-45.52002
2.8335	-45.3186
2.834	-44.0094
2.8345	-48.13843
2.835	-59.21631
2.8355	-56.5979
2.836	-62.03613
2.8365	-64.75525
2.837	-66.97083
2.8375	-55.99365
2.838	-43.60657
2.8385	-28.50037
2.839	-9.76868
2.8395	9.36584
2.84	26.18408
2.8405	41.08887
2.841	58.71277
2.8415	73.21472
2.842	89.12659
2.8425	96.47827
2.843	92.55066
2.8435	84.69543
2.844	72.00623
2.8445	64.35242
2.845	35.95276
2.8455	6.44531
2.846	-12.78992
2.8465	-17.72461
2.847	-25.27771
2.8475	-15.1062
2.848	-10.17151
2.8485	1.2085
2.849	1.00708
2.8495	4.63257
2.85	10.97717
2.8505	27.39258
2.851	41.79382
2.8515	47.13135
2.852	57.9071
2.8525	61.53259
2.853	55.59082
2.8535	51.5625
2.854	41.89453
2.8545	31.01807
2.855	23.06213
2.8555	19.03381
2.856	16.51611
2.8565	7.25098
2.857	4.93469
2.8575	1.61133
2.858	7.04956
2.8585	9.76868
2.859	13.89771
2.8595	15.30762
2.86	18.8324
2.8605	16.41541
2.861	11.48071
2.8615	4.33044
2.862	2.21558
2.8625	-6.14319
2.863	-11.88354
2.8635	-21.95435
2.864	-15.40833
2.8645	-7.35168
2.865	0.50354
2.8655	9.46655
2.866	10.67505
2.8665	14.30054
2.867	19.53735
2.8675	22.45789
2.868	26.98975
2.8685	29.40674
2.869	27.89612
2.8695	30.41382
2.87	25.27771
2.8705	27.79541
2.871	24.77417
2.8715	30.91736
2.872	28.09753
2.8725	22.76001
2.873	9.86938
2.8735	-4.12903
2.874	-9.06372
2.8745	-14.80408
2.875	-24.27063
2.8755	-31.72302
2.876	-32.32727
2.8765	-43.00232
2.877	-52.56958
2.8775	-51.5625
2.878	-54.68445
2.8785	-51.36108
2.879	-46.12427
2.8795	-29.60815
2.88	-20.74585
2.8805	-6.14319
2.881	12.38708
2.8815	20.74585
2.882	38.06763
2.8825	52.771
2.883	57.60498
2.8835	54.78516
2.884	55.59082
2.8845	41.4917
2.885	33.83789
2.8855	34.34143
2.886	28.29895
2.8865	24.87488
2.887	24.16992
2.8875	15.30762
2.888	14.50195
2.8885	10.87646
2.889	4.43115
2.8895	0.30212
2.89	4.83398
2.8905	0.90637
2.891	2.11487
2.8915	9.46655
2.892	8.35876
2.8925	5.13611
2.893	6.44531
2.8935	1.2085
2.894	-1.00708
2.8945	-2.01416
2.895	1.2085
2.8955	1.00708
2.896	0.10071
2.8965	-3.12195
2.897	1.40991
2.8975	-2.11487
2.898	-11.98425
2.8985	-17.52319
2.899	-19.94019
2.8995	-23.76709
2.9	-27.59399
2.9005	-32.02515
2.901	-33.33435
2.9015	-29.50745
2.902	-29.70886
2.9025	-21.14868
2.903	-13.49487
2.9035	-15.71045
2.904	-14.50195
2.9045	-12.38708
2.905	2.5177
2.9055	11.2793
2.906	16.71753
2.9065	27.59399
2.907	30.2124
2.9075	30.91736
2.908	20.84656
2.9085	19.43665
2.909	8.56018
2.9095	0.70496
2.91	1.00708
2.9105	6.2439
2.911	2.71912
2.9115	-6.84814
2.912	-24.77417
2.9125	-38.974
2.913	-45.92285
2.9135	-53.67737
2.914	-59.41772
2.9145	-56.29578
2.915	-50.15259
2.9155	-37.66479
2.916	-17.52319
2.9165	3.7262
2.917	11.38
2.9175	34.34143
2.918	50.05188
2.9185	63.44604
2.919	82.58057
2.9195	82.27844
2.92	87.71667
2.9205	93.96057
2.921	84.99756
2.9215	72.40906
2.922	51.5625
2.9225	36.75842
2.923	17.32178
2.9235	8.8623
2.924	3.8269
2.9245	-4.63257
2.925	-9.66797
2.9255	-3.12195
2.926	6.2439
2.9265	6.2439
2.927	8.35876
2.9275	9.26514
2.928	9.56726
2.9285	13.69629
2.929	8.35876
2.9295	3.7262
2.93	0.20142
2.9305	-5.63965
2.931	-16.41541
2.9315	-20.24231
2.932	-25.88196
2.9325	-15.00549
2.933	-12.28638
2.9335	-13.19275
2.934	-10.97717
2.9345	-4.93469
2.935	-0.50354
2.9355	0.50354
2.936	10.17151
2.9365	17.92603
2.937	10.57434
2.9375	17.01965
2.938	9.46655
2.9385	10.97717
2.939	13.29346
2.9395	13.09204
2.94	11.78284
2.9405	12.5885
2.941	19.53735
2.9415	14.90479
2.942	20.04089
2.9425	18.93311
2.943	13.89771
2.9435	8.45947
2.944	-1.91345
2.9445	-14.40125
2.945	-20.44373
2.9455	-28.9032
2.946	-44.71436
2.9465	-51.26038
2.947	-50.85754
2.9475	-44.71436
2.948	-39.88037
2.9485	-32.32727
2.949	-25.07629
2.9495	-19.03381
2.95	-18.12744
2.9505	-11.2793
2.951	0.80566
2.9515	11.68213
2.952	18.22815
2.9525	22.15576
2.953	24.37134
2.9535	18.63098
2.954	8.05664
2.9545	-2.31628
2.955	-5.84106
2.9555	-15.1062
2.956	-23.8678
2.9565	-33.43506
2.957	-43.50586
2.9575	-41.29028
2.958	-31.72302
2.9585	-20.1416
2.959	3.8269
2.9595	26.58691
2.96	47.43347
2.9605	68.38074
2.961	78.25012
2.9615	87.91809
2.962	100.10376
2.9625	101.21155
2.963	91.44287
2.9635	77.44446
2.964	71.90552
2.9645	60.4248
2.965	49.64905
2.9655	28.60107
2.966	24.57275
2.9665	16.91895
2.967	4.53186
2.9675	-1.91345
2.968	-13.797
2.9685	-15.60974
2.969	-24.97559
2.9695	-27.39258
2.97	-35.34851
2.9705	-31.01807
2.971	-32.7301
2.9715	-26.68762
2.972	-24.27063
2.9725	-18.73169
2.973	-18.93311
2.9735	-20.64514
2.974	-17.01965
2.9745	-13.29346
2.975	-8.8623
2.9755	2.71912
2.976	4.22974
2.9765	16.51611
2.977	23.96851
2.9775	26.98975
2.978	26.78833
2.9785	30.01099
2.979	21.45081
2.9795	19.73877
2.98	12.99133
2.9805	1.00708
2.981	-10.17151
2.9815	-15.81116
2.982	-21.3501
2.9825	-26.28479
2.983	-28.60107
2.9835	-29.30603
2.984	-28.29895
2.9845	-26.48621
2.985	-26.98975
2.9855	-21.3501
2.986	-23.56567
2.9865	-22.15576
2.987	-16.01257
2.9875	-3.62549
2.988	12.48779
2.9885	23.16284
2.989	26.3855
2.9895	47.53418
2.99	55.08728
2.9905	63.34534
2.991	68.07861
2.9915	73.31543
2.992	76.43738
2.9925	77.24304
2.993	82.68127
2.9935	68.68286
2.994	52.16675
2.9945	39.07471
2.995	32.22656
2.9955	18.12744
2.996	12.68921
2.9965	1.61133
2.997	-3.8269
2.9975	-4.73328
2.998	-4.73328
2.9985	7.25098
2.999	8.15735
2.9995	6.2439
3	12.48779
3.0005	8.45947
3.001	9.97009
3.0015	6.84814
3.002	8.05664
3.0025	11.38
3.003	9.97009
3.0035	12.78992
3.004	10.37292
3.0045	5.84106
3.005	1.3092
3.0055	-1.91345
3.006	-3.7262
3.0065	-12.5885
3.007	-9.06372
3.0075	-7.65381
3.008	-16.81824
3.0085	-14.30054
3.009	-13.09204
3.0095	-6.54602
3.01	-4.63257
3.0105	-3.12195
3.011	-2.41699
3.0115	2.71912
3.012	-1.51062
3.0125	-2.92053
3.013	-14.30054
3.0135	-12.48779
3.014	-16.91895
3.0145	-14.19983
3.015	-5.43823
3.0155	-1.61133
3.016	-2.61841
3.0165	3.42407
3.017	2.21558
3.0175	-2.11487
3.018	-1.10779
3.0185	-2.41699
3.019	-3.22266
3.0195	0.60425
3.02	-11.68213
3.0205	-6.14319
3.021	-3.62549
3.0215	5.43823
3.022	13.29346
3.0225	16.21399
3.023	12.99133
3.0235	3.92761
3.024	-9.76868
3.0245	-13.69629
3.025	-22.86072
3.0255	-34.44214
3.026	-44.0094
3.0265	-59.71985
3.027	-67.67578
3.0275	-75.32959
3.028	-65.3595
3.0285	-45.52002
3.029	-19.63806
3.0295	7.04956
3.03	28.9032
3.0305	51.76392
3.031	76.13525
3.0315	85.90393
3.032	96.7804
3.0325	93.25562
3.033	76.13525
3.0335	54.78516
3.034	33.53577
3.0345	22.6593
3.035	13.69629
3.0355	6.14319
3.036	-5.63965
3.0365	-8.56018
3.037	-17.12036
3.0375	-23.8678
3.038	-34.84497
3.0385	-33.73718
3.039	-20.74585
3.0395	-12.38708
3.04	-6.84814
3.0405	-0.90637
3.041	-4.93469
3.0415	-8.66089
3.042	-6.14319
3.0425	3.92761
3.043	17.52319
3.0435	21.95435
3.044	30.61523
3.0445	44.81506
3.045	47.03064
3.0455	43.80798
3.046	53.27454
3.0465	51.96533
3.047	49.85046
3.0475	46.72852
3.048	38.47046
3.0485	29.20532
3.049	27.89612
3.0495	24.16992
3.05	24.27063
3.0505	24.97559
3.051	16.11328
3.0515	17.92603
3.052	12.78992
3.0525	10.17151
3.053	10.0708
3.0535	9.66797
3.054	12.78992
3.0545	8.8623
3.055	6.64673
3.0555	-1.10779
3.056	-4.73328
3.0565	-4.02832
3.057	-5.23682
3.0575	-13.19275
3.058	-11.98425
3.0585	-26.18408
3.059	-32.62939
3.0595	-47.93701
3.06	-53.77808
3.0605	-62.53967
3.061	-73.01331
3.0615	-76.94092
3.062	-76.84021
3.0625	-64.65454
3.063	-45.3186
3.0635	-32.42798
3.064	-19.23523
3.0645	-9.46655
3.065	14.60266
3.0655	31.11877
3.066	43.60657
3.0665	58.30994
3.067	68.78357
3.0675	71.90552
3.068	74.02039
3.0685	73.61755
3.069	72.10693
3.0695	65.46021
3.07	57.30286
3.0705	44.11011
3.071	41.39099
3.0715	28.70178
3.072	15.60974
3.0725	4.63257
3.073	-1.91345
3.0735	-11.68213
3.074	-15.71045
3.0745	-13.49487
3.075	-9.26514
3.0755	-3.52478
3.076	-8.96301
3.0765	-4.53186
3.077	2.61841
3.0775	-2.81982
3.078	0.50354
3.0785	-4.53186
3.079	-3.52478
3.0795	-1.61133
3.08	-2.5177
3.0805	3.02124
3.081	5.74036
3.0815	4.43115
3.082	2.41699
3.0825	-3.52478
3.083	-1.2085
3.0835	-1.81274
3.084	-1.91345
3.0845	-7.45239
3.085	-15.71045
3.0855	-22.05505
3.086	-33.13293
3.0865	-38.77258
3.087	-39.27612
3.0875	-41.59241
3.088	-50.85754
3.0885	-41.79382
3.089	-39.98108
3.0895	-34.94568
3.09	-27.19116
3.0905	-17.52319
3.091	-10.37292
3.0915	-1.81274
3.092	9.36584
3.0925	16.41541
3.093	23.96851
3.0935	32.22656
3.094	41.59241
3.0945	51.76392
3.095	51.36108
3.0955	48.23914
3.096	53.67737
3.0965	49.44763
3.097	49.44763
3.0975	44.61365
3.098	35.2478
3.0985	28.19824
3.099	13.29346
3.0995	7.15027
3.1	-2.5177
3.1005	-7.45239
3.101	-14.40125
3.1015	-22.45789
3.102	-32.02515
3.1025	-34.44214
3.103	-25.47913
3.1035	-29.60815
3.104	-32.12585
3.1045	-36.55701
3.105	-36.75842
3.1055	-48.23914
3.106	-54.18091
3.1065	-56.5979
3.107	-55.89294
3.1075	-47.93701
3.108	-43.20374
3.1085	-24.47205
3.109	-4.02832
3.1095	15.1062
3.11	28.70178
3.1105	42.19666
3.111	61.12976
3.1115	76.13525
3.112	79.96216
3.1125	85.19897
3.113	88.92517
3.1135	80.66711
3.114	80.06287
3.1145	66.16516
3.115	43.70728
3.1155	23.56567
3.116	6.64673
3.1165	-3.22266
3.117	-15.91187
3.1175	-24.47205
3.118	-19.63806
3.1185	-28.39966
3.119	-32.22656
3.1195	-38.87329
3.12	-26.78833
3.1205	-19.94019
3.121	-27.59399
3.1215	-36.25488
3.122	-34.14001
3.1225	-33.9386
3.123	-26.3855
3.1235	-13.69629
3.124	-11.78284
3.1245	-5.0354
3.125	-0.20142
3.1255	-2.61841
3.126	-0.50354
3.1265	3.7262
3.127	-0.80566
3.1275	6.14319
3.128	6.04248
3.1285	10.67505
3.129	15.20691
3.1295	17.72461
3.13	24.27063
3.1305	37.96692
3.131	50.55542
3.1315	64.25171
3.132	75.63171
3.1325	76.63879
3.133	77.04163
3.1335	80.06287
3.134	83.18481
3.1345	76.84021
3.135	63.54675
3.1355	45.62073
3.136	22.15576
3.1365	-6.74744
3.137	-30.41382
3.1375	-36.4563
3.138	-38.16833
3.1385	-39.67896
3.139	-43.00232
3.1395	-52.06604
3.14	-48.64197
3.1405	-47.7356
3.141	-50.45471
3.1415	-58.81348
3.142	-61.02905
3.1425	-64.05029
3.143	-54.48303
3.1435	-43.00232
3.144	-27.49329
3.1445	-1.61133
3.145	9.97009
3.1455	30.91736
3.146	47.43347
3.1465	56.19507
3.147	73.21472
3.1475	83.88977
3.148	84.2926
3.1485	87.61597
3.149	76.53809
3.1495	64.25171
3.15	59.41772
3.1505	50.15259
3.151	44.81506
3.1515	39.17542
3.152	27.79541
3.1525	16.3147
3.153	-0.30212
3.1535	-7.45239
3.154	-7.75452
3.1545	-10.47363
3.155	-13.797
3.1555	-12.89062
3.156	-12.08496
3.1565	-6.74744
3.157	-8.66089
3.1575	-12.78992
3.158	-8.96301
3.1585	0.50354
3.159	8.25806
3.1595	11.98425
3.16	19.63806
3.1605	25.78125
3.161	22.76001
3.1615	25.47913
3.162	24.67346
3.1625	22.25647
3.163	22.96143
3.1635	21.85364
3.164	15.40833
3.1645	16.41541
3.165	22.55859
3.1655	19.43665
3.166	12.5885
3.1665	10.97717
3.167	9.76868
3.1675	7.75452
3.168	9.97009
3.1685	7.5531
3.169	5.63965
3.1695	1.2085
3.17	-2.31628
3.1705	-0.50354
3.171	-3.52478
3.1715	2.81982
3.172	6.64673
3.1725	1.3092
3.173	1.2085
3.1735	-0.20142
3.174	6.44531
3.1745	-1.00708
3.175	3.02124
3.1755	3.22266
3.176	1.61133
3.1765	2.11487
3.177	7.45239
3.1775	-7.25098
3.178	-9.46655
3.1785	-11.2793
3.179	-13.29346
3.1795	-19.83948
3.18	-22.6593
3.1805	-28.19824
3.181	-28.19824
3.1815	-36.35559
3.182	-35.34851
3.1825	-41.69312
3.183	-47.13135
3.1835	-48.23914
3.184	-52.36816
3.1845	-52.8717
3.185	-56.90002
3.1855	-51.76392
3.186	-46.02356
3.1865	-35.04639
3.187	-17.92603
3.1875	-6.14319
3.188	10.57434
3.1885	20.64514
3.189	33.73718
3.1895	40.88745
3.19	53.77808
3.1905	56.09436
3.191	60.92834
3.1915	60.52551
3.192	65.56091
3.1925	62.64038
3.193	58.20923
3.1935	49.85046
3.194	48.64197
3.1945	45.11719
3.195	32.42798
3.1955	13.69629
3.196	5.84106
3.1965	-1.3092
3.197	-7.85522
3.1975	-11.2793
3.198	-16.11328
3.1985	-15.50903
3.199	-25.47913
3.1995	-31.62231
3.2	-30.81665
3.2005	-30.91736
3.201	-25.57983
3.2015	-36.75842
3.202	-27.99683
3.2025	-23.36426
3.203	-19.83948
3.2035	-11.98425
3.204	-5.13611
3.2045	12.38708
3.205	20.74585
3.2055	24.16992
3.206	38.974
3.2065	42.49878
3.207	46.02356
3.2075	44.81506
3.208	42.7002
3.2085	30.31311
3.209	19.63806
3.2095	3.22266
3.21	-11.98425
3.2105	-23.96851
3.211	-36.25488
3.2115	-35.14709
3.212	-27.49329
3.2125	-29.50745
3.213	-20.74585
3.2135	-10.37292
3.214	9.76868
3.2145	28.60107
3.215	36.55701
3.2155	52.771
3.216	50.45471
3.2165	56.79932
3.217	52.97241
3.2175	41.89453
3.218	21.95435
3.2185	10.27222
3.219	-7.25098
3.2195	-18.8324
3.22	-28.9032
3.2205	-34.54285
3.221	-38.16833
3.2215	-42.19666
3.222	-42.59949
3.2225	-43.00232
3.223	-42.90161
3.2235	-34.64355
3.224	-22.6593
3.2245	-7.35168
3.225	11.98425
3.2255	25.57983
3.226	34.54285
3.2265	46.82922
3.227	56.5979
3.2275	61.6333
3.228	61.93542
3.2285	64.25171
3.229	62.33826
3.2295	60.72693
3.23	58.61206
3.2305	44.81506
3.231	37.56409
3.2315	26.78833
3.232	20.34302
3.2325	19.53735
3.233	13.29346
3.2335	14.70337
3.234	13.29346
3.2345	10.57434
3.235	5.0354
3.2355	2.61841
3.236	-15.20691
3.2365	-21.75293
3.237	-30.81665
3.2375	-46.72852
3.238	-59.41772
3.2385	-62.8418
3.239	-71.90552
3.2395	-76.7395
3.24	-83.28552
3.2405	-80.86853
3.241	-68.38074
3.2415	-59.31702
3.242	-35.95276
3.2425	-13.39417
3.243	2.01416
3.2435	18.42957
3.244	37.96692
3.2445	57.8064
3.245	66.06445
3.2455	66.6687
3.246	72.9126
3.2465	66.76941
3.247	65.15808
3.2475	61.23047
3.248	42.7002
3.2485	22.96143
3.249	16.3147
3.2495	9.46655
3.25	7.04956
3.2505	10.57434
3.251	9.76868
3.2515	6.94885
3.252	-4.63257
3.2525	-1.51062
3.253	1.40991
3.2535	13.19275
3.254	11.2793
3.2545	12.5885
3.255	14.80408
3.2555	14.90479
3.256	12.99133
3.2565	11.58142
3.257	5.0354
3.2575	1.71204
3.258	3.02124
3.2585	-7.35168
3.259	-17.12036
3.2595	-17.52319
3.26	-20.74585
3.2605	-31.82373
3.261	-45.01648
3.2615	-51.5625
3.262	-62.43896
3.2625	-57.9071
3.263	-60.3241
3.2635	-56.19507
3.264	-51.15967
3.2645	-41.79382
3.265	-25.78125
3.2655	-12.89062
3.266	6.04248
3.2665	15.81116
3.267	27.39258
3.2675	37.36267
3.268	55.3894
3.2685	62.33826
3.269	70.89844
3.2695	77.74658
3.27	80.06287
3.2705	84.69543
3.271	72.50977
3.2715	69.08569
3.272	65.76233
3.2725	61.73401
3.273	54.18091
3.2735	45.62073
3.274	40.08179
3.2745	35.65063
3.275	36.65771
3.2755	33.53577
3.276	21.75293
3.2765	6.84814
3.277	-2.01416
3.2775	-8.66089
3.278	-15.81116
3.2785	-16.21399
3.279	-29.80957
3.2795	-35.75134
3.28	-40.08179
3.2805	-41.89453
3.281	-42.29736
3.2815	-40.78674
3.282	-34.94568
3.2825	-35.2478
3.283	-30.31311
3.2835	-28.60107
3.284	-29.60815
3.2845	-23.06213
3.285	-21.45081
3.2855	-17.72461
3.286	-22.25647
3.2865	-25.98267
3.287	-22.55859
3.2875	-28.9032
3.288	-28.09753
3.2885	-24.87488
3.289	-22.15576
3.2895	-16.61682
3.29	-15.1062
3.2905	-14.60266
3.291	-21.55151
3.2915	-23.06213
3.292	-22.55859
3.2925	-30.11169
3.293	-31.01807
3.2935	-30.01099
3.294	-21.24939
3.2945	-1.91345
3.295	11.78284
3.2955	26.58691
3.296	43.20374
3.2965	61.93542
3.297	61.02905
3.2975	63.64746
3.298	78.65295
3.2985	82.07703
3.299	84.49402
3.2995	83.18481
3.3	76.94092
3.3005	62.74109
3.301	45.3186
3.3015	29.70886
3.302	24.16992
3.3025	22.25647
3.303	28.09753
3.3035	14.50195
3.304	8.96301
3.3045	3.8269
3.305	13.69629
3.3055	18.8324
3.306	27.09045
3.3065	24.16992
3.307	29.30603
3.3075	30.91736
3.308	24.97559
3.3085	19.13452
3.309	22.45789
3.3095	16.81824
3.31	5.94177
3.3105	0.30212
3.311	0.10071
3.3115	-1.3092
3.312	-7.25098
3.3125	-11.68213
3.313	-11.48071
3.3135	-12.08496
3.314	-12.78992
3.3145	-9.26514
3.315	-9.76868
3.3155	-10.17151
3.316	-10.27222
3.3165	-9.66797
3.317	-7.25098
3.3175	-10.97717
3.318	-3.62549
3.3185	-2.71912
3.319	-7.35168
3.3195	-12.28638
3.32	-13.49487
3.3205	-23.66638
3.321	-19.73877
3.3215	-22.15576
3.322	-16.81824
3.3225	-10.57434
3.323	-7.95593
3.3235	-12.68921
3.324	-16.01257
3.3245	-11.38
3.325	-5.33752
3.3255	-8.56018
3.326	-8.35876
3.3265	-3.02124
3.327	4.93469
3.3275	7.85522
3.328	13.19275
3.3285	16.81824
3.329	18.63098
3.3295	18.63098
3.33	15.71045
3.3305	27.49329
3.331	28.60107
3.3315	34.34143
3.332	38.36975
3.3325	27.59399
3.333	21.3501
3.3335	11.07788
3.334	7.15027
3.3345	5.84106
3.335	8.8623
3.3355	15.91187
3.336	23.56567
3.3365	25.57983
3.337	21.65222
3.3375	21.14868
3.338	23.56567
3.3385	25.27771
3.339	23.66638
3.3395	20.44373
3.34	21.24939
3.3405	25.57983
3.341	21.24939
3.3415	24.77417
3.342	23.66638
3.3425	20.94727
3.343	18.8324
3.3435	17.52319
3.344	15.50903
3.3445	9.97009
3.345	-5.43823
3.3455	-11.98425
3.346	-8.66089
3.3465	-13.89771
3.347	-21.45081
3.3475	-30.2124
3.348	-48.84338
3.3485	-58.00781
3.349	-55.3894
3.3495	-55.3894
3.35	-52.36816
3.3505	-45.01648
3.351	-51.36108
3.3515	-43.60657
3.352	-39.67896
3.3525	-21.3501
3.353	-9.26514
3.3535	-0.70496
3.354	13.39417
3.3545	22.55859
3.355	27.19116
3.3555	29.80957
3.356	29.20532
3.3565	15.91187
3.357	12.38708
3.3575	2.71912
3.358	3.12195
3.3585	0.40283
3.359	1.91345
3.3595	-1.40991
3.36	-3.62549
3.3605	-1.10779
3.361	12.78992
3.3615	18.22815
3.362	18.42957
3.3625	17.22107
3.363	21.3501
3.3635	16.91895
3.364	20.24231
3.3645	26.68762
3.365	36.55701
3.3655	37.7655
3.366	21.24939
3.3665	11.2793
3.367	12.78992
3.3675	18.12744
3.368	15.50903
3.3685	17.32178
3.369	16.71753
3.3695	10.67505
3.37	-4.53186
3.3705	-11.48071
3.371	-7.65381
3.3715	0.10071
3.372	5.53894
3.3725	12.99133
3.373	24.87488
3.3735	32.52869
3.374	45.41931
3.3745	64.85596
3.375	79.86145
3.3755	90.63721
3.376	92.85278
3.3765	90.73792
3.377	78.75366
3.3775	62.33826
3.378	46.82922
3.3785	33.9386
3.379	23.66638
3.3795	11.78284
3.38	8.15735
3.3805	-1.3092
3.381	-0.60425
3.3815	-3.7262
3.382	-11.17859
3.3825	-16.21399
3.383	-10.67505
3.3835	-11.78284
3.384	-12.68921
3.3845	-8.05664
3.385	-6.44531
3.3855	-6.74744
3.386	-10.0708
3.3865	-10.47363
3.387	-15.30762
3.3875	-8.56018
3.388	-8.66089
3.3885	-6.94885
3.389	-11.2793
3.3895	-5.53894
3.39	-11.88354
3.3905	-10.27222
3.391	-15.40833
3.3915	-9.86938
3.392	-6.2439
3.3925	-5.13611
3.393	0.50354
3.3935	4.83398
3.394	7.75452
3.3945	1.10779
3.395	-4.73328
3.3955	-8.96301
3.396	-5.94177
3.3965	-11.78284
3.397	-11.48071
3.3975	-17.72461
3.398	-12.28638
3.3985	-5.13611
3.399	-3.42407
3.3995	-11.07788
3.4	-14.50195
3.4005	-8.25806
3.401	-9.36584
3.4015	-6.14319
3.402	-9.66797
3.4025	-4.02832
3.403	-3.62549
3.4035	-12.48779
3.404	-12.99133
3.4045	-21.14868
3.405	-17.82532
3.4055	-6.14319
3.406	0.20142
3.4065	3.32336
3.407	-1.71204
3.4075	5.13611
3.408	5.53894
3.4085	8.35876
3.409	8.05664
3.4095	13.99841
3.41	17.42249
3.4105	14.40125
3.411	14.19983
3.4115	23.36426
3.412	29.91028
3.4125	34.94568
3.413	41.08887
3.4135	43.10303
3.414	27.19116
3.4145	25.57983
3.415	27.6947
3.4155	20.64514
3.416	15.00549
3.4165	6.44531
3.417	-6.64673
3.4175	-13.39417
3.418	-15.30762
3.4185	-19.73877
3.419	-22.45789
3.4195	-28.70178
3.42	-21.14868
3.4205	-22.76001
3.421	-14.30054
3.4215	-7.85522
3.422	-10.17151
3.4225	-10.27222
3.423	-21.95435
3.4235	-23.16284
3.424	-30.91736
3.4245	-30.31311
3.425	-26.28479
3.4255	-20.24231
3.426	-10.67505
3.4265	-0.50354
3.427	10.87646
3.4275	25.47913
3.428	33.43506
3.4285	47.13135
3.429	59.92126
3.4295	64.35242
3.43	67.27295
3.4305	62.64038
3.431	55.69153
3.4315	34.84497
3.432	22.76001
3.4325	1.81274
3.433	-22.45789
3.4335	-33.13293
3.434	-42.09595
3.4345	-44.31152
3.435	-49.95117
3.4355	-35.34851
3.436	-23.16284
3.4365	-2.41699
3.437	15.40833
3.4375	30.2124
3.438	41.18958
3.4385	54.38232
3.439	61.12976
3.4395	64.65454
3.44	57.8064
3.4405	42.29736
3.441	31.82373
3.4415	22.76001
3.442	23.36426
3.4425	20.44373
3.443	28.29895
3.4435	35.2478
3.444	41.69312
3.4445	43.90869
3.445	36.25488
3.4455	37.06055
3.446	43.20374
3.4465	54.58374
3.447	49.85046
3.4475	46.5271
3.448	31.72302
3.4485	25.68054
3.449	18.73169
3.4495	3.12195
3.45	-3.02124
3.4505	-1.10779
3.451	-4.43115
3.4515	-14.70337
3.452	-13.39417
3.4525	-17.12036
3.453	-11.58142
3.4535	-9.76868
3.454	-6.2439
3.4545	-8.05664
3.455	-11.68213
3.4555	-7.25098
3.456	-6.84814
3.4565	-5.74036
3.457	-5.0354
3.4575	-14.09912
3.458	-13.19275
3.4585	-9.16443
3.459	-13.29346
3.4595	-13.99841
3.46	-14.50195
3.4605	-5.94177
3.461	-11.2793
3.4615	-6.3446
3.462	-10.77576
3.4625	-17.22107
3.463	-8.7616
3.4635	-3.42407
3.464	6.2439
3.4645	8.66089
3.465	5.0354
3.4655	-0.40283
3.466	-11.68213
3.4665	-24.16992
3.467	-40.98816
3.4675	-44.41223
3.468	-48.74268
3.4685	-52.46887
3.469	-45.62073
3.4695	-36.95984
3.47	-22.96143
3.4705	-4.73328
3.471	15.00549
3.4715	34.84497
3.472	56.90002
3.4725	76.43738
3.473	94.3634
3.4735	106.75049
3.474	112.59155
3.4745	110.87952
3.475	101.41296
3.4755	91.8457
3.476	67.77649
3.4765	52.16675
3.477	28.60107
3.4775	9.46655
3.478	1.40991
3.4785	-5.0354
3.479	-7.25098
3.4795	-10.57434
3.48	-15.60974
3.4805	-24.47205
3.481	-28.19824
3.4815	-31.82373
3.482	-34.84497
3.4825	-31.01807
3.483	-31.82373
3.4835	-30.2124
3.484	-30.91736
3.4845	-29.91028
3.485	-24.57275
3.4855	-28.39966
3.486	-35.14709
3.4865	-32.22656
3.487	-28.9032
3.4875	-22.76001
3.488	-11.38
3.4885	-17.42249
3.489	-15.1062
3.4895	-12.78992
3.49	-7.95593
3.4905	2.01416
3.491	8.8623
3.4915	8.05664
3.492	10.47363
3.4925	15.1062
3.493	22.86072
3.4935	25.177
3.494	27.49329
3.4945	25.07629
3.495	22.15576
3.4955	24.57275
3.496	29.60815
3.4965	33.73718
3.497	33.63647
3.4975	31.21948
3.498	21.55151
3.4985	15.00549
3.499	-3.52478
3.4995	-19.13452
3.5	-34.94568
3.5005	-38.16833
3.501	-49.14551
3.5015	-60.92834
3.502	-60.62622
3.5025	-45.92285
3.503	-40.2832
3.5035	-30.81665
3.504	-12.38708
3.5045	8.45947
3.505	27.49329
3.5055	48.94409
3.506	66.16516
3.5065	82.88269
3.507	96.07544
3.5075	97.58606
3.508	98.39172
3.5085	85.90393
3.509	72.10693
3.5095	50.55542
3.51	37.56409
3.5105	24.97559
3.511	18.53027
3.5115	16.3147
3.512	3.12195
3.5125	-4.93469
3.513	-9.76868
3.5135	-13.89771
3.514	-10.97717
3.5145	-14.40125
3.515	-10.57434
3.5155	-15.40833
3.516	-15.20691
3.5165	-13.29346
3.517	-7.15027
3.5175	-6.74744
3.518	-0.20142
3.5185	2.71912
3.519	-5.33752
3.5195	-3.22266
3.52	-4.43115
3.5205	-1.51062
3.521	-5.23682
3.5215	-8.15735
3.522	-9.86938
3.5225	-16.3147
3.523	-22.45789
3.5235	-27.29187
3.524	-37.36267
3.5245	-39.17542
3.525	-41.79382
3.5255	-40.08179
3.526	-30.01099
3.5265	-14.19983
3.527	1.81274
3.5275	16.21399
3.528	25.27771
3.5285	35.54993
3.529	42.7002
3.5295	49.34692
3.53	62.64038
3.5305	80.26428
3.531	86.10535
3.5315	80.56641
3.532	72.30835
3.5325	68.07861
3.533	51.66321
3.5335	47.7356
3.534	37.16125
3.5345	24.57275
3.535	2.71912
3.5355	-16.11328
3.536	-21.55151
3.5365	-29.10461
3.537	-46.72852
3.5375	-44.61365
3.538	-36.85913
3.5385	-30.91736
3.539	-24.77417
3.5395	-20.04089
3.54	-17.42249
3.5405	-13.09204
3.541	-17.42249
3.5415	-24.16992
3.542	-24.47205
3.5425	-35.04639
3.543	-39.57825
3.5435	-39.77966
3.544	-34.54285
3.5445	-23.16284
3.545	-13.797
3.5455	3.52478
3.546	18.12744
3.5465	34.14001
3.547	52.56958
3.5475	72.50977
3.548	74.2218
3.5485	72.61047
3.549	72.81189
3.5495	66.76941
3.55	67.07153
3.5505	49.74976
3.551	39.88037
3.5515	24.47205
3.552	3.8269
3.5525	-6.2439
3.553	-10.57434
3.5535	-15.60974
3.554	-18.53027
3.5545	-30.71594
3.555	-34.44214
3.5555	-29.20532
3.556	-17.32178
3.5565	-17.52319
3.557	-11.48071
3.5575	-15.50903
3.558	-10.77576
3.5585	-12.89062
3.559	-6.04248
3.5595	-1.71204
3.56	-3.12195
3.5605	-6.64673
3.561	-2.41699
3.5615	1.40991
3.562	5.23682
3.5625	8.05664
3.563	0.70496
3.5635	7.35168
3.564	6.3446
3.5645	16.51611
3.565	15.30762
3.5655	16.61682
3.566	22.25647
3.5665	17.42249
3.567	16.3147
3.5675	10.87646
3.568	16.41541
3.5685	15.40833
3.569	7.15027
3.5695	8.15735
3.57	3.92761
3.5705	6.74744
3.571	8.8623
3.5715	9.36584
3.572	11.68213
3.5725	13.59558
3.573	11.68213
3.5735	13.09204
3.574	4.93469
3.5745	-0.80566
3.575	-10.47363
3.5755	-14.70337
3.576	-13.49487
3.5765	-13.29346
3.577	-13.59558
3.5775	-20.24231
3.578	-13.99841
3.5785	-15.40833
3.579	-23.56567
3.5795	-24.27063
3.58	-36.4563
3.5805	-35.65063
3.581	-30.31311
3.5815	-33.43506
3.582	-31.52161
3.5825	-27.49329
3.583	-25.68054
3.5835	-17.22107
3.584	-5.84106
3.5845	6.44531
3.585	21.65222
3.5855	37.86621
3.586	45.72144
3.5865	50.354
3.587	55.99365
3.5875	53.07312
3.588	52.46887
3.5885	34.84497
3.589	27.39258
3.5895	27.29187
3.59	22.35718
3.5905	12.28638
3.591	2.41699
3.5915	1.2085
3.592	-1.40991
3.5925	-5.53894
3.593	-6.54602
3.5935	-9.26514
3.594	-15.91187
3.5945	-13.89771
3.595	-13.99841
3.5955	-18.63098
3.596	-23.66638
3.5965	-31.92444
3.597	-40.58533
3.5975	-44.41223
3.598	-47.7356
3.5985	-46.02356
3.599	-44.0094
3.5995	-42.7002
3.6	-46.22498
3.6005	-47.23206
3.601	-56.39648
3.6015	-58.30994
3.602	-70.09277
3.6025	-66.97083
3.603	-49.74976
3.6035	-37.26196
3.604	-11.68213
3.6045	10.37292
3.605	21.95435
3.6055	41.18958
3.606	70.69702
3.6065	84.69543
3.607	107.55615
3.6075	116.41846
3.608	112.79297
3.6085	104.73633
3.609	100.6073
3.6095	96.07544
3.61	77.14233
3.6105	53.17383
3.611	25.68054
3.6115	10.0708
3.612	-2.11487
3.6125	-7.65381
3.613	-15.40833
3.6135	-31.72302
3.614	-44.41223
3.6145	-51.96533
3.615	-44.91577
3.6155	-33.13293
3.616	-22.6593
3.6165	-11.2793
3.617	5.63965
3.6175	27.99683
3.618	46.42639
3.6185	61.93542
3.619	71.80481
3.6195	77.14233
3.62	68.17932
3.6205	66.46729
3.621	57.40356
3.6215	39.77966
3.622	19.94019
3.6225	6.44531
3.623	-5.94177
3.6235	-11.78284
3.624	-14.60266
3.6245	-13.19275
3.625	-10.57434
3.6255	-16.61682
3.626	-16.3147
3.6265	-5.94177
3.627	1.00708
3.6275	12.08496
3.628	23.36426
3.6285	29.20532
3.629	36.15417
3.6295	40.98816
3.63	38.87329
3.6305	33.23364
3.631	30.61523
3.6315	25.27771
3.632	17.42249
3.6325	11.38
3.633	8.56018
3.6335	-2.61841
3.634	-1.00708
3.6345	1.91345
3.635	-10.0708
3.6355	-10.67505
3.636	-24.87488
3.6365	-37.56409
3.637	-45.11719
3.6375	-45.3186
3.638	-51.05896
3.6385	-46.32568
3.639	-41.69312
3.6395	-45.82214
3.64	-32.42798
3.6405	-23.46497
3.641	-15.91187
3.6415	-8.05664
3.642	2.92053
3.6425	14.09912
3.643	18.8324
3.6435	27.6947
3.644	31.01807
3.6445	35.54993
3.645	38.26904
3.6455	38.974
3.646	37.96692
3.6465	31.32019
3.647	24.27063
3.6475	21.95435
3.648	16.71753
3.6485	14.90479
3.649	9.76868
3.6495	7.85522
3.65	17.32178
3.6505	10.77576
3.651	4.93469
3.6515	0.70496
3.652	-6.44531
3.6525	-2.01416
3.653	1.00708
3.6535	-6.14319
3.654	-1.3092
3.6545	-1.91345
3.655	-4.02832
3.6555	-2.92053
3.656	5.53894
3.6565	2.81982
3.657	-3.22266
3.6575	-10.37292
3.658	-19.43665
3.6585	-20.34302
3.659	-26.78833
3.6595	-25.78125
3.66	-21.75293
3.6605	-25.37842
3.661	-20.44373
3.6615	-26.08337
3.662	-19.83948
3.6625	-18.22815
3.663	-14.90479
3.6635	-13.797
3.664	-7.35168
3.6645	-3.12195
3.665	-5.0354
3.6655	1.10779
3.666	16.51611
3.6665	22.05505
3.667	19.53735
3.6675	27.79541
3.668	34.24072
3.6685	42.19666
3.669	34.34143
3.6695	40.08179
3.67	38.57117
3.6705	34.54285
3.671	23.56567
3.6715	18.42957
3.672	14.09912
3.6725	18.63098
3.673	21.04797
3.6735	30.71594
3.674	29.30603
3.6745	32.83081
3.675	36.85913
3.6755	43.80798
3.676	49.34692
3.6765	46.5271
3.677	45.72144
3.6775	39.37683
3.678	37.26196
3.6785	33.63647
3.679	29.40674
3.6795	31.01807
3.68	23.16284
3.6805	19.63806
3.681	15.1062
3.6815	18.32886
3.682	19.53735
3.6825	16.81824
3.683	15.1062
3.6835	15.81116
3.684	16.91895
3.6845	12.5885
3.685	9.76868
3.6855	6.64673
3.686	-3.22266
3.6865	-4.22974
3.687	-7.15027
3.6875	-8.45947
3.688	-11.88354
3.6885	-8.45947
3.689	-9.76868
3.6895	-12.28638
3.69	-28.9032
3.6905	-39.37683
3.691	-49.54834
3.6915	-64.35242
3.692	-78.85437
3.6925	-84.39331
3.693	-85.80322
3.6935	-79.05579
3.694	-62.74109
3.6945	-49.24622
3.695	-33.33435
3.6955	-9.76868
3.696	18.73169
3.6965	41.89453
3.697	61.53259
3.6975	81.97632
3.698	91.745
3.6985	88.11951
3.699	87.41455
3.6995	80.06287
3.7	67.57507
3.7005	40.78674
3.701	26.28479
3.7015	8.35876
3.702	-9.36584
3.7025	-28.39966
3.703	-62.43896
3.7035	-87.21313
3.704	-96.17615
3.7045	-88.92517
3.705	-82.88269
3.7055	-62.9425
3.706	-36.25488
3.7065	-12.38708
3.707	3.92761
3.7075	22.76001
3.708	43.80798
3.7085	65.05737
3.709	77.54517
3.7095	76.03455
3.71	73.71826
3.7105	70.09277
3.711	54.48303
3.7115	39.17542
3.712	25.88196
3.7125	24.47205
3.713	21.04797
3.7135	22.6593
3.714	22.6593
3.7145	24.27063
3.715	19.03381
3.7155	5.23682
3.716	5.74036
3.7165	11.38
3.717	12.28638
3.7175	10.17151
3.718	3.32336
3.7185	7.65381
3.719	2.92053
3.7195	2.61841
3.72	4.12903
3.7205	6.84814
3.721	-3.22266
3.7215	-6.14319
3.722	-7.15027
3.7225	-18.32886
3.723	-19.33594
3.7235	-17.12036
3.724	-23.76709
3.7245	-18.8324
3.725	-22.15576
3.7255	-14.90479
3.726	-17.01965
3.7265	-13.99841
3.727	-14.60266
3.7275	-17.01965
3.728	-8.35876
3.7285	-14.80408
3.729	-12.18567
3.7295	-11.88354
3.73	-11.58142
3.7305	-10.17151
3.731	-19.33594
3.7315	-31.52161
3.732	-41.4917
3.7325	-47.03064
3.733	-47.23206
3.7335	-46.22498
3.734	-43.10303
3.7345	-45.62073
3.735	-52.36816
3.7355	-49.54834
3.736	-37.26196
3.7365	-36.15417
3.737	-30.2124
3.7375	-14.80408
3.738	-7.15027
3.7385	25.88196
3.739	46.22498
3.7395	67.8772
3.74	78.55225
3.7405	93.0542
3.741	99.09668
3.7415	105.13916
3.742	98.79456
3.7425	105.34058
3.743	104.3335
3.7435	100.80872
3.744	96.57898
3.7445	83.58765
3.745	61.73401
3.7455	41.39099
3.746	23.46497
3.7465	8.96301
3.747	-3.92761
3.7475	-11.68213
3.748	-13.29346
3.7485	-17.82532
3.749	-11.07788
3.7495	0
3.75	3.52478
3.7505	5.0354
3.751	9.36584
3.7515	6.64673
3.752	4.83398
3.7525	5.23682
3.753	2.01416
3.7535	-3.42407
3.754	-3.8269
3.7545	-0.20142
3.755	-3.42407
3.7555	-1.91345
3.756	-3.62549
3.7565	-6.04248
3.757	-9.26514
3.7575	-4.83398
3.758	-19.43665
3.7585	-32.83081
3.759	-40.68604
3.7595	-47.53418
3.76	-61.02905
3.7605	-69.68994
3.761	-80.16357
3.7615	-82.68127
3.762	-85.80322
3.7625	-85.29968
3.763	-72.61047
3.7635	-57.8064
3.764	-31.82373
3.7645	-8.05664
3.765	17.92603
3.7655	41.89453
3.766	64.151
3.7665	78.85437
3.767	91.44287
3.7675	102.92358
3.768	102.21863
3.7685	93.85986
3.769	74.92676
3.7695	58.20923
3.77	38.87329
3.7705	23.06213
3.771	12.78992
3.7715	0.10071
3.772	4.22974
3.7725	0.10071
3.773	3.62549
3.7735	-9.66797
3.774	-6.74744
3.7745	1.71204
3.775	1.10779
3.7755	6.3446
3.776	9.76868
3.7765	18.8324
3.777	18.93311
3.7775	17.72461
3.778	24.57275
3.7785	24.57275
3.779	26.08337
3.7795	20.44373
3.78	14.09912
3.7805	10.37292
3.781	-1.00708
3.7815	-12.18567
3.782	-24.77417
3.7825	-35.14709
3.783	-43.90869
3.7835	-57.10144
3.784	-49.85046
3.7845	-46.82922
3.785	-40.48462
3.7855	-38.06763
3.786	-32.62939
3.7865	-34.44214
3.787	-29.00391
3.7875	-22.76001
3.788	-12.99133
3.7885	-11.58142
3.789	-1.10779
3.7895	3.22266
3.79	4.83398
3.7905	10.17151
3.791	14.80408
3.7915	29.50745
3.792	31.52161
3.7925	42.29736
3.793	47.53418
3.7935	51.36108
3.794	49.24622
3.7945	49.0448
3.795	46.02356
3.7955	51.66321
3.796	45.01648
3.7965	34.24072
3.797	36.65771
3.7975	35.85205
3.798	30.51453
3.7985	22.15576
3.799	18.73169
3.7995	13.69629
3.8	6.84814
3.8005	2.01416
3.801	-2.31628
3.8015	-6.14319
3.802	-7.25098
3.8025	-10.47363
3.803	-15.60974
3.8035	-27.19116
3.804	-32.7301
3.8045	-41.29028
3.805	-51.86462
3.8055	-72.00623
3.806	-89.93225
3.8065	-95.97473
3.807	-102.21863
3.8075	-105.03845
3.808	-98.29102
3.8085	-93.65845
3.809	-77.84729
3.8095	-49.44763
3.81	-27.39258
3.8105	8.15735
3.811	42.09595
3.8115	64.55383
3.812	94.86694
3.8125	120.64819
3.813	138.27209
3.8135	150.75989
3.814	150.55847
3.8145	146.73157
3.815	135.8551
3.8155	114.70642
3.816	89.12659
3.8165	54.68445
3.817	28.9032
3.8175	17.32178
3.818	6.3446
3.8185	-1.71204
3.819	-7.85522
3.8195	-10.87646
3.82	-17.82532
3.8205	-27.59399
3.821	-20.44373
3.8215	-11.48071
3.822	-7.45239
3.8225	-7.04956
3.823	-7.04956
3.8235	-7.75452
3.824	-10.77576
3.8245	-11.38
3.825	-13.89771
3.8255	-17.12036
3.826	-26.18408
3.8265	-35.54993
3.827	-36.4563
3.8275	-37.66479
3.828	-37.36267
3.8285	-39.77966
3.829	-37.56409
3.8295	-28.70178
3.83	-19.94019
3.8305	-10.27222
3.831	0.70496
3.8315	8.35876
3.832	19.13452
3.8325	23.26355
3.833	27.6947
3.8335	36.05347
3.834	46.62781
3.8345	51.96533
3.835	56.5979
3.8355	55.99365
3.836	50.15259
3.8365	50.55542
3.837	54.98657
3.8375	46.22498
3.838	47.8363
3.8385	40.88745
3.839	31.52161
3.8395	11.78284
3.84	-5.74036
3.8405	-15.81116
3.841	-19.53735
3.8415	-25.98267
3.842	-19.23523
3.8425	-9.76868
3.843	-13.49487
3.8435	-23.66638
3.844	-29.70886
3.8445	-35.2478
3.845	-36.75842
3.8455	-38.16833
3.846	-33.33435
3.8465	-42.7002
3.847	-39.88037
3.8475	-29.91028
3.848	-22.25647
3.8485	-2.81982
3.849	15.30762
3.8495	30.51453
3.85	50.05188
3.8505	66.06445
3.851	79.86145
3.8515	93.65845
3.852	90.5365
3.8525	85.60181
3.853	78.85437
3.8535	60.72693
3.854	49.44763
3.8545	41.29028
3.855	31.4209
3.8555	23.76709
3.856	20.44373
3.8565	7.04956
3.857	3.02124
3.8575	-9.16443
3.858	-18.42957
3.8585	-23.16284
3.859	-26.3855
3.8595	-23.66638
3.86	-20.94727
3.8605	-17.82532
3.861	-26.48621
3.8615	-28.9032
3.862	-30.41382
3.8625	-32.93152
3.863	-29.00391
3.8635	-23.8678
3.864	-16.11328
3.8645	-16.61682
3.865	-5.63965
3.8655	-6.64673
3.866	-7.75452
3.8665	-1.00708
3.867	4.63257
3.8675	9.16443
3.868	5.0354
3.8685	4.83398
3.869	13.69629
3.8695	18.32886
3.87	19.03381
3.8705	27.6947
3.871	29.30603
3.8715	28.9032
3.872	32.22656
3.8725	38.47046
