Niccolo_Morelli_Right_1.c3d  



Time(s):	C_R_bicipite(μV):
0	-0.10071
0.0005	1.00708
0.001	3.02124
0.0015	0
0.002	6.04248
0.0025	0.40283
0.003	-6.04248
0.0035	-18.42957
0.004	-18.73169
0.0045	-20.54443
0.005	-19.73877
0.0055	-14.40125
0.006	-15.30762
0.0065	-12.08496
0.007	-8.66089
0.0075	-6.64673
0.008	1.51062
0.0085	8.7616
0.009	8.7616
0.0095	23.8678
0.01	22.86072
0.0105	31.52161
0.011	34.14001
0.0115	33.23364
0.012	28.39966
0.0125	25.177
0.013	27.89612
0.0135	26.08337
0.014	26.48621
0.0145	23.76709
0.015	21.55151
0.0155	22.6593
0.016	11.38
0.0165	7.25098
0.017	-10.47363
0.0175	-10.17151
0.018	-2.41699
0.0185	11.78284
0.019	19.13452
0.0195	19.73877
0.02	20.34302
0.0205	13.29346
0.021	4.53186
0.0215	-3.32336
0.022	-4.83398
0.0225	-15.60974
0.023	-25.98267
0.0235	-31.11877
0.024	-34.64355
0.0245	-32.93152
0.025	-43.80798
0.0255	-42.7002
0.026	-40.98816
0.0265	-43.00232
0.027	-37.36267
0.0275	-33.43506
0.028	-30.2124
0.0285	-25.68054
0.029	-23.56567
0.0295	-24.47205
0.03	-29.91028
0.0305	-15.00549
0.031	-3.52478
0.0315	1.40991
0.032	-1.51062
0.0325	-6.14319
0.033	-20.24231
0.0335	-21.3501
0.034	-20.64514
0.0345	-24.06921
0.035	-29.50745
0.0355	-4.73328
0.036	26.3855
0.0365	58.41064
0.037	98.89526
0.0375	133.3374
0.038	140.28625
0.0385	120.34607
0.039	101.11084
0.0395	61.6333
0.04	32.52869
0.0405	-4.12903
0.041	-30.31311
0.0415	-45.41931
0.042	-55.89294
0.0425	-62.8418
0.043	-67.07153
0.0435	-71.30127
0.044	-73.61755
0.0445	-70.59631
0.045	-63.84888
0.0455	-55.79224
0.046	-52.771
0.0465	-44.71436
0.047	-50.05188
0.0475	-47.33276
0.048	-38.67188
0.0485	-40.48462
0.049	-36.05347
0.0495	-39.57825
0.05	-41.4917
0.0505	-39.17542
0.051	-44.51294
0.0515	-48.03772
0.052	-39.88037
0.0525	-22.96143
0.053	-12.38708
0.0535	-5.23682
0.054	1.71204
0.0545	2.21558
0.055	-2.21558
0.0555	-5.74036
0.056	-10.27222
0.0565	-11.58142
0.057	-13.99841
0.0575	-13.59558
0.058	-22.86072
0.0585	-24.47205
0.059	-25.47913
0.0595	-27.99683
0.06	-22.15576
0.0605	-5.33752
0.061	4.93469
0.0615	6.04248
0.062	13.49487
0.0625	12.48779
0.063	12.68921
0.0635	10.77576
0.064	5.63965
0.0645	0
0.065	-18.53027
0.0655	-19.13452
0.066	-34.64355
0.0665	-39.17542
0.067	-51.96533
0.0675	-51.66321
0.068	-52.771
0.0685	-45.82214
0.069	-47.93701
0.0695	-40.58533
0.07	-36.4563
0.0705	-31.72302
0.071	-29.30603
0.0715	-21.95435
0.072	-11.07788
0.0725	-9.76868
0.073	1.10779
0.0735	8.8623
0.074	12.18567
0.0745	11.98425
0.075	8.45947
0.0755	7.85522
0.076	3.8269
0.0765	5.63965
0.077	-8.66089
0.0775	-12.48779
0.078	-19.23523
0.0785	-23.26355
0.079	-30.41382
0.0795	-23.96851
0.08	-20.94727
0.0805	-11.07788
0.081	-20.04089
0.0815	-18.93311
0.082	-13.49487
0.0825	-10.97717
0.083	-10.97717
0.0835	-18.42957
0.084	-16.3147
0.0845	-15.91187
0.085	-8.15735
0.0855	-15.91187
0.086	-9.16443
0.0865	-17.32178
0.087	-23.76709
0.0875	-27.39258
0.088	-29.30603
0.0885	-19.63806
0.089	-8.56018
0.0895	4.93469
0.09	6.64673
0.0905	5.33752
0.091	10.87646
0.0915	24.06921
0.092	55.69153
0.0925	67.67578
0.093	61.43188
0.0935	55.59082
0.094	88.92517
0.0945	152.67334
0.095	174.32556
0.0955	156.80237
0.096	154.08325
0.0965	129.00696
0.097	78.25012
0.0975	26.08337
0.098	-16.51611
0.0985	-53.97949
0.099	-79.35791
0.0995	-98.79456
0.1	-116.31775
0.1005	-118.53333
0.101	-126.89209
0.1015	-118.63403
0.102	-109.87244
0.1025	-91.14075
0.103	-74.72534
0.1035	-43.60657
0.104	-26.28479
0.1045	-2.92053
0.105	19.83948
0.1055	28.9032
0.106	27.89612
0.1065	17.52319
0.107	13.89771
0.1075	6.74744
0.108	-19.03381
0.1085	-36.05347
0.109	-46.12427
0.1095	-40.68604
0.11	-38.16833
0.1105	-24.37134
0.111	-14.19983
0.1115	-7.15027
0.112	-1.3092
0.1125	2.21558
0.113	3.32336
0.1135	5.0354
0.114	7.65381
0.1145	9.46655
0.115	5.84106
0.1155	10.37292
0.116	8.35876
0.1165	16.3147
0.117	14.80408
0.1175	15.60974
0.118	14.19983
0.1185	21.55151
0.119	22.35718
0.1195	14.19983
0.12	19.03381
0.1205	37.46338
0.121	50.45471
0.1215	50.85754
0.122	39.17542
0.1225	20.94727
0.123	-6.3446
0.1235	15.81116
0.124	47.7356
0.1245	59.1156
0.125	61.93542
0.1255	55.3894
0.126	31.11877
0.1265	8.05664
0.127	-17.82532
0.1275	-49.34692
0.128	-76.33667
0.1285	-102.31934
0.129	-129.91333
0.1295	-145.8252
0.13	-157.60803
0.1305	-165.06042
0.131	-156.90308
0.1315	-160.22644
0.132	-151.76697
0.1325	-146.83228
0.133	-143.10608
0.1335	-134.14307
0.134	-123.97156
0.1345	-111.38306
0.135	-90.33508
0.1355	-78.75366
0.136	-72.71118
0.1365	-53.57666
0.137	-32.02515
0.1375	-23.8678
0.138	-6.3446
0.1385	1.91345
0.139	21.24939
0.1395	30.2124
0.14	19.23523
0.1405	13.89771
0.141	13.29346
0.1415	14.70337
0.142	19.83948
0.1425	23.26355
0.143	20.34302
0.1435	22.25647
0.144	19.83948
0.1445	16.81824
0.145	14.09912
0.1455	14.30054
0.146	4.73328
0.1465	-2.61841
0.147	-11.17859
0.1475	-17.72461
0.148	-34.34143
0.1485	-38.87329
0.149	-44.11011
0.1495	-43.30444
0.15	-42.7002
0.1505	-37.46338
0.151	-29.80957
0.1515	-21.55151
0.152	-17.42249
0.1525	-7.95593
0.153	-5.53894
0.1535	-4.02832
0.154	1.10779
0.1545	-3.52478
0.155	5.43823
0.1555	-0.80566
0.156	0.70496
0.1565	10.0708
0.157	7.15027
0.1575	2.61841
0.158	0.80566
0.1585	-4.93469
0.159	20.64514
0.1595	39.77966
0.16	33.43506
0.1605	19.53735
0.161	6.74744
0.1615	-30.01099
0.162	-65.66162
0.1625	-71.80481
0.163	-48.84338
0.1635	-24.06921
0.164	-7.85522
0.1645	7.15027
0.165	22.25647
0.1655	25.27771
0.166	30.31311
0.1665	23.16284
0.167	30.01099
0.1675	38.16833
0.168	40.2832
0.1685	32.7301
0.169	26.48621
0.1695	24.47205
0.17	22.45789
0.1705	30.81665
0.171	41.59241
0.1715	54.78516
0.172	63.94958
0.1725	73.51685
0.173	82.9834
0.1735	84.39331
0.174	80.16357
0.1745	67.17224
0.175	60.12268
0.1755	52.46887
0.176	40.58533
0.1765	34.34143
0.177	33.83789
0.1775	47.63489
0.178	47.43347
0.1785	52.46887
0.179	59.21631
0.1795	74.62463
0.18	94.16199
0.1805	110.27527
0.181	110.37598
0.1815	102.21863
0.182	98.59314
0.1825	89.42871
0.183	84.49402
0.1835	71.7041
0.184	63.74817
0.1845	55.18799
0.185	46.62781
0.1855	34.34143
0.186	27.6947
0.1865	16.41541
0.187	44.11011
0.1875	77.74658
0.188	102.72217
0.1885	104.13208
0.189	101.01013
0.1895	98.0896
0.19	91.54358
0.1905	69.38782
0.191	51.96533
0.1915	27.79541
0.192	4.12903
0.1925	-11.78284
0.193	-20.94727
0.1935	-31.01807
0.194	-32.32727
0.1945	-24.16992
0.195	-17.32178
0.1955	-4.43115
0.196	-3.52478
0.1965	9.97009
0.197	8.8623
0.1975	10.47363
0.198	10.97717
0.1985	5.43823
0.199	8.05664
0.1995	4.73328
0.2	5.84106
0.2005	-5.94177
0.201	-14.50195
0.2015	-23.56567
0.202	-24.37134
0.2025	-34.54285
0.203	-30.71594
0.2035	-37.26196
0.204	-42.7002
0.2045	-49.24622
0.205	-46.12427
0.2055	-44.41223
0.206	-35.34851
0.2065	-33.03223
0.207	-27.6947
0.2075	-19.94019
0.208	-15.20691
0.2085	-12.68921
0.209	-11.68213
0.2095	-17.42249
0.21	-24.06921
0.2105	-5.94177
0.211	47.23206
0.2115	63.44604
0.212	69.48853
0.2125	63.94958
0.213	50.85754
0.2135	47.63489
0.214	21.75293
0.2145	21.3501
0.215	21.85364
0.2155	9.36584
0.216	-2.01416
0.2165	11.98425
0.217	15.40833
0.2175	13.49487
0.218	-0.50354
0.2185	-22.35718
0.219	-31.4209
0.2195	-49.74976
0.22	-51.86462
0.2205	-68.07861
0.221	-71.09985
0.2215	-63.44604
0.222	-61.6333
0.2225	-55.89294
0.223	-51.26038
0.2235	-46.82922
0.224	-32.83081
0.2245	-21.65222
0.225	9.46655
0.2255	16.61682
0.226	14.30054
0.2265	2.81982
0.227	-22.76001
0.2275	-47.13135
0.228	-68.07861
0.2285	-84.39331
0.229	-91.44287
0.2295	-94.06128
0.23	-86.40747
0.2305	-74.82605
0.231	-71.50269
0.2315	-50.95825
0.232	-29.50745
0.2325	-2.81982
0.233	18.02673
0.2335	33.83789
0.234	34.54285
0.2345	16.21399
0.235	-9.46655
0.2355	-39.77966
0.236	-57.60498
0.2365	-71.60339
0.237	-81.97632
0.2375	-75.63171
0.238	-66.6687
0.2385	-62.23755
0.239	-46.5271
0.2395	-33.83789
0.24	-22.15576
0.2405	3.62549
0.241	27.39258
0.2415	35.44922
0.242	44.21082
0.2425	53.77808
0.243	65.46021
0.2435	61.12976
0.244	53.57666
0.2445	57.10144
0.245	66.06445
0.2455	83.68835
0.246	93.75916
0.2465	115.61279
0.247	128.80554
0.2475	128.70483
0.248	129.91333
0.2485	134.14307
0.249	131.82678
0.2495	130.92041
0.25	128.20129
0.2505	126.9928
0.251	127.29492
0.2515	119.23828
0.252	109.67102
0.2525	97.38464
0.253	76.94092
0.2535	66.87012
0.254	58.41064
0.2545	43.90869
0.255	37.26196
0.2555	31.21948
0.256	23.06213
0.2565	4.93469
0.257	-19.83948
0.2575	25.88196
0.258	75.4303
0.2585	104.83704
0.259	110.47668
0.2595	78.95508
0.26	37.16125
0.2605	11.2793
0.261	-16.21399
0.2615	-29.60815
0.262	-51.26038
0.2625	-56.79932
0.263	-55.08728
0.2635	-58.51135
0.264	-66.26587
0.2645	-83.08411
0.265	-75.83313
0.2655	-79.86145
0.266	-78.35083
0.2665	-78.25012
0.267	-73.91968
0.2675	-61.73401
0.268	-44.31152
0.2685	-33.83789
0.269	-26.68762
0.2695	-13.89771
0.27	-7.75452
0.2705	10.27222
0.271	27.49329
0.2715	32.32727
0.272	40.08179
0.2725	46.22498
0.273	49.34692
0.2735	48.03772
0.274	44.81506
0.2745	43.10303
0.275	49.14551
0.2755	43.00232
0.276	44.61365
0.2765	48.13843
0.277	46.62781
0.2775	43.50586
0.278	39.07471
0.2785	34.74426
0.279	19.13452
0.2795	2.5177
0.28	-15.81116
0.2805	-27.99683
0.281	-38.67188
0.2815	-42.29736
0.282	-38.87329
0.2825	-35.54993
0.283	-42.09595
0.2835	-39.77966
0.284	-37.66479
0.2845	-44.11011
0.285	-38.47046
0.2855	-38.87329
0.286	-33.9386
0.2865	-27.89612
0.287	-20.04089
0.2875	-5.94177
0.288	0.80566
0.2885	8.8623
0.289	22.76001
0.2895	28.70178
0.29	34.14001
0.2905	31.52161
0.291	31.72302
0.2915	22.55859
0.292	20.24231
0.2925	25.37842
0.293	27.09045
0.2935	22.15576
0.294	26.98975
0.2945	36.05347
0.295	43.50586
0.2955	43.10303
0.296	34.64355
0.2965	25.27771
0.297	25.177
0.2975	21.04797
0.298	13.49487
0.2985	9.06372
0.299	5.74036
0.2995	6.14319
0.3	0.30212
0.3005	-1.40991
0.301	-3.92761
0.3015	-6.2439
0.302	-4.43115
0.3025	-9.36584
0.303	-14.30054
0.3035	-11.07788
0.304	-15.00549
0.3045	-17.22107
0.305	-11.88354
0.3055	-14.70337
0.306	-13.09204
0.3065	-11.78284
0.307	-7.45239
0.3075	-5.53894
0.308	1.10779
0.3085	9.06372
0.309	23.16284
0.3095	35.54993
0.31	44.11011
0.3105	41.08887
0.311	34.74426
0.3115	27.99683
0.312	3.7262
0.3125	-23.8678
0.313	-46.12427
0.3135	-60.12268
0.314	-84.2926
0.3145	-115.51208
0.315	-141.89758
0.3155	-151.66626
0.316	-153.98254
0.3165	-144.41528
0.317	-135.25085
0.3175	-118.02979
0.318	-95.16907
0.3185	-71.60339
0.319	-49.14551
0.3195	-26.3855
0.32	-13.09204
0.3205	0.90637
0.321	15.60974
0.3215	34.74426
0.322	48.33984
0.3225	39.47754
0.323	14.09912
0.3235	35.2478
0.324	55.3894
0.3245	73.01331
0.325	68.17932
0.3255	63.74817
0.326	66.36658
0.3265	84.2926
0.327	90.73792
0.3275	90.63721
0.328	60.72693
0.3285	19.53735
0.329	-31.21948
0.3295	-67.57507
0.33	-89.83154
0.3305	-91.04004
0.331	-77.64587
0.3315	-63.74817
0.332	-42.90161
0.3325	-21.55151
0.333	4.63257
0.3335	20.44373
0.334	30.61523
0.3345	38.67188
0.335	46.92993
0.3355	43.20374
0.336	45.2179
0.3365	49.44763
0.337	58.61206
0.3375	71.20056
0.338	73.81897
0.3385	72.71118
0.339	80.26428
0.3395	87.21313
0.34	93.15491
0.3405	95.47119
0.341	97.68677
0.3415	84.69543
0.342	64.45312
0.3425	55.99365
0.343	41.4917
0.3435	34.24072
0.344	20.44373
0.3445	13.89771
0.345	3.02124
0.3455	-0.20142
0.346	0.80566
0.3465	4.73328
0.347	-3.7262
0.3475	-7.45239
0.348	-13.09204
0.3485	-12.48779
0.349	-20.24231
0.3495	-20.64514
0.35	-26.18408
0.3505	-35.14709
0.351	-39.07471
0.3515	-45.92285
0.352	-36.05347
0.3525	-36.85913
0.353	-35.75134
0.3535	-28.60107
0.354	-26.58691
0.3545	-22.15576
0.355	-23.96851
0.3555	-24.57275
0.356	-26.08337
0.3565	-31.21948
0.357	-29.30603
0.3575	-23.06213
0.358	-19.43665
0.3585	-9.66797
0.359	4.12903
0.3595	14.70337
0.36	23.26355
0.3605	22.76001
0.361	20.34302
0.3615	19.63806
0.362	3.22266
0.3625	4.02832
0.363	1.91345
0.3635	-3.8269
0.364	-13.09204
0.3645	-17.72461
0.365	-21.75293
0.3655	-13.29346
0.366	-6.14319
0.3665	-3.22266
0.367	3.7262
0.3675	2.21558
0.368	-1.10779
0.3685	-20.64514
0.369	-28.29895
0.3695	-27.39258
0.37	-24.77417
0.3705	-26.08337
0.371	-23.76709
0.3715	-29.91028
0.372	-21.75293
0.3725	-22.55859
0.373	-19.33594
0.3735	-19.63806
0.374	-27.99683
0.3745	-28.29895
0.375	-22.55859
0.3755	-17.6239
0.376	-20.34302
0.3765	-22.6593
0.377	-16.61682
0.3775	-20.44373
0.378	-17.82532
0.3785	-11.58142
0.379	-15.60974
0.3795	-14.50195
0.38	-16.01257
0.3805	-13.59558
0.381	-17.01965
0.3815	-17.42249
0.382	-13.89771
0.3825	-18.8324
0.383	-13.797
0.3835	-21.55151
0.384	-20.34302
0.3845	-27.6947
0.385	-30.61523
0.3855	-38.26904
0.386	-32.42798
0.3865	-27.99683
0.387	-20.1416
0.3875	-15.40833
0.388	-12.99133
0.3885	-13.09204
0.389	-7.15027
0.3895	-9.26514
0.39	-1.51062
0.3905	-6.3446
0.391	-4.02832
0.3915	-4.22974
0.392	-13.29346
0.3925	-14.09912
0.393	-15.40833
0.3935	-16.61682
0.394	-20.54443
0.3945	-20.44373
0.395	-24.06921
0.3955	-19.13452
0.396	-18.32886
0.3965	-15.40833
0.397	-12.5885
0.3975	-9.76868
0.398	-14.50195
0.3985	-9.97009
0.399	-10.0708
0.3995	-5.23682
0.4	7.04956
0.4005	16.51611
0.401	13.29346
0.4015	9.66797
0.402	15.91187
0.4025	13.99841
0.403	4.33044
0.4035	-2.92053
0.404	-3.8269
0.4045	-1.81274
0.405	2.81982
0.4055	-1.10779
0.406	-1.61133
0.4065	-9.66797
0.407	-6.94885
0.4075	-5.23682
0.408	-6.94885
0.4085	-0.60425
0.409	-8.25806
0.4095	-9.56726
0.41	-8.25806
0.4105	-10.0708
0.411	-8.96301
0.4115	-2.11487
0.412	-2.01416
0.4125	0.70496
0.413	0.30212
0.4135	6.74744
0.414	6.84814
0.4145	8.05664
0.415	17.82532
0.4155	28.9032
0.416	32.93152
0.4165	20.24231
0.417	13.69629
0.4175	-9.26514
0.418	-24.67346
0.4185	-30.91736
0.419	-37.26196
0.4195	-35.85205
0.42	-39.37683
0.4205	-47.13135
0.421	-49.85046
0.4215	-45.62073
0.422	-39.07471
0.4225	-26.88904
0.423	-18.02673
0.4235	-5.94177
0.424	4.93469
0.4245	15.50903
0.425	29.91028
0.4255	35.44922
0.426	37.66479
0.4265	37.7655
0.427	43.80798
0.4275	43.60657
0.428	42.29736
0.4285	51.26038
0.429	48.23914
0.4295	49.34692
0.43	46.42639
0.4305	38.57117
0.431	37.26196
0.4315	32.7301
0.432	19.43665
0.4325	17.32178
0.433	17.82532
0.4335	11.2793
0.434	14.09912
0.4345	11.58142
0.435	4.12903
0.4355	4.02832
0.436	6.04248
0.4365	6.94885
0.437	4.83398
0.4375	11.17859
0.438	19.94019
0.4385	15.50903
0.439	22.35718
0.4395	18.32886
0.44	16.21399
0.4405	15.60974
0.441	8.35876
0.4415	5.74036
0.442	8.15735
0.4425	3.12195
0.443	2.61841
0.4435	2.5177
0.444	4.93469
0.4445	5.84106
0.445	5.0354
0.4455	8.15735
0.446	7.5531
0.4465	7.25098
0.447	13.49487
0.4475	9.36584
0.448	3.02124
0.4485	1.10779
0.449	-2.31628
0.4495	-5.84106
0.45	-8.25806
0.4505	-19.23523
0.451	-27.49329
0.4515	-34.14001
0.452	-30.61523
0.4525	-23.26355
0.453	-20.74585
0.4535	-22.86072
0.454	-23.16284
0.4545	-26.88904
0.455	-17.72461
0.4555	-15.00549
0.456	-7.85522
0.4565	-7.04956
0.457	-4.93469
0.4575	1.2085
0.458	5.0354
0.4585	8.8623
0.459	9.36584
0.4595	18.02673
0.46	12.18567
0.4605	11.17859
0.461	16.91895
0.4615	13.09204
0.462	11.78284
0.4625	3.62549
0.463	2.01416
0.4635	1.71204
0.464	-3.8269
0.4645	1.61133
0.465	8.45947
0.4655	5.0354
0.466	8.35876
0.4665	1.3092
0.467	1.10779
0.4675	0.20142
0.468	-2.71912
0.4685	-8.7616
0.469	-15.1062
0.4695	-19.43665
0.47	-19.53735
0.4705	-21.85364
0.471	-23.66638
0.4715	-25.27771
0.472	-27.59399
0.4725	-19.63806
0.473	-18.22815
0.4735	-19.73877
0.474	-16.01257
0.4745	-13.49487
0.475	-13.797
0.4755	-2.92053
0.476	10.67505
0.4765	6.94885
0.477	4.43115
0.4775	4.43115
0.478	-0.40283
0.4785	0.60425
0.479	-6.14319
0.4795	-6.14319
0.48	-2.71912
0.4805	-3.12195
0.481	-6.84814
0.4815	-0.10071
0.482	-3.62549
0.4825	-0.60425
0.483	3.42407
0.4835	10.17151
0.484	15.30762
0.4845	16.71753
0.485	18.53027
0.4855	23.36426
0.486	33.13293
0.4865	31.11877
0.487	26.68762
0.4875	15.91187
0.488	11.07788
0.4885	13.49487
0.489	9.16443
0.4895	12.5885
0.49	10.47363
0.4905	8.45947
0.491	3.02124
0.4915	5.33752
0.492	-3.12195
0.4925	-5.84106
0.493	-11.07788
0.4935	-10.77576
0.494	-10.0708
0.4945	-18.32886
0.495	-10.57434
0.4955	-15.71045
0.496	-12.18567
0.4965	-12.18567
0.497	-8.66089
0.4975	1.00708
0.498	-4.22974
0.4985	-5.74036
0.499	-7.65381
0.4995	-15.81116
0.5	-22.25647
0.5005	-21.24939
0.501	-27.49329
0.5015	-21.55151
0.502	-24.87488
0.5025	-16.81824
0.503	-17.42249
0.5035	-9.16443
0.504	0.30212
0.5045	3.12195
0.505	10.67505
0.5055	6.94885
0.506	17.12036
0.5065	20.74585
0.507	16.3147
0.5075	23.26355
0.508	24.57275
0.5085	25.88196
0.509	30.71594
0.5095	29.40674
0.51	28.80249
0.5105	21.85364
0.511	15.1062
0.5115	12.78992
0.512	15.00549
0.5125	11.07788
0.513	5.74036
0.5135	10.47363
0.514	19.53735
0.5145	21.95435
0.515	12.08496
0.5155	13.19275
0.516	17.72461
0.5165	8.25806
0.517	13.19275
0.5175	7.65381
0.518	9.16443
0.5185	10.47363
0.519	8.15735
0.5195	9.26514
0.52	10.67505
0.5205	10.17151
0.521	13.797
0.5215	5.23682
0.522	12.89062
0.5225	8.7616
0.523	13.39417
0.5235	19.33594
0.524	21.14868
0.5245	18.63098
0.525	19.13452
0.5255	20.34302
0.526	13.797
0.5265	16.61682
0.527	12.08496
0.5275	17.22107
0.528	11.88354
0.5285	11.58142
0.529	18.32886
0.5295	21.04797
0.53	20.1416
0.5305	27.39258
0.531	22.96143
0.5315	32.42798
0.532	33.63647
0.5325	33.83789
0.533	33.73718
0.5335	35.44922
0.534	33.33435
0.5345	30.81665
0.535	31.11877
0.5355	29.80957
0.536	36.95984
0.5365	32.52869
0.537	31.01807
0.5375	27.99683
0.538	16.51611
0.5385	6.3446
0.539	3.12195
0.5395	-8.35876
0.54	-17.32178
0.5405	-22.15576
0.541	-28.29895
0.5415	-29.40674
0.542	-38.87329
0.5425	-40.38391
0.543	-45.92285
0.5435	-47.7356
0.544	-53.47595
0.5445	-53.87878
0.545	-51.26038
0.5455	-49.74976
0.546	-43.60657
0.5465	-45.01648
0.547	-39.88037
0.5475	-33.63647
0.548	-35.34851
0.5485	-27.39258
0.549	-24.16992
0.5495	-24.16992
0.55	-18.93311
0.5505	-15.91187
0.551	-7.75452
0.5515	-12.89062
0.552	-11.88354
0.5525	-9.26514
0.553	-10.37292
0.5535	-9.76868
0.554	-4.53186
0.5545	-4.12903
0.555	-2.11487
0.5555	-5.84106
0.556	1.40991
0.5565	6.54602
0.557	0.30212
0.5575	4.73328
0.558	3.12195
0.5585	5.63965
0.559	3.02124
0.5595	6.84814
0.56	7.15027
0.5605	10.37292
0.561	11.98425
0.5615	11.17859
0.562	15.30762
0.5625	15.30762
0.563	18.32886
0.5635	21.45081
0.564	20.94727
0.5645	27.49329
0.565	26.58691
0.5655	22.55859
0.566	19.83948
0.5665	17.82532
0.567	23.76709
0.5675	19.73877
0.568	19.63806
0.5685	21.55151
0.569	18.73169
0.5695	20.1416
0.57	16.81824
0.5705	18.22815
0.571	10.57434
0.5715	10.0708
0.572	14.09912
0.5725	9.46655
0.573	0.30212
0.5735	0.70496
0.574	-0.30212
0.5745	3.62549
0.575	-1.51062
0.5755	-7.95593
0.576	-3.8269
0.5765	-4.22974
0.577	-4.02832
0.5775	-6.14319
0.578	-2.81982
0.5785	-6.14319
0.579	-13.09204
0.5795	-16.41541
0.58	-15.81116
0.5805	-17.42249
0.581	-14.70337
0.5815	-16.61682
0.582	-8.56018
0.5825	-7.15027
0.583	-6.3446
0.5835	-2.81982
0.584	-2.71912
0.5845	-2.41699
0.585	-0.40283
0.5855	-4.22974
0.586	-2.11487
0.5865	-0.50354
0.587	-3.62549
0.5875	-3.52478
0.588	-2.01416
0.5885	-2.01416
0.589	-0.90637
0.5895	-1.3092
0.59	0.60425
0.5905	0.10071
0.591	-4.43115
0.5915	-1.51062
0.592	-6.54602
0.5925	-5.23682
0.593	-4.43115
0.5935	-1.91345
0.594	2.41699
0.5945	1.91345
0.595	-0.90637
0.5955	-5.23682
0.596	-2.81982
0.5965	1.61133
0.597	-1.71204
0.5975	-4.83398
0.598	-8.05664
0.5985	-3.42407
0.599	2.31628
0.5995	1.3092
0.6	-2.71912
0.6005	5.0354
0.601	1.91345
0.6015	-0.90637
0.602	5.74036
0.6025	8.35876
0.603	10.57434
0.6035	13.49487
0.604	14.19983
0.6045	19.63806
0.605	16.71753
0.6055	20.74585
0.606	19.63806
0.6065	20.54443
0.607	26.3855
0.6075	24.67346
0.608	28.50037
0.6085	29.50745
0.609	22.6593
0.6095	15.60974
0.61	19.83948
0.6105	14.09912
0.611	13.797
0.6115	10.27222
0.612	13.797
0.6125	4.63257
0.613	-1.00708
0.6135	-8.66089
0.614	-15.20691
0.6145	-17.6239
0.615	-34.44214
0.6155	-46.32568
0.616	-52.36816
0.6165	-58.51135
0.617	-58.20923
0.6175	-49.14551
0.618	-41.89453
0.6185	-43.80798
0.619	-32.52869
0.6195	-29.30603
0.62	-24.37134
0.6205	-23.16284
0.621	-21.65222
0.6215	-16.81824
0.622	-14.09912
0.6225	-15.60974
0.623	-14.70337
0.6235	-5.63965
0.624	-0.40283
0.6245	4.93469
0.625	10.77576
0.6255	12.5885
0.626	18.63098
0.6265	12.78992
0.627	7.15027
0.6275	2.61841
0.628	4.22974
0.6285	4.12903
0.629	2.11487
0.6295	3.62549
0.63	4.53186
0.6305	4.02832
0.631	2.5177
0.6315	3.62549
0.632	7.35168
0.6325	6.94885
0.633	5.13611
0.6335	11.98425
0.634	11.07788
0.6345	13.797
0.635	14.09912
0.6355	22.96143
0.636	21.65222
0.6365	12.5885
0.637	13.89771
0.6375	22.76001
0.638	27.6947
0.6385	29.60815
0.639	35.65063
0.6395	31.4209
0.64	39.37683
0.6405	35.65063
0.641	41.18958
0.6415	44.51294
0.642	51.86462
0.6425	50.15259
0.643	50.65613
0.6435	45.3186
0.644	45.62073
0.6445	48.33984
0.645	41.59241
0.6455	43.20374
0.646	42.49878
0.6465	34.34143
0.647	31.21948
0.6475	24.16992
0.648	15.81116
0.6485	15.20691
0.649	0.50354
0.6495	-4.63257
0.65	-9.66797
0.6505	-18.93311
0.651	-27.19116
0.6515	-31.21948
0.652	-32.93152
0.6525	-31.52161
0.653	-26.48621
0.6535	-29.70886
0.654	-23.16284
0.6545	-26.48621
0.655	-18.63098
0.6555	-19.03381
0.656	-18.63098
0.6565	-12.18567
0.657	-9.66797
0.6575	-5.94177
0.658	-0.30212
0.6585	-4.73328
0.659	0.10071
0.6595	2.41699
0.66	2.81982
0.6605	2.21558
0.661	7.25098
0.6615	5.13611
0.662	7.95593
0.6625	13.59558
0.663	8.56018
0.6635	11.17859
0.664	16.41541
0.6645	16.71753
0.665	25.177
0.6655	15.60974
0.666	22.55859
0.6665	33.83789
0.667	30.81665
0.6675	36.75842
0.668	32.93152
0.6685	28.60107
0.669	25.177
0.6695	31.82373
0.67	30.71594
0.6705	26.98975
0.671	29.60815
0.6715	24.47205
0.672	27.79541
0.6725	27.6947
0.673	12.99133
0.6735	7.35168
0.674	1.2085
0.6745	5.74036
0.675	0.60425
0.6755	3.42407
0.676	-8.66089
0.6765	-11.48071
0.677	-14.80408
0.6775	-18.73169
0.678	-25.47913
0.6785	-26.98975
0.679	-33.53577
0.6795	-36.4563
0.68	-47.23206
0.6805	-44.71436
0.681	-51.46179
0.6815	-54.68445
0.682	-59.21631
0.6825	-58.81348
0.683	-60.82764
0.6835	-57.20215
0.684	-54.18091
0.6845	-45.92285
0.685	-39.77966
0.6855	-40.98816
0.686	-35.95276
0.6865	-29.70886
0.687	-32.02515
0.6875	-30.51453
0.688	-31.4209
0.6885	-40.58533
0.689	-39.77966
0.6895	-45.52002
0.69	-30.2124
0.6905	-24.16992
0.691	-13.69629
0.6915	-14.60266
0.692	-10.77576
0.6925	-9.56726
0.693	-8.8623
0.6935	-16.41541
0.694	-19.13452
0.6945	-24.97559
0.695	-28.09753
0.6955	-22.86072
0.696	-18.12744
0.6965	-12.99133
0.697	-10.17151
0.6975	-5.84106
0.698	-4.22974
0.6985	-2.92053
0.699	8.8623
0.6995	8.05664
0.7	11.17859
0.7005	15.20691
0.701	12.99133
0.7015	10.27222
0.702	8.96301
0.7025	3.7262
0.703	0.50354
0.7035	0.20142
0.704	3.02124
0.7045	-1.91345
0.705	-2.31628
0.7055	3.8269
0.706	4.02832
0.7065	1.10779
0.707	2.71912
0.7075	8.66089
0.708	8.56018
0.7085	8.15735
0.709	8.15735
0.7095	8.66089
0.71	11.68213
0.7105	3.22266
0.711	1.10779
0.7115	-6.04248
0.712	-12.48779
0.7125	-19.43665
0.713	-22.55859
0.7135	-19.83948
0.714	-23.66638
0.7145	-25.27771
0.715	-30.61523
0.7155	-34.44214
0.716	-44.71436
0.7165	-52.56958
0.717	-54.38232
0.7175	-58.10852
0.718	-48.54126
0.7185	-51.76392
0.719	-42.7002
0.7195	-43.10303
0.72	-61.83472
0.7205	-68.07861
0.721	-79.76074
0.7215	-78.35083
0.722	-86.60889
0.7225	-84.19189
0.723	-80.16357
0.7235	-82.58057
0.724	-70.29419
0.7245	-66.56799
0.725	-49.74976
0.7255	-42.29736
0.726	-29.30603
0.7265	-26.68762
0.727	-18.42957
0.7275	-8.7616
0.728	-5.0354
0.7285	-0.80566
0.729	-1.2085
0.7295	-5.0354
0.73	2.41699
0.7305	7.5531
0.731	17.72461
0.7315	12.38708
0.732	14.90479
0.7325	14.09912
0.733	20.94727
0.7335	27.6947
0.734	38.47046
0.7345	37.26196
0.735	46.62781
0.7355	42.7002
0.736	50.2533
0.7365	47.23206
0.737	44.81506
0.7375	41.59241
0.738	32.62939
0.7385	26.68762
0.739	27.09045
0.7395	27.6947
0.74	28.19824
0.7405	17.01965
0.741	18.32886
0.7415	19.73877
0.742	16.51611
0.7425	15.81116
0.743	6.74744
0.7435	2.41699
0.744	-1.51062
0.7445	-9.66797
0.745	-6.94885
0.7455	-4.33044
0.746	-13.89771
0.7465	-11.78284
0.747	-15.20691
0.7475	-17.52319
0.748	-13.99841
0.7485	-18.63098
0.749	-16.41541
0.7495	-11.58142
0.75	-5.63965
0.7505	-8.25806
0.751	-11.2793
0.7515	-8.56018
0.752	-8.15735
0.7525	-3.92761
0.753	-0.50354
0.7535	-1.71204
0.754	-2.21558
0.7545	3.92761
0.755	6.44531
0.7555	4.43115
0.756	14.60266
0.7565	19.13452
0.757	17.72461
0.7575	16.61682
0.758	21.24939
0.7585	25.57983
0.759	18.32886
0.7595	17.72461
0.76	18.12744
0.7605	16.11328
0.761	16.61682
0.7615	8.35876
0.762	4.02832
0.7625	7.45239
0.763	1.61133
0.7635	9.86938
0.764	0.30212
0.7645	0.90637
0.765	-8.15735
0.7655	-12.78992
0.766	-17.22107
0.7665	-20.1416
0.767	-24.37134
0.7675	-31.82373
0.768	-30.01099
0.7685	-33.23364
0.769	-33.9386
0.7695	-33.9386
0.77	-33.03223
0.7705	-29.80957
0.771	-27.39258
0.7715	-26.88904
0.772	-32.52869
0.7725	-29.50745
0.773	-23.36426
0.7735	-21.24939
0.774	-10.37292
0.7745	-6.64673
0.775	-2.5177
0.7755	2.31628
0.776	2.92053
0.7765	-0.50354
0.777	3.62549
0.7775	10.27222
0.778	5.94177
0.7785	4.73328
0.779	5.33752
0.7795	5.43823
0.78	-0.70496
0.7805	1.00708
0.781	5.33752
0.7815	5.63965
0.782	5.23682
0.7825	5.84106
0.783	7.85522
0.7835	-8.96301
0.784	-3.7262
0.7845	0.70496
0.785	7.65381
0.7855	6.94885
0.786	0.90637
0.7865	7.65381
0.787	6.14319
0.7875	7.04956
0.788	-4.63257
0.7885	-9.06372
0.789	-19.33594
0.7895	-20.44373
0.79	-25.68054
0.7905	-20.94727
0.791	-22.86072
0.7915	-25.07629
0.792	-28.19824
0.7925	-17.92603
0.793	-13.59558
0.7935	-15.30762
0.794	-15.20691
0.7945	-12.99133
0.795	-8.7616
0.7955	-1.61133
0.796	0.70496
0.7965	-8.8623
0.797	-19.94019
0.7975	-20.44373
0.798	-23.56567
0.7985	-24.37134
0.799	-27.29187
0.7995	-21.95435
0.8	-17.22107
0.8005	-13.19275
0.801	-9.76868
0.8015	-7.75452
0.802	-7.04956
0.8025	1.00708
0.803	-1.10779
0.8035	-3.02124
0.804	-5.23682
0.8045	-6.2439
0.805	-7.65381
0.8055	-1.40991
0.806	1.00708
0.8065	4.22974
0.807	1.51062
0.8075	-4.12903
0.808	-2.5177
0.8085	-8.8623
0.809	-7.85522
0.8095	-16.81824
0.81	-5.84106
0.8105	3.22266
0.811	4.93469
0.8115	10.37292
0.812	10.17151
0.8125	11.88354
0.813	8.8623
0.8135	6.3446
0.814	3.02124
0.8145	-11.2793
0.815	-19.03381
0.8155	-25.37842
0.816	-22.45789
0.8165	-15.50903
0.817	-10.97717
0.8175	4.22974
0.818	12.99133
0.8185	12.99133
0.819	11.58142
0.8195	7.35168
0.82	-5.23682
0.8205	-13.29346
0.821	-18.32886
0.8215	-30.01099
0.822	-33.43506
0.8225	-25.07629
0.823	-24.37134
0.8235	-29.00391
0.824	-24.16992
0.8245	-16.11328
0.825	-5.0354
0.8255	4.73328
0.826	12.99133
0.8265	19.03381
0.827	19.13452
0.8275	32.93152
0.828	47.63489
0.8285	57.30286
0.829	58.10852
0.8295	62.9425
0.83	77.44446
0.8305	87.91809
0.831	85.19897
0.8315	72.40906
0.832	67.07153
0.8325	68.58215
0.833	65.15808
0.8335	54.28162
0.834	45.52002
0.8345	37.66479
0.835	27.59399
0.8355	18.12744
0.836	4.93469
0.8365	1.91345
0.837	-0.20142
0.8375	-8.05664
0.838	-9.06372
0.8385	-8.15735
0.839	-16.3147
0.8395	-12.18567
0.84	-12.18567
0.8405	-2.92053
0.841	-2.41699
0.8415	-11.07788
0.842	-15.1062
0.8425	-19.33594
0.843	-28.29895
0.8435	-40.48462
0.844	-49.95117
0.8445	-68.78357
0.845	-66.06445
0.8455	-70.3949
0.846	-58.30994
0.8465	-50.2533
0.847	-35.85205
0.8475	-36.85913
0.848	-35.85205
0.8485	-26.58691
0.849	-20.1416
0.8495	-15.60974
0.85	-4.73328
0.8505	0.90637
0.851	6.64673
0.8515	12.5885
0.852	24.67346
0.8525	35.34851
0.853	46.12427
0.8535	43.80798
0.854	47.7356
0.8545	45.3186
0.855	54.98657
0.8555	59.41772
0.856	66.87012
0.8565	54.38232
0.857	53.97949
0.8575	48.13843
0.858	36.65771
0.8585	33.73718
0.859	35.14709
0.8595	27.89612
0.86	34.24072
0.8605	29.20532
0.861	28.60107
0.8615	29.70886
0.862	28.80249
0.8625	25.88196
0.863	31.01807
0.8635	38.26904
0.864	36.95984
0.8645	34.64355
0.865	27.99683
0.8655	19.33594
0.866	10.17151
0.8665	2.71912
0.867	-10.97717
0.8675	-12.28638
0.868	-13.29346
0.8685	-21.55151
0.869	-28.19824
0.8695	-23.8678
0.87	-19.73877
0.8705	-16.91895
0.871	-16.81824
0.8715	-4.73328
0.872	-6.94885
0.8725	-3.22266
0.873	-1.81274
0.8735	2.11487
0.874	-0.80566
0.8745	-3.02124
0.875	-4.43115
0.8755	-9.97009
0.876	-4.22974
0.8765	3.7262
0.877	8.7616
0.8775	10.0708
0.878	10.77576
0.8785	6.2439
0.879	3.42407
0.8795	3.32336
0.88	7.95593
0.8805	3.52478
0.881	-1.3092
0.8815	-2.71912
0.882	-4.93469
0.8825	-9.86938
0.883	-11.48071
0.8835	-19.53735
0.884	-26.68762
0.8845	-28.39966
0.885	-27.59399
0.8855	-26.08337
0.886	-27.99683
0.8865	-16.01257
0.887	-22.6593
0.8875	-25.177
0.888	-26.18408
0.8885	-30.2124
0.889	-29.10461
0.8895	-24.57275
0.89	-24.77417
0.8905	-27.19116
0.891	-34.24072
0.8915	-28.39966
0.892	-26.78833
0.8925	-21.24939
0.893	-19.53735
0.8935	-8.05664
0.894	0.70496
0.8945	0.50354
0.895	3.42407
0.8955	8.35876
0.896	3.8269
0.8965	5.74036
0.897	5.43823
0.8975	4.12903
0.898	3.02124
0.8985	-6.14319
0.899	1.10779
0.8995	-8.8623
0.9	-7.85522
0.9005	-5.13611
0.901	-8.56018
0.9015	-10.87646
0.902	-9.06372
0.9025	-6.14319
0.903	-5.0354
0.9035	-9.56726
0.904	-8.35876
0.9045	-7.95593
0.905	-10.17151
0.9055	-8.35876
0.906	-13.59558
0.9065	-17.12036
0.907	-15.81116
0.9075	-14.70337
0.908	-19.03381
0.9085	-19.23523
0.909	-17.72461
0.9095	-13.39417
0.91	-16.41541
0.9105	-16.51611
0.911	-16.81824
0.9115	-14.70337
0.912	-15.30762
0.9125	-11.17859
0.913	-11.17859
0.9135	-15.1062
0.914	-20.54443
0.9145	-23.06213
0.915	-16.21399
0.9155	-14.50195
0.916	-12.08496
0.9165	-8.35876
0.917	7.04956
0.9175	10.77576
0.918	16.91895
0.9185	18.22815
0.919	19.94019
0.9195	18.32886
0.92	12.89062
0.9205	14.70337
0.921	16.71753
0.9215	18.02673
0.922	5.0354
0.9225	-1.2085
0.923	-8.56018
0.9235	-16.51611
0.924	-18.22815
0.9245	-25.177
0.925	-31.11877
0.9255	-31.92444
0.926	-26.88904
0.9265	-24.57275
0.927	-21.55151
0.9275	-17.01965
0.928	-20.04089
0.9285	-21.95435
0.929	-22.15576
0.9295	-20.34302
0.93	-12.68921
0.9305	-11.58142
0.931	-10.17151
0.9315	-6.94885
0.932	-1.51062
0.9325	6.54602
0.933	3.32336
0.9335	1.71204
0.934	-2.01416
0.9345	-1.10779
0.935	-4.73328
0.9355	-7.04956
0.936	-9.76868
0.9365	-3.32336
0.937	-7.5531
0.9375	-1.2085
0.938	-3.42407
0.9385	3.12195
0.939	-6.14319
0.9395	-6.2439
0.94	-0.80566
0.9405	-1.51062
0.941	-11.38
0.9415	-5.53894
0.942	-1.40991
0.9425	2.61841
0.943	4.33044
0.9435	3.32336
0.944	13.09204
0.9445	9.56726
0.945	10.97717
0.9455	17.22107
0.946	9.66797
0.9465	14.70337
0.947	19.13452
0.9475	21.85364
0.948	16.71753
0.9485	18.63098
0.949	24.06921
0.9495	18.73169
0.95	22.55859
0.9505	18.53027
0.951	21.65222
0.9515	26.98975
0.952	29.70886
0.9525	35.65063
0.953	29.40674
0.9535	31.01807
0.954	32.83081
0.9545	32.7301
0.955	40.08179
0.9555	40.88745
0.956	32.83081
0.9565	31.62231
0.957	25.98267
0.9575	26.68762
0.958	21.65222
0.9585	13.797
0.959	16.41541
0.9595	13.99841
0.96	18.73169
0.9605	16.01257
0.961	12.5885
0.9615	10.57434
0.962	7.35168
0.9625	9.56726
0.963	15.60974
0.9635	15.81116
0.964	12.99133
0.9645	13.49487
0.965	14.70337
0.9655	6.84814
0.966	6.44531
0.9665	4.53186
0.967	12.48779
0.9675	10.37292
0.968	4.93469
0.9685	2.61841
0.969	1.91345
0.9695	4.02832
0.97	-0.20142
0.9705	-1.51062
0.971	-4.93469
0.9715	-3.32336
0.972	-5.63965
0.9725	-4.33044
0.973	-4.22974
0.9735	-5.43823
0.974	-3.12195
0.9745	-6.44531
0.975	-10.0708
0.9755	-4.43115
0.976	-8.56018
0.9765	-1.00708
0.977	-0.30212
0.9775	-4.63257
0.978	-3.7262
0.9785	-5.84106
0.979	-0.50354
0.9795	1.10779
0.98	-1.91345
0.9805	3.32336
0.981	2.11487
0.9815	-1.81274
0.982	1.91345
0.9825	-2.81982
0.983	-1.10779
0.9835	4.12903
0.984	2.41699
0.9845	5.43823
0.985	8.66089
0.9855	3.02124
0.986	10.27222
0.9865	7.25098
0.987	4.43115
0.9875	6.84814
0.988	10.57434
0.9885	5.63965
0.989	11.58142
0.9895	3.52478
0.99	5.63965
0.9905	7.25098
0.991	8.8623
0.9915	7.5531
0.992	6.74744
0.9925	2.81982
0.993	6.74744
0.9935	9.36584
0.994	8.8623
0.9945	4.43115
0.995	3.62549
0.9955	10.37292
0.996	3.22266
0.9965	1.40991
0.997	6.04248
0.9975	2.11487
0.998	-1.10779
0.9985	-0.80566
0.999	-0.20142
0.9995	1.51062
1	0.40283
1.0005	9.86938
1.001	20.34302
1.0015	20.04089
1.002	14.70337
1.0025	10.47363
1.003	7.95593
1.0035	0.10071
1.004	-1.51062
1.0045	-8.05664
1.005	-15.40833
1.0055	-11.88354
1.006	-20.84656
1.0065	-27.29187
1.007	-21.85364
1.0075	-24.27063
1.008	-19.83948
1.0085	-5.43823
1.009	-8.35876
1.0095	-2.41699
1.01	2.81982
1.0105	0.20142
1.011	0.50354
1.0115	0.80566
1.012	2.31628
1.0125	6.04248
1.013	3.02124
1.0135	5.63965
1.014	12.78992
1.0145	11.48071
1.015	14.09912
1.0155	19.63806
1.016	31.21948
1.0165	38.47046
1.017	34.34143
1.0175	30.91736
1.018	25.07629
1.0185	23.8678
1.019	18.63098
1.0195	17.52319
1.02	23.06213
1.0205	20.1416
1.021	18.63098
1.0215	18.32886
1.022	14.80408
1.0225	16.51611
1.023	16.51611
1.0235	18.42957
1.024	18.93311
1.0245	17.22107
1.025	18.12744
1.0255	13.69629
1.026	19.33594
1.0265	15.40833
1.027	17.42249
1.0275	6.44531
1.028	10.37292
1.0285	7.65381
1.029	9.46655
1.0295	7.5531
1.03	11.78284
1.0305	10.27222
1.031	7.5531
1.0315	9.16443
1.032	4.63257
1.0325	2.31628
1.033	2.5177
1.0335	7.35168
1.034	2.41699
1.0345	3.32336
1.035	4.53186
1.0355	1.00708
1.036	3.62549
1.0365	-2.71912
1.037	-2.81982
1.0375	-3.32336
1.038	-2.92053
1.0385	0.10071
1.039	0.30212
1.0395	-8.05664
1.04	-3.02124
1.0405	-7.25098
1.041	-3.62549
1.0415	-5.84106
1.042	-7.95593
1.0425	-6.54602
1.043	-3.8269
1.0435	0.60425
1.044	-8.8623
1.0445	-9.66797
1.045	-9.86938
1.0455	-9.06372
1.046	-5.13611
1.0465	-8.66089
1.047	-15.81116
1.0475	-10.87646
1.048	-6.2439
1.0485	-11.88354
1.049	-8.25806
1.0495	-7.04956
1.05	-9.66797
1.0505	-10.77576
1.051	-7.75452
1.0515	-11.58142
1.052	-7.04956
1.0525	-3.02124
1.053	-3.8269
1.0535	-6.94885
1.054	-3.92761
1.0545	-7.45239
1.055	-0.50354
1.0555	1.61133
1.056	-0.50354
1.0565	-2.21558
1.057	-4.02832
1.0575	-1.10779
1.058	-3.12195
1.0585	-3.52478
1.059	4.33044
1.0595	-1.3092
1.06	4.63257
1.0605	2.71912
1.061	2.61841
1.0615	4.43115
1.062	2.11487
1.0625	3.32336
1.063	-0.10071
1.0635	0.90637
1.064	2.01416
1.0645	-1.51062
1.065	0.90637
1.0655	5.84106
1.066	1.3092
1.0665	-0.90637
1.067	-3.62549
1.0675	-7.25098
1.068	-5.13611
1.0685	-5.63965
1.069	-8.05664
1.0695	-10.47363
1.07	-3.8269
1.0705	-6.84814
1.071	-4.83398
1.0715	-9.56726
1.072	-7.5531
1.0725	-5.63965
1.073	-4.33044
1.0735	-5.63965
1.074	-5.53894
1.0745	-10.17151
1.075	-7.25098
1.0755	-12.28638
1.076	-11.58142
1.0765	-11.78284
1.077	-5.94177
1.0775	-11.38
1.078	-3.7262
1.0785	-8.15735
1.079	-4.63257
1.0795	-4.93469
1.08	-8.05664
1.0805	-5.63965
1.081	-6.44531
1.0815	-8.96301
1.082	-8.56018
1.0825	-3.12195
1.083	-1.51062
1.0835	-6.44531
1.084	-6.04248
1.0845	-8.45947
1.085	-3.12195
1.0855	0.80566
1.086	-0.70496
1.0865	0.20142
1.087	8.35876
1.0875	3.62549
1.088	2.5177
1.0885	2.21558
1.089	-0.30212
1.0895	-2.5177
1.09	1.00708
1.0905	-4.83398
1.091	-3.22266
1.0915	-1.2085
1.092	-7.85522
1.0925	-7.5531
1.093	-6.14319
1.0935	-7.04956
1.094	-4.12903
1.0945	-3.92761
1.095	-6.14319
1.0955	-1.3092
1.096	-2.21558
1.0965	-5.94177
1.097	-3.62549
1.0975	-5.84106
1.098	-9.26514
1.0985	-2.41699
1.099	-7.85522
1.0995	-8.45947
1.1	-10.27222
1.1005	-9.56726
1.101	-9.36584
1.1015	-8.8623
1.102	-5.84106
1.1025	-7.85522
1.103	-8.15735
1.1035	-9.06372
1.104	-9.76868
1.1045	-10.57434
1.105	-10.47363
1.1055	-3.92761
1.106	-7.45239
1.1065	-4.33044
1.107	-7.85522
1.1075	-10.77576
1.108	-10.97717
1.1085	-11.07788
1.109	-6.94885
1.1095	-10.0708
1.11	-9.26514
1.1105	-9.26514
1.111	-2.81982
1.1115	-2.41699
1.112	3.12195
1.1125	-3.8269
1.113	-4.12903
1.1135	3.02124
1.114	-0.70496
1.1145	0.20142
1.115	0.30212
1.1155	-4.02832
1.116	-3.7262
1.1165	1.51062
1.117	3.32336
1.1175	-3.02124
1.118	-2.21558
1.1185	-0.30212
1.119	-2.21558
1.1195	-5.84106
1.12	-2.01416
1.1205	-2.21558
1.121	2.71912
1.1215	-2.11487
1.122	-2.11487
1.1225	-5.0354
1.123	-12.48779
1.1235	-9.06372
1.124	-1.91345
1.1245	-1.51062
1.125	1.2085
1.1255	-0.80566
1.126	-2.71912
1.1265	1.3092
1.127	4.33044
1.1275	3.62549
1.128	-0.10071
1.1285	-0.20142
1.129	0.50354
1.1295	1.91345
1.13	4.22974
1.1305	5.84106
1.131	3.32336
1.1315	4.63257
1.132	2.81982
1.1325	1.2085
1.133	8.35876
1.1335	10.0708
1.134	8.7616
1.1345	5.94177
1.135	8.66089
1.1355	12.89062
1.136	6.84814
1.1365	10.97717
1.137	14.40125
1.1375	11.68213
1.138	13.29346
1.1385	7.5531
1.139	0.60425
1.1395	2.31628
1.14	-0.30212
1.1405	-2.31628
1.141	0.20142
1.1415	-0.90637
1.142	-0.70496
1.1425	1.40991
1.143	-1.00708
1.1435	-2.11487
1.144	0.40283
1.1445	-4.83398
1.145	-1.2085
1.1455	-4.53186
1.146	-1.61133
1.1465	-1.2085
1.147	-0.70496
1.1475	-7.35168
1.148	-1.71204
1.1485	-4.43115
1.149	1.40991
1.1495	-3.42407
1.15	-3.42407
1.1505	-6.04248
1.151	-2.92053
1.1515	-0.10071
1.152	-1.51062
1.1525	-5.53894
1.153	-4.83398
1.1535	-4.53186
1.154	-4.12903
1.1545	-5.94177
1.155	-6.44531
1.1555	-5.53894
1.156	-7.75452
1.1565	-3.7262
1.157	-2.71912
1.1575	-5.84106
1.158	-5.53894
1.1585	-1.81274
1.159	-3.32336
1.1595	-2.11487
1.16	-5.33752
1.1605	-4.73328
1.161	-4.02832
1.1615	-3.02124
1.162	-7.5531
1.1625	-12.38708
1.163	-4.22974
1.1635	-8.7616
1.164	-5.84106
1.1645	-9.46655
1.165	-6.74744
1.1655	-10.57434
1.166	-11.17859
1.1665	-7.75452
1.167	-9.56726
1.1675	-10.27222
1.168	-10.57434
1.1685	-13.49487
1.169	-15.71045
1.1695	-17.01965
1.17	-15.30762
1.1705	-16.51611
1.171	-12.28638
1.1715	-15.91187
1.172	-11.58142
1.1725	-20.54443
1.173	-15.81116
1.1735	-18.42957
1.174	-14.40125
1.1745	-12.68921
1.175	-8.66089
1.1755	-5.74036
1.176	-12.38708
1.1765	-16.81824
1.177	-10.67505
1.1775	-17.72461
1.178	-20.44373
1.1785	-18.63098
1.179	-19.94019
1.1795	-17.22107
1.18	-17.52319
1.1805	-18.42957
1.181	-19.33594
1.1815	-19.23523
1.182	-20.84656
1.1825	-16.51611
1.183	-16.01257
1.1835	-15.40833
1.184	-19.53735
1.1845	-16.81824
1.185	-13.29346
1.1855	-16.21399
1.186	-10.27222
1.1865	-14.09912
1.187	-13.49487
1.1875	-12.78992
1.188	-11.68213
1.1885	-15.1062
1.189	-13.69629
1.1895	-12.99133
1.19	-7.15027
1.1905	-5.53894
1.191	-6.2439
1.1915	-9.36584
1.192	-7.35168
1.1925	-8.7616
1.193	-5.43823
1.1935	-1.91345
1.194	-6.3446
1.1945	-7.35168
1.195	-8.25806
1.1955	-9.36584
1.196	-14.80408
1.1965	-12.18567
1.197	-11.38
1.1975	-14.40125
1.198	-9.97009
1.1985	-10.47363
1.199	-15.50903
1.1995	-11.17859
1.2	-11.48071
1.2005	-9.56726
1.201	-7.5531
1.2015	-12.38708
1.202	-14.80408
1.2025	-16.41541
1.203	-13.19275
1.2035	-16.91895
1.204	-15.60974
1.2045	-17.01965
1.205	-8.45947
1.2055	-9.46655
1.206	-12.99133
1.2065	-17.01965
1.207	-17.32178
1.2075	-15.91187
1.208	-13.39417
1.2085	-9.76868
1.209	-11.48071
1.2095	-12.68921
1.21	-6.84814
1.2105	-15.91187
1.211	-14.90479
1.2115	-11.68213
1.212	-8.8623
1.2125	-9.66797
1.213	-6.14319
1.2135	-7.25098
1.214	-7.25098
1.2145	-0.40283
1.215	-11.38
1.2155	-9.66797
1.216	-11.38
1.2165	-9.36584
1.217	-8.05664
1.2175	-5.23682
1.218	-8.05664
1.2185	-11.07788
1.219	-9.06372
1.2195	-13.19275
1.22	-15.50903
1.2205	-13.797
1.221	-13.09204
1.2215	-17.92603
1.222	-17.12036
1.2225	-22.55859
1.223	-20.04089
1.2235	-18.73169
1.224	-19.53735
1.2245	-25.37842
1.225	-19.33594
1.2255	-26.08337
1.226	-23.66638
1.2265	-20.74585
1.227	-23.76709
1.2275	-24.67346
1.228	-20.74585
1.2285	-21.65222
1.229	-22.15576
1.2295	-25.98267
1.23	-27.49329
1.2305	-22.25647
1.231	-32.22656
1.2315	-26.88904
1.232	-25.57983
1.2325	-22.45789
1.233	-23.76709
1.2335	-34.03931
1.234	-26.18408
1.2345	-22.25647
1.235	-20.34302
1.2355	-16.41541
1.236	-17.22107
1.2365	-12.48779
1.237	-15.40833
1.2375	-16.81824
1.238	-5.63965
1.2385	-11.2793
1.239	-9.16443
1.2395	-5.94177
1.24	-5.23682
1.2405	-1.71204
1.241	0
1.2415	-1.91345
1.242	2.5177
1.2425	1.91345
1.243	-0.30212
1.2435	9.97009
1.244	2.81982
1.2445	3.12195
1.245	12.78992
1.2455	6.3446
1.246	5.43823
1.2465	8.96301
1.247	12.38708
1.2475	1.91345
1.248	7.95593
1.2485	11.78284
1.249	14.90479
1.2495	9.26514
1.25	5.13611
1.2505	9.66797
1.251	6.14319
1.2515	4.12903
1.252	12.5885
1.2525	5.53894
1.253	8.05664
1.2535	7.65381
1.254	11.78284
1.2545	14.70337
1.255	15.30762
1.2555	16.3147
1.256	12.89062
1.2565	11.88354
1.257	13.09204
1.2575	19.73877
1.258	13.09204
1.2585	16.11328
1.259	15.60974
1.2595	10.97717
1.26	18.8324
1.2605	11.07788
1.261	13.29346
1.2615	11.68213
1.262	14.19983
1.2625	8.66089
1.263	16.01257
1.2635	13.49487
1.264	14.50195
1.2645	12.5885
1.265	15.91187
1.2655	15.50903
1.266	12.5885
1.2665	10.47363
1.267	12.38708
1.2675	12.5885
1.268	16.81824
1.2685	16.3147
1.269	19.73877
1.2695	14.19983
1.27	13.797
1.2705	18.32886
1.271	18.53027
1.2715	14.40125
1.272	16.71753
1.2725	15.91187
1.273	13.69629
1.2735	16.01257
1.274	18.93311
1.2745	24.06921
1.275	24.27063
1.2755	22.05505
1.276	20.34302
1.2765	22.35718
1.277	21.95435
1.2775	16.21399
1.278	21.24939
1.2785	23.16284
1.279	22.96143
1.2795	19.33594
1.28	16.81824
1.2805	19.43665
1.281	17.01965
1.2815	21.14868
1.282	21.04797
1.2825	16.61682
1.283	23.46497
1.2835	16.51611
1.284	14.09912
1.2845	16.21399
1.285	18.93311
1.2855	15.71045
1.286	17.52319
1.2865	20.24231
1.287	19.13452
1.2875	14.80408
1.288	22.6593
1.2885	16.71753
1.289	14.90479
1.2895	19.73877
1.29	18.02673
1.2905	13.19275
1.291	20.44373
1.2915	18.02673
1.292	18.93311
1.2925	14.90479
1.293	19.33594
1.2935	18.12744
1.294	19.13452
1.2945	17.22107
1.295	16.81824
1.2955	16.21399
1.296	20.1416
1.2965	20.44373
1.297	25.57983
1.2975	22.76001
1.298	19.94019
1.2985	14.60266
1.299	19.03381
1.2995	17.01965
1.3	18.93311
1.3005	21.04797
1.301	17.72461
1.3015	16.51611
1.302	13.99841
1.3025	13.797
1.303	13.19275
1.3035	10.0708
1.304	15.50903
1.3045	14.30054
1.305	13.09204
1.3055	12.68921
1.306	11.98425
1.3065	11.98425
1.307	19.03381
1.3075	15.81116
1.308	16.21399
1.3085	13.797
1.309	15.60974
1.3095	10.57434
1.31	18.93311
1.3105	15.50903
1.311	15.91187
1.3115	11.98425
1.312	14.40125
1.3125	9.46655
1.313	12.5885
1.3135	9.06372
1.314	13.69629
1.3145	10.57434
1.315	7.25098
1.3155	11.78284
1.316	13.89771
1.3165	11.2793
1.317	11.98425
1.3175	6.64673
1.318	4.53186
1.3185	6.14319
1.319	6.2439
1.3195	8.05664
1.32	7.45239
1.3205	0.50354
1.321	5.33752
1.3215	3.92761
1.322	8.66089
1.3225	9.97009
1.323	3.22266
1.3235	1.61133
1.324	2.01416
1.3245	7.04956
1.325	1.2085
1.3255	-0.60425
1.326	1.61133
1.3265	-1.40991
1.327	1.61133
1.3275	2.71912
1.328	-0.70496
1.3285	-1.61133
1.329	4.33044
1.3295	4.53186
1.33	3.02124
1.3305	1.2085
1.331	0.40283
1.3315	1.61133
1.332	-2.11487
1.3325	-0.90637
1.333	3.02124
1.3335	1.40991
1.334	-0.20142
1.3345	-6.44531
1.335	-6.54602
1.3355	-3.32336
1.336	0.10071
1.3365	-4.93469
1.337	-7.04956
1.3375	-6.84814
1.338	-6.3446
1.3385	-5.23682
1.339	-6.64673
1.3395	-5.13611
1.34	-5.23682
1.3405	0.40283
1.341	1.71204
1.3415	-2.92053
1.342	-0.40283
1.3425	-3.62549
1.343	2.41699
1.3435	-1.2085
1.344	-0.80566
1.3445	-1.3092
1.345	2.31628
1.3455	11.2793
1.346	6.94885
1.3465	4.63257
1.347	2.92053
1.3475	9.97009
1.348	7.15027
1.3485	11.78284
1.349	6.44531
1.3495	12.28638
1.35	14.09912
1.3505	15.30762
1.351	9.26514
1.3515	5.33752
1.352	10.87646
1.3525	13.49487
1.353	10.17151
1.3535	8.8623
1.354	10.17151
1.3545	7.75452
1.355	10.17151
1.3555	12.38708
1.356	9.66797
1.3565	9.86938
1.357	11.38
1.3575	9.16443
1.358	7.75452
1.3585	8.25806
1.359	9.86938
1.3595	6.14319
1.36	3.52478
1.3605	1.51062
1.361	-3.7262
1.3615	-2.01416
1.362	-1.10779
1.3625	0.90637
1.363	-2.01416
1.3635	0
1.364	-2.81982
1.3645	-5.53894
1.365	-6.84814
1.3655	-5.33752
1.366	-6.04248
1.3665	-1.2085
1.367	-6.54602
1.3675	-8.15735
1.368	-10.57434
1.3685	-11.98425
1.369	-8.8623
1.3695	-6.84814
1.37	-10.17151
1.3705	-5.0354
1.371	-11.17859
1.3715	-11.2793
1.372	-12.78992
1.3725	-10.47363
1.373	-8.56018
1.3735	-16.81824
1.374	-19.03381
1.3745	-14.90479
1.375	-16.71753
1.3755	-12.68921
1.376	-6.84814
1.3765	-6.54602
1.377	-12.99133
1.3775	-12.5885
1.378	-2.71912
1.3785	-9.76868
1.379	-12.68921
1.3795	-6.2439
1.38	-11.88354
1.3805	-7.45239
1.381	-6.14319
1.3815	-5.74036
1.382	-11.17859
1.3825	-6.74744
1.383	-3.22266
1.3835	-5.63965
1.384	-6.54602
1.3845	-5.74036
1.385	-5.84106
1.3855	-2.01416
1.386	-2.31628
1.3865	-1.71204
1.387	-2.61841
1.3875	-1.3092
1.388	-9.97009
1.3885	-6.04248
1.389	-7.15027
1.3895	-5.63965
1.39	-2.11487
1.3905	-5.43823
1.391	-4.73328
1.3915	-5.13611
1.392	-12.68921
1.3925	-11.07788
1.393	-12.48779
1.3935	-13.49487
1.394	-12.78992
1.3945	-15.60974
1.395	-14.50195
1.3955	-17.22107
1.396	-20.84656
1.3965	-13.59558
1.397	-16.11328
1.3975	-13.99841
1.398	-19.13452
1.3985	-19.13452
1.399	-13.89771
1.3995	-12.68921
1.4	-13.09204
1.4005	-14.60266
1.401	-14.80408
1.4015	-16.11328
1.402	-13.29346
1.4025	-15.40833
1.403	-20.44373
1.4035	-14.80408
1.404	-14.09912
1.4045	-17.42249
1.405	-13.19275
1.4055	-12.38708
1.406	-16.01257
1.4065	-13.19275
1.407	-14.60266
1.4075	-15.1062
1.408	-12.78992
1.4085	-13.99841
1.409	-11.58142
1.4095	-7.35168
1.41	-13.09204
1.4105	-11.48071
1.411	-8.25806
1.4115	-5.63965
1.412	-8.25806
1.4125	-2.01416
1.413	-7.04956
1.4135	-6.2439
1.414	1.00708
1.4145	0.60425
1.415	-4.22974
1.4155	-8.05664
1.416	-4.53186
1.4165	-3.22266
1.417	-4.02832
1.4175	-4.12903
1.418	-2.21558
1.4185	2.5177
1.419	3.42407
1.4195	0.50354
1.42	-0.90637
1.4205	-6.84814
1.421	-2.41699
1.4215	1.3092
1.422	-3.22266
1.4225	-3.22266
1.423	-1.2085
1.4235	-4.93469
1.424	-4.33044
1.4245	0.20142
1.425	-4.93469
1.4255	4.53186
1.426	5.63965
1.4265	7.95593
1.427	7.35168
1.4275	6.84814
1.428	4.83398
1.4285	2.31628
1.429	5.53894
1.4295	5.33752
1.43	-0.60425
1.4305	2.5177
1.431	8.66089
1.4315	6.14319
1.432	1.81274
1.4325	7.15027
1.433	1.91345
1.4335	5.13611
1.434	6.3446
1.4345	4.22974
1.435	10.0708
1.4355	6.84814
1.436	12.38708
1.4365	14.60266
1.437	14.09912
1.4375	11.98425
1.438	11.88354
1.4385	8.8623
1.439	10.57434
1.4395	7.15027
1.44	9.76868
1.4405	5.0354
1.441	4.73328
1.4415	8.8623
1.442	3.62549
1.4425	5.13611
1.443	1.71204
1.4435	1.91345
1.444	3.8269
1.4445	0.80566
1.445	0.60425
1.4455	6.3446
1.446	6.64673
1.4465	5.23682
1.447	4.33044
1.4475	2.41699
1.448	5.13611
1.4485	3.32336
1.449	6.54602
1.4495	1.61133
1.45	5.13611
1.4505	1.40991
1.451	2.61841
1.4515	3.22266
1.452	3.42407
1.4525	5.13611
1.453	4.12903
1.4535	5.0354
1.454	3.7262
1.4545	3.32336
1.455	2.21558
1.4555	-0.40283
1.456	2.81982
1.4565	-0.30212
1.457	-0.10071
1.4575	-4.53186
1.458	4.12903
1.4585	3.12195
1.459	2.92053
1.4595	4.73328
1.46	9.06372
1.4605	7.45239
1.461	3.32336
1.4615	3.42407
1.462	4.93469
1.4625	0.50354
1.463	1.00708
1.4635	2.31628
1.464	2.11487
1.4645	5.43823
1.465	0.20142
1.4655	7.65381
1.466	3.02124
1.4665	4.12903
1.467	3.8269
1.4675	4.43115
1.468	5.63965
1.4685	5.84106
1.469	4.12903
1.4695	4.43115
1.47	4.33044
1.4705	7.04956
1.471	5.43823
1.4715	5.74036
1.472	10.97717
1.4725	9.86938
1.473	4.53186
1.4735	3.32336
1.474	5.74036
1.4745	6.2439
1.475	3.22266
1.4755	2.61841
1.476	0
1.4765	0.80566
1.477	2.41699
1.4775	1.61133
1.478	-1.00708
1.4785	0.50354
1.479	2.92053
1.4795	-2.81982
1.48	-1.61133
1.4805	0.40283
1.481	-1.61133
1.4815	1.61133
1.482	2.5177
1.4825	4.53186
1.483	6.64673
1.4835	2.11487
1.484	0.90637
1.4845	5.43823
1.485	3.8269
1.4855	0.40283
1.486	-0.80566
1.4865	5.0354
1.487	3.92761
1.4875	3.22266
1.488	1.61133
1.4885	1.51062
1.489	0.90637
1.4895	6.84814
1.49	2.92053
1.4905	-0.60425
1.491	1.3092
1.4915	7.75452
1.492	5.43823
1.4925	-0.50354
1.493	-0.20142
1.4935	3.7262
1.494	3.92761
1.4945	3.12195
1.495	0.30212
1.4955	4.63257
1.496	3.62549
1.4965	1.10779
1.497	1.00708
1.4975	1.00708
1.498	4.53186
1.4985	5.13611
1.499	9.26514
1.4995	6.64673
1.5	5.33752
1.5005	5.63965
1.501	6.84814
1.5015	2.5177
1.502	2.21558
1.5025	0.50354
1.503	3.7262
1.5035	2.5177
1.504	-0.60425
1.5045	3.62549
1.505	4.73328
1.5055	7.04956
1.506	3.62549
1.5065	4.83398
1.507	1.3092
1.5075	-0.20142
1.508	1.10779
1.5085	2.21558
1.509	-0.30212
1.5095	0.80566
1.51	3.02124
1.5105	1.10779
1.511	-3.8269
1.5115	-4.12903
1.512	-0.60425
1.5125	1.00708
1.513	-0.50354
1.5135	0.20142
1.514	3.8269
1.5145	-1.91345
1.515	-1.40991
1.5155	2.81982
1.516	0.70496
1.5165	-1.00708
1.517	1.91345
1.5175	4.43115
1.518	2.21558
1.5185	3.7262
1.519	-1.3092
1.5195	-1.3092
1.52	1.2085
1.5205	0.80566
1.521	-4.22974
1.5215	8.05664
1.522	5.63965
1.5225	7.15027
1.523	7.25098
1.5235	7.15027
1.524	6.54602
1.5245	3.32336
1.525	3.12195
1.5255	4.33044
1.526	6.2439
1.5265	1.91345
1.527	1.2085
1.5275	4.63257
1.528	3.42407
1.5285	3.32336
1.529	0.10071
1.5295	-0.60425
1.53	-6.2439
1.5305	-1.3092
1.531	-0.60425
1.5315	0.10071
1.532	-1.10779
1.5325	1.91345
1.533	4.83398
1.5335	1.71204
1.534	5.23682
1.5345	4.02832
1.535	2.21558
1.5355	5.0354
1.536	0.50354
1.5365	2.41699
1.537	13.29346
1.5375	2.71912
1.538	3.42407
1.5385	-2.5177
1.539	0.60425
1.5395	2.41699
1.54	1.3092
1.5405	1.71204
1.541	1.2085
1.5415	3.8269
1.542	1.00708
1.5425	4.12903
1.543	-0.80566
1.5435	0.80566
1.544	-1.2085
1.5445	-2.81982
1.545	2.5177
1.5455	2.11487
1.546	5.84106
1.5465	4.93469
1.547	8.56018
1.5475	7.5531
1.548	5.74036
1.5485	3.7262
1.549	7.35168
1.5495	3.12195
1.55	6.74744
1.5505	2.61841
1.551	7.15027
1.5515	5.63965
1.552	-0.60425
1.5525	4.22974
1.553	0.20142
1.5535	4.22974
1.554	0.70496
1.5545	0.90637
1.555	5.13611
1.5555	5.84106
1.556	4.02832
1.5565	-0.70496
1.557	-2.01416
1.5575	1.91345
1.558	0.20142
1.5585	5.84106
1.559	0.20142
1.5595	3.32336
1.56	0.60425
1.5605	-2.21558
1.561	-6.04248
1.5615	-6.44531
1.562	-6.74744
1.5625	-7.04956
1.563	-7.75452
1.5635	-5.84106
1.564	-1.2085
1.5645	-4.43115
1.565	3.22266
1.5655	3.12195
1.566	0.80566
1.5665	7.25098
1.567	4.53186
1.5675	5.33752
1.568	6.94885
1.5685	4.73328
1.569	3.22266
1.5695	2.81982
1.57	1.2085
1.5705	3.32336
1.571	0.70496
1.5715	2.21558
1.572	3.8269
1.5725	4.53186
1.573	2.5177
1.5735	3.8269
1.574	2.71912
1.5745	0.80566
1.575	1.81274
1.5755	10.97717
1.576	4.02832
1.5765	-0.80566
1.577	0.80566
1.5775	0.30212
1.578	2.01416
1.5785	-1.2085
1.579	-2.31628
1.5795	-3.02124
1.58	-1.10779
1.5805	-4.63257
1.581	-2.31628
1.5815	-6.14319
1.582	-5.23682
1.5825	-1.40991
1.583	0.40283
1.5835	-8.45947
1.584	-2.11487
1.5845	6.44531
1.585	7.5531
1.5855	1.00708
1.586	4.83398
1.5865	-0.30212
1.587	1.3092
1.5875	3.32336
1.588	5.74036
1.5885	-2.01416
1.589	1.61133
1.5895	-1.00708
1.59	7.5531
1.5905	7.95593
1.591	1.91345
1.5915	6.64673
1.592	6.3446
1.5925	4.22974
1.593	2.11487
1.5935	-2.11487
1.594	2.11487
1.5945	2.21558
1.595	-0.60425
1.5955	2.11487
1.596	0.10071
1.5965	2.71912
1.597	-4.93469
1.5975	-1.3092
1.598	-7.35168
1.5985	-7.5531
1.599	-2.21558
1.5995	0.30212
1.6	-1.10779
1.6005	-3.12195
1.601	1.2085
1.6015	0.50354
1.602	0.40283
1.6025	-0.50354
1.603	-1.10779
1.6035	6.84814
1.604	7.25098
1.6045	8.15735
1.605	2.01416
1.6055	5.33752
1.606	4.73328
1.6065	6.14319
1.607	4.73328
1.6075	2.01416
1.608	9.46655
1.6085	2.5177
1.609	4.53186
1.6095	4.63257
1.61	9.26514
1.6105	9.56726
1.611	4.63257
1.6115	2.81982
1.612	1.00708
1.6125	-1.61133
1.613	-2.41699
1.6135	-2.71912
1.614	-4.83398
1.6145	1.91345
1.615	-1.91345
1.6155	3.22266
1.616	1.40991
1.6165	-4.22974
1.617	-4.02832
1.6175	-4.22974
1.618	1.10779
1.6185	-1.40991
1.619	-2.5177
1.6195	-4.53186
1.62	-12.68921
1.6205	-9.46655
1.621	-9.86938
1.6215	-1.10779
1.622	-8.15735
1.6225	-10.0708
1.623	-12.18567
1.6235	-17.12036
1.624	-12.18567
1.6245	-11.38
1.625	-7.45239
1.6255	-11.78284
1.626	-9.76868
1.6265	-12.38708
1.627	-8.96301
1.6275	-13.49487
1.628	-14.30054
1.6285	-6.74744
1.629	-12.89062
1.6295	-8.8623
1.63	-8.45947
1.6305	-10.47363
1.631	-8.66089
1.6315	-11.07788
1.632	-7.04956
1.6325	-7.65381
1.633	-3.42407
1.6335	-6.2439
1.634	-5.23682
1.6345	-8.96301
1.635	-9.26514
1.6355	-9.76868
1.636	-10.87646
1.6365	-13.19275
1.637	-10.17151
1.6375	-7.75452
1.638	-8.8623
1.6385	-9.66797
1.639	-9.06372
1.6395	-17.72461
1.64	-9.16443
1.6405	-12.5885
1.641	-5.63965
1.6415	-9.97009
1.642	-7.75452
1.6425	-9.97009
1.643	-6.94885
1.6435	-5.13611
1.644	-10.0708
1.6445	-5.43823
1.645	-3.32336
1.6455	-8.25806
1.646	-5.63965
1.6465	-1.51062
1.647	-7.25098
1.6475	1.40991
1.648	-0.80566
1.6485	-5.43823
1.649	-6.64673
1.6495	0.60425
1.65	1.91345
1.6505	-8.8623
1.651	-2.5177
1.6515	-3.92761
1.652	-4.22974
1.6525	-1.81274
1.653	-3.52478
1.6535	2.31628
1.654	-1.91345
1.6545	-8.66089
1.655	2.41699
1.6555	1.10779
1.656	5.94177
1.6565	-1.2085
1.657	2.01416
1.6575	-2.92053
1.658	-4.83398
1.6585	2.31628
1.659	2.92053
1.6595	4.12903
1.66	-3.92761
1.6605	-1.51062
1.661	-1.71204
1.6615	-3.22266
1.662	1.40991
1.6625	0.20142
1.663	-1.51062
1.6635	-6.04248
1.664	-6.04248
1.6645	-7.15027
1.665	-2.81982
1.6655	-2.71912
1.666	-4.63257
1.6665	0.70496
1.667	-2.21558
1.6675	-2.01416
1.668	-3.42407
1.6685	0.10071
1.669	-2.31628
1.6695	-2.11487
1.67	1.40991
1.6705	-5.0354
1.671	-0.40283
1.6715	2.21558
1.672	-0.70496
1.6725	-2.11487
1.673	-0.20142
1.6735	1.2085
1.674	3.62549
1.6745	0
1.675	5.84106
1.6755	5.53894
1.676	2.61841
1.6765	2.92053
1.677	4.43115
1.6775	-7.95593
1.678	-8.25806
1.6785	-0.40283
1.679	0.60425
1.6795	-0.90637
1.68	1.40991
1.6805	-2.61841
1.681	0.30212
1.6815	-3.22266
1.682	-2.61841
1.6825	-2.5177
1.683	-1.00708
1.6835	4.12903
1.684	4.33044
1.6845	-1.3092
1.685	3.32336
1.6855	0.30212
1.686	-1.00708
1.6865	-2.41699
1.687	1.3092
1.6875	-0.10071
1.688	-0.80566
1.6885	0.40283
1.689	1.40991
1.6895	1.10779
1.69	4.43115
1.6905	4.22974
1.691	3.02124
1.6915	-1.71204
1.692	-0.50354
1.6925	3.22266
1.693	-0.90637
1.6935	-2.21558
1.694	1.61133
1.6945	-5.53894
1.695	-1.51062
1.6955	0.30212
1.696	-2.81982
1.6965	-4.53186
1.697	-3.42407
1.6975	-2.71912
1.698	-7.04956
1.6985	-4.33044
1.699	-5.63965
1.6995	-11.07788
1.7	-9.56726
1.7005	-8.25806
1.701	-7.04956
1.7015	-0.60425
1.702	-7.5531
1.7025	-9.26514
1.703	-7.45239
1.7035	-3.42407
1.704	-5.0354
1.7045	-9.56726
1.705	-8.7616
1.7055	-4.63257
1.706	-5.94177
1.7065	-6.44531
1.707	-6.2439
1.7075	-7.45239
1.708	-6.64673
1.7085	-7.45239
1.709	-6.74744
1.7095	-2.92053
1.71	-1.91345
1.7105	-2.71912
1.711	-5.53894
1.7115	-6.14319
1.712	-3.52478
1.7125	-0.30212
1.713	0.20142
1.7135	-1.81274
1.714	-1.81274
1.7145	-1.3092
1.715	0.50354
1.7155	-2.01416
1.716	0.20142
1.7165	-1.10779
1.717	-3.32336
1.7175	-3.62549
1.718	-5.43823
1.7185	2.11487
1.719	0.60425
1.7195	-2.61841
1.72	0.10071
1.7205	-3.32336
1.721	0.50354
1.7215	-3.12195
1.722	-4.93469
1.7225	-3.32336
1.723	-2.81982
1.7235	-5.63965
1.724	-1.61133
1.7245	-4.33044
1.725	-6.84814
1.7255	-4.73328
1.726	-2.11487
1.7265	0.40283
1.727	2.41699
1.7275	0.90637
1.728	2.92053
1.7285	-1.3092
1.729	-1.51062
1.7295	-4.43115
1.73	-7.95593
1.7305	-2.01416
1.731	0.40283
1.7315	0.60425
1.732	2.41699
1.7325	-5.63965
1.733	-7.25098
1.7335	-4.12903
1.734	-3.62549
1.7345	-0.70496
1.735	-1.2085
1.7355	-4.53186
1.736	-6.74744
1.7365	-0.10071
1.737	1.81274
1.7375	-3.12195
1.738	-7.04956
1.7385	-6.74744
1.739	-0.20142
1.7395	-4.53186
1.74	-4.53186
1.7405	-2.41699
1.741	-1.3092
1.7415	-0.20142
1.742	-0.60425
1.7425	-2.61841
1.743	-1.3092
1.7435	-1.2085
1.744	1.81274
1.7445	2.41699
1.745	2.61841
1.7455	1.3092
1.746	-0.90637
1.7465	4.53186
1.747	-1.61133
1.7475	4.33044
1.748	-0.60425
1.7485	2.01416
1.749	0.10071
1.7495	4.83398
1.75	1.2085
1.7505	-0.80566
1.751	0.70496
1.7515	1.2085
1.752	-1.00708
1.7525	-1.3092
1.753	-5.53894
1.7535	-3.7262
1.754	-5.0354
1.7545	-1.91345
1.755	-3.7262
1.7555	-5.74036
1.756	-6.3446
1.7565	-5.74036
1.757	0.40283
1.7575	-1.91345
1.758	-1.00708
1.7585	0.30212
1.759	0.80566
1.7595	-1.00708
1.76	2.41699
1.7605	0.50354
1.761	1.81274
1.7615	-0.90637
1.762	-2.81982
1.7625	-5.74036
1.763	-1.51062
1.7635	-5.13611
1.764	-0.70496
1.7645	-4.43115
1.765	-4.63257
1.7655	-6.84814
1.766	-4.83398
1.7665	-3.42407
1.767	-4.83398
1.7675	-4.12903
1.768	-5.0354
1.7685	-3.7262
1.769	-5.94177
1.7695	3.42407
1.77	-3.32336
1.7705	-5.53894
1.771	-6.64673
1.7715	-4.93469
1.772	-3.8269
1.7725	-5.0354
1.773	-4.63257
1.7735	-3.42407
1.774	-3.42407
1.7745	2.21558
1.775	-3.22266
1.7755	-0.60425
1.776	-6.44531
1.7765	-7.25098
1.777	-2.71912
1.7775	-3.42407
1.778	-1.81274
1.7785	-4.73328
1.779	-6.74744
1.7795	-9.36584
1.78	-12.08496
1.7805	-9.06372
1.781	-11.58142
1.7815	-10.17151
1.782	-5.43823
1.7825	-9.66797
1.783	-10.67505
1.7835	-8.25806
1.784	-5.23682
1.7845	-5.94177
1.785	-1.61133
1.7855	-9.36584
1.786	-10.27222
1.7865	-7.45239
1.787	-4.53186
1.7875	0.30212
1.788	-6.64673
1.7885	-4.53186
1.789	-6.3446
1.7895	-2.31628
1.79	-3.12195
1.7905	-8.05664
1.791	-6.14319
1.7915	-9.06372
1.792	-6.84814
1.7925	-5.74036
1.793	-4.22974
1.7935	-6.94885
1.794	-6.2439
1.7945	-5.33752
1.795	-12.18567
1.7955	-10.0708
1.796	-10.17151
1.7965	-9.46655
1.797	-1.61133
1.7975	-6.84814
1.798	-7.65381
1.7985	-6.54602
1.799	-7.25098
1.7995	-4.43115
1.8	-6.44531
1.8005	-5.63965
1.801	-0.50354
1.8015	-5.43823
1.802	-3.22266
1.8025	-5.74036
1.803	-4.53186
1.8035	-6.74744
1.804	0.20142
1.8045	-3.02124
1.805	-0.70496
1.8055	-2.31628
1.806	2.01416
1.8065	-3.62549
1.807	-0.10071
1.8075	-2.5177
1.808	-0.10071
1.8085	0.80566
1.809	4.93469
1.8095	6.2439
1.81	6.74744
1.8105	6.3446
1.811	9.16443
1.8115	2.41699
1.812	5.53894
1.8125	9.26514
1.813	12.38708
1.8135	6.74744
1.814	9.86938
1.8145	7.85522
1.815	10.17151
1.8155	7.75452
1.816	1.40991
1.8165	9.36584
1.817	3.42407
1.8175	5.23682
1.818	8.96301
1.8185	6.14319
1.819	8.7616
1.8195	2.81982
1.82	2.81982
1.8205	3.12195
1.821	6.14319
1.8215	8.05664
1.822	7.45239
1.8225	8.66089
1.823	3.32336
1.8235	6.44531
1.824	2.21558
1.8245	6.94885
1.825	6.2439
1.8255	5.84106
1.826	7.45239
1.8265	6.14319
1.827	8.15735
1.8275	8.15735
1.828	7.35168
1.8285	4.12903
1.829	5.74036
1.8295	7.75452
1.83	4.22974
1.8305	3.52478
1.831	1.10779
1.8315	3.92761
1.832	5.84106
1.8325	6.64673
1.833	1.40991
1.8335	4.33044
1.834	6.14319
1.8345	4.33044
1.835	9.06372
1.8355	7.75452
1.836	4.83398
1.8365	2.41699
1.837	3.22266
1.8375	9.76868
1.838	10.27222
1.8385	10.87646
1.839	6.3446
1.8395	4.02832
1.84	7.45239
1.8405	6.64673
1.841	4.83398
1.8415	3.02124
1.842	3.02124
1.8425	1.10779
1.843	1.71204
1.8435	-3.12195
1.844	0.50354
1.8445	-3.02124
1.845	-2.61841
1.8455	-6.04248
1.846	-2.41699
1.8465	-3.12195
1.847	-7.85522
1.8475	-7.04956
1.848	-4.83398
1.8485	-2.71912
1.849	-5.23682
1.8495	-8.25806
1.85	-1.40991
1.8505	-3.52478
1.851	-1.71204
1.8515	-3.22266
1.852	-5.13611
1.8525	-2.11487
1.853	-3.62549
1.8535	-2.61841
1.854	-0.50354
1.8545	-2.5177
1.855	4.83398
1.8555	2.11487
1.856	-0.70496
1.8565	1.91345
1.857	3.62549
1.8575	1.81274
1.858	2.11487
1.8585	-0.30212
1.859	-1.10779
1.8595	5.0354
1.86	-0.80566
1.8605	5.43823
1.861	4.43115
1.8615	0.10071
1.862	-3.92761
1.8625	-4.33044
1.863	-0.80566
1.8635	-1.91345
1.864	-4.02832
1.8645	-3.02124
1.865	-0.90637
1.8655	-4.12903
1.866	-2.61841
1.8665	-1.91345
1.867	-5.0354
1.8675	-10.27222
1.868	-9.06372
1.8685	-4.93469
1.869	-10.57434
1.8695	-10.77576
1.87	-9.26514
1.8705	-7.04956
1.871	-6.94885
1.8715	-3.52478
1.872	-0.50354
1.8725	-9.66797
1.873	-4.93469
1.8735	-5.33752
1.874	-4.22974
1.8745	-5.0354
1.875	-4.83398
1.8755	-2.31628
1.876	-1.61133
1.8765	-2.81982
1.877	-1.10779
1.8775	-6.44531
1.878	-5.74036
1.8785	-4.83398
1.879	3.12195
1.8795	1.3092
1.88	-1.10779
1.8805	-1.61133
1.881	0.70496
1.8815	-3.22266
1.882	-1.40991
1.8825	-3.22266
1.883	-4.33044
1.8835	-4.43115
1.884	-2.92053
1.8845	-0.10071
1.885	-4.73328
1.8855	-3.7262
1.886	-0.60425
1.8865	-3.52478
1.887	-1.71204
1.8875	-2.71912
1.888	-2.81982
1.8885	-2.61841
1.889	0.10071
1.8895	-0.50354
1.89	4.22974
1.8905	-0.70496
1.891	2.11487
1.8915	2.11487
1.892	-0.20142
1.8925	1.00708
1.893	2.01416
1.8935	-8.66089
1.894	0.60425
1.8945	-3.32336
1.895	-3.92761
1.8955	-2.92053
1.896	-1.81274
1.8965	-3.62549
1.897	-3.32336
1.8975	-2.21558
1.898	-1.81274
1.8985	-4.53186
1.899	0.70496
1.8995	-1.3092
1.9	-3.62549
1.9005	-6.64673
1.901	-4.83398
1.9015	0.50354
1.902	2.31628
1.9025	-4.63257
1.903	-3.52478
1.9035	0.80566
1.904	-5.43823
1.9045	-6.3446
1.905	-4.53186
1.9055	-6.94885
1.906	-7.15027
1.9065	-12.08496
1.907	-5.84106
1.9075	-7.35168
1.908	-5.33752
1.9085	-8.66089
1.909	-9.36584
1.9095	-9.26514
1.91	-6.64673
1.9105	-3.12195
1.911	1.51062
1.9115	-3.12195
1.912	-3.52478
1.9125	-1.3092
1.913	-3.7262
1.9135	-1.51062
1.914	-3.02124
1.9145	4.02832
1.915	-3.22266
1.9155	-0.40283
1.916	1.00708
1.9165	1.2085
1.917	2.71912
1.9175	5.33752
1.918	10.0708
1.9185	2.21558
1.919	4.02832
1.9195	1.71204
1.92	-1.00708
1.9205	3.02124
1.921	1.3092
1.9215	-3.02124
1.922	-3.7262
1.9225	1.71204
1.923	1.3092
1.9235	7.65381
1.924	6.3446
1.9245	1.91345
1.925	3.42407
1.9255	1.2085
1.926	-0.60425
1.9265	-2.61841
1.927	4.02832
1.9275	-3.32336
1.928	0.70496
1.9285	-6.04248
1.929	-5.23682
1.9295	2.5177
1.93	4.83398
1.9305	-0.90637
1.931	-1.10779
1.9315	0.70496
1.932	-0.90637
1.9325	-1.91345
1.933	-2.5177
1.9335	2.21558
1.934	3.12195
1.9345	-3.12195
1.935	3.42407
1.9355	-0.70496
1.936	-3.8269
1.9365	0
1.937	1.61133
1.9375	-0.10071
1.938	-1.91345
1.9385	-6.44531
1.939	1.3092
1.9395	-0.30212
1.94	-5.0354
1.9405	0.50354
1.941	-1.10779
1.9415	1.91345
1.942	5.23682
1.9425	-1.00708
1.943	-0.50354
1.9435	5.33752
1.944	3.62549
1.9445	0.30212
1.945	4.83398
1.9455	-1.3092
1.946	3.92761
1.9465	2.41699
1.947	4.63257
1.9475	5.74036
1.948	5.0354
1.9485	2.11487
1.949	3.92761
1.9495	8.56018
1.95	4.53186
1.9505	3.92761
1.951	-4.83398
1.9515	1.2085
1.952	2.81982
1.9525	2.01416
1.953	0.40283
1.9535	0.30212
1.954	-0.30212
1.9545	3.52478
1.955	0.50354
1.9555	-1.10779
1.956	2.5177
1.9565	5.63965
1.957	5.84106
1.9575	5.13611
1.958	8.35876
1.9585	10.87646
1.959	10.0708
1.9595	7.15027
1.96	11.07788
1.9605	7.95593
1.961	0.90637
1.9615	4.43115
1.962	3.8269
1.9625	6.74744
1.963	9.76868
1.9635	7.65381
1.964	4.43115
1.9645	4.83398
1.965	4.22974
1.9655	-1.40991
1.966	3.8269
1.9665	2.71912
1.967	1.3092
1.9675	1.61133
1.968	1.2085
1.9685	-2.01416
1.969	-0.90637
1.9695	-0.10071
1.97	-2.92053
1.9705	-1.2085
1.971	-0.40283
1.9715	-2.71912
1.972	-4.53186
1.9725	-3.02124
1.973	-3.62549
1.9735	3.32336
1.974	5.0354
1.9745	-0.30212
1.975	-6.04248
1.9755	-2.01416
1.976	1.91345
1.9765	-5.43823
1.977	-5.63965
1.9775	-3.22266
1.978	-3.22266
1.9785	5.33752
1.979	-1.40991
1.9795	-6.94885
1.98	-8.15735
1.9805	-5.74036
1.981	-7.5531
1.9815	-6.94885
1.982	-6.3446
1.9825	-1.40991
1.983	-0.60425
1.9835	-5.33752
1.984	-1.91345
1.9845	-2.01416
1.985	1.10779
1.9855	5.74036
1.986	-3.52478
1.9865	-1.91345
1.987	-2.21558
1.9875	-2.21558
1.988	3.8269
1.9885	3.02124
1.989	2.11487
1.9895	4.33044
1.99	2.92053
1.9905	-1.91345
1.991	2.01416
1.9915	4.93469
1.992	2.41699
1.9925	1.10779
1.993	5.43823
1.9935	11.07788
1.994	1.91345
1.9945	4.33044
1.995	-1.71204
1.9955	1.40991
1.996	2.31628
1.9965	-1.10779
1.997	0.20142
1.9975	-2.61841
1.998	-1.51062
1.9985	1.71204
1.999	5.43823
1.9995	4.02832
2	5.23682
2.0005	3.22266
2.001	2.92053
2.0015	0.10071
2.002	2.61841
2.0025	4.43115
2.003	4.02832
2.0035	4.93469
2.004	4.53186
2.0045	6.74744
2.005	2.61841
2.0055	2.11487
2.006	1.81274
2.0065	5.94177
2.007	0.90637
2.0075	3.92761
2.008	1.2085
2.0085	-0.90637
2.009	-0.40283
2.0095	-2.61841
2.01	4.22974
2.0105	3.62549
2.011	1.3092
2.0115	4.33044
2.012	4.93469
2.0125	5.33752
2.013	6.44531
2.0135	8.8623
2.014	7.75452
2.0145	7.5531
2.015	2.31628
2.0155	8.25806
2.016	4.93469
2.0165	6.74744
2.017	2.41699
2.0175	10.0708
2.018	10.77576
2.0185	8.05664
2.019	8.56018
2.0195	8.05664
2.02	12.48779
2.0205	13.09204
2.021	8.7616
2.0215	3.52478
2.022	8.7616
2.0225	4.22974
2.023	4.73328
2.0235	-2.01416
2.024	1.10779
2.0245	3.42407
2.025	3.12195
2.0255	3.12195
2.026	-5.43823
2.0265	0.60425
2.027	0.90637
2.0275	-0.60425
2.028	-4.63257
2.0285	-1.61133
2.029	-2.21558
2.0295	-1.91345
2.03	-6.14319
2.0305	-5.0354
2.031	1.2085
2.0315	-8.8623
2.032	-5.53894
2.0325	-12.78992
2.033	-4.93469
2.0335	-1.71204
2.034	-10.17151
2.0345	-4.93469
2.035	-8.45947
2.0355	-8.35876
2.036	-6.64673
2.0365	-7.25098
2.037	-7.04956
2.0375	-14.60266
2.038	-2.81982
2.0385	-3.92761
2.039	-11.17859
2.0395	-7.04956
2.04	-8.66089
2.0405	-9.36584
2.041	-6.3446
2.0415	-6.64673
2.042	0.90637
2.0425	-7.15027
2.043	-11.38
2.0435	-9.66797
2.044	-6.2439
2.0445	-4.63257
2.045	-3.12195
2.0455	-4.43115
2.046	-3.8269
2.0465	-1.61133
2.047	-2.31628
2.0475	-2.01416
2.048	-0.60425
2.0485	0.90637
2.049	-3.32336
2.0495	-3.92761
2.05	-5.63965
2.0505	1.91345
2.051	3.92761
2.0515	-1.81274
2.052	1.2085
2.0525	1.91345
2.053	2.11487
2.0535	0.80566
2.054	3.42407
2.0545	7.45239
2.055	4.43115
2.0555	9.06372
2.056	8.96301
2.0565	11.78284
2.057	8.56018
2.0575	8.96301
2.058	4.33044
2.0585	3.92761
2.059	-0.70496
2.0595	7.65381
2.06	11.07788
2.0605	3.7262
2.061	4.83398
2.0615	6.54602
2.062	5.94177
2.0625	9.46655
2.063	12.28638
2.0635	10.67505
2.064	8.8623
2.0645	8.56018
2.065	5.33752
2.0655	2.01416
2.066	4.73328
2.0665	12.28638
2.067	6.3446
2.0675	2.31628
2.068	2.31628
2.0685	2.5177
2.069	5.0354
2.0695	3.42407
2.07	-0.30212
2.0705	-5.23682
2.071	-2.11487
2.0715	-3.7262
2.072	-2.71912
2.0725	-5.43823
2.073	-3.7262
2.0735	-1.61133
2.074	-5.23682
2.0745	-3.62549
2.075	-10.17151
2.0755	-11.38
2.076	-7.04956
2.0765	-13.59558
2.077	-8.05664
2.0775	-5.23682
2.078	-5.84106
2.0785	-5.0354
2.079	-6.54602
2.0795	-8.7616
2.08	-3.32336
2.0805	-6.14319
2.081	-7.25098
2.0815	-4.12903
2.082	1.51062
2.0825	-4.73328
2.083	-6.44531
2.0835	-8.56018
2.084	-4.83398
2.0845	-7.25098
2.085	-9.36584
2.0855	1.81274
2.086	-0.60425
2.0865	0.20142
2.087	-5.84106
2.0875	-2.5177
2.088	-6.2439
2.0885	-11.38
2.089	-5.23682
2.0895	-14.80408
2.09	-9.46655
2.0905	-6.84814
2.091	-6.74744
2.0915	-4.43115
2.092	-2.92053
2.0925	-0.50354
2.093	-1.3092
2.0935	-4.83398
2.094	-7.95593
2.0945	-5.13611
2.095	-4.12903
2.0955	-4.73328
2.096	-0.70496
2.0965	5.94177
2.097	1.3092
2.0975	-4.12903
2.098	-4.22974
2.0985	-2.92053
2.099	-1.91345
2.0995	-4.12903
2.1	-5.63965
2.1005	-8.05664
2.101	2.41699
2.1015	-7.45239
2.102	-2.41699
2.1025	-3.02124
2.103	-2.01416
2.1035	0.20142
2.104	-2.71912
2.1045	1.61133
2.105	-4.43115
2.1055	-8.05664
2.106	-6.44531
2.1065	-5.23682
2.107	-7.35168
2.1075	-6.64673
2.108	-3.92761
2.1085	-2.5177
2.109	-1.10779
2.1095	-3.7262
2.11	-3.52478
2.1105	-3.42407
2.111	-2.81982
2.1115	-0.30212
2.112	0.20142
2.1125	0.80566
2.113	-1.3092
2.1135	-0.20142
2.114	-1.71204
2.1145	-2.01416
2.115	-0.20142
2.1155	-1.10779
2.116	-3.02124
2.1165	-1.91345
2.117	0.10071
2.1175	-0.70496
2.118	-2.11487
2.1185	-1.10779
2.119	-8.66089
2.1195	-2.71912
2.12	3.52478
2.1205	-2.31628
2.121	1.10779
2.1215	3.7262
2.122	1.2085
2.1225	1.61133
2.123	0.60425
2.1235	-0.10071
2.124	1.81274
2.1245	3.8269
2.125	3.8269
2.1255	-2.41699
2.126	0.70496
2.1265	-0.90637
2.127	2.11487
2.1275	2.31628
2.128	0.30212
2.1285	7.75452
2.129	-0.70496
2.1295	0.40283
2.13	0.50354
2.1305	-2.61841
2.131	0.70496
2.1315	3.32336
2.132	1.3092
2.1325	3.7262
2.133	2.81982
2.1335	-1.61133
2.134	-0.30212
2.1345	3.02124
2.135	3.22266
2.1355	-1.3092
2.136	0.50354
2.1365	-0.20142
2.137	-1.61133
2.1375	0.90637
2.138	-1.40991
2.1385	-3.12195
2.139	-3.32336
2.1395	0.30212
2.14	4.12903
2.1405	0.60425
2.141	0.30212
2.1415	-6.04248
2.142	-4.22974
2.1425	-7.04956
2.143	-11.88354
2.1435	-10.27222
2.144	-12.08496
2.1445	-8.25806
2.145	-9.86938
2.1455	-9.86938
2.146	-2.01416
2.1465	-3.32336
2.147	-5.74036
2.1475	-4.93469
2.148	-3.32336
2.1485	-2.61841
2.149	0.50354
2.1495	-0.40283
2.15	-0.20142
2.1505	5.74036
2.151	7.75452
2.1515	4.22974
2.152	2.11487
2.1525	3.62549
2.153	7.85522
2.1535	2.31628
2.154	3.7262
2.1545	2.21558
2.155	9.16443
2.1555	7.65381
2.156	-0.30212
2.1565	2.81982
2.157	0.40283
2.1575	2.21558
2.158	4.33044
2.1585	1.3092
2.159	3.62549
2.1595	0.60425
2.16	-2.81982
2.1605	-6.04248
2.161	0.10071
2.1615	-0.60425
2.162	0.50354
2.1625	0.40283
2.163	-1.2085
2.1635	0.30212
2.164	8.15735
2.1645	-1.2085
2.165	1.00708
2.1655	1.2085
2.166	-0.30212
2.1665	2.92053
2.167	0.60425
2.1675	-0.60425
2.168	1.61133
2.1685	-1.61133
2.169	-2.01416
2.1695	-3.92761
2.17	-2.71912
2.1705	-6.74744
2.171	-6.04248
2.1715	-2.61841
2.172	0.40283
2.1725	6.54602
2.173	1.40991
2.1735	0.30212
2.174	-0.80566
2.1745	-1.81274
2.175	-3.8269
2.1755	-4.83398
2.176	-2.31628
2.1765	-4.83398
2.177	-7.35168
2.1775	-1.81274
2.178	-5.63965
2.1785	-3.92761
2.179	-3.32336
2.1795	0
2.18	-1.91345
2.1805	-5.23682
2.181	-2.41699
2.1815	-2.11487
2.182	-4.33044
2.1825	2.92053
2.183	1.3092
2.1835	1.2085
2.184	1.40991
2.1845	4.02832
2.185	4.63257
2.1855	3.8269
2.186	3.92761
2.1865	-1.91345
2.187	1.61133
2.1875	0
2.188	-0.70496
2.1885	1.61133
2.189	-2.71912
2.1895	-1.91345
2.19	-2.61841
2.1905	-1.10779
2.191	-9.46655
2.1915	-2.5177
2.192	-0.40283
2.1925	-4.02832
2.193	-3.32336
2.1935	-1.51062
2.194	-5.13611
2.1945	-4.02832
2.195	-3.62549
2.1955	-4.53186
2.196	-6.44531
2.1965	-0.30212
2.197	-4.22974
2.1975	5.13611
2.198	6.54602
2.1985	1.61133
2.199	-0.90637
2.1995	4.02832
2.2	2.11487
2.2005	3.62549
2.201	1.91345
2.2015	-4.22974
2.202	-0.20142
2.2025	0.30212
2.203	-1.10779
2.2035	2.01416
2.204	4.02832
2.2045	-3.92761
2.205	-1.2085
2.2055	-4.02832
2.206	0.90637
2.2065	-4.63257
2.207	0.40283
2.2075	-3.42407
2.208	-7.95593
2.2085	-3.92761
2.209	0.60425
2.2095	-4.02832
2.21	-2.01416
2.2105	-1.91345
2.211	-3.12195
2.2115	-2.01416
2.212	1.00708
2.2125	-0.90637
2.213	0.20142
2.2135	3.8269
2.214	-1.3092
2.2145	-3.02124
2.215	-5.84106
2.2155	-5.23682
2.216	0.50354
2.2165	-2.11487
2.217	-9.06372
2.2175	-6.2439
2.218	-4.63257
2.2185	-5.23682
2.219	-0.80566
2.2195	-4.43115
2.22	-4.12903
2.2205	-4.22974
2.221	-7.75452
2.2215	-5.94177
2.222	-2.31628
2.2225	-3.62549
2.223	4.02832
2.2235	4.73328
2.224	10.17151
2.2245	18.63098
2.225	32.93152
2.2255	38.57117
2.226	50.05188
2.2265	50.354
2.227	48.33984
2.2275	56.19507
2.228	57.50427
2.2285	62.13684
2.229	61.43188
2.2295	77.44446
2.23	82.17773
2.2305	98.49243
2.231	111.68518
2.2315	109.77173
2.232	102.21863
2.2325	89.52942
2.233	71.90552
2.2335	56.69861
2.234	34.14001
2.2345	21.24939
2.235	1.3092
2.2355	-16.3147
2.236	-36.4563
2.2365	-52.8717
2.237	-59.82056
2.2375	-76.13525
2.238	-92.44995
2.2385	-102.92358
2.239	-105.13916
2.2395	-105.34058
2.24	-104.03137
2.2405	-97.08252
2.241	-89.02588
2.2415	-86.00464
2.242	-72.30835
2.2425	-66.97083
2.243	-64.95667
2.2435	-69.99207
2.244	-68.28003
2.2445	-72.30835
2.245	-65.56091
2.2455	-53.97949
2.246	-43.80798
2.2465	-32.42798
2.247	-26.18408
2.2475	-21.95435
2.248	-20.04089
2.2485	-18.53027
2.249	-11.38
2.2495	-2.81982
2.25	-2.5177
2.2505	1.00708
2.251	14.60266
2.2515	15.91187
2.252	13.49487
2.2525	10.0708
2.253	12.38708
2.2535	13.49487
2.254	16.71753
2.2545	17.32178
2.255	9.97009
2.2555	8.56018
2.256	6.84814
2.2565	10.37292
2.257	6.04248
2.2575	11.98425
2.258	10.17151
2.2585	16.91895
2.259	31.32019
2.2595	31.11877
2.26	39.37683
2.2605	45.41931
2.261	49.24622
2.2615	55.79224
2.262	58.10852
2.2625	65.46021
2.263	78.65295
2.2635	110.27527
2.264	137.96997
2.2645	170.59937
2.265	187.01477
2.2655	178.65601
2.266	162.54272
2.2665	139.48059
2.267	114.60571
2.2675	77.44446
2.268	40.1825
2.2685	4.22974
2.269	-28.09753
2.2695	-55.99365
2.27	-81.7749
2.2705	-106.04553
2.271	-122.86377
2.2715	-130.61829
2.272	-141.49475
2.2725	-147.23511
2.273	-144.41528
2.2735	-145.52307
2.274	-141.49475
2.2745	-131.92749
2.275	-132.22961
2.2755	-123.77014
2.276	-119.74182
2.2765	-114.10217
2.277	-106.9519
2.2775	-100.20447
2.278	-98.69385
2.2785	-90.5365
2.279	-77.44446
2.2795	-73.01331
2.28	-61.23047
2.2805	-57.60498
2.281	-50.85754
2.2815	-45.52002
2.282	-36.95984
2.2825	-26.68762
2.283	-18.8324
2.2835	0.50354
2.284	8.7616
2.2845	19.53735
2.285	20.84656
2.2855	30.81665
2.286	31.01807
2.2865	27.49329
2.287	30.41382
2.2875	31.82373
2.288	27.19116
2.2885	36.35559
2.289	33.43506
2.2895	29.40674
2.29	32.32727
2.2905	29.60815
2.291	29.60815
2.2915	30.91736
2.292	30.11169
2.2925	37.16125
2.293	32.12585
2.2935	27.79541
2.294	33.23364
2.2945	28.70178
2.295	22.76001
2.2955	21.95435
2.296	14.90479
2.2965	-2.81982
2.297	-11.78284
2.2975	-10.67505
2.298	-17.92603
2.2985	-19.23523
2.299	-21.85364
2.2995	-23.56567
2.3	-27.39258
2.3005	-21.55151
2.301	-23.76709
2.3015	-31.01807
2.302	-28.70178
2.3025	-30.51453
2.303	-26.3855
2.3035	-27.99683
2.304	-31.21948
2.3045	-22.25647
2.305	-25.68054
2.3055	-24.27063
2.306	-28.19824
2.3065	-20.64514
2.307	-19.23523
2.3075	-8.7616
2.308	-12.38708
2.3085	-9.36584
2.309	-5.53894
2.3095	-1.3092
2.31	-2.01416
2.3105	-1.51062
2.311	7.04956
2.3115	32.93152
2.312	79.66003
2.3125	130.01404
2.313	161.0321
2.3135	178.15247
2.314	187.21619
2.3145	187.01477
2.315	181.17371
2.3155	164.85901
2.316	133.23669
2.3165	114.80713
2.317	95.67261
2.3175	65.86304
2.318	45.11719
2.3185	10.27222
2.319	-12.48779
2.3195	-36.35559
2.32	-58.00781
2.3205	-75.32959
2.321	-80.96924
2.3215	-87.51526
2.322	-93.65845
2.3225	-103.32642
2.323	-100.20447
2.3235	-95.16907
2.324	-76.7395
2.3245	-67.8772
2.325	-61.12976
2.3255	-57.40356
2.326	-53.67737
2.3265	-59.01489
2.327	-62.43896
2.3275	-67.37366
2.328	-60.4248
2.3285	-45.11719
2.329	-39.67896
2.3295	-28.50037
2.33	-31.92444
2.3305	-27.49329
2.331	-34.74426
2.3315	-34.14001
2.332	-31.01807
2.3325	-25.98267
2.333	-15.60974
2.3335	-9.26514
2.334	-7.95593
2.3345	-10.67505
2.335	-11.38
2.3355	-13.49487
2.336	-21.95435
2.3365	-29.60815
2.337	-24.97559
2.3375	-18.63098
2.338	-22.35718
2.3385	-23.16284
2.339	-17.92603
2.3395	-13.89771
2.34	0.30212
2.3405	5.23682
2.341	3.12195
2.3415	0.10071
2.342	3.8269
2.3425	-0.90637
2.343	8.15735
2.3435	10.57434
2.344	10.67505
2.3445	10.97717
2.345	12.5885
2.3455	7.04956
2.346	12.28638
2.3465	11.88354
2.347	22.86072
2.3475	18.02673
2.348	29.00391
2.3485	33.83789
2.349	30.61523
2.3495	24.27063
2.35	18.53027
2.3505	15.71045
2.351	8.05664
2.3515	-5.0354
2.352	-18.63098
2.3525	-25.47913
2.353	-37.56409
2.3535	-43.20374
2.354	-46.02356
2.3545	-50.2533
2.355	-50.95825
2.3555	-50.75684
2.356	-50.95825
2.3565	-44.11011
2.357	-35.44922
2.3575	-34.14001
2.358	-22.45789
2.3585	-13.09204
2.359	-9.66797
2.3595	1.71204
2.36	6.04248
2.3605	9.26514
2.361	8.45947
2.3615	18.12744
2.362	23.66638
2.3625	23.56567
2.363	35.34851
2.3635	36.35559
2.364	41.59241
2.3645	43.30444
2.365	44.91577
2.3655	43.60657
2.366	48.64197
2.3665	55.79224
2.367	70.49561
2.3675	74.12109
2.368	77.74658
2.3685	70.09277
2.369	62.43896
2.3695	60.3241
2.37	62.33826
2.3705	59.61914
2.371	56.19507
2.3715	54.48303
2.372	44.51294
2.3725	44.41223
2.373	36.15417
2.3735	28.29895
2.374	25.88196
2.3745	16.41541
2.375	7.35168
2.3755	3.8269
2.376	5.63965
2.3765	2.92053
2.377	-4.12903
2.3775	-8.66089
2.378	-16.51611
2.3785	-23.46497
2.379	-21.45081
2.3795	-33.43506
2.38	-40.38391
2.3805	-47.03064
2.381	-49.64905
2.3815	-48.13843
2.382	-45.52002
2.3825	-44.61365
2.383	-41.79382
2.3835	-35.75134
2.384	-31.82373
2.3845	-27.49329
2.385	-15.81116
2.3855	-11.78284
2.386	-9.56726
2.3865	-2.01416
2.387	3.42407
2.3875	2.31628
2.388	5.0354
2.3885	11.98425
2.389	12.68921
2.3895	16.21399
2.39	20.54443
2.3905	23.26355
2.391	18.22815
2.3915	27.29187
2.392	32.12585
2.3925	33.43506
2.393	35.04639
2.3935	35.2478
2.394	37.36267
2.3945	42.49878
2.395	46.92993
2.3955	51.96533
2.396	56.19507
2.3965	56.79932
2.397	56.69861
2.3975	52.67029
2.398	46.82922
2.3985	48.03772
2.399	48.64197
2.3995	47.63489
2.4	43.60657
2.4005	38.06763
2.401	28.70178
2.4015	18.93311
2.402	15.00549
2.4025	12.48779
2.403	2.61841
2.4035	-5.13611
2.404	-6.54602
2.4045	-11.78284
2.405	-18.8324
2.4055	-26.58691
2.406	-31.92444
2.4065	-43.20374
2.407	-51.66321
2.4075	-48.64197
2.408	-48.94409
2.4085	-47.53418
2.409	-41.69312
2.4095	-46.12427
2.41	-46.82922
2.4105	-47.43347
2.411	-50.45471
2.4115	-43.70728
2.412	-49.74976
2.4125	-49.64905
2.413	-43.80798
2.4135	-34.74426
2.414	-21.85364
2.4145	-16.61682
2.415	-12.28638
2.4155	-3.12195
2.416	3.62549
2.4165	6.64673
2.417	9.36584
2.4175	8.15735
2.418	10.57434
2.4185	10.97717
2.419	12.28638
2.4195	10.17151
2.42	12.68921
2.4205	5.0354
2.421	4.73328
2.4215	10.27222
2.422	10.27222
2.4225	9.26514
2.423	13.39417
2.4235	15.20691
2.424	16.11328
2.4245	15.30762
2.425	10.57434
2.4255	-3.22266
2.426	-2.61841
2.4265	-1.10779
2.427	0.60425
2.4275	9.97009
2.428	7.75452
2.4285	13.49487
2.429	23.46497
2.4295	30.61523
2.43	42.7002
2.4305	48.64197
2.431	47.8363
2.4315	51.86462
2.432	56.90002
2.4325	56.39648
2.433	47.53418
2.4335	49.34692
2.434	45.2179
2.4345	44.71436
2.435	39.27612
2.4355	40.38391
2.436	30.01099
2.4365	24.37134
2.437	16.11328
2.4375	3.7262
2.438	-4.33044
2.4385	-8.15735
2.439	-13.19275
2.4395	-19.33594
2.44	-21.3501
2.4405	-26.58691
2.441	-33.43506
2.4415	-36.75842
2.442	-39.47754
2.4425	-36.15417
2.443	-34.54285
2.4435	-35.2478
2.444	-33.83789
2.4445	-32.02515
2.445	-30.81665
2.4455	-25.37842
2.446	-26.58691
2.4465	-24.87488
2.447	-14.90479
2.4475	-13.29346
2.448	-13.19275
2.4485	-19.23523
2.449	-5.43823
2.4495	6.94885
2.45	26.48621
2.4505	43.10303
2.451	58.61206
2.4515	67.17224
2.452	71.90552
2.4525	80.96924
2.453	87.61597
2.4535	99.49951
2.454	111.8866
2.4545	125.68359
2.455	135.15015
2.4555	129.81262
2.456	127.69775
2.4565	115.20996
2.457	116.72058
2.4575	107.55615
2.458	107.65686
2.4585	103.72925
2.459	94.2627
2.4595	86.10535
2.46	68.38074
2.4605	57.8064
2.461	45.41931
2.4615	26.78833
2.462	7.25098
2.4625	-15.1062
2.463	-34.03931
2.4635	-49.95117
2.464	-61.73401
2.4645	-74.62463
2.465	-82.07703
2.4655	-96.17615
2.466	-108.1604
2.4665	-114.00146
2.467	-119.74182
2.4675	-123.77014
2.468	-132.43103
2.4685	-141.89758
2.469	-146.63086
2.4695	-141.09192
2.47	-143.91174
2.4705	-134.34448
2.471	-124.77722
2.4715	-111.78589
2.472	-94.16199
2.4725	-82.9834
2.473	-75.73242
2.4735	-58.91418
2.474	-49.54834
2.4745	-39.17542
2.475	-33.63647
2.4755	-25.47913
2.476	-22.25647
2.4765	-18.73169
2.477	-16.11328
2.4775	-15.91187
2.478	-10.67505
2.4785	-14.19983
2.479	-9.76868
2.4795	-12.38708
2.48	-16.81824
2.4805	-13.29346
2.481	-4.02832
2.4815	6.74744
2.482	6.64673
2.4825	5.63965
2.483	10.17151
2.4835	9.16443
2.484	-5.43823
2.4845	-9.46655
2.485	-17.52319
2.4855	-12.18567
2.486	-5.63965
2.4865	4.33044
2.487	7.5531
2.4875	6.74744
2.488	10.97717
2.4885	14.70337
2.489	22.05505
2.4895	21.95435
2.49	18.93311
2.4905	0.40283
2.491	-13.29346
2.4915	-28.29895
2.492	-20.94727
2.4925	-21.24939
2.493	-19.43665
2.4935	-27.09045
2.494	-26.08337
2.4945	-32.52869
2.495	-35.75134
2.4955	-39.88037
2.496	-38.57117
2.4965	-39.37683
2.497	-38.67188
2.4975	-36.25488
2.498	-36.75842
2.4985	-41.39099
2.499	-38.87329
2.4995	-39.88037
2.5	-36.85913
2.5005	-36.75842
2.501	-34.74426
2.5015	-42.19666
2.502	-38.67188
2.5025	-31.32019
2.503	-29.20532
2.5035	-11.98425
2.504	-0.80566
2.5045	14.30054
2.505	22.55859
2.5055	17.82532
2.506	17.01965
2.5065	21.45081
2.507	24.87488
2.5075	36.25488
2.508	39.57825
2.5085	31.72302
2.509	32.83081
2.5095	28.9032
2.51	19.33594
2.5105	16.3147
2.511	16.3147
2.5115	9.76868
2.512	7.5531
2.5125	19.23523
2.513	46.12427
2.5135	64.35242
2.514	62.8418
2.5145	65.56091
2.515	89.42871
2.5155	95.5719
2.516	76.84021
2.5165	49.44763
2.517	67.8772
2.5175	89.22729
2.518	88.0188
2.5185	61.73401
2.519	18.8324
2.5195	-13.99841
2.52	-54.0802
2.5205	-98.79456
2.521	-150.8606
2.5215	-196.1792
2.522	-228.80859
2.5225	-244.51904
2.523	-266.47339
2.5235	-276.24207
2.524	-282.18384
2.5245	-282.28455
2.525	-285.40649
2.5255	-279.1626
2.526	-238.27515
2.5265	-157.30591
2.527	-65.25879
2.5275	43.00232
2.528	146.53015
2.5285	178.5553
2.529	174.32556
2.5295	151.46484
2.53	149.55139
2.5305	143.60962
2.531	147.73865
2.5315	136.86218
2.532	91.8457
2.5325	34.94568
2.533	-21.95435
2.5335	-51.46179
2.534	-85.80322
2.5345	-117.62695
2.535	-152.37122
2.5355	-180.77087
2.536	-189.33105
2.5365	-177.95105
2.537	-184.19495
2.5375	-206.75354
2.538	-205.34363
2.5385	-161.73706
2.539	-87.81738
2.5395	-48.33984
2.54	-7.65381
2.5405	-12.68921
2.541	-6.84814
2.5415	-5.63965
2.542	-33.73718
2.5425	-73.81897
2.543	-90.23438
2.5435	-88.92517
2.544	-29.70886
2.5445	17.12036
2.545	109.16748
2.5455	176.44043
2.546	222.26257
2.5465	199.70398
2.547	168.88733
2.5475	115.41138
2.548	59.1156
2.5485	-28.39966
2.549	-144.6167
2.5495	-191.54663
2.55	-177.74963
2.5505	-98.39172
2.551	-41.99524
2.5515	1.51062
2.552	54.18091
2.5525	18.93311
2.553	-21.04797
2.5535	-5.0354
2.554	6.3446
2.5545	-19.33594
2.555	-61.23047
2.5555	25.88196
2.556	79.2572
2.5565	51.26038
2.557	-21.85364
2.5575	-117.62695
2.558	-204.43726
2.5585	-272.61658
2.559	-307.86438
2.5595	-330.7251
2.56	-334.35059
2.5605	-323.27271
2.561	-310.07996
2.5615	-273.01941
2.562	-243.51196
2.5625	-89.83154
2.563	62.64038
2.5635	146.12732
2.564	183.89282
2.5645	194.26575
2.565	164.55688
2.5655	127.09351
2.566	78.25012
2.5665	44.61365
2.567	15.00549
2.5675	-18.8324
2.568	-48.84338
2.5685	-72.9126
2.569	-80.16357
2.5695	-14.40125
2.57	38.26904
2.5705	53.37524
2.571	40.98816
2.5715	18.8324
2.572	-4.43115
2.5725	-20.54443
2.573	-24.67346
2.5735	-33.53577
2.574	53.97949
2.5745	161.43494
2.575	285.40649
2.5755	336.36475
2.576	329.5166
2.5765	267.17834
2.577	161.53564
2.5775	57.50427
2.578	-50.45471
2.5785	-144.51599
2.579	-214.10522
2.5795	-259.82666
2.58	-197.99194
2.5805	-177.3468
2.581	-181.27441
2.5815	-187.51831
2.582	-174.32556
2.5825	-161.13281
2.583	-150.35706
2.5835	-145.12024
2.584	-146.63086
2.5845	-154.6875
2.585	-161.23352
2.5855	-153.479
2.586	-137.96997
2.5865	-140.18555
2.587	-133.84094
2.5875	-129.91333
2.588	-125.7843
2.5885	-124.17297
2.589	-102.72217
2.5895	-75.63171
2.59	-39.57825
2.5905	-24.37134
2.591	-17.52319
2.5915	-10.87646
2.592	-6.2439
2.5925	-5.63965
2.593	-15.50903
2.5935	-19.13452
2.594	-29.60815
2.5945	-32.62939
2.595	-29.30603
2.5955	-32.42798
2.596	-34.34143
2.5965	-23.46497
2.597	-18.42957
2.5975	-13.69629
2.598	-9.06372
2.5985	-6.04248
2.599	-0.70496
2.5995	1.10779
2.6	7.5531
2.6005	7.04956
2.601	7.75452
2.6015	11.48071
2.602	18.02673
2.6025	16.21399
2.603	17.6239
2.6035	12.89062
2.604	21.95435
2.6045	27.09045
2.605	22.55859
2.6055	21.75293
2.606	36.85913
2.6065	38.57117
2.607	43.20374
2.6075	42.7002
2.608	45.92285
2.6085	40.88745
2.609	39.57825
2.6095	37.36267
2.61	30.11169
2.6105	26.78833
2.611	26.68762
2.6115	19.73877
2.612	27.29187
2.6125	32.22656
2.613	42.09595
2.6135	47.7356
2.614	64.45312
2.6145	72.9126
2.615	82.9834
2.6155	93.15491
2.616	98.19031
2.6165	111.28235
2.617	117.12341
2.6175	128.60413
2.618	130.92041
2.6185	138.27209
2.619	140.28625
2.6195	138.47351
2.62	131.32324
2.6205	132.22961
2.621	133.43811
2.6215	132.12891
2.622	132.73315
2.6225	135.25085
2.623	137.56714
2.6235	136.15723
2.624	139.48059
2.6245	140.18555
2.625	138.07068
2.6255	142.50183
2.626	145.32166
2.6265	139.68201
2.627	136.66077
2.6275	123.46802
2.628	118.43262
2.6285	114.00146
2.629	111.28235
2.6295	102.82288
2.63	96.47827
2.6305	96.98181
2.631	89.63013
2.6315	86.20605
2.632	80.36499
2.6325	78.55225
2.633	75.93384
2.6335	75.32959
2.634	76.84021
2.6345	82.68127
2.635	80.56641
2.6355	80.86853
2.636	91.8457
2.6365	88.22021
2.637	83.48694
2.6375	83.38623
2.638	87.81738
2.6385	85.70251
2.639	80.66711
2.6395	75.83313
2.64	73.11401
2.6405	67.27295
2.641	61.33118
2.6415	65.25879
2.642	61.93542
2.6425	49.74976
2.643	47.03064
2.6435	49.24622
2.644	54.88586
2.6445	56.49719
2.645	54.48303
2.6455	57.10144
2.646	59.51843
2.6465	62.03613
2.647	66.16516
2.6475	75.12817
2.648	69.99207
2.6485	60.3241
2.649	61.83472
2.6495	64.65454
2.65	62.9425
2.6505	61.12976
2.651	59.61914
2.6515	53.17383
2.652	46.62781
2.6525	50.354
2.653	50.15259
2.6535	49.74976
2.654	43.10303
2.6545	43.80798
2.655	44.0094
2.6555	34.94568
2.656	32.93152
2.6565	28.09753
2.657	30.71594
2.6575	28.80249
2.658	24.37134
2.6585	22.15576
2.659	17.01965
2.6595	13.69629
2.66	11.48071
2.6605	14.30054
2.661	13.59558
2.6615	9.06372
2.662	8.66089
2.6625	13.59558
2.663	4.63257
2.6635	5.13611
2.664	-2.5177
2.6645	-0.80566
2.665	-4.93469
2.6655	-1.51062
2.666	-3.62549
2.6665	-8.15735
2.667	-7.65381
2.6675	-11.07788
2.668	-15.1062
2.6685	-15.71045
2.669	-13.49487
2.6695	-12.68921
2.67	-10.0708
2.6705	-9.06372
2.671	-10.17151
2.6715	-2.41699
2.672	-5.23682
2.6725	-7.45239
2.673	-7.95593
2.6735	-5.0354
2.674	-8.96301
2.6745	-5.23682
2.675	-9.16443
2.6755	-4.33044
2.676	-9.36584
2.6765	-13.09204
2.677	-17.82532
2.6775	-17.42249
2.678	-16.61682
2.6785	-35.34851
2.679	-89.12659
2.6795	-141.29333
2.68	-180.26733
2.6805	-202.5238
2.681	-198.99902
2.6815	-178.65601
2.682	-159.32007
2.6825	-133.53882
2.683	-112.08801
2.6835	-91.44287
2.684	-78.04871
2.6845	-59.71985
2.685	-44.71436
2.6855	-30.61523
2.686	-19.13452
2.6865	-20.84656
2.687	-21.55151
2.6875	-32.02515
2.688	-76.84021
2.6885	-143.10608
2.689	-282.48596
2.6895	-468.79578
2.69	-598.10486
2.6905	-658.63037
2.691	-616.33301
2.6915	-517.53845
2.692	-392.96265
2.6925	-280.16968
2.693	-173.31848
2.6935	-68.17932
2.694	6.64673
2.6945	73.61755
2.695	123.56873
2.6955	150.55847
2.696	186.71265
2.6965	212.29248
2.697	231.22559
2.6975	236.86523
2.698	209.47266
2.6985	128.10059
2.699	27.59399
2.6995	-56.19507
2.7	-95.77332
2.7005	-88.42163
2.701	-62.33826
2.7015	-39.67896
2.702	7.95593
2.7025	74.12109
2.703	112.39014
2.7035	110.87952
2.704	98.99597
2.7045	34.54285
2.705	-21.95435
2.7055	-38.77258
2.706	-34.14001
2.7065	-4.33044
2.707	42.59949
2.7075	79.86145
2.708	119.94324
2.7085	169.39087
2.709	214.00452
2.7095	269.69604
2.71	335.7605
2.7105	382.08618
2.711	384.90601
2.7115	295.07446
2.712	138.17139
2.7125	-64.55383
2.713	-255.79834
2.7135	-378.5614
2.714	-420.75806
2.7145	-395.88318
2.715	-328.2074
2.7155	-218.03284
2.716	-118.33191
2.7165	-34.64355
2.717	52.771
2.7175	150.35706
2.718	233.44116
2.7185	305.24597
2.719	314.10828
2.7195	315.41748
2.72	306.8573
2.7205	301.31836
2.721	254.48914
2.7215	204.63867
2.722	136.25793
2.7225	88.22021
2.723	65.15808
2.7235	75.22888
2.724	117.72766
2.7245	135.75439
2.725	157.50732
2.7255	178.15247
2.726	213.19885
2.7265	215.71655
2.727	201.91956
2.7275	209.27124
2.728	218.8385
2.7285	221.65833
2.729	207.96204
2.7295	192.65442
2.73	207.76062
2.7305	217.83142
2.731	216.11938
2.7315	211.18469
2.732	214.60876
2.7325	220.85266
2.733	222.16187
2.7335	197.79053
2.734	182.88574
2.7345	187.01477
2.735	164.7583
2.7355	134.34448
2.736	112.69226
2.7365	87.91809
2.737	65.25879
2.7375	43.60657
2.738	35.34851
2.7385	21.45081
2.739	3.62549
2.7395	-13.49487
2.74	-28.39966
2.7405	-39.17542
2.741	-46.22498
2.7415	-55.59082
2.742	-62.53967
2.7425	-64.35242
2.743	-67.57507
2.7435	-70.79773
2.744	-66.87012
2.7445	-74.62463
2.745	-76.03455
2.7455	-74.92676
2.746	-74.92676
2.7465	-82.58057
2.747	-81.27136
2.7475	-77.14233
2.748	-78.14941
2.7485	-82.27844
2.749	-78.45154
2.7495	-79.55933
2.75	-78.85437
2.7505	-80.4657
2.751	-73.71826
2.7515	-72.40906
2.752	-72.10693
2.7525	-74.2218
2.753	-71.09985
2.7535	-72.00623
2.754	-73.31543
2.7545	-68.58215
2.755	-70.79773
2.7555	-61.43188
2.756	-60.22339
2.7565	-53.97949
2.757	-46.72852
2.7575	-47.33276
2.758	-52.97241
2.7585	-51.15967
2.759	-54.68445
2.7595	-43.10303
2.76	-44.61365
2.7605	-45.41931
2.761	-45.01648
2.7615	-42.49878
2.762	-35.54993
2.7625	-34.64355
2.763	-27.99683
2.7635	-24.77417
2.764	-13.19275
2.7645	-11.78284
2.765	-15.30762
2.7655	-22.45789
2.766	-23.36426
2.7665	-23.56567
2.767	-17.12036
2.7675	-20.04089
2.768	-17.22107
2.7685	-21.24939
2.769	-23.06213
2.7695	-12.5885
2.77	-16.3147
2.7705	-10.0708
2.771	-6.04248
2.7715	-6.74744
2.772	-9.16443
2.7725	-5.84106
2.773	-12.38708
2.7735	-14.70337
2.774	-9.76868
2.7745	-12.08496
2.775	-3.8269
2.7755	-1.51062
2.776	-2.61841
2.7765	-8.15735
2.777	-5.53894
2.7775	-10.57434
2.778	-11.98425
2.7785	-23.46497
2.779	-23.66638
2.7795	-28.50037
2.78	-30.11169
2.7805	-34.24072
2.781	-34.84497
2.7815	-27.59399
2.782	-27.49329
2.7825	-19.73877
2.783	-19.63806
2.7835	-22.05505
2.784	-25.88196
2.7845	-22.76001
2.785	-27.59399
2.7855	-34.74426
2.786	-33.83789
2.7865	-32.22656
2.787	-33.83789
2.7875	-37.36267
2.788	-33.9386
2.7885	-37.26196
2.789	-35.95276
2.7895	-29.80957
2.79	-25.98267
2.7905	-20.74585
2.791	-20.54443
2.7915	-23.36426
2.792	-15.40833
2.7925	-12.18567
2.793	-14.09912
2.7935	-13.29346
2.794	-14.90479
2.7945	-17.42249
2.795	-15.1062
2.7955	-9.76868
2.796	-5.23682
2.7965	-5.74036
2.797	2.71912
2.7975	5.74036
2.798	11.2793
2.7985	9.56726
2.799	12.38708
2.7995	16.81824
2.8	15.40833
2.8005	21.04797
2.801	18.93311
2.8015	23.46497
2.802	24.27063
2.8025	25.07629
2.803	24.67346
2.8035	25.27771
2.804	20.94727
2.8045	25.57983
2.805	18.73169
2.8055	11.17859
2.806	7.45239
2.8065	-3.22266
2.807	-3.52478
2.8075	-11.17859
2.808	-10.67505
2.8085	-13.29346
2.809	-19.83948
2.8095	-13.29346
2.81	-17.52319
2.8105	-15.40833
2.811	-14.60266
2.8115	-16.3147
2.812	-17.42249
2.8125	-25.37842
2.813	-38.06763
2.8135	-39.98108
2.814	-49.34692
2.8145	-53.77808
2.815	-56.79932
2.8155	-61.73401
2.816	-71.90552
2.8165	-94.66553
2.817	-120.7489
2.8175	-160.02502
2.818	-226.19019
2.8185	-272.51587
2.819	-288.0249
2.8195	-282.68738
2.82	-250.96436
2.8205	-212.29248
2.821	-167.98096
2.8215	-124.37439
2.822	-73.41614
2.8225	-56.29578
2.823	-49.54834
2.8235	-49.24622
2.824	-83.38623
2.8245	-161.43494
2.825	-312.89978
2.8255	-489.64233
2.826	-664.37073
2.8265	-742.72156
2.827	-715.83252
2.8275	-612.4054
2.828	-485.71472
2.8285	-332.63855
2.829	-161.83777
2.8295	2.31628
2.83	140.8905
2.8305	236.4624
2.831	221.55762
2.8315	139.27917
2.832	88.62305
2.8325	55.49011
2.833	71.40198
2.8335	137.66785
2.834	218.33496
2.8345	266.37268
2.835	282.38525
2.8355	313.00049
2.836	360.03113
2.8365	412.29858
2.837	439.18762
2.8375	404.74548
2.838	303.0304
2.8385	123.46802
2.839	-154.08325
2.8395	-507.06482
2.84	-888.64746
2.8405	-1190.67078
2.841	-1343.1427
2.8415	-1280.2002
2.842	-1092.07764
2.8425	-870.11719
2.843	-624.69177
2.8435	-361.23962
2.844	-104.13208
2.8445	120.54749
2.845	314.51111
2.8455	468.89648
2.846	528.51562
2.8465	593.06946
2.847	659.73816
2.8475	726.70898
2.848	783.60901
2.8485	828.62549
2.849	845.44373
2.8495	898.51685
2.85	917.24854
2.8505	852.39258
2.851	694.98596
2.8515	554.90112
2.852	454.19312
2.8525	394.67468
2.853	328.2074
2.8535	201.2146
2.854	87.01172
2.8545	30.51453
2.855	-20.54443
2.8555	-32.83081
2.856	-12.5885
2.8565	32.83081
2.857	82.07703
2.8575	124.77722
2.858	150.8606
2.8585	151.46484
2.859	171.10291
2.8595	180.67017
2.86	195.87708
2.8605	216.11938
2.861	249.75586
2.8615	268.99109
2.862	278.25623
2.8625	285.00366
2.863	259.92737
2.8635	241.29639
2.864	260.22949
2.8645	280.16968
2.865	259.82666
2.8655	217.02576
2.866	169.29016
2.8665	132.93457
2.867	99.60022
2.8675	67.77649
2.868	36.05347
2.8685	11.88354
2.869	-3.42407
2.8695	-16.11328
2.87	-21.04797
2.8705	-26.3855
2.871	-40.78674
2.8715	-58.41064
2.872	-71.09985
2.8725	-74.52393
2.873	-82.07703
2.8735	-93.15491
2.874	-88.82446
2.8745	-92.44995
2.875	-95.97473
2.8755	-96.67969
2.876	-90.73792
2.8765	-87.01172
2.877	-83.78906
2.8775	-83.48694
2.878	-100.50659
2.8785	-108.1604
2.879	-113.69934
2.8795	-113.80005
2.88	-113.29651
2.8805	-115.10925
2.881	-116.11633
2.8815	-111.58447
2.882	-106.34766
2.8825	-93.0542
2.883	-92.04712
2.8835	-87.11243
2.884	-84.69543
2.8845	-69.79065
2.885	-63.64746
2.8855	-58.20923
2.886	-53.97949
2.8865	-58.71277
2.887	-66.16516
2.8875	-66.36658
2.888	-58.91418
2.8885	-52.56958
2.889	-44.51294
2.8895	-41.59241
2.89	-42.7002
2.8905	-38.57117
2.891	-44.91577
2.8915	-45.62073
2.892	-46.12427
2.8925	-44.61365
2.893	-47.7356
2.8935	-45.3186
2.894	-41.79382
2.8945	-34.34143
2.895	-24.47205
2.8955	-23.26355
2.896	-20.74585
2.8965	-24.06921
2.897	-25.68054
2.8975	-24.47205
2.898	-24.67346
2.8985	-19.83948
2.899	-14.70337
2.8995	-18.32886
2.9	-26.88904
2.9005	-24.47205
2.901	-21.75293
2.9015	-21.95435
2.902	-21.55151
2.9025	-15.71045
2.903	-17.82532
2.9035	-20.84656
2.904	-19.53735
2.9045	-25.98267
2.905	-27.29187
2.9055	-25.88196
2.906	-25.98267
2.9065	-26.58691
2.907	-25.98267
2.9075	-20.94727
2.908	-17.82532
2.9085	-16.71753
2.909	-19.13452
2.9095	-23.16284
2.91	-28.09753
2.9105	-33.83789
2.911	-36.25488
2.9115	-34.14001
2.912	-29.30603
2.9125	-24.27063
2.913	-22.15576
2.9135	-25.57983
2.914	-17.82532
2.9145	-14.09912
2.915	-14.50195
2.9155	-7.35168
2.916	-19.94019
2.9165	-22.35718
2.917	-33.03223
2.9175	-34.74426
2.918	-42.59949
2.9185	-52.16675
2.919	-46.82922
2.9195	-45.2179
2.92	-46.62781
2.9205	-45.11719
2.921	-40.68604
2.9215	-35.75134
2.922	-25.57983
2.9225	-21.45081
2.923	-17.01965
2.9235	-7.45239
2.924	-7.75452
2.9245	-7.45239
2.925	-11.07788
2.9255	-8.7616
2.926	-11.38
2.9265	-7.04956
2.927	0.10071
2.9275	4.43115
2.928	8.05664
2.9285	2.81982
2.929	6.44531
2.9295	4.22974
2.93	1.71204
2.9305	8.96301
2.931	0.40283
2.9315	-8.56018
2.932	-17.6239
2.9325	-28.39966
2.933	-28.09753
2.9335	-31.21948
2.934	-32.42798
2.9345	-38.67188
2.935	-42.19666
2.9355	-38.87329
2.936	-34.03931
2.9365	-26.48621
2.937	-25.88196
2.9375	-24.16992
2.938	-19.03381
2.9385	-15.20691
2.939	-11.68213
2.9395	-10.17151
2.94	-7.95593
2.9405	-8.8623
2.941	-2.92053
2.9415	3.52478
2.942	10.57434
2.9425	11.68213
2.943	18.02673
2.9435	18.8324
2.944	21.95435
2.9445	20.24231
2.945	24.97559
2.9455	28.29895
2.946	26.78833
2.9465	26.88904
2.947	25.57983
2.9475	29.50745
2.948	24.37134
2.9485	16.01257
2.949	16.11328
2.9495	2.5177
2.95	-5.33752
2.9505	-19.03381
2.951	-25.78125
2.9515	-35.04639
2.952	-42.59949
2.9525	-46.82922
2.953	-41.69312
2.9535	-48.23914
2.954	-65.25879
2.9545	-106.24695
2.955	-145.72449
2.9555	-173.5199
2.956	-184.59778
2.9565	-197.08557
2.957	-184.49707
2.9575	-172.3114
2.958	-142.099
2.9585	-120.44678
2.959	-90.93933
2.9595	-68.17932
2.96	-49.44763
2.9605	-28.9032
2.961	-3.62549
2.9615	16.51611
2.962	42.29736
2.9625	53.07312
2.963	69.48853
2.9635	98.59314
2.964	118.63403
2.9645	122.66235
2.965	121.75598
2.9655	112.39014
2.966	107.05261
2.9665	116.31775
2.967	127.09351
2.9675	119.33899
2.968	94.86694
2.9685	69.58923
2.969	45.41931
2.9695	15.20691
2.97	-15.30762
2.9705	-41.29028
2.971	-54.58374
2.9715	-85.19897
2.972	-116.11633
2.9725	-173.01636
2.973	-235.05249
2.9735	-275.53711
2.974	-277.04773
2.9745	-258.51746
2.975	-226.08948
2.9755	-189.83459
2.976	-144.21387
2.9765	-88.0188
2.977	-36.85913
2.9775	-16.01257
2.978	8.35876
2.9785	42.59949
2.979	69.99207
2.9795	104.73633
2.98	143.91174
2.9805	175.43335
2.981	196.88416
2.9815	204.84009
2.982	203.32947
2.9825	203.43018
2.983	216.42151
2.9835	232.13196
2.984	217.63
2.9845	192.85583
2.985	169.29016
2.9855	153.57971
2.986	122.56165
2.9865	96.98181
2.987	77.24304
2.9875	51.46179
2.988	39.88037
2.9885	37.16125
2.989	34.14001
2.9895	-12.38708
2.99	-55.18799
2.9905	-77.74658
2.991	-85.19897
2.9915	-73.41614
2.992	-62.43896
2.9925	-73.31543
2.993	-88.92517
2.9935	-111.28235
2.994	-119.13757
2.9945	-103.125
2.995	-79.96216
2.9955	-43.90869
2.996	-12.89062
2.9965	1.40991
2.997	-3.8269
2.9975	-22.6593
2.998	-55.3894
2.9985	-79.45862
2.999	-88.72375
2.9995	-86.8103
3	-90.63721
3.0005	-88.62305
3.001	-74.32251
3.0015	-52.26746
3.002	-36.25488
3.0025	-21.14868
3.003	-0.20142
3.0035	29.40674
3.004	62.53967
3.0045	109.97314
3.005	127.69775
3.0055	136.25793
3.006	137.96997
3.0065	135.65369
3.007	123.06519
3.0075	118.33191
3.008	124.77722
3.0085	146.53015
3.009	151.36414
3.0095	141.09192
3.01	119.23828
3.0105	94.06128
3.011	76.33667
3.0115	62.03613
3.012	58.51135
3.0125	48.54126
3.013	44.81506
3.0135	37.66479
3.014	37.06055
3.0145	27.79541
3.015	24.37134
3.0155	20.64514
3.016	15.91187
3.0165	8.45947
3.017	1.10779
3.0175	-1.51062
3.018	-3.42407
3.0185	-10.97717
3.019	-23.8678
3.0195	-31.62231
3.02	-40.78674
3.0205	-46.12427
3.021	-45.72144
3.0215	-44.31152
3.022	-35.44922
3.0225	-36.35559
3.023	-36.85913
3.0235	-35.95276
3.024	-34.44214
3.0245	-25.37842
3.025	-36.35559
3.0255	-34.84497
3.026	-31.11877
3.0265	-26.28479
3.027	-26.68762
3.0275	-25.47913
3.028	-28.80249
3.0285	-31.4209
3.029	-39.47754
3.0295	-38.77258
3.03	-41.69312
3.0305	-33.23364
3.031	-23.36426
3.0315	-12.08496
3.032	-11.98425
3.0325	-20.54443
3.033	-20.84656
3.0335	-23.66638
3.034	-26.28479
3.0345	-29.60815
3.035	-31.11877
3.0355	-26.78833
3.036	-29.00391
3.0365	-31.82373
3.037	-28.39966
3.0375	-34.03931
3.038	-40.68604
3.0385	-42.19666
3.039	-35.54993
3.0395	-35.65063
3.04	-33.43506
3.0405	-27.79541
3.041	-29.50745
3.0415	-32.62939
3.042	-28.29895
3.0425	-24.77417
3.043	-20.94727
3.0435	-26.48621
3.044	-25.98267
3.0445	-25.07629
3.045	-34.94568
3.0455	-48.44055
3.046	-53.27454
3.0465	-53.97949
3.047	-61.6333
3.0475	-62.53967
3.048	-58.00781
3.0485	-50.95825
3.049	-28.39966
3.0495	-19.73877
3.05	-3.52478
3.0505	9.06372
3.051	17.12036
3.0515	27.09045
3.052	35.34851
3.0525	38.974
3.053	40.58533
3.0535	41.59241
3.054	42.09595
3.0545	43.90869
3.055	46.5271
3.0555	38.26904
3.056	39.07471
3.0565	35.95276
3.057	28.50037
3.0575	24.57275
3.058	7.5531
3.0585	-3.7262
3.059	-14.70337
3.0595	-18.42957
3.06	-29.30603
3.0605	-31.32019
3.061	-49.85046
3.0615	-58.81348
3.062	-59.31702
3.0625	-54.88586
3.063	-54.28162
3.0635	-48.94409
3.064	-48.33984
3.0645	-40.58533
3.065	-36.25488
3.0655	-40.58533
3.066	-41.79382
3.0665	-37.66479
3.067	-29.40674
3.0675	-24.57275
3.068	-22.25647
3.0685	-16.51611
3.069	-17.01965
3.0695	-13.797
3.07	-11.98425
3.0705	-2.71912
3.071	-7.04956
3.0715	-10.97717
3.072	-9.36584
3.0725	-25.07629
3.073	-37.16125
3.0735	-50.2533
3.074	-54.68445
3.0745	-58.20923
3.075	-55.69153
3.0755	-47.23206
3.076	-41.79382
3.0765	-35.04639
3.077	-25.07629
3.0775	-18.63098
3.078	-5.53894
3.0785	-29.10461
3.079	-61.43188
3.0795	-87.91809
3.08	-100.30518
3.0805	-93.75916
3.081	-85.80322
3.0815	-70.69702
3.082	-57.00073
3.0825	-48.13843
3.083	-25.88196
3.0835	-8.56018
3.084	14.80408
3.0845	29.20532
3.085	39.57825
3.0855	45.01648
3.086	34.14001
3.0865	17.82532
3.087	-1.00708
3.0875	-9.46655
3.088	-9.36584
3.0885	3.22266
3.089	10.0708
3.0895	11.48071
3.09	16.3147
3.0905	32.02515
3.091	40.88745
3.0915	41.69312
3.092	12.38708
3.0925	-31.52161
3.093	-68.07861
3.0935	-80.06287
3.094	-91.8457
3.0945	-92.14783
3.095	-84.59473
3.0955	-63.54675
3.096	-58.71277
3.0965	-43.10303
3.097	-32.62939
3.0975	-21.95435
3.098	-12.28638
3.0985	1.81274
3.099	16.41541
3.0995	25.177
3.1	37.06055
3.1005	51.76392
3.101	69.28711
3.1015	79.55933
3.102	89.83154
3.1025	91.8457
3.103	90.5365
3.1035	80.16357
3.104	72.10693
3.1045	49.85046
3.105	41.59241
3.1055	22.76001
3.106	-12.89062
3.1065	-27.29187
3.107	-8.35876
3.1075	13.797
3.108	29.70886
3.1085	50.55542
3.109	69.99207
3.1095	85.80322
3.11	108.56323
3.1105	130.51758
3.111	145.12024
3.1115	142.40112
3.112	137.86926
3.1125	132.22961
3.113	119.84253
3.1135	108.05969
3.114	90.33508
3.1145	82.47986
3.115	81.17065
3.1155	83.28552
3.116	83.08411
3.1165	81.47278
3.117	72.00623
3.1175	55.18799
3.118	41.08887
3.1185	41.89453
3.119	38.974
3.1195	30.41382
3.12	16.81824
3.1205	11.68213
3.121	3.52478
3.1215	-4.02832
3.122	-2.71912
3.1225	-1.3092
3.123	-8.25806
3.1235	-23.96851
3.124	-33.43506
3.1245	-40.58533
3.125	-53.57666
3.1255	-67.67578
3.126	-80.96924
3.1265	-88.22021
3.127	-88.32092
3.1275	-77.24304
3.128	-65.96375
3.1285	-60.02197
3.129	-49.74976
3.1295	-33.63647
3.13	-17.42249
3.1305	-12.5885
3.131	-7.04956
3.1315	0
3.132	2.31628
3.1325	0
3.133	-3.52478
3.1335	4.22974
3.134	1.3092
3.1345	4.43115
3.135	4.43115
3.1355	7.65381
3.136	11.07788
3.1365	4.53186
3.137	3.02124
3.1375	5.94177
3.138	2.71912
3.1385	9.06372
3.139	2.31628
3.1395	2.41699
3.14	-0.30212
3.1405	-3.8269
3.141	-4.63257
3.1415	-9.66797
3.142	-20.34302
3.1425	-26.48621
3.143	-26.28479
3.1435	-34.64355
3.144	-50.2533
3.1445	-70.19348
3.145	-79.55933
3.1455	-81.17065
3.146	-80.36499
3.1465	-70.79773
3.147	-65.76233
3.1475	-44.11011
3.148	-25.27771
3.1485	-16.11328
3.149	-5.23682
3.1495	4.43115
3.15	5.84106
3.1505	15.00549
3.151	15.91187
3.1515	23.46497
3.152	19.73877
3.1525	24.47205
3.153	20.34302
3.1535	19.83948
3.154	17.6239
3.1545	11.68213
3.155	11.58142
3.1555	7.75452
3.156	10.57434
3.1565	17.12036
3.157	23.16284
3.1575	16.01257
3.158	12.68921
3.1585	1.2085
3.159	-19.63806
3.1595	-37.96692
3.16	-50.65613
3.1605	-67.77649
3.161	-81.67419
3.1615	-76.23596
3.162	-72.30835
3.1625	-58.51135
3.163	-44.0094
3.1635	-14.50195
3.164	4.22974
3.1645	25.177
3.165	40.08179
3.1655	46.92993
3.166	52.56958
3.1665	54.48303
3.167	51.5625
3.1675	43.90869
3.168	42.49878
3.1685	37.46338
3.169	32.22656
3.1695	19.33594
3.17	13.39417
3.1705	-1.10779
3.171	-3.92761
3.1715	-5.0354
3.172	0.40283
3.1725	7.75452
3.173	5.53894
3.1735	13.29346
3.174	15.20691
3.1745	17.01965
3.175	5.33752
3.1755	-12.18567
3.176	-17.92603
3.1765	-21.65222
3.177	-36.4563
3.1775	-53.57666
3.178	-60.52551
3.1785	-69.28711
3.179	-62.33826
3.1795	-47.23206
3.18	-41.79382
3.1805	-31.01807
3.181	-22.6593
3.1815	-11.48071
3.182	-1.91345
3.1825	2.61841
3.183	9.86938
3.1835	12.28638
3.184	19.13452
3.1845	18.93311
3.185	14.80408
3.1855	18.53027
3.186	14.80408
3.1865	11.58142
3.187	11.98425
3.1875	17.32178
3.188	19.63806
3.1885	24.16992
3.189	51.36108
3.1895	65.96375
3.19	71.60339
3.1905	63.94958
3.191	53.37524
3.1915	48.84338
3.192	41.18958
3.1925	34.64355
3.193	31.92444
3.1935	22.25647
3.194	24.16992
3.1945	19.94019
3.195	14.30054
3.1955	11.07788
3.196	3.32336
3.1965	7.95593
3.197	9.36584
3.1975	4.83398
3.198	3.12195
3.1985	3.92761
3.199	11.38
3.1995	6.54602
3.2	2.92053
3.2005	5.23682
3.201	7.25098
3.2015	8.8623
3.202	6.74744
3.2025	6.3446
3.203	1.61133
3.2035	5.23682
3.204	6.04248
3.2045	7.04956
3.205	6.84814
3.2055	7.25098
3.206	4.83398
3.2065	4.02832
3.207	10.0708
3.2075	12.08496
3.208	13.89771
3.2085	12.89062
3.209	15.00549
3.2095	17.6239
3.21	7.95593
3.2105	1.71204
3.211	5.53894
3.2115	10.67505
3.212	10.77576
3.2125	8.96301
3.213	7.75452
3.2135	9.06372
3.214	11.07788
3.2145	15.1062
3.215	13.59558
3.2155	15.60974
3.216	18.22815
3.2165	16.41541
3.217	11.07788
3.2175	9.86938
3.218	10.97717
3.2185	11.88354
3.219	14.09912
3.2195	15.40833
3.22	10.0708
3.2205	5.53894
3.221	9.76868
3.2215	4.83398
3.222	2.31628
3.2225	0.60425
3.223	-0.10071
3.2235	8.7616
3.224	1.71204
3.2245	4.93469
3.225	11.38
3.2255	4.63257
3.226	4.43115
3.2265	3.42407
3.227	2.61841
3.2275	0
3.228	2.01416
3.2285	-3.12195
3.229	-9.76868
3.2295	-26.48621
3.23	-34.34143
3.2305	-37.56409
3.231	-30.31311
3.2315	-22.45789
3.232	-18.02673
3.2325	-7.75452
3.233	-7.95593
3.2335	-3.12195
3.234	3.52478
3.2345	0.30212
3.235	3.22266
3.2355	-9.16443
3.236	-16.11328
3.2365	-21.3501
3.237	-18.93311
3.2375	-19.63806
3.238	-15.50903
3.2385	-12.89062
3.239	-10.17151
3.2395	-10.87646
3.24	-16.21399
3.2405	-20.64514
3.241	-25.68054
3.2415	-12.18567
3.242	-2.31628
3.2425	10.17151
3.243	19.53735
3.2435	29.20532
3.244	36.05347
3.2445	46.02356
3.245	39.17542
3.2455	35.75134
3.246	39.57825
3.2465	37.86621
3.247	33.73718
3.2475	30.11169
3.248	28.70178
3.2485	24.37134
3.249	25.177
3.2495	26.08337
3.25	28.60107
3.2505	23.06213
3.251	24.06921
3.2515	24.37134
3.252	18.93311
3.2525	12.99133
3.253	9.97009
3.2535	12.68921
3.254	6.84814
3.2545	7.35168
3.255	0.80566
3.2555	5.33752
3.256	12.99133
3.2565	13.49487
3.257	21.85364
3.2575	10.77576
3.258	4.33044
3.2585	8.05664
3.259	-0.60425
3.2595	1.00708
3.26	2.21558
3.2605	0.20142
3.261	-1.3092
3.2615	-4.33044
3.262	-2.21558
3.2625	1.61133
3.263	-2.01416
3.2635	7.95593
3.264	6.2439
3.2645	-1.51062
3.265	-0.80566
3.2655	-2.71912
3.266	0.80566
3.2665	-1.71204
3.267	0
3.2675	-0.60425
3.268	3.02124
3.2685	-5.53894
3.269	1.91345
3.2695	5.43823
3.27	1.40991
3.2705	5.94177
3.271	3.02124
3.2715	0.70496
3.272	6.14319
3.2725	3.92761
3.273	-1.61133
3.2735	3.7262
3.274	1.71204
3.2745	2.21558
3.275	4.73328
3.2755	0
3.276	0.40283
3.2765	0.40283
3.277	3.12195
3.2775	1.61133
3.278	0.40283
3.2785	-2.11487
3.279	1.2085
3.2795	-2.5177
3.28	-3.22266
3.2805	-2.71912
3.281	-7.35168
3.2815	-7.15027
3.282	-1.2085
3.2825	3.32336
3.283	2.11487
3.2835	1.40991
3.284	-5.33752
3.2845	-5.74036
3.285	1.2085
3.2855	-3.12195
3.286	-8.25806
3.2865	-3.22266
3.287	-0.80566
3.2875	-3.8269
3.288	-5.13611
3.2885	-4.33044
3.289	-1.51062
3.2895	-7.04956
3.29	-3.22266
3.2905	-1.61133
3.291	-3.22266
3.2915	-4.53186
3.292	-4.83398
3.2925	-5.74036
3.293	-4.02832
3.2935	-5.63965
3.294	-1.2085
3.2945	-1.40991
3.295	-3.62549
3.2955	1.91345
3.296	0
3.2965	-8.15735
3.297	-8.66089
3.2975	-9.46655
3.298	-6.74744
3.2985	-4.12903
3.299	-3.62549
3.2995	-4.83398
3.3	0.90637
3.3005	-5.33752
3.301	-3.92761
3.3015	-7.65381
3.302	0
3.3025	-4.53186
3.303	-2.71912
3.3035	-2.71912
3.304	-6.44531
3.3045	2.92053
3.305	-5.33752
3.3055	-1.91345
3.306	2.5177
3.3065	-3.22266
3.307	0.30212
3.3075	0.50354
3.308	-1.51062
3.3085	-1.91345
3.309	-1.2085
3.3095	-1.3092
3.31	1.10779
3.3105	-2.11487
3.311	1.51062
3.3115	1.3092
3.312	2.81982
3.3125	3.02124
3.313	0.40283
3.3135	-0.60425
3.314	-1.10779
3.3145	-0.40283
3.315	-3.32336
3.3155	-3.7262
3.316	-0.50354
3.3165	-1.00708
3.317	-4.33044
3.3175	-0.80566
3.318	1.3092
3.3185	-1.2085
3.319	0.10071
3.3195	-1.40991
3.32	-2.5177
3.3205	-1.81274
3.321	-0.90637
3.3215	4.02832
3.322	-0.40283
3.3225	-7.65381
3.323	-3.52478
3.3235	-5.13611
3.324	0.20142
3.3245	-6.14319
3.325	-4.73328
3.3255	-4.43115
3.326	-4.33044
3.3265	-7.15027
3.327	-5.53894
3.3275	-2.01416
3.328	-4.12903
3.3285	-2.01416
3.329	-2.41699
3.3295	-1.40991
3.33	2.01416
3.3305	4.83398
3.331	2.31628
3.3315	3.22266
3.332	5.0354
3.3325	7.95593
3.333	1.51062
3.3335	2.11487
3.334	2.92053
3.3345	2.11487
3.335	1.3092
3.3355	2.81982
3.336	3.7262
3.3365	4.63257
3.337	7.65381
3.3375	1.91345
3.338	5.84106
3.3385	6.2439
3.339	-2.5177
3.3395	-3.52478
3.34	0.40283
3.3405	2.61841
3.341	-5.13611
3.3415	-6.2439
3.342	-7.45239
3.3425	-7.5531
3.343	-9.46655
3.3435	-12.5885
3.344	-12.68921
3.3445	-13.69629
3.345	-15.00549
3.3455	-13.49487
3.346	-10.87646
3.3465	-9.86938
3.347	-10.37292
3.3475	-6.3446
3.348	-7.15027
3.3485	-4.83398
3.349	-3.52478
3.3495	-1.40991
3.35	-7.15027
3.3505	-5.53894
3.351	-2.71912
3.3515	-9.16443
3.352	-3.52478
3.3525	-4.93469
3.353	-4.22974
3.3535	-2.41699
3.354	-4.22974
3.3545	-2.21558
3.355	-4.53186
3.3555	-4.33044
3.356	-4.12903
3.3565	-6.3446
3.357	-8.8623
3.3575	-4.93469
3.358	-0.10071
3.3585	-0.70496
3.359	-0.90637
3.3595	3.8269
3.36	0.30212
3.3605	-0.90637
3.361	-4.22974
3.3615	-5.63965
3.362	-2.01416
3.3625	-5.13611
3.363	-1.40991
3.3635	-4.83398
3.364	-6.74744
3.3645	-3.12195
3.365	-9.97009
3.3655	-5.23682
3.366	-7.45239
3.3665	-5.33752
3.367	-2.81982
3.3675	-4.43115
3.368	-6.94885
3.3685	2.21558
3.369	-8.45947
3.3695	-6.74744
3.37	-10.47363
3.3705	-5.84106
3.371	-11.48071
3.3715	-9.16443
3.372	-8.25806
3.3725	-3.22266
3.373	-4.33044
3.3735	-3.42407
3.374	-6.44531
3.3745	-6.74744
3.375	-9.16443
3.3755	-7.5531
3.376	-4.63257
3.3765	-9.66797
3.377	-6.44531
3.3775	-5.33752
3.378	-10.37292
3.3785	-7.5531
3.379	-6.94885
3.3795	-6.14319
3.38	-4.33044
3.3805	-3.32336
3.381	-8.15735
3.3815	-3.8269
3.382	-3.7262
3.3825	-2.92053
3.383	-0.30212
3.3835	-3.62549
3.384	2.81982
3.3845	-1.00708
3.385	-6.94885
3.3855	1.51062
3.386	1.2085
3.3865	1.3092
3.387	-2.21558
3.3875	-2.81982
3.388	0.10071
3.3885	-2.31628
3.389	-2.61841
3.3895	0
3.39	-3.12195
3.3905	-2.11487
3.391	-2.81982
3.3915	-1.00708
3.392	-7.65381
3.3925	-6.14319
3.393	0.30212
3.3935	-1.10779
3.394	-3.8269
3.3945	3.02124
3.395	-2.5177
3.3955	-0.40283
3.396	-6.54602
3.3965	-3.8269
3.397	2.5177
3.3975	-2.92053
3.398	-3.8269
3.3985	1.71204
3.399	6.3446
3.3995	-0.20142
3.4	0.70496
3.4005	2.01416
3.401	-5.13611
3.4015	0.40283
3.402	-0.30212
3.4025	-3.52478
3.403	0.40283
3.4035	-2.01416
3.404	-0.30212
3.4045	-4.33044
3.405	-4.02832
3.4055	2.41699
3.406	-2.81982
3.4065	0
3.407	-2.41699
3.4075	-2.5177
3.408	-2.31628
3.4085	-0.70496
3.409	-4.63257
3.4095	-7.45239
3.41	-6.54602
3.4105	-2.21558
3.411	0
3.4115	0
3.412	-4.83398
3.4125	-2.01416
3.413	-2.01416
3.4135	-0.10071
3.414	-0.10071
3.4145	-2.92053
3.415	-9.06372
3.4155	-2.71912
3.416	-4.22974
3.4165	-6.74744
3.417	-9.26514
3.4175	-7.75452
3.418	-7.75452
3.4185	-8.8623
3.419	-6.94885
3.4195	-10.17151
3.42	-8.96301
3.4205	-8.7616
3.421	-7.75452
3.4215	-8.7616
3.422	-17.42249
3.4225	-15.60974
3.423	-16.81824
3.4235	-12.28638
3.424	-10.97717
3.4245	-13.49487
3.425	-11.48071
3.4255	-11.48071
3.426	-8.96301
3.4265	-7.25098
3.427	-7.15027
3.4275	-4.63257
3.428	-9.36584
3.4285	-3.32336
3.429	-2.11487
3.4295	-3.12195
3.43	0.20142
3.4305	-7.5531
3.431	-1.91345
3.4315	-2.5177
3.432	3.02124
3.4325	-0.10071
3.433	0.20142
3.4335	-0.30212
3.434	0.40283
3.4345	0.60425
3.435	2.61841
3.4355	-1.2085
3.436	2.81982
3.4365	1.71204
3.437	-2.5177
3.4375	-0.40283
3.438	-2.92053
3.4385	-0.70496
3.439	1.71204
3.4395	-1.00708
3.44	-3.12195
3.4405	-7.75452
3.441	0.80566
3.4415	-3.62549
3.442	-2.21558
3.4425	-3.7262
3.443	-0.40283
3.4435	-2.21558
3.444	-0.50354
3.4445	1.10779
3.445	0.60425
3.4455	-2.41699
3.446	-1.00708
3.4465	-1.2085
3.447	-6.64673
3.4475	-7.75452
3.448	-6.44531
3.4485	-4.83398
3.449	-2.01416
3.4495	-3.52478
3.45	-0.80566
3.4505	0.60425
3.451	-3.7262
3.4515	-3.7262
3.452	-6.44531
3.4525	-4.12903
3.453	-2.5177
3.4535	-6.94885
3.454	2.5177
3.4545	-3.02124
3.455	1.40991
3.4555	-1.10779
3.456	-3.42407
3.4565	-0.10071
3.457	3.8269
3.4575	3.12195
3.458	-0.40283
3.4585	-1.00708
3.459	1.2085
3.4595	3.7262
3.46	-2.61841
3.4605	0.30212
3.461	2.31628
3.4615	1.61133
3.462	8.7616
3.4625	4.43115
3.463	8.66089
3.4635	6.84814
3.464	5.94177
3.4645	2.5177
3.465	4.63257
3.4655	7.35168
3.466	9.26514
3.4665	6.54602
3.467	8.05664
3.4675	8.05664
3.468	7.5531
3.4685	6.84814
3.469	11.2793
3.4695	8.35876
3.47	8.05664
3.4705	7.85522
3.471	9.06372
3.4715	12.18567
3.472	9.56726
3.4725	7.04956
3.473	1.51062
3.4735	4.83398
3.474	4.53186
3.4745	5.13611
3.475	-0.20142
3.4755	4.43115
3.476	8.66089
3.4765	3.32336
3.477	7.35168
3.4775	4.63257
3.478	9.16443
3.4785	7.5531
3.479	11.17859
3.4795	8.05664
3.48	5.94177
3.4805	7.04956
3.481	6.14319
3.4815	7.04956
3.482	5.53894
3.4825	8.66089
3.483	3.7262
3.4835	10.17151
3.484	11.98425
3.4845	10.17151
3.485	13.59558
3.4855	9.26514
3.486	9.26514
3.4865	14.09912
3.487	9.26514
3.4875	9.56726
3.488	8.56018
3.4885	16.21399
3.489	10.57434
3.4895	10.0708
3.49	5.33752
3.4905	5.63965
3.491	2.31628
3.4915	4.33044
3.492	4.02832
3.4925	4.73328
3.493	8.96301
3.4935	4.83398
3.494	9.26514
3.4945	6.54602
3.495	8.96301
3.4955	2.71912
3.496	4.93469
3.4965	11.98425
3.497	0.50354
3.4975	2.41699
3.498	5.23682
3.4985	7.25098
3.499	11.88354
3.4995	10.57434
3.5	9.16443
3.5005	4.22974
3.501	8.45947
3.5015	8.05664
3.502	1.3092
3.5025	3.8269
3.503	2.21558
3.5035	1.71204
3.504	4.73328
3.5045	3.62549
3.505	0.90637
3.5055	8.25806
3.506	4.33044
3.5065	4.53186
3.507	6.3446
3.5075	7.04956
3.508	6.44531
3.5085	-3.32336
3.509	1.71204
3.5095	0
3.51	4.02832
3.5105	2.11487
3.511	0.50354
3.5115	-2.81982
3.512	-0.40283
3.5125	-4.22974
3.513	-6.3446
3.5135	-4.53186
3.514	-3.32336
3.5145	-3.42407
3.515	-4.02832
3.5155	-1.81274
3.516	-2.61841
3.5165	-6.04248
3.517	0.20142
3.5175	-3.92761
3.518	-2.71912
3.5185	-1.3092
3.519	0
3.5195	-1.61133
3.52	-2.81982
3.5205	-0.20142
3.521	-3.7262
3.5215	-7.04956
3.522	-3.7262
3.5225	1.10779
3.523	1.51062
3.5235	-7.85522
3.524	-4.02832
3.5245	-2.61841
3.525	-4.53186
3.5255	0.30212
3.526	-5.94177
3.5265	-5.53894
3.527	-4.83398
3.5275	-1.10779
3.528	4.43115
3.5285	-0.30212
3.529	1.10779
3.5295	4.63257
3.53	-2.92053
3.5305	0
3.531	-0.80566
3.5315	-0.30212
3.532	-1.40991
3.5325	-2.21558
3.533	-3.02124
3.5335	-1.3092
3.534	-2.71912
3.5345	-0.50354
3.535	-2.71912
3.5355	-3.8269
3.536	-7.65381
3.5365	-5.33752
3.537	-8.05664
3.5375	-8.25806
3.538	-4.53186
3.5385	-1.00708
3.539	-10.27222
3.5395	-8.56018
3.54	-2.81982
3.5405	-3.8269
3.541	0.80566
3.5415	-5.23682
3.542	-2.61841
3.5425	-7.75452
3.543	-4.93469
3.5435	-4.73328
3.544	-5.53894
3.5445	-2.5177
3.545	-5.94177
3.5455	-3.42407
3.546	-4.43115
3.5465	-1.40991
3.547	-1.00708
3.5475	-4.02832
3.548	1.71204
3.5485	4.22974
3.549	1.51062
3.5495	-1.10779
3.55	1.00708
3.5505	-0.70496
3.551	-1.91345
3.5515	-0.20142
3.552	-4.33044
3.5525	0.60425
3.553	-1.2085
3.5535	2.21558
3.554	-1.81274
3.5545	-4.93469
3.555	-1.10779
3.5555	-6.3446
3.556	-5.33752
3.5565	-2.21558
3.557	0.80566
3.5575	1.2085
3.558	4.73328
3.5585	0.40283
3.559	0.80566
3.5595	0.70496
3.56	3.52478
3.5605	5.43823
3.561	-4.83398
3.5615	0
3.562	1.3092
3.5625	2.31628
3.563	0.40283
3.5635	2.01416
3.564	-0.70496
3.5645	3.02124
3.565	3.22266
3.5655	2.71912
3.566	3.62549
3.5665	3.52478
3.567	6.54602
3.5675	1.00708
3.568	1.00708
3.5685	0.60425
3.569	1.81274
3.5695	5.63965
3.57	7.25098
3.5705	-0.40283
3.571	-0.10071
3.5715	-0.70496
3.572	3.22266
3.5725	-2.31628
3.573	1.10779
3.5735	-3.12195
3.574	6.54602
3.5745	-0.40283
3.575	0.50354
3.5755	-2.81982
3.576	1.40991
3.5765	1.71204
3.577	-1.91345
3.5775	-0.90637
3.578	-1.61133
3.5785	-0.10071
3.579	4.93469
3.5795	7.65381
3.58	5.33752
3.5805	8.35876
3.581	-0.90637
3.5815	-2.81982
3.582	5.23682
3.5825	4.02832
3.583	4.02832
3.5835	5.0354
3.584	2.01416
3.5845	1.51062
3.585	2.5177
3.5855	-3.42407
3.586	-4.33044
3.5865	0.90637
3.587	3.7262
3.5875	2.11487
3.588	-3.92761
3.5885	-0.50354
3.589	-2.01416
3.5895	0.10071
3.59	-6.94885
3.5905	-3.7262
3.591	-0.40283
3.5915	-5.74036
3.592	-3.02124
3.5925	-5.84106
3.593	-1.2085
3.5935	-1.61133
3.594	-6.04248
3.5945	-7.5531
3.595	-7.95593
3.5955	-7.85522
3.596	-5.43823
3.5965	-9.66797
3.597	-8.35876
3.5975	-5.84106
3.598	-9.46655
3.5985	-7.35168
3.599	-4.43115
3.5995	-4.43115
3.6	-4.63257
3.6005	-7.5531
3.601	-2.81982
3.6015	-3.8269
3.602	-4.33044
3.6025	-5.94177
3.603	-5.13611
3.6035	-7.5531
3.604	-7.5531
3.6045	-6.94885
3.605	-9.26514
3.6055	-10.97717
3.606	-7.95593
3.6065	-9.76868
3.607	-6.44531
3.6075	-3.8269
3.608	-2.11487
3.6085	-3.7262
3.609	-9.36584
3.6095	-6.54602
3.61	-5.0354
3.6105	-2.01416
3.611	4.22974
3.6115	-1.3092
3.612	-5.23682
3.6125	-7.04956
3.613	-3.22266
3.6135	-5.0354
3.614	-7.45239
3.6145	-4.33044
3.615	-2.31628
3.6155	-6.04248
3.616	-6.3446
3.6165	-1.51062
3.617	3.8269
3.6175	2.41699
3.618	3.32336
3.6185	6.04248
3.619	0.50354
3.6195	2.71912
3.62	3.22266
3.6205	2.41699
3.621	5.23682
3.6215	2.61841
3.622	2.71912
3.6225	6.54602
3.623	1.00708
3.6235	3.62549
3.624	2.31628
3.6245	2.81982
3.625	2.61841
3.6255	5.43823
3.626	2.41699
3.6265	8.45947
3.627	4.02832
3.6275	-0.20142
3.628	8.35876
3.6285	4.93469
3.629	3.7262
3.6295	3.52478
3.63	5.74036
3.6305	7.15027
3.631	4.02832
3.6315	6.54602
3.632	2.71912
3.6325	6.3446
3.633	7.15027
3.6335	11.68213
3.634	2.21558
3.6345	10.67505
3.635	5.33752
3.6355	-4.63257
3.636	5.74036
3.6365	11.38
3.637	5.43823
3.6375	10.47363
3.638	4.43115
3.6385	9.06372
3.639	8.45947
3.6395	10.47363
3.64	6.44531
3.6405	8.45947
3.641	12.89062
3.6415	4.22974
3.642	6.94885
3.6425	1.40991
3.643	3.12195
3.6435	4.53186
3.644	0.70496
3.6445	7.25098
3.645	7.15027
3.6455	7.04956
3.646	1.61133
3.6465	5.43823
3.647	10.27222
3.6475	10.37292
3.648	6.04248
3.6485	4.63257
3.649	8.15735
3.6495	8.05664
3.65	7.15027
3.6505	10.0708
3.651	9.26514
3.6515	6.84814
3.652	10.87646
3.6525	6.84814
3.653	5.63965
3.6535	3.32336
3.654	9.16443
3.6545	3.42407
3.655	4.22974
3.6555	8.45947
3.656	3.62549
3.6565	6.44531
3.657	0.40283
3.6575	3.42407
3.658	1.2085
3.6585	4.73328
3.659	3.12195
3.6595	3.7262
3.66	1.00708
3.6605	4.22974
3.661	1.61133
3.6615	2.5177
3.662	-6.2439
3.6625	-1.51062
3.663	3.7262
3.6635	-4.02832
3.664	0.30212
3.6645	-1.2085
3.665	-1.61133
3.6655	-0.80566
3.666	0
3.6665	-6.94885
3.667	-0.50354
3.6675	-2.41699
3.668	-0.50354
3.6685	-0.10071
3.669	3.62549
3.6695	5.23682
3.67	-4.02832
3.6705	-1.91345
3.671	-0.30212
3.6715	0.80566
3.672	3.22266
3.6725	1.10779
3.673	-0.30212
3.6735	-0.80566
3.674	1.3092
3.6745	-1.10779
3.675	1.61133
3.6755	-2.41699
3.676	0.50354
3.6765	-0.90637
3.677	2.5177
3.6775	0.20142
3.678	-0.20142
3.6785	4.43115
3.679	-2.11487
3.6795	-2.11487
3.68	2.41699
3.6805	-3.42407
3.681	-3.22266
3.6815	-3.42407
3.682	-2.5177
3.6825	-10.77576
3.683	-8.45947
3.6835	-6.44531
3.684	-4.73328
3.6845	-6.3446
3.685	-6.04248
3.6855	-5.94177
3.686	-10.37292
3.6865	-10.0708
3.687	-12.38708
3.6875	-7.95593
3.688	-9.66797
3.6885	-12.78992
3.689	-10.0708
3.6895	-13.89771
3.69	-11.38
3.6905	-11.17859
3.691	-8.8623
3.6915	-6.84814
3.692	-9.76868
3.6925	-5.33752
3.693	-11.98425
3.6935	-10.0708
3.694	-11.98425
3.6945	-5.53894
3.695	-7.35168
3.6955	-4.22974
3.696	-1.3092
3.6965	-4.73328
3.697	-9.86938
3.6975	-5.0354
3.698	-5.43823
3.6985	-8.7616
3.699	-6.64673
3.6995	-4.33044
3.7	-8.56018
3.7005	-10.0708
3.701	-9.16443
3.7015	-9.46655
3.702	-9.76868
3.7025	-11.2793
3.703	-10.67505
3.7035	-6.2439
3.704	-3.32336
3.7045	-11.68213
3.705	-7.65381
3.7055	-9.66797
3.706	-13.29346
3.7065	-6.54602
3.707	-4.83398
3.7075	-11.38
3.708	-8.8623
3.7085	-8.15735
3.709	-6.04248
3.7095	-1.71204
3.71	-5.74036
3.7105	-4.93469
3.711	-5.13611
3.7115	-5.84106
3.712	-1.10779
3.7125	-4.43115
3.713	0.50354
3.7135	-0.90637
3.714	0.70496
3.7145	-1.3092
3.715	3.02124
3.7155	2.81982
3.716	-0.30212
3.7165	3.42407
3.717	0.70496
3.7175	-3.62549
3.718	-4.12903
3.7185	-1.91345
3.719	3.42407
3.7195	-0.90637
3.72	3.52478
3.7205	-0.80566
3.721	2.31628
3.7215	1.2085
3.722	0.90637
3.7225	-1.00708
3.723	-2.41699
3.7235	0
3.724	0.70496
3.7245	-4.02832
3.725	-6.3446
3.7255	-0.70496
3.726	-7.65381
3.7265	-1.2085
3.727	-3.22266
3.7275	-2.01416
3.728	-4.83398
3.7285	-7.45239
3.729	-4.83398
3.7295	-3.7262
3.73	-5.23682
3.7305	-4.43115
3.731	-4.02832
3.7315	-0.50354
3.732	-1.3092
3.7325	-3.8269
3.733	-1.3092
3.7335	1.10779
3.734	4.83398
3.7345	3.12195
3.735	3.02124
3.7355	3.92761
3.736	-0.20142
3.7365	0.80566
3.737	-5.13611
3.7375	-2.81982
3.738	-0.40283
3.7385	6.3446
3.739	-0.20142
3.7395	1.10779
3.74	1.71204
3.7405	-1.00708
3.741	0.90637
3.7415	6.04248
3.742	2.5177
3.7425	4.93469
3.743	6.04248
3.7435	5.53894
3.744	5.74036
3.7445	2.5177
3.745	4.83398
3.7455	0.20142
3.746	2.92053
3.7465	-2.11487
3.747	0
3.7475	3.62549
3.748	3.02124
3.7485	3.52478
3.749	-0.30212
3.7495	-2.21558
3.75	-2.01416
3.7505	-5.0354
3.751	-9.66797
3.7515	-5.33752
3.752	-5.94177
3.7525	-9.46655
3.753	-5.74036
3.7535	2.61841
3.754	-3.42407
3.7545	-4.02832
3.755	-6.2439
3.7555	-0.30212
3.756	-7.75452
3.7565	-8.25806
3.757	-5.33752
3.7575	-8.15735
3.758	-7.95593
3.7585	-3.42407
3.759	-6.54602
3.7595	-2.61841
3.76	-1.10779
3.7605	-2.21558
3.761	-0.90637
3.7615	-3.22266
3.762	-3.8269
3.7625	-0.70496
3.763	0.90637
3.7635	-4.93469
3.764	-2.71912
3.7645	-5.0354
3.765	-7.04956
3.7655	-3.62549
3.766	-1.91345
3.7665	-4.73328
3.767	-0.90637
3.7675	-0.30212
3.768	-2.21558
3.7685	-4.02832
3.769	1.3092
3.7695	0
3.77	2.5177
3.7705	1.51062
3.771	-1.40991
3.7715	3.12195
3.772	1.81274
3.7725	4.02832
3.773	2.01416
3.7735	-3.12195
3.774	1.2085
3.7745	-5.94177
3.775	5.63965
3.7755	0.10071
3.776	-0.90637
3.7765	-2.81982
3.777	-1.3092
3.7775	0.90637
3.778	-1.71204
3.7785	-2.31628
3.779	-2.01416
3.7795	-4.93469
3.78	-3.22266
3.7805	-3.22266
3.781	-6.04248
3.7815	-5.84106
3.782	-2.92053
3.7825	-9.97009
3.783	-4.33044
3.7835	-2.71912
3.784	-1.10779
3.7845	-4.63257
3.785	-10.27222
3.7855	-9.86938
3.786	-1.51062
3.7865	-1.00708
3.787	-0.50354
3.7875	-10.87646
3.788	-5.33752
3.7885	-13.19275
3.789	-10.0708
3.7895	-8.8623
3.79	2.5177
3.7905	-4.43115
3.791	-3.52478
3.7915	-4.93469
3.792	-4.12903
3.7925	0.90637
3.793	0.90637
3.7935	-1.91345
3.794	-2.11487
3.7945	-5.33752
3.795	-4.43115
3.7955	-1.40991
3.796	-0.60425
3.7965	-2.81982
3.797	3.42407
3.7975	-6.04248
3.798	-3.02124
3.7985	-0.30212
3.799	-0.30212
3.7995	-0.30212
3.8	2.21558
3.8005	-9.06372
3.801	-8.05664
3.8015	-0.50354
3.802	-4.83398
3.8025	-8.35876
3.803	-7.65381
3.8035	-10.27222
3.804	-7.15027
3.8045	-11.2793
3.805	-9.76868
3.8055	-12.08496
3.806	-9.06372
3.8065	-8.05664
3.807	-8.96301
3.8075	-9.86938
3.808	-6.44531
3.8085	-7.35168
3.809	-7.04956
3.8095	-8.8623
3.81	-9.06372
3.8105	-7.75452
3.811	-3.92761
3.8115	-3.52478
3.812	-6.2439
3.8125	-7.25098
3.813	0.50354
3.8135	-4.12903
3.814	-7.15027
3.8145	-7.25098
3.815	-5.53894
3.8155	-2.81982
3.816	-3.92761
3.8165	-2.5177
3.817	-3.12195
3.8175	-6.3446
3.818	-2.41699
3.8185	0.40283
3.819	4.73328
3.8195	-3.42407
3.82	-5.13611
3.8205	-1.00708
3.821	-2.11487
3.8215	2.21558
3.822	1.51062
3.8225	2.41699
3.823	-4.02832
3.8235	-4.22974
3.824	-0.70496
3.8245	-1.40991
3.825	0.70496
3.8255	-0.30212
3.826	-2.92053
3.8265	-2.61841
3.827	-2.41699
3.8275	-8.15735
3.828	-5.63965
3.8285	-0.20142
3.829	3.52478
3.8295	-5.33752
3.83	-2.21558
3.8305	-2.5177
3.831	0.90637
3.8315	0.40283
3.832	-3.92761
3.8325	-2.11487
3.833	-8.35876
3.8335	-3.32336
3.834	-6.84814
3.8345	-0.50354
3.835	-6.04248
3.8355	-2.5177
3.836	-7.65381
3.8365	-9.36584
3.837	-7.75452
3.8375	-11.38
3.838	-8.66089
3.8385	-10.57434
3.839	-10.37292
3.8395	-15.40833
3.84	-17.82532
3.8405	-23.46497
3.841	-30.41382
3.8415	-38.06763
3.842	-41.89453
3.8425	-46.62781
3.843	-46.22498
3.8435	-45.41931
3.844	-40.78674
3.8445	-38.974
3.845	-31.62231
3.8455	-33.13293
3.846	-23.46497
3.8465	-19.03381
3.847	-16.01257
3.8475	-12.68921
3.848	-13.89771
3.8485	-9.97009
3.849	-1.81274
3.8495	1.40991
3.85	2.92053
3.8505	5.0354
3.851	5.84106
3.8515	7.04956
3.852	11.17859
3.8525	7.75452
3.853	9.36584
3.8535	11.2793
3.854	8.35876
3.8545	8.25806
3.855	11.78284
3.8555	5.23682
3.856	14.60266
3.8565	18.93311
3.857	15.20691
3.8575	20.04089
3.858	25.37842
3.8585	33.33435
3.859	34.54285
3.8595	22.55859
3.86	4.12903
3.8605	-13.69629
3.861	-29.60815
3.8615	-31.01807
3.862	-36.05347
3.8625	-18.32886
3.863	6.2439
3.8635	29.70886
3.864	40.48462
3.8645	41.79382
3.865	62.23755
3.8655	69.48853
3.866	54.58374
3.8665	37.96692
3.867	16.91895
3.8675	0.70496
3.868	-24.97559
3.8685	-49.64905
3.869	-52.67029
3.8695	-57.50427
3.87	-57.30286
3.8705	-49.44763
3.871	-43.70728
3.8715	-34.24072
3.872	-26.58691
3.8725	-16.61682
3.873	-6.54602
3.8735	2.92053
3.874	7.95593
3.8745	8.35876
3.875	20.1416
3.8755	18.53027
3.876	9.86938
3.8765	3.12195
3.877	13.59558
3.8775	5.63965
3.878	3.12195
3.8785	10.27222
3.879	11.88354
3.8795	14.30054
3.88	25.68054
3.8805	34.44214
3.881	38.47046
3.8815	35.2478
3.882	25.88196
3.8825	19.03381
3.883	22.35718
3.8835	7.04956
3.884	2.41699
3.8845	5.0354
3.885	-1.40991
3.8855	3.92761
3.886	9.76868
3.8865	13.29346
3.887	8.45947
3.8875	11.98425
3.888	15.71045
3.8885	21.14868
3.889	22.05505
3.8895	18.22815
3.89	13.39417
3.8905	13.09204
3.891	10.47363
3.8915	5.94177
3.892	7.75452
3.8925	7.65381
3.893	4.53186
3.8935	3.7262
3.894	7.5531
3.8945	7.85522
3.895	4.93469
3.8955	6.44531
3.896	-2.01416
3.8965	-1.61133
3.897	5.43823
3.8975	1.51062
3.898	-1.81274
3.8985	-7.04956
