Gabriele_Carluccio_Right_2.c3d  



Time(s):	B_L_bicipite(μV):
0	4.22974
0.0005	9.86938
0.001	13.49487
0.0015	15.20691
0.002	12.38708
0.0025	7.85522
0.003	9.06372
0.0035	10.97717
0.004	10.17151
0.0045	7.04956
0.005	4.63257
0.0055	4.53186
0.006	6.3446
0.0065	10.67505
0.007	7.75452
0.0075	8.05664
0.008	7.75452
0.0085	7.15027
0.009	9.46655
0.0095	11.48071
0.01	9.76868
0.0105	9.97009
0.011	10.77576
0.0115	12.68921
0.012	11.68213
0.0125	7.25098
0.013	5.13611
0.0135	7.45239
0.014	3.42407
0.0145	0.10071
0.015	9.26514
0.0155	9.97009
0.016	7.75452
0.0165	4.22974
0.017	6.74744
0.0175	6.94885
0.018	9.46655
0.0185	7.25098
0.019	10.97717
0.0195	7.15027
0.02	10.67505
0.0205	18.22815
0.021	7.95593
0.0215	14.40125
0.022	10.27222
0.0225	13.29346
0.023	12.78992
0.0235	12.78992
0.024	12.68921
0.0245	14.30054
0.025	12.18567
0.0255	8.56018
0.026	13.09204
0.0265	11.78284
0.027	11.58142
0.0275	8.25806
0.028	9.36584
0.0285	8.96301
0.029	10.0708
0.0295	7.75452
0.03	17.72461
0.0305	9.86938
0.031	9.97009
0.0315	10.87646
0.032	8.96301
0.0325	8.7616
0.033	5.63965
0.0335	9.76868
0.034	5.84106
0.0345	11.68213
0.035	7.15027
0.0355	7.15027
0.036	7.45239
0.0365	7.5531
0.037	7.04956
0.0375	7.5531
0.038	8.25806
0.0385	5.94177
0.039	6.14319
0.0395	7.5531
0.04	2.01416
0.0405	9.46655
0.041	5.43823
0.0415	8.45947
0.042	11.88354
0.0425	6.14319
0.043	11.17859
0.0435	11.48071
0.044	7.65381
0.0445	6.54602
0.045	8.05664
0.0455	4.53186
0.046	9.26514
0.0465	7.25098
0.047	3.02124
0.0475	7.35168
0.048	4.93469
0.0485	3.22266
0.049	0.80566
0.0495	5.43823
0.05	5.43823
0.0505	6.74744
0.051	0.80566
0.0515	1.91345
0.052	7.04956
0.0525	8.66089
0.053	1.3092
0.0535	7.65381
0.054	9.86938
0.0545	7.75452
0.055	3.02124
0.0555	2.21558
0.056	5.74036
0.0565	2.71912
0.057	1.71204
0.0575	6.14319
0.058	2.41699
0.0585	5.33752
0.059	9.66797
0.0595	8.66089
0.06	7.65381
0.0605	6.44531
0.061	7.65381
0.0615	-0.10071
0.062	6.14319
0.0625	4.63257
0.063	7.5531
0.0635	5.84106
0.064	11.17859
0.0645	6.64673
0.065	8.45947
0.0655	8.7616
0.066	5.0354
0.0665	2.5177
0.067	10.37292
0.0675	7.04956
0.068	10.27222
0.0685	12.78992
0.069	7.15027
0.0695	12.38708
0.07	6.84814
0.0705	10.67505
0.071	7.45239
0.0715	6.64673
0.072	6.64673
0.0725	8.96301
0.073	12.08496
0.0735	9.86938
0.074	11.17859
0.0745	9.16443
0.075	4.43115
0.0755	3.92761
0.076	4.02832
0.0765	6.64673
0.077	10.87646
0.0775	7.04956
0.078	7.45239
0.0785	7.04956
0.079	0.10071
0.0795	3.22266
0.08	8.35876
0.0805	5.23682
0.081	-1.10779
0.0815	3.62549
0.082	5.84106
0.0825	9.06372
0.083	4.73328
0.0835	3.12195
0.084	4.73328
0.0845	2.81982
0.085	7.04956
0.0855	2.92053
0.086	5.63965
0.0865	6.14319
0.087	9.16443
0.0875	6.3446
0.088	3.52478
0.0885	4.63257
0.089	10.0708
0.0895	6.54602
0.09	8.05664
0.0905	7.25098
0.091	4.02832
0.0915	3.02124
0.092	5.0354
0.0925	3.22266
0.093	4.33044
0.0935	2.81982
0.094	6.44531
0.0945	7.65381
0.095	6.3446
0.0955	6.14319
0.096	6.44531
0.0965	7.75452
0.097	6.74744
0.0975	9.86938
0.098	9.86938
0.0985	10.47363
0.099	12.99133
0.0995	4.12903
0.1	3.7262
0.1005	8.45947
0.101	11.38
0.1015	9.06372
0.102	4.12903
0.1025	8.66089
0.103	7.65381
0.1035	7.45239
0.104	10.67505
0.1045	11.88354
0.105	4.53186
0.1055	8.35876
0.106	10.37292
0.1065	8.15735
0.107	8.8623
0.1075	10.57434
0.108	9.66797
0.1085	11.88354
0.109	17.72461
0.1095	11.78284
0.11	14.19983
0.1105	8.96301
0.111	11.78284
0.1115	10.97717
0.112	11.78284
0.1125	8.66089
0.113	7.04956
0.1135	4.53186
0.114	3.02124
0.1145	2.81982
0.115	7.85522
0.1155	5.74036
0.116	3.92761
0.1165	1.81274
0.117	6.44531
0.1175	3.8269
0.118	9.36584
0.1185	11.68213
0.119	12.38708
0.1195	11.88354
0.12	3.62549
0.1205	7.45239
0.121	6.44531
0.1215	6.3446
0.122	6.64673
0.1225	5.0354
0.123	10.17151
0.1235	7.85522
0.124	1.91345
0.1245	1.51062
0.125	-5.23682
0.1255	-4.33044
0.126	-1.51062
0.1265	6.94885
0.127	1.2085
0.1275	-2.41699
0.128	-1.51062
0.1285	0.20142
0.129	4.22974
0.1295	6.74744
0.13	3.42407
0.1305	-2.21558
0.131	-0.60425
0.1315	2.5177
0.132	1.91345
0.1325	5.43823
0.133	1.2085
0.1335	-2.31628
0.134	-4.63257
0.1345	-1.2085
0.135	0.70496
0.1355	-0.30212
0.136	-0.10071
0.1365	-0.40283
0.137	5.63965
0.1375	0.60425
0.138	0.80566
0.1385	0.80566
0.139	-1.10779
0.1395	3.8269
0.14	-1.3092
0.1405	9.16443
0.141	3.52478
0.1415	3.22266
0.142	5.94177
0.1425	7.5531
0.143	10.77576
0.1435	12.08496
0.144	10.67505
0.1445	7.65381
0.145	6.04248
0.1455	2.81982
0.146	6.84814
0.1465	8.56018
0.147	10.87646
0.1475	11.78284
0.148	9.66797
0.1485	6.84814
0.149	3.92761
0.1495	4.02832
0.15	4.73328
0.1505	6.3446
0.151	8.7616
0.1515	7.35168
0.152	8.8623
0.1525	12.08496
0.153	7.65381
0.1535	6.14319
0.154	1.61133
0.1545	6.3446
0.155	5.43823
0.1555	0
0.156	1.51062
0.1565	0.80566
0.157	9.76868
0.1575	5.53894
0.158	0.30212
0.1585	3.8269
0.159	0.50354
0.1595	2.41699
0.16	8.25806
0.1605	4.93469
0.161	4.73328
0.1615	3.92761
0.162	11.17859
0.1625	6.94885
0.163	1.51062
0.1635	7.25098
0.164	4.02832
0.1645	5.33752
0.165	6.54602
0.1655	4.53186
0.166	8.96301
0.1665	6.2439
0.167	4.93469
0.1675	7.25098
0.168	3.92761
0.1685	7.25098
0.169	3.32336
0.1695	5.13611
0.17	7.25098
0.1705	1.10779
0.171	7.65381
0.1715	8.56018
0.172	10.0708
0.1725	3.42407
0.173	9.46655
0.1735	5.13611
0.174	12.89062
0.1745	7.95593
0.175	11.68213
0.1755	9.97009
0.176	11.88354
0.1765	6.84814
0.177	10.17151
0.1775	10.27222
0.178	9.97009
0.1785	8.66089
0.179	14.09912
0.1795	2.31628
0.18	0.90637
0.1805	6.64673
0.181	10.37292
0.1815	6.64673
0.182	15.81116
0.1825	13.797
0.183	13.69629
0.1835	8.56018
0.184	5.53894
0.1845	9.46655
0.185	10.27222
0.1855	12.99133
0.186	9.66797
0.1865	12.78992
0.187	6.84814
0.1875	7.75452
0.188	15.20691
0.1885	9.56726
0.189	9.46655
0.1895	8.7616
0.19	12.28638
0.1905	5.74036
0.191	4.93469
0.1915	8.45947
0.192	10.97717
0.1925	6.3446
0.193	5.33752
0.1935	1.40991
0.194	3.52478
0.1945	0.80566
0.195	8.25806
0.1955	6.94885
0.196	6.14319
0.1965	7.65381
0.197	6.2439
0.1975	2.71912
0.198	5.63965
0.1985	6.94885
0.199	6.14319
0.1995	5.84106
0.2	4.63257
0.2005	1.91345
0.201	-1.81274
0.2015	3.62549
0.202	7.25098
0.2025	8.05664
0.203	7.5531
0.2035	4.73328
0.204	3.8269
0.2045	4.22974
0.205	6.54602
0.2055	1.2085
0.206	5.84106
0.2065	1.2085
0.207	7.25098
0.2075	10.97717
0.208	10.37292
0.2085	7.85522
0.209	10.37292
0.2095	8.15735
0.21	11.68213
0.2105	7.5531
0.211	12.89062
0.2115	7.85522
0.212	10.67505
0.2125	10.67505
0.213	11.98425
0.2135	8.56018
0.214	9.06372
0.2145	5.23682
0.215	8.66089
0.2155	5.63965
0.216	11.58142
0.2165	7.85522
0.217	9.06372
0.2175	11.2793
0.218	4.93469
0.2185	7.75452
0.219	5.84106
0.2195	7.45239
0.22	7.5531
0.2205	9.76868
0.221	11.58142
0.2215	12.89062
0.222	7.04956
0.2225	7.5531
0.223	12.78992
0.2235	10.37292
0.224	9.36584
0.2245	8.56018
0.225	11.2793
0.2255	11.2793
0.226	10.0708
0.2265	5.33752
0.227	10.87646
0.2275	9.16443
0.228	11.58142
0.2285	5.74036
0.229	9.06372
0.2295	9.76868
0.23	6.14319
0.2305	3.52478
0.231	6.04248
0.2315	6.3446
0.232	3.8269
0.2325	7.04956
0.233	3.32336
0.2335	4.12903
0.234	5.13611
0.2345	8.25806
0.235	12.38708
0.2355	5.23682
0.236	10.67505
0.2365	8.05664
0.237	9.97009
0.2375	3.02124
0.238	2.61841
0.2385	5.94177
0.239	2.5177
0.2395	0
0.24	1.40991
0.2405	1.81274
0.241	-0.10071
0.2415	6.04248
0.242	7.75452
0.2425	5.74036
0.243	-0.20142
0.2435	-1.10779
0.244	2.61841
0.2445	2.31628
0.245	-2.5177
0.2455	-2.31628
0.246	-1.00708
0.2465	4.63257
0.247	0.90637
0.2475	0.70496
0.248	2.61841
0.2485	4.02832
0.249	6.54602
0.2495	7.5531
0.25	1.3092
0.2505	8.05664
0.251	6.44531
0.2515	7.35168
0.252	2.31628
0.2525	7.25098
0.253	6.54602
0.2535	7.45239
0.254	5.53894
0.2545	8.8623
0.255	3.52478
0.2555	6.04248
0.256	5.13611
0.2565	4.73328
0.257	8.66089
0.2575	10.57434
0.258	0.90637
0.2585	-0.30212
0.259	1.51062
0.2595	7.15027
0.26	5.84106
0.2605	0.50354
0.261	2.92053
0.2615	5.63965
0.262	7.15027
0.2625	1.2085
0.263	-0.70496
0.2635	1.51062
0.264	5.23682
0.2645	-2.41699
0.265	1.91345
0.2655	3.22266
0.266	1.71204
0.2665	1.71204
0.267	2.41699
0.2675	4.22974
0.268	3.8269
0.2685	7.04956
0.269	6.54602
0.2695	5.84106
0.27	3.12195
0.2705	3.22266
0.271	2.71912
0.2715	8.25806
0.272	6.64673
0.2725	6.2439
0.273	8.15735
0.2735	3.52478
0.274	5.84106
0.2745	-0.50354
0.275	3.12195
0.2755	5.13611
0.276	8.8623
0.2765	4.93469
0.277	2.11487
0.2775	8.45947
0.278	0.70496
0.2785	8.8623
0.279	6.94885
0.2795	7.95593
0.28	4.93469
0.2805	3.02124
0.281	0.80566
0.2815	6.94885
0.282	12.38708
0.2825	7.65381
0.283	7.35168
0.2835	11.38
0.284	8.8623
0.2845	5.43823
0.285	10.47363
0.2855	5.13611
0.286	5.13611
0.2865	7.45239
0.287	3.32336
0.2875	4.33044
0.288	4.43115
0.2885	1.81274
0.289	2.61841
0.2895	5.23682
0.29	6.14319
0.2905	7.65381
0.291	3.52478
0.2915	5.94177
0.292	5.23682
0.2925	9.76868
0.293	6.94885
0.2935	5.43823
0.294	3.32336
0.2945	9.06372
0.295	2.5177
0.2955	2.01416
0.296	5.13611
0.2965	5.53894
0.297	8.8623
0.2975	6.44531
0.298	6.64673
0.2985	5.0354
0.299	4.73328
0.2995	2.71912
0.3	7.25098
0.3005	0.80566
0.301	1.3092
0.3015	-1.61133
0.302	3.32336
0.3025	3.12195
0.303	7.04956
0.3035	9.26514
0.304	7.45239
0.3045	11.98425
0.305	9.26514
0.3055	7.85522
0.306	4.12903
0.3065	4.83398
0.307	4.93469
0.3075	6.14319
0.308	9.46655
0.3085	12.38708
0.309	8.15735
0.3095	5.53894
0.31	4.73328
0.3105	3.62549
0.311	-2.01416
0.3115	-0.20142
0.312	-0.10071
0.3125	4.63257
0.313	8.56018
0.3135	7.25098
0.314	3.32336
0.3145	2.71912
0.315	8.35876
0.3155	1.61133
0.316	2.21558
0.3165	10.27222
0.317	5.33752
0.3175	0.20142
0.318	3.8269
0.3185	8.56018
0.319	4.33044
0.3195	5.84106
0.32	8.15735
0.3205	8.25806
0.321	5.13611
0.3215	0.60425
0.322	-0.40283
0.3225	1.51062
0.323	5.23682
0.3235	3.12195
0.324	8.8623
0.3245	7.75452
0.325	2.01416
0.3255	1.71204
0.326	5.74036
0.3265	6.64673
0.327	5.74036
0.3275	1.51062
0.328	6.44531
0.3285	6.74744
0.329	6.84814
0.3295	9.86938
0.33	7.95593
0.3305	7.15027
0.331	8.45947
0.3315	6.84814
0.332	4.33044
0.3325	7.15027
0.333	3.22266
0.3335	3.12195
0.334	7.15027
0.3345	8.15735
0.335	6.64673
0.3355	4.93469
0.336	5.94177
0.3365	5.13611
0.337	5.63965
0.3375	1.71204
0.338	12.48779
0.3385	6.54602
0.339	8.25806
0.3395	6.74744
0.34	5.84106
0.3405	7.95593
0.341	8.05664
0.3415	7.5531
0.342	3.02124
0.3425	5.84106
0.343	5.0354
0.3435	7.35168
0.344	6.04248
0.3445	9.36584
0.345	4.83398
0.3455	10.87646
0.346	2.81982
0.3465	8.45947
0.347	6.14319
0.3475	4.53186
0.348	7.15027
0.3485	4.73328
0.349	3.7262
0.3495	5.13611
0.35	4.93469
0.3505	7.45239
0.351	11.88354
0.3515	1.61133
0.352	3.32336
0.3525	0.70496
0.353	7.95593
0.3535	-1.40991
0.354	-0.40283
0.3545	3.62549
0.355	8.25806
0.3555	1.00708
0.356	6.94885
0.3565	2.41699
0.357	-0.90637
0.3575	4.02832
0.358	4.73328
0.3585	7.04956
0.359	1.40991
0.3595	4.02832
0.36	9.16443
0.3605	7.75452
0.361	8.7616
0.3615	8.05664
0.362	6.74744
0.3625	5.94177
0.363	5.33752
0.3635	4.73328
0.364	4.63257
0.3645	3.12195
0.365	3.22266
0.3655	1.10779
0.366	0.90637
0.3665	2.01416
0.367	3.42407
0.3675	7.95593
0.368	4.63257
0.3685	5.94177
0.369	6.04248
0.3695	2.61841
0.37	4.43115
0.3705	8.8623
0.371	9.26514
0.3715	7.75452
0.372	8.25806
0.3725	5.33752
0.373	4.63257
0.3735	4.93469
0.374	3.7262
0.3745	4.43115
0.375	4.83398
0.3755	9.86938
0.376	5.53894
0.3765	6.84814
0.377	9.06372
0.3775	10.77576
0.378	7.45239
0.3785	6.84814
0.379	4.83398
0.3795	8.35876
0.38	8.45947
0.3805	11.17859
0.381	7.65381
0.3815	7.25098
0.382	6.3446
0.3825	8.35876
0.383	6.3446
0.3835	2.21558
0.384	3.32336
0.3845	5.33752
0.385	12.48779
0.3855	7.95593
0.386	8.15735
0.3865	6.74744
0.387	4.22974
0.3875	4.73328
0.388	8.8623
0.3885	9.46655
0.389	3.32336
0.3895	4.43115
0.39	7.15027
0.3905	6.64673
0.391	7.95593
0.3915	5.63965
0.392	3.52478
0.3925	0.90637
0.393	2.5177
0.3935	3.32336
0.394	2.92053
0.3945	8.05664
0.395	5.63965
0.3955	1.91345
0.396	2.71912
0.3965	-1.51062
0.397	-0.40283
0.3975	2.61841
0.398	7.25098
0.3985	5.53894
0.399	6.74744
0.3995	7.5531
0.4	7.85522
0.4005	9.06372
0.401	5.53894
0.4015	7.75452
0.402	8.8623
0.4025	7.75452
0.403	5.63965
0.4035	4.73328
0.404	4.63257
0.4045	1.3092
0.405	0.80566
0.4055	4.53186
0.406	12.38708
0.4065	12.18567
0.407	6.74744
0.4075	8.05664
0.408	5.43823
0.4085	4.12903
0.409	3.8269
0.4095	6.74744
0.41	4.43115
0.4105	1.81274
0.411	5.0354
0.4115	6.14319
0.412	4.43115
0.4125	9.56726
0.413	-0.60425
0.4135	1.10779
0.414	-3.32336
0.4145	4.02832
0.415	0.90637
0.4155	4.53186
0.416	5.33752
0.4165	4.63257
0.417	2.61841
0.4175	5.33752
0.418	3.62549
0.4185	2.92053
0.419	8.15735
0.4195	9.16443
0.42	0.80566
0.4205	4.53186
0.421	3.92761
0.4215	12.28638
0.422	3.62549
0.4225	4.53186
0.423	0.70496
0.4235	4.63257
0.424	1.71204
0.4245	7.35168
0.425	4.63257
0.4255	2.01416
0.426	2.11487
0.4265	0.80566
0.427	2.5177
0.4275	8.7616
0.428	7.85522
0.4285	10.47363
0.429	3.22266
0.4295	6.2439
0.43	10.37292
0.4305	2.81982
0.431	-0.30212
0.4315	-0.40283
0.432	2.61841
0.4325	5.0354
0.433	8.15735
0.4335	5.23682
0.434	8.45947
0.4345	6.54602
0.435	6.84814
0.4355	10.77576
0.436	6.2439
0.4365	8.8623
0.437	8.8623
0.4375	11.98425
0.438	9.26514
0.4385	10.97717
0.439	6.84814
0.4395	7.95593
0.44	3.52478
0.4405	2.21558
0.441	7.65381
0.4415	7.35168
0.442	11.98425
0.4425	11.98425
0.443	7.45239
0.4435	8.66089
0.444	10.87646
0.4445	8.7616
0.445	7.25098
0.4455	3.02124
0.446	9.56726
0.4465	8.96301
0.447	4.63257
0.4475	8.35876
0.448	10.77576
0.4485	6.54602
0.449	8.96301
0.4495	15.1062
0.45	9.06372
0.4505	7.95593
0.451	12.99133
0.4515	15.40833
0.452	11.98425
0.4525	4.43115
0.453	3.22266
0.4535	9.46655
0.454	4.63257
0.4545	11.88354
0.455	1.3092
0.4555	3.92761
0.456	8.66089
0.4565	7.5531
0.457	5.13611
0.4575	5.74036
0.458	5.13611
0.4585	6.2439
0.459	6.2439
0.4595	8.45947
0.46	5.84106
0.4605	4.83398
0.461	6.44531
0.4615	3.92761
0.462	6.2439
0.4625	-1.40991
0.463	1.2085
0.4635	-1.2085
0.464	4.63257
0.4645	4.12903
0.465	0.60425
0.4655	-1.51062
0.466	-1.40991
0.4665	2.21558
0.467	5.13611
0.4675	3.22266
0.468	3.22266
0.4685	3.02124
0.469	-1.71204
0.4695	1.91345
0.47	5.23682
0.4705	7.25098
0.471	12.68921
0.4715	8.8623
0.472	6.74744
0.4725	7.95593
0.473	9.86938
0.4735	12.38708
0.474	10.87646
0.4745	5.84106
0.475	9.26514
0.4755	7.65381
0.476	8.15735
0.4765	10.27222
0.477	10.87646
0.4775	3.22266
0.478	10.0708
0.4785	5.84106
0.479	5.53894
0.4795	2.81982
0.48	5.63965
0.4805	1.91345
0.481	3.7262
0.4815	5.43823
0.482	4.33044
0.4825	5.84106
0.483	4.73328
0.4835	5.0354
0.484	4.02832
0.4845	3.8269
0.485	3.7262
0.4855	3.52478
0.486	-1.2085
0.4865	5.53894
0.487	1.51062
0.4875	3.7262
0.488	3.52478
0.4885	-0.20142
0.489	6.84814
0.4895	2.71912
0.49	3.52478
0.4905	5.0354
0.491	4.43115
0.4915	1.71204
0.492	1.00708
0.4925	-1.71204
0.493	7.65381
0.4935	2.21558
0.494	1.91345
0.4945	5.53894
0.495	7.45239
0.4955	6.74744
0.496	3.22266
0.4965	1.3092
0.497	4.93469
0.4975	4.33044
0.498	8.45947
0.4985	11.88354
0.499	3.92761
0.4995	2.21558
0.5	4.73328
0.5005	5.23682
0.501	7.35168
0.5015	1.81274
0.502	6.84814
0.5025	8.15735
0.503	1.61133
0.5035	3.7262
0.504	11.2793
0.5045	3.12195
0.505	1.2085
0.5055	7.35168
0.506	2.81982
0.5065	-3.92761
0.507	4.12903
0.5075	3.62549
0.508	5.74036
0.5085	1.10779
0.509	4.12903
0.5095	3.42407
0.51	3.02124
0.5105	5.74036
0.511	0.10071
0.5115	-1.91345
0.512	3.7262
0.5125	5.53894
0.513	4.02832
0.5135	3.42407
0.514	2.92053
0.5145	-0.50354
0.515	0
0.5155	0.70496
0.516	0.30212
0.5165	3.62549
0.517	-1.61133
0.5175	-3.92761
0.518	-0.70496
0.5185	3.8269
0.519	4.12903
0.5195	6.94885
0.52	4.43115
0.5205	2.81982
0.521	-0.70496
0.5215	-0.30212
0.522	4.12903
0.5225	4.93469
0.523	9.97009
0.5235	3.92761
0.524	5.94177
0.5245	1.61133
0.525	5.13611
0.5255	0.20142
0.526	1.40991
0.5265	5.23682
0.527	9.36584
0.5275	6.2439
0.528	7.5531
0.5285	5.33752
0.529	7.65381
0.5295	4.73328
0.53	8.7616
0.5305	2.31628
0.531	2.81982
0.5315	0.30212
0.532	5.84106
0.5325	4.73328
0.533	3.92761
0.5335	6.2439
0.534	4.63257
0.5345	2.61841
0.535	-4.83398
0.5355	0.20142
0.536	5.13611
0.5365	4.73328
0.537	3.92761
0.5375	-0.10071
0.538	-1.10779
0.5385	0.50354
0.539	7.04956
0.5395	3.92761
0.54	-0.40283
0.5405	0.30212
0.541	3.7262
0.5415	6.14319
0.542	1.3092
0.5425	2.61841
0.543	6.74744
0.5435	3.8269
0.544	9.16443
0.5445	10.57434
0.545	5.13611
0.5455	9.97009
0.546	12.78992
0.5465	10.0708
0.547	12.18567
0.5475	9.16443
0.548	7.5531
0.5485	13.29346
0.549	4.33044
0.5495	13.39417
0.55	11.58142
0.5505	8.8623
0.551	8.7616
0.5515	9.56726
0.552	10.27222
0.5525	16.61682
0.553	10.47363
0.5535	12.48779
0.554	9.26514
0.5545	2.71912
0.555	4.33044
0.5555	3.12195
0.556	8.25806
0.5565	4.63257
0.557	2.71912
0.5575	4.43115
0.558	4.63257
0.5585	6.84814
0.559	10.27222
0.5595	6.54602
0.56	5.43823
0.5605	9.76868
0.561	12.28638
0.5615	9.76868
0.562	10.0708
0.5625	4.22974
0.563	7.15027
0.5635	5.33752
0.564	7.15027
0.5645	10.47363
0.565	11.58142
0.5655	13.797
0.566	8.35876
0.5665	7.95593
0.567	6.64673
0.5675	5.53894
0.568	6.14319
0.5685	3.7262
0.569	7.75452
0.5695	3.22266
0.57	4.02832
0.5705	2.81982
0.571	-5.94177
0.5715	-3.12195
0.572	4.33044
0.5725	5.33752
0.573	1.2085
0.5735	-0.70496
0.574	-2.31628
0.5745	-0.40283
0.575	0
0.5755	-0.80566
0.576	0.20142
0.5765	-1.61133
0.577	-2.61841
0.5775	-2.81982
0.578	2.71912
0.5785	5.84106
0.579	4.02832
0.5795	4.83398
0.58	6.74744
0.5805	5.33752
0.581	-6.3446
0.5815	5.74036
0.582	2.01416
0.5825	0.10071
0.583	3.42407
0.5835	5.53894
0.584	4.12903
0.5845	5.74036
0.585	3.52478
0.5855	6.84814
0.586	9.86938
0.5865	3.32336
0.587	-0.20142
0.5875	2.81982
0.588	5.63965
0.5885	4.33044
0.589	3.22266
0.5895	2.01416
0.59	6.44531
0.5905	-0.70496
0.591	3.92761
0.5915	5.33752
0.592	0
0.5925	5.84106
0.593	6.64673
0.5935	7.5531
0.594	2.11487
0.5945	8.15735
0.595	8.45947
0.5955	7.45239
0.596	8.56018
0.5965	4.73328
0.597	8.7616
0.5975	5.74036
0.598	11.68213
0.5985	13.19275
0.599	7.15027
0.5995	8.45947
0.6	7.65381
0.6005	6.3446
0.601	11.48071
0.6015	4.73328
0.602	8.56018
0.6025	5.63965
0.603	5.63965
0.6035	9.46655
0.604	5.74036
0.6045	3.32336
0.605	2.81982
0.6055	6.64673
0.606	6.14319
0.6065	3.8269
0.607	-0.60425
0.6075	6.04248
0.608	7.5531
0.6085	3.02124
0.609	8.7616
0.6095	7.5531
0.61	5.33752
0.6105	7.45239
0.611	7.25098
0.6115	12.18567
0.612	9.56726
0.6125	6.04248
0.613	7.75452
0.6135	12.08496
0.614	9.56726
0.6145	11.2793
0.615	10.0708
0.6155	11.38
0.616	15.50903
0.6165	7.35168
0.617	11.78284
0.6175	9.36584
0.618	5.74036
0.6185	4.63257
0.619	2.11487
0.6195	-1.2085
0.62	1.3092
0.6205	1.3092
0.621	3.92761
0.6215	3.8269
0.622	6.2439
0.6225	1.51062
0.623	5.23682
0.6235	4.33044
0.624	6.14319
0.6245	4.22974
0.625	6.94885
0.6255	4.53186
0.626	1.71204
0.6265	5.74036
0.627	4.83398
0.6275	8.05664
0.628	10.17151
0.6285	6.2439
0.629	8.05664
0.6295	9.56726
0.63	10.17151
0.6305	8.15735
0.631	9.97009
0.6315	10.77576
0.632	10.47363
0.6325	9.56726
0.633	6.64673
0.6335	10.17151
0.634	-0.60425
0.6345	4.22974
0.635	6.64673
0.6355	5.23682
0.636	9.76868
0.6365	9.46655
0.637	6.2439
0.6375	13.89771
0.638	7.45239
0.6385	12.89062
0.639	6.94885
0.6395	3.52478
0.64	7.04956
0.6405	4.22974
0.641	6.2439
0.6415	7.5531
0.642	8.7616
0.6425	8.7616
0.643	9.66797
0.6435	4.73328
0.644	10.87646
0.6445	5.23682
0.645	5.53894
0.6455	8.05664
0.646	8.56018
0.6465	8.05664
0.647	5.0354
0.6475	9.56726
0.648	6.64673
0.6485	6.44531
0.649	5.84106
0.6495	4.33044
0.65	3.12195
0.6505	3.8269
0.651	5.13611
0.6515	7.04956
0.652	13.39417
0.6525	12.68921
0.653	10.0708
0.6535	6.3446
0.654	6.84814
0.6545	-1.10779
0.655	3.52478
0.6555	-2.01416
0.656	-3.8269
0.6565	1.3092
0.657	5.63965
0.6575	4.12903
0.658	6.94885
0.6585	4.83398
0.659	6.44531
0.6595	2.92053
0.66	6.74744
0.6605	7.95593
0.661	5.84106
0.6615	3.12195
0.662	7.35168
0.6625	10.77576
0.663	6.74744
0.6635	7.5531
0.664	4.22974
0.6645	3.02124
0.665	1.40991
0.6655	4.43115
0.666	0.20142
0.6665	4.02832
0.667	7.15027
0.6675	4.33044
0.668	5.63965
0.6685	9.46655
0.669	10.47363
0.6695	10.87646
0.67	6.44531
0.6705	6.54602
0.671	3.62549
0.6715	7.15027
0.672	9.06372
0.6725	7.35168
0.673	0.10071
0.6735	4.33044
0.674	3.7262
0.6745	9.97009
0.675	8.15735
0.6755	7.65381
0.676	6.04248
0.6765	6.54602
0.677	3.22266
0.6775	3.62549
0.678	0.50354
0.6785	2.21558
0.679	3.7262
0.6795	3.32336
0.68	8.7616
0.6805	9.66797
0.681	2.31628
0.6815	4.02832
0.682	3.8269
0.6825	-0.70496
0.683	0.70496
0.6835	7.5531
0.684	5.0354
0.6845	2.61841
0.685	7.04956
0.6855	3.62549
0.686	9.56726
0.6865	3.42407
0.687	10.47363
0.6875	12.99133
0.688	1.81274
0.6885	7.45239
0.689	5.33752
0.6895	0.80566
0.69	2.31628
0.6905	3.92761
0.691	7.04956
0.6915	6.54602
0.692	4.63257
0.6925	5.43823
0.693	6.14319
0.6935	11.98425
0.694	7.75452
0.6945	1.40991
0.695	3.7262
0.6955	2.01416
0.696	6.54602
0.6965	0.50354
0.697	-1.71204
0.6975	3.42407
0.698	9.26514
0.6985	7.45239
0.699	6.64673
0.6995	8.96301
0.7	8.56018
0.7005	7.35168
0.701	6.64673
0.7015	3.62549
0.702	6.64673
0.7025	4.02832
0.703	5.53894
0.7035	2.21558
0.704	8.96301
0.7045	2.31628
0.705	1.71204
0.7055	10.0708
0.706	11.58142
0.7065	9.97009
0.707	9.56726
0.7075	6.3446
0.708	11.78284
0.7085	10.17151
0.709	12.38708
0.7095	3.62549
0.71	0.40283
0.7105	1.71204
0.711	6.2439
0.7115	5.0354
0.712	6.2439
0.7125	1.3092
0.713	7.15027
0.7135	5.53894
0.714	2.92053
0.7145	1.40991
0.715	0.80566
0.7155	7.85522
0.716	5.63965
0.7165	2.21558
0.717	1.91345
0.7175	1.71204
0.718	4.83398
0.7185	3.22266
0.719	7.15027
0.7195	3.8269
0.72	3.02124
0.7205	8.35876
0.721	8.45947
0.7215	6.14319
0.722	8.66089
0.7225	7.5531
0.723	10.77576
0.7235	6.74744
0.724	3.42407
0.7245	6.04248
0.725	11.58142
0.7255	4.93469
0.726	8.05664
0.7265	10.77576
0.727	7.95593
0.7275	8.56018
0.728	8.25806
0.7285	6.74744
0.729	8.25806
0.7295	8.56018
0.73	4.83398
0.7305	15.71045
0.731	5.13611
0.7315	18.53027
0.732	10.77576
0.7325	9.16443
0.733	8.96301
0.7335	12.68921
0.734	11.88354
0.7345	16.3147
0.735	9.76868
0.7355	10.37292
0.736	5.53894
0.7365	6.04248
0.737	3.12195
0.7375	3.62549
0.738	9.66797
0.7385	7.04956
0.739	7.15027
0.7395	8.05664
0.74	9.56726
0.7405	5.23682
0.741	2.5177
0.7415	1.10779
0.742	4.53186
0.7425	-0.10071
0.743	-2.92053
0.7435	-1.10779
0.744	2.71912
0.7445	2.81982
0.745	-0.70496
0.7455	1.40991
0.746	2.61841
0.7465	1.71204
0.747	4.83398
0.7475	2.92053
0.748	4.93469
0.7485	3.32336
0.749	8.45947
0.7495	7.15027
0.75	7.25098
0.7505	9.06372
0.751	9.76868
0.7515	2.21558
0.752	6.64673
0.7525	9.46655
0.753	9.36584
0.7535	5.63965
0.754	8.66089
0.7545	7.45239
0.755	5.33752
0.7555	3.62549
0.756	4.83398
0.7565	7.15027
0.757	3.52478
0.7575	8.66089
0.758	5.13611
0.7585	7.45239
0.759	4.53186
0.7595	5.94177
0.76	6.14319
0.7605	2.92053
0.761	-2.01416
0.7615	1.51062
0.762	3.12195
0.7625	6.2439
0.763	2.11487
0.7635	-2.71912
0.764	2.01416
0.7645	6.94885
0.765	7.75452
0.7655	10.47363
0.766	14.30054
0.7665	10.47363
0.767	3.92761
0.7675	7.15027
0.768	9.86938
0.7685	9.76868
0.769	8.45947
0.7695	6.04248
0.77	7.25098
0.7705	8.7616
0.771	8.8623
0.7715	7.5531
0.772	11.58142
0.7725	10.67505
0.773	10.67505
0.7735	6.2439
0.774	4.12903
0.7745	5.74036
0.775	7.45239
0.7755	7.04956
0.776	9.16443
0.7765	5.33752
0.777	8.25806
0.7775	10.97717
0.778	-0.40283
0.7785	5.74036
0.779	5.53894
0.7795	3.22266
0.78	3.8269
0.7805	4.83398
0.781	3.62549
0.7815	3.7262
0.782	5.74036
0.7825	1.2085
0.783	6.3446
0.7835	8.05664
0.784	5.53894
0.7845	6.54602
0.785	8.66089
0.7855	4.43115
0.786	8.35876
0.7865	3.62549
0.787	10.27222
0.7875	6.54602
0.788	6.74744
0.7885	6.84814
0.789	12.38708
0.7895	5.23682
0.79	9.56726
0.7905	5.63965
0.791	6.54602
0.7915	8.96301
0.792	9.26514
0.7925	5.23682
0.793	5.53894
0.7935	3.52478
0.794	1.10779
0.7945	9.56726
0.795	7.5531
0.7955	7.65381
0.796	2.5177
0.7965	3.62549
0.797	6.2439
0.7975	3.32336
0.798	1.61133
0.7985	-0.40283
0.799	6.14319
0.7995	5.43823
0.8	2.31628
0.8005	8.7616
0.801	7.04956
0.8015	8.96301
0.802	6.2439
0.8025	4.53186
0.803	7.85522
0.8035	6.54602
0.804	2.41699
0.8045	8.25806
0.805	10.87646
0.8055	10.0708
0.806	9.26514
0.8065	7.75452
0.807	15.50903
0.8075	10.67505
0.808	9.56726
0.8085	8.7616
0.809	10.87646
0.8095	12.68921
0.81	10.0708
0.8105	7.65381
0.811	10.47363
0.8115	5.94177
0.812	6.84814
0.8125	6.44531
0.813	8.66089
0.8135	6.64673
0.814	7.15027
0.8145	2.01416
0.815	5.13611
0.8155	4.73328
0.816	5.63965
0.8165	10.47363
0.817	10.97717
0.8175	5.94177
0.818	5.23682
0.8185	2.5177
0.819	3.7262
0.8195	5.23682
0.82	10.0708
0.8205	9.56726
0.821	4.83398
0.8215	8.35876
0.822	0.80566
0.8225	4.22974
0.823	4.22974
0.8235	1.40991
0.824	7.95593
0.8245	4.22974
0.825	2.11487
0.8255	0.20142
0.826	0.10071
0.8265	4.93469
0.827	13.29346
0.8275	8.7616
0.828	2.61841
0.8285	0.60425
0.829	5.43823
0.8295	4.73328
0.83	3.7262
0.8305	5.74036
0.831	3.62549
0.8315	6.64673
0.832	2.71912
0.8325	4.83398
0.833	1.2085
0.8335	0.20142
0.834	3.52478
0.8345	4.22974
0.835	5.43823
0.8355	-0.30212
0.836	6.44531
0.8365	6.84814
0.837	2.71912
0.8375	7.25098
0.838	2.41699
0.8385	9.16443
0.839	8.8623
0.8395	7.15027
0.84	3.32336
0.8405	3.02124
0.841	8.15735
0.8415	1.00708
0.842	6.3446
0.8425	3.32336
0.843	2.31628
0.8435	4.02832
0.844	11.2793
0.8445	5.63965
0.845	7.75452
0.8455	4.83398
0.846	3.92761
0.8465	8.96301
0.847	6.54602
0.8475	9.56726
0.848	4.12903
0.8485	6.54602
0.849	1.3092
0.8495	3.92761
0.85	5.63965
0.8505	2.61841
0.851	-2.31628
0.8515	1.81274
0.852	3.32336
0.8525	7.25098
0.853	2.71912
0.8535	0.40283
0.854	-5.94177
0.8545	-6.84814
0.855	-5.63965
0.8555	-3.7262
0.856	-0.60425
0.8565	-2.81982
0.857	1.3092
0.8575	1.10779
0.858	5.13611
0.8585	-2.5177
0.859	0
0.8595	5.13611
0.86	0.60425
0.8605	2.71912
0.861	-0.60425
0.8615	1.3092
0.862	-2.21558
0.8625	-3.62549
0.863	2.21558
0.8635	1.2085
0.864	2.71912
0.8645	1.51062
0.865	4.33044
0.8655	1.71204
0.866	-0.20142
0.8665	6.74744
0.867	3.32336
0.8675	-0.40283
0.868	1.71204
0.8685	0.30212
0.869	2.01416
0.8695	3.02124
0.87	0.60425
0.8705	3.92761
0.871	-1.2085
0.8715	1.40991
0.872	3.02124
0.8725	4.33044
0.873	3.52478
0.8735	3.22266
0.874	3.32336
0.8745	0.70496
0.875	9.26514
0.8755	-0.80566
0.876	-1.51062
0.8765	2.92053
0.877	5.13611
0.8775	2.81982
0.878	4.02832
0.8785	5.94177
0.879	7.04956
0.8795	4.22974
0.88	2.71912
0.8805	4.63257
0.881	4.02832
0.8815	-2.61841
0.882	4.22974
0.8825	-0.20142
0.883	3.32336
0.8835	6.3446
0.884	2.61841
0.8845	2.11487
0.885	-0.80566
0.8855	1.71204
0.886	-0.90637
0.8865	-1.40991
0.887	0
0.8875	3.7262
0.888	-1.3092
0.8885	5.84106
0.889	8.05664
0.8895	5.84106
0.89	2.92053
0.8905	2.81982
0.891	1.2085
0.8915	4.22974
0.892	1.00708
0.8925	4.63257
0.893	5.33752
0.8935	2.81982
0.894	2.31628
0.8945	7.35168
0.895	8.8623
0.8955	11.2793
0.896	4.53186
0.8965	3.22266
0.897	2.21558
0.8975	2.41699
0.898	3.62549
0.8985	6.04248
0.899	3.22266
0.8995	4.33044
0.9	2.41699
0.9005	3.42407
0.901	4.63257
0.9015	-1.81274
0.902	3.32336
0.9025	2.92053
0.903	2.41699
0.9035	2.81982
0.904	2.92053
0.9045	4.43115
0.905	4.43115
0.9055	-2.5177
0.906	1.40991
0.9065	1.10779
0.907	2.81982
0.9075	5.0354
0.908	0.80566
0.9085	2.61841
0.909	2.81982
0.9095	3.52478
0.91	3.02124
0.9105	0.60425
0.911	6.44531
0.9115	1.81274
0.912	2.41699
0.9125	0.60425
0.913	5.23682
0.9135	0.80566
0.914	3.7262
0.9145	-1.00708
0.915	-0.30212
0.9155	4.43115
0.916	0.10071
0.9165	0.10071
0.917	0.80566
0.9175	0.80566
0.918	-3.42407
0.9185	1.00708
0.919	5.74036
0.9195	7.25098
0.92	5.94177
0.9205	9.66797
0.921	12.89062
0.9215	8.96301
0.922	11.78284
0.9225	3.02124
0.923	8.96301
0.9235	9.66797
0.924	12.89062
0.9245	8.15735
0.925	8.66089
0.9255	9.76868
0.926	5.33752
0.9265	8.35876
0.927	10.37292
0.9275	8.7616
0.928	7.35168
0.9285	5.13611
0.929	10.27222
0.9295	10.0708
0.93	11.78284
0.9305	14.40125
0.931	6.54602
0.9315	8.45947
0.932	6.54602
0.9325	5.94177
0.933	5.63965
0.9335	6.3446
0.934	9.26514
0.9345	11.17859
0.935	8.25806
0.9355	6.04248
0.936	5.43823
0.9365	4.02832
0.937	4.22974
0.9375	5.63965
0.938	4.93469
0.9385	3.02124
0.939	3.32336
0.9395	5.0354
0.94	4.73328
0.9405	4.93469
0.941	6.3446
0.9415	7.85522
0.942	6.54602
0.9425	6.04248
0.943	7.75452
0.9435	7.85522
0.944	8.66089
0.9445	6.64673
0.945	5.63965
0.9455	7.04956
0.946	7.45239
0.9465	9.26514
0.947	9.46655
0.9475	11.88354
0.948	11.98425
0.9485	7.15027
0.949	2.21558
0.9495	5.0354
0.95	6.84814
0.9505	8.56018
0.951	5.94177
0.9515	0.70496
0.952	4.93469
0.9525	6.04248
0.953	3.7262
0.9535	7.85522
0.954	6.94885
0.9545	6.2439
0.955	5.0354
0.9555	2.21558
0.956	7.15027
0.9565	5.84106
0.957	7.45239
0.9575	2.71912
0.958	6.94885
0.9585	7.25098
0.959	7.45239
0.9595	7.65381
0.96	9.66797
0.9605	2.81982
0.961	5.23682
0.9615	7.35168
0.962	6.54602
0.9625	7.15027
0.963	3.52478
0.9635	2.21558
0.964	5.63965
0.9645	7.75452
0.965	4.02832
0.9655	7.45239
0.966	7.5531
0.9665	4.83398
0.967	8.45947
0.9675	2.01416
0.968	3.92761
0.9685	4.43115
0.969	6.04248
0.9695	4.83398
0.97	6.64673
0.9705	6.04248
0.971	2.41699
0.9715	-0.60425
0.972	7.45239
0.9725	-3.42407
0.973	5.84106
0.9735	5.23682
0.974	0.90637
0.9745	6.54602
0.975	1.81274
0.9755	-0.20142
0.976	0.70496
0.9765	2.31628
0.977	4.12903
0.9775	6.94885
0.978	5.0354
0.9785	0.30212
0.979	5.84106
0.9795	5.84106
0.98	-0.50354
0.9805	1.61133
0.981	3.22266
0.9815	4.33044
0.982	4.12903
0.9825	5.13611
0.983	8.05664
0.9835	-1.3092
0.984	0.60425
0.9845	5.13611
0.985	-2.31628
0.9855	-3.32336
0.986	-2.71912
0.9865	8.96301
0.987	4.33044
0.9875	3.32336
0.988	1.3092
0.9885	4.43115
0.989	4.53186
0.9895	10.57434
0.99	7.95593
0.9905	9.66797
0.991	4.93469
0.9915	8.7616
0.992	3.12195
0.9925	9.76868
0.993	6.74744
0.9935	3.22266
0.994	-1.00708
0.9945	4.73328
0.995	11.58142
0.9955	9.56726
0.996	8.56018
0.9965	6.94885
0.997	10.97717
0.9975	11.38
0.998	9.46655
0.9985	13.19275
0.999	11.38
0.9995	12.68921
1	17.01965
1.0005	8.7616
1.001	6.94885
1.0015	13.89771
1.002	4.22974
1.0025	8.05664
1.003	8.15735
1.0035	12.78992
1.004	9.06372
1.0045	13.19275
1.005	12.99133
1.0055	14.60266
1.006	9.06372
1.0065	8.96301
1.007	10.87646
1.0075	10.47363
1.008	8.56018
1.0085	12.28638
1.009	8.8623
1.0095	8.96301
1.01	15.00549
1.0105	11.58142
1.011	12.89062
1.0115	12.18567
1.012	11.07788
1.0125	12.5885
1.013	10.87646
1.0135	14.60266
1.014	15.1062
1.0145	14.50195
1.015	12.28638
1.0155	9.97009
1.016	0.90637
1.0165	6.44531
1.017	6.54602
1.0175	5.43823
1.018	10.47363
1.0185	13.39417
1.019	12.89062
1.0195	7.04956
1.02	8.05664
1.0205	11.17859
1.021	11.07788
1.0215	6.04248
1.022	11.17859
1.0225	8.25806
1.023	9.56726
1.0235	9.06372
1.024	5.0354
1.0245	5.23682
1.025	7.75452
1.0255	1.51062
1.026	8.7616
1.0265	8.8623
1.027	7.35168
1.0275	6.04248
1.028	9.97009
1.0285	5.53894
1.029	12.5885
1.0295	6.64673
1.03	5.63965
1.0305	2.92053
1.031	3.12195
1.0315	8.15735
1.032	7.35168
1.0325	2.41699
1.033	0.10071
1.0335	3.32336
1.034	4.02832
1.0345	6.84814
1.035	4.73328
1.0355	3.52478
1.036	4.73328
1.0365	1.81274
1.037	5.0354
1.0375	5.74036
1.038	6.54602
1.0385	4.73328
1.039	0.70496
1.0395	6.54602
1.04	3.12195
1.0405	11.07788
1.041	7.95593
1.0415	10.17151
1.042	9.76868
1.0425	-0.90637
1.043	1.61133
1.0435	5.13611
1.044	5.53894
1.0445	7.85522
1.045	8.15735
1.0455	5.94177
1.046	6.94885
1.0465	8.15735
1.047	1.00708
1.0475	4.43115
1.048	3.02124
1.0485	6.74744
1.049	2.92053
1.0495	7.15027
1.05	7.65381
1.0505	4.93469
1.051	1.61133
1.0515	0.80566
1.052	4.73328
1.0525	7.95593
1.053	2.92053
1.0535	5.63965
1.054	1.81274
1.0545	-3.42407
1.055	1.2085
1.0555	8.15735
1.056	3.8269
1.0565	5.33752
1.057	6.14319
1.0575	3.92761
1.058	2.61841
1.0585	-0.40283
1.059	3.8269
1.0595	6.64673
1.06	2.71912
1.0605	2.41699
1.061	4.63257
1.0615	10.27222
1.062	5.13611
1.0625	7.15027
1.063	8.66089
1.0635	1.2085
1.064	7.35168
1.0645	0.70496
1.065	4.43115
1.0655	5.43823
1.066	2.41699
1.0665	8.96301
1.067	11.48071
1.0675	6.84814
1.068	10.27222
1.0685	4.93469
1.069	4.22974
1.0695	5.23682
1.07	5.63965
1.0705	8.25806
1.071	8.66089
1.0715	9.26514
1.072	9.86938
1.0725	8.66089
1.073	8.05664
1.0735	9.86938
1.074	4.12903
1.0745	4.33044
1.075	10.87646
1.0755	6.94885
1.076	4.73328
1.0765	6.44531
1.077	11.98425
1.0775	9.06372
1.078	9.56726
1.0785	3.02124
1.079	5.53894
1.0795	11.68213
1.08	10.57434
1.0805	8.35876
1.081	8.45947
1.0815	11.48071
1.082	6.64673
1.0825	5.63965
1.083	11.68213
1.0835	10.0708
1.084	13.59558
1.0845	9.66797
1.085	13.29346
1.0855	3.12195
1.086	2.81982
1.0865	5.23682
1.087	8.35876
1.0875	3.32336
1.088	7.75452
1.0885	6.04248
1.089	10.27222
1.0895	2.5177
1.09	4.53186
1.0905	3.22266
1.091	3.42407
1.0915	7.75452
1.092	2.11487
1.0925	5.84106
1.093	10.77576
1.0935	4.43115
1.094	7.65381
1.0945	7.45239
1.095	4.43115
1.0955	3.8269
1.096	7.85522
1.0965	2.61841
1.097	3.02124
1.0975	5.74036
1.098	8.56018
1.0985	12.99133
1.099	9.26514
1.0995	4.83398
1.1	8.15735
1.1005	7.95593
1.101	7.45239
1.1015	8.35876
1.102	2.31628
1.1025	4.63257
1.103	5.33752
1.1035	11.68213
1.104	8.05664
1.1045	6.44531
1.105	3.8269
1.1055	1.10779
1.106	9.66797
1.1065	6.84814
1.107	3.52478
1.1075	3.42407
1.108	-2.31628
1.1085	0
1.109	4.83398
1.1095	5.33752
1.11	6.2439
1.1105	3.02124
1.111	1.81274
1.1115	8.25806
1.112	3.42407
1.1125	-0.80566
1.113	1.81274
1.1135	1.00708
1.114	4.93469
1.1145	1.2085
1.115	-0.30212
1.1155	-1.3092
1.116	-0.30212
1.1165	2.81982
1.117	0.50354
1.1175	-1.40991
1.118	1.81274
1.1185	5.74036
1.119	5.33752
1.1195	-3.62549
1.12	1.10779
1.1205	3.32336
1.121	0.90637
1.1215	7.45239
1.122	7.15027
1.1225	3.02124
1.123	7.65381
1.1235	5.13611
1.124	4.33044
1.1245	0.30212
1.125	2.92053
1.1255	7.5531
1.126	6.54602
1.1265	5.84106
1.127	1.91345
1.1275	1.71204
1.128	-0.90637
1.1285	3.22266
1.129	3.22266
1.1295	5.43823
1.13	-3.62549
1.1305	-1.71204
1.131	7.5531
1.1315	1.00708
1.132	6.84814
1.1325	6.94885
1.133	7.85522
1.1335	9.66797
1.134	2.61841
1.1345	0.30212
1.135	8.35876
1.1355	10.37292
1.136	3.7262
1.1365	10.57434
1.137	7.15027
1.1375	5.33752
1.138	9.26514
1.1385	7.25098
1.139	9.06372
1.1395	6.14319
1.14	5.0354
1.1405	5.94177
1.141	10.27222
1.1415	8.56018
1.142	7.95593
1.1425	9.06372
1.143	6.94885
1.1435	6.2439
1.144	3.92761
1.1445	5.13611
1.145	5.0354
1.1455	-1.51062
1.146	6.3446
1.1465	6.44531
1.147	1.3092
1.1475	2.01416
1.148	6.84814
1.1485	3.02124
1.149	6.3446
1.1495	3.52478
1.15	5.23682
1.1505	3.32336
1.151	4.43115
1.1515	3.7262
1.152	6.2439
1.1525	7.75452
1.153	13.99841
1.1535	12.08496
1.154	1.91345
1.1545	0.40283
1.155	1.71204
1.1555	1.3092
1.156	4.33044
1.1565	6.44531
1.157	6.64673
1.1575	7.35168
1.158	8.15735
1.1585	4.83398
1.159	3.32336
1.1595	2.11487
1.16	9.36584
1.1605	10.97717
1.161	12.08496
1.1615	8.35876
1.162	3.62549
1.1625	8.56018
1.163	6.94885
1.1635	1.91345
1.164	6.74744
1.1645	10.77576
1.165	3.7262
1.1655	8.15735
1.166	8.05664
1.1665	7.5531
1.167	7.45239
1.1675	11.07788
1.168	5.74036
1.1685	7.85522
1.169	12.18567
1.1695	14.60266
1.17	7.15027
1.1705	4.73328
1.171	7.45239
1.1715	3.32336
1.172	5.84106
1.1725	3.52478
1.173	5.0354
1.1735	4.93469
1.174	2.31628
1.1745	2.21558
1.175	5.53894
1.1755	5.23682
1.176	5.63965
1.1765	3.52478
1.177	7.95593
1.1775	5.94177
1.178	1.81274
1.1785	6.84814
1.179	9.66797
1.1795	6.64673
1.18	7.75452
1.1805	8.35876
1.181	7.15027
1.1815	4.33044
1.182	2.21558
1.1825	3.22266
1.183	3.62549
1.1835	2.5177
1.184	1.2085
1.1845	2.11487
1.185	6.44531
1.1855	-1.51062
1.186	-1.00708
1.1865	-1.71204
1.187	-3.32336
1.1875	2.31628
1.188	4.73328
1.1885	3.8269
1.189	7.04956
1.1895	7.35168
1.19	7.95593
1.1905	2.31628
1.191	3.52478
1.1915	7.35168
1.192	7.75452
1.1925	8.8623
1.193	7.35168
1.1935	2.21558
1.194	0
1.1945	6.74744
1.195	5.53894
1.1955	5.33752
1.196	4.12903
1.1965	7.15027
1.197	4.12903
1.1975	9.26514
1.198	7.5531
1.1985	11.07788
1.199	10.97717
1.1995	4.33044
1.2	3.32336
1.2005	2.21558
1.201	3.8269
1.2015	3.32336
1.202	7.15027
1.2025	2.71912
1.203	0
1.2035	-1.81274
1.204	-0.50354
1.2045	0
1.205	0.30212
1.2055	5.0354
1.206	0.10071
1.2065	1.2085
1.207	0.70496
1.2075	5.74036
1.208	2.92053
1.2085	8.05664
1.209	1.71204
1.2095	4.53186
1.21	5.23682
1.2105	3.92761
1.211	2.21558
1.2115	5.74036
1.212	-0.40283
1.2125	4.02832
1.213	2.61841
1.2135	4.53186
1.214	7.95593
1.2145	6.3446
1.215	1.00708
1.2155	-0.20142
1.216	2.61841
1.2165	2.5177
1.217	-0.30212
1.2175	0.60425
1.218	4.93469
1.2185	2.41699
1.219	8.15735
1.2195	1.61133
1.22	1.2085
1.2205	5.33752
1.221	1.91345
1.2215	7.25098
1.222	1.51062
1.2225	3.62549
1.223	-0.20142
1.2235	2.41699
1.224	3.42407
1.2245	6.14319
1.225	9.66797
1.2255	0.30212
1.226	7.65381
1.2265	5.33752
1.227	3.22266
1.2275	5.53894
1.228	6.3446
1.2285	6.84814
1.229	4.33044
1.2295	2.71912
1.23	-0.10071
1.2305	4.83398
1.231	11.98425
1.2315	12.48779
1.232	13.99841
1.2325	13.59558
1.233	9.06372
1.2335	9.76868
1.234	8.05664
1.2345	2.61841
1.235	7.04956
1.2355	5.84106
1.236	0.20142
1.2365	2.71912
1.237	-2.31628
1.2375	-1.91345
1.238	-4.63257
1.2385	-0.90637
1.239	-4.22974
1.2395	-1.00708
1.24	-4.43115
1.2405	2.92053
1.241	-1.3092
1.2415	5.33752
1.242	-1.61133
1.2425	0.60425
1.243	1.61133
1.2435	5.0354
1.244	4.22974
1.2445	1.61133
1.245	4.22974
1.2455	0.70496
1.246	5.33752
1.2465	2.71912
1.247	1.3092
1.2475	3.22266
1.248	4.02832
1.2485	2.21558
1.249	10.97717
1.2495	6.14319
1.25	2.11487
1.2505	9.86938
1.251	4.83398
1.2515	8.56018
1.252	-4.63257
1.2525	1.71204
1.253	2.31628
1.2535	-0.60425
1.254	2.61841
1.2545	1.3092
1.255	3.32336
1.2555	6.3446
1.256	7.85522
1.2565	9.46655
1.257	10.27222
1.2575	10.47363
1.258	11.48071
1.2585	14.90479
1.259	12.68921
1.2595	14.40125
1.26	17.82532
1.2605	14.80408
1.261	17.52319
1.2615	22.05505
1.262	20.64514
1.2625	32.42798
1.263	24.67346
1.2635	31.72302
1.264	29.00391
1.2645	35.44922
1.265	35.95276
1.2655	23.36426
1.266	16.81824
1.2665	11.2793
1.267	10.67505
1.2675	-3.22266
1.268	-1.40991
1.2685	-2.41699
1.269	-7.45239
1.2695	-2.41699
1.27	-1.91345
1.2705	-0.70496
1.271	6.44531
1.2715	12.5885
1.272	10.47363
1.2725	10.17151
1.273	9.36584
1.2735	16.3147
1.274	12.78992
1.2745	18.32886
1.275	11.2793
1.2755	12.89062
1.276	9.97009
1.2765	4.43115
1.277	1.51062
1.2775	5.33752
1.278	0.30212
1.2785	4.63257
1.279	12.28638
1.2795	18.02673
1.28	37.16125
1.2805	45.82214
1.281	53.17383
1.2815	62.13684
1.282	67.67578
1.2825	63.44604
1.283	52.26746
1.2835	52.36816
1.284	52.16675
1.2845	43.90869
1.285	39.57825
1.2855	39.07471
1.286	39.37683
1.2865	32.12585
1.287	21.3501
1.2875	2.81982
1.288	-13.797
1.2885	-44.61365
1.289	-64.95667
1.2895	-82.9834
1.29	-91.94641
1.2905	-104.93774
1.291	-103.52783
1.2915	-102.92358
1.292	-95.06836
1.2925	-77.54517
1.293	-73.31543
1.2935	-51.76392
1.294	-36.15417
1.2945	-27.09045
1.295	-18.73169
1.2955	-20.04089
1.296	-9.46655
1.2965	-2.21558
1.297	-1.91345
1.2975	5.74036
1.298	12.28638
1.2985	12.38708
1.299	23.06213
1.2995	33.9386
1.3	53.57666
1.3005	63.94958
1.301	66.56799
1.3015	72.81189
1.302	69.79065
1.3025	73.71826
1.303	76.23596
1.3035	71.20056
1.304	69.08569
1.3045	62.23755
1.305	62.13684
1.3055	54.48303
1.306	43.20374
1.3065	29.30603
1.307	6.44531
1.3075	-12.5885
1.308	-23.66638
1.3085	-39.27612
1.309	-44.91577
1.3095	-58.20923
1.31	-69.89136
1.3105	-73.01331
1.311	-76.23596
1.3115	-64.85596
1.312	-57.60498
1.3125	-43.60657
1.313	-20.34302
1.3135	14.60266
1.314	42.59949
1.3145	72.9126
1.315	83.38623
1.3155	85.60181
1.316	86.8103
1.3165	74.92676
1.317	59.61914
1.3175	37.26196
1.318	28.60107
1.3185	14.09912
1.319	0.10071
1.3195	-7.5531
1.32	-16.01257
1.3205	-10.27222
1.321	-2.92053
1.3215	7.5531
1.322	21.95435
1.3225	23.36426
1.323	19.94019
1.3235	2.61841
1.324	-27.79541
1.3245	-38.06763
1.325	-61.43188
1.3255	-67.47437
1.326	-71.50269
1.3265	-51.46179
1.327	-39.77966
1.3275	-15.40833
1.328	18.73169
1.3285	47.23206
1.329	78.55225
1.3295	106.44836
1.33	130.11475
1.3305	128.40271
1.331	116.31775
1.3315	89.02588
1.332	63.44604
1.3325	31.62231
1.333	-4.33044
1.3335	-39.98108
1.334	-69.79065
1.3345	-88.42163
1.335	-114.10217
1.3355	-119.54041
1.336	-112.89368
1.3365	-92.95349
1.337	-75.12817
1.3375	-57.9071
1.338	-50.2533
1.3385	-37.66479
1.339	-31.21948
1.3395	-13.797
1.34	-14.80408
1.3405	-15.30762
1.341	-18.73169
1.3415	-11.58142
1.342	-2.81982
1.3425	2.31628
1.343	4.73328
1.3435	12.28638
1.344	17.42249
1.3445	20.44373
1.345	24.06921
1.3455	12.89062
1.346	8.15735
1.3465	-4.33044
1.347	-8.15735
1.3475	-17.12036
1.348	-25.68054
1.3485	-30.61523
1.349	-31.62231
1.3495	-31.11877
1.35	-29.40674
1.3505	-29.30603
1.351	-11.78284
1.3515	-3.7262
1.352	21.65222
1.3525	44.91577
1.353	72.50977
1.3535	105.13916
1.354	136.96289
1.3545	179.56238
1.355	210.88257
1.3555	226.69373
1.356	226.08948
1.3565	218.33496
1.357	191.64734
1.3575	160.32715
1.358	105.34058
1.3585	40.2832
1.359	-6.2439
1.3595	-49.44763
1.36	-80.16357
1.3605	-110.57739
1.361	-143.3075
1.3615	-154.78821
1.362	-151.56555
1.3625	-154.6875
1.363	-154.98962
1.3635	-146.63086
1.364	-143.60962
1.3645	-153.68042
1.365	-153.17688
1.3655	-143.71033
1.366	-130.8197
1.3665	-110.37598
1.367	-91.8457
1.3675	-68.07861
1.368	-54.58374
1.3685	-40.68604
1.369	-21.55151
1.3695	-14.60266
1.37	-9.66797
1.3705	-6.64673
1.371	4.22974
1.3715	12.78992
1.372	10.37292
1.3725	13.59558
1.373	10.47363
1.3735	15.30762
1.374	13.19275
1.3745	12.48779
1.375	19.33594
1.3755	25.88196
1.376	29.40674
1.3765	29.20532
1.377	33.23364
1.3775	38.26904
1.378	40.78674
1.3785	40.78674
1.379	50.65613
1.3795	39.77966
1.38	42.49878
1.3805	34.74426
1.381	29.30603
1.3815	23.26355
1.382	15.20691
1.3825	13.29346
1.383	24.47205
1.3835	20.34302
1.384	29.50745
1.3845	28.60107
1.385	37.16125
1.3855	46.02356
1.386	46.32568
1.3865	53.17383
1.387	53.57666
1.3875	39.88037
1.388	39.67896
1.3885	35.2478
1.389	30.91736
1.3895	31.21948
1.39	30.91736
1.3905	27.79541
1.391	26.08337
1.3915	32.62939
1.392	37.36267
1.3925	35.65063
1.393	39.27612
1.3935	39.37683
1.394	39.27612
1.3945	24.87488
1.395	28.29895
1.3955	21.04797
1.396	22.25647
1.3965	11.78284
1.397	12.18567
1.3975	8.45947
1.398	0
1.3985	6.74744
1.399	-0.50354
1.3995	-4.83398
1.4	-14.80408
1.4005	-20.04089
1.401	-20.64514
1.4015	-15.50903
1.402	-23.76709
1.4025	-20.04089
1.403	-20.54443
1.4035	-16.91895
1.404	-10.77576
1.4045	-7.85522
1.405	-13.19275
1.4055	-14.90479
1.406	-17.32178
1.4065	-15.91187
1.407	-11.68213
1.4075	-7.04956
1.408	-13.29346
1.4085	-7.75452
1.409	-4.73328
1.4095	-4.02832
1.41	9.56726
1.4105	11.78284
1.411	17.12036
1.4115	27.79541
1.412	18.73169
1.4125	12.48779
1.413	10.27222
1.4135	2.61841
1.414	-2.31628
1.4145	-1.10779
1.415	-10.37292
1.4155	-6.44531
1.416	-10.0708
1.4165	-7.65381
1.417	-1.40991
1.4175	6.44531
1.418	10.57434
1.4185	17.82532
1.419	25.57983
1.4195	26.18408
1.42	27.79541
1.4205	23.96851
1.421	21.65222
1.4215	20.44373
1.422	14.90479
1.4225	9.76868
1.423	-3.42407
1.4235	-5.63965
1.424	-6.3446
1.4245	-7.85522
1.425	-11.68213
1.4255	-5.84106
1.426	4.73328
1.4265	14.40125
1.427	18.63098
1.4275	33.9386
1.428	44.51294
1.4285	56.39648
1.429	68.98499
1.4295	81.7749
1.43	99.49951
1.4305	116.82129
1.431	134.34448
1.4315	142.19971
1.432	141.39404
1.4325	130.41687
1.433	114.20288
1.4335	80.26428
1.434	36.95984
1.4345	-11.17859
1.435	-50.2533
1.4355	-90.03296
1.436	-128.70483
1.4365	-154.98962
1.437	-172.71423
1.4375	-170.39795
1.438	-148.4436
1.4385	-127.99988
1.439	-105.23987
1.4395	-62.74109
1.44	-43.20374
1.4405	-28.70178
1.441	-23.26355
1.4415	-22.96143
1.442	-16.81824
1.4425	-6.54602
1.443	-2.01416
1.4435	-3.42407
1.444	3.12195
1.4445	4.53186
1.445	1.51062
1.4455	7.35168
1.446	1.2085
1.4465	-5.74036
1.447	-6.14319
1.4475	-7.15027
1.448	-7.65381
1.4485	-11.58142
1.449	-5.0354
1.4495	-5.94177
1.45	-6.64673
1.4505	2.21558
1.451	4.22974
1.4515	7.04956
1.452	6.84814
1.4525	5.84106
1.453	1.61133
1.4535	4.12903
1.454	0.30212
1.4545	0.10071
1.455	1.2085
1.4555	1.81274
1.456	-3.42407
1.4565	1.00708
1.457	1.61133
1.4575	3.52478
1.458	11.98425
1.4585	11.78284
1.459	8.96301
1.4595	15.60974
1.46	16.61682
1.4605	14.09912
1.461	10.57434
1.4615	11.78284
1.462	3.92761
1.4625	5.43823
1.463	7.35168
1.4635	5.13611
1.464	6.04248
1.4645	11.17859
1.465	17.22107
1.4655	17.82532
1.466	18.93311
1.4665	16.21399
1.467	24.06921
1.4675	22.45789
1.468	17.52319
1.4685	18.53027
1.469	21.85364
1.4695	19.53735
1.47	22.25647
1.4705	17.42249
1.471	12.68921
1.4715	9.66797
1.472	7.25098
1.4725	3.62549
1.473	-1.3092
1.4735	-0.50354
1.474	-0.60425
1.4745	4.93469
1.475	4.22974
1.4755	6.44531
1.476	11.48071
1.4765	20.64514
1.477	15.81116
1.4775	12.38708
1.478	15.1062
1.4785	22.35718
1.479	20.84656
1.4795	15.40833
1.48	18.53027
1.4805	19.03381
1.481	17.22107
1.4815	6.44531
1.482	11.98425
1.4825	6.84814
1.483	1.71204
1.4835	3.02124
1.484	0.20142
1.4845	5.13611
1.485	7.45239
1.4855	3.12195
1.486	3.42407
1.4865	6.2439
1.487	10.57434
1.4875	10.87646
1.488	8.66089
1.4885	8.25806
1.489	14.19983
1.4895	15.91187
1.49	17.92603
1.4905	19.13452
1.491	29.80957
1.4915	32.93152
1.492	37.56409
1.4925	33.9386
1.493	31.62231
1.4935	33.33435
1.494	25.177
1.4945	18.42957
1.495	18.22815
1.4955	6.44531
1.496	-4.53186
1.4965	-12.38708
1.497	-15.20691
1.4975	-17.32178
1.498	-14.09912
1.4985	-12.18567
1.499	-8.96301
1.4995	-10.37292
1.5	-4.33044
1.5005	-6.2439
1.501	-5.0354
1.5015	-2.5177
1.502	0.30212
1.5025	0.50354
1.503	10.37292
1.5035	11.68213
1.504	8.8623
1.5045	9.56726
1.505	8.96301
1.5055	6.2439
1.506	10.77576
1.5065	14.50195
1.507	10.77576
1.5075	15.40833
1.508	14.19983
1.5085	12.48779
1.509	14.40125
1.5095	23.66638
1.51	15.50903
1.5105	24.47205
1.511	22.45789
1.5115	22.45789
1.512	23.16284
1.5125	15.1062
1.513	14.50195
1.5135	14.80408
1.514	9.56726
1.5145	11.88354
1.515	11.17859
1.5155	13.09204
1.516	20.34302
1.5165	26.18408
1.517	25.68054
1.5175	20.04089
1.518	17.42249
1.5185	17.72461
1.519	11.78284
1.5195	10.87646
1.52	3.62549
1.5205	1.51062
1.521	2.01416
1.5215	0.70496
1.522	-3.22266
1.5225	-3.32336
1.523	-3.32336
1.5235	-4.83398
1.524	-5.33752
1.5245	-1.71204
1.525	4.63257
1.5255	5.0354
1.526	4.73328
1.5265	4.93469
1.527	3.7262
1.5275	7.25098
1.528	8.7616
1.5285	7.25098
1.529	8.8623
1.5295	8.15735
1.53	5.33752
1.5305	5.43823
1.531	6.94885
1.5315	8.35876
1.532	2.71912
1.5325	2.5177
1.533	4.12903
1.5335	3.32336
1.534	2.81982
1.5345	8.96301
1.535	1.40991
1.5355	5.63965
1.536	6.64673
1.5365	6.64673
1.537	5.23682
1.5375	-0.10071
1.538	7.35168
1.5385	5.0354
1.539	5.23682
1.5395	10.77576
1.54	10.27222
1.5405	13.89771
1.541	21.45081
1.5415	15.00549
1.542	18.02673
1.5425	13.39417
1.543	17.82532
1.5435	8.7616
1.544	7.95593
1.5445	17.92603
1.545	15.50903
1.5455	10.77576
1.546	9.36584
1.5465	7.95593
1.547	11.68213
1.5475	14.50195
1.548	8.25806
1.5485	4.63257
1.549	5.23682
1.5495	8.45947
1.55	8.25806
1.5505	9.16443
1.551	10.27222
1.5515	6.2439
1.552	10.77576
1.5525	8.96301
1.553	7.95593
1.5535	6.84814
1.554	11.48071
1.5545	4.22974
1.555	11.78284
1.5555	4.02832
1.556	5.33752
1.5565	8.15735
1.557	8.25806
1.5575	5.63965
1.558	-7.35168
1.5585	0.20142
1.559	-0.40283
1.5595	-3.22266
1.56	-3.32336
1.5605	0.20142
1.561	7.5531
1.5615	-0.60425
1.562	-0.10071
1.5625	4.12903
1.563	10.67505
1.5635	19.73877
1.564	22.05505
1.5645	24.06921
1.565	24.57275
1.5655	23.56567
1.566	11.68213
1.5665	7.95593
1.567	12.48779
1.5675	10.17151
1.568	12.38708
1.5685	5.23682
1.569	4.02832
1.5695	-3.02124
1.57	1.3092
1.5705	3.92761
1.571	3.42407
1.5715	7.65381
1.572	10.0708
1.5725	10.47363
1.573	16.01257
1.5735	16.81824
1.574	22.45789
1.5745	20.54443
1.575	16.3147
1.5755	13.69629
1.576	13.09204
1.5765	8.56018
1.577	6.54602
1.5775	5.33752
1.578	10.0708
1.5785	13.797
1.579	14.09912
1.5795	3.32336
1.58	3.22266
1.5805	8.15735
1.581	10.27222
1.5815	12.08496
1.582	7.95593
1.5825	16.21399
1.583	12.89062
1.5835	12.28638
1.584	5.94177
1.5845	6.64673
1.585	3.42407
1.5855	5.0354
1.586	7.85522
1.5865	3.02124
1.587	5.74036
1.5875	6.04248
1.588	-4.63257
1.5885	-3.7262
1.589	1.00708
1.5895	-2.11487
1.59	2.11487
1.5905	-1.10779
1.591	-0.70496
1.5915	-2.71912
1.592	-4.83398
1.5925	-2.92053
1.593	8.05664
1.5935	0.20142
1.594	2.31628
1.5945	3.22266
1.595	9.46655
1.5955	8.35876
1.596	2.21558
1.5965	1.91345
1.597	4.02832
1.5975	6.44531
1.598	0.60425
1.5985	0.20142
1.599	3.52478
1.5995	1.00708
1.6	8.35876
1.6005	13.29346
1.601	16.51611
1.6015	15.91187
1.602	18.8324
1.6025	14.80408
1.603	12.28638
1.6035	11.68213
1.604	12.38708
1.6045	11.68213
1.605	6.84814
1.6055	7.45239
1.606	2.81982
1.6065	1.2085
1.607	1.51062
1.6075	-4.73328
1.608	-0.90637
1.6085	-7.5531
1.609	-11.07788
1.6095	-14.09912
1.61	-11.48071
1.6105	-7.65381
1.611	-1.91345
1.6115	1.10779
1.612	2.31628
1.6125	9.36584
1.613	12.08496
1.6135	10.0708
1.614	17.72461
1.6145	12.28638
1.615	8.35876
1.6155	4.93469
1.616	3.62549
1.6165	4.02832
1.617	4.93469
1.6175	7.45239
1.618	5.63965
1.6185	8.05664
1.619	5.94177
1.6195	10.67505
1.62	11.98425
1.6205	5.74036
1.621	7.75452
1.6215	6.84814
1.622	1.61133
1.6225	-0.60425
1.623	-4.22974
1.6235	3.02124
1.624	3.62549
1.6245	5.63965
1.625	6.44531
1.6255	4.33044
1.626	3.7262
1.6265	5.84106
1.627	4.12903
1.6275	4.43115
1.628	1.10779
1.6285	-5.84106
1.629	0.50354
1.6295	-1.40991
1.63	4.33044
1.6305	9.26514
1.631	10.77576
1.6315	8.25806
1.632	12.99133
1.6325	6.2439
1.633	7.75452
1.6335	4.33044
1.634	3.12195
1.6345	2.21558
1.635	5.94177
1.6355	7.5531
1.636	4.63257
1.6365	5.0354
1.637	6.04248
1.6375	0.90637
1.638	8.56018
1.6385	5.63965
1.639	3.92761
1.6395	1.2085
1.64	2.92053
1.6405	8.96301
1.641	3.92761
1.6415	8.45947
1.642	5.0354
1.6425	13.89771
1.643	5.94177
1.6435	-0.60425
1.644	3.12195
1.6445	7.75452
1.645	5.94177
1.6455	9.76868
1.646	8.05664
1.6465	4.83398
1.647	-0.40283
1.6475	0.70496
1.648	-0.40283
1.6485	-2.21558
1.649	-2.5177
1.6495	-0.60425
1.65	0.80566
1.6505	2.11487
1.651	6.3446
1.6515	6.54602
1.652	4.63257
1.6525	9.97009
1.653	14.90479
1.6535	16.71753
1.654	20.34302
1.6545	30.71594
1.655	31.82373
1.6555	34.74426
1.656	29.40674
1.6565	28.29895
1.657	19.33594
1.6575	8.7616
1.658	0.60425
1.6585	-6.44531
1.659	-10.27222
1.6595	-15.20691
1.66	-22.15576
1.6605	-20.24231
1.661	-21.75293
1.6615	-13.99841
1.662	-9.16443
1.6625	-5.23682
1.663	-4.53186
1.6635	5.33752
1.664	10.67505
1.6645	14.50195
1.665	3.02124
1.6655	6.14319
1.666	4.33044
1.6665	5.43823
1.667	4.02832
1.6675	8.8623
1.668	7.04956
1.6685	-1.00708
1.669	-2.92053
1.6695	-1.51062
1.67	4.93469
1.6705	9.86938
1.671	2.21558
1.6715	-0.70496
1.672	-1.91345
1.6725	0.80566
1.673	1.91345
1.6735	1.61133
1.674	4.53186
1.6745	5.74036
1.675	7.85522
1.6755	2.61841
1.676	3.22266
1.6765	2.5177
1.677	8.45947
1.6775	5.33752
1.678	7.04956
1.6785	4.73328
1.679	6.44531
1.6795	6.54602
1.68	4.63257
1.6805	2.61841
1.681	2.5177
1.6815	-4.02832
1.682	-4.83398
1.6825	-4.83398
1.683	-12.38708
1.6835	-5.74036
1.684	-1.40991
1.6845	-5.0354
1.685	-4.73328
1.6855	2.71912
1.686	6.04248
1.6865	5.23682
1.687	5.23682
1.6875	6.04248
1.688	-0.90637
1.6885	-0.10071
1.689	3.7262
1.6895	5.74036
1.69	6.64673
1.6905	6.44531
1.691	16.01257
1.6915	17.82532
1.692	12.89062
1.6925	11.78284
1.693	10.77576
1.6935	9.56726
1.694	12.18567
1.6945	7.95593
1.695	11.07788
1.6955	11.78284
1.696	14.50195
1.6965	18.02673
1.697	20.34302
1.6975	24.87488
1.698	25.47913
1.6985	22.96143
1.699	27.59399
1.6995	25.47913
1.7	24.27063
1.7005	15.71045
1.701	17.72461
1.7015	16.61682
1.702	16.71753
1.7025	17.42249
1.703	17.92603
1.7035	17.01965
1.704	15.50903
1.7045	12.68921
1.705	7.35168
1.7055	8.66089
1.706	9.76868
1.7065	5.23682
1.707	-0.80566
1.7075	-7.35168
1.708	-6.64673
1.7085	-11.07788
1.709	-3.02124
1.7095	-5.63965
1.71	2.21558
1.7105	-0.80566
1.711	1.51062
1.7115	-1.51062
1.712	5.23682
1.7125	4.33044
1.713	2.81982
1.7135	9.36584
1.714	8.35876
1.7145	8.45947
1.715	5.23682
1.7155	5.74036
1.716	2.41699
1.7165	4.43115
1.717	6.84814
1.7175	8.56018
1.718	3.22266
1.7185	-1.51062
1.719	-0.90637
1.7195	-6.74744
1.72	-9.46655
1.7205	-12.78992
1.721	-5.63965
1.7215	-7.5531
1.722	-6.14319
1.7225	0.90637
1.723	6.04248
1.7235	5.0354
1.724	8.35876
1.7245	3.32336
1.725	9.06372
1.7255	7.35168
1.726	11.88354
1.7265	9.36584
1.727	15.81116
1.7275	7.25098
1.728	11.68213
1.7285	9.36584
1.729	15.00549
1.7295	11.58142
1.73	11.38
1.7305	2.71912
1.731	-4.12903
1.7315	-19.13452
1.732	-18.8324
1.7325	-17.42249
1.733	-13.59558
1.7335	-7.04956
1.734	-7.04956
1.7345	-11.58142
1.735	-9.46655
1.7355	-9.36584
1.736	-0.10071
1.7365	1.71204
1.737	4.12903
1.7375	4.02832
1.738	5.0354
1.7385	11.78284
1.739	18.8324
1.7395	29.91028
1.74	30.41382
1.7405	29.70886
1.741	25.07629
1.7415	23.46497
1.742	23.76709
1.7425	19.94019
1.743	23.66638
1.7435	20.1416
1.744	23.66638
1.7445	23.06213
1.745	20.24231
1.7455	20.94727
1.746	23.66638
1.7465	16.71753
1.747	10.37292
1.7475	5.84106
1.748	5.33752
1.7485	-3.42407
1.749	-3.42407
1.7495	-2.41699
1.75	1.71204
1.7505	2.71912
1.751	10.0708
1.7515	16.51611
1.752	14.90479
1.7525	15.1062
1.753	22.76001
1.7535	21.55151
1.754	23.56567
1.7545	29.20532
1.755	35.04639
1.7555	38.16833
1.756	43.00232
1.7565	46.82922
1.757	35.85205
1.7575	32.22656
1.758	31.82373
1.7585	20.24231
1.759	8.15735
1.7595	2.21558
1.76	-6.14319
1.7605	-14.80408
1.761	-15.40833
1.7615	-22.76001
1.762	-29.50745
1.7625	-35.75134
1.763	-33.83789
1.7635	-30.41382
1.764	-25.47913
1.7645	-17.72461
1.765	-0.90637
1.7655	8.35876
1.766	2.31628
1.7665	5.13611
1.767	3.02124
1.7675	10.97717
1.768	10.57434
1.7685	17.22107
1.769	22.15576
1.7695	18.63098
1.77	17.32178
1.7705	11.68213
1.771	8.66089
1.7715	12.89062
1.772	16.71753
1.7725	13.19275
1.773	11.2793
1.7735	13.39417
1.774	11.88354
1.7745	5.23682
1.775	-3.7262
1.7755	-8.7616
1.776	-15.30762
1.7765	-15.60974
1.777	-25.88196
1.7775	-27.89612
1.778	-31.32019
1.7785	-31.92444
1.779	-26.78833
1.7795	-30.91736
1.78	-16.51611
1.7805	-12.89062
1.781	-5.33752
1.7815	-0.20142
1.782	8.7616
1.7825	13.69629
1.783	21.3501
1.7835	28.50037
1.784	31.72302
1.7845	37.46338
1.785	32.12585
1.7855	23.8678
1.786	16.81824
1.7865	9.56726
1.787	0.90637
1.7875	-9.66797
1.788	-7.95593
1.7885	0.60425
1.789	-0.40283
1.7895	16.21399
1.79	34.03931
1.7905	44.41223
1.791	72.20764
1.7915	82.17773
1.792	88.52234
1.7925	94.3634
1.793	85.70251
1.7935	78.65295
1.794	56.79932
1.7945	31.82373
1.795	8.56018
1.7955	-7.65381
1.796	-31.01807
1.7965	-51.36108
1.797	-65.15808
1.7975	-68.38074
1.798	-55.2887
1.7985	-40.2832
1.799	-26.18408
1.7995	-9.06372
1.8	20.1416
1.8005	32.42798
1.801	27.79541
1.8015	31.21948
1.802	25.47913
1.8025	17.22107
1.803	4.63257
1.8035	-8.8623
1.804	-16.01257
1.8045	-18.22815
1.805	-18.32886
1.8055	-13.797
1.806	-12.99133
1.8065	-5.63965
1.807	0.40283
1.8075	11.48071
1.808	20.04089
1.8085	26.48621
1.809	31.01807
1.8095	28.39966
1.81	16.91895
1.8105	16.01257
1.811	-1.40991
1.8115	-19.13452
1.812	-26.28479
1.8125	-39.88037
1.813	-42.59949
1.8135	-43.20374
1.814	-41.39099
1.8145	-27.29187
1.815	-19.03381
1.8155	-1.61133
1.816	17.22107
1.8165	24.57275
1.817	30.81665
1.8175	37.56409
1.818	51.15967
1.8185	62.64038
1.819	66.6687
1.8195	78.14941
1.82	84.69543
1.8205	80.86853
1.821	90.83862
1.8215	88.42163
1.822	79.15649
1.8225	68.28003
1.823	63.24463
1.8235	41.29028
1.824	30.31311
1.8245	8.25806
1.825	-5.43823
1.8255	-14.90479
1.826	-25.37842
1.8265	-37.46338
1.827	-47.53418
1.8275	-52.8717
1.828	-50.15259
1.8285	-47.23206
1.829	-49.0448
1.8295	-48.33984
1.83	-50.354
1.8305	-46.02356
1.831	-39.67896
1.8315	-31.32019
1.832	-22.6593
1.8325	-21.14868
1.833	-12.99133
1.8335	0.40283
1.834	0.40283
1.8345	2.41699
1.835	5.33752
1.8355	15.00549
1.836	25.37842
1.8365	26.18408
1.837	32.02515
1.8375	32.93152
1.838	29.91028
1.8385	25.27771
1.839	18.32886
1.8395	8.35876
1.84	-11.98425
1.8405	-20.94727
1.841	-30.31311
1.8415	-45.11719
1.842	-55.99365
1.8425	-66.87012
1.843	-70.89844
1.8435	-69.79065
1.844	-61.33118
1.8445	-56.79932
1.845	-46.5271
1.8455	-44.21082
1.846	-29.80957
1.8465	-17.12036
1.847	-14.19983
1.8475	-6.2439
1.848	-0.40283
1.8485	3.52478
1.849	3.7262
1.8495	2.71912
1.85	9.16443
1.8505	2.41699
1.851	14.40125
1.8515	24.27063
1.852	27.6947
1.8525	22.25647
1.853	27.09045
1.8535	24.77417
1.854	27.89612
1.8545	25.37842
1.855	25.27771
1.8555	20.54443
1.856	23.46497
1.8565	32.83081
1.857	36.4563
1.8575	36.55701
1.858	35.85205
1.8585	32.12585
1.859	21.75293
1.8595	22.76001
1.86	18.73169
1.8605	8.25806
1.861	6.04248
1.8615	-8.96301
1.862	-24.37134
1.8625	-26.08337
1.863	-32.02515
1.8635	-33.43506
1.864	-28.70178
1.8645	-20.94727
1.865	-18.02673
1.8655	-10.87646
1.866	-2.61841
1.8665	-5.0354
1.867	-4.93469
1.8675	-8.25806
1.868	-10.27222
1.8685	-5.53894
1.869	-4.22974
1.8695	2.81982
1.87	23.26355
1.8705	40.2832
1.871	55.89294
1.8715	78.55225
1.872	88.32092
1.8725	99.09668
1.873	108.76465
1.8735	98.89526
1.874	93.0542
1.8745	64.45312
1.875	39.07471
1.8755	6.3446
1.876	-18.93311
1.8765	-46.32568
1.877	-61.33118
1.8775	-76.53809
1.878	-77.84729
1.8785	-67.27295
1.879	-57.60498
1.8795	-46.72852
1.88	-27.59399
1.8805	-12.99133
1.881	1.61133
1.8815	3.8269
1.882	0.40283
1.8825	5.94177
1.883	8.96301
1.8835	2.81982
1.884	7.15027
1.8845	6.14319
1.885	11.68213
1.8855	18.12744
1.886	13.99841
1.8865	10.0708
1.887	13.39417
1.8875	10.57434
1.888	9.06372
1.8885	14.09912
1.889	18.02673
1.8895	15.1062
1.89	14.30054
1.8905	6.44531
1.891	5.94177
1.8915	8.7616
1.892	9.06372
1.8925	12.78992
1.893	14.30054
1.8935	16.91895
1.894	12.68921
1.8945	15.20691
1.895	13.99841
1.8955	13.19275
1.896	4.63257
1.8965	3.8269
1.897	5.13611
1.8975	-0.10071
1.898	1.2085
1.8985	2.71912
1.899	5.74036
1.8995	3.42407
1.9	5.94177
1.9005	8.8623
1.901	14.50195
1.9015	13.89771
1.902	16.3147
1.9025	20.54443
1.903	26.98975
1.9035	23.26355
1.904	21.95435
1.9045	19.43665
1.905	16.3147
1.9055	12.99133
1.906	14.50195
1.9065	9.97009
1.907	-0.30212
1.9075	-0.60425
1.908	-1.10779
1.9085	-6.74744
1.909	-4.63257
1.9095	2.01416
1.91	2.61841
1.9105	8.15735
1.911	10.67505
1.9115	8.15735
1.912	8.35876
1.9125	11.68213
1.913	7.75452
1.9135	10.67505
1.914	14.60266
1.9145	14.09912
1.915	21.45081
1.9155	16.81824
1.916	16.41541
1.9165	22.86072
1.917	16.21399
1.9175	19.03381
1.918	16.51611
1.9185	18.73169
1.919	20.74585
1.9195	13.29346
1.92	16.91895
1.9205	9.26514
1.921	11.38
1.9215	11.48071
1.922	12.28638
1.9225	0.90637
1.923	-9.56726
1.9235	-11.38
1.924	-19.03381
1.9245	-21.45081
1.925	-13.59558
1.9255	-14.40125
1.926	-9.36584
1.9265	-1.71204
1.927	-4.73328
1.9275	0.70496
1.928	0
1.9285	-6.74744
1.929	-9.16443
1.9295	-10.27222
1.93	-5.43823
1.9305	-6.64673
1.931	4.12903
1.9315	4.63257
1.932	0.80566
1.9325	-0.90637
1.933	0.60425
1.9335	-1.3092
1.934	-6.3446
1.9345	-3.7262
1.935	-6.94885
1.9355	-5.33752
1.936	-4.02832
1.9365	-7.04956
1.937	-5.0354
1.9375	-8.05664
1.938	-1.91345
1.9385	3.02124
1.939	6.04248
1.9395	14.90479
1.94	22.25647
1.9405	31.32019
1.941	35.85205
1.9415	30.51453
1.942	31.01807
1.9425	22.76001
1.943	22.45789
1.9435	21.95435
1.944	13.09204
1.9445	9.97009
1.945	11.2793
1.9455	6.54602
1.946	8.05664
1.9465	10.47363
1.947	10.17151
1.9475	17.01965
1.948	22.76001
1.9485	16.3147
1.949	19.83948
1.9495	10.27222
1.95	3.02124
1.9505	2.01416
1.951	-2.5177
1.9515	-0.10071
1.952	-5.33752
1.9525	-7.45239
1.953	-6.44531
1.9535	-5.33752
1.954	-7.95593
1.9545	-12.99133
1.955	-18.8324
1.9555	-16.61682
1.956	-11.17859
1.9565	-8.25806
1.957	-1.91345
1.9575	0.20142
1.958	-0.60425
1.9585	0
1.959	0.10071
1.9595	-2.92053
1.96	2.41699
1.9605	3.42407
1.961	1.2085
1.9615	7.25098
1.962	7.04956
1.9625	8.35876
1.963	10.67505
1.9635	13.49487
1.964	14.09912
1.9645	9.06372
1.965	14.70337
1.9655	19.13452
1.966	15.40833
1.9665	16.61682
1.967	18.93311
1.9675	16.51611
1.968	19.13452
1.9685	10.67505
1.969	11.2793
1.9695	13.49487
1.97	10.47363
1.9705	0.20142
1.971	-0.60425
1.9715	-11.07788
1.972	-8.15735
1.9725	-12.89062
1.973	-16.21399
1.9735	-15.50903
1.974	-8.45947
1.9745	-4.22974
1.975	0.80566
1.9755	4.43115
1.976	8.05664
1.9765	5.23682
1.977	5.23682
1.9775	0.70496
1.978	4.43115
1.9785	2.11487
1.979	-0.80566
1.9795	1.71204
1.98	-3.02124
1.9805	-1.71204
1.981	3.42407
1.9815	8.56018
1.982	12.08496
1.9825	14.50195
1.983	14.40125
1.9835	6.74744
1.984	6.64673
1.9845	4.02832
1.985	4.73328
1.9855	4.83398
1.986	8.7616
1.9865	5.74036
1.987	8.8623
1.9875	9.56726
1.988	14.40125
1.9885	9.16443
1.989	10.17151
1.9895	12.5885
1.99	18.8324
1.9905	18.63098
1.991	14.40125
1.9915	24.27063
1.992	29.80957
1.9925	20.54443
1.993	30.31311
1.9935	26.3855
1.994	26.78833
1.9945	20.64514
1.995	23.16284
1.9955	21.3501
1.996	22.25647
1.9965	25.98267
1.997	22.86072
1.9975	22.05505
1.998	20.54443
1.9985	26.28479
1.999	36.85913
1.9995	35.54993
2	34.44214
2.0005	31.52161
2.001	30.11169
2.0015	20.74585
2.002	12.89062
2.0025	-1.2085
2.003	-4.53186
2.0035	-9.76868
2.004	-16.51611
2.0045	-13.49487
2.005	-18.73169
2.0055	-13.39417
2.006	-19.73877
2.0065	-16.3147
2.007	-18.32886
2.0075	-11.58142
2.008	-2.01416
2.0085	4.43115
2.009	19.53735
2.0095	42.09595
2.01	67.27295
2.0105	97.68677
2.011	105.23987
2.0115	113.69934
2.012	119.4397
2.0125	126.48926
2.013	137.0636
2.0135	140.38696
2.014	147.83936
2.0145	158.21228
2.015	167.37671
2.0155	179.05884
2.016	187.4176
2.0165	187.11548
2.017	174.92981
2.0175	145.62378
2.018	109.4696
2.0185	58.30994
2.019	-2.71912
2.0195	-69.68994
2.02	-135.65369
2.0205	-208.66699
2.021	-270.50171
2.0215	-302.12402
2.022	-327.30103
2.0225	-317.12952
2.023	-278.35693
2.0235	-240.99426
2.024	-188.6261
2.0245	-134.84802
2.025	-71.7041
2.0255	-12.48779
2.026	39.07471
2.0265	74.52393
2.027	108.05969
2.0275	130.51758
2.028	144.11316
2.0285	152.37122
2.029	148.4436
2.0295	133.3374
2.03	99.49951
2.0305	76.43738
2.031	49.64905
2.0315	15.71045
2.032	-21.45081
2.0325	-35.14709
2.033	-47.63489
2.0335	-64.35242
2.034	-71.50269
2.0345	-74.52393
2.035	-70.59631
2.0355	-53.37524
2.036	-43.40515
2.0365	-53.27454
2.037	-60.4248
2.0375	-52.8717
2.038	-30.81665
2.0385	-2.41699
2.039	21.24939
2.0395	43.90869
2.04	59.51843
2.0405	58.61206
2.041	54.38232
2.0415	33.73718
2.042	2.11487
2.0425	-28.19824
2.043	-59.41772
2.0435	-93.65845
2.044	-116.922
2.0445	-138.17139
2.045	-140.58838
2.0455	-138.97705
2.046	-124.37439
2.0465	-107.95898
2.047	-85.70251
2.0475	-58.20923
2.048	-32.7301
2.0485	-3.02124
2.049	28.9032
2.0495	49.0448
2.05	64.05029
2.0505	80.4657
2.051	92.75208
2.0515	106.24695
2.052	126.28784
2.0525	142.19971
2.053	161.93848
2.0535	195.57495
2.054	215.0116
2.0545	241.29639
2.055	271.20667
2.0555	278.75977
2.056	265.76843
2.0565	225.78735
2.057	175.53406
2.0575	112.59155
2.058	38.974
2.0585	-52.67029
2.059	-134.5459
2.0595	-210.78186
2.06	-277.14844
2.0605	-324.38049
2.061	-325.38757
2.0615	-312.39624
2.062	-270.70312
2.0625	-212.89673
2.063	-140.78979
2.0635	-65.15808
2.064	7.15027
2.0645	72.40906
2.065	123.2666
2.0655	153.27759
2.066	179.56238
2.0665	190.53955
2.067	186.30981
2.0675	162.84485
2.068	124.07227
2.0685	77.44446
2.069	28.9032
2.0695	-18.12744
2.07	-56.39648
2.0705	-101.01013
2.071	-123.77014
2.0715	-139.07776
2.072	-143.81104
2.0725	-146.22803
2.073	-121.75598
2.0735	-99.09668
2.074	-78.35083
2.0745	-60.82764
2.075	-30.71594
2.0755	5.0354
2.076	43.80798
2.0765	79.66003
2.077	117.02271
2.0775	142.60254
2.078	129.91333
2.0785	104.53491
2.079	73.11401
2.0795	39.77966
2.08	0.80566
2.0805	-33.53577
2.081	-69.28711
2.0815	-100.20447
2.082	-132.73315
2.0825	-156.39954
2.083	-163.04626
2.0835	-161.0321
2.084	-152.67334
2.0845	-143.00537
2.085	-141.39404
2.0855	-123.87085
2.086	-99.3988
2.0865	-79.76074
2.087	-53.77808
2.0875	-22.55859
2.088	29.50745
2.0885	75.22888
2.089	129.00696
2.0895	171.10291
2.09	207.35779
2.0905	211.08398
2.091	201.91956
2.0915	181.47583
2.092	151.46484
2.0925	111.48376
2.093	63.34534
2.0935	14.70337
2.094	-23.26355
2.0945	-49.95117
2.095	-52.16675
2.0955	-54.28162
2.096	-61.6333
2.0965	-54.98657
2.097	-49.34692
2.0975	-37.16125
2.098	-26.08337
2.0985	-25.78125
2.099	-5.74036
2.0995	25.37842
2.1	54.58374
2.1005	89.02588
2.101	115.10925
2.1015	135.04944
2.102	164.15405
2.1025	174.22485
2.103	171.90857
2.1035	173.82202
2.104	156.29883
2.1045	127.99988
2.105	104.63562
2.1055	73.51685
2.106	47.93701
2.1065	22.96143
2.107	4.33044
2.1075	-14.80408
2.108	-26.28479
2.1085	-33.83789
2.109	-40.78674
2.1095	-33.83789
2.11	-16.91895
2.1105	6.14319
2.111	-5.33752
2.1115	-12.78992
2.112	-34.54285
2.1125	-71.50269
2.113	-109.77173
2.1135	-147.73865
2.114	-201.61743
2.1145	-243.61267
2.115	-250.86365
2.1155	-250.76294
2.116	-241.4978
2.1165	-227.80151
2.117	-194.76929
2.1175	-163.04626
2.118	-142.30042
2.1185	-130.92041
2.119	-112.69226
2.1195	-87.61597
2.12	-76.33667
2.1205	-72.71118
2.121	-65.05737
2.1215	-40.08179
2.122	-12.18567
2.1225	31.92444
2.123	63.74817
2.1235	80.86853
2.124	102.92358
2.1245	116.01562
2.125	107.35474
2.1255	98.59314
2.126	84.59473
2.1265	69.58923
2.127	59.41772
2.1275	41.39099
2.128	34.74426
2.1285	45.41931
2.129	51.36108
2.1295	60.92834
2.13	78.35083
2.1305	108.36182
2.131	136.66077
2.1315	162.44202
2.132	156.80237
2.1325	144.11316
2.133	120.34607
2.1335	93.85986
2.134	55.99365
2.1345	19.13452
2.135	-22.96143
2.1355	-67.57507
2.136	-107.25403
2.1365	-145.52307
2.137	-172.41211
2.1375	-192.05017
2.138	-191.44592
2.1385	-174.72839
2.139	-143.60962
2.1395	-103.125
2.14	-48.03772
2.1405	3.8269
2.141	26.98975
2.1415	41.39099
2.142	51.76392
2.1425	59.71985
2.143	79.45862
2.1435	93.55774
2.144	103.02429
2.1445	106.34766
2.145	106.44836
2.1455	96.67969
2.146	73.71826
2.1465	39.67896
2.147	-3.52478
2.1475	-36.05347
2.148	-63.54675
2.1485	-97.38464
2.149	-113.59863
2.1495	-122.86377
2.15	-123.36731
2.1505	-108.66394
2.151	-71.09985
2.1515	-34.84497
2.152	13.19275
2.1525	53.87878
2.153	76.94092
2.1535	99.3988
2.154	101.01013
2.1545	109.16748
2.155	97.38464
2.1555	79.35791
2.156	52.97241
2.1565	25.27771
2.157	1.61133
2.1575	-23.56567
2.158	-54.0802
2.1585	-78.85437
2.159	-104.73633
2.1595	-108.46252
2.16	-87.21313
2.1605	-72.40906
2.161	-57.30286
2.1615	-30.51453
2.162	-6.74744
2.1625	14.40125
2.163	31.52161
2.1635	55.18799
2.164	87.51526
2.1645	123.77014
2.165	172.00928
2.1655	223.16895
2.166	282.9895
2.1665	335.55908
2.167	392.05627
2.1675	429.51965
2.168	451.77612
2.1685	451.07117
2.169	422.77222
2.1695	360.43396
2.17	253.17993
2.1705	119.54041
2.171	-24.27063
2.1715	-151.76697
2.172	-246.13037
2.1725	-309.07288
2.173	-321.9635
2.1735	-290.44189
2.174	-252.57568
2.1745	-190.74097
2.175	-122.86377
2.1755	-74.02039
2.176	-58.91418
2.1765	-59.82056
2.177	-71.90552
2.1775	-104.13208
2.178	-134.44519
2.1785	-147.23511
2.179	-139.37988
2.1795	-115.20996
2.18	-94.96765
2.1805	-72.30835
2.181	-45.62073
2.1815	-46.22498
2.182	-62.64038
2.1825	-78.35083
2.183	-111.18164
2.1835	-132.53174
2.184	-147.1344
2.1845	-151.16272
2.185	-141.99829
2.1855	-122.36023
2.186	-86.10535
2.1865	-45.92285
2.187	-5.63965
2.1875	27.6947
2.188	56.09436
2.1885	74.62463
2.189	78.95508
2.1895	78.25012
2.19	83.08411
2.1905	101.41296
2.191	109.97314
2.1915	115.61279
2.192	120.14465
2.1925	120.84961
2.193	121.15173
2.1935	121.85669
2.194	111.58447
2.1945	102.52075
2.195	77.44446
2.1955	42.49878
2.196	22.55859
2.1965	-12.5885
2.197	-40.88745
2.1975	-52.46887
2.198	-53.67737
2.1985	-51.5625
2.199	-25.78125
2.1995	2.01416
2.2	50.05188
2.2005	88.32092
2.201	94.46411
2.2015	96.67969
2.202	76.84021
2.2025	57.50427
2.203	41.29028
2.2035	15.81116
2.204	-0.80566
2.2045	-6.04248
2.205	0.40283
2.2055	-3.62549
2.206	-11.2793
2.2065	0
2.207	6.04248
2.2075	18.53027
2.208	53.47595
2.2085	106.64978
2.209	159.21936
2.2095	218.73779
2.21	279.1626
2.2105	294.87305
2.211	271.81091
2.2115	231.02417
2.212	170.80078
2.2125	73.41614
2.213	-41.18958
2.2135	-151.66626
2.214	-258.81958
2.2145	-321.76208
2.215	-337.87537
2.2155	-312.89978
2.216	-270.50171
2.2165	-223.16895
2.217	-111.08093
2.2175	-22.15576
2.218	34.84497
2.2185	102.21863
2.219	155.29175
2.2195	195.57495
2.22	230.52063
2.2205	255.59692
2.221	278.86047
2.2215	282.08313
2.222	257.8125
2.2225	212.79602
2.223	142.90466
2.2235	51.96533
2.224	-36.35559
2.2245	-150.65918
2.225	-253.78418
2.2255	-338.47961
2.226	-372.51892
2.2265	-353.78723
2.227	-319.64722
2.2275	-265.16418
2.228	-180.06592
2.2285	-68.58215
2.229	16.91895
2.2295	59.51843
2.23	91.24146
2.2305	105.03845
2.231	122.96448
2.2315	134.74731
2.232	141.39404
2.2325	130.21545
2.233	119.4397
2.2335	111.9873
2.234	87.41455
2.2345	55.89294
2.235	11.78284
2.2355	-29.40674
2.236	-90.73792
2.2365	-142.099
2.237	-176.64185
2.2375	-186.51123
2.238	-186.81335
2.2385	-164.7583
2.239	-138.07068
2.2395	-117.82837
2.24	-73.71826
2.2405	-39.27612
2.241	-6.04248
2.2415	37.26196
2.242	79.45862
2.2425	133.84094
2.243	166.87317
2.2435	176.74255
2.244	178.15247
2.2445	184.69849
2.245	165.26184
2.2455	134.94873
2.246	92.44995
2.2465	27.6947
2.247	-36.05347
2.2475	-105.13916
2.248	-156.80237
2.2485	-199.20044
2.249	-243.61267
2.2495	-274.93286
2.25	-260.02808
2.2505	-224.37744
2.251	-164.15405
2.2515	-88.62305
2.252	-3.8269
2.2525	81.7749
2.253	141.89758
2.2535	198.39478
2.254	240.59143
2.2545	274.53003
2.255	281.27747
2.2555	281.88171
2.256	253.48206
2.2565	192.25159
2.257	107.85828
2.2575	33.9386
2.258	-37.56409
2.2585	-104.23279
2.259	-142.30042
2.2595	-124.67651
2.26	-96.27686
2.2605	-54.88586
2.261	31.62231
2.2615	95.97473
2.262	112.99438
2.2625	105.13916
2.263	111.9873
2.2635	123.36731
2.264	138.3728
2.2645	174.52698
2.265	259.92737
2.2655	330.92651
2.266	406.86035
2.2665	493.97278
2.267	565.67688
2.2675	589.94751
2.268	567.08679
2.2685	468.49365
2.269	311.08704
2.2695	98.19031
2.27	-135.15015
2.2705	-373.92883
2.271	-583.09937
2.2715	-746.24634
2.272	-836.17859
2.2725	-878.27454
2.273	-832.5531
2.2735	-697.90649
2.274	-538.08289
2.2745	-374.02954
2.275	-217.32788
2.2755	-111.38306
2.276	-44.0094
2.2765	-7.15027
2.277	42.29736
2.2775	87.91809
2.278	116.51917
2.2785	140.18555
2.279	143.71033
2.2795	140.18555
2.28	155.09033
2.2805	170.19653
2.281	189.9353
2.2815	205.14221
2.282	217.93213
2.2825	218.43567
2.283	190.03601
2.2835	151.96838
2.284	61.6333
2.2845	-34.54285
2.285	-118.93616
2.2855	-205.84717
2.286	-294.36951
2.2865	-356.00281
2.287	-381.38123
2.2875	-372.41821
2.288	-331.83289
2.2885	-252.17285
2.289	-147.73865
2.2895	-82.07703
2.29	-26.08337
2.2905	9.46655
2.291	25.27771
2.2915	22.76001
2.292	29.70886
2.2925	37.46338
2.293	44.51294
2.2935	41.08887
2.294	39.67896
2.2945	39.77966
2.295	42.59949
2.2955	44.21082
2.296	46.32568
2.2965	50.2533
2.297	56.19507
2.2975	59.82056
2.298	57.60498
2.2985	52.16675
2.299	50.2533
2.2995	62.13684
2.3	64.85596
2.3005	71.90552
2.301	64.85596
2.3015	59.61914
2.302	41.4917
2.3025	31.72302
2.303	18.12744
2.3035	2.41699
2.304	-13.59558
2.3045	-10.77576
2.305	-3.8269
2.3055	-2.01416
2.306	10.0708
2.3065	35.95276
2.307	46.92993
2.3075	49.85046
2.308	52.8717
2.3085	54.58374
2.309	60.92834
2.3095	62.64038
2.31	60.3241
2.3105	57.20215
2.311	44.21082
2.3115	32.93152
2.312	21.85364
2.3125	8.25806
2.313	-0.10071
2.3135	-3.12195
2.314	-2.21558
2.3145	2.01416
2.315	12.18567
2.3155	11.58142
2.316	23.76709
2.3165	44.81506
2.317	88.72375
2.3175	131.82678
2.318	161.83777
2.3185	195.07141
2.319	258.41675
2.3195	308.1665
2.32	314.00757
2.3205	316.52527
2.321	305.5481
2.3215	282.38525
2.322	238.47656
2.3225	173.21777
2.323	100.6073
2.3235	15.60974
2.324	-75.73242
2.3245	-143.20679
2.325	-190.03601
2.3255	-221.85974
2.326	-247.23816
2.3265	-246.93604
2.327	-224.57886
2.3275	-182.18079
2.328	-148.64502
2.3285	-125.38147
2.329	-107.55615
2.3295	-106.9519
2.33	-93.15491
2.3305	-89.52942
2.331	-78.95508
2.3315	-80.4657
2.332	-68.58215
2.3325	-60.62622
2.333	-49.14551
2.3335	-37.86621
2.334	-30.11169
2.3345	-25.27771
2.335	-17.22107
2.3355	-10.87646
2.336	-9.36584
2.3365	-2.21558
2.337	2.11487
2.3375	1.61133
2.338	-3.42407
2.3385	-2.71912
2.339	6.44531
2.3395	13.39417
2.34	21.14868
2.3405	33.53577
2.341	63.94958
2.3415	93.65845
2.342	147.43652
2.3425	208.06274
2.343	249.85657
2.3435	266.17126
2.344	296.08154
2.3445	304.44031
2.345	280.97534
2.3455	237.36877
2.346	165.86609
2.3465	90.73792
2.347	12.48779
2.3475	-67.47437
2.348	-140.8905
2.3485	-214.40735
2.349	-259.52454
2.3495	-285.40649
2.35	-251.66931
2.3505	-191.44592
2.351	-127.69775
2.3515	-51.86462
2.352	21.04797
2.3525	63.14392
2.353	78.65295
2.3535	70.59631
2.354	52.67029
2.3545	14.19983
2.355	-32.83081
2.3555	-72.50977
2.356	-97.38464
2.3565	-116.82129
2.357	-115.00854
2.3575	-96.8811
2.358	-85.60181
2.3585	-49.54834
2.359	9.16443
2.3595	29.70886
2.36	43.30444
2.3605	49.14551
2.361	79.66003
2.3615	100.00305
2.362	109.87244
2.3625	115.20996
2.363	117.62695
2.3635	95.77332
2.364	66.6687
2.3645	31.21948
2.365	8.66089
2.3655	-5.94177
2.366	-22.76001
2.3665	-31.32019
2.367	-10.57434
2.3675	-8.96301
2.368	-13.49487
2.3685	-23.96851
2.369	-33.33435
2.3695	-43.00232
2.37	-48.33984
2.3705	-47.23206
2.371	-43.00232
2.3715	-47.7356
2.372	-40.58533
2.3725	-38.77258
2.373	-39.98108
2.3735	-35.14709
2.374	-14.50195
2.3745	-1.61133
2.375	5.63965
2.3755	8.15735
2.376	-0.80566
2.3765	-2.31628
2.377	-8.56018
2.3775	-4.43115
2.378	7.25098
2.3785	22.15576
2.379	32.52869
2.3795	42.39807
2.38	54.28162
2.3805	49.14551
2.381	45.11719
2.3815	41.29028
2.382	37.36267
2.3825	36.15417
2.383	22.86072
2.3835	11.58142
2.384	0.50354
2.3845	-13.797
2.385	-19.94019
2.3855	-13.99841
2.386	-18.02673
2.3865	-16.51611
2.387	18.8324
2.3875	79.76074
2.388	173.82202
2.3885	273.92578
2.389	346.13342
2.3895	374.23096
2.39	365.87219
2.3905	343.91785
2.391	269.0918
2.3915	180.06592
2.392	75.12817
2.3925	-30.01099
2.393	-109.3689
2.3935	-115.20996
2.394	-121.85669
2.3945	-124.57581
2.395	-119.03687
2.3955	-123.16589
2.396	-116.31775
2.3965	-72.10693
2.397	27.19116
2.3975	136.66077
2.398	220.44983
2.3985	268.08472
2.399	285.91003
2.3995	256.70471
2.4	166.16821
2.4005	94.3634
2.401	24.77417
2.4015	-56.5979
2.402	-131.52466
2.4025	-151.16272
2.403	-121.9574
2.4035	-100.40588
2.404	-85.19897
2.4045	-56.5979
2.405	-22.15576
2.4055	20.84656
2.406	19.43665
2.4065	-0.70496
2.407	-79.2572
2.4075	-181.47583
2.408	-273.12012
2.4085	-333.74634
2.409	-351.47095
2.4095	-360.33325
2.41	-338.58032
2.4105	-300.31128
2.411	-256.80542
2.4115	-196.58203
2.412	-131.62537
2.4125	-83.99048
2.413	-50.55542
2.4135	-33.9386
2.414	-14.70337
2.4145	8.96301
2.415	44.21082
2.4155	125.68359
2.416	198.39478
2.4165	254.18701
2.417	345.73059
2.4175	397.79663
2.418	453.89099
2.4185	541.40625
2.419	589.74609
2.4195	565.979
2.42	498.50464
2.4205	364.05945
2.421	196.68274
2.4215	3.92761
2.422	-199.30115
2.4225	-354.39148
2.423	-482.08923
2.4235	-572.82715
2.424	-615.0238
2.4245	-579.27246
2.425	-523.78235
2.4255	-499.81384
2.426	-423.57788
2.4265	-301.62048
2.427	-192.15088
2.4275	-125.18005
2.428	-65.46021
2.4285	-35.44922
2.429	-25.47913
2.4295	-22.76001
2.43	-10.37292
2.4305	9.16443
2.431	18.53027
2.4315	22.86072
2.432	32.42798
2.4325	40.2832
2.433	34.14001
2.4335	26.68762
2.434	23.56567
2.4345	24.27063
2.435	14.60266
2.4355	9.56726
2.436	6.04248
2.4365	11.58142
2.437	10.97717
2.4375	9.86938
2.438	13.49487
2.4385	21.14868
2.439	24.77417
2.4395	35.54993
2.44	37.7655
2.4405	44.81506
2.441	51.96533
2.4415	43.60657
2.442	42.39807
2.4425	38.16833
2.443	32.22656
2.4435	38.47046
2.444	40.58533
2.4445	50.354
2.445	46.62781
2.4455	38.06763
2.446	39.47754
2.4465	49.95117
2.447	58.51135
2.4475	89.42871
2.448	101.21155
2.4485	108.66394
2.449	109.06677
2.4495	107.45544
2.45	125.88501
2.4505	131.32324
2.451	115.81421
2.4515	101.8158
2.452	100.6073
2.4525	95.06836
2.453	86.40747
2.4535	115.81421
2.454	160.32715
2.4545	192.453
2.455	194.87
2.4555	193.15796
2.456	221.15479
2.4565	219.64417
2.457	202.22168
2.4575	158.4137
2.458	116.01562
2.4585	33.13293
2.459	-63.54675
2.4595	-163.14697
2.46	-250.46082
2.4605	-304.23889
2.461	-327.80457
2.4615	-321.76208
2.462	-257.51038
2.4625	-197.3877
2.463	-137.86926
2.4635	-69.89136
2.464	-19.63806
2.4645	4.02832
2.465	-18.22815
2.4655	-37.86621
2.466	-23.66638
2.4665	-3.8269
2.467	-13.797
2.4675	-20.84656
2.468	-37.56409
2.4685	-44.41223
2.469	-50.55542
2.4695	-60.02197
2.47	-51.26038
2.4705	-8.96301
2.471	85.90393
2.4715	268.89038
2.472	367.88635
2.4725	534.65881
2.473	745.23926
2.4735	838.49487
2.474	851.28479
2.4745	796.70105
2.475	653.19214
2.4755	432.23877
2.476	171.60645
2.4765	-122.15881
2.477	-402.22778
2.4775	-630.13
2.478	-815.43274
2.4785	-884.82056
2.479	-861.85913
2.4795	-769.81201
2.48	-561.95068
2.4805	-356.20422
2.481	-207.76062
2.4815	-14.80408
2.482	140.28625
2.4825	205.44434
2.483	211.38611
2.4835	195.77637
2.484	134.84802
2.4845	35.85205
2.485	-78.45154
2.4855	-171.90857
2.486	-240.28931
2.4865	-273.12012
2.487	-275.4364
2.4875	-284.80225
2.488	-288.83057
2.4885	-261.33728
2.489	-200.40894
2.4895	-144.91882
2.49	-71.30127
2.4905	5.13611
2.491	41.69312
2.4915	54.38232
2.492	64.85596
2.4925	75.83313
2.493	96.7804
2.4935	98.49243
2.494	81.17065
2.4945	69.48853
2.495	63.44604
2.4955	55.69153
2.496	39.07471
2.4965	7.45239
2.497	-13.69629
2.4975	1.3092
2.498	4.83398
2.4985	9.46655
2.499	32.12585
2.4995	54.18091
2.5	74.62463
2.5005	77.74658
2.501	73.71826
2.5015	79.35791
2.502	165.36255
2.5025	215.61584
2.503	250.86365
2.5035	265.76843
2.504	276.74561
2.5045	260.22949
2.505	215.91797
2.5055	164.65759
2.506	183.69141
2.5065	194.56787
2.507	154.18396
2.5075	77.54517
2.508	20.04089
2.5085	-41.79382
2.509	-123.77014
2.5095	-182.98645
2.51	-212.09106
2.5105	-214.20593
2.511	-204.33655
2.5115	-214.60876
2.512	-234.04541
2.5125	-236.26099
2.513	-238.47656
2.5135	-213.60168
2.514	-159.32007
2.5145	-116.82129
2.515	-79.55933
2.5155	-47.03064
2.516	-49.34692
2.5165	-58.10852
2.517	-49.34692
2.5175	-30.2124
2.518	-21.45081
2.5185	22.45789
2.519	128.20129
2.5195	196.68274
2.52	217.5293
2.5205	207.15637
2.521	204.13513
2.5215	220.34912
2.522	214.91089
2.5225	184.29565
2.523	171.30432
2.5235	207.5592
2.524	312.09412
2.5245	344.72351
2.525	313.40332
2.5255	230.52063
2.526	107.55615
2.5265	-2.21558
2.527	-91.44287
2.5275	-183.18787
2.528	-261.6394
2.5285	-334.75342
2.529	-368.4906
2.5295	-353.3844
2.53	-304.54102
2.5305	-266.17126
2.531	-208.26416
2.5315	-146.22803
2.532	-90.23438
2.5325	-30.31311
2.533	-0.70496
2.5335	-26.58691
2.534	-49.54834
2.5345	-61.83472
2.535	-59.92126
2.5355	-54.38232
2.536	-43.70728
2.5365	-27.89612
2.537	-15.91187
2.5375	-3.92761
2.538	-3.62549
2.5385	3.22266
2.539	11.38
2.5395	12.48779
2.54	14.60266
2.5405	17.52319
2.541	13.39417
2.5415	9.97009
2.542	11.38
2.5425	8.15735
2.543	9.76868
2.5435	9.26514
2.544	8.7616
2.5445	18.8324
2.545	24.27063
2.5455	32.93152
2.546	34.24072
2.5465	33.63647
2.547	27.29187
2.5475	31.21948
2.548	27.29187
2.5485	25.07629
2.549	39.57825
2.5495	84.79614
2.55	151.06201
2.5505	179.8645
2.551	182.88574
2.5515	157.30591
2.552	136.76147
2.5525	161.93848
2.553	167.77954
2.5535	144.11316
2.554	106.9519
2.5545	41.89453
2.555	-18.53027
2.5555	-79.35791
2.556	-146.02661
2.5565	-196.1792
2.557	-200.0061
2.5575	-172.41211
2.558	-121.25244
2.5585	-82.9834
2.559	-64.25171
2.5595	-48.64197
2.56	-23.8678
2.5605	12.78992
2.561	40.08179
2.5615	54.28162
2.562	62.23755
2.5625	57.10144
2.563	44.41223
2.5635	16.81824
2.564	-4.93469
2.5645	-31.82373
2.565	-44.11011
2.5655	-49.85046
2.566	-32.42798
2.5665	-6.74744
2.567	9.46655
2.5675	23.66638
2.568	32.32727
2.5685	35.65063
2.569	39.57825
2.5695	74.62463
2.57	124.57581
2.5705	152.47192
2.571	150.15564
2.5715	130.21545
2.572	112.89368
2.5725	71.09985
2.573	21.24939
2.5735	-25.07629
2.574	-56.90002
2.5745	-88.72375
2.575	-106.44836
2.5755	-101.11084
2.576	-12.08496
2.5765	195.67566
2.577	315.01465
2.5775	361.13892
2.578	348.04688
2.5785	299.50562
2.579	206.55212
2.5795	72.61047
2.58	-63.44604
2.5805	-173.72131
2.581	-203.7323
2.5815	-227.90222
2.582	-172.51282
2.5825	-120.84961
2.583	-88.0188
2.5835	-28.70178
2.584	-7.15027
2.5845	5.43823
2.585	18.02673
2.5855	-21.65222
2.586	-86.91101
2.5865	-146.73157
2.587	-185.00061
2.5875	-183.5907
2.588	-181.97937
2.5885	-162.13989
2.589	-147.23511
2.5895	-107.15332
2.59	-39.98108
2.5905	76.94092
2.591	203.22876
2.5915	357.61414
2.592	451.27258
2.5925	451.27258
2.593	394.67468
2.5935	301.41907
2.594	176.23901
2.5945	75.63171
2.595	-30.71594
2.5955	-159.82361
2.596	-249.45374
2.5965	-312.89978
2.597	-316.42456
2.5975	-295.47729
2.598	-283.69446
2.5985	-241.29639
2.599	-193.35938
2.5995	-149.95422
2.6	-98.79456
2.6005	-61.33118
2.601	-49.54834
2.6015	-54.58374
2.602	-54.88586
2.6025	-45.2179
2.603	-48.03772
2.6035	-55.49011
2.604	-49.95117
2.6045	-38.26904
2.605	-21.04797
2.6055	-6.14319
2.606	8.8623
2.6065	19.33594
2.607	18.73169
2.6075	18.73169
2.608	20.54443
2.6085	22.55859
2.609	19.53735
2.6095	15.40833
2.61	20.84656
2.6105	21.14868
2.611	22.6593
2.6115	22.96143
2.612	10.0708
2.6125	13.89771
2.613	14.80408
2.6135	9.36584
2.614	8.45947
2.6145	15.00549
2.615	25.07629
2.6155	66.97083
2.616	99.09668
2.6165	109.97314
2.617	113.29651
2.6175	116.31775
2.618	109.97314
2.6185	103.93066
2.619	115.51208
2.6195	188.92822
2.62	296.18225
2.6205	312.29553
2.621	273.32153
2.6215	206.85425
2.622	153.27759
2.6225	96.37756
2.623	37.56409
2.6235	18.22815
2.624	-10.97717
2.6245	-47.7356
2.625	-84.49402
2.6255	-130.8197
2.626	-174.12415
2.6265	-203.12805
2.627	-205.0415
2.6275	-190.94238
2.628	-168.38379
2.6285	-137.56714
2.629	-131.02112
2.6295	-133.74023
2.63	-130.51758
2.6305	-86.60889
2.631	-31.62231
2.6315	-15.1062
2.632	7.15027
2.6325	28.80249
2.633	28.9032
2.6335	0.80566
2.634	-27.49329
2.6345	-40.48462
2.635	-43.70728
2.6355	-43.70728
2.636	-30.71594
2.6365	-21.75293
2.637	-4.12903
2.6375	0.70496
2.638	16.61682
2.6385	89.83154
2.639	141.59546
2.6395	153.57971
2.64	148.24219
2.6405	130.01404
2.641	106.14624
2.6415	78.25012
2.642	44.21082
2.6425	7.95593
2.643	-20.54443
2.6435	-45.92285
2.644	-54.58374
2.6445	-20.04089
2.645	84.79614
2.6455	178.5553
2.646	269.29321
2.6465	475.24109
2.647	671.21887
2.6475	727.11182
2.648	683.00171
2.6485	571.71936
2.649	420.15381
2.6495	233.03833
2.65	51.96533
2.6505	-66.6687
2.651	-85.09827
2.6515	-122.86377
2.652	-187.31689
2.6525	-255.2948
2.653	-304.74243
2.6535	-376.14441
2.654	-438.28125
2.6545	-446.13647
2.655	-429.41895
2.6555	-411.69434
2.656	-410.98938
2.6565	-410.88867
2.657	-370.30334
2.6575	-312.39624
2.658	-252.17285
2.6585	-182.98645
2.659	-123.46802
2.6595	-66.97083
2.66	-8.8623
2.6605	22.05505
2.661	47.43347
2.6615	106.9519
2.662	164.15405
2.6625	188.82751
2.663	233.23975
2.6635	304.84314
2.664	459.22852
2.6645	542.11121
2.665	494.2749
2.6655	389.23645
2.666	235.35461
2.6665	93.15491
2.667	-27.89612
2.6675	-166.0675
2.668	-271.30737
2.6685	-371.61255
2.669	-409.27734
2.6695	-388.12866
2.67	-355.39856
2.6705	-292.85889
2.671	-184.59778
2.6715	-65.86304
2.672	28.39966
2.6725	92.44995
2.673	93.45703
2.6735	95.67261
2.674	113.09509
2.6745	149.34998
2.675	173.31848
2.6755	172.51282
2.676	142.40112
2.6765	89.12659
2.677	68.28003
2.6775	99.90234
2.678	157.70874
2.6785	163.34839
2.679	131.12183
2.6795	98.89526
2.68	66.46729
2.6805	6.44531
2.681	-74.72534
2.6815	-147.33582
2.682	-184.19495
2.6825	-209.47266
2.683	-232.33337
2.6835	-228.30505
2.684	-218.23425
2.6845	-228.60718
2.685	-236.05957
2.6855	-197.79053
2.686	-123.77014
2.6865	-44.41223
2.687	-26.48621
2.6875	-37.66479
2.688	-39.37683
2.6885	-31.4209
2.689	-27.79541
2.6895	-18.02673
2.69	7.35168
2.6905	28.29895
2.691	39.37683
2.6915	49.34692
2.692	47.7356
2.6925	50.65613
2.693	45.41931
2.6935	49.34692
2.694	54.88586
2.6945	46.42639
2.695	40.98816
2.6955	36.15417
2.696	39.37683
2.6965	37.86621
2.697	38.36975
2.6975	33.23364
2.698	35.2478
2.6985	36.15417
2.699	70.19348
2.6995	103.52783
2.7	111.28235
2.7005	133.43811
2.701	238.17444
2.7015	601.1261
2.702	898.91968
2.7025	994.18945
2.703	907.47986
2.7035	724.09058
2.704	496.7926
2.7045	234.14612
2.705	-43.20374
2.7055	-297.08862
2.706	-515.32288
2.7065	-686.52649
2.707	-760.44617
2.7075	-743.32581
2.708	-599.41406
2.7085	-405.04761
2.709	-245.52612
2.7095	-83.99048
2.71	43.70728
2.7105	75.4303
2.711	8.8623
2.7115	2.21558
2.712	50.354
2.7125	71.90552
2.713	62.8418
2.7135	23.96851
2.714	4.53186
2.7145	3.42407
2.715	-26.48621
2.7155	-48.03772
2.716	-80.36499
2.7165	-62.13684
2.717	5.33752
2.7175	70.09277
2.718	123.77014
2.7185	135.55298
2.719	151.06201
2.7195	141.49475
2.72	111.68518
2.7205	80.06287
2.721	32.93152
2.7215	-6.2439
2.722	110.27527
2.7225	164.95972
2.723	159.21936
2.7235	165.16113
2.724	119.03687
2.7245	45.2179
2.725	-41.18958
2.7255	-77.74658
2.726	-50.05188
2.7265	-25.68054
2.727	-93.15491
2.7275	-172.81494
2.728	-239.68506
2.7285	-283.89587
2.729	-299.50562
2.7295	-273.42224
2.73	-158.01086
2.7305	-9.86938
2.731	215.61584
2.7315	604.24805
2.732	913.52234
2.7325	992.57812
2.733	890.66162
2.7335	680.98755
2.734	385.51025
2.7345	67.17224
2.735	-232.33337
2.7355	-417.43469
2.736	-468.59436
2.7365	-186.1084
2.737	48.54126
2.7375	145.42236
2.738	165.66467
2.7385	189.12964
2.739	278.35693
2.7395	228.9093
2.74	80.66711
2.7405	-127.09351
2.741	-366.37573
2.7415	-621.87195
2.742	-811.60583
2.7425	-950.58289
2.743	-916.8457
2.7435	-766.48865
2.744	-450.46692
2.7445	-166.87317
2.745	2.41699
2.7455	126.48926
2.746	410.38513
2.7465	536.16943
2.747	566.48254
2.7475	538.48572
2.748	447.7478
2.7485	278.35693
2.749	100.80872
2.7495	-94.56482
2.75	-285.80933
2.7505	-464.16321
2.751	-558.4259
2.7515	-526.50146
2.752	-463.96179
2.7525	-410.98938
2.753	-323.67554
2.7535	-209.06982
2.754	-99.70093
2.7545	-66.46729
2.755	-89.63013
2.7555	-129.71191
2.756	-135.15015
2.7565	-158.91724
2.757	-191.44592
2.7575	-210.27832
2.758	-207.25708
2.7585	-187.21619
2.759	-133.84094
2.7595	-74.52393
2.76	-21.85364
2.7605	79.96216
2.761	185.60486
2.7615	283.49304
2.762	449.35913
2.7625	511.49597
2.763	459.93347
2.7635	343.71643
2.764	217.12646
2.7645	102.21863
2.765	-22.05505
2.7655	-146.93298
2.766	-235.55603
2.7665	-309.57642
2.767	-342.70935
2.7675	-329.01306
2.768	-249.55444
2.7685	-111.78589
2.769	-21.75293
2.7695	64.151
2.77	129.91333
2.7705	143.10608
2.771	111.08093
2.7715	20.94727
2.772	-46.32568
2.7725	-78.14941
2.773	-101.31226
2.7735	-72.40906
2.774	15.00549
2.7745	118.63403
2.775	234.95178
2.7755	272.51587
2.776	269.59534
2.7765	305.85022
2.777	471.51489
2.7775	716.94031
2.778	775.75378
2.7785	734.4635
2.779	826.61133
2.7795	949.97864
2.78	1095.09888
2.7805	1281.00586
2.781	1307.39136
2.7815	1107.88879
2.782	722.27783
2.7825	245.12329
2.783	-259.82666
2.7835	-690.95764
2.784	-1021.68274
2.7845	-1282.01294
2.785	-1422.29919
2.7855	-1349.99084
2.786	-1074.55444
2.7865	-801.43433
2.787	-461.44409
2.7875	-165.9668
2.788	-17.82532
2.7885	-12.48779
2.789	9.56726
2.7895	30.71594
2.79	10.87646
2.7905	-15.40833
2.791	-88.72375
2.7915	-191.94946
2.792	-242.80701
2.7925	-295.98083
2.793	-311.18774
2.7935	-289.03198
2.794	-317.43164
2.7945	-357.61414
2.795	-343.61572
2.7955	8.25806
2.796	411.49292
2.7965	814.9292
2.797	1086.74011
2.7975	1161.96899
2.798	1036.2854
2.7985	782.1991
2.799	436.26709
2.7995	37.26196
2.8	-322.97058
2.8005	-646.4447
2.801	-886.73401
2.8015	-1047.16187
2.802	-1090.96985
2.8025	-1038.09814
2.803	-895.29419
2.8035	-713.21411
2.804	-509.2804
2.8045	-312.39624
2.805	-114.70642
2.8055	127.89917
2.806	233.9447
2.8065	326.69678
2.807	531.33545
2.8075	627.5116
2.808	582.99866
2.8085	432.6416
2.809	249.95728
2.8095	78.45154
2.81	-110.27527
2.8105	-268.68896
2.811	-361.03821
2.8115	-365.26794
2.812	-342.30652
2.8125	-330.82581
2.813	-330.82581
2.8135	-269.39392
2.814	-154.48608
2.8145	-41.4917
2.815	50.15259
2.8155	98.99597
2.816	117.62695
2.8165	110.47668
2.817	220.55054
2.8175	378.46069
2.818	532.74536
2.8185	652.89001
2.819	694.68384
2.8195	643.72559
2.82	505.5542
2.8205	288.12561
2.821	85.40039
2.8215	-98.19031
2.822	-192.453
2.8225	-249.55444
2.823	-333.54492
2.8235	-400.41504
2.824	-433.04443
2.8245	-412.19788
2.825	-348.85254
2.8255	-263.45215
2.826	-204.03442
2.8265	-166.97388
2.827	-112.49084
2.8275	-69.68994
2.828	-46.92993
2.8285	-39.98108
2.829	-24.06921
2.8295	0.20142
2.83	36.65771
2.8305	76.7395
2.831	88.92517
2.8315	90.13367
2.832	100.90942
2.8325	81.87561
2.833	71.60339
2.8335	70.69702
2.834	66.97083
2.8345	62.33826
2.835	194.06433
2.8355	340.59448
2.836	438.98621
2.8365	522.17102
2.837	572.32361
2.8375	630.43213
2.838	599.51477
2.8385	575.04272
2.839	473.22693
2.8395	306.65588
2.84	139.48059
2.8405	-16.71753
2.841	-188.42468
2.8415	-252.87781
2.842	-249.45374
2.8425	-239.88647
2.843	-247.23816
2.8435	-240.79285
2.844	-199.50256
2.8445	-141.69617
2.845	-83.78906
2.8455	55.49011
2.846	262.64648
2.8465	272.31445
2.847	292.95959
2.8475	555.00183
2.848	963.77563
2.8485	1281.00586
2.849	1348.27881
2.8495	1239.11133
2.85	947.46094
2.8505	587.53052
2.851	288.62915
2.8515	-2.5177
2.852	-332.33643
2.8525	-672.42737
2.853	-950.48218
2.8535	-1210.40955
2.854	-1324.00818
2.8545	-1242.23328
2.855	-976.36414
2.8555	-732.34863
2.856	-607.77283
2.8565	-567.28821
2.857	-535.66589
2.8575	-473.12622
2.858	-434.95789
2.8585	-388.43079
2.859	-324.4812
2.8595	-253.48206
2.86	-192.05017
2.8605	-151.56555
2.861	-130.31616
2.8615	-94.06128
2.862	40.08179
2.8625	167.88025
2.863	322.46704
2.8635	566.48254
2.864	696.49658
2.8645	773.94104
2.865	929.73633
2.8655	888.04321
2.866	747.85767
2.8665	513.1073
2.867	275.63782
2.8675	40.68604
2.868	-186.81335
2.8685	-383.39539
2.869	-535.06165
2.8695	-652.08435
2.87	-676.95923
2.8705	-569.7052
2.871	-481.18286
2.8715	-442.10815
2.872	-371.20972
2.8725	-192.453
2.873	-11.58142
2.8735	329.91943
2.874	611.70044
2.8745	643.82629
2.875	473.42834
2.8755	209.57336
2.876	-59.51843
2.8765	-257.00684
2.877	-412.09717
2.8775	-527.005
2.878	-576.0498
2.8785	-566.18042
2.879	-533.14819
2.8795	-464.56604
2.88	-403.03345
2.8805	-298.39783
2.881	-161.0321
2.8815	-4.02832
2.882	101.31226
2.8825	167.07458
2.883	171.70715
2.8835	175.73547
2.884	189.23035
2.8845	199.30115
2.885	166.47034
2.8855	163.85193
2.886	169.7937
2.8865	143.60962
2.887	99.19739
2.8875	34.94568
2.888	-34.03931
2.8885	-94.16199
2.889	-124.67651
2.8895	-126.9928
2.89	-104.3335
2.8905	-61.93542
2.891	-28.19824
2.8915	7.45239
2.892	44.71436
2.8925	91.64429
2.893	100.40588
2.8935	117.02271
2.894	150.15564
2.8945	222.16187
2.895	350.46387
2.8955	619.45496
2.896	868.20374
2.8965	923.19031
2.897	876.66321
2.8975	783.60901
2.898	629.22363
2.8985	420.15381
2.899	271.6095
2.8995	180.97229
2.9	-6.94885
2.9005	-169.99512
2.901	-313.00049
2.9015	-438.78479
2.902	-517.33704
2.9025	-551.87988
2.903	-498.70605
2.9035	-411.59363
2.904	-330.62439
2.9045	-188.92822
2.905	-65.3595
2.9055	102.42004
2.906	201.81885
2.9065	220.34912
2.907	237.87231
2.9075	217.42859
2.908	139.78271
2.9085	2.01416
2.909	-136.56006
2.9095	-274.93286
2.91	-431.13098
2.9105	-529.11987
2.911	-525.19226
2.9115	-454.39453
2.912	-323.87695
2.9125	-188.22327
2.913	-135.65369
2.9135	-127.29492
2.914	-114.00146
2.9145	-90.93933
2.915	-80.56641
2.9155	-62.13684
2.916	-53.37524
2.9165	-13.99841
2.917	191.04309
2.9175	361.94458
2.918	497.39685
2.9185	631.3385
2.919	631.94275
2.9195	560.9436
2.92	401.12
2.9205	220.75195
2.921	69.99207
2.9215	-29.70886
2.922	-38.16833
2.9225	207.65991
2.923	454.99878
2.9235	577.66113
2.924	567.38892
2.9245	513.81226
2.925	407.06177
2.9255	271.6095
2.926	57.9071
2.9265	-144.51599
2.927	-192.95654
2.9275	-306.45447
2.928	-486.01685
2.9285	-661.85303
2.929	-758.83484
2.9295	-695.18738
2.93	-262.74719
2.9305	163.4491
2.931	342.20581
2.9315	464.46533
2.932	439.08691
2.9325	312.19482
2.933	250.76294
2.9335	131.32324
2.934	-54.0802
2.9345	-271.20667
2.935	-445.53223
2.9355	-566.48254
2.936	-658.9325
2.9365	-713.41553
2.937	-693.97888
2.9375	-677.76489
2.938	-596.79565
2.9385	-455.40161
2.939	-321.35925
2.9395	-264.66064
2.94	-247.33887
2.9405	-231.427
2.941	-206.55212
2.9415	-157.91016
2.942	-95.97473
2.9425	17.82532
2.943	95.16907
2.9435	136.45935
2.944	195.27283
2.9445	234.75037
2.945	265.86914
2.9455	346.13342
2.946	358.62122
2.9465	330.82581
2.947	290.74402
2.9475	246.23108
2.948	234.75037
2.9485	230.01709
2.949	171.30432
2.9495	79.96216
2.95	-10.27222
2.9505	-76.03455
2.951	-133.3374
2.9515	-189.53247
2.952	-190.84167
2.9525	-175.53406
2.953	-147.94006
2.9535	-141.19263
2.954	-165.16113
2.9545	-146.93298
2.955	-87.91809
2.9555	-28.9032
2.956	30.51453
2.9565	63.44604
2.957	73.51685
2.9575	78.55225
2.958	68.48145
2.9585	63.04321
2.959	77.14233
2.9595	93.45703
2.96	126.58997
2.9605	303.0304
2.961	446.53931
2.9615	502.13013
2.962	491.85791
2.9625	415.42053
2.963	295.07446
2.9635	136.25793
2.964	-17.01965
2.9645	-168.08167
2.965	-291.24756
2.9655	-376.74866
2.966	-406.96106
2.9665	-346.13342
2.967	-113.29651
2.9675	367.68494
2.968	767.39502
2.9685	978.98254
2.969	974.34998
2.9695	781.09131
2.97	526.50146
2.9705	237.6709
2.971	-45.82214
2.9715	-233.64258
2.972	-277.24915
2.9725	-245.82825
2.973	-217.22717
2.9735	-246.83533
2.974	-332.0343
2.9745	-413.30566
2.975	-443.61877
2.9755	-435.05859
2.976	-427.20337
2.9765	-427.70691
2.977	-447.14355
2.9775	-464.96887
2.978	-474.33472
2.9785	-430.72815
2.979	-270.401
2.9795	-140.58838
2.98	-55.99365
2.9805	10.57434
2.981	40.08179
2.9815	93.45703
2.982	167.47742
2.9825	374.02954
2.983	515.32288
2.9835	579.37317
2.984	655.81055
2.9845	777.06299
2.985	716.8396
2.9855	517.13562
2.986	243.91479
2.9865	-26.68762
2.987	-264.96277
2.9875	-520.86182
2.988	-698.41003
2.9885	-783.40759
2.989	-731.64368
2.9895	-600.01831
2.99	-389.13574
2.9905	-92.04712
2.991	571.21582
2.9915	1093.68896
2.992	1250.59204
2.9925	1212.42371
2.993	1143.94226
2.9935	944.64111
2.994	675.44861
2.9945	403.6377
2.995	93.75916
2.9955	-242.20276
2.996	-546.03882
2.9965	-789.85291
2.997	-959.04236
2.9975	-991.26892
2.998	-926.31226
2.9985	-799.62158
2.999	-601.62964
2.9995	-431.23169
3	-250.56152
3.0005	-145.8252
3.001	-107.85828
3.0015	-89.42871
3.002	-38.26904
3.0025	7.95593
3.003	39.77966
3.0035	62.33826
3.004	29.91028
3.0045	-5.63965
3.005	223.16895
3.0055	527.10571
3.006	608.47778
3.0065	549.46289
3.007	447.94922
3.0075	380.17273
3.008	399.10583
3.0085	419.95239
3.009	367.48352
3.0095	325.08545
3.01	371.41113
3.0105	583.30078
3.011	702.63977
3.0115	881.49719
3.012	1000.83618
3.0125	1053.9093
3.013	1033.86841
3.0135	1044.74487
3.014	990.06042
3.0145	756.61926
3.015	263.65356
3.0155	-346.63696
3.016	-881.90002
3.0165	-1296.91772
3.017	-1609.11255
3.0175	-1843.35938
3.018	-1908.51746
3.0185	-1769.64111
3.019	-1562.28333
3.0195	-1271.53931
3.02	-1037.09106
3.0205	-856.01807
3.021	-668.29834
3.0215	-501.32446
3.022	-352.67944
3.0225	-142.19971
3.023	94.06128
3.0235	164.45618
3.024	174.22485
3.0245	217.73071
3.025	282.38525
3.0255	224.37744
3.026	119.94324
3.0265	29.40674
3.027	-19.73877
3.0275	69.89136
3.028	177.14539
3.0285	222.86682
3.029	196.98486
3.0295	128.20129
3.03	48.54126
3.0305	80.66711
3.031	138.57422
3.0315	122.66235
3.032	70.19348
3.0325	15.60974
3.033	-45.3186
3.0335	134.5459
3.034	477.8595
3.0345	834.36584
3.035	971.83228
3.0355	911.10535
3.036	731.74438
3.0365	490.64941
3.037	237.46948
3.0375	10.77576
3.038	-121.9574
3.0385	-245.224
3.039	-353.3844
3.0395	-475.3418
3.04	-632.34558
3.0405	-757.82776
3.041	-738.59253
3.0415	-646.34399
3.042	-444.62585
3.0425	-247.03674
3.043	-94.16199
3.0435	91.94641
3.044	278.45764
3.0445	537.57935
3.045	627.71301
3.0455	578.5675
3.046	649.26453
3.0465	752.79236
3.047	640.80505
3.0475	473.73047
3.048	239.88647
3.0485	-17.22107
3.049	-203.93372
3.0495	-352.78015
3.05	-456.5094
3.0505	-569.00024
3.051	-672.93091
3.0515	-740.00244
3.052	-776.55945
3.0525	-732.04651
3.053	-598.20557
3.0535	-447.14355
3.054	-289.2334
3.0545	-153.57971
3.055	15.40833
3.0555	129.5105
3.056	178.25317
3.0565	208.16345
3.057	222.96753
3.0575	223.37036
3.058	165.56396
3.0585	110.47668
3.059	149.45068
3.0595	244.51904
3.06	357.81555
3.0605	561.84998
3.061	691.96472
3.0615	678.36914
3.062	581.99158
3.0625	367.78564
3.063	93.25562
3.0635	-140.38696
3.064	-304.54102
3.0645	-383.79822
3.065	-469.29932
3.0655	-422.87292
3.066	-248.04382
3.0665	33.13293
3.067	495.68481
3.0675	771.62476
3.068	885.4248
3.0685	914.63013
3.069	871.02356
3.0695	749.97253
3.07	540.70129
3.0705	297.69287
3.071	24.06921
3.0715	-212.09106
3.072	-305.5481
3.0725	-336.36475
3.073	-352.88086
3.0735	-380.47485
3.074	-354.5929
3.0745	-143.20679
3.075	70.29419
3.0755	138.27209
3.076	60.3241
3.0765	-20.94727
3.077	-211.58752
3.0775	-491.15295
3.078	-711.70349
3.0785	-836.07788
3.079	-799.01733
3.0795	-567.28821
3.08	-184.29565
3.0805	361.03821
3.081	751.48315
3.0815	873.03772
3.082	863.87329
3.0825	796.80176
3.083	636.47461
3.0835	451.57471
3.084	254.99268
3.0845	-23.46497
3.085	-323.97766
3.0855	-541.90979
3.086	-685.72083
3.0865	-733.05359
3.087	-746.14563
3.0875	-706.7688
3.088	-348.44971
3.0885	27.09045
3.089	186.61194
3.0895	192.75513
3.09	118.2312
3.0905	-41.4917
3.091	-175.13123
3.0915	-343.61572
3.092	-530.93262
3.0925	-649.56665
3.093	-704.85535
3.0935	-651.07727
3.094	-629.22363
3.0945	-611.49902
3.095	-530.32837
3.0955	-326.09253
3.096	-142.19971
3.0965	56.5979
3.097	292.55676
3.0975	432.33948
3.098	495.28198
3.0985	517.23633
3.099	493.56995
3.0995	371.81396
3.1	317.83447
3.1005	293.56384
3.101	268.08472
3.1015	213.40027
3.102	130.51758
3.1025	72.50977
3.103	10.27222
3.1035	-57.10144
3.104	-20.04089
3.1045	260.3302
3.105	596.29211
3.1055	935.98022
3.106	1061.26099
3.1065	957.53174
3.107	763.66882
3.1075	503.23792
3.108	253.88489
3.1085	2.01416
3.109	-214.50806
3.1095	-425.18921
3.11	-634.56116
3.1105	-779.07715
3.111	-848.26355
3.1115	-813.31787
3.112	-655.50842
3.1125	-506.05774
3.113	-388.12866
3.1135	-254.38843
3.114	-86.60889
3.1145	223.8739
3.115	516.63208
3.1155	631.84204
3.116	763.56812
3.1165	806.46973
3.117	697.60437
3.1175	531.43616
3.118	371.61255
3.1185	155.69458
3.119	-87.11243
3.1195	-275.03357
3.12	-437.17346
3.1205	-593.27087
3.121	-675.85144
3.1215	-693.47534
3.122	-472.72339
3.1225	-163.85193
3.123	65.46021
3.1235	377.65503
3.124	620.26062
3.1245	682.49817
3.125	620.76416
3.1255	513.51013
3.126	593.47229
3.1265	615.62805
3.127	569.90662
3.1275	418.03894
3.128	151.16272
3.1285	-204.23584
3.129	-511.7981
3.1295	-733.85925
3.13	-772.83325
3.1305	-467.8894
3.131	131.42395
3.1315	700.82703
3.132	926.21155
3.1325	1311.62109
3.133	1468.82629
3.1335	1377.48413
3.134	1008.48999
3.1345	574.23706
3.135	71.30127
3.1355	-457.21436
3.136	-837.48779
3.1365	-1194.19556
3.137	-1485.64453
3.1375	-1660.77576
3.138	-1569.73572
3.1385	-1290.77454
3.139	-928.22571
3.1395	-528.01208
3.14	-199.60327
3.1405	43.60657
3.141	81.57349
3.1415	-36.05347
3.142	-172.3114
3.1425	-196.48132
3.143	-238.87939
3.1435	-368.69202
3.144	-447.7478
3.1445	-487.62817
3.145	-479.67224
3.1455	-162.2406
3.146	243.51196
3.1465	581.28662
3.147	843.02673
3.1475	1099.53003
3.148	1251.49841
3.1485	1089.76135
3.149	713.51624
3.1495	335.05554
3.15	46.42639
3.1505	-236.56311
3.151	-406.45752
3.1515	-506.7627
3.152	-542.81616
3.1525	-555.9082
3.153	-500.21667
3.1535	-442.61169
3.154	-318.94226
3.1545	-305.5481
3.155	-290.24048
3.1555	132.73315
3.156	898.71826
3.1565	1673.16284
3.157	2231.48804
3.1575	2307.01904
3.158	2104.09229
3.1585	1605.9906
3.159	981.50024
3.1595	303.33252
3.16	-339.68811
3.1605	-941.922
3.161	-1514.1449
3.1615	-1665.30762
3.162	-1753.125
3.1625	-1462.88452
3.163	-1015.74097
3.1635	-617.74292
3.164	-80.06287
3.1645	613.31177
3.165	941.21704
3.1655	983.21228
3.166	716.13464
3.1665	550.57068
3.167	336.06262
3.1675	-31.32019
3.168	-442.30957
3.1685	-806.46973
3.169	-1035.27832
3.1695	-1115.34119
3.17	-1140.6189
3.1705	-1098.92578
3.171	-1090.46631
3.1715	-1028.02734
3.172	-839.30054
3.1725	-564.16626
3.173	-257.71179
3.1735	-69.58923
3.174	33.23364
3.1745	250.2594
3.175	386.31592
3.1755	446.4386
3.176	307.56226
3.1765	37.06055
3.177	-202.22168
3.1775	-381.58264
3.178	-549.86572
3.1785	-706.06384
3.179	-807.07397
3.1795	-752.79236
3.18	-534.15527
3.1805	61.43188
3.181	1019.46716
3.1815	2102.17896
3.182	3131.01196
3.1825	3296.4751
3.183	3280.86548
3.1835	2851.64795
3.184	1936.01074
3.1845	851.68762
3.185	-197.4884
3.1855	-1178.88794
3.186	-1984.85413
3.1865	-2596.35303
3.187	-3027.88696
3.1875	-3142.79468
3.188	-2918.9209
3.1885	-2582.75757
3.189	-2074.58496
3.1895	-1395.30945
3.19	-620.66345
3.1905	147.33582
3.191	838.99841
3.1915	1216.35132
3.192	1215.24353
3.1925	1052.80151
3.193	821.47522
3.1935	718.55164
3.194	969.31458
3.1945	1401.55334
3.195	2066.72974
3.1955	2363.71753
3.196	2384.36279
3.1965	2079.31812
3.197	1557.65076
3.1975	931.04553
3.198	227.09656
3.1985	-420.35522
3.199	-1093.58826
3.1995	-1785.8551
3.2	-2330.98755
3.2005	-2627.97534
3.201	-2724.15161
3.2015	-2379.02515
3.202	-1440.32593
3.2025	-273.32153
3.203	570.20874
3.2035	1320.4834
3.204	1742.75208
3.2045	1812.74414
3.205	1568.82935
3.2055	1093.48755
3.206	576.45264
3.2065	211.08398
3.207	-127.79846
3.2075	-261.03516
3.208	-336.46545
3.2085	-461.34338
3.209	-553.49121
3.2095	-638.18665
3.21	-802.13928
3.2105	-937.08801
3.211	-931.54907
3.2115	-833.05664
3.212	-503.54004
3.2125	-170.39795
3.213	31.11877
3.2135	431.63452
3.214	598.30627
3.2145	635.36682
3.215	636.17249
3.2155	528.2135
3.216	536.47156
3.2165	842.92603
3.217	984.52148
3.2175	762.46033
3.218	368.59131
3.2185	-164.15405
3.219	-718.45093
3.2195	-1083.31604
3.22	-1277.38037
3.2205	-1250.59204
3.221	-969.51599
3.2215	231.12488
3.222	1518.17322
3.2225	2436.83154
3.223	2758.79517
3.2235	2685.78174
3.224	2651.13818
3.2245	3075.82397
3.225	3169.58301
3.2255	2505.71582
3.226	1595.71838
3.2265	599.11194
3.227	-229.51355
3.2275	-770.41626
3.228	-1312.32605
3.2285	-1845.57495
3.229	-2262.5061
3.2295	-2513.77246
3.23	-2689.91089
3.2305	-2757.78809
3.231	-2737.44507
3.2315	-2607.02808
3.232	-2471.57593
3.2325	-2379.73022
3.233	-2170.25757
3.2335	-1879.11072
3.234	-1526.63269
3.2345	-1209.60388
3.235	-917.65137
3.2355	-717.14172
3.236	-584.71069
3.2365	-258.31604
3.237	205.64575
3.2375	803.54919
3.238	1201.34583
3.2385	1376.47705
3.239	1578.59802
3.2395	2273.38257
3.24	2711.36157
3.2405	2845.80688
3.241	2726.66919
3.2415	2196.1394
3.242	1464.29443
3.2425	663.26294
3.243	-150.75989
3.2435	-930.74341
3.244	-1555.53589
3.2445	-2051.2207
3.245	-2241.15601
3.2455	-2324.44141
3.246	-2307.01904
3.2465	-1964.10828
3.247	-1367.11121
3.2475	-22.86072
3.248	1635.49805
3.2485	2780.34668
3.249	3179.95605
3.2495	2985.99243
3.25	2425.45166
3.2505	1680.31311
3.251	758.23059
3.2515	-198.6969
3.252	-1013.6261
3.2525	-1674.67346
3.253	-1998.14758
3.2535	-1642.54761
3.254	-1390.67688
3.2545	-1248.98071
3.255	-1023.39478
3.2555	-947.66235
3.256	-822.38159
3.2565	-811.10229
3.257	-903.14941
3.2575	-1047.96753
3.258	-1142.33093
3.2585	-1138.1012
3.259	-1049.67957
3.2595	-854.91028
3.26	-439.08691
3.2605	3.02124
3.261	266.87622
3.2615	437.27417
3.262	504.64783
3.2625	574.23706
3.263	726.9104
3.2635	999.42627
3.264	1314.64233
3.2645	1831.67725
3.265	2880.75244
3.2655	3299.89917
3.266	3291.4397
3.2665	3276.13208
3.267	3260.52246
3.2675	3245.61768
3.268	3230.81348
3.2685	3216.31152
3.269	2945.40698
3.2695	1887.26807
3.27	538.68713
3.2705	-902.44446
3.271	-2254.95288
3.2715	3209.06055
3.272	3224.771
3.2725	3240.48145
3.273	3256.29272
3.2735	3271.90234
3.274	3287.61279
3.2745	-2633.41357
3.275	-1251.80054
3.2755	-118.73474
3.276	618.75
3.2765	1013.72681
3.277	1185.53467
3.2775	1008.89282
3.278	538.48572
3.2785	-159.11865
3.279	-875.05188
3.2795	-1448.38257
3.28	-1773.97156
3.2805	-1771.85669
3.281	-1665.20691
3.2815	-1409.30786
3.282	-889.05029
3.2825	-104.53491
3.283	478.56445
3.2835	615.62805
3.284	659.13391
3.2845	637.88452
3.285	489.2395
3.2855	195.07141
3.286	-143.71033
3.2865	-507.36694
3.287	-677.26135
3.2875	-775.25024
3.288	-765.48157
3.2885	-304.44031
3.289	141.89758
3.2895	407.76672
3.29	556.71387
3.2905	647.85461
3.291	935.77881
3.2915	1193.08777
3.292	1201.84937
3.2925	965.28625
3.293	640.60364
3.2935	335.86121
3.294	47.93701
3.2945	-256.10046
3.295	-479.77295
3.2955	-563.25989
3.296	-499.81384
3.2965	-361.13892
3.297	-248.04382
3.2975	-169.49158
3.298	1.10779
3.2985	237.36877
3.299	633.35266
3.2995	1026.51672
3.3	1169.11926
3.3005	1164.78882
3.301	982.70874
3.3015	577.56042
3.302	150.65918
3.3025	-195.47424
3.303	-522.97668
3.3035	-795.79468
3.304	-1046.96045
3.3045	-1234.47876
3.305	-1331.25916
3.3055	-1080.19409
3.306	-296.48438
3.3065	966.29333
3.307	2639.25464
3.3075	3296.87793
3.308	3281.67114
3.3085	3266.06128
3.309	3250.55225
3.3095	2937.14893
3.31	2030.97839
3.3105	1286.64551
3.311	764.77661
3.3115	106.04553
3.312	-516.73279
3.3125	-929.53491
3.313	-1605.68848
3.3135	-2126.04663
3.314	-2388.79395
3.3145	-2580.74341
3.315	-2729.2876
3.3155	-2748.92578
3.316	-2799.88403
3.3165	-2780.14526
3.317	-2680.74634
3.3175	-2505.01099
3.318	-2134.70752
3.3185	-1619.28406
3.319	-1136.28845
3.3195	-296.48438
3.32	929.13208
3.3205	2275.09448
3.321	3113.28735
3.3215	3163.64136
3.322	2707.23267
3.3225	2000.8667
3.323	1132.15942
3.3235	226.29089
3.324	-642.01355
3.3245	-1353.11279
3.325	-1873.97461
3.3255	-2208.52661
3.326	-2301.98364
3.3265	-1982.83997
3.327	-1421.99707
3.3275	-619.25354
3.328	496.59119
3.3285	1462.88452
3.329	2009.52759
3.3295	2106.71069
3.33	1789.37988
3.3305	1139.30969
3.331	524.28589
3.3315	119.64111
3.332	-243.61267
3.3325	-641.71143
3.333	-989.45618
3.3335	-969.6167
3.334	-821.37451
3.3345	-245.224
3.335	606.06079
3.3355	1108.89587
3.336	1494.70825
3.3365	1470.1355
3.337	1044.54346
3.3375	423.47717
3.338	-239.28223
3.3385	-820.56885
3.339	-1194.6991
3.3395	-1262.37488
3.34	-955.71899
3.3405	-727.21252
3.341	-665.57922
3.3415	-601.83105
3.342	-479.97437
3.3425	-226.08948
3.343	-79.55933
3.3435	-261.03516
3.344	-505.25208
3.3445	-740.00244
3.345	-923.89526
3.3455	-974.6521
3.346	-783.70972
3.3465	-533.45032
3.347	-357.91626
3.3475	-197.89124
3.348	-17.92603
3.3485	97.18323
3.349	137.16431
3.3495	189.02893
3.35	333.54492
3.3505	431.23169
3.351	685.82153
3.3515	1246.46301
3.352	1650.40283
3.3525	1636.00159
3.353	1352.81067
3.3535	1174.25537
3.354	1411.92627
3.3545	1629.95911
3.355	1413.94043
3.3555	1253.21045
3.356	1152.09961
3.3565	1088.75427
3.357	879.48303
3.3575	452.38037
3.358	-149.34998
3.3585	-709.18579
3.359	-1204.26636
3.3595	-1630.96619
3.36	-2028.5614
3.3605	-2274.9939
3.361	-2246.99707
3.3615	-1519.98596
3.362	95.97473
3.3625	1534.38721
3.363	2554.15649
3.3635	3067.26367
3.364	3217.92285
3.3645	3261.83154
3.365	3060.0127
3.3655	2323.33374
3.366	1298.93188
3.3665	180.16663
3.367	-1003.35388
3.3675	-2010.9375
3.368	-2243.875
3.3685	-1856.14929
3.369	-1493.70117
3.3695	-1089.86206
3.37	-784.31396
3.3705	-833.56018
3.371	-984.11865
3.3715	-1174.96033
3.372	-1537.71057
3.3725	-1836.61194
3.373	-2041.04919
3.3735	-2090.19458
3.374	-2003.78723
3.3745	-1886.66382
3.375	-1743.45703
3.3755	-1480.91125
3.376	-1175.96741
3.3765	-893.07861
3.377	-700.82703
3.3775	-486.31897
3.378	-240.69214
3.3785	-22.96143
3.379	90.43579
3.3795	204.9408
3.38	370.50476
3.3805	607.67212
3.381	814.22424
3.3815	1033.96912
3.382	1302.8595
3.3825	1419.47937
3.383	1488.66577
3.3835	1387.95776
3.384	1125.5127
3.3845	1017.85583
3.385	882.10144
3.3855	588.5376
3.386	240.89355
3.3865	-116.72058
3.387	-393.6676
3.3875	-622.17407
3.388	-742.31873
3.3885	-670.51392
3.389	-584.00574
3.3895	-530.93262
3.39	-514.21509
3.3905	-492.46216
3.391	-382.99255
3.3915	-295.98083
3.392	-190.03601
3.3925	-30.71594
3.393	123.97156
3.3935	307.66296
3.394	625.0946
3.3945	937.18872
3.395	1255.42603
3.3955	1307.08923
3.396	1146.05713
3.3965	828.8269
3.397	483.80127
3.3975	151.96838
3.398	-186.71265
3.3985	-454.69666
3.399	-639.49585
3.3995	-744.13147
3.4	-772.1283
3.4005	-716.13464
3.401	-584.91211
3.4015	-315.31677
3.402	-69.08569
3.4025	118.33191
3.403	275.63782
3.4035	277.34985
3.404	199.20044
3.4045	136.05652
3.405	533.65173
3.4055	1646.67664
3.406	2396.34692
3.4065	2837.75024
3.407	2929.59595
3.4075	2619.11304
3.408	2075.99487
3.4085	1205.27344
3.409	204.03442
3.4095	-733.75854
3.41	-1466.10718
3.4105	-2062.39917
3.411	-2502.09033
3.4115	-2637.03906
3.412	-2248.40698
3.4125	-1741.04004
3.413	-1267.10815
3.4135	-934.87244
3.414	-575.14343
3.4145	-55.99365
3.415	222.96753
3.4155	146.22803
3.416	76.7395
3.4165	230.21851
3.417	270.80383
3.4175	234.14612
3.418	237.36877
3.4185	218.93921
3.419	138.3728
3.4195	42.7002
3.42	-71.30127
3.4205	-190.94238
3.421	-302.72827
3.4215	-411.09009
3.422	-473.22693
3.4225	-421.2616
3.423	-211.2854
3.4235	23.76709
3.424	392.15698
3.4245	741.71448
3.425	889.55383
3.4255	867.90161
3.426	770.31555
3.4265	616.63513
3.427	385.30884
3.4275	145.22095
3.428	46.82922
3.4285	79.05579
3.429	-40.2832
3.4295	-199.30115
3.43	-314.81323
3.4305	-229.51355
3.431	148.04077
3.4315	469.80286
3.432	821.97876
3.4325	1076.77002
3.433	1163.47961
3.4335	1114.2334
3.434	844.33594
3.4345	365.06653
3.435	-103.62854
3.4355	-453.38745
3.436	-773.4375
3.4365	-708.38013
3.437	-449.96338
3.4375	-260.12878
3.438	41.69312
3.4385	481.6864
3.439	759.6405
3.4395	721.67358
3.44	486.21826
3.4405	14.80408
3.441	-592.56592
3.4415	-1040.31372
3.442	-1395.71228
3.4425	-1688.87329
3.443	-1771.75598
3.4435	-1691.4917
3.444	-1304.67224
3.4445	-690.25269
3.445	231.82983
3.4455	971.12732
3.446	1382.82166
3.4465	1508.20312
3.447	1387.85706
3.4475	1212.323
3.448	894.1864
3.4485	423.37646
3.449	-85.70251
3.4495	-577.66113
3.45	-1033.36487
3.4505	-1443.64929
3.451	-1694.21082
3.4515	-1709.01489
3.452	-1486.65161
3.4525	-1123.39783
3.453	-631.53992
3.4535	-133.84094
3.454	302.82898
3.4545	519.14978
3.455	686.12366
3.4555	749.06616
3.456	701.83411
3.4565	606.06079
3.457	386.01379
3.4575	101.41296
3.458	-159.42078
3.4585	-359.82971
3.459	-500.21667
3.4595	-494.77844
3.46	-319.4458
3.4605	179.36096
3.461	690.25269
3.4615	925.00305
3.462	994.99512
3.4625	1030.84717
3.463	1289.26392
3.4635	1693.10303
3.464	1822.00928
3.4645	1750.70801
3.465	1475.37231
3.4655	983.5144
3.466	385.00671
3.4665	-149.55139
3.467	-322.66846
3.4675	208.86841
3.468	841.51611
3.4685	905.26428
3.469	473.32764
3.4695	-169.89441
3.47	-732.55005
3.4705	-1007.68433
3.471	-1170.62988
3.4715	-1162.47253
3.472	-1174.75891
3.4725	-1250.49133
3.473	-1326.12305
3.4735	-1358.14819
3.474	-1411.12061
3.4745	-1405.27954
3.475	-1321.69189
3.4755	-1187.85095
3.476	-1069.31763
3.4765	-906.87561
3.477	-768.90564
3.4775	-606.1615
3.478	-423.37646
3.4785	-280.06897
3.479	-67.47437
3.4795	187.31689
3.48	294.77234
3.4805	355.80139
3.481	841.71753
3.4815	1461.57532
3.482	2026.24512
3.4825	2281.13696
3.483	2368.95435
3.4835	2054.44336
3.484	1680.51453
3.4845	1673.16284
3.485	1351.40076
3.4855	658.02612
3.486	-87.61597
3.4865	-710.495
3.487	-1314.54163
3.4875	-1704.88586
3.488	-2001.06812
3.4885	-2180.52979
3.489	-2050.91846
3.4895	-1748.79456
3.49	-1540.83252
3.4905	-1327.83508
3.491	-946.85669
3.4915	-576.25122
3.492	-15.71045
3.4925	430.92957
3.493	743.12439
3.4935	1108.79517
3.494	1249.28284
3.4945	1261.87134
3.495	1192.78564
3.4955	1511.32507
3.496	1706.19507
3.4965	1579.40369
3.497	1280.40161
3.4975	862.86621
3.498	500.41809
3.4985	12.78992
3.499	-471.51489
3.4995	-862.06055
3.5	-1073.54736
3.5005	-1358.55103
3.501	-1610.11963
3.5015	-1703.67737
3.502	-1620.29114
3.5025	-1380.8075
3.503	-1081.20117
3.5035	-835.67505
3.504	-607.16858
3.5045	-422.06726
3.505	-283.59375
3.5055	-181.57654
3.506	-64.95667
3.5065	11.68213
3.507	125.07935
3.5075	265.06348
3.508	401.01929
3.5085	554.90112
3.509	647.04895
3.5095	676.95923
3.51	611.09619
3.5105	489.74304
3.511	354.19006
3.5115	211.88965
3.512	116.51917
3.5125	71.09985
3.513	46.82922
3.5135	24.77417
3.514	22.6593
3.5145	-10.87646
3.515	-9.46655
3.5155	-29.40674
3.516	-65.05737
3.5165	-22.05505
3.517	276.54419
3.5175	634.35974
3.518	830.0354
3.5185	1051.69373
3.519	1112.42065
3.5195	1043.53638
3.52	936.18164
3.5205	696.59729
3.521	351.87378
3.5215	-42.29736
3.522	-448.04993
3.5225	-838.89771
3.523	-1176.26953
3.5235	-1169.01855
3.524	-508.27332
3.5245	371.0083
3.525	1420.68787
3.5255	2389.7002
3.526	2790.21606
3.5265	2567.34912
3.527	1973.07129
3.5275	1463.38806
3.528	1008.18787
3.5285	620.15991
3.529	191.1438
3.5295	-234.54895
3.53	-662.86011
3.5305	-975.15564
3.531	-1325.31738
3.5315	-1742.75208
3.532	-2074.18213
3.5325	-2182.64453
3.533	-2175.39355
3.5335	-1953.33252
3.534	-1522.00012
3.5345	-1045.047
3.535	-658.12683
3.5355	-457.91931
3.536	-374.83521
3.5365	-375.03662
3.537	-449.15771
3.5375	-337.57324
3.538	-131.22253
3.5385	-101.31226
3.539	-204.43726
3.5395	11.17859
3.54	432.54089
3.5405	850.07629
3.541	1045.55054
3.5415	997.51282
3.542	792.97485
3.5425	556.91528
3.543	313.60474
3.5435	28.50037
3.544	-201.11389
3.5445	-366.67786
3.545	-489.03809
3.5455	-459.93347
3.546	-416.12549
3.5465	-338.07678
3.547	-68.38074
3.5475	162.74414
3.548	319.14368
3.5485	441.20178
3.549	498.80676
3.5495	559.6344
3.55	617.34009
3.5505	456.91223
3.551	207.76062
3.5515	-99.90234
3.552	-462.65259
3.5525	-767.1936
3.553	-982.70874
3.5535	-1067.10205
3.554	-1014.23035
3.5545	-866.39099
3.555	-729.02527
3.5555	-618.85071
3.556	-420.95947
3.5565	75.73242
3.557	624.38965
3.5575	1079.48914
3.558	1407.19299
3.5585	1533.17871
3.559	1404.67529
3.5595	1268.31665
3.56	1420.18433
3.5605	1874.07532
3.561	2399.87183
3.5615	2430.48706
3.562	2335.4187
3.5625	1899.65515
3.563	1159.04846
3.5635	314.4104
3.564	-489.2395
3.5645	-1138.50403
3.565	-1704.28162
3.5655	-2123.52905
3.566	-2454.35474
3.5665	-2457.47681
3.567	-1687.7655
3.5675	-771.72546
3.568	36.4563
3.5685	711.19995
3.569	1107.48596
3.5695	958.63953
3.57	426.69983
3.5705	20.44373
3.571	-485.71472
3.5715	-836.2793
3.572	-995.19653
3.5725	-985.12573
3.573	-943.73474
3.5735	-880.18799
3.574	-853.60107
3.5745	-850.88196
3.575	-868.70728
3.5755	-1028.63159
3.576	-1205.07202
3.5765	-1295.70923
3.577	-1245.0531
3.5775	-1005.87158
3.578	-749.26758
3.5785	-431.53381
3.579	-119.84253
3.5795	143.50891
3.58	633.25195
3.5805	1149.88403
3.581	1335.79102
3.5815	1320.98694
3.582	1322.69897
3.5825	1326.62659
3.583	1147.97058
3.5835	799.62158
3.584	387.52441
3.5845	5.63965
3.585	-299.50562
3.5855	-535.66589
3.586	-646.54541
3.5865	-689.24561
3.587	-380.77698
3.5875	469.80286
3.588	1222.59521
3.5885	1560.57129
3.589	1595.81909
3.5895	1471.74683
3.59	1301.55029
3.5905	1105.57251
3.591	647.95532
3.5915	237.06665
3.592	-8.25806
3.5925	-214.81018
3.593	-309.27429
3.5935	-134.14307
3.594	15.81116
3.5945	-26.68762
3.595	-221.55762
3.5955	-469.0979
3.596	-874.95117
3.5965	-1335.89172
3.597	-1637.81433
3.5975	-1864.70947
3.598	-1911.6394
3.5985	-1766.922
3.599	-1214.43787
3.5995	-542.51404
3.6	-91.94641
3.6005	281.88171
3.601	696.698
3.6015	1544.55872
3.602	2817.70923
3.6025	3299.89917
3.603	3286.20288
3.6035	3270.69385
3.604	3254.47998
3.6045	2335.62012
3.605	760.24475
3.6055	-833.05664
3.606	-2230.58154
3.6065	-3176.7334
3.607	-3247.93384
3.6075	-3087.5061
3.608	-2786.59058
3.6085	-2201.87988
3.609	-1663.59558
3.6095	-1180.80139
3.61	-901.03455
3.6105	-814.82849
3.611	-794.58618
3.6115	-726.9104
3.612	-493.06641
3.6125	-235.35461
3.613	215.71655
3.6135	755.61218
3.614	1031.14929
3.6145	1069.72046
3.615	917.44995
3.6155	543.62183
3.616	159.52148
3.6165	-218.53638
3.617	-426.49841
3.6175	-232.43408
3.618	13.59558
3.6185	380.97839
3.619	730.6366
3.6195	814.62708
3.62	741.71448
3.6205	472.21985
3.621	76.43738
3.6215	-508.27332
3.622	-1088.45215
3.6225	-1526.43127
3.623	-1873.47107
3.6235	-2114.16309
3.624	-2066.12549
3.6245	-1778.40271
3.625	-1377.68555
3.6255	-890.96375
3.626	-412.29858
3.6265	-53.87878
3.627	124.4751
3.6275	125.68359
3.628	206.75354
3.6285	744.5343
3.629	1334.88464
3.6295	2020.70618
3.63	2868.26465
3.6305	3299.89917
3.631	3271.49951
3.6315	2715.59131
3.632	1895.224
3.6325	931.24695
3.633	-46.72852
3.6335	-840.00549
3.634	-1309.40552
3.6345	-1691.99524
3.635	-2073.17505
3.6355	-2198.45581
3.636	-2113.25684
3.6365	-1886.56311
3.637	-1555.53589
3.6375	-1132.36084
3.638	-648.35815
3.6385	-303.83606
3.639	-216.01868
3.6395	-185.80627
3.64	-121.45386
3.6405	-50.45471
3.641	-0.20142
3.6415	103.32642
3.642	236.4624
3.6425	382.99255
3.643	469.90356
3.6435	473.93188
3.644	637.68311
3.6445	837.89062
3.645	913.82446
3.6455	1261.97205
3.646	1633.48389
3.6465	1769.4397
3.647	1634.08813
3.6475	1362.27722
3.648	956.32324
3.6485	462.7533
3.649	86.60889
3.6495	-151.26343
3.65	-182.58362
3.6505	-274.02649
3.651	-443.11523
3.6515	-640.50293
3.652	-731.34155
3.6525	-670.01038
3.653	-527.60925
3.6535	-118.63403
3.654	380.87769
3.6545	626.10168
3.655	623.58398
3.6555	571.41724
3.656	414.11133
3.6565	514.21509
3.657	855.2124
3.6575	918.75916
3.658	913.62305
3.6585	948.16589
3.659	1072.13745
3.6595	1377.0813
3.66	1889.88647
3.6605	2102.38037
3.661	1837.01477
3.6615	1245.25452
3.662	506.7627
3.6625	-409.78088
3.663	-1372.54944
3.6635	-2095.02856
3.664	-2542.47437
3.6645	-2761.51416
3.665	-2661.4104
3.6655	-2033.5968
3.666	-945.84961
3.6665	700.02136
3.667	2039.53857
3.6675	2436.52954
3.668	2096.53931
3.6685	1177.0752
3.669	-25.37842
3.6695	-1184.02405
3.67	-2132.59277
3.6705	-2712.06665
3.671	-2949.4353
3.6715	-2972.59814
3.672	-2845.20264
3.6725	-2577.82275
3.673	-2041.95557
3.6735	-1245.85876
3.674	-558.3252
3.6745	-56.90002
3.675	179.15955
3.6755	262.14294
3.676	399.30725
3.6765	728.2196
3.677	982.91016
3.6775	979.28467
3.678	835.27222
3.6785	634.35974
3.679	400.71716
3.6795	149.14856
3.68	-62.03613
3.6805	-271.71021
3.681	-353.3844
3.6815	-385.40955
3.682	-278.05481
3.6825	-57.30286
3.683	200.81177
3.6835	359.729
3.684	444.72656
3.6845	459.83276
3.685	549.66431
3.6855	674.44153
3.686	633.15125
3.6865	631.43921
3.687	941.51917
3.6875	1216.1499
3.688	1335.89172
3.6885	1342.63916
3.689	1181.30493
3.6895	820.46814
3.69	430.22461
3.6905	14.90479
3.691	-428.31116
3.6915	-811.203
3.692	-1025.61035
3.6925	-1112.31995
3.693	-1021.48132
3.6935	-636.77673
3.694	-252.67639
3.6945	128.60413
3.695	401.62354
3.6955	495.58411
3.696	534.4574
3.6965	725.29907
3.697	956.12183
3.6975	899.02039
3.698	624.69177
3.6985	308.87146
3.699	-60.92834
3.6995	-414.71558
3.7	-670.21179
3.7005	-818.55469
3.701	-819.86389
3.7015	-780.38635
3.702	-809.18884
3.7025	-872.03064
3.703	-803.24707
3.7035	-609.28345
3.704	-355.39856
3.7045	-158.01086
3.705	-97.38464
3.7055	2.01416
3.706	304.13818
3.7065	532.74536
3.707	616.73584
3.7075	621.2677
3.708	670.01038
3.7085	695.59021
3.709	656.81763
3.7095	572.12219
3.71	517.03491
3.7105	425.28992
3.711	281.78101
3.7115	103.22571
3.712	-64.25171
3.7125	129.81262
3.713	389.63928
3.7135	631.53992
3.714	754.40369
3.7145	608.27637
3.715	355.29785
3.7155	4.02832
3.716	-168.08167
3.7165	-261.5387
3.717	-371.71326
3.7175	-401.2207
3.718	-383.49609
3.7185	-402.83203
3.719	-417.33398
3.7195	-485.00977
3.72	-537.27722
3.7205	-371.71326
3.721	90.5365
3.7215	476.95312
3.722	540.802
3.7225	438.07983
3.723	268.48755
3.7235	81.97632
3.724	-141.19263
3.7245	-261.13586
3.725	-146.02661
3.7255	-43.60657
3.726	-41.08887
3.7265	215.71655
3.727	725.09766
3.7275	1200.33875
3.728	1369.93103
3.7285	1317.9657
3.729	1130.24597
3.7295	689.1449
3.73	86.20605
3.7305	-506.96411
3.731	-953.90625
3.7315	-1266.20178
3.732	-1415.35034
3.7325	-1439.41956
3.733	-1421.49353
3.7335	-1295.60852
3.734	-1106.47888
3.7345	-837.99133
3.735	-532.74536
3.7355	-206.14929
3.736	117.82837
3.7365	319.14368
3.737	501.02234
3.7375	668.09692
3.738	800.52795
3.7385	1062.97302
3.739	1451.20239
3.7395	1673.56567
3.74	1688.16833
3.7405	1604.37927
3.741	1473.45886
3.7415	1316.85791
3.742	951.48926
3.7425	593.77441
3.743	68.58215
3.7435	-557.51953
3.744	-1109.90295
3.7445	-1464.89868
3.745	-1631.87256
3.7455	-1615.15503
3.746	-1441.2323
3.7465	-1118.56384
3.747	-891.26587
3.7475	-781.19202
3.748	-712.91199
3.7485	-723.48633
3.749	-747.85767
3.7495	-798.31238
3.75	-694.68384
3.7505	-553.3905
3.751	-549.86572
3.7515	-539.79492
3.752	-440.29541
3.7525	-263.15002
3.753	-102.92358
3.7535	19.43665
3.754	103.72925
3.7545	223.67249
3.755	291.95251
3.7555	411.09009
3.756	449.45984
3.7565	434.65576
3.757	549.76501
3.7575	918.55774
3.758	1319.07349
3.7585	1509.81445
3.759	1378.3905
3.7595	1051.59302
3.76	663.26294
3.7605	326.69678
3.761	413.00354
3.7615	512.20093
3.762	495.58411
3.7625	256.90613
3.763	-106.64978
3.7635	-551.87988
3.764	-939.20288
3.7645	-1164.38599
3.765	-1208.69751
3.7655	-1131.45447
3.766	-1054.71497
3.7665	-874.24622
3.767	-665.37781
3.7675	-509.17969
3.768	-400.71716
3.7685	-205.64575
3.769	-13.89771
3.7695	133.74023
3.77	270.19958
3.7705	667.49268
3.771	930.74341
3.7715	1013.02185
3.772	989.45618
3.7725	870.92285
3.773	669.50684
3.7735	440.59753
3.774	191.34521
3.7745	-31.92444
3.775	-245.62683
3.7755	-469.50073
3.776	-619.15283
3.7765	-665.88135
3.777	-436.56921
3.7775	-12.68921
3.778	561.34644
3.7785	950.07935
3.779	1106.98242
3.7795	1394.60449
3.78	2161.09302
3.7805	2640.16113
3.781	2444.58618
3.7815	1744.06128
3.782	881.5979
3.7825	66.46729
3.783	-811.00159
3.7835	-1586.65466
3.784	-1999.6582
3.7845	-2084.85718
3.785	-2059.37793
3.7855	-1780.92041
3.786	-1306.6864
3.7865	-905.16357
3.787	-590.65247
3.7875	-391.65344
3.788	-350.16174
3.7885	-417.73682
3.789	-462.65259
3.7895	-325.48828
3.79	-185.50415
3.7905	-83.18481
3.791	62.03613
3.7915	134.74731
3.792	222.96753
3.7925	504.74854
3.793	668.60046
3.7935	685.92224
3.794	626.60522
3.7945	505.5542
3.795	336.66687
3.7955	194.66858
3.796	35.34851
3.7965	-206.85425
3.797	-493.97278
3.7975	-700.32349
3.798	-776.05591
3.7985	-761.95679
3.799	-648.55957
3.7995	-426.80054
3.8	-121.85669
3.8005	97.58606
3.801	192.85583
3.8015	186.30981
3.802	104.13208
3.8025	-5.84106
3.803	-113.49792
3.8035	-182.28149
3.804	-227.90222
3.8045	-261.84082
3.805	-254.0863
3.8055	-167.37671
3.806	-113.90076
3.8065	-77.04163
3.807	-60.92834
3.8075	-85.60181
3.808	-82.47986
3.8085	-86.50818
3.809	-84.79614
3.8095	65.25879
3.81	661.5509
3.8105	1290.87524
3.811	1655.53894
3.8115	1720.99915
3.812	1626.73645
3.8125	1370.23315
3.813	959.74731
3.8135	470.91064
3.814	-21.04797
3.8145	-472.32056
3.815	-802.3407
3.8155	-1030.14221
3.816	-1182.61414
3.8165	-1147.56775
3.817	-1009.29565
3.8175	-889.151
3.818	-586.92627
3.8185	9.06372
3.819	773.13538
3.8195	1341.63208
3.82	1532.87659
3.8205	1409.60999
3.821	1120.77942
3.8215	855.81665
3.822	639.19373
3.8225	298.49854
3.823	-49.54834
3.8235	-332.73926
3.824	-569.80591
3.8245	-616.93726
3.825	-532.14111
3.8255	-200.50964
3.826	367.98706
3.8265	968.81104
