Christian_Larivera_Right_2.c3d  



Time(s):	C_L_bicipite(μV):
0	-4.02832
0.0005	-3.12195
0.001	3.7262
0.0015	-4.02832
0.002	-4.63257
0.0025	-4.73328
0.003	-4.12903
0.0035	-3.62549
0.004	-8.25806
0.0045	1.00708
0.005	-1.71204
0.0055	-4.53186
0.006	1.91345
0.0065	-0.20142
0.007	1.00708
0.0075	1.00708
0.008	0.20142
0.0085	3.32336
0.009	5.0354
0.0095	4.73328
0.01	6.04248
0.0105	5.74036
0.011	6.64673
0.0115	5.94177
0.012	11.88354
0.0125	7.75452
0.013	9.06372
0.0135	8.96301
0.014	6.74744
0.0145	14.30054
0.015	14.30054
0.0155	14.90479
0.016	10.37292
0.0165	15.30762
0.017	12.28638
0.0175	11.78284
0.018	13.69629
0.0185	11.38
0.019	6.74744
0.0195	8.96301
0.02	9.66797
0.0205	9.76868
0.021	9.16443
0.0215	12.08496
0.022	11.38
0.0225	11.38
0.023	5.43823
0.0235	6.94885
0.024	4.43115
0.0245	10.17151
0.025	8.8623
0.0255	6.2439
0.026	4.12903
0.0265	9.26514
0.027	5.23682
0.0275	8.56018
0.028	7.35168
0.0285	7.65381
0.029	15.71045
0.0295	10.37292
0.03	12.48779
0.0305	10.17151
0.031	8.56018
0.0315	6.54602
0.032	6.44531
0.0325	7.35168
0.033	1.51062
0.0335	8.45947
0.034	2.92053
0.0345	3.7262
0.035	7.85522
0.0355	8.45947
0.036	8.7616
0.0365	6.2439
0.037	6.3446
0.0375	6.84814
0.038	9.16443
0.0385	10.87646
0.039	12.18567
0.0395	11.98425
0.04	8.7616
0.0405	11.07788
0.041	12.18567
0.0415	16.41541
0.042	13.39417
0.0425	14.40125
0.043	10.97717
0.0435	13.09204
0.044	13.59558
0.0445	14.30054
0.045	14.80408
0.0455	11.68213
0.046	12.08496
0.0465	10.87646
0.047	8.66089
0.0475	5.63965
0.048	3.32336
0.0485	3.8269
0.049	3.22266
0.0495	4.33044
0.05	6.64673
0.0505	3.92761
0.051	8.35876
0.0515	9.26514
0.052	5.63965
0.0525	7.95593
0.053	4.43115
0.0535	4.73328
0.054	-5.23682
0.0545	-2.31628
0.055	-7.25098
0.0555	-1.40991
0.056	-9.06372
0.0565	-8.66089
0.057	-9.86938
0.0575	-8.8623
0.058	-4.53186
0.0585	2.81982
0.059	8.15735
0.0595	8.96301
0.06	9.36584
0.0605	10.67505
0.061	13.59558
0.0615	10.67505
0.062	16.61682
0.0625	14.19983
0.063	12.48779
0.0635	13.99841
0.064	16.21399
0.0645	12.68921
0.065	11.78284
0.0655	5.33752
0.066	7.45239
0.0665	4.02832
0.067	1.71204
0.0675	-3.7262
0.068	-3.42407
0.0685	-3.92761
0.069	-3.42407
0.0695	-12.18567
0.07	-16.11328
0.0705	-10.97717
0.071	-16.91895
0.0715	-15.30762
0.072	-14.80408
0.0725	-13.09204
0.073	-7.35168
0.0735	0.70496
0.074	1.3092
0.0745	2.31628
0.075	6.84814
0.0755	8.25806
0.076	12.5885
0.0765	10.97717
0.077	11.88354
0.0775	15.00549
0.078	9.97009
0.0785	12.99133
0.079	8.45947
0.0795	10.67505
0.08	10.87646
0.0805	16.21399
0.081	14.09912
0.0815	16.71753
0.082	17.52319
0.0825	12.78992
0.083	10.67505
0.0835	7.15027
0.084	7.85522
0.0845	8.05664
0.085	3.52478
0.0855	-2.81982
0.086	-3.92761
0.0865	-1.91345
0.087	-5.23682
0.0875	-2.92053
0.088	-2.11487
0.0885	-1.61133
0.089	0.40283
0.0895	7.35168
0.09	8.05664
0.0905	8.56018
0.091	10.77576
0.0915	12.99133
0.092	11.38
0.0925	18.42957
0.093	12.89062
0.0935	16.41541
0.094	17.32178
0.0945	18.12744
0.095	16.21399
0.0955	11.2793
0.096	15.81116
0.0965	17.42249
0.097	12.78992
0.0975	7.45239
0.098	5.94177
0.0985	3.12195
0.099	6.44531
0.0995	7.75452
0.1	3.12195
0.1005	3.32336
0.101	-5.53894
0.1015	-4.02832
0.102	-3.7262
0.1025	-2.5177
0.103	-2.5177
0.1035	-10.0708
0.104	-7.15027
0.1045	-2.81982
0.105	2.5177
0.1055	2.21558
0.106	2.11487
0.1065	3.22266
0.107	1.00708
0.1075	4.33044
0.108	-0.10071
0.1085	6.94885
0.109	4.22974
0.1095	5.53894
0.11	9.46655
0.1105	4.93469
0.111	7.95593
0.1115	11.38
0.112	11.68213
0.1125	10.0708
0.113	9.76868
0.1135	10.87646
0.114	12.78992
0.1145	7.65381
0.115	9.56726
0.1155	14.70337
0.116	12.08496
0.1165	7.75452
0.117	4.22974
0.1175	7.15027
0.118	6.04248
0.1185	11.58142
0.119	3.92761
0.1195	-3.32336
0.12	-8.15735
0.1205	-12.38708
0.121	-11.98425
0.1215	-9.97009
0.122	-8.8623
0.1225	-6.3446
0.123	-10.87646
0.1235	-13.69629
0.124	-12.08496
0.1245	-11.78284
0.125	-15.30762
0.1255	-13.99841
0.126	-16.01257
0.1265	-18.63098
0.127	-10.77576
0.1275	-5.84106
0.128	-0.30212
0.1285	3.8269
0.129	10.27222
0.1295	16.11328
0.13	27.29187
0.1305	32.52869
0.131	36.25488
0.1315	37.7655
0.132	37.7655
0.1325	31.21948
0.133	28.80249
0.1335	21.24939
0.134	16.01257
0.1345	8.05664
0.135	6.2439
0.1355	-2.81982
0.136	-10.17151
0.1365	-20.64514
0.137	-20.54443
0.1375	-22.6593
0.138	-24.67346
0.1385	-28.9032
0.139	-26.18408
0.1395	-19.23523
0.14	-21.45081
0.1405	-17.52319
0.141	-13.797
0.1415	-8.96301
0.142	-7.25098
0.1425	-6.74744
0.143	-7.15027
0.1435	0.70496
0.144	3.7262
0.1445	5.23682
0.145	3.22266
0.1455	8.45947
0.146	5.23682
0.1465	8.05664
0.147	11.68213
0.1475	8.05664
0.148	9.76868
0.1485	12.78992
0.149	15.1062
0.1495	17.22107
0.15	15.40833
0.1505	14.90479
0.151	16.51611
0.1515	16.81824
0.152	11.88354
0.1525	7.95593
0.153	13.89771
0.1535	18.73169
0.154	16.91895
0.1545	12.78992
0.155	11.88354
0.1555	7.75452
0.156	12.5885
0.1565	11.38
0.157	9.66797
0.1575	9.16443
0.158	12.28638
0.1585	8.7616
0.159	7.5531
0.1595	4.12903
0.16	-1.61133
0.1605	-6.74744
0.161	-3.42407
0.1615	-2.31628
0.162	2.5177
0.1625	4.22974
0.163	6.54602
0.1635	7.75452
0.164	7.75452
0.1645	14.80408
0.165	8.25806
0.1655	11.2793
0.166	10.0708
0.1665	10.57434
0.167	16.3147
0.1675	10.77576
0.168	9.46655
0.1685	10.47363
0.169	9.76868
0.1695	8.66089
0.17	8.96301
0.1705	3.8269
0.171	5.33752
0.1715	-0.20142
0.172	0.60425
0.1725	1.71204
0.173	-4.12903
0.1735	-5.94177
0.174	-1.40991
0.1745	1.91345
0.175	-1.2085
0.1755	3.92761
0.176	-3.32336
0.1765	-2.01416
0.177	7.75452
0.1775	6.2439
0.178	7.75452
0.1785	4.22974
0.179	3.02124
0.1795	10.37292
0.18	5.53894
0.1805	11.48071
0.181	9.16443
0.1815	11.98425
0.182	11.38
0.1825	13.49487
0.183	7.95593
0.1835	5.74036
0.184	-0.20142
0.1845	7.5531
0.185	7.5531
0.1855	7.85522
0.186	12.89062
0.1865	13.19275
0.187	12.38708
0.1875	20.44373
0.188	15.1062
0.1885	11.38
0.189	17.01965
0.1895	14.30054
0.19	17.92603
0.1905	16.11328
0.191	18.53027
0.1915	14.90479
0.192	14.19983
0.1925	8.45947
0.193	3.8269
0.1935	0.20142
0.194	-2.81982
0.1945	1.61133
0.195	-5.33752
0.1955	-6.3446
0.196	-11.68213
0.1965	-11.98425
0.197	-14.80408
0.1975	-11.17859
0.198	-8.15735
0.1985	-3.62549
0.199	-2.5177
0.1995	3.8269
0.2	6.54602
0.2005	4.33044
0.201	11.17859
0.2015	7.85522
0.202	14.60266
0.2025	12.38708
0.203	17.72461
0.2035	18.53027
0.204	14.50195
0.2045	9.46655
0.205	8.35876
0.2055	10.37292
0.206	10.87646
0.2065	1.81274
0.207	7.65381
0.2075	2.31628
0.208	-0.10071
0.2085	-0.40283
0.209	3.42407
0.2095	-1.71204
0.21	0.70496
0.2105	-2.61841
0.211	-2.41699
0.2115	-3.7262
0.212	0.50354
0.2125	1.71204
0.213	10.0708
0.2135	6.94885
0.214	9.97009
0.2145	9.46655
0.215	9.36584
0.2155	12.89062
0.216	21.04797
0.2165	21.65222
0.217	29.91028
0.2175	24.77417
0.218	21.75293
0.2185	14.40125
0.219	14.40125
0.2195	10.0708
0.22	10.17151
0.2205	6.54602
0.221	9.56726
0.2215	12.5885
0.222	3.92761
0.2225	7.5531
0.223	4.53186
0.2235	4.02832
0.224	3.12195
0.2245	-1.40991
0.225	-2.81982
0.2255	7.15027
0.226	3.02124
0.2265	3.02124
0.227	0
0.2275	1.51062
0.228	12.68921
0.2285	14.09912
0.229	17.32178
0.2295	19.03381
0.23	19.43665
0.2305	12.28638
0.231	6.2439
0.2315	3.62549
0.232	0.70496
0.2325	-4.63257
0.233	-3.12195
0.2335	-2.71912
0.234	-5.63965
0.2345	-5.84106
0.235	-0.30212
0.2355	5.23682
0.236	13.49487
0.2365	10.67505
0.237	6.94885
0.2375	7.25098
0.238	4.22974
0.2385	3.12195
0.239	9.56726
0.2395	11.68213
0.24	16.71753
0.2405	17.12036
0.241	16.91895
0.2415	21.3501
0.242	18.8324
0.2425	15.00549
0.243	12.08496
0.2435	4.93469
0.244	11.2793
0.2445	8.05664
0.245	4.12903
0.2455	6.54602
0.246	9.06372
0.2465	8.8623
0.247	9.56726
0.2475	4.83398
0.248	2.92053
0.2485	-0.20142
0.249	4.93469
0.2495	0.10071
0.25	-3.42407
0.2505	-1.40991
0.251	-5.23682
0.2515	0.70496
0.252	4.33044
0.2525	4.43115
0.253	6.84814
0.2535	6.94885
0.254	1.61133
0.2545	4.12903
0.255	0
0.2555	3.42407
0.256	2.81982
0.2565	6.74744
0.257	-1.51062
0.2575	4.02832
0.258	9.86938
0.2585	10.17151
0.259	11.17859
0.2595	16.21399
0.26	11.78284
0.2605	9.97009
0.261	8.35876
0.2615	10.87646
0.262	8.66089
0.2625	8.35876
0.263	4.33044
0.2635	-0.40283
0.264	-0.40283
0.2645	7.95593
0.265	3.8269
0.2655	-1.71204
0.266	-2.21558
0.2665	-6.2439
0.267	-7.45239
0.2675	-14.60266
0.268	-14.40125
0.2685	-13.49487
0.269	-15.81116
0.2695	-10.47363
0.27	-2.61841
0.2705	-5.23682
0.271	2.21558
0.2715	9.76868
0.272	10.37292
0.2725	14.50195
0.273	22.05505
0.2735	24.77417
0.274	22.35718
0.2745	26.78833
0.275	25.68054
0.2755	26.18408
0.276	29.10461
0.2765	24.47205
0.277	23.66638
0.2775	16.41541
0.278	14.90479
0.2785	14.40125
0.279	9.46655
0.2795	11.17859
0.28	2.11487
0.2805	6.44531
0.281	7.25098
0.2815	4.43115
0.282	3.32336
0.2825	-1.61133
0.283	-6.14319
0.2835	-5.43823
0.284	-4.73328
0.2845	-7.15027
0.285	-4.02832
0.2855	-7.65381
0.286	-1.91345
0.2865	0.70496
0.287	5.43823
0.2875	7.04956
0.288	9.46655
0.2885	9.16443
0.289	15.71045
0.2895	15.00549
0.29	12.38708
0.2905	11.58142
0.291	9.16443
0.2915	7.75452
0.292	3.42407
0.2925	0.80566
0.293	0.90637
0.2935	-7.45239
0.294	-3.92761
0.2945	-8.05664
0.295	-10.97717
0.2955	-10.97717
0.296	-9.86938
0.2965	-5.53894
0.297	-2.21558
0.2975	-1.2085
0.298	-3.32336
0.2985	-2.01416
0.299	-1.40991
0.2995	2.01416
0.3	7.45239
0.3005	12.89062
0.301	15.50903
0.3015	17.82532
0.302	15.60974
0.3025	14.50195
0.303	15.91187
0.3035	18.73169
0.304	20.34302
0.3045	15.81116
0.305	14.70337
0.3055	14.90479
0.306	15.40833
0.3065	8.05664
0.307	9.26514
0.3075	6.74744
0.308	5.0354
0.3085	-7.15027
0.309	-8.96301
0.3095	-10.97717
0.31	-20.74585
0.3105	-13.29346
0.311	-18.42957
0.3115	-17.32178
0.312	-13.29346
0.3125	-5.84106
0.313	-0.70496
0.3135	-2.81982
0.314	-0.60425
0.3145	4.93469
0.315	-0.10071
0.3155	7.95593
0.316	10.77576
0.3165	18.63098
0.317	19.43665
0.3175	23.66638
0.318	20.94727
0.3185	20.94727
0.319	15.71045
0.3195	17.12036
0.32	13.29346
0.3205	10.77576
0.321	12.5885
0.3215	16.61682
0.322	16.71753
0.3225	16.01257
0.323	15.71045
0.3235	9.16443
0.324	-0.70496
0.3245	-2.5177
0.325	-2.81982
0.3255	-0.70496
0.326	-1.81274
0.3265	-3.7262
0.327	-2.01416
0.3275	4.73328
0.328	7.25098
0.3285	12.38708
0.329	11.17859
0.3295	8.05664
0.33	8.15735
0.3305	5.94177
0.331	4.63257
0.3315	7.15027
0.332	1.40991
0.3325	-1.00708
0.333	2.71912
0.3335	-0.90637
0.334	1.00708
0.3345	1.10779
0.335	6.3446
0.3355	7.5531
0.336	7.65381
0.3365	11.98425
0.337	6.54602
0.3375	-0.20142
0.338	-1.81274
0.3385	3.22266
0.339	1.71204
0.3395	6.74744
0.34	10.37292
0.3405	6.74744
0.341	5.13611
0.3415	6.3446
0.342	3.32336
0.3425	2.41699
0.343	2.11487
0.3435	-3.52478
0.344	2.21558
0.3445	2.41699
0.345	6.3446
0.3455	6.3446
0.346	10.37292
0.3465	10.47363
0.347	10.97717
0.3475	11.88354
0.348	10.27222
0.3485	9.56726
0.349	8.15735
0.3495	7.85522
0.35	-2.61841
0.3505	2.81982
0.351	9.56726
0.3515	10.87646
0.352	3.22266
0.3525	6.54602
0.353	8.56018
0.3535	7.35168
0.354	13.89771
0.3545	17.82532
0.355	15.40833
0.3555	15.00549
0.356	16.21399
0.3565	14.60266
0.357	12.18567
0.3575	16.51611
0.358	12.18567
0.3585	7.45239
0.359	9.97009
0.3595	5.13611
0.36	9.46655
0.3605	6.74744
0.361	3.8269
0.3615	7.04956
0.362	3.8269
0.3625	-3.12195
0.363	-0.80566
0.3635	-3.52478
0.364	-1.40991
0.3645	2.81982
0.365	-6.04248
0.3655	-3.42407
0.366	1.00708
0.3665	2.61841
0.367	0.20142
0.3675	2.41699
0.368	-0.30212
0.3685	-1.91345
0.369	-2.5177
0.3695	-2.5177
0.37	-1.3092
0.3705	0.90637
0.371	-0.40283
0.3715	-3.12195
0.372	5.23682
0.3725	0.10071
0.373	6.2439
0.3735	10.77576
0.374	11.38
0.3745	14.50195
0.375	13.39417
0.3755	15.00549
0.376	8.15735
0.3765	9.46655
0.377	6.94885
0.3775	14.80408
0.378	13.99841
0.3785	10.37292
0.379	13.19275
0.3795	9.56726
0.38	8.25806
0.3805	10.57434
0.381	4.83398
0.3815	2.11487
0.382	-0.40283
0.3825	2.81982
0.383	4.22974
0.3835	0
0.384	3.52478
0.3845	-0.70496
0.385	2.5177
0.3855	4.63257
0.386	3.8269
0.3865	3.02124
0.387	5.0354
0.3875	7.65381
0.388	6.04248
0.3885	5.63965
0.389	10.97717
0.3895	10.97717
0.39	8.8623
0.3905	5.23682
0.391	5.53894
0.3915	3.62549
0.392	6.64673
0.3925	5.84106
0.393	5.84106
0.3935	-0.90637
0.394	-1.51062
0.3945	1.71204
0.395	1.71204
0.3955	3.12195
0.396	3.92761
0.3965	2.61841
0.397	5.84106
0.3975	5.43823
0.398	10.67505
0.3985	8.8623
0.399	0.40283
0.3995	5.74036
0.4	4.73328
0.4005	0.10071
0.401	2.11487
0.4015	1.51062
0.402	1.71204
0.4025	6.54602
0.403	2.31628
0.4035	2.81982
0.404	4.53186
0.4045	8.05664
0.405	7.85522
0.4055	8.35876
0.406	10.27222
0.4065	11.68213
0.407	6.44531
0.4075	8.7616
0.408	5.84106
0.4085	9.26514
0.409	12.89062
0.4095	10.0708
0.41	9.86938
0.4105	8.7616
0.411	13.09204
0.4115	12.5885
0.412	7.04956
0.4125	-0.20142
0.413	5.84106
0.4135	0.30212
0.414	-1.61133
0.4145	6.04248
0.415	7.95593
0.4155	4.93469
0.416	6.64673
0.4165	8.56018
0.417	6.04248
0.4175	1.40991
0.418	5.94177
0.4185	1.10779
0.419	0
0.4195	-1.00708
0.42	-5.23682
0.4205	-1.81274
0.421	-7.75452
0.4215	-1.10779
0.422	8.7616
0.4225	7.45239
0.423	9.97009
0.4235	8.15735
0.424	9.76868
0.4245	9.97009
0.425	4.12903
0.4255	4.73328
0.426	2.11487
0.4265	7.15027
0.427	2.5177
0.4275	2.81982
0.428	2.81982
0.4285	9.86938
0.429	6.54602
0.4295	8.56018
0.43	8.56018
0.4305	6.64673
0.431	5.94177
0.4315	-0.80566
0.432	3.42407
0.4325	2.5177
0.433	2.11487
0.4335	4.12903
0.434	2.61841
0.4345	9.76868
0.435	6.54602
0.4355	7.15027
0.436	8.66089
0.4365	7.65381
0.437	2.31628
0.4375	7.15027
0.438	7.65381
0.4385	8.56018
0.439	6.84814
0.4395	19.53735
0.44	21.65222
0.4405	23.8678
0.441	21.95435
0.4415	14.60266
0.442	11.98425
0.4425	4.63257
0.443	1.71204
0.4435	5.0354
0.444	-3.02124
0.4445	0.60425
0.445	3.62549
0.4455	-2.81982
0.446	-0.40283
0.4465	-1.51062
0.447	0.10071
0.4475	3.92761
0.448	3.92761
0.4485	2.71912
0.449	4.93469
0.4495	4.33044
0.45	10.27222
0.4505	9.97009
0.451	13.797
0.4515	21.95435
0.452	22.45789
0.4525	16.81824
0.453	9.86938
0.4535	7.25098
0.454	2.71912
0.4545	-1.10779
0.455	0.60425
0.4555	-9.56726
0.456	-7.95593
0.4565	-8.66089
0.457	-7.35168
0.4575	-5.63965
0.458	-6.44531
0.4585	-6.44531
0.459	-2.21558
0.4595	-1.91345
0.46	1.40991
0.4605	2.11487
0.461	1.10779
0.4615	1.40991
0.462	7.45239
0.4625	2.61841
0.463	-0.80566
0.4635	-1.2085
0.464	-3.42407
0.4645	2.71912
0.465	8.56018
0.4655	10.37292
0.466	17.12036
0.4665	13.09204
0.467	10.47363
0.4675	9.66797
0.468	13.89771
0.4685	8.7616
0.469	8.25806
0.4695	4.63257
0.47	7.15027
0.4705	3.8269
0.471	3.32336
0.4715	3.32336
0.472	-1.40991
0.4725	7.35168
0.473	2.61841
0.4735	3.12195
0.474	2.21558
0.4745	5.43823
0.475	2.31628
0.4755	-0.30212
0.476	0.60425
0.4765	2.71912
0.477	2.61841
0.4775	11.78284
0.478	6.64673
0.4785	11.98425
0.479	11.07788
0.4795	12.78992
0.48	14.19983
0.4805	3.92761
0.481	6.74744
0.4815	5.33752
0.482	0.50354
0.4825	5.33752
0.483	1.51062
0.4835	-9.46655
0.484	-4.43115
0.4845	-9.97009
0.485	-7.65381
0.4855	-9.16443
0.486	-5.13611
0.4865	-1.51062
0.487	-2.01416
0.4875	2.81982
0.488	1.91345
0.4885	-1.71204
0.489	6.94885
0.4895	6.44531
0.49	6.04248
0.4905	3.52478
0.491	4.12903
0.4915	6.04248
0.492	6.74744
0.4925	6.94885
0.493	11.07788
0.4935	14.19983
0.494	15.50903
0.4945	16.81824
0.495	16.21399
0.4955	13.89771
0.496	9.66797
0.4965	11.48071
0.497	12.28638
0.4975	8.05664
0.498	8.25806
0.4985	2.81982
0.499	5.84106
0.4995	8.8623
0.5	5.94177
0.5005	10.47363
0.501	5.33752
0.5015	7.15027
0.502	12.18567
0.5025	11.07788
0.503	17.6239
0.5035	18.63098
0.504	22.15576
0.5045	18.32886
0.505	13.09204
0.5055	12.99133
0.506	12.78992
0.5065	6.74744
0.507	0.70496
0.5075	-1.2085
0.508	-4.63257
0.5085	-8.05664
0.509	-4.93469
0.5095	-8.15735
0.51	-1.61133
0.5105	-3.92761
0.511	6.2439
0.5115	2.31628
0.512	5.84106
0.5125	8.8623
0.513	4.83398
0.5135	6.14319
0.514	8.56018
0.5145	7.15027
0.515	11.88354
0.5155	13.797
0.516	12.78992
0.5165	6.54602
0.517	1.61133
0.5175	4.12903
0.518	2.92053
0.5185	-5.53894
0.519	-6.74744
0.5195	-5.33752
0.52	-6.14319
0.5205	-10.87646
0.521	-14.80408
0.5215	-15.00549
0.522	-13.39417
0.5225	-14.40125
0.523	-14.19983
0.5235	-6.14319
0.524	-3.32336
0.5245	3.8269
0.525	0.80566
0.5255	8.66089
0.526	11.78284
0.5265	11.68213
0.527	11.58142
0.5275	16.01257
0.528	14.30054
0.5285	17.72461
0.529	18.93311
0.5295	18.53027
0.53	10.77576
0.5305	7.35168
0.531	-0.90637
0.5315	-0.40283
0.532	0.50354
0.5325	0.70496
0.533	-4.02832
0.5335	-6.74744
0.534	-10.27222
0.5345	-9.16443
0.535	-11.98425
0.5355	-14.50195
0.536	-7.5531
0.5365	-3.12195
0.537	-3.32336
0.5375	-5.94177
0.538	-3.92761
0.5385	-4.53186
0.539	-3.7262
0.5395	-0.30212
0.54	3.7262
0.5405	5.0354
0.541	2.31628
0.5415	5.0354
0.542	-0.40283
0.5425	2.5177
0.543	7.35168
0.5435	6.04248
0.544	11.38
0.5445	15.40833
0.545	18.32886
0.5455	22.96143
0.546	21.85364
0.5465	19.63806
0.547	20.94727
0.5475	24.57275
0.548	24.16992
0.5485	19.23523
0.549	19.53735
0.5495	22.05505
0.55	18.73169
0.5505	17.6239
0.551	13.39417
0.5515	11.07788
0.552	6.94885
0.5525	6.54602
0.553	0.20142
0.5535	1.81274
0.554	3.12195
0.5545	-3.7262
0.555	-10.77576
0.5555	-15.81116
0.556	-20.94727
0.5565	-18.32886
0.557	-17.42249
0.5575	-19.33594
0.558	-15.50903
0.5585	-12.48779
0.559	-12.38708
0.5595	-8.05664
0.56	-6.74744
0.5605	-2.41699
0.561	0.30212
0.5615	0.10071
0.562	-3.42407
0.5625	-2.31628
0.563	2.21558
0.5635	5.94177
0.564	3.8269
0.5645	0.80566
0.565	0.60425
0.5655	3.12195
0.566	-0.30212
0.5665	1.51062
0.567	1.81274
0.5675	-2.21558
0.568	3.62549
0.5685	2.81982
0.569	-1.40991
0.5695	-7.75452
0.57	-4.83398
0.5705	-7.45239
0.571	-3.02124
0.5715	-1.51062
0.572	0
0.5725	1.91345
0.573	5.63965
0.5735	8.56018
0.574	-6.74744
0.5745	-0.40283
0.575	0
0.5755	-3.22266
0.576	-2.41699
0.5765	-2.31628
0.577	1.81274
0.5775	0
0.578	-1.10779
0.5785	-3.12195
0.579	-3.52478
0.5795	-6.54602
0.58	-3.62549
0.5805	-2.11487
0.581	-2.92053
0.5815	0.10071
0.582	5.43823
0.5825	4.73328
0.583	15.1062
0.5835	17.52319
0.584	12.89062
0.5845	17.82532
0.585	8.05664
0.5855	3.22266
0.586	4.12903
0.5865	4.93469
0.587	10.67505
0.5875	12.38708
0.588	14.60266
0.5885	18.8324
0.589	19.43665
0.5895	21.85364
0.59	14.90479
0.5905	15.30762
0.591	15.71045
0.5915	9.16443
0.592	14.50195
0.5925	13.49487
0.593	13.29346
0.5935	8.66089
0.594	12.78992
0.5945	17.52319
0.595	16.41541
0.5955	12.08496
0.596	12.5885
0.5965	11.07788
0.597	5.23682
0.5975	7.75452
0.598	8.66089
0.5985	8.45947
0.599	16.51611
0.5995	12.18567
0.6	16.41541
0.6005	13.29346
0.601	13.09204
0.6015	21.45081
0.602	20.34302
0.6025	16.71753
0.603	17.52319
0.6035	18.02673
0.604	11.58142
0.6045	17.72461
0.605	19.63806
0.6055	17.22107
0.606	16.01257
0.6065	12.38708
0.607	11.2793
0.6075	10.0708
0.608	10.17151
0.6085	8.35876
0.609	8.8623
0.6095	10.47363
0.61	17.72461
0.6105	14.30054
0.611	17.32178
0.6115	27.49329
0.612	29.30603
0.6125	24.16992
0.613	19.73877
0.6135	14.90479
0.614	5.74036
0.6145	6.94885
0.615	-3.52478
0.6155	-4.12903
0.616	-13.29346
0.6165	-10.37292
0.617	-13.89771
0.6175	-10.37292
0.618	-7.04956
0.6185	-10.37292
0.619	-5.0354
0.6195	-5.53894
0.62	-3.92761
0.6205	-2.81982
0.621	2.01416
0.6215	3.52478
0.622	6.54602
0.6225	6.3446
0.623	5.74036
0.6235	8.7616
0.624	4.83398
0.6245	5.84106
0.625	5.53894
0.6255	6.44531
0.626	6.84814
0.6265	1.51062
0.627	6.84814
0.6275	7.45239
0.628	4.33044
0.6285	10.27222
0.629	10.67505
0.6295	17.22107
0.63	22.76001
0.6305	19.94019
0.631	18.42957
0.6315	15.00549
0.632	23.96851
0.6325	13.89771
0.633	9.46655
0.6335	12.28638
0.634	13.39417
0.6345	17.32178
0.635	14.09912
0.6355	11.38
0.636	8.35876
0.6365	5.23682
0.637	8.7616
0.6375	9.06372
0.638	5.23682
0.6385	6.3446
0.639	5.94177
0.6395	0.30212
0.64	-3.32336
0.6405	-3.8269
0.641	-3.92761
0.6415	-2.71912
0.642	-5.13611
0.6425	0
0.643	-1.2085
0.6435	-4.12903
0.644	0.30212
0.6445	-1.81274
0.645	3.62549
0.6455	-2.41699
0.646	-1.10779
0.6465	2.71912
0.647	1.71204
0.6475	-4.33044
0.648	-3.42407
0.6485	-5.43823
0.649	3.32336
0.6495	0.40283
0.65	-2.31628
0.6505	-4.93469
0.651	3.22266
0.6515	5.0354
0.652	4.83398
0.6525	10.0708
0.653	16.21399
0.6535	18.02673
0.654	13.69629
0.6545	17.22107
0.655	16.21399
0.6555	12.5885
0.656	16.51611
0.6565	16.3147
0.657	13.49487
0.6575	15.91187
0.658	15.00549
0.6585	10.77576
0.659	5.0354
0.6595	2.21558
0.66	5.0354
0.6605	7.15027
0.661	4.63257
0.6615	6.94885
0.662	2.61841
0.6625	8.35876
0.663	3.42407
0.6635	-1.71204
0.664	1.91345
0.6645	1.3092
0.665	11.48071
0.6655	-1.2085
0.666	2.92053
0.6665	8.05664
0.667	7.95593
0.6675	8.45947
0.668	5.63965
0.6685	4.43115
0.669	-3.42407
0.6695	3.42407
0.67	0.60425
0.6705	3.12195
0.671	-0.20142
0.6715	-5.0354
0.672	-5.74036
0.6725	-6.94885
0.673	3.22266
0.6735	-0.80566
0.674	-1.91345
0.6745	4.12903
0.675	3.22266
0.6755	1.51062
0.676	1.81274
0.6765	1.91345
0.677	-3.42407
0.6775	1.61133
0.678	0.90637
0.6785	3.52478
0.679	0.40283
0.6795	5.23682
0.68	8.35876
0.6805	13.797
0.681	8.56018
0.6815	12.99133
0.682	10.67505
0.6825	13.797
0.683	13.29346
0.6835	14.30054
0.684	15.40833
0.6845	18.8324
0.685	19.94019
0.6855	10.27222
0.686	6.94885
0.6865	3.52478
0.687	-7.5531
0.6875	-3.7262
0.688	-4.33044
0.6885	-5.94177
0.689	-8.8623
0.6895	-12.78992
0.69	-13.39417
0.6905	-7.15027
0.691	-2.21558
0.6915	2.31628
0.692	7.95593
0.6925	6.04248
0.693	10.97717
0.6935	8.8623
0.694	3.42407
0.6945	17.72461
0.695	18.22815
0.6955	22.6593
0.696	30.41382
0.6965	28.60107
0.697	22.6593
0.6975	20.54443
0.698	18.73169
0.6985	20.24231
0.699	15.60974
0.6995	13.49487
0.7	14.30054
0.7005	10.77576
0.701	15.00549
0.7015	10.97717
0.702	6.14319
0.7025	2.92053
0.703	2.31628
0.7035	-1.00708
0.704	-4.43115
0.7045	0.80566
0.705	0.40283
0.7055	5.0354
0.706	0.90637
0.7065	1.10779
0.707	-9.36584
0.7075	-10.57434
0.708	-8.35876
0.7085	-6.44531
0.709	-12.08496
0.7095	-8.96301
0.71	-4.43115
0.7105	-7.85522
0.711	-5.33752
0.7115	-0.60425
0.712	1.40991
0.7125	4.33044
0.713	-1.71204
0.7135	0.50354
0.714	1.61133
0.7145	-3.12195
0.715	-3.02124
0.7155	-4.63257
0.716	-2.92053
0.7165	-1.00708
0.717	-1.91345
0.7175	-0.20142
0.718	2.61841
0.7185	5.74036
0.719	2.11487
0.7195	4.83398
0.72	4.33044
0.7205	4.63257
0.721	8.7616
0.7215	10.47363
0.722	9.76868
0.7225	10.37292
0.723	10.27222
0.7235	8.66089
0.724	7.65381
0.7245	7.35168
0.725	2.61841
0.7255	7.15027
0.726	7.35168
0.7265	6.94885
0.727	11.48071
0.7275	9.06372
0.728	7.5531
0.7285	19.33594
0.729	21.3501
0.7295	16.21399
0.73	20.84656
0.7305	21.55151
0.731	22.55859
0.7315	20.64514
0.732	23.36426
0.7325	22.25647
0.733	25.57983
0.7335	21.65222
0.734	14.09912
0.7345	15.91187
0.735	5.74036
0.7355	-1.81274
0.736	-10.57434
0.7365	-8.96301
0.737	-12.5885
0.7375	-10.67505
0.738	-11.68213
0.7385	-13.29346
0.739	-14.40125
0.7395	-15.81116
0.74	-13.69629
0.7405	-9.36584
0.741	-9.16443
0.7415	-8.45947
0.742	-1.81274
0.7425	-2.21558
0.743	-4.53186
0.7435	-2.41699
0.744	2.71912
0.7445	5.33752
0.745	2.81982
0.7455	5.43823
0.746	4.12903
0.7465	8.8623
0.747	8.56018
0.7475	5.74036
0.748	2.11487
0.7485	5.43823
0.749	8.25806
0.7495	3.8269
0.75	6.04248
0.7505	4.53186
0.751	7.65381
0.7515	10.0708
0.752	15.81116
0.7525	24.87488
0.753	24.67346
0.7535	19.23523
0.754	15.91187
0.7545	14.50195
0.755	15.81116
0.7555	7.45239
0.756	7.5531
0.7565	6.04248
0.757	5.74036
0.7575	10.27222
0.758	10.37292
0.7585	10.17151
0.759	4.93469
0.7595	-1.40991
0.76	2.71912
0.7605	3.8269
0.761	1.81274
0.7615	2.11487
0.762	2.71912
0.7625	5.43823
0.763	5.84106
0.7635	9.36584
0.764	10.77576
0.7645	11.17859
0.765	13.19275
0.7655	10.17151
0.766	12.99133
0.7665	21.95435
0.767	14.90479
0.7675	15.30762
0.768	17.82532
0.7685	15.81116
0.769	20.24231
0.7695	17.32178
0.77	20.34302
0.7705	20.54443
0.771	16.91895
0.7715	10.87646
0.772	11.38
0.7725	8.7616
0.773	3.8269
0.7735	-2.71912
0.774	-0.60425
0.7745	-6.2439
0.775	-2.81982
0.7755	0
0.776	7.5531
0.7765	11.38
0.777	16.01257
0.7775	12.38708
0.778	5.43823
0.7785	12.08496
0.779	5.63965
0.7795	6.94885
0.78	-0.90637
0.7805	0.40283
0.781	-2.81982
0.7815	-2.31628
0.782	-0.10071
0.7825	3.42407
0.783	0.80566
0.7835	-2.61841
0.784	-5.74036
0.7845	-5.84106
0.785	-7.15027
0.7855	-5.74036
0.786	1.91345
0.7865	5.53894
0.787	4.53186
0.7875	7.5531
0.788	7.04956
0.7885	5.33752
0.789	13.19275
0.7895	22.15576
0.79	20.44373
0.7905	18.53027
0.791	21.55151
0.7915	17.92603
0.792	16.3147
0.7925	20.34302
0.793	18.12744
0.7935	9.46655
0.794	11.17859
0.7945	10.67505
0.795	7.85522
0.7955	13.19275
0.796	11.88354
0.7965	4.83398
0.797	1.61133
0.7975	0.10071
0.798	-1.2085
0.7985	-7.04956
0.799	-9.16443
0.7995	-13.49487
0.8	-13.99841
0.8005	-3.12195
0.801	1.40991
0.8015	7.04956
0.802	14.60266
0.8025	15.81116
0.803	9.56726
0.8035	9.36584
0.804	8.96301
0.8045	-0.10071
0.805	10.0708
0.8055	10.97717
0.806	19.83948
0.8065	17.32178
0.807	18.42957
0.8075	16.51611
0.808	18.22815
0.8085	14.09912
0.809	12.99133
0.8095	12.08496
0.81	9.16443
0.8105	0.80566
0.811	-4.53186
0.8115	-4.02832
0.812	-0.60425
0.8125	2.01416
0.813	2.31628
0.8135	2.21558
0.814	-6.04248
0.8145	-9.36584
0.815	-13.69629
0.8155	-5.53894
0.816	-6.2439
0.8165	-0.80566
0.817	2.01416
0.8175	4.93469
0.818	3.32336
0.8185	2.41699
0.819	4.53186
0.8195	0.10071
0.82	3.22266
0.8205	7.75452
0.821	7.65381
0.8215	9.56726
0.822	12.5885
0.8225	13.29346
0.823	11.78284
0.8235	10.67505
0.824	13.29346
0.8245	14.40125
0.825	13.59558
0.8255	11.98425
0.826	8.15735
0.8265	-2.41699
0.827	8.45947
0.8275	12.5885
0.828	15.71045
0.8285	12.78992
0.829	20.1416
0.8295	15.81116
0.83	14.60266
0.8305	4.43115
0.831	7.75452
0.8315	1.2085
0.832	3.42407
0.8325	5.84106
0.833	5.63965
0.8335	10.87646
0.834	8.35876
0.8345	11.78284
0.835	10.17151
0.8355	9.86938
0.836	8.05664
0.8365	6.04248
0.837	-2.41699
0.8375	2.21558
0.838	-4.12903
0.8385	-4.83398
0.839	-10.67505
0.8395	-5.13611
0.84	-12.28638
0.8405	-11.38
0.841	-5.53894
0.8415	-5.94177
0.842	-7.65381
0.8425	1.3092
0.843	-2.41699
0.8435	1.00708
0.844	2.41699
0.8445	5.53894
0.845	6.54602
0.8455	6.84814
0.846	6.64673
0.8465	9.76868
0.847	8.25806
0.8475	14.09912
0.848	8.05664
0.8485	10.87646
0.849	8.7616
0.8495	6.94885
0.85	7.75452
0.8505	2.31628
0.851	6.14319
0.8515	-1.81274
0.852	-1.51062
0.8525	-4.43115
0.853	-4.73328
0.8535	-2.5177
0.854	1.71204
0.8545	5.63965
0.855	8.05664
0.8555	3.12195
0.856	7.75452
0.8565	9.26514
0.857	8.05664
0.8575	18.12744
0.858	14.50195
0.8585	17.72461
0.859	19.43665
0.8595	18.42957
0.86	19.43665
0.8605	17.82532
0.861	13.39417
0.8615	12.68921
0.862	11.88354
0.8625	13.89771
0.863	17.12036
0.8635	15.1062
0.864	14.90479
0.8645	13.89771
0.865	12.08496
0.8655	8.56018
0.866	10.97717
0.8665	8.15735
0.867	11.88354
0.8675	7.85522
0.868	11.78284
0.8685	14.70337
0.869	10.97717
0.8695	12.5885
0.87	6.64673
0.8705	4.73328
0.871	1.81274
0.8715	-2.11487
0.872	-7.5531
0.8725	-8.35876
0.873	-10.17151
0.8735	-15.20691
0.874	-10.47363
0.8745	-9.76868
0.875	-9.66797
0.8755	-11.17859
0.876	-4.93469
0.8765	-2.31628
0.877	3.8269
0.8775	0.30212
0.878	-5.23682
0.8785	-1.3092
0.879	-2.21558
0.8795	-2.11487
0.88	-6.54602
0.8805	-5.33752
0.881	-1.81274
0.8815	2.31628
0.882	6.74744
0.8825	7.04956
0.883	9.66797
0.8835	10.87646
0.884	13.49487
0.8845	15.30762
0.885	13.797
0.8855	10.87646
0.886	8.66089
0.8865	9.56726
0.887	5.53894
0.8875	10.27222
0.888	7.25098
0.8885	4.63257
0.889	2.71912
0.8895	6.54602
0.89	7.45239
0.8905	4.33044
0.891	9.97009
0.8915	14.40125
0.892	21.3501
0.8925	24.77417
0.893	27.39258
0.8935	22.6593
0.894	21.14868
0.8945	11.07788
0.895	9.97009
0.8955	9.06372
0.896	7.04956
0.8965	9.46655
0.897	9.16443
0.8975	9.56726
0.898	10.37292
0.8985	8.56018
0.899	4.73328
0.8995	3.02124
0.9	-2.92053
0.9005	-1.81274
0.901	-4.93469
0.9015	-8.56018
0.902	-2.92053
0.9025	-5.43823
0.903	-4.63257
0.9035	3.32336
0.904	6.74744
0.9045	6.64673
0.905	12.18567
0.9055	8.8623
0.906	9.26514
0.9065	10.57434
0.907	8.96301
0.9075	9.76868
0.908	7.85522
0.9085	12.08496
0.909	5.13611
0.9095	8.25806
0.91	8.96301
0.9105	0.20142
0.911	4.33044
0.9115	9.46655
0.912	11.07788
0.9125	8.35876
0.913	5.74036
0.9135	13.39417
0.914	10.57434
0.9145	13.797
0.915	11.38
0.9155	16.01257
0.916	18.8324
0.9165	17.72461
0.917	12.99133
0.9175	13.99841
0.918	11.07788
0.9185	8.25806
0.919	8.25806
0.9195	7.04956
0.92	-0.20142
0.9205	2.41699
0.921	-10.37292
0.9215	-11.88354
0.922	-9.56726
0.9225	-8.45947
0.923	-6.64673
0.9235	0.30212
0.924	-3.32336
0.9245	-0.20142
0.925	-3.32336
0.9255	2.92053
0.926	5.33752
0.9265	4.73328
0.927	7.35168
0.9275	5.84106
0.928	8.8623
0.9285	3.8269
0.929	3.32336
0.9295	1.91345
0.93	1.2085
0.9305	6.64673
0.931	5.23682
0.9315	-3.7262
0.932	-0.70496
0.9325	4.63257
0.933	12.28638
0.9335	11.88354
0.934	13.797
0.9345	12.08496
0.935	7.25098
0.9355	8.96301
0.936	5.94177
0.9365	-5.43823
0.937	2.92053
0.9375	-3.92761
0.938	-2.5177
0.9385	-4.43115
0.939	-7.65381
0.9395	-5.43823
0.94	-6.04248
0.9405	-0.70496
0.941	-2.61841
0.9415	-2.61841
0.942	4.93469
0.9425	5.23682
0.943	11.78284
0.9435	6.64673
0.944	11.17859
0.9445	2.71912
0.945	4.63257
0.9455	-3.42407
0.946	-7.65381
0.9465	0.80566
0.947	2.81982
0.9475	2.31628
0.948	5.0354
0.9485	7.15027
0.949	8.15735
0.9495	9.56726
0.95	6.74744
0.9505	8.66089
0.951	8.45947
0.9515	9.76868
0.952	9.76868
0.9525	14.70337
0.953	10.0708
0.9535	11.48071
0.954	5.94177
0.9545	5.23682
0.955	3.42407
0.9555	-4.73328
0.956	-1.40991
0.9565	-2.81982
0.957	-4.12903
0.9575	0.10071
0.958	-2.41699
0.9585	-1.61133
0.959	3.8269
0.9595	4.43115
0.96	3.92761
0.9605	6.84814
0.961	5.94177
0.9615	3.02124
0.962	0.50354
0.9625	3.7262
0.963	3.8269
0.9635	3.12195
0.964	4.83398
0.9645	8.35876
0.965	9.06372
0.9655	9.56726
0.966	-1.00708
0.9665	3.22266
0.967	2.5177
0.9675	3.12195
0.968	2.92053
0.9685	5.84106
0.969	3.8269
0.9695	1.40991
0.97	4.22974
0.9705	1.00708
0.971	7.85522
0.9715	8.25806
0.972	15.60974
0.9725	9.46655
0.973	11.78284
0.9735	14.40125
0.974	16.01257
0.9745	10.47363
0.975	11.98425
0.9755	10.17151
0.976	12.08496
0.9765	12.48779
0.977	8.66089
0.9775	6.74744
0.978	9.26514
0.9785	8.7616
0.979	11.2793
0.9795	8.05664
0.98	9.26514
0.9805	11.07788
0.981	9.76868
0.9815	12.78992
0.982	4.93469
0.9825	5.33752
0.983	11.38
0.9835	13.797
0.984	4.63257
0.9845	7.35168
0.985	9.66797
0.9855	4.83398
0.986	1.81274
0.9865	-2.11487
0.987	2.01416
0.9875	1.10779
0.988	7.15027
0.9885	1.51062
0.989	0.90637
0.9895	4.02832
0.99	-0.70496
0.9905	-1.2085
0.991	-0.40283
0.9915	-5.43823
0.992	1.51062
0.9925	11.48071
0.993	22.96143
0.9935	27.6947
0.994	27.29187
0.9945	23.96851
0.995	30.41382
0.9955	23.66638
0.996	21.65222
0.9965	16.91895
0.997	20.1416
0.9975	21.55151
0.998	22.45789
0.9985	10.17151
0.999	7.95593
0.9995	1.3092
1	-4.22974
1.0005	-5.74036
1.001	-2.41699
1.0015	-1.2085
1.002	-5.13611
1.0025	-2.5177
1.003	-0.50354
1.0035	-3.8269
1.004	-7.95593
1.0045	-3.42407
1.005	-6.84814
1.0055	-2.5177
1.006	-13.69629
1.0065	-8.05664
1.007	-5.94177
1.0075	-5.33752
1.008	-6.64673
1.0085	2.61841
1.009	-0.80566
1.0095	-5.0354
1.01	0.20142
1.0105	0.30212
1.011	2.31628
1.0115	1.71204
1.012	5.33752
1.0125	4.63257
1.013	13.69629
1.0135	14.50195
1.014	17.92603
1.0145	17.22107
1.015	17.22107
1.0155	17.01965
1.016	9.97009
1.0165	11.17859
1.017	9.36584
1.0175	8.66089
1.018	10.47363
1.0185	13.69629
1.019	8.45947
1.0195	13.19275
1.02	15.40833
1.0205	12.5885
1.021	14.40125
1.0215	10.77576
1.022	7.65381
1.0225	9.86938
1.023	8.96301
1.0235	9.56726
1.024	5.63965
1.0245	-0.30212
1.025	-2.31628
1.0255	-20.1416
1.026	-16.01257
1.0265	-14.09912
1.027	-18.93311
1.0275	-21.65222
1.028	-17.42249
1.0285	-11.17859
1.029	-13.89771
1.0295	-9.36584
1.03	-3.12195
1.0305	2.5177
1.031	-4.93469
1.0315	3.92761
1.032	0.30212
1.0325	0.10071
1.033	9.46655
1.0335	7.85522
1.034	12.68921
1.0345	15.30762
1.035	15.00549
1.0355	14.30054
1.036	13.99841
1.0365	15.00549
1.037	12.18567
1.0375	8.96301
1.038	9.97009
1.0385	17.92603
1.039	17.52319
1.0395	20.54443
1.04	17.72461
1.0405	17.01965
1.041	8.56018
1.0415	5.43823
1.042	4.93469
1.0425	3.32336
1.043	1.61133
1.0435	-3.92761
1.044	-4.33044
1.0445	-2.61841
1.045	2.61841
1.0455	11.68213
1.046	14.70337
1.0465	16.21399
1.047	5.74036
1.0475	15.50903
1.048	14.60266
1.0485	12.08496
1.049	10.47363
1.0495	12.48779
1.05	15.50903
1.0505	18.42957
1.051	14.19983
1.0515	10.17151
1.052	14.09912
1.0525	15.50903
1.053	10.17151
1.0535	17.01965
1.054	13.99841
1.0545	15.40833
1.055	12.08496
1.0555	10.47363
1.056	3.7262
1.0565	-5.0354
1.057	-4.22974
1.0575	-4.83398
1.058	-2.61841
1.0585	-2.01416
1.059	-5.53894
1.0595	-0.40283
1.06	0.80566
1.0605	-11.2793
1.061	-10.67505
1.0615	-4.73328
1.062	-5.94177
1.0625	-5.43823
1.063	-8.66089
1.0635	-14.19983
1.064	-10.57434
1.0645	-4.43115
1.065	-6.3446
1.0655	-7.45239
1.066	-2.41699
1.0665	6.94885
1.067	11.98425
1.0675	17.42249
1.068	28.80249
1.0685	21.14868
1.069	13.69629
1.0695	12.18567
1.07	9.16443
1.0705	13.89771
1.071	12.68921
1.0715	16.61682
1.072	14.90479
1.0725	10.27222
1.073	8.35876
1.0735	3.02124
1.074	3.62549
1.0745	-2.11487
1.075	-5.23682
1.0755	-3.7262
1.076	-7.95593
1.0765	-5.0354
1.077	-2.31628
1.0775	-2.11487
1.078	-2.31628
1.0785	-1.71204
1.079	4.83398
1.0795	-0.50354
1.08	6.74744
1.0805	9.36584
1.081	9.86938
1.0815	12.99133
1.082	11.38
1.0825	12.28638
1.083	-0.40283
1.0835	-2.41699
1.084	-9.97009
1.0845	-11.98425
1.085	-11.17859
1.0855	-11.38
1.086	-10.67505
1.0865	-2.92053
1.087	-0.10071
1.0875	-1.10779
1.088	-1.81274
1.0885	1.3092
1.089	0.70496
1.0895	8.8623
1.09	12.28638
1.0905	11.17859
1.091	14.40125
1.0915	20.1416
1.092	18.02673
1.0925	16.81824
1.093	16.91895
1.0935	12.48779
1.094	13.19275
1.0945	9.76868
1.095	6.94885
1.0955	3.22266
1.096	-3.62549
1.0965	-4.12903
1.097	-3.7262
1.0975	-7.25098
1.098	-14.50195
1.0985	-19.94019
1.099	-23.06213
1.0995	-12.5885
1.1	-7.04956
1.1005	-10.87646
1.101	-1.40991
1.1015	-1.00708
1.102	-0.10071
1.1025	7.45239
1.103	13.797
1.1035	25.88196
1.104	22.05505
1.1045	20.74585
1.105	16.21399
1.1055	9.56726
1.106	9.36584
1.1065	6.64673
1.107	6.84814
1.1075	9.46655
1.108	4.12903
1.1085	4.43115
1.109	3.62549
1.1095	0.70496
1.11	-1.2085
1.1105	2.01416
1.111	5.33752
1.1115	6.84814
1.112	-1.00708
1.1125	4.93469
1.113	5.63965
1.1135	10.0708
1.114	19.63806
1.1145	15.1062
1.115	18.93311
1.1155	23.8678
1.116	15.50903
1.1165	24.87488
1.117	15.30762
1.1175	9.86938
1.118	13.99841
1.1185	15.60974
1.119	13.69629
1.1195	13.39417
1.12	9.46655
1.1205	9.76868
1.121	7.35168
1.1215	3.7262
1.122	6.74744
1.1225	5.0354
1.123	8.45947
1.1235	16.51611
1.124	13.49487
1.1245	13.49487
1.125	9.76868
1.1255	3.8269
1.126	2.92053
1.1265	-3.42407
1.127	-12.48779
1.1275	-23.26355
1.128	-28.50037
1.1285	-25.27771
1.129	-26.78833
1.1295	-24.47205
1.13	-23.16284
1.1305	-17.12036
1.131	-16.41541
1.1315	-18.93311
1.132	-15.60974
1.1325	-19.73877
1.133	-12.28638
1.1335	0.70496
1.134	14.40125
1.1345	16.61682
1.135	18.93311
1.1355	18.42957
1.136	21.55151
1.1365	20.44373
1.137	12.28638
1.1375	8.56018
1.138	11.17859
1.1385	5.74036
1.139	6.54602
1.1395	4.93469
1.14	0.10071
1.1405	1.00708
1.141	6.94885
1.1415	-1.51062
1.142	-2.5177
1.1425	-0.80566
1.143	-6.94885
1.1435	4.43115
1.144	13.89771
1.1445	21.3501
1.145	26.98975
1.1455	17.92603
1.146	14.09912
1.1465	33.73718
1.147	51.76392
1.1475	60.92834
1.148	57.9071
1.1485	47.53418
1.149	39.77966
1.1495	36.4563
1.15	31.4209
1.1505	35.95276
1.151	23.06213
1.1515	15.00549
1.152	-0.70496
1.1525	-6.74744
1.153	-5.23682
1.1535	-10.47363
1.154	-11.88354
1.1545	-17.72461
1.155	-25.68054
1.1555	-39.77966
1.156	-40.78674
1.1565	-31.21948
1.157	-26.98975
1.1575	-28.9032
1.158	-22.35718
1.1585	-21.3501
1.159	-14.30054
1.1595	-14.40125
1.16	-11.17859
1.1605	-4.93469
1.161	-1.40991
1.1615	2.81982
1.162	0.70496
1.1625	5.53894
1.163	9.56726
1.1635	9.76868
1.164	8.7616
1.1645	24.77417
1.165	24.87488
1.1655	26.3855
1.166	13.99841
1.1665	19.13452
1.167	19.03381
1.1675	19.03381
1.168	23.76709
1.1685	19.23523
1.169	17.42249
1.1695	14.50195
1.17	12.28638
1.1705	12.68921
1.171	11.48071
1.1715	10.67505
1.172	13.49487
1.1725	17.52319
1.173	14.90479
1.1735	10.17151
1.174	7.75452
1.1745	12.18567
1.175	12.68921
1.1755	12.48779
1.176	9.36584
1.1765	8.66089
1.177	7.75452
1.1775	9.26514
1.178	14.80408
1.1785	16.91895
1.179	21.65222
1.1795	20.24231
1.18	19.83948
1.1805	15.00549
1.181	6.44531
1.1815	12.68921
1.182	14.30054
1.1825	7.95593
1.183	9.76868
1.1835	6.44531
1.184	8.66089
1.1845	9.46655
1.185	9.16443
1.1855	2.5177
1.186	-1.40991
1.1865	-5.13611
1.187	0.10071
1.1875	1.10779
1.188	3.52478
1.1885	9.56726
1.189	7.45239
1.1895	7.75452
1.19	5.74036
1.1905	5.53894
1.191	6.84814
1.1915	3.52478
1.192	2.61841
1.1925	-0.30212
1.193	6.2439
1.1935	1.51062
1.194	3.02124
1.1945	7.75452
1.195	5.63965
1.1955	4.43115
1.196	11.48071
1.1965	4.33044
1.197	2.81982
1.1975	2.5177
1.198	10.37292
1.1985	7.75452
1.199	4.83398
1.1995	7.35168
1.2	11.98425
1.2005	13.99841
1.201	9.36584
1.2015	4.43115
1.202	5.43823
1.2025	7.25098
1.203	-1.3092
1.2035	6.84814
1.204	1.2085
1.2045	2.11487
1.205	-0.40283
1.2055	7.5531
1.206	9.26514
1.2065	11.88354
1.207	10.77576
1.2075	9.46655
1.208	10.47363
1.2085	15.00549
1.209	18.42957
1.2095	13.797
1.21	16.11328
1.2105	10.47363
1.211	5.43823
1.2115	0.90637
1.212	-0.60425
1.2125	-3.7262
1.213	-7.95593
1.2135	-15.00549
1.214	-17.92603
1.2145	-8.66089
1.215	-2.71912
1.2155	-4.12903
1.216	-6.64673
1.2165	-4.73328
1.217	-6.94885
1.2175	-6.3446
1.218	-5.74036
1.2185	-4.02832
1.219	-3.92761
1.2195	-4.73328
1.22	-3.8269
1.2205	-2.61841
1.221	2.11487
1.2215	5.23682
1.222	5.63965
1.2225	4.93469
1.223	14.09912
1.2235	12.28638
1.224	13.09204
1.2245	15.1062
1.225	13.797
1.2255	18.42957
1.226	22.45789
1.2265	19.43665
1.227	15.60974
1.2275	19.94019
1.228	18.63098
1.2285	14.90479
1.229	12.48779
1.2295	13.09204
1.23	7.95593
1.2305	4.93469
1.231	4.22974
1.2315	0.30212
1.232	-3.62549
1.2325	-2.61841
1.233	1.61133
1.2335	-1.81274
1.234	-1.91345
1.2345	-1.81274
1.235	-5.13611
1.2355	-1.3092
1.236	-5.33752
1.2365	-6.64673
1.237	-5.74036
1.2375	-7.25098
1.238	-7.35168
1.2385	-2.71912
1.239	0.10071
1.2395	-1.91345
1.24	-0.90637
1.2405	8.35876
1.241	9.46655
1.2415	7.75452
1.242	9.46655
1.2425	12.89062
1.243	16.81824
1.2435	20.94727
1.244	23.36426
1.2445	23.76709
1.245	18.63098
1.2455	21.24939
1.246	11.48071
1.2465	6.64673
1.247	9.76868
1.2475	7.5531
1.248	3.32336
1.2485	1.81274
1.249	-1.10779
1.2495	-9.26514
1.25	-17.52319
1.2505	-18.32886
1.251	-19.53735
1.2515	-17.6239
1.252	-13.89771
1.2525	-11.38
1.253	-9.66797
1.2535	-11.2793
1.254	-9.06372
1.2545	-10.47363
1.255	-2.71912
1.2555	1.91345
1.256	6.74744
1.2565	0.30212
1.257	5.23682
1.2575	3.42407
1.258	3.22266
1.2585	3.02124
1.259	0.30212
1.2595	1.91345
1.26	0.30212
1.2605	-2.01416
1.261	-1.2085
1.2615	2.71912
1.262	-3.02124
1.2625	-3.62549
1.263	-3.7262
1.2635	-8.05664
1.264	-16.01257
1.2645	-20.04089
1.265	-19.33594
1.2655	-5.0354
1.266	3.22266
1.2665	3.22266
1.267	0.40283
1.2675	-0.30212
1.268	0.90637
1.2685	3.02124
1.269	0.30212
1.2695	-1.40991
1.27	1.91345
1.2705	5.63965
1.271	3.92761
1.2715	3.7262
1.272	18.63098
1.2725	26.18408
1.273	29.30603
1.2735	53.27454
1.274	81.97632
1.2745	102.11792
1.275	116.11633
1.2755	112.39014
1.276	104.3335
1.2765	81.47278
1.277	69.28711
1.2775	45.52002
1.278	24.06921
1.2785	10.0708
1.279	0.60425
1.2795	-2.92053
1.28	-10.77576
1.2805	-26.58691
1.281	-32.93152
1.2815	-26.68762
1.282	-22.25647
1.2825	-28.60107
1.283	-34.03931
1.2835	-32.02515
1.284	-31.21948
1.2845	-32.42798
1.285	-44.31152
1.2855	-49.14551
1.286	-51.46179
1.2865	-41.59241
1.287	-38.974
1.2875	-34.44214
1.288	-32.83081
1.2885	-29.20532
1.289	-26.88904
1.2895	-22.45789
1.29	-14.50195
1.2905	-11.88354
1.291	-22.35718
1.2915	-27.39258
1.292	-18.42957
1.2925	-17.52319
1.293	-6.74744
1.2935	2.11487
1.294	13.39417
1.2945	13.69629
1.295	16.21399
1.2955	13.09204
1.296	12.08496
1.2965	14.09912
1.297	11.68213
1.2975	11.2793
1.298	6.54602
1.2985	10.97717
1.299	15.81116
1.2995	14.60266
1.3	11.98425
1.3005	23.26355
1.301	20.54443
1.3015	23.16284
1.302	19.13452
1.3025	14.19983
1.303	14.09912
1.3035	9.97009
1.304	13.69629
1.3045	11.17859
1.305	10.27222
1.3055	10.0708
1.306	8.7616
1.3065	11.38
1.307	9.06372
1.3075	4.73328
1.308	-1.00708
1.3085	0.50354
1.309	3.32336
1.3095	0.60425
1.31	10.17151
1.3105	5.63965
1.311	-1.51062
1.3115	0.10071
1.312	-1.91345
1.3125	-1.40991
1.313	1.40991
1.3135	-0.60425
1.314	7.65381
1.3145	12.18567
1.315	9.97009
1.3155	14.30054
1.316	12.89062
1.3165	11.48071
1.317	9.86938
1.3175	10.0708
1.318	10.77576
1.3185	15.40833
1.319	5.43823
1.3195	2.71912
1.32	3.22266
1.3205	-1.71204
1.321	-3.62549
1.3215	1.91345
1.322	3.42407
1.3225	3.62549
1.323	-1.2085
1.3235	-1.91345
1.324	1.00708
1.3245	0.90637
1.325	1.3092
1.3255	4.12903
1.326	8.8623
1.3265	5.33752
1.327	5.94177
1.3275	10.87646
1.328	6.3446
1.3285	15.20691
1.329	18.32886
1.3295	11.58142
1.33	17.6239
1.3305	15.91187
1.331	11.88354
1.3315	9.97009
1.332	8.56018
1.3325	10.77576
1.333	12.89062
1.3335	14.19983
1.334	14.50195
1.3345	19.53735
1.335	15.1062
1.3355	17.42249
1.336	20.04089
1.3365	16.91895
1.337	14.50195
1.3375	6.94885
1.338	13.09204
1.3385	13.59558
1.339	10.17151
1.3395	9.46655
1.34	10.0708
1.3405	6.64673
1.341	14.19983
1.3415	5.0354
1.342	-1.51062
1.3425	-0.30212
1.343	-8.15735
1.3435	-6.64673
1.344	-9.06372
1.3445	-5.84106
1.345	-6.94885
1.3455	-5.53894
1.346	1.91345
1.3465	8.8623
1.347	10.47363
1.3475	5.63965
1.348	6.14319
1.3485	1.00708
1.349	3.52478
1.3495	1.71204
1.35	-4.83398
1.3505	-1.3092
1.351	6.84814
1.3515	12.5885
1.352	15.00549
1.3525	26.18408
1.353	29.80957
1.3535	25.88196
1.354	24.47205
1.3545	11.88354
1.355	5.94177
1.3555	-2.71912
1.356	-2.11487
1.3565	-1.81274
1.357	-1.91345
1.3575	-0.90637
1.358	-2.01416
1.3585	1.81274
1.359	-3.7262
1.3595	-5.33752
1.36	-8.15735
1.3605	-5.84106
1.361	2.92053
1.3615	-7.04956
1.362	-13.99841
1.3625	-9.97009
1.363	-4.33044
1.3635	-7.04956
1.364	-9.86938
1.3645	-14.50195
1.365	-8.56018
1.3655	-2.31628
1.366	4.93469
1.3665	7.65381
1.367	7.45239
1.3675	27.89612
1.368	32.12585
1.3685	21.04797
1.369	22.05505
1.3695	16.71753
1.37	22.6593
1.3705	16.61682
1.371	11.88354
1.3715	5.23682
1.372	3.22266
1.3725	14.70337
1.373	39.07471
1.3735	57.30286
1.374	67.67578
1.3745	63.64746
1.375	65.56091
1.3755	48.23914
1.376	21.75293
1.3765	11.17859
1.377	2.92053
1.3775	-8.15735
1.378	-23.36426
1.3785	-26.98975
1.379	-35.95276
1.3795	-35.44922
1.38	-38.06763
1.3805	-43.80798
1.381	-32.02515
1.3815	-28.60107
1.382	-19.03381
1.3825	-12.08496
1.383	-5.33752
1.3835	-4.33044
1.384	-8.35876
1.3845	-7.95593
1.385	-2.92053
1.3855	3.7262
1.386	10.57434
1.3865	22.25647
1.387	25.47913
1.3875	17.42249
1.388	19.03381
1.3885	16.21399
1.389	20.44373
1.3895	37.86621
1.39	55.69153
1.3905	58.71277
1.391	46.82922
1.3915	41.89453
1.392	38.67188
1.3925	35.75134
1.393	21.3501
1.3935	13.09204
1.394	-0.90637
1.3945	-7.85522
1.395	-13.09204
1.3955	-18.02673
1.396	-25.68054
1.3965	-30.01099
1.397	-34.14001
1.3975	-35.2478
1.398	-34.34143
1.3985	-23.16284
1.399	-16.91895
1.3995	-15.81116
1.4	-18.93311
1.4005	-14.09912
1.401	-10.67505
1.4015	-11.88354
1.402	-9.46655
1.4025	-5.33752
1.403	-3.32336
1.4035	-1.00708
1.404	-4.43115
1.4045	4.63257
1.405	2.41699
1.4055	8.8623
1.406	5.84106
1.4065	6.54602
1.407	-0.10071
1.4075	-2.92053
1.408	-9.46655
1.4085	-5.63965
1.409	6.14319
1.4095	0.80566
1.41	3.32336
1.4105	-5.43823
1.411	-5.13611
1.4115	6.84814
1.412	10.77576
1.4125	5.74036
1.413	-2.41699
1.4135	1.00708
1.414	10.57434
1.4145	12.18567
1.415	9.06372
1.4155	8.96301
1.416	5.13611
1.4165	2.81982
1.417	3.32336
1.4175	1.40991
1.418	1.91345
1.4185	6.54602
1.419	5.0354
1.4195	4.63257
1.42	-1.3092
1.4205	-2.21558
1.421	-17.6239
1.4215	-10.27222
1.422	-9.76868
1.4225	-13.89771
1.423	-4.22974
1.4235	11.07788
1.424	24.27063
1.4245	30.11169
1.425	37.7655
1.4255	35.2478
1.426	20.1416
1.4265	14.30054
1.427	19.73877
1.4275	20.94727
1.428	16.61682
1.4285	20.64514
1.429	18.73169
1.4295	17.22107
1.43	11.17859
1.4305	7.5531
1.431	1.81274
1.4315	9.97009
1.432	18.53027
1.4325	15.40833
1.433	18.8324
1.4335	19.94019
1.434	20.64514
1.4345	14.09912
1.435	15.40833
1.4355	12.28638
1.436	17.82532
1.4365	23.46497
1.437	21.75293
1.4375	18.02673
1.438	17.72461
1.4385	14.80408
1.439	20.54443
1.4395	16.3147
1.44	15.50903
1.4405	16.11328
1.441	7.85522
1.4415	-2.5177
1.442	-6.2439
1.4425	-13.09204
1.443	-19.03381
1.4435	-25.98267
1.444	-22.35718
1.4445	-18.63098
1.445	-9.97009
1.4455	-9.46655
1.446	-3.22266
1.4465	5.13611
1.447	12.5885
1.4475	10.97717
1.448	14.19983
1.4485	9.76868
1.449	12.08496
1.4495	0.60425
1.45	-8.45947
1.4505	-6.3446
1.451	-9.26514
1.4515	3.02124
1.452	18.02673
1.4525	22.55859
1.453	27.59399
1.4535	22.96143
1.454	16.51611
1.4545	11.07788
1.455	1.81274
1.4555	-8.66089
1.456	-6.84814
1.4565	-15.1062
1.457	-18.32886
1.4575	-24.87488
1.458	-35.14709
1.4585	-24.27063
1.459	-22.86072
1.4595	-15.40833
1.46	-1.3092
1.4605	2.71912
1.461	15.81116
1.4615	20.34302
1.462	22.96143
1.4625	27.49329
1.463	27.29187
1.4635	21.45081
1.464	10.47363
1.4645	-2.11487
1.465	-6.74744
1.4655	-11.07788
1.466	-3.7262
1.4665	-3.22266
1.467	-4.12903
1.4675	2.61841
1.468	-3.52478
1.4685	-0.30212
1.469	-1.40991
1.4695	-5.33752
1.47	-2.21558
1.4705	-8.8623
1.471	-3.12195
1.4715	-2.01416
1.472	2.5177
1.4725	4.43115
1.473	7.15027
1.4735	7.75452
1.474	21.45081
1.4745	29.30603
1.475	31.32019
1.4755	38.77258
1.476	39.17542
1.4765	31.4209
1.477	24.87488
1.4775	22.35718
1.478	18.32886
1.4785	18.73169
1.479	16.91895
1.4795	17.72461
1.48	20.64514
1.4805	41.08887
1.481	52.67029
1.4815	51.05896
1.482	48.54126
1.4825	34.74426
1.483	23.36426
1.4835	2.5177
1.484	-7.04956
1.4845	-17.6239
1.485	-18.22815
1.4855	-22.86072
1.486	-30.61523
1.4865	-24.57275
1.487	-16.91895
1.4875	-12.18567
1.488	-10.87646
1.4885	-15.30762
1.489	-15.71045
1.4895	-21.24939
1.49	-22.35718
1.4905	-26.28479
1.491	-24.97559
1.4915	-29.00391
1.492	-22.55859
1.4925	-15.00549
1.493	-2.5177
1.4935	-6.64673
1.494	3.32336
1.4945	5.0354
1.495	4.93469
1.4955	11.17859
1.496	8.35876
1.4965	-0.90637
1.497	-5.74036
1.4975	-14.09912
1.498	-11.17859
1.4985	-0.90637
1.499	22.6593
1.4995	32.62939
1.5	31.4209
1.5005	29.20532
1.501	28.19824
1.5015	23.26355
1.502	26.88904
1.5025	23.56567
1.503	26.98975
1.5035	21.95435
1.504	8.7616
1.5045	-2.11487
1.505	-14.70337
1.5055	-29.50745
1.506	-27.19116
1.5065	-31.11877
1.507	-16.3147
1.5075	-5.53894
1.508	7.85522
1.5085	7.04956
1.509	10.47363
1.5095	17.72461
1.51	10.0708
1.5105	-1.40991
1.511	0
1.5115	3.62549
1.512	2.61841
1.5125	6.14319
1.513	6.04248
1.5135	8.05664
1.514	14.19983
1.5145	11.38
1.515	13.89771
1.5155	13.49487
1.516	8.45947
1.5165	8.8623
1.517	14.09912
1.5175	3.52478
1.518	12.08496
1.5185	6.84814
1.519	14.09912
1.5195	18.63098
1.52	16.01257
1.5205	18.53027
1.521	22.76001
1.5215	19.83948
1.522	16.61682
1.5225	21.85364
1.523	27.49329
1.5235	30.81665
1.524	22.6593
1.5245	12.78992
1.525	-0.30212
1.5255	6.74744
1.526	9.16443
1.5265	5.33752
1.527	4.73328
1.5275	3.8269
1.528	5.94177
1.5285	7.04956
1.529	7.45239
1.5295	-3.62549
1.53	3.02124
1.5305	0.10071
1.531	4.43115
1.5315	0.90637
1.532	7.5531
1.5325	6.94885
1.533	3.8269
1.5335	3.52478
1.534	8.66089
1.5345	4.93469
1.535	0.90637
1.5355	-1.91345
1.536	-4.83398
1.5365	5.84106
1.537	8.35876
1.5375	21.45081
1.538	27.6947
1.5385	19.43665
1.539	17.72461
1.5395	21.24939
1.54	26.78833
1.5405	21.04797
1.541	13.89771
1.5415	3.8269
1.542	5.23682
1.5425	-0.50354
1.543	2.01416
1.5435	0.30212
1.544	-0.10071
1.5445	-0.70496
1.545	-5.0354
1.5455	-2.21558
1.546	-0.20142
1.5465	14.60266
1.547	16.71753
1.5475	19.03381
1.548	12.78992
1.5485	-8.8623
1.549	-14.19983
1.5495	-16.3147
1.55	-15.20691
1.5505	-21.45081
1.551	-13.797
1.5515	-9.76868
1.552	-0.70496
1.5525	7.04956
1.553	8.8623
1.5535	10.97717
1.554	9.66797
1.5545	2.11487
1.555	0.70496
1.5555	-1.61133
1.556	-2.61841
1.5565	-4.43115
1.557	-5.43823
1.5575	2.71912
1.558	1.81274
1.5585	3.52478
1.559	2.41699
1.5595	-1.40991
1.56	1.40991
1.5605	-2.41699
1.561	-1.40991
1.5615	-4.02832
1.562	1.00708
1.5625	10.57434
1.563	17.6239
1.5635	21.55151
1.564	23.66638
1.5645	23.66638
1.565	20.44373
1.5655	19.63806
1.566	22.35718
1.5665	24.37134
1.567	29.50745
1.5675	32.12585
1.568	26.08337
1.5685	15.91187
1.569	8.15735
1.5695	1.51062
1.57	-3.42407
1.5705	-0.30212
1.571	-0.50354
1.5715	-2.11487
1.572	3.22266
1.5725	-1.00708
1.573	-3.92761
1.5735	-1.91345
1.574	-6.04248
1.5745	2.21558
1.575	-1.10779
1.5755	-4.22974
1.576	3.12195
1.5765	-2.11487
1.577	-5.33752
1.5775	-7.25098
1.578	-5.84106
1.5785	-5.53894
1.579	-8.96301
1.5795	-9.66797
1.58	-8.15735
1.5805	-3.22266
1.581	5.13611
1.5815	7.15027
1.582	9.26514
1.5825	7.45239
1.583	5.53894
1.5835	4.22974
1.584	3.32336
1.5845	5.43823
1.585	6.74744
1.5855	9.76868
1.586	7.35168
1.5865	0.80566
1.587	6.54602
1.5875	9.36584
1.588	12.5885
1.5885	11.48071
1.589	13.19275
1.5895	14.80408
1.59	10.17151
1.5905	4.12903
1.591	7.65381
1.5915	8.15735
1.592	7.95593
1.5925	6.3446
1.593	4.43115
1.5935	6.04248
1.594	10.67505
1.5945	21.75293
1.595	29.70886
1.5955	35.54993
1.596	26.48621
1.5965	32.32727
1.597	36.85913
1.5975	30.81665
1.598	25.78125
1.5985	27.29187
1.599	14.19983
1.5995	7.25098
1.6	12.5885
1.6005	6.54602
1.601	-1.3092
1.6015	-1.10779
1.602	-5.63965
1.6025	-18.22815
1.603	-30.2124
1.6035	-28.70178
1.604	-25.37842
1.6045	-19.23523
1.605	-5.13611
1.6055	0.60425
1.606	0
1.6065	9.76868
1.607	20.94727
1.6075	17.82532
1.608	20.84656
1.6085	23.36426
1.609	23.66638
1.6095	29.40674
1.61	33.23364
1.6105	26.78833
1.611	21.65222
1.6115	16.51611
1.612	16.11328
1.6125	13.797
1.613	10.47363
1.6135	6.2439
1.614	-4.22974
1.6145	1.2085
1.615	4.02832
1.6155	5.43823
1.616	15.00549
1.6165	24.57275
1.617	27.89612
1.6175	22.45789
1.618	23.76709
1.6185	22.96143
1.619	22.96143
1.6195	21.3501
1.62	22.05505
1.6205	16.01257
1.621	7.75452
1.6215	1.51062
1.622	0.10071
1.6225	-6.54602
1.623	-12.18567
1.6235	-27.49329
1.624	-29.20532
1.6245	-30.2124
1.625	-30.81665
1.6255	-34.14001
1.626	-29.20532
1.6265	-26.58691
1.627	-25.37842
1.6275	-23.8678
1.628	-12.08496
1.6285	-13.19275
1.629	-4.22974
1.6295	9.26514
1.63	20.34302
1.6305	22.86072
1.631	20.04089
1.6315	15.00549
1.632	3.8269
1.6325	-8.45947
1.633	-13.59558
1.6335	-14.30054
1.634	-8.15735
1.6345	-13.19275
1.635	-12.08496
1.6355	-13.99841
1.636	-8.05664
1.6365	-7.65381
1.637	-4.02832
1.6375	-10.77576
1.638	-7.15027
1.6385	-11.38
1.639	-12.38708
1.6395	-15.81116
1.64	-12.48779
1.6405	-9.66797
1.641	1.51062
1.6415	9.46655
1.642	5.33752
1.6425	0.70496
1.643	8.66089
1.6435	4.12903
1.644	4.33044
1.6445	4.33044
1.645	-1.40991
1.6455	-1.71204
1.646	4.02832
1.6465	10.57434
1.647	15.40833
1.6475	18.63098
1.648	22.96143
1.6485	24.87488
1.649	28.9032
1.6495	28.09753
1.65	20.74585
1.6505	23.56567
1.651	14.60266
1.6515	18.63098
1.652	22.76001
1.6525	24.37134
1.653	19.13452
1.6535	12.38708
1.654	12.48779
1.6545	11.98425
1.655	10.67505
1.6555	11.58142
1.656	4.73328
1.6565	-2.41699
1.657	-4.22974
1.6575	-2.71912
1.658	-1.51062
1.6585	-1.61133
1.659	-1.51062
1.6595	-6.14319
1.66	-4.22974
1.6605	-5.0354
1.661	-15.91187
1.6615	-18.73169
1.662	-20.34302
1.6625	-8.35876
1.663	-4.02832
1.6635	2.5177
1.664	4.22974
1.6645	4.83398
1.665	9.97009
1.6655	12.28638
1.666	14.80408
1.6665	15.1062
1.667	18.93311
1.6675	15.91187
1.668	16.91895
1.6685	14.90479
1.669	14.90479
1.6695	15.30762
1.67	13.797
1.6705	17.42249
1.671	20.04089
1.6715	17.82532
1.672	13.69629
1.6725	17.01965
1.673	17.52319
1.6735	15.91187
1.674	14.40125
1.6745	15.71045
1.675	15.50903
1.6755	14.60266
1.676	8.35876
1.6765	1.10779
1.677	-5.94177
1.6775	-8.8623
1.678	-18.02673
1.6785	-20.34302
1.679	-25.57983
1.6795	-40.1825
1.68	-37.06055
1.6805	-31.52161
1.681	-4.83398
1.6815	17.82532
1.682	12.68921
1.6825	6.64673
1.683	0.60425
1.6835	9.76868
1.684	14.19983
1.6845	11.88354
1.685	23.16284
1.6855	16.51611
1.686	11.98425
1.6865	-3.7262
1.687	-13.69629
1.6875	-23.66638
1.688	-24.27063
1.6885	-33.83789
1.689	-36.55701
1.6895	-25.68054
1.69	-24.37134
1.6905	-11.88354
1.691	0
1.6915	-0.60425
1.692	-6.04248
1.6925	-10.0708
1.693	-5.23682
1.6935	-0.40283
1.694	4.12903
1.6945	2.71912
1.695	3.52478
1.6955	3.92761
1.696	2.92053
1.6965	6.54602
1.697	-0.60425
1.6975	7.35168
1.698	6.44531
1.6985	19.94019
1.699	25.78125
1.6995	32.93152
1.7	32.32727
1.7005	39.17542
1.701	40.88745
1.7015	36.55701
1.702	41.08887
1.7025	46.62781
1.703	39.57825
1.7035	41.08887
1.704	33.9386
1.7045	23.06213
1.705	29.10461
1.7055	27.09045
1.706	20.24231
1.7065	14.90479
1.707	14.09912
1.7075	6.74744
1.708	1.91345
1.7085	0
1.709	-3.8269
1.7095	-5.0354
1.71	-13.19275
1.7105	-12.5885
1.711	0.30212
1.7115	-1.91345
1.712	-3.42407
1.7125	2.61841
1.713	2.11487
1.7135	-4.83398
1.714	-1.71204
1.7145	1.81274
1.715	-1.3092
1.7155	3.7262
1.716	1.61133
1.7165	8.15735
1.717	4.12903
1.7175	0.90637
1.718	5.23682
1.7185	8.7616
1.719	13.09204
1.7195	6.64673
1.72	10.27222
1.7205	13.59558
1.721	9.26514
1.7215	14.09912
1.722	7.65381
1.7225	9.26514
1.723	10.47363
1.7235	10.17151
1.724	7.45239
1.7245	0.90637
1.725	-2.71912
1.7255	0.50354
1.726	0.10071
1.7265	-9.86938
1.727	-5.23682
1.7275	-4.83398
1.728	-3.22266
1.7285	-2.5177
1.729	1.91345
1.7295	5.63965
1.73	3.92761
1.7305	2.11487
1.731	0.10071
1.7315	1.61133
1.732	-0.10071
1.7325	-2.41699
1.733	3.22266
1.7335	-4.22974
1.734	-8.45947
1.7345	-13.59558
1.735	-10.97717
1.7355	-13.09204
1.736	-6.14319
1.7365	-2.81982
1.737	-0.10071
1.7375	0.60425
1.738	1.61133
1.7385	0.60425
1.739	1.10779
1.7395	6.64673
1.74	3.7262
1.7405	-5.33752
1.741	-8.7616
1.7415	-10.57434
1.742	-13.69629
1.7425	-16.91895
1.743	-16.41541
1.7435	-8.96301
1.744	-4.33044
1.7445	-13.29346
1.745	-11.07788
1.7455	-4.43115
1.746	-1.10779
1.7465	22.35718
1.747	31.52161
1.7475	36.95984
1.748	37.7655
1.7485	36.85913
1.749	24.47205
1.7495	22.55859
1.75	23.46497
1.7505	13.59558
1.751	7.35168
1.7515	-7.15027
1.752	-22.6593
1.7525	-27.79541
1.753	-27.79541
1.7535	-16.01257
1.754	-8.8623
1.7545	1.10779
1.755	9.46655
1.7555	10.0708
1.756	8.66089
1.7565	11.48071
1.757	4.63257
1.7575	4.83398
1.758	15.50903
1.7585	20.24231
1.759	34.44214
1.7595	43.40515
1.76	56.49719
1.7605	53.47595
1.761	40.58533
1.7615	36.95984
1.762	27.49329
1.7625	22.86072
1.763	16.3147
1.7635	21.04797
1.764	14.60266
1.7645	13.797
1.765	11.07788
1.7655	3.32336
1.766	8.66089
1.7665	3.02124
1.767	3.02124
1.7675	5.94177
1.768	2.81982
1.7685	7.04956
1.769	12.68921
1.7695	10.57434
1.77	8.7616
1.7705	10.57434
1.771	7.5531
1.7715	2.31628
1.772	2.71912
1.7725	-7.75452
1.773	-3.22266
1.7735	-3.42407
1.774	-2.81982
1.7745	-3.02124
1.775	-2.41699
1.7755	15.1062
1.776	16.61682
1.7765	13.39417
1.777	4.02832
1.7775	-2.31628
1.778	-5.13611
1.7785	-6.2439
1.779	-18.02673
1.7795	-18.8324
1.78	-9.06372
1.7805	-5.53894
1.781	-4.53186
1.7815	-13.59558
1.782	-6.74744
1.7825	-7.15027
1.783	-7.65381
1.7835	-10.67505
1.784	-4.53186
1.7845	-1.3092
1.785	3.92761
1.7855	8.66089
1.786	8.66089
1.7865	14.60266
1.787	21.24939
1.7875	30.71594
1.788	35.85205
1.7885	30.61523
1.789	24.16992
1.7895	19.23523
1.79	13.29346
1.7905	21.14868
1.791	26.58691
1.7915	23.46497
1.792	18.8324
1.7925	15.40833
1.793	20.74585
1.7935	19.83948
1.794	17.82532
1.7945	13.99841
1.795	8.56018
1.7955	6.14319
1.796	10.27222
1.7965	10.67505
1.797	12.08496
1.7975	12.18567
1.798	10.97717
1.7985	7.45239
1.799	6.2439
1.7995	10.97717
1.8	6.84814
1.8005	-1.51062
1.801	3.52478
1.8015	7.65381
1.802	2.61841
1.8025	7.45239
1.803	4.02832
1.8035	2.21558
1.804	2.81982
1.8045	-2.21558
1.805	-3.7262
1.8055	3.7262
1.806	1.10779
1.8065	3.92761
1.807	5.53894
1.8075	8.8623
1.808	8.8623
1.8085	8.7616
1.809	3.02124
1.8095	0.60425
1.81	6.64673
1.8105	2.81982
1.811	5.84106
1.8115	7.95593
1.812	0.20142
1.8125	-0.80566
1.813	-1.10779
1.8135	2.71912
1.814	3.8269
1.8145	3.12195
1.815	4.12903
1.8155	-0.40283
1.816	-2.61841
1.8165	-0.20142
1.817	0.90637
1.8175	0.10071
1.818	0.20142
1.8185	-0.70496
1.819	-1.61133
1.8195	0.60425
1.82	3.42407
1.8205	9.86938
1.821	8.8623
1.8215	11.38
1.822	10.57434
1.8225	10.57434
1.823	14.40125
1.8235	19.83948
1.824	18.02673
1.8245	22.15576
1.825	15.60974
1.8255	20.74585
1.826	26.58691
1.8265	31.62231
1.827	24.37134
1.8275	17.52319
1.828	12.38708
1.8285	10.97717
1.829	0.80566
1.8295	-10.17151
1.83	-12.28638
1.8305	-14.70337
1.831	-18.53027
1.8315	-27.89612
1.832	-26.18408
1.8325	-22.25647
1.833	-27.49329
1.8335	-27.89612
1.834	-26.28479
1.8345	-17.82532
1.835	-13.19275
1.8355	-12.68921
1.836	-1.40991
1.8365	2.81982
1.837	4.33044
1.8375	9.36584
1.838	20.54443
1.8385	30.61523
1.839	27.09045
1.8395	28.50037
1.84	35.2478
1.8405	48.64197
1.841	46.02356
1.8415	41.89453
1.842	37.46338
1.8425	23.8678
1.843	10.17151
1.8435	-12.08496
1.844	-24.67346
1.8445	-35.04639
1.845	-40.2832
1.8455	-43.10303
1.846	-39.17542
1.8465	-30.51453
1.847	-25.78125
1.8475	-16.61682
1.848	-19.13452
1.8485	-6.54602
1.849	8.8623
1.8495	7.45239
1.85	15.50903
1.8505	18.73169
1.851	24.47205
1.8515	13.39417
1.852	21.14868
1.8525	28.19824
1.853	26.18408
1.8535	30.41382
1.854	36.95984
1.8545	26.78833
1.855	11.78284
1.8555	4.63257
1.856	-4.93469
1.8565	-6.3446
1.857	-1.40991
1.8575	-1.91345
1.858	-2.61841
1.8585	-6.94885
1.859	-1.61133
1.8595	2.01416
1.86	7.85522
1.8605	6.74744
1.861	6.04248
1.8615	-0.50354
1.862	-10.17151
1.8625	-3.8269
1.863	-0.70496
1.8635	4.12903
1.864	8.8623
1.8645	17.82532
1.865	17.92603
1.8655	19.63806
1.866	20.1416
1.8665	7.75452
1.867	6.44531
1.8675	-3.32336
1.868	-8.7616
1.8685	-28.09753
1.869	-48.64197
1.8695	-70.29419
1.87	-74.2218
1.8705	-72.10693
1.871	-67.67578
1.8715	-59.31702
1.872	-53.87878
1.8725	-45.3186
1.873	-31.92444
1.8735	-15.60974
1.874	2.21558
1.8745	20.1416
1.875	39.17542
1.8755	54.28162
1.876	67.07153
1.8765	63.74817
1.877	66.16516
1.8775	55.59082
1.878	46.62781
1.8785	30.11169
1.879	27.39258
1.8795	26.28479
1.88	22.96143
1.8805	25.98267
1.881	39.98108
1.8815	28.09753
1.882	22.55859
1.8825	23.8678
1.883	27.59399
1.8835	22.6593
1.884	18.02673
1.8845	8.15735
1.885	0.90637
1.8855	-1.51062
1.886	-11.17859
1.8865	-12.78992
1.887	0.90637
1.8875	-2.11487
1.888	3.32336
1.8885	16.41541
1.889	12.5885
1.8895	4.53186
1.89	-1.81274
1.8905	0.90637
1.891	2.81982
1.8915	-0.80566
1.892	-4.93469
1.8925	-4.73328
1.893	-9.46655
1.8935	-5.74036
1.894	0.90637
1.8945	10.37292
1.895	11.17859
1.8955	21.55151
1.896	35.2478
1.8965	24.47205
1.897	23.96851
1.8975	23.06213
1.898	23.36426
1.8985	25.47913
1.899	14.09912
1.8995	10.37292
1.9	0.40283
1.9005	-2.41699
1.901	-10.87646
1.9015	-7.5531
1.902	-9.86938
1.9025	-5.53894
1.903	-2.71912
1.9035	-3.92761
1.904	-13.99841
1.9045	-19.53735
1.905	-19.63806
1.9055	-17.92603
1.906	-15.00549
1.9065	-1.40991
1.907	-2.61841
1.9075	-10.87646
1.908	-9.86938
1.9085	1.71204
1.909	26.28479
1.9095	49.44763
1.91	62.33826
1.9105	68.17932
1.911	62.9425
1.9115	56.90002
1.912	40.68604
1.9125	33.33435
1.913	25.177
1.9135	20.1416
1.914	15.20691
1.9145	7.15027
1.915	10.17151
1.9155	12.38708
1.916	11.38
1.9165	-0.80566
1.917	5.53894
1.9175	3.42407
1.918	-4.43115
1.9185	-11.68213
1.919	-7.5531
1.9195	-13.89771
1.92	-11.58142
1.9205	2.71912
1.921	0.50354
1.9215	-6.2439
1.922	-5.23682
1.9225	-12.08496
1.923	-11.58142
1.9235	24.06921
1.924	93.35632
1.9245	123.77014
1.925	125.28076
1.9255	117.12341
1.926	100.90942
1.9265	80.86853
1.927	69.68994
1.9275	47.03064
1.928	23.96851
1.9285	4.53186
1.929	-23.66638
1.9295	-42.90161
1.93	-61.43188
1.9305	-66.36658
1.931	-63.14392
1.9315	-73.81897
1.932	-81.87561
1.9325	-83.28552
1.933	-86.8103
1.9335	-75.02747
1.934	-54.78516
1.9345	-44.31152
1.935	-28.29895
1.9355	-19.53735
1.936	-6.04248
1.9365	-3.22266
1.937	2.31628
1.9375	7.5531
1.938	-2.01416
1.9385	-2.71912
1.939	6.04248
1.9395	10.0708
1.94	5.84106
1.9405	7.95593
1.941	12.99133
1.9415	22.55859
1.942	19.83948
1.9425	17.52319
1.943	17.72461
1.9435	10.57434
1.944	7.04956
1.9445	6.04248
1.945	10.57434
1.9455	8.66089
1.946	4.22974
1.9465	-3.52478
1.947	-5.63965
1.9475	-13.29346
1.948	-34.34143
1.9485	-59.61914
1.949	-54.88586
1.9495	-33.33435
1.95	-23.06213
1.9505	-23.06213
1.951	-2.41699
1.9515	3.22266
1.952	-2.11487
1.9525	-3.8269
1.953	-11.68213
1.9535	-16.81824
1.954	-20.74585
1.9545	-31.01807
1.955	-31.52161
1.9555	33.53577
1.956	55.18799
1.9565	49.14551
1.957	62.33826
1.9575	207.96204
1.958	300.21057
1.9585	320.55359
1.959	277.04773
1.9595	234.14612
1.96	189.53247
1.9605	132.53174
1.961	77.14233
1.9615	26.18408
1.962	-16.91895
1.9625	-75.02747
1.963	-124.97864
1.9635	-148.74573
1.964	-170.80078
1.9645	-180.56946
1.965	-191.44592
1.9655	-172.10999
1.966	-146.22803
1.9665	-125.38147
1.967	-111.18164
1.9675	-88.42163
1.968	-61.93542
1.9685	-35.65063
1.969	-11.38
1.9695	2.11487
1.97	14.09912
1.9705	17.82532
1.971	26.78833
1.9715	32.62939
1.972	31.52161
1.9725	41.29028
1.973	45.92285
1.9735	50.85754
1.974	52.16675
1.9745	47.7356
1.975	48.33984
1.9755	51.36108
1.976	46.42639
1.9765	45.3186
1.977	39.67896
1.9775	36.95984
1.978	36.4563
1.9785	28.29895
1.979	28.60107
1.9795	27.09045
1.98	14.60266
1.9805	6.74744
1.981	-3.32336
1.9815	-6.64673
1.982	-16.3147
1.9825	-18.32886
1.983	-24.37134
1.9835	-25.78125
1.984	-26.78833
1.9845	-19.83948
1.985	-17.72461
1.9855	-14.19983
1.986	-12.78992
1.9865	-14.19983
1.987	-12.08496
1.9875	-3.22266
1.988	1.40991
1.9885	0.90637
1.989	5.0354
1.9895	-1.71204
1.99	7.65381
1.9905	5.63965
1.991	9.86938
1.9915	15.91187
1.992	18.12744
1.9925	10.0708
1.993	10.97717
1.9935	23.26355
1.994	34.54285
1.9945	30.61523
1.995	21.3501
1.9955	14.09912
1.996	-2.01416
1.9965	-7.5531
1.997	-19.73877
1.9975	-25.88196
1.998	-31.32019
1.9985	-35.04639
1.999	-23.06213
1.9995	-24.16992
2	-22.86072
2.0005	-16.51611
2.001	-18.53027
2.0015	-15.40833
2.002	-16.21399
2.0025	-14.60266
2.003	-0.90637
2.0035	0.90637
2.004	1.10779
2.0045	10.17151
2.005	17.01965
2.0055	13.09204
2.006	1.81274
2.0065	2.01416
2.007	-2.61841
2.0075	-4.53186
2.008	-1.71204
2.0085	-12.38708
2.009	-15.71045
2.0095	-3.62549
2.01	0.10071
2.0105	2.41699
2.011	6.14319
2.0115	16.11328
2.012	10.57434
2.0125	12.89062
2.013	8.7616
2.0135	19.94019
2.014	15.60974
2.0145	13.49487
2.015	9.66797
2.0155	18.42957
2.016	21.65222
2.0165	29.10461
2.017	22.86072
2.0175	18.8324
2.018	17.01965
2.0185	16.01257
2.019	22.86072
2.0195	76.03455
2.02	118.93616
2.0205	129.81262
2.021	121.15173
2.0215	104.23279
2.022	82.47986
2.0225	84.19189
2.023	75.53101
2.0235	48.33984
2.024	18.12744
2.0245	25.78125
2.025	7.95593
2.0255	4.73328
2.026	12.38708
2.0265	7.45239
2.027	0.70496
2.0275	-2.61841
2.028	-24.77417
2.0285	-39.98108
2.029	-50.15259
2.0295	-42.39807
2.03	-33.23364
2.0305	-33.23364
2.031	-34.94568
2.0315	-17.52319
2.032	-21.85364
2.0325	-27.59399
2.033	-34.94568
2.0335	28.39966
2.034	72.30835
2.0345	94.2627
2.035	102.82288
2.0355	91.04004
2.036	65.25879
2.0365	45.52002
2.037	27.79541
2.0375	4.73328
2.038	-13.29346
2.0385	-38.67188
2.039	-58.20923
2.0395	-70.79773
2.04	-78.25012
2.0405	-83.68835
2.041	-88.42163
2.0415	-69.48853
2.042	-65.56091
2.0425	-67.47437
2.043	-58.81348
2.0435	-36.95984
2.044	-32.02515
2.0445	-26.88904
2.045	-28.60107
2.0455	-45.2179
2.046	-67.77649
2.0465	-63.74817
2.047	-52.26746
2.0475	18.02673
2.048	95.26978
2.0485	113.09509
2.049	128.20129
2.0495	128.50342
2.05	111.38306
2.0505	76.03455
2.051	62.8418
2.0515	55.69153
2.052	44.0094
2.0525	18.12744
2.053	-7.75452
2.0535	2.01416
2.054	5.33752
2.0545	-5.13611
2.055	-13.49487
2.0555	-12.68921
2.056	-0.70496
2.0565	34.74426
2.057	86.30676
2.0575	157.00378
2.058	181.27441
2.0585	160.12573
2.059	131.22253
2.0595	93.25562
2.06	53.77808
2.0605	10.87646
2.061	-25.57983
2.0615	-67.17224
2.062	-92.24854
2.0625	-125.18005
2.063	-138.3728
2.0635	-145.62378
2.064	-148.14148
2.0645	-141.39404
2.065	-135.55298
2.0655	-122.66235
2.066	-99.3988
2.0665	-68.48145
2.067	-51.36108
2.0675	-34.84497
2.068	-13.19275
2.0685	-0.40283
2.069	1.71204
2.0695	7.65381
2.07	9.36584
2.0705	18.63098
2.071	26.78833
2.0715	30.2124
2.072	38.47046
2.0725	48.23914
2.073	60.62622
2.0735	64.45312
2.074	56.39648
2.0745	47.43347
2.075	44.31152
2.0755	36.25488
2.076	26.88904
2.0765	18.12744
2.077	17.82532
2.0775	15.00549
2.078	12.28638
2.0785	14.30054
2.079	19.33594
2.0795	30.51453
2.08	44.81506
2.0805	51.05896
2.081	47.43347
2.0815	42.09595
2.082	44.31152
2.0825	43.40515
2.083	41.18958
2.0835	19.63806
2.084	-1.40991
2.0845	-12.48779
2.085	-21.14868
2.0855	-35.14709
2.086	-46.12427
2.0865	-44.51294
2.087	-12.48779
2.0875	10.57434
2.088	22.76001
2.0885	23.46497
2.089	16.61682
2.0895	20.54443
2.09	19.33594
2.0905	17.12036
2.091	1.40991
2.0915	-11.17859
2.092	-21.85364
2.0925	-35.14709
2.093	-38.67188
2.0935	-42.09595
2.094	-43.00232
2.0945	-53.17383
2.095	-61.83472
2.0955	-68.58215
2.096	-70.3949
2.0965	-61.93542
2.097	-41.99524
2.0975	-30.31311
2.098	-30.81665
2.0985	-29.20532
2.099	3.7262
2.0995	46.62781
2.1	66.26587
2.1005	109.26819
2.101	175.73547
2.1015	193.05725
2.102	189.33105
2.1025	187.31689
2.103	164.55688
2.1035	141.59546
2.104	113.39722
2.1045	67.77649
2.105	27.19116
2.1055	-23.56567
2.106	-67.8772
2.1065	-101.11084
2.107	-115.61279
2.1075	-130.92041
2.108	-135.04944
2.1085	-128.40271
2.109	-120.34607
2.1095	-110.37598
2.11	-96.67969
2.1105	-75.22888
2.111	-52.36816
2.1115	-34.94568
2.112	-25.27771
2.1125	-11.2793
2.113	-0.30212
2.1135	6.04248
2.114	17.12036
2.1145	23.36426
2.115	29.40674
2.1155	29.00391
2.116	23.96851
2.1165	16.21399
2.117	7.25098
2.1175	4.22974
2.118	6.2439
2.1185	4.53186
2.119	7.25098
2.1195	1.71204
2.12	1.10779
2.1205	7.5531
2.121	9.76868
2.1215	10.17151
2.122	13.797
2.1225	21.75293
2.123	22.6593
2.1235	25.57983
2.124	33.9386
2.1245	43.70728
2.125	48.44055
2.1255	40.48462
2.126	36.85913
2.1265	35.95276
2.127	35.54993
2.1275	26.3855
2.128	5.23682
2.1285	-9.56726
2.129	-18.02673
2.1295	-22.76001
2.13	-25.88196
2.1305	-34.24072
2.131	-31.11877
2.1315	-31.21948
2.132	-33.83789
2.1325	-41.89453
2.133	-31.52161
2.1335	-22.15576
2.134	-13.99841
2.1345	-14.30054
2.135	-12.68921
2.1355	-4.83398
2.136	2.11487
2.1365	-5.13611
2.137	-9.36584
2.1375	14.80408
2.138	75.22888
2.1385	125.28076
2.139	146.42944
2.1395	144.41528
2.14	131.72607
2.1405	117.32483
2.141	108.56323
2.1415	104.53491
2.142	114.00146
2.1425	163.4491
2.143	159.7229
2.1435	150.15564
2.144	142.60254
2.1445	109.87244
2.145	70.89844
2.1455	35.14709
2.146	6.64673
2.1465	-32.12585
2.147	-66.46729
2.1475	-94.3634
2.148	-121.05103
2.1485	-125.18005
2.149	-129.00696
2.1495	-148.04077
2.15	-129.71191
2.1505	-59.61914
2.151	-25.37842
2.1515	-11.88354
2.152	10.57434
2.1525	50.95825
2.153	84.2926
2.1535	89.63013
2.154	76.03455
2.1545	52.97241
2.155	27.09045
2.1555	1.71204
2.156	-11.2793
2.1565	-22.55859
2.157	-38.974
2.1575	-70.49561
2.158	-93.45703
2.1585	-126.9928
2.159	-129.40979
2.1595	-129.71191
2.16	-125.88501
2.1605	-124.57581
2.161	-115.61279
2.1615	-95.16907
2.162	-80.4657
2.1625	-77.44446
2.163	-76.53809
2.1635	-59.61914
2.164	-40.48462
2.1645	-31.21948
2.165	-27.79541
2.1655	-20.04089
2.166	-12.18567
2.1665	0.40283
2.167	14.90479
2.1675	24.16992
2.168	21.3501
2.1685	6.64673
2.169	5.13611
2.1695	15.20691
2.17	27.89612
2.1705	37.86621
2.171	32.52869
2.1715	34.44214
2.172	40.1825
2.1725	59.92126
2.173	73.41614
2.1735	114.00146
2.174	125.38147
2.1745	121.55457
2.175	109.4696
2.1755	101.8158
2.176	84.59473
2.1765	58.30994
2.177	39.57825
2.1775	13.89771
2.178	1.10779
2.1785	-5.13611
2.179	-24.97559
2.1795	-43.00232
2.18	-47.63489
2.1805	-55.18799
2.181	-55.69153
2.1815	-40.08179
2.182	-36.65771
2.1825	-27.39258
2.183	-12.08496
2.1835	9.76868
2.184	23.76709
2.1845	35.44922
2.185	46.82922
2.1855	52.46887
2.186	60.3241
2.1865	51.46179
2.187	47.03064
2.1875	36.35559
2.188	22.6593
2.1885	52.8717
2.189	113.69934
2.1895	128.20129
2.19	126.58997
2.1905	106.75049
2.191	75.83313
2.1915	57.30286
2.192	26.3855
2.1925	5.74036
2.193	-3.92761
2.1935	-21.65222
2.194	-47.93701
2.1945	-65.46021
2.195	-87.71667
2.1955	-97.68677
2.196	-108.56323
2.1965	-102.52075
2.197	-97.78748
2.1975	-84.39331
2.198	-50.45471
2.1985	-32.62939
2.199	-3.8269
2.1995	20.54443
2.2	46.22498
2.2005	36.75842
2.201	32.93152
2.2015	29.70886
2.202	37.16125
2.2025	41.69312
2.203	51.66321
2.2035	74.42322
2.204	97.38464
2.2045	88.22021
2.205	80.76782
2.2055	65.96375
2.206	39.67896
2.2065	18.8324
2.207	12.08496
2.2075	15.60974
2.208	17.12036
2.2085	1.2085
2.209	-18.02673
2.2095	-18.12744
2.21	-17.22107
2.2105	-15.60974
2.211	-5.63965
2.2115	-3.32336
2.212	-5.13611
2.2125	-5.63965
2.213	1.81274
2.2135	9.16443
2.214	11.17859
2.2145	21.55151
2.215	18.8324
2.2155	11.68213
2.216	2.11487
2.2165	-10.87646
2.217	-23.56567
2.2175	-28.80249
2.218	-24.37134
2.2185	-10.17151
2.219	-1.00708
2.2195	12.18567
2.22	8.45947
2.2205	7.85522
2.221	12.5885
2.2215	17.22107
2.222	13.89771
2.2225	2.01416
2.223	-5.53894
2.2235	-8.25806
2.224	-12.18567
2.2245	-13.59558
2.225	-11.98425
2.2255	-14.50195
2.226	-11.17859
2.2265	-12.89062
2.227	-19.23523
2.2275	-25.177
2.228	-39.57825
2.2285	-40.38391
2.229	-31.21948
2.2295	-29.20532
2.23	-14.19983
2.2305	2.92053
2.231	21.85364
2.2315	21.24939
2.232	11.98425
2.2325	55.2887
2.233	88.62305
2.2335	110.37598
2.234	129.40979
2.2345	122.05811
2.235	109.16748
2.2355	94.96765
2.236	72.81189
2.2365	52.8717
2.237	27.6947
2.2375	4.53186
2.238	-15.50903
2.2385	-31.21948
2.239	-15.50903
2.2395	-3.12195
2.24	1.00708
2.2405	-1.3092
2.241	-12.38708
2.2415	-21.65222
2.242	-27.99683
2.2425	-27.39258
2.243	-24.37134
2.2435	-30.11169
2.244	-39.07471
2.2445	-49.95117
2.245	-64.95667
2.2455	-79.55933
2.246	-87.21313
2.2465	-87.81738
2.247	-84.59473
2.2475	-79.66003
2.248	-66.06445
2.2485	-49.74976
2.249	-27.39258
2.2495	-14.80408
2.25	-17.12036
2.2505	20.74585
2.251	65.46021
2.2515	99.80164
2.252	115.81421
2.2525	111.58447
2.253	95.5719
2.2535	78.04871
2.254	47.33276
2.2545	28.09753
2.255	4.93469
2.2555	-21.85364
2.256	-41.08887
2.2565	-51.26038
2.257	-53.67737
2.2575	-49.24622
2.258	-45.01648
2.2585	-29.30603
2.259	-16.21399
2.2595	-1.91345
2.26	-0.40283
2.2605	8.25806
2.261	24.06921
2.2615	36.15417
2.262	65.86304
2.2625	136.45935
2.263	173.21777
2.2635	167.77954
2.264	151.46484
2.2645	132.53174
2.265	111.18164
2.2655	82.07703
2.266	48.13843
2.2665	23.8678
2.267	43.80798
2.2675	53.07312
2.268	60.52551
2.2685	53.07312
2.269	29.70886
2.2695	9.97009
2.27	-6.74744
2.2705	-33.23364
2.271	-39.07471
2.2715	-53.67737
2.272	-67.47437
2.2725	-62.74109
2.273	-58.71277
2.2735	-67.57507
2.274	-74.42322
2.2745	-89.52942
2.275	-107.65686
2.2755	-112.39014
2.276	-116.01562
2.2765	-102.72217
2.277	-57.8064
2.2775	17.01965
2.278	103.32642
2.2785	128.90625
2.279	123.06519
2.2795	99.2981
2.28	89.42871
2.2805	86.40747
2.281	65.76233
2.2815	51.5625
2.282	30.11169
2.2825	7.5531
2.283	-30.81665
2.2835	-50.354
2.284	-67.97791
2.2845	-93.0542
2.285	-113.59863
2.2855	-126.18713
2.286	-130.51758
2.2865	-129.61121
2.287	-116.31775
2.2875	-92.65137
2.288	-49.54834
2.2885	-21.85364
2.289	6.44531
2.2895	17.42249
2.29	26.58691
2.2905	33.73718
2.291	35.44922
2.2915	11.68213
2.292	11.98425
2.2925	2.61841
2.293	8.15735
2.2935	20.64514
2.294	22.86072
2.2945	26.58691
2.295	13.09204
2.2955	2.11487
2.296	-4.02832
2.2965	1.51062
2.297	14.60266
2.2975	26.78833
2.298	52.06604
2.2985	60.82764
2.299	64.65454
2.2995	61.33118
2.3	68.07861
2.3005	63.74817
2.301	53.77808
2.3015	57.70569
2.302	61.33118
2.3025	61.93542
2.303	51.96533
2.3035	43.30444
2.304	35.04639
2.3045	27.89612
2.305	13.29346
2.3055	-7.04956
2.306	-20.74585
2.3065	-26.18408
2.307	-51.66321
2.3075	-51.86462
2.308	-60.52551
2.3085	-59.51843
2.309	-54.18091
2.3095	-43.10303
2.31	-31.21948
2.3105	-30.51453
2.311	-27.49329
2.3115	-27.99683
2.312	-40.38391
2.3125	-46.62781
2.313	-51.15967
2.3135	-14.90479
2.314	140.38696
2.3145	208.46558
2.315	263.25073
2.3155	334.14917
2.316	356.40564
2.3165	341.40015
2.317	286.81641
2.3175	244.51904
2.318	263.85498
2.3185	309.87854
2.319	286.41357
2.3195	244.31763
2.32	174.52698
2.3205	81.97632
2.321	-17.82532
2.3215	-99.2981
2.322	-170.80078
2.3225	-252.7771
2.323	-303.63464
2.3235	-375.43945
2.324	-409.27734
2.3245	-390.24353
2.325	-338.98315
2.3255	-278.65906
2.326	-237.97302
2.3265	-207.15637
2.327	-187.51831
2.3275	-167.47742
2.328	-156.90308
2.3285	-136.05652
2.329	-29.60815
2.3295	100.00305
2.33	183.79211
2.3305	218.93921
2.331	228.80859
2.3315	219.54346
2.332	178.45459
2.3325	118.93616
2.333	64.85596
2.3335	7.95593
2.334	-61.73401
2.3345	-102.62146
2.335	-139.5813
2.3355	-161.0321
2.336	-179.96521
2.3365	-184.69849
2.337	-130.61829
2.3375	-78.55225
2.338	-34.84497
2.3385	0.10071
2.339	9.86938
2.3395	55.79224
2.34	167.98096
2.3405	245.82825
2.341	281.07605
2.3415	247.13745
2.342	197.79053
2.3425	147.1344
2.343	82.58057
2.3435	29.50745
2.344	-7.65381
2.3445	-47.13135
2.345	-94.2627
2.3455	-130.8197
2.346	-145.22095
2.3465	-155.896
2.347	-171.10291
2.3475	-182.68433
2.348	-208.66699
2.3485	-234.64966
2.349	-227.29797
2.3495	-217.42859
2.35	-224.47815
2.3505	-200.50964
2.351	-140.38696
2.3515	-88.32092
2.352	-52.8717
2.3525	9.46655
2.353	68.38074
2.3535	112.49084
2.354	139.5813
2.3545	163.4491
2.355	169.69299
2.3555	172.71423
2.356	156.70166
2.3565	137.36572
2.357	120.34607
2.3575	100.6073
2.358	97.68677
2.3585	88.0188
2.359	68.07861
2.3595	39.37683
2.36	11.88354
2.3605	-20.64514
2.361	-37.86621
2.3615	101.21155
2.362	181.57654
2.3625	215.51514
2.363	214.81018
2.3635	193.6615
2.364	163.5498
2.3645	169.89441
2.365	301.41907
2.3655	368.08777
2.366	350.76599
2.3665	292.15393
2.367	213.8031
2.3675	129.5105
2.368	21.14868
2.3685	-80.16357
2.369	-151.76697
2.3695	-240.59143
2.37	-312.69836
2.3705	-384.70459
2.371	-436.87134
2.3715	-443.21594
2.372	-437.87842
2.3725	-416.93115
2.373	-394.57397
2.3735	-363.75732
2.374	-311.79199
2.3745	-232.73621
2.375	-187.71973
2.3755	-149.04785
2.376	-103.32642
2.3765	-41.89453
2.377	12.28638
2.3775	34.44214
2.378	72.00623
2.3785	113.69934
2.379	177.04468
2.3795	230.52063
2.38	220.14771
2.3805	202.12097
2.381	164.95972
2.3815	124.4751
2.382	80.96924
2.3825	41.59241
2.383	-1.2085
2.3835	-41.89453
2.384	-76.33667
2.3845	-103.82996
2.385	-117.52625
2.3855	-120.54749
2.386	-106.14624
2.3865	-81.57349
2.387	-37.86621
2.3875	-18.12744
2.388	22.25647
2.3885	52.67029
2.389	86.8103
2.3895	121.35315
2.39	130.71899
2.3905	124.37439
2.391	111.68518
2.3915	86.60889
2.392	80.06287
2.3925	77.84729
2.393	165.56396
2.3935	212.09106
2.394	197.99194
2.3945	152.47192
2.395	70.89844
2.3955	-21.04797
2.396	-80.4657
2.3965	-121.9574
2.397	-137.36572
2.3975	-157.70874
2.398	-186.71265
2.3985	-192.95654
2.399	-175.03052
2.3995	-71.80481
2.4	30.11169
2.4005	69.89136
2.401	44.71436
2.4015	36.25488
2.402	43.00232
2.4025	62.13684
2.403	96.37756
2.4035	118.13049
2.404	124.87793
2.4045	168.78662
2.405	196.58203
2.4055	168.58521
2.406	110.27527
2.4065	59.82056
2.407	43.40515
2.4075	46.92993
2.408	16.81824
2.4085	-13.99841
2.409	-86.50818
2.4095	-154.38538
2.41	-205.34363
2.4105	-221.96045
2.411	-210.37903
2.4115	-202.12097
2.412	-191.34521
2.4125	-188.52539
2.413	-129.91333
2.4135	-86.70959
2.414	-72.81189
2.4145	-52.26746
2.415	-45.62073
2.4155	-48.03772
2.416	-47.63489
2.4165	-46.42639
2.417	-54.58374
2.4175	-47.23206
2.418	-30.01099
2.4185	-12.38708
2.419	5.74036
2.4195	29.70886
2.42	32.93152
2.4205	29.30603
2.421	26.18408
2.4215	21.95435
2.422	17.01965
2.4225	16.51611
2.423	19.94019
2.4235	27.6947
2.424	32.22656
2.4245	40.98816
2.425	48.64197
2.4255	58.91418
2.426	75.83313
2.4265	87.71667
2.427	87.61597
2.4275	79.15649
2.428	70.09277
2.4285	56.39648
2.429	113.69934
2.4295	202.92664
2.43	215.61584
2.4305	192.75513
2.431	196.68274
2.4315	267.58118
2.432	328.71094
2.4325	326.09253
2.433	292.35535
2.4335	246.02966
2.434	190.43884
2.4345	138.3728
2.435	70.3949
2.4355	-7.15027
2.436	-80.4657
2.4365	-148.3429
2.437	-209.77478
2.4375	-265.66772
2.438	-322.97058
2.4385	-353.68652
2.439	-331.73218
2.4395	-289.53552
2.44	-175.33264
2.4405	-101.8158
2.441	-56.69861
2.4415	-20.54443
2.442	12.48779
2.4425	33.73718
2.443	35.14709
2.4435	26.48621
2.444	18.32886
2.4445	85.5011
2.445	122.46094
2.4455	124.77722
2.446	163.65051
2.4465	170.29724
2.447	154.38538
2.4475	127.19421
2.448	45.3186
2.4485	-9.97009
2.449	-79.35791
2.4495	-142.19971
2.45	-189.73389
2.4505	-163.85193
2.451	-145.42236
2.4515	-151.76697
2.452	-171.30432
2.4525	-130.01404
2.453	-87.31384
2.4535	-62.13684
2.454	-37.16125
2.4545	-26.68762
2.455	-7.95593
2.4555	-12.18567
2.456	-5.13611
2.4565	-0.50354
2.457	-33.73718
2.4575	-74.32251
2.458	-95.16907
2.4585	-91.24146
2.459	5.84106
2.4595	60.82764
2.46	90.73792
2.4605	116.61987
2.461	131.52466
2.4615	126.58997
2.462	146.73157
2.4625	134.04236
2.463	95.77332
2.4635	48.74268
2.464	49.54834
2.4645	40.68604
2.465	40.08179
2.4655	30.51453
2.466	-4.33044
2.4665	-9.26514
2.467	-19.23523
2.4675	-22.15576
2.468	-25.37842
2.4685	-52.771
2.469	-54.28162
2.4695	-39.67896
2.47	-41.18958
2.4705	-22.05505
2.471	101.71509
2.4715	178.45459
2.472	192.85583
2.4725	194.56787
2.473	177.64893
2.4735	144.31458
2.474	92.85278
2.4745	49.54834
2.475	19.94019
2.4755	-5.74036
2.476	29.00391
2.4765	38.26904
2.477	30.2124
2.4775	10.0708
2.478	-3.12195
2.4785	-6.3446
2.479	-31.72302
2.4795	-65.05737
2.48	-82.47986
2.4805	-104.23279
2.481	-112.69226
2.4815	-128.90625
2.482	-143.71033
2.4825	-161.23352
2.483	-168.28308
2.4835	-149.04785
2.484	-158.5144
2.4845	-170.19653
2.485	-154.28467
2.4855	-88.11951
2.486	-26.08337
2.4865	18.93311
2.487	61.43188
2.4875	85.80322
2.488	90.03296
2.4885	85.29968
2.489	65.86304
2.4895	53.27454
2.49	55.3894
2.4905	69.89136
2.491	74.12109
2.4915	82.58057
2.492	87.91809
2.4925	72.00623
2.493	52.16675
2.4935	21.3501
2.494	4.93469
2.4945	-7.35168
2.495	-19.73877
2.4955	-27.89612
2.496	-35.95276
2.4965	-45.62073
2.497	-54.48303
2.4975	-46.82922
2.498	-34.14001
2.4985	-36.35559
2.499	-41.18958
2.4995	-50.354
2.5	63.44604
2.5005	308.0658
2.501	440.29541
2.5015	480.88074
2.502	464.46533
2.5025	429.82178
2.503	361.64246
2.5035	299.70703
2.504	279.56543
2.5045	234.75037
2.505	163.4491
2.5055	103.42712
2.506	35.95276
2.5065	-35.75134
2.507	-110.27527
2.5075	-173.92273
2.508	-215.0116
2.5085	-251.4679
2.509	-282.58667
2.5095	-303.1311
2.51	-296.48438
2.5105	-281.98242
2.511	-269.29321
2.5115	-270.90454
2.512	-270.70312
2.5125	-256.5033
2.513	-223.16895
2.5135	-185.60486
2.514	-147.43652
2.5145	-109.06677
2.515	-85.29968
2.5155	-60.12268
2.516	-47.13135
2.5165	-25.47913
2.517	-14.40125
2.5175	-2.41699
2.518	13.69629
2.5185	31.52161
2.519	46.32568
2.5195	60.62622
2.52	60.92834
2.5205	59.1156
2.521	55.79224
2.5215	65.86304
2.522	92.44995
2.5225	108.96606
2.523	116.01562
2.5235	124.07227
2.524	112.79297
2.5245	94.56482
2.525	78.45154
2.5255	56.19507
2.526	36.4563
2.5265	13.49487
2.527	61.02905
2.5275	110.87952
2.528	118.53333
2.5285	94.66553
2.529	78.65295
2.5295	60.02197
2.53	26.68762
2.5305	-4.53186
2.531	-24.06921
2.5315	-24.06921
2.532	-33.23364
2.5325	-37.66479
2.533	-43.70728
2.5335	-36.4563
2.534	-34.34143
2.5345	-17.22107
2.535	-9.36584
2.5355	-8.66089
2.536	-5.23682
2.5365	8.45947
2.537	17.12036
2.5375	12.38708
2.538	20.1416
2.5385	32.12585
2.539	35.95276
2.5395	91.44287
2.54	140.08484
2.5405	146.02661
2.541	133.13599
2.5415	112.79297
2.542	86.40747
2.5425	66.76941
2.543	61.12976
2.5435	48.74268
2.544	21.3501
2.5445	-1.3092
2.545	-27.89612
2.5455	-49.34692
2.546	-70.89844
2.5465	-77.74658
2.547	-72.61047
2.5475	-61.33118
2.548	-48.54126
2.5485	-30.51453
2.549	-30.71594
2.5495	-33.43506
2.55	-41.69312
2.5505	-54.0802
2.551	-67.27295
2.5515	-71.60339
2.552	-75.32959
2.5525	-87.81738
2.553	-78.25012
2.5535	-49.74976
2.554	-20.94727
2.5545	8.35876
2.555	27.29187
2.5555	51.66321
2.556	55.89294
2.5565	57.60498
2.557	62.03613
2.5575	65.05737
2.558	60.82764
2.5585	60.52551
2.559	57.50427
2.5595	45.92285
2.56	50.2533
2.5605	52.36816
2.561	43.70728
2.5615	31.01807
2.562	20.44373
2.5625	20.74585
2.563	33.73718
2.5635	25.07629
2.564	12.18567
2.5645	-4.02832
2.565	1.40991
2.5655	13.39417
2.566	9.16443
2.5665	25.57983
2.567	142.80396
2.5675	244.51904
2.568	257.51038
2.5685	240.28931
2.569	217.32788
2.5695	172.00928
2.57	120.44678
2.5705	116.31775
2.571	97.28394
2.5715	66.06445
2.572	25.57983
2.5725	-26.48621
2.573	-83.99048
2.5735	-133.23669
2.574	-174.32556
2.5745	-192.65442
2.575	-214.20593
2.5755	-218.63708
2.576	-205.54504
2.5765	-180.36804
2.577	-101.51367
2.5775	-31.82373
2.578	2.81982
2.5785	22.96143
2.579	37.7655
2.5795	43.50586
2.58	34.74426
2.5805	42.59949
2.581	113.09509
2.5815	128.80554
2.582	146.02661
2.5825	252.67639
2.583	349.05396
2.5835	368.08777
2.584	358.72192
2.5845	308.97217
2.585	218.43567
2.5855	111.9873
2.586	39.98108
2.5865	-19.53735
2.587	-78.95508
2.5875	-137.0636
2.588	-183.18787
2.5885	-233.03833
2.589	-288.0249
2.5895	-338.17749
2.59	-352.88086
2.5905	-336.06262
2.591	-251.4679
2.5915	-181.27441
2.592	-167.07458
2.5925	-97.78748
2.593	-40.78674
2.5935	-13.39417
2.594	66.06445
2.5945	183.5907
2.595	204.63867
2.5955	205.64575
2.596	173.11707
2.5965	138.67493
2.597	84.89685
2.5975	20.94727
2.598	-51.86462
2.5985	-106.04553
2.599	-140.28625
2.5995	-155.39246
2.6	-171.20361
2.6005	-163.4491
2.601	-143.71033
2.6015	-108.66394
2.602	-84.39331
2.6025	-69.68994
2.603	-70.09277
2.6035	-74.52393
2.604	-70.69702
2.6045	-69.79065
2.605	-76.33667
2.6055	-85.90393
2.606	-84.49402
2.6065	-78.75366
2.607	-86.50818
2.6075	-95.5719
2.608	-95.16907
2.6085	-89.02588
2.609	-67.57507
2.6095	-52.67029
2.61	-37.56409
2.6105	-17.6239
2.611	-9.36584
2.6115	4.33044
2.612	17.22107
2.6125	28.19824
2.613	38.06763
2.6135	54.0802
2.614	66.56799
2.6145	83.18481
2.615	127.89917
2.6155	158.4137
2.616	159.52148
2.6165	150.25635
2.617	141.99829
2.6175	116.82129
2.618	88.62305
2.6185	77.04163
2.619	70.49561
2.6195	65.66162
2.62	67.37366
2.6205	58.91418
2.621	55.79224
2.6215	48.64197
2.622	52.26746
2.6225	54.88586
2.623	68.38074
2.6235	111.28235
2.624	133.84094
2.6245	136.86218
2.625	126.69067
2.6255	102.42004
2.626	77.04163
2.6265	39.47754
2.627	-5.63965
2.6275	-20.64514
2.628	-8.05664
2.6285	18.93311
2.629	104.83704
2.6295	201.91956
2.63	238.17444
2.6305	229.21143
2.631	198.59619
2.6315	157.00378
2.632	101.61438
2.6325	67.57507
2.633	45.82214
2.6335	19.13452
2.634	-20.44373
2.6345	-64.95667
2.635	-123.87085
2.6355	-139.17847
2.636	-112.28943
2.6365	-116.41846
2.637	-137.26501
2.6375	-146.32874
2.638	-141.69617
2.6385	-135.8551
2.639	-112.59155
2.6395	-94.66553
2.64	-80.76782
2.6405	-85.80322
2.641	-90.23438
2.6415	-95.77332
2.642	-93.85986
2.6425	-58.41064
2.643	23.06213
2.6435	102.11792
2.644	130.41687
2.6445	107.75757
2.645	123.06519
2.6455	171.10291
2.646	164.85901
2.6465	125.88501
2.647	54.68445
2.6475	-17.72461
2.648	-84.2926
2.6485	-144.21387
2.649	-195.07141
2.6495	-234.34753
2.65	-248.44666
2.6505	-128.50342
2.651	5.33752
2.6515	80.16357
2.652	194.87
2.6525	333.74634
2.653	376.24512
2.6535	387.52441
2.654	362.85095
2.6545	333.34351
2.655	287.82349
2.6555	256.40259
2.656	218.63708
2.6565	137.96997
2.657	0
2.6575	-141.29333
2.658	-259.72595
2.6585	-368.99414
2.659	-442.91382
2.6595	-495.88623
2.66	-569.40308
2.6605	-611.70044
2.661	-585.61707
2.6615	-508.87756
2.662	-383.19397
2.6625	-254.58984
2.663	-170.19653
2.6635	-118.33191
2.664	16.01257
2.6645	147.94006
2.665	214.70947
2.6655	303.93677
2.666	324.78333
2.6665	313.60474
2.667	274.63074
2.6675	234.64966
2.668	168.88733
2.6685	100.70801
2.669	98.0896
2.6695	39.77966
2.67	-27.19116
2.6705	-84.79614
2.671	-116.41846
2.6715	-141.19263
2.672	-117.92908
2.6725	-108.66394
2.673	-131.12183
2.6735	-113.1958
2.674	-84.79614
2.6745	17.92603
2.675	96.07544
2.6755	114.00146
2.676	91.24146
2.6765	41.99524
2.677	10.67505
2.6775	-36.95984
2.678	-75.93384
2.6785	-85.19897
2.679	-87.51526
2.6795	-87.71667
2.68	-90.63721
2.6805	-79.2572
2.681	-63.84888
2.6815	-36.35559
2.682	35.95276
2.6825	105.23987
2.683	158.11157
2.6835	197.68982
2.684	222.46399
2.6845	224.37744
2.685	213.50098
2.6855	200.30823
2.686	177.3468
2.6865	149.55139
2.687	183.48999
2.6875	248.14453
2.688	342.20581
2.6885	350.46387
2.689	303.1311
2.6895	220.14771
2.69	143.50891
2.6905	77.54517
2.691	10.0708
2.6915	11.98425
2.692	39.27612
2.6925	19.83948
2.693	-7.75452
2.6935	-0.30212
2.694	10.47363
2.6945	-2.21558
2.695	117.42554
2.6955	162.2406
2.696	118.93616
2.6965	70.59631
2.697	16.21399
2.6975	75.53101
2.698	288.42773
2.6985	374.7345
2.699	346.63696
2.6995	269.39392
2.7	223.57178
2.7005	123.56873
2.701	-2.31628
2.7015	-86.50818
2.702	-135.15015
2.7025	-194.46716
2.703	-241.69922
2.7035	-257.40967
2.704	-260.93445
2.7045	-265.66772
2.705	-266.37268
2.7055	-309.375
2.706	-359.729
2.7065	-391.25061
2.707	-412.29858
2.7075	-426.19629
2.708	-427.30408
2.7085	-292.25464
2.709	-155.896
2.7095	-93.0542
2.71	-99.49951
2.7105	-124.67651
2.711	-137.16431
2.7115	-147.53723
2.712	-118.73474
2.7125	-78.04871
2.713	-81.37207
2.7135	-100.80872
2.714	-133.84094
2.7145	-173.11707
2.715	-201.91956
2.7155	-202.72522
2.716	29.50745
2.7165	181.87866
2.717	262.54578
2.7175	286.91711
2.718	298.0957
2.7185	287.01782
2.719	276.6449
2.7195	255.19409
2.72	184.79919
2.7205	150.25635
2.721	161.93848
2.7215	165.66467
2.722	126.28784
2.7225	74.92676
2.723	7.04956
2.7235	-67.97791
2.724	-143.60962
2.7245	-192.85583
2.725	-286.51428
2.7255	-321.15784
2.726	-326.39465
2.7265	-316.82739
2.727	-296.18225
2.7275	-282.18384
2.728	-261.13586
2.7285	-47.33276
2.729	184.39636
2.7295	353.28369
2.73	433.34656
2.7305	459.32922
2.731	435.86426
2.7315	369.29626
2.732	267.37976
2.7325	167.37671
2.733	53.27454
2.7335	-46.92993
2.734	-132.12891
2.7345	-198.49548
2.735	-272.11304
2.7355	-307.96509
2.736	-346.83838
2.7365	-369.6991
2.737	-396.38672
2.7375	-386.92017
2.738	-364.36157
2.7385	-311.18774
2.739	-180.26733
2.7395	-50.15259
2.74	97.88818
2.7405	230.92346
2.741	284.198
2.7415	324.98474
2.742	341.19873
2.7425	358.52051
2.743	347.84546
2.7435	325.18616
2.744	294.57092
2.7445	249.35303
2.745	201.11389
2.7455	223.97461
2.746	238.47656
2.7465	196.88416
2.747	105.13916
2.7475	31.32019
2.748	-3.12195
2.7485	-1.61133
2.749	-24.27063
2.7495	-67.37366
2.75	-92.75208
2.7505	-129.5105
2.751	-127.99988
2.7515	-136.86218
2.752	-156.80237
2.7525	-163.04626
2.753	-149.85352
2.7535	-138.27209
2.754	-127.39563
2.7545	-112.08801
2.755	-136.86218
2.7555	-171.60645
2.756	-201.81885
2.7565	-212.69531
2.757	-188.82751
2.7575	-132.53174
2.758	-84.59473
2.7585	-29.10461
2.759	18.73169
2.7595	53.47595
2.76	70.79773
2.7605	79.05579
2.761	77.948
2.7615	95.87402
2.762	126.28784
2.7625	140.99121
2.763	131.32324
2.7635	118.73474
2.764	109.26819
2.7645	102.72217
2.765	82.78198
2.7655	50.85754
2.766	54.0802
2.7665	22.6593
2.767	-6.04248
2.7675	30.01099
2.768	134.64661
2.7685	257.51038
2.769	292.05322
2.7695	281.27747
2.77	254.18701
2.7705	224.07532
2.771	173.21777
2.7715	134.24377
2.772	91.94641
2.7725	31.82373
2.773	-34.24072
2.7735	-84.99756
2.774	-120.34607
2.7745	-129.20837
2.775	-116.82129
2.7755	-148.64502
2.776	-116.21704
2.7765	88.62305
2.777	443.41736
2.7775	813.7207
2.778	953.10059
2.7785	941.41846
2.779	841.41541
2.7795	674.94507
2.78	486.01685
2.7805	297.29004
2.781	112.28943
2.7815	-52.8717
2.782	-192.15088
2.7825	-341.09802
2.783	-468.29224
2.7835	-543.42041
2.784	-619.9585
2.7845	-683.20312
2.785	-745.03784
2.7855	-792.57202
2.786	-764.87732
2.7865	-690.35339
2.787	-599.41406
2.7875	-513.40942
2.788	-435.66284
2.7885	-356.40564
2.789	-298.39783
2.7895	-232.43408
2.79	-184.39636
2.7905	-124.97864
2.791	-29.40674
2.7915	48.03772
2.792	98.39172
2.7925	118.73474
2.793	117.52625
2.7935	114.30359
2.794	111.08093
2.7945	124.97864
2.795	122.05811
2.7955	109.57031
2.796	134.94873
2.7965	206.35071
2.797	254.69055
2.7975	252.27356
2.798	236.16028
2.7985	204.23584
2.799	208.46558
2.7995	190.53955
2.8	169.08875
2.8005	153.07617
2.801	90.5365
2.8015	11.17859
2.802	-60.4248
2.8025	-126.28784
2.803	-178.65601
2.8035	-226.08948
2.804	-266.87622
2.8045	-288.32703
2.805	-286.91711
2.8055	-253.58276
2.806	-215.31372
2.8065	-187.61902
2.807	-150.45776
2.8075	-109.16748
2.808	-74.92676
2.8085	-31.82373
2.809	6.04248
2.8095	34.14001
2.81	92.44995
2.8105	130.11475
2.811	152.37122
2.8115	168.18237
2.812	191.24451
2.8125	225.78735
2.813	225.58594
2.8135	193.56079
2.814	147.03369
2.8145	146.32874
2.815	159.42078
2.8155	172.61353
2.816	180.46875
2.8165	170.59937
2.817	122.36023
2.8175	62.03613
2.818	27.09045
2.8185	-6.3446
2.819	-26.78833
2.8195	-48.94409
2.82	-55.79224
2.8205	-63.54675
2.821	-63.74817
2.8215	-59.82056
2.822	-61.12976
2.8225	-68.07861
2.823	-69.28711
2.8235	12.68921
2.824	118.2312
2.8245	158.71582
2.825	176.64185
2.8255	160.9314
2.826	203.02734
2.8265	246.33179
2.827	251.06506
2.8275	267.68188
2.828	263.95569
2.8285	233.74329
2.829	166.97388
2.8295	75.53101
2.83	-1.2085
2.8305	-80.4657
2.831	-140.68909
2.8315	-196.48132
2.832	-246.13037
2.8325	-283.39233
2.833	-311.28845
2.8335	-340.99731
2.834	-336.86829
2.8345	-313.1012
2.835	-155.69458
2.8355	90.73792
2.836	243.00842
2.8365	333.34351
2.837	394.27185
2.8375	461.64551
2.838	514.3158
2.8385	641.10718
2.839	734.16138
2.8395	718.0481
2.84	608.27637
2.8405	447.7478
2.841	232.13196
2.8415	4.33044
2.842	-181.67725
2.8425	-343.91785
2.843	-505.15137
2.8435	-617.4408
2.844	-660.64453
2.8445	-669.30542
2.845	-656.91833
2.8455	-638.18665
2.846	-592.86804
2.8465	-544.32678
2.847	-465.77454
2.8475	-396.28601
2.848	-309.07288
2.8485	-224.78027
2.849	-147.43652
2.8495	-108.26111
2.85	-66.26587
2.8505	-42.29736
2.851	-65.3595
2.8515	-72.81189
2.852	-55.18799
2.8525	16.01257
2.853	114.505
2.8535	170.49866
2.854	193.46008
2.8545	209.06982
2.855	228.20435
2.8555	215.71655
2.856	190.94238
2.8565	174.02344
2.857	128.80554
2.8575	75.22888
2.858	23.06213
2.8585	-8.05664
2.859	-71.40198
2.8595	-143.60962
2.86	-181.77795
2.8605	-153.07617
2.861	-116.41846
2.8615	-71.40198
2.862	-19.13452
2.8625	17.22107
2.863	42.29736
2.8635	81.47278
2.864	120.24536
2.8645	141.89758
2.865	120.54749
2.8655	100.10376
2.866	97.78748
2.8665	113.29651
2.867	129.71191
2.8675	123.66943
2.868	127.59705
2.8685	193.46008
2.869	220.14771
2.8695	193.96362
2.87	156.50024
2.8705	94.66553
2.871	41.99524
2.8715	42.7002
2.872	69.08569
2.8725	47.03064
2.873	13.19275
2.8735	-17.6239
2.874	-42.19666
2.8745	-66.16516
2.875	-87.31384
2.8755	-110.27527
2.876	-123.06519
2.8765	-125.68359
2.877	-117.62695
2.8775	-118.73474
2.878	-136.25793
2.8785	-94.2627
2.879	-46.32568
2.8795	4.93469
2.88	44.91577
2.8805	56.69861
2.881	61.43188
2.8815	53.97949
2.882	51.86462
2.8825	50.85754
2.883	57.00073
2.8835	71.09985
2.884	70.89844
2.8845	65.76233
2.885	147.23511
2.8855	460.94055
2.886	737.68616
2.8865	833.7616
2.887	850.78125
2.8875	770.31555
2.888	635.0647
2.8885	480.98145
2.889	299.3042
2.8895	173.72131
2.89	76.94092
2.8905	-51.46179
2.891	-217.73071
2.8915	-297.18933
2.892	-303.73535
2.8925	-349.35608
2.893	-412.5
2.8935	-451.37329
2.894	-475.3418
2.8945	-478.76587
2.895	-449.86267
2.8955	-378.76282
2.896	-310.88562
2.8965	-231.12488
2.897	-178.5553
2.8975	-109.16748
2.898	-12.68921
2.8985	77.44446
2.899	94.3634
2.8995	72.20764
2.9	8.66089
2.9005	-99.80164
2.901	-179.66309
2.9015	-240.39001
2.902	-278.15552
2.9025	-293.46313
2.903	-304.3396
2.9035	-309.77783
2.904	-299.00208
2.9045	-234.95178
2.905	-109.06677
2.9055	-17.72461
2.906	56.79932
2.9065	63.84888
2.907	43.00232
2.9075	16.21399
2.908	-3.62549
2.9085	-39.98108
2.909	-72.10693
2.9095	-94.46411
2.91	-114.30359
2.9105	-153.78113
2.911	-158.61511
2.9115	-154.38538
2.912	-143.20679
2.9125	-116.21704
2.913	-73.91968
2.9135	-8.15735
2.914	75.32959
2.9145	137.66785
2.915	182.68433
2.9155	189.73389
2.916	181.87866
2.9165	165.06042
2.917	161.83777
2.9175	132.0282
2.918	119.64111
2.9185	113.1958
2.919	111.48376
2.9195	167.57812
2.92	183.08716
2.9205	194.46716
2.921	221.3562
2.9215	230.52063
2.922	244.92188
2.9225	415.21912
2.923	609.18274
2.9235	661.65161
2.924	588.63831
2.9245	479.67224
2.925	361.23962
2.9255	226.79443
2.926	95.06836
2.9265	-42.49878
2.927	-129.20837
2.9275	-211.2854
2.928	-270.50171
2.9285	-318.33801
2.929	-241.29639
2.9295	-212.09106
2.93	-206.35071
2.9305	-213.09814
2.931	-219.84558
2.9315	-218.73779
2.932	-226.49231
2.9325	-220.24841
2.933	-206.04858
2.9335	-198.99902
2.934	-216.11938
2.9345	-227.29797
2.935	-226.19019
2.9355	-197.28699
2.936	-165.86609
2.9365	-130.11475
2.937	-97.08252
2.9375	-70.69702
2.938	-53.87878
2.9385	-33.53577
2.939	-5.74036
2.9395	17.92603
2.94	14.80408
2.9405	7.04956
2.941	24.16992
2.9415	36.35559
2.942	66.36658
2.9425	93.96057
2.943	105.44128
2.9435	109.97314
2.944	166.16821
2.9445	224.67957
2.945	252.17285
2.9455	247.43958
2.946	212.4939
2.9465	171.30432
2.947	130.8197
2.9475	102.52075
2.948	185.60486
2.9485	210.88257
2.949	159.42078
2.9495	89.12659
2.95	27.89612
2.9505	53.67737
2.951	72.9126
2.9515	85.29968
2.952	83.99048
2.9525	42.90161
2.953	-40.78674
2.9535	-102.52075
2.954	-157.2052
2.9545	-189.12964
2.955	-219.84558
2.9555	-263.04932
2.956	-274.22791
2.9565	-254.18701
2.957	-209.77478
2.9575	-178.05176
2.958	-127.19421
2.9585	11.38
2.959	65.25879
2.9595	95.67261
2.96	76.53809
2.9605	60.4248
2.961	46.02356
2.9615	43.60657
2.962	29.50745
2.9625	23.26355
2.963	17.6239
2.9635	6.14319
2.964	-2.61841
2.9645	-40.2832
2.965	9.97009
2.9655	170.59937
2.966	274.22791
2.9665	312.59766
2.967	310.98633
2.9675	245.82825
2.968	143.3075
2.9685	43.50586
2.969	-48.03772
2.9695	-116.21704
2.97	-163.4491
2.9705	-173.41919
2.971	-180.26733
2.9715	-195.07141
2.972	-175.53406
2.9725	-165.86609
2.973	-112.08801
2.9735	-30.41382
2.974	36.15417
2.9745	59.01489
2.975	71.80481
2.9755	78.35083
2.976	81.97632
2.9765	76.53809
2.977	79.35791
2.9775	63.64746
2.978	56.39648
2.9785	46.22498
2.979	28.39966
2.9795	7.35168
2.98	49.44763
2.9805	98.29102
2.981	109.4696
2.9815	113.49792
2.982	102.01721
2.9825	67.97791
2.983	30.01099
2.9835	-8.8623
2.984	-45.3186
2.9845	-58.41064
2.985	-88.0188
2.9855	-91.94641
2.986	-98.49243
2.9865	-110.98022
2.987	-116.01562
2.9875	-127.19421
2.988	-118.73474
2.9885	-108.96606
2.989	-104.4342
2.9895	-120.84961
2.99	-151.86768
2.9905	-199.20044
2.991	-249.15161
2.9915	-197.4884
2.992	-67.8772
2.9925	32.83081
2.993	80.86853
2.9935	102.21863
2.994	86.8103
2.9945	83.58765
2.995	75.83313
2.9955	42.8009
2.996	19.83948
2.9965	-11.68213
2.997	-84.79614
2.9975	-132.33032
2.998	-58.51135
2.9985	-29.00391
2.999	90.43579
2.9995	188.72681
3	244.82117
3.0005	251.36719
3.001	216.42151
3.0015	163.75122
3.002	66.87012
3.0025	13.89771
3.003	-33.73718
3.0035	-63.64746
3.004	-81.47278
3.0045	-35.04639
3.005	33.63647
3.0055	84.39331
3.006	101.9165
3.0065	105.6427
3.007	112.59155
3.0075	85.19897
3.008	53.07312
3.0085	52.97241
3.009	10.17151
3.0095	-42.19666
3.01	-84.09119
3.0105	-119.74182
3.011	-162.34131
3.0115	-176.84326
3.012	-163.4491
3.0125	-100.90942
3.013	-69.38782
3.0135	-61.23047
3.014	-39.07471
3.0145	-11.58142
3.015	-5.33752
3.0155	-22.25647
3.016	23.16284
3.0165	115.00854
3.017	166.16821
3.0175	159.62219
3.018	106.14624
3.0185	65.05737
3.019	16.51611
3.0195	-25.37842
3.02	-74.82605
3.0205	-129.71191
3.021	-189.23035
3.0215	-203.93372
3.022	-193.25867
3.0225	-176.94397
3.023	-55.89294
3.0235	18.42957
3.024	58.41064
3.0245	76.53809
3.025	87.71667
3.0255	64.65454
3.026	3.52478
3.0265	-75.83313
3.027	-131.82678
3.0275	-156.19812
3.028	-165.36255
3.0285	-172.51282
3.029	-91.14075
3.0295	277.85339
3.03	493.87207
3.0305	565.8783
3.031	603.24097
3.0315	572.2229
3.032	483.49915
3.0325	389.23645
3.033	282.9895
3.0335	167.77954
3.034	78.95508
3.0345	-29.40674
3.035	-89.73083
3.0355	-121.85669
3.036	-143.71033
3.0365	-195.97778
3.037	-238.37585
3.0375	-277.45056
3.038	-299.90845
3.0385	-307.26013
3.039	-283.99658
3.0395	-251.26648
3.04	-212.19177
3.0405	-167.17529
3.041	-123.77014
3.0415	-85.60181
3.042	-48.94409
3.0425	-37.16125
3.043	24.27063
3.0435	88.62305
3.044	124.97864
3.0445	134.64661
3.045	123.66943
3.0455	101.21155
3.046	90.33508
3.0465	96.67969
3.047	94.56482
3.0475	82.9834
3.048	71.60339
3.0485	41.69312
3.049	11.78284
3.0495	5.94177
3.05	-1.00708
3.0505	-16.91895
3.051	-27.09045
3.0515	-33.23364
3.052	-55.49011
3.0525	-78.85437
3.053	-88.62305
3.0535	-84.99756
3.054	-73.71826
3.0545	-80.56641
3.055	-87.81738
3.0555	-15.00549
3.056	138.47351
3.0565	208.7677
3.057	311.08704
3.0575	382.69043
3.058	390.64636
3.0585	367.98706
3.059	321.76208
3.0595	243.41125
3.06	160.32715
3.0605	160.32715
3.061	160.32715
3.0615	160.32715
3.062	160.32715
3.0625	160.32715
3.063	160.32715
3.0635	160.32715
3.064	160.32715
3.0645	160.32715
3.065	160.32715
3.0655	160.32715
3.066	160.32715
3.0665	160.32715
3.067	160.32715
3.0675	160.32715
3.068	160.32715
3.0685	160.32715
3.069	160.32715
3.0695	160.32715
3.07	160.32715
3.0705	143.81104
3.071	148.74573
3.0715	160.52856
3.072	315.41748
3.0725	473.32764
3.073	526.9043
3.0735	488.83667
3.074	381.0791
3.0745	252.37427
3.075	107.65686
3.0755	-27.39258
3.076	-167.57812
3.0765	-248.54736
3.077	-310.48279
3.0775	-364.05945
3.078	-357.91626
3.0785	-370.90759
3.079	-372.61963
3.0795	-338.88245
3.08	-231.12488
3.0805	-143.00537
3.081	-95.5719
3.0815	-98.79456
3.082	-96.7804
3.0825	-80.4657
3.083	-49.64905
3.0835	-11.98425
3.084	59.82056
3.0845	89.02588
3.085	94.06128
3.0855	101.41296
3.086	87.61597
3.0865	77.44446
3.087	60.4248
3.0875	41.18958
3.088	9.46655
3.0885	-18.12744
3.089	-25.57983
3.0895	-36.95984
3.09	-72.50977
3.0905	-71.50269
3.091	-50.65613
3.0915	-30.31311
3.092	1.3092
3.0925	200.20752
3.093	427.00195
3.0935	567.59033
3.094	597.19849
3.0945	629.62646
3.095	618.44788
3.0955	460.94055
3.096	280.87463
3.0965	100.70801
3.097	-42.90161
3.0975	-163.34839
3.098	-285.80933
3.0985	-397.79663
3.099	-468.49365
3.0995	-483.59985
3.1	-467.18445
3.1005	-469.40002
3.101	-433.54797
3.1015	-368.18848
3.102	-271.50879
3.1025	-183.79211
3.103	-62.74109
3.1035	37.06055
3.104	118.93616
3.1045	186.91406
3.105	230.01709
3.1055	247.33887
3.106	249.45374
3.1065	242.50488
3.107	205.34363
3.1075	156.80237
3.108	117.52625
3.1085	71.40198
3.109	5.13611
3.1095	-37.06055
3.11	-70.29419
3.1105	-100.00305
3.111	-102.21863
3.1115	-37.86621
3.112	100.80872
3.1125	279.56543
3.113	379.06494
3.1135	449.76196
3.114	435.1593
3.1145	380.77698
3.115	285.10437
3.1155	176.0376
3.116	75.02747
3.1165	-55.2887
3.117	-171.90857
3.1175	-283.79517
3.118	-396.1853
3.1185	-472.8241
3.119	-472.8241
3.1195	-402.83203
3.12	-317.73376
3.1205	-237.57019
3.121	-143.91174
3.1215	-24.77417
3.122	79.76074
3.1225	114.90784
3.123	87.11243
3.1235	66.87012
3.124	33.83789
3.1245	78.65295
3.125	131.92749
3.1255	178.95813
3.126	186.61194
3.1265	161.53564
3.127	124.4751
3.1275	72.71118
3.128	44.0094
3.1285	24.87488
3.129	14.70337
3.1295	-18.12744
3.13	-54.58374
3.1305	-88.22021
3.131	-104.93774
3.1315	-140.68909
3.132	-164.25476
3.1325	-156.70166
3.133	-123.77014
3.1335	-58.91418
3.134	-3.52478
3.1345	13.69629
3.135	20.24231
3.1355	27.89612
3.136	29.60815
3.1365	45.52002
3.137	56.09436
3.1375	78.85437
3.138	92.55066
3.1385	106.8512
3.139	124.17297
3.1395	127.69775
3.14	131.52466
3.1405	132.22961
3.141	118.63403
3.1415	96.17615
3.142	53.27454
3.1425	27.19116
3.143	-2.01416
3.1435	-24.47205
3.144	-40.58533
3.1445	1.71204
3.145	45.3186
3.1455	57.60498
3.146	71.20056
3.1465	52.46887
3.147	56.79932
3.1475	106.14624
3.148	110.57739
3.1485	51.36108
3.149	-4.02832
3.1495	-54.58374
3.15	-100.10376
3.1505	-152.27051
3.151	-169.18945
3.1515	-109.3689
3.152	-63.44604
3.1525	131.62537
3.153	318.33801
3.1535	411.79504
3.154	434.25293
3.1545	410.28442
3.155	360.13184
3.1555	316.72668
3.156	264.66064
3.1565	195.07141
3.157	88.62305
3.1575	-26.68762
3.158	-94.96765
3.1585	-181.17371
3.159	-281.37817
3.1595	-373.02246
3.16	-456.5094
3.1605	-528.51562
3.161	-539.08997
3.1615	-440.39612
3.162	-358.82263
3.1625	-310.28137
3.163	-253.28064
3.1635	-82.9834
3.164	226.49231
3.1645	385.40955
3.165	437.97913
3.1655	393.6676
3.166	301.92261
3.1665	235.1532
3.167	178.05176
3.1675	106.34766
3.168	15.1062
3.1685	-108.1604
3.169	-198.19336
3.1695	-246.5332
3.17	-30.41382
3.1705	175.03052
3.171	195.47424
3.1715	88.62305
3.172	-7.45239
3.1725	-87.71667
3.173	-162.94556
3.1735	-242.30347
3.174	-299.50562
3.1745	-370.80688
3.175	-338.2782
3.1755	-184.39636
3.176	-51.26038
3.1765	-35.14709
3.177	-104.63562
3.1775	-224.88098
3.178	-353.18298
3.1785	-389.94141
3.179	-398.50159
3.1795	-356.90918
3.18	-319.94934
3.1805	-162.03918
3.181	-45.72144
3.1815	44.91577
3.182	146.42944
3.1825	231.62842
3.183	352.27661
3.1835	442.61169
3.184	654.29993
3.1845	724.69482
3.185	651.37939
3.1855	516.9342
3.186	350.66528
3.1865	215.41443
3.187	157.80945
3.1875	100.50659
3.188	40.38391
3.1885	-10.97717
3.189	-90.33508
3.1895	-126.48926
3.19	-186.30981
3.1905	-235.1532
3.191	-278.25623
3.1915	-342.30652
3.192	-336.46545
3.1925	-262.24365
3.193	-162.64343
3.1935	-41.39099
3.194	82.47986
3.1945	158.11157
3.195	200.20752
3.1955	213.70239
3.196	204.73938
3.1965	174.92981
3.197	121.85669
3.1975	89.02588
3.198	56.29578
3.1985	-9.06372
3.199	-72.00623
3.1995	-111.78589
3.2	-165.76538
3.2005	-183.79211
3.201	-188.42468
3.2015	-189.83459
3.202	-183.69141
3.2025	-173.5199
3.203	-142.50183
3.2035	-142.90466
3.204	-119.23828
3.2045	-93.85986
3.205	-80.56641
3.2055	-94.2627
3.206	-108.66394
3.2065	-106.75049
3.207	-110.87952
3.2075	-91.04004
3.208	-28.39966
3.2085	37.16125
3.209	94.2627
3.2095	152.57263
3.21	192.05017
3.2105	191.44592
3.211	151.76697
3.2115	109.57031
3.212	54.98657
3.2125	6.44531
3.213	-17.82532
3.2135	-42.49878
3.214	-58.30994
3.2145	-35.54993
3.215	13.19275
3.2155	43.00232
3.216	72.61047
3.2165	77.74658
3.217	60.3241
3.2175	97.48535
3.218	158.61511
3.2185	171.50574
3.219	159.7229
3.2195	133.74023
3.22	89.93225
3.2205	161.43494
3.221	251.97144
3.2215	293.36243
3.222	254.38843
3.2225	179.46167
3.223	56.39648
3.2235	-63.84888
3.224	-180.06592
3.2245	-277.55127
3.225	-334.14917
3.2255	-381.0791
3.226	-409.88159
3.2265	-402.22778
3.227	-375.43945
3.2275	-304.84314
3.228	-228.30505
3.2285	-153.17688
3.229	-45.52002
3.2295	37.36267
3.23	192.453
3.2305	335.15625
3.231	406.05469
3.2315	402.83203
3.232	540.70129
3.2325	790.25574
3.233	940.91492
3.2335	892.47437
3.234	716.13464
3.2345	493.77136
3.235	254.99268
3.2355	22.15576
3.236	-194.9707
3.2365	-352.27661
3.237	-436.87134
3.2375	-463.15613
3.238	-464.0625
3.2385	-406.45752
3.239	-382.2876
3.2395	-385.91309
3.24	-382.99255
3.2405	-341.09802
3.241	-305.95093
3.2415	-269.0918
3.242	-261.74011
3.2425	-252.97852
3.243	-254.79126
3.2435	15.20691
3.244	295.37659
3.2445	384.30176
3.245	369.59839
3.2455	332.63855
3.246	400.01221
3.2465	428.10974
3.247	357.1106
3.2475	163.4491
3.248	-32.62939
3.2485	-199.20044
3.249	-297.995
3.2495	-383.79822
3.25	-438.38196
3.2505	-467.38586
3.251	-518.94836
3.2515	-624.79248
3.252	-660.44312
3.2525	-644.12842
3.253	-511.49597
3.2535	-301.01624
3.254	-102.92358
3.2545	14.80408
3.255	74.02039
3.2555	129.30908
3.256	198.6969
3.2565	206.35071
3.257	189.23035
3.2575	283.19092
3.258	540.19775
3.2585	651.68152
3.259	652.08435
3.2595	551.98059
3.26	447.94922
3.2605	554.29688
3.261	650.27161
3.2615	650.77515
3.262	586.82556
3.2625	442.00745
3.263	310.38208
3.2635	169.99512
3.264	46.5271
3.2645	-48.03772
3.265	-150.05493
3.2655	-240.59143
3.266	-340.69519
3.2665	-385.40955
3.267	-361.94458
3.2675	-335.7605
3.268	-297.29004
3.2685	-240.49072
3.269	-144.31458
3.2695	-62.9425
3.27	-7.25098
3.2705	33.43506
3.271	54.18091
3.2715	53.97949
3.272	73.11401
3.2725	160.22644
3.273	183.08716
3.2735	176.54114
3.274	147.1344
3.2745	87.91809
3.275	-13.19275
3.2755	-121.9574
3.276	-216.82434
3.2765	-251.77002
3.277	-276.94702
3.2775	-296.7865
3.278	-296.08154
3.2785	-298.39783
3.279	-285.80933
3.2795	-283.29163
3.28	-273.62366
3.2805	-265.16418
3.281	-221.65833
3.2815	-131.62537
3.282	-53.87878
3.2825	6.14319
3.283	45.2179
3.2835	71.50269
3.284	64.151
3.2845	79.66003
3.285	117.32483
3.2855	151.86768
3.286	153.3783
3.2865	129.30908
3.287	85.19897
3.2875	44.51294
3.288	8.05664
3.2885	-25.68054
3.289	43.40515
3.2895	219.44275
3.29	378.66211
3.2905	449.15771
3.291	420.0531
3.2915	356.00281
3.292	281.88171
3.2925	196.38062
3.293	113.90076
3.2935	37.86621
3.294	-37.7655
3.2945	-105.44128
3.295	-178.05176
3.2955	-223.77319
3.296	-269.89746
3.2965	-291.14685
3.297	-285.5072
3.2975	-231.82983
3.298	-177.64893
3.2985	-141.29333
3.299	-106.9519
3.2995	-104.63562
3.3	-120.04395
3.3005	-89.63013
3.301	-45.92285
3.3015	30.01099
3.302	114.20288
3.3025	163.24768
3.303	172.41211
3.3035	181.073
3.304	176.74255
3.3045	125.58289
3.305	89.22729
3.3055	84.2926
3.306	68.17932
3.3065	38.36975
3.307	-4.93469
3.3075	-54.78516
3.308	-85.19897
3.3085	-116.61987
3.309	-133.63953
3.3095	-100.50659
3.31	-62.03613
3.3105	29.30603
3.311	124.87793
3.3115	172.81494
3.312	222.96753
3.3125	214.40735
3.313	164.85901
3.3135	121.35315
3.314	224.37744
3.3145	253.68347
3.315	211.08398
3.3155	173.21777
3.316	145.8252
3.3165	100.50659
3.317	41.08887
3.3175	-45.3186
3.318	-115.81421
3.3185	-133.13599
3.319	-57.50427
3.3195	-66.76941
3.32	12.5885
3.3205	360.23254
3.321	740.80811
3.3215	918.85986
3.322	869.81506
3.3225	766.58936
3.323	623.38257
3.3235	369.29626
3.324	149.34998
3.3245	-26.98975
3.325	-214.81018
3.3255	-419.85168
3.326	-603.03955
3.3265	-702.03552
3.327	-733.55713
3.3275	-789.85291
3.328	-882.20215
3.3285	-943.43262
3.329	-873.94409
3.3295	-720.5658
3.33	-566.28113
3.3305	-481.58569
3.331	-415.31982
3.3315	-350.16174
3.332	-260.53162
3.3325	-174.02344
3.333	-120.14465
3.3335	-77.14233
3.334	-9.86938
3.3345	57.30286
3.335	67.77649
3.3355	70.99915
3.336	84.2926
3.3365	86.20605
3.337	107.05261
3.3375	191.64734
3.338	257.40967
3.3385	293.46313
3.339	277.65198
3.3395	225.38452
3.34	166.36963
3.3405	140.78979
3.341	143.4082
3.3415	133.63953
3.342	97.78748
3.3425	83.48694
3.343	67.07153
3.3435	53.87878
3.344	78.65295
3.3445	130.11475
3.345	173.41919
3.3455	186.20911
3.346	183.69141
3.3465	233.84399
3.347	259.32312
3.3475	239.48364
3.348	191.44592
3.3485	130.31616
3.349	52.36816
3.3495	-24.57275
3.35	-66.97083
3.3505	-94.56482
3.351	-135.15015
3.3515	-164.55688
3.352	-155.79529
3.3525	-129.71191
3.353	-90.5365
3.3535	-59.92126
3.354	-23.66638
3.3545	-3.7262
3.355	-14.50195
3.3555	-25.37842
3.356	-41.99524
3.3565	-68.78357
3.357	-61.02905
3.3575	-67.57507
3.358	-62.8418
3.3585	-61.23047
3.359	-47.33276
3.3595	-3.62549
3.36	22.45789
3.3605	38.06763
3.361	41.08887
3.3615	47.93701
3.362	45.41931
3.3625	50.65613
3.363	76.94092
3.3635	231.12488
3.364	344.52209
3.3645	421.16089
3.365	449.45984
3.3655	437.97913
3.366	415.62195
3.3665	370.80688
3.367	466.78162
3.3675	517.03491
3.368	488.23242
3.3685	395.68176
3.369	277.65198
3.3695	146.02661
3.37	19.83948
3.3705	-117.82837
3.371	-241.19568
3.3715	-311.48987
3.372	-332.43713
3.3725	-306.95801
3.373	-222.36328
3.3735	-226.79443
3.374	-252.37427
3.3745	-264.45923
3.375	-332.33643
3.3755	-357.71484
3.376	-322.46704
3.3765	-293.76526
3.377	-280.16968
3.3775	-268.28613
3.378	-263.75427
3.3785	-245.82825
3.379	-215.81726
3.3795	-203.93372
3.38	-185.40344
3.3805	-148.64502
3.381	-115.20996
3.3815	-75.02747
3.382	-21.95435
3.3825	30.31311
3.383	19.53735
3.3835	9.46655
3.384	-5.94177
3.3845	1.81274
3.385	55.18799
3.3855	154.18396
3.386	187.51831
3.3865	176.84326
3.387	202.82593
3.3875	184.69849
3.388	90.93933
3.3885	11.2793
3.389	-35.54993
3.3895	-40.38391
3.39	-38.974
3.3905	-40.58533
3.391	-49.24622
3.3915	-68.98499
3.392	-91.94641
3.3925	-74.12109
3.393	-43.80798
3.3935	-39.07471
3.394	-41.89453
3.3945	-65.3595
3.395	-100.00305
3.3955	-127.49634
3.396	-118.13049
3.3965	-83.08411
3.397	6.84814
3.3975	109.67102
3.398	139.48059
3.3985	147.53723
3.399	137.56714
3.3995	90.03296
3.4	60.92834
3.4005	29.00391
3.401	-5.0354
3.4015	-17.82532
3.402	-19.33594
3.4025	9.46655
3.403	141.19263
3.4035	240.69214
3.404	312.69836
3.4045	349.6582
3.405	366.47644
3.4055	385.20813
3.406	413.00354
3.4065	364.86511
3.407	279.96826
3.4075	168.4845
3.408	48.13843
3.4085	28.9032
3.409	189.12964
3.4095	322.56775
3.41	322.97058
3.4105	220.65125
3.411	115.10925
3.4115	1.2085
3.412	-143.50891
3.4125	-344.52209
3.413	-508.87756
3.4135	-565.07263
3.414	-553.28979
3.4145	-510.89172
3.415	-438.78479
3.4155	-389.33716
3.416	-315.31677
3.4165	-298.80066
3.417	-249.45374
3.4175	-120.24536
3.418	262.14294
3.4185	531.63757
3.419	658.02612
3.4195	657.82471
3.42	602.23389
3.4205	486.82251
3.421	328.40881
3.4215	156.29883
3.422	11.38
3.4225	-105.6427
3.423	-185.80627
3.4235	-231.22559
3.424	-298.49854
3.4245	-377.2522
3.425	-447.84851
3.4255	-533.45032
3.426	-569.90662
3.4265	-440.39612
3.427	-330.02014
3.4275	-251.06506
3.428	-157.60803
3.4285	-39.37683
3.429	23.76709
3.4295	19.23523
3.43	18.53027
3.4305	28.19824
3.431	27.79541
3.4315	22.6593
3.432	29.10461
3.4325	40.08179
3.433	24.97559
3.4335	27.89612
3.434	50.2533
3.4345	102.31934
3.435	161.73706
3.4355	213.29956
3.436	239.98718
3.4365	257.51038
3.437	301.21765
3.4375	289.73694
3.438	226.49231
3.4385	156.09741
3.439	113.1958
3.4395	80.66711
3.44	130.71899
3.4405	219.74487
3.441	245.52612
3.4415	201.51672
3.442	101.8158
3.4425	12.38708
3.443	-53.47595
3.4435	-96.8811
3.444	-158.11157
3.4445	-187.4176
3.445	-162.2406
3.4455	-110.27527
3.446	-76.03455
3.4465	-55.59082
3.447	-72.81189
3.4475	-62.23755
3.448	-8.96301
3.4485	6.44531
3.449	-40.78674
3.4495	-104.73633
3.45	-124.4751
3.4505	-41.18958
3.451	17.12036
3.4515	-17.42249
3.452	36.25488
3.4525	142.099
3.453	182.58362
3.4535	184.49707
3.454	161.53564
3.4545	87.71667
3.455	-6.14319
3.4555	-108.36182
3.456	-189.02893
3.4565	-277.85339
3.457	-348.349
3.4575	-417.73682
3.458	-475.64392
3.4585	-502.02942
3.459	-453.68958
3.4595	-321.86279
3.46	-232.53479
3.4605	-153.17688
3.461	-80.36499
3.4615	-22.15576
3.462	20.54443
3.4625	28.09753
3.463	16.61682
3.4635	12.08496
3.464	63.24463
3.4645	110.07385
3.465	122.36023
3.4655	139.37988
3.466	133.13599
3.4665	141.09192
3.467	169.59229
3.4675	195.77637
3.468	214.60876
3.4685	231.12488
3.469	229.11072
3.4695	190.94238
3.47	146.22803
3.4705	122.05811
3.471	113.39722
3.4715	105.44128
3.472	111.68518
3.4725	87.71667
3.473	87.11243
3.4735	141.59546
3.474	182.68433
3.4745	187.01477
3.475	236.26099
3.4755	289.43481
3.476	326.59607
3.4765	545.8374
3.477	670.51392
3.4775	651.58081
3.478	519.65332
3.4785	311.79199
3.479	53.27454
3.4795	-140.78979
3.48	-287.62207
3.4805	-407.06177
3.481	-507.16553
3.4815	-588.94043
3.482	-545.33386
3.4825	-456.81152
3.483	-397.09167
3.4835	-362.146
3.484	-354.29077
3.4845	-303.1311
3.485	-232.6355
3.4855	-168.78662
3.486	-105.6427
3.4865	-60.92834
3.487	-56.49719
3.4875	-39.27612
3.488	-16.81824
3.4885	-7.5531
3.489	15.00549
3.4895	22.15576
3.49	16.91895
3.4905	33.03223
3.491	130.8197
3.4915	216.11938
3.492	272.51587
3.4925	268.48755
3.493	324.07837
3.4935	382.2876
3.494	372.3175
3.4945	307.66296
3.495	213.19885
3.4955	94.06128
3.496	-34.24072
3.4965	83.08411
3.497	223.97461
3.4975	247.64099
3.498	191.04309
3.4985	105.03845
3.499	13.39417
3.4995	-46.02356
3.5	-146.73157
3.5005	-201.91956
3.501	-255.89905
3.5015	-268.28613
3.502	-236.36169
3.5025	-212.29248
3.503	-175.73547
3.5035	-135.45227
3.504	-208.36487
3.5045	-316.22314
3.505	-313.40332
3.5055	-241.4978
3.506	-103.02429
3.5065	6.04248
3.507	71.40198
3.5075	89.42871
3.508	61.43188
3.5085	-7.35168
3.509	-81.17065
3.5095	-151.36414
3.51	-216.42151
3.5105	-247.64099
3.511	-240.89355
3.5115	-202.92664
3.512	-156.80237
3.5125	-123.06519
3.513	-95.5719
3.5135	-53.37524
3.514	23.56567
3.5145	97.48535
3.515	164.35547
3.5155	200.20752
3.516	177.54822
3.5165	142.60254
3.517	123.56873
3.5175	186.41052
3.518	237.16736
3.5185	292.95959
3.519	372.92175
3.5195	462.55188
3.52	443.51807
3.5205	369.7998
3.521	252.07214
3.5215	101.61438
3.522	-8.56018
3.5225	-84.69543
3.523	-161.83777
3.5235	-252.37427
3.524	-320.15076
3.5245	-374.23096
3.525	-381.98547
3.5255	-359.22546
3.526	-332.53784
3.5265	-304.54102
3.527	-274.83215
3.5275	-237.06665
3.528	-196.27991
3.5285	-152.37122
3.529	-153.78113
3.5295	-130.01404
3.53	-76.13525
3.5305	-33.43506
3.531	18.53027
3.5315	72.50977
3.532	113.1958
3.5325	169.18945
3.533	222.06116
3.5335	247.54028
3.534	249.65515
3.5345	228.10364
3.535	207.96204
3.5355	183.08716
3.536	157.10449
3.5365	110.87952
3.537	84.49402
3.5375	222.46399
3.538	410.08301
3.5385	555.8075
3.539	620.96558
3.5395	620.0592
3.54	544.12537
3.5405	416.62903
3.541	273.01941
3.5415	152.27051
3.542	24.06921
3.5425	-72.81189
3.543	-150.8606
3.5435	-201.2146
3.544	-231.52771
3.5445	-267.17834
3.545	-313.30261
3.5455	-265.16418
3.546	-223.16895
3.5465	-167.37671
3.547	-112.89368
3.5475	-52.56958
3.548	-9.16443
3.5485	15.91187
3.549	6.74744
3.5495	42.29736
3.55	59.51843
3.5505	38.87329
3.551	16.01257
3.5515	-30.51453
3.552	-103.62854
3.5525	-146.32874
3.553	-101.01013
3.5535	-33.73718
3.554	80.26428
3.5545	276.94702
3.555	381.68335
3.5555	375.84229
3.556	304.64172
3.5565	194.9707
3.557	53.97949
3.5575	-140.48767
3.558	-336.56616
3.5585	-441.70532
3.559	-463.65967
3.5595	-515.82642
3.56	-604.953
3.5605	-569.30237
3.561	-472.8241
3.5615	-403.23486
3.562	-331.32935
3.5625	-272.41516
3.563	-217.63
3.5635	-212.89673
3.564	-196.1792
3.5645	-148.64502
3.565	-87.51526
3.5655	-22.15576
3.566	12.89062
3.5665	51.46179
3.567	64.65454
3.5675	63.94958
3.568	97.58606
3.5685	188.32397
3.569	436.16638
3.5695	599.61548
3.57	640.20081
3.5705	588.03406
3.571	479.67224
3.5715	361.74316
3.572	276.24207
3.5725	180.77087
3.573	85.40039
3.5735	15.1062
3.574	-15.1062
3.5745	-67.07153
3.575	-148.94714
3.5755	-241.09497
3.576	-311.28845
3.5765	-309.87854
3.577	-288.62915
3.5775	-78.35083
3.578	124.37439
3.5785	263.15002
3.579	328.30811
3.5795	294.87305
3.58	333.94775
3.5805	602.93884
3.581	874.14551
3.5815	956.32324
3.582	882.40356
3.5825	689.34631
3.583	456.00586
3.5835	213.60168
3.584	-42.19666
3.5845	-271.10596
3.585	-475.54321
3.5855	-521.8689
3.586	-527.40784
3.5865	-517.33704
3.587	-488.63525
3.5875	-483.19702
3.588	-494.77844
3.5885	-565.8783
3.589	-543.3197
3.5895	-436.97205
3.59	-338.47961
3.5905	-241.4978
3.591	-17.22107
3.5915	91.8457
3.592	124.07227
3.5925	85.29968
3.593	27.6947
3.5935	-7.5531
3.594	-55.49011
3.5945	-79.55933
3.595	-110.27527
3.5955	-131.82678
3.596	-157.91016
3.5965	-154.48608
3.597	-145.8252
3.5975	-159.21936
3.598	-148.04077
3.5985	-98.99597
3.599	-58.10852
3.5995	-29.50745
3.6	-28.29895
3.6005	-57.00073
3.601	-62.43896
3.6015	-35.44922
3.602	-9.56726
3.6025	20.24231
3.603	53.07312
3.6035	84.49402
3.604	64.55383
3.6045	60.52551
3.605	42.49878
3.6055	7.65381
3.606	-12.78992
3.6065	-32.83081
3.607	-69.08569
3.6075	-111.78589
3.608	-102.82288
3.6085	-86.20605
3.609	-7.04956
3.6095	63.14392
3.61	141.19263
3.6105	186.30981
3.611	185.10132
3.6115	176.94397
3.612	182.68433
3.6125	202.82593
3.613	201.91956
3.6135	200.40894
3.614	171.80786
3.6145	137.76855
3.615	108.66394
3.6155	83.08411
3.616	95.97473
3.6165	99.3988
3.617	97.98889
3.6175	90.63721
3.618	108.86536
3.6185	128.20129
3.619	129.20837
3.6195	109.16748
3.62	76.03455
3.6205	164.15405
3.621	256.80542
3.6215	313.40332
3.622	300.00916
3.6225	236.56311
3.623	146.12732
3.6235	46.92993
3.624	-30.41382
3.6245	-66.6687
3.625	-95.5719
3.6255	-143.91174
3.626	-155.19104
3.6265	-160.22644
3.627	-134.84802
3.6275	-74.52393
3.628	-50.55542
3.6285	-39.57825
3.629	-25.07629
3.6295	44.71436
3.63	97.08252
3.6305	68.58215
3.631	-3.7262
3.6315	-101.21155
3.632	-131.22253
3.6325	-116.11633
3.633	-54.98657
3.6335	128.20129
3.634	206.14929
3.6345	192.15088
3.635	152.47192
3.6355	90.23438
3.636	1.2085
3.6365	-60.52551
3.637	-93.25562
3.6375	-181.17371
3.638	-217.12646
3.6385	-220.14771
3.639	-239.88647
3.6395	-247.23816
3.64	-219.54346
3.6405	-199.09973
3.641	-153.68042
3.6415	-120.64819
3.642	-70.09277
3.6425	-29.30603
3.643	-45.72144
3.6435	-124.67651
3.644	-167.47742
3.6445	-178.75671
3.645	-156.70166
3.6455	-145.22095
3.646	-165.66467
3.6465	-181.27441
3.647	-195.97778
3.6475	-186.00769
3.648	-144.91882
3.6485	-94.66553
3.649	-18.12744
3.6495	25.47913
3.65	50.95825
3.6505	66.06445
3.651	75.22888
3.6515	94.66553
3.652	124.37439
3.6525	152.87476
3.653	168.88733
3.6535	205.74646
3.654	219.94629
3.6545	210.27832
3.655	189.33105
3.6555	154.98962
3.656	117.52625
3.6565	94.3634
3.657	95.5719
3.6575	85.5011
3.658	55.59082
3.6585	24.16992
3.659	1.61133
3.6595	-0.30212
3.66	15.1062
3.6605	65.96375
3.661	86.50818
3.6615	68.07861
3.662	46.62781
3.6625	20.94727
3.663	13.797
3.6635	-7.25098
3.664	16.01257
3.6645	79.2572
3.665	92.75208
3.6655	77.84729
3.666	51.15967
3.6665	27.89612
3.667	14.50195
3.6675	35.44922
3.668	36.55701
3.6685	-17.22107
3.669	-56.79932
3.6695	-61.73401
3.67	-73.51685
3.6705	-91.54358
3.671	-112.08801
3.6715	-112.28943
3.672	-83.38623
3.6725	-28.39966
3.673	46.5271
3.6735	157.40662
3.674	365.36865
3.6745	542.81616
3.675	702.43835
3.6755	809.79309
3.676	800.42725
3.6765	629.52576
3.677	399.00513
3.6775	137.96997
3.678	-119.03687
3.6785	-287.62207
3.679	-414.31274
3.6795	-493.26782
3.68	-555.30396
3.6805	-624.69177
3.681	-715.02686
3.6815	-748.05908
3.682	-707.47375
3.6825	-622.67761
3.683	-509.2804
3.6835	-370.70618
3.684	-169.49158
3.6845	-52.36816
3.685	31.52161
3.6855	100.30518
3.686	172.21069
3.6865	400.41504
3.687	666.08276
3.6875	981.70166
3.688	1146.9635
3.6885	1060.45532
3.689	834.46655
3.6895	579.37317
3.69	300.21057
3.6905	43.40515
3.691	-177.54822
3.6915	-362.04529
3.692	-487.9303
3.6925	-544.93103
3.693	-524.99084
3.6935	-489.84375
3.694	-485.21118
3.6945	-504.245
3.695	-495.58411
3.6955	-360.63538
3.696	-237.16736
3.6965	-171.10291
3.697	-123.56873
3.6975	-78.35083
3.698	-43.40515
3.6985	-51.66321
3.699	-78.85437
3.6995	-132.73315
3.7	-82.68127
3.7005	5.23682
3.701	100.50659
3.7015	280.37109
3.702	389.23645
3.7025	400.01221
3.703	350.16174
3.7035	260.83374
3.704	265.26489
3.7045	269.59534
3.705	249.85657
3.7055	187.11548
3.706	82.68127
3.7065	10.0708
3.707	-74.82605
3.7075	-146.12732
3.708	-244.92188
3.7085	-297.89429
3.709	-308.97217
3.7095	-302.32544
3.71	-336.96899
3.7105	-358.11768
3.711	-341.60156
3.7115	-278.05481
3.712	-127.29492
3.7125	15.50903
3.713	137.26501
3.7135	227.6001
3.714	289.33411
3.7145	279.56543
3.715	215.41443
3.7155	118.53333
3.716	43.80798
3.7165	-4.02832
3.717	-48.64197
3.7175	-107.55615
3.718	-164.45618
3.7185	-196.48132
3.719	-214.30664
3.7195	-212.4939
3.72	-178.25317
3.7205	-117.02271
3.721	-40.78674
3.7215	34.84497
3.722	176.84326
3.7225	301.72119
3.723	359.02405
3.7235	405.65186
3.724	424.28284
3.7245	377.75574
3.725	283.89587
3.7255	153.479
3.726	53.97949
3.7265	-68.48145
3.727	-178.35388
3.7275	-243.91479
3.728	-272.11304
3.7285	-279.86755
3.729	-273.32153
3.7295	-242.80701
3.73	-221.75903
3.7305	-183.08716
3.731	-118.33191
3.7315	-51.15967
3.732	20.44373
3.7325	82.17773
3.733	128.50342
3.7335	127.19421
3.734	114.4043
3.7345	81.06995
3.735	49.74976
3.7355	57.60498
3.736	74.72534
3.7365	69.58923
3.737	0.40283
3.7375	39.07471
3.738	271.91162
3.7385	449.76196
3.739	516.12854
3.7395	454.49524
3.74	361.44104
3.7405	246.83533
3.741	123.46802
3.7415	0.60425
3.742	-115.00854
3.7425	-195.77637
3.743	-222.36328
3.7435	-216.01868
3.744	-268.58826
3.7445	-330.42297
3.745	-335.65979
3.7455	-304.94385
3.746	-242.10205
3.7465	-195.57495
3.747	-130.92041
3.7475	37.06055
3.748	172.51282
3.7485	361.54175
3.749	473.93188
3.7495	506.46057
3.75	457.31506
3.7505	330.52368
3.751	181.47583
3.7515	24.67346
3.752	-110.47668
3.7525	-237.77161
3.753	-322.16492
3.7535	-394.97681
3.754	-513.51013
3.7545	-578.16467
3.755	-617.23938
3.7555	-623.68469
3.756	-493.06641
3.7565	-99.19739
3.757	158.21228
3.7575	296.68579
3.758	436.97205
3.7585	485.11047
3.759	485.91614
3.7595	394.8761
3.76	274.93286
3.7605	193.56079
3.761	100.30518
3.7615	35.2478
3.762	-45.52002
3.7625	-118.73474
3.763	-147.94006
3.7635	-220.75195
3.764	-344.32068
3.7645	-405.75256
3.765	-377.15149
3.7655	-310.07996
3.766	-255.49622
3.7665	-180.67017
3.767	-125.38147
3.7675	-99.2981
3.768	-80.56641
3.7685	-86.8103
3.769	-75.22888
3.7695	-48.44055
3.77	-3.02124
3.7705	52.97241
3.771	123.77014
3.7715	384.20105
3.772	554.80042
3.7725	576.65405
3.773	500.92163
3.7735	407.56531
3.774	316.12244
3.7745	212.79602
3.775	160.12573
3.7755	106.75049
3.776	41.08887
3.7765	-54.68445
3.777	-149.24927
3.7775	-207.76062
3.778	-216.22009
3.7785	-248.54736
3.779	-231.12488
3.7795	-175.23193
3.78	-69.79065
3.7805	22.6593
3.781	57.30286
3.7815	59.51843
3.782	28.29895
3.7825	17.82532
3.783	37.86621
3.7835	84.69543
3.784	122.66235
3.7845	157.40662
3.785	152.06909
3.7855	177.85034
3.786	215.81726
3.7865	220.85266
3.787	195.87708
3.7875	242.10205
3.788	289.03198
3.7885	290.44189
3.789	288.62915
3.7895	280.57251
3.79	239.48364
3.7905	147.83936
3.791	52.36816
3.7915	-59.01489
3.792	-109.97314
3.7925	-185.20203
3.793	-222.16187
3.7935	-266.6748
3.794	-304.74243
3.7945	-344.52209
3.795	-401.32141
3.7955	-391.85486
3.796	-348.24829
3.7965	-288.52844
3.797	-213.09814
3.7975	-119.4397
3.798	-50.65613
3.7985	5.33752
3.799	7.65381
3.7995	-23.16284
3.8	-36.15417
3.8005	-31.4209
3.801	-42.39807
3.8015	-32.12585
3.802	2.71912
3.8025	177.04468
3.803	293.36243
3.8035	385.91309
3.804	407.16248
3.8045	362.64954
3.805	316.42456
3.8055	252.87781
3.806	201.41602
3.8065	146.22803
3.807	150.45776
3.8075	84.89685
3.808	8.25806
3.8085	-45.52002
3.809	-130.31616
3.8095	-227.39868
3.81	-314.91394
3.8105	-195.97778
3.811	121.55457
3.8115	262.94861
3.812	255.99976
3.8125	203.02734
3.813	149.14856
3.8135	88.42163
3.814	-19.53735
3.8145	-206.14929
3.815	-249.85657
3.8155	-269.69604
3.816	-317.23022
3.8165	-313.40332
3.817	-351.77307
3.8175	-401.12
3.818	-415.0177
3.8185	-417.73682
3.819	-347.54333
3.8195	-260.93445
3.82	-239.18152
3.8205	-265.06348
3.821	-248.74878
3.8215	-121.45386
3.822	73.81897
3.8225	225.68665
3.823	323.67554
3.8235	370.20264
3.824	385.61096
3.8245	369.29626
3.825	340.39307
3.8255	249.55444
3.826	87.61597
3.8265	-52.67029
3.827	-129.61121
3.8275	-202.22168
3.828	-232.83691
3.8285	-248.64807
3.829	-237.77161
3.8295	-142.80396
3.83	-12.18567
3.8305	117.82837
3.831	185.30273
3.8315	219.44275
3.832	206.14929
3.8325	165.46326
3.833	127.19421
