Daniele_De_Santis_Left_2.c3d  



Time(s):	B_R_bicipite(μV):
0	7.15027
0.0005	5.0354
0.001	0.80566
0.0015	3.12195
0.002	9.16443
0.0025	4.73328
0.003	5.84106
0.0035	4.83398
0.004	5.23682
0.0045	3.62549
0.005	6.3446
0.0055	1.00708
0.006	5.23682
0.0065	7.65381
0.007	4.33044
0.0075	2.61841
0.008	6.64673
0.0085	6.44531
0.009	3.8269
0.0095	7.35168
0.01	5.23682
0.0105	7.25098
0.011	6.84814
0.0115	3.7262
0.012	5.23682
0.0125	2.21558
0.013	3.42407
0.0135	2.01416
0.014	4.63257
0.0145	8.8623
0.015	3.8269
0.0155	4.33044
0.016	1.71204
0.0165	6.04248
0.017	-0.80566
0.0175	6.04248
0.018	0
0.0185	3.62549
0.019	-0.40283
0.0195	3.7262
0.02	3.42407
0.0205	5.43823
0.021	3.92761
0.0215	6.74744
0.022	4.22974
0.0225	1.40991
0.023	4.83398
0.0235	0.30212
0.024	5.0354
0.0245	6.14319
0.025	5.23682
0.0255	1.71204
0.026	4.83398
0.0265	0.60425
0.027	7.5531
0.0275	10.57434
0.028	7.04956
0.0285	2.5177
0.029	6.64673
0.0295	6.3446
0.03	3.92761
0.0305	4.22974
0.031	10.17151
0.0315	10.97717
0.032	1.3092
0.0325	4.43115
0.033	4.33044
0.0335	10.17151
0.034	4.83398
0.0345	10.0708
0.035	5.74036
0.0355	3.52478
0.036	10.67505
0.0365	13.19275
0.037	5.13611
0.0375	10.47363
0.038	4.22974
0.0385	3.52478
0.039	3.22266
0.0395	7.5531
0.04	4.22974
0.0405	6.64673
0.041	8.35876
0.0415	5.13611
0.042	6.44531
0.0425	8.56018
0.043	7.75452
0.0435	8.66089
0.044	4.53186
0.0445	6.54602
0.045	6.94885
0.0455	4.83398
0.046	7.35168
0.0465	9.56726
0.047	5.23682
0.0475	8.8623
0.048	7.25098
0.0485	7.45239
0.049	3.7262
0.0495	3.32336
0.05	5.53894
0.0505	8.35876
0.051	8.15735
0.0515	6.74744
0.052	1.91345
0.0525	5.0354
0.053	4.02832
0.0535	5.23682
0.054	1.3092
0.0545	6.3446
0.055	7.15027
0.0555	9.36584
0.056	8.35876
0.0565	9.66797
0.057	8.56018
0.0575	14.40125
0.058	10.37292
0.0585	8.05664
0.059	12.5885
0.0595	11.58142
0.06	9.56726
0.0605	18.53027
0.061	12.99133
0.0615	14.50195
0.062	16.3147
0.0625	16.01257
0.063	14.09912
0.0635	15.00549
0.064	10.87646
0.0645	20.04089
0.065	16.21399
0.0655	13.797
0.066	13.19275
0.0665	13.99841
0.067	6.94885
0.0675	9.97009
0.068	9.76868
0.0685	13.29346
0.069	11.38
0.0695	12.5885
0.07	8.96301
0.0705	6.2439
0.071	13.59558
0.0715	7.35168
0.072	8.35876
0.0725	7.85522
0.073	7.45239
0.0735	9.46655
0.074	6.94885
0.0745	9.56726
0.075	7.5531
0.0755	12.28638
0.076	5.84106
0.0765	4.12903
0.077	5.74036
0.0775	-1.40991
0.078	-4.63257
0.0785	5.23682
0.079	3.42407
0.0795	2.01416
0.08	6.44531
0.0805	9.76868
0.081	7.15027
0.0815	6.64673
0.082	5.43823
0.0825	3.12195
0.083	3.32336
0.0835	4.53186
0.084	3.02124
0.0845	8.56018
0.085	1.51062
0.0855	1.61133
0.086	0.60425
0.0865	-6.74744
0.087	-0.90637
0.0875	0.80566
0.088	-7.04956
0.0885	-0.60425
0.089	0.50354
0.0895	-0.20142
0.09	-1.3092
0.0905	0.30212
0.091	0.30212
0.0915	3.7262
0.092	4.33044
0.0925	9.86938
0.093	6.84814
0.0935	2.71912
0.094	6.04248
0.0945	-0.40283
0.095	2.01416
0.0955	-2.81982
0.096	3.12195
0.0965	1.40991
0.097	5.94177
0.0975	4.93469
0.098	4.93469
0.0985	4.53186
0.099	3.12195
0.0995	5.84106
0.1	3.92761
0.1005	10.27222
0.101	2.71912
0.1015	1.51062
0.102	-1.2085
0.1025	8.05664
0.103	3.8269
0.1035	7.75452
0.104	4.43115
0.1045	7.35168
0.105	6.14319
0.1055	3.42407
0.106	1.2085
0.1065	2.11487
0.107	4.53186
0.1075	3.92761
0.108	5.23682
0.1085	1.00708
0.109	2.11487
0.1095	3.7262
0.11	4.12903
0.1105	7.5531
0.111	4.73328
0.1115	0.70496
0.112	0
0.1125	2.61841
0.113	0.30212
0.1135	5.0354
0.114	0.60425
0.1145	2.21558
0.115	6.84814
0.1155	4.02832
0.116	3.42407
0.1165	0.20142
0.117	2.11487
0.1175	3.42407
0.118	3.8269
0.1185	9.06372
0.119	5.0354
0.1195	2.31628
0.12	0.40283
0.1205	3.32336
0.121	4.22974
0.1215	5.74036
0.122	4.33044
0.1225	6.54602
0.123	1.2085
0.1235	1.91345
0.124	4.12903
0.1245	2.41699
0.125	4.73328
0.1255	5.43823
0.126	10.27222
0.1265	8.05664
0.127	7.75452
0.1275	7.45239
0.128	6.3446
0.1285	6.44531
0.129	2.5177
0.1295	5.53894
0.13	1.40991
0.1305	6.14319
0.131	4.63257
0.1315	2.01416
0.132	3.42407
0.1325	2.31628
0.133	-2.01416
0.1335	5.53894
0.134	5.74036
0.1345	4.53186
0.135	8.66089
0.1355	-1.81274
0.136	6.94885
0.1365	3.22266
0.137	4.33044
0.1375	6.84814
0.138	12.68921
0.1385	5.53894
0.139	5.74036
0.1395	4.33044
0.14	2.31628
0.1405	6.44531
0.141	7.85522
0.1415	6.14319
0.142	5.13611
0.1425	7.25098
0.143	10.37292
0.1435	0.10071
0.144	5.84106
0.1445	3.22266
0.145	8.15735
0.1455	7.04956
0.146	2.61841
0.1465	3.7262
0.147	8.45947
0.1475	7.25098
0.148	6.14319
0.1485	3.62549
0.149	7.15027
0.1495	6.04248
0.15	2.92053
0.1505	3.02124
0.151	-0.80566
0.1515	2.81982
0.152	4.12903
0.1525	9.36584
0.153	6.2439
0.1535	6.3446
0.154	3.7262
0.1545	2.41699
0.155	4.53186
0.1555	8.66089
0.156	4.73328
0.1565	10.87646
0.157	9.97009
0.1575	7.85522
0.158	3.8269
0.1585	7.35168
0.159	8.05664
0.1595	7.15027
0.16	10.17151
0.1605	12.5885
0.161	9.16443
0.1615	6.04248
0.162	7.75452
0.1625	8.8623
0.163	9.26514
0.1635	5.94177
0.164	2.5177
0.1645	4.12903
0.165	1.51062
0.1655	1.3092
0.166	2.81982
0.1665	9.46655
0.167	3.42407
0.1675	6.94885
0.168	9.16443
0.1685	2.71912
0.169	2.71912
0.1695	4.22974
0.17	6.3446
0.1705	5.74036
0.171	-0.10071
0.1715	3.32336
0.172	7.5531
0.1725	3.42407
0.173	0.80566
0.1735	2.01416
0.174	-5.33752
0.1745	1.51062
0.175	4.53186
0.1755	6.3446
0.176	3.02124
0.1765	2.61841
0.177	0.60425
0.1775	6.04248
0.178	6.54602
0.1785	-2.01416
0.179	5.0354
0.1795	7.95593
0.18	8.35876
0.1805	3.42407
0.181	7.65381
0.1815	10.17151
0.182	4.93469
0.1825	3.62549
0.183	8.25806
0.1835	4.02832
0.184	5.0354
0.1845	9.76868
0.185	4.33044
0.1855	1.91345
0.186	3.62549
0.1865	9.46655
0.187	3.22266
0.1875	7.04956
0.188	11.78284
0.1885	5.53894
0.189	12.89062
0.1895	10.57434
0.19	14.30054
0.1905	9.56726
0.191	10.87646
0.1915	7.65381
0.192	2.92053
0.1925	4.33044
0.193	13.49487
0.1935	9.26514
0.194	4.83398
0.1945	8.05664
0.195	10.57434
0.1955	6.74744
0.196	9.97009
0.1965	4.22974
0.197	5.43823
0.1975	4.83398
0.198	9.46655
0.1985	2.92053
0.199	-0.10071
0.1995	3.02124
0.2	0
0.2005	2.21558
0.201	1.91345
0.2015	7.85522
0.202	8.8623
0.2025	4.93469
0.203	3.8269
0.2035	3.8269
0.204	2.71912
0.2045	-0.30212
0.205	2.61841
0.2055	7.04956
0.206	5.84106
0.2065	7.85522
0.207	9.66797
0.2075	4.63257
0.208	6.14319
0.2085	2.01416
0.209	4.02832
0.2095	4.53186
0.21	5.23682
0.2105	9.26514
0.211	7.25098
0.2115	3.22266
0.212	7.65381
0.2125	10.77576
0.213	7.85522
0.2135	10.77576
0.214	5.94177
0.2145	6.3446
0.215	6.04248
0.2155	9.16443
0.216	4.73328
0.2165	3.62549
0.217	5.94177
0.2175	4.33044
0.218	10.47363
0.2185	8.96301
0.219	7.35168
0.2195	4.53186
0.22	2.31628
0.2205	6.64673
0.221	4.93469
0.2215	8.05664
0.222	10.67505
0.2225	13.797
0.223	4.02832
0.2235	6.2439
0.224	5.63965
0.2245	4.43115
0.225	10.47363
0.2255	7.25098
0.226	10.77576
0.2265	11.38
0.227	8.56018
0.2275	7.95593
0.228	6.44531
0.2285	9.36584
0.229	2.01416
0.2295	4.33044
0.23	5.13611
0.2305	5.53894
0.231	7.25098
0.2315	8.96301
0.232	7.15027
0.2325	0.10071
0.233	7.15027
0.2335	0
0.234	1.00708
0.2345	5.63965
0.235	5.63965
0.2355	0.50354
0.236	1.51062
0.2365	2.31628
0.237	6.64673
0.2375	4.43115
0.238	3.52478
0.2385	3.8269
0.239	7.04956
0.2395	4.63257
0.24	5.74036
0.2405	5.53894
0.241	7.15027
0.2415	11.2793
0.242	5.53894
0.2425	9.56726
0.243	5.74036
0.2435	-0.10071
0.244	1.91345
0.2445	6.74744
0.245	6.14319
0.2455	7.5531
0.246	3.7262
0.2465	7.75452
0.247	5.63965
0.2475	8.56018
0.248	9.76868
0.2485	9.16443
0.249	6.74744
0.2495	8.35876
0.25	8.66089
0.2505	7.45239
0.251	6.04248
0.2515	4.02832
0.252	4.73328
0.2525	5.13611
0.253	2.01416
0.2535	1.91345
0.254	3.02124
0.2545	6.64673
0.255	2.61841
0.2555	2.71912
0.256	-1.10779
0.2565	-1.2085
0.257	6.44531
0.2575	2.81982
0.258	0
0.2585	3.42407
0.259	1.00708
0.2595	5.74036
0.26	1.3092
0.2605	6.54602
0.261	6.44531
0.2615	5.43823
0.262	9.56726
0.2625	0.30212
0.263	7.25098
0.2635	4.12903
0.264	6.14319
0.2645	1.51062
0.265	1.10779
0.2655	7.15027
0.266	5.0354
0.2665	4.83398
0.267	6.2439
0.2675	5.33752
0.268	7.15027
0.2685	12.68921
0.269	12.18567
0.2695	12.08496
0.27	6.54602
0.2705	4.43115
0.271	1.40991
0.2715	0.80566
0.272	4.12903
0.2725	0.40283
0.273	5.23682
0.2735	9.36584
0.274	1.71204
0.2745	3.02124
0.275	5.74036
0.2755	6.84814
0.276	6.2439
0.2765	5.74036
0.277	5.63965
0.2775	3.8269
0.278	4.33044
0.2785	3.22266
0.279	5.63965
0.2795	3.02124
0.28	5.0354
0.2805	7.04956
0.281	11.78284
0.2815	5.63965
0.282	7.5531
0.2825	5.33752
0.283	5.43823
0.2835	1.40991
0.284	1.00708
0.2845	5.33752
0.285	5.33752
0.2855	3.92761
0.286	1.61133
0.2865	0.60425
0.287	4.02832
0.2875	5.63965
0.288	5.74036
0.2885	2.01416
0.289	-3.22266
0.2895	3.92761
0.29	5.0354
0.2905	3.32336
0.291	7.75452
0.2915	5.0354
0.292	5.13611
0.2925	4.63257
0.293	3.8269
0.2935	1.40991
0.294	-1.61133
0.2945	0.80566
0.295	3.52478
0.2955	9.86938
0.296	7.25098
0.2965	6.54602
0.297	4.43115
0.2975	3.62549
0.298	7.5531
0.2985	9.86938
0.299	4.53186
0.2995	6.2439
0.3	10.97717
0.3005	10.0708
0.301	6.64673
0.3015	6.3446
0.302	9.06372
0.3025	8.05664
0.303	4.22974
0.3035	10.37292
0.304	8.35876
0.3045	8.15735
0.305	6.2439
0.3055	9.26514
0.306	3.8269
0.3065	9.97009
0.307	-2.01416
0.3075	5.0354
0.308	5.43823
0.3085	6.3446
0.309	9.56726
0.3095	5.13611
0.31	8.8623
0.3105	4.73328
0.311	5.84106
0.3115	4.63257
0.312	7.5531
0.3125	11.68213
0.313	5.33752
0.3135	5.13611
0.314	6.54602
0.3145	2.92053
0.315	7.65381
0.3155	5.74036
0.316	7.95593
0.3165	10.67505
0.317	12.68921
0.3175	5.94177
0.318	5.84106
0.3185	5.33752
0.319	2.5177
0.3195	4.83398
0.32	5.23682
0.3205	4.22974
0.321	3.8269
0.3215	5.74036
0.322	7.04956
0.3225	4.22974
0.323	9.56726
0.3235	5.33752
0.324	2.5177
0.3245	4.63257
0.325	6.14319
0.3255	8.66089
0.326	8.25806
0.3265	3.92761
0.327	9.76868
0.3275	5.33752
0.328	7.5531
0.3285	2.71912
0.329	9.36584
0.3295	8.35876
0.33	3.22266
0.3305	2.81982
0.331	7.95593
0.3315	7.5531
0.332	4.12903
0.3325	9.26514
0.333	12.38708
0.3335	9.26514
0.334	7.65381
0.3345	5.84106
0.335	9.56726
0.3355	9.76868
0.336	7.35168
0.3365	10.47363
0.337	11.58142
0.3375	14.09912
0.338	8.35876
0.3385	9.97009
0.339	10.17151
0.3395	7.65381
0.34	7.35168
0.3405	13.29346
0.341	7.75452
0.3415	10.87646
0.342	13.797
0.3425	7.45239
0.343	7.65381
0.3435	9.06372
0.344	6.94885
0.3445	3.02124
0.345	4.93469
0.3455	7.04956
0.346	5.0354
0.3465	5.23682
0.347	4.53186
0.3475	8.05664
0.348	4.53186
0.3485	8.15735
0.349	3.62549
0.3495	9.06372
0.35	7.25098
0.3505	11.68213
0.351	9.06372
0.3515	11.2793
0.352	8.25806
0.3525	5.63965
0.353	12.08496
0.3535	10.27222
0.354	3.52478
0.3545	5.63965
0.355	6.2439
0.3555	10.0708
0.356	9.16443
0.3565	6.84814
0.357	4.02832
0.3575	8.96301
0.358	8.05664
0.3585	2.5177
0.359	13.29346
0.3595	12.68921
0.36	10.77576
0.3605	10.17151
0.361	5.33752
0.3615	6.64673
0.362	8.8623
0.3625	10.57434
0.363	10.0708
0.3635	12.38708
0.364	6.74744
0.3645	3.8269
0.365	8.45947
0.3655	4.33044
0.366	2.31628
0.3665	5.23682
0.367	4.43115
0.3675	6.44531
0.368	4.02832
0.3685	4.43115
0.369	12.08496
0.3695	7.85522
0.37	10.47363
0.3705	9.46655
0.371	5.23682
0.3715	10.17151
0.372	9.16443
0.3725	3.02124
0.373	12.08496
0.3735	8.56018
0.374	10.67505
0.3745	13.59558
0.375	9.26514
0.3755	8.25806
0.376	8.25806
0.3765	10.57434
0.377	5.0354
0.3775	4.93469
0.378	4.02832
0.3785	8.96301
0.379	5.94177
0.3795	7.95593
0.38	7.35168
0.3805	3.92761
0.381	8.96301
0.3815	8.25806
0.382	4.93469
0.3825	10.77576
0.383	9.86938
0.3835	12.38708
0.384	8.7616
0.3845	5.94177
0.385	5.63965
0.3855	9.16443
0.386	4.83398
0.3865	7.45239
0.387	5.33752
0.3875	7.95593
0.388	2.31628
0.3885	3.12195
0.389	3.02124
0.3895	7.75452
0.39	4.83398
0.3905	6.54602
0.391	9.66797
0.3915	6.3446
0.392	5.94177
0.3925	6.04248
0.393	7.5531
0.3935	5.13611
0.394	1.3092
0.3945	4.22974
0.395	0.70496
0.3955	1.81274
0.396	1.3092
0.3965	8.56018
0.397	7.15027
0.3975	6.04248
0.398	5.23682
0.3985	3.8269
0.399	9.36584
0.3995	3.7262
0.4	3.8269
0.4005	10.87646
0.401	10.0708
0.4015	9.56726
0.402	6.04248
0.4025	7.65381
0.403	2.81982
0.4035	2.5177
0.404	4.93469
0.4045	3.32336
0.405	9.26514
0.4055	4.02832
0.406	4.33044
0.4065	9.86938
0.407	1.61133
0.4075	5.0354
0.408	6.74744
0.4085	7.85522
0.409	4.33044
0.4095	2.31628
0.41	1.71204
0.4105	8.15735
0.411	6.94885
0.4115	7.45239
0.412	11.07788
0.4125	3.42407
0.413	6.04248
0.4135	9.86938
0.414	3.52478
0.4145	2.92053
0.415	8.8623
0.4155	2.61841
0.416	4.63257
0.4165	3.32336
0.417	2.71912
0.4175	-1.2085
0.418	3.8269
0.4185	1.51062
0.419	7.15027
0.4195	5.23682
0.42	-1.40991
0.4205	1.61133
0.421	0.40283
0.4215	4.02832
0.422	4.63257
0.4225	1.71204
0.423	3.22266
0.4235	-0.10071
0.424	-1.61133
0.4245	6.2439
0.425	1.2085
0.4255	6.74744
0.426	5.33752
0.4265	2.5177
0.427	9.97009
0.4275	4.73328
0.428	7.65381
0.4285	8.05664
0.429	5.84106
0.4295	5.13611
0.43	-0.70496
0.4305	5.63965
0.431	-0.40283
0.4315	7.85522
0.432	6.44531
0.4325	3.32336
0.433	12.38708
0.4335	5.13611
0.434	3.62549
0.4345	7.45239
0.435	5.94177
0.4355	7.35168
0.436	6.54602
0.4365	3.32336
0.437	7.04956
0.4375	9.06372
0.438	5.53894
0.4385	3.52478
0.439	8.96301
0.4395	10.77576
0.44	4.43115
0.4405	4.43115
0.441	7.45239
0.4415	6.94885
0.442	15.1062
0.4425	10.57434
0.443	11.58142
0.4435	10.17151
0.444	11.48071
0.4445	9.56726
0.445	10.77576
0.4455	11.58142
0.446	10.77576
0.4465	7.25098
0.447	7.04956
0.4475	6.64673
0.448	13.69629
0.4485	4.63257
0.449	9.76868
0.4495	15.60974
0.45	9.66797
0.4505	11.48071
0.451	9.46655
0.4515	9.16443
0.452	10.17151
0.4525	6.3446
0.453	4.63257
0.4535	5.53894
0.454	4.02832
0.4545	2.41699
0.455	-0.60425
0.4555	8.7616
0.456	7.75452
0.4565	7.65381
0.457	6.84814
0.4575	4.63257
0.458	2.01416
0.4585	6.3446
0.459	7.04956
0.4595	2.31628
0.46	3.62549
0.4605	10.27222
0.461	0
0.4615	2.41699
0.462	6.14319
0.4625	3.12195
0.463	8.45947
0.4635	3.42407
0.464	7.35168
0.4645	6.3446
0.465	5.74036
0.4655	6.84814
0.466	4.93469
0.4665	5.43823
0.467	6.74744
0.4675	10.67505
0.468	4.33044
0.4685	11.2793
0.469	7.75452
0.4695	-0.30212
0.47	7.75452
0.4705	10.87646
0.471	9.36584
0.4715	11.68213
0.472	12.99133
0.4725	12.08496
0.473	12.28638
0.4735	9.36584
0.474	4.43115
0.4745	6.04248
0.475	7.35168
0.4755	5.53894
0.476	8.56018
0.4765	5.63965
0.477	10.17151
0.4775	5.13611
0.478	9.56726
0.4785	3.62549
0.479	1.00708
0.4795	1.40991
0.48	8.8623
0.4805	7.25098
0.481	7.65381
0.4815	6.94885
0.482	7.65381
0.4825	9.16443
0.483	11.78284
0.4835	7.5531
0.484	5.94177
0.4845	3.12195
0.485	6.74744
0.4855	7.5531
0.486	3.7262
0.4865	0.10071
0.487	3.92761
0.4875	10.27222
0.488	8.35876
0.4885	5.43823
0.489	6.74744
0.4895	5.33752
0.49	9.16443
0.4905	9.46655
0.491	8.45947
0.4915	6.04248
0.492	4.63257
0.4925	3.8269
0.493	0.70496
0.4935	3.52478
0.494	5.84106
0.4945	-0.80566
0.495	7.65381
0.4955	7.35168
0.496	5.74036
0.4965	-4.93469
0.497	-1.71204
0.4975	4.02832
0.498	1.00708
0.4985	4.63257
0.499	2.81982
0.4995	2.21558
0.5	2.01416
0.5005	5.23682
0.501	1.71204
0.5015	5.13611
0.502	4.43115
0.5025	2.71912
0.503	0.60425
0.5035	5.94177
0.504	12.48779
0.5045	5.0354
0.505	0.20142
0.5055	2.5177
0.506	2.71912
0.5065	6.84814
0.507	6.2439
0.5075	1.81274
0.508	5.63965
0.5085	5.63965
0.509	6.3446
0.5095	2.81982
0.51	3.7262
0.5105	3.42407
0.511	2.5177
0.5115	1.61133
0.512	0.60425
0.5125	3.7262
0.513	4.22974
0.5135	3.42407
0.514	-1.40991
0.5145	6.3446
0.515	1.40991
0.5155	3.8269
0.516	3.32336
0.5165	0.80566
0.517	1.71204
0.5175	8.66089
0.518	7.15027
0.5185	3.22266
0.519	7.25098
0.5195	3.42407
0.52	1.40991
0.5205	-0.90637
0.521	5.43823
0.5215	7.35168
0.522	3.42407
0.5225	4.93469
0.523	-1.00708
0.5235	3.02124
0.524	6.3446
0.5245	3.92761
0.525	8.56018
0.5255	-1.10779
0.526	4.73328
0.5265	6.84814
0.527	5.94177
0.5275	11.48071
0.528	7.35168
0.5285	8.66089
0.529	4.43115
0.5295	4.43115
0.53	8.25806
0.5305	12.48779
0.531	16.91895
0.5315	15.81116
0.532	7.75452
0.5325	4.63257
0.533	0.70496
0.5335	7.5531
0.534	8.8623
0.5345	4.53186
0.535	6.54602
0.5355	0.80566
0.536	4.02832
0.5365	5.43823
0.537	5.23682
0.5375	1.51062
0.538	6.14319
0.5385	1.91345
0.539	7.04956
0.5395	3.32336
0.54	7.04956
0.5405	4.53186
0.541	5.23682
0.5415	-2.31628
0.542	2.21558
0.5425	8.25806
0.543	7.75452
0.5435	3.42407
0.544	6.04248
0.5445	2.11487
0.545	2.11487
0.5455	7.45239
0.546	2.41699
0.5465	4.43115
0.547	5.84106
0.5475	4.73328
0.548	1.61133
0.5485	6.2439
0.549	9.36584
0.5495	3.92761
0.55	3.12195
0.5505	6.14319
0.551	4.33044
0.5515	6.04248
0.552	7.75452
0.5525	8.45947
0.553	2.31628
0.5535	1.51062
0.554	3.32336
0.5545	9.16443
0.555	3.7262
0.5555	2.31628
0.556	5.13611
0.5565	4.93469
0.557	4.93469
0.5575	3.7262
0.558	5.74036
0.5585	4.02832
0.559	9.76868
0.5595	2.11487
0.56	-0.80566
0.5605	3.02124
0.561	3.8269
0.5615	6.04248
0.562	4.53186
0.5625	7.5531
0.563	9.06372
0.5635	8.45947
0.564	6.84814
0.5645	4.43115
0.565	0.60425
0.5655	6.64673
0.566	4.02832
0.5665	7.15027
0.567	8.8623
0.5675	0.30212
0.568	-2.81982
0.5685	3.62549
0.569	2.92053
0.5695	3.8269
0.57	1.81274
0.5705	6.04248
0.571	3.52478
0.5715	7.65381
0.572	4.73328
0.5725	8.96301
0.573	6.64673
0.5735	3.22266
0.574	4.43115
0.5745	3.8269
0.575	9.76868
0.5755	8.66089
0.576	5.84106
0.5765	10.27222
0.577	7.04956
0.5775	6.74744
0.578	5.84106
0.5785	2.01416
0.579	1.2085
0.5795	-0.50354
0.58	11.48071
0.5805	5.74036
0.581	5.84106
0.5815	4.83398
0.582	7.75452
0.5825	12.48779
0.583	5.94177
0.5835	6.94885
0.584	8.25806
0.5845	9.66797
0.585	9.86938
0.5855	14.30054
0.586	8.05664
0.5865	9.66797
0.587	13.69629
0.5875	11.48071
0.588	8.66089
0.5885	8.7616
0.589	10.87646
0.5895	9.06372
0.59	4.22974
0.5905	9.16443
0.591	12.28638
0.5915	9.76868
0.592	11.2793
0.5925	9.86938
0.593	7.95593
0.5935	5.94177
0.594	5.94177
0.5945	5.33752
0.595	7.5531
0.5955	2.92053
0.596	3.42407
0.5965	8.8623
0.597	2.21558
0.5975	3.52478
0.598	2.61841
0.5985	2.71912
0.599	-2.01416
0.5995	2.92053
0.6	1.91345
0.6005	4.53186
0.601	7.85522
0.6015	3.8269
0.602	7.75452
0.6025	6.94885
0.603	6.14319
0.6035	4.22974
0.604	2.71912
0.6045	0.30212
0.605	-0.10071
0.6055	7.45239
0.606	7.35168
0.6065	3.7262
0.607	6.74744
0.6075	10.0708
0.608	4.53186
0.6085	1.81274
0.609	6.94885
0.6095	6.94885
0.61	5.94177
0.6105	7.25098
0.611	11.68213
0.6115	8.25806
0.612	2.71912
0.6125	6.84814
0.613	6.3446
0.6135	1.61133
0.614	1.40991
0.6145	5.53894
0.615	3.42407
0.6155	4.63257
0.616	7.65381
0.6165	6.94885
0.617	5.0354
0.6175	3.8269
0.618	5.33752
0.6185	8.05664
0.619	2.71912
0.6195	9.97009
0.62	5.33752
0.6205	7.45239
0.621	7.95593
0.6215	8.45947
0.622	4.93469
0.6225	9.26514
0.623	9.86938
0.6235	6.84814
0.624	3.7262
0.6245	1.40991
0.625	1.71204
0.6255	2.71912
0.626	4.93469
0.6265	0.70496
0.627	1.81274
0.6275	2.71912
0.628	1.40991
0.6285	5.43823
0.629	3.52478
0.6295	2.61841
0.63	-3.52478
0.6305	-0.50354
0.631	1.3092
0.6315	-0.10071
0.632	4.53186
0.6325	6.04248
0.633	2.21558
0.6335	0.70496
0.634	2.5177
0.6345	-0.30212
0.635	1.40991
0.6355	4.73328
0.636	3.22266
0.6365	3.52478
0.637	3.12195
0.6375	1.3092
0.638	2.31628
0.6385	4.53186
0.639	5.74036
0.6395	6.54602
0.64	5.13611
0.6405	6.64673
0.641	10.47363
0.6415	7.45239
0.642	3.02124
0.6425	4.43115
0.643	7.04956
0.6435	3.42407
0.644	4.22974
0.6445	5.53894
0.645	8.15735
0.6455	6.94885
0.646	5.0354
0.6465	6.3446
0.647	3.32336
0.6475	4.22974
0.648	4.02832
0.6485	4.83398
0.649	9.06372
0.6495	3.7262
0.65	2.11487
0.6505	5.74036
0.651	4.93469
0.6515	5.23682
0.652	3.92761
0.6525	6.74744
0.653	8.8623
0.6535	8.35876
0.654	-3.02124
0.6545	-1.00708
0.655	1.00708
0.6555	2.71912
0.656	-0.50354
0.6565	5.84106
0.657	7.75452
0.6575	10.27222
0.658	1.3092
0.6585	4.63257
0.659	3.92761
0.6595	1.81274
0.66	3.7262
0.6605	4.83398
0.661	9.86938
0.6615	6.04248
0.662	4.73328
0.6625	10.87646
0.663	7.15027
0.6635	8.56018
0.664	2.21558
0.6645	8.45947
0.665	2.21558
0.6655	2.01416
0.666	1.40991
0.6665	-3.92761
0.667	-0.10071
0.6675	4.83398
0.668	5.33752
0.6685	8.66089
0.669	5.0354
0.6695	3.32336
0.67	-1.00708
0.6705	6.54602
0.671	7.95593
0.6715	4.83398
0.672	4.53186
0.6725	1.10779
0.673	4.43115
0.6735	-1.2085
0.674	3.8269
0.6745	5.84106
0.675	4.12903
0.6755	2.5177
0.676	1.91345
0.6765	4.02832
0.677	1.10779
0.6775	7.04956
0.678	3.32336
0.6785	6.94885
0.679	5.33752
0.6795	6.94885
0.68	2.11487
0.6805	5.63965
0.681	4.12903
0.6815	4.12903
0.682	12.89062
0.6825	3.52478
0.683	4.43115
0.6835	3.62549
0.684	6.3446
0.6845	3.92761
0.685	4.12903
0.6855	1.81274
0.686	11.88354
0.6865	6.2439
0.687	5.94177
0.6875	4.33044
0.688	5.23682
0.6885	3.32336
0.689	6.3446
0.6895	6.64673
0.69	9.26514
0.6905	11.07788
0.691	6.94885
0.6915	7.75452
0.692	10.47363
0.6925	8.66089
0.693	8.15735
0.6935	7.45239
0.694	7.15027
0.6945	10.37292
0.695	8.15735
0.6955	9.66797
0.696	8.25806
0.6965	7.45239
0.697	9.86938
0.6975	8.45947
0.698	6.84814
0.6985	7.65381
0.699	6.84814
0.6995	-1.91345
0.7	6.54602
0.7005	7.75452
0.701	7.95593
0.7015	4.73328
0.702	5.53894
0.7025	2.71912
0.703	1.40991
0.7035	2.21558
0.704	8.35876
0.7045	10.27222
0.705	10.27222
0.7055	6.3446
0.706	5.43823
0.7065	1.2085
0.707	4.63257
0.7075	3.62549
0.708	5.63965
0.7085	3.7262
0.709	9.16443
0.7095	9.06372
0.71	5.74036
0.7105	5.23682
0.711	4.02832
0.7115	5.13611
0.712	7.04956
0.7125	2.5177
0.713	8.25806
0.7135	8.35876
0.714	0.70496
0.7145	6.74744
0.715	-0.30212
0.7155	3.12195
0.716	2.5177
0.7165	5.43823
0.717	4.33044
0.7175	9.46655
0.718	2.81982
0.7185	8.56018
0.719	7.75452
0.7195	4.33044
0.72	0.40283
0.7205	3.12195
0.721	4.63257
0.7215	5.63965
0.722	3.02124
0.7225	3.8269
0.723	6.14319
0.7235	6.04248
0.724	6.64673
0.7245	12.18567
0.725	12.68921
0.7255	10.27222
0.726	8.05664
0.7265	2.41699
0.727	6.2439
0.7275	-1.10779
0.728	3.92761
0.7285	5.94177
0.729	6.64673
0.7295	7.75452
0.73	12.68921
0.7305	12.18567
0.731	7.65381
0.7315	9.66797
0.732	6.3446
0.7325	2.21558
0.733	8.96301
0.7335	3.52478
0.734	5.0354
0.7345	8.15735
0.735	7.35168
0.7355	5.33752
0.736	5.74036
0.7365	5.74036
0.737	4.33044
0.7375	1.51062
0.738	-1.81274
0.7385	7.95593
0.739	5.74036
0.7395	11.2793
0.74	2.41699
0.7405	6.2439
0.741	6.84814
0.7415	4.22974
0.742	11.48071
0.7425	3.8269
0.743	5.84106
0.7435	10.0708
0.744	9.36584
0.7445	7.5531
0.745	6.54602
0.7455	5.33752
0.746	-2.5177
0.7465	2.11487
0.747	4.63257
0.7475	5.43823
0.748	5.94177
0.7485	1.91345
0.749	-0.40283
0.7495	5.94177
0.75	2.92053
0.7505	2.5177
0.751	4.43115
0.7515	3.42407
0.752	4.33044
0.7525	8.35876
0.753	4.73328
0.7535	1.81274
0.754	8.25806
0.7545	3.52478
0.755	3.32336
0.7555	1.10779
0.756	-0.30212
0.7565	4.73328
0.757	5.13611
0.7575	5.13611
0.758	0.90637
0.7585	3.52478
0.759	6.64673
0.7595	7.85522
0.76	4.43115
0.7605	-1.91345
0.761	4.63257
0.7615	6.54602
0.762	6.44531
0.7625	7.15027
0.763	3.8269
0.7635	4.43115
0.764	1.81274
0.7645	9.06372
0.765	8.8623
0.7655	8.56018
0.766	10.47363
0.7665	12.28638
0.767	9.26514
0.7675	5.84106
0.768	1.71204
0.7685	0.80566
0.769	2.41699
0.7695	9.86938
0.77	8.25806
0.7705	7.95593
0.771	9.16443
0.7715	9.36584
0.772	1.40991
0.7725	5.84106
0.773	1.71204
0.7735	8.56018
0.774	7.85522
0.7745	3.02124
0.775	0.90637
0.7755	5.63965
0.776	6.14319
0.7765	7.45239
0.777	6.64673
0.7775	6.3446
0.778	6.84814
0.7785	-2.41699
0.779	-1.10779
0.7795	3.62549
0.78	3.92761
0.7805	6.94885
0.781	6.64673
0.7815	7.95593
0.782	4.83398
0.7825	1.00708
0.783	2.81982
0.7835	5.74036
0.784	11.48071
0.7845	11.78284
0.785	4.33044
0.7855	5.33752
0.786	2.21558
0.7865	8.15735
0.787	5.63965
0.7875	6.84814
0.788	6.64673
0.7885	4.53186
0.789	5.33752
0.7895	6.04248
0.79	6.2439
0.7905	5.33752
0.791	7.15027
0.7915	6.04248
0.792	5.13611
0.7925	5.13611
0.793	6.44531
0.7935	8.56018
0.794	5.63965
0.7945	7.25098
0.795	5.74036
0.7955	8.15735
0.796	-1.2085
0.7965	3.22266
0.797	4.02832
0.7975	0.40283
0.798	7.75452
0.7985	13.09204
0.799	6.74744
0.7995	5.53894
0.8	11.68213
0.8005	7.45239
0.801	3.02124
0.8015	4.22974
0.802	4.12903
0.8025	10.57434
0.803	6.84814
0.8035	5.43823
0.804	1.91345
0.8045	3.42407
0.805	1.51062
0.8055	9.76868
0.806	7.65381
0.8065	10.57434
0.807	5.23682
0.8075	11.2793
0.808	6.44531
0.8085	10.0708
0.809	7.95593
0.8095	9.26514
0.81	10.0708
0.8105	8.96301
0.811	8.25806
0.8115	9.46655
0.812	8.56018
0.8125	6.04248
0.813	14.90479
0.8135	9.16443
0.814	10.37292
0.8145	5.13611
0.815	5.63965
0.8155	10.97717
0.816	11.2793
0.8165	9.66797
0.817	15.81116
0.8175	11.58142
0.818	8.56018
0.8185	11.98425
0.819	8.15735
0.8195	12.78992
0.82	11.88354
0.8205	16.51611
0.821	11.07788
0.8215	10.47363
0.822	13.39417
0.8225	11.88354
0.823	8.25806
0.8235	14.40125
0.824	12.48779
0.8245	14.70337
0.825	12.89062
0.8255	12.28638
0.826	12.48779
0.8265	8.96301
0.827	13.49487
0.8275	10.87646
0.828	12.18567
0.8285	12.78992
0.829	15.40833
0.8295	9.46655
0.83	10.87646
0.8305	7.35168
0.831	7.95593
0.8315	15.1062
0.832	13.49487
0.8325	10.77576
0.833	4.63257
0.8335	3.42407
0.834	6.54602
0.8345	1.3092
0.835	0.60425
0.8355	-0.50354
0.836	0.60425
0.8365	4.33044
0.837	4.63257
0.8375	6.64673
0.838	2.5177
0.8385	3.52478
0.839	3.22266
0.8395	2.31628
0.84	7.15027
0.8405	7.15027
0.841	7.45239
0.8415	0
0.842	-0.60425
0.8425	1.40991
0.843	2.81982
0.8435	1.00708
0.844	-1.10779
0.8445	-1.2085
0.845	-1.51062
0.8455	-0.20142
0.846	1.10779
0.8465	2.01416
0.847	-0.30212
0.8475	4.33044
0.848	6.3446
0.8485	3.22266
0.849	5.0354
0.8495	-3.7262
0.85	-2.92053
0.8505	-2.11487
0.851	4.02832
0.8515	-0.80566
0.852	-1.61133
0.8525	5.0354
0.853	0.70496
0.8535	-1.40991
0.854	-2.92053
0.8545	-0.80566
0.855	0.30212
0.8555	-1.10779
0.856	-0.10071
0.8565	-0.20142
0.857	-1.40991
0.8575	0.60425
0.858	5.0354
0.8585	-0.30212
0.859	-0.30212
0.8595	-3.62549
0.86	-0.10071
0.8605	3.32336
0.861	7.35168
0.8615	9.86938
0.862	0.30212
0.8625	1.61133
0.863	0.50354
0.8635	3.8269
0.864	4.43115
0.8645	9.16443
0.865	10.67505
0.8655	10.67505
0.866	10.27222
0.8665	5.43823
0.867	6.74744
0.8675	3.8269
0.868	9.36584
0.8685	5.84106
0.869	4.02832
0.8695	8.25806
0.87	7.04956
0.8705	3.8269
0.871	4.12903
0.8715	4.02832
0.872	-1.00708
0.8725	0.40283
0.873	4.43115
0.8735	9.56726
0.874	10.37292
0.8745	-0.30212
0.875	2.21558
0.8755	3.62549
0.876	3.62549
0.8765	6.54602
0.877	5.53894
0.8775	2.21558
0.878	4.22974
0.8785	3.22266
0.879	3.12195
0.8795	0.40283
0.88	-1.00708
0.8805	2.31628
0.881	3.62549
0.8815	4.63257
0.882	1.81274
0.8825	2.5177
0.883	-4.63257
0.8835	4.22974
0.884	6.14319
0.8845	3.7262
0.885	2.31628
0.8855	2.92053
0.886	4.33044
0.8865	4.33044
0.887	2.61841
0.8875	3.12195
0.888	5.0354
0.8885	-1.91345
0.889	1.71204
0.8895	9.16443
0.89	8.05664
0.8905	4.22974
0.891	2.01416
0.8915	1.00708
0.892	5.63965
0.8925	5.84106
0.893	2.41699
0.8935	8.25806
0.894	5.13611
0.8945	0.60425
0.895	5.94177
0.8955	7.65381
0.896	4.83398
0.8965	3.92761
0.897	3.62549
0.8975	5.84106
0.898	0.50354
0.8985	4.22974
0.899	4.73328
0.8995	2.71912
0.9	6.44531
0.9005	7.45239
0.901	1.91345
0.9015	3.7262
0.902	10.57434
0.9025	3.32336
0.903	6.54602
0.9035	9.97009
0.904	13.49487
0.9045	8.7616
0.905	10.57434
0.9055	8.66089
0.906	8.66089
0.9065	4.93469
0.907	8.96301
0.9075	6.84814
0.908	13.19275
0.9085	11.2793
0.909	7.95593
0.9095	9.66797
0.91	7.5531
0.9105	7.25098
0.911	5.0354
0.9115	4.83398
0.912	3.22266
0.9125	6.84814
0.913	4.73328
0.9135	7.15027
0.914	6.74744
0.9145	9.46655
0.915	11.38
0.9155	8.45947
0.916	9.06372
0.9165	10.0708
0.917	6.04248
0.9175	7.75452
0.918	9.66797
0.9185	5.94177
0.919	10.37292
0.9195	12.89062
0.92	10.97717
0.9205	12.68921
0.921	11.88354
0.9215	10.47363
0.922	9.97009
0.9225	9.06372
0.923	2.92053
0.9235	14.09912
0.924	5.43823
0.9245	9.16443
0.925	11.17859
0.9255	13.39417
0.926	10.97717
0.9265	7.15027
0.927	5.43823
0.9275	6.04248
0.928	10.37292
0.9285	11.17859
0.929	7.5531
0.9295	8.15735
0.93	10.57434
0.9305	11.38
0.931	10.27222
0.9315	8.15735
0.932	6.2439
0.9325	5.74036
0.933	4.22974
0.9335	4.63257
0.934	6.94885
0.9345	9.16443
0.935	7.65381
0.9355	2.11487
0.936	5.53894
0.9365	4.83398
0.937	5.74036
0.9375	0.60425
0.938	0.80566
0.9385	0.50354
0.939	-1.91345
0.9395	1.10779
0.94	-2.61841
0.9405	-5.33752
0.941	4.63257
0.9415	4.63257
0.942	4.43115
0.9425	2.71912
0.943	8.7616
0.9435	3.8269
0.944	1.3092
0.9445	1.40991
0.945	8.15735
0.9455	9.16443
0.946	2.81982
0.9465	6.2439
0.947	2.11487
0.9475	6.54602
0.948	6.64673
0.9485	4.63257
0.949	6.74744
0.9495	3.32336
0.95	5.23682
0.9505	4.63257
0.951	4.33044
0.9515	5.0354
0.952	4.93469
0.9525	8.7616
0.953	8.66089
0.9535	8.45947
0.954	4.73328
0.9545	9.46655
0.955	9.36584
0.9555	0.60425
0.956	6.74744
0.9565	3.02124
0.957	3.02124
0.9575	3.8269
0.958	2.61841
0.9585	5.94177
0.959	3.7262
0.9595	4.02832
0.96	4.93469
0.9605	5.74036
0.961	6.64673
0.9615	6.54602
0.962	7.15027
0.9625	6.54602
0.963	2.5177
0.9635	7.95593
0.964	6.54602
0.9645	0.50354
0.965	4.33044
0.9655	7.65381
0.966	10.0708
0.9665	10.77576
0.967	7.35168
0.9675	3.8269
0.968	3.12195
0.9685	3.62549
0.969	5.84106
0.9695	3.92761
0.97	6.44531
0.9705	6.14319
0.971	6.44531
0.9715	5.23682
0.972	3.8269
0.9725	8.66089
0.973	8.66089
0.9735	10.27222
0.974	5.63965
0.9745	1.81274
0.975	2.41699
0.9755	5.63965
0.976	6.04248
0.9765	6.44531
0.977	11.68213
0.9775	5.43823
0.978	9.56726
0.9785	10.37292
0.979	9.36584
0.9795	9.36584
0.98	10.17151
0.9805	8.96301
0.981	6.14319
0.9815	7.5531
0.982	8.05664
0.9825	6.84814
0.983	7.85522
0.9835	2.92053
0.984	5.53894
0.9845	0.70496
0.985	4.53186
0.9855	6.64673
0.986	-1.3092
0.9865	2.41699
0.987	2.92053
0.9875	6.44531
0.988	7.15027
0.9885	5.33752
0.989	4.83398
0.9895	6.14319
0.99	7.85522
0.9905	3.8269
0.991	10.47363
0.9915	6.04248
0.992	2.11487
0.9925	1.91345
0.993	6.54602
0.9935	7.65381
0.994	6.2439
0.9945	7.04956
0.995	6.94885
0.9955	9.86938
0.996	1.71204
0.9965	0.70496
0.997	-3.02124
0.9975	3.42407
0.998	1.00708
0.9985	6.94885
0.999	2.61841
0.9995	3.62549
1	1.71204
1.0005	7.85522
1.001	9.36584
1.0015	7.35168
1.002	4.73328
1.0025	1.40991
1.003	4.93469
1.0035	6.14319
1.004	5.94177
1.0045	7.04956
1.005	8.05664
1.0055	10.27222
1.006	7.15027
1.0065	8.56018
1.007	5.94177
1.0075	8.35876
1.008	9.46655
1.0085	7.95593
1.009	6.14319
1.0095	6.94885
1.01	8.56018
1.0105	6.2439
1.011	3.52478
1.0115	3.7262
1.012	4.22974
1.0125	2.71912
1.013	6.04248
1.0135	3.62549
1.014	1.91345
1.0145	3.7262
1.015	5.0354
1.0155	7.25098
1.016	8.7616
1.0165	7.35168
1.017	6.84814
1.0175	3.8269
1.018	5.13611
1.0185	2.21558
1.019	6.94885
1.0195	4.63257
1.02	5.94177
1.0205	4.83398
1.021	3.8269
1.0215	0.20142
1.022	6.14319
1.0225	2.71912
1.023	2.61841
1.0235	10.87646
1.024	8.35876
1.0245	5.63965
1.025	2.21558
1.0255	1.40991
1.026	4.73328
1.0265	11.98425
1.027	4.83398
1.0275	5.94177
1.028	6.84814
1.0285	8.8623
1.029	5.23682
1.0295	11.2793
1.03	12.08496
1.0305	8.96301
1.031	3.02124
1.0315	5.74036
1.032	6.04248
1.0325	4.02832
1.033	7.25098
1.0335	5.13611
1.034	7.25098
1.0345	2.41699
1.035	5.23682
1.0355	4.93469
1.036	5.13611
1.0365	10.0708
1.037	4.93469
1.0375	2.5177
1.038	4.73328
1.0385	6.84814
1.039	6.54602
1.0395	2.92053
1.04	8.35876
1.0405	9.46655
1.041	4.53186
1.0415	6.84814
1.042	0.40283
1.0425	0.20142
1.043	2.21558
1.0435	6.3446
1.044	10.87646
1.0445	6.64673
1.045	3.02124
1.0455	3.52478
1.046	1.00708
1.0465	8.15735
1.047	5.43823
1.0475	2.11487
1.048	8.25806
1.0485	5.53894
1.049	8.7616
1.0495	6.84814
1.05	4.02832
1.0505	5.13611
1.051	4.33044
1.0515	3.7262
1.052	3.32336
1.0525	1.81274
1.053	6.44531
1.0535	1.40991
1.054	5.13611
1.0545	4.73328
1.055	0.20142
1.0555	4.63257
1.056	7.15027
1.0565	7.75452
1.057	5.43823
1.0575	8.35876
1.058	1.40991
1.0585	3.7262
1.059	5.53894
1.0595	1.61133
1.06	5.23682
1.0605	4.22974
1.061	6.44531
1.0615	2.5177
1.062	0.10071
1.0625	-0.60425
1.063	2.5177
1.0635	8.96301
1.064	2.81982
1.0645	2.5177
1.065	7.04956
1.0655	11.68213
1.066	-0.20142
1.0665	1.00708
1.067	6.64673
1.0675	4.12903
1.068	1.2085
1.0685	3.02124
1.069	-1.71204
1.0695	2.11487
1.07	2.21558
1.0705	11.17859
1.071	9.36584
1.0715	1.81274
1.072	6.54602
1.0725	2.61841
1.073	4.93469
1.0735	0.90637
1.074	-1.81274
1.0745	4.43115
1.075	0.20142
1.0755	1.3092
1.076	5.53894
1.0765	5.33752
1.077	5.63965
1.0775	7.04956
1.078	6.04248
1.0785	10.37292
1.079	5.84106
1.0795	5.84106
1.08	5.84106
1.0805	0.40283
1.081	7.65381
1.0815	6.64673
1.082	4.22974
1.0825	7.25098
1.083	2.31628
1.0835	6.74744
1.084	2.5177
1.0845	4.22974
1.085	6.54602
1.0855	10.67505
1.086	7.65381
1.0865	7.04956
1.087	11.17859
1.0875	1.2085
1.088	6.94885
1.0885	6.04248
1.089	-0.80566
1.0895	-1.51062
1.09	2.31628
1.0905	6.14319
1.091	1.10779
1.0915	2.71912
1.092	5.43823
1.0925	-2.81982
1.093	7.25098
1.0935	5.33752
1.094	6.3446
1.0945	5.0354
1.095	3.52478
1.0955	3.52478
1.096	7.95593
1.0965	6.84814
1.097	4.33044
1.0975	7.95593
1.098	1.51062
1.0985	7.65381
1.099	6.04248
1.0995	0.80566
1.1	4.53186
1.1005	2.81982
1.101	10.57434
1.1015	9.97009
1.102	7.04956
1.1025	6.44531
1.103	5.23682
1.1035	5.0354
1.104	2.31628
1.1045	2.71912
1.105	-3.32336
1.1055	3.62549
1.106	3.52478
1.1065	5.63965
1.107	2.41699
1.1075	7.25098
1.108	2.71912
1.1085	7.95593
1.109	3.92761
1.1095	1.51062
1.11	2.11487
1.1105	-0.20142
1.111	8.66089
1.1115	5.84106
1.112	2.31628
1.1125	6.54602
1.113	2.92053
1.1135	8.45947
1.114	0.30212
1.1145	2.31628
1.115	5.74036
1.1155	4.22974
1.116	2.41699
1.1165	-0.60425
1.117	1.40991
1.1175	1.40991
1.118	3.52478
1.1185	7.15027
1.119	4.73328
1.1195	1.91345
1.12	7.95593
1.1205	7.35168
1.121	7.04956
1.1215	7.85522
1.122	10.17151
1.1225	4.33044
1.123	6.2439
1.1235	7.65381
1.124	8.7616
1.1245	5.74036
1.125	5.33752
1.1255	3.12195
1.126	8.35876
1.1265	9.26514
1.127	5.74036
1.1275	9.36584
1.128	10.77576
1.1285	6.44531
1.129	5.33752
1.1295	6.2439
1.13	5.23682
1.1305	9.86938
1.131	6.44531
1.1315	7.45239
1.132	6.94885
1.1325	5.0354
1.133	7.65381
1.1335	7.65381
1.134	4.93469
1.1345	10.37292
1.135	5.43823
1.1355	10.47363
1.136	13.69629
1.1365	11.48071
1.137	13.09204
1.1375	7.45239
1.138	8.35876
1.1385	9.06372
1.139	1.61133
1.1395	5.53894
1.14	7.15027
1.1405	2.92053
1.141	3.32336
1.1415	6.44531
1.142	12.08496
1.1425	10.17151
1.143	7.15027
1.1435	9.26514
1.144	4.33044
1.1445	0.80566
1.145	7.75452
1.1455	7.65381
1.146	7.45239
1.1465	3.42407
1.147	4.83398
1.1475	11.17859
1.148	0.80566
1.1485	0.30212
1.149	1.40991
1.1495	5.94177
1.15	4.93469
1.1505	7.04956
1.151	0.50354
1.1515	-2.61841
1.152	9.26514
1.1525	7.04956
1.153	5.74036
1.1535	4.63257
1.154	3.42407
1.1545	4.53186
1.155	6.2439
1.1555	6.2439
1.156	-3.02124
1.1565	7.35168
1.157	4.63257
1.1575	3.22266
1.158	6.2439
1.1585	4.33044
1.159	4.83398
1.1595	5.13611
1.16	6.04248
1.1605	9.16443
1.161	6.74744
1.1615	7.04956
1.162	3.12195
1.1625	4.12903
1.163	5.53894
1.1635	-0.60425
1.164	3.22266
1.1645	-1.00708
1.165	3.22266
1.1655	-0.90637
1.166	-0.80566
1.1665	3.92761
1.167	-2.5177
1.1675	3.02124
1.168	4.12903
1.1685	-0.30212
1.169	3.32336
1.1695	1.61133
1.17	-1.10779
1.1705	2.01416
1.171	-4.12903
1.1715	6.44531
1.172	3.62549
1.1725	4.83398
1.173	6.84814
1.1735	7.15027
1.174	5.53894
1.1745	3.22266
1.175	3.32336
1.1755	3.92761
1.176	0.40283
1.1765	1.00708
1.177	5.23682
1.1775	10.0708
1.178	3.7262
1.1785	9.56726
1.179	11.2793
1.1795	5.0354
1.18	6.44531
1.1805	10.57434
1.181	11.58142
1.1815	4.12903
1.182	10.77576
1.1825	9.66797
1.183	8.05664
1.1835	6.44531
1.184	9.36584
1.1845	7.85522
1.185	11.78284
1.1855	10.47363
1.186	12.38708
1.1865	6.64673
1.187	7.25098
1.1875	3.12195
1.188	7.5531
1.1885	12.28638
1.189	10.17151
1.1895	12.5885
1.19	10.97717
1.1905	7.45239
1.191	4.43115
1.1915	2.81982
1.192	9.56726
1.1925	9.06372
1.193	10.97717
1.1935	10.77576
1.194	6.94885
1.1945	3.7262
1.195	6.94885
1.1955	8.56018
1.196	9.46655
1.1965	6.84814
1.197	5.94177
1.1975	8.8623
1.198	6.14319
1.1985	14.30054
1.199	13.09204
1.1995	6.64673
1.2	5.74036
1.2005	6.94885
1.201	4.83398
1.2015	3.7262
1.202	10.27222
1.2025	11.48071
1.203	11.88354
1.2035	10.77576
1.204	4.53186
1.2045	8.7616
1.205	6.94885
1.2055	9.36584
1.206	6.04248
1.2065	4.12903
1.207	6.04248
1.2075	7.04956
1.208	3.42407
1.2085	4.73328
1.209	0.70496
1.2095	4.22974
1.21	8.25806
1.2105	11.38
1.211	8.7616
1.2115	3.12195
1.212	9.26514
1.2125	4.53186
1.213	5.13611
1.2135	2.92053
1.214	6.3446
1.2145	9.06372
1.215	6.44531
1.2155	5.74036
1.216	7.5531
1.2165	7.15027
1.217	8.45947
1.2175	7.65381
1.218	9.26514
1.2185	7.95593
1.219	1.71204
1.2195	1.61133
1.22	7.75452
1.2205	6.54602
1.221	4.43115
1.2215	6.04248
1.222	2.61841
1.2225	2.21558
1.223	6.04248
1.2235	9.46655
1.224	5.33752
1.2245	8.45947
1.225	7.85522
1.2255	6.84814
1.226	8.25806
1.2265	7.04956
1.227	6.44531
1.2275	2.61841
1.228	0.80566
1.2285	5.43823
1.229	10.27222
1.2295	8.05664
1.23	5.0354
1.2305	2.71912
1.231	8.96301
1.2315	6.3446
1.232	4.83398
1.2325	5.53894
1.233	7.85522
1.2335	4.83398
1.234	5.63965
1.2345	6.74744
1.235	6.14319
1.2355	4.63257
1.236	9.97009
1.2365	9.46655
1.237	6.3446
1.2375	6.04248
1.238	6.54602
1.2385	8.8623
1.239	6.94885
1.2395	12.68921
1.24	9.46655
1.2405	11.07788
1.241	5.63965
1.2415	7.85522
1.242	7.5531
1.2425	6.74744
1.243	11.07788
1.2435	9.16443
1.244	7.75452
1.2445	10.27222
1.245	6.94885
1.2455	5.74036
1.246	8.45947
1.2465	4.73328
1.247	8.15735
1.2475	5.84106
1.248	8.25806
1.2485	6.2439
1.249	6.04248
1.2495	3.7262
1.25	4.63257
1.2505	11.68213
1.251	2.21558
1.2515	6.74744
1.252	2.92053
1.2525	6.14319
1.253	2.71912
1.2535	3.92761
1.254	1.10779
1.2545	7.35168
1.255	0.30212
1.2555	3.8269
1.256	4.83398
1.2565	1.71204
1.257	6.3446
1.2575	6.04248
1.258	5.74036
1.2585	9.97009
1.259	10.87646
1.2595	5.94177
1.26	7.45239
1.2605	10.27222
1.261	12.18567
1.2615	13.797
1.262	9.56726
1.2625	5.23682
1.263	3.52478
1.2635	9.26514
1.264	7.45239
1.2645	4.73328
1.265	3.02124
1.2655	3.12195
1.266	5.74036
1.2665	3.22266
1.267	6.04248
1.2675	2.61841
1.268	5.33752
1.2685	7.65381
1.269	6.14319
1.2695	2.31628
1.27	3.32336
1.2705	6.3446
1.271	2.71912
1.2715	5.23682
1.272	3.92761
1.2725	6.3446
1.273	3.42407
1.2735	3.32336
1.274	10.57434
1.2745	3.62549
1.275	3.02124
1.2755	4.12903
1.276	6.44531
1.2765	7.5531
1.277	2.11487
1.2775	2.11487
1.278	-1.3092
1.2785	3.32336
1.279	-1.40991
1.2795	-3.42407
1.28	0.80566
1.2805	0.60425
1.281	-0.40283
1.2815	-2.11487
1.282	-0.60425
1.2825	-1.2085
1.283	0
1.2835	0.60425
1.284	6.74744
1.2845	-3.62549
1.285	13.19275
1.2855	9.16443
1.286	12.08496
1.2865	13.59558
1.287	12.5885
1.2875	11.68213
1.288	10.47363
1.2885	11.58142
1.289	6.84814
1.2895	3.02124
1.29	5.74036
1.2905	0
1.291	10.17151
1.2915	12.28638
1.292	6.3446
1.2925	5.43823
1.293	2.01416
1.2935	2.92053
1.294	7.04956
1.2945	1.91345
1.295	1.00708
1.2955	3.52478
1.296	1.3092
1.2965	2.5177
1.297	2.21558
1.2975	3.62549
1.298	3.52478
1.2985	1.3092
1.299	0.60425
1.2995	7.45239
1.3	9.86938
1.3005	4.12903
1.301	7.45239
1.3015	8.15735
1.302	11.68213
1.3025	13.99841
1.303	12.68921
1.3035	3.12195
1.304	6.64673
1.3045	7.25098
1.305	8.25806
1.3055	5.63965
1.306	7.85522
1.3065	10.17151
1.307	9.06372
1.3075	5.63965
1.308	12.18567
1.3085	6.3446
1.309	7.65381
1.3095	12.99133
1.31	7.85522
1.3105	5.74036
1.311	5.84106
1.3115	7.85522
1.312	11.68213
1.3125	8.66089
1.313	11.68213
1.3135	7.5531
1.314	5.13611
1.3145	6.94885
1.315	11.58142
1.3155	5.13611
1.316	6.74744
1.3165	12.18567
1.317	10.17151
1.3175	5.0354
1.318	7.5531
1.3185	7.65381
1.319	2.81982
1.3195	7.04956
1.32	7.85522
1.3205	0.80566
1.321	4.83398
1.3215	5.13611
1.322	10.0708
1.3225	10.27222
1.323	9.06372
1.3235	3.92761
1.324	6.64673
1.3245	11.78284
1.325	8.66089
1.3255	8.66089
1.326	4.93469
1.3265	3.02124
1.327	5.74036
1.3275	6.74744
1.328	9.16443
1.3285	2.31628
1.329	7.75452
1.3295	-3.32336
1.33	-1.51062
1.3305	4.12903
1.331	1.40991
1.3315	6.04248
1.332	5.53894
1.3325	0.50354
1.333	7.04956
1.3335	5.33752
1.334	3.02124
1.3345	3.62549
1.335	1.00708
1.3355	1.61133
1.336	4.22974
1.3365	0.90637
1.337	-0.60425
1.3375	9.06372
1.338	4.93469
1.3385	2.41699
1.339	7.75452
1.3395	6.14319
1.34	6.84814
1.3405	7.04956
1.341	9.76868
1.3415	11.07788
1.342	4.93469
1.3425	6.04248
1.343	8.05664
1.3435	2.61841
1.344	4.83398
1.3445	7.25098
1.345	5.63965
1.3455	7.45239
1.346	3.92761
1.3465	9.16443
1.347	11.58142
1.3475	8.25806
1.348	4.83398
1.3485	9.97009
1.349	6.94885
1.3495	3.52478
1.35	4.63257
1.3505	5.84106
1.351	3.62549
1.3515	7.65381
1.352	6.74744
1.3525	3.02124
1.353	8.66089
1.3535	9.86938
1.354	1.91345
1.3545	0.60425
1.355	-2.31628
1.3555	2.41699
1.356	1.40991
1.3565	2.5177
1.357	4.02832
1.3575	0.60425
1.358	3.8269
1.3585	4.43115
1.359	6.2439
1.3595	9.06372
1.36	0.50354
1.3605	-0.60425
1.361	-0.60425
1.3615	0.50354
1.362	2.92053
1.3625	4.93469
1.363	6.94885
1.3635	2.11487
1.364	1.3092
1.3645	1.3092
1.365	5.33752
1.3655	7.45239
1.366	10.27222
1.3665	5.63965
1.367	3.8269
1.3675	4.22974
1.368	11.48071
1.3685	7.15027
1.369	6.54602
1.3695	0.50354
1.37	3.92761
1.3705	3.62549
1.371	10.27222
1.3715	9.46655
1.372	5.0354
1.3725	9.06372
1.373	10.47363
1.3735	9.16443
1.374	11.07788
1.3745	12.48779
1.375	4.33044
1.3755	7.45239
1.376	6.54602
1.3765	8.25806
1.377	2.71912
1.3775	5.74036
1.378	8.35876
1.3785	7.45239
1.379	5.0354
1.3795	4.12903
1.38	10.97717
1.3805	8.05664
1.381	14.09912
1.3815	7.25098
1.382	9.86938
1.3825	6.84814
1.383	13.49487
1.3835	7.95593
1.384	2.81982
1.3845	3.8269
1.385	5.33752
1.3855	7.65381
1.386	4.22974
1.3865	7.45239
1.387	5.74036
1.3875	6.94885
1.388	6.2439
1.3885	4.12903
1.389	11.17859
1.3895	8.05664
1.39	11.78284
1.3905	3.32336
1.391	0.70496
1.3915	5.43823
1.392	6.14319
1.3925	-1.81274
1.393	6.14319
1.3935	1.71204
1.394	2.81982
1.3945	3.62549
1.395	4.83398
1.3955	4.83398
1.396	5.63965
1.3965	8.8623
1.397	10.0708
1.3975	9.76868
1.398	2.71912
1.3985	3.8269
1.399	5.53894
1.3995	4.22974
1.4	7.95593
1.4005	4.63257
1.401	3.02124
1.4015	3.42407
1.402	1.91345
1.4025	4.33044
1.403	2.11487
1.4035	6.04248
1.404	5.13611
1.4045	1.91345
1.405	1.10779
1.4055	3.32336
1.406	5.0354
1.4065	2.31628
1.407	2.5177
1.4075	9.06372
1.408	6.54602
1.4085	4.22974
1.409	8.56018
1.4095	4.53186
1.41	7.04956
1.4105	1.51062
1.411	7.25098
1.4115	9.46655
1.412	7.04956
1.4125	5.23682
1.413	4.93469
1.4135	9.16443
1.414	9.66797
1.4145	8.05664
1.415	4.83398
1.4155	8.15735
1.416	6.3446
1.4165	8.35876
1.417	4.63257
1.4175	7.95593
1.418	5.84106
1.4185	8.7616
1.419	1.40991
1.4195	5.33752
1.42	5.63965
1.4205	9.06372
1.421	5.94177
1.4215	3.22266
1.422	1.71204
1.4225	6.44531
1.423	10.47363
1.4235	2.21558
1.424	6.94885
1.4245	5.0354
1.425	4.83398
1.4255	4.33044
1.426	6.94885
1.4265	9.86938
1.427	6.54602
1.4275	6.3446
1.428	7.45239
1.4285	6.64673
1.429	8.15735
1.4295	8.66089
1.43	3.62549
1.4305	1.00708
1.431	3.22266
1.4315	-1.71204
1.432	3.62549
1.4325	3.7262
1.433	0.60425
1.4335	8.96301
1.434	4.53186
1.4345	15.91187
1.435	4.12903
1.4355	-0.50354
1.436	5.0354
1.4365	4.02832
1.437	5.13611
1.4375	2.11487
1.438	2.41699
1.4385	0.90637
1.439	4.83398
1.4395	3.32336
1.44	4.43115
1.4405	3.52478
1.441	-1.00708
1.4415	3.42407
1.442	5.0354
1.4425	7.5531
1.443	6.94885
1.4435	1.91345
1.444	3.8269
1.4445	5.13611
1.445	8.35876
1.4455	4.83398
1.446	11.88354
1.4465	3.42407
1.447	4.22974
1.4475	10.17151
1.448	5.33752
1.4485	2.41699
1.449	3.12195
1.4495	2.71912
1.45	1.71204
1.4505	-0.40283
1.451	0.70496
1.4515	0.80566
1.452	5.0354
1.4525	0.70496
1.453	4.73328
1.4535	1.91345
1.454	-1.81274
1.4545	4.02832
1.455	4.43115
1.4555	4.93469
1.456	6.54602
1.4565	5.13611
1.457	7.75452
1.4575	3.12195
1.458	6.2439
1.4585	4.63257
1.459	10.87646
1.4595	6.2439
1.46	5.0354
1.4605	2.61841
1.461	1.61133
1.4615	3.8269
1.462	7.85522
1.4625	2.21558
1.463	4.93469
1.4635	5.74036
1.464	4.83398
1.4645	4.53186
1.465	10.77576
1.4655	5.43823
1.466	6.84814
1.4665	7.25098
1.467	11.07788
1.4675	9.06372
1.468	1.91345
1.4685	6.74744
1.469	7.5531
1.4695	3.92761
1.47	2.31628
1.4705	3.52478
1.471	6.74744
1.4715	9.76868
1.472	6.3446
1.4725	5.53894
1.473	11.58142
1.4735	9.46655
1.474	5.84106
1.4745	9.26514
1.475	13.09204
1.4755	11.07788
1.476	10.47363
1.4765	12.08496
1.477	12.99133
1.4775	12.99133
1.478	9.26514
1.4785	12.18567
1.479	12.89062
1.4795	10.27222
1.48	11.68213
1.4805	12.68921
1.481	6.64673
1.4815	9.16443
1.482	11.68213
1.4825	8.7616
1.483	5.84106
1.4835	5.13611
1.484	7.35168
1.4845	6.14319
1.485	4.73328
1.4855	3.52478
1.486	3.52478
1.4865	6.74744
1.487	1.81274
1.4875	-0.60425
1.488	-1.00708
1.4885	8.05664
1.489	0.80566
1.4895	1.51062
1.49	5.94177
1.4905	2.61841
1.491	4.33044
1.4915	5.13611
1.492	6.84814
1.4925	7.45239
1.493	1.00708
1.4935	5.63965
1.494	4.83398
1.4945	6.44531
1.495	9.97009
1.4955	10.87646
1.496	6.3446
1.4965	5.43823
1.497	0.60425
1.4975	6.54602
1.498	1.10779
1.4985	6.3446
1.499	6.44531
1.4995	2.92053
1.5	3.32336
1.5005	3.12195
1.501	6.74744
1.5015	1.91345
1.502	7.15027
1.5025	2.41699
1.503	3.22266
1.5035	-3.42407
1.504	-0.60425
1.5045	3.8269
1.505	8.05664
1.5055	3.42407
1.506	6.74744
1.5065	9.26514
1.507	7.45239
1.5075	6.54602
1.508	11.07788
1.5085	7.04956
1.509	10.77576
1.5095	10.27222
1.51	8.05664
1.5105	2.11487
1.511	8.66089
1.5115	8.8623
1.512	3.62549
1.5125	6.74744
1.513	6.04248
1.5135	3.8269
1.514	5.94177
1.5145	9.36584
1.515	2.92053
1.5155	1.71204
1.516	4.73328
1.5165	5.13611
1.517	10.27222
1.5175	9.06372
1.518	3.8269
1.5185	4.43115
1.519	6.2439
1.5195	14.30054
1.52	7.75452
1.5205	8.05664
1.521	8.8623
1.5215	8.05664
1.522	2.61841
1.5225	10.57434
1.523	-0.80566
1.5235	3.62549
1.524	2.41699
1.5245	0.80566
1.525	2.41699
1.5255	5.13611
1.526	1.10779
1.5265	-2.61841
1.527	7.15027
1.5275	2.31628
1.528	7.04956
1.5285	7.25098
1.529	5.43823
1.5295	3.62549
1.53	2.31628
1.5305	1.91345
1.531	11.78284
1.5315	8.45947
1.532	4.53186
1.5325	3.92761
1.533	4.63257
1.5335	5.0354
1.534	5.74036
1.5345	9.06372
1.535	1.10779
1.5355	5.53894
1.536	8.96301
1.5365	7.15027
1.537	7.35168
1.5375	5.43823
1.538	3.8269
1.5385	7.45239
1.539	-1.10779
1.5395	3.22266
1.54	7.35168
1.5405	6.3446
1.541	5.94177
1.5415	5.63965
1.542	6.44531
1.5425	9.46655
1.543	7.15027
1.5435	9.97009
1.544	11.38
1.5445	14.60266
1.545	10.57434
1.5455	11.68213
1.546	8.25806
1.5465	15.91187
1.547	16.81824
1.5475	12.18567
1.548	11.68213
1.5485	15.30762
1.549	13.29346
1.5495	9.46655
1.55	11.88354
1.5505	8.96301
1.551	11.38
1.5515	13.49487
1.552	14.50195
1.5525	10.37292
1.553	12.18567
1.5535	12.68921
1.554	9.26514
1.5545	11.98425
1.555	5.74036
1.5555	8.45947
1.556	11.98425
1.5565	10.97717
1.557	6.84814
1.5575	7.04956
1.558	6.74744
1.5585	7.95593
1.559	2.92053
1.5595	0.10071
1.56	9.76868
1.5605	3.42407
1.561	7.85522
1.5615	10.0708
1.562	6.14319
1.5625	7.75452
1.563	8.05664
1.5635	7.15027
1.564	1.71204
1.5645	3.22266
1.565	1.91345
1.5655	-0.30212
1.566	-1.81274
1.5665	5.74036
1.567	3.42407
1.5675	4.83398
1.568	1.3092
1.5685	2.5177
1.569	4.43115
1.5695	4.22974
1.57	7.75452
1.5705	7.65381
1.571	2.92053
1.5715	8.35876
1.572	11.78284
1.5725	7.95593
1.573	5.94177
1.5735	6.84814
1.574	6.74744
1.5745	1.71204
1.575	0.60425
1.5755	0.40283
1.576	-1.51062
1.5765	-0.40283
1.577	1.00708
1.5775	-1.40991
1.578	-3.62549
1.5785	-0.90637
1.579	3.52478
1.5795	3.52478
1.58	1.00708
1.5805	0.10071
1.581	2.11487
1.5815	3.8269
1.582	1.91345
1.5825	-2.71912
1.583	3.8269
1.5835	3.52478
1.584	5.23682
1.5845	5.0354
1.585	-1.61133
1.5855	0.20142
1.586	2.61841
1.5865	1.2085
1.587	-2.11487
1.5875	-4.12903
1.588	-1.10779
1.5885	-1.51062
1.589	-0.50354
1.5895	-4.12903
1.59	-1.51062
1.5905	3.32336
1.591	10.77576
1.5915	5.84106
1.592	2.5177
1.5925	4.43115
1.593	2.21558
1.5935	1.91345
1.594	7.95593
1.5945	3.52478
1.595	4.43115
1.5955	3.42407
1.596	7.15027
1.5965	9.06372
1.597	4.53186
1.5975	4.83398
1.598	2.41699
1.5985	3.92761
1.599	1.81274
1.5995	2.31628
1.6	5.33752
1.6005	7.5531
1.601	5.43823
1.6015	4.53186
1.602	5.23682
1.6025	8.7616
1.603	10.37292
1.6035	9.66797
1.604	5.94177
1.6045	1.91345
1.605	5.23682
1.6055	4.63257
1.606	2.11487
1.6065	5.0354
1.607	11.78284
1.6075	11.07788
1.608	4.43115
1.6085	4.83398
1.609	7.35168
1.6095	4.93469
1.61	10.27222
1.6105	1.40991
1.611	3.12195
1.6115	3.42407
1.612	2.31628
1.6125	-2.41699
1.613	1.3092
1.6135	3.12195
1.614	1.91345
1.6145	1.10779
1.615	3.12195
1.6155	-2.5177
1.616	-2.01416
1.6165	5.53894
1.617	-0.60425
1.6175	-1.3092
1.618	2.01416
1.6185	5.53894
1.619	4.02832
1.6195	2.01416
1.62	1.3092
1.6205	7.45239
1.621	6.04248
1.6215	7.35168
1.622	1.91345
1.6225	5.13611
1.623	6.64673
1.6235	7.75452
1.624	11.88354
1.6245	9.06372
1.625	9.26514
1.6255	6.74744
1.626	11.07788
1.6265	5.84106
1.627	11.48071
1.6275	8.35876
1.628	6.04248
1.6285	8.96301
1.629	11.58142
1.6295	4.33044
1.63	4.93469
1.6305	1.10779
1.631	9.86938
1.6315	6.3446
1.632	3.62549
1.6325	11.88354
1.633	2.01416
1.6335	5.0354
1.634	6.64673
1.6345	5.13611
1.635	3.62549
1.6355	1.00708
1.636	4.83398
1.6365	7.15027
1.637	5.84106
1.6375	6.44531
1.638	4.43115
1.6385	6.74744
1.639	3.62549
1.6395	4.63257
1.64	5.33752
1.6405	10.17151
1.641	12.48779
1.6415	9.56726
1.642	3.8269
1.6425	0.50354
1.643	5.74036
1.6435	7.04956
1.644	7.75452
1.6445	1.71204
1.645	8.56018
1.6455	4.43115
1.646	8.05664
1.6465	4.73328
1.647	4.83398
1.6475	3.12195
1.648	8.25806
1.6485	12.89062
1.649	6.64673
1.6495	4.43115
1.65	6.04248
1.6505	7.45239
1.651	3.52478
1.6515	4.83398
1.652	3.92761
1.6525	3.02124
1.653	3.32336
1.6535	5.33752
1.654	1.91345
1.6545	5.74036
1.655	5.53894
1.6555	7.04956
1.656	3.02124
1.6565	4.33044
1.657	5.13611
1.6575	8.45947
1.658	8.56018
1.6585	6.14319
1.659	9.97009
1.6595	9.46655
1.66	9.46655
1.6605	7.5531
1.661	7.95593
1.6615	3.42407
1.662	12.48779
1.6625	6.2439
1.663	6.3446
1.6635	6.14319
1.664	6.04248
1.6645	8.45947
1.665	6.54602
1.6655	12.89062
1.666	8.56018
1.6665	15.60974
1.667	11.07788
1.6675	8.8623
1.668	8.45947
1.6685	2.41699
1.669	6.3446
1.6695	4.63257
1.67	6.3446
1.6705	10.77576
1.671	4.02832
1.6715	5.74036
1.672	8.15735
1.6725	5.63965
1.673	8.15735
1.6735	6.94885
1.674	0
1.6745	4.63257
1.675	0.10071
1.6755	2.01416
1.676	4.02832
1.6765	7.85522
1.677	0.40283
1.6775	1.51062
1.678	-0.20142
1.6785	6.64673
1.679	1.2085
1.6795	2.92053
1.68	3.42407
1.6805	7.04956
1.681	1.91345
1.6815	3.7262
1.682	7.35168
1.6825	5.33752
1.683	3.7262
1.6835	2.61841
1.684	3.12195
1.6845	3.42407
1.685	9.46655
1.6855	4.63257
1.686	3.12195
1.6865	6.2439
1.687	8.7616
1.6875	4.83398
1.688	6.64673
1.6885	7.15027
1.689	8.56018
1.6895	9.76868
1.69	10.87646
1.6905	7.35168
1.691	5.84106
1.6915	6.74744
1.692	9.46655
1.6925	5.0354
1.693	5.0354
1.6935	-0.20142
1.694	5.33752
1.6945	1.51062
1.695	1.40991
1.6955	8.15735
1.696	2.31628
1.6965	4.83398
1.697	8.05664
1.6975	2.31628
1.698	-0.30212
1.6985	4.73328
1.699	4.12903
1.6995	-1.00708
1.7	6.84814
1.7005	5.33752
1.701	5.84106
1.7015	9.46655
1.702	8.7616
1.7025	1.10779
1.703	3.32336
1.7035	7.04956
1.704	2.5177
1.7045	5.94177
1.705	7.15027
1.7055	10.37292
1.706	5.0354
1.7065	6.64673
1.707	5.33752
1.7075	6.94885
1.708	7.15027
1.7085	4.53186
1.709	8.15735
1.7095	7.35168
1.71	8.45947
1.7105	5.94177
1.711	9.76868
1.7115	10.77576
1.712	8.66089
1.7125	11.88354
1.713	2.5177
1.7135	10.67505
1.714	7.45239
1.7145	9.97009
1.715	7.15027
1.7155	1.40991
1.716	2.01416
1.7165	3.7262
1.717	2.61841
1.7175	-0.60425
1.718	2.21558
1.7185	4.02832
1.719	5.43823
1.7195	0.30212
1.72	1.81274
1.7205	4.73328
1.721	2.81982
1.7215	2.21558
1.722	-2.41699
1.7225	3.12195
1.723	1.2085
1.7235	2.01416
1.724	-1.91345
1.7245	-3.92761
1.725	1.71204
1.7255	2.41699
1.726	1.91345
1.7265	3.22266
1.727	3.7262
1.7275	1.91345
1.728	2.5177
1.7285	1.3092
1.729	2.11487
1.7295	0.50354
1.73	2.81982
1.7305	5.0354
1.731	0.10071
1.7315	2.81982
1.732	2.01416
1.7325	-1.00708
1.733	-1.3092
1.7335	1.91345
1.734	0.10071
1.7345	3.12195
1.735	3.42407
1.7355	5.43823
1.736	4.53186
1.7365	4.33044
1.737	12.89062
1.7375	9.56726
1.738	14.60266
1.7385	16.81824
1.739	10.97717
1.7395	7.25098
1.74	7.15027
1.7405	9.26514
1.741	6.44531
1.7415	6.14319
1.742	15.60974
1.7425	6.44531
1.743	5.74036
1.7435	5.43823
1.744	0.80566
1.7445	1.91345
1.745	3.8269
1.7455	-0.80566
1.746	-5.43823
1.7465	-3.12195
1.747	-7.04956
1.7475	-0.90637
1.748	1.81274
1.7485	1.81274
1.749	3.42407
1.7495	1.91345
1.75	0.50354
1.7505	-4.22974
1.751	-5.43823
1.7515	-2.61841
1.752	-4.53186
1.7525	-2.5177
1.753	1.2085
1.7535	7.85522
1.754	14.60266
1.7545	16.01257
1.755	18.93311
1.7555	25.27771
1.756	23.46497
1.7565	21.3501
1.757	19.53735
1.7575	20.84656
1.758	13.39417
1.7585	13.69629
1.759	12.99133
1.7595	6.84814
1.76	8.8623
1.7605	6.74744
1.761	13.39417
1.7615	12.28638
1.762	9.46655
1.7625	14.09912
1.763	12.48779
1.7635	9.16443
1.764	7.85522
1.7645	6.64673
1.765	6.64673
1.7655	6.54602
1.766	7.5531
1.7665	2.31628
1.767	3.92761
1.7675	-4.83398
1.768	5.74036
1.7685	-1.00708
1.769	4.22974
1.7695	2.81982
1.77	3.32336
1.7705	0.20142
1.771	-0.80566
1.7715	1.51062
1.772	3.12195
1.7725	0.90637
1.773	1.2085
1.7735	-1.71204
1.774	1.2085
1.7745	-3.22266
1.775	-3.22266
1.7755	-1.00708
1.776	-0.40283
1.7765	-3.52478
1.777	3.42407
1.7775	3.92761
1.778	5.43823
1.7785	9.16443
1.779	8.7616
1.7795	4.73328
1.78	5.23682
1.7805	4.43115
1.781	-0.20142
1.7815	0.10071
1.782	2.71912
1.7825	6.3446
1.783	9.36584
1.7835	18.02673
1.784	18.22815
1.7845	21.04797
1.785	25.07629
1.7855	23.46497
1.786	20.44373
1.7865	14.19983
1.787	18.73169
1.7875	13.59558
1.788	16.11328
1.7885	10.37292
1.789	11.07788
1.7895	4.83398
1.79	8.45947
1.7905	4.12903
1.791	3.12195
1.7915	7.95593
1.792	11.17859
1.7925	10.27222
1.793	11.38
1.7935	7.35168
1.794	6.64673
1.7945	8.8623
1.795	5.23682
1.7955	3.32336
1.796	3.42407
1.7965	7.25098
1.797	1.71204
1.7975	4.53186
1.798	13.39417
1.7985	18.22815
1.799	13.59558
1.7995	19.33594
1.8	18.42957
1.8005	13.99841
1.801	14.70337
1.8015	14.60266
1.802	15.50903
1.8025	6.54602
1.803	4.63257
1.8035	1.61133
1.804	4.53186
1.8045	6.44531
1.805	5.63965
1.8055	4.83398
1.806	5.43823
1.8065	2.21558
1.807	4.83398
1.8075	-1.3092
1.808	0.30212
1.8085	9.86938
1.809	4.63257
1.8095	-2.21558
1.81	-7.5531
1.8105	-3.92761
1.811	-1.91345
1.8115	-2.31628
1.812	-2.61841
1.8125	-7.45239
1.813	-5.0354
1.8135	-0.60425
1.814	-0.10071
1.8145	1.81274
1.815	0.70496
1.8155	-1.2085
1.816	-0.90637
1.8165	3.12195
1.817	3.62549
1.8175	4.63257
1.818	7.25098
1.8185	-1.40991
1.819	-0.40283
1.8195	0.20142
1.82	1.61133
1.8205	0.10071
1.821	10.97717
1.8215	9.86938
1.822	15.71045
1.8225	15.00549
1.823	8.05664
1.8235	9.36584
1.824	9.86938
1.8245	6.94885
1.825	0.90637
1.8255	1.00708
1.826	-2.92053
1.8265	-8.05664
1.827	-7.45239
1.8275	-8.7616
1.828	-11.2793
1.8285	-13.49487
1.829	-12.48779
1.8295	-18.73169
1.83	-12.48779
1.8305	-13.59558
1.831	-13.49487
1.8315	-11.38
1.832	-11.2793
1.8325	-6.64673
1.833	-6.54602
1.8335	-9.16443
1.834	-10.27222
1.8345	-12.99133
1.835	-10.67505
1.8355	-9.16443
1.836	-2.11487
1.8365	3.02124
1.837	2.01416
1.8375	13.89771
1.838	25.78125
1.8385	35.04639
1.839	44.0094
1.8395	51.96533
1.84	56.19507
1.8405	64.05029
1.841	56.69861
1.8415	45.41931
1.842	39.37683
1.8425	34.14001
1.843	25.27771
1.8435	22.45789
1.844	20.1416
1.8445	19.53735
1.845	8.8623
1.8455	-1.00708
1.846	1.2085
1.8465	-7.35168
1.847	-9.66797
1.8475	-5.13611
1.848	-11.48071
1.8485	-7.45239
1.849	-8.35876
1.8495	-8.35876
1.85	-8.15735
1.8505	-9.97009
1.851	-3.02124
1.8515	-5.0354
1.852	-3.02124
1.8525	-1.51062
1.853	-0.10071
1.8535	0.10071
1.854	-2.41699
1.8545	-6.14319
1.855	2.92053
1.8555	10.77576
1.856	10.0708
1.8565	18.93311
1.857	21.55151
1.8575	25.57983
1.858	25.68054
1.8585	20.34302
1.859	22.05505
1.8595	23.36426
1.86	18.8324
1.8605	16.51611
1.861	13.797
1.8615	11.07788
1.862	9.76868
1.8625	11.07788
1.863	11.68213
1.8635	9.76868
1.864	7.04956
1.8645	11.2793
1.865	11.48071
1.8655	5.63965
1.866	4.43115
1.8665	1.10779
1.867	3.8269
1.8675	-0.30212
1.868	1.00708
1.8685	-1.2085
1.869	5.23682
1.8695	-1.81274
1.87	0.70496
1.8705	-4.22974
1.871	-4.73328
1.8715	-6.14319
1.872	-9.46655
1.8725	-6.94885
1.873	-8.56018
1.8735	-14.70337
1.874	-13.29346
1.8745	-11.78284
1.875	-12.89062
1.8755	-14.60266
1.876	-13.29346
1.8765	-7.15027
1.877	2.61841
1.8775	3.32336
1.878	4.33044
1.8785	0.50354
1.879	-2.61841
1.8795	0.70496
1.88	-0.50354
1.8805	3.12195
1.881	2.81982
1.8815	2.92053
1.882	1.91345
1.8825	13.19275
1.883	19.33594
1.8835	20.04089
1.884	21.95435
1.8845	20.34302
1.885	15.1062
1.8855	14.19983
1.886	1.10779
1.8865	-0.40283
1.887	5.74036
1.8875	1.71204
1.888	-9.26514
1.8885	-6.54602
1.889	-8.96301
1.8895	-7.45239
1.89	-5.94177
1.8905	-10.0708
1.891	-3.62549
1.8915	-2.92053
1.892	-5.63965
1.8925	-12.08496
1.893	-17.82532
1.8935	-17.92603
1.894	-16.51611
1.8945	-13.69629
1.895	-11.48071
1.8955	-9.86938
1.896	-4.93469
1.8965	-4.22974
1.897	2.31628
1.8975	8.8623
1.898	-1.3092
1.8985	2.11487
1.899	13.59558
1.8995	14.90479
1.9	15.60974
1.9005	21.75293
1.901	28.19824
1.9015	25.47913
1.902	25.37842
1.9025	24.37134
1.903	28.29895
1.9035	32.02515
1.904	40.2832
1.9045	39.98108
1.905	28.70178
1.9055	23.76709
1.906	22.6593
1.9065	15.00549
1.907	10.67505
1.9075	13.59558
1.908	11.88354
1.9085	5.23682
1.909	1.2085
1.9095	1.00708
1.91	-3.8269
1.9105	-6.54602
1.911	-3.8269
1.9115	-3.92761
1.912	-5.13611
1.9125	-6.74744
1.913	-4.43115
1.9135	-3.32336
1.914	-3.92761
1.9145	-4.02832
1.915	-9.56726
1.9155	-12.08496
1.916	-4.02832
1.9165	-2.31628
1.917	1.61133
1.9175	-2.81982
1.918	-4.12903
1.9185	-4.12903
1.919	-5.43823
1.9195	-9.26514
1.92	-11.17859
1.9205	-8.45947
1.921	-8.96301
1.9215	-7.75452
1.922	0.40283
1.9225	-2.61841
1.923	-1.2085
1.9235	0.80566
1.924	-6.94885
1.9245	-2.21558
1.925	-5.74036
1.9255	-1.2085
1.926	5.13611
1.9265	-1.71204
1.927	10.77576
1.9275	23.06213
1.928	25.27771
1.9285	32.52869
1.929	40.78674
1.9295	29.70886
1.93	26.18408
1.9305	17.01965
1.931	15.00549
1.9315	15.00549
1.932	8.25806
1.9325	7.35168
1.933	9.86938
1.9335	3.92761
1.934	0.90637
1.9345	-2.61841
1.935	3.62549
1.9355	4.02832
1.936	0.20142
1.9365	-6.64673
1.937	-8.45947
1.9375	-5.0354
1.938	-5.63965
1.9385	-1.81274
1.939	-1.91345
1.9395	6.44531
1.94	10.37292
1.9405	13.797
1.941	10.27222
1.9415	6.14319
1.942	8.66089
1.9425	5.23682
1.943	4.12903
1.9435	3.7262
1.944	2.01416
1.9445	9.97009
1.945	8.8623
1.9455	6.94885
1.946	13.89771
1.9465	9.86938
1.947	11.38
1.9475	14.50195
1.948	7.65381
1.9485	10.17151
1.949	3.32336
1.9495	-3.8269
1.95	-6.44531
1.9505	-7.65381
1.951	-8.96301
1.9515	-5.74036
1.952	3.32336
1.9525	9.56726
1.953	12.18567
1.9535	16.41541
1.954	17.01965
1.9545	11.98425
1.955	14.19983
1.9555	8.8623
1.956	3.42407
1.9565	9.06372
1.957	8.15735
1.9575	3.02124
1.958	2.81982
1.9585	7.15027
1.959	13.89771
1.9595	23.26355
1.96	28.50037
1.9605	23.16284
1.961	26.18408
1.9615	25.47913
1.962	25.68054
1.9625	20.54443
1.963	15.91187
1.9635	11.88354
1.964	8.56018
1.9645	4.12903
1.965	3.8269
1.9655	-0.20142
1.966	-2.5177
1.9665	-0.10071
1.967	-6.14319
1.9675	-7.75452
1.968	-5.74036
1.9685	-7.5531
1.969	-9.16443
1.9695	-8.45947
1.97	-9.66797
1.9705	-12.5885
1.971	-7.5531
1.9715	-5.84106
1.972	-0.40283
1.9725	3.32336
1.973	6.44531
1.9735	12.99133
1.974	17.6239
1.9745	19.03381
1.975	26.48621
1.9755	19.23523
1.976	24.97559
1.9765	22.96143
1.977	20.84656
1.9775	19.23523
1.978	23.56567
1.9785	15.30762
1.979	9.97009
1.9795	9.46655
1.98	4.83398
1.9805	3.32336
1.981	0.70496
1.9815	-2.01416
1.982	-1.81274
1.9825	1.81274
1.983	-3.62549
1.9835	-7.15027
1.984	-5.94177
1.9845	-4.22974
1.985	-10.27222
1.9855	-4.53186
1.986	-6.3446
1.9865	-0.30212
1.987	-11.48071
1.9875	-3.52478
1.988	-5.0354
1.9885	0.30212
1.989	1.81274
1.9895	8.25806
1.99	12.08496
1.9905	9.86938
1.991	12.68921
1.9915	17.52319
1.992	19.94019
1.9925	22.6593
1.993	27.29187
1.9935	30.31311
1.994	20.24231
1.9945	16.11328
1.995	4.63257
1.9955	3.32336
1.996	2.61841
1.9965	-0.40283
1.997	1.61133
1.9975	-4.22974
1.998	-7.85522
1.9985	-7.95593
1.999	-8.45947
1.9995	-7.85522
2	-1.61133
2.0005	-7.15027
2.001	-10.57434
2.0015	-9.06372
2.002	-6.2439
2.0025	-3.32336
2.003	6.54602
2.0035	12.78992
2.004	20.34302
2.0045	26.58691
2.005	26.78833
2.0055	24.47205
2.006	17.52319
2.0065	16.01257
2.007	9.36584
2.0075	9.06372
2.008	4.63257
2.0085	0.30212
2.009	-4.83398
2.0095	-5.33752
2.01	-4.33044
2.0105	-8.96301
2.011	-3.42407
2.0115	-0.70496
2.012	3.8269
2.0125	-1.3092
2.013	-3.22266
2.0135	4.02832
2.014	8.35876
2.0145	6.74744
2.015	7.04956
2.0155	10.67505
2.016	21.45081
2.0165	22.25647
2.017	19.13452
2.0175	27.59399
2.018	22.96143
2.0185	18.12744
2.019	11.88354
2.0195	9.36584
2.02	3.12195
2.0205	3.32336
2.021	3.7262
2.0215	3.42407
2.022	2.61841
2.0225	-0.80566
2.023	1.2085
2.0235	3.8269
2.024	1.51062
2.0245	4.02832
2.025	0.90637
2.0255	-2.41699
2.026	-1.51062
2.0265	-1.40991
2.027	4.73328
2.0275	10.97717
2.028	11.38
2.0285	6.64673
2.029	3.02124
2.0295	6.3446
2.03	0.90637
2.0305	2.21558
2.031	-1.81274
2.0315	-0.70496
2.032	1.40991
2.0325	-2.11487
2.033	-5.74036
2.0335	-0.10071
2.034	-3.62549
2.0345	-8.8623
2.035	-9.86938
2.0355	-3.7262
2.036	5.94177
2.0365	8.96301
2.037	14.50195
2.0375	16.71753
2.038	19.33594
2.0385	17.01965
2.039	13.69629
2.0395	12.48779
2.04	14.19983
2.0405	13.69629
2.041	19.53735
2.0415	13.49487
2.042	10.67505
2.0425	14.30054
2.043	13.19275
2.0435	1.2085
2.044	8.05664
2.0445	5.74036
2.045	4.83398
2.0455	3.02124
2.046	-4.12903
2.0465	-4.33044
2.047	0.20142
2.0475	0.30212
2.048	-10.37292
2.0485	-3.12195
2.049	4.63257
2.0495	1.2085
2.05	8.66089
2.0505	5.13611
2.051	3.12195
2.0515	11.48071
2.052	16.3147
2.0525	22.45789
2.053	28.09753
2.0535	25.57983
2.054	22.76001
2.0545	23.76709
2.055	20.54443
2.0555	18.12744
2.056	20.34302
2.0565	9.66797
2.057	6.2439
2.0575	9.16443
2.058	4.43115
2.0585	5.0354
2.059	7.65381
2.0595	10.37292
2.06	1.51062
2.0605	5.74036
2.061	-1.00708
2.0615	3.42407
2.062	0.70496
2.0625	4.33044
2.063	0.70496
2.0635	10.67505
2.064	0.20142
2.0645	-5.84106
2.065	4.83398
2.0655	-2.92053
2.066	-2.01416
2.0665	-2.31628
2.067	-2.71912
2.0675	0.90637
2.068	-3.62549
2.0685	-0.10071
2.069	-7.65381
2.0695	-7.35168
2.07	-6.74744
2.0705	0.80566
2.071	-0.20142
2.0715	-7.85522
2.072	-9.16443
2.0725	-3.12195
2.073	3.22266
2.0735	-0.70496
2.074	4.33044
2.0745	-0.50354
2.075	3.22266
2.0755	3.22266
2.076	4.53186
2.0765	8.25806
2.077	12.5885
2.0775	22.86072
2.078	18.93311
2.0785	16.61682
2.079	17.32178
2.0795	15.00549
2.08	17.01965
2.0805	21.04797
2.081	15.30762
2.0815	17.01965
2.082	13.39417
2.0825	11.58142
2.083	12.99133
2.0835	5.13611
2.084	4.53186
2.0845	8.56018
2.085	3.32336
2.0855	-2.71912
2.086	1.91345
2.0865	-1.61133
2.087	-1.10779
2.0875	-1.71204
2.088	2.71912
2.0885	-0.90637
2.089	-10.37292
2.0895	-3.52478
2.09	-2.11487
2.0905	-0.50354
2.091	-2.21558
2.0915	-0.90637
2.092	-3.52478
2.0925	0.70496
2.093	0.50354
2.0935	4.33044
2.094	14.50195
2.0945	13.99841
2.095	15.71045
2.0955	13.19275
2.096	7.35168
2.0965	7.35168
2.097	2.92053
2.0975	6.84814
2.098	6.54602
2.0985	11.98425
2.099	7.95593
2.0995	-2.31628
2.1	-3.02124
2.1005	0.30212
2.101	5.0354
2.1015	-3.62549
2.102	-4.12903
2.1025	2.01416
2.103	4.02832
2.1035	4.43115
2.104	10.0708
2.1045	4.43115
2.105	1.91345
2.1055	4.63257
2.106	6.94885
2.1065	6.3446
2.107	4.73328
2.1075	2.71912
2.108	-0.10071
2.1085	5.33752
2.109	5.94177
2.1095	13.49487
2.11	19.13452
2.1105	9.46655
2.111	8.15735
2.1115	9.06372
2.112	8.66089
2.1125	10.17151
2.113	10.77576
2.1135	1.71204
2.114	8.66089
2.1145	5.0354
2.115	2.41699
2.1155	1.51062
2.116	-1.10779
2.1165	0.70496
2.117	-3.12195
2.1175	-1.10779
2.118	-4.02832
2.1185	-5.13611
2.119	-7.45239
2.1195	-2.31628
2.12	1.40991
2.1205	0.20142
2.121	10.77576
2.1215	19.33594
2.122	13.89771
2.1225	15.20691
2.123	10.97717
2.1235	15.81116
2.124	17.92603
2.1245	13.49487
2.125	2.01416
2.1255	7.65381
2.126	8.66089
2.1265	2.81982
2.127	4.43115
2.1275	1.71204
2.128	-2.81982
2.1285	4.02832
2.129	5.23682
2.1295	11.98425
2.13	5.63965
2.1305	9.66797
2.131	15.20691
2.1315	16.61682
2.132	13.69629
2.1325	8.66089
2.133	9.76868
2.1335	4.02832
2.134	5.43823
2.1345	6.84814
2.135	6.74744
2.1355	3.92761
2.136	7.45239
2.1365	4.63257
2.137	5.94177
2.1375	3.8269
2.138	9.46655
2.1385	9.26514
2.139	9.46655
2.1395	9.46655
2.14	6.64673
2.1405	7.35168
2.141	10.17151
2.1415	4.93469
2.142	5.0354
2.1425	9.46655
2.143	1.91345
2.1435	2.31628
2.144	2.81982
2.1445	3.42407
2.145	-0.80566
2.1455	3.22266
2.146	4.43115
2.1465	-3.12195
2.147	-5.0354
2.1475	-0.90637
2.148	2.11487
2.1485	0.50354
2.149	-2.31628
2.1495	2.81982
2.15	1.40991
2.1505	6.2439
2.151	2.81982
2.1515	7.15027
2.152	1.2085
2.1525	4.73328
2.153	9.36584
2.1535	12.48779
2.154	14.09912
2.1545	16.91895
2.155	17.6239
2.1555	15.20691
2.156	13.59558
2.1565	15.71045
2.157	12.38708
2.1575	3.7262
2.158	6.64673
2.1585	3.8269
2.159	10.47363
2.1595	5.63965
2.16	5.33752
2.1605	8.96301
2.161	9.76868
2.1615	3.32336
2.162	8.96301
2.1625	2.31628
2.163	5.0354
2.1635	6.94885
2.164	0.10071
2.1645	5.43823
2.165	6.64673
2.1655	9.66797
2.166	3.62549
2.1665	7.75452
2.167	4.12903
2.1675	8.15735
2.168	1.40991
2.1685	3.12195
2.169	6.54602
2.1695	6.04248
2.17	1.61133
2.1705	3.92761
2.171	7.25098
2.1715	7.85522
2.172	3.92761
2.1725	11.17859
2.173	6.54602
2.1735	4.63257
2.174	4.63257
2.1745	6.64673
2.175	11.78284
2.1755	7.15027
2.176	12.48779
2.1765	8.56018
2.177	10.0708
2.1775	3.22266
2.178	3.42407
2.1785	2.01416
2.179	6.2439
2.1795	6.2439
2.18	7.95593
2.1805	10.97717
2.181	8.8623
2.1815	9.97009
2.182	7.35168
2.1825	3.7262
2.183	8.45947
2.1835	6.2439
2.184	4.83398
2.1845	6.44531
2.185	3.12195
2.1855	4.02832
2.186	12.5885
2.1865	6.74744
2.187	3.22266
2.1875	7.04956
2.188	5.84106
2.1885	8.8623
2.189	10.67505
2.1895	10.17151
2.19	9.56726
2.1905	12.38708
2.191	7.45239
2.1915	14.09912
2.192	13.09204
2.1925	7.35168
2.193	10.97717
2.1935	6.54602
2.194	6.3446
2.1945	13.89771
2.195	14.19983
2.1955	9.06372
2.196	10.67505
2.1965	1.61133
2.197	5.94177
2.1975	6.84814
2.198	3.62549
2.1985	-1.00708
2.199	5.33752
2.1995	8.66089
2.2	8.8623
2.2005	7.25098
2.201	10.97717
2.2015	19.63806
2.202	16.01257
2.2025	16.61682
2.203	14.40125
2.2035	10.37292
2.204	5.84106
2.2045	4.93469
2.205	-0.30212
2.2055	4.12903
2.206	-1.10779
2.2065	-0.10071
2.207	-0.30212
2.2075	-7.04956
2.208	-2.61841
2.2085	-8.15735
2.209	-4.63257
2.2095	-3.7262
2.21	-4.12903
2.2105	-4.63257
2.211	-4.83398
2.2115	3.42407
2.212	4.33044
2.2125	10.77576
2.213	13.59558
2.2135	23.46497
2.214	19.94019
2.2145	16.71753
2.215	20.64514
2.2155	16.71753
2.216	19.73877
2.2165	16.91895
2.217	16.71753
2.2175	16.11328
2.218	11.68213
2.2185	14.19983
2.219	16.91895
2.2195	11.58142
2.22	8.05664
2.2205	3.7262
2.221	4.73328
2.2215	5.84106
2.222	9.86938
2.2225	10.37292
2.223	12.5885
2.2235	4.43115
2.224	9.06372
2.2245	5.84106
2.225	7.65381
2.2255	8.8623
2.226	6.3446
2.2265	7.65381
2.227	4.33044
2.2275	2.81982
2.228	13.49487
2.2285	9.16443
2.229	7.5531
2.2295	9.36584
2.23	4.02832
2.2305	3.7262
2.231	4.43115
2.2315	6.64673
2.232	12.68921
2.2325	4.12903
2.233	7.15027
2.2335	5.63965
2.234	0.40283
2.2345	1.2085
2.235	6.64673
2.2355	12.18567
2.236	11.07788
2.2365	7.85522
2.237	12.68921
2.2375	7.65381
2.238	5.0354
2.2385	7.25098
2.239	4.73328
2.2395	6.14319
2.24	6.14319
2.2405	0
2.241	4.12903
2.2415	5.23682
2.242	5.0354
2.2425	2.5177
2.243	1.81274
2.2435	0
2.244	0.70496
2.2445	0.50354
2.245	1.81274
2.2455	0.60425
2.246	1.61133
2.2465	-2.71912
2.247	-5.94177
2.2475	-2.21558
2.248	-3.22266
2.2485	5.43823
2.249	7.45239
2.2495	2.01416
2.25	0.10071
2.2505	4.22974
2.251	2.11487
2.2515	3.92761
2.252	6.44531
2.2525	9.46655
2.253	7.04956
2.2535	3.02124
2.254	8.66089
2.2545	6.84814
2.255	4.93469
2.2555	6.64673
2.256	6.54602
2.2565	0.60425
2.257	10.67505
2.2575	11.58142
2.258	5.84106
2.2585	7.25098
2.259	6.94885
2.2595	9.97009
2.26	10.87646
2.2605	4.22974
2.261	4.22974
2.2615	10.27222
2.262	13.69629
2.2625	10.27222
2.263	7.35168
2.2635	8.35876
2.264	11.88354
2.2645	12.5885
2.265	9.26514
2.2655	7.75452
2.266	10.17151
2.2665	12.38708
2.267	14.19983
2.2675	14.70337
2.268	10.67505
2.2685	12.5885
2.269	15.71045
2.2695	10.77576
2.27	14.09912
2.2705	16.41541
2.271	13.39417
2.2715	10.87646
2.272	6.74744
2.2725	15.1062
2.273	10.17151
2.2735	11.38
2.274	11.07788
2.2745	15.60974
2.275	12.28638
2.2755	10.87646
2.276	11.58142
2.2765	5.23682
2.277	7.45239
2.2775	12.18567
2.278	11.17859
2.2785	6.44531
2.279	6.54602
2.2795	6.2439
2.28	7.25098
2.2805	6.44531
2.281	9.86938
2.2815	12.89062
2.282	0.10071
2.2825	4.22974
2.283	0.30212
2.2835	4.02832
2.284	4.63257
2.2845	10.27222
2.285	9.97009
2.2855	4.33044
2.286	6.94885
2.2865	6.64673
2.287	10.57434
2.2875	6.54602
2.288	4.63257
2.2885	1.40991
2.289	2.81982
2.2895	7.95593
2.29	4.53186
2.2905	6.04248
2.291	5.33752
2.2915	0.50354
2.292	2.01416
2.2925	6.2439
2.293	1.91345
2.2935	3.22266
2.294	1.3092
2.2945	5.0354
2.295	0.20142
2.2955	6.04248
2.296	11.68213
2.2965	4.53186
2.297	5.53894
2.2975	6.3446
2.298	1.51062
2.2985	-0.60425
2.299	6.84814
2.2995	3.8269
2.3	2.71912
2.3005	3.52478
2.301	3.22266
2.3015	6.64673
2.302	3.8269
2.3025	6.54602
2.303	8.05664
2.3035	8.45947
2.304	10.87646
2.3045	5.33752
2.305	4.93469
2.3055	4.02832
2.306	4.83398
2.3065	0
2.307	2.31628
2.3075	7.45239
2.308	5.84106
2.3085	3.42407
2.309	12.48779
2.3095	11.2793
2.31	9.56726
2.3105	3.22266
2.311	5.53894
2.3115	3.12195
2.312	4.02832
2.3125	3.52478
2.313	7.45239
2.3135	5.33752
2.314	6.94885
2.3145	1.71204
2.315	7.15027
2.3155	8.56018
2.316	5.13611
2.3165	1.71204
2.317	2.31628
2.3175	6.74744
2.318	4.43115
2.3185	3.92761
2.319	2.41699
2.3195	4.12903
2.32	7.04956
2.3205	4.93469
2.321	6.84814
2.3215	6.44531
2.322	6.2439
2.3225	5.33752
2.323	7.95593
2.3235	11.98425
2.324	12.38708
2.3245	4.73328
2.325	5.84106
2.3255	6.14319
2.326	3.8269
2.3265	7.15027
2.327	-0.70496
2.3275	0.60425
2.328	-1.91345
2.3285	0.20142
2.329	5.13611
2.3295	4.63257
2.33	2.41699
2.3305	9.06372
2.331	4.83398
2.3315	4.83398
2.332	12.89062
2.3325	10.87646
2.333	9.66797
2.3335	5.94177
2.334	6.2439
2.3345	2.71912
2.335	3.8269
2.3355	7.25098
2.336	13.29346
2.3365	6.14319
2.337	7.65381
2.3375	5.53894
2.338	3.22266
2.3385	7.45239
2.339	7.45239
2.3395	12.48779
2.34	9.76868
2.3405	2.5177
2.341	9.36584
2.3415	10.27222
2.342	7.85522
2.3425	10.0708
2.343	14.30054
2.3435	13.19275
2.344	7.95593
2.3445	5.0354
2.345	8.8623
2.3455	7.95593
2.346	7.65381
2.3465	6.04248
2.347	8.15735
2.3475	2.92053
2.348	-3.12195
2.3485	-4.43115
2.349	1.40991
2.3495	3.8269
2.35	9.66797
2.3505	2.61841
2.351	4.93469
2.3515	8.35876
2.352	3.92761
2.3525	3.42407
2.353	5.53894
2.3535	7.75452
2.354	0.40283
2.3545	4.53186
2.355	3.02124
2.3555	10.0708
2.356	13.39417
2.3565	3.92761
2.357	5.94177
2.3575	3.02124
2.358	5.43823
2.3585	7.45239
2.359	4.33044
2.3595	3.02124
2.36	3.7262
2.3605	1.71204
2.361	5.53894
2.3615	9.16443
2.362	5.0354
2.3625	6.2439
2.363	1.61133
2.3635	3.52478
2.364	6.54602
2.3645	3.02124
2.365	0
2.3655	7.5531
2.366	5.23682
2.3665	4.22974
2.367	3.8269
2.3675	-0.50354
2.368	1.51062
2.3685	2.71912
2.369	1.3092
2.3695	1.10779
2.37	0.80566
2.3705	2.41699
2.371	10.57434
2.3715	7.75452
2.372	0.30212
2.3725	3.8269
2.373	4.73328
2.3735	2.92053
2.374	1.71204
2.3745	6.14319
2.375	1.3092
2.3755	4.12903
2.376	-0.40283
2.3765	4.93469
2.377	-0.10071
2.3775	1.61133
2.378	-0.50354
2.3785	-1.51062
2.379	2.21558
2.3795	-1.61133
2.38	3.52478
2.3805	2.01416
2.381	2.81982
2.3815	2.92053
2.382	-4.63257
2.3825	-2.5177
2.383	1.40991
2.3835	1.51062
2.384	3.42407
2.3845	0.60425
2.385	-5.43823
2.3855	4.43115
2.386	6.44531
2.3865	4.33044
2.387	-0.40283
2.3875	1.61133
2.388	3.12195
2.3885	6.54602
2.389	1.3092
2.3895	6.54602
2.39	-0.10071
2.3905	2.41699
2.391	2.81982
2.3915	8.66089
2.392	1.3092
2.3925	2.92053
2.393	6.84814
2.3935	3.62549
2.394	7.35168
2.3945	3.12195
2.395	0.20142
2.3955	4.73328
2.396	4.63257
2.3965	7.45239
2.397	6.14319
2.3975	8.15735
2.398	8.15735
2.3985	10.87646
2.399	8.8623
2.3995	9.97009
2.4	5.23682
2.4005	9.97009
2.401	9.16443
2.4015	9.06372
2.402	4.33044
2.4025	8.15735
2.403	9.26514
2.4035	8.66089
2.404	15.91187
2.4045	9.56726
2.405	8.7616
2.4055	10.47363
2.406	9.76868
2.4065	2.21558
2.407	1.91345
2.4075	2.01416
2.408	2.31628
2.4085	1.00708
2.409	1.91345
2.4095	2.01416
2.41	-0.40283
2.4105	-0.10071
2.411	3.02124
2.4115	-4.02832
2.412	0.60425
2.4125	6.2439
2.413	-4.02832
2.4135	-1.10779
2.414	2.31628
2.4145	5.13611
2.415	-2.5177
2.4155	-2.81982
2.416	0.80566
2.4165	1.10779
2.417	0.70496
2.4175	5.53894
2.418	4.33044
2.4185	3.52478
2.419	3.7262
2.4195	4.22974
2.42	1.51062
2.4205	7.45239
2.421	2.11487
2.4215	3.12195
2.422	5.33752
2.4225	6.84814
2.423	0.80566
2.4235	5.63965
2.424	7.95593
2.4245	10.17151
2.425	8.05664
2.4255	10.47363
2.426	14.40125
2.4265	5.23682
2.427	1.3092
2.4275	4.12903
2.428	2.71912
2.4285	0.80566
2.429	-1.3092
2.4295	-0.20142
2.43	-2.41699
2.4305	7.85522
2.431	3.62549
2.4315	6.2439
2.432	4.93469
2.4325	1.51062
2.433	0.50354
2.4335	3.42407
2.434	1.2085
2.4345	-1.10779
2.435	2.5177
2.4355	0.60425
2.436	4.93469
2.4365	3.42407
2.437	6.94885
2.4375	5.94177
2.438	0.40283
2.4385	3.12195
2.439	6.74744
2.4395	7.5531
2.44	7.95593
2.4405	9.46655
2.441	8.05664
2.4415	4.63257
2.442	5.43823
2.4425	7.15027
2.443	8.96301
2.4435	9.36584
2.444	5.0354
2.4445	4.93469
2.445	5.0354
2.4455	7.04956
2.446	6.84814
2.4465	3.7262
2.447	6.44531
2.4475	6.64673
2.448	10.0708
2.4485	9.36584
2.449	5.43823
2.4495	7.5531
2.45	5.63965
2.4505	9.26514
2.451	9.86938
2.4515	9.86938
2.452	2.11487
2.4525	8.66089
2.453	6.94885
2.4535	5.94177
2.454	5.63965
2.4545	7.65381
2.455	4.53186
2.4555	2.71912
2.456	3.42407
2.4565	4.22974
2.457	4.93469
2.4575	4.43115
2.458	3.22266
2.4585	8.15735
2.459	9.06372
2.4595	12.5885
2.46	10.27222
2.4605	10.17151
2.461	9.36584
2.4615	9.76868
2.462	8.15735
2.4625	9.56726
2.463	1.61133
2.4635	4.33044
2.464	5.94177
2.4645	4.12903
2.465	4.12903
2.4655	10.0708
2.466	12.48779
2.4665	8.56018
2.467	0.80566
2.4675	-0.70496
2.468	-0.50354
2.4685	6.04248
2.469	11.48071
2.4695	13.99841
2.47	12.28638
2.4705	11.38
2.471	14.19983
2.4715	11.68213
2.472	10.77576
2.4725	11.58142
2.473	15.30762
2.4735	17.92603
2.474	14.80408
2.4745	17.42249
2.475	14.40125
2.4755	6.64673
2.476	7.65381
2.4765	6.84814
2.477	8.35876
2.4775	4.93469
2.478	10.77576
2.4785	7.5531
2.479	9.46655
2.4795	9.76868
2.48	5.63965
2.4805	5.63965
2.481	12.78992
2.4815	5.43823
2.482	6.44531
2.4825	1.61133
2.483	0.90637
2.4835	2.61841
2.484	0.30212
2.4845	1.3092
2.485	5.23682
2.4855	2.61841
2.486	10.0708
2.4865	8.45947
2.487	8.15735
2.4875	12.48779
2.488	13.69629
2.4885	10.47363
2.489	8.8623
2.4895	10.87646
2.49	6.14319
2.4905	7.45239
2.491	6.3446
2.4915	7.04956
2.492	10.37292
2.4925	10.67505
2.493	9.97009
2.4935	4.02832
2.494	7.04956
2.4945	10.77576
2.495	6.44531
2.4955	7.5531
2.496	0.40283
2.4965	1.71204
2.497	4.83398
2.4975	2.81982
2.498	6.84814
2.4985	2.5177
2.499	-0.80566
2.4995	8.56018
2.5	5.33752
2.5005	9.26514
2.501	6.3446
2.5015	4.33044
2.502	10.47363
2.5025	9.97009
2.503	10.57434
2.5035	4.22974
2.504	2.81982
2.5045	5.13611
2.505	11.98425
2.5055	12.68921
2.506	7.45239
2.5065	5.63965
2.507	0.70496
2.5075	6.14319
2.508	4.12903
2.5085	-1.00708
2.509	7.85522
2.5095	8.15735
2.51	7.35168
2.5105	4.93469
2.511	3.8269
2.5115	1.10779
2.512	4.43115
2.5125	10.17151
2.513	6.94885
2.5135	5.33752
2.514	2.71912
2.5145	6.94885
2.515	5.74036
2.5155	3.62549
2.516	8.45947
2.5165	8.8623
2.517	7.5531
2.5175	5.74036
2.518	12.18567
2.5185	6.84814
2.519	8.66089
2.5195	9.76868
2.52	12.08496
2.5205	2.81982
2.521	4.22974
2.5215	6.74744
2.522	9.36584
2.5225	6.94885
2.523	4.63257
2.5235	4.33044
2.524	5.33752
2.5245	3.92761
2.525	5.13611
2.5255	-0.60425
2.526	2.41699
2.5265	4.53186
2.527	2.81982
2.5275	9.76868
2.528	2.01416
2.5285	4.53186
2.529	7.35168
2.5295	9.46655
2.53	7.15027
2.5305	5.33752
2.531	2.41699
2.5315	-1.10779
2.532	6.3446
2.5325	3.42407
2.533	1.91345
2.5335	4.83398
2.534	5.53894
2.5345	0.40283
2.535	2.71912
2.5355	2.31628
2.536	-2.21558
2.5365	2.21558
2.537	-0.80566
2.5375	1.61133
2.538	1.3092
2.5385	1.51062
2.539	3.12195
2.5395	3.7262
2.54	4.33044
2.5405	9.26514
2.541	2.92053
2.5415	3.32336
2.542	4.73328
2.5425	2.71912
2.543	4.73328
2.5435	4.73328
2.544	6.84814
2.5445	-0.40283
2.545	3.42407
2.5455	2.61841
2.546	-4.02832
2.5465	5.0354
2.547	5.33752
2.5475	1.3092
2.548	-1.91345
2.5485	4.22974
2.549	9.06372
2.5495	5.63965
2.55	4.53186
2.5505	9.46655
2.551	8.25806
2.5515	5.0354
2.552	6.84814
2.5525	2.92053
2.553	5.33752
2.5535	3.7262
2.554	2.21558
2.5545	2.71912
2.555	2.81982
2.5555	5.74036
2.556	3.92761
2.5565	3.62549
2.557	5.84106
2.5575	4.63257
2.558	9.76868
2.5585	12.18567
2.559	6.04248
2.5595	8.15735
2.56	-1.00708
2.5605	-1.10779
2.561	6.54602
2.5615	0
2.562	-4.93469
2.5625	2.71912
2.563	1.40991
2.5635	2.61841
2.564	-2.71912
2.5645	0.50354
2.565	-1.51062
2.5655	-1.51062
2.566	3.22266
2.5665	7.04956
2.567	0
2.5675	3.7262
2.568	3.02124
2.5685	9.16443
2.569	10.97717
2.5695	9.26514
2.57	11.78284
2.5705	7.35168
2.571	15.20691
2.5715	15.71045
2.572	11.07788
2.5725	11.07788
2.573	11.88354
2.5735	6.04248
2.574	1.71204
2.5745	6.74744
2.575	4.83398
2.5755	0.80566
2.576	3.22266
2.5765	7.5531
2.577	7.85522
2.5775	5.63965
2.578	4.43115
2.5785	3.92761
2.579	7.15027
2.5795	5.84106
2.58	7.85522
2.5805	4.93469
2.581	2.21558
2.5815	8.05664
2.582	5.94177
2.5825	2.5177
2.583	10.27222
2.5835	9.66797
2.584	5.74036
2.5845	3.42407
2.585	5.63965
2.5855	3.92761
2.586	9.36584
2.5865	6.44531
2.587	9.66797
2.5875	11.78284
2.588	7.85522
2.5885	7.5531
2.589	3.22266
2.5895	2.21558
2.59	2.5177
2.5905	7.45239
2.591	4.33044
2.5915	7.04956
2.592	7.45239
2.5925	8.8623
2.593	9.46655
2.5935	4.43115
2.594	6.04248
2.5945	5.33752
2.595	4.02832
2.5955	4.63257
2.596	10.47363
2.5965	4.12903
2.597	6.44531
2.5975	6.3446
2.598	6.54602
2.5985	9.36584
2.599	6.84814
2.5995	4.83398
2.6	5.63965
2.6005	5.63965
2.601	6.54602
2.6015	4.93469
2.602	9.26514
2.6025	10.17151
2.603	8.15735
2.6035	6.44531
2.604	14.50195
2.6045	7.65381
2.605	3.12195
2.6055	6.74744
2.606	6.94885
2.6065	3.92761
2.607	5.43823
2.6075	5.84106
2.608	4.53186
2.6085	4.12903
2.609	3.32336
2.6095	8.66089
2.61	10.57434
2.6105	13.797
2.611	7.45239
2.6115	1.3092
2.612	5.33752
2.6125	3.42407
2.613	2.01416
2.6135	6.64673
2.614	8.45947
2.6145	4.33044
2.615	5.63965
2.6155	5.33752
2.616	3.12195
2.6165	7.95593
2.617	4.12903
2.6175	3.62549
2.618	6.84814
2.6185	7.45239
2.619	6.84814
2.6195	3.22266
2.62	12.38708
2.6205	9.56726
2.621	6.94885
2.6215	1.61133
2.622	5.84106
2.6225	6.3446
2.623	5.63965
2.6235	5.33752
2.624	8.15735
2.6245	13.59558
2.625	7.85522
2.6255	6.3446
2.626	8.35876
2.6265	15.71045
2.627	14.90479
2.6275	12.68921
2.628	20.74585
2.6285	16.11328
2.629	13.797
2.6295	10.0708
2.63	9.26514
2.6305	12.68921
2.631	12.78992
2.6315	13.29346
2.632	7.65381
2.6325	10.47363
2.633	9.26514
2.6335	4.73328
2.634	9.36584
2.6345	2.11487
2.635	3.8269
2.6355	6.74744
2.636	7.25098
2.6365	6.64673
2.637	8.56018
2.6375	8.35876
2.638	7.95593
2.6385	8.35876
2.639	6.04248
2.6395	5.13611
2.64	4.63257
2.6405	7.95593
2.641	11.88354
2.6415	15.30762
2.642	11.88354
2.6425	11.17859
2.643	15.81116
2.6435	13.29346
2.644	10.47363
2.6445	6.84814
2.645	10.37292
2.6455	6.74744
2.646	2.81982
2.6465	3.32336
2.647	6.44531
2.6475	2.11487
2.648	10.17151
2.6485	8.56018
2.649	5.43823
2.6495	8.7616
2.65	6.3446
2.6505	4.53186
2.651	5.84106
2.6515	13.39417
2.652	5.43823
2.6525	4.02832
2.653	0.50354
2.6535	-2.41699
2.654	1.2085
2.6545	2.41699
2.655	10.77576
2.6555	9.76868
2.656	1.00708
2.6565	0.20142
2.657	8.96301
2.6575	10.77576
2.658	11.88354
2.6585	9.86938
2.659	14.30054
2.6595	8.25806
2.66	4.22974
2.6605	8.8623
2.661	9.26514
2.6615	4.63257
2.662	8.66089
2.6625	12.08496
2.663	10.87646
2.6635	8.96301
2.664	4.63257
2.6645	1.10779
2.665	5.23682
2.6655	9.97009
2.666	5.94177
2.6665	3.52478
2.667	4.02832
2.6675	1.10779
2.668	0.80566
2.6685	2.01416
2.669	5.84106
2.6695	9.46655
2.67	12.48779
2.6705	6.74744
2.671	8.05664
2.6715	7.25098
2.672	0.80566
2.6725	3.52478
2.673	4.83398
2.6735	6.3446
2.674	12.68921
2.6745	6.14319
2.675	3.42407
2.6755	7.45239
2.676	5.74036
2.6765	4.83398
2.677	6.2439
2.6775	10.17151
2.678	6.44531
2.6785	5.94177
2.679	7.65381
2.6795	6.94885
2.68	3.12195
2.6805	1.2085
2.681	2.31628
2.6815	3.7262
2.682	5.74036
2.6825	4.93469
2.683	13.99841
2.6835	12.28638
2.684	10.37292
2.6845	9.16443
2.685	10.57434
2.6855	8.56018
2.686	10.37292
2.6865	2.01416
2.687	4.93469
2.6875	5.84106
2.688	3.42407
2.6885	3.8269
2.689	8.56018
2.6895	8.25806
2.69	5.23682
2.6905	9.26514
2.691	9.06372
2.6915	7.25098
2.692	3.7262
2.6925	7.35168
2.693	6.54602
2.6935	5.0354
2.694	7.35168
2.6945	3.12195
2.695	9.16443
2.6955	8.25806
2.696	4.53186
2.6965	5.74036
2.697	5.43823
2.6975	1.3092
2.698	2.21558
2.6985	1.71204
2.699	0
2.6995	5.13611
2.7	2.81982
2.7005	7.5531
2.701	8.25806
2.7015	7.5531
2.702	8.66089
2.7025	6.74744
2.703	9.16443
2.7035	8.05664
2.704	2.81982
2.7045	6.84814
2.705	4.12903
2.7055	6.64673
2.706	8.8623
2.7065	8.45947
2.707	12.08496
2.7075	5.33752
2.708	8.56018
2.7085	3.7262
2.709	9.86938
2.7095	2.71912
2.71	2.01416
2.7105	4.53186
2.711	9.76868
2.7115	9.66797
2.712	10.57434
2.7125	14.60266
2.713	11.2793
2.7135	11.07788
2.714	12.68921
2.7145	8.15735
2.715	13.99841
2.7155	8.96301
2.716	13.29346
2.7165	9.06372
2.717	9.46655
2.7175	11.68213
2.718	15.20691
2.7185	8.45947
2.719	7.04956
2.7195	9.56726
2.72	7.35168
2.7205	10.37292
2.721	5.94177
2.7215	9.46655
2.722	2.31628
2.7225	5.94177
2.723	8.8623
2.7235	1.81274
2.724	0.40283
2.7245	2.92053
2.725	0.60425
2.7255	3.22266
2.726	2.01416
2.7265	5.23682
2.727	3.52478
2.7275	1.2085
2.728	3.62549
2.7285	-0.90637
2.729	0.40283
2.7295	-0.20142
2.73	4.93469
2.7305	5.53894
2.731	2.81982
2.7315	0.80566
2.732	-4.83398
2.7325	1.40991
2.733	2.5177
2.7335	6.44531
2.734	3.52478
2.7345	5.23682
2.735	8.8623
2.7355	0.70496
2.736	6.3446
2.7365	2.71912
2.737	-4.22974
2.7375	-0.60425
2.738	4.73328
2.7385	4.53186
2.739	3.12195
2.7395	-0.30212
2.74	5.63965
2.7405	6.2439
2.741	1.2085
2.7415	4.83398
2.742	4.63257
2.7425	1.61133
2.743	9.66797
2.7435	5.33752
2.744	6.64673
2.7445	4.63257
2.745	0.70496
2.7455	10.87646
2.746	4.93469
2.7465	1.00708
2.747	5.53894
2.7475	5.43823
2.748	3.22266
2.7485	1.71204
2.749	3.62549
2.7495	8.8623
2.75	9.36584
2.7505	-0.50354
2.751	3.52478
2.7515	4.12903
2.752	3.22266
2.7525	6.54602
2.753	8.45947
2.7535	13.29346
2.754	4.12903
2.7545	0.40283
2.755	7.15027
2.7555	8.45947
2.756	3.8269
2.7565	9.16443
2.757	6.44531
2.7575	3.22266
2.758	2.92053
2.7585	7.04956
2.759	10.37292
2.7595	2.71912
2.76	-2.01416
2.7605	-0.40283
2.761	1.91345
2.7615	1.81274
2.762	4.53186
2.7625	2.31628
2.763	3.42407
2.7635	10.47363
2.764	3.92761
2.7645	2.81982
2.765	2.61841
2.7655	4.43115
2.766	7.5531
2.7665	7.15027
2.767	4.73328
2.7675	3.42407
2.768	3.02124
2.7685	8.15735
2.769	6.94885
2.7695	9.06372
2.77	8.56018
2.7705	6.74744
2.771	3.22266
2.7715	0.10071
2.772	5.23682
2.7725	2.92053
2.773	1.2085
2.7735	0.20142
2.774	3.12195
2.7745	5.43823
2.775	4.93469
2.7755	-2.31628
2.776	2.21558
2.7765	6.2439
2.777	3.62549
2.7775	1.3092
2.778	6.54602
2.7785	8.8623
2.779	3.02124
2.7795	0.90637
2.78	5.13611
2.7805	6.04248
2.781	0.30212
2.7815	0.40283
2.782	8.66089
2.7825	3.62549
2.783	3.8269
2.7835	4.02832
2.784	9.86938
2.7845	2.01416
2.785	2.5177
2.7855	6.2439
2.786	0.70496
2.7865	2.11487
2.787	0.20142
2.7875	-1.71204
2.788	7.45239
2.7885	1.91345
2.789	7.25098
2.7895	0.60425
2.79	3.92761
2.7905	3.92761
2.791	6.3446
2.7915	1.71204
2.792	2.92053
2.7925	2.31628
2.793	3.7262
2.7935	1.81274
2.794	0.80566
2.7945	11.58142
2.795	6.44531
2.7955	4.53186
2.796	6.2439
2.7965	5.13611
2.797	4.93469
2.7975	-0.50354
2.798	3.52478
2.7985	3.92761
2.799	3.62549
2.7995	3.62549
2.8	6.14319
2.8005	7.85522
2.801	3.92761
2.8015	10.0708
2.802	5.63965
2.8025	0.50354
2.803	5.84106
2.8035	1.51062
2.804	1.61133
2.8045	-0.40283
2.805	0.30212
2.8055	0.80566
2.806	2.5177
2.8065	4.02832
2.807	2.31628
2.8075	2.71912
2.808	-2.21558
2.8085	3.32336
2.809	12.28638
2.8095	4.73328
2.81	3.62549
2.8105	2.5177
2.811	4.12903
2.8115	2.01416
2.812	2.41699
2.8125	-5.23682
2.813	-6.04248
2.8135	-3.52478
2.814	3.32336
2.8145	7.45239
2.815	3.52478
2.8155	3.8269
2.816	3.12195
2.8165	1.2085
2.817	3.22266
2.8175	1.00708
2.818	5.63965
2.8185	-0.40283
2.819	3.7262
2.8195	2.92053
2.82	3.7262
2.8205	5.94177
2.821	4.33044
2.8215	5.13611
2.822	8.25806
2.8225	2.01416
2.823	1.3092
2.8235	6.64673
2.824	1.51062
2.8245	8.05664
2.825	1.3092
2.8255	5.23682
2.826	3.8269
2.8265	1.91345
2.827	2.81982
2.8275	1.3092
2.828	1.2085
2.8285	4.22974
2.829	4.12903
2.8295	3.22266
2.83	5.13611
2.8305	4.53186
2.831	6.84814
2.8315	4.33044
2.832	6.04248
2.8325	2.11487
2.833	5.63965
2.8335	10.27222
2.834	4.02832
2.8345	4.63257
2.835	6.54602
2.8355	7.15027
2.836	4.12903
2.8365	1.51062
2.837	3.32336
2.8375	3.7262
2.838	0.50354
2.8385	5.0354
2.839	6.2439
2.8395	5.63965
2.84	4.63257
2.8405	8.7616
2.841	17.01965
2.8415	6.2439
2.842	8.45947
2.8425	5.63965
2.843	8.15735
2.8435	3.42407
2.844	6.74744
2.8445	5.84106
2.845	6.2439
2.8455	11.78284
2.846	8.05664
2.8465	8.96301
2.847	5.84106
2.8475	0.80566
2.848	10.27222
2.8485	9.97009
2.849	7.85522
2.8495	6.64673
2.85	6.64673
2.8505	4.73328
2.851	6.64673
2.8515	8.56018
2.852	2.41699
2.8525	4.63257
2.853	3.92761
2.8535	9.66797
2.854	9.66797
2.8545	6.94885
2.855	-0.20142
2.8555	4.12903
2.856	1.61133
2.8565	-1.71204
2.857	-0.40283
2.8575	6.04248
2.858	8.15735
2.8585	6.94885
2.859	6.2439
2.8595	6.3446
2.86	15.20691
2.8605	17.32178
2.861	19.33594
2.8615	12.18567
2.862	10.97717
2.8625	10.47363
2.863	8.96301
2.8635	10.57434
2.864	5.84106
2.8645	9.97009
2.865	9.97009
2.8655	4.02832
2.866	8.7616
2.8665	3.12195
2.867	4.02832
2.8675	3.32336
2.868	7.5531
2.8685	7.5531
2.869	7.45239
2.8695	7.35168
2.87	11.58142
2.8705	11.17859
2.871	11.78284
2.8715	9.36584
2.872	11.98425
2.8725	9.36584
2.873	13.29346
2.8735	6.54602
2.874	10.17151
2.8745	10.97717
2.875	4.12903
2.8755	5.63965
2.876	6.94885
2.8765	7.25098
2.877	6.54602
2.8775	2.92053
2.878	6.54602
2.8785	11.07788
2.879	8.66089
2.8795	2.92053
2.88	4.83398
2.8805	4.53186
2.881	-1.71204
2.8815	3.7262
2.882	2.81982
2.8825	7.35168
2.883	4.63257
2.8835	8.45947
2.884	5.23682
2.8845	4.53186
2.885	2.11487
2.8855	4.73328
2.886	1.61133
2.8865	1.10779
2.887	1.51062
2.8875	2.61841
2.888	8.35876
2.8885	1.2085
2.889	3.8269
2.8895	-0.90637
2.89	4.02832
2.8905	4.22974
2.891	1.3092
2.8915	-0.40283
2.892	3.02124
2.8925	3.02124
2.893	-1.2085
2.8935	2.01416
2.894	3.62549
2.8945	-2.31628
2.895	2.81982
2.8955	10.27222
2.896	6.04248
2.8965	8.7616
2.897	1.00708
2.8975	6.94885
2.898	3.02124
2.8985	5.94177
2.899	6.04248
2.8995	9.97009
2.9	5.13611
2.9005	5.33752
2.901	8.56018
2.9015	6.94885
2.902	1.61133
2.9025	11.17859
2.903	12.5885
2.9035	4.63257
2.904	2.21558
2.9045	6.3446
2.905	1.81274
2.9055	4.43115
2.906	3.92761
2.9065	7.95593
2.907	6.14319
2.9075	0
2.908	0.60425
2.9085	0.10071
2.909	-2.01416
2.9095	-0.90637
2.91	4.22974
2.9105	0.90637
2.911	-1.00708
2.9115	-2.5177
2.912	6.3446
2.9125	0.90637
2.913	4.83398
2.9135	6.54602
2.914	5.0354
2.9145	0.30212
2.915	2.21558
2.9155	5.0354
2.916	0.60425
2.9165	2.31628
2.917	5.94177
2.9175	5.43823
2.918	10.0708
2.9185	7.15027
2.919	7.45239
2.9195	7.35168
2.92	3.02124
2.9205	3.12195
2.921	10.0708
2.9215	7.15027
2.922	9.66797
2.9225	0.30212
2.923	4.63257
2.9235	5.63965
2.924	5.63965
2.9245	6.84814
2.925	6.14319
2.9255	12.18567
2.926	10.67505
2.9265	4.43115
2.927	6.54602
2.9275	1.51062
2.928	10.97717
2.9285	6.94885
2.929	6.2439
2.9295	2.5177
2.93	2.01416
2.9305	7.45239
2.931	5.94177
2.9315	1.2085
2.932	8.05664
2.9325	6.2439
2.933	-4.33044
2.9335	0
2.934	3.62549
2.9345	7.45239
2.935	5.0354
2.9355	1.10779
2.936	2.31628
2.9365	3.12195
2.937	-2.71912
2.9375	-2.71912
2.938	6.54602
2.9385	4.43115
2.939	3.22266
2.9395	1.40991
2.94	-1.2085
2.9405	-3.62549
2.941	3.52478
2.9415	-1.00708
2.942	-0.50354
2.9425	7.04956
2.943	3.22266
2.9435	2.21558
2.944	1.40991
2.9445	1.2085
2.945	2.61841
2.9455	1.91345
2.946	2.21558
2.9465	-1.00708
2.947	-0.10071
2.9475	1.40991
2.948	2.21558
2.9485	4.43115
2.949	7.04956
2.9495	10.17151
2.95	2.71912
2.9505	7.5531
2.951	5.53894
2.9515	4.63257
2.952	9.36584
2.9525	8.7616
2.953	16.51611
2.9535	12.99133
2.954	13.797
2.9545	8.56018
2.955	8.8623
2.9555	15.30762
2.956	16.41541
2.9565	18.73169
2.957	16.11328
2.9575	12.18567
2.958	11.68213
2.9585	11.17859
2.959	12.18567
2.9595	11.98425
2.96	10.97717
2.9605	13.89771
2.961	16.21399
2.9615	20.44373
2.962	18.32886
2.9625	14.50195
2.963	18.12744
2.9635	14.40125
2.964	15.50903
2.9645	12.68921
2.965	16.11328
2.9655	9.76868
2.966	13.09204
2.9665	15.1062
2.967	17.32178
2.9675	9.76868
2.968	12.5885
2.9685	12.99133
2.969	8.96301
2.9695	7.75452
2.97	7.25098
2.9705	5.43823
2.971	5.33752
2.9715	10.57434
2.972	5.63965
2.9725	5.43823
2.973	10.17151
2.9735	7.25098
2.974	7.85522
2.9745	3.52478
2.975	3.7262
2.9755	1.91345
2.976	6.64673
2.9765	1.10779
2.977	2.31628
2.9775	1.71204
2.978	-0.10071
2.9785	-3.7262
2.979	-0.30212
2.9795	-0.50354
2.98	-0.70496
2.9805	0.80566
2.981	-1.51062
2.9815	1.51062
2.982	-1.91345
2.9825	-2.92053
2.983	5.43823
2.9835	0.60425
2.984	-3.42407
2.9845	6.54602
2.985	2.61841
2.9855	9.36584
2.986	2.61841
2.9865	0.90637
2.987	4.63257
2.9875	3.7262
2.988	2.11487
2.9885	4.93469
2.989	-1.61133
2.9895	0.70496
2.99	4.33044
2.9905	4.33044
2.991	2.31628
2.9915	2.71912
2.992	3.02124
2.9925	10.0708
2.993	6.74744
2.9935	0.70496
2.994	4.83398
2.9945	1.2085
2.995	5.53894
2.9955	5.33752
2.996	5.63965
2.9965	0.70496
2.997	9.97009
2.9975	8.96301
2.998	10.57434
2.9985	2.71912
2.999	2.01416
2.9995	1.51062
3	2.11487
3.0005	10.37292
3.001	5.94177
3.0015	5.84106
3.002	4.53186
3.0025	6.54602
3.003	3.02124
3.0035	4.73328
3.004	1.91345
3.0045	10.0708
3.005	8.05664
3.0055	9.56726
3.006	7.95593
3.0065	10.67505
3.007	3.7262
3.0075	5.43823
3.008	7.35168
3.0085	0.70496
3.009	2.21558
3.0095	9.56726
3.01	4.12903
3.0105	0.40283
3.011	0.90637
3.0115	1.40991
3.012	-0.10071
3.0125	-4.93469
3.013	-0.40283
3.0135	-1.2085
3.014	-3.42407
3.0145	-3.42407
3.015	-4.73328
3.0155	-3.22266
3.016	-1.51062
3.0165	-1.51062
3.017	-5.43823
3.0175	-0.50354
3.018	0.10071
3.0185	1.2085
3.019	4.22974
3.0195	7.85522
3.02	5.43823
3.0205	1.81274
3.021	3.52478
3.0215	7.35168
3.022	9.56726
3.0225	6.04248
3.023	3.62549
3.0235	6.84814
3.024	6.3446
3.0245	7.04956
3.025	6.2439
3.0255	7.45239
3.026	0.40283
3.0265	1.91345
3.027	6.54602
3.0275	9.56726
3.028	7.85522
3.0285	5.13611
3.029	6.14319
3.0295	0.90637
3.03	1.40991
3.0305	0.50354
3.031	12.08496
3.0315	8.45947
3.032	10.97717
3.0325	6.3446
3.033	3.22266
3.0335	-1.3092
3.034	2.81982
3.0345	0.30212
3.035	2.92053
3.0355	-0.20142
3.036	2.11487
3.0365	3.7262
3.037	5.13611
3.0375	5.43823
3.038	-2.81982
3.0385	-4.53186
3.039	4.63257
3.0395	3.52478
3.04	6.94885
3.0405	10.17151
3.041	9.76868
3.0415	8.05664
3.042	6.3446
3.0425	8.7616
3.043	8.45947
3.0435	9.86938
3.044	8.25806
3.0445	18.02673
3.045	13.39417
3.0455	15.30762
3.046	17.01965
3.0465	9.66797
3.047	7.95593
3.0475	10.77576
3.048	5.94177
3.0485	8.96301
3.049	8.45947
3.0495	2.21558
3.05	6.84814
3.0505	2.5177
3.051	5.84106
3.0515	6.44531
3.052	7.15027
3.0525	6.74744
3.053	2.5177
3.0535	2.21558
3.054	4.83398
3.0545	7.75452
3.055	7.25098
3.0555	4.33044
3.056	6.04248
3.0565	-1.2085
3.057	-3.8269
3.0575	-2.92053
3.058	7.15027
3.0585	5.84106
3.059	10.27222
3.0595	12.78992
3.06	13.797
3.0605	17.42249
3.061	15.30762
3.0615	10.57434
3.062	15.00549
3.0625	9.06372
3.063	6.04248
3.0635	2.11487
3.064	9.56726
3.0645	6.84814
3.065	9.26514
3.0655	8.35876
3.066	0.90637
3.0665	6.64673
3.067	3.02124
3.0675	2.41699
3.068	4.02832
3.0685	4.12903
3.069	-1.61133
3.0695	5.94177
3.07	-5.0354
3.0705	1.61133
3.071	1.3092
3.0715	-5.63965
3.072	-0.70496
3.0725	0.30212
3.073	-5.53894
3.0735	-1.61133
3.074	3.52478
3.0745	6.14319
3.075	5.0354
3.0755	3.02124
3.076	5.94177
3.0765	5.63965
3.077	7.04956
3.0775	3.42407
3.078	-0.40283
3.0785	3.62549
3.079	5.74036
3.0795	2.5177
3.08	5.84106
3.0805	11.68213
3.081	8.25806
3.0815	7.04956
3.082	7.75452
3.0825	11.58142
3.083	11.17859
3.0835	15.30762
3.084	11.68213
3.0845	14.70337
3.085	16.61682
3.0855	17.42249
3.086	11.88354
3.0865	15.20691
3.087	7.85522
3.0875	9.66797
3.088	5.94177
3.0885	4.73328
3.089	10.27222
3.0895	8.7616
3.09	5.84106
3.0905	7.65381
3.091	5.23682
3.0915	2.61841
3.092	-1.40991
3.0925	2.21558
3.093	3.92761
3.0935	-2.92053
3.094	1.10779
3.0945	7.25098
3.095	7.35168
3.0955	0.10071
3.096	6.14319
3.0965	3.42407
3.097	6.3446
3.0975	4.43115
3.098	9.06372
3.0985	7.45239
3.099	1.40991
3.0995	-0.30212
3.1	8.05664
3.1005	4.83398
3.101	-0.10071
3.1015	-0.80566
3.102	2.01416
3.1025	-4.22974
3.103	2.41699
3.1035	4.93469
3.104	-2.11487
3.1045	-4.53186
3.105	-1.91345
3.1055	-3.12195
3.106	-3.42407
3.1065	-3.02124
3.107	-4.53186
3.1075	-3.92761
3.108	3.22266
3.1085	3.12195
3.109	1.71204
3.1095	-1.10779
3.11	-0.10071
3.1105	1.61133
3.111	1.81274
3.1115	2.41699
3.112	-2.71912
3.1125	3.92761
3.113	10.77576
3.1135	9.66797
3.114	10.47363
3.1145	3.32336
3.115	4.73328
3.1155	1.40991
3.116	0.40283
3.1165	0.70496
3.117	4.63257
3.1175	-1.00708
3.118	-4.73328
3.1185	0.30212
3.119	-5.33752
3.1195	-3.92761
3.12	-1.51062
3.1205	-1.81274
3.121	-5.43823
3.1215	0.80566
3.122	3.8269
3.1225	-1.71204
3.123	6.14319
3.1235	11.78284
3.124	18.22815
3.1245	16.71753
3.125	15.00549
3.1255	12.99133
3.126	22.96143
3.1265	22.05505
3.127	24.67346
3.1275	17.42249
3.128	16.11328
3.1285	21.45081
3.129	16.51611
3.1295	14.60266
3.13	11.78284
3.1305	16.3147
3.131	9.86938
3.1315	6.64673
3.132	6.54602
3.1325	0
3.133	3.32336
3.1335	7.95593
3.134	6.04248
3.1345	5.84106
3.135	9.16443
3.1355	0.60425
3.136	6.44531
3.1365	6.44531
3.137	4.02832
3.1375	2.71912
3.138	5.43823
3.1385	7.45239
3.139	8.66089
3.1395	6.84814
3.14	1.91345
3.1405	3.52478
3.141	5.13611
3.1415	9.26514
3.142	3.7262
3.1425	4.53186
3.143	0.40283
3.1435	1.40991
3.144	-1.10779
3.1445	3.62549
3.145	3.42407
3.1455	5.33752
3.146	0.40283
3.1465	7.65381
3.147	7.15027
3.1475	10.47363
3.148	6.94885
3.1485	8.15735
3.149	3.52478
3.1495	4.12903
3.15	9.86938
3.1505	8.66089
3.151	5.94177
3.1515	4.73328
3.152	6.3446
3.1525	4.83398
3.153	7.5531
3.1535	2.61841
3.154	8.35876
3.1545	11.38
3.155	10.67505
3.1555	2.61841
3.156	8.56018
3.1565	10.37292
3.157	9.56726
3.1575	5.94177
3.158	9.76868
3.1585	9.86938
3.159	1.91345
3.1595	8.45947
3.16	4.02832
3.1605	4.33044
3.161	5.13611
3.1615	5.53894
3.162	0.30212
3.1625	0.90637
3.163	3.42407
3.1635	-2.71912
3.164	1.10779
3.1645	0.40283
3.165	3.52478
3.1655	-1.3092
3.166	2.61841
3.1665	2.92053
3.167	6.54602
3.1675	3.02124
3.168	3.62549
3.1685	4.33044
3.169	9.86938
3.1695	6.84814
3.17	0.10071
3.1705	6.74744
3.171	5.94177
3.1715	3.52478
3.172	6.2439
3.1725	12.68921
3.173	14.60266
3.1735	11.98425
3.174	8.7616
3.1745	7.25098
3.175	11.07788
3.1755	9.66797
3.176	6.2439
3.1765	5.13611
3.177	6.44531
3.1775	7.85522
3.178	3.8269
3.1785	3.92761
3.179	1.00708
3.1795	2.81982
3.18	-2.21558
3.1805	2.41699
3.181	4.43115
3.1815	2.41699
3.182	0.20142
3.1825	3.32336
3.183	6.44531
3.1835	10.27222
3.184	7.95593
3.1845	10.97717
3.185	7.04956
3.1855	5.84106
3.186	9.97009
3.1865	7.15027
3.187	10.67505
3.1875	13.59558
3.188	9.97009
3.1885	14.70337
3.189	12.99133
3.1895	11.17859
3.19	12.5885
3.1905	9.36584
3.191	8.66089
3.1915	2.41699
3.192	6.74744
3.1925	9.06372
3.193	8.66089
3.1935	5.23682
3.194	8.15735
3.1945	3.42407
3.195	5.84106
3.1955	5.84106
3.196	10.77576
3.1965	7.25098
3.197	-1.3092
3.1975	6.54602
3.198	7.25098
3.1985	6.94885
3.199	2.71912
3.1995	5.0354
3.2	5.0354
3.2005	3.12195
3.201	1.00708
3.2015	4.53186
3.202	1.71204
3.2025	-5.33752
3.203	2.92053
3.2035	0.20142
3.204	3.02124
3.2045	3.92761
3.205	5.43823
3.2055	-0.40283
3.206	2.01416
3.2065	-1.00708
3.207	-0.50354
3.2075	-4.63257
3.208	7.04956
3.2085	5.84106
3.209	9.06372
3.2095	5.63965
3.21	6.64673
3.2105	13.69629
3.211	9.46655
3.2115	7.65381
3.212	9.97009
3.2125	13.69629
3.213	10.97717
3.2135	11.68213
3.214	7.15027
3.2145	6.54602
3.215	6.2439
3.2155	6.74744
3.216	6.3446
3.2165	4.22974
3.217	3.8269
3.2175	8.25806
3.218	5.13611
3.2185	8.15735
3.219	5.84106
3.2195	3.02124
3.22	1.2085
3.2205	3.12195
3.221	3.7262
3.2215	2.81982
3.222	4.73328
3.2225	13.99841
3.223	15.20691
3.2235	11.58142
3.224	9.86938
3.2245	9.76868
3.225	8.96301
3.2255	5.53894
3.226	10.0708
3.2265	6.3446
3.227	6.64673
3.2275	9.76868
3.228	6.3446
3.2285	3.92761
3.229	6.74744
3.2295	8.45947
3.23	7.25098
3.2305	4.22974
3.231	5.74036
3.2315	3.42407
3.232	2.5177
3.2325	2.11487
3.233	2.21558
3.2335	2.81982
3.234	2.41699
3.2345	3.02124
3.235	12.89062
3.2355	13.39417
3.236	7.5531
3.2365	11.2793
3.237	8.8623
3.2375	8.8623
3.238	10.87646
3.2385	10.57434
3.239	7.65381
3.2395	8.7616
3.24	5.13611
3.2405	2.61841
3.241	2.41699
3.2415	4.22974
3.242	8.05664
3.2425	1.51062
3.243	4.43115
3.2435	1.40991
3.244	0.90637
3.2445	5.94177
3.245	-0.30212
3.2455	3.62549
3.246	-0.50354
3.2465	-0.10071
3.247	-1.61133
3.2475	4.53186
3.248	12.18567
3.2485	10.27222
3.249	12.48779
3.2495	9.97009
3.25	11.78284
3.2505	6.74744
3.251	6.64673
3.2515	3.32336
3.252	8.35876
3.2525	13.99841
3.253	10.37292
3.2535	6.2439
3.254	7.5531
3.2545	4.83398
3.255	2.5177
3.2555	2.31628
3.256	5.84106
3.2565	-6.3446
3.257	-7.35168
3.2575	-3.92761
3.258	-6.2439
3.2585	-1.81274
3.259	-3.92761
3.2595	-1.2085
3.26	5.63965
3.2605	3.62549
3.261	3.02124
3.2615	3.92761
3.262	3.92761
3.2625	6.74744
3.263	1.51062
3.2635	11.38
3.264	11.17859
3.2645	15.71045
3.265	11.98425
3.2655	11.88354
3.266	5.63965
3.2665	7.5531
3.267	8.05664
3.2675	9.36584
3.268	9.86938
3.2685	10.77576
3.269	3.32336
3.2695	2.21558
3.27	1.91345
3.2705	1.81274
3.271	3.12195
3.2715	-3.52478
3.272	-3.32336
3.2725	-4.93469
3.273	-9.86938
3.2735	-6.04248
3.274	-7.35168
3.2745	-8.05664
3.275	-5.53894
3.2755	-2.01416
3.276	0.70496
3.2765	3.22266
3.277	2.5177
3.2775	3.8269
3.278	9.26514
3.2785	7.5531
3.279	12.48779
3.2795	12.5885
3.28	11.68213
3.2805	10.87646
3.281	16.21399
3.2815	11.58142
3.282	12.68921
3.2825	23.8678
3.283	22.96143
3.2835	12.5885
3.284	12.68921
3.2845	11.07788
3.285	13.797
3.2855	11.2793
3.286	7.75452
3.2865	9.97009
3.287	1.91345
3.2875	2.21558
3.288	1.3092
3.2885	4.12903
3.289	5.63965
3.2895	3.7262
3.29	9.36584
3.2905	3.02124
3.291	4.73328
3.2915	4.83398
3.292	2.92053
3.2925	0.20142
3.293	0.80566
3.2935	-2.71912
3.294	0.80566
3.2945	1.10779
3.295	1.10779
3.2955	0.50354
3.296	5.63965
3.2965	3.12195
3.297	3.7262
3.2975	7.5531
3.298	11.17859
3.2985	10.17151
3.299	8.56018
3.2995	11.48071
3.3	9.97009
3.3005	8.7616
3.301	10.57434
3.3015	2.92053
3.302	0.30212
3.3025	-4.22974
3.303	-3.62549
3.3035	-2.92053
3.304	-7.25098
3.3045	-0.80566
3.305	-2.71912
3.3055	-2.01416
3.306	-1.00708
3.3065	4.33044
3.307	5.23682
3.3075	8.96301
3.308	11.68213
3.3085	12.48779
3.309	6.94885
3.3095	10.77576
3.31	5.63965
3.3105	3.8269
3.311	7.25098
3.3115	7.35168
3.312	8.66089
3.3125	7.15027
3.313	10.57434
3.3135	7.25098
3.314	7.5531
3.3145	4.33044
3.315	4.73328
3.3155	4.33044
3.316	2.31628
3.3165	9.56726
3.317	7.45239
3.3175	9.86938
3.318	12.28638
3.3185	6.84814
3.319	6.04248
3.3195	7.85522
3.32	6.04248
3.3205	6.2439
3.321	6.64673
3.3215	5.84106
3.322	11.78284
3.3225	9.06372
3.323	9.16443
3.3235	5.74036
3.324	6.04248
3.3245	3.52478
3.325	3.42407
3.3255	2.81982
3.326	-0.60425
3.3265	-1.3092
3.327	-1.2085
3.3275	-3.7262
3.328	-4.02832
3.3285	3.52478
3.329	3.12195
3.3295	0.80566
3.33	-4.22974
3.3305	1.00708
3.331	3.42407
3.3315	2.61841
3.332	2.81982
3.3325	11.98425
3.333	14.19983
3.3335	20.94727
3.334	29.70886
3.3345	27.09045
3.335	27.39258
3.3355	27.39258
3.336	27.89612
3.3365	21.45081
3.337	23.16284
3.3375	27.89612
3.338	16.91895
3.3385	16.41541
3.339	15.60974
3.3395	19.43665
3.34	16.3147
3.3405	16.81824
3.341	8.45947
3.3415	6.84814
3.342	9.46655
3.3425	7.5531
3.343	9.56726
3.3435	7.5531
3.344	9.06372
3.3445	12.38708
3.345	10.87646
3.3455	4.73328
3.346	2.01416
3.3465	-0.30212
3.347	4.12903
3.3475	5.74036
3.348	5.74036
3.3485	2.01416
3.349	-3.42407
3.3495	0
3.35	-4.63257
3.3505	0.20142
3.351	-2.81982
3.3515	-5.94177
3.352	-1.00708
3.3525	-6.2439
3.353	1.10779
3.3535	-1.71204
3.354	-0.60425
3.3545	1.91345
3.355	-3.42407
3.3555	-7.5531
3.356	-5.13611
3.3565	-9.16443
3.357	-11.07788
3.3575	-4.53186
3.358	-1.40991
3.3585	-5.23682
3.359	1.2085
3.3595	0.40283
3.36	0.40283
3.3605	0.50354
3.361	5.43823
3.3615	-1.91345
3.362	3.7262
3.3625	5.13611
3.363	2.61841
3.3635	4.02832
3.364	5.0354
3.3645	10.97717
3.365	7.45239
3.3655	10.67505
3.366	17.52319
3.3665	19.33594
3.367	15.60974
3.3675	13.39417
3.368	14.90479
3.3685	20.24231
3.369	15.1062
3.3695	11.2793
3.37	15.50903
3.3705	11.58142
3.371	11.68213
3.3715	10.17151
3.372	12.28638
3.3725	12.5885
3.373	19.33594
3.3735	11.78284
3.374	13.39417
3.3745	12.08496
3.375	8.96301
3.3755	12.48779
3.376	12.18567
3.3765	11.2793
3.377	4.63257
3.3775	-1.91345
3.378	2.5177
3.3785	-4.83398
3.379	2.81982
3.3795	-2.61841
3.38	2.41699
3.3805	0.80566
3.381	2.31628
3.3815	-3.32336
3.382	0
3.3825	2.81982
3.383	-4.02832
3.3835	-4.73328
3.384	0.30212
3.3845	1.61133
3.385	-3.8269
3.3855	4.33044
3.386	8.25806
3.3865	6.3446
3.387	12.38708
3.3875	11.58142
3.388	17.12036
3.3885	11.58142
3.389	9.16443
3.3895	9.76868
3.39	6.94885
3.3905	3.32336
3.391	6.04248
3.3915	8.25806
3.392	12.18567
3.3925	15.91187
3.393	13.49487
3.3935	7.15027
3.394	4.43115
3.3945	5.23682
3.395	1.10779
3.3955	-1.71204
3.396	6.64673
3.3965	3.42407
3.397	4.93469
3.3975	-0.20142
3.398	5.33752
3.3985	2.92053
3.399	5.94177
3.3995	10.97717
3.4	-2.5177
3.4005	-5.84106
3.401	-6.44531
3.4015	-9.36584
3.402	-7.45239
3.4025	-9.06372
3.403	-8.56018
3.4035	-5.74036
3.404	-0.50354
3.4045	-4.22974
3.405	-0.10071
3.4055	4.93469
3.406	9.16443
3.4065	13.39417
3.407	14.40125
3.4075	22.86072
3.408	25.68054
3.4085	23.16284
3.409	20.1416
3.4095	15.50903
3.41	17.6239
3.4105	15.71045
3.411	17.32178
3.4115	10.87646
3.412	15.30762
3.4125	7.85522
3.413	9.97009
3.4135	12.08496
3.414	4.02832
3.4145	9.76868
3.415	2.5177
3.4155	3.42407
3.416	1.91345
3.4165	3.7262
3.417	0.30212
3.4175	3.42407
3.418	5.0354
3.4185	-2.92053
3.419	-1.3092
3.4195	-4.83398
3.42	-3.52478
3.4205	-1.91345
3.421	2.21558
3.4215	5.33752
3.422	8.56018
3.4225	12.5885
3.423	9.36584
3.4235	8.66089
3.424	12.89062
3.4245	7.75452
3.425	5.23682
3.4255	9.66797
3.426	7.65381
3.4265	-1.81274
3.427	2.41699
3.4275	-2.41699
3.428	-1.91345
3.4285	-4.83398
3.429	-2.71912
3.4295	-1.71204
3.43	-2.71912
3.4305	-5.33752
3.431	-2.11487
3.4315	-6.84814
3.432	-8.25806
3.4325	-7.85522
3.433	2.71912
3.4335	-2.5177
3.434	6.2439
3.4345	3.62549
3.435	5.53894
3.4355	8.66089
3.436	11.07788
3.4365	18.53027
3.437	18.22815
3.4375	19.33594
3.438	16.41541
3.4385	11.78284
3.439	12.48779
3.4395	4.73328
3.44	-2.11487
3.4405	0.30212
3.441	-2.71912
3.4415	2.5177
3.442	1.71204
3.4425	-4.12903
3.443	-0.30212
3.4435	-0.70496
3.444	-3.22266
3.4445	-7.45239
3.445	-8.8623
3.4455	-1.61133
3.446	-4.02832
3.4465	-9.46655
3.447	-2.5177
3.4475	0.90637
3.448	-5.0354
3.4485	2.11487
3.449	7.85522
3.4495	11.58142
3.45	15.91187
3.4505	11.88354
3.451	14.60266
3.4515	18.02673
3.452	17.52319
3.4525	14.50195
3.453	2.71912
3.4535	7.15027
3.454	2.01416
3.4545	-0.10071
3.455	-0.60425
3.4555	-5.43823
3.456	-7.04956
3.4565	6.14319
3.457	-2.81982
3.4575	10.77576
3.458	7.85522
3.4585	8.96301
3.459	7.75452
3.4595	6.64673
3.46	2.92053
3.4605	3.52478
3.461	4.43115
3.4615	0.90637
3.462	4.73328
3.4625	7.15027
3.463	6.2439
3.4635	9.06372
3.464	5.53894
3.4645	3.02124
3.465	6.74744
3.4655	5.63965
3.466	2.21558
3.4665	5.53894
3.467	4.53186
3.4675	4.73328
3.468	5.53894
3.4685	4.93469
3.469	2.41699
3.4695	5.23682
3.47	4.53186
3.4705	6.2439
3.471	3.92761
3.4715	10.57434
3.472	6.84814
3.4725	11.58142
3.473	11.2793
3.4735	13.39417
3.474	15.60974
3.4745	15.00549
3.475	15.50903
3.4755	8.25806
3.476	13.49487
3.4765	12.68921
3.477	15.40833
3.4775	8.35876
3.478	2.61841
3.4785	4.02832
3.479	4.93469
3.4795	10.97717
3.48	8.8623
3.4805	7.45239
3.481	5.43823
3.4815	7.85522
3.482	12.28638
3.4825	12.08496
3.483	6.54602
3.4835	7.15027
3.484	2.31628
3.4845	6.84814
3.485	6.54602
3.4855	5.84106
3.486	4.53186
3.4865	-5.94177
3.487	-1.2085
3.4875	-3.22266
3.488	-1.81274
3.4885	-2.5177
3.489	-3.8269
3.4895	0.30212
3.49	-4.43115
3.4905	0.80566
3.491	-1.81274
3.4915	-8.7616
3.492	-7.45239
3.4925	-3.7262
3.493	-2.31628
3.4935	0.90637
3.494	0.50354
3.4945	13.49487
3.495	12.18567
3.4955	9.06372
3.496	12.28638
3.4965	6.14319
3.497	8.25806
3.4975	9.16443
3.498	2.01416
3.4985	1.61133
3.499	5.63965
3.4995	7.85522
3.5	16.61682
3.5005	13.29346
3.501	21.45081
3.5015	15.00549
3.502	16.61682
3.5025	16.61682
3.503	15.60974
3.5035	18.12744
3.504	11.2793
3.5045	13.29346
3.505	13.19275
3.5055	11.98425
3.506	10.87646
3.5065	5.23682
3.507	8.15735
3.5075	5.63965
3.508	-1.00708
3.5085	-2.11487
3.509	4.83398
3.5095	2.01416
3.51	0.70496
3.5105	-1.81274
3.511	-2.71912
3.5115	-3.12195
3.512	-5.23682
3.5125	-1.61133
3.513	-2.61841
3.5135	-1.40991
3.514	-3.02124
3.5145	-0.60425
3.515	8.56018
3.5155	14.80408
3.516	13.797
3.5165	19.33594
3.517	9.36584
3.5175	7.5531
3.518	14.30054
3.5185	10.67505
3.519	7.95593
3.5195	8.8623
3.52	4.83398
3.5205	6.44531
3.521	8.45947
3.5215	1.71204
3.522	-1.51062
3.5225	7.25098
3.523	8.66089
3.5235	7.75452
3.524	15.20691
3.5245	14.30054
3.525	17.6239
3.5255	18.93311
3.526	17.42249
3.5265	11.2793
3.527	9.97009
3.5275	13.99841
3.528	16.61682
3.5285	7.85522
3.529	7.75452
3.5295	10.0708
3.53	13.99841
3.5305	8.25806
3.531	5.63965
3.5315	4.83398
3.532	5.84106
3.5325	2.81982
3.533	0.80566
3.5335	2.61841
3.534	3.12195
3.5345	3.42407
3.535	7.04956
3.5355	1.91345
3.536	2.81982
3.5365	-0.50354
3.537	0
3.5375	-3.8269
3.538	-6.84814
3.5385	-2.71912
3.539	-2.81982
3.5395	-1.51062
3.54	-2.41699
3.5405	-0.20142
3.541	-0.90637
3.5415	0.20142
3.542	6.3446
3.5425	9.46655
3.543	12.68921
3.5435	14.19983
3.544	8.25806
3.5445	9.06372
3.545	11.78284
3.5455	10.17151
3.546	12.48779
3.5465	8.8623
3.547	1.2085
3.5475	5.63965
3.548	4.93469
3.5485	3.02124
3.549	4.22974
3.5495	6.54602
3.55	-1.2085
3.5505	1.61133
3.551	-3.7262
3.5515	4.63257
3.552	2.31628
3.5525	-6.94885
3.553	-2.5177
3.5535	-1.00708
3.554	3.32336
3.5545	6.44531
3.555	3.22266
3.5555	0.60425
3.556	6.74744
3.5565	5.13611
3.557	7.45239
3.5575	0.20142
3.558	-0.90637
3.5585	2.61841
3.559	-0.20142
3.5595	7.25098
3.56	10.17151
3.5605	11.78284
3.561	15.00549
3.5615	12.28638
3.562	18.42957
3.5625	15.91187
3.563	9.56726
3.5635	9.66797
3.564	14.09912
3.5645	15.60974
3.565	13.29346
3.5655	11.68213
3.566	7.65381
3.5665	11.78284
3.567	14.09912
3.5675	13.89771
3.568	19.83948
3.5685	17.22107
3.569	9.76868
3.5695	8.45947
3.57	9.86938
3.5705	14.60266
3.571	11.17859
3.5715	12.89062
3.572	8.15735
3.5725	11.48071
3.573	2.41699
3.5735	10.47363
3.574	2.31628
3.5745	2.31628
3.575	5.23682
3.5755	2.21558
3.576	0.90637
3.5765	-2.81982
3.577	-2.21558
3.5775	-6.64673
3.578	-7.45239
3.5785	0.10071
3.579	0.80566
3.5795	-0.20142
3.58	1.2085
3.5805	3.92761
3.581	-1.91345
3.5815	0.40283
3.582	4.83398
3.5825	3.22266
3.583	-1.40991
3.5835	1.40991
3.584	9.56726
3.5845	1.61133
3.585	3.8269
3.5855	4.93469
3.586	5.23682
3.5865	4.73328
3.587	3.92761
3.5875	2.5177
3.588	-0.30212
3.5885	-0.60425
3.589	-0.20142
3.5895	1.10779
3.59	2.71912
3.5905	6.94885
3.591	7.5531
3.5915	3.12195
3.592	1.91345
3.5925	-3.7262
3.593	-0.70496
3.5935	-0.50354
3.594	5.33752
3.5945	14.70337
3.595	17.22107
3.5955	25.37842
3.596	27.59399
3.5965	32.02515
3.597	34.54285
3.5975	30.2124
3.598	24.77417
3.5985	24.06921
3.599	19.73877
3.5995	13.99841
3.6	12.18567
3.6005	9.97009
3.601	6.2439
3.6015	10.47363
3.602	5.63965
3.6025	4.83398
3.603	2.81982
3.6035	5.74036
3.604	-4.73328
3.6045	-0.50354
3.605	0
3.6055	-6.64673
3.606	-0.60425
3.6065	-6.64673
3.607	-9.56726
3.6075	-5.53894
3.608	-7.75452
3.6085	-12.99133
3.609	-9.06372
3.6095	-18.63098
3.61	-14.09912
3.6105	-15.60974
3.611	-15.50903
3.6115	-11.48071
3.612	-13.49487
3.6125	-17.42249
3.613	-11.17859
3.6135	-8.66089
3.614	-7.15027
3.6145	6.84814
3.615	17.6239
3.6155	24.47205
3.616	30.41382
3.6165	36.65771
3.617	34.54285
3.6175	32.12585
3.618	26.58691
3.6185	17.92603
3.619	17.42249
3.6195	18.32886
3.62	14.80408
3.6205	12.68921
3.621	5.94177
3.6215	11.58142
3.622	8.05664
3.6225	8.35876
3.623	14.80408
3.6235	6.54602
3.624	7.85522
3.6245	4.33044
3.625	7.95593
3.6255	9.56726
3.626	10.0708
3.6265	9.06372
3.627	7.65381
3.6275	5.63965
3.628	9.76868
3.6285	12.08496
3.629	10.67505
3.6295	10.0708
3.63	14.19983
3.6305	16.61682
3.631	20.34302
3.6315	17.92603
3.632	11.17859
3.6325	13.99841
3.633	20.74585
3.6335	7.85522
3.634	13.59558
3.6345	11.38
3.635	10.17151
3.6355	10.0708
3.636	7.75452
3.6365	7.5531
3.637	10.77576
3.6375	11.07788
3.638	2.92053
3.6385	6.2439
3.639	5.53894
3.6395	2.92053
3.64	7.04956
3.6405	6.54602
3.641	4.93469
3.6415	10.27222
3.642	8.15735
3.6425	7.85522
3.643	5.74036
3.6435	-0.30212
3.644	3.42407
3.6445	3.7262
3.645	0.60425
3.6455	2.5177
3.646	-0.80566
3.6465	3.42407
3.647	0.40283
3.6475	7.15027
3.648	3.42407
3.6485	-1.81274
3.649	-8.05664
3.6495	-7.04956
3.65	-5.43823
3.6505	-6.74744
3.651	-5.63965
3.6515	0.90637
3.652	4.63257
3.6525	4.22974
3.653	0.20142
3.6535	5.0354
3.654	13.49487
3.6545	14.60266
3.655	14.19983
3.6555	21.65222
3.656	16.81824
3.6565	17.22107
3.657	15.30762
3.6575	11.58142
3.658	4.22974
3.6585	8.45947
3.659	6.54602
3.6595	7.95593
3.66	7.95593
3.6605	1.81274
3.661	3.8269
3.6615	5.43823
3.662	2.81982
3.6625	-4.73328
3.663	-3.8269
3.6635	-5.53894
3.664	0.20142
3.6645	-2.21558
3.665	-0.60425
3.6655	-0.20142
3.666	-0.40283
3.6665	-2.92053
3.667	-2.61841
3.6675	-6.84814
3.668	-2.81982
3.6685	4.63257
3.669	-1.00708
3.6695	-2.41699
3.67	3.8269
3.6705	10.77576
3.671	3.42407
3.6715	0.40283
3.672	-0.70496
3.6725	-5.84106
3.673	-3.32336
3.6735	-3.12195
3.674	-3.12195
3.6745	4.02832
3.675	6.2439
3.6755	4.63257
3.676	7.5531
3.6765	10.27222
3.677	5.43823
3.6775	4.63257
3.678	2.21558
3.6785	0.40283
3.679	-2.01416
3.6795	-0.90637
3.68	0.10071
3.6805	4.43115
3.681	2.61841
3.6815	2.01416
3.682	1.00708
3.6825	10.47363
3.683	12.38708
3.6835	7.25098
3.684	3.8269
3.6845	2.01416
3.685	6.54602
3.6855	-0.10071
3.686	5.33752
3.6865	6.84814
3.687	7.75452
3.6875	3.62549
3.688	12.38708
3.6885	22.05505
3.689	29.70886
3.6895	22.86072
3.69	19.73877
3.6905	15.81116
3.691	16.91895
3.6915	13.39417
3.692	8.35876
3.6925	12.38708
3.693	11.07788
3.6935	14.09912
3.694	13.09204
3.6945	8.25806
3.695	6.44531
3.6955	4.43115
3.696	5.13611
3.6965	3.32336
3.697	6.44531
3.6975	0.30212
3.698	-1.40991
3.6985	3.42407
3.699	1.81274
3.6995	-3.02124
3.7	1.61133
3.7005	-5.13611
3.701	-3.22266
3.7015	-4.43115
3.702	0.40283
3.7025	-1.91345
3.703	-3.8269
3.7035	-3.32336
3.704	-2.21558
3.7045	-5.94177
3.705	-2.01416
3.7055	-1.61133
3.706	1.71204
3.7065	4.53186
3.707	8.56018
3.7075	8.66089
3.708	9.56726
3.7085	15.1062
3.709	18.22815
3.7095	9.76868
3.71	11.2793
3.7105	8.05664
3.711	10.87646
3.7115	7.35168
3.712	5.33752
3.7125	3.22266
3.713	2.11487
3.7135	0.80566
3.714	-1.3092
3.7145	0.50354
3.715	0.20142
3.7155	0.20142
3.716	5.53894
3.7165	-0.40283
3.717	6.74744
3.7175	-0.70496
3.718	-1.40991
3.7185	3.02124
3.719	1.10779
3.7195	9.86938
3.72	13.09204
3.7205	14.19983
3.721	17.32178
3.7215	25.57983
3.722	18.93311
3.7225	16.91895
3.723	19.73877
3.7235	15.71045
3.724	13.49487
3.7245	12.48779
3.725	10.0708
3.7255	15.40833
3.726	19.94019
3.7265	12.78992
3.727	10.77576
3.7275	7.04956
3.728	11.38
3.7285	9.56726
3.729	4.73328
3.7295	9.06372
3.73	4.93469
3.7305	8.8623
3.731	2.71912
3.7315	0.10071
3.732	2.71912
3.7325	2.41699
3.733	-2.01416
3.7335	0.70496
3.734	0.80566
3.7345	-3.02124
3.735	-5.33752
3.7355	-0.20142
3.736	-5.33752
3.7365	-5.74036
3.737	-6.54602
3.7375	-6.64673
3.738	-0.90637
3.7385	4.43115
3.739	6.44531
3.7395	5.13611
3.74	7.75452
3.7405	12.08496
3.741	11.58142
3.7415	9.46655
3.742	9.76868
3.7425	13.797
3.743	12.78992
3.7435	14.60266
3.744	16.91895
3.7445	8.35876
3.745	9.97009
3.7455	8.15735
3.746	1.10779
3.7465	7.15027
3.747	1.91345
3.7475	5.13611
3.748	2.61841
3.7485	12.78992
3.749	9.26514
3.7495	6.94885
3.75	2.11487
3.7505	4.12903
3.751	7.25098
3.7515	6.44531
3.752	3.32336
3.7525	0.40283
3.753	0.10071
3.7535	1.40991
3.754	-2.41699
3.7545	-2.71912
3.755	-5.84106
3.7555	-4.63257
3.756	-1.71204
3.7565	0
3.757	0.90637
3.7575	-0.20142
3.758	-2.71912
3.7585	-2.01416
3.759	-5.0354
3.7595	-5.63965
3.76	-6.04248
3.7605	-7.04956
3.761	-0.60425
3.7615	4.02832
3.762	8.8623
3.7625	11.68213
3.763	13.09204
3.7635	15.30762
3.764	11.78284
3.7645	7.45239
3.765	4.83398
3.7655	10.27222
3.766	8.25806
3.7665	17.12036
3.767	17.12036
3.7675	20.04089
3.768	13.19275
3.7685	15.50903
3.769	15.1062
3.7695	5.0354
3.77	12.18567
3.7705	10.17151
3.771	10.27222
3.7715	14.09912
3.772	12.68921
3.7725	17.22107
3.773	9.36584
3.7735	10.0708
3.774	9.97009
3.7745	5.23682
3.775	4.73328
3.7755	4.53186
3.776	4.93469
3.7765	3.62549
3.777	6.94885
3.7775	9.36584
3.778	4.12903
3.7785	9.16443
3.779	4.73328
3.7795	3.42407
3.78	2.92053
3.7805	0.80566
3.781	-1.10779
3.7815	3.7262
3.782	0.10071
3.7825	-3.62549
3.783	0.10071
3.7835	-2.31628
3.784	-1.51062
3.7845	3.12195
3.785	-0.80566
3.7855	-1.2085
3.786	-1.91345
3.7865	4.22974
3.787	-4.73328
3.7875	-2.41699
3.788	-0.60425
3.7885	1.10779
3.789	1.51062
3.7895	4.02832
3.79	5.13611
3.7905	5.13611
3.791	-1.81274
3.7915	3.7262
3.792	8.35876
3.7925	10.67505
3.793	17.32178
3.7935	17.42249
3.794	17.52319
3.7945	18.42957
3.795	16.61682
3.7955	13.29346
3.796	13.59558
3.7965	14.30054
3.797	14.50195
3.7975	16.71753
3.798	9.56726
3.7985	10.0708
3.799	11.68213
3.7995	8.05664
3.8	13.99841
3.8005	8.35876
3.801	7.45239
3.8015	0.70496
3.802	4.12903
3.8025	6.44531
3.803	7.04956
3.8035	8.15735
3.804	8.45947
3.8045	4.02832
3.805	8.96301
3.8055	4.83398
3.806	-0.40283
3.8065	1.81274
3.807	4.02832
3.8075	5.43823
3.808	3.92761
3.8085	1.71204
3.809	0.50354
3.8095	1.91345
3.81	3.7262
3.8105	4.02832
3.811	-3.32336
3.8115	-1.3092
3.812	1.10779
3.8125	-4.43115
3.813	-0.30212
3.8135	-6.54602
3.814	-7.45239
3.8145	-5.63965
3.815	-1.61133
3.8155	1.40991
3.816	-0.60425
3.8165	-2.71912
3.817	-0.40283
3.8175	5.0354
3.818	7.45239
3.8185	10.47363
3.819	11.68213
3.8195	10.97717
3.82	11.68213
3.8205	9.46655
3.821	5.94177
3.8215	5.94177
3.822	11.17859
3.8225	8.15735
3.823	11.58142
3.8235	12.5885
3.824	16.71753
3.8245	17.42249
3.825	15.81116
3.8255	15.81116
3.826	7.15027
3.8265	4.93469
3.827	3.22266
3.8275	1.71204
3.828	0.10071
3.8285	-3.8269
3.829	-5.13611
3.8295	-6.54602
3.83	-5.94177
3.8305	-8.45947
3.831	-2.71912
3.8315	-4.22974
3.832	3.22266
3.8325	10.17151
3.833	15.20691
3.8335	11.88354
3.834	9.16443
3.8345	8.66089
3.835	6.3446
3.8355	6.84814
3.836	9.56726
3.8365	9.56726
3.837	9.56726
3.8375	9.56726
3.838	9.56726
3.8385	9.56726
3.839	9.56726
3.8395	9.56726
3.84	9.56726
3.8405	9.56726
3.841	9.56726
3.8415	9.56726
3.842	9.56726
3.8425	9.56726
3.843	9.56726
3.8435	9.56726
3.844	9.56726
3.8445	9.56726
3.845	9.56726
3.8455	9.56726
3.846	9.56726
3.8465	11.58142
3.847	10.57434
3.8475	5.84106
3.848	9.86938
3.8485	4.33044
3.849	4.73328
3.8495	0.30212
3.85	3.7262
3.8505	4.83398
3.851	3.42407
3.8515	4.33044
3.852	9.46655
3.8525	-0.30212
3.853	-3.42407
3.8535	-4.02832
3.854	4.22974
3.8545	5.74036
3.855	12.5885
3.8555	17.32178
3.856	17.42249
3.8565	17.32178
3.857	15.81116
3.8575	10.27222
3.858	10.17151
3.8585	10.77576
3.859	9.86938
3.8595	10.37292
3.86	12.28638
3.8605	12.68921
3.861	9.66797
3.8615	15.60974
3.862	9.56726
3.8625	11.58142
3.863	7.95593
3.8635	5.94177
3.864	8.25806
3.8645	7.15027
3.865	-0.60425
3.8655	0
3.866	2.61841
3.8665	5.74036
3.867	-0.30212
3.8675	4.93469
3.868	5.23682
3.8685	3.7262
3.869	1.71204
3.8695	2.71912
3.87	5.43823
3.8705	4.12903
3.871	1.91345
3.8715	-8.7616
3.872	-6.84814
3.8725	-6.2439
3.873	-5.23682
3.8735	-4.63257
3.874	-7.35168
3.8745	-2.41699
3.875	-3.8269
3.8755	-2.61841
3.876	-0.70496
3.8765	3.12195
3.877	-4.22974
3.8775	-5.13611
3.878	-4.02832
3.8785	0.20142
3.879	0.30212
3.8795	13.69629
3.88	20.74585
3.8805	19.03381
3.881	15.30762
3.8815	10.87646
3.882	8.66089
3.8825	13.59558
3.883	12.18567
3.8835	8.35876
3.884	13.29346
3.8845	11.88354
3.885	15.00549
3.8855	18.63098
3.886	11.78284
3.8865	3.62549
3.887	9.36584
3.8875	2.81982
3.888	3.02124
3.8885	-1.81274
3.889	-2.71912
3.8895	-7.25098
3.89	-5.94177
3.8905	-0.40283
3.891	-3.32336
3.8915	-9.36584
3.892	-5.63965
3.8925	2.11487
3.893	4.43115
3.8935	6.14319
3.894	2.81982
3.8945	5.74036
3.895	15.1062
3.8955	18.32886
3.896	22.55859
3.8965	18.8324
3.897	18.02673
3.8975	15.20691
3.898	11.78284
3.8985	17.42249
3.899	8.7616
3.8995	10.27222
3.9	7.04956
3.9005	7.15027
3.901	2.5177
3.9015	2.31628
3.902	2.5177
3.9025	1.10779
3.903	3.32336
3.9035	7.75452
3.904	-0.40283
3.9045	7.95593
3.905	9.97009
3.9055	9.66797
3.906	11.17859
3.9065	3.52478
3.907	1.3092
3.9075	4.33044
3.908	3.62549
3.9085	3.52478
3.909	4.02832
3.9095	4.93469
3.91	3.62549
3.9105	5.0354
3.911	-0.90637
3.9115	5.13611
3.912	9.86938
3.9125	7.45239
3.913	4.43115
3.9135	5.33752
3.914	5.23682
3.9145	3.22266
3.915	2.31628
3.9155	4.73328
3.916	2.11487
3.9165	-0.30212
3.917	-1.3092
3.9175	0.40283
3.918	3.12195
3.9185	9.46655
3.919	8.45947
3.9195	15.1062
3.92	15.60974
3.9205	11.48071
3.921	13.797
3.9215	12.48779
3.922	11.2793
3.9225	10.37292
3.923	10.27222
3.9235	12.18567
3.924	4.12903
3.9245	8.15735
3.925	2.31628
3.9255	4.22974
3.926	-0.60425
3.9265	1.51062
3.927	2.11487
3.9275	3.02124
3.928	5.53894
3.9285	11.58142
3.929	9.56726
3.9295	10.97717
3.93	7.85522
3.9305	1.91345
3.931	2.71912
3.9315	4.83398
3.932	5.84106
3.9325	1.40991
3.933	-5.13611
3.9335	-6.84814
3.934	-3.02124
3.9345	-3.52478
3.935	-5.13611
3.9355	-8.96301
3.936	-8.45947
3.9365	-6.94885
3.937	-8.05664
3.9375	-1.2085
3.938	6.84814
3.9385	9.46655
3.939	16.51611
3.9395	15.00549
3.94	18.42957
3.9405	21.24939
3.941	16.91895
3.9415	11.88354
3.942	13.39417
3.9425	11.38
3.943	8.8623
3.9435	7.25098
3.944	4.02832
3.9445	8.15735
3.945	12.78992
3.9455	9.16443
3.946	4.53186
3.9465	3.52478
3.947	8.25806
3.9475	9.86938
3.948	9.06372
3.9485	8.35876
3.949	7.95593
3.9495	5.94177
3.95	2.11487
3.9505	4.33044
3.951	5.33752
3.9515	0.90637
3.952	5.74036
3.9525	8.35876
3.953	6.64673
3.9535	1.3092
3.954	3.22266
3.9545	2.11487
3.955	2.31628
3.9555	3.8269
3.956	6.2439
3.9565	1.51062
3.957	7.85522
3.9575	5.0354
3.958	2.92053
3.9585	0.60425
3.959	2.01416
3.9595	-0.80566
3.96	-0.10071
3.9605	1.00708
3.961	-5.33752
3.9615	-0.50354
3.962	4.33044
3.9625	7.85522
3.963	8.7616
3.9635	12.89062
3.964	13.89771
3.9645	18.93311
3.965	12.08496
3.9655	8.8623
3.966	9.86938
3.9665	8.25806
3.967	9.97009
3.9675	4.63257
3.968	6.94885
3.9685	0.20142
3.969	-2.21558
3.9695	-5.0354
3.97	-2.01416
3.9705	-2.11487
3.971	1.91345
3.9715	10.17151
3.972	17.42249
3.9725	15.91187
3.973	9.76868
3.9735	13.09204
3.974	9.56726
3.9745	9.06372
3.975	9.97009
3.9755	8.35876
3.976	5.94177
3.9765	9.56726
3.977	11.68213
3.9775	-0.40283
3.978	6.94885
3.9785	4.93469
3.979	3.62549
3.9795	1.91345
3.98	2.31628
3.9805	5.33752
3.981	7.25098
3.9815	8.25806
3.982	2.61841
3.9825	5.43823
3.983	3.22266
3.9835	2.92053
3.984	2.41699
3.9845	7.5531
3.985	2.01416
3.9855	-0.70496
3.986	1.00708
3.9865	1.51062
3.987	0
3.9875	0.30212
3.988	-2.5177
3.9885	6.64673
3.989	3.62549
3.9895	-0.10071
3.99	4.63257
3.9905	7.25098
3.991	7.04956
3.9915	7.35168
3.992	2.81982
3.9925	2.01416
3.993	6.04248
3.9935	3.92761
3.994	-0.50354
3.9945	2.31628
3.995	-2.01416
3.9955	-1.51062
3.996	3.32336
3.9965	0.90637
3.997	2.41699
3.9975	-0.50354
3.998	5.53894
3.9985	2.01416
3.999	2.41699
3.9995	9.36584
4	10.57434
4.0005	9.16443
4.001	10.37292
4.0015	5.33752
4.002	9.06372
4.0025	9.36584
4.003	4.83398
4.0035	5.84106
4.004	4.73328
4.0045	5.53894
4.005	8.05664
4.0055	13.19275
4.006	13.49487
4.0065	8.7616
4.007	8.35876
4.0075	2.01416
4.008	6.04248
4.0085	8.05664
4.009	5.33752
4.0095	3.32336
4.01	0.10071
4.0105	4.43115
4.011	0.50354
4.0115	1.40991
4.012	0.90637
4.0125	4.63257
4.013	-0.30212
4.0135	2.21558
4.014	0.60425
4.0145	6.64673
4.015	2.5177
4.0155	5.74036
4.016	3.02124
4.0165	5.94177
4.017	10.57434
4.0175	13.09204
4.018	13.39417
4.0185	11.78284
4.019	6.94885
4.0195	10.57434
4.02	9.66797
4.0205	14.19983
4.021	16.01257
4.0215	9.16443
4.022	12.78992
4.0225	9.66797
4.023	8.35876
4.0235	5.74036
4.024	5.84106
4.0245	8.8623
4.025	9.26514
4.0255	2.71912
4.026	6.04248
4.0265	8.25806
4.027	5.63965
4.0275	-0.70496
4.028	2.31628
4.0285	4.63257
4.029	10.57434
4.0295	8.8623
4.03	-0.60425
4.0305	1.2085
4.031	7.35168
4.0315	0.50354
4.032	2.71912
4.0325	-0.90637
4.033	-0.40283
4.0335	4.02832
4.034	0.30212
4.0345	1.40991
4.035	-4.93469
4.0355	2.01416
4.036	7.15027
4.0365	4.43115
4.037	0.40283
4.0375	0
4.038	4.43115
4.0385	6.84814
4.039	8.05664
4.0395	4.63257
4.04	6.94885
4.0405	4.83398
4.041	5.74036
4.0415	9.46655
4.042	6.04248
4.0425	7.45239
4.043	14.19983
4.0435	21.75293
4.044	17.12036
4.0445	12.28638
4.045	23.36426
4.0455	15.81116
4.046	10.17151
4.0465	7.95593
4.047	5.74036
4.0475	6.14319
4.048	10.57434
4.0485	4.22974
4.049	4.93469
4.0495	-0.30212
4.05	0.40283
4.0505	7.15027
4.051	7.04956
4.0515	5.23682
4.052	0.20142
4.0525	-0.10071
4.053	0.80566
4.0535	2.71912
4.054	8.05664
4.0545	5.74036
4.055	6.84814
4.0555	9.66797
4.056	12.38708
4.0565	9.76868
4.057	9.86938
4.0575	13.797
4.058	13.09204
4.0585	7.5531
4.059	8.15735
4.0595	4.53186
4.06	7.04956
4.0605	9.36584
4.061	6.84814
4.0615	5.63965
4.062	7.15027
4.0625	4.02832
4.063	9.97009
4.0635	6.3446
4.064	6.74744
4.0645	1.81274
4.065	7.04956
4.0655	13.29346
4.066	9.06372
4.0665	11.88354
4.067	10.0708
4.0675	3.42407
4.068	0.90637
4.0685	3.32336
4.069	6.54602
4.0695	3.02124
4.07	2.41699
4.0705	2.11487
4.071	6.14319
4.0715	-0.10071
4.072	4.43115
4.0725	3.02124
4.073	3.8269
4.0735	2.81982
4.074	1.40991
4.0745	7.25098
4.075	4.63257
4.0755	2.41699
4.076	2.21558
4.0765	-0.20142
4.077	3.52478
4.0775	0.90637
4.078	3.62549
4.0785	2.21558
4.079	3.32336
4.0795	4.02832
4.08	3.8269
4.0805	3.7262
4.081	0.20142
4.0815	3.32336
4.082	1.2085
4.0825	-1.00708
4.083	1.61133
4.0835	-1.40991
4.084	-2.21558
4.0845	1.3092
4.085	7.85522
4.0855	6.84814
4.086	8.25806
4.0865	11.38
4.087	12.08496
4.0875	5.13611
4.088	-0.70496
4.0885	3.22266
4.089	-2.5177
4.0895	3.52478
4.09	1.81274
4.0905	0.70496
4.091	1.51062
4.0915	-1.40991
4.092	-4.53186
4.0925	-1.10779
4.093	1.71204
4.0935	-0.20142
4.094	0.50354
4.0945	1.51062
4.095	-0.30212
4.0955	2.92053
4.096	3.32336
4.0965	6.74744
4.097	5.84106
4.0975	7.45239
4.098	7.5531
4.0985	8.15735
4.099	14.09912
4.0995	8.96301
4.1	19.13452
4.1005	8.7616
4.101	7.5531
4.1015	7.45239
4.102	8.15735
4.1025	6.14319
4.103	4.93469
4.1035	3.12195
4.104	6.14319
4.1045	8.8623
4.105	4.33044
4.1055	0.80566
4.106	6.44531
4.1065	5.84106
