Daniele_De_Santis_Left_1.c3d  



Time(s):	B_R_bicipite(μV):
0	5.84106
0.0005	-1.71204
0.001	5.53894
0.0015	4.12903
0.002	4.53186
0.0025	4.33044
0.003	5.33752
0.0035	3.8269
0.004	3.22266
0.0045	6.64673
0.005	6.64673
0.0055	0.50354
0.006	3.7262
0.0065	4.73328
0.007	5.0354
0.0075	8.35876
0.008	5.84106
0.0085	6.14319
0.009	6.14319
0.0095	6.64673
0.01	6.2439
0.0105	12.89062
0.011	7.45239
0.0115	8.15735
0.012	5.94177
0.0125	6.2439
0.013	10.57434
0.0135	10.67505
0.014	10.0708
0.0145	10.87646
0.015	7.04956
0.0155	6.14319
0.016	5.23682
0.0165	10.0708
0.017	6.94885
0.0175	7.04956
0.018	5.23682
0.0185	6.74744
0.019	5.84106
0.0195	3.02124
0.02	10.47363
0.0205	7.25098
0.021	-1.61133
0.0215	0
0.022	2.81982
0.0225	8.56018
0.023	5.43823
0.0235	4.93469
0.024	9.36584
0.0245	5.43823
0.025	9.46655
0.0255	9.97009
0.026	7.85522
0.0265	4.93469
0.027	3.12195
0.0275	4.22974
0.028	8.96301
0.0285	8.35876
0.029	10.77576
0.0295	8.15735
0.03	2.5177
0.0305	7.35168
0.031	13.39417
0.0315	7.04956
0.032	3.92761
0.0325	8.15735
0.033	6.44531
0.0335	8.56018
0.034	3.42407
0.0345	8.25806
0.035	0.70496
0.0355	3.12195
0.036	2.5177
0.0365	4.12903
0.037	3.7262
0.0375	2.92053
0.038	-0.30212
0.0385	-1.2085
0.039	-1.91345
0.0395	3.7262
0.04	3.8269
0.0405	1.91345
0.041	2.41699
0.0415	4.12903
0.042	-0.10071
0.0425	2.92053
0.043	2.5177
0.0435	0.90637
0.044	2.61841
0.0445	10.17151
0.045	7.15027
0.0455	1.2085
0.046	1.3092
0.0465	5.43823
0.047	7.15027
0.0475	4.02832
0.048	7.45239
0.0485	11.88354
0.049	7.65381
0.0495	2.41699
0.05	6.14319
0.0505	10.17151
0.051	6.64673
0.0515	5.94177
0.052	9.36584
0.0525	5.84106
0.053	4.22974
0.0535	6.2439
0.054	4.53186
0.0545	1.81274
0.055	-1.00708
0.0555	8.35876
0.056	12.18567
0.0565	9.97009
0.057	7.45239
0.0575	3.52478
0.058	4.43115
0.0585	5.53894
0.059	10.57434
0.0595	1.81274
0.06	-1.71204
0.0605	1.71204
0.061	2.11487
0.0615	7.85522
0.062	7.75452
0.0625	2.5177
0.063	6.04248
0.0635	3.62549
0.064	5.43823
0.0645	1.81274
0.065	6.14319
0.0655	8.56018
0.066	3.8269
0.0665	10.37292
0.067	3.92761
0.0675	7.5531
0.068	7.45239
0.0685	4.83398
0.069	3.7262
0.0695	1.81274
0.07	2.21558
0.0705	6.94885
0.071	6.74744
0.0715	12.5885
0.072	5.63965
0.0725	4.73328
0.073	10.87646
0.0735	9.46655
0.074	5.0354
0.0745	6.04248
0.075	7.65381
0.0755	7.95593
0.076	3.02124
0.0765	4.12903
0.077	5.13611
0.0775	1.71204
0.078	6.64673
0.0785	6.54602
0.079	2.11487
0.0795	3.7262
0.08	1.61133
0.0805	2.71912
0.081	2.21558
0.0815	10.47363
0.082	4.53186
0.0825	9.46655
0.083	2.31628
0.0835	7.65381
0.084	6.54602
0.0845	10.77576
0.085	5.84106
0.0855	1.71204
0.086	-0.10071
0.0865	5.0354
0.087	4.93469
0.0875	4.12903
0.088	7.65381
0.0885	12.5885
0.089	6.04248
0.0895	7.5531
0.09	3.02124
0.0905	2.01416
0.091	6.3446
0.0915	7.65381
0.092	4.22974
0.0925	7.5531
0.093	6.04248
0.0935	2.81982
0.094	3.92761
0.0945	-0.10071
0.095	5.43823
0.0955	6.64673
0.096	4.22974
0.0965	0.70496
0.097	8.45947
0.0975	-0.10071
0.098	0.90637
0.0985	5.84106
0.099	6.84814
0.0995	6.74744
0.1	3.32336
0.1005	4.93469
0.101	10.47363
0.1015	0.20142
0.102	2.31628
0.1025	-0.20142
0.103	8.05664
0.1035	3.8269
0.104	1.51062
0.1045	3.8269
0.105	3.8269
0.1055	6.64673
0.106	10.17151
0.1065	3.62549
0.107	3.52478
0.1075	8.96301
0.108	8.35876
0.1085	5.23682
0.109	1.91345
0.1095	9.66797
0.11	6.84814
0.1105	10.57434
0.111	7.85522
0.1115	8.7616
0.112	3.32336
0.1125	3.7262
0.113	4.73328
0.1135	3.22266
0.114	8.56018
0.1145	7.95593
0.115	7.04956
0.1155	8.15735
0.116	3.02124
0.1165	4.43115
0.117	3.92761
0.1175	4.63257
0.118	-2.11487
0.1185	5.0354
0.119	3.62549
0.1195	9.46655
0.12	7.5531
0.1205	9.36584
0.121	4.83398
0.1215	6.74744
0.122	4.93469
0.1225	4.02832
0.123	8.15735
0.1235	8.56018
0.124	5.13611
0.1245	5.23682
0.125	9.76868
0.1255	5.63965
0.126	4.73328
0.1265	9.06372
0.127	1.71204
0.1275	3.52478
0.128	3.8269
0.1285	10.87646
0.129	9.86938
0.1295	6.74744
0.13	8.66089
0.1305	9.06372
0.131	2.81982
0.1315	6.74744
0.132	4.63257
0.1325	7.65381
0.133	11.07788
0.1335	12.48779
0.134	9.06372
0.1345	3.42407
0.135	7.85522
0.1355	4.12903
0.136	8.25806
0.1365	3.02124
0.137	0.30212
0.1375	3.32336
0.138	-0.60425
0.1385	1.81274
0.139	-0.90637
0.1395	1.61133
0.14	1.81274
0.1405	3.7262
0.141	8.66089
0.1415	8.35876
0.142	8.15735
0.1425	7.45239
0.143	6.14319
0.1435	7.65381
0.144	3.02124
0.1445	8.15735
0.145	0.10071
0.1455	2.11487
0.146	-1.61133
0.1465	3.92761
0.147	2.01416
0.1475	3.32336
0.148	2.01416
0.1485	-0.10071
0.149	-1.3092
0.1495	6.44531
0.15	0.90637
0.1505	-3.52478
0.151	4.83398
0.1515	3.7262
0.152	6.64673
0.1525	4.22974
0.153	6.14319
0.1535	2.81982
0.154	3.22266
0.1545	1.51062
0.155	5.13611
0.1555	4.93469
0.156	0.40283
0.1565	2.92053
0.157	9.06372
0.1575	7.95593
0.158	7.75452
0.1585	11.48071
0.159	8.7616
0.1595	5.43823
0.16	1.40991
0.1605	8.7616
0.161	7.35168
0.1615	1.71204
0.162	4.12903
0.1625	5.33752
0.163	6.44531
0.1635	-1.00708
0.164	9.36584
0.1645	12.08496
0.165	7.45239
0.1655	6.54602
0.166	3.02124
0.1665	7.45239
0.167	9.06372
0.1675	6.04248
0.168	1.40991
0.1685	5.23682
0.169	8.15735
0.1695	4.63257
0.17	6.44531
0.1705	7.15027
0.171	3.22266
0.1715	8.35876
0.172	5.74036
0.1725	0.80566
0.173	-1.00708
0.1735	4.93469
0.174	3.7262
0.1745	5.84106
0.175	4.12903
0.1755	2.21558
0.176	7.35168
0.1765	1.71204
0.177	9.97009
0.1775	7.15027
0.178	4.02832
0.1785	4.53186
0.179	6.64673
0.1795	6.94885
0.18	-0.40283
0.1805	-2.71912
0.181	2.61841
0.1815	4.02832
0.182	-0.30212
0.1825	5.43823
0.183	0.30212
0.1835	7.04956
0.184	3.62549
0.1845	2.61841
0.185	3.42407
0.1855	-1.81274
0.186	-2.01416
0.1865	0.70496
0.187	0.80566
0.1875	1.61133
0.188	3.52478
0.1885	3.12195
0.189	2.41699
0.1895	6.84814
0.19	7.15027
0.1905	3.22266
0.191	5.0354
0.1915	6.94885
0.192	5.53894
0.1925	5.94177
0.193	9.36584
0.1935	9.86938
0.194	4.02832
0.1945	2.81982
0.195	4.22974
0.1955	6.64673
0.196	10.17151
0.1965	10.77576
0.197	1.61133
0.1975	4.43115
0.198	-0.10071
0.1985	0.20142
0.199	0.20142
0.1995	3.02124
0.2	1.2085
0.2005	-0.20142
0.201	2.5177
0.2015	-5.63965
0.202	-0.60425
0.2025	3.22266
0.203	7.15027
0.2035	4.02832
0.204	-0.90637
0.2045	4.63257
0.205	3.42407
0.2055	1.00708
0.206	5.23682
0.2065	4.02832
0.207	6.14319
0.2075	3.32336
0.208	4.33044
0.2085	3.92761
0.209	4.53186
0.2095	4.43115
0.21	9.16443
0.2105	1.40991
0.211	6.54602
0.2115	1.81274
0.212	4.33044
0.2125	5.13611
0.213	2.61841
0.2135	6.54602
0.214	4.53186
0.2145	7.25098
0.215	5.94177
0.2155	4.73328
0.216	5.53894
0.2165	1.3092
0.217	11.38
0.2175	6.04248
0.218	8.25806
0.2185	5.84106
0.219	5.84106
0.2195	8.05664
0.22	9.46655
0.2205	9.16443
0.221	6.54602
0.2215	5.13611
0.222	-1.81274
0.2225	4.73328
0.223	5.63965
0.2235	5.43823
0.224	10.27222
0.2245	3.62549
0.225	2.71912
0.2255	8.05664
0.226	13.69629
0.2265	11.17859
0.227	12.28638
0.2275	9.36584
0.228	10.97717
0.2285	10.37292
0.229	4.63257
0.2295	4.43115
0.23	5.43823
0.2305	2.01416
0.231	2.11487
0.2315	9.16443
0.232	5.74036
0.2325	7.04956
0.233	4.12903
0.2335	9.16443
0.234	7.45239
0.2345	2.61841
0.235	5.94177
0.2355	8.35876
0.236	8.35876
0.2365	6.44531
0.237	6.74744
0.2375	10.27222
0.238	1.3092
0.2385	3.32336
0.239	3.32336
0.2395	3.92761
0.24	4.93469
0.2405	8.25806
0.241	3.8269
0.2415	5.74036
0.242	4.93469
0.2425	5.74036
0.243	6.74744
0.2435	8.05664
0.244	11.07788
0.2445	6.64673
0.245	5.33752
0.2455	-1.3092
0.246	0.90637
0.2465	0.30212
0.247	6.74744
0.2475	4.33044
0.248	3.32336
0.2485	1.40991
0.249	2.31628
0.2495	-0.80566
0.25	3.62549
0.2505	3.8269
0.251	7.04956
0.2515	4.43115
0.252	4.22974
0.2525	5.53894
0.253	4.83398
0.2535	7.35168
0.254	4.63257
0.2545	4.83398
0.255	5.43823
0.2555	1.10779
0.256	1.51062
0.2565	13.49487
0.257	10.47363
0.2575	5.33752
0.258	11.98425
0.2585	8.96301
0.259	4.83398
0.2595	6.64673
0.26	8.66089
0.2605	2.81982
0.261	0.50354
0.2615	9.06372
0.262	9.26514
0.2625	7.5531
0.263	9.26514
0.2635	7.75452
0.264	5.74036
0.2645	8.66089
0.265	4.22974
0.2655	10.0708
0.266	4.22974
0.2665	5.53894
0.267	5.0354
0.2675	-0.90637
0.268	8.15735
0.2685	9.66797
0.269	5.53894
0.2695	4.43115
0.27	5.84106
0.2705	1.10779
0.271	7.5531
0.2715	4.12903
0.272	6.04248
0.2725	4.33044
0.273	6.14319
0.2735	1.51062
0.274	3.7262
0.2745	6.54602
0.275	4.73328
0.2755	3.12195
0.276	2.01416
0.2765	4.63257
0.277	3.12195
0.2775	-6.64673
0.278	-2.71912
0.2785	-1.3092
0.279	2.61841
0.2795	-0.30212
0.28	1.61133
0.2805	1.91345
0.281	1.61133
0.2815	4.73328
0.282	5.84106
0.2825	7.35168
0.283	6.54602
0.2835	7.95593
0.284	11.17859
0.2845	7.25098
0.285	7.5531
0.2855	6.64673
0.286	3.52478
0.2865	6.74744
0.287	6.3446
0.2875	7.75452
0.288	9.26514
0.2885	4.83398
0.289	8.35876
0.2895	0.60425
0.29	3.02124
0.2905	6.3446
0.291	6.44531
0.2915	5.74036
0.292	3.62549
0.2925	5.53894
0.293	9.26514
0.2935	0.80566
0.294	1.81274
0.2945	2.71912
0.295	5.0354
0.2955	2.11487
0.296	0.60425
0.2965	1.2085
0.297	4.73328
0.2975	4.22974
0.298	6.3446
0.2985	6.64673
0.299	8.8623
0.2995	8.56018
0.3	6.64673
0.3005	8.8623
0.301	8.56018
0.3015	4.12903
0.302	5.53894
0.3025	7.75452
0.303	9.06372
0.3035	10.57434
0.304	12.99133
0.3045	8.05664
0.305	8.35876
0.3055	5.74036
0.306	8.15735
0.3065	7.85522
0.307	4.43115
0.3075	8.96301
0.308	8.45947
0.3085	1.10779
0.309	0.40283
0.3095	4.73328
0.31	5.63965
0.3105	7.15027
0.311	3.12195
0.3115	3.12195
0.312	8.66089
0.3125	1.51062
0.313	4.02832
0.3135	6.44531
0.314	2.92053
0.3145	4.53186
0.315	1.3092
0.3155	3.7262
0.316	1.91345
0.3165	2.01416
0.317	3.42407
0.3175	9.06372
0.318	4.33044
0.3185	9.66797
0.319	7.5531
0.3195	3.42407
0.32	4.63257
0.3205	2.71912
0.321	9.06372
0.3215	4.53186
0.322	-0.90637
0.3225	5.33752
0.323	3.32336
0.3235	1.51062
0.324	-1.10779
0.3245	2.5177
0.325	4.93469
0.3255	0.10071
0.326	3.12195
0.3265	4.63257
0.327	6.2439
0.3275	3.22266
0.328	5.13611
0.3285	2.92053
0.329	10.47363
0.3295	9.36584
0.33	6.44531
0.3305	2.5177
0.331	5.33752
0.3315	7.75452
0.332	5.23682
0.3325	3.32336
0.333	7.25098
0.3335	4.53186
0.334	8.66089
0.3345	9.97009
0.335	6.14319
0.3355	8.45947
0.336	7.85522
0.3365	8.96301
0.337	5.94177
0.3375	12.38708
0.338	7.35168
0.3385	4.02832
0.339	3.52478
0.3395	5.0354
0.34	6.2439
0.3405	5.33752
0.341	5.43823
0.3415	6.3446
0.342	6.04248
0.3425	9.46655
0.343	10.67505
0.3435	2.81982
0.344	5.74036
0.3445	5.0354
0.345	5.84106
0.3455	7.45239
0.346	7.85522
0.3465	0.50354
0.347	3.92761
0.3475	5.63965
0.348	2.5177
0.3485	5.74036
0.349	5.53894
0.3495	0.30212
0.35	2.01416
0.3505	10.97717
0.351	6.44531
0.3515	8.45947
0.352	8.35876
0.3525	7.45239
0.353	7.35168
0.3535	10.47363
0.354	3.02124
0.3545	2.92053
0.355	4.43115
0.3555	1.61133
0.356	3.02124
0.3565	-0.70496
0.357	3.02124
0.3575	2.92053
0.358	4.33044
0.3585	4.83398
0.359	5.94177
0.3595	2.71912
0.36	2.01416
0.3605	6.54602
0.361	8.35876
0.3615	6.14319
0.362	-0.10071
0.3625	5.23682
0.363	2.01416
0.3635	2.31628
0.364	2.11487
0.3645	3.22266
0.365	5.43823
0.3655	-0.70496
0.366	-0.10071
0.3665	2.92053
0.367	5.33752
0.3675	6.84814
0.368	3.32336
0.3685	10.77576
0.369	11.38
0.3695	6.64673
0.37	9.26514
0.3705	4.73328
0.371	10.47363
0.3715	11.07788
0.372	10.27222
0.3725	6.2439
0.373	9.76868
0.3735	12.68921
0.374	15.00549
0.3745	10.17151
0.375	14.19983
0.3755	13.39417
0.376	13.99841
0.3765	10.0708
0.377	10.17151
0.3775	15.1062
0.378	17.6239
0.3785	12.68921
0.379	12.99133
0.3795	11.38
0.38	5.33752
0.3805	15.20691
0.381	14.19983
0.3815	15.71045
0.382	14.09912
0.3825	15.81116
0.383	15.40833
0.3835	14.09912
0.384	14.09912
0.3845	10.47363
0.385	13.19275
0.3855	15.40833
0.386	6.74744
0.3865	3.42407
0.387	7.85522
0.3875	1.40991
0.388	8.7616
0.3885	4.02832
0.389	8.35876
0.3895	10.27222
0.39	6.94885
0.3905	5.23682
0.391	0.60425
0.3915	8.35876
0.392	5.0354
0.3925	5.74036
0.393	9.46655
0.3935	0.10071
0.394	7.65381
0.3945	4.33044
0.395	-0.40283
0.3955	1.61133
0.396	2.21558
0.3965	4.02832
0.397	2.31628
0.3975	6.2439
0.398	4.12903
0.3985	4.63257
0.399	4.43115
0.3995	4.83398
0.4	7.04956
0.4005	6.84814
0.401	5.13611
0.4015	6.54602
0.402	7.15027
0.4025	12.78992
0.403	5.74036
0.4035	8.05664
0.404	2.81982
0.4045	3.42407
0.405	2.11487
0.4055	7.45239
0.406	3.02124
0.4065	9.86938
0.407	5.63965
0.4075	6.14319
0.408	7.15027
0.4085	10.27222
0.409	9.76868
0.4095	6.74744
0.41	6.84814
0.4105	8.25806
0.411	1.2085
0.4115	0
0.412	3.32336
0.4125	7.35168
0.413	4.12903
0.4135	-0.90637
0.414	5.53894
0.4145	1.91345
0.415	6.44531
0.4155	2.92053
0.416	-1.10779
0.4165	5.53894
0.417	3.22266
0.4175	0.80566
0.418	1.91345
0.4185	3.22266
0.419	2.71912
0.4195	-1.81274
0.42	4.22974
0.4205	9.56726
0.421	2.21558
0.4215	3.8269
0.422	0.10071
0.4225	7.35168
0.423	5.13611
0.4235	0.40283
0.424	-1.00708
0.4245	3.8269
0.425	5.94177
0.4255	2.92053
0.426	-1.71204
0.4265	-5.23682
0.427	4.33044
0.4275	-3.02124
0.428	-1.2085
0.4285	-0.20142
0.429	3.8269
0.4295	0.40283
0.43	2.21558
0.4305	3.42407
0.431	-1.3092
0.4315	0.10071
0.432	3.92761
0.4325	3.7262
0.433	3.62549
0.4335	8.35876
0.434	1.10779
0.4345	1.00708
0.435	6.84814
0.4355	-0.50354
0.436	1.10779
0.4365	3.42407
0.437	3.42407
0.4375	3.7262
0.438	10.47363
0.4385	8.66089
0.439	0.70496
0.4395	4.22974
0.44	3.42407
0.4405	1.10779
0.441	8.7616
0.4415	3.02124
0.442	4.53186
0.4425	3.12195
0.443	5.33752
0.4435	5.13611
0.444	5.74036
0.4445	7.25098
0.445	6.04248
0.4455	0
0.446	3.52478
0.4465	8.05664
0.447	7.35168
0.4475	3.32336
0.448	-1.00708
0.4485	3.12195
0.449	6.04248
0.4495	4.53186
0.45	6.64673
0.4505	1.3092
0.451	3.32336
0.4515	5.23682
0.452	4.12903
0.4525	5.74036
0.453	1.71204
0.4535	3.22266
0.454	4.63257
0.4545	9.46655
0.455	4.93469
0.4555	5.13611
0.456	5.33752
0.4565	5.63965
0.457	7.75452
0.4575	9.26514
0.458	8.45947
0.4585	2.61841
0.459	3.52478
0.4595	2.92053
0.46	6.74744
0.4605	10.0708
0.461	1.2085
0.4615	4.43115
0.462	7.04956
0.4625	6.04248
0.463	4.83398
0.4635	7.04956
0.464	3.7262
0.4645	8.7616
0.465	3.02124
0.4655	7.25098
0.466	2.41699
0.4665	5.0354
0.467	5.53894
0.4675	3.02124
0.468	5.63965
0.4685	4.93469
0.469	4.83398
0.4695	1.3092
0.47	6.94885
0.4705	6.54602
0.471	4.93469
0.4715	8.7616
0.472	13.49487
0.4725	6.54602
0.473	15.60974
0.4735	11.88354
0.474	1.81274
0.4745	6.2439
0.475	6.54602
0.4755	6.04248
0.476	8.66089
0.4765	6.3446
0.477	8.25806
0.4775	9.16443
0.478	7.04956
0.4785	8.15735
0.479	7.45239
0.4795	8.25806
0.48	8.66089
0.4805	7.65381
0.481	5.74036
0.4815	6.04248
0.482	4.12903
0.4825	4.22974
0.483	4.02832
0.4835	9.36584
0.484	7.65381
0.4845	6.74744
0.485	3.62549
0.4855	7.65381
0.486	10.97717
0.4865	6.74744
0.487	6.2439
0.4875	3.52478
0.488	-0.40283
0.4885	-0.40283
0.489	0.40283
0.4895	9.36584
0.49	2.41699
0.4905	3.42407
0.491	-3.92761
0.4915	4.93469
0.492	5.0354
0.4925	0.70496
0.493	3.02124
0.4935	4.83398
0.494	3.8269
0.4945	7.95593
0.495	7.04956
0.4955	1.81274
0.496	4.53186
0.4965	0.70496
0.497	1.10779
0.4975	2.31628
0.498	4.02832
0.4985	3.8269
0.499	6.44531
0.4995	1.2085
0.5	5.43823
0.5005	6.04248
0.501	4.93469
0.5015	4.12903
0.502	5.74036
0.5025	6.64673
0.503	4.43115
0.5035	2.01416
0.504	6.54602
0.5045	6.2439
0.505	0
0.5055	9.56726
0.506	7.45239
0.5065	-0.50354
0.507	1.61133
0.5075	5.84106
0.508	6.94885
0.5085	6.14319
0.509	5.33752
0.5095	8.05664
0.51	10.37292
0.5105	8.8623
0.511	11.98425
0.5115	3.7262
0.512	3.02124
0.5125	1.40991
0.513	8.56018
0.5135	8.45947
0.514	6.04248
0.5145	1.00708
0.515	2.61841
0.5155	-0.80566
0.516	3.02124
0.5165	-1.40991
0.517	6.54602
0.5175	0.20142
0.518	3.02124
0.5185	-0.20142
0.519	2.61841
0.5195	2.11487
0.52	0.40283
0.5205	3.42407
0.521	5.74036
0.5215	10.77576
0.522	10.27222
0.5225	2.71912
0.523	3.32336
0.5235	6.74744
0.524	7.15027
0.5245	3.22266
0.525	9.56726
0.5255	4.53186
0.526	10.77576
0.5265	5.0354
0.527	11.78284
0.5275	6.94885
0.528	7.25098
0.5285	8.45947
0.529	8.05664
0.5295	3.52478
0.53	-0.30212
0.5305	2.31628
0.531	3.8269
0.5315	1.40991
0.532	2.41699
0.5325	0
0.533	2.92053
0.5335	0.70496
0.534	0.50354
0.5345	3.02124
0.535	-0.80566
0.5355	2.21558
0.536	2.11487
0.5365	5.43823
0.537	1.61133
0.5375	2.81982
0.538	0.80566
0.5385	3.7262
0.539	4.93469
0.5395	2.31628
0.54	1.91345
0.5405	3.7262
0.541	5.74036
0.5415	6.14319
0.542	7.25098
0.5425	8.35876
0.543	6.14319
0.5435	4.63257
0.544	2.11487
0.5445	4.73328
0.545	9.76868
0.5455	7.04956
0.546	4.63257
0.5465	5.33752
0.547	4.63257
0.5475	4.93469
0.548	5.74036
0.5485	3.22266
0.549	4.93469
0.5495	3.52478
0.55	1.81274
0.5505	4.43115
0.551	3.7262
0.5515	4.12903
0.552	2.41699
0.5525	7.04956
0.553	6.44531
0.5535	-0.50354
0.554	6.44531
0.5545	4.63257
0.555	3.8269
0.5555	9.97009
0.556	5.43823
0.5565	5.53894
0.557	9.26514
0.5575	8.25806
0.558	1.40991
0.5585	6.94885
0.559	5.94177
0.5595	5.13611
0.56	6.3446
0.5605	-1.3092
0.561	0.90637
0.5615	5.74036
0.562	8.7616
0.5625	8.45947
0.563	8.35876
0.5635	3.02124
0.564	2.5177
0.5645	8.05664
0.565	6.44531
0.5655	6.94885
0.566	8.05664
0.5665	7.15027
0.567	4.53186
0.5675	4.53186
0.568	9.06372
0.5685	3.8269
0.569	10.27222
0.5695	10.57434
0.57	6.54602
0.5705	5.23682
0.571	4.02832
0.5715	5.43823
0.572	6.14319
0.5725	6.54602
0.573	6.14319
0.5735	8.56018
0.574	5.63965
0.5745	-0.80566
0.575	-0.30212
0.5755	5.13611
0.576	2.92053
0.5765	6.2439
0.577	0
0.5775	7.04956
0.578	9.26514
0.5785	9.46655
0.579	10.77576
0.5795	5.84106
0.58	6.74744
0.5805	7.15027
0.581	10.0708
0.5815	9.26514
0.582	10.97717
0.5825	8.66089
0.583	9.86938
0.5835	8.25806
0.584	10.27222
0.5845	8.96301
0.585	8.45947
0.5855	3.52478
0.586	8.25806
0.5865	9.97009
0.587	11.58142
0.5875	6.44531
0.588	6.04248
0.5885	7.85522
0.589	6.54602
0.5895	2.81982
0.59	5.0354
0.5905	4.43115
0.591	10.57434
0.5915	12.08496
0.592	5.0354
0.5925	7.75452
0.593	11.78284
0.5935	8.05664
0.594	10.0708
0.5945	4.53186
0.595	-2.31628
0.5955	5.23682
0.596	2.81982
0.5965	11.07788
0.597	6.94885
0.5975	4.63257
0.598	6.14319
0.5985	11.07788
0.599	9.16443
0.5995	5.84106
0.6	11.58142
0.6005	9.56726
0.601	7.45239
0.6015	14.09912
0.602	9.46655
0.6025	2.41699
0.603	5.74036
0.6035	7.45239
0.604	6.3446
0.6045	4.73328
0.605	4.83398
0.6055	11.17859
0.606	6.64673
0.6065	5.0354
0.607	4.63257
0.6075	4.93469
0.608	8.35876
0.6085	6.94885
0.609	3.92761
0.6095	3.92761
0.61	2.71912
0.6105	5.94177
0.611	1.91345
0.6115	6.04248
0.612	4.33044
0.6125	3.92761
0.613	5.33752
0.6135	-1.10779
0.614	2.61841
0.6145	4.12903
0.615	7.25098
0.6155	2.01416
0.616	4.63257
0.6165	5.23682
0.617	6.64673
0.6175	8.15735
0.618	10.17151
0.6185	8.7616
0.619	4.63257
0.6195	4.12903
0.62	5.33752
0.6205	5.94177
0.621	6.84814
0.6215	6.64673
0.622	9.66797
0.6225	6.2439
0.623	0.90637
0.6235	1.40991
0.624	1.71204
0.6245	-2.11487
0.625	0.80566
0.6255	0.70496
0.626	3.52478
0.6265	0.10071
0.627	-2.81982
0.6275	-1.81274
0.628	3.02124
0.6285	1.81274
0.629	0.30212
0.6295	5.63965
0.63	3.8269
0.6305	4.73328
0.631	3.52478
0.6315	2.61841
0.632	3.52478
0.6325	4.53186
0.633	8.25806
0.6335	5.94177
0.634	6.3446
0.6345	5.43823
0.635	6.04248
0.6355	-0.80566
0.636	4.63257
0.6365	3.22266
0.637	6.44531
0.6375	4.33044
0.638	7.25098
0.6385	1.2085
0.639	7.75452
0.6395	3.42407
0.64	6.54602
0.6405	4.12903
0.641	3.52478
0.6415	1.71204
0.642	0.90637
0.6425	4.43115
0.643	-3.42407
0.6435	3.7262
0.644	5.53894
0.6445	9.06372
0.645	9.16443
0.6455	4.73328
0.646	3.62549
0.6465	-2.31628
0.647	9.06372
0.6475	6.74744
0.648	5.84106
0.6485	7.85522
0.649	2.61841
0.6495	3.22266
0.65	1.61133
0.6505	3.42407
0.651	5.23682
0.6515	3.12195
0.652	1.3092
0.6525	2.5177
0.653	8.35876
0.6535	3.42407
0.654	6.64673
0.6545	7.5531
0.655	8.05664
0.6555	3.02124
0.656	3.22266
0.6565	3.42407
0.657	8.8623
0.6575	4.73328
0.658	3.62549
0.6585	8.66089
0.659	7.95593
0.6595	4.73328
0.66	3.22266
0.6605	3.7262
0.661	5.0354
0.6615	6.3446
0.662	3.22266
0.6625	2.21558
0.663	6.14319
0.6635	11.07788
0.664	3.42407
0.6645	2.81982
0.665	2.71912
0.6655	5.94177
0.666	7.85522
0.6665	6.44531
0.667	9.06372
0.6675	6.64673
0.668	10.0708
0.6685	11.2793
0.669	8.96301
0.6695	3.62549
0.67	8.25806
0.6705	5.53894
0.671	10.47363
0.6715	9.06372
0.672	3.02124
0.6725	6.14319
0.673	7.04956
0.6735	6.64673
0.674	4.43115
0.6745	10.37292
0.675	5.23682
0.6755	4.93469
0.676	10.57434
0.6765	6.84814
0.677	10.57434
0.6775	10.67505
0.678	10.67505
0.6785	11.68213
0.679	10.0708
0.6795	14.19983
0.68	13.29346
0.6805	6.74744
0.681	2.31628
0.6815	9.26514
0.682	6.64673
0.6825	6.94885
0.683	7.04956
0.6835	6.84814
0.684	3.22266
0.6845	8.15735
0.685	6.04248
0.6855	4.02832
0.686	9.06372
0.6865	3.7262
0.687	1.2085
0.6875	7.85522
0.688	5.84106
0.6885	4.63257
0.689	1.61133
0.6895	5.94177
0.69	-0.10071
0.6905	4.43115
0.691	3.32336
0.6915	5.74036
0.692	7.15027
0.6925	1.3092
0.693	5.43823
0.6935	11.98425
0.694	10.87646
0.6945	6.3446
0.695	2.01416
0.6955	8.96301
0.696	6.04248
0.6965	8.05664
0.697	3.32336
0.6975	5.33752
0.698	7.5531
0.6985	4.63257
0.699	3.52478
0.6995	7.04956
0.7	3.22266
0.7005	4.02832
0.701	4.63257
0.7015	2.5177
0.702	5.63965
0.7025	9.97009
0.703	6.04248
0.7035	1.71204
0.704	4.12903
0.7045	9.46655
0.705	3.92761
0.7055	8.45947
0.706	4.63257
0.7065	3.42407
0.707	7.45239
0.7075	5.43823
0.708	5.0354
0.7085	4.73328
0.709	1.91345
0.7095	2.41699
0.71	7.75452
0.7105	3.7262
0.711	5.74036
0.7115	1.00708
0.712	3.8269
0.7125	7.45239
0.713	7.5531
0.7135	5.63965
0.714	6.54602
0.7145	3.7262
0.715	4.73328
0.7155	6.64673
0.716	3.02124
0.7165	4.02832
0.717	5.13611
0.7175	1.3092
0.718	2.41699
0.7185	5.33752
0.719	9.26514
0.7195	6.54602
0.72	5.33752
0.7205	13.39417
0.721	2.92053
0.7215	5.74036
0.722	9.76868
0.7225	10.17151
0.723	9.36584
0.7235	7.85522
0.724	10.47363
0.7245	3.7262
0.725	5.53894
0.7255	5.0354
0.726	6.44531
0.7265	3.12195
0.727	2.31628
0.7275	6.84814
0.728	5.0354
0.7285	11.58142
0.729	4.83398
0.7295	0.90637
0.73	4.53186
0.7305	15.40833
0.731	12.78992
0.7315	10.27222
0.732	8.8623
0.7325	6.14319
0.733	3.8269
0.7335	9.76868
0.734	6.64673
0.7345	3.8269
0.735	3.12195
0.7355	1.00708
0.736	3.62549
0.7365	4.63257
0.737	4.33044
0.7375	5.84106
0.738	4.93469
0.7385	6.04248
0.739	5.74036
0.7395	1.2085
0.74	3.52478
0.7405	4.33044
0.741	2.21558
0.7415	-5.23682
0.742	4.02832
0.7425	5.43823
0.743	3.22266
0.7435	6.3446
0.744	2.01416
0.7445	1.40991
0.745	4.53186
0.7455	5.13611
0.746	3.7262
0.7465	6.74744
0.747	0.40283
0.7475	5.0354
0.748	5.53894
0.7485	3.52478
0.749	5.0354
0.7495	3.8269
0.75	9.66797
0.7505	2.41699
0.751	5.33752
0.7515	7.65381
0.752	2.11487
0.7525	0.80566
0.753	-1.3092
0.7535	4.02832
0.754	6.84814
0.7545	3.32336
0.755	5.53894
0.7555	5.0354
0.756	8.7616
0.7565	3.22266
0.757	4.83398
0.7575	8.25806
0.758	9.26514
0.7585	8.45947
0.759	10.97717
0.7595	3.92761
0.76	5.0354
0.7605	5.74036
0.761	3.7262
0.7615	5.53894
0.762	4.73328
0.7625	7.35168
0.763	7.95593
0.7635	8.45947
0.764	12.38708
0.7645	7.95593
0.765	0.80566
0.7655	2.81982
0.766	1.51062
0.7665	2.41699
0.767	8.7616
0.7675	7.45239
0.768	8.05664
0.7685	10.0708
0.769	6.44531
0.7695	8.25806
0.77	9.97009
0.7705	2.81982
0.771	4.53186
0.7715	6.44531
0.772	9.86938
0.7725	6.64673
0.773	8.96301
0.7735	11.98425
0.774	13.49487
0.7745	5.94177
0.775	6.44531
0.7755	5.13611
0.776	7.45239
0.7765	9.56726
0.777	7.15027
0.7775	7.04956
0.778	7.75452
0.7785	6.2439
0.779	8.05664
0.7795	1.40991
0.78	4.22974
0.7805	5.33752
0.781	7.95593
0.7815	9.36584
0.782	7.15027
0.7825	5.53894
0.783	6.44531
0.7835	11.38
0.784	13.59558
0.7845	4.02832
0.785	4.83398
0.7855	3.02124
0.786	0.60425
0.7865	1.40991
0.787	1.40991
0.7875	4.73328
0.788	3.7262
0.7885	4.43115
0.789	2.92053
0.7895	1.2085
0.79	4.43115
0.7905	9.06372
0.791	6.74744
0.7915	0
0.792	7.35168
0.7925	6.2439
0.793	11.88354
0.7935	10.87646
0.794	9.46655
0.7945	4.22974
0.795	6.2439
0.7955	6.84814
0.796	6.2439
0.7965	4.63257
0.797	7.45239
0.7975	6.64673
0.798	6.64673
0.7985	3.12195
0.799	-1.40991
0.7995	1.2085
0.8	6.04248
0.8005	3.02124
0.801	6.3446
0.8015	0.80566
0.802	7.65381
0.8025	6.2439
0.803	0.40283
0.8035	3.12195
0.804	3.52478
0.8045	9.26514
0.805	9.66797
0.8055	3.92761
0.806	2.21558
0.8065	2.92053
0.807	3.32336
0.8075	1.61133
0.808	3.7262
0.8085	4.02832
0.809	0.60425
0.8095	-2.11487
0.81	3.8269
0.8105	4.12903
0.811	9.56726
0.8115	10.17151
0.812	8.45947
0.8125	8.45947
0.813	6.84814
0.8135	8.25806
0.814	13.09204
0.8145	10.37292
0.815	10.37292
0.8155	7.25098
0.816	2.61841
0.8165	7.04956
0.817	4.12903
0.8175	-0.40283
0.818	5.0354
0.8185	3.7262
0.819	11.88354
0.8195	6.14319
0.82	3.02124
0.8205	1.51062
0.821	6.84814
0.8215	5.74036
0.822	5.94177
0.8225	4.63257
0.823	10.37292
0.8235	8.25806
0.824	6.04248
0.8245	2.71912
0.825	7.75452
0.8255	-1.91345
0.826	4.63257
0.8265	1.51062
0.827	-2.01416
0.8275	-2.01416
0.828	-2.71912
0.8285	4.33044
0.829	3.52478
0.8295	3.32336
0.83	2.21558
0.8305	4.12903
0.831	-0.60425
0.8315	6.94885
0.832	6.74744
0.8325	-0.20142
0.833	2.71912
0.8335	6.94885
0.834	4.22974
0.8345	4.83398
0.835	5.13611
0.8355	5.94177
0.836	3.12195
0.8365	5.63965
0.837	7.85522
0.8375	10.17151
0.838	1.61133
0.8385	6.54602
0.839	-3.32336
0.8395	0.40283
0.84	-0.50354
0.8405	3.12195
0.841	1.51062
0.8415	2.61841
0.842	2.41699
0.8425	0.90637
0.843	1.00708
0.8435	4.33044
0.844	0.30212
0.8445	7.15027
0.845	0.90637
0.8455	3.12195
0.846	-0.10071
0.8465	4.02832
0.847	0.90637
0.8475	7.75452
0.848	1.10779
0.8485	4.53186
0.849	4.53186
0.8495	7.85522
0.85	7.25098
0.8505	8.8623
0.851	7.75452
0.8515	4.33044
0.852	1.2085
0.8525	7.35168
0.853	6.64673
0.8535	-1.40991
0.854	1.81274
0.8545	4.63257
0.855	2.81982
0.8555	3.02124
0.856	-1.3092
0.8565	5.13611
0.857	9.26514
0.8575	3.02124
0.858	3.42407
0.8585	4.63257
0.859	5.63965
0.8595	5.43823
0.86	1.2085
0.8605	7.45239
0.861	2.61841
0.8615	3.22266
0.862	5.23682
0.8625	3.02124
0.863	0.60425
0.8635	-1.71204
0.864	-1.40991
0.8645	6.2439
0.865	2.31628
0.8655	2.31628
0.866	8.7616
0.8665	8.25806
0.867	6.64673
0.8675	8.25806
0.868	9.46655
0.8685	6.3446
0.869	1.91345
0.8695	6.2439
0.87	7.15027
0.8705	4.73328
0.871	8.25806
0.8715	7.15027
0.872	4.63257
0.8725	5.23682
0.873	0.20142
0.8735	5.84106
0.874	9.26514
0.8745	2.81982
0.875	1.71204
0.8755	-2.21558
0.876	-1.91345
0.8765	2.92053
0.877	2.31628
0.8775	-0.10071
0.878	4.63257
0.8785	7.25098
0.879	5.13611
0.8795	3.62549
0.88	7.75452
0.8805	3.62549
0.881	2.11487
0.8815	5.63965
0.882	6.84814
0.8825	1.71204
0.883	5.0354
0.8835	1.91345
0.884	4.93469
0.8845	0.90637
0.885	5.0354
0.8855	2.5177
0.886	3.42407
0.8865	3.7262
0.887	5.94177
0.8875	5.74036
0.888	2.81982
0.8885	7.15027
0.889	6.94885
0.8895	11.2793
0.89	4.43115
0.8905	13.39417
0.891	8.7616
0.8915	7.75452
0.892	8.25806
0.8925	10.0708
0.893	2.71912
0.8935	5.33752
0.894	4.83398
0.8945	8.7616
0.895	6.54602
0.8955	2.41699
0.896	4.73328
0.8965	12.28638
0.897	0.30212
0.8975	4.22974
0.898	8.05664
0.8985	6.94885
0.899	4.33044
0.8995	5.0354
0.9	3.62549
0.9005	5.74036
0.901	-0.20142
0.9015	1.40991
0.902	3.02124
0.9025	1.81274
0.903	3.02124
0.9035	-1.51062
0.904	2.11487
0.9045	7.15027
0.905	8.66089
0.9055	10.77576
0.906	6.94885
0.9065	6.14319
0.907	6.74744
0.9075	3.22266
0.908	6.44531
0.9085	10.87646
0.909	7.35168
0.9095	9.86938
0.91	8.35876
0.9105	10.97717
0.911	8.96301
0.9115	5.74036
0.912	10.0708
0.9125	9.66797
0.913	8.25806
0.9135	2.21558
0.914	9.26514
0.9145	6.84814
0.915	5.94177
0.9155	6.44531
0.916	8.45947
0.9165	9.86938
0.917	8.05664
0.9175	4.93469
0.918	6.14319
0.9185	3.32336
0.919	-0.30212
0.9195	-0.40283
0.92	3.62549
0.9205	1.40991
0.921	4.22974
0.9215	-0.50354
0.922	0.50354
0.9225	4.02832
0.923	4.53186
0.9235	4.53186
0.924	6.44531
0.9245	1.61133
0.925	4.12903
0.9255	6.2439
0.926	2.92053
0.9265	-0.20142
0.927	-1.51062
0.9275	5.53894
0.928	4.83398
0.9285	0.20142
0.929	5.13611
0.9295	0.30212
0.93	4.22974
0.9305	8.15735
0.931	3.7262
0.9315	0.20142
0.932	3.92761
0.9325	-3.32336
0.933	1.40991
0.9335	-1.3092
0.934	2.31628
0.9345	7.5531
0.935	5.0354
0.9355	4.53186
0.936	7.85522
0.9365	6.04248
0.937	4.73328
0.9375	10.37292
0.938	4.83398
0.9385	7.95593
0.939	7.65381
0.9395	8.96301
0.94	6.44531
0.9405	10.17151
0.941	8.66089
0.9415	7.04956
0.942	9.16443
0.9425	5.13611
0.943	5.84106
0.9435	6.3446
0.944	6.64673
0.9445	4.93469
0.945	1.91345
0.9455	5.0354
0.946	7.5531
0.9465	0.80566
0.947	2.21558
0.9475	4.12903
0.948	8.15735
0.9485	5.84106
0.949	5.23682
0.9495	6.2439
0.95	2.41699
0.9505	9.06372
0.951	8.45947
0.9515	10.47363
0.952	10.57434
0.9525	-0.40283
0.953	6.3446
0.9535	7.65381
0.954	7.5531
0.9545	6.14319
0.955	1.61133
0.9555	4.83398
0.956	6.84814
0.9565	9.97009
0.957	3.7262
0.9575	1.91345
0.958	-1.2085
0.9585	1.91345
0.959	2.21558
0.9595	5.0354
0.96	3.92761
0.9605	0.80566
0.961	0.50354
0.9615	5.53894
0.962	1.3092
0.9625	-0.30212
0.963	2.01416
0.9635	2.5177
0.964	2.41699
0.9645	3.22266
0.965	1.81274
0.9655	3.02124
0.966	0.50354
0.9665	5.33752
0.967	2.71912
0.9675	7.95593
0.968	4.93469
0.9685	2.11487
0.969	3.02124
0.9695	5.74036
0.97	3.8269
0.9705	-2.61841
0.971	4.53186
0.9715	5.0354
0.972	1.2085
0.9725	5.74036
0.973	7.25098
0.9735	4.22974
0.974	8.45947
0.9745	11.58142
0.975	5.94177
0.9755	4.53186
0.976	7.95593
0.9765	4.93469
0.977	3.42407
0.9775	6.2439
0.978	1.3092
0.9785	2.41699
0.979	0.30212
0.9795	0.50354
0.98	3.52478
0.9805	3.22266
0.981	6.14319
0.9815	3.7262
0.982	9.76868
0.9825	2.11487
0.983	8.7616
0.9835	6.2439
0.984	2.61841
0.9845	5.0354
0.985	8.56018
0.9855	2.11487
0.986	2.81982
0.9865	1.71204
0.987	9.46655
0.9875	3.12195
0.988	6.44531
0.9885	4.43115
0.989	6.64673
0.9895	10.17151
0.99	8.15735
0.9905	4.63257
0.991	4.12903
0.9915	4.02832
0.992	8.35876
0.9925	6.84814
0.993	3.7262
0.9935	6.44531
0.994	7.04956
0.9945	10.0708
0.995	11.58142
0.9955	11.98425
0.996	7.75452
0.9965	8.05664
0.997	7.65381
0.9975	10.27222
0.998	12.18567
0.9985	6.2439
0.999	5.23682
0.9995	10.87646
1	2.31628
1.0005	3.02124
1.001	3.42407
1.0015	-2.21558
1.002	4.12903
1.0025	3.7262
1.003	4.93469
1.0035	5.74036
1.004	7.35168
1.0045	3.7262
1.005	6.54602
1.0055	2.11487
1.006	5.63965
1.0065	6.14319
1.007	5.53894
1.0075	-0.70496
1.008	2.01416
1.0085	-2.81982
1.009	0.20142
1.0095	0.10071
1.01	-3.32336
1.0105	-1.71204
1.011	0.90637
1.0115	6.2439
1.012	3.62549
1.0125	2.01416
1.013	-0.40283
1.0135	2.41699
1.014	2.31628
1.0145	3.32336
1.015	4.22974
1.0155	3.42407
1.016	2.81982
1.0165	4.33044
1.017	8.45947
1.0175	1.40991
1.018	3.92761
1.0185	3.02124
1.019	-0.50354
1.0195	5.13611
1.02	-4.53186
1.0205	-1.10779
1.021	2.21558
1.0215	1.3092
1.022	1.10779
1.0225	2.92053
1.023	-0.30212
1.0235	3.8269
1.024	5.84106
1.0245	4.63257
1.025	-3.7262
1.0255	1.00708
1.026	6.14319
1.0265	6.3446
1.027	5.23682
1.0275	9.86938
1.028	7.25098
1.0285	10.77576
1.029	4.93469
1.0295	9.46655
1.03	9.06372
1.0305	15.30762
1.031	11.38
1.0315	13.69629
1.032	18.73169
1.0325	15.91187
1.033	11.17859
1.0335	17.32178
1.034	18.12744
1.0345	14.19983
1.035	17.12036
1.0355	18.12744
1.036	17.72461
1.0365	22.35718
1.037	19.33594
1.0375	16.01257
1.038	19.53735
1.0385	21.3501
1.039	17.92603
1.0395	18.93311
1.04	15.71045
1.0405	7.85522
1.041	14.30054
1.0415	12.89062
1.042	13.99841
1.0425	19.03381
1.043	13.39417
1.0435	17.22107
1.044	16.61682
1.0445	15.91187
1.045	10.47363
1.0455	15.50903
1.046	13.09204
1.0465	11.78284
1.047	8.56018
1.0475	13.89771
1.048	8.66089
1.0485	12.38708
1.049	12.48779
1.0495	8.96301
1.05	7.04956
1.0505	8.56018
1.051	7.04956
1.0515	4.53186
1.052	6.64673
1.0525	1.61133
1.053	3.02124
1.0535	3.7262
1.054	4.83398
1.0545	2.92053
1.055	5.74036
1.0555	5.53894
1.056	4.43115
1.0565	4.63257
1.057	6.94885
1.0575	2.71912
1.058	-1.40991
1.0585	6.3446
1.059	6.84814
1.0595	7.15027
1.06	1.71204
1.0605	2.21558
1.061	2.41699
1.0615	2.41699
1.062	2.01416
1.0625	5.53894
1.063	2.61841
1.0635	4.63257
1.064	0.20142
1.0645	9.26514
1.065	7.85522
1.0655	4.12903
1.066	5.94177
1.0665	5.63965
1.067	4.22974
1.0675	4.02832
1.068	4.53186
1.0685	4.53186
1.069	5.84106
1.0695	3.32336
1.07	0.20142
1.0705	2.11487
1.071	3.8269
1.0715	5.33752
1.072	4.73328
1.0725	1.51062
1.073	1.2085
1.0735	0.60425
1.074	1.91345
1.0745	-2.81982
1.075	-2.71912
1.0755	-1.91345
1.076	5.94177
1.0765	-1.2085
1.077	0.90637
1.0775	5.0354
1.078	3.52478
1.0785	5.0354
1.079	3.02124
1.0795	1.00708
1.08	6.04248
1.0805	1.40991
1.081	2.21558
1.0815	6.74744
1.082	1.51062
1.0825	3.52478
1.083	-0.10071
1.0835	-0.50354
1.084	2.5177
1.0845	2.71912
1.085	7.35168
1.0855	5.0354
1.086	11.58142
1.0865	5.53894
1.087	7.04956
1.0875	6.14319
1.088	-0.90637
1.0885	4.02832
1.089	3.42407
1.0895	4.63257
1.09	-0.10071
1.0905	2.71912
1.091	-1.00708
1.0915	1.91345
1.092	4.33044
1.0925	9.46655
1.093	0
1.0935	-0.60425
1.094	0.20142
1.0945	-0.40283
1.095	2.5177
1.0955	8.05664
1.096	5.43823
1.0965	0.70496
1.097	6.2439
1.0975	3.8269
1.098	2.31628
1.0985	0.80566
1.099	-3.12195
1.0995	-1.71204
1.1	2.21558
1.1005	1.3092
1.101	7.25098
1.1015	5.84106
1.102	1.71204
1.1025	4.22974
1.103	1.2085
1.1035	8.56018
1.104	7.5531
1.1045	8.8623
1.105	6.2439
1.1055	4.12903
1.106	0.70496
1.1065	6.54602
1.107	6.3446
1.1075	7.95593
1.108	9.66797
1.1085	11.38
1.109	9.76868
1.1095	5.13611
1.11	9.86938
1.1105	6.54602
1.111	2.5177
1.1115	3.12195
1.112	5.23682
1.1125	4.43115
1.113	4.93469
1.1135	4.22974
1.114	3.32336
1.1145	3.92761
1.115	8.8623
1.1155	5.0354
1.116	2.11487
1.1165	4.83398
1.117	4.53186
1.1175	2.92053
1.118	10.47363
1.1185	3.02124
1.119	8.66089
1.1195	7.65381
1.12	6.74744
1.1205	5.74036
1.121	7.04956
1.1215	11.68213
1.122	8.05664
1.1225	2.92053
1.123	2.5177
1.1235	7.35168
1.124	7.35168
1.1245	8.25806
1.125	10.47363
1.1255	7.75452
1.126	12.08496
1.1265	10.0708
1.127	6.54602
1.1275	7.35168
1.128	4.33044
1.1285	6.94885
1.129	4.33044
1.1295	6.14319
1.13	1.40991
1.1305	3.22266
1.131	2.41699
1.1315	1.51062
1.132	2.41699
1.1325	3.22266
1.133	0.70496
1.1335	11.38
1.134	4.12903
1.1345	8.35876
1.135	7.85522
1.1355	8.35876
1.136	3.92761
1.1365	3.62549
1.137	8.7616
1.1375	11.48071
1.138	11.2793
1.1385	12.89062
1.139	5.84106
1.1395	3.92761
1.14	3.7262
1.1405	8.96301
1.141	9.16443
1.1415	8.96301
1.142	8.45947
1.1425	10.27222
1.143	12.38708
1.1435	7.85522
1.144	7.25098
1.1445	8.96301
1.145	4.63257
1.1455	3.8269
1.146	5.84106
1.1465	5.0354
1.147	10.17151
1.1475	3.12195
1.148	4.63257
1.1485	7.25098
1.149	-0.50354
1.1495	1.3092
1.15	2.61841
1.1505	8.35876
1.151	5.94177
1.1515	-3.02124
1.152	-3.22266
1.1525	3.62549
1.153	8.66089
1.1535	7.04956
1.154	8.15735
1.1545	5.43823
1.155	-0.50354
1.1555	4.53186
1.156	-1.3092
1.1565	4.43115
1.157	-0.40283
1.1575	3.52478
1.158	5.13611
1.1585	4.53186
1.159	9.16443
1.1595	10.47363
1.16	10.0708
1.1605	12.08496
1.161	6.94885
1.1615	5.74036
1.162	11.17859
1.1625	7.5531
1.163	9.26514
1.1635	6.3446
1.164	7.65381
1.1645	10.27222
1.165	4.02832
1.1655	6.14319
1.166	-0.50354
1.1665	3.32336
1.167	1.61133
1.1675	8.15735
1.168	5.53894
1.1685	5.23682
1.169	2.92053
1.1695	7.45239
1.17	-1.2085
1.1705	8.45947
1.171	10.47363
1.1715	8.25806
1.172	4.12903
1.1725	6.94885
1.173	6.04248
1.1735	5.23682
1.174	2.92053
1.1745	1.71204
1.175	5.63965
1.1755	2.92053
1.176	7.75452
1.1765	5.0354
1.177	9.36584
1.1775	8.66089
1.178	7.45239
1.1785	5.53894
1.179	3.92761
1.1795	7.35168
1.18	7.5531
1.1805	2.92053
1.181	4.12903
1.1815	-2.41699
1.182	5.23682
1.1825	1.51062
1.183	4.53186
1.1835	7.04956
1.184	6.84814
1.1845	4.53186
1.185	3.52478
1.1855	6.44531
1.186	3.22266
1.1865	1.61133
1.187	2.41699
1.1875	4.22974
1.188	1.40991
1.1885	-1.3092
1.189	0.70496
1.1895	0.30212
1.19	2.21558
1.1905	3.42407
1.191	2.21558
1.1915	3.8269
1.192	-2.41699
1.1925	2.61841
1.193	2.01416
1.1935	2.31628
1.194	7.75452
1.1945	5.63965
1.195	-2.01416
1.1955	5.53894
1.196	2.01416
1.1965	4.12903
1.197	0.40283
1.1975	6.74744
1.198	7.35168
1.1985	6.44531
1.199	4.12903
1.1995	-0.40283
1.2	3.02124
1.2005	5.63965
1.201	7.25098
1.2015	2.5177
1.202	1.51062
1.2025	5.94177
1.203	3.32336
1.2035	4.63257
1.204	5.23682
1.2045	1.00708
1.205	6.2439
1.2055	6.44531
1.206	10.87646
1.2065	11.2793
1.207	2.21558
1.2075	8.05664
1.208	5.23682
1.2085	6.14319
1.209	4.43115
1.2095	1.40991
1.21	11.68213
1.2105	-0.60425
1.211	6.94885
1.2115	3.32336
1.212	5.33752
1.2125	3.12195
1.213	5.63965
1.2135	7.04956
1.214	4.33044
1.2145	3.12195
1.215	1.10779
1.2155	5.53894
1.216	2.5177
1.2165	3.7262
1.217	2.92053
1.2175	3.52478
1.218	3.8269
1.2185	-0.90637
1.219	1.91345
1.2195	0.50354
1.22	1.2085
1.2205	2.11487
1.221	9.06372
1.2215	9.06372
1.222	4.73328
1.2225	3.22266
1.223	2.31628
1.2235	6.54602
1.224	1.00708
1.2245	10.67505
1.225	6.54602
1.2255	2.92053
1.226	6.54602
1.2265	4.93469
1.227	2.31628
1.2275	3.7262
1.228	1.61133
1.2285	7.04956
1.229	6.94885
1.2295	1.40991
1.23	8.66089
1.2305	10.67505
1.231	2.81982
1.2315	2.01416
1.232	5.84106
1.2325	11.48071
1.233	6.54602
1.2335	4.93469
1.234	10.57434
1.2345	9.06372
1.235	6.44531
1.2355	5.74036
1.236	7.25098
1.2365	-1.2085
1.237	8.25806
1.2375	7.5531
1.238	9.26514
1.2385	10.37292
1.239	7.35168
1.2395	12.78992
1.24	9.16443
1.2405	6.54602
1.241	12.78992
1.2415	8.56018
1.242	15.30762
1.2425	15.60974
1.243	12.78992
1.2435	8.45947
1.244	12.5885
1.2445	9.36584
1.245	7.45239
1.2455	10.0708
1.246	6.14319
1.2465	12.28638
1.247	5.43823
1.2475	2.21558
1.248	7.95593
1.2485	4.43115
1.249	5.53894
1.2495	4.93469
1.25	2.5177
1.2505	7.5531
1.251	8.25806
1.2515	6.3446
1.252	6.3446
1.2525	1.40991
1.253	3.02124
1.2535	1.61133
1.254	6.3446
1.2545	9.26514
1.255	10.17151
1.2555	5.23682
1.256	7.85522
1.2565	3.92761
1.257	6.14319
1.2575	3.8269
1.258	-2.81982
1.2585	1.71204
1.259	3.42407
1.2595	1.2085
1.26	0.80566
1.2605	4.43115
1.261	11.98425
1.2615	1.81274
1.262	2.21558
1.2625	10.57434
1.263	6.74744
1.2635	1.3092
1.264	2.61841
1.2645	6.04248
1.265	-1.61133
1.2655	6.94885
1.266	6.14319
1.2665	3.8269
1.267	-1.10779
1.2675	3.52478
1.268	7.04956
1.2685	3.92761
1.269	6.94885
1.2695	0.80566
1.27	2.11487
1.2705	0.20142
1.271	0.50354
1.2715	0
1.272	-0.40283
1.2725	-3.52478
1.273	1.2085
1.2735	0.90637
1.274	0.10071
1.2745	2.81982
1.275	-2.5177
1.2755	-0.70496
1.276	2.71912
1.2765	4.22974
1.277	7.45239
1.2775	1.40991
1.278	1.2085
1.2785	1.81274
1.279	1.71204
1.2795	1.51062
1.28	6.94885
1.2805	3.8269
1.281	-0.50354
1.2815	4.43115
1.282	-0.10071
1.2825	3.52478
1.283	1.51062
1.2835	4.53186
1.284	3.62549
1.2845	1.10779
1.285	2.81982
1.2855	4.43115
1.286	-1.3092
1.2865	8.35876
1.287	4.22974
1.2875	1.71204
1.288	5.94177
1.2885	2.01416
1.289	-1.10779
1.2895	-2.11487
1.29	4.63257
1.2905	5.84106
1.291	1.61133
1.2915	4.12903
1.292	9.06372
1.2925	9.97009
1.293	4.73328
1.2935	2.81982
1.294	2.01416
1.2945	2.81982
1.295	6.64673
1.2955	6.74744
1.296	4.22974
1.2965	5.94177
1.297	7.85522
1.2975	-0.20142
1.298	3.62549
1.2985	3.92761
1.299	2.41699
1.2995	5.74036
1.3	10.47363
1.3005	6.2439
1.301	7.15027
1.3015	5.53894
1.302	3.92761
1.3025	4.12903
1.303	6.94885
1.3035	9.76868
1.304	9.86938
1.3045	6.84814
1.305	10.27222
1.3055	8.25806
1.306	9.36584
1.3065	9.06372
1.307	6.14319
1.3075	3.62549
1.308	7.75452
1.3085	17.32178
1.309	8.45947
1.3095	5.53894
1.31	2.41699
1.3105	3.12195
1.311	2.92053
1.3115	5.94177
1.312	1.51062
1.3125	7.5531
1.313	10.37292
1.3135	2.81982
1.314	7.5531
1.3145	2.41699
1.315	11.48071
1.3155	7.5531
1.316	7.04956
1.3165	5.53894
1.317	9.66797
1.3175	4.33044
1.318	6.44531
1.3185	9.56726
1.319	2.41699
1.3195	3.42407
1.32	3.12195
1.3205	1.71204
1.321	8.05664
1.3215	9.46655
1.322	4.93469
1.3225	6.64673
1.323	8.56018
1.3235	5.23682
1.324	8.45947
1.3245	7.25098
1.325	7.5531
1.3255	0.90637
1.326	3.42407
1.3265	5.23682
1.327	3.12195
1.3275	8.96301
1.328	7.85522
1.3285	10.17151
1.329	11.58142
1.3295	10.57434
1.33	7.04956
1.3305	7.35168
1.331	6.14319
1.3315	7.35168
1.332	11.88354
1.3325	3.52478
1.333	8.05664
1.3335	2.41699
1.334	3.8269
1.3345	10.77576
1.335	6.54602
1.3355	1.81274
1.336	3.12195
1.3365	6.64673
1.337	1.91345
1.3375	9.76868
1.338	6.74744
1.3385	2.21558
1.339	0.90637
1.3395	6.14319
1.34	4.83398
1.3405	-0.20142
1.341	8.56018
1.3415	7.65381
1.342	1.61133
1.3425	2.21558
1.343	1.91345
1.3435	4.22974
1.344	3.42407
1.3445	2.41699
1.345	10.27222
1.3455	5.53894
1.346	7.45239
1.3465	7.25098
1.347	6.3446
1.3475	6.94885
1.348	4.12903
1.3485	7.04956
1.349	7.45239
1.3495	12.48779
1.35	17.32178
1.3505	16.21399
1.351	5.23682
1.3515	9.76868
1.352	7.75452
1.3525	7.5531
1.353	7.65381
1.3535	4.73328
1.354	2.71912
1.3545	7.45239
1.355	4.43115
1.3555	5.53894
1.356	2.61841
1.3565	-0.50354
1.357	0.70496
1.3575	5.43823
1.358	4.53186
1.3585	6.74744
1.359	4.53186
1.3595	6.94885
1.36	3.8269
1.3605	7.45239
1.361	4.33044
1.3615	4.73328
1.362	6.14319
1.3625	9.46655
1.363	8.45947
1.3635	6.2439
1.364	5.84106
1.3645	4.53186
1.365	12.48779
1.3655	6.84814
1.366	10.57434
1.3665	10.17151
1.367	10.47363
1.3675	10.97717
1.368	8.35876
1.3685	8.8623
1.369	11.68213
1.3695	12.78992
1.37	9.46655
1.3705	8.15735
1.371	7.25098
1.3715	6.14319
1.372	7.45239
1.3725	6.64673
1.373	7.95593
1.3735	8.56018
1.374	2.41699
1.3745	2.01416
1.375	4.02832
1.3755	7.35168
1.376	10.0708
1.3765	5.84106
1.377	-3.02124
1.3775	10.77576
1.378	9.46655
1.3785	6.3446
1.379	4.93469
1.3795	8.45947
1.38	6.04248
1.3805	13.59558
1.381	11.58142
1.3815	11.07788
1.382	6.14319
1.3825	3.8269
1.383	2.31628
1.3835	7.85522
1.384	5.0354
1.3845	9.56726
1.385	3.22266
1.3855	5.43823
1.386	2.01416
1.3865	4.93469
1.387	2.11487
1.3875	6.3446
1.388	0.80566
1.3885	4.93469
1.389	10.27222
1.3895	3.22266
1.39	6.44531
1.3905	1.61133
1.391	6.14319
1.3915	4.63257
1.392	11.2793
1.3925	6.2439
1.393	7.15027
1.3935	3.42407
1.394	-0.20142
1.3945	6.14319
1.395	6.2439
1.3955	3.92761
1.396	7.5531
1.3965	4.43115
1.397	-1.61133
1.3975	5.53894
1.398	1.00708
1.3985	6.3446
1.399	7.25098
1.3995	3.52478
1.4	5.63965
1.4005	5.0354
1.401	9.66797
1.4015	7.25098
1.402	10.27222
1.4025	7.25098
1.403	3.42407
1.4035	1.81274
1.404	6.04248
1.4045	10.37292
1.405	8.35876
1.4055	6.94885
1.406	7.65381
1.4065	5.0354
1.407	2.31628
1.4075	3.22266
1.408	5.23682
1.4085	1.81274
1.409	9.76868
1.4095	3.02124
1.41	3.42407
1.4105	2.5177
1.411	4.33044
1.4115	8.96301
1.412	10.57434
1.4125	10.17151
1.413	3.92761
1.4135	1.10779
1.414	3.12195
1.4145	8.25806
1.415	8.7616
1.4155	4.93469
1.416	2.61841
1.4165	5.0354
1.417	1.00708
1.4175	3.42407
1.418	6.74744
1.4185	7.04956
1.419	4.33044
1.4195	2.81982
1.42	5.23682
1.4205	-0.70496
1.421	5.43823
1.4215	6.84814
1.422	9.26514
1.4225	8.15735
1.423	6.94885
1.4235	1.81274
1.424	1.40991
1.4245	3.8269
1.425	1.2085
1.4255	2.31628
1.426	2.31628
1.4265	1.3092
1.427	-1.00708
1.4275	-1.81274
1.428	3.62549
1.4285	3.62549
1.429	1.40991
1.4295	6.64673
1.43	2.31628
1.4305	3.52478
1.431	5.63965
1.4315	6.84814
1.432	10.47363
1.4325	10.17151
1.433	9.26514
1.4335	3.52478
1.434	9.66797
1.4345	7.25098
1.435	5.94177
1.4355	4.12903
1.436	4.22974
1.4365	8.66089
1.437	2.92053
1.4375	5.0354
1.438	6.54602
1.4385	3.8269
1.439	2.71912
1.4395	2.81982
1.44	8.7616
1.4405	0.90637
1.441	7.5531
1.4415	10.0708
1.442	3.42407
1.4425	13.39417
1.443	8.15735
1.4435	9.06372
1.444	9.97009
1.4445	2.11487
1.445	9.26514
1.4455	7.04956
1.446	6.64673
1.4465	11.2793
1.447	5.13611
1.4475	6.64673
1.448	4.53186
1.4485	3.22266
1.449	5.0354
1.4495	11.17859
1.45	6.64673
1.4505	5.23682
1.451	7.75452
1.4515	9.26514
1.452	0.20142
1.4525	5.53894
1.453	2.81982
1.4535	9.76868
1.454	5.74036
1.4545	4.53186
1.455	2.92053
1.4555	3.52478
1.456	4.12903
1.4565	3.7262
1.457	4.43115
1.4575	5.43823
1.458	-1.10779
1.4585	1.40991
1.459	1.2085
1.4595	2.31628
1.46	1.91345
1.4605	2.41699
1.461	1.51062
1.4615	4.12903
1.462	5.23682
1.4625	5.0354
1.463	10.97717
1.4635	0.40283
1.464	4.33044
1.4645	7.25098
1.465	-1.10779
1.4655	5.43823
1.466	4.53186
1.4665	7.35168
1.467	1.40991
1.4675	0.20142
1.468	5.43823
1.4685	4.12903
1.469	4.73328
1.4695	2.01416
1.47	4.02832
1.4705	3.92761
1.471	0.70496
1.4715	-0.60425
1.472	3.8269
1.4725	-0.30212
1.473	7.25098
1.4735	7.85522
1.474	8.7616
1.4745	9.97009
1.475	2.31628
1.4755	3.22266
1.476	7.65381
1.4765	2.61841
1.477	2.01416
1.4775	0.10071
1.478	-2.11487
1.4785	4.22974
1.479	8.8623
1.4795	9.86938
1.48	7.65381
1.4805	4.02832
1.481	10.47363
1.4815	1.71204
1.482	-1.3092
1.4825	2.92053
1.483	6.84814
1.4835	2.5177
1.484	3.12195
1.4845	2.01416
1.485	3.22266
1.4855	5.33752
1.486	2.31628
1.4865	6.44531
1.487	6.2439
1.4875	9.76868
1.488	1.61133
1.4885	3.52478
1.489	5.33752
1.4895	4.53186
1.49	3.92761
1.4905	6.54602
1.491	6.44531
1.4915	8.25806
1.492	5.43823
1.4925	2.5177
1.493	5.43823
1.4935	5.94177
1.494	7.65381
1.4945	1.3092
1.495	3.52478
1.4955	3.8269
1.496	5.0354
1.4965	3.92761
1.497	3.42407
1.4975	0.60425
1.498	2.92053
1.4985	-0.20142
1.499	2.92053
1.4995	2.01416
1.5	4.83398
1.5005	4.83398
1.501	4.63257
1.5015	2.41699
1.502	5.23682
1.5025	0.10071
1.503	3.52478
1.5035	4.33044
1.504	5.84106
1.5045	2.5177
1.505	4.02832
1.5055	9.76868
1.506	5.53894
1.5065	0.20142
1.507	6.44531
1.5075	2.41699
1.508	0.90637
1.5085	6.44531
1.509	1.91345
1.5095	2.31628
1.51	7.5531
1.5105	8.25806
1.511	3.8269
1.5115	6.2439
1.512	6.2439
1.5125	4.83398
1.513	4.43115
1.5135	4.33044
1.514	7.75452
1.5145	2.21558
1.515	0.60425
1.5155	4.12903
1.516	2.21558
1.5165	4.73328
1.517	9.16443
1.5175	6.04248
1.518	4.12903
1.5185	9.46655
1.519	7.5531
1.5195	8.05664
1.52	6.04248
1.5205	-3.32336
1.521	7.5531
1.5215	5.84106
1.522	6.74744
1.5225	6.2439
1.523	13.39417
1.5235	6.44531
1.524	7.45239
1.5245	4.63257
1.525	8.15735
1.5255	2.5177
1.526	2.01416
1.5265	7.65381
1.527	9.36584
1.5275	4.53186
1.528	4.22974
1.5285	1.3092
1.529	5.43823
1.5295	3.02124
1.53	3.22266
1.5305	1.00708
1.531	3.22266
1.5315	-4.22974
1.532	3.12195
1.5325	4.53186
1.533	3.12195
1.5335	2.92053
1.534	3.7262
1.5345	4.63257
1.535	5.74036
1.5355	9.16443
1.536	5.0354
1.5365	9.46655
1.537	4.43115
1.5375	11.2793
1.538	7.5531
1.5385	0.80566
1.539	7.95593
1.5395	9.06372
1.54	6.54602
1.5405	4.73328
1.541	10.0708
1.5415	5.74036
1.542	3.12195
1.5425	10.57434
1.543	11.38
1.5435	7.5531
1.544	5.84106
1.5445	10.17151
1.545	6.14319
1.5455	7.5531
1.546	10.27222
1.5465	0
1.547	3.7262
1.5475	4.83398
1.548	8.05664
1.5485	7.5531
1.549	3.92761
1.5495	2.41699
1.55	5.33752
1.5505	5.43823
1.551	6.74744
1.5515	6.44531
1.552	7.75452
1.5525	5.53894
1.553	3.02124
1.5535	1.91345
1.554	4.83398
1.5545	7.25098
1.555	4.33044
1.5555	5.0354
1.556	5.53894
1.5565	3.7262
1.557	6.3446
1.5575	6.84814
1.558	4.43115
1.5585	10.87646
1.559	8.45947
1.5595	9.97009
1.56	10.0708
1.5605	5.33752
1.561	5.53894
1.5615	3.92761
1.562	7.15027
1.5625	6.74744
1.563	5.33752
1.5635	7.5531
1.564	7.25098
1.5645	10.67505
1.565	8.45947
1.5655	6.54602
1.566	4.33044
1.5665	6.94885
1.567	5.53894
1.5675	0.80566
1.568	3.52478
1.5685	6.3446
1.569	10.27222
1.5695	6.84814
1.57	9.06372
1.5705	5.63965
1.571	1.00708
1.5715	-2.21558
1.572	2.71912
1.5725	2.01416
1.573	3.52478
1.5735	4.33044
1.574	1.61133
1.5745	-1.3092
1.575	5.23682
1.5755	-0.30212
1.576	2.92053
1.5765	5.23682
1.577	1.81274
1.5775	2.21558
1.578	4.93469
1.5785	9.06372
1.579	7.35168
1.5795	2.11487
1.58	2.21558
1.5805	2.5177
1.581	6.94885
1.5815	5.13611
1.582	5.63965
1.5825	6.84814
1.583	4.73328
1.5835	5.94177
1.584	8.15735
1.5845	6.04248
1.585	6.3446
1.5855	5.33752
1.586	5.23682
1.5865	8.25806
1.587	9.97009
1.5875	9.66797
1.588	6.94885
1.5885	8.25806
1.589	8.8623
1.5895	12.28638
1.59	11.88354
1.5905	6.14319
1.591	7.35168
1.5915	8.45947
1.592	11.68213
1.5925	7.65381
1.593	-0.80566
1.5935	9.16443
1.594	5.23682
1.5945	2.81982
1.595	4.43115
1.5955	6.54602
1.596	7.65381
1.5965	3.32336
1.597	4.22974
1.5975	10.87646
1.598	7.15027
1.5985	3.22266
1.599	2.92053
1.5995	8.56018
1.6	3.92761
1.6005	6.64673
1.601	7.04956
1.6015	8.7616
1.602	5.94177
1.6025	9.06372
1.603	9.86938
1.6035	11.98425
1.604	8.7616
1.6045	5.53894
1.605	5.43823
1.6055	8.45947
1.606	5.13611
1.6065	0.10071
1.607	1.81274
1.6075	1.40991
1.608	3.7262
1.6085	-1.40991
1.609	5.13611
1.6095	2.61841
1.61	0.80566
1.6105	1.40991
1.611	1.2085
1.6115	5.53894
1.612	5.74036
1.6125	5.33752
1.613	2.31628
1.6135	-0.20142
1.614	0
1.6145	8.56018
1.615	2.41699
1.6155	3.32336
1.616	5.43823
1.6165	-1.3092
1.617	7.25098
1.6175	2.41699
1.618	4.83398
1.6185	3.02124
1.619	6.84814
1.6195	3.62549
1.62	4.12903
1.6205	7.15027
1.621	3.92761
1.6215	0
1.622	7.65381
1.6225	2.61841
1.623	5.13611
1.6235	4.83398
1.624	6.84814
1.6245	3.8269
1.625	2.5177
1.6255	0
1.626	3.42407
1.6265	-4.22974
1.627	0.20142
1.6275	-4.73328
1.628	-1.91345
1.6285	-1.00708
1.629	-0.30212
1.6295	-0.50354
1.63	4.73328
1.6305	7.95593
1.631	6.2439
1.6315	5.13611
1.632	3.8269
1.6325	3.62549
1.633	4.43115
1.6335	1.3092
1.634	0.50354
1.6345	3.22266
1.635	6.14319
1.6355	7.75452
1.636	7.35168
1.6365	8.45947
1.637	15.20691
1.6375	12.28638
1.638	12.38708
1.6385	13.797
1.639	11.07788
1.6395	10.87646
1.64	6.64673
1.6405	5.53894
1.641	4.63257
1.6415	3.8269
1.642	5.33752
1.6425	5.43823
1.643	3.92761
1.6435	3.92761
1.644	7.45239
1.6445	5.13611
1.645	1.2085
1.6455	4.43115
1.646	4.02832
1.6465	0.30212
1.647	10.37292
1.6475	1.00708
1.648	1.81274
1.6485	3.12195
1.649	2.81982
1.6495	1.10779
1.65	12.5885
1.6505	10.57434
1.651	6.3446
1.6515	4.63257
1.652	14.09912
1.6525	8.7616
1.653	11.68213
1.6535	9.97009
1.654	13.19275
1.6545	16.21399
1.655	17.32178
1.6555	14.50195
1.656	18.73169
1.6565	23.66638
1.657	28.09753
1.6575	30.2124
1.658	30.01099
1.6585	23.26355
1.659	21.04797
1.6595	18.32886
1.66	18.53027
1.6605	16.91895
1.661	14.70337
1.6615	13.797
1.662	14.19983
1.6625	7.04956
1.663	8.05664
1.6635	7.95593
1.664	0.80566
1.6645	2.71912
1.665	-3.12195
1.6655	7.04956
1.666	6.84814
1.6665	4.73328
1.667	2.41699
1.6675	1.3092
1.668	7.85522
1.6685	7.65381
1.669	7.75452
1.6695	15.50903
1.67	18.02673
1.6705	24.37134
1.671	23.66638
1.6715	19.03381
1.672	19.13452
1.6725	17.32178
1.673	15.40833
1.6735	11.98425
1.674	8.8623
1.6745	7.15027
1.675	1.40991
1.6755	6.44531
1.676	1.2085
1.6765	-4.33044
1.677	-1.91345
1.6775	-7.25098
1.678	-2.11487
1.6785	-11.78284
1.679	-10.17151
1.6795	-7.65381
1.68	-14.60266
1.6805	-16.81824
1.681	-12.18567
1.6815	-8.25806
1.682	-7.25098
1.6825	-12.99133
1.683	-10.57434
1.6835	-16.3147
1.684	-13.99841
1.6845	-6.14319
1.685	-7.65381
1.6855	-2.71912
1.686	-3.8269
1.6865	-4.33044
1.687	-4.73328
1.6875	-0.10071
1.688	3.52478
1.6885	-1.61133
1.689	0.20142
1.6895	1.40991
1.69	-2.81982
1.6905	0.10071
1.691	4.12903
1.6915	2.41699
1.692	1.81274
1.6925	10.87646
1.693	0.70496
1.6935	3.52478
1.694	6.84814
1.6945	8.05664
1.695	9.26514
1.6955	4.43115
1.696	0.30212
1.6965	6.64673
1.697	4.83398
1.6975	3.7262
1.698	-0.60425
1.6985	0.70496
1.699	0.70496
1.6995	3.42407
1.7	3.52478
1.7005	8.66089
1.701	4.43115
1.7015	7.35168
1.702	11.38
1.7025	7.65381
1.703	9.97009
1.7035	14.40125
1.704	10.97717
1.7045	12.08496
1.705	11.17859
1.7055	17.82532
1.706	17.42249
1.7065	18.8324
1.707	16.41541
1.7075	20.54443
1.708	24.57275
1.7085	18.02673
1.709	20.84656
1.7095	20.34302
1.71	13.59558
1.7105	14.70337
1.711	10.67505
1.7115	12.38708
1.712	11.38
1.7125	10.77576
1.713	1.2085
1.7135	3.62549
1.714	4.53186
1.7145	7.45239
1.715	10.67505
1.7155	15.40833
1.716	5.43823
1.7165	1.3092
1.717	5.53894
1.7175	4.53186
1.718	2.71912
1.7185	6.84814
1.719	4.43115
1.7195	10.17151
1.72	9.46655
1.7205	12.78992
1.721	13.99841
1.7215	5.23682
1.722	7.5531
1.7225	9.36584
1.723	11.68213
1.7235	9.16443
1.724	9.06372
1.7245	12.5885
1.725	8.45947
1.7255	9.86938
1.726	7.75452
1.7265	7.15027
1.727	5.53894
1.7275	4.53186
1.728	4.12903
1.7285	2.01416
1.729	1.81274
1.7295	6.64673
1.73	5.33752
1.7305	-0.30212
1.731	5.74036
1.7315	0.70496
1.732	4.43115
1.7325	0.40283
1.733	0
1.7335	-0.40283
1.734	-4.22974
1.7345	-1.51062
1.735	8.66089
1.7355	9.76868
1.736	3.32336
1.7365	7.85522
1.737	5.43823
1.7375	-5.84106
1.738	-3.92761
1.7385	1.71204
1.739	-0.20142
1.7395	-5.53894
1.74	-4.22974
1.7405	-0.10071
1.741	0.10071
1.7415	-1.10779
1.742	-4.33044
1.7425	-10.27222
1.743	-7.25098
1.7435	-6.64673
1.744	-4.02832
1.7445	-7.15027
1.745	-4.33044
1.7455	-2.21558
1.746	0.90637
1.7465	2.31628
1.747	3.92761
1.7475	11.17859
1.748	11.07788
1.7485	14.80408
1.749	14.80408
1.7495	12.78992
1.75	17.01965
1.7505	10.37292
1.751	7.85522
1.7515	10.27222
1.752	10.27222
1.7525	11.58142
1.753	11.48071
1.7535	9.36584
1.754	13.09204
1.7545	8.7616
1.755	10.0708
1.7555	5.74036
1.756	11.78284
1.7565	15.00549
1.757	15.50903
1.7575	12.18567
1.758	8.7616
1.7585	7.45239
1.759	10.97717
1.7595	6.04248
1.76	7.95593
1.7605	9.97009
1.761	12.38708
1.7615	10.17151
1.762	4.33044
1.7625	14.30054
1.763	13.39417
1.7635	7.85522
1.764	12.48779
1.7645	7.65381
1.765	10.77576
1.7655	5.84106
1.766	3.8269
1.7665	3.42407
1.767	6.44531
1.7675	2.92053
1.768	-2.31628
1.7685	3.02124
1.769	1.10779
1.7695	-0.80566
1.77	-1.91345
1.7705	1.91345
1.771	-1.3092
1.7715	7.65381
1.772	3.12195
1.7725	2.5177
1.773	9.26514
1.7735	5.63965
1.774	6.3446
1.7745	11.78284
1.775	8.56018
1.7755	6.2439
1.776	8.15735
1.7765	8.8623
1.777	7.75452
1.7775	6.3446
1.778	7.25098
1.7785	3.8269
1.779	3.92761
1.7795	10.0708
1.78	9.06372
1.7805	10.97717
1.781	10.0708
1.7815	9.06372
1.782	5.23682
1.7825	11.88354
1.783	0.90637
1.7835	0.30212
1.784	5.63965
1.7845	0.90637
1.785	3.7262
1.7855	1.51062
1.786	4.53186
1.7865	0
1.787	2.41699
1.7875	-0.20142
1.788	-3.12195
1.7885	-3.7262
1.789	-3.22266
1.7895	-1.91345
1.79	-2.71912
1.7905	-3.52478
1.791	-1.00708
1.7915	-2.21558
1.792	-1.61133
1.7925	-0.80566
1.793	3.62549
1.7935	3.02124
1.794	1.81274
1.7945	0.90637
1.795	5.13611
1.7955	2.01416
1.796	6.14319
1.7965	10.87646
1.797	10.67505
1.7975	10.0708
1.798	4.63257
1.7985	5.13611
1.799	2.92053
1.7995	3.7262
1.8	10.27222
1.8005	8.15735
1.801	7.5531
1.8015	9.76868
1.802	10.37292
1.8025	1.40991
1.803	9.76868
1.8035	5.0354
1.804	6.74744
1.8045	12.28638
1.805	7.15027
1.8055	5.43823
1.806	3.52478
1.8065	5.23682
1.807	-2.41699
1.8075	-3.8269
1.808	-4.83398
1.8085	4.02832
1.809	1.61133
1.8095	7.5531
1.81	8.66089
1.8105	5.33752
1.811	10.57434
1.8115	7.85522
1.812	4.73328
1.8125	6.44531
1.813	2.31628
1.8135	2.61841
1.814	1.81274
1.8145	3.92761
1.815	6.14319
1.8155	3.12195
1.816	0.60425
1.8165	2.21558
1.817	2.41699
1.8175	1.2085
1.818	2.31628
1.8185	0.60425
1.819	2.11487
1.8195	8.96301
1.82	10.47363
1.8205	9.56726
1.821	10.57434
1.8215	8.8623
1.822	9.26514
1.8225	5.63965
1.823	8.45947
1.8235	7.25098
1.824	2.92053
1.8245	2.81982
1.825	4.22974
1.8255	3.42407
1.826	-2.41699
1.8265	0.40283
1.827	-0.20142
1.8275	-2.21558
1.828	-1.40991
1.8285	0.90637
1.829	-6.54602
1.8295	-4.73328
1.83	0.80566
1.8305	-3.92761
1.831	-0.80566
1.8315	-4.43115
1.832	-1.40991
1.8325	-1.61133
1.833	1.00708
1.8335	-1.2085
1.834	-0.10071
1.8345	7.65381
1.835	15.1062
1.8355	11.48071
1.836	19.73877
1.8365	20.24231
1.837	20.24231
1.8375	20.04089
1.838	20.84656
1.8385	16.21399
1.839	14.50195
1.8395	13.797
1.84	9.97009
1.8405	12.68921
1.841	12.78992
1.8415	10.67505
1.842	15.20691
1.8425	7.45239
1.843	12.68921
1.8435	8.66089
1.844	8.7616
1.8445	4.73328
1.845	6.2439
1.8455	6.64673
1.846	5.53894
1.8465	3.02124
1.847	3.42407
1.8475	1.91345
1.848	1.91345
1.8485	2.01416
1.849	6.54602
1.8495	5.94177
1.85	7.35168
1.8505	1.61133
1.851	5.33752
1.8515	3.22266
1.852	2.92053
1.8525	3.8269
1.853	8.56018
1.8535	6.64673
1.854	4.02832
1.8545	2.61841
1.855	-0.50354
1.8555	4.63257
1.856	0.90637
1.8565	-0.30212
1.857	-3.02124
1.8575	-1.10779
1.858	-3.42407
1.8585	-3.42407
1.859	-2.81982
1.8595	2.5177
1.86	3.62549
1.8605	5.13611
1.861	-0.50354
1.8615	6.04248
1.862	11.68213
1.8625	5.33752
1.863	11.88354
1.8635	7.15027
1.864	12.89062
1.8645	8.15735
1.865	10.57434
1.8655	7.95593
1.866	7.65381
1.8665	10.57434
1.867	8.96301
1.8675	11.17859
1.868	12.08496
1.8685	10.27222
1.869	18.32886
1.8695	10.17151
1.87	10.17151
1.8705	10.0708
1.871	10.47363
1.8715	4.93469
1.872	2.71912
1.8725	2.92053
1.873	5.33752
1.8735	-2.92053
1.874	0.20142
1.8745	-4.33044
1.875	-2.11487
1.8755	-0.10071
1.876	-8.35876
1.8765	-2.21558
1.877	4.22974
1.8775	2.81982
1.878	3.8269
1.8785	1.3092
1.879	5.13611
1.8795	4.43115
1.88	8.15735
1.8805	10.67505
1.881	3.42407
1.8815	4.33044
1.882	2.5177
1.8825	3.62549
1.883	3.22266
1.8835	2.61841
1.884	9.06372
1.8845	9.97009
1.885	14.40125
1.8855	9.06372
1.886	5.74036
1.8865	12.78992
1.887	15.91187
1.8875	11.2793
1.888	13.89771
1.8885	12.38708
1.889	14.19983
1.8895	9.56726
1.89	2.01416
1.8905	7.25098
1.891	5.84106
1.8915	0.80566
1.892	8.15735
1.8925	7.75452
1.893	4.53186
1.8935	5.13611
1.894	4.22974
1.8945	0.80566
1.895	-4.02832
1.8955	1.10779
1.896	-0.40283
1.8965	-0.60425
1.897	-1.3092
1.8975	2.01416
1.898	-8.7616
1.8985	0.90637
1.899	9.46655
1.8995	7.5531
1.9	8.35876
1.9005	13.49487
1.901	7.45239
1.9015	7.15027
1.902	1.81274
1.9025	8.35876
1.903	8.15735
1.9035	3.8269
1.904	0.20142
1.9045	0.30212
1.905	4.02832
1.9055	-1.61133
1.906	0.60425
1.9065	-0.20142
1.907	0.50354
1.9075	0.50354
1.908	1.71204
1.9085	4.93469
1.909	7.35168
1.9095	11.17859
1.91	6.54602
1.9105	7.04956
1.911	6.14319
1.9115	6.14319
1.912	4.33044
1.9125	7.65381
1.913	4.93469
1.9135	4.33044
1.914	8.25806
1.9145	6.3446
1.915	6.14319
1.9155	3.8269
1.916	6.84814
1.9165	0.10071
1.917	3.62549
1.9175	8.05664
1.918	2.71912
1.9185	6.64673
1.919	6.2439
1.9195	3.22266
1.92	3.42407
1.9205	3.42407
1.921	4.73328
1.9215	4.93469
1.922	6.04248
1.9225	5.94177
1.923	2.01416
1.9235	4.43115
1.924	-0.40283
1.9245	2.41699
1.925	3.12195
1.9255	5.13611
1.926	3.62549
1.9265	3.22266
1.927	3.32336
1.9275	2.81982
1.928	4.73328
1.9285	5.0354
1.929	3.12195
1.9295	-0.10071
1.93	0.50354
1.9305	2.31628
1.931	4.33044
1.9315	1.2085
1.932	3.42407
1.9325	0.40283
1.933	3.42407
1.9335	2.61841
1.934	4.53186
1.9345	3.12195
1.935	1.81274
1.9355	8.56018
1.936	4.53186
1.9365	3.8269
1.937	6.04248
1.9375	3.92761
1.938	5.0354
1.9385	0.40283
1.939	1.91345
1.9395	4.22974
1.94	3.62549
1.9405	-0.60425
1.941	8.66089
1.9415	6.2439
1.942	6.54602
1.9425	9.16443
1.943	3.12195
1.9435	0.20142
1.944	6.74744
1.9445	3.22266
1.945	5.63965
1.9455	8.05664
1.946	8.66089
1.9465	4.53186
1.947	8.05664
1.9475	2.21558
1.948	-1.81274
1.9485	4.53186
1.949	4.83398
1.9495	4.63257
1.95	9.16443
1.9505	9.66797
1.951	9.26514
1.9515	15.00549
1.952	17.32178
1.9525	13.797
1.953	9.86938
1.9535	12.89062
1.954	13.39417
1.9545	13.797
1.955	7.45239
1.9555	15.91187
1.956	16.21399
1.9565	16.51611
1.957	17.22107
1.9575	10.27222
1.958	12.5885
1.9585	7.65381
1.959	13.49487
1.9595	8.35876
1.96	9.36584
1.9605	3.8269
1.961	3.22266
1.9615	5.63965
1.962	0
1.9625	4.73328
1.963	1.40991
1.9635	5.63965
1.964	2.71912
1.9645	0.80566
1.965	3.52478
1.9655	-4.33044
1.966	-2.31628
1.9665	-4.02832
1.967	-2.11487
1.9675	-3.32336
1.968	-1.71204
1.9685	-1.00708
1.969	-1.91345
1.9695	-0.20142
1.97	4.02832
1.9705	1.10779
1.971	2.21558
1.9715	3.62549
1.972	3.8269
1.9725	0.10071
1.973	5.63965
1.9735	2.31628
1.974	1.2085
1.9745	-0.70496
1.975	-1.71204
1.9755	-2.31628
1.976	-4.43115
1.9765	-0.90637
1.977	0.20142
1.9775	1.40991
1.978	5.84106
1.9785	10.77576
1.979	6.44531
1.9795	10.17151
1.98	11.78284
1.9805	18.12744
1.981	8.66089
1.9815	7.75452
1.982	16.01257
1.9825	16.91895
1.983	13.39417
1.9835	9.76868
1.984	7.04956
1.9845	-0.30212
1.985	6.44531
1.9855	4.43115
1.986	8.96301
1.9865	10.77576
1.987	10.17151
1.9875	8.7616
1.988	8.8623
1.9885	4.12903
1.989	5.43823
1.9895	6.14319
1.99	2.71912
1.9905	6.14319
1.991	4.43115
1.9915	1.51062
1.992	2.92053
1.9925	2.81982
1.993	-1.91345
1.9935	1.40991
1.994	2.5177
1.9945	13.29346
1.995	5.74036
1.9955	8.7616
1.996	10.57434
1.9965	17.52319
1.997	18.32886
1.9975	18.93311
1.998	17.22107
1.9985	14.80408
1.999	16.61682
1.9995	13.797
2	13.39417
2.0005	6.54602
2.001	10.17151
2.0015	14.09912
2.002	9.36584
2.0025	6.3446
2.003	8.45947
2.0035	5.63965
2.004	11.17859
2.0045	12.28638
2.005	5.74036
2.0055	12.08496
2.006	11.17859
2.0065	9.97009
2.007	6.44531
2.0075	8.45947
2.008	8.15735
2.0085	2.11487
2.009	-1.51062
2.0095	1.71204
2.01	10.87646
2.0105	12.28638
2.011	14.90479
2.0115	12.99133
2.012	15.30762
2.0125	7.15027
2.013	7.04956
2.0135	4.73328
2.014	2.11487
2.0145	4.83398
2.015	2.31628
2.0155	-5.0354
2.016	-3.7262
2.0165	-7.65381
2.017	-3.32336
2.0175	-1.51062
2.018	3.42407
2.0185	5.33752
2.019	8.8623
2.0195	13.39417
2.02	7.5531
2.0205	9.97009
2.021	6.04248
2.0215	11.07788
2.022	11.07788
2.0225	6.2439
2.023	11.68213
2.0235	18.93311
2.024	11.48071
2.0245	-0.60425
2.025	6.2439
2.0255	5.23682
2.026	8.96301
2.0265	2.41699
2.027	3.7262
2.0275	6.94885
2.028	8.7616
2.0285	9.26514
2.029	11.38
2.0295	9.97009
2.03	9.56726
2.0305	18.42957
2.031	16.01257
2.0315	21.85364
2.032	19.73877
2.0325	20.34302
2.033	18.93311
2.0335	11.48071
2.034	3.92761
2.0345	3.7262
2.035	4.53186
2.0355	-0.40283
2.036	3.22266
2.0365	3.22266
2.037	2.5177
2.0375	6.2439
2.038	2.61841
2.0385	4.73328
2.039	2.31628
2.0395	5.53894
2.04	4.22974
2.0405	0.80566
2.041	-1.2085
2.0415	0.50354
2.042	-3.42407
2.0425	-5.43823
2.043	0.80566
2.0435	-1.81274
2.044	-7.75452
2.0445	-7.35168
2.045	-2.41699
2.0455	-6.54602
2.046	-2.31628
2.0465	-6.64673
2.047	-6.64673
2.0475	-2.41699
2.048	-3.22266
2.0485	2.41699
2.049	-2.41699
2.0495	-4.02832
2.05	-1.00708
2.0505	2.21558
2.051	6.2439
2.0515	7.35168
2.052	7.75452
2.0525	10.47363
2.053	-1.00708
2.0535	4.53186
2.054	7.95593
2.0545	10.77576
2.055	6.64673
2.0555	10.37292
2.056	13.29346
2.0565	12.38708
2.057	14.90479
2.0575	9.86938
2.058	5.33752
2.0585	5.74036
2.059	10.97717
2.0595	12.89062
2.06	4.22974
2.0605	8.15735
2.061	3.7262
2.0615	4.43115
2.062	1.2085
2.0625	2.21558
2.063	-0.30212
2.0635	-0.60425
2.064	-5.23682
2.0645	-2.5177
2.065	2.11487
2.0655	4.53186
2.066	8.35876
2.0665	15.81116
2.067	13.69629
2.0675	14.60266
2.068	16.11328
2.0685	14.70337
2.069	12.38708
2.0695	11.38
2.07	10.0708
2.0705	9.86938
2.071	11.07788
2.0715	5.43823
2.072	4.93469
2.0725	6.84814
2.073	7.85522
2.0735	8.8623
2.074	5.53894
2.0745	4.83398
2.075	5.23682
2.0755	5.74036
2.076	2.11487
2.0765	2.61841
2.077	4.33044
2.0775	5.74036
2.078	1.91345
2.0785	1.40991
2.079	0.30212
2.0795	1.71204
2.08	2.71912
2.0805	-0.70496
2.081	3.02124
2.0815	2.71912
2.082	-0.50354
2.0825	-1.91345
2.083	1.91345
2.0835	-1.81274
2.084	-5.74036
2.0845	0.60425
2.085	-1.40991
2.0855	0.50354
2.086	2.5177
2.0865	0
2.087	-2.41699
2.0875	0.10071
2.088	-6.04248
2.0885	-4.53186
2.089	2.81982
2.0895	-2.11487
2.09	4.43115
2.0905	3.42407
2.091	0.50354
2.0915	1.61133
2.092	-3.32336
2.0925	2.31628
2.093	2.41699
2.0935	3.62549
2.094	6.84814
2.0945	4.53186
2.095	6.2439
2.0955	11.2793
2.096	14.19983
2.0965	14.30054
2.097	15.1062
2.0975	15.00549
2.098	13.797
2.0985	13.49487
2.099	13.29346
2.0995	14.60266
2.1	9.46655
2.1005	5.13611
2.101	3.22266
2.1015	9.36584
2.102	10.47363
2.1025	8.45947
2.103	5.74036
2.1035	2.01416
2.104	6.2439
2.1045	8.35876
2.105	1.51062
2.1055	-2.81982
2.106	-7.5531
2.1065	-1.10779
2.107	-0.80566
2.1075	-1.40991
2.108	-0.20142
2.1085	0.10071
2.109	0.80566
2.1095	0.10071
2.11	2.61841
2.1105	7.04956
2.111	1.00708
2.1115	3.52478
2.112	5.33752
2.1125	0.30212
2.113	3.22266
2.1135	7.65381
2.114	6.94885
2.1145	2.41699
2.115	2.5177
2.1155	6.84814
2.116	7.25098
2.1165	10.27222
2.117	10.47363
2.1175	2.31628
2.118	5.94177
2.1185	7.45239
2.119	9.36584
2.1195	17.72461
2.12	18.02673
2.1205	16.3147
2.121	11.07788
2.1215	14.60266
2.122	13.59558
2.1225	10.77576
2.123	0.90637
2.1235	3.8269
2.124	1.3092
2.1245	9.36584
2.125	8.25806
2.1255	5.0354
2.126	-2.61841
2.1265	-1.3092
2.127	1.40991
2.1275	-0.10071
2.128	3.62549
2.1285	3.22266
2.129	3.52478
2.1295	6.04248
2.13	0.10071
2.1305	3.02124
2.131	5.63965
2.1315	5.33752
2.132	4.12903
2.1325	7.75452
2.133	11.2793
2.1335	13.89771
2.134	8.66089
2.1345	9.16443
2.135	2.5177
2.1355	-1.81274
2.136	-4.43115
2.1365	-5.63965
2.137	-2.01416
2.1375	0.90637
2.138	-7.5531
2.1385	-2.5177
2.139	-5.84106
2.1395	-1.10779
2.14	-4.12903
2.1405	-4.33044
2.141	2.92053
2.1415	5.0354
2.142	4.33044
2.1425	2.61841
2.143	6.2439
2.1435	-2.5177
2.144	0.70496
2.1445	12.99133
2.145	11.68213
2.1455	14.40125
2.146	18.93311
2.1465	21.65222
2.147	18.12744
2.1475	10.77576
2.148	16.61682
2.1485	10.97717
2.149	6.94885
2.1495	9.56726
2.15	6.94885
2.1505	8.56018
2.151	8.56018
2.1515	7.95593
2.152	2.31628
2.1525	2.01416
2.153	2.41699
2.1535	3.62549
2.154	-1.61133
2.1545	-3.02124
2.155	1.91345
2.1555	2.92053
2.156	-0.10071
2.1565	1.3092
2.157	6.94885
2.1575	5.43823
2.158	5.63965
2.1585	11.2793
2.159	9.46655
2.1595	14.60266
2.16	9.97009
2.1605	7.45239
2.161	12.38708
2.1615	12.18567
2.162	8.45947
2.1625	5.84106
2.163	11.78284
2.1635	8.25806
2.164	4.53186
2.1645	5.43823
2.165	8.8623
2.1655	3.22266
2.166	5.13611
2.1665	4.63257
2.167	4.63257
2.1675	0.90637
2.168	7.25098
2.1685	1.81274
2.169	5.0354
2.1695	1.2085
2.17	1.2085
2.1705	4.83398
2.171	9.46655
2.1715	11.2793
2.172	5.33752
2.1725	7.25098
2.173	7.75452
2.1735	8.15735
2.174	6.2439
2.1745	4.83398
2.175	3.02124
2.1755	3.22266
2.176	-2.11487
2.1765	10.37292
2.177	4.12903
2.1775	3.22266
2.178	-0.20142
2.1785	-0.40283
2.179	0.90637
2.1795	4.83398
2.18	9.76868
2.1805	6.44531
2.181	13.29346
2.1815	5.84106
2.182	4.83398
2.1825	3.52478
2.183	5.94177
2.1835	-0.10071
2.184	0.20142
2.1845	-1.2085
2.185	1.61133
2.1855	-1.61133
2.186	-1.71204
2.1865	3.7262
2.187	0.70496
2.1875	-2.41699
2.188	-0.70496
2.1885	4.33044
2.189	4.93469
2.1895	-4.22974
2.19	-0.60425
2.1905	-0.10071
2.191	2.71912
2.1915	2.11487
2.192	3.22266
2.1925	13.797
2.193	17.6239
2.1935	12.78992
2.194	13.99841
2.1945	13.99841
2.195	6.14319
2.1955	3.42407
2.196	0.90637
2.1965	4.53186
2.197	3.52478
2.1975	4.02832
2.198	2.92053
2.1985	1.91345
2.199	2.71912
2.1995	3.62549
2.2	10.77576
2.2005	7.25098
2.201	9.16443
2.2015	8.96301
2.202	7.35168
2.2025	7.75452
2.203	1.61133
2.2035	6.54602
2.204	13.99841
2.2045	11.98425
2.205	12.48779
2.2055	16.3147
2.206	16.51611
2.2065	9.36584
2.207	5.23682
2.2075	6.84814
2.208	6.3446
2.2085	4.02832
2.209	5.43823
2.2095	4.22974
2.21	17.12036
2.2105	17.82532
2.211	22.96143
2.2115	23.8678
2.212	23.16284
2.2125	16.61682
2.213	12.48779
2.2135	12.48779
2.214	6.54602
2.2145	4.93469
2.215	5.13611
2.2155	5.84106
2.216	6.2439
2.2165	-1.51062
2.217	2.92053
2.2175	-2.92053
2.218	-4.02832
2.2185	-7.95593
2.219	-8.7616
2.2195	-10.87646
2.22	-10.0708
2.2205	-10.67505
2.221	-5.94177
2.2215	0.90637
2.222	-0.70496
2.2225	2.81982
2.223	0.80566
2.2235	2.21558
2.224	0.70496
2.2245	4.73328
2.225	2.5177
2.2255	-1.40991
2.226	-2.31628
2.2265	1.40991
2.227	-2.92053
2.2275	-1.40991
2.228	1.00708
2.2285	1.71204
2.229	-0.20142
2.2295	-1.91345
2.23	-8.66089
2.2305	-1.71204
2.231	5.13611
2.2315	9.97009
2.232	9.26514
2.2325	11.98425
2.233	11.17859
2.2335	12.18567
2.234	11.98425
2.2345	16.51611
2.235	17.72461
2.2355	18.8324
2.236	21.04797
2.2365	21.3501
2.237	30.61523
2.2375	30.2124
2.238	22.76001
2.2385	26.48621
2.239	29.20532
2.2395	25.07629
2.24	20.74585
2.2405	22.6593
2.241	24.37134
2.2415	22.45789
2.242	16.51611
2.2425	11.2793
2.243	12.78992
2.2435	9.86938
2.244	11.17859
2.2445	11.2793
2.245	12.68921
2.2455	11.38
2.246	13.29346
2.2465	14.30054
2.247	8.45947
2.2475	5.13611
2.248	3.8269
2.2485	9.97009
2.249	-0.50354
2.2495	4.33044
2.25	0.40283
2.2505	-3.02124
2.251	-4.63257
2.2515	-3.32336
2.252	-7.45239
2.2525	-5.33752
2.253	-3.7262
2.2535	-3.32336
2.254	-8.05664
2.2545	-5.0354
2.255	-4.53186
2.2555	-6.84814
2.256	-1.40991
2.2565	-0.10071
2.257	4.33044
2.2575	7.5531
2.258	6.04248
2.2585	1.71204
2.259	-3.12195
2.2595	-2.01416
2.26	-6.54602
2.2605	-5.43823
2.261	-6.54602
2.2615	-6.54602
2.262	-6.44531
2.2625	-8.96301
2.263	0.50354
2.2635	2.21558
2.264	-5.0354
2.2645	-2.21558
2.265	2.21558
2.2655	4.12903
2.266	3.7262
2.2665	3.12195
2.267	1.3092
2.2675	7.15027
2.268	5.33752
2.2685	3.92761
2.269	1.10779
2.2695	-6.3446
2.27	1.40991
2.2705	-2.21558
2.271	-0.30212
2.2715	-0.10071
2.272	3.7262
2.2725	1.51062
2.273	6.64673
2.2735	12.18567
2.274	7.65381
2.2745	9.46655
2.275	6.14319
2.2755	5.63965
2.276	9.56726
2.2765	13.59558
2.277	12.08496
2.2775	15.91187
2.278	13.99841
2.2785	11.07788
2.279	11.58142
2.2795	7.75452
2.28	9.16443
2.2805	8.35876
2.281	6.44531
2.2815	12.28638
2.282	16.01257
2.2825	13.89771
2.283	7.75452
2.2835	7.85522
2.284	7.35168
2.2845	8.05664
2.285	3.32336
2.2855	6.04248
2.286	5.63965
2.2865	4.53186
2.287	8.05664
2.2875	9.46655
2.288	7.85522
2.2885	2.5177
2.289	6.94885
2.2895	6.74744
2.29	4.43115
2.2905	3.52478
2.291	4.93469
2.2915	4.83398
2.292	3.8269
2.2925	3.7262
2.293	9.06372
2.2935	9.36584
2.294	10.37292
2.2945	4.53186
2.295	5.53894
2.2955	6.3446
2.296	10.47363
2.2965	11.58142
2.297	11.38
2.2975	6.64673
2.298	8.96301
2.2985	4.73328
2.299	-1.81274
2.2995	0.20142
2.3	-1.91345
2.3005	1.3092
2.301	2.5177
2.3015	3.32336
2.302	12.99133
2.3025	9.06372
2.303	6.54602
2.3035	7.5531
2.304	2.31628
2.3045	8.66089
2.305	8.45947
2.3055	4.73328
2.306	11.98425
2.3065	9.56726
2.307	11.38
2.3075	10.37292
2.308	8.8623
2.3085	11.78284
2.309	10.97717
2.3095	11.2793
2.31	12.5885
2.3105	8.25806
2.311	13.49487
2.3115	12.5885
2.312	8.45947
2.3125	8.45947
2.313	7.35168
2.3135	8.66089
2.314	8.15735
2.3145	5.94177
2.315	3.7262
2.3155	-0.40283
2.316	-2.92053
2.3165	2.01416
2.317	-4.53186
2.3175	1.00708
2.318	0.50354
2.3185	7.35168
2.319	3.92761
2.3195	10.57434
2.32	4.93469
2.3205	7.65381
2.321	8.7616
2.3215	13.797
2.322	8.25806
2.3225	9.56726
2.323	12.28638
2.3235	12.38708
2.324	9.46655
2.3245	10.17151
2.325	15.40833
2.3255	16.81824
2.326	17.32178
2.3265	12.99133
2.327	18.22815
2.3275	16.61682
2.328	17.6239
2.3285	13.99841
2.329	16.21399
2.3295	16.71753
2.33	12.89062
2.3305	14.50195
2.331	17.12036
2.3315	11.2793
2.332	12.28638
2.3325	14.70337
2.333	8.8623
2.3335	9.76868
2.334	2.81982
2.3345	6.74744
2.335	11.38
2.3355	4.63257
2.336	6.3446
2.3365	10.17151
2.337	8.66089
2.3375	12.5885
2.338	9.36584
2.3385	9.26514
2.339	5.94177
2.3395	11.68213
2.34	13.29346
2.3405	10.87646
2.341	6.74744
2.3415	8.45947
2.342	4.63257
2.3425	6.94885
2.343	7.95593
2.3435	3.32336
2.344	6.54602
2.3445	4.33044
2.345	3.7262
2.3455	2.41699
2.346	6.44531
2.3465	4.12903
2.347	2.5177
2.3475	3.12195
2.348	0.70496
2.3485	4.33044
2.349	-1.61133
2.3495	0.60425
2.35	2.21558
2.3505	4.63257
2.351	3.42407
2.3515	5.43823
2.352	7.35168
2.3525	2.92053
2.353	0.70496
2.3535	3.12195
2.354	-0.10071
2.3545	-0.80566
2.355	-2.41699
2.3555	-1.51062
2.356	-5.23682
2.3565	0.10071
2.357	-3.12195
2.3575	-1.71204
2.358	-6.3446
2.3585	-1.2085
2.359	3.12195
2.3595	1.40991
2.36	8.05664
2.3605	2.61841
2.361	3.92761
2.3615	-1.00708
2.362	-1.10779
2.3625	4.43115
2.363	2.31628
2.3635	7.75452
2.364	6.64673
2.3645	4.12903
2.365	1.61133
2.3655	2.61841
2.366	3.12195
2.3665	1.61133
2.367	5.74036
2.3675	2.92053
2.368	0.80566
2.3685	1.71204
2.369	7.04956
2.3695	8.35876
2.37	4.22974
2.3705	4.02832
2.371	7.04956
2.3715	10.17151
2.372	6.74744
2.3725	7.85522
2.373	6.94885
2.3735	9.16443
2.374	3.8269
2.3745	0.70496
2.375	5.13611
2.3755	4.93469
2.376	1.61133
2.3765	0.90637
2.377	1.81274
2.3775	-3.22266
2.378	-3.02124
2.3785	3.12195
2.379	7.85522
2.3795	5.84106
2.38	3.92761
2.3805	-2.92053
2.381	1.10779
2.3815	4.33044
2.382	3.32336
2.3825	0.50354
2.383	0.10071
2.3835	-3.62549
2.384	-1.81274
2.3845	-4.02832
2.385	2.21558
2.3855	-1.00708
2.386	-8.15735
2.3865	-5.23682
2.387	-5.13611
2.3875	0.20142
2.388	3.22266
2.3885	0.70496
2.389	5.43823
2.3895	6.74744
2.39	1.10779
2.3905	-1.00708
2.391	3.52478
2.3915	-1.91345
2.392	4.83398
2.3925	7.75452
2.393	2.5177
2.3935	6.64673
2.394	4.83398
2.3945	6.44531
2.395	5.43823
2.3955	-1.71204
2.396	4.12903
2.3965	0.90637
2.397	-1.40991
2.3975	-1.61133
2.398	0.50354
2.3985	-2.21558
2.399	-2.01416
2.3995	0
2.4	3.12195
2.4005	1.71204
2.401	2.5177
2.4015	4.93469
2.402	10.67505
2.4025	6.94885
2.403	4.53186
2.4035	0.90637
2.404	2.71912
2.4045	9.26514
2.405	7.25098
2.4055	5.63965
2.406	7.95593
2.4065	6.84814
2.407	0.70496
2.4075	7.35168
2.408	8.56018
2.4085	5.13611
2.409	6.84814
2.4095	9.36584
2.41	12.68921
2.4105	13.69629
2.411	10.57434
2.4115	7.5531
2.412	9.76868
2.4125	12.99133
2.413	7.45239
2.4135	5.74036
2.414	10.47363
2.4145	7.5531
2.415	6.04248
2.4155	7.35168
2.416	6.04248
2.4165	9.26514
2.417	2.11487
2.4175	8.15735
2.418	7.65381
2.4185	4.22974
2.419	0
2.4195	0.90637
2.42	8.8623
2.4205	13.59558
2.421	4.12903
2.4215	8.7616
2.422	4.22974
2.4225	7.45239
2.423	4.12903
2.4235	3.22266
2.424	7.04956
2.4245	5.23682
2.425	4.43115
2.4255	6.2439
2.426	-0.40283
2.4265	4.33044
2.427	3.92761
2.4275	2.41699
2.428	12.89062
2.4285	11.98425
2.429	5.33752
2.4295	7.75452
2.43	3.42407
2.4305	10.37292
2.431	5.53894
2.4315	9.36584
2.432	3.8269
2.4325	7.95593
2.433	5.63965
2.4335	3.22266
2.434	6.64673
2.4345	10.97717
2.435	5.94177
2.4355	5.13611
2.436	3.32336
2.4365	6.3446
2.437	3.32336
2.4375	-0.10071
2.438	2.61841
2.4385	-4.22974
2.439	-2.92053
2.4395	-1.51062
2.44	2.81982
2.4405	-0.40283
2.441	2.81982
2.4415	0.40283
2.442	5.33752
2.4425	9.86938
2.443	5.74036
2.4435	3.8269
2.444	-0.60425
2.4445	2.01416
2.445	-2.21558
2.4455	3.12195
2.446	4.63257
2.4465	-3.32336
2.447	4.33044
2.4475	1.3092
2.448	3.42407
2.4485	-3.02124
2.449	1.71204
2.4495	4.12903
2.45	7.25098
2.4505	8.15735
2.451	6.2439
2.4515	4.43115
2.452	5.94177
2.4525	2.71912
2.453	1.10779
2.4535	6.2439
2.454	5.63965
2.4545	12.99133
2.455	3.7262
2.4555	5.74036
2.456	14.30054
2.4565	7.45239
2.457	6.64673
2.4575	2.31628
2.458	8.7616
2.4585	4.53186
2.459	7.25098
2.4595	7.65381
2.46	9.46655
2.4605	5.84106
2.461	2.01416
2.4615	3.12195
2.462	2.92053
2.4625	8.66089
2.463	12.99133
2.4635	8.05664
2.464	13.09204
2.4645	3.62549
2.465	6.2439
2.4655	-0.10071
2.466	5.13611
2.4665	6.2439
2.467	8.66089
2.4675	4.12903
2.468	7.04956
2.4685	10.67505
2.469	5.74036
2.4695	10.0708
2.47	9.16443
2.4705	6.3446
2.471	7.95593
2.4715	4.93469
2.472	6.64673
2.4725	8.56018
2.473	5.94177
2.4735	10.47363
2.474	11.68213
2.4745	9.26514
2.475	8.96301
2.4755	7.65381
2.476	11.2793
2.4765	7.85522
2.477	11.88354
2.4775	7.15027
2.478	8.56018
2.4785	8.25806
2.479	13.89771
2.4795	10.27222
2.48	9.26514
2.4805	4.33044
2.481	5.23682
2.4815	-1.91345
2.482	7.35168
2.4825	0.80566
2.483	-2.81982
2.4835	3.12195
2.484	5.33752
2.4845	0.50354
2.485	2.61841
2.4855	2.92053
2.486	4.02832
2.4865	2.31628
2.487	1.40991
2.4875	6.14319
2.488	4.63257
2.4885	4.53186
2.489	2.31628
2.4895	0.90637
2.49	1.91345
2.4905	5.84106
2.491	0.60425
2.4915	4.93469
2.492	4.02832
2.4925	1.81274
2.493	7.15027
2.4935	5.94177
2.494	4.53186
2.4945	7.04956
2.495	8.45947
2.4955	4.83398
2.496	4.53186
2.4965	8.66089
2.497	4.83398
2.4975	7.75452
2.498	1.2085
2.4985	2.71912
2.499	4.22974
2.4995	13.19275
2.5	4.02832
2.5005	4.12903
2.501	3.7262
2.5015	5.43823
2.502	-1.3092
2.5025	4.83398
2.503	0.90637
2.5035	8.56018
2.504	3.12195
2.5045	3.7262
2.505	2.92053
2.5055	3.7262
2.506	8.25806
2.5065	3.42407
2.507	7.04956
2.5075	5.43823
2.508	6.14319
2.5085	5.23682
2.509	7.95593
2.5095	5.0354
2.51	2.81982
2.5105	8.7616
2.511	5.23682
2.5115	4.43115
2.512	8.96301
2.5125	10.0708
2.513	9.46655
2.5135	9.76868
2.514	10.17151
2.5145	12.99133
2.515	13.89771
2.5155	3.92761
2.516	3.52478
2.5165	5.13611
2.517	5.0354
2.5175	0.10071
2.518	3.62549
2.5185	3.42407
2.519	4.93469
2.5195	5.53894
2.52	-3.02124
2.5205	-1.2085
2.521	5.74036
2.5215	3.92761
2.522	8.15735
2.5225	0.30212
2.523	0.30212
2.5235	-1.71204
2.524	7.15027
2.5245	2.71912
2.525	6.84814
2.5255	1.40991
2.526	4.43115
2.5265	2.61841
2.527	2.92053
2.5275	2.11487
2.528	2.61841
2.5285	4.33044
2.529	5.63965
2.5295	3.22266
2.53	2.92053
2.5305	12.48779
2.531	8.66089
2.5315	-0.30212
2.532	3.62549
2.5325	0.70496
2.533	1.81274
2.5335	0.50354
2.534	4.22974
2.5345	5.94177
2.535	2.01416
2.5355	6.84814
2.536	7.5531
2.5365	6.94885
2.537	9.66797
2.5375	4.53186
2.538	9.46655
2.5385	7.95593
2.539	7.35168
2.5395	10.57434
2.54	11.07788
2.5405	7.95593
2.541	8.25806
2.5415	6.14319
2.542	7.35168
2.5425	12.48779
2.543	-0.60425
2.5435	3.22266
2.544	2.71912
2.5445	0.60425
2.545	1.91345
2.5455	2.21558
2.546	3.52478
2.5465	4.63257
2.547	6.3446
2.5475	7.04956
2.548	5.94177
2.5485	5.33752
2.549	6.94885
2.5495	7.35168
2.55	9.46655
2.5505	6.84814
2.551	6.84814
2.5515	7.5531
2.552	6.14319
2.5525	6.04248
2.553	2.5177
2.5535	4.12903
2.554	6.64673
2.5545	7.45239
2.555	11.68213
2.5555	7.95593
2.556	3.92761
2.5565	0
2.557	-1.71204
2.5575	-1.2085
2.558	0.10071
2.5585	1.61133
2.559	-2.41699
2.5595	-6.14319
2.56	1.2085
2.5605	-1.40991
2.561	2.11487
2.5615	0.20142
2.562	4.93469
2.5625	0.10071
2.563	4.22974
2.5635	-0.70496
2.564	0.40283
2.5645	7.25098
2.565	4.53186
2.5655	9.76868
2.566	7.25098
2.5665	8.15735
2.567	6.94885
2.5675	5.13611
2.568	4.12903
2.5685	6.44531
2.569	3.92761
2.5695	9.97009
2.57	7.5531
2.5705	11.88354
2.571	3.32336
2.5715	3.22266
2.572	7.45239
2.5725	1.61133
2.573	0.50354
2.5735	0
2.574	1.61133
2.5745	1.81274
2.575	1.00708
2.5755	4.12903
2.576	4.22974
2.5765	2.71912
2.577	1.91345
2.5775	0.50354
2.578	-0.50354
2.5785	2.41699
2.579	3.62549
2.5795	5.84106
2.58	1.91345
2.5805	-1.81274
2.581	0.50354
2.5815	-5.84106
2.582	-1.91345
2.5825	0.50354
2.583	1.2085
2.5835	1.51062
2.584	-0.50354
2.5845	-3.8269
2.585	-1.81274
2.5855	0.60425
2.586	1.2085
2.5865	4.22974
2.587	0.80566
2.5875	6.94885
2.588	-0.90637
2.5885	3.42407
2.589	4.53186
2.5895	0.60425
2.59	-2.41699
2.5905	1.3092
2.591	0.60425
2.5915	1.10779
2.592	4.33044
2.5925	-0.20142
2.593	-1.91345
2.5935	4.22974
2.594	1.91345
2.5945	1.3092
2.595	5.43823
2.5955	4.22974
2.596	-2.11487
2.5965	7.75452
2.597	9.46655
2.5975	12.68921
2.598	7.45239
2.5985	10.67505
2.599	14.50195
2.5995	11.88354
2.6	3.22266
2.6005	4.73328
2.601	9.16443
2.6015	6.84814
2.602	3.42407
2.6025	0.20142
2.603	2.31628
2.6035	3.62549
2.604	5.0354
2.6045	7.95593
2.605	6.14319
2.6055	9.06372
2.606	10.47363
2.6065	0.80566
2.607	4.53186
2.6075	5.0354
2.608	6.94885
2.6085	8.05664
2.609	9.86938
2.6095	6.3446
2.61	4.12903
2.6105	4.43115
2.611	6.2439
2.6115	6.14319
2.612	4.63257
2.6125	6.14319
2.613	5.23682
2.6135	10.47363
2.614	7.85522
2.6145	9.76868
2.615	5.74036
2.6155	1.81274
2.616	-2.61841
2.6165	-5.63965
2.617	-2.31628
2.6175	5.84106
2.618	4.33044
2.6185	6.3446
2.619	2.61841
2.6195	7.5531
2.62	10.67505
2.6205	10.47363
2.621	11.98425
2.6215	13.797
2.622	10.87646
2.6225	8.35876
2.623	7.85522
2.6235	8.7616
2.624	5.94177
2.6245	11.07788
2.625	12.89062
2.6255	8.35876
2.626	5.74036
2.6265	6.74744
2.627	10.37292
2.6275	5.74036
2.628	7.04956
2.6285	0.90637
2.629	8.05664
2.6295	2.81982
2.63	1.81274
2.6305	3.8269
2.631	1.51062
2.6315	2.92053
2.632	3.62549
2.6325	0.90637
2.633	1.71204
2.6335	7.85522
2.634	9.36584
2.6345	3.8269
2.635	8.05664
2.6355	7.15027
2.636	4.22974
2.6365	11.68213
2.637	15.50903
2.6375	17.42249
2.638	13.59558
2.6385	7.15027
2.639	2.21558
2.6395	4.43115
2.64	7.04956
2.6405	1.3092
2.641	4.63257
2.6415	1.3092
2.642	3.92761
2.6425	1.40991
2.643	3.22266
2.6435	10.27222
2.644	11.58142
2.6445	12.48779
2.645	10.47363
2.6455	4.83398
2.646	6.44531
2.6465	12.78992
2.647	9.86938
2.6475	4.33044
2.648	6.74744
2.6485	5.43823
2.649	7.25098
2.6495	5.23682
2.65	8.15735
2.6505	7.85522
2.651	9.86938
2.6515	6.94885
2.652	4.63257
2.6525	8.25806
2.653	9.46655
2.6535	6.54602
2.654	7.65381
2.6545	3.92761
2.655	5.84106
2.6555	9.97009
2.656	6.2439
2.6565	10.0708
2.657	14.40125
2.6575	9.36584
2.658	8.66089
2.6585	9.56726
2.659	6.2439
2.6595	4.93469
2.66	3.22266
2.6605	3.8269
2.661	7.04956
2.6615	5.0354
2.662	3.92761
2.6625	2.61841
2.663	1.91345
2.6635	4.53186
2.664	2.71912
2.6645	11.88354
2.665	7.75452
2.6655	6.64673
2.666	11.2793
2.6665	13.19275
2.667	13.69629
2.6675	13.29346
2.668	6.94885
2.6685	9.26514
2.669	8.45947
2.6695	8.15735
2.67	10.47363
2.6705	9.36584
2.671	11.17859
2.6715	10.0708
2.672	6.2439
2.6725	8.45947
2.673	4.33044
2.6735	4.53186
2.674	-0.80566
2.6745	-0.80566
2.675	-5.63965
2.6755	0.30212
2.676	3.12195
2.6765	1.61133
2.677	6.14319
2.6775	4.63257
2.678	4.33044
2.6785	8.96301
2.679	5.23682
2.6795	4.53186
2.68	9.06372
2.6805	7.85522
2.681	8.45947
2.6815	6.04248
2.682	5.94177
2.6825	5.94177
2.683	2.61841
2.6835	7.75452
2.684	4.93469
2.6845	1.40991
2.685	-0.90637
2.6855	2.11487
2.686	3.92761
2.6865	-5.84106
2.687	-2.21558
2.6875	-2.92053
2.688	3.92761
2.6885	4.43115
2.689	3.52478
2.6895	-0.40283
2.69	2.81982
2.6905	-1.81274
2.691	4.53186
2.6915	6.54602
2.692	2.11487
2.6925	6.2439
2.693	-3.22266
2.6935	3.32336
2.694	2.5177
2.6945	6.14319
2.695	6.14319
2.6955	3.12195
2.696	5.84106
2.6965	13.19275
2.697	10.37292
2.6975	8.66089
2.698	9.86938
2.6985	5.13611
2.699	2.41699
2.6995	7.65381
2.7	14.90479
2.7005	10.97717
2.701	12.38708
2.7015	6.2439
2.702	6.2439
2.7025	8.45947
2.703	9.76868
2.7035	7.15027
2.704	2.5177
2.7045	6.44531
2.705	12.78992
2.7055	12.89062
2.706	10.77576
2.7065	5.63965
2.707	4.73328
2.7075	9.97009
2.708	3.8269
2.7085	3.62549
2.709	4.12903
2.7095	7.65381
2.71	6.44531
2.7105	6.3446
2.711	0.20142
2.7115	5.13611
2.712	4.63257
2.7125	3.42407
2.713	3.92761
2.7135	5.13611
2.714	1.71204
2.7145	0.40283
2.715	4.93469
2.7155	-0.30212
2.716	3.22266
2.7165	3.02124
2.717	3.02124
2.7175	3.7262
2.718	0.70496
2.7185	6.14319
2.719	-2.21558
2.7195	-2.5177
2.72	1.40991
2.7205	3.42407
2.721	6.94885
2.7215	9.66797
2.722	16.81824
2.7225	13.09204
2.723	9.46655
2.7235	6.04248
2.724	7.25098
2.7245	6.54602
2.725	13.89771
2.7255	11.88354
2.726	9.26514
2.7265	11.17859
2.727	9.86938
2.7275	3.8269
2.728	4.53186
2.7285	9.06372
2.729	6.2439
2.7295	1.61133
2.73	4.22974
2.7305	7.04956
2.731	11.2793
2.7315	3.92761
2.732	-0.30212
2.7325	-1.2085
2.733	1.2085
2.7335	-1.00708
2.734	-5.43823
2.7345	-5.74036
2.735	-1.61133
2.7355	-1.71204
2.736	-1.81274
2.7365	-4.83398
2.737	0.60425
2.7375	4.43115
2.738	4.83398
2.7385	2.92053
2.739	5.53894
2.7395	4.22974
2.74	2.21558
2.7405	5.94177
2.741	1.51062
2.7415	8.25806
2.742	4.53186
2.7425	-1.91345
2.743	5.94177
2.7435	6.64673
2.744	9.76868
2.7445	6.3446
2.745	6.64673
2.7455	10.17151
2.746	10.17151
2.7465	5.63965
2.747	1.71204
2.7475	4.02832
2.748	4.22974
2.7485	8.05664
2.749	3.7262
2.7495	2.41699
2.75	7.65381
2.7505	5.63965
2.751	5.13611
2.7515	4.22974
2.752	3.12195
2.7525	6.14319
2.753	6.64673
2.7535	3.62549
2.754	3.92761
2.7545	7.5531
2.755	8.7616
2.7555	10.77576
2.756	10.67505
2.7565	7.5531
2.757	4.83398
2.7575	8.66089
2.758	9.56726
2.7585	8.05664
2.759	-1.71204
2.7595	-0.60425
2.76	-1.81274
2.7605	4.83398
2.761	1.3092
2.7615	-5.13611
2.762	0.20142
2.7625	4.12903
2.763	4.22974
2.7635	3.7262
2.764	5.63965
2.7645	2.61841
2.765	3.92761
2.7655	5.94177
2.766	3.42407
2.7665	2.01416
2.767	4.83398
2.7675	7.35168
2.768	0.60425
2.7685	1.3092
2.769	5.13611
2.7695	5.0354
2.77	-3.02124
2.7705	3.52478
2.771	7.5531
2.7715	9.66797
2.772	8.8623
2.7725	6.74744
2.773	10.17151
2.7735	2.61841
2.774	1.71204
2.7745	8.66089
2.775	5.74036
2.7755	5.94177
2.776	6.64673
2.7765	10.17151
2.777	10.37292
2.7775	8.15735
2.778	10.97717
2.7785	7.75452
2.779	7.65381
2.7795	8.96301
2.78	4.02832
2.7805	2.5177
2.781	3.12195
2.7815	1.40991
2.782	2.21558
2.7825	4.22974
2.783	8.45947
2.7835	7.65381
2.784	6.14319
2.7845	8.8623
2.785	9.36584
2.7855	9.46655
2.786	3.22266
2.7865	0.50354
2.787	2.01416
2.7875	3.62549
2.788	4.22974
2.7885	7.65381
2.789	9.06372
2.7895	8.15735
2.79	6.2439
2.7905	4.53186
2.791	6.84814
2.7915	4.53186
2.792	10.47363
2.7925	8.15735
2.793	8.05664
2.7935	8.96301
2.794	5.94177
2.7945	4.63257
2.795	6.14319
2.7955	7.04956
2.796	5.0354
2.7965	4.33044
2.797	7.25098
2.7975	5.84106
2.798	7.5531
2.7985	2.21558
2.799	3.92761
2.7995	3.8269
2.8	4.53186
2.8005	2.92053
2.801	2.41699
2.8015	1.81274
2.802	5.33752
2.8025	4.22974
2.803	6.04248
2.8035	4.02832
2.804	5.43823
2.8045	4.83398
2.805	4.63257
2.8055	9.16443
2.806	10.37292
2.8065	4.33044
2.807	3.52478
2.8075	4.43115
2.808	7.15027
2.8085	6.2439
2.809	7.04956
2.8095	2.61841
2.81	4.02832
2.8105	4.33044
2.811	4.93469
2.8115	4.53186
2.812	10.17151
2.8125	6.44531
2.813	11.07788
2.8135	9.56726
2.814	8.05664
2.8145	8.56018
2.815	7.25098
2.8155	8.45947
2.816	9.36584
2.8165	8.66089
2.817	9.26514
2.8175	8.05664
2.818	11.98425
2.8185	8.25806
2.819	6.54602
2.8195	4.53186
2.82	3.7262
2.8205	2.41699
2.821	3.62549
2.8215	2.71912
2.822	3.8269
2.8225	3.7262
2.823	-0.30212
2.8235	5.74036
2.824	8.35876
2.8245	3.12195
2.825	1.91345
2.8255	4.93469
2.826	3.52478
2.8265	4.02832
2.827	6.04248
2.8275	2.11487
2.828	3.32336
2.8285	7.45239
2.829	3.42407
2.8295	2.41699
2.83	5.43823
2.8305	5.84106
2.831	2.41699
2.8315	5.84106
2.832	9.86938
2.8325	7.04956
2.833	7.15027
2.8335	5.33752
2.834	4.63257
2.8345	8.05664
2.835	9.56726
2.8355	11.38
2.836	4.53186
2.8365	8.05664
2.837	1.00708
2.8375	5.63965
2.838	7.25098
2.8385	9.06372
2.839	4.22974
2.8395	4.93469
2.84	7.85522
2.8405	5.23682
2.841	8.96301
2.8415	6.94885
2.842	7.95593
2.8425	8.56018
2.843	10.87646
2.8435	14.19983
2.844	13.49487
2.8445	6.04248
2.845	12.48779
2.8455	4.53186
2.846	7.75452
2.8465	9.46655
2.847	8.25806
2.8475	5.63965
2.848	11.2793
2.8485	10.47363
2.849	8.8623
2.8495	9.06372
2.85	8.15735
2.8505	4.73328
2.851	4.73328
2.8515	3.7262
2.852	0.80566
2.8525	4.22974
2.853	9.76868
2.8535	8.15735
2.854	8.8623
2.8545	8.05664
2.855	3.52478
2.8555	2.21558
2.856	9.16443
2.8565	6.04248
2.857	6.74744
2.8575	4.02832
2.858	7.5531
2.8585	4.12903
2.859	6.04248
2.8595	7.25098
2.86	3.02124
2.8605	3.02124
2.861	1.3092
2.8615	2.61841
2.862	1.2085
2.8625	8.66089
2.863	3.02124
2.8635	4.12903
2.864	2.11487
2.8645	-0.90637
2.865	1.91345
2.8655	8.66089
2.866	7.35168
2.8665	9.97009
2.867	7.5531
2.8675	6.3446
2.868	9.46655
2.8685	10.67505
2.869	11.2793
2.8695	7.15027
2.87	4.22974
2.8705	10.27222
2.871	12.78992
2.8715	15.30762
2.872	11.58142
2.8725	16.61682
2.873	13.09204
2.8735	8.15735
2.874	9.97009
2.8745	7.15027
2.875	5.53894
2.8755	5.43823
2.876	7.04956
2.8765	2.01416
2.877	10.67505
2.8775	5.23682
2.878	5.63965
2.8785	5.13611
2.879	4.83398
2.8795	2.92053
2.88	6.94885
2.8805	-0.90637
2.881	4.53186
2.8815	3.22266
2.882	10.87646
2.8825	8.05664
2.883	6.3446
2.8835	4.43115
2.884	6.04248
2.8845	0.30212
2.885	8.35876
2.8855	4.83398
2.886	1.00708
2.8865	5.84106
2.887	3.02124
2.8875	8.45947
2.888	1.40991
2.8885	7.15027
2.889	6.64673
2.8895	6.84814
2.89	7.15027
2.8905	0.60425
2.891	4.33044
2.8915	3.92761
2.892	1.81274
2.8925	1.2085
2.893	-1.10779
2.8935	-2.11487
2.894	1.51062
2.8945	-1.3092
2.895	1.81274
2.8955	3.62549
2.896	4.83398
2.8965	4.12903
2.897	3.7262
2.8975	6.64673
2.898	11.68213
2.8985	8.96301
2.899	5.63965
2.8995	5.53894
2.9	2.92053
2.9005	5.94177
2.901	8.56018
2.9015	4.02832
2.902	1.91345
2.9025	6.3446
2.903	6.14319
2.9035	6.84814
2.904	7.5531
2.9045	3.92761
2.905	3.62549
2.9055	2.21558
2.906	0.60425
2.9065	-5.94177
2.907	-6.94885
2.9075	0.30212
2.908	-4.43115
2.9085	-2.41699
2.909	-3.22266
2.9095	-3.92761
2.91	-1.00708
2.9105	1.3092
2.911	-1.10779
2.9115	-4.12903
2.912	-0.50354
2.9125	-4.12903
2.913	-5.84106
2.9135	-4.63257
2.914	-6.14319
2.9145	-1.91345
2.915	-0.10071
2.9155	-8.7616
2.916	-0.20142
2.9165	-6.84814
2.917	-5.94177
2.9175	-2.61841
2.918	4.22974
2.9185	11.17859
2.919	17.32178
2.9195	18.63098
2.92	21.95435
2.9205	18.53027
2.921	22.76001
2.9215	15.1062
2.922	21.95435
2.9225	17.32178
2.923	13.19275
2.9235	13.797
2.924	12.89062
2.9245	12.38708
2.925	15.60974
2.9255	8.15735
2.926	4.43115
2.9265	6.14319
2.927	3.92761
2.9275	11.58142
2.928	10.97717
2.9285	7.5531
2.929	3.12195
2.9295	9.26514
2.93	2.71912
2.9305	9.36584
2.931	4.63257
2.9315	5.84106
2.932	5.74036
2.9325	8.8623
2.933	18.42957
2.9335	19.13452
2.934	23.56567
2.9345	16.91895
2.935	19.53735
2.9355	15.91187
2.936	11.98425
2.9365	19.13452
2.937	22.76001
2.9375	21.65222
2.938	14.70337
2.9385	19.83948
2.939	15.81116
2.9395	22.55859
2.94	23.26355
2.9405	16.81824
2.941	21.14868
2.9415	20.44373
2.942	24.16992
2.9425	23.06213
2.943	24.27063
2.9435	18.32886
2.944	18.12744
2.9445	17.72461
2.945	19.13452
2.9455	15.20691
2.946	17.12036
2.9465	18.73169
2.947	16.41541
2.9475	13.09204
2.948	13.49487
2.9485	12.08496
2.949	8.7616
2.9495	8.25806
2.95	9.97009
2.9505	11.17859
2.951	12.28638
2.9515	9.06372
2.952	7.35168
2.9525	9.56726
2.953	4.02832
2.9535	3.92761
2.954	1.61133
2.9545	5.13611
2.955	2.5177
2.9555	5.43823
2.956	7.25098
2.9565	5.43823
2.957	5.84106
2.9575	1.91345
2.958	4.93469
2.9585	-1.81274
2.959	-2.61841
2.9595	3.7262
2.96	-1.3092
2.9605	3.12195
2.961	1.71204
2.9615	1.10779
2.962	5.84106
2.9625	5.94177
2.963	7.04956
2.9635	1.51062
2.964	-0.70496
2.9645	0.60425
2.965	-4.33044
2.9655	0.60425
2.966	7.65381
2.9665	2.31628
2.967	3.7262
2.9675	9.16443
2.968	12.48779
2.9685	6.84814
2.969	7.35168
2.9695	4.63257
2.97	6.2439
2.9705	2.41699
2.971	-2.5177
2.9715	-4.22974
2.972	-4.63257
2.9725	-1.81274
2.973	-0.60425
2.9735	-1.10779
2.974	-4.02832
2.9745	-1.3092
2.975	-2.61841
2.9755	-3.62549
2.976	-3.42407
2.9765	-3.12195
2.977	2.81982
2.9775	0.80566
2.978	-1.51062
2.9785	-2.81982
2.979	-6.84814
2.9795	-4.43115
2.98	-4.43115
2.9805	-5.63965
2.981	-2.71912
2.9815	-2.41699
2.982	-3.22266
2.9825	1.61133
2.983	-2.21558
2.9835	-3.32336
2.984	-4.63257
2.9845	-5.0354
2.985	-3.32336
2.9855	-1.61133
2.986	-0.10071
2.9865	-6.3446
2.987	-5.33752
2.9875	-2.31628
2.988	0.20142
2.9885	2.41699
2.989	-0.40283
2.9895	0.80566
2.99	-1.10779
2.9905	4.93469
2.991	-0.30212
2.9915	0.50354
2.992	4.93469
2.9925	-2.11487
2.993	2.01416
2.9935	-2.5177
2.994	-0.60425
2.9945	-2.92053
2.995	2.92053
2.9955	-0.40283
2.996	1.2085
2.9965	-0.80566
2.997	-5.94177
2.9975	2.21558
2.998	2.5177
2.9985	-1.51062
2.999	3.7262
2.9995	6.44531
3	13.59558
3.0005	9.16443
3.001	14.50195
3.0015	12.89062
3.002	17.22107
3.0025	18.93311
3.003	17.92603
3.0035	23.26355
3.004	25.88196
3.0045	26.88904
3.005	19.13452
3.0055	18.93311
3.006	13.59558
3.0065	10.47363
3.007	13.39417
3.0075	7.75452
3.008	5.43823
3.0085	3.32336
3.009	4.43115
3.0095	5.13611
3.01	3.22266
3.0105	-1.40991
3.011	1.10779
3.0115	-0.70496
3.012	3.02124
3.0125	-7.35168
3.013	-5.0354
3.0135	-2.21558
3.014	0
3.0145	-5.84106
3.015	-5.84106
3.0155	-1.3092
3.016	-2.71912
3.0165	-0.40283
3.017	2.61841
3.0175	8.05664
3.018	0.30212
3.0185	1.51062
3.019	-0.80566
3.0195	-4.22974
3.02	0
3.0205	-1.91345
3.021	-2.81982
3.0215	1.51062
3.022	3.22266
3.0225	10.77576
3.023	9.66797
3.0235	9.97009
3.024	12.38708
3.0245	5.0354
3.025	2.61841
3.0255	3.02124
3.026	5.23682
3.0265	1.40991
3.027	2.11487
3.0275	4.53186
3.028	6.54602
3.0285	5.53894
3.029	15.20691
3.0295	10.77576
3.03	5.63965
3.0305	-6.04248
3.031	-14.30054
3.0315	-24.27063
3.032	-22.05505
3.0325	-21.45081
3.033	-19.53735
3.0335	-12.5885
3.034	-11.58142
3.0345	-10.0708
3.035	-4.12903
3.0355	4.33044
3.036	2.01416
3.0365	8.45947
3.037	7.65381
3.0375	16.71753
3.038	12.48779
3.0385	15.1062
3.039	19.13452
3.0395	14.40125
3.04	10.87646
3.0405	15.1062
3.041	11.58142
3.0415	12.28638
3.042	11.2793
3.0425	14.70337
3.043	11.38
3.0435	10.47363
3.044	13.99841
3.0445	18.02673
3.045	21.24939
3.0455	11.58142
3.046	1.61133
3.0465	1.00708
3.047	-1.40991
3.0475	0.60425
3.048	1.51062
3.0485	1.51062
3.049	-2.81982
3.0495	-1.3092
3.05	0.60425
3.0505	7.65381
3.051	2.71912
3.0515	6.2439
3.052	11.88354
3.0525	17.01965
3.053	24.67346
3.0535	19.13452
3.054	22.86072
3.0545	18.8324
3.055	20.34302
3.0555	18.93311
3.056	15.91187
3.0565	9.16443
3.057	8.7616
3.0575	9.26514
3.058	5.0354
3.0585	-0.30212
3.059	-5.74036
3.0595	-7.45239
3.06	-4.63257
3.0605	-12.48779
3.061	-11.07788
3.0615	-6.3446
3.062	0.30212
3.0625	2.61841
3.063	-2.21558
3.0635	-2.71912
3.064	-3.52478
3.0645	-2.21558
3.065	-4.93469
3.0655	-2.81982
3.066	0.50354
3.0665	0
3.067	3.62549
3.0675	-3.22266
3.068	4.22974
3.0685	6.04248
3.069	5.74036
3.0695	-3.02124
3.07	-3.7262
3.0705	-5.74036
3.071	-6.14319
3.0715	-2.41699
3.072	-2.41699
3.0725	-1.81274
3.073	6.04248
3.0735	13.19275
3.074	11.68213
3.0745	14.90479
3.075	13.09204
3.0755	16.41541
3.076	10.27222
3.0765	7.35168
3.077	5.74036
3.0775	10.0708
3.078	7.35168
3.0785	5.23682
3.079	9.76868
3.0795	8.56018
3.08	8.15735
3.0805	10.97717
3.081	7.95593
3.0815	9.06372
3.082	5.94177
3.0825	5.33752
3.083	0.30212
3.0835	-6.2439
3.084	-6.04248
3.0845	-12.89062
3.085	-13.99841
3.0855	-9.46655
3.086	-1.91345
3.0865	-11.88354
3.087	-21.14868
3.0875	-24.16992
3.088	-29.00391
3.0885	-24.97559
3.089	-16.51611
3.0895	-10.97717
3.09	2.21558
3.0905	11.38
3.091	17.42249
3.0915	27.29187
3.092	28.70178
3.0925	28.29895
3.093	27.29187
3.0935	31.4209
3.094	29.20532
3.0945	28.70178
3.095	25.47913
3.0955	21.45081
3.096	24.47205
3.0965	25.68054
3.097	21.04797
3.0975	20.84656
3.098	16.11328
3.0985	6.14319
3.099	4.33044
3.0995	-1.3092
3.1	-10.67505
3.1005	-8.45947
3.101	-5.84106
3.1015	-8.15735
3.102	-13.59558
3.1025	-11.68213
3.103	-9.56726
3.1035	-5.84106
3.104	-11.17859
3.1045	-14.70337
3.105	-15.71045
3.1055	-14.50195
3.106	-12.99133
3.1065	-13.49487
3.107	-14.70337
3.1075	-14.70337
3.108	-4.22974
3.1085	3.32336
3.109	12.68921
3.1095	14.50195
3.11	17.52319
3.1105	24.37134
3.111	23.66638
3.1115	16.11328
3.112	11.17859
3.1125	6.3446
3.113	4.43115
3.1135	0.60425
3.114	2.21558
3.1145	0.20142
3.115	-5.53894
3.1155	-5.33752
3.116	-7.35168
3.1165	-8.56018
3.117	2.71912
3.1175	9.56726
3.118	11.88354
3.1185	10.37292
3.119	10.97717
3.1195	11.68213
3.12	12.48779
3.1205	6.2439
3.121	8.35876
3.1215	10.0708
3.122	1.10779
3.1225	2.81982
3.123	-2.81982
3.1235	-11.88354
3.124	-9.06372
3.1245	-9.16443
3.125	-14.90479
3.1255	-9.06372
3.126	-8.8623
3.1265	-13.39417
3.127	-8.96301
3.1275	-3.12195
3.128	1.61133
3.1285	2.5177
3.129	0.70496
3.1295	-1.00708
3.13	5.43823
3.1305	2.01416
3.131	-3.52478
3.1315	-3.7262
3.132	2.71912
3.1325	5.23682
3.133	6.14319
3.1335	9.16443
3.134	6.3446
3.1345	10.17151
3.135	7.04956
3.1355	6.74744
3.136	3.7262
3.1365	9.26514
3.137	9.06372
3.1375	10.97717
3.138	5.13611
3.1385	1.10779
3.139	4.12903
3.1395	-0.10071
3.14	6.44531
3.1405	5.13611
3.141	2.11487
3.1415	1.51062
3.142	9.36584
3.1425	12.18567
3.143	0.30212
3.1435	2.21558
3.144	1.71204
3.1445	4.93469
3.145	9.56726
3.1455	7.65381
3.146	16.21399
3.1465	18.12744
3.147	18.53027
3.1475	20.84656
3.148	16.91895
3.1485	15.00549
3.149	17.92603
3.1495	11.48071
3.15	12.89062
3.1505	19.13452
3.151	20.34302
3.1515	17.12036
3.152	22.86072
3.1525	27.49329
3.153	24.97559
3.1535	18.63098
3.154	16.11328
3.1545	17.42249
3.155	7.25098
3.1555	7.25098
3.156	1.51062
3.1565	-2.61841
3.157	-9.46655
3.1575	-0.20142
3.158	-10.87646
3.1585	-15.30762
3.159	-10.87646
3.1595	-6.14319
3.16	-8.8623
3.1605	-10.0708
3.161	-5.23682
3.1615	-11.78284
3.162	-9.97009
3.1625	-5.23682
3.163	-5.43823
3.1635	-2.31628
3.164	-4.22974
3.1645	0.70496
3.165	1.61133
3.1655	4.02832
3.166	12.89062
3.1665	16.51611
3.167	15.40833
3.1675	16.41541
3.168	13.69629
3.1685	14.40125
3.169	14.30054
3.1695	11.88354
3.17	7.15027
3.1705	5.0354
3.171	11.07788
3.1715	7.35168
3.172	5.74036
3.1725	5.43823
3.173	6.2439
3.1735	9.36584
3.174	8.35876
3.1745	7.35168
3.175	3.7262
3.1755	3.22266
3.176	2.5177
3.1765	-0.20142
3.177	4.73328
3.1775	5.13611
3.178	4.02832
3.1785	5.63965
3.179	4.43115
3.1795	0.50354
3.18	3.8269
3.1805	2.41699
3.181	3.52478
3.1815	3.7262
3.182	3.7262
3.1825	5.23682
3.183	5.63965
3.1835	11.98425
3.184	14.70337
3.1845	4.83398
3.185	10.0708
3.1855	16.21399
3.186	5.94177
3.1865	7.35168
3.187	9.97009
3.1875	9.66797
3.188	6.54602
3.1885	3.62549
3.189	5.63965
3.1895	2.81982
3.19	0.30212
3.1905	2.41699
3.191	6.74744
3.1915	4.83398
3.192	2.41699
3.1925	2.5177
3.193	2.21558
3.1935	8.35876
3.194	4.63257
3.1945	7.85522
3.195	11.68213
3.1955	9.46655
3.196	9.06372
3.1965	10.37292
3.197	8.7616
3.1975	5.33752
3.198	5.33752
3.1985	8.8623
3.199	16.41541
3.1995	16.21399
3.2	12.5885
3.2005	18.12744
3.201	15.81116
3.2015	14.90479
3.202	9.36584
3.2025	8.7616
3.203	12.08496
3.2035	9.86938
3.204	15.30762
3.2045	16.11328
3.205	11.88354
3.2055	9.86938
3.206	13.19275
3.2065	8.8623
3.207	8.35876
3.2075	7.75452
3.208	4.93469
3.2085	9.56726
3.209	11.38
3.2095	7.35168
3.21	10.47363
3.2105	11.2793
3.211	11.07788
3.2115	6.04248
3.212	6.64673
3.2125	4.63257
3.213	8.05664
3.2135	5.43823
3.214	5.23682
3.2145	4.02832
3.215	5.63965
3.2155	10.87646
3.216	8.7616
3.2165	9.26514
3.217	6.84814
3.2175	7.5531
3.218	8.66089
3.2185	6.04248
3.219	8.05664
3.2195	12.78992
3.22	7.15027
3.2205	1.51062
3.221	6.04248
3.2215	1.00708
3.222	0.70496
3.2225	7.85522
3.223	5.94177
3.2235	1.40991
3.224	4.53186
3.2245	11.58142
3.225	6.2439
3.2255	2.31628
3.226	4.93469
3.2265	5.94177
3.227	6.54602
3.2275	8.05664
3.228	7.45239
3.2285	5.63965
3.229	6.14319
3.2295	5.84106
3.23	1.81274
3.2305	3.02124
3.231	6.2439
3.2315	2.92053
3.232	3.7262
3.2325	4.43115
3.233	1.61133
3.2335	3.52478
3.234	8.96301
3.2345	4.53186
3.235	2.71912
3.2355	0.50354
3.236	10.17151
3.2365	11.17859
3.237	11.58142
3.2375	10.0708
3.238	8.35876
3.2385	7.25098
3.239	3.32336
3.2395	7.35168
3.24	7.25098
3.2405	4.93469
3.241	3.12195
3.2415	3.62549
3.242	-0.30212
3.2425	1.2085
3.243	4.63257
3.2435	4.22974
3.244	9.06372
3.2445	2.31628
3.245	2.61841
3.2455	4.43115
3.246	5.63965
3.2465	3.42407
3.247	4.73328
3.2475	5.13611
3.248	5.63965
3.2485	6.2439
3.249	5.53894
3.2495	-2.81982
3.25	4.33044
3.2505	1.81274
3.251	4.33044
3.2515	2.5177
3.252	2.92053
3.2525	3.32336
3.253	-0.70496
3.2535	3.12195
3.254	8.45947
3.2545	8.96301
3.255	6.84814
3.2555	3.7262
3.256	2.92053
3.2565	4.63257
3.257	-0.40283
3.2575	7.35168
3.258	3.32336
3.2585	2.92053
3.259	5.43823
3.2595	4.12903
3.26	6.44531
3.2605	-1.91345
3.261	-1.40991
3.2615	2.5177
3.262	1.81274
3.2625	4.73328
3.263	5.23682
3.2635	5.0354
3.264	4.02832
3.2645	3.52478
3.265	4.63257
3.2655	7.95593
3.266	3.42407
3.2665	5.63965
3.267	5.33752
3.2675	9.86938
3.268	12.78992
3.2685	3.62549
3.269	2.71912
3.2695	3.22266
3.27	8.8623
3.2705	1.3092
3.271	3.02124
3.2715	-1.00708
3.272	4.83398
3.2725	-3.42407
3.273	5.43823
3.2735	0.90637
3.274	5.94177
3.2745	6.84814
3.275	3.92761
3.2755	1.51062
3.276	0.40283
3.2765	3.62549
3.277	5.13611
3.2775	5.74036
3.278	8.35876
3.2785	3.02124
3.279	7.65381
3.2795	5.33752
3.28	4.83398
3.2805	9.97009
3.281	9.26514
3.2815	10.77576
3.282	5.53894
3.2825	6.3446
3.283	8.25806
3.2835	8.05664
3.284	7.15027
3.2845	9.26514
3.285	13.09204
3.2855	10.97717
3.286	9.26514
3.2865	6.2439
3.287	10.17151
3.2875	5.63965
3.288	6.74744
3.2885	15.00549
3.289	12.99133
3.2895	8.8623
3.29	4.53186
3.2905	11.48071
3.291	8.56018
3.2915	7.65381
3.292	3.7262
3.2925	11.38
3.293	8.45947
3.2935	9.66797
3.294	8.96301
3.2945	7.15027
3.295	2.31628
3.2955	4.63257
3.296	3.22266
3.2965	5.63965
3.297	7.5531
3.2975	11.48071
3.298	9.76868
3.2985	11.17859
3.299	2.92053
3.2995	6.04248
3.3	7.04956
3.3005	6.54602
3.301	-1.10779
3.3015	1.81274
3.302	4.43115
3.3025	7.45239
3.303	2.41699
3.3035	3.52478
3.304	2.01416
3.3045	0.20142
3.305	1.2085
3.3055	5.63965
3.306	1.40991
3.3065	2.21558
3.307	-3.02124
3.3075	-5.0354
3.308	-4.83398
3.3085	-3.42407
3.309	0.90637
3.3095	0
3.31	1.40991
3.3105	11.98425
3.311	15.91187
3.3115	20.04089
3.312	12.5885
3.3125	22.25647
3.313	15.40833
3.3135	13.29346
3.314	11.48071
3.3145	20.44373
3.315	16.11328
3.3155	20.64514
3.316	12.18567
3.3165	5.43823
3.317	8.96301
3.3175	10.37292
3.318	12.38708
3.3185	8.45947
3.319	10.77576
3.3195	8.45947
3.32	1.51062
3.3205	7.15027
3.321	7.95593
3.3215	5.13611
3.322	4.73328
3.3225	2.21558
3.323	1.10779
3.3235	-0.60425
3.324	3.8269
3.3245	3.8269
3.325	-0.30212
3.3255	1.2085
3.326	-3.52478
3.3265	-0.50354
3.327	0.20142
3.3275	1.3092
3.328	6.54602
3.3285	2.41699
3.329	0.20142
3.3295	1.61133
3.33	4.33044
3.3305	6.54602
3.331	10.97717
3.3315	19.03381
3.332	17.42249
3.3325	17.92603
3.333	18.93311
3.3335	15.30762
3.334	5.74036
3.3345	6.94885
3.335	9.46655
3.3355	2.5177
3.336	6.74744
3.3365	6.74744
3.337	3.8269
3.3375	2.01416
3.338	3.22266
3.3385	4.43115
3.339	4.33044
3.3395	7.5531
3.34	3.62549
3.3405	3.42407
3.341	4.73328
3.3415	5.0354
3.342	0.30212
3.3425	0.30212
3.343	-4.33044
3.3435	-2.92053
3.344	-7.25098
3.3445	-5.13611
3.345	-7.35168
3.3455	-3.62549
3.346	0
3.3465	0.10071
3.347	5.63965
3.3475	-1.10779
3.348	-2.41699
3.3485	3.42407
3.349	4.02832
3.3495	5.23682
3.35	11.38
3.3505	12.38708
3.351	17.52319
3.3515	19.73877
3.352	23.36426
3.3525	19.63806
3.353	18.53027
3.3535	26.68762
3.354	25.57983
3.3545	22.05505
3.355	23.06213
3.3555	20.54443
3.356	16.21399
3.3565	13.797
3.357	17.52319
3.3575	10.37292
3.358	8.7616
3.3585	2.31628
3.359	6.74744
3.3595	9.16443
3.36	10.27222
3.3605	11.48071
3.361	10.87646
3.3615	10.57434
3.362	10.87646
3.3625	7.85522
3.363	9.06372
3.3635	9.56726
3.364	8.15735
3.3645	9.56726
3.365	9.97009
3.3655	9.66797
3.366	7.04956
3.3665	11.17859
3.367	10.37292
3.3675	9.36584
3.368	6.74744
3.3685	0.50354
3.369	3.92761
3.3695	-0.60425
3.37	4.83398
3.3705	0.30212
3.371	-1.00708
3.3715	-7.45239
3.372	-9.86938
3.3725	-6.64673
3.373	-8.8623
3.3735	-7.75452
3.374	-13.29346
3.3745	-15.71045
3.375	-13.49487
3.3755	-10.87646
3.376	-13.797
3.3765	-3.42407
3.377	-0.90637
3.3775	1.81274
3.378	7.95593
3.3785	7.65381
3.379	11.68213
3.3795	19.63806
3.38	24.57275
3.3805	30.31311
3.381	24.77417
3.3815	22.35718
3.382	20.04089
3.3825	26.18408
3.383	25.98267
3.3835	26.98975
3.384	27.79541
3.3845	27.89612
3.385	22.45789
3.3855	18.53027
3.386	19.73877
3.3865	19.53735
3.387	20.74585
3.3875	19.53735
3.388	15.50903
3.3885	16.01257
3.389	15.00549
3.3895	9.86938
3.39	4.33044
3.3905	12.18567
3.391	7.95593
3.3915	6.94885
3.392	2.61841
3.3925	3.22266
3.393	5.43823
3.3935	12.5885
3.394	6.2439
3.3945	6.54602
3.395	7.25098
3.3955	7.75452
3.396	3.8269
3.3965	4.83398
3.397	2.5177
3.3975	3.42407
3.398	0
3.3985	5.94177
3.399	9.36584
3.3995	5.33752
3.4	1.61133
3.4005	1.71204
3.401	2.61841
3.4015	-4.33044
3.402	-0.20142
3.4025	0.60425
3.403	-2.61841
3.4035	2.92053
3.404	-0.90637
3.4045	0.40283
3.405	1.51062
3.4055	2.92053
3.406	2.01416
3.4065	3.32336
3.407	4.22974
3.4075	6.64673
3.408	8.56018
3.4085	1.10779
3.409	5.0354
3.4095	8.25806
3.41	3.22266
3.4105	6.04248
3.411	0.70496
3.4115	6.44531
3.412	6.14319
3.4125	12.38708
3.413	17.72461
3.4135	14.30054
3.414	15.60974
3.4145	8.96301
3.415	13.89771
3.4155	9.16443
3.416	13.49487
3.4165	12.18567
3.417	14.30054
3.4175	7.85522
3.418	12.08496
3.4185	3.62549
3.419	11.58142
3.4195	7.95593
3.42	11.68213
3.4205	8.25806
3.421	2.41699
3.4215	3.22266
3.422	-3.32336
3.4225	-8.25806
3.423	-3.8269
3.4235	1.10779
3.424	2.21558
3.4245	7.25098
3.425	7.75452
3.4255	8.45947
3.426	4.93469
3.4265	9.97009
3.427	3.8269
3.4275	0.70496
3.428	3.42407
3.4285	1.61133
3.429	-1.81274
3.4295	-1.00708
3.43	-5.53894
3.4305	-0.30212
3.431	-2.81982
3.4315	-0.30212
3.432	-2.92053
3.4325	-1.00708
3.433	-6.54602
3.4335	-9.56726
3.434	-8.56018
3.4345	-5.23682
3.435	-0.10071
3.4355	3.42407
3.436	3.92761
3.4365	12.89062
3.437	20.04089
3.4375	15.60974
3.438	16.91895
3.4385	15.81116
3.439	20.84656
3.4395	20.34302
3.44	20.94727
3.4405	24.37134
3.441	18.93311
3.4415	16.91895
3.442	19.53735
3.4425	18.02673
3.443	16.81824
3.4435	14.19983
3.444	14.80408
3.4445	10.87646
3.445	7.04956
3.4455	4.43115
3.446	10.67505
3.4465	7.45239
3.447	13.39417
3.4475	11.88354
3.448	11.58142
3.4485	11.98425
3.449	8.25806
3.4495	14.40125
3.45	7.15027
3.4505	12.28638
3.451	4.43115
3.4515	6.94885
3.452	10.67505
3.4525	3.92761
3.453	1.51062
3.4535	-0.20142
3.454	1.81274
3.4545	5.33752
3.455	4.53186
3.4555	3.7262
3.456	2.92053
3.4565	-2.71912
3.457	0.50354
3.4575	-2.41699
3.458	-1.00708
3.4585	-2.11487
3.459	-6.74744
3.4595	-8.7616
3.46	-9.16443
3.4605	-8.66089
3.461	-6.14319
3.4615	-1.00708
3.462	-6.84814
3.4625	-10.87646
3.463	-4.22974
3.4635	0.30212
3.464	4.93469
3.4645	2.01416
3.465	1.40991
3.4655	3.52478
3.466	4.33044
3.4665	5.53894
3.467	9.26514
3.4675	7.15027
3.468	11.98425
3.4685	6.74744
3.469	13.29346
3.4695	12.5885
3.47	8.35876
3.4705	2.5177
3.471	-2.71912
3.4715	-2.81982
3.472	-7.65381
3.4725	-7.04956
3.473	-11.2793
3.4735	-9.16443
3.474	-2.21558
3.4745	-1.3092
3.475	-8.8623
3.4755	-8.96301
3.476	-1.61133
3.4765	3.62549
3.477	8.96301
3.4775	9.36584
3.478	10.47363
3.4785	16.01257
3.479	16.51611
3.4795	17.42249
3.48	19.23523
3.4805	22.05505
3.481	32.62939
3.4815	31.4209
3.482	36.05347
3.4825	37.96692
3.483	36.85913
3.4835	28.80249
3.484	24.27063
3.4845	18.63098
3.485	12.38708
3.4855	6.2439
3.486	9.56726
3.4865	9.76868
3.487	4.93469
3.4875	5.33752
3.488	1.10779
3.4885	1.00708
3.489	2.01416
3.4895	0.20142
3.49	2.11487
3.4905	-3.8269
3.491	-5.23682
3.4915	-3.02124
3.492	-5.43823
3.4925	2.61841
3.493	-4.43115
3.4935	-6.54602
3.494	-4.53186
3.4945	-1.3092
3.495	-1.40991
3.4955	-2.11487
3.496	0.90637
3.4965	-0.40283
3.497	4.63257
3.4975	3.62549
3.498	4.02832
3.4985	9.86938
3.499	11.58142
3.4995	11.58142
3.5	9.76868
3.5005	10.57434
3.501	14.09912
3.5015	14.30054
3.502	14.30054
3.5025	9.56726
3.503	7.15027
3.5035	9.86938
3.504	9.86938
3.5045	6.2439
3.505	2.01416
3.5055	1.71204
3.506	-4.12903
3.5065	-4.02832
3.507	-1.2085
3.5075	0
3.508	-7.75452
3.5085	-2.01416
3.509	0.30212
3.5095	-1.00708
3.51	-3.02124
3.5105	0
3.511	-4.73328
3.5115	-0.20142
3.512	-0.90637
3.5125	-6.14319
3.513	5.23682
3.5135	-2.92053
3.514	-2.61841
3.5145	3.7262
3.515	-1.40991
3.5155	-0.80566
3.516	3.92761
3.5165	4.73328
3.517	7.04956
3.5175	7.85522
3.518	10.17151
3.5185	1.40991
3.519	5.74036
3.5195	-4.12903
3.52	-5.23682
3.5205	-6.64673
3.521	-3.12195
3.5215	0.10071
3.522	-3.92761
3.5225	-10.47363
3.523	-6.84814
3.5235	-7.25098
3.524	-10.47363
3.5245	-12.28638
3.525	-9.97009
3.5255	-6.2439
3.526	6.54602
3.5265	11.98425
3.527	11.58142
3.5275	11.78284
3.528	23.06213
3.5285	17.42249
3.529	21.24939
3.5295	19.33594
3.53	15.91187
3.5305	14.70337
3.531	15.20691
3.5315	11.2793
3.532	10.17151
3.5325	5.74036
3.533	10.27222
3.5335	13.69629
3.534	12.78992
3.5345	13.797
3.535	13.29346
3.5355	16.3147
3.536	14.40125
3.5365	16.71753
3.537	16.91895
3.5375	12.38708
3.538	13.49487
3.5385	6.14319
3.539	9.36584
3.5395	8.66089
3.54	2.71912
3.5405	2.11487
3.541	1.91345
3.5415	1.40991
3.542	7.25098
3.5425	15.1062
3.543	15.1062
3.5435	20.94727
3.544	24.47205
3.5445	25.47913
3.545	31.32019
3.5455	24.06921
3.546	20.94727
3.5465	23.66638
3.547	25.57983
3.5475	25.47913
3.548	26.58691
3.5485	20.74585
3.549	18.53027
3.5495	20.34302
3.55	17.92603
3.5505	10.0708
3.551	4.12903
3.5515	2.21558
3.552	6.44531
3.5525	6.44531
3.553	2.41699
3.5535	4.02832
3.554	8.35876
3.5545	10.97717
3.555	13.59558
3.5555	11.88354
3.556	13.89771
3.5565	18.63098
3.557	24.37134
3.5575	25.47913
3.558	22.76001
3.5585	20.04089
3.559	22.05505
3.5595	15.00549
3.56	15.20691
3.5605	12.38708
3.561	12.48779
3.5615	17.12036
3.562	14.30054
3.5625	14.40125
3.563	9.66797
3.5635	9.66797
3.564	6.94885
3.5645	-0.20142
3.565	-2.11487
3.5655	0
3.566	0.50354
3.5665	8.05664
3.567	2.92053
3.5675	5.63965
3.568	6.84814
3.5685	5.74036
3.569	-2.61841
3.5695	-0.60425
3.57	-6.84814
3.5705	-2.81982
3.571	-6.3446
3.5715	-7.25098
3.572	2.61841
3.5725	-3.12195
3.573	-8.25806
3.5735	-10.47363
3.574	-7.85522
3.5745	-6.04248
3.575	-3.92761
3.5755	-3.7262
3.576	-4.12903
3.5765	-4.93469
3.577	-7.75452
3.5775	-6.64673
3.578	-6.04248
3.5785	-0.80566
3.579	4.63257
3.5795	3.22266
3.58	2.01416
3.5805	4.12903
3.581	4.43115
3.5815	0.50354
3.582	0.10071
3.5825	1.71204
3.583	-2.31628
3.5835	-0.30212
3.584	5.53894
3.5845	-1.10779
3.585	2.41699
3.5855	2.81982
3.586	6.04248
3.5865	1.71204
3.587	-0.80566
3.5875	0.60425
3.588	-2.61841
3.5885	-1.2085
3.589	-4.02832
3.5895	3.32336
3.59	-1.71204
3.5905	0.10071
3.591	-0.40283
3.5915	-1.51062
3.592	-0.30212
3.5925	1.81274
3.593	0
3.5935	-6.2439
3.594	-4.93469
3.5945	4.63257
3.595	0.60425
3.5955	3.92761
3.596	3.62549
3.5965	-1.71204
3.597	5.13611
3.5975	5.63965
3.598	2.5177
3.5985	-0.10071
3.599	-7.85522
3.5995	-0.70496
3.6	0.30212
3.6005	-2.31628
3.601	0.10071
3.6015	2.71912
3.602	4.53186
3.6025	5.63965
3.603	11.98425
3.6035	9.36584
3.604	6.54602
3.6045	8.56018
3.605	10.77576
3.6055	9.26514
3.606	14.90479
3.6065	6.04248
3.607	12.78992
3.6075	6.84814
3.608	7.65381
3.6085	0
3.609	-0.20142
3.6095	5.23682
3.61	-3.62549
3.6105	-4.22974
3.611	-1.40991
3.6115	0
3.612	-1.00708
3.6125	4.22974
3.613	11.17859
3.6135	9.56726
3.614	9.66797
3.6145	20.84656
3.615	18.02673
3.6155	14.30054
3.616	12.78992
3.6165	6.64673
3.617	7.35168
3.6175	10.17151
3.618	9.06372
3.6185	7.35168
3.619	8.7616
3.6195	5.84106
3.62	6.3446
3.6205	7.85522
3.621	-1.00708
3.6215	6.14319
3.622	0.20142
3.6225	1.81274
3.623	8.66089
3.6235	11.58142
3.624	5.94177
3.6245	4.33044
3.625	8.25806
3.6255	8.25806
3.626	10.0708
3.6265	6.64673
3.627	4.53186
3.6275	1.2085
3.628	9.56726
3.6285	10.87646
3.629	8.96301
3.6295	8.35876
3.63	9.86938
3.6305	6.54602
3.631	5.0354
3.6315	1.40991
3.632	3.8269
3.6325	-2.11487
3.633	-5.63965
3.6335	-6.3446
3.634	-3.52478
3.6345	-4.33044
3.635	-2.61841
3.6355	8.8623
3.636	9.97009
3.6365	12.89062
3.637	14.19983
3.6375	11.2793
3.638	9.36584
3.6385	6.14319
3.639	5.23682
3.6395	8.56018
3.64	4.33044
3.6405	3.8269
3.641	-1.71204
3.6415	-5.94177
3.642	-4.53186
3.6425	3.62549
3.643	-0.20142
3.6435	5.43823
3.644	2.21558
3.6445	0.90637
3.645	1.91345
3.6455	3.42407
3.646	4.12903
3.6465	4.12903
3.647	9.36584
3.6475	14.09912
3.648	12.48779
3.6485	12.68921
3.649	14.90479
3.6495	18.8324
3.65	12.89062
3.6505	14.80408
3.651	17.32178
3.6515	17.12036
3.652	22.6593
3.6525	22.6593
3.653	22.86072
3.6535	26.18408
3.654	27.29187
3.6545	20.64514
3.655	18.22815
3.6555	17.52319
3.656	12.18567
3.6565	6.94885
3.657	6.94885
3.6575	-3.32336
3.658	0.50354
3.6585	0.80566
3.659	1.2085
3.6595	3.92761
3.66	4.83398
3.6605	-3.52478
3.661	-3.62549
3.6615	-3.22266
3.662	-8.45947
3.6625	-4.83398
3.663	-4.83398
3.6635	-6.84814
3.664	-2.31628
3.6645	-3.8269
3.665	1.10779
3.6655	-1.00708
3.666	-1.81274
3.6665	-4.93469
3.667	1.71204
3.6675	3.62549
3.668	3.62549
3.6685	1.61133
3.669	-0.30212
3.6695	-1.40991
3.67	1.51062
3.6705	2.5177
3.671	0.90637
3.6715	-0.60425
3.672	-1.51062
3.6725	1.10779
3.673	3.62549
3.6735	2.01416
3.674	2.92053
3.6745	1.51062
3.675	3.32336
3.6755	2.71912
3.676	1.3092
3.6765	-1.00708
3.677	7.95593
3.6775	8.66089
3.678	9.26514
3.6785	9.56726
3.679	17.42249
3.6795	13.69629
3.68	19.63806
3.6805	12.48779
3.681	18.32886
3.6815	12.48779
3.682	12.89062
3.6825	12.78992
3.683	8.25806
3.6835	9.76868
3.684	10.17151
3.6845	11.78284
3.685	9.26514
3.6855	6.2439
3.686	10.0708
3.6865	13.59558
3.687	17.01965
3.6875	12.18567
3.688	14.50195
3.6885	17.32178
3.689	10.57434
3.6895	15.81116
3.69	8.8623
3.6905	11.98425
3.691	13.19275
3.6915	14.70337
3.692	7.15027
3.6925	10.17151
3.693	1.40991
3.6935	-0.90637
3.694	-7.35168
3.6945	-6.44531
3.695	-7.75452
3.6955	-5.63965
3.696	-1.10779
3.6965	-0.60425
3.697	0.50354
3.6975	0.20142
3.698	8.25806
3.6985	8.15735
3.699	5.53894
3.6995	14.19983
3.7	4.93469
3.7005	8.96301
3.701	2.71912
3.7015	2.92053
3.702	0.80566
3.7025	-0.20142
3.703	7.04956
3.7035	6.04248
3.704	6.94885
3.7045	10.37292
3.705	8.7616
3.7055	14.30054
3.706	10.37292
3.7065	7.25098
3.707	3.62549
3.7075	-1.51062
3.708	3.32336
3.7085	0.70496
3.709	-8.66089
3.7095	-5.0354
3.71	-2.11487
3.7105	-2.01416
3.711	-1.2085
3.7115	-4.22974
3.712	-2.71912
3.7125	0.30212
3.713	-1.81274
3.7135	-0.10071
3.714	6.3446
3.7145	-1.00708
3.715	0
3.7155	8.45947
3.716	5.63965
3.7165	9.06372
3.717	11.2793
3.7175	4.73328
3.718	4.53186
3.7185	1.51062
3.719	11.48071
3.7195	11.78284
3.72	7.45239
3.7205	0
3.721	4.63257
3.7215	5.0354
3.722	5.84106
3.7225	8.66089
3.723	-1.3092
3.7235	1.40991
3.724	0
3.7245	1.00708
3.725	2.71912
3.7255	5.53894
3.726	3.52478
3.7265	2.21558
3.727	5.84106
3.7275	5.63965
3.728	1.10779
3.7285	5.33752
3.729	9.76868
3.7295	10.17151
3.73	9.16443
3.7305	5.74036
3.731	4.73328
3.7315	3.62549
3.732	6.84814
3.7325	2.81982
3.733	1.81274
3.7335	4.73328
3.734	8.25806
3.7345	10.17151
3.735	13.29346
3.7355	10.47363
3.736	15.40833
3.7365	22.35718
3.737	22.96143
3.7375	18.32886
3.738	26.3855
3.7385	19.33594
3.739	16.11328
3.7395	14.19983
3.74	8.45947
3.7405	9.46655
3.741	6.74744
3.7415	3.92761
3.742	6.14319
3.7425	4.02832
3.743	3.62549
3.7435	3.12195
3.744	4.83398
3.7445	0.40283
3.745	7.25098
3.7455	2.41699
3.746	2.71912
3.7465	4.83398
3.747	4.12903
3.7475	4.73328
3.748	1.71204
3.7485	1.61133
3.749	2.5177
3.7495	-2.31628
3.75	2.21558
3.7505	9.76868
3.751	12.28638
3.7515	21.04797
3.752	20.74585
3.7525	12.48779
3.753	14.40125
3.7535	12.18567
3.754	12.18567
3.7545	7.85522
3.755	4.83398
3.7555	2.21558
3.756	-2.71912
3.7565	-6.44531
3.757	-8.66089
3.7575	-5.13611
3.758	-4.83398
3.7585	-7.35168
3.759	-2.21558
3.7595	-6.94885
3.76	-8.66089
3.7605	-11.38
3.761	-7.5531
3.7615	-0.70496
3.762	-0.80566
3.7625	-2.31628
3.763	-0.50354
3.7635	0.30212
3.764	0.20142
3.7645	1.00708
3.765	3.62549
3.7655	1.00708
3.766	0.50354
3.7665	-0.50354
3.767	3.42407
3.7675	0
3.768	-0.60425
3.7685	-0.80566
3.769	0.80566
3.7695	-2.71912
3.77	-7.5531
3.7705	-5.43823
3.771	-9.86938
3.7715	0.90637
3.772	-3.8269
3.7725	1.00708
3.773	-2.21558
3.7735	3.32336
3.774	4.12903
3.7745	6.44531
3.775	9.06372
3.7755	4.12903
3.776	5.63965
3.7765	2.5177
3.777	2.5177
3.7775	3.7262
3.778	4.33044
3.7785	10.0708
3.779	7.85522
3.7795	16.21399
3.78	16.01257
3.7805	13.89771
3.781	10.0708
3.7815	12.38708
3.782	12.28638
3.7825	9.86938
3.783	10.97717
3.7835	17.32178
3.784	12.38708
3.7845	16.3147
3.785	14.30054
3.7855	17.72461
3.786	11.78284
3.7865	9.97009
3.787	4.63257
3.7875	5.63965
3.788	1.10779
3.7885	0.10071
3.789	2.11487
3.7895	1.91345
3.79	-0.90637
3.7905	2.01416
3.791	2.81982
3.7915	1.10779
3.792	-1.91345
3.7925	-0.20142
3.793	-2.81982
3.7935	-2.21558
3.794	-3.12195
3.7945	-0.60425
3.795	1.2085
3.7955	5.94177
3.796	4.02832
3.7965	4.22974
3.797	1.10779
3.7975	1.51062
3.798	1.81274
3.7985	-1.10779
3.799	2.71912
3.7995	-2.81982
3.8	3.62549
3.8005	4.93469
3.801	5.43823
3.8015	2.31628
3.802	-1.91345
3.8025	3.92761
3.803	9.56726
3.8035	12.68921
3.804	12.78992
3.8045	10.17151
3.805	16.51611
3.8055	11.78284
3.806	5.23682
3.8065	8.35876
3.807	7.85522
3.8075	5.23682
3.808	4.02832
3.8085	7.95593
3.809	5.33752
3.8095	8.15735
3.81	10.67505
3.8105	9.36584
3.811	9.26514
3.8115	3.8269
3.812	5.43823
3.8125	10.87646
3.813	4.12903
3.8135	7.75452
3.814	8.7616
3.8145	8.7616
3.815	5.74036
3.8155	5.23682
3.816	4.73328
3.8165	4.53186
3.817	0.80566
3.8175	0.90637
3.818	1.3092
3.8185	2.61841
3.819	0.90637
3.8195	-0.70496
3.82	-4.93469
3.8205	0.30212
3.821	0.40283
3.8215	-3.62549
3.822	-1.91345
3.8225	-5.13611
3.823	-5.63965
3.8235	-5.13611
3.824	0.40283
3.8245	-3.32336
3.825	2.92053
3.8255	11.38
3.826	16.21399
3.8265	15.60974
3.827	19.53735
3.8275	17.72461
3.828	12.08496
3.8285	16.51611
3.829	13.09204
3.8295	10.27222
3.83	12.78992
3.8305	11.38
3.831	13.49487
3.8315	14.60266
3.832	16.21399
3.8325	17.12036
3.833	15.20691
3.8335	15.00549
3.834	16.71753
3.8345	16.41541
3.835	12.5885
3.8355	15.50903
3.836	14.30054
3.8365	15.1062
3.837	13.69629
3.8375	9.36584
3.838	7.04956
3.8385	3.02124
3.839	2.81982
3.8395	3.22266
3.84	-8.66089
3.8405	-3.62549
3.841	-3.02124
3.8415	-1.10779
3.842	-2.01416
3.8425	-6.94885
3.843	-6.04248
3.8435	-2.61841
3.844	-5.43823
3.8445	-6.04248
3.845	-3.92761
3.8455	0.60425
3.846	4.22974
3.8465	6.04248
3.847	11.17859
3.8475	8.96301
3.848	2.41699
3.8485	10.0708
3.849	3.52478
3.8495	6.44531
3.85	1.61133
3.8505	0
3.851	-4.33044
3.8515	0.90637
3.852	7.75452
3.8525	6.04248
3.853	4.63257
3.8535	4.93469
3.854	4.83398
3.8545	3.22266
3.855	1.81274
3.8555	-3.02124
3.856	-1.81274
3.8565	4.02832
3.857	3.12195
3.8575	11.17859
3.858	7.75452
3.8585	7.75452
3.859	8.35876
3.8595	5.74036
3.86	3.7262
3.8605	9.26514
3.861	7.35168
3.8615	8.66089
3.862	10.37292
3.8625	16.3147
3.863	15.50903
3.8635	15.50903
3.864	16.51611
3.8645	20.94727
3.865	14.90479
3.8655	19.53735
3.866	18.32886
3.8665	15.91187
3.867	14.90479
3.8675	18.02673
3.868	13.19275
3.8685	9.76868
3.869	11.88354
3.8695	8.25806
3.87	2.81982
3.8705	-0.20142
3.871	4.33044
3.8715	2.81982
3.872	6.84814
3.8725	4.12903
3.873	2.31628
3.8735	0.80566
3.874	7.35168
3.8745	4.53186
3.875	8.56018
3.8755	6.84814
3.876	16.81824
3.8765	16.11328
3.877	14.30054
3.8775	16.71753
3.878	8.8623
3.8785	4.73328
3.879	3.62549
3.8795	-0.30212
3.88	0.10071
3.8805	1.51062
3.881	6.04248
3.8815	5.43823
3.882	7.5531
3.8825	10.17151
3.883	10.87646
3.8835	17.6239
3.884	13.59558
3.8845	14.30054
3.885	10.0708
3.8855	2.41699
3.886	7.85522
3.8865	7.04956
3.887	10.17151
3.8875	8.05664
3.888	7.15027
3.8885	6.04248
3.889	9.36584
3.8895	8.8623
3.89	4.83398
3.8905	1.3092
3.891	3.32336
3.8915	-6.54602
3.892	-4.12903
3.8925	-4.33044
3.893	-3.42407
3.8935	-0.80566
3.894	-3.62549
3.8945	-4.83398
3.895	-1.3092
3.8955	-6.74744
3.896	-1.00708
3.8965	-0.50354
3.897	-4.33044
3.8975	-5.43823
3.898	1.51062
3.8985	7.85522
3.899	6.64673
3.8995	7.04956
3.9	14.90479
3.9005	16.41541
3.901	18.93311
3.9015	16.71753
3.902	12.68921
3.9025	11.17859
3.903	11.78284
3.9035	11.17859
3.904	10.37292
3.9045	6.04248
3.905	10.37292
3.9055	8.35876
3.906	13.39417
3.9065	4.33044
3.907	4.53186
3.9075	4.83398
3.908	4.83398
3.9085	9.46655
3.909	7.04956
3.9095	8.15735
3.91	1.81274
3.9105	4.12903
3.911	2.41699
3.9115	2.5177
3.912	0.30212
3.9125	7.25098
3.913	4.53186
3.9135	9.46655
3.914	15.30762
3.9145	15.00549
3.915	21.95435
3.9155	20.64514
3.916	17.92603
3.9165	18.73169
3.917	18.53027
3.9175	16.61682
3.918	18.12744
3.9185	9.76868
3.919	5.13611
3.9195	7.35168
3.92	6.74744
3.9205	2.92053
3.921	2.92053
3.9215	3.52478
3.922	3.02124
3.9225	2.11487
3.923	5.13611
3.9235	2.92053
3.924	5.13611
3.9245	11.78284
3.925	7.95593
3.9255	-4.63257
3.926	7.04956
3.9265	3.52478
3.927	6.84814
3.9275	4.53186
3.928	0.80566
3.9285	-3.12195
3.929	4.93469
3.9295	6.2439
3.93	1.81274
3.9305	-1.40991
3.931	-0.90637
3.9315	-2.31628
3.932	-2.5177
3.9325	4.22974
3.933	3.32336
3.9335	2.61841
3.934	-4.93469
3.9345	1.81274
3.935	4.43115
3.9355	7.95593
3.936	6.54602
3.9365	10.77576
3.937	8.66089
3.9375	6.94885
3.938	14.90479
3.9385	9.46655
3.939	12.89062
3.9395	17.12036
3.94	16.71753
3.9405	12.78992
3.941	8.45947
3.9415	6.44531
3.942	6.54602
3.9425	0.50354
3.943	6.44531
3.9435	5.33752
3.944	11.78284
3.9445	15.1062
3.945	20.24231
3.9455	18.42957
3.946	20.54443
3.9465	16.51611
3.947	17.01965
3.9475	12.18567
3.948	12.68921
3.9485	14.19983
3.949	8.66089
3.9495	7.45239
3.95	10.37292
3.9505	5.13611
3.951	3.12195
3.9515	7.75452
3.952	3.52478
3.9525	0.90637
3.953	-2.61841
3.9535	1.2085
3.954	-0.30212
3.9545	-6.44531
3.955	-5.94177
3.9555	-1.3092
3.956	-1.51062
3.9565	-1.10779
3.957	-3.42407
3.9575	4.33044
3.958	-0.70496
3.9585	-3.02124
3.959	-5.13611
3.9595	0.20142
3.96	-5.84106
3.9605	-2.92053
3.961	4.83398
3.9615	5.43823
3.962	12.78992
3.9625	12.28638
3.963	10.87646
3.9635	3.8269
3.964	7.45239
3.9645	7.85522
3.965	1.51062
3.9655	-1.61133
3.966	1.40991
3.9665	6.54602
3.967	6.14319
3.9675	2.31628
3.968	-2.21558
3.9685	-11.58142
3.969	-10.27222
3.9695	-16.11328
3.97	-13.69629
3.9705	-6.94885
3.971	-8.25806
3.9715	-3.62549
3.972	-2.81982
3.9725	0.60425
3.973	3.12195
3.9735	6.54602
3.974	9.36584
3.9745	14.30054
3.975	15.40833
3.9755	14.80408
3.976	14.50195
3.9765	25.177
3.977	17.12036
3.9775	17.22107
3.978	16.11328
3.9785	11.58142
3.979	13.49487
3.9795	19.03381
3.98	19.83948
3.9805	21.95435
3.981	18.8324
3.9815	15.40833
3.982	12.89062
3.9825	9.16443
3.983	9.66797
3.9835	7.95593
3.984	4.02832
3.9845	1.61133
3.985	3.52478
3.9855	1.40991
3.986	3.32336
3.9865	6.44531
3.987	5.0354
3.9875	5.84106
3.988	5.23682
3.9885	7.95593
3.989	6.84814
3.9895	10.67505
3.99	15.50903
3.9905	10.27222
3.991	5.74036
3.9915	5.94177
3.992	9.36584
3.9925	3.22266
3.993	8.8623
3.9935	2.41699
3.994	-1.3092
3.9945	3.92761
3.995	-6.14319
3.9955	1.91345
3.996	-2.21558
3.9965	-2.5177
3.997	0.10071
3.9975	-3.92761
3.998	4.12903
3.9985	11.78284
3.999	13.09204
3.9995	15.81116
4	15.60974
4.0005	15.00549
4.001	9.86938
4.0015	11.07788
4.002	3.7262
4.0025	11.17859
4.003	9.06372
4.0035	6.04248
4.004	10.57434
4.0045	7.5531
4.005	7.95593
4.0055	5.43823
4.006	8.25806
4.0065	1.71204
4.007	-0.90637
4.0075	-3.32336
4.008	-3.52478
4.0085	-4.22974
4.009	-11.17859
4.0095	-3.22266
4.01	-10.27222
4.0105	-10.87646
4.011	-5.74036
4.0115	-4.12903
4.012	1.71204
4.0125	-1.91345
4.013	-1.2085
4.0135	-2.21558
4.014	0.20142
4.0145	5.94177
4.015	8.25806
4.0155	6.64673
4.016	14.70337
4.0165	15.50903
4.017	11.48071
4.0175	9.36584
4.018	13.09204
4.0185	11.07788
4.019	10.37292
4.0195	11.78284
4.02	5.84106
4.0205	0.40283
4.021	9.76868
4.0215	-0.30212
4.022	-2.41699
4.0225	-2.31628
4.023	2.92053
4.0235	-1.40991
4.024	2.81982
4.0245	3.02124
4.025	3.02124
4.0255	8.15735
4.026	14.09912
4.0265	13.19275
4.027	12.68921
4.0275	14.80408
4.028	12.28638
4.0285	15.00549
4.029	12.68921
4.0295	9.16443
4.03	9.97009
4.0305	14.30054
4.031	15.91187
4.0315	17.12036
4.032	18.12744
4.0325	14.09912
4.033	11.48071
4.0335	11.2793
4.034	10.97717
4.0345	6.04248
4.035	3.22266
4.0355	6.2439
4.036	0.30212
4.0365	5.84106
4.037	-2.41699
4.0375	-2.31628
4.038	1.91345
4.0385	0.10071
4.039	-1.61133
4.0395	-1.00708
4.04	-8.15735
4.0405	-7.5531
4.041	-5.23682
4.0415	-11.2793
4.042	-5.84106
4.0425	-4.63257
4.043	-8.7616
4.0435	2.92053
4.044	1.71204
4.0445	4.53186
4.045	10.67505
4.0455	11.88354
4.046	1.81274
4.0465	-1.10779
4.047	0.90637
4.0475	-6.2439
4.048	-2.71912
4.0485	-5.43823
4.049	-6.2439
4.0495	2.5177
4.05	4.53186
4.0505	6.64673
4.051	7.65381
4.0515	6.2439
4.052	6.3446
4.0525	14.50195
4.053	10.17151
4.0535	15.71045
4.054	13.39417
4.0545	26.28479
4.055	30.61523
4.0555	34.24072
4.056	27.39258
4.0565	14.60266
4.057	9.66797
4.0575	11.48071
4.058	9.86938
4.0585	5.0354
4.059	-1.3092
4.0595	3.42407
4.06	-0.10071
4.0605	-2.21558
4.061	4.53186
4.0615	-0.40283
4.062	7.65381
4.0625	4.83398
4.063	7.95593
4.0635	4.22974
4.064	1.3092
4.0645	2.71912
4.065	2.41699
4.0655	-1.40991
4.066	3.02124
4.0665	3.32336
4.067	2.81982
4.0675	4.83398
4.068	8.15735
4.0685	7.85522
4.069	7.85522
4.0695	8.56018
4.07	5.33752
4.0705	-2.5177
4.071	-8.15735
4.0715	-3.92761
4.072	-6.3446
4.0725	-6.54602
4.073	-1.10779
4.0735	4.83398
4.074	8.35876
4.0745	13.19275
4.075	15.91187
4.0755	10.87646
4.076	3.62549
4.0765	7.5531
4.077	6.64673
4.0775	1.91345
4.078	2.31628
4.0785	7.25098
4.079	0.70496
4.0795	5.43823
4.08	9.56726
4.0805	5.13611
4.081	9.06372
4.0815	14.60266
4.082	20.1416
4.0825	30.41382
4.083	30.31311
4.0835	29.10461
4.084	26.3855
4.0845	27.19116
4.085	24.47205
4.0855	18.22815
4.086	13.89771
4.0865	15.60974
4.087	10.47363
4.0875	14.60266
4.088	7.95593
4.0885	6.14319
4.089	6.54602
4.0895	3.22266
4.09	2.5177
4.0905	2.92053
4.091	-2.61841
4.0915	2.61841
4.092	-2.01416
4.0925	-6.04248
4.093	-7.65381
4.0935	-9.76868
4.094	-7.85522
4.0945	-6.64673
4.095	-4.93469
4.0955	-9.97009
4.096	-10.27222
4.0965	-14.70337
4.097	-15.30762
4.0975	-20.54443
4.098	-17.01965
4.0985	-21.95435
4.099	-25.57983
4.0995	-25.07629
4.1	-28.39966
4.1005	-27.39258
4.101	-23.26355
4.1015	-19.43665
4.102	-17.22107
4.1025	-8.56018
