Alessio_Russo_Left_1.c3d  



Time(s):	A_L_bicipite(μV):
0	-119.13757
0.0005	-133.3374
0.001	-155.896
0.0015	-175.13123
0.002	-180.77087
0.0025	-190.74097
0.003	-187.82043
0.0035	-170.09583
0.004	-150.15564
0.0045	-134.04236
0.005	-129.81262
0.0055	-126.69067
0.006	-123.56873
0.0065	-93.55774
0.007	-82.58057
0.0075	-66.56799
0.008	-62.33826
0.0085	-58.91418
0.009	-57.40356
0.0095	-60.52551
0.01	-53.87878
0.0105	-28.80249
0.011	14.09912
0.0115	39.67896
0.012	49.74976
0.0125	35.2478
0.013	27.19116
0.0135	27.79541
0.014	41.4917
0.0145	38.06763
0.015	29.50745
0.0155	19.53735
0.016	20.74585
0.0165	41.08887
0.017	53.87878
0.0175	61.83472
0.018	74.02039
0.0185	83.68835
0.019	85.29968
0.0195	74.02039
0.02	61.23047
0.0205	47.7356
0.021	34.94568
0.0215	39.47754
0.022	65.25879
0.0225	80.36499
0.023	84.39331
0.0235	74.62463
0.024	63.94958
0.0245	52.16675
0.025	32.93152
0.0255	11.07788
0.026	-7.5531
0.0265	-30.71594
0.027	-53.57666
0.0275	-69.58923
0.028	-81.17065
0.0285	-96.07544
0.029	-97.98889
0.0295	-90.5365
0.03	-78.45154
0.0305	-66.36658
0.031	-53.27454
0.0315	-36.15417
0.032	-19.13452
0.0325	-8.56018
0.033	-3.62549
0.0335	-2.5177
0.034	3.7262
0.0345	8.15735
0.035	9.76868
0.0355	6.64673
0.036	5.23682
0.0365	7.65381
0.037	17.01965
0.0375	15.91187
0.038	11.2793
0.0385	19.03381
0.039	14.19983
0.0395	14.09912
0.04	16.21399
0.0405	22.86072
0.041	25.68054
0.0415	33.63647
0.042	27.29187
0.0425	25.27771
0.043	28.50037
0.0435	31.72302
0.044	40.58533
0.0445	57.8064
0.045	75.83313
0.0455	88.72375
0.046	82.68127
0.0465	77.54517
0.047	59.71985
0.0475	42.8009
0.048	30.91736
0.0485	30.11169
0.049	25.88196
0.0495	35.2478
0.05	55.18799
0.0505	68.07861
0.051	100.6073
0.0515	154.78821
0.052	204.73938
0.0525	223.16895
0.053	221.85974
0.0535	252.67639
0.054	303.83606
0.0545	342.00439
0.055	358.82263
0.0555	337.37183
0.056	281.88171
0.0565	219.74487
0.057	142.50183
0.0575	81.06995
0.058	14.19983
0.0585	-45.62073
0.059	-119.23828
0.0595	-183.28857
0.06	-204.84009
0.0605	-225.28381
0.061	-246.93604
0.0615	-258.31604
0.062	-248.84949
0.0625	-225.38452
0.063	-207.65991
0.0635	-212.79602
0.064	-219.34204
0.0645	-195.77637
0.065	-147.03369
0.0655	-115.61279
0.066	-111.58447
0.0665	-116.01562
0.067	-117.32483
0.0675	-119.23828
0.068	-116.31775
0.0685	-109.3689
0.069	-99.60022
0.0695	-93.35632
0.07	-70.89844
0.0705	-47.93701
0.071	-40.38391
0.0715	-32.52869
0.072	-43.30444
0.0725	-45.62073
0.073	-27.79541
0.0735	10.77576
0.074	39.77966
0.0745	80.96924
0.075	129.20837
0.0755	148.74573
0.076	189.12964
0.0765	215.51514
0.077	214.00452
0.0775	177.95105
0.078	126.69067
0.0785	67.47437
0.079	8.35876
0.0795	-56.90002
0.08	-95.06836
0.0805	-109.3689
0.081	-125.88501
0.0815	-141.29333
0.082	-142.40112
0.0825	-138.17139
0.083	-133.43811
0.0835	-121.15173
0.084	-100.90942
0.0845	-81.67419
0.085	-58.91418
0.0855	-42.29736
0.086	-19.53735
0.0865	-11.2793
0.087	-1.51062
0.0875	-16.01257
0.088	-21.95435
0.0885	-24.37134
0.089	-19.83948
0.0895	-8.35876
0.09	22.05505
0.0905	44.71436
0.091	55.79224
0.0915	60.02197
0.092	64.95667
0.0925	63.94958
0.093	55.18799
0.0935	49.54834
0.094	43.50586
0.0945	30.11169
0.095	20.44373
0.0955	27.59399
0.096	37.16125
0.0965	55.79224
0.097	70.49561
0.0975	75.63171
0.098	70.79773
0.0985	70.69702
0.099	65.86304
0.0995	63.24463
0.1	57.30286
0.1005	60.82764
0.101	53.27454
0.1015	36.75842
0.102	17.22107
0.1025	-0.60425
0.103	-15.91187
0.1035	-24.87488
0.104	-27.89612
0.1045	-38.06763
0.105	-45.3186
0.1055	-45.2179
0.106	-46.22498
0.1065	-49.0448
0.107	-47.03064
0.1075	-32.22656
0.108	-21.45081
0.1085	-19.33594
0.109	-6.2439
0.1095	10.97717
0.11	23.96851
0.1105	39.37683
0.111	45.62073
0.1115	55.3894
0.112	54.58374
0.1125	45.62073
0.113	57.60498
0.1135	70.19348
0.114	85.60181
0.1145	83.28552
0.115	69.08569
0.1155	55.49011
0.116	43.30444
0.1165	32.93152
0.117	26.88904
0.1175	23.36426
0.118	40.1825
0.1185	57.50427
0.119	85.5011
0.1195	100.80872
0.12	107.65686
0.1205	104.23279
0.121	121.45386
0.1215	127.09351
0.122	130.92041
0.1225	125.48218
0.123	106.9519
0.1235	93.96057
0.124	85.09827
0.1245	50.75684
0.125	18.73169
0.1255	-14.80408
0.126	-62.8418
0.1265	-84.69543
0.127	-92.95349
0.1275	-89.42871
0.128	-97.78748
0.1285	-103.52783
0.129	-73.11401
0.1295	-20.94727
0.13	32.62939
0.1305	92.04712
0.131	126.58997
0.1315	123.97156
0.132	95.06836
0.1325	57.70569
0.133	29.70886
0.1335	-8.96301
0.134	-49.64905
0.1345	-60.62622
0.135	-55.49011
0.1355	-70.09277
0.136	-95.77332
0.1365	-117.72766
0.137	-127.19421
0.1375	-131.92749
0.138	-93.75916
0.1385	-16.21399
0.139	107.65686
0.1395	182.68433
0.14	188.52539
0.1405	162.84485
0.141	130.61829
0.1415	143.20679
0.142	148.74573
0.1425	128.60413
0.143	84.49402
0.1435	30.2124
0.144	-35.34851
0.1445	-110.87952
0.145	-188.22327
0.1455	-252.47498
0.146	-300.21057
0.1465	-318.33801
0.147	-319.24438
0.1475	-312.49695
0.148	-294.47021
0.1485	-270.50171
0.149	-246.73462
0.1495	-211.38611
0.15	-162.03918
0.1505	-133.94165
0.151	-119.03687
0.1515	-115.00854
0.152	-105.6427
0.1525	-79.86145
0.153	-47.33276
0.1535	-28.9032
0.154	-14.70337
0.1545	-0.70496
0.155	14.80408
0.1555	37.16125
0.156	72.9126
0.1565	99.19739
0.157	118.53333
0.1575	127.19421
0.158	125.98572
0.1585	116.11633
0.159	92.65137
0.1595	83.08411
0.16	74.72534
0.1605	50.75684
0.161	37.26196
0.1615	15.50903
0.162	11.78284
0.1625	9.66797
0.163	15.81116
0.1635	48.84338
0.164	79.55933
0.1645	87.71667
0.165	92.14783
0.1655	90.73792
0.166	88.42163
0.1665	78.14941
0.167	65.05737
0.1675	51.66321
0.168	41.4917
0.1685	26.78833
0.169	10.87646
0.1695	0.20142
0.17	-1.81274
0.1705	-14.80408
0.171	-18.12744
0.1715	5.33752
0.172	33.9386
0.1725	48.23914
0.173	46.42639
0.1735	37.16125
0.174	31.01807
0.1745	15.81116
0.175	10.57434
0.1755	-5.84106
0.176	-23.26355
0.1765	-33.13293
0.177	-50.55542
0.1775	-60.82764
0.178	-72.40906
0.1785	-76.03455
0.179	-72.9126
0.1795	-62.53967
0.18	-62.13684
0.1805	-51.05896
0.181	-45.72144
0.1815	-19.33594
0.182	3.92761
0.1825	18.12744
0.183	30.71594
0.1835	32.7301
0.184	31.4209
0.1845	27.19116
0.185	35.95276
0.1855	54.98657
0.186	91.04004
0.1865	127.59705
0.187	152.1698
0.1875	158.71582
0.188	146.12732
0.1885	131.42395
0.189	120.84961
0.1895	110.87952
0.19	88.22021
0.1905	65.56091
0.191	48.54126
0.1915	41.08887
0.192	67.27295
0.1925	72.40906
0.193	65.25879
0.1935	43.70728
0.194	6.54602
0.1945	-28.39966
0.195	-43.30444
0.1955	-11.58142
0.196	21.3501
0.1965	62.33826
0.197	62.74109
0.1975	44.71436
0.198	12.78992
0.1985	-0.90637
0.199	-23.06213
0.1995	-52.16675
0.2	-95.26978
0.2005	-123.36731
0.201	-154.48608
0.2015	-176.44043
0.202	-183.48999
0.2025	-171.10291
0.203	-161.33423
0.2035	-160.62927
0.204	-151.76697
0.2045	-147.63794
0.205	-132.73315
0.2055	-114.00146
0.206	-93.65845
0.2065	-55.49011
0.207	-30.51453
0.2075	-8.8623
0.208	-3.7262
0.2085	7.35168
0.209	25.07629
0.2095	51.36108
0.21	77.54517
0.2105	103.42712
0.211	126.58997
0.2115	144.41528
0.212	156.09741
0.2125	196.98486
0.213	208.56628
0.2135	199.09973
0.214	177.54822
0.2145	144.81812
0.215	125.38147
0.2155	100.30518
0.216	77.14233
0.2165	35.04639
0.217	-13.89771
0.2175	-38.67188
0.218	-64.95667
0.2185	-86.60889
0.219	-95.77332
0.2195	-56.79932
0.22	24.77417
0.2205	93.25562
0.221	142.30042
0.2215	160.02502
0.222	149.34998
0.2225	95.06836
0.223	29.60815
0.2235	-31.82373
0.224	-85.09827
0.2245	-122.36023
0.225	-152.06909
0.2255	-163.65051
0.226	-181.47583
0.2265	-180.56946
0.227	-176.94397
0.2275	-176.33972
0.228	-176.94397
0.2285	-157.80945
0.229	-148.64502
0.2295	-130.8197
0.23	-103.42712
0.2305	-70.59631
0.231	-44.31152
0.2315	1.81274
0.232	35.85205
0.2325	50.75684
0.233	59.1156
0.2335	61.43188
0.234	74.12109
0.2345	73.41614
0.235	64.95667
0.2355	52.8717
0.236	34.54285
0.2365	11.2793
0.237	-7.15027
0.2375	-10.97717
0.238	1.51062
0.2385	14.70337
0.239	18.93311
0.2395	25.07629
0.24	35.54993
0.2405	39.98108
0.241	57.40356
0.2415	72.20764
0.242	71.90552
0.2425	60.22339
0.243	48.84338
0.2435	33.43506
0.244	30.31311
0.2445	28.50037
0.245	24.06921
0.2455	10.27222
0.246	20.24231
0.2465	61.83472
0.247	130.8197
0.2475	224.37744
0.248	335.45837
0.2485	389.03503
0.249	368.28918
0.2495	316.9281
0.25	263.25073
0.2505	225.78735
0.251	166.97388
0.2515	103.82996
0.252	29.70886
0.2525	-56.29578
0.253	-137.96997
0.2535	-210.68115
0.254	-260.22949
0.2545	-299.3042
0.255	-321.66138
0.2555	-337.67395
0.256	-340.69519
0.2565	-327.30103
0.257	-296.98792
0.2575	-261.43799
0.258	-211.88965
0.2585	-131.42395
0.259	-29.70886
0.2595	68.28003
0.26	125.07935
0.2605	151.36414
0.261	176.94397
0.2615	208.46558
0.262	202.92664
0.2625	176.13831
0.263	131.72607
0.2635	78.25012
0.264	22.15576
0.2645	-26.98975
0.265	-65.96375
0.2655	-107.15332
0.266	-139.68201
0.2665	-162.94556
0.267	-182.68433
0.2675	-188.72681
0.268	-179.15955
0.2685	-169.99512
0.269	-157.10449
0.2695	-121.05103
0.27	-86.70959
0.2705	-12.5885
0.271	106.34766
0.2715	215.51514
0.272	254.0863
0.2725	258.31604
0.273	236.16028
0.2735	198.49548
0.274	150.8606
0.2745	105.94482
0.275	57.9071
0.2755	11.2793
0.276	-27.59399
0.2765	-67.37366
0.277	-99.09668
0.2775	-112.49084
0.278	-117.42554
0.2785	-114.60571
0.279	-103.52783
0.2795	-95.77332
0.28	-91.94641
0.2805	-73.41614
0.281	-45.11719
0.2815	-22.05505
0.282	-9.66797
0.2825	1.10779
0.283	-8.96301
0.2835	-20.94727
0.284	-43.60657
0.2845	-44.21082
0.285	-21.85364
0.2855	-10.67505
0.286	3.8269
0.2865	22.35718
0.287	35.85205
0.2875	53.27454
0.288	79.86145
0.2885	87.11243
0.289	72.81189
0.2895	74.02039
0.29	77.14233
0.2905	65.3595
0.291	50.75684
0.2915	33.03223
0.292	25.78125
0.2925	20.04089
0.293	2.71912
0.2935	-9.46655
0.294	-26.18408
0.2945	-39.77966
0.295	-36.75842
0.2955	-34.34143
0.296	-20.84656
0.2965	0.20142
0.297	21.45081
0.2975	18.53027
0.298	12.48779
0.2985	16.81824
0.299	52.06604
0.2995	86.70959
0.3	111.48376
0.3005	132.73315
0.301	142.50183
0.3015	129.71191
0.302	106.44836
0.3025	135.55298
0.303	175.63477
0.3035	171.10291
0.304	130.8197
0.3045	82.9834
0.305	24.37134
0.3055	-24.57275
0.306	-78.25012
0.3065	-102.52075
0.307	-109.16748
0.3075	-111.8866
0.308	-96.98181
0.3085	-66.46729
0.309	-46.62781
0.3095	-42.09595
0.31	-40.78674
0.3105	-39.77966
0.311	-44.51294
0.3115	-53.87878
0.312	-68.58215
0.3125	-65.25879
0.313	-53.07312
0.3135	-34.64355
0.314	-21.3501
0.3145	-14.80408
0.315	-6.84814
0.3155	-2.81982
0.316	-3.8269
0.3165	-4.83398
0.317	-0.20142
0.3175	-12.89062
0.318	-31.72302
0.3185	-37.96692
0.319	-41.59241
0.3195	-35.14709
0.32	-17.01965
0.3205	1.51062
0.321	22.35718
0.3215	30.91736
0.322	38.47046
0.3225	49.85046
0.323	70.29419
0.3235	97.28394
0.324	131.42395
0.3245	200.40894
0.325	280.97534
0.3255	331.63147
0.326	360.43396
0.3265	344.72351
0.327	317.12952
0.3275	286.7157
0.328	266.07056
0.3285	218.03284
0.329	142.70325
0.3295	61.73401
0.33	5.74036
0.3305	-2.21558
0.331	38.26904
0.3315	55.2887
0.332	30.81665
0.3325	-29.10461
0.333	-89.22729
0.3335	-161.53564
0.334	-224.17603
0.3345	-267.27905
0.335	-258.11462
0.3355	-268.08472
0.336	-274.32861
0.3365	-276.04065
0.337	-257.40967
0.3375	-244.72046
0.338	-226.49231
0.3385	-207.4585
0.339	-173.11707
0.3395	-137.36572
0.34	-108.76465
0.3405	-77.64587
0.341	-47.8363
0.3415	-30.81665
0.342	-22.86072
0.3425	-27.79541
0.343	-15.91187
0.3435	-11.88354
0.344	-5.53894
0.3445	-9.06372
0.345	2.11487
0.3455	34.14001
0.346	56.90002
0.3465	57.9071
0.347	49.24622
0.3475	55.18799
0.348	74.82605
0.3485	82.68127
0.349	64.45312
0.3495	41.99524
0.35	40.88745
0.3505	40.78674
0.351	54.98657
0.3515	66.36658
0.352	66.56799
0.3525	51.96533
0.353	45.92285
0.3535	53.37524
0.354	59.82056
0.3545	52.26746
0.355	49.34692
0.3555	50.55542
0.356	50.45471
0.3565	33.73718
0.357	10.0708
0.3575	-16.21399
0.358	-30.31311
0.3585	-32.42798
0.359	-30.2124
0.3595	-40.38391
0.36	-55.99365
0.3605	-68.98499
0.361	-89.42871
0.3615	-90.63721
0.362	-92.14783
0.3625	-78.85437
0.363	-81.17065
0.3635	-75.4303
0.364	-58.71277
0.3645	-35.85205
0.365	-1.51062
0.3655	42.8009
0.366	88.42163
0.3665	144.91882
0.367	174.72839
0.3675	172.91565
0.368	144.91882
0.3685	102.31934
0.369	63.34534
0.3695	36.15417
0.37	13.29346
0.3705	-15.1062
0.371	-46.12427
0.3715	-74.12109
0.372	-90.73792
0.3725	-98.49243
0.373	-91.64429
0.3735	-67.67578
0.374	-53.47595
0.3745	-62.13684
0.375	-76.7395
0.3755	-77.04163
0.376	-64.85596
0.3765	-44.11011
0.377	-14.09912
0.3775	25.68054
0.378	81.47278
0.3785	98.39172
0.379	105.34058
0.3795	98.99597
0.38	96.67969
0.3805	87.61597
0.381	77.84729
0.3815	73.61755
0.382	69.58923
0.3825	73.21472
0.383	57.60498
0.3835	35.34851
0.384	12.08496
0.3845	-7.04956
0.385	-29.10461
0.3855	-51.76392
0.386	-57.8064
0.3865	-66.97083
0.387	-74.2218
0.3875	-67.27295
0.388	-36.95984
0.3885	-21.04797
0.389	-4.53186
0.3895	-4.33044
0.39	6.64673
0.3905	21.45081
0.391	68.17932
0.3915	125.18005
0.392	162.64343
0.3925	195.87708
0.393	278.05481
0.3935	324.17908
0.394	307.76367
0.3945	257.91321
0.395	188.72681
0.3955	107.05261
0.396	47.03064
0.3965	29.60815
0.397	13.89771
0.3975	-32.02515
0.398	-66.56799
0.3985	-100.50659
0.399	-130.41687
0.3995	-162.13989
0.4	-167.17529
0.4005	-176.84326
0.401	-189.02893
0.4015	-181.27441
0.402	-179.36096
0.4025	-183.79211
0.403	-177.14539
0.4035	-155.896
0.404	-110.87952
0.4045	-74.52393
0.405	-49.14551
0.4055	-54.78516
0.406	-47.23206
0.4065	-29.80957
0.407	-4.43115
0.4075	12.08496
0.408	0.60425
0.4085	-12.78992
0.409	-38.47046
0.4095	-43.90869
0.41	-4.93469
0.4105	28.9032
0.411	38.77258
0.4115	42.09595
0.412	49.14551
0.4125	50.15259
0.413	49.54834
0.4135	41.99524
0.414	30.31311
0.4145	20.04089
0.415	10.27222
0.4155	1.51062
0.416	-17.92603
0.4165	-40.58533
0.417	-20.04089
0.4175	6.94885
0.418	29.20532
0.4185	34.94568
0.419	26.48621
0.4195	6.2439
0.42	2.5177
0.4205	36.95984
0.421	77.04163
0.4215	89.83154
0.422	83.99048
0.4225	75.93384
0.423	62.33826
0.4235	42.7002
0.424	32.42798
0.4245	34.54285
0.425	27.79541
0.4255	18.53027
0.426	8.7616
0.4265	9.26514
0.427	19.73877
0.4275	55.49011
0.428	81.57349
0.4285	110.6781
0.429	118.93616
0.4295	102.82288
0.43	74.62463
0.4305	50.95825
0.431	32.42798
0.4315	16.81824
0.432	-8.66089
0.4325	-40.58533
0.433	-58.41064
0.4335	-62.64038
0.434	-71.60339
0.4345	-81.7749
0.435	-81.17065
0.4355	-92.75208
0.436	-109.3689
0.4365	-119.13757
0.437	-112.08801
0.4375	-121.45386
0.438	-123.77014
0.4385	-109.26819
0.439	-81.57349
0.4395	-37.16125
0.44	-4.12903
0.4405	17.42249
0.441	44.0094
0.4415	71.40198
0.442	84.49402
0.4425	119.54041
0.443	161.53564
0.4435	155.9967
0.444	140.38696
0.4445	127.79846
0.445	119.33899
0.4455	92.44995
0.446	57.00073
0.4465	10.37292
0.447	-34.24072
0.4475	-70.79773
0.448	-100.00305
0.4485	-121.9574
0.449	-134.24377
0.4495	-147.73865
0.45	-153.07617
0.4505	-152.47192
0.451	-137.76855
0.4515	-133.63953
0.452	-120.54749
0.4525	-103.93066
0.453	-87.61597
0.4535	-77.64587
0.454	-66.76941
0.4545	-55.2887
0.455	-30.31311
0.4555	8.56018
0.456	67.77649
0.4565	116.922
0.457	181.97937
0.4575	251.26648
0.458	357.1106
0.4585	425.99487
0.459	451.57471
0.4595	489.64233
0.46	496.69189
0.4605	441.60461
0.461	345.12634
0.4615	245.52612
0.462	153.07617
0.4625	60.62622
0.463	-10.17151
0.4635	-44.21082
0.464	-113.90076
0.4645	-197.28699
0.465	-268.58826
0.4655	-318.03589
0.466	-341.90369
0.4665	-354.19006
0.467	-349.25537
0.4675	-339.68811
0.468	-310.5835
0.4685	-282.68738
0.469	-243.51196
0.4695	-209.77478
0.47	-172.61353
0.4705	-149.34998
0.471	-116.11633
0.4715	-72.61047
0.472	-29.70886
0.4725	-6.2439
0.473	11.88354
0.4735	19.03381
0.474	25.47913
0.4745	29.80957
0.475	29.70886
0.4755	38.26904
0.476	49.34692
0.4765	68.28003
0.477	81.27136
0.4775	95.67261
0.478	109.57031
0.4785	125.88501
0.479	138.87634
0.4795	140.48767
0.48	122.66235
0.4805	98.99597
0.481	71.80481
0.4815	39.88037
0.482	22.76001
0.4825	25.27771
0.483	27.39258
0.4835	23.8678
0.484	18.8324
0.4845	2.61841
0.485	-13.99841
0.4855	-27.79541
0.486	-32.02515
0.4865	-32.7301
0.487	-40.1825
0.4875	-44.61365
0.488	-43.80798
0.4885	-48.84338
0.489	-40.78674
0.4895	-35.75134
0.49	-6.54602
0.4905	44.31152
0.491	66.26587
0.4915	83.48694
0.492	89.52942
0.4925	82.27844
0.493	68.28003
0.4935	48.33984
0.494	34.84497
0.4945	47.63489
0.495	48.23914
0.4955	40.08179
0.496	54.48303
0.4965	83.68835
0.497	81.57349
0.4975	71.20056
0.498	47.23206
0.4985	10.87646
0.499	-14.90479
0.4995	-52.67029
0.5	-75.32959
0.5005	-92.55066
0.501	-94.76624
0.5015	-93.25562
0.502	-90.5365
0.5025	-85.40039
0.503	-70.19348
0.5035	-48.84338
0.504	-26.28479
0.5045	-13.59558
0.505	-7.04956
0.5055	-10.77576
0.506	-17.82532
0.5065	-26.78833
0.507	-26.88904
0.5075	-28.70178
0.508	-23.76709
0.5085	-26.78833
0.509	-19.23523
0.5095	-9.26514
0.51	-2.81982
0.5105	-5.43823
0.511	-1.81274
0.5115	15.20691
0.512	29.30603
0.5125	37.96692
0.513	38.87329
0.5135	37.96692
0.514	33.73718
0.5145	35.44922
0.515	29.80957
0.5155	30.51453
0.516	25.88196
0.5165	25.177
0.517	53.67737
0.5175	81.57349
0.518	101.11084
0.5185	108.66394
0.519	101.9165
0.5195	88.42163
0.52	89.42871
0.5205	167.88025
0.521	252.47498
0.5215	319.4458
0.522	378.66211
0.5225	380.77698
0.523	355.80139
0.5235	314.51111
0.524	265.86914
0.5245	199.20044
0.525	147.73865
0.5255	137.76855
0.526	98.0896
0.5265	12.68921
0.527	-66.97083
0.5275	-143.81104
0.528	-185.60486
0.5285	-204.13513
0.529	-221.05408
0.5295	-265.86914
0.53	-297.08862
0.5305	-314.61182
0.531	-296.18225
0.5315	-237.06665
0.532	-186.1084
0.5325	-119.03687
0.533	-77.948
0.5335	-61.12976
0.534	-52.26746
0.5345	-15.81116
0.535	26.78833
0.5355	38.06763
0.536	29.80957
0.5365	26.78833
0.537	12.68921
0.5375	-8.56018
0.538	-38.16833
0.5385	-40.98816
0.539	-33.53577
0.5395	-39.17542
0.54	-52.16675
0.5405	-77.04163
0.541	-95.97473
0.5415	-101.41296
0.542	-114.80713
0.5425	-121.75598
0.543	-118.13049
0.5435	-94.96765
0.544	-68.28003
0.5445	-62.64038
0.545	-48.64197
0.5455	-6.64673
0.546	72.00623
0.5465	194.46716
0.547	263.15002
0.5475	275.73853
0.548	262.34436
0.5485	225.58594
0.549	183.38928
0.5495	136.56006
0.55	78.95508
0.5505	20.74585
0.551	-36.25488
0.5515	-83.18481
0.552	-120.24536
0.5525	-147.33582
0.553	-157.30591
0.5535	-160.72998
0.554	-161.63635
0.5545	-152.06909
0.555	-122.15881
0.5555	-113.90076
0.556	-106.64978
0.5565	-88.52234
0.557	-60.62622
0.5575	-28.39966
0.558	0.40283
0.5585	9.66797
0.559	14.09912
0.5595	15.1062
0.56	6.44531
0.5605	-8.05664
0.561	-12.28638
0.5615	-30.01099
0.562	-47.03064
0.5625	-67.47437
0.563	-64.65454
0.5635	-58.91418
0.564	-49.85046
0.5645	-46.42639
0.565	-51.46179
0.5655	-49.24622
0.566	-44.51294
0.5665	-41.79382
0.567	-33.13293
0.5675	-33.43506
0.568	-21.3501
0.5685	-2.31628
0.569	4.43115
0.5695	17.72461
0.57	18.73169
0.5705	20.54443
0.571	34.03931
0.5715	36.25488
0.572	44.71436
0.5725	44.31152
0.573	53.37524
0.5735	68.48145
0.574	101.01013
0.5745	123.36731
0.575	118.53333
0.5755	109.77173
0.576	97.08252
0.5765	79.15649
0.577	64.85596
0.5775	47.53418
0.578	30.71594
0.5785	14.80408
0.579	4.93469
0.5795	2.61841
0.58	4.83398
0.5805	14.09912
0.581	45.01648
0.5815	83.48694
0.582	114.60571
0.5825	132.0282
0.583	128.10059
0.5835	122.96448
0.584	95.97473
0.5845	86.91101
0.585	81.7749
0.5855	65.56091
0.586	48.23914
0.5865	36.4563
0.587	78.45154
0.5875	97.18323
0.588	122.66235
0.5885	147.63794
0.589	175.53406
0.5895	183.99353
0.59	173.01636
0.5905	143.3075
0.591	123.06519
0.5915	96.37756
0.592	58.91418
0.5925	21.04797
0.593	-18.02673
0.5935	-61.93542
0.594	-101.11084
0.5945	-121.75598
0.595	-91.64429
0.5955	5.23682
0.596	93.0542
0.5965	146.22803
0.597	188.22327
0.5975	244.61975
0.598	274.02649
0.5985	235.95886
0.599	186.00769
0.5995	109.77173
0.6	24.37134
0.6005	-34.34143
0.601	-83.78906
0.6015	-145.62378
0.602	-172.91565
0.6025	-184.59778
0.603	-219.34204
0.6035	-260.02808
0.604	-292.35535
0.6045	-318.2373
0.605	-335.05554
0.6055	-331.73218
0.606	-283.39233
0.6065	-222.36328
0.607	-183.99353
0.6075	-129.71191
0.608	-85.70251
0.6085	-53.17383
0.609	-27.6947
0.6095	-16.71753
0.61	-8.45947
0.6105	-3.32336
0.611	-6.94885
0.6115	-9.86938
0.612	-26.18408
0.6125	-33.13293
0.613	-14.50195
0.6135	3.52478
0.614	11.38
0.6145	17.01965
0.615	9.16443
0.6155	13.99841
0.616	4.83398
0.6165	1.2085
0.617	9.26514
0.6175	17.6239
0.618	26.48621
0.6185	32.52869
0.619	37.56409
0.6195	55.49011
0.62	71.50269
0.6205	78.85437
0.621	67.8772
0.6215	69.28711
0.622	50.55542
0.6225	46.32568
0.623	25.07629
0.6235	9.56726
0.624	-12.38708
0.6245	-30.61523
0.625	-40.1825
0.6255	-55.99365
0.626	-66.6687
0.6265	-77.64587
0.627	-71.40198
0.6275	-62.23755
0.628	-21.75293
0.6285	22.86072
0.629	47.03064
0.6295	51.86462
0.63	45.72144
0.6305	39.47754
0.631	32.7301
0.6315	43.90869
0.632	48.03772
0.6325	54.18091
0.633	51.96533
0.6335	51.46179
0.634	29.80957
0.6345	15.20691
0.635	-8.25806
0.6355	-8.15735
0.636	16.71753
0.6365	30.91736
0.637	34.94568
0.6375	46.5271
0.638	74.32251
0.6385	88.22021
0.639	87.41455
0.6395	74.52393
0.64	52.46887
0.6405	30.81665
0.641	5.94177
0.6415	-12.89062
0.642	-22.25647
0.6425	-35.65063
0.643	-47.23206
0.6435	-49.95117
0.644	-46.62781
0.6445	-48.54126
0.645	-41.79382
0.6455	-41.59241
0.646	-37.46338
0.6465	-37.96692
0.647	-31.32019
0.6475	-21.3501
0.648	-10.97717
0.6485	6.14319
0.649	30.2124
0.6495	40.98816
0.65	47.7356
0.6505	55.49011
0.651	65.25879
0.6515	106.54907
0.652	140.08484
0.6525	153.479
0.653	153.57971
0.6535	139.68201
0.654	152.87476
0.6545	149.95422
0.655	132.93457
0.6555	105.74341
0.656	76.43738
0.6565	38.16833
0.657	6.64673
0.6575	-22.86072
0.658	-42.59949
0.6585	-39.88037
0.659	-38.87329
0.6595	-44.81506
0.66	-54.98657
0.6605	-74.42322
0.661	-87.81738
0.6615	-91.04004
0.662	-80.66711
0.6625	-72.30835
0.663	-32.52869
0.6635	5.84106
0.664	39.77966
0.6645	55.89294
0.665	54.88586
0.6655	36.4563
0.666	18.93311
0.6665	17.6239
0.667	50.95825
0.6675	70.19348
0.668	83.78906
0.6685	125.07935
0.669	146.42944
0.6695	146.83228
0.67	141.69617
0.6705	123.66943
0.671	88.92517
0.6715	43.20374
0.672	8.66089
0.6725	-17.42249
0.673	-47.8363
0.6735	-70.79773
0.674	-90.13367
0.6745	-97.78748
0.675	-103.72925
0.6755	-113.39722
0.676	-127.99988
0.6765	-136.96289
0.677	-138.27209
0.6775	-129.61121
0.678	-118.33191
0.6785	-106.24695
0.679	-94.76624
0.6795	-70.49561
0.68	-46.82922
0.6805	-32.7301
0.681	-18.63098
0.6815	-6.74744
0.682	0.80566
0.6825	-1.10779
0.683	19.23523
0.6835	83.99048
0.684	145.72449
0.6845	197.99194
0.685	213.29956
0.6855	211.58752
0.686	213.50098
0.6865	185.30273
0.687	144.6167
0.6875	97.08252
0.688	69.48853
0.6885	32.62939
0.689	22.86072
0.6895	18.93311
0.69	9.46655
0.6905	-17.52319
0.691	-32.7301
0.6915	-38.974
0.692	-52.46887
0.6925	-38.47046
0.693	-30.01099
0.6935	-36.35559
0.694	-46.22498
0.6945	-66.16516
0.695	-87.11243
0.6955	-98.29102
0.696	-114.4043
0.6965	-128.10059
0.697	-129.30908
0.6975	-119.84253
0.698	-114.90784
0.6985	-111.28235
0.699	-101.61438
0.6995	-96.8811
0.7	-92.24854
0.7005	-87.51526
0.701	-75.4303
0.7015	-68.17932
0.702	-44.41223
0.7025	3.62549
0.703	26.88904
0.7035	38.77258
0.704	45.82214
0.7045	42.49878
0.705	52.97241
0.7055	64.05029
0.706	68.68286
0.7065	72.71118
0.707	63.14392
0.7075	55.18799
0.708	33.23364
0.7085	26.48621
0.709	18.93311
0.7095	17.12036
0.71	12.38708
0.7105	19.53735
0.711	13.69629
0.7115	7.35168
0.712	0.80566
0.7125	-13.797
0.713	-13.69629
0.7135	-14.30054
0.714	-21.3501
0.7145	-22.05505
0.715	-17.52319
0.7155	-13.69629
0.716	1.51062
0.7165	10.37292
0.717	16.71753
0.7175	6.84814
0.718	-8.25806
0.7185	-15.71045
0.719	-15.40833
0.7195	-12.48779
0.72	-1.81274
0.7205	1.00708
0.721	1.71204
0.7215	26.3855
0.722	80.36499
0.7225	114.70642
0.723	132.73315
0.7235	144.6167
0.724	135.65369
0.7245	124.17297
0.725	130.8197
0.7255	133.23669
0.726	119.64111
0.7265	93.45703
0.727	58.20923
0.7275	10.77576
0.728	-16.01257
0.7285	-10.0708
0.729	-11.17859
0.7295	-34.34143
0.73	-39.67896
0.7305	-57.9071
0.731	-66.87012
0.7315	-78.65295
0.732	-76.84021
0.7325	-53.27454
0.733	-27.6947
0.7335	-7.35168
0.734	-0.80566
0.7345	-5.23682
0.735	-3.32336
0.7355	-4.53186
0.736	-6.04248
0.7365	-4.73328
0.737	-11.48071
0.7375	-11.58142
0.738	-15.71045
0.7385	-15.50903
0.739	-16.41541
0.7395	-19.43665
0.74	-20.84656
0.7405	-22.86072
0.741	-21.04797
0.7415	-12.89062
0.742	-12.5885
0.7425	-11.07788
0.743	-8.25806
0.7435	0.90637
0.744	8.45947
0.7445	12.5885
0.745	20.94727
0.7455	24.06921
0.746	29.70886
0.7465	89.12659
0.747	138.57422
0.7475	168.78662
0.748	176.33972
0.7485	164.25476
0.749	138.87634
0.7495	120.04395
0.75	97.78748
0.7505	71.90552
0.751	36.65771
0.7515	-0.20142
0.752	-39.67896
0.7525	-62.03613
0.753	-78.85437
0.7535	-78.25012
0.754	-74.62463
0.7545	-71.20056
0.755	-77.64587
0.7555	-74.32251
0.756	-63.34534
0.7565	-60.92834
0.757	-51.5625
0.7575	-27.79541
0.758	-1.61133
0.7585	32.22656
0.759	53.77808
0.7595	52.97241
0.76	66.16516
0.7605	65.15808
0.761	67.77649
0.7615	96.17615
0.762	145.52307
0.7625	185.10132
0.763	204.84009
0.7635	205.44434
0.764	182.98645
0.7645	138.3728
0.765	95.87402
0.7655	46.62781
0.766	0.50354
0.7665	-48.23914
0.767	-90.13367
0.7675	-91.745
0.768	-61.02905
0.7685	-51.36108
0.769	-53.27454
0.7695	-60.92834
0.77	-79.55933
0.7705	-104.53491
0.771	-130.92041
0.7715	-152.57263
0.772	-158.81653
0.7725	-167.17529
0.773	-172.61353
0.7735	-169.59229
0.774	-157.00378
0.7745	-150.25635
0.775	-140.99121
0.7755	-136.86218
0.776	-117.72766
0.7765	-87.31384
0.777	-52.67029
0.7775	-18.12744
0.778	10.57434
0.7785	19.94019
0.779	34.94568
0.7795	32.22656
0.78	21.75293
0.7805	4.12903
0.781	-2.01416
0.7815	-12.78992
0.782	-31.72302
0.7825	-33.63647
0.783	-21.95435
0.7835	-11.88354
0.784	4.63257
0.7845	14.50195
0.785	18.63098
0.7855	32.12585
0.786	32.83081
0.7865	32.42798
0.787	25.07629
0.7875	15.50903
0.788	19.23523
0.7885	21.85364
0.789	26.3855
0.7895	26.88904
0.79	19.63806
0.7905	12.99133
0.791	13.39417
0.7915	22.55859
0.792	28.29895
0.7925	44.81506
0.793	43.60657
0.7935	81.57349
0.794	104.13208
0.7945	110.17456
0.795	108.96606
0.7955	97.18323
0.796	74.12109
0.7965	43.80798
0.797	18.73169
0.7975	11.68213
0.798	22.35718
0.7985	24.37134
0.799	13.09204
0.7995	-2.92053
0.8	-20.04089
0.8005	-33.73718
0.801	-30.71594
0.8015	-4.53186
0.802	31.62231
0.8025	72.81189
0.803	111.68518
0.8035	148.54431
0.804	149.04785
0.8045	124.67651
0.805	96.8811
0.8055	64.151
0.806	29.80957
0.8065	2.11487
0.807	-15.30762
0.8075	-21.55151
0.808	-5.63965
0.8085	20.1416
0.809	28.50037
0.8095	29.60815
0.81	52.46887
0.8105	95.16907
0.811	119.23828
0.8115	112.99438
0.812	90.33508
0.8125	63.44604
0.813	40.68604
0.8135	34.44214
0.814	30.01099
0.8145	14.80408
0.815	-8.25806
0.8155	-34.44214
0.816	-55.79224
0.8165	-71.09985
0.817	-84.89685
0.8175	-116.922
0.818	-139.27917
0.8185	-160.9314
0.819	-166.77246
0.8195	-154.88892
0.82	-143.81104
0.8205	-120.34607
0.821	-99.3988
0.8215	-77.24304
0.822	-63.04321
0.8225	-63.34534
0.823	-64.65454
0.8235	-62.9425
0.824	-60.4248
0.8245	-55.08728
0.825	-50.05188
0.8255	-53.57666
0.826	-60.92834
0.8265	-59.21631
0.827	-50.85754
0.8275	-42.49878
0.828	-41.29028
0.8285	-34.54285
0.829	-21.55151
0.8295	13.39417
0.83	37.46338
0.8305	60.82764
0.831	67.47437
0.8315	67.17224
0.832	77.44446
0.8325	81.47278
0.833	103.02429
0.8335	130.8197
0.834	156.80237
0.8345	145.32166
0.835	128.50342
0.8355	105.13916
0.836	68.17932
0.8365	33.13293
0.837	-0.40283
0.8375	-23.36426
0.838	-50.95825
0.8385	-71.7041
0.839	-84.99756
0.8395	-76.7395
0.84	-53.77808
0.8405	-24.87488
0.841	5.33752
0.8415	36.65771
0.842	34.74426
0.8425	49.24622
0.843	71.50269
0.8435	102.92358
0.844	105.03845
0.8445	113.49792
0.845	121.05103
0.8455	108.96606
0.846	84.09119
0.8465	62.74109
0.847	39.98108
0.8475	19.13452
0.848	1.10779
0.8485	-20.44373
0.849	-41.89453
0.8495	-46.42639
0.85	-58.00781
0.8505	-62.8418
0.851	-67.27295
0.8515	-79.96216
0.852	-85.70251
0.8525	-75.83313
0.853	-68.28003
0.8535	-59.92126
0.854	-59.21631
0.8545	-61.73401
0.855	-51.46179
0.8555	-44.51294
0.856	-31.62231
0.8565	-20.44373
0.857	13.49487
0.8575	77.948
0.858	150.35706
0.8585	223.16895
0.859	242.40417
0.8595	224.07532
0.86	174.22485
0.8605	138.17139
0.861	100.30518
0.8615	63.04321
0.862	51.96533
0.8625	49.34692
0.863	47.13135
0.8635	35.85205
0.864	15.00549
0.8645	-0.50354
0.865	-25.98267
0.8655	-26.18408
0.866	-34.03931
0.8665	-53.07312
0.867	-74.02039
0.8675	-82.58057
0.868	-81.87561
0.8685	-79.45862
0.869	-89.02588
0.8695	-104.53491
0.87	-124.27368
0.8705	-133.94165
0.871	-128.80554
0.8715	-117.42554
0.872	-97.08252
0.8725	-85.19897
0.873	-60.82764
0.8735	-28.50037
0.874	-13.29346
0.8745	-1.51062
0.875	0.40283
0.8755	4.43115
0.876	9.06372
0.8765	3.12195
0.877	-1.2085
0.8775	-5.84106
0.878	-11.98425
0.8785	-10.17151
0.879	-7.75452
0.8795	-6.2439
0.88	-4.93469
0.8805	-4.73328
0.881	-5.94177
0.8815	-9.76868
0.882	-9.97009
0.8825	-10.27222
0.883	-17.42249
0.8835	-16.21399
0.884	-20.34302
0.8845	-14.30054
0.885	-9.16443
0.8855	13.09204
0.886	47.7356
0.8865	78.25012
0.887	88.62305
0.8875	85.70251
0.888	68.98499
0.8885	58.00781
0.889	43.90869
0.8895	37.46338
0.89	25.78125
0.8905	36.95984
0.891	42.7002
0.8915	34.14001
0.892	24.27063
0.8925	13.89771
0.893	-0.80566
0.8935	5.74036
0.894	6.94885
0.8945	7.95593
0.895	-1.91345
0.8955	-1.10779
0.896	-8.15735
0.8965	-3.62549
0.897	-9.76868
0.8975	-5.23682
0.898	9.26514
0.8985	41.99524
0.899	88.82446
0.8995	125.28076
0.9	118.43262
0.9005	92.04712
0.901	68.98499
0.9015	44.41223
0.902	30.91736
0.9025	45.2179
0.903	49.44763
0.9035	28.39966
0.904	0.50354
0.9045	-30.91736
0.905	-66.56799
0.9055	-86.91101
0.906	-106.34766
0.9065	-122.05811
0.907	-128.60413
0.9075	-108.26111
0.908	-95.67261
0.9085	-78.25012
0.909	-57.20215
0.9095	-44.61365
0.91	-25.88196
0.9105	-16.41541
0.911	-25.88196
0.9115	-30.2124
0.912	-18.02673
0.9125	1.3092
0.913	35.75134
0.9135	62.23755
0.914	82.47986
0.9145	77.54517
0.915	73.41614
0.9155	62.03613
0.916	44.51294
0.9165	48.94409
0.917	63.14392
0.9175	70.29419
0.918	79.2572
0.9185	74.32251
0.919	66.16516
0.9195	47.63489
0.92	29.20532
0.9205	12.68921
0.921	-9.16443
0.9215	-22.05505
0.922	-41.08887
0.9225	-55.2887
0.923	-69.28711
0.9235	-75.12817
0.924	-71.40198
0.9245	-66.06445
0.925	-67.07153
0.9255	-65.15808
0.926	-65.3595
0.9265	-25.27771
0.927	-4.33044
0.9275	9.97009
0.928	21.3501
0.9285	17.92603
0.929	18.22815
0.9295	16.61682
0.93	2.31628
0.9305	-21.14868
0.931	-36.55701
0.9315	-47.63489
0.932	-43.20374
0.9325	-39.88037
0.933	-36.05347
0.9335	-30.11169
0.934	-17.82532
0.9345	-2.31628
0.935	17.12036
0.9355	36.65771
0.936	54.48303
0.9365	63.84888
0.937	82.07703
0.9375	87.71667
0.938	85.29968
0.9385	76.43738
0.939	65.05737
0.9395	59.61914
0.94	54.0802
0.9405	40.1825
0.941	39.67896
0.9415	49.85046
0.942	59.21631
0.9425	59.71985
0.943	45.2179
0.9435	33.33435
0.944	16.01257
0.9445	3.22266
0.945	-3.52478
0.9455	25.47913
0.946	47.53418
0.9465	59.21631
0.947	58.30994
0.9475	63.54675
0.948	57.00073
0.9485	48.13843
0.949	66.6687
0.9495	109.06677
0.95	133.43811
0.9505	154.08325
0.951	156.09741
0.9515	156.90308
0.952	149.75281
0.9525	112.69226
0.953	67.17224
0.9535	44.31152
0.954	24.37134
0.9545	-6.54602
0.955	-37.36267
0.9555	-68.68286
0.956	-105.6427
0.9565	-139.68201
0.957	-160.12573
0.9575	-159.52148
0.958	-112.99438
0.9585	-73.41614
0.959	-82.78198
0.9595	-95.26978
0.96	-102.11792
0.9605	-110.47668
0.961	-118.02979
0.9615	-140.08484
0.962	-148.4436
0.9625	-149.34998
0.963	-125.28076
0.9635	-102.92358
0.964	-88.0188
0.9645	-68.98499
0.965	-60.22339
0.9655	-49.54834
0.966	-50.95825
0.9665	-37.26196
0.967	-21.55151
0.9675	11.48071
0.968	37.86621
0.9685	57.50427
0.969	58.51135
0.9695	54.18091
0.97	42.90161
0.9705	25.88196
0.971	11.68213
0.9715	10.87646
0.972	6.44531
0.9725	2.21558
0.973	-10.0708
0.9735	-16.81824
0.974	-23.96851
0.9745	-22.35718
0.975	-23.96851
0.9755	-23.66638
0.976	-19.43665
0.9765	-17.82532
0.977	-14.60266
0.9775	-16.3147
0.978	-7.65381
0.9785	2.11487
0.979	13.99841
0.9795	33.23364
0.98	60.12268
0.9805	76.63879
0.981	81.87561
0.9815	71.30127
0.982	61.83472
0.9825	64.85596
0.983	80.96924
0.9835	75.4303
0.984	60.92834
0.9845	46.82922
0.985	50.2533
0.9855	66.97083
0.986	73.71826
0.9865	62.13684
0.987	45.62073
0.9875	25.37842
0.988	8.66089
0.9885	-17.01965
0.989	-33.03223
0.9895	-42.39807
0.99	-39.37683
0.9905	-36.65771
0.991	-23.06213
0.9915	-9.66797
0.992	1.40991
0.9925	22.45789
0.993	29.70886
0.9935	27.79541
0.994	28.39966
0.9945	23.46497
0.995	6.44531
0.9955	-12.78992
0.996	-27.99683
0.9965	-28.70178
0.997	-6.84814
0.9975	32.7301
0.998	54.0802
0.9985	64.65454
0.999	57.30286
0.9995	41.59241
1	28.50037
1.0005	10.47363
1.001	8.7616
1.0015	-11.98425
1.002	-30.71594
1.0025	-41.08887
1.003	-45.72144
1.0035	-47.63489
1.004	-49.34692
1.0045	-13.19275
1.005	19.53735
1.0055	45.3186
1.006	62.74109
1.0065	58.30994
1.007	42.09595
1.0075	48.94409
1.008	70.69702
1.0085	80.96924
1.009	82.88269
1.0095	82.07703
1.01	78.55225
1.0105	83.38623
1.011	72.20764
1.0115	57.30286
1.012	43.30444
1.0125	25.98267
1.013	22.86072
1.0135	32.62939
1.014	33.13293
1.0145	20.04089
1.015	10.37292
1.0155	6.84814
1.016	-6.44531
1.0165	-27.79541
1.017	-61.12976
1.0175	-85.29968
1.018	-102.92358
1.0185	-102.21863
1.019	-112.69226
1.0195	-95.16907
1.02	-92.75208
1.0205	-90.23438
1.021	-80.4657
1.0215	-66.06445
1.022	-43.80798
1.0225	-29.70886
1.023	-26.58691
1.0235	-28.39966
1.024	-26.58691
1.0245	-28.70178
1.025	-19.03381
1.0255	-4.63257
1.026	1.00708
1.0265	12.08496
1.027	18.22815
1.0275	32.7301
1.028	52.56958
1.0285	63.74817
1.029	62.23755
1.0295	45.62073
1.03	36.4563
1.0305	20.44373
1.031	-0.20142
1.0315	-11.48071
1.032	-12.48779
1.0325	-14.70337
1.033	-16.51611
1.0335	-21.55151
1.034	-23.46497
1.0345	-22.76001
1.035	-24.06921
1.0355	-24.16992
1.036	-16.51611
1.0365	-15.20691
1.037	-8.66089
1.0375	-6.94885
1.038	-1.10779
1.0385	-1.51062
1.039	9.06372
1.0395	12.38708
1.04	9.76868
1.0405	5.63965
1.041	7.04956
1.0415	18.42957
1.042	45.01648
1.0425	62.33826
1.043	62.64038
1.0435	52.26746
1.044	41.99524
1.0445	36.15417
1.045	22.15576
1.0455	14.30054
1.046	5.74036
1.0465	-1.3092
1.047	-11.2793
1.0475	-15.71045
1.048	-20.94727
1.0485	-27.39258
1.049	-16.91895
1.0495	-20.94727
1.05	-12.48779
1.0505	3.12195
1.051	35.65063
1.0515	63.94958
1.052	70.49561
1.0525	65.76233
1.053	60.4248
1.0535	54.48303
1.054	50.05188
1.0545	53.97949
1.055	42.49878
1.0555	30.41382
1.056	21.04797
1.0565	6.3446
1.057	-4.73328
1.0575	-12.38708
1.058	-12.78992
1.0585	4.83398
1.059	38.26904
1.0595	68.88428
1.06	86.20605
1.0605	116.922
1.061	149.34998
1.0615	164.95972
1.062	160.02502
1.0625	126.18713
1.063	91.34216
1.0635	48.23914
1.064	14.19983
1.0645	-24.67346
1.065	-40.38391
1.0655	-68.17932
1.066	-89.93225
1.0665	-104.73633
1.067	-110.17456
1.0675	-125.7843
1.068	-120.14465
1.0685	-109.4696
1.069	-90.5365
1.0695	-74.82605
1.07	-55.18799
1.0705	-46.72852
1.071	-5.53894
1.0715	38.77258
1.072	88.62305
1.0725	117.12341
1.073	105.03845
1.0735	81.17065
1.074	45.62073
1.0745	9.97009
1.075	-12.08496
1.0755	-4.83398
1.076	8.56018
1.0765	10.97717
1.077	16.81824
1.0775	30.01099
1.078	35.75134
1.0785	47.8363
1.079	49.34692
1.0795	56.5979
1.08	44.71436
1.0805	37.86621
1.081	22.45789
1.0815	0.60425
1.082	-23.06213
1.0825	-41.4917
1.083	-65.76233
1.0835	-83.38623
1.084	-83.68835
1.0845	-91.04004
1.085	-92.95349
1.0855	-97.98889
1.086	-98.39172
1.0865	-104.03137
1.087	-93.65845
1.0875	-80.56641
1.088	-68.88428
1.0885	-38.67188
1.089	8.35876
1.0895	46.62781
1.09	62.9425
1.0905	81.17065
1.091	87.31384
1.0915	93.75916
1.092	110.77881
1.0925	135.95581
1.093	137.96997
1.0935	127.09351
1.094	105.13916
1.0945	79.86145
1.095	50.15259
1.0955	26.78833
1.096	0
1.0965	-26.78833
1.097	-49.64905
1.0975	-67.97791
1.098	-80.36499
1.0985	-79.76074
1.099	-77.04163
1.0995	-80.26428
1.1	-60.72693
1.1005	-46.5271
1.101	-17.72461
1.1015	9.46655
1.102	28.9032
1.1025	37.26196
1.103	32.42798
1.1035	29.91028
1.104	23.36426
1.1045	19.13452
1.105	21.45081
1.1055	25.68054
1.106	19.53735
1.1065	5.94177
1.107	-8.15735
1.1075	-13.89771
1.108	-19.53735
1.1085	-20.04089
1.109	-14.50195
1.1095	-9.97009
1.11	4.22974
1.1105	10.17151
1.111	6.54602
1.1115	7.65381
1.112	19.03381
1.1125	30.11169
1.113	83.88977
1.1135	171.0022
1.114	225.78735
1.1145	226.99585
1.115	216.72363
1.1155	171.30432
1.116	126.18713
1.1165	69.79065
1.117	25.177
1.1175	-22.86072
1.118	-62.43896
1.1185	-98.49243
1.119	-122.66235
1.1195	-144.6167
1.12	-152.47192
1.1205	-155.896
1.121	-149.85352
1.1215	-132.12891
1.122	-114.80713
1.1225	-95.06836
1.123	-71.20056
1.1235	-55.3894
1.124	-23.46497
1.1245	13.09204
1.125	40.1825
1.1255	50.354
1.126	47.53418
1.1265	43.30444
1.127	44.51294
1.1275	44.91577
1.128	39.57825
1.1285	22.96143
1.129	30.91736
1.1295	37.66479
1.13	35.85205
1.1305	16.3147
1.131	10.37292
1.1315	-0.70496
1.132	-9.86938
1.1325	-23.76709
1.133	-36.05347
1.1335	-49.74976
1.134	-55.79224
1.1345	-57.60498
1.135	-57.9071
1.1355	-23.36426
1.136	18.32886
1.1365	46.42639
1.137	51.46179
1.1375	52.26746
1.138	72.50977
1.1385	99.80164
1.139	94.86694
1.1395	89.73083
1.14	68.28003
1.1405	70.3949
1.141	68.28003
1.1415	67.37366
1.142	58.10852
1.1425	49.34692
1.143	35.34851
1.1435	32.62939
1.144	35.54993
1.1445	24.47205
1.145	19.33594
1.1455	37.16125
1.146	32.62939
1.1465	32.52869
1.147	31.82373
1.1475	16.41541
1.148	-4.02832
1.1485	-11.68213
1.149	-8.05664
1.1495	-20.34302
1.15	-29.91028
1.1505	-45.62073
1.151	-63.94958
1.1515	-76.23596
1.152	-77.64587
1.1525	-82.78198
1.153	-80.16357
1.1535	-74.52393
1.154	-51.26038
1.1545	-33.83789
1.155	-31.82373
1.1555	-34.94568
1.156	-18.32886
1.1565	-9.97009
1.157	12.89062
1.1575	46.5271
1.158	52.97241
1.1585	46.92993
1.159	28.39966
1.1595	21.75293
1.16	9.36584
1.1605	9.76868
1.161	10.57434
1.1615	31.01807
1.162	43.40515
1.1625	50.05188
1.163	66.97083
1.1635	63.94958
1.164	45.3186
1.1645	12.78992
1.165	-9.06372
1.1655	-42.19666
1.166	-69.89136
1.1665	-87.31384
1.167	-104.3335
1.1675	-109.06677
1.168	-95.77332
1.1685	-61.12976
1.169	-31.82373
1.1695	-15.91187
1.17	-8.05664
1.1705	-4.53186
1.171	10.27222
1.1715	34.54285
1.172	51.86462
1.1725	48.94409
1.173	45.41931
1.1735	41.79382
1.174	23.76709
1.1745	5.43823
1.175	-3.52478
1.1755	-12.78992
1.176	-28.29895
1.1765	-31.11877
1.177	-37.56409
1.1775	-21.55151
1.178	-20.24231
1.1785	-7.45239
1.179	29.10461
1.1795	64.151
1.18	79.55933
1.1805	79.76074
1.181	73.01331
1.1815	73.81897
1.182	68.38074
1.1825	97.38464
1.183	137.86926
1.1835	138.47351
1.184	118.13049
1.1845	94.86694
1.185	67.97791
1.1855	29.40674
1.186	0.20142
1.1865	-26.68762
1.187	-51.36108
1.1875	-65.66162
1.188	-91.34216
1.1885	-108.56323
1.189	-123.97156
1.1895	-131.22253
1.19	-125.38147
1.1905	-122.46094
1.191	-107.55615
1.1915	-88.32092
1.192	-73.71826
1.1925	-64.85596
1.193	-58.71277
1.1935	-43.30444
1.194	-17.72461
1.1945	-2.61841
1.195	6.04248
1.1955	9.36584
1.196	12.08496
1.1965	22.76001
1.197	29.60815
1.1975	29.80957
1.198	32.7301
1.1985	31.92444
1.199	32.52869
1.1995	31.92444
1.2	28.70178
1.2005	19.73877
1.201	21.95435
1.2015	35.95276
1.202	56.5979
1.2025	59.31702
1.203	57.8064
1.2035	56.19507
1.204	48.44055
1.2045	46.02356
1.205	37.46338
1.2055	27.39258
1.206	16.3147
1.2065	9.36584
1.207	31.72302
1.2075	54.48303
1.208	62.33826
1.2085	59.71985
1.209	67.67578
1.2095	77.84729
1.21	63.64746
1.2105	32.32727
1.211	0.60425
1.2115	-18.8324
1.212	-9.66797
1.2125	1.10779
1.213	11.88354
1.2135	7.35168
1.214	3.7262
1.2145	-26.08337
1.215	-43.30444
1.2155	-58.81348
1.216	-63.94958
1.2165	-64.151
1.217	-61.43188
1.2175	-52.67029
1.218	-42.29736
1.2185	-40.2832
1.219	-24.37134
1.2195	11.07788
1.22	37.56409
1.2205	72.10693
1.221	99.80164
1.2215	90.93933
1.222	69.08569
1.2225	45.82214
1.223	24.27063
1.2235	0.40283
1.224	-17.42249
1.2245	-25.88196
1.225	-35.34851
1.2255	-47.13135
1.226	-56.69861
1.2265	-49.14551
1.227	-41.29028
1.2275	-35.34851
1.228	-10.47363
1.2285	26.3855
1.229	62.43896
1.2295	76.13525
1.23	65.66162
1.2305	47.43347
1.231	26.68762
1.2315	3.7262
1.232	-17.52319
1.2325	-48.44055
1.233	-76.03455
1.2335	-89.83154
1.234	-94.76624
1.2345	-87.01172
1.235	-61.73401
1.2355	-42.19666
1.236	-32.7301
1.2365	-28.19824
1.237	-18.42957
1.2375	-4.73328
1.238	2.5177
1.2385	6.14319
1.239	7.65381
1.2395	14.80408
1.24	20.04089
1.2405	25.78125
1.241	30.61523
1.2415	41.29028
1.242	49.74976
1.2425	58.30994
1.243	90.73792
1.2435	113.09509
1.244	120.64819
1.2445	107.15332
1.245	80.96924
1.2455	70.19348
1.246	67.97791
1.2465	66.87012
1.247	75.63171
1.2475	75.93384
1.248	63.44604
1.2485	49.34692
1.249	40.48462
1.2495	41.39099
1.25	40.38391
1.2505	39.88037
1.251	19.03381
1.2515	2.21558
1.252	-28.70178
1.2525	-61.12976
1.253	-90.13367
1.2535	-106.24695
1.254	-111.8866
1.2545	-107.75757
1.255	-107.65686
1.2555	-108.36182
1.256	-116.82129
1.2565	-107.35474
1.257	-98.69385
1.2575	-83.28552
1.258	-50.354
1.2585	-10.87646
1.259	22.15576
1.2595	37.96692
1.26	49.24622
1.2605	60.3241
1.261	66.76941
1.2615	60.4248
1.262	52.46887
1.2625	44.21082
1.263	37.26196
1.2635	33.13293
1.264	33.43506
1.2645	27.89612
1.265	35.54993
1.2655	31.11877
1.266	31.72302
1.2665	14.19983
1.267	-3.8269
1.2675	-18.73169
1.268	-27.6947
1.2685	-32.83081
1.269	-32.52869
1.2695	-37.86621
1.27	-42.29736
1.2705	-55.2887
1.271	-66.76941
1.2715	-64.95667
1.272	-60.82764
1.2725	-50.45471
1.273	-44.71436
1.2735	-40.1825
1.274	-42.49878
1.2745	-48.84338
1.275	-42.90161
1.2755	-34.74426
1.276	-22.6593
1.2765	-14.09912
1.277	-9.16443
1.2775	-3.7262
1.278	-8.15735
1.2785	-5.53894
1.279	8.96301
1.2795	13.69629
1.28	14.90479
1.2805	21.14868
1.281	30.11169
1.2815	36.05347
1.282	40.08179
1.2825	41.79382
1.283	44.21082
1.2835	45.2179
1.284	45.3186
1.2845	36.15417
1.285	34.24072
1.2855	37.96692
1.286	47.43347
1.2865	43.80798
1.287	46.22498
1.2875	46.82922
1.288	37.86621
1.2885	34.14001
1.289	39.98108
1.2895	68.28003
1.29	96.67969
1.2905	93.96057
1.291	82.07703
1.2915	68.38074
1.292	44.0094
1.2925	16.41541
1.293	-6.74744
1.2935	-20.94727
1.294	-35.75134
1.2945	-41.18958
1.295	-49.24622
1.2955	-47.33276
1.296	-49.64905
1.2965	-48.03772
1.297	-38.36975
1.2975	-30.81665
1.298	-20.64514
1.2985	6.2439
1.299	30.61523
1.2995	40.08179
1.3	46.62781
1.3005	46.62781
1.301	47.7356
1.3015	59.92126
1.302	79.15649
1.3025	80.4657
1.303	73.01331
1.3035	58.20923
1.304	41.08887
1.3045	42.19666
1.305	92.55066
1.3055	148.94714
1.306	177.04468
1.3065	171.70715
1.307	146.93298
1.3075	123.97156
1.308	96.07544
1.3085	79.96216
1.309	54.88586
1.3095	29.30603
1.31	-2.5177
1.3105	-42.7002
1.311	-72.50977
1.3115	-94.66553
1.312	-105.74341
1.3125	-97.28394
1.313	-75.12817
1.3135	-52.26746
1.314	-49.34692
1.3145	-66.56799
1.315	-74.92676
1.3155	-36.25488
1.316	16.91895
1.3165	36.35559
1.317	28.70178
1.3175	19.53735
1.318	7.95593
1.3185	-15.60974
1.319	-39.07471
1.3195	-67.17224
1.32	-92.85278
1.3205	-111.18164
1.321	-126.08643
1.3215	-137.16431
1.322	-119.84253
1.3225	-88.72375
1.323	-65.86304
1.3235	-32.62939
1.324	-7.95593
1.3245	10.67505
1.325	22.86072
1.3255	39.57825
1.326	56.49719
1.3265	55.3894
1.327	38.974
1.3275	25.98267
1.328	-2.71912
1.3285	-26.68762
1.329	-45.41931
1.3295	-60.62622
1.33	-78.35083
1.3305	-87.71667
1.331	-84.99756
1.3315	-79.96216
1.332	-70.89844
1.3325	-61.23047
1.333	-56.29578
1.3335	-48.23914
1.334	-33.13293
1.3345	-18.53027
1.335	-8.96301
1.3355	7.25098
1.336	31.32019
1.3365	46.22498
1.337	52.16675
1.3375	55.69153
1.338	53.97949
1.3385	46.62781
1.339	35.14709
1.3395	25.47913
1.34	30.51453
1.3405	27.09045
1.341	20.64514
1.3415	14.30054
1.342	11.48071
1.3425	1.2085
1.343	-10.97717
1.3435	-13.59558
1.344	-2.01416
1.3445	-0.50354
1.345	3.8269
1.3455	1.71204
1.346	1.91345
1.3465	-1.2085
1.347	4.73328
1.3475	7.75452
1.348	10.57434
1.3485	14.09912
1.349	16.51611
1.3495	21.14868
1.35	17.42249
1.3505	17.22107
1.351	17.6239
1.3515	20.94727
1.352	21.95435
1.3525	26.3855
1.353	49.54834
1.3535	54.28162
1.354	56.90002
1.3545	43.30444
1.355	41.89453
1.3555	41.39099
1.356	34.84497
1.3565	33.43506
1.357	31.11877
1.3575	25.37842
1.358	15.50903
1.3585	8.96301
1.359	7.85522
1.3595	9.06372
1.36	7.65381
1.3605	2.71912
1.361	-0.90637
1.3615	-0.70496
1.362	-3.52478
1.3625	3.92761
1.363	1.51062
1.3635	13.99841
1.364	25.98267
1.3645	37.06055
1.365	51.5625
1.3655	73.51685
1.366	108.76465
1.3665	134.94873
1.367	138.87634
1.3675	125.98572
1.368	117.62695
1.3685	89.52942
1.369	61.12976
1.3695	49.44763
1.37	67.8772
1.3705	97.18323
1.371	98.79456
1.3715	87.01172
1.372	94.06128
1.3725	93.85986
1.373	87.01172
1.3735	76.03455
1.374	47.03064
1.3745	6.64673
1.375	-29.50745
1.3755	-63.84888
1.376	-73.21472
1.3765	-73.71826
1.377	-86.20605
1.3775	-87.31384
1.378	-99.3988
1.3785	-96.17615
1.379	-85.09827
1.3795	-76.94092
1.38	-67.8772
1.3805	-63.04321
1.381	-35.2478
1.3815	-9.66797
1.382	6.2439
1.3825	54.58374
1.383	96.27686
1.3835	102.42004
1.384	97.08252
1.3845	68.68286
1.385	38.67188
1.3855	16.91895
1.386	12.38708
1.3865	-6.04248
1.387	-27.39258
1.3875	-51.66321
1.388	-78.85437
1.3885	-97.38464
1.389	-97.28394
1.3895	-107.45544
1.39	-101.61438
1.3905	-105.13916
1.391	-96.57898
1.3915	-90.73792
1.392	-87.41455
1.3925	-86.70959
1.393	-78.95508
1.3935	-68.68286
1.394	-56.79932
1.3945	-35.44922
1.395	-28.50037
1.3955	-16.71753
1.396	-18.8324
1.3965	-15.20691
1.397	-13.19275
1.3975	-14.50195
1.398	-6.54602
1.3985	4.83398
1.399	21.85364
1.3995	33.73718
1.4	23.76709
1.4005	14.90479
1.401	3.7262
1.4015	1.00708
1.402	-9.46655
1.4025	-13.69629
1.403	-16.21399
1.4035	-16.91895
1.404	-13.49487
1.4045	-9.66797
1.405	4.63257
1.4055	16.71753
1.406	45.11719
1.4065	67.17224
1.407	77.04163
1.4075	81.47278
1.408	71.7041
1.4085	73.41614
1.409	65.86304
1.4095	68.68286
1.41	82.27844
1.4105	99.3988
1.411	107.55615
1.4115	102.21863
1.412	82.37915
1.4125	70.79773
1.413	62.53967
1.4135	47.7356
1.414	33.43506
1.4145	4.53186
1.415	-16.11328
1.4155	-36.15417
1.416	-44.71436
1.4165	-54.48303
1.417	-65.05737
1.4175	-70.89844
1.418	-75.02747
1.4185	-74.32251
1.419	-58.71277
1.4195	-50.15259
1.42	-52.16675
1.4205	-50.15259
1.421	-42.39807
1.4215	-31.11877
1.422	-4.73328
1.4225	23.66638
1.423	34.24072
1.4235	25.68054
1.424	16.51611
1.4245	13.09204
1.425	17.01965
1.4255	18.53027
1.426	13.49487
1.4265	5.63965
1.427	0
1.4275	12.28638
1.428	15.40833
1.4285	12.68921
1.429	13.797
1.4295	13.39417
1.43	15.1062
1.4305	2.71912
1.431	0.30212
1.4315	-1.10779
1.432	1.3092
1.4325	-3.42407
1.433	-4.22974
1.4335	3.32336
1.434	10.57434
1.4345	4.12903
1.435	12.99133
1.4355	20.94727
1.436	24.67346
1.4365	39.88037
1.437	40.48462
1.4375	50.55542
1.438	49.54834
1.4385	48.54126
1.439	46.62781
1.4395	38.36975
1.44	30.61523
1.4405	35.14709
1.441	40.78674
1.4415	42.09595
1.442	37.06055
1.4425	40.48462
1.443	45.52002
1.4435	44.31152
1.444	38.47046
1.4445	42.29736
1.445	71.50269
1.4455	92.34924
1.446	97.88818
1.4465	90.73792
1.447	91.745
1.4475	90.83862
1.448	78.85437
1.4485	50.75684
1.449	24.06921
1.4495	-16.81824
1.45	-54.58374
1.4505	-90.83862
1.451	-120.04395
1.4515	-146.12732
1.452	-155.19104
1.4525	-127.79846
1.453	-92.14783
1.4535	-52.97241
1.454	-31.11877
1.4545	-19.53735
1.455	-20.44373
1.4555	-22.86072
1.456	-15.20691
1.4565	-18.22815
1.457	-20.24231
1.4575	-20.94727
1.458	-30.41382
1.4585	-49.34692
1.459	-46.12427
1.4595	-54.68445
1.46	-45.41931
1.4605	-23.8678
1.461	-7.95593
1.4615	14.80408
1.462	38.36975
1.4625	57.10144
1.463	61.12976
1.4635	57.60498
1.464	61.12976
1.4645	68.58215
1.465	73.91968
1.4655	66.6687
1.466	52.36816
1.4665	43.30444
1.467	49.85046
1.4675	64.05029
1.468	60.52551
1.4685	50.05188
1.469	35.2478
1.4695	16.11328
1.47	4.93469
1.4705	-8.15735
1.471	-15.50903
1.4715	-6.84814
1.472	14.09912
1.4725	34.44214
1.473	28.70178
1.4735	26.98975
1.474	20.04089
1.4745	1.61133
1.475	-15.60974
1.4755	-37.46338
1.476	-47.93701
1.4765	-62.64038
1.477	-73.11401
1.4775	-85.80322
1.478	-80.06287
1.4785	-64.85596
1.479	-51.26038
1.4795	-41.4917
1.48	-36.15417
1.4805	-4.33044
1.481	56.09436
1.4815	107.65686
1.482	167.47742
1.4825	227.49939
1.483	248.54736
1.4835	234.44824
1.484	196.58203
1.4845	150.45776
1.485	101.61438
1.4855	46.42639
1.486	-11.78284
1.4865	-56.49719
1.487	-91.34216
1.4875	-129.5105
1.488	-152.67334
1.4885	-160.42786
1.489	-172.41211
1.4895	-166.67175
1.49	-158.21228
1.4905	-143.60962
1.491	-124.97864
1.4915	-114.90784
1.492	-91.14075
1.4925	-68.48145
1.493	-55.08728
1.4935	-45.41931
1.494	-31.72302
1.4945	0.40283
1.495	19.63806
1.4955	28.29895
1.496	36.35559
1.4965	40.48462
1.497	36.15417
1.4975	38.06763
1.498	38.16833
1.4985	47.03064
1.499	47.7356
1.4995	49.64905
1.5	52.97241
1.5005	82.58057
1.501	102.11792
1.5015	105.74341
1.502	95.16907
1.5025	77.14233
1.503	58.71277
1.5035	40.48462
1.504	20.44373
1.5045	-1.2085
1.505	-17.01965
1.5055	-33.83789
1.506	-51.26038
1.5065	-65.96375
1.507	-73.71826
1.5075	-75.02747
1.508	-79.35791
1.5085	-80.26428
1.509	-66.97083
1.5095	-63.14392
1.51	-61.93542
1.5105	-58.81348
1.511	-49.85046
1.5115	-37.26196
1.512	-24.87488
1.5125	-13.99841
1.513	-7.95593
1.5135	0.10071
1.514	2.92053
1.5145	13.49487
1.515	16.61682
1.5155	23.36426
1.516	24.47205
1.5165	13.69629
1.517	20.54443
1.5175	28.29895
1.518	38.47046
1.5185	50.75684
1.519	60.92834
1.5195	67.77649
1.52	60.22339
1.5205	63.84888
1.521	56.5979
1.5215	53.47595
1.522	48.33984
1.5225	50.05188
1.523	46.32568
1.5235	40.1825
1.524	51.26038
1.5245	54.88586
1.525	54.0802
1.5255	44.21082
1.526	26.68762
1.5265	-1.10779
1.527	-0.20142
1.5275	-11.88354
1.528	-19.23523
1.5285	3.12195
1.529	33.23364
1.5295	46.42639
1.53	40.08179
1.5305	24.67346
1.531	13.29346
1.5315	1.2085
1.532	-11.38
1.5325	-24.87488
1.533	-34.44214
1.5335	-48.23914
1.534	-57.20215
1.5345	-56.49719
1.535	-38.06763
1.5355	11.48071
1.536	43.50586
1.5365	67.37366
1.537	71.90552
1.5375	67.57507
1.538	52.56958
1.5385	50.95825
1.539	49.34692
1.5395	42.29736
1.54	35.75134
1.5405	22.96143
1.541	2.01416
1.5415	-20.34302
1.542	-27.29187
1.5425	-30.41382
1.543	-36.4563
1.5435	-45.01648
1.544	-53.47595
1.5445	-52.16675
1.545	-51.26038
1.5455	-73.11401
1.546	-63.14392
1.5465	-57.9071
1.547	-58.41064
1.5475	-63.54675
1.548	-54.28162
1.5485	-47.03064
1.549	-36.95984
1.5495	-29.80957
1.55	-25.47913
1.5505	-23.16284
1.551	-20.24231
1.5515	-15.1062
1.552	-12.38708
1.5525	-5.13611
1.553	-0.80566
1.5535	30.2124
1.554	52.97241
1.5545	65.96375
1.555	74.92676
1.5555	65.76233
1.556	81.67419
1.5565	111.28235
1.557	115.00854
1.5575	103.52783
1.558	81.67419
1.5585	57.60498
1.559	39.07471
1.5595	23.16284
1.56	34.84497
1.5605	31.82373
1.561	27.6947
1.5615	11.58142
1.562	8.15735
1.5625	-2.31628
1.563	-7.45239
1.5635	7.04956
1.564	8.45947
1.5645	10.0708
1.565	2.31628
1.5655	3.42407
1.566	2.21558
1.5665	4.83398
1.567	3.52478
1.5675	-5.53894
1.568	-16.51611
1.5685	-42.8009
1.569	-59.92126
1.5695	-74.52393
1.57	-80.06287
1.5705	-88.42163
1.571	-84.59473
1.5715	-81.27136
1.572	-72.20764
1.5725	-64.55383
1.573	-61.73401
1.5735	-58.41064
1.574	-41.29028
1.5745	-36.35559
1.575	-24.87488
1.5755	-13.89771
1.576	-8.96301
1.5765	-2.01416
1.577	9.76868
1.5775	9.56726
1.578	16.61682
1.5785	21.65222
1.579	33.63647
1.5795	47.03064
1.58	55.2887
1.5805	65.46021
1.581	81.7749
1.5815	95.37048
1.582	107.15332
1.5825	103.62854
1.583	93.65845
1.5835	77.24304
1.584	88.0188
1.5845	100.70801
1.585	99.60022
1.5855	82.78198
1.586	59.41772
1.5865	40.58533
1.587	12.5885
1.5875	-13.99841
1.588	-29.30603
1.5885	-38.26904
1.589	-35.65063
1.5895	-31.32019
1.59	-26.58691
1.5905	-29.00391
1.591	-31.52161
1.5915	-30.01099
1.592	-30.01099
1.5925	-31.92444
1.593	-23.66638
1.5935	-27.89612
1.594	-26.88904
1.5945	-27.6947
1.595	-24.16992
1.5955	-12.18567
1.596	-5.94177
1.5965	2.81982
1.597	4.73328
1.5975	2.11487
1.598	-1.91345
1.5985	1.3092
1.599	20.94727
1.5995	35.85205
1.6	38.06763
1.6005	34.64355
1.601	32.02515
1.6015	10.87646
1.602	-2.61841
1.6025	-8.45947
1.603	-18.32886
1.6035	-17.92603
1.604	-1.10779
1.6045	37.36267
1.605	76.43738
1.6055	81.47278
1.606	78.75366
1.6065	76.63879
1.607	67.27295
1.6075	42.8009
1.608	27.99683
1.6085	12.5885
1.609	15.20691
1.6095	14.40125
1.61	20.74585
1.6105	35.65063
1.611	57.9071
1.6115	68.17932
1.612	56.29578
1.6125	39.88037
1.613	23.06213
1.6135	4.53186
1.614	-12.99133
1.6145	-22.86072
1.615	-19.94019
1.6155	-30.41382
1.616	-47.13135
1.6165	-41.08887
1.617	-6.54602
1.6175	19.73877
1.618	31.01807
1.6185	34.84497
1.619	32.12585
1.6195	22.25647
1.62	2.81982
1.6205	-11.98425
1.621	-35.2478
1.6215	-55.18799
1.622	-65.76233
1.6225	-68.98499
1.623	-80.06287
1.6235	-84.59473
1.624	-90.5365
1.6245	-87.71667
1.625	-76.43738
1.6255	-44.31152
1.626	20.04089
1.6265	72.30835
1.627	88.0188
1.6275	94.2627
1.628	72.71118
1.6285	51.46179
1.629	29.40674
1.6295	2.81982
1.63	-20.84656
1.6305	-47.03064
1.631	-66.06445
1.6315	-71.7041
1.632	-79.45862
1.6325	-71.7041
1.633	-64.45312
1.6335	-60.62622
1.634	-62.8418
1.6345	-58.81348
1.635	-64.95667
1.6355	-63.04321
1.636	-55.49011
1.6365	-34.54285
1.637	-4.02832
1.6375	12.28638
1.638	19.53735
1.6385	13.49487
1.639	19.03381
1.6395	15.71045
1.64	7.45239
1.6405	1.71204
1.641	-4.93469
1.6415	-11.78284
1.642	-15.71045
1.6425	-11.78284
1.643	-8.8623
1.6435	-7.65381
1.644	-7.75452
1.6445	1.3092
1.645	11.17859
1.6455	25.57983
1.646	41.18958
1.6465	40.88745
1.647	44.81506
1.6475	45.92285
1.648	45.2179
1.6485	41.29028
1.649	43.10303
1.6495	34.14001
1.65	30.81665
1.6505	25.177
1.651	19.63806
1.6515	18.32886
1.652	11.17859
1.6525	3.02124
1.653	3.52478
1.6535	15.50903
1.654	24.97559
1.6545	31.82373
1.655	35.34851
1.6555	40.78674
1.656	46.22498
1.6565	46.5271
1.657	46.72852
1.6575	60.22339
1.658	93.25562
1.6585	114.10217
1.659	132.22961
1.6595	130.21545
1.66	122.96448
1.6605	101.21155
1.661	73.31543
1.6615	43.00232
1.662	6.44531
1.6625	-15.00549
1.663	-39.17542
1.6635	-56.5979
1.664	-65.25879
1.6645	-78.55225
1.665	-88.11951
1.6655	-89.63013
1.666	-82.27844
1.6665	-69.38782
1.667	-47.53418
1.6675	-40.08179
1.668	-42.7002
1.6685	-43.60657
1.669	-43.00232
1.6695	-44.0094
1.67	-42.29736
1.6705	-30.31311
1.671	-15.40833
1.6715	-8.7616
1.672	-7.45239
1.6725	1.00708
1.673	1.51062
1.6735	5.63965
1.674	9.66797
1.6745	6.94885
1.675	9.36584
1.6755	5.23682
1.676	2.21558
1.6765	1.3092
1.677	11.68213
1.6775	21.75293
1.678	18.8324
1.6785	19.63806
1.679	25.57983
1.6795	38.06763
1.68	46.5271
1.6805	48.74268
1.681	51.66321
1.6815	50.45471
1.682	46.22498
1.6825	41.18958
1.683	34.84497
1.6835	22.96143
1.684	16.61682
1.6845	11.68213
1.685	3.62549
1.6855	-2.61841
1.686	-11.48071
1.6865	-21.75293
1.687	-20.54443
1.6875	-19.03381
1.688	-20.04089
1.6885	-11.07788
1.689	32.83081
1.6895	92.24854
1.69	120.44678
1.6905	120.14465
1.691	125.58289
1.6915	123.36731
1.692	101.41296
1.6925	84.79614
1.693	80.66711
1.6935	83.58765
1.694	81.37207
1.6945	89.22729
1.695	125.58289
1.6955	159.92432
1.696	160.02502
1.6965	132.22961
1.697	93.85986
1.6975	56.5979
1.698	13.49487
1.6985	-27.6947
1.699	-62.64038
1.6995	-89.12659
1.7	-83.08411
1.7005	-63.94958
1.701	-55.69153
1.7015	-65.96375
1.702	-79.86145
1.7025	-88.11951
1.703	-99.60022
1.7035	-101.8158
1.704	-102.52075
1.7045	-89.83154
1.705	-90.43579
1.7055	-87.01172
1.706	-79.96216
1.7065	-63.54675
1.707	-54.98657
1.7075	-54.38232
1.708	-47.13135
1.7085	-47.43347
1.709	-41.08887
1.7095	-51.36108
1.71	-56.90002
1.7105	-45.92285
1.711	-39.17542
1.7115	-40.2832
1.712	-37.56409
1.7125	-32.93152
1.713	-40.38391
1.7135	-46.12427
1.714	-43.80798
1.7145	-46.62781
1.715	-40.78674
1.7155	-44.0094
1.716	-43.40515
1.7165	-39.57825
1.717	-25.88196
1.7175	-1.40991
1.718	30.41382
1.7185	58.20923
1.719	78.85437
1.7195	97.88818
1.72	103.52783
1.7205	92.55066
1.721	71.80481
1.7215	47.33276
1.722	32.52869
1.7225	14.60266
1.723	0.90637
1.7235	-18.53027
1.724	-28.09753
1.7245	-24.16992
1.725	-15.91187
1.7255	-14.70337
1.726	-11.07788
1.7265	-7.15027
1.727	12.48779
1.7275	41.79382
1.728	61.73401
1.7285	72.9126
1.729	77.54517
1.7295	72.81189
1.73	63.94958
1.7305	49.44763
1.731	38.06763
1.7315	18.22815
1.732	3.42407
1.7325	-6.54602
1.733	-13.797
1.7335	-32.02515
1.734	-44.0094
1.7345	-40.08179
1.735	-41.4917
1.7355	-39.67896
1.736	-36.35559
1.7365	-38.36975
1.737	-38.57117
1.7375	-38.26904
1.738	-35.95276
1.7385	-35.65063
1.739	-24.16992
1.7395	-8.7616
1.74	5.53894
1.7405	22.76001
1.741	29.80957
1.7415	34.54285
1.742	34.24072
1.7425	33.63647
1.743	34.34143
1.7435	26.68762
1.744	27.79541
1.7445	26.68762
1.745	24.27063
1.7455	26.78833
1.746	50.15259
1.7465	65.46021
1.747	68.98499
1.7475	67.47437
1.748	53.77808
1.7485	43.00232
1.749	20.84656
1.7495	19.73877
1.75	11.07788
1.7505	-0.90637
1.751	-6.14319
1.7515	-7.75452
1.752	-11.88354
1.7525	-12.68921
1.753	-3.52478
1.7535	3.7262
1.754	14.09912
1.7545	31.4209
1.755	41.39099
1.7555	42.90161
1.756	37.86621
1.7565	27.49329
1.757	23.26355
1.7575	16.41541
1.758	6.3446
1.7585	-4.73328
1.759	-11.78284
1.7595	-25.37842
1.76	-22.86072
1.7605	-30.41382
1.761	-31.72302
1.7615	-29.00391
1.762	-36.65771
1.7625	-13.49487
1.763	-5.94177
1.7635	0.20142
1.764	-7.75452
1.7645	-13.89771
1.765	-7.75452
1.7655	49.95117
1.766	94.56482
1.7665	126.18713
1.767	123.66943
1.7675	117.22412
1.768	103.02429
1.7685	80.96924
1.769	46.12427
1.7695	16.81824
1.77	-9.26514
1.7705	-35.85205
1.771	-51.76392
1.7715	-61.12976
1.772	-60.22339
1.7725	-57.40356
1.773	-37.66479
1.7735	9.66797
1.774	49.64905
1.7745	84.2926
1.775	100.50659
1.7755	106.75049
1.776	97.28394
1.7765	88.62305
1.777	76.43738
1.7775	49.24622
1.778	20.34302
1.7785	-14.09912
1.779	-36.05347
1.7795	-63.54675
1.78	-83.99048
1.7805	-95.16907
1.781	-96.37756
1.7815	-95.06836
1.782	-84.59473
1.7825	-70.99915
1.783	-62.33826
1.7835	-58.10852
1.784	-50.45471
1.7845	-41.18958
1.785	-31.92444
1.7855	-20.34302
1.786	3.52478
1.7865	19.43665
1.787	27.79541
1.7875	21.04797
1.788	14.50195
1.7885	10.77576
1.789	11.48071
1.7895	4.33044
1.79	-1.61133
1.7905	-23.16284
1.791	-42.49878
1.7915	-11.48071
1.792	10.27222
1.7925	15.91187
1.793	12.5885
1.7935	5.33752
1.794	12.5885
1.7945	22.35718
1.795	30.2124
1.7955	26.68762
1.796	11.2793
1.7965	-2.01416
1.797	-9.66797
1.7975	-15.71045
1.798	-18.8324
1.7985	-26.88904
1.799	-28.39966
1.7995	-31.4209
1.8	-25.88196
1.8005	-25.57983
1.801	-23.66638
1.8015	-20.24231
1.802	-22.76001
1.8025	-8.7616
1.803	-0.50354
1.8035	-9.26514
1.804	-12.08496
1.8045	-21.95435
1.805	-21.95435
1.8055	-14.19983
1.806	3.8269
1.8065	18.73169
1.807	23.06213
1.8075	25.07629
1.808	26.68762
1.8085	20.24231
1.809	18.73169
1.8095	16.3147
1.81	13.49487
1.8105	9.06372
1.811	-3.02124
1.8115	-2.41699
1.812	-5.84106
1.8125	-3.52478
1.813	-7.25098
1.8135	-6.14319
1.814	0.70496
1.8145	3.92761
1.815	12.08496
1.8155	13.19275
1.816	22.05505
1.8165	19.43665
1.817	20.74585
1.8175	21.95435
1.818	19.94019
1.8185	16.3147
1.819	19.83948
1.8195	20.34302
1.82	27.6947
1.8205	27.29187
1.821	29.50745
1.8215	25.88196
1.822	25.98267
1.8225	34.14001
1.823	41.08887
1.8235	53.37524
1.824	54.0802
1.8245	45.92285
1.825	42.19666
1.8255	49.54834
1.826	61.73401
1.8265	74.92676
1.827	108.05969
1.8275	147.63794
1.828	161.53564
1.8285	154.78821
1.829	129.30908
1.8295	101.31226
1.83	76.7395
1.8305	57.30286
1.831	31.32019
1.8315	13.29346
1.832	-0.30212
1.8325	-14.40125
1.833	-42.49878
1.8335	-52.06604
1.834	-60.52551
1.8345	-70.29419
1.835	-67.17224
1.8355	-59.82056
1.836	-43.80798
1.8365	-12.48779
1.837	4.43115
1.8375	30.01099
1.838	58.71277
1.8385	68.68286
1.839	60.62622
1.8395	31.21948
1.84	-4.12903
1.8405	-31.01807
1.841	-55.08728
1.8415	-77.44446
1.842	-100.6073
1.8425	-117.72766
1.843	-131.32324
1.8435	-134.5459
1.844	-132.22961
1.8445	-127.89917
1.845	-102.21863
1.8455	-79.96216
1.846	-66.36658
1.8465	-62.33826
1.847	-40.98816
1.8475	-24.77417
1.848	15.30762
1.8485	49.34692
1.849	79.55933
1.8495	94.16199
1.85	99.09668
1.8505	111.38306
1.851	104.83704
1.8515	96.8811
1.852	90.33508
1.8525	77.84729
1.853	85.19897
1.8535	77.44446
1.854	59.21631
1.8545	40.1825
1.855	11.2793
1.8555	8.45947
1.856	14.30054
1.8565	16.21399
1.857	8.66089
1.8575	-12.99133
1.858	-20.64514
1.8585	-26.28479
1.859	-29.00391
1.8595	-25.98267
1.86	-23.76709
1.8605	4.83398
1.861	35.65063
1.8615	46.32568
1.862	33.53577
1.8625	11.2793
1.863	-12.99133
1.8635	-31.32019
1.864	-48.44055
1.8645	-70.59631
1.865	-89.12659
1.8655	-104.23279
1.866	-105.84412
1.8665	-118.13049
1.867	-118.53333
1.8675	-104.23279
1.868	-70.69702
1.8685	-42.90161
1.869	-25.07629
1.8695	-17.42249
1.87	-13.99841
1.8705	-14.50195
1.871	-3.22266
1.8715	-0.80566
1.872	-0.50354
1.8725	6.2439
1.873	-6.84814
1.8735	-3.12195
1.874	-3.92761
1.8745	6.44531
1.875	9.26514
1.8755	12.48779
1.876	15.30762
1.8765	11.07788
1.877	6.64673
1.8775	4.43115
1.878	9.16443
1.8785	9.86938
1.879	14.80408
1.8795	15.1062
1.88	13.797
1.8805	8.96301
1.881	6.44531
1.8815	5.53894
1.882	2.11487
1.8825	4.93469
1.883	3.12195
1.8835	-1.00708
1.884	-2.11487
1.8845	-6.54602
1.885	-8.7616
1.8855	-4.33044
1.886	-6.14319
1.8865	-6.74744
1.887	-9.66797
1.8875	-13.99841
1.888	-7.95593
1.8885	-3.92761
1.889	7.04956
1.8895	10.77576
1.89	16.91895
1.8905	31.62231
1.891	45.2179
1.8915	55.49011
1.892	60.82764
1.8925	58.91418
1.893	48.23914
1.8935	50.55542
1.894	42.49878
1.8945	33.53577
1.895	28.70178
1.8955	19.73877
1.896	15.71045
1.8965	8.05664
1.897	1.51062
1.8975	-7.04956
1.898	-7.65381
1.8985	1.81274
1.899	1.40991
1.8995	5.43823
1.9	0.10071
1.9005	-1.00708
1.901	-1.61133
1.9015	-0.50354
1.902	6.2439
1.9025	11.2793
1.903	10.67505
1.9035	13.69629
1.904	19.53735
1.9045	14.19983
1.905	13.99841
1.9055	9.66797
1.906	0.10071
1.9065	-8.45947
1.907	-16.21399
1.9075	-18.53027
1.908	-20.34302
1.9085	-11.07788
1.909	-1.00708
1.9095	7.04956
1.91	5.53894
1.9105	3.02124
1.911	2.92053
1.9115	4.63257
1.912	15.1062
1.9125	16.11328
1.913	18.63098
1.9135	22.25647
1.914	19.83948
1.9145	16.3147
1.915	20.94727
1.9155	16.91895
1.916	17.22107
1.9165	14.30054
1.917	22.05505
1.9175	15.60974
1.918	19.33594
1.9185	17.72461
1.919	35.14709
1.9195	50.2533
1.92	50.95825
1.9205	53.27454
1.921	64.55383
1.9215	75.63171
1.922	91.54358
1.9225	94.66553
1.923	82.78198
1.9235	78.85437
1.924	90.23438
1.9245	92.34924
1.925	82.9834
1.9255	75.4303
1.926	54.68445
1.9265	34.74426
1.927	18.63098
1.9275	-2.5177
1.928	8.35876
1.9285	22.86072
1.929	30.01099
1.9295	52.56958
1.93	76.03455
1.9305	84.39331
1.931	67.57507
1.9315	48.03772
1.932	23.56567
1.9325	3.22266
1.933	-19.63806
1.9335	-30.11169
1.934	-42.09595
1.9345	-48.64197
1.935	-60.52551
1.9355	-69.58923
1.936	-83.68835
1.9365	-90.63721
1.937	-93.45703
1.9375	-95.47119
1.938	-93.35632
1.9385	-82.78198
1.939	-66.06445
1.9395	-45.41931
1.94	-19.63806
1.9405	-5.63965
1.941	27.89612
1.9415	48.94409
1.942	63.04321
1.9425	54.58374
1.943	42.90161
1.9435	36.35559
1.944	30.71594
1.9445	42.19666
1.945	55.59082
1.9455	55.2887
1.946	44.81506
1.9465	29.20532
1.947	18.32886
1.9475	-8.15735
1.948	-18.42957
1.9485	-33.33435
1.949	-31.01807
1.9495	-26.48621
1.95	-12.18567
1.9505	7.65381
1.951	9.86938
1.9515	6.74744
1.952	-3.12195
1.9525	-17.32178
1.953	-31.92444
1.9535	-25.98267
1.954	1.2085
1.9545	3.52478
1.955	-0.10071
1.9555	-17.32178
1.956	-39.07471
1.9565	-58.10852
1.957	-69.38782
1.9575	-85.80322
1.958	-95.26978
1.9585	-102.82288
1.959	-110.17456
1.9595	-101.9165
1.96	-96.7804
1.9605	-88.32092
1.961	-81.27136
1.9615	-66.26587
1.962	-52.56958
1.9625	-31.72302
1.963	-3.02124
1.9635	6.94885
1.964	20.94727
1.9645	33.73718
1.965	39.37683
1.9655	46.12427
1.966	48.03772
1.9665	38.974
1.967	35.2478
1.9675	31.92444
1.968	30.01099
1.9685	22.76001
1.969	18.73169
1.9695	20.24231
1.97	15.81116
1.9705	10.0708
1.971	2.01416
1.9715	4.83398
1.972	-1.3092
1.9725	3.32336
1.973	11.17859
1.9735	23.56567
1.974	45.82214
1.9745	56.29578
1.975	62.03613
1.9755	64.95667
1.976	90.13367
1.9765	129.00696
1.977	148.84644
1.9775	143.20679
1.978	142.60254
1.9785	152.47192
1.979	145.9259
1.9795	114.60571
1.98	66.97083
1.9805	28.60107
1.981	-8.45947
1.9815	-33.23364
1.982	-63.14392
1.9825	-86.91101
1.983	-106.44836
1.9835	-116.72058
1.984	-116.51917
1.9845	-112.99438
1.985	-92.14783
1.9855	-84.89685
1.986	-74.62463
1.9865	-63.54675
1.987	-43.80798
1.9875	-32.93152
1.988	-30.01099
1.9885	-30.11169
1.989	-29.20532
1.9895	-22.76001
1.99	-12.99133
1.9905	-7.95593
1.991	-5.33752
1.9915	-4.83398
1.992	0.50354
1.9925	0.60425
1.993	1.10779
1.9935	-2.92053
1.994	1.51062
1.9945	-3.52478
1.995	2.92053
1.9955	-3.02124
1.996	9.16443
1.9965	14.40125
1.997	9.86938
1.9975	9.36584
1.998	13.59558
1.9985	16.11328
1.999	43.80798
1.9995	72.10693
2	93.55774
2.0005	95.26978
2.001	95.06836
2.0015	101.9165
2.002	96.7804
2.0025	84.79614
2.003	72.40906
2.0035	62.9425
2.004	38.57117
2.0045	26.48621
2.005	15.00549
2.0055	2.5177
2.006	-8.56018
2.0065	-12.78992
2.007	-23.66638
2.0075	-23.16284
2.008	5.13611
2.0085	34.44214
2.009	56.09436
2.0095	71.40198
2.01	78.35083
2.0105	71.40198
2.011	62.64038
2.0115	47.93701
2.012	39.67896
2.0125	26.48621
2.013	5.0354
2.0135	-15.30762
2.014	-32.93152
2.0145	-43.00232
2.015	-38.77258
2.0155	-24.67346
2.016	-0.20142
2.0165	29.20532
2.017	53.67737
2.0175	63.34534
2.018	46.82922
2.0185	21.95435
2.019	1.2085
2.0195	-18.22815
2.02	-38.36975
2.0205	-51.86462
2.021	-52.16675
2.0215	-48.94409
2.022	-42.49878
2.0225	-42.09595
2.023	-53.37524
2.0235	-58.51135
2.024	-67.8772
2.0245	-69.1864
2.025	-73.81897
2.0255	-73.01331
2.026	-73.21472
2.0265	-66.36658
2.027	-58.30994
2.0275	-46.12427
2.028	-46.32568
2.0285	-16.61682
2.029	6.74744
2.0295	18.12744
2.03	23.96851
2.0305	26.88904
2.031	15.60974
2.0315	12.08496
2.032	-0.80566
2.0325	-7.85522
2.033	14.09912
2.0335	23.06213
2.034	22.25647
2.0345	17.52319
2.035	10.77576
2.0355	12.18567
2.036	1.10779
2.0365	-2.11487
2.037	-3.02124
2.0375	-8.8623
2.038	-19.73877
2.0385	-26.58691
2.039	-28.09753
2.0395	-19.73877
2.04	-26.3855
2.0405	-36.95984
2.041	-38.06763
2.0415	-32.42798
2.042	-24.77417
2.0425	-15.1062
2.043	-17.72461
2.0435	-17.01965
2.044	-18.73169
2.0445	-16.41541
2.045	-15.1062
2.0455	-4.33044
2.046	4.73328
2.0465	11.48071
2.047	31.72302
2.0475	49.34692
2.048	46.82922
2.0485	40.58533
2.049	37.06055
2.0495	32.83081
2.05	26.68762
2.0505	14.09912
2.051	3.42407
2.0515	-6.14319
2.052	-5.94177
2.0525	-13.89771
2.053	-16.01257
2.0535	-23.36426
2.054	-20.34302
2.0545	-17.6239
2.055	-26.78833
2.0555	-25.88196
2.056	-23.16284
2.0565	-28.9032
2.057	-24.97559
2.0575	-13.69629
2.058	-0.80566
2.0585	12.28638
2.059	13.39417
2.0595	15.00549
2.06	18.02673
2.0605	20.54443
2.061	17.82532
2.0615	24.57275
2.062	28.29895
2.0625	24.97559
2.063	29.50745
2.0635	29.70886
2.064	36.75842
2.0645	36.65771
2.065	34.24072
2.0655	33.23364
2.066	35.65063
2.0665	33.83789
2.067	25.37842
2.0675	17.42249
2.068	7.65381
2.0685	-10.77576
2.069	-12.68921
2.0695	-18.63098
2.07	-27.49329
2.0705	-32.12585
2.071	-32.32727
2.0715	-34.94568
2.072	-29.60815
2.0725	-18.8324
2.073	-7.75452
2.0735	-1.40991
2.074	10.37292
2.0745	25.78125
2.075	41.29028
2.0755	48.54126
2.076	49.0448
2.0765	51.76392
2.077	43.30444
2.0775	36.75842
2.078	26.28479
2.0785	18.12744
2.079	11.58142
2.0795	6.2439
2.08	9.26514
2.0805	2.71912
2.081	3.7262
2.0815	2.81982
2.082	-0.30212
2.0825	5.13611
2.083	3.32336
2.0835	-0.10071
2.084	-3.52478
2.0845	-4.83398
2.085	15.1062
2.0855	40.1825
2.086	48.23914
2.0865	50.15259
2.087	47.93701
2.0875	45.01648
2.088	48.44055
2.0885	53.27454
2.089	60.02197
2.0895	62.8418
2.09	71.20056
2.0905	78.55225
2.091	88.82446
2.0915	92.55066
2.092	94.46411
2.0925	85.60181
2.093	94.06128
2.0935	136.96289
2.094	159.11865
2.0945	146.83228
2.095	121.65527
2.0955	96.27686
2.096	62.74109
2.0965	8.7616
2.097	-36.35559
2.0975	-73.81897
2.098	-101.21155
2.0985	-125.98572
2.099	-133.74023
2.0995	-131.52466
2.1	-126.38855
2.1005	-90.63721
2.101	-60.22339
2.1015	-26.88904
2.102	-20.54443
2.1025	-17.52319
2.103	-14.90479
2.1035	-22.96143
2.104	-16.41541
2.1045	-16.51611
2.105	-18.12744
2.1055	-33.53577
2.106	-43.30444
2.1065	-50.55542
2.107	-65.56091
2.1075	-71.50269
2.108	-66.56799
2.1085	-57.20215
2.109	-38.87329
2.1095	-2.5177
2.11	36.65771
2.1105	65.76233
2.111	77.54517
2.1115	85.90393
2.112	105.34058
2.1125	131.32324
2.113	155.79529
2.1135	151.96838
2.114	135.45227
2.1145	105.03845
2.115	66.56799
2.1155	30.41382
2.116	-16.01257
2.1165	-61.02905
2.117	-93.25562
2.1175	-129.20837
2.118	-145.12024
2.1185	-151.86768
2.119	-141.19263
2.1195	-130.21545
2.12	-122.05811
2.1205	-114.00146
2.121	-96.67969
2.1215	-74.12109
2.122	-55.69153
2.1225	-47.93701
2.123	-35.04639
2.1235	-30.61523
2.124	-22.76001
2.1245	-12.99133
2.125	-16.11328
2.1255	-11.68213
2.126	-8.35876
2.1265	0.90637
2.127	10.0708
2.1275	20.1416
2.128	20.74585
2.1285	21.95435
2.129	24.57275
2.1295	22.86072
2.13	35.75134
2.1305	37.56409
2.131	43.60657
2.1315	43.40515
2.132	40.48462
2.1325	40.68604
2.133	40.78674
2.1335	42.39807
2.134	40.1825
2.1345	49.24622
2.135	49.34692
2.1355	58.81348
2.136	49.14551
2.1365	47.03064
2.137	40.1825
2.1375	24.47205
2.138	13.19275
2.1385	-1.00708
2.139	0.80566
2.1395	2.81982
2.14	6.04248
2.1405	7.04956
2.141	9.46655
2.1415	0.70496
2.142	-3.8269
2.1425	-9.16443
2.143	-17.01965
2.1435	-17.01965
2.144	-15.71045
2.1445	-7.04956
2.145	7.15027
2.1455	14.19983
2.146	21.55151
2.1465	24.47205
2.147	25.27771
2.1475	22.55859
2.148	20.84656
2.1485	16.01257
2.149	8.56018
2.1495	8.45947
2.15	-3.22266
2.1505	-7.45239
2.151	-11.17859
2.1515	-16.3147
2.152	-8.45947
2.1525	-5.63965
2.153	4.12903
2.1535	8.35876
2.154	16.11328
2.1545	16.91895
2.155	14.80408
2.1555	13.59558
2.156	23.36426
2.1565	26.48621
2.157	40.58533
2.1575	59.31702
2.158	81.27136
2.1585	102.01721
2.159	109.67102
2.1595	102.31934
2.16	92.85278
2.1605	76.7395
2.161	59.31702
2.1615	42.19666
2.162	26.28479
2.1625	35.54993
2.163	45.52002
2.1635	46.12427
2.164	40.98816
2.1645	29.00391
2.165	24.16992
2.1655	14.19983
2.166	2.11487
2.1665	-9.97009
2.167	-18.53027
2.1675	-13.39417
2.168	-16.91895
2.1685	-22.25647
2.169	-24.77417
2.1695	-31.21948
2.17	-8.25806
2.1705	21.14868
2.171	36.05347
2.1715	26.88904
2.172	10.17151
2.1725	-5.0354
2.173	-18.8324
2.1735	-44.11011
2.174	-41.4917
2.1745	-31.72302
2.175	-27.19116
2.1755	-29.70886
2.176	-36.95984
2.1765	-37.16125
2.177	-38.67188
2.1775	-49.54834
2.178	-47.8363
2.1785	-42.29736
2.179	-44.21082
2.1795	-43.80798
2.18	-45.41931
2.1805	-43.70728
2.181	-41.18958
2.1815	-41.59241
2.182	-36.75842
2.1825	-30.71594
2.183	-25.27771
2.1835	-20.54443
2.184	-1.91345
2.1845	14.80408
2.185	29.10461
2.1855	31.21948
2.186	31.52161
2.1865	25.98267
2.187	20.74585
2.1875	2.21558
2.188	-3.8269
2.1885	-5.94177
2.189	-9.97009
2.1895	-19.73877
2.19	-23.66638
2.1905	-21.85364
2.191	-20.04089
2.1915	-11.58142
2.192	-8.15735
2.1925	5.63965
2.193	16.71753
2.1935	31.01807
2.194	35.44922
2.1945	31.72302
2.195	37.7655
2.1955	47.23206
2.196	62.8418
2.1965	66.06445
2.197	60.3241
2.1975	73.51685
2.198	82.37915
2.1985	86.40747
2.199	94.2627
2.1995	82.9834
2.2	70.3949
2.2005	47.03064
2.201	8.96301
2.2015	-10.47363
2.202	-35.04639
2.2025	-43.10303
2.203	-25.47913
2.2035	1.51062
2.204	16.51611
2.2045	24.47205
2.205	13.99841
2.2055	-6.54602
2.206	-23.66638
2.2065	-39.27612
2.207	-41.18958
2.2075	-46.32568
2.208	-51.36108
2.2085	-60.52551
2.209	-63.04321
2.2095	-71.7041
2.21	-77.24304
2.2105	-86.30676
2.211	-75.53101
2.2115	-66.06445
2.212	-53.37524
2.2125	-49.85046
2.213	-38.26904
2.2135	-22.25647
2.214	-5.43823
2.2145	0.70496
2.215	2.61841
2.2155	6.64673
2.216	10.67505
2.2165	20.44373
2.217	22.45789
2.2175	27.79541
2.218	27.29187
2.2185	47.7356
2.219	95.06836
2.2195	120.95032
2.22	133.53882
2.2205	126.28784
2.221	112.79297
2.2215	96.27686
2.222	70.99915
2.2225	46.12427
2.223	23.46497
2.2235	1.71204
2.224	-18.02673
2.2245	-37.46338
2.225	-47.93701
2.2255	-55.69153
2.226	-56.5979
2.2265	-39.98108
2.227	-18.32886
2.2275	-3.42407
2.228	12.68921
2.2285	31.32019
2.229	31.82373
2.2295	26.18408
2.23	28.70178
2.2305	50.15259
2.231	58.41064
2.2315	55.69153
2.232	47.63489
2.2325	35.95276
2.233	24.87488
2.2335	6.14319
2.234	-8.45947
2.2345	-20.84656
2.235	-9.76868
2.2355	-6.74744
2.236	-5.74036
2.2365	-11.2793
2.237	-17.52319
2.2375	-12.5885
2.238	-18.93311
2.2385	-12.89062
2.239	-6.84814
2.2395	-8.05664
2.24	-17.82532
2.2405	-24.47205
2.241	-36.35559
2.2415	-39.98108
2.242	-25.07629
2.2425	-13.49487
2.243	23.46497
2.2435	65.3595
2.244	76.63879
2.2445	77.84729
2.245	69.68994
2.2455	58.41064
2.246	40.48462
2.2465	18.53027
2.247	-1.71204
2.2475	-29.60815
2.248	-55.3894
2.2485	-64.45312
2.249	-32.93152
2.2495	-4.02832
2.25	5.43823
2.2505	-0.50354
2.251	-7.85522
2.2515	-25.07629
2.252	-39.27612
2.2525	-39.37683
2.253	-46.82922
2.2535	-46.32568
2.254	-44.91577
2.2545	-54.38232
2.255	-58.20923
2.2555	-49.95117
2.256	-49.95117
2.2565	-37.96692
2.257	-13.29346
2.2575	13.19275
2.258	26.68762
2.2585	31.52161
2.259	33.43506
2.2595	38.16833
2.26	24.97559
2.2605	11.17859
2.261	8.96301
2.2615	-2.61841
2.262	-11.88354
2.2625	-19.43665
2.263	-20.64514
2.2635	-21.45081
2.264	-16.91895
2.2645	-18.63098
2.265	-12.08496
2.2655	-6.2439
2.266	12.28638
2.2665	55.08728
2.267	95.26978
2.2675	118.02979
2.268	119.23828
2.2685	101.01013
2.269	72.61047
2.2695	43.50586
2.27	17.52319
2.2705	-9.56726
2.271	-30.31311
2.2715	-43.00232
2.272	-54.0802
2.2725	-61.6333
2.273	-66.76941
2.2735	-67.97791
2.274	-58.51135
2.2745	-50.75684
2.275	-45.01648
2.2755	-35.34851
2.276	-28.39966
2.2765	-12.5885
2.277	0.50354
2.2775	6.54602
2.278	13.89771
2.2785	12.89062
2.279	12.68921
2.2795	16.3147
2.28	14.60266
2.2805	16.91895
2.281	22.35718
2.2815	25.68054
2.282	19.83948
2.2825	22.86072
2.283	25.57983
2.2835	25.78125
2.284	24.67346
2.2845	24.87488
2.285	44.81506
2.2855	63.64746
2.286	69.89136
2.2865	70.79773
2.287	65.05737
2.2875	55.99365
2.288	39.37683
2.2885	24.67346
2.289	9.76868
2.2895	9.46655
2.29	7.15027
2.2905	2.61841
2.291	0.50354
2.2915	-8.35876
2.292	-2.5177
2.2925	3.22266
2.293	20.1416
2.2935	26.28479
2.294	24.47205
2.2945	21.65222
2.295	18.02673
2.2955	21.75293
2.296	21.24939
2.2965	10.97717
2.297	16.61682
2.2975	19.43665
2.298	29.70886
2.2985	31.01807
2.299	25.37842
2.2995	27.59399
2.3	27.6947
2.3005	19.03381
2.301	10.97717
2.3015	6.84814
2.302	-1.71204
2.3025	-4.43115
2.303	-5.13611
2.3035	-10.57434
2.304	-14.60266
2.3045	-22.05505
2.305	-18.53027
2.3055	-18.22815
2.306	-6.54602
2.3065	13.797
2.307	18.53027
2.3075	27.79541
2.308	18.22815
2.3085	11.48071
2.309	4.02832
2.3095	12.28638
2.31	11.78284
2.3105	12.5885
2.311	7.45239
2.3115	3.62549
2.312	2.41699
2.3125	-6.74744
2.313	-13.797
2.3135	-11.58142
2.314	-21.95435
2.3145	-20.54443
2.315	-18.93311
2.3155	-21.95435
2.316	-17.01965
2.3165	-11.78284
2.317	-2.31628
2.3175	22.25647
2.318	42.49878
2.3185	66.36658
2.319	82.78198
2.3195	84.2926
2.32	74.32251
2.3205	78.45154
2.321	83.48694
2.3215	85.09827
2.322	68.58215
2.3225	58.10852
2.323	37.86621
2.3235	10.0708
2.324	-21.65222
2.3245	-43.40515
2.325	-65.86304
2.3255	-80.66711
2.326	-91.04004
2.3265	-101.71509
2.327	-108.56323
2.3275	-110.27527
2.328	-96.7804
2.3285	-71.80481
2.329	-40.58533
2.3295	-23.36426
2.33	-8.7616
2.3305	-7.15027
2.331	0
2.3315	11.38
2.332	20.1416
2.3325	39.07471
2.333	76.94092
2.3335	98.19031
2.334	91.745
2.3345	80.06287
2.335	59.31702
2.3355	40.58533
2.336	23.76709
2.3365	10.77576
2.337	-12.78992
2.3375	-26.08337
2.338	-44.41223
2.3385	-52.06604
2.339	-50.45471
2.3395	-50.2533
2.34	-43.30444
2.3405	-35.04639
2.341	-35.85205
2.3415	-24.47205
2.342	-22.35718
2.3425	-21.3501
2.343	-12.5885
2.3435	-7.45239
2.344	18.02673
2.3445	42.29736
2.345	60.62622
2.3455	63.74817
2.346	60.62622
2.3465	46.5271
2.347	31.11877
2.3475	19.73877
2.348	13.797
2.3485	13.29346
2.349	11.17859
2.3495	-0.90637
2.35	-14.40125
2.3505	-20.1416
2.351	-17.52319
2.3515	-16.21399
2.352	-16.91895
2.3525	-10.57434
2.353	-14.50195
2.3535	-15.81116
2.354	-15.40833
2.3545	-15.1062
2.355	-6.94885
2.3555	-8.96301
2.356	0.10071
2.3565	14.50195
2.357	18.73169
2.3575	30.01099
2.358	38.36975
2.3585	56.69861
2.359	60.82764
2.3595	56.39648
2.36	47.53418
2.3605	36.95984
2.361	24.57275
2.3615	12.38708
2.362	7.5531
2.3625	-4.83398
2.363	-12.78992
2.3635	5.43823
2.364	19.43665
2.3645	34.24072
2.365	25.47913
2.3655	25.68054
2.366	7.35168
2.3665	-4.53186
2.367	-25.68054
2.3675	-35.2478
2.368	-44.71436
2.3685	-43.40515
2.369	-44.0094
2.3695	-33.23364
2.37	-27.49329
2.3705	-25.07629
2.371	-21.45081
2.3715	-12.99133
2.372	-3.32336
2.3725	4.22974
2.373	10.67505
2.3735	14.80408
2.374	39.27612
2.3745	62.33826
2.375	67.07153
2.3755	66.26587
2.376	61.12976
2.3765	48.44055
2.377	35.95276
2.3775	19.63806
2.378	17.52319
2.3785	22.76001
2.379	21.14868
2.3795	8.66089
2.38	3.92761
2.3805	-11.17859
2.381	-19.03381
2.3815	-22.35718
2.382	-21.45081
2.3825	-30.01099
2.383	-33.43506
2.3835	-29.30603
2.384	-27.29187
2.3845	-31.11877
2.385	-26.68762
2.3855	-24.77417
2.386	-19.23523
2.3865	-16.3147
2.387	-17.01965
2.3875	-10.67505
2.388	-6.74744
2.3885	-0.60425
2.389	11.17859
2.3895	12.28638
2.39	21.04797
2.3905	16.81824
2.391	15.20691
2.3915	11.88354
2.392	12.99133
2.3925	10.0708
2.393	23.26355
2.3935	21.75293
2.394	18.8324
2.3945	13.69629
2.395	24.67346
2.3955	29.70886
2.396	36.65771
2.3965	36.05347
2.397	30.31311
2.3975	39.47754
2.398	39.27612
2.3985	40.48462
2.399	51.36108
2.3995	54.88586
2.4	51.26038
2.4005	40.78674
2.401	37.7655
2.4015	23.36426
2.402	19.03381
2.4025	18.12744
2.403	14.70337
2.4035	10.37292
2.404	6.84814
2.4045	4.63257
2.405	2.21558
2.4055	-2.41699
2.406	12.18567
2.4065	36.75842
2.407	53.47595
2.4075	47.43347
2.408	39.98108
2.4085	25.07629
2.409	5.13611
2.4095	-14.80408
2.41	-25.47913
2.4105	-27.6947
2.411	-31.52161
2.4115	-20.54443
2.412	-21.24939
2.4125	-20.84656
2.413	10.27222
2.4135	40.78674
2.414	55.08728
2.4145	54.38232
2.415	51.5625
2.4155	42.19666
2.416	28.60107
2.4165	6.3446
2.417	4.02832
2.4175	-11.17859
2.418	-20.04089
2.4185	-31.72302
2.419	-44.0094
2.4195	-56.49719
2.42	-57.8064
2.4205	-60.3241
2.421	-63.94958
2.4215	-56.29578
2.422	-44.71436
2.4225	-37.96692
2.423	-35.75134
2.4235	-28.39966
2.424	-18.12744
2.4245	-12.5885
2.425	-0.20142
2.4255	23.36426
2.426	49.0448
2.4265	61.02905
2.427	64.95667
2.4275	65.96375
2.428	61.33118
2.4285	43.50586
2.429	19.43665
2.4295	7.35168
2.43	-22.86072
2.4305	-40.2832
2.431	-57.9071
2.4315	-61.23047
2.432	-59.71985
2.4325	-64.55383
2.433	-64.05029
2.4335	-58.91418
2.434	-56.29578
2.4345	-63.44604
2.435	-59.01489
2.4355	-59.41772
2.436	-52.8717
2.4365	-37.16125
2.437	-22.45789
2.4375	-6.94885
2.438	-3.52478
2.4385	7.85522
2.439	5.84106
2.4395	-6.2439
2.44	-7.25098
2.4405	-6.74744
2.441	-4.83398
2.4415	1.71204
2.442	7.95593
2.4425	22.76001
2.443	23.06213
2.4435	23.8678
2.444	27.29187
2.4445	33.13293
2.445	36.15417
2.4455	51.76392
2.446	69.79065
2.4465	75.32959
2.447	78.75366
2.4475	78.65295
2.448	78.95508
2.4485	56.09436
2.449	45.62073
2.4495	27.39258
2.45	16.41541
2.4505	-5.33752
2.451	-25.68054
2.4515	-40.48462
2.452	-46.02356
2.4525	-49.24622
2.453	-51.46179
2.4535	-48.13843
2.454	-42.49878
2.4545	-39.88037
2.455	-28.9032
2.4555	-24.87488
2.456	-15.91187
2.4565	-10.0708
2.457	-3.22266
2.4575	-4.93469
2.458	3.62549
2.4585	10.77576
2.459	6.74744
2.4595	11.58142
2.46	15.81116
2.4605	12.99133
2.461	15.81116
2.4615	17.32178
2.462	22.25647
2.4625	41.69312
2.463	62.8418
2.4635	69.79065
2.464	71.60339
2.4645	67.97791
2.465	58.10852
2.4655	46.32568
2.466	29.10461
2.4665	11.07788
2.467	-10.0708
2.4675	-19.43665
2.468	-19.33594
2.4685	-6.74744
2.469	13.59558
2.4695	29.91028
2.47	33.33435
2.4705	23.36426
2.471	17.82532
2.4715	11.78284
2.472	4.93469
2.4725	-0.40283
2.473	3.8269
2.4735	4.12903
2.474	12.48779
2.4745	30.81665
2.475	45.01648
2.4755	41.69312
2.476	43.00232
2.4765	38.06763
2.477	22.35718
2.4775	8.56018
2.478	-3.32336
2.4785	-6.84814
2.479	-2.11487
2.4795	3.12195
2.48	-2.01416
2.4805	1.91345
2.481	-4.43115
2.4815	-16.41541
2.482	-36.25488
2.4825	-44.81506
2.483	-52.06604
2.4835	-49.44763
2.484	-47.43347
2.4845	-26.58691
2.485	-8.66089
2.4855	5.63965
2.486	18.42957
2.4865	17.6239
2.487	7.45239
2.4875	4.12903
2.488	1.3092
2.4885	4.93469
2.489	4.43115
2.4895	8.96301
2.49	2.92053
2.4905	2.5177
2.491	-1.51062
2.4915	-1.91345
2.492	-4.02832
2.4925	-2.92053
2.493	5.0354
2.4935	1.10779
2.494	-7.95593
2.4945	-8.45947
2.495	26.68762
2.4955	61.02905
2.496	85.09827
2.4965	86.20605
2.497	80.26428
2.4975	61.53259
2.498	44.0094
2.4985	32.7301
2.499	19.94019
2.4995	13.09204
2.5	10.87646
2.5005	6.84814
2.501	6.94885
2.5015	8.8623
2.502	23.8678
2.5025	27.6947
2.503	26.98975
2.5035	25.177
2.504	27.19116
2.5045	25.98267
2.505	30.2124
2.5055	24.47205
2.506	16.21399
2.5065	8.56018
2.507	2.21558
2.5075	-8.45947
2.508	-10.27222
2.5085	-4.53186
2.509	-5.63965
2.5095	-11.58142
2.51	-11.68213
2.5105	-8.35876
2.511	-16.11328
2.5115	-30.11169
2.512	-38.16833
2.5125	-43.00232
2.513	-49.95117
2.5135	-55.18799
2.514	-61.83472
2.5145	-56.39648
2.515	-50.65613
2.5155	-34.24072
2.516	-24.97559
2.5165	-10.37292
2.517	13.39417
2.5175	56.69861
2.518	94.76624
2.5185	111.38306
2.519	103.42712
2.5195	80.96924
2.52	59.1156
2.5205	46.02356
2.521	36.4563
2.5215	19.33594
2.522	9.56726
2.5225	1.61133
2.523	-3.42407
2.5235	-9.46655
2.524	-22.55859
2.5245	-20.54443
2.525	-22.35718
2.5255	-28.60107
2.526	-39.27612
2.5265	-45.11719
2.527	-41.99524
2.5275	-44.31152
2.528	-27.99683
2.5285	-21.85364
2.529	-9.36584
2.5295	6.14319
2.53	15.00549
2.5305	20.54443
2.531	22.76001
2.5315	21.04797
2.532	23.66638
2.5325	18.22815
2.533	15.20691
2.5335	7.65381
2.534	1.40991
2.5345	-6.44531
2.535	-19.94019
2.5355	-26.48621
2.536	-33.53577
2.5365	-30.91736
2.537	-30.81665
2.5375	-27.19116
2.538	-23.16284
2.5385	-17.12036
2.539	-17.52319
2.5395	-20.94727
2.54	-23.76709
2.5405	-26.88904
2.541	-18.93311
2.5415	-2.31628
2.542	9.06372
2.5425	13.09204
2.543	13.39417
2.5435	15.91187
2.544	7.25098
2.5445	4.02832
2.545	2.41699
2.5455	1.91345
2.546	-5.74036
2.5465	-6.14319
2.547	-13.99841
2.5475	-16.81824
2.548	-9.16443
2.5485	-16.3147
2.549	-6.94885
2.5495	-5.94177
2.55	-4.22974
2.5505	-2.92053
2.551	-4.43115
2.5515	-2.11487
2.552	6.54602
2.5525	10.87646
2.553	15.91187
2.5535	12.48779
2.554	10.57434
2.5545	7.35168
2.555	11.2793
2.5555	7.5531
2.556	15.50903
2.5565	14.40125
2.557	11.48071
2.5575	13.49487
2.558	16.91895
2.5585	18.32886
2.559	18.02673
2.5595	20.74585
2.56	19.94019
2.5605	23.06213
2.561	22.6593
2.5615	54.28162
2.562	118.93616
2.5625	146.12732
2.563	151.56555
2.5635	140.28625
2.564	121.65527
2.5645	94.56482
2.565	63.64746
2.5655	34.03931
2.566	7.75452
2.5665	-23.26355
2.567	-36.25488
2.5675	-51.96533
2.568	-52.26746
2.5685	-56.5979
2.569	-53.97949
2.5695	-49.95117
2.57	-43.90869
2.5705	-49.64905
2.571	-50.55542
2.5715	-46.02356
2.572	-42.7002
2.5725	-36.25488
2.573	-27.6947
2.5735	-8.15735
2.574	3.32336
2.5745	4.02832
2.575	5.0354
2.5755	2.81982
2.576	7.95593
2.5765	15.40833
2.577	23.66638
2.5775	21.65222
2.578	23.46497
2.5785	26.88904
2.579	19.23523
2.5795	10.67505
2.58	11.17859
2.5805	-2.92053
2.581	-10.17151
2.5815	-16.21399
2.582	-20.1416
2.5825	-29.10461
2.583	-25.98267
2.5835	-29.80957
2.584	-22.96143
2.5845	-14.60266
2.585	-4.53186
2.5855	-0.30212
2.586	33.83789
2.5865	72.00623
2.587	103.93066
2.5875	121.9574
2.588	115.20996
2.5885	101.21155
2.589	80.06287
2.5895	64.65454
2.59	39.67896
2.5905	13.09204
2.591	-5.43823
2.5915	-23.76709
2.592	-31.32019
2.5925	-28.19824
2.593	-15.50903
2.5935	-11.58142
2.594	-15.71045
2.5945	-24.47205
2.595	-21.75293
2.5955	-10.17151
2.596	-9.76868
2.5965	-13.19275
2.597	-14.80408
2.5975	-11.17859
2.598	-7.85522
2.5985	-3.42407
2.599	0.20142
2.5995	11.88354
2.6	15.1062
2.6005	11.88354
2.601	11.17859
2.6015	7.95593
2.602	1.40991
2.6025	-2.11487
2.603	-3.42407
2.6035	-7.15027
2.604	-9.26514
2.6045	-16.11328
2.605	-5.23682
2.6055	6.54602
2.606	22.86072
2.6065	21.14868
2.607	22.25647
2.6075	24.37134
2.608	48.54126
2.6085	72.50977
2.609	80.16357
2.6095	68.68286
2.61	60.12268
2.6105	42.8009
2.611	31.32019
2.6115	13.19275
2.612	-7.45239
2.6125	-21.04797
2.613	-32.12585
2.6135	-38.57117
2.614	-43.50586
2.6145	-31.92444
2.615	-5.0354
2.6155	6.14319
2.616	17.01965
2.6165	20.24231
2.617	24.57275
2.6175	20.64514
2.618	5.33752
2.6185	-0.80566
2.619	0.90637
2.6195	-0.60425
2.62	-4.12903
2.6205	-12.48779
2.621	-19.94019
2.6215	-27.79541
2.622	-31.11877
2.6225	-30.2124
2.623	-31.4209
2.6235	-26.58691
2.624	-31.92444
2.6245	-27.6947
2.625	-28.19824
2.6255	-19.94019
2.626	-17.32178
2.6265	-16.71753
2.627	-24.77417
2.6275	-25.98267
2.628	-29.40674
2.6285	-30.01099
2.629	-28.50037
2.6295	-21.3501
2.63	-13.59558
2.6305	-7.35168
2.631	11.38
2.6315	7.04956
2.632	9.76868
2.6325	5.13611
2.633	7.95593
2.6335	10.67505
2.634	10.17151
2.6345	16.11328
2.635	19.83948
2.6355	20.94727
2.636	25.37842
2.6365	24.37134
2.637	27.79541
2.6375	22.76001
2.638	23.36426
2.6385	23.46497
2.639	19.43665
2.6395	31.4209
2.64	29.50745
2.6405	31.4209
2.641	23.36426
2.6415	16.3147
2.642	18.12744
2.6425	11.98425
2.643	4.22974
2.6435	1.81274
2.644	-7.25098
2.6445	-1.3092
2.645	15.30762
2.6455	25.177
2.646	43.70728
2.6465	49.64905
2.647	47.7356
2.6475	47.53418
2.648	51.05896
2.6485	40.38391
2.649	23.8678
2.6495	6.2439
2.65	10.27222
2.6505	26.18408
2.651	49.44763
2.6515	76.43738
2.652	95.97473
2.6525	105.34058
2.653	87.61597
2.6535	70.3949
2.654	51.05896
2.6545	22.76001
2.655	-4.63257
2.6555	-37.86621
2.656	-64.55383
2.6565	-88.42163
2.657	-105.23987
2.6575	-109.57031
2.658	-113.49792
2.6585	-107.75757
2.659	-97.68677
2.6595	-84.49402
2.66	-67.17224
2.6605	-52.8717
2.661	-32.02515
2.6615	-5.74036
2.662	19.33594
2.6625	38.36975
2.663	75.4303
2.6635	118.02979
2.664	132.12891
2.6645	133.13599
2.665	113.1958
2.6655	97.58606
2.666	80.66711
2.6665	60.72693
2.667	41.29028
2.6675	30.71594
2.668	9.36584
2.6685	-14.30054
2.669	-38.26904
2.6695	-47.03064
2.67	-58.00781
2.6705	-68.28003
2.671	-76.84021
2.6715	-78.65295
2.672	-67.77649
2.6725	-61.23047
2.673	-50.55542
2.6735	-35.95276
2.674	-25.68054
2.6745	-19.83948
2.675	-19.94019
2.6755	-15.1062
2.676	-13.99841
2.6765	-21.3501
2.677	-32.02515
2.6775	-38.67188
2.678	-38.87329
2.6785	-42.8009
2.679	-49.24622
2.6795	-49.0448
2.68	-40.58533
2.6805	-40.38391
2.681	-31.32019
2.6815	-20.54443
2.682	3.92761
2.6825	17.92603
2.683	29.00391
2.6835	29.60815
2.684	35.65063
2.6845	29.91028
2.685	29.80957
2.6855	29.40674
2.686	27.09045
2.6865	24.37134
2.687	17.52319
2.6875	14.60266
2.688	11.58142
2.6885	24.97559
2.689	41.79382
2.6895	49.14551
2.69	44.81506
2.6905	36.25488
2.691	25.98267
2.6915	15.91187
2.692	5.94177
2.6925	12.18567
2.693	9.97009
2.6935	9.46655
2.694	2.5177
2.6945	-2.71912
2.695	-2.5177
2.6955	-10.97717
2.696	-8.56018
2.6965	-1.91345
2.697	-5.84106
2.6975	-4.53186
2.698	-2.92053
2.6985	16.61682
2.699	24.06921
2.6995	48.23914
2.7	66.06445
2.7005	82.47986
2.701	88.42163
2.7015	85.70251
2.702	74.2218
2.7025	61.12976
2.703	47.63489
2.7035	44.61365
2.704	55.99365
2.7045	54.38232
2.705	46.72852
2.7055	32.12585
2.706	13.69629
2.7065	11.78284
2.707	-4.22974
2.7075	-7.5531
2.708	4.43115
2.7085	10.97717
2.709	10.47363
2.7095	2.71912
2.71	-4.43115
2.7105	-21.04797
2.711	-30.41382
2.7115	-40.48462
2.712	-49.74976
2.7125	-54.98657
2.713	-66.46729
2.7135	-66.76941
2.714	-68.07861
2.7145	-62.13684
2.715	-49.0448
2.7155	-40.1825
2.716	-30.61523
2.7165	-23.06213
2.717	-15.50903
2.7175	-11.88354
2.718	-12.48779
2.7185	-11.48071
2.719	-7.75452
2.7195	-3.7262
2.72	-3.02124
2.7205	-3.22266
2.721	-5.0354
2.7215	-1.51062
2.722	-0.80566
2.7225	-0.50354
2.723	3.92761
2.7235	4.63257
2.724	12.38708
2.7245	19.83948
2.725	38.26904
2.7255	50.85754
2.726	58.91418
2.7265	61.73401
2.727	57.20215
2.7275	53.37524
2.728	43.00232
2.7285	44.31152
2.729	42.49878
2.7295	30.01099
2.73	22.55859
2.7305	12.5885
2.731	2.61841
2.7315	-7.25098
2.732	-11.07788
2.7325	-9.36584
2.733	-3.32336
2.7335	1.10779
2.734	0.70496
2.7345	-10.87646
2.735	-13.09204
2.7355	-13.59558
2.736	2.41699
2.7365	25.98267
2.737	39.47754
2.7375	46.82922
2.738	39.67896
2.7385	25.68054
2.739	22.15576
2.7395	16.81824
2.74	9.56726
2.7405	0.80566
2.741	-10.47363
2.7415	-8.15735
2.742	-7.45239
2.7425	17.72461
2.743	32.02515
2.7435	39.27612
2.744	42.8009
2.7445	37.26196
2.745	35.65063
2.7455	21.24939
2.746	13.09204
2.7465	7.25098
2.747	5.43823
2.7475	2.41699
2.748	-0.10071
2.7485	-13.49487
2.749	-19.33594
2.7495	-17.01965
2.75	-20.54443
2.7505	-17.82532
2.751	-15.00549
2.7515	-19.94019
2.752	-14.60266
2.7525	-12.18567
2.753	-9.76868
2.7535	-13.29346
2.754	-21.24939
2.7545	-17.6239
2.755	-23.26355
2.7555	-26.68762
2.756	-27.29187
2.7565	-21.45081
2.757	-15.81116
2.7575	-11.48071
2.758	-7.35168
2.7585	-1.00708
2.759	4.22974
2.7595	3.62549
2.76	5.13611
2.7605	1.10779
2.761	-2.01416
2.7615	1.40991
2.762	4.53186
2.7625	14.60266
2.763	33.33435
2.7635	75.83313
2.764	99.90234
2.7645	105.54199
2.765	94.76624
2.7655	74.12109
2.766	49.85046
2.7665	29.20532
2.767	16.81824
2.7675	7.35168
2.768	-4.83398
2.7685	-17.32178
2.769	-27.49329
2.7695	-32.22656
2.77	-38.26904
2.7705	-41.99524
2.771	-48.33984
2.7715	-49.85046
2.772	-43.60657
2.7725	-31.32019
2.773	-28.39966
2.7735	-25.98267
2.774	-23.96851
2.7745	-24.57275
2.775	-19.83948
2.7755	-11.78284
2.776	-5.0354
2.7765	-0.60425
2.777	16.51611
2.7775	18.42957
2.778	17.6239
2.7785	20.54443
2.779	18.8324
2.7795	22.76001
2.78	39.77966
2.7805	47.8363
2.781	45.72144
2.7815	36.75842
2.782	29.91028
2.7825	13.89771
2.783	6.64673
2.7835	5.94177
2.784	-1.10779
2.7845	-5.53894
2.785	-10.37292
2.7855	-16.81824
2.786	-12.18567
2.7865	-21.04797
2.787	-17.6239
2.7875	-9.26514
2.788	-7.35168
2.7885	-1.91345
2.789	4.93469
2.7895	10.37292
2.79	9.16443
2.7905	35.04639
2.791	59.31702
2.7915	69.28711
2.792	60.62622
2.7925	54.68445
2.793	42.39807
2.7935	32.12585
2.794	24.47205
2.7945	19.83948
2.795	10.17151
2.7955	-9.46655
2.796	-13.29346
2.7965	-14.40125
2.797	-10.27222
2.7975	-5.13611
2.798	-0.20142
2.7985	-1.40991
2.799	3.12195
2.7995	1.3092
2.8	6.14319
2.8005	10.47363
2.801	19.53735
2.8015	19.94019
2.802	13.69629
2.8025	14.60266
2.803	12.5885
2.8035	13.09204
2.804	6.14319
2.8045	16.01257
2.805	34.24072
2.8055	68.88428
2.806	93.45703
2.8065	104.63562
2.807	111.18164
2.8075	107.25403
2.808	92.44995
2.8085	74.92676
2.809	53.17383
2.8095	31.72302
2.81	9.86938
2.8105	1.3092
2.811	-22.05505
2.8115	-40.48462
2.812	-50.65613
2.8125	-69.1864
2.813	-78.75366
2.8135	-84.39331
2.814	-80.06287
2.8145	-79.96216
2.815	-76.13525
2.8155	-58.71277
2.816	-48.33984
2.8165	-42.59949
2.817	-40.1825
2.8175	-37.86621
2.818	-30.81665
2.8185	-24.77417
2.819	-22.86072
2.8195	-24.06921
2.82	-17.22107
2.8205	-14.70337
2.821	-4.22974
2.8215	6.2439
2.822	19.53735
2.8225	26.48621
2.823	25.47913
2.8235	17.52319
2.824	16.01257
2.8245	14.90479
2.825	39.27612
2.8255	53.67737
2.826	52.36816
2.8265	52.16675
2.827	43.60657
2.8275	35.65063
2.828	21.45081
2.8285	19.83948
2.829	8.8623
2.8295	-0.70496
2.83	-12.48779
2.8305	-23.76709
2.831	-42.59949
2.8315	-47.53418
2.832	-38.87329
2.8325	-36.95984
2.833	-31.82373
2.8335	-29.00391
2.834	-27.29187
2.8345	-20.04089
2.835	-13.39417
2.8355	-9.56726
2.836	-12.48779
2.8365	-11.17859
2.837	-15.30762
2.8375	-10.47363
2.838	-4.63257
2.8385	-3.92761
2.839	-0.30212
2.8395	3.42407
2.84	1.81274
2.8405	1.10779
2.841	4.83398
2.8415	7.35168
2.842	29.91028
2.8425	49.24622
2.843	61.73401
2.8435	71.20056
2.844	73.21472
2.8445	65.05737
2.845	52.8717
2.8455	49.0448
2.846	41.59241
2.8465	39.67896
2.847	41.79382
2.8475	43.70728
2.848	40.98816
2.8485	37.56409
2.849	25.68054
2.8495	33.03223
2.85	61.12976
2.8505	80.4657
2.851	72.50977
2.8515	59.61914
2.852	36.4563
2.8525	14.60266
2.853	-7.75452
2.8535	-24.87488
2.854	-52.46887
2.8545	-70.89844
2.855	-78.95508
2.8555	-86.50818
2.856	-83.08411
2.8565	-86.70959
2.857	-80.86853
2.8575	-66.97083
2.858	-58.91418
2.8585	-40.58533
2.859	-28.09753
2.8595	-20.74585
2.86	-19.43665
2.8605	-16.21399
2.861	-10.57434
2.8615	-12.28638
2.862	-19.33594
2.8625	-19.33594
2.863	-19.63806
2.8635	-20.34302
2.864	-13.797
2.8645	4.43115
2.865	12.08496
2.8655	12.38708
2.866	21.3501
2.8665	16.61682
2.867	15.50903
2.8675	12.28638
2.868	5.53894
2.8685	4.22974
2.869	2.41699
2.8695	-2.5177
2.87	1.2085
2.8705	1.81274
2.871	4.93469
2.8715	9.36584
2.872	10.27222
2.8725	11.2793
2.873	7.75452
2.8735	8.7616
2.874	7.65381
2.8745	8.25806
2.875	13.99841
2.8755	17.6239
2.876	22.6593
2.8765	18.93311
2.877	20.94727
2.8775	15.60974
2.878	17.52319
2.8785	19.83948
2.879	20.64514
2.8795	15.20691
2.88	19.73877
2.8805	25.78125
2.881	31.52161
2.8815	29.80957
2.882	37.7655
2.8825	45.62073
2.883	52.16675
2.8835	66.97083
2.884	69.1864
2.8845	67.57507
2.885	73.91968
2.8855	85.19897
2.886	85.90393
2.8865	68.07861
2.887	44.0094
2.8875	17.6239
2.888	-2.61841
2.8885	-15.30762
2.889	-27.89612
2.8895	-36.65771
2.89	-43.00232
2.8905	-51.05896
2.891	-50.75684
2.8915	-48.33984
2.892	-46.42639
2.8925	-23.66638
2.893	3.02124
2.8935	15.20691
2.894	14.19983
2.8945	8.25806
2.895	-0.90637
2.8955	-3.52478
2.896	-14.40125
2.8965	-18.63098
2.897	-26.78833
2.8975	-33.23364
2.898	-30.2124
2.8985	-29.10461
2.899	-33.33435
2.8995	-27.89612
2.9	-31.11877
2.9005	-27.59399
2.901	-24.77417
2.9015	-20.1416
2.902	-13.49487
2.9025	-14.70337
2.903	-8.15735
2.9035	7.5531
2.904	17.01965
2.9045	19.43665
2.905	28.80249
2.9055	28.50037
2.906	27.6947
2.9065	25.37842
2.907	30.51453
2.9075	37.7655
2.908	35.04639
2.9085	31.72302
2.909	29.91028
2.9095	15.91187
2.91	19.13452
2.9105	30.31311
2.911	27.6947
2.9115	23.26355
2.912	21.75293
2.9125	11.2793
2.913	5.43823
2.9135	-4.12903
2.914	-14.80408
2.9145	-15.00549
2.915	-29.40674
2.9155	-39.88037
2.916	-40.1825
2.9165	-36.85913
2.917	-28.50037
2.9175	-30.61523
2.918	-28.70178
2.9185	-19.33594
2.919	-7.45239
2.9195	-17.52319
2.92	-14.30054
2.9205	-11.68213
2.921	-12.5885
2.9215	-9.56726
2.922	-6.14319
2.9225	-8.05664
2.923	-8.7616
2.9235	-3.12195
2.924	-3.22266
2.9245	5.74036
2.925	7.95593
2.9255	2.41699
2.926	10.37292
2.9265	4.22974
2.927	-7.15027
2.9275	-5.43823
2.928	3.02124
2.9285	2.41699
2.929	2.81982
2.9295	6.74744
2.93	10.87646
2.9305	6.84814
2.931	9.46655
2.9315	21.95435
2.932	21.24939
2.9325	13.89771
2.933	11.68213
2.9335	18.02673
2.934	12.68921
2.9345	18.12744
2.935	19.43665
2.9355	46.32568
2.936	66.26587
2.9365	73.91968
2.937	69.89136
2.9375	69.28711
2.938	71.80481
2.9385	67.8772
2.939	93.35632
2.9395	117.12341
2.94	121.35315
2.9405	101.21155
2.941	92.34924
2.9415	76.84021
2.942	51.96533
2.9425	32.62939
2.943	1.81274
2.9435	-14.80408
2.944	-27.39258
2.9445	-42.8009
2.945	-37.96692
2.9455	-21.75293
2.946	-14.19983
2.9465	-14.70337
2.947	-18.53027
2.9475	-27.19116
2.948	-30.11169
2.9485	-42.39807
2.949	-51.76392
2.9495	-52.26746
2.95	-42.7002
2.9505	-38.77258
2.951	-44.61365
2.9515	-50.85754
2.952	-33.33435
2.9525	-22.96143
2.953	-23.96851
2.9535	-26.58691
2.954	-23.26355
2.9545	-23.66638
2.955	-18.53027
2.9555	-17.92603
2.956	-19.13452
2.9565	-7.15027
2.957	-7.95593
2.9575	-4.02832
2.958	-10.57434
2.9585	-2.21558
2.959	4.33044
2.9595	16.3147
2.96	27.89612
2.9605	28.9032
2.961	16.81824
2.9615	10.67505
2.962	1.2085
2.9625	0.10071
2.963	-7.15027
2.9635	-16.01257
2.964	-20.34302
2.9645	-23.56567
2.965	-24.27063
2.9655	-16.91895
2.966	-21.14868
2.9665	-15.40833
2.967	-7.25098
2.9675	-4.83398
2.968	-9.46655
2.9685	5.74036
2.969	17.22107
2.9695	18.73169
2.97	19.23523
2.9705	20.04089
2.971	19.33594
2.9715	16.61682
2.972	9.46655
2.9725	13.797
2.973	38.16833
2.9735	39.57825
2.974	50.95825
2.9745	68.98499
2.975	72.10693
2.9755	65.76233
2.976	56.69861
2.9765	45.62073
2.977	39.98108
2.9775	46.92993
2.978	36.15417
2.9785	26.48621
2.979	10.77576
2.9795	-5.74036
2.98	-16.81824
2.9805	-22.55859
2.981	-31.32019
2.9815	-34.74426
2.982	-43.20374
2.9825	-52.8717
2.983	-56.49719
2.9835	-61.43188
2.984	-57.20215
2.9845	-49.95117
2.985	-35.34851
2.9855	-27.19116
2.986	-21.3501
2.9865	-19.23523
2.987	-12.48779
2.9875	-6.84814
2.988	11.38
2.9885	13.89771
2.989	5.74036
2.9895	1.40991
2.99	-1.10779
2.9905	11.68213
2.991	22.76001
2.9915	26.98975
2.992	33.33435
2.9925	31.11877
2.993	32.62939
2.9935	30.61523
2.994	32.22656
2.9945	38.77258
2.995	45.01648
2.9955	58.71277
2.996	50.65613
2.9965	38.57117
2.997	26.88904
2.9975	15.60974
2.998	4.33044
2.9985	-10.37292
2.999	-13.797
2.9995	-16.3147
3	-18.53027
3.0005	-27.59399
3.001	-25.57983
3.0015	-35.75134
3.002	-36.65771
3.0025	-36.25488
3.003	-29.30603
3.0035	-23.76709
3.004	-17.12036
3.0045	-18.63098
3.005	-14.30054
3.0055	6.94885
3.006	35.34851
3.0065	55.18799
3.007	57.60498
3.0075	57.00073
3.008	52.06604
3.0085	46.32568
3.009	26.18408
3.0095	18.22815
3.01	16.3147
3.0105	13.19275
3.011	13.797
3.0115	14.70337
3.012	10.27222
3.0125	3.02124
3.013	3.62549
3.0135	0.20142
3.014	1.10779
3.0145	-2.71912
3.015	3.42407
3.0155	6.04248
3.016	1.10779
3.0165	-6.3446
3.017	-13.99841
3.0175	-14.09912
3.018	-19.63806
3.0185	-15.30762
3.019	-19.33594
3.0195	-18.42957
3.02	-16.01257
3.0205	-5.23682
3.021	1.2085
3.0215	4.83398
3.022	5.74036
3.0225	0.60425
3.023	5.23682
3.0235	10.17151
3.024	9.46655
3.0245	14.50195
3.025	13.19275
3.0255	18.32886
3.026	19.43665
3.0265	26.28479
3.027	22.96143
3.0275	18.8324
3.028	17.72461
3.0285	25.27771
3.029	20.44373
3.0295	20.54443
3.03	16.41541
3.0305	15.71045
3.031	11.17859
3.0315	6.2439
3.032	-0.90637
3.0325	-7.25098
3.033	-9.06372
3.0335	-5.94177
3.034	0.40283
3.0345	0.70496
3.035	6.74744
3.0355	6.74744
3.036	7.35168
3.0365	17.72461
3.037	63.64746
3.0375	98.19031
3.038	111.68518
3.0385	111.08093
3.039	98.79456
3.0395	79.15649
3.04	70.79773
3.0405	67.8772
3.041	65.46021
3.0415	57.40356
3.042	44.91577
3.0425	27.09045
3.043	6.14319
3.0435	-10.57434
3.044	-24.87488
3.0445	-37.56409
3.045	-50.65613
3.0455	-49.0448
3.046	-34.34143
3.0465	-35.2478
3.047	-39.27612
3.0475	-30.2124
3.048	-27.09045
3.0485	-27.49329
3.049	-26.68762
3.0495	-21.85364
3.05	-23.16284
3.0505	-28.9032
3.051	-17.82532
3.0515	-11.68213
3.052	3.62549
3.0525	14.70337
3.053	22.96143
3.0535	49.74976
3.054	56.69861
3.0545	65.15808
3.055	61.53259
3.0555	63.84888
3.056	58.61206
3.0565	46.72852
3.057	32.62939
3.0575	18.93311
3.058	-0.20142
3.0585	-9.16443
3.059	-13.89771
3.0595	-18.22815
3.06	-23.76709
3.0605	-29.60815
3.061	-42.8009
3.0615	-52.16675
3.062	-56.90002
3.0625	-59.92126
3.063	-53.67737
3.0635	-39.27612
3.064	-30.11169
3.0645	-25.37842
3.065	-23.36426
3.0655	-26.28479
3.066	-21.24939
3.0665	-23.46497
3.067	-29.20532
3.0675	-33.73718
3.068	-34.14001
3.0685	-38.77258
3.069	-40.48462
3.0695	-43.80798
3.07	-36.35559
3.0705	-31.11877
3.071	-22.35718
3.0715	-20.24231
3.072	-16.91895
3.0725	-20.04089
3.073	-17.12036
3.0735	-10.57434
3.074	-0.70496
3.0745	5.23682
3.075	2.92053
3.0755	5.33752
3.076	12.89062
3.0765	17.12036
3.077	22.6593
3.0775	21.3501
3.078	27.6947
3.0785	27.09045
3.079	27.89612
3.0795	25.57983
3.08	23.8678
3.0805	38.36975
3.081	51.15967
3.0815	54.68445
3.082	52.771
3.0825	51.26038
3.083	39.67896
3.0835	33.23364
3.084	34.54285
3.0845	28.39966
3.085	21.75293
3.0855	9.86938
3.086	3.92761
3.0865	4.53186
3.087	-6.84814
3.0875	-6.64673
3.088	-8.05664
3.0885	-2.71912
3.089	3.62549
3.0895	6.14319
3.09	8.15735
3.0905	7.45239
3.091	4.63257
3.0915	6.44531
3.092	6.14319
3.0925	5.84106
3.093	3.8269
3.0935	-3.22266
3.094	2.01416
3.0945	-0.80566
3.095	1.91345
3.0955	0.70496
3.096	3.92761
3.0965	9.26514
3.097	3.62549
3.0975	10.57434
3.098	10.27222
3.0985	15.60974
3.099	19.43665
3.0995	23.56567
3.1	23.56567
3.1005	18.22815
3.101	20.94727
3.1015	18.32886
3.102	13.69629
3.1025	15.20691
3.103	13.49487
3.1035	8.66089
3.104	10.47363
3.1045	10.67505
3.105	17.82532
3.1055	26.08337
3.106	21.45081
3.1065	24.97559
3.107	42.8009
3.1075	71.50269
3.108	91.14075
3.1085	89.42871
3.109	83.68835
3.1095	70.19348
3.11	55.59082
3.1105	33.83789
3.111	21.65222
3.1115	14.60266
3.112	14.50195
3.1125	29.91028
3.113	33.83789
3.1135	23.8678
3.114	12.48779
3.1145	-2.21558
3.115	-18.22815
3.1155	-27.6947
3.116	-36.95984
3.1165	-43.50586
3.117	-44.51294
3.1175	-55.49011
3.118	-53.07312
3.1185	-62.23755
3.119	-55.2887
3.1195	-48.74268
3.12	-44.51294
3.1205	-40.78674
3.121	-31.52161
3.1215	-9.16443
3.122	39.88037
3.1225	81.47278
3.123	107.75757
3.1235	117.72766
3.124	123.66943
3.1245	134.94873
3.125	139.37988
3.1255	132.33032
3.126	105.94482
3.1265	78.75366
3.127	36.85913
3.1275	18.93311
3.128	-6.64673
3.1285	-22.86072
3.129	-34.34143
3.1295	-49.85046
3.13	-57.70569
3.1305	-67.37366
3.131	-71.30127
3.1315	-67.47437
3.132	-62.64038
3.1325	-57.10144
3.133	-56.19507
3.1335	-50.85754
3.134	-51.86462
3.1345	-66.36658
3.135	-79.55933
3.1355	-82.37915
3.136	-75.32959
3.1365	-59.1156
3.137	-49.54834
3.1375	-49.24622
3.138	-36.4563
3.1385	-11.88354
3.139	15.71045
3.1395	36.35559
3.14	40.78674
3.1405	33.73718
3.141	26.28479
3.1415	20.54443
3.142	12.68921
3.1425	8.66089
3.143	3.52478
3.1435	4.93469
3.144	-0.10071
3.1445	-6.44531
3.145	-6.64673
3.1455	-3.62549
3.146	-5.13611
3.1465	3.22266
3.147	8.05664
3.1475	6.14319
3.148	9.66797
3.1485	8.8623
3.149	12.68921
3.1495	10.67505
3.15	24.16992
3.1505	41.99524
3.151	42.29736
3.1515	40.08179
3.152	37.06055
3.1525	37.96692
3.153	38.57117
3.1535	31.52161
3.154	18.53027
3.1545	1.61133
3.155	-10.97717
3.1555	-25.98267
3.156	-42.90161
3.1565	-43.90869
3.157	-40.58533
3.1575	-20.74585
3.158	4.53186
3.1585	24.77417
3.159	28.60107
3.1595	29.60815
3.16	19.63806
3.1605	16.3147
3.161	10.37292
3.1615	-3.62549
3.162	-4.33044
3.1625	-5.84106
3.163	-11.07788
3.1635	-5.74036
3.164	5.13611
3.1645	22.15576
3.165	28.09753
3.1655	23.06213
3.166	20.94727
3.1665	13.89771
3.167	8.7616
3.1675	2.5177
3.168	-11.78284
3.1685	-16.41541
3.169	-21.75293
3.1695	-27.49329
3.17	-31.32019
3.1705	-23.96851
3.171	-24.97559
3.1715	-28.50037
3.172	-26.88904
3.1725	-24.47205
3.173	-25.47913
3.1735	-26.48621
3.174	-21.55151
3.1745	-18.73169
3.175	-17.82532
3.1755	-10.17151
3.176	-7.95593
3.1765	-1.61133
3.177	4.12903
3.1775	7.04956
3.178	4.73328
3.1785	6.54602
3.179	10.17151
3.1795	8.05664
3.18	5.13611
3.1805	7.15027
3.181	13.09204
3.1815	9.26514
3.182	11.58142
3.1825	9.46655
3.183	7.65381
3.1835	11.2793
3.184	9.56726
3.1845	16.81824
3.185	19.33594
3.1855	19.03381
3.186	16.81824
3.1865	15.81116
3.187	11.38
3.1875	20.74585
3.188	40.48462
3.1885	52.8717
3.189	58.00781
3.1895	52.26746
3.19	49.44763
3.1905	42.29736
3.191	33.53577
3.1915	32.32727
3.192	24.16992
3.1925	6.04248
3.193	-2.5177
3.1935	-3.12195
3.194	-4.73328
3.1945	-11.48071
3.195	-10.97717
3.1955	-1.10779
3.196	8.8623
3.1965	14.60266
3.197	19.13452
3.1975	23.06213
3.198	23.96851
3.1985	12.99133
3.199	11.38
3.1995	9.86938
3.2	7.5531
3.2005	7.15027
3.201	1.2085
3.2015	-7.04956
3.202	-9.97009
3.2025	12.99133
3.203	29.50745
3.2035	47.43347
3.204	81.87561
3.2045	97.48535
3.205	99.2981
3.2055	85.80322
3.206	68.07861
3.2065	57.20215
3.207	42.7002
3.2075	30.71594
3.208	15.40833
3.2085	1.2085
3.209	-19.63806
3.2095	-23.26355
3.21	-38.26904
3.2105	-54.78516
3.211	-67.37366
3.2115	-73.31543
3.212	-75.4303
3.2125	-74.82605
3.213	-71.40198
3.2135	-55.49011
3.214	-41.18958
3.2145	-32.22656
3.215	-16.91895
3.2155	0.50354
3.216	41.08887
3.2165	82.68127
3.217	112.79297
3.2175	126.79138
3.218	121.85669
3.2185	104.3335
3.219	78.04871
3.2195	53.87878
3.22	30.71594
3.2205	13.39417
3.221	-16.01257
3.2215	-37.06055
3.222	-54.78516
3.2225	-59.31702
3.223	-65.96375
3.2235	-67.17224
3.224	-70.79773
3.2245	-73.31543
3.225	-71.50269
3.2255	-68.07861
3.226	-61.53259
3.2265	-50.55542
3.227	-33.43506
3.2275	-24.77417
3.228	-17.22107
3.2285	15.81116
3.229	60.02197
3.2295	96.67969
3.23	112.59155
3.2305	103.42712
3.231	93.25562
3.2315	86.91101
3.232	68.07861
3.2325	55.49011
3.233	46.92993
3.2335	34.54285
3.234	27.49329
3.2345	25.27771
3.235	14.60266
3.2355	1.10779
3.236	-1.3092
3.2365	-0.90637
3.237	-8.45947
3.2375	-19.43665
3.238	-28.60107
3.2385	-39.88037
3.239	-45.82214
3.2395	-40.48462
3.24	-40.48462
3.2405	-27.79541
3.241	-29.10461
3.2415	-33.03223
3.242	-31.52161
3.2425	-48.74268
3.243	-56.79932
3.2435	-55.08728
3.244	-48.13843
3.2445	-37.26196
3.245	-17.6239
3.2455	-9.76868
3.246	-10.97717
3.2465	-4.22974
3.247	-5.94177
3.2475	-1.3092
3.248	4.93469
3.2485	-2.81982
3.249	-4.63257
3.2495	-3.22266
3.25	2.81982
3.2505	7.65381
3.251	9.16443
3.2515	18.12744
3.252	18.8324
3.2525	17.42249
3.253	24.06921
3.2535	27.6947
3.254	28.9032
3.2545	27.09045
3.255	20.44373
3.2555	14.60266
3.256	12.68921
3.2565	13.59558
3.257	13.59558
3.2575	19.43665
3.258	19.03381
3.2585	18.12744
3.259	12.99133
3.2595	1.2085
3.26	-4.22974
3.2605	-10.37292
3.261	-13.19275
3.2615	-17.92603
3.262	-7.25098
3.2625	-3.22266
3.263	0.70496
3.2635	4.43115
3.264	9.36584
3.2645	7.5531
3.265	8.25806
3.2655	5.0354
3.266	6.84814
3.2665	6.2439
3.267	6.04248
3.2675	8.15735
3.268	3.42407
3.2685	5.74036
3.269	6.2439
3.2695	7.75452
3.27	-0.40283
3.2705	-7.25098
3.271	-2.21558
3.2715	5.53894
3.272	15.50903
3.2725	22.96143
3.273	21.04797
3.2735	23.96851
3.274	27.39258
3.2745	25.07629
3.275	16.41541
3.2755	8.8623
3.276	5.33752
3.2765	-1.51062
3.277	9.06372
3.2775	7.95593
3.278	6.84814
3.2785	9.86938
3.279	9.76868
3.2795	5.53894
3.28	5.94177
3.2805	11.17859
3.281	22.76001
3.2815	35.75134
3.282	39.88037
3.2825	40.1825
3.283	44.11011
3.2835	40.2832
3.284	30.51453
3.2845	19.63806
3.285	7.5531
3.2855	-4.43115
3.286	-11.17859
3.2865	-0.70496
3.287	13.29346
3.2875	24.57275
3.288	18.8324
3.2885	13.59558
3.289	1.91345
3.2895	-10.67505
3.29	-19.94019
3.2905	-21.24939
3.291	-28.60107
3.2915	-25.177
3.292	-9.46655
3.2925	13.69629
3.293	23.06213
3.2935	23.26355
3.294	17.6239
3.2945	13.59558
3.295	6.74744
3.2955	3.7262
3.296	-0.50354
3.2965	-3.7262
3.297	-8.15735
3.2975	-3.22266
3.298	-10.87646
3.2985	-14.09912
3.299	-9.36584
3.2995	-2.61841
3.3	2.41699
3.3005	-0.90637
3.301	9.16443
3.3015	2.5177
3.302	-7.75452
3.3025	-9.56726
3.303	-8.8623
3.3035	-6.3446
3.304	-9.46655
3.3045	-19.03381
3.305	-22.15576
3.3055	-23.66638
3.306	-15.40833
3.3065	-5.84106
3.307	4.93469
3.3075	-0.60425
3.308	2.01416
3.3085	9.86938
3.309	11.88354
3.3095	3.7262
3.31	6.04248
3.3105	35.04639
3.311	60.82764
3.3115	78.95508
3.312	82.88269
3.3125	80.76782
3.313	65.15808
3.3135	44.11011
3.314	28.39966
3.3145	32.93152
3.315	26.48621
3.3155	9.36584
3.316	-7.04956
3.3165	-25.57983
3.317	-41.08887
3.3175	-46.82922
3.318	-50.85754
3.3185	-43.50586
3.319	-21.45081
3.3195	5.63965
3.32	24.27063
3.3205	21.3501
3.321	16.91895
3.3215	16.91895
3.322	15.1062
3.3225	18.63098
3.323	4.83398
3.3235	-10.47363
3.324	-26.18408
3.3245	-38.47046
3.325	-37.16125
3.3255	-36.05347
3.326	-39.67896
3.3265	-38.87329
3.327	-41.59241
3.3275	-48.23914
3.328	-43.40515
3.3285	-35.14709
3.329	-5.13611
3.3295	14.30054
3.33	40.68604
3.3305	43.90869
3.331	53.47595
3.3315	49.0448
3.332	45.52002
3.3325	37.96692
3.333	34.14001
3.3335	14.80408
3.334	10.47363
3.3345	0.40283
3.335	-14.90479
3.3355	-21.75293
3.336	-24.37134
3.3365	-29.50745
3.337	-28.29895
3.3375	-17.01965
3.338	-13.49487
3.3385	-8.8623
3.339	-8.96301
3.3395	-8.8623
3.34	-22.15576
3.3405	-33.13293
3.341	-32.83081
3.3415	-22.6593
3.342	-17.42249
3.3425	-13.89771
3.343	-13.09204
3.3435	-7.75452
3.344	-1.71204
3.3445	11.07788
3.345	19.33594
3.3455	19.03381
3.346	18.63098
3.3465	22.45789
3.347	22.05505
3.3475	27.59399
3.348	20.84656
3.3485	27.99683
3.349	27.59399
3.3495	28.39966
3.35	47.7356
3.3505	38.57117
3.351	33.43506
3.3515	34.14001
3.352	38.26904
3.3525	32.52869
3.353	24.67346
3.3535	19.63806
3.354	19.33594
3.3545	5.63965
3.355	-1.91345
3.3555	-8.15735
3.356	-3.22266
3.3565	-3.32336
3.357	-1.10779
3.3575	4.83398
3.358	5.33752
3.3585	2.41699
3.359	12.28638
3.3595	11.98425
3.36	8.35876
3.3605	7.75452
3.361	3.7262
3.3615	2.01416
3.362	-0.80566
3.3625	-8.25806
3.363	-2.01416
3.3635	5.13611
3.364	8.35876
3.3645	4.02832
3.365	-0.50354
3.3655	2.92053
3.366	8.15735
3.3665	5.94177
3.367	5.23682
3.3675	10.67505
3.368	6.64673
3.3685	9.36584
3.369	23.56567
3.3695	20.74585
3.37	26.08337
3.3705	22.86072
3.371	19.43665
3.3715	15.20691
3.372	16.21399
3.3725	15.30762
3.373	14.19983
3.3735	10.0708
3.374	10.97717
3.3745	18.8324
3.375	21.45081
3.3755	24.87488
3.376	20.74585
3.3765	15.50903
3.377	11.78284
3.3775	9.36584
3.378	4.53186
3.3785	2.81982
3.379	0.60425
3.3795	-4.43115
3.38	-7.65381
3.3805	-3.8269
3.381	-2.71912
3.3815	15.50903
3.382	47.03064
3.3825	69.08569
3.383	78.35083
3.3835	80.26428
3.384	72.40906
3.3845	49.64905
3.385	38.77258
3.3855	31.01807
3.386	13.69629
3.3865	0.20142
3.387	-10.77576
3.3875	-16.3147
3.388	-30.81665
3.3885	-35.85205
3.389	-39.67896
3.3895	-43.00232
3.39	-38.26904
3.3905	-30.81665
3.391	-25.177
3.3915	-8.96301
3.392	1.91345
3.3925	4.63257
3.393	13.39417
3.3935	34.34143
3.394	50.85754
3.3945	45.62073
3.395	30.71594
3.3955	22.96143
3.396	19.94019
3.3965	13.09204
3.397	6.64673
3.3975	-3.22266
3.398	-0.70496
3.3985	-8.66089
3.399	-10.27222
3.3995	-11.58142
3.4	5.43823
3.4005	40.1825
3.401	61.02905
3.4015	66.46729
3.402	58.30994
3.4025	47.43347
3.403	23.26355
3.4035	2.81982
3.404	-11.78284
3.4045	-25.37842
3.405	-36.65771
3.4055	-52.26746
3.406	-55.18799
3.4065	-48.54126
3.407	-45.72144
3.4075	-42.90161
3.408	-42.59949
3.4085	-42.59949
3.409	-31.11877
3.4095	-10.37292
3.41	-5.84106
3.4105	13.39417
3.411	44.31152
3.4115	71.30127
3.412	89.12659
3.4125	88.52234
3.413	74.02039
3.4135	55.18799
3.414	36.55701
3.4145	14.09912
3.415	-1.3092
3.4155	-15.60974
3.416	-34.54285
3.4165	-46.12427
3.417	-49.0448
3.4175	-58.71277
3.418	-55.2887
3.4185	-56.49719
3.419	-56.19507
3.4195	-59.92126
3.42	-60.72693
3.4205	-52.67029
3.421	-41.89453
3.4215	-29.80957
3.422	-24.57275
3.4225	-20.74585
3.423	-11.78284
3.4235	-17.01965
3.424	-15.91187
3.4245	-4.73328
3.425	-1.51062
3.4255	8.35876
3.426	9.36584
3.4265	17.82532
3.427	19.13452
3.4275	27.6947
3.428	34.14001
3.4285	35.14709
3.429	36.25488
3.4295	36.05347
3.43	35.65063
3.4305	40.1825
3.431	29.00391
3.4315	27.79541
3.432	23.16284
3.4325	21.04797
3.433	22.45789
3.4335	25.57983
3.434	32.42798
3.4345	33.53577
3.435	34.64355
3.4355	31.4209
3.436	20.74585
3.4365	12.38708
3.437	2.92053
3.4375	-2.5177
3.438	11.48071
3.4385	44.81506
3.439	103.93066
3.4395	140.58838
3.44	153.98254
3.4405	145.8252
3.441	116.82129
3.4415	91.94641
3.442	66.36658
3.4425	40.88745
3.443	18.02673
3.4435	-4.02832
3.444	-22.35718
3.4445	-31.72302
3.445	-41.59241
3.4455	-48.13843
3.446	-51.46179
3.4465	-57.10144
3.447	-57.10144
3.4475	-51.26038
3.448	-43.70728
3.4485	-43.10303
3.449	-50.15259
3.4495	-51.05896
3.45	-53.27454
3.4505	-50.85754
3.451	-41.99524
3.4515	-38.06763
3.452	-29.80957
3.4525	-33.83789
3.453	-33.73718
3.4535	-39.57825
3.454	-31.72302
3.4545	-30.11169
3.455	-20.04089
3.4555	-15.20691
3.456	-5.63965
3.4565	-8.8623
3.457	-11.17859
3.4575	-6.64673
3.458	-3.92761
3.4585	-8.45947
3.459	-6.44531
3.4595	-9.97009
3.46	-0.40283
3.4605	2.01416
3.461	8.96301
3.4615	11.07788
3.462	5.74036
3.4625	3.62549
3.463	14.30054
3.4635	13.99841
3.464	19.13452
3.4645	17.42249
3.465	13.09204
3.4655	15.30762
3.466	12.89062
3.4665	13.69629
3.467	15.00549
3.4675	12.38708
3.468	20.24231
3.4685	11.88354
3.469	13.39417
3.4695	11.58142
3.47	13.09204
3.4705	14.90479
3.471	9.56726
3.4715	1.71204
3.472	7.45239
3.4725	7.04956
3.473	3.42407
3.4735	13.89771
3.474	20.24231
3.4745	24.77417
3.475	39.47754
3.4755	56.5979
3.476	61.12976
3.4765	52.06604
3.477	47.03064
3.4775	35.2478
3.478	28.19824
3.4785	13.89771
3.479	7.85522
3.4795	8.56018
3.48	-3.12195
3.4805	-4.53186
3.481	-14.19983
3.4815	-12.99133
3.482	-8.7616
3.4825	-8.56018
3.483	-12.68921
3.4835	-16.21399
3.484	-16.51611
3.4845	-2.31628
3.485	10.87646
3.4855	17.32178
3.486	20.64514
3.4865	18.02673
3.487	19.43665
3.4875	11.88354
3.488	7.65381
3.4885	13.99841
3.489	21.24939
3.4895	29.50745
3.49	33.63647
3.4905	28.9032
3.491	21.75293
3.4915	16.01257
3.492	19.53735
3.4925	14.19983
3.493	4.93469
3.4935	-0.10071
3.494	-0.20142
3.4945	16.61682
3.495	69.38782
3.4955	100.80872
3.496	116.01562
3.4965	127.69775
3.497	129.5105
3.4975	113.29651
3.498	98.69385
3.4985	64.05029
3.499	20.94727
3.4995	-11.17859
3.5	-37.06055
3.5005	-61.02905
3.501	-71.30127
3.5015	-64.75525
3.502	-67.47437
3.5025	-74.52393
3.503	-82.17773
3.5035	-81.06995
3.504	-74.2218
3.5045	-73.21472
3.505	-65.15808
3.5055	-59.41772
3.506	-56.90002
3.5065	-45.62073
3.507	-37.46338
3.5075	-27.59399
3.508	-14.09912
3.5085	1.61133
3.509	14.19983
3.5095	10.37292
3.51	15.00549
3.5105	15.00549
3.511	19.23523
3.5115	12.08496
3.512	21.55151
3.5125	23.06213
3.513	22.96143
3.5135	20.74585
3.514	11.38
3.5145	11.2793
3.515	0.30212
3.5155	-2.31628
3.516	-19.43665
3.5165	-21.14868
3.517	-20.04089
3.5175	-22.35718
3.518	-17.22107
3.5185	-22.25647
3.519	-24.37134
3.5195	-24.77417
3.52	-24.16992
3.5205	-16.81824
3.521	-11.17859
3.5215	-6.54602
3.522	-3.7262
3.5225	4.02832
3.523	12.68921
3.5235	15.71045
3.524	20.04089
3.5245	21.04797
3.525	21.55151
3.5255	24.06921
3.526	25.98267
3.5265	23.46497
3.527	25.57983
3.5275	31.62231
3.528	38.87329
3.5285	38.26904
3.529	38.77258
3.5295	26.28479
3.53	10.67505
3.5305	5.53894
3.531	-2.21558
3.5315	-9.26514
3.532	-3.8269
3.5325	-2.11487
3.533	8.05664
3.5335	7.65381
3.534	6.74744
3.5345	11.17859
3.535	6.74744
3.5355	7.95593
3.536	5.74036
3.5365	9.76868
3.537	16.01257
3.5375	10.37292
3.538	6.3446
3.5385	9.76868
3.539	10.67505
3.5395	8.66089
3.54	8.25806
3.5405	0.60425
3.541	-4.33044
3.5415	-2.92053
3.542	-9.06372
3.5425	-6.44531
3.543	-11.88354
3.5435	-20.44373
3.544	-21.24939
3.5445	-16.91895
3.545	-14.90479
3.5455	-11.98425
3.546	-9.86938
3.5465	-5.94177
3.547	-5.53894
3.5475	-6.2439
3.548	-2.11487
3.5485	-0.90637
3.549	11.48071
3.5495	14.90479
3.55	23.16284
3.5505	25.78125
3.551	23.56567
3.5515	23.46497
3.552	21.04797
3.5525	21.24939
3.553	24.16992
3.5535	21.95435
3.554	25.57983
3.5545	22.35718
3.555	51.05896
3.5555	83.58765
3.556	97.58606
3.5565	102.31934
3.557	95.16907
3.5575	85.70251
3.558	75.83313
3.5585	81.47278
3.559	79.15649
3.5595	67.67578
3.56	43.10303
3.5605	21.55151
3.561	-4.43115
3.5615	-25.37842
3.562	-35.54993
3.5625	-43.90869
3.563	-52.06604
3.5635	-60.22339
3.564	-76.33667
3.5645	-77.948
3.565	-84.79614
3.5655	-76.43738
3.566	-62.43896
3.5665	-47.53418
3.567	-27.49329
3.5675	-20.04089
3.568	-15.1062
3.5685	-13.69629
3.569	-11.2793
3.5695	-11.07788
3.57	-18.73169
3.5705	-18.63098
3.571	-19.63806
3.5715	-23.36426
3.572	-25.177
3.5725	-19.94019
3.573	-22.76001
3.5735	-19.33594
3.574	-13.89771
3.5745	-25.27771
3.575	-30.71594
3.5755	-33.73718
3.576	-33.03223
3.5765	1.91345
3.577	27.09045
3.5775	45.2179
3.578	81.97632
3.5785	100.10376
3.579	103.62854
3.5795	88.92517
3.58	67.17224
3.5805	41.29028
3.581	7.15027
3.5815	-21.3501
3.582	-44.11011
3.5825	-60.92834
3.583	-70.29419
3.5835	-71.50269
3.584	-70.09277
3.5845	-73.41614
3.585	-68.17932
3.5855	-58.91418
3.586	-37.56409
3.5865	-2.21558
3.587	31.72302
3.5875	58.81348
3.588	67.8772
3.5885	68.07861
3.589	69.79065
3.5895	59.21631
3.59	49.64905
3.5905	32.83081
3.591	20.1416
3.5915	6.2439
3.592	-13.89771
3.5925	-24.06921
3.593	-27.39258
3.5935	-30.81665
3.594	-29.70886
3.5945	-30.91736
3.595	-28.19824
3.5955	-27.89612
3.596	-33.73718
3.5965	-30.81665
3.597	-35.95276
3.5975	-36.15417
3.598	-21.3501
3.5985	-4.63257
3.599	0.50354
3.5995	-0.10071
3.6	0.30212
3.6005	2.21558
3.601	7.65381
3.6015	8.56018
3.602	16.41541
3.6025	14.09912
3.603	14.09912
3.6035	16.91895
3.604	16.21399
3.6045	24.47205
3.605	24.67346
3.6055	26.18408
3.606	22.45789
3.6065	25.47913
3.607	29.00391
3.6075	27.39258
3.608	31.92444
3.6085	27.6947
3.609	31.11877
3.6095	24.57275
3.61	22.55859
3.6105	25.27771
3.611	20.84656
3.6115	15.40833
3.612	16.91895
3.6125	14.80408
3.613	15.30762
3.6135	11.98425
3.614	10.67505
3.6145	6.84814
3.615	5.53894
3.6155	10.0708
3.616	11.17859
3.6165	3.42407
3.617	11.2793
3.6175	6.84814
3.618	12.08496
3.6185	11.88354
3.619	14.80408
3.6195	16.81824
3.62	19.43665
3.6205	15.20691
3.621	20.24231
3.6215	8.96301
3.622	8.8623
3.6225	13.797
3.623	5.63965
3.6235	8.35876
3.624	6.54602
3.6245	15.50903
3.625	11.98425
3.6255	13.797
3.626	10.27222
3.6265	9.06372
3.627	18.73169
3.6275	12.5885
3.628	16.21399
3.6285	41.69312
3.629	58.71277
3.6295	63.24463
3.63	63.24463
3.6305	56.5979
3.631	48.03772
3.6315	39.57825
3.632	33.83789
3.6325	28.60107
3.633	37.46338
3.6335	34.94568
3.634	35.95276
3.6345	20.34302
3.635	18.8324
3.6355	15.91187
3.636	9.86938
3.6365	-1.10779
3.637	-1.51062
3.6375	-8.45947
3.638	-5.13611
3.6385	-7.35168
3.639	6.94885
3.6395	27.79541
3.64	29.00391
3.6405	35.65063
3.641	22.25647
3.6415	14.19983
3.642	4.43115
3.6425	-15.30762
3.643	-30.71594
3.6435	-26.3855
3.644	-2.61841
3.6445	24.16992
3.645	31.72302
3.6455	37.66479
3.646	33.83789
3.6465	19.43665
3.647	20.94727
3.6475	9.46655
3.648	-5.0354
3.6485	-18.12744
3.649	-27.89612
3.6495	-41.29028
3.65	-58.91418
3.6505	-66.97083
3.651	-63.04321
3.6515	-63.44604
3.652	-56.19507
3.6525	-43.80798
3.653	-37.56409
3.6535	-24.06921
3.654	-13.797
3.6545	-9.56726
3.655	-0.30212
3.6555	7.95593
3.656	43.50586
3.6565	66.56799
3.657	68.38074
3.6575	63.34534
3.658	51.15967
3.6585	41.08887
3.659	26.88904
3.6595	8.96301
3.66	-5.74036
3.6605	-18.93311
3.661	-32.32727
3.6615	-42.49878
3.662	-46.72852
3.6625	-50.95825
3.663	-54.88586
3.6635	-60.52551
3.664	-60.52551
3.6645	-49.44763
3.665	-37.86621
3.6655	-38.47046
3.666	-28.80249
3.6665	-27.89612
3.667	-23.96851
3.6675	-15.81116
3.668	-13.19275
3.6685	-2.92053
3.669	12.28638
3.6695	25.47913
3.67	32.02515
3.6705	39.37683
3.671	38.974
3.6715	42.29736
3.672	47.03064
3.6725	45.01648
3.673	39.67896
3.6735	34.54285
3.674	22.86072
3.6745	35.34851
3.675	65.05737
3.6755	111.48376
3.676	144.51599
3.6765	138.77563
3.677	116.82129
3.6775	92.04712
3.678	49.44763
3.6785	11.88354
3.679	-29.00391
3.6795	-60.92834
3.68	-89.52942
3.6805	-102.01721
3.681	-115.61279
3.6815	-119.33899
3.682	-113.90076
3.6825	-95.97473
3.683	-57.10144
3.6835	-22.15576
3.684	-3.12195
3.6845	11.68213
3.685	13.09204
3.6855	10.87646
3.686	5.33752
3.6865	6.3446
3.687	5.74036
3.6875	-0.90637
3.688	-6.74744
3.6885	-18.22815
3.689	-25.88196
3.6895	-26.48621
3.69	-23.16284
3.6905	-19.83948
3.691	0.40283
3.6915	25.78125
3.692	44.41223
3.6925	49.54834
3.693	47.43347
3.6935	41.18958
3.694	29.60815
3.6945	25.07629
3.695	14.09912
3.6955	4.43115
3.696	-7.85522
3.6965	-16.3147
3.697	-17.42249
3.6975	-9.36584
3.698	-9.86938
3.6985	-15.40833
3.699	-11.07788
3.6995	-13.69629
3.7	-7.5531
3.7005	-5.63965
3.701	8.66089
3.7015	31.32019
3.702	42.59949
3.7025	47.53418
3.703	44.51294
3.7035	38.87329
3.704	39.98108
3.7045	35.95276
3.705	32.02515
3.7055	31.21948
3.706	15.81116
3.7065	10.67505
3.707	7.35168
3.7075	3.12195
3.708	1.71204
3.7085	4.93469
3.709	6.84814
3.7095	4.83398
3.71	6.04248
3.7105	10.97717
3.711	10.57434
3.7115	11.78284
3.712	12.48779
3.7125	14.90479
3.713	12.89062
3.7135	10.77576
3.714	13.89771
3.7145	12.08496
3.715	9.76868
3.7155	17.6239
3.716	20.94727
3.7165	20.34302
3.717	19.13452
3.7175	21.3501
3.718	22.35718
3.7185	20.44373
3.719	15.91187
3.7195	12.48779
3.72	15.50903
3.7205	13.39417
3.721	12.68921
3.7215	12.08496
3.722	13.39417
3.7225	11.38
3.723	13.29346
3.7235	5.53894
3.724	6.44531
3.7245	-3.32336
3.725	-0.30212
3.7255	10.0708
3.726	23.36426
3.7265	20.24231
3.727	26.48621
3.7275	29.40674
3.728	28.60107
3.7285	27.59399
3.729	20.54443
3.7295	21.85364
3.73	23.26355
3.7305	29.40674
3.731	34.34143
3.7315	30.91736
3.732	22.76001
3.7325	23.06213
3.733	14.50195
3.7335	19.94019
3.734	24.16992
3.7345	34.14001
3.735	32.22656
3.7355	32.22656
3.736	39.37683
3.7365	47.13135
3.737	49.85046
3.7375	45.41931
3.738	50.65613
3.7385	49.95117
3.739	52.67029
3.7395	37.46338
3.74	29.20532
3.7405	10.27222
3.741	-5.23682
3.7415	-23.96851
3.742	-33.83789
3.7425	-45.2179
3.743	-51.96533
3.7435	-43.50586
3.744	-31.32019
3.7445	-3.52478
3.745	25.37842
3.7455	50.65613
3.746	63.94958
3.7465	58.20923
3.747	45.2179
3.7475	35.34851
3.748	13.69629
3.7485	-2.41699
3.749	-8.8623
3.7495	-13.09204
3.75	-18.73169
3.7505	-25.78125
3.751	5.33752
3.7515	26.98975
3.752	31.82373
3.7525	35.95276
3.753	46.92993
3.7535	64.55383
3.754	56.5979
3.7545	28.39966
3.755	6.04248
3.7555	-9.86938
3.756	-27.39258
3.7565	-48.94409
3.757	-65.25879
3.7575	-68.28003
3.758	-77.14233
3.7585	-86.10535
3.759	-96.57898
3.7595	-97.38464
3.76	-85.40039
3.7605	-87.31384
3.761	-71.60339
3.7615	-61.02905
3.762	-52.771
3.7625	-35.34851
3.763	-33.43506
3.7635	-29.40674
3.764	-21.24939
3.7645	-17.42249
3.765	-19.03381
3.7655	-18.8324
3.766	-23.56567
3.7665	-21.75293
3.767	-20.04089
3.7675	-18.73169
3.768	-8.7616
3.7685	-10.97717
3.769	-13.29346
3.7695	-5.53894
3.77	-3.62549
3.7705	-3.92761
3.771	-2.81982
3.7715	-3.12195
3.772	-4.22974
3.7725	-4.93469
3.773	-0.30212
3.7735	-1.61133
3.774	7.45239
3.7745	7.65381
3.775	4.93469
3.7755	9.76868
3.776	10.87646
3.7765	13.797
3.777	8.35876
3.7775	12.78992
3.778	10.97717
3.7785	25.177
3.779	44.51294
3.7795	53.97949
3.78	52.36816
3.7805	45.72144
3.781	30.81665
3.7815	25.88196
3.782	21.45081
3.7825	14.50195
3.783	-1.91345
3.7835	-10.27222
3.784	-15.50903
3.7845	-20.84656
3.785	-31.82373
3.7855	-30.51453
3.786	-19.43665
3.7865	-16.3147
3.787	-7.85522
3.7875	1.61133
3.788	3.22266
3.7885	14.80408
3.789	12.89062
3.7895	15.40833
3.79	20.94727
3.7905	18.12744
3.791	23.36426
3.7915	20.74585
3.792	23.06213
3.7925	28.39966
3.793	28.39966
3.7935	20.44373
3.794	19.73877
3.7945	17.42249
3.795	20.24231
3.7955	15.91187
3.796	15.81116
3.7965	15.30762
3.797	16.11328
3.7975	13.09204
3.798	11.98425
3.7985	14.70337
3.799	13.49487
3.7995	9.36584
3.8	5.94177
3.8005	10.97717
3.801	9.97009
3.8015	13.69629
3.802	3.42407
3.8025	-5.74036
3.803	-7.75452
3.8035	-9.76868
3.804	1.00708
3.8045	3.8269
3.805	6.04248
3.8055	9.16443
3.806	9.26514
3.8065	2.5177
3.807	8.96301
3.8075	6.74744
3.808	19.63806
3.8085	29.70886
3.809	35.14709
3.8095	27.39258
3.81	22.25647
3.8105	16.71753
3.811	16.41541
3.8115	18.22815
3.812	6.74744
3.8125	-0.60425
3.813	-3.92761
3.8135	-9.26514
3.814	-17.32178
3.8145	-18.42957
3.815	-3.42407
3.8155	21.24939
3.816	23.76709
3.8165	27.79541
3.817	27.89612
3.8175	31.82373
