Alessio_Russo_Left_2.c3d  



Time(s):	A_L_bicipite(μV):
0	8.05664
0.0005	-2.41699
0.001	-7.15027
0.0015	-6.2439
0.002	-13.39417
0.0025	-19.33594
0.003	-22.35718
0.0035	-10.77576
0.004	-10.17151
0.0045	-4.63257
0.005	8.15735
0.0055	18.63098
0.006	24.57275
0.0065	21.45081
0.007	20.34302
0.0075	7.95593
0.008	7.04956
0.0085	-1.81274
0.009	-8.35876
0.0095	-5.94177
0.01	-6.14319
0.0105	-9.86938
0.011	-13.09204
0.0115	-9.16443
0.012	-7.85522
0.0125	-2.71912
0.013	-0.50354
0.0135	3.52478
0.014	13.797
0.0145	19.23523
0.015	13.49487
0.0155	14.90479
0.016	22.76001
0.0165	50.55542
0.017	70.59631
0.0175	79.05579
0.018	78.25012
0.0185	83.18481
0.019	82.37915
0.0195	68.88428
0.02	49.95117
0.0205	27.79541
0.021	14.70337
0.0215	-3.7262
0.022	0.20142
0.0225	15.00549
0.023	13.29346
0.0235	16.71753
0.024	33.9386
0.0245	70.09277
0.025	100.30518
0.0255	112.39014
0.026	105.34058
0.0265	96.7804
0.027	92.24854
0.0275	73.11401
0.028	57.30286
0.0285	72.40906
0.029	101.21155
0.0295	121.65527
0.03	128.10059
0.0305	123.06519
0.031	106.04553
0.0315	68.28003
0.032	48.84338
0.0325	20.74585
0.033	-26.68762
0.0335	-76.53809
0.034	-121.35315
0.0345	-164.95972
0.035	-190.64026
0.0355	-206.04858
0.036	-204.03442
0.0365	-183.48999
0.037	-169.89441
0.0375	-160.83069
0.038	-161.23352
0.0385	-148.54431
0.039	-125.48218
0.0395	-113.29651
0.04	-93.55774
0.0405	-80.16357
0.041	-77.948
0.0415	-79.55933
0.042	-75.4303
0.0425	-76.43738
0.043	-36.4563
0.0435	5.74036
0.044	25.177
0.0445	34.74426
0.045	33.23364
0.0455	32.32727
0.046	26.78833
0.0465	24.06921
0.047	25.98267
0.0475	19.23523
0.048	16.3147
0.0485	23.16284
0.049	36.65771
0.0495	51.46179
0.05	69.58923
0.0505	84.49402
0.051	92.65137
0.0515	92.85278
0.052	74.52393
0.0525	53.77808
0.053	34.03931
0.0535	14.09912
0.054	7.75452
0.0545	-0.30212
0.055	-8.7616
0.0555	-21.45081
0.056	-24.67346
0.0565	-24.37134
0.057	-35.85205
0.0575	-47.33276
0.058	-52.36816
0.0585	-58.51135
0.059	-41.39099
0.0595	-25.98267
0.06	-18.73169
0.0605	-13.69629
0.061	-1.00708
0.0615	7.65381
0.062	15.40833
0.0625	15.40833
0.063	16.91895
0.0635	10.57434
0.064	18.02673
0.0645	23.56567
0.065	23.06213
0.0655	16.91895
0.066	21.85364
0.0665	26.98975
0.067	41.99524
0.0675	56.39648
0.068	61.6333
0.0685	68.17932
0.069	63.04321
0.0695	59.61914
0.07	57.30286
0.0705	44.91577
0.071	31.62231
0.0715	26.18408
0.072	13.89771
0.0725	10.57434
0.073	9.36584
0.0735	2.92053
0.074	7.15027
0.0745	12.99133
0.075	9.56726
0.0755	10.27222
0.076	17.12036
0.0765	21.14868
0.077	26.88904
0.0775	32.22656
0.078	33.13293
0.0785	23.36426
0.079	16.81824
0.0795	8.15735
0.08	6.04248
0.0805	-4.83398
0.081	-12.68921
0.0815	-14.70337
0.082	-20.94727
0.0825	-33.83789
0.083	-37.86621
0.0835	-45.2179
0.084	-39.07471
0.0845	-32.12585
0.085	-30.2124
0.0855	-24.87488
0.086	-26.78833
0.0865	-17.12036
0.087	-6.94885
0.0875	3.02124
0.088	6.84814
0.0885	11.48071
0.089	18.42957
0.0895	21.75293
0.09	21.45081
0.0905	32.02515
0.091	35.65063
0.0915	35.65063
0.092	28.19824
0.0925	31.52161
0.093	26.28479
0.0935	16.11328
0.094	8.7616
0.0945	1.3092
0.095	-4.43115
0.0955	-6.74744
0.096	2.61841
0.0965	3.8269
0.097	2.81982
0.0975	-1.10779
0.098	-7.85522
0.0985	3.92761
0.099	40.1825
0.0995	68.88428
0.1	79.35791
0.1005	83.78906
0.101	110.87952
0.1015	150.55847
0.102	153.3783
0.1025	144.6167
0.103	105.44128
0.1035	64.35242
0.104	29.10461
0.1045	-14.90479
0.105	-46.02356
0.1055	-81.47278
0.106	-87.41455
0.1065	-79.96216
0.107	-60.82764
0.1075	-48.13843
0.108	-44.91577
0.1085	-43.60657
0.109	-19.33594
0.1095	9.76868
0.11	29.60815
0.1105	39.27612
0.111	42.59949
0.1115	61.33118
0.112	72.81189
0.1125	68.48145
0.113	53.37524
0.1135	30.31311
0.114	7.95593
0.1145	-15.1062
0.115	-36.55701
0.1155	-59.21631
0.116	-74.52393
0.1165	-85.5011
0.117	-78.65295
0.1175	-69.38782
0.118	-66.06445
0.1185	-63.64746
0.119	-66.56799
0.1195	-72.30835
0.12	-69.58923
0.1205	-79.15649
0.121	-92.24854
0.1215	-92.24854
0.122	-80.36499
0.1225	-60.72693
0.123	-46.62781
0.1235	-25.57983
0.124	11.78284
0.1245	40.1825
0.125	57.10144
0.1255	64.75525
0.126	57.20215
0.1265	52.26746
0.127	44.71436
0.1275	33.9386
0.128	20.94727
0.1285	13.59558
0.129	13.49487
0.1295	18.22815
0.13	20.44373
0.1305	22.55859
0.131	25.98267
0.1315	25.37842
0.132	24.87488
0.1325	23.56567
0.133	28.09753
0.1335	63.84888
0.134	105.94482
0.1345	154.38538
0.135	165.46326
0.1355	147.43652
0.136	112.59155
0.1365	77.64587
0.137	42.29736
0.1375	7.95593
0.138	-20.1416
0.1385	-35.2478
0.139	-38.26904
0.1395	-40.88745
0.14	-49.24622
0.1405	-54.18091
0.141	-54.0802
0.1415	-59.61914
0.142	-53.57666
0.1425	-45.41931
0.143	-51.36108
0.1435	-58.51135
0.144	-63.04321
0.1445	-73.11401
0.145	-60.72693
0.1455	-52.16675
0.146	-38.974
0.1465	-29.80957
0.147	-19.23523
0.1475	-16.71753
0.148	-4.22974
0.1485	8.35876
0.149	23.96851
0.1495	34.24072
0.15	48.64197
0.1505	77.74658
0.151	98.59314
0.1515	114.60571
0.152	107.85828
0.1525	97.88818
0.153	88.22021
0.1535	78.75366
0.154	63.84888
0.1545	53.17383
0.155	45.01648
0.1555	31.32019
0.156	18.42957
0.1565	8.7616
0.157	-4.12903
0.1575	-20.74585
0.158	-11.07788
0.1585	-10.57434
0.159	-29.30603
0.1595	-47.63489
0.16	-51.86462
0.1605	-36.75842
0.161	-29.50745
0.1615	-29.80957
0.162	-30.41382
0.1625	-36.95984
0.163	-41.99524
0.1635	-55.89294
0.164	-67.57507
0.1645	-68.17932
0.165	-60.62622
0.1655	-54.0802
0.166	-46.22498
0.1665	-44.31152
0.167	-42.19666
0.1675	-26.28479
0.168	-17.6239
0.1685	-14.60266
0.169	-3.92761
0.1695	16.41541
0.17	19.53735
0.1705	38.16833
0.171	87.21313
0.1715	144.81812
0.172	173.21777
0.1725	170.19653
0.173	149.85352
0.1735	127.89917
0.174	102.52075
0.1745	76.94092
0.175	46.82922
0.1755	25.88196
0.176	1.51062
0.1765	-8.35876
0.177	-1.2085
0.1775	15.20691
0.178	21.95435
0.1785	18.53027
0.179	13.89771
0.1795	9.36584
0.18	-5.43823
0.1805	-13.59558
0.181	-32.12585
0.1815	-57.00073
0.182	-74.02039
0.1825	-92.85278
0.183	-100.20447
0.1835	-104.63562
0.184	-106.75049
0.1845	-93.96057
0.185	-76.63879
0.1855	-60.72693
0.186	-52.97241
0.1865	-50.2533
0.187	-40.78674
0.1875	-32.7301
0.188	-24.27063
0.1885	-22.45789
0.189	-7.04956
0.1895	9.26514
0.19	12.48779
0.1905	14.80408
0.191	11.88354
0.1915	2.92053
0.192	-6.64673
0.1925	-9.76868
0.193	-17.32178
0.1935	-22.55859
0.194	-21.14868
0.1945	-19.63806
0.195	-15.81116
0.1955	-20.24231
0.196	-14.70337
0.1965	-4.43115
0.197	-3.02124
0.1975	6.74744
0.198	12.48779
0.1985	18.02673
0.199	20.74585
0.1995	16.11328
0.2	17.82532
0.2005	17.52319
0.201	20.84656
0.2015	22.35718
0.202	18.02673
0.2025	30.51453
0.203	34.24072
0.2035	45.62073
0.204	46.12427
0.2045	45.72144
0.205	42.39807
0.2055	53.07312
0.206	93.85986
0.2065	123.97156
0.207	127.19421
0.2075	116.51917
0.208	102.52075
0.2085	79.45862
0.209	48.84338
0.2095	17.22107
0.21	-6.2439
0.2105	-12.28638
0.211	-26.3855
0.2115	-32.83081
0.212	-33.13293
0.2125	-35.2478
0.213	-37.16125
0.2135	-49.74976
0.214	-49.54834
0.2145	-31.11877
0.215	-16.41541
0.2155	-14.60266
0.216	-11.98425
0.2165	-3.62549
0.217	2.71912
0.2175	3.92761
0.218	7.85522
0.2185	13.29346
0.219	23.06213
0.2195	23.8678
0.22	20.24231
0.2205	12.89062
0.221	5.43823
0.2215	1.10779
0.222	-7.04956
0.2225	-11.2793
0.223	-11.17859
0.2235	-15.81116
0.224	-19.94019
0.2245	-1.91345
0.225	22.76001
0.2255	43.30444
0.226	52.56958
0.2265	49.44763
0.227	42.7002
0.2275	40.58533
0.228	32.42798
0.2285	26.78833
0.229	15.71045
0.2295	3.7262
0.23	-8.56018
0.2305	-22.96143
0.231	-27.59399
0.2315	-25.07629
0.232	-25.47913
0.2325	-28.60107
0.233	-10.17151
0.2335	5.74036
0.234	10.27222
0.2345	20.44373
0.235	22.15576
0.2355	19.23523
0.236	9.97009
0.2365	4.33044
0.237	1.10779
0.2375	21.3501
0.238	41.29028
0.2385	44.21082
0.239	38.77258
0.2395	13.99841
0.24	-4.53186
0.2405	-28.29895
0.241	-43.50586
0.2415	-57.70569
0.242	-69.08569
0.2425	-78.85437
0.243	-88.11951
0.2435	-82.27844
0.244	-69.38782
0.2445	-52.36816
0.245	-29.80957
0.2455	-21.24939
0.246	-8.35876
0.2465	14.30054
0.247	43.10303
0.2475	47.53418
0.248	46.72852
0.2485	36.35559
0.249	31.32019
0.2495	28.39966
0.25	25.68054
0.2505	22.15576
0.251	35.14709
0.2515	57.20215
0.252	83.78906
0.2525	97.38464
0.253	98.59314
0.2535	86.50818
0.254	66.16516
0.2545	49.44763
0.255	31.32019
0.2555	10.97717
0.256	-4.93469
0.2565	-16.21399
0.257	-35.2478
0.2575	-43.00232
0.258	-52.67029
0.2585	-59.51843
0.259	-54.18091
0.2595	-11.68213
0.26	18.63098
0.2605	42.19666
0.261	61.73401
0.2615	69.38782
0.262	68.58215
0.2625	51.5625
0.263	28.19824
0.2635	12.78992
0.264	-12.89062
0.2645	-29.91028
0.265	-43.10303
0.2655	-43.60657
0.266	4.33044
0.2665	48.74268
0.267	55.99365
0.2675	43.30444
0.268	28.29895
0.2685	8.15735
0.269	-16.41541
0.2695	-37.96692
0.27	-34.14001
0.2705	-22.86072
0.271	-25.68054
0.2715	-34.64355
0.272	-52.8717
0.2725	-67.67578
0.273	-74.12109
0.2735	-71.90552
0.274	-68.17932
0.2745	-72.9126
0.275	-67.17224
0.2755	-59.92126
0.276	-35.44922
0.2765	28.29895
0.277	78.04871
0.2775	105.94482
0.278	103.125
0.2785	91.745
0.279	73.71826
0.2795	49.85046
0.28	26.78833
0.2805	4.22974
0.281	-4.53186
0.2815	-18.63098
0.282	-28.09753
0.2825	-35.65063
0.283	-38.06763
0.2835	-35.75134
0.284	-40.38391
0.2845	-31.82373
0.285	-21.24939
0.2855	4.02832
0.286	44.61365
0.2865	67.07153
0.287	66.97083
0.2875	65.3595
0.288	54.48303
0.2885	53.57666
0.289	37.46338
0.2895	23.96851
0.29	4.73328
0.2905	-10.97717
0.291	-23.76709
0.2915	-35.54993
0.292	-37.66479
0.2925	-33.9386
0.293	-20.84656
0.2935	-18.42957
0.294	-15.20691
0.2945	-13.69629
0.295	-18.22815
0.2955	-24.06921
0.296	-15.81116
0.2965	-12.5885
0.297	-6.74744
0.2975	-2.71912
0.298	0
0.2985	4.22974
0.299	9.66797
0.2995	3.8269
0.3	8.15735
0.3005	11.98425
0.301	21.24939
0.3015	24.37134
0.302	17.92603
0.3025	13.59558
0.303	16.51611
0.3035	46.12427
0.304	71.7041
0.3045	89.12659
0.305	78.25012
0.3055	61.33118
0.306	40.2832
0.3065	11.38
0.307	-16.81824
0.3075	-29.40674
0.308	-46.02356
0.3085	-54.48303
0.309	-57.50427
0.3095	-48.84338
0.31	-33.63647
0.3105	-23.06213
0.311	-15.50903
0.3115	-10.57434
0.312	-3.22266
0.3125	3.7262
0.313	7.15027
0.3135	5.43823
0.314	31.62231
0.3145	44.51294
0.315	51.46179
0.3155	76.03455
0.316	128.50342
0.3165	158.21228
0.317	180.36804
0.3175	179.66309
0.318	152.97546
0.3185	122.96448
0.319	112.59155
0.3195	83.08411
0.32	36.05347
0.3205	-3.7262
0.321	-50.45471
0.3215	-93.45703
0.322	-130.01404
0.3225	-151.86768
0.323	-159.32007
0.3235	-158.11157
0.324	-152.67334
0.3245	-143.10608
0.325	-137.86926
0.3255	-122.36023
0.326	-104.4342
0.3265	-84.39331
0.327	-60.62622
0.3275	-39.57825
0.328	-27.39258
0.3285	-16.01257
0.329	-1.00708
0.3295	10.87646
0.33	5.33752
0.3305	7.35168
0.331	14.70337
0.3315	20.44373
0.332	21.3501
0.3325	30.31311
0.333	29.00391
0.3335	24.27063
0.334	21.75293
0.3345	16.21399
0.335	17.6239
0.3355	15.50903
0.336	3.42407
0.3365	2.11487
0.337	3.7262
0.3375	7.5531
0.338	16.91895
0.3385	19.53735
0.339	19.23523
0.3395	6.54602
0.34	2.21558
0.3405	-6.94885
0.341	-8.66089
0.3415	-5.53894
0.342	2.31628
0.3425	7.25098
0.343	4.43115
0.3435	-0.90637
0.344	-3.92761
0.3445	-2.31628
0.345	8.8623
0.3455	14.50195
0.346	15.81116
0.3465	18.42957
0.347	22.45789
0.3475	26.08337
0.348	27.79541
0.3485	41.29028
0.349	55.59082
0.3495	64.65454
0.35	79.35791
0.3505	88.62305
0.351	98.79456
0.3515	90.23438
0.352	83.88977
0.3525	74.62463
0.353	59.21631
0.3535	40.58533
0.354	26.48621
0.3545	16.91895
0.355	-5.13611
0.3555	-15.40833
0.356	-30.51453
0.3565	-28.60107
0.357	-39.37683
0.3575	-29.40674
0.358	-30.2124
0.3585	-37.66479
0.359	-42.19666
0.3595	-28.9032
0.36	-8.96301
0.3605	25.57983
0.361	47.03064
0.3615	55.2887
0.362	44.51294
0.3625	38.67188
0.363	33.13293
0.3635	16.21399
0.364	9.26514
0.3645	6.64673
0.365	-0.50354
0.3655	-5.23682
0.366	-10.97717
0.3665	-16.61682
0.367	-11.88354
0.3675	-7.25098
0.368	-10.17151
0.3685	-11.17859
0.369	-8.56018
0.3695	24.37134
0.37	46.5271
0.3705	56.29578
0.371	49.34692
0.3715	41.59241
0.372	27.29187
0.3725	-2.31628
0.373	-32.42798
0.3735	-42.09595
0.374	-42.90161
0.3745	-32.83081
0.375	-30.11169
0.3755	-35.04639
0.376	-31.52161
0.3765	-27.39258
0.377	-30.91736
0.3775	-37.96692
0.378	-38.67188
0.3785	-26.08337
0.379	-13.99841
0.3795	-3.7262
0.38	1.51062
0.3805	-5.43823
0.381	-6.84814
0.3815	-7.15027
0.382	-13.49487
0.3825	-13.29346
0.383	-9.06372
0.3835	-3.8269
0.384	7.5531
0.3845	11.17859
0.385	12.08496
0.3855	15.00549
0.386	18.22815
0.3865	19.53735
0.387	14.09912
0.3875	11.17859
0.388	7.04956
0.3885	6.94885
0.389	4.73328
0.3895	3.7262
0.39	-3.12195
0.3905	-8.05664
0.391	7.45239
0.3915	35.04639
0.392	70.29419
0.3925	93.35632
0.393	107.15332
0.3935	108.1604
0.394	94.3634
0.3945	72.20764
0.395	47.53418
0.3955	24.67346
0.396	5.23682
0.3965	-11.58142
0.397	-17.01965
0.3975	-30.81665
0.398	-40.98816
0.3985	-36.15417
0.399	-11.98425
0.3995	14.80408
0.4	32.22656
0.4005	55.49011
0.401	68.98499
0.4015	68.48145
0.402	62.53967
0.4025	44.41223
0.403	26.58691
0.4035	-0.50354
0.404	-18.12744
0.4045	-38.06763
0.405	-53.07312
0.4055	-51.66321
0.406	-21.75293
0.4065	45.01648
0.407	88.92517
0.4075	96.67969
0.408	85.80322
0.4085	76.7395
0.409	52.8717
0.4095	28.60107
0.41	0.40283
0.4105	-25.98267
0.411	-60.62622
0.4115	-64.75525
0.412	-56.09436
0.4125	-52.16675
0.413	-43.60657
0.4135	-44.51294
0.414	-45.82214
0.4145	-57.60498
0.415	-69.08569
0.4155	-72.9126
0.416	-75.83313
0.4165	-70.09277
0.417	-70.19348
0.4175	-66.26587
0.418	-70.29419
0.4185	-72.50977
0.419	-59.31702
0.4195	-36.25488
0.42	-17.72461
0.4205	-20.74585
0.421	-9.46655
0.4215	7.85522
0.422	16.81824
0.4225	28.09753
0.423	33.63647
0.4235	30.91736
0.424	20.64514
0.4245	19.83948
0.425	13.39417
0.4255	9.26514
0.426	3.42407
0.4265	0.10071
0.427	8.45947
0.4275	15.71045
0.428	15.91187
0.4285	24.27063
0.429	27.59399
0.4295	29.60815
0.43	27.29187
0.4305	22.45789
0.431	19.83948
0.4315	15.50903
0.432	10.77576
0.4325	12.78992
0.433	13.39417
0.4335	21.65222
0.434	47.03064
0.4345	87.81738
0.435	146.12732
0.4355	181.37512
0.436	188.12256
0.4365	167.77954
0.437	138.67493
0.4375	111.08093
0.438	80.16357
0.4385	49.0448
0.439	11.88354
0.4395	-23.56567
0.44	-46.02356
0.4405	-47.93701
0.441	-25.88196
0.4415	-3.02124
0.442	-0.90637
0.4425	-5.53894
0.443	-6.14319
0.4435	-12.38708
0.444	-38.36975
0.4445	-56.79932
0.445	-74.32251
0.4455	-76.7395
0.446	-86.60889
0.4465	-80.56641
0.447	-94.2627
0.4475	-96.07544
0.448	-87.01172
0.4485	-41.29028
0.449	-14.19983
0.4495	-1.71204
0.45	-1.91345
0.4505	2.81982
0.451	18.63098
0.4515	21.95435
0.452	18.22815
0.4525	8.35876
0.453	-10.67505
0.4535	-26.3855
0.454	-34.44214
0.4545	-49.34692
0.455	-46.42639
0.4555	-42.8009
0.456	-34.44214
0.4565	-26.48621
0.457	-13.29346
0.4575	-4.73328
0.458	11.58142
0.4585	32.42798
0.459	39.67896
0.4595	41.79382
0.46	51.66321
0.4605	49.54834
0.461	48.64197
0.4615	43.60657
0.462	42.39807
0.4625	35.65063
0.463	30.31311
0.4635	16.21399
0.464	12.89062
0.4645	0.90637
0.465	-7.45239
0.4655	-19.23523
0.466	7.65381
0.4665	34.03931
0.467	49.24622
0.4675	61.73401
0.468	60.72693
0.4685	53.67737
0.469	44.21082
0.4695	26.68762
0.47	17.42249
0.4705	8.96301
0.471	-0.60425
0.4715	-10.47363
0.472	-17.12036
0.4725	-26.48621
0.473	-21.55151
0.4735	-0.80566
0.474	29.80957
0.4745	51.66321
0.475	52.26746
0.4755	56.19507
0.476	68.98499
0.4765	69.79065
0.477	65.76233
0.4775	51.5625
0.478	27.39258
0.4785	21.95435
0.479	27.59399
0.4795	35.44922
0.48	27.79541
0.4805	17.22107
0.481	2.61841
0.4815	-9.46655
0.482	-21.55151
0.4825	-35.44922
0.483	-44.41223
0.4835	-39.67896
0.484	-34.24072
0.4845	-29.70886
0.485	-37.26196
0.4855	-47.63489
0.486	-54.0802
0.4865	-58.51135
0.487	-54.38232
0.4875	-55.59082
0.488	-60.62622
0.4885	-58.71277
0.489	-58.51135
0.4895	-45.92285
0.49	-41.89453
0.4905	-32.32727
0.491	-28.09753
0.4915	-23.36426
0.492	-27.6947
0.4925	-21.75293
0.493	-14.19983
0.4935	-13.59558
0.494	-0.20142
0.4945	15.00549
0.495	32.62939
0.4955	45.62073
0.496	49.14551
0.4965	55.2887
0.497	58.30994
0.4975	50.2533
0.498	50.05188
0.4985	45.52002
0.499	51.15967
0.4995	56.49719
0.5	49.34692
0.5005	47.63489
0.501	50.55542
0.5015	49.14551
0.502	51.15967
0.5025	40.88745
0.503	28.60107
0.5035	19.53735
0.504	9.36584
0.5045	3.32336
0.505	-10.0708
0.5055	-3.42407
0.506	25.88196
0.5065	50.15259
0.507	50.2533
0.5075	39.57825
0.508	23.96851
0.5085	3.62549
0.509	-12.08496
0.5095	-34.44214
0.51	-59.82056
0.5105	-75.32959
0.511	-85.5011
0.5115	-87.41455
0.512	-73.71826
0.5125	-44.61365
0.513	-8.56018
0.5135	13.59558
0.514	24.97559
0.5145	28.50037
0.515	28.09753
0.5155	25.27771
0.516	18.02673
0.5165	11.07788
0.517	14.19983
0.5175	17.92603
0.518	17.42249
0.5185	15.81116
0.519	6.64673
0.5195	1.91345
0.52	1.2085
0.5205	-3.92761
0.521	-2.92053
0.5215	-4.33044
0.522	-3.62549
0.5225	-7.65381
0.523	-9.76868
0.5235	-3.12195
0.524	4.02832
0.5245	14.90479
0.525	13.09204
0.5255	15.1062
0.526	14.09912
0.5265	19.73877
0.527	18.32886
0.5275	9.36584
0.528	-0.80566
0.5285	-0.50354
0.529	5.74036
0.5295	11.78284
0.53	17.82532
0.5305	16.71753
0.531	26.48621
0.5315	26.98975
0.532	33.33435
0.5325	20.44373
0.533	21.14868
0.5335	20.74585
0.534	24.77417
0.5345	16.3147
0.535	8.25806
0.5355	6.04248
0.536	5.94177
0.5365	3.92761
0.537	3.8269
0.5375	-1.00708
0.538	-1.2085
0.5385	-8.05664
0.539	-9.97009
0.5395	-10.77576
0.54	-3.42407
0.5405	4.93469
0.541	28.39966
0.5415	39.77966
0.542	48.44055
0.5425	43.30444
0.543	56.90002
0.5435	70.49561
0.544	98.29102
0.5445	132.22961
0.545	132.22961
0.5455	111.28235
0.546	77.34375
0.5465	46.82922
0.547	24.06921
0.5475	1.3092
0.548	-31.92444
0.5485	-49.34692
0.549	-70.09277
0.5495	-81.37207
0.55	-81.06995
0.5505	-89.02588
0.551	-82.58057
0.5515	-75.53101
0.552	-68.88428
0.5525	-64.45312
0.553	-59.41772
0.5535	-71.30127
0.554	-59.41772
0.5545	-39.37683
0.555	-11.17859
0.5555	13.29346
0.556	19.83948
0.5565	24.47205
0.557	27.6947
0.5575	26.58691
0.558	18.53027
0.5585	-0.30212
0.559	-21.04797
0.5595	-36.85913
0.56	-39.98108
0.5605	-48.44055
0.561	-47.13135
0.5615	-45.82214
0.562	-42.49878
0.5625	-32.02515
0.563	-28.29895
0.5635	-28.60107
0.564	-10.0708
0.5645	9.97009
0.565	55.18799
0.5655	104.83704
0.566	134.84802
0.5665	128.60413
0.567	126.69067
0.5675	131.52466
0.568	125.18005
0.5685	98.39172
0.569	70.69702
0.5695	34.94568
0.57	9.36584
0.5705	-1.61133
0.571	-12.89062
0.5715	-23.06213
0.572	-33.33435
0.5725	-38.26904
0.573	-44.11011
0.5735	-45.62073
0.574	-27.59399
0.5745	-2.81982
0.575	23.46497
0.5755	53.07312
0.576	66.56799
0.5765	63.24463
0.577	44.71436
0.5775	27.99683
0.578	8.56018
0.5785	-5.0354
0.579	-21.24939
0.5795	-32.02515
0.58	-53.27454
0.5805	-60.92834
0.581	-61.23047
0.5815	-60.52551
0.582	-45.41931
0.5825	-30.01099
0.583	-20.54443
0.5835	-19.33594
0.584	-27.19116
0.5845	-29.20532
0.585	-35.65063
0.5855	-41.39099
0.586	-27.89612
0.5865	-0.60425
0.587	47.63489
0.5875	76.33667
0.588	99.70093
0.5885	109.26819
0.589	105.6427
0.5895	82.88269
0.59	61.02905
0.5905	35.34851
0.591	29.30603
0.5915	13.39417
0.592	-9.36584
0.5925	-30.41382
0.593	-59.21631
0.5935	-74.32251
0.594	-82.9834
0.5945	-83.99048
0.595	-83.99048
0.5955	-71.50269
0.596	-65.05737
0.5965	-41.99524
0.597	-19.73877
0.5975	-10.0708
0.598	3.32336
0.5985	8.66089
0.599	14.50195
0.5995	19.03381
0.6	13.797
0.6005	13.09204
0.601	4.83398
0.6015	9.86938
0.602	11.98425
0.6025	17.52319
0.603	15.00549
0.6035	7.95593
0.604	3.8269
0.6045	1.71204
0.605	1.2085
0.6055	1.2085
0.606	7.15027
0.6065	7.65381
0.607	22.15576
0.6075	48.03772
0.608	63.64746
0.6085	73.51685
0.609	77.54517
0.6095	66.26587
0.61	47.8363
0.6105	36.75842
0.611	27.39258
0.6115	11.78284
0.612	-0.10071
0.6125	-5.84106
0.613	-25.57983
0.6135	-31.92444
0.614	-37.46338
0.6145	-34.03931
0.615	-43.20374
0.6155	-47.7356
0.616	-49.64905
0.6165	-41.99524
0.617	-34.54285
0.6175	-29.20532
0.618	-15.50903
0.6185	0
0.619	12.68921
0.6195	21.3501
0.62	14.80408
0.6205	11.38
0.621	17.42249
0.6215	23.06213
0.622	16.11328
0.6225	13.39417
0.623	2.71912
0.6235	-0.40283
0.624	22.05505
0.6245	31.92444
0.625	38.36975
0.6255	37.26196
0.626	38.26904
0.6265	33.73718
0.627	20.54443
0.6275	23.06213
0.628	32.83081
0.6285	51.76392
0.629	68.38074
0.6295	73.11401
0.63	65.56091
0.6305	63.94958
0.631	60.62622
0.6315	43.90869
0.632	34.34143
0.6325	19.94019
0.633	-5.43823
0.6335	-22.15576
0.634	-47.8363
0.6345	-55.18799
0.635	-52.56958
0.6355	-59.61914
0.636	-56.90002
0.6365	-52.06604
0.637	-48.33984
0.6375	-31.52161
0.638	-23.16284
0.6385	-16.11328
0.639	-4.63257
0.6395	3.52478
0.64	9.36584
0.6405	10.57434
0.641	35.14709
0.6415	50.15259
0.642	56.09436
0.6425	53.77808
0.643	53.67737
0.6435	39.98108
0.644	31.92444
0.6445	27.39258
0.645	15.71045
0.6455	6.64673
0.646	5.94177
0.6465	27.39258
0.647	46.02356
0.6475	51.46179
0.648	38.36975
0.6485	27.6947
0.649	10.57434
0.6495	-9.06372
0.65	-22.6593
0.6505	-30.2124
0.651	13.19275
0.6515	76.53809
0.652	105.23987
0.6525	108.46252
0.653	115.10925
0.6535	107.45544
0.654	84.49402
0.6545	70.69702
0.655	49.14551
0.6555	22.96143
0.656	-5.0354
0.6565	-29.40674
0.657	-54.28162
0.6575	-76.7395
0.658	-87.61597
0.6585	-84.2926
0.659	-92.14783
0.6595	-95.47119
0.66	-88.42163
0.6605	-74.92676
0.661	-59.41772
0.6615	-52.36816
0.662	-47.63489
0.6625	-20.54443
0.663	4.93469
0.6635	23.26355
0.664	25.68054
0.6645	29.50745
0.665	18.63098
0.6655	-0.50354
0.666	-4.93469
0.6665	-13.09204
0.667	-16.11328
0.6675	-15.00549
0.668	-16.21399
0.6685	-11.38
0.669	-6.14319
0.6695	-2.21558
0.67	-1.00708
0.6705	5.13611
0.671	10.47363
0.6715	16.01257
0.672	7.5531
0.6725	15.00549
0.673	43.70728
0.6735	46.12427
0.674	47.23206
0.6745	46.12427
0.675	34.94568
0.6755	21.55151
0.676	8.96301
0.6765	-2.01416
0.677	-14.70337
0.6775	-25.177
0.678	-26.48621
0.6785	-10.37292
0.679	17.82532
0.6795	17.32178
0.68	10.37292
0.6805	2.92053
0.681	-2.41699
0.6815	-15.71045
0.682	-23.76709
0.6825	-28.09753
0.683	-23.06213
0.6835	-26.28479
0.684	-26.08337
0.6845	-22.76001
0.685	-16.81824
0.6855	-21.75293
0.686	-22.45789
0.6865	-16.91895
0.687	-8.7616
0.6875	-6.3446
0.688	2.21558
0.6885	7.45239
0.689	11.68213
0.6895	25.88196
0.69	41.39099
0.6905	64.95667
0.691	83.18481
0.6915	94.2627
0.692	94.2627
0.6925	87.01172
0.693	77.34375
0.6935	62.43896
0.694	43.30444
0.6945	26.28479
0.695	6.94885
0.6955	-8.56018
0.696	-28.70178
0.6965	-38.16833
0.697	-36.55701
0.6975	-35.54993
0.698	-31.32019
0.6985	-35.85205
0.699	-31.4209
0.6995	-23.56567
0.7	-18.63098
0.7005	-7.85522
0.701	-0.40283
0.7015	5.43823
0.702	11.68213
0.7025	10.87646
0.703	3.7262
0.7035	9.36584
0.704	16.01257
0.7045	21.24939
0.705	16.51611
0.7055	9.56726
0.706	-6.84814
0.7065	-7.15027
0.707	-8.56018
0.7075	-1.91345
0.708	17.32178
0.7085	65.46021
0.709	100.30518
0.7095	101.71509
0.71	83.08411
0.7105	63.44604
0.711	24.57275
0.7115	-4.93469
0.712	-41.79382
0.7125	-62.43896
0.713	-68.07861
0.7135	-77.64587
0.714	-82.68127
0.7145	-86.00464
0.715	-78.45154
0.7155	-73.51685
0.716	-68.38074
0.7165	-51.36108
0.717	-36.25488
0.7175	-26.08337
0.718	-17.42249
0.7185	-14.50195
0.719	-7.25098
0.7195	31.11877
0.72	60.82764
0.7205	69.28711
0.721	55.69153
0.7215	39.07471
0.722	38.974
0.7225	48.94409
0.723	53.17383
0.7235	66.26587
0.724	64.45312
0.7245	54.28162
0.725	44.61365
0.7255	22.35718
0.726	3.12195
0.7265	-18.63098
0.727	-26.28479
0.7275	-40.68604
0.728	-49.64905
0.7285	-51.05896
0.729	-48.33984
0.7295	-46.72852
0.73	-45.11719
0.7305	-42.39807
0.731	-29.50745
0.7315	-27.19116
0.732	-28.50037
0.7325	-31.62231
0.733	-32.32727
0.7335	-35.14709
0.734	-30.2124
0.7345	-16.61682
0.735	11.68213
0.7355	28.80249
0.736	48.03772
0.7365	52.97241
0.737	50.45471
0.7375	63.94958
0.738	66.06445
0.7385	61.02905
0.739	50.75684
0.7395	37.46338
0.74	30.81665
0.7405	39.07471
0.741	43.80798
0.7415	40.08179
0.742	45.01648
0.7425	35.34851
0.743	17.92603
0.7435	8.8623
0.744	23.8678
0.7445	31.21948
0.745	33.43506
0.7455	23.36426
0.746	11.68213
0.7465	2.61841
0.747	-13.99841
0.7475	-31.52161
0.748	-47.13135
0.7485	-54.28162
0.749	-70.3949
0.7495	-78.14941
0.75	-77.14233
0.7505	-68.28003
0.751	-46.22498
0.7515	-23.36426
0.752	-2.5177
0.7525	13.99841
0.753	19.03381
0.7535	15.71045
0.754	4.63257
0.7545	0
0.755	-1.10779
0.7555	-9.97009
0.756	-9.86938
0.7565	-0.60425
0.757	-11.98425
0.7575	-10.67505
0.758	-10.47363
0.7585	-13.99841
0.759	-7.5531
0.7595	-1.91345
0.76	9.97009
0.7605	16.11328
0.761	16.81824
0.7615	10.47363
0.762	11.98425
0.7625	15.00549
0.763	20.64514
0.7635	22.05505
0.764	12.68921
0.7645	7.65381
0.765	8.8623
0.7655	3.12195
0.766	-8.35876
0.7665	0.40283
0.767	21.65222
0.7675	31.11877
0.768	26.3855
0.7685	26.28479
0.769	53.97949
0.7695	67.97791
0.77	69.68994
0.7705	61.83472
0.771	49.85046
0.7715	42.29736
0.772	30.51453
0.7725	18.93311
0.773	8.05664
0.7735	-6.14319
0.774	-17.42249
0.7745	-26.28479
0.775	-24.57275
0.7755	-28.19824
0.776	-26.18408
0.7765	-13.09204
0.777	16.3147
0.7775	43.10303
0.778	50.75684
0.7785	42.90161
0.779	29.70886
0.7795	20.74585
0.78	9.86938
0.7805	-1.2085
0.781	-16.01257
0.7815	-31.52161
0.782	-18.53027
0.7825	-10.87646
0.783	7.65381
0.7835	11.68213
0.784	17.01965
0.7845	11.2793
0.785	9.26514
0.7855	2.31628
0.786	1.81274
0.7865	16.61682
0.787	21.3501
0.7875	18.02673
0.788	6.44531
0.7885	-11.48071
0.789	-23.16284
0.7895	-37.46338
0.79	-52.06604
0.7905	-63.04321
0.791	-59.61914
0.7915	-67.57507
0.792	-65.66162
0.7925	-63.44604
0.793	-54.58374
0.7935	-43.60657
0.794	-26.58691
0.7945	-20.44373
0.795	-22.86072
0.7955	-19.43665
0.796	-11.17859
0.7965	-5.43823
0.797	-3.62549
0.7975	-6.94885
0.798	-10.27222
0.7985	-4.53186
0.799	-3.12195
0.7995	2.92053
0.8	5.63965
0.8005	12.18567
0.801	22.6593
0.8015	28.70178
0.802	33.23364
0.8025	50.65613
0.803	76.84021
0.8035	100.40588
0.804	98.19031
0.8045	101.41296
0.805	97.08252
0.8055	84.99756
0.806	63.84888
0.8065	40.98816
0.807	21.24939
0.8075	6.3446
0.808	-5.13611
0.8085	-12.78992
0.809	-16.61682
0.8095	-22.45789
0.81	-25.88196
0.8105	-22.96143
0.811	-34.64355
0.8115	-30.11169
0.812	-6.2439
0.8125	10.67505
0.813	10.97717
0.8135	9.97009
0.814	4.73328
0.8145	-1.2085
0.815	-6.44531
0.8155	-6.74744
0.816	-4.93469
0.8165	-12.99133
0.817	-18.02673
0.8175	-16.81824
0.818	-12.5885
0.8185	-1.81274
0.819	3.42407
0.8195	11.98425
0.82	35.65063
0.8205	45.72144
0.821	51.15967
0.8215	35.34851
0.822	21.14868
0.8225	9.56726
0.823	-3.42407
0.8235	-16.01257
0.824	-26.78833
0.8245	-29.00391
0.825	-43.30444
0.8255	-45.82214
0.826	-31.82373
0.8265	1.40991
0.827	25.57983
0.8275	39.47754
0.828	37.66479
0.8285	43.60657
0.829	42.8009
0.8295	43.40515
0.83	42.19666
0.8305	38.16833
0.831	34.84497
0.8315	25.07629
0.832	17.92603
0.8325	18.02673
0.833	7.75452
0.8335	8.8623
0.834	8.05664
0.8345	7.35168
0.835	8.7616
0.8355	-5.84106
0.836	-19.63806
0.8365	-20.44373
0.837	-6.2439
0.8375	24.27063
0.838	44.61365
0.8385	44.61365
0.839	72.61047
0.8395	91.44287
0.84	93.15491
0.8405	75.4303
0.841	62.8418
0.8415	45.92285
0.842	18.12744
0.8425	-15.30762
0.843	-38.974
0.8435	-63.04321
0.844	-80.56641
0.8445	-93.25562
0.845	-96.67969
0.8455	-91.34216
0.846	-80.16357
0.8465	-64.85596
0.847	-47.53418
0.8475	-27.99683
0.848	-18.53027
0.8485	-6.74744
0.849	5.13611
0.8495	8.7616
0.85	11.17859
0.8505	11.78284
0.851	9.97009
0.8515	9.86938
0.852	3.7262
0.8525	-4.02832
0.853	-14.50195
0.8535	-24.77417
0.854	-16.71753
0.8545	-13.49487
0.855	-4.63257
0.8555	8.66089
0.856	4.02832
0.8565	-3.42407
0.857	-8.66089
0.8575	-16.41541
0.858	-3.92761
0.8585	3.62549
0.859	15.1062
0.8595	30.01099
0.86	57.9071
0.8605	85.09827
0.861	91.94641
0.8615	82.88269
0.862	68.48145
0.8625	44.61365
0.863	30.11169
0.8635	12.5885
0.864	-2.81982
0.8645	-12.28638
0.865	-25.177
0.8655	-24.57275
0.866	-10.67505
0.8665	17.12036
0.867	48.13843
0.8675	63.04321
0.868	58.91418
0.8685	46.92993
0.869	33.53577
0.8695	12.68921
0.87	-7.04956
0.8705	-19.33594
0.871	-12.48779
0.8715	-3.7262
0.872	-11.68213
0.8725	-19.13452
0.873	-17.22107
0.8735	-13.99841
0.874	-16.21399
0.8745	-13.19275
0.875	-18.02673
0.8755	-21.04797
0.876	9.76868
0.8765	17.72461
0.877	10.0708
0.8775	6.94885
0.878	6.84814
0.8785	-2.71912
0.879	-3.02124
0.8795	-17.72461
0.88	-19.73877
0.8805	-20.44373
0.881	-20.94727
0.8815	-20.54443
0.882	-16.3147
0.8825	-13.59558
0.883	-7.04956
0.8835	-1.61133
0.884	3.32336
0.8845	1.2085
0.885	4.93469
0.8855	1.2085
0.886	-3.12195
0.8865	-4.22974
0.887	-9.16443
0.8875	-9.76868
0.888	-8.25806
0.8885	-7.04956
0.889	-1.61133
0.8895	-3.32336
0.89	-4.83398
0.8905	-7.25098
0.891	-17.6239
0.8915	-11.48071
0.892	-15.40833
0.8925	0
0.893	25.78125
0.8935	52.26746
0.894	61.12976
0.8945	54.28162
0.895	59.21631
0.8955	79.55933
0.896	103.82996
0.8965	112.99438
0.897	117.52625
0.8975	123.77014
0.898	113.49792
0.8985	89.02588
0.899	66.26587
0.8995	43.50586
0.9	10.47363
0.9005	-16.91895
0.901	-34.44214
0.9015	-44.71436
0.902	-54.18091
0.9025	-60.52551
0.903	-65.3595
0.9035	-60.92834
0.904	-52.8717
0.9045	-36.35559
0.905	-16.3147
0.9055	7.04956
0.906	13.19275
0.9065	29.91028
0.907	40.88745
0.9075	36.75842
0.908	26.08337
0.9085	16.11328
0.909	5.84106
0.9095	-13.19275
0.91	-33.03223
0.9105	-46.92993
0.911	-61.33118
0.9115	-64.65454
0.912	-48.84338
0.9125	-19.43665
0.913	6.04248
0.9135	19.63806
0.914	36.95984
0.9145	38.974
0.915	30.01099
0.9155	17.12036
0.916	1.91345
0.9165	-9.36584
0.917	-24.06921
0.9175	-30.81665
0.918	-33.63647
0.9185	-34.24072
0.919	-32.22656
0.9195	-28.60107
0.92	-23.66638
0.9205	-21.45081
0.921	-13.49487
0.9215	6.04248
0.922	39.17542
0.9225	47.43347
0.923	52.36816
0.9235	56.19507
0.924	47.7356
0.9245	70.29419
0.925	87.71667
0.9255	80.36499
0.926	65.15808
0.9265	47.13135
0.927	47.7356
0.9275	44.61365
0.928	52.26746
0.9285	49.24622
0.929	43.70728
0.9295	28.70178
0.93	9.16443
0.9305	-10.97717
0.931	-18.53027
0.9315	-43.20374
0.932	-52.67029
0.9325	-56.39648
0.933	-57.60498
0.9335	-69.79065
0.934	-74.82605
0.9345	-74.72534
0.935	-78.65295
0.9355	-80.96924
0.936	-59.82056
0.9365	-41.08887
0.937	-28.80249
0.9375	-11.78284
0.938	1.51062
0.9385	2.11487
0.939	4.93469
0.9395	7.45239
0.94	8.7616
0.9405	2.61841
0.941	6.2439
0.9415	17.12036
0.942	34.34143
0.9425	44.61365
0.943	41.79382
0.9435	41.08887
0.944	38.57117
0.9445	28.39966
0.945	13.59558
0.9455	-4.22974
0.946	-9.56726
0.9465	-15.30762
0.947	-18.32886
0.9475	-24.47205
0.948	-29.30603
0.9485	-28.39966
0.949	-15.71045
0.9495	-2.92053
0.95	4.93469
0.9505	11.78284
0.951	21.24939
0.9515	33.63647
0.952	47.33276
0.9525	57.8064
0.953	65.25879
0.9535	67.77649
0.954	61.33118
0.9545	50.85754
0.955	46.32568
0.9555	45.72144
0.956	41.59241
0.9565	49.44763
0.957	87.61597
0.9575	107.95898
0.958	104.83704
0.9585	89.83154
0.959	57.50427
0.9595	23.16284
0.96	-4.83398
0.9605	-8.05664
0.961	-1.3092
0.9615	3.8269
0.962	1.91345
0.9625	-6.14319
0.963	-19.33594
0.9635	-26.98975
0.964	-23.16284
0.9645	-22.05505
0.965	-8.66089
0.9655	-4.43115
0.966	-4.73328
0.9665	-20.94727
0.967	-39.67896
0.9675	-51.5625
0.968	-51.76392
0.9685	-48.54126
0.969	-53.17383
0.9695	-52.771
0.97	-53.37524
0.9705	-54.88586
0.971	-48.03772
0.9715	-26.58691
0.972	-18.8324
0.9725	-14.09912
0.973	-18.02673
0.9735	-15.91187
0.974	-8.25806
0.9745	8.66089
0.975	15.71045
0.9755	22.55859
0.976	24.37134
0.9765	40.98816
0.977	64.151
0.9775	90.63721
0.978	98.19031
0.9785	89.42871
0.979	64.35242
0.9795	41.89453
0.98	14.70337
0.9805	-0.50354
0.981	3.32336
0.9815	10.77576
0.982	5.13611
0.9825	-10.17151
0.983	-21.75293
0.9835	-29.60815
0.984	-43.40515
0.9845	-33.33435
0.985	-3.7262
0.9855	13.19275
0.986	25.177
0.9865	22.55859
0.987	23.56567
0.9875	10.37292
0.988	6.94885
0.9885	2.71912
0.989	-12.28638
0.9895	-18.12744
0.99	-30.31311
0.9905	-36.55701
0.991	-35.75134
0.9915	-41.99524
0.992	-38.974
0.9925	-35.2478
0.993	-33.23364
0.9935	-22.86072
0.994	-15.71045
0.9945	-13.39417
0.995	-5.13611
0.9955	-4.63257
0.996	-3.8269
0.9965	-7.75452
0.997	-12.38708
0.9975	-16.3147
0.998	-2.81982
0.9985	11.78284
0.999	10.57434
0.9995	14.40125
1	13.69629
1.0005	26.68762
1.001	31.72302
1.0015	32.12585
1.002	31.01807
1.0025	37.06055
1.003	38.87329
1.0035	37.56409
1.004	28.60107
1.0045	25.47913
1.005	18.8324
1.0055	9.46655
1.006	-1.91345
1.0065	-2.21558
1.007	-11.98425
1.0075	-17.22107
1.008	-13.09204
1.0085	3.62549
1.009	7.04956
1.0095	12.5885
1.01	12.38708
1.0105	10.47363
1.011	2.41699
1.0115	-9.66797
1.012	-23.06213
1.0125	-19.23523
1.013	-20.04089
1.0135	-15.00549
1.014	-11.58142
1.0145	-9.26514
1.015	6.84814
1.0155	22.35718
1.016	28.19824
1.0165	26.98975
1.017	28.60107
1.0175	23.96851
1.018	12.08496
1.0185	9.36584
1.019	17.01965
1.0195	27.79541
1.02	46.5271
1.0205	52.06604
1.021	53.37524
1.0215	57.20215
1.022	58.71277
1.0225	56.09436
1.023	54.38232
1.0235	47.8363
1.024	29.50745
1.0245	12.5885
1.025	1.81274
1.0255	-13.39417
1.026	-18.63098
1.0265	-25.68054
1.027	-33.63647
1.0275	-30.51453
1.028	-31.52161
1.0285	-26.78833
1.029	-26.18408
1.0295	-27.6947
1.03	-19.53735
1.0305	-10.27222
1.031	9.16443
1.0315	20.54443
1.032	29.10461
1.0325	34.03931
1.033	36.85913
1.0335	24.67346
1.034	13.89771
1.0345	15.1062
1.035	21.75293
1.0355	22.96143
1.036	15.71045
1.0365	9.36584
1.037	5.63965
1.0375	22.45789
1.038	32.22656
1.0385	33.9386
1.039	20.94727
1.0395	10.37292
1.04	4.53186
1.0405	4.12903
1.041	2.01416
1.0415	1.71204
1.042	-11.2793
1.0425	-16.3147
1.043	-22.35718
1.0435	-15.60974
1.044	-9.97009
1.0445	-4.63257
1.045	-1.40991
1.0455	-1.40991
1.046	31.52161
1.0465	81.06995
1.047	104.13208
1.0475	104.53491
1.048	99.3988
1.0485	99.19739
1.049	160.32715
1.0495	222.46399
1.05	242.7063
1.0505	222.5647
1.051	171.70715
1.0515	100.90942
1.052	28.50037
1.0525	-39.47754
1.053	-109.3689
1.0535	-161.83777
1.054	-188.92822
1.0545	-203.43018
1.055	-210.37903
1.0555	-200.50964
1.056	-189.73389
1.0565	-173.11707
1.057	-158.4137
1.0575	-135.55298
1.058	-116.21704
1.0585	-101.9165
1.059	-83.48694
1.0595	-58.00781
1.06	-45.3186
1.0605	-38.47046
1.061	-24.57275
1.0615	-20.54443
1.062	-11.38
1.0625	-5.43823
1.063	-7.85522
1.0635	-7.45239
1.064	-7.25098
1.0645	3.62549
1.065	9.97009
1.0655	24.77417
1.066	42.59949
1.0665	52.36816
1.067	45.41931
1.0675	42.59949
1.068	33.03223
1.0685	28.60107
1.069	19.43665
1.0695	16.21399
1.07	9.86938
1.0705	18.63098
1.071	29.70886
1.0715	25.68054
1.072	32.7301
1.0725	30.01099
1.073	28.70178
1.0735	21.04797
1.074	11.2793
1.0745	16.51611
1.075	17.82532
1.0755	6.74744
1.076	2.41699
1.0765	-9.76868
1.077	-10.57434
1.0775	-13.797
1.078	-12.99133
1.0785	-15.20691
1.079	-12.48779
1.0795	-10.17151
1.08	-9.86938
1.0805	-12.78992
1.081	-4.53186
1.0815	6.84814
1.082	6.64673
1.0825	14.80408
1.083	15.91187
1.0835	22.25647
1.084	34.54285
1.0845	33.63647
1.085	35.04639
1.0855	31.82373
1.086	26.58691
1.0865	23.56567
1.087	13.49487
1.0875	22.15576
1.088	22.15576
1.0885	15.30762
1.089	23.8678
1.0895	29.40674
1.09	37.86621
1.0905	43.80798
1.091	43.90869
1.0915	41.59241
1.092	41.79382
1.0925	44.71436
1.093	42.29736
1.0935	36.05347
1.094	25.98267
1.0945	28.60107
1.095	18.02673
1.0955	9.86938
1.096	5.53894
1.0965	-3.12195
1.097	-3.02124
1.0975	-10.0708
1.098	3.52478
1.0985	3.92761
1.099	13.59558
1.0995	16.61682
1.1	16.81824
1.1005	40.78674
1.101	67.57507
1.1015	79.15649
1.102	71.60339
1.1025	57.60498
1.103	51.66321
1.1035	45.41931
1.104	34.34143
1.1045	14.90479
1.105	-1.2085
1.1055	-17.22107
1.106	-22.25647
1.1065	-29.10461
1.107	-19.73877
1.1075	-10.77576
1.108	5.84106
1.1085	41.59241
1.109	67.47437
1.1095	75.63171
1.11	61.02905
1.1105	45.11719
1.111	30.31311
1.1115	12.28638
1.112	-5.13611
1.1125	-28.19824
1.113	-50.05188
1.1135	-59.92126
1.114	-45.72144
1.1145	-32.62939
1.115	-13.49487
1.1155	-6.84814
1.116	-12.08496
1.1165	-23.06213
1.117	-33.73718
1.1175	-37.36267
1.118	-38.16833
1.1185	-38.36975
1.119	-32.93152
1.1195	-28.70178
1.12	-23.76709
1.1205	-12.78992
1.121	-5.63965
1.1215	3.62549
1.122	31.62231
1.1225	45.41931
1.123	42.59949
1.1235	51.86462
1.124	99.3988
1.1245	121.05103
1.125	107.45544
1.1255	85.40039
1.126	57.60498
1.1265	31.52161
1.127	-7.15027
1.1275	-55.89294
1.128	-97.18323
1.1285	-111.78589
1.129	-118.63403
1.1295	-124.17297
1.13	-124.57581
1.1305	-130.01404
1.131	-116.01562
1.1315	-93.75916
1.132	-56.5979
1.1325	-6.14319
1.133	31.01807
1.1335	53.87878
1.134	58.51135
1.1345	52.97241
1.135	47.23206
1.1355	31.32019
1.136	17.42249
1.1365	2.5177
1.137	-16.71753
1.1375	-33.13293
1.138	-35.2478
1.1385	-38.57117
1.139	-36.75842
1.1395	-33.83789
1.14	-28.19824
1.1405	-24.06921
1.141	-18.53027
1.1415	-14.50195
1.142	-10.0708
1.1425	-5.43823
1.143	-1.00708
1.1435	4.22974
1.144	11.07788
1.1445	22.45789
1.145	30.31311
1.1455	39.67896
1.146	44.41223
1.1465	47.33276
1.147	42.39807
1.1475	41.18958
1.148	31.92444
1.1485	26.3855
1.149	14.80408
1.1495	12.68921
1.15	12.18567
1.1505	32.42798
1.151	33.9386
1.1515	34.44214
1.152	53.67737
1.1525	62.33826
1.153	66.46729
1.1535	60.62622
1.154	44.11011
1.1545	26.78833
1.155	11.38
1.1555	1.61133
1.156	-16.21399
1.1565	-26.58691
1.157	-40.88745
1.1575	-41.89453
1.158	-46.72852
1.1585	-47.7356
1.159	-49.74976
1.1595	-42.49878
1.16	-38.974
1.1605	-30.61523
1.161	-17.72461
1.1615	-6.54602
1.162	-4.43115
1.1625	1.40991
1.163	3.32336
1.1635	12.99133
1.164	14.50195
1.1645	10.17151
1.165	8.56018
1.1655	19.33594
1.166	34.64355
1.1665	42.7002
1.167	38.36975
1.1675	30.01099
1.168	23.66638
1.1685	22.25647
1.169	18.53027
1.1695	12.48779
1.17	19.53735
1.1705	37.56409
1.171	65.05737
1.1715	74.52393
1.172	67.97791
1.1725	66.56799
1.173	52.67029
1.1735	45.3186
1.174	34.44214
1.1745	19.94019
1.175	8.56018
1.1755	-3.8269
1.176	-28.09753
1.1765	-36.95984
1.177	-50.65613
1.1775	-48.84338
1.178	-45.52002
1.1785	-37.16125
1.179	-29.60815
1.1795	-27.59399
1.18	-13.39417
1.1805	-4.12903
1.181	5.74036
1.1815	15.20691
1.182	25.78125
1.1825	37.36267
1.183	41.08887
1.1835	37.96692
1.184	45.01648
1.1845	62.33826
1.185	77.24304
1.1855	68.78357
1.186	58.10852
1.1865	39.67896
1.187	32.42798
1.1875	11.07788
1.188	-5.0354
1.1885	-31.11877
1.189	-48.94409
1.1895	-62.9425
1.19	-62.43896
1.1905	-41.89453
1.191	-11.78284
1.1915	8.25806
1.192	16.71753
1.1925	15.91187
1.193	2.41699
1.1935	-6.74744
1.194	-13.89771
1.1945	-18.42957
1.195	20.04089
1.1955	82.58057
1.196	112.69226
1.1965	128.80554
1.197	123.06519
1.1975	112.59155
1.198	95.26978
1.1985	69.79065
1.199	42.19666
1.1995	9.86938
1.2	-27.6947
1.2005	-56.39648
1.201	-76.03455
1.2015	-96.57898
1.202	-93.96057
1.2025	-84.99756
1.203	-87.51526
1.2035	-90.03296
1.204	-83.38623
1.2045	-93.35632
1.205	-96.67969
1.2055	-94.86694
1.206	-81.97632
1.2065	-66.46729
1.207	-48.33984
1.2075	-35.75134
1.208	-28.9032
1.2085	-25.47913
1.209	-14.80408
1.2095	14.19983
1.21	36.4563
1.2105	48.44055
1.211	51.86462
1.2115	50.45471
1.212	51.5625
1.2125	43.70728
1.213	33.33435
1.2135	30.41382
1.214	22.6593
1.2145	18.32886
1.215	18.02673
1.2155	13.49487
1.216	19.63806
1.2165	19.03381
1.217	15.91187
1.2175	11.38
1.218	13.59558
1.2185	18.32886
1.219	7.25098
1.2195	7.95593
1.22	5.13611
1.2205	7.65381
1.221	8.45947
1.2215	9.46655
1.222	14.40125
1.2225	7.75452
1.223	37.46338
1.2235	63.74817
1.224	74.92676
1.2245	69.38782
1.225	57.30286
1.2255	37.7655
1.226	18.63098
1.2265	-12.38708
1.227	-39.98108
1.2275	-60.3241
1.228	-66.6687
1.2285	-73.51685
1.229	-78.95508
1.2295	-76.94092
1.23	-63.64746
1.2305	-55.49011
1.231	-36.25488
1.2315	-7.95593
1.232	25.98267
1.2325	63.64746
1.233	78.85437
1.2335	89.83154
1.234	105.84412
1.2345	108.66394
1.235	89.02588
1.2355	72.61047
1.236	53.87878
1.2365	35.85205
1.237	26.3855
1.2375	2.31628
1.238	-14.90479
1.2385	-31.52161
1.239	-34.54285
1.2395	-44.91577
1.24	-43.50586
1.2405	-44.81506
1.241	-49.95117
1.2415	-55.59082
1.242	-63.04321
1.2425	-66.97083
1.243	-68.48145
1.2435	-59.31702
1.244	-57.40356
1.2445	-57.00073
1.245	-51.26038
1.2455	-38.06763
1.246	-28.50037
1.2465	-18.02673
1.247	-14.19983
1.2475	-6.04248
1.248	3.22266
1.2485	5.43823
1.249	8.96301
1.2495	11.78284
1.25	7.5531
1.2505	5.74036
1.251	11.78284
1.2515	20.94727
1.252	53.17383
1.2525	76.03455
1.253	86.60889
1.2535	132.12891
1.254	190.74097
1.2545	212.79602
1.255	207.4585
1.2555	183.79211
1.256	136.66077
1.2565	90.63721
1.257	34.64355
1.2575	-12.38708
1.258	-54.78516
1.2585	-77.34375
1.259	-100.00305
1.2595	-115.00854
1.26	-124.4751
1.2605	-133.3374
1.261	-114.505
1.2615	-104.93774
1.262	-85.80322
1.2625	-56.29578
1.263	-27.19116
1.2635	1.3092
1.264	17.72461
1.2645	32.7301
1.265	40.2832
1.2655	46.32568
1.266	55.79224
1.2665	74.42322
1.267	74.82605
1.2675	48.74268
1.268	30.31311
1.2685	9.26514
1.269	-9.26514
1.2695	-2.21558
1.27	3.12195
1.2705	-0.80566
1.271	-10.57434
1.2715	-19.83948
1.272	-25.78125
1.2725	-24.27063
1.273	-31.32019
1.2735	-32.02515
1.274	-35.65063
1.2745	-37.36267
1.275	-40.68604
1.2755	-39.88037
1.276	-36.85913
1.2765	-31.62231
1.277	-4.93469
1.2775	12.38708
1.278	23.8678
1.2785	27.59399
1.279	23.36426
1.2795	15.50903
1.28	6.3446
1.2805	19.33594
1.281	32.32727
1.2815	20.74585
1.282	16.11328
1.2825	16.51611
1.283	41.99524
1.2835	52.46887
1.284	57.20215
1.2845	45.72144
1.285	41.18958
1.2855	55.99365
1.286	56.79932
1.2865	42.29736
1.287	53.47595
1.2875	68.78357
1.288	70.19348
1.2885	51.15967
1.289	20.04089
1.2895	-6.94885
1.29	-27.39258
1.2905	-47.63489
1.291	-62.8418
1.2915	-77.64587
1.292	-89.52942
1.2925	-93.45703
1.293	-89.83154
1.2935	-84.2926
1.294	-72.61047
1.2945	-63.54675
1.295	-49.64905
1.2955	-34.84497
1.296	-24.57275
1.2965	-17.01965
1.297	-5.74036
1.2975	8.05664
1.298	26.68762
1.2985	27.6947
1.299	33.53577
1.2995	27.6947
1.3	31.62231
1.3005	45.41931
1.301	49.85046
1.3015	50.85754
1.302	55.18799
1.3025	50.75684
1.303	44.31152
1.3035	55.3894
1.304	84.69543
1.3045	90.73792
1.305	86.91101
1.3055	74.52393
1.306	49.74976
1.3065	26.98975
1.307	10.27222
1.3075	-9.46655
1.308	-22.35718
1.3085	-30.41382
1.309	-39.17542
1.3095	-39.57825
1.31	-37.96692
1.3105	-38.26904
1.311	-33.63647
1.3115	-20.24231
1.312	-1.51062
1.3125	12.08496
1.313	15.40833
1.3135	18.93311
1.314	23.56567
1.3145	26.48621
1.315	30.81665
1.3155	21.04797
1.316	6.74744
1.3165	-5.0354
1.317	-5.33752
1.3175	-15.81116
1.318	-19.73877
1.3185	-23.06213
1.319	-30.51453
1.3195	-28.9032
1.32	-16.3147
1.3205	-14.80408
1.321	22.55859
1.3215	79.15649
1.322	110.57739
1.3225	110.98022
1.323	110.57739
1.3235	97.98889
1.324	70.19348
1.3245	41.69312
1.325	22.86072
1.3255	31.82373
1.326	36.85913
1.3265	38.67188
1.327	35.54993
1.3275	21.14868
1.328	4.93469
1.3285	-8.96301
1.329	-23.26355
1.3295	-23.06213
1.33	-24.37134
1.3305	-33.13293
1.331	-38.87329
1.3315	-43.40515
1.332	-48.94409
1.3325	-57.30286
1.333	-60.92834
1.3335	-54.68445
1.334	-38.87329
1.3345	-27.6947
1.335	-15.00549
1.3355	-6.54602
1.336	0.10071
1.3365	22.05505
1.337	40.98816
1.3375	51.66321
1.338	36.95984
1.3385	18.8324
1.339	7.15027
1.3395	22.25647
1.34	57.00073
1.3405	63.44604
1.341	43.10303
1.3415	22.96143
1.342	4.73328
1.3425	-9.06372
1.343	-32.32727
1.3435	-44.91577
1.344	-48.94409
1.3445	-43.40515
1.345	-36.35559
1.3455	-22.15576
1.346	-5.63965
1.3465	4.53186
1.347	25.57983
1.3475	23.96851
1.348	22.35718
1.3485	14.30054
1.349	6.3446
1.3495	12.89062
1.35	10.17151
1.3505	5.63965
1.351	0.80566
1.3515	-21.85364
1.352	-36.15417
1.3525	-55.2887
1.353	-71.50269
1.3535	-78.45154
1.354	-74.52393
1.3545	-67.97791
1.355	-56.19507
1.3555	-46.62781
1.356	-26.08337
1.3565	-7.75452
1.357	20.64514
1.3575	39.98108
1.358	40.88745
1.3585	39.17542
1.359	35.75134
1.3595	24.87488
1.36	21.55151
1.3605	14.70337
1.361	3.02124
1.3615	-1.40991
1.362	-1.71204
1.3625	-2.21558
1.363	-2.81982
1.3635	0.30212
1.364	2.21558
1.3645	-5.33752
1.365	-11.17859
1.3655	-12.28638
1.366	-13.09204
1.3665	-9.76868
1.367	-1.61133
1.3675	6.3446
1.368	26.68762
1.3685	38.67188
1.369	46.82922
1.3695	41.08887
1.37	28.50037
1.3705	15.00549
1.371	5.84106
1.3715	-7.95593
1.372	-12.08496
1.3725	-16.51611
1.373	-18.22815
1.3735	6.04248
1.374	37.46338
1.3745	52.8717
1.375	63.24463
1.3755	72.61047
1.376	109.77173
1.3765	127.19421
1.377	124.87793
1.3775	110.17456
1.378	89.42871
1.3785	77.74658
1.379	56.90002
1.3795	34.14001
1.38	12.28638
1.3805	-10.17151
1.381	-32.12585
1.3815	-38.26904
1.382	-47.53418
1.3825	-53.77808
1.383	-53.87878
1.3835	-60.52551
1.384	-62.8418
1.3845	-58.81348
1.385	-60.22339
1.3855	-59.71985
1.386	-49.64905
1.3865	-38.26904
1.387	10.77576
1.3875	69.08569
1.388	90.23438
1.3885	98.39172
1.389	98.69385
1.3895	93.35632
1.39	75.83313
1.3905	39.98108
1.391	13.19275
1.3915	-12.78992
1.392	-28.70178
1.3925	-48.74268
1.393	-61.02905
1.3935	-66.87012
1.394	-71.20056
1.3945	-65.76233
1.395	-63.64746
1.3955	-55.08728
1.396	-43.50586
1.3965	-31.52161
1.397	-3.02124
1.3975	16.61682
1.398	17.42249
1.3985	17.42249
1.399	25.68054
1.3995	24.97559
1.4	25.57983
1.4005	25.57983
1.401	34.84497
1.4015	31.52161
1.402	30.51453
1.4025	29.40674
1.403	36.4563
1.4035	46.72852
1.404	36.35559
1.4045	54.18091
1.405	70.29419
1.4055	66.56799
1.406	58.61206
1.4065	37.06055
1.407	14.80408
1.4075	2.01416
1.408	-7.75452
1.4085	-4.43115
1.409	7.25098
1.4095	15.71045
1.41	12.18567
1.4105	8.7616
1.411	-3.7262
1.4115	-18.12744
1.412	-26.68762
1.4125	-36.75842
1.413	-47.63489
1.4135	-50.55542
1.414	-49.85046
1.4145	-43.90869
1.415	-41.89453
1.4155	-44.21082
1.416	-35.04639
1.4165	-23.8678
1.417	-13.99841
1.4175	6.54602
1.418	45.11719
1.4185	89.83154
1.419	137.0636
1.4195	154.18396
1.42	156.50024
1.4205	132.12891
1.421	102.72217
1.4215	73.41614
1.422	41.29028
1.4225	11.98425
1.423	-15.71045
1.4235	-35.65063
1.424	-59.1156
1.4245	-74.12109
1.425	-88.32092
1.4255	-81.37207
1.426	-86.70959
1.4265	-95.06836
1.427	-92.95349
1.4275	-85.40039
1.428	-69.28711
1.4285	-64.65454
1.429	-56.5979
1.4295	-44.21082
1.43	-33.9386
1.4305	-27.49329
1.431	-23.76709
1.4315	-27.29187
1.432	-21.45081
1.4325	-16.91895
1.433	-4.63257
1.4335	5.94177
1.434	15.71045
1.4345	24.27063
1.435	29.30603
1.4355	35.75134
1.436	37.06055
1.4365	48.33984
1.437	44.41223
1.4375	69.48853
1.438	97.78748
1.4385	107.65686
1.439	104.3335
1.4395	95.77332
1.44	84.39331
1.4405	66.06445
1.441	50.15259
1.4415	37.26196
1.442	32.7301
1.4425	43.90869
1.443	62.53967
1.4435	62.13684
1.444	51.36108
1.4445	36.35559
1.445	12.28638
1.4455	-15.50903
1.446	-20.64514
1.4465	-16.51611
1.447	-5.33752
1.4475	0.30212
1.448	6.44531
1.4485	17.92603
1.449	29.10461
1.4495	10.97717
1.45	-3.02124
1.4505	-10.67505
1.451	-24.87488
1.4515	-40.98816
1.452	-52.06604
1.4525	-60.92834
1.453	-60.62622
1.4535	-60.12268
1.454	-58.61206
1.4545	-55.49011
1.455	-45.01648
1.4555	-38.77258
1.456	-26.48621
1.4565	-24.47205
1.457	-24.97559
1.4575	-12.5885
1.458	12.38708
1.4585	23.96851
1.459	32.02515
1.4595	36.4563
1.46	35.34851
1.4605	24.57275
1.461	20.24231
1.4615	34.74426
1.462	53.17383
1.4625	64.05029
1.463	55.49011
1.4635	41.69312
1.464	21.24939
1.4645	2.31628
1.465	-15.40833
1.4655	-30.2124
1.466	-42.59949
1.4665	-54.28162
1.467	-44.21082
1.4675	-35.85205
1.468	-23.8678
1.4685	-7.25098
1.469	4.22974
1.4695	13.99841
1.47	18.22815
1.4705	30.41382
1.471	61.12976
1.4715	88.52234
1.472	92.85278
1.4725	89.12659
1.473	69.99207
1.4735	42.09595
1.474	20.04089
1.4745	-6.84814
1.475	-22.55859
1.4755	-18.42957
1.476	-21.14868
1.4765	-16.41541
1.477	-18.63098
1.4775	-13.49487
1.478	18.22815
1.4785	29.50745
1.479	40.88745
1.4795	30.91736
1.48	20.94727
1.4805	15.20691
1.481	9.46655
1.4815	1.00708
1.482	-7.15027
1.4825	-19.23523
1.483	-36.05347
1.4835	-48.33984
1.484	-41.59241
1.4845	-12.38708
1.485	-1.51062
1.4855	-9.26514
1.486	1.2085
1.4865	6.14319
1.487	21.55151
1.4875	25.57983
1.488	16.21399
1.4885	1.51062
1.489	-13.59558
1.4895	-32.7301
1.49	-57.00073
1.4905	-51.5625
1.491	-39.77966
1.4915	-34.03931
1.492	-31.82373
1.4925	-33.53577
1.493	-25.37842
1.4935	-25.177
1.494	-13.09204
1.4945	-6.14319
1.495	-1.81274
1.4955	-1.00708
1.496	-4.93469
1.4965	-3.22266
1.497	-0.10071
1.4975	10.67505
1.498	17.82532
1.4985	12.78992
1.499	9.86938
1.4995	7.35168
1.5	9.46655
1.5005	19.03381
1.501	24.67346
1.5015	28.09753
1.502	27.39258
1.5025	19.43665
1.503	5.43823
1.5035	-6.04248
1.504	-16.51611
1.5045	-14.60266
1.505	-6.84814
1.5055	-10.0708
1.506	-15.81116
1.5065	-21.04797
1.507	-25.88196
1.5075	-27.39258
1.508	-20.1416
1.5085	17.52319
1.509	62.13684
1.5095	105.34058
1.51	121.25244
1.5105	118.63403
1.511	115.41138
1.5115	93.55774
1.512	68.38074
1.5125	51.66321
1.513	31.82373
1.5135	19.23523
1.514	0.30212
1.5145	-17.72461
1.515	-22.25647
1.5155	-26.78833
1.516	-37.26196
1.5165	-37.7655
1.517	-40.78674
1.5175	-54.38232
1.518	-62.9425
1.5185	-53.87878
1.519	-40.98816
1.5195	-29.91028
1.52	-25.27771
1.5205	-33.53577
1.521	-27.19116
1.5215	-23.8678
1.522	-3.32336
1.5225	19.73877
1.523	32.62939
1.5235	38.16833
1.524	35.44922
1.5245	40.1825
1.525	32.93152
1.5255	35.34851
1.526	46.42639
1.5265	85.60181
1.527	112.59155
1.5275	108.46252
1.528	103.125
1.5285	85.5011
1.529	80.26428
1.5295	58.41064
1.53	40.08179
1.5305	16.51611
1.531	-7.85522
1.5315	-27.49329
1.532	-41.39099
1.5325	-47.23206
1.533	-55.69153
1.5335	-65.66162
1.534	-67.17224
1.5345	-66.87012
1.535	-58.41064
1.5355	-54.48303
1.536	-54.98657
1.5365	-47.8363
1.537	-46.42639
1.5375	-26.68762
1.538	-12.99133
1.5385	-2.31628
1.539	8.25806
1.5395	9.56726
1.54	-0.10071
1.5405	-8.35876
1.541	-16.51611
1.5415	-25.07629
1.542	-29.00391
1.5425	-36.65771
1.543	-36.05347
1.5435	-33.83789
1.544	-22.96143
1.5445	-5.63965
1.545	9.16443
1.5455	24.06921
1.546	24.77417
1.5465	17.92603
1.547	14.40125
1.5475	8.7616
1.548	7.75452
1.5485	13.99841
1.549	14.09912
1.5495	29.60815
1.55	28.60107
1.5505	26.98975
1.551	23.8678
1.5515	20.74585
1.552	13.39417
1.5525	2.92053
1.553	4.22974
1.5535	5.0354
1.554	6.14319
1.5545	2.41699
1.555	3.92761
1.5555	1.40991
1.556	12.5885
1.5565	28.19824
1.557	42.09595
1.5575	69.48853
1.558	89.22729
1.5585	103.62854
1.559	96.57898
1.5595	81.17065
1.56	67.47437
1.5605	64.25171
1.561	54.48303
1.5615	31.82373
1.562	10.0708
1.5625	-14.60266
1.563	-37.06055
1.5635	-51.66321
1.564	-64.45312
1.5645	-68.28003
1.565	-71.30127
1.5655	-71.90552
1.566	-61.73401
1.5665	-61.93542
1.567	-62.13684
1.5675	-58.51135
1.568	-49.0448
1.5685	-41.18958
1.569	-38.47046
1.5695	-28.9032
1.57	-22.86072
1.5705	-8.45947
1.571	-7.04956
1.5715	6.54602
1.572	25.78125
1.5725	36.85913
1.573	42.90161
1.5735	42.59949
1.574	33.53577
1.5745	26.28479
1.575	21.45081
1.5755	13.69629
1.576	14.19983
1.5765	16.21399
1.577	24.67346
1.5775	23.8678
1.578	25.88196
1.5785	31.52161
1.579	29.50745
1.5795	41.79382
1.58	61.23047
1.5805	64.35242
1.581	65.15808
1.5815	70.3949
1.582	75.02747
1.5825	120.14465
1.583	196.27991
1.5835	236.56311
1.584	229.31213
1.5845	204.03442
1.585	166.16821
1.5855	110.6781
1.586	53.37524
1.5865	-3.8269
1.587	-58.10852
1.5875	-99.90234
1.588	-134.24377
1.5885	-154.28467
1.589	-164.05334
1.5895	-163.75122
1.59	-157.30591
1.5905	-148.04077
1.591	-127.29492
1.5915	-111.38306
1.592	-109.57031
1.5925	-114.70642
1.593	-114.90784
1.5935	-97.38464
1.594	-74.12109
1.5945	-49.95117
1.595	-42.8009
1.5955	-34.34143
1.596	9.46655
1.5965	58.71277
1.597	92.95349
1.5975	99.49951
1.598	97.08252
1.5985	76.84021
1.599	53.37524
1.5995	32.32727
1.6	10.47363
1.6005	2.81982
1.601	-1.10779
1.6015	22.35718
1.602	34.54285
1.6025	46.32568
1.603	43.40515
1.6035	42.7002
1.604	49.44763
1.6045	68.07861
1.605	63.24463
1.6055	58.30994
1.606	40.68604
1.6065	19.73877
1.607	12.5885
1.6075	-7.15027
1.608	-22.15576
1.6085	-29.50745
1.609	-28.60107
1.6095	-22.76001
1.61	-21.65222
1.6105	-22.96143
1.611	-26.48621
1.6115	-21.24939
1.612	-26.98975
1.6125	-31.4209
1.613	-32.83081
1.6135	-42.19666
1.614	-47.43347
1.6145	-47.7356
1.615	-45.3186
1.6155	-33.73718
1.616	-27.89612
1.6165	-21.75293
1.617	-14.60266
1.6175	-8.96301
1.618	-10.37292
1.6185	5.33752
1.619	8.66089
1.6195	13.99841
1.62	27.79541
1.6205	43.00232
1.621	51.5625
1.6215	43.20374
1.622	39.57825
1.6225	40.78674
1.623	36.4563
1.6235	35.14709
1.624	23.66638
1.6245	20.94727
1.625	20.44373
1.6255	20.84656
1.626	42.39807
1.6265	81.97632
1.627	108.86536
1.6275	124.87793
1.628	136.86218
1.6285	126.18713
1.629	104.63562
1.6295	68.68286
1.63	35.54993
1.6305	8.45947
1.631	-20.84656
1.6315	-50.65613
1.632	-69.1864
1.6325	-85.19897
1.633	-89.22729
1.6335	-97.98889
1.634	-108.36182
1.6345	-106.9519
1.635	-94.96765
1.6355	-70.49561
1.636	-39.77966
1.6365	-18.42957
1.637	-6.44531
1.6375	-6.64673
1.638	-3.22266
1.6385	-3.62549
1.639	-12.38708
1.6395	-4.63257
1.64	-11.78284
1.6405	-5.23682
1.641	-0.30212
1.6415	0.50354
1.642	25.57983
1.6425	59.21631
1.643	79.2572
1.6435	82.78198
1.644	75.4303
1.6445	64.65454
1.645	44.71436
1.6455	37.36267
1.646	24.67346
1.6465	7.95593
1.647	-1.10779
1.6475	-8.35876
1.648	-15.60974
1.6485	-28.9032
1.649	-34.03931
1.6495	-43.80798
1.65	-44.41223
1.6505	-43.30444
1.651	-40.68604
1.6515	-41.29028
1.652	-42.59949
1.6525	-40.58533
1.653	-20.54443
1.6535	-5.63965
1.654	17.22107
1.6545	39.77966
1.655	66.97083
1.6555	82.78198
1.656	85.80322
1.6565	66.36658
1.657	50.15259
1.6575	26.88904
1.658	7.65381
1.6585	-11.98425
1.659	-17.92603
1.6595	-34.94568
1.66	-35.44922
1.6605	-22.05505
1.661	-15.20691
1.6615	-7.75452
1.662	-4.43115
1.6625	-2.11487
1.663	3.42407
1.6635	-1.61133
1.664	-8.25806
1.6645	-12.48779
1.665	-8.25806
1.6655	-9.16443
1.666	-14.19983
1.6665	-12.28638
1.667	-13.89771
1.6675	-2.5177
1.668	24.27063
1.6685	41.4917
1.669	45.82214
1.6695	45.82214
1.67	38.16833
1.6705	26.58691
1.671	19.94019
1.6715	9.56726
1.672	-2.61841
1.6725	-13.99841
1.673	1.40991
1.6735	38.77258
1.674	66.56799
1.6745	93.45703
1.675	116.01562
1.6755	134.64661
1.676	139.5813
1.6765	120.34607
1.677	82.37915
1.6775	73.91968
1.678	81.7749
1.6785	68.38074
1.679	59.92126
1.6795	49.64905
1.68	23.56567
1.6805	-0.10071
1.681	-34.03931
1.6815	-54.48303
1.682	-73.21472
1.6825	-90.63721
1.683	-102.52075
1.6835	-117.82837
1.684	-121.85669
1.6845	-122.15881
1.685	-118.33191
1.6855	-106.75049
1.686	-93.65845
1.6865	-78.55225
1.687	-66.56799
1.6875	-54.18091
1.688	-26.28479
1.6885	-2.92053
1.689	21.45081
1.6895	46.42639
1.69	66.46729
1.6905	87.61597
1.691	103.72925
1.6915	103.22571
1.692	113.59863
1.6925	107.15332
1.693	87.41455
1.6935	55.59082
1.694	20.84656
1.6945	-24.27063
1.695	-54.18091
1.6955	-76.13525
1.696	-90.73792
1.6965	-83.38623
1.697	-83.28552
1.6975	-73.71826
1.698	-60.72693
1.6985	-54.38232
1.699	-42.7002
1.6995	-27.29187
1.7	1.3092
1.7005	13.39417
1.701	15.50903
1.7015	19.23523
1.702	38.974
1.7025	68.58215
1.703	86.8103
1.7035	87.61597
1.704	82.17773
1.7045	58.30994
1.705	45.2179
1.7055	33.23364
1.706	35.44922
1.7065	36.65771
1.707	28.19824
1.7075	20.94727
1.708	8.7616
1.7085	3.52478
1.709	-7.35168
1.7095	-16.11328
1.71	-20.44373
1.7105	-26.68762
1.711	-38.26904
1.7115	-46.02356
1.712	-47.43347
1.7125	-50.65613
1.713	-50.354
1.7135	-42.59949
1.714	-31.52161
1.7145	-24.27063
1.715	-24.16992
1.7155	-27.79541
1.716	-23.26355
1.7165	2.71912
1.717	21.24939
1.7175	41.18958
1.718	50.354
1.7185	60.12268
1.719	75.22888
1.7195	107.35474
1.72	123.16589
1.7205	109.87244
1.721	92.95349
1.7215	76.33667
1.722	60.4248
1.7225	52.06604
1.723	39.37683
1.7235	18.73169
1.724	-8.8623
1.7245	-29.80957
1.725	-47.53418
1.7255	-59.92126
1.726	-61.73401
1.7265	-59.51843
1.727	-47.33276
1.7275	-35.95276
1.728	-31.01807
1.7285	-29.30603
1.729	-35.2478
1.7295	-43.50586
1.73	-44.31152
1.7305	-45.41931
1.731	-46.92993
1.7315	-44.21082
1.732	-40.58533
1.7325	-21.3501
1.733	6.3446
1.7335	32.12585
1.734	54.38232
1.7345	68.68286
1.735	87.41455
1.7355	92.65137
1.736	112.08801
1.7365	131.52466
1.737	118.33191
1.7375	91.24146
1.738	74.02039
1.7385	61.6333
1.739	41.99524
1.7395	12.48779
1.74	-5.23682
1.7405	-30.31311
1.741	-48.13843
1.7415	-57.60498
1.742	-51.5625
1.7425	-51.86462
1.743	-22.6593
1.7435	11.88354
1.744	47.43347
1.7445	68.98499
1.745	82.78198
1.7455	104.13208
1.746	140.8905
1.7465	137.56714
1.747	123.06519
1.7475	99.19739
1.748	57.9071
1.7485	7.15027
1.749	-31.72302
1.7495	-67.07153
1.75	-102.62146
1.7505	-119.23828
1.751	-137.66785
1.7515	-144.11316
1.752	-144.91882
1.7525	-136.25793
1.753	-133.43811
1.7535	-131.32324
1.754	-119.84253
1.7545	-114.30359
1.755	-98.59314
1.7555	-93.65845
1.756	-84.49402
1.7565	-59.61914
1.757	-39.27612
1.7575	1.51062
1.758	37.56409
1.7585	58.91418
1.759	69.79065
1.7595	59.31702
1.76	43.80798
1.7605	33.03223
1.761	31.82373
1.7615	24.87488
1.762	16.91895
1.7625	13.29346
1.763	8.8623
1.7635	5.63965
1.764	-1.2085
1.7645	-5.23682
1.765	-8.35876
1.7655	-11.2793
1.766	-14.09912
1.7665	-17.32178
1.767	-25.177
1.7675	-17.52319
1.768	-8.66089
1.7685	3.92761
1.769	40.38391
1.7695	61.53259
1.77	65.86304
1.7705	56.79932
1.771	52.97241
1.7715	35.75134
1.772	16.71753
1.7725	7.35168
1.773	10.57434
1.7735	18.73169
1.774	20.44373
1.7745	15.50903
1.775	7.65381
1.7755	5.0354
1.776	5.74036
1.7765	10.47363
1.777	15.20691
1.7775	25.27771
1.778	55.69153
1.7785	81.57349
1.779	96.8811
1.7795	98.39172
1.78	91.04004
1.7805	73.41614
1.781	60.72693
1.7815	44.61365
1.782	45.52002
1.7825	34.14001
1.783	19.23523
1.7835	2.21558
1.784	-16.51611
1.7845	-31.62231
1.785	-42.7002
1.7855	-63.94958
1.786	-78.04871
1.7865	-91.8457
1.787	-79.86145
1.7875	-62.53967
1.788	-46.32568
1.7885	-37.66479
1.789	-31.32019
1.7895	-26.08337
1.79	-16.01257
1.7905	-8.45947
1.791	-1.2085
1.7915	5.94177
1.792	12.08496
1.7925	13.49487
1.793	15.81116
1.7935	20.54443
1.794	17.42249
1.7945	15.40833
1.795	22.25647
1.7955	45.92285
1.796	61.6333
1.7965	71.60339
1.797	75.32959
1.7975	74.82605
1.798	99.49951
1.7985	121.65527
1.799	133.63953
1.7995	141.99829
1.8	145.62378
1.8005	128.50342
1.801	120.95032
1.8015	92.95349
1.802	74.32251
1.8025	59.61914
1.803	30.81665
1.8035	3.92761
1.804	-28.50037
1.8045	-56.5979
1.805	-79.76074
1.8055	-102.82288
1.806	-100.70801
1.8065	-105.84412
1.807	-104.63562
1.8075	-102.11792
1.808	-100.10376
1.8085	-94.16199
1.809	-86.8103
1.8095	-79.86145
1.81	-70.3949
1.8105	-68.78357
1.811	-60.3241
1.8115	-53.47595
1.812	-35.2478
1.8125	-11.07788
1.813	16.41541
1.8135	52.8717
1.814	66.97083
1.8145	68.78357
1.815	50.85754
1.8155	44.61365
1.816	52.67029
1.8165	49.95117
1.817	32.52869
1.8175	6.94885
1.818	-23.06213
1.8185	-53.57666
1.819	-74.62463
1.8195	-82.68127
1.82	-80.26428
1.8205	-80.56641
1.821	-65.05737
1.8215	-48.13843
1.822	-31.82373
1.8225	-26.98975
1.823	-24.47205
1.8235	-15.40833
1.824	-3.8269
1.8245	-1.51062
1.825	6.84814
1.8255	13.89771
1.826	10.97717
1.8265	19.03381
1.827	39.07471
1.8275	48.33984
1.828	55.49011
1.8285	61.93542
1.829	59.71985
1.8295	53.07312
1.83	43.00232
1.8305	34.84497
1.831	28.60107
1.8315	37.06055
1.832	44.71436
1.8325	35.54993
1.833	33.43506
1.8335	23.16284
1.834	22.96143
1.8345	16.3147
1.835	14.60266
1.8355	3.52478
1.836	0
1.8365	-15.1062
1.837	-29.30603
1.8375	-31.21948
1.838	-27.6947
1.8385	-1.71204
1.839	28.09753
1.8395	47.03064
1.84	53.87878
1.8405	55.3894
1.841	78.04871
1.8415	93.85986
1.842	84.49402
1.8425	65.3595
1.843	44.31152
1.8435	15.71045
1.844	-6.04248
1.8445	-14.09912
1.845	-11.38
1.8455	-6.3446
1.846	-8.35876
1.8465	-2.92053
1.847	-4.63257
1.8475	-2.41699
1.848	-9.46655
1.8485	-18.53027
1.849	-29.40674
1.8495	-25.68054
1.85	-27.49329
1.8505	-33.03223
1.851	-35.95276
1.8515	-43.50586
1.852	-33.83789
1.8525	-34.74426
1.853	-37.86621
1.8535	-37.56409
1.854	-35.34851
1.8545	-30.01099
1.855	-26.68762
1.8555	-17.92603
1.856	1.00708
1.8565	16.21399
1.857	13.39417
1.8575	22.55859
1.858	29.40674
1.8585	44.11011
1.859	52.36816
1.8595	73.41614
1.86	91.44287
1.8605	83.08411
1.861	74.02039
1.8615	53.07312
1.862	30.11169
1.8625	9.56726
1.863	33.63647
1.8635	80.96924
1.864	89.52942
1.8645	89.52942
1.865	81.67419
1.8655	60.22339
1.866	35.44922
1.8665	4.73328
1.867	-26.18408
1.8675	-59.51843
1.868	-65.05737
1.8685	-61.6333
1.869	-63.44604
1.8695	-60.22339
1.87	-56.49719
1.8705	-30.01099
1.871	4.22974
1.8715	19.43665
1.872	30.51453
1.8725	44.11011
1.873	45.11719
1.8735	45.82214
1.874	42.7002
1.8745	36.75842
1.875	35.75134
1.8755	20.64514
1.876	-8.8623
1.8765	-40.68604
1.877	-67.8772
1.8775	-87.61597
1.878	-85.09827
1.8785	-73.51685
1.879	-35.85205
1.8795	-8.8623
1.88	8.15735
1.8805	14.30054
1.881	16.71753
1.8815	6.74744
1.882	3.02124
1.8825	-1.10779
1.883	1.81274
1.8835	4.93469
1.884	-4.02832
1.8845	-14.90479
1.885	-22.86072
1.8855	-24.67346
1.886	-28.19824
1.8865	-37.46338
1.887	-44.0094
1.8875	-43.40515
1.888	-33.63647
1.8885	-23.06213
1.889	-14.50195
1.8895	-10.0708
1.89	-18.8324
1.8905	-21.04797
1.891	-18.73169
1.8915	-18.8324
1.892	3.42407
1.8925	13.09204
1.893	27.29187
1.8935	28.19824
1.894	27.19116
1.8945	24.16992
1.895	35.04639
1.8955	64.35242
1.896	69.68994
1.8965	61.23047
1.897	54.28162
1.8975	46.42639
1.898	38.57117
1.8985	27.99683
1.899	27.79541
1.8995	42.39807
1.9	66.87012
1.9005	68.78357
1.901	58.81348
1.9015	43.00232
1.902	45.11719
1.9025	45.3186
1.903	37.66479
1.9035	11.07788
1.904	-18.12744
1.9045	-26.3855
1.905	-33.53577
1.9055	-44.0094
1.906	-56.09436
1.9065	-70.3949
1.907	-75.12817
1.9075	-68.28003
1.908	-48.54126
1.9085	-46.72852
1.909	-47.53418
1.9095	-52.26746
1.91	-47.33276
1.9105	-29.80957
1.911	-23.36426
1.9115	-13.69629
1.912	-8.45947
1.9125	-7.95593
1.913	-2.41699
1.9135	2.61841
1.914	1.61133
1.9145	8.05664
1.915	18.32886
1.9155	31.01807
1.916	54.18091
1.9165	83.68835
1.917	108.26111
1.9175	109.26819
1.918	99.19739
1.9185	80.26428
1.919	47.63489
1.9195	17.01965
1.92	-20.34302
1.9205	-44.91577
1.921	-56.69861
1.9215	-59.1156
1.922	-60.62622
1.9225	-62.53967
1.923	-62.43896
1.9235	-57.60498
1.924	-53.07312
1.9245	-47.53418
1.925	-39.98108
1.9255	-30.91736
1.926	-15.50903
1.9265	8.05664
1.927	51.15967
1.9275	88.11951
1.928	94.46411
1.9285	85.80322
1.929	66.36658
1.9295	44.11011
1.93	22.35718
1.9305	15.00549
1.931	-18.8324
1.9315	-34.03931
1.932	-43.10303
1.9325	-46.32568
1.933	-50.45471
1.9335	-47.13135
1.934	-41.18958
1.9345	-36.05347
1.935	-21.24939
1.9355	-2.11487
1.936	11.2793
1.9365	19.03381
1.937	32.52869
1.9375	33.13293
1.938	36.15417
1.9385	33.9386
1.939	25.57983
1.9395	27.09045
1.94	19.43665
1.9405	22.45789
1.941	43.40515
1.9415	61.02905
1.942	61.83472
1.9425	72.50977
1.943	80.56641
1.9435	106.34766
1.944	104.53491
1.9445	96.98181
1.945	79.45862
1.9455	94.76624
1.946	125.38147
1.9465	131.92749
1.947	132.22961
1.9475	122.05811
1.948	92.34924
1.9485	62.03613
1.949	30.91736
1.9495	-4.53186
1.95	-24.67346
1.9505	-44.0094
1.951	-63.04321
1.9515	-74.62463
1.952	-90.43579
1.9525	-106.34766
1.953	-114.20288
1.9535	-120.04395
1.954	-119.13757
1.9545	-88.62305
1.955	-62.53967
1.9555	-42.7002
1.956	-36.55701
1.9565	-36.85913
1.957	-30.2124
1.9575	-16.11328
1.958	-14.60266
1.9585	-20.94727
1.959	-27.19116
1.9595	-33.9386
1.96	-34.14001
1.9605	-22.35718
1.961	3.92761
1.9615	20.74585
1.962	27.79541
1.9625	28.60107
1.963	23.76709
1.9635	9.36584
1.964	-3.7262
1.9645	-14.80408
1.965	-25.07629
1.9655	-30.61523
1.966	-36.65771
1.9665	-18.8324
1.967	6.84814
1.9675	22.6593
1.968	22.35718
1.9685	24.47205
1.969	32.22656
1.9695	45.62073
1.97	35.34851
1.9705	37.46338
1.971	48.44055
1.9715	61.6333
1.972	76.94092
1.9725	80.16357
1.973	68.48145
1.9735	57.00073
1.974	48.94409
1.9745	67.37366
1.975	76.13525
1.9755	67.47437
1.976	43.90869
1.9765	23.36426
1.977	22.05505
1.9775	31.52161
1.978	49.34692
1.9785	46.22498
1.979	32.32727
1.9795	10.27222
1.98	16.81824
1.9805	43.20374
1.981	48.84338
1.9815	35.34851
1.982	17.32178
1.9825	1.61133
1.983	-17.22107
1.9835	-55.2887
1.984	-88.0188
1.9845	-118.73474
1.985	-127.19421
1.9855	-127.49634
1.986	-119.33899
1.9865	-102.21863
1.987	-71.60339
1.9875	-45.72144
1.988	-26.28479
1.9885	-6.44531
1.989	8.05664
1.9895	12.38708
1.99	7.75452
1.9905	-9.97009
1.991	-30.11169
1.9915	-40.88745
1.992	-46.72852
1.9925	-48.44055
1.993	-25.47913
1.9935	16.81824
1.994	45.11719
1.9945	58.81348
1.995	57.70569
1.9955	60.62622
1.996	63.14392
1.9965	51.96533
1.997	27.89612
1.9975	0.90637
1.998	-27.39258
1.9985	-57.8064
1.999	-66.16516
1.9995	-49.95117
2	-45.41931
2.0005	-51.76392
2.001	-48.44055
2.0015	-40.38391
2.002	-34.74426
2.0025	-6.94885
2.003	16.11328
2.0035	36.25488
2.004	60.52551
2.0045	76.23596
2.005	81.17065
2.0055	83.99048
2.006	89.328
2.0065	89.83154
2.007	85.70251
2.0075	68.68286
2.008	51.5625
2.0085	23.46497
2.009	1.40991
2.0095	-18.12744
2.01	-8.7616
2.0105	3.8269
2.011	4.12903
2.0115	-5.63965
2.012	-17.22107
2.0125	-23.36426
2.013	-24.57275
2.0135	-26.78833
2.014	-32.7301
2.0145	-38.47046
2.015	-38.87329
2.0155	-37.86621
2.016	-36.65771
2.0165	-27.29187
2.017	-20.44373
2.0175	-38.87329
2.018	-44.31152
2.0185	-52.46887
2.019	-50.45471
2.0195	-50.75684
2.02	-47.63489
2.0205	-36.35559
2.021	-29.30603
2.0215	-21.04797
2.022	-8.7616
2.0225	-9.56726
2.023	0.50354
2.0235	25.07629
2.024	51.86462
2.0245	62.74109
2.025	68.78357
2.0255	65.56091
2.026	58.81348
2.0265	46.82922
2.027	32.32727
2.0275	25.47913
2.028	8.35876
2.0285	-5.84106
2.029	-17.42249
2.0295	-29.20532
2.03	-16.61682
2.0305	-2.61841
2.031	12.5885
2.0315	17.72461
2.032	22.55859
2.0325	22.15576
2.033	22.86072
2.0335	32.52869
2.034	36.4563
2.0345	39.88037
2.035	41.18958
2.0355	36.85913
2.036	33.83789
2.0365	41.79382
2.037	49.54834
2.0375	68.17932
2.038	77.948
2.0385	90.63721
2.039	94.96765
2.0395	87.81738
2.04	109.3689
2.0405	172.41211
2.041	238.87939
2.0415	284.60083
2.042	280.16968
2.0425	234.14612
2.043	159.21936
2.0435	82.07703
2.044	6.84814
2.0445	-58.41064
2.045	-120.04395
2.0455	-166.97388
2.046	-202.02026
2.0465	-223.06824
2.047	-223.16895
2.0475	-222.76611
2.048	-222.96753
2.0485	-211.38611
2.049	-192.65442
2.0495	-175.73547
2.05	-157.10449
2.0505	-111.8866
2.051	-61.6333
2.0515	-22.25647
2.052	3.22266
2.0525	30.01099
2.053	44.31152
2.0535	47.8363
2.054	37.86621
2.0545	29.40674
2.055	21.55151
2.0555	0.70496
2.056	-8.35876
2.0565	-14.40125
2.057	-21.65222
2.0575	-29.10461
2.058	-33.43506
2.0585	-22.6593
2.059	-2.61841
2.0595	4.53186
2.06	8.66089
2.0605	26.68762
2.061	47.33276
2.0615	69.08569
2.062	82.68127
2.0625	100.6073
2.063	106.34766
2.0635	130.61829
2.064	160.42786
2.0645	165.46326
2.065	149.45068
2.0655	125.38147
2.066	95.87402
2.0665	58.30994
2.067	26.08337
2.0675	-4.33044
2.068	-8.66089
2.0685	-19.53735
2.069	-27.29187
2.0695	-8.8623
2.07	21.45081
2.0705	26.08337
2.071	7.04956
2.0715	-29.60815
2.072	-56.49719
2.0725	-38.16833
2.073	-17.6239
2.0735	-18.53027
2.074	-33.03223
2.0745	-45.11719
2.075	-47.33276
2.0755	-54.98657
2.076	-60.22339
2.0765	-63.34534
2.077	-68.28003
2.0775	-69.1864
2.078	-64.05029
2.0785	-55.2887
2.079	-41.39099
2.0795	-21.65222
2.08	13.69629
2.0805	40.38391
2.081	48.03772
2.0815	38.87329
2.082	21.14868
2.0825	11.88354
2.083	-6.94885
2.0835	-17.82532
2.084	5.84106
2.0845	63.04321
2.085	115.61279
2.0855	157.00378
2.086	179.66309
2.0865	182.3822
2.087	189.43176
2.0875	161.23352
2.088	118.43262
2.0885	70.19348
2.089	31.62231
2.0895	-5.23682
2.09	-39.57825
2.0905	-61.73401
2.091	-76.03455
2.0915	-84.89685
2.092	-105.34058
2.0925	-112.08801
2.093	-121.65527
2.0935	-130.11475
2.094	-131.82678
2.0945	-121.45386
2.095	-107.65686
2.0955	-73.11401
2.096	-38.06763
2.0965	-25.27771
2.097	-20.44373
2.0975	-2.71912
2.098	56.49719
2.0985	132.12891
2.099	194.56787
2.0995	211.88965
2.1	196.98486
2.1005	176.54114
2.101	152.1698
2.1015	112.59155
2.102	89.63013
2.1025	56.49719
2.103	8.35876
2.1035	-38.974
2.104	-78.35083
2.1045	-101.01013
2.105	-82.78198
2.1055	-77.24304
2.106	-57.9071
2.1065	-55.69153
2.107	-57.9071
2.1075	-66.76941
2.108	-83.68835
2.1085	-112.18872
2.109	-129.40979
2.1095	-145.22095
2.11	-138.77563
2.1105	-146.32874
2.111	-139.17847
2.1115	-113.80005
2.112	-84.09119
2.1125	-27.39258
2.113	28.39966
2.1135	54.48303
2.114	81.67419
2.1145	89.93225
2.115	87.11243
2.1155	75.93384
2.116	63.64746
2.1165	55.89294
2.117	37.7655
2.1175	9.66797
2.118	-11.2793
2.1185	-26.08337
2.119	-45.72144
2.1195	-57.9071
2.12	-66.16516
2.1205	-74.42322
2.121	-73.81897
2.1215	-65.46021
2.122	-48.03772
2.1225	-32.02515
2.123	-18.02673
2.1235	-0.10071
2.124	17.01965
2.1245	30.51453
2.125	32.93152
2.1255	29.60815
2.126	31.4209
2.1265	37.86621
2.127	41.79382
2.1275	57.9071
2.128	59.51843
2.1285	56.79932
2.129	64.55383
2.1295	60.02197
2.13	51.86462
2.1305	37.7655
2.131	42.19666
2.1315	69.1864
2.132	90.5365
2.1325	81.17065
2.133	69.08569
2.1335	47.03064
2.134	27.09045
2.1345	14.80408
2.135	37.36267
2.1355	63.04321
2.136	49.14551
2.1365	30.31311
2.137	15.50903
2.1375	5.0354
2.138	25.88196
2.1385	32.93152
2.139	30.71594
2.1395	11.68213
2.14	-8.7616
2.1405	-36.15417
2.141	-61.33118
2.1415	-76.13525
2.142	-72.9126
2.1425	-89.93225
2.143	-90.93933
2.1435	-84.89685
2.144	-82.17773
2.1445	-68.68286
2.145	-57.00073
2.1455	-40.2832
2.146	-27.19116
2.1465	-4.63257
2.147	31.11877
2.1475	85.29968
2.148	146.02661
2.1485	189.9353
2.149	191.84875
2.1495	188.6261
2.15	174.02344
2.1505	151.06201
2.151	113.90076
2.1515	77.84729
2.152	39.07471
2.1525	3.62549
2.153	-22.76001
2.1535	-53.17383
2.154	-46.12427
2.1545	-16.11328
2.155	8.15735
2.1555	4.83398
2.156	-11.58142
2.1565	-34.64355
2.157	-61.33118
2.1575	-89.73083
2.158	-111.9873
2.1585	-119.64111
2.159	-115.00854
2.1595	-82.17773
2.16	-51.05896
2.1605	-22.05505
2.161	-2.5177
2.1615	-5.0354
2.162	-12.28638
2.1625	-19.63806
2.163	-20.94727
2.1635	-23.56567
2.164	-25.78125
2.1645	-12.5885
2.165	-2.5177
2.1655	7.25098
2.166	30.11169
2.1665	65.15808
2.167	97.88818
2.1675	127.49634
2.168	150.75989
2.1685	160.72998
2.169	149.95422
2.1695	154.6875
2.17	148.14148
2.1705	125.58289
2.171	80.06287
2.1715	40.78674
2.172	1.2085
2.1725	-10.37292
2.173	11.38
2.1735	0.40283
2.174	-25.57983
2.1745	-55.59082
2.175	-77.54517
2.1755	-97.78748
2.176	-127.99988
2.1765	-149.75281
2.177	-161.83777
2.1775	-170.49866
2.178	-181.87866
2.1785	-182.78503
2.179	-182.18079
2.1795	-169.08875
2.18	-150.25635
2.1805	-134.14307
2.181	-104.83704
2.1815	-83.28552
2.182	-54.98657
2.1825	-29.60815
2.183	-5.43823
2.1835	12.18567
2.184	23.96851
2.1845	29.20532
2.185	37.16125
2.1855	41.29028
2.186	39.57825
2.1865	36.55701
2.187	37.66479
2.1875	40.88745
2.188	35.04639
2.1885	33.03223
2.189	34.14001
2.1895	28.60107
2.19	30.71594
2.1905	41.59241
2.191	59.31702
2.1915	74.82605
2.192	90.73792
2.1925	99.2981
2.193	104.03137
2.1935	123.46802
2.194	121.55457
2.1945	111.48376
2.195	100.30518
2.1955	107.95898
2.196	148.14148
2.1965	174.72839
2.197	170.90149
2.1975	145.52307
2.198	110.37598
2.1985	69.89136
2.199	54.18091
2.1995	54.58374
2.2	61.12976
2.2005	44.71436
2.201	11.88354
2.2015	-26.68762
2.202	-45.41931
2.2025	-65.15808
2.203	-77.34375
2.2035	-73.91968
2.204	-76.94092
2.2045	-84.19189
2.205	-100.20447
2.2055	-94.96765
2.206	-73.81897
2.2065	-61.83472
2.207	-32.83081
2.2075	-5.13611
2.208	23.8678
2.2085	59.01489
2.209	77.74658
2.2095	71.60339
2.21	55.08728
2.2105	26.68762
2.211	-2.61841
2.2115	-22.45789
2.212	-41.39099
2.2125	-53.17383
2.213	-66.76941
2.2135	-77.84729
2.214	-84.09119
2.2145	-90.13367
2.215	-92.24854
2.2155	-101.51367
2.216	-96.57898
2.2165	-88.0188
2.217	-80.66711
2.2175	-56.79932
2.218	-33.13293
2.2185	18.12744
2.219	47.93701
2.2195	59.01489
2.22	61.93542
2.2205	61.53259
2.221	52.06604
2.2215	39.07471
2.222	32.02515
2.2225	27.19116
2.223	28.60107
2.2235	19.53735
2.224	15.60974
2.2245	40.88745
2.225	115.7135
2.2255	203.32947
2.226	251.87073
2.2265	270.30029
2.227	248.84949
2.2275	205.94788
2.228	155.69458
2.2285	96.57898
2.229	34.14001
2.2295	-23.16284
2.23	-65.15808
2.2305	-92.95349
2.231	-120.95032
2.2315	-132.12891
2.232	-150.8606
2.2325	-156.39954
2.233	-157.10449
2.2335	-152.87476
2.234	-156.90308
2.2345	-130.71899
2.235	-92.04712
2.2355	-49.95117
2.236	-30.41382
2.2365	-24.47205
2.237	-24.77417
2.2375	-25.177
2.238	-28.60107
2.2385	-41.18958
2.239	-41.99524
2.2395	-48.33984
2.24	-44.21082
2.2405	-47.53418
2.241	-37.86621
2.2415	-38.974
2.242	-32.22656
2.2425	-23.26355
2.243	-6.3446
2.2435	1.51062
2.244	9.97009
2.2445	17.22107
2.245	23.56567
2.2455	34.03931
2.246	56.09436
2.2465	80.16357
2.247	93.45703
2.2475	98.39172
2.248	95.16907
2.2485	90.83862
2.249	88.92517
2.2495	84.79614
2.25	74.32251
2.2505	83.78906
2.251	94.56482
2.2515	91.04004
2.252	70.69702
2.2525	52.46887
2.253	32.12585
2.2535	14.70337
2.254	13.797
2.2545	-4.63257
2.255	-12.08496
2.2555	-14.19983
2.256	-2.71912
2.2565	2.61841
2.257	-4.22974
2.2575	-6.04248
2.258	-27.6947
2.2585	-52.46887
2.259	-71.50269
2.2595	-72.40906
2.26	-52.67029
2.2605	-35.65063
2.261	-21.04797
2.2615	-12.38708
2.262	-2.5177
2.2625	2.71912
2.263	5.13611
2.2635	-5.94177
2.264	-6.64673
2.2645	-21.45081
2.265	-13.09204
2.2655	22.55859
2.266	68.28003
2.2665	115.61279
2.267	134.44519
2.2675	135.75439
2.268	125.07935
2.2685	106.14624
2.269	79.86145
2.2695	53.67737
2.27	31.62231
2.2705	3.12195
2.271	-21.65222
2.2715	-53.17383
2.272	-70.89844
2.2725	-80.26428
2.273	-87.61597
2.2735	-78.04871
2.274	-59.82056
2.2745	-51.66321
2.275	-50.15259
2.2755	-51.96533
2.276	-54.68445
2.2765	-49.85046
2.277	-37.56409
2.2775	-28.60107
2.278	-22.55859
2.2785	-20.94727
2.279	-18.42957
2.2795	-10.77576
2.28	20.24231
2.2805	68.07861
2.281	120.7489
2.2815	146.63086
2.282	149.85352
2.2825	133.63953
2.283	105.13916
2.2835	61.53259
2.284	28.09753
2.2845	-0.90637
2.285	-33.03223
2.2855	-58.10852
2.286	-80.66711
2.2865	-92.85278
2.287	-97.48535
2.2875	-94.3634
2.288	-73.91968
2.2885	-42.29736
2.289	-28.60107
2.2895	-4.33044
2.29	35.2478
2.2905	59.31702
2.291	58.61206
2.2915	51.76392
2.292	40.48462
2.2925	21.24939
2.293	0.60425
2.2935	-17.72461
2.294	-25.37842
2.2945	-23.96851
2.295	-9.56726
2.2955	10.37292
2.296	70.49561
2.2965	114.60571
2.297	124.97864
2.2975	142.90466
2.298	148.74573
2.2985	139.27917
2.299	104.73633
2.2995	63.34534
2.3	18.53027
2.3005	-33.53577
2.301	-83.58765
2.3015	-118.2312
2.302	-143.81104
2.3025	-152.27051
2.303	-140.58838
2.3035	-121.25244
2.304	-106.64978
2.3045	-89.42871
2.305	-80.06287
2.3055	-56.29578
2.306	-37.26196
2.3065	-23.96851
2.307	-18.8324
2.3075	-16.91895
2.308	-18.42957
2.3085	-14.70337
2.309	-13.39417
2.3095	-6.44531
2.31	-5.43823
2.3105	1.3092
2.311	7.75452
2.3115	16.61682
2.312	21.24939
2.3125	25.177
2.313	29.60815
2.3135	40.2832
2.314	59.51843
2.3145	69.08569
2.315	67.27295
2.3155	80.26428
2.316	96.98181
2.3165	147.03369
2.317	215.1123
2.3175	267.98401
2.318	305.04456
2.3185	308.46863
2.319	266.27197
2.3195	204.53796
2.32	135.15015
2.3205	76.23596
2.321	24.06921
2.3215	-36.85913
2.322	-92.34924
2.3225	-136.66077
2.323	-127.69775
2.3235	-74.92676
2.324	23.46497
2.3245	101.61438
2.325	115.51208
2.3255	106.75049
2.326	105.74341
2.3265	88.0188
2.327	48.33984
2.3275	-11.07788
2.328	-59.01489
2.3285	-93.65845
2.329	-131.42395
2.3295	-165.06042
2.33	-191.74805
2.3305	-208.96912
2.331	-216.52222
2.3315	-210.47974
2.332	-198.59619
2.3325	-185.50415
2.333	-164.45618
2.3335	-136.76147
2.334	-127.39563
2.3345	-107.45544
2.335	-100.6073
2.3355	-90.5365
2.336	-71.30127
2.3365	-44.0094
2.337	-27.29187
2.3375	-22.45789
2.338	-23.96851
2.3385	-13.797
2.339	-4.83398
2.3395	-1.00708
2.34	3.7262
2.3405	15.91187
2.341	16.71753
2.3415	18.73169
2.342	17.42249
2.3425	20.04089
2.343	26.78833
2.3435	39.27612
2.344	38.36975
2.3445	29.10461
2.345	19.23523
2.3455	15.1062
2.346	12.99133
2.3465	34.24072
2.347	48.13843
2.3475	46.92993
2.348	37.86621
2.3485	53.57666
2.349	69.28711
2.3495	64.75525
2.35	58.10852
2.3505	54.88586
2.351	52.8717
2.3515	39.98108
2.352	25.177
2.3525	27.99683
2.353	40.68604
2.3535	60.12268
2.354	66.6687
2.3545	64.45312
2.355	62.13684
2.3555	59.21631
2.356	45.72144
2.3565	37.06055
2.357	29.50745
2.3575	11.48071
2.358	0.40283
2.3585	-4.22974
2.359	-14.60266
2.3595	-20.54443
2.36	-25.78125
2.3605	-18.8324
2.361	-18.22815
2.3615	14.09912
2.362	49.54834
2.3625	72.61047
2.363	94.66553
2.3635	101.21155
2.364	97.98889
2.3645	79.96216
2.365	41.59241
2.3655	5.63965
2.366	-31.72302
2.3665	-59.41772
2.367	-83.38623
2.3675	-100.30518
2.368	-112.08801
2.3685	-117.02271
2.369	-101.31226
2.3695	-56.09436
2.37	-16.11328
2.3705	0.90637
2.371	10.17151
2.3715	4.83398
2.372	-9.16443
2.3725	-11.98425
2.373	-8.35876
2.3735	-5.94177
2.374	-7.65381
2.3745	4.73328
2.375	8.05664
2.3755	22.86072
2.376	50.65613
2.3765	61.33118
2.377	73.21472
2.3775	79.45862
2.378	93.55774
2.3785	103.32642
2.379	95.37048
2.3795	77.74658
2.38	66.76941
2.3805	31.4209
2.381	-3.12195
2.3815	-46.92993
2.382	-75.63171
2.3825	-98.29102
2.383	-106.04553
2.3835	-108.05969
2.384	-100.00305
2.3845	-64.65454
2.385	-8.7616
2.3855	56.79932
2.386	87.81738
2.3865	103.62854
2.387	111.8866
2.3875	115.00854
2.388	120.04395
2.3885	113.39722
2.389	90.13367
2.3895	60.72693
2.39	53.27454
2.3905	53.77808
2.391	52.06604
2.3915	40.2832
2.392	11.58142
2.3925	-7.04956
2.393	-35.54993
2.3935	-65.76233
2.394	-84.79614
2.3945	-73.11401
2.395	-70.69702
2.3955	-62.53967
2.396	-62.13684
2.3965	-58.81348
2.397	-64.75525
2.3975	-77.44446
2.398	-76.33667
2.3985	-80.06287
2.399	-76.13525
2.3995	-70.69702
2.4	-66.76941
2.4005	-54.78516
2.401	-43.60657
2.4015	-42.59949
2.402	-36.4563
2.4025	-6.64673
2.403	17.82532
2.4035	13.99841
2.404	9.76868
2.4045	31.52161
2.405	59.71985
2.4055	81.57349
2.406	98.29102
2.4065	108.36182
2.407	128.50342
2.4075	180.56946
2.408	208.56628
2.4085	203.32947
2.409	183.18787
2.4095	157.80945
2.41	129.00696
2.4105	96.98181
2.411	65.56091
2.4115	32.32727
2.412	-2.21558
2.4125	-32.02515
2.413	-55.08728
2.4135	-76.13525
2.414	-98.69385
2.4145	-121.65527
2.415	-147.1344
2.4155	-157.00378
2.416	-140.28625
2.4165	-74.2218
2.417	10.37292
2.4175	50.2533
2.418	65.56091
2.4185	92.14783
2.419	88.62305
2.4195	55.49011
2.42	-1.91345
2.4205	-48.74268
2.421	-83.58765
2.4215	-93.55774
2.422	-90.63721
2.4225	-98.89526
2.423	-102.01721
2.4235	-106.44836
2.424	-114.4043
2.4245	-121.15173
2.425	-126.18713
2.4255	-120.95032
2.426	-113.59863
2.4265	-92.14783
2.427	-44.81506
2.4275	-5.13611
2.428	16.01257
2.4285	35.75134
2.429	41.18958
2.4295	48.44055
2.43	44.81506
2.4305	34.14001
2.431	55.69153
2.4315	118.63403
2.432	156.90308
2.4325	160.62927
2.433	142.40112
2.4335	111.68518
2.434	71.7041
2.4345	29.10461
2.435	-13.39417
2.4355	-49.14551
2.436	-74.32251
2.4365	-97.58606
2.437	-116.21704
2.4375	-132.43103
2.438	-131.62537
2.4385	-115.20996
2.439	-100.10376
2.4395	-84.99756
2.44	-67.8772
2.4405	-43.70728
2.441	-30.2124
2.4415	-24.47205
2.442	-17.01965
2.4425	-10.0708
2.443	-12.08496
2.4435	-11.98425
2.444	-12.99133
2.4445	-4.73328
2.445	7.75452
2.4455	18.42957
2.446	26.08337
2.4465	31.4209
2.447	36.15417
2.4475	34.84497
2.448	55.89294
2.4485	101.71509
2.449	138.27209
2.4495	153.88184
2.45	162.54272
2.4505	163.24768
2.451	157.40662
2.4515	149.75281
2.452	140.58838
2.4525	125.07935
2.453	95.06836
2.4535	59.92126
2.454	28.60107
2.4545	5.0354
2.455	-3.02124
2.4555	1.00708
2.456	28.09753
2.4565	53.17383
2.457	34.94568
2.4575	2.31628
2.458	-29.50745
2.4585	-38.26904
2.459	-49.54834
2.4595	-71.50269
2.46	-88.82446
2.4605	-105.94482
2.461	-121.15173
2.4615	-119.33899
2.462	-119.23828
2.4625	-109.26819
2.463	-104.23279
2.4635	-95.06836
2.464	-84.39331
2.4645	-76.23596
2.465	-66.46729
2.4655	-30.11169
2.466	20.34302
2.4665	54.0802
2.467	73.31543
2.4675	81.27136
2.468	76.84021
2.4685	62.43896
2.469	52.97241
2.4695	57.20215
2.47	70.29419
2.4705	78.45154
2.471	73.91968
2.4715	75.53101
2.472	66.06445
2.4725	50.65613
2.473	51.96533
2.4735	51.46179
2.474	32.22656
2.4745	22.55859
2.475	0.80566
2.4755	-3.12195
2.476	-14.90479
2.4765	-2.92053
2.477	14.70337
2.4775	29.20532
2.478	25.37842
2.4785	15.1062
2.479	-7.25098
2.4795	-15.1062
2.48	-28.19824
2.4805	-32.83081
2.481	-47.93701
2.4815	-60.82764
2.482	-67.67578
2.4825	-66.16516
2.483	-47.93701
2.4835	-26.58691
2.484	7.04956
2.4845	33.13293
2.485	36.15417
2.4855	34.14001
2.486	25.57983
2.4865	15.81116
2.487	-7.04956
2.4875	-10.67505
2.488	-4.22974
2.4885	-4.22974
2.489	-10.0708
2.4895	-12.28638
2.49	-5.43823
2.4905	5.33752
2.491	12.78992
2.4915	21.24939
2.492	36.4563
2.4925	43.50586
2.493	41.39099
2.4935	27.49329
2.494	27.79541
2.4945	73.71826
2.495	131.32324
2.4955	162.03918
2.496	163.4491
2.4965	142.50183
2.497	135.45227
2.4975	157.60803
2.498	154.6875
2.4985	129.00696
2.499	81.87561
2.4995	15.50903
2.5	-40.1825
2.5005	-78.45154
2.501	-112.49084
2.5015	-148.94714
2.502	-171.50574
2.5025	-172.91565
2.503	-175.33264
2.5035	-163.75122
2.504	-162.74414
2.5045	-141.59546
2.505	-125.68359
2.5055	-90.73792
2.506	-63.04321
2.5065	-42.19666
2.507	-23.46497
2.5075	-15.20691
2.508	-11.17859
2.5085	0.50354
2.509	-0.60425
2.5095	7.75452
2.51	17.32178
2.5105	30.51453
2.511	37.46338
2.5115	33.23364
2.512	35.65063
2.5125	41.99524
2.513	55.89294
2.5135	67.67578
2.514	84.39331
2.5145	118.02979
2.515	146.73157
2.5155	146.42944
2.516	135.45227
2.5165	100.00305
2.517	63.54675
2.5175	23.56567
2.518	18.22815
2.5185	50.05188
2.519	67.17224
2.5195	56.69861
2.52	42.59949
2.5205	23.96851
2.521	-3.8269
2.5215	-28.39966
2.522	-52.16675
2.5225	-69.99207
2.523	-78.65295
2.5235	-83.58765
2.524	-93.35632
2.5245	-94.66553
2.525	-94.16199
2.5255	-88.72375
2.526	-64.35242
2.5265	-50.354
2.527	-44.0094
2.5275	-42.7002
2.528	-34.24072
2.5285	-26.58691
2.529	-16.71753
2.5295	-15.00549
2.53	-13.49487
2.5305	-4.33044
2.531	-8.7616
2.5315	-17.72461
2.532	-26.58691
2.5325	-20.74585
2.533	2.21558
2.5335	16.41541
2.534	25.98267
2.5345	16.71753
2.535	18.02673
2.5355	21.3501
2.536	21.95435
2.5365	21.04797
2.537	19.03381
2.5375	19.03381
2.538	15.20691
2.5385	10.17151
2.539	6.74744
2.5395	4.93469
2.54	7.65381
2.5405	12.5885
2.541	22.96143
2.5415	32.93152
2.542	35.34851
2.5425	40.38391
2.543	43.50586
2.5435	46.02356
2.544	54.28162
2.5445	41.29028
2.545	26.48621
2.5455	15.20691
2.546	-3.02124
2.5465	-7.75452
2.547	-8.05664
2.5475	11.98425
2.548	29.40674
2.5485	39.37683
2.549	43.80798
2.5495	32.32727
2.55	27.29187
2.5505	48.44055
2.551	61.73401
2.5515	64.65454
2.552	63.74817
2.5525	64.95667
2.553	75.02747
2.5535	87.51526
2.554	101.8158
2.5545	95.87402
2.555	76.53809
2.5555	40.58533
2.556	20.54443
2.5565	26.88904
2.557	21.65222
2.5575	0.10071
2.558	-26.08337
2.5585	-48.74268
2.559	-44.91577
2.5595	-36.15417
2.56	-34.64355
2.5605	-44.31152
2.561	-48.03772
2.5615	-51.66321
2.562	-54.88586
2.5625	-57.10144
2.563	-31.82373
2.5635	19.53735
2.564	50.354
2.5645	63.44604
2.565	69.08569
2.5655	67.07153
2.566	62.03613
2.5665	39.77966
2.567	29.80957
2.5675	40.2832
2.568	30.61523
2.5685	12.78992
2.569	-17.01965
2.5695	-19.13452
2.57	-25.88196
2.5705	-36.75842
2.571	-43.30444
2.5715	-58.51135
2.572	-63.44604
2.5725	-73.21472
2.573	-90.13367
2.5735	-96.98181
2.574	-115.61279
2.5745	-116.21704
2.575	-107.05261
2.5755	-84.39331
2.576	-38.47046
2.5765	5.23682
2.577	27.79541
2.5775	53.47595
2.578	111.08093
2.5785	190.43884
2.579	219.34204
2.5795	219.54346
2.58	189.23035
2.5805	151.46484
2.581	104.03137
2.5815	80.66711
2.582	61.02905
2.5825	23.8678
2.583	-9.76868
2.5835	-32.02515
2.584	-11.17859
2.5845	47.63489
2.585	52.46887
2.5855	36.75842
2.586	9.97009
2.5865	-24.97559
2.587	-55.79224
2.5875	-103.52783
2.588	-138.27209
2.5885	-155.896
2.589	-166.57104
2.5895	-182.28149
2.59	-170.90149
2.5905	-148.04077
2.591	-127.79846
2.5915	-115.10925
2.592	-102.52075
2.5925	-79.86145
2.593	-66.36658
2.5935	-53.67737
2.594	-37.96692
2.5945	-24.16992
2.595	-14.30054
2.5955	-3.92761
2.596	1.61133
2.5965	8.15735
2.597	14.50195
2.5975	21.65222
2.598	27.19116
2.5985	17.82532
2.599	14.90479
2.5995	25.88196
2.6	15.60974
2.6005	20.24231
2.601	22.25647
2.6015	35.34851
2.602	34.34143
2.6025	36.25488
2.603	30.91736
2.6035	16.3147
2.604	11.88354
2.6045	10.67505
2.605	14.09912
2.6055	22.05505
2.606	28.80249
2.6065	45.2179
2.607	80.66711
2.6075	107.05261
2.608	115.00854
2.6085	111.28235
2.609	96.67969
2.6095	83.18481
2.61	72.00623
2.6105	61.6333
2.611	48.64197
2.6115	30.61523
2.612	14.80408
2.6125	7.75452
2.613	-0.50354
2.6135	-6.74744
2.614	-12.5885
2.6145	-21.45081
2.615	-23.76709
2.6155	-35.75134
2.616	-36.65771
2.6165	-36.55701
2.617	-31.72302
2.6175	-21.3501
2.618	-15.30762
2.6185	-2.92053
2.619	49.0448
2.6195	96.7804
2.62	113.49792
2.6205	114.30359
2.621	130.41687
2.6215	133.43811
2.622	150.25635
2.6225	156.60095
2.623	149.34998
2.6235	117.22412
2.624	69.28711
2.6245	26.68762
2.625	1.61133
2.6255	-20.54443
2.626	-30.41382
2.6265	-34.24072
2.627	-22.15576
2.6275	-9.76868
2.628	-12.89062
2.6285	-20.04089
2.629	-23.66638
2.6295	-30.81665
2.63	-23.66638
2.6305	3.12195
2.631	34.54285
2.6315	41.4917
2.632	58.71277
2.6325	63.14392
2.633	37.56409
2.6335	-5.13611
2.634	-30.51453
2.6345	-29.80957
2.635	-25.27771
2.6355	-31.11877
2.636	-55.79224
2.6365	-91.44287
2.637	-112.79297
2.6375	-130.01404
2.638	-140.78979
2.6385	-132.22961
2.639	-114.30359
2.6395	-80.26428
2.64	-40.98816
2.6405	-23.06213
2.641	-13.797
2.6415	-12.48779
2.642	-12.78992
2.6425	-22.6593
2.643	-32.12585
2.6435	-38.67188
2.644	-51.96533
2.6445	-55.69153
2.645	-53.97949
2.6455	-51.36108
2.646	-36.75842
2.6465	-28.70178
2.647	-11.98425
2.6475	-7.15027
2.648	1.40991
2.6485	-3.32336
2.649	0.60425
2.6495	4.22974
2.65	23.8678
2.6505	65.46021
2.651	82.9834
2.6515	84.59473
2.652	86.70959
2.6525	67.8772
2.653	48.23914
2.6535	29.30603
2.654	23.66638
2.6545	16.21399
2.655	7.5531
2.6555	-5.0354
2.656	-19.53735
2.6565	-30.91736
2.657	-37.36267
2.6575	-42.09595
2.658	-42.59949
2.6585	-26.48621
2.659	-15.20691
2.6595	0
2.66	15.30762
2.6605	41.29028
2.661	60.3241
2.6615	79.15649
2.662	74.12109
2.6625	61.33118
2.663	47.43347
2.6635	40.78674
2.664	43.10303
2.6645	33.63647
2.665	12.38708
2.6655	-9.76868
2.666	-26.08337
2.6665	-36.05347
2.667	-49.54834
2.6675	-55.49011
2.668	-61.43188
2.6685	-63.14392
2.669	-63.24463
2.6695	-66.36658
2.67	-66.26587
2.6705	-68.17932
2.671	-69.79065
2.6715	-56.5979
2.672	-43.20374
2.6725	-27.79541
2.673	-15.91187
2.6735	-1.51062
2.674	-4.33044
2.6745	1.40991
2.675	13.39417
2.6755	16.91895
2.676	17.12036
2.6765	26.98975
2.677	45.01648
2.6775	55.49011
2.678	61.33118
2.6785	63.14392
2.679	108.1604
2.6795	177.24609
2.68	233.74329
2.6805	249.25232
2.681	227.19727
2.6815	181.57654
2.682	126.9928
2.6825	64.05029
2.683	9.36584
2.6835	-24.57275
2.684	-59.71985
2.6845	-90.93933
2.685	-109.67102
2.6855	-119.94324
2.686	-119.64111
2.6865	-83.58765
2.687	-39.27612
2.6875	2.81982
2.688	23.36426
2.6885	18.32886
2.689	18.22815
2.6895	39.47754
2.69	56.49719
2.6905	65.25879
2.691	51.66321
2.6915	37.46338
2.692	12.48779
2.6925	-2.31628
2.693	-20.54443
2.6935	-49.0448
2.694	-62.53967
2.6945	-69.58923
2.695	-69.79065
2.6955	-77.64587
2.696	-82.07703
2.6965	-76.63879
2.697	-40.48462
2.6975	5.43823
2.698	31.4209
2.6985	45.3186
2.699	33.63647
2.6995	10.97717
2.7	-5.43823
2.7005	8.45947
2.701	33.83789
2.7015	47.7356
2.702	61.6333
2.7025	55.99365
2.703	39.17542
2.7035	14.60266
2.704	16.81824
2.7045	16.11328
2.705	7.04956
2.7055	30.31311
2.706	72.40906
2.7065	95.16907
2.707	89.328
2.7075	64.45312
2.708	40.38391
2.7085	25.177
2.709	10.0708
2.7095	-12.89062
2.71	-37.86621
2.7105	-64.25171
2.711	-87.61597
2.7115	-96.67969
2.712	-98.59314
2.7125	-92.75208
2.713	-88.11951
2.7135	-73.21472
2.714	-59.01489
2.7145	-35.95276
2.715	-7.85522
2.7155	3.92761
2.716	15.81116
2.7165	31.92444
2.717	40.58533
2.7175	34.44214
2.718	16.91895
2.7185	11.58142
2.719	16.71753
2.7195	8.66089
2.72	1.61133
2.7205	-7.85522
2.721	-18.22815
2.7215	-23.76709
2.722	-23.26355
2.7225	21.95435
2.723	96.8811
2.7235	139.68201
2.724	151.36414
2.7245	128.10059
2.725	100.30518
2.7255	69.08569
2.726	51.05896
2.7265	37.7655
2.727	29.10461
2.7275	11.38
2.728	0.60425
2.7285	-19.73877
2.729	-34.74426
2.7295	-54.28162
2.73	-53.57666
2.7305	-55.59082
2.731	-50.15259
2.7315	-39.07471
2.732	4.73328
2.7325	40.38391
2.733	58.91418
2.7335	54.48303
2.734	44.71436
2.7345	11.38
2.735	-19.43665
2.7355	-48.64197
2.736	-69.1864
2.7365	-76.84021
2.737	-83.48694
2.7375	-97.68677
2.738	-106.9519
2.7385	-97.68677
2.739	-85.09827
2.7395	-85.09827
2.74	-85.09827
2.7405	-85.09827
2.741	-85.09827
2.7415	-85.09827
2.742	-85.09827
2.7425	-85.09827
2.743	-85.09827
2.7435	-85.09827
2.744	-85.09827
2.7445	-85.09827
2.745	-85.09827
2.7455	-85.09827
2.746	-85.09827
2.7465	-85.09827
2.747	-85.09827
2.7475	-85.09827
2.748	-85.09827
2.7485	-85.09827
2.749	-85.09827
2.7495	81.17065
2.75	83.78906
2.7505	80.36499
2.751	64.95667
2.7515	54.0802
2.752	44.61365
2.7525	36.15417
2.753	18.8324
2.7535	21.95435
2.754	15.20691
2.7545	18.02673
2.755	2.01416
2.7555	-7.5531
2.756	-16.3147
2.7565	-26.3855
2.757	-21.24939
2.7575	-27.39258
2.758	-36.55701
2.7585	-44.11011
2.759	-42.19666
2.7595	-40.88745
2.76	-40.08179
2.7605	-38.87329
2.761	-39.27612
2.7615	-22.55859
2.762	18.42957
2.7625	49.24622
2.763	74.82605
2.7635	119.23828
2.764	138.97705
2.7645	149.45068
2.765	143.20679
2.7655	118.33191
2.766	90.03296
2.7665	48.64197
2.767	12.5885
2.7675	-4.43115
2.768	-17.72461
2.7685	-21.04797
2.769	-8.45947
2.7695	-11.38
2.77	-19.53735
2.7705	-25.78125
2.771	-2.31628
2.7715	21.24939
2.772	43.40515
2.7725	46.32568
2.773	24.06921
2.7735	16.91895
2.774	9.56726
2.7745	-3.52478
2.775	-15.81116
2.7755	-28.50037
2.776	-42.39807
2.7765	-63.14392
2.777	-66.46729
2.7775	-40.1825
2.778	-28.39966
2.7785	-38.77258
2.779	-55.3894
2.7795	-56.5979
2.78	-69.08569
2.7805	-66.26587
2.781	-60.3241
2.7815	-58.00781
2.782	-48.03772
2.7825	-44.41223
2.783	-33.43506
2.7835	-10.47363
2.784	18.73169
2.7845	33.73718
2.785	32.42798
2.7855	46.62781
2.786	49.44763
2.7865	52.56958
2.787	62.33826
2.7875	66.76941
2.788	66.36658
2.7885	55.69153
2.789	43.20374
2.7895	20.54443
2.79	7.65381
2.7905	3.62549
2.791	2.01416
2.7915	0.40283
2.792	-0.30212
2.7925	5.84106
2.793	4.43115
2.7935	7.95593
2.794	-0.60425
2.7945	-0.60425
2.795	-10.67505
2.7955	-25.57983
2.796	-40.88745
2.7965	-48.54126
2.797	-55.69153
2.7975	-56.5979
2.798	-50.55542
2.7985	-37.96692
2.799	-20.54443
2.7995	-18.53027
2.8	-14.60266
2.8005	-3.8269
2.801	-7.95593
2.8015	-16.51611
2.802	-25.57983
2.8025	-22.96143
2.803	-26.98975
2.8035	-27.99683
2.804	-27.99683
2.8045	-17.42249
2.805	-20.1416
2.8055	-13.49487
2.806	-7.85522
2.8065	-5.74036
2.807	-8.8623
2.8075	-0.30212
2.808	9.06372
2.8085	32.42798
2.809	76.33667
2.8095	129.81262
2.81	154.48608
2.8105	155.59387
2.811	134.94873
2.8115	96.27686
2.812	54.28162
2.8125	21.65222
2.813	-19.83948
2.8135	-44.41223
2.814	-58.91418
2.8145	-71.40198
2.815	-66.46729
2.8155	-67.47437
2.816	-57.50427
2.8165	-50.85754
2.817	-35.65063
2.8175	-16.91895
2.818	5.94177
2.8185	27.49329
2.819	38.87329
2.8195	44.71436
2.82	50.45471
2.8205	55.49011
2.821	64.75525
2.8215	72.20764
2.822	74.72534
2.8225	69.38782
2.823	58.30994
2.8235	34.54285
2.824	17.12036
2.8245	0.30212
2.825	-7.5531
2.8255	-9.76868
2.826	-19.83948
2.8265	-22.76001
2.827	-23.06213
2.8275	-22.55859
2.828	-23.96851
2.8285	-24.16992
2.829	-25.37842
2.8295	-24.27063
2.83	-24.87488
2.8305	-31.21948
2.831	-23.56567
2.8315	6.94885
2.832	30.2124
2.8325	47.93701
2.833	50.15259
2.8335	46.42639
2.834	56.49719
2.8345	58.71277
2.835	50.95825
2.8355	40.38391
2.836	26.58691
2.8365	17.92603
2.837	10.87646
2.8375	26.88904
2.838	34.64355
2.8385	32.22656
2.839	21.04797
2.8395	18.32886
2.84	28.39966
2.8405	24.27063
2.841	19.13452
2.8415	12.38708
2.842	12.78992
2.8425	44.11011
2.843	74.82605
2.8435	77.14233
2.844	71.80481
2.8445	55.59082
2.845	36.65771
2.8455	8.15735
2.846	-23.46497
2.8465	-57.20215
2.847	-73.91968
2.8475	-79.86145
2.848	-86.50818
2.8485	-94.3634
2.849	-98.19031
2.8495	-90.13367
2.85	-88.0188
2.8505	-75.73242
2.851	-68.58215
2.8515	-61.23047
2.852	-62.13684
2.8525	-52.97241
2.853	-39.88037
2.8535	-28.19824
2.854	-27.59399
2.8545	-16.21399
2.855	15.1062
2.8555	61.23047
2.856	88.11951
2.8565	84.89685
2.857	72.20764
2.8575	59.01489
2.858	49.74976
2.8585	40.08179
2.859	29.91028
2.8595	8.96301
2.86	-8.66089
2.8605	-23.66638
2.861	-35.44922
2.8615	-40.48462
2.862	-31.01807
2.8625	-36.75842
2.863	-32.22656
2.8635	-20.04089
2.864	-18.93311
2.8645	-16.41541
2.865	-7.85522
2.8655	-5.33752
2.866	1.10779
2.8665	2.31628
2.867	8.96301
2.8675	11.48071
2.868	11.48071
2.8685	33.53577
2.869	59.82056
2.8695	73.61755
2.87	74.12109
2.8705	63.64746
2.871	49.85046
2.8715	43.80798
2.872	47.53418
2.8725	39.98108
2.873	32.7301
2.8735	20.34302
2.874	3.7262
2.8745	-8.35876
2.875	-13.39417
2.8755	-22.86072
2.876	-21.45081
2.8765	-11.07788
2.877	-14.40125
2.8775	-13.29346
2.878	-7.15027
2.8785	-4.53186
2.879	-5.74036
2.8795	-5.53894
2.88	7.04956
2.8805	18.8324
2.881	26.3855
2.8815	19.94019
2.882	20.94727
2.8825	25.78125
2.883	27.39258
2.8835	29.20532
2.884	33.9386
2.8845	38.57117
2.885	41.89453
2.8855	33.23364
2.886	28.29895
2.8865	21.85364
2.887	11.88354
2.8875	-1.3092
2.888	-11.78284
2.8885	-21.04797
2.889	-26.3855
2.8895	-26.08337
2.89	-32.62939
2.8905	-25.78125
2.891	-28.9032
2.8915	-27.89612
2.892	-17.72461
2.8925	-15.91187
2.893	-0.70496
2.8935	14.70337
2.894	27.6947
2.8945	34.84497
2.895	29.40674
2.8955	26.58691
2.896	25.98267
2.8965	25.78125
2.897	18.8324
2.8975	13.09204
2.898	1.51062
2.8985	6.3446
2.899	43.10303
2.8995	101.11084
2.9	138.07068
2.9005	147.63794
2.901	128.70483
2.9015	101.51367
2.902	66.56799
2.9025	26.78833
2.903	-20.44373
2.9035	-43.60657
2.904	-69.08569
2.9045	-88.72375
2.905	-103.42712
2.9055	-109.57031
2.906	-117.52625
2.9065	-115.00854
2.907	-106.04553
2.9075	-82.78198
2.908	-71.30127
2.9085	-54.28162
2.909	-38.57117
2.9095	-32.62939
2.91	-25.07629
2.9105	-13.59558
2.911	-10.47363
2.9115	12.89062
2.912	48.64197
2.9125	63.74817
2.913	73.21472
2.9135	79.55933
2.914	83.28552
2.9145	78.25012
2.915	59.51843
2.9155	46.22498
2.916	36.75842
2.9165	27.49329
2.917	19.94019
2.9175	13.99841
2.918	22.05505
2.9185	30.31311
2.919	69.79065
2.9195	90.93933
2.92	102.72217
2.9205	110.27527
2.921	122.15881
2.9215	119.03687
2.922	101.11084
2.9225	84.19189
2.923	60.92834
2.9235	37.66479
2.924	2.61841
2.9245	-21.04797
2.925	-47.8363
2.9255	-62.33826
2.926	-76.94092
2.9265	-91.8457
2.927	-100.90942
2.9275	-91.04004
2.928	-87.51526
2.9285	-79.55933
2.929	-69.28711
2.9295	-67.07153
2.93	-67.67578
2.9305	-75.02747
2.931	-85.90393
2.9315	-84.09119
2.932	-73.61755
2.9325	-69.99207
2.933	-63.64746
2.9335	-54.98657
2.934	-45.3186
2.9345	-36.85913
2.935	-27.19116
2.9355	2.92053
2.936	23.96851
2.9365	41.39099
2.937	56.39648
2.9375	82.07703
2.938	102.11792
2.9385	136.86218
2.939	170.19653
2.9395	171.10291
2.94	167.57812
2.9405	130.41687
2.941	118.53333
2.9415	104.53491
2.942	76.23596
2.9425	48.33984
2.943	10.27222
2.9435	-20.1416
2.944	-41.39099
2.9445	-61.6333
2.945	-73.11401
2.9455	-78.95508
2.946	-79.55933
2.9465	-73.81897
2.947	-58.71277
2.9475	-39.57825
2.948	-20.54443
2.9485	-1.3092
2.949	13.797
2.9495	37.7655
2.95	73.41614
2.9505	87.01172
2.951	82.9834
2.9515	56.19507
2.952	28.19824
2.9525	-5.43823
2.953	-40.38391
2.9535	-67.77649
2.954	-73.61755
2.9545	-74.92676
2.955	-81.7749
2.9555	-85.19897
2.956	-84.49402
2.9565	-95.97473
2.957	-104.13208
2.9575	-89.83154
2.958	-71.60339
2.9585	-56.90002
2.959	-51.15967
2.9595	-39.88037
2.96	-10.37292
2.9605	12.18567
2.961	26.18408
2.9615	33.43506
2.962	37.96692
2.9625	42.29736
2.963	40.98816
2.9635	37.56409
2.964	31.72302
2.9645	28.50037
2.965	27.49329
2.9655	33.9386
2.966	29.40674
2.9665	27.09045
2.967	22.96143
2.9675	13.69629
2.968	6.84814
2.9685	0.40283
2.969	-18.8324
2.9695	-23.76709
2.97	-17.82532
2.9705	-8.05664
2.971	8.7616
2.9715	18.63098
2.972	26.3855
2.9725	28.60107
2.973	36.4563
2.9735	50.55542
2.974	56.39648
2.9745	45.01648
2.975	41.08887
2.9755	44.51294
2.976	32.7301
2.9765	12.89062
2.977	8.8623
2.9775	1.3092
2.978	-5.13611
2.9785	-0.90637
2.979	1.3092
2.9795	-1.10779
2.98	13.59558
2.9805	24.06921
2.981	20.54443
2.9815	14.70337
2.982	-2.11487
2.9825	-2.5177
2.983	2.5177
2.9835	14.50195
2.984	25.37842
2.9845	31.21948
2.985	34.54285
2.9855	27.59399
2.986	15.00549
2.9865	18.42957
2.987	24.16992
2.9875	51.76392
2.988	69.48853
2.9885	90.33508
2.989	131.82678
2.9895	165.9668
2.99	163.85193
2.9905	143.60962
2.991	105.03845
2.9915	68.58215
2.992	19.43665
2.9925	-22.05505
2.993	-53.17383
2.9935	-82.37915
2.994	-103.72925
2.9945	-114.10217
2.995	-114.505
2.9955	-76.84021
2.996	-56.90002
2.9965	-52.56958
2.997	-53.77808
2.9975	-54.68445
2.998	-65.3595
2.9985	-66.56799
2.999	-62.33826
2.9995	-40.78674
3	-30.71594
3.0005	-21.24939
3.001	-14.60266
3.0015	-11.68213
3.002	-3.7262
3.0025	10.57434
3.003	26.08337
3.0035	38.87329
3.004	62.8418
3.0045	96.07544
3.005	99.2981
3.0055	88.11951
3.006	60.92834
3.0065	43.20374
3.007	22.96143
3.0075	-5.74036
3.008	-19.43665
3.0085	-47.8363
3.009	-62.13684
3.0095	-58.41064
3.01	-43.00232
3.0105	-11.48071
3.011	26.48621
3.0115	51.15967
3.012	112.79297
3.0125	152.67334
3.013	148.64502
3.0135	124.37439
3.014	85.09827
3.0145	42.29736
3.015	0.70496
3.0155	-32.7301
3.016	-56.69861
3.0165	-65.96375
3.017	-72.9126
3.0175	-76.84021
3.018	-69.79065
3.0185	-55.69153
3.019	-39.98108
3.0195	-20.1416
3.02	-11.68213
3.0205	-22.35718
3.021	-31.92444
3.0215	-38.57117
3.022	-42.59949
3.0225	-49.64905
3.023	-48.84338
3.0235	-46.5271
3.024	-41.59241
3.0245	-38.77258
3.025	-37.36267
3.0255	-35.44922
3.026	-28.80249
3.0265	-17.52319
3.027	-4.12903
3.0275	7.35168
3.028	23.46497
3.0285	42.8009
3.029	43.80798
3.0295	44.41223
3.03	47.63489
3.0305	40.68604
3.031	35.75134
3.0315	28.09753
3.032	32.93152
3.0325	45.3186
3.033	52.97241
3.0335	39.67896
3.034	31.82373
3.0345	20.1416
3.035	6.04248
3.0355	-1.91345
3.036	-9.76868
3.0365	-12.38708
3.037	-10.87646
3.0375	-22.15576
3.038	-33.33435
3.0385	-35.54993
3.039	-20.44373
3.0395	-2.21558
3.04	10.67505
3.0405	10.47363
3.041	11.48071
3.0415	18.02673
3.042	16.81824
3.0425	9.86938
3.043	0.40283
3.0435	-6.54602
3.044	-15.71045
3.0445	-13.89771
3.045	-18.53027
3.0455	-18.63098
3.046	-22.35718
3.0465	-18.32886
3.047	-24.87488
3.0475	-21.3501
3.048	-15.20691
3.0485	-18.12744
3.049	-10.67505
3.0495	-9.66797
3.05	-1.81274
3.0505	12.78992
3.051	17.42249
3.0515	26.08337
3.052	36.4563
3.0525	43.80798
3.053	70.79773
3.0535	103.72925
3.054	128.90625
3.0545	145.9259
3.055	149.85352
3.0555	124.97864
3.056	101.11084
3.0565	102.82288
3.057	99.80164
3.0575	75.32959
3.058	32.7301
3.0585	2.21558
3.059	-28.19824
3.0595	-43.60657
3.06	-52.06604
3.0605	-49.24622
3.061	-55.59082
3.0615	-54.0802
3.062	-51.96533
3.0625	-42.8009
3.063	-36.25488
3.0635	-33.33435
3.064	-14.60266
3.0645	31.52161
3.065	46.42639
3.0655	49.54834
3.066	36.15417
3.0665	65.46021
3.067	107.75757
3.0675	132.33032
3.068	158.5144
3.0685	159.62219
3.069	134.74731
3.0695	85.70251
3.07	20.44373
3.0705	-27.49329
3.071	-80.26428
3.0715	-117.62695
3.072	-152.77405
3.0725	-183.18787
3.073	-200.40894
3.0735	-205.14221
3.074	-201.51672
3.0745	-191.74805
3.075	-169.49158
3.0755	-137.46643
3.076	-116.31775
3.0765	-92.95349
3.077	-75.4303
3.0775	-54.98657
3.078	-43.00232
3.0785	-21.04797
3.079	-17.72461
3.0795	-9.97009
3.08	-6.74744
3.0805	-3.22266
3.081	0.50354
3.0815	7.04956
3.082	15.81116
3.0825	27.99683
3.083	45.62073
3.0835	60.72693
3.084	69.38782
3.0845	72.10693
3.085	71.7041
3.0855	71.7041
3.086	78.04871
3.0865	89.52942
3.087	100.00305
3.0875	113.49792
3.088	127.99988
3.0885	123.66943
3.089	112.49084
3.0895	92.24854
3.09	67.47437
3.0905	50.55542
3.091	26.28479
3.0915	16.11328
3.092	-2.41699
3.0925	-12.68921
3.093	2.92053
3.0935	41.39099
3.094	64.75525
3.0945	59.01489
3.095	44.41223
3.0955	18.93311
3.096	-0.10071
3.0965	-13.39417
3.097	-22.25647
3.0975	-36.15417
3.098	-44.91577
3.0985	-47.23206
3.099	-63.04321
3.0995	-76.7395
3.1	-85.29968
3.1005	-84.79614
3.101	-83.18481
3.1015	-72.81189
3.102	-63.14392
3.1025	-55.59082
3.103	-48.64197
3.1035	-52.36816
3.104	-35.65063
3.1045	-23.06213
3.105	-11.68213
3.1055	5.53894
3.106	10.77576
3.1065	15.60974
3.107	19.83948
3.1075	34.54285
3.108	39.27612
3.1085	35.54993
3.109	37.06055
3.1095	35.2478
3.11	33.13293
3.1105	29.10461
3.111	28.29895
3.1115	51.05896
3.112	108.46252
3.1125	165.66467
3.113	185.30273
3.1135	173.72131
3.114	152.27051
3.1145	122.46094
3.115	92.65137
3.1155	52.36816
3.116	27.89612
3.1165	20.44373
3.117	6.54602
3.1175	-8.25806
3.118	-21.24939
3.1185	-35.95276
3.119	-50.354
3.1195	-55.89294
3.12	-64.65454
3.1205	-76.23596
3.121	-85.80322
3.1215	-100.6073
3.122	-115.7135
3.1225	-117.72766
3.123	-105.03845
3.1235	-85.60181
3.124	-76.94092
3.1245	-66.46729
3.125	-65.56091
3.1255	-41.69312
3.126	-9.86938
3.1265	16.61682
3.127	26.78833
3.1275	33.83789
3.128	33.43506
3.1285	29.40674
3.129	18.22815
3.1295	23.66638
3.13	52.771
3.1305	88.92517
3.131	105.94482
3.1315	107.25403
3.132	87.01172
3.1325	80.36499
3.133	103.02429
3.1335	106.9519
3.134	82.27844
3.1345	48.33984
3.135	20.94727
3.1355	-10.27222
3.136	-37.7655
3.1365	-67.37366
3.137	-96.27686
3.1375	-111.8866
3.138	-115.10925
3.1385	-110.6781
3.139	-86.70959
3.1395	-63.34534
3.14	-46.42639
3.1405	-31.82373
3.141	-12.38708
3.1415	7.95593
3.142	32.22656
3.1425	42.29736
3.143	40.48462
3.1435	37.16125
3.144	33.63647
3.1445	35.04639
3.145	28.80249
3.1455	16.21399
3.146	13.69629
3.1465	34.64355
3.147	49.85046
3.1475	49.95117
3.148	32.62939
3.1485	13.89771
3.149	-10.67505
3.1495	-26.18408
3.15	-42.7002
3.1505	-45.11719
3.151	-37.7655
3.1515	-39.27612
3.152	-35.95276
3.1525	-27.29187
3.153	-23.96851
3.1535	-27.59399
3.154	-19.23523
3.1545	-5.94177
3.155	3.32336
3.1555	15.91187
3.156	12.78992
3.1565	12.5885
3.157	12.08496
3.1575	13.29346
3.158	15.50903
3.1585	8.45947
3.159	-4.02832
3.1595	-6.14319
3.16	-7.75452
3.1605	-9.06372
3.161	-9.76868
3.1615	-21.14868
3.162	-21.24939
3.1625	-24.57275
3.163	-20.84656
3.1635	-11.68213
3.164	-2.41699
3.1645	23.36426
3.165	69.99207
3.1655	100.10376
3.166	109.3689
3.1665	140.58838
3.167	190.03601
3.1675	216.92505
3.168	210.88257
3.1685	212.69531
3.169	193.35938
3.1695	154.18396
3.17	106.8512
3.1705	57.30286
3.171	7.35168
3.1715	-33.43506
3.172	-73.61755
3.1725	-106.14624
3.173	-130.41687
3.1735	-145.62378
3.174	-151.46484
3.1745	-152.1698
3.175	-152.67334
3.1755	-144.01245
3.176	-121.65527
3.1765	-102.42004
3.177	-83.48694
3.1775	-64.65454
3.178	-40.68604
3.1785	-21.24939
3.179	-7.35168
3.1795	-2.81982
3.18	1.00708
3.1805	6.64673
3.181	18.53027
3.1815	18.42957
3.182	17.42249
3.1825	15.91187
3.183	15.1062
3.1835	11.38
3.184	11.78284
3.1845	14.80408
3.185	31.32019
3.1855	40.68604
3.186	38.67188
3.1865	34.24072
3.187	23.46497
3.1875	21.45081
3.188	30.31311
3.1885	24.67346
3.189	19.23523
3.1895	5.53894
3.19	-4.02832
3.1905	-13.69629
3.191	-15.30762
3.1915	-21.04797
3.192	-18.12744
3.1925	-19.83948
3.193	-17.92603
3.1935	-18.42957
3.194	3.12195
3.1945	23.16284
3.195	41.18958
3.1955	66.76941
3.196	86.70959
3.1965	99.09668
3.197	95.87402
3.1975	75.12817
3.198	59.01489
3.1985	70.3949
3.199	108.46252
3.1995	142.099
3.2	155.69458
3.2005	166.16821
3.201	157.60803
3.2015	116.21704
3.202	66.56799
3.2025	21.75293
3.203	-23.06213
3.2035	-80.96924
3.204	-114.30359
3.2045	-115.51208
3.205	-112.79297
3.2055	-121.55457
3.206	-126.58997
3.2065	-129.10767
3.207	-126.48926
3.2075	-121.85669
3.208	-118.73474
3.2085	-106.24695
3.209	-96.37756
3.2095	-83.28552
3.21	-68.58215
3.2105	-61.53259
3.211	-59.01489
3.2115	-49.14551
3.212	-31.21948
3.2125	-10.37292
3.213	11.48071
3.2135	32.32727
3.214	44.31152
3.2145	50.2533
3.215	57.50427
3.2155	56.09436
3.216	58.30994
3.2165	55.89294
3.217	50.05188
3.2175	39.77966
3.218	25.78125
3.2185	8.25806
3.219	-16.51611
3.2195	-22.86072
3.22	-19.73877
3.2205	-19.83948
3.221	-22.96143
3.2215	-24.67346
3.222	-25.88196
3.2225	-27.49329
3.223	-37.7655
3.2235	-25.88196
3.224	-22.35718
3.2245	-5.0354
3.225	3.92761
3.2255	13.89771
3.226	19.33594
3.2265	38.16833
3.227	58.41064
3.2275	64.85596
3.228	64.65454
3.2285	57.10144
3.229	49.95117
3.2295	38.77258
3.23	29.40674
3.2305	14.09912
3.231	20.44373
3.2315	14.09912
3.232	6.3446
3.2325	10.87646
3.233	19.53735
3.2335	31.32019
3.234	33.23364
3.2345	33.03223
3.235	40.08179
3.2355	26.08337
3.236	21.45081
3.2365	37.26196
3.237	53.57666
3.2375	79.76074
3.238	110.87952
3.2385	120.84961
3.239	105.13916
3.2395	81.06995
3.24	65.66162
3.2405	46.22498
3.241	12.28638
3.2415	-14.09912
3.242	-46.92993
3.2425	-63.94958
3.243	-79.76074
3.2435	-84.99756
3.244	-91.94641
3.2445	-93.85986
3.245	-89.328
3.2455	-84.19189
3.246	-74.12109
3.2465	-65.96375
3.247	-52.46887
3.2475	-50.75684
3.248	-43.60657
3.2485	-39.17542
3.249	-18.73169
3.2495	16.21399
3.25	35.44922
3.2505	50.85754
3.251	49.0448
3.2515	48.23914
3.252	45.82214
3.2525	29.50745
3.253	22.6593
3.2535	38.87329
3.254	67.07153
3.2545	77.44446
3.255	64.95667
3.2555	49.44763
3.256	35.54993
3.2565	23.26355
3.257	17.32178
3.2575	15.40833
3.258	8.66089
3.2585	5.0354
3.259	2.21558
3.2595	2.5177
3.26	6.14319
3.2605	10.67505
3.261	17.92603
3.2615	31.4209
3.262	36.75842
3.2625	43.20374
3.263	34.84497
3.2635	40.1825
3.264	64.65454
3.2645	98.59314
3.265	104.83704
3.2655	94.06128
3.266	63.34534
3.2665	23.26355
3.267	3.42407
3.2675	-8.56018
3.268	-19.13452
3.2685	-27.39258
3.269	-33.73718
3.2695	-40.2832
3.27	-40.58533
3.2705	-51.66321
3.271	-34.14001
3.2715	-16.11328
3.272	40.78674
3.2725	87.91809
3.273	97.98889
3.2735	85.09827
3.274	52.06604
3.2745	21.45081
3.275	-20.94727
3.2755	-61.33118
3.276	-95.26978
3.2765	-129.20837
3.277	-151.36414
3.2775	-154.6875
3.278	-147.53723
3.2785	-143.4082
3.279	-133.74023
3.2795	-129.81262
3.28	-119.84253
3.2805	-92.85278
3.281	-68.07861
3.2815	-51.36108
3.282	-24.77417
3.2825	-3.42407
3.283	3.32336
3.2835	2.81982
3.284	8.35876
3.2845	6.74744
3.285	6.04248
3.2855	16.3147
3.286	47.63489
3.2865	78.35083
3.287	81.97632
3.2875	71.7041
3.288	56.69861
3.2885	45.92285
3.289	35.95276
3.2895	18.73169
3.29	26.68762
3.2905	40.98816
3.291	55.49011
3.2915	53.77808
3.292	50.95825
3.2925	47.33276
3.293	38.26904
3.2935	32.02515
3.294	24.47205
3.2945	17.52319
3.295	15.20691
3.2955	6.14319
3.296	-1.71204
3.2965	-7.85522
3.297	-3.22266
3.2975	-0.10071
3.298	-2.71912
3.2985	10.67505
3.299	31.52161
3.2995	47.23206
3.3	52.56958
3.3005	62.03613
3.301	73.11401
3.3015	69.58923
3.302	60.52551
3.3025	56.09436
3.303	40.08179
3.3035	21.75293
3.304	4.73328
3.3045	-5.13611
3.305	-7.25098
3.3055	18.53027
3.306	21.04797
3.3065	27.49329
3.307	47.43347
3.3075	53.57666
3.308	44.21082
3.3085	26.98975
3.309	16.41541
3.3095	-1.91345
3.31	-19.23523
3.3105	-40.2832
3.311	-47.93701
3.3115	-55.49011
3.312	-62.53967
3.3125	-67.97791
3.313	-72.61047
3.3135	-78.75366
3.314	-84.69543
3.3145	-77.24304
3.315	-69.58923
3.3155	-58.51135
3.316	-42.49878
3.3165	-31.92444
3.317	-27.6947
3.3175	-15.20691
3.318	-7.5531
3.3185	-0.80566
3.319	4.22974
3.3195	0.10071
3.32	4.12903
3.3205	10.77576
3.321	17.92603
3.3215	15.40833
3.322	19.43665
3.3225	17.22107
3.323	24.37134
3.3235	32.93152
3.324	40.68604
3.3245	54.98657
3.325	72.30835
3.3255	91.94641
3.326	92.75208
3.3265	90.63721
3.327	77.84729
3.3275	78.55225
3.328	80.76782
3.3285	76.03455
3.329	70.49561
3.3295	64.05029
3.33	57.60498
3.3305	46.5271
3.331	38.26904
3.3315	33.43506
3.332	25.177
3.3325	16.61682
3.333	17.52319
3.3335	17.52319
3.334	7.95593
3.3345	5.94177
3.335	3.92761
3.3355	-21.45081
3.336	-35.75134
3.3365	-15.20691
3.337	26.18408
3.3375	55.79224
3.338	65.96375
3.3385	59.92126
3.339	33.83789
3.3395	26.3855
3.34	49.14551
3.3405	67.37366
3.341	60.22339
3.3415	41.18958
3.342	11.68213
3.3425	-15.00549
3.343	-43.20374
3.3435	-61.53259
3.344	-79.35791
3.3445	-81.06995
3.345	-95.06836
3.3455	-97.88818
3.346	-100.50659
3.3465	-101.21155
3.347	-103.42712
3.3475	-94.06128
3.348	-76.63879
3.3485	-64.05029
3.349	-47.63489
3.3495	9.86938
3.35	60.62622
3.3505	87.01172
3.351	98.79456
3.3515	88.22021
3.352	58.71277
3.3525	17.52319
3.353	-23.56567
3.3535	-51.46179
3.354	-75.12817
3.3545	-88.52234
3.355	-70.49561
3.3555	-52.771
3.356	-45.92285
3.3565	-39.47754
3.357	-27.49329
3.3575	-7.45239
3.358	19.13452
3.3585	35.34851
3.359	36.85913
3.3595	30.01099
3.36	28.60107
3.3605	21.85364
3.361	22.96143
3.3615	19.73877
3.362	12.99133
3.3625	3.62549
3.363	-10.37292
3.3635	-15.50903
3.364	-19.83948
3.3645	-23.46497
3.365	-30.91736
3.3655	-20.64514
3.366	-1.71204
3.3665	3.12195
3.367	7.75452
3.3675	12.28638
3.368	17.92603
3.3685	13.49487
3.369	11.58142
3.3695	1.10779
3.37	5.43823
3.3705	3.52478
3.371	3.22266
3.3715	-0.60425
3.372	-3.62549
3.3725	-1.91345
3.373	-1.61133
3.3735	4.43115
3.374	4.43115
3.3745	6.84814
3.375	13.49487
3.3755	11.17859
3.376	10.0708
3.3765	20.64514
3.377	26.48621
3.3775	31.72302
3.378	30.51453
3.3785	30.51453
3.379	16.41541
3.3795	6.14319
3.38	-5.0354
3.3805	2.21558
3.381	4.63257
3.3815	9.26514
3.382	21.04797
3.3825	32.62939
3.383	38.26904
3.3835	35.65063
3.384	32.93152
3.3845	47.13135
3.385	66.56799
3.3855	59.41772
3.386	54.18091
3.3865	46.22498
3.387	36.75842
3.3875	21.65222
3.388	2.71912
3.3885	-3.42407
3.389	16.71753
3.3895	22.96143
3.39	28.50037
3.3905	43.80798
3.391	57.40356
3.3915	49.64905
3.392	31.62231
3.3925	18.53027
3.393	-2.5177
3.3935	-18.42957
3.394	-37.56409
3.3945	-42.90161
3.395	-34.14001
3.3955	-28.9032
3.396	-22.76001
3.3965	-23.16284
3.397	-26.28479
3.3975	-27.89612
3.398	-21.3501
3.3985	-22.96143
3.399	-27.49329
3.3995	-27.39258
3.4	-16.71753
3.4005	-2.5177
3.401	13.29346
3.4015	17.82532
3.402	32.7301
3.4025	35.85205
3.403	40.08179
3.4035	37.7655
3.404	45.52002
3.4045	58.00781
3.405	79.2572
3.4055	99.60022
3.406	75.63171
3.4065	54.88586
3.407	33.23364
3.4075	9.16443
3.408	-13.49487
3.4085	-27.89612
3.409	-44.11011
3.4095	-65.66162
3.41	-76.13525
3.4105	-86.50818
3.411	-85.90393
3.4115	-92.95349
3.412	-94.06128
3.4125	-86.40747
3.413	-82.78198
3.4135	-66.76941
3.414	-48.54126
3.4145	-26.58691
3.415	-17.52319
3.4155	-7.04956
3.416	-5.33752
3.4165	2.01416
3.417	-6.04248
3.4175	-0.70496
3.418	-3.32336
3.4185	3.42407
3.419	33.43506
3.4195	65.56091
3.42	92.14783
3.4205	111.18164
3.421	110.77881
3.4215	89.73083
3.422	63.54675
3.4225	35.85205
3.423	10.27222
3.4235	-6.94885
3.424	-20.84656
3.4245	-34.44214
3.425	-46.62781
3.4255	-47.8363
3.426	-51.05896
3.4265	-48.84338
3.427	-38.87329
3.4275	-37.7655
3.428	-40.38391
3.4285	-31.01807
3.429	-18.42957
3.4295	-6.54602
3.43	-6.64673
3.4305	1.3092
3.431	12.78992
3.4315	48.74268
3.432	70.79773
3.4325	87.61597
3.433	85.19897
3.4335	79.05579
3.434	57.70569
3.4345	38.974
3.435	17.12036
3.4355	-0.10071
3.436	-6.64673
3.4365	-15.50903
3.437	-19.94019
3.4375	-18.63098
3.438	-3.8269
3.4385	8.45947
3.439	32.42798
3.4395	58.20923
3.44	71.40198
3.4405	73.81897
3.441	70.69702
3.4415	67.97791
3.442	50.15259
3.4425	33.13293
3.443	29.10461
3.4435	39.77966
3.444	32.32727
3.4445	20.94727
3.445	9.86938
3.4455	0.20142
3.446	-10.47363
3.4465	-20.54443
3.447	-42.19666
3.4475	-43.00232
3.448	-45.72144
3.4485	-45.11719
3.449	-42.09595
3.4495	-43.30444
3.45	-19.94019
3.4505	-4.33044
3.451	0
3.4515	4.83398
3.452	33.33435
3.4525	51.5625
3.453	52.36816
3.4535	53.07312
3.454	44.11011
3.4545	39.88037
3.455	24.06921
3.4555	4.12903
3.456	-16.51611
3.4565	-34.14001
3.457	-37.96692
3.4575	-32.32727
3.458	-18.22815
3.4585	-10.17151
3.459	-8.7616
3.4595	-10.47363
3.46	-13.797
3.4605	-18.63098
3.461	-21.75293
3.4615	-29.30603
3.462	-23.26355
3.4625	-8.7616
3.463	9.66797
3.4635	23.16284
3.464	30.01099
3.4645	30.91736
3.465	26.28479
3.4655	17.82532
3.466	8.7616
3.4665	9.36584
3.467	-5.43823
3.4675	-15.40833
3.468	-10.67505
3.4685	-8.45947
3.469	-0.90637
3.4695	-1.10779
3.47	1.00708
3.4705	9.16443
3.471	9.36584
3.4715	3.7262
3.472	-1.40991
3.4725	4.83398
3.473	16.61682
3.4735	53.07312
3.474	67.57507
3.4745	84.39331
3.475	90.5365
3.4755	89.52942
3.476	128.302
3.4765	154.48608
3.477	132.53174
3.4775	108.36182
3.478	77.44446
3.4785	54.88586
3.479	22.76001
3.4795	-8.35876
3.48	-57.30286
3.4805	-98.69385
3.481	-119.33899
3.4815	-130.21545
3.482	-129.71191
3.4825	-127.69775
3.483	-118.93616
3.4835	-109.26819
3.484	-87.81738
3.4845	-72.40906
3.485	-50.2533
3.4855	-33.33435
3.486	-19.33594
3.4865	-10.87646
3.487	-9.26514
3.4875	-6.64673
3.488	-10.0708
3.4885	-19.23523
3.489	-24.97559
3.4895	-24.97559
3.49	-24.97559
3.4905	-24.97559
3.491	-24.97559
3.4915	-24.97559
3.492	-24.97559
3.4925	-24.97559
3.493	-24.97559
3.4935	-24.97559
3.494	-24.97559
3.4945	-24.97559
3.495	-24.97559
3.4955	-24.97559
3.496	-24.97559
3.4965	-24.97559
3.497	-24.97559
3.4975	-24.97559
3.498	-24.97559
3.4985	-24.97559
3.499	-24.97559
3.4995	44.31152
3.5	14.40125
3.5005	-11.38
3.501	-29.91028
3.5015	-39.17542
3.502	-48.33984
3.5025	-53.17383
3.503	-53.57666
3.5035	-26.98975
3.504	-5.74036
3.5045	-2.92053
3.505	-9.16443
3.5055	-19.43665
3.506	-24.27063
3.5065	-35.44922
3.507	-48.33984
3.5075	-59.41772
3.508	-65.56091
3.5085	-67.27295
3.509	-69.28711
3.5095	-56.69861
3.51	-52.97241
3.5105	-42.59949
3.511	-29.40674
3.5115	-22.25647
3.512	-10.17151
3.5125	-5.63965
3.513	0.80566
3.5135	22.45789
3.514	40.68604
3.5145	51.96533
3.515	48.13843
3.5155	52.8717
3.516	44.81506
3.5165	42.39807
3.517	37.06055
3.5175	68.38074
3.518	85.70251
3.5185	93.35632
3.519	90.23438
3.5195	72.50977
3.52	48.84338
3.5205	20.54443
3.521	2.81982
3.5215	-10.17151
3.522	-25.57983
3.5225	-22.96143
3.523	-24.47205
3.5235	-29.70886
3.524	-14.70337
3.5245	11.48071
3.525	30.31311
3.5255	33.9386
3.526	38.16833
3.5265	21.24939
3.527	8.56018
3.5275	-11.07788
3.528	-24.57275
3.5285	-37.26196
3.529	-36.15417
3.5295	-18.32886
3.53	-6.04248
3.5305	2.21558
3.531	8.8623
3.5315	5.94177
3.532	3.22266
3.5325	0.30212
3.533	5.53894
3.5335	8.45947
3.534	-7.45239
3.5345	-12.78992
3.535	-15.1062
3.5355	-16.11328
3.536	-8.8623
3.5365	-1.2085
3.537	-7.04956
3.5375	-4.53186
3.538	-6.74744
3.5385	-12.28638
3.539	-21.45081
3.5395	-6.3446
3.54	11.48071
3.5405	29.00391
3.541	36.05347
3.5415	21.14868
3.542	13.19275
3.5425	14.40125
3.543	15.81116
3.5435	11.98425
3.544	5.84106
3.5445	3.42407
3.545	-1.2085
3.5455	-7.25098
3.546	-0.10071
3.5465	-3.22266
3.547	4.22974
3.5475	6.74744
3.548	4.73328
3.5485	9.66797
3.549	15.91187
3.5495	15.91187
3.55	17.92603
3.5505	13.29346
3.551	14.80408
3.5515	11.2793
3.552	4.53186
3.5525	-2.92053
3.553	-10.57434
3.5535	-13.69629
3.554	-10.47363
3.5545	-16.51611
3.555	-24.06921
3.5555	-25.37842
3.556	-20.84656
3.5565	-10.47363
3.557	6.94885
3.5575	12.18567
3.558	19.53735
3.5585	30.61523
3.559	38.87329
3.5595	40.88745
3.56	43.00232
3.5605	37.66479
3.561	35.85205
3.5615	29.10461
3.562	17.32178
3.5625	6.74744
3.563	-3.52478
3.5635	-10.0708
3.564	-13.69629
3.5645	-19.23523
3.565	-11.68213
3.5655	26.3855
3.566	58.81348
3.5665	65.76233
3.567	70.29419
3.5675	65.56091
3.568	55.3894
3.5685	34.74426
3.569	23.76709
3.5695	25.88196
3.57	26.68762
3.5705	16.61682
3.571	14.90479
3.5715	5.33752
3.572	2.21558
3.5725	-16.41541
3.573	-34.54285
3.5735	-40.88745
3.574	-41.89453
3.5745	-23.56567
3.575	-0.40283
3.5755	11.88354
3.576	39.27612
3.5765	48.44055
3.577	53.97949
3.5775	50.75684
3.578	36.55701
3.5785	12.99133
3.579	-11.07788
3.5795	-38.67188
3.58	-59.92126
3.5805	-70.19348
3.581	-66.97083
3.5815	-59.21631
3.582	-60.4248
3.5825	-61.23047
3.583	-52.26746
3.5835	-40.78674
3.584	-33.53577
3.5845	-39.57825
3.585	-20.44373
3.5855	1.3092
3.586	6.74744
3.5865	6.14319
3.587	14.80408
3.5875	18.53027
3.588	25.37842
3.5885	29.60815
3.589	50.95825
3.5895	84.99756
3.59	107.05261
3.5905	105.44128
3.591	97.78748
3.5915	67.77649
3.592	52.771
3.5925	34.54285
3.593	10.0708
3.5935	-17.32178
3.594	-45.62073
3.5945	-64.65454
3.595	-65.3595
3.5955	-68.88428
3.596	-59.01489
3.5965	-59.41772
3.597	-55.08728
3.5975	-45.2179
3.598	-36.25488
3.5985	-25.88196
3.599	-13.19275
3.5995	-6.14319
3.6	-4.73328
3.6005	-1.61133
3.601	-11.07788
3.6015	-8.56018
3.602	-9.26514
3.6025	-12.18567
3.603	-8.8623
3.6035	-1.81274
3.604	4.43115
3.6045	6.64673
3.605	0
3.6055	4.12903
3.606	7.04956
3.6065	9.16443
3.607	3.92761
3.6075	7.45239
3.608	9.36584
3.6085	6.04248
3.609	3.42407
3.6095	-0.30212
3.61	6.64673
3.6105	1.10779
3.611	4.63257
3.6115	7.15027
3.612	12.18567
3.6125	10.67505
3.613	14.09912
3.6135	22.45789
3.614	21.75293
3.6145	29.10461
3.615	33.73718
3.6155	31.72302
3.616	36.55701
3.6165	43.90869
3.617	39.67896
3.6175	33.83789
3.618	38.06763
3.6185	33.63647
3.619	27.49329
3.6195	17.6239
3.62	13.29346
3.6205	12.28638
3.621	12.38708
3.6215	16.61682
3.622	18.8324
3.6225	22.15576
3.623	23.66638
3.6235	24.57275
3.624	18.22815
3.6245	21.75293
3.625	28.39966
3.6255	40.48462
3.626	46.5271
3.6265	44.31152
3.627	59.31702
3.6275	74.32251
3.628	99.09668
3.6285	114.30359
3.629	110.57739
3.6295	85.90393
3.63	66.06445
3.6305	52.56958
3.631	36.15417
3.6315	20.64514
3.632	-1.40991
3.6325	-18.93311
3.633	-41.89453
3.6335	-45.92285
3.634	-45.3186
3.6345	-61.53259
3.635	-62.23755
3.6355	-65.86304
3.636	-68.78357
3.6365	-69.89136
3.637	-52.46887
3.6375	-47.03064
3.638	-37.56409
3.6385	-28.29895
3.639	-22.55859
3.6395	-23.66638
3.64	-30.11169
3.6405	-28.09753
3.641	-18.8324
3.6415	-21.24939
3.642	-24.37134
3.6425	-21.04797
3.643	-23.56567
3.6435	-37.56409
3.644	-45.2179
3.6445	-33.43506
3.645	-3.02124
3.6455	19.83948
3.646	16.3147
3.6465	14.19983
3.647	21.65222
3.6475	27.19116
3.648	33.33435
3.6485	45.52002
3.649	43.20374
3.6495	29.20532
3.65	5.94177
3.6505	-8.15735
3.651	-18.32886
3.6515	-37.86621
3.652	-45.41931
3.6525	-45.72144
3.653	-35.14709
3.6535	-18.73169
3.654	-8.45947
3.6545	5.13611
3.655	9.36584
3.6555	13.09204
3.656	16.01257
3.6565	14.30054
3.657	22.55859
3.6575	43.60657
3.658	59.1156
3.6585	53.17383
3.659	48.54126
3.6595	43.50586
3.66	29.20532
3.6605	22.55859
3.661	32.42798
3.6615	75.73242
3.662	102.82288
3.6625	136.96289
3.663	144.91882
3.6635	128.20129
3.664	90.23438
3.6645	45.72144
3.665	5.53894
3.6655	-32.83081
3.666	-61.6333
3.6665	-78.75366
3.667	-101.21155
3.6675	-84.69543
3.668	-56.29578
3.6685	-41.29028
3.669	-34.34143
3.6695	-37.06055
3.67	-36.85913
3.6705	-38.16833
3.671	-40.68604
3.6715	-41.99524
3.672	-44.41223
3.6725	-57.8064
3.673	-51.05896
3.6735	-44.21082
3.674	-32.83081
3.6745	-36.35559
3.675	-39.77966
3.6755	-19.94019
3.676	16.3147
3.6765	45.11719
3.677	48.03772
3.6775	44.81506
3.678	37.16125
3.6785	14.70337
3.679	-4.22974
3.6795	-17.92603
3.68	-34.54285
3.6805	-43.40515
3.681	-48.54126
3.6815	-39.37683
3.682	-35.34851
3.6825	-17.72461
3.683	-7.85522
3.6835	5.94177
3.684	16.91895
3.6845	27.39258
3.685	36.85913
3.6855	44.0094
3.686	40.68604
3.6865	35.65063
3.687	29.40674
3.6875	37.26196
3.688	68.98499
3.6885	89.12659
3.689	102.11792
3.6895	107.75757
3.69	119.4397
3.6905	112.89368
3.691	115.00854
3.6915	124.77722
3.692	117.62695
3.6925	99.80164
3.693	68.68286
3.6935	49.24622
3.694	25.68054
3.6945	-1.3092
3.695	-30.01099
3.6955	-43.60657
3.696	-50.85754
3.6965	-62.33826
3.697	-75.83313
3.6975	-74.52393
3.698	-73.11401
3.6985	-80.26428
3.699	-84.59473
3.6995	-83.48694
3.7	-84.49402
3.7005	-77.24304
3.701	-76.53809
3.7015	-70.49561
3.702	-54.38232
3.7025	-31.32019
3.703	3.92761
3.7035	36.35559
3.704	59.92126
3.7045	59.01489
3.705	59.01489
3.7055	55.99365
3.706	48.44055
3.7065	39.77966
3.707	22.96143
3.7075	5.13611
3.708	-8.7616
3.7085	-21.65222
3.709	-33.23364
3.7095	-43.80798
3.71	-43.70728
3.7105	-49.0448
3.711	-41.4917
3.7115	-41.08887
3.712	-38.974
3.7125	-32.83081
3.713	-24.67346
3.7135	-19.73877
3.714	-8.56018
3.7145	-5.33752
3.715	4.83398
3.7155	5.74036
3.716	6.64673
3.7165	12.78992
3.717	19.33594
3.7175	23.26355
3.718	31.4209
3.7185	30.41382
3.719	37.56409
3.7195	38.16833
3.72	33.43506
3.7205	29.20532
3.721	46.02356
3.7215	63.34534
3.722	64.151
3.7225	57.40356
3.723	54.18091
3.7235	43.20374
3.724	45.11719
3.7245	43.50586
3.725	56.09436
3.7255	62.74109
3.726	55.3894
3.7265	49.64905
3.727	51.76392
3.7275	43.60657
3.728	33.53577
3.7285	14.50195
3.729	0.90637
3.7295	-14.80408
3.73	-39.17542
3.7305	-48.94409
3.731	-58.20923
3.7315	-54.38232
3.732	-38.974
3.7325	-24.47205
3.733	-6.74744
3.7335	0.80566
3.734	-3.62549
3.7345	-12.78992
3.735	6.74744
3.7355	34.14001
3.736	45.11719
3.7365	29.30603
3.737	19.13452
3.7375	8.25806
3.738	17.01965
3.7385	13.19275
3.739	1.91345
3.7395	-12.68921
3.74	-25.27771
3.7405	-31.11877
3.741	-33.13293
3.7415	-18.32886
3.742	-15.40833
3.7425	-16.81824
3.743	-15.71045
3.7435	-21.3501
3.744	-25.07629
3.7445	-39.27612
3.745	-30.31311
3.7455	-26.08337
3.746	-22.86072
3.7465	-20.64514
3.747	-19.23523
3.7475	-14.50195
3.748	-12.5885
3.7485	1.51062
3.749	9.56726
3.7495	38.16833
3.75	69.58923
3.7505	83.18481
3.751	82.37915
3.7515	85.09827
3.752	92.04712
3.7525	85.90393
3.753	68.48145
3.7535	47.63489
3.754	13.19275
3.7545	-16.01257
3.755	-28.50037
3.7555	-20.64514
3.756	-19.23523
3.7565	-13.797
3.757	-8.35876
3.7575	-4.33044
3.758	26.28479
3.7585	36.85913
3.759	44.11011
3.7595	34.54285
3.76	25.177
3.7605	15.81116
3.761	10.37292
3.7615	-3.7262
3.762	-12.18567
3.7625	-27.49329
3.763	-39.98108
3.7635	-49.95117
3.764	-56.79932
3.7645	-59.41772
3.765	-58.81348
3.7655	-63.24463
3.766	-54.38232
3.7665	-49.85046
3.767	-49.44763
3.7675	-46.02356
3.768	-36.25488
3.7685	-20.74585
3.769	-5.33752
3.7695	6.94885
3.77	6.84814
3.7705	2.31628
3.771	-0.30212
3.7715	-1.51062
3.772	-0.80566
3.7725	2.21558
3.773	6.3446
3.7735	3.42407
3.774	9.97009
3.7745	9.06372
3.775	14.90479
3.7755	19.63806
3.776	19.13452
3.7765	13.19275
3.777	17.52319
3.7775	18.22815
3.778	22.15576
3.7785	21.45081
3.779	21.65222
3.7795	22.6593
3.78	28.9032
3.7805	37.06055
3.781	54.28162
3.7815	62.64038
3.782	58.71277
3.7825	54.38232
3.783	50.65613
3.7835	47.93701
3.784	50.15259
3.7845	41.59241
3.785	37.36267
3.7855	29.80957
3.786	15.50903
3.7865	7.75452
3.787	-7.04956
3.7875	-11.38
3.788	-23.46497
3.7885	-27.79541
3.789	-36.25488
3.7895	-48.33984
3.79	-55.18799
3.7905	-54.58374
3.791	-54.58374
3.7915	-51.86462
3.792	-37.96692
3.7925	-20.1416
3.793	-13.99841
3.7935	-14.60266
3.794	-7.15027
3.7945	15.30762
3.795	19.33594
3.7955	13.797
3.796	8.45947
3.7965	4.43115
3.797	-6.2439
3.7975	-5.23682
3.798	24.87488
3.7985	54.18091
3.799	73.01331
3.7995	95.26978
3.8	105.94482
3.8005	104.83704
3.801	86.50818
3.8015	64.151
3.802	39.98108
3.8025	23.46497
3.803	12.18567
3.8035	-2.41699
3.804	-15.71045
3.8045	-28.50037
3.805	-33.63647
3.8055	-36.85913
3.806	-44.11011
3.8065	-25.177
3.807	-5.53894
3.8075	8.45947
3.808	4.63257
3.8085	-2.31628
3.809	13.59558
3.8095	36.25488
3.81	44.91577
3.8105	42.39807
3.811	26.88904
3.8115	9.26514
3.812	-1.2085
3.8125	-9.66797
