Alessio_Russo_Right_1.c3d  



Time(s):	B_L_bicipite(μV):
0	-3.32336
0.0005	0.80566
0.001	-3.22266
0.0015	0.60425
0.002	0.60425
0.0025	10.37292
0.003	18.8324
0.0035	26.28479
0.004	27.79541
0.0045	34.03931
0.005	32.93152
0.0055	32.42798
0.006	38.06763
0.0065	48.64197
0.007	39.67896
0.0075	36.75842
0.008	43.50586
0.0085	50.95825
0.009	54.38232
0.0095	50.75684
0.01	43.50586
0.0105	26.78833
0.011	22.76001
0.0115	17.6239
0.012	15.20691
0.0125	0.60425
0.013	-17.42249
0.0135	-24.47205
0.014	-22.35718
0.0145	-14.19983
0.015	-13.39417
0.0155	-18.02673
0.016	-29.10461
0.0165	-33.23364
0.017	-32.7301
0.0175	-45.72144
0.018	-46.62781
0.0185	-43.10303
0.019	-37.56409
0.0195	-32.42798
0.02	-19.53735
0.0205	-12.48779
0.021	-11.2793
0.0215	-3.12195
0.022	10.0708
0.0225	16.51611
0.023	21.65222
0.0235	29.30603
0.024	39.07471
0.0245	40.88745
0.025	34.14001
0.0255	37.7655
0.026	36.55701
0.0265	28.29895
0.027	28.70178
0.0275	26.98975
0.028	18.02673
0.0285	15.60974
0.029	2.71912
0.0295	10.17151
0.03	11.38
0.0305	13.99841
0.031	6.3446
0.0315	8.35876
0.032	12.99133
0.0325	15.81116
0.033	12.5885
0.0335	0.60425
0.034	8.7616
0.0345	-4.93469
0.035	-8.96301
0.0355	-8.35876
0.036	-19.53735
0.0365	-13.09204
0.037	-8.8623
0.0375	-9.36584
0.038	-11.38
0.0385	-29.70886
0.039	-46.62781
0.0395	-50.55542
0.04	-30.61523
0.0405	-17.32178
0.041	-14.50195
0.0415	-19.53735
0.042	-4.73328
0.0425	3.12195
0.043	5.13611
0.0435	-4.53186
0.044	-19.83948
0.0445	-39.47754
0.045	-54.78516
0.0455	-55.89294
0.046	-40.1825
0.0465	-24.67346
0.047	-7.35168
0.0475	12.28638
0.048	23.36426
0.0485	44.21082
0.049	56.5979
0.0495	59.1156
0.05	61.73401
0.0505	67.57507
0.051	55.3894
0.0515	52.97241
0.052	54.38232
0.0525	49.64905
0.053	39.67896
0.0535	31.62231
0.054	18.73169
0.0545	12.48779
0.055	6.14319
0.0555	3.7262
0.056	3.32336
0.0565	-1.00708
0.057	-22.05505
0.0575	-45.72144
0.058	-65.15808
0.0585	-72.81189
0.059	-71.7041
0.0595	-68.98499
0.06	-69.79065
0.0605	-59.01489
0.061	-47.7356
0.0615	-47.23206
0.062	-48.94409
0.0625	-53.57666
0.063	-46.82922
0.0635	-36.35559
0.064	-17.72461
0.0645	11.07788
0.065	28.39966
0.0655	40.58533
0.066	46.22498
0.0665	49.0448
0.067	51.5625
0.0675	62.74109
0.068	73.51685
0.0685	77.948
0.069	88.22021
0.0695	91.14075
0.07	77.34375
0.0705	70.59631
0.071	65.86304
0.0715	64.35242
0.072	53.17383
0.0725	45.2179
0.073	39.37683
0.0735	34.14001
0.074	29.60815
0.0745	23.16284
0.075	19.23523
0.0755	8.15735
0.076	-2.5177
0.0765	-22.45789
0.077	-30.2124
0.0775	-36.55701
0.078	-39.27612
0.0785	-39.57825
0.079	-27.49329
0.0795	-19.53735
0.08	-26.3855
0.0805	-8.8623
0.081	-15.81116
0.0815	-16.61682
0.082	-18.8324
0.0825	-20.54443
0.083	-19.53735
0.0835	-20.1416
0.084	-17.42249
0.0845	-10.0708
0.085	3.42407
0.0855	20.84656
0.086	31.32019
0.0865	32.42798
0.087	36.05347
0.0875	35.95276
0.088	47.63489
0.0885	52.16675
0.089	69.89136
0.0895	77.74658
0.09	68.58215
0.0905	48.94409
0.091	35.65063
0.0915	24.97559
0.092	11.88354
0.0925	9.16443
0.093	8.35876
0.0935	12.68921
0.094	7.45239
0.0945	13.797
0.095	12.38708
0.0955	10.37292
0.096	10.57434
0.0965	12.08496
0.097	12.68921
0.0975	15.00549
0.098	6.54602
0.0985	7.35168
0.099	8.25806
0.0995	-1.3092
0.1	-14.90479
0.1005	-22.6593
0.101	-16.3147
0.1015	-21.65222
0.102	-34.64355
0.1025	-31.92444
0.103	-33.03223
0.1035	-42.59949
0.104	-43.60657
0.1045	-51.5625
0.105	-69.79065
0.1055	-75.73242
0.106	-64.25171
0.1065	-53.07312
0.107	-45.3186
0.1075	-15.91187
0.108	2.11487
0.1085	2.31628
0.109	8.35876
0.1095	4.63257
0.11	6.84814
0.1105	6.54602
0.111	19.23523
0.1115	31.72302
0.112	39.07471
0.1125	49.54834
0.113	54.48303
0.1135	64.65454
0.114	60.62622
0.1145	55.69153
0.115	35.75134
0.1155	20.64514
0.116	-0.10071
0.1165	-27.99683
0.117	-47.23206
0.1175	-54.68445
0.118	-37.36267
0.1185	-26.98975
0.119	-18.32886
0.1195	-26.98975
0.12	-29.91028
0.1205	-30.71594
0.121	-33.03223
0.1215	-47.43347
0.122	-42.19666
0.1225	-30.31311
0.123	-16.01257
0.1235	5.23682
0.124	11.17859
0.1245	19.03381
0.125	21.85364
0.1255	30.01099
0.126	26.18408
0.1265	34.64355
0.127	41.29028
0.1275	35.54993
0.128	43.40515
0.1285	47.23206
0.129	49.74976
0.1295	51.86462
0.13	52.36816
0.1305	41.89453
0.131	40.38391
0.1315	36.95984
0.132	30.31311
0.1325	18.32886
0.133	16.3147
0.1335	20.44373
0.134	24.27063
0.1345	31.52161
0.135	31.4209
0.1355	20.94727
0.136	5.13611
0.1365	-3.52478
0.137	-4.43115
0.1375	-1.40991
0.138	-9.56726
0.1385	-8.7616
0.139	-3.32336
0.1395	4.83398
0.14	5.53894
0.1405	13.797
0.141	13.29346
0.1415	16.41541
0.142	27.89612
0.1425	23.8678
0.143	26.08337
0.1435	21.95435
0.144	23.8678
0.1445	17.6239
0.145	18.93311
0.1455	24.16992
0.146	31.72302
0.1465	33.13293
0.147	29.20532
0.1475	21.65222
0.148	5.84106
0.1485	-3.92761
0.149	-10.47363
0.1495	-12.5885
0.15	-21.3501
0.1505	-19.03381
0.151	-22.55859
0.1515	-31.01807
0.152	-33.43506
0.1525	-31.32019
0.153	-28.70178
0.1535	-13.59558
0.154	-6.2439
0.1545	-8.8623
0.155	-5.74036
0.1555	-6.74744
0.156	-5.53894
0.1565	-8.96301
0.157	-22.25647
0.1575	-23.26355
0.158	-42.8009
0.1585	-69.48853
0.159	-87.31384
0.1595	-88.62305
0.16	-75.22888
0.1605	-67.17224
0.161	-52.16675
0.1615	-28.60107
0.162	-6.94885
0.1625	4.02832
0.163	14.50195
0.1635	26.18408
0.164	27.49329
0.1645	30.31311
0.165	38.36975
0.1655	39.17542
0.166	34.94568
0.1665	33.23364
0.167	28.70178
0.1675	34.14001
0.168	38.26904
0.1685	44.51294
0.169	40.98816
0.1695	39.98108
0.17	38.16833
0.1705	39.27612
0.171	28.60107
0.1715	2.61841
0.172	-10.67505
0.1725	-18.63098
0.173	-16.41541
0.1735	-18.63098
0.174	-5.63965
0.1745	2.41699
0.175	-2.71912
0.1755	-12.18567
0.176	-9.56726
0.1765	-2.71912
0.177	-5.84106
0.1775	-3.02124
0.178	6.64673
0.1785	23.06213
0.179	29.40674
0.1795	39.37683
0.18	42.29736
0.1805	43.10303
0.181	25.47913
0.1815	10.17151
0.182	-3.42407
0.1825	-18.22815
0.183	-31.92444
0.1835	-17.42249
0.184	4.43115
0.1845	24.27063
0.185	39.57825
0.1855	45.62073
0.186	49.44763
0.1865	49.24622
0.187	40.98816
0.1875	24.97559
0.188	4.53186
0.1885	-18.8324
0.189	-48.54126
0.1895	-48.94409
0.19	-48.94409
0.1905	-43.70728
0.191	-30.71594
0.1915	-19.53735
0.192	-9.56726
0.1925	-5.53894
0.193	11.07788
0.1935	19.83948
0.194	20.54443
0.1945	21.14868
0.195	21.95435
0.1955	29.40674
0.196	36.65771
0.1965	41.39099
0.197	35.85205
0.1975	34.34143
0.198	22.15576
0.1985	31.72302
0.199	57.40356
0.1995	62.64038
0.2	70.09277
0.2005	64.85596
0.201	52.16675
0.2015	30.11169
0.202	8.15735
0.2025	-8.05664
0.203	-20.1416
0.2035	-29.80957
0.204	-25.07629
0.2045	-17.42249
0.205	-1.71204
0.2055	2.61841
0.206	2.81982
0.2065	-1.3092
0.207	0.50354
0.2075	-3.02124
0.208	-6.14319
0.2085	-3.02124
0.209	6.94885
0.2095	0.40283
0.21	-0.20142
0.2105	1.61133
0.211	-1.81274
0.2115	4.33044
0.212	9.46655
0.2125	4.53186
0.213	6.2439
0.2135	-4.53186
0.214	-7.45239
0.2145	-29.00391
0.215	-51.05896
0.2155	-68.68286
0.216	-78.25012
0.2165	-75.32959
0.217	-66.76941
0.2175	-59.82056
0.218	-63.04321
0.2185	-71.50269
0.219	-74.32251
0.2195	-73.31543
0.22	-63.54675
0.2205	-59.61914
0.221	-67.27295
0.2215	-72.40906
0.222	-68.88428
0.2225	-55.08728
0.223	-34.14001
0.2235	-6.84814
0.224	49.0448
0.2245	99.3988
0.225	116.01562
0.2255	115.31067
0.226	100.40588
0.2265	88.0188
0.227	71.09985
0.2275	64.05029
0.228	54.78516
0.2285	46.62781
0.229	29.00391
0.2295	20.34302
0.23	7.5531
0.2305	2.31628
0.231	-17.82532
0.2315	-30.81665
0.232	-25.98267
0.2325	-20.94727
0.233	0
0.2335	12.28638
0.234	27.6947
0.2345	37.96692
0.235	34.94568
0.2355	19.83948
0.236	2.81982
0.2365	-4.63257
0.237	5.53894
0.2375	14.30054
0.238	30.81665
0.2385	32.32727
0.239	39.07471
0.2395	43.50586
0.24	41.69312
0.2405	43.70728
0.241	37.56409
0.2415	34.14001
0.242	20.04089
0.2425	11.88354
0.243	1.51062
0.2435	-5.43823
0.244	-0.50354
0.2445	22.55859
0.245	45.41931
0.2455	44.71436
0.246	26.78833
0.2465	12.28638
0.247	-1.91345
0.2475	0.20142
0.248	-4.33044
0.2485	-8.8623
0.249	-18.53027
0.2495	-23.26355
0.25	-39.27612
0.2505	-52.06604
0.251	-59.41772
0.2515	-49.74976
0.252	-50.354
0.2525	-40.78674
0.253	-27.89612
0.2535	-6.54602
0.254	7.75452
0.2545	13.89771
0.255	2.5177
0.2555	5.63965
0.256	4.83398
0.2565	7.45239
0.257	19.43665
0.2575	25.68054
0.258	25.98267
0.2585	33.9386
0.259	42.8009
0.2595	41.4917
0.26	43.30444
0.2605	42.49878
0.261	52.56958
0.2615	56.5979
0.262	57.60498
0.2625	57.60498
0.263	69.58923
0.2635	83.18481
0.264	79.35791
0.2645	67.07153
0.265	52.26746
0.2655	37.66479
0.266	31.52161
0.2665	19.73877
0.267	13.19275
0.2675	3.62549
0.268	-8.66089
0.2685	-18.53027
0.269	-24.06921
0.2695	-28.80249
0.27	-29.70886
0.2705	-25.37842
0.271	-25.78125
0.2715	-19.53735
0.272	-9.76868
0.2725	-4.63257
0.273	-1.91345
0.2735	-0.90637
0.274	-15.91187
0.2745	-21.3501
0.275	-26.78833
0.2755	-21.85364
0.276	-13.19275
0.2765	-17.52319
0.277	-19.63806
0.2775	-14.50195
0.278	-9.56726
0.2785	-12.48779
0.279	-22.15576
0.2795	-22.86072
0.28	-17.01965
0.2805	0.80566
0.281	6.14319
0.2815	15.71045
0.282	24.77417
0.2825	29.80957
0.283	28.80249
0.2835	26.28479
0.284	34.34143
0.2845	28.09753
0.285	14.90479
0.2855	2.71912
0.286	-5.13611
0.2865	-11.2793
0.287	-15.20691
0.2875	-12.48779
0.288	-6.84814
0.2885	-2.92053
0.289	1.51062
0.2895	4.43115
0.29	0.20142
0.2905	9.16443
0.291	18.63098
0.2915	29.70886
0.292	35.85205
0.2925	44.51294
0.293	45.01648
0.2935	23.8678
0.294	1.40991
0.2945	-12.48779
0.295	-26.58691
0.2955	-43.10303
0.296	-44.61365
0.2965	-46.5271
0.297	-42.7002
0.2975	-47.7356
0.298	-54.0802
0.2985	-55.89294
0.299	-46.12427
0.2995	-34.44214
0.3	-34.24072
0.3005	-32.02515
0.301	-29.60815
0.3015	-34.94568
0.302	-27.99683
0.3025	-19.03381
0.303	-1.81274
0.3035	16.61682
0.304	26.28479
0.3045	30.2124
0.305	36.85913
0.3055	36.65771
0.306	38.57117
0.3065	47.63489
0.307	49.34692
0.3075	41.08887
0.308	21.75293
0.3085	10.87646
0.309	3.42407
0.3095	-9.46655
0.31	-20.84656
0.3105	-32.93152
0.311	-27.99683
0.3115	-32.83081
0.312	-37.66479
0.3125	-31.21948
0.313	-25.47913
0.3135	-27.19116
0.314	-26.08337
0.3145	-27.19116
0.315	-14.19983
0.3155	-8.96301
0.316	2.41699
0.3165	16.11328
0.317	29.80957
0.3175	41.99524
0.318	48.23914
0.3185	50.05188
0.319	57.40356
0.3195	68.78357
0.32	74.72534
0.3205	89.328
0.321	91.745
0.3215	99.09668
0.322	95.87402
0.3225	87.51526
0.323	84.39331
0.3235	75.12817
0.324	66.46729
0.3245	55.89294
0.325	50.45471
0.3255	50.05188
0.326	52.46887
0.3265	44.11011
0.327	29.50745
0.3275	20.04089
0.328	37.96692
0.3285	51.15967
0.329	43.80798
0.3295	40.68604
0.33	24.87488
0.3305	4.02832
0.331	-11.78284
0.3315	-28.50037
0.332	-41.4917
0.3325	-55.79224
0.333	-69.89136
0.3335	-111.28235
0.334	-153.17688
0.3345	-164.7583
0.335	-156.09741
0.3355	-156.60095
0.336	-144.71741
0.3365	-122.25952
0.337	-88.32092
0.3375	-52.26746
0.338	-16.71753
0.3385	12.38708
0.339	15.30762
0.3395	8.96301
0.34	0.50354
0.3405	-2.21558
0.341	-3.92761
0.3415	-2.21558
0.342	18.93311
0.3425	30.71594
0.343	43.10303
0.3435	66.26587
0.344	79.15649
0.3445	96.07544
0.345	106.34766
0.3455	107.75757
0.346	110.6781
0.3465	104.53491
0.347	106.54907
0.3475	103.52783
0.348	88.52234
0.3485	79.45862
0.349	73.51685
0.3495	63.74817
0.35	51.26038
0.3505	40.08179
0.351	25.27771
0.3515	21.24939
0.352	18.02673
0.3525	15.60974
0.353	11.68213
0.3535	10.17151
0.354	8.45947
0.3545	-12.08496
0.355	-29.20532
0.3555	-29.80957
0.356	-35.85205
0.3565	-44.0094
0.357	-56.19507
0.3575	-60.52551
0.358	-56.09436
0.3585	-47.53418
0.359	-28.19824
0.3595	-17.6239
0.36	-6.94885
0.3605	-1.10779
0.361	-6.54602
0.3615	-14.70337
0.362	-26.78833
0.3625	-34.14001
0.363	-60.4248
0.3635	-77.44446
0.364	-99.3988
0.3645	-125.88501
0.365	-129.5105
0.3655	-120.24536
0.366	-96.57898
0.3665	-82.68127
0.367	-66.56799
0.3675	-46.5271
0.368	-25.68054
0.3685	-10.87646
0.369	6.2439
0.3695	18.12744
0.37	28.39966
0.3705	38.26904
0.371	43.80798
0.3715	49.95117
0.372	56.19507
0.3725	63.14392
0.373	69.1864
0.3735	87.31384
0.374	99.09668
0.3745	105.74341
0.375	112.99438
0.3755	109.87244
0.376	103.22571
0.3765	89.93225
0.377	73.51685
0.3775	55.99365
0.378	36.75842
0.3785	27.89612
0.379	14.70337
0.3795	4.33044
0.38	-2.92053
0.3805	-11.48071
0.381	-26.28479
0.3815	-42.09595
0.382	-47.43347
0.3825	-58.61206
0.383	-67.8772
0.3835	-66.36658
0.384	-64.65454
0.3845	-46.72852
0.385	-50.2533
0.3855	-46.5271
0.386	-56.39648
0.3865	-73.11401
0.387	-89.22729
0.3875	-95.37048
0.388	-100.50659
0.3885	-91.745
0.389	-74.92676
0.3895	-60.22339
0.39	-38.47046
0.3905	1.10779
0.391	32.62939
0.3915	50.75684
0.392	64.05029
0.3925	82.47986
0.393	99.49951
0.3935	108.96606
0.394	89.63013
0.3945	82.07703
0.395	77.84729
0.3955	72.20764
0.396	60.72693
0.3965	48.33984
0.397	30.71594
0.3975	20.24231
0.398	10.0708
0.3985	8.7616
0.399	10.0708
0.3995	18.63098
0.4	8.56018
0.4005	11.68213
0.401	13.09204
0.4015	21.3501
0.402	23.56567
0.4025	7.45239
0.403	-15.1062
0.4035	-22.96143
0.404	-19.63806
0.4045	-14.19983
0.405	-6.54602
0.4055	10.57434
0.406	20.84656
0.4065	45.62073
0.407	62.64038
0.4075	64.85596
0.408	49.24622
0.4085	32.22656
0.409	28.60107
0.4095	22.05505
0.41	13.69629
0.4105	3.22266
0.411	-18.42957
0.4115	-32.22656
0.412	-36.25488
0.4125	-32.32727
0.413	-16.3147
0.4135	-2.11487
0.414	24.87488
0.4145	47.8363
0.415	66.26587
0.4155	62.64038
0.416	48.84338
0.4165	32.62939
0.417	19.03381
0.4175	17.42249
0.418	21.85364
0.4185	15.30762
0.419	22.55859
0.4195	28.9032
0.42	33.9386
0.4205	41.39099
0.421	39.88037
0.4215	44.61365
0.422	46.82922
0.4225	50.05188
0.423	43.60657
0.4235	44.0094
0.424	38.77258
0.4245	21.14868
0.425	8.96301
0.4255	-6.94885
0.426	-20.1416
0.4265	-23.76709
0.427	-32.62939
0.4275	-37.46338
0.428	-48.64197
0.4285	-54.78516
0.429	-63.74817
0.4295	-60.3241
0.43	-60.02197
0.4305	-52.56958
0.431	-49.14551
0.4315	-56.90002
0.432	-56.79932
0.4325	-50.75684
0.433	-29.20532
0.4335	-3.7262
0.434	15.91187
0.4345	38.36975
0.435	52.06604
0.4355	56.19507
0.436	57.60498
0.4365	54.98657
0.437	62.64038
0.4375	65.86304
0.438	67.27295
0.4385	68.88428
0.439	62.9425
0.4395	56.5979
0.44	47.63489
0.4405	44.21082
0.441	41.99524
0.4415	32.52869
0.442	33.43506
0.4425	24.37134
0.443	14.70337
0.4435	3.32336
0.444	-22.76001
0.4445	-50.15259
0.445	-74.92676
0.4455	-86.50818
0.446	-85.40039
0.4465	-96.8811
0.447	-103.02429
0.4475	-94.66553
0.448	-82.88269
0.4485	-83.68835
0.449	-77.64587
0.4495	-64.75525
0.45	-69.28711
0.4505	-75.4303
0.451	-81.67419
0.4515	-99.2981
0.452	-118.73474
0.4525	-112.99438
0.453	-99.09668
0.4535	-68.07861
0.454	-26.48621
0.4545	23.16284
0.455	63.34534
0.4555	97.88818
0.456	128.20129
0.4565	135.35156
0.457	128.60413
0.4575	115.00854
0.458	109.67102
0.4585	92.65137
0.459	73.11401
0.4595	65.56091
0.46	67.07153
0.4605	58.30994
0.461	58.10852
0.4615	54.98657
0.462	53.37524
0.4625	44.41223
0.463	50.65613
0.4635	40.08179
0.464	32.42798
0.4645	13.99841
0.465	-4.43115
0.4655	-18.73169
0.466	-26.98975
0.4665	-41.69312
0.467	-50.354
0.4675	-50.354
0.468	-40.1825
0.4685	-23.8678
0.469	-18.53027
0.4695	-16.91895
0.47	-13.797
0.4705	-14.70337
0.471	-13.09204
0.4715	-13.99841
0.472	-18.8324
0.4725	-10.57434
0.473	-7.75452
0.4735	-35.14709
0.474	-74.02039
0.4745	-93.55774
0.475	-89.328
0.4755	-75.12817
0.476	-61.43188
0.4765	-44.51294
0.477	-27.29187
0.4775	-13.99841
0.478	6.44531
0.4785	22.05505
0.479	40.88745
0.4795	41.18958
0.48	40.98816
0.4805	49.95117
0.481	63.14392
0.4815	64.95667
0.482	68.78357
0.4825	76.23596
0.483	92.85278
0.4835	103.93066
0.484	101.8158
0.4845	100.40588
0.485	88.52234
0.4855	63.64746
0.486	52.36816
0.4865	43.50586
0.487	37.16125
0.4875	41.4917
0.488	39.27612
0.4885	45.41931
0.489	45.2179
0.4895	44.11011
0.49	46.12427
0.4905	42.8009
0.491	46.62781
0.4915	65.96375
0.492	76.13525
0.4925	71.90552
0.493	62.8418
0.4935	48.84338
0.494	24.06921
0.4945	-2.5177
0.495	-6.74744
0.4955	-12.28638
0.496	-19.33594
0.4965	-26.08337
0.497	-39.57825
0.4975	-47.43347
0.498	-52.67029
0.4985	-46.62781
0.499	-46.32568
0.4995	-43.70728
0.5	-47.23206
0.5005	-52.8717
0.501	-62.23755
0.5015	-70.99915
0.502	-71.20056
0.5025	-64.35242
0.503	-59.71985
0.5035	-52.46887
0.504	-48.23914
0.5045	-46.02356
0.505	-30.71594
0.5055	-26.88904
0.506	-2.5177
0.5065	15.30762
0.507	33.83789
0.5075	38.974
0.508	41.4917
0.5085	23.16284
0.509	-2.81982
0.5095	-26.78833
0.51	-40.38391
0.5105	-63.24463
0.511	-96.57898
0.5115	-103.32642
0.512	-82.37915
0.5125	-50.65613
0.513	-38.77258
0.5135	-23.06213
0.514	-8.66089
0.5145	-10.87646
0.515	-23.26355
0.5155	-14.60266
0.516	-10.37292
0.5165	-3.7262
0.517	16.71753
0.5175	43.80798
0.518	61.33118
0.5185	72.71118
0.519	89.73083
0.5195	105.23987
0.52	126.89209
0.5205	146.83228
0.521	150.8606
0.5215	135.95581
0.522	111.78589
0.5225	88.0188
0.523	72.61047
0.5235	75.32959
0.524	70.29419
0.5245	72.10693
0.525	66.26587
0.5255	62.13684
0.526	51.05896
0.5265	43.00232
0.527	35.65063
0.5275	28.29895
0.528	18.93311
0.5285	22.55859
0.529	25.27771
0.5295	23.66638
0.53	12.28638
0.5305	22.55859
0.531	17.01965
0.5315	9.06372
0.532	1.51062
0.5325	6.54602
0.533	3.8269
0.5335	8.35876
0.534	5.53894
0.5345	-1.51062
0.535	-14.30054
0.5355	-25.47913
0.536	-49.54834
0.5365	-61.23047
0.537	-58.41064
0.5375	-59.51843
0.538	-57.40356
0.5385	-57.00073
0.539	-60.22339
0.5395	-61.02905
0.54	-70.69702
0.5405	-65.66162
0.541	-51.76392
0.5415	-45.3186
0.542	-26.58691
0.5425	-17.92603
0.543	-20.94727
0.5435	-22.6593
0.544	-29.91028
0.5445	-36.75842
0.545	-34.64355
0.5455	-22.15576
0.546	-22.86072
0.5465	-28.09753
0.547	-19.53735
0.5475	3.7262
0.548	24.87488
0.5485	35.04639
0.549	38.16833
0.5495	21.14868
0.55	1.00708
0.5505	-17.22107
0.551	-8.96301
0.5515	-2.41699
0.552	3.62549
0.5525	4.83398
0.553	14.70337
0.5535	29.50745
0.554	44.11011
0.5545	45.41931
0.555	46.5271
0.5555	35.54993
0.556	24.27063
0.5565	22.45789
0.557	18.93311
0.5575	26.3855
0.558	19.03381
0.5585	13.29346
0.559	11.88354
0.5595	20.44373
0.56	22.55859
0.5605	22.35718
0.561	32.32727
0.5615	53.07312
0.562	62.13684
0.5625	63.44604
0.563	58.00781
0.5635	49.95117
0.564	43.20374
0.5645	33.63647
0.565	22.96143
0.5655	24.16992
0.566	28.50037
0.5665	30.91736
0.567	25.68054
0.5675	13.19275
0.568	-20.1416
0.5685	-50.45471
0.569	-70.19348
0.5695	-87.91809
0.57	-100.20447
0.5705	-115.61279
0.571	-129.61121
0.5715	-120.04395
0.572	-97.58606
0.5725	-79.35791
0.573	-53.77808
0.5735	-19.94019
0.574	16.41541
0.5745	51.26038
0.575	72.40906
0.5755	88.72375
0.576	87.61597
0.5765	87.81738
0.577	85.09827
0.5775	75.83313
0.578	70.69702
0.5785	57.8064
0.579	49.64905
0.5795	53.27454
0.58	49.74976
0.5805	34.24072
0.581	19.73877
0.5815	8.05664
0.582	-5.74036
0.5825	-33.9386
0.583	-73.71826
0.5835	-106.54907
0.584	-121.45386
0.5845	-118.63403
0.585	-112.69226
0.5855	-114.00146
0.586	-105.84412
0.5865	-92.34924
0.587	-70.3949
0.5875	-48.74268
0.588	-33.23364
0.5885	-20.34302
0.589	-3.22266
0.5895	21.75293
0.59	32.22656
0.5905	30.71594
0.591	28.50037
0.5915	37.86621
0.592	40.2832
0.5925	55.99365
0.593	72.20764
0.5935	81.06995
0.594	88.62305
0.5945	98.39172
0.595	101.01013
0.5955	96.07544
0.596	78.04871
0.5965	70.59631
0.597	53.97949
0.5975	43.30444
0.598	43.50586
0.5985	49.44763
0.599	48.84338
0.5995	34.84497
0.6	27.49329
0.6005	14.19983
0.601	11.48071
0.6015	20.24231
0.602	17.82532
0.6025	18.12744
0.603	13.09204
0.6035	15.71045
0.604	25.37842
0.6045	28.60107
0.605	18.12744
0.6055	-11.78284
0.606	-43.90869
0.6065	-58.10852
0.607	-73.21472
0.6075	-85.80322
0.608	-92.34924
0.6085	-97.58606
0.609	-91.745
0.6095	-77.948
0.61	-69.99207
0.6105	-64.35242
0.611	-53.97949
0.6115	-57.50427
0.612	-58.71277
0.6125	-47.8363
0.613	-37.16125
0.6135	-46.82922
0.614	-65.15808
0.6145	-62.33826
0.615	-50.2533
0.6155	-45.3186
0.616	-33.73718
0.6165	-17.52319
0.617	14.19983
0.6175	39.47754
0.618	69.58923
0.6185	91.64429
0.619	119.33899
0.6195	135.25085
0.62	140.28625
0.6205	138.3728
0.621	134.24377
0.6215	124.97864
0.622	128.20129
0.6225	125.98572
0.623	121.15173
0.6235	103.22571
0.624	76.94092
0.6245	51.96533
0.625	36.55701
0.6255	29.30603
0.626	25.88196
0.6265	25.68054
0.627	21.45081
0.6275	17.52319
0.628	18.73169
0.6285	13.09204
0.629	9.36584
0.6295	2.01416
0.63	-3.02124
0.6305	-19.83948
0.631	-18.42957
0.6315	-31.32019
0.632	-46.72852
0.6325	-53.77808
0.633	-60.62622
0.6335	-67.8772
0.634	-64.25171
0.6345	-51.5625
0.635	-36.35559
0.6355	-23.66638
0.636	-17.01965
0.6365	-11.38
0.637	-10.27222
0.6375	-9.06372
0.638	-18.22815
0.6385	-26.98975
0.639	-24.27063
0.6395	-19.94019
0.64	-21.04797
0.6405	-39.98108
0.641	-45.62073
0.6415	-34.84497
0.642	-18.32886
0.6425	-0.80566
0.643	9.16443
0.6435	11.48071
0.644	18.93311
0.6445	19.03381
0.645	23.06213
0.6455	34.94568
0.646	43.30444
0.6465	33.43506
0.647	35.14709
0.6475	30.41382
0.648	30.71594
0.6485	25.27771
0.649	33.73718
0.6495	35.95276
0.65	34.74426
0.6505	29.60815
0.651	22.86072
0.6515	22.76001
0.652	22.96143
0.6525	21.95435
0.653	18.22815
0.6535	14.80408
0.654	4.12903
0.6545	-0.10071
0.655	0
0.6555	0.90637
0.656	6.64673
0.6565	-1.71204
0.657	-15.1062
0.6575	-33.33435
0.658	-43.40515
0.6585	-45.41931
0.659	-47.7356
0.6595	-50.75684
0.66	-57.9071
0.6605	-68.58215
0.661	-78.35083
0.6615	-78.55225
0.662	-74.32251
0.6625	-56.5979
0.663	-39.17542
0.6635	-24.47205
0.664	-15.91187
0.6645	-19.13452
0.665	-22.96143
0.6655	-39.77966
0.666	-40.88745
0.6665	-26.28479
0.667	-8.05664
0.6675	7.15027
0.668	27.39258
0.6685	47.23206
0.669	60.82764
0.6695	70.79773
0.67	73.21472
0.6705	67.97791
0.671	67.67578
0.6715	67.07153
0.672	49.14551
0.6725	31.32019
0.673	20.44373
0.6735	15.00549
0.674	8.05664
0.6745	8.45947
0.675	14.19983
0.6755	17.72461
0.676	33.13293
0.6765	30.81665
0.677	22.05505
0.6775	26.48621
0.678	19.13452
0.6785	24.37134
0.679	17.52319
0.6795	11.98425
0.68	-9.16443
0.6805	-45.01648
0.681	-77.74658
0.6815	-94.06128
0.682	-107.35474
0.6825	-115.20996
0.683	-94.96765
0.6835	-77.948
0.684	-72.10693
0.6845	-56.39648
0.685	-34.44214
0.6855	-1.81274
0.686	22.86072
0.6865	32.32727
0.687	33.23364
0.6875	29.50745
0.688	11.38
0.6885	10.37292
0.689	20.84656
0.6895	38.16833
0.69	70.59631
0.6905	101.11084
0.691	123.46802
0.6915	129.5105
0.692	118.02979
0.6925	119.03687
0.693	111.8866
0.6935	105.54199
0.694	93.96057
0.6945	85.5011
0.695	77.44446
0.6955	71.30127
0.696	62.13684
0.6965	53.97949
0.697	44.41223
0.6975	33.83789
0.698	32.83081
0.6985	28.70178
0.699	20.34302
0.6995	20.1416
0.7	12.08496
0.7005	7.04956
0.701	5.23682
0.7015	-7.65381
0.702	-36.05347
0.7025	-42.90161
0.703	-44.11011
0.7035	-66.16516
0.704	-98.69385
0.7045	-112.39014
0.705	-102.52075
0.7055	-84.49402
0.706	-72.61047
0.7065	-61.12976
0.707	-35.34851
0.7075	-23.36426
0.708	-6.14319
0.7085	4.43115
0.709	7.35168
0.7095	20.64514
0.71	27.39258
0.7105	30.91736
0.711	31.4209
0.7115	31.52161
0.712	25.68054
0.7125	30.91736
0.713	36.85913
0.7135	40.88745
0.714	38.57117
0.7145	36.25488
0.715	31.82373
0.7155	38.36975
0.716	38.974
0.7165	37.36267
0.717	40.88745
0.7175	43.60657
0.718	38.06763
0.7185	40.08179
0.719	29.60815
0.7195	22.45789
0.72	22.35718
0.7205	14.70337
0.721	8.66089
0.7215	3.92761
0.722	-5.53894
0.7225	-0.60425
0.723	2.21558
0.7235	-1.40991
0.724	-2.5177
0.7245	-4.22974
0.725	-10.37292
0.7255	-12.38708
0.726	-9.97009
0.7265	-10.27222
0.727	-8.7616
0.7275	-18.32886
0.728	-19.33594
0.7285	-31.4209
0.729	-29.80957
0.7295	-31.11877
0.73	-31.4209
0.7305	-31.21948
0.731	-32.22656
0.7315	-43.90869
0.732	-52.8717
0.7325	-46.72852
0.733	-39.98108
0.7335	-45.01648
0.734	-52.06604
0.7345	-60.4248
0.735	-70.89844
0.7355	-83.99048
0.736	-96.8811
0.7365	-99.2981
0.737	-123.56873
0.7375	-142.19971
0.738	-147.23511
0.7385	-151.66626
0.739	-155.9967
0.7395	-134.44519
0.74	-103.72925
0.7405	-72.10693
0.741	-42.49878
0.7415	-21.24939
0.742	9.36584
0.7425	26.98975
0.743	48.23914
0.7435	57.8064
0.744	67.17224
0.7445	75.83313
0.745	101.8158
0.7455	128.60413
0.746	133.13599
0.7465	140.8905
0.747	135.04944
0.7475	128.10059
0.748	130.61829
0.7485	143.4082
0.749	150.05493
0.7495	142.60254
0.75	117.62695
0.7505	94.06128
0.751	86.50818
0.7515	70.89844
0.752	52.8717
0.7525	32.93152
0.753	21.3501
0.7535	7.5531
0.754	-7.04956
0.7545	6.44531
0.755	14.90479
0.7555	15.81116
0.756	10.27222
0.7565	-13.59558
0.757	-28.19824
0.7575	-30.01099
0.758	-28.70178
0.7585	-29.60815
0.759	-27.49329
0.7595	-29.30603
0.76	-41.39099
0.7605	-40.38391
0.761	-35.95276
0.7615	-28.9032
0.762	-12.38708
0.7625	17.82532
0.763	56.39648
0.7635	81.97632
0.764	75.93384
0.7645	62.23755
0.765	44.51294
0.7655	16.91895
0.766	-7.85522
0.7665	-29.40674
0.767	-52.26746
0.7675	-68.78357
0.768	-68.68286
0.7685	-54.58374
0.769	-31.82373
0.7695	-8.66089
0.77	10.67505
0.7705	21.95435
0.771	34.14001
0.7715	55.69153
0.772	78.04871
0.7725	98.89526
0.773	92.34924
0.7735	88.22021
0.774	79.15649
0.7745	57.20215
0.775	44.51294
0.7755	32.32727
0.776	29.20532
0.7765	23.8678
0.777	17.52319
0.7775	21.04797
0.778	23.96851
0.7785	21.65222
0.779	24.67346
0.7795	16.91895
0.78	7.45239
0.7805	4.33044
0.781	7.25098
0.7815	6.54602
0.782	8.05664
0.7825	9.16443
0.783	14.40125
0.7835	21.24939
0.784	24.27063
0.7845	16.01257
0.785	11.38
0.7855	-2.11487
0.786	-9.16443
0.7865	-10.97717
0.787	-11.38
0.7875	-13.797
0.788	-12.78992
0.7885	-24.27063
0.789	-29.30603
0.7895	-34.74426
0.79	-52.26746
0.7905	-72.00623
0.791	-81.27136
0.7915	-79.45862
0.792	-71.50269
0.7925	-63.54675
0.793	-51.26038
0.7935	-45.82214
0.794	-47.7356
0.7945	-55.18799
0.795	-61.73401
0.7955	-56.90002
0.796	-52.16675
0.7965	-40.48462
0.797	-28.50037
0.7975	-23.8678
0.798	-21.65222
0.7985	-17.42249
0.799	-14.80408
0.7995	-10.87646
0.8	-2.41699
0.8005	0.40283
0.801	7.35168
0.8015	8.7616
0.802	9.76868
0.8025	12.89062
0.803	17.6239
0.8035	20.84656
0.804	13.99841
0.8045	8.56018
0.805	3.52478
0.8055	17.92603
0.806	31.01807
0.8065	33.13293
0.807	32.93152
0.8075	43.60657
0.808	34.14001
0.8085	22.86072
0.809	8.15735
0.8095	-0.10071
0.81	-2.81982
0.8105	6.44531
0.811	1.91345
0.8115	-0.80566
0.812	-15.00549
0.8125	-30.81665
0.813	-34.54285
0.8135	-25.177
0.814	-16.71753
0.8145	-3.8269
0.815	1.2085
0.8155	18.22815
0.816	34.64355
0.8165	34.74426
0.817	38.26904
0.8175	55.3894
0.818	66.56799
0.8185	74.72534
0.819	80.66711
0.8195	75.32959
0.82	68.98499
0.8205	55.69153
0.821	51.05896
0.8215	50.2533
0.822	59.31702
0.8225	64.45312
0.823	69.89136
0.8235	63.24463
0.824	61.6333
0.8245	53.07312
0.825	39.88037
0.8255	46.62781
0.826	45.2179
0.8265	44.41223
0.827	41.4917
0.8275	27.29187
0.828	20.84656
0.8285	12.48779
0.829	2.01416
0.8295	-17.82532
0.83	-28.19824
0.8305	-28.19824
0.831	-36.05347
0.8315	-35.95276
0.832	-27.39258
0.8325	-24.27063
0.833	-4.22974
0.8335	-1.91345
0.834	0.60425
0.8345	9.36584
0.835	10.87646
0.8355	10.97717
0.836	11.58142
0.8365	10.57434
0.837	7.04956
0.8375	12.48779
0.838	6.2439
0.8385	8.56018
0.839	9.16443
0.8395	9.56726
0.84	4.63257
0.8405	3.22266
0.841	6.2439
0.8415	8.66089
0.842	2.31628
0.8425	6.04248
0.843	10.87646
0.8435	18.63098
0.844	18.73169
0.8445	6.84814
0.845	2.01416
0.8455	14.40125
0.846	13.89771
0.8465	17.42249
0.847	22.55859
0.8475	14.40125
0.848	16.01257
0.8485	28.29895
0.849	25.177
0.8495	27.59399
0.85	18.02673
0.8505	18.22815
0.851	12.68921
0.8515	4.93469
0.852	12.08496
0.8525	9.76868
0.853	11.2793
0.8535	7.5531
0.854	12.68921
0.8545	20.54443
0.855	14.30054
0.8555	8.56018
0.856	0.60425
0.8565	-1.3092
0.857	-7.04956
0.8575	-1.81274
0.858	-9.66797
0.8585	-16.01257
0.859	-22.15576
0.8595	-35.44922
0.86	-43.20374
0.8605	-27.6947
0.861	-25.07629
0.8615	-23.96851
0.862	-40.1825
0.8625	-66.26587
0.863	-77.34375
0.8635	-72.20764
0.864	-72.71118
0.8645	-71.7041
0.865	-77.54517
0.8655	-63.54675
0.866	-62.8418
0.8665	-57.20215
0.867	-49.54834
0.8675	-54.68445
0.868	-55.49011
0.8685	-47.33276
0.869	-36.05347
0.8695	-32.42798
0.87	-28.70178
0.8705	-1.61133
0.871	31.62231
0.8715	59.92126
0.872	83.68835
0.8725	84.69543
0.873	88.72375
0.8735	89.12659
0.874	94.16199
0.8745	72.71118
0.875	60.92834
0.8755	62.74109
0.876	70.49561
0.8765	69.68994
0.877	73.91968
0.8775	74.82605
0.878	59.31702
0.8785	48.84338
0.879	37.26196
0.8795	35.44922
0.88	29.70886
0.8805	29.00391
0.881	29.91028
0.8815	8.05664
0.882	-21.95435
0.8825	-36.55701
0.883	-37.36267
0.8835	-32.32727
0.884	-32.62939
0.8845	-34.34143
0.885	-15.91187
0.8855	18.22815
0.886	33.03223
0.8865	23.66638
0.887	-5.74036
0.8875	-13.89771
0.888	-13.797
0.8885	-23.56567
0.889	-44.91577
0.8895	-60.52551
0.89	-66.16516
0.8905	-67.8772
0.891	-74.2218
0.8915	-71.60339
0.892	-57.50427
0.8925	-32.52869
0.893	-36.4563
0.8935	-48.13843
0.894	-42.7002
0.8945	-22.76001
0.895	-6.44531
0.8955	15.91187
0.896	26.3855
0.8965	44.61365
0.897	55.79224
0.8975	62.13684
0.898	72.61047
0.8985	94.06128
0.899	113.29651
0.8995	113.49792
0.9	110.77881
0.9005	98.59314
0.901	84.39331
0.9015	63.24463
0.902	56.09436
0.9025	47.93701
0.903	36.75842
0.9035	27.19116
0.904	12.08496
0.9045	3.22266
0.905	-2.5177
0.9055	-0.40283
0.906	-4.93469
0.9065	-0.30212
0.907	5.74036
0.9075	8.25806
0.908	16.01257
0.9085	27.99683
0.909	11.48071
0.9095	2.31628
0.91	-0.40283
0.9105	3.02124
0.911	1.3092
0.9115	1.51062
0.912	5.53894
0.9125	11.38
0.913	20.74585
0.9135	21.04797
0.914	25.98267
0.9145	26.78833
0.915	20.1416
0.9155	-5.13611
0.916	-30.01099
0.9165	-38.06763
0.917	-41.08887
0.9175	-43.10303
0.918	-54.58374
0.9185	-57.9071
0.919	-68.78357
0.9195	-61.23047
0.92	-58.51135
0.9205	-51.76392
0.921	-45.82214
0.9215	-33.63647
0.922	-21.55151
0.9225	-5.13611
0.923	2.31628
0.9235	-13.89771
0.924	-9.46655
0.9245	-9.16443
0.925	-0.60425
0.9255	2.92053
0.926	-5.63965
0.9265	2.5177
0.927	15.91187
0.9275	31.72302
0.928	56.29578
0.9285	76.84021
0.929	91.64429
0.9295	92.14783
0.93	86.60889
0.9305	87.41455
0.931	76.63879
0.9315	70.69702
0.932	74.12109
0.9325	66.16516
0.933	64.65454
0.9335	65.05737
0.934	55.59082
0.9345	32.22656
0.935	-3.92761
0.9355	-5.43823
0.936	2.81982
0.9365	10.47363
0.937	-2.71912
0.9375	-13.89771
0.938	-24.16992
0.9385	-46.82922
0.939	-55.69153
0.9395	-46.22498
0.94	-16.81824
0.9405	-5.13611
0.941	5.84106
0.9415	7.95593
0.942	0.80566
0.9425	3.42407
0.943	0.90637
0.9435	51.86462
0.944	124.77722
0.9445	151.86768
0.945	128.70483
0.9455	94.66553
0.946	54.98657
0.9465	22.76001
0.947	-0.90637
0.9475	-19.43665
0.948	-44.51294
0.9485	-50.354
0.949	-49.95117
0.9495	-57.40356
0.95	-58.30994
0.9505	-27.79541
0.951	-0.80566
0.9515	16.3147
0.952	16.51611
0.9525	17.32178
0.953	12.48779
0.9535	8.05664
0.954	4.73328
0.9545	-2.61841
0.955	-14.70337
0.9555	-19.03381
0.956	-14.60266
0.9565	-15.00549
0.957	-6.14319
0.9575	24.16992
0.958	47.93701
0.9585	53.67737
0.959	46.72852
0.9595	45.52002
0.96	45.11719
0.9605	36.95984
0.961	23.26355
0.9615	6.64673
0.962	0.40283
0.9625	-4.53186
0.963	-3.62549
0.9635	-3.8269
0.964	-6.2439
0.9645	-14.09912
0.965	-9.97009
0.9655	-4.43115
0.966	-2.01416
0.9665	-5.23682
0.967	-18.12744
0.9675	-17.92603
0.968	-3.42407
0.9685	9.16443
0.969	11.68213
0.9695	11.38
0.97	8.35876
0.9705	9.66797
0.971	15.40833
0.9715	16.11328
0.972	24.67346
0.9725	29.20532
0.973	23.8678
0.9735	22.45789
0.974	20.44373
0.9745	17.6239
0.975	7.95593
0.9755	6.74744
0.976	3.62549
0.9765	0.20142
0.977	-16.71753
0.9775	-39.57825
0.978	-44.31152
0.9785	-40.48462
0.979	-59.21631
0.9795	-80.06287
0.98	-71.20056
0.9805	-60.02197
0.981	-48.84338
0.9815	-45.2179
0.982	-40.88745
0.9825	-44.51294
0.983	-40.88745
0.9835	-17.42249
0.984	0.10071
0.9845	4.02832
0.985	5.43823
0.9855	-2.81982
0.986	9.56726
0.9865	17.22107
0.987	18.22815
0.9875	20.1416
0.988	29.30603
0.9885	35.54993
0.989	36.25488
0.9895	82.27844
0.99	132.33032
0.9905	150.35706
0.991	125.58289
0.9915	94.76624
0.992	74.2218
0.9925	46.42639
0.993	24.67346
0.9935	-1.40991
0.994	-19.43665
0.9945	-36.4563
0.995	-38.47046
0.9955	-31.92444
0.996	-7.25098
0.9965	26.98975
0.997	46.62781
0.9975	43.20374
0.998	33.23364
0.9985	18.02673
0.999	1.10779
0.9995	-9.56726
1	-15.1062
1.0005	-18.53027
1.001	-26.18408
1.0015	-29.91028
1.002	-35.75134
1.0025	-46.82922
1.003	-53.87878
1.0035	-46.12427
1.004	-34.84497
1.0045	-10.77576
1.005	14.30054
1.0055	26.88904
1.006	55.18799
1.0065	55.49011
1.007	53.97949
1.0075	53.37524
1.008	65.96375
1.0085	81.87561
1.009	80.16357
1.0095	46.62781
1.01	4.43115
1.0105	-40.58533
1.011	-56.90002
1.0115	-75.73242
1.012	-101.8158
1.0125	-120.7489
1.013	-139.48059
1.0135	-148.54431
1.014	-156.29883
1.0145	-159.21936
1.015	-133.43811
1.0155	-101.11084
1.016	-57.8064
1.0165	-25.57983
1.017	6.64673
1.0175	29.80957
1.018	55.18799
1.0185	82.27844
1.019	97.18323
1.0195	105.84412
1.02	109.67102
1.0205	108.56323
1.021	114.80713
1.0215	120.64819
1.022	131.42395
1.0225	176.23901
1.023	211.38611
1.0235	220.14771
1.024	195.47424
1.0245	159.82361
1.025	116.922
1.0255	73.51685
1.026	37.46338
1.0265	12.78992
1.027	-3.32336
1.0275	-18.53027
1.028	-27.09045
1.0285	-29.70886
1.029	-29.40674
1.0295	-27.79541
1.03	-26.98975
1.0305	-29.10461
1.031	-45.62073
1.0315	-23.26355
1.032	12.18567
1.0325	36.35559
1.033	38.47046
1.0335	33.73718
1.034	-12.89062
1.0345	-67.97791
1.035	-113.69934
1.0355	-151.16272
1.036	-178.5553
1.0365	-198.29407
1.037	-212.4939
1.0375	-211.99036
1.038	-188.42468
1.0385	-149.34998
1.039	-109.16748
1.0395	-95.06836
1.04	-47.23206
1.0405	75.73242
1.041	154.78821
1.0415	178.35388
1.042	173.21777
1.0425	150.25635
1.043	125.38147
1.0435	113.59863
1.044	89.22729
1.0445	76.84021
1.045	65.76233
1.0455	83.28552
1.046	90.33508
1.0465	96.27686
1.047	70.29419
1.0475	30.51453
1.048	23.8678
1.0485	18.42957
1.049	2.71912
1.0495	-18.42957
1.05	-29.10461
1.0505	-48.03772
1.051	-63.14392
1.0515	-65.25879
1.052	-49.95117
1.0525	-30.11169
1.053	-34.44214
1.0535	-57.70569
1.054	-74.32251
1.0545	-71.40198
1.055	-71.60339
1.0555	-77.948
1.056	-72.50977
1.0565	-70.69702
1.057	-70.69702
1.0575	-10.27222
1.058	52.36816
1.0585	92.14783
1.059	99.70093
1.0595	83.68835
1.06	64.75525
1.0605	44.21082
1.061	29.20532
1.0615	21.14868
1.062	16.11328
1.0625	26.48621
1.063	26.58691
1.0635	34.34143
1.064	32.52869
1.0645	30.81665
1.065	21.55151
1.0655	1.40991
1.066	-2.71912
1.0665	6.44531
1.067	2.11487
1.0675	-14.60266
1.068	-34.24072
1.0685	-46.12427
1.069	-46.32568
1.0695	-47.43347
1.07	-48.94409
1.0705	-67.8772
1.071	-90.73792
1.0715	-105.34058
1.072	-93.0542
1.0725	-79.15649
1.073	-51.96533
1.0735	-23.96851
1.074	-4.63257
1.0745	6.14319
1.075	6.14319
1.0755	5.84106
1.076	-9.06372
1.0765	-21.75293
1.077	-28.09753
1.0775	-44.71436
1.078	-51.15967
1.0785	-52.56958
1.079	-39.88037
1.0795	-12.18567
1.08	9.56726
1.0805	85.90393
1.081	165.16113
1.0815	197.68982
1.082	213.19885
1.0825	211.18469
1.083	192.85583
1.0835	150.05493
1.084	87.21313
1.0845	36.85913
1.085	-8.45947
1.0855	-42.7002
1.086	-86.40747
1.0865	-79.86145
1.087	-3.02124
1.0875	30.51453
1.088	29.40674
1.0885	-10.77576
1.089	-46.02356
1.0895	-62.9425
1.09	-67.37366
1.0905	-31.62231
1.091	-7.45239
1.0915	5.0354
1.092	6.2439
1.0925	18.12744
1.093	97.18323
1.0935	169.59229
1.094	183.18787
1.0945	161.73706
1.095	114.00146
1.0955	64.75525
1.096	6.44531
1.0965	-22.96143
1.097	-52.56958
1.0975	-58.41064
1.098	-64.75525
1.0985	-95.16907
1.099	-128.50342
1.0995	-146.22803
1.1	-93.35632
1.1005	-52.8717
1.101	-52.06604
1.1015	-57.50427
1.102	-72.20764
1.1025	-79.86145
1.103	-76.84021
1.1035	-72.10693
1.104	-51.5625
1.1045	-45.41931
1.105	-31.52161
1.1055	-12.5885
1.106	1.81274
1.1065	25.37842
1.107	37.26196
1.1075	44.71436
1.108	32.7301
1.1085	34.64355
1.109	32.22656
1.1095	30.91736
1.11	28.50037
1.1105	22.86072
1.111	10.27222
1.1115	1.91345
1.112	-5.33752
1.1125	-15.1062
1.113	-7.85522
1.1135	30.91736
1.114	95.16907
1.1145	127.69775
1.115	125.58289
1.1155	91.745
1.116	53.77808
1.1165	14.60266
1.117	-7.95593
1.1175	-39.17542
1.118	-59.82056
1.1185	-66.06445
1.119	-61.6333
1.1195	-74.72534
1.12	-78.65295
1.1205	-83.58765
1.121	-77.14233
1.1215	-66.46729
1.122	-62.53967
1.1225	-59.01489
1.123	-47.8363
1.1235	-26.98975
1.124	-0.10071
1.1245	26.68762
1.125	37.7655
1.1255	53.57666
1.126	60.72693
1.1265	60.72693
1.127	52.97241
1.1275	39.17542
1.128	32.42798
1.1285	32.22656
1.129	35.85205
1.1295	30.91736
1.13	64.75525
1.1305	152.47192
1.131	193.05725
1.1315	169.39087
1.132	112.49084
1.1325	67.07153
1.133	41.4917
1.1335	-2.11487
1.134	-57.50427
1.1345	-120.54749
1.135	-164.7583
1.1355	-159.82361
1.136	-139.5813
1.1365	-115.41138
1.137	-79.35791
1.1375	-60.4248
1.138	-54.58374
1.1385	-51.76392
1.139	-65.15808
1.1395	-77.64587
1.14	-66.76941
1.1405	-58.51135
1.141	-19.63806
1.1415	49.24622
1.142	123.97156
1.1425	167.37671
1.143	171.20361
1.1435	146.22803
1.144	102.92358
1.1445	91.64429
1.145	83.48694
1.1455	75.73242
1.146	57.30286
1.1465	27.59399
1.147	30.91736
1.1475	34.54285
1.148	28.50037
1.1485	49.34692
1.149	85.60181
1.1495	88.92517
1.15	58.61206
1.1505	-0.50354
1.151	-52.26746
1.1515	-98.29102
1.152	-113.69934
1.1525	-115.20996
1.153	-124.57581
1.1535	-133.63953
1.154	-159.01794
1.1545	-161.43494
1.155	-116.31775
1.1555	-82.78198
1.156	-53.97949
1.1565	-37.06055
1.157	-32.02515
1.1575	-31.21948
1.158	-26.88904
1.1585	-14.60266
1.159	-12.68921
1.1595	-5.43823
1.16	30.41382
1.1605	64.75525
1.161	78.04871
1.1615	92.04712
1.162	91.94641
1.1625	91.8457
1.163	87.71667
1.1635	70.59631
1.164	50.15259
1.1645	36.55701
1.165	24.97559
1.1655	17.32178
1.166	11.17859
1.1665	8.45947
1.167	-2.81982
1.1675	-9.97009
1.168	-14.30054
1.1685	-26.48621
1.169	-53.07312
1.1695	-38.06763
1.17	-12.18567
1.1705	-19.53735
1.171	-4.02832
1.1715	7.75452
1.172	-0.60425
1.1725	-21.65222
1.173	-52.97241
1.1735	-76.94092
1.174	-98.59314
1.1745	-100.20447
1.175	-93.25562
1.1755	-71.50269
1.176	-52.97241
1.1765	-29.50745
1.177	-1.51062
1.1775	41.29028
1.178	92.55066
1.1785	120.44678
1.179	127.09351
1.1795	110.07385
1.18	120.44678
1.1805	188.52539
1.181	175.73547
1.1815	146.93298
1.182	100.20447
1.1825	90.43579
1.183	131.62537
1.1835	149.34998
1.184	133.13599
1.1845	77.74658
1.185	7.35168
1.1855	-51.76392
1.186	-123.56873
1.1865	-190.33813
1.187	-232.83691
1.1875	-239.58435
1.188	-224.47815
1.1885	-209.87549
1.189	-183.69141
1.1895	-144.31458
1.19	-93.0542
1.1905	-48.13843
1.191	-24.16992
1.1915	2.31628
1.192	28.39966
1.1925	41.79382
1.193	48.23914
1.1935	83.28552
1.194	100.20447
1.1945	123.16589
1.195	136.45935
1.1955	132.12891
1.196	115.61279
1.1965	96.37756
1.197	88.52234
1.1975	94.06128
1.198	91.94641
1.1985	76.43738
1.199	48.74268
1.1995	16.01257
1.2	-14.50195
1.2005	-32.7301
1.201	-21.65222
1.2015	-0.60425
1.202	-8.56018
1.2025	-26.28479
1.203	32.7301
1.2035	83.88977
1.204	91.8457
1.2045	62.33826
1.205	11.68213
1.2055	-36.4563
1.206	-74.02039
1.2065	-100.6073
1.207	-127.99988
1.2075	-129.91333
1.208	-118.93616
1.2085	-86.8103
1.209	-53.97949
1.2095	-16.01257
1.21	19.63806
1.2105	47.53418
1.211	70.29419
1.2115	78.75366
1.212	74.72534
1.2125	78.85437
1.213	78.04871
1.2135	62.33826
1.214	51.66321
1.2145	50.55542
1.215	60.62622
1.2155	103.22571
1.216	122.56165
1.2165	106.54907
1.217	76.03455
1.2175	42.7002
1.218	10.77576
1.2185	-18.63098
1.219	-50.2533
1.2195	-71.60339
1.22	-85.09827
1.2205	-100.70801
1.221	-99.2981
1.2215	-98.29102
1.222	-86.91101
1.2225	-86.20605
1.223	-70.19348
1.2235	-50.2533
1.224	-37.16125
1.2245	-26.98975
1.225	-25.57983
1.2255	-26.48621
1.226	-9.86938
1.2265	-5.94177
1.227	-8.35876
1.2275	-9.26514
1.228	-11.07788
1.2285	-10.97717
1.229	-23.16284
1.2295	-38.26904
1.23	-41.99524
1.2305	-31.82373
1.231	9.06372
1.2315	25.88196
1.232	18.42957
1.2325	9.26514
1.233	-9.97009
1.2335	-26.18408
1.234	-58.10852
1.2345	-69.99207
1.235	-55.59082
1.2355	-30.61523
1.236	-6.2439
1.2365	6.74744
1.237	16.3147
1.2375	26.68762
1.238	44.11011
1.2385	53.97949
1.239	59.82056
1.2395	63.64746
1.24	72.10693
1.2405	59.51843
1.241	47.93701
1.2415	38.36975
1.242	31.72302
1.2425	39.47754
1.243	42.19666
1.2435	39.07471
1.244	39.17542
1.2445	57.9071
1.245	99.49951
1.2455	121.65527
1.246	142.40112
1.2465	141.99829
1.247	110.6781
1.2475	49.85046
1.248	-12.18567
1.2485	-19.33594
1.249	26.58691
1.2495	99.60022
1.25	144.51599
1.2505	162.34131
1.251	151.96838
1.2515	104.63562
1.252	42.59949
1.2525	-24.27063
1.253	-70.99915
1.2535	-122.05811
1.254	-168.68591
1.2545	-209.06982
1.255	-243.00842
1.2555	-253.78418
1.256	-257.40967
1.2565	-245.82825
1.257	-206.85425
1.2575	-40.1825
1.258	107.45544
1.2585	169.59229
1.259	176.44043
1.2595	140.58838
1.26	98.29102
1.2605	61.53259
1.261	7.85522
1.2615	-23.8678
1.262	-38.67188
1.2625	-45.2179
1.263	-19.73877
1.2635	57.30286
1.264	107.85828
1.2645	127.49634
1.265	121.15173
1.2655	102.21863
1.266	60.62622
1.2665	6.84814
1.267	-34.03931
1.2675	-51.05896
1.268	-40.98816
1.2685	-15.00549
1.269	19.53735
1.2695	26.68762
1.27	20.1416
1.2705	4.33044
1.271	-22.76001
1.2715	-48.03772
1.272	-65.66162
1.2725	-92.85278
1.273	-94.66553
1.2735	-60.62622
1.274	-36.85913
1.2745	-30.81665
1.275	-7.15027
1.2755	34.34143
1.276	57.8064
1.2765	54.88586
1.277	58.71277
1.2775	60.82764
1.278	68.68286
1.2785	76.33667
1.279	70.59631
1.2795	58.41064
1.28	37.66479
1.2805	11.88354
1.281	-8.05664
1.2815	-22.45789
1.282	-22.35718
1.2825	-25.98267
1.283	-27.59399
1.2835	-33.13293
1.284	-18.32886
1.2845	1.40991
1.285	-7.85522
1.2855	-28.9032
1.286	-36.15417
1.2865	-29.10461
1.287	-26.88904
1.2875	-24.97559
1.288	-30.11169
1.2885	-37.7655
1.289	-33.13293
1.2895	-18.73169
1.29	-19.43665
1.2905	-31.21948
1.291	-41.39099
1.2915	-70.79773
1.292	-114.70642
1.2925	-142.50183
1.293	-133.43811
1.2935	-120.34607
1.294	-98.29102
1.2945	-70.99915
1.295	-51.15967
1.2955	-30.81665
1.296	-9.86938
1.2965	12.48779
1.297	26.98975
1.2975	45.92285
1.298	68.88428
1.2985	97.98889
1.299	119.94324
1.2995	125.88501
1.3	127.89917
1.3005	120.04395
1.301	95.77332
1.3015	106.14624
1.302	194.36646
1.3025	228.80859
1.303	210.78186
1.3035	161.83777
1.304	176.23901
1.3045	181.073
1.305	139.48059
1.3055	64.151
1.306	1.71204
1.3065	-42.7002
1.307	-88.82446
1.3075	-114.505
1.308	-119.54041
1.3085	-103.22571
1.309	-80.86853
1.3095	16.81824
1.31	145.52307
1.3105	212.4939
1.311	222.06116
1.3115	212.4939
1.312	181.37512
1.3125	159.01794
1.313	104.3335
1.3135	-3.32336
1.314	-88.52234
1.3145	-144.81812
1.315	-165.86609
1.3155	-141.79688
1.316	-128.70483
1.3165	-120.7489
1.317	-120.95032
1.3175	-122.46094
1.318	-108.76465
1.3185	-110.57739
1.319	-100.30518
1.3195	-80.76782
1.32	-62.43896
1.3205	-50.65613
1.321	-26.98975
1.3215	-9.76868
1.322	8.66089
1.3225	68.07861
1.323	123.06519
1.3235	135.95581
1.324	115.61279
1.3245	87.01172
1.325	54.78516
1.3255	19.63806
1.326	-11.48071
1.3265	-31.92444
1.327	-54.68445
1.3275	-58.30994
1.328	-46.72852
1.3285	-5.43823
1.329	55.2887
1.3295	76.84021
1.33	55.69153
1.3305	29.40674
1.331	9.86938
1.3315	6.54602
1.332	5.0354
1.3325	-1.10779
1.333	-5.43823
1.3335	-20.44373
1.334	-26.78833
1.3345	-43.40515
1.335	-55.69153
1.3355	-54.88586
1.336	-48.74268
1.3365	-32.22656
1.337	-28.50037
1.3375	-34.03931
1.338	-33.83789
1.3385	-39.88037
1.339	-28.19824
1.3395	0
1.34	20.84656
1.3405	27.09045
1.341	31.52161
1.3415	107.85828
1.342	158.91724
1.3425	156.29883
1.343	135.04944
1.3435	100.10376
1.344	72.81189
1.3445	33.83789
1.345	1.00708
1.3455	-32.32727
1.346	-52.46887
1.3465	-52.16675
1.347	-54.38232
1.3475	-51.66321
1.348	-49.85046
1.3485	-56.39648
1.349	-57.00073
1.3495	-67.47437
1.35	-53.07312
1.3505	-33.83789
1.351	-22.6593
1.3515	-13.49487
1.352	-12.28638
1.3525	-10.47363
1.353	5.53894
1.3535	16.11328
1.354	-3.32336
1.3545	-35.2478
1.355	-34.94568
1.3555	-17.6239
1.356	-28.29895
1.3565	-38.67188
1.357	-53.57666
1.3575	-57.50427
1.358	-20.1416
1.3585	42.09595
1.359	69.08569
1.3595	68.58215
1.36	57.8064
1.3605	38.06763
1.361	26.08337
1.3615	8.05664
1.362	-4.33044
1.3625	-33.53577
1.363	-35.2478
1.3635	-9.06372
1.364	5.23682
1.3645	34.24072
1.365	66.76941
1.3655	81.37207
1.366	78.04871
1.3665	137.46643
1.367	230.52063
1.3675	301.31836
1.368	341.60156
1.3685	318.84155
1.369	256.80542
1.3695	176.0376
1.37	91.04004
1.3705	13.19275
1.371	-43.50586
1.3715	-65.76233
1.372	-80.16357
1.3725	-95.87402
1.373	-93.55774
1.3735	-82.9834
1.374	-67.37366
1.3745	-53.67737
1.375	-51.36108
1.3755	-60.4248
1.376	-54.78516
1.3765	-33.63647
1.377	-19.23523
1.3775	-16.3147
1.378	-7.95593
1.3785	-8.25806
1.379	13.19275
1.3795	21.85364
1.38	50.15259
1.3805	66.26587
1.381	44.91577
1.3815	10.67505
1.382	-18.42957
1.3825	-17.01965
1.383	-12.99133
1.3835	-20.1416
1.384	-29.80957
1.3845	-42.19666
1.385	-41.69312
1.3855	-42.09595
1.386	-49.74976
1.3865	-11.98425
1.387	40.78674
1.3875	87.91809
1.388	104.83704
1.3885	99.60022
1.389	87.51526
1.3895	56.19507
1.39	29.50745
1.3905	4.83398
1.391	-20.34302
1.3915	-60.52551
1.392	-58.91418
1.3925	-16.51611
1.393	42.29736
1.3935	45.72144
1.394	24.67346
1.3945	2.01416
1.395	-27.39258
1.3955	-60.52551
1.396	-86.40747
1.3965	-113.90076
1.397	-134.44519
1.3975	-160.62927
1.398	-173.5199
1.3985	-155.9967
1.399	-129.20837
1.3995	-95.06836
1.4	-73.51685
1.4005	-59.41772
1.401	-47.63489
1.4015	-28.70178
1.402	-22.55859
1.4025	4.73328
1.403	68.28003
1.4035	78.35083
1.404	61.6333
1.4045	49.14551
1.405	26.68762
1.4055	16.21399
1.406	-3.12195
1.4065	-44.71436
1.407	-62.23755
1.4075	-69.89136
1.408	-87.91809
1.4085	-96.27686
1.409	-91.34216
1.4095	-61.23047
1.41	-28.60107
1.4105	-4.43115
1.411	10.47363
1.4115	24.16992
1.412	36.05347
1.4125	57.00073
1.413	67.8772
1.4135	70.89844
1.414	63.74817
1.4145	48.74268
1.415	44.81506
1.4155	134.24377
1.416	196.1792
1.4165	201.01318
1.417	151.26343
1.4175	87.41455
1.418	67.77649
1.4185	30.11169
1.419	31.21948
1.4195	19.63806
1.42	-24.47205
1.4205	-83.78906
1.421	-97.78748
1.4215	-105.23987
1.422	-114.10217
1.4225	-127.69775
1.423	-129.61121
1.4235	-91.34216
1.424	-54.88586
1.4245	-15.81116
1.425	48.03772
1.4255	90.03296
1.426	105.23987
1.4265	102.82288
1.427	79.86145
1.4275	45.41931
1.428	40.78674
1.4285	39.27612
1.429	38.57117
1.4295	30.2124
1.43	41.18958
1.4305	70.99915
1.431	80.66711
1.4315	67.47437
1.432	30.2124
1.4325	0.80566
1.433	4.33044
1.4335	7.95593
1.434	10.57434
1.4345	14.60266
1.435	19.53735
1.4355	16.01257
1.436	22.96143
1.4365	26.28479
1.437	8.35876
1.4375	-5.94177
1.438	-17.72461
1.4385	-25.68054
1.439	-26.18408
1.4395	-9.76868
1.44	-15.50903
1.4405	-3.62549
1.441	4.73328
1.4415	-14.19983
1.442	-6.74744
1.4425	20.54443
1.443	37.26196
1.4435	42.8009
1.444	17.01965
1.4445	-14.19983
1.445	-48.74268
1.4455	-76.53809
1.446	-89.328
1.4465	-89.83154
1.447	-40.88745
1.4475	46.42639
1.448	95.26978
1.4485	105.94482
1.449	95.67261
1.4495	73.91968
1.45	50.354
1.4505	9.86938
1.451	8.25806
1.4515	32.02515
1.452	42.8009
1.4525	32.62939
1.453	10.0708
1.4535	5.33752
1.454	4.63257
1.4545	-15.30762
1.455	-39.17542
1.4555	-71.20056
1.456	-86.00464
1.4565	-91.04004
1.457	-93.85986
1.4575	-83.68835
1.458	-51.5625
1.4585	-31.01807
1.459	-14.90479
1.4595	5.84106
1.46	24.37134
1.4605	55.18799
1.461	60.52551
1.4615	54.68445
1.462	50.65613
1.4625	50.95825
1.463	43.50586
1.4635	45.11719
1.464	41.4917
1.4645	23.06213
1.465	5.94177
1.4655	-3.52478
1.466	7.5531
1.4665	66.16516
1.467	143.60962
1.4675	256.5033
1.468	375.03662
1.4685	404.44336
1.469	370.70618
1.4695	271.10596
1.47	133.3374
1.4705	3.12195
1.471	-94.06128
1.4715	-186.1084
1.472	-269.0918
1.4725	-324.4812
1.473	-359.02405
1.4735	-342.30652
1.474	-274.53003
1.4745	-210.98328
1.475	-158.01086
1.4755	-122.76306
1.476	-91.94641
1.4765	-69.68994
1.477	-36.15417
1.4775	-7.5531
1.478	5.23682
1.4785	3.22266
1.479	-9.06372
1.4795	-27.09045
1.48	-1.00708
1.4805	50.85754
1.481	115.61279
1.4815	138.27209
1.482	145.01953
1.4825	185.30273
1.483	197.18628
1.4835	181.17371
1.484	110.07385
1.4845	3.8269
1.485	-85.90393
1.4855	-156.29883
1.486	-207.96204
1.4865	-221.55762
1.487	-211.78894
1.4875	-189.12964
1.488	-152.06909
1.4885	-100.30518
1.489	-56.19507
1.4895	-0.60425
1.49	34.94568
1.4905	56.39648
1.491	113.80005
1.4915	161.43494
1.492	168.78662
1.4925	160.22644
1.493	123.56873
1.4935	105.03845
1.494	97.48535
1.4945	77.44446
1.495	53.37524
1.4955	17.6239
1.496	-16.41541
1.4965	-22.05505
1.497	-17.01965
1.4975	-20.84656
1.498	-28.29895
1.4985	-35.85205
1.499	-29.80957
1.4995	-30.91736
1.5	-22.6593
1.5005	-12.89062
1.501	1.71204
1.5015	23.56567
1.502	49.14551
1.5025	65.96375
1.503	67.77649
1.5035	36.85913
1.504	17.82532
1.5045	-6.44531
1.505	-28.70178
1.5055	-36.4563
1.506	-17.92603
1.5065	43.50586
1.507	83.68835
1.5075	99.70093
1.508	86.50818
1.5085	66.97083
1.509	34.94568
1.5095	21.55151
1.51	53.77808
1.5105	117.72766
1.511	144.81812
1.5115	113.09509
1.512	44.91577
1.5125	-33.53577
1.513	-107.35474
1.5135	-183.69141
1.514	-234.34753
1.5145	-239.58435
1.515	-201.11389
1.5155	-159.11865
1.516	-123.66943
1.5165	-89.22729
1.517	-50.2533
1.5175	7.25098
1.518	65.25879
1.5185	98.29102
1.519	110.17456
1.5195	109.06677
1.52	122.96448
1.5205	142.60254
1.521	141.39404
1.5215	117.62695
1.522	75.32959
1.5225	43.30444
1.523	38.16833
1.5235	28.29895
1.524	17.72461
1.5245	-19.83948
1.525	-91.14075
1.5255	-142.60254
1.526	-117.92908
1.5265	48.74268
1.527	155.19104
1.5275	220.85266
1.528	241.09497
1.5285	181.37512
1.529	96.67969
1.5295	12.78992
1.53	-50.45471
1.5305	-102.11792
1.531	-151.16272
1.5315	-192.25159
1.532	-139.98413
1.5325	-31.4209
1.533	88.72375
1.5335	142.099
1.534	137.16431
1.5345	124.77722
1.535	100.10376
1.5355	41.59241
1.536	-17.92603
1.5365	-77.64587
1.537	-143.71033
1.5375	-174.92981
1.538	-159.01794
1.5385	-124.07227
1.539	-68.98499
1.5395	-44.81506
1.54	-24.67346
1.5405	-4.83398
1.541	10.97717
1.5415	7.75452
1.542	-0.70496
1.5425	-26.78833
1.543	-29.00391
1.5435	-32.22656
1.544	-61.23047
1.5445	-78.04871
1.545	-36.65771
1.5455	27.39258
1.546	72.40906
1.5465	75.73242
1.547	60.92834
1.5475	55.2887
1.548	31.82373
1.5485	144.91882
1.549	250.36011
1.5495	319.04297
1.55	357.91626
1.5505	337.87537
1.551	275.73853
1.5515	235.95886
1.552	155.09033
1.5525	32.93152
1.553	-109.16748
1.5535	-208.26416
1.554	-237.77161
1.5545	-265.66772
1.555	-283.79517
1.5555	-282.28455
1.556	-271.20667
1.5565	-242.30347
1.557	-194.26575
1.5575	-145.32166
1.558	-104.93774
1.5585	-67.37366
1.559	-43.90869
1.5595	-45.01648
1.56	-35.95276
1.5605	-11.2793
1.561	-2.11487
1.5615	-11.88354
1.562	-3.7262
1.5625	-12.08496
1.563	-33.33435
1.5635	-23.46497
1.564	2.81982
1.5645	30.11169
1.565	47.43347
1.5655	64.05029
1.566	76.13525
1.5665	84.2926
1.567	77.64587
1.5675	76.7395
1.568	75.63171
1.5685	71.09985
1.569	81.7749
1.5695	95.16907
1.57	85.90393
1.5705	70.09277
1.571	63.54675
1.5715	80.96924
1.572	111.28235
1.5725	212.4939
1.573	291.34827
1.5735	299.3042
1.574	246.13037
1.5745	154.08325
1.575	52.16675
1.5755	-33.63647
1.576	-55.2887
1.5765	-33.23364
1.577	-12.18567
1.5775	-30.41382
1.578	-73.21472
1.5785	-121.9574
1.579	-185.10132
1.5795	-235.1532
1.58	-315.31677
1.5805	-352.27661
1.581	-356.10352
1.5815	-332.23572
1.582	-289.63623
1.5825	-194.66858
1.583	-105.94482
1.5835	-64.65454
1.584	-28.60107
1.5845	35.04639
1.585	135.35156
1.5855	164.05334
1.586	155.29175
1.5865	146.32874
1.587	153.479
1.5875	153.98254
1.588	127.99988
1.5885	95.16907
1.589	51.36108
1.5895	14.40125
1.59	-11.07788
1.5905	-49.64905
1.591	-81.7749
1.5915	-65.3595
1.592	-43.80798
1.5925	-41.4917
1.593	-59.82056
1.5935	-86.10535
1.594	-93.45703
1.5945	-81.97632
1.595	-44.31152
1.5955	-20.54443
1.596	-29.50745
1.5965	-27.39258
1.597	15.20691
1.5975	77.04163
1.598	125.18005
1.5985	190.33813
1.599	257.20825
1.5995	258.11462
1.6	230.41992
1.6005	204.43726
1.601	137.36572
1.6015	57.8064
1.602	-18.32886
1.6025	-74.12109
1.603	-116.31775
1.6035	-136.15723
1.604	-136.86218
1.6045	-132.0282
1.605	-106.44836
1.6055	-79.86145
1.606	-79.76074
1.6065	-69.89136
1.607	-53.57666
1.6075	-57.70569
1.608	-82.27844
1.6085	-76.13525
1.609	-57.30286
1.6095	-33.9386
1.61	103.02429
1.6105	268.78967
1.611	339.28528
1.6115	344.32068
1.612	302.92969
1.6125	285.5072
1.613	251.66931
1.6135	189.53247
1.614	114.60571
1.6145	76.03455
1.615	60.92834
1.6155	45.52002
1.616	29.60815
1.6165	18.93311
1.617	12.28638
1.6175	5.0354
1.618	-10.67505
1.6185	-39.07471
1.619	-60.3241
1.6195	-60.02197
1.62	-27.59399
1.6205	13.797
1.621	27.6947
1.6215	45.11719
1.622	58.30994
1.6225	51.76392
1.623	26.08337
1.6235	-31.52161
1.624	-86.50818
1.6245	-148.3429
1.625	-182.78503
1.6255	-196.07849
1.626	-193.6615
1.6265	-189.12964
1.627	-201.2146
1.6275	-203.53088
1.628	-213.09814
1.6285	-206.75354
1.629	-197.08557
1.6295	-156.70166
1.63	-121.05103
1.6305	-94.2627
1.631	-75.02747
1.6315	-55.79224
1.632	-49.74976
1.6325	-24.27063
1.633	-4.73328
1.6335	2.11487
1.634	-13.09204
1.6345	-32.22656
1.635	-30.91736
1.6355	-15.40833
1.636	5.63965
1.6365	19.43665
1.637	33.63647
1.6375	82.9834
1.638	164.15405
1.6385	188.52539
1.639	175.13123
1.6395	139.5813
1.64	116.31775
1.6405	92.14783
1.641	53.37524
1.6415	35.2478
1.642	65.96375
1.6425	120.7489
1.643	140.58838
1.6435	132.93457
1.644	114.80713
1.6445	91.44287
1.645	67.67578
1.6455	45.11719
1.646	37.26196
1.6465	33.9386
1.647	36.95984
1.6475	44.71436
1.648	37.7655
1.6485	29.10461
1.649	1.81274
1.6495	1.51062
1.65	16.71753
1.6505	31.01807
1.651	28.29895
1.6515	2.61841
1.652	-35.14709
1.6525	-77.14233
1.653	-97.98889
1.6535	-37.46338
1.654	26.88904
1.6545	31.92444
1.655	6.14319
1.6555	-25.37842
1.656	-61.6333
1.6565	-85.5011
1.657	-115.61279
1.6575	-134.84802
1.658	-102.11792
1.6585	-54.48303
1.659	-9.97009
1.6595	38.67188
1.66	54.78516
1.6605	111.68518
1.661	173.11707
1.6615	193.86292
1.662	182.78503
1.6625	164.85901
1.663	143.20679
1.6635	102.82288
1.664	49.44763
1.6645	0.10071
1.665	-41.08887
1.6655	-45.62073
1.666	-14.30054
1.6665	10.67505
1.667	77.54517
1.6675	110.6781
1.668	74.82605
1.6685	10.0708
1.669	-30.11169
1.6695	-60.4248
1.67	-103.32642
1.6705	-129.40979
1.671	-84.49402
1.6715	-27.99683
1.672	-13.99841
1.6725	-26.48621
1.673	-45.52002
1.6735	-56.90002
1.674	-74.2218
1.6745	-106.64978
1.675	-137.26501
1.6755	-148.14148
1.676	-150.65918
1.6765	-148.74573
1.677	-142.80396
1.6775	-139.5813
1.678	-116.82129
1.6785	-85.60181
1.679	-59.51843
1.6795	-47.93701
1.68	-24.16992
1.6805	19.43665
1.681	73.81897
1.6815	82.17773
1.682	40.98816
1.6825	-31.4209
1.683	-112.28943
1.6835	-182.98645
1.684	-216.62292
1.6845	-226.49231
1.685	-219.64417
1.6855	-192.05017
1.686	-140.58838
1.6865	-63.44604
1.687	22.86072
1.6875	70.29419
1.688	115.20996
1.6885	145.52307
1.689	157.50732
1.6895	163.5498
1.69	214.40735
1.6905	250.56152
1.691	263.25073
1.6915	259.52454
1.692	272.31445
1.6925	286.21216
1.693	271.50879
1.6935	231.22559
1.694	185.70557
1.6945	148.84644
1.695	117.62695
1.6955	93.55774
1.696	70.19348
1.6965	33.73718
1.697	4.33044
1.6975	-19.23523
1.698	1.91345
1.6985	10.17151
1.699	-8.7616
1.6995	-34.24072
1.7	-76.63879
1.7005	-74.62463
1.701	-43.10303
1.7015	-15.60974
1.702	45.01648
1.7025	55.18799
1.703	27.59399
1.7035	-29.60815
1.704	-87.11243
1.7045	-138.77563
1.705	-156.39954
1.7055	-170.39795
1.706	-94.76624
1.7065	-17.32178
1.707	18.32886
1.7075	42.59949
1.708	54.68445
1.7085	64.151
1.709	82.27844
1.7095	107.35474
1.71	111.08093
1.7105	119.84253
1.711	108.86536
1.7115	85.60181
1.712	51.96533
1.7125	-5.84106
1.713	-30.51453
1.7135	42.59949
1.714	75.83313
1.7145	52.8717
1.715	-0.90637
1.7155	-45.52002
1.716	-74.82605
1.7165	-100.00305
1.717	-134.34448
1.7175	-168.4845
1.718	-194.06433
1.7185	-174.02344
1.719	-115.81421
1.7195	-72.10693
1.72	-44.41223
1.7205	-36.35559
1.721	-28.09753
1.7215	-23.26355
1.722	-27.99683
1.7225	7.85522
1.723	34.14001
1.7235	33.53577
1.724	12.18567
1.7245	5.0354
1.725	-26.58691
1.7255	-42.90161
1.726	-75.53101
1.7265	-74.2218
1.727	-75.02747
1.7275	-83.58765
1.728	-84.79614
1.7285	-81.27136
1.729	-82.88269
1.7295	-69.38782
1.73	-48.84338
1.7305	-21.65222
1.731	10.77576
1.7315	42.7002
1.732	66.6687
1.7325	74.92676
1.733	84.09119
1.7335	86.40747
1.734	89.52942
1.7345	83.88977
1.735	78.85437
1.7355	59.61914
1.736	73.91968
1.7365	78.75366
1.737	38.57117
1.7375	-22.15576
1.738	-75.22888
1.7385	-85.80322
1.739	-116.11633
1.7395	-142.70325
1.74	-163.4491
1.7405	-129.00696
1.741	-69.79065
1.7415	-46.62781
1.742	-31.32019
1.7425	-9.66797
1.743	11.78284
1.7435	21.45081
1.744	16.3147
1.7445	7.75452
1.745	-6.3446
1.7455	-5.74036
1.746	-7.04956
1.7465	4.93469
1.747	31.21948
1.7475	96.47827
1.748	166.97388
1.7485	217.73071
1.749	218.33496
1.7495	191.64734
1.75	175.43335
1.7505	153.57971
1.751	107.65686
1.7515	79.86145
1.752	81.97632
1.7525	111.8866
1.753	152.1698
1.7535	194.56787
1.754	182.08008
1.7545	143.60962
1.755	77.04163
1.7555	20.1416
1.756	-31.11877
1.7565	-86.8103
1.757	-130.11475
1.7575	-117.02271
1.758	-82.07703
1.7585	-51.26038
1.759	-31.01807
1.7595	-13.39417
1.76	1.61133
1.7605	-0.40283
1.761	-16.11328
1.7615	-21.85364
1.762	3.92761
1.7625	56.29578
1.763	88.22021
1.7635	76.43738
1.764	58.30994
1.7645	41.89453
1.765	4.43115
1.7655	-19.43665
1.766	-48.64197
1.7665	-64.95667
1.767	-89.42871
1.7675	-57.8064
1.768	-49.34692
1.7685	-74.62463
1.769	-104.93774
1.7695	-129.61121
1.77	-144.71741
1.7705	-166.36963
1.771	-183.28857
1.7715	-183.79211
1.772	-164.25476
1.7725	-133.3374
1.773	-84.59473
1.7735	-46.5271
1.774	-11.78284
1.7745	30.71594
1.775	53.17383
1.7755	74.12109
1.776	73.91968
1.7765	77.948
1.777	79.2572
1.7775	98.49243
1.778	98.59314
1.7785	75.22888
1.779	66.87012
1.7795	59.71985
1.78	58.00781
1.7805	58.30994
1.781	45.82214
1.7815	35.54993
1.782	24.27063
1.7825	90.43579
1.783	165.36255
1.7835	233.54187
1.784	256.20117
1.7845	232.03125
1.785	180.06592
1.7855	84.49402
1.786	-11.58142
1.7865	-98.59314
1.787	-145.8252
1.7875	-168.78662
1.788	-173.11707
1.7885	-172.81494
1.789	-171.80786
1.7895	-163.75122
1.79	-121.75598
1.7905	-85.80322
1.791	-76.33667
1.7915	-71.20056
1.792	-18.42957
1.7925	109.3689
1.793	174.72839
1.7935	193.35938
1.794	184.49707
1.7945	183.79211
1.795	188.32397
1.7955	195.97778
1.796	174.62769
1.7965	143.4082
1.797	100.10376
1.7975	52.36816
1.798	-1.61133
1.7985	-60.12268
1.799	-94.46411
1.7995	-125.98572
1.8	-163.14697
1.8005	-202.02026
1.801	-224.78027
1.8015	-203.12805
1.802	-171.60645
1.8025	-138.07068
1.803	-127.39563
1.8035	-133.94165
1.804	-118.2312
1.8045	-92.14783
1.805	-70.09277
1.8055	-51.36108
1.806	-17.01965
1.8065	-17.72461
1.807	-16.51611
1.8075	-2.61841
1.808	5.0354
1.8085	1.51062
1.809	-12.5885
1.8095	-8.7616
1.81	25.57983
1.8105	39.17542
1.811	47.63489
1.8115	58.20923
1.812	79.55933
1.8125	87.01172
1.813	89.93225
1.8135	78.14941
1.814	65.05737
1.8145	60.22339
1.815	55.2887
1.8155	56.79932
1.816	115.51208
1.8165	170.59937
1.817	170.19653
1.8175	137.46643
1.818	94.56482
1.8185	54.48303
1.819	27.29187
1.8195	-8.15735
1.82	-39.07471
1.8205	-54.38232
1.821	-57.9071
1.8215	-48.13843
1.822	-35.65063
1.8225	-24.87488
1.823	40.68604
1.8235	116.82129
1.824	155.49316
1.8245	164.85901
1.825	179.66309
1.8255	212.99744
1.826	218.23425
1.8265	181.27441
1.827	107.55615
1.8275	30.81665
1.828	-51.36108
1.8285	-116.72058
1.829	-181.17371
1.8295	-227.70081
1.83	-248.9502
1.8305	-269.59534
1.831	-288.52844
1.8315	-297.59216
1.832	-276.44348
1.8325	-237.57019
1.833	-198.09265
1.8335	-164.25476
1.834	-131.52466
1.8345	-91.24146
1.835	-43.10303
1.8355	10.27222
1.836	35.75134
1.8365	47.7356
1.837	43.00232
1.8375	31.72302
1.838	34.14001
1.8385	86.40747
1.839	203.7323
1.8395	271.10596
1.84	273.32153
1.8405	240.49072
1.841	200.30823
1.8415	176.94397
1.842	217.63
1.8425	253.48206
1.843	209.47266
1.8435	128.70483
1.844	94.16199
1.8445	76.13525
1.845	17.32178
1.8455	-62.8418
1.846	-154.6875
1.8465	-222.46399
1.847	-266.47339
1.8475	-311.59058
1.848	-310.78491
1.8485	-288.42773
1.849	-233.84399
1.8495	-139.27917
1.85	-54.0802
1.8505	4.22974
1.851	-12.18567
1.8515	-56.79932
1.852	-94.66553
1.8525	-92.14783
1.853	-95.37048
1.8535	-92.14783
1.854	-84.09119
1.8545	-59.71985
1.855	-28.9032
1.8555	10.57434
1.856	44.81506
1.8565	83.38623
1.857	132.73315
1.8575	160.12573
1.858	175.93689
1.8585	190.64026
1.859	198.99902
1.8595	178.35388
1.86	153.57971
1.8605	136.45935
1.861	125.58289
1.8615	107.65686
1.862	89.12659
1.8625	111.68518
1.863	139.27917
1.8635	136.25793
1.864	100.40588
1.8645	64.75525
1.865	35.65063
1.8655	10.47363
1.866	-6.64673
1.8665	-13.59558
1.867	-8.96301
1.8675	-7.04956
1.868	43.40515
1.8685	123.2666
1.869	157.00378
1.8695	141.59546
1.87	98.99597
1.8705	46.42639
1.871	-11.17859
1.8715	-51.76392
1.872	-91.34216
1.8725	-111.78589
1.873	-107.35474
1.8735	-80.76782
1.874	-71.60339
1.8745	-78.04871
1.875	-82.07703
1.8755	-65.3595
1.876	-31.52161
1.8765	-7.95593
1.877	40.08179
1.8775	53.47595
1.878	37.46338
1.8785	6.2439
1.879	-18.63098
1.8795	-46.5271
1.88	-33.53577
1.8805	16.11328
1.881	122.86377
1.8815	188.72681
1.882	188.52539
1.8825	150.25635
1.883	78.65295
1.8835	-4.73328
1.884	-69.38782
1.8845	-95.26978
1.885	-99.90234
1.8855	-122.36023
1.886	-145.9259
1.8865	-168.38379
1.887	-176.0376
1.8875	-193.76221
1.888	-191.34521
1.8885	-181.67725
1.889	-164.55688
1.8895	-148.64502
1.89	-88.42163
1.8905	-13.09204
1.891	26.58691
1.8915	28.9032
1.892	57.00073
1.8925	80.66711
1.893	87.71667
1.8935	71.09985
1.894	32.32727
1.8945	-32.42798
1.895	-78.04871
1.8955	-98.29102
1.896	-104.03137
1.8965	-92.04712
1.897	-101.9165
1.8975	-123.87085
1.898	-61.6333
1.8985	49.95117
1.899	94.86694
1.8995	97.98889
1.9	79.76074
1.9005	47.7356
1.901	14.40125
1.9015	-16.81824
1.902	-46.72852
1.9025	-57.10144
1.903	-38.67188
1.9035	22.15576
1.904	118.83545
1.9045	158.81653
1.905	168.68591
1.9055	161.93848
1.906	153.78113
1.9065	115.51208
1.907	64.151
1.9075	9.36584
1.908	-75.83313
1.9085	-125.7843
1.909	-145.32166
1.9095	-143.3075
1.91	-135.45227
1.9105	-93.55774
1.911	-62.64038
1.9115	-27.99683
1.912	12.78992
1.9125	20.1416
1.913	87.91809
1.9135	232.6355
1.914	334.75342
1.9145	347.94617
1.915	298.29712
1.9155	229.61426
1.916	137.76855
1.9165	45.72144
1.917	-49.74976
1.9175	-117.42554
1.918	-161.43494
1.9185	-190.33813
1.919	-184.29565
1.9195	-164.15405
1.92	-128.20129
1.9205	-77.84729
1.921	-27.49329
1.9215	17.32178
1.922	34.74426
1.9225	63.24463
1.923	67.67578
1.9235	71.30127
1.924	79.55933
1.9245	91.94641
1.925	105.13916
1.9255	93.0542
1.926	98.0896
1.9265	174.32556
1.927	206.75354
1.9275	184.49707
1.928	142.30042
1.9285	101.21155
1.929	54.38232
1.9295	7.45239
1.93	-32.22656
1.9305	-64.65454
1.931	-94.86694
1.9315	-113.09509
1.932	-122.15881
1.9325	-118.33191
1.933	-112.69226
1.9335	-95.87402
1.934	-78.25012
1.9345	-60.02197
1.935	-38.57117
1.9355	-32.32727
1.936	-40.78674
1.9365	-11.98425
1.937	-13.19275
1.9375	-29.00391
1.938	-51.15967
1.9385	-53.97949
1.939	-52.56958
1.9395	-91.44287
1.94	-131.82678
1.9405	-147.33582
1.941	-150.65918
1.9415	-95.06836
1.942	31.62231
1.9425	98.39172
1.943	110.87952
1.9435	99.90234
1.944	108.56323
1.9445	54.88586
1.945	-28.80249
1.9455	-121.05103
1.946	-175.63477
1.9465	-190.33813
1.947	-135.35156
1.9475	-41.79382
1.948	4.53186
1.9485	139.48059
1.949	271.30737
1.9495	291.95251
1.95	275.03357
1.9505	295.07446
1.951	247.64099
1.9515	154.58679
1.952	77.54517
1.9525	1.10779
1.953	-70.99915
1.9535	-106.9519
1.954	-64.75525
1.9545	-34.14001
1.955	-23.76709
1.9555	-24.27063
1.956	-16.91895
1.9565	4.53186
1.957	33.83789
1.9575	45.11719
1.958	20.44373
1.9585	1.61133
1.959	-22.15576
1.9595	-18.63098
1.96	29.30603
1.9605	121.75598
1.961	164.05334
1.9615	202.5238
1.962	207.25708
1.9625	180.06592
1.963	136.76147
1.9635	83.68835
1.964	31.4209
1.9645	-30.81665
1.965	-77.74658
1.9655	-104.83704
1.966	-113.39722
1.9665	-111.48376
1.967	-105.23987
1.9675	-85.80322
1.968	-46.5271
1.9685	-23.96851
1.969	-40.68604
1.9695	-75.12817
1.97	-97.78748
1.9705	-111.08093
1.971	-114.10217
1.9715	-81.67419
1.972	-52.67029
1.9725	2.41699
1.973	56.49719
1.9735	75.02747
1.974	79.45862
1.9745	59.51843
1.975	31.01807
1.9755	-2.71912
1.976	-42.09595
1.9765	-70.99915
1.977	-37.26196
1.9775	12.48779
1.978	50.75684
1.9785	74.02039
1.979	73.61755
1.9795	80.36499
1.98	70.19348
1.9805	48.64197
1.981	23.8678
1.9815	7.15027
1.982	1.40991
1.9825	-9.06372
1.983	-1.51062
1.9835	20.54443
1.984	27.19116
1.9845	22.6593
1.985	2.61841
1.9855	-16.21399
1.986	-39.27612
1.9865	-65.25879
1.987	-82.07703
1.9875	-109.67102
1.988	-118.43262
1.9885	-89.63013
1.989	-86.70959
1.9895	-48.44055
1.99	-1.40991
1.9905	26.78833
1.991	39.47754
1.9915	10.57434
1.992	-11.88354
1.9925	-33.9386
1.993	-35.75134
1.9935	-18.02673
1.994	22.05505
1.9945	60.02197
1.995	65.15808
1.9955	64.55383
1.996	72.30835
1.9965	71.09985
1.997	44.21082
1.9975	-24.06921
1.998	-83.58765
1.9985	-101.9165
1.999	-98.49243
1.9995	-89.42871
2	-66.26587
2.0005	-76.23596
2.001	-61.93542
2.0015	-9.36584
2.002	36.75842
2.0025	131.72607
2.003	190.94238
2.0035	192.453
2.004	146.02661
2.0045	70.89844
2.005	-8.45947
2.0055	-62.23755
2.006	-98.49243
2.0065	-112.49084
2.007	-110.07385
2.0075	-121.05103
2.008	-126.08643
2.0085	-118.43262
2.009	-130.51758
2.0095	-111.28235
2.01	-87.61597
2.0105	-60.12268
2.011	-21.24939
2.0115	10.47363
2.012	5.63965
2.0125	-8.05664
2.013	8.8623
2.0135	54.68445
2.014	88.42163
2.0145	121.35315
2.015	150.8606
2.0155	167.47742
2.016	157.80945
2.0165	134.94873
2.017	111.68518
2.0175	66.06445
2.018	64.65454
2.0185	80.76782
2.019	69.99207
2.0195	57.30286
2.02	25.37842
2.0205	-4.53186
2.021	-5.63965
2.0215	9.56726
2.022	45.62073
2.0225	81.7749
2.023	75.73242
2.0235	24.37134
2.024	-15.71045
2.0245	-22.55859
2.025	-37.16125
2.0255	-52.8717
2.026	-61.33118
2.0265	-76.63879
2.027	-65.15808
2.0275	-53.47595
2.028	-53.57666
2.0285	-43.30444
2.029	-33.43506
2.0295	-24.67346
2.03	-20.94727
2.0305	-12.18567
2.031	-20.24231
2.0315	-23.46497
2.032	-13.39417
2.0325	-8.66089
2.033	8.15735
2.0335	61.02905
2.034	112.28943
2.0345	120.95032
2.035	106.44836
2.0355	77.64587
2.036	42.19666
2.0365	6.3446
2.037	-51.36108
2.0375	-96.27686
2.038	-90.23438
2.0385	-62.33826
2.039	-28.29895
2.0395	-23.76709
2.04	-36.15417
2.0405	-43.90869
2.041	-68.58215
2.0415	-87.21313
2.042	-100.6073
2.0425	-84.99756
2.043	-45.41931
2.0435	1.2085
2.044	26.28479
2.0445	29.91028
2.045	69.08569
2.0455	179.76379
2.046	295.17517
2.0465	381.78406
2.047	390.44495
2.0475	406.35681
2.048	524.08447
2.0485	538.08289
2.049	424.58496
2.0495	295.77942
2.05	167.88025
2.0505	10.47363
2.051	-101.61438
2.0515	-192.15088
2.052	-293.46313
2.0525	-364.26086
2.053	-410.58655
2.0535	-358.72192
2.054	-240.79285
2.0545	-67.27295
2.055	100.40588
2.0555	162.44202
2.056	160.72998
2.0565	90.33508
2.057	-12.99133
2.0575	-107.45544
2.058	-195.17212
2.0585	-233.34045
2.059	-233.54187
2.0595	-195.47424
2.06	-171.60645
2.0605	-144.41528
2.061	-105.94482
2.0615	-71.60339
2.062	-23.46497
2.0625	8.25806
2.063	23.06213
2.0635	-11.48071
2.064	-55.79224
2.0645	-63.54675
2.065	-75.12817
2.0655	-86.8103
2.066	-57.50427
2.0665	-11.58142
2.067	50.65613
2.0675	145.8252
2.068	202.4231
2.0685	205.84717
2.069	186.91406
2.0695	150.65918
2.07	122.05811
2.0705	100.40588
2.071	114.505
2.0715	118.33191
2.072	104.63562
2.0725	76.13525
2.073	57.60498
2.0735	33.73718
2.074	16.21399
2.0745	9.97009
2.075	12.08496
2.0755	6.3446
2.076	-5.43823
2.0765	-23.46497
2.077	-42.7002
2.0775	-65.66162
2.078	-84.59473
2.0785	-91.04004
2.079	-94.66553
2.0795	-89.63013
2.08	-81.27136
2.0805	-72.20764
2.081	-57.9071
2.0815	-49.95117
2.082	-50.75684
2.0825	-56.5979
2.083	-58.00781
2.0835	-59.61914
2.084	-68.07861
2.0845	-87.51526
2.085	-112.59155
2.0855	-153.07617
2.086	-210.78186
2.0865	-206.75354
2.087	-124.87793
2.0875	-61.83472
2.088	-65.66162
2.0885	-71.50269
2.089	-80.06287
2.0895	-96.98181
2.09	-102.21863
2.0905	-103.32642
2.091	-12.18567
2.0915	165.56396
2.092	325.48828
2.0925	407.06177
2.093	372.41821
2.0935	296.88721
2.094	204.84009
2.0945	131.52466
2.095	46.32568
2.0955	-50.05188
2.096	-119.03687
2.0965	-145.32166
2.097	-155.896
2.0975	-144.01245
2.098	-138.77563
2.0985	-129.81262
2.099	-103.02429
2.0995	-64.45312
2.1	-19.43665
2.1005	54.58374
2.101	104.4342
2.1015	106.34766
2.102	92.04712
2.1025	110.57739
2.103	132.63245
2.1035	132.12891
2.104	100.6073
2.1045	63.54675
2.105	35.44922
2.1055	12.28638
2.106	-1.71204
2.1065	-17.12036
2.107	-46.12427
2.1075	-62.23755
2.108	33.03223
2.1085	123.56873
2.109	142.30042
2.1095	120.7489
2.11	65.76233
2.1105	54.38232
2.111	73.01331
2.1115	71.7041
2.112	57.50427
2.1125	28.09753
2.113	-11.48071
2.1135	-44.91577
2.114	-81.27136
2.1145	-111.28235
2.115	-113.59863
2.1155	-109.57031
2.116	-86.50818
2.1165	-78.25012
2.117	-76.94092
2.1175	-47.43347
2.118	-29.60815
2.1185	7.95593
2.119	6.04248
2.1195	15.20691
2.12	42.39807
2.1205	70.89844
2.121	97.48535
2.1215	114.4043
2.122	124.67651
2.1225	131.32324
2.123	117.72766
2.1235	94.86694
2.124	77.54517
2.1245	90.93933
2.125	88.52234
2.1255	55.2887
2.126	24.27063
2.1265	7.85522
2.127	2.41699
2.1275	9.86938
2.128	22.35718
2.1285	25.78125
2.129	9.76868
2.1295	-17.22107
2.13	-36.4563
2.1305	-62.8418
2.131	-82.17773
2.1315	-84.49402
2.132	-89.22729
2.1325	-75.32959
2.133	-65.86304
2.1335	-50.15259
2.134	-42.19666
2.1345	-23.46497
2.135	-14.40125
2.1355	-8.35876
2.136	-18.32886
2.1365	-31.11877
2.137	-24.87488
2.1375	-14.70337
2.138	-14.40125
2.1385	-31.21948
2.139	-5.33752
2.1395	5.23682
2.14	1.81274
2.1405	39.77966
2.141	84.2926
2.1415	111.68518
2.142	110.6781
2.1425	73.61755
2.143	14.90479
2.1435	-50.75684
2.144	-100.90942
2.1445	-146.93298
2.145	-176.94397
2.1455	-165.76538
2.146	-131.02112
2.1465	-103.22571
2.147	-1.2085
2.1475	234.54895
2.148	394.77539
2.1485	428.51257
2.149	399.20654
2.1495	338.88245
2.15	233.54187
2.1505	116.51917
2.151	-21.24939
2.1515	-131.52466
2.152	-219.84558
2.1525	-234.34753
2.153	-224.17603
2.1535	-214.20593
2.154	-198.39478
2.1545	-196.98486
2.155	-215.21301
2.1555	-202.32239
2.156	-188.82751
2.1565	-173.62061
2.157	-162.13989
2.1575	-146.83228
2.158	-78.04871
2.1585	1.51062
2.159	68.48145
2.1595	85.40039
2.16	91.44287
2.1605	118.43262
2.161	155.59387
2.1615	234.44824
2.162	294.47021
2.1625	296.28296
2.163	292.15393
2.1635	281.17676
2.164	262.44507
2.1645	227.80151
2.165	162.94556
2.1655	190.13672
2.166	232.53479
2.1665	190.84167
2.167	119.94324
2.1675	64.65454
2.168	4.43115
2.1685	-73.01331
2.169	-158.01086
2.1695	-224.47815
2.17	-240.89355
2.1705	-255.19409
2.171	-254.28772
2.1715	-241.19568
2.172	-224.27673
2.1725	-183.99353
2.173	-142.80396
2.1735	-107.05261
2.174	-65.56091
2.1745	-55.99365
2.175	-53.07312
2.1755	-48.74268
2.176	-15.30762
2.1765	20.74585
2.177	47.63489
2.1775	56.19507
2.178	47.7356
2.1785	47.13135
2.179	86.8103
2.1795	206.55212
2.18	258.31604
2.1805	232.93762
2.181	196.38062
2.1815	138.3728
2.182	50.85754
2.1825	-12.28638
2.183	-32.42798
2.1835	-34.74426
2.184	-54.98657
2.1845	-76.23596
2.185	-93.45703
2.1855	-115.20996
2.186	-127.09351
2.1865	-141.99829
2.187	-154.6875
2.1875	-159.52148
2.188	-153.27759
2.1885	-124.07227
2.189	-93.96057
2.1895	-58.71277
2.19	-28.39966
2.1905	1.71204
2.191	26.58691
2.1915	61.6333
2.192	75.4303
2.1925	89.93225
2.193	93.65845
2.1935	80.06287
2.194	69.28711
2.1945	62.33826
2.195	46.12427
2.1955	64.45312
2.196	80.66711
2.1965	73.31543
2.197	122.96448
2.1975	193.6615
2.198	208.46558
2.1985	169.39087
2.199	102.52075
2.1995	81.37207
2.2	32.22656
2.2005	-29.70886
2.201	-107.15332
2.2015	-168.98804
2.202	-197.79053
2.2025	-189.9353
2.203	-150.25635
2.2035	-122.96448
2.204	-95.47119
2.2045	-78.55225
2.205	-54.38232
2.2055	-38.47046
2.206	-29.70886
2.2065	-43.30444
2.207	-37.96692
2.2075	-15.91187
2.208	28.19824
2.2085	77.34375
2.209	106.44836
2.2095	109.57031
2.21	87.51526
2.2105	56.09436
2.211	29.70886
2.2115	12.38708
2.212	2.41699
2.2125	-12.08496
2.213	-22.86072
2.2135	-31.92444
2.214	-26.3855
2.2145	-7.35168
2.215	21.3501
2.2155	47.93701
2.216	63.14392
2.2165	60.62622
2.217	39.27612
2.2175	8.45947
2.218	0
2.2185	-14.80408
2.219	-31.32019
2.2195	-57.8064
2.22	-54.68445
2.2205	-41.69312
2.221	2.31628
2.2215	68.58215
2.222	163.14697
2.2225	203.7323
2.223	192.15088
2.2235	119.13757
2.224	114.90784
2.2245	132.0282
2.225	96.7804
2.2255	29.91028
2.226	-50.65613
2.2265	-130.21545
2.227	-212.79602
2.2275	-229.91638
2.228	-196.38062
2.2285	-154.18396
2.229	-133.43811
2.2295	-106.54907
2.23	-79.45862
2.2305	-103.02429
2.231	-143.71033
2.2315	-159.62219
2.232	-164.35547
2.2325	-129.10767
2.233	-85.60181
2.2335	-32.22656
2.234	-6.84814
2.2345	14.50195
2.235	28.39966
2.2355	59.92126
2.236	73.41614
2.2365	65.3595
2.237	52.8717
2.2375	59.21631
2.238	113.80005
2.2385	174.22485
2.239	219.34204
2.2395	219.74487
2.24	197.18628
2.2405	159.01794
2.241	97.08252
2.2415	68.58215
2.242	62.64038
2.2425	45.11719
2.243	40.88745
2.2435	63.54675
2.244	131.52466
2.2445	187.4176
2.245	215.21301
2.2455	201.51672
2.246	151.96838
2.2465	86.60889
2.247	35.44922
2.2475	27.89612
2.248	28.70178
2.2485	8.8623
2.249	-19.63806
2.2495	-39.17542
2.25	-52.06604
2.2505	-50.15259
2.251	-51.5625
2.2515	-59.61914
2.252	-85.19897
2.2525	-110.98022
2.253	-123.77014
2.2535	-112.69226
2.254	-78.95508
2.2545	-42.19666
2.255	-15.1062
2.2555	-8.66089
2.256	-5.0354
2.2565	-3.62549
2.257	-7.75452
2.2575	-5.74036
2.258	-2.31628
2.2585	-5.84106
2.259	-15.40833
2.2595	-29.50745
2.26	-47.7356
2.2605	-52.97241
2.261	-74.42322
2.2615	-99.70093
2.262	-105.74341
2.2625	-100.20447
2.263	-98.49243
2.2635	-113.29651
2.264	-114.80713
2.2645	-111.78589
2.265	-96.07544
2.2655	-67.97791
2.266	-48.64197
2.2665	-36.35559
2.267	64.95667
2.2675	203.7323
2.268	310.38208
2.2685	336.36475
2.269	305.74951
2.2695	283.09021
2.27	278.45764
2.2705	227.6001
2.271	149.34998
2.2715	89.328
2.272	23.16284
2.2725	-47.7356
2.273	-100.10376
2.2735	-150.75989
2.274	-202.32239
2.2745	-218.23425
2.275	-229.61426
2.2755	-230.82275
2.276	-213.40027
2.2765	-194.16504
2.277	-163.95264
2.2775	-120.24536
2.278	-67.27295
2.2785	127.99988
2.279	293.56384
2.2795	334.95483
2.28	310.98633
2.2805	243.61267
2.281	137.46643
2.2815	27.29187
2.282	-47.93701
2.2825	-110.27527
2.283	-138.17139
2.2835	-88.52234
2.284	-15.81116
2.2845	6.14319
2.285	-27.99683
2.2855	-101.31226
2.286	-169.08875
2.2865	-206.04858
2.287	-189.33105
2.2875	-140.28625
2.288	-100.00305
2.2885	-76.03455
2.289	-48.44055
2.2895	7.65381
2.29	31.01807
2.2905	34.64355
2.291	45.41931
2.2915	34.34143
2.292	32.32727
2.2925	29.70886
2.293	44.71436
2.2935	55.89294
2.294	66.36658
2.2945	64.65454
2.295	73.11401
2.2955	72.9126
2.296	64.65454
2.2965	47.7356
2.297	43.40515
2.2975	62.64038
2.298	115.81421
2.2985	150.8606
2.299	146.32874
2.2995	96.8811
2.3	33.73718
2.3005	-42.09595
2.301	-108.66394
2.3015	-146.12732
2.302	-168.98804
2.3025	-163.65051
2.303	-157.80945
2.3035	-107.25403
2.304	-42.59949
2.3045	-8.8623
2.305	2.71912
2.3055	-3.7262
2.306	-11.38
2.3065	21.04797
2.307	92.14783
2.3075	149.55139
2.308	184.29565
2.3085	191.74805
2.309	167.17529
2.3095	113.09509
2.31	66.56799
2.3105	96.17615
2.311	97.98889
2.3115	90.13367
2.312	63.84888
2.3125	27.6947
2.313	-15.60974
2.3135	-45.2179
2.314	-65.86304
2.3145	-76.84021
2.315	-89.73083
2.3155	-92.85278
2.316	-86.50818
2.3165	-92.34924
2.317	-78.85437
2.3175	-56.49719
2.318	-68.28003
2.3185	-66.6687
2.319	-40.2832
2.3195	-28.50037
2.32	-30.61523
2.3205	-25.98267
2.321	-7.85522
2.3215	-0.10071
2.322	3.7262
2.3225	11.58142
2.323	22.15576
2.3235	40.88745
2.324	74.2218
2.3245	110.87952
2.325	115.41138
2.3255	104.4342
2.326	92.95349
2.3265	52.06604
2.327	28.19824
2.3275	36.95984
2.328	41.39099
2.3285	7.65381
2.329	-66.26587
2.3295	-135.75439
2.33	-160.62927
2.3305	-185.50415
2.331	-204.43726
2.3315	-207.5592
2.332	-206.85425
2.3325	-193.46008
2.333	-146.02661
2.3335	-81.87561
2.334	-43.90869
2.3345	-19.23523
2.335	5.13611
2.3355	15.20691
2.336	31.21948
2.3365	48.94409
2.337	129.71191
2.3375	261.84082
2.338	342.40723
2.3385	346.13342
2.339	293.76526
2.3395	223.47107
2.34	150.65918
2.3405	94.86694
2.341	28.60107
2.3415	-55.99365
2.342	-116.82129
2.3425	-138.87634
2.343	-113.29651
2.3435	-74.92676
2.344	-52.771
2.3445	-9.76868
2.345	89.93225
2.3455	142.19971
2.346	157.70874
2.3465	133.13599
2.347	74.72534
2.3475	-0.40283
2.348	-53.47595
2.3485	-109.87244
2.349	-172.00928
2.3495	-193.05725
2.35	-186.30981
2.3505	-170.29724
2.351	-134.04236
2.3515	-47.13135
2.352	-47.13135
2.3525	-47.13135
2.353	-47.13135
2.3535	-47.13135
2.354	-47.13135
2.3545	-47.13135
2.355	-47.13135
2.3555	-47.13135
2.356	-47.13135
2.3565	-47.13135
2.357	-47.13135
2.3575	-47.13135
2.358	-47.13135
2.3585	-47.13135
2.359	-47.13135
2.3595	-47.13135
2.36	-47.13135
2.3605	-47.13135
2.361	-47.13135
2.3615	-47.13135
2.362	65.3595
2.3625	96.8811
2.363	134.14307
2.3635	119.03687
2.364	93.55774
2.3645	62.43896
2.365	70.29419
2.3655	85.40039
2.366	91.44287
2.3665	63.44604
2.367	10.37292
2.3675	-39.88037
2.368	-78.14941
2.3685	-124.27368
2.369	-170.19653
2.3695	-196.58203
2.37	-199.9054
2.3705	-178.05176
2.371	-152.97546
2.3715	-119.74182
2.372	-61.73401
2.3725	-7.25098
2.373	42.39807
2.3735	86.20605
2.374	109.57031
2.3745	119.33899
2.375	125.7843
2.3755	159.62219
2.376	171.20361
2.3765	152.57263
2.377	117.92908
2.3775	91.34216
2.378	85.19897
2.3785	66.26587
2.379	44.0094
2.3795	2.21558
2.38	-22.6593
2.3805	21.75293
2.381	39.77966
2.3815	89.328
2.382	124.07227
2.3825	129.5105
2.383	130.71899
2.3835	99.49951
2.384	76.53809
2.3845	38.77258
2.385	-9.56726
2.3855	-37.26196
2.386	-57.50427
2.3865	-87.31384
2.387	-104.83704
2.3875	-114.505
2.388	-118.53333
2.3885	-112.89368
2.389	-114.90784
2.3895	-89.63013
2.39	-47.33276
2.3905	-42.09595
2.391	-63.44604
2.3915	-51.66321
2.392	8.25806
2.3925	50.85754
2.393	57.30286
2.3935	22.6593
2.394	-5.0354
2.3945	-40.88745
2.395	-57.00073
2.3955	-42.49878
2.396	-27.99683
2.3965	12.5885
2.397	68.88428
2.3975	93.85986
2.398	110.98022
2.3985	86.91101
2.399	52.06604
2.3995	20.1416
2.4	-42.19666
2.4005	-94.66553
2.401	-79.86145
2.4015	-68.78357
2.402	-86.8103
2.4025	-106.24695
2.403	-23.46497
2.4035	38.47046
2.404	42.49878
2.4045	10.37292
2.405	-35.54993
2.4055	-67.17224
2.406	-15.20691
2.4065	50.15259
2.407	70.19348
2.4075	28.70178
2.408	-22.05505
2.4085	-55.08728
2.409	-34.44214
2.4095	-25.57983
2.41	-34.34143
2.4105	-78.85437
2.411	-114.20288
2.4115	-144.81812
2.412	-166.16821
2.4125	-150.35706
2.413	-116.51917
2.4135	-95.06836
2.414	-67.67578
2.4145	-31.52161
2.415	9.06372
2.4155	46.92993
2.416	81.7749
2.4165	121.05103
2.417	131.22253
2.4175	108.05969
2.418	95.37048
2.4185	87.01172
2.419	70.29419
2.4195	61.93542
2.42	53.77808
2.4205	61.12976
2.421	47.93701
2.4215	43.70728
2.422	31.21948
2.4225	19.73877
2.423	13.49487
2.4235	36.05347
2.424	63.84888
2.4245	99.60022
2.425	102.72217
2.4255	77.84729
2.426	60.92834
2.4265	74.82605
2.427	97.48535
2.4275	89.42871
2.428	53.27454
2.4285	-9.46655
2.429	-64.35242
2.4295	-111.68518
2.43	-133.63953
2.4305	-136.66077
2.431	-154.38538
2.4315	-154.6875
2.432	-121.75598
2.4325	-81.37207
2.433	-41.39099
2.4335	-9.26514
2.434	19.63806
2.4345	33.53577
2.435	42.39807
2.4355	62.03613
2.436	84.2926
2.4365	90.33508
2.437	93.75916
2.4375	100.30518
2.438	143.91174
2.4385	191.74805
2.439	197.4884
2.4395	179.26025
2.44	130.41687
2.4405	81.87561
2.441	41.59241
2.4415	18.93311
2.442	-4.73328
2.4425	16.61682
2.443	56.5979
2.4435	135.8551
2.444	182.88574
2.4445	165.36255
2.445	135.15015
2.4455	98.0896
2.446	25.78125
2.4465	-50.55542
2.447	-79.35791
2.4475	-91.44287
2.448	-93.85986
2.4485	-99.49951
2.449	-119.4397
2.4495	-142.30042
2.45	-162.64343
2.4505	-86.10535
2.451	53.07312
2.4515	118.13049
2.452	114.80713
2.4525	65.15808
2.453	10.57434
2.4535	-56.19507
2.454	-119.64111
2.4545	-167.47742
2.455	-191.1438
2.4555	-197.68982
2.456	-180.67017
2.4565	-133.13599
2.457	-84.89685
2.4575	-62.43896
2.458	-50.65613
2.4585	-51.26038
2.459	-50.15259
2.4595	-59.21631
2.46	-59.61914
2.4605	-30.11169
2.461	25.78125
2.4615	60.62622
2.462	230.82275
2.4625	352.88086
2.463	350.36316
2.4635	271.50879
2.464	179.46167
2.4645	76.84021
2.465	-27.89612
2.4655	-122.76306
2.466	-211.08398
2.4665	-259.021
2.467	-288.62915
2.4675	-274.63074
2.468	-187.4176
2.4685	-62.74109
2.469	51.15967
2.4695	164.25476
2.47	210.88257
2.4705	188.6261
2.471	119.74182
2.4715	30.91736
2.472	-45.11719
2.4725	-102.42004
2.473	-128.50342
2.4735	-129.20837
2.474	-129.91333
2.4745	-109.87244
2.475	-96.67969
2.4755	-75.02747
2.476	-12.99133
2.4765	51.86462
2.477	87.91809
2.4775	109.16748
2.478	133.74023
2.4785	137.66785
2.479	114.60571
2.4795	97.98889
2.48	91.745
2.4805	80.16357
2.481	67.57507
2.4815	44.61365
2.482	7.25098
2.4825	-4.33044
2.483	-5.43823
2.4835	28.29895
2.484	73.71826
2.4845	126.18713
2.485	143.20679
2.4855	132.43103
2.486	96.57898
2.4865	58.20923
2.487	39.98108
2.4875	43.50586
2.488	57.50427
2.4885	41.39099
2.489	21.14868
2.4895	67.67578
2.49	126.79138
2.4905	116.51917
2.491	79.05579
2.4915	60.3241
2.492	35.44922
2.4925	6.74744
2.493	82.78198
2.4935	197.3877
2.494	209.57336
2.4945	147.23511
2.495	27.89612
2.4955	-78.85437
2.496	-172.41211
2.4965	-214.30664
2.497	-247.43958
2.4975	-269.59534
2.498	-276.84631
2.4985	-273.62366
2.499	-256.5033
2.4995	-217.42859
2.5	-176.64185
2.5005	-133.63953
2.501	-89.22729
2.5015	-71.90552
2.502	-78.35083
2.5025	-84.2926
2.503	-82.47986
2.5035	-18.93311
2.504	44.31152
2.5045	66.6687
2.505	49.74976
2.5055	44.61365
2.506	59.41772
2.5065	70.69702
2.507	51.46179
2.5075	0.20142
2.508	-23.46497
2.5085	-19.94019
2.509	-34.74426
2.5095	-63.04321
2.51	-75.32959
2.5105	-96.07544
2.511	-111.48376
2.5115	-105.03845
2.512	-95.77332
2.5125	-79.2572
2.513	-54.38232
2.5135	-11.98425
2.514	20.1416
2.5145	56.39648
2.515	100.90942
2.5155	166.87317
2.516	190.74097
2.5165	189.33105
2.517	192.55371
2.5175	230.82275
2.518	288.62915
2.5185	286.01074
2.519	237.06665
2.5195	174.8291
2.52	146.42944
2.5205	111.48376
2.521	87.31384
2.5215	67.17224
2.522	55.59082
2.5225	28.39966
2.523	9.66797
2.5235	-2.61841
2.524	-14.50195
2.5245	31.72302
2.525	58.91418
2.5255	57.8064
2.526	92.34924
2.5265	119.33899
2.527	112.69226
2.5275	75.53101
2.528	41.89453
2.5285	5.84106
2.529	-40.38391
2.5295	-85.70251
2.53	-95.06836
2.5305	-110.87952
2.531	-140.38696
2.5315	-170.19653
2.532	-200.81177
2.5325	-222.66541
2.533	-218.13354
2.5335	-199.70398
2.534	-167.88025
2.5345	-137.66785
2.535	-107.65686
2.5355	-81.97632
2.536	-50.85754
2.5365	-20.94727
2.537	-0.80566
2.5375	21.04797
2.538	32.32727
2.5385	60.22339
2.539	189.63318
2.5395	287.01782
2.54	309.17358
2.5405	304.03748
2.541	305.95093
2.5415	293.96667
2.542	319.4458
2.5425	301.11694
2.543	226.3916
2.5435	94.76624
2.544	-42.29736
2.5445	-96.07544
2.545	-59.51843
2.5455	-64.95667
2.546	-121.55457
2.5465	-187.31689
2.547	-257.61108
2.5475	-329.21448
2.548	-395.37964
2.5485	-407.26318
2.549	-385.20813
2.5495	-317.73376
2.55	-206.35071
2.5505	-59.21631
2.551	147.1344
2.5515	271.10596
2.552	287.52136
2.5525	252.67639
2.553	182.3822
2.5535	103.82996
2.554	84.39331
2.5545	64.85596
2.555	19.13452
2.5555	-46.72852
2.556	-106.54907
2.5565	-140.58838
2.557	-159.92432
2.5575	-165.76538
2.558	-157.40662
2.5585	-152.87476
2.559	-161.43494
2.5595	-172.10999
2.56	-172.21069
2.5605	-167.98096
2.561	-163.95264
2.5615	-152.1698
2.562	-130.41687
2.5625	-87.91809
2.563	-42.09595
2.5635	6.54602
2.564	47.13135
2.5645	94.96765
2.565	120.64819
2.5655	132.22961
2.566	147.03369
2.5665	176.0376
2.567	187.61902
2.5675	187.71973
2.568	182.08008
2.5685	166.47034
2.569	166.16821
2.5695	201.51672
2.57	204.33655
2.5705	161.33423
2.571	89.02588
2.5715	18.22815
2.572	-45.3186
2.5725	-84.09119
2.573	-98.29102
2.5735	-96.57898
2.574	-69.68994
2.5745	-44.81506
2.575	-29.40674
2.5755	-18.93311
2.576	-21.85364
2.5765	-24.47205
2.577	-30.91736
2.5775	-61.53259
2.578	-10.67505
2.5785	132.12891
2.579	236.36169
2.5795	249.45374
2.58	199.40186
2.5805	162.84485
2.581	112.59155
2.5815	29.30603
2.582	-80.76782
2.5825	-179.05884
2.583	-227.6001
2.5835	-244.61975
2.584	-221.65833
2.5845	-189.83459
2.585	-144.11316
2.5855	-98.69385
2.586	-63.14392
2.5865	-31.82373
2.587	2.81982
2.5875	46.5271
2.588	75.83313
2.5885	72.50977
2.589	78.25012
2.5895	119.54041
2.59	155.49316
2.5905	172.10999
2.591	167.67883
2.5915	139.98413
2.592	124.07227
2.5925	112.39014
2.593	185.90698
2.5935	216.92505
2.594	198.59619
2.5945	152.47192
2.595	89.63013
2.5955	37.46338
2.596	-12.28638
2.5965	-66.46729
2.597	-115.81421
2.5975	-135.04944
2.598	-145.01953
2.5985	-96.8811
2.599	-52.771
2.5995	-28.70178
2.6	-31.01807
2.6005	-66.56799
2.601	-95.26978
2.6015	-117.62695
2.602	-136.96289
2.6025	-144.6167
2.603	-142.19971
2.6035	-115.10925
2.604	-70.69702
2.6045	-47.13135
2.605	-26.98975
2.6055	-10.57434
2.606	10.17151
2.6065	39.98108
2.607	57.40356
2.6075	57.9071
2.608	39.07471
2.6085	31.92444
2.609	47.43347
2.6095	52.36816
2.61	35.14709
2.6105	1.51062
2.611	-28.09753
2.6115	-63.94958
2.612	-82.68127
2.6125	-69.58923
2.613	-36.15417
2.6135	-15.81116
2.614	68.48145
2.6145	143.50891
2.615	147.33582
2.6155	135.45227
2.616	149.55139
2.6165	157.80945
2.617	146.63086
2.6175	132.53174
2.618	140.48767
2.6185	172.3114
2.619	200.81177
2.6195	177.74963
2.62	137.26501
2.6205	91.745
2.621	37.7655
2.6215	-24.16992
2.622	-90.83862
2.6225	-135.45227
2.623	-173.82202
2.6235	-198.19336
2.624	-211.78894
2.6245	-159.32007
2.625	-100.70801
2.6255	-26.08337
2.626	101.9165
2.6265	159.52148
2.627	145.42236
2.6275	86.30676
2.628	19.94019
2.6285	-65.96375
2.629	-135.8551
2.6295	-163.95264
2.63	-157.30591
2.6305	-145.72449
2.631	-136.76147
2.6315	-109.3689
2.632	-106.14624
2.6325	-116.21704
2.633	-137.76855
2.6335	-172.61353
2.634	-201.91956
2.6345	-203.22876
2.635	-188.12256
2.6355	-164.45618
2.636	-114.4043
2.6365	-41.4917
2.637	17.92603
2.6375	62.74109
2.638	102.92358
2.6385	135.15015
2.639	126.89209
2.6395	102.72217
2.64	92.75208
2.6405	100.90942
2.641	109.26819
2.6415	119.84253
2.642	142.40112
2.6425	158.71582
2.643	168.08167
2.6435	177.14539
2.644	170.90149
2.6445	152.67334
2.645	113.39722
2.6455	86.60889
2.646	65.15808
2.6465	45.72144
2.647	28.09753
2.6475	22.25647
2.648	32.93152
2.6485	26.58691
2.649	11.68213
2.6495	-0.30212
2.65	-9.97009
2.6505	-12.68921
2.651	-4.63257
2.6515	4.22974
2.652	-4.93469
2.6525	-13.797
2.653	-24.77417
2.6535	-59.51843
2.654	-77.34375
2.6545	-84.59473
2.655	-91.8457
2.6555	-84.09119
2.656	-105.6427
2.6565	-105.94482
2.657	-63.84888
2.6575	-63.84888
2.658	-47.03064
2.6585	161.53564
2.659	317.23022
2.6595	334.552
2.66	269.79675
2.6605	173.11707
2.661	97.18323
2.6615	22.55859
2.662	-32.83081
2.6625	-77.24304
2.663	-97.78748
2.6635	-106.75049
2.664	-101.61438
2.6645	-90.13367
2.665	-72.71118
2.6655	-36.25488
2.666	11.17859
2.6665	57.70569
2.667	85.70251
2.6675	101.41296
2.668	95.37048
2.6685	72.81189
2.669	30.31311
2.6695	32.93152
2.67	7.04956
2.6705	-44.0094
2.671	-93.0542
2.6715	-110.27527
2.672	-124.57581
2.6725	-138.3728
2.673	-157.91016
2.6735	-165.46326
2.674	-155.39246
2.6745	-142.80396
2.675	-127.19421
2.6755	-76.7395
2.676	19.33594
2.6765	93.55774
2.677	124.17297
2.6775	140.99121
2.678	185.30273
2.6785	208.86841
2.679	165.76538
2.6795	87.11243
2.68	-3.62549
2.6805	-93.75916
2.681	-177.04468
2.6815	-215.0116
2.682	-219.44275
2.6825	-173.5199
2.683	-98.59314
2.6835	-57.9071
2.684	-31.32019
2.6845	-14.30054
2.685	14.70337
2.6855	32.12585
2.686	34.84497
2.6865	48.23914
2.687	77.44446
2.6875	95.16907
2.688	106.34766
2.6885	119.74182
2.689	120.95032
2.6895	108.56323
2.69	132.53174
2.6905	153.68042
2.691	146.93298
2.6915	142.40112
2.692	141.09192
2.6925	120.44678
2.693	80.06287
2.6935	43.70728
2.694	3.22266
2.6945	-28.60107
2.695	-56.09436
2.6955	-66.87012
2.696	8.56018
2.6965	113.29651
2.697	167.47742
2.6975	155.79529
2.698	121.75598
2.6985	83.68835
2.699	28.50037
2.6995	-11.48071
2.7	-30.61523
2.7005	-42.39807
2.701	-50.354
2.7015	-51.15967
2.702	-39.47754
2.7025	16.71753
2.703	97.28394
2.7035	137.76855
2.704	168.18237
2.7045	151.36414
2.705	87.81738
2.7055	24.06921
2.706	-17.32178
2.7065	-40.58533
2.707	-92.44995
2.7075	-166.87317
2.708	-237.46948
2.7085	-238.37585
2.709	-168.58521
2.7095	-114.10217
2.71	-105.6427
2.7105	-76.94092
2.711	-25.98267
2.7115	44.21082
2.712	144.91882
2.7125	191.64734
2.713	146.02661
2.7135	49.64905
2.714	-52.26746
2.7145	-171.30432
2.715	-309.67712
2.7155	-423.27576
2.716	-492.36145
2.7165	-528.11279
2.717	-504.3457
2.7175	-439.08691
2.718	-311.18774
2.7185	-186.51123
2.719	-81.47278
2.7195	5.84106
2.72	15.1062
2.7205	8.8623
2.721	-7.5531
2.7215	-37.56409
2.722	-44.31152
2.7225	-29.30603
2.723	-12.89062
2.7235	20.94727
2.724	77.54517
2.7245	122.05811
2.725	195.17212
2.7255	407.96814
2.726	559.53369
2.7265	568.19458
2.727	542.11121
2.7275	511.19385
2.728	458.32214
2.7285	398.40088
2.729	321.15784
2.7295	204.23584
2.73	114.20288
2.7305	28.9032
2.731	-29.50745
2.7315	-78.14941
2.732	-111.68518
2.7325	-126.48926
2.733	-111.38306
2.7335	-93.45703
2.734	-84.09119
2.7345	-89.63013
2.735	-92.24854
2.7355	-91.24146
2.736	-88.62305
2.7365	-74.82605
2.737	-59.61914
2.7375	-39.98108
2.738	-17.72461
2.7385	17.12036
2.739	44.21082
2.7395	43.50586
2.74	45.3186
2.7405	79.2572
2.741	94.16199
2.7415	74.2218
2.742	57.70569
2.7425	37.7655
2.743	8.8623
2.7435	-5.53894
2.744	-11.38
2.7445	2.31628
2.745	9.16443
2.7455	-12.5885
2.746	-38.67188
2.7465	-13.69629
2.747	40.68604
2.7475	82.68127
2.748	86.10535
2.7485	54.0802
2.749	-26.78833
2.7495	-98.89526
2.75	-97.78748
2.7505	-71.90552
2.751	-35.65063
2.7515	-43.90869
2.752	-90.33508
2.7525	-126.08643
2.753	-157.70874
2.7535	-191.34521
2.754	-180.56946
2.7545	-180.77087
2.755	-186.30981
2.7555	-176.23901
2.756	-147.43652
2.7565	-119.64111
2.757	-75.32959
2.7575	-15.60974
2.758	7.85522
2.7585	22.35718
2.759	53.37524
2.7595	117.62695
2.76	156.09741
2.7605	156.29883
2.761	131.22253
2.7615	96.57898
2.762	39.57825
2.7625	-18.93311
2.763	-71.30127
2.7635	-103.02429
2.764	-143.20679
2.7645	-145.72449
2.765	-59.92126
2.7655	25.98267
2.766	88.72375
2.7665	84.69543
2.767	51.15967
2.7675	31.4209
2.768	0.50354
2.7685	50.2533
2.769	122.86377
2.7695	155.59387
2.77	158.31299
2.7705	142.80396
2.771	209.17053
2.7715	321.56067
2.772	357.1106
2.7725	362.34741
2.773	339.38599
2.7735	321.45996
2.774	316.32385
2.7745	293.96667
2.775	229.41284
2.7755	138.67493
2.776	71.80481
2.7765	32.93152
2.777	-24.57275
2.7775	-104.3335
2.778	-168.4845
2.7785	-193.76221
2.779	-148.74573
2.7795	-114.10217
2.78	-105.84412
2.7805	-131.62537
2.781	-156.90308
2.7815	-190.64026
2.782	-227.70081
2.7825	-252.17285
2.783	-265.46631
2.7835	-253.28064
2.784	-226.59302
2.7845	-200.81177
2.785	-159.21936
2.7855	-109.77173
2.786	-79.55933
2.7865	-23.36426
2.787	6.04248
2.7875	-1.00708
2.788	-9.56726
2.7885	26.18408
2.789	56.69861
2.7895	70.29419
2.79	45.41931
2.7905	7.35168
2.791	-37.46338
2.7915	-73.31543
2.792	-117.82837
2.7925	-165.9668
2.793	-193.96362
2.7935	-217.73071
2.794	-230.72205
2.7945	-209.77478
2.795	-169.39087
2.7955	-92.34924
2.796	51.36108
2.7965	260.43091
2.797	348.44971
2.7975	367.38281
2.798	404.24194
2.7985	444.32373
2.799	419.14673
2.7995	337.87537
2.8	239.58435
2.8005	136.05652
2.801	39.77966
2.8015	-24.06921
2.802	-71.80481
2.8025	-113.49792
2.803	-143.20679
2.8035	-168.4845
2.804	-192.55371
2.8045	-156.90308
2.805	-157.91016
2.8055	-148.94714
2.806	-119.54041
2.8065	-123.87085
2.807	-125.7843
2.8075	-141.09192
2.808	-142.70325
2.8085	-106.34766
2.809	-69.48853
2.8095	-53.37524
2.81	-39.98108
2.8105	15.50903
2.811	51.5625
2.8115	79.96216
2.812	95.87402
2.8125	114.20288
2.813	158.31299
2.8135	166.16821
2.814	147.23511
2.8145	127.19421
2.815	114.60571
2.8155	103.62854
2.816	118.83545
2.8165	161.23352
2.817	203.02734
2.8175	255.89905
2.818	267.48047
2.8185	236.76453
2.819	156.19812
2.8195	72.10693
2.82	-19.43665
2.8205	-99.3988
2.821	-168.88733
2.8215	-175.23193
2.822	-156.70166
2.8225	-127.79846
2.823	-104.03137
2.8235	-87.91809
2.824	-86.50818
2.8245	-83.08411
2.825	-60.22339
2.8255	-40.48462
2.826	-39.17542
2.8265	1.10779
2.827	29.30603
2.8275	64.35242
2.828	63.74817
2.8285	35.54993
2.829	-0.40283
2.8295	-37.66479
2.83	-53.17383
2.8305	-79.2572
2.831	-96.67969
2.8315	-72.9126
2.832	-58.51135
2.8325	-27.6947
2.833	3.32336
2.8335	11.78284
2.834	-0.10071
2.8345	-41.29028
2.835	-79.66003
2.8355	-81.37207
2.836	-98.49243
2.8365	-107.45544
2.837	-117.12341
2.8375	-115.20996
2.838	-103.125
2.8385	-93.45703
2.839	-83.48694
2.8395	-63.64746
2.84	-33.33435
2.8405	-14.60266
2.841	-12.5885
2.8415	7.95593
2.842	26.18408
2.8425	82.27844
2.843	135.65369
2.8435	163.24768
2.844	149.55139
2.8445	101.51367
2.845	58.71277
2.8455	29.80957
2.846	0.50354
2.8465	-19.73877
2.847	-18.53027
2.8475	-12.5885
2.848	-4.63257
2.8485	88.82446
2.849	228.10364
2.8495	326.29395
2.85	418.7439
2.8505	591.86096
2.851	668.19763
2.8515	585.01282
2.852	446.13647
2.8525	294.57092
2.853	118.02979
2.8535	-40.08179
2.854	-176.74255
2.8545	-300.31128
2.855	-391.25061
2.8555	-354.08936
2.856	-295.67871
2.8565	-295.98083
2.857	-55.49011
2.8575	321.25854
2.858	508.77686
2.8585	489.13879
2.859	345.93201
2.8595	176.0376
2.86	22.96143
2.8605	-86.8103
2.861	-175.83618
2.8615	-229.81567
2.862	-283.99658
2.8625	-306.75659
2.863	-281.17676
2.8635	-247.43958
2.864	-222.16187
2.8645	-201.01318
2.865	-158.91724
2.8655	-111.8866
2.866	-50.45471
2.8665	1.2085
2.867	-6.14319
2.8675	-35.75134
2.868	-87.31384
2.8685	-102.01721
2.869	-69.89136
2.8695	-62.43896
2.87	-56.90002
2.8705	-81.47278
2.871	-65.86304
2.8715	44.81506
2.872	130.92041
2.8725	173.01636
2.873	206.75354
2.8735	206.45142
2.874	165.06042
2.8745	102.52075
2.875	49.34692
2.8755	8.8623
2.876	-10.27222
2.8765	-29.40674
2.877	-50.85754
2.8775	-86.50818
2.878	-138.27209
2.8785	-191.74805
2.879	-196.78345
2.8795	-188.52539
2.88	-191.04309
2.8805	-202.12097
2.881	-204.84009
2.8815	-202.5238
2.882	-205.24292
2.8825	-192.95654
2.883	-162.2406
2.8835	-129.81262
2.884	-99.19739
2.8845	-75.63171
2.885	-36.95984
2.8855	5.84106
2.886	35.04639
2.8865	58.51135
2.887	59.41772
2.8875	94.2627
2.888	176.0376
2.8885	290.5426
2.889	367.68494
2.8895	346.33484
2.89	266.87622
2.8905	213.8031
2.891	188.12256
2.8915	148.04077
2.892	73.01331
2.8925	-1.71204
2.893	-54.68445
2.8935	-101.8158
2.894	-145.12024
2.8945	-149.95422
2.895	-119.94324
2.8955	-66.97083
2.896	-9.97009
2.8965	-1.61133
2.897	-19.03381
2.8975	-37.36267
2.898	-39.67896
2.8985	-45.01648
2.899	-34.74426
2.8995	-4.93469
2.9	36.95984
2.9005	74.72534
2.901	60.52551
2.9015	42.7002
2.902	46.02356
2.9025	245.82825
2.903	420.35522
2.9035	452.07825
2.904	377.35291
2.9045	269.59534
2.905	174.42627
2.9055	84.19189
2.906	3.92761
2.9065	-71.09985
2.907	-150.8606
2.9075	-189.33105
2.908	-120.95032
2.9085	-72.71118
2.909	-78.55225
2.9095	-124.07227
2.91	-179.96521
2.9105	-234.75037
2.911	-232.23267
2.9115	-207.76062
2.912	-181.67725
2.9125	-170.09583
2.913	-142.90466
2.9135	-97.98889
2.914	-59.1156
2.9145	-21.04797
2.915	0.50354
2.9155	6.04248
2.916	9.26514
2.9165	36.35559
2.917	117.02271
2.9175	159.52148
2.918	257.91321
2.9185	343.21289
2.919	348.55042
2.9195	295.98083
2.92	202.02026
2.9205	106.75049
2.921	19.13452
2.9215	-78.55225
2.922	-157.2052
2.9225	-207.25708
2.923	-235.05249
2.9235	-237.97302
2.924	-56.5979
2.9245	140.08484
2.925	240.69214
2.9255	239.58435
2.926	187.4176
2.9265	142.70325
2.927	89.63013
2.9275	-11.17859
2.928	-136.76147
2.9285	-232.83691
2.929	-275.63782
2.9295	-255.49622
2.93	-212.29248
2.9305	-149.75281
2.931	-52.56958
2.9315	1.91345
2.932	47.7356
2.9325	75.93384
2.933	87.61597
2.9335	203.83301
2.934	382.08618
2.9345	499.41101
2.935	529.11987
2.9355	479.37012
2.936	393.86902
2.9365	275.83923
2.937	159.92432
2.9375	53.17383
2.938	-68.68286
2.9385	-167.98096
2.939	-252.47498
2.9395	-316.02173
2.94	-339.08386
2.9405	-344.72351
2.941	-325.6897
2.9415	-311.79199
2.942	-243.20984
2.9425	-115.7135
2.943	-57.9071
2.9435	-47.53418
2.944	-65.46021
2.9445	-111.8866
2.945	-142.70325
2.9455	-147.23511
2.946	-146.73157
2.9465	-163.24768
2.947	-152.47192
2.9475	-131.72607
2.948	-93.75916
2.9485	-59.92126
2.949	-58.81348
2.9495	-60.72693
2.95	-61.02905
2.9505	-65.15808
2.951	-43.20374
2.9515	92.24854
2.952	208.06274
2.9525	264.76135
2.953	248.14453
2.9535	185.90698
2.954	126.9928
2.9545	83.08411
2.955	54.98657
2.9555	8.15735
2.956	-27.19116
2.9565	32.52869
2.957	114.4043
2.9575	153.88184
2.958	156.90308
2.9585	143.20679
2.959	126.08643
2.9595	101.21155
2.96	81.87561
2.9605	30.11169
2.961	38.57117
2.9615	139.5813
2.962	223.57178
2.9625	228.10364
2.963	178.35388
2.9635	106.54907
2.964	22.25647
2.9645	-48.44055
2.965	-107.85828
2.9655	-159.62219
2.966	-199.20044
2.9665	-223.06824
2.967	-210.47974
2.9675	-141.09192
2.968	-63.84888
2.9685	-43.30444
2.969	-52.56958
2.9695	-56.09436
2.97	-75.53101
2.9705	-119.03687
2.971	-170.39795
2.9715	-225.68665
2.972	-209.87549
2.9725	-123.66943
2.973	-25.57983
2.9735	48.84338
2.974	60.02197
2.9745	46.62781
2.975	25.57983
2.9755	-8.66089
2.976	-26.48621
2.9765	-30.2124
2.977	-24.06921
2.9775	-4.63257
2.978	-4.53186
2.9785	2.61841
2.979	136.96289
2.9795	286.81641
2.98	359.52759
2.9805	360.73608
2.981	309.27429
2.9815	229.41284
2.982	128.70483
2.9825	25.98267
2.983	-64.05029
2.9835	7.95593
2.984	116.31775
2.9845	164.45618
2.985	228.30505
2.9855	255.99976
2.986	242.7063
2.9865	247.64099
2.987	212.99744
2.9875	96.07544
2.988	-20.34302
2.9885	-82.78198
2.989	-142.30042
2.9895	-194.26575
2.99	-226.89514
2.9905	-259.22241
2.991	-294.36951
2.9915	-273.52295
2.992	-233.34045
2.9925	-153.68042
2.993	-85.60181
2.9935	-41.29028
2.994	-22.86072
2.9945	-41.59241
2.995	-73.71826
2.9955	-112.99438
2.996	-165.36255
2.9965	-190.23743
2.997	-180.67017
2.9975	-163.95264
2.998	-154.08325
2.9985	-115.61279
2.999	16.3147
2.9995	271.30737
3	612.20398
3.0005	858.73718
3.001	862.36267
3.0015	731.64368
3.002	534.55811
3.0025	286.91711
3.003	58.20923
3.0035	-135.95581
3.004	-276.24207
3.0045	-377.15149
3.005	-381.88477
3.0055	-296.18225
3.006	-222.06116
3.0065	-154.58679
3.007	-107.05261
3.0075	-66.36658
3.008	-63.04321
3.0085	-66.87012
3.009	-116.61987
3.0095	-171.50574
3.01	-182.78503
3.0105	-183.38928
3.011	-193.6615
3.0115	-215.71655
3.012	-205.14221
3.0125	-173.11707
3.013	-128.50342
3.0135	-120.7489
3.014	-148.3429
3.0145	-179.8645
3.015	-175.13123
3.0155	-149.6521
3.016	-111.68518
3.0165	-90.5365
3.017	-47.33276
3.0175	6.64673
3.018	56.49719
3.0185	85.80322
3.019	112.79297
3.0195	143.10608
3.02	161.0321
3.0205	204.53796
3.021	214.30664
3.0215	253.38135
3.022	253.58276
3.0225	240.79285
3.023	233.23975
3.0235	263.15002
3.024	262.44507
3.0245	202.72522
3.025	103.125
3.0255	27.59399
3.026	-32.83081
3.0265	-102.21863
3.027	-107.45544
3.0275	-100.70801
3.028	-104.23279
3.0285	-99.90234
3.029	-75.93384
3.0295	-54.68445
3.03	-22.05505
3.0305	-6.64673
3.031	42.7002
3.0315	206.25
3.032	286.7157
3.0325	268.08472
3.033	189.23035
3.0335	169.99512
3.034	212.89673
3.0345	166.0675
3.035	75.02747
3.0355	0.40283
3.036	-96.27686
3.0365	-180.26733
3.037	-243.31055
3.0375	-313.00049
3.038	-370.50476
3.0385	-304.13818
3.039	-239.68506
3.0395	-151.16272
3.04	-8.05664
3.0405	93.35632
3.041	129.71191
3.0415	114.30359
3.042	54.18091
3.0425	4.93469
3.043	-20.34302
3.0435	-48.84338
3.044	-39.47754
3.0445	-54.48303
3.045	-106.04553
3.0455	-163.4491
3.046	-221.65833
3.0465	-209.57336
3.047	-122.36023
3.0475	2.11487
3.048	161.63635
3.0485	206.55212
3.049	386.81946
3.0495	527.30713
3.05	501.22375
3.0505	390.24353
3.051	261.43799
3.0515	138.47351
3.052	16.01257
3.0525	-93.0542
3.053	-190.03601
3.0535	-261.5387
3.054	-285.60791
3.0545	-280.97534
3.055	-235.85815
3.0555	-179.96521
3.056	-128.50342
3.0565	-127.59705
3.057	-126.58997
3.0575	-111.58447
3.058	-112.79297
3.0585	-121.05103
3.059	-128.302
3.0595	-132.63245
3.06	-34.44214
3.0605	141.49475
3.061	249.85657
3.0615	259.72595
3.062	331.63147
3.0625	433.34656
3.063	412.5
3.0635	324.17908
3.064	180.67017
3.0645	33.9386
3.065	-90.83862
3.0655	-178.65601
3.066	-231.32629
3.0665	-268.28613
3.067	-295.88013
3.0675	-291.85181
3.068	-244.11621
3.0685	-201.31531
3.069	-158.71582
3.0695	-115.31067
3.07	-74.12109
3.0705	-45.72144
3.071	-32.62939
3.0715	-43.20374
3.072	-33.23364
3.0725	-23.46497
3.073	-39.67896
3.0735	1.81274
3.074	97.28394
3.0745	148.94714
3.075	151.36414
3.0755	135.55298
3.076	115.91492
3.0765	161.83777
3.077	185.40344
3.0775	194.9707
3.078	248.9502
3.0785	401.42212
3.079	523.27881
3.0795	522.27173
3.08	444.72656
3.0805	305.95093
3.081	161.13281
3.0815	234.75037
3.082	366.37573
3.0825	410.88867
3.083	371.0083
3.0835	252.67639
3.084	119.23828
3.0845	-14.30054
3.085	-93.65845
3.0855	-120.7489
3.086	-183.28857
3.0865	-319.74792
3.087	-450.76904
3.0875	-542.71545
3.088	-551.67847
3.0885	-490.04517
3.089	-463.55896
3.0895	-417.63611
3.09	-334.35059
3.0905	-285.00366
3.091	-267.78259
3.0915	-259.52454
3.092	-260.83374
3.0925	-159.62219
3.093	-38.16833
3.0935	24.16992
3.094	49.95117
3.0945	52.8717
3.095	25.88196
3.0955	8.56018
3.096	32.83081
3.0965	97.08252
3.097	116.01562
3.0975	93.45703
3.098	50.55542
3.0985	-33.63647
3.099	-108.76465
3.0995	-163.85193
3.1	-215.1123
3.1005	-274.53003
3.101	-267.37976
3.1015	-93.55774
3.102	125.98572
3.1025	224.78027
3.103	214.30664
3.1035	159.42078
3.104	187.01477
3.1045	233.34045
3.105	257.61108
3.1055	231.72913
3.106	220.65125
3.1065	256.20117
3.107	265.66772
3.1075	237.36877
3.108	180.67017
3.1085	119.23828
3.109	78.25012
3.1095	11.88354
3.11	-66.97083
3.1105	-152.97546
3.111	-189.83459
3.1115	-209.87549
3.112	-234.14612
3.1125	-237.77161
3.113	-193.56079
3.1135	-132.0282
3.114	-74.82605
3.1145	1.51062
3.115	27.59399
3.1155	-7.65381
3.116	-48.84338
3.1165	41.39099
3.117	145.52307
3.1175	144.21387
3.118	104.13208
3.1185	71.50269
3.119	0.20142
3.1195	-100.20447
3.12	-196.58203
3.1205	-246.13037
3.121	-113.39722
3.1215	19.94019
3.122	42.29736
3.1225	111.8866
3.123	200.20752
3.1235	325.18616
3.124	375.64087
3.1245	300.21057
3.125	150.8606
3.1255	-21.04797
3.126	-166.97388
3.1265	-267.37976
3.127	-337.87537
3.1275	-392.3584
3.128	-390.84778
3.1285	-349.5575
3.129	-274.93286
3.1295	-191.24451
3.13	-112.08801
3.1305	-20.54443
3.131	183.18787
3.1315	309.87854
3.132	355.09644
3.1325	339.48669
3.133	336.86829
3.1335	354.29077
3.134	391.95557
3.1345	384.50317
3.135	320.45288
3.1355	264.35852
3.136	181.47583
3.1365	73.51685
3.137	-55.79224
3.1375	-180.87158
3.138	-288.0249
3.1385	-369.19556
3.139	-404.04053
3.1395	-413.00354
3.14	-417.33398
3.1405	-392.96265
3.141	-367.2821
3.1415	-284.39941
3.142	-210.68115
3.1425	-163.65051
3.143	-142.19971
3.1435	-145.42236
3.144	-111.28235
3.1445	-47.33276
3.145	-1.51062
3.1455	46.12427
3.146	220.14771
3.1465	353.18298
3.147	420.55664
3.1475	401.2207
3.148	386.61804
3.1485	451.77612
3.149	508.17261
3.1495	500.31738
3.15	421.86584
3.1505	285.30579
3.151	160.42786
3.1515	108.66394
3.152	158.5144
3.1525	267.27905
3.153	321.05713
3.1535	333.74634
3.154	280.97534
3.1545	195.27283
3.155	76.13525
3.1555	-65.46021
3.156	-187.61902
3.1565	-262.14294
3.157	-350.56458
3.1575	-433.44727
3.158	-469.90356
3.1585	-460.03418
3.159	-389.8407
3.1595	-321.86279
3.16	-250.36011
3.1605	-28.60107
3.161	293.46313
3.1615	639.09302
3.162	748.15979
3.1625	654.19922
3.163	495.4834
3.1635	364.7644
3.164	189.43176
3.1645	36.15417
3.165	-103.52783
3.1655	-248.9502
3.166	-356.00281
3.1665	-389.73999
3.167	-374.83521
3.1675	-391.04919
3.168	-393.96973
3.1685	-320.755
3.169	-216.42151
3.1695	-107.05261
3.17	-14.70337
3.1705	20.74585
3.171	-34.94568
3.1715	-108.76465
3.172	-177.04468
3.1725	-80.06287
3.173	32.83081
3.1735	58.00781
3.174	55.3894
3.1745	20.44373
3.175	-30.11169
3.1755	-38.16833
3.176	-74.02039
3.1765	-137.56714
3.177	-230.62134
3.1775	-276.34277
3.178	-278.65906
3.1785	-283.69446
3.179	-281.27747
3.1795	-224.57886
3.18	-138.97705
3.1805	-105.74341
3.181	-68.48145
3.1815	165.56396
3.182	312.39624
3.1825	335.86121
3.183	321.76208
3.1835	292.75818
3.184	234.64966
3.1845	160.83069
3.185	49.74976
3.1855	-74.72534
3.186	-98.79456
3.1865	-89.63013
3.187	-86.10535
3.1875	-94.06128
3.188	-100.00305
3.1885	-110.57739
3.189	-132.93457
3.1895	-183.18787
3.19	-272.41516
3.1905	-335.65979
3.191	-308.0658
3.1915	-242.80701
3.192	-229.51355
3.1925	-199.70398
3.193	-107.45544
3.1935	-40.1825
3.194	-10.97717
3.1945	-15.81116
3.195	12.18567
3.1955	163.34839
3.196	340.09094
3.1965	411.1908
3.197	386.61804
3.1975	435.66284
3.198	471.71631
3.1985	409.78088
3.199	313.1012
3.1995	226.89514
3.2	130.8197
3.2005	64.95667
3.201	-16.01257
3.2015	-31.11877
3.202	88.42163
3.2025	306.05164
3.203	434.95789
3.2035	397.99805
3.204	291.34827
3.2045	119.33899
3.205	-10.87646
3.2055	-104.03137
3.206	-200.50964
3.2065	-278.05481
3.207	-316.52527
3.2075	-311.99341
3.208	-262.94861
3.2085	-154.88892
3.209	-57.30286
3.2095	189.23035
3.21	513.1073
3.2105	725.80261
3.211	795.79468
3.2115	727.71606
3.212	544.32678
3.2125	295.17517
3.213	75.53101
3.2135	-110.98022
3.214	-250.05798
3.2145	-365.77148
3.215	-430.1239
3.2155	-436.46851
3.216	-412.19788
3.2165	-385.00671
3.217	-356.20422
3.2175	-318.43872
3.218	-289.33411
3.2185	-41.59241
3.219	215.71655
3.2195	322.06421
3.22	452.7832
3.2205	460.53772
3.221	364.6637
3.2215	208.86841
3.222	49.0448
3.2225	-110.17456
3.223	-253.07922
3.2235	-401.52283
3.224	-518.94836
3.2245	-542.41333
3.225	-524.89014
3.2255	-454.09241
3.226	-388.02795
3.2265	-314.10828
3.227	-253.88489
3.2275	-210.37903
3.228	-141.99829
3.2285	6.54602
3.229	63.64746
3.2295	97.48535
3.23	156.50024
3.2305	195.67566
3.231	216.42151
3.2315	181.67725
3.232	103.72925
3.2325	15.81116
3.233	-48.94409
3.2335	-89.42871
3.234	-113.49792
3.2345	-111.8866
3.235	-145.12024
3.2355	-146.32874
3.236	-144.21387
3.2365	-183.08716
3.237	-6.84814
3.2375	260.3302
3.238	447.64709
3.2385	518.94836
3.239	560.03723
3.2395	505.5542
3.24	400.51575
3.2405	236.96594
3.241	83.08411
3.2415	-50.45471
3.242	-92.65137
3.2425	-82.37915
3.243	-106.8512
3.2435	-160.83069
3.244	-220.65125
3.2445	-234.95178
3.245	-233.74329
3.2455	-251.97144
3.246	-246.02966
3.2465	-226.08948
3.247	-161.33423
3.2475	-64.45312
3.248	26.18408
3.2485	61.6333
3.249	86.70959
3.2495	238.07373
3.25	472.32056
3.2505	582.09229
3.251	570.71228
3.2515	487.62817
3.252	330.52368
3.2525	107.05261
3.253	-92.55066
3.2535	-245.32471
3.254	-318.64014
3.2545	-313.90686
3.255	-295.67871
3.2555	-305.04456
3.256	-311.28845
3.2565	-308.77075
3.257	-181.47583
3.2575	-71.09985
3.258	-15.71045
3.2585	10.37292
3.259	9.36584
3.2595	35.2478
3.26	68.88428
3.2605	69.38782
3.261	41.79382
3.2615	-1.81274
3.262	-2.81982
3.2625	54.58374
3.263	120.44678
3.2635	149.04785
3.264	145.9259
3.2645	112.99438
3.265	33.73718
3.2655	-89.73083
3.266	-187.21619
3.2665	-247.33887
3.267	-250.76294
3.2675	-229.01001
3.268	-133.74023
3.2685	159.01794
3.269	533.55103
3.2695	693.47534
3.27	640.70435
3.2705	477.75879
3.271	264.55994
3.2715	27.79541
3.272	-176.33972
3.2725	-379.87061
3.273	-547.65015
3.2735	-400.01221
3.274	-199.50256
3.2745	-137.56714
3.275	-142.19971
3.2755	-63.54675
3.276	4.53186
3.2765	-13.69629
3.277	-115.61279
3.2775	-218.53638
3.278	-293.56384
3.2785	-324.27979
3.279	-275.4364
3.2795	-216.72363
3.28	-189.23035
3.2805	-173.31848
3.281	-89.328
3.2815	61.23047
3.282	152.67334
3.2825	239.48364
3.283	248.84949
3.2835	221.96045
3.284	117.82837
3.2845	5.0354
3.285	-111.48376
3.2855	-189.83459
3.286	-255.09338
3.2865	-260.12878
3.287	-235.35461
3.2875	-201.41602
3.288	-125.7843
3.2885	-73.01331
3.289	27.59399
3.2895	170.90149
3.29	236.76453
3.2905	263.45215
3.291	267.37976
3.2915	439.69116
3.292	547.54944
3.2925	531.63757
3.293	439.79187
3.2935	333.2428
3.294	195.97778
3.2945	12.28638
3.295	-157.10449
3.2955	-297.59216
3.296	-387.42371
3.2965	-389.73999
3.297	-286.51428
3.2975	-66.56799
3.298	82.88269
3.2985	175.53406
3.299	276.24207
3.2995	325.58899
3.3	331.83289
3.3005	406.75964
3.301	517.03491
3.3015	519.65332
3.302	429.62036
3.3025	407.36389
3.303	522.17102
3.3035	554.39758
3.304	433.54797
3.3045	338.37891
3.305	276.34277
3.3055	210.88257
3.306	113.29651
3.3065	-14.90479
3.307	-166.77246
3.3075	-294.06738
3.308	-370.20264
3.3085	-401.52283
3.309	-431.3324
3.3095	-432.84302
3.31	-344.11926
3.3105	-307.05872
3.311	-252.27356
3.3115	-230.62134
3.312	-247.33887
3.3125	-234.14612
3.313	-39.07471
3.3135	117.92908
3.314	102.31934
3.3145	-9.36584
3.315	-129.81262
3.3155	-226.29089
3.316	-348.24829
3.3165	-461.5448
3.317	-497.90039
3.3175	-444.32373
3.318	-395.78247
3.3185	-370.80688
3.319	-250.36011
3.3195	-157.00378
3.32	-87.41455
3.3205	22.05505
3.321	267.68188
3.3215	359.32617
3.322	322.16492
3.3225	307.26013
3.323	367.98706
3.3235	424.98779
3.324	381.78406
3.3245	246.4325
3.325	113.49792
3.3255	-27.09045
3.326	-86.40747
3.3265	-83.28552
3.327	-171.20361
3.3275	-290.34119
3.328	-207.76062
3.3285	-116.11633
3.329	-124.77722
3.3295	-157.30591
3.33	-191.34521
3.3305	-231.22559
3.331	-266.27197
3.3315	-312.59766
3.332	-373.32458
3.3325	-395.68176
3.333	-269.39392
3.3335	-22.76001
3.334	256.5033
3.3345	372.01538
3.335	431.43311
3.3355	447.94922
3.336	445.33081
3.3365	382.2876
3.337	211.68823
3.3375	27.59399
3.338	-103.93066
3.3385	-202.82593
3.339	-132.63245
3.3395	201.2146
3.34	361.84387
3.3405	444.02161
3.341	521.36536
3.3415	580.88379
3.342	502.83508
3.3425	417.63611
3.343	289.13269
3.3435	78.45154
3.344	-116.11633
3.3445	-276.04065
3.345	-415.11841
3.3455	-437.87842
3.346	-402.52991
3.3465	-331.93359
3.347	-89.42871
3.3475	161.33423
3.348	265.86914
3.3485	221.3562
3.349	179.76379
3.3495	208.26416
3.35	443.21594
3.3505	557.51953
3.351	416.83044
3.3515	164.55688
3.352	-58.41064
3.3525	-225.48523
3.353	-312.39624
3.3535	-299.90845
3.354	-373.62671
3.3545	-444.62585
3.355	-491.45508
3.3555	-469.90356
3.356	-411.69434
3.3565	-390.34424
3.357	-375.74158
3.3575	-318.2373
3.358	-265.26489
3.3585	-233.44116
3.359	-264.25781
3.3595	-152.37122
3.36	81.06995
3.3605	246.93604
3.361	350.56458
3.3615	380.77698
3.362	332.13501
3.3625	234.24683
3.363	117.22412
3.3635	-0.40283
3.364	-78.04871
3.3645	-119.64111
3.365	-148.3429
3.3655	-129.61121
3.366	-90.33508
3.3665	-38.974
3.367	10.67505
3.3675	39.67896
3.368	51.05896
3.3685	76.63879
3.369	96.47827
3.3695	132.73315
3.37	166.26892
3.3705	139.48059
3.371	83.88977
3.3715	43.00232
3.372	25.68054
3.3725	102.21863
3.373	152.1698
3.3735	158.4137
3.374	115.81421
3.3745	87.11243
3.375	39.67896
3.3755	10.37292
3.376	-21.24939
3.3765	-46.72852
3.377	-75.02747
3.3775	-89.52942
3.378	24.67346
3.3785	302.32544
3.379	458.22144
3.3795	550.8728
3.38	545.53528
3.3805	466.47949
3.381	291.14685
3.3815	165.66467
3.382	121.55457
3.3825	19.83948
3.383	-77.84729
3.3835	-78.25012
3.384	54.18091
3.3845	219.74487
3.385	296.48438
3.3855	255.79834
3.386	154.78821
3.3865	46.92993
3.387	97.78748
3.3875	77.84729
3.388	10.97717
3.3885	-52.56958
3.389	-91.34216
3.3895	-166.16821
3.39	-275.53711
3.3905	-433.74939
3.391	-559.53369
3.3915	-510.99243
3.392	-496.59119
3.3925	-524.58801
3.393	-551.07422
3.3935	-596.49353
3.394	-596.39282
3.3945	-561.54785
3.395	-539.59351
3.3955	-527.60925
3.396	-513.61084
3.3965	-470.3064
3.397	-375.03662
3.3975	-298.59924
3.398	-305.44739
3.3985	-322.97058
3.399	-294.57092
3.3995	-237.97302
3.4	-181.073
3.4005	-141.79688
3.401	-13.19275
3.4015	206.75354
3.402	429.82178
3.4025	574.53918
3.403	656.5155
3.4035	775.35095
3.404	863.87329
3.4045	762.35962
3.405	566.38184
3.4055	343.71643
3.406	134.44519
3.4065	48.54126
3.407	46.32568
3.4075	50.65613
3.408	33.33435
3.4085	26.58691
3.409	19.73877
3.4095	-2.71912
3.41	22.05505
3.4105	45.2179
3.411	53.67737
3.4115	33.53577
3.412	18.22815
3.4125	-5.63965
3.413	3.52478
3.4135	51.15967
3.414	137.96997
3.4145	197.4884
3.415	209.87549
3.4155	232.33337
3.416	216.92505
3.4165	200.40894
3.417	140.68909
3.4175	38.26904
3.418	-69.58923
3.4185	-133.03528
3.419	-169.08875
3.4195	-64.45312
3.42	52.67029
3.4205	103.72925
3.421	92.44995
3.4215	63.84888
3.422	45.41931
3.4225	236.86523
3.423	358.21838
3.4235	332.73926
3.424	272.01233
3.4245	184.79919
3.425	98.89526
3.4255	-0.40283
3.426	-87.41455
3.4265	-153.88184
3.427	-193.6615
3.4275	-220.95337
3.428	-261.33728
3.4285	-284.70154
3.429	-284.29871
3.4295	-236.05957
3.43	-131.02112
3.4305	216.92505
3.431	683.40454
3.4315	917.24854
3.432	902.44446
3.4325	731.24084
3.433	507.16553
3.4335	250.15869
3.434	-51.05896
3.4345	-247.23816
3.435	-405.45044
3.4355	-494.87915
3.436	-553.99475
3.4365	-587.83264
3.437	-563.3606
3.4375	-531.53687
3.438	-502.23083
3.4385	-468.99719
3.439	-424.18213
3.4395	-326.69678
3.44	-253.28064
3.4405	-203.02734
3.441	-174.42627
3.4415	-127.59705
3.442	17.92603
3.4425	114.90784
3.443	134.94873
3.4435	163.65051
3.444	297.29004
3.4445	395.68176
3.445	368.79272
3.4455	258.81958
3.446	109.67102
3.4465	-32.02515
3.447	-151.86768
3.4475	-257.40967
3.448	-303.93677
3.4485	-323.67554
3.449	-305.24597
3.4495	-230.21851
3.45	-65.46021
3.4505	31.32019
3.451	-25.07629
3.4515	-88.32092
3.452	-64.35242
3.4525	-77.74658
3.453	40.78674
3.4535	146.12732
3.454	151.76697
3.4545	192.85583
3.455	175.63477
3.4555	158.71582
3.456	131.02112
3.4565	284.70154
3.457	358.72192
3.4575	256.5033
3.458	113.59863
3.4585	-23.56567
3.459	-140.8905
3.4595	-169.89441
3.46	-167.77954
3.4605	-204.53796
3.461	-214.40735
3.4615	-156.90308
3.462	-169.49158
3.4625	-214.40735
3.463	-218.8385
3.4635	-184.29565
3.464	-195.67566
3.4645	-228.60718
3.465	-262.94861
3.4655	-144.21387
3.466	-5.13611
3.4665	71.30127
3.467	89.93225
3.4675	75.53101
3.468	151.96838
3.4685	342.81006
3.469	427.50549
3.4695	367.08069
3.47	228.70789
3.4705	147.23511
3.471	220.75195
3.4715	234.14612
3.472	151.76697
3.4725	49.14551
3.473	-49.74976
3.4735	-160.22644
3.474	-237.97302
3.4745	-301.62048
3.475	-346.53625
3.4755	-376.14441
3.476	-348.24829
3.4765	-215.61584
3.477	75.93384
3.4775	233.23975
3.478	357.61414
3.4785	429.41895
3.479	340.69519
3.4795	210.98328
3.48	93.0542
3.4805	-44.71436
3.481	-141.09192
3.4815	-195.17212
3.482	-190.13672
3.4825	-165.86609
3.483	-196.88416
3.4835	-174.62769
3.484	-104.93774
3.4845	-47.03064
3.485	7.5531
3.4855	35.14709
3.486	41.39099
3.4865	54.98657
3.487	63.24463
3.4875	104.3335
3.488	184.8999
3.4885	262.14294
3.489	320.25146
3.4895	346.43555
3.49	330.7251
3.4905	242.30347
3.491	115.91492
3.4915	89.52942
3.492	32.93152
3.4925	72.10693
3.493	106.8512
3.4935	105.94482
3.494	42.09595
3.4945	-16.3147
3.495	-91.04004
3.4955	-179.05884
3.496	-221.75903
3.4965	-231.93054
3.497	-211.08398
3.4975	-208.7677
3.498	-215.71655
3.4985	-147.43652
3.499	21.45081
3.4995	162.34131
3.5	218.8385
3.5005	258.71887
3.501	243.00842
3.5015	188.02185
3.502	109.67102
3.5025	61.83472
3.503	32.42798
3.5035	-13.89771
3.504	-80.86853
3.5045	-117.12341
3.505	-124.97864
3.5055	-36.4563
3.506	179.76379
3.5065	330.32227
3.507	660.44312
3.5075	873.84338
3.508	838.29346
3.5085	686.42578
3.509	460.43701
3.5095	194.9707
3.51	76.94092
3.5105	30.91736
3.511	-113.1958
3.5115	-245.52612
3.512	-339.68811
3.5125	-414.11133
3.513	-490.448
3.5135	-555.30396
3.514	-599.61548
3.5145	-660.74524
3.515	-690.25269
3.5155	-669.70825
3.516	-609.28345
3.5165	-531.73828
3.517	-345.22705
3.5175	-110.77881
3.518	16.21399
3.5185	71.20056
3.519	85.60181
3.5195	39.17542
3.52	54.88586
3.5205	210.0769
3.521	322.76917
3.5215	395.68176
3.522	581.79016
3.5225	744.93713
3.523	771.62476
3.5235	623.58398
3.524	430.52673
3.5245	278.15552
3.525	113.29651
3.5255	-55.49011
3.526	-219.24133
3.5265	-314.10828
3.527	-320.55359
3.5275	-302.22473
3.528	-320.755
3.5285	-358.72192
3.529	-324.07837
3.5295	-261.5387
3.53	-165.36255
3.5305	-71.60339
3.531	-14.40125
3.5315	13.89771
3.532	63.44604
3.5325	58.20923
3.533	140.18555
3.5335	237.46948
3.534	259.1217
3.5345	195.67566
3.535	104.73633
3.5355	33.83789
3.536	-83.08411
3.5365	-194.46716
3.537	-238.17444
3.5375	-248.84949
3.538	-284.198
3.5385	-299.20349
3.539	-255.59692
3.5395	-206.65283
3.54	-104.3335
3.5405	-23.26355
3.541	29.91028
3.5415	93.65845
3.542	88.52234
3.5425	-2.41699
3.543	-115.7135
3.5435	-149.85352
3.544	-212.4939
3.5445	-119.94324
3.545	55.2887
3.5455	162.03918
3.546	207.4585
3.5465	224.88098
3.547	173.72131
3.5475	25.37842
3.548	-99.80164
3.5485	99.09668
3.549	354.99573
3.5495	463.65967
3.55	484.70764
3.5505	438.78479
3.551	367.1814
3.5515	219.64417
3.552	35.75134
3.5525	-115.81421
3.553	-230.62134
3.5535	-255.39551
3.554	-227.39868
3.5545	-178.75671
3.555	-73.31543
3.5555	104.13208
3.556	182.68433
3.5565	178.05176
3.557	187.61902
3.5575	158.61511
3.558	81.87561
3.5585	-23.66638
3.559	-98.39172
3.5595	-155.59387
3.56	-159.21936
3.5605	-117.32483
3.561	-71.50269
3.5615	-33.23364
3.562	10.87646
3.5625	88.22021
3.563	195.97778
3.5635	216.82434
3.564	140.18555
3.5645	204.53796
3.565	369.09485
3.5655	430.52673
3.566	364.6637
3.5665	253.78418
3.567	73.11401
3.5675	-155.79529
3.568	-357.61414
3.5685	-454.49524
3.569	-491.25366
3.5695	-509.48181
3.57	-425.89417
3.5705	-332.13501
3.571	-278.96118
3.5715	-210.58044
3.572	-124.87793
3.5725	7.35168
3.573	146.42944
3.5735	173.92273
3.574	176.84326
3.5745	165.9668
3.575	146.73157
3.5755	165.66467
3.576	214.20593
3.5765	213.40027
3.577	165.46326
3.5775	125.48218
3.578	96.67969
3.5785	80.06287
3.579	29.91028
3.5795	-45.3186
3.58	-102.62146
3.5805	-137.56714
3.581	-183.69141
3.5815	-245.92896
3.582	-261.33728
3.5825	-206.45142
3.583	-101.71509
3.5835	19.13452
3.584	92.75208
3.5845	111.28235
3.585	120.04395
3.5855	95.26978
3.586	54.0802
3.5865	16.71753
3.587	-12.48779
3.5875	-5.63965
3.588	-6.94885
3.5885	8.7616
3.589	42.49878
3.5895	5.63965
3.59	90.13367
3.5905	272.81799
3.591	409.07593
3.5915	448.65417
3.592	352.37732
3.5925	161.53564
3.593	-49.54834
3.5935	-235.65674
3.594	-382.48901
3.5945	-470.60852
3.595	-523.98376
3.5955	-468.49365
3.596	-320.35217
3.5965	-188.6261
3.597	-86.20605
3.5975	-31.82373
3.598	-1.00708
3.5985	-19.03381
3.599	-43.20374
3.5995	-59.31702
3.6	-32.93152
3.6005	32.93152
3.601	124.4751
3.6015	245.12329
3.602	290.13977
3.6025	276.24207
3.603	264.1571
3.6035	220.55054
3.604	221.65833
3.6045	261.23657
3.605	209.17053
3.6055	65.96375
3.606	-133.63953
3.6065	-278.25623
3.607	-221.15479
3.6075	-145.12024
3.608	-46.72852
3.6085	47.23206
3.609	41.18958
3.6095	-49.24622
3.61	-180.67017
3.6105	-280.67322
3.611	-211.38611
3.6115	-225.88806
3.612	-278.05481
3.6125	-288.0249
3.613	-291.34827
3.6135	-247.33887
3.614	-150.8606
3.6145	-47.23206
3.615	70.19348
3.6155	111.38306
3.616	203.7323
3.6165	318.03589
3.617	352.57874
3.6175	376.84937
3.618	396.58813
3.6185	388.22937
3.619	362.75024
3.6195	365.16724
3.62	354.19006
3.6205	302.52686
3.621	235.05249
3.6215	174.12415
3.622	158.61511
3.6225	147.94006
3.623	92.04712
3.6235	48.54126
3.624	21.55151
3.6245	-23.26355
3.625	-105.94482
3.6255	-169.08875
3.626	-214.60876
3.6265	-249.35303
3.627	-231.427
3.6275	-128.90625
3.628	-63.34534
3.6285	-29.30603
3.629	26.58691
3.6295	65.05737
3.63	39.17542
3.6305	-31.52161
3.631	-89.83154
3.6315	-138.57422
3.632	-166.97388
3.6325	-177.95105
3.633	-171.0022
3.6335	-158.91724
3.634	-136.56006
3.6345	-106.14624
3.635	-70.69702
3.6355	-30.71594
3.636	-10.57434
3.6365	-39.17542
3.637	-76.7395
3.6375	-92.44995
3.638	-94.3634
3.6385	-83.68835
3.639	61.12976
3.6395	274.02649
3.64	437.87842
3.6405	485.81543
3.641	441.30249
3.6415	371.91467
3.642	285.70862
3.6425	177.74963
3.643	49.14551
3.6435	-92.14783
3.644	-186.61194
3.6445	-254.38843
3.645	-267.17834
3.6455	-240.49072
3.646	-171.30432
3.6465	-110.17456
3.647	-58.71277
3.6475	-4.53186
3.648	-14.50195
3.6485	-82.47986
3.649	-162.64343
3.6495	-206.25
3.65	-256.30188
3.6505	-293.56384
3.651	-317.53235
3.6515	-306.55518
3.652	-264.96277
3.6525	-123.87085
3.653	22.35718
3.6535	87.11243
3.654	112.28943
3.6545	104.13208
3.655	187.92114
3.6555	253.58276
3.656	217.73071
3.6565	66.97083
3.657	-97.08252
3.6575	-90.23438
3.658	16.11328
3.6585	116.72058
3.659	150.55847
3.6595	132.12891
3.66	66.97083
3.6605	-20.84656
3.661	-77.64587
3.6615	-169.99512
3.662	-242.90771
3.6625	-303.0304
3.663	-357.1106
3.6635	-404.54407
3.664	-407.86743
3.6645	-319.34509
3.665	-188.52539
3.6655	-67.57507
3.666	3.22266
3.6665	105.13916
3.667	200.0061
3.6675	313.00049
3.668	397.09167
3.6685	423.47717
3.669	417.03186
3.6695	385.30884
3.67	315.11536
3.6705	167.37671
3.671	13.39417
3.6715	-64.55383
3.672	57.40356
3.6725	128.40271
3.673	173.01636
3.6735	190.94238
3.674	170.19653
3.6745	96.07544
3.675	-31.32019
3.6755	-121.45386
3.676	-167.37671
3.6765	-213.90381
3.677	-203.63159
3.6775	-153.88184
3.678	-94.86694
3.6785	-47.13135
3.679	-5.13611
3.6795	15.60974
3.68	176.54114
3.6805	300.21057
3.681	293.16101
3.6815	218.13354
3.682	114.00146
3.6825	16.51611
3.683	-73.01331
3.6835	-156.80237
3.684	-136.25793
3.6845	-97.38464
3.685	-46.32568
3.6855	13.09204
3.686	11.58142
3.6865	6.64673
3.687	24.27063
3.6875	33.73718
3.688	35.75134
3.6885	49.74976
3.689	74.62463
3.6895	93.0542
3.69	93.15491
3.6905	76.84021
3.691	89.83154
3.6915	68.28003
3.692	32.22656
3.6925	0.30212
3.693	-25.88196
3.6935	-20.24231
3.694	-27.19116
3.6945	-44.21082
3.695	-58.00781
3.6955	-37.26196
3.696	11.48071
3.6965	73.21472
3.697	133.94165
3.6975	167.37671
3.698	170.49866
3.6985	196.27991
3.699	211.99036
3.6995	166.77246
3.7	77.74658
3.7005	-25.07629
3.701	-79.55933
3.7015	-55.2887
3.702	-34.24072
3.7025	-28.50037
3.703	22.86072
3.7035	66.6687
3.704	210.37903
3.7045	367.98706
3.705	379.36707
3.7055	365.36865
3.706	309.17358
3.7065	164.65759
3.707	-11.98425
3.7075	-79.2572
3.708	7.04956
3.7085	16.01257
3.709	-29.80957
3.7095	-102.72217
3.71	-166.67175
3.7105	-258.11462
3.711	-298.59924
3.7115	-303.23181
3.712	-332.33643
3.7125	-386.71875
3.713	-435.56213
3.7135	-350.56458
3.714	-239.68506
3.7145	-225.88806
3.715	-271.40808
3.7155	-270.401
3.716	-251.5686
3.7165	-197.08557
3.717	-138.97705
3.7175	-175.33264
3.718	-215.0116
3.7185	-234.44824
3.719	-242.50488
3.7195	-219.84558
3.72	-165.16113
3.7205	-53.37524
3.721	146.12732
3.7215	293.0603
3.722	288.12561
3.7225	256.30188
3.723	257.00684
3.7235	225.78735
3.724	116.82129
3.7245	24.47205
3.725	-17.22107
3.7255	-39.37683
3.726	-0.50354
3.7265	27.29187
3.727	25.88196
3.7275	63.34534
3.728	104.03137
3.7285	166.87317
3.729	364.16016
