Alessio_Russo_Right_2.c3d  



Time(s):	B_L_bicipite(μV):
0	-52.97241
0.0005	-48.54126
0.001	-50.15259
0.0015	-44.31152
0.002	-49.0448
0.0025	-45.82214
0.003	-42.19666
0.0035	-36.05347
0.004	-29.20532
0.0045	-16.41541
0.005	-14.19983
0.0055	-16.71753
0.006	-8.56018
0.0065	-12.78992
0.007	-10.97717
0.0075	-11.17859
0.008	-11.48071
0.0085	0.10071
0.009	6.44531
0.0095	19.63806
0.01	25.78125
0.0105	44.0094
0.011	48.03772
0.0115	51.26038
0.012	56.39648
0.0125	60.72693
0.013	62.53967
0.0135	61.43188
0.014	57.50427
0.0145	57.40356
0.015	62.03613
0.0155	64.151
0.016	68.38074
0.0165	63.04321
0.017	57.00073
0.0175	56.09436
0.018	41.89453
0.0185	31.62231
0.019	23.66638
0.0195	18.73169
0.02	17.32178
0.0205	0.50354
0.021	0.80566
0.0215	-2.01416
0.022	-3.02124
0.0225	-4.43115
0.023	-4.12903
0.0235	9.66797
0.024	20.24231
0.0245	30.2124
0.025	34.94568
0.0255	31.52161
0.026	20.24231
0.0265	6.44531
0.027	-7.85522
0.0275	-30.11169
0.028	-42.39807
0.0285	-53.87878
0.029	-49.54834
0.0295	-45.11719
0.03	-43.70728
0.0305	-41.08887
0.031	-33.43506
0.0315	-14.90479
0.032	-10.47363
0.0325	-9.36584
0.033	-8.05664
0.0335	0.60425
0.034	-0.10071
0.0345	1.00708
0.035	-0.80566
0.0355	-3.8269
0.036	1.61133
0.0365	12.48779
0.037	8.66089
0.0375	7.75452
0.038	10.87646
0.0385	18.02673
0.039	16.41541
0.0395	10.0708
0.04	8.96301
0.0405	5.43823
0.041	6.3446
0.0415	6.84814
0.042	7.35168
0.0425	3.52478
0.043	8.05664
0.0435	33.33435
0.044	43.00232
0.0445	47.33276
0.045	32.62939
0.0455	22.05505
0.046	11.38
0.0465	11.2793
0.047	-1.71204
0.0475	-17.82532
0.048	-35.65063
0.0485	-39.77966
0.049	-36.65771
0.0495	-39.47754
0.05	-40.38391
0.0505	-29.20532
0.051	-15.50903
0.0515	-6.54602
0.052	-5.33752
0.0525	-16.11328
0.053	-14.40125
0.0535	-7.5531
0.054	2.31628
0.0545	8.8623
0.055	20.1416
0.0555	21.95435
0.056	34.54285
0.0565	38.57117
0.057	46.02356
0.0575	36.35559
0.058	38.06763
0.0585	42.09595
0.059	29.20532
0.0595	21.85364
0.06	36.35559
0.0605	50.354
0.061	52.06604
0.0615	38.77258
0.062	24.57275
0.0625	9.76868
0.063	-5.84106
0.0635	-18.02673
0.064	-27.99683
0.0645	-33.9386
0.065	-40.98816
0.0655	-40.38391
0.066	-38.67188
0.0665	-40.88745
0.067	-29.30603
0.0675	-26.68762
0.068	-26.58691
0.0685	-31.11877
0.069	-40.68604
0.0695	-38.36975
0.07	-31.11877
0.0705	-21.04797
0.071	-6.2439
0.0715	7.85522
0.072	16.61682
0.0725	12.48779
0.073	8.8623
0.0735	4.83398
0.074	6.3446
0.0745	-0.10071
0.075	4.53186
0.0755	11.88354
0.076	24.27063
0.0765	32.83081
0.077	40.78674
0.0775	40.2832
0.078	41.18958
0.0785	40.38391
0.079	40.2832
0.0795	39.17542
0.08	32.7301
0.0805	24.67346
0.081	25.27771
0.0815	24.57275
0.082	23.56567
0.0825	20.94727
0.083	17.22107
0.0835	6.74744
0.084	4.83398
0.0845	-0.90637
0.085	-12.5885
0.0855	-10.27222
0.086	-4.83398
0.0865	2.41699
0.087	7.04956
0.0875	11.98425
0.088	19.53735
0.0885	8.35876
0.089	13.59558
0.0895	24.06921
0.09	35.04639
0.0905	37.66479
0.091	32.52869
0.0915	32.32727
0.092	29.30603
0.0925	20.54443
0.093	16.71753
0.0935	12.89062
0.094	11.88354
0.0945	6.3446
0.095	7.75452
0.0955	17.12036
0.096	16.81824
0.0965	18.53027
0.097	17.92603
0.0975	21.85364
0.098	23.16284
0.0985	22.96143
0.099	14.80408
0.0995	-2.5177
0.1	-3.12195
0.1005	-6.74744
0.101	-5.23682
0.1015	20.64514
0.102	41.39099
0.1025	40.98816
0.103	36.85913
0.1035	23.06213
0.104	14.60266
0.1045	-8.45947
0.105	-17.6239
0.1055	-28.70178
0.106	-30.31311
0.1065	-22.96143
0.107	-11.58142
0.1075	-0.50354
0.108	8.7616
0.1085	1.81274
0.109	-10.27222
0.1095	-25.27771
0.11	-30.41382
0.1105	-42.7002
0.111	-43.60657
0.1115	-41.08887
0.112	-37.66479
0.1125	-34.74426
0.113	-9.97009
0.1135	3.02124
0.114	-0.40283
0.1145	-0.20142
0.115	-9.56726
0.1155	-20.34302
0.116	-23.96851
0.1165	-24.97559
0.117	-23.16284
0.1175	-26.78833
0.118	-30.11169
0.1185	-35.54993
0.119	-24.97559
0.1195	-11.38
0.12	-0.90637
0.1205	-3.7262
0.121	8.35876
0.1215	13.39417
0.122	13.59558
0.1225	18.12744
0.123	22.86072
0.1235	28.09753
0.124	32.83081
0.1245	34.64355
0.125	35.65063
0.1255	33.43506
0.126	30.91736
0.1265	29.60815
0.127	35.14709
0.1275	43.60657
0.128	40.58533
0.1285	24.77417
0.129	15.60974
0.1295	13.19275
0.13	5.13611
0.1305	-5.23682
0.131	-18.02673
0.1315	-16.71753
0.132	-19.03381
0.1325	-17.52319
0.133	-13.69629
0.1335	-7.04956
0.134	-10.17151
0.1345	-1.91345
0.135	-5.13611
0.1355	1.10779
0.136	4.02832
0.1365	4.83398
0.137	6.54602
0.1375	18.02673
0.138	26.98975
0.1385	29.80957
0.139	28.39966
0.1395	23.36426
0.14	26.3855
0.1405	33.23364
0.141	45.52002
0.1415	48.33984
0.142	49.74976
0.1425	31.01807
0.143	12.48779
0.1435	-3.22266
0.144	-4.73328
0.1445	-11.17859
0.145	-11.78284
0.1455	-9.26514
0.146	-10.77576
0.1465	-2.92053
0.147	-1.81274
0.1475	6.2439
0.148	9.97009
0.1485	12.48779
0.149	13.39417
0.1495	25.27771
0.15	29.91028
0.1505	32.42798
0.151	34.84497
0.1515	33.13293
0.152	36.75842
0.1525	27.89612
0.153	20.54443
0.1535	8.96301
0.154	-16.91895
0.1545	-34.14001
0.155	-43.00232
0.1555	-46.02356
0.156	-46.32568
0.1565	-58.91418
0.157	-69.79065
0.1575	-78.14941
0.158	-70.09277
0.1585	-59.51843
0.159	-47.93701
0.1595	-36.15417
0.16	-18.02673
0.1605	-1.81274
0.161	20.1416
0.1615	38.77258
0.162	44.41223
0.1625	36.35559
0.163	44.11011
0.1635	51.86462
0.164	54.78516
0.1645	56.49719
0.165	50.95825
0.1655	45.62073
0.166	47.33276
0.1665	40.98816
0.167	38.36975
0.1675	40.58533
0.168	41.39099
0.1685	44.41223
0.169	54.78516
0.1695	45.11719
0.17	36.85913
0.1705	26.78833
0.171	16.51611
0.1715	15.00549
0.172	3.52478
0.1725	-2.81982
0.173	-5.0354
0.1735	-1.00708
0.174	3.62549
0.1745	-3.92761
0.175	0.40283
0.1755	-2.92053
0.176	-6.84814
0.1765	-6.94885
0.177	-13.797
0.1775	-13.09204
0.178	-16.71753
0.1785	-19.33594
0.179	-20.64514
0.1795	-17.12036
0.18	-17.72461
0.1805	-7.45239
0.181	-1.51062
0.1815	8.8623
0.182	3.42407
0.1825	7.75452
0.183	-12.5885
0.1835	-18.32886
0.184	-27.99683
0.1845	-30.71594
0.185	-28.29895
0.1855	-24.67346
0.186	-19.13452
0.1865	-22.25647
0.187	-15.81116
0.1875	-11.07788
0.188	-3.22266
0.1885	5.43823
0.189	12.28638
0.1895	5.74036
0.19	6.64673
0.1905	13.39417
0.191	12.08496
0.1915	11.68213
0.192	15.71045
0.1925	21.24939
0.193	21.85364
0.1935	23.96851
0.194	28.60107
0.1945	44.11011
0.195	57.60498
0.1955	65.15808
0.196	64.151
0.1965	51.96533
0.197	33.73718
0.1975	26.58691
0.198	12.18567
0.1985	-2.31628
0.199	-16.61682
0.1995	-27.29187
0.2	-30.91736
0.2005	-30.01099
0.201	-26.58691
0.2015	-24.27063
0.202	-28.80249
0.2025	-33.03223
0.203	-37.86621
0.2035	-36.95984
0.204	-45.3186
0.2045	-48.64197
0.205	-47.7356
0.2055	-27.59399
0.206	9.56726
0.2065	17.6239
0.207	36.25488
0.2075	46.12427
0.208	45.2179
0.2085	25.07629
0.209	3.62549
0.2095	-18.73169
0.21	-35.75134
0.2105	-48.33984
0.211	-55.3894
0.2115	-52.8717
0.212	-54.28162
0.2125	-41.69312
0.213	-28.29895
0.2135	-14.80408
0.214	-6.2439
0.2145	1.61133
0.215	2.11487
0.2155	1.81274
0.216	3.22266
0.2165	4.33044
0.217	-0.30212
0.2175	8.05664
0.218	19.13452
0.2185	25.57983
0.219	36.05347
0.2195	51.26038
0.22	55.18799
0.2205	59.21631
0.221	63.54675
0.2215	63.14392
0.222	63.94958
0.2225	63.04321
0.223	58.91418
0.2235	59.71985
0.224	55.59082
0.2245	45.11719
0.225	38.974
0.2255	34.74426
0.226	33.23364
0.2265	30.51453
0.227	28.29895
0.2275	18.53027
0.228	19.94019
0.2285	13.29346
0.229	13.19275
0.2295	-1.81274
0.23	-7.35168
0.2305	-13.39417
0.231	-15.81116
0.2315	-21.04797
0.232	-21.85364
0.2325	-18.32886
0.233	-24.97559
0.2335	-22.6593
0.234	-16.71753
0.2345	-9.26514
0.235	-9.26514
0.2355	-5.63965
0.236	1.81274
0.2365	9.26514
0.237	14.70337
0.2375	23.56567
0.238	40.68604
0.2385	47.03064
0.239	54.98657
0.2395	49.54834
0.24	31.82373
0.2405	15.1062
0.241	1.51062
0.2415	-3.22266
0.242	-6.64673
0.2425	-1.51062
0.243	-5.13611
0.2435	-11.88354
0.244	-16.81824
0.2445	-25.47913
0.245	-23.36426
0.2455	-15.50903
0.246	-11.58142
0.2465	-2.81982
0.247	-0.20142
0.2475	3.62549
0.248	3.42407
0.2485	19.13452
0.249	23.36426
0.2495	23.06213
0.25	21.95435
0.2505	13.59558
0.251	5.33752
0.2515	5.23682
0.252	5.43823
0.2525	8.96301
0.253	12.89062
0.2535	20.24231
0.254	25.27771
0.2545	15.20691
0.255	12.08496
0.2555	5.53894
0.256	0.50354
0.2565	2.5177
0.257	-7.04956
0.2575	-19.94019
0.258	-28.09753
0.2585	-26.48621
0.259	-28.80249
0.2595	-26.78833
0.26	-24.87488
0.2605	-17.01965
0.261	-25.27771
0.2615	-23.16284
0.262	-28.60107
0.2625	-23.66638
0.263	-12.08496
0.2635	-5.74036
0.264	-2.5177
0.2645	8.45947
0.265	16.71753
0.2655	13.89771
0.266	18.12744
0.2665	38.26904
0.267	53.37524
0.2675	66.46729
0.268	59.92126
0.2685	53.37524
0.269	48.64197
0.2695	40.98816
0.27	37.16125
0.2705	28.60107
0.271	30.81665
0.2715	33.73718
0.272	38.36975
0.2725	27.19116
0.273	19.63806
0.2735	25.47913
0.274	24.97559
0.2745	16.91895
0.275	6.3446
0.2755	-0.90637
0.276	-2.21558
0.2765	-19.33594
0.277	-32.83081
0.2775	-26.48621
0.278	-26.28479
0.2785	-17.72461
0.279	-15.60974
0.2795	-19.23523
0.28	-10.87646
0.2805	-8.35876
0.281	-15.1062
0.2815	-22.35718
0.282	-27.99683
0.2825	-25.68054
0.283	-28.50037
0.2835	-24.57275
0.284	-26.98975
0.2845	-18.63098
0.285	-9.06372
0.2855	-0.90637
0.286	8.7616
0.2865	19.43665
0.287	27.59399
0.2875	32.42798
0.288	32.93152
0.2885	29.60815
0.289	34.84497
0.2895	33.03223
0.29	32.22656
0.2905	27.09045
0.291	29.91028
0.2915	26.98975
0.292	27.89612
0.2925	23.8678
0.293	25.07629
0.2935	23.96851
0.294	15.00549
0.2945	10.57434
0.295	0.70496
0.2955	0.50354
0.296	4.63257
0.2965	8.7616
0.297	7.45239
0.2975	1.91345
0.298	8.35876
0.2985	6.94885
0.299	6.3446
0.2995	1.81274
0.3	-2.92053
0.3005	-14.40125
0.301	-23.56567
0.3015	-30.61523
0.302	-32.22656
0.3025	-39.17542
0.303	-43.60657
0.3035	-46.5271
0.304	-26.18408
0.3045	19.53735
0.305	51.15967
0.3055	54.38232
0.306	59.1156
0.3065	46.5271
0.307	28.60107
0.3075	15.40833
0.308	-4.02832
0.3085	-16.01257
0.309	-25.57983
0.3095	-31.4209
0.31	-45.3186
0.3105	-34.44214
0.311	-25.37842
0.3115	-16.3147
0.312	-19.94019
0.3125	-17.52319
0.313	-9.56726
0.3135	-8.35876
0.314	-17.12036
0.3145	-18.42957
0.315	-1.2085
0.3155	14.09912
0.316	30.61523
0.3165	39.98108
0.317	40.38391
0.3175	31.92444
0.318	26.88904
0.3185	19.33594
0.319	11.68213
0.3195	6.64673
0.32	-13.29346
0.3205	-25.68054
0.321	-25.88196
0.3215	-21.45081
0.322	-17.32178
0.3225	-2.21558
0.323	1.2085
0.3235	0.50354
0.324	1.61133
0.3245	2.21558
0.325	2.61841
0.3255	10.17151
0.326	18.02673
0.3265	23.06213
0.327	20.04089
0.3275	14.80408
0.328	18.32886
0.3285	8.66089
0.329	5.63965
0.3295	8.45947
0.33	14.30054
0.3305	20.54443
0.331	25.78125
0.3315	38.36975
0.332	45.11719
0.3325	39.07471
0.333	25.47913
0.3335	14.80408
0.334	13.89771
0.3345	-1.51062
0.335	-20.1416
0.3355	-33.73718
0.336	-23.66638
0.3365	-7.25098
0.337	-4.22974
0.3375	0.50354
0.338	2.81982
0.3385	5.74036
0.339	10.17151
0.3395	9.97009
0.34	6.94885
0.3405	-2.71912
0.341	-2.61841
0.3415	3.22266
0.342	12.78992
0.3425	7.04956
0.343	1.51062
0.3435	11.38
0.344	8.8623
0.3445	15.81116
0.345	36.65771
0.3455	33.23364
0.346	30.61523
0.3465	28.80249
0.347	20.24231
0.3475	22.76001
0.348	14.50195
0.3485	15.30762
0.349	9.06372
0.3495	7.5531
0.35	7.65381
0.3505	13.39417
0.351	13.39417
0.3515	20.94727
0.352	23.36426
0.3525	23.76709
0.353	36.25488
0.3535	39.37683
0.354	39.27612
0.3545	34.94568
0.355	29.50745
0.3555	21.45081
0.356	15.81116
0.3565	8.05664
0.357	8.45947
0.3575	10.77576
0.358	14.50195
0.3585	16.01257
0.359	7.04956
0.3595	-0.20142
0.36	-4.73328
0.3605	-6.64673
0.361	-5.84106
0.3615	-12.38708
0.362	-7.95593
0.3625	-4.73328
0.363	-3.62549
0.3635	3.42407
0.364	7.45239
0.3645	22.05505
0.365	42.49878
0.3655	61.73401
0.366	69.28711
0.3665	70.49561
0.367	59.01489
0.3675	39.57825
0.368	19.83948
0.3685	1.61133
0.369	-12.89062
0.3695	-21.95435
0.37	-25.78125
0.3705	-31.21948
0.371	-38.36975
0.3715	-40.1825
0.372	-41.08887
0.3725	-32.12585
0.373	-34.64355
0.3735	-32.32727
0.374	-30.31311
0.3745	-35.75134
0.375	-27.99683
0.3755	-16.61682
0.376	-4.33044
0.3765	-2.31628
0.377	0.80566
0.3775	4.83398
0.378	6.54602
0.3785	14.90479
0.379	21.3501
0.3795	24.27063
0.38	19.43665
0.3805	19.53735
0.381	13.29346
0.3815	4.02832
0.382	-1.71204
0.3825	-5.63965
0.383	-19.53735
0.3835	-24.87488
0.384	-29.30603
0.3845	-38.36975
0.385	-36.85913
0.3855	-48.74268
0.386	-47.63489
0.3865	-43.40515
0.387	-37.06055
0.3875	-31.62231
0.388	-33.53577
0.3885	-30.71594
0.389	-24.57275
0.3895	-9.66797
0.39	-2.31628
0.3905	8.66089
0.391	9.06372
0.3915	14.80408
0.392	10.67505
0.3925	7.65381
0.393	-2.41699
0.3935	-5.13611
0.394	-7.35168
0.3945	-1.2085
0.395	-4.73328
0.3955	8.96301
0.396	38.16833
0.3965	85.60181
0.397	127.89917
0.3975	137.46643
0.398	112.49084
0.3985	65.05737
0.399	25.37842
0.3995	-10.67505
0.4	-29.30603
0.4005	-34.44214
0.401	-30.91736
0.4015	-29.30603
0.402	-23.56567
0.4025	-14.60266
0.403	-18.42957
0.4035	-12.38708
0.404	-5.84106
0.4045	-5.43823
0.405	4.83398
0.4055	25.177
0.406	32.83081
0.4065	36.95984
0.407	46.92993
0.4075	43.50586
0.408	44.41223
0.4085	34.84497
0.409	28.50037
0.4095	16.51611
0.41	16.61682
0.4105	20.74585
0.411	26.3855
0.4115	29.50745
0.412	14.60266
0.4125	9.56726
0.413	-4.43115
0.4135	-14.70337
0.414	-16.01257
0.4145	-10.47363
0.415	-6.14319
0.4155	6.84814
0.416	16.11328
0.4165	22.05505
0.417	25.68054
0.4175	22.05505
0.418	14.70337
0.4185	14.30054
0.419	2.01416
0.4195	-4.63257
0.42	-3.12195
0.4205	-5.33752
0.421	-6.2439
0.4215	-6.3446
0.422	-5.13611
0.4225	-0.20142
0.423	-1.40991
0.4235	0.90637
0.424	1.51062
0.4245	8.56018
0.425	9.16443
0.4255	5.43823
0.426	8.7616
0.4265	1.3092
0.427	-5.43823
0.4275	-7.5531
0.428	-3.52478
0.4285	2.81982
0.429	14.60266
0.4295	17.01965
0.43	15.1062
0.4305	10.0708
0.431	10.77576
0.4315	12.48779
0.432	10.17151
0.4325	11.2793
0.433	7.35168
0.4335	2.11487
0.434	5.84106
0.4345	9.16443
0.435	11.48071
0.4355	19.53735
0.436	15.81116
0.4365	15.00549
0.437	8.45947
0.4375	4.22974
0.438	0.80566
0.4385	17.72461
0.439	49.14551
0.4395	55.89294
0.44	57.9071
0.4405	48.03772
0.441	42.39807
0.4415	21.65222
0.442	4.02832
0.4425	-19.03381
0.443	-32.32727
0.4435	-47.43347
0.444	-45.41931
0.4445	-38.87329
0.445	-32.22656
0.4455	-26.48621
0.446	-16.51611
0.4465	-16.01257
0.447	-15.1062
0.4475	-18.12744
0.448	-3.52478
0.4485	14.09912
0.449	31.52161
0.4495	30.31311
0.45	26.58691
0.4505	17.52319
0.451	1.91345
0.4515	-3.22266
0.452	9.26514
0.4525	18.02673
0.453	25.88196
0.4535	12.68921
0.454	6.74744
0.4545	-1.40991
0.455	-3.02124
0.4555	-4.22974
0.456	-10.0708
0.4565	-1.91345
0.457	-3.52478
0.4575	-6.54602
0.458	-13.797
0.4585	-15.30762
0.459	-17.6239
0.4595	-12.28638
0.46	-17.22107
0.4605	-9.97009
0.461	-18.22815
0.4615	-25.68054
0.462	-25.37842
0.4625	-17.52319
0.463	-10.17151
0.4635	-5.84106
0.464	3.22266
0.4645	-0.70496
0.465	3.32336
0.4655	6.14319
0.466	14.70337
0.4665	19.94019
0.467	15.30762
0.4675	15.30762
0.468	17.22107
0.4685	28.9032
0.469	40.98816
0.4695	41.29028
0.47	48.84338
0.4705	47.8363
0.471	48.54126
0.4715	41.79382
0.472	30.61523
0.4725	24.77417
0.473	21.95435
0.4735	23.26355
0.474	17.01965
0.4745	6.74744
0.475	0.80566
0.4755	18.93311
0.476	38.77258
0.4765	30.41382
0.477	16.41541
0.4775	-6.14319
0.478	-14.80408
0.4785	-30.11169
0.479	-54.0802
0.4795	-53.97949
0.48	-57.00073
0.4805	-58.81348
0.481	-50.05188
0.4815	-55.79224
0.482	-53.67737
0.4825	-35.54993
0.483	-16.61682
0.4835	-12.5885
0.484	-3.12195
0.4845	-0.10071
0.485	6.14319
0.4855	13.49487
0.486	26.18408
0.4865	28.39966
0.487	27.49329
0.4875	30.51453
0.488	43.10303
0.4885	39.07471
0.489	42.8009
0.4895	41.08887
0.49	37.16125
0.4905	42.59949
0.491	46.5271
0.4915	33.73718
0.492	25.37842
0.4925	17.52319
0.493	6.04248
0.4935	8.7616
0.494	10.97717
0.4945	9.97009
0.495	10.47363
0.4955	10.0708
0.496	3.62549
0.4965	13.797
0.497	20.54443
0.4975	31.32019
0.498	43.80798
0.4985	52.8717
0.499	52.56958
0.4995	46.12427
0.5	34.84497
0.5005	29.00391
0.501	5.0354
0.5015	-7.04956
0.502	-15.30762
0.5025	-24.37134
0.503	-32.12585
0.5035	-44.11011
0.504	-44.91577
0.5045	-37.16125
0.505	-36.95984
0.5055	-34.74426
0.506	-30.41382
0.5065	-31.72302
0.507	-37.16125
0.5075	-40.88745
0.508	-34.64355
0.5085	-29.91028
0.509	-30.11169
0.5095	-18.8324
0.51	-12.89062
0.5105	-17.32178
0.511	-13.19275
0.5115	-10.0708
0.512	-10.57434
0.5125	-8.15735
0.513	8.96301
0.5135	32.7301
0.514	45.41931
0.5145	48.84338
0.515	31.62231
0.5155	28.60107
0.516	33.23364
0.5165	30.41382
0.517	27.49329
0.5175	14.70337
0.518	3.22266
0.5185	0.10071
0.519	-11.68213
0.5195	-20.64514
0.52	-15.20691
0.5205	-5.94177
0.521	6.14319
0.5215	18.42957
0.522	17.42249
0.5225	27.19116
0.523	14.80408
0.5235	12.28638
0.524	7.85522
0.5245	11.98425
0.525	5.84106
0.5255	-5.0354
0.526	-29.10461
0.5265	-42.19666
0.527	-41.69312
0.5275	-44.11011
0.528	-41.89453
0.5285	-33.33435
0.529	-20.54443
0.5295	-18.32886
0.53	-14.70337
0.5305	-9.46655
0.531	3.8269
0.5315	13.59558
0.532	36.35559
0.5325	43.00232
0.533	40.2832
0.5335	38.26904
0.534	41.18958
0.5345	36.15417
0.535	39.57825
0.5355	40.48462
0.536	40.38391
0.5365	42.59949
0.537	38.26904
0.5375	37.36267
0.538	32.83081
0.5385	22.96143
0.539	17.22107
0.5395	13.09204
0.54	8.7616
0.5405	10.87646
0.541	11.78284
0.5415	3.22266
0.542	12.48779
0.5425	11.98425
0.543	5.23682
0.5435	6.3446
0.544	-0.30212
0.5445	6.84814
0.545	1.51062
0.5455	3.12195
0.546	4.02832
0.5465	-1.10779
0.547	6.04248
0.5475	12.28638
0.548	4.12903
0.5485	2.71912
0.549	15.71045
0.5495	19.43665
0.55	16.3147
0.5505	19.03381
0.551	22.45789
0.5515	19.73877
0.552	16.61682
0.5525	12.68921
0.553	1.71204
0.5535	3.32336
0.554	0.10071
0.5545	12.08496
0.555	10.97717
0.5555	14.80408
0.556	14.60266
0.5565	2.92053
0.557	-11.78284
0.5575	-11.2793
0.558	-11.07788
0.5585	-3.32336
0.559	-1.71204
0.5595	1.00708
0.56	1.3092
0.5605	19.33594
0.561	23.36426
0.5615	19.43665
0.562	13.797
0.5625	16.61682
0.563	13.39417
0.5635	8.8623
0.564	6.94885
0.5645	8.15735
0.565	8.45947
0.5655	16.3147
0.566	24.77417
0.5665	30.81665
0.567	22.55859
0.5675	10.67505
0.568	3.42407
0.5685	4.73328
0.569	6.04248
0.5695	1.40991
0.57	-6.3446
0.5705	-7.85522
0.571	-12.5885
0.5715	-16.71753
0.572	-20.94727
0.5725	-16.81824
0.573	-15.91187
0.5735	-19.53735
0.574	-23.66638
0.5745	-14.09912
0.575	-2.81982
0.5755	29.20532
0.576	55.99365
0.5765	68.78357
0.577	72.71118
0.5775	63.54675
0.578	49.14551
0.5785	38.06763
0.579	37.06055
0.5795	40.08179
0.58	34.54285
0.5805	21.24939
0.581	17.92603
0.5815	4.93469
0.582	-18.12744
0.5825	-48.54126
0.583	-63.14392
0.5835	-69.68994
0.584	-61.93542
0.5845	-7.15027
0.585	33.9386
0.5855	51.15967
0.586	53.27454
0.5865	33.63647
0.587	9.16443
0.5875	-12.89062
0.588	-35.54993
0.5885	-49.64905
0.589	-55.69153
0.5895	-62.03613
0.59	-56.79932
0.5905	-39.77966
0.591	-23.8678
0.5915	-1.2085
0.592	12.68921
0.5925	16.01257
0.593	10.27222
0.5935	-1.00708
0.594	-1.51062
0.5945	-1.40991
0.595	10.97717
0.5955	27.09045
0.596	30.91736
0.5965	32.42798
0.597	35.65063
0.5975	44.51294
0.598	42.90161
0.5985	38.26904
0.599	44.81506
0.5995	35.44922
0.6	24.06921
0.6005	10.27222
0.601	-7.04956
0.6015	-10.17151
0.602	0.60425
0.6025	17.22107
0.603	21.75293
0.6035	26.08337
0.604	21.65222
0.6045	12.38708
0.605	-3.52478
0.6055	-18.02673
0.606	-31.72302
0.6065	-37.86621
0.607	-41.08887
0.6075	-33.53577
0.608	-29.60815
0.6085	-28.9032
0.609	-30.71594
0.6095	-34.54285
0.61	-29.40674
0.6105	-23.76709
0.611	-13.19275
0.6115	-16.61682
0.612	-11.07788
0.6125	-5.33752
0.613	10.57434
0.6135	25.177
0.614	41.08887
0.6145	54.78516
0.615	60.02197
0.6155	57.9071
0.616	52.56958
0.6165	47.33276
0.617	37.86621
0.6175	27.49329
0.618	19.63806
0.6185	17.12036
0.619	21.55151
0.6195	24.27063
0.62	18.63098
0.6205	15.1062
0.621	8.15735
0.6215	2.61841
0.622	2.71912
0.6225	-1.10779
0.623	0.20142
0.6235	-9.66797
0.624	-24.97559
0.6245	-27.49329
0.625	-34.44214
0.6255	-35.14709
0.626	-44.51294
0.6265	-46.32568
0.627	-49.85046
0.6275	-61.73401
0.628	-60.02197
0.6285	-65.25879
0.629	-54.0802
0.6295	-49.14551
0.63	-39.17542
0.6305	-33.23364
0.631	-23.16284
0.6315	-17.52319
0.632	-5.43823
0.6325	10.37292
0.633	26.68762
0.6335	40.38391
0.634	62.74109
0.6345	65.56091
0.635	63.24463
0.6355	56.90002
0.636	64.151
0.6365	73.71826
0.637	69.89136
0.6375	61.12976
0.638	47.43347
0.6385	35.44922
0.639	23.06213
0.6395	11.2793
0.64	0.80566
0.6405	-6.84814
0.641	-1.3092
0.6415	5.13611
0.642	15.1062
0.6425	14.80408
0.643	11.07788
0.6435	6.84814
0.644	5.63965
0.6445	-0.20142
0.645	1.2085
0.6455	1.10779
0.646	1.3092
0.6465	-2.71912
0.647	-5.74036
0.6475	-0.20142
0.648	5.33752
0.6485	15.81116
0.649	19.03381
0.6495	19.83948
0.65	27.6947
0.6505	27.6947
0.651	26.98975
0.6515	24.47205
0.652	23.06213
0.6525	20.64514
0.653	22.15576
0.6535	20.84656
0.654	26.78833
0.6545	27.19116
0.655	26.78833
0.6555	23.96851
0.656	22.55859
0.6565	13.69629
0.657	9.06372
0.6575	0.80566
0.658	3.42407
0.6585	-1.00708
0.659	-7.04956
0.6595	-2.11487
0.66	7.35168
0.6605	24.67346
0.661	27.49329
0.6615	20.84656
0.662	12.18567
0.6625	5.13611
0.663	-5.53894
0.6635	-8.25806
0.664	-9.97009
0.6645	-17.22107
0.665	-18.53027
0.6655	-30.71594
0.666	-37.36267
0.6665	-43.70728
0.667	-41.59241
0.6675	-43.70728
0.668	-45.2179
0.6685	-44.0094
0.669	-36.75842
0.6695	-31.01807
0.67	-24.97559
0.6705	-25.78125
0.671	-16.3147
0.6715	-14.90479
0.672	-3.02124
0.6725	1.2085
0.673	8.15735
0.6735	22.25647
0.674	45.11719
0.6745	52.16675
0.675	48.13843
0.6755	35.54993
0.676	21.24939
0.6765	3.12195
0.677	-22.45789
0.6775	-46.32568
0.678	-56.79932
0.6785	-67.27295
0.679	-64.55383
0.6795	-59.61914
0.68	-45.72144
0.6805	-28.60107
0.681	-11.38
0.6815	-6.2439
0.682	8.15735
0.6825	18.42957
0.683	53.27454
0.6835	100.6073
0.684	125.58289
0.6845	130.11475
0.685	123.87085
0.6855	104.4342
0.686	71.20056
0.6865	27.79541
0.687	3.12195
0.6875	-23.56567
0.688	-40.08179
0.6885	-53.87878
0.689	-63.34534
0.6895	-54.68445
0.69	-54.48303
0.6905	-54.48303
0.691	-40.98816
0.6915	-39.17542
0.692	-35.65063
0.6925	-26.48621
0.693	-20.44373
0.6935	-22.96143
0.694	-12.78992
0.6945	3.22266
0.695	16.41541
0.6955	29.70886
0.696	35.65063
0.6965	39.57825
0.697	43.90869
0.6975	44.21082
0.698	41.18958
0.6985	39.57825
0.699	35.44922
0.6995	27.79541
0.7	15.81116
0.7005	12.48779
0.701	13.09204
0.7015	10.0708
0.702	12.08496
0.7025	15.30762
0.703	15.30762
0.7035	18.73169
0.704	15.30762
0.7045	14.19983
0.705	21.14868
0.7055	25.27771
0.706	25.88196
0.7065	20.04089
0.707	29.30603
0.7075	31.92444
0.708	29.91028
0.7085	25.47913
0.709	20.44373
0.7095	15.81116
0.71	16.91895
0.7105	12.68921
0.711	18.53027
0.7115	14.60266
0.712	11.2793
0.7125	11.98425
0.713	8.25806
0.7135	12.78992
0.714	10.0708
0.7145	4.83398
0.715	2.71912
0.7155	6.74744
0.716	8.56018
0.7165	7.85522
0.717	2.61841
0.7175	12.38708
0.718	26.18408
0.7185	30.01099
0.719	33.23364
0.7195	28.50037
0.72	18.93311
0.7205	10.97717
0.721	3.92761
0.7215	-6.84814
0.722	-6.74744
0.7225	-9.46655
0.723	-3.12195
0.7235	3.02124
0.724	0.50354
0.7245	-1.00708
0.725	-3.12195
0.7255	-5.74036
0.726	-11.17859
0.7265	-22.25647
0.727	-29.91028
0.7275	-36.25488
0.728	-42.7002
0.7285	-42.09595
0.729	-42.29736
0.7295	-44.81506
0.73	-27.59399
0.7305	-24.06921
0.731	-14.40125
0.7315	-6.2439
0.732	-1.81274
0.7325	-2.81982
0.733	0.60425
0.7335	26.18408
0.734	55.99365
0.7345	68.68286
0.735	76.63879
0.7355	65.25879
0.736	68.68286
0.7365	60.3241
0.737	47.63489
0.7375	31.92444
0.738	8.05664
0.7385	-17.82532
0.739	-20.44373
0.7395	-40.88745
0.74	-54.38232
0.7405	-59.92126
0.741	-55.79224
0.7415	-52.8717
0.742	-37.66479
0.7425	-28.9032
0.743	-14.19983
0.7435	-2.71912
0.744	2.21558
0.7445	1.2085
0.745	-4.02832
0.7455	-5.53894
0.746	9.46655
0.7465	18.73169
0.747	27.89612
0.7475	38.87329
0.748	40.58533
0.7485	45.92285
0.749	42.59949
0.7495	33.83789
0.75	19.23523
0.7505	14.30054
0.751	10.77576
0.7515	6.04248
0.752	6.3446
0.7525	4.93469
0.753	8.8623
0.7535	2.61841
0.754	4.12903
0.7545	6.84814
0.755	5.43823
0.7555	10.47363
0.756	23.36426
0.7565	39.67896
0.757	26.3855
0.7575	8.25806
0.758	-10.97717
0.7585	-15.00549
0.759	-16.91895
0.7595	-20.64514
0.76	-33.63647
0.7605	-39.88037
0.761	-32.93152
0.7615	-35.54993
0.762	-30.2124
0.7625	-29.30603
0.763	-21.85364
0.7635	-14.40125
0.764	-9.36584
0.7645	-3.7262
0.765	-0.20142
0.7655	4.12903
0.766	14.40125
0.7665	22.96143
0.767	31.62231
0.7675	34.24072
0.768	30.51453
0.7685	23.8678
0.769	20.24231
0.7695	16.11328
0.77	15.50903
0.7705	17.12036
0.771	13.19275
0.7715	16.81824
0.772	-0.50354
0.7725	-14.70337
0.773	-17.32178
0.7735	-19.03381
0.774	-23.66638
0.7745	-30.91736
0.775	-27.99683
0.7755	-23.96851
0.776	-13.99841
0.7765	7.65381
0.777	18.32886
0.7775	22.76001
0.778	26.58691
0.7785	36.95984
0.779	36.55701
0.7795	21.14868
0.78	8.66089
0.7805	8.05664
0.781	7.45239
0.7815	8.56018
0.782	-3.62549
0.7825	-12.18567
0.783	-4.93469
0.7835	13.49487
0.784	17.6239
0.7845	32.02515
0.785	46.5271
0.7855	38.36975
0.786	30.2124
0.7865	24.87488
0.787	23.36426
0.7875	37.86621
0.788	30.41382
0.7885	30.2124
0.789	25.88196
0.7895	49.85046
0.79	87.11243
0.7905	96.17615
0.791	88.72375
0.7915	75.53101
0.792	60.52551
0.7925	35.75134
0.793	17.32178
0.7935	5.63965
0.794	-4.73328
0.7945	-9.66797
0.795	-12.89062
0.7955	-17.12036
0.796	-26.78833
0.7965	-16.61682
0.797	1.61133
0.7975	8.8623
0.798	16.81824
0.7985	8.96301
0.799	5.63965
0.7995	-7.95593
0.8	-18.22815
0.8005	-25.47913
0.801	-38.67188
0.8015	-34.34143
0.802	-19.23523
0.8025	-8.7616
0.803	8.66089
0.8035	24.16992
0.804	34.84497
0.8045	43.50586
0.805	37.26196
0.8055	31.21948
0.806	19.33594
0.8065	6.04248
0.807	-2.71912
0.8075	-12.78992
0.808	-3.62549
0.8085	-1.3092
0.809	6.2439
0.8095	17.01965
0.81	23.06213
0.8105	17.42249
0.811	6.04248
0.8115	-14.60266
0.812	-30.11169
0.8125	-32.62939
0.813	-32.12585
0.8135	-31.52161
0.814	-27.09045
0.8145	-23.96851
0.815	-18.73169
0.8155	-10.17151
0.816	8.7616
0.8165	6.64673
0.817	6.74744
0.8175	2.92053
0.818	0.50354
0.8185	3.12195
0.819	1.2085
0.8195	4.53186
0.82	0.20142
0.8205	4.63257
0.821	8.96301
0.8215	19.83948
0.822	18.8324
0.8225	18.8324
0.823	26.88904
0.8235	34.34143
0.824	35.2478
0.8245	42.7002
0.825	32.93152
0.8255	24.77417
0.826	23.96851
0.8265	18.22815
0.827	22.45789
0.8275	14.09912
0.828	14.19983
0.8285	28.70178
0.829	20.84656
0.8295	16.71753
0.83	4.63257
0.8305	4.73328
0.831	-11.17859
0.8315	-34.14001
0.832	-54.0802
0.8325	-68.78357
0.833	-62.53967
0.8335	-51.15967
0.834	-45.52002
0.8345	-36.85913
0.835	-27.19116
0.8355	-9.66797
0.836	17.52319
0.8365	42.09595
0.837	45.52002
0.8375	40.98816
0.838	39.67896
0.8385	36.15417
0.839	25.57983
0.8395	14.90479
0.84	11.58142
0.8405	5.33752
0.841	6.64673
0.8415	2.61841
0.842	-8.35876
0.8425	-11.88354
0.843	-7.04956
0.8435	-1.2085
0.844	7.65381
0.8445	10.27222
0.845	7.35168
0.8455	15.91187
0.846	23.46497
0.8465	28.50037
0.847	28.70178
0.8475	34.24072
0.848	32.12585
0.8485	26.28479
0.849	17.6239
0.8495	10.0708
0.85	6.74744
0.8505	14.09912
0.851	18.12744
0.8515	21.95435
0.852	22.76001
0.8525	18.73169
0.853	12.68921
0.8535	5.13611
0.854	-0.30212
0.8545	-20.1416
0.855	-28.09753
0.8555	-35.14709
0.856	-45.3186
0.8565	-49.74976
0.857	-55.2887
0.8575	-60.92834
0.858	-78.85437
0.8585	-83.48694
0.859	-73.11401
0.8595	-69.28711
0.86	-61.33118
0.8605	-48.13843
0.861	-40.48462
0.8615	-20.34302
0.862	-9.97009
0.8625	12.68921
0.863	20.1416
0.8635	33.53577
0.864	51.66321
0.8645	74.2218
0.865	97.28394
0.8655	106.9519
0.866	98.59314
0.8665	90.43579
0.867	80.16357
0.8675	64.65454
0.868	39.88037
0.8685	17.32178
0.869	5.94177
0.8695	1.71204
0.87	-8.25806
0.8705	-13.39417
0.871	-28.70178
0.8715	-21.24939
0.872	-28.9032
0.8725	-18.12744
0.873	-9.46655
0.8735	4.33044
0.874	17.92603
0.8745	17.6239
0.875	23.96851
0.8755	39.27612
0.876	43.30444
0.8765	39.17542
0.877	43.70728
0.8775	57.8064
0.878	61.43188
0.8785	48.44055
0.879	32.02515
0.8795	35.14709
0.88	38.87329
0.8805	27.59399
0.881	13.797
0.8815	-4.43115
0.882	-18.63098
0.8825	-16.61682
0.883	-23.56567
0.8835	-25.37842
0.884	-20.04089
0.8845	-12.68921
0.885	-4.02832
0.8855	-2.11487
0.886	-3.92761
0.8865	-11.38
0.887	-10.0708
0.8875	-0.80566
0.888	5.33752
0.8885	3.62549
0.889	9.56726
0.8895	19.73877
0.89	15.30762
0.8905	8.7616
0.891	12.89062
0.8915	14.80408
0.892	7.75452
0.8925	8.05664
0.893	3.12195
0.8935	2.81982
0.894	-4.33044
0.8945	-16.11328
0.895	-20.84656
0.8955	-22.05505
0.896	-22.6593
0.8965	-17.42249
0.897	-14.09912
0.8975	-8.8623
0.898	-5.63965
0.8985	-6.04248
0.899	-2.71912
0.8995	4.63257
0.9	7.5531
0.9005	10.47363
0.901	9.76868
0.9015	16.61682
0.902	31.62231
0.9025	50.55542
0.903	60.62622
0.9035	64.35242
0.904	57.40356
0.9045	42.59949
0.905	21.65222
0.9055	0.60425
0.906	-5.94177
0.9065	-16.71753
0.907	-24.27063
0.9075	-26.3855
0.908	-24.16992
0.9085	-21.95435
0.909	-14.80408
0.9095	-14.80408
0.91	-15.30762
0.9105	-11.17859
0.911	-13.69629
0.9115	-9.66797
0.912	-8.66089
0.9125	-9.97009
0.913	-11.07788
0.9135	-3.02124
0.914	-1.81274
0.9145	8.7616
0.915	11.2793
0.9155	9.56726
0.916	10.97717
0.9165	2.41699
0.917	1.71204
0.9175	1.71204
0.918	9.76868
0.9185	11.17859
0.919	19.73877
0.9195	23.56567
0.92	21.45081
0.9205	15.00549
0.921	17.32178
0.9215	26.3855
0.922	27.79541
0.9225	30.81665
0.923	16.21399
0.9235	11.38
0.924	4.73328
0.9245	2.71912
0.925	1.71204
0.9255	-8.05664
0.926	-23.06213
0.9265	-29.30603
0.927	-32.42798
0.9275	-38.67188
0.928	-44.51294
0.9285	-37.66479
0.929	-34.03931
0.9295	-25.68054
0.93	-21.65222
0.9305	-22.55859
0.931	-19.03381
0.9315	-13.99841
0.932	-2.21558
0.9325	-2.31628
0.933	-0.50354
0.9335	4.22974
0.934	14.30054
0.9345	9.97009
0.935	0.30212
0.9355	-4.12903
0.936	1.51062
0.9365	-5.84106
0.937	-12.48779
0.9375	-21.55151
0.938	-33.33435
0.9385	-50.05188
0.939	-61.83472
0.9395	-60.3241
0.94	-37.7655
0.9405	-11.48071
0.941	-3.12195
0.9415	5.53894
0.942	4.83398
0.9425	8.15735
0.943	10.27222
0.9435	3.7262
0.944	6.14319
0.9445	13.29346
0.945	22.25647
0.9455	27.39258
0.946	47.63489
0.9465	60.02197
0.947	69.38782
0.9475	63.84888
0.948	54.68445
0.9485	42.49878
0.949	43.00232
0.9495	36.85913
0.95	26.18408
0.9505	22.55859
0.951	23.06213
0.9515	32.32727
0.952	35.75134
0.9525	47.93701
0.953	51.66321
0.9535	51.76392
0.954	44.61365
0.9545	34.14001
0.955	21.95435
0.9555	3.62549
0.956	-1.51062
0.9565	-10.87646
0.957	-19.53735
0.9575	-24.67346
0.958	-27.09045
0.9585	-28.39966
0.959	-30.41382
0.9595	-38.974
0.96	-33.53577
0.9605	-27.09045
0.961	-23.96851
0.9615	-11.58142
0.962	-3.12195
0.9625	-0.30212
0.963	3.52478
0.9635	7.04956
0.964	14.09912
0.9645	15.00549
0.965	18.8324
0.9655	26.18408
0.966	29.20532
0.9665	25.37842
0.967	28.19824
0.9675	30.31311
0.968	35.04639
0.9685	40.38391
0.969	34.44214
0.9695	25.47913
0.97	21.45081
0.9705	25.57983
0.971	25.177
0.9715	29.20532
0.972	35.34851
0.9725	33.53577
0.973	29.00391
0.9735	26.78833
0.974	21.3501
0.9745	20.34302
0.975	19.03381
0.9755	18.8324
0.976	16.61682
0.9765	14.09912
0.977	20.74585
0.9775	12.99133
0.978	12.68921
0.9785	21.85364
0.979	24.16992
0.9795	28.19824
0.98	24.16992
0.9805	17.01965
0.981	9.97009
0.9815	6.2439
0.982	4.22974
0.9825	-9.46655
0.983	-12.78992
0.9835	-1.61133
0.984	7.95593
0.9845	15.91187
0.985	12.78992
0.9855	7.75452
0.986	24.16992
0.9865	43.70728
0.987	54.0802
0.9875	42.09595
0.988	30.31311
0.9885	18.42957
0.989	5.33752
0.9895	-11.17859
0.99	-20.44373
0.9905	-34.44214
0.991	-60.92834
0.9915	-73.41614
0.992	-79.76074
0.9925	-79.05579
0.993	-75.83313
0.9935	-64.25171
0.994	-57.8064
0.9945	-46.5271
0.995	-35.65063
0.9955	-14.30054
0.996	-4.73328
0.9965	3.22266
0.997	10.17151
0.9975	16.3147
0.998	21.85364
0.9985	25.37842
0.999	24.47205
0.9995	31.11877
1	51.15967
1.0005	55.69153
1.001	49.64905
1.0015	46.5271
1.002	39.67896
1.0025	27.99683
1.003	15.71045
1.0035	2.11487
1.004	-4.22974
1.0045	-11.58142
1.005	-16.21399
1.0055	-21.24939
1.006	-25.78125
1.0065	-29.80957
1.007	-19.73877
1.0075	-16.71753
1.008	-8.8623
1.0085	-4.73328
1.009	-1.40991
1.0095	-1.71204
1.01	6.64673
1.0105	11.07788
1.011	9.56726
1.0115	9.66797
1.012	9.06372
1.0125	-7.95593
1.013	-7.85522
1.0135	-15.91187
1.014	-7.45239
1.0145	-6.94885
1.015	-12.18567
1.0155	-12.48779
1.016	-14.90479
1.0165	-7.75452
1.017	1.3092
1.0175	2.92053
1.018	5.84106
1.0185	7.85522
1.019	29.10461
1.0195	34.84497
1.02	36.55701
1.0205	39.07471
1.021	32.52869
1.0215	8.56018
1.022	-4.73328
1.0225	-21.04797
1.023	-30.51453
1.0235	-36.35559
1.024	-44.81506
1.0245	-37.26196
1.025	-25.88196
1.0255	-19.03381
1.026	-14.40125
1.0265	-9.66797
1.027	-14.19983
1.0275	-5.53894
1.028	6.2439
1.0285	5.74036
1.029	9.56726
1.0295	13.59558
1.03	20.84656
1.0305	33.03223
1.031	36.25488
1.0315	32.22656
1.032	32.22656
1.0325	25.68054
1.033	41.4917
1.0335	47.43347
1.034	51.46179
1.0345	60.92834
1.035	53.67737
1.0355	47.13135
1.036	32.12585
1.0365	34.74426
1.037	28.50037
1.0375	22.15576
1.038	39.67896
1.0385	50.15259
1.039	48.23914
1.0395	42.7002
1.04	27.39258
1.0405	14.30054
1.041	11.2793
1.0415	6.94885
1.042	-1.10779
1.0425	-6.84814
1.043	-12.48779
1.0435	-12.68921
1.044	-20.64514
1.0445	-24.47205
1.045	-20.44373
1.0455	-16.71753
1.046	-11.68213
1.0465	1.61133
1.047	4.63257
1.0475	11.88354
1.048	11.68213
1.0485	12.08496
1.049	12.38708
1.0495	8.25806
1.05	1.40991
1.0505	-4.73328
1.051	-22.15576
1.0515	-34.14001
1.052	-47.7356
1.0525	-43.90869
1.053	-40.78674
1.0535	-36.65771
1.054	-38.06763
1.0545	-34.24072
1.055	-25.68054
1.0555	-9.97009
1.056	6.3446
1.0565	19.73877
1.057	23.36426
1.0575	26.3855
1.058	31.11877
1.0585	28.29895
1.059	32.42798
1.0595	42.39807
1.06	52.26746
1.0605	49.95117
1.061	44.31152
1.0615	42.49878
1.062	41.4917
1.0625	28.39966
1.063	25.78125
1.0635	15.40833
1.064	5.23682
1.0645	-4.02832
1.065	-3.7262
1.0655	-8.45947
1.066	-10.17151
1.0665	-20.04089
1.067	-22.25647
1.0675	-33.83789
1.068	-38.06763
1.0685	-39.88037
1.069	-32.02515
1.0695	-39.07471
1.07	-31.82373
1.0705	-26.78833
1.071	-25.37842
1.0715	-11.78284
1.072	-1.51062
1.0725	12.28638
1.073	12.99133
1.0735	25.177
1.074	28.9032
1.0745	36.35559
1.075	33.03223
1.0755	27.6947
1.076	21.24939
1.0765	12.5885
1.077	9.16443
1.0775	12.18567
1.078	11.98425
1.0785	4.43115
1.079	4.73328
1.0795	3.12195
1.08	12.78992
1.0805	21.14868
1.081	18.63098
1.0815	22.76001
1.082	11.48071
1.0825	6.04248
1.083	23.96851
1.0835	31.21948
1.084	38.87329
1.0845	40.88745
1.085	37.56409
1.0855	29.70886
1.086	36.05347
1.0865	52.46887
1.087	48.54126
1.0875	16.91895
1.088	-5.43823
1.0885	-19.83948
1.089	-31.21948
1.0895	-35.2478
1.09	-40.38391
1.0905	-45.72144
1.091	-44.51294
1.0915	-49.24622
1.092	-46.02356
1.0925	-49.54834
1.093	-41.69312
1.0935	-33.63647
1.094	-29.50745
1.0945	-20.94727
1.095	-11.38
1.0955	-5.33752
1.096	13.89771
1.0965	26.78833
1.097	23.26355
1.0975	21.75293
1.098	17.22107
1.0985	8.66089
1.099	9.36584
1.0995	8.66089
1.1	1.40991
1.1005	-0.20142
1.101	-8.45947
1.1015	-10.97717
1.102	1.40991
1.1025	1.51062
1.103	5.23682
1.1035	-3.92761
1.104	-10.77576
1.1045	-14.40125
1.105	-4.93469
1.1055	-0.60425
1.106	-4.73328
1.1065	6.54602
1.107	3.7262
1.1075	7.65381
1.108	9.66797
1.1085	14.90479
1.109	16.11328
1.1095	23.36426
1.11	29.10461
1.1105	28.29895
1.111	29.20532
1.1115	22.6593
1.112	23.56567
1.1125	14.60266
1.113	13.29346
1.1135	18.73169
1.114	19.53735
1.1145	17.42249
1.115	21.04797
1.1155	38.67188
1.116	50.05188
1.1165	42.09595
1.117	35.14709
1.1175	20.44373
1.118	16.71753
1.1185	18.63098
1.119	23.36426
1.1195	31.92444
1.12	40.68604
1.1205	37.96692
1.121	47.23206
1.1215	52.8717
1.122	57.50427
1.1225	49.54834
1.123	42.09595
1.1235	20.34302
1.124	1.00708
1.1245	-10.97717
1.125	-24.16992
1.1255	-30.01099
1.126	-28.29895
1.1265	-34.54285
1.127	-30.51453
1.1275	-29.00391
1.128	-23.36426
1.1285	-19.94019
1.129	-8.15735
1.1295	11.2793
1.13	15.91187
1.1305	17.72461
1.131	0.30212
1.1315	-7.15027
1.132	-21.55151
1.1325	-30.81665
1.133	-22.96143
1.1335	-13.99841
1.134	-10.77576
1.1345	-9.66797
1.135	-6.44531
1.1355	-6.94885
1.136	4.22974
1.1365	10.87646
1.137	17.01965
1.1375	21.55151
1.138	22.25647
1.1385	14.70337
1.139	0.70496
1.1395	-5.33752
1.14	0.20142
1.1405	4.63257
1.141	19.63806
1.1415	15.91187
1.142	0.30212
1.1425	6.84814
1.143	3.62549
1.1435	5.53894
1.144	6.04248
1.1445	2.11487
1.145	6.04248
1.1455	-2.01416
1.146	0
1.1465	12.5885
1.147	18.63098
1.1475	16.01257
1.148	13.09204
1.1485	13.09204
1.149	3.12195
1.1495	-1.61133
1.15	-9.26514
1.1505	-9.66797
1.151	-5.94177
1.1515	-9.16443
1.152	-5.53894
1.1525	-2.71912
1.153	0.70496
1.1535	-8.56018
1.154	-9.36584
1.1545	-21.45081
1.155	-39.47754
1.1555	-32.83081
1.156	-18.42957
1.1565	-2.61841
1.157	5.53894
1.1575	12.38708
1.158	-0.20142
1.1585	-11.48071
1.159	-7.85522
1.1595	-16.81824
1.16	-16.21399
1.1605	-14.40125
1.161	2.01416
1.1615	16.21399
1.162	28.9032
1.1625	31.92444
1.163	40.58533
1.1635	37.96692
1.164	36.85913
1.1645	33.33435
1.165	31.4209
1.1655	21.24939
1.166	22.25647
1.1665	27.79541
1.167	20.04089
1.1675	13.29346
1.168	7.15027
1.1685	5.74036
1.169	13.39417
1.1695	22.15576
1.17	15.60974
1.1705	1.91345
1.171	2.81982
1.1715	-3.8269
1.172	-6.84814
1.1725	-10.17151
1.173	-24.77417
1.1735	-43.30444
1.174	-48.03772
1.1745	-57.10144
1.175	-52.06604
1.1755	-49.74976
1.176	-48.13843
1.1765	-41.89453
1.177	-28.50037
1.1775	-21.45081
1.178	-4.73328
1.1785	10.57434
1.179	29.70886
1.1795	49.0448
1.18	61.73401
1.1805	62.9425
1.181	77.64587
1.1815	103.82996
1.182	112.18872
1.1825	105.34058
1.183	106.54907
1.1835	82.88269
1.184	57.9071
1.1845	32.62939
1.185	17.52319
1.1855	3.8269
1.186	-11.48071
1.1865	-20.54443
1.187	-26.78833
1.1875	-39.17542
1.188	-36.25488
1.1885	-32.93152
1.189	-27.09045
1.1895	-12.38708
1.19	4.02832
1.1905	14.19983
1.191	36.4563
1.1915	49.0448
1.192	48.94409
1.1925	32.7301
1.193	17.6239
1.1935	8.25806
1.194	-0.90637
1.1945	7.85522
1.195	7.85522
1.1955	4.22974
1.196	-2.71912
1.1965	-15.71045
1.197	-17.42249
1.1975	-22.05505
1.198	-28.80249
1.1985	-29.30603
1.199	-19.53735
1.1995	-4.02832
1.2	-3.62549
1.2005	11.48071
1.201	21.55151
1.2015	28.09753
1.202	28.70178
1.2025	14.09912
1.203	2.61841
1.2035	-6.54602
1.204	-10.57434
1.2045	9.16443
1.205	20.24231
1.2055	20.34302
1.206	21.24939
1.2065	12.89062
1.207	0.10071
1.2075	-11.17859
1.208	-15.20691
1.2085	-29.00391
1.209	-43.00232
1.2095	-46.42639
1.21	-43.50586
1.2105	-34.03931
1.211	-20.34302
1.2115	-14.19983
1.212	-6.74744
1.2125	-5.84106
1.213	-7.85522
1.2135	-10.0708
1.214	-3.32336
1.2145	4.33044
1.215	21.85364
1.2155	29.20532
1.216	33.9386
1.2165	34.64355
1.217	34.34143
1.2175	25.88196
1.218	22.55859
1.2185	27.6947
1.219	27.99683
1.2195	34.34143
1.22	37.56409
1.2205	26.78833
1.221	20.64514
1.2215	18.8324
1.222	16.3147
1.2225	12.5885
1.223	14.80408
1.2235	8.15735
1.224	11.88354
1.2245	2.31628
1.225	2.01416
1.2255	-0.70496
1.226	6.94885
1.2265	-1.51062
1.227	0.60425
1.2275	-6.14319
1.228	-2.11487
1.2285	-1.91345
1.229	5.84106
1.2295	8.45947
1.23	1.51062
1.2305	6.94885
1.231	14.80408
1.2315	15.20691
1.232	16.01257
1.2325	15.50903
1.233	18.73169
1.2335	28.09753
1.234	38.974
1.2345	35.65063
1.235	26.68762
1.2355	16.71753
1.236	-1.81274
1.2365	-8.25806
1.237	-15.1062
1.2375	-16.3147
1.238	-13.99841
1.2385	-10.17151
1.239	-13.797
1.2395	-12.18567
1.24	-12.38708
1.2405	-8.25806
1.241	-13.69629
1.2415	-10.37292
1.242	-11.88354
1.2425	-26.88904
1.243	-46.32568
1.2435	-60.72693
1.244	-41.08887
1.2445	-27.49329
1.245	-20.34302
1.2455	-20.74585
1.246	-6.74744
1.2465	-1.10779
1.247	14.19983
1.2475	23.26355
1.248	15.50903
1.2485	13.19275
1.249	19.83948
1.2495	21.95435
1.25	25.88196
1.2505	17.92603
1.251	27.59399
1.2515	27.99683
1.252	29.70886
1.2525	33.23364
1.253	30.2124
1.2535	31.92444
1.254	44.71436
1.2545	41.18958
1.255	38.57117
1.2555	32.02515
1.256	25.37842
1.2565	14.70337
1.257	11.58142
1.2575	10.0708
1.258	5.53894
1.2585	-1.51062
1.259	-7.95593
1.2595	-7.25098
1.26	-19.53735
1.2605	-28.70178
1.261	-22.45789
1.2615	-7.15027
1.262	-1.40991
1.2625	-4.22974
1.263	-2.31628
1.2635	7.75452
1.264	13.09204
1.2645	10.0708
1.265	10.67505
1.2655	22.86072
1.266	54.38232
1.2665	88.22021
1.267	90.73792
1.2675	82.47986
1.268	70.69702
1.2685	50.45471
1.269	23.36426
1.2695	8.15735
1.27	-12.99133
1.2705	-24.27063
1.271	-23.06213
1.2715	-20.1416
1.272	-26.88904
1.2725	-35.04639
1.273	-31.11877
1.2735	-26.88904
1.274	-26.3855
1.2745	-26.48621
1.275	-25.177
1.2755	-22.76001
1.276	-21.85364
1.2765	-20.94727
1.277	-22.76001
1.2775	-8.35876
1.278	-0.40283
1.2785	14.50195
1.279	19.63806
1.2795	22.6593
1.28	15.50903
1.2805	17.42249
1.281	19.03381
1.2815	25.07629
1.282	20.74585
1.2825	18.73169
1.283	14.09912
1.2835	25.88196
1.284	27.09045
1.2845	28.09753
1.285	23.66638
1.2855	16.81824
1.286	5.43823
1.2865	-7.95593
1.287	-13.19275
1.2875	-14.40125
1.288	-7.25098
1.2885	5.13611
1.289	-4.12903
1.2895	-0.60425
1.29	5.74036
1.2905	3.92761
1.291	1.40991
1.2915	6.94885
1.292	1.40991
1.2925	3.7262
1.293	-13.39417
1.2935	-23.66638
1.294	-29.40674
1.2945	-27.19116
1.295	-35.44922
1.2955	-26.3855
1.296	-27.39258
1.2965	-27.89612
1.297	-23.76709
1.2975	-23.8678
1.298	-22.96143
1.2985	-21.85364
1.299	-21.95435
1.2995	-23.16284
1.3	-14.09912
1.3005	-0.50354
1.301	17.01965
1.3015	26.18408
1.302	22.45789
1.3025	18.8324
1.303	17.92603
1.3035	20.24231
1.304	10.87646
1.3045	6.64673
1.305	6.14319
1.3055	10.67505
1.306	11.17859
1.3065	16.21399
1.307	18.93311
1.3075	16.3147
1.308	18.53027
1.3085	20.74585
1.309	26.58691
1.3095	25.57983
1.31	21.95435
1.3105	17.01965
1.311	13.99841
1.3115	11.48071
1.312	1.71204
1.3125	-11.98425
1.313	-17.32178
1.3135	-9.46655
1.314	-3.62549
1.3145	-2.71912
1.315	-2.5177
1.3155	5.63965
1.316	9.76868
1.3165	8.7616
1.317	10.27222
1.3175	9.46655
1.318	8.7616
1.3185	-2.5177
1.319	-10.87646
1.3195	-13.49487
1.32	-8.7616
1.3205	-3.32336
1.321	3.12195
1.3215	9.16443
1.322	17.22107
1.3225	22.35718
1.323	32.7301
1.3235	38.974
1.324	37.66479
1.3245	33.73718
1.325	34.44214
1.3255	33.43506
1.326	17.32178
1.3265	20.34302
1.327	25.88196
1.3275	27.79541
1.328	30.91736
1.3285	20.34302
1.329	18.32886
1.3295	16.11328
1.33	17.12036
1.3305	13.19275
1.331	11.07788
1.3315	9.66797
1.332	26.58691
1.3325	49.74976
1.333	55.18799
1.3335	55.2887
1.334	41.18958
1.3345	40.08179
1.335	23.8678
1.3355	13.797
1.336	-5.13611
1.3365	-21.45081
1.337	-43.50586
1.3375	-54.98657
1.338	-58.51135
1.3385	-56.29578
1.339	-52.97241
1.3395	-40.38391
1.34	-28.19824
1.3405	-6.54602
1.341	7.5531
1.3415	11.17859
1.342	15.91187
1.3425	23.76709
1.343	11.88354
1.3435	4.93469
1.344	-8.15735
1.3445	-25.88196
1.345	-35.2478
1.3455	-41.4917
1.346	-29.10461
1.3465	-10.17151
1.347	5.84106
1.3475	19.73877
1.348	18.63098
1.3485	22.76001
1.349	15.91187
1.3495	15.81116
1.35	19.83948
1.3505	12.18567
1.351	4.43115
1.3515	-1.2085
1.352	4.33044
1.3525	15.60974
1.353	28.29895
1.3535	30.61523
1.354	30.71594
1.3545	26.68762
1.355	25.37842
1.3555	25.47913
1.356	24.37134
1.3565	39.67896
1.357	36.35559
1.3575	23.36426
1.358	12.28638
1.3585	9.76868
1.359	-1.00708
1.3595	5.0354
1.36	7.25098
1.3605	10.77576
1.361	5.43823
1.3615	10.27222
1.362	8.96301
1.3625	10.0708
1.363	8.96301
1.3635	8.45947
1.364	7.75452
1.3645	7.04956
1.365	19.33594
1.3655	21.75293
1.366	15.00549
1.3665	7.65381
1.367	1.71204
1.3675	24.57275
1.368	40.08179
1.3685	46.12427
1.369	39.37683
1.3695	19.03381
1.37	4.73328
1.3705	-15.30762
1.371	-27.09045
1.3715	-31.01807
1.372	-39.37683
1.3725	-39.07471
1.373	-41.79382
1.3735	-39.47754
1.374	-44.0094
1.3745	-53.17383
1.375	-58.71277
1.3755	-54.68445
1.376	-37.16125
1.3765	-13.89771
1.377	9.16443
1.3775	25.98267
1.378	41.89453
1.3785	44.11011
1.379	38.974
1.3795	35.04639
1.38	34.54285
1.3805	33.43506
1.381	32.7301
1.3815	27.39258
1.382	30.11169
1.3825	43.60657
1.383	50.85754
1.3835	52.8717
1.384	52.26746
1.3845	44.51294
1.385	34.84497
1.3855	20.24231
1.386	6.04248
1.3865	0.20142
1.387	4.63257
1.3875	-6.14319
1.388	-14.70337
1.3885	-24.57275
1.389	-27.49329
1.3895	-32.62939
1.39	-32.32727
1.3905	-28.29895
1.391	-30.81665
1.3915	-24.06921
1.392	-23.06213
1.3925	-14.60266
1.393	-9.66797
1.3935	-8.66089
1.394	2.41699
1.3945	10.77576
1.395	20.04089
1.3955	22.6593
1.396	26.48621
1.3965	32.32727
1.397	40.88745
1.3975	44.11011
1.398	41.69312
1.3985	38.06763
1.399	46.12427
1.3995	44.11011
1.4	47.7356
1.4005	43.50586
1.401	39.98108
1.4015	40.1825
1.402	30.41382
1.4025	22.76001
1.403	16.3147
1.4035	10.17151
1.404	6.54602
1.4045	6.44531
1.405	6.74744
1.4055	6.54602
1.406	7.15027
1.4065	4.63257
1.407	1.10779
1.4075	-4.12903
1.408	-8.45947
1.4085	-13.19275
1.409	-13.19275
1.4095	-16.01257
1.41	-18.32886
1.4105	-15.60974
1.411	-16.61682
1.4115	-18.8324
1.412	-17.12036
1.4125	-16.21399
1.413	-5.43823
1.4135	23.16284
1.414	48.44055
1.4145	60.22339
1.415	50.2533
1.4155	32.52869
1.416	25.177
1.4165	12.38708
1.417	-2.01416
1.4175	-14.40125
1.418	-31.32019
1.4185	-44.41223
1.419	-55.2887
1.4195	-57.00073
1.42	-58.30994
1.4205	-50.2533
1.421	-58.81348
1.4215	-60.62622
1.422	-59.21631
1.4225	-54.48303
1.423	-54.78516
1.4235	-45.01648
1.424	-29.20532
1.4245	-19.23523
1.425	-9.97009
1.4255	1.2085
1.426	16.11328
1.4265	29.91028
1.427	53.27454
1.4275	65.76233
1.428	77.04163
1.4285	67.37366
1.429	66.46729
1.4295	59.92126
1.43	53.17383
1.4305	34.84497
1.431	26.98975
1.4315	24.47205
1.432	18.42957
1.4325	4.43115
1.433	1.40991
1.4335	-7.04956
1.434	-13.99841
1.4345	-18.22815
1.435	-33.23364
1.4355	-38.77258
1.436	-28.39966
1.4365	-20.84656
1.437	-19.83948
1.4375	-8.8623
1.438	-3.32336
1.4385	2.21558
1.439	1.81274
1.4395	7.75452
1.44	11.68213
1.4405	16.81824
1.441	17.82532
1.4415	17.32178
1.442	17.92603
1.4425	27.99683
1.443	42.7002
1.4435	58.91418
1.444	66.97083
1.4445	54.88586
1.445	39.27612
1.4455	34.03931
1.446	23.46497
1.4465	13.49487
1.447	3.92761
1.4475	-13.69629
1.448	-27.09045
1.4485	-30.41382
1.449	-43.90869
1.4495	-43.40515
1.45	-36.25488
1.4505	-31.52161
1.451	-30.41382
1.4515	-25.47913
1.452	-19.43665
1.4525	-18.53027
1.453	-15.1062
1.4535	-4.83398
1.454	8.35876
1.4545	16.51611
1.455	27.89612
1.4555	24.57275
1.456	20.64514
1.4565	16.61682
1.457	19.03381
1.4575	26.18408
1.458	24.06921
1.4585	29.20532
1.459	28.29895
1.4595	22.05505
1.46	18.22815
1.4605	11.78284
1.461	10.37292
1.4615	6.04248
1.462	5.74036
1.4625	15.71045
1.463	16.3147
1.4635	20.24231
1.464	13.29346
1.4645	5.63965
1.465	-6.94885
1.4655	-1.40991
1.466	-4.33044
1.4665	-2.71912
1.467	-3.7262
1.4675	-11.98425
1.468	-16.3147
1.4685	-9.26514
1.469	-3.02124
1.4695	2.01416
1.47	6.64673
1.4705	3.02124
1.471	-3.62549
1.4715	2.61841
1.472	5.23682
1.4725	7.04956
1.473	12.28638
1.4735	17.72461
1.474	18.32886
1.4745	24.77417
1.475	21.65222
1.4755	21.04797
1.476	23.46497
1.4765	23.96851
1.477	15.60974
1.4775	9.16443
1.478	38.87329
1.4785	57.60498
1.479	67.67578
1.4795	54.88586
1.48	45.3186
1.4805	26.18408
1.481	10.37292
1.4815	-0.90637
1.482	-19.43665
1.4825	-28.29895
1.483	-34.74426
1.4835	-31.21948
1.484	-23.26355
1.4845	-4.43115
1.485	-8.45947
1.4855	-1.3092
1.486	-1.81274
1.4865	-13.99841
1.487	-13.89771
1.4875	-18.02673
1.488	-15.40833
1.4885	-13.99841
1.489	-7.35168
1.4895	-3.42407
1.49	-0.80566
1.4905	10.0708
1.491	8.05664
1.4915	11.48071
1.492	10.57434
1.4925	3.42407
1.493	6.2439
1.4935	9.56726
1.494	4.73328
1.4945	-4.43115
1.495	-6.94885
1.4955	3.02124
1.496	7.15027
1.4965	34.24072
1.497	38.36975
1.4975	29.80957
1.498	19.03381
1.4985	17.92603
1.499	17.82532
1.4995	7.04956
1.5	0.30212
1.5005	-15.91187
1.501	-27.79541
1.5015	-30.91736
1.502	-35.44922
1.5025	-35.65063
1.503	-31.82373
1.5035	-25.07629
1.504	-25.98267
1.5045	-26.68762
1.505	-10.87646
1.5055	-5.13611
1.506	10.27222
1.5065	8.15735
1.507	7.5531
1.5075	7.95593
1.508	10.17151
1.5085	32.32727
1.509	51.15967
1.5095	55.59082
1.51	46.72852
1.5105	36.75842
1.511	24.16992
1.5115	37.56409
1.512	50.354
1.5125	45.72144
1.513	34.24072
1.5135	10.67505
1.514	-10.0708
1.5145	-28.19824
1.515	-44.91577
1.5155	-50.85754
1.516	-47.93701
1.5165	-41.89453
1.517	-35.14709
1.5175	-33.03223
1.518	-32.83081
1.5185	-33.13293
1.519	-27.49329
1.5195	-24.87488
1.52	-19.53735
1.5205	-18.53027
1.521	-19.63806
1.5215	-5.63965
1.522	11.68213
1.5225	27.39258
1.523	39.57825
1.5235	41.08887
1.524	46.22498
1.5245	46.72852
1.525	39.37683
1.5255	37.96692
1.526	43.70728
1.5265	44.11011
1.527	37.46338
1.5275	29.30603
1.528	26.08337
1.5285	26.08337
1.529	27.39258
1.5295	24.57275
1.53	29.00391
1.5305	29.80957
1.531	29.70886
1.5315	17.12036
1.532	9.46655
1.5325	-0.70496
1.533	-4.33044
1.5335	-12.08496
1.534	-1.71204
1.5345	10.77576
1.535	9.97009
1.5355	13.09204
1.536	14.80408
1.5365	12.78992
1.537	10.47363
1.5375	9.06372
1.538	-2.01416
1.5385	-1.71204
1.539	-7.45239
1.5395	-8.45947
1.54	-7.04956
1.5405	-8.96301
1.541	-6.64673
1.5415	-5.23682
1.542	-5.33752
1.5425	-4.43115
1.543	-6.3446
1.5435	-2.5177
1.544	0.70496
1.5445	-2.81982
1.545	-6.84814
1.5455	-12.38708
1.546	-13.59558
1.5465	-22.45789
1.547	-15.20691
1.5475	-11.48071
1.548	-14.90479
1.5485	-12.99133
1.549	-6.94885
1.5495	-5.43823
1.55	-7.85522
1.5505	-5.13611
1.551	-8.15735
1.5515	0.70496
1.552	-1.71204
1.5525	-0.90637
1.553	5.53894
1.5535	-3.42407
1.554	-6.74744
1.5545	3.42407
1.555	6.94885
1.5555	16.61682
1.556	14.80408
1.5565	12.08496
1.557	12.38708
1.5575	5.74036
1.558	1.81274
1.5585	3.32336
1.559	1.71204
1.5595	3.32336
1.56	1.71204
1.5605	2.92053
1.561	6.64673
1.5615	10.0708
1.562	22.05505
1.5625	20.34302
1.563	27.79541
1.5635	34.24072
1.564	32.83081
1.5645	32.02515
1.565	31.72302
1.5655	31.82373
1.566	34.24072
1.5665	33.13293
1.567	26.78833
1.5675	25.37842
1.568	30.91736
1.5685	23.66638
1.569	20.1416
1.5695	21.95435
1.57	18.8324
1.5705	7.35168
1.571	-1.2085
1.5715	-7.5531
1.572	-7.25098
1.5725	-3.52478
1.573	-9.06372
1.5735	-11.98425
1.574	-14.30054
1.5745	-20.94727
1.575	-20.44373
1.5755	-23.16284
1.576	-29.50745
1.5765	-28.60107
1.577	-23.76709
1.5775	-16.71753
1.578	-16.91895
1.5785	-8.45947
1.579	-2.92053
1.5795	2.81982
1.58	0.70496
1.5805	7.95593
1.581	32.83081
1.5815	50.65613
1.582	60.82764
1.5825	46.92993
1.583	45.82214
1.5835	37.46338
1.584	23.26355
1.5845	4.02832
1.585	-2.71912
1.5855	-4.93469
1.586	-1.71204
1.5865	9.86938
1.587	12.5885
1.5875	12.68921
1.588	18.53027
1.5885	14.50195
1.589	17.82532
1.5895	11.17859
1.59	0.30212
1.5905	-10.97717
1.591	-10.87646
1.5915	-2.5177
1.592	5.0354
1.5925	17.22107
1.593	25.78125
1.5935	26.58691
1.594	22.76001
1.5945	19.33594
1.595	14.80408
1.5955	2.31628
1.596	-5.43823
1.5965	-5.53894
1.597	-2.01416
1.5975	-1.00708
1.598	-3.02124
1.5985	-4.83398
1.599	0.90637
1.5995	5.94177
1.6	5.53894
1.6005	6.14319
1.601	16.61682
1.6015	18.63098
1.602	28.80249
1.6025	29.00391
1.603	21.85364
1.6035	18.73169
1.604	14.70337
1.6045	12.38708
1.605	7.5531
1.6055	7.95593
1.606	4.73328
1.6065	0.50354
1.607	-3.02124
1.6075	-4.63257
1.608	-13.49487
1.6085	-17.42249
1.609	-20.94727
1.6095	-26.78833
1.61	-22.15576
1.6105	-17.22107
1.611	-15.71045
1.6115	-1.71204
1.612	26.78833
1.6125	46.72852
1.613	48.13843
1.6135	37.96692
1.614	29.60815
1.6145	16.01257
1.615	4.73328
1.6155	1.91345
1.616	-22.15576
1.6165	-45.72144
1.617	-56.19507
1.6175	-57.60498
1.618	-45.41931
1.6185	-36.75842
1.619	-34.14001
1.6195	-24.37134
1.62	-15.71045
1.6205	-20.04089
1.621	-23.66638
1.6215	-18.22815
1.622	2.61841
1.6225	21.45081
1.623	26.78833
1.6235	22.25647
1.624	18.12744
1.6245	21.65222
1.625	19.33594
1.6255	13.49487
1.626	-2.41699
1.6265	-6.44531
1.627	-11.38
1.6275	-5.0354
1.628	9.06372
1.6285	11.38
1.629	4.53186
1.6295	10.57434
1.63	13.99841
1.6305	18.8324
1.631	19.33594
1.6315	18.32886
1.632	23.96851
1.6325	31.4209
1.633	30.2124
1.6335	22.35718
1.634	21.14868
1.6345	19.33594
1.635	18.8324
1.6355	21.45081
1.636	25.47913
1.6365	24.77417
1.637	25.177
1.6375	25.07629
1.638	21.3501
1.6385	26.08337
1.639	34.54285
1.6395	31.01807
1.64	33.83789
1.6405	34.24072
1.641	31.52161
1.6415	33.13293
1.642	41.18958
1.6425	43.40515
1.643	39.27612
1.6435	29.91028
1.644	12.28638
1.6445	7.45239
1.645	1.10779
1.6455	-6.54602
1.646	-10.27222
1.6465	-6.84814
1.647	-8.15735
1.6475	-17.82532
1.648	-29.20532
1.6485	-29.20532
1.649	-37.16125
1.6495	-34.34143
1.65	-43.90869
1.6505	-43.10303
1.651	-42.8009
1.6515	-29.60815
1.652	-7.65381
1.6525	9.76868
1.653	14.80408
1.6535	14.70337
1.654	11.2793
1.6545	0.70496
1.655	10.37292
1.6555	26.98975
1.656	44.51294
1.6565	54.58374
1.657	57.30286
1.6575	50.95825
1.658	32.7301
1.6585	21.24939
1.659	3.62549
1.6595	-10.0708
1.66	-11.07788
1.6605	-9.16443
1.661	-3.92761
1.6615	1.81274
1.662	6.2439
1.6625	21.3501
1.663	31.01807
1.6635	42.19666
1.664	44.51294
1.6645	36.65771
1.665	25.57983
1.6655	12.18567
1.666	12.48779
1.6665	3.22266
1.667	9.06372
1.6675	16.21399
1.668	24.67346
1.6685	25.88196
1.669	22.35718
1.6695	11.48071
1.67	9.36584
1.6705	3.8269
1.671	-0.70496
1.6715	-16.21399
1.672	-15.40833
1.6725	-16.21399
1.673	-17.12036
1.6735	-18.63098
1.674	-20.44373
1.6745	-24.06921
1.675	-17.01965
1.6755	-20.74585
1.676	-25.98267
1.6765	-16.61682
1.677	-20.74585
1.6775	-15.1062
1.678	-14.90479
1.6785	-14.70337
1.679	-9.06372
1.6795	-3.12195
1.68	-2.71912
1.6805	1.71204
1.681	11.17859
1.6815	10.97717
1.682	18.73169
1.6825	15.81116
1.683	16.71753
1.6835	16.81824
1.684	18.63098
1.6845	24.16992
1.685	20.74585
1.6855	18.42957
1.686	19.33594
1.6865	7.75452
1.687	5.43823
1.6875	8.15735
1.688	10.77576
1.6885	19.53735
1.689	17.6239
1.6895	24.37134
1.69	25.27771
1.6905	18.02673
1.691	13.99841
1.6915	9.26514
1.692	9.06372
1.6925	-5.43823
1.693	-13.29346
1.6935	3.7262
1.694	23.06213
1.6945	23.56567
1.695	7.95593
1.6955	-7.45239
1.696	-13.99841
1.6965	-19.83948
1.697	-28.50037
1.6975	-51.15967
1.698	-62.13684
1.6985	-61.73401
1.699	-59.21631
1.6995	-41.08887
1.7	-26.58691
1.7005	-23.96851
1.701	-11.78284
1.7015	-8.8623
1.702	-15.1062
1.7025	-15.00549
1.703	-5.0354
1.7035	4.53186
1.704	9.16443
1.7045	27.6947
1.705	39.37683
1.7055	35.04639
1.706	23.36426
1.7065	19.23523
1.707	26.98975
1.7075	29.50745
1.708	35.34851
1.7085	22.6593
1.709	15.71045
1.7095	13.59558
1.71	9.76868
1.7105	8.7616
1.711	3.8269
1.7115	5.94177
1.712	15.60974
1.7125	17.22107
1.713	19.53735
1.7135	16.61682
1.714	21.75293
1.7145	22.76001
1.715	17.12036
1.7155	12.18567
1.716	3.62549
1.7165	-5.74036
1.717	3.22266
1.7175	11.48071
1.718	17.72461
1.7185	21.75293
1.719	27.19116
1.7195	26.08337
1.72	23.36426
1.7205	14.70337
1.721	16.91895
1.7215	11.58142
1.722	16.21399
1.7225	13.49487
1.723	10.77576
1.7235	11.98425
1.724	9.16443
1.7245	4.63257
1.725	0
1.7255	0.10071
1.726	-0.70496
1.7265	-3.32336
1.727	-8.05664
1.7275	0.60425
1.728	1.61133
1.7285	1.71204
1.729	5.94177
1.7295	17.12036
1.73	16.61682
1.7305	15.91187
1.731	13.99841
1.7315	20.24231
1.732	32.22656
1.7325	26.08337
1.733	23.8678
1.7335	19.03381
1.734	23.36426
1.7345	18.53027
1.735	12.89062
1.7355	13.49487
1.736	22.05505
1.7365	23.8678
1.737	18.02673
1.7375	15.81116
1.738	19.63806
1.7385	32.42798
1.739	46.62781
1.7395	45.3186
1.74	43.60657
1.7405	41.99524
1.741	35.44922
1.7415	25.47913
1.742	14.90479
1.7425	6.3446
1.743	-10.47363
1.7435	-18.53027
1.744	-19.63806
1.7445	-18.02673
1.745	-17.52319
1.7455	-15.40833
1.746	-9.97009
1.7465	7.35168
1.747	7.04956
1.7475	0.70496
1.748	-1.40991
1.7485	4.22974
1.749	6.04248
1.7495	0
1.75	-4.63257
1.7505	-11.07788
1.751	-19.33594
1.7515	-14.90479
1.752	-13.29346
1.7525	-12.78992
1.753	-8.66089
1.7535	-10.57434
1.754	-10.77576
1.7545	-17.72461
1.755	-23.96851
1.7555	-31.32019
1.756	-26.3855
1.7565	-17.42249
1.757	-3.12195
1.7575	-0.90637
1.758	-4.93469
1.7585	-7.45239
1.759	-8.96301
1.7595	-12.48779
1.76	-15.00549
1.7605	-11.68213
1.761	-7.25098
1.7615	0.20142
1.762	-6.3446
1.7625	4.43115
1.763	5.94177
1.7635	-5.63965
1.764	-10.17151
1.7645	-14.30054
1.765	-19.63806
1.7655	-11.07788
1.766	-13.99841
1.7665	-18.63098
1.767	-18.02673
1.7675	-21.45081
1.768	-31.62231
1.7685	-26.78833
1.769	-23.96851
1.7695	-18.53027
1.77	-5.43823
1.7705	-2.21558
1.771	3.02124
1.7715	3.32336
1.772	13.39417
1.7725	12.18567
1.773	19.53735
1.7735	27.99683
1.774	32.7301
1.7745	35.95276
1.775	32.62939
1.7755	30.61523
1.776	33.23364
1.7765	32.62939
1.777	21.24939
1.7775	25.88196
1.778	26.48621
1.7785	27.09045
1.779	21.04797
1.7795	24.97559
1.78	23.26355
1.7805	23.26355
1.781	23.36426
1.7815	17.22107
1.782	21.75293
1.7825	17.6239
1.783	6.44531
1.7835	6.3446
1.784	-5.13611
1.7845	-13.19275
1.785	-18.12744
1.7855	-15.00549
1.786	-5.0354
1.7865	6.64673
1.787	15.20691
1.7875	27.59399
1.788	23.16284
1.7885	20.84656
1.789	11.88354
1.7895	34.74426
1.79	57.30286
1.7905	60.12268
1.791	51.96533
1.7915	34.94568
1.792	19.43665
1.7925	1.10779
1.793	-7.45239
1.7935	-23.26355
1.794	-27.49329
1.7945	-17.52319
1.795	-22.6593
1.7955	-27.19116
1.796	-25.07629
1.7965	-32.42798
1.797	-36.4563
1.7975	-24.16992
1.798	-20.34302
1.7985	-14.50195
1.799	-6.2439
1.7995	-2.01416
1.8	3.42407
1.8005	5.94177
1.801	3.12195
1.8015	1.2085
1.802	3.22266
1.8025	10.77576
1.803	9.26514
1.8035	6.94885
1.804	9.46655
1.8045	18.02673
1.805	30.2124
1.8055	32.32727
1.806	30.11169
1.8065	35.65063
1.807	32.62939
1.8075	21.85364
1.808	13.99841
1.8085	4.02832
1.809	3.22266
1.8095	-12.18567
1.81	-11.07788
1.8105	-13.29346
1.811	-24.97559
1.8115	-29.10461
1.812	-26.58691
1.8125	-24.87488
1.813	-16.21399
1.8135	-13.19275
1.814	-10.97717
1.8145	-10.27222
1.815	-1.40991
1.8155	4.73328
1.816	8.05664
1.8165	5.23682
1.817	3.92761
1.8175	-3.7262
1.818	-4.02832
1.8185	-4.73328
1.819	-5.0354
1.8195	-5.23682
1.82	-1.00708
1.8205	4.53186
1.821	17.42249
1.8215	14.40125
1.822	17.72461
1.8225	27.29187
1.823	35.34851
1.8235	37.96692
1.824	31.32019
1.8245	21.45081
1.825	16.71753
1.8255	13.49487
1.826	13.59558
1.8265	15.40833
1.827	8.66089
1.8275	7.75452
1.828	-0.10071
1.8285	17.01965
1.829	21.45081
1.8295	26.48621
1.83	50.15259
1.8305	59.82056
1.831	55.89294
1.8315	44.31152
1.832	29.80957
1.8325	15.81116
1.833	3.62549
1.8335	-1.2085
1.834	-11.07788
1.8345	-22.15576
1.835	-34.44214
1.8355	-31.32019
1.836	-26.68762
1.8365	-19.43665
1.837	-20.1416
1.8375	-20.44373
1.838	-18.8324
1.8385	-13.39417
1.839	-18.63098
1.8395	-20.1416
1.84	-24.16992
1.8405	-25.88196
1.841	-30.91736
1.8415	-40.08179
1.842	-47.93701
1.8425	-59.92126
1.843	-59.82056
1.8435	-49.24622
1.844	-35.75134
1.8445	-26.88904
1.845	-12.28638
1.8455	-8.05664
1.846	3.8269
1.8465	11.88354
1.847	13.69629
1.8475	24.97559
1.848	31.82373
1.8485	42.09595
1.849	37.36267
1.8495	35.14709
1.85	27.19116
1.8505	24.67346
1.851	31.62231
1.8515	23.46497
1.852	31.11877
1.8525	23.36426
1.853	24.77417
1.8535	24.87488
1.854	22.15576
1.8545	17.92603
1.855	10.0708
1.8555	-4.63257
1.856	-17.22107
1.8565	-32.12585
1.857	-32.7301
1.8575	-24.77417
1.858	-26.68762
1.8585	-10.0708
1.859	5.23682
1.8595	9.97009
1.86	13.89771
1.8605	12.89062
1.861	17.82532
1.8615	36.95984
1.862	44.61365
1.8625	49.14551
1.863	59.1156
1.8635	60.02197
1.864	54.38232
1.8645	60.92834
1.865	51.15967
1.8655	31.62231
1.866	15.71045
1.8665	-3.32336
1.867	-4.22974
1.8675	-8.66089
1.868	-6.64673
1.8685	0.80566
1.869	17.6239
1.8695	27.79541
1.87	29.10461
1.8705	22.25647
1.871	20.54443
1.8715	25.07629
1.872	14.80408
1.8725	16.71753
1.873	23.8678
1.8735	22.86072
1.874	21.3501
1.8745	5.74036
1.875	-3.62549
1.8755	-8.7616
1.876	-12.18567
1.8765	-10.37292
1.877	-10.77576
1.8775	8.66089
1.878	41.79382
1.8785	58.91418
1.879	63.54675
1.8795	59.82056
1.88	46.92993
1.8805	24.77417
1.881	11.68213
1.8815	-5.0354
1.882	-6.14319
1.8825	-11.88354
1.883	-25.88196
1.8835	-28.60107
1.884	-26.3855
1.8845	-26.88904
1.885	-24.47205
1.8855	-21.75293
1.886	-14.40125
1.8865	-11.88354
1.887	-4.53186
1.8875	0.90637
1.888	-1.3092
1.8885	3.7262
1.889	6.74744
1.8895	-9.16443
1.89	-12.08496
1.8905	-8.96301
1.891	-11.78284
1.8915	-13.49487
1.892	-20.04089
1.8925	-14.30054
1.893	-16.01257
1.8935	-1.2085
1.894	0.70496
1.8945	-5.43823
1.895	0.80566
1.8955	-0.10071
1.896	9.97009
1.8965	11.58142
1.897	16.01257
1.8975	17.01965
1.898	14.90479
1.8985	12.48779
1.899	9.16443
1.8995	4.63257
1.9	-3.52478
1.9005	-1.61133
1.901	-7.04956
1.9015	-8.56018
1.902	-5.63965
1.9025	-1.71204
1.903	6.44531
1.9035	19.43665
1.904	24.57275
1.9045	23.36426
1.905	33.13293
1.9055	47.7356
1.906	48.74268
1.9065	46.5271
1.907	42.19666
1.9075	35.34851
1.908	19.13452
1.9085	16.41541
1.909	5.74036
1.9095	5.23682
1.91	13.29346
1.9105	20.84656
1.911	19.03381
1.9115	27.59399
1.912	33.63647
1.9125	31.62231
1.913	30.51453
1.9135	24.67346
1.914	15.1062
1.9145	7.75452
1.915	-4.93469
1.9155	-5.84106
1.916	13.19275
1.9165	25.27771
1.917	35.14709
1.9175	30.51453
1.918	23.56567
1.9185	15.1062
1.919	3.7262
1.9195	0.40283
1.92	-11.88354
1.9205	-15.71045
1.921	-18.42957
1.9215	-12.89062
1.922	-12.5885
1.9225	-18.22815
1.923	-18.02673
1.9235	-15.1062
1.924	-8.35876
1.9245	-2.71912
1.925	-4.33044
1.9255	-9.46655
1.926	-7.25098
1.9265	-12.68921
1.927	-8.96301
1.9275	-15.50903
1.928	-16.71753
1.9285	-11.58142
1.929	-9.86938
1.9295	-7.95593
1.93	-4.22974
1.9305	1.81274
1.931	9.46655
1.9315	3.32336
1.932	-2.92053
1.9325	1.2085
1.933	-3.52478
1.9335	-1.3092
1.934	-1.2085
1.9345	-6.04248
1.935	-3.92761
1.9355	-6.54602
1.936	-2.61841
1.9365	-2.41699
1.937	-7.95593
1.9375	-13.19275
1.938	-11.88354
1.9385	-9.06372
1.939	-11.07788
1.9395	-2.5177
1.94	2.01416
1.9405	13.29346
1.941	22.76001
1.9415	28.80249
1.942	38.57117
1.9425	30.11169
1.943	30.11169
1.9435	29.91028
1.944	37.36267
1.9445	29.20532
1.945	21.75293
1.9455	16.91895
1.946	-0.70496
1.9465	-13.09204
1.947	-14.60266
1.9475	-19.83948
1.948	-28.39966
1.9485	-30.81665
1.949	-26.48621
1.9495	-26.3855
1.95	-14.90479
1.9505	-11.98425
1.951	-6.64673
1.9515	-2.41699
1.952	5.94177
1.9525	1.81274
1.953	4.33044
1.9535	3.52478
1.954	8.15735
1.9545	9.76868
1.955	23.8678
1.9555	40.88745
1.956	58.10852
1.9565	62.74109
1.957	71.30127
1.9575	64.25171
1.958	46.12427
1.9585	23.56567
1.959	6.64673
1.9595	-6.14319
1.96	-13.99841
1.9605	-21.65222
1.961	-25.78125
1.9615	-21.04797
1.962	-28.19824
1.9625	-25.88196
1.963	-20.44373
1.9635	-20.1416
1.964	-18.8324
1.9645	-17.82532
1.965	-17.92603
1.9655	-13.09204
1.966	-5.74036
1.9665	-6.64673
1.967	-7.65381
1.9675	-7.95593
1.968	-9.46655
1.9685	-3.32336
1.969	10.97717
1.9695	17.6239
1.97	12.38708
1.9705	8.96301
1.971	0.90637
1.9715	6.94885
1.972	12.68921
1.9725	14.40125
1.973	11.88354
1.9735	7.15027
1.974	11.48071
1.9745	20.94727
1.975	22.45789
1.9755	51.15967
1.976	85.60181
1.9765	85.19897
1.977	71.60339
1.9775	50.45471
1.978	28.50037
1.9785	5.13611
1.979	-5.53894
1.9795	-17.92603
1.98	-29.20532
1.9805	-41.29028
1.981	-37.56409
1.9815	-32.32727
1.982	-33.73718
1.9825	-33.13293
1.983	-44.21082
1.9835	-41.4917
1.984	-33.43506
1.9845	-22.76001
1.985	-13.49487
1.9855	-3.52478
1.986	-7.04956
1.9865	-3.7262
1.987	4.63257
1.9875	9.06372
1.988	5.33752
1.9885	8.25806
1.989	12.28638
1.9895	25.177
1.99	39.27612
1.9905	53.87878
1.991	60.12268
1.9915	59.01489
1.992	64.65454
1.9925	53.87878
1.993	42.59949
1.9935	35.04639
1.994	26.98975
1.9945	31.52161
1.995	39.17542
1.9955	42.8009
1.996	40.58533
1.9965	27.39258
1.997	15.40833
1.9975	7.25098
1.998	0.50354
1.9985	-11.17859
1.999	-12.78992
1.9995	-15.91187
2	-17.52319
2.0005	-29.10461
2.001	-32.93152
2.0015	-40.98816
2.002	-39.57825
2.0025	-34.84497
2.003	-24.37134
2.0035	-17.92603
2.004	-13.89771
2.0045	-11.78284
2.005	-3.62549
2.0055	-1.61133
2.006	16.21399
2.0065	22.86072
2.007	29.20532
2.0075	25.57983
2.008	26.28479
2.0085	27.49329
2.009	22.15576
2.0095	12.68921
2.01	6.44531
2.0105	-3.8269
2.011	-7.25098
2.0115	-5.0354
2.012	-9.66797
2.0125	-10.87646
2.013	-15.20691
2.0135	-11.07788
2.014	-7.95593
2.0145	-0.30212
2.015	3.52478
2.0155	2.21558
2.016	4.22974
2.0165	3.92761
2.017	4.22974
2.0175	-0.20142
2.018	3.7262
2.0185	-0.20142
2.019	-0.50354
2.0195	-1.71204
2.02	-0.30212
2.0205	1.2085
2.021	5.0354
2.0215	1.40991
2.022	-1.00708
2.0225	0.30212
2.023	-0.80566
2.0235	-3.02124
2.024	-10.17151
2.0245	-4.02832
2.025	5.33752
2.0255	6.44531
2.026	7.95593
2.0265	10.87646
2.027	16.41541
2.0275	11.78284
2.028	8.56018
2.0285	3.32336
2.029	-12.08496
2.0295	-22.55859
2.03	-34.64355
2.0305	-43.80798
2.031	-47.93701
2.0315	-44.41223
2.032	-38.974
2.0325	-34.74426
2.033	-24.16992
2.0335	-23.66638
2.034	-1.61133
2.0345	12.18567
2.035	20.54443
2.0355	13.49487
2.036	21.65222
2.0365	20.1416
2.037	13.19275
2.0375	18.12744
2.038	19.23523
2.0385	10.87646
2.039	7.85522
2.0395	5.74036
2.04	-5.43823
2.0405	-5.63965
2.041	1.40991
2.0415	8.56018
2.042	14.19983
2.0425	23.16284
2.043	26.08337
2.0435	22.6593
2.044	25.27771
2.0445	28.39966
2.045	23.16284
2.0455	28.50037
2.046	25.07629
2.0465	26.48621
2.047	20.74585
2.0475	21.55151
2.048	22.96143
2.0485	29.40674
2.049	26.68762
2.0495	25.57983
2.05	17.01965
2.0505	1.91345
2.051	-8.15735
2.0515	-2.61841
2.052	5.0354
2.0525	10.77576
2.053	13.797
2.0535	16.71753
2.054	12.08496
2.0545	5.63965
2.055	1.71204
2.0555	-9.36584
2.056	-13.99841
2.0565	-20.24231
2.057	-15.30762
2.0575	-14.90479
2.058	-10.47363
2.0585	0.40283
2.059	15.20691
2.0595	22.96143
2.06	21.85364
2.0605	29.00391
2.061	39.57825
2.0615	52.67029
2.062	55.59082
2.0625	50.55542
2.063	47.03064
2.0635	34.44214
2.064	28.09753
2.0645	17.72461
2.065	8.8623
2.0655	14.60266
2.066	18.02673
2.0665	11.17859
2.067	2.41699
2.0675	-13.69629
2.068	-16.61682
2.0685	-15.20691
2.069	-19.33594
2.0695	-18.22815
2.07	-10.57434
2.0705	4.12903
2.071	7.45239
2.0715	0.90637
2.072	-2.11487
2.0725	-0.80566
2.073	-7.04956
2.0735	-11.38
2.074	-15.60974
2.0745	-10.17151
2.075	-9.56726
2.0755	-11.68213
2.076	-1.2085
2.0765	9.97009
2.077	36.55701
2.0775	54.98657
2.078	54.58374
2.0785	55.49011
2.079	46.42639
2.0795	33.9386
2.08	25.98267
2.0805	38.47046
2.081	38.974
2.0815	28.29895
2.082	7.45239
2.0825	-3.22266
2.083	-12.48779
2.0835	-13.19275
2.084	-15.81116
2.0845	-19.63806
2.085	-29.60815
2.0855	-38.06763
2.086	-36.95984
2.0865	-31.21948
2.087	-26.98975
2.0875	-19.63806
2.088	-8.66089
2.0885	-7.85522
2.089	-4.93469
2.0895	-1.00708
2.09	9.76868
2.0905	11.68213
2.091	18.32886
2.0915	13.99841
2.092	11.98425
2.0925	8.25806
2.093	12.38708
2.0935	6.44531
2.094	3.22266
2.0945	-0.30212
2.095	6.3446
2.0955	0.70496
2.096	3.7262
2.0965	6.74744
2.097	20.64514
2.0975	16.3147
2.098	23.8678
2.0985	35.75134
2.099	36.05347
2.0995	20.54443
2.1	5.23682
2.1005	-7.85522
2.101	-20.54443
2.1015	-31.72302
2.102	-41.18958
2.1025	-52.97241
2.103	-55.79224
2.1035	-55.18799
2.104	-46.32568
2.1045	-50.05188
2.105	-48.23914
2.1055	-44.91577
2.106	-36.4563
2.1065	-24.87488
2.107	-23.76709
2.1075	-34.34143
2.108	-23.76709
2.1085	-8.96301
2.109	8.96301
2.1095	19.03381
2.11	28.70178
2.1105	39.67896
2.111	44.81506
2.1115	55.79224
2.112	54.0802
2.1125	53.57666
2.113	52.26746
2.1135	45.3186
2.114	37.86621
2.1145	37.7655
2.115	33.03223
2.1155	35.75134
2.116	36.85913
2.1165	41.39099
2.117	39.47754
2.1175	41.08887
2.118	39.37683
2.1185	44.0094
2.119	36.85913
2.1195	36.15417
2.12	26.48621
2.1205	5.33752
2.121	-12.18567
2.1215	-21.24939
2.122	-31.82373
2.1225	-36.25488
2.123	-25.78125
2.1235	-28.09753
2.124	-21.85364
2.1245	-15.81116
2.125	-15.40833
2.1255	-9.56726
2.126	-2.11487
2.1265	-5.33752
2.127	-12.28638
2.1275	-24.27063
2.128	-35.04639
2.1285	-38.87329
2.129	-33.23364
2.1295	-19.83948
2.13	-0.50354
2.1305	23.36426
2.131	30.81665
2.1315	33.63647
2.132	35.44922
2.1325	32.7301
2.133	35.14709
2.1335	30.01099
2.134	31.62231
2.1345	21.55151
2.135	16.01257
2.1355	15.20691
2.136	12.99133
2.1365	19.53735
2.137	27.89612
2.1375	31.21948
2.138	30.81665
2.1385	23.36426
2.139	16.01257
2.1395	8.7616
2.14	13.19275
2.1405	5.94177
2.141	-4.53186
2.1415	-8.25806
2.142	-7.45239
2.1425	-6.94885
2.143	-16.01257
2.1435	-36.15417
2.144	-47.33276
2.1445	-48.74268
2.145	-45.01648
2.1455	-42.39807
2.146	-32.22656
2.1465	-16.81824
2.147	-7.85522
2.1475	13.59558
2.148	39.57825
2.1485	56.19507
2.149	70.3949
2.1495	73.11401
2.15	73.81897
2.1505	62.13684
2.151	68.17932
2.1515	71.7041
2.152	69.68994
2.1525	58.61206
2.153	49.85046
2.1535	33.43506
2.154	18.22815
2.1545	6.14319
2.155	-6.3446
2.1555	1.2085
2.156	-5.94177
2.1565	-2.21558
2.157	-0.90637
2.1575	3.92761
2.158	22.76001
2.1585	17.42249
2.159	13.59558
2.1595	4.22974
2.16	-3.32336
2.1605	-20.04089
2.161	-29.50745
2.1615	-28.70178
2.162	-9.16443
2.1625	13.59558
2.163	24.27063
2.1635	20.04089
2.164	13.49487
2.1645	-3.32336
2.165	-6.2439
2.1655	-14.30054
2.166	-32.62939
2.1665	-45.62073
2.167	-54.38232
2.1675	-50.05188
2.168	-48.64197
2.1685	-37.7655
2.169	-28.9032
2.1695	-22.45789
2.17	-18.12744
2.1705	-19.63806
2.171	-14.90479
2.1715	-18.42957
2.172	-12.68921
2.1725	-5.74036
2.173	-0.70496
2.1735	-1.61133
2.174	4.63257
2.1745	9.86938
2.175	24.16992
2.1755	28.09753
2.176	36.75842
2.1765	43.50586
2.177	46.22498
2.1775	47.43347
2.178	42.19666
2.1785	34.24072
2.179	41.79382
2.1795	44.31152
2.18	42.90161
2.1805	36.25488
2.181	29.91028
2.1815	32.22656
2.182	26.58691
2.1825	16.91895
2.183	1.3092
2.1835	-10.17151
2.184	-11.2793
2.1845	-12.18567
2.185	-13.59558
2.1855	-8.8623
2.186	-8.96301
2.1865	-4.73328
2.187	-15.91187
2.1875	-23.66638
2.188	-19.13452
2.1885	-20.64514
2.189	-20.34302
2.1895	-22.76001
2.19	-25.27771
2.1905	-21.55151
2.191	-21.14868
2.1915	-21.85364
2.192	-26.78833
2.1925	-24.37134
2.193	-18.8324
2.1935	-15.91187
2.194	-14.09912
2.1945	-10.47363
2.195	-17.22107
2.1955	-5.84106
2.196	0.30212
2.1965	5.53894
2.197	9.86938
2.1975	7.85522
2.198	4.83398
2.1985	-1.40991
2.199	9.97009
2.1995	13.29346
2.2	21.14868
2.2005	37.06055
2.201	46.82922
2.2015	60.92834
2.202	65.86304
2.2025	71.09985
2.203	69.38782
2.2035	55.69153
2.204	44.11011
2.2045	35.14709
2.205	21.45081
2.2055	16.51611
2.206	16.71753
2.2065	15.20691
2.207	6.2439
2.2075	1.91345
2.208	9.36584
2.2085	9.46655
2.209	24.77417
2.2095	28.60107
2.21	34.64355
2.2105	37.86621
2.211	30.91736
2.2115	26.98975
2.212	22.05505
2.2125	12.08496
2.213	12.78992
2.2135	7.5531
2.214	4.63257
2.2145	-1.10779
2.215	0.60425
2.2155	1.51062
2.216	12.89062
2.2165	11.2793
2.217	3.8269
2.2175	-2.92053
2.218	-19.53735
2.2185	-22.55859
2.219	-25.78125
2.2195	-18.12744
2.22	-12.5885
2.2205	-5.13611
2.221	0.60425
2.2215	2.81982
2.222	3.02124
2.2225	9.16443
2.223	9.16443
2.2235	3.8269
2.224	7.35168
2.2245	11.38
2.225	25.98267
2.2255	28.09753
2.226	28.9032
2.2265	20.24231
2.227	10.27222
2.2275	-4.33044
2.228	-11.88354
2.2285	-16.21399
2.229	-18.53027
2.2295	-15.60974
2.23	-17.42249
2.2305	-17.01965
2.231	-9.16443
2.2315	-3.22266
2.232	6.2439
2.2325	14.30054
2.233	20.54443
2.2335	15.81116
2.234	8.15735
2.2345	5.94177
2.235	10.57434
2.2355	3.12195
2.236	9.86938
2.2365	4.63257
2.237	0.50354
2.2375	0.90637
2.238	19.83948
2.2385	33.13293
2.239	28.50037
2.2395	27.49329
2.24	25.78125
2.2405	11.98425
2.241	-2.81982
2.2415	-7.95593
2.242	-14.09912
2.2425	-18.12744
2.243	-28.80249
2.2435	-39.47754
2.244	-44.0094
2.2445	-19.94019
2.245	4.63257
2.2455	0.50354
2.246	-4.53186
2.2465	-1.61133
2.247	3.32336
2.2475	-1.00708
2.248	-3.02124
2.2485	-11.58142
2.249	-24.57275
2.2495	-35.44922
2.25	-32.83081
2.2505	-35.04639
2.251	-39.67896
2.2515	-33.43506
2.252	-17.42249
2.2525	4.22974
2.253	8.7616
2.2535	4.53186
2.254	-1.91345
2.2545	4.63257
2.255	8.8623
2.2555	16.01257
2.256	26.48621
2.2565	24.16992
2.257	41.18958
2.2575	49.0448
2.258	57.20215
2.2585	56.39648
2.259	58.30994
2.2595	61.83472
2.26	60.52551
2.2605	55.3894
2.261	42.09595
2.2615	33.43506
2.262	18.42957
2.2625	8.35876
2.263	1.10779
2.2635	-6.74744
2.264	-5.53894
2.2645	-1.51062
2.265	5.23682
2.2655	9.56726
2.266	14.40125
2.2665	17.32178
2.267	17.12036
2.2675	7.25098
2.268	4.43115
2.2685	-4.12903
2.269	-4.93469
2.2695	-5.53894
2.27	-3.62549
2.2705	6.84814
2.271	-5.53894
2.2715	-7.45239
2.272	-7.35168
2.2725	-3.52478
2.273	-2.61841
2.2735	-6.74744
2.274	-5.63965
2.2745	-2.01416
2.275	6.64673
2.2755	18.73169
2.276	22.35718
2.2765	27.49329
2.277	22.15576
2.2775	15.40833
2.278	20.94727
2.2785	17.32178
2.279	17.82532
2.2795	14.09912
2.28	10.27222
2.2805	5.84106
2.281	4.43115
2.2815	-3.12195
2.282	-3.8269
2.2825	-5.0354
2.283	-2.61841
2.2835	-3.02124
2.284	4.12903
2.2845	8.8623
2.285	-1.51062
2.2855	-1.61133
2.286	-12.89062
2.2865	-9.76868
2.287	-7.95593
2.2875	-4.43115
2.288	-5.13611
2.2885	-7.85522
2.289	-9.66797
2.2895	-5.94177
2.29	-10.57434
2.2905	-4.22974
2.291	-1.91345
2.2915	-3.22266
2.292	-2.81982
2.2925	4.53186
2.293	-5.94177
2.2935	-15.71045
2.294	-16.3147
2.2945	-12.08496
2.295	-12.18567
2.2955	-6.44531
2.296	0.30212
2.2965	3.92761
2.297	12.89062
2.2975	16.11328
2.298	13.09204
2.2985	16.51611
2.299	14.30054
2.2995	15.1062
2.3	11.68213
2.3005	6.14319
2.301	1.40991
2.3015	10.97717
2.302	32.32727
2.3025	38.47046
2.303	35.04639
2.3035	26.98975
2.304	27.09045
2.3045	19.33594
2.305	14.70337
2.3055	12.08496
2.306	11.58142
2.3065	21.45081
2.307	22.45789
2.3075	18.12744
2.308	5.0354
2.3085	-7.65381
2.309	-11.07788
2.3095	-22.6593
2.31	-29.91028
2.3105	-37.46338
2.311	-33.9386
2.3115	-30.41382
2.312	-18.42957
2.3125	-4.02832
2.313	-2.81982
2.3135	-2.01416
2.314	-1.71204
2.3145	-2.21558
2.315	-3.62549
2.3155	-5.63965
2.316	-7.75452
2.3165	-13.09204
2.317	-8.66089
2.3175	-3.7262
2.318	7.25098
2.3185	18.42957
2.319	68.88428
2.3195	116.31775
2.32	134.64661
2.3205	122.96448
2.321	98.29102
2.3215	74.02039
2.322	44.61365
2.3225	11.2793
2.323	-16.41541
2.3235	-37.66479
2.324	-52.26746
2.3245	-53.57666
2.325	-55.2887
2.3255	-52.97241
2.326	-47.23206
2.3265	-38.974
2.327	-25.98267
2.3275	-14.50195
2.328	-7.45239
2.3285	-8.7616
2.329	-15.50903
2.3295	-19.73877
2.33	-13.59558
2.3305	-11.48071
2.331	-11.2793
2.3315	-10.77576
2.332	-8.45947
2.3325	-8.45947
2.333	-2.01416
2.3335	7.04956
2.334	6.64673
2.3345	19.33594
2.335	23.26355
2.3355	22.45789
2.336	28.09753
2.3365	24.16992
2.337	22.86072
2.3375	29.80957
2.338	31.72302
2.3385	37.66479
2.339	38.974
2.3395	32.12585
2.34	20.54443
2.3405	14.50195
2.341	21.65222
2.3415	21.55151
2.342	19.33594
2.3425	13.797
2.343	14.70337
2.3435	13.89771
2.344	4.63257
2.3445	-11.17859
2.345	-24.27063
2.3455	-24.47205
2.346	-35.14709
2.3465	-36.25488
2.347	-38.16833
2.3475	-42.90161
2.348	-35.75134
2.3485	-22.96143
2.349	-14.90479
2.3495	5.43823
2.35	18.22815
2.3505	18.12744
2.351	26.18408
2.3515	24.67346
2.352	23.8678
2.3525	22.45789
2.353	14.80408
2.3535	11.68213
2.354	8.15735
2.3545	24.47205
2.355	33.03223
2.3555	30.01099
2.356	23.26355
2.3565	18.63098
2.357	5.63965
2.3575	-2.81982
2.358	-18.12744
2.3585	-30.71594
2.359	-37.16125
2.3595	-46.82922
2.36	-43.70728
2.3605	-44.51294
2.361	-46.42639
2.3615	-36.65771
2.362	-23.8678
2.3625	-13.69629
2.363	2.21558
2.3635	8.66089
2.364	12.48779
2.3645	13.89771
2.365	25.177
2.3655	23.16284
2.366	26.68762
2.3665	15.81116
2.367	30.2124
2.3675	45.72144
2.368	53.27454
2.3685	50.55542
2.369	47.93701
2.3695	54.0802
2.37	49.0448
2.3705	37.56409
2.371	25.68054
2.3715	5.23682
2.372	-10.87646
2.3725	-13.59558
2.373	-18.32886
2.3735	-17.6239
2.374	-13.69629
2.3745	-8.66089
2.375	2.81982
2.3755	2.5177
2.376	7.75452
2.3765	8.56018
2.377	15.50903
2.3775	17.42249
2.378	17.32178
2.3785	13.69629
2.379	11.98425
2.3795	14.30054
2.38	13.59558
2.3805	14.60266
2.381	12.48779
2.3815	13.99841
2.382	14.50195
2.3825	20.74585
2.383	10.67505
2.3835	-3.52478
2.384	-4.53186
2.3845	4.02832
2.385	17.22107
2.3855	10.87646
2.386	12.28638
2.3865	5.43823
2.387	-0.80566
2.3875	-7.35168
2.388	-17.42249
2.3885	-12.38708
2.389	-11.68213
2.3895	-9.76868
2.39	-2.71912
2.3905	3.22266
2.391	1.61133
2.3915	4.02832
2.392	8.25806
2.3925	3.22266
2.393	0.80566
2.3935	-5.13611
2.394	-8.45947
2.3945	-14.50195
2.395	-10.47363
2.3955	-14.30054
2.396	-9.16443
2.3965	-5.0354
2.397	2.11487
2.3975	3.62549
2.398	8.8623
2.3985	16.61682
2.399	25.07629
2.3995	34.74426
2.4	38.87329
2.4005	42.49878
2.401	44.71436
2.4015	42.59949
2.402	41.4917
2.4025	38.87329
2.403	38.974
2.4035	41.29028
2.404	30.31311
2.4045	41.99524
2.405	65.25879
2.4055	82.9834
2.406	82.27844
2.4065	72.81189
2.407	55.18799
2.4075	36.15417
2.408	22.6593
2.4085	12.28638
2.409	-9.66797
2.4095	-22.55859
2.41	-46.32568
2.4105	-69.28711
2.411	-86.50818
2.4115	-77.948
2.412	-73.71826
2.4125	-57.30286
2.413	-46.42639
2.4135	-41.99524
2.414	-33.03223
2.4145	-35.75134
2.415	-25.57983
2.4155	-25.88196
2.416	-23.06213
2.4165	-20.1416
2.417	-16.21399
2.4175	2.81982
2.418	4.53186
2.4185	7.45239
2.419	20.44373
2.4195	25.177
2.42	27.99683
2.4205	17.92603
2.421	8.8623
2.4215	5.23682
2.422	22.86072
2.4225	44.41223
2.423	58.71277
2.4235	59.92126
2.424	66.46729
2.4245	55.18799
2.425	41.18958
2.4255	27.29187
2.426	11.17859
2.4265	-1.3092
2.427	-4.83398
2.4275	4.53186
2.428	12.28638
2.4285	17.72461
2.429	8.35876
2.4295	11.88354
2.43	8.45947
2.4305	2.81982
2.431	-0.10071
2.4315	1.51062
2.432	-3.7262
2.4325	5.23682
2.433	13.29346
2.4335	13.09204
2.434	18.63098
2.4345	24.47205
2.435	16.21399
2.4355	2.41699
2.436	-4.12903
2.4365	-10.37292
2.437	-12.28638
2.4375	-7.25098
2.438	-8.96301
2.4385	-12.5885
2.439	-17.82532
2.4395	-20.04089
2.44	3.22266
2.4405	13.29346
2.441	23.36426
2.4415	28.70178
2.442	22.76001
2.4425	29.50745
2.443	30.11169
2.4435	41.99524
2.444	49.95117
2.4445	46.92993
2.445	37.36267
2.4455	33.23364
2.446	26.48621
2.4465	14.50195
2.447	1.3092
2.4475	-6.54602
2.448	-13.89771
2.4485	-14.90479
2.449	-16.81824
2.4495	-19.94019
2.45	-20.04089
2.4505	-13.09204
2.451	9.26514
2.4515	13.39417
2.452	9.26514
2.4525	18.73169
2.453	32.62939
2.4535	40.58533
2.454	50.354
2.4545	49.95117
2.455	48.64197
2.4555	39.07471
2.456	32.42798
2.4565	25.78125
2.457	15.91187
2.4575	5.84106
2.458	-6.3446
2.4585	-9.66797
2.459	-6.54602
2.4595	-0.20142
2.46	2.11487
2.4605	1.51062
2.461	-0.90637
2.4615	-5.84106
2.462	-10.17151
2.4625	-19.43665
2.463	-20.54443
2.4635	-21.75293
2.464	-21.75293
2.4645	-26.58691
2.465	-22.6593
2.4655	-24.67346
2.466	-22.96143
2.4665	-27.09045
2.467	-26.78833
2.4675	-16.71753
2.468	-9.66797
2.4685	3.42407
2.469	10.27222
2.4695	9.06372
2.47	14.90479
2.4705	3.92761
2.471	-19.73877
2.4715	-20.24231
2.472	-25.27771
2.4725	-29.91028
2.473	-20.04089
2.4735	-0.90637
2.474	27.6947
2.4745	38.36975
2.475	34.14001
2.4755	29.20532
2.476	13.69629
2.4765	-10.77576
2.477	-30.71594
2.4775	-48.94409
2.478	-48.03772
2.4785	-45.3186
2.479	-49.14551
2.4795	-36.95984
2.48	-29.30603
2.4805	-14.70337
2.481	-4.53186
2.4815	6.3446
2.482	20.74585
2.4825	38.16833
2.483	49.54834
2.4835	58.30994
2.484	52.16675
2.4845	41.99524
2.485	26.68762
2.4855	27.29187
2.486	31.62231
2.4865	31.32019
2.487	27.19116
2.4875	10.57434
2.488	3.12195
2.4885	21.55151
2.489	22.45789
2.4895	30.01099
2.49	30.2124
2.4905	47.7356
2.491	54.48303
2.4915	50.354
2.492	37.96692
2.4925	36.85913
2.493	33.9386
2.4935	34.74426
2.494	22.35718
2.4945	14.30054
2.495	7.35168
2.4955	1.40991
2.496	-3.12195
2.4965	-11.2793
2.497	-14.60266
2.4975	-17.52319
2.498	-18.53027
2.4985	-12.5885
2.499	-14.60266
2.4995	0.20142
2.5	-1.2085
2.5005	4.63257
2.501	7.35168
2.5015	18.02673
2.502	21.24939
2.5025	18.12744
2.503	20.94727
2.5035	27.89612
2.504	34.03931
2.5045	34.54285
2.505	37.06055
2.5055	44.11011
2.506	42.8009
2.5065	48.03772
2.507	30.31311
2.5075	11.68213
2.508	-4.12903
2.5085	-11.48071
2.509	-19.94019
2.5095	-27.39258
2.51	-31.72302
2.5105	-31.32019
2.511	-27.79541
2.5115	-31.92444
2.512	-31.62231
2.5125	-28.9032
2.513	-26.3855
2.5135	-27.59399
2.514	-20.44373
2.5145	-12.38708
2.515	-1.10779
2.5155	-0.90637
2.516	4.43115
2.5165	9.76868
2.517	15.20691
2.5175	24.37134
2.518	34.03931
2.5185	44.11011
2.519	38.67188
2.5195	24.87488
2.52	21.14868
2.5205	12.08496
2.521	-11.88354
2.5215	-29.91028
2.522	-46.82922
2.5225	-67.67578
2.523	-69.1864
2.5235	-67.57507
2.524	-63.24463
2.5245	-58.91418
2.525	-49.0448
2.5255	-41.39099
2.526	-37.16125
2.5265	-28.39966
2.527	-16.81824
2.5275	-6.14319
2.528	10.57434
2.5285	19.73877
2.529	24.77417
2.5295	27.29187
2.53	35.34851
2.5305	37.96692
2.531	38.47046
2.5315	38.67188
2.532	45.62073
2.5325	54.18091
2.533	52.56958
2.5335	39.98108
2.534	37.86621
2.5345	21.65222
2.535	2.31628
2.5355	-13.99841
2.536	-17.01965
2.5365	-10.77576
2.537	5.53894
2.5375	8.8623
2.538	17.32178
2.5385	17.01965
2.539	16.91895
2.5395	14.19983
2.54	13.39417
2.5405	7.75452
2.541	8.35876
2.5415	13.69629
2.542	9.56726
2.5425	4.73328
2.543	0.10071
2.5435	-5.94177
2.544	-22.15576
2.5445	-30.41382
2.545	-39.77966
2.5455	-40.38391
2.546	-35.75134
2.5465	-16.3147
2.547	-7.95593
2.5475	-2.71912
2.548	-2.41699
2.5485	3.32336
2.549	13.09204
2.5495	23.06213
2.55	27.09045
2.5505	38.67188
2.551	49.0448
2.5515	40.68604
2.552	40.48462
2.5525	36.65771
2.553	44.91577
2.5535	71.7041
2.554	76.23596
2.5545	65.76233
2.555	40.68604
2.5555	13.69629
2.556	-0.70496
2.5565	-23.56567
2.557	-33.53577
2.5575	-33.23364
2.558	-41.4917
2.5585	-49.44763
2.559	-53.47595
2.5595	-55.99365
2.56	-48.54126
2.5605	-42.29736
2.561	-41.08887
2.5615	-41.69312
2.562	-36.15417
2.5625	-26.98975
2.563	-17.52319
2.5635	-5.23682
2.564	-3.92761
2.5645	-0.80566
2.565	5.74036
2.5655	15.60974
2.566	22.6593
2.5665	28.80249
2.567	32.52869
2.5675	51.36108
2.568	69.79065
2.5685	87.71667
2.569	94.46411
2.5695	92.85278
2.57	90.43579
2.5705	74.72534
2.571	67.17224
2.5715	50.05188
2.572	38.06763
2.5725	17.82532
2.573	-2.61841
2.5735	-10.77576
2.574	-6.54602
2.5745	-4.33044
2.575	0.70496
2.5755	-3.52478
2.576	-0.30212
2.5765	-0.90637
2.577	-20.54443
2.5775	-28.19824
2.578	-26.48621
2.5785	-19.43665
2.579	-13.19275
2.5795	-23.56567
2.58	-21.14868
2.5805	-16.81824
2.581	-10.57434
2.5815	-5.63965
2.582	-2.92053
2.5825	1.10779
2.583	5.84106
2.5835	9.86938
2.584	16.01257
2.5845	22.6593
2.585	33.13293
2.5855	31.62231
2.586	23.56567
2.5865	17.6239
2.587	3.62549
2.5875	-1.81274
2.588	-6.44531
2.5885	-5.23682
2.589	-4.43115
2.5895	-2.61841
2.59	-7.65381
2.5905	-22.76001
2.591	-25.78125
2.5915	-29.50745
2.592	-31.11877
2.5925	-31.82373
2.593	-42.29736
2.5935	-34.64355
2.594	-21.65222
2.5945	-4.63257
2.595	4.53186
2.5955	2.61841
2.596	1.2085
2.5965	2.01416
2.597	-2.61841
2.5975	1.51062
2.598	-9.66797
2.5985	-3.42407
2.599	14.60266
2.5995	25.78125
2.6	28.39966
2.6005	28.29895
2.601	27.79541
2.6015	17.82532
2.602	6.44531
2.6025	0.30212
2.603	-13.39417
2.6035	-9.36584
2.604	-3.42407
2.6045	10.47363
2.605	7.25098
2.6055	9.76868
2.606	6.64673
2.6065	10.87646
2.607	12.28638
2.6075	9.26514
2.608	12.48779
2.6085	7.25098
2.609	19.94019
2.6095	22.86072
2.61	33.33435
2.6105	42.8009
2.611	48.74268
2.6115	48.23914
2.612	44.71436
2.6125	37.46338
2.613	31.92444
2.6135	17.12036
2.614	11.78284
2.6145	4.22974
2.615	-10.47363
2.6155	-22.55859
2.616	-34.24072
2.6165	-31.4209
2.617	-35.75134
2.6175	-32.83081
2.618	-30.11169
2.6185	-26.48621
2.619	-21.45081
2.6195	-21.3501
2.62	-15.30762
2.6205	-13.29346
2.621	-4.63257
2.6215	-3.7262
2.622	1.71204
2.6225	-2.21558
2.623	-0.90637
2.6235	5.23682
2.624	7.65381
2.6245	16.61682
2.625	22.55859
2.6255	22.55859
2.626	30.31311
2.6265	33.03223
2.627	32.52869
2.6275	11.98425
2.628	12.18567
2.6285	10.97717
2.629	13.39417
2.6295	18.02673
2.63	23.66638
2.6305	28.70178
2.631	48.33984
2.6315	63.84888
2.632	61.73401
2.6325	51.26038
2.633	44.31152
2.6335	30.91736
2.634	19.94019
2.6345	12.18567
2.635	-8.7616
2.6355	-16.3147
2.636	-27.29187
2.6365	-34.54285
2.637	-43.00232
2.6375	-47.23206
2.638	-53.87878
2.6385	-40.88745
2.639	-30.11169
2.6395	-25.88196
2.64	-20.1416
2.6405	-14.09912
2.641	-10.0708
2.6415	-5.43823
2.642	-6.74744
2.6425	0.30212
2.643	23.56567
2.6435	44.11011
2.644	44.21082
2.6445	40.78674
2.645	42.59949
2.6455	37.86621
2.646	35.34851
2.6465	22.45789
2.647	13.29346
2.6475	-4.73328
2.648	-11.17859
2.6485	-15.30762
2.649	-7.25098
2.6495	2.31628
2.65	17.72461
2.6505	25.177
2.651	24.57275
2.6515	22.05505
2.652	17.32178
2.6525	11.38
2.653	10.17151
2.6535	8.15735
2.654	1.00708
2.6545	-1.2085
2.655	5.33752
2.6555	9.76868
2.656	20.1416
2.6565	32.7301
2.657	33.33435
2.6575	30.81665
2.658	15.91187
2.6585	-1.51062
2.659	-22.76001
2.6595	-36.15417
2.66	-40.88745
2.6605	-36.65771
2.661	-26.08337
2.6615	-23.56567
2.662	-14.40125
2.6625	-25.07629
2.663	-28.09753
2.6635	-34.34143
2.664	-33.63647
2.6645	-42.09595
2.665	-50.65613
2.6655	-62.8418
2.666	-66.46729
2.6665	-74.52393
2.667	-59.71985
2.6675	-46.02356
2.668	-31.32019
2.6685	-26.28479
2.669	-18.73169
2.6695	-7.95593
2.67	1.61133
2.6705	14.70337
2.671	25.78125
2.6715	40.38391
2.672	46.92993
2.6725	49.0448
2.673	44.51294
2.6735	40.48462
2.674	31.52161
2.6745	29.00391
2.675	41.29028
2.6755	45.11719
2.676	40.78674
2.6765	46.82922
2.677	45.62073
2.6775	54.98657
2.678	57.30286
2.6785	60.4248
2.679	53.27454
2.6795	48.54126
2.68	49.95117
2.6805	45.3186
2.681	40.58533
2.6815	39.17542
2.682	34.34143
2.6825	32.83081
2.683	27.39258
2.6835	27.6947
2.684	20.34302
2.6845	23.66638
2.685	20.64514
2.6855	13.29346
2.686	6.54602
2.6865	4.83398
2.687	3.12195
2.6875	13.09204
2.688	14.70337
2.6885	26.58691
2.689	36.75842
2.6895	34.94568
2.69	21.95435
2.6905	7.04956
2.691	-14.30054
2.6915	-37.66479
2.692	-56.39648
2.6925	-74.2218
2.693	-90.93933
2.6935	-95.97473
2.694	-99.49951
2.6945	-97.48535
2.695	-93.35632
2.6955	-79.96216
2.696	-59.71985
2.6965	-38.16833
2.697	-19.83948
2.6975	-10.0708
2.698	7.95593
2.6985	18.42957
2.699	27.89612
2.6995	28.60107
2.7	33.43506
2.7005	23.56567
2.701	18.73169
2.7015	23.06213
2.702	26.58691
2.7025	27.99683
2.703	41.89453
2.7035	41.59241
2.704	49.85046
2.7045	50.65613
2.705	50.354
2.7055	38.47046
2.706	46.62781
2.7065	42.7002
2.707	41.4917
2.7075	38.77258
2.708	31.72302
2.7085	24.57275
2.709	20.24231
2.7095	22.86072
2.71	26.28479
2.7105	21.85364
2.711	14.50195
2.7115	11.88354
2.712	6.04248
2.7125	-2.5177
2.713	-7.65381
2.7135	-16.3147
2.714	-19.43665
2.7145	-0.90637
2.715	19.33594
2.7155	23.96851
2.716	15.1062
2.7165	2.81982
2.717	-19.23523
2.7175	-20.34302
2.718	-32.22656
2.7185	-42.29736
2.719	-26.28479
2.7195	-10.67505
2.72	-12.68921
2.7205	-0.80566
2.721	-8.35876
2.7215	-1.91345
2.722	-14.19983
2.7225	-19.33594
2.723	-22.05505
2.7235	-28.60107
2.724	-25.37842
2.7245	-37.56409
2.725	-45.62073
2.7255	-48.64197
2.726	-44.21082
2.7265	-41.79382
2.727	-40.48462
2.7275	-30.01099
2.728	-15.40833
2.7285	-3.52478
2.729	13.09204
2.7295	26.98975
2.73	30.11169
2.7305	22.96143
2.731	6.94885
2.7315	-2.61841
2.732	2.41699
2.7325	1.61133
2.733	12.38708
2.7335	20.74585
2.734	34.44214
2.7345	36.25488
2.735	42.7002
2.7355	34.03931
2.736	32.62939
2.7365	29.10461
2.737	28.19824
2.7375	35.65063
2.738	39.27612
2.7385	54.68445
2.739	78.85437
2.7395	93.75916
2.74	100.80872
2.7405	96.07544
2.741	91.64429
2.7415	82.9834
2.742	64.55383
2.7425	49.64905
2.743	37.46338
2.7435	26.88904
2.744	9.16443
2.7445	-4.33044
2.745	-22.15576
2.7455	-28.29895
2.746	-32.93152
2.7465	-26.3855
2.747	-20.64514
2.7475	-27.99683
2.748	-37.06055
2.7485	-56.69861
2.749	-60.4248
2.7495	-55.49011
2.75	-45.52002
2.7505	-36.4563
2.751	-27.59399
2.7515	-17.12036
2.752	-23.66638
2.7525	-24.97559
2.753	-28.09753
2.7535	-20.64514
2.754	-10.57434
2.7545	-3.92761
2.755	5.23682
2.7555	16.01257
2.756	22.25647
2.7565	16.51611
2.757	17.12036
2.7575	26.58691
2.758	22.45789
2.7585	18.22815
2.759	27.89612
2.7595	39.57825
2.76	46.72852
2.7605	51.96533
2.761	60.22339
2.7615	60.52551
2.762	50.95825
2.7625	59.61914
2.763	60.22339
2.7635	59.92126
2.764	53.87878
2.7645	44.91577
2.765	35.44922
2.7655	27.59399
2.766	25.07629
2.7665	17.92603
2.767	5.53894
2.7675	5.33752
2.768	-4.73328
2.7685	-9.46655
2.769	-10.27222
2.7695	-10.67505
2.77	-19.73877
2.7705	-19.23523
2.771	-14.90479
2.7715	-24.27063
2.772	-15.40833
2.7725	-9.66797
2.773	-10.27222
2.7735	-13.89771
2.774	-27.09045
2.7745	-46.82922
2.775	-62.23755
2.7755	-62.64038
2.776	-58.91418
2.7765	-50.55542
2.777	-38.67188
2.7775	-27.59399
2.778	-22.76001
2.7785	-17.52319
2.779	-21.14868
2.7795	-28.50037
2.78	-21.24939
2.7805	-6.44531
2.781	0.70496
2.7815	1.2085
2.782	9.06372
2.7825	21.24939
2.783	28.80249
2.7835	40.88745
2.784	53.17383
2.7845	39.77966
2.785	31.62231
2.7855	28.19824
2.786	44.81506
2.7865	78.85437
2.787	84.19189
2.7875	66.46729
2.788	39.07471
2.7885	10.77576
2.789	-20.24231
2.7895	-53.17383
2.79	-82.78198
2.7905	-103.22571
2.791	-133.63953
2.7915	-148.74573
2.792	-159.62219
2.7925	-150.9613
2.793	-137.36572
2.7935	-126.08643
2.794	-103.22571
2.7945	-80.4657
2.795	-51.86462
2.7955	-17.01965
2.796	16.21399
2.7965	38.47046
2.797	58.10852
2.7975	79.55933
2.798	91.14075
2.7985	103.72925
2.799	104.23279
2.7995	94.16199
2.8	74.02039
2.8005	56.49719
2.801	36.95984
2.8015	20.04089
2.802	8.25806
2.8025	9.86938
2.803	12.08496
2.8035	18.42957
2.804	33.23364
2.8045	55.79224
2.805	64.65454
2.8055	68.88428
2.806	56.5979
2.8065	57.20215
2.807	54.68445
2.8075	60.82764
2.808	61.43188
2.8085	75.22888
2.809	80.76782
2.8095	82.9834
2.81	82.47986
2.8105	83.68835
2.811	79.96216
2.8115	67.57507
2.812	56.5979
2.8125	44.61365
2.813	30.51453
2.8135	56.19507
2.814	73.41614
2.8145	84.49402
2.815	98.0896
2.8155	105.13916
2.816	95.87402
2.8165	66.46729
2.817	38.57117
2.8175	18.8324
2.818	-9.97009
2.8185	-30.71594
2.819	-59.31702
2.8195	-74.42322
2.82	-74.72534
2.8205	-75.32959
2.821	-66.26587
2.8215	-68.48145
2.822	-66.87012
2.8225	-57.60498
2.823	-54.0802
2.8235	-44.11011
2.824	-25.78125
2.8245	-7.25098
2.825	7.95593
2.8255	13.19275
2.826	7.75452
2.8265	-0.90637
2.827	-2.61841
2.8275	-6.94885
2.828	-0.20142
2.8285	14.30054
2.829	20.74585
2.8295	33.73718
2.83	40.98816
2.8305	27.19116
2.831	14.19983
2.8315	-6.3446
2.832	-15.20691
2.8325	-15.91187
2.833	-15.50903
2.8335	-14.09912
2.834	-7.5531
2.8345	-11.48071
2.835	-9.26514
2.8355	-10.97717
2.836	-6.04248
2.8365	-8.25806
2.837	-14.60266
2.8375	-13.99841
2.838	-15.00549
2.8385	-15.40833
2.839	-9.76868
2.8395	-10.67505
2.84	4.73328
2.8405	14.50195
2.841	17.72461
2.8415	20.64514
2.842	27.39258
2.8425	35.85205
2.843	35.75134
2.8435	29.00391
2.844	20.64514
2.8445	14.30054
2.845	13.09204
2.8455	-3.42407
2.846	-26.88904
2.8465	-35.95276
2.847	-44.61365
2.8475	-47.63489
2.848	-49.74976
2.8485	-50.85754
2.849	-58.20923
2.8495	-72.30835
2.85	-84.39331
2.8505	-99.90234
2.851	-107.75757
2.8515	-92.44995
2.852	-83.78906
2.8525	-76.53809
2.853	-60.22339
2.8535	-45.72144
2.854	-7.5531
2.8545	9.97009
2.855	10.37292
2.8555	14.30054
2.856	-4.63257
2.8565	-0.90637
2.857	16.61682
2.8575	27.19116
2.858	33.43506
2.8585	40.38391
2.859	43.90869
2.8595	68.07861
2.86	82.27844
2.8605	80.16357
2.861	81.17065
2.8615	64.05029
2.862	42.09595
2.8625	38.77258
2.863	29.30603
2.8635	22.15576
2.864	4.73328
2.8645	4.43115
2.865	8.05664
2.8655	21.3501
2.866	52.16675
2.8665	72.30835
2.867	74.02039
2.8675	80.86853
2.868	95.97473
2.8685	98.0896
2.869	88.52234
2.8695	70.69702
2.87	48.33984
2.8705	27.39258
2.871	8.35876
2.8715	-4.53186
2.872	-19.53735
2.8725	-32.62939
2.873	-33.73718
2.8735	-15.60974
2.874	-10.57434
2.8745	-5.23682
2.875	-12.89062
2.8755	-12.68921
2.876	-21.95435
2.8765	-34.54285
2.877	-50.2533
2.8775	-51.76392
2.878	-51.66321
2.8785	-44.21082
2.879	-22.35718
2.8795	-11.48071
2.88	-10.77576
2.8805	6.54602
2.881	19.03381
2.8815	29.10461
2.882	41.59241
2.8825	42.59949
2.883	52.16675
2.8835	47.43347
2.884	35.04639
2.8845	24.27063
2.885	17.72461
2.8855	11.48071
2.886	1.10779
2.8865	-9.46655
2.887	-16.51611
2.8875	-17.32178
2.888	-15.00549
2.8885	-12.08496
2.889	-16.21399
2.8895	-13.89771
2.89	-15.91187
2.8905	-10.47363
2.891	-9.46655
2.8915	-16.11328
2.892	-16.71753
2.8925	-12.48779
2.893	-5.74036
2.8935	2.41699
2.894	4.02832
2.8945	8.45947
2.895	10.27222
2.8955	6.44531
2.896	1.10779
2.8965	7.85522
2.897	9.86938
2.8975	7.65381
2.898	3.22266
2.8985	-3.02124
2.899	-8.15735
2.8995	-6.54602
2.9	-2.81982
2.9005	-2.81982
2.901	-0.70496
2.9015	7.15027
2.902	7.35168
2.9025	11.78284
2.903	9.36584
2.9035	-9.86938
2.904	-10.97717
2.9045	-4.12903
2.905	9.76868
2.9055	43.00232
2.906	78.75366
2.9065	88.32092
2.907	81.47278
2.9075	73.91968
2.908	45.3186
2.9085	0.70496
2.909	-28.70178
2.9095	-59.61914
2.91	-68.07861
2.9105	-88.82446
2.911	-101.51367
2.9115	-100.6073
2.912	-93.96057
2.9125	-90.03296
2.913	-76.03455
2.9135	-57.70569
2.914	-58.30994
2.9145	-40.58533
2.915	-33.03223
2.9155	-3.62549
2.916	21.95435
2.9165	46.5271
2.917	53.37524
2.9175	72.00623
2.918	103.02429
2.9185	112.39014
2.919	111.68518
2.9195	93.35632
2.92	73.71826
2.9205	58.91418
2.921	53.57666
2.9215	46.12427
2.922	23.46497
2.9225	-1.51062
2.923	-22.96143
2.9235	-4.93469
2.924	21.95435
2.9245	44.31152
2.925	42.59949
2.9255	35.2478
2.926	24.47205
2.9265	23.46497
2.927	13.19275
2.9275	11.17859
2.928	10.47363
2.9285	18.32886
2.929	13.29346
2.9295	7.5531
2.93	12.38708
2.9305	14.70337
2.931	26.78833
2.9315	37.96692
2.932	38.47046
2.9325	33.13293
2.933	34.64355
2.9335	13.99841
2.934	-8.35876
2.9345	-30.11169
2.935	-41.4917
2.9355	-47.7356
2.936	-50.2533
2.9365	-37.26196
2.937	-36.25488
2.9375	-14.80408
2.938	-10.47363
2.9385	-6.2439
2.939	6.94885
2.9395	16.3147
2.94	25.37842
2.9405	25.88196
2.941	30.71594
2.9415	38.16833
2.942	46.82922
2.9425	40.98816
2.943	37.36267
2.9435	33.9386
2.944	31.4209
2.9445	27.6947
2.945	25.07629
2.9455	22.05505
2.946	27.39258
2.9465	22.6593
2.947	15.40833
2.9475	18.32886
2.948	8.45947
2.9485	-0.50354
2.949	-8.7616
2.9495	-23.8678
2.95	-24.27063
2.9505	-31.82373
2.951	-29.60815
2.9515	-27.39258
2.952	-15.81116
2.9525	-21.45081
2.953	-22.05505
2.9535	-26.18408
2.954	-22.05505
2.9545	-13.797
2.955	-15.1062
2.9555	-15.00549
2.956	-36.35559
2.9565	-73.61755
2.957	-90.83862
2.9575	-41.59241
2.958	-3.62549
2.9585	16.3147
2.959	24.57275
2.9595	15.00549
2.96	8.8623
2.9605	4.73328
2.961	-7.35168
2.9615	-17.22107
2.962	-28.80249
2.9625	-37.16125
2.963	-44.71436
2.9635	-45.92285
2.964	-32.83081
2.9645	-4.02832
2.965	26.28479
2.9655	40.68604
2.966	36.75842
2.9665	23.06213
2.967	8.56018
2.9675	-10.97717
2.968	-7.35168
2.9685	25.37842
2.969	43.30444
2.9695	44.81506
2.97	38.06763
2.9705	23.06213
2.971	-8.35876
2.9715	-16.21399
2.972	-18.63098
2.9725	-7.15027
2.973	7.65381
2.9735	20.04089
2.974	41.69312
2.9745	59.21631
2.975	72.50977
2.9755	77.74658
2.976	71.50269
2.9765	74.92676
2.977	70.99915
2.9775	76.7395
2.978	70.59631
2.9785	61.83472
2.979	47.93701
2.9795	24.97559
2.98	11.38
2.9805	-16.71753
2.981	-38.67188
2.9815	-46.92993
2.982	-52.771
2.9825	-49.14551
2.983	-38.47046
2.9835	-35.34851
2.984	-19.33594
2.9845	-12.28638
2.985	-13.59558
2.9855	3.7262
2.986	0.90637
2.9865	21.95435
2.987	64.65454
2.9875	84.89685
2.988	77.64587
2.9885	62.33826
2.989	56.5979
2.9895	42.7002
2.99	28.29895
2.9905	9.66797
2.991	-7.65381
2.9915	-1.61133
2.992	9.16443
2.9925	19.53735
2.993	13.39417
2.9935	29.70886
2.994	43.40515
2.9945	48.33984
2.995	37.36267
2.9955	33.33435
2.996	31.11877
2.9965	35.04639
2.997	42.8009
2.9975	41.59241
2.998	31.82373
2.9985	15.81116
2.999	7.45239
2.9995	2.92053
3	22.55859
3.0005	28.29895
3.001	31.62231
3.0015	17.92603
3.002	11.78284
3.0025	5.94177
3.003	8.05664
3.0035	7.65381
3.004	-1.61133
3.0045	-0.90637
3.005	-9.36584
3.0055	-6.74744
3.006	-6.44531
3.0065	-6.2439
3.007	-13.39417
3.0075	-41.4917
3.008	-53.67737
3.0085	-54.28162
3.009	-55.49011
3.0095	-59.51843
3.01	-61.83472
3.0105	-56.39648
3.011	-53.97949
3.0115	-43.90869
3.012	-38.16833
3.0125	-32.12585
3.013	-27.79541
3.0135	-26.08337
3.014	-9.56726
3.0145	-0.50354
3.015	-5.94177
3.0155	-7.35168
3.016	-0.80566
3.0165	1.00708
3.017	-0.60425
3.0175	-15.71045
3.018	-26.3855
3.0185	-39.27612
3.019	-61.83472
3.0195	-70.99915
3.02	-81.57349
3.0205	-89.83154
3.021	-89.22729
3.0215	-81.87561
3.022	-57.40356
3.0225	-37.66479
3.023	-20.54443
3.0235	-7.25098
3.024	-1.61133
3.0245	11.07788
3.025	16.11328
3.0255	38.77258
3.026	75.63171
3.0265	90.5365
3.027	81.87561
3.0275	71.80481
3.028	68.88428
3.0285	55.89294
3.029	49.74976
3.0295	52.36816
3.03	71.80481
3.0305	104.03137
3.031	108.1604
3.0315	75.73242
3.032	68.78357
3.0325	55.2887
3.033	40.38391
3.0335	28.60107
3.034	6.2439
3.0345	-15.00549
3.035	-22.55859
3.0355	-14.60266
3.036	-14.30054
3.0365	-7.25098
3.037	-6.14319
3.0375	12.68921
3.038	19.63806
3.0385	35.44922
3.039	38.77258
3.0395	26.78833
3.04	-0.70496
3.0405	-18.73169
3.041	-37.46338
3.0415	-51.76392
3.042	-53.77808
3.0425	-50.45471
3.043	-25.88196
3.0435	-6.44531
3.044	7.15027
3.0445	1.2085
3.045	-11.68213
3.0455	-2.61841
3.046	7.5531
3.0465	4.12903
3.047	0.80566
3.0475	-8.15735
3.048	-7.15027
3.0485	-10.47363
3.049	-2.31628
3.0495	2.01416
3.05	13.797
3.0505	28.09753
3.051	65.15808
3.0515	89.328
3.052	98.59314
3.0525	99.19739
3.053	91.64429
3.0535	83.99048
3.054	68.68286
3.0545	57.40356
3.055	56.49719
3.0555	66.56799
3.056	58.91418
3.0565	45.72144
3.057	29.10461
3.0575	24.06921
3.058	18.73169
3.0585	7.85522
3.059	5.53894
3.0595	-9.26514
3.06	-20.74585
3.0605	-31.21948
3.061	-30.71594
3.0615	-33.63647
3.062	-31.11877
3.0625	-30.31311
3.063	-38.36975
3.0635	-39.47754
3.064	-25.47913
3.0645	-18.22815
3.065	-15.00549
3.0655	-7.65381
3.066	-25.37842
3.0665	-28.9032
3.067	-18.8324
3.0675	-16.41541
3.068	-29.91028
3.0685	-28.39966
3.069	-12.5885
3.0695	1.61133
3.07	13.89771
3.0705	22.35718
3.071	29.10461
3.0715	33.9386
3.072	38.16833
3.0725	20.74585
3.073	11.2793
3.0735	4.43115
3.074	17.72461
3.0745	24.16992
3.075	27.59399
3.0755	11.17859
3.076	-8.35876
3.0765	-16.11328
3.077	-12.38708
3.0775	-11.2793
3.078	-15.71045
3.0785	-18.02673
3.079	-15.71045
3.0795	0.40283
3.08	11.58142
3.0805	17.32178
3.081	26.28479
3.0815	23.26355
3.082	12.28638
3.0825	17.22107
3.083	28.80249
3.0835	37.7655
3.084	45.82214
3.0845	39.07471
3.085	29.30603
3.0855	13.49487
3.086	11.78284
3.0865	6.64673
3.087	1.40991
3.0875	-11.38
3.088	-30.91736
3.0885	-46.62781
3.089	-60.82764
3.0895	-72.9126
3.09	-62.03613
3.0905	-38.47046
3.091	-23.36426
3.0915	-14.50195
3.092	-29.70886
3.0925	-64.55383
3.093	-93.25562
3.0935	-89.42871
3.094	-82.47986
3.0945	-52.56958
3.095	-37.7655
3.0955	-29.60815
3.096	-14.90479
3.0965	-3.42407
3.097	-9.06372
3.0975	-15.20691
3.098	0.30212
3.0985	14.70337
3.099	30.2124
3.0995	42.09595
3.1	60.22339
3.1005	76.23596
3.101	93.35632
3.1015	101.71509
3.102	112.59155
3.1025	115.81421
3.103	106.04553
3.1035	110.17456
3.104	124.67651
3.1045	122.56165
3.105	116.61987
3.1055	92.85278
3.106	78.95508
3.1065	60.12268
3.107	44.61365
3.1075	29.40674
3.108	25.37842
3.1085	23.66638
3.109	28.70178
3.1095	20.44373
3.11	3.02124
3.1105	-4.93469
3.111	-3.8269
3.1115	3.12195
3.112	2.21558
3.1125	5.53894
3.113	8.7616
3.1135	14.60266
3.114	14.60266
3.1145	18.73169
3.115	18.12744
3.1155	7.5531
3.116	5.13611
3.1165	-10.0708
3.117	-33.63647
3.1175	-53.57666
3.118	-65.86304
3.1185	-71.30127
3.119	-65.66162
3.1195	-50.354
3.12	-37.56409
3.1205	-25.07629
3.121	-1.81274
3.1215	10.27222
3.122	15.91187
3.1225	11.48071
3.123	7.25098
3.1235	1.71204
3.124	-6.44531
3.1245	-37.36267
3.125	-58.30994
3.1255	-40.68604
3.126	-10.27222
3.1265	10.17151
3.127	17.52319
3.1275	6.44531
3.128	-5.0354
3.1285	-22.76001
3.129	-37.66479
3.1295	-36.75842
3.13	-21.85364
3.1305	-16.61682
3.131	-21.75293
3.1315	-23.46497
3.132	-23.46497
3.1325	-9.86938
3.133	4.73328
3.1335	8.96301
3.134	12.89062
3.1345	16.71753
3.135	34.44214
3.1355	68.28003
3.136	82.47986
3.1365	90.5365
3.137	88.22021
3.1375	87.71667
3.138	86.70959
3.1385	77.24304
3.139	60.82764
3.1395	40.38391
3.14	17.6239
3.1405	8.8623
3.141	3.32336
3.1415	-1.40991
3.142	-13.09204
3.1425	-25.07629
3.143	-43.70728
3.1435	-46.92993
3.144	-41.39099
3.1445	-32.02515
3.145	-23.66638
3.1455	-25.78125
3.146	-28.9032
3.1465	-29.70886
3.147	-24.77417
3.1475	-23.46497
3.148	-24.06921
3.1485	-23.56567
3.149	-20.24231
3.1495	-4.53186
3.15	4.12903
3.1505	3.02124
3.151	-15.30762
3.1515	-37.7655
3.152	-53.27454
3.1525	-71.09985
3.153	-85.90393
3.1535	-84.09119
3.154	-73.31543
3.1545	-64.25171
3.155	-61.93542
3.1555	-53.77808
3.156	-29.50745
3.1565	-7.15027
3.157	32.83081
3.1575	53.67737
3.158	65.15808
3.1585	70.29419
3.159	72.30835
3.1595	69.28711
3.16	66.76941
3.1605	73.11401
3.161	84.69543
3.1615	94.86694
3.162	102.42004
3.1625	100.30518
3.163	85.60181
3.1635	64.75525
3.164	77.74658
3.1645	86.60889
3.165	81.67419
3.1655	65.46021
3.166	41.29028
3.1665	29.20532
3.167	13.69629
3.1675	14.40125
3.168	16.61682
3.1685	16.21399
3.169	5.84106
3.1695	-7.65381
3.17	-27.59399
3.1705	-45.01648
3.171	-62.9425
3.1715	-58.10852
3.172	-43.30444
3.1725	-34.14001
3.173	-21.24939
3.1735	-15.91187
3.174	-7.35168
3.1745	0.40283
3.175	13.99841
3.1755	37.96692
3.176	44.51294
3.1765	-4.73328
3.177	-59.61914
3.1775	-80.86853
3.178	-77.34375
3.1785	-48.84338
3.179	-27.19116
3.1795	6.2439
3.18	21.45081
3.1805	23.06213
3.181	30.81665
3.1815	33.13293
3.182	37.26196
3.1825	36.85913
3.183	35.95276
3.1835	37.26196
3.184	37.36267
3.1845	48.64197
3.185	61.23047
3.1855	64.35242
3.186	60.4248
3.1865	51.66321
3.187	61.23047
3.1875	64.75525
3.188	66.76941
3.1885	55.18799
3.189	47.13135
3.1895	32.62939
3.19	7.95593
3.1905	-19.53735
3.191	-46.32568
3.1915	-60.92834
3.192	-62.74109
3.1925	-75.63171
3.193	-88.82446
3.1935	-102.82288
3.194	-117.22412
3.1945	-123.06519
3.195	-131.92749
3.1955	-122.76306
3.196	-118.33191
3.1965	-125.88501
3.197	-128.40271
3.1975	-121.65527
3.198	-92.44995
3.1985	-66.06445
3.199	-35.44922
3.1995	-15.71045
3.2	4.43115
3.2005	8.56018
3.201	15.20691
3.2015	13.49487
3.202	24.16992
3.2025	52.36816
3.203	75.02747
3.2035	76.23596
3.204	65.86304
3.2045	44.91577
3.205	37.36267
3.2055	49.64905
3.206	78.85437
3.2065	111.78589
3.207	115.41138
3.2075	114.90784
3.208	104.13208
3.2085	93.35632
3.209	68.88428
3.2095	48.13843
3.21	25.57983
3.2105	21.24939
3.211	30.81665
3.2115	38.16833
3.212	47.8363
3.2125	52.8717
3.213	47.03064
3.2135	26.08337
3.214	22.55859
3.2145	11.78284
3.215	31.01807
3.2155	59.51843
3.216	84.89685
3.2165	79.96216
3.217	62.74109
3.2175	53.07312
3.218	53.17383
3.2185	46.92993
3.219	44.41223
3.2195	48.03772
3.22	23.16284
3.2205	1.61133
3.221	-26.98975
3.2215	-80.86853
3.222	-123.97156
3.2225	-158.11157
3.223	-182.68433
3.2235	-202.62451
3.224	-190.03601
3.2245	-165.26184
3.225	-135.35156
3.2255	-111.68518
3.226	-99.90234
3.2265	-86.8103
3.227	-73.41614
3.2275	-51.86462
3.228	-17.52319
3.2285	8.05664
3.229	37.86621
3.2295	64.95667
3.23	96.37756
3.2305	113.59863
3.231	110.27527
3.2315	108.05969
3.232	113.39722
3.2325	141.89758
3.233	180.16663
3.2335	203.63159
3.234	200.20752
3.2345	173.62061
3.235	132.93457
3.2355	109.57031
3.236	85.5011
3.2365	68.98499
3.237	43.80798
3.2375	33.33435
3.238	26.78833
3.2385	17.32178
3.239	6.44531
3.2395	-23.56567
3.24	-54.68445
3.2405	-69.79065
3.241	-75.02747
3.2415	-80.96924
3.242	-93.65845
3.2425	-107.65686
3.243	-108.96606
3.2435	-103.93066
3.244	-113.09509
3.2445	-101.11084
3.245	-90.43579
3.2455	-78.55225
3.246	-72.71118
3.2465	-77.34375
3.247	-76.43738
3.2475	-71.80481
3.248	-60.4248
3.2485	-37.26196
3.249	0.60425
3.2495	44.41223
3.25	70.99915
3.2505	71.60339
3.251	73.01331
3.2515	76.43738
3.252	80.16357
3.2525	84.39331
3.253	76.53809
3.2535	74.82605
3.254	71.30127
3.2545	61.33118
3.255	43.80798
3.2555	13.09204
3.256	-4.93469
3.2565	-16.71753
3.257	-12.38708
3.2575	0.20142
3.258	11.07788
3.2585	19.73877
3.259	14.50195
3.2595	-0.50354
3.26	-33.73718
3.2605	-63.14392
3.261	-67.77649
3.2615	-57.8064
3.262	-64.95667
3.2625	-68.88428
3.263	-74.42322
3.2635	-88.92517
3.264	-80.4657
3.2645	-61.73401
3.265	-38.47046
3.2655	-16.91895
3.266	8.25806
3.2665	32.62939
3.267	56.79932
3.2675	78.95508
3.268	96.8811
3.2685	113.90076
3.269	120.95032
3.2695	132.93457
3.27	132.33032
3.2705	127.79846
3.271	118.73474
3.2715	110.27527
3.272	98.39172
3.2725	91.94641
3.273	79.05579
3.2735	52.06604
3.274	12.68921
3.2745	6.94885
3.275	4.83398
3.2755	-11.38
3.276	-51.05896
3.2765	-60.22339
3.277	-67.8772
3.2775	-69.99207
3.278	-50.95825
3.2785	-30.11169
3.279	-2.5177
3.2795	6.14319
3.28	-0.50354
3.2805	-8.66089
3.281	-20.64514
3.2815	-18.8324
3.282	-5.94177
3.2825	-3.22266
3.283	-2.01416
3.2835	-9.66797
3.284	-12.68921
3.2845	-15.71045
3.285	-5.74036
3.2855	1.51062
3.286	-13.69629
3.2865	-45.2179
3.287	-64.25171
3.2875	-70.69702
3.288	-65.56091
3.2885	-58.30994
3.289	-44.91577
3.2895	-15.00549
3.29	-0.80566
3.2905	16.21399
3.291	33.83789
3.2915	31.62231
3.292	18.93311
3.2925	10.37292
3.293	19.63806
3.2935	41.18958
3.294	70.59631
3.2945	88.32092
3.295	83.38623
3.2955	67.8772
3.296	48.94409
3.2965	33.53577
3.297	48.33984
3.2975	60.4248
3.298	71.50269
3.2985	90.63721
3.299	104.63562
3.2995	88.11951
3.3	74.92676
3.3005	52.16675
3.301	22.35718
3.3015	6.94885
3.302	-4.73328
3.3025	-1.00708
3.303	-10.87646
3.3035	-10.37292
3.304	-10.77576
3.3045	-5.43823
3.305	1.10779
3.3055	0.30212
3.306	3.22266
3.3065	0.70496
3.307	-5.53894
3.3075	-11.17859
3.308	-9.97009
3.3085	-11.78284
3.309	-13.69629
3.3095	-11.98425
3.31	-18.42957
3.3105	-23.76709
3.311	-31.01807
3.3115	-53.57666
3.312	-68.88428
3.3125	-74.72534
3.313	-72.71118
3.3135	-72.00623
3.314	-92.04712
3.3145	-124.97864
3.315	-141.49475
3.3155	-149.14856
3.316	-142.50183
3.3165	-123.77014
3.317	-87.41455
3.3175	-61.83472
3.318	-32.62939
3.3185	-4.63257
3.319	17.12036
3.3195	38.974
3.32	55.69153
3.3205	69.68994
3.321	75.32959
3.3215	79.66003
3.322	87.31384
3.3225	66.97083
3.323	49.14551
3.3235	22.76001
3.324	-5.74036
3.3245	-15.50903
3.325	-52.26746
3.3255	-86.91101
3.326	-119.94324
3.3265	-155.9967
3.327	-174.02344
3.3275	-169.7937
3.328	-148.14148
3.3285	-112.69226
3.329	-99.60022
3.3295	-78.25012
3.33	-58.20923
3.3305	-26.58691
3.331	1.00708
3.3315	6.04248
3.332	27.79541
3.3325	55.3894
3.333	108.1604
3.3335	136.35864
3.334	156.50024
3.3345	182.68433
3.335	183.28857
3.3355	171.60645
3.336	153.17688
3.3365	144.71741
3.337	144.6167
3.3375	168.28308
3.338	182.68433
3.3385	179.96521
3.339	153.78113
3.3395	138.87634
3.34	124.87793
3.3405	109.26819
3.341	100.20447
3.3415	87.51526
3.342	69.48853
3.3425	62.9425
3.343	50.85754
3.3435	45.82214
3.344	34.84497
3.3445	23.36426
3.345	7.95593
3.3455	-5.53894
3.346	-21.04797
3.3465	-50.2533
3.347	-66.26587
3.3475	-73.81897
3.348	-79.05579
3.3485	-121.85669
3.349	-172.61353
3.3495	-215.51514
3.35	-204.33655
3.3505	-167.98096
3.351	-127.89917
3.3515	-91.745
3.352	-50.45471
3.3525	-33.33435
3.353	-33.83789
3.3535	-8.25806
3.354	19.83948
3.3545	31.21948
3.355	33.43506
3.3555	36.25488
3.356	32.02515
3.3565	28.50037
3.357	25.47913
3.3575	37.66479
3.358	47.13135
3.3585	44.91577
3.359	64.55383
3.3595	84.39331
3.36	111.58447
3.3605	119.23828
3.361	103.125
3.3615	79.96216
3.362	57.40356
3.3625	47.7356
3.363	29.30603
3.3635	4.93469
3.364	-24.77417
3.3645	-43.90869
3.365	-71.80481
3.3655	-89.93225
3.366	-85.40039
3.3665	-85.29968
3.367	-86.60889
3.3675	-84.39331
3.368	-86.50818
3.3685	-85.09827
3.369	-75.22888
3.3695	-87.61597
3.37	-106.8512
3.3705	-134.74731
3.371	-144.6167
3.3715	-142.40112
3.372	-132.22961
3.3725	-137.46643
3.373	-117.42554
3.3735	-93.0542
3.374	-51.46179
3.3745	-3.52478
3.375	37.7655
3.3755	72.20764
3.376	107.25403
3.3765	121.15173
3.377	125.58289
3.3775	127.59705
3.378	129.10767
3.3785	129.00696
3.379	149.6521
3.3795	172.10999
3.38	185.30273
3.3805	181.97937
3.381	174.42627
3.3815	157.00378
3.382	127.99988
3.3825	88.62305
3.383	49.74976
3.3835	30.91736
3.384	13.39417
3.3845	-0.50354
3.385	-15.50903
3.3855	-22.55859
3.386	-44.11011
3.3865	-60.62622
3.387	-71.80481
3.3875	-75.12817
3.388	-69.58923
3.3885	-45.3186
3.389	-5.23682
3.3895	20.1416
3.39	29.70886
3.3905	24.57275
3.391	31.01807
3.3915	33.03223
3.392	32.22656
3.3925	38.77258
3.393	27.49329
3.3935	8.15735
3.394	-24.37134
3.3945	-42.09595
3.395	-73.31543
3.3955	-100.20447
3.396	-125.38147
3.3965	-139.07776
3.397	-148.74573
3.3975	-144.21387
3.398	-120.95032
3.3985	-98.19031
3.399	-89.328
3.3995	-76.84021
3.4	-51.5625
3.4005	-24.77417
3.401	-19.94019
3.4015	-25.78125
3.402	-21.85364
3.4025	-8.7616
3.403	21.14868
3.4035	50.05188
3.404	83.99048
3.4045	95.26978
3.405	115.41138
3.4055	138.47351
3.406	157.00378
3.4065	164.45618
3.407	152.97546
3.4075	146.93298
3.408	144.01245
3.4085	142.19971
3.409	129.00696
3.4095	97.38464
3.41	60.22339
3.4105	29.10461
3.411	-4.33044
3.4115	-23.36426
3.412	-8.56018
3.4125	7.15027
3.413	6.74744
3.4135	8.15735
3.414	6.3446
3.4145	6.54602
3.415	-2.81982
3.4155	-12.18567
3.416	-16.21399
3.4165	-24.27063
3.417	-37.66479
3.4175	-30.91736
3.418	-16.51611
3.4185	-16.3147
3.419	-15.60974
3.4195	-36.65771
3.42	-66.76941
3.4205	-96.17615
3.421	-117.52625
3.4215	-137.56714
3.422	-135.15015
3.4225	-127.49634
3.423	-119.23828
3.4235	-120.24536
3.424	-106.04553
3.4245	-92.04712
3.425	-79.55933
3.4255	-95.67261
3.426	-105.54199
3.4265	-118.43262
3.427	-122.86377
3.4275	-111.9873
3.428	-97.48535
3.4285	-88.92517
3.429	-78.85437
3.4295	-56.19507
3.43	-11.88354
3.4305	31.62231
3.431	61.12976
3.4315	93.15491
3.432	126.38855
3.4325	152.06909
3.433	173.92273
3.4335	178.5553
3.434	166.26892
3.4345	138.97705
3.435	126.08643
3.4355	128.90625
3.436	119.74182
3.4365	122.36023
3.437	123.97156
3.4375	129.00696
3.438	129.20837
3.4385	105.13916
3.439	66.46729
3.4395	32.32727
3.44	-5.53894
3.4405	-43.20374
3.441	-49.14551
3.4415	-47.93701
3.442	-53.97949
3.4425	-60.62622
3.443	-52.26746
3.4435	-41.69312
3.444	-34.03931
3.4445	-17.32178
3.445	6.84814
3.4455	35.65063
3.446	65.25879
3.4465	77.948
3.447	85.80322
3.4475	96.37756
3.448	94.66553
3.4485	95.5719
3.449	88.72375
3.4495	68.17932
3.45	42.8009
3.4505	33.13293
3.451	43.30444
3.4515	51.36108
3.452	34.14001
3.4525	13.69629
3.453	-16.51611
3.4535	-45.92285
3.454	-64.05029
3.4545	-78.55225
3.455	-109.67102
3.4555	-136.35864
3.456	-145.52307
3.4565	-138.07068
3.457	-112.49084
3.4575	-91.04004
3.458	-74.82605
3.4585	-75.4303
3.459	-101.31226
3.4595	-98.79456
3.46	-63.64746
3.4605	-32.93152
3.461	-7.04956
3.4615	20.04089
3.462	52.56958
3.4625	72.9126
3.463	82.68127
3.4635	83.08411
3.464	92.34924
3.4645	97.28394
3.465	98.39172
3.4655	98.89526
3.466	112.89368
3.4665	125.28076
3.467	134.84802
3.4675	131.82678
3.468	101.51367
3.4685	85.70251
3.469	74.12109
3.4695	68.28003
3.47	69.68994
3.4705	53.17383
3.471	16.71753
3.4715	7.95593
3.472	-2.31628
3.4725	-11.07788
3.473	-23.66638
3.4735	-25.88196
3.474	-24.57275
3.4745	-24.37134
3.475	-16.3147
3.4755	-12.5885
3.476	-9.76868
3.4765	-5.33752
3.477	9.66797
3.4775	17.52319
3.478	27.49329
3.4785	32.32727
3.479	34.64355
3.4795	27.09045
3.48	18.73169
3.4805	5.84106
3.481	6.04248
3.4815	6.64673
3.482	5.63965
3.4825	-23.66638
3.483	-57.10144
3.4835	-80.76782
3.484	-94.06128
3.4845	-92.04712
3.485	-94.76624
3.4855	-77.84729
3.486	-41.59241
3.4865	-23.26355
3.487	-7.35168
3.4875	3.8269
3.488	20.74585
3.4885	32.12585
3.489	38.16833
3.4895	41.08887
3.49	50.15259
3.4905	64.95667
3.491	72.81189
3.4915	67.37366
3.492	70.89844
3.4925	78.14941
3.493	81.37207
3.4935	83.58765
3.494	61.53259
3.4945	43.20374
3.495	46.42639
3.4955	54.98657
3.496	56.09436
3.4965	46.22498
3.497	34.84497
3.4975	21.55151
3.498	12.48779
3.4985	-6.44531
3.499	-15.81116
3.4995	-21.85364
3.5	-34.03931
3.5005	-27.59399
3.501	-56.09436
3.5015	-103.62854
3.502	-147.1344
3.5025	-185.30273
3.503	-212.39319
3.5035	-213.29956
3.504	-190.84167
3.5045	-157.91016
3.505	-134.14307
3.5055	-116.11633
3.506	-109.77173
3.5065	-99.90234
3.507	-126.38855
3.5075	-143.00537
3.508	-126.89209
3.5085	-101.71509
3.509	-75.73242
3.5095	-44.11011
3.51	-12.68921
3.5105	16.81824
3.511	43.60657
3.5115	45.52002
3.512	31.11877
3.5125	18.32886
3.513	8.45947
3.5135	-21.85364
3.514	-35.14709
3.5145	-18.22815
3.515	-4.22974
3.5155	32.93152
3.516	79.35791
3.5165	119.23828
3.517	135.15015
3.5175	126.28784
3.518	112.08801
3.5185	104.23279
3.519	103.72925
3.5195	111.58447
3.52	131.32324
3.5205	156.09741
3.521	148.94714
3.5215	131.22253
3.522	131.32324
3.5225	150.15564
3.523	166.47034
3.5235	171.90857
3.524	168.98804
3.5245	148.4436
3.525	118.63403
3.5255	104.4342
3.526	88.62305
3.5265	74.02039
3.527	67.97791
3.5275	69.08569
3.528	82.78198
3.5285	82.68127
3.529	82.88269
3.5295	63.94958
3.53	31.62231
3.5305	-5.43823
3.531	-49.85046
3.5315	-62.53967
3.532	-70.19348
3.5325	-83.08411
3.533	-90.33508
3.5335	-84.99756
3.534	-62.03613
3.5345	-45.41931
3.535	-37.36267
3.5355	-34.03931
3.536	-22.6593
3.5365	-18.32886
3.537	-3.92761
3.5375	17.72461
3.538	32.52869
3.5385	51.46179
3.539	59.31702
3.5395	53.87878
3.54	37.96692
3.5405	13.69629
3.541	-5.0354
3.5415	-16.61682
3.542	-21.24939
3.5425	-12.18567
3.543	-28.60107
3.5435	-55.18799
3.544	-80.56641
3.5445	-75.12817
3.545	-49.44763
3.5455	-21.95435
3.546	-8.25806
3.5465	-5.33752
3.547	-5.74036
3.5475	-3.32336
3.548	3.8269
3.5485	-0.90637
3.549	10.27222
3.5495	27.19116
3.55	11.88354
3.5505	1.81274
3.551	-17.92603
3.5515	-35.65063
3.552	-61.83472
3.5525	-87.21313
3.553	-91.94641
3.5535	-101.71509
3.554	-127.19421
3.5545	-119.33899
3.555	-108.76465
3.5555	-92.85278
3.556	-59.92126
3.5565	-21.24939
3.557	-1.51062
3.5575	9.66797
3.558	11.78284
3.5585	16.51611
3.559	21.75293
3.5595	48.44055
3.56	80.76782
3.5605	96.7804
3.561	78.45154
3.5615	42.19666
3.562	29.91028
3.5625	17.72461
3.563	-46.72852
3.5635	-86.20605
3.564	-87.41455
3.5645	-72.00623
3.565	-41.89453
3.5655	-22.15576
3.566	-11.17859
3.5665	2.41699
3.567	6.44531
3.5675	13.99841
3.568	5.53894
3.5685	8.96301
3.569	-8.05664
3.5695	-18.42957
3.57	-21.45081
3.5705	-28.09753
3.571	-30.11169
3.5715	-20.44373
3.572	-10.97717
3.5725	-15.00549
3.573	-2.81982
3.5735	21.95435
3.574	65.76233
3.5745	89.12659
3.575	107.05261
3.5755	118.33191
3.576	133.3374
3.5765	163.75122
3.577	172.71423
3.5775	145.01953
3.578	111.18164
3.5785	69.28711
3.579	48.13843
3.5795	62.74109
3.58	100.50659
3.5805	132.93457
3.581	156.29883
3.5815	154.78821
3.582	123.66943
3.5825	97.08252
3.583	62.9425
3.5835	47.23206
3.584	37.26196
3.5845	24.57275
3.585	13.99841
3.5855	-2.41699
3.586	-12.78992
3.5865	-31.82373
3.587	-51.46179
3.5875	-56.39648
3.588	-55.59082
3.5885	-40.78674
3.589	-21.24939
3.5895	-17.12036
3.59	-15.81116
3.5905	-30.41382
3.591	-71.80481
3.5915	-106.9519
3.592	-120.84961
3.5925	-112.89368
3.593	-98.19031
3.5935	-82.07703
3.594	-55.49011
3.5945	-37.56409
3.595	-29.91028
3.5955	-31.82373
3.596	-21.65222
3.5965	-14.80408
3.597	-11.38
3.5975	15.71045
3.598	25.177
3.5985	16.61682
3.599	5.13611
3.5995	3.02124
3.6	5.33752
3.6005	27.99683
3.601	65.56091
3.6015	81.7749
3.602	71.80481
3.6025	71.60339
3.603	74.12109
3.6035	67.57507
3.604	55.08728
3.6045	40.58533
3.605	27.39258
3.6055	31.4209
3.606	18.42957
3.6065	14.80408
3.607	-3.62549
3.6075	-16.01257
3.608	-33.63647
3.6085	-58.30994
3.609	-77.54517
3.6095	-74.42322
3.61	-61.83472
3.6105	-53.77808
3.611	-59.82056
3.6115	-69.79065
3.612	-95.37048
3.6125	-122.05811
3.613	-114.10217
3.6135	-95.16907
3.614	-76.94092
3.6145	-50.354
3.615	-31.32019
3.6155	-11.07788
3.616	1.00708
3.6165	-4.33044
3.617	2.5177
3.6175	12.38708
3.618	34.64355
3.6185	52.36816
3.619	58.10852
3.6195	52.36816
3.62	41.99524
3.6205	22.05505
3.621	13.09204
3.6215	8.35876
3.622	20.04089
3.6225	31.01807
3.623	38.47046
3.6235	52.16675
3.624	94.3634
3.6245	113.59863
3.625	127.19421
3.6255	122.25952
3.626	121.05103
3.6265	106.44836
3.627	101.11084
3.6275	98.89526
3.628	77.24304
3.6285	19.63806
3.629	-37.96692
3.6295	-70.79773
3.63	-80.16357
3.6305	-57.9071
3.631	-22.05505
3.6315	-7.5531
3.632	15.50903
3.6325	27.39258
3.633	18.93311
3.6335	-12.18567
3.634	-37.7655
3.6345	-44.61365
3.635	-28.80249
3.6355	-10.17151
3.636	-8.05664
3.6365	-8.56018
3.637	-13.69629
3.6375	-19.63806
3.638	-22.55859
3.6385	-10.57434
3.639	1.81274
3.6395	-1.00708
3.64	-29.60815
3.6405	-48.64197
3.641	-73.01331
3.6415	-79.96216
3.642	-54.38232
3.6425	-35.95276
3.643	-55.69153
3.6435	-63.14392
3.644	-27.6947
3.6445	11.58142
3.645	39.37683
3.6455	45.41931
3.646	37.46338
3.6465	36.85913
3.647	46.72852
3.6475	65.66162
3.648	91.94641
3.6485	110.37598
3.649	119.13757
3.6495	124.97864
3.65	139.5813
3.6505	140.28625
3.651	116.51917
3.6515	89.02588
3.652	59.92126
3.6525	20.64514
3.653	-30.91736
3.6535	-69.79065
3.654	-89.63013
3.6545	-122.36023
3.655	-123.87085
3.6555	-115.91492
3.656	-119.64111
3.6565	-144.31458
3.657	-159.32007
3.6575	-143.4082
3.658	-131.82678
3.6585	-99.49951
3.659	-48.44055
3.6595	10.0708
3.66	60.22339
3.6605	87.11243
3.661	82.27844
3.6615	32.22656
3.662	-28.39966
3.6625	-60.4248
3.663	-113.39722
3.6635	-154.28467
3.664	-150.55847
3.6645	-109.16748
3.665	-58.30994
3.6655	-11.58142
3.666	21.55151
3.6665	61.6333
3.667	101.8158
3.6675	126.18713
3.668	153.88184
3.6685	171.90857
3.669	162.54272
3.6695	146.32874
3.67	125.28076
3.6705	96.07544
3.671	64.05029
3.6715	46.62781
3.672	24.06921
3.6725	14.80408
3.673	21.65222
3.6735	31.4209
3.674	54.58374
3.6745	58.41064
3.675	47.43347
3.6755	23.16284
3.676	-13.49487
3.6765	-34.64355
3.677	-24.06921
3.6775	-1.3092
3.678	35.54993
3.6785	57.9071
3.679	64.35242
3.6795	62.03613
3.68	46.82922
3.6805	31.11877
3.681	24.16992
3.6815	34.14001
3.682	35.85205
3.6825	49.85046
3.683	61.53259
3.6835	83.08411
3.684	111.58447
3.6845	112.18872
3.685	98.69385
3.6855	72.9126
3.686	13.09204
3.6865	-38.36975
3.687	-109.16748
3.6875	-142.40112
3.688	-131.22253
3.6885	-114.20288
3.689	-82.37915
3.6895	-63.04321
3.69	-44.71436
3.6905	-30.71594
3.691	-9.46655
3.6915	18.02673
3.692	45.52002
3.6925	46.22498
3.693	34.03931
3.6935	21.65222
3.694	11.07788
3.6945	0.90637
3.695	-24.97559
3.6955	-30.61523
3.696	-19.83948
3.6965	-6.54602
3.697	-2.5177
3.6975	12.18567
3.698	26.88904
3.6985	39.98108
3.699	46.32568
3.6995	43.70728
3.7	9.26514
3.7005	-43.30444
3.701	-84.39331
3.7015	-97.18323
3.702	-106.75049
3.7025	-108.96606
3.703	-102.52075
3.7035	-64.75525
3.704	-27.39258
3.7045	2.41699
3.705	34.34143
3.7055	63.54675
3.706	95.47119
3.7065	77.948
3.707	58.20923
3.7075	57.00073
3.708	50.75684
3.7085	30.91736
3.709	25.98267
3.7095	32.42798
3.71	56.19507
3.7105	70.29419
3.711	51.96533
3.7115	24.06921
3.712	-23.76709
3.7125	-70.19348
3.713	-93.55774
3.7135	-95.16907
3.714	-83.28552
3.7145	-64.151
3.715	-44.51294
3.7155	-15.1062
3.716	32.7301
3.7165	48.74268
3.717	55.89294
3.7175	66.87012
3.718	89.63013
3.7185	91.44287
3.719	99.2981
3.7195	111.28235
3.72	132.33032
3.7205	128.302
3.721	112.08801
3.7215	89.63013
3.722	66.56799
3.7225	34.34143
3.723	8.25806
3.7235	-12.5885
3.724	-27.59399
3.7245	-18.42957
3.725	-3.8269
3.7255	12.99133
3.726	7.5531
3.7265	-11.2793
3.727	-24.06921
3.7275	-31.82373
3.728	-18.53027
3.7285	-18.8324
3.729	-47.53418
3.7295	-85.19897
3.73	-106.34766
3.7305	-89.328
3.731	-45.62073
3.7315	-9.46655
3.732	9.76868
3.7325	-3.02124
3.733	-22.45789
3.7335	-5.63965
3.734	12.28638
3.7345	25.07629
3.735	10.27222
3.7355	-33.83789
3.736	-67.47437
3.7365	-83.48694
3.737	-104.83704
3.7375	-107.35474
3.738	-88.92517
3.7385	-78.14941
3.739	-51.86462
3.7395	-23.16284
3.74	13.29346
3.7405	47.7356
3.741	83.38623
3.7415	114.00146
3.742	114.60571
3.7425	85.80322
3.743	70.99915
3.7435	57.30286
3.744	44.71436
3.7445	16.11328
3.745	-1.51062
3.7455	1.00708
3.746	0.20142
3.7465	9.56726
3.747	31.72302
3.7475	52.36816
3.748	58.10852
3.7485	32.83081
3.749	21.85364
3.7495	27.19116
3.75	22.86072
3.7505	20.04089
3.751	21.65222
3.7515	35.75134
3.752	71.20056
3.7525	103.32642
3.753	119.4397
3.7535	121.9574
3.754	117.02271
3.7545	120.7489
3.755	117.32483
3.7555	103.82996
3.756	89.12659
3.7565	67.67578
3.757	48.23914
3.7575	12.89062
3.758	-29.50745
3.7585	-89.02588
3.759	-173.01636
3.7595	-242.30347
3.76	-278.65906
3.7605	-322.26562
3.761	-341.90369
3.7615	-323.172
3.762	-266.6748
3.7625	-208.16345
3.763	-155.29175
3.7635	-97.38464
3.764	-43.20374
3.7645	7.65381
3.765	42.8009
3.7655	68.38074
3.766	105.84412
3.7665	132.63245
3.767	144.81812
3.7675	137.0636
3.768	99.49951
3.7685	69.99207
3.769	48.23914
3.7695	11.07788
3.77	-34.84497
3.7705	-44.61365
3.771	-37.06055
3.7715	-17.12036
3.772	-1.91345
3.7725	34.64355
3.773	53.27454
3.7735	20.44373
3.774	-28.19824
3.7745	-54.28162
3.775	-59.01489
3.7755	-65.86304
3.776	-53.97949
3.7765	-22.15576
3.777	10.57434
3.7775	30.91736
3.778	66.87012
3.7785	109.16748
3.779	148.14148
3.7795	177.85034
3.78	199.50256
3.7805	190.84167
3.781	170.19653
3.7815	161.33423
3.782	158.71582
3.7825	146.93298
3.783	128.60413
3.7835	109.06677
3.784	86.20605
3.7845	60.12268
3.785	34.84497
3.7855	20.84656
3.786	16.71753
3.7865	6.2439
3.787	-2.61841
3.7875	-16.91895
3.788	-47.53418
3.7885	-66.26587
3.789	-65.66162
3.7895	-55.79224
3.79	-64.85596
3.7905	-48.74268
3.791	-73.91968
3.7915	-86.10535
3.792	-78.04871
3.7925	-67.77649
3.793	-54.78516
3.7935	-51.76392
3.794	-45.01648
3.7945	-43.30444
3.795	-34.74426
3.7955	-36.65771
3.796	-36.05347
3.7965	-30.41382
3.797	-20.74585
3.7975	-14.80408
3.798	9.26514
3.7985	20.34302
3.799	30.31311
3.7995	35.85205
3.8	11.78284
3.8005	-8.05664
3.801	-34.64355
3.8015	-62.43896
3.802	-67.27295
3.8025	-83.48694
3.803	-115.81421
3.8035	-114.90784
3.804	-73.01331
3.8045	-27.6947
3.805	16.41541
3.8055	76.53809
3.806	119.64111
3.8065	136.35864
3.807	127.69775
3.8075	76.43738
3.808	52.06604
3.8085	23.16284
3.809	-25.88196
3.8095	-73.21472
3.81	-123.36731
3.8105	-149.34998
3.811	-144.51599
3.8115	-139.88342
3.812	-136.96289
3.8125	-117.82837
3.813	-90.63721
3.8135	-73.91968
3.814	-49.34692
3.8145	-18.42957
3.815	9.36584
3.8155	35.04639
3.816	63.84888
3.8165	92.24854
3.817	57.20215
3.8175	6.64673
3.818	-40.08179
3.8185	-66.97083
3.819	-62.8418
3.8195	-35.65063
3.82	-12.99133
3.8205	31.52161
3.821	63.44604
3.8215	70.79773
3.822	75.22888
3.8225	44.71436
3.823	-26.48621
3.8235	-77.948
3.824	-100.70801
3.8245	-95.16907
3.825	-38.57117
3.8255	11.88354
3.826	46.72852
3.8265	57.10144
3.827	79.96216
3.8275	102.11792
3.828	126.89209
3.8285	150.35706
3.829	153.88184
3.8295	164.25476
3.83	190.03601
3.8305	227.49939
3.831	264.66064
3.8315	294.57092
3.832	312.39624
3.8325	293.0603
3.833	238.87939
3.8335	185.10132
3.834	123.46802
3.8345	55.69153
3.835	0.20142
3.8355	-19.94019
3.836	-17.12036
3.8365	-13.19275
3.837	-11.58142
3.8375	-6.3446
3.838	-6.54602
3.8385	-8.35876
3.839	-15.50903
3.8395	-34.64355
3.84	-85.5011
3.8405	-162.94556
3.841	-210.17761
3.8415	-219.44275
3.842	-226.29089
3.8425	-214.10522
3.843	-192.25159
3.8435	-149.04785
3.844	-101.11084
3.8445	-67.37366
3.845	-48.54126
3.8455	-27.19116
3.846	-9.46655
3.8465	6.94885
3.847	41.89453
3.8475	74.32251
3.848	127.89917
3.8485	171.40503
3.849	203.93372
3.8495	203.43018
3.85	149.95422
3.8505	78.14941
3.851	-5.94177
3.8515	-66.56799
