Alessio_Russo_Right_2.c3d  



Time(s):	A_R_bicipite(μV):
0	-102.01721
0.0005	-77.74658
0.001	-48.64197
0.0015	-21.3501
0.002	13.29346
0.0025	44.81506
0.003	64.25171
0.0035	46.72852
0.004	-3.02124
0.0045	-50.354
0.005	-70.09277
0.0055	-60.72693
0.006	-57.70569
0.0065	-24.06921
0.007	1.71204
0.0075	49.85046
0.008	93.0542
0.0085	125.38147
0.009	148.4436
0.0095	146.42944
0.01	115.00854
0.0105	94.16199
0.011	95.87402
0.0115	106.04553
0.012	87.81738
0.0125	68.17932
0.013	66.36658
0.0135	65.86304
0.014	49.44763
0.0145	35.04639
0.015	9.86938
0.0155	0
0.016	-10.67505
0.0165	-86.00464
0.017	-196.58203
0.0175	-284.29871
0.018	-326.89819
0.0185	-371.20972
0.019	-374.7345
0.0195	-336.76758
0.02	-261.13586
0.0205	-200.40894
0.021	-146.63086
0.0215	-95.37048
0.022	-52.8717
0.0225	-6.3446
0.023	22.96143
0.0235	5.33752
0.024	-24.16992
0.0245	-50.95825
0.025	-47.8363
0.0255	-3.7262
0.026	72.81189
0.0265	128.60413
0.027	163.65051
0.0275	198.09265
0.028	227.19727
0.0285	229.71497
0.029	226.69373
0.0295	209.37195
0.03	194.87
0.0305	189.23035
0.031	198.29407
0.0315	213.90381
0.032	238.67798
0.0325	238.9801
0.033	229.71497
0.0335	209.27124
0.034	164.15405
0.0345	140.48767
0.035	143.4082
0.0355	142.099
0.036	152.27051
0.0365	148.04077
0.037	121.9574
0.0375	84.89685
0.038	55.2887
0.0385	39.17542
0.039	26.18408
0.0395	-11.17859
0.04	-40.1825
0.0405	-62.64038
0.041	-65.76233
0.0415	-65.76233
0.042	-32.7301
0.0425	5.13611
0.043	34.54285
0.0435	59.71985
0.044	74.92676
0.0445	96.7804
0.045	104.63562
0.0455	105.6427
0.046	104.4342
0.0465	93.96057
0.047	73.91968
0.0475	37.7655
0.048	-0.40283
0.0485	-41.29028
0.049	-103.72925
0.0495	-164.95972
0.05	-262.64648
0.0505	-334.75342
0.051	-365.26794
0.0515	-406.65894
0.052	-392.66052
0.0525	-348.85254
0.053	-283.39233
0.0535	-193.46008
0.054	-93.45703
0.0545	0.80566
0.055	51.05896
0.0555	88.22021
0.056	110.37598
0.0565	132.33032
0.057	137.76855
0.0575	137.86926
0.058	157.00378
0.0585	160.83069
0.059	154.58679
0.0595	113.90076
0.06	39.07471
0.0605	-71.60339
0.061	-164.05334
0.0615	-189.73389
0.062	-173.5199
0.0625	-115.31067
0.063	-43.20374
0.0635	38.77258
0.064	88.82446
0.0645	110.6781
0.065	110.07385
0.0655	99.49951
0.066	89.328
0.0665	70.59631
0.067	42.7002
0.0675	3.02124
0.068	-33.73718
0.0685	-68.78357
0.069	-117.82837
0.0695	-179.96521
0.07	-215.31372
0.0705	-179.66309
0.071	-125.48218
0.0715	-60.72693
0.072	26.48621
0.0725	91.04004
0.073	136.56006
0.0735	149.04785
0.074	102.11792
0.0745	17.42249
0.075	-81.87561
0.0755	-164.65759
0.076	-188.12256
0.0765	-175.83618
0.077	-179.36096
0.0775	-166.67175
0.078	-154.98962
0.0785	-136.15723
0.079	-123.97156
0.0795	-64.95667
0.08	-3.62549
0.0805	46.12427
0.081	89.52942
0.0815	141.59546
0.082	185.50415
0.0825	205.14221
0.083	214.60876
0.0835	218.73779
0.084	234.44824
0.0845	248.54736
0.085	243.51196
0.0855	208.16345
0.086	176.23901
0.0865	130.31616
0.087	96.8811
0.0875	83.38623
0.088	92.04712
0.0885	106.54907
0.089	129.71191
0.0895	176.33972
0.09	200.81177
0.0905	208.7677
0.091	214.10522
0.0915	201.51672
0.092	169.7937
0.0925	131.72607
0.093	91.14075
0.0935	46.42639
0.094	19.33594
0.0945	12.48779
0.095	7.95593
0.0955	13.19275
0.096	24.47205
0.0965	27.19116
0.097	23.16284
0.0975	17.42249
0.098	20.24231
0.0985	18.8324
0.099	12.99133
0.0995	-5.33752
0.1	-33.13293
0.1005	-87.21313
0.101	-144.91882
0.1015	-167.67883
0.102	-180.16663
0.1025	-202.92664
0.103	-217.83142
0.1035	-235.85815
0.104	-252.97852
0.1045	-283.99658
0.105	-296.98792
0.1055	-302.02332
0.106	-285.30579
0.1065	-268.38684
0.107	-252.27356
0.1075	-217.32788
0.108	-175.53406
0.1085	-133.84094
0.109	-96.47827
0.1095	-36.35559
0.11	43.60657
0.1105	102.31934
0.111	147.94006
0.1115	178.05176
0.112	200.10681
0.1125	211.58752
0.113	233.54187
0.1135	248.24524
0.114	220.047
0.1145	194.06433
0.115	172.51282
0.1155	164.15405
0.116	161.23352
0.1165	125.58289
0.117	89.02588
0.1175	75.02747
0.118	78.25012
0.1185	79.15649
0.119	71.30127
0.1195	22.35718
0.12	-78.75366
0.1205	-155.09033
0.121	-195.97778
0.1215	-214.40735
0.122	-211.88965
0.1225	-225.0824
0.123	-242.10205
0.1235	-296.68579
0.124	-381.48193
0.1245	-400.41504
0.125	-376.34583
0.1255	-290.84473
0.126	-190.03601
0.1265	-89.73083
0.127	-8.15735
0.1275	52.8717
0.128	104.53491
0.1285	141.39404
0.129	179.96521
0.1295	215.1123
0.13	235.95886
0.1305	258.81958
0.131	259.021
0.1315	222.46399
0.132	205.64575
0.1325	208.36487
0.133	199.50256
0.1335	172.10999
0.134	135.04944
0.1345	123.56873
0.135	118.13049
0.1355	119.54041
0.136	121.55457
0.1365	112.39014
0.137	45.92285
0.1375	-48.23914
0.138	-139.68201
0.1385	-243.20984
0.139	-264.45923
0.1395	-247.43958
0.14	-178.25317
0.1405	-100.80872
0.141	-7.75452
0.1415	83.58765
0.142	148.14148
0.1425	203.02734
0.143	222.46399
0.1435	223.57178
0.144	210.98328
0.1445	204.63867
0.145	189.83459
0.1455	170.59937
0.146	146.53015
0.1465	130.51758
0.147	134.64661
0.1475	126.08643
0.148	108.05969
0.1485	87.61597
0.149	40.58533
0.1495	-81.47278
0.15	-195.07141
0.1505	-256.30188
0.151	-296.28296
0.1515	-298.39783
0.152	-258.61816
0.1525	-202.72522
0.153	-135.04944
0.1535	-77.948
0.154	-22.86072
0.1545	21.45081
0.155	64.151
0.1555	95.67261
0.156	108.36182
0.1565	116.51917
0.157	92.55066
0.1575	66.26587
0.158	56.39648
0.1585	26.68762
0.159	-14.80408
0.1595	-53.77808
0.16	-95.16907
0.1605	-130.41687
0.161	-149.24927
0.1615	-157.00378
0.162	-186.1084
0.1625	-245.12329
0.163	-278.45764
0.1635	-273.42224
0.164	-234.64966
0.1645	-156.09741
0.165	-92.55066
0.1655	-21.04797
0.166	40.98816
0.1665	93.75916
0.167	131.32324
0.1675	159.7229
0.168	180.77087
0.1685	191.34521
0.169	206.35071
0.1695	231.22559
0.17	256.80542
0.1705	269.99817
0.171	284.198
0.1715	267.58118
0.172	203.32947
0.1725	138.07068
0.173	62.23755
0.1735	-4.63257
0.174	-75.12817
0.1745	-121.05103
0.175	-128.60413
0.1755	-105.84412
0.176	-70.49561
0.1765	-35.14709
0.177	7.85522
0.1775	55.89294
0.178	78.25012
0.1785	88.0188
0.179	91.94641
0.1795	91.44287
0.18	89.02588
0.1805	84.49402
0.181	89.93225
0.1815	84.49402
0.182	75.02747
0.1825	70.69702
0.183	35.95276
0.1835	-15.60974
0.184	-40.88745
0.1845	-56.90002
0.185	-66.46729
0.1855	-51.46179
0.186	-52.26746
0.1865	-77.34375
0.187	-119.03687
0.1875	-160.22644
0.188	-202.12097
0.1885	-238.57727
0.189	-220.047
0.1895	-156.70166
0.19	-91.8457
0.1905	-33.43506
0.191	25.88196
0.1915	61.02905
0.192	88.72375
0.1925	109.06677
0.193	110.77881
0.1935	108.36182
0.194	103.125
0.1945	110.27527
0.195	129.10767
0.1955	158.31299
0.196	164.25476
0.1965	139.5813
0.197	85.5011
0.1975	-28.29895
0.198	-117.82837
0.1985	-150.45776
0.199	-163.14697
0.1995	-148.24219
0.2	-105.23987
0.2005	-55.69153
0.201	0.50354
0.2015	52.06604
0.202	101.9165
0.2025	128.80554
0.203	140.28625
0.2035	117.82837
0.204	37.36267
0.2045	-54.98657
0.205	-129.30908
0.2055	-173.5199
0.206	-190.94238
0.2065	-192.453
0.207	-171.90857
0.2075	-139.98413
0.208	-105.13916
0.2085	-62.74109
0.209	-16.11328
0.2095	22.35718
0.21	55.3894
0.2105	78.14941
0.211	101.8158
0.2115	120.24536
0.212	138.17139
0.2125	148.54431
0.213	159.32007
0.2135	150.45776
0.214	122.56165
0.2145	128.10059
0.215	135.95581
0.2155	131.52466
0.216	106.64978
0.2165	89.12659
0.217	89.12659
0.2175	89.12659
0.218	89.12659
0.2185	89.12659
0.219	89.12659
0.2195	89.12659
0.22	89.12659
0.2205	89.12659
0.221	89.12659
0.2215	89.12659
0.222	89.12659
0.2225	89.12659
0.223	89.12659
0.2235	89.12659
0.224	89.12659
0.2245	89.12659
0.225	89.12659
0.2255	89.12659
0.226	89.12659
0.2265	89.12659
0.227	-69.08569
0.2275	4.93469
0.228	92.85278
0.2285	171.60645
0.229	255.79834
0.2295	325.99182
0.23	365.36865
0.2305	372.92175
0.231	354.29077
0.2315	314.4104
0.232	276.44348
0.2325	272.71729
0.233	290.74402
0.2335	304.54102
0.234	301.31836
0.2345	295.67871
0.235	283.39233
0.2355	252.67639
0.236	210.0769
0.2365	176.84326
0.237	143.00537
0.2375	88.52234
0.238	-5.53894
0.2385	-98.79456
0.239	-141.99829
0.2395	-157.00378
0.24	-168.38379
0.2405	-210.17761
0.241	-231.52771
0.2415	-221.3562
0.242	-195.27283
0.2425	-142.40112
0.243	-108.86536
0.2435	-87.41455
0.244	-62.03613
0.2445	-44.11011
0.245	-30.41382
0.2455	-17.6239
0.246	14.19983
0.2465	48.84338
0.247	66.87012
0.2475	66.36658
0.248	90.03296
0.2485	124.37439
0.249	117.02271
0.2495	90.13367
0.25	52.771
0.2505	20.04089
0.251	11.58142
0.2515	17.72461
0.252	9.97009
0.2525	-2.81982
0.253	2.92053
0.2535	30.31311
0.254	44.81506
0.2545	53.77808
0.255	60.12268
0.2555	59.21631
0.256	60.72693
0.2565	64.75525
0.257	54.68445
0.2575	27.09045
0.258	4.83398
0.2585	-17.22107
0.259	-25.27771
0.2595	0.30212
0.26	29.40674
0.2605	42.7002
0.261	44.21082
0.2615	39.98108
0.262	18.63098
0.2625	0.10071
0.263	-4.53186
0.2635	-3.22266
0.264	3.02124
0.2645	9.16443
0.265	8.35876
0.2655	7.85522
0.266	12.78992
0.2665	-4.53186
0.267	-57.40356
0.2675	-96.47827
0.268	-134.84802
0.2685	-178.35388
0.269	-207.76062
0.2695	-187.21619
0.27	-147.53723
0.2705	-95.26978
0.271	-48.54126
0.2715	-2.01416
0.272	10.0708
0.2725	10.27222
0.273	-8.25806
0.2735	-8.96301
0.274	-6.74744
0.2745	13.59558
0.275	29.40674
0.2755	42.19666
0.276	59.1156
0.2765	63.64746
0.277	57.40356
0.2775	48.54126
0.278	57.8064
0.2785	73.21472
0.279	89.63013
0.2795	102.62146
0.28	122.05811
0.2805	124.67651
0.281	115.20996
0.2815	100.90942
0.282	43.40515
0.2825	-33.03223
0.283	-120.95032
0.2835	-181.17371
0.284	-227.6001
0.2845	-246.4325
0.285	-257.71179
0.2855	-241.29639
0.286	-204.53796
0.2865	-152.67334
0.287	-107.75757
0.2875	-97.28394
0.288	-131.82678
0.2885	-187.61902
0.289	-196.1792
0.2895	-168.58521
0.29	-132.33032
0.2905	-76.33667
0.291	-13.09204
0.2915	50.85754
0.292	86.10535
0.2925	125.58289
0.293	171.70715
0.2935	206.85425
0.294	219.74487
0.2945	187.31689
0.295	144.41528
0.2955	111.18164
0.296	52.67029
0.2965	-20.04089
0.297	-61.23047
0.2975	-79.66003
0.298	-70.99915
0.2985	-44.91577
0.299	-4.63257
0.2995	26.68762
0.3	47.23206
0.3005	66.76941
0.301	51.66321
0.3015	32.42798
0.302	19.23523
0.3025	20.64514
0.303	34.03931
0.3035	61.43188
0.304	111.08093
0.3045	167.37671
0.305	213.09814
0.3055	265.16418
0.306	309.57642
0.3065	315.82031
0.307	299.60632
0.3075	227.39868
0.308	155.49316
0.3085	94.66553
0.309	64.25171
0.3095	54.88586
0.31	54.68445
0.3105	30.41382
0.311	-5.0354
0.3115	-42.7002
0.312	-59.41772
0.3125	-64.55383
0.313	-66.26587
0.3135	-78.75366
0.314	-104.93774
0.3145	-121.25244
0.315	-115.20996
0.3155	-100.70801
0.316	-76.63879
0.3165	-54.58374
0.317	-29.80957
0.3175	2.31628
0.318	23.36426
0.3185	37.46338
0.319	43.10303
0.3195	37.46338
0.32	34.64355
0.3205	19.73877
0.321	2.71912
0.3215	-1.71204
0.322	-12.78992
0.3225	-27.19116
0.323	-14.60266
0.3235	-2.92053
0.324	16.21399
0.3245	27.59399
0.325	36.25488
0.3255	36.85913
0.326	34.54285
0.3265	16.71753
0.327	-0.10071
0.3275	-10.0708
0.328	-8.25806
0.3285	-8.7616
0.329	1.40991
0.3295	5.84106
0.33	-4.43115
0.3305	-7.95593
0.331	-8.7616
0.3315	-8.96301
0.332	-14.70337
0.3325	-15.50903
0.333	-35.2478
0.3335	-84.39331
0.334	-127.89917
0.3345	-206.25
0.335	-269.0918
0.3355	-318.64014
0.336	-356.20422
0.3365	-389.13574
0.337	-418.44177
0.3375	-447.24426
0.338	-472.21985
0.3385	-441.00037
0.339	-360.63538
0.3395	-234.34753
0.34	-104.53491
0.3405	15.91187
0.341	99.09668
0.3415	142.80396
0.342	166.67175
0.3425	178.95813
0.343	210.0769
0.3435	248.14453
0.344	271.20667
0.3445	264.96277
0.345	234.85107
0.3455	205.94788
0.346	190.94238
0.3465	198.39478
0.347	190.23743
0.3475	166.0675
0.348	152.87476
0.3485	151.36414
0.349	143.91174
0.3495	127.79846
0.35	111.9873
0.3505	99.2981
0.351	84.69543
0.3515	65.56091
0.352	54.88586
0.3525	54.88586
0.353	26.08337
0.3535	-39.67896
0.354	-168.28308
0.3545	-265.26489
0.355	-281.6803
0.3555	-236.66382
0.356	-187.61902
0.3565	-134.04236
0.357	-59.21631
0.3575	26.78833
0.358	128.40271
0.3585	172.10999
0.359	188.32397
0.3595	198.09265
0.36	196.07849
0.3605	181.17371
0.361	160.12573
0.3615	161.33423
0.362	179.46167
0.3625	190.94238
0.363	175.13123
0.3635	145.22095
0.364	116.82129
0.3645	98.79456
0.365	66.16516
0.3655	25.177
0.366	-10.67505
0.3665	-38.36975
0.367	-44.31152
0.3675	-35.95276
0.368	-43.20374
0.3685	-63.54675
0.369	-56.69861
0.3695	-43.30444
0.37	-25.37842
0.3705	-10.0708
0.371	-2.11487
0.3715	0.60425
0.372	-18.8324
0.3725	-75.73242
0.373	-107.45544
0.3735	-112.18872
0.374	-89.328
0.3745	-48.64197
0.375	-11.48071
0.3755	24.57275
0.376	44.51294
0.3765	62.03613
0.377	83.58765
0.3775	108.66394
0.378	139.48059
0.3785	136.96289
0.379	140.38696
0.3795	126.79138
0.38	113.09509
0.3805	100.10376
0.381	93.55774
0.3815	97.38464
0.382	54.98657
0.3825	1.2085
0.383	-40.48462
0.3835	-58.41064
0.384	-68.48145
0.3845	-85.5011
0.385	-102.92358
0.3855	-110.57739
0.386	-103.125
0.3865	-78.55225
0.387	-40.2832
0.3875	0.20142
0.388	14.19983
0.3885	11.98425
0.389	13.797
0.3895	19.23523
0.39	23.16284
0.3905	37.36267
0.391	38.87329
0.3915	48.33984
0.392	53.07312
0.3925	30.41382
0.393	-15.30762
0.3935	-61.73401
0.394	-109.4696
0.3945	-157.00378
0.395	-187.51831
0.3955	-207.05566
0.396	-227.49939
0.3965	-251.4679
0.397	-261.03516
0.3975	-231.93054
0.398	-187.01477
0.3985	-137.76855
0.399	-98.29102
0.3995	-26.3855
0.4	22.45789
0.4005	27.6947
0.401	33.33435
0.4015	52.8717
0.402	82.68127
0.4025	102.21863
0.403	124.27368
0.4035	137.0636
0.404	148.14148
0.4045	166.47034
0.405	182.08008
0.4055	181.67725
0.406	135.65369
0.4065	35.85205
0.407	-50.85754
0.4075	-103.42712
0.408	-128.50342
0.4085	-130.51758
0.409	-121.65527
0.4095	-92.14783
0.41	-52.06604
0.4105	-6.14319
0.411	32.42798
0.4115	56.69861
0.412	93.45703
0.4125	72.50977
0.413	24.87488
0.4135	17.6239
0.414	25.37842
0.4145	48.03772
0.415	73.61755
0.4155	91.04004
0.416	107.85828
0.4165	110.77881
0.417	111.58447
0.4175	96.7804
0.418	59.1156
0.4185	-2.01416
0.419	-70.59631
0.4195	-155.19104
0.42	-191.84875
0.4205	-174.8291
0.421	-112.79297
0.4215	-46.5271
0.422	18.12744
0.4225	76.7395
0.423	120.95032
0.4235	170.49866
0.424	195.77637
0.4245	209.67407
0.425	202.32239
0.4255	191.64734
0.426	169.7937
0.4265	148.54431
0.427	126.28784
0.4275	103.32642
0.428	89.83154
0.4285	94.86694
0.429	76.43738
0.4295	55.18799
0.43	37.06055
0.4305	13.69629
0.431	6.3446
0.4315	5.84106
0.432	-11.88354
0.4325	-35.95276
0.433	-61.33118
0.4335	-106.14624
0.434	-203.22876
0.4345	-269.79675
0.435	-276.6449
0.4355	-253.07922
0.436	-186.61194
0.4365	-122.36023
0.437	-66.87012
0.4375	-3.02124
0.438	71.60339
0.4385	129.40979
0.439	146.83228
0.4395	147.94006
0.44	155.39246
0.4405	161.13281
0.441	145.32166
0.4415	124.87793
0.442	98.99597
0.4425	73.91968
0.443	66.16516
0.4435	60.02197
0.444	35.44922
0.4445	14.60266
0.445	-5.0354
0.4455	-15.60974
0.446	-17.72461
0.4465	-10.57434
0.447	-0.90637
0.4475	-14.40125
0.448	-46.5271
0.4485	-76.63879
0.449	-112.18872
0.4495	-153.98254
0.45	-214.70947
0.4505	-252.87781
0.451	-261.03516
0.4515	-255.69763
0.452	-228.10364
0.4525	-214.81018
0.453	-176.54114
0.4535	-133.74023
0.454	-95.5719
0.4545	-64.05029
0.455	-46.82922
0.4555	-21.75293
0.456	-0.40283
0.4565	-3.42407
0.457	13.09204
0.4575	42.90161
0.458	69.38782
0.4585	98.29102
0.459	152.27051
0.4595	187.82043
0.46	197.4884
0.4605	177.24609
0.461	156.70166
0.4615	146.02661
0.462	147.94006
0.4625	154.98962
0.463	172.3114
0.4635	194.66858
0.464	211.78894
0.4645	218.63708
0.465	208.96912
0.4655	180.67017
0.466	128.60413
0.4665	81.27136
0.467	21.24939
0.4675	-48.03772
0.468	-115.61279
0.4685	-145.22095
0.469	-172.51282
0.4695	-157.70874
0.47	-127.29492
0.4705	-84.2926
0.471	-42.59949
0.4715	8.66089
0.472	48.44055
0.4725	73.71826
0.473	101.41296
0.4735	109.57031
0.474	99.60022
0.4745	89.73083
0.475	78.95508
0.4755	69.58923
0.476	56.90002
0.4765	13.69629
0.477	-26.28479
0.4775	-53.27454
0.478	-63.24463
0.4785	-66.16516
0.479	-61.33118
0.4795	-79.76074
0.48	-103.32642
0.4805	-122.36023
0.481	-144.11316
0.4815	-155.59387
0.482	-156.80237
0.4825	-170.09583
0.483	-174.72839
0.4835	-179.76379
0.484	-164.95972
0.4845	-165.36255
0.485	-159.62219
0.4855	-129.5105
0.486	-89.63013
0.4865	-70.49561
0.487	-51.96533
0.4875	-30.81665
0.488	-6.84814
0.4885	17.12036
0.489	26.08337
0.4895	-3.92761
0.49	-24.06921
0.4905	-11.48071
0.491	4.63257
0.4915	32.93152
0.492	75.12817
0.4925	109.97314
0.493	136.45935
0.4935	149.34998
0.494	159.32007
0.4945	120.44678
0.495	67.97791
0.4955	21.85364
0.496	-11.98425
0.4965	-20.24231
0.497	-20.54443
0.4975	-23.46497
0.498	5.33752
0.4985	38.974
0.499	77.44446
0.4995	116.51917
0.5	134.84802
0.5005	104.63562
0.501	39.88037
0.5015	-19.23523
0.502	-73.41614
0.5025	-82.88269
0.503	-88.32092
0.5035	-83.88977
0.504	-56.79932
0.5045	-9.86938
0.505	43.10303
0.5055	100.20447
0.506	110.6781
0.5065	96.7804
0.507	75.63171
0.5075	47.93701
0.508	32.83081
0.5085	42.09595
0.509	38.47046
0.5095	31.01807
0.51	46.32568
0.5105	49.85046
0.511	42.59949
0.5115	29.30603
0.512	-7.25098
0.5125	-14.50195
0.513	-8.7616
0.5135	18.93311
0.514	40.38391
0.5145	60.72693
0.515	57.9071
0.5155	18.53027
0.516	-15.1062
0.5165	-41.29028
0.517	-48.74268
0.5175	-43.40515
0.518	-12.38708
0.5185	19.94019
0.519	58.61206
0.5195	85.60181
0.52	99.19739
0.5205	120.34607
0.521	107.45544
0.5215	99.09668
0.522	90.73792
0.5225	87.91809
0.523	85.40039
0.5235	90.73792
0.524	94.56482
0.5245	104.63562
0.525	114.10217
0.5255	111.8866
0.526	92.24854
0.5265	72.71118
0.527	61.02905
0.5275	48.44055
0.528	18.22815
0.5285	-19.83948
0.529	-51.76392
0.5295	-79.55933
0.53	-98.69385
0.5305	-104.73633
0.531	-101.9165
0.5315	-106.24695
0.532	-109.77173
0.5325	-98.99597
0.533	-71.80481
0.5335	-53.77808
0.534	-34.03931
0.5345	-27.29187
0.535	-27.99683
0.5355	-17.22107
0.536	-6.94885
0.5365	-3.7262
0.537	-12.5885
0.5375	-24.37134
0.538	-52.16675
0.5385	-84.79614
0.539	-92.34924
0.5395	-80.16357
0.54	-65.46021
0.5405	-47.13135
0.541	-33.73718
0.5415	-16.01257
0.542	3.7262
0.5425	12.99133
0.543	20.84656
0.5435	9.86938
0.544	11.07788
0.5445	-12.38708
0.545	-43.80798
0.5455	-44.31152
0.546	-33.73718
0.5465	-20.54443
0.547	-3.7262
0.5475	5.43823
0.548	22.25647
0.5485	48.74268
0.549	83.99048
0.5495	112.69226
0.55	133.43811
0.5505	141.49475
0.551	145.12024
0.5515	138.17139
0.552	116.31775
0.5525	99.60022
0.553	94.16199
0.5535	95.26978
0.554	84.99756
0.5545	80.96924
0.555	75.93384
0.5555	82.17773
0.556	58.41064
0.5565	4.83398
0.557	-57.20215
0.5575	-152.1698
0.558	-251.26648
0.5585	-340.99731
0.559	-391.35132
0.5595	-444.72656
0.56	-461.34338
0.5605	-416.2262
0.561	-322.97058
0.5615	-246.73462
0.562	-171.30432
0.5625	-92.04712
0.563	-4.33044
0.5635	61.02905
0.564	94.86694
0.5645	106.14624
0.565	143.10608
0.5655	172.51282
0.566	187.31689
0.5665	177.74963
0.567	174.22485
0.5675	187.01477
0.568	200.50964
0.5685	221.3562
0.569	245.72754
0.5695	263.85498
0.57	267.78259
0.5705	264.66064
0.571	253.48206
0.5715	215.71655
0.572	168.98804
0.5725	127.29492
0.573	79.96216
0.5735	40.08179
0.574	11.68213
0.5745	5.94177
0.575	-2.81982
0.5755	-16.01257
0.576	-42.7002
0.5765	-82.47986
0.577	-160.9314
0.5775	-220.34912
0.578	-235.45532
0.5785	-224.27673
0.579	-198.29407
0.5795	-213.09814
0.58	-217.32788
0.5805	-168.4845
0.581	-103.52783
0.5815	-22.05505
0.582	61.23047
0.5825	138.97705
0.583	196.88416
0.5835	227.39868
0.584	232.73621
0.5845	234.24683
0.585	212.39319
0.5855	186.81335
0.586	158.21228
0.5865	114.60571
0.587	57.30286
0.5875	-3.92761
0.588	-49.24622
0.5885	-60.52551
0.589	-44.61365
0.5895	-22.96143
0.59	-38.26904
0.5905	-43.70728
0.591	-53.17383
0.5915	-62.9425
0.592	-71.60339
0.5925	-68.17932
0.593	-65.46021
0.5935	-62.13684
0.594	-70.29419
0.5945	-80.16357
0.595	-93.0542
0.5955	-130.01404
0.596	-178.85742
0.5965	-201.41602
0.597	-188.02185
0.5975	-130.01404
0.598	-60.72693
0.5985	21.24939
0.599	91.34216
0.5995	142.30042
0.6	165.16113
0.6005	158.21228
0.601	143.81104
0.6015	115.51208
0.602	88.92517
0.6025	59.1156
0.603	32.22656
0.6035	8.56018
0.604	-15.20691
0.6045	-42.7002
0.605	-95.37048
0.6055	-147.83936
0.606	-181.37512
0.6065	-209.77478
0.607	-259.22241
0.6075	-277.24915
0.608	-261.13586
0.6085	-208.16345
0.609	-128.20129
0.6095	-41.79382
0.61	46.62781
0.6105	110.98022
0.611	162.54272
0.6115	186.30981
0.612	173.82202
0.6125	164.55688
0.613	156.80237
0.6135	141.19263
0.614	129.5105
0.6145	86.60889
0.615	12.38708
0.6155	-49.14551
0.616	-36.4563
0.6165	25.47913
0.617	75.53101
0.6175	96.57898
0.618	90.5365
0.6185	69.79065
0.619	55.59082
0.6195	46.82922
0.62	32.7301
0.6205	19.13452
0.621	15.20691
0.6215	6.04248
0.622	-5.23682
0.6225	8.96301
0.623	37.26196
0.6235	66.87012
0.624	95.67261
0.6245	128.80554
0.625	150.55847
0.6255	163.14697
0.626	189.12964
0.6265	210.68115
0.627	199.9054
0.6275	154.28467
0.628	92.65137
0.6285	29.00391
0.629	-14.30054
0.6295	-12.08496
0.63	-10.57434
0.6305	2.92053
0.631	8.7616
0.6315	0.30212
0.632	7.75452
0.6325	27.89612
0.633	41.4917
0.6335	22.55859
0.634	-8.56018
0.6345	-32.7301
0.635	-46.32568
0.6355	-31.92444
0.636	-28.39966
0.6365	-16.01257
0.637	5.63965
0.6375	19.13452
0.638	28.29895
0.6385	35.75134
0.639	22.6593
0.6395	1.40991
0.64	-3.02124
0.6405	-4.53186
0.641	3.62549
0.6415	6.14319
0.642	-23.56567
0.6425	-64.25171
0.643	-89.63013
0.6435	-93.35632
0.644	-95.16907
0.6445	-105.74341
0.645	-151.66626
0.6455	-184.69849
0.646	-179.8645
0.6465	-167.67883
0.647	-150.8606
0.6475	-112.39014
0.648	-78.25012
0.6485	-48.33984
0.649	-31.21948
0.6495	-15.81116
0.65	6.84814
0.6505	29.40674
0.651	61.12976
0.6515	63.04321
0.652	53.97949
0.6525	26.78833
0.653	13.797
0.6535	25.37842
0.654	28.09753
0.6545	28.60107
0.655	36.4563
0.6555	44.61365
0.656	53.77808
0.6565	76.53809
0.657	77.34375
0.6575	53.07312
0.658	37.36267
0.6585	19.94019
0.659	1.61133
0.6595	-15.00549
0.66	-40.38391
0.6605	-61.12976
0.661	-81.17065
0.6615	-91.745
0.662	-113.29651
0.6625	-136.86218
0.663	-168.28308
0.6635	-199.80469
0.664	-272.51587
0.6645	-316.62598
0.665	-310.5835
0.6655	-250.96436
0.666	-165.16113
0.6665	-83.48694
0.667	-9.16443
0.6675	35.44922
0.668	88.62305
0.6685	150.8606
0.669	206.65283
0.6695	232.03125
0.67	254.69055
0.6705	281.78101
0.671	282.58667
0.6715	252.27356
0.672	203.02734
0.6725	160.83069
0.673	141.79688
0.6735	145.42236
0.674	145.32166
0.6745	133.43811
0.675	114.00146
0.6755	78.65295
0.676	28.9032
0.6765	-26.48621
0.677	-60.72693
0.6775	-70.49561
0.678	-67.57507
0.6785	-62.64038
0.679	-42.8009
0.6795	-10.77576
0.68	15.40833
0.6805	33.73718
0.681	64.75525
0.6815	80.66711
0.682	95.06836
0.6825	77.84729
0.683	51.26038
0.6835	31.82373
0.684	23.26355
0.6845	34.03931
0.685	76.53809
0.6855	119.13757
0.686	129.40979
0.6865	122.15881
0.687	99.09668
0.6875	62.64038
0.688	24.16992
0.6885	-23.06213
0.689	-80.26428
0.6895	-154.48608
0.69	-209.37195
0.6905	-243.51196
0.691	-235.65674
0.6915	-209.17053
0.692	-148.84644
0.6925	-79.76074
0.693	-21.14868
0.6935	35.75134
0.694	77.64587
0.6945	100.80872
0.695	127.79846
0.6955	139.07776
0.696	129.5105
0.6965	123.77014
0.697	120.44678
0.6975	122.46094
0.698	111.78589
0.6985	93.35632
0.699	84.39331
0.6995	82.17773
0.7	71.09985
0.7005	75.12817
0.701	70.49561
0.7015	60.62622
0.702	43.80798
0.7025	22.15576
0.703	-3.7262
0.7035	-34.64355
0.704	-53.47595
0.7045	-58.91418
0.705	-57.9071
0.7055	-44.11011
0.706	-21.65222
0.7065	-10.97717
0.707	-32.02515
0.7075	-39.57825
0.708	-32.7301
0.7085	-21.04797
0.709	-14.60266
0.7095	-6.44531
0.71	3.02124
0.7105	-3.22266
0.711	-20.34302
0.7115	-60.72693
0.712	-104.63562
0.7125	-142.70325
0.713	-180.77087
0.7135	-194.87
0.714	-218.43567
0.7145	-292.65747
0.715	-365.46936
0.7155	-380.37415
0.716	-350.36316
0.7165	-290.94543
0.717	-214.70947
0.7175	-134.04236
0.718	-63.54675
0.7185	-18.8324
0.719	27.59399
0.7195	80.26428
0.72	122.66235
0.7205	138.3728
0.721	126.58997
0.7215	125.38147
0.722	133.63953
0.7225	148.14148
0.723	156.60095
0.7235	136.45935
0.724	75.73242
0.7245	19.73877
0.725	-17.32178
0.7255	-37.06055
0.726	-2.81982
0.7265	52.771
0.727	92.65137
0.7275	122.66235
0.728	151.26343
0.7285	170.70007
0.729	172.41211
0.7295	159.62219
0.73	146.22803
0.7305	150.65918
0.731	150.75989
0.7315	146.93298
0.732	138.97705
0.7325	122.36023
0.733	58.10852
0.7335	7.04956
0.734	-26.58691
0.7345	-49.24622
0.735	-94.46411
0.7355	-149.6521
0.736	-177.95105
0.7365	-166.57104
0.737	-151.46484
0.7375	-119.84253
0.738	-79.66003
0.7385	-22.86072
0.739	32.42798
0.7395	58.41064
0.74	85.70251
0.7405	96.27686
0.741	121.65527
0.7415	142.099
0.742	164.35547
0.7425	183.38928
0.743	188.42468
0.7435	192.05017
0.744	184.09424
0.7445	178.15247
0.745	172.3114
0.7455	155.39246
0.746	129.91333
0.7465	105.84412
0.747	98.29102
0.7475	96.98181
0.748	90.63721
0.7485	65.3595
0.749	33.9386
0.7495	4.93469
0.75	-18.93311
0.7505	-28.60107
0.751	-34.34143
0.7515	-41.69312
0.752	-38.87329
0.7525	-37.46338
0.753	-45.11719
0.7535	-46.82922
0.754	-51.5625
0.7545	-57.30286
0.755	-60.02197
0.7555	-70.49561
0.756	-87.91809
0.7565	-108.56323
0.757	-152.47192
0.7575	-187.61902
0.758	-235.95886
0.7585	-277.04773
0.759	-292.45605
0.7595	-286.21216
0.76	-256.10046
0.7605	-209.87549
0.761	-158.4137
0.7615	-122.76306
0.762	-113.29651
0.7625	-97.38464
0.763	-78.45154
0.7635	-45.92285
0.764	-4.02832
0.7645	35.75134
0.765	72.9126
0.7655	101.9165
0.766	134.44519
0.7665	149.14856
0.767	148.84644
0.7675	153.68042
0.768	158.21228
0.7685	159.82361
0.769	152.37122
0.7695	132.73315
0.77	97.68677
0.7705	59.82056
0.771	33.53577
0.7715	26.08337
0.772	15.40833
0.7725	17.01965
0.773	30.41382
0.7735	42.09595
0.774	56.5979
0.7745	44.71436
0.775	-1.40991
0.7755	-33.13293
0.776	-52.771
0.7765	-74.32251
0.777	-95.87402
0.7775	-111.38306
0.778	-116.31775
0.7785	-121.05103
0.779	-104.3335
0.7795	-92.14783
0.78	-77.14233
0.7805	-70.59631
0.781	-57.8064
0.7815	-19.23523
0.782	18.42957
0.7825	50.354
0.783	78.25012
0.7835	97.28394
0.784	115.91492
0.7845	143.81104
0.785	164.05334
0.7855	161.43494
0.786	125.58289
0.7865	56.09436
0.787	-17.42249
0.7875	-75.53101
0.788	-125.28076
0.7885	-159.62219
0.789	-200.20752
0.7895	-247.33887
0.79	-270.90454
0.7905	-242.20276
0.791	-175.53406
0.7915	-87.31384
0.792	1.10779
0.7925	64.45312
0.793	92.44995
0.7935	115.91492
0.794	133.13599
0.7945	141.79688
0.795	151.96838
0.7955	178.85742
0.796	202.02026
0.7965	221.75903
0.797	232.93762
0.7975	249.65515
0.798	248.84949
0.7985	224.07532
0.799	208.96912
0.7995	183.08716
0.8	144.51599
0.8005	125.58289
0.801	112.39014
0.8015	81.27136
0.802	33.43506
0.8025	-21.65222
0.803	-55.08728
0.8035	-82.27844
0.804	-81.06995
0.8045	-70.99915
0.805	-47.33276
0.8055	-18.42957
0.806	5.13611
0.8065	13.39417
0.807	-1.81274
0.8075	-7.5531
0.808	-5.53894
0.8085	-1.51062
0.809	-12.18567
0.8095	-27.19116
0.81	-37.86621
0.8105	-38.36975
0.811	-31.32019
0.8115	-26.58691
0.812	-21.55151
0.8125	-8.8623
0.813	3.32336
0.8135	18.02673
0.814	40.68604
0.8145	55.49011
0.815	49.64905
0.8155	40.08179
0.816	1.3092
0.8165	-59.92126
0.817	-123.87085
0.8175	-189.73389
0.818	-245.92896
0.8185	-277.45056
0.819	-287.52136
0.8195	-282.48596
0.82	-268.78967
0.8205	-235.35461
0.821	-179.8645
0.8215	-129.10767
0.822	-64.45312
0.8225	-32.02515
0.823	-4.12903
0.8235	11.2793
0.824	-0.10071
0.8245	1.00708
0.825	-3.22266
0.8255	17.72461
0.826	58.91418
0.8265	98.19031
0.827	132.0282
0.8275	161.93848
0.828	174.02344
0.8285	183.28857
0.829	168.88733
0.8295	151.96838
0.83	130.71899
0.8305	122.86377
0.831	128.70483
0.8315	123.46802
0.832	126.38855
0.8325	104.93774
0.833	81.7749
0.8335	66.46729
0.834	60.22339
0.8345	44.31152
0.835	14.60266
0.8355	-28.60107
0.836	-52.46887
0.8365	-63.64746
0.837	-64.85596
0.8375	-80.36499
0.838	-74.82605
0.8385	-87.01172
0.839	-99.2981
0.8395	-102.11792
0.84	-91.54358
0.8405	-66.76941
0.841	-26.68762
0.8415	9.06372
0.842	44.31152
0.8425	88.11951
0.843	112.08801
0.8435	115.31067
0.844	111.28235
0.8445	103.52783
0.845	85.5011
0.8455	82.9834
0.846	70.19348
0.8465	69.79065
0.847	82.37915
0.8475	95.26978
0.848	105.54199
0.8485	71.40198
0.849	27.29187
0.8495	-10.87646
0.85	-20.24231
0.8505	-34.84497
0.851	-52.46887
0.8515	-77.34375
0.852	-105.03845
0.8525	-142.19971
0.853	-181.47583
0.8535	-206.45142
0.854	-220.55054
0.8545	-211.08398
0.855	-169.99512
0.8555	-113.49792
0.856	-47.93701
0.8565	-6.14319
0.857	32.93152
0.8575	82.47986
0.858	122.46094
0.8585	145.01953
0.859	158.71582
0.8595	155.19104
0.86	116.31775
0.8605	82.37915
0.861	78.65295
0.8615	81.06995
0.862	80.96924
0.8625	66.76941
0.863	42.59949
0.8635	12.78992
0.864	-21.65222
0.8645	-86.30676
0.865	-139.68201
0.8655	-152.1698
0.866	-133.13599
0.8665	-126.79138
0.867	-115.10925
0.8675	-90.13367
0.868	-43.00232
0.8685	22.35718
0.869	80.66711
0.8695	110.27527
0.87	67.67578
0.8705	-3.22266
0.871	-36.4563
0.8715	-27.79541
0.872	-7.04956
0.8725	15.40833
0.873	32.02515
0.8735	56.39648
0.874	96.07544
0.8745	113.39722
0.875	115.7135
0.8755	105.94482
0.876	77.948
0.8765	37.16125
0.877	-3.32336
0.8775	-24.57275
0.878	-61.83472
0.8785	-83.38623
0.879	-86.40747
0.8795	-62.64038
0.88	-41.79382
0.8805	-15.50903
0.881	14.30054
0.8815	51.66321
0.882	92.95349
0.8825	109.06677
0.883	113.69934
0.8835	108.46252
0.884	76.23596
0.8845	52.36816
0.885	51.86462
0.8855	57.30286
0.886	83.38623
0.8865	95.47119
0.887	107.05261
0.8875	103.93066
0.888	111.68518
0.8885	103.32642
0.889	96.67969
0.8895	81.97632
0.89	73.11401
0.8905	55.2887
0.891	38.67188
0.8915	32.12585
0.892	31.21948
0.8925	25.68054
0.893	26.48621
0.8935	22.45789
0.894	8.66089
0.8945	-5.94177
0.895	-18.12744
0.8955	-49.95117
0.896	-76.43738
0.8965	-93.35632
0.897	-115.41138
0.8975	-119.94324
0.898	-124.4751
0.8985	-124.87793
0.899	-108.76465
0.8995	-95.77332
0.9	-74.82605
0.9005	-67.47437
0.901	-93.25562
0.9015	-108.66394
0.902	-124.77722
0.9025	-143.20679
0.903	-149.14856
0.9035	-136.05652
0.904	-132.0282
0.9045	-116.72058
0.905	-86.10535
0.9055	-49.74976
0.906	-17.92603
0.9065	17.32178
0.907	51.5625
0.9075	68.98499
0.908	70.79773
0.9085	70.99915
0.909	59.92126
0.9095	45.72144
0.91	28.9032
0.9105	19.83948
0.911	12.18567
0.9115	0.10071
0.912	-39.07471
0.9125	-58.10852
0.913	-74.92676
0.9135	-70.99915
0.914	-44.21082
0.9145	-16.41541
0.915	15.50903
0.9155	43.80798
0.916	60.52551
0.9165	86.91101
0.917	94.96765
0.9175	85.40039
0.918	71.80481
0.9185	53.87878
0.919	35.04639
0.9195	25.47913
0.92	49.74976
0.9205	69.89136
0.921	97.28394
0.9215	121.35315
0.922	124.17297
0.9225	105.44128
0.923	81.37207
0.9235	57.40356
0.924	-6.44531
0.9245	-88.22021
0.925	-135.8551
0.9255	-139.48059
0.926	-150.25635
0.9265	-149.55139
0.927	-148.94714
0.9275	-139.27917
0.928	-122.76306
0.9285	-87.21313
0.929	-67.67578
0.9295	-64.45312
0.93	-64.85596
0.9305	-66.97083
0.931	-64.75525
0.9315	-49.14551
0.932	-16.81824
0.9325	4.02832
0.933	8.96301
0.9335	8.66089
0.934	41.99524
0.9345	100.6073
0.935	171.0022
0.9355	224.98169
0.936	218.93921
0.9365	203.32947
0.937	178.5553
0.9375	149.85352
0.938	126.58997
0.9385	117.62695
0.939	110.57739
0.9395	124.77722
0.94	141.99829
0.9405	127.29492
0.941	94.76624
0.9415	61.02905
0.942	30.11169
0.9425	5.33752
0.943	-57.9071
0.9435	-119.03687
0.944	-136.76147
0.9445	-116.82129
0.945	-82.07703
0.9455	-33.63647
0.946	12.89062
0.9465	63.24463
0.947	101.31226
0.9475	116.922
0.948	120.34607
0.9485	118.63403
0.949	123.2666
0.9495	90.63721
0.95	60.22339
0.9505	41.89453
0.951	32.93152
0.9515	28.60107
0.952	26.78833
0.9525	31.01807
0.953	30.51453
0.9535	36.05347
0.954	50.15259
0.9545	65.86304
0.955	67.57507
0.9555	58.41064
0.956	42.59949
0.9565	36.35559
0.957	27.89612
0.9575	14.70337
0.958	5.53894
0.9585	-4.73328
0.959	-13.59558
0.9595	-19.13452
0.96	-34.44214
0.9605	-57.70569
0.961	-95.37048
0.9615	-128.10059
0.962	-139.17847
0.9625	-170.29724
0.963	-212.79602
0.9635	-263.04932
0.964	-291.54968
0.9645	-293.86597
0.965	-266.37268
0.9655	-228.20435
0.966	-168.88733
0.9665	-110.27527
0.967	-57.00073
0.9675	-32.22656
0.968	-5.84106
0.9685	30.41382
0.969	65.96375
0.9695	91.64429
0.97	98.59314
0.9705	101.41296
0.971	108.86536
0.9715	119.84253
0.972	127.59705
0.9725	124.77722
0.973	119.33899
0.9735	120.34607
0.974	130.8197
0.9745	142.19971
0.975	149.04785
0.9755	141.39404
0.976	136.45935
0.9765	103.82996
0.977	74.42322
0.9775	37.26196
0.978	-12.38708
0.9785	-61.6333
0.979	-74.92676
0.9795	-78.95508
0.98	-71.40198
0.9805	-67.07153
0.981	-74.32251
0.9815	-75.4303
0.982	-68.98499
0.9825	-52.06604
0.983	-40.08179
0.9835	-27.6947
0.984	-6.54602
0.9845	-5.94177
0.985	-4.33044
0.9855	-21.95435
0.986	-79.96216
0.9865	-137.0636
0.987	-150.75989
0.9875	-142.90466
0.988	-157.2052
0.9885	-161.33423
0.989	-127.79846
0.9895	-75.02747
0.99	-17.12036
0.9905	23.36426
0.991	50.85754
0.9915	73.41614
0.992	86.50818
0.9925	99.70093
0.993	119.13757
0.9935	138.57422
0.994	156.70166
0.9945	150.25635
0.995	126.18713
0.9955	98.39172
0.996	84.69543
0.9965	84.2926
0.997	87.71667
0.9975	103.82996
0.998	121.45386
0.9985	124.17297
0.999	133.94165
0.9995	128.20129
1	102.92358
1.0005	69.58923
1.001	45.52002
1.0015	27.39258
1.002	13.19275
1.0025	5.74036
1.003	-11.78284
1.0035	-11.07788
1.004	-34.14001
1.0045	-52.771
1.005	-70.59631
1.0055	-83.18481
1.006	-108.46252
1.0065	-179.05884
1.007	-241.69922
1.0075	-269.79675
1.008	-268.48755
1.0085	-259.92737
1.009	-207.86133
1.0095	-140.68909
1.01	-53.77808
1.0105	19.43665
1.011	86.10535
1.0115	142.099
1.012	178.35388
1.0125	192.25159
1.013	183.79211
1.0135	171.70715
1.014	155.39246
1.0145	134.04236
1.015	113.1958
1.0155	91.14075
1.016	49.0448
1.0165	27.39258
1.017	27.49329
1.0175	49.64905
1.018	60.62622
1.0185	52.16675
1.019	23.36426
1.0195	-21.14868
1.02	-115.51208
1.0205	-225.0824
1.021	-274.53003
1.0215	-271.81091
1.022	-225.48523
1.0225	-144.6167
1.023	-63.14392
1.0235	10.97717
1.024	71.50269
1.0245	126.08643
1.025	166.0675
1.0255	178.15247
1.026	163.95264
1.0265	153.07617
1.027	141.29333
1.0275	137.86926
1.028	133.63953
1.0285	119.13757
1.029	37.46338
1.0295	-133.74023
1.03	-272.21375
1.0305	-332.13501
1.031	-317.73376
1.0315	-264.76135
1.032	-202.62451
1.0325	-136.96289
1.033	-60.02197
1.0335	15.50903
1.034	71.60339
1.0345	121.55457
1.035	164.65759
1.0355	191.54663
1.036	211.08398
1.0365	218.8385
1.037	225.98877
1.0375	228.50647
1.038	219.24133
1.0385	212.19177
1.039	195.47424
1.0395	166.16821
1.04	132.53174
1.0405	117.02271
1.041	114.00146
1.0415	123.46802
1.042	132.63245
1.0425	124.97864
1.043	109.06677
1.0435	78.75366
1.044	32.42798
1.0445	-1.91345
1.045	-36.05347
1.0455	-56.5979
1.046	-77.74658
1.0465	-88.82446
1.047	-89.22729
1.0475	-86.91101
1.048	-68.58215
1.0485	-45.62073
1.049	-28.70178
1.0495	-16.3147
1.05	-15.81116
1.0505	-32.32727
1.051	-40.58533
1.0515	-35.54993
1.052	-35.2478
1.0525	-65.76233
1.053	-116.31775
1.0535	-149.55139
1.054	-155.39246
1.0545	-139.27917
1.055	-108.66394
1.0555	-78.55225
1.056	-60.4248
1.0565	-48.44055
1.057	-70.79773
1.0575	-89.12659
1.058	-92.04712
1.0585	-70.19348
1.059	-43.90869
1.0595	-8.45947
1.06	20.74585
1.0605	42.8009
1.061	65.15808
1.0615	78.04871
1.062	74.82605
1.0625	65.05737
1.063	42.19666
1.0635	30.41382
1.064	35.95276
1.0645	41.29028
1.065	52.771
1.0655	66.87012
1.066	85.40039
1.0665	108.46252
1.067	126.48926
1.0675	132.53174
1.068	111.08093
1.0685	71.40198
1.069	59.82056
1.0695	12.68921
1.07	-74.82605
1.0705	-175.23193
1.071	-214.91089
1.0715	-231.52771
1.072	-228.70789
1.0725	-201.71814
1.073	-159.11865
1.0735	-121.9574
1.074	-67.97791
1.0745	-17.32178
1.075	36.05347
1.0755	71.50269
1.076	72.00623
1.0765	65.76233
1.077	66.56799
1.0775	60.4248
1.078	50.85754
1.0785	57.40356
1.079	66.36658
1.0795	65.66162
1.08	64.75525
1.0805	71.7041
1.081	44.31152
1.0815	-62.13684
1.082	-164.05334
1.0825	-240.49072
1.083	-241.39709
1.0835	-213.8031
1.084	-163.04626
1.0845	-124.67651
1.085	-69.38782
1.0855	-4.63257
1.086	48.84338
1.0865	77.948
1.087	79.96216
1.0875	85.90393
1.088	97.58606
1.0885	109.3689
1.089	113.29651
1.0895	131.32324
1.09	157.80945
1.0905	190.23743
1.091	199.60327
1.0915	196.1792
1.092	180.56946
1.0925	180.16663
1.093	177.54822
1.0935	174.12415
1.094	172.71423
1.0945	155.39246
1.095	134.74731
1.0955	105.74341
1.096	83.18481
1.0965	69.89136
1.097	62.9425
1.0975	73.81897
1.098	79.96216
1.0985	82.78198
1.099	80.76782
1.0995	55.08728
1.1	17.52319
1.1005	-13.89771
1.101	-32.7301
1.1015	-48.94409
1.102	-72.10693
1.1025	-108.76465
1.103	-154.58679
1.1035	-179.36096
1.104	-193.96362
1.1045	-230.92346
1.105	-225.98877
1.1055	-200.0061
1.106	-161.33423
1.1065	-117.62695
1.107	-66.16516
1.1075	-26.48621
1.108	4.02832
1.1085	25.98267
1.109	44.0094
1.1095	72.20764
1.11	91.64429
1.1105	117.72766
1.111	133.13599
1.1115	135.75439
1.112	131.72607
1.1125	127.89917
1.113	117.72766
1.1135	90.63721
1.114	48.23914
1.1145	10.17151
1.115	-14.40125
1.1155	-23.56567
1.116	-43.20374
1.1165	-56.90002
1.117	-65.56091
1.1175	-63.74817
1.118	-52.16675
1.1185	-43.40515
1.119	-24.16992
1.1195	-5.53894
1.12	10.37292
1.1205	26.28479
1.121	37.7655
1.1215	16.21399
1.122	-29.30603
1.1225	-64.95667
1.123	-102.42004
1.1235	-144.51599
1.124	-213.40027
1.1245	-262.8479
1.125	-266.77551
1.1255	-209.77478
1.126	-147.33582
1.1265	-77.34375
1.127	-5.23682
1.1275	69.79065
1.128	123.97156
1.1285	152.87476
1.129	159.92432
1.1295	149.75281
1.13	125.07935
1.1305	103.82996
1.131	98.89526
1.1315	86.50818
1.132	78.65295
1.1325	70.29419
1.133	69.89136
1.1335	41.29028
1.134	-3.02124
1.1345	-62.43896
1.135	-105.44128
1.1355	-141.39404
1.136	-172.3114
1.1365	-219.44275
1.137	-255.89905
1.1375	-279.56543
1.138	-285.30579
1.1385	-252.07214
1.139	-202.92664
1.1395	-142.80396
1.14	-65.25879
1.1405	9.56726
1.141	77.44446
1.1415	138.17139
1.142	185.90698
1.1425	221.75903
1.143	242.30347
1.1435	244.82117
1.144	228.40576
1.1445	187.92114
1.145	174.22485
1.1455	174.22485
1.146	184.8999
1.1465	194.06433
1.147	181.37512
1.1475	166.57104
1.148	164.95972
1.1485	151.76697
1.149	106.9519
1.1495	66.87012
1.15	44.71436
1.1505	47.13135
1.151	51.5625
1.1515	40.38391
1.152	40.98816
1.1525	47.43347
1.153	58.20923
1.1535	80.26428
1.154	75.32959
1.1545	60.02197
1.155	46.72852
1.1555	13.09204
1.156	-15.30762
1.1565	-48.64197
1.157	-58.81348
1.1575	-54.88586
1.158	-57.70569
1.1585	-55.59082
1.159	-33.73718
1.1595	-28.19824
1.16	-37.86621
1.1605	-58.30994
1.161	-72.50977
1.1615	-98.79456
1.162	-130.61829
1.1625	-158.81653
1.163	-174.02344
1.1635	-164.45618
1.164	-147.23511
1.1645	-167.47742
1.165	-182.28149
1.1655	-156.50024
1.166	-121.65527
1.1665	-77.54517
1.167	-38.974
1.1675	-22.76001
1.168	-31.21948
1.1685	-38.26904
1.169	-23.36426
1.1695	0.40283
1.17	39.27612
1.1705	65.86304
1.171	99.49951
1.1715	136.86218
1.172	157.10449
1.1725	160.52856
1.173	162.64343
1.1735	163.34839
1.174	165.06042
1.1745	146.83228
1.175	116.72058
1.1755	64.151
1.176	-11.78284
1.1765	-75.63171
1.177	-101.41296
1.1775	-140.68909
1.178	-178.05176
1.1785	-184.69849
1.179	-160.52856
1.1795	-115.51208
1.18	-58.91418
1.1805	-12.99133
1.181	10.97717
1.1815	33.23364
1.182	45.3186
1.1825	47.7356
1.183	41.08887
1.1835	45.11719
1.184	32.42798
1.1845	-3.52478
1.185	-41.89453
1.1855	-75.22888
1.186	-100.10376
1.1865	-89.22729
1.187	-47.53418
1.1875	24.06921
1.188	92.24854
1.1885	157.10449
1.189	205.74646
1.1895	224.07532
1.19	234.54895
1.1905	237.16736
1.191	229.71497
1.1915	190.74097
1.192	139.17847
1.1925	79.35791
1.193	35.85205
1.1935	9.46655
1.194	-3.12195
1.1945	-12.18567
1.195	-19.53735
1.1955	-23.66638
1.196	-37.7655
1.1965	-42.29736
1.197	-46.42639
1.1975	-68.88428
1.198	-79.35791
1.1985	-77.84729
1.199	-67.8772
1.1995	-57.50427
1.2	-45.3186
1.2005	-17.6239
1.201	4.12903
1.2015	21.04797
1.202	31.72302
1.2025	29.70886
1.203	26.88904
1.2035	29.10461
1.204	37.96692
1.2045	19.13452
1.205	-22.35718
1.2055	-52.97241
1.206	-63.74817
1.2065	-68.07861
1.207	-66.76941
1.2075	-61.43188
1.208	-37.86621
1.2085	-0.80566
1.209	39.47754
1.2095	77.14233
1.21	108.56323
1.2105	123.16589
1.211	128.70483
1.2115	99.70093
1.212	48.44055
1.2125	-6.04248
1.213	-50.65613
1.2135	-79.66003
1.214	-99.3988
1.2145	-112.59155
1.215	-101.51367
1.2155	-82.88269
1.216	-91.8457
1.2165	-107.05261
1.217	-119.4397
1.2175	-121.45386
1.218	-121.15173
1.2185	-144.71741
1.219	-154.58679
1.2195	-156.80237
1.22	-138.17139
1.2205	-100.20447
1.221	-48.23914
1.2215	10.67505
1.222	82.37915
1.2225	124.87793
1.223	170.29724
1.2235	208.06274
1.224	242.7063
1.2245	274.63074
1.225	273.42224
1.2255	232.03125
1.226	200.71106
1.2265	182.3822
1.227	167.07458
1.2275	147.23511
1.228	133.13599
1.2285	112.99438
1.229	83.58765
1.2295	64.55383
1.23	48.54126
1.2305	30.41382
1.231	-4.43115
1.2315	-38.47046
1.232	-74.82605
1.2325	-117.72766
1.233	-177.95105
1.2335	-205.74646
1.234	-194.87
1.2345	-163.24768
1.235	-127.09351
1.2355	-117.02271
1.236	-117.22412
1.2365	-108.1604
1.237	-83.38623
1.2375	-54.98657
1.238	-3.42407
1.2385	36.55701
1.239	71.20056
1.2395	86.70959
1.24	109.16748
1.2405	127.89917
1.241	141.39404
1.2415	126.89209
1.242	103.32642
1.2425	82.68127
1.243	49.44763
1.2435	38.57117
1.244	42.09595
1.2445	24.27063
1.245	-2.92053
1.2455	-41.99524
1.246	-80.76782
1.2465	-127.79846
1.247	-151.06201
1.2475	-146.12732
1.248	-124.37439
1.2485	-88.62305
1.249	-49.74976
1.2495	0.60425
1.25	20.34302
1.2505	33.63647
1.251	42.59949
1.2515	29.40674
1.252	14.70337
1.2525	-2.81982
1.253	-26.68762
1.2535	-37.46338
1.254	-35.75134
1.2545	-2.01416
1.255	22.76001
1.2555	29.00391
1.256	31.92444
1.2565	39.37683
1.257	51.26038
1.2575	69.48853
1.258	78.45154
1.2585	78.35083
1.259	67.37366
1.2595	48.33984
1.26	29.70886
1.2605	28.80249
1.261	40.2832
1.2615	32.62939
1.262	3.12195
1.2625	-57.10144
1.263	-98.0896
1.2635	-107.15332
1.264	-97.38464
1.2645	-65.46021
1.265	-48.64197
1.2655	-48.74268
1.266	-49.0448
1.2665	-60.92834
1.267	-53.87878
1.2675	-45.11719
1.268	-40.1825
1.2685	-34.34143
1.269	-17.52319
1.2695	2.61841
1.27	23.8678
1.2705	28.09753
1.271	23.56567
1.2715	34.44214
1.272	52.771
1.2725	73.11401
1.273	81.7749
1.2735	88.72375
1.274	84.99756
1.2745	100.10376
1.275	107.15332
1.2755	108.76465
1.276	98.0896
1.2765	66.76941
1.277	44.71436
1.2775	34.44214
1.278	18.02673
1.2785	17.42249
1.279	27.59399
1.2795	49.24622
1.28	22.6593
1.2805	-19.33594
1.281	-78.04871
1.2815	-136.45935
1.282	-152.67334
1.2825	-127.89917
1.283	-89.63013
1.2835	-65.05737
1.284	-67.37366
1.2845	-74.02039
1.285	-65.86304
1.2855	-61.43188
1.286	-30.51453
1.2865	10.17151
1.287	36.4563
1.2875	64.35242
1.288	79.35791
1.2885	75.53101
1.289	70.19348
1.2895	63.34534
1.29	65.15808
1.2905	58.41064
1.291	58.61206
1.2915	69.28711
1.292	79.05579
1.2925	97.98889
1.293	107.75757
1.2935	118.83545
1.294	126.48926
1.2945	117.52625
1.295	98.59314
1.2955	74.12109
1.296	46.12427
1.2965	41.4917
1.297	32.12585
1.2975	27.09045
1.298	19.53735
1.2985	18.8324
1.299	10.37292
1.2995	11.98425
1.3	18.42957
1.3005	26.68762
1.301	22.76001
1.3015	16.81824
1.302	13.69629
1.3025	-31.72302
1.303	-96.67969
1.3035	-136.25793
1.304	-154.58679
1.3045	-175.83618
1.305	-190.53955
1.3055	-189.02893
1.306	-169.18945
1.3065	-139.48059
1.307	-101.21155
1.3075	-73.41614
1.308	-57.60498
1.3085	-38.16833
1.309	-13.99841
1.3095	14.40125
1.31	45.3186
1.3105	68.17932
1.311	90.93933
1.3115	114.30359
1.312	140.08484
1.3125	155.9967
1.313	150.05493
1.3135	135.65369
1.314	95.16907
1.3145	68.07861
1.315	53.27454
1.3155	38.06763
1.316	2.92053
1.3165	-32.52869
1.317	-54.58374
1.3175	-60.12268
1.318	-55.59082
1.3185	-52.67029
1.319	-46.22498
1.3195	-39.07471
1.32	-30.41382
1.3205	-28.70178
1.321	-13.99841
1.3215	10.0708
1.322	27.59399
1.3225	22.86072
1.323	-12.89062
1.3235	-65.25879
1.324	-112.89368
1.3245	-137.16431
1.325	-131.52466
1.3255	-109.77173
1.326	-78.35083
1.3265	-37.86621
1.327	-16.01257
1.3275	-12.5885
1.328	-45.82214
1.3285	-53.47595
1.329	-46.82922
1.3295	-41.39099
1.33	-31.4209
1.3305	-33.43506
1.331	-35.2478
1.3315	-27.79541
1.332	2.71912
1.3325	25.78125
1.333	36.4563
1.3335	56.39648
1.334	95.87402
1.3345	121.75598
1.335	139.5813
1.3355	150.65918
1.336	154.38538
1.3365	156.29883
1.337	158.71582
1.3375	118.02979
1.338	43.20374
1.3385	-12.18567
1.339	-34.84497
1.3395	-33.83789
1.34	-9.46655
1.3405	24.67346
1.341	67.57507
1.3415	94.3634
1.342	106.24695
1.3425	113.09509
1.343	83.08411
1.3435	13.797
1.344	-22.25647
1.3445	-43.60657
1.345	-61.23047
1.3455	-101.8158
1.346	-144.01245
1.3465	-153.07617
1.347	-138.27209
1.3475	-105.94482
1.348	-64.65454
1.3485	-17.52319
1.349	14.80408
1.3495	50.75684
1.35	79.55933
1.3505	109.77173
1.351	114.60571
1.3515	117.62695
1.352	116.72058
1.3525	105.13916
1.353	67.37366
1.3535	27.6947
1.354	-3.42407
1.3545	-16.01257
1.355	-34.54285
1.3555	-52.56958
1.356	-63.34534
1.3565	-95.26978
1.357	-120.34607
1.3575	-131.02112
1.358	-111.9873
1.3585	-69.28711
1.359	-26.28479
1.3595	7.35168
1.36	15.60974
1.3605	-2.71912
1.361	-46.72852
1.3615	-59.82056
1.362	-50.65613
1.3625	-19.03381
1.363	11.38
1.3635	38.16833
1.364	58.71277
1.3645	67.37366
1.365	57.60498
1.3655	61.02905
1.366	64.55383
1.3665	71.50269
1.367	63.94958
1.3675	60.22339
1.368	52.771
1.3685	30.41382
1.369	-7.95593
1.3695	-45.11719
1.37	-42.19666
1.3705	-28.29895
1.371	6.64673
1.3715	56.90002
1.372	113.49792
1.3725	140.08484
1.373	150.65918
1.3735	140.99121
1.374	117.52625
1.3745	91.44287
1.375	58.51135
1.3755	29.80957
1.376	-6.54602
1.3765	-30.41382
1.377	-45.01648
1.3775	-54.38232
1.378	-69.79065
1.3785	-70.19348
1.379	-79.86145
1.3795	-110.37598
1.38	-111.68518
1.3805	-79.05579
1.381	-40.88745
1.3815	3.22266
1.382	35.2478
1.3825	24.47205
1.383	20.1416
1.3835	17.42249
1.384	21.65222
1.3845	25.88196
1.385	35.85205
1.3855	41.79382
1.386	40.2832
1.3865	40.88745
1.387	48.64197
1.3875	55.89294
1.388	75.4303
1.3885	92.04712
1.389	103.93066
1.3895	99.80164
1.39	89.73083
1.3905	54.0802
1.391	20.24231
1.3915	1.91345
1.392	-8.96301
1.3925	-18.02673
1.393	-35.04639
1.3935	-52.06604
1.394	-53.17383
1.3945	-58.91418
1.395	-66.56799
1.3955	-64.55383
1.396	-41.08887
1.3965	-17.12036
1.397	-4.02832
1.3975	8.45947
1.398	14.30054
1.3985	12.99133
1.399	14.09912
1.3995	21.95435
1.4	18.22815
1.4005	30.31311
1.401	33.23364
1.4015	34.64355
1.402	44.61365
1.4025	49.14551
1.403	13.39417
1.4035	-51.96533
1.404	-107.65686
1.4045	-134.34448
1.405	-137.66785
1.4055	-105.54199
1.406	-75.53101
1.4065	-51.86462
1.407	-42.09595
1.4075	-43.00232
1.408	-59.82056
1.4085	-94.56482
1.409	-111.68518
1.4095	-110.87952
1.41	-93.75916
1.4105	-63.24463
1.411	-35.54993
1.4115	-27.09045
1.412	-8.7616
1.4125	12.08496
1.413	37.86621
1.4135	60.02197
1.414	53.37524
1.4145	44.71436
1.415	32.7301
1.4155	20.84656
1.416	11.17859
1.4165	18.53027
1.417	29.60815
1.4175	62.74109
1.418	75.4303
1.4185	59.61914
1.419	4.22974
1.4195	-45.92285
1.42	-71.90552
1.4205	-46.62781
1.421	-2.81982
1.4215	33.43506
1.422	58.20923
1.4225	86.8103
1.423	109.57031
1.4235	119.54041
1.424	138.47351
1.4245	149.95422
1.425	148.54431
1.4255	137.86926
1.426	123.87085
1.4265	105.74341
1.427	56.19507
1.4275	-6.44531
1.428	-54.88586
1.4285	-86.8103
1.429	-85.19897
1.4295	-67.97791
1.43	-39.17542
1.4305	-11.48071
1.431	7.75452
1.4315	22.15576
1.432	41.29028
1.4325	56.69861
1.433	58.91418
1.4335	35.75134
1.434	19.53735
1.4345	6.44531
1.435	-4.43115
1.4355	-13.89771
1.436	-11.17859
1.4365	-9.06372
1.437	4.63257
1.4375	5.13611
1.438	3.42407
1.4385	2.31628
1.439	9.36584
1.4395	-10.57434
1.44	-26.98975
1.4405	-39.37683
1.441	-39.37683
1.4415	-14.70337
1.442	9.97009
1.4425	51.05896
1.443	83.08411
1.4435	98.39172
1.444	113.69934
1.4445	119.03687
1.445	101.21155
1.4455	79.66003
1.446	57.50427
1.4465	26.78833
1.447	10.37292
1.4475	-16.01257
1.448	-47.53418
1.4485	-70.59631
1.449	-83.99048
1.4495	-90.13367
1.45	-126.69067
1.4505	-165.86609
1.451	-176.0376
1.4515	-150.25635
1.452	-122.36023
1.4525	-112.69226
1.453	-125.98572
1.4535	-133.63953
1.454	-111.28235
1.4545	-64.35242
1.455	-29.91028
1.4555	4.43115
1.456	37.36267
1.4565	72.81189
1.457	98.89526
1.4575	92.75208
1.458	76.84021
1.4585	60.72693
1.459	77.64587
1.4595	95.67261
1.46	101.41296
1.4605	90.73792
1.461	84.09119
1.4615	60.22339
1.462	35.95276
1.4625	44.41223
1.463	44.91577
1.4635	48.23914
1.464	30.11169
1.4645	5.0354
1.465	1.61133
1.4655	9.46655
1.466	18.73169
1.4665	23.26355
1.467	29.00391
1.4675	26.18408
1.468	14.50195
1.4685	-3.7262
1.469	-16.01257
1.4695	-37.36267
1.47	-69.38782
1.4705	-103.22571
1.471	-135.25085
1.4715	-148.04077
1.472	-143.91174
1.4725	-115.7135
1.473	-70.19348
1.4735	-22.96143
1.474	41.39099
1.4745	90.5365
1.475	110.87952
1.4755	132.22961
1.476	142.099
1.4765	160.02502
1.477	164.15405
1.4775	164.65759
1.478	158.21228
1.4785	148.64502
1.479	137.0636
1.4795	131.52466
1.48	125.48218
1.4805	126.08643
1.481	108.96606
1.4815	52.46887
1.482	2.71912
1.4825	-27.19116
1.483	-59.61914
1.4835	-96.67969
1.484	-124.4751
1.4845	-138.67493
1.485	-130.61829
1.4855	-114.90784
1.486	-100.70801
1.4865	-93.35632
1.487	-95.5719
1.4875	-110.27527
1.488	-142.099
1.4885	-169.18945
1.489	-158.4137
1.4895	-141.39404
1.49	-119.23828
1.4905	-109.77173
1.491	-84.09119
1.4915	-44.91577
1.492	-1.81274
1.4925	32.42798
1.493	55.08728
1.4935	91.54358
1.494	116.51917
1.4945	136.66077
1.495	152.06909
1.4955	165.06042
1.496	158.81653
1.4965	139.98413
1.497	99.80164
1.4975	82.58057
1.498	52.97241
1.4985	25.177
1.499	7.65381
1.4995	16.41541
1.5	27.79541
1.5005	43.10303
1.501	37.56409
1.5015	10.87646
1.502	-40.58533
1.5025	-92.24854
1.503	-126.9928
1.5035	-125.88501
1.504	-111.9873
1.5045	-83.68835
1.505	-63.14392
1.5055	-42.8009
1.506	-17.22107
1.5065	9.36584
1.507	-2.01416
1.5075	-28.9032
1.508	-42.90161
1.5085	-51.26038
1.509	-55.18799
1.5095	-65.66162
1.51	-65.05737
1.5105	-50.05188
1.511	-50.65613
1.5115	-70.69702
1.512	-86.60889
1.5125	-78.45154
1.513	-55.59082
1.5135	-28.29895
1.514	15.60974
1.5145	48.94409
1.515	72.71118
1.5155	89.12659
1.516	90.03296
1.5165	100.80872
1.517	110.27527
1.5175	113.69934
1.518	117.22412
1.5185	118.63403
1.519	110.87952
1.5195	110.6781
1.52	113.29651
1.5205	112.59155
1.521	104.53491
1.5215	105.6427
1.522	116.72058
1.5225	104.83704
1.523	84.2926
1.5235	52.97241
1.524	7.35168
1.5245	-54.0802
1.525	-123.97156
1.5255	-159.42078
1.526	-156.39954
1.5265	-128.40271
1.527	-86.20605
1.5275	-31.72302
1.528	16.21399
1.5285	40.1825
1.529	24.57275
1.5295	-8.8623
1.53	-48.94409
1.5305	-96.27686
1.531	-166.26892
1.5315	-207.35779
1.532	-215.81726
1.5325	-202.82593
1.533	-179.66309
1.5335	-147.83936
1.534	-93.55774
1.5345	-22.25647
1.535	43.30444
1.5355	103.82996
1.536	142.19971
1.5365	171.50574
1.537	188.72681
1.5375	194.46716
1.538	197.58911
1.5385	207.65991
1.539	209.67407
1.5395	205.54504
1.54	177.54822
1.5405	147.1344
1.541	104.23279
1.5415	62.9425
1.542	60.3241
1.5425	58.41064
1.543	56.5979
1.5435	57.9071
1.544	49.24622
1.5445	31.72302
1.545	32.02515
1.5455	28.09753
1.546	1.2085
1.5465	-19.23523
1.547	-30.61523
1.5475	-19.03381
1.548	4.63257
1.5485	24.57275
1.549	-10.17151
1.5495	-43.50586
1.55	-52.771
1.5505	-55.3894
1.551	-41.29028
1.5515	-31.62231
1.552	-8.15735
1.5525	14.60266
1.553	11.88354
1.5535	9.76868
1.554	7.5531
1.5545	-16.61682
1.555	-50.45471
1.5555	-74.32251
1.556	-129.81262
1.5565	-161.53564
1.557	-166.36963
1.5575	-145.32166
1.558	-122.46094
1.5585	-85.19897
1.559	-51.86462
1.5595	-2.61841
1.56	53.37524
1.5605	88.82446
1.561	111.18164
1.5615	122.05811
1.562	132.0282
1.5625	134.5459
1.563	128.40271
1.5635	124.27368
1.564	114.10217
1.5645	78.45154
1.565	36.75842
1.5655	-1.10779
1.566	-27.19116
1.5665	-87.01172
1.567	-160.83069
1.5675	-207.25708
1.568	-205.94788
1.5685	-169.7937
1.569	-115.81421
1.5695	-59.71985
1.57	-3.42407
1.5705	43.70728
1.571	86.00464
1.5715	104.03137
1.572	108.36182
1.5725	91.94641
1.573	73.21472
1.5735	53.77808
1.574	27.19116
1.5745	-14.40125
1.575	-41.18958
1.5755	-45.52002
1.576	-36.4563
1.5765	-30.71594
1.577	-35.75134
1.5775	-37.96692
1.578	-34.84497
1.5785	-13.69629
1.579	9.97009
1.5795	30.51453
1.58	57.50427
1.5805	85.19897
1.581	95.77332
1.5815	117.12341
1.582	127.79846
1.5825	109.87244
1.583	26.28479
1.5835	-70.59631
1.584	-122.66235
1.5845	-153.57971
1.585	-144.51599
1.5855	-116.72058
1.586	-79.35791
1.5865	-43.60657
1.587	8.45947
1.5875	47.33276
1.588	75.12817
1.5885	93.0542
1.589	113.09509
1.5895	113.69934
1.59	100.80872
1.5905	85.60181
1.591	55.08728
1.5915	27.29187
1.592	-4.33044
1.5925	-11.17859
1.593	-14.80408
1.5935	-16.81824
1.594	-1.3092
1.5945	15.40833
1.595	30.81665
1.5955	35.65063
1.596	17.82532
1.5965	-3.8269
1.597	0.90637
1.5975	9.36584
1.598	38.06763
1.5985	53.97949
1.599	55.99365
1.5995	53.67737
1.6	49.14551
1.6005	20.34302
1.601	-0.10071
1.6015	-16.41541
1.602	-18.12744
1.6025	-12.78992
1.603	-20.94727
1.6035	-52.8717
1.604	-77.84729
1.6045	-95.87402
1.605	-103.62854
1.6055	-115.20996
1.606	-110.47668
1.6065	-98.59314
1.607	-83.38623
1.6075	-59.31702
1.608	-50.95825
1.6085	-37.46338
1.609	-21.3501
1.6095	9.16443
1.61	30.91736
1.6105	42.90161
1.611	52.46887
1.6115	60.92834
1.612	73.81897
1.6125	75.53101
1.613	100.80872
1.6135	111.38306
1.614	106.75049
1.6145	91.94641
1.615	82.9834
1.6155	65.3595
1.616	70.19348
1.6165	75.53101
1.617	76.63879
1.6175	78.65295
1.618	76.63879
1.6185	55.79224
1.619	34.74426
1.6195	35.44922
1.62	34.64355
1.6205	24.57275
1.621	20.34302
1.6215	30.2124
1.622	45.62073
1.6225	47.7356
1.623	46.82922
1.6235	43.50586
1.624	27.89612
1.6245	18.93311
1.625	17.52319
1.6255	1.40991
1.626	2.31628
1.6265	17.52319
1.627	26.58691
1.6275	24.27063
1.628	21.45081
1.6285	19.53735
1.629	17.42249
1.6295	18.93311
1.63	27.39258
1.6305	23.56567
1.631	16.41541
1.6315	12.99133
1.632	2.41699
1.6325	-20.44373
1.633	-29.60815
1.6335	-39.37683
1.634	-47.53418
1.6345	-70.89844
1.635	-102.42004
1.6355	-162.54272
1.636	-241.39709
1.6365	-302.72827
1.637	-330.62439
1.6375	-325.99182
1.638	-302.52686
1.6385	-264.35852
1.639	-226.69373
1.6395	-172.71423
1.64	-91.745
1.6405	-4.53186
1.641	76.03455
1.6415	138.47351
1.642	170.39795
1.6425	182.58362
1.643	199.09973
1.6435	217.93213
1.644	227.09656
1.6445	205.84717
1.645	191.44592
1.6455	171.30432
1.646	134.34448
1.6465	91.64429
1.647	38.57117
1.6475	14.60266
1.648	-1.10779
1.6485	-8.25806
1.649	3.22266
1.6495	17.52319
1.65	36.05347
1.6505	47.33276
1.651	39.27612
1.6515	16.61682
1.652	0.80566
1.6525	-3.92761
1.653	-17.01965
1.6535	-62.8418
1.654	-102.62146
1.6545	-133.84094
1.655	-126.38855
1.6555	-93.55774
1.656	-54.0802
1.6565	-1.91345
1.657	47.43347
1.6575	87.11243
1.658	125.38147
1.6585	149.85352
1.659	167.37671
1.6595	171.10291
1.66	172.10999
1.6605	158.5144
1.661	128.50342
1.6615	75.83313
1.662	24.47205
1.6625	-7.35168
1.663	-13.09204
1.6635	-14.80408
1.664	3.12195
1.6645	14.09912
1.665	25.68054
1.6655	35.75134
1.666	57.00073
1.6665	46.62781
1.667	8.25806
1.6675	-54.98657
1.668	-99.90234
1.6685	-122.96448
1.669	-131.62537
1.6695	-124.97864
1.67	-113.49792
1.6705	-102.11792
1.671	-101.71509
1.6715	-87.31384
1.672	-63.14392
1.6725	-25.98267
1.673	7.95593
1.6735	42.7002
1.674	51.5625
1.6745	59.01489
1.675	75.12817
1.6755	87.91809
1.676	93.75916
1.6765	77.74658
1.677	58.81348
1.6775	32.93152
1.678	15.00549
1.6785	3.62549
1.679	3.22266
1.6795	-8.45947
1.68	-9.46655
1.6805	-10.0708
1.681	-14.19983
1.6815	-24.37134
1.682	-42.59949
1.6825	-86.20605
1.683	-127.19421
1.6835	-152.1698
1.684	-179.46167
1.6845	-189.33105
1.685	-175.53406
1.6855	-149.75281
1.686	-95.06836
1.6865	-31.4209
1.687	39.27612
1.6875	79.35791
1.688	96.47827
1.6885	103.82996
1.689	125.18005
1.6895	145.42236
1.69	152.57263
1.6905	140.8905
1.691	123.2666
1.6915	72.10693
1.692	37.86621
1.6925	19.23523
1.693	14.09912
1.6935	19.03381
1.694	13.59558
1.6945	-19.83948
1.695	-44.71436
1.6955	-73.91968
1.696	-89.02588
1.6965	-79.05579
1.697	-65.76233
1.6975	-31.92444
1.698	-2.92053
1.6985	32.22656
1.699	41.29028
1.6995	43.90869
1.7	22.15576
1.7005	-11.07788
1.701	-52.67029
1.7015	-96.47827
1.702	-107.55615
1.7025	-112.99438
1.703	-112.28943
1.7035	-91.8457
1.704	-42.8009
1.7045	22.55859
1.705	86.8103
1.7055	121.75598
1.706	146.02661
1.7065	168.68591
1.707	183.99353
1.7075	197.99194
1.708	194.26575
1.7085	188.22327
1.709	168.18237
1.7095	152.1698
1.71	146.53015
1.7105	154.58679
1.711	146.42944
1.7115	124.97864
1.712	105.6427
1.7125	65.56091
1.713	20.84656
1.7135	-16.51611
1.714	-43.70728
1.7145	-58.00781
1.715	-76.7395
1.7155	-116.31775
1.716	-153.479
1.7165	-210.78186
1.717	-259.021
1.7175	-266.77551
1.718	-234.95178
1.7185	-182.08008
1.719	-104.03137
1.7195	-25.68054
1.72	35.34851
1.7205	79.86145
1.721	110.57739
1.7215	135.25085
1.722	143.50891
1.7225	142.80396
1.723	113.1958
1.7235	82.58057
1.724	68.78357
1.7245	61.23047
1.725	37.36267
1.7255	9.26514
1.726	11.68213
1.7265	1.10779
1.727	5.74036
1.7275	24.06921
1.728	52.16675
1.7285	74.62463
1.729	78.85437
1.7295	74.92676
1.73	67.57507
1.7305	58.20923
1.731	44.31152
1.7315	34.24072
1.732	22.05505
1.7325	-3.62549
1.733	-53.17383
1.7335	-145.62378
1.734	-269.0918
1.7345	-366.77856
1.735	-420.35522
1.7355	-425.28992
1.736	-364.26086
1.7365	-280.67322
1.737	-194.66858
1.7375	-99.3988
1.738	6.04248
1.7385	94.76624
1.739	150.35706
1.7395	170.59937
1.74	173.82202
1.7405	162.54272
1.741	150.05493
1.7415	138.67493
1.742	141.79688
1.7425	141.89758
1.743	139.5813
1.7435	129.00696
1.744	127.39563
1.7445	121.15173
1.745	123.97156
1.7455	115.20996
1.746	89.22729
1.7465	-2.11487
1.747	-95.67261
1.7475	-141.79688
1.748	-148.4436
1.7485	-126.28784
1.749	-79.66003
1.7495	-34.74426
1.75	19.94019
1.7505	68.48145
1.751	115.61279
1.7515	155.39246
1.752	182.98645
1.7525	197.28699
1.753	189.12964
1.7535	167.47742
1.754	135.04944
1.7545	102.21863
1.755	67.97791
1.7555	61.12976
1.756	60.82764
1.7565	46.02356
1.757	10.37292
1.7575	-18.63098
1.758	-26.78833
1.7585	-36.4563
1.759	-38.67188
1.7595	-44.51294
1.76	-44.81506
1.7605	-46.82922
1.761	-49.85046
1.7615	-33.83789
1.762	-42.29736
1.7625	-62.43896
1.763	-61.83472
1.7635	-84.09119
1.764	-100.40588
1.7645	-99.19739
1.765	-87.31384
1.7655	-76.23596
1.766	-55.99365
1.7665	-44.41223
1.767	-36.65771
1.7675	-33.73718
1.768	-20.04089
1.7685	0
1.769	5.43823
1.7695	-10.67505
1.77	-23.56567
1.7705	-79.35791
1.771	-123.97156
1.7715	-126.08643
1.772	-86.00464
1.7725	-27.89612
1.773	-0.50354
1.7735	17.12036
1.774	31.01807
1.7745	63.84888
1.775	91.745
1.7755	105.34058
1.776	103.125
1.7765	85.80322
1.777	69.58923
1.7775	48.13843
1.778	-5.0354
1.7785	-83.99048
1.779	-169.49158
1.7795	-214.50806
1.78	-228.30505
1.7805	-215.21301
1.781	-172.00928
1.7815	-123.66943
1.782	-82.58057
1.7825	-56.09436
1.783	-24.37134
1.7835	-36.05347
1.784	-61.6333
1.7845	-55.2887
1.785	-25.47913
1.7855	20.34302
1.786	66.76941
1.7865	112.89368
1.787	116.72058
1.7875	137.16431
1.788	160.62927
1.7885	205.84717
1.789	235.25391
1.7895	228.80859
1.79	203.22876
1.7905	181.67725
1.791	170.80078
1.7915	161.63635
1.792	147.63794
1.7925	132.53174
1.793	131.92749
1.7935	137.46643
1.794	134.34448
1.7945	133.43811
1.795	132.63245
1.7955	120.95032
1.796	101.8158
1.7965	87.91809
1.797	69.28711
1.7975	59.51843
1.798	21.14868
1.7985	-15.81116
1.799	-47.33276
1.7995	-83.68835
1.8	-165.46326
1.8005	-260.3302
1.801	-323.77625
1.8015	-341.19873
1.802	-296.98792
1.8025	-230.41992
1.803	-159.42078
1.8035	-84.39331
1.804	-18.93311
1.8045	39.17542
1.805	88.72375
1.8055	125.88501
1.806	153.3783
1.8065	157.10449
1.807	151.66626
1.8075	138.57422
1.808	114.00146
1.8085	85.5011
1.809	55.59082
1.8095	49.85046
1.81	64.85596
1.8105	77.44446
1.811	74.02039
1.8115	64.85596
1.812	57.9071
1.8125	49.85046
1.813	28.29895
1.8135	1.61133
1.814	-4.53186
1.8145	-13.49487
1.815	-20.74585
1.8155	-31.21948
1.816	-39.47754
1.8165	-36.4563
1.817	-43.10303
1.8175	-47.43347
1.818	-52.06604
1.8185	-42.39807
1.819	-52.771
1.8195	-58.41064
1.82	-69.48853
1.8205	-87.81738
1.821	-106.34766
1.8215	-103.02429
1.822	-94.46411
1.8225	-81.47278
1.823	-60.92834
1.8235	-23.36426
1.824	-3.12195
1.8245	22.35718
1.825	51.26038
1.8255	71.40198
1.826	85.60181
1.8265	88.0188
1.827	89.73083
1.8275	88.22021
1.828	83.08411
1.8285	72.9126
1.829	58.81348
1.8295	32.52869
1.83	-15.40833
1.8305	-53.77808
1.831	-64.85596
1.8315	-58.10852
1.832	-41.69312
1.8325	-24.37134
1.833	-15.00549
1.8335	3.52478
1.834	14.80408
1.8345	40.58533
1.835	64.55383
1.8355	76.13525
1.836	79.05579
1.8365	49.0448
1.837	9.86938
1.8375	-31.52161
1.838	-50.15259
1.8385	-50.55542
1.839	-43.30444
1.8395	-94.3634
1.84	-156.29883
1.8405	-191.74805
1.841	-223.06824
1.8415	-242.50488
1.842	-247.94312
1.8425	-226.79443
1.843	-191.34521
1.8435	-179.46167
1.844	-160.72998
1.8445	-123.46802
1.845	-123.06519
1.8455	-130.51758
1.846	-134.24377
1.8465	-105.74341
1.847	-34.03931
1.8475	49.44763
1.848	129.91333
1.8485	191.64734
1.849	233.54187
1.8495	270.90454
1.85	295.37659
1.8505	293.66455
1.851	273.12012
1.8515	224.88098
1.852	195.07141
1.8525	167.47742
1.853	125.7843
1.8535	98.59314
1.854	90.23438
1.8545	95.97473
1.855	97.68677
1.8555	85.40039
1.856	61.33118
1.8565	42.8009
1.857	37.16125
1.8575	25.07629
1.858	22.35718
1.8585	22.6593
1.859	33.13293
1.8595	33.53577
1.86	33.13293
1.8605	2.21558
1.861	-25.98267
1.8615	-41.08887
1.862	-48.03772
1.8625	-41.39099
1.863	-16.01257
1.8635	17.92603
1.864	44.11011
1.8645	79.55933
1.865	88.42163
1.8655	80.66711
1.866	69.28711
1.8665	72.40906
1.867	78.75366
1.8675	77.44446
1.868	61.33118
1.8685	52.8717
1.869	50.45471
1.8695	47.63489
1.87	21.14868
1.8705	-5.94177
1.871	-35.2478
1.8715	-70.09277
1.872	-77.74658
1.8725	-85.80322
1.873	-73.31543
1.8735	-47.03064
1.874	-34.74426
1.8745	-26.98975
1.875	-11.78284
1.8755	2.41699
1.876	13.39417
1.8765	15.81116
1.877	19.83948
1.8775	22.55859
1.878	25.57983
1.8785	24.77417
1.879	20.54443
1.8795	3.92761
1.88	-0.30212
1.8805	-5.94177
1.881	-15.50903
1.8815	-30.61523
1.882	-54.48303
1.8825	-87.71667
1.883	-122.96448
1.8835	-146.12732
1.884	-147.53723
1.8845	-144.21387
1.885	-138.87634
1.8855	-140.28625
1.886	-147.43652
1.8865	-167.276
1.887	-180.56946
1.8875	-183.89282
1.888	-194.66858
1.8885	-167.67883
1.889	-117.62695
1.8895	-58.71277
1.89	5.53894
1.8905	64.55383
1.891	102.21863
1.8915	129.40979
1.892	147.33582
1.8925	159.32007
1.893	169.99512
1.8935	177.64893
1.894	168.58521
1.8945	186.81335
1.895	208.66699
1.8955	211.2854
1.896	201.51672
1.8965	190.53955
1.897	176.84326
1.8975	156.29883
1.898	133.3374
1.8985	97.98889
1.899	50.55542
1.8995	25.27771
1.9	4.12903
1.9005	-22.25647
1.901	-25.68054
1.9015	-45.72144
1.902	-83.38623
1.9025	-112.18872
1.903	-120.7489
1.9035	-106.8512
1.904	-78.14941
1.9045	-52.36816
1.905	-58.30994
1.9055	-66.16516
1.906	-74.52393
1.9065	-72.40906
1.907	-90.23438
1.9075	-102.92358
1.908	-114.00146
1.9085	-119.4397
1.909	-116.51917
1.9095	-95.5719
1.91	-55.49011
1.9105	-24.87488
1.911	-25.78125
1.9115	-12.08496
1.912	8.35876
1.9125	38.47046
1.913	47.03064
1.9135	58.91418
1.914	83.08411
1.9145	99.70093
1.915	105.34058
1.9155	107.25403
1.916	104.3335
1.9165	101.8158
1.917	106.64978
1.9175	116.51917
1.918	82.58057
1.9185	46.12427
1.919	30.2124
1.9195	24.77417
1.92	15.40833
1.9205	8.05664
1.921	-0.50354
1.9215	-31.01807
1.922	-72.71118
1.9225	-110.47668
1.923	-140.58838
1.9235	-140.99121
1.924	-125.88501
1.9245	-84.39331
1.925	-31.32019
1.9255	24.67346
1.926	65.86304
1.9265	100.40588
1.927	126.28784
1.9275	137.26501
1.928	146.42944
1.9285	134.84802
1.929	119.13757
1.9295	101.8158
1.93	68.17932
1.9305	35.54993
1.931	15.71045
1.9315	-13.49487
1.932	-37.36267
1.9325	-63.34534
1.933	-58.30994
1.9335	-66.97083
1.934	-92.14783
1.9345	-131.62537
1.935	-154.78821
1.9355	-148.54431
1.936	-135.55298
1.9365	-117.72766
1.937	-88.62305
1.9375	-51.76392
1.938	-26.08337
1.9385	10.57434
1.939	48.94409
1.9395	72.81189
1.94	56.29578
1.9405	11.07788
1.941	-12.78992
1.9415	-25.78125
1.942	-16.91895
1.9425	8.25806
1.943	27.09045
1.9435	51.66321
1.944	6.94885
1.9445	-58.20923
1.945	-79.66003
1.9455	-62.23755
1.946	-30.31311
1.9465	-12.08496
1.947	8.8623
1.9475	32.22656
1.948	67.27295
1.9485	101.61438
1.949	134.44519
1.9495	172.71423
1.95	205.54504
1.9505	207.86133
1.951	190.23743
1.9515	175.73547
1.952	156.70166
1.9525	128.70483
1.953	103.42712
1.9535	76.94092
1.954	43.00232
1.9545	3.62549
1.955	-32.62939
1.9555	-35.44922
1.956	-30.81665
1.9565	-32.62939
1.957	-35.34851
1.9575	-51.46179
1.958	-57.30286
1.9585	-44.81506
1.959	-21.24939
1.9595	4.83398
1.96	35.14709
1.9605	59.01489
1.961	74.62463
1.9615	73.81897
1.962	62.13684
1.9625	57.50427
1.963	62.74109
1.9635	57.30286
1.964	36.95984
1.9645	7.85522
1.965	-9.97009
1.9655	-9.16443
1.966	1.3092
1.9665	20.84656
1.967	30.91736
1.9675	32.42798
1.968	33.43506
1.9685	49.95117
1.969	69.68994
1.9695	60.92834
1.97	42.49878
1.9705	35.95276
1.971	29.80957
1.9715	5.33752
1.972	-29.00391
1.9725	-64.75525
1.973	-109.57031
1.9735	-180.16663
1.974	-241.4978
1.9745	-250.76294
1.975	-224.98169
1.9755	-158.81653
1.976	-102.42004
1.9765	-58.20923
1.977	-18.32886
1.9775	2.5177
1.978	42.29736
1.9785	87.21313
1.979	87.21313
1.9795	70.09277
1.98	45.72144
1.9805	22.45789
1.981	25.27771
1.9815	-8.7616
1.982	-24.57275
1.9825	-12.18567
1.983	18.02673
1.9835	52.97241
1.984	27.09045
1.9845	-25.177
1.985	-63.34534
1.9855	-67.67578
1.986	-74.2218
1.9865	-68.98499
1.987	-63.14392
1.9875	-64.45312
1.988	-64.85596
1.9885	-54.58374
1.989	-24.67346
1.9895	4.22974
1.99	47.23206
1.9905	66.6687
1.991	78.14941
1.9915	73.91968
1.992	70.29419
1.9925	44.81506
1.993	19.03381
1.9935	13.09204
1.994	29.60815
1.9945	40.68604
1.995	48.74268
1.9955	49.64905
1.996	63.74817
1.9965	92.04712
1.997	108.56323
1.9975	111.48376
1.998	99.09668
1.9985	85.90393
1.999	86.00464
1.9995	87.21313
2	81.27136
2.0005	57.10144
2.001	2.5177
2.0015	-57.50427
2.002	-98.59314
2.0025	-102.01721
2.003	-84.39331
2.0035	-57.60498
2.004	-49.24622
2.0045	-33.63647
2.005	-16.01257
2.0055	20.34302
2.006	65.66162
2.0065	99.80164
2.007	122.36023
2.0075	128.90625
2.008	119.4397
2.0085	112.59155
2.009	98.49243
2.0095	93.0542
2.01	75.73242
2.0105	65.66162
2.011	57.8064
2.0115	39.67896
2.012	8.45947
2.0125	-15.81116
2.013	-53.07312
2.0135	-88.32092
2.014	-121.75598
2.0145	-182.68433
2.015	-242.60559
2.0155	-269.79675
2.016	-258.81958
2.0165	-238.57727
2.017	-211.78894
2.0175	-171.10291
2.018	-145.72449
2.0185	-157.91016
2.019	-155.896
2.0195	-107.85828
2.02	-24.27063
2.0205	64.75525
2.021	158.11157
2.0215	229.71497
2.022	276.84631
2.0225	293.86597
2.023	264.55994
2.0235	217.22717
2.024	181.37512
2.0245	163.95264
2.025	159.21936
2.0255	146.22803
2.026	140.18555
2.0265	130.21545
2.027	126.69067
2.0275	121.75598
2.028	116.01562
2.0285	96.8811
2.029	40.58533
2.0295	-12.48779
2.03	-57.9071
2.0305	-76.94092
2.031	-76.7395
2.0315	-70.79773
2.032	-51.96533
2.0325	-6.44531
2.033	33.13293
2.0335	52.56958
2.034	64.95667
2.0345	81.27136
2.035	89.12659
2.0355	104.53491
2.036	103.32642
2.0365	96.07544
2.037	89.42871
2.0375	75.93384
2.038	72.00623
2.0385	72.71118
2.039	51.46179
2.0395	16.3147
2.04	-63.14392
2.0405	-131.82678
2.041	-195.17212
2.0415	-249.95728
2.042	-286.51428
2.0425	-287.01782
2.043	-252.67639
2.0435	-190.53955
2.044	-131.12183
2.0445	-69.08569
2.045	-8.8623
2.0455	41.69312
2.046	61.43188
2.0465	72.61047
2.047	68.17932
2.0475	65.46021
2.048	52.06604
2.0485	39.77966
2.049	22.25647
2.0495	-5.84106
2.05	-12.89062
2.0505	-3.32336
2.051	19.63806
2.0515	44.21082
2.052	70.59631
2.0525	88.22021
2.053	100.70801
2.0535	99.09668
2.054	86.91101
2.0545	80.96924
2.055	76.13525
2.0555	65.05737
2.056	61.93542
2.0565	54.78516
2.057	15.91187
2.0575	-31.72302
2.058	-58.20923
2.0585	-72.10693
2.059	-92.55066
2.0595	-129.40979
2.06	-161.33423
2.0605	-219.34204
2.061	-261.43799
2.0615	-281.98242
2.062	-267.98401
2.0625	-253.88489
2.063	-225.68665
2.0635	-204.9408
2.064	-182.58362
2.0645	-132.83386
2.065	-80.86853
2.0655	-23.76709
2.066	32.02515
2.0665	77.44446
2.067	110.98022
2.0675	143.3075
2.068	175.93689
2.0685	209.27124
2.069	233.03833
2.0695	239.18152
2.07	223.26965
2.0705	179.96521
2.071	117.62695
2.0715	71.30127
2.072	51.96533
2.0725	64.35242
2.073	75.63171
2.0735	98.0896
2.074	124.57581
2.0745	146.93298
2.075	144.41528
2.0755	129.81262
2.076	107.95898
2.0765	55.69153
2.077	-18.63098
2.0775	-79.55933
2.078	-124.57581
2.0785	-142.90466
2.079	-129.91333
2.0795	-101.8158
2.08	-68.98499
2.0805	-23.46497
2.081	19.73877
2.0815	65.96375
2.082	97.68677
2.0825	102.62146
2.083	106.34766
2.0835	98.19031
2.084	92.55066
2.0845	85.19897
2.085	86.60889
2.0855	85.09827
2.086	84.39331
2.0865	71.30127
2.087	8.25806
2.0875	-88.72375
2.088	-164.7583
2.0885	-215.71655
2.089	-246.73462
2.0895	-290.34119
2.09	-287.31995
2.0905	-243.20984
2.091	-163.34839
2.0915	-74.62463
2.092	8.66089
2.0925	79.35791
2.093	117.22412
2.0935	138.57422
2.094	134.74731
2.0945	106.75049
2.095	89.02588
2.0955	78.14941
2.096	66.16516
2.0965	56.39648
2.097	22.76001
2.0975	-21.75293
2.098	-57.70569
2.0985	-68.58215
2.099	-48.13843
2.0995	-30.41382
2.1	-39.37683
2.1005	-61.02905
2.101	-84.99756
2.1015	-103.42712
2.102	-126.28784
2.1025	-122.96448
2.103	-107.95898
2.1035	-96.98181
2.104	-86.91101
2.1045	-95.16907
2.105	-107.75757
2.1055	-101.41296
2.106	-81.57349
2.1065	-49.14551
2.107	6.2439
2.1075	42.49878
2.108	77.44446
2.1085	115.20996
2.109	155.49316
2.1095	169.39087
2.11	184.19495
2.1105	178.45459
2.111	180.36804
2.1115	171.90857
2.112	157.2052
2.1125	133.84094
2.113	100.20447
2.1135	75.53101
2.114	72.81189
2.1145	61.12976
2.115	40.88745
2.1155	12.48779
2.116	-51.26038
2.1165	-114.00146
2.117	-148.84644
2.1175	-166.47034
2.118	-148.94714
2.1185	-117.22412
2.119	-94.16199
2.1195	-57.10144
2.12	-17.42249
2.1205	32.32727
2.121	72.61047
2.1215	96.98181
2.122	100.80872
2.1225	94.3634
2.123	91.24146
2.1235	104.83704
2.124	115.41138
2.1245	144.91882
2.125	191.84875
2.1255	221.85974
2.126	218.33496
2.1265	188.12256
2.127	180.67017
2.1275	155.39246
2.128	101.51367
2.1285	9.06372
2.129	-92.75208
2.1295	-167.98096
2.13	-219.34204
2.1305	-279.96826
2.131	-295.17517
2.1315	-275.53711
2.132	-236.16028
2.1325	-195.47424
2.133	-161.93848
2.1335	-152.67334
2.134	-113.39722
2.1345	-59.1156
2.135	-13.19275
2.1355	31.32019
2.136	76.84021
2.1365	92.14783
2.137	95.37048
2.1375	117.32483
2.138	147.23511
2.1385	189.33105
2.139	212.29248
2.1395	229.31213
2.14	210.98328
2.1405	175.13123
2.141	145.22095
2.1415	101.51367
2.142	64.55383
2.1425	27.49329
2.143	-16.3147
2.1435	-40.98816
2.144	-39.07471
2.1445	-25.98267
2.145	-36.25488
2.1455	-96.67969
2.146	-156.29883
2.1465	-188.02185
2.147	-194.66858
2.1475	-168.68591
2.148	-128.20129
2.1485	-57.40356
2.149	8.8623
2.1495	37.66479
2.15	59.82056
2.1505	53.47595
2.151	40.78674
2.1515	25.88196
2.152	-6.84814
2.1525	-40.98816
2.153	-46.42639
2.1535	-25.88196
2.154	8.15735
2.1545	70.89844
2.155	132.93457
2.1555	173.31848
2.156	189.9353
2.1565	180.36804
2.157	153.57971
2.1575	126.38855
2.158	101.01013
2.1585	67.77649
2.159	46.02356
2.1595	14.60266
2.16	-24.67346
2.1605	-58.91418
2.161	-78.25012
2.1615	-87.71667
2.162	-100.6073
2.1625	-115.81421
2.163	-131.82678
2.1635	-138.67493
2.164	-133.23669
2.1645	-145.62378
2.165	-180.26733
2.1655	-205.54504
2.166	-195.47424
2.1665	-176.74255
2.167	-149.04785
2.1675	-123.16589
2.168	-75.93384
2.1685	-21.65222
2.169	46.82922
2.1695	91.44287
2.17	107.75757
2.1705	112.39014
2.171	138.27209
2.1715	157.40662
2.172	166.57104
2.1725	166.87317
2.173	160.83069
2.1735	147.53723
2.174	139.17847
2.1745	119.54041
2.175	72.71118
2.1755	14.40125
2.176	-68.38074
2.1765	-130.21545
2.177	-194.06433
2.1775	-254.0863
2.178	-272.71729
2.1785	-259.82666
2.179	-287.62207
2.1795	-379.56848
2.18	-430.32532
2.1805	-397.49451
2.181	-320.85571
2.1815	-217.32788
2.182	-95.26978
2.1825	31.52161
2.183	136.76147
2.1835	235.25391
2.184	308.0658
2.1845	380.07202
2.185	428.71399
2.1855	445.63293
2.186	443.01453
2.1865	424.38354
2.187	386.81946
2.1875	335.86121
2.188	259.82666
2.1885	188.02185
2.189	109.16748
2.1895	27.29187
2.19	-43.00232
2.1905	-103.32642
2.191	-131.12183
2.1915	-125.88501
2.192	-95.77332
2.1925	-75.32959
2.193	-46.62781
2.1935	-41.59241
2.194	-52.67029
2.1945	-40.48462
2.195	-20.84656
2.1955	12.5885
2.196	45.82214
2.1965	83.58765
2.197	99.60022
2.1975	106.9519
2.198	97.58606
2.1985	92.34924
2.199	86.91101
2.1995	78.65295
2.2	60.82764
2.2005	49.64905
2.201	40.68604
2.2015	41.39099
2.202	56.09436
2.2025	74.42322
2.203	73.91968
2.2035	61.93542
2.204	43.50586
2.2045	23.26355
2.205	-5.53894
2.2055	-21.75293
2.206	-25.27771
2.2065	-40.68604
2.207	-57.40356
2.2075	-62.13684
2.208	-64.55383
2.2085	-52.771
2.209	-36.95984
2.2095	-20.04089
2.21	0
2.2105	10.37292
2.211	19.73877
2.2115	19.94019
2.212	21.65222
2.2125	20.34302
2.213	8.25806
2.2135	7.04956
2.214	27.09045
2.2145	48.44055
2.215	58.20923
2.2155	60.92834
2.216	58.91418
2.2165	61.12976
2.217	51.46179
2.2175	28.29895
2.218	-3.62549
2.2185	-24.47205
2.219	-31.21948
2.2195	-29.40674
2.22	-32.02515
2.2205	-24.87488
2.221	-21.14868
2.2215	-14.40125
2.222	-12.99133
2.2225	-36.05347
2.223	-56.19507
2.2235	-57.40356
2.224	-52.06604
2.2245	-40.08179
2.225	-29.50745
2.2255	-15.20691
2.226	-15.20691
2.2265	-16.3147
2.227	-24.37134
2.2275	-15.20691
2.228	-23.56567
2.2285	-30.2124
2.229	-45.3186
2.2295	-92.04712
2.23	-169.7937
2.2305	-215.91797
2.231	-262.74719
2.2315	-281.98242
2.232	-268.18542
2.2325	-272.51587
2.233	-285.5072
2.2335	-242.30347
2.234	-183.38928
2.2345	-144.31458
2.235	-143.71033
2.2355	-151.66626
2.236	-136.05652
2.2365	-123.87085
2.237	-101.21155
2.2375	-79.66003
2.238	-37.86621
2.2385	9.46655
2.239	57.30286
2.2395	54.38232
2.24	32.93152
2.2405	50.2533
2.241	84.49402
2.2415	140.68909
2.242	204.43726
2.2425	257.30896
2.243	308.67004
2.2435	359.6283
2.244	384.30176
2.2445	342.50793
2.245	269.99817
2.2455	213.90381
2.246	187.31689
2.2465	167.57812
2.247	136.56006
2.2475	111.58447
2.248	109.77173
2.2485	74.2218
2.249	-8.25806
2.2495	-125.58289
2.25	-228.50647
2.2505	-278.05481
2.251	-261.13586
2.2515	-205.54504
2.252	-134.24377
2.2525	-80.26428
2.253	-32.93152
2.2535	6.04248
2.254	55.2887
2.2545	87.41455
2.255	108.96606
2.2555	124.27368
2.256	151.16272
2.2565	166.77246
2.257	158.11157
2.2575	143.50891
2.258	132.22961
2.2585	134.94873
2.259	137.96997
2.2595	150.8606
2.26	160.52856
2.2605	144.11316
2.261	109.06677
2.2615	78.75366
2.262	60.92834
2.2625	51.96533
2.263	43.80798
2.2635	21.95435
2.264	-20.54443
2.2645	-49.74976
2.265	-86.91101
2.2655	-100.40588
2.266	-91.54358
2.2665	-79.2572
2.267	-76.43738
2.2675	-69.38782
2.268	-76.23596
2.2685	-85.29968
2.269	-102.82288
2.2695	-98.29102
2.27	-82.9834
2.2705	-73.71826
2.271	-60.72693
2.2715	-45.2179
2.272	-39.88037
2.2725	-26.3855
2.273	2.81982
2.2735	28.80249
2.274	57.70569
2.2745	78.85437
2.275	82.27844
2.2755	77.64587
2.276	78.65295
2.2765	83.68835
2.277	102.52075
2.2775	96.8811
2.278	89.63013
2.2785	69.58923
2.279	51.76392
2.2795	36.25488
2.28	17.6239
2.2805	9.36584
2.281	5.33752
2.2815	-5.33752
2.282	-34.74426
2.2825	-71.40198
2.283	-111.58447
2.2835	-134.94873
2.284	-135.75439
2.2845	-122.15881
2.285	-101.31226
2.2855	-82.9834
2.286	-65.96375
2.2865	-54.68445
2.287	-62.23755
2.2875	-53.77808
2.288	-25.47913
2.2885	-5.13611
2.289	15.30762
2.2895	26.58691
2.29	33.13293
2.2905	60.92834
2.291	74.2218
2.2915	78.65295
2.292	91.34216
2.2925	107.15332
2.293	105.84412
2.2935	84.69543
2.294	52.46887
2.2945	-5.13611
2.295	-93.0542
2.2955	-150.05493
2.296	-157.50732
2.2965	-120.14465
2.297	-64.35242
2.2975	-3.8269
2.298	37.46338
2.2985	59.71985
2.299	42.90161
2.2995	2.5177
2.3	-28.60107
2.3005	-43.30444
2.301	-48.74268
2.3015	-54.78516
2.302	-60.3241
2.3025	-123.36731
2.303	-174.92981
2.3035	-190.74097
2.304	-167.77954
2.3045	-105.54199
2.305	-50.05188
2.3055	16.61682
2.306	65.3595
2.3065	87.61597
2.307	95.16907
2.3075	87.11243
2.308	75.53101
2.3085	60.52551
2.309	26.08337
2.3095	4.53186
2.31	-5.23682
2.3105	7.5531
2.311	38.26904
2.3115	64.05029
2.312	81.7749
2.3125	103.52783
2.313	127.69775
2.3135	134.14307
2.314	130.71899
2.3145	126.28784
2.315	101.71509
2.3155	76.43738
2.316	64.75525
2.3165	46.82922
2.317	18.53027
2.3175	0.60425
2.318	8.7616
2.3185	14.50195
2.319	31.92444
2.3195	36.55701
2.32	39.67896
2.3205	27.49329
2.321	12.48779
2.3215	6.14319
2.322	0.80566
2.3225	-12.68921
2.323	-33.03223
2.3235	-46.82922
2.324	-50.85754
2.3245	-50.75684
2.325	-46.82922
2.3255	-34.94568
2.326	-13.19275
2.3265	-0.70496
2.327	16.81824
2.3275	23.26355
2.328	38.26904
2.3285	43.40515
2.329	38.16833
2.3295	32.7301
2.33	25.27771
2.3305	29.91028
2.331	8.66089
2.3315	-20.94727
2.332	-44.0094
2.3325	-62.74109
2.333	-64.45312
2.3335	-58.20923
2.334	-37.06055
2.3345	-13.49487
2.335	-8.56018
2.3355	-1.61133
2.336	8.96301
2.3365	22.35718
2.337	35.75134
2.3375	42.90161
2.338	54.28162
2.3385	57.20215
2.339	52.67029
2.3395	35.65063
2.34	-2.41699
2.3405	-20.74585
2.341	-21.55151
2.3415	-10.27222
2.342	24.47205
2.3425	51.5625
2.343	58.61206
2.3435	38.47046
2.344	20.44373
2.3445	18.32886
2.345	17.6239
2.3455	19.23523
2.346	29.10461
2.3465	25.37842
2.347	27.19116
2.3475	30.81665
2.348	33.53577
2.3485	31.01807
2.349	34.54285
2.3495	30.2124
2.35	21.85364
2.3505	26.98975
2.351	25.57983
2.3515	12.48779
2.352	7.65381
2.3525	6.54602
2.353	-14.70337
2.3535	-26.3855
2.354	-39.37683
2.3545	-41.79382
2.355	-60.62622
2.3555	-66.6687
2.356	-73.21472
2.3565	-86.91101
2.357	-128.70483
2.3575	-156.19812
2.358	-187.61902
2.3585	-242.00134
2.359	-262.64648
2.3595	-237.77161
2.36	-187.21619
2.3605	-123.56873
2.361	-75.4303
2.3615	-41.69312
2.362	-7.95593
2.3625	1.71204
2.363	20.1416
2.3635	51.96533
2.364	80.4657
2.3645	97.58606
2.365	117.72766
2.3655	124.07227
2.366	114.20288
2.3665	85.80322
2.367	64.85596
2.3675	74.2218
2.368	87.01172
2.3685	92.95349
2.369	86.70959
2.3695	66.26587
2.37	40.08179
2.3705	16.11328
2.371	19.43665
2.3715	34.14001
2.372	38.47046
2.3725	55.99365
2.373	76.84021
2.3735	89.22729
2.374	96.27686
2.3745	96.17615
2.375	84.2926
2.3755	96.27686
2.376	94.96765
2.3765	83.88977
2.377	59.41772
2.3775	26.68762
2.378	-21.3501
2.3785	-46.72852
2.379	-59.31702
2.3795	-88.52234
2.38	-102.72217
2.3805	-119.23828
2.381	-122.76306
2.3815	-88.72375
2.382	-51.46179
2.3825	-17.72461
2.383	-14.19983
2.3835	-46.92993
2.384	-61.83472
2.3845	-65.76233
2.385	-49.24622
2.3855	-24.06921
2.386	2.61841
2.3865	21.95435
2.387	44.31152
2.3875	42.29736
2.388	33.73718
2.3885	22.15576
2.389	9.86938
2.3895	23.66638
2.39	48.23914
2.3905	77.54517
2.391	90.23438
2.3915	96.37756
2.392	96.37756
2.3925	100.40588
2.393	112.69226
2.3935	113.1958
2.394	108.96606
2.3945	101.71509
2.395	87.91809
2.3955	61.43188
2.396	14.50195
2.3965	-15.1062
2.397	-40.88745
2.3975	-52.16675
2.398	-51.5625
2.3985	-48.23914
2.399	-85.19897
2.3995	-131.62537
2.4	-150.9613
2.4005	-141.79688
2.401	-120.14465
2.4015	-80.36499
2.402	-42.7002
2.4025	-24.67346
2.403	-18.12744
2.4035	-7.65381
2.404	-2.01416
2.4045	7.95593
2.405	27.6947
2.4055	34.74426
2.406	29.30603
2.4065	40.98816
2.407	42.8009
2.4075	57.20215
2.408	59.61914
2.4085	68.68286
2.409	70.49561
2.4095	70.29419
2.41	80.86853
2.4105	90.63721
2.411	100.40588
2.4115	113.09509
2.412	117.42554
2.4125	110.07385
2.413	81.06995
2.4135	40.2832
2.414	12.89062
2.4145	-14.09912
2.415	-45.11719
2.4155	-98.29102
2.416	-149.55139
2.4165	-200.81177
2.417	-224.47815
2.4175	-232.03125
2.418	-228.60718
2.4185	-198.89832
2.419	-161.83777
2.4195	-139.88342
2.42	-124.97864
2.4205	-102.31934
2.421	-55.59082
2.4215	-2.21558
2.422	38.06763
2.4225	66.46729
2.423	91.14075
2.4235	109.26819
2.424	115.20996
2.4245	90.03296
2.425	64.55383
2.4255	50.75684
2.426	56.69861
2.4265	77.24304
2.427	96.27686
2.4275	94.96765
2.428	38.47046
2.4285	-42.29736
2.429	-111.58447
2.4295	-158.21228
2.43	-179.56238
2.4305	-206.04858
2.431	-217.42859
2.4315	-216.92505
2.432	-178.05176
2.4325	-120.64819
2.433	-66.97083
2.4335	3.22266
2.434	68.78357
2.4345	120.84961
2.435	163.4491
2.4355	178.85742
2.436	182.58362
2.4365	181.77795
2.437	186.20911
2.4375	178.45459
2.438	156.09741
2.4385	99.3988
2.439	62.9425
2.4395	19.33594
2.44	-34.34143
2.4405	-107.65686
2.441	-150.25635
2.4415	-140.68909
2.442	-100.6073
2.4425	-42.39807
2.443	24.87488
2.4435	83.28552
2.444	122.36023
2.4445	158.61511
2.445	181.57654
2.4455	174.42627
2.446	158.91724
2.4465	137.46643
2.447	111.78589
2.4475	101.21155
2.448	112.69226
2.4485	117.52625
2.449	118.63403
2.4495	135.75439
2.45	165.06042
2.4505	162.44202
2.451	140.08484
2.4515	121.85669
2.452	91.34216
2.4525	74.12109
2.453	55.69153
2.4535	57.30286
2.454	57.00073
2.4545	46.72852
2.455	28.80249
2.4555	16.21399
2.456	0.50354
2.4565	-10.27222
2.457	-22.6593
2.4575	-20.1416
2.458	-22.15576
2.4585	-24.67346
2.459	-79.66003
2.4595	-158.5144
2.46	-228.00293
2.4605	-259.22241
2.461	-246.4325
2.4615	-206.04858
2.462	-141.69617
2.4625	-70.49561
2.463	-22.15576
2.4635	8.66089
2.464	44.41223
2.4645	72.40906
2.465	96.07544
2.4655	112.08801
2.466	107.15332
2.4665	106.34766
2.467	87.41455
2.4675	69.08569
2.468	57.40356
2.4685	60.3241
2.469	54.48303
2.4695	41.39099
2.47	25.57983
2.4705	22.76001
2.471	15.1062
2.4715	-11.68213
2.472	-34.54285
2.4725	-72.30835
2.473	-120.54749
2.4735	-169.99512
2.474	-200.71106
2.4745	-213.09814
2.475	-208.56628
2.4755	-178.15247
2.476	-175.13123
2.4765	-169.89441
2.477	-152.77405
2.4775	-117.02271
2.478	-69.48853
2.4785	-26.3855
2.479	-8.35876
2.4795	-13.39417
2.48	-0.60425
2.4805	13.69629
2.481	16.3147
2.4815	22.55859
2.482	28.39966
2.4825	32.62939
2.483	3.8269
2.4835	-23.06213
2.484	-24.97559
2.4845	-18.73169
2.485	-10.87646
2.4855	-7.65381
2.486	-18.12744
2.4865	-35.75134
2.487	-83.58765
2.4875	-106.54907
2.488	-99.70093
2.4885	-78.35083
2.489	-47.43347
2.4895	-14.60266
2.49	31.72302
2.4905	103.125
2.491	154.28467
2.4915	186.51123
2.492	193.86292
2.4925	203.22876
2.493	198.79761
2.4935	185.00061
2.494	165.36255
2.4945	123.06519
2.495	70.29419
2.4955	23.66638
2.496	7.15027
2.4965	-13.59558
2.497	-79.66003
2.4975	-171.20361
2.498	-207.86133
2.4985	-186.30981
2.499	-137.56714
2.4995	-52.771
2.5	35.34851
2.5005	108.66394
2.501	157.00378
2.5015	164.45618
2.502	123.56873
2.5025	93.75916
2.503	76.7395
2.5035	81.97632
2.504	71.40198
2.5045	42.59949
2.505	6.74744
2.5055	-22.76001
2.506	-32.32727
2.5065	-17.6239
2.507	20.94727
2.5075	58.51135
2.508	72.71118
2.5085	73.91968
2.509	59.92126
2.5095	50.95825
2.51	60.3241
2.5105	78.65295
2.511	90.63721
2.5115	72.20764
2.512	49.85046
2.5125	20.1416
2.513	6.94885
2.5135	15.50903
2.514	11.07788
2.5145	-17.52319
2.515	-57.00073
2.5155	-116.51917
2.516	-137.16431
2.5165	-144.81812
2.517	-120.95032
2.5175	-94.46411
2.518	-75.53101
2.5185	-50.65613
2.519	-24.77417
2.5195	9.86938
2.52	57.20215
2.5205	82.68127
2.521	117.92908
2.5215	133.43811
2.522	140.78979
2.5225	160.52856
2.523	168.58521
2.5235	165.86609
2.524	172.91565
2.5245	171.50574
2.525	159.62219
2.5255	153.479
2.526	130.11475
2.5265	88.0188
2.527	45.2179
2.5275	13.797
2.528	-6.3446
2.5285	-19.83948
2.529	-52.26746
2.5295	-86.60889
2.53	-102.62146
2.5305	-104.03137
2.531	-93.96057
2.5315	-81.17065
2.532	-75.12817
2.5325	-86.30676
2.533	-108.96606
2.5335	-136.35864
2.534	-181.87866
2.5345	-232.83691
2.535	-255.2948
2.5355	-247.94312
2.536	-219.03992
2.5365	-163.04626
2.537	-109.87244
2.5375	-64.151
2.538	-31.52161
2.5385	3.42407
2.539	32.83081
2.5395	56.39648
2.54	52.36816
2.5405	28.70178
2.541	20.34302
2.5415	35.85205
2.542	74.72534
2.5425	110.37598
2.543	120.84961
2.5435	121.55457
2.544	153.68042
2.5445	197.28699
2.545	230.72205
2.5455	234.85107
2.546	198.89832
2.5465	149.6521
2.547	111.58447
2.5475	72.40906
2.548	50.75684
2.5485	61.33118
2.549	74.42322
2.5495	75.53101
2.55	90.23438
2.5505	86.30676
2.551	74.82605
2.5515	57.8064
2.552	49.44763
2.5525	17.52319
2.553	-18.02673
2.5535	-71.40198
2.554	-119.64111
2.5545	-215.31372
2.555	-307.36084
2.5555	-340.69519
2.556	-329.81873
2.5565	-296.48438
2.557	-245.02258
2.5575	-169.59229
2.558	-99.09668
2.5585	-47.33276
2.559	-0.50354
2.5595	7.85522
2.56	11.07788
2.5605	39.47754
2.561	69.08569
2.5615	70.89844
2.562	79.96216
2.5625	90.83862
2.563	114.4043
2.5635	124.97864
2.564	150.05493
2.5645	148.54431
2.565	98.69385
2.5655	18.53027
2.566	-60.3241
2.5665	-100.00305
2.567	-121.9574
2.5675	-160.02502
2.568	-184.29565
2.5685	-203.12805
2.569	-203.22876
2.5695	-182.78503
2.57	-138.57422
2.5705	-85.09827
2.571	-26.98975
2.5715	16.81824
2.572	19.03381
2.5725	-39.07471
2.573	-117.82837
2.5735	-141.49475
2.574	-139.48059
2.5745	-126.69067
2.575	-75.63171
2.5755	-6.3446
2.576	50.55542
2.5765	99.2981
2.577	133.84094
2.5775	168.58521
2.578	185.50415
2.5785	214.30664
2.579	260.12878
2.5795	301.92261
2.58	329.31519
2.5805	329.71802
2.581	316.82739
2.5815	317.73376
2.582	321.35925
2.5825	273.22083
2.583	220.44983
2.5835	159.82361
2.584	90.63721
2.5845	3.92761
2.585	-52.36816
2.5855	-90.13367
2.586	-129.20837
2.5865	-138.3728
2.587	-134.24377
2.5875	-126.38855
2.588	-111.18164
2.5885	-98.79456
2.589	-81.27136
2.5895	-61.93542
2.59	-38.67188
2.5905	-12.78992
2.591	-3.7262
2.5915	-0.40283
2.592	19.53735
2.5925	41.79382
2.593	70.29419
2.5935	89.12659
2.594	95.26978
2.5945	96.07544
2.595	101.9165
2.5955	115.31067
2.596	115.41138
2.5965	82.27844
2.597	37.56409
2.5975	-19.53735
2.598	-60.52551
2.5985	-93.0542
2.599	-98.99597
2.5995	-88.82446
2.6	-87.21313
2.6005	-67.07153
2.601	-33.23364
2.6015	4.73328
2.602	45.62073
2.6025	71.30127
2.603	78.35083
2.6035	81.47278
2.604	72.40906
2.6045	67.97791
2.605	62.9425
2.6055	47.23206
2.606	15.60974
2.6065	-34.24072
2.607	-62.13684
2.6075	-79.86145
2.608	-71.7041
2.6085	-46.62781
2.609	-17.72461
2.6095	-1.81274
2.61	15.30762
2.6105	40.48462
2.611	53.37524
2.6115	64.25171
2.612	70.89844
2.6125	34.44214
2.613	-2.41699
2.6135	-45.41931
2.614	-77.84729
2.6145	-107.35474
2.615	-130.8197
2.6155	-170.59937
2.616	-191.04309
2.6165	-235.75745
2.617	-292.85889
2.6175	-340.09094
2.618	-387.52441
2.6185	-421.2616
2.619	-401.42212
2.6195	-349.5575
2.62	-262.8479
2.6205	-140.08484
2.621	-4.12903
2.6215	139.48059
2.622	261.6394
2.6225	345.02563
2.623	391.45203
2.6235	404.74548
2.624	386.21521
2.6245	358.92334
2.625	336.36475
2.6255	289.83765
2.626	226.19019
2.6265	187.01477
2.627	149.6521
2.6275	99.60022
2.628	48.44055
2.6285	9.86938
2.629	-3.8269
2.6295	-1.00708
2.63	-1.40991
2.6305	4.73328
2.631	16.71753
2.6315	20.94727
2.632	-22.55859
2.6325	-58.41064
2.633	-76.94092
2.6335	-88.11951
2.634	-96.7804
2.6345	-91.14075
2.635	-76.63879
2.6355	-75.93384
2.636	-69.38782
2.6365	-59.1156
2.637	-41.18958
2.6375	-21.3501
2.638	-7.5531
2.6385	-2.92053
2.639	-30.01099
2.6395	-102.52075
2.64	-195.77637
2.6405	-305.14526
2.641	-392.66052
2.6415	-449.56055
2.642	-444.92798
2.6425	-385.51025
2.643	-273.62366
2.6435	-148.64502
2.644	-29.80957
2.6445	83.18481
2.645	185.40344
2.6455	256.40259
2.646	292.15393
2.6465	314.81323
2.647	319.24438
2.6475	304.84314
2.648	293.26172
2.6485	296.18225
2.649	299.10278
2.6495	282.38525
2.65	236.66382
2.6505	186.1084
2.651	153.78113
2.6515	138.47351
2.652	121.65527
2.6525	107.15332
2.653	84.69543
2.6535	62.03613
2.654	71.80481
2.6545	55.49011
2.655	8.96301
2.6555	-20.64514
2.656	-49.95117
2.6565	-64.85596
2.657	-72.20764
2.6575	-74.82605
2.658	-99.19739
2.6585	-105.13916
2.659	-91.64429
2.6595	-75.32959
2.66	-64.151
2.6605	-72.10693
2.661	-97.18323
2.6615	-111.9873
2.662	-107.75757
2.6625	-64.35242
2.663	-19.33594
2.6635	2.21558
2.664	18.22815
2.6645	19.83948
2.665	34.74426
2.6655	63.74817
2.666	82.17773
2.6665	77.14233
2.667	79.96216
2.6675	93.25562
2.668	108.66394
2.6685	118.73474
2.669	94.06128
2.6695	51.15967
2.67	20.1416
2.6705	-17.72461
2.671	-63.64746
2.6715	-93.35632
2.672	-114.60571
2.6725	-108.05969
2.673	-73.01331
2.6735	-61.53259
2.674	-75.73242
2.6745	-93.15491
2.675	-96.37756
2.6755	-80.06287
2.676	-72.81189
2.6765	-99.80164
2.677	-122.86377
2.6775	-113.29651
2.678	-79.96216
2.6785	-33.43506
2.679	13.49487
2.6795	71.40198
2.68	128.302
2.6805	166.47034
2.681	179.8645
2.6815	191.74805
2.682	183.99353
2.6825	171.0022
2.683	151.36414
2.6835	113.80005
2.684	88.42163
2.6845	64.85596
2.685	45.01648
2.6855	20.04089
2.686	-24.37134
2.6865	-55.2887
2.687	-76.94092
2.6875	-66.06445
2.688	-37.7655
2.6885	-6.84814
2.689	5.33752
2.6895	2.5177
2.69	-0.10071
2.6905	-10.97717
2.691	-9.36584
2.6915	-16.11328
2.692	-39.37683
2.6925	-82.27844
2.693	-118.53333
2.6935	-129.30908
2.694	-119.74182
2.6945	-89.328
2.695	-53.67737
2.6955	-17.12036
2.696	4.43115
2.6965	14.30054
2.697	16.61682
2.6975	37.56409
2.698	49.24622
2.6985	58.41064
2.699	34.94568
2.6995	1.3092
2.7	-31.21948
2.7005	-43.50586
2.701	-31.82373
2.7015	-13.49487
2.702	12.78992
2.7025	7.5531
2.703	-2.81982
2.7035	-8.56018
2.704	-10.87646
2.7045	2.92053
2.705	30.81665
2.7055	21.75293
2.706	6.44531
2.7065	7.15027
2.707	14.70337
2.7075	31.82373
2.708	71.80481
2.7085	106.8512
2.709	120.04395
2.7095	114.90784
2.71	90.23438
2.7105	73.91968
2.711	51.5625
2.7115	37.06055
2.712	49.64905
2.7125	41.29028
2.713	-1.81274
2.7135	-40.88745
2.714	-71.60339
2.7145	-85.5011
2.715	-75.02747
2.7155	-61.6333
2.716	-39.17542
2.7165	-3.8269
2.717	26.48621
2.7175	72.20764
2.718	119.94324
2.7185	144.21387
2.719	164.65759
2.7195	159.92432
2.72	139.48059
2.7205	118.53333
2.721	96.07544
2.7215	80.36499
2.722	67.8772
2.7225	56.19507
2.723	24.87488
2.7235	-14.40125
2.724	-44.41223
2.7245	-68.07861
2.725	-81.57349
2.7255	-87.71667
2.726	-97.78748
2.7265	-146.02661
2.727	-202.92664
2.7275	-248.9502
2.728	-278.45764
2.7285	-290.13977
2.729	-294.06738
2.7295	-314.81323
2.73	-299.20349
2.7305	-242.60559
2.731	-175.23193
2.7315	-130.41687
2.732	-74.82605
2.7325	-2.01416
2.733	59.31702
2.7335	114.00146
2.734	149.95422
2.7345	189.63318
2.735	200.0061
2.7355	177.64893
2.736	160.62927
2.7365	147.43652
2.737	124.67651
2.7375	129.81262
2.738	118.2312
2.7385	95.87402
2.739	84.89685
2.7395	65.96375
2.74	68.17932
2.7405	82.58057
2.741	102.42004
2.7415	44.81506
2.742	1.40991
2.7425	-26.88904
2.743	-13.99841
2.7435	32.02515
2.744	72.9126
2.7445	114.60571
2.745	145.52307
2.7455	171.0022
2.746	182.3822
2.7465	175.33264
2.747	143.50891
2.7475	122.56165
2.748	113.80005
2.7485	102.92358
2.749	72.30835
2.7495	42.90161
2.75	19.43665
2.7505	-14.60266
2.751	-71.60339
2.7515	-129.20837
2.752	-201.91956
2.7525	-223.37036
2.753	-205.94788
2.7535	-152.27051
2.754	-96.67969
2.7545	-41.39099
2.755	4.63257
2.7555	39.17542
2.756	57.50427
2.7565	49.95117
2.757	53.57666
2.7575	58.30994
2.758	64.45312
2.7585	75.32959
2.759	68.07861
2.7595	60.92834
2.76	39.37683
2.7605	33.03223
2.761	33.63647
2.7615	27.79541
2.762	23.66638
2.7625	27.6947
2.763	29.80957
2.7635	24.06921
2.764	13.69629
2.7645	-13.69629
2.765	-81.7749
2.7655	-149.24927
2.766	-183.28857
2.7665	-186.41052
2.767	-172.21069
2.7675	-138.77563
2.768	-97.78748
2.7685	-61.53259
2.769	-35.75134
2.7695	-11.98425
2.77	10.77576
2.7705	29.50745
2.771	46.22498
2.7715	48.23914
2.772	17.42249
2.7725	-28.50037
2.773	-100.50659
2.7735	-143.50891
2.774	-146.63086
2.7745	-93.35632
2.775	-28.29895
2.7755	25.07629
2.776	38.77258
2.7765	4.12903
2.777	-18.63098
2.7775	-28.50037
2.778	-14.60266
2.7785	-7.5531
2.779	-3.62549
2.7795	-31.52161
2.78	-93.0542
2.7805	-118.43262
2.781	-96.47827
2.7815	-52.36816
2.782	19.23523
2.7825	69.28711
2.783	108.05969
2.7835	130.21545
2.784	144.6167
2.7845	146.63086
2.785	176.64185
2.7855	200.0061
2.786	197.3877
2.7865	188.02185
2.787	148.64502
2.7875	113.29651
2.788	77.64587
2.7885	33.83789
2.789	-0.50354
2.7895	-34.44214
2.79	-62.8418
2.7905	-68.48145
2.791	-52.67029
2.7915	-39.67896
2.792	-44.41223
2.7925	-41.29028
2.793	-53.87878
2.7935	-103.62854
2.794	-146.53015
2.7945	-137.76855
2.795	-96.7804
2.7955	-45.62073
2.796	-13.797
2.7965	1.3092
2.797	26.68762
2.7975	65.25879
2.798	100.30518
2.7985	127.29492
2.799	133.94165
2.7995	130.92041
2.8	113.59863
2.8005	78.95508
2.801	41.08887
2.8015	17.6239
2.802	-2.01416
2.8025	-14.09912
2.803	-20.04089
2.8035	-35.54993
2.804	-71.60339
2.8045	-74.2218
2.805	-72.71118
2.8055	-51.96533
2.806	-21.24939
2.8065	18.32886
2.807	41.08887
2.8075	64.35242
2.808	73.41614
2.8085	70.59631
2.809	71.50269
2.8095	87.11243
2.81	94.76624
2.8105	103.62854
2.811	114.10217
2.8115	131.42395
2.812	146.22803
2.8125	145.01953
2.813	134.14307
2.8135	130.21545
2.814	114.70642
2.8145	95.67261
2.815	82.17773
2.8155	77.948
2.816	65.05737
2.8165	46.92993
2.817	32.12585
2.8175	23.16284
2.818	1.71204
2.8185	-14.80408
2.819	-24.67346
2.8195	-37.26196
2.82	-56.29578
2.8205	-82.78198
2.821	-110.47668
2.8215	-121.85669
2.822	-119.4397
2.8225	-116.72058
2.823	-108.86536
2.8235	-94.2627
2.824	-69.99207
2.8245	-47.43347
2.825	-25.78125
2.8255	-20.04089
2.826	-14.40125
2.8265	-50.65613
2.827	-85.70251
2.8275	-107.55615
2.828	-119.74182
2.8285	-106.04553
2.829	-79.05579
2.8295	-58.81348
2.83	-26.88904
2.8305	6.14319
2.831	36.15417
2.8315	57.60498
2.832	73.81897
2.8325	90.5365
2.833	94.06128
2.8335	98.39172
2.834	91.745
2.8345	62.74109
2.835	26.3855
2.8355	10.87646
2.836	8.45947
2.8365	13.29346
2.837	7.95593
2.8375	-6.54602
2.838	-15.91187
2.8385	-28.50037
2.839	-42.29736
2.8395	-51.36108
2.84	-59.1156
2.8405	-82.58057
2.841	-114.80713
2.8415	-145.8252
2.842	-183.69141
2.8425	-208.16345
2.843	-212.4939
2.8435	-189.83459
2.844	-172.00928
2.8445	-134.64661
2.845	-92.95349
2.8455	-36.05347
2.846	10.67505
2.8465	24.27063
2.847	12.38708
2.8475	-16.71753
2.848	-14.60266
2.8485	-14.60266
2.849	-30.61523
2.8495	-48.94409
2.85	-53.97949
2.8505	-40.98816
2.851	-14.40125
2.8515	34.34143
2.852	74.72534
2.8525	114.30359
2.853	142.70325
2.8535	164.05334
2.854	181.17371
2.8545	196.48132
2.855	201.41602
2.8555	189.02893
2.856	174.62769
2.8565	162.74414
2.857	134.34448
2.8575	74.72534
2.858	28.70178
2.8585	-16.81824
2.859	-72.30835
2.8595	-153.27759
2.86	-225.0824
2.8605	-301.41907
2.861	-366.97998
2.8615	-402.63062
2.862	-368.18848
2.8625	-297.18933
2.863	-193.25867
2.8635	-63.64746
2.864	54.88586
2.8645	162.74414
2.865	245.224
2.8655	307.36084
2.866	332.53784
2.8665	335.05554
2.867	321.35925
2.8675	272.11304
2.868	223.16895
2.8685	183.18787
2.869	146.02661
2.8695	136.56006
2.87	127.49634
2.8705	113.1958
2.871	113.69934
2.8715	90.23438
2.872	37.06055
2.8725	-2.81982
2.873	-14.90479
2.8735	-44.11011
2.874	-64.65454
2.8745	-57.60498
2.875	-36.95984
2.8755	0.70496
2.876	29.00391
2.8765	50.354
2.877	62.03613
2.8775	59.41772
2.878	45.62073
2.8785	23.66638
2.879	1.51062
2.8795	-27.09045
2.88	-37.36267
2.8805	-27.99683
2.881	-12.99133
2.8815	5.84106
2.882	21.65222
2.8825	35.85205
2.883	61.43188
2.8835	86.30676
2.884	106.9519
2.8845	130.71899
2.885	147.83936
2.8855	144.71741
2.886	99.70093
2.8865	54.28162
2.887	13.797
2.8875	-22.25647
2.888	-37.66479
2.8885	-48.54126
2.889	-50.05188
2.8895	-71.90552
2.89	-104.3335
2.8905	-123.36731
2.891	-128.20129
2.8915	-119.94324
2.892	-96.7804
2.8925	-91.54358
2.893	-89.73083
2.8935	-79.15649
2.894	-81.87561
2.8945	-67.37366
2.895	-32.52869
2.8955	9.56726
2.896	44.31152
2.8965	68.38074
2.897	82.88269
2.8975	85.90393
2.898	86.40747
2.8985	65.3595
2.899	60.12268
2.8995	57.10144
2.9	54.68445
2.9005	32.42798
2.901	19.43665
2.9015	25.47913
2.902	25.37842
2.9025	14.09912
2.903	-30.31311
2.9035	-64.151
2.904	-80.76782
2.9045	-88.0188
2.905	-89.52942
2.9055	-86.40747
2.906	-76.63879
2.9065	-83.38623
2.907	-83.38623
2.9075	-88.32092
2.908	-97.58606
2.9085	-95.16907
2.909	-83.88977
2.9095	-68.98499
2.91	-59.41772
2.9105	-33.9386
2.911	-27.29187
2.9115	-29.50745
2.912	-44.21082
2.9125	-66.6687
2.913	-69.79065
2.9135	-83.18481
2.914	-73.01331
2.9145	-52.771
2.915	-32.12585
2.9155	3.7262
2.916	43.60657
2.9165	61.43188
2.917	67.97791
2.9175	48.44055
2.918	8.96301
2.9185	-66.87012
2.919	-106.54907
2.9195	-122.15881
2.92	-90.13367
2.9205	-42.90161
2.921	5.84106
2.9215	36.05347
2.922	62.13684
2.9225	102.21863
2.923	156.09741
2.9235	189.23035
2.924	210.47974
2.9245	186.1084
2.925	138.77563
2.9255	79.2572
2.926	39.17542
2.9265	36.85913
2.927	57.10144
2.9275	41.79382
2.928	29.80957
2.9285	-27.59399
2.929	-77.14233
2.9295	-102.11792
2.93	-83.68835
2.9305	-55.59082
2.931	-21.95435
2.9315	3.8269
2.932	12.89062
2.9325	30.81665
2.933	52.56958
2.9335	80.86853
2.934	110.87952
2.9345	134.04236
2.935	137.66785
2.9355	123.87085
2.936	102.01721
2.9365	80.4657
2.937	79.2572
2.9375	72.71118
2.938	63.94958
2.9385	73.81897
2.939	83.88977
2.9395	71.40198
2.94	27.09045
2.9405	-23.76709
2.941	-69.28711
2.9415	-95.37048
2.942	-91.8457
2.9425	-74.62463
2.943	-60.62622
2.9435	-47.93701
2.944	-69.38782
2.9445	-104.3335
2.945	-100.80872
2.9455	-72.30835
2.946	-34.44214
2.9465	-2.01416
2.947	30.51453
2.9475	38.16833
2.948	24.47205
2.9485	2.81982
2.949	-26.08337
2.9495	-61.83472
2.95	-88.42163
2.9505	-120.14465
2.951	-136.86218
2.9515	-140.08484
2.952	-119.94324
2.9525	-81.97632
2.953	-34.03931
2.9535	14.19983
2.954	53.37524
2.9545	91.34216
2.955	113.29651
2.9555	110.07385
2.956	95.5719
2.9565	77.948
2.957	64.85596
2.9575	63.24463
2.958	67.77649
2.9585	58.91418
2.959	26.58691
2.9595	-22.35718
2.96	-60.22339
2.9605	-51.66321
2.961	-31.11877
2.9615	-32.12585
2.962	-64.25171
2.9625	-68.98499
2.963	-45.92285
2.9635	-18.73169
2.964	16.81824
2.9645	15.91187
2.965	19.73877
2.9655	6.54602
2.966	-0.40283
2.9665	-24.77417
2.967	-44.41223
2.9675	-37.56409
2.968	-0.20142
2.9685	47.53418
2.969	71.90552
2.9695	81.7749
2.97	95.97473
2.9705	106.54907
2.971	134.34448
2.9715	156.70166
2.972	167.47742
2.9725	160.72998
2.973	158.21228
2.9735	164.35547
2.974	158.91724
2.9745	165.26184
2.975	161.43494
2.9755	127.79846
2.976	88.92517
2.9765	62.43896
2.977	50.65613
2.9775	44.61365
2.978	41.59241
2.9785	31.82373
2.979	29.00391
2.9795	42.49878
2.98	28.60107
2.9805	-20.24231
2.981	-71.20056
2.9815	-109.26819
2.982	-135.8551
2.9825	-146.42944
2.983	-132.73315
2.9835	-106.75049
2.984	-80.56641
2.9845	-69.79065
2.985	-80.4657
2.9855	-88.0188
2.986	-79.66003
2.9865	-71.30127
2.987	-74.62463
2.9875	-79.86145
2.988	-76.13525
2.9885	-85.80322
2.989	-84.79614
2.9895	-64.95667
2.99	-67.27295
2.9905	-65.46021
2.991	-49.95117
2.9915	-25.98267
2.992	-0.20142
2.9925	24.77417
2.993	44.71436
2.9935	58.81348
2.994	65.86304
2.9945	73.01331
2.995	78.45154
2.9955	50.15259
2.996	20.24231
2.9965	2.81982
2.997	7.95593
2.9975	9.36584
2.998	-14.80408
2.9985	-103.42712
2.999	-169.29016
2.9995	-201.01318
3	-193.05725
3.0005	-165.26184
3.001	-138.77563
3.0015	-99.49951
3.002	-54.78516
3.0025	-18.12744
3.003	19.63806
3.0035	58.10852
3.004	83.78906
3.0045	59.01489
3.005	-5.74036
3.0055	-66.36658
3.006	-101.11084
3.0065	-121.75598
3.007	-138.87634
3.0075	-210.98328
3.008	-252.87781
3.0085	-240.49072
3.009	-206.04858
3.0095	-167.17529
3.01	-88.42163
3.0105	-4.22974
3.011	75.53101
3.0115	147.73865
3.012	193.35938
3.0125	222.66541
3.013	242.10205
3.0135	272.51587
3.014	291.34827
3.0145	288.32703
3.015	272.41516
3.0155	266.97693
3.016	274.83215
3.0165	284.80225
3.017	283.09021
3.0175	247.43958
3.018	186.20911
3.0185	113.09509
3.019	25.98267
3.0195	-41.29028
3.02	-121.35315
3.0205	-181.17371
3.021	-204.63867
3.0215	-195.07141
3.022	-151.86768
3.0225	-106.44836
3.023	-55.69153
3.0235	-13.89771
3.024	18.8324
3.0245	69.68994
3.025	115.10925
3.0255	156.09741
3.026	174.22485
3.0265	162.34131
3.027	155.9967
3.0275	164.55688
3.028	142.30042
3.0285	123.36731
3.029	112.08801
3.0295	96.98181
3.03	79.76074
3.0305	65.15808
3.031	63.44604
3.0315	56.49719
3.032	42.49878
3.0325	-11.78284
3.033	-78.75366
3.0335	-106.64978
3.034	-125.58289
3.0345	-134.04236
3.035	-124.4751
3.0355	-115.51208
3.036	-112.99438
3.0365	-110.57739
3.037	-102.31934
3.0375	-77.84729
3.038	-41.29028
3.0385	6.94885
3.039	49.34692
3.0395	77.948
3.04	87.41455
3.0405	75.83313
3.041	72.20764
3.0415	59.41772
3.042	45.11719
3.0425	49.64905
3.043	46.72852
3.0435	40.1825
3.044	21.85364
3.0445	-6.2439
3.045	-86.00464
3.0455	-156.60095
3.046	-221.96045
3.0465	-259.22241
3.047	-254.58984
3.0475	-222.96753
3.048	-178.85742
3.0485	-123.56873
3.049	-50.05188
3.0495	19.53735
3.05	24.77417
3.0505	-17.52319
3.051	-37.26196
3.0515	-11.58142
3.052	15.20691
3.0525	47.93701
3.053	75.32959
3.0535	117.52625
3.054	165.16113
3.0545	185.50415
3.055	160.02502
3.0555	138.87634
3.056	122.66235
3.0565	100.00305
3.057	82.68127
3.0575	51.46179
3.058	3.52478
3.0585	-34.84497
3.059	-63.74817
3.0595	-60.72693
3.06	-50.65613
3.0605	-44.91577
3.061	-34.94568
3.0615	-10.47363
3.062	13.19275
3.0625	30.31311
3.063	41.79382
3.0635	40.98816
3.064	46.22498
3.0645	43.30444
3.065	23.36426
3.0655	20.1416
3.066	21.04797
3.0665	9.56726
3.067	-18.42957
3.0675	-29.91028
3.068	-17.42249
3.0685	-6.44531
3.069	20.24231
3.0695	25.68054
3.07	18.42957
3.0705	27.89612
3.071	34.74426
3.0715	29.80957
3.072	1.3092
3.0725	-38.26904
3.073	-54.58374
3.0735	-60.02197
3.074	-42.09595
3.0745	-19.83948
3.075	4.83398
3.0755	30.01099
3.076	59.41772
3.0765	89.12659
3.077	122.86377
3.0775	142.70325
3.078	145.22095
3.0785	134.04236
3.079	113.09509
3.0795	91.8457
3.08	79.76074
3.0805	73.81897
3.081	61.23047
3.0815	49.54834
3.082	26.18408
3.0825	18.73169
3.083	5.94177
3.0835	-7.04956
3.084	-29.10461
3.0845	-42.7002
3.085	-67.37366
3.0855	-109.4696
3.086	-173.62061
3.0865	-222.76611
3.087	-286.81641
3.0875	-346.53625
3.088	-362.64954
3.0885	-347.54333
3.089	-300.41199
3.0895	-216.22009
3.09	-121.75598
3.0905	-21.55151
3.091	53.97949
3.0915	117.32483
3.092	167.07458
3.0925	200.81177
3.093	202.72522
3.0935	200.91248
3.094	207.65991
3.0945	214.00452
3.095	232.33337
3.0955	213.70239
3.096	182.98645
3.0965	155.19104
3.097	146.12732
3.0975	130.8197
3.098	104.3335
3.0985	75.02747
3.099	36.95984
3.0995	28.39966
3.1	14.90479
3.1005	-1.3092
3.101	2.81982
3.1015	2.31628
3.102	-23.46497
3.1025	-75.73242
3.103	-102.01721
3.1035	-127.59705
3.104	-136.45935
3.1045	-139.07776
3.105	-121.15173
3.1055	-92.55066
3.106	-59.51843
3.1065	-22.76001
3.107	-4.73328
3.1075	23.76709
3.108	44.21082
3.1085	55.59082
3.109	45.82214
3.1095	48.13843
3.11	54.98657
3.1105	39.17542
3.111	0.10071
3.1115	-16.3147
3.112	-31.32019
3.1125	-118.33191
3.113	-271.71021
3.1135	-379.26636
3.114	-414.31274
3.1145	-357.61414
3.115	-284.39941
3.1155	-191.24451
3.116	-95.97473
3.1165	-11.68213
3.117	43.00232
3.1175	84.99756
3.118	112.08801
3.1185	146.22803
3.119	163.85193
3.1195	153.07617
3.12	119.94324
3.1205	97.58606
3.121	98.19031
3.1215	110.6781
3.122	101.61438
3.1225	77.24304
3.123	53.27454
3.1235	46.92993
3.124	15.91187
3.1245	-14.70337
3.125	-9.06372
3.1255	-7.65381
3.126	-19.63806
3.1265	-12.78992
3.127	21.95435
3.1275	48.03772
3.128	75.4303
3.1285	98.19031
3.129	114.70642
3.1295	127.69775
3.13	148.14148
3.1305	148.94714
3.131	137.76855
3.1315	132.43103
3.132	133.23669
3.1325	144.41528
3.133	151.56555
3.1335	128.60413
3.134	107.75757
3.1345	79.2572
3.135	18.02673
3.1355	-34.03931
3.136	-83.88977
3.1365	-100.70801
3.137	-84.49402
3.1375	-54.0802
3.138	-20.84656
3.1385	-3.92761
3.139	3.12195
3.1395	18.42957
3.14	30.71594
3.1405	36.4563
3.141	39.98108
3.1415	32.42798
3.142	19.83948
3.1425	10.97717
3.143	-4.43115
3.1435	-11.38
3.144	-13.99841
3.1445	8.45947
3.145	30.01099
3.1455	45.01648
3.146	45.2179
3.1465	48.23914
3.147	51.36108
3.1475	51.86462
3.148	51.5625
3.1485	39.98108
3.149	22.6593
3.1495	10.87646
3.15	1.40991
3.1505	-7.5531
3.151	-37.96692
3.1515	-96.37756
3.152	-151.56555
3.1525	-207.96204
3.153	-231.12488
3.1535	-201.61743
3.154	-147.73865
3.1545	-87.81738
3.155	-57.00073
3.1555	-31.11877
3.156	2.11487
3.1565	-4.93469
3.157	-28.50037
3.1575	-43.50586
3.158	-44.91577
3.1585	-47.13135
3.159	-48.84338
3.1595	-43.20374
3.16	-25.07629
3.1605	5.53894
3.161	46.22498
3.1615	62.33826
3.162	64.25171
3.1625	50.75684
3.163	66.36658
3.1635	81.97632
3.164	75.22888
3.1645	76.94092
3.165	84.2926
3.1655	86.30676
3.166	86.60889
3.1665	76.63879
3.167	46.22498
3.1675	25.27771
3.168	0.20142
3.1685	-32.12585
3.169	-44.51294
3.1695	-48.44055
3.17	-46.12427
3.1705	-44.51294
3.171	-42.59949
3.1715	-43.60657
3.172	-75.83313
3.1725	-109.97314
3.173	-110.37598
3.1735	-94.2627
3.174	-78.14941
3.1745	-69.48853
3.175	-66.76941
3.1755	-41.99524
3.176	-5.0354
3.1765	33.9386
3.177	60.82764
3.1775	78.25012
3.178	59.41772
3.1785	40.88745
3.179	31.82373
3.1795	2.71912
3.18	-10.77576
3.1805	-12.48779
3.181	0.90637
3.1815	5.84106
3.182	14.09912
3.1825	25.27771
3.183	32.52869
3.1835	55.99365
3.184	86.00464
3.1845	107.95898
3.185	98.69385
3.1855	62.23755
3.186	30.41382
3.1865	19.13452
3.187	28.80249
3.1875	1.40991
3.188	-30.31311
3.1885	-83.99048
3.189	-106.64978
3.1895	-77.54517
3.19	-27.99683
3.1905	35.14709
3.191	70.79773
3.1915	91.14075
3.192	132.83386
3.1925	193.56079
3.193	205.74646
3.1935	194.9707
3.194	166.67175
3.1945	137.46643
3.195	113.80005
3.1955	85.70251
3.196	59.1156
3.1965	37.56409
3.197	13.49487
3.1975	2.31628
3.198	-59.41772
3.1985	-122.86377
3.199	-146.32874
3.1995	-143.60962
3.2	-118.02979
3.2005	-84.99756
3.201	-57.40356
3.2015	-45.2179
3.202	-39.57825
3.2025	-21.95435
3.203	-17.42249
3.2035	-27.39258
3.204	-50.95825
3.2045	-72.10693
3.205	-107.35474
3.2055	-127.99988
3.206	-134.74731
3.2065	-116.21704
3.207	-68.48145
3.2075	4.33044
3.208	79.35791
3.2085	116.11633
3.209	140.48767
3.2095	166.36963
3.21	169.59229
3.2105	164.45618
3.211	150.55847
3.2115	126.89209
3.212	94.76624
3.2125	62.13684
3.213	38.36975
3.2135	29.20532
3.214	31.82373
3.2145	51.86462
3.215	73.71826
3.2155	76.13525
3.216	72.10693
3.2165	73.41614
3.217	54.28162
3.2175	30.01099
3.218	-18.93311
3.2185	-77.24304
3.219	-120.04395
3.2195	-162.34131
3.22	-205.74646
3.2205	-214.91089
3.221	-227.6001
3.2215	-229.91638
3.222	-214.00452
3.2225	-174.52698
3.223	-115.7135
3.2235	-65.96375
3.224	-25.88196
3.2245	4.73328
3.225	15.00549
3.2255	22.55859
3.226	7.15027
3.2265	1.61133
3.227	20.1416
3.2275	42.19666
3.228	46.12427
3.2285	44.51294
3.229	43.60657
3.2295	42.09595
3.23	30.01099
3.2305	30.11169
3.231	4.73328
3.2315	-13.19275
3.232	-0.10071
3.2325	18.93311
3.233	11.88354
3.2335	-14.40125
3.234	-15.20691
3.2345	-3.8269
3.235	18.73169
3.2355	42.49878
3.236	66.87012
3.2365	76.03455
3.237	97.38464
3.2375	118.13049
3.238	122.96448
3.2385	113.49792
3.239	73.91968
3.2395	-2.61841
3.24	-90.5365
3.2405	-161.43494
3.241	-222.66541
3.2415	-234.44824
3.242	-189.9353
3.2425	-158.91724
3.243	-141.49475
3.2435	-104.4342
3.244	-56.69861
3.2445	-5.94177
3.245	41.69312
3.2455	86.50818
3.246	133.13599
3.2465	170.49866
3.247	183.99353
3.2475	175.93689
3.248	170.09583
3.2485	183.5907
3.249	216.92505
3.2495	239.68506
3.25	245.224
3.2505	225.78735
3.251	192.95654
3.2515	143.4082
3.252	100.50659
3.2525	67.27295
3.253	36.75842
3.2535	2.71912
3.254	-25.177
3.2545	-46.72852
3.255	-63.24463
3.2555	-71.60339
3.256	-66.6687
3.2565	-51.76392
3.257	-36.75842
3.2575	-22.86072
3.258	-4.02832
3.2585	14.19983
3.259	22.86072
3.2595	22.25647
3.26	21.85364
3.2605	8.96301
3.261	7.75452
3.2615	11.58142
3.262	28.50037
3.2625	40.58533
3.263	33.83789
3.2635	2.31628
3.264	-30.41382
3.2645	-25.78125
3.265	-16.01257
3.2655	-19.33594
3.266	-15.30762
3.2665	-11.48071
3.267	-21.55151
3.2675	-50.15259
3.268	-57.40356
3.2685	-47.93701
3.269	-40.58533
3.2695	-32.22656
3.27	-35.04639
3.2705	-47.43347
3.271	-74.12109
3.2715	-91.14075
3.272	-78.14941
3.2725	-61.73401
3.273	-33.33435
3.2735	-9.86938
3.274	-0.60425
3.2745	13.49487
3.275	17.32178
3.2755	4.43115
3.276	3.92761
3.2765	9.56726
3.277	13.69629
3.2775	10.97717
3.278	-22.86072
3.2785	-40.58533
3.279	-53.67737
3.2795	-72.71118
3.28	-102.92358
3.2805	-118.73474
3.281	-155.29175
3.2815	-182.18079
3.282	-189.02893
3.2825	-168.4845
3.283	-117.72766
3.2835	-55.69153
3.284	5.84106
3.2845	49.74976
3.285	107.35474
3.2855	156.50024
3.286	197.99194
3.2865	218.23425
3.287	203.7323
3.2875	200.20752
3.288	190.03601
3.2885	179.8645
3.289	154.98962
3.2895	109.87244
3.29	50.65613
3.2905	33.83789
3.291	35.75134
3.2915	46.62781
3.292	55.18799
3.2925	57.00073
3.293	67.27295
3.2935	63.74817
3.294	58.91418
3.2945	39.37683
3.295	-22.45789
3.2955	-74.2218
3.296	-110.47668
3.2965	-130.61829
3.297	-157.2052
3.2975	-199.20044
3.298	-247.33887
3.2985	-273.62366
3.299	-272.61658
3.2995	-239.98718
3.3	-170.90149
3.3005	-99.60022
3.301	-15.20691
3.3015	63.94958
3.302	136.76147
3.3025	181.17371
3.303	207.76062
3.3035	233.23975
3.304	245.92896
3.3045	224.88098
3.305	168.08167
3.3055	112.79297
3.306	63.04321
3.3065	20.1416
3.307	-9.16443
3.3075	-37.36267
3.308	-73.01331
3.3085	-115.81421
3.309	-145.62378
3.3095	-129.20837
3.31	-96.17615
3.3105	-67.8772
3.311	-37.86621
3.3115	-7.15027
3.312	29.20532
3.3125	68.58215
3.313	100.80872
3.3135	136.25793
3.314	152.67334
3.3145	162.2406
3.315	152.47192
3.3155	142.19971
3.316	114.505
3.3165	59.41772
3.317	11.38
3.3175	-33.23364
3.318	-57.30286
3.3185	-66.97083
3.319	-49.54834
3.3195	-14.70337
3.32	10.27222
3.3205	28.39966
3.321	37.36267
3.3215	24.87488
3.322	-1.10779
3.3225	-2.11487
3.323	5.94177
3.3235	30.01099
3.324	35.95276
3.3245	34.44214
3.325	35.44922
3.3255	29.70886
3.326	32.7301
3.3265	36.15417
3.327	11.07788
3.3275	-30.41382
3.328	-57.20215
3.3285	-59.41772
3.329	-30.91736
3.3295	-3.52478
3.33	16.41541
3.3305	33.53577
3.331	49.85046
3.3315	65.76233
3.332	62.43896
3.3325	65.05737
3.333	58.91418
3.3335	42.90161
3.334	8.8623
3.3345	-34.54285
3.335	-87.51526
3.3355	-139.88342
3.336	-179.36096
3.3365	-187.11548
3.337	-176.44043
3.3375	-176.13831
3.338	-160.32715
3.3385	-130.51758
3.339	-92.75208
3.3395	-61.93542
3.34	-11.88354
3.3405	40.58533
3.341	79.55933
3.3415	131.42395
3.342	158.21228
3.3425	151.86768
3.343	132.43103
3.3435	110.98022
3.344	104.83704
3.3445	120.44678
3.345	138.57422
3.3455	148.14148
3.346	122.05811
3.3465	89.328
3.347	66.97083
3.3475	61.53259
3.348	60.02197
3.3485	64.55383
3.349	69.58923
3.3495	66.97083
3.35	59.31702
3.3505	49.54834
3.351	33.43506
3.3515	17.52319
3.352	-6.04248
3.3525	-58.41064
3.353	-135.65369
3.3535	-179.36096
3.354	-195.57495
3.3545	-185.70557
3.355	-162.03918
3.3555	-141.39404
3.356	-137.66785
3.3565	-164.45618
3.357	-157.2052
3.3575	-128.80554
3.358	-92.44995
3.3585	-56.39648
3.359	-47.93701
3.3595	-82.88269
3.36	-153.479
3.3605	-190.33813
3.361	-179.66309
3.3615	-130.01404
3.362	-69.79065
3.3625	-23.8678
3.363	26.48621
3.3635	73.21472
3.364	110.6781
3.3645	140.8905
3.365	172.00928
3.3655	202.32239
3.366	206.95496
3.3665	200.10681
3.367	183.48999
3.3675	162.94556
3.368	128.20129
3.3685	108.86536
3.369	72.61047
3.3695	40.08179
3.37	19.83948
3.3705	-20.44373
3.371	-57.40356
3.3715	-84.69543
3.372	-95.26978
3.3725	-106.75049
3.373	-86.40747
3.3735	-53.67737
3.374	-10.57434
3.3745	40.48462
3.375	79.86145
3.3755	97.18323
3.376	100.6073
3.3765	109.06677
3.377	122.36023
3.3775	120.24536
3.378	108.1604
3.3785	95.37048
3.379	87.91809
3.3795	75.73242
3.38	73.81897
3.3805	68.28003
3.381	66.6687
3.3815	71.7041
3.382	71.40198
3.3825	68.38074
3.383	64.85596
3.3835	59.21631
3.384	51.86462
3.3845	48.33984
3.385	42.49878
3.3855	31.72302
3.386	15.30762
3.3865	-17.6239
3.387	-50.55542
3.3875	-75.02747
3.388	-98.79456
3.3885	-108.46252
3.389	-115.7135
3.3895	-141.99829
3.39	-191.94946
3.3905	-224.57886
3.391	-241.19568
3.3915	-254.99268
3.392	-268.89038
3.3925	-268.28613
3.393	-258.21533
3.3935	-252.07214
3.394	-219.34204
3.3945	-154.98962
3.395	-80.26428
3.3955	-14.09912
3.396	37.06055
3.3965	87.01172
3.397	120.14465
3.3975	147.94006
3.398	182.3822
3.3985	225.18311
3.399	262.44507
3.3995	286.21216
3.4	282.9895
3.4005	270.09888
3.401	248.44666
3.4015	222.5647
3.402	205.24292
3.4025	194.46716
3.403	160.12573
3.4035	121.85669
3.404	61.12976
3.4045	18.12744
3.405	-30.51453
3.4055	-57.10144
3.406	-110.57739
3.4065	-135.55298
3.407	-125.88501
3.4075	-110.47668
3.408	-91.44287
3.4085	-65.76233
3.409	-77.24304
3.4095	-105.54199
3.41	-122.36023
3.4105	-114.80713
3.411	-92.55066
3.4115	-72.10693
3.412	-47.13135
3.4125	-13.19275
3.413	12.38708
3.4135	14.70337
3.414	5.63965
3.4145	5.63965
3.415	17.42249
3.4155	26.78833
3.416	30.01099
3.4165	23.06213
3.417	16.11328
3.4175	21.04797
3.418	26.68762
3.4185	34.24072
3.419	40.58533
3.4195	44.91577
3.42	51.66321
3.4205	41.39099
3.421	35.2478
3.4215	26.3855
3.422	27.39258
3.4225	34.74426
3.423	34.84497
3.4235	28.19824
3.424	26.3855
3.4245	34.54285
3.425	49.0448
3.4255	76.7395
3.426	90.13367
3.4265	70.69702
3.427	23.56567
3.4275	-8.56018
3.428	-17.12036
3.4285	-11.2793
3.429	28.19824
3.4295	62.8418
3.43	84.09119
3.4305	81.47278
3.431	64.75525
3.4315	46.22498
3.432	25.57983
3.4325	-0.80566
3.433	-13.89771
3.4335	-15.00549
3.434	-18.02673
3.4345	-28.29895
3.435	-22.6593
3.4355	-1.51062
3.436	12.68921
3.4365	11.48071
3.437	-18.73169
3.4375	-34.44214
3.438	-40.68604
3.4385	-20.54443
3.439	-0.40283
3.4395	1.61133
3.44	-17.72461
3.4405	-29.40674
3.441	-28.39966
3.4415	-34.34143
3.442	-72.71118
3.4425	-105.44128
3.443	-110.27527
3.4435	-104.83704
3.444	-113.1958
3.4445	-128.10059
3.445	-145.22095
3.4455	-136.56006
3.446	-101.51367
3.4465	-59.51843
3.447	-24.47205
3.4475	5.63965
3.448	39.77966
3.4485	74.12109
3.449	85.90393
3.4495	92.95349
3.45	98.69385
3.4505	90.5365
3.451	89.22729
3.4515	86.20605
3.452	62.53967
3.4525	40.88745
3.453	30.31311
3.4535	19.33594
3.454	7.35168
3.4545	14.90479
3.455	26.68762
3.4555	22.15576
3.456	12.99133
3.4565	26.58691
3.457	48.64197
3.4575	60.52551
3.458	64.65454
3.4585	60.72693
3.459	41.4917
3.4595	-9.06372
3.46	-44.51294
3.4605	-57.40356
3.461	-71.40198
3.4615	-103.42712
3.462	-123.66943
3.4625	-132.73315
3.463	-112.99438
3.4635	-108.46252
3.464	-97.38464
3.4645	-75.12817
3.465	-72.30835
3.4655	-103.22571
3.466	-137.96997
3.4665	-149.34998
3.467	-143.91174
3.4675	-111.18164
3.468	-34.14001
3.4685	32.62939
3.469	104.3335
3.4695	153.3783
3.47	196.88416
3.4705	223.37036
3.471	215.0116
3.4715	199.9054
3.472	168.28308
3.4725	125.18005
3.473	71.90552
3.4735	12.18567
3.474	-39.07471
3.4745	-81.7749
3.475	-89.12659
3.4755	-55.2887
3.476	-8.05664
3.4765	38.47046
3.477	80.16357
3.4775	93.65845
3.478	90.93933
3.4785	109.77173
3.479	141.09192
3.4795	161.33423
3.48	171.80786
3.4805	146.73157
3.481	102.31934
3.4815	65.3595
3.482	53.47595
3.4825	23.8678
3.483	9.26514
3.4835	4.02832
3.484	2.81982
3.4845	4.12903
3.485	11.48071
3.4855	32.93152
3.486	44.91577
3.4865	55.08728
3.487	63.74817
3.4875	54.18091
3.488	41.18958
3.4885	13.29346
3.489	-1.61133
3.4895	-13.59558
3.49	-23.76709
3.4905	-20.94727
3.491	-16.11328
3.4915	-16.21399
3.492	-24.27063
3.4925	-32.22656
3.493	-31.11877
3.4935	-40.1825
3.494	-56.69861
3.4945	-66.46729
3.495	-73.01331
3.4955	-93.45703
3.496	-151.06201
3.4965	-180.77087
3.497	-162.44202
3.4975	-124.67651
3.498	-90.13367
3.4985	-57.40356
3.499	-36.35559
3.4995	-8.8623
3.5	2.01416
3.5005	2.81982
3.501	-2.41699
3.5015	-35.95276
3.502	-49.34692
3.5025	-45.92285
3.503	-36.4563
3.5035	-34.94568
3.504	-39.98108
3.5045	-76.03455
3.505	-91.44287
3.5055	-79.05579
3.506	-50.05188
3.5065	-32.02515
3.507	-36.55701
3.5075	-21.24939
3.508	15.60974
3.5085	50.15259
3.509	76.7395
3.5095	103.72925
3.51	117.72766
3.5105	128.10059
3.511	140.68909
3.5115	148.64502
3.512	131.72607
3.5125	108.86536
3.513	100.90942
3.5135	111.28235
3.514	107.25403
3.5145	111.28235
3.515	93.35632
3.5155	73.11401
3.516	66.06445
3.5165	59.31702
3.517	47.63489
3.5175	39.98108
3.518	32.7301
3.5185	18.02673
3.519	18.02673
3.5195	16.51611
3.52	44.51294
3.5205	62.33826
3.521	77.24304
3.5215	84.49402
3.522	88.62305
3.5225	67.57507
3.523	25.57983
3.5235	-12.5885
3.524	-27.79541
3.5245	-40.1825
3.525	-56.69861
3.5255	-82.68127
3.526	-104.73633
3.5265	-112.69226
3.527	-103.52783
3.5275	-79.15649
3.528	-58.51135
3.5285	-48.13843
3.529	-48.54126
3.5295	-67.77649
3.53	-72.40906
3.5305	-72.9126
3.531	-65.46021
3.5315	-88.52234
3.532	-96.8811
3.5325	-102.21863
3.533	-100.00305
3.5335	-82.17773
3.534	-50.85754
3.5345	-9.16443
3.535	20.34302
3.5355	45.72144
3.536	61.83472
3.5365	67.77649
3.537	82.07703
3.5375	106.64978
3.538	101.01013
3.5385	88.42163
3.539	69.28711
3.5395	61.12976
3.54	61.12976
3.5405	71.20056
3.541	75.4303
3.5415	65.96375
3.542	42.59949
3.5425	32.42798
3.543	33.23364
3.5435	30.01099
3.544	35.04639
3.5445	31.32019
3.545	34.44214
3.5455	41.69312
3.546	55.89294
3.5465	77.04163
3.547	66.36658
3.5475	29.10461
3.548	-14.19983
3.5485	-35.85205
3.549	-50.15259
3.5495	-63.04321
3.55	-98.89526
3.5505	-140.48767
3.551	-162.84485
3.5515	-169.89441
3.552	-156.80237
3.5525	-155.09033
3.553	-159.62219
3.5535	-140.78979
3.554	-94.96765
3.5545	-37.36267
3.555	25.07629
3.5555	56.69861
3.556	64.05029
3.5565	65.66162
3.557	59.41772
3.5575	35.95276
3.558	3.32336
3.5585	-11.88354
3.559	-18.22815
3.5595	-25.57983
3.56	-37.86621
3.5605	-42.7002
3.561	-28.60107
3.5615	8.05664
3.562	65.66162
3.5625	131.22253
3.563	158.5144
3.5635	180.77087
3.564	187.82043
3.5645	189.73389
3.565	190.84167
3.5655	183.99353
3.566	176.13831
3.5665	144.01245
3.567	98.0896
3.5675	62.64038
3.568	14.09912
3.5685	-25.57983
3.569	-50.95825
3.5695	-49.54834
3.57	-29.40674
3.5705	-20.04089
3.571	-18.22815
3.5715	-20.74585
3.572	-13.69629
3.5725	-4.22974
3.573	2.31628
3.5735	16.01257
3.574	27.29187
3.5745	34.64355
3.575	33.63647
3.5755	39.77966
3.576	49.34692
3.5765	66.26587
3.577	57.10144
3.5775	35.14709
3.578	-7.75452
3.5785	-55.99365
3.579	-80.86853
3.5795	-100.70801
3.58	-108.86536
3.5805	-121.75598
3.581	-136.86218
3.5815	-118.2312
3.582	-86.50818
3.5825	-62.53967
3.583	-64.35242
3.5835	-102.92358
3.584	-112.79297
3.5845	-96.98181
3.585	-65.86304
3.5855	-33.63647
3.586	0.40283
3.5865	30.11169
3.587	60.92834
3.5875	85.90393
3.588	109.77173
3.5885	110.77881
3.589	99.80164
3.5895	102.62146
3.59	98.59314
3.5905	92.55066
3.591	89.63013
3.5915	85.90393
3.592	83.08411
3.5925	67.67578
3.593	38.87329
3.5935	-11.98425
3.594	-71.09985
3.5945	-125.88501
3.595	-161.83777
3.5955	-161.93848
3.596	-145.42236
3.5965	-107.85828
3.597	-75.93384
3.5975	-50.354
3.598	-12.99133
3.5985	18.73169
3.599	53.27454
3.5995	82.88269
3.6	91.04004
3.6005	82.88269
3.601	74.82605
3.6015	68.48145
3.602	60.12268
3.6025	64.85596
3.603	79.35791
3.6035	85.09827
3.604	80.76782
3.6045	66.46729
3.605	50.15259
3.6055	50.95825
3.606	38.47046
3.6065	3.92761
3.607	-21.45081
3.6075	-53.57666
3.608	-100.20447
3.6085	-118.43262
3.609	-105.84412
3.6095	-85.40039
3.61	-93.15491
3.6105	-90.03296
3.611	-61.53259
3.6115	-25.47913
3.612	16.11328
3.6125	56.90002
3.613	90.23438
3.6135	111.48376
3.614	131.52466
3.6145	129.61121
3.615	103.62854
3.6155	60.82764
3.616	24.47205
3.6165	-25.47913
3.617	-58.91418
3.6175	-79.96216
3.618	-88.32092
3.6185	-63.24463
3.619	-25.68054
3.6195	-14.50195
3.62	-61.73401
3.6205	-138.97705
3.621	-188.52539
3.6215	-183.99353
3.622	-144.6167
3.6225	-86.8103
3.623	-15.71045
3.6235	41.39099
3.624	89.93225
3.6245	142.19971
3.625	193.56079
3.6255	226.69373
3.626	210.68115
3.6265	153.27759
3.627	114.10217
3.6275	76.63879
3.628	43.60657
3.6285	-3.62549
3.629	-61.73401
3.6295	-97.18323
3.63	-104.93774
3.6305	-107.55615
3.631	-104.73633
3.6315	-83.18481
3.632	-50.75684
3.6325	0.70496
3.633	41.18958
3.6335	81.67419
3.634	110.47668
3.6345	130.92041
3.635	143.71033
3.6355	143.00537
3.636	133.3374
3.6365	111.48376
3.637	72.10693
3.6375	36.75842
3.638	-3.32336
3.6385	-22.35718
3.639	-40.2832
3.6395	-52.26746
3.64	-44.41223
3.6405	-38.57117
3.641	-30.31311
3.6415	-31.62231
3.642	-34.44214
3.6425	-22.15576
3.643	2.41699
3.6435	13.19275
3.644	19.13452
3.6445	34.03931
3.645	60.82764
3.6455	55.3894
3.646	46.22498
3.6465	34.54285
3.647	33.33435
3.6475	34.34143
3.648	48.84338
3.6485	49.54834
3.649	61.73401
3.6495	80.76782
3.65	104.23279
3.6505	98.0896
3.651	69.1864
3.6515	21.95435
3.652	-6.44531
3.6525	-26.48621
3.653	-32.93152
3.6535	-29.40674
3.654	-35.85205
3.6545	-54.48303
3.655	-56.5979
3.6555	-51.05896
3.656	-54.88586
3.6565	-68.78357
3.657	-64.55383
3.6575	-70.49561
3.658	-70.79773
3.6585	-81.37207
3.659	-89.93225
3.6595	-95.67261
3.66	-87.71667
3.6605	-70.09277
3.661	-57.00073
3.6615	-49.54834
3.662	-38.87329
3.6625	-25.27771
3.663	-2.31628
3.6635	31.72302
3.664	75.4303
3.6645	103.52783
3.665	111.9873
3.6655	82.78198
3.666	65.56091
3.6665	53.17383
3.667	19.63806
3.6675	-12.48779
3.668	-28.70178
3.6685	-30.11169
3.669	-41.59241
3.6695	-80.26428
3.67	-149.04785
3.6705	-206.55212
3.671	-224.07532
3.6715	-221.25549
3.672	-199.20044
3.6725	-146.42944
3.673	-95.26978
3.6735	-62.23755
3.674	-37.66479
3.6745	-32.12585
3.675	-10.87646
3.6755	5.94177
3.676	48.23914
3.6765	83.08411
3.677	110.07385
3.6775	115.20996
3.678	106.04553
3.6785	109.16748
3.679	128.60413
3.6795	163.65051
3.68	166.77246
3.6805	130.92041
3.681	80.86853
3.6815	36.85913
3.682	5.74036
3.6825	-10.47363
3.683	-0.30212
3.6835	17.92603
3.684	29.00391
3.6845	44.81506
3.685	42.09595
3.6855	40.08179
3.686	37.86621
3.6865	24.77417
3.687	-6.3446
3.6875	-43.40515
3.688	-82.47986
3.6885	-113.69934
3.689	-135.75439
3.6895	-132.12891
3.69	-107.15332
3.6905	-68.38074
3.691	-18.93311
3.6915	32.02515
3.692	69.89136
3.6925	104.73633
3.693	127.89917
3.6935	125.98572
3.694	98.59314
3.6945	75.93384
3.695	70.99915
3.6955	77.948
3.696	76.84021
3.6965	80.16357
3.697	79.05579
3.6975	87.71667
3.698	103.02429
3.6985	129.40979
3.699	142.70325
3.6995	100.90942
3.7	41.79382
3.7005	-8.66089
3.701	-49.24622
3.7015	-75.32959
3.702	-72.50977
3.7025	-57.9071
3.703	-32.62939
3.7035	8.7616
3.704	32.12585
3.7045	60.4248
3.705	94.3634
3.7055	116.51917
3.706	122.76306
3.7065	120.7489
3.707	114.10217
3.7075	112.79297
3.708	105.03845
3.7085	82.37915
3.709	65.3595
3.7095	43.10303
3.71	20.94727
3.7105	7.65381
3.711	0.90637
3.7115	-15.30762
3.712	-12.08496
3.7125	-16.81824
3.713	-26.58691
3.7135	-27.39258
3.714	-35.95276
3.7145	-42.19666
3.715	-64.55383
3.7155	-74.72534
3.716	-96.67969
3.7165	-101.21155
3.717	-99.80164
3.7175	-78.25012
3.718	-65.15808
3.7185	-54.0802
3.719	-45.41931
3.7195	-40.98816
3.72	-52.8717
3.7205	-61.6333
3.721	-70.59631
3.7215	-77.24304
3.722	-83.58765
3.7225	-92.85278
3.723	-106.24695
3.7235	-111.58447
3.724	-105.13916
3.7245	-85.70251
3.725	-55.79224
3.7255	-25.68054
3.726	-13.19275
3.7265	-14.60266
3.727	-13.19275
3.7275	-7.25098
3.728	-6.94885
3.7285	12.99133
3.729	13.39417
3.7295	24.27063
