Gianluca_La_Polta_Left_2.c3d  



Time(s):	B_R_bicipite(μV):
0	4.12903
0.0005	6.3446
0.001	6.3446
0.0015	4.02832
0.002	2.41699
0.0025	-3.32336
0.003	4.22974
0.0035	3.92761
0.004	3.22266
0.0045	2.81982
0.005	-1.2085
0.0055	3.32336
0.006	5.53894
0.0065	-1.81274
0.007	2.5177
0.0075	5.74036
0.008	-0.70496
0.0085	5.84106
0.009	5.0354
0.0095	6.3446
0.01	8.7616
0.0105	4.33044
0.011	8.15735
0.0115	11.48071
0.012	10.57434
0.0125	7.85522
0.013	9.36584
0.0135	9.76868
0.014	8.25806
0.0145	7.25098
0.015	3.8269
0.0155	12.68921
0.016	9.76868
0.0165	6.3446
0.017	8.7616
0.0175	2.61841
0.018	3.92761
0.0185	6.94885
0.019	8.8623
0.0195	9.56726
0.02	10.17151
0.0205	6.84814
0.021	8.35876
0.0215	8.45947
0.022	6.64673
0.0225	11.07788
0.023	4.53186
0.0235	7.25098
0.024	6.14319
0.0245	8.56018
0.025	12.28638
0.0255	7.45239
0.026	4.33044
0.0265	3.8269
0.027	9.36584
0.0275	9.66797
0.028	2.01416
0.0285	4.43115
0.029	7.04956
0.0295	14.19983
0.03	8.66089
0.0305	4.12903
0.031	4.63257
0.0315	7.75452
0.032	7.45239
0.0325	5.43823
0.033	9.46655
0.0335	2.21558
0.034	2.81982
0.0345	6.14319
0.035	7.15027
0.0355	6.3446
0.036	10.0708
0.0365	8.05664
0.037	8.8623
0.0375	7.15027
0.038	8.66089
0.0385	7.5531
0.039	6.2439
0.0395	4.63257
0.04	7.5531
0.0405	7.25098
0.041	6.54602
0.0415	5.63965
0.042	10.37292
0.0425	6.54602
0.043	8.96301
0.0435	7.65381
0.044	11.78284
0.0445	5.74036
0.045	3.52478
0.0455	0.40283
0.046	7.25098
0.0465	4.43115
0.047	8.56018
0.0475	10.57434
0.048	11.88354
0.0485	10.57434
0.049	11.78284
0.0495	9.66797
0.05	6.94885
0.0505	9.26514
0.051	10.97717
0.0515	11.2793
0.052	10.87646
0.0525	13.59558
0.053	9.06372
0.0535	6.94885
0.054	2.5177
0.0545	4.43115
0.055	4.73328
0.0555	5.53894
0.056	5.94177
0.0565	8.15735
0.057	4.63257
0.0575	2.5177
0.058	0.80566
0.0585	6.84814
0.059	8.15735
0.0595	3.62549
0.06	6.04248
0.0605	-1.00708
0.061	3.92761
0.0615	1.61133
0.062	0.70496
0.0625	-2.11487
0.063	7.65381
0.0635	2.92053
0.064	5.74036
0.0645	1.91345
0.065	-0.80566
0.0655	0.50354
0.066	5.43823
0.0665	3.62549
0.067	3.8269
0.0675	5.94177
0.068	3.62549
0.0685	3.92761
0.069	6.94885
0.0695	4.73328
0.07	1.81274
0.0705	-3.12195
0.071	6.14319
0.0715	1.71204
0.072	1.2085
0.0725	2.81982
0.073	3.7262
0.0735	3.12195
0.074	2.01416
0.0745	3.02124
0.075	3.32336
0.0755	2.01416
0.076	7.5531
0.0765	5.13611
0.077	5.33752
0.0775	0.40283
0.078	3.32336
0.0785	8.05664
0.079	7.04956
0.0795	3.52478
0.08	7.85522
0.0805	9.26514
0.081	5.63965
0.0815	7.5531
0.082	5.53894
0.0825	6.94885
0.083	6.94885
0.0835	2.61841
0.084	4.33044
0.0845	7.95593
0.085	6.14319
0.0855	11.17859
0.086	6.04248
0.0865	2.01416
0.087	9.46655
0.0875	7.15027
0.088	3.62549
0.0885	2.11487
0.089	8.7616
0.0895	5.33752
0.09	8.56018
0.0905	9.26514
0.091	3.7262
0.0915	7.75452
0.092	4.53186
0.0925	7.04956
0.093	6.54602
0.0935	6.14319
0.094	4.73328
0.0945	7.5531
0.095	7.75452
0.0955	6.74744
0.096	4.43115
0.0965	9.26514
0.097	7.85522
0.0975	5.23682
0.098	3.02124
0.0985	4.83398
0.099	3.02124
0.0995	7.35168
0.1	7.35168
0.1005	2.01416
0.101	8.05664
0.1015	10.67505
0.102	6.94885
0.1025	6.94885
0.103	2.81982
0.1035	2.21558
0.104	3.12195
0.1045	7.15027
0.105	7.5531
0.1055	2.61841
0.106	5.63965
0.1065	3.22266
0.107	2.5177
0.1075	3.52478
0.108	1.3092
0.1085	3.12195
0.109	5.74036
0.1095	7.04956
0.11	5.74036
0.1105	3.62549
0.111	-0.70496
0.1115	0.60425
0.112	-2.41699
0.1125	-3.42407
0.113	5.74036
0.1135	2.92053
0.114	2.11487
0.1145	1.2085
0.115	1.91345
0.1155	2.61841
0.116	8.66089
0.1165	6.2439
0.117	3.32336
0.1175	2.92053
0.118	3.62549
0.1185	6.2439
0.119	4.43115
0.1195	9.26514
0.12	8.8623
0.1205	4.33044
0.121	4.33044
0.1215	5.0354
0.122	7.45239
0.1225	4.53186
0.123	6.64673
0.1235	5.13611
0.124	6.84814
0.1245	7.35168
0.125	5.74036
0.1255	5.33752
0.126	7.35168
0.1265	5.84106
0.127	0.70496
0.1275	5.13611
0.128	3.7262
0.1285	-0.70496
0.129	4.43115
0.1295	4.43115
0.13	10.87646
0.1305	5.43823
0.131	-1.10779
0.1315	5.43823
0.132	3.22266
0.1325	-0.10071
0.133	0.60425
0.1335	4.43115
0.134	3.22266
0.1345	4.63257
0.135	5.43823
0.1355	4.22974
0.136	2.61841
0.1365	0.90637
0.137	2.41699
0.1375	4.33044
0.138	4.33044
0.1385	4.12903
0.139	1.71204
0.1395	4.02832
0.14	4.22974
0.1405	4.12903
0.141	0.60425
0.1415	0.70496
0.142	0.20142
0.1425	5.74036
0.143	9.97009
0.1435	10.27222
0.144	3.92761
0.1445	3.02124
0.145	5.94177
0.1455	6.44531
0.146	8.35876
0.1465	3.8269
0.147	6.84814
0.1475	6.94885
0.148	2.11487
0.1485	3.52478
0.149	7.04956
0.1495	7.35168
0.15	10.97717
0.1505	5.13611
0.151	5.13611
0.1515	4.33044
0.152	5.33752
0.1525	4.83398
0.153	3.12195
0.1535	3.22266
0.154	4.63257
0.1545	8.05664
0.155	4.93469
0.1555	7.04956
0.156	3.22266
0.1565	7.45239
0.157	8.35876
0.1575	6.44531
0.158	2.61841
0.1585	9.26514
0.159	4.43115
0.1595	6.44531
0.16	9.06372
0.1605	3.22266
0.161	5.94177
0.1615	7.25098
0.162	4.53186
0.1625	2.41699
0.163	8.05664
0.1635	4.93469
0.164	3.02124
0.1645	4.43115
0.165	4.63257
0.1655	3.12195
0.166	4.02832
0.1665	2.61841
0.167	5.0354
0.1675	3.22266
0.168	8.45947
0.1685	8.7616
0.169	8.56018
0.1695	7.15027
0.17	5.84106
0.1705	1.81274
0.171	3.62549
0.1715	3.12195
0.172	5.33752
0.1725	11.88354
0.173	3.12195
0.1735	2.5177
0.174	2.71912
0.1745	8.45947
0.175	8.56018
0.1755	6.74744
0.176	3.12195
0.1765	5.53894
0.177	11.68213
0.1775	9.06372
0.178	8.7616
0.1785	15.30762
0.179	9.36584
0.1795	12.5885
0.18	12.08496
0.1805	5.94177
0.181	4.12903
0.1815	8.45947
0.182	3.92761
0.1825	0.80566
0.183	8.8623
0.1835	10.27222
0.184	8.96301
0.1845	4.73328
0.185	5.63965
0.1855	7.15027
0.186	7.75452
0.1865	3.7262
0.187	3.42407
0.1875	2.21558
0.188	3.52478
0.1885	3.32336
0.189	4.53186
0.1895	0.10071
0.19	-0.10071
0.1905	-2.01416
0.191	6.64673
0.1915	7.85522
0.192	4.12903
0.1925	9.76868
0.193	5.63965
0.1935	9.46655
0.194	6.94885
0.1945	8.25806
0.195	2.81982
0.1955	1.61133
0.196	-0.20142
0.1965	1.2085
0.197	-2.71912
0.1975	2.31628
0.198	7.04956
0.1985	3.62549
0.199	2.81982
0.1995	8.7616
0.2	7.95593
0.2005	9.06372
0.201	12.18567
0.2015	7.5531
0.202	7.65381
0.2025	5.13611
0.203	6.3446
0.2035	6.94885
0.204	5.0354
0.2045	3.32336
0.205	5.94177
0.2055	6.94885
0.206	3.52478
0.2065	3.22266
0.207	7.75452
0.2075	7.15027
0.208	5.23682
0.2085	11.98425
0.209	5.43823
0.2095	10.87646
0.21	13.69629
0.2105	5.43823
0.211	5.23682
0.2115	3.92761
0.212	4.12903
0.2125	8.15735
0.213	-0.30212
0.2135	10.67505
0.214	7.25098
0.2145	6.74744
0.215	9.06372
0.2155	7.35168
0.216	4.73328
0.2165	5.74036
0.217	4.93469
0.2175	8.7616
0.218	10.0708
0.2185	11.07788
0.219	6.2439
0.2195	10.0708
0.22	6.2439
0.2205	4.63257
0.221	7.5531
0.2215	3.42407
0.222	6.04248
0.2225	2.81982
0.223	10.17151
0.2235	7.5531
0.224	11.48071
0.2245	6.3446
0.225	2.01416
0.2255	5.63965
0.226	5.43823
0.2265	4.02832
0.227	8.45947
0.2275	8.05664
0.228	6.3446
0.2285	6.94885
0.229	9.16443
0.2295	3.32336
0.23	3.22266
0.2305	5.84106
0.231	6.74744
0.2315	4.02832
0.232	5.23682
0.2325	6.44531
0.233	13.69629
0.2335	8.25806
0.234	5.13611
0.2345	9.46655
0.235	6.74744
0.2355	2.31628
0.236	-0.20142
0.2365	8.35876
0.237	6.14319
0.2375	4.12903
0.238	11.98425
0.2385	9.86938
0.239	6.84814
0.2395	6.2439
0.24	5.23682
0.2405	7.25098
0.241	3.52478
0.2415	4.33044
0.242	6.44531
0.2425	4.53186
0.243	0.70496
0.2435	4.33044
0.244	8.7616
0.2445	2.92053
0.245	4.73328
0.2455	0.90637
0.246	3.42407
0.2465	2.5177
0.247	5.43823
0.2475	8.96301
0.248	4.43115
0.2485	0
0.249	3.8269
0.2495	-1.61133
0.25	-0.50354
0.2505	1.51062
0.251	-1.40991
0.2515	3.22266
0.252	5.23682
0.2525	1.51062
0.253	-0.30212
0.2535	2.92053
0.254	-0.70496
0.2545	-0.80566
0.255	1.81274
0.2555	3.32336
0.256	4.33044
0.2565	7.5531
0.257	5.33752
0.2575	-0.20142
0.258	-0.70496
0.2585	4.43115
0.259	8.66089
0.2595	4.12903
0.26	5.63965
0.2605	4.73328
0.261	2.11487
0.2615	-4.43115
0.262	3.8269
0.2625	3.62549
0.263	2.81982
0.2635	7.45239
0.264	8.56018
0.2645	7.65381
0.265	9.16443
0.2655	13.09204
0.266	8.66089
0.2665	4.33044
0.267	2.71912
0.2675	4.22974
0.268	4.53186
0.2685	1.91345
0.269	8.05664
0.2695	0.80566
0.27	5.94177
0.2705	3.62549
0.271	3.32336
0.2715	1.51062
0.272	5.33752
0.2725	4.83398
0.273	5.13611
0.2735	5.13611
0.274	0.30212
0.2745	5.0354
0.275	8.15735
0.2755	7.35168
0.276	6.44531
0.2765	7.35168
0.277	5.63965
0.2775	11.17859
0.278	6.84814
0.2785	1.71204
0.279	2.81982
0.2795	2.01416
0.28	4.43115
0.2805	1.71204
0.281	-2.01416
0.2815	-1.10779
0.282	5.23682
0.2825	2.31628
0.283	7.5531
0.2835	7.35168
0.284	7.75452
0.2845	5.53894
0.285	6.84814
0.2855	5.74036
0.286	2.31628
0.2865	8.8623
0.287	9.46655
0.2875	8.45947
0.288	2.41699
0.2885	7.95593
0.289	10.27222
0.2895	9.16443
0.29	9.36584
0.2905	6.84814
0.291	10.47363
0.2915	7.04956
0.292	6.64673
0.2925	7.25098
0.293	13.69629
0.2935	9.56726
0.294	9.26514
0.2945	5.0354
0.295	6.2439
0.2955	13.797
0.296	5.84106
0.2965	6.54602
0.297	9.46655
0.2975	7.75452
0.298	6.44531
0.2985	7.25098
0.299	13.19275
0.2995	11.58142
0.3	9.86938
0.3005	13.797
0.301	11.48071
0.3015	10.97717
0.302	7.04956
0.3025	7.15027
0.303	9.66797
0.3035	6.84814
0.304	2.11487
0.3045	7.5531
0.305	6.74744
0.3055	5.53894
0.306	9.46655
0.3065	7.25098
0.307	7.04956
0.3075	7.85522
0.308	8.96301
0.3085	3.7262
0.309	5.84106
0.3095	3.12195
0.31	3.22266
0.3105	1.91345
0.311	8.8623
0.3115	6.94885
0.312	6.3446
0.3125	9.46655
0.313	3.62549
0.3135	6.04248
0.314	8.56018
0.3145	8.25806
0.315	7.95593
0.3155	4.22974
0.316	8.8623
0.3165	6.74744
0.317	2.41699
0.3175	-0.40283
0.318	4.53186
0.3185	10.57434
0.319	4.02832
0.3195	2.01416
0.32	4.43115
0.3205	6.04248
0.321	1.81274
0.3215	3.42407
0.322	2.71912
0.3225	0.90637
0.323	8.25806
0.3235	3.32336
0.324	4.73328
0.3245	7.95593
0.325	3.7262
0.3255	0.50354
0.326	3.42407
0.3265	5.53894
0.327	6.74744
0.3275	6.04248
0.328	2.5177
0.3285	1.3092
0.329	5.43823
0.3295	6.2439
0.33	1.81274
0.3305	2.71912
0.331	-2.71912
0.3315	6.54602
0.332	1.00708
0.3325	3.7262
0.333	4.53186
0.3335	1.81274
0.334	1.51062
0.3345	3.52478
0.335	-1.81274
0.3355	2.01416
0.336	1.71204
0.3365	2.01416
0.337	5.33752
0.3375	3.32336
0.338	4.02832
0.3385	6.2439
0.339	5.94177
0.3395	8.35876
0.34	4.22974
0.3405	11.48071
0.341	7.25098
0.3415	10.87646
0.342	11.07788
0.3425	9.26514
0.343	10.77576
0.3435	8.96301
0.344	6.64673
0.3445	8.45947
0.345	5.74036
0.3455	6.64673
0.346	6.44531
0.3465	5.63965
0.347	4.12903
0.3475	9.26514
0.348	8.25806
0.3485	11.88354
0.349	3.7262
0.3495	1.40991
0.35	9.46655
0.3505	7.75452
0.351	10.67505
0.3515	5.53894
0.352	1.71204
0.3525	-0.80566
0.353	0.10071
0.3535	5.43823
0.354	7.75452
0.3545	4.02832
0.355	7.85522
0.3555	4.43115
0.356	9.86938
0.3565	9.36584
0.357	8.56018
0.3575	6.94885
0.358	8.56018
0.3585	9.46655
0.359	10.67505
0.3595	12.08496
0.36	7.04956
0.3605	6.84814
0.361	14.30054
0.3615	10.27222
0.362	7.35168
0.3625	9.16443
0.363	6.14319
0.3635	6.84814
0.364	9.36584
0.3645	10.57434
0.365	8.25806
0.3655	9.06372
0.366	12.78992
0.3665	8.15735
0.367	7.04956
0.3675	9.97009
0.368	3.42407
0.3685	4.73328
0.369	2.61841
0.3695	4.12903
0.37	2.11487
0.3705	7.35168
0.371	3.32336
0.3715	7.5531
0.372	3.8269
0.3725	3.92761
0.373	11.07788
0.3735	6.74744
0.374	8.05664
0.3745	9.36584
0.375	7.15027
0.3755	6.84814
0.376	8.45947
0.3765	8.96301
0.377	2.01416
0.3775	8.7616
0.378	6.54602
0.3785	3.32336
0.379	10.47363
0.3795	3.52478
0.38	5.0354
0.3805	5.0354
0.381	-1.00708
0.3815	3.02124
0.382	4.83398
0.3825	-3.32336
0.383	1.91345
0.3835	0.40283
0.384	4.22974
0.3845	5.63965
0.385	0.60425
0.3855	2.61841
0.386	-0.90637
0.3865	0
0.387	4.02832
0.3875	2.5177
0.388	3.02124
0.3885	3.8269
0.389	3.52478
0.3895	3.52478
0.39	-1.10779
0.3905	-0.20142
0.391	1.10779
0.3915	1.81274
0.392	3.22266
0.3925	5.94177
0.393	5.53894
0.3935	5.23682
0.394	1.81274
0.3945	3.12195
0.395	-1.40991
0.3955	2.31628
0.396	2.31628
0.3965	0.20142
0.397	4.22974
0.3975	-4.33044
0.398	2.01416
0.3985	1.3092
0.399	-2.11487
0.3995	-1.10779
0.4	0
0.4005	-2.11487
0.401	3.22266
0.4015	3.92761
0.402	3.7262
0.4025	-1.81274
0.403	-3.42407
0.4035	-0.40283
0.404	2.81982
0.4045	2.31628
0.405	5.94177
0.4055	-1.3092
0.406	2.31628
0.4065	4.83398
0.407	4.53186
0.4075	1.2085
0.408	3.32336
0.4085	4.53186
0.409	0.50354
0.4095	5.53894
0.41	2.11487
0.4105	3.32336
0.411	4.12903
0.4115	4.83398
0.412	8.8623
0.4125	5.63965
0.413	10.47363
0.4135	9.46655
0.414	8.25806
0.4145	6.64673
0.415	10.97717
0.4155	5.13611
0.416	3.62549
0.4165	7.25098
0.417	7.95593
0.4175	9.46655
0.418	6.14319
0.4185	5.63965
0.419	1.40991
0.4195	0.30212
0.42	6.74744
0.4205	5.63965
0.421	0.50354
0.4215	4.33044
0.422	4.73328
0.4225	7.95593
0.423	9.36584
0.4235	8.56018
0.424	3.42407
0.4245	9.76868
0.425	7.25098
0.4255	1.61133
0.426	8.35876
0.4265	10.97717
0.427	10.47363
0.4275	6.3446
0.428	4.73328
0.4285	3.22266
0.429	8.15735
0.4295	6.2439
0.43	8.45947
0.4305	1.3092
0.431	-0.40283
0.4315	-1.10779
0.432	3.32336
0.4325	0.50354
0.433	7.95593
0.4335	6.04248
0.434	6.94885
0.4345	6.74744
0.435	3.22266
0.4355	3.7262
0.436	7.25098
0.4365	2.81982
0.437	5.23682
0.4375	4.43115
0.438	6.84814
0.4385	8.45947
0.439	1.91345
0.4395	1.61133
0.44	7.75452
0.4405	9.36584
0.441	4.83398
0.4415	4.63257
0.442	6.14319
0.4425	3.8269
0.443	3.22266
0.4435	7.5531
0.444	6.84814
0.4445	5.63965
0.445	4.53186
0.4455	10.0708
0.446	10.37292
0.4465	10.47363
0.447	7.95593
0.4475	7.85522
0.448	8.96301
0.4485	3.12195
0.449	8.15735
0.4495	12.99133
0.45	11.98425
0.4505	-3.7262
0.451	3.42407
0.4515	8.7616
0.452	4.33044
0.4525	8.25806
0.453	7.15027
0.4535	10.27222
0.454	8.8623
0.4545	9.36584
0.455	6.3446
0.4555	7.04956
0.456	6.3446
0.4565	4.63257
0.457	11.68213
0.4575	4.33044
0.458	0.80566
0.4585	4.63257
0.459	7.35168
0.4595	7.95593
0.46	9.97009
0.4605	8.25806
0.461	8.35876
0.4615	4.22974
0.462	3.62549
0.4625	-0.40283
0.463	-1.51062
0.4635	6.94885
0.464	13.29346
0.4645	9.06372
0.465	1.81274
0.4655	-2.21558
0.466	2.61841
0.4665	1.10779
0.467	-0.70496
0.4675	0.70496
0.468	2.31628
0.4685	-0.90637
0.469	2.81982
0.4695	0.90637
0.47	-0.40283
0.4705	0.80566
0.471	3.32336
0.4715	4.02832
0.472	1.91345
0.4725	1.3092
0.473	5.74036
0.4735	8.15735
0.474	5.53894
0.4745	5.0354
0.475	4.33044
0.4755	-3.02124
0.476	3.62549
0.4765	9.06372
0.477	5.13611
0.4775	1.81274
0.478	8.96301
0.4785	2.21558
0.479	2.21558
0.4795	4.02832
0.48	10.47363
0.4805	11.88354
0.481	8.96301
0.4815	6.94885
0.482	8.96301
0.4825	10.97717
0.483	10.0708
0.4835	2.5177
0.484	6.54602
0.4845	6.3446
0.485	11.88354
0.4855	8.96301
0.486	4.12903
0.4865	3.02124
0.487	11.58142
0.4875	5.84106
0.488	6.2439
0.4885	8.35876
0.489	7.85522
0.4895	3.62549
0.49	7.95593
0.4905	3.42407
0.491	0.60425
0.4915	6.04248
0.492	7.04956
0.4925	9.16443
0.493	1.81274
0.4935	2.21558
0.494	5.0354
0.4945	6.14319
0.495	3.22266
0.4955	0.80566
0.496	2.61841
0.4965	2.81982
0.497	7.5531
0.4975	1.00708
0.498	10.27222
0.4985	6.3446
0.499	4.83398
0.4995	7.45239
0.5	5.94177
0.5005	3.02124
0.501	7.95593
0.5015	1.81274
0.502	4.73328
0.5025	1.2085
0.503	7.04956
0.5035	12.89062
0.504	11.58142
0.5045	5.53894
0.505	4.93469
0.5055	7.5531
0.506	4.93469
0.5065	3.42407
0.507	2.61841
0.5075	6.2439
0.508	2.71912
0.5085	1.81274
0.509	7.5531
0.5095	4.43115
0.51	2.61841
0.5105	1.91345
0.511	0.60425
0.5115	4.53186
0.512	1.00708
0.5125	6.04248
0.513	4.12903
0.5135	4.12903
0.514	6.14319
0.5145	2.01416
0.515	5.33752
0.5155	2.41699
0.516	3.7262
0.5165	3.42407
0.517	4.43115
0.5175	3.8269
0.518	2.31628
0.5185	3.12195
0.519	1.61133
0.5195	0.40283
0.52	6.14319
0.5205	7.04956
0.521	0.20142
0.5215	7.15027
0.522	3.12195
0.5225	5.63965
0.523	1.71204
0.5235	2.21558
0.524	3.8269
0.5245	4.63257
0.525	3.42407
0.5255	5.33752
0.526	2.5177
0.5265	0.30212
0.527	1.81274
0.5275	7.85522
0.528	0.90637
0.5285	4.83398
0.529	1.40991
0.5295	3.8269
0.53	8.7616
0.5305	0.30212
0.531	1.2085
0.5315	1.3092
0.532	2.41699
0.5325	5.33752
0.533	3.22266
0.5335	8.25806
0.534	4.53186
0.5345	3.02124
0.535	2.41699
0.5355	1.40991
0.536	6.3446
0.5365	7.04956
0.537	5.0354
0.5375	6.94885
0.538	9.46655
0.5385	2.01416
0.539	-1.51062
0.5395	-0.70496
0.54	2.71912
0.5405	-1.81274
0.541	0.40283
0.5415	1.61133
0.542	4.33044
0.5425	4.02832
0.543	5.23682
0.5435	5.53894
0.544	1.10779
0.5445	4.73328
0.545	6.04248
0.5455	7.65381
0.546	8.8623
0.5465	6.2439
0.547	9.36584
0.5475	9.46655
0.548	5.84106
0.5485	0.30212
0.549	4.63257
0.5495	8.45947
0.55	2.92053
0.5505	2.81982
0.551	8.05664
0.5515	7.35168
0.552	11.48071
0.5525	7.65381
0.553	6.54602
0.5535	6.44531
0.554	6.84814
0.5545	5.43823
0.555	8.66089
0.5555	8.66089
0.556	5.53894
0.5565	6.64673
0.557	5.63965
0.5575	7.25098
0.558	10.17151
0.5585	12.89062
0.559	6.54602
0.5595	5.13611
0.56	2.71912
0.5605	4.43115
0.561	7.65381
0.5615	12.5885
0.562	7.45239
0.5625	4.93469
0.563	8.05664
0.5635	5.13611
0.564	10.77576
0.5645	4.83398
0.565	3.8269
0.5655	5.74036
0.566	2.41699
0.5665	3.62549
0.567	6.14319
0.5675	3.12195
0.568	-0.10071
0.5685	-1.2085
0.569	3.32336
0.5695	1.91345
0.57	0.60425
0.5705	1.81274
0.571	2.5177
0.5715	6.04248
0.572	3.92761
0.5725	2.41699
0.573	8.96301
0.5735	2.61841
0.574	0.20142
0.5745	2.11487
0.575	2.71912
0.5755	5.53894
0.576	5.23682
0.5765	5.63965
0.577	7.15027
0.5775	1.10779
0.578	8.8623
0.5785	10.27222
0.579	4.53186
0.5795	2.92053
0.58	7.95593
0.5805	3.7262
0.581	2.5177
0.5815	3.52478
0.582	3.52478
0.5825	7.04956
0.583	4.63257
0.5835	6.2439
0.584	8.56018
0.5845	7.65381
0.585	10.17151
0.5855	5.43823
0.586	2.61841
0.5865	4.93469
0.587	6.84814
0.5875	5.53894
0.588	2.11487
0.5885	4.73328
0.589	4.43115
0.5895	2.01416
0.59	3.32336
0.5905	0
0.591	8.96301
0.5915	2.92053
0.592	7.95593
0.5925	7.04956
0.593	11.2793
0.5935	4.33044
0.594	5.13611
0.5945	3.7262
0.595	5.0354
0.5955	6.14319
0.596	3.42407
0.5965	10.87646
0.597	7.65381
0.5975	2.92053
0.598	7.5531
0.5985	8.8623
0.599	9.56726
0.5995	7.75452
0.6	-2.71912
0.6005	2.21558
0.601	6.2439
0.6015	0.50354
0.602	-0.60425
0.6025	1.10779
0.603	5.84106
0.6035	7.25098
0.604	5.63965
0.6045	5.84106
0.605	4.12903
0.6055	4.43115
0.606	2.61841
0.6065	0.60425
0.607	3.02124
0.6075	7.04956
0.608	4.73328
0.6085	1.81274
0.609	3.32336
0.6095	5.0354
0.61	4.43115
0.6105	1.51062
0.611	5.63965
0.6115	2.31628
0.612	2.92053
0.6125	2.31628
0.613	5.33752
0.6135	3.02124
0.614	7.5531
0.6145	1.3092
0.615	4.22974
0.6155	4.93469
0.616	4.73328
0.6165	3.02124
0.617	4.12903
0.6175	4.43115
0.618	3.8269
0.6185	3.22266
0.619	8.45947
0.6195	6.2439
0.62	1.81274
0.6205	5.84106
0.621	8.66089
0.6215	3.32336
0.622	7.75452
0.6225	2.61841
0.623	2.5177
0.6235	1.91345
0.624	6.94885
0.6245	3.42407
0.625	4.83398
0.6255	9.26514
0.626	7.25098
0.6265	1.91345
0.627	3.62549
0.6275	-0.40283
0.628	7.04956
0.6285	2.92053
0.629	8.96301
0.6295	7.45239
0.63	8.56018
0.6305	4.53186
0.631	8.25806
0.6315	10.0708
0.632	9.36584
0.6325	1.40991
0.633	10.27222
0.6335	9.16443
0.634	8.66089
0.6345	4.73328
0.635	-0.20142
0.6355	4.83398
0.636	6.44531
0.6365	5.13611
0.637	7.65381
0.6375	8.15735
0.638	0.20142
0.6385	3.02124
0.639	5.94177
0.6395	7.35168
0.64	8.45947
0.6405	6.2439
0.641	3.42407
0.6415	2.61841
0.642	7.95593
0.6425	6.3446
0.643	0.50354
0.6435	5.0354
0.644	6.04248
0.6445	13.09204
0.645	7.65381
0.6455	-0.70496
0.646	6.64673
0.6465	3.32336
0.647	4.22974
0.6475	7.75452
0.648	7.65381
0.6485	5.0354
0.649	3.42407
0.6495	5.74036
0.65	4.93469
0.6505	8.8623
0.651	3.12195
0.6515	1.71204
0.652	2.71912
0.6525	2.92053
0.653	9.36584
0.6535	7.25098
0.654	12.08496
0.6545	7.15027
0.655	7.15027
0.6555	8.45947
0.656	6.04248
0.6565	8.15735
0.657	8.96301
0.6575	1.61133
0.658	1.2085
0.6585	7.95593
0.659	7.35168
0.6595	6.44531
0.66	7.25098
0.6605	12.78992
0.661	9.36584
0.6615	4.83398
0.662	9.06372
0.6625	8.96301
0.663	6.74744
0.6635	9.16443
0.664	9.26514
0.6645	6.44531
0.665	5.84106
0.6655	12.48779
0.666	5.94177
0.6665	6.74744
0.667	6.04248
0.6675	4.43115
0.668	10.57434
0.6685	8.45947
0.669	12.99133
0.6695	4.22974
0.67	7.15027
0.6705	8.45947
0.671	9.16443
0.6715	2.21558
0.672	1.91345
0.6725	5.0354
0.673	5.33752
0.6735	6.44531
0.674	11.48071
0.6745	8.15735
0.675	4.83398
0.6755	7.85522
0.676	9.86938
0.6765	9.66797
0.677	8.66089
0.6775	6.44531
0.678	11.07788
0.6785	3.8269
0.679	8.05664
0.6795	9.97009
0.68	13.797
0.6805	8.05664
0.681	12.48779
0.6815	7.5531
0.682	4.43115
0.6825	8.05664
0.683	7.85522
0.6835	3.92761
0.684	-1.00708
0.6845	10.0708
0.685	7.25098
0.6855	6.64673
0.686	9.46655
0.6865	7.85522
0.687	8.15735
0.6875	4.73328
0.688	8.8623
0.6885	11.98425
0.689	15.81116
0.6895	7.5531
0.69	9.66797
0.6905	10.27222
0.691	5.23682
0.6915	10.57434
0.692	4.43115
0.6925	8.56018
0.693	6.94885
0.6935	5.43823
0.694	6.64673
0.6945	13.39417
0.695	6.3446
0.6955	6.74744
0.696	6.04248
0.6965	1.91345
0.697	8.7616
0.6975	3.52478
0.698	0.90637
0.6985	4.22974
0.699	5.0354
0.6995	5.84106
0.7	2.81982
0.7005	4.93469
0.701	1.91345
0.7015	6.3446
0.702	2.41699
0.7025	6.94885
0.703	5.43823
0.7035	-0.60425
0.704	-0.30212
0.7045	3.52478
0.705	2.92053
0.7055	3.32336
0.706	-0.20142
0.7065	5.43823
0.707	7.85522
0.7075	9.56726
0.708	4.43115
0.7085	-1.81274
0.709	5.84106
0.7095	5.23682
0.71	4.43115
0.7105	6.64673
0.711	6.3446
0.7115	3.12195
0.712	-4.12903
0.7125	6.14319
0.713	-2.5177
0.7135	3.12195
0.714	9.06372
0.7145	6.3446
0.715	3.62549
0.7155	8.35876
0.716	5.74036
0.7165	5.0354
0.717	0.70496
0.7175	9.06372
0.718	4.63257
0.7185	4.93469
0.719	1.10779
0.7195	4.43115
0.72	4.22974
0.7205	1.40991
0.721	9.97009
0.7215	10.77576
0.722	5.43823
0.7225	4.73328
0.723	2.81982
0.7235	7.45239
0.724	4.93469
0.7245	4.02832
0.725	5.94177
0.7255	-0.60425
0.726	3.22266
0.7265	4.22974
0.727	-1.00708
0.7275	3.02124
0.728	3.42407
0.7285	4.43115
0.729	4.12903
0.7295	4.22974
0.73	7.95593
0.7305	12.38708
0.731	9.66797
0.7315	7.45239
0.732	5.53894
0.7325	6.84814
0.733	5.0354
0.7335	4.53186
0.734	1.91345
0.7345	5.94177
0.735	6.04248
0.7355	6.74744
0.736	5.74036
0.7365	0
0.737	4.12903
0.7375	5.63965
0.738	2.01416
0.7385	10.67505
0.739	8.05664
0.7395	10.57434
0.74	3.7262
0.7405	4.73328
0.741	6.64673
0.7415	10.0708
0.742	6.14319
0.7425	0.70496
0.743	0.10071
0.7435	12.68921
0.744	9.26514
0.7445	4.33044
0.745	0.40283
0.7455	4.73328
0.746	9.56726
0.7465	6.2439
0.747	6.2439
0.7475	5.63965
0.748	9.26514
0.7485	7.5531
0.749	5.0354
0.7495	7.5531
0.75	7.15027
0.7505	6.94885
0.751	6.44531
0.7515	6.2439
0.752	8.15735
0.7525	5.13611
0.753	1.10779
0.7535	4.02832
0.754	3.12195
0.7545	1.81274
0.755	5.13611
0.7555	5.13611
0.756	4.02832
0.7565	9.16443
0.757	5.13611
0.7575	11.38
0.758	2.21558
0.7585	4.22974
0.759	3.52478
0.7595	1.00708
0.76	2.92053
0.7605	4.02832
0.761	7.15027
0.7615	5.13611
0.762	4.33044
0.7625	6.44531
0.763	7.5531
0.7635	7.04956
0.764	11.68213
0.7645	9.86938
0.765	7.85522
0.7655	5.94177
0.766	4.12903
0.7665	6.14319
0.767	4.93469
0.7675	7.5531
0.768	9.26514
0.7685	8.7616
0.769	8.15735
0.7695	12.38708
0.77	8.8623
0.7705	11.68213
0.771	6.3446
0.7715	3.62549
0.772	7.5531
0.7725	5.33752
0.773	4.83398
0.7735	7.45239
0.774	7.5531
0.7745	6.74744
0.775	7.75452
0.7755	9.06372
0.776	4.93469
0.7765	7.25098
0.777	7.75452
0.7775	2.71912
0.778	0.80566
0.7785	2.92053
0.779	5.43823
0.7795	5.74036
0.78	8.66089
0.7805	9.46655
0.781	4.33044
0.7815	4.33044
0.782	9.76868
0.7825	11.07788
0.783	5.63965
0.7835	6.44531
0.784	8.15735
0.7845	6.84814
0.785	5.84106
0.7855	5.43823
0.786	8.8623
0.7865	10.17151
0.787	6.54602
0.7875	7.75452
0.788	5.74036
0.7885	9.26514
0.789	9.16443
0.7895	1.3092
0.79	10.17151
0.7905	3.7262
0.791	3.8269
0.7915	7.35168
0.792	7.25098
0.7925	9.76868
0.793	7.25098
0.7935	3.02124
0.794	2.5177
0.7945	2.71912
0.795	6.04248
0.7955	12.08496
0.796	5.33752
0.7965	1.10779
0.797	3.22266
0.7975	3.02124
0.798	6.94885
0.7985	3.62549
0.799	9.26514
0.7995	10.17151
0.8	4.63257
0.8005	3.7262
0.801	5.43823
0.8015	4.63257
0.802	5.84106
0.8025	2.92053
0.803	6.64673
0.8035	1.61133
0.804	0.30212
0.8045	2.92053
0.805	10.27222
0.8055	8.25806
0.806	9.36584
0.8065	3.8269
0.807	4.53186
0.8075	4.63257
0.808	5.63965
0.8085	3.92761
0.809	7.5531
0.8095	0.20142
0.81	1.81274
0.8105	3.22266
0.811	6.74744
0.8115	9.97009
0.812	7.45239
0.8125	6.2439
0.813	10.37292
0.8135	11.17859
0.814	8.66089
0.8145	7.35168
0.815	7.45239
0.8155	7.65381
0.816	11.07788
0.8165	10.97717
0.817	9.86938
0.8175	8.35876
0.818	7.5531
0.8185	5.63965
0.819	5.84106
0.8195	6.84814
0.82	3.42407
0.8205	4.43115
0.821	6.54602
0.8215	5.74036
0.822	6.44531
0.8225	0.50354
0.823	2.71912
0.8235	7.04956
0.824	4.53186
0.8245	3.7262
0.825	5.0354
0.8255	5.33752
0.826	6.44531
0.8265	5.33752
0.827	2.61841
0.8275	6.2439
0.828	2.92053
0.8285	1.51062
0.829	6.14319
0.8295	10.37292
0.83	3.92761
0.8305	0.10071
0.831	-0.30212
0.8315	-2.41699
0.832	2.11487
0.8325	3.02124
0.833	5.23682
0.8335	5.0354
0.834	5.0354
0.8345	10.77576
0.835	7.15027
0.8355	1.61133
0.836	4.63257
0.8365	3.42407
0.837	3.02124
0.8375	3.02124
0.838	1.81274
0.8385	5.94177
0.839	9.76868
0.8395	6.3446
0.84	2.11487
0.8405	10.47363
0.841	6.3446
0.8415	2.92053
0.842	1.71204
0.8425	4.43115
0.843	4.93469
0.8435	0.50354
0.844	-0.60425
0.8445	9.06372
0.845	3.42407
0.8455	4.63257
0.846	6.54602
0.8465	-1.51062
0.847	2.71912
0.8475	4.12903
0.848	-0.80566
0.8485	5.63965
0.849	4.43115
0.8495	3.7262
0.85	-2.11487
0.8505	2.11487
0.851	5.33752
0.8515	-2.21558
0.852	2.92053
0.8525	3.22266
0.853	3.52478
0.8535	-0.30212
0.854	3.8269
0.8545	-1.2085
0.855	-4.43115
0.8555	-3.32336
0.856	0.90637
0.8565	1.61133
0.857	2.5177
0.8575	5.43823
0.858	0.30212
0.8585	5.53894
0.859	6.3446
0.8595	2.31628
0.86	4.33044
0.8605	0.50354
0.861	-1.40991
0.8615	1.10779
0.862	-0.10071
0.8625	-1.00708
0.863	4.12903
0.8635	-1.40991
0.864	6.14319
0.8645	2.61841
0.865	9.26514
0.8655	7.75452
0.866	5.0354
0.8665	5.63965
0.867	8.8623
0.8675	5.53894
0.868	3.62549
0.8685	7.15027
0.869	4.83398
0.8695	10.0708
0.87	5.74036
0.8705	3.7262
0.871	6.2439
0.8715	13.99841
0.872	9.26514
0.8725	8.7616
0.873	12.38708
0.8735	11.07788
0.874	5.53894
0.8745	6.64673
0.875	1.40991
0.8755	9.97009
0.876	5.53894
0.8765	9.36584
0.877	6.2439
0.8775	1.81274
0.878	-3.42407
0.8785	0.50354
0.879	1.61133
0.8795	4.02832
0.88	2.01416
0.8805	2.92053
0.881	-0.20142
0.8815	3.12195
0.882	1.81274
0.8825	2.11487
0.883	-1.51062
0.8835	6.2439
0.884	4.43115
0.8845	5.13611
0.885	4.83398
0.8855	8.15735
0.886	8.96301
0.8865	8.35876
0.887	-0.70496
0.8875	1.2085
0.888	0.50354
0.8885	4.12903
0.889	-1.3092
0.8895	1.71204
0.89	2.81982
0.8905	3.42407
0.891	7.65381
0.8915	2.61841
0.892	2.21558
0.8925	5.53894
0.893	4.83398
0.8935	8.05664
0.894	4.83398
0.8945	3.22266
0.895	3.7262
0.8955	9.56726
0.896	5.33752
0.8965	11.58142
0.897	6.2439
0.8975	8.8623
0.898	10.97717
0.8985	2.81982
0.899	4.33044
0.8995	3.8269
0.9	3.22266
0.9005	4.02832
0.901	6.64673
0.9015	2.41699
0.902	5.53894
0.9025	10.17151
0.903	3.42407
0.9035	5.43823
0.904	0.70496
0.9045	2.61841
0.905	10.0708
0.9055	9.76868
0.906	13.19275
0.9065	14.80408
0.907	8.8623
0.9075	6.54602
0.908	16.3147
0.9085	11.98425
0.909	6.2439
0.9095	7.5531
0.91	11.38
0.9105	5.43823
0.911	5.0354
0.9115	7.65381
0.912	7.95593
0.9125	6.2439
0.913	8.45947
0.9135	7.04956
0.914	9.36584
0.9145	5.43823
0.915	10.27222
0.9155	10.77576
0.916	8.05664
0.9165	5.23682
0.917	5.63965
0.9175	4.33044
0.918	6.84814
0.9185	12.08496
0.919	4.12903
0.9195	5.23682
0.92	8.66089
0.9205	5.43823
0.921	6.2439
0.9215	-1.51062
0.922	0.20142
0.9225	2.41699
0.923	5.84106
0.9235	6.64673
0.924	3.42407
0.9245	8.66089
0.925	3.32336
0.9255	6.3446
0.926	9.26514
0.9265	9.46655
0.927	5.33752
0.9275	7.04956
0.928	3.62549
0.9285	4.33044
0.929	10.77576
0.9295	5.84106
0.93	6.04248
0.9305	2.21558
0.931	7.85522
0.9315	3.52478
0.932	1.61133
0.9325	4.12903
0.933	0.10071
0.9335	-0.20142
0.934	5.23682
0.9345	7.35168
0.935	3.32336
0.9355	2.81982
0.936	5.74036
0.9365	1.91345
0.937	11.68213
0.9375	7.45239
0.938	4.63257
0.9385	1.2085
0.939	2.92053
0.9395	3.62549
0.94	5.43823
0.9405	7.15027
0.941	6.64673
0.9415	9.76868
0.942	9.06372
0.9425	8.25806
0.943	6.74744
0.9435	1.91345
0.944	5.74036
0.9445	5.94177
0.945	11.17859
0.9455	7.35168
0.946	3.62549
0.9465	6.14319
0.947	4.73328
0.9475	4.83398
0.948	-0.20142
0.9485	1.91345
0.949	3.7262
0.9495	6.14319
0.95	7.35168
0.9505	5.33752
0.951	8.96301
0.9515	3.52478
0.952	4.63257
0.9525	3.8269
0.953	4.43115
0.9535	7.85522
0.954	5.63965
0.9545	6.74744
0.955	8.66089
0.9555	3.12195
0.956	9.26514
0.9565	7.45239
0.957	9.26514
0.9575	4.53186
0.958	3.62549
0.9585	10.37292
0.959	5.94177
0.9595	4.93469
0.96	2.11487
0.9605	6.04248
0.961	9.36584
0.9615	9.06372
0.962	-2.71912
0.9625	-1.10779
0.963	0.70496
0.9635	1.40991
0.964	3.52478
0.9645	5.33752
0.965	7.15027
0.9655	8.56018
0.966	14.80408
0.9665	12.08496
0.967	14.50195
0.9675	10.77576
0.968	8.15735
0.9685	6.44531
0.969	6.14319
0.9695	7.95593
0.97	4.12903
0.9705	4.53186
0.971	6.94885
0.9715	7.65381
0.972	9.56726
0.9725	10.57434
0.973	5.13611
0.9735	7.65381
0.974	2.41699
0.9745	3.32336
0.975	0.10071
0.9755	-7.25098
0.976	-1.3092
0.9765	-3.32336
0.977	-11.2793
0.9775	-6.54602
0.978	-7.25098
0.9785	0.60425
0.979	13.49487
0.9795	39.17542
0.98	58.30994
0.9805	67.67578
0.981	69.79065
0.9815	54.78516
0.982	38.47046
0.9825	18.42957
0.983	8.25806
0.9835	-7.85522
0.984	-19.13452
0.9845	-18.12744
0.985	-23.8678
0.9855	-20.74585
0.986	-22.6593
0.9865	-21.95435
0.987	-15.71045
0.9875	-12.68921
0.988	-9.66797
0.9885	-4.43115
0.989	-0.80566
0.9895	-0.90637
0.99	1.2085
0.9905	4.93469
0.991	5.13611
0.9915	10.0708
0.992	-0.50354
0.9925	3.42407
0.993	0.70496
0.9935	-3.22266
0.994	0.70496
0.9945	2.5177
0.995	5.94177
0.9955	5.84106
0.996	3.42407
0.9965	4.22974
0.997	7.15027
0.9975	2.31628
0.998	2.61841
0.9985	5.13611
0.999	7.45239
0.9995	6.44531
1	-3.32336
1.0005	-1.00708
1.001	-4.53186
1.0015	-2.41699
1.002	-0.90637
1.0025	4.93469
1.003	8.05664
1.0035	5.94177
1.004	1.2085
1.0045	-0.70496
1.005	4.63257
1.0055	0.40283
1.006	1.81274
1.0065	7.5531
1.007	13.99841
1.0075	17.01965
1.008	35.44922
1.0085	55.59082
1.009	64.75525
1.0095	53.47595
1.01	45.62073
1.0105	33.73718
1.011	24.16992
1.0115	6.64673
1.012	1.51062
1.0125	7.04956
1.013	3.02124
1.0135	1.00708
1.014	4.43115
1.0145	3.32336
1.015	6.84814
1.0155	9.66797
1.016	14.50195
1.0165	16.41541
1.017	9.66797
1.0175	7.95593
1.018	5.43823
1.0185	5.43823
1.019	6.94885
1.0195	6.2439
1.02	7.65381
1.0205	8.35876
1.021	1.91345
1.0215	-4.22974
1.022	-4.43115
1.0225	2.11487
1.023	8.25806
1.0235	0.70496
1.024	-7.35168
1.0245	-6.2439
1.025	0.80566
1.0255	5.43823
1.026	0.90637
1.0265	-1.00708
1.027	-1.51062
1.0275	-3.12195
1.028	-5.23682
1.0285	-2.81982
1.029	-0.40283
1.0295	-8.25806
1.03	-2.61841
1.0305	-11.38
1.031	-12.28638
1.0315	-6.74744
1.032	-7.15027
1.0325	-6.3446
1.033	-4.43115
1.0335	5.33752
1.034	34.24072
1.0345	52.16675
1.035	61.83472
1.0355	58.20923
1.036	55.18799
1.0365	39.17542
1.037	32.32727
1.0375	12.48779
1.038	4.02832
1.0385	-10.47363
1.039	-20.04089
1.0395	-21.95435
1.04	-31.32019
1.0405	-31.62231
1.041	-30.71594
1.0415	-26.28479
1.042	-17.32178
1.0425	-8.15735
1.043	-6.54602
1.0435	-4.12903
1.044	5.43823
1.0445	26.3855
1.045	58.00781
1.0455	74.02039
1.046	81.06995
1.0465	88.52234
1.047	75.02747
1.0475	56.69861
1.048	48.84338
1.0485	38.36975
1.049	27.49329
1.0495	16.01257
1.05	-1.51062
1.0505	-11.17859
1.051	-14.90479
1.0515	-17.6239
1.052	-16.3147
1.0525	4.83398
1.053	48.74268
1.0535	71.80481
1.054	70.19348
1.0545	59.82056
1.055	37.66479
1.0555	16.81824
1.056	-8.15735
1.0565	-33.33435
1.057	-45.52002
1.0575	-59.41772
1.058	-63.34534
1.0585	-59.1156
1.059	-56.79932
1.0595	-48.74268
1.06	-38.57117
1.0605	-35.75134
1.061	-27.99683
1.0615	-16.51611
1.062	15.50903
1.0625	70.19348
1.063	100.30518
1.0635	106.54907
1.064	89.22729
1.0645	61.6333
1.065	24.97559
1.0655	-5.63965
1.066	-28.29895
1.0665	-49.85046
1.067	-65.56091
1.0675	-64.95667
1.068	-70.79773
1.0685	-57.00073
1.069	-28.80249
1.0695	-19.63806
1.07	-15.20691
1.0705	-19.83948
1.071	-18.42957
1.0715	-28.60107
1.072	-28.29895
1.0725	-17.12036
1.073	-14.60266
1.0735	2.21558
1.074	67.77649
1.0745	125.38147
1.075	147.03369
1.0755	147.43652
1.076	136.56006
1.0765	97.78748
1.077	62.03613
1.0775	11.38
1.078	-31.52161
1.0785	-69.38782
1.079	-100.80872
1.0795	-116.11633
1.08	-120.14465
1.0805	-111.08093
1.081	-101.31226
1.0815	-90.33508
1.082	-80.76782
1.0825	-72.81189
1.083	-62.53967
1.0835	-48.84338
1.084	-31.32019
1.0845	-26.3855
1.085	-24.27063
1.0855	-21.04797
1.086	-17.12036
1.0865	-12.78992
1.087	-20.64514
1.0875	-24.57275
1.088	-17.6239
1.0885	-15.30762
1.089	-13.89771
1.0895	-7.95593
1.09	2.61841
1.0905	1.00708
1.091	4.53186
1.0915	-0.10071
1.092	-5.13611
1.0925	-3.12195
1.093	-2.31628
1.0935	-6.3446
1.094	-3.8269
1.0945	-1.10779
1.095	-2.31628
1.0955	5.84106
1.096	3.52478
1.0965	8.25806
1.097	11.17859
1.0975	13.39417
1.098	12.78992
1.0985	14.19983
1.099	15.50903
1.0995	16.3147
1.1	12.48779
1.1005	16.51611
1.101	17.92603
1.1015	19.23523
1.102	16.01257
1.1025	21.14868
1.103	16.01257
1.1035	18.22815
1.104	18.63098
1.1045	19.53735
1.105	22.76001
1.1055	24.97559
1.106	32.42798
1.1065	31.52161
1.107	11.78284
1.1075	4.93469
1.108	-4.33044
1.1085	-11.78284
1.109	-10.97717
1.1095	-9.86938
1.11	-14.60266
1.1105	-6.04248
1.111	-7.95593
1.1115	-4.63257
1.112	-2.31628
1.1125	3.12195
1.113	2.71912
1.1135	7.65381
1.114	5.23682
1.1145	16.01257
1.115	30.2124
1.1155	31.01807
1.116	31.4209
1.1165	30.01099
1.117	32.42798
1.1175	28.19824
1.118	27.29187
1.1185	17.52319
1.119	11.78284
1.1195	10.67505
1.12	3.7262
1.1205	0.80566
1.121	-0.80566
1.1215	5.23682
1.122	4.02832
1.1225	0.80566
1.123	4.12903
1.1235	3.02124
1.124	6.54602
1.1245	6.64673
1.125	12.08496
1.1255	15.71045
1.126	15.1062
1.1265	5.23682
1.127	1.3092
1.1275	-3.22266
1.128	-5.33752
1.1285	-8.15735
1.129	-3.42407
1.1295	-6.14319
1.13	-3.62549
1.1305	3.62549
1.131	10.47363
1.1315	10.87646
1.132	15.00549
1.1325	28.50037
1.133	72.81189
1.1335	142.099
1.134	209.87549
1.1345	239.68506
1.135	229.81567
1.1355	193.6615
1.136	141.09192
1.1365	84.69543
1.137	36.15417
1.1375	-6.2439
1.138	-45.3186
1.1385	-73.11401
1.139	-81.06995
1.1395	-83.38623
1.14	-78.35083
1.1405	-72.10693
1.141	-65.15808
1.1415	-62.8418
1.142	-69.28711
1.1425	-72.20764
1.143	-71.90552
1.1435	-69.68994
1.144	-74.32251
1.1445	-71.30127
1.145	-76.53809
1.1455	-83.38623
1.146	-67.17224
1.1465	-58.10852
1.147	-55.59082
1.1475	-54.88586
1.148	-51.05896
1.1485	-46.12427
1.149	-41.08887
1.1495	-27.29187
1.15	-17.92603
1.1505	-17.6239
1.151	-14.40125
1.1515	-15.71045
1.152	-15.00549
1.1525	-3.02124
1.153	-7.65381
1.1535	-0.70496
1.154	0.40283
1.1545	2.71912
1.155	29.40674
1.1555	91.24146
1.156	124.37439
1.1565	136.66077
1.157	124.57581
1.1575	91.94641
1.158	61.12976
1.1585	30.01099
1.159	5.0354
1.1595	-24.47205
1.16	-44.51294
1.1605	-56.49719
1.161	-56.49719
1.1615	-53.37524
1.162	-48.84338
1.1625	-27.79541
1.163	-17.22107
1.1635	-17.12036
1.164	-15.1062
1.1645	-21.3501
1.165	-19.63806
1.1655	-17.72461
1.166	-20.54443
1.1665	-16.91895
1.167	-22.35718
1.1675	-19.43665
1.168	-16.51611
1.1685	-15.40833
1.169	-18.93311
1.1695	-18.12744
1.17	-21.3501
1.1705	-27.89612
1.171	-26.98975
1.1715	-21.95435
1.172	-22.15576
1.1725	-16.11328
1.173	-19.03381
1.1735	-16.51611
1.174	-17.01965
1.1745	-16.3147
1.175	-10.27222
1.1755	-6.94885
1.176	-7.95593
1.1765	1.91345
1.177	3.62549
1.1775	8.8623
1.178	6.44531
1.1785	5.63965
1.179	12.99133
1.1795	11.68213
1.18	11.78284
1.1805	15.81116
1.181	16.91895
1.1815	17.6239
1.182	19.53735
1.1825	22.55859
1.183	24.77417
1.1835	23.46497
1.184	20.24231
1.1845	23.06213
1.185	26.08337
1.1855	28.09753
1.186	24.97559
1.1865	21.24939
1.187	19.73877
1.1875	23.26355
1.188	23.06213
1.1885	26.18408
1.189	29.00391
1.1895	17.12036
1.19	21.65222
1.1905	18.42957
1.191	19.83948
1.1915	19.23523
1.192	22.55859
1.1925	17.52319
1.193	19.63806
1.1935	8.7616
1.194	19.63806
1.1945	19.43665
1.195	20.64514
1.1955	17.01965
1.196	18.12744
1.1965	21.14868
1.197	13.59558
1.1975	18.73169
1.198	17.22107
1.1985	17.92603
1.199	17.72461
1.1995	16.11328
1.2	16.21399
1.2005	9.46655
1.201	10.47363
1.2015	6.2439
1.202	6.84814
1.2025	4.83398
1.203	6.54602
1.2035	12.48779
1.204	14.30054
1.2045	30.01099
1.205	34.54285
1.2055	31.62231
1.206	34.03931
1.2065	45.72144
1.207	49.54834
1.2075	41.08887
1.208	32.12585
1.2085	24.16992
1.209	14.80408
1.2095	0.50354
1.21	-3.12195
1.2105	30.11169
1.211	71.20056
1.2115	77.04163
1.212	74.42322
1.2125	65.66162
1.213	48.94409
1.2135	25.88196
1.214	3.8269
1.2145	-13.99841
1.215	-32.12585
1.2155	-44.41223
1.216	-49.95117
1.2165	-59.82056
1.217	-58.51135
1.2175	-54.88586
1.218	-46.72852
1.2185	-41.79382
1.219	-34.74426
1.2195	-40.88745
1.22	-34.24072
1.2205	-23.76709
1.221	-18.32886
1.2215	-16.01257
1.222	-14.60266
1.2225	-7.35168
1.223	-6.84814
1.2235	-5.33752
1.224	20.94727
1.2245	63.54675
1.225	108.66394
1.2255	138.97705
1.226	132.0282
1.2265	103.32642
1.227	69.28711
1.2275	29.80957
1.228	-8.25806
1.2285	-50.354
1.229	-68.68286
1.2295	-86.30676
1.23	-83.58765
1.2305	-67.8772
1.231	-49.44763
1.2315	25.47913
1.232	79.86145
1.2325	99.49951
1.233	95.37048
1.2335	79.15649
1.234	106.54907
1.2345	137.46643
1.235	132.43103
1.2355	93.85986
1.236	39.88037
1.2365	-5.84106
1.237	-41.08887
1.2375	-68.48145
1.238	-94.66553
1.2385	-107.45544
1.239	-114.00146
1.2395	-112.08801
1.24	-112.59155
1.2405	-101.9165
1.241	-93.45703
1.2415	-74.42322
1.242	-60.22339
1.2425	-61.12976
1.243	-53.27454
1.2435	-59.01489
1.244	-71.7041
1.2445	-73.21472
1.245	-41.18958
1.2455	0.90637
1.246	27.29187
1.2465	33.73718
1.247	27.09045
1.2475	13.09204
1.248	2.61841
1.2485	-10.67505
1.249	-30.2124
1.2495	-44.11011
1.25	-50.354
1.2505	-45.01648
1.251	-32.52869
1.2515	-26.88904
1.252	-12.99133
1.2525	-7.65381
1.253	3.62549
1.2535	6.54602
1.254	6.2439
1.2545	6.3446
1.255	18.63098
1.2555	16.71753
1.256	10.57434
1.2565	7.95593
1.257	3.22266
1.2575	-5.94177
1.258	-1.00708
1.2585	-4.53186
1.259	-4.02832
1.2595	-6.3446
1.26	-7.75452
1.2605	0
1.261	7.75452
1.2615	7.75452
1.262	16.81824
1.2625	16.11328
1.263	18.12744
1.2635	23.56567
1.264	18.53027
1.2645	18.12744
1.265	15.00549
1.2655	14.70337
1.266	22.45789
1.2665	17.32178
1.267	15.91187
1.2675	17.82532
1.268	13.69629
1.2685	10.47363
1.269	7.04956
1.2695	-7.04956
1.27	-18.02673
1.2705	-17.22107
1.271	-23.76709
1.2715	-23.16284
1.272	-31.11877
1.2725	-41.79382
1.273	-40.48462
1.2735	-33.63647
1.274	-31.01807
1.2745	-18.8324
1.275	-14.30054
1.2755	-6.84814
1.276	-2.61841
1.2765	-2.81982
1.277	-10.27222
1.2775	3.92761
1.278	7.45239
1.2785	2.61841
1.279	4.22974
1.2795	2.11487
1.28	1.71204
1.2805	0.30212
1.281	-1.71204
1.2815	-1.10779
1.282	-0.20142
1.2825	0.50354
1.283	1.81274
1.2835	3.12195
1.284	6.14319
1.2845	3.92761
1.285	2.71912
1.2855	7.25098
1.286	9.76868
1.2865	8.15735
1.287	5.0354
1.2875	2.61841
1.288	8.05664
1.2885	9.16443
1.289	7.35168
1.2895	6.04248
1.29	26.28479
1.2905	23.26355
1.291	19.23523
1.2915	16.21399
1.292	20.04089
1.2925	18.02673
1.293	11.68213
1.2935	22.86072
1.294	25.37842
1.2945	19.23523
1.295	16.3147
1.2955	13.19275
1.296	5.33752
1.2965	-4.02832
1.297	18.8324
1.2975	59.31702
1.298	78.95508
1.2985	85.60181
1.299	79.2572
1.2995	68.88428
1.3	63.34534
1.3005	121.85669
1.301	181.37512
1.3015	190.13672
1.302	169.29016
1.3025	139.48059
1.303	102.82288
1.3035	56.09436
1.304	1.71204
1.3045	-44.51294
1.305	-75.83313
1.3055	-102.21863
1.306	-121.45386
1.3065	-135.04944
1.307	-151.66626
1.3075	-136.66077
1.308	-110.6781
1.3085	-77.74658
1.309	-20.84656
1.3095	15.50903
1.31	43.00232
1.3105	33.03223
1.311	25.177
1.3115	18.12744
1.312	4.53186
1.3125	-14.19983
1.313	-31.72302
1.3135	-47.23206
1.314	-62.23755
1.3145	-70.89844
1.315	-66.76941
1.3155	-64.75525
1.316	-56.09436
1.3165	-47.7356
1.317	-37.06055
1.3175	-30.01099
1.318	-32.93152
1.3185	-26.58691
1.319	-19.03381
1.3195	-24.77417
1.32	-18.63098
1.3205	-10.97717
1.321	-8.8623
1.3215	-12.48779
1.322	-9.76868
1.3225	-14.09912
1.323	-22.76001
1.3235	-16.21399
1.324	-14.90479
1.3245	-4.22974
1.325	-0.20142
1.3255	-9.56726
1.326	-13.797
1.3265	-10.0708
1.327	-9.16443
1.3275	2.5177
1.328	3.8269
1.3285	8.45947
1.329	7.5531
1.3295	15.00549
1.33	57.9071
1.3305	102.42004
1.331	127.39563
1.3315	135.15015
1.332	140.08484
1.3325	131.52466
1.333	112.08801
1.3335	94.3634
1.334	69.79065
1.3345	43.20374
1.335	11.2793
1.3355	-13.19275
1.336	-41.39099
1.3365	-49.74976
1.337	-58.41064
1.3375	-20.94727
1.338	9.76868
1.3385	19.23523
1.339	18.32886
1.3395	0.10071
1.34	-26.48621
1.3405	-44.71436
1.341	-66.26587
1.3415	-83.08411
1.342	-88.72375
1.3425	-84.19189
1.343	-80.16357
1.3435	-74.82605
1.344	-69.58923
1.3445	-68.78357
1.345	-57.00073
1.3455	-47.7356
1.346	-45.3186
1.3465	-34.64355
1.347	-31.72302
1.3475	-23.76709
1.348	-21.65222
1.3485	-19.43665
1.349	-14.70337
1.3495	-10.77576
1.35	-12.5885
1.3505	-6.04248
1.351	-7.25098
1.3515	-3.7262
1.352	0
1.3525	4.02832
1.353	3.42407
1.3535	9.86938
1.354	2.71912
1.3545	6.14319
1.355	0.80566
1.3555	2.81982
1.356	-4.22974
1.3565	-3.8269
1.357	2.61841
1.3575	11.17859
1.358	10.87646
1.3585	10.97717
1.359	18.42957
1.3595	17.52319
1.36	15.50903
1.3605	17.6239
1.361	12.38708
1.3615	10.47363
1.362	8.35876
1.3625	17.12036
1.363	13.49487
1.3635	13.69629
1.364	21.65222
1.3645	17.22107
1.365	14.50195
1.3655	14.70337
1.366	19.03381
1.3665	13.797
1.367	9.46655
1.3675	8.25806
1.368	8.7616
1.3685	6.3446
1.369	13.89771
1.3695	12.89062
1.37	14.80408
1.3705	14.80408
1.371	14.80408
1.3715	14.80408
1.372	14.80408
1.3725	14.80408
1.373	14.80408
1.3735	14.80408
1.374	14.80408
1.3745	14.80408
1.375	14.80408
1.3755	14.80408
1.376	14.80408
1.3765	14.80408
1.377	14.80408
1.3775	14.80408
1.378	14.80408
1.3785	14.80408
1.379	14.80408
1.3795	14.80408
1.38	14.80408
1.3805	2.5177
1.381	9.46655
1.3815	19.53735
1.382	12.99133
1.3825	10.0708
1.383	3.7262
1.3835	7.85522
1.384	7.75452
1.3845	8.35876
1.385	0.40283
1.3855	-8.05664
1.386	-8.25806
1.3865	-12.38708
1.387	-6.84814
1.3875	20.44373
1.388	56.79932
1.3885	71.09985
1.389	84.89685
1.3895	77.14233
1.39	70.99915
1.3905	67.37366
1.391	53.47595
1.3915	41.08887
1.392	26.18408
1.3925	2.5177
1.393	-16.3147
1.3935	-29.20532
1.394	-16.21399
1.3945	11.88354
1.395	24.77417
1.3955	40.2832
1.396	41.79382
1.3965	29.00391
1.397	-2.11487
1.3975	-28.80249
1.398	-50.15259
1.3985	-59.61914
1.399	-72.9126
1.3995	-71.60339
1.4	-69.08569
1.4005	-71.7041
1.401	-70.49561
1.4015	-60.92834
1.402	-53.77808
1.4025	-46.12427
1.403	-37.56409
1.4035	-32.83081
1.404	-27.99683
1.4045	-20.84656
1.405	-20.64514
1.4055	-18.02673
1.406	-14.90479
1.4065	-6.84814
1.407	-0.70496
1.4075	3.12195
1.408	2.92053
1.4085	3.12195
1.409	2.71912
1.4095	9.86938
1.41	8.8623
1.4105	15.91187
1.411	9.46655
1.4115	14.50195
1.412	15.00549
1.4125	7.15027
1.413	17.12036
1.4135	11.78284
1.414	13.39417
1.4145	9.26514
1.415	9.97009
1.4155	19.94019
1.416	13.99841
1.4165	14.60266
1.417	10.0708
1.4175	10.27222
1.418	12.28638
1.4185	19.03381
1.419	21.85364
1.4195	19.03381
1.42	26.78833
1.4205	31.21948
1.421	32.83081
1.4215	49.54834
1.422	110.87952
1.4225	164.25476
1.423	185.00061
1.4235	218.93921
1.424	251.16577
1.4245	298.49854
1.425	300.71411
1.4255	288.52844
1.426	253.9856
1.4265	198.6969
1.427	129.81262
1.4275	63.94958
1.428	-0.30212
1.4285	-59.01489
1.429	-109.97314
1.4295	-155.69458
1.43	-161.13281
1.4305	-133.74023
1.431	-107.65686
1.4315	-92.34924
1.432	-98.29102
1.4325	-107.95898
1.433	-117.92908
1.4335	-123.77014
1.434	-120.44678
1.4345	-121.75598
1.435	-124.27368
1.4355	-138.17139
1.436	-129.20837
1.4365	-116.922
1.437	-103.93066
1.4375	-92.14783
1.438	-73.61755
1.4385	-56.19507
1.439	-38.06763
1.4395	-32.22656
1.44	-28.19824
1.4405	-19.63806
1.441	-18.32886
1.4415	-21.3501
1.442	6.04248
1.4425	40.78674
1.443	60.3241
1.4435	63.94958
1.444	55.69153
1.4445	27.49329
1.445	15.50903
1.4455	1.61133
1.446	-16.11328
1.4465	-44.71436
1.447	-60.22339
1.4475	-71.40198
1.448	-64.95667
1.4485	-52.16675
1.449	-34.94568
1.4495	-30.2124
1.45	-22.35718
1.4505	-16.11328
1.451	-10.57434
1.4515	-11.88354
1.452	-8.66089
1.4525	-21.45081
1.453	-26.68762
1.4535	-21.85364
1.454	-20.34302
1.4545	-12.99133
1.455	7.45239
1.4555	25.07629
1.456	43.20374
1.4565	57.10144
1.457	58.71277
1.4575	57.70569
1.458	67.8772
1.4585	82.27844
1.459	108.86536
1.4595	119.64111
1.46	125.38147
1.4605	120.54749
1.461	110.6781
1.4615	98.69385
1.462	86.70959
1.4625	59.92126
1.463	33.43506
1.4635	7.85522
1.464	-15.50903
1.4645	-32.83081
1.465	-55.18799
1.4655	-66.56799
1.466	-72.00623
1.4665	-77.24304
1.467	-84.19189
1.4675	-83.99048
1.468	-77.04163
1.4685	-66.87012
1.469	-57.00073
1.4695	-34.64355
1.47	-18.8324
1.4705	-9.46655
1.471	-1.61133
1.4715	0
1.472	0.20142
1.4725	1.00708
1.473	2.5177
1.4735	4.43115
1.474	4.53186
1.4745	-1.3092
1.475	-1.81274
1.4755	-3.8269
1.476	9.86938
1.4765	13.39417
1.477	13.69629
1.4775	26.18408
1.478	48.23914
1.4785	52.56958
1.479	68.98499
1.4795	80.66711
1.48	74.32251
1.4805	72.50977
1.481	65.25879
1.4815	53.87878
1.482	37.06055
1.4825	19.83948
1.483	16.01257
1.4835	9.56726
1.484	7.65381
1.4845	1.81274
1.485	5.94177
1.4855	10.87646
1.486	22.6593
1.4865	32.12585
1.487	30.01099
1.4875	33.13293
1.488	15.1062
1.4885	-9.26514
1.489	-33.9386
1.4895	-43.60657
1.49	-46.42639
1.4905	-60.12268
1.491	-77.24304
1.4915	-78.04871
1.492	-69.48853
1.4925	-81.97632
1.493	-83.58765
1.4935	-92.75208
1.494	-94.46411
1.4945	-88.42163
1.495	-82.47986
1.4955	-69.48853
1.496	-63.74817
1.4965	-55.49011
1.497	-47.63489
1.4975	-41.99524
1.498	-25.47913
1.4985	-19.63806
1.499	-19.03381
1.4995	-13.797
1.5	-10.67505
1.5005	-2.71912
1.501	-2.11487
1.5015	3.92761
1.502	4.12903
1.5025	12.28638
1.503	11.17859
1.5035	15.60974
1.504	12.89062
1.5045	16.21399
1.505	16.51611
1.5055	23.36426
1.506	20.1416
1.5065	21.24939
1.507	24.06921
1.5075	22.35718
1.508	24.77417
1.5085	26.58691
1.509	29.00391
1.5095	26.18408
1.51	28.29895
1.5105	35.54993
1.511	60.92834
1.5115	69.1864
1.512	75.4303
1.5125	64.75525
1.513	55.3894
1.5135	42.19666
1.514	26.98975
1.5145	13.69629
1.515	5.74036
1.5155	-1.61133
1.516	-6.64673
1.5165	-18.73169
1.517	-18.12744
1.5175	10.57434
1.518	44.81506
1.5185	63.04321
1.519	82.78198
1.5195	83.78906
1.52	78.25012
1.5205	69.89136
1.521	62.43896
1.5215	38.87329
1.522	18.32886
1.5225	-11.38
1.523	-34.24072
1.5235	-50.354
1.524	-50.55542
1.5245	-55.89294
1.525	-45.2179
1.5255	-39.77966
1.526	-35.44922
1.5265	-27.59399
1.527	-27.49329
1.5275	-16.51611
1.528	-10.0708
1.5285	-1.3092
1.529	1.40991
1.5295	7.75452
1.53	5.33752
1.5305	6.94885
1.531	8.56018
1.5315	9.46655
1.532	9.97009
1.5325	14.70337
1.533	12.08496
1.5335	18.12744
1.534	12.48779
1.5345	10.47363
1.535	4.43115
1.5355	2.61841
1.536	0.20142
1.5365	-0.90637
1.537	9.97009
1.5375	5.13611
1.538	11.58142
1.5385	14.19983
1.539	23.96851
1.5395	34.14001
1.54	31.72302
1.5405	68.58215
1.541	116.11633
1.5415	132.43103
1.542	132.43103
1.5425	115.91492
1.543	91.14075
1.5435	62.13684
1.544	40.78674
1.5445	14.60266
1.545	-6.64673
1.5455	-1.2085
1.546	38.16833
1.5465	93.25562
1.547	135.8551
1.5475	144.11316
1.548	140.18555
1.5485	141.69617
1.549	120.24536
1.5495	86.30676
1.55	39.88037
1.5505	-8.8623
1.551	-53.47595
1.5515	-57.8064
1.552	-27.29187
1.5525	10.27222
1.553	30.61523
1.5535	45.11719
1.554	67.97791
1.5545	87.91809
1.555	111.78589
1.5555	113.1958
1.556	86.50818
1.5565	44.0094
1.557	8.8623
1.5575	-18.93311
1.558	-48.54126
1.5585	-66.06445
1.559	-94.2627
1.5595	-112.99438
1.56	-109.67102
1.5605	-65.66162
1.561	-28.80249
1.5615	-4.22974
1.562	14.60266
1.5625	15.71045
1.563	6.94885
1.5635	2.81982
1.564	-25.57983
1.5645	-52.46887
1.565	-71.7041
1.5655	-99.80164
1.566	-119.64111
1.5665	-145.62378
1.567	-156.80237
1.5675	-156.50024
1.568	-150.9613
1.5685	-131.62537
1.569	-112.69226
1.5695	-89.63013
1.57	-72.00623
1.5705	-79.76074
1.571	-79.45862
1.5715	-73.11401
1.572	-52.36816
1.5725	-16.01257
1.573	33.63647
1.5735	54.78516
1.574	66.46729
1.5745	80.76782
1.575	119.64111
1.5755	132.12891
1.576	134.5459
1.5765	140.78979
1.577	136.76147
1.5775	151.36414
1.578	144.6167
1.5785	117.32483
1.579	84.19189
1.5795	30.61523
1.58	-13.19275
1.5805	-44.81506
1.581	-59.61914
1.5815	-58.10852
1.582	-54.48303
1.5825	-57.70569
1.583	-52.16675
1.5835	-72.10693
1.584	-89.42871
1.5845	-95.5719
1.585	-89.83154
1.5855	-91.34216
1.586	-83.78906
1.5865	-75.93384
1.587	-55.2887
1.5875	-20.24231
1.588	20.34302
1.5885	42.7002
1.589	48.64197
1.5895	53.27454
1.59	52.06604
1.5905	35.65063
1.591	24.16992
1.5915	12.48779
1.592	-7.5531
1.5925	-14.80408
1.593	-34.24072
1.5935	-42.09595
1.594	-41.99524
1.5945	-42.8009
1.595	-34.03931
1.5955	-27.19116
1.596	-33.33435
1.5965	-30.91736
1.597	-15.20691
1.5975	-4.73328
1.598	13.19275
1.5985	18.8324
1.599	18.8324
1.5995	9.66797
1.6	9.26514
1.6005	11.68213
1.601	11.88354
1.6015	14.19983
1.602	17.82532
1.6025	16.51611
1.603	18.73169
1.6035	18.93311
1.604	18.93311
1.6045	24.16992
1.605	25.57983
1.6055	26.68762
1.606	26.68762
1.6065	28.09753
1.607	27.19116
1.6075	29.00391
1.608	25.98267
1.6085	23.96851
1.609	26.98975
1.6095	32.22656
1.61	34.03931
1.6105	42.19666
1.611	39.37683
1.6115	42.19666
1.612	42.09595
1.6125	37.7655
1.613	36.95984
1.6135	30.51453
1.614	29.80957
1.6145	25.78125
1.615	29.40674
1.6155	22.86072
1.616	22.45789
1.6165	21.04797
1.617	17.32178
1.6175	24.16992
1.618	31.11877
1.6185	36.95984
1.619	43.60657
1.6195	59.21631
1.62	62.8418
1.6205	61.33118
1.621	58.51135
1.6215	56.90002
1.622	54.18091
1.6225	56.09436
1.623	47.13135
1.6235	37.06055
1.624	25.57983
1.6245	21.04797
1.625	9.97009
1.6255	4.93469
1.626	8.25806
1.6265	52.56958
1.627	93.85986
1.6275	140.78979
1.628	154.08325
1.6285	151.56555
1.629	117.22412
1.6295	74.72534
1.63	35.2478
1.6305	2.41699
1.631	-32.22656
1.6315	-67.27295
1.632	-102.62146
1.6325	-129.10767
1.633	-126.38855
1.6335	-93.85986
1.634	-49.54834
1.6345	-9.16443
1.635	11.58142
1.6355	21.55151
1.636	23.26355
1.6365	32.93152
1.637	28.60107
1.6375	8.25806
1.638	-27.09045
1.6385	-44.61365
1.639	-56.39648
1.6395	-49.74976
1.64	-50.55542
1.6405	-49.95117
1.641	-37.56409
1.6415	-39.07471
1.642	-38.26904
1.6425	-38.36975
1.643	-45.72144
1.6435	-45.11719
1.644	-45.3186
1.6445	-37.16125
1.645	-32.22656
1.6455	-23.36426
1.646	-27.29187
1.6465	-22.55859
1.647	-21.85364
1.6475	-22.6593
1.648	-12.99133
1.6485	-11.48071
1.649	0.10071
1.6495	13.49487
1.65	52.771
1.6505	92.14783
1.651	109.4696
1.6515	116.41846
1.652	108.66394
1.6525	103.42712
1.653	96.7804
1.6535	66.56799
1.654	33.9386
1.6545	8.15735
1.655	-27.59399
1.6555	-52.67029
1.656	-75.83313
1.6565	-87.21313
1.657	-88.22021
1.6575	-78.45154
1.658	-53.67737
1.6585	-24.47205
1.659	-6.94885
1.6595	16.91895
1.66	30.2124
1.6605	33.9386
1.661	54.68445
1.6615	77.74658
1.662	121.55457
1.6625	172.91565
1.663	219.84558
1.6635	261.03516
1.664	279.46472
1.6645	281.07605
1.665	256.20117
1.6655	216.01868
1.666	152.97546
1.6665	96.17615
1.667	36.05347
1.6675	8.15735
1.668	-18.8324
1.6685	-38.47046
1.669	-54.88586
1.6695	-73.31543
1.67	-86.60889
1.6705	-76.94092
1.671	-75.83313
1.6715	-32.42798
1.672	3.22266
1.6725	13.797
1.673	-0.70496
1.6735	-28.19824
1.674	-59.31702
1.6745	-67.67578
1.675	-81.7749
1.6755	-74.72534
1.676	-21.45081
1.6765	30.31311
1.677	33.9386
1.6775	30.61523
1.678	27.49329
1.6785	35.85205
1.679	39.17542
1.6795	19.73877
1.68	-14.90479
1.6805	-73.61755
1.681	-127.49634
1.6815	-157.2052
1.682	-171.80786
1.6825	-162.64343
1.683	-151.96838
1.6835	-140.8905
1.684	-123.16589
1.6845	-101.8158
1.685	-81.57349
1.6855	-70.49561
1.686	-63.54675
1.6865	-57.9071
1.687	-47.03064
1.6875	-40.2832
1.688	-42.09595
1.6885	-44.0094
1.689	-31.72302
1.6895	-29.80957
1.69	-25.78125
1.6905	-26.08337
1.691	-22.15576
1.6915	-26.48621
1.692	-21.65222
1.6925	-16.41541
1.693	-12.89062
1.6935	-0.40283
1.694	13.59558
1.6945	14.30054
1.695	12.5885
1.6955	18.02673
1.696	27.89612
1.6965	26.3855
1.697	28.39966
1.6975	25.57983
1.698	39.07471
1.6985	46.02356
1.699	54.58374
1.6995	60.02197
1.7	57.10144
1.7005	51.66321
1.701	44.21082
1.7015	42.8009
1.702	38.36975
1.7025	28.19824
1.703	26.18408
1.7035	15.50903
1.704	16.01257
1.7045	15.20691
1.705	12.28638
1.7055	4.22974
1.706	0.50354
1.7065	15.20691
1.707	14.09912
1.7075	23.66638
1.708	19.43665
1.7085	24.27063
1.709	20.84656
1.7095	24.06921
1.71	24.47205
1.7105	23.96851
1.711	28.39966
1.7115	27.99683
1.712	31.92444
1.7125	42.8009
1.713	45.92285
1.7135	80.76782
1.714	103.62854
1.7145	124.27368
1.715	154.78821
1.7155	180.56946
1.716	202.22168
1.7165	249.45374
1.717	281.07605
1.7175	273.42224
1.718	230.62134
1.7185	169.49158
1.719	87.61597
1.7195	12.28638
1.72	-54.78516
1.7205	-108.46252
1.721	-146.12732
1.7215	-167.47742
1.722	-169.89441
1.7225	-151.76697
1.723	-123.36731
1.7235	-108.26111
1.724	-96.17615
1.7245	-81.27136
1.725	-49.74976
1.7255	-14.90479
1.726	14.90479
1.7265	33.13293
1.727	40.68604
1.7275	23.76709
1.728	3.92761
1.7285	-13.09204
1.729	-33.43506
1.7295	-58.10852
1.73	-74.02039
1.7305	-92.85278
1.731	-110.87952
1.7315	-109.3689
1.732	-96.17615
1.7325	-80.06287
1.733	-65.15808
1.7335	-44.11011
1.734	-11.38
1.7345	20.64514
1.735	59.71985
1.7355	121.35315
1.736	153.479
1.7365	173.92273
1.737	167.07458
1.7375	152.1698
1.738	121.25244
1.7385	81.37207
1.739	31.92444
1.7395	-11.07788
1.74	-51.5625
1.7405	-91.8457
1.741	-113.39722
1.7415	-123.87085
1.742	-114.30359
1.7425	-108.36182
1.743	-85.29968
1.7435	-72.50977
1.744	-55.18799
1.7445	-42.90161
1.745	-23.26355
1.7455	-14.70337
1.746	-1.61133
1.7465	11.17859
1.747	16.81824
1.7475	25.37842
1.748	24.16992
1.7485	19.23523
1.749	14.09912
1.7495	19.23523
1.75	12.38708
1.7505	22.35718
1.751	30.2124
1.7515	29.40674
1.752	17.6239
1.7525	6.04248
1.753	-0.90637
1.7535	1.91345
1.754	-3.52478
1.7545	-7.45239
1.755	-9.46655
1.7555	-11.17859
1.756	-10.57434
1.7565	-10.37292
1.757	-19.23523
1.7575	-14.40125
1.758	-13.49487
1.7585	-8.05664
1.759	-8.45947
1.7595	-6.04248
1.76	1.61133
1.7605	3.22266
1.761	9.56726
1.7615	15.91187
1.762	15.91187
1.7625	15.60974
1.763	24.77417
1.7635	16.01257
1.764	16.3147
1.7645	20.74585
1.765	29.30603
1.7655	39.17542
1.766	45.92285
1.7665	51.26038
1.767	57.50427
1.7675	56.79932
1.768	60.92834
1.7685	46.22498
1.769	40.58533
1.7695	36.15417
1.77	26.08337
1.7705	32.62939
1.771	55.3894
1.7715	70.49561
1.772	71.20056
1.7725	61.02905
1.773	51.15967
1.7735	41.39099
1.774	29.00391
1.7745	28.09753
1.775	27.79541
1.7755	27.79541
1.776	30.01099
1.7765	50.354
1.777	53.67737
1.7775	56.09436
1.778	56.39648
1.7785	57.40356
1.779	53.57666
1.7795	45.92285
1.78	43.60657
1.7805	57.10144
1.781	54.68445
1.7815	42.8009
1.782	31.62231
1.7825	-4.12903
1.783	-29.10461
1.7835	-35.54993
1.784	-45.62073
1.7845	-61.33118
1.785	-70.29419
1.7855	-43.90869
1.786	0
1.7865	44.91577
1.787	84.09119
1.7875	110.47668
1.788	122.66235
1.7885	195.57495
1.789	247.54028
1.7895	303.1311
1.79	319.64722
1.7905	304.13818
1.791	318.84155
1.7915	340.89661
1.792	318.53943
1.7925	274.83215
1.793	196.48132
1.7935	102.52075
1.794	-2.31628
1.7945	-105.54199
1.795	-198.99902
1.7955	-264.45923
1.796	-304.54102
1.7965	-334.14917
1.797	-368.28918
1.7975	-390.64636
1.798	-397.09167
1.7985	-370.50476
1.799	-324.27979
1.7995	-291.85181
1.8	-245.72754
1.8005	-208.66699
1.801	-170.29724
1.8015	-135.55298
1.802	-109.97314
1.8025	-92.65137
1.803	-81.27136
1.8035	-58.20923
1.804	-46.02356
1.8045	-29.80957
1.805	-19.83948
1.8055	-12.08496
1.806	1.2085
1.8065	10.97717
1.807	12.99133
1.8075	22.6593
1.808	23.46497
1.8085	15.91187
1.809	21.65222
1.8095	25.68054
1.81	28.19824
1.8105	28.39966
1.811	33.73718
1.8115	29.50745
1.812	24.16992
1.8125	26.68762
1.813	26.3855
1.8135	32.02515
1.814	23.56567
1.8145	8.7616
1.815	10.0708
1.8155	17.82532
1.816	23.76709
1.8165	27.49329
1.817	25.27771
1.8175	25.78125
1.818	31.82373
1.8185	32.32727
1.819	30.91736
1.8195	35.14709
1.82	35.04639
1.8205	39.07471
1.821	36.55701
1.8215	35.04639
1.822	43.30444
1.8225	40.08179
1.823	41.4917
1.8235	42.8009
1.824	42.7002
1.8245	43.10303
1.825	38.974
1.8255	24.37134
1.826	21.85364
1.8265	21.95435
1.827	30.41382
1.8275	27.99683
1.828	26.68762
1.8285	48.74268
1.829	91.745
1.8295	156.09741
1.83	207.96204
1.8305	226.99585
1.831	222.16187
1.8315	198.19336
1.832	150.8606
1.8325	100.10376
1.833	46.32568
1.8335	-11.07788
1.834	-55.3894
1.8345	-93.15491
1.835	-107.15332
1.8355	-114.80713
1.836	-109.97314
1.8365	-91.44287
1.837	-80.26428
1.8375	-72.30835
1.838	-65.46021
1.8385	-42.09595
1.839	-27.59399
1.8395	-22.05505
1.84	-21.14868
1.8405	-17.01965
1.841	-18.02673
1.8415	-12.38708
1.842	-12.89062
1.8425	-21.55151
1.843	-22.45789
1.8435	-17.82532
1.844	-11.2793
1.8445	-10.97717
1.845	-13.09204
1.8455	-7.65381
1.846	13.99841
1.8465	24.47205
1.847	31.62231
1.8475	38.974
1.848	36.4563
1.8485	50.2533
1.849	53.17383
1.8495	49.64905
1.85	60.92834
1.8505	79.2572
1.851	88.82446
1.8515	96.57898
1.852	99.70093
1.8525	88.82446
1.853	81.06995
1.8535	61.43188
1.854	46.62781
1.8545	27.09045
1.855	10.97717
1.8555	-7.5531
1.856	-11.88354
1.8565	-15.00549
1.857	-9.76868
1.8575	-9.86938
1.858	1.71204
1.8585	5.43823
1.859	-1.3092
1.8595	-3.7262
1.86	-11.17859
1.8605	-16.81824
1.861	-13.89771
1.8615	-23.26355
1.862	-19.43665
1.8625	-22.15576
1.863	-33.33435
1.8635	-33.83789
1.864	-45.82214
1.8645	-67.57507
1.865	-70.99915
1.8655	-61.23047
1.866	-43.80798
1.8665	-30.31311
1.867	-21.24939
1.8675	-25.177
1.868	-39.17542
1.8685	-51.26038
1.869	-45.82214
1.8695	-40.1825
1.87	-32.12585
1.8705	-33.73718
1.871	-29.00391
1.8715	-23.96851
1.872	-10.27222
1.8725	-1.91345
1.873	4.83398
1.8735	9.26514
1.874	14.40125
1.8745	20.74585
1.875	29.40674
1.8755	32.93152
1.876	69.1864
1.8765	172.61353
1.877	296.68579
1.8775	377.2522
1.878	410.88867
1.8785	407.86743
1.879	368.89343
1.8795	335.45837
1.88	299.40491
1.8805	232.13196
1.881	137.46643
1.8815	48.33984
1.882	15.71045
1.8825	0
1.883	-4.22974
1.8835	-24.77417
1.884	-35.34851
1.8845	-52.97241
1.885	-77.74658
1.8855	-115.91492
1.886	-162.64343
1.8865	-185.90698
1.887	-194.9707
1.8875	-217.73071
1.888	-235.85815
1.8885	-248.74878
1.889	-241.59851
1.8895	-226.99585
1.89	-207.76062
1.8905	-190.23743
1.891	-165.76538
1.8915	-143.50891
1.892	-108.66394
1.8925	-77.64587
1.893	-56.69861
1.8935	-48.74268
1.894	-50.55542
1.8945	-50.354
1.895	-57.8064
1.8955	-56.39648
1.896	-56.29578
1.8965	-48.64197
1.897	-17.22107
1.8975	2.01416
1.898	18.32886
1.8985	23.36426
1.899	22.76001
1.8995	20.34302
1.9	23.66638
1.9005	20.04089
1.901	11.88354
1.9015	12.89062
1.902	8.96301
1.9025	7.15027
1.903	10.77576
1.9035	15.40833
1.904	18.73169
1.9045	26.18408
1.905	32.83081
1.9055	45.2179
1.906	65.86304
1.9065	134.94873
1.907	226.3916
1.9075	282.08313
1.908	291.85181
1.9085	271.6095
1.909	235.05249
1.9095	192.15088
1.91	160.72998
1.9105	183.28857
1.911	205.54504
1.9115	211.2854
1.912	185.10132
1.9125	153.57971
1.913	114.60571
1.9135	82.47986
1.914	44.41223
1.9145	-19.53735
1.915	-84.2926
1.9155	-132.12891
1.916	-176.33972
1.9165	-197.3877
1.917	-209.37195
1.9175	-228.60718
1.918	-213.29956
1.9185	-173.62061
1.919	-152.97546
1.9195	-135.8551
1.92	-130.61829
1.9205	-105.6427
1.921	-92.95349
1.9215	-79.2572
1.922	-60.92834
1.9225	-39.47754
1.923	-22.35718
1.9235	-9.16443
1.924	6.44531
1.9245	17.6239
1.925	46.22498
1.9255	68.17932
1.926	79.45862
1.9265	86.60889
1.927	83.28552
1.9275	76.43738
1.928	77.14233
1.9285	139.37988
1.929	180.97229
1.9295	201.91956
1.93	181.67725
1.9305	149.6521
1.931	106.44836
1.9315	64.65454
1.932	10.57434
1.9325	-45.3186
1.933	-93.75916
1.9335	-135.45227
1.934	-175.63477
1.9345	-184.39636
1.935	-174.32556
1.9355	-164.55688
1.936	-146.53015
1.9365	-146.83228
1.937	-138.87634
1.9375	-125.88501
1.938	-75.22888
1.9385	14.60266
1.939	94.06128
1.9395	140.18555
1.94	159.01794
1.9405	153.3783
1.941	144.01245
1.9415	153.3783
1.942	167.67883
1.9425	156.90308
1.943	155.19104
1.9435	152.67334
1.944	126.69067
1.9445	87.21313
1.945	49.24622
1.9455	6.3446
1.946	-34.44214
1.9465	-69.1864
1.947	-106.8512
1.9475	-136.25793
1.948	-155.9967
1.9485	-167.98096
1.949	-173.41919
1.9495	-155.69458
1.95	-183.18787
1.9505	-5.53894
1.951	-5.23682
1.9515	284.09729
1.952	537.98218
1.9525	187.11548
1.953	46.5271
1.9535	41.79382
1.954	15.50903
1.9545	-10.87646
1.955	-19.13452
1.9555	-31.21948
1.956	-33.33435
1.9565	-36.65771
1.957	-41.08887
1.9575	-39.67896
1.958	-44.0094
1.9585	-46.92993
1.959	-50.85754
1.9595	-46.42639
1.96	-44.11011
1.9605	-39.98108
1.961	-43.80798
1.9615	-38.974
1.962	-27.29187
1.9625	-18.93311
1.963	-10.87646
1.9635	-6.44531
1.964	-0.30212
1.9645	2.5177
1.965	-4.22974
1.9655	-5.84106
1.966	-9.26514
1.9665	-13.29346
1.967	-12.48779
1.9675	-20.94727
1.968	-17.52319
1.9685	-10.77576
1.969	-1.51062
1.9695	6.54602
1.97	20.44373
1.9705	27.99683
1.971	33.73718
1.9715	50.55542
1.972	92.24854
1.9725	124.27368
1.973	142.50183
1.9735	140.99121
1.974	130.31616
1.9745	126.38855
1.975	100.90942
1.9755	72.9126
1.976	39.98108
1.9765	22.35718
1.977	4.33044
1.9775	-11.2793
1.978	-25.57983
1.9785	-39.67896
1.979	-56.29578
1.9795	-61.73401
1.98	-56.69861
1.9805	-46.32568
1.981	-40.58533
1.9815	-20.94727
1.982	12.99133
1.9825	73.41614
1.983	105.34058
1.9835	102.31934
1.984	77.948
1.9845	62.03613
1.985	50.2533
1.9855	22.96143
1.986	-12.99133
1.9865	-27.59399
1.987	-48.03772
1.9875	-79.76074
1.988	-115.31067
1.9885	-120.04395
1.989	-108.36182
1.9895	-95.26978
1.99	-111.08093
1.9905	-115.7135
1.991	-102.11792
1.9915	-33.53577
1.992	40.98816
1.9925	103.125
1.993	177.44751
1.9935	271.40808
1.994	385.20813
1.9945	474.93896
1.995	516.9342
1.9955	499.61243
1.996	441.60461
1.9965	363.65662
1.997	378.46069
1.9975	387.72583
1.998	359.52759
1.9985	285.70862
1.999	177.85034
1.9995	70.79773
2	-35.34851
2.0005	-93.35632
2.001	-80.36499
2.0015	-39.77966
2.002	131.22253
2.0025	224.47815
2.003	204.73938
2.0035	116.61987
2.004	37.06055
2.0045	-9.97009
2.005	-45.01648
2.0055	-98.59314
2.006	-198.09265
2.0065	-287.82349
2.007	-373.72742
2.0075	-440.29541
2.008	-499.61243
2.0085	-544.32678
2.009	-552.88696
2.0095	-535.06165
2.01	-501.72729
2.0105	-473.83118
2.011	-425.28992
2.0115	-331.43005
2.012	-252.37427
2.0125	-202.12097
2.013	-175.93689
2.0135	-132.33032
2.014	-65.3595
2.0145	-29.30603
2.015	-17.01965
2.0155	30.61523
2.016	74.42322
2.0165	79.76074
2.017	72.81189
2.0175	53.07312
2.018	23.26355
2.0185	15.60974
2.019	19.94019
2.0195	7.85522
2.02	57.60498
2.0205	122.96448
2.021	141.99829
2.0215	120.24536
2.022	66.26587
2.0225	14.19983
2.023	-23.8678
2.0235	-14.50195
2.024	6.44531
2.0245	12.08496
2.025	19.13452
2.0255	19.13452
2.026	30.81665
2.0265	134.44519
2.027	258.71887
2.0275	351.06812
2.028	437.57629
2.0285	653.89709
2.029	878.07312
2.0295	908.18481
2.03	767.79785
2.0305	562.55493
2.031	344.11926
2.0315	157.50732
2.032	-49.34692
2.0325	-220.85266
2.033	-304.74243
2.0335	-344.42139
2.034	-384.10034
2.0345	-404.04053
2.035	-401.82495
2.0355	-421.06018
2.036	-456.71082
2.0365	-487.72888
2.037	-492.76428
2.0375	-502.02942
2.038	-519.14978
2.0385	-464.46533
2.039	-325.18616
2.0395	-164.15405
2.04	-32.7301
2.0405	110.6781
2.041	209.67407
2.0415	254.48914
2.042	297.69287
2.0425	340.49377
2.043	325.08545
2.0435	260.93445
2.044	164.25476
2.0445	57.8064
2.045	-56.5979
2.0455	-148.3429
2.046	-183.18787
2.0465	-135.45227
2.047	-32.62939
2.0475	108.26111
2.048	176.44043
2.0485	189.12964
2.049	227.29797
2.0495	297.89429
2.05	297.29004
2.0505	229.01001
2.051	100.30518
2.0515	11.07788
2.052	-68.58215
2.0525	-157.50732
2.053	-220.65125
2.0535	-273.12012
2.054	-329.31519
2.0545	-353.78723
2.055	-328.30811
2.0555	-269.99817
2.056	-182.48291
2.0565	-111.48376
2.057	-54.78516
2.0575	52.67029
2.058	239.58435
2.0585	421.06018
2.059	564.06555
2.0595	714.92615
2.06	870.92285
2.0605	950.38147
2.061	912.61597
2.0615	856.21948
2.062	711.50208
2.0625	448.04993
2.063	152.1698
2.0635	-141.09192
2.064	-435.05859
2.0645	-661.14807
2.065	-800.02441
2.0655	-887.64038
2.066	-945.04395
2.0665	-965.8905
2.067	-952.59705
2.0675	-897.61047
2.068	-826.91345
2.0685	-794.98901
2.069	-720.86792
2.0695	-602.33459
2.07	-504.04358
2.0705	-427.00195
2.071	-375.94299
2.0715	-301.41907
2.072	-132.53174
2.0725	32.93152
2.073	136.86218
2.0735	161.93848
2.074	150.45776
2.0745	143.3075
2.075	116.21704
2.0755	81.57349
2.076	57.00073
2.0765	5.23682
2.077	-34.44214
2.0775	-43.50586
2.078	-10.87646
2.0785	22.86072
2.079	16.61682
2.0795	7.85522
2.08	7.65381
2.0805	-6.94885
2.081	-28.60107
2.0815	-50.2533
2.082	-41.39099
2.0825	-28.9032
2.083	-31.92444
2.0835	-26.28479
2.084	11.88354
2.0845	63.04321
2.085	107.45544
2.0855	97.28394
2.086	95.67261
2.0865	118.63403
2.087	129.00696
2.0875	140.28625
2.088	148.24219
2.0885	147.83936
2.089	133.23669
2.0895	84.79614
2.09	30.91736
2.0905	-27.29187
2.091	-78.65295
2.0915	-113.1958
2.092	-115.81421
2.0925	-71.60339
2.093	23.16284
2.0935	111.8866
2.094	153.57971
2.0945	170.70007
2.095	197.28699
2.0955	263.35144
2.096	397.19238
2.0965	516.9342
2.097	560.64148
2.0975	536.06873
2.098	503.43933
2.0985	465.47241
2.099	431.93665
2.0995	381.38123
2.1	284.80225
2.1005	173.41919
2.101	64.75525
2.1015	-38.57117
2.102	-110.37598
2.1025	-195.97778
2.103	-314.4104
2.1035	-417.73682
2.104	-466.27808
2.1045	-482.18994
2.105	-541.20483
2.1055	-583.70361
2.106	-572.12219
2.1065	-536.16943
2.107	-467.8894
2.1075	-399.71008
2.108	-313.30261
2.1085	-212.5946
2.109	-136.35864
2.1095	-84.2926
2.11	-51.76392
2.1105	-19.83948
2.111	5.13611
2.1115	51.5625
2.112	100.50659
2.1125	139.98413
2.113	220.34912
2.1135	288.72986
2.114	384.30176
2.1145	509.58252
2.115	562.95776
2.1155	637.5824
2.116	720.36438
2.1165	740.90881
2.117	707.97729
2.1175	576.35193
2.118	356.20422
2.1185	114.90784
2.119	-61.93542
2.1195	-174.02344
2.12	-219.24133
2.1205	-191.64734
2.121	-105.94482
2.1215	2.31628
2.122	84.39331
2.1225	165.9668
2.123	247.7417
2.1235	279.06189
2.124	209.37195
2.1245	105.23987
2.125	-15.60974
2.1255	-113.90076
2.126	-278.65906
2.1265	-403.33557
2.127	-514.81934
2.1275	-563.25989
2.128	-543.92395
2.1285	-491.7572
2.129	-429.72107
2.1295	-359.729
2.13	-256.70471
2.1305	-134.14307
2.131	-16.21399
2.1315	43.90869
2.132	66.97083
2.1325	97.58606
2.133	128.80554
2.1335	139.48059
2.134	149.14856
2.1345	131.92749
2.135	79.15649
2.1355	5.84106
2.136	-54.78516
2.1365	-70.59631
2.137	-70.79773
2.1375	-87.31384
2.138	-98.0896
2.1385	-28.70178
2.139	50.354
2.1395	96.67969
2.14	107.95898
2.1405	80.26428
2.141	-18.12744
2.1415	-105.03845
2.142	-188.92822
2.1425	-259.92737
2.143	-285.70862
2.1435	-303.0304
2.144	-306.05164
2.1445	-278.86047
2.145	-235.55603
2.1455	-182.3822
2.146	-124.67651
2.1465	-55.79224
2.147	8.66089
2.1475	84.39331
2.148	144.71741
2.1485	203.02734
2.149	275.83923
2.1495	352.67944
2.15	423.07434
2.1505	442.61169
2.151	451.97754
2.1515	434.85718
2.152	402.4292
2.1525	336.26404
2.153	263.75427
2.1535	196.98486
2.154	114.80713
2.1545	36.55701
2.155	-39.67896
2.1555	-113.80005
2.156	-179.05884
2.1565	-214.60876
2.157	-207.86133
2.1575	-158.31299
2.158	-67.67578
2.1585	28.50037
2.159	107.65686
2.1595	97.08252
2.16	43.90869
2.1605	2.21558
2.161	82.78198
2.1615	405.85327
2.162	700.42419
2.1625	818.85681
2.163	792.47131
2.1635	698.10791
2.164	559.33228
2.1645	410.08301
2.165	308.1665
2.1655	184.09424
2.166	17.01965
2.1665	-186.91406
2.167	-380.57556
2.1675	-526.60217
2.168	-595.28503
2.1685	-559.73511
2.169	-535.16235
2.1695	-549.96643
2.17	-596.89636
2.1705	-551.67847
2.171	-444.52515
2.1715	-316.02173
2.172	-235.95886
2.1725	-194.66858
2.173	-142.099
2.1735	-133.23669
2.174	-108.56323
2.1745	-76.53809
2.175	-72.30835
2.1755	-89.42871
2.176	-72.81189
2.1765	-31.4209
2.177	19.94019
2.1775	86.30676
2.178	144.21387
2.1785	347.34192
2.179	547.85156
2.1795	686.12366
2.18	764.97803
2.1805	753.69873
2.181	698.51074
2.1815	606.66504
2.182	515.32288
2.1825	499.61243
2.183	423.67859
2.1835	269.0918
2.184	15.00549
2.1845	-264.86206
2.185	-400.41504
2.1855	-419.24744
2.186	-391.1499
2.1865	-431.83594
2.187	-437.97913
2.1875	-319.94934
2.188	-113.59863
2.1885	20.94727
2.189	64.151
2.1895	30.2124
2.19	-13.89771
2.1905	-117.32483
2.191	-256.604
2.1915	-370.50476
2.192	-448.25134
2.1925	-519.14978
2.193	-538.38501
2.1935	-519.14978
2.194	-515.72571
2.1945	-481.58569
2.195	-440.1947
2.1955	-419.95239
2.196	-407.36389
2.1965	-376.95007
2.197	-285.70862
2.1975	-182.18079
2.198	-106.44836
2.1985	-65.66162
2.199	-30.2124
2.1995	-10.0708
2.2	-0.30212
2.2005	2.31628
2.201	-1.40991
2.2015	-3.42407
2.202	-0.10071
2.2025	8.05664
2.203	13.69629
2.2035	37.46338
2.204	52.26746
2.2045	52.771
2.205	56.49719
2.2055	68.98499
2.206	73.71826
2.2065	92.14783
2.207	116.922
2.2075	150.55847
2.208	179.05884
2.2085	228.00293
2.209	309.17358
2.2095	348.24829
2.21	316.9281
2.2105	252.87781
2.211	170.80078
2.2115	164.55688
2.212	266.27197
2.2125	391.75415
2.213	484.70764
2.2135	546.74377
2.214	594.68079
2.2145	602.33459
2.215	517.13562
2.2155	385.81238
2.216	223.47107
2.2165	40.88745
2.217	-132.93457
2.2175	-295.47729
2.218	-430.52673
2.2185	-506.56128
2.219	-575.34485
2.2195	-645.63904
2.22	-651.27869
2.2205	-601.1261
2.221	-563.76343
2.2215	-500.61951
2.222	-418.7439
2.2225	-334.04846
2.223	-241.4978
2.2235	-177.14539
2.224	-159.32007
2.2245	-170.29724
2.225	-149.85352
2.2255	-117.52625
2.226	-85.5011
2.2265	-51.05896
2.227	-30.41382
2.2275	-6.2439
2.228	34.34143
2.2285	89.83154
2.229	117.32483
2.2295	134.94873
2.23	146.22803
2.2305	187.82043
2.231	221.45691
2.2315	261.43799
2.232	379.87061
2.2325	571.21582
2.233	752.0874
2.2335	901.43738
2.234	961.45935
2.2345	975.25635
2.235	908.78906
2.2355	765.8844
2.236	568.59741
2.2365	350.16174
2.237	213.29956
2.2375	232.13196
2.238	331.02722
2.2385	410.48584
2.239	420.55664
2.2395	355.9021
2.24	229.81567
2.2405	13.49487
2.241	-208.06274
2.2415	-402.73132
2.242	-591.35742
2.2425	-720.06226
2.243	-783.70972
2.2435	-803.14636
2.244	-814.9292
2.2445	-797.00317
2.245	-764.37378
2.2455	-758.83484
2.246	-703.0426
2.2465	-598.6084
2.247	-490.64941
2.2475	-428.41187
2.248	-404.74548
2.2485	-361.13892
2.249	-289.33411
2.2495	-238.47656
2.25	-197.08557
2.2505	-148.4436
2.251	-110.87952
2.2515	-78.65295
2.252	-60.52551
2.2525	-42.39807
2.253	-13.59558
2.2535	21.45081
2.254	43.80798
2.2545	72.50977
2.255	84.79614
2.2555	86.10535
2.256	77.84729
2.2565	80.36499
2.257	123.2666
2.2575	174.12415
2.258	190.43884
2.2585	192.15088
2.259	175.33264
2.2595	135.45227
2.26	89.02588
2.2605	77.34375
2.261	91.745
2.2615	92.04712
2.262	69.08569
2.2625	53.87878
2.263	24.57275
2.2635	23.16284
2.264	16.81824
2.2645	-6.64673
2.265	-15.00549
2.2655	13.09204
2.266	24.37134
2.2665	29.00391
2.267	28.60107
2.2675	13.39417
2.268	-3.02124
2.2685	-11.98425
2.269	-1.00708
2.2695	13.59558
2.27	14.90479
2.2705	34.24072
2.271	81.17065
2.2715	117.82837
2.272	133.84094
2.2725	161.93848
2.273	195.07141
2.2735	208.36487
2.274	247.64099
2.2745	306.75659
2.275	364.56299
2.2755	390.54565
2.276	417.73682
2.2765	402.73132
2.277	323.47412
2.2775	210.17761
2.278	111.68518
2.2785	56.49719
2.279	54.18091
2.2795	84.79614
2.28	117.62695
2.2805	184.09424
2.281	214.81018
2.2815	245.92896
2.282	325.48828
2.2825	523.58093
2.283	763.16528
2.2835	862.66479
2.284	804.25415
2.2845	667.59338
2.285	479.77295
2.2855	306.35376
2.286	182.68433
2.2865	108.96606
2.287	-30.11169
2.2875	-216.11938
2.288	-365.77148
2.2885	-413.40637
2.289	-412.39929
2.2895	-403.13416
2.29	-354.6936
2.2905	-346.53625
2.291	-335.7605
2.2915	-302.32544
2.292	-289.83765
2.2925	-301.31836
2.293	-346.13342
2.2935	-417.33398
2.294	-418.34106
2.2945	-427.6062
2.295	-478.56445
2.2955	-495.88623
2.296	-483.80127
2.2965	-456.61011
2.297	-403.83911
2.2975	-219.94629
2.298	-31.4209
2.2985	82.58057
2.299	173.72131
2.2995	222.66541
2.3	226.08948
2.3005	200.10681
2.301	135.8551
2.3015	73.81897
2.302	-14.60266
2.3025	-95.26978
2.303	-160.12573
2.3035	-247.43958
2.304	-287.62207
2.3045	-269.39392
2.305	-259.72595
2.3055	-249.15161
2.306	-195.67566
2.3065	-128.50342
2.307	-95.77332
2.3075	-72.10693
2.308	-27.59399
2.3085	23.8678
2.309	72.20764
2.3095	97.58606
2.31	106.44836
2.3105	83.68835
2.311	61.53259
2.3115	30.01099
2.312	41.99524
2.3125	55.49011
2.313	50.05188
2.3135	86.30676
2.314	172.41211
2.3145	236.66382
2.315	255.19409
2.3155	257.8125
2.316	232.03125
2.3165	203.7323
2.317	163.4491
2.3175	139.98413
2.318	79.35791
2.3185	-15.81116
2.319	-95.26978
2.3195	-164.45618
2.32	-193.35938
2.3205	-167.88025
2.321	-138.57422
2.3215	-136.66077
2.322	-148.3429
2.3225	-130.21545
2.323	-31.32019
2.3235	188.42468
2.324	461.14197
2.3245	582.39441
2.325	571.41724
2.3255	557.31812
2.326	546.74377
2.3265	505.85632
2.327	541.80908
2.3275	530.93262
2.328	517.84058
2.3285	468.59436
2.329	364.56299
2.3295	220.75195
2.33	128.10059
2.3305	113.1958
2.331	49.34692
2.3315	-151.46484
2.332	-326.89819
2.3325	-485.91614
2.333	-580.07812
2.3335	-596.69495
2.334	-572.32361
2.3345	-542.21191
2.335	-450.66833
2.3355	-295.98083
2.336	-187.21619
2.3365	-144.51599
2.337	-18.32886
2.3375	118.02979
2.338	217.32788
2.3385	200.0061
2.339	207.96204
2.3395	250.86365
2.34	272.31445
2.3405	304.54102
2.341	285.30579
2.3415	208.96912
2.342	94.06128
2.3425	-90.5365
2.343	-284.90295
2.3435	-435.96497
2.344	-515.32288
2.3445	-556.21033
2.345	-579.57458
2.3455	-587.02698
2.346	-563.05847
2.3465	-531.03333
2.347	-441.50391
2.3475	-388.73291
2.348	-398.40088
2.3485	-397.69592
2.349	-371.51184
2.3495	-340.19165
2.35	-329.21448
2.3505	-314.71252
2.351	-251.97144
2.3515	-132.73315
2.352	-6.84814
2.3525	90.23438
2.353	186.20911
2.3535	479.87366
2.354	935.17456
2.3545	1365.29846
2.355	1602.46582
2.3555	1668.22815
2.356	1653.8269
2.3565	1651.3092
2.357	1766.21704
2.3575	2189.29126
2.358	2545.99902
2.3585	2484.56714
2.359	2190.09692
2.3595	1757.65686
2.36	1227.22778
2.3605	737.08191
2.361	242.00134
2.3615	-255.2948
2.362	-680.28259
2.3625	-1070.72754
2.363	-1277.7832
2.3635	-1366.20483
2.364	-1429.85229
2.3645	-1405.17883
2.365	-1244.34814
2.3655	-1073.14453
2.366	-922.38464
2.3665	-677.46277
2.367	-509.2804
2.3675	-488.63525
2.368	-468.49365
2.3685	-413.10425
2.369	-443.51807
2.3695	-542.31262
2.37	-658.22754
2.3705	-726.10474
2.371	-773.03467
2.3715	-850.78125
2.372	-955.92041
2.3725	-1038.50098
2.373	-1047.86682
2.3735	-1027.72522
2.374	-1009.19495
2.3745	-916.64429
2.375	-776.15662
2.3755	-692.9718
2.376	-652.6886
2.3765	-595.28503
2.377	-458.22144
2.3775	-340.49377
2.378	-261.5387
2.3785	-219.84558
2.379	-204.9408
2.3795	-200.71106
2.38	-192.95654
2.3805	-197.58911
2.381	-202.5238
2.3815	-202.72522
2.382	-180.77087
2.3825	-159.42078
2.383	-131.02112
2.3835	-113.29651
2.384	-102.31934
2.3845	-119.74182
2.385	-144.91882
2.3855	-129.10767
2.386	-46.42639
2.3865	73.31543
2.387	171.10291
2.3875	228.30505
2.388	277.9541
2.3885	327.20032
2.389	349.45679
2.3895	361.44104
2.39	343.61572
2.3905	330.32227
2.391	318.1366
2.3915	321.35925
2.392	321.9635
2.3925	364.05945
2.393	500.92163
2.3935	631.03638
2.394	696.698
2.3945	732.04651
2.395	802.3407
2.3955	973.64502
2.396	1083.61816
2.3965	1093.68896
2.397	1086.6394
2.3975	1006.57654
2.398	842.32178
2.3985	646.54541
2.399	457.8186
2.3995	281.6803
2.4	174.62769
2.4005	3.22266
2.401	-178.35388
2.4015	-334.14917
2.402	-508.57544
2.4025	-632.44629
2.403	-711.50208
2.4035	-762.96387
2.404	-765.07874
2.4045	-747.95837
2.405	-687.73499
2.4055	-609.08203
2.406	-546.94519
2.4065	-450.56763
2.407	-351.77307
2.4075	-290.24048
2.408	-232.23267
2.4085	-110.27527
2.409	12.89062
2.4095	103.62854
2.41	143.10608
2.4105	163.04626
2.411	220.65125
2.4115	267.58118
2.412	285.30579
2.4125	288.12561
2.413	301.01624
2.4135	312.39624
2.414	308.56934
2.4145	351.37024
2.415	372.92175
2.4155	353.3844
2.416	289.83765
2.4165	247.43958
2.417	169.99512
2.4175	61.73401
2.418	-60.02197
2.4185	-203.7323
2.419	-239.78577
2.4195	-116.01562
2.42	-7.15027
2.4205	149.85352
2.421	299.00208
2.4215	338.17749
2.422	285.80933
2.4225	184.69849
2.423	71.7041
2.4235	-14.40125
2.424	-8.96301
2.4245	102.52075
2.425	123.97156
2.4255	101.01013
2.426	62.43896
2.4265	-19.43665
2.427	-96.7804
2.4275	-177.3468
2.428	-305.74951
2.4285	-414.71558
2.429	-459.93347
2.4295	-458.22144
2.43	-467.18445
2.4305	-494.2749
2.431	-515.82642
2.4315	-512.50305
2.432	-473.52905
2.4325	-400.01221
2.433	-260.22949
2.4335	-106.8512
2.434	21.45081
2.4345	96.67969
2.435	122.86377
2.4355	105.23987
2.436	70.3949
2.4365	42.39807
2.437	102.31934
2.4375	270.401
2.438	368.08777
2.4385	413.50708
2.439	453.89099
2.4395	438.07983
2.44	380.37415
2.4405	325.08545
2.441	261.03516
2.4415	259.82666
2.442	292.15393
2.4425	325.18616
2.443	346.13342
2.4435	349.85962
2.444	352.98157
2.4445	336.56616
2.445	385.10742
2.4455	339.38599
2.446	223.67249
2.4465	84.59473
2.447	-43.30444
2.4475	-138.17139
2.448	-214.60876
2.4485	-311.59058
2.449	-397.3938
2.4495	-383.69751
2.45	-289.2334
2.4505	-176.44043
2.451	-11.98425
2.4515	111.8866
2.452	147.1344
2.4525	124.87793
2.453	77.948
2.4535	69.68994
2.454	95.47119
2.4545	95.16907
2.455	50.55542
2.4555	45.3186
2.456	122.86377
2.4565	183.89282
2.457	124.57581
2.4575	27.39258
2.458	-63.64746
2.4585	-152.1698
2.459	-267.8833
2.4595	-412.70142
2.46	-528.71704
2.4605	-619.9585
2.461	-658.52966
2.4615	-659.53674
2.462	-603.54309
2.4625	-547.54944
2.463	-502.23083
2.4635	-415.62195
2.464	-362.04529
2.4645	-323.77625
2.465	-272.41516
2.4655	-240.69214
2.466	-204.84009
2.4665	-172.71423
2.467	-142.70325
2.4675	-91.14075
2.468	-51.96533
2.4685	-10.67505
2.469	51.36108
2.4695	109.87244
2.47	147.94006
2.4705	158.01086
2.471	166.97388
2.4715	185.00061
2.472	195.17212
2.4725	193.96362
2.473	200.81177
2.4735	208.46558
2.474	255.09338
2.4745	328.71094
2.475	422.5708
2.4755	600.42114
2.476	701.33057
2.4765	751.68457
2.477	752.89307
2.4775	759.74121
2.478	761.55396
2.4785	720.96863
2.479	719.3573
2.4795	816.33911
2.48	889.35242
2.4805	847.55859
2.481	747.65625
2.4815	570.71228
2.482	424.38354
2.4825	341.09802
2.483	320.55359
2.4835	318.2373
2.484	292.05322
2.4845	220.85266
2.485	98.89526
2.4855	7.5531
2.486	0.90637
2.4865	35.14709
2.487	42.8009
2.4875	10.67505
2.488	-16.91895
2.4885	-100.10376
2.489	-229.01001
2.4895	-366.97998
2.49	-487.62817
2.4905	-585.41565
2.491	-652.89001
2.4915	-675.85144
2.492	-640.60364
2.4925	-628.51868
2.493	-691.05835
2.4935	-772.229
2.494	-753.90015
2.4945	-733.75854
2.495	-702.43835
2.4955	-615.62805
2.496	-490.448
2.4965	-377.35291
2.497	-291.14685
2.4975	-257.10754
2.498	-274.63074
2.4985	-278.96118
2.499	-273.52295
2.4995	-257.00684
2.5	-193.15796
2.5005	-47.03064
2.501	38.06763
2.5015	54.28162
2.502	8.7616
2.5025	-26.58691
2.503	160.12573
2.5035	427.90833
2.504	874.85046
2.5045	1269.02161
2.505	1474.66736
2.5055	1516.25977
2.506	1482.42188
2.5065	1363.48572
2.507	1159.95483
2.5075	906.47278
2.508	572.92786
2.5085	126.48926
2.509	-328.30811
2.5095	-659.73816
2.51	-897.9126
2.5105	-1041.01868
2.511	-1087.44507
2.5115	-1083.92029
2.512	-1061.16028
2.5125	-1041.72363
2.513	-922.88818
2.5135	-731.34155
2.514	-540.29846
2.5145	-399.71008
2.515	-298.80066
2.5155	-261.23657
2.516	-229.81567
2.5165	-184.69849
2.517	-146.63086
2.5175	-112.28943
2.518	-88.0188
2.5185	-40.68604
2.519	3.02124
2.5195	54.98657
2.52	113.09509
2.5205	226.69373
2.521	395.07751
2.5215	570.20874
2.522	865.1825
2.5225	1350.09155
2.523	1870.65125
2.5235	2229.57446
2.524	2312.35645
2.5245	2179.72412
2.525	1911.94153
2.5255	1617.97485
2.526	1271.4386
2.5265	880.2887
2.527	512.90588
2.5275	82.88269
2.528	-294.87305
2.5285	-595.78857
2.529	-832.35168
2.5295	-1048.16895
2.53	-1141.72668
2.5305	-1167.60864
2.531	-1187.44812
2.5315	-1100.03357
2.532	-859.54285
2.5325	-732.24792
2.533	-713.0127
2.5335	-736.77979
2.534	-838.19275
2.5345	-983.81653
2.535	-1081.80542
2.5355	-1026.51672
2.536	-911.20605
2.5365	-805.36194
2.537	-648.86169
2.5375	-426.297
2.538	-282.28455
2.5385	-172.00928
2.539	88.92517
2.5395	298.49854
2.54	469.70215
2.5405	604.24805
2.541	749.87183
2.5415	828.42407
2.542	785.01892
2.5425	717.44385
2.543	629.92859
2.5435	449.76196
2.544	261.6394
2.5445	120.54749
2.545	-4.02832
2.5455	-95.5719
2.546	-237.77161
2.5465	-403.03345
2.547	-498.10181
2.5475	-547.0459
2.548	-501.02234
2.5485	-485.71472
2.549	-587.02698
2.5495	-698.81287
2.55	-765.58228
2.5505	-751.88599
2.551	-649.06311
2.5515	-545.33386
2.552	-436.97205
2.5525	-290.03906
2.553	-53.87878
2.5535	243.51196
2.554	658.83179
2.5545	1059.34753
2.555	1461.77673
2.5555	1941.54968
2.556	2181.83887
2.5565	2233.40137
2.557	2149.10889
2.5575	1882.03125
2.558	1468.82629
2.5585	937.28943
2.559	333.04138
2.5595	-241.90063
2.56	-720.86792
2.5605	-1077.47498
2.561	-1208.19397
2.5615	-1076.36719
2.562	-827.21558
2.5625	-373.526
2.563	136.05652
2.5635	404.24194
2.564	750.97961
2.5645	1501.6571
2.565	2214.16626
2.5655	2401.38232
2.566	2197.24731
2.5665	1756.24695
2.567	1230.75256
2.5675	631.43921
2.568	-103.82996
2.5685	-860.85205
2.569	-1601.05591
2.5695	-2216.68384
2.57	-2655.36792
2.5705	-2886.59351
2.571	-2918.51807
2.5715	-2802.2002
2.572	-2566.24146
2.5725	-2116.98291
2.573	-1595.31555
2.5735	-1205.17273
2.574	-955.31616
2.5745	-840.50903
2.575	-747.25342
2.5755	-694.68384
2.576	-643.02063
2.5765	-581.28662
2.577	-510.69031
2.5775	-423.47717
2.578	-325.79041
2.5785	-117.42554
2.579	67.67578
2.5795	168.4845
2.58	221.55762
2.5805	260.22949
2.581	313.80615
2.5815	337.37183
2.582	309.97925
2.5825	234.04541
2.583	157.30591
2.5835	83.48694
2.584	59.61914
2.5845	130.11475
2.585	240.59143
2.5855	354.29077
2.586	477.05383
2.5865	537.88147
2.587	557.92236
2.5875	494.97986
2.588	369.6991
2.5885	251.5686
2.589	178.75671
2.5895	147.33582
2.59	120.84961
2.5905	104.23279
2.591	119.23828
2.5915	82.58057
2.592	-5.13611
2.5925	-74.2218
2.593	-140.99121
2.5935	-196.78345
2.594	-183.18787
2.5945	-117.62695
2.595	-79.86145
2.5955	-71.30127
2.596	-56.69861
2.5965	-13.39417
2.597	87.51526
2.5975	193.25867
2.598	305.44739
2.5985	403.83911
2.599	439.28833
2.5995	436.97205
2.6	412.60071
2.6005	519.4519
2.601	756.41785
2.6015	827.01416
2.602	801.03149
2.6025	945.44678
2.603	1238.8092
2.6035	1444.75708
2.604	1476.58081
2.6045	1394.50378
2.605	1213.02795
2.6055	867.8009
2.606	389.43787
2.6065	11.78284
2.607	-323.57483
2.6075	-548.85864
2.608	-468.29224
2.6085	46.92993
2.609	391.55273
2.6095	620.86487
2.61	878.07312
2.6105	1139.10828
2.611	1331.66199
2.6115	1313.33313
2.612	1192.1814
2.6125	1049.37744
2.613	812.21008
2.6135	530.12695
2.614	36.25488
2.6145	-471.71631
2.615	-1017.25159
2.6155	-1519.68384
2.616	-1901.77002
2.6165	-2065.21899
2.617	-2051.82495
2.6175	-1886.4624
2.618	-1781.02112
2.6185	-1681.62231
2.619	-1420.28503
2.6195	-1050.48523
2.62	-687.23145
2.6205	-481.48499
2.621	-319.14368
2.6215	-21.24939
2.622	255.59692
2.6225	428.51257
2.623	483.59985
2.6235	571.82007
2.624	859.14001
2.6245	1010.40344
2.625	1119.16809
2.6255	1502.96631
2.626	1751.21155
2.6265	1785.75439
2.627	1819.49158
2.6275	1784.74731
2.628	1717.8772
2.6285	1553.62244
2.629	1052.70081
2.6295	471.41418
2.63	-45.62073
2.6305	-419.95239
2.631	-755.41077
2.6315	-1082.91321
2.632	-1312.02393
2.6325	-1682.22656
2.633	-2114.86816
2.6335	-2347.60425
2.634	-2281.23779
2.6345	-2126.24805
2.635	-1965.82031
2.6355	-1787.96997
2.636	-1650.90637
2.6365	-1514.1449
2.637	-1308.59985
2.6375	-1050.38452
2.638	-842.12036
2.6385	-715.22827
2.639	-643.12134
2.6395	-574.13635
2.64	-489.44092
2.6405	-420.25452
2.641	-336.66687
2.6415	-227.70081
2.642	-156.19812
2.6425	-99.3988
2.643	-72.9126
2.6435	-41.99524
2.644	-5.13611
2.6445	7.5531
2.645	7.5531
2.6455	6.84814
2.646	-0.30212
2.6465	-0.30212
2.647	16.21399
2.6475	38.974
2.648	54.18091
2.6485	96.67969
2.649	178.95813
2.6495	330.12085
2.65	478.16162
2.6505	541.70837
2.651	526.30005
2.6515	494.57703
2.652	473.02551
2.6525	442.91382
2.653	367.08069
2.6535	300.41199
2.654	229.31213
2.6545	248.04382
2.655	358.21838
2.6555	491.35437
2.656	690.35339
2.6565	1021.68274
2.657	1195.10193
2.6575	1126.11694
2.658	1043.93921
2.6585	926.01013
2.659	720.16296
2.6595	408.97522
2.66	87.41455
2.6605	-163.4491
2.661	-274.02649
2.6615	-51.86462
2.662	522.57385
2.6625	1035.58044
2.663	1368.72253
2.6635	1830.67017
2.664	2397.25342
2.6645	2697.36328
2.665	2583.05957
2.6655	2147.29614
2.666	1528.24402
2.6665	869.51294
2.667	171.80786
2.6675	-559.53369
2.668	-1264.48975
2.6685	-1895.92896
2.669	-2310.94653
2.6695	-2431.79614
2.67	-2260.1897
2.6705	-1999.35608
2.671	-1750.30518
2.6715	-1228.23486
2.672	-523.68164
2.6725	-32.32727
2.673	177.54822
2.6735	240.28931
2.674	241.39709
2.6745	150.45776
2.675	37.66479
2.6755	-29.80957
2.676	-179.26025
2.6765	-357.31201
2.677	-465.17029
2.6775	-560.74219
2.678	-487.42676
2.6785	-154.48608
2.679	160.42786
2.6795	324.07837
2.68	501.92871
2.6805	690.95764
2.681	792.77344
2.6815	742.21802
2.682	558.02307
2.6825	331.02722
2.683	110.98022
2.6835	-132.93457
2.684	-321.05713
2.6845	-430.1239
2.685	-540.09705
2.6855	-685.21729
2.686	-764.6759
2.6865	-813.92212
2.687	-876.46179
2.6875	-963.77563
2.688	-965.28625
2.6885	-920.26978
2.689	-892.67578
2.6895	-820.26672
2.69	-723.1842
2.6905	-600.21973
2.691	-482.29065
2.6915	-316.12244
2.692	-128.60413
2.6925	15.00549
2.693	172.61353
2.6935	315.51819
2.694	439.38904
2.6945	467.08374
2.695	387.323
2.6955	298.80066
2.696	233.74329
2.6965	237.6709
2.697	224.88098
2.6975	321.66138
2.698	477.05383
2.6985	508.37402
2.699	415.52124
2.6995	229.81567
2.7	63.74817
2.7005	-44.61365
2.701	-139.68201
2.7015	-178.95813
2.702	-191.34521
2.7025	-157.2052
2.703	-144.31458
2.7035	-169.18945
2.704	-188.6261
2.7045	-47.43347
2.705	165.56396
2.7055	469.50073
2.706	700.62561
2.7065	786.12671
2.707	762.76245
2.7075	616.73584
2.708	389.23645
2.7085	81.7749
2.709	-238.67798
2.7095	-472.62268
2.71	-651.58081
2.7105	-760.94971
2.711	-768.4021
2.7115	-694.58313
2.712	-332.94067
2.7125	160.22644
2.713	525.89722
2.7135	669.40613
2.714	683.80737
2.7145	718.24951
2.715	781.79626
2.7155	777.96936
2.716	640.60364
2.7165	433.44727
2.717	278.45764
2.7175	119.84253
2.718	410.08301
2.7185	970.52307
2.719	1341.02783
2.7195	1589.87732
2.72	1741.745
2.7205	1668.12744
2.721	1347.67456
2.7215	838.69629
2.722	200.30823
2.7225	-384.20105
2.723	-866.18958
2.7235	-1206.58264
2.724	-1239.81628
2.7245	-1181.00281
2.725	-932.45544
2.7255	-302.12402
2.726	546.74377
2.7265	1209.10034
2.727	1581.01501
2.7275	1879.31213
2.728	2054.44336
2.7285	2087.07275
2.729	1996.63696
2.7295	1663.69629
2.73	1011.81335
2.7305	228.9093
2.731	-386.1145
2.7315	-823.6908
2.732	-1234.47876
2.7325	-1655.63965
2.733	-2018.28918
2.7335	-2189.39209
2.734	-2225.44556
2.7345	-2154.54712
2.735	-2045.58105
2.7355	-2009.02405
2.736	-1962.69836
2.7365	-1866.72363
2.737	-1775.98572
2.7375	-1674.77417
2.738	-1509.41162
2.7385	-1255.92957
2.739	-1012.11548
2.7395	-865.78674
2.74	-763.26599
2.7405	-669.70825
2.741	-601.52893
2.7415	-519.3512
2.742	-444.72656
2.7425	-386.1145
2.743	-324.27979
2.7435	-248.04382
2.744	-149.34998
2.7445	-68.48145
2.745	-19.03381
2.7455	14.80408
2.746	49.85046
2.7465	87.71667
2.747	117.72766
2.7475	150.55847
2.748	177.24609
2.7485	201.11389
2.749	200.0061
2.7495	193.46008
2.75	206.35071
2.7505	275.03357
2.751	480.88074
2.7515	697.50366
2.752	791.96777
2.7525	773.13538
2.753	709.58862
2.7535	618.54858
2.754	491.95862
2.7545	344.72351
2.755	222.86682
2.7555	119.13757
2.756	65.46021
2.7565	77.74658
2.757	95.77332
2.7575	82.9834
2.758	65.15808
2.7585	69.08569
2.759	22.35718
2.7595	-33.23364
2.76	-41.59241
2.7605	-62.53967
2.761	-98.0896
2.7615	-59.82056
2.762	252.97852
2.7625	812.4115
2.763	1445.76416
2.7635	1823.72131
2.764	1965.6189
2.7645	1987.67395
2.765	1869.74487
2.7655	1609.11255
2.766	1228.03345
2.7665	756.21643
2.767	229.81567
2.7675	-281.17676
2.768	-735.26917
2.7685	-1096.20667
2.769	-1363.98926
2.7695	-1520.99304
2.77	-1510.01587
2.7705	-1353.51562
2.771	-1201.24512
2.7715	-1028.12805
2.772	-826.2085
2.7725	-642.81921
2.773	-509.2804
2.7735	-433.95081
2.774	-370.10193
2.7745	-291.04614
2.775	-225.38452
2.7755	-190.33813
2.776	-178.35388
2.7765	-174.92981
2.777	-190.13672
2.7775	-195.77637
2.778	-146.32874
2.7785	-58.51135
2.779	104.03137
2.7795	274.22791
2.78	436.97205
2.7805	632.64771
2.781	735.06775
2.7815	729.93164
2.782	682.39746
2.7825	589.8468
2.783	487.22534
2.7835	366.57715
2.784	228.00293
2.7845	40.78674
2.785	-147.43652
2.7855	-279.06189
2.786	-373.92883
2.7865	-431.83594
2.787	-457.51648
2.7875	-428.8147
2.788	-321.56067
2.7885	-153.479
2.789	45.2179
2.7895	137.16431
2.79	112.89368
2.7905	48.33984
2.791	-28.80249
2.7915	-93.75916
2.792	-72.81189
2.7925	54.98657
2.793	283.99658
2.7935	477.55737
2.794	609.9884
2.7945	693.57605
2.795	685.72083
2.7955	583.80432
2.796	462.35046
2.7965	307.66296
2.797	127.19421
2.7975	-54.0802
2.798	-196.38062
2.7985	-291.95251
2.799	-382.69043
2.7995	-475.3418
2.8	-435.86426
2.8005	-290.94543
2.801	-155.9967
2.8015	-83.08411
2.802	-20.34302
2.8025	14.80408
2.803	115.20996
2.8035	221.15479
2.804	271.71021
2.8045	308.0658
2.805	324.58191
2.8055	305.5481
2.806	282.78809
2.8065	260.63232
2.807	212.89673
2.8075	130.31616
2.808	37.26196
2.8085	-28.19824
2.809	-92.04712
2.8095	-145.72449
2.81	-153.78113
2.8105	-154.38538
2.811	-167.88025
2.8115	-213.09814
2.812	-224.57886
2.8125	-205.74646
2.813	-212.29248
2.8135	-169.89441
2.814	-40.68604
2.8145	52.36816
2.815	116.01562
2.8155	132.12891
2.816	131.82678
2.8165	113.80005
2.817	89.83154
2.8175	94.46411
2.818	98.79456
2.8185	79.66003
2.819	80.16357
2.8195	105.94482
2.82	106.75049
2.8205	98.49243
2.821	54.58374
2.8215	43.90869
2.822	33.13293
2.8225	-23.96851
2.823	-79.55933
2.8235	-101.11084
2.824	-89.93225
2.8245	-8.56018
2.825	159.21936
2.8255	381.68335
2.826	511.8988
2.8265	544.42749
2.827	558.72803
2.8275	568.4967
2.828	500.92163
2.8285	354.19006
2.829	196.98486
2.8295	28.39966
2.83	-143.71033
2.8305	-248.54736
2.831	-288.42773
2.8315	-322.66846
2.832	-354.49219
2.8325	-351.16882
2.833	-345.62988
2.8335	-317.02881
2.834	-271.81091
2.8345	-271.71021
2.835	-327.40173
2.8355	-309.375
2.836	-276.34277
2.8365	-309.17358
2.837	-373.12317
2.8375	-365.36865
2.838	-299.3042
2.8385	-214.30664
2.839	-132.63245
2.8395	-48.54126
2.84	9.36584
2.8405	56.29578
2.841	98.39172
2.8415	109.26819
2.842	98.89526
2.8425	84.19189
2.843	82.78198
2.8435	92.14783
2.844	140.58838
2.8445	307.96509
2.845	560.9436
2.8455	697.40295
2.846	798.01025
2.8465	854.50745
2.847	891.26587
2.8475	1129.74243
2.848	1478.09143
2.8485	1826.0376
2.849	2043.46619
2.8495	2110.03418
2.85	2063.30566
2.8505	1905.39551
2.851	1625.93079
2.8515	1228.7384
2.852	755.41077
2.8525	209.87549
2.853	-451.37329
2.8535	-957.53174
2.854	-1310.31189
2.8545	-1591.38794
2.855	-1883.03833
2.8555	-2099.35913
2.856	-2091.50391
2.8565	-1960.78491
2.857	-1788.67493
2.8575	-1587.66174
2.858	-1367.21191
2.8585	-1154.61731
2.859	-895.99915
2.8595	-663.86719
2.86	-509.68323
2.8605	-408.16956
2.861	-328.91235
2.8615	-283.29163
2.862	-224.88098
2.8625	-119.23828
2.863	-54.0802
2.8635	-11.2793
2.864	37.46338
2.8645	76.23596
2.865	63.84888
2.8655	52.8717
2.866	40.08179
2.8665	35.34851
2.867	12.48779
2.8675	10.77576
2.868	38.57117
2.8685	78.85437
2.869	109.4696
2.8695	101.8158
2.87	125.58289
2.8705	149.24927
2.871	149.24927
2.8715	168.28308
2.872	185.40344
2.8725	161.43494
2.873	121.05103
2.8735	178.75671
2.874	278.55835
2.8745	365.36865
2.875	482.99561
2.8755	644.63196
2.876	816.64124
2.8765	859.54285
2.877	795.79468
2.8775	685.01587
2.878	565.37476
2.8785	422.47009
2.879	264.25781
2.8795	53.27454
2.88	-185.90698
2.8805	-439.69116
2.881	-639.59656
2.8815	-770.01343
2.882	-796.80176
2.8825	-753.69873
2.883	-604.75159
2.8835	-447.94922
2.884	-346.83838
2.8845	-305.5481
2.885	-280.67322
2.8855	-268.08472
2.886	-267.07764
2.8865	-263.75427
2.887	-244.41833
2.8875	-180.87158
2.888	-88.82446
2.8885	6.74744
2.889	60.72693
2.8895	137.56714
2.89	189.73389
2.8905	228.60718
2.891	243.51196
2.8915	234.64966
2.892	219.03992
2.8925	206.25
2.893	241.69922
2.8935	364.05945
2.894	574.63989
2.8945	818.85681
2.895	1114.13269
2.8955	1325.01526
2.896	1364.39209
2.8965	1262.677
2.897	1101.6449
2.8975	871.92993
2.898	590.65247
2.8985	375.94299
2.899	241.09497
2.8995	68.68286
2.9	23.06213
2.9005	57.00073
2.901	64.45312
2.9015	-11.2793
2.902	-181.77795
2.9025	-230.62134
2.903	-208.36487
2.9035	-245.12329
2.904	-284.39941
2.9045	-326.69678
2.905	-390.74707
2.9055	-435.66284
2.906	-391.35132
2.9065	-337.27112
2.907	-395.88318
2.9075	-482.08923
2.908	-376.74866
2.9085	-339.78882
2.909	-393.76831
2.9095	-448.35205
2.91	-456.61011
2.9105	-442.30957
2.911	-454.59595
2.9115	-483.29773
2.912	-516.53137
2.9125	-509.2804
2.913	-517.43774
2.9135	-545.63599
2.914	-537.68005
2.9145	-500.11597
2.915	-480.07507
2.9155	-401.52283
2.916	-294.87305
2.9165	-174.42627
2.917	-65.15808
2.9175	-18.93311
2.918	0.40283
2.9185	4.12903
2.919	0.10071
2.9195	7.35168
2.92	-1.81274
2.9205	-20.44373
2.921	-25.98267
2.9215	-4.33044
2.922	30.61523
2.9225	59.41772
2.923	85.90393
2.9235	72.50977
2.924	50.55542
2.9245	19.83948
2.925	-24.67346
2.9255	-35.95276
2.926	15.71045
2.9265	69.99207
2.927	95.06836
2.9275	93.85986
2.928	99.90234
2.9285	107.25403
2.929	81.17065
2.9295	59.61914
2.93	75.4303
2.9305	130.51758
2.931	209.57336
2.9315	284.198
2.932	347.1405
2.9325	372.61963
2.933	365.06653
2.9335	314.51111
2.934	240.79285
2.9345	221.45691
2.935	188.6261
2.9355	125.28076
2.936	75.02747
2.9365	30.31311
2.937	11.78284
2.9375	0.20142
2.938	-26.88904
2.9385	-92.75208
2.939	-141.09192
2.9395	-111.08093
2.94	-100.90942
2.9405	-66.46729
2.941	-43.20374
2.9415	-6.54602
2.942	81.37207
2.9425	134.74731
2.943	158.4137
2.9435	156.80237
2.944	204.53796
2.9445	243.91479
2.945	227.49939
2.9455	173.72131
2.946	89.52942
2.9465	7.65381
2.947	-46.62781
2.9475	-81.27136
2.948	-105.44128
2.9485	-105.03845
2.949	-97.58606
2.9495	-107.35474
2.95	-130.11475
2.9505	-133.23669
2.951	-117.62695
2.9515	-111.18164
2.952	-54.48303
2.9525	110.37598
2.953	343.01147
2.9535	584.71069
2.954	902.948
2.9545	1181.70776
2.955	1259.25293
2.9555	1158.94775
2.956	970.12024
2.9565	708.58154
2.957	385.61096
2.9575	32.93152
2.958	-305.85022
2.9585	-594.98291
2.959	-813.7207
2.9595	-930.44128
2.96	-996.20361
2.9605	-923.19031
2.961	-751.18103
2.9615	-622.67761
2.962	-525.89722
2.9625	-449.15771
2.963	-394.77539
2.9635	-347.03979
2.964	-268.99109
2.9645	-179.8645
2.965	-87.51526
2.9655	9.06372
2.966	74.82605
2.9665	131.52466
2.967	167.17529
2.9675	178.75671
2.968	161.0321
2.9685	144.81812
2.969	164.7583
2.9695	264.25781
2.97	515.625
2.9705	708.58154
2.971	853.70178
2.9715	1045.75195
2.972	1176.26953
2.9725	1258.34656
2.973	1184.729
2.9735	981.70166
2.974	695.28809
2.9745	373.22388
2.975	-2.61841
2.9755	-389.03503
2.976	-722.88208
2.9765	-998.41919
2.977	-1206.98547
2.9775	-1267.20886
2.978	-1220.48035
2.9785	-1150.89111
2.979	-1008.89282
2.9795	-787.93945
2.98	-448.65417
2.9805	-6.74744
2.981	352.67944
2.9815	638.48877
2.982	919.46411
2.9825	1126.92261
2.983	1199.13025
2.9835	1185.73608
2.984	1118.76526
2.9845	921.37756
2.985	643.02063
2.9855	292.85889
2.986	-89.02588
2.9865	-402.32849
2.987	-656.71692
2.9875	-764.6759
2.988	-830.43823
2.9885	-894.99207
2.989	-875.15259
2.9895	-864.47754
2.99	-841.51611
2.9905	-760.14404
2.991	-649.56665
2.9915	-543.3197
2.992	-441.30249
2.9925	-210.17761
2.993	-23.26355
2.9935	66.36658
2.994	64.75525
2.9945	83.68835
2.995	139.5813
2.9955	118.02979
2.996	16.61682
2.9965	-129.00696
2.997	-206.75354
2.9975	-197.99194
2.998	-173.41919
2.9985	-160.9314
2.999	-152.67334
2.9995	-157.40662
3	-146.02661
3.0005	-131.22253
3.001	-174.32556
3.0015	-223.47107
3.002	-257.71179
3.0025	-250.86365
3.003	-235.85815
3.0035	-217.32788
3.004	-192.453
3.0045	-148.64502
3.005	-113.69934
3.0055	-75.83313
3.006	-42.39807
3.0065	10.87646
3.007	46.82922
3.0075	54.78516
3.008	71.09985
3.0085	103.125
3.009	121.25244
3.0095	136.86218
3.01	137.76855
3.0105	138.3728
3.011	138.27209
3.0115	145.9259
3.012	166.16821
3.0125	161.53564
3.013	144.11316
3.0135	131.72607
3.014	115.20996
3.0145	101.61438
3.015	83.38623
3.0155	98.49243
3.016	173.41919
3.0165	268.89038
3.017	395.48035
3.0175	496.7926
3.018	547.0459
3.0185	626.90735
3.019	695.18738
3.0195	745.84351
3.02	717.84668
3.0205	635.87036
3.021	518.24341
3.0215	381.17981
3.022	251.77002
3.0225	157.00378
3.023	130.61829
3.0235	134.5459
3.024	132.83386
3.0245	83.28552
3.025	37.26196
3.0255	52.46887
3.026	51.46179
3.0265	-6.04248
3.027	-151.96838
3.0275	-334.24988
3.028	-463.05542
3.0285	-409.27734
3.029	-224.88098
3.0295	-35.65063
3.03	144.51599
3.0305	373.526
3.031	558.52661
3.0315	604.55017
3.032	512.90588
3.0325	255.69763
3.033	-18.53027
3.0335	-177.74963
3.034	-220.24841
3.0345	-295.37659
3.035	-316.32385
3.0355	-368.18848
3.036	-305.6488
3.0365	-203.02734
3.037	-174.12415
3.0375	-197.08557
3.038	-9.06372
3.0385	280.97534
3.039	424.48425
3.0395	448.85559
3.04	433.04443
3.0405	413.20496
3.041	337.47253
3.0415	242.40417
3.042	131.32324
3.0425	-20.44373
3.043	-186.71265
3.0435	-324.17908
3.044	-466.88232
3.0445	-629.32434
3.045	-738.08899
3.0455	-630.0293
3.046	-418.64319
3.0465	-145.52307
3.047	32.42798
3.0475	111.9873
3.048	101.8158
3.0485	119.84253
3.049	251.4679
3.0495	565.17334
3.05	946.45386
3.0505	1226.52283
3.051	1345.6604
3.0515	1445.56274
3.052	1485.84595
3.0525	1398.33069
3.053	1149.98474
3.0535	909.69543
3.054	725.90332
3.0545	532.34253
3.055	243.00842
3.0555	-95.87402
3.056	-417.5354
3.0565	-712.60986
3.057	-1028.02734
3.0575	-1329.64783
3.058	-1442.13867
3.0585	-1397.02148
3.059	-1270.53223
3.0595	-1079.28772
3.06	-1003.45459
3.0605	-1023.39478
3.061	-1126.21765
3.0615	-1161.66687
3.062	-1116.95251
3.0625	-980.19104
3.063	-770.61768
3.0635	-582.19299
3.064	-448.75488
3.0645	-372.01538
3.065	-317.33093
3.0655	-268.38684
3.066	-266.37268
3.0665	-333.84705
3.067	-420.45593
3.0675	-437.97913
3.068	-448.15063
3.0685	-406.86035
3.069	-327.09961
3.0695	-268.68896
3.07	-188.42468
3.0705	22.45789
3.071	248.9502
3.0715	336.26404
3.072	396.38672
3.0725	569.80591
3.073	781.69556
3.0735	889.05029
3.074	885.52551
3.0745	818.25256
3.075	720.06226
3.0755	686.42578
3.076	756.51855
3.0765	776.25732
3.077	730.43518
3.0775	750.7782
3.078	739.90173
3.0785	702.23694
3.079	587.83264
3.0795	494.67773
3.08	362.95166
3.0805	131.92749
3.081	-84.19189
3.0815	-343.11218
3.082	-653.59497
3.0825	-829.73328
3.083	-878.97949
3.0835	-917.95349
3.084	-1054.81567
3.0845	-1148.27271
3.085	-1082.71179
3.0855	-899.02039
3.086	-686.72791
3.0865	-326.69678
3.087	62.9425
3.0875	340.49377
3.088	505.35278
3.0885	684.81445
3.089	884.51843
3.0895	946.85669
3.09	868.20374
3.0905	771.62476
3.091	723.48633
3.0915	594.47937
3.092	397.09167
3.0925	185.50415
3.093	-30.51453
3.0935	-157.30591
3.094	-90.43579
3.0945	-89.328
3.095	-198.89832
3.0955	-436.16638
3.096	-569.60449
3.0965	-471.41418
3.097	-388.02795
3.0975	-380.87769
3.098	-188.82751
3.0985	88.0188
3.099	645.33691
3.0995	1267.41028
3.1	1552.81677
3.1005	1546.57288
3.101	1418.67371
3.1015	1164.88953
3.102	801.1322
3.1025	408.37097
3.103	292.05322
3.1035	333.54492
3.104	218.33496
3.1045	56.29578
3.105	-2.21558
3.1055	-56.29578
3.106	-100.6073
3.1065	-176.23901
3.107	-253.28064
3.1075	-358.4198
3.108	-574.94202
3.1085	-931.24695
3.109	-1267.30957
3.1095	-1524.31641
3.11	-1727.14233
3.1105	-1845.47424
3.111	-1858.86841
3.1115	-1763.49792
3.112	-1530.86243
3.1125	-1249.38354
3.113	-956.22253
3.1135	-726.40686
3.114	-535.26306
3.1145	-319.94934
3.115	-149.6521
3.1155	-54.58374
3.116	-27.39258
3.1165	3.8269
3.117	46.82922
3.1175	67.27295
3.118	126.08643
3.1185	494.2749
3.119	906.67419
3.1195	1185.63538
3.12	1290.3717
3.1205	1266.20178
3.121	1196.81396
3.1215	1119.97375
3.122	969.91882
3.1225	701.7334
3.123	346.43555
3.1235	32.83081
3.124	-225.28381
3.1245	-390.94849
3.125	-415.82336
3.1255	-272.11304
3.126	-135.75439
3.1265	-86.20605
3.127	-90.03296
3.1275	-139.37988
3.128	-185.80627
3.1285	-261.74011
3.129	-402.22778
3.1295	-561.84998
3.13	-688.54065
3.1305	-763.06458
3.131	-794.28406
3.1315	-847.35718
3.132	-851.18408
3.1325	-711.90491
3.133	-535.7666
3.1335	-370.30334
3.134	-229.91638
3.1345	-144.11316
3.135	-110.6781
3.1355	-101.9165
3.136	-106.54907
3.1365	-84.59473
3.137	-44.51294
3.1375	-20.44373
3.138	13.19275
3.1385	42.8009
3.139	74.72534
3.1395	107.05261
3.14	117.62695
3.1405	126.9928
3.141	130.11475
3.1415	132.53174
3.142	174.32556
3.1425	357.00989
3.143	569.30237
3.1435	728.62244
3.144	832.95593
3.1445	919.86694
3.145	938.29651
3.1455	856.11877
3.146	685.21729
3.1465	436.56921
3.147	224.27673
3.1475	40.78674
3.148	-138.47351
3.1485	-304.3396
3.149	-396.48743
3.1495	-464.56604
3.15	-479.77295
3.1505	-418.94531
3.151	-325.38757
3.1515	-206.35071
3.152	-98.29102
3.1525	-27.6947
3.153	164.7583
3.1535	398.703
3.154	597.60132
3.1545	730.53589
3.155	763.26599
3.1555	770.9198
3.156	801.73645
3.1565	831.2439
3.157	721.06934
3.1575	502.23083
3.158	310.98633
3.1585	183.38928
3.159	114.10217
3.1595	126.38855
3.16	123.16589
3.1605	138.67493
3.161	306.15234
3.1615	605.85938
3.162	741.41235
3.1625	654.90417
3.163	479.97437
3.1635	378.46069
3.164	214.10522
3.1645	-15.71045
3.165	-258.71887
3.1655	-525.6958
3.166	-766.79077
3.1665	-969.91882
3.167	-1122.59216
3.1675	-1068.61267
3.168	-939.70642
3.1685	-778.37219
3.169	-659.83887
3.1695	-575.04272
3.17	-576.0498
3.1705	-626.40381
3.171	-670.91675
3.1715	-600.92468
3.172	-446.4386
3.1725	-265.86914
3.173	-110.07385
3.1735	23.56567
3.174	156.80237
3.1745	248.44666
3.175	244.41833
3.1755	222.46399
3.176	301.72119
3.1765	416.83044
3.177	452.98462
3.1775	510.08606
3.178	709.48792
3.1785	780.68848
3.179	820.77026
3.1795	860.54993
3.18	818.85681
3.1805	750.7782
3.181	611.49902
3.1815	401.72424
3.182	122.56165
3.1825	-107.75757
3.183	-26.3855
3.1835	373.42529
3.184	659.83887
3.1845	729.02527
3.185	726.40686
3.1855	699.31641
3.186	574.43848
3.1865	453.79028
3.187	342.30652
3.1875	115.81421
3.188	-219.44275
3.1885	-578.16467
3.189	-881.19507
3.1895	-1175.8667
3.19	-1343.34412
3.1905	-1401.65405
3.191	-1401.45264
3.1915	-1347.67456
3.192	-1198.12317
3.1925	-1047.66541
3.193	-923.49243
3.1935	-772.1283
3.194	-626.80664
3.1945	-530.52979
3.195	-477.05383
3.1955	-415.11841
3.196	-325.6897
3.1965	-229.81567
3.197	-151.26343
3.1975	-86.50818
3.198	-62.43896
3.1985	-47.63489
3.199	-49.64905
3.1995	-49.95117
3.2	-44.21082
3.2005	69.58923
3.201	175.23193
3.2015	222.16187
3.202	235.45532
3.2025	244.92188
3.203	256.80542
3.2035	215.1123
3.204	138.87634
3.2045	139.88342
3.205	234.04541
3.2055	303.73535
3.206	337.87537
3.2065	431.3324
3.207	567.89246
3.2075	732.44934
3.208	822.68372
3.2085	854.80957
3.209	855.2124
3.2095	808.58459
3.21	702.13623
3.2105	538.08289
3.211	399.60938
3.2115	353.28369
3.212	527.30713
3.2125	685.51941
3.213	624.18823
3.2135	472.9248
3.214	338.98315
3.2145	198.19336
3.215	1.3092
3.2155	-241.4978
3.216	-462.854
3.2165	-585.81848
3.217	-728.1189
3.2175	-806.06689
3.218	-812.31079
3.2185	-831.44531
3.219	-778.4729
3.2195	-668.80188
3.22	-584.10645
3.2205	-544.02466
3.221	-550.67139
3.2215	-653.9978
3.222	-785.32104
3.2225	-828.7262
3.223	-753.90015
3.2235	-545.93811
3.224	-354.79431
3.2245	-244.61975
3.225	-191.64734
3.2255	-156.29883
3.226	-102.92358
3.2265	-59.92126
3.227	-23.16284
3.2275	29.00391
3.228	76.84021
3.2285	112.59155
3.229	166.77246
3.2295	286.41357
3.23	527.40784
3.2305	857.32727
3.231	1201.44653
3.2315	1440.32593
3.232	1543.95447
3.2325	1611.026
3.233	1682.02515
3.2335	1638.41858
3.234	1525.92773
3.2345	1332.16553
3.235	1116.34827
3.2355	1057.83691
3.236	1071.23108
3.2365	1028.12805
3.237	774.84741
3.2375	553.08838
3.238	264.25781
3.2385	-85.29968
3.239	-480.07507
3.2395	-856.62231
3.24	-1117.45605
3.2405	-1241.42761
3.241	-1276.67542
3.2415	-1356.73828
3.242	-1400.74768
3.2425	-1297.01843
3.243	-1064.48364
3.2435	-809.8938
3.244	-589.8468
3.2445	-541.80908
3.245	-501.12305
3.2455	-461.64551
3.246	-541.50696
3.2465	-643.52417
3.247	-607.26929
3.2475	-521.26465
3.248	-483.19702
3.2485	-522.27173
3.249	-503.84216
3.2495	-261.84082
3.25	29.20532
3.2505	220.24841
3.251	469.80286
3.2515	641.91284
3.252	697.00012
3.2525	693.37463
3.253	688.84277
3.2535	730.13306
3.254	847.96143
3.2545	900.32959
3.255	903.04871
3.2555	907.37915
3.256	820.26672
3.2565	583.20007
3.257	243.51196
3.2575	-200.0061
3.258	-573.12927
3.2585	-806.87256
3.259	-1066.4978
3.2595	-1289.56604
3.26	-1400.34485
3.2605	-1345.15686
3.261	-1197.61963
3.2615	-1022.4884
3.262	-848.06213
3.2625	-669.50684
3.263	-492.86499
3.2635	-333.44421
3.264	-211.2854
3.2645	-100.10376
3.265	-28.50037
3.2655	17.42249
3.266	35.34851
3.2665	54.48303
3.267	76.13525
3.2675	107.35474
3.268	138.47351
3.2685	168.78662
3.269	209.9762
3.2695	265.86914
3.27	302.32544
3.2705	322.06421
3.271	339.48669
3.2715	363.4552
3.272	456.10657
3.2725	654.40063
3.273	757.22351
3.2735	796.90247
3.274	832.65381
3.2745	823.18726
3.275	1010.40344
3.2755	1424.9176
3.276	1815.26184
3.2765	1998.85254
3.277	2098.15063
3.2775	2094.02148
3.278	1980.52368
3.2785	1726.63879
3.279	1307.29065
3.2795	879.78516
3.28	407.36389
3.2805	-181.87866
3.281	-595.18433
3.2815	-883.81348
3.282	-1069.11621
3.2825	-1019.06433
3.283	-996.60645
3.2835	-979.88892
3.284	-957.12891
3.2845	-951.79138
3.285	-961.15723
3.2855	-1068.41125
3.286	-1192.38281
3.2865	-1298.73047
3.287	-1382.51953
3.2875	-1365.90271
3.288	-1346.8689
3.2885	-1309.30481
3.289	-1247.67151
3.2895	-1166.70227
3.29	-958.63953
3.2905	-787.73804
3.291	-693.67676
3.2915	-580.38025
3.292	-436.97205
3.2925	-324.38049
3.293	-309.57642
3.2935	-356.70776
3.294	-299.10278
3.2945	-154.48608
3.295	29.00391
3.2955	166.16821
3.296	272.31445
3.2965	336.26404
3.297	368.28918
3.2975	356.90918
3.298	335.55908
3.2985	327.40173
3.299	312.69836
3.2995	266.07056
3.3	216.22009
3.3005	218.13354
3.301	384.90601
3.3015	541.20483
3.302	653.39355
3.3025	720.16296
3.303	696.09375
3.3035	544.5282
3.304	406.65894
3.3045	446.74072
3.305	422.87292
3.3055	283.79517
3.306	95.97473
3.3065	-87.91809
3.307	-233.84399
3.3075	-341.09802
3.308	-416.72974
3.3085	-489.2395
3.309	-534.86023
3.3095	-504.245
3.31	-394.77539
3.3105	-313.80615
3.311	-318.84155
3.3115	-310.98633
3.312	-253.38135
3.3125	-213.09814
3.313	-190.64026
3.3135	-199.60327
3.314	-176.64185
3.3145	-120.24536
3.315	-40.38391
3.3155	28.50037
3.316	76.23596
3.3165	105.6427
3.317	157.00378
3.3175	220.85266
3.318	269.69604
3.3185	320.15076
3.319	340.7959
3.3195	349.35608
3.32	341.50085
3.3205	316.42456
3.321	278.05481
3.3215	262.74719
3.322	343.3136
3.3225	493.97278
3.323	620.0592
3.3235	805.96619
3.324	1113.42773
3.3245	1370.33386
3.325	1501.6571
3.3255	1504.87976
3.326	1377.78625
3.3265	1133.26721
3.327	770.21484
3.3275	365.46936
3.328	-17.92603
3.3285	-438.68408
3.329	-827.81982
3.3295	-1094.89746
3.33	-1287.04834
3.3305	-1398.02856
3.331	-1359.15527
3.3315	-1195.10193
3.332	-1023.29407
3.3325	-716.94031
3.333	-336.66687
3.3335	13.39417
3.334	196.68274
3.3345	272.01233
3.335	305.24597
3.3355	318.33801
3.336	280.27039
3.3365	254.69055
3.337	179.96521
3.3375	51.46179
3.338	-103.82996
3.3385	-269.69604
3.339	-438.38196
3.3395	-612.5061
3.34	-718.85376
3.3405	-668.70117
3.341	-504.14429
3.3415	-371.41113
3.342	-306.45447
3.3425	-246.33179
3.343	-181.37512
3.3435	-132.12891
3.344	-86.70959
3.3445	-48.03772
3.345	-31.92444
3.3455	3.32336
3.346	21.85364
3.3465	-0.10071
3.347	6.54602
3.3475	20.64514
3.348	51.66321
3.3485	89.328
3.349	141.39404
3.3495	253.58276
3.35	450.16479
3.3505	620.15991
3.351	976.96838
3.3515	1476.17798
3.352	2092.41016
3.3525	2814.48657
3.353	3240.07861
3.3535	3230.41064
3.354	3216.61377
3.3545	3077.13306
3.355	2643.08154
3.3555	2097.14355
3.356	1331.7627
3.3565	464.36462
3.357	-456.81152
3.3575	-1320.88623
3.358	-2021.31042
3.3585	-2558.08398
3.359	-2935.03418
3.3595	-3171.19434
3.36	-3269.7876
3.3605	-3248.4375
3.361	-3017.41333
3.3615	-2443.67969
3.362	-1822.21069
3.3625	-1340.52429
3.363	-1005.46875
3.3635	-784.11255
3.364	-639.79797
3.3645	-561.54785
3.365	-516.32996
3.3655	-476.651
3.366	-454.89807
3.3665	-416.02478
3.367	-362.44812
3.3675	-303.23181
3.368	-187.11548
3.3685	-46.72852
3.369	124.37439
3.3695	213.19885
3.37	232.13196
3.3705	233.34045
3.371	218.8385
3.3715	187.31689
3.372	117.82837
3.3725	45.62073
3.373	-22.45789
3.3735	-55.08728
3.374	-67.8772
3.3745	-50.05188
3.375	3.02124
3.3755	65.86304
3.376	184.09424
3.3765	303.63464
3.377	412.60071
3.3775	485.71472
3.378	527.20642
3.3785	529.11987
3.379	498.90747
3.3795	452.98462
3.38	403.7384
3.3805	373.32458
3.381	334.65271
3.3815	293.56384
3.382	252.57568
3.3825	198.09265
3.383	139.48059
3.3835	88.22021
3.384	78.04871
3.3845	97.38464
3.385	195.67566
3.3855	357.81555
3.386	505.05066
3.3865	724.79553
3.387	971.22803
3.3875	1459.35974
3.388	1832.88574
3.3885	1984.14917
3.389	1862.4939
3.3895	1532.67517
3.39	1126.92261
3.3905	779.47998
3.391	436.56921
3.3915	-58.41064
3.392	-557.92236
3.3925	-910.60181
3.393	-1177.1759
3.3935	-1384.03015
3.394	-1423.50769
3.3945	-1339.01367
3.395	-1125.41199
3.3955	-940.10925
3.396	-877.46887
3.3965	-832.25098
3.397	-756.92139
3.3975	-739.29749
3.398	-732.24792
3.3985	-683.40454
3.399	-618.95142
3.3995	-562.55493
3.4	-510.48889
3.4005	-482.29065
3.401	-467.48657
3.4015	-362.95166
3.402	-215.91797
3.4025	-147.53723
3.403	-109.26819
3.4035	-57.60498
3.404	10.87646
3.4045	62.53967
3.405	142.80396
3.4055	320.55359
3.406	548.55652
3.4065	703.24402
3.407	733.255
3.4075	695.28809
3.408	636.87744
3.4085	486.01685
3.409	286.91711
3.4095	126.48926
3.41	-16.51611
3.4105	-161.83777
3.411	-331.63147
3.4115	-423.37646
3.412	-380.27344
3.4125	-288.93127
3.413	-222.5647
3.4135	-237.6709
3.414	-212.89673
3.4145	-152.47192
3.415	29.40674
3.4155	286.61499
3.416	541.60767
3.4165	828.12195
3.417	1050.18311
3.4175	1160.7605
3.418	1164.68811
3.4185	1079.99268
3.419	897.50977
3.4195	697.60437
3.42	500.61951
3.4205	301.21765
3.421	107.75757
3.4215	-88.42163
3.422	-251.77002
3.4225	-328.30811
3.423	-371.31042
3.4235	-376.54724
3.424	-326.9989
3.4245	-197.79053
3.425	-135.95581
3.4255	-157.50732
3.426	-197.79053
3.4265	-283.69446
3.427	-271.71021
3.4275	-190.23743
3.428	-23.8678
3.4285	307.26013
3.429	528.2135
3.4295	544.32678
3.43	443.31665
3.4305	294.16809
3.431	161.33423
3.4315	90.63721
3.432	26.08337
3.4325	-89.83154
3.433	-168.4845
3.4335	-217.32788
3.434	-184.19495
3.4345	3.32336
3.435	209.27124
3.4355	438.98621
3.436	638.38806
3.4365	755.71289
3.437	743.42651
3.4375	573.5321
3.438	293.0603
3.4385	-5.53894
3.439	-322.06421
3.4395	-672.42737
3.44	-1010.50415
3.4405	-1228.13416
3.441	-1312.9303
3.4415	-1397.52502
3.442	-1447.97974
3.4425	-1456.74133
3.443	-1340.625
3.4435	-1108.19092
3.444	-851.18408
3.4445	-569.10095
3.445	-347.94617
3.4455	-239.38293
3.446	-227.80151
3.4465	-161.23352
3.447	-79.45862
3.4475	-43.80798
3.448	-23.36426
3.4485	19.23523
3.449	89.73083
3.4495	173.21777
3.45	323.97766
3.4505	465.3717
3.451	557.51953
3.4515	604.24805
3.452	606.96716
3.4525	575.64697
3.453	521.66748
3.4535	438.68408
3.454	339.28528
3.4545	262.24365
3.455	207.76062
3.4555	278.35693
3.456	364.46228
3.4565	445.12939
3.457	537.27722
3.4575	565.77759
3.458	530.22766
3.4585	553.3905
3.459	710.495
3.4595	841.11328
3.46	805.86548
3.4605	631.23779
3.461	372.92175
3.4615	80.26428
3.462	-218.03284
3.4625	-478.96729
3.463	-762.35962
3.4635	-1022.18628
3.464	-1111.01074
3.4645	-1043.93921
3.465	-970.42236
3.4655	-870.62073
3.466	-702.03552
3.4665	-427.50549
3.467	-103.42712
3.4675	106.44836
3.468	177.44751
3.4685	143.81104
3.469	86.60889
3.4695	44.41223
3.47	3.62549
3.4705	-22.55859
3.471	-55.2887
3.4715	-100.90942
3.472	-116.61987
3.4725	-94.46411
3.473	-60.12268
3.4735	-39.57825
3.474	35.95276
3.4745	57.10144
3.475	46.12427
3.4755	41.18958
3.476	34.34143
3.4765	-16.11328
3.477	-65.66162
3.4775	-76.94092
3.478	-80.4657
3.4785	-71.60339
3.479	-62.13684
3.4795	-8.15735
3.48	28.09753
3.4805	53.77808
3.481	75.4303
3.4815	101.11084
3.482	102.31934
3.4825	107.25403
3.483	112.89368
3.4835	137.0636
3.484	161.83777
3.4845	142.90466
3.485	197.28699
3.4855	239.08081
3.486	245.32471
3.4865	245.02258
3.487	218.93921
3.4875	137.66785
3.488	57.40356
3.4885	-5.84106
3.489	-81.06995
3.4895	-146.83228
3.49	-183.89282
3.4905	-214.70947
3.491	-200.0061
3.4915	-129.10767
3.492	28.29895
3.4925	173.11707
3.493	316.32385
3.4935	499.20959
3.494	594.27795
3.4945	618.04504
3.495	647.55249
3.4955	643.82629
3.496	603.54309
3.4965	554.39758
3.497	547.75085
3.4975	519.65332
3.498	443.9209
3.4985	320.45288
3.499	158.11157
3.4995	-23.26355
3.5	-217.83142
3.5005	-423.67859
3.501	-561.24573
3.5015	-611.49902
3.502	-624.69177
3.5025	-548.15369
3.503	-449.66125
3.5035	-308.56934
3.504	-111.08093
3.5045	129.00696
3.505	310.88562
3.5055	386.31592
3.506	506.66199
3.5065	638.8916
3.507	645.33691
3.5075	535.96802
3.508	355.39856
3.5085	127.89917
3.509	-167.47742
3.5095	-408.57239
3.51	-597.50061
3.5105	-778.57361
3.511	-838.69629
3.5115	-688.13782
3.512	-407.4646
3.5125	-142.60254
3.513	29.00391
3.5135	141.59546
3.514	182.48291
3.5145	208.36487
3.515	186.41052
3.5155	102.52075
3.516	-41.18958
3.5165	-193.76221
3.517	-311.28845
3.5175	-381.28052
3.518	-373.02246
3.5185	-352.0752
3.519	-332.94067
3.5195	-300.21057
3.52	-237.26807
3.5205	-175.13123
3.521	-153.17688
3.5215	-146.22803
3.522	-88.32092
3.5225	20.34302
3.523	154.88892
3.5235	260.93445
3.524	417.13257
3.5245	650.07019
3.525	903.55225
3.5255	1069.72046
3.526	1022.68982
3.5265	880.59082
3.527	758.83484
3.5275	723.68774
3.528	612.80823
3.5285	426.69983
3.529	272.9187
3.5295	402.02637
3.53	564.77051
3.5305	533.85315
3.531	367.1814
3.5315	182.88574
3.532	33.13293
3.5325	-85.5011
3.533	-154.88892
3.5335	-193.35938
3.534	-248.64807
3.5345	-454.39453
3.535	-686.42578
3.5355	-833.15735
3.536	-969.6167
3.5365	-994.69299
3.537	-954.30908
3.5375	-885.4248
3.538	-702.63977
3.5385	-443.41736
3.539	-119.84253
3.5395	111.08093
3.54	387.82654
3.5405	768.4021
3.541	1119.97375
3.5415	1300.94604
3.542	1307.29065
3.5425	1167.40723
3.543	863.06763
3.5435	474.83826
3.544	110.07385
3.5445	-235.75745
3.545	-626.3031
3.5455	-986.53564
3.546	-1276.37329
3.5465	-1454.82788
3.547	-1521.89941
3.5475	-1496.92383
3.548	-1395.61157
3.5485	-1248.98071
3.549	-968.50891
3.5495	-680.88684
3.55	-456.71082
3.5505	-318.43872
3.551	-243.20984
3.5515	-202.32239
3.552	-152.37122
3.5525	-89.328
3.553	-46.02356
3.5535	-23.26355
3.554	-5.84106
3.5545	-10.57434
3.555	-13.59558
3.5555	-25.177
3.556	-16.3147
3.5565	-12.18567
3.557	-15.71045
3.5575	25.57983
3.558	217.83142
3.5585	443.61877
3.559	584.00574
3.5595	613.81531
3.56	593.97583
3.5605	526.9043
3.561	425.89417
3.5615	302.02332
3.562	155.69458
3.5625	13.59558
3.563	-81.47278
3.5635	-117.12341
3.564	-62.8418
3.5645	96.47827
3.565	266.6748
3.5655	380.37415
3.566	563.25989
3.5665	824.59717
3.567	1062.26807
3.5675	1172.94617
3.568	1193.89343
3.5685	1127.22473
3.569	987.03918
3.5695	770.51697
3.57	529.62341
3.5705	227.39868
3.571	-88.52234
3.5715	-397.3938
3.572	-722.68066
3.5725	-1119.57092
3.573	-1335.18677
3.5735	-1314.84375
3.574	-1155.12085
3.5745	-945.64819
3.575	-724.59412
3.5755	-568.69812
3.576	-505.05066
3.5765	-455.60303
3.577	-364.26086
3.5775	-265.3656
3.578	-185.70557
3.5785	-129.81262
3.579	-52.8717
3.5795	11.2793
3.58	37.86621
3.5805	63.84888
3.581	137.96997
3.5815	202.82593
3.582	260.3302
3.5825	327.30103
3.583	336.06262
3.5835	369.09485
3.584	408.87451
3.5845	445.63293
3.585	450.16479
3.5855	391.65344
3.586	305.74951
3.5865	228.50647
3.587	140.68909
3.5875	60.62622
3.588	0.70496
3.5885	-14.60266
3.589	-38.06763
3.5895	-26.28479
3.59	-16.61682
3.5905	-26.58691
3.591	23.8678
3.5915	194.66858
3.592	308.67004
3.5925	409.9823
3.593	517.33704
3.5935	684.81445
3.594	811.50513
3.5945	889.55383
3.595	984.52148
3.5955	1029.84009
3.596	1128.73535
3.5965	1187.44812
3.597	1163.78174
3.5975	1028.7323
3.598	742.41943
3.5985	426.39771
3.599	172.3114
3.5995	-88.52234
3.6	-396.48743
3.6005	-703.54614
3.601	-984.11865
3.6015	-1263.98621
3.602	-1433.57849
3.6025	-1401.95618
3.603	-1302.55737
3.6035	-1212.42371
3.604	-1200.43945
3.6045	-1057.43408
3.605	-782.09839
3.6055	-372.3175
3.606	311.18774
3.6065	1004.46167
3.607	1526.22986
3.6075	1963.80615
3.608	2240.45093
3.6085	2338.33911
3.609	2231.28662
3.6095	1889.98718
3.61	1370.73669
3.6105	717.54456
3.611	12.78992
3.6115	-680.98755
3.612	-1298.73047
3.6125	-1705.59082
3.613	-1846.27991
3.6135	-1921.6095
3.614	-1949.70703
3.6145	-1960.78491
3.615	-1958.46863
3.6155	-1829.05884
3.616	-1507.19604
3.6165	-1130.74951
3.617	-854.70886
3.6175	-687.63428
3.618	-565.57617
3.6185	-484.2041
3.619	-406.96106
3.6195	-323.67554
3.62	-209.37195
3.6205	-2.81982
3.621	277.65198
3.6215	613.7146
3.622	905.86853
3.6225	1041.62292
3.623	1004.26025
3.6235	941.922
3.624	988.14697
3.6245	1087.64648
3.625	1054.61426
3.6255	879.18091
3.626	636.67603
3.6265	399.81079
3.627	192.05017
3.6275	-91.8457
3.628	-351.06812
3.6285	-563.15918
3.629	-742.52014
3.6295	-864.67896
3.63	-808.48389
3.6305	-694.78455
3.631	-621.56982
3.6315	-575.14343
3.632	-520.05615
3.6325	-456.5094
3.633	-317.83447
3.6335	-119.13757
3.634	46.02356
3.6345	127.49634
3.635	198.49548
3.6355	233.9447
3.636	207.96204
3.6365	105.94482
3.637	-37.96692
3.6375	-181.37512
3.638	-292.25464
3.6385	-402.12708
3.639	-429.82178
3.6395	-378.96423
3.64	-301.62048
3.6405	-259.62524
3.641	-236.36169
3.6415	-248.44666
3.642	-260.02808
3.6425	-171.90857
3.643	44.71436
3.6435	370.30334
3.644	614.9231
3.6445	824.69788
3.645	1022.99194
3.6455	1273.15063
3.646	1383.4259
3.6465	1315.04517
3.647	1120.98083
3.6475	818.45398
3.648	459.73206
3.6485	99.90234
3.649	-223.97461
3.6495	-548.75793
3.65	-804.05273
3.6505	-943.53333
3.651	-969.21387
3.6515	-999.52698
3.652	-1111.21216
3.6525	-995.59937
3.653	-708.48083
3.6535	-403.03345
3.654	-218.33496
3.6545	-133.43811
3.655	-100.50659
3.6555	-86.60889
3.656	-74.12109
3.6565	-81.47278
3.657	-57.30286
3.6575	17.01965
3.658	101.61438
3.6585	214.40735
3.659	367.58423
3.6595	565.07263
3.66	668.19763
3.6605	667.08984
3.661	652.78931
3.6615	729.4281
3.662	979.08325
3.6625	1190.77148
3.663	1396.82007
3.6635	1494.90967
3.664	1530.05676
3.6645	1531.46667
3.665	1409.71069
3.6655	1171.53625
3.666	854.20532
3.6665	619.25354
3.667	363.25378
3.6675	46.12427
3.668	-278.35693
3.6685	-563.66272
3.669	-711.30066
3.6695	-721.17004
3.67	-715.73181
3.6705	-706.06384
3.671	-712.50916
3.6715	-716.33606
3.672	-609.08203
3.6725	-469.70215
3.673	-309.77783
3.6735	-186.81335
3.674	-221.75903
3.6745	-325.89111
3.675	-403.23486
3.6755	-468.29224
3.676	-455.50232
3.6765	-495.38269
3.677	-585.21423
3.6775	-669.30542
3.678	-767.29431
3.6785	-795.99609
3.679	-729.12598
3.6795	-634.25903
3.68	-546.34094
3.6805	-504.3457
3.681	-415.31982
3.6815	-254.28772
3.682	-9.06372
3.6825	221.75903
3.683	392.76123
3.6835	501.22375
3.684	542.91687
3.6845	514.92004
3.685	559.43298
3.6855	546.44165
3.686	399.9115
3.6865	210.17761
3.687	23.8678
3.6875	-143.00537
3.688	-303.93677
3.6885	-442.30957
3.689	-520.6604
3.6895	-527.005
3.69	-549.06006
3.6905	-514.81934
3.691	-435.56213
3.6915	-344.6228
3.692	-201.41602
3.6925	-68.17932
3.693	115.91492
3.6935	378.66211
3.694	694.48242
3.6945	900.93384
3.695	982.00378
3.6955	1076.5686
3.696	1106.78101
3.6965	1024.30115
3.697	867.90161
3.6975	872.03064
3.698	896.09985
3.6985	753.49731
3.699	478.56445
3.6995	167.07458
3.7	-75.02747
3.7005	-292.25464
3.701	-524.08447
3.7015	-818.45398
3.702	-1037.5946
3.7025	-1106.27747
3.703	-1035.37903
3.7035	-929.03137
3.704	-868.80798
3.7045	-783.00476
3.705	-568.396
3.7055	-234.44824
3.706	19.03381
3.7065	121.35315
3.707	282.18384
3.7075	436.46851
3.708	498.40393
3.7085	446.84143
3.709	321.66138
3.7095	145.01953
3.71	-74.2218
3.7105	-274.93286
3.711	-436.3678
3.7115	-510.38818
3.712	-545.23315
3.7125	-602.33459
3.713	-648.9624
3.7135	-615.0238
3.714	-592.76733
3.7145	-553.99475
3.715	-460.3363
3.7155	-290.84473
3.716	-138.47351
3.7165	-31.52161
3.717	26.68762
3.7175	48.33984
3.718	81.06995
3.7185	113.49792
3.719	142.50183
3.7195	155.29175
3.72	202.72522
3.7205	234.34753
3.721	250.96436
3.7215	269.49463
3.722	272.21375
3.7225	288.22632
3.723	437.77771
3.7235	602.83813
3.724	666.28418
3.7245	690.85693
3.725	699.41711
3.7255	709.08508
3.726	680.98755
3.7265	566.28113
3.727	389.13574
3.7275	164.25476
3.728	-46.82922
3.7285	-241.4978
3.729	-415.72266
3.7295	-538.48572
3.73	-573.4314
3.7305	-564.56909
3.731	-542.41333
3.7315	-444.82727
3.732	-251.66931
3.7325	-55.79224
3.733	111.58447
3.7335	254.99268
3.734	477.25525
3.7345	661.24878
3.735	761.25183
3.7355	803.24707
3.736	816.64124
3.7365	840.30762
3.737	955.31616
3.7375	1005.56946
3.738	1131.35376
3.7385	1347.77527
3.739	1308.49915
3.7395	1061.26099
3.74	747.45483
3.7405	352.67944
3.741	-61.93542
3.7415	-422.77222
3.742	-717.74597
3.7425	-838.59558
3.743	-812.61292
3.7435	-670.21179
3.744	-530.12695
3.7445	-392.86194
3.745	-255.09338
3.7455	-208.36487
3.746	-262.64648
3.7465	-292.65747
3.747	-228.10364
3.7475	-98.79456
3.748	171.0022
3.7485	538.08289
3.749	759.6405
3.7495	850.57983
3.75	852.39258
3.7505	782.80334
3.751	626.00098
3.7515	330.7251
3.752	-47.63489
3.7525	-484.60693
3.753	-890.86304
3.7535	-1240.52124
3.754	-1543.24951
3.7545	-1766.72058
3.755	-1844.56787
3.7555	-1738.22021
3.756	-1455.43213
3.7565	-1165.19165
3.757	-898.81897
3.7575	-705.25818
3.758	-513.91296
3.7585	-346.63696
3.759	-238.77869
3.7595	-160.52856
3.76	-74.32251
3.7605	-46.72852
3.761	-95.77332
3.7615	-202.72522
3.762	-255.2948
3.7625	-240.59143
3.763	-175.73547
3.7635	-91.04004
3.764	-40.98816
3.7645	-8.05664
3.765	0.90637
3.7655	19.83948
3.766	45.82214
3.7665	92.55066
3.767	120.95032
3.7675	129.5105
3.768	146.53015
3.7685	160.83069
3.769	162.13989
3.7695	139.37988
3.77	98.19031
3.7705	81.67419
3.771	131.42395
3.7715	206.65283
3.772	271.00525
3.7725	276.94702
3.773	226.29089
3.7735	155.29175
3.774	111.48376
3.7745	112.59155
3.775	166.16821
3.7755	233.13904
3.776	302.12402
3.7765	430.52673
3.777	609.08203
3.7775	793.47839
3.778	926.9165
3.7785	969.51599
3.779	892.8772
3.7795	742.0166
3.78	574.23706
3.7805	359.6283
