Franco_Uliana_Left_1.c3d  



Time(s):	A_L_bicipite(μV):
0	0
0.0005	6.84814
0.001	9.36584
0.0015	16.3147
0.002	11.58142
0.0025	15.91187
0.003	16.3147
0.0035	19.53735
0.004	19.73877
0.0045	16.51611
0.005	14.50195
0.0055	10.17151
0.006	18.63098
0.0065	12.99133
0.007	6.84814
0.0075	11.58142
0.008	10.17151
0.0085	3.7262
0.009	12.5885
0.0095	6.3446
0.01	6.74744
0.0105	11.38
0.011	8.56018
0.0115	6.94885
0.012	5.74036
0.0125	5.23682
0.013	5.0354
0.0135	7.85522
0.014	16.21399
0.0145	28.09753
0.015	34.94568
0.0155	42.09595
0.016	39.88037
0.0165	37.86621
0.017	25.88196
0.0175	24.27063
0.018	4.93469
0.0185	-3.42407
0.019	-8.56018
0.0195	-11.88354
0.02	-12.99133
0.0205	-17.22107
0.021	-16.41541
0.0215	-10.87646
0.022	-7.45239
0.0225	-3.22266
0.023	-4.43115
0.0235	-1.3092
0.024	0.80566
0.0245	2.5177
0.025	0.70496
0.0255	3.42407
0.026	0.10071
0.0265	-1.3092
0.027	-3.7262
0.0275	-6.84814
0.028	2.21558
0.0285	5.94177
0.029	6.64673
0.0295	5.53894
0.03	5.33752
0.0305	4.12903
0.031	12.68921
0.0315	8.66089
0.032	6.74744
0.0325	7.85522
0.033	4.33044
0.0335	7.5531
0.034	6.14319
0.0345	7.85522
0.035	8.96301
0.0355	1.61133
0.036	7.15027
0.0365	4.43115
0.037	5.23682
0.0375	9.36584
0.038	4.22974
0.0385	4.33044
0.039	-0.80566
0.0395	5.33752
0.04	3.12195
0.0405	10.77576
0.041	7.65381
0.0415	2.21558
0.042	6.2439
0.0425	10.57434
0.043	8.25806
0.0435	6.14319
0.044	4.33044
0.0445	4.02832
0.045	4.33044
0.0455	7.35168
0.046	3.42407
0.0465	6.44531
0.047	8.45947
0.0475	0.40283
0.048	5.74036
0.0485	6.2439
0.049	4.43115
0.0495	1.71204
0.05	4.22974
0.0505	5.84106
0.051	8.8623
0.0515	5.13611
0.052	5.13611
0.0525	7.45239
0.053	7.5531
0.0535	4.73328
0.054	5.53894
0.0545	10.77576
0.055	10.67505
0.0555	10.57434
0.056	7.95593
0.0565	7.95593
0.057	10.97717
0.0575	8.7616
0.058	4.02832
0.0585	1.81274
0.059	4.73328
0.0595	6.44531
0.06	9.06372
0.0605	7.5531
0.061	10.87646
0.0615	6.64673
0.062	9.36584
0.0625	14.40125
0.063	9.76868
0.0635	12.68921
0.064	10.37292
0.0645	2.5177
0.065	3.8269
0.0655	6.44531
0.066	8.45947
0.0665	6.44531
0.067	5.84106
0.0675	0.30212
0.068	5.13611
0.0685	6.04248
0.069	2.92053
0.0695	3.42407
0.07	-0.20142
0.0705	5.0354
0.071	2.11487
0.0715	7.25098
0.072	13.29346
0.0725	12.48779
0.073	18.32886
0.0735	26.08337
0.074	28.39966
0.0745	33.13293
0.075	30.11169
0.0755	29.91028
0.076	23.76709
0.0765	17.52319
0.077	24.67346
0.0775	25.37842
0.078	22.45789
0.0785	12.18567
0.079	6.2439
0.0795	5.33752
0.08	-2.41699
0.0805	-9.06372
0.081	-16.81824
0.0815	-20.74585
0.082	-21.04797
0.0825	-25.68054
0.083	-22.45789
0.0835	-21.85364
0.084	-18.8324
0.0845	-15.91187
0.085	-9.86938
0.0855	-7.04956
0.086	-10.0708
0.0865	2.71912
0.087	8.05664
0.0875	7.15027
0.088	5.74036
0.0885	12.28638
0.089	14.80408
0.0895	12.78992
0.09	11.98425
0.0905	15.00549
0.091	8.96301
0.0915	16.01257
0.092	6.04248
0.0925	9.06372
0.093	7.75452
0.0935	10.57434
0.094	1.81274
0.0945	6.94885
0.095	7.04956
0.0955	5.43823
0.096	9.06372
0.0965	4.53186
0.097	4.93469
0.0975	4.83398
0.098	3.7262
0.0985	3.12195
0.099	2.92053
0.0995	11.07788
0.1	11.48071
0.1005	3.7262
0.101	2.11487
0.1015	-4.63257
0.102	-0.10071
0.1025	2.41699
0.103	-0.40283
0.1035	-3.42407
0.104	-4.22974
0.1045	2.21558
0.105	-4.33044
0.1055	2.71912
0.106	3.02124
0.1065	3.12195
0.107	3.12195
0.1075	-1.51062
0.108	1.61133
0.1085	2.92053
0.109	-2.21558
0.1095	4.73328
0.11	1.3092
0.1105	0.80566
0.111	2.01416
0.1115	3.22266
0.112	1.91345
0.1125	2.21558
0.113	-2.81982
0.1135	-0.40283
0.114	1.61133
0.1145	11.07788
0.115	30.81665
0.1155	37.66479
0.116	38.77258
0.1165	34.24072
0.117	28.29895
0.1175	17.32178
0.118	13.49487
0.1185	-0.90637
0.119	-5.33752
0.1195	-9.26514
0.12	-14.60266
0.1205	-19.73877
0.121	-25.47913
0.1215	-16.91895
0.122	-10.0708
0.1225	-3.52478
0.123	3.92761
0.1235	1.3092
0.124	4.43115
0.1245	8.96301
0.125	16.71753
0.1255	25.47913
0.126	30.91736
0.1265	34.84497
0.127	36.35559
0.1275	36.95984
0.128	34.94568
0.1285	34.84497
0.129	33.33435
0.1295	35.85205
0.13	24.67346
0.1305	19.03381
0.131	12.38708
0.1315	7.15027
0.132	0.70496
0.1325	-4.83398
0.133	-7.25098
0.1335	-14.60266
0.134	-18.22815
0.1345	-17.42249
0.135	-17.52319
0.1355	-19.63806
0.136	-17.12036
0.1365	-18.12744
0.137	-12.48779
0.1375	-13.29346
0.138	-11.38
0.1385	-3.7262
0.139	-4.93469
0.1395	4.22974
0.14	3.32336
0.1405	7.04956
0.141	10.47363
0.1415	13.89771
0.142	10.67505
0.1425	16.91895
0.143	19.33594
0.1435	15.60974
0.144	18.63098
0.1445	14.30054
0.145	13.29346
0.1455	12.68921
0.146	5.53894
0.1465	4.83398
0.147	13.29346
0.1475	10.37292
0.148	8.05664
0.1485	9.36584
0.149	18.93311
0.1495	12.08496
0.15	12.48779
0.1505	7.15027
0.151	7.5531
0.1515	10.77576
0.152	15.50903
0.1525	13.49487
0.153	13.19275
0.1535	14.80408
0.154	16.21399
0.1545	19.63806
0.155	19.03381
0.1555	23.56567
0.156	20.64514
0.1565	14.19983
0.157	12.78992
0.1575	11.78284
0.158	8.56018
0.1585	0.70496
0.159	-8.15735
0.1595	-11.58142
0.16	-15.71045
0.1605	-13.59558
0.161	-19.03381
0.1615	-15.00549
0.162	-12.18567
0.1625	-11.38
0.163	-12.78992
0.1635	-8.66089
0.164	-3.92761
0.1645	-6.54602
0.165	-2.41699
0.1655	9.26514
0.166	6.2439
0.1665	6.04248
0.167	10.0708
0.1675	12.28638
0.168	13.39417
0.1685	21.45081
0.169	15.60974
0.1695	12.08496
0.17	12.08496
0.1705	5.94177
0.171	9.06372
0.1715	12.28638
0.172	9.36584
0.1725	14.19983
0.173	11.78284
0.1735	7.15027
0.174	3.52478
0.1745	3.7262
0.175	10.77576
0.1755	9.66797
0.176	2.31628
0.1765	3.12195
0.177	3.52478
0.1775	7.25098
0.178	4.93469
0.1785	5.33752
0.179	7.85522
0.1795	8.35876
0.18	10.0708
0.1805	8.45947
0.181	15.30762
0.1815	11.58142
0.182	9.36584
0.1825	10.0708
0.183	9.46655
0.1835	2.81982
0.184	5.43823
0.1845	6.04248
0.185	1.3092
0.1855	4.02832
0.186	7.95593
0.1865	8.96301
0.187	4.43115
0.1875	4.63257
0.188	12.48779
0.1885	14.19983
0.189	15.30762
0.1895	10.0708
0.19	8.8623
0.1905	1.10779
0.191	2.61841
0.1915	5.63965
0.192	4.22974
0.1925	-1.40991
0.193	4.63257
0.1935	4.33044
0.194	2.61841
0.1945	8.15735
0.195	11.2793
0.1955	9.06372
0.196	5.23682
0.1965	10.77576
0.197	10.57434
0.1975	11.98425
0.198	9.86938
0.1985	9.97009
0.199	9.76868
0.1995	10.87646
0.2	5.94177
0.2005	9.06372
0.201	6.84814
0.2015	6.64673
0.202	5.13611
0.2025	4.73328
0.203	-1.2085
0.2035	3.02124
0.204	24.37134
0.2045	36.25488
0.205	47.13135
0.2055	38.47046
0.206	33.13293
0.2065	30.11169
0.207	23.06213
0.2075	9.36584
0.208	-0.90637
0.2085	-20.34302
0.209	-22.86072
0.2095	-28.39966
0.21	-30.51453
0.2105	-20.94727
0.211	-20.54443
0.2115	-17.01965
0.212	-12.68921
0.2125	-12.48779
0.213	-8.96301
0.2135	-4.93469
0.214	-1.51062
0.2145	0.90637
0.215	0
0.2155	5.43823
0.216	7.45239
0.2165	13.99841
0.217	13.59558
0.2175	13.19275
0.218	17.6239
0.2185	22.76001
0.219	19.94019
0.2195	20.24231
0.22	14.50195
0.2205	14.30054
0.221	8.05664
0.2215	8.96301
0.222	10.57434
0.2225	5.74036
0.223	7.95593
0.2235	4.43115
0.224	-0.40283
0.2245	2.92053
0.225	4.12903
0.2255	2.41699
0.226	-1.71204
0.2265	-1.61133
0.227	2.31628
0.2275	3.52478
0.228	12.38708
0.2285	7.5531
0.229	10.47363
0.2295	9.97009
0.23	25.47913
0.2305	30.31311
0.231	31.21948
0.2315	24.47205
0.232	26.18408
0.2325	31.72302
0.233	24.67346
0.2335	21.55151
0.234	21.45081
0.2345	14.90479
0.235	12.89062
0.2355	10.97717
0.236	2.21558
0.2365	4.93469
0.237	-1.10779
0.2375	-4.53186
0.238	-7.15027
0.2385	-13.19275
0.239	-17.01965
0.2395	-15.81116
0.24	-13.09204
0.2405	-13.19275
0.241	-6.54602
0.2415	-12.28638
0.242	-5.53894
0.2425	-0.90637
0.243	2.71912
0.2435	2.31628
0.244	-1.00708
0.2445	-4.12903
0.245	0.90637
0.2455	2.5177
0.246	5.33752
0.2465	5.13611
0.247	4.93469
0.2475	0.40283
0.248	0.30212
0.2485	4.93469
0.249	3.62549
0.2495	2.5177
0.25	4.02832
0.2505	1.10779
0.251	-0.40283
0.2515	-0.70496
0.252	3.52478
0.2525	7.04956
0.253	9.86938
0.2535	2.92053
0.254	1.10779
0.2545	2.81982
0.255	4.73328
0.2555	4.33044
0.256	5.74036
0.2565	-1.2085
0.257	-0.40283
0.2575	3.7262
0.258	8.8623
0.2585	12.38708
0.259	14.60266
0.2595	16.81824
0.26	16.81824
0.2605	24.67346
0.261	29.40674
0.2615	34.44214
0.262	29.00391
0.2625	26.08337
0.263	24.87488
0.2635	22.55859
0.264	15.71045
0.2645	12.89062
0.265	6.3446
0.2655	1.00708
0.266	-2.21558
0.2665	-11.78284
0.267	-16.3147
0.2675	-15.91187
0.268	-21.75293
0.2685	-22.55859
0.269	-25.37842
0.2695	-27.29187
0.27	-26.58691
0.2705	-21.75293
0.271	-17.01965
0.2715	-7.5531
0.272	2.61841
0.2725	0.70496
0.273	3.42407
0.2735	8.25806
0.274	7.25098
0.2745	5.53894
0.275	9.76868
0.2755	15.60974
0.276	20.1416
0.2765	20.44373
0.277	18.53027
0.2775	18.22815
0.278	15.40833
0.2785	16.11328
0.279	13.49487
0.2795	12.89062
0.28	13.797
0.2805	7.85522
0.281	1.2085
0.2815	1.2085
0.282	-0.70496
0.2825	-0.90637
0.283	0.50354
0.2835	4.73328
0.284	8.96301
0.2845	25.07629
0.285	36.25488
0.2855	39.17542
0.286	40.38391
0.2865	30.51453
0.287	28.09753
0.2875	15.60974
0.288	4.22974
0.2885	-7.25098
0.289	-12.99133
0.2895	-15.20691
0.29	-23.46497
0.2905	-26.88904
0.291	-24.06921
0.2915	-26.3855
0.292	-15.1062
0.2925	-0.70496
0.293	3.7262
0.2935	10.57434
0.294	6.2439
0.2945	11.2793
0.295	9.76868
0.2955	11.2793
0.296	7.75452
0.2965	11.58142
0.297	11.07788
0.2975	13.59558
0.298	10.87646
0.2985	11.17859
0.299	8.45947
0.2995	9.66797
0.3	1.2085
0.3005	0.80566
0.301	-2.61841
0.3015	-1.3092
0.302	0.50354
0.3025	0.90637
0.303	2.61841
0.3035	-1.00708
0.304	0.60425
0.3045	3.52478
0.305	12.68921
0.3055	21.95435
0.306	22.76001
0.3065	32.93152
0.307	29.60815
0.3075	31.62231
0.308	28.09753
0.3085	24.57275
0.309	11.58142
0.3095	8.35876
0.31	2.81982
0.3105	-1.91345
0.311	-4.02832
0.3115	-10.27222
0.312	-10.97717
0.3125	-8.56018
0.313	-11.07788
0.3135	-11.78284
0.314	-13.39417
0.3145	-6.64673
0.315	-11.58142
0.3155	-13.39417
0.316	-15.1062
0.3165	-6.3446
0.317	1.71204
0.3175	1.71204
0.318	-1.81274
0.3185	-3.02124
0.319	5.0354
0.3195	6.74744
0.32	9.06372
0.3205	9.86938
0.321	8.05664
0.3215	6.74744
0.322	10.37292
0.3225	12.48779
0.323	11.88354
0.3235	4.12903
0.324	11.98425
0.3245	9.56726
0.325	9.06372
0.3255	4.33044
0.326	3.8269
0.3265	4.02832
0.327	4.43115
0.3275	0
0.328	1.40991
0.3285	1.2085
0.329	2.5177
0.3295	1.3092
0.33	0
0.3305	-2.61841
0.331	-4.93469
0.3315	3.92761
0.332	4.83398
0.3325	4.73328
0.333	7.75452
0.3335	4.53186
0.334	2.11487
0.3345	0.70496
0.335	0.80566
0.3355	-1.61133
0.336	-3.02124
0.3365	-0.20142
0.337	6.94885
0.3375	15.81116
0.338	19.23523
0.3385	21.75293
0.339	21.55151
0.3395	24.97559
0.34	22.35718
0.3405	22.35718
0.341	18.32886
0.3415	22.15576
0.342	19.03381
0.3425	12.18567
0.343	9.56726
0.3435	4.93469
0.344	3.8269
0.3445	2.31628
0.345	2.5177
0.3455	0.90637
0.346	5.63965
0.3465	14.70337
0.347	31.62231
0.3475	39.37683
0.348	41.99524
0.3485	41.18958
0.349	34.94568
0.3495	36.15417
0.35	26.68762
0.3505	18.93311
0.351	18.32886
0.3515	0.20142
0.352	1.3092
0.3525	-5.33752
0.353	-3.7262
0.3535	-4.02832
0.354	-4.63257
0.3545	-3.02124
0.355	-8.25806
0.3555	-15.30762
0.356	-28.9032
0.3565	-29.60815
0.357	-23.56567
0.3575	-22.25647
0.358	-26.18408
0.3585	-18.93311
0.359	-13.59558
0.3595	-14.19983
0.36	-5.23682
0.3605	6.14319
0.361	3.52478
0.3615	5.94177
0.362	11.58142
0.3625	10.37292
0.363	6.54602
0.3635	11.88354
0.364	15.1062
0.3645	11.38
0.365	20.44373
0.3655	12.08496
0.366	8.8623
0.3665	10.17151
0.367	7.65381
0.3675	6.54602
0.368	12.08496
0.3685	11.68213
0.369	12.99133
0.3695	6.94885
0.37	7.35168
0.3705	9.46655
0.371	5.84106
0.3715	8.25806
0.372	9.97009
0.3725	6.04248
0.373	5.33752
0.3735	6.44531
0.374	4.83398
0.3745	-5.43823
0.375	1.40991
0.3755	2.01416
0.376	0.30212
0.3765	9.36584
0.377	-1.91345
0.3775	0.10071
0.378	4.22974
0.3785	4.02832
0.379	2.01416
0.3795	6.14319
0.38	-0.30212
0.3805	4.63257
0.381	-0.70496
0.3815	5.63965
0.382	5.43823
0.3825	7.95593
0.383	7.15027
0.3835	5.74036
0.384	4.02832
0.3845	2.31628
0.385	4.83398
0.3855	12.28638
0.386	10.17151
0.3865	11.07788
0.387	11.48071
0.3875	10.37292
0.388	12.28638
0.3885	5.13611
0.389	10.57434
0.3895	7.75452
0.39	6.74744
0.3905	1.2085
0.391	6.14319
0.3915	2.61841
0.392	1.61133
0.3925	2.71912
0.393	-2.71912
0.3935	0.90637
0.394	-0.70496
0.3945	-3.02124
0.395	-2.41699
0.3955	-0.50354
0.396	0.10071
0.3965	0.70496
0.397	0.90637
0.3975	1.40991
0.398	6.84814
0.3985	6.94885
0.399	6.2439
0.3995	7.95593
0.4	7.25098
0.4005	10.27222
0.401	9.26514
0.4015	7.65381
0.402	13.09204
0.4025	9.66797
0.403	6.3446
0.4035	3.92761
0.404	1.81274
0.4045	-1.00708
0.405	9.36584
0.4055	3.52478
0.406	1.91345
0.4065	-1.3092
0.407	-12.38708
0.4075	-12.48779
0.408	-3.8269
0.4085	-4.02832
0.409	-5.33752
0.4095	-10.17151
0.41	-8.45947
0.4105	0.70496
0.411	-6.64673
0.4115	-3.52478
0.412	3.52478
0.4125	-0.70496
0.413	3.42407
0.4135	3.8269
0.414	3.12195
0.4145	-0.20142
0.415	4.63257
0.4155	5.94177
0.416	4.43115
0.4165	2.5177
0.417	-3.22266
0.4175	2.41699
0.418	3.22266
0.4185	3.12195
0.419	5.33752
0.4195	3.8269
0.42	5.53894
0.4205	6.14319
0.421	8.8623
0.4215	12.18567
0.422	10.67505
0.4225	6.94885
0.423	6.3446
0.4235	10.17151
0.424	11.48071
0.4245	10.37292
0.425	8.96301
0.4255	4.02832
0.426	10.87646
0.4265	5.63965
0.427	11.68213
0.4275	10.87646
0.428	12.38708
0.4285	5.33752
0.429	10.0708
0.4295	7.5531
0.43	5.63965
0.4305	7.35168
0.431	6.54602
0.4315	8.25806
0.432	8.7616
0.4325	8.8623
0.433	9.06372
0.4335	8.7616
0.434	6.44531
0.4345	4.53186
0.435	6.04248
0.4355	5.94177
0.436	9.16443
0.4365	7.04956
0.437	2.31628
0.4375	11.07788
0.438	8.15735
0.4385	6.74744
0.439	0.40283
0.4395	9.36584
0.44	6.44531
0.4405	6.44531
0.441	5.43823
0.4415	2.11487
0.442	7.75452
0.4425	2.61841
0.443	8.96301
0.4435	6.74744
0.444	11.98425
0.4445	5.84106
0.445	4.53186
0.4455	5.94177
0.446	9.46655
0.4465	5.0354
0.447	10.77576
0.4475	4.12903
0.448	7.95593
0.4485	13.49487
0.449	6.84814
0.4495	5.0354
0.45	13.29346
0.4505	9.66797
0.451	10.0708
0.4515	9.46655
0.452	3.92761
0.4525	4.83398
0.453	2.21558
0.4535	4.53186
0.454	8.7616
0.4545	4.02832
0.455	2.5177
0.4555	3.52478
0.456	4.73328
0.4565	6.3446
0.457	5.33752
0.4575	4.22974
0.458	4.93469
0.4585	24.47205
0.459	34.14001
0.4595	38.974
0.46	41.39099
0.4605	41.39099
0.461	32.02515
0.4615	24.87488
0.462	16.21399
0.4625	8.25806
0.463	-5.94177
0.4635	-10.77576
0.464	-19.63806
0.4645	-19.83948
0.465	-25.57983
0.4655	-24.97559
0.466	-24.77417
0.4665	-20.24231
0.467	-16.71753
0.4675	-22.15576
0.468	-9.46655
0.4685	-10.67505
0.469	-8.25806
0.4695	-2.41699
0.47	-4.43115
0.4705	2.5177
0.471	4.33044
0.4715	9.46655
0.472	11.48071
0.4725	8.96301
0.473	11.58142
0.4735	7.5531
0.474	6.54602
0.4745	9.26514
0.475	8.35876
0.4755	6.64673
0.476	5.74036
0.4765	3.42407
0.477	9.86938
0.4775	1.61133
0.478	-2.11487
0.4785	0.10071
0.479	3.52478
0.4795	4.22974
0.48	2.71912
0.4805	3.02124
0.481	2.81982
0.4815	1.71204
0.482	5.43823
0.4825	6.84814
0.483	5.94177
0.4835	2.71912
0.484	3.02124
0.4845	5.94177
0.485	2.61841
0.4855	5.63965
0.486	2.92053
0.4865	-0.30212
0.487	6.14319
0.4875	6.04248
0.488	3.32336
0.4885	10.67505
0.489	11.88354
0.4895	6.04248
0.49	4.43115
0.4905	7.95593
0.491	8.15735
0.4915	1.81274
0.492	1.91345
0.4925	1.00708
0.493	0.60425
0.4935	1.51062
0.494	8.66089
0.4945	5.53894
0.495	6.84814
0.4955	3.02124
0.496	2.11487
0.4965	4.22974
0.497	0
0.4975	4.63257
0.498	6.44531
0.4985	1.3092
0.499	5.33752
0.4995	9.86938
0.5	5.84106
0.5005	8.56018
0.501	1.51062
0.5015	2.71912
0.502	-1.71204
0.5025	1.2085
0.503	2.81982
0.5035	6.84814
0.504	8.05664
0.5045	3.8269
0.505	6.94885
0.5055	6.3446
0.506	1.40991
0.5065	-0.30212
0.507	4.73328
0.5075	-3.02124
0.508	-2.61841
0.5085	0.80566
0.509	3.92761
0.5095	6.64673
0.51	6.44531
0.5105	13.89771
0.511	13.29346
0.5115	9.76868
0.512	16.01257
0.5125	20.04089
0.513	25.47913
0.5135	28.50037
0.514	30.2124
0.5145	29.10461
0.515	21.55151
0.5155	20.1416
0.516	14.30054
0.5165	11.98425
0.517	9.76868
0.5175	2.11487
0.518	-5.94177
0.5185	-13.89771
0.519	-13.69629
0.5195	-23.8678
0.52	-21.65222
0.5205	-24.97559
0.521	-20.04089
0.5215	-23.36426
0.522	-21.55151
0.5225	-18.73169
0.523	-15.30762
0.5235	-9.56726
0.524	-5.74036
0.5245	-9.97009
0.525	0.80566
0.5255	6.14319
0.526	7.5531
0.5265	0.40283
0.527	9.06372
0.5275	8.8623
0.528	5.33752
0.5285	14.60266
0.529	10.87646
0.5295	8.56018
0.53	7.85522
0.5305	1.81274
0.531	0.70496
0.5315	5.53894
0.532	2.21558
0.5325	1.2085
0.533	2.61841
0.5335	3.02124
0.534	4.93469
0.5345	9.66797
0.535	12.18567
0.5355	10.87646
0.536	12.89062
0.5365	7.95593
0.537	5.33752
0.5375	1.51062
0.538	4.63257
0.5385	5.33752
0.539	11.88354
0.5395	8.8623
0.54	4.12903
0.5405	5.0354
0.541	4.53186
0.5415	5.84106
0.542	7.45239
0.5425	9.76868
0.543	9.76868
0.5435	6.2439
0.544	9.76868
0.5445	11.58142
0.545	11.68213
0.5455	11.88354
0.546	9.86938
0.5465	8.35876
0.547	1.71204
0.5475	5.74036
0.548	5.63965
0.5485	5.43823
0.549	5.0354
0.5495	8.66089
0.55	2.31628
0.5505	2.31628
0.551	3.52478
0.5515	6.14319
0.552	5.0354
0.5525	-5.13611
0.553	-3.62549
0.5535	-5.74036
0.554	-6.84814
0.5545	-1.91345
0.555	4.22974
0.5555	10.27222
0.556	12.08496
0.5565	11.98425
0.557	8.66089
0.5575	11.88354
0.558	9.56726
0.5585	9.16443
0.559	3.12195
0.5595	7.35168
0.56	8.66089
0.5605	14.19983
0.561	11.38
0.5615	10.17151
0.562	9.26514
0.5625	8.35876
0.563	4.63257
0.5635	9.46655
0.564	3.92761
0.5645	4.12903
0.565	5.43823
0.5655	4.43115
0.566	8.66089
0.5665	8.05664
0.567	9.26514
0.5675	5.74036
0.568	4.43115
0.5685	2.61841
0.569	8.15735
0.5695	8.56018
0.57	5.53894
0.5705	5.33752
0.571	3.22266
0.5715	3.7262
0.572	2.01416
0.5725	0.10071
0.573	3.32336
0.5735	4.12903
0.574	1.61133
0.5745	3.62549
0.575	6.04248
0.5755	4.93469
0.576	6.14319
0.5765	-0.60425
0.577	1.61133
0.5775	9.56726
0.578	1.81274
0.5785	6.54602
0.579	2.92053
0.5795	4.63257
0.58	4.12903
0.5805	-2.31628
0.581	-1.10779
0.5815	3.7262
0.582	6.04248
0.5825	1.81274
0.583	2.71912
0.5835	3.12195
0.584	-0.80566
0.5845	5.74036
0.585	4.22974
0.5855	5.23682
0.586	3.7262
0.5865	0.70496
0.587	-2.81982
0.5875	-1.00708
0.588	3.22266
0.5885	6.14319
0.589	1.61133
0.5895	4.73328
0.59	6.04248
0.5905	3.42407
0.591	0.20142
0.5915	1.40991
0.592	0.40283
0.5925	4.93469
0.593	3.12195
0.5935	4.02832
0.594	1.91345
0.5945	5.0354
0.595	8.45947
0.5955	0.30212
0.596	3.7262
0.5965	4.83398
0.597	4.12903
0.5975	0.20142
0.598	6.3446
0.5985	4.43115
0.599	2.61841
0.5995	0.40283
0.6	3.52478
0.6005	5.23682
0.601	3.22266
0.6015	-2.5177
0.602	6.44531
0.6025	6.64673
0.603	2.11487
0.6035	-3.52478
0.604	2.5177
0.6045	6.74744
0.605	5.0354
0.6055	2.61841
0.606	2.71912
0.6065	2.01416
0.607	6.44531
0.6075	4.73328
0.608	3.92761
0.6085	8.66089
0.609	7.5531
0.6095	1.51062
0.61	3.12195
0.6105	-0.90637
0.611	4.33044
0.6115	0.80566
0.612	3.62549
0.6125	3.22266
0.613	-1.2085
0.6135	2.61841
0.614	2.71912
0.6145	2.5177
0.615	-0.70496
0.6155	5.13611
0.616	6.14319
0.6165	7.25098
0.617	1.3092
0.6175	1.10779
0.618	7.65381
0.6185	2.5177
0.619	3.12195
0.6195	5.0354
0.62	5.94177
0.6205	4.73328
0.621	4.73328
0.6215	1.91345
0.622	3.12195
0.6225	5.13611
0.623	-0.50354
0.6235	2.5177
0.624	4.12903
0.6245	3.12195
0.625	5.23682
0.6255	2.5177
0.626	6.84814
0.6265	6.94885
0.627	5.94177
0.6275	1.71204
0.628	2.92053
0.6285	-2.81982
0.629	2.61841
0.6295	3.02124
0.63	7.04956
0.6305	7.25098
0.631	-0.20142
0.6315	2.5177
0.632	6.14319
0.6325	3.8269
0.633	-0.60425
0.6335	4.22974
0.634	-2.11487
0.6345	0
0.635	1.2085
0.6355	0.50354
0.636	6.44531
0.6365	2.01416
0.637	1.10779
0.6375	2.71912
0.638	4.83398
0.6385	1.91345
0.639	4.43115
0.6395	5.33752
0.64	6.74744
0.6405	1.91345
0.641	1.3092
0.6415	2.81982
0.642	6.54602
0.6425	8.96301
0.643	4.43115
0.6435	0.30212
0.644	6.84814
0.6445	6.54602
0.645	8.05664
0.6455	2.5177
0.646	6.94885
0.6465	7.75452
0.647	11.07788
0.6475	3.8269
0.648	7.75452
0.6485	5.84106
0.649	10.97717
0.6495	8.56018
0.65	9.26514
0.6505	3.62549
0.651	10.27222
0.6515	8.35876
0.652	4.93469
0.6525	4.33044
0.653	3.62549
0.6535	9.06372
0.654	7.95593
0.6545	4.02832
0.655	7.5531
0.6555	0.70496
0.656	5.0354
0.6565	3.62549
0.657	7.45239
0.6575	6.94885
0.658	8.96301
0.6585	7.95593
0.659	8.8623
0.6595	5.53894
0.66	2.92053
0.6605	8.56018
0.661	11.68213
0.6615	9.76868
0.662	3.02124
0.6625	4.43115
0.663	6.94885
0.6635	3.7262
0.664	11.17859
0.6645	12.5885
0.665	9.06372
0.6655	0.50354
0.666	8.45947
0.6665	5.53894
0.667	3.12195
0.6675	7.45239
0.668	9.46655
0.6685	1.61133
0.669	3.8269
0.6695	4.63257
0.67	1.10779
0.6705	3.52478
0.671	-0.30212
0.6715	5.94177
0.672	2.61841
0.6725	2.61841
0.673	5.84106
0.6735	1.71204
0.674	3.42407
0.6745	1.40991
0.675	-2.01416
0.6755	0.80566
0.676	-1.3092
0.6765	-4.02832
0.677	0.20142
0.6775	-4.93469
0.678	-2.5177
0.6785	-5.13611
0.679	-4.93469
0.6795	0.10071
0.68	-2.92053
0.6805	-2.81982
0.681	1.61133
0.6815	0.20142
0.682	-8.35876
0.6825	-2.11487
0.683	1.3092
0.6835	1.71204
0.684	-2.31628
0.6845	2.71912
0.685	0.20142
0.6855	0.20142
0.686	2.71912
0.6865	2.5177
0.687	3.12195
0.6875	1.00708
0.688	5.33752
0.6885	5.84106
0.689	7.75452
0.6895	0.40283
0.69	-0.80566
0.6905	1.61133
0.691	4.53186
0.6915	0.10071
0.692	4.22974
0.6925	3.62549
0.693	6.54602
0.6935	7.15027
0.694	8.05664
0.6945	2.31628
0.695	3.12195
0.6955	5.23682
0.696	6.3446
0.6965	7.75452
0.697	10.27222
0.6975	2.61841
0.698	1.61133
0.6985	6.64673
0.699	10.47363
0.6995	9.76868
0.7	15.20691
0.7005	11.98425
0.701	8.56018
0.7015	7.15027
0.702	9.76868
0.7025	6.04248
0.703	7.5531
0.7035	12.28638
0.704	10.87646
0.7045	8.35876
0.705	11.88354
0.7055	10.0708
0.706	8.96301
0.7065	8.35876
0.707	8.7616
0.7075	9.66797
0.708	13.59558
0.7085	13.89771
0.709	14.60266
0.7095	11.07788
0.71	12.38708
0.7105	9.36584
0.711	14.90479
0.7115	12.89062
0.712	12.38708
0.7125	8.25806
0.713	12.89062
0.7135	7.85522
0.714	10.17151
0.7145	14.30054
0.715	9.66797
0.7155	10.17151
0.716	8.96301
0.7165	8.56018
0.717	12.08496
0.7175	3.32336
0.718	8.96301
0.7185	11.58142
0.719	7.25098
0.7195	4.93469
0.72	10.67505
0.7205	5.53894
0.721	6.14319
0.7215	5.94177
0.722	4.83398
0.7225	7.45239
0.723	4.43115
0.7235	4.02832
0.724	7.75452
0.7245	9.66797
0.725	6.44531
0.7255	8.96301
0.726	10.67505
0.7265	11.38
0.727	13.59558
0.7275	9.76868
0.728	9.36584
0.7285	6.3446
0.729	3.92761
0.7295	12.08496
0.73	14.19983
0.7305	5.94177
0.731	6.64673
0.7315	6.94885
0.732	3.92761
0.7325	8.15735
0.733	7.45239
0.7335	2.71912
0.734	10.27222
0.7345	11.88354
0.735	6.54602
0.7355	7.15027
0.736	9.56726
0.7365	3.7262
0.737	15.40833
0.7375	14.70337
0.738	7.15027
0.7385	3.62549
0.739	7.45239
0.7395	8.35876
0.74	9.66797
0.7405	7.25098
0.741	5.23682
0.7415	4.53186
0.742	7.25098
0.7425	6.44531
0.743	9.36584
0.7435	3.52478
0.744	5.94177
0.7445	1.10779
0.745	4.63257
0.7455	4.33044
0.746	3.7262
0.7465	5.43823
0.747	6.3446
0.7475	5.63965
0.748	6.54602
0.7485	5.53894
0.749	11.07788
0.7495	11.78284
0.75	9.86938
0.7505	9.97009
0.751	9.06372
0.7515	6.44531
0.752	12.38708
0.7525	11.17859
0.753	7.5531
0.7535	9.26514
0.754	6.94885
0.7545	10.37292
0.755	15.30762
0.7555	3.92761
0.756	8.35876
0.7565	9.46655
0.757	11.48071
0.7575	10.67505
0.758	12.48779
0.7585	13.09204
0.759	11.48071
0.7595	10.17151
0.76	4.22974
0.7605	10.67505
0.761	9.36584
0.7615	6.94885
0.762	9.76868
0.7625	7.45239
0.763	6.04248
0.7635	8.56018
0.764	11.38
0.7645	8.25806
0.765	3.62549
0.7655	4.02832
0.766	3.92761
0.7665	5.33752
0.767	4.33044
0.7675	8.15735
0.768	8.66089
0.7685	9.06372
0.769	10.47363
0.7695	5.94177
0.77	8.05664
0.7705	6.84814
0.771	9.66797
0.7715	9.66797
0.772	6.2439
0.7725	3.92761
0.773	-0.90637
0.7735	-1.10779
0.774	5.94177
0.7745	3.62549
0.775	1.71204
0.7755	8.45947
0.776	7.25098
0.7765	6.14319
0.777	4.43115
0.7775	6.74744
0.778	3.42407
0.7785	9.36584
0.779	8.35876
0.7795	4.93469
0.78	3.32336
0.7805	0.70496
0.781	0.70496
0.7815	3.12195
0.782	3.42407
0.7825	8.15735
0.783	10.27222
0.7835	12.48779
0.784	-0.90637
0.7845	1.3092
0.785	3.92761
0.7855	-0.60425
0.786	6.54602
0.7865	9.36584
0.787	7.25098
0.7875	9.46655
0.788	12.99133
0.7885	10.27222
0.789	10.97717
0.7895	10.67505
0.79	5.33752
0.7905	2.71912
0.791	6.2439
0.7915	7.15027
0.792	1.81274
0.7925	10.47363
0.793	4.63257
0.7935	6.04248
0.794	4.63257
0.7945	7.15027
0.795	8.66089
0.7955	9.36584
0.796	4.53186
0.7965	3.62549
0.797	8.7616
0.7975	6.94885
0.798	8.05664
0.7985	7.15027
0.799	11.07788
0.7995	10.0708
0.8	3.52478
0.8005	12.28638
0.801	13.89771
0.8015	13.797
0.802	9.36584
0.8025	4.73328
0.803	7.35168
0.8035	6.94885
0.804	7.5531
0.8045	9.26514
0.805	1.3092
0.8055	0.30212
0.806	2.41699
0.8065	6.04248
0.807	7.75452
0.8075	7.35168
0.808	8.66089
0.8085	8.8623
0.809	3.8269
0.8095	10.37292
0.81	3.32336
0.8105	4.33044
0.811	2.21558
0.8115	7.04956
0.812	6.84814
0.8125	12.78992
0.813	8.66089
0.8135	8.66089
0.814	9.76868
0.8145	3.02124
0.815	3.62549
0.8155	7.25098
0.816	4.83398
0.8165	7.95593
0.817	10.27222
0.8175	5.33752
0.818	4.83398
0.8185	0.60425
0.819	3.52478
0.8195	6.04248
0.82	3.92761
0.8205	7.85522
0.821	8.45947
0.8215	5.43823
0.822	7.35168
0.8225	7.75452
0.823	4.12903
0.8235	8.8623
0.824	13.59558
0.8245	5.43823
0.825	7.25098
0.8255	6.74744
0.826	6.3446
0.8265	10.17151
0.827	10.97717
0.8275	14.50195
0.828	5.43823
0.8285	11.88354
0.829	9.97009
0.8295	11.48071
0.83	8.45947
0.8305	8.56018
0.831	5.94177
0.8315	8.66089
0.832	9.46655
0.8325	12.08496
0.833	12.99133
0.8335	2.11487
0.834	3.12195
0.8345	7.5531
0.835	4.22974
0.8355	7.75452
0.836	13.29346
0.8365	6.84814
0.837	10.17151
0.8375	6.94885
0.838	10.57434
0.8385	9.26514
0.839	8.7616
0.8395	3.22266
0.84	9.26514
0.8405	13.29346
0.841	8.05664
0.8415	11.88354
0.842	8.7616
0.8425	5.43823
0.843	8.56018
0.8435	6.64673
0.844	11.58142
0.8445	7.5531
0.845	5.43823
0.8455	4.43115
0.846	8.25806
0.8465	6.14319
0.847	6.3446
0.8475	8.8623
0.848	5.74036
0.8485	9.56726
0.849	5.84106
0.8495	5.33752
0.85	13.59558
0.8505	4.83398
0.851	9.66797
0.8515	3.62549
0.852	2.31628
0.8525	3.7262
0.853	8.15735
0.8535	12.18567
0.854	4.43115
0.8545	8.05664
0.855	2.81982
0.8555	8.05664
0.856	13.09204
0.8565	3.32336
0.857	5.74036
0.8575	8.56018
0.858	7.15027
0.8585	3.32336
0.859	4.73328
0.8595	7.04956
0.86	3.92761
0.8605	3.32336
0.861	1.91345
0.8615	4.02832
0.862	7.25098
0.8625	7.65381
0.863	6.04248
0.8635	4.33044
0.864	5.33752
0.8645	1.81274
0.865	6.14319
0.8655	11.48071
0.866	9.76868
0.8665	6.64673
0.867	1.51062
0.8675	6.74744
0.868	10.77576
0.8685	7.35168
0.869	5.53894
0.8695	6.64673
0.87	5.94177
0.8705	2.92053
0.871	8.05664
0.8715	6.84814
0.872	10.17151
0.8725	5.33752
0.873	5.33752
0.8735	0.30212
0.874	13.49487
0.8745	13.09204
0.875	7.75452
0.8755	4.83398
0.876	4.53186
0.8765	3.52478
0.877	6.84814
0.8775	5.33752
0.878	7.45239
0.8785	8.56018
0.879	10.57434
0.8795	9.36584
0.88	8.25806
0.8805	4.22974
0.881	1.51062
0.8815	5.0354
0.882	5.53894
0.8825	1.61133
0.883	5.74036
0.8835	1.81274
0.884	4.73328
0.8845	4.33044
0.885	3.22266
0.8855	5.43823
0.886	11.48071
0.8865	8.8623
0.887	3.7262
0.8875	3.62549
0.888	5.53894
0.8885	7.75452
0.889	5.74036
0.8895	4.53186
0.89	2.31628
0.8905	-2.31628
0.891	-0.30212
0.8915	7.25098
0.892	7.75452
0.8925	4.93469
0.893	6.3446
0.8935	2.92053
0.894	2.61841
0.8945	0
0.895	0.20142
0.8955	3.02124
0.896	3.92761
0.8965	3.12195
0.897	2.81982
0.8975	1.61133
0.898	7.5531
0.8985	2.71912
0.899	3.42407
0.8995	-1.91345
0.9	1.10779
0.9005	4.93469
0.901	0.30212
0.9015	2.5177
0.902	-0.40283
0.9025	4.22974
0.903	5.53894
0.9035	4.43115
0.904	3.42407
0.9045	3.7262
0.905	6.44531
0.9055	7.65381
0.906	5.74036
0.9065	0.90637
0.907	4.53186
0.9075	8.05664
0.908	6.54602
0.9085	4.33044
0.909	2.5177
0.9095	-0.30212
0.91	0.90637
0.9105	6.2439
0.911	3.7262
0.9115	7.85522
0.912	1.91345
0.9125	2.81982
0.913	-0.40283
0.9135	3.62549
0.914	2.41699
0.9145	6.74744
0.915	5.53894
0.9155	4.83398
0.916	7.15027
0.9165	2.01416
0.917	0.70496
0.9175	3.32336
0.918	4.12903
0.9185	4.53186
0.919	5.33752
0.9195	3.52478
0.92	8.8623
0.9205	5.13611
0.921	2.61841
0.9215	2.92053
0.922	7.15027
0.9225	5.33752
0.923	0.60425
0.9235	5.0354
0.924	-0.60425
0.9245	2.11487
0.925	7.65381
0.9255	8.05664
0.926	6.04248
0.9265	10.17151
0.927	3.42407
0.9275	6.64673
0.928	8.8623
0.9285	8.35876
0.929	0
0.9295	6.54602
0.93	6.54602
0.9305	4.83398
0.931	6.14319
0.9315	10.17151
0.932	3.22266
0.9325	0.30212
0.933	3.8269
0.9335	-3.02124
0.934	0.90637
0.9345	5.63965
0.935	3.92761
0.9355	3.22266
0.936	0.30212
0.9365	4.73328
0.937	7.65381
0.9375	3.52478
0.938	3.22266
0.9385	2.31628
0.939	5.94177
0.9395	6.84814
0.94	7.15027
0.9405	7.04956
0.941	5.13611
0.9415	9.56726
0.942	10.37292
0.9425	10.27222
0.943	4.22974
0.9435	11.07788
0.944	7.95593
0.9445	5.43823
0.945	1.51062
0.9455	4.93469
0.946	6.74744
0.9465	9.76868
0.947	7.35168
0.9475	7.75452
0.948	7.85522
0.9485	6.64673
0.949	8.35876
0.9495	1.71204
0.95	0.80566
0.9505	5.0354
0.951	4.22974
0.9515	4.93469
0.952	3.92761
0.9525	8.7616
0.953	7.75452
0.9535	6.54602
0.954	6.64673
0.9545	1.81274
0.955	6.14319
0.9555	2.31628
0.956	2.92053
0.9565	3.92761
0.957	2.31628
0.9575	2.81982
0.958	4.73328
0.9585	3.8269
0.959	2.81982
0.9595	2.71912
0.96	0.80566
0.9605	-1.51062
0.961	6.74744
0.9615	4.02832
0.962	1.61133
0.9625	4.83398
0.963	5.23682
0.9635	7.04956
0.964	4.73328
0.9645	5.43823
0.965	8.05664
0.9655	10.37292
0.966	14.09912
0.9665	6.64673
0.967	6.44531
0.9675	8.56018
0.968	8.45947
0.9685	8.05664
0.969	7.35168
0.9695	9.16443
0.97	7.45239
0.9705	5.84106
0.971	4.12903
0.9715	6.44531
0.972	8.35876
0.9725	3.8269
0.973	-1.00708
0.9735	8.56018
0.974	7.95593
0.9745	6.74744
0.975	4.33044
0.9755	5.53894
0.976	7.45239
0.9765	8.7616
0.977	2.41699
0.9775	6.44531
0.978	8.56018
0.9785	4.02832
0.979	5.23682
0.9795	6.14319
0.98	6.3446
0.9805	5.74036
0.981	4.02832
0.9815	0.90637
0.982	4.63257
0.9825	8.05664
0.983	6.44531
0.9835	7.65381
0.984	2.61841
0.9845	2.92053
0.985	2.11487
0.9855	-1.71204
0.986	0.90637
0.9865	5.84106
0.987	4.22974
0.9875	5.94177
0.988	6.14319
0.9885	5.84106
0.989	6.44531
0.9895	8.05664
0.99	4.53186
0.9905	8.7616
0.991	3.22266
0.9915	5.43823
0.992	5.74036
0.9925	2.01416
0.993	1.40991
0.9935	5.63965
0.994	9.06372
0.9945	7.15027
0.995	6.44531
0.9955	12.18567
0.996	15.1062
0.9965	7.95593
0.997	11.07788
0.9975	11.88354
0.998	18.22815
0.9985	16.91895
0.999	10.37292
0.9995	7.85522
1	13.19275
1.0005	13.39417
1.001	9.76868
1.0015	15.71045
1.002	6.64673
1.0025	7.45239
1.003	3.52478
1.0035	5.33752
1.004	6.64673
1.0045	3.62549
1.005	1.91345
1.0055	0.60425
1.006	-7.85522
1.0065	-11.07788
1.007	-11.68213
1.0075	-12.5885
1.008	-8.8623
1.0085	-4.53186
1.009	-6.54602
1.0095	-8.7616
1.01	-5.43823
1.0105	0.90637
1.011	1.51062
1.0115	-5.84106
1.012	0.20142
1.0125	-2.92053
1.013	0
1.0135	-1.2085
1.014	1.81274
1.0145	-0.40283
1.015	2.31628
1.0155	-4.22974
1.016	-2.01416
1.0165	3.92761
1.017	4.12903
1.0175	0.30212
1.018	5.53894
1.0185	9.26514
1.019	8.05664
1.0195	4.12903
1.02	5.13611
1.0205	8.45947
1.021	6.2439
1.0215	5.33752
1.022	5.23682
1.0225	2.11487
1.023	7.15027
1.0235	6.84814
1.024	8.25806
1.0245	9.86938
1.025	9.36584
1.0255	9.66797
1.026	7.95593
1.0265	12.28638
1.027	7.35168
1.0275	6.54602
1.028	7.85522
1.0285	5.13611
1.029	4.63257
1.0295	8.45947
1.03	6.84814
1.0305	7.5531
1.031	5.84106
1.0315	6.14319
1.032	6.54602
1.0325	6.74744
1.033	4.43115
1.0335	8.35876
1.034	8.8623
1.0345	10.77576
1.035	10.97717
1.0355	5.63965
1.036	2.71912
1.0365	10.47363
1.037	3.92761
1.0375	7.04956
1.038	9.86938
1.0385	6.94885
1.039	4.73328
1.0395	6.74744
1.04	6.04248
1.0405	12.18567
1.041	8.15735
1.0415	1.3092
1.042	6.54602
1.0425	7.45239
1.043	11.78284
1.0435	8.05664
1.044	0
1.0445	5.63965
1.045	5.43823
1.0455	3.62549
1.046	6.74744
1.0465	9.26514
1.047	10.57434
1.0475	6.84814
1.048	6.74744
1.0485	4.63257
1.049	9.26514
1.0495	5.0354
1.05	-0.10071
1.0505	6.04248
1.051	1.51062
1.0515	7.95593
1.052	6.94885
1.0525	4.22974
1.053	7.95593
1.0535	2.31628
1.054	6.2439
1.0545	4.33044
1.055	8.66089
1.0555	14.70337
1.056	8.45947
1.0565	9.66797
1.057	7.5531
1.0575	5.23682
1.058	3.62549
1.0585	12.28638
1.059	10.0708
1.0595	7.04956
1.06	7.15027
1.0605	2.31628
1.061	7.95593
1.0615	14.30054
1.062	12.18567
1.0625	5.0354
1.063	4.73328
1.0635	9.26514
1.064	9.76868
1.0645	7.85522
1.065	7.45239
1.0655	8.35876
1.066	1.2085
1.0665	4.63257
1.067	6.84814
1.0675	6.04248
1.068	4.63257
1.0685	3.8269
1.069	8.15735
1.0695	8.45947
1.07	8.96301
1.0705	3.7262
1.071	3.52478
1.0715	6.2439
1.072	8.45947
1.0725	7.5531
1.073	7.85522
1.0735	4.33044
1.074	4.12903
1.0745	-3.52478
1.075	2.81982
1.0755	4.12903
1.076	5.13611
1.0765	4.43115
1.077	-1.2085
1.0775	3.8269
1.078	5.23682
1.0785	4.33044
1.079	6.3446
1.0795	2.71912
1.08	1.40991
1.0805	2.41699
1.081	9.56726
1.0815	3.02124
1.082	2.31628
1.0825	7.25098
1.083	2.01416
1.0835	5.74036
1.084	4.12903
1.0845	11.98425
1.085	6.54602
1.0855	8.35876
1.086	6.2439
1.0865	6.44531
1.087	4.12903
1.0875	1.51062
1.088	5.23682
1.0885	-1.61133
1.089	4.43115
1.0895	3.12195
1.09	3.22266
1.0905	1.00708
1.091	8.96301
1.0915	8.56018
1.092	6.84814
1.0925	9.86938
1.093	1.61133
1.0935	1.40991
1.094	4.83398
1.0945	5.33752
1.095	6.74744
1.0955	-0.90637
1.096	1.3092
1.0965	3.7262
1.097	1.61133
1.0975	6.54602
1.098	10.17151
1.0985	5.53894
1.099	6.94885
1.0995	1.51062
1.1	1.2085
1.1005	4.83398
1.101	6.44531
1.1015	7.95593
1.102	2.92053
1.1025	3.12195
1.103	-2.31628
1.1035	-1.61133
1.104	3.8269
1.1045	3.32336
1.105	3.7262
1.1055	2.5177
1.106	4.22974
1.1065	-0.60425
1.107	3.22266
1.1075	3.02124
1.108	5.43823
1.1085	7.75452
1.109	0.60425
1.1095	2.31628
1.11	0
1.1105	2.5177
1.111	6.74744
1.1115	5.0354
1.112	5.84106
1.1125	7.25098
1.113	3.7262
1.1135	5.74036
1.114	8.45947
1.1145	-0.50354
1.115	8.56018
1.1155	0.90637
1.116	5.84106
1.1165	4.73328
1.117	8.7616
1.1175	8.05664
1.118	10.37292
1.1185	8.15735
1.119	5.74036
1.1195	8.7616
1.12	3.22266
1.1205	9.66797
1.121	5.94177
1.1215	8.56018
1.122	12.5885
1.1225	5.53894
1.123	6.84814
1.1235	4.53186
1.124	0.70496
1.1245	3.7262
1.125	5.0354
1.1255	6.94885
1.126	4.12903
1.1265	6.64673
1.127	3.22266
1.1275	11.68213
1.128	5.0354
1.1285	6.84814
1.129	4.43115
1.1295	6.2439
1.13	8.05664
1.1305	8.56018
1.131	10.37292
1.1315	4.63257
1.132	9.76868
1.1325	6.94885
1.133	7.04956
1.1335	6.64673
1.134	2.31628
1.1345	2.92053
1.135	5.0354
1.1355	5.63965
1.136	2.21558
1.1365	7.15027
1.137	4.43115
1.1375	5.84106
1.138	5.63965
1.1385	4.12903
1.139	4.12903
1.1395	7.25098
1.14	5.13611
1.1405	9.66797
1.141	9.06372
1.1415	4.73328
1.142	9.76868
1.1425	4.33044
1.143	2.11487
1.1435	3.62549
1.144	-1.00708
1.1445	7.75452
1.145	3.12195
1.1455	5.0354
1.146	4.63257
1.1465	7.5531
1.147	6.44531
1.1475	3.7262
1.148	7.85522
1.1485	7.95593
1.149	6.54602
1.1495	6.84814
1.15	9.97009
1.1505	9.66797
1.151	-1.61133
1.1515	8.25806
1.152	8.96301
1.1525	5.33752
1.153	4.33044
1.1535	6.84814
1.154	5.63965
1.1545	6.14319
1.155	7.15027
1.1555	5.53894
1.156	0.10071
1.1565	6.2439
1.157	9.56726
1.1575	12.08496
1.158	12.5885
1.1585	10.37292
1.159	6.74744
1.1595	3.52478
1.16	6.74744
1.1605	9.86938
1.161	6.04248
1.1615	2.61841
1.162	5.63965
1.1625	8.05664
1.163	13.69629
1.1635	3.7262
1.164	11.58142
1.1645	9.66797
1.165	7.35168
1.1655	11.07788
1.166	4.22974
1.1665	7.95593
1.167	2.92053
1.1675	8.96301
1.168	4.93469
1.1685	4.53186
1.169	3.22266
1.1695	4.43115
1.17	8.8623
1.1705	7.04956
1.171	4.73328
1.1715	1.10779
1.172	-1.00708
1.1725	4.73328
1.173	2.92053
1.1735	5.74036
1.174	1.71204
1.1745	5.0354
1.175	1.61133
1.1755	4.83398
1.176	5.33752
1.1765	6.3446
1.177	8.96301
1.1775	4.83398
1.178	8.96301
1.1785	1.51062
1.179	2.31628
1.1795	6.84814
1.18	7.15027
1.1805	3.8269
1.181	5.63965
1.1815	3.92761
1.182	6.3446
1.1825	0.40283
1.183	5.0354
1.1835	3.8269
1.184	6.04248
1.1845	4.02832
1.185	2.11487
1.1855	5.0354
1.186	6.64673
1.1865	8.7616
1.187	0.70496
1.1875	6.44531
1.188	5.33752
1.1885	3.7262
1.189	6.3446
1.1895	8.56018
1.19	3.12195
1.1905	5.23682
1.191	3.32336
1.1915	2.41699
1.192	5.84106
1.1925	6.74744
1.193	4.43115
1.1935	8.56018
1.194	1.3092
1.1945	7.25098
1.195	4.02832
1.1955	7.04956
1.196	4.12903
1.1965	4.93469
1.197	5.63965
1.1975	4.83398
1.198	4.43115
1.1985	8.45947
1.199	5.53894
1.1995	3.32336
1.2	5.94177
1.2005	9.26514
1.201	7.45239
1.2015	12.28638
1.202	6.14319
1.2025	6.44531
1.203	8.15735
1.2035	8.7616
1.204	7.15027
1.2045	12.5885
1.205	10.57434
1.2055	10.17151
1.206	6.3446
1.2065	3.92761
1.207	7.35168
1.2075	5.94177
1.208	8.35876
1.2085	11.68213
1.209	10.27222
1.2095	4.93469
1.21	5.84106
1.2105	9.66797
1.211	10.17151
1.2115	11.58142
1.212	10.97717
1.2125	6.64673
1.213	6.3446
1.2135	4.33044
1.214	3.22266
1.2145	6.44531
1.215	6.74744
1.2155	10.47363
1.216	10.57434
1.2165	8.45947
1.217	7.85522
1.2175	11.88354
1.218	10.0708
1.2185	5.53894
1.219	3.52478
1.2195	6.54602
1.22	10.17151
1.2205	10.47363
1.221	7.5531
1.2215	5.0354
1.222	-0.50354
1.2225	6.84814
1.223	2.01416
1.2235	6.64673
1.224	3.92761
1.2245	-3.02124
1.225	-0.70496
1.2255	0.70496
1.226	4.53186
1.2265	-2.61841
1.227	0.40283
1.2275	2.81982
1.228	4.22974
1.2285	5.23682
1.229	-2.01416
1.2295	2.92053
1.23	3.62549
1.2305	7.35168
1.231	6.2439
1.2315	11.07788
1.232	6.3446
1.2325	4.43115
1.233	4.83398
1.2335	5.33752
1.234	4.53186
1.2345	3.42407
1.235	4.83398
1.2355	7.75452
1.236	4.43115
1.2365	4.73328
1.237	5.43823
1.2375	-0.20142
1.238	2.81982
1.2385	8.96301
1.239	5.23682
1.2395	2.61841
1.24	7.65381
1.2405	4.33044
1.241	5.94177
1.2415	1.81274
1.242	-2.21558
1.2425	0.50354
1.243	0.50354
1.2435	2.31628
1.244	-3.62549
1.2445	-0.30212
1.245	-4.12903
1.2455	-6.04248
1.246	-8.15735
1.2465	-6.64673
1.247	-11.07788
1.2475	-15.40833
1.248	-16.21399
1.2485	-13.99841
1.249	-13.89771
1.2495	-16.71753
1.25	-9.97009
1.2505	-13.19275
1.251	-5.94177
1.2515	-7.35168
1.252	-11.38
1.2525	-10.87646
1.253	-7.15027
1.2535	-3.52478
1.254	-5.23682
1.2545	-5.53894
1.255	-2.21558
1.2555	-7.15027
1.256	-5.33752
1.2565	3.62549
1.257	1.40991
1.2575	-0.80566
1.258	-1.10779
1.2585	2.41699
1.259	1.81274
1.2595	6.54602
1.26	2.81982
1.2605	2.41699
1.261	5.33752
1.2615	2.31628
1.262	7.25098
1.2625	9.86938
1.263	2.01416
1.2635	8.96301
1.264	3.92761
1.2645	3.62549
1.265	10.17151
1.2655	14.60266
1.266	10.77576
1.2665	8.8623
1.267	8.45947
1.2675	9.16443
1.268	10.37292
1.2685	11.07788
1.269	9.36584
1.2695	15.81116
1.27	12.18567
1.2705	11.2793
1.271	13.29346
1.2715	15.71045
1.272	13.39417
1.2725	9.16443
1.273	11.38
1.2735	14.70337
1.274	7.04956
1.2745	10.77576
1.275	11.58142
1.2755	10.27222
1.276	15.40833
1.2765	9.86938
1.277	14.90479
1.2775	14.60266
1.278	10.57434
1.2785	9.76868
1.279	15.1062
1.2795	10.27222
1.28	8.66089
1.2805	8.05664
1.281	10.17151
1.2815	12.68921
1.282	6.2439
1.2825	4.63257
1.283	6.04248
1.2835	11.68213
1.284	8.35876
1.2845	12.18567
1.285	10.57434
1.2855	6.84814
1.286	5.74036
1.2865	3.8269
1.287	6.94885
1.2875	8.96301
1.288	7.95593
1.2885	12.08496
1.289	12.78992
1.2895	16.3147
1.29	7.04956
1.2905	12.68921
1.291	10.0708
1.2915	12.89062
1.292	7.25098
1.2925	13.59558
1.293	14.70337
1.2935	5.94177
1.294	3.22266
1.2945	10.37292
1.295	11.78284
1.2955	18.73169
1.296	11.07788
1.2965	6.64673
1.297	10.27222
1.2975	9.97009
1.298	16.01257
1.2985	13.39417
1.299	15.00549
1.2995	12.68921
1.3	8.96301
1.3005	8.45947
1.301	10.17151
1.3015	7.65381
1.302	7.45239
1.3025	10.77576
1.303	11.88354
1.3035	5.94177
1.304	3.7262
1.3045	2.81982
1.305	1.3092
1.3055	4.43115
1.306	4.83398
1.3065	3.22266
1.307	-0.70496
1.3075	-0.80566
1.308	3.62549
1.3085	1.00708
1.309	1.61133
1.3095	1.3092
1.31	1.61133
1.3105	4.12903
1.311	8.56018
1.3115	9.76868
1.312	10.17151
1.3125	5.33752
1.313	7.25098
1.3135	6.2439
1.314	1.3092
1.3145	9.06372
1.315	4.53186
1.3155	4.73328
1.316	3.32336
1.3165	8.15735
1.317	11.78284
1.3175	10.0708
1.318	12.68921
1.3185	12.18567
1.319	9.46655
1.3195	7.25098
1.32	2.11487
1.3205	8.8623
1.321	9.46655
1.3215	8.56018
1.322	4.53186
1.3225	2.92053
1.323	2.81982
1.3235	2.71912
1.324	4.73328
1.3245	3.92761
1.325	-0.20142
1.3255	-10.0708
1.326	0.90637
1.3265	-1.71204
1.327	-3.42407
1.3275	0.80566
1.328	-0.80566
1.3285	-6.94885
1.329	-7.04956
1.3295	-4.53186
1.33	2.01416
1.3305	1.40991
1.331	4.12903
1.3315	0.60425
1.332	5.33752
1.3325	3.12195
1.333	0
1.3335	3.8269
1.334	0.10071
1.3345	0.90637
1.335	5.53894
1.3355	2.81982
1.336	4.02832
1.3365	1.3092
1.337	3.7262
1.3375	-0.30212
1.338	4.43115
1.3385	3.62549
1.339	5.43823
1.3395	5.43823
1.34	6.14319
1.3405	5.23682
1.341	4.33044
1.3415	5.23682
1.342	2.41699
1.3425	4.22974
1.343	3.22266
1.3435	7.5531
1.344	7.65381
1.3445	4.83398
1.345	8.35876
1.3455	5.94177
1.346	2.01416
1.3465	4.53186
1.347	6.2439
1.3475	6.54602
1.348	3.02124
1.3485	5.23682
1.349	8.35876
1.3495	5.33752
1.35	2.01416
1.3505	6.84814
1.351	9.97009
1.3515	6.54602
1.352	5.13611
1.3525	7.15027
1.353	7.5531
1.3535	7.25098
1.354	6.84814
1.3545	2.92053
1.355	6.2439
1.3555	3.32336
1.356	14.90479
1.3565	6.84814
1.357	5.0354
1.3575	5.0354
1.358	10.47363
1.3585	7.5531
1.359	6.2439
1.3595	4.73328
1.36	8.45947
1.3605	8.45947
1.361	9.56726
1.3615	8.96301
1.362	8.56018
1.3625	10.97717
1.363	6.54602
1.3635	7.75452
1.364	6.14319
1.3645	10.0708
1.365	6.94885
1.3655	4.12903
1.366	7.5531
1.3665	8.66089
1.367	8.05664
1.3675	11.07788
1.368	8.45947
1.3685	10.87646
1.369	13.797
1.3695	8.15735
1.37	8.25806
1.3705	6.64673
1.371	6.04248
1.3715	0.20142
1.372	3.52478
1.3725	6.44531
1.373	5.0354
1.3735	5.33752
1.374	5.63965
1.3745	3.62549
1.375	3.42407
1.3755	9.46655
1.376	7.35168
1.3765	5.94177
1.377	8.66089
1.3775	4.33044
1.378	3.02124
1.3785	7.35168
1.379	7.85522
1.3795	9.56726
1.38	9.06372
1.3805	5.94177
1.381	2.21558
1.3815	7.75452
1.382	7.75452
1.3825	5.33752
1.383	9.06372
1.3835	2.92053
1.384	7.04956
1.3845	10.17151
1.385	7.75452
1.3855	1.61133
1.386	2.5177
1.3865	1.91345
1.387	2.92053
1.3875	1.61133
1.388	8.05664
1.3885	8.45947
1.389	8.25806
1.3895	6.64673
1.39	4.93469
1.3905	3.32336
1.391	-1.51062
1.3915	4.02832
1.392	3.92761
1.3925	8.35876
1.393	6.14319
1.3935	2.41699
1.394	4.73328
1.3945	4.22974
1.395	5.43823
1.3955	7.25098
1.396	4.93469
1.3965	3.62549
1.397	3.22266
1.3975	-1.40991
1.398	1.81274
1.3985	6.3446
1.399	6.74744
1.3995	1.51062
1.4	5.43823
1.4005	7.35168
1.401	8.56018
1.4015	5.0354
1.402	4.33044
1.4025	4.02832
1.403	6.14319
1.4035	2.92053
1.404	5.53894
1.4045	2.71912
1.405	3.02124
1.4055	6.64673
1.406	7.04956
1.4065	3.32336
1.407	3.42407
1.4075	4.43115
1.408	5.84106
1.4085	8.56018
1.409	5.33752
1.4095	8.25806
1.41	2.92053
1.4105	0.80566
1.411	7.65381
1.4115	8.25806
1.412	5.43823
1.4125	2.01416
1.413	6.04248
1.4135	-1.2085
1.414	6.84814
1.4145	5.0354
1.415	3.32336
1.4155	5.63965
1.416	5.94177
1.4165	9.46655
1.417	5.74036
1.4175	4.33044
1.418	3.12195
1.4185	6.44531
1.419	7.15027
1.4195	6.94885
1.42	3.32336
1.4205	3.62549
1.421	2.81982
1.4215	5.33752
1.422	1.3092
1.4225	1.91345
1.423	-0.60425
1.4235	4.83398
1.424	5.63965
1.4245	6.84814
1.425	3.12195
1.4255	9.66797
1.426	6.64673
1.4265	6.44531
1.427	8.66089
1.4275	4.63257
1.428	4.93469
1.4285	5.74036
1.429	6.3446
1.4295	6.54602
1.43	5.94177
1.4305	5.43823
1.431	5.13611
1.4315	0.20142
1.432	7.5531
1.4325	3.7262
1.433	9.36584
1.4335	13.797
1.434	8.05664
1.4345	5.23682
1.435	7.04956
1.4355	6.74744
1.436	3.62549
1.4365	9.16443
1.437	6.64673
1.4375	3.92761
1.438	8.66089
1.4385	5.43823
1.439	1.61133
1.4395	10.17151
1.44	5.84106
1.4405	5.63965
1.441	3.02124
1.4415	1.51062
1.442	5.33752
1.4425	4.63257
1.443	10.27222
1.4435	7.65381
1.444	3.7262
1.4445	6.04248
1.445	1.81274
1.4455	8.66089
1.446	6.74744
1.4465	1.71204
1.447	5.23682
1.4475	10.17151
1.448	2.01416
1.4485	1.51062
1.449	2.21558
1.4495	6.94885
1.45	0.10071
1.4505	3.7262
1.451	-1.91345
1.4515	1.91345
1.452	4.93469
1.4525	6.54602
1.453	3.42407
1.4535	-1.00708
1.454	5.84106
1.4545	2.92053
1.455	3.7262
1.4555	0.50354
1.456	4.53186
1.4565	0.30212
1.457	7.85522
1.4575	9.56726
1.458	2.41699
1.4585	7.25098
1.459	2.21558
1.4595	2.5177
1.46	9.06372
1.4605	2.81982
1.461	-0.80566
1.4615	7.65381
1.462	3.92761
1.4625	-1.71204
1.463	-0.30212
1.4635	5.33752
1.464	7.65381
1.4645	3.8269
1.465	6.74744
1.4655	3.92761
1.466	3.52478
1.4665	1.51062
1.467	4.53186
1.4675	3.12195
1.468	6.04248
1.4685	6.74744
1.469	1.2085
1.4695	2.41699
1.47	4.12903
1.4705	4.73328
1.471	5.53894
1.4715	5.0354
1.472	2.21558
1.4725	1.3092
1.473	1.00708
1.4735	3.8269
1.474	4.22974
1.4745	8.56018
1.475	4.53186
1.4755	7.75452
1.476	0.90637
1.4765	3.52478
1.477	0.50354
1.4775	6.3446
1.478	7.75452
1.4785	7.75452
1.479	5.23682
1.4795	4.83398
1.48	5.43823
1.4805	3.92761
1.481	3.52478
1.4815	6.54602
1.482	1.00708
1.4825	4.12903
1.483	4.12903
1.4835	2.01416
1.484	2.41699
1.4845	2.11487
1.485	6.84814
1.4855	4.73328
1.486	2.5177
1.4865	2.71912
1.487	6.3446
1.4875	3.42407
1.488	3.02124
1.4885	2.61841
1.489	-1.61133
1.4895	-4.43115
1.49	0.60425
1.4905	-1.2085
1.491	2.31628
1.4915	2.71912
1.492	4.73328
1.4925	5.43823
1.493	9.06372
1.4935	6.2439
1.494	8.66089
1.4945	4.12903
1.495	8.05664
1.4955	5.23682
1.496	7.45239
1.4965	12.5885
1.497	8.56018
1.4975	4.22974
1.498	4.22974
1.4985	5.84106
1.499	3.42407
1.4995	4.73328
1.5	4.12903
1.5005	9.66797
1.501	11.88354
1.5015	12.68921
1.502	9.86938
1.5025	14.30054
1.503	5.23682
1.5035	7.25098
1.504	7.25098
1.5045	5.43823
1.505	9.46655
1.5055	6.14319
1.506	7.04956
1.5065	6.64673
1.507	9.16443
1.5075	4.93469
1.508	6.74744
1.5085	16.01257
1.509	11.48071
1.5095	7.35168
1.51	6.94885
1.5105	6.44531
1.511	4.22974
1.5115	9.46655
1.512	12.78992
1.5125	11.88354
1.513	8.35876
1.5135	5.94177
1.514	9.16443
1.5145	6.94885
1.515	10.77576
1.5155	1.3092
1.516	6.54602
1.5165	5.94177
1.517	5.33752
1.5175	1.2085
1.518	9.26514
1.5185	3.8269
1.519	4.22974
1.5195	5.63965
1.52	1.40991
1.5205	3.02124
1.521	3.12195
1.5215	5.23682
1.522	1.81274
1.5225	0.10071
1.523	-1.10779
1.5235	5.23682
1.524	6.04248
1.5245	5.43823
1.525	-0.10071
1.5255	5.13611
1.526	5.0354
1.5265	5.23682
1.527	1.00708
1.5275	2.5177
1.528	6.54602
1.5285	11.07788
1.529	6.84814
1.5295	9.66797
1.53	4.43115
1.5305	5.84106
1.531	1.91345
1.5315	6.14319
1.532	5.84106
1.5325	4.12903
1.533	3.92761
1.5335	3.42407
1.534	2.81982
1.5345	6.44531
1.535	2.11487
1.5355	5.84106
1.536	2.31628
1.5365	4.02832
1.537	3.52478
1.5375	3.8269
1.538	3.8269
1.5385	0.70496
1.539	-0.70496
1.5395	1.61133
1.54	7.45239
1.5405	6.84814
1.541	5.23682
1.5415	2.5177
1.542	5.33752
1.5425	-0.50354
1.543	0.10071
1.5435	-0.80566
1.544	6.84814
1.5445	7.65381
1.545	9.06372
1.5455	10.0708
1.546	-1.61133
1.5465	2.5177
1.547	5.23682
1.5475	4.02832
1.548	4.22974
1.5485	5.94177
1.549	4.53186
1.5495	0.30212
1.55	6.2439
1.5505	4.43115
1.551	6.64673
1.5515	5.13611
1.552	2.81982
1.5525	8.7616
1.553	7.95593
1.5535	2.01416
1.554	3.42407
1.5545	6.44531
1.555	11.88354
1.5555	9.66797
1.556	2.71912
1.5565	8.66089
1.557	6.74744
1.5575	9.36584
1.558	3.22266
1.5585	8.8623
1.559	5.94177
1.5595	6.44531
1.56	3.02124
1.5605	0.50354
1.561	6.54602
1.5615	11.88354
1.562	11.07788
1.5625	6.04248
1.563	3.22266
1.5635	5.84106
1.564	8.8623
1.5645	10.37292
1.565	10.57434
1.5655	2.61841
1.566	1.61133
1.5665	5.0354
1.567	5.74036
1.5675	2.41699
1.568	6.84814
1.5685	7.95593
1.569	7.25098
1.5695	5.0354
1.57	4.33044
1.5705	4.43115
1.571	5.43823
1.5715	5.43823
1.572	4.63257
1.5725	5.13611
1.573	5.84106
1.5735	4.12903
1.574	0.70496
1.5745	2.01416
1.575	4.53186
1.5755	2.31628
1.576	3.92761
1.5765	8.25806
1.577	4.12903
1.5775	8.56018
1.578	0.90637
1.5785	6.54602
1.579	4.43115
1.5795	2.01416
1.58	3.12195
1.5805	3.22266
1.581	2.81982
1.5815	5.43823
1.582	6.54602
1.5825	-0.20142
1.583	0.90637
1.5835	1.61133
1.584	9.66797
1.5845	5.74036
1.585	7.65381
1.5855	6.94885
1.586	3.32336
1.5865	1.40991
1.587	10.77576
1.5875	4.63257
1.588	3.92761
1.5885	6.44531
1.589	7.85522
1.5895	7.45239
1.59	7.75452
1.5905	8.7616
1.591	6.14319
1.5915	4.83398
1.592	4.63257
1.5925	2.92053
1.593	5.33752
1.5935	2.5177
1.594	5.53894
1.5945	-3.22266
1.595	5.94177
1.5955	8.96301
1.596	5.74036
1.5965	2.41699
1.597	6.94885
1.5975	4.12903
1.598	7.04956
1.5985	6.14319
1.599	5.53894
1.5995	-1.10779
1.6	2.01416
1.6005	2.61841
1.601	5.23682
1.6015	4.93469
1.602	7.45239
1.6025	10.0708
1.603	6.44531
1.6035	1.81274
1.604	7.35168
1.6045	6.54602
1.605	6.14319
1.6055	7.25098
1.606	8.96301
1.6065	10.87646
1.607	14.60266
1.6075	7.25098
1.608	9.36584
1.6085	6.44531
1.609	3.8269
1.6095	6.04248
1.61	7.75452
1.6105	4.53186
1.611	7.85522
1.6115	9.06372
1.612	2.11487
1.6125	6.04248
1.613	3.8269
1.6135	6.14319
1.614	3.02124
1.6145	2.61841
1.615	-4.02832
1.6155	3.12195
1.616	4.73328
1.6165	6.04248
1.617	11.98425
1.6175	11.58142
1.618	11.17859
1.6185	7.35168
1.619	5.94177
1.6195	6.64673
1.62	5.0354
1.6205	7.65381
1.621	8.15735
1.6215	9.76868
1.622	3.52478
1.6225	5.23682
1.623	4.73328
1.6235	5.74036
1.624	5.23682
1.6245	4.53186
1.625	10.67505
1.6255	7.75452
1.626	5.23682
1.6265	3.22266
1.627	2.71912
1.6275	3.62549
1.628	5.13611
1.6285	6.94885
1.629	4.33044
1.6295	2.5177
1.63	7.04956
1.6305	5.0354
1.631	2.41699
1.6315	4.22974
1.632	0.40283
1.6325	4.22974
1.633	4.12903
1.6335	7.45239
1.634	4.83398
1.6345	7.95593
1.635	3.42407
1.6355	11.38
1.636	7.75452
1.6365	2.71912
1.637	9.46655
1.6375	3.32336
1.638	0.20142
1.6385	6.84814
1.639	4.83398
1.6395	4.33044
1.64	6.84814
1.6405	3.62549
1.641	4.02832
1.6415	4.73328
1.642	11.48071
1.6425	9.26514
1.643	5.43823
1.6435	8.66089
1.644	11.88354
1.6445	9.76868
1.645	6.84814
1.6455	5.53894
1.646	4.93469
1.6465	6.74744
1.647	3.62549
1.6475	4.43115
1.648	3.22266
1.6485	2.71912
1.649	4.02832
1.6495	6.54602
1.65	10.57434
1.6505	4.63257
1.651	8.35876
1.6515	4.33044
1.652	1.40991
1.6525	7.5531
1.653	8.15735
1.6535	7.25098
1.654	5.23682
1.6545	5.74036
1.655	6.94885
1.6555	3.62549
1.656	2.21558
1.6565	5.0354
1.657	4.63257
1.6575	3.02124
1.658	-1.3092
1.6585	1.61133
1.659	2.92053
1.6595	4.53186
1.66	1.51062
1.6605	2.61841
1.661	-2.71912
1.6615	-1.81274
1.662	-0.50354
1.6625	3.7262
1.663	2.31628
1.6635	4.93469
1.664	6.3446
1.6645	4.73328
1.665	-1.81274
1.6655	1.51062
1.666	-1.91345
1.6665	5.63965
1.667	3.52478
1.6675	1.91345
1.668	2.81982
1.6685	-3.12195
1.669	2.92053
1.6695	6.84814
1.67	5.33752
1.6705	2.61841
1.671	3.8269
1.6715	2.11487
1.672	-2.31628
1.6725	-1.61133
1.673	4.83398
1.6735	3.42407
1.674	6.54602
1.6745	3.12195
1.675	6.44531
1.6755	7.95593
1.676	4.63257
1.6765	7.5531
1.677	4.12903
1.6775	5.13611
1.678	6.14319
1.6785	6.14319
1.679	8.15735
1.6795	10.17151
1.68	13.19275
1.6805	2.61841
1.681	5.84106
1.6815	6.3446
1.682	4.22974
1.6825	4.33044
1.683	8.35876
1.6835	9.56726
1.684	5.94177
1.6845	2.71912
1.685	2.11487
1.6855	5.84106
1.686	4.22974
1.6865	5.63965
1.687	5.0354
1.6875	8.35876
1.688	1.00708
1.6885	6.84814
1.689	5.94177
1.6895	5.0354
1.69	6.54602
1.6905	8.25806
1.691	1.81274
1.6915	2.92053
1.692	1.81274
1.6925	7.25098
1.693	10.27222
1.6935	4.63257
1.694	1.61133
1.6945	3.42407
1.695	3.22266
1.6955	3.8269
1.696	6.54602
1.6965	8.56018
1.697	8.15735
1.6975	6.2439
1.698	5.23682
1.6985	2.61841
1.699	6.3446
1.6995	6.74744
1.7	4.43115
1.7005	1.61133
1.701	-0.90637
1.7015	7.35168
1.702	6.94885
1.7025	2.92053
1.703	3.22266
1.7035	0.80566
1.704	5.74036
1.7045	1.10779
1.705	7.5531
1.7055	9.76868
1.706	8.56018
1.7065	2.61841
1.707	5.63965
1.7075	2.11487
1.708	6.64673
1.7085	8.56018
1.709	14.60266
1.7095	9.06372
1.71	11.78284
1.7105	6.04248
1.711	3.52478
1.7115	1.71204
1.712	6.14319
1.7125	5.33752
1.713	5.33752
1.7135	5.33752
1.714	5.33752
1.7145	5.33752
1.715	5.33752
1.7155	5.33752
1.716	5.33752
1.7165	5.33752
1.717	5.33752
1.7175	5.33752
1.718	5.33752
1.7185	5.33752
1.719	5.33752
1.7195	5.33752
1.72	5.33752
1.7205	5.33752
1.721	5.33752
1.7215	5.33752
1.722	5.33752
1.7225	5.33752
1.723	5.94177
1.7235	3.92761
1.724	4.12903
1.7245	4.22974
1.725	4.93469
1.7255	11.48071
1.726	10.67505
1.7265	5.53894
1.727	2.81982
1.7275	5.43823
1.728	3.22266
1.7285	4.02832
1.729	10.0708
1.7295	7.45239
1.73	9.26514
1.7305	10.57434
1.731	8.15735
1.7315	7.75452
1.732	8.35876
1.7325	8.25806
1.733	3.02124
1.7335	7.04956
1.734	12.78992
1.7345	10.47363
1.735	8.25806
1.7355	5.23682
1.736	7.35168
1.7365	7.75452
1.737	5.84106
1.7375	8.25806
1.738	10.77576
1.7385	7.85522
1.739	6.74744
1.7395	7.25098
1.74	6.04248
1.7405	5.13611
1.741	12.18567
1.7415	6.04248
1.742	4.53186
1.7425	1.2085
1.743	3.52478
1.7435	4.33044
1.744	1.51062
1.7445	1.40991
1.745	1.00708
1.7455	12.78992
1.746	6.44531
1.7465	6.84814
1.747	7.85522
1.7475	5.23682
1.748	5.63965
1.7485	12.5885
1.749	6.94885
1.7495	5.23682
1.75	6.94885
1.7505	11.68213
1.751	0.50354
1.7515	0.80566
1.752	4.93469
1.7525	-0.40283
1.753	-2.31628
1.7535	3.32336
1.754	5.84106
1.7545	7.25098
1.755	2.31628
1.7555	4.73328
1.756	1.40991
1.7565	3.8269
1.757	5.94177
1.7575	2.92053
1.758	3.7262
1.7585	11.68213
1.759	8.15735
1.7595	5.63965
1.76	4.43115
1.7605	2.21558
1.761	5.13611
1.7615	5.94177
1.762	3.62549
1.7625	-2.71912
1.763	0.90637
1.7635	4.22974
1.764	3.52478
1.7645	7.04956
1.765	2.11487
1.7655	1.3092
1.766	6.3446
1.7665	3.92761
1.767	9.86938
1.7675	6.04248
1.768	7.25098
1.7685	4.02832
1.769	-0.40283
1.7695	1.81274
1.77	1.10779
1.7705	8.7616
1.771	2.11487
1.7715	7.75452
1.772	8.25806
1.7725	7.75452
1.773	-0.30212
1.7735	3.02124
1.774	6.14319
1.7745	8.45947
1.775	5.63965
1.7755	-1.40991
1.776	6.14319
1.7765	3.42407
1.777	0.80566
1.7775	5.43823
1.778	6.74744
1.7785	4.02832
1.779	8.45947
1.7795	0.80566
1.78	4.93469
1.7805	7.95593
1.781	8.15735
1.7815	7.25098
1.782	2.92053
1.7825	8.56018
1.783	4.22974
1.7835	3.12195
1.784	8.25806
1.7845	13.29346
1.785	4.53186
1.7855	4.43115
1.786	0.20142
1.7865	7.65381
1.787	13.19275
1.7875	9.66797
1.788	6.04248
1.7885	9.66797
1.789	5.94177
1.7895	8.15735
1.79	7.65381
1.7905	12.08496
1.791	9.16443
1.7915	9.36584
1.792	3.52478
1.7925	4.33044
1.793	4.93469
1.7935	6.74744
1.794	4.02832
1.7945	4.33044
1.795	5.13611
1.7955	8.15735
1.796	8.56018
1.7965	8.25806
1.797	10.37292
1.7975	7.15027
1.798	6.3446
1.7985	4.02832
1.799	4.22974
1.7995	1.00708
1.8	6.04248
1.8005	4.53186
1.801	7.45239
1.8015	8.05664
1.802	2.01416
1.8025	2.5177
1.803	1.10779
1.8035	5.33752
1.804	4.02832
1.8045	0.10071
1.805	1.3092
1.8055	2.01416
1.806	7.95593
1.8065	3.22266
1.807	3.7262
1.8075	4.73328
1.808	3.52478
1.8085	-2.81982
1.809	-6.74744
1.8095	-0.80566
1.81	-0.70496
1.8105	3.12195
1.811	-3.32336
1.8115	0.30212
1.812	0.40283
1.8125	-2.5177
1.813	-3.12195
1.8135	-3.62549
1.814	-5.33752
1.8145	-3.52478
1.815	-2.61841
1.8155	-3.02124
1.816	-4.22974
1.8165	-5.53894
1.817	-3.92761
1.8175	-3.12195
1.818	4.73328
1.8185	-1.91345
1.819	2.21558
1.8195	2.81982
1.82	0.90637
1.8205	1.2085
1.821	5.74036
1.8215	-2.61841
1.822	-2.31628
1.8225	-1.51062
1.823	-1.00708
1.8235	-2.31628
1.824	7.15027
1.8245	6.54602
1.825	4.73328
1.8255	2.41699
1.826	2.92053
1.8265	2.41699
1.827	3.32336
1.8275	3.8269
1.828	2.61841
1.8285	2.31628
1.829	5.94177
1.8295	6.04248
1.83	7.35168
1.8305	5.84106
1.831	6.14319
1.8315	1.40991
1.832	9.16443
1.8325	7.95593
1.833	7.15027
1.8335	4.73328
1.834	8.66089
1.8345	5.0354
1.835	4.83398
1.8355	9.86938
1.836	7.35168
1.8365	11.17859
1.837	5.13611
1.8375	4.53186
1.838	8.45947
1.8385	8.56018
1.839	8.25806
1.8395	8.25806
1.84	9.36584
1.8405	12.48779
1.841	7.75452
1.8415	16.11328
1.842	11.38
1.8425	11.38
1.843	14.30054
1.8435	12.08496
1.844	10.17151
1.8445	9.26514
1.845	9.06372
1.8455	10.17151
1.846	7.04956
1.8465	4.22974
1.847	11.07788
1.8475	6.84814
1.848	8.66089
1.8485	7.65381
1.849	8.25806
1.8495	9.06372
1.85	4.43115
1.8505	6.44531
1.851	5.63965
1.8515	7.15027
1.852	10.47363
1.8525	9.06372
1.853	7.25098
1.8535	9.46655
1.854	10.17151
1.8545	11.17859
1.855	11.78284
1.8555	12.48779
1.856	6.64673
1.8565	1.40991
1.857	4.63257
1.8575	5.13611
1.858	4.02832
1.8585	5.13611
1.859	1.00708
1.8595	5.84106
1.86	5.13611
1.8605	5.63965
1.861	6.94885
1.8615	7.04956
1.862	5.94177
1.8625	9.46655
1.863	2.01416
1.8635	6.3446
1.864	6.14319
1.8645	12.5885
1.865	16.91895
1.8655	10.0708
1.866	4.93469
1.8665	7.25098
1.867	8.15735
1.8675	6.2439
1.868	7.04956
1.8685	6.74744
1.869	6.3446
1.8695	5.84106
1.87	4.53186
1.8705	6.44531
1.871	4.33044
1.8715	4.33044
1.872	8.66089
1.8725	7.95593
1.873	5.53894
1.8735	10.57434
1.874	12.38708
1.8745	10.47363
1.875	6.94885
1.8755	7.45239
1.876	13.09204
1.8765	10.57434
1.877	10.77576
1.8775	7.04956
1.878	12.28638
1.8785	14.80408
1.879	10.37292
1.8795	5.43823
1.88	7.5531
1.8805	4.83398
1.881	7.75452
1.8815	10.27222
1.882	9.76868
1.8825	0
1.883	3.12195
1.8835	3.62549
1.884	7.35168
1.8845	7.25098
1.885	5.23682
1.8855	6.44531
1.886	4.93469
1.8865	1.40991
1.887	6.74744
1.8875	6.74744
1.888	10.0708
1.8885	9.46655
1.889	5.13611
1.8895	3.42407
1.89	3.32336
1.8905	6.64673
1.891	10.37292
1.8915	5.43823
1.892	3.62549
1.8925	3.62549
1.893	3.52478
1.8935	6.64673
1.894	7.65381
1.8945	6.44531
1.895	6.3446
1.8955	2.81982
1.896	4.73328
1.8965	7.04956
1.897	3.02124
1.8975	6.2439
1.898	8.45947
1.8985	5.43823
1.899	3.12195
1.8995	5.74036
1.9	6.64673
1.9005	8.35876
1.901	8.05664
1.9015	4.63257
1.902	8.96301
1.9025	5.53894
1.903	8.05664
1.9035	4.53186
1.904	3.52478
1.9045	6.84814
1.905	10.77576
1.9055	7.04956
1.906	6.14319
1.9065	5.94177
1.907	4.83398
1.9075	2.81982
1.908	-0.60425
1.9085	3.22266
1.909	8.7616
1.9095	3.7262
1.91	6.64673
1.9105	4.93469
1.911	3.7262
1.9115	8.45947
1.912	9.86938
1.9125	8.05664
1.913	9.56726
1.9135	7.5531
1.914	10.0708
1.9145	-1.3092
1.915	-0.70496
1.9155	3.7262
1.916	3.02124
1.9165	9.16443
1.917	0.80566
1.9175	4.43115
1.918	3.12195
1.9185	8.35876
1.919	8.25806
1.9195	5.13611
1.92	0.50354
1.9205	1.71204
1.921	4.43115
1.9215	5.33752
1.922	4.73328
1.9225	0.40283
1.923	4.02832
1.9235	5.74036
1.924	0.70496
1.9245	3.62549
1.925	6.94885
1.9255	8.66089
1.926	1.71204
1.9265	2.01416
1.927	2.5177
1.9275	7.35168
1.928	9.86938
1.9285	7.5531
1.929	0.40283
1.9295	1.3092
1.93	4.33044
1.9305	10.77576
1.931	2.81982
1.9315	5.23682
1.932	1.10779
1.9325	4.33044
1.933	5.43823
1.9335	7.15027
1.934	7.35168
1.9345	9.56726
1.935	12.5885
1.9355	8.05664
1.936	5.53894
1.9365	8.35876
1.937	7.35168
1.9375	5.43823
1.938	4.93469
1.9385	6.2439
1.939	6.3446
1.9395	5.94177
1.94	-0.30212
1.9405	3.22266
1.941	5.53894
1.9415	6.54602
1.942	7.85522
1.9425	3.12195
1.943	-1.3092
1.9435	3.7262
1.944	0
1.9445	7.85522
1.945	4.63257
1.9455	0.50354
1.946	2.31628
1.9465	1.10779
1.947	4.73328
1.9475	1.10779
1.948	8.7616
1.9485	3.12195
1.949	4.22974
1.9495	3.52478
1.95	3.12195
1.9505	6.64673
1.951	10.47363
1.9515	8.15735
1.952	5.63965
1.9525	2.31628
1.953	4.73328
1.9535	7.75452
1.954	7.75452
1.9545	5.13611
1.955	7.35168
1.9555	7.35168
1.956	11.58142
1.9565	4.33044
1.957	3.62549
1.9575	5.84106
1.958	5.53894
1.9585	6.84814
1.959	2.11487
1.9595	4.53186
1.96	6.2439
1.9605	5.23682
1.961	2.41699
1.9615	-1.3092
1.962	-1.91345
1.9625	3.92761
1.963	7.04956
1.9635	3.42407
1.964	3.22266
1.9645	2.92053
1.965	2.61841
1.9655	6.3446
1.966	6.3446
1.9665	8.05664
1.967	3.62549
1.9675	-0.50354
1.968	2.81982
1.9685	3.7262
1.969	2.92053
1.9695	10.0708
1.97	6.44531
1.9705	5.33752
1.971	5.23682
1.9715	8.05664
1.972	7.65381
1.9725	12.78992
1.973	12.08496
1.9735	7.04956
1.974	6.04248
1.9745	5.33752
1.975	3.02124
1.9755	12.18567
1.976	9.97009
1.9765	7.15027
1.977	0.80566
1.9775	3.7262
1.978	6.94885
1.9785	4.73328
1.979	3.92761
1.9795	4.93469
1.98	1.71204
1.9805	4.12903
1.981	4.53186
1.9815	0.60425
1.982	2.92053
1.9825	1.2085
1.983	1.61133
1.9835	-0.90637
1.984	0.30212
1.9845	1.61133
1.985	4.53186
1.9855	3.02124
1.986	2.21558
1.9865	0.10071
1.987	1.00708
1.9875	6.3446
1.988	2.71912
1.9885	1.71204
1.989	5.23682
1.9895	-0.40283
1.99	4.12903
1.9905	6.2439
1.991	7.04956
1.9915	6.84814
1.992	-1.3092
1.9925	3.52478
1.993	4.83398
1.9935	6.74744
1.994	11.07788
1.9945	7.75452
1.995	9.97009
1.9955	7.75452
1.996	6.2439
1.9965	11.17859
1.997	4.63257
1.9975	7.25098
1.998	3.62549
1.9985	3.8269
1.999	10.27222
1.9995	8.96301
2	3.62549
2.0005	7.65381
2.001	5.63965
2.0015	6.14319
2.002	6.44531
2.0025	3.62549
2.003	7.04956
2.0035	7.5531
2.004	6.84814
2.0045	8.05664
2.005	5.94177
2.0055	8.45947
2.006	3.22266
2.0065	10.17151
2.007	7.85522
2.0075	5.33752
2.008	1.10779
2.0085	3.7262
2.009	-4.83398
2.0095	3.32336
2.01	4.63257
2.0105	3.22266
2.011	5.13611
2.0115	5.94177
2.012	2.71912
2.0125	1.2085
2.013	7.95593
2.0135	5.23682
2.014	5.43823
2.0145	5.94177
2.015	4.83398
2.0155	6.3446
2.016	8.8623
2.0165	3.8269
2.017	3.42407
2.0175	3.02124
2.018	4.02832
2.0185	2.61841
2.019	1.3092
2.0195	1.40991
2.02	3.8269
2.0205	0.10071
2.021	3.42407
2.0215	3.22266
2.022	6.94885
2.0225	2.41699
2.023	6.64673
2.0235	6.3446
2.024	9.36584
2.0245	5.84106
2.025	2.92053
2.0255	1.40991
2.026	3.42407
2.0265	4.22974
2.027	2.71912
2.0275	5.53894
2.028	8.05664
2.0285	3.52478
2.029	5.63965
2.0295	4.22974
2.03	2.11487
2.0305	1.51062
2.031	3.12195
2.0315	3.52478
2.032	2.5177
2.0325	7.25098
2.033	2.41699
2.0335	3.62549
2.034	4.02832
2.0345	5.94177
2.035	6.3446
2.0355	7.35168
2.036	5.74036
2.0365	7.04956
2.037	6.04248
2.0375	3.12195
2.038	1.00708
2.0385	3.42407
2.039	4.83398
2.0395	-1.51062
2.04	5.33752
2.0405	9.86938
2.041	0.90637
2.0415	5.84106
2.042	3.62549
2.0425	2.71912
2.043	3.92761
2.0435	8.25806
2.044	8.05664
2.0445	5.0354
2.045	2.11487
2.0455	5.63965
2.046	2.41699
2.0465	7.04956
2.047	9.16443
2.0475	9.97009
2.048	6.84814
2.0485	8.45947
2.049	2.71912
2.0495	4.93469
2.05	6.2439
2.0505	2.41699
2.051	3.92761
2.0515	0.60425
2.052	0.40283
2.0525	-2.5177
2.053	-0.40283
2.0535	1.00708
2.054	1.91345
2.0545	7.95593
2.055	0.90637
2.0555	-2.61841
2.056	-1.2085
2.0565	-0.10071
2.057	7.75452
2.0575	5.63965
2.058	4.12903
2.0585	4.93469
2.059	0
2.0595	7.85522
2.06	7.45239
2.0605	5.63965
2.061	4.93469
2.0615	5.13611
2.062	8.56018
2.0625	5.53894
2.063	5.94177
2.0635	2.01416
2.064	5.0354
2.0645	12.38708
2.065	4.63257
2.0655	3.92761
2.066	5.53894
2.0665	3.02124
2.067	5.13611
2.0675	1.3092
2.068	8.25806
2.0685	-1.00708
2.069	2.5177
2.0695	6.3446
2.07	4.83398
2.0705	8.15735
2.071	7.35168
2.0715	10.47363
2.072	3.52478
2.0725	3.7262
2.073	6.3446
2.0735	7.45239
2.074	6.3446
2.0745	6.3446
2.075	2.81982
2.0755	2.21558
2.076	6.44531
2.0765	4.33044
2.077	6.14319
2.0775	5.53894
2.078	4.53186
2.0785	4.63257
2.079	4.93469
2.0795	3.7262
2.08	6.54602
2.0805	6.44531
2.081	3.8269
2.0815	6.04248
2.082	3.32336
2.0825	1.51062
2.083	4.63257
2.0835	10.27222
2.084	3.62549
2.0845	-1.40991
2.085	-0.10071
2.0855	4.73328
2.086	9.46655
2.0865	11.88354
2.087	6.64673
2.0875	2.61841
2.088	0
2.0885	-0.10071
2.089	5.0354
2.0895	3.22266
2.09	9.86938
2.0905	5.33752
2.091	5.53894
2.0915	1.61133
2.092	4.93469
2.0925	5.43823
2.093	6.3446
2.0935	2.21558
2.094	8.7616
2.0945	13.39417
2.095	2.41699
2.0955	7.04956
2.096	6.84814
2.0965	-1.61133
2.097	2.31628
2.0975	8.8623
2.098	5.33752
2.0985	4.63257
2.099	4.73328
2.0995	5.63965
2.1	3.32336
2.1005	3.42407
2.101	-0.40283
2.1015	1.61133
2.102	4.02832
2.1025	0.90637
2.103	0.90637
2.1035	2.81982
2.104	3.7262
2.1045	2.31628
2.105	5.43823
2.1055	1.2085
2.106	9.86938
2.1065	2.21558
2.107	4.02832
2.1075	3.12195
2.108	9.06372
2.1085	9.46655
2.109	3.92761
2.1095	5.94177
2.11	5.94177
2.1105	5.74036
2.111	5.53894
2.1115	5.33752
2.112	10.77576
2.1125	7.95593
2.113	2.41699
2.1135	3.42407
2.114	7.15027
2.1145	7.65381
2.115	4.22974
2.1155	6.2439
2.116	4.73328
2.1165	5.53894
2.117	3.92761
2.1175	1.91345
2.118	3.42407
2.1185	-0.90637
2.119	3.7262
2.1195	7.04956
2.12	4.83398
2.1205	7.65381
2.121	8.35876
2.1215	8.96301
2.122	3.32336
2.1225	1.91345
2.123	6.84814
2.1235	5.94177
2.124	6.74744
2.1245	11.68213
2.125	5.94177
2.1255	4.83398
2.126	4.73328
2.1265	3.8269
2.127	3.32336
2.1275	6.2439
2.128	4.83398
2.1285	8.05664
2.129	5.53894
2.1295	3.42407
2.13	9.36584
2.1305	3.42407
2.131	10.37292
2.1315	9.86938
2.132	4.53186
2.1325	-0.10071
2.133	2.11487
2.1335	3.32336
2.134	7.35168
2.1345	7.65381
2.135	6.04248
2.1355	6.54602
2.136	2.11487
2.1365	6.44531
2.137	8.25806
2.1375	5.84106
2.138	1.40991
2.1385	2.31628
2.139	3.7262
2.1395	2.31628
2.14	5.74036
2.1405	4.93469
2.141	7.65381
2.1415	3.12195
2.142	0.70496
2.1425	8.15735
2.143	3.92761
2.1435	5.13611
2.144	2.01416
2.1445	1.51062
2.145	4.33044
2.1455	6.14319
2.146	12.28638
2.1465	4.12903
2.147	5.84106
2.1475	4.12903
2.148	6.04248
2.1485	2.71912
2.149	4.12903
2.1495	7.5531
2.15	8.7616
2.1505	2.71912
2.151	1.40991
2.1515	-2.11487
2.152	1.51062
2.1525	2.71912
2.153	3.02124
2.1535	4.12903
2.154	6.94885
2.1545	4.12903
2.155	11.07788
2.1555	1.71204
2.156	6.04248
2.1565	6.84814
2.157	6.54602
2.1575	7.65381
2.158	6.14319
2.1585	7.35168
2.159	6.84814
2.1595	5.43823
2.16	3.8269
2.1605	6.64673
2.161	5.0354
2.1615	1.00708
2.162	5.74036
2.1625	10.0708
2.163	6.54602
2.1635	3.32336
2.164	1.81274
2.1645	0.70496
2.165	3.02124
2.1655	6.04248
2.166	5.13611
2.1665	4.73328
2.167	4.12903
2.1675	6.44531
2.168	9.86938
2.1685	6.84814
2.169	7.35168
2.1695	4.12903
2.17	2.61841
2.1705	5.94177
2.171	7.65381
2.1715	3.92761
2.172	4.33044
2.1725	2.71912
2.173	0.60425
2.1735	4.93469
2.174	5.23682
2.1745	9.16443
2.175	6.14319
2.1755	5.33752
2.176	7.35168
2.1765	-0.60425
2.177	6.04248
2.1775	1.2085
2.178	9.46655
2.1785	5.74036
2.179	5.0354
2.1795	6.74744
2.18	3.42407
2.1805	7.75452
2.181	4.73328
2.1815	7.25098
2.182	6.44531
2.1825	2.92053
2.183	6.44531
2.1835	0.20142
2.184	6.54602
2.1845	4.83398
2.185	3.92761
2.1855	5.84106
2.186	3.7262
2.1865	11.07788
2.187	6.64673
2.1875	9.76868
2.188	7.35168
2.1885	1.91345
2.189	0.10071
2.1895	2.71912
2.19	8.66089
2.1905	8.35876
2.191	8.45947
2.1915	8.56018
2.192	8.66089
2.1925	4.93469
2.193	2.71912
2.1935	9.26514
2.194	3.42407
2.1945	3.62549
2.195	-0.30212
2.1955	6.3446
2.196	4.73328
2.1965	7.85522
2.197	2.01416
2.1975	8.05664
2.198	11.2793
2.1985	3.22266
2.199	9.97009
2.1995	5.63965
2.2	1.61133
2.2005	7.5531
2.201	13.49487
2.2015	7.04956
2.202	9.66797
2.2025	8.8623
2.203	4.22974
2.2035	0.10071
2.204	2.5177
2.2045	2.81982
2.205	2.61841
2.2055	3.8269
2.206	5.13611
2.2065	7.15027
2.207	6.54602
2.2075	4.43115
2.208	2.41699
2.2085	11.17859
2.209	4.83398
2.2095	5.84106
2.21	5.23682
2.2105	6.2439
2.211	7.45239
2.2115	3.12195
2.212	5.84106
2.2125	8.05664
2.213	4.73328
2.2135	-0.70496
2.214	1.10779
2.2145	5.84106
2.215	2.61841
2.2155	2.31628
2.216	1.2085
2.2165	3.8269
2.217	1.71204
2.2175	3.8269
2.218	1.51062
2.2185	6.2439
2.219	3.52478
2.2195	-4.12903
2.22	-1.91345
2.2205	4.12903
2.221	4.93469
2.2215	4.33044
2.222	4.12903
2.2225	4.93469
2.223	1.3092
2.2235	3.92761
2.224	1.3092
2.2245	2.41699
2.225	6.84814
2.2255	4.12903
2.226	6.64673
2.2265	6.44531
2.227	3.62549
2.2275	6.54602
2.228	5.74036
2.2285	10.57434
2.229	7.75452
2.2295	6.94885
2.23	8.96301
2.2305	3.7262
2.231	4.22974
2.2315	9.36584
2.232	4.02832
2.2325	7.75452
2.233	9.56726
2.2335	3.92761
2.234	10.37292
2.2345	8.56018
2.235	2.71912
2.2355	4.93469
2.236	2.92053
2.2365	7.75452
2.237	6.14319
2.2375	8.45947
2.238	4.12903
2.2385	5.23682
2.239	3.02124
2.2395	3.62549
2.24	2.11487
2.2405	1.51062
2.241	5.43823
2.2415	7.95593
2.242	2.81982
2.2425	5.63965
2.243	5.94177
2.2435	9.36584
2.244	7.35168
2.2445	6.2439
2.245	3.52478
2.2455	3.02124
2.246	4.63257
2.2465	4.93469
2.247	3.22266
2.2475	4.93469
2.248	2.01416
2.2485	5.23682
2.249	1.81274
2.2495	2.11487
2.25	2.71912
2.2505	1.3092
2.251	1.10779
2.2515	3.12195
2.252	-5.33752
2.2525	-3.8269
2.253	1.91345
2.2535	3.62549
2.254	3.92761
2.2545	3.42407
2.255	9.56726
2.2555	5.53894
2.256	4.73328
2.2565	4.02832
2.257	0.30212
2.2575	2.31628
2.258	-0.20142
2.2585	3.62549
2.259	-1.91345
2.2595	-2.21558
2.26	2.11487
2.2605	7.65381
2.261	7.15027
2.2615	-1.81274
2.262	1.00708
2.2625	5.84106
2.263	10.57434
2.2635	9.26514
2.264	6.64673
2.2645	2.31628
2.265	8.66089
2.2655	3.12195
2.266	9.76868
2.2665	6.94885
2.267	6.44531
2.2675	7.04956
2.268	6.3446
2.2685	9.36584
2.269	4.12903
2.2695	7.5531
2.27	4.12903
2.2705	7.25098
2.271	2.81982
2.2715	1.51062
2.272	6.74744
2.2725	6.3446
2.273	6.54602
2.2735	6.84814
2.274	7.45239
2.2745	4.22974
2.275	6.64673
2.2755	4.63257
2.276	7.65381
2.2765	3.22266
2.277	3.42407
2.2775	7.25098
2.278	3.12195
2.2785	3.22266
2.279	5.74036
2.2795	1.00708
2.28	4.53186
2.2805	8.15735
2.281	5.23682
2.2815	4.12903
2.282	6.84814
2.2825	4.33044
2.283	4.83398
2.2835	12.28638
2.284	13.19275
2.2845	9.56726
2.285	6.94885
2.2855	2.31628
2.286	7.25098
2.2865	7.35168
2.287	5.84106
2.2875	4.53186
2.288	2.92053
2.2885	0.80566
2.289	3.7262
2.2895	6.54602
2.29	8.25806
2.2905	1.51062
2.291	7.95593
2.2915	2.21558
2.292	2.92053
2.2925	6.64673
2.293	7.45239
2.2935	8.7616
2.294	7.85522
2.2945	10.17151
2.295	5.74036
2.2955	-2.01416
2.296	6.64673
2.2965	6.3446
2.297	3.92761
2.2975	6.3446
2.298	5.33752
2.2985	5.0354
2.299	10.17151
2.2995	4.73328
2.3	9.97009
2.3005	3.52478
2.301	1.2085
2.3015	-3.52478
2.302	-1.40991
2.3025	1.10779
2.303	-1.51062
2.3035	-3.12195
2.304	-2.81982
2.3045	-2.81982
2.305	-0.60425
2.3055	0.10071
2.306	4.02832
2.3065	-0.50354
2.307	-3.32336
2.3075	6.64673
2.308	0
2.3085	1.3092
2.309	4.33044
2.3095	6.14319
2.31	5.74036
2.3105	2.01416
2.311	5.84106
2.3115	3.02124
2.312	7.15027
2.3125	3.92761
2.313	7.85522
2.3135	6.64673
2.314	5.33752
2.3145	3.32336
2.315	5.0354
2.3155	5.23682
2.316	8.15735
2.3165	4.63257
2.317	8.66089
2.3175	1.91345
2.318	5.23682
2.3185	12.78992
2.319	8.25806
2.3195	3.22266
2.32	5.74036
2.3205	7.15027
2.321	7.95593
2.3215	2.11487
2.322	15.30762
2.3225	14.19983
2.323	9.46655
2.3235	11.48071
2.324	4.43115
2.3245	6.04248
2.325	3.52478
2.3255	8.66089
2.326	7.04956
2.3265	4.43115
2.327	3.42407
2.3275	6.44531
2.328	2.71912
2.3285	6.64673
2.329	5.23682
2.3295	8.05664
2.33	9.97009
2.3305	8.8623
2.331	0.70496
2.3315	5.43823
2.332	3.12195
2.3325	6.74744
2.333	2.61841
2.3335	2.11487
2.334	0.40283
2.3345	4.53186
2.335	6.84814
2.3355	5.0354
2.336	5.84106
2.3365	3.8269
2.337	5.13611
2.3375	7.04956
2.338	11.88354
2.3385	8.66089
2.339	4.02832
2.3395	4.33044
2.34	-1.81274
2.3405	1.00708
2.341	12.08496
2.3415	9.56726
2.342	7.45239
2.3425	6.64673
2.343	6.14319
2.3435	2.81982
2.344	2.71912
2.3445	2.41699
2.345	2.61841
2.3455	5.0354
2.346	3.32336
2.3465	1.40991
2.347	5.23682
2.3475	4.12903
2.348	9.06372
2.3485	10.67505
2.349	10.17151
2.3495	4.63257
2.35	4.12903
2.3505	1.71204
2.351	6.94885
2.3515	-0.10071
2.352	6.64673
2.3525	7.85522
2.353	7.04956
2.3535	6.14319
2.354	7.85522
2.3545	7.5531
2.355	4.43115
2.3555	8.15735
2.356	2.61841
2.3565	14.40125
2.357	11.58142
2.3575	6.54602
2.358	9.16443
2.3585	11.78284
2.359	9.26514
2.3595	8.45947
2.36	12.38708
2.3605	11.88354
2.361	8.05664
2.3615	10.37292
2.362	8.15735
2.3625	7.04956
2.363	6.54602
2.3635	7.5531
2.364	7.5531
2.3645	7.35168
2.365	10.17151
2.3655	8.25806
2.366	4.53186
2.3665	6.04248
2.367	9.46655
2.3675	4.22974
2.368	-0.10071
2.3685	1.61133
2.369	4.83398
2.3695	3.7262
2.37	5.0354
2.3705	4.43115
2.371	-0.40283
2.3715	-4.43115
2.372	1.40991
2.3725	-0.40283
2.373	0.10071
2.3735	0
2.374	1.2085
2.3745	2.01416
2.375	5.13611
2.3755	-2.21558
2.376	-2.71912
2.3765	-0.10071
2.377	0.30212
2.3775	-3.42407
2.378	-4.93469
2.3785	-11.07788
2.379	-5.0354
2.3795	-5.74036
2.38	-0.70496
2.3805	-0.90637
2.381	-11.98425
2.3815	-2.01416
2.382	-2.81982
2.3825	-6.3446
2.383	-5.13611
2.3835	-1.2085
2.384	-3.8269
2.3845	-4.73328
2.385	0.30212
2.3855	1.61133
2.386	0.50354
2.3865	-5.23682
2.387	3.8269
2.3875	3.22266
2.388	4.63257
2.3885	3.12195
2.389	4.83398
2.3895	1.81274
2.39	-2.71912
2.3905	-1.2085
2.391	3.52478
2.3915	2.5177
2.392	4.33044
2.3925	7.75452
2.393	4.63257
2.3935	-2.21558
2.394	-1.2085
2.3945	4.12903
2.395	7.75452
2.3955	3.12195
2.396	1.40991
2.3965	5.13611
2.397	2.71912
2.3975	7.25098
2.398	10.17151
2.3985	8.96301
2.399	5.53894
2.3995	5.84106
2.4	13.59558
2.4005	10.17151
2.401	13.09204
2.4015	9.86938
2.402	5.94177
2.4025	7.04956
2.403	7.04956
2.4035	10.57434
2.404	10.87646
2.4045	11.98425
2.405	12.18567
2.4055	6.74744
2.406	13.39417
2.4065	9.66797
2.407	10.57434
2.4075	11.68213
2.408	11.88354
2.4085	10.17151
2.409	3.92761
2.4095	7.15027
2.41	14.50195
2.4105	17.82532
2.411	11.98425
2.4115	10.77576
2.412	13.39417
2.4125	10.97717
2.413	8.66089
2.4135	15.1062
2.414	12.18567
2.4145	8.66089
2.415	4.43115
2.4155	6.2439
2.416	11.48071
2.4165	13.39417
2.417	8.15735
2.4175	0.90637
2.418	-0.90637
2.4185	4.93469
2.419	2.81982
2.4195	6.44531
2.42	6.04248
2.4205	4.43115
2.421	4.93469
2.4215	8.25806
2.422	13.49487
2.4225	12.48779
2.423	8.7616
2.4235	7.85522
2.424	3.52478
2.4245	8.05664
2.425	6.74744
2.4255	3.7262
2.426	11.17859
2.4265	5.94177
2.427	4.83398
2.4275	5.63965
2.428	5.23682
2.4285	9.46655
2.429	6.2439
2.4295	7.95593
2.43	10.17151
2.4305	4.22974
2.431	4.33044
2.4315	4.02832
2.432	5.33752
2.4325	8.25806
2.433	9.46655
2.4335	6.74744
2.434	7.04956
2.4345	10.77576
2.435	12.18567
2.4355	5.53894
2.436	10.67505
2.4365	5.33752
2.437	6.14319
2.4375	9.06372
2.438	6.84814
2.4385	5.43823
2.439	1.3092
2.4395	3.22266
2.44	0.90637
2.4405	8.56018
2.441	3.92761
2.4415	4.12903
2.442	6.74744
2.4425	6.64673
2.443	4.63257
2.4435	5.0354
2.444	10.77576
2.4445	2.31628
2.445	7.25098
2.4455	3.22266
2.446	2.71912
2.4465	-1.00708
2.447	6.84814
2.4475	6.14319
2.448	7.65381
2.4485	6.94885
2.449	5.33752
2.4495	1.71204
2.45	4.83398
2.4505	-0.30212
2.451	7.5531
2.4515	1.81274
2.452	4.73328
2.4525	8.8623
2.453	10.17151
2.4535	5.53894
2.454	3.7262
2.4545	4.63257
2.455	2.31628
2.4555	5.23682
2.456	9.46655
2.4565	12.48779
2.457	2.61841
2.4575	2.81982
2.458	12.08496
2.4585	0.90637
2.459	3.8269
2.4595	8.15735
2.46	6.94885
2.4605	11.38
2.461	5.33752
2.4615	4.73328
2.462	7.25098
2.4625	8.56018
2.463	1.81274
2.4635	14.09912
2.464	7.95593
2.4645	4.33044
2.465	7.85522
2.4655	4.43115
2.466	7.5531
2.4665	8.15735
2.467	7.95593
2.4675	12.28638
2.468	4.53186
2.4685	1.10779
2.469	4.53186
2.4695	7.35168
2.47	5.33752
2.4705	5.13611
2.471	5.43823
2.4715	8.66089
2.472	2.81982
2.4725	-0.50354
2.473	2.81982
2.4735	6.54602
2.474	3.32336
2.4745	-0.50354
2.475	-1.81274
2.4755	4.63257
2.476	1.51062
2.4765	-2.41699
2.477	1.2085
2.4775	4.83398
2.478	-5.53894
2.4785	4.12903
2.479	1.81274
2.4795	4.53186
2.48	1.71204
2.4805	6.84814
2.481	2.21558
2.4815	4.33044
2.482	-3.52478
2.4825	7.25098
2.483	3.12195
2.4835	5.63965
2.484	3.22266
2.4845	0.60425
2.485	2.81982
2.4855	-0.80566
2.486	0.40283
2.4865	3.8269
2.487	6.74744
2.4875	5.94177
2.488	3.12195
2.4885	9.66797
2.489	10.17151
2.4895	4.93469
2.49	8.35876
2.4905	3.22266
2.491	5.23682
2.4915	4.33044
2.492	8.8623
2.4925	15.71045
2.493	7.25098
2.4935	8.15735
2.494	3.42407
2.4945	5.74036
2.495	1.61133
2.4955	10.77576
2.496	7.85522
2.4965	10.57434
2.497	9.76868
2.4975	12.68921
2.498	12.08496
2.4985	9.97009
2.499	11.88354
2.4995	6.04248
2.5	6.64673
2.5005	3.42407
2.501	5.74036
2.5015	10.97717
2.502	2.71912
2.5025	-1.91345
2.503	4.83398
2.5035	7.25098
2.504	6.64673
2.5045	1.10779
2.505	5.94177
2.5055	5.94177
2.506	10.67505
2.5065	6.84814
2.507	5.74036
2.5075	7.15027
2.508	4.33044
2.5085	4.22974
2.509	-1.71204
2.5095	0.80566
2.51	-0.30212
2.5105	-4.22974
2.511	5.53894
2.5115	-0.30212
2.512	0.70496
2.5125	-0.10071
2.513	2.01416
2.5135	-3.92761
2.514	-1.71204
2.5145	4.02832
2.515	0
2.5155	-3.42407
2.516	-1.91345
2.5165	-2.81982
2.517	-0.20142
2.5175	-2.61841
2.518	0.50354
2.5185	-3.62549
2.519	2.01416
2.5195	2.01416
2.52	1.00708
2.5205	5.84106
2.521	8.25806
2.5215	8.8623
2.522	3.92761
2.5225	9.36584
2.523	8.45947
2.5235	7.5531
2.524	7.25098
2.5245	8.96301
2.525	12.89062
2.5255	7.45239
2.526	13.69629
2.5265	19.73877
2.527	14.19983
2.5275	18.53027
2.528	11.07788
2.5285	12.38708
2.529	5.84106
2.5295	7.45239
2.53	7.85522
2.5305	3.32336
2.531	6.3446
2.5315	7.04956
2.532	5.84106
2.5325	5.74036
2.533	9.16443
2.5335	2.41699
2.534	2.21558
2.5345	6.3446
2.535	-3.62549
2.5355	4.43115
2.536	-0.10071
2.5365	6.84814
2.537	3.22266
2.5375	-0.80566
2.538	-2.71912
2.5385	-0.90637
2.539	1.2085
2.5395	4.83398
2.54	0.60425
2.5405	-0.20142
2.541	5.94177
2.5415	3.42407
2.542	3.32336
2.5425	9.66797
2.543	3.32336
2.5435	2.81982
2.544	5.0354
2.5445	2.41699
2.545	2.41699
2.5455	4.02832
2.546	-0.90637
2.5465	0.90637
2.547	3.92761
2.5475	0.50354
2.548	0.10071
2.5485	0.90637
2.549	1.00708
2.5495	2.71912
2.55	-0.60425
2.5505	7.04956
2.551	1.2085
2.5515	1.61133
2.552	0.10071
2.5525	0
2.553	3.22266
2.5535	-2.71912
2.554	1.71204
2.5545	0.70496
2.555	0.90637
2.5555	-2.21558
2.556	1.71204
2.5565	4.22974
2.557	6.2439
2.5575	1.61133
2.558	1.2085
2.5585	5.33752
2.559	4.43115
2.5595	0.10071
2.56	3.32336
2.5605	4.02832
2.561	2.11487
2.5615	6.44531
2.562	5.53894
2.5625	-0.90637
2.563	6.44531
2.5635	11.58142
2.564	4.33044
2.5645	9.06372
2.565	7.35168
2.5655	3.12195
2.566	4.43115
2.5665	2.61841
2.567	6.94885
2.5675	6.54602
2.568	7.15027
2.5685	5.94177
2.569	3.42407
2.5695	4.02832
2.57	5.43823
2.5705	9.86938
2.571	4.43115
2.5715	-0.40283
2.572	0.80566
2.5725	1.71204
2.573	2.11487
2.5735	0.50354
2.574	7.35168
2.5745	-0.60425
2.575	2.81982
2.5755	5.0354
2.576	8.7616
2.5765	8.35876
2.577	8.96301
2.5775	3.22266
2.578	0.40283
2.5785	3.42407
2.579	6.3446
2.5795	6.3446
2.58	2.41699
2.5805	5.84106
2.581	3.42407
2.5815	4.93469
2.582	-4.33044
2.5825	7.25098
2.583	5.0354
2.5835	4.02832
2.584	4.63257
2.5845	2.92053
2.585	1.61133
2.5855	-0.50354
2.586	6.3446
2.5865	12.5885
2.587	1.3092
2.5875	6.14319
2.588	6.04248
2.5885	2.11487
2.589	7.04956
2.5895	3.92761
2.59	5.33752
2.5905	5.94177
2.591	3.52478
2.5915	0.20142
2.592	0.30212
2.5925	9.56726
2.593	8.15735
2.5935	6.84814
2.594	5.33752
2.5945	4.83398
2.595	5.94177
2.5955	2.81982
2.596	3.7262
2.5965	2.81982
2.597	3.22266
2.5975	-0.80566
2.598	2.41699
2.5985	6.2439
2.599	5.63965
2.5995	5.74036
2.6	-0.10071
2.6005	-1.10779
2.601	4.02832
2.6015	9.16443
2.602	3.92761
2.6025	4.12903
2.603	8.15735
2.6035	5.23682
2.604	-0.10071
2.6045	6.44531
2.605	5.84106
2.6055	6.84814
2.606	4.93469
2.6065	2.21558
2.607	-2.71912
2.6075	-0.30212
2.608	1.2085
2.6085	1.00708
2.609	6.54602
2.6095	3.62549
2.61	1.2085
2.6105	-1.40991
2.611	4.93469
2.6115	6.3446
2.612	3.8269
2.6125	3.22266
2.613	0.90637
2.6135	-3.42407
2.614	-1.10779
2.6145	6.84814
2.615	2.71912
2.6155	4.33044
2.616	1.10779
2.6165	-2.01416
2.617	6.04248
2.6175	4.73328
2.618	-0.30212
2.6185	4.73328
2.619	5.53894
2.6195	5.23682
2.62	5.23682
2.6205	9.66797
2.621	2.92053
2.6215	-1.71204
2.622	0.20142
2.6225	-0.60425
2.623	-1.00708
2.6235	3.62549
2.624	5.13611
2.6245	0.60425
2.625	1.40991
2.6255	3.8269
2.626	4.02832
2.6265	3.12195
2.627	5.33752
2.6275	4.53186
2.628	5.23682
2.6285	6.04248
2.629	7.75452
2.6295	3.42407
2.63	8.7616
2.6305	5.13611
2.631	6.04248
2.6315	5.63965
2.632	4.73328
2.6325	3.62549
2.633	5.74036
2.6335	2.61841
2.634	7.85522
2.6345	7.75452
2.635	6.94885
2.6355	7.35168
2.636	6.04248
2.6365	5.84106
2.637	12.89062
2.6375	7.25098
2.638	6.84814
2.6385	-1.81274
2.639	2.41699
2.6395	6.3446
2.64	7.35168
2.6405	0.70496
2.641	-0.20142
2.6415	1.81274
2.642	4.33044
2.6425	3.52478
2.643	3.7262
2.6435	4.33044
2.644	5.53894
2.6445	4.53186
2.645	2.21558
2.6455	3.92761
2.646	4.83398
2.6465	6.04248
2.647	13.19275
2.6475	9.97009
2.648	8.15735
2.6485	4.63257
2.649	0.50354
2.6495	6.44531
2.65	3.12195
2.6505	0.50354
2.651	4.22974
2.6515	3.32336
2.652	6.14319
2.6525	7.45239
2.653	5.53894
2.6535	8.05664
2.654	9.46655
2.6545	4.63257
2.655	10.37292
2.6555	3.22266
2.656	6.94885
2.6565	8.15735
2.657	5.23682
2.6575	2.71912
2.658	8.56018
2.6585	5.63965
2.659	10.47363
2.6595	13.49487
2.66	11.48071
2.6605	6.74744
2.661	4.12903
2.6615	9.26514
2.662	8.56018
2.6625	6.04248
2.663	10.37292
2.6635	4.73328
2.664	4.93469
2.6645	7.5531
2.665	5.84106
2.6655	5.23682
2.666	12.48779
2.6665	7.75452
2.667	4.83398
2.6675	10.47363
2.668	7.65381
2.6685	8.45947
2.669	8.96301
2.6695	12.38708
2.67	10.47363
2.6705	11.98425
2.671	7.04956
2.6715	2.71912
2.672	0.30212
2.6725	5.13611
2.673	8.45947
2.6735	8.25806
2.674	10.77576
2.6745	2.92053
2.675	9.66797
2.6755	2.31628
2.676	4.73328
2.6765	5.43823
2.677	5.13611
2.6775	2.11487
2.678	3.42407
2.6785	8.45947
2.679	4.63257
2.6795	9.36584
2.68	6.44531
2.6805	2.71912
2.681	3.62549
2.6815	1.61133
2.682	5.53894
2.6825	11.07788
2.683	9.26514
2.6835	5.43823
2.684	9.86938
2.6845	8.05664
2.685	7.95593
2.6855	10.57434
2.686	15.00549
2.6865	7.5531
2.687	11.68213
2.6875	5.23682
2.688	5.74036
2.6885	9.46655
2.689	15.30762
2.6895	10.57434
2.69	11.2793
2.6905	14.60266
2.691	11.78284
2.6915	11.88354
2.692	11.58142
2.6925	6.84814
2.693	9.56726
2.6935	10.17151
2.694	6.84814
2.6945	4.33044
2.695	5.33752
2.6955	6.04248
2.696	13.09204
2.6965	16.51611
2.697	10.57434
2.6975	7.85522
2.698	7.85522
2.6985	6.94885
2.699	12.28638
2.6995	9.86938
2.7	4.53186
2.7005	7.35168
2.701	5.63965
2.7015	13.19275
2.702	9.56726
2.7025	8.7616
2.703	8.8623
2.7035	5.43823
2.704	8.15735
2.7045	9.56726
2.705	15.1062
2.7055	14.70337
2.706	6.14319
2.7065	9.36584
2.707	13.49487
2.7075	9.36584
2.708	9.36584
2.7085	8.35876
2.709	7.75452
2.7095	4.93469
2.71	4.12903
2.7105	4.02832
2.711	8.45947
2.7115	5.0354
2.712	6.94885
2.7125	10.37292
2.713	8.96301
2.7135	7.35168
2.714	1.71204
2.7145	3.12195
2.715	7.35168
2.7155	7.04956
2.716	4.63257
2.7165	4.63257
2.717	1.81274
2.7175	3.22266
2.718	6.04248
2.7185	12.68921
2.719	8.35876
2.7195	11.07788
2.72	6.84814
2.7205	2.5177
2.721	2.01416
2.7215	7.65381
2.722	7.35168
2.7225	8.56018
2.723	5.33752
2.7235	4.12903
2.724	6.44531
2.7245	2.92053
2.725	2.21558
2.7255	-1.81274
2.726	2.61841
2.7265	-1.51062
2.727	3.12195
2.7275	4.33044
2.728	3.7262
2.7285	-0.80566
2.729	-1.3092
2.7295	0.30212
2.73	3.92761
2.7305	1.61133
2.731	8.56018
2.7315	0.60425
2.732	6.14319
2.7325	3.92761
2.733	10.0708
2.7335	6.74744
2.734	7.25098
2.7345	7.25098
2.735	6.64673
2.7355	5.74036
2.736	3.22266
2.7365	1.00708
2.737	5.74036
2.7375	0.20142
2.738	2.92053
2.7385	8.35876
2.739	5.43823
2.7395	4.12903
2.74	3.7262
2.7405	2.5177
2.741	4.43115
2.7415	3.7262
2.742	7.5531
2.7425	3.32336
2.743	6.44531
2.7435	8.15735
2.744	5.33752
2.7445	4.12903
2.745	6.3446
2.7455	6.04248
2.746	3.22266
2.7465	4.22974
2.747	0.10071
2.7475	2.71912
2.748	4.53186
2.7485	11.68213
2.749	5.13611
2.7495	3.8269
2.75	3.52478
2.7505	2.5177
2.751	7.45239
2.7515	5.53894
2.752	7.15027
2.7525	7.04956
2.753	6.14319
2.7535	8.15735
2.754	6.2439
2.7545	4.53186
2.755	8.8623
2.7555	5.13611
2.756	5.23682
2.7565	3.12195
2.757	2.81982
2.7575	2.31628
2.758	0.30212
2.7585	0.50354
2.759	4.22974
2.7595	3.32336
2.76	2.81982
2.7605	0.50354
2.761	5.0354
2.7615	6.84814
2.762	4.43115
2.7625	4.53186
2.763	9.56726
2.7635	8.05664
2.764	2.92053
2.7645	2.5177
2.765	8.66089
2.7655	7.15027
2.766	6.3446
2.7665	4.63257
2.767	3.12195
2.7675	-0.10071
2.768	4.73328
2.7685	4.83398
2.769	5.53894
2.7695	7.15027
2.77	5.13611
2.7705	6.2439
2.771	6.54602
2.7715	3.32336
2.772	1.40991
2.7725	1.71204
2.773	2.31628
2.7735	7.35168
2.774	9.66797
2.7745	9.16443
2.775	3.62549
2.7755	8.56018
2.776	4.43115
2.7765	1.61133
2.777	0.90637
2.7775	8.7616
2.778	13.19275
2.7785	6.14319
2.779	8.15735
2.7795	11.98425
2.78	13.29346
2.7805	9.86938
2.781	6.54602
2.7815	9.06372
2.782	5.23682
2.7825	5.84106
2.783	4.22974
2.7835	5.53894
2.784	5.74036
2.7845	5.13611
2.785	4.12903
2.7855	2.21558
2.786	9.06372
2.7865	11.98425
2.787	9.06372
2.7875	4.93469
2.788	10.17151
2.7885	10.47363
2.789	10.47363
2.7895	6.94885
2.79	7.75452
2.7905	9.97009
2.791	11.48071
2.7915	9.66797
2.792	14.40125
2.7925	10.0708
2.793	5.84106
2.7935	10.97717
2.794	4.33044
2.7945	7.45239
2.795	9.56726
2.7955	7.85522
2.796	9.46655
2.7965	2.61841
2.797	7.15027
2.7975	8.05664
2.798	7.5531
2.7985	4.83398
2.799	3.32336
2.7995	1.61133
2.8	0.70496
2.8005	4.93469
2.801	1.51062
2.8015	0.40283
2.802	5.94177
2.8025	6.3446
2.803	7.04956
2.8035	6.54602
2.804	7.04956
2.8045	6.44531
2.805	6.2439
2.8055	11.07788
2.806	1.40991
2.8065	4.12903
2.807	1.3092
2.8075	6.3446
2.808	10.27222
2.8085	7.45239
2.809	6.64673
2.8095	9.16443
2.81	10.37292
2.8105	4.83398
2.811	7.25098
2.8115	3.42407
2.812	6.14319
2.8125	7.65381
2.813	3.42407
2.8135	8.56018
2.814	3.52478
2.8145	-0.60425
2.815	4.63257
2.8155	4.63257
2.816	2.11487
2.8165	7.25098
2.817	-2.61841
2.8175	-1.00708
2.818	-0.20142
2.8185	3.32336
2.819	4.53186
2.8195	5.43823
2.82	9.56726
2.8205	8.25806
2.821	7.15027
2.8215	7.25098
2.822	10.37292
2.8225	12.5885
2.823	11.38
2.8235	8.25806
2.824	7.85522
2.8245	10.87646
2.825	5.74036
2.8255	12.38708
2.826	13.99841
2.8265	12.28638
2.827	5.84106
2.8275	5.53894
2.828	9.46655
2.8285	9.26514
2.829	10.67505
2.8295	7.15027
2.83	9.16443
2.8305	8.25806
2.831	7.75452
2.8315	6.74744
2.832	8.45947
2.8325	8.25806
2.833	7.85522
2.8335	6.54602
2.834	5.33752
2.8345	5.84106
2.835	4.02832
2.8355	5.53894
2.836	9.46655
2.8365	3.92761
2.837	1.51062
2.8375	7.04956
2.838	0
2.8385	1.71204
2.839	1.81274
2.8395	5.23682
2.84	3.22266
2.8405	5.0354
2.841	3.7262
2.8415	4.43115
2.842	2.71912
2.8425	8.56018
2.843	5.74036
2.8435	0.50354
2.844	4.22974
2.8445	4.93469
2.845	7.45239
2.8455	11.78284
2.846	5.94177
2.8465	4.12903
2.847	1.3092
2.8475	2.21558
2.848	4.73328
2.8485	4.53186
2.849	7.95593
2.8495	6.74744
2.85	6.44531
2.8505	5.33752
2.851	2.21558
2.8515	6.64673
2.852	7.75452
2.8525	8.7616
2.853	4.02832
2.8535	8.45947
2.854	3.32336
2.8545	0.90637
2.855	1.61133
2.8555	5.74036
2.856	8.05664
2.8565	3.62549
2.857	7.25098
2.8575	6.3446
2.858	7.35168
2.8585	5.43823
2.859	6.14319
2.8595	1.71204
2.86	6.14319
2.8605	5.74036
2.861	2.61841
2.8615	4.02832
2.862	7.5531
2.8625	6.2439
2.863	7.85522
2.8635	3.32336
2.864	4.33044
2.8645	8.15735
2.865	11.07788
2.8655	8.7616
2.866	7.35168
2.8665	3.32336
2.867	5.0354
2.8675	5.84106
2.868	5.53894
2.8685	4.33044
2.869	5.23682
2.8695	5.43823
2.87	5.74036
2.8705	8.8623
2.871	7.85522
2.8715	3.32336
2.872	7.45239
2.8725	4.83398
2.873	11.07788
2.8735	8.35876
2.874	5.43823
2.8745	2.01416
2.875	6.44531
2.8755	9.36584
2.876	7.25098
2.8765	3.12195
2.877	1.91345
2.8775	4.12903
2.878	4.63257
2.8785	5.63965
2.879	1.2085
2.8795	4.63257
2.88	7.5531
2.8805	1.51062
2.881	8.96301
2.8815	3.22266
2.882	8.45947
2.8825	8.7616
2.883	0.20142
2.8835	8.25806
2.884	9.26514
2.8845	10.87646
2.885	6.04248
2.8855	4.33044
2.886	8.96301
2.8865	4.83398
2.887	2.61841
2.8875	5.23682
2.888	7.15027
2.8885	0.10071
2.889	5.13611
2.8895	-1.51062
2.89	2.41699
2.8905	-0.40283
2.891	2.11487
2.8915	5.53894
2.892	5.84106
2.8925	3.62549
2.893	0.40283
2.8935	-0.60425
2.894	1.3092
2.8945	0.40283
2.895	-1.40991
2.8955	-0.10071
2.896	-1.91345
2.8965	-4.02832
2.897	-4.73328
2.8975	-6.3446
2.898	-5.23682
2.8985	-6.04248
2.899	-8.35876
2.8995	-1.3092
2.9	-2.31628
2.9005	-8.25806
2.901	-4.63257
2.9015	-1.3092
2.902	-5.0354
2.9025	-5.13611
2.903	-2.21558
2.9035	-1.00708
2.904	-3.22266
2.9045	2.61841
2.905	5.23682
2.9055	6.84814
2.906	6.64673
2.9065	8.96301
2.907	7.35168
2.9075	10.87646
2.908	9.86938
2.9085	7.15027
2.909	2.01416
2.9095	5.94177
2.91	4.02832
2.9105	10.67505
2.911	9.76868
2.9115	11.78284
2.912	8.45947
2.9125	6.74744
2.913	7.85522
2.9135	8.66089
2.914	8.7616
2.9145	9.76868
2.915	6.94885
2.9155	5.53894
2.916	6.04248
2.9165	6.84814
2.917	7.85522
2.9175	9.46655
2.918	11.78284
2.9185	14.50195
2.919	5.74036
2.9195	7.45239
2.92	9.46655
2.9205	11.38
2.921	7.95593
2.9215	10.87646
2.922	7.95593
2.9225	7.45239
2.923	5.84106
2.9235	9.16443
2.924	5.63965
2.9245	10.77576
2.925	10.0708
2.9255	3.62549
2.926	9.06372
2.9265	12.5885
2.927	3.32336
2.9275	-1.3092
2.928	4.12903
2.9285	-2.5177
2.929	1.51062
2.9295	1.51062
2.93	2.81982
2.9305	1.71204
2.931	1.40991
2.9315	4.43115
2.932	-0.20142
2.9325	-3.02124
2.933	-2.01416
2.9335	-6.04248
2.934	-4.22974
2.9345	-4.12903
2.935	-3.02124
2.9355	0.20142
2.936	-2.5177
2.9365	-0.70496
2.937	-2.21558
2.9375	-6.14319
2.938	-8.56018
2.9385	-10.37292
2.939	-5.84106
2.9395	-3.62549
2.94	-7.15027
2.9405	-5.74036
2.941	-6.04248
2.9415	-4.43115
2.942	-14.09912
2.9425	-10.77576
2.943	-12.89062
2.9435	-12.89062
2.944	-8.7616
2.9445	-6.64673
2.945	-9.46655
2.9455	-4.02832
2.946	-2.92053
2.9465	-3.32336
2.947	-7.85522
2.9475	0.90637
2.948	-6.14319
2.9485	0.70496
2.949	-1.51062
2.9495	0.70496
2.95	2.41699
2.9505	-5.0354
2.951	-3.7262
2.9515	-0.20142
2.952	1.2085
2.9525	0.60425
2.953	2.11487
2.9535	0.60425
2.954	-0.30212
2.9545	-3.02124
2.955	-0.30212
2.9555	7.95593
2.956	10.47363
2.9565	12.68921
2.957	5.63965
2.9575	13.59558
2.958	12.78992
2.9585	15.40833
2.959	13.39417
2.9595	5.94177
2.96	5.23682
2.9605	5.33752
2.961	7.15027
2.9615	6.14319
2.962	-0.20142
2.9625	-4.83398
2.963	-3.8269
2.9635	-12.08496
2.964	-7.25098
2.9645	-7.25098
2.965	-6.94885
2.9655	-8.56018
2.966	-10.47363
2.9665	-6.3446
2.967	-9.66797
2.9675	-4.63257
2.968	3.12195
2.9685	2.81982
2.969	7.04956
2.9695	7.95593
2.97	7.25098
2.9705	5.84106
2.971	12.89062
2.9715	13.69629
2.972	17.22107
2.9725	19.53735
2.973	12.5885
2.9735	10.57434
2.974	6.74744
2.9745	8.05664
2.975	12.78992
2.9755	9.06372
2.976	3.62549
2.9765	5.33752
2.977	6.14319
2.9775	6.2439
2.978	-0.30212
2.9785	-0.20142
2.979	-1.10779
2.9795	-1.3092
2.98	3.22266
2.9805	2.01416
2.981	0.70496
2.9815	-2.5177
2.982	2.31628
2.9825	-0.80566
2.983	1.40991
2.9835	-1.2085
2.984	-1.10779
2.9845	-2.61841
2.985	3.42407
2.9855	5.63965
2.986	5.33752
2.9865	3.12195
2.987	4.73328
2.9875	3.92761
2.988	10.37292
2.9885	2.5177
2.989	2.61841
2.9895	7.75452
2.99	9.66797
2.9905	11.38
2.991	8.66089
2.9915	9.97009
2.992	7.25098
2.9925	7.5531
2.993	10.77576
2.9935	8.45947
2.994	7.45239
2.9945	11.07788
2.995	11.2793
2.9955	15.20691
2.996	10.77576
2.9965	10.47363
2.997	14.80408
2.9975	17.52319
2.998	21.04797
2.9985	17.92603
2.999	15.1062
2.9995	17.22107
3	19.73877
3.0005	15.20691
3.001	19.73877
3.0015	21.75293
3.002	20.94727
3.0025	16.51611
3.003	15.00549
3.0035	19.13452
3.004	13.09204
3.0045	18.22815
3.005	20.24231
3.0055	22.35718
3.006	16.01257
3.0065	16.3147
3.007	16.61682
3.0075	9.66797
3.008	13.69629
3.0085	16.51611
3.009	11.48071
3.0095	11.78284
3.01	11.17859
3.0105	12.18567
3.011	14.60266
3.0115	12.08496
3.012	13.09204
3.0125	16.41541
3.013	15.81116
3.0135	12.18567
3.014	19.43665
3.0145	15.1062
3.015	14.30054
3.0155	10.57434
3.016	14.30054
3.0165	16.01257
3.017	21.75293
3.0175	16.51611
3.018	15.40833
3.0185	15.71045
3.019	10.67505
3.0195	18.53027
3.02	16.21399
3.0205	14.50195
3.021	14.70337
3.0215	15.91187
3.022	17.12036
3.0225	15.81116
3.023	15.20691
3.0235	17.12036
3.024	17.32178
3.0245	12.28638
3.025	13.09204
3.0255	21.04797
3.026	14.09912
3.0265	16.91895
3.027	17.6239
3.0275	17.22107
3.028	12.48779
3.0285	11.38
3.029	11.38
3.0295	15.20691
3.03	20.64514
3.0305	21.3501
3.031	17.42249
3.0315	18.93311
3.032	19.23523
3.0325	19.73877
3.033	15.91187
3.0335	21.3501
3.034	18.22815
3.0345	11.38
3.035	14.19983
3.0355	16.91895
3.036	19.94019
3.0365	15.30762
3.037	13.69629
3.0375	8.56018
3.038	9.86938
3.0385	9.46655
3.039	12.89062
3.0395	13.49487
3.04	11.58142
3.0405	12.78992
3.041	13.99841
3.0415	10.47363
3.042	13.39417
3.0425	14.80408
3.043	14.50195
3.0435	12.38708
3.044	11.98425
3.0445	16.3147
3.045	17.22107
3.0455	9.86938
3.046	12.28638
3.0465	11.48071
3.047	17.32178
3.0475	15.30762
3.048	14.50195
3.0485	13.39417
3.049	11.58142
3.0495	10.0708
3.05	8.56018
3.0505	9.76868
3.051	11.38
3.0515	12.08496
3.052	11.48071
3.0525	10.67505
3.053	10.67505
3.0535	15.1062
3.054	14.09912
3.0545	22.6593
3.055	27.19116
3.0555	28.70178
3.056	19.53735
3.0565	23.46497
3.057	27.39258
3.0575	29.00391
3.058	28.29895
3.0585	24.57275
3.059	27.49329
3.0595	33.13293
3.06	31.32019
3.0605	36.25488
3.061	29.50745
3.0615	28.70178
3.062	26.48621
3.0625	26.48621
3.063	21.45081
3.0635	16.51611
3.064	10.57434
3.0645	10.77576
3.065	5.43823
3.0655	-3.32336
3.066	-7.75452
3.0665	-12.99133
3.067	-21.75293
3.0675	-19.53735
3.068	-23.16284
3.0685	-32.62939
3.069	-32.7301
3.0695	-35.04639
3.07	-36.75842
3.0705	-18.93311
3.071	-16.3147
3.0715	-23.06213
3.072	-16.41541
3.0725	-19.73877
3.073	-24.47205
3.0735	-21.45081
3.074	-14.30054
3.0745	-14.30054
3.075	-13.69629
3.0755	-12.28638
3.076	-1.10779
3.0765	0.10071
3.077	-2.81982
3.0775	-1.51062
3.078	2.21558
3.0785	2.11487
3.079	2.41699
3.0795	-2.01416
3.08	3.02124
3.0805	0.40283
3.081	-6.04248
3.0815	-6.04248
3.082	-10.17151
3.0825	-12.08496
3.083	-9.86938
3.0835	-9.56726
3.084	-4.22974
3.0845	2.01416
3.085	6.94885
3.0855	4.53186
3.086	9.06372
3.0865	20.54443
3.087	22.35718
3.0875	23.8678
3.088	27.09045
3.0885	28.60107
3.089	32.42798
3.0895	35.54993
3.09	27.39258
3.0905	26.98975
3.091	19.63806
3.0915	17.82532
3.092	8.96301
3.0925	5.33752
3.093	3.7262
3.0935	-2.92053
3.094	1.40991
3.0945	-2.5177
3.095	-3.7262
3.0955	-7.5531
3.096	-11.68213
3.0965	-16.3147
3.097	-20.44373
3.0975	-17.32178
3.098	-17.22107
3.0985	-12.99133
3.099	-7.04956
3.0995	-4.73328
3.1	-6.2439
3.1005	0.90637
3.101	1.81274
3.1015	-2.01416
3.102	-5.13611
3.1025	-3.42407
3.103	-0.50354
3.1035	3.32336
3.104	2.41699
3.1045	10.0708
3.105	15.00549
3.1055	30.11169
3.106	38.67188
3.1065	44.61365
3.107	48.23914
3.1075	51.26038
3.108	56.79932
3.1085	58.00781
3.109	55.49011
3.1095	50.65613
3.11	49.95117
3.1105	50.85754
3.111	51.5625
3.1115	39.37683
3.112	29.91028
3.1125	31.92444
3.113	17.12036
3.1135	15.40833
3.114	4.83398
3.1145	-0.50354
3.115	-8.96301
3.1155	-16.3147
3.116	-19.94019
3.1165	-21.45081
3.117	-19.23523
3.1175	-20.64514
3.118	-19.13452
3.1185	-19.33594
3.119	-21.55151
3.1195	-11.78284
3.12	-15.20691
3.1205	-11.48071
3.121	-13.99841
3.1215	-8.96301
3.122	0.10071
3.1225	3.8269
3.123	0.40283
3.1235	-5.33752
3.124	-3.8269
3.1245	-5.84106
3.125	-10.47363
3.1255	-6.74744
3.126	-7.75452
3.1265	-7.65381
3.127	-15.30762
3.1275	-11.58142
3.128	-15.40833
3.1285	-12.78992
3.129	-15.50903
3.1295	-11.58142
3.13	-19.03381
3.1305	-13.99841
3.131	-5.13611
3.1315	-6.54602
3.132	-5.53894
3.1325	0.70496
3.133	1.61133
3.1335	2.5177
3.134	-3.7262
3.1345	3.42407
3.135	4.63257
3.1355	10.37292
3.136	7.04956
3.1365	7.15027
3.137	2.92053
3.1375	11.07788
3.138	9.46655
3.1385	7.04956
3.139	6.84814
3.1395	3.32336
3.14	2.71912
3.1405	3.8269
3.141	1.51062
3.1415	8.05664
3.142	7.65381
3.1425	4.33044
3.143	6.04248
3.1435	1.2085
3.144	-0.10071
3.1445	5.23682
3.145	4.53186
3.1455	3.62549
3.146	4.33044
3.1465	5.53894
3.147	8.45947
3.1475	17.42249
3.148	17.72461
3.1485	22.76001
3.149	23.8678
3.1495	18.73169
3.15	17.12036
3.1505	19.33594
3.151	25.177
3.1515	29.80957
3.152	27.49329
3.1525	24.67346
3.153	31.32019
3.1535	26.68762
3.154	25.37842
3.1545	26.98975
3.155	28.9032
3.1555	34.34143
3.156	32.12585
3.1565	41.08887
3.157	60.22339
3.1575	62.33826
3.158	58.71277
3.1585	54.98657
3.159	55.99365
3.1595	58.71277
3.16	49.95117
3.1605	46.42639
3.161	28.70178
3.1615	16.81824
3.162	4.43115
3.1625	-0.20142
3.163	-11.88354
3.1635	-18.93311
3.164	-27.6947
3.1645	-33.73718
3.165	-41.59241
3.1655	-41.39099
3.166	-43.00232
3.1665	-47.63489
3.167	-53.27454
3.1675	-64.85596
3.168	-64.85596
3.1685	-61.83472
3.169	-56.09436
3.1695	-47.53418
3.17	-35.54993
3.1705	-36.15417
3.171	-31.11877
3.1715	-19.94019
3.172	-11.48071
3.1725	-1.51062
3.173	4.53186
3.1735	8.66089
3.174	9.06372
3.1745	4.93469
3.175	8.15735
3.1755	7.75452
3.176	19.53735
3.1765	20.24231
3.177	11.98425
3.1775	15.71045
3.178	17.92603
3.1785	25.27771
3.179	13.29346
3.1795	13.69629
3.18	19.33594
3.1805	7.45239
3.181	10.47363
3.1815	9.86938
3.182	9.46655
3.1825	6.04248
3.183	7.65381
3.1835	6.84814
3.184	7.65381
3.1845	5.63965
3.185	2.92053
3.1855	-1.71204
3.186	-2.01416
3.1865	3.62549
3.187	3.12195
3.1875	-0.90637
3.188	-0.30212
3.1885	-1.40991
3.189	3.62549
3.1895	1.00708
3.19	5.23682
3.1905	2.5177
3.191	2.92053
3.1915	5.53894
3.192	5.74036
3.1925	2.61841
3.193	3.12195
3.1935	5.0354
3.194	2.81982
3.1945	1.71204
3.195	1.81274
3.1955	7.75452
3.196	4.22974
3.1965	7.85522
3.197	0.30212
3.1975	4.43115
3.198	4.22974
3.1985	4.93469
3.199	4.73328
3.1995	2.92053
3.2	3.92761
3.2005	8.7616
3.201	8.8623
3.2015	9.46655
3.202	12.28638
3.2025	8.66089
3.203	14.70337
3.2035	13.19275
3.204	14.70337
3.2045	11.17859
3.205	6.74744
3.2055	5.53894
3.206	13.49487
3.2065	5.94177
3.207	8.45947
3.2075	5.63965
3.208	-2.11487
3.2085	1.81274
3.209	0.10071
3.2095	1.40991
3.21	4.22974
3.2105	5.43823
3.211	-5.13611
3.2115	-4.02832
3.212	-5.23682
3.2125	0.60425
3.213	-5.94177
3.2135	-5.63965
3.214	-7.25098
3.2145	-5.13611
3.215	-4.22974
3.2155	-0.60425
3.216	0.80566
3.2165	-0.10071
3.217	1.61133
3.2175	3.7262
3.218	-0.80566
3.2185	4.63257
3.219	2.61841
3.2195	3.62549
3.22	2.61841
3.2205	3.12195
3.221	3.42407
3.2215	2.21558
3.222	5.0354
3.2225	2.41699
3.223	-0.20142
3.2235	3.92761
3.224	1.40991
3.2245	4.83398
3.225	7.85522
3.2255	11.38
3.226	4.93469
3.2265	3.32336
3.227	10.0708
3.2275	6.94885
3.228	11.07788
3.2285	12.68921
3.229	9.97009
3.2295	9.26514
3.23	7.75452
3.2305	14.50195
3.231	7.65381
3.2315	13.89771
3.232	13.99841
3.2325	12.18567
3.233	11.07788
3.2335	10.47363
3.234	7.45239
3.2345	11.38
3.235	8.7616
3.2355	9.66797
3.236	4.93469
3.2365	5.53894
3.237	6.94885
3.2375	12.08496
3.238	7.45239
3.2385	-2.01416
3.239	7.95593
3.2395	3.7262
3.24	6.44531
3.2405	7.95593
3.241	6.74744
3.2415	2.11487
3.242	1.81274
3.2425	3.8269
3.243	3.12195
3.2435	5.53894
3.244	0.30212
3.2445	3.02124
3.245	3.32336
3.2455	4.02832
3.246	3.62549
3.2465	6.2439
3.247	10.37292
3.2475	7.25098
3.248	7.15027
3.2485	1.3092
3.249	6.74744
3.2495	9.66797
3.25	10.87646
3.2505	11.48071
3.251	8.66089
3.2515	8.96301
3.252	7.15027
3.2525	8.45947
3.253	5.23682
3.2535	9.16443
3.254	6.84814
3.2545	4.43115
3.255	4.43115
3.2555	3.42407
3.256	7.35168
3.2565	6.14319
3.257	5.33752
3.2575	7.65381
3.258	2.61841
3.2585	3.42407
3.259	5.84106
3.2595	6.04248
3.26	10.37292
3.2605	2.61841
3.261	6.64673
3.2615	2.11487
3.262	6.04248
3.2625	8.35876
3.263	11.38
3.2635	1.71204
3.264	-1.61133
3.2645	1.2085
3.265	3.92761
3.2655	2.92053
3.266	3.7262
3.2665	10.87646
3.267	4.02832
3.2675	4.93469
3.268	6.44531
3.2685	6.54602
3.269	4.12903
3.2695	2.81982
3.27	4.22974
3.2705	1.71204
3.271	0.10071
3.2715	10.17151
3.272	4.43115
3.2725	2.01416
3.273	-0.80566
3.2735	1.3092
3.274	2.81982
3.2745	9.56726
3.275	15.91187
3.2755	11.48071
3.276	13.49487
3.2765	12.89062
3.277	13.39417
3.2775	13.99841
3.278	11.17859
3.2785	11.78284
3.279	9.46655
3.2795	5.0354
3.28	3.32336
3.2805	-2.92053
3.281	0.50354
3.2815	-1.61133
3.282	-2.81982
3.2825	-6.54602
3.283	-6.14319
3.2835	-6.14319
3.284	-10.97717
3.2845	-3.12195
3.285	-4.93469
3.2855	-1.91345
3.286	-5.84106
3.2865	-4.93469
3.287	-1.51062
3.2875	2.41699
3.288	-1.2085
3.2885	1.81274
3.289	0.80566
3.2895	4.63257
3.29	5.13611
3.2905	5.43823
3.291	7.75452
3.2915	10.27222
3.292	7.04956
3.2925	11.17859
3.293	5.13611
3.2935	4.63257
3.294	7.5531
3.2945	4.83398
3.295	4.63257
3.2955	4.12903
3.296	2.71912
3.2965	6.64673
3.297	10.87646
3.2975	12.89062
3.298	12.89062
3.2985	9.86938
3.299	6.54602
3.2995	1.81274
3.3	3.92761
3.3005	7.04956
3.301	8.96301
3.3015	15.20691
3.302	16.91895
3.3025	16.51611
3.303	12.48779
3.3035	14.80408
3.304	12.99133
3.3045	16.3147
3.305	9.46655
3.3055	6.84814
3.306	1.2085
3.3065	9.36584
3.307	1.3092
3.3075	2.41699
3.308	-2.5177
3.3085	-3.32336
3.309	-5.43823
3.3095	-7.5531
3.31	-4.22974
3.3105	-5.84106
3.311	-7.95593
3.3115	-7.5531
3.312	-4.93469
3.3125	-4.33044
3.313	-4.83398
3.3135	-1.91345
3.314	-1.71204
3.3145	-3.12195
3.315	3.02124
3.3155	-0.30212
3.316	-3.02124
3.3165	2.5177
3.317	5.43823
3.3175	6.3446
3.318	10.37292
3.3185	11.38
3.319	7.75452
3.3195	4.73328
3.32	5.94177
3.3205	10.77576
3.321	6.64673
3.3215	-0.70496
3.322	6.3446
3.3225	3.32336
3.323	3.7262
3.3235	4.73328
3.324	2.61841
3.3245	6.64673
3.325	8.05664
3.3255	5.0354
3.326	8.45947
3.3265	10.77576
3.327	8.7616
3.3275	7.25098
3.328	9.16443
3.3285	6.64673
3.329	11.78284
3.3295	12.89062
3.33	10.47363
3.3305	6.14319
3.331	6.04248
3.3315	8.05664
3.332	7.45239
3.3325	7.15027
3.333	10.57434
3.3335	4.93469
3.334	7.95593
3.3345	6.54602
3.335	3.32336
3.3355	8.35876
3.336	6.04248
3.3365	6.74744
3.337	4.73328
3.3375	1.00708
3.338	6.94885
3.3385	4.02832
3.339	0.10071
3.3395	4.22974
3.34	10.57434
3.3405	11.88354
3.341	7.95593
3.3415	5.13611
3.342	5.43823
3.3425	9.46655
3.343	6.54602
3.3435	8.8623
3.344	10.0708
3.3445	7.5531
3.345	3.62549
3.3455	3.52478
3.346	4.43115
3.3465	6.04248
3.347	7.35168
3.3475	2.61841
3.348	3.42407
3.3485	-0.50354
3.349	7.25098
3.3495	7.95593
3.35	8.7616
3.3505	11.98425
3.351	5.74036
3.3515	4.02832
3.352	2.11487
3.3525	-1.10779
3.353	3.92761
3.3535	16.61682
3.354	17.82532
3.3545	19.83948
3.355	21.24939
3.3555	22.76001
3.356	19.73877
3.3565	20.34302
3.357	21.75293
3.3575	23.06213
3.358	18.73169
3.3585	10.17151
3.359	10.97717
3.3595	7.35168
3.36	2.81982
3.3605	1.91345
3.361	0.50354
3.3615	-3.52478
3.362	-4.83398
3.3625	-1.10779
3.363	-4.43115
3.3635	-4.22974
3.364	-12.68921
3.3645	-10.97717
3.365	-12.89062
3.3655	-5.74036
3.366	-2.61841
3.3665	1.00708
3.367	-1.40991
3.3675	-0.50354
3.368	-4.93469
3.3685	1.10779
3.369	-0.20142
3.3695	2.5177
3.37	5.13611
3.3705	10.87646
3.371	4.73328
3.3715	3.92761
3.372	3.12195
3.3725	7.65381
3.373	16.11328
3.3735	11.68213
3.374	5.0354
3.3745	2.71912
3.375	3.92761
3.3755	3.42407
3.376	5.13611
3.3765	7.25098
3.377	7.65381
3.3775	3.52478
3.378	-1.00708
3.3785	-1.3092
3.379	6.74744
3.3795	2.92053
3.38	7.5531
3.3805	1.61133
3.381	7.45239
3.3815	4.33044
3.382	9.06372
3.3825	0.90637
3.383	2.21558
3.3835	1.81274
3.384	4.73328
3.3845	5.53894
3.385	8.8623
3.3855	6.94885
3.386	3.02124
3.3865	3.42407
3.387	5.23682
3.3875	5.94177
3.388	8.56018
3.3885	7.75452
3.389	5.23682
3.3895	2.31628
3.39	6.74744
3.3905	7.5531
3.391	8.15735
3.3915	9.66797
3.392	11.98425
3.3925	3.42407
3.393	1.61133
3.3935	9.06372
3.394	11.2793
3.3945	9.66797
3.395	8.35876
3.3955	1.51062
3.396	4.43115
3.3965	4.43115
3.397	2.5177
3.3975	2.71912
3.398	2.01416
3.3985	6.64673
3.399	0.20142
3.3995	5.43823
3.4	3.52478
3.4005	7.04956
3.401	4.22974
3.4015	3.92761
3.402	4.53186
3.4025	6.2439
3.403	12.08496
3.4035	4.93469
3.404	3.52478
3.4045	5.23682
3.405	8.05664
3.4055	6.54602
3.406	3.62549
3.4065	6.74744
3.407	1.51062
3.4075	-0.90637
3.408	3.7262
3.4085	1.51062
3.409	0.20142
3.4095	-0.90637
3.41	1.71204
3.4105	2.5177
3.411	2.41699
3.4115	1.00708
3.412	7.75452
3.4125	4.22974
3.413	7.04956
3.4135	4.63257
3.414	5.74036
3.4145	0.30212
3.415	3.52478
3.4155	3.7262
3.416	3.7262
3.4165	4.53186
3.417	-1.40991
3.4175	4.12903
3.418	0.90637
3.4185	4.63257
3.419	7.85522
3.4195	4.63257
3.42	7.75452
3.4205	6.74744
3.421	10.77576
3.4215	9.56726
3.422	13.09204
3.4225	11.88354
3.423	10.67505
3.4235	11.38
3.424	4.83398
3.4245	7.85522
3.425	8.25806
3.4255	8.56018
3.426	8.56018
3.4265	4.83398
3.427	1.71204
3.4275	2.92053
3.428	-1.91345
3.4285	5.43823
3.429	4.73328
3.4295	5.13611
3.43	2.01416
3.4305	0.70496
3.431	3.22266
3.4315	2.92053
3.432	-1.2085
3.4325	0.80566
3.433	4.43115
3.4335	5.53894
3.434	2.01416
3.4345	-0.10071
3.435	1.71204
3.4355	0.80566
3.436	-3.7262
3.4365	-1.91345
3.437	-1.61133
3.4375	-0.40283
3.438	1.51062
3.4385	4.43115
3.439	8.45947
3.4395	4.12903
3.44	5.84106
3.4405	2.21558
3.441	-6.54602
3.4415	1.40991
3.442	3.92761
3.4425	3.92761
3.443	3.22266
3.4435	6.64673
3.444	2.01416
3.4445	2.11487
3.445	3.12195
3.4455	4.02832
3.446	6.2439
3.4465	-0.20142
3.447	1.71204
3.4475	4.22974
3.448	5.13611
3.4485	2.61841
3.449	8.56018
3.4495	6.04248
3.45	5.23682
3.4505	3.42407
3.451	4.43115
3.4515	7.85522
3.452	5.94177
3.4525	7.15027
3.453	8.96301
3.4535	9.36584
3.454	0.70496
3.4545	6.3446
3.455	9.36584
3.4555	7.15027
3.456	11.38
3.4565	12.38708
3.457	5.94177
3.4575	2.71912
3.458	3.92761
3.4585	8.05664
3.459	8.96301
3.4595	7.65381
3.46	1.71204
3.4605	3.02124
3.461	4.12903
3.4615	6.74744
3.462	10.67505
3.4625	10.67505
3.463	7.45239
3.4635	1.61133
3.464	5.74036
3.4645	6.3446
3.465	6.54602
3.4655	5.63965
3.466	7.45239
3.4665	7.45239
3.467	4.43115
3.4675	11.88354
3.468	12.48779
3.4685	11.2793
3.469	6.64673
3.4695	8.45947
3.47	5.23682
3.4705	7.5531
3.471	8.7616
3.4715	8.45947
3.472	6.94885
3.4725	3.42407
3.473	1.71204
3.4735	4.12903
3.474	4.63257
3.4745	5.53894
3.475	2.61841
3.4755	-2.31628
3.476	-0.80566
3.4765	0.40283
3.477	1.61133
3.4775	-1.81274
3.478	1.81274
3.4785	1.3092
3.479	-1.3092
3.4795	2.61841
3.48	2.31628
3.4805	0.10071
3.481	1.10779
3.4815	2.61841
3.482	3.7262
3.4825	5.53894
3.483	-0.70496
3.4835	-1.51062
3.484	-2.01416
3.4845	-1.40991
3.485	-6.04248
3.4855	-3.22266
3.486	0
3.4865	0
3.487	-5.84106
3.4875	2.5177
3.488	-1.61133
3.4885	-8.25806
3.489	-3.92761
3.4895	-4.83398
3.49	-7.65381
3.4905	-8.15735
3.491	-5.33752
3.4915	-5.84106
3.492	-5.63965
3.4925	-7.35168
3.493	-9.56726
3.4935	-4.43115
3.494	-10.17151
3.4945	-7.85522
3.495	-11.68213
3.4955	-6.3446
3.496	-8.15735
3.4965	-0.90637
3.497	-4.02832
3.4975	-9.06372
3.498	-8.05664
3.4985	-5.53894
3.499	-4.33044
3.4995	-3.22266
3.5	-0.90637
3.5005	-2.92053
3.501	-3.32336
3.5015	-3.8269
3.502	-5.94177
3.5025	0.30212
3.503	3.12195
3.5035	1.81274
3.504	-0.40283
3.5045	0.10071
3.505	-0.10071
3.5055	-2.5177
3.506	-1.2085
3.5065	2.81982
3.507	2.5177
3.5075	5.74036
3.508	2.11487
3.5085	1.2085
3.509	4.93469
3.5095	10.0708
3.51	6.14319
3.5105	9.36584
3.511	5.84106
3.5115	9.66797
3.512	7.45239
3.5125	7.65381
3.513	10.67505
3.5135	14.09912
3.514	9.16443
3.5145	11.07788
3.515	9.16443
3.5155	9.06372
3.516	6.44531
3.5165	9.56726
3.517	6.3446
3.5175	7.45239
3.518	10.67505
3.5185	10.57434
3.519	1.81274
3.5195	4.12903
3.52	4.93469
3.5205	5.23682
3.521	9.16443
3.5215	6.64673
3.522	-0.60425
3.5225	3.92761
3.523	3.8269
3.5235	3.42407
3.524	9.36584
3.5245	11.78284
3.525	6.2439
3.5255	9.76868
3.526	9.97009
3.5265	9.97009
3.527	12.78992
3.5275	4.83398
3.528	6.64673
3.5285	8.8623
3.529	10.47363
3.5295	13.49487
3.53	11.58142
3.5305	14.70337
3.531	7.75452
3.5315	6.84814
3.532	7.75452
3.5325	10.87646
3.533	13.49487
3.5335	8.56018
3.534	4.73328
3.5345	7.85522
3.535	5.33752
3.5355	9.36584
3.536	10.77576
3.5365	14.50195
3.537	8.45947
3.5375	12.99133
3.538	13.29346
3.5385	8.7616
3.539	9.56726
3.5395	5.53894
3.54	2.5177
3.5405	8.05664
3.541	9.26514
3.5415	7.45239
3.542	5.13611
3.5425	3.32336
3.543	11.88354
3.5435	9.56726
3.544	9.26514
3.5445	11.88354
3.545	9.16443
3.5455	7.35168
3.546	10.37292
3.5465	11.68213
3.547	7.35168
3.5475	5.0354
3.548	11.17859
3.5485	4.12903
3.549	5.33752
3.5495	10.37292
3.55	13.49487
3.5505	12.78992
3.551	6.94885
3.5515	10.77576
3.552	10.77576
3.5525	8.05664
3.553	13.19275
3.5535	7.95593
3.554	7.35168
3.5545	5.43823
3.555	5.0354
3.5555	6.74744
3.556	11.17859
3.5565	6.94885
3.557	5.63965
3.5575	9.16443
3.558	11.17859
3.5585	10.97717
3.559	10.0708
3.5595	10.37292
3.56	10.17151
3.5605	9.16443
3.561	6.64673
3.5615	9.76868
3.562	9.86938
3.5625	5.94177
3.563	6.54602
3.5635	9.16443
3.564	11.38
3.5645	12.18567
3.565	7.5531
3.5655	11.17859
3.566	7.5531
3.5665	4.83398
3.567	8.56018
3.5675	6.54602
3.568	4.22974
3.5685	3.32336
3.569	6.74744
3.5695	4.73328
3.57	6.2439
3.5705	5.94177
3.571	7.25098
3.5715	4.22974
3.572	1.61133
3.5725	7.65381
3.573	3.02124
3.5735	2.41699
3.574	1.71204
3.5745	1.00708
3.575	3.8269
3.5755	3.92761
3.576	7.04956
3.5765	6.3446
3.577	10.57434
3.5775	7.65381
3.578	6.14319
3.5785	1.10779
3.579	7.65381
3.5795	9.97009
3.58	13.99841
3.5805	8.05664
3.581	0.80566
3.5815	5.84106
3.582	9.06372
3.5825	8.96301
3.583	8.56018
3.5835	12.78992
3.584	8.05664
3.5845	7.75452
3.585	1.3092
3.5855	9.16443
3.586	6.44531
3.5865	6.94885
3.587	5.53894
3.5875	0.50354
3.588	2.61841
3.5885	1.40991
3.589	3.02124
3.5895	1.71204
3.59	6.3446
3.5905	2.11487
3.591	0.80566
3.5915	5.43823
3.592	-0.90637
3.5925	4.12903
3.593	2.81982
3.5935	6.14319
3.594	2.61841
3.5945	6.64673
3.595	4.63257
3.5955	8.8623
3.596	7.15027
3.5965	6.84814
3.597	6.2439
3.5975	7.15027
3.598	6.74744
3.5985	7.5531
3.599	3.62549
3.5995	3.52478
3.6	3.52478
3.6005	0.80566
3.601	-1.00708
3.6015	8.05664
3.602	9.46655
3.6025	6.94885
3.603	8.45947
3.6035	4.12903
3.604	1.81274
3.6045	2.41699
3.605	2.5177
3.6055	5.63965
3.606	1.91345
3.6065	0.10071
3.607	11.07788
3.6075	11.2793
3.608	9.16443
3.6085	1.3092
3.609	7.5531
3.6095	3.7262
3.61	5.74036
3.6105	5.43823
3.611	4.63257
3.6115	6.04248
3.612	3.92761
3.6125	3.32336
3.613	5.13611
3.6135	5.84106
3.614	6.14319
3.6145	5.94177
3.615	1.81274
3.6155	5.53894
3.616	2.92053
3.6165	5.23682
3.617	6.84814
3.6175	6.44531
3.618	9.46655
3.6185	5.84106
3.619	3.02124
3.6195	6.2439
3.62	2.5177
3.6205	4.83398
3.621	2.61841
3.6215	4.73328
3.622	1.00708
3.6225	4.02832
3.623	6.84814
3.6235	3.92761
3.624	4.73328
3.6245	6.14319
3.625	7.35168
3.6255	9.26514
3.626	14.80408
3.6265	1.81274
3.627	6.44531
3.6275	8.35876
3.628	1.91345
3.6285	3.62549
3.629	8.7616
3.6295	10.67505
3.63	5.74036
3.6305	6.94885
3.631	4.22974
3.6315	0.30212
3.632	6.64673
3.6325	1.81274
3.633	3.8269
3.6335	9.56726
3.634	5.33752
3.6345	1.71204
3.635	5.84106
3.6355	3.62549
3.636	6.14319
3.6365	3.22266
3.637	0.90637
3.6375	7.04956
3.638	6.14319
3.6385	3.62549
3.639	8.05664
3.6395	9.56726
3.64	8.15735
3.6405	7.04956
3.641	8.25806
3.6415	10.97717
3.642	0.40283
3.6425	5.43823
3.643	7.25098
3.6435	6.04248
3.644	7.25098
3.6445	2.71912
3.645	1.3092
3.6455	8.25806
3.646	6.2439
3.6465	5.13611
3.647	6.84814
3.6475	7.85522
3.648	5.33752
3.6485	3.8269
3.649	-0.40283
3.6495	3.32336
3.65	4.83398
3.6505	5.84106
3.651	2.41699
3.6515	-3.7262
3.652	6.44531
3.6525	0.50354
3.653	10.77576
3.6535	6.94885
3.654	4.02832
3.6545	7.85522
3.655	-2.21558
3.6555	9.06372
3.656	5.63965
3.6565	3.7262
3.657	5.74036
3.6575	4.12903
3.658	1.2085
3.6585	1.10779
3.659	7.65381
3.6595	6.84814
3.66	4.22974
3.6605	8.96301
3.661	4.73328
3.6615	8.05664
3.662	4.12903
3.6625	5.63965
3.663	7.75452
3.6635	7.75452
3.664	4.83398
3.6645	8.56018
3.665	4.33044
3.6655	1.61133
3.666	5.23682
3.6665	5.94177
3.667	8.66089
3.6675	8.7616
3.668	8.05664
3.6685	8.45947
3.669	8.56018
3.6695	11.98425
3.67	8.56018
3.6705	10.17151
3.671	7.25098
3.6715	7.04956
3.672	3.32336
3.6725	11.88354
3.673	9.97009
3.6735	10.0708
3.674	10.97717
3.6745	15.91187
3.675	10.47363
3.6755	7.45239
3.676	11.68213
3.6765	12.18567
3.677	5.33752
3.6775	4.83398
3.678	4.73328
3.6785	2.11487
3.679	0.70496
3.6795	5.53894
3.68	8.96301
3.6805	4.63257
3.681	5.53894
3.6815	5.23682
3.682	5.13611
3.6825	6.2439
3.683	5.63965
3.6835	2.61841
3.684	0.90637
3.6845	1.2085
3.685	0.80566
3.6855	-4.73328
3.686	-5.13611
3.6865	-6.54602
3.687	-3.62549
3.6875	-3.12195
3.688	-3.62549
3.6885	-2.81982
3.689	-0.20142
3.6895	3.22266
3.69	3.8269
3.6905	-2.71912
3.691	-3.62549
3.6915	-1.40991
3.692	-5.33752
3.6925	-0.70496
3.693	-0.30212
3.6935	1.00708
3.694	4.63257
3.6945	0.20142
3.695	6.74744
3.6955	-2.61841
3.696	1.40991
3.6965	-1.40991
3.697	-3.22266
3.6975	0.50354
3.698	0.40283
3.6985	-2.81982
3.699	1.40991
3.6995	-0.80566
3.7	2.71912
3.7005	0.80566
3.701	0
3.7015	3.02124
3.702	6.44531
3.7025	4.12903
3.703	5.53894
3.7035	3.22266
3.704	-2.11487
3.7045	7.35168
3.705	6.54602
3.7055	5.84106
3.706	11.07788
3.7065	9.16443
3.707	6.54602
3.7075	8.25806
3.708	4.83398
3.7085	6.14319
3.709	5.33752
3.7095	0.70496
3.71	4.63257
3.7105	5.74036
3.711	7.35168
3.7115	-2.21558
3.712	3.92761
3.7125	7.35168
3.713	6.54602
3.7135	6.74744
3.714	8.15735
3.7145	4.73328
3.715	1.61133
3.7155	7.35168
3.716	5.63965
3.7165	10.57434
3.717	9.26514
3.7175	4.83398
3.718	12.28638
3.7185	13.49487
3.719	10.77576
3.7195	3.8269
3.72	8.7616
3.7205	7.75452
3.721	7.5531
3.7215	6.64673
3.722	6.64673
3.7225	7.5531
3.723	10.27222
3.7235	3.8269
3.724	2.92053
3.7245	6.54602
3.725	11.07788
3.7255	7.35168
3.726	9.06372
3.7265	5.43823
3.727	10.17151
3.7275	7.85522
3.728	6.64673
3.7285	12.38708
3.729	15.20691
3.7295	10.67505
3.73	10.87646
3.7305	3.7262
3.731	3.8269
3.7315	7.35168
3.732	9.46655
3.7325	9.66797
3.733	7.04956
3.7335	4.22974
3.734	9.86938
3.7345	6.3446
3.735	15.1062
3.7355	6.04248
3.736	3.22266
3.7365	1.91345
3.737	1.3092
3.7375	1.71204
3.738	2.5177
3.7385	3.62549
3.739	0.20142
3.7395	-3.42407
3.74	-8.96301
3.7405	-0.60425
3.741	-0.80566
3.7415	3.32336
3.742	5.23682
3.7425	4.53186
3.743	5.74036
3.7435	-2.11487
3.744	-1.91345
3.7445	-0.70496
3.745	3.62549
3.7455	-0.60425
3.746	3.62549
3.7465	7.95593
3.747	-1.81274
3.7475	1.3092
3.748	1.51062
3.7485	4.73328
3.749	2.11487
3.7495	0.60425
3.75	0.60425
3.7505	0.70496
3.751	3.8269
3.7515	4.63257
3.752	2.5177
3.7525	2.41699
3.753	5.63965
3.7535	4.43115
3.754	-0.10071
3.7545	5.53894
3.755	6.04248
3.7555	9.36584
3.756	5.63965
3.7565	8.56018
3.757	2.21558
3.7575	3.92761
3.758	9.36584
3.7585	10.57434
3.759	7.65381
3.7595	9.16443
3.76	8.15735
3.7605	11.38
3.761	18.32886
3.7615	20.04089
3.762	24.06921
3.7625	18.73169
3.763	19.83948
3.7635	22.25647
3.764	16.41541
3.7645	14.50195
3.765	15.91187
3.7655	11.48071
3.766	14.30054
3.7665	7.15027
3.767	9.26514
3.7675	2.01416
3.768	3.7262
3.7685	4.73328
3.769	4.83398
3.7695	-4.12903
3.77	-5.23682
3.7705	-11.38
3.771	-12.5885
3.7715	-9.46655
3.772	-5.33752
3.7725	-6.54602
3.773	-6.54602
3.7735	-8.7616
3.774	-3.62549
3.7745	-1.2085
3.775	2.81982
3.7755	2.01416
3.776	4.02832
3.7765	5.43823
3.777	8.8623
3.7775	12.18567
3.778	11.48071
3.7785	9.97009
3.779	16.41541
3.7795	6.3446
3.78	5.13611
3.7805	1.91345
3.781	3.8269
3.7815	0.30212
3.782	5.13611
3.7825	6.54602
3.783	2.61841
3.7835	1.2085
3.784	-3.32336
3.7845	2.41699
3.785	-5.13611
3.7855	3.32336
3.786	3.32336
3.7865	5.94177
3.787	10.97717
3.7875	0.90637
3.788	1.71204
3.7885	3.8269
3.789	1.91345
3.7895	6.74744
3.79	2.81982
3.7905	3.02124
3.791	4.12903
3.7915	4.93469
3.792	7.15027
3.7925	11.38
3.793	14.60266
3.7935	6.14319
3.794	11.2793
3.7945	6.54602
3.795	7.35168
3.7955	10.47363
3.796	16.3147
3.7965	14.60266
3.797	9.46655
3.7975	8.66089
3.798	8.15735
3.7985	4.53186
3.799	8.56018
3.7995	14.40125
3.8	11.38
3.8005	3.62549
3.801	13.49487
3.8015	8.45947
3.802	9.86938
3.8025	5.84106
3.803	12.18567
3.8035	7.04956
3.804	7.65381
3.8045	5.94177
3.805	5.84106
3.8055	6.84814
3.806	7.75452
3.8065	4.12903
3.807	3.8269
3.8075	4.93469
3.808	7.35168
3.8085	6.14319
3.809	4.83398
3.8095	1.51062
3.81	4.73328
3.8105	5.84106
3.811	8.15735
3.8115	-1.61133
3.812	3.7262
3.8125	3.22266
3.813	8.25806
3.8135	3.62549
3.814	12.38708
3.8145	18.02673
3.815	17.6239
3.8155	19.33594
3.816	12.68921
3.8165	14.80408
3.817	15.50903
3.8175	18.22815
3.818	9.56726
3.8185	13.59558
3.819	11.38
3.8195	10.37292
3.82	7.95593
3.8205	9.06372
3.821	0
3.8215	-2.71912
3.822	-3.8269
3.8225	-2.21558
3.823	-4.53186
3.8235	-4.83398
3.824	-7.25098
3.8245	-9.76868
3.825	-8.56018
3.8255	-10.77576
3.826	-9.46655
3.8265	-5.74036
3.827	0
3.8275	0.10071
3.828	1.3092
3.8285	4.43115
3.829	4.33044
3.8295	1.3092
3.83	7.45239
3.8305	5.74036
3.831	13.59558
3.8315	14.90479
3.832	21.3501
3.8325	13.59558
3.833	12.28638
3.8335	9.26514
3.834	7.95593
3.8345	8.35876
3.835	9.46655
3.8355	7.15027
3.836	8.15735
3.8365	7.04956
3.837	7.04956
3.8375	7.95593
3.838	13.19275
3.8385	12.5885
3.839	9.66797
3.8395	11.07788
3.84	11.88354
3.8405	9.06372
3.841	8.15735
3.8415	-0.50354
3.842	4.22974
3.8425	5.53894
3.843	3.32336
3.8435	3.7262
3.844	3.62549
3.8445	0.60425
3.845	3.32336
3.8455	8.25806
3.846	2.71912
3.8465	4.22974
3.847	2.92053
3.8475	3.42407
3.848	4.73328
3.8485	-5.23682
3.849	-3.52478
3.8495	-8.56018
3.85	2.5177
3.8505	0.40283
3.851	2.11487
3.8515	-1.51062
3.852	0.40283
3.8525	1.81274
3.853	4.33044
3.8535	3.62549
3.854	5.63965
3.8545	0.40283
3.855	5.13611
3.8555	10.87646
3.856	5.74036
3.8565	4.12903
3.857	1.71204
3.8575	6.74744
3.858	7.95593
3.8585	10.77576
3.859	13.797
3.8595	8.96301
3.86	2.5177
3.8605	4.63257
3.861	5.53894
3.8615	0.40283
3.862	3.42407
3.8625	-0.30212
3.863	0.30212
3.8635	-0.80566
3.864	-3.92761
3.8645	-3.32336
3.865	-4.73328
3.8655	0.60425
3.866	0.50354
3.8665	-0.60425
3.867	-3.42407
3.8675	2.31628
3.868	3.22266
3.8685	1.71204
3.869	2.01416
3.8695	4.83398
3.87	3.32336
3.8705	-2.21558
3.871	-0.10071
3.8715	3.7262
3.872	6.74744
3.8725	8.7616
3.873	2.01416
3.8735	8.15735
3.874	4.02832
3.8745	8.05664
3.875	8.56018
3.8755	0.50354
3.876	1.61133
3.8765	-0.90637
3.877	0.60425
3.8775	2.92053
3.878	6.74744
3.8785	7.5531
3.879	8.66089
3.8795	7.35168
3.88	8.05664
3.8805	10.37292
3.881	8.15735
3.8815	13.59558
3.882	11.07788
3.8825	4.02832
3.883	16.71753
3.8835	8.7616
3.884	13.49487
3.8845	10.17151
3.885	11.07788
3.8855	16.11328
3.886	10.97717
3.8865	7.35168
3.887	7.45239
3.8875	9.66797
3.888	10.0708
3.8885	4.43115
3.889	5.23682
3.8895	8.56018
3.89	9.76868
3.8905	7.35168
3.891	12.18567
3.8915	4.53186
3.892	1.51062
3.8925	-1.00708
3.893	3.52478
3.8935	-0.10071
3.894	2.31628
3.8945	-0.50354
3.895	-2.21558
3.8955	-6.04248
3.896	0.20142
3.8965	0.30212
3.897	2.5177
3.8975	1.3092
3.898	2.21558
3.8985	-0.20142
3.899	3.12195
3.8995	4.12903
3.9	8.05664
3.9005	12.18567
3.901	16.51611
3.9015	27.79541
3.902	27.89612
3.9025	27.6947
3.903	26.68762
3.9035	36.05347
3.904	34.03931
3.9045	30.2124
3.905	27.79541
3.9055	23.66638
3.906	16.81824
3.9065	18.22815
3.907	5.63965
3.9075	-2.21558
3.908	-4.83398
3.9085	-10.0708
3.909	-15.1062
3.9095	-18.42957
3.91	-19.63806
3.9105	-22.55859
3.911	-29.20532
3.9115	-28.09753
3.912	-30.91736
3.9125	-28.80249
3.913	-20.24231
3.9135	-14.09912
3.914	-6.94885
3.9145	1.81274
3.915	-1.91345
3.9155	0.10071
3.916	2.81982
3.9165	4.22974
3.917	9.66797
3.9175	5.84106
3.918	12.78992
3.9185	11.98425
3.919	6.64673
3.9195	11.17859
3.92	7.5531
3.9205	9.56726
3.921	6.2439
3.9215	1.10779
3.922	-1.00708
3.9225	1.71204
3.923	0
3.9235	3.8269
3.924	-1.71204
3.9245	6.2439
3.925	7.04956
3.9255	13.59558
3.926	9.36584
3.9265	9.16443
3.927	11.78284
3.9275	8.96301
3.928	15.91187
3.9285	18.73169
3.929	19.83948
3.9295	22.76001
3.93	18.32886
3.9305	25.68054
3.931	19.73877
3.9315	16.3147
3.932	16.51611
3.9325	22.76001
3.933	18.63098
3.9335	13.49487
3.934	10.47363
3.9345	13.69629
3.935	15.71045
3.9355	14.50195
3.936	8.25806
3.9365	9.46655
3.937	7.5531
3.9375	9.26514
3.938	0
3.9385	-0.10071
3.939	1.61133
3.9395	-0.30212
3.94	-6.94885
3.9405	-2.21558
3.941	-1.40991
3.9415	-4.02832
3.942	-0.60425
3.9425	0.30212
3.943	3.32336
3.9435	3.92761
3.944	1.81274
3.9445	6.14319
3.945	8.35876
3.9455	6.84814
3.946	4.83398
3.9465	7.65381
3.947	17.82532
3.9475	18.12744
3.948	15.81116
3.9485	18.32886
3.949	21.45081
3.9495	17.42249
3.95	11.07788
3.9505	16.81824
3.951	15.00549
3.9515	13.09204
3.952	14.60266
3.9525	10.67505
3.953	3.12195
3.9535	2.61841
3.954	3.42407
3.9545	-5.33752
3.955	-0.70496
3.9555	2.5177
3.956	5.13611
3.9565	10.67505
3.957	5.23682
3.9575	6.2439
3.958	3.8269
3.9585	8.66089
3.959	14.09912
3.9595	11.88354
3.96	5.63965
3.9605	4.93469
3.961	1.81274
3.9615	-0.10071
3.962	-10.0708
3.9625	-9.86938
3.963	-2.81982
3.9635	-5.74036
3.964	-7.75452
3.9645	-1.00708
3.965	-3.02124
3.9655	-0.20142
3.966	4.02832
3.9665	-3.62549
3.967	-8.35876
3.9675	1.71204
3.968	7.15027
3.9685	8.15735
3.969	10.87646
3.9695	7.04956
3.97	8.05664
3.9705	0.70496
3.971	0.90637
3.9715	2.01416
3.972	0.70496
3.9725	5.84106
3.973	-1.61133
3.9735	-5.74036
3.974	-9.66797
3.9745	1.51062
3.975	-11.78284
3.9755	-13.69629
3.976	-10.17151
3.9765	-7.35168
3.977	-2.41699
3.9775	-1.40991
3.978	3.22266
3.9785	6.44531
3.979	20.24231
3.9795	27.99683
3.98	42.39807
3.9805	42.29736
3.981	40.78674
3.9815	35.65063
3.982	24.57275
3.9825	33.63647
3.983	26.68762
3.9835	22.05505
3.984	23.56567
3.9845	22.35718
3.985	20.44373
3.9855	15.20691
3.986	7.35168
3.9865	3.7262
3.987	-2.31628
3.9875	-7.95593
3.988	-17.22107
3.9885	-25.98267
3.989	-31.82373
3.9895	-32.32727
3.99	-32.62939
3.9905	-29.91028
3.991	-33.73718
3.9915	-29.70886
3.992	-24.06921
3.9925	-19.63806
3.993	-24.97559
3.9935	-26.88904
3.994	-24.47205
3.9945	-16.21399
3.995	-11.88354
3.9955	-7.85522
3.996	4.73328
3.9965	5.94177
3.997	14.60266
3.9975	19.33594
3.998	16.51611
3.9985	20.04089
3.999	23.56567
3.9995	21.85364
4	25.57983
4.0005	25.68054
4.001	19.63806
4.0015	21.14868
4.002	25.27771
4.0025	32.12585
4.003	35.34851
4.0035	28.19824
4.004	35.04639
4.0045	33.23364
4.005	39.47754
4.0055	35.14709
4.006	31.82373
4.0065	30.81665
4.007	32.22656
4.0075	29.70886
4.008	30.2124
4.0085	31.01807
4.009	33.63647
4.0095	37.46338
4.01	35.04639
4.0105	31.92444
4.011	33.83789
4.0115	46.92993
4.012	57.10144
4.0125	58.30994
4.013	57.9071
4.0135	51.15967
4.014	43.50586
4.0145	40.48462
4.015	28.70178
4.0155	13.49487
4.016	9.16443
4.0165	7.15027
4.017	7.15027
4.0175	3.92761
4.018	-3.8269
4.0185	-12.28638
4.019	-19.94019
4.0195	-32.83081
4.02	-40.68604
4.0205	-33.83789
4.021	-28.50037
4.0215	-22.76001
4.022	-19.73877
4.0225	-11.68213
4.023	-5.53894
4.0235	0.50354
4.024	5.63965
4.0245	10.47363
4.025	7.04956
4.0255	10.17151
4.026	3.62549
4.0265	-5.33752
4.027	-7.04956
4.0275	-9.26514
4.028	-15.71045
4.0285	-12.08496
4.029	-22.45789
4.0295	-35.2478
4.03	-35.65063
4.0305	-34.74426
4.031	-40.38391
4.0315	-25.47913
4.032	-4.22974
4.0325	15.20691
4.033	30.51453
4.0335	37.26196
4.034	42.39807
4.0345	38.974
4.035	36.05347
4.0355	30.71594
4.036	20.64514
4.0365	14.50195
4.037	2.31628
4.0375	-6.64673
4.038	-13.797
4.0385	-18.53027
4.039	-20.54443
4.0395	-22.86072
4.04	-24.97559
4.0405	-23.16284
4.041	-31.21948
4.0415	-30.01099
4.042	-13.59558
4.0425	3.42407
4.043	5.43823
4.0435	7.85522
4.044	13.69629
4.0445	10.87646
4.045	6.04248
4.0455	7.75452
4.046	1.61133
4.0465	-5.23682
4.047	-9.46655
4.0475	-14.40125
4.048	-9.36584
4.0485	-16.11328
4.049	-23.36426
4.0495	-23.76709
4.05	-24.97559
4.0505	-26.08337
4.051	-28.80249
4.0515	-33.53577
4.052	-30.91736
4.0525	-38.26904
4.053	-40.38391
4.0535	-38.06763
4.054	-30.81665
4.0545	-26.58691
4.055	-21.85364
4.0555	-23.76709
4.056	-18.32886
4.0565	-22.35718
4.057	-11.48071
4.0575	-3.7262
4.058	9.26514
4.0585	8.15735
4.059	16.21399
4.0595	24.27063
4.06	23.96851
4.0605	22.86072
4.061	25.07629
4.0615	26.28479
4.062	18.42957
4.0625	19.94019
4.063	19.73877
4.0635	23.46497
4.064	24.27063
4.0645	17.92603
4.065	19.23523
4.0655	22.6593
4.066	27.49329
4.0665	32.12585
4.067	34.03931
4.0675	26.68762
4.068	34.54285
4.0685	38.77258
4.069	35.65063
4.0695	32.32727
4.07	25.07629
4.0705	20.54443
4.071	20.1416
4.0715	23.06213
4.072	13.49487
4.0725	11.68213
4.073	12.28638
4.0735	9.97009
4.074	7.95593
4.0745	6.64673
4.075	12.99133
4.0755	18.73169
4.076	19.94019
4.0765	16.01257
4.077	15.40833
4.0775	8.35876
4.078	7.85522
4.0785	7.85522
4.079	11.07788
4.0795	10.17151
4.08	8.56018
4.0805	8.35876
4.081	4.83398
4.0815	6.44531
4.082	3.32336
4.0825	7.65381
4.083	10.17151
4.0835	9.66797
4.084	18.02673
4.0845	27.09045
4.085	44.31152
4.0855	48.44055
4.086	59.61914
4.0865	72.00623
4.087	81.17065
4.0875	81.7749
4.088	71.50269
4.0885	46.5271
4.089	38.974
4.0895	17.52319
4.09	0.30212
4.0905	-7.25098
4.091	-23.76709
4.0915	-26.98975
4.092	-32.93152
4.0925	-35.65063
4.093	-34.03931
4.0935	-30.71594
4.094	-32.22656
