Franco_Uliana_Left_2.c3d  



Time(s):	A_L_bicipite(μV):
0	11.17859
0.0005	8.35876
0.001	9.16443
0.0015	9.97009
0.002	7.25098
0.0025	8.15735
0.003	4.53186
0.0035	10.47363
0.004	6.14319
0.0045	0.60425
0.005	5.33752
0.0055	6.14319
0.006	11.88354
0.0065	7.65381
0.007	6.74744
0.0075	0.10071
0.008	4.93469
0.0085	0.70496
0.009	2.92053
0.0095	2.81982
0.01	4.53186
0.0105	0.30212
0.011	-0.70496
0.0115	3.42407
0.012	3.02124
0.0125	6.94885
0.013	2.01416
0.0135	3.22266
0.014	-0.20142
0.0145	4.53186
0.015	1.40991
0.0155	4.83398
0.016	1.61133
0.0165	13.19275
0.017	13.69629
0.0175	10.47363
0.018	7.25098
0.0185	7.95593
0.019	8.25806
0.0195	10.17151
0.02	3.62549
0.0205	5.13611
0.021	6.14319
0.0215	7.45239
0.022	5.84106
0.0225	3.42407
0.023	3.42407
0.0235	5.74036
0.024	6.2439
0.0245	1.91345
0.025	2.92053
0.0255	7.5531
0.026	7.5531
0.0265	2.5177
0.027	2.61841
0.0275	-2.01416
0.028	0.20142
0.0285	5.13611
0.029	9.76868
0.0295	-0.10071
0.03	3.92761
0.0305	1.00708
0.031	8.56018
0.0315	1.91345
0.032	-3.02124
0.0325	-0.20142
0.033	5.94177
0.0335	2.21558
0.034	3.52478
0.0345	6.3446
0.035	4.02832
0.0355	3.52478
0.036	4.43115
0.0365	-1.71204
0.037	-3.12195
0.0375	5.84106
0.038	5.23682
0.0385	2.92053
0.039	2.11487
0.0395	-0.10071
0.04	1.61133
0.0405	1.51062
0.041	1.3092
0.0415	5.94177
0.042	4.83398
0.0425	2.71912
0.043	2.81982
0.0435	4.12903
0.044	7.25098
0.0445	-0.30212
0.045	4.02832
0.0455	5.23682
0.046	3.52478
0.0465	3.42407
0.047	5.0354
0.0475	-0.30212
0.048	-0.70496
0.0485	3.12195
0.049	4.43115
0.0495	6.04248
0.05	-0.20142
0.0505	3.7262
0.051	1.91345
0.0515	-0.10071
0.052	5.53894
0.0525	6.44531
0.053	3.32336
0.0535	7.65381
0.054	9.56726
0.0545	3.8269
0.055	2.61841
0.0555	2.81982
0.056	-0.30212
0.0565	6.2439
0.057	9.36584
0.0575	8.45947
0.058	5.23682
0.0585	11.48071
0.059	8.8623
0.0595	7.25098
0.06	2.71912
0.0605	5.63965
0.061	5.53894
0.0615	-0.70496
0.062	5.63965
0.0625	6.2439
0.063	11.38
0.0635	11.98425
0.064	6.84814
0.0645	9.56726
0.065	9.16443
0.0655	7.45239
0.066	7.5531
0.0665	2.5177
0.067	11.58142
0.0675	6.74744
0.068	7.35168
0.0685	5.84106
0.069	3.52478
0.0695	0
0.07	-0.40283
0.0705	-2.21558
0.071	1.61133
0.0715	4.73328
0.072	1.3092
0.0725	3.02124
0.073	6.04248
0.0735	6.94885
0.074	6.84814
0.0745	3.12195
0.075	4.02832
0.0755	4.93469
0.076	9.26514
0.0765	6.3446
0.077	4.83398
0.0775	4.12903
0.078	7.75452
0.0785	6.2439
0.079	12.89062
0.0795	10.97717
0.08	7.45239
0.0805	11.78284
0.081	8.45947
0.0815	6.44531
0.082	11.2793
0.0825	10.57434
0.083	5.63965
0.0835	8.8623
0.084	7.35168
0.0845	6.44531
0.085	5.33752
0.0855	9.06372
0.086	7.75452
0.0865	12.5885
0.087	17.01965
0.0875	12.5885
0.088	14.09912
0.0885	16.11328
0.089	13.797
0.0895	10.67505
0.09	12.78992
0.0905	14.19983
0.091	20.34302
0.0915	15.40833
0.092	17.01965
0.0925	11.48071
0.093	12.28638
0.0935	14.09912
0.094	13.29346
0.0945	9.66797
0.095	10.37292
0.0955	8.7616
0.096	8.7616
0.0965	4.22974
0.097	3.12195
0.0975	2.81982
0.098	5.13611
0.0985	4.33044
0.099	6.3446
0.0995	8.7616
0.1	7.45239
0.1005	4.53186
0.101	-0.90637
0.1015	10.37292
0.102	9.56726
0.1025	5.94177
0.103	7.04956
0.1035	4.22974
0.104	9.66797
0.1045	4.22974
0.105	2.71912
0.1055	3.12195
0.106	3.42407
0.1065	10.77576
0.107	6.44531
0.1075	3.32336
0.108	6.74744
0.1085	2.41699
0.109	0.20142
0.1095	7.15027
0.11	5.84106
0.1105	1.51062
0.111	2.01416
0.1115	0.20142
0.112	2.21558
0.1125	7.65381
0.113	2.21558
0.1135	4.53186
0.114	3.92761
0.1145	5.33752
0.115	3.92761
0.1155	0.10071
0.116	0.70496
0.1165	-4.83398
0.117	-0.60425
0.1175	7.5531
0.118	6.54602
0.1185	0.60425
0.119	3.22266
0.1195	1.61133
0.12	1.71204
0.1205	1.2085
0.121	2.71912
0.1215	9.26514
0.122	8.35876
0.1225	8.05664
0.123	5.63965
0.1235	9.26514
0.124	8.7616
0.1245	11.17859
0.125	8.96301
0.1255	6.44531
0.126	5.0354
0.1265	2.81982
0.127	3.52478
0.1275	6.04248
0.128	4.53186
0.1285	4.63257
0.129	7.35168
0.1295	7.15027
0.13	8.96301
0.1305	8.96301
0.131	1.10779
0.1315	0.80566
0.132	5.84106
0.1325	1.71204
0.133	4.43115
0.1335	0.50354
0.134	3.92761
0.1345	1.2085
0.135	3.7262
0.1355	4.93469
0.136	2.01416
0.1365	0.90637
0.137	3.32336
0.1375	-1.3092
0.138	1.81274
0.1385	-3.52478
0.139	2.21558
0.1395	2.81982
0.14	3.32336
0.1405	-1.71204
0.141	0.30212
0.1415	2.11487
0.142	3.32336
0.1425	3.02124
0.143	1.10779
0.1435	5.94177
0.144	2.31628
0.1445	4.33044
0.145	1.81274
0.1455	3.42407
0.146	3.8269
0.1465	3.62549
0.147	1.51062
0.1475	5.23682
0.148	0.50354
0.1485	0.50354
0.149	1.2085
0.1495	0.10071
0.15	-3.52478
0.1505	0.70496
0.151	1.81274
0.1515	1.51062
0.152	-1.71204
0.1525	4.63257
0.153	1.71204
0.1535	3.62549
0.154	4.22974
0.1545	0.30212
0.155	0.10071
0.1555	8.35876
0.156	3.62549
0.1565	0.70496
0.157	8.66089
0.1575	3.7262
0.158	8.96301
0.1585	7.45239
0.159	6.2439
0.1595	4.53186
0.16	8.56018
0.1605	5.0354
0.161	5.23682
0.1615	-2.01416
0.162	3.7262
0.1625	3.62549
0.163	-0.30212
0.1635	6.2439
0.164	7.04956
0.1645	4.43115
0.165	4.63257
0.1655	11.17859
0.166	6.74744
0.1665	1.71204
0.167	1.3092
0.1675	-2.5177
0.168	-0.30212
0.1685	1.91345
0.169	2.71912
0.1695	3.42407
0.17	5.0354
0.1705	0.90637
0.171	-3.32336
0.1715	1.2085
0.172	3.7262
0.1725	4.83398
0.173	6.04248
0.1735	2.01416
0.174	-1.61133
0.1745	5.13611
0.175	9.97009
0.1755	10.0708
0.176	5.23682
0.1765	7.04956
0.177	13.69629
0.1775	8.96301
0.178	14.30054
0.1785	7.75452
0.179	3.92761
0.1795	5.84106
0.18	9.66797
0.1805	9.16443
0.181	7.04956
0.1815	10.67505
0.182	16.01257
0.1825	8.8623
0.183	7.95593
0.1835	8.35876
0.184	6.64673
0.1845	10.57434
0.185	5.84106
0.1855	3.42407
0.186	2.11487
0.1865	6.3446
0.187	4.22974
0.1875	3.32336
0.188	4.83398
0.1885	1.51062
0.189	0.50354
0.1895	2.61841
0.19	1.51062
0.1905	4.33044
0.191	3.12195
0.1915	3.62549
0.192	5.23682
0.1925	2.41699
0.193	1.81274
0.1935	11.07788
0.194	3.42407
0.1945	-3.02124
0.195	-1.00708
0.1955	-6.54602
0.196	1.71204
0.1965	1.81274
0.197	7.35168
0.1975	4.53186
0.198	2.41699
0.1985	8.25806
0.199	7.04956
0.1995	4.53186
0.2	-4.22974
0.2005	5.23682
0.201	5.33752
0.2015	3.22266
0.202	4.12903
0.2025	5.63965
0.203	8.15735
0.2035	9.86938
0.204	3.62549
0.2045	7.35168
0.205	1.61133
0.2055	1.91345
0.206	6.3446
0.2065	2.41699
0.207	3.32336
0.2075	5.94177
0.208	10.87646
0.2085	4.53186
0.209	4.63257
0.2095	6.94885
0.21	7.45239
0.2105	1.91345
0.211	3.62549
0.2115	4.33044
0.212	5.33752
0.2125	4.33044
0.213	4.93469
0.2135	1.91345
0.214	0.80566
0.2145	-4.53186
0.215	1.10779
0.2155	-0.90637
0.216	-0.70496
0.2165	1.61133
0.217	1.71204
0.2175	-0.70496
0.218	3.12195
0.2185	0.50354
0.219	-1.10779
0.2195	-1.2085
0.22	-1.3092
0.2205	-2.01416
0.221	3.02124
0.2215	-2.01416
0.222	6.04248
0.2225	1.00708
0.223	2.5177
0.2235	8.25806
0.224	5.94177
0.2245	3.62549
0.225	11.2793
0.2255	8.25806
0.226	2.71912
0.2265	4.63257
0.227	4.43115
0.2275	14.09912
0.228	15.81116
0.2285	10.47363
0.229	11.78284
0.2295	13.19275
0.23	10.27222
0.2305	7.35168
0.231	13.19275
0.2315	11.48071
0.232	11.48071
0.2325	13.49487
0.233	8.96301
0.2335	11.58142
0.234	8.25806
0.2345	12.68921
0.235	15.60974
0.2355	13.29346
0.236	16.71753
0.2365	18.53027
0.237	9.97009
0.2375	16.91895
0.238	9.56726
0.2385	8.45947
0.239	10.17151
0.2395	6.74744
0.24	5.53894
0.2405	1.3092
0.241	2.5177
0.2415	2.21558
0.242	5.0354
0.2425	-1.3092
0.243	1.40991
0.2435	-0.70496
0.244	0.60425
0.2445	0
0.245	-1.81274
0.2455	0.50354
0.246	4.22974
0.2465	12.08496
0.247	-0.30212
0.2475	2.31628
0.248	3.92761
0.2485	6.84814
0.249	3.12195
0.2495	4.12903
0.25	4.63257
0.2505	3.8269
0.251	8.45947
0.2515	8.25806
0.252	-0.50354
0.2525	4.02832
0.253	4.83398
0.2535	6.84814
0.254	-1.10779
0.2545	3.12195
0.255	1.40991
0.2555	-4.73328
0.256	-0.50354
0.2565	-3.42407
0.257	-4.12903
0.2575	-4.43115
0.258	-0.50354
0.2585	0.90637
0.259	0
0.2595	-1.61133
0.26	-0.50354
0.2605	-1.3092
0.261	0.30212
0.2615	-1.10779
0.262	-0.40283
0.2625	-4.93469
0.263	-3.22266
0.2635	-2.31628
0.264	0.90637
0.2645	-2.61841
0.265	-6.3446
0.2655	-11.58142
0.266	-7.5531
0.2665	-11.58142
0.267	-12.08496
0.2675	-14.19983
0.268	-10.37292
0.2685	-11.78284
0.269	-4.73328
0.2695	-6.14319
0.27	1.2085
0.2705	-6.3446
0.271	0.10071
0.2715	-3.92761
0.272	-3.8269
0.2725	-0.20142
0.273	0.20142
0.2735	4.22974
0.274	-0.20142
0.2745	2.5177
0.275	7.25098
0.2755	2.5177
0.276	4.22974
0.2765	8.05664
0.277	0.50354
0.2775	2.01416
0.278	5.94177
0.2785	-1.00708
0.279	2.21558
0.2795	-2.92053
0.28	7.5531
0.2805	6.44531
0.281	11.78284
0.2815	8.25806
0.282	2.41699
0.2825	1.91345
0.283	3.22266
0.2835	2.11487
0.284	3.02124
0.2845	3.92761
0.285	-0.10071
0.2855	6.74744
0.286	10.27222
0.2865	9.46655
0.287	10.97717
0.2875	12.08496
0.288	6.2439
0.2885	10.47363
0.289	8.25806
0.2895	8.66089
0.29	8.66089
0.2905	11.78284
0.291	12.5885
0.2915	13.09204
0.292	7.65381
0.2925	10.0708
0.293	9.36584
0.2935	12.99133
0.294	12.18567
0.2945	13.29346
0.295	13.69629
0.2955	8.56018
0.296	11.07788
0.2965	4.53186
0.297	6.04248
0.2975	12.5885
0.298	8.96301
0.2985	15.00549
0.299	10.0708
0.2995	8.05664
0.3	11.68213
0.3005	12.5885
0.301	11.78284
0.3015	17.12036
0.302	14.60266
0.3025	16.01257
0.303	13.797
0.3035	6.64673
0.304	10.37292
0.3045	12.18567
0.305	10.0708
0.3055	8.45947
0.306	6.84814
0.3065	2.81982
0.307	9.26514
0.3075	9.97009
0.308	12.89062
0.3085	9.97009
0.309	7.15027
0.3095	6.2439
0.31	8.05664
0.3105	2.21558
0.311	5.84106
0.3115	8.8623
0.312	2.41699
0.3125	7.35168
0.313	6.14319
0.3135	5.63965
0.314	8.45947
0.3145	10.17151
0.315	6.54602
0.3155	3.8269
0.316	4.63257
0.3165	5.53894
0.317	5.53894
0.3175	7.5531
0.318	13.49487
0.3185	7.15027
0.319	8.56018
0.3195	5.13611
0.32	5.13611
0.3205	4.63257
0.321	2.92053
0.3215	5.13611
0.322	4.63257
0.3225	6.64673
0.323	-0.10071
0.3235	0.60425
0.324	0.50354
0.3245	5.94177
0.325	1.71204
0.3255	3.8269
0.326	5.43823
0.3265	2.81982
0.327	7.04956
0.3275	7.75452
0.328	2.31628
0.3285	9.56726
0.329	2.81982
0.3295	8.35876
0.33	8.56018
0.3305	4.73328
0.331	2.92053
0.3315	4.02832
0.332	3.02124
0.3325	3.92761
0.333	-0.20142
0.3335	3.42407
0.334	2.01416
0.3345	5.13611
0.335	3.62549
0.3355	2.81982
0.336	0.40283
0.3365	3.02124
0.337	1.3092
0.3375	1.10779
0.338	2.5177
0.3385	0.60425
0.339	1.10779
0.3395	2.21558
0.34	4.73328
0.3405	2.5177
0.341	2.31628
0.3415	2.41699
0.342	-2.41699
0.3425	-1.81274
0.343	-4.02832
0.3435	-3.02124
0.344	-1.40991
0.3445	-2.81982
0.345	-3.52478
0.3455	-0.30212
0.346	-2.61841
0.3465	2.41699
0.347	-1.71204
0.3475	1.71204
0.348	-0.30212
0.3485	2.31628
0.349	4.02832
0.3495	2.92053
0.35	2.61841
0.3505	2.5177
0.351	3.22266
0.3515	2.31628
0.352	4.33044
0.3525	1.71204
0.353	6.2439
0.3535	2.92053
0.354	5.33752
0.3545	7.45239
0.355	7.04956
0.3555	10.77576
0.356	3.42407
0.3565	5.63965
0.357	10.27222
0.3575	8.25806
0.358	7.65381
0.3585	5.13611
0.359	5.94177
0.3595	6.74744
0.36	6.64673
0.3605	2.92053
0.361	6.44531
0.3615	2.5177
0.362	3.12195
0.3625	2.71912
0.363	4.12903
0.3635	2.61841
0.364	-0.80566
0.3645	5.74036
0.365	3.62549
0.3655	1.61133
0.366	3.02124
0.3665	-0.20142
0.367	6.2439
0.3675	5.84106
0.368	8.35876
0.3685	8.56018
0.369	6.84814
0.3695	10.77576
0.37	4.83398
0.3705	2.41699
0.371	4.02832
0.3715	5.43823
0.372	8.56018
0.3725	7.85522
0.373	1.81274
0.3735	1.2085
0.374	2.21558
0.3745	11.48071
0.375	5.84106
0.3755	4.43115
0.376	6.94885
0.3765	1.3092
0.377	7.95593
0.3775	10.37292
0.378	7.95593
0.3785	10.27222
0.379	7.25098
0.3795	5.43823
0.38	8.05664
0.3805	6.54602
0.381	5.33752
0.3815	10.0708
0.382	4.73328
0.3825	5.84106
0.383	7.85522
0.3835	8.35876
0.384	4.33044
0.3845	4.43115
0.385	8.96301
0.3855	9.56726
0.386	5.84106
0.3865	4.22974
0.387	6.3446
0.3875	6.3446
0.388	5.84106
0.3885	9.36584
0.389	7.04956
0.3895	8.56018
0.39	8.96301
0.3905	10.37292
0.391	5.23682
0.3915	4.12903
0.392	3.42407
0.3925	4.63257
0.393	5.13611
0.3935	5.33752
0.394	4.43115
0.3945	4.93469
0.395	4.93469
0.3955	5.13611
0.396	4.93469
0.3965	8.15735
0.397	4.43115
0.3975	9.76868
0.398	6.04248
0.3985	5.53894
0.399	2.01416
0.3995	3.7262
0.4	5.94177
0.4005	2.21558
0.401	1.40991
0.4015	5.33752
0.402	4.93469
0.4025	5.23682
0.403	-0.70496
0.4035	3.92761
0.404	1.3092
0.4045	-0.40283
0.405	0.10071
0.4055	3.32336
0.406	8.7616
0.4065	4.22974
0.407	5.94177
0.4075	2.81982
0.408	7.75452
0.4085	-0.90637
0.409	3.12195
0.4095	7.35168
0.41	4.22974
0.4105	10.17151
0.411	0.70496
0.4115	6.54602
0.412	4.53186
0.4125	10.27222
0.413	6.54602
0.4135	3.12195
0.414	6.84814
0.4145	5.94177
0.415	0.90637
0.4155	3.22266
0.416	2.61841
0.4165	2.61841
0.417	-3.12195
0.4175	6.74744
0.418	7.85522
0.4185	2.5177
0.419	1.3092
0.4195	5.13611
0.42	1.51062
0.4205	1.00708
0.421	-2.92053
0.4215	-0.70496
0.422	-1.10779
0.4225	5.43823
0.423	6.54602
0.4235	7.95593
0.424	6.44531
0.4245	9.06372
0.425	7.45239
0.4255	8.25806
0.426	10.67505
0.4265	11.48071
0.427	12.5885
0.4275	12.68921
0.428	21.24939
0.4285	15.60974
0.429	16.51611
0.4295	12.18567
0.43	9.16443
0.4305	15.1062
0.431	12.28638
0.4315	15.1062
0.432	8.15735
0.4325	12.08496
0.433	12.5885
0.4335	13.69629
0.434	11.17859
0.4345	4.83398
0.435	9.06372
0.4355	3.42407
0.436	6.84814
0.4365	5.94177
0.437	2.92053
0.4375	6.64673
0.438	6.44531
0.4385	4.63257
0.439	4.43115
0.4395	4.83398
0.44	1.3092
0.4405	7.04956
0.441	4.22974
0.4415	5.63965
0.442	5.23682
0.4425	9.46655
0.443	5.74036
0.4435	5.43823
0.444	5.33752
0.4445	0.60425
0.445	-2.61841
0.4455	3.22266
0.446	-5.43823
0.4465	3.42407
0.447	-0.10071
0.4475	-10.57434
0.448	0.50354
0.4485	1.40991
0.449	-3.32336
0.4495	0.90637
0.45	2.81982
0.4505	3.7262
0.451	3.32336
0.4515	7.25098
0.452	-0.60425
0.4525	1.91345
0.453	-0.10071
0.4535	2.71912
0.454	6.84814
0.4545	3.8269
0.455	-1.81274
0.4555	4.43115
0.456	5.53894
0.4565	-1.3092
0.457	4.73328
0.4575	4.53186
0.458	5.33752
0.4585	3.32336
0.459	4.12903
0.4595	4.53186
0.46	-1.40991
0.4605	3.62549
0.461	3.62549
0.4615	-0.20142
0.462	2.61841
0.4625	2.81982
0.463	8.45947
0.4635	2.31628
0.464	4.63257
0.4645	2.01416
0.465	2.31628
0.4655	2.92053
0.466	7.45239
0.4665	7.85522
0.467	5.13611
0.4675	4.53186
0.468	2.71912
0.4685	4.63257
0.469	6.44531
0.4695	3.7262
0.47	1.00708
0.4705	7.45239
0.471	3.32336
0.4715	2.5177
0.472	9.86938
0.4725	2.71912
0.473	7.5531
0.4735	10.17151
0.474	7.95593
0.4745	7.15027
0.475	5.43823
0.4755	8.15735
0.476	6.84814
0.4765	7.95593
0.477	9.56726
0.4775	13.09204
0.478	9.16443
0.4785	8.66089
0.479	8.96301
0.4795	12.89062
0.48	8.45947
0.4805	9.86938
0.481	9.46655
0.4815	11.58142
0.482	4.83398
0.4825	3.8269
0.483	4.33044
0.4835	6.64673
0.484	9.06372
0.4845	3.7262
0.485	7.15027
0.4855	7.65381
0.486	6.44531
0.4865	1.51062
0.487	-0.90637
0.4875	3.42407
0.488	6.14319
0.4885	2.81982
0.489	7.04956
0.4895	2.01416
0.49	2.11487
0.4905	3.32336
0.491	-1.3092
0.4915	2.5177
0.492	4.63257
0.4925	6.2439
0.493	0.90637
0.4935	-1.51062
0.494	2.11487
0.4945	0.40283
0.495	5.53894
0.4955	5.33752
0.496	5.84106
0.4965	4.22974
0.497	3.22266
0.4975	2.11487
0.498	2.92053
0.4985	2.81982
0.499	-1.2085
0.4995	5.84106
0.5	5.74036
0.5005	5.0354
0.501	0.80566
0.5015	-3.12195
0.502	2.41699
0.5025	2.31628
0.503	-1.91345
0.5035	-1.61133
0.504	-0.30212
0.5045	-0.10071
0.505	0.60425
0.5055	3.8269
0.506	1.10779
0.5065	-1.3092
0.507	-3.7262
0.5075	-1.3092
0.508	2.81982
0.5085	2.92053
0.509	2.21558
0.5095	1.10779
0.51	-2.92053
0.5105	1.3092
0.511	1.40991
0.5115	-0.20142
0.512	0.60425
0.5125	1.10779
0.513	-0.50354
0.5135	4.83398
0.514	-2.61841
0.5145	2.61841
0.515	4.63257
0.5155	2.5177
0.516	2.31628
0.5165	-1.71204
0.517	4.63257
0.5175	4.43115
0.518	2.61841
0.5185	-0.90637
0.519	4.22974
0.5195	4.12903
0.52	6.64673
0.5205	1.00708
0.521	2.81982
0.5215	1.71204
0.522	3.8269
0.5225	2.01416
0.523	5.23682
0.5235	-1.51062
0.524	3.92761
0.5245	1.51062
0.525	-2.92053
0.5255	1.61133
0.526	3.92761
0.5265	2.11487
0.527	2.61841
0.5275	0.40283
0.528	-0.40283
0.5285	-1.3092
0.529	0.50354
0.5295	-2.21558
0.53	4.53186
0.5305	-0.70496
0.531	-1.2085
0.5315	2.31628
0.532	4.53186
0.5325	2.21558
0.533	0.50354
0.5335	4.12903
0.534	7.75452
0.5345	3.92761
0.535	6.04248
0.5355	6.44531
0.536	3.92761
0.5365	3.7262
0.537	1.3092
0.5375	1.51062
0.538	6.54602
0.5385	6.64673
0.539	11.48071
0.5395	1.81274
0.54	5.23682
0.5405	0.50354
0.541	5.23682
0.5415	6.3446
0.542	10.27222
0.5425	8.45947
0.543	9.97009
0.5435	9.36584
0.544	3.52478
0.5445	4.02832
0.545	8.66089
0.5455	5.53894
0.546	6.3446
0.5465	4.22974
0.547	2.31628
0.5475	5.0354
0.548	7.75452
0.5485	5.74036
0.549	4.22974
0.5495	0
0.55	-2.21558
0.5505	3.12195
0.551	3.8269
0.5515	1.71204
0.552	-0.80566
0.5525	0.80566
0.553	0
0.5535	-0.90637
0.554	4.33044
0.5545	1.10779
0.555	2.71912
0.5555	10.87646
0.556	6.14319
0.5565	3.52478
0.557	-2.81982
0.5575	6.04248
0.558	4.02832
0.5585	8.8623
0.559	1.00708
0.5595	4.12903
0.56	2.81982
0.5605	4.22974
0.561	-0.50354
0.5615	3.12195
0.562	-0.80566
0.5625	3.12195
0.563	2.71912
0.5635	3.42407
0.564	10.0708
0.5645	7.5531
0.565	7.04956
0.5655	9.56726
0.566	8.66089
0.5665	9.66797
0.567	6.44531
0.5675	6.64673
0.568	4.33044
0.5685	4.53186
0.569	12.89062
0.5695	9.36584
0.57	0.60425
0.5705	8.66089
0.571	6.44531
0.5715	7.65381
0.572	3.52478
0.5725	0.70496
0.573	5.0354
0.5735	-0.30212
0.574	2.41699
0.5745	6.04248
0.575	3.62549
0.5755	3.22266
0.576	3.22266
0.5765	2.81982
0.577	5.74036
0.5775	8.15735
0.578	6.54602
0.5785	6.84814
0.579	14.09912
0.5795	4.53186
0.58	7.15027
0.5805	9.06372
0.581	8.7616
0.5815	8.56018
0.582	8.7616
0.5825	5.63965
0.583	8.56018
0.5835	14.09912
0.584	10.37292
0.5845	9.26514
0.585	10.87646
0.5855	12.89062
0.586	10.0708
0.5865	10.0708
0.587	11.17859
0.5875	10.77576
0.588	13.39417
0.5885	12.89062
0.589	11.78284
0.5895	17.22107
0.59	14.30054
0.5905	15.60974
0.591	8.25806
0.5915	10.0708
0.592	12.38708
0.5925	16.51611
0.593	12.89062
0.5935	10.87646
0.594	9.26514
0.5945	19.33594
0.595	8.05664
0.5955	8.15735
0.596	9.26514
0.5965	10.27222
0.597	7.5531
0.5975	6.14319
0.598	5.63965
0.5985	9.86938
0.599	11.48071
0.5995	7.95593
0.6	7.25098
0.6005	7.45239
0.601	3.62549
0.6015	4.83398
0.602	10.47363
0.6025	1.71204
0.603	1.00708
0.6035	6.84814
0.604	5.84106
0.6045	5.23682
0.605	6.94885
0.6055	8.96301
0.606	6.74744
0.6065	9.16443
0.607	7.75452
0.6075	10.17151
0.608	9.66797
0.6085	13.39417
0.609	12.18567
0.6095	13.89771
0.61	13.797
0.6105	9.16443
0.611	7.95593
0.6115	5.53894
0.612	10.27222
0.6125	4.43115
0.613	4.33044
0.6135	6.74744
0.614	5.13611
0.6145	10.0708
0.615	4.93469
0.6155	6.44531
0.616	4.02832
0.6165	8.66089
0.617	8.96301
0.6175	7.04956
0.618	4.93469
0.6185	7.15027
0.619	13.19275
0.6195	11.17859
0.62	14.70337
0.6205	13.09204
0.621	17.01965
0.6215	20.74585
0.622	16.3147
0.6225	11.58142
0.623	10.0708
0.6235	11.58142
0.624	13.09204
0.6245	12.18567
0.625	5.33752
0.6255	8.66089
0.626	11.17859
0.6265	8.05664
0.627	9.76868
0.6275	7.04956
0.628	5.0354
0.6285	0
0.629	3.92761
0.6295	8.8623
0.63	8.05664
0.6305	7.85522
0.631	7.5531
0.6315	13.29346
0.632	10.67505
0.6325	11.78284
0.633	11.78284
0.6335	4.33044
0.634	6.94885
0.6345	2.81982
0.635	5.33752
0.6355	5.53894
0.636	13.29346
0.6365	9.76868
0.637	6.14319
0.6375	10.57434
0.638	4.93469
0.6385	10.47363
0.639	7.15027
0.6395	11.68213
0.64	11.07788
0.6405	9.86938
0.641	7.45239
0.6415	-1.3092
0.642	6.54602
0.6425	6.3446
0.643	8.45947
0.6435	9.06372
0.644	11.58142
0.6445	4.43115
0.645	4.02832
0.6455	8.15735
0.646	9.56726
0.6465	4.83398
0.647	3.8269
0.6475	0.50354
0.648	6.64673
0.6485	8.96301
0.649	6.64673
0.6495	6.54602
0.65	1.51062
0.6505	0.80566
0.651	2.41699
0.6515	-3.7262
0.652	1.3092
0.6525	1.2085
0.653	-0.20142
0.6535	1.3092
0.654	2.31628
0.6545	5.74036
0.655	2.5177
0.6555	3.02124
0.656	6.3446
0.6565	4.73328
0.657	2.81982
0.6575	3.02124
0.658	4.43115
0.6585	4.43115
0.659	0
0.6595	3.12195
0.66	1.3092
0.6605	5.33752
0.661	6.14319
0.6615	6.94885
0.662	7.5531
0.6625	6.74744
0.663	5.33752
0.6635	0.60425
0.664	-0.20142
0.6645	2.81982
0.665	7.85522
0.6655	2.92053
0.666	0.20142
0.6665	-3.32336
0.667	0.10071
0.6675	6.64673
0.668	2.81982
0.6685	3.92761
0.669	-0.90637
0.6695	-1.81274
0.67	0
0.6705	6.44531
0.671	3.62549
0.6715	4.33044
0.672	3.42407
0.6725	1.10779
0.673	-1.00708
0.6735	0.40283
0.674	2.41699
0.6745	2.5177
0.675	3.7262
0.6755	0.90637
0.676	-1.61133
0.6765	-2.81982
0.677	0.50354
0.6775	3.02124
0.678	5.33752
0.6785	7.04956
0.679	8.8623
0.6795	5.74036
0.68	3.42407
0.6805	5.53894
0.681	5.53894
0.6815	10.87646
0.682	8.35876
0.6825	9.06372
0.683	9.26514
0.6835	7.45239
0.684	7.35168
0.6845	5.63965
0.685	0.70496
0.6855	5.53894
0.686	3.02124
0.6865	5.0354
0.687	-3.12195
0.6875	0.50354
0.688	2.11487
0.6885	-0.70496
0.689	-2.61841
0.6895	2.01416
0.69	1.51062
0.6905	2.92053
0.691	2.5177
0.6915	7.85522
0.692	6.44531
0.6925	8.15735
0.693	5.84106
0.6935	3.42407
0.694	3.12195
0.6945	5.74036
0.695	9.76868
0.6955	0.20142
0.696	1.81274
0.6965	6.14319
0.697	3.7262
0.6975	0.20142
0.698	2.01416
0.6985	1.61133
0.699	-0.90637
0.6995	-0.80566
0.7	3.92761
0.7005	0.70496
0.701	3.22266
0.7015	4.43115
0.702	3.22266
0.7025	4.33044
0.703	6.94885
0.7035	9.56726
0.704	8.45947
0.7045	1.2085
0.705	0.10071
0.7055	2.31628
0.706	0.50354
0.7065	4.53186
0.707	4.12903
0.7075	7.65381
0.708	2.92053
0.7085	7.35168
0.709	7.85522
0.7095	5.94177
0.71	8.66089
0.7105	5.33752
0.711	7.85522
0.7115	3.62549
0.712	5.53894
0.7125	3.32336
0.713	1.91345
0.7135	1.81274
0.714	-1.51062
0.7145	2.41699
0.715	0.50354
0.7155	-1.10779
0.716	4.22974
0.7165	5.33752
0.717	0.70496
0.7175	9.36584
0.718	5.94177
0.7185	5.84106
0.719	5.23682
0.7195	6.54602
0.72	3.42407
0.7205	5.94177
0.721	1.81274
0.7215	-0.40283
0.722	6.84814
0.7225	2.5177
0.723	4.63257
0.7235	6.14319
0.724	0.20142
0.7245	3.8269
0.725	1.51062
0.7255	5.13611
0.726	8.35876
0.7265	8.66089
0.727	12.48779
0.7275	5.74036
0.728	11.38
0.7285	7.04956
0.729	8.96301
0.7295	5.33752
0.73	2.21558
0.7305	7.5531
0.731	6.54602
0.7315	3.02124
0.732	7.15027
0.7325	10.47363
0.733	9.46655
0.7335	8.45947
0.734	4.73328
0.7345	4.83398
0.735	7.25098
0.7355	5.84106
0.736	8.56018
0.7365	11.68213
0.737	9.16443
0.7375	5.94177
0.738	7.65381
0.7385	-1.2085
0.739	3.32336
0.7395	3.32336
0.74	2.41699
0.7405	9.56726
0.741	5.74036
0.7415	8.8623
0.742	11.48071
0.7425	13.59558
0.743	10.57434
0.7435	10.57434
0.744	8.35876
0.7445	9.46655
0.745	15.20691
0.7455	8.66089
0.746	11.07788
0.7465	4.22974
0.747	10.87646
0.7475	9.97009
0.748	10.37292
0.7485	7.04956
0.749	5.43823
0.7495	7.85522
0.75	5.53894
0.7505	3.8269
0.751	3.7262
0.7515	2.01416
0.752	3.02124
0.7525	-0.30212
0.753	0.90637
0.7535	3.02124
0.754	1.51062
0.7545	4.12903
0.755	2.5177
0.7555	3.32336
0.756	5.43823
0.7565	-0.40283
0.757	9.86938
0.7575	9.97009
0.758	5.0354
0.7585	6.74744
0.759	7.95593
0.7595	8.05664
0.76	8.96301
0.7605	7.35168
0.761	8.8623
0.7615	8.35876
0.762	4.73328
0.7625	2.81982
0.763	7.5531
0.7635	7.35168
0.764	7.95593
0.7645	11.78284
0.765	9.66797
0.7655	8.96301
0.766	12.18567
0.7665	10.37292
0.767	13.59558
0.7675	7.45239
0.768	12.5885
0.7685	9.66797
0.769	7.04956
0.7695	8.45947
0.77	4.12903
0.7705	7.65381
0.771	7.35168
0.7715	12.5885
0.772	5.33752
0.7725	13.09204
0.773	3.7262
0.7735	0.70496
0.774	7.45239
0.7745	0.80566
0.775	4.63257
0.7755	7.35168
0.776	8.7616
0.7765	5.63965
0.777	1.71204
0.7775	2.61841
0.778	7.25098
0.7785	8.45947
0.779	8.8623
0.7795	7.65381
0.78	6.04248
0.7805	4.12903
0.781	8.35876
0.7815	3.32336
0.782	11.07788
0.7825	1.91345
0.783	2.5177
0.7835	5.53894
0.784	5.74036
0.7845	5.94177
0.785	6.64673
0.7855	8.25806
0.786	6.54602
0.7865	5.63965
0.787	3.22266
0.7875	0.20142
0.788	1.81274
0.7885	0.30212
0.789	2.31628
0.7895	8.56018
0.79	1.51062
0.7905	5.63965
0.791	2.31628
0.7915	-4.33044
0.792	1.71204
0.7925	2.41699
0.793	3.52478
0.7935	7.45239
0.794	1.40991
0.7945	5.94177
0.795	5.53894
0.7955	5.13611
0.796	5.33752
0.7965	2.21558
0.797	5.53894
0.7975	7.95593
0.798	10.0708
0.7985	10.77576
0.799	8.7616
0.7995	14.50195
0.8	12.78992
0.8005	7.25098
0.801	7.15027
0.8015	11.38
0.802	8.15735
0.8025	8.8623
0.803	7.65381
0.8035	7.45239
0.804	4.53186
0.8045	6.14319
0.805	10.27222
0.8055	8.7616
0.806	7.15027
0.8065	10.0708
0.807	10.77576
0.8075	7.25098
0.808	8.05664
0.8085	14.09912
0.809	15.50903
0.8095	15.20691
0.81	10.77576
0.8105	10.67505
0.811	7.04956
0.8115	9.97009
0.812	7.85522
0.8125	8.56018
0.813	11.38
0.8135	8.25806
0.814	4.83398
0.8145	4.73328
0.815	7.35168
0.8155	5.13611
0.816	9.86938
0.8165	5.43823
0.817	3.02124
0.8175	5.0354
0.818	2.71912
0.8185	-0.40283
0.819	4.22974
0.8195	6.94885
0.82	4.33044
0.8205	-3.22266
0.821	3.7262
0.8215	3.8269
0.822	9.66797
0.8225	5.33752
0.823	5.74036
0.8235	9.36584
0.824	8.45947
0.8245	9.36584
0.825	3.42407
0.8255	7.25098
0.826	9.46655
0.8265	4.83398
0.827	11.58142
0.8275	9.56726
0.828	12.99133
0.8285	4.83398
0.829	10.67505
0.8295	7.5531
0.83	9.36584
0.8305	3.7262
0.831	6.74744
0.8315	8.8623
0.832	2.81982
0.8325	6.14319
0.833	8.56018
0.8335	14.80408
0.834	8.05664
0.8345	8.45947
0.835	16.71753
0.8355	16.11328
0.836	13.99841
0.8365	8.15735
0.837	9.86938
0.8375	12.78992
0.838	13.99841
0.8385	16.3147
0.839	20.1416
0.8395	15.40833
0.84	17.82532
0.8405	19.94019
0.841	15.71045
0.8415	13.797
0.842	12.5885
0.8425	17.12036
0.843	15.30762
0.8435	14.50195
0.844	14.09912
0.8445	14.09912
0.845	16.61682
0.8455	17.72461
0.846	15.20691
0.8465	17.22107
0.847	15.20691
0.8475	11.07788
0.848	11.2793
0.8485	9.56726
0.849	13.49487
0.8495	12.48779
0.85	12.28638
0.8505	9.76868
0.851	8.45947
0.8515	12.89062
0.852	17.12036
0.8525	14.70337
0.853	8.56018
0.8535	14.19983
0.854	11.68213
0.8545	11.58142
0.855	11.58142
0.8555	8.35876
0.856	16.41541
0.8565	16.41541
0.857	10.27222
0.8575	11.58142
0.858	17.12036
0.8585	13.29346
0.859	15.40833
0.8595	15.00549
0.86	11.88354
0.8605	16.01257
0.861	11.17859
0.8615	12.38708
0.862	13.89771
0.8625	16.3147
0.863	15.00549
0.8635	18.53027
0.864	18.12744
0.8645	16.81824
0.865	12.38708
0.8655	10.97717
0.866	10.27222
0.8665	1.91345
0.867	8.96301
0.8675	13.39417
0.868	12.68921
0.8685	10.37292
0.869	20.04089
0.8695	17.01965
0.87	16.11328
0.8705	8.96301
0.871	9.16443
0.8715	8.66089
0.872	10.67505
0.8725	12.68921
0.873	12.5885
0.8735	11.78284
0.874	10.97717
0.8745	8.15735
0.875	7.45239
0.8755	8.25806
0.876	11.78284
0.8765	5.74036
0.877	8.35876
0.8775	12.18567
0.878	14.09912
0.8785	10.77576
0.879	10.87646
0.8795	5.84106
0.88	8.05664
0.8805	8.96301
0.881	6.94885
0.8815	8.56018
0.882	5.33752
0.8825	3.92761
0.883	10.17151
0.8835	5.23682
0.884	-1.51062
0.8845	3.52478
0.885	2.92053
0.8855	2.31628
0.886	7.15027
0.8865	8.45947
0.887	0.20142
0.8875	2.01416
0.888	1.2085
0.8885	2.92053
0.889	10.37292
0.8895	8.8623
0.89	9.06372
0.8905	8.05664
0.891	11.48071
0.8915	7.65381
0.892	12.78992
0.8925	5.0354
0.893	5.43823
0.8935	4.53186
0.894	5.63965
0.8945	8.25806
0.895	10.37292
0.8955	9.66797
0.896	6.44531
0.8965	3.7262
0.897	5.13611
0.8975	10.27222
0.898	14.70337
0.8985	13.39417
0.899	15.00549
0.8995	7.45239
0.9	10.97717
0.9005	15.50903
0.901	7.15027
0.9015	7.35168
0.902	7.45239
0.9025	14.09912
0.903	11.07788
0.9035	13.69629
0.904	7.95593
0.9045	20.54443
0.905	15.60974
0.9055	17.72461
0.906	11.07788
0.9065	14.40125
0.907	10.87646
0.9075	14.09912
0.908	9.97009
0.9085	4.63257
0.909	5.33752
0.9095	7.35168
0.91	0.90637
0.9105	2.5177
0.911	9.16443
0.9115	2.21558
0.912	7.25098
0.9125	9.26514
0.913	2.5177
0.9135	5.43823
0.914	2.31628
0.9145	4.83398
0.915	3.42407
0.9155	2.92053
0.916	2.01416
0.9165	4.73328
0.917	6.64673
0.9175	3.62549
0.918	1.61133
0.9185	9.97009
0.919	6.84814
0.9195	8.66089
0.92	3.62549
0.9205	10.27222
0.921	9.97009
0.9215	11.17859
0.922	13.69629
0.9225	7.5531
0.923	9.56726
0.9235	7.15027
0.924	12.08496
0.9245	11.88354
0.925	3.52478
0.9255	7.85522
0.926	4.22974
0.9265	4.33044
0.927	6.2439
0.9275	5.0354
0.928	3.62549
0.9285	7.65381
0.929	11.78284
0.9295	9.66797
0.93	2.5177
0.9305	8.96301
0.931	8.66089
0.9315	8.45947
0.932	5.63965
0.9325	5.84106
0.933	4.43115
0.9335	4.43115
0.934	7.35168
0.9345	7.25098
0.935	8.7616
0.9355	6.44531
0.936	11.68213
0.9365	10.27222
0.937	11.68213
0.9375	6.14319
0.938	6.04248
0.9385	9.76868
0.939	13.59558
0.9395	14.60266
0.94	10.67505
0.9405	9.06372
0.941	7.85522
0.9415	8.05664
0.942	9.56726
0.9425	9.66797
0.943	10.47363
0.9435	8.56018
0.944	7.25098
0.9445	9.06372
0.945	6.3446
0.9455	5.53894
0.946	1.00708
0.9465	6.3446
0.947	9.86938
0.9475	6.04248
0.948	0.20142
0.9485	6.74744
0.949	3.92761
0.9495	6.04248
0.95	5.33752
0.9505	1.51062
0.951	6.64673
0.9515	7.5531
0.952	10.17151
0.9525	4.12903
0.953	-0.20142
0.9535	1.00708
0.954	-0.30212
0.9545	-0.90637
0.955	2.11487
0.9555	2.61841
0.956	3.22266
0.9565	5.94177
0.957	2.81982
0.9575	4.33044
0.958	6.04248
0.9585	-1.81274
0.959	0.10071
0.9595	-0.90637
0.96	4.73328
0.9605	4.73328
0.961	-0.30212
0.9615	0.30212
0.962	3.8269
0.9625	4.33044
0.963	2.31628
0.9635	6.2439
0.964	5.13611
0.9645	8.35876
0.965	-0.40283
0.9655	4.93469
0.966	7.35168
0.9665	8.45947
0.967	6.64673
0.9675	5.23682
0.968	-0.50354
0.9685	6.04248
0.969	5.74036
0.9695	7.35168
0.97	7.35168
0.9705	8.56018
0.971	7.85522
0.9715	2.11487
0.972	3.7262
0.9725	4.83398
0.973	3.8269
0.9735	3.42407
0.974	3.32336
0.9745	3.92761
0.975	6.74744
0.9755	3.62549
0.976	9.86938
0.9765	5.63965
0.977	5.33752
0.9775	5.84106
0.978	8.05664
0.9785	6.94885
0.979	3.7262
0.9795	5.53894
0.98	4.93469
0.9805	8.45947
0.981	5.13611
0.9815	10.77576
0.982	7.04956
0.9825	-0.50354
0.983	5.94177
0.9835	2.5177
0.984	7.35168
0.9845	10.17151
0.985	8.66089
0.9855	8.7616
0.986	1.00708
0.9865	4.93469
0.987	7.75452
0.9875	9.36584
0.988	7.45239
0.9885	2.92053
0.989	9.26514
0.9895	7.35168
0.99	3.52478
0.9905	3.62549
0.991	6.14319
0.9915	10.17151
0.992	11.48071
0.9925	3.22266
0.993	3.62549
0.9935	2.31628
0.994	8.96301
0.9945	5.94177
0.995	3.8269
0.9955	5.33752
0.996	10.67505
0.9965	10.47363
0.997	10.47363
0.9975	11.17859
0.998	11.58142
0.9985	1.2085
0.999	1.51062
0.9995	6.44531
1	6.3446
1.0005	9.66797
1.001	7.85522
1.0015	8.56018
1.002	5.33752
1.0025	3.52478
1.003	7.85522
1.0035	8.05664
1.004	10.0708
1.0045	9.46655
1.005	12.28638
1.0055	9.56726
1.006	7.95593
1.0065	7.65381
1.007	6.94885
1.0075	10.97717
1.008	7.25098
1.0085	4.93469
1.009	4.83398
1.0095	3.7262
1.01	5.13611
1.0105	7.15027
1.011	5.94177
1.0115	5.13611
1.012	4.73328
1.0125	9.46655
1.013	3.92761
1.0135	1.81274
1.014	2.81982
1.0145	1.91345
1.015	7.45239
1.0155	2.5177
1.016	7.35168
1.0165	1.2085
1.017	3.52478
1.0175	4.02832
1.018	2.71912
1.0185	6.84814
1.019	0.20142
1.0195	2.81982
1.02	8.15735
1.0205	8.66089
1.021	3.32336
1.0215	6.3446
1.022	1.00708
1.0225	0.20142
1.023	9.46655
1.0235	9.06372
1.024	-2.11487
1.0245	5.84106
1.025	6.84814
1.0255	5.63965
1.026	4.63257
1.0265	2.31628
1.027	7.75452
1.0275	6.14319
1.028	2.81982
1.0285	8.05664
1.029	4.83398
1.0295	6.04248
1.03	0.30212
1.0305	0.50354
1.031	4.73328
1.0315	12.89062
1.032	1.3092
1.0325	6.94885
1.033	4.73328
1.0335	3.7262
1.034	0.10071
1.0345	6.74744
1.035	4.22974
1.0355	10.47363
1.036	8.66089
1.0365	10.77576
1.037	1.71204
1.0375	7.15027
1.038	2.21558
1.0385	3.02124
1.039	3.7262
1.0395	5.84106
1.04	-1.51062
1.0405	5.0354
1.041	-2.01416
1.0415	2.61841
1.042	10.17151
1.0425	3.42407
1.043	5.84106
1.0435	-1.81274
1.044	2.61841
1.0445	2.81982
1.045	-0.50354
1.0455	2.92053
1.046	6.54602
1.0465	2.71912
1.047	3.12195
1.0475	0.30212
1.048	2.31628
1.0485	7.35168
1.049	6.3446
1.0495	4.33044
1.05	2.71912
1.0505	9.86938
1.051	5.74036
1.0515	6.14319
1.052	12.68921
1.0525	8.05664
1.053	8.66089
1.0535	11.2793
1.054	9.76868
1.0545	12.08496
1.055	10.17151
1.0555	4.73328
1.056	6.84814
1.0565	7.5531
1.057	7.95593
1.0575	9.26514
1.058	1.40991
1.0585	9.36584
1.059	8.15735
1.0595	3.22266
1.06	5.84106
1.0605	6.04248
1.061	2.41699
1.0615	2.01416
1.062	8.56018
1.0625	5.94177
1.063	2.71912
1.0635	2.21558
1.064	2.81982
1.0645	4.43115
1.065	1.3092
1.0655	-0.80566
1.066	2.31628
1.0665	5.74036
1.067	2.41699
1.0675	2.71912
1.068	1.10779
1.0685	-1.71204
1.069	2.61841
1.0695	5.94177
1.07	3.62549
1.0705	5.63965
1.071	3.32336
1.0715	10.67505
1.072	9.26514
1.0725	2.81982
1.073	10.67505
1.0735	5.94177
1.074	4.33044
1.0745	1.00708
1.075	7.04956
1.0755	7.45239
1.076	12.5885
1.0765	10.47363
1.077	14.09912
1.0775	4.73328
1.078	5.74036
1.0785	9.76868
1.079	5.84106
1.0795	4.33044
1.08	6.54602
1.0805	9.16443
1.081	7.04956
1.0815	7.45239
1.082	2.5177
1.0825	3.22266
1.083	5.23682
1.0835	3.42407
1.084	3.52478
1.0845	5.74036
1.085	1.61133
1.0855	4.53186
1.086	2.21558
1.0865	0.50354
1.087	2.41699
1.0875	0.90637
1.088	5.13611
1.0885	5.0354
1.089	9.56726
1.0895	6.94885
1.09	7.65381
1.0905	7.5531
1.091	6.54602
1.0915	-1.71204
1.092	3.8269
1.0925	7.35168
1.093	11.07788
1.0935	4.02832
1.094	6.14319
1.0945	8.25806
1.095	5.33752
1.0955	7.95593
1.096	0.70496
1.0965	3.02124
1.097	1.3092
1.0975	0.80566
1.098	3.7262
1.0985	5.53894
1.099	11.2793
1.0995	7.15027
1.1	3.8269
1.1005	4.12903
1.101	1.00708
1.1015	4.12903
1.102	8.8623
1.1025	9.06372
1.103	9.06372
1.1035	6.94885
1.104	1.10779
1.1045	6.04248
1.105	4.43115
1.1055	0.50354
1.106	3.62549
1.1065	-0.40283
1.107	0
1.1075	0.70496
1.108	0.80566
1.1085	6.94885
1.109	7.04956
1.1095	3.12195
1.11	2.31628
1.1105	6.94885
1.111	3.8269
1.1115	6.14319
1.112	1.40991
1.1125	1.51062
1.113	0.80566
1.1135	6.44531
1.114	3.62549
1.1145	6.94885
1.115	11.07788
1.1155	12.68921
1.116	5.94177
1.1165	7.04956
1.117	3.52478
1.1175	10.27222
1.118	5.63965
1.1185	6.44531
1.119	0.60425
1.1195	9.76868
1.12	5.63965
1.1205	4.53186
1.121	2.01416
1.1215	2.81982
1.122	3.7262
1.1225	0
1.123	1.81274
1.1235	4.02832
1.124	5.53894
1.1245	8.45947
1.125	7.35168
1.1255	12.68921
1.126	11.2793
1.1265	14.70337
1.127	7.85522
1.1275	11.58142
1.128	8.35876
1.1285	12.78992
1.129	7.45239
1.1295	5.33752
1.13	7.95593
1.1305	3.62549
1.131	-0.50354
1.1315	5.63965
1.132	5.53894
1.1325	4.12903
1.133	8.15735
1.1335	5.74036
1.134	4.53186
1.1345	7.04956
1.135	4.53186
1.1355	7.75452
1.136	4.73328
1.1365	5.13611
1.137	4.53186
1.1375	6.2439
1.138	7.04956
1.1385	13.49487
1.139	13.49487
1.1395	8.56018
1.14	7.25098
1.1405	3.52478
1.141	6.3446
1.1415	9.97009
1.142	10.87646
1.1425	11.07788
1.143	6.84814
1.1435	7.45239
1.144	10.97717
1.1445	6.3446
1.145	3.7262
1.1455	3.92761
1.146	9.06372
1.1465	8.56018
1.147	8.56018
1.1475	9.06372
1.148	7.15027
1.1485	4.93469
1.149	7.5531
1.1495	7.45239
1.15	4.22974
1.1505	4.33044
1.151	3.52478
1.1515	5.33752
1.152	3.22266
1.1525	3.12195
1.153	1.61133
1.1535	-0.90637
1.154	4.22974
1.1545	2.5177
1.155	3.12195
1.1555	6.94885
1.156	6.14319
1.1565	9.06372
1.157	2.01416
1.1575	7.45239
1.158	-0.20142
1.1585	4.63257
1.159	4.73328
1.1595	6.74744
1.16	4.53186
1.1605	7.45239
1.161	11.78284
1.1615	7.25098
1.162	4.83398
1.1625	5.0354
1.163	2.01416
1.1635	2.41699
1.164	3.32336
1.1645	3.32336
1.165	1.10779
1.1655	5.74036
1.166	5.53894
1.1665	10.37292
1.167	10.0708
1.1675	11.78284
1.168	9.46655
1.1685	5.23682
1.169	1.10779
1.1695	5.43823
1.17	6.54602
1.1705	11.68213
1.171	9.16443
1.1715	9.16443
1.172	6.74744
1.1725	6.2439
1.173	7.15027
1.1735	2.21558
1.174	4.93469
1.1745	7.15027
1.175	8.05664
1.1755	5.94177
1.176	9.56726
1.1765	4.53186
1.177	8.8623
1.1775	4.02832
1.178	4.43115
1.1785	5.33752
1.179	10.97717
1.1795	6.3446
1.18	7.45239
1.1805	2.01416
1.181	7.15027
1.1815	2.5177
1.182	4.73328
1.1825	1.71204
1.183	0
1.1835	0.80566
1.184	5.74036
1.1845	3.7262
1.185	1.10779
1.1855	0.20142
1.186	-1.2085
1.1865	1.81274
1.187	0.10071
1.1875	2.61841
1.188	-2.11487
1.1885	1.10779
1.189	4.93469
1.1895	3.02124
1.19	3.12195
1.1905	6.04248
1.191	-2.21558
1.1915	0.70496
1.192	8.35876
1.1925	8.25806
1.193	4.53186
1.1935	6.3446
1.194	7.04956
1.1945	2.81982
1.195	1.71204
1.1955	5.23682
1.196	2.92053
1.1965	1.00708
1.197	1.81274
1.1975	5.13611
1.198	5.13611
1.1985	3.12195
1.199	8.25806
1.1995	5.43823
1.2	9.26514
1.2005	6.2439
1.201	6.54602
1.2015	3.52478
1.202	7.75452
1.2025	2.61841
1.203	2.41699
1.2035	4.53186
1.204	13.19275
1.2045	5.43823
1.205	9.56726
1.2055	8.25806
1.206	7.45239
1.2065	5.74036
1.207	4.02832
1.2075	11.2793
1.208	3.8269
1.2085	1.3092
1.209	9.66797
1.2095	4.93469
1.21	6.04248
1.2105	5.43823
1.211	10.37292
1.2115	4.73328
1.212	6.84814
1.2125	9.06372
1.213	8.45947
1.2135	5.74036
1.214	4.12903
1.2145	-0.90637
1.215	2.41699
1.2155	2.01416
1.216	2.01416
1.2165	3.12195
1.217	10.67505
1.2175	7.25098
1.218	3.42407
1.2185	6.94885
1.219	12.5885
1.2195	11.88354
1.22	0.20142
1.2205	2.01416
1.221	3.42407
1.2215	3.8269
1.222	2.01416
1.2225	4.12903
1.223	7.35168
1.2235	-1.51062
1.224	-6.94885
1.2245	0.60425
1.225	-1.51062
1.2255	0.30212
1.226	1.2085
1.2265	1.40991
1.227	-0.50354
1.2275	-0.40283
1.228	-0.30212
1.2285	1.81274
1.229	4.53186
1.2295	3.42407
1.23	5.13611
1.2305	2.11487
1.231	4.33044
1.2315	2.61841
1.232	5.53894
1.2325	5.13611
1.233	5.94177
1.2335	6.74744
1.234	5.94177
1.2345	-0.10071
1.235	2.31628
1.2355	7.95593
1.236	3.02124
1.2365	1.61133
1.237	-1.3092
1.2375	4.22974
1.238	5.63965
1.2385	1.2085
1.239	2.41699
1.2395	4.12903
1.24	4.93469
1.2405	5.94177
1.241	7.5531
1.2415	3.62549
1.242	5.94177
1.2425	5.33752
1.243	1.91345
1.2435	4.73328
1.244	3.42407
1.2445	4.83398
1.245	4.02832
1.2455	2.01416
1.246	3.92761
1.2465	2.11487
1.247	0.80566
1.2475	1.91345
1.248	-0.60425
1.2485	4.02832
1.249	4.33044
1.2495	10.37292
1.25	5.13611
1.2505	1.71204
1.251	3.02124
1.2515	6.3446
1.252	5.94177
1.2525	6.94885
1.253	0.50354
1.2535	8.45947
1.254	5.74036
1.2545	7.75452
1.255	3.42407
1.2555	1.2085
1.256	1.00708
1.2565	5.63965
1.257	3.7262
1.2575	2.41699
1.258	8.8623
1.2585	6.04248
1.259	4.93469
1.2595	4.02832
1.26	2.5177
1.2605	1.51062
1.261	-1.10779
1.2615	-1.2085
1.262	-2.31628
1.2625	1.00708
1.263	5.0354
1.2635	5.74036
1.264	1.51062
1.2645	9.36584
1.265	1.81274
1.2655	3.92761
1.266	3.22266
1.2665	-0.50354
1.267	2.21558
1.2675	1.91345
1.268	2.92053
1.2685	-1.3092
1.269	3.62549
1.2695	5.33752
1.27	6.64673
1.2705	1.2085
1.271	8.15735
1.2715	6.3446
1.272	8.05664
1.2725	6.54602
1.273	9.56726
1.2735	7.75452
1.274	6.2439
1.2745	7.75452
1.275	9.16443
1.2755	9.26514
1.276	8.25806
1.2765	10.97717
1.277	8.15735
1.2775	7.35168
1.278	9.66797
1.2785	10.67505
1.279	5.84106
1.2795	6.64673
1.28	10.47363
1.2805	5.63965
1.281	7.45239
1.2815	9.06372
1.282	5.13611
1.2825	0.70496
1.283	3.22266
1.2835	6.74744
1.284	2.5177
1.2845	-0.70496
1.285	4.12903
1.2855	9.36584
1.286	6.94885
1.2865	13.49487
1.287	9.26514
1.2875	14.30054
1.288	13.39417
1.2885	8.8623
1.289	10.17151
1.2895	2.41699
1.29	-2.01416
1.2905	2.41699
1.291	4.73328
1.2915	4.02832
1.292	1.10779
1.2925	2.21558
1.293	0.20142
1.2935	-0.20142
1.294	-1.71204
1.2945	0.10071
1.295	1.10779
1.2955	1.2085
1.296	0.50354
1.2965	5.23682
1.297	4.53186
1.2975	-1.10779
1.298	1.2085
1.2985	7.35168
1.299	6.64673
1.2995	1.61133
1.3	4.73328
1.3005	-1.91345
1.301	4.43115
1.3015	5.43823
1.302	4.83398
1.3025	9.46655
1.303	5.0354
1.3035	0.80566
1.304	4.83398
1.3045	9.66797
1.305	3.7262
1.3055	8.56018
1.306	7.25098
1.3065	7.75452
1.307	-0.50354
1.3075	0.90637
1.308	0.60425
1.3085	4.43115
1.309	3.7262
1.3095	3.8269
1.31	7.04956
1.3105	8.96301
1.311	11.98425
1.3115	8.25806
1.312	8.25806
1.3125	6.94885
1.313	6.2439
1.3135	2.61841
1.314	4.73328
1.3145	7.5531
1.315	8.8623
1.3155	11.58142
1.316	4.22974
1.3165	7.04956
1.317	1.61133
1.3175	2.61841
1.318	3.42407
1.3185	-0.70496
1.319	1.91345
1.3195	3.62549
1.32	7.5531
1.3205	8.7616
1.321	3.92761
1.3215	-1.91345
1.322	1.2085
1.3225	5.84106
1.323	3.52478
1.3235	1.51062
1.324	1.51062
1.3245	7.45239
1.325	8.45947
1.3255	6.94885
1.326	8.05664
1.3265	7.45239
1.327	6.3446
1.3275	8.7616
1.328	8.96301
1.3285	3.02124
1.329	9.86938
1.3295	7.15027
1.33	8.25806
1.3305	4.33044
1.331	3.52478
1.3315	-1.2085
1.332	-0.90637
1.3325	2.31628
1.333	0.90637
1.3335	1.71204
1.334	2.5177
1.3345	4.22974
1.335	4.22974
1.3355	2.71912
1.336	10.17151
1.3365	2.81982
1.337	0.80566
1.3375	0.30212
1.338	5.53894
1.3385	4.43115
1.339	5.13611
1.3395	0
1.34	0.40283
1.3405	6.44531
1.341	7.65381
1.3415	1.3092
1.342	5.0354
1.3425	-0.30212
1.343	5.63965
1.3435	7.45239
1.344	1.51062
1.3445	1.61133
1.345	-0.40283
1.3455	2.21558
1.346	1.40991
1.3465	-0.50354
1.347	3.32336
1.3475	0.60425
1.348	-3.52478
1.3485	0.80566
1.349	4.53186
1.3495	1.3092
1.35	-2.21558
1.3505	2.11487
1.351	2.21558
1.3515	5.84106
1.352	1.91345
1.3525	5.74036
1.353	2.41699
1.3535	4.02832
1.354	6.54602
1.3545	11.17859
1.355	3.22266
1.3555	5.33752
1.356	4.12903
1.3565	11.07788
1.357	7.04956
1.3575	2.92053
1.358	3.32336
1.3585	0.40283
1.359	-1.40991
1.3595	1.61133
1.36	4.02832
1.3605	0
1.361	5.0354
1.3615	4.53186
1.362	4.43115
1.3625	7.35168
1.363	5.84106
1.3635	6.74744
1.364	1.51062
1.3645	3.02124
1.365	5.84106
1.3655	8.96301
1.366	9.46655
1.3665	7.5531
1.367	6.04248
1.3675	9.16443
1.368	6.3446
1.3685	7.25098
1.369	8.25806
1.3695	7.35168
1.37	4.63257
1.3705	4.12903
1.371	11.58142
1.3715	5.63965
1.372	1.10779
1.3725	7.45239
1.373	13.69629
1.3735	3.8269
1.374	6.54602
1.3745	4.33044
1.375	8.66089
1.3755	8.25806
1.376	9.46655
1.3765	9.97009
1.377	8.56018
1.3775	11.98425
1.378	6.3446
1.3785	5.23682
1.379	4.83398
1.3795	8.66089
1.38	6.84814
1.3805	3.92761
1.381	6.2439
1.3815	4.53186
1.382	7.35168
1.3825	2.31628
1.383	4.83398
1.3835	3.22266
1.384	4.83398
1.3845	1.3092
1.385	-1.3092
1.3855	3.62549
1.386	-0.80566
1.3865	4.43115
1.387	-2.41699
1.3875	-0.80566
1.388	8.15735
1.3885	3.92761
1.389	7.45239
1.3895	1.3092
1.39	-1.61133
1.3905	-5.74036
1.391	-2.81982
1.3915	0.50354
1.392	1.40991
1.3925	3.12195
1.393	1.3092
1.3935	0.80566
1.394	-7.45239
1.3945	-4.63257
1.395	-2.92053
1.3955	-3.8269
1.396	1.2085
1.3965	-3.52478
1.397	-3.02124
1.3975	-2.41699
1.398	-3.92761
1.3985	-6.64673
1.399	-3.22266
1.3995	-3.32336
1.4	-6.04248
1.4005	-1.00708
1.401	-4.12903
1.4015	0.50354
1.402	-0.80566
1.4025	-0.90637
1.403	-0.30212
1.4035	-4.02832
1.404	2.11487
1.4045	0
1.405	3.32336
1.4055	4.02832
1.406	-1.61133
1.4065	1.00708
1.407	-4.33044
1.4075	2.01416
1.408	2.81982
1.4085	0.80566
1.409	5.23682
1.4095	3.92761
1.41	5.53894
1.4105	3.22266
1.411	7.75452
1.4115	9.86938
1.412	9.16443
1.4125	5.33752
1.413	3.42407
1.4135	7.04956
1.414	4.33044
1.4145	6.04248
1.415	3.02124
1.4155	4.73328
1.416	6.3446
1.4165	6.54602
1.417	8.8623
1.4175	6.54602
1.418	7.75452
1.4185	6.2439
1.419	6.64673
1.4195	15.40833
1.42	7.04956
1.4205	16.11328
1.421	14.60266
1.4215	6.14319
1.422	9.97009
1.4225	7.35168
1.423	8.45947
1.4235	7.75452
1.424	6.74744
1.4245	7.75452
1.425	6.2439
1.4255	6.3446
1.426	3.02124
1.4265	3.52478
1.427	6.14319
1.4275	8.66089
1.428	5.63965
1.4285	3.8269
1.429	2.92053
1.4295	4.43115
1.43	3.8269
1.4305	4.83398
1.431	2.92053
1.4315	4.93469
1.432	-1.3092
1.4325	0.20142
1.433	5.23682
1.4335	2.5177
1.434	6.84814
1.4345	4.53186
1.435	12.38708
1.4355	24.87488
1.436	25.88196
1.4365	33.23364
1.437	34.84497
1.4375	34.74426
1.438	38.67188
1.4385	39.17542
1.439	36.4563
1.4395	35.04639
1.44	28.70178
1.4405	18.73169
1.441	12.08496
1.4415	-1.81274
1.442	-3.22266
1.4425	-0.20142
1.443	-3.42407
1.4435	-10.47363
1.444	-11.38
1.4445	-18.22815
1.445	-27.29187
1.4455	-23.66638
1.446	-24.97559
1.4465	-24.16992
1.447	-22.15576
1.4475	-23.46497
1.448	-21.3501
1.4485	-16.11328
1.449	-11.07788
1.4495	-7.04956
1.45	-2.21558
1.4505	-1.3092
1.451	4.93469
1.4515	6.84814
1.452	2.81982
1.4525	2.71912
1.453	6.14319
1.4535	2.71912
1.454	4.63257
1.4545	4.43115
1.455	6.44531
1.4555	9.26514
1.456	11.58142
1.4565	4.02832
1.457	8.96301
1.4575	9.56726
1.458	5.63965
1.4585	8.7616
1.459	9.66797
1.4595	6.74744
1.46	4.83398
1.4605	9.97009
1.461	9.97009
1.4615	8.56018
1.462	5.53894
1.4625	6.04248
1.463	10.0708
1.4635	14.30054
1.464	10.67505
1.4645	12.08496
1.465	10.17151
1.4655	8.8623
1.466	12.78992
1.4665	12.28638
1.467	12.99133
1.4675	10.97717
1.468	7.95593
1.4685	13.09204
1.469	5.53894
1.4695	10.57434
1.47	2.5177
1.4705	6.84814
1.471	8.45947
1.4715	11.2793
1.472	4.12903
1.4725	3.92761
1.473	8.8623
1.4735	6.64673
1.474	10.37292
1.4745	9.26514
1.475	3.62549
1.4755	0.40283
1.476	6.74744
1.4765	9.16443
1.477	4.33044
1.4775	8.05664
1.478	6.3446
1.4785	5.23682
1.479	7.35168
1.4795	7.5531
1.48	10.57434
1.4805	5.13611
1.481	6.74744
1.4815	6.44531
1.482	8.56018
1.4825	10.87646
1.483	16.61682
1.4835	13.89771
1.484	13.69629
1.4845	9.56726
1.485	8.56018
1.4855	13.19275
1.486	8.45947
1.4865	11.38
1.487	7.35168
1.4875	4.53186
1.488	7.15027
1.4885	8.96301
1.489	9.16443
1.4895	7.35168
1.49	5.84106
1.4905	11.17859
1.491	6.3446
1.4915	5.84106
1.492	2.31628
1.4925	0.90637
1.493	7.15027
1.4935	8.56018
1.494	11.17859
1.4945	7.04956
1.495	5.63965
1.4955	9.97009
1.496	6.84814
1.4965	8.56018
1.497	9.86938
1.4975	6.44531
1.498	7.65381
1.4985	7.5531
1.499	9.86938
1.4995	9.76868
1.5	11.48071
1.5005	10.67505
1.501	12.08496
1.5015	12.28638
1.502	14.70337
1.5025	8.8623
1.503	5.23682
1.5035	4.02832
1.504	4.22974
1.5045	5.33752
1.505	13.797
1.5055	6.04248
1.506	10.47363
1.5065	7.04956
1.507	9.26514
1.5075	3.92761
1.508	9.16443
1.5085	5.0354
1.509	0
1.5095	5.84106
1.51	7.04956
1.5105	6.2439
1.511	3.52478
1.5115	10.27222
1.512	9.76868
1.5125	4.83398
1.513	-0.60425
1.5135	3.02124
1.514	3.62549
1.5145	3.52478
1.515	4.83398
1.5155	3.92761
1.516	1.00708
1.5165	1.3092
1.517	7.04956
1.5175	3.8269
1.518	9.76868
1.5185	4.22974
1.519	3.22266
1.5195	3.42407
1.52	8.15735
1.5205	7.35168
1.521	5.33752
1.5215	13.69629
1.522	10.87646
1.5225	14.40125
1.523	9.06372
1.5235	7.85522
1.524	9.97009
1.5245	4.93469
1.525	6.54602
1.5255	4.53186
1.526	6.94885
1.5265	5.23682
1.527	8.56018
1.5275	10.27222
1.528	11.07788
1.5285	7.65381
1.529	6.74744
1.5295	5.84106
1.53	5.0354
1.5305	7.5531
1.531	6.44531
1.5315	2.61841
1.532	4.43115
1.5325	2.11487
1.533	3.62549
1.5335	3.62549
1.534	4.73328
1.5345	3.12195
1.535	3.02124
1.5355	8.05664
1.536	4.73328
1.5365	-0.30212
1.537	4.73328
1.5375	1.00708
1.538	7.25098
1.5385	6.04248
1.539	7.5531
1.5395	4.73328
1.54	1.91345
1.5405	7.25098
1.541	4.73328
1.5415	1.61133
1.542	2.31628
1.5425	1.2085
1.543	4.73328
1.5435	4.63257
1.544	6.44531
1.5445	6.2439
1.545	5.74036
1.5455	-3.02124
1.546	0.80566
1.5465	6.2439
1.547	-0.80566
1.5475	7.65381
1.548	7.04956
1.5485	10.77576
1.549	1.61133
1.5495	7.65381
1.55	8.35876
1.5505	6.74744
1.551	1.2085
1.5515	4.12903
1.552	-1.40991
1.5525	-1.61133
1.553	1.10779
1.5535	-1.91345
1.554	7.35168
1.5545	11.2793
1.555	16.01257
1.5555	20.54443
1.556	24.27063
1.5565	27.89612
1.557	29.40674
1.5575	30.81665
1.558	34.84497
1.5585	24.97559
1.559	20.64514
1.5595	18.12744
1.56	16.71753
1.5605	2.11487
1.561	-3.8269
1.5615	-10.77576
1.562	-16.3147
1.5625	-21.24939
1.563	-23.56567
1.5635	-28.29895
1.564	-32.62939
1.5645	-31.21948
1.565	-33.43506
1.5655	-31.11877
1.566	-23.76709
1.5665	-20.84656
1.567	-12.99133
1.5675	-10.67505
1.568	-13.29346
1.5685	-6.94885
1.569	-1.10779
1.5695	0.10071
1.57	2.92053
1.5705	7.85522
1.571	6.3446
1.5715	4.53186
1.572	12.89062
1.5725	14.50195
1.573	6.2439
1.5735	16.71753
1.574	8.35876
1.5745	12.68921
1.575	14.50195
1.5755	9.06372
1.576	12.99133
1.5765	12.5885
1.577	13.69629
1.5775	13.29346
1.578	8.66089
1.5785	8.66089
1.579	7.45239
1.5795	6.84814
1.58	5.43823
1.5805	9.66797
1.581	6.64673
1.5815	4.73328
1.582	7.35168
1.5825	8.15735
1.583	6.04248
1.5835	8.25806
1.584	7.15027
1.5845	8.45947
1.585	9.06372
1.5855	9.86938
1.586	11.58142
1.5865	8.45947
1.587	6.14319
1.5875	8.56018
1.588	7.85522
1.5885	7.15027
1.589	9.76868
1.5895	14.60266
1.59	11.2793
1.5905	13.797
1.591	17.22107
1.5915	12.38708
1.592	10.37292
1.5925	10.47363
1.593	12.5885
1.5935	14.60266
1.594	10.67505
1.5945	8.66089
1.595	9.76868
1.5955	10.87646
1.596	10.57434
1.5965	8.25806
1.597	7.15027
1.5975	6.54602
1.598	5.0354
1.5985	0.40283
1.599	8.56018
1.5995	16.11328
1.6	22.15576
1.6005	20.1416
1.601	21.55151
1.6015	19.53735
1.602	14.70337
1.6025	12.38708
1.603	6.64673
1.6035	5.43823
1.604	-1.3092
1.6045	-1.2085
1.605	-5.74036
1.6055	-10.67505
1.606	-2.81982
1.6065	-1.3092
1.607	-1.40991
1.6075	3.62549
1.608	3.52478
1.6085	3.62549
1.609	2.11487
1.6095	9.26514
1.61	4.93469
1.6105	2.71912
1.611	5.13611
1.6115	6.84814
1.612	8.25806
1.6125	14.09912
1.613	9.46655
1.6135	6.2439
1.614	9.86938
1.6145	1.61133
1.615	6.14319
1.6155	7.15027
1.616	3.02124
1.6165	5.23682
1.617	2.71912
1.6175	9.46655
1.618	7.35168
1.6185	6.2439
1.619	8.05664
1.6195	2.21558
1.62	6.54602
1.6205	7.15027
1.621	2.71912
1.6215	6.84814
1.622	6.64673
1.6225	7.45239
1.623	9.97009
1.6235	9.26514
1.624	13.29346
1.6245	5.63965
1.625	9.36584
1.6255	5.63965
1.626	5.63965
1.6265	5.84106
1.627	6.44531
1.6275	10.0708
1.628	4.73328
1.6285	9.56726
1.629	10.17151
1.6295	6.94885
1.63	10.97717
1.6305	11.88354
1.631	8.25806
1.6315	3.8269
1.632	8.35876
1.6325	7.15027
1.633	5.53894
1.6335	5.33752
1.634	5.23682
1.6345	-0.80566
1.635	5.74036
1.6355	6.84814
1.636	3.62549
1.6365	1.3092
1.637	4.53186
1.6375	5.74036
1.638	6.54602
1.6385	7.85522
1.639	9.36584
1.6395	6.2439
1.64	4.63257
1.6405	4.93469
1.641	6.64673
1.6415	3.62549
1.642	2.21558
1.6425	-1.91345
1.643	-2.11487
1.6435	6.44531
1.644	6.54602
1.6445	2.21558
1.645	5.84106
1.6455	4.73328
1.646	3.02124
1.6465	1.00708
1.647	5.0354
1.6475	9.26514
1.648	5.84106
1.6485	6.64673
1.649	9.46655
1.6495	3.52478
1.65	9.86938
1.6505	8.45947
1.651	5.23682
1.6515	9.36584
1.652	6.04248
1.6525	2.81982
1.653	3.62549
1.6535	-0.30212
1.654	6.14319
1.6545	12.68921
1.655	6.2439
1.6555	7.65381
1.656	7.95593
1.6565	8.05664
1.657	6.84814
1.6575	3.92761
1.658	5.74036
1.6585	9.97009
1.659	4.73328
1.6595	1.51062
1.66	2.11487
1.6605	3.8269
1.661	4.93469
1.6615	1.10779
1.662	1.3092
1.6625	7.15027
1.663	7.65381
1.6635	3.12195
1.664	8.56018
1.6645	6.04248
1.665	1.51062
1.6655	3.92761
1.666	2.41699
1.6665	2.11487
1.667	-1.51062
1.6675	-2.61841
1.668	2.81982
1.6685	7.65381
1.669	2.11487
1.6695	-1.40991
1.67	2.41699
1.6705	6.84814
1.671	3.62549
1.6715	8.35876
1.672	0.60425
1.6725	-0.30212
1.673	0.70496
1.6735	9.56726
1.674	3.62549
1.6745	7.25098
1.675	6.74744
1.6755	10.47363
1.676	4.63257
1.6765	2.81982
1.677	7.45239
1.6775	4.02832
1.678	6.3446
1.6785	6.2439
1.679	7.45239
1.6795	7.65381
1.68	5.23682
1.6805	5.53894
1.681	6.54602
1.6815	4.73328
1.682	7.15027
1.6825	7.65381
1.683	6.14319
1.6835	6.3446
1.684	10.0708
1.6845	10.0708
1.685	6.74744
1.6855	12.48779
1.686	6.2439
1.6865	10.57434
1.687	7.65381
1.6875	8.56018
1.688	8.35876
1.6885	8.05664
1.689	3.8269
1.6895	8.15735
1.69	6.84814
1.6905	7.04956
1.691	10.37292
1.6915	11.17859
1.692	8.8623
1.6925	8.35876
1.693	6.04248
1.6935	4.43115
1.694	5.63965
1.6945	-1.40991
1.695	0
1.6955	8.25806
1.696	3.52478
1.6965	3.92761
1.697	4.63257
1.6975	8.45947
1.698	3.8269
1.6985	4.63257
1.699	8.56018
1.6995	6.54602
1.7	0.60425
1.7005	7.25098
1.701	5.63965
1.7015	4.22974
1.702	5.63965
1.7025	4.63257
1.703	4.43115
1.7035	7.65381
1.704	4.93469
1.7045	4.33044
1.705	8.56018
1.7055	4.33044
1.706	4.43115
1.7065	7.85522
1.707	7.35168
1.7075	8.8623
1.708	11.68213
1.7085	10.0708
1.709	3.52478
1.7095	5.74036
1.71	2.31628
1.7105	0
1.711	4.63257
1.7115	3.92761
1.712	3.02124
1.7125	7.85522
1.713	9.36584
1.7135	6.14319
1.714	3.12195
1.7145	8.66089
1.715	7.25098
1.7155	7.04956
1.716	0.70496
1.7165	3.02124
1.717	3.62549
1.7175	-1.3092
1.718	4.02832
1.7185	4.43115
1.719	6.04248
1.7195	11.58142
1.72	8.45947
1.7205	4.22974
1.721	7.15027
1.7215	2.21558
1.722	10.57434
1.7225	5.94177
1.723	8.66089
1.7235	3.32336
1.724	8.25806
1.7245	5.84106
1.725	1.10779
1.7255	3.42407
1.726	5.0354
1.7265	5.23682
1.727	0.90637
1.7275	2.01416
1.728	8.7616
1.7285	6.3446
1.729	6.54602
1.7295	2.71912
1.73	6.54602
1.7305	2.01416
1.731	6.84814
1.7315	5.74036
1.732	3.02124
1.7325	2.81982
1.733	3.52478
1.7335	2.71912
1.734	1.81274
1.7345	9.16443
1.735	8.66089
1.7355	1.91345
1.736	0.40283
1.7365	3.7262
1.737	1.61133
1.7375	1.71204
1.738	2.01416
1.7385	6.54602
1.739	4.12903
1.7395	7.04956
1.74	7.04956
1.7405	6.94885
1.741	9.46655
1.7415	8.45947
1.742	7.15027
1.7425	5.0354
1.743	6.44531
1.7435	5.0354
1.744	-0.20142
1.7445	4.43115
1.745	5.84106
1.7455	8.15735
1.746	5.33752
1.7465	8.05664
1.747	4.33044
1.7475	4.83398
1.748	8.8623
1.7485	6.04248
1.749	6.3446
1.7495	6.54602
1.75	5.0354
1.7505	6.54602
1.751	9.36584
1.7515	7.15027
1.752	7.35168
1.7525	12.38708
1.753	10.77576
1.7535	4.73328
1.754	5.43823
1.7545	1.10779
1.755	1.2085
1.7555	6.64673
1.756	9.06372
1.7565	4.63257
1.757	4.22974
1.7575	8.66089
1.758	6.94885
1.7585	10.47363
1.759	8.66089
1.7595	14.60266
1.76	12.28638
1.7605	11.48071
1.761	13.49487
1.7615	13.29346
1.762	7.65381
1.7625	9.16443
1.763	17.32178
1.7635	13.59558
1.764	8.25806
1.7645	11.68213
1.765	8.56018
1.7655	16.01257
1.766	6.54602
1.7665	9.26514
1.767	7.5531
1.7675	4.22974
1.768	3.22266
1.7685	3.7262
1.769	8.8623
1.7695	4.53186
1.77	4.63257
1.7705	11.58142
1.771	7.04956
1.7715	5.33752
1.772	9.06372
1.7725	7.35168
1.773	3.62549
1.7735	10.17151
1.774	15.60974
1.7745	10.67505
1.775	13.19275
1.7755	8.66089
1.776	5.33752
1.7765	7.95593
1.777	9.46655
1.7775	9.56726
1.778	10.87646
1.7785	13.29346
1.779	11.48071
1.7795	9.86938
1.78	13.09204
1.7805	7.95593
1.781	9.36584
1.7815	6.54602
1.782	7.75452
1.7825	1.3092
1.783	9.86938
1.7835	11.98425
1.784	8.45947
1.7845	4.73328
1.785	5.33752
1.7855	3.92761
1.786	5.13611
1.7865	1.51062
1.787	4.33044
1.7875	6.54602
1.788	4.22974
1.7885	2.5177
1.789	10.67505
1.7895	7.5531
1.79	6.2439
1.7905	7.95593
1.791	2.92053
1.7915	1.3092
1.792	2.71912
1.7925	4.12903
1.793	6.2439
1.7935	2.71912
1.794	5.53894
1.7945	9.36584
1.795	7.75452
1.7955	2.31628
1.796	8.15735
1.7965	7.85522
1.797	3.52478
1.7975	7.5531
1.798	12.28638
1.7985	7.25098
1.799	7.45239
1.7995	6.14319
1.8	6.94885
1.8005	3.62549
1.801	6.44531
1.8015	3.02124
1.802	6.3446
1.8025	6.94885
1.803	7.15027
1.8035	2.01416
1.804	4.02832
1.8045	2.81982
1.805	3.02124
1.8055	6.14319
1.806	-0.80566
1.8065	-4.33044
1.807	2.21558
1.8075	6.04248
1.808	0
1.8085	4.02832
1.809	-1.10779
1.8095	3.62549
1.81	1.00708
1.8105	-0.50354
1.811	2.21558
1.8115	0
1.812	0.30212
1.8125	-4.12903
1.813	1.71204
1.8135	4.22974
1.814	-0.60425
1.8145	0.70496
1.815	3.02124
1.8155	-1.51062
1.816	0.90637
1.8165	3.92761
1.817	4.43115
1.8175	1.51062
1.818	3.12195
1.8185	4.73328
1.819	3.12195
1.8195	-0.90637
1.82	4.73328
1.8205	0.10071
1.821	3.92761
1.8215	-3.52478
1.822	4.33044
1.8225	-0.20142
1.823	6.94885
1.8235	2.61841
1.824	5.23682
1.8245	3.8269
1.825	-4.33044
1.8255	4.93469
1.826	0.20142
1.8265	0.60425
1.827	-0.30212
1.8275	0.30212
1.828	0.30212
1.8285	5.13611
1.829	-0.50354
1.8295	7.75452
1.83	9.16443
1.8305	8.05664
1.831	11.58142
1.8315	8.8623
1.832	10.27222
1.8325	10.57434
1.833	8.05664
1.8335	8.35876
1.834	3.92761
1.8345	10.17151
1.835	12.08496
1.8355	11.38
1.836	11.78284
1.8365	12.48779
1.837	11.07788
1.8375	7.25098
1.838	7.35168
1.8385	9.16443
1.839	6.44531
1.8395	7.85522
1.84	5.0354
1.8405	3.22266
1.841	11.48071
1.8415	9.26514
1.842	7.04956
1.8425	11.07788
1.843	13.797
1.8435	12.5885
1.844	9.46655
1.8445	8.15735
1.845	6.44531
1.8455	3.8269
1.846	4.63257
1.8465	8.15735
1.847	13.59558
1.8475	11.98425
1.848	7.15027
1.8485	8.35876
1.849	9.46655
1.8495	8.45947
1.85	11.2793
1.8505	8.66089
1.851	8.05664
1.8515	5.53894
1.852	12.78992
1.8525	13.89771
1.853	11.48071
1.8535	13.29346
1.854	8.15735
1.8545	11.2793
1.855	14.19983
1.8555	13.29346
1.856	5.13611
1.8565	8.7616
1.857	8.15735
1.8575	17.01965
1.858	12.89062
1.8585	11.88354
1.859	11.2793
1.8595	10.77576
1.86	5.94177
1.8605	10.0708
1.861	6.44531
1.8615	6.64673
1.862	7.45239
1.8625	6.64673
1.863	4.02832
1.8635	11.88354
1.864	7.65381
1.8645	10.67505
1.865	7.95593
1.8655	6.54602
1.866	10.37292
1.8665	10.77576
1.867	2.81982
1.8675	-0.70496
1.868	6.54602
1.8685	9.76868
1.869	3.12195
1.8695	5.33752
1.87	6.64673
1.8705	5.74036
1.871	3.32336
1.8715	3.8269
1.872	6.04248
1.8725	3.12195
1.873	5.53894
1.8735	1.51062
1.874	1.3092
1.8745	8.45947
1.875	4.43115
1.8755	6.04248
1.876	6.44531
1.8765	8.15735
1.877	12.68921
1.8775	10.97717
1.878	10.77576
1.8785	5.74036
1.879	12.08496
1.8795	8.7616
1.88	8.66089
1.8805	7.15027
1.881	6.94885
1.8815	9.36584
1.882	8.25806
1.8825	10.17151
1.883	6.2439
1.8835	4.73328
1.884	5.94177
1.8845	3.62549
1.885	5.23682
1.8855	5.0354
1.886	8.45947
1.8865	11.07788
1.887	8.45947
1.8875	4.43115
1.888	7.85522
1.8885	7.95593
1.889	8.66089
1.8895	10.47363
1.89	11.98425
1.8905	9.56726
1.891	9.97009
1.8915	7.95593
1.892	7.95593
1.8925	6.04248
1.893	3.12195
1.8935	9.66797
1.894	10.97717
1.8945	14.30054
1.895	10.67505
1.8955	5.33752
1.896	1.81274
1.8965	1.3092
1.897	5.33752
1.8975	3.42407
1.898	5.23682
1.8985	1.00708
1.899	4.02832
1.8995	7.45239
1.9	2.92053
1.9005	10.77576
1.901	4.43115
1.9015	7.35168
1.902	3.7262
1.9025	6.74744
1.903	4.22974
1.9035	5.84106
1.904	5.23682
1.9045	9.76868
1.905	6.44531
1.9055	7.25098
1.906	6.14319
1.9065	7.5531
1.907	4.93469
1.9075	11.17859
1.908	6.84814
1.9085	5.53894
1.909	2.11487
1.9095	7.5531
1.91	5.0354
1.9105	8.05664
1.911	9.76868
1.9115	3.7262
1.912	4.02832
1.9125	0.40283
1.913	0.30212
1.9135	0
1.914	-1.81274
1.9145	2.5177
1.915	3.62549
1.9155	-1.81274
1.916	-1.2085
1.9165	-3.02124
1.917	0.30212
1.9175	3.12195
1.918	-1.2085
1.9185	2.61841
1.919	-3.12195
1.9195	-1.10779
1.92	-0.20142
1.9205	-5.43823
1.921	-2.61841
1.9215	-1.40991
1.922	-0.30212
1.9225	2.01416
1.923	6.84814
1.9235	-0.10071
1.924	2.5177
1.9245	8.25806
1.925	4.33044
1.9255	2.5177
1.926	4.53186
1.9265	8.66089
1.927	1.91345
1.9275	4.12903
1.928	4.22974
1.9285	5.23682
1.929	9.16443
1.9295	9.86938
1.93	7.35168
1.9305	8.8623
1.931	5.23682
1.9315	4.93469
1.932	7.85522
1.9325	3.62549
1.933	7.75452
1.9335	7.65381
1.934	3.8269
1.9345	2.21558
1.935	7.95593
1.9355	7.35168
1.936	11.58142
1.9365	5.13611
1.937	7.25098
1.9375	10.87646
1.938	3.7262
1.9385	3.62549
1.939	-1.00708
1.9395	5.33752
1.94	2.71912
1.9405	8.25806
1.941	8.15735
1.9415	4.33044
1.942	9.36584
1.9425	9.06372
1.943	10.27222
1.9435	4.22974
1.944	9.46655
1.9445	6.74744
1.945	3.7262
1.9455	6.94885
1.946	10.37292
1.9465	12.78992
1.947	13.39417
1.9475	11.88354
1.948	11.17859
1.9485	7.45239
1.949	13.797
1.9495	13.19275
1.95	15.30762
1.9505	10.47363
1.951	11.38
1.9515	10.57434
1.952	15.30762
1.9525	16.3147
1.953	15.00549
1.9535	10.17151
1.954	17.22107
1.9545	16.01257
1.955	13.59558
1.9555	9.97009
1.956	14.30054
1.9565	20.24231
1.957	14.09912
1.9575	15.40833
1.958	10.97717
1.9585	14.60266
1.959	14.50195
1.9595	16.71753
1.96	17.12036
1.9605	14.80408
1.961	13.19275
1.9615	14.90479
1.962	18.22815
1.9625	15.00549
1.963	15.40833
1.9635	9.46655
1.964	13.797
1.9645	10.67505
1.965	11.78284
1.9655	13.39417
1.966	10.37292
1.9665	14.09912
1.967	7.85522
1.9675	3.22266
1.968	5.43823
1.9685	3.22266
1.969	7.04956
1.9695	9.46655
1.97	8.66089
1.9705	8.05664
1.971	8.56018
1.9715	6.84814
1.972	3.52478
1.9725	3.12195
1.973	0.50354
1.9735	-3.02124
1.974	4.43115
1.9745	3.92761
1.975	6.54602
1.9755	-1.91345
1.976	-3.52478
1.9765	-5.74036
1.977	-1.40991
1.9775	0.50354
1.978	2.5177
1.9785	2.41699
1.979	-1.81274
1.9795	-5.74036
1.98	-1.91345
1.9805	0.90637
1.981	-2.81982
1.9815	-0.50354
1.982	-0.70496
1.9825	1.51062
1.983	1.00708
1.9835	1.00708
1.984	-5.0354
1.9845	-3.02124
1.985	-2.71912
1.9855	1.71204
1.986	1.61133
1.9865	1.51062
1.987	2.31628
1.9875	-4.12903
1.988	-5.53894
1.9885	-7.85522
1.989	-3.42407
1.9895	-7.15027
1.99	-2.92053
1.9905	-1.81274
1.991	-5.13611
1.9915	-3.52478
1.992	-9.56726
1.9925	-8.15735
1.993	-1.71204
1.9935	-1.40991
1.994	0.50354
1.9945	-2.71912
1.995	-0.90637
1.9955	-1.51062
1.996	1.2085
1.9965	4.93469
1.997	1.2085
1.9975	1.3092
1.998	5.33752
1.9985	2.41699
1.999	3.02124
1.9995	5.63965
2	5.33752
2.0005	6.04248
2.001	4.02832
2.0015	2.81982
2.002	9.56726
2.0025	10.0708
2.003	7.95593
2.0035	4.02832
2.004	2.31628
2.0045	3.8269
2.005	6.94885
2.0055	10.47363
2.006	9.86938
2.0065	10.67505
2.007	13.797
2.0075	12.48779
2.008	11.48071
2.0085	6.04248
2.009	7.25098
2.0095	6.94885
2.01	7.5531
2.0105	0.40283
2.011	4.22974
2.0115	2.61841
2.012	2.92053
2.0125	9.66797
2.013	-1.10779
2.0135	6.64673
2.014	2.01416
2.0145	5.23682
2.015	5.43823
2.0155	6.64673
2.016	5.0354
2.0165	7.5531
2.017	10.0708
2.0175	3.62549
2.018	6.64673
2.0185	10.47363
2.019	7.35168
2.0195	6.64673
2.02	1.3092
2.0205	3.12195
2.021	0.50354
2.0215	-2.81982
2.022	1.71204
2.0225	8.45947
2.023	8.15735
2.0235	11.78284
2.024	10.0708
2.0245	5.23682
2.025	7.35168
2.0255	8.8623
2.026	12.68921
2.0265	13.39417
2.027	8.35876
2.0275	5.0354
2.028	8.8623
2.0285	9.66797
2.029	5.74036
2.0295	10.47363
2.03	10.0708
2.0305	9.26514
2.031	9.86938
2.0315	2.11487
2.032	7.15027
2.0325	10.77576
2.033	7.95593
2.0335	4.12903
2.034	3.62549
2.0345	3.22266
2.035	6.44531
2.0355	9.36584
2.036	7.85522
2.0365	12.68921
2.037	17.72461
2.0375	21.45081
2.038	22.25647
2.0385	27.29187
2.039	27.19116
2.0395	28.50037
2.04	33.73718
2.0405	40.78674
2.041	37.16125
2.0415	36.75842
2.042	25.47913
2.0425	25.88196
2.043	15.60974
2.0435	8.66089
2.044	1.3092
2.0445	-0.10071
2.045	-3.62549
2.0455	-7.65381
2.046	-10.77576
2.0465	-14.40125
2.047	-19.73877
2.0475	-22.55859
2.048	-18.8324
2.0485	-21.24939
2.049	-17.22107
2.0495	-13.99841
2.05	2.41699
2.0505	17.12036
2.051	25.78125
2.0515	20.24231
2.052	21.14868
2.0525	15.30762
2.053	14.19983
2.0535	9.06372
2.054	8.15735
2.0545	-0.60425
2.055	-0.50354
2.0555	-0.70496
2.056	0.20142
2.0565	-0.60425
2.057	4.33044
2.0575	5.63965
2.058	10.17151
2.0585	8.7616
2.059	12.18567
2.0595	9.66797
2.06	13.797
2.0605	15.40833
2.061	16.41541
2.0615	16.11328
2.062	15.50903
2.0625	14.19983
2.063	18.8324
2.0635	17.42249
2.064	16.11328
2.0645	11.88354
2.065	18.02673
2.0655	20.34302
2.066	13.89771
2.0665	13.99841
2.067	15.1062
2.0675	18.22815
2.068	15.81116
2.0685	15.30762
2.069	15.20691
2.0695	13.49487
2.07	13.29346
2.0705	8.56018
2.071	6.14319
2.0715	9.16443
2.072	9.46655
2.0725	12.38708
2.073	9.97009
2.0735	22.15576
2.074	22.25647
2.0745	26.48621
2.075	30.41382
2.0755	37.7655
2.076	37.66479
2.0765	37.36267
2.077	37.16125
2.0775	37.16125
2.078	39.88037
2.0785	35.95276
2.079	24.06921
2.0795	23.46497
2.08	19.03381
2.0805	14.50195
2.081	7.95593
2.0815	-2.81982
2.082	-4.63257
2.0825	-12.38708
2.083	-12.18567
2.0835	-19.73877
2.084	-29.91028
2.0845	-25.57983
2.085	-26.48621
2.0855	-24.57275
2.086	-22.25647
2.0865	-16.71753
2.087	-16.21399
2.0875	-10.77576
2.088	-7.75452
2.0885	-5.84106
2.089	-4.33044
2.0895	-2.41699
2.09	-1.91345
2.0905	-0.90637
2.091	1.51062
2.0915	-0.40283
2.092	-1.2085
2.0925	3.12195
2.093	5.53894
2.0935	6.84814
2.094	1.51062
2.0945	2.71912
2.095	9.06372
2.0955	8.25806
2.096	9.56726
2.0965	6.3446
2.097	6.54602
2.0975	7.85522
2.098	3.12195
2.0985	3.62549
2.099	0.80566
2.0995	6.14319
2.1	5.53894
2.1005	2.71912
2.101	7.85522
2.1015	6.74744
2.102	5.33752
2.1025	0.30212
2.103	2.21558
2.1035	3.7262
2.104	4.12903
2.1045	0.80566
2.105	2.5177
2.1055	9.76868
2.106	10.97717
2.1065	6.2439
2.107	6.94885
2.1075	6.44531
2.108	6.2439
2.1085	-5.74036
2.109	0.50354
2.1095	-5.63965
2.11	2.11487
2.1105	4.53186
2.111	5.84106
2.1115	3.42407
2.112	3.12195
2.1125	-1.81274
2.113	1.71204
2.1135	4.12903
2.114	3.62549
2.1145	-0.60425
2.115	2.5177
2.1155	-1.2085
2.116	-0.80566
2.1165	-2.61841
2.117	6.14319
2.1175	2.71912
2.118	7.04956
2.1185	1.81274
2.119	4.93469
2.1195	7.95593
2.12	3.8269
2.1205	2.61841
2.121	2.11487
2.1215	1.10779
2.122	2.71912
2.1225	5.13611
2.123	4.93469
2.1235	4.43115
2.124	0.20142
2.1245	3.7262
2.125	-0.70496
2.1255	2.92053
2.126	3.12195
2.1265	7.85522
2.127	3.22266
2.1275	3.22266
2.128	9.46655
2.1285	7.04956
2.129	3.02124
2.1295	12.28638
2.13	5.33752
2.1305	6.2439
2.131	7.25098
2.1315	0.50354
2.132	11.38
2.1325	8.05664
2.133	4.12903
2.1335	8.7616
2.134	7.04956
2.1345	1.61133
2.135	7.15027
2.1355	-2.21558
2.136	0.70496
2.1365	-1.10779
2.137	2.31628
2.1375	1.81274
2.138	9.16443
2.1385	5.33752
2.139	5.53894
2.1395	4.93469
2.14	3.62549
2.1405	6.14319
2.141	1.10779
2.1415	-0.60425
2.142	-3.32336
2.1425	1.71204
2.143	2.92053
2.1435	1.61133
2.144	3.42407
2.1445	4.73328
2.145	9.97009
2.1455	11.48071
2.146	11.58142
2.1465	10.0708
2.147	5.43823
2.1475	4.43115
2.148	1.81274
2.1485	4.02832
2.149	1.51062
2.1495	-2.71912
2.15	2.41699
2.1505	3.7262
2.151	-0.70496
2.1515	3.22266
2.152	6.04248
2.1525	1.51062
2.153	4.02832
2.1535	5.0354
2.154	2.31628
2.1545	9.16443
2.155	9.46655
2.1555	5.0354
2.156	8.7616
2.1565	10.27222
2.157	5.33752
2.1575	7.85522
2.158	6.74744
2.1585	6.64673
2.159	4.73328
2.1595	7.75452
2.16	10.67505
2.1605	4.83398
2.161	7.85522
2.1615	2.61841
2.162	7.04956
2.1625	1.40991
2.163	2.5177
2.1635	2.92053
2.164	0.70496
2.1645	2.31628
2.165	2.11487
2.1655	8.56018
2.166	13.99841
2.1665	17.42249
2.167	21.85364
2.1675	17.82532
2.168	27.89612
2.1685	23.36426
2.169	28.50037
2.1695	38.06763
2.17	43.60657
2.1705	48.44055
2.171	55.08728
2.1715	43.70728
2.172	32.32727
2.1725	19.23523
2.173	8.15735
2.1735	-5.43823
2.174	-12.18567
2.1745	-18.63098
2.175	-32.02515
2.1755	-37.26196
2.176	-43.70728
2.1765	-48.13843
2.177	-44.21082
2.1775	-34.54285
2.178	-32.83081
2.1785	-25.68054
2.179	-20.34302
2.1795	-18.93311
2.18	-16.3147
2.1805	-9.97009
2.181	-5.33752
2.1815	-3.92761
2.182	-2.61841
2.1825	3.52478
2.183	6.2439
2.1835	6.84814
2.184	12.38708
2.1845	13.29346
2.185	9.56726
2.1855	10.27222
2.186	9.56726
2.1865	19.73877
2.187	22.05505
2.1875	22.15576
2.188	17.01965
2.1885	16.61682
2.189	12.5885
2.1895	10.17151
2.19	7.95593
2.1905	1.71204
2.191	-1.81274
2.1915	-3.22266
2.192	-0.50354
2.1925	3.22266
2.193	-3.02124
2.1935	-1.40991
2.194	-1.40991
2.1945	-1.10779
2.195	1.10779
2.1955	-1.00708
2.196	-1.2085
2.1965	-3.12195
2.197	-3.12195
2.1975	1.2085
2.198	-8.15735
2.1985	-2.31628
2.199	-4.12903
2.1995	-0.80566
2.2	-1.10779
2.2005	4.63257
2.201	-2.61841
2.2015	1.61133
2.202	-1.40991
2.2025	-0.70496
2.203	-1.40991
2.2035	-2.41699
2.204	-0.70496
2.2045	-1.10779
2.205	0.90637
2.2055	2.01416
2.206	2.11487
2.2065	2.61841
2.207	0.10071
2.2075	-0.50354
2.208	0.70496
2.2085	-5.0354
2.209	1.71204
2.2095	2.61841
2.21	1.3092
2.2105	1.10779
2.211	2.81982
2.2115	0
2.212	0.80566
2.2125	2.41699
2.213	-1.10779
2.2135	-0.60425
2.214	2.5177
2.2145	1.2085
2.215	-2.61841
2.2155	1.2085
2.216	0.90637
2.2165	4.33044
2.217	-1.00708
2.2175	3.8269
2.218	4.73328
2.2185	7.25098
2.219	6.14319
2.2195	6.2439
2.22	0.10071
2.2205	5.43823
2.221	4.02832
2.2215	1.3092
2.222	7.15027
2.2225	4.73328
2.223	3.42407
2.2235	3.92761
2.224	-1.10779
2.2245	3.22266
2.225	-0.90637
2.2255	3.52478
2.226	7.75452
2.2265	4.63257
2.227	3.7262
2.2275	4.83398
2.228	2.21558
2.2285	3.8269
2.229	7.25098
2.2295	4.33044
2.23	1.3092
2.2305	5.33752
2.231	5.43823
2.2315	4.73328
2.232	5.33752
2.2325	3.42407
2.233	0
2.2335	-1.3092
2.234	1.91345
2.2345	-0.90637
2.235	4.12903
2.2355	1.61133
2.236	-3.32336
2.2365	2.11487
2.237	2.81982
2.2375	6.3446
2.238	10.17151
2.2385	13.89771
2.239	12.38708
2.2395	9.97009
2.24	4.73328
2.2405	4.43115
2.241	5.0354
2.2415	5.84106
2.242	4.73328
2.2425	5.23682
2.243	7.15027
2.2435	6.14319
2.244	8.15735
2.2445	6.84814
2.245	0.50354
2.2455	6.04248
2.246	3.42407
2.2465	2.11487
2.247	2.81982
2.2475	-1.2085
2.248	-0.10071
2.2485	2.01416
2.249	5.53894
2.2495	2.71912
2.25	5.53894
2.2505	7.04956
2.251	9.26514
2.2515	7.04956
2.252	5.0354
2.2525	5.94177
2.253	10.77576
2.2535	11.68213
2.254	14.19983
2.2545	12.18567
2.255	9.06372
2.2555	10.97717
2.256	2.41699
2.2565	1.61133
2.257	9.06372
2.2575	1.51062
2.258	-1.51062
2.2585	5.84106
2.259	3.7262
2.2595	4.53186
2.26	6.84814
2.2605	5.43823
2.261	3.32336
2.2615	0.40283
2.262	-2.71912
2.2625	-3.22266
2.263	0.40283
2.2635	-0.80566
2.264	-3.32336
2.2645	0.20142
2.265	-1.91345
2.2655	-2.71912
2.266	3.92761
2.2665	-4.93469
2.267	2.21558
2.2675	-4.33044
2.268	3.42407
2.2685	3.22266
2.269	1.00708
2.2695	-1.2085
2.27	-1.81274
2.2705	3.8269
2.271	1.2085
2.2715	1.91345
2.272	-3.52478
2.2725	-1.2085
2.273	-3.02124
2.2735	-2.71912
2.274	-0.30212
2.2745	-0.90637
2.275	-1.10779
2.2755	-0.50354
2.276	2.71912
2.2765	4.83398
2.277	4.22974
2.2775	-4.43115
2.278	1.2085
2.2785	-1.2085
2.279	-3.12195
2.2795	-1.71204
2.28	5.53894
2.2805	2.41699
2.281	3.92761
2.2815	0.50354
2.282	3.62549
2.2825	9.46655
2.283	7.25098
2.2835	6.14319
2.284	3.42407
2.2845	0.10071
2.285	6.04248
2.2855	-0.70496
2.286	-1.2085
2.2865	4.12903
2.287	1.91345
2.2875	3.02124
2.288	3.7262
2.2885	4.22974
2.289	3.42407
2.2895	2.61841
2.29	6.2439
2.2905	4.53186
2.291	4.83398
2.2915	5.43823
2.292	7.85522
2.2925	10.37292
2.293	8.7616
2.2935	9.36584
2.294	8.7616
2.2945	7.45239
2.295	7.35168
2.2955	8.96301
2.296	10.67505
2.2965	10.47363
2.297	8.66089
2.2975	7.65381
2.298	3.12195
2.2985	3.22266
2.299	2.21558
2.2995	-2.01416
2.3	3.12195
2.3005	-1.61133
2.301	0.70496
2.3015	4.93469
2.302	5.63965
2.3025	10.0708
2.303	4.63257
2.3035	4.43115
2.304	5.23682
2.3045	4.43115
2.305	5.43823
2.3055	-0.30212
2.306	-0.60425
2.3065	-1.00708
2.307	3.92761
2.3075	0.80566
2.308	4.63257
2.3085	1.81274
2.309	3.02124
2.3095	1.3092
2.31	1.81274
2.3105	3.32336
2.311	3.92761
2.3115	0.60425
2.312	0.30212
2.3125	0.80566
2.313	4.83398
2.3135	3.12195
2.314	5.63965
2.3145	1.61133
2.315	4.83398
2.3155	4.83398
2.316	6.44531
2.3165	0.40283
2.317	3.32336
2.3175	5.84106
2.318	3.12195
2.3185	10.67505
2.319	5.13611
2.3195	3.02124
2.32	-0.10071
2.3205	-1.71204
2.321	1.81274
2.3215	0.80566
2.322	2.11487
2.3225	1.81274
2.323	3.8269
2.3235	4.02832
2.324	1.40991
2.3245	2.41699
2.325	-2.11487
2.3255	0.50354
2.326	3.22266
2.3265	-0.70496
2.327	0.80566
2.3275	2.01416
2.328	1.71204
2.3285	4.12903
2.329	9.46655
2.3295	8.7616
2.33	10.67505
2.3305	11.68213
2.331	11.98425
2.3315	14.60266
2.332	13.49487
2.3325	8.35876
2.333	9.06372
2.3335	7.85522
2.334	2.92053
2.3345	3.92761
2.335	6.04248
2.3355	6.54602
2.336	10.0708
2.3365	7.04956
2.337	6.44531
2.3375	6.74744
2.338	7.65381
2.3385	5.43823
2.339	6.84814
2.3395	5.53894
2.34	6.3446
2.3405	10.77576
2.341	5.0354
2.3415	1.91345
2.342	0.50354
2.3425	3.62549
2.343	-0.70496
2.3435	-0.80566
2.344	1.10779
2.3445	-2.5177
2.345	6.04248
2.3455	2.92053
2.346	5.33752
2.3465	6.94885
2.347	2.92053
2.3475	4.83398
2.348	4.33044
2.3485	9.86938
2.349	4.02832
2.3495	5.94177
2.35	1.51062
2.3505	1.10779
2.351	2.71912
2.3515	1.10779
2.352	3.52478
2.3525	2.61841
2.353	1.3092
2.3535	5.74036
2.354	3.42407
2.3545	-0.80566
2.355	-0.60425
2.3555	-1.10779
2.356	-0.70496
2.3565	4.02832
2.357	4.22974
2.3575	4.02832
2.358	4.63257
2.3585	2.21558
2.359	4.83398
2.3595	2.61841
2.36	-3.92761
2.3605	-1.71204
2.361	1.40991
2.3615	1.91345
2.362	4.33044
2.3625	8.7616
2.363	-2.31628
2.3635	2.71912
2.364	4.12903
2.3645	0.70496
2.365	3.62549
2.3655	5.53894
2.366	3.32336
2.3665	1.2085
2.367	3.52478
2.3675	4.63257
2.368	3.42407
2.3685	1.81274
2.369	-0.30212
2.3695	2.61841
2.37	0.60425
2.3705	4.02832
2.371	2.81982
2.3715	1.81274
2.372	6.54602
2.3725	3.8269
2.373	0.90637
2.3735	3.22266
2.374	5.0354
2.3745	0.50354
2.375	-1.71204
2.3755	2.01416
2.376	3.92761
2.3765	9.06372
2.377	8.56018
2.3775	6.3446
2.378	-0.30212
2.3785	8.96301
2.379	4.02832
2.3795	-0.40283
2.38	3.92761
2.3805	5.23682
2.381	2.11487
2.3815	0.90637
2.382	2.71912
2.3825	1.10779
2.383	-0.30212
2.3835	-2.11487
2.384	-3.7262
2.3845	-1.00708
2.385	5.74036
2.3855	-2.41699
2.386	2.81982
2.3865	1.51062
2.387	0.20142
2.3875	0.90637
2.388	3.62549
2.3885	6.74744
2.389	4.73328
2.3895	3.02124
2.39	1.71204
2.3905	2.71912
2.391	4.02832
2.3915	2.5177
2.392	9.56726
2.3925	4.83398
2.393	8.8623
2.3935	4.53186
2.394	2.11487
2.3945	1.61133
2.395	1.3092
2.3955	4.12903
2.396	2.71912
2.3965	7.75452
2.397	9.36584
2.3975	10.47363
2.398	9.56726
2.3985	8.66089
2.399	9.36584
2.3995	9.16443
2.4	4.43115
2.4005	8.25806
2.401	9.06372
2.4015	3.42407
2.402	7.5531
2.4025	4.93469
2.403	3.92761
2.4035	5.13611
2.404	10.57434
2.4045	8.96301
2.405	20.1416
2.4055	14.80408
2.406	9.86938
2.4065	5.33752
2.407	7.25098
2.4075	6.44531
2.408	3.92761
2.4085	3.42407
2.409	1.91345
2.4095	5.0354
2.41	9.26514
2.4105	11.2793
2.411	6.04248
2.4115	8.25806
2.412	5.23682
2.4125	6.3446
2.413	4.53186
2.4135	7.04956
2.414	5.33752
2.4145	8.56018
2.415	9.86938
2.4155	2.92053
2.416	6.3446
2.4165	5.13611
2.417	7.5531
2.4175	4.53186
2.418	4.73328
2.4185	4.22974
2.419	10.17151
2.4195	8.56018
2.42	7.15027
2.4205	10.17151
2.421	5.84106
2.4215	9.56726
2.422	10.0708
2.4225	1.91345
2.423	5.94177
2.4235	9.86938
2.424	7.75452
2.4245	9.66797
2.425	13.39417
2.4255	9.36584
2.426	10.67505
2.4265	11.38
2.427	9.56726
2.4275	5.13611
2.428	5.94177
2.4285	9.97009
2.429	3.52478
2.4295	4.22974
2.43	1.81274
2.4305	12.18567
2.431	5.23682
2.4315	-1.10779
2.432	5.94177
2.4325	0.50354
2.433	3.62549
2.4335	1.81274
2.434	7.5531
2.4345	1.40991
2.435	2.41699
2.4355	0.50354
2.436	4.43115
2.4365	7.45239
2.437	6.04248
2.4375	8.45947
2.438	8.56018
2.4385	4.22974
2.439	4.33044
2.4395	1.40991
2.44	2.11487
2.4405	4.22974
2.441	7.5531
2.4415	4.63257
2.442	5.0354
2.4425	3.8269
2.443	7.04956
2.4435	0.50354
2.444	7.35168
2.4445	6.54602
2.445	8.15735
2.4455	4.93469
2.446	4.12903
2.4465	6.74744
2.447	5.94177
2.4475	7.15027
2.448	4.63257
2.4485	4.22974
2.449	4.93469
2.4495	7.25098
2.45	5.53894
2.4505	2.81982
2.451	2.81982
2.4515	2.5177
2.452	2.01416
2.4525	2.5177
2.453	4.02832
2.4535	11.17859
2.454	8.56018
2.4545	7.95593
2.455	10.97717
2.4555	9.76868
2.456	7.04956
2.4565	7.95593
2.457	3.52478
2.4575	7.04956
2.458	2.31628
2.4585	7.75452
2.459	3.62549
2.4595	2.41699
2.46	-0.10071
2.4605	1.3092
2.461	5.84106
2.4615	4.33044
2.462	3.62549
2.4625	6.74744
2.463	5.84106
2.4635	5.63965
2.464	3.62549
2.4645	1.2085
2.465	4.12903
2.4655	5.63965
2.466	10.37292
2.4665	1.81274
2.467	4.83398
2.4675	5.84106
2.468	3.02124
2.4685	2.71912
2.469	2.92053
2.4695	4.02832
2.47	-0.80566
2.4705	9.56726
2.471	6.64673
2.4715	6.64673
2.472	5.53894
2.4725	4.63257
2.473	7.75452
2.4735	6.64673
2.474	6.94885
2.4745	5.63965
2.475	3.32336
2.4755	9.06372
2.476	2.21558
2.4765	7.65381
2.477	3.52478
2.4775	0.10071
2.478	4.83398
2.4785	2.11487
2.479	3.42407
2.4795	-1.00708
2.48	3.42407
2.4805	8.15735
2.481	3.62549
2.4815	1.91345
2.482	3.52478
2.4825	4.93469
2.483	2.01416
2.4835	5.74036
2.484	1.51062
2.4845	7.25098
2.485	3.92761
2.4855	7.15027
2.486	4.02832
2.4865	-0.10071
2.487	3.12195
2.4875	2.81982
2.488	3.8269
2.4885	8.66089
2.489	3.8269
2.4895	7.95593
2.49	7.04956
2.4905	7.25098
2.491	7.25098
2.4915	7.04956
2.492	0
2.4925	4.63257
2.493	2.71912
2.4935	2.71912
2.494	0.60425
2.4945	4.22974
2.495	2.5177
2.4955	0.20142
2.496	5.23682
2.4965	1.61133
2.497	1.71204
2.4975	-2.81982
2.498	1.00708
2.4985	2.92053
2.499	12.48779
2.4995	9.46655
2.5	3.12195
2.5005	11.58142
2.501	7.04956
2.5015	7.75452
2.502	10.97717
2.5025	10.87646
2.503	10.77576
2.5035	3.92761
2.504	8.35876
2.5045	10.37292
2.505	7.04956
2.5055	10.57434
2.506	9.76868
2.5065	9.06372
2.507	7.15027
2.5075	12.28638
2.508	11.58142
2.5085	10.67505
2.509	7.85522
2.5095	10.0708
2.51	7.85522
2.5105	12.08496
2.511	9.66797
2.5115	13.49487
2.512	16.21399
2.5125	11.58142
2.513	9.46655
2.5135	9.06372
2.514	11.98425
2.5145	8.7616
2.515	10.37292
2.5155	13.59558
2.516	7.25098
2.5165	6.84814
2.517	3.32336
2.5175	8.25806
2.518	5.43823
2.5185	7.75452
2.519	3.8269
2.5195	11.07788
2.52	11.2793
2.5205	4.33044
2.521	7.35168
2.5215	2.81982
2.522	4.83398
2.5225	7.35168
2.523	4.12903
2.5235	4.93469
2.524	5.43823
2.5245	7.15027
2.525	6.04248
2.5255	5.74036
2.526	9.76868
2.5265	5.63965
2.527	5.63965
2.5275	9.36584
2.528	3.42407
2.5285	4.12903
2.529	4.53186
2.5295	-0.10071
2.53	4.22974
2.5305	8.45947
2.531	9.06372
2.5315	6.84814
2.532	10.37292
2.5325	3.62549
2.533	4.12903
2.5335	0.70496
2.534	4.12903
2.5345	1.91345
2.535	3.42407
2.5355	6.04248
2.536	3.62549
2.5365	9.06372
2.537	7.15027
2.5375	6.94885
2.538	5.94177
2.5385	9.66797
2.539	9.26514
2.5395	8.35876
2.54	12.5885
2.5405	10.57434
2.541	8.7616
2.5415	6.74744
2.542	4.93469
2.5425	8.7616
2.543	5.84106
2.5435	5.63965
2.544	9.97009
2.5445	6.84814
2.545	8.45947
2.5455	8.7616
2.546	4.22974
2.5465	2.81982
2.547	10.77576
2.5475	4.43115
2.548	8.45947
2.5485	7.65381
2.549	12.99133
2.5495	9.97009
2.55	5.63965
2.5505	8.15735
2.551	6.74744
2.5515	11.07788
2.552	12.08496
2.5525	10.87646
2.553	7.75452
2.5535	5.84106
2.554	3.22266
2.5545	2.21558
2.555	3.02124
2.5555	-1.00708
2.556	4.83398
2.5565	8.35876
2.557	10.17151
2.5575	6.84814
2.558	5.43823
2.5585	7.75452
2.559	8.05664
2.5595	8.35876
2.56	4.02832
2.5605	6.54602
2.561	3.7262
2.5615	4.12903
2.562	6.44531
2.5625	13.797
2.563	10.27222
2.5635	13.39417
2.564	11.88354
2.5645	10.97717
2.565	13.29346
2.5655	14.30054
2.566	5.63965
2.5665	10.97717
2.567	5.23682
2.5675	12.28638
2.568	5.43823
2.5685	7.75452
2.569	7.65381
2.5695	4.33044
2.57	3.92761
2.5705	8.7616
2.571	11.2793
2.5715	10.67505
2.572	9.36584
2.5725	12.18567
2.573	11.48071
2.5735	14.60266
2.574	13.39417
2.5745	9.76868
2.575	8.35876
2.5755	4.73328
2.576	7.85522
2.5765	9.26514
2.577	9.97009
2.5775	12.5885
2.578	10.57434
2.5785	12.78992
2.579	10.27222
2.5795	9.97009
2.58	13.29346
2.5805	11.78284
2.581	7.15027
2.5815	6.2439
2.582	7.25098
2.5825	10.0708
2.583	13.29346
2.5835	7.85522
2.584	12.48779
2.5845	14.19983
2.585	11.38
2.5855	6.74744
2.586	9.86938
2.5865	8.56018
2.587	8.56018
2.5875	9.26514
2.588	12.18567
2.5885	12.38708
2.589	13.797
2.5895	15.00549
2.59	12.99133
2.5905	7.95593
2.591	12.08496
2.5915	12.18567
2.592	9.97009
2.5925	13.19275
2.593	11.98425
2.5935	9.26514
2.594	8.35876
2.5945	6.84814
2.595	5.33752
2.5955	4.93469
2.596	1.61133
2.5965	6.64673
2.597	3.22266
2.5975	1.91345
2.598	8.05664
2.5985	8.35876
2.599	5.53894
2.5995	8.35876
2.6	9.66797
2.6005	6.44531
2.601	6.74744
2.6015	10.47363
2.602	11.38
2.6025	6.54602
2.603	9.97009
2.6035	11.38
2.604	12.38708
2.6045	9.97009
2.605	3.02124
2.6055	6.84814
2.606	9.36584
2.6065	6.44531
2.607	9.97009
2.6075	5.94177
2.608	7.45239
2.6085	4.83398
2.609	7.65381
2.6095	10.27222
2.61	14.60266
2.6105	5.33752
2.611	8.35876
2.6115	6.64673
2.612	-0.30212
2.6125	0.30212
2.613	3.12195
2.6135	0.90637
2.614	4.63257
2.6145	4.22974
2.615	2.31628
2.6155	5.53894
2.616	-1.3092
2.6165	0.20142
2.617	-1.61133
2.6175	-1.71204
2.618	-1.81274
2.6185	-0.60425
2.619	4.83398
2.6195	9.86938
2.62	3.42407
2.6205	7.85522
2.621	4.12903
2.6215	3.22266
2.622	5.43823
2.6225	8.56018
2.623	4.33044
2.6235	9.56726
2.624	11.07788
2.6245	10.47363
2.625	10.77576
2.6255	10.77576
2.626	13.19275
2.6265	10.27222
2.627	7.15027
2.6275	5.53894
2.628	11.78284
2.6285	9.36584
2.629	8.8623
2.6295	9.86938
2.63	6.44531
2.6305	4.53186
2.631	9.36584
2.6315	8.7616
2.632	0
2.6325	1.40991
2.633	2.31628
2.6335	-3.62549
2.634	-2.41699
2.6345	0.30212
2.635	-1.51062
2.6355	-5.53894
2.636	-1.10779
2.6365	-2.92053
2.637	-4.02832
2.6375	-3.8269
2.638	-3.7262
2.6385	-7.15027
2.639	-2.5177
2.6395	-2.92053
2.64	5.43823
2.6405	-3.7262
2.641	2.61841
2.6415	1.3092
2.642	1.3092
2.6425	-2.81982
2.643	-1.91345
2.6435	-1.71204
2.644	-0.90637
2.6445	2.71912
2.645	5.33752
2.6455	2.01416
2.646	2.41699
2.6465	3.62549
2.647	3.62549
2.6475	3.92761
2.648	7.04956
2.6485	9.06372
2.649	2.5177
2.6495	6.94885
2.65	1.71204
2.6505	10.87646
2.651	2.01416
2.6515	8.15735
2.652	7.65381
2.6525	3.62549
2.653	7.75452
2.6535	5.13611
2.654	0.30212
2.6545	7.35168
2.655	11.78284
2.6555	8.15735
2.656	8.45947
2.6565	9.56726
2.657	7.35168
2.6575	12.28638
2.658	8.05664
2.6585	5.63965
2.659	10.17151
2.6595	20.04089
2.66	9.56726
2.6605	12.08496
2.661	18.93311
2.6615	16.41541
2.662	9.46655
2.6625	6.84814
2.663	11.07788
2.6635	24.27063
2.664	28.80249
2.6645	28.9032
2.665	26.18408
2.6655	22.15576
2.666	18.42957
2.6665	8.56018
2.667	0.30212
2.6675	-9.26514
2.668	-12.99133
2.6685	-6.74744
2.669	-8.56018
2.6695	-8.96301
2.67	-7.65381
2.6705	-6.74744
2.671	-6.3446
2.6715	-5.43823
2.672	5.23682
2.6725	4.53186
2.673	3.92761
2.6735	2.41699
2.674	4.22974
2.6745	8.56018
2.675	11.38
2.6755	9.97009
2.676	10.67505
2.6765	7.04956
2.677	2.71912
2.6775	8.7616
2.678	2.92053
2.6785	10.67505
2.679	6.3446
2.6795	10.77576
2.68	5.53894
2.6805	5.13611
2.681	9.36584
2.6815	11.17859
2.682	2.61841
2.6825	6.84814
2.683	4.63257
2.6835	8.25806
2.684	1.71204
2.6845	5.53894
2.685	5.43823
2.6855	13.29346
2.686	8.15735
2.6865	0
2.687	4.33044
2.6875	1.40991
2.688	5.23682
2.6885	3.32336
2.689	2.71912
2.6895	1.10779
2.69	2.31628
2.6905	3.12195
2.691	7.04956
2.6915	0
2.692	-0.50354
2.6925	-2.61841
2.693	-1.71204
2.6935	-3.32336
2.694	-4.33044
2.6945	-4.73328
2.695	-6.44531
2.6955	-3.7262
2.696	-2.21558
2.6965	-1.91345
2.697	-4.02832
2.6975	-2.31628
2.698	-4.93469
2.6985	-1.91345
2.699	-3.22266
2.6995	-2.71912
2.7	-1.00708
2.7005	-1.61133
2.701	-3.92761
2.7015	2.5177
2.702	4.83398
2.7025	1.2085
2.703	7.15027
2.7035	-1.51062
2.704	0.20142
2.7045	3.02124
2.705	0.30212
2.7055	-0.70496
2.706	-0.60425
2.7065	1.10779
2.707	-0.80566
2.7075	-2.5177
2.708	-1.51062
2.7085	-2.81982
2.709	3.22266
2.7095	-2.01416
2.71	6.74744
2.7105	4.43115
2.711	5.0354
2.7115	11.17859
2.712	7.04956
2.7125	3.22266
2.713	6.54602
2.7135	7.65381
2.714	11.48071
2.7145	5.74036
2.715	10.47363
2.7155	8.7616
2.716	5.0354
2.7165	6.94885
2.717	3.22266
2.7175	2.31628
2.718	7.25098
2.7185	8.15735
2.719	8.05664
2.7195	13.69629
2.72	19.63806
2.7205	24.27063
2.721	23.8678
2.7215	20.74585
2.722	25.68054
2.7225	23.26355
2.723	23.76709
2.7235	30.11169
2.724	29.40674
2.7245	28.19824
2.725	17.12036
2.7255	19.13452
2.726	15.40833
2.7265	12.68921
2.727	2.31628
2.7275	-3.32336
2.728	-8.15735
2.7285	-15.1062
2.729	-14.09912
2.7295	-19.13452
2.73	-19.13452
2.7305	-27.89612
2.731	-30.51453
2.7315	-27.6947
2.732	-23.16284
2.7325	-20.04089
2.733	-11.58142
2.7335	-13.89771
2.734	-13.49487
2.7345	-12.89062
2.735	-8.7616
2.7355	0.70496
2.736	-2.31628
2.7365	0.70496
2.737	2.71912
2.7375	4.33044
2.738	16.71753
2.7385	23.8678
2.739	19.94019
2.7395	13.49487
2.74	10.87646
2.7405	7.75452
2.741	8.7616
2.7415	10.77576
2.742	12.68921
2.7425	8.7616
2.743	6.44531
2.7435	2.92053
2.744	7.85522
2.7445	3.62549
2.745	-4.33044
2.7455	-11.58142
2.746	-9.16443
2.7465	-8.15735
2.747	-10.67505
2.7475	-5.23682
2.748	-6.2439
2.7485	-2.92053
2.749	-2.61841
2.7495	-1.81274
2.75	-2.71912
2.7505	-2.41699
2.751	-0.30212
2.7515	3.22266
2.752	4.83398
2.7525	4.83398
2.753	-3.22266
2.7535	0
2.754	-3.12195
2.7545	-6.94885
2.755	-4.12903
2.7555	-9.97009
2.756	-10.47363
2.7565	-13.39417
2.757	-14.60266
2.7575	-10.67505
2.758	-8.35876
2.7585	-6.84814
2.759	-4.02832
2.7595	-5.53894
2.76	-6.44531
2.7605	0
2.761	1.2085
2.7615	-3.8269
2.762	0.90637
2.7625	-0.50354
2.763	5.43823
2.7635	3.7262
2.764	6.2439
2.7645	5.94177
2.765	0.80566
2.7655	0.10071
2.766	2.01416
2.7665	9.26514
2.767	10.57434
2.7675	9.26514
2.768	21.3501
2.7685	24.87488
2.769	29.50745
2.7695	32.12585
2.77	38.06763
2.7705	32.02515
2.771	40.2832
2.7715	37.86621
2.772	32.7301
2.7725	31.21948
2.773	26.28479
2.7735	24.97559
2.774	18.02673
2.7745	12.08496
2.775	8.56018
2.7755	3.42407
2.776	-10.87646
2.7765	-7.5531
2.777	-15.50903
2.7775	-11.17859
2.778	-16.81824
2.7785	-22.55859
2.779	-19.03381
2.7795	-18.93311
2.78	-15.60974
2.7805	-8.05664
2.781	-9.16443
2.7815	-9.56726
2.782	-8.35876
2.7825	-3.02124
2.783	-3.8269
2.7835	4.02832
2.784	6.94885
2.7845	9.26514
2.785	3.8269
2.7855	-0.70496
2.786	2.41699
2.7865	2.61841
2.787	1.71204
2.7875	3.02124
2.788	7.15027
2.7885	2.41699
2.789	0
2.7895	-0.30212
2.79	3.32336
2.7905	-6.44531
2.791	-0.10071
2.7915	1.40991
2.792	1.71204
2.7925	4.22974
2.793	8.05664
2.7935	6.2439
2.794	12.28638
2.7945	8.05664
2.795	12.99133
2.7955	9.56726
2.796	10.77576
2.7965	12.89062
2.797	10.37292
2.7975	11.98425
2.798	12.68921
2.7985	22.86072
2.799	18.73169
2.7995	24.27063
2.8	23.06213
2.8005	24.47205
2.801	29.20532
2.8015	31.11877
2.802	41.29028
2.8025	55.59082
2.803	51.46179
2.8035	46.72852
2.804	35.65063
2.8045	19.53735
2.805	15.81116
2.8055	-2.01416
2.806	-15.91187
2.8065	-23.66638
2.807	-23.06213
2.8075	-27.39258
2.808	-32.02515
2.8085	-37.66479
2.809	-39.77966
2.8095	-31.82373
2.81	-22.35718
2.8105	-17.92603
2.811	-13.69629
2.8115	-1.71204
2.812	7.04956
2.8125	5.94177
2.813	13.09204
2.8135	15.40833
2.814	12.89062
2.8145	14.30054
2.815	13.59558
2.8155	11.17859
2.816	14.30054
2.8165	21.75293
2.817	19.73877
2.8175	21.45081
2.818	20.04089
2.8185	11.17859
2.819	11.68213
2.8195	7.85522
2.82	4.73328
2.8205	-3.52478
2.821	-4.22974
2.8215	-2.01416
2.822	-4.33044
2.8225	-4.73328
2.823	-4.12903
2.8235	-0.60425
2.824	-1.91345
2.8245	-2.61841
2.825	-4.43115
2.8255	-6.74744
2.826	-6.94885
2.8265	-5.63965
2.827	-1.10779
2.8275	5.13611
2.828	-1.81274
2.8285	-1.61133
2.829	3.52478
2.8295	4.02832
2.83	3.42407
2.8305	3.02124
2.831	-0.50354
2.8315	1.00708
2.832	3.92761
2.8325	1.91345
2.833	7.15027
2.8335	3.32336
2.834	3.7262
2.8345	-0.50354
2.835	3.32336
2.8355	2.31628
2.836	4.02832
2.8365	3.02124
2.837	5.94177
2.8375	1.00708
2.838	6.64673
2.8385	3.7262
2.839	3.7262
2.8395	4.43115
2.84	4.22974
2.8405	-0.30212
2.841	3.7262
2.8415	7.15027
2.842	15.71045
2.8425	7.85522
2.843	4.12903
2.8435	6.04248
2.844	10.0708
2.8445	6.74744
2.845	8.15735
2.8455	2.71912
2.846	0.20142
2.8465	-1.51062
2.847	2.61841
2.8475	1.40991
2.848	3.02124
2.8485	-3.8269
2.849	0.60425
2.8495	0.40283
2.85	1.51062
2.8505	-1.51062
2.851	-8.96301
2.8515	-10.77576
2.852	-13.797
2.8525	-9.46655
2.853	-6.14319
2.8535	-6.2439
2.854	-3.22266
2.8545	-6.14319
2.855	-2.81982
2.8555	1.40991
2.856	-1.00708
2.8565	1.10779
2.857	-0.30212
2.8575	-4.22974
2.858	-7.5531
2.8585	-2.01416
2.859	-4.83398
2.8595	-0.60425
2.86	-4.83398
2.8605	-9.66797
2.861	-6.74744
2.8615	-10.97717
2.862	-5.74036
2.8625	0.40283
2.863	-4.43115
2.8635	-2.81982
2.864	3.42407
2.8645	5.13611
2.865	-1.51062
2.8655	-2.31628
2.866	-4.43115
2.8665	-2.92053
2.867	-2.41699
2.8675	-2.81982
2.868	-0.80566
2.8685	-0.80566
2.869	1.40991
2.8695	-1.40991
2.87	1.10779
2.8705	-1.40991
2.871	0
2.8715	-5.33752
2.872	4.33044
2.8725	-2.01416
2.873	1.00708
2.8735	-0.90637
2.874	2.5177
2.8745	3.62549
2.875	4.53186
2.8755	8.8623
2.876	9.16443
2.8765	6.2439
2.877	13.39417
2.8775	8.05664
2.878	8.15735
2.8785	7.75452
2.879	9.06372
2.8795	6.04248
2.88	13.59558
2.8805	16.21399
2.881	14.19983
2.8815	17.82532
2.882	19.43665
2.8825	19.33594
2.883	20.74585
2.8835	21.3501
2.884	23.16284
2.8845	18.73169
2.885	25.78125
2.8855	31.32019
2.886	30.01099
2.8865	37.66479
2.887	38.47046
2.8875	41.99524
2.888	39.57825
2.8885	51.36108
2.889	60.62622
2.8895	68.88428
2.89	65.66162
2.8905	53.97949
2.891	42.7002
2.8915	29.20532
2.892	15.91187
2.8925	1.81274
2.893	-12.18567
2.8935	-18.12744
2.894	-20.54443
2.8945	-35.85205
2.895	-40.58533
2.8955	-38.67188
2.896	-45.2179
2.8965	-40.2832
2.897	-41.59241
2.8975	-31.92444
2.898	-23.96851
2.8985	-23.56567
2.899	-20.84656
2.8995	-10.57434
2.9	-0.40283
2.9005	11.98425
2.901	22.25647
2.9015	29.60815
2.902	31.32019
2.9025	33.73718
2.903	31.32019
2.9035	32.62939
2.904	35.34851
2.9045	33.23364
2.905	26.58691
2.9055	21.55151
2.906	22.86072
2.9065	18.02673
2.907	4.02832
2.9075	1.10779
2.908	4.93469
2.9085	-0.40283
2.909	-7.5531
2.9095	-10.67505
2.91	-15.50903
2.9105	-22.45789
2.911	-29.91028
2.9115	-25.27771
2.912	-21.45081
2.9125	-26.28479
2.913	-14.30054
2.9135	-14.19983
2.914	-14.80408
2.9145	-9.97009
2.915	-3.02124
2.9155	0.60425
2.916	-0.20142
2.9165	-2.01416
2.917	0.40283
2.9175	5.63965
2.918	10.17151
2.9185	11.17859
2.919	14.80408
2.9195	15.71045
2.92	11.17859
2.9205	12.5885
2.921	11.58142
2.9215	13.39417
2.922	7.85522
2.9225	4.12903
2.923	5.63965
2.9235	7.5531
2.924	4.02832
2.9245	11.78284
2.925	5.33752
2.9255	1.40991
2.926	5.0354
2.9265	1.81274
2.927	0
2.9275	-4.73328
2.928	-5.74036
2.9285	-4.83398
2.929	1.81274
2.9295	0.50354
2.93	-4.43115
2.9305	-1.61133
2.931	-8.15735
2.9315	-0.30212
2.932	-3.52478
2.9325	-3.12195
2.933	-7.95593
2.9335	-8.8623
2.934	-1.3092
2.9345	-3.02124
2.935	-4.93469
2.9355	0.80566
2.936	-1.40991
2.9365	-0.90637
2.937	-2.21558
2.9375	0.90637
2.938	-1.3092
2.9385	-3.92761
2.939	1.00708
2.9395	-4.02832
2.94	1.3092
2.9405	4.22974
2.941	4.53186
2.9415	8.7616
2.942	5.23682
2.9425	7.04956
2.943	4.83398
2.9435	3.62549
2.944	4.12903
2.9445	4.22974
2.945	6.2439
2.9455	7.95593
2.946	4.63257
2.9465	8.8623
2.947	12.5885
2.9475	29.00391
2.948	29.00391
2.9485	23.8678
2.949	26.18408
2.9495	17.6239
2.95	15.30762
2.9505	15.81116
2.951	10.57434
2.9515	6.44531
2.952	5.63965
2.9525	4.83398
2.953	6.64673
2.9535	7.45239
2.954	1.61133
2.9545	4.22974
2.955	2.81982
2.9555	-1.2085
2.956	0.80566
2.9565	-0.20142
2.957	1.71204
2.9575	4.02832
2.958	2.41699
2.9585	-4.43115
2.959	-3.92761
2.9595	-4.43115
2.96	-5.63965
2.9605	0.90637
2.961	-0.10071
2.9615	-4.22974
2.962	4.63257
2.9625	-3.12195
2.963	-3.12195
2.9635	-0.10071
2.964	-1.71204
2.9645	0.40283
2.965	-1.2085
2.9655	-3.62549
2.966	-2.01416
2.9665	-1.3092
2.967	0.10071
2.9675	0.30212
2.968	-1.00708
2.9685	4.53186
2.969	11.07788
2.9695	11.68213
2.97	15.20691
2.9705	8.7616
2.971	10.77576
2.9715	12.18567
2.972	2.41699
2.9725	9.06372
2.973	3.12195
2.9735	13.39417
2.974	17.6239
2.9745	23.26355
2.975	23.36426
2.9755	16.91895
2.976	10.27222
2.9765	6.14319
2.977	2.11487
2.9775	-2.61841
2.978	-7.25098
2.9785	-3.92761
2.979	-3.62549
2.9795	-3.8269
2.98	-4.02832
2.9805	1.51062
2.981	0.80566
2.9815	10.0708
2.982	17.22107
2.9825	25.57983
2.983	30.31311
2.9835	25.78125
2.984	29.80957
2.9845	39.67896
2.985	39.88037
2.9855	45.2179
2.986	45.92285
2.9865	49.44763
2.987	48.84338
2.9875	44.21082
2.988	42.29736
2.9885	33.33435
2.989	27.79541
2.9895	16.41541
2.99	8.66089
2.9905	6.04248
2.991	-3.22266
2.9915	-10.37292
2.992	-21.95435
2.9925	-23.26355
2.993	-29.40674
2.9935	-26.98975
2.994	-24.06921
2.9945	-24.06921
2.995	-18.8324
2.9955	-20.84656
2.996	-12.38708
2.9965	-11.58142
2.997	-9.16443
2.9975	-8.66089
2.998	-6.04248
2.9985	-5.13611
2.999	-4.43115
2.9995	-2.41699
3	2.11487
3.0005	-4.43115
3.001	0.30212
3.0015	-2.71912
3.002	-0.70496
3.0025	3.7262
3.003	5.53894
3.0035	0.60425
3.004	5.74036
3.0045	6.04248
3.005	4.22974
3.0055	4.73328
3.006	13.89771
3.0065	15.91187
3.007	12.28638
3.0075	8.96301
3.008	1.71204
3.0085	6.14319
3.009	6.3446
3.0095	13.69629
3.01	10.57434
3.0105	12.28638
3.011	8.45947
3.0115	12.99133
3.012	6.04248
3.0125	13.59558
3.013	13.797
3.0135	15.71045
3.014	17.92603
3.0145	18.12744
3.015	20.1416
3.0155	26.48621
3.016	33.73718
3.0165	33.73718
3.017	23.16284
3.0175	23.8678
3.018	18.12744
3.0185	6.04248
3.019	5.0354
3.0195	6.04248
3.02	-3.32336
3.0205	-7.04956
3.021	-4.02832
3.0215	-8.66089
3.022	-8.35876
3.0225	-12.48779
3.023	-16.21399
3.0235	-17.42249
3.024	-15.71045
3.0245	-18.73169
3.025	-18.8324
3.0255	-14.30054
3.026	-18.63098
3.0265	-12.48779
3.027	-14.09912
3.0275	-10.47363
3.028	-7.04956
3.0285	-9.56726
3.029	-4.83398
3.0295	-0.50354
3.03	5.33752
3.0305	7.5531
3.031	4.93469
3.0315	10.97717
3.032	10.57434
3.0325	8.05664
3.033	12.78992
3.0335	17.6239
3.034	15.30762
3.0345	22.15576
3.035	18.63098
3.0355	19.43665
3.036	14.09912
3.0365	18.32886
3.037	22.45789
3.0375	22.15576
3.038	16.01257
3.0385	14.90479
3.039	18.63098
3.0395	12.48779
3.04	14.30054
3.0405	19.63806
3.041	25.98267
3.0415	28.80249
3.042	33.23364
3.0425	42.49878
3.043	41.99524
3.0435	43.20374
3.044	47.23206
3.0445	46.92993
3.045	47.63489
3.0455	44.31152
3.046	41.4917
3.0465	35.54993
3.047	32.7301
3.0475	23.26355
3.048	11.68213
3.0485	2.21558
3.049	-3.32336
3.0495	-5.74036
3.05	-12.08496
3.0505	-16.51611
3.051	-26.08337
3.0515	-25.78125
3.052	-32.22656
3.0525	-30.2124
3.053	-28.09753
3.0535	-24.97559
3.054	-9.56726
3.0545	3.92761
3.055	-1.51062
3.0555	-1.2085
3.056	-1.71204
3.0565	-2.81982
3.057	-5.43823
3.0575	-5.63965
3.058	-6.64673
3.0585	-11.07788
3.059	-7.45239
3.0595	-6.74744
3.06	-1.51062
3.0605	4.12903
3.061	7.75452
3.0615	7.25098
3.062	7.15027
3.0625	8.45947
3.063	10.0708
3.0635	18.53027
3.064	12.99133
3.0645	18.32886
3.065	15.60974
3.0655	12.48779
3.066	12.28638
3.0665	12.5885
3.067	19.83948
3.0675	20.1416
3.068	21.85364
3.0685	25.07629
3.069	26.78833
3.0695	35.65063
3.07	36.95984
3.0705	27.49329
3.071	25.98267
3.0715	20.64514
3.072	16.21399
3.0725	11.88354
3.073	8.35876
3.0735	6.54602
3.074	0.90637
3.0745	6.84814
3.075	5.94177
3.0755	1.51062
3.076	2.21558
3.0765	3.12195
3.077	2.41699
3.0775	-0.30212
3.078	-3.8269
3.0785	-0.40283
3.079	2.5177
3.0795	3.22266
3.08	2.92053
3.0805	3.12195
3.081	1.61133
3.0815	3.22266
3.082	8.8623
3.0825	6.04248
3.083	7.04956
3.0835	9.26514
3.084	12.38708
3.0845	4.43115
3.085	8.35876
3.0855	6.04248
3.086	6.2439
3.0865	8.56018
3.087	7.5531
3.0875	3.92761
3.088	9.86938
3.0885	3.7262
3.089	-0.30212
3.0895	1.51062
3.09	4.33044
3.0905	8.25806
3.091	7.5531
3.0915	9.56726
3.092	5.74036
3.0925	3.42407
3.093	4.53186
3.0935	4.12903
3.094	4.12903
3.0945	8.7616
3.095	4.43115
3.0955	6.3446
3.096	9.97009
3.0965	11.2793
3.097	5.13611
3.0975	2.71912
3.098	9.46655
3.0985	6.64673
3.099	8.35876
3.0995	12.5885
3.1	3.92761
3.1005	10.87646
3.101	11.38
3.1015	8.05664
3.102	12.78992
3.1025	7.85522
3.103	7.65381
3.1035	7.75452
3.104	11.78284
3.1045	13.29346
3.105	12.48779
3.1055	15.1062
3.106	9.16443
3.1065	11.48071
3.107	11.38
3.1075	9.97009
3.108	5.94177
3.1085	9.46655
3.109	10.97717
3.1095	11.07788
3.11	8.25806
3.1105	9.36584
3.111	1.00708
3.1115	2.81982
3.112	5.43823
3.1125	-0.10071
3.113	0.80566
3.1135	4.73328
3.114	4.02832
3.1145	1.61133
3.115	-0.80566
3.1155	-2.81982
3.116	-0.30212
3.1165	4.12903
3.117	1.40991
3.1175	2.71912
3.118	0.90637
3.1185	2.31628
3.119	3.22266
3.1195	-1.51062
3.12	0.10071
3.1205	1.2085
3.121	2.5177
3.1215	2.81982
3.122	7.5531
3.1225	8.56018
3.123	1.81274
3.1235	3.62549
3.124	4.22974
3.1245	3.8269
3.125	5.13611
3.1255	6.14319
3.126	8.25806
3.1265	2.21558
3.127	0
3.1275	5.84106
3.128	3.42407
3.1285	0.60425
3.129	5.33752
3.1295	9.66797
3.13	1.61133
3.1305	3.12195
3.131	10.57434
3.1315	12.08496
3.132	19.13452
3.1325	19.94019
3.133	26.48621
3.1335	27.99683
3.134	26.18408
3.1345	35.14709
3.135	30.11169
3.1355	30.01099
3.136	23.26355
3.1365	28.19824
3.137	23.66638
3.1375	17.92603
3.138	13.49487
3.1385	10.97717
3.139	-1.40991
3.1395	-4.73328
3.14	-10.37292
3.1405	-18.73169
3.141	-24.47205
3.1415	-27.89612
3.142	-30.31311
3.1425	-33.13293
3.143	-35.34851
3.1435	-35.95276
3.144	-29.70886
3.1445	-31.82373
3.145	-29.40674
3.1455	-24.97559
3.146	-23.26355
3.1465	-13.797
3.147	-8.7616
3.1475	3.62549
3.148	11.58142
3.1485	19.43665
3.149	17.22107
3.1495	4.73328
3.15	-0.90637
3.1505	-5.94177
3.151	-5.33752
3.1515	-4.02832
3.152	-4.93469
3.1525	-5.74036
3.153	-11.38
3.1535	-8.56018
3.154	-5.63965
3.1545	0.80566
3.155	3.8269
3.1555	6.54602
3.156	3.52478
3.1565	9.06372
3.157	6.84814
3.1575	5.74036
3.158	13.69629
3.1585	16.91895
3.159	16.41541
3.1595	18.93311
3.16	15.71045
3.1605	15.71045
3.161	15.1062
3.1615	12.28638
3.162	21.24939
3.1625	22.05505
3.163	25.37842
3.1635	22.25647
3.164	21.3501
3.1645	19.83948
3.165	18.42957
3.1655	19.53735
3.166	12.99133
3.1665	9.26514
3.167	15.20691
3.1675	9.06372
3.168	10.0708
3.1685	20.44373
3.169	24.67346
3.1695	27.39258
3.17	29.20532
3.1705	31.01807
3.171	32.52869
3.1715	25.78125
3.172	25.98267
3.1725	20.64514
3.173	11.88354
3.1735	4.53186
3.174	-4.53186
3.1745	-0.50354
3.175	-10.77576
3.1755	-7.5531
3.176	-17.52319
3.1765	-18.8324
3.177	-26.58691
3.1775	-18.8324
3.178	-18.73169
3.1785	-18.22815
3.179	-18.53027
3.1795	-15.81116
3.18	-5.53894
3.1805	-4.12903
3.181	0
3.1815	6.64673
3.182	12.5885
3.1825	16.01257
3.183	11.48071
3.1835	14.40125
3.184	16.81824
3.1845	19.33594
3.185	23.06213
3.1855	18.93311
3.186	21.14868
3.1865	16.91895
3.187	19.03381
3.1875	21.24939
3.188	22.6593
3.1885	24.97559
3.189	25.57983
3.1895	20.54443
3.19	25.88196
3.1905	21.55151
3.191	22.15576
3.1915	21.45081
3.192	23.76709
3.1925	23.96851
3.193	18.8324
3.1935	23.16284
3.194	21.95435
3.1945	22.05505
3.195	19.03381
3.1955	17.92603
3.196	12.28638
3.1965	11.48071
3.197	14.19983
3.1975	14.40125
3.198	12.48779
3.1985	12.78992
3.199	16.21399
3.1995	17.52319
3.2	15.81116
3.2005	14.30054
3.201	11.38
3.2015	16.41541
3.202	14.19983
3.2025	9.46655
3.203	6.74744
3.2035	8.56018
3.204	4.93469
3.2045	8.25806
3.205	10.57434
3.2055	7.65381
3.206	8.7616
3.2065	5.63965
3.207	5.74036
3.2075	2.71912
3.208	-0.60425
3.2085	1.3092
3.209	-0.90637
3.2095	1.81274
3.21	-3.42407
3.2105	-5.84106
3.211	-5.53894
3.2115	-4.63257
3.212	-4.73328
3.2125	-4.93469
3.213	-5.74036
3.2135	-6.64673
3.214	1.00708
3.2145	2.71912
3.215	5.84106
3.2155	11.78284
3.216	13.59558
3.2165	9.06372
3.217	6.84814
3.2175	7.45239
3.218	6.14319
3.2185	6.3446
3.219	8.8623
3.2195	6.94885
3.22	14.19983
3.2205	22.35718
3.221	24.47205
3.2215	26.08337
3.222	22.25647
3.2225	17.6239
3.223	11.58142
3.2235	0.60425
3.224	-5.33752
3.2245	-12.38708
3.225	-21.24939
3.2255	-26.98975
3.226	-26.48621
3.2265	-31.01807
3.227	-34.03931
3.2275	-29.00391
3.228	-38.26904
3.2285	-44.41223
3.229	-43.80798
3.2295	-40.2832
3.23	-37.86621
3.2305	-30.11169
3.231	-29.10461
3.2315	-22.55859
3.232	-21.04797
3.2325	-13.49487
3.233	-10.17151
3.2335	-6.64673
3.234	-2.5177
3.2345	-3.92761
3.235	-1.00708
3.2355	-2.11487
3.236	-1.71204
3.2365	-0.80566
3.237	-1.51062
3.2375	1.3092
3.238	0.10071
3.2385	0
3.239	3.7262
3.2395	-1.61133
3.24	1.3092
3.2405	-5.23682
3.241	4.22974
3.2415	4.83398
3.242	1.40991
3.2425	10.0708
3.243	11.78284
3.2435	11.38
3.244	16.3147
3.2445	20.24231
3.245	28.29895
3.2455	23.76709
3.246	22.15576
3.2465	17.82532
3.247	12.99133
3.2475	2.21558
3.248	-8.15735
3.2485	-9.86938
3.249	-14.50195
3.2495	-13.797
3.25	-21.55151
3.2505	-18.93311
3.251	-22.55859
3.2515	-10.77576
3.252	-15.40833
3.2525	-7.15027
3.253	0
3.2535	-2.01416
3.254	1.71204
3.2545	17.72461
3.255	31.4209
3.2555	31.82373
3.256	38.26904
3.2565	43.60657
3.257	46.22498
3.2575	44.11011
3.258	45.41931
3.2585	41.99524
3.259	44.81506
3.2595	31.72302
3.26	26.78833
3.2605	13.69629
3.261	9.66797
3.2615	-4.53186
3.262	-9.06372
3.2625	-12.68921
3.263	-15.91187
3.2635	-19.23523
3.264	-20.44373
3.2645	-23.06213
3.265	-29.80957
3.2655	-28.70178
3.266	-22.86072
3.2665	-14.90479
3.267	-14.40125
3.2675	-7.75452
3.268	-3.12195
3.2685	-5.0354
3.269	-1.61133
3.2695	-2.31628
3.27	2.31628
3.2705	0
3.271	1.51062
3.2715	4.33044
3.272	3.32336
3.2725	7.65381
3.273	10.57434
3.2735	9.76868
3.274	6.54602
3.2745	12.68921
3.275	12.68921
3.2755	15.20691
3.276	15.1062
3.2765	17.12036
3.277	12.48779
3.2775	18.42957
3.278	22.86072
3.2785	26.08337
3.279	26.88904
3.2795	29.30603
3.28	22.45789
3.2805	21.14868
3.281	15.91187
3.2815	15.60974
3.282	6.54602
3.2825	9.76868
3.283	10.17151
3.2835	13.59558
3.284	12.38708
3.2845	11.88354
3.285	5.43823
3.2855	1.51062
3.286	2.21558
3.2865	-2.71912
3.287	-8.7616
3.2875	-6.74744
3.288	-7.85522
3.2885	-8.8623
3.289	-7.85522
3.2895	2.5177
3.29	2.11487
3.2905	10.77576
3.291	6.04248
3.2915	10.67505
3.292	6.94885
3.2925	14.19983
3.293	22.05505
3.2935	21.3501
3.294	16.11328
3.2945	14.90479
3.295	21.95435
3.2955	21.04797
3.296	19.94019
3.2965	18.63098
3.297	18.73169
3.2975	27.89612
3.298	19.43665
3.2985	11.68213
3.299	-2.71912
3.2995	-15.1062
3.3	-26.28479
3.3005	-35.54993
3.301	-43.50586
3.3015	-48.33984
3.302	-43.80798
3.3025	-47.13135
3.303	-47.13135
3.3035	-39.57825
3.304	-28.9032
3.3045	-25.47913
3.305	-22.05505
3.3055	-10.87646
3.306	-7.15027
3.3065	-5.63965
3.307	-1.91345
3.3075	4.43115
3.308	12.28638
3.3085	12.78992
3.309	18.42957
3.3095	18.42957
3.31	12.99133
3.3105	24.27063
3.311	23.96851
3.3115	20.74585
3.312	23.46497
3.3125	27.59399
3.313	25.177
3.3135	30.11169
3.314	25.98267
3.3145	29.40674
3.315	26.18408
3.3155	27.29187
3.316	21.45081
3.3165	18.12744
3.317	12.28638
3.3175	12.18567
3.318	13.29346
3.3185	13.29346
3.319	16.3147
3.3195	23.16284
3.32	23.8678
3.3205	29.20532
3.321	21.14868
3.3215	20.54443
3.322	16.51611
3.3225	17.52319
3.323	14.90479
3.3235	10.37292
3.324	1.81274
3.3245	-3.52478
3.325	-5.84106
3.3255	-5.94177
3.326	-8.96301
3.3265	-9.86938
3.327	-8.56018
3.3275	-12.5885
3.328	-7.65381
3.3285	-0.50354
3.329	-0.10071
3.3295	-5.43823
3.33	-6.84814
3.3305	-6.44531
3.331	0.70496
3.3315	2.31628
3.332	3.32336
3.3325	8.45947
3.333	4.22974
3.3335	4.02832
3.334	8.35876
3.3345	9.56726
3.335	5.23682
3.3355	6.54602
3.336	0.70496
3.3365	6.14319
3.337	7.75452
3.3375	10.97717
3.338	9.66797
3.3385	8.45947
3.339	14.19983
3.3395	11.58142
3.34	7.45239
3.3405	10.77576
3.341	11.58142
3.3415	20.64514
3.342	17.52319
3.3425	18.53027
3.343	17.32178
3.3435	17.82532
3.344	16.3147
3.3445	22.86072
3.345	20.74585
3.3455	21.24939
3.346	17.52319
3.3465	15.81116
3.347	13.29346
3.3475	7.65381
3.348	-2.01416
3.3485	1.3092
3.349	4.63257
3.3495	3.8269
3.35	5.43823
3.3505	5.74036
3.351	2.41699
3.3515	-1.3092
3.352	-7.35168
3.3525	-2.81982
3.353	1.51062
3.3535	10.37292
3.354	9.86938
3.3545	11.17859
3.355	16.3147
3.3555	22.76001
3.356	30.2124
3.3565	33.43506
3.357	33.73718
3.3575	34.64355
3.358	33.43506
3.3585	33.33435
3.359	35.04639
3.3595	23.76709
3.36	20.54443
3.3605	11.78284
3.361	0.70496
3.3615	1.2085
3.362	-2.01416
3.3625	-9.86938
3.363	-14.60266
3.3635	-22.15576
3.364	-26.88904
3.3645	-34.64355
3.365	-35.2478
3.3655	-40.08179
3.366	-40.08179
3.3665	-43.40515
3.367	-35.2478
3.3675	-26.88904
3.368	-17.32178
3.3685	-6.3446
3.369	-0.60425
3.3695	15.1062
3.37	24.47205
3.3705	32.12585
3.371	29.91028
3.3715	27.99683
3.372	24.77417
3.3725	18.42957
3.373	15.30762
3.3735	9.86938
3.374	0.10071
3.3745	-8.56018
3.375	-20.04089
3.3755	-27.6947
3.376	-38.974
3.3765	-39.17542
3.377	-38.36975
3.3775	-40.48462
3.378	-34.54285
3.3785	-35.34851
3.379	-26.58691
3.3795	-19.53735
3.38	-21.3501
3.3805	-9.46655
3.381	-3.52478
3.3815	1.40991
3.382	8.45947
3.3825	9.66797
3.383	16.11328
3.3835	23.26355
3.384	20.74585
3.3845	21.95435
3.385	20.24231
3.3855	24.67346
3.386	16.51611
3.3865	12.99133
3.387	9.46655
3.3875	16.91895
3.388	13.29346
3.3885	11.38
3.389	11.38
3.3895	16.81824
3.39	18.63098
3.3905	17.52319
3.391	15.71045
3.3915	15.50903
3.392	6.84814
3.3925	1.71204
3.393	3.62549
3.3935	6.94885
3.394	5.84106
3.3945	2.21558
3.395	3.7262
3.3955	0
3.396	-4.63257
3.3965	1.71204
3.397	0.80566
3.3975	3.02124
3.398	5.53894
3.3985	10.0708
3.399	11.48071
3.3995	-1.00708
3.4	-0.80566
3.4005	1.40991
3.401	-3.22266
3.4015	-2.71912
3.402	-5.84106
3.4025	0.50354
3.403	1.61133
3.4035	-3.12195
3.404	-7.45239
3.4045	-21.14868
3.405	-28.9032
3.4055	-25.88196
3.406	-24.87488
3.4065	-9.97009
3.407	-0.70496
3.4075	10.97717
3.408	22.15576
3.4085	37.66479
3.409	55.59082
3.4095	66.6687
3.41	72.30835
3.4105	77.24304
3.411	82.9834
3.4115	92.85278
3.412	92.04712
3.4125	85.90393
3.413	81.67419
3.4135	64.65454
3.414	53.37524
3.4145	47.33276
3.415	33.73718
3.4155	13.49487
3.416	-5.43823
3.4165	-21.3501
3.417	-33.83789
3.4175	-45.62073
3.418	-62.03613
3.4185	-68.88428
3.419	-71.30127
3.4195	-78.95508
3.42	-90.43579
3.4205	-95.87402
3.421	-93.96057
3.4215	-86.50818
3.422	-77.74658
3.4225	-67.47437
3.423	-46.12427
3.4235	-27.49329
3.424	-14.90479
3.4245	3.52478
3.425	24.47205
3.4255	32.93152
3.426	47.03064
3.4265	62.43896
3.427	69.79065
3.4275	78.04871
3.428	70.3949
3.4285	64.55383
3.429	54.98657
3.4295	39.17542
3.43	24.47205
3.4305	3.52478
3.431	-17.32178
3.4315	-36.55701
3.432	-55.08728
3.4325	-62.03613
3.433	-61.12976
3.4335	-65.66162
3.434	-65.76233
3.4345	-66.97083
3.435	-63.74817
3.4355	-60.3241
3.436	-50.45471
3.4365	-42.09595
3.437	-25.27771
3.4375	-18.93311
3.438	-6.14319
3.4385	-6.3446
3.439	-2.71912
3.4395	2.11487
3.44	5.33752
3.4405	8.25806
3.441	10.67505
3.4415	16.51611
3.442	13.19275
3.4425	18.22815
3.443	21.3501
3.4435	31.52161
3.444	31.11877
3.4445	24.37134
3.445	24.06921
3.4455	16.81824
3.446	10.37292
3.4465	14.40125
3.447	9.97009
3.4475	13.797
3.448	9.86938
3.4485	14.30054
3.449	10.67505
3.4495	6.44531
3.45	12.99133
3.4505	11.2793
3.451	14.80408
3.4515	14.80408
3.452	12.18567
3.4525	17.6239
3.453	13.19275
3.4535	15.60974
3.454	14.30054
3.4545	12.99133
3.455	15.20691
3.4555	17.42249
3.456	15.20691
3.4565	10.17151
3.457	11.88354
3.4575	9.06372
3.458	4.93469
3.4585	5.74036
3.459	6.04248
3.4595	5.0354
3.46	3.92761
3.4605	4.83398
3.461	9.16443
3.4615	2.61841
3.462	6.74744
3.4625	10.57434
3.463	5.94177
3.4635	6.04248
3.464	4.53186
3.4645	5.84106
3.465	2.81982
3.4655	0.30212
3.466	0.70496
3.4665	1.71204
3.467	3.92761
3.4675	6.3446
3.468	2.81982
3.4685	2.5177
3.469	12.48779
3.4695	4.73328
3.47	6.04248
3.4705	3.62549
3.471	5.63965
3.4715	5.84106
3.472	2.5177
3.4725	5.0354
3.473	3.02124
3.4735	5.84106
3.474	4.73328
3.4745	3.12195
3.475	5.23682
3.4755	13.09204
3.476	11.68213
3.4765	14.30054
3.477	8.56018
3.4775	6.2439
3.478	-2.71912
3.4785	-0.90637
3.479	-9.46655
3.4795	-4.63257
3.48	-8.8623
3.4805	-4.53186
3.481	-0.40283
3.4815	5.84106
3.482	16.21399
3.4825	14.40125
3.483	24.47205
3.4835	23.56567
3.484	28.50037
3.4845	26.58691
3.485	27.89612
3.4855	31.11877
3.486	27.19116
3.4865	23.56567
3.487	17.82532
3.4875	5.43823
3.488	-4.63257
3.4885	-14.90479
3.489	-27.59399
3.4895	-36.15417
3.49	-45.52002
3.4905	-50.45471
3.491	-49.54834
3.4915	-45.82214
3.492	-36.55701
3.4925	-36.75842
3.493	-20.24231
3.4935	1.91345
3.494	10.0708
3.4945	22.35718
3.495	33.9386
3.4955	42.09595
3.496	44.71436
3.4965	46.42639
3.497	45.52002
3.4975	49.14551
3.498	32.62939
3.4985	24.16992
3.499	17.6239
3.4995	1.10779
3.5	-14.09912
3.5005	-22.86072
3.501	-32.52869
3.5015	-36.65771
3.502	-43.60657
3.5025	-49.74976
3.503	-52.97241
3.5035	-55.2887
3.504	-47.03064
3.5045	-38.67188
3.505	-41.29028
3.5055	-27.39258
3.506	-15.20691
3.5065	-7.15027
3.507	6.84814
3.5075	18.42957
3.508	25.07629
3.5085	25.68054
3.509	21.75293
3.5095	20.54443
3.51	23.26355
3.5105	19.23523
3.511	19.43665
3.5115	21.14868
3.512	17.32178
3.5125	19.73877
3.513	22.45789
3.5135	24.57275
3.514	20.44373
3.5145	23.26355
3.515	25.68054
3.5155	21.45081
3.516	21.65222
3.5165	15.81116
3.517	10.17151
3.5175	-1.3092
3.518	-4.53186
3.5185	-6.3446
3.519	-5.84106
3.5195	-0.70496
3.52	-0.80566
3.5205	0.70496
3.521	4.53186
3.5215	4.83398
3.522	6.14319
3.5225	13.99841
3.523	14.50195
3.5235	10.87646
3.524	9.46655
3.5245	2.81982
3.525	9.56726
3.5255	4.02832
3.526	3.32336
3.5265	2.01416
3.527	5.94177
3.5275	5.74036
3.528	16.01257
3.5285	17.32178
3.529	14.09912
3.5295	15.60974
3.53	26.58691
3.5305	24.47205
3.531	23.56567
3.5315	17.22107
3.532	17.6239
3.5325	15.81116
3.533	14.09912
3.5335	11.78284
3.534	13.39417
3.5345	12.18567
3.535	9.06372
3.5355	9.86938
3.536	7.65381
3.5365	-0.40283
3.537	-1.81274
3.5375	5.63965
3.538	13.19275
3.5385	16.61682
3.539	11.68213
3.5395	15.00549
3.54	16.01257
3.5405	8.05664
3.541	1.61133
3.5415	0.80566
3.542	-3.32336
3.5425	1.91345
3.543	4.63257
3.5435	5.63965
3.544	1.71204
3.5445	3.42407
3.545	-3.92761
3.5455	-8.35876
3.546	-9.56726
3.5465	-7.15027
3.547	-20.64514
3.5475	-15.71045
3.548	-16.41541
3.5485	-14.30054
3.549	-10.37292
3.5495	-2.01416
3.55	3.62549
3.5505	2.81982
3.551	3.8269
3.5515	-1.2085
3.552	-3.52478
3.5525	-3.12195
3.553	4.43115
3.5535	6.54602
3.554	11.58142
3.5545	18.12744
3.555	23.76709
3.5555	19.03381
3.556	17.01965
3.5565	18.02673
3.557	22.6593
3.5575	23.06213
3.558	21.95435
3.5585	12.99133
3.559	11.98425
3.5595	19.94019
3.56	16.11328
3.5605	12.28638
3.561	12.48779
3.5615	6.2439
3.562	2.41699
3.5625	2.01416
3.563	2.71912
3.5635	7.45239
3.564	22.05505
3.5645	22.86072
3.565	29.50745
3.5655	47.8363
3.566	67.47437
3.5665	69.48853
3.567	79.86145
3.5675	73.41614
3.568	65.86304
3.5685	58.00781
3.569	57.40356
3.5695	52.36816
3.57	43.10303
3.5705	32.62939
3.571	26.68762
3.5715	14.80408
3.572	3.62549
3.5725	-0.10071
3.573	-1.71204
3.5735	-0.70496
3.574	4.43115
3.5745	9.86938
3.575	7.75452
3.5755	6.3446
3.576	5.0354
3.5765	1.91345
3.577	-8.96301
3.5775	-13.59558
3.578	-21.14868
3.5785	-24.37134
3.579	-29.60815
3.5795	-33.43506
3.58	-33.03223
3.5805	-34.24072
3.581	-22.25647
3.5815	-24.67346
3.582	-24.06921
3.5825	-22.96143
3.583	-22.96143
3.5835	-14.40125
3.584	-12.78992
3.5845	-10.17151
3.585	0.10071
3.5855	6.14319
3.586	11.2793
3.5865	12.99133
3.587	10.27222
3.5875	16.61682
3.588	15.81116
3.5885	12.08496
3.589	8.35876
3.5895	14.80408
3.59	5.63965
3.5905	4.93469
3.591	10.97717
3.5915	7.35168
3.592	12.08496
3.5925	12.89062
3.593	10.57434
3.5935	6.2439
3.594	5.63965
3.5945	1.71204
3.595	-3.8269
3.5955	-2.81982
3.596	-8.15735
3.5965	-2.5177
3.597	-3.8269
3.5975	-7.35168
3.598	-0.20142
3.5985	-1.91345
3.599	8.05664
3.5995	5.84106
3.6	4.12903
3.6005	13.29346
3.601	16.11328
3.6015	24.57275
3.602	19.83948
3.6025	19.73877
3.603	18.22815
3.6035	24.57275
3.604	20.84656
3.6045	34.74426
3.605	40.58533
3.6055	56.79932
3.606	62.23755
3.6065	63.74817
3.607	57.10144
3.6075	59.31702
3.608	45.2179
3.6085	26.68762
3.609	20.04089
3.6095	8.05664
3.61	8.7616
3.6105	-2.81982
3.611	-17.6239
3.6115	-35.2478
3.612	-50.05188
3.6125	-56.39648
3.613	-61.33118
3.6135	-60.92834
3.614	-58.51135
3.6145	-57.8064
3.615	-49.14551
3.6155	-36.75842
3.616	-27.19116
3.6165	-20.04089
3.617	-10.87646
3.6175	-5.63965
3.618	2.11487
3.6185	9.16443
3.619	21.75293
3.6195	28.09753
3.62	31.32019
3.6205	31.21948
3.621	31.72302
3.6215	27.6947
3.622	27.99683
3.6225	24.97559
3.623	18.53027
3.6235	11.78284
3.624	3.62549
3.6245	7.45239
3.625	15.20691
3.6255	13.09204
3.626	4.83398
3.6265	-0.70496
3.627	3.7262
3.6275	6.84814
3.628	6.54602
3.6285	10.77576
3.629	18.63098
3.6295	15.50903
3.63	6.94885
3.6305	5.0354
3.631	-2.61841
3.6315	6.3446
3.632	8.56018
3.6325	16.3147
3.633	18.42957
3.6335	22.86072
3.634	30.71594
3.6345	35.95276
3.635	36.95984
3.6355	46.72852
3.636	64.75525
3.6365	90.13367
3.637	118.63403
3.6375	127.49634
3.638	138.77563
3.6385	136.56006
3.639	130.92041
3.6395	112.39014
3.64	95.37048
3.6405	75.63171
3.641	54.48303
3.6415	33.63647
3.642	5.74036
3.6425	-17.92603
3.643	-44.31152
3.6435	-69.99207
3.644	-95.06836
3.6445	-120.34607
3.645	-144.01245
3.6455	-157.40662
3.646	-165.06042
3.6465	-154.58679
3.647	-139.27917
3.6475	-120.7489
3.648	-99.19739
3.6485	-81.87561
3.649	-69.1864
3.6495	-47.23206
3.65	-30.81665
3.6505	-19.03381
3.651	-7.75452
3.6515	3.32336
3.652	9.56726
3.6525	13.89771
3.653	20.54443
3.6535	27.49329
3.654	22.05505
3.6545	32.12585
3.655	41.18958
3.6555	43.50586
3.656	48.13843
3.6565	42.49878
3.657	38.26904
3.6575	29.20532
3.658	29.80957
3.6585	28.60107
3.659	27.89612
3.6595	19.43665
3.66	23.06213
3.6605	20.74585
3.661	24.67346
3.6615	18.22815
3.662	18.73169
3.6625	18.02673
3.663	15.50903
3.6635	13.59558
3.664	10.87646
3.6645	8.45947
3.665	11.98425
3.6655	18.02673
3.666	18.12744
3.6665	14.40125
3.667	10.37292
3.6675	12.48779
3.668	14.90479
3.6685	9.97009
3.669	6.2439
3.6695	6.2439
3.67	11.68213
3.6705	14.50195
3.671	10.57434
3.6715	9.16443
3.672	2.21558
3.6725	-0.60425
3.673	6.14319
3.6735	4.22974
3.674	7.45239
3.6745	6.04248
3.675	6.04248
3.6755	0.70496
3.676	-3.12195
3.6765	-5.84106
3.677	-2.71912
3.6775	-2.01416
3.678	-7.95593
3.6785	-12.68921
3.679	-17.01965
3.6795	-10.77576
3.68	-10.97717
3.6805	-3.02124
3.681	-0.70496
3.6815	9.06372
3.682	4.53186
3.6825	-13.797
3.683	-21.65222
3.6835	-26.08337
3.684	-27.89612
3.6845	-34.64355
3.685	-32.32727
3.6855	-27.79541
3.686	-20.64514
3.6865	-18.53027
3.687	-30.61523
3.6875	-38.06763
3.688	-14.60266
3.6885	30.81665
3.689	62.03613
3.6895	87.21313
3.69	102.52075
3.6905	130.21545
3.691	151.46484
3.6915	167.47742
3.692	190.03601
3.6925	187.01477
3.693	177.44751
3.6935	144.31458
3.694	109.26819
3.6945	71.20056
3.695	39.98108
3.6955	2.92053
3.696	-32.42798
3.6965	-80.76782
3.697	-112.99438
3.6975	-134.5459
3.698	-132.0282
3.6985	-125.07935
3.699	-127.59705
3.6995	-123.36731
3.7	-109.87244
3.7005	-90.63721
3.701	-57.10144
3.7015	-35.34851
3.702	-16.01257
3.7025	-1.61133
3.703	6.14319
3.7035	9.06372
3.704	9.76868
3.7045	7.65381
3.705	6.84814
3.7055	10.57434
3.706	12.18567
3.7065	-0.40283
3.707	18.22815
3.7075	33.13293
3.708	43.20374
3.7085	47.8363
3.709	45.01648
3.7095	44.71436
3.71	52.46887
3.7105	55.2887
3.711	65.05737
3.7115	74.62463
3.712	74.2218
3.7125	55.69153
3.713	34.14001
3.7135	23.66638
3.714	1.10779
3.7145	-27.89612
3.715	-65.25879
3.7155	-81.67419
3.716	-82.88269
3.7165	-75.73242
3.717	-57.9071
3.7175	-59.01489
3.718	-55.08728
3.7185	-53.87878
3.719	-50.05188
3.7195	-52.771
3.72	-54.48303
3.7205	-45.52002
3.721	-40.48462
3.7215	-24.37134
3.722	0.30212
3.7225	20.04089
3.723	36.4563
3.7235	45.62073
3.724	53.27454
3.7245	72.40906
3.725	86.20605
3.7255	91.54358
3.726	94.3634
3.7265	88.52234
3.727	81.67419
3.7275	73.81897
3.728	57.60498
3.7285	39.67896
3.729	22.15576
3.7295	2.21558
3.73	-15.50903
3.7305	-24.47205
3.731	-18.02673
3.7315	-22.76001
3.732	-32.32727
3.7325	-33.43506
3.733	-21.65222
3.7335	-19.23523
3.734	-20.34302
3.7345	-20.74585
3.735	-11.48071
3.7355	0.30212
3.736	12.38708
3.7365	16.91895
3.737	19.33594
3.7375	18.93311
3.738	24.06921
3.7385	21.04797
3.739	25.98267
3.7395	25.57983
3.74	24.47205
3.7405	20.84656
3.741	22.05505
3.7415	24.47205
3.742	27.39258
3.7425	31.52161
3.743	31.92444
3.7435	33.43506
3.744	26.98975
3.7445	19.03381
3.745	11.17859
3.7455	11.38
3.746	11.68213
3.7465	14.19983
3.747	23.16284
3.7475	34.74426
3.748	55.89294
3.7485	62.64038
3.749	56.5979
3.7495	47.33276
3.75	47.93701
3.7505	53.47595
3.751	54.28162
3.7515	59.01489
3.752	62.33826
3.7525	70.49561
3.753	80.06287
3.7535	66.56799
3.754	52.67029
3.7545	38.87329
3.755	21.24939
3.7555	-1.2085
3.756	-31.82373
3.7565	-47.13135
3.757	-63.54675
3.7575	-59.61914
3.758	-69.99207
3.7585	-76.33667
3.759	-72.00623
3.7595	-66.56799
3.76	-69.28711
3.7605	-70.09277
3.761	-65.3595
3.7615	-68.48145
3.762	-64.85596
3.7625	-47.93701
3.763	-40.78674
3.7635	-30.2124
3.764	-18.12744
3.7645	-5.84106
3.765	4.83398
3.7655	20.44373
3.766	29.60815
3.7665	37.56409
3.767	37.36267
3.7675	29.60815
3.768	17.42249
3.7685	10.37292
3.769	12.08496
3.7695	2.5177
3.77	3.12195
3.7705	3.8269
3.771	-1.91345
3.7715	2.71912
3.772	8.8623
3.7725	11.07788
3.773	14.30054
3.7735	12.78992
3.774	4.22974
3.7745	6.84814
3.775	29.80957
3.7755	40.78674
3.776	37.66479
3.7765	40.2832
3.777	44.61365
3.7775	50.05188
3.778	45.72144
3.7785	43.00232
3.779	36.55701
3.7795	27.6947
3.78	18.73169
3.7805	2.92053
3.781	-0.30212
3.7815	-5.84106
3.782	-9.86938
3.7825	-27.29187
3.783	-48.94409
3.7835	-69.68994
3.784	-68.98499
3.7845	-71.60339
3.785	-66.87012
3.7855	-40.38391
3.786	-23.16284
3.7865	-9.46655
3.787	7.5531
3.7875	7.35168
3.788	14.19983
3.7885	16.11328
3.789	17.52319
3.7895	16.51611
3.79	11.17859
3.7905	-7.45239
3.791	-13.59558
3.7915	-11.58142
3.792	-17.92603
3.7925	-18.32886
3.793	-16.81824
3.7935	-11.58142
3.794	-20.54443
3.7945	-10.37292
3.795	-12.08496
3.7955	6.64673
3.796	5.23682
3.7965	24.27063
3.797	47.33276
3.7975	69.08569
3.798	86.10535
3.7985	78.35083
3.799	76.63879
3.7995	82.37915
3.8	88.22021
3.8005	94.3634
3.801	93.75916
3.8015	95.47119
3.802	84.09119
3.8025	70.79773
3.803	42.90161
3.8035	20.24231
3.804	4.93469
3.8045	-2.71912
3.805	-5.94177
3.8055	-11.38
3.806	-9.66797
3.8065	0.10071
3.807	12.5885
3.8075	6.14319
3.808	-5.53894
3.8085	-16.41541
3.809	-28.19824
3.8095	-27.6947
3.81	-36.35559
3.8105	-39.17542
3.811	-27.49329
3.8115	-1.10779
3.812	36.95984
3.8125	53.37524
3.813	51.36108
3.8135	62.23755
3.814	75.83313
3.8145	80.36499
3.815	83.28552
3.8155	75.4303
3.816	63.04321
3.8165	41.18958
3.817	20.94727
3.8175	10.17151
3.818	-10.77576
3.8185	-18.73169
3.819	-35.2478
3.8195	-52.97241
3.82	-67.67578
3.8205	-72.30835
3.821	-62.13684
3.8215	-61.23047
3.822	-58.81348
3.8225	-54.18091
3.823	-31.01807
3.8235	-9.97009
3.824	7.15027
3.8245	20.84656
3.825	27.29187
3.8255	36.75842
3.826	40.68604
3.8265	39.47754
3.827	28.70178
3.8275	20.54443
3.828	20.04089
3.8285	4.02832
3.829	-8.05664
3.8295	-22.25647
3.83	-35.95276
3.8305	-43.60657
3.831	-56.19507
3.8315	-62.9425
3.832	-53.47595
3.8325	-39.98108
3.833	-36.55701
3.8335	-30.81665
3.834	-15.50903
3.8345	-17.42249
3.835	-13.09204
3.8355	-10.67505
3.836	-11.68213
3.8365	-2.71912
3.837	-11.98425
3.8375	-20.94727
3.838	-18.53027
3.8385	-16.11328
3.839	-18.73169
3.8395	-16.81824
3.84	-8.15735
3.8405	1.91345
3.841	29.80957
3.8415	48.74268
3.842	59.71985
3.8425	77.84729
3.843	94.2627
3.8435	102.72217
3.844	97.58606
3.8445	73.21472
3.845	60.92834
3.8455	45.92285
3.846	29.70886
3.8465	26.28479
3.847	10.87646
3.8475	9.06372
3.848	1.40991
3.8485	-2.41699
3.849	-17.72461
3.8495	-31.62231
3.85	-39.47754
3.8505	-45.3186
3.851	-42.19666
3.8515	-36.05347
3.852	-22.86072
3.8525	-20.64514
3.853	-10.57434
3.8535	-6.3446
3.854	-4.63257
3.8545	-9.97009
3.855	-7.35168
3.8555	-10.67505
3.856	-22.86072
3.8565	-19.33594
3.857	-14.60266
3.8575	-13.39417
3.858	12.89062
3.8585	28.29895
3.859	60.4248
3.8595	93.65845
3.86	116.72058
3.8605	127.19421
3.861	141.09192
3.8615	149.6521
3.862	133.13599
3.8625	122.96448
3.863	95.47119
3.8635	70.3949
3.864	44.61365
3.8645	12.78992
3.865	-13.797
3.8655	-40.08179
3.866	-78.35083
3.8665	-104.53491
3.867	-114.90784
3.8675	-124.97864
3.868	-129.61121
3.8685	-117.72766
3.869	-100.80872
3.8695	-88.92517
3.87	-80.76782
3.8705	-61.02905
3.871	-36.15417
3.8715	-19.63806
3.872	-4.93469
3.8725	9.86938
3.873	13.89771
3.8735	22.35718
3.874	23.8678
3.8745	28.80249
3.875	34.74426
3.8755	38.87329
3.876	42.09595
3.8765	45.92285
3.877	46.32568
3.8775	42.39807
3.878	45.62073
3.8785	41.08887
3.879	42.29736
3.8795	47.8363
3.88	43.30444
3.8805	43.10303
3.881	39.07471
3.8815	46.32568
3.882	35.2478
3.8825	29.10461
3.883	30.11169
3.8835	17.01965
3.884	2.92053
3.8845	-3.42407
3.885	-3.8269
3.8855	-1.40991
3.886	2.01416
3.8865	18.53027
3.887	29.70886
3.8875	43.40515
3.888	52.16675
3.8885	35.85205
3.889	10.27222
3.8895	-3.02124
3.89	-16.01257
3.8905	-21.3501
3.891	-22.6593
3.8915	-21.3501
3.892	-9.86938
3.8925	-9.56726
3.893	-15.20691
3.8935	-14.60266
3.894	-23.06213
3.8945	-25.37842
3.895	-32.83081
3.8955	-30.31311
3.896	-16.81824
3.8965	-15.81116
3.897	-17.6239
3.8975	-8.45947
3.898	-1.51062
3.8985	2.81982
3.899	11.98425
3.8995	20.54443
3.9	33.23364
3.9005	39.67896
3.901	45.62073
3.9015	38.16833
3.902	24.47205
3.9025	19.53735
3.903	22.05505
3.9035	33.03223
3.904	38.36975
3.9045	44.0094
3.905	56.49719
3.9055	64.85596
3.906	56.79932
3.9065	45.41931
3.907	31.32019
3.9075	22.76001
3.908	30.11169
3.9085	39.77966
3.909	41.69312
3.9095	34.64355
3.91	32.93152
3.9105	38.16833
3.911	30.61523
3.9115	17.52319
3.912	19.03381
3.9125	4.33044
3.913	43.10303
3.9135	74.2218
3.914	92.14783
3.9145	88.11951
3.915	75.22888
3.9155	57.8064
3.916	40.58533
3.9165	28.09753
3.917	15.1062
3.9175	0.10071
3.918	-24.06921
3.9185	-38.16833
3.919	-69.48853
3.9195	-90.73792
3.92	-112.49084
3.9205	-132.53174
3.921	-143.10608
3.9215	-127.49634
3.922	-78.45154
3.9225	-47.33276
3.923	-35.75134
3.9235	-13.89771
3.924	4.02832
3.9245	13.09204
3.925	19.13452
3.9255	26.98975
3.926	25.88196
3.9265	4.83398
3.927	-11.48071
3.9275	-28.9032
3.928	-36.85913
3.9285	-39.57825
3.929	-52.16675
3.9295	-67.07153
3.93	-54.78516
3.9305	-45.01648
3.931	-35.34851
3.9315	-32.83081
3.932	-24.16992
3.9325	-10.27222
3.933	9.16443
3.9335	7.85522
3.934	9.26514
3.9345	10.17151
3.935	8.25806
3.9355	1.3092
3.936	6.2439
3.9365	4.73328
3.937	2.81982
3.9375	4.02832
3.938	8.45947
3.9385	16.51611
3.939	25.98267
3.9395	21.14868
3.94	20.84656
3.9405	20.94727
3.941	23.06213
3.9415	29.80957
3.942	24.16992
3.9425	14.19983
3.943	14.19983
3.9435	21.55151
3.944	24.97559
3.9445	24.37134
3.945	23.06213
3.9455	25.68054
3.946	37.36267
3.9465	46.32568
3.947	52.771
3.9475	65.46021
3.948	65.76233
3.9485	60.22339
3.949	49.54834
3.9495	38.36975
3.95	41.59241
3.9505	27.59399
3.951	32.32727
3.9515	23.96851
3.952	15.60974
3.9525	7.45239
3.953	-14.19983
3.9535	-24.27063
3.954	-30.81665
3.9545	-40.58533
3.955	-43.20374
3.9555	-47.23206
3.956	-46.62781
3.9565	-52.8717
3.957	-55.08728
3.9575	-59.01489
3.958	-63.74817
3.9585	-50.95825
3.959	-36.05347
3.9595	-24.37134
3.96	-12.38708
3.9605	3.92761
3.961	5.33752
3.9615	-7.75452
3.962	-32.52869
3.9625	-41.79382
3.963	-47.13135
3.9635	-40.1825
3.964	-26.3855
3.9645	-18.73169
3.965	-10.57434
3.9655	2.81982
3.966	9.56726
3.9665	25.88196
3.967	28.19824
3.9675	26.58691
3.968	32.52869
3.9685	43.00232
3.969	45.52002
3.9695	38.16833
3.97	34.14001
3.9705	25.177
3.971	16.41541
3.9715	20.04089
3.972	17.22107
3.9725	7.15027
3.973	23.56567
3.9735	37.96692
3.974	49.95117
3.9745	55.3894
3.975	77.04163
3.9755	113.80005
3.976	139.07776
3.9765	149.6521
3.977	145.9259
3.9775	139.27917
3.978	119.54041
3.9785	89.63013
3.979	64.45312
3.9795	35.75134
3.98	15.91187
3.9805	-19.94019
3.981	-48.23914
3.9815	-64.95667
3.982	-62.23755
3.9825	-65.66162
3.983	-67.8772
3.9835	-75.12817
3.984	-70.79773
3.9845	-69.08569
3.985	-66.97083
3.9855	-49.64905
3.986	-46.42639
3.9865	-39.88037
3.987	-31.4209
3.9875	-18.63098
3.988	-15.20691
3.9885	-12.99133
3.989	0
3.9895	3.92761
3.99	3.12195
3.9905	6.04248
3.991	13.89771
3.9915	23.16284
3.992	23.8678
3.9925	22.55859
3.993	14.90479
3.9935	13.99841
3.994	12.38708
3.9945	-13.39417
3.995	-33.73718
3.9955	-34.94568
3.996	-32.42798
3.9965	-29.10461
3.997	-21.85364
3.9975	-14.50195
3.998	-8.96301
3.9985	7.45239
3.999	15.1062
3.9995	21.95435
4	30.61523
4.0005	34.34143
4.001	40.1825
4.0015	36.55701
4.002	29.80957
4.0025	32.52869
4.003	31.72302
4.0035	38.974
4.004	34.94568
4.0045	40.08179
4.005	35.34851
4.0055	27.79541
4.006	9.56726
4.0065	-0.70496
4.007	-9.76868
4.0075	-6.3446
4.008	-9.56726
4.0085	-11.88354
4.009	-2.11487
4.0095	0.50354
4.01	2.31628
4.0105	4.73328
4.011	3.8269
4.0115	-0.60425
4.012	11.68213
4.0125	8.25806
4.013	6.84814
4.0135	8.56018
4.014	-1.91345
4.0145	-4.53186
4.015	-3.62549
4.0155	11.58142
4.016	35.14709
4.0165	44.71436
4.017	46.02356
4.0175	45.01648
4.018	38.974
4.0185	29.80957
4.019	24.37134
4.0195	17.72461
4.02	10.37292
4.0205	0.80566
4.021	-0.10071
4.0215	-6.94885
4.022	-21.04797
4.0225	-35.75134
4.023	-40.2832
4.0235	-4.22974
4.024	21.85364
4.0245	36.05347
4.025	36.15417
4.0255	36.75842
4.026	31.62231
4.0265	31.52161
4.027	33.13293
4.0275	12.38708
4.028	-1.61133
4.0285	-25.177
4.029	-31.92444
4.0295	-33.33435
4.03	-32.7301
4.0305	-48.54126
4.031	-40.78674
4.0315	-29.20532
4.032	-8.56018
4.0325	15.50903
4.033	24.87488
4.0335	36.35559
4.034	31.11877
4.0345	29.80957
4.035	32.12585
4.0355	40.38391
4.036	70.49561
4.0365	88.42163
4.037	95.37048
4.0375	101.51367
4.038	92.34924
4.0385	86.30676
4.039	70.99915
4.0395	59.31702
4.04	50.65613
4.0405	32.02515
4.041	7.15027
4.0415	-4.33044
4.042	-15.00549
4.0425	-25.07629
4.043	-29.20532
4.0435	-32.93152
4.044	-42.49878
4.0445	-46.22498
4.045	-45.72144
4.0455	-45.62073
4.046	-34.64355
4.0465	-17.6239
4.047	-9.76868
4.0475	-13.89771
