Gianluca_La_Polta_Left_2.c3d  



Time(s):	A_R_bicipite(μV):
0	8.15735
0.0005	8.56018
0.001	7.75452
0.0015	6.64673
0.002	7.95593
0.0025	4.12903
0.003	5.94177
0.0035	3.62549
0.004	5.43823
0.0045	5.63965
0.005	3.52478
0.0055	4.73328
0.006	-1.2085
0.0065	0.80566
0.007	1.3092
0.0075	5.63965
0.008	6.3446
0.0085	11.48071
0.009	8.96301
0.0095	4.73328
0.01	5.94177
0.0105	5.0354
0.011	8.96301
0.0115	4.83398
0.012	8.56018
0.0125	6.94885
0.013	5.43823
0.0135	9.16443
0.014	8.45947
0.0145	8.8623
0.015	1.71204
0.0155	1.10779
0.016	3.8269
0.0165	4.93469
0.017	5.33752
0.0175	-0.70496
0.018	3.7262
0.0185	8.45947
0.019	5.43823
0.0195	4.02832
0.02	4.33044
0.0205	4.12903
0.021	7.04956
0.0215	8.05664
0.022	8.66089
0.0225	8.45947
0.023	8.15735
0.0235	9.97009
0.024	3.92761
0.0245	6.74744
0.025	5.84106
0.0255	6.2439
0.026	2.92053
0.0265	8.56018
0.027	13.29346
0.0275	13.29346
0.028	19.43665
0.0285	11.88354
0.029	7.65381
0.0295	7.25098
0.03	4.12903
0.0305	10.17151
0.031	8.56018
0.0315	8.7616
0.032	7.95593
0.0325	15.30762
0.033	12.68921
0.0335	4.33044
0.034	9.36584
0.0345	14.50195
0.035	5.84106
0.0355	10.27222
0.036	3.62549
0.0365	7.15027
0.037	5.63965
0.0375	7.65381
0.038	5.84106
0.0385	3.7262
0.039	5.63965
0.0395	4.22974
0.04	4.02832
0.0405	3.42407
0.041	3.42407
0.0415	5.0354
0.042	3.7262
0.0425	7.95593
0.043	6.3446
0.0435	10.57434
0.044	4.73328
0.0445	11.78284
0.045	5.13611
0.0455	5.84106
0.046	4.22974
0.0465	7.45239
0.047	5.0354
0.0475	2.01416
0.048	4.33044
0.0485	7.15027
0.049	11.58142
0.0495	5.13611
0.05	0.30212
0.0505	0.10071
0.051	5.84106
0.0515	3.62549
0.052	6.44531
0.0525	9.06372
0.053	3.8269
0.0535	4.63257
0.054	1.10779
0.0545	7.5531
0.055	6.14319
0.0555	5.13611
0.056	2.71912
0.0565	3.92761
0.057	6.04248
0.0575	6.94885
0.058	9.26514
0.0585	1.10779
0.059	9.86938
0.0595	2.61841
0.06	12.38708
0.0605	10.47363
0.061	6.3446
0.0615	8.05664
0.062	9.46655
0.0625	3.22266
0.063	5.63965
0.0635	14.50195
0.064	10.77576
0.0645	8.15735
0.065	7.04956
0.0655	7.15027
0.066	2.31628
0.0665	2.31628
0.067	9.36584
0.0675	2.81982
0.068	1.91345
0.0685	1.00708
0.069	5.94177
0.0695	0.90637
0.07	2.21558
0.0705	3.92761
0.071	6.54602
0.0715	1.3092
0.072	1.81274
0.0725	2.81982
0.073	2.11487
0.0735	4.73328
0.074	-0.20142
0.0745	0.90637
0.075	1.10779
0.0755	-1.81274
0.076	-2.92053
0.0765	0.80566
0.077	-1.00708
0.0775	-2.21558
0.078	-2.92053
0.0785	-3.42407
0.079	0.30212
0.0795	-0.40283
0.08	2.11487
0.0805	1.40991
0.081	3.12195
0.0815	1.61133
0.082	6.64673
0.0825	2.5177
0.083	5.0354
0.0835	4.83398
0.084	2.21558
0.0845	5.23682
0.085	5.74036
0.0855	4.83398
0.086	3.52478
0.0865	4.73328
0.087	0.50354
0.0875	4.12903
0.088	2.11487
0.0885	5.23682
0.089	9.16443
0.0895	9.86938
0.09	11.07788
0.0905	5.33752
0.091	6.94885
0.0915	11.38
0.092	9.46655
0.0925	11.98425
0.093	10.77576
0.0935	13.797
0.094	10.37292
0.0945	7.5531
0.095	10.0708
0.0955	13.797
0.096	8.25806
0.0965	5.74036
0.097	7.04956
0.0975	5.74036
0.098	8.05664
0.0985	4.63257
0.099	9.16443
0.0995	6.74744
0.1	9.36584
0.1005	10.17151
0.101	11.58142
0.1015	10.37292
0.102	9.36584
0.1025	15.30762
0.103	13.797
0.1035	5.94177
0.104	4.43115
0.1045	16.81824
0.105	13.29346
0.1055	5.33752
0.106	8.45947
0.1065	4.33044
0.107	10.67505
0.1075	6.84814
0.108	6.54602
0.1085	7.95593
0.109	12.89062
0.1095	11.48071
0.11	8.15735
0.1105	10.0708
0.111	7.75452
0.1115	6.74744
0.112	5.63965
0.1125	9.66797
0.113	4.12903
0.1135	10.77576
0.114	10.47363
0.1145	11.68213
0.115	8.96301
0.1155	6.3446
0.116	7.15027
0.1165	6.3446
0.117	6.84814
0.1175	3.42407
0.118	2.01416
0.1185	4.02832
0.119	3.8269
0.1195	8.35876
0.12	7.04956
0.1205	4.63257
0.121	5.43823
0.1215	10.77576
0.122	6.74744
0.1225	8.66089
0.123	10.0708
0.1235	12.38708
0.124	7.75452
0.1245	3.92761
0.125	3.62549
0.1255	6.44531
0.126	4.53186
0.1265	3.62549
0.127	6.44531
0.1275	2.11487
0.128	6.84814
0.1285	0.50354
0.129	4.02832
0.1295	5.0354
0.13	4.63257
0.1305	3.12195
0.131	4.53186
0.1315	3.42407
0.132	9.36584
0.1325	4.63257
0.133	4.73328
0.1335	4.12903
0.134	8.66089
0.1345	-1.3092
0.135	4.02832
0.1355	5.74036
0.136	5.33752
0.1365	7.15027
0.137	7.04956
0.1375	10.17151
0.138	6.94885
0.1385	5.13611
0.139	7.75452
0.1395	10.87646
0.14	10.37292
0.1405	6.04248
0.141	9.16443
0.1415	9.16443
0.142	7.35168
0.1425	13.49487
0.143	1.61133
0.1435	6.44531
0.144	1.2085
0.1445	8.15735
0.145	5.74036
0.1455	8.66089
0.146	6.74744
0.1465	7.45239
0.147	3.8269
0.1475	3.8269
0.148	4.02832
0.1485	0.60425
0.149	3.92761
0.1495	-2.01416
0.15	-0.30212
0.1505	6.2439
0.151	2.11487
0.1515	2.41699
0.152	2.41699
0.1525	3.22266
0.153	4.12903
0.1535	6.84814
0.154	5.33752
0.1545	1.2085
0.155	3.7262
0.1555	2.5177
0.156	0.90637
0.1565	1.71204
0.157	3.92761
0.1575	4.83398
0.158	0.70496
0.1585	2.41699
0.159	11.07788
0.1595	9.06372
0.16	6.94885
0.1605	6.04248
0.161	2.01416
0.1615	8.66089
0.162	5.0354
0.1625	0.80566
0.163	6.2439
0.1635	5.23682
0.164	7.5531
0.1645	5.74036
0.165	6.14319
0.1655	5.53894
0.166	7.15027
0.1665	5.94177
0.167	4.53186
0.1675	8.25806
0.168	7.25098
0.1685	0.80566
0.169	7.95593
0.1695	10.37292
0.17	6.04248
0.1705	5.74036
0.171	6.74744
0.1715	6.2439
0.172	4.73328
0.1725	4.43115
0.173	6.04248
0.1735	4.93469
0.174	9.26514
0.1745	3.62549
0.175	7.5531
0.1755	9.46655
0.176	6.84814
0.1765	6.94885
0.177	10.37292
0.1775	6.84814
0.178	5.0354
0.1785	8.56018
0.179	9.56726
0.1795	6.54602
0.18	4.73328
0.1805	7.15027
0.181	3.8269
0.1815	7.15027
0.182	7.5531
0.1825	9.26514
0.183	7.5531
0.1835	8.7616
0.184	8.8623
0.1845	11.38
0.185	8.25806
0.1855	6.14319
0.186	10.87646
0.1865	10.87646
0.187	9.97009
0.1875	7.85522
0.188	6.94885
0.1885	11.58142
0.189	7.04956
0.1895	2.92053
0.19	6.2439
0.1905	8.56018
0.191	3.8269
0.1915	6.44531
0.192	7.15027
0.1925	5.33752
0.193	7.65381
0.1935	2.61841
0.194	7.35168
0.1945	3.32336
0.195	5.13611
0.1955	3.7262
0.196	6.44531
0.1965	0.20142
0.197	5.23682
0.1975	4.22974
0.198	8.7616
0.1985	6.74744
0.199	5.63965
0.1995	12.18567
0.2	6.54602
0.2005	8.7616
0.201	-1.10779
0.2015	3.8269
0.202	3.62549
0.2025	2.01416
0.203	-1.10779
0.2035	4.93469
0.204	8.96301
0.2045	7.04956
0.205	6.54602
0.2055	5.53894
0.206	8.05664
0.2065	3.7262
0.207	8.7616
0.2075	4.93469
0.208	6.2439
0.2085	5.23682
0.209	3.7262
0.2095	0.10071
0.21	4.73328
0.2105	2.92053
0.211	0.50354
0.2115	3.12195
0.212	2.21558
0.2125	5.74036
0.213	3.12195
0.2135	3.42407
0.214	0.90637
0.2145	4.12903
0.215	5.74036
0.2155	8.45947
0.216	3.02124
0.2165	5.13611
0.217	7.45239
0.2175	2.21558
0.218	0.50354
0.2185	-0.30212
0.219	4.93469
0.2195	1.2085
0.22	0.60425
0.2205	2.71912
0.221	7.04956
0.2215	5.43823
0.222	5.53894
0.2225	4.83398
0.223	3.12195
0.2235	5.63965
0.224	3.02124
0.2245	5.43823
0.225	6.04248
0.2255	8.15735
0.226	3.8269
0.2265	4.02832
0.227	1.00708
0.2275	3.22266
0.228	4.22974
0.2285	9.76868
0.229	10.57434
0.2295	10.77576
0.23	7.65381
0.2305	8.96301
0.231	4.12903
0.2315	5.63965
0.232	3.52478
0.2325	6.44531
0.233	5.43823
0.2335	1.51062
0.234	4.43115
0.2345	6.3446
0.235	9.16443
0.2355	10.27222
0.236	8.35876
0.2365	3.62549
0.237	2.11487
0.2375	4.63257
0.238	5.43823
0.2385	1.40991
0.239	7.25098
0.2395	3.7262
0.24	2.31628
0.2405	2.92053
0.241	4.83398
0.2415	1.2085
0.242	-2.31628
0.2425	6.44531
0.243	5.63965
0.2435	8.25806
0.244	12.99133
0.2445	7.45239
0.245	8.25806
0.2455	8.25806
0.246	5.13611
0.2465	10.37292
0.247	7.04956
0.2475	8.7616
0.248	4.02832
0.2485	5.43823
0.249	3.52478
0.2495	-2.01416
0.25	7.5531
0.2505	7.5531
0.251	8.05664
0.2515	6.04248
0.252	5.53894
0.2525	7.5531
0.253	6.54602
0.2535	10.57434
0.254	7.5531
0.2545	6.54602
0.255	6.44531
0.2555	8.8623
0.256	5.63965
0.2565	4.73328
0.257	11.58142
0.2575	13.797
0.258	6.94885
0.2585	7.5531
0.259	6.64673
0.2595	3.22266
0.26	9.26514
0.2605	8.25806
0.261	12.68921
0.2615	7.65381
0.262	1.2085
0.2625	1.2085
0.263	5.84106
0.2635	1.3092
0.264	2.11487
0.2645	0.60425
0.265	2.71912
0.2655	2.81982
0.266	0.80566
0.2665	3.92761
0.267	2.31628
0.2675	2.11487
0.268	6.64673
0.2685	5.33752
0.269	2.21558
0.2695	8.56018
0.27	3.7262
0.2705	0.80566
0.271	6.54602
0.2715	8.66089
0.272	3.42407
0.2725	8.56018
0.273	7.65381
0.2735	8.15735
0.274	8.15735
0.2745	4.33044
0.275	5.74036
0.2755	6.14319
0.276	5.0354
0.2765	0.40283
0.277	6.54602
0.2775	7.15027
0.278	3.22266
0.2785	-1.61133
0.279	5.0354
0.2795	5.63965
0.28	5.23682
0.2805	10.37292
0.281	4.83398
0.2815	2.5177
0.282	3.7262
0.2825	9.97009
0.283	6.94885
0.2835	7.04956
0.284	5.94177
0.2845	4.93469
0.285	8.45947
0.2855	8.45947
0.286	4.33044
0.2865	4.93469
0.287	9.36584
0.2875	5.63965
0.288	4.73328
0.2885	4.73328
0.289	4.53186
0.2895	3.22266
0.29	2.5177
0.2905	9.66797
0.291	10.67505
0.2915	8.15735
0.292	8.66089
0.2925	10.37292
0.293	6.74744
0.2935	9.76868
0.294	7.35168
0.2945	8.66089
0.295	13.09204
0.2955	12.99133
0.296	15.60974
0.2965	11.2793
0.297	11.38
0.2975	12.99133
0.298	6.04248
0.2985	10.47363
0.299	10.97717
0.2995	10.57434
0.3	14.60266
0.3005	17.22107
0.301	13.797
0.3015	11.07788
0.302	14.50195
0.3025	15.00549
0.303	4.93469
0.3035	9.76868
0.304	12.28638
0.3045	16.41541
0.305	9.97009
0.3055	9.06372
0.306	6.14319
0.3065	6.74744
0.307	10.57434
0.3075	9.06372
0.308	14.80408
0.3085	6.2439
0.309	5.74036
0.3095	5.13611
0.31	3.92761
0.3105	3.92761
0.311	2.61841
0.3115	3.52478
0.312	6.74744
0.3125	7.35168
0.313	8.25806
0.3135	6.2439
0.314	10.27222
0.3145	2.11487
0.315	6.64673
0.3155	9.06372
0.316	7.85522
0.3165	6.2439
0.317	10.37292
0.3175	15.40833
0.318	10.47363
0.3185	8.45947
0.319	8.96301
0.3195	6.64673
0.32	8.45947
0.3205	6.44531
0.321	7.5531
0.3215	7.25098
0.322	4.43115
0.3225	0.90637
0.323	8.8623
0.3235	4.83398
0.324	0
0.3245	7.65381
0.325	6.74744
0.3255	6.44531
0.326	1.71204
0.3265	1.81274
0.327	-3.42407
0.3275	-1.51062
0.328	3.92761
0.3285	1.3092
0.329	0.60425
0.3295	6.2439
0.33	0.90637
0.3305	2.31628
0.331	2.5177
0.3315	-0.60425
0.332	-1.71204
0.3325	0.10071
0.333	5.63965
0.3335	2.11487
0.334	3.52478
0.3345	3.32336
0.335	3.42407
0.3355	3.12195
0.336	4.12903
0.3365	0.90637
0.337	2.21558
0.3375	1.71204
0.338	-2.5177
0.3385	-2.41699
0.339	1.40991
0.3395	2.11487
0.34	1.2085
0.3405	10.57434
0.341	10.57434
0.3415	10.27222
0.342	12.5885
0.3425	4.12903
0.343	9.06372
0.3435	4.63257
0.344	8.7616
0.3445	8.96301
0.345	12.28638
0.3455	11.78284
0.346	6.54602
0.3465	5.23682
0.347	6.04248
0.3475	8.05664
0.348	6.54602
0.3485	7.75452
0.349	10.67505
0.3495	16.21399
0.35	6.14319
0.3505	10.0708
0.351	9.06372
0.3515	7.85522
0.352	1.81274
0.3525	4.93469
0.353	8.05664
0.3535	7.65381
0.354	8.25806
0.3545	5.94177
0.355	7.45239
0.3555	6.04248
0.356	7.75452
0.3565	6.84814
0.357	1.10779
0.3575	2.21558
0.358	-0.70496
0.3585	3.62549
0.359	2.41699
0.3595	2.71912
0.36	2.92053
0.3605	6.44531
0.361	6.64673
0.3615	10.27222
0.362	14.09912
0.3625	10.77576
0.363	16.3147
0.3635	16.3147
0.364	16.01257
0.3645	10.0708
0.365	0.20142
0.3655	-1.2085
0.366	-2.21558
0.3665	-0.70496
0.367	1.2085
0.3675	1.2085
0.368	-2.71912
0.3685	0.90637
0.369	3.52478
0.3695	8.7616
0.37	4.43115
0.3705	2.92053
0.371	3.02124
0.3715	-1.2085
0.372	8.05664
0.3725	5.53894
0.373	2.41699
0.3735	1.00708
0.374	0.90637
0.3745	0.40283
0.375	2.81982
0.3755	2.81982
0.376	2.5177
0.3765	2.92053
0.377	5.33752
0.3775	1.71204
0.378	-1.2085
0.3785	4.73328
0.379	5.23682
0.3795	2.71912
0.38	6.14319
0.3805	4.73328
0.381	1.10779
0.3815	-1.10779
0.382	0.10071
0.3825	2.61841
0.383	6.04248
0.3835	1.2085
0.384	5.63965
0.3845	6.94885
0.385	4.02832
0.3855	5.13611
0.386	8.7616
0.3865	3.8269
0.387	7.75452
0.3875	9.16443
0.388	4.43115
0.3885	4.73328
0.389	12.18567
0.3895	7.04956
0.39	1.61133
0.3905	8.35876
0.391	5.23682
0.3915	4.83398
0.392	4.02832
0.3925	-0.70496
0.393	1.81274
0.3935	1.2085
0.394	3.22266
0.3945	5.13611
0.395	2.81982
0.3955	6.04248
0.396	8.96301
0.3965	9.56726
0.397	8.8623
0.3975	6.84814
0.398	6.2439
0.3985	2.31628
0.399	6.64673
0.3995	6.84814
0.4	7.35168
0.4005	6.64673
0.401	10.0708
0.4015	10.0708
0.402	7.45239
0.4025	6.84814
0.403	9.06372
0.4035	10.97717
0.404	8.25806
0.4045	10.67505
0.405	9.36584
0.4055	6.2439
0.406	6.04248
0.4065	9.76868
0.407	8.8623
0.4075	10.27222
0.408	4.93469
0.4085	5.63965
0.409	7.45239
0.4095	7.45239
0.41	8.05664
0.4105	1.91345
0.411	6.3446
0.4115	7.25098
0.412	7.75452
0.4125	7.75452
0.413	12.48779
0.4135	10.0708
0.414	5.63965
0.4145	-0.30212
0.415	6.3446
0.4155	3.02124
0.416	2.92053
0.4165	5.13611
0.417	6.74744
0.4175	5.13611
0.418	6.74744
0.4185	7.5531
0.419	1.51062
0.4195	9.76868
0.42	3.02124
0.4205	1.40991
0.421	-0.10071
0.4215	1.71204
0.422	0.40283
0.4225	5.0354
0.423	3.02124
0.4235	10.57434
0.424	5.23682
0.4245	3.92761
0.425	8.25806
0.4255	7.04956
0.426	3.02124
0.4265	7.15027
0.427	4.22974
0.4275	4.93469
0.428	4.53186
0.4285	7.5531
0.429	0.20142
0.4295	2.5177
0.43	2.5177
0.4305	2.92053
0.431	3.8269
0.4315	7.75452
0.432	9.16443
0.4325	8.8623
0.433	8.66089
0.4335	6.74744
0.434	7.65381
0.4345	7.25098
0.435	9.26514
0.4355	9.46655
0.436	8.56018
0.4365	5.84106
0.437	5.43823
0.4375	6.44531
0.438	10.47363
0.4385	11.17859
0.439	3.52478
0.4395	3.92761
0.44	3.02124
0.4405	0.70496
0.441	5.13611
0.4415	2.11487
0.442	1.71204
0.4425	2.41699
0.443	8.66089
0.4435	5.63965
0.444	10.17151
0.4445	2.21558
0.445	2.11487
0.4455	3.52478
0.446	4.53186
0.4465	1.81274
0.447	5.74036
0.4475	4.02832
0.448	3.02124
0.4485	7.25098
0.449	6.54602
0.4495	7.25098
0.45	3.42407
0.4505	9.66797
0.451	7.45239
0.4515	7.75452
0.452	2.5177
0.4525	2.41699
0.453	2.11487
0.4535	7.15027
0.454	4.83398
0.4545	2.21558
0.455	7.04956
0.4555	13.99841
0.456	7.65381
0.4565	5.63965
0.457	1.61133
0.4575	4.83398
0.458	5.43823
0.4585	7.95593
0.459	3.02124
0.4595	6.2439
0.46	4.22974
0.4605	2.41699
0.461	5.53894
0.4615	4.53186
0.462	5.13611
0.4625	3.02124
0.463	3.02124
0.4635	0.10071
0.464	6.04248
0.4645	5.74036
0.465	4.93469
0.4655	2.92053
0.466	3.32336
0.4665	9.16443
0.467	2.41699
0.4675	3.62549
0.468	-1.2085
0.4685	5.13611
0.469	2.61841
0.4695	8.8623
0.47	11.2793
0.4705	6.84814
0.471	-2.01416
0.4715	5.63965
0.472	1.2085
0.4725	5.63965
0.473	2.71912
0.4735	3.22266
0.474	6.84814
0.4745	4.53186
0.475	1.91345
0.4755	3.8269
0.476	4.12903
0.4765	2.71912
0.477	7.65381
0.4775	6.3446
0.478	6.14319
0.4785	8.45947
0.479	7.85522
0.4795	4.12903
0.48	6.44531
0.4805	13.99841
0.481	12.28638
0.4815	8.56018
0.482	7.25098
0.4825	12.89062
0.483	9.06372
0.4835	8.8623
0.484	6.84814
0.4845	7.15027
0.485	7.45239
0.4855	7.35168
0.486	8.45947
0.4865	7.45239
0.487	3.92761
0.4875	5.84106
0.488	9.46655
0.4885	5.63965
0.489	3.8269
0.4895	6.64673
0.49	4.02832
0.4905	2.41699
0.491	4.12903
0.4915	1.61133
0.492	8.35876
0.4925	4.43115
0.493	6.74744
0.4935	6.64673
0.494	-0.10071
0.4945	-0.30212
0.495	0.90637
0.4955	-4.33044
0.496	8.56018
0.4965	7.45239
0.497	5.23682
0.4975	2.61841
0.498	9.46655
0.4985	4.02832
0.499	4.43115
0.4995	7.45239
0.5	7.04956
0.5005	10.0708
0.501	8.45947
0.5015	4.53186
0.502	9.06372
0.5025	10.97717
0.503	7.5531
0.5035	11.2793
0.504	6.2439
0.5045	8.15735
0.505	14.50195
0.5055	8.56018
0.506	8.56018
0.5065	8.25806
0.507	8.35876
0.5075	8.15735
0.508	11.58142
0.5085	11.48071
0.509	11.88354
0.5095	11.07788
0.51	8.25806
0.5105	7.45239
0.511	7.75452
0.5115	10.87646
0.512	7.75452
0.5125	9.16443
0.513	8.15735
0.5135	6.44531
0.514	11.48071
0.5145	9.26514
0.515	7.15027
0.5155	12.28638
0.516	10.67505
0.5165	10.17151
0.517	9.06372
0.5175	6.2439
0.518	7.5531
0.5185	9.46655
0.519	4.12903
0.5195	-1.00708
0.52	6.04248
0.5205	5.43823
0.521	-2.31628
0.5215	5.33752
0.522	5.84106
0.5225	7.45239
0.523	9.46655
0.5235	8.35876
0.524	8.7616
0.5245	8.35876
0.525	9.26514
0.5255	5.0354
0.526	3.02124
0.5265	6.3446
0.527	2.31628
0.5275	10.37292
0.528	4.93469
0.5285	4.73328
0.529	2.92053
0.5295	9.66797
0.53	4.33044
0.5305	4.83398
0.531	1.00708
0.5315	1.10779
0.532	7.5531
0.5325	3.7262
0.533	1.71204
0.5335	0.30212
0.534	5.13611
0.5345	4.63257
0.535	5.23682
0.5355	7.75452
0.536	4.22974
0.5365	3.22266
0.537	2.21558
0.5375	5.63965
0.538	-0.60425
0.5385	6.3446
0.539	3.62549
0.5395	7.35168
0.54	9.36584
0.5405	6.44531
0.541	10.27222
0.5415	10.37292
0.542	7.15027
0.5425	5.63965
0.543	8.56018
0.5435	8.15735
0.544	8.66089
0.5445	6.64673
0.545	11.58142
0.5455	12.38708
0.546	11.58142
0.5465	3.92761
0.547	5.33752
0.5475	10.77576
0.548	3.02124
0.5485	-0.10071
0.549	1.3092
0.5495	1.40991
0.55	5.43823
0.5505	4.22974
0.551	7.65381
0.5515	3.62549
0.552	10.77576
0.5525	5.53894
0.553	8.45947
0.5535	6.54602
0.554	5.94177
0.5545	8.8623
0.555	3.02124
0.5555	4.53186
0.556	0.80566
0.5565	3.02124
0.557	2.5177
0.5575	2.71912
0.558	6.54602
0.5585	0.80566
0.559	6.54602
0.5595	3.7262
0.56	4.02832
0.5605	7.95593
0.561	3.22266
0.5615	4.12903
0.562	-2.31628
0.5625	0.20142
0.563	1.61133
0.5635	7.15027
0.564	2.11487
0.5645	8.45947
0.565	1.2085
0.5655	-2.41699
0.566	10.57434
0.5665	5.13611
0.567	3.02124
0.5675	8.35876
0.568	-2.11487
0.5685	1.51062
0.569	2.41699
0.5695	2.71912
0.57	7.04956
0.5705	4.53186
0.571	7.95593
0.5715	4.63257
0.572	7.5531
0.5725	8.7616
0.573	4.22974
0.5735	6.2439
0.574	6.94885
0.5745	8.45947
0.575	7.95593
0.5755	6.54602
0.576	3.7262
0.5765	6.84814
0.577	7.15027
0.5775	9.06372
0.578	8.56018
0.5785	14.40125
0.579	12.28638
0.5795	11.07788
0.58	8.15735
0.5805	9.97009
0.581	11.78284
0.5815	10.87646
0.582	12.48779
0.5825	4.12903
0.583	5.43823
0.5835	8.05664
0.584	6.44531
0.5845	9.06372
0.585	9.26514
0.5855	9.06372
0.586	7.95593
0.5865	7.35168
0.587	4.83398
0.5875	6.2439
0.588	4.22974
0.5885	5.43823
0.589	8.8623
0.5895	2.61841
0.59	8.8623
0.5905	11.68213
0.591	11.07788
0.5915	3.42407
0.592	5.0354
0.5925	6.3446
0.593	6.74744
0.5935	3.12195
0.594	2.21558
0.5945	7.85522
0.595	8.8623
0.5955	7.45239
0.596	2.81982
0.5965	8.66089
0.597	6.74744
0.5975	1.81274
0.598	3.62549
0.5985	10.27222
0.599	10.0708
0.5995	3.92761
0.6	2.01416
0.6005	0.10071
0.601	4.33044
0.6015	11.68213
0.602	6.44531
0.6025	8.96301
0.603	6.14319
0.6035	7.25098
0.604	6.2439
0.6045	0.70496
0.605	7.35168
0.6055	5.13611
0.606	5.33752
0.6065	6.84814
0.607	8.25806
0.6075	2.5177
0.608	2.41699
0.6085	6.3446
0.609	8.96301
0.6095	9.06372
0.61	8.7616
0.6105	8.35876
0.611	5.0354
0.6115	3.32336
0.612	8.35876
0.6125	10.97717
0.613	4.12903
0.6135	8.96301
0.614	4.12903
0.6145	4.83398
0.615	7.45239
0.6155	2.5177
0.616	6.04248
0.6165	3.32336
0.617	9.56726
0.6175	6.94885
0.618	9.16443
0.6185	3.22266
0.619	6.84814
0.6195	6.04248
0.62	4.63257
0.6205	4.02832
0.621	5.94177
0.6215	7.15027
0.622	6.2439
0.6225	1.91345
0.623	5.23682
0.6235	2.41699
0.624	2.21558
0.6245	5.0354
0.625	2.5177
0.6255	6.94885
0.626	4.73328
0.6265	3.92761
0.627	4.22974
0.6275	5.63965
0.628	4.53186
0.6285	8.15735
0.629	7.5531
0.6295	1.00708
0.63	4.22974
0.6305	6.94885
0.631	5.94177
0.6315	3.92761
0.632	1.2085
0.6325	4.93469
0.633	4.33044
0.6335	6.84814
0.634	5.84106
0.6345	7.85522
0.635	5.94177
0.6355	9.26514
0.636	12.89062
0.6365	3.32336
0.637	5.63965
0.6375	7.5531
0.638	4.63257
0.6385	3.8269
0.639	5.94177
0.6395	3.32336
0.64	2.81982
0.6405	6.64673
0.641	10.27222
0.6415	8.96301
0.642	9.06372
0.6425	7.15027
0.643	8.7616
0.6435	7.95593
0.644	4.93469
0.6445	-1.10779
0.645	2.92053
0.6455	4.22974
0.646	8.25806
0.6465	4.93469
0.647	6.54602
0.6475	3.32336
0.648	1.2085
0.6485	1.00708
0.649	1.71204
0.6495	5.43823
0.65	4.33044
0.6505	4.22974
0.651	5.63965
0.6515	6.74744
0.652	5.84106
0.6525	8.96301
0.653	8.56018
0.6535	1.51062
0.654	7.25098
0.6545	-0.40283
0.655	4.53186
0.6555	-0.60425
0.656	6.64673
0.6565	3.42407
0.657	4.02832
0.6575	4.33044
0.658	10.87646
0.6585	6.2439
0.659	9.06372
0.6595	10.67505
0.66	9.76868
0.6605	11.07788
0.661	6.94885
0.6615	11.58142
0.662	8.05664
0.6625	9.46655
0.663	13.19275
0.6635	8.56018
0.664	7.5531
0.6645	3.52478
0.665	5.63965
0.6655	2.01416
0.666	6.84814
0.6665	0.70496
0.667	2.92053
0.6675	0
0.668	7.45239
0.6685	7.45239
0.669	8.66089
0.6695	8.45947
0.67	8.8623
0.6705	5.94177
0.671	7.04956
0.6715	8.8623
0.672	5.43823
0.6725	8.35876
0.673	10.67505
0.6735	10.87646
0.674	6.3446
0.6745	7.04956
0.675	10.17151
0.6755	5.0354
0.676	5.33752
0.6765	8.8623
0.677	3.62549
0.6775	10.47363
0.678	7.15027
0.6785	10.57434
0.679	5.13611
0.6795	8.66089
0.68	6.64673
0.6805	9.16443
0.681	12.5885
0.6815	5.43823
0.682	8.45947
0.6825	11.48071
0.683	7.25098
0.6835	2.92053
0.684	1.71204
0.6845	7.25098
0.685	4.33044
0.6855	1.10779
0.686	0
0.6865	9.76868
0.687	10.37292
0.6875	4.93469
0.688	8.05664
0.6885	12.38708
0.689	7.95593
0.6895	7.5531
0.69	4.53186
0.6905	4.83398
0.691	2.01416
0.6915	5.33752
0.692	5.53894
0.6925	4.22974
0.693	1.51062
0.6935	3.92761
0.694	6.54602
0.6945	8.15735
0.695	10.87646
0.6955	4.43115
0.696	8.45947
0.6965	6.74744
0.697	8.56018
0.6975	10.67505
0.698	12.99133
0.6985	13.89771
0.699	4.63257
0.6995	6.2439
0.7	2.92053
0.7005	7.35168
0.701	11.98425
0.7015	12.48779
0.702	11.07788
0.7025	5.94177
0.703	12.68921
0.7035	6.2439
0.704	6.14319
0.7045	4.02832
0.705	10.37292
0.7055	10.67505
0.706	6.94885
0.7065	3.62549
0.707	4.93469
0.7075	7.04956
0.708	4.73328
0.7085	3.22266
0.709	9.06372
0.7095	2.01416
0.71	6.74744
0.7105	10.67505
0.711	6.94885
0.7115	11.07788
0.712	9.97009
0.7125	9.06372
0.713	6.54602
0.7135	8.45947
0.714	3.02124
0.7145	2.5177
0.715	5.74036
0.7155	3.92761
0.716	4.63257
0.7165	-0.20142
0.717	7.35168
0.7175	5.94177
0.718	5.94177
0.7185	6.04248
0.719	5.43823
0.7195	4.12903
0.72	2.81982
0.7205	12.38708
0.721	9.46655
0.7215	13.09204
0.722	7.35168
0.7225	10.0708
0.723	2.92053
0.7235	2.81982
0.724	2.41699
0.7245	3.7262
0.725	4.63257
0.7255	8.25806
0.726	4.93469
0.7265	7.25098
0.727	9.46655
0.7275	6.64673
0.728	5.33752
0.7285	3.32336
0.729	6.84814
0.7295	5.23682
0.73	6.14319
0.7305	7.45239
0.731	6.84814
0.7315	2.81982
0.732	9.46655
0.7325	7.35168
0.733	3.12195
0.7335	3.52478
0.734	6.54602
0.7345	3.92761
0.735	7.35168
0.7355	0.40283
0.736	5.63965
0.7365	5.0354
0.737	6.64673
0.7375	3.7262
0.738	8.15735
0.7385	10.27222
0.739	3.8269
0.7395	4.63257
0.74	6.74744
0.7405	10.37292
0.741	6.54602
0.7415	5.53894
0.742	4.73328
0.7425	5.13611
0.743	5.74036
0.7435	2.61841
0.744	8.35876
0.7445	8.05664
0.745	2.5177
0.7455	3.12195
0.746	4.12903
0.7465	5.94177
0.747	9.46655
0.7475	7.85522
0.748	10.0708
0.7485	7.75452
0.749	10.17151
0.7495	6.74744
0.75	4.02832
0.7505	2.81982
0.751	6.64673
0.7515	3.42407
0.752	5.43823
0.7525	1.81274
0.753	-1.40991
0.7535	3.62549
0.754	3.92761
0.7545	9.86938
0.755	6.54602
0.7555	8.7616
0.756	9.36584
0.7565	7.04956
0.757	8.7616
0.7575	4.93469
0.758	8.35876
0.7585	11.2793
0.759	7.04956
0.7595	7.04956
0.76	7.35168
0.7605	2.5177
0.761	3.52478
0.7615	7.35168
0.762	10.47363
0.7625	6.3446
0.763	2.61841
0.7635	3.22266
0.764	7.65381
0.7645	10.37292
0.765	3.22266
0.7655	11.07788
0.766	5.63965
0.7665	9.97009
0.767	1.81274
0.7675	10.97717
0.768	6.44531
0.7685	8.7616
0.769	14.70337
0.7695	7.25098
0.77	9.06372
0.7705	5.63965
0.771	10.77576
0.7715	8.35876
0.772	5.43823
0.7725	5.43823
0.773	3.42407
0.7735	5.43823
0.774	3.42407
0.7745	2.61841
0.775	4.63257
0.7755	4.12903
0.776	3.32336
0.7765	0.80566
0.777	3.92761
0.7775	9.56726
0.778	6.04248
0.7785	2.01416
0.779	-0.40283
0.7795	4.93469
0.78	1.71204
0.7805	-2.5177
0.781	6.74744
0.7815	4.73328
0.782	2.81982
0.7825	1.3092
0.783	4.12903
0.7835	4.53186
0.784	0.40283
0.7845	3.22266
0.785	2.61841
0.7855	1.61133
0.786	1.40991
0.7865	5.0354
0.787	3.22266
0.7875	5.63965
0.788	6.74744
0.7885	5.53894
0.789	4.33044
0.7895	1.91345
0.79	3.12195
0.7905	4.73328
0.791	2.11487
0.7915	4.43115
0.792	3.52478
0.7925	8.25806
0.793	2.71912
0.7935	4.93469
0.794	3.8269
0.7945	9.66797
0.795	5.84106
0.7955	4.63257
0.796	2.81982
0.7965	8.15735
0.797	4.93469
0.7975	4.12903
0.798	11.17859
0.7985	10.47363
0.799	1.91345
0.7995	1.00708
0.8	9.16443
0.8005	7.25098
0.801	10.17151
0.8015	9.36584
0.802	9.36584
0.8025	3.12195
0.803	3.52478
0.8035	8.66089
0.804	6.84814
0.8045	5.43823
0.805	5.43823
0.8055	10.37292
0.806	9.66797
0.8065	12.5885
0.807	5.13611
0.8075	9.16443
0.808	8.8623
0.8085	9.86938
0.809	12.68921
0.8095	9.76868
0.81	11.98425
0.8105	5.94177
0.811	3.92761
0.8115	7.15027
0.812	8.66089
0.8125	6.04248
0.813	10.27222
0.8135	8.35876
0.814	6.94885
0.8145	6.54602
0.815	11.48071
0.8155	10.27222
0.816	7.15027
0.8165	6.2439
0.817	5.94177
0.8175	3.62549
0.818	3.32336
0.8185	7.85522
0.819	6.84814
0.8195	5.84106
0.82	5.33752
0.8205	4.53186
0.821	3.32336
0.8215	5.43823
0.822	8.35876
0.8225	6.2439
0.823	4.83398
0.8235	8.7616
0.824	4.22974
0.8245	4.43115
0.825	4.22974
0.8255	3.02124
0.826	4.33044
0.8265	0.50354
0.827	6.74744
0.8275	3.8269
0.828	4.83398
0.8285	5.63965
0.829	5.84106
0.8295	2.81982
0.83	8.45947
0.8305	10.57434
0.831	4.12903
0.8315	4.53186
0.832	6.64673
0.8325	3.8269
0.833	7.45239
0.8335	7.35168
0.834	8.7616
0.8345	5.74036
0.835	7.85522
0.8355	2.5177
0.836	8.05664
0.8365	5.43823
0.837	3.92761
0.8375	3.02124
0.838	0.70496
0.8385	9.56726
0.839	9.56726
0.8395	6.04248
0.84	10.27222
0.8405	7.04956
0.841	-1.3092
0.8415	5.13611
0.842	1.40991
0.8425	1.81274
0.843	4.93469
0.8435	3.7262
0.844	8.45947
0.8445	6.74744
0.845	4.12903
0.8455	2.71912
0.846	1.51062
0.8465	3.52478
0.847	3.22266
0.8475	5.94177
0.848	2.41699
0.8485	8.96301
0.849	3.8269
0.8495	9.06372
0.85	2.21558
0.8505	4.93469
0.851	2.31628
0.8515	3.02124
0.852	4.43115
0.8525	6.04248
0.853	2.61841
0.8535	5.43823
0.854	0.60425
0.8545	6.44531
0.855	7.04956
0.8555	4.73328
0.856	1.61133
0.8565	4.53186
0.857	5.74036
0.8575	4.63257
0.858	6.84814
0.8585	8.96301
0.859	3.8269
0.8595	7.04956
0.86	11.07788
0.8605	4.63257
0.861	8.96301
0.8615	3.52478
0.862	7.5531
0.8625	2.41699
0.863	8.7616
0.8635	9.76868
0.864	-0.80566
0.8645	10.27222
0.865	8.96301
0.8655	1.51062
0.866	9.66797
0.8665	3.12195
0.867	4.02832
0.8675	3.8269
0.868	-0.20142
0.8685	4.43115
0.869	3.7262
0.8695	3.92761
0.87	7.35168
0.8705	8.15735
0.871	9.86938
0.8715	11.78284
0.872	10.67505
0.8725	11.38
0.873	11.88354
0.8735	11.2793
0.874	11.98425
0.8745	11.48071
0.875	8.7616
0.8755	2.81982
0.876	9.16443
0.8765	6.54602
0.877	6.44531
0.8775	5.13611
0.878	5.63965
0.8785	6.84814
0.879	6.44531
0.8795	3.02124
0.88	2.31628
0.8805	0.80566
0.881	2.5177
0.8815	2.61841
0.882	3.8269
0.8825	2.21558
0.883	8.7616
0.8835	2.81982
0.884	1.61133
0.8845	0.50354
0.885	1.61133
0.8855	10.57434
0.886	7.65381
0.8865	6.44531
0.887	6.54602
0.8875	8.25806
0.888	12.78992
0.8885	2.92053
0.889	3.62549
0.8895	2.92053
0.89	0
0.8905	2.21558
0.891	5.43823
0.8915	4.22974
0.892	7.45239
0.8925	7.75452
0.893	2.81982
0.8935	-2.71912
0.894	5.84106
0.8945	12.68921
0.895	4.63257
0.8955	4.12903
0.896	3.7262
0.8965	6.94885
0.897	3.32336
0.8975	6.74744
0.898	3.52478
0.8985	3.92761
0.899	1.3092
0.8995	4.22974
0.9	2.01416
0.9005	3.42407
0.901	5.13611
0.9015	0.70496
0.902	10.0708
0.9025	6.84814
0.903	9.56726
0.9035	6.3446
0.904	6.3446
0.9045	8.45947
0.905	7.35168
0.9055	8.05664
0.906	0
0.9065	1.40991
0.907	7.04956
0.9075	6.2439
0.908	6.04248
0.9085	4.33044
0.909	0.80566
0.9095	5.63965
0.91	8.15735
0.9105	6.64673
0.911	7.85522
0.9115	5.74036
0.912	9.16443
0.9125	10.0708
0.913	8.05664
0.9135	3.7262
0.914	0
0.9145	10.27222
0.915	10.27222
0.9155	11.58142
0.916	8.66089
0.9165	10.27222
0.917	8.56018
0.9175	8.7616
0.918	9.46655
0.9185	7.75452
0.919	5.94177
0.9195	0.20142
0.92	9.76868
0.9205	8.15735
0.921	10.17151
0.9215	4.33044
0.922	7.45239
0.9225	8.66089
0.923	1.2085
0.9235	7.65381
0.924	10.87646
0.9245	7.35168
0.925	8.25806
0.9255	6.3446
0.926	7.45239
0.9265	6.64673
0.927	2.41699
0.9275	6.3446
0.928	5.23682
0.9285	3.7262
0.929	4.53186
0.9295	5.0354
0.93	1.81274
0.9305	6.44531
0.931	6.14319
0.9315	4.63257
0.932	3.8269
0.9325	6.14319
0.933	7.15027
0.9335	11.88354
0.934	7.5531
0.9345	3.52478
0.935	5.94177
0.9355	10.17151
0.936	11.38
0.9365	5.94177
0.937	9.76868
0.9375	3.7262
0.938	4.33044
0.9385	4.02832
0.939	5.84106
0.9395	4.22974
0.94	2.01416
0.9405	4.83398
0.941	-1.91345
0.9415	-4.22974
0.942	4.33044
0.9425	3.32336
0.943	2.81982
0.9435	4.33044
0.944	4.63257
0.9445	4.83398
0.945	6.2439
0.9455	8.8623
0.946	6.64673
0.9465	7.45239
0.947	8.15735
0.9475	5.0354
0.948	0
0.9485	6.04248
0.949	4.63257
0.9495	5.23682
0.95	-0.10071
0.9505	7.85522
0.951	6.04248
0.9515	9.86938
0.952	4.02832
0.9525	2.11487
0.953	7.25098
0.9535	4.73328
0.954	3.8269
0.9545	7.25098
0.955	1.10779
0.9555	5.13611
0.956	5.33752
0.9565	6.84814
0.957	4.22974
0.9575	5.23682
0.958	7.85522
0.9585	8.66089
0.959	6.54602
0.9595	5.74036
0.96	6.2439
0.9605	5.94177
0.961	8.15735
0.9615	2.61841
0.962	9.46655
0.9625	7.75452
0.963	8.7616
0.9635	5.43823
0.964	5.33752
0.9645	6.94885
0.965	0.40283
0.9655	3.92761
0.966	6.94885
0.9665	6.54602
0.967	11.68213
0.9675	8.45947
0.968	2.81982
0.9685	4.93469
0.969	8.15735
0.9695	5.13611
0.97	7.25098
0.9705	5.84106
0.971	3.8269
0.9715	7.35168
0.972	10.87646
0.9725	13.99841
0.973	9.46655
0.9735	8.25806
0.974	4.73328
0.9745	2.5177
0.975	3.12195
0.9755	8.56018
0.976	3.7262
0.9765	5.74036
0.977	4.73328
0.9775	7.15027
0.978	6.14319
0.9785	6.14319
0.979	5.74036
0.9795	3.52478
0.98	10.0708
0.9805	1.61133
0.981	4.53186
0.9815	4.33044
0.982	8.35876
0.9825	5.84106
0.983	1.10779
0.9835	5.94177
0.984	7.15027
0.9845	11.48071
0.985	3.22266
0.9855	7.75452
0.986	7.75452
0.9865	9.06372
0.987	11.88354
0.9875	9.46655
0.988	4.93469
0.9885	5.74036
0.989	9.66797
0.9895	6.44531
0.99	12.38708
0.9905	4.02832
0.991	6.74744
0.9915	4.02832
0.992	6.74744
0.9925	2.61841
0.993	3.12195
0.9935	7.15027
0.994	3.92761
0.9945	3.42407
0.995	11.07788
0.9955	9.86938
0.996	9.16443
0.9965	6.94885
0.997	6.94885
0.9975	5.74036
0.998	3.92761
0.9985	10.17151
0.999	3.92761
0.9995	7.15027
1	9.76868
1.0005	7.04956
1.001	3.32336
1.0015	9.56726
1.002	3.7262
1.0025	8.15735
1.003	4.83398
1.0035	10.57434
1.004	5.23682
1.0045	4.02832
1.005	7.75452
1.0055	8.96301
1.006	8.66089
1.0065	1.3092
1.007	8.25806
1.0075	3.32336
1.008	-0.90637
1.0085	4.53186
1.009	7.75452
1.0095	8.45947
1.01	7.5531
1.0105	7.65381
1.011	9.46655
1.0115	8.56018
1.012	5.43823
1.0125	3.32336
1.013	3.42407
1.0135	6.54602
1.014	4.93469
1.0145	6.14319
1.015	5.43823
1.0155	7.65381
1.016	7.15027
1.0165	7.04956
1.017	6.14319
1.0175	4.43115
1.018	6.2439
1.0185	7.25098
1.019	7.35168
1.0195	6.2439
1.02	2.01416
1.0205	4.22974
1.021	1.00708
1.0215	6.84814
1.022	5.43823
1.0225	2.61841
1.023	7.04956
1.0235	6.3446
1.024	4.63257
1.0245	7.45239
1.025	3.02124
1.0255	4.93469
1.026	7.04956
1.0265	7.15027
1.027	10.47363
1.0275	8.05664
1.028	10.37292
1.0285	8.7616
1.029	5.43823
1.0295	2.61841
1.03	4.43115
1.0305	4.22974
1.031	12.48779
1.0315	10.87646
1.032	12.38708
1.0325	0.80566
1.033	3.42407
1.0335	4.83398
1.034	3.32336
1.0345	11.17859
1.035	14.19983
1.0355	8.96301
1.036	7.75452
1.0365	10.17151
1.037	13.89771
1.0375	13.99841
1.038	7.35168
1.0385	10.37292
1.039	9.06372
1.0395	7.95593
1.04	14.19983
1.0405	8.66089
1.041	10.0708
1.0415	12.68921
1.042	11.38
1.0425	10.87646
1.043	10.67505
1.0435	10.97717
1.044	11.68213
1.0445	11.58142
1.045	9.86938
1.0455	6.94885
1.046	9.36584
1.0465	9.16443
1.047	5.23682
1.0475	6.64673
1.048	4.53186
1.0485	4.02832
1.049	5.94177
1.0495	9.56726
1.05	5.43823
1.0505	10.47363
1.051	9.26514
1.0515	6.2439
1.052	6.84814
1.0525	2.41699
1.053	6.44531
1.0535	8.05664
1.054	-0.10071
1.0545	2.01416
1.055	0.70496
1.0555	5.13611
1.056	5.33752
1.0565	6.2439
1.057	4.73328
1.0575	3.92761
1.058	5.0354
1.0585	3.7262
1.059	4.33044
1.0595	1.40991
1.06	1.40991
1.0605	-1.40991
1.061	1.00708
1.0615	3.22266
1.062	7.35168
1.0625	2.71912
1.063	8.56018
1.0635	6.2439
1.064	4.33044
1.0645	6.54602
1.065	3.62549
1.0655	7.15027
1.066	4.22974
1.0665	7.45239
1.067	3.7262
1.0675	2.92053
1.068	2.81982
1.0685	6.14319
1.069	5.74036
1.0695	6.44531
1.07	7.35168
1.0705	2.41699
1.071	3.8269
1.0715	0.50354
1.072	10.77576
1.0725	3.92761
1.073	5.43823
1.0735	2.71912
1.074	4.43115
1.0745	5.74036
1.075	6.3446
1.0755	4.12903
1.076	11.17859
1.0765	12.28638
1.077	6.2439
1.0775	4.02832
1.078	3.02124
1.0785	-0.90637
1.079	6.44531
1.0795	8.8623
1.08	-0.80566
1.0805	7.5531
1.081	9.16443
1.0815	9.36584
1.082	6.3446
1.0825	9.76868
1.083	3.12195
1.0835	7.35168
1.084	9.26514
1.0845	10.97717
1.085	6.94885
1.0855	4.73328
1.086	6.2439
1.0865	11.38
1.087	4.93469
1.0875	7.5531
1.088	6.2439
1.0885	5.63965
1.089	7.04956
1.0895	3.02124
1.09	8.96301
1.0905	5.13611
1.091	5.63965
1.0915	6.04248
1.092	2.61841
1.0925	4.53186
1.093	3.42407
1.0935	-1.40991
1.094	2.01416
1.0945	2.31628
1.095	4.53186
1.0955	2.71912
1.096	7.04956
1.0965	3.22266
1.097	3.62549
1.0975	13.29346
1.098	11.58142
1.0985	3.62549
1.099	8.66089
1.0995	8.66089
1.1	8.66089
1.1005	8.66089
1.101	8.66089
1.1015	8.66089
1.102	8.66089
1.1025	8.66089
1.103	8.66089
1.1035	8.66089
1.104	8.66089
1.1045	8.66089
1.105	8.66089
1.1055	8.66089
1.106	8.66089
1.1065	8.66089
1.107	8.66089
1.1075	8.66089
1.108	8.66089
1.1085	8.66089
1.109	8.66089
1.1095	1.10779
1.11	-3.42407
1.1105	-0.10071
1.111	-1.2085
1.1115	1.91345
1.112	7.35168
1.1125	5.74036
1.113	1.3092
1.1135	4.02832
1.114	4.83398
1.1145	3.8269
1.115	-0.90637
1.1155	2.81982
1.116	-2.5177
1.1165	-1.61133
1.117	-1.71204
1.1175	-0.10071
1.118	1.3092
1.1185	5.84106
1.119	10.87646
1.1195	4.83398
1.12	4.83398
1.1205	3.12195
1.121	1.81274
1.1215	0.50354
1.122	-1.61133
1.1225	-3.42407
1.123	8.56018
1.1235	0.40283
1.124	3.12195
1.1245	-2.61841
1.125	-3.12195
1.1255	2.11487
1.126	5.63965
1.1265	3.12195
1.127	-1.00708
1.1275	3.92761
1.128	0
1.1285	2.92053
1.129	6.14319
1.1295	5.33752
1.13	-1.00708
1.1305	-0.40283
1.131	1.2085
1.1315	4.22974
1.132	2.81982
1.1325	0.70496
1.133	-0.50354
1.1335	-1.91345
1.134	0.40283
1.1345	10.27222
1.135	13.69629
1.1355	8.05664
1.136	9.46655
1.1365	7.5531
1.137	9.86938
1.1375	6.14319
1.138	5.94177
1.1385	5.0354
1.139	8.56018
1.1395	0
1.14	1.2085
1.1405	0.90637
1.141	2.92053
1.1415	4.83398
1.142	9.66797
1.1425	6.44531
1.143	-1.40991
1.1435	4.43115
1.144	4.02832
1.1445	7.85522
1.145	2.92053
1.1455	3.22266
1.146	-3.42407
1.1465	-0.10071
1.147	-0.90637
1.1475	2.21558
1.148	6.2439
1.1485	2.41699
1.149	2.71912
1.1495	7.04956
1.15	7.04956
1.1505	5.74036
1.151	-0.50354
1.1515	1.61133
1.152	4.83398
1.1525	7.04956
1.153	7.35168
1.1535	6.54602
1.154	2.81982
1.1545	5.23682
1.155	13.09204
1.1555	4.43115
1.156	6.44531
1.1565	7.85522
1.157	5.84106
1.1575	13.69629
1.158	8.25806
1.1585	5.53894
1.159	9.46655
1.1595	5.0354
1.16	2.01416
1.1605	4.73328
1.161	7.35168
1.1615	9.36584
1.162	7.75452
1.1625	7.15027
1.163	6.14319
1.1635	9.86938
1.164	7.15027
1.1645	5.84106
1.165	6.74744
1.1655	4.53186
1.166	8.15735
1.1665	11.58142
1.167	10.0708
1.1675	6.3446
1.168	5.53894
1.1685	12.18567
1.169	5.74036
1.1695	6.14319
1.17	10.87646
1.1705	9.46655
1.171	8.45947
1.1715	6.84814
1.172	-0.40283
1.1725	4.63257
1.173	10.67505
1.1735	8.15735
1.174	5.74036
1.1745	7.45239
1.175	7.45239
1.1755	7.75452
1.176	7.35168
1.1765	9.66797
1.177	8.15735
1.1775	5.53894
1.178	4.93469
1.1785	9.26514
1.179	6.2439
1.1795	9.16443
1.18	13.69629
1.1805	13.59558
1.181	11.58142
1.1815	7.5531
1.182	11.38
1.1825	11.88354
1.183	13.09204
1.1835	6.84814
1.184	5.13611
1.1845	7.35168
1.185	2.5177
1.1855	10.57434
1.186	10.0708
1.1865	7.25098
1.187	5.63965
1.1875	6.14319
1.188	7.65381
1.1885	7.95593
1.189	9.26514
1.1895	12.28638
1.19	11.17859
1.1905	7.25098
1.191	6.04248
1.1915	8.05664
1.192	11.68213
1.1925	8.45947
1.193	8.35876
1.1935	8.05664
1.194	8.25806
1.1945	9.86938
1.195	6.3446
1.1955	10.47363
1.196	11.38
1.1965	4.63257
1.197	6.84814
1.1975	6.2439
1.198	6.44531
1.1985	5.94177
1.199	9.56726
1.1995	9.46655
1.2	12.5885
1.2005	6.74744
1.201	10.67505
1.2015	9.26514
1.202	12.08496
1.2025	11.88354
1.203	8.66089
1.2035	7.95593
1.204	3.62549
1.2045	6.14319
1.205	3.7262
1.2055	6.64673
1.206	8.56018
1.2065	5.13611
1.207	3.7262
1.2075	4.93469
1.208	6.74744
1.2085	10.57434
1.209	9.86938
1.2095	6.74744
1.21	2.71912
1.2105	6.2439
1.211	6.54602
1.2115	10.97717
1.212	2.81982
1.2125	5.23682
1.213	10.17151
1.2135	1.10779
1.214	11.58142
1.2145	10.27222
1.215	9.16443
1.2155	2.31628
1.216	7.5531
1.2165	7.75452
1.217	8.8623
1.2175	8.45947
1.218	4.33044
1.2185	7.75452
1.219	8.7616
1.2195	10.47363
1.22	3.62549
1.2205	2.01416
1.221	6.14319
1.2215	10.67505
1.222	5.63965
1.2225	3.02124
1.223	2.92053
1.2235	8.45947
1.224	0.40283
1.2245	3.12195
1.225	4.63257
1.2255	3.62549
1.226	3.7262
1.2265	4.83398
1.227	7.5531
1.2275	8.25806
1.228	6.94885
1.2285	4.22974
1.229	-1.2085
1.2295	-2.01416
1.23	-1.51062
1.2305	7.85522
1.231	2.31628
1.2315	4.22974
1.232	7.5531
1.2325	6.54602
1.233	7.25098
1.2335	7.65381
1.234	7.65381
1.2345	6.2439
1.235	5.63965
1.2355	8.15735
1.236	7.45239
1.2365	5.43823
1.237	4.93469
1.2375	6.2439
1.238	2.01416
1.2385	0.70496
1.239	8.56018
1.2395	7.85522
1.24	7.5531
1.2405	7.75452
1.241	0.80566
1.2415	-1.2085
1.242	-0.10071
1.2425	-0.60425
1.243	1.81274
1.2435	7.25098
1.244	1.81274
1.2445	6.44531
1.245	7.95593
1.2455	4.73328
1.246	5.53894
1.2465	2.41699
1.247	1.00708
1.2475	3.22266
1.248	13.39417
1.2485	7.75452
1.249	2.92053
1.2495	2.11487
1.25	2.11487
1.2505	7.85522
1.251	5.23682
1.2515	3.7262
1.252	2.21558
1.2525	4.63257
1.253	5.13611
1.2535	2.81982
1.254	1.81274
1.2545	7.35168
1.255	1.2085
1.2555	3.92761
1.256	4.02832
1.2565	4.02832
1.257	8.7616
1.2575	10.17151
1.258	11.58142
1.2585	10.0708
1.259	7.04956
1.2595	0.60425
1.26	9.97009
1.2605	3.92761
1.261	7.65381
1.2615	7.04956
1.262	6.54602
1.2625	5.23682
1.263	0.40283
1.2635	3.52478
1.264	3.52478
1.2645	6.94885
1.265	4.02832
1.2655	4.12903
1.266	1.51062
1.2665	2.92053
1.267	3.42407
1.2675	7.65381
1.268	6.44531
1.2685	3.8269
1.269	0.60425
1.2695	3.8269
1.27	1.51062
1.2705	0.60425
1.271	2.92053
1.2715	3.02124
1.272	1.00708
1.2725	-0.30212
1.273	3.92761
1.2735	5.33752
1.274	2.92053
1.2745	2.92053
1.275	4.53186
1.2755	7.15027
1.276	5.33752
1.2765	4.02832
1.277	5.0354
1.2775	8.25806
1.278	7.95593
1.2785	4.22974
1.279	5.74036
1.2795	7.95593
1.28	4.93469
1.2805	6.44531
1.281	10.57434
1.2815	6.74744
1.282	10.27222
1.2825	8.96301
1.283	1.00708
1.2835	5.74036
1.284	6.44531
1.2845	8.8623
1.285	7.04956
1.2855	8.15735
1.286	6.54602
1.2865	6.74744
1.287	3.62549
1.2875	6.94885
1.288	2.92053
1.2885	6.54602
1.289	6.74744
1.2895	3.62549
1.29	4.12903
1.2905	1.2085
1.291	1.91345
1.2915	-0.10071
1.292	2.21558
1.2925	4.33044
1.293	6.84814
1.2935	6.2439
1.294	5.74036
1.2945	2.11487
1.295	4.22974
1.2955	7.45239
1.296	3.02124
1.2965	11.07788
1.297	7.35168
1.2975	0
1.298	2.01416
1.2985	4.02832
1.299	3.42407
1.2995	2.61841
1.3	3.22266
1.3005	4.93469
1.301	6.14319
1.3015	3.32336
1.302	2.61841
1.3025	8.56018
1.303	8.66089
1.3035	-1.10779
1.304	2.5177
1.3045	1.61133
1.305	3.22266
1.3055	6.14319
1.306	8.96301
1.3065	7.25098
1.307	7.25098
1.3075	9.66797
1.308	6.3446
1.3085	1.61133
1.309	6.54602
1.3095	8.45947
1.31	6.84814
1.3105	3.52478
1.311	7.04956
1.3115	5.43823
1.312	2.31628
1.3125	1.51062
1.313	3.62549
1.3135	3.92761
1.314	7.04956
1.3145	4.43115
1.315	7.25098
1.3155	12.28638
1.316	2.71912
1.3165	7.75452
1.317	11.68213
1.3175	9.86938
1.318	9.06372
1.3185	5.43823
1.319	5.23682
1.3195	11.78284
1.32	7.85522
1.3205	10.77576
1.321	7.95593
1.3215	9.66797
1.322	9.26514
1.3225	10.47363
1.323	8.45947
1.3235	9.97009
1.324	11.07788
1.3245	8.56018
1.325	6.94885
1.3255	10.97717
1.326	7.5531
1.3265	6.3446
1.327	7.15027
1.3275	8.66089
1.328	7.25098
1.3285	3.02124
1.329	5.53894
1.3295	9.56726
1.33	4.53186
1.3305	5.33752
1.331	7.75452
1.3315	8.7616
1.332	7.45239
1.3325	7.95593
1.333	11.38
1.3335	7.25098
1.334	9.66797
1.3345	5.53894
1.335	1.61133
1.3355	-2.41699
1.336	1.61133
1.3365	5.0354
1.337	7.15027
1.3375	5.84106
1.338	2.81982
1.3385	2.61841
1.339	0.50354
1.3395	5.84106
1.34	5.74036
1.3405	5.43823
1.341	6.94885
1.3415	4.02832
1.342	7.15027
1.3425	4.43115
1.343	6.14319
1.3435	5.94177
1.344	5.23682
1.3445	8.35876
1.345	9.26514
1.3455	7.65381
1.346	1.81274
1.3465	5.33752
1.347	5.84106
1.3475	6.2439
1.348	9.36584
1.3485	9.76868
1.349	3.7262
1.3495	8.66089
1.35	8.25806
1.3505	13.19275
1.351	8.56018
1.3515	4.43115
1.352	5.84106
1.3525	1.71204
1.353	5.0354
1.3535	-0.10071
1.354	0.90637
1.3545	5.33752
1.355	3.92761
1.3555	0.50354
1.356	3.22266
1.3565	1.61133
1.357	0.30212
1.3575	4.53186
1.358	1.81274
1.3585	-0.80566
1.359	1.51062
1.3595	1.40991
1.36	0.50354
1.3605	4.12903
1.361	5.94177
1.3615	2.11487
1.362	0.60425
1.3625	2.31628
1.363	3.62549
1.3635	2.92053
1.364	4.93469
1.3645	1.91345
1.365	-1.61133
1.3655	-0.20142
1.366	6.44531
1.3665	8.05664
1.367	4.02832
1.3675	4.93469
1.368	3.92761
1.3685	3.32336
1.369	3.52478
1.3695	2.01416
1.37	9.66797
1.3705	3.22266
1.371	7.25098
1.3715	6.74744
1.372	9.86938
1.3725	13.39417
1.373	4.73328
1.3735	7.15027
1.374	1.81274
1.3745	6.94885
1.375	8.25806
1.3755	4.43115
1.376	3.7262
1.3765	9.26514
1.377	6.84814
1.3775	3.02124
1.378	3.92761
1.3785	4.93469
1.379	6.94885
1.3795	5.84106
1.38	7.85522
1.3805	4.33044
1.381	2.81982
1.3815	7.75452
1.382	11.17859
1.3825	5.63965
1.383	3.52478
1.3835	5.33752
1.384	4.43115
1.3845	4.63257
1.385	10.67505
1.3855	7.04956
1.386	10.57434
1.3865	7.95593
1.387	4.83398
1.3875	2.41699
1.388	3.92761
1.3885	5.13611
1.389	7.85522
1.3895	6.3446
1.39	6.94885
1.3905	11.2793
1.391	6.84814
1.3915	6.04248
1.392	7.04956
1.3925	3.62549
1.393	8.7616
1.3935	5.33752
1.394	11.98425
1.3945	8.66089
1.395	5.33752
1.3955	3.52478
1.396	7.25098
1.3965	7.04956
1.397	6.54602
1.3975	8.66089
1.398	5.0354
1.3985	3.62549
1.399	3.52478
1.3995	2.92053
1.4	3.32336
1.4005	6.44531
1.401	-3.22266
1.4015	7.15027
1.402	1.81274
1.4025	5.53894
1.403	10.87646
1.4035	9.36584
1.404	1.51062
1.4045	9.66797
1.405	2.21558
1.4055	11.38
1.406	1.00708
1.4065	-1.71204
1.407	8.15735
1.4075	6.3446
1.408	12.68921
1.4085	6.04248
1.409	5.33752
1.4095	8.25806
1.41	4.83398
1.4105	7.04956
1.411	5.74036
1.4115	4.33044
1.412	10.47363
1.4125	5.53894
1.413	7.25098
1.4135	5.53894
1.414	8.7616
1.4145	2.5177
1.415	3.42407
1.4155	4.73328
1.416	5.53894
1.4165	8.15735
1.417	5.84106
1.4175	6.04248
1.418	9.97009
1.4185	3.12195
1.419	2.41699
1.4195	7.35168
1.42	6.04248
1.4205	6.14319
1.421	7.04956
1.4215	4.12903
1.422	9.66797
1.4225	9.16443
1.423	6.54602
1.4235	8.15735
1.424	10.77576
1.4245	3.42407
1.425	6.04248
1.4255	-1.61133
1.426	-0.20142
1.4265	5.43823
1.427	5.63965
1.4275	5.53894
1.428	8.8623
1.4285	9.16443
1.429	4.53186
1.4295	3.62549
1.43	-0.80566
1.4305	3.32336
1.431	5.53894
1.4315	4.43115
1.432	9.16443
1.4325	9.76868
1.433	8.8623
1.4335	4.33044
1.434	10.87646
1.4345	8.35876
1.435	3.42407
1.4355	0.50354
1.436	2.31628
1.4365	3.32336
1.437	7.5531
1.4375	3.62549
1.438	1.61133
1.4385	3.52478
1.439	1.81274
1.4395	2.41699
1.44	1.81274
1.4405	7.45239
1.441	2.81982
1.4415	4.73328
1.442	3.52478
1.4425	4.53186
1.443	6.3446
1.4435	7.45239
1.444	1.40991
1.4445	2.01416
1.445	0
1.4455	4.33044
1.446	6.64673
1.4465	7.85522
1.447	2.21558
1.4475	5.74036
1.448	4.83398
1.4485	1.71204
1.449	4.43115
1.4495	6.2439
1.45	1.81274
1.4505	4.12903
1.451	6.3446
1.4515	4.12903
1.452	3.42407
1.4525	8.66089
1.453	6.64673
1.4535	2.81982
1.454	3.42407
1.4545	3.32336
1.455	4.43115
1.4555	1.51062
1.456	4.12903
1.4565	4.02832
1.457	2.61841
1.4575	1.51062
1.458	7.04956
1.4585	2.81982
1.459	3.92761
1.4595	3.8269
1.46	1.3092
1.4605	7.04956
1.461	4.22974
1.4615	0.20142
1.462	3.32336
1.4625	5.63965
1.463	9.36584
1.4635	10.97717
1.464	8.7616
1.4645	8.45947
1.465	5.33752
1.4655	9.66797
1.466	11.58142
1.4665	11.98425
1.467	8.45947
1.4675	10.37292
1.468	3.7262
1.4685	6.14319
1.469	9.36584
1.4695	11.78284
1.47	7.95593
1.4705	11.68213
1.471	13.19275
1.4715	6.04248
1.472	8.15735
1.4725	12.99133
1.473	10.0708
1.4735	8.96301
1.474	7.04956
1.4745	2.71912
1.475	5.63965
1.4755	7.65381
1.476	10.37292
1.4765	5.84106
1.477	4.22974
1.4775	8.8623
1.478	5.33752
1.4785	5.84106
1.479	7.04956
1.4795	3.22266
1.48	7.75452
1.4805	1.71204
1.481	5.63965
1.4815	3.62549
1.482	5.33752
1.4825	9.46655
1.483	11.98425
1.4835	5.0354
1.484	14.30054
1.4845	7.75452
1.485	6.84814
1.4855	5.94177
1.486	10.67505
1.4865	9.16443
1.487	11.48071
1.4875	1.91345
1.488	5.23682
1.4885	4.22974
1.489	4.93469
1.4895	4.12903
1.49	7.15027
1.4905	6.94885
1.491	6.2439
1.4915	3.32336
1.492	1.71204
1.4925	4.53186
1.493	5.94177
1.4935	4.33044
1.494	7.65381
1.4945	5.53894
1.495	5.33752
1.4955	8.96301
1.496	4.12903
1.4965	5.33752
1.497	11.2793
1.4975	9.06372
1.498	7.85522
1.4985	11.17859
1.499	9.66797
1.4995	4.43115
1.5	0.40283
1.5005	7.65381
1.501	-0.70496
1.5015	2.5177
1.502	3.12195
1.5025	2.92053
1.503	10.87646
1.5035	7.25098
1.504	6.74744
1.5045	4.73328
1.505	3.8269
1.5055	4.73328
1.506	1.40991
1.5065	4.12903
1.507	5.53894
1.5075	12.28638
1.508	5.53894
1.5085	3.42407
1.509	7.15027
1.5095	8.25806
1.51	3.52478
1.5105	1.81274
1.511	2.31628
1.5115	6.84814
1.512	3.02124
1.5125	3.32336
1.513	7.95593
1.5135	1.61133
1.514	0.20142
1.5145	2.92053
1.515	-0.90637
1.5155	3.02124
1.516	3.12195
1.5165	6.54602
1.517	4.22974
1.5175	6.74744
1.518	7.95593
1.5185	8.56018
1.519	0.60425
1.5195	-0.10071
1.52	3.92761
1.5205	3.32336
1.521	5.74036
1.5215	4.12903
1.522	6.14319
1.5225	5.13611
1.523	4.43115
1.5235	3.62549
1.524	9.86938
1.5245	6.64673
1.525	8.56018
1.5255	7.35168
1.526	7.15027
1.5265	2.41699
1.527	7.04956
1.5275	2.5177
1.528	-2.01416
1.5285	1.40991
1.529	4.63257
1.5295	3.02124
1.53	9.66797
1.5305	7.35168
1.531	5.63965
1.5315	1.71204
1.532	6.3446
1.5325	4.12903
1.533	3.92761
1.5335	7.35168
1.534	8.45947
1.5345	6.04248
1.535	5.84106
1.5355	15.00549
1.536	12.18567
1.5365	1.61133
1.537	9.66797
1.5375	5.23682
1.538	5.94177
1.5385	5.84106
1.539	7.25098
1.5395	4.02832
1.54	5.84106
1.5405	11.07788
1.541	5.13611
1.5415	2.81982
1.542	5.84106
1.5425	7.5531
1.543	4.73328
1.5435	3.32336
1.544	4.12903
1.5445	1.40991
1.545	6.94885
1.5455	7.25098
1.546	3.62549
1.5465	7.25098
1.547	0.90637
1.5475	7.25098
1.548	4.33044
1.5485	3.8269
1.549	4.02832
1.5495	6.94885
1.55	-0.60425
1.5505	-0.80566
1.551	1.61133
1.5515	5.23682
1.552	2.11487
1.5525	-0.70496
1.553	6.2439
1.5535	4.12903
1.554	8.35876
1.5545	5.0354
1.555	6.04248
1.5555	5.53894
1.556	8.8623
1.5565	5.13611
1.557	7.25098
1.5575	8.25806
1.558	13.69629
1.5585	12.48779
1.559	8.15735
1.5595	10.87646
1.56	10.57434
1.5605	6.84814
1.561	12.38708
1.5615	6.74744
1.562	4.43115
1.5625	1.3092
1.563	7.15027
1.5635	2.41699
1.564	8.8623
1.5645	10.87646
1.565	3.62549
1.5655	5.13611
1.566	9.16443
1.5665	10.37292
1.567	12.78992
1.5675	5.43823
1.568	7.15027
1.5685	2.81982
1.569	2.31628
1.5695	6.64673
1.57	7.35168
1.5705	4.93469
1.571	3.52478
1.5715	5.43823
1.572	5.43823
1.5725	3.62549
1.573	5.63965
1.5735	7.95593
1.574	7.25098
1.5745	7.15027
1.575	4.12903
1.5755	7.35168
1.576	6.2439
1.5765	6.64673
1.577	3.52478
1.5775	9.06372
1.578	8.45947
1.5785	3.92761
1.579	1.51062
1.5795	8.15735
1.58	7.45239
1.5805	9.97009
1.581	6.44531
1.5815	8.66089
1.582	8.25806
1.5825	8.8623
1.583	11.17859
1.5835	7.95593
1.584	5.33752
1.5845	5.23682
1.585	3.02124
1.5855	7.15027
1.586	5.33752
1.5865	7.75452
1.587	6.2439
1.5875	6.64673
1.588	4.83398
1.5885	7.5531
1.589	4.63257
1.5895	5.74036
1.59	11.17859
1.5905	10.37292
1.591	9.46655
1.5915	11.2793
1.592	7.35168
1.5925	2.92053
1.593	5.53894
1.5935	10.0708
1.594	9.66797
1.5945	7.65381
1.595	7.95593
1.5955	15.1062
1.596	5.63965
1.5965	0.70496
1.597	4.53186
1.5975	3.7262
1.598	5.94177
1.5985	7.5531
1.599	7.95593
1.5995	6.94885
1.6	5.74036
1.6005	3.62549
1.601	6.3446
1.6015	8.45947
1.602	9.86938
1.6025	7.04956
1.603	4.33044
1.6035	5.0354
1.604	7.35168
1.6045	1.61133
1.605	6.64673
1.6055	5.84106
1.606	7.5531
1.6065	5.84106
1.607	2.71912
1.6075	7.75452
1.608	5.74036
1.6085	4.73328
1.609	11.2793
1.6095	6.44531
1.61	2.11487
1.6105	2.41699
1.611	4.63257
1.6115	6.74744
1.612	4.02832
1.6125	6.3446
1.613	9.56726
1.6135	4.93469
1.614	5.53894
1.6145	8.7616
1.615	5.13611
1.6155	3.02124
1.616	2.5177
1.6165	4.53186
1.617	7.15027
1.6175	8.45947
1.618	3.92761
1.6185	7.45239
1.619	1.10779
1.6195	6.54602
1.62	1.71204
1.6205	6.14319
1.621	3.12195
1.6215	8.15735
1.622	7.25098
1.6225	8.35876
1.623	11.07788
1.6235	11.78284
1.624	5.23682
1.6245	4.63257
1.625	4.12903
1.6255	3.22266
1.626	7.35168
1.6265	4.53186
1.627	8.96301
1.6275	3.7262
1.628	3.32336
1.6285	2.71912
1.629	4.22974
1.6295	6.04248
1.63	4.22974
1.6305	3.42407
1.631	1.71204
1.6315	3.02124
1.632	3.62549
1.6325	3.7262
1.633	6.64673
1.6335	5.53894
1.634	9.36584
1.6345	5.23682
1.635	3.32336
1.6355	1.71204
1.636	8.8623
1.6365	2.92053
1.637	7.15027
1.6375	3.92761
1.638	5.84106
1.6385	6.84814
1.639	7.65381
1.6395	6.94885
1.64	7.15027
1.6405	2.92053
1.641	4.83398
1.6415	4.83398
1.642	8.05664
1.6425	4.53186
1.643	7.75452
1.6435	7.5531
1.644	2.31628
1.6445	1.71204
1.645	0
1.6455	2.41699
1.646	5.43823
1.6465	7.85522
1.647	2.71912
1.6475	3.42407
1.648	2.11487
1.6485	6.2439
1.649	8.15735
1.6495	0.60425
1.65	2.61841
1.6505	4.22974
1.651	2.5177
1.6515	4.43115
1.652	4.33044
1.6525	0.80566
1.653	6.44531
1.6535	4.43115
1.654	6.64673
1.6545	3.8269
1.655	3.8269
1.6555	8.45947
1.656	8.25806
1.6565	13.39417
1.657	7.15027
1.6575	6.64673
1.658	9.26514
1.6585	10.57434
1.659	7.15027
1.6595	9.26514
1.66	8.56018
1.6605	13.89771
1.661	13.797
1.6615	10.17151
1.662	12.99133
1.6625	8.8623
1.663	12.68921
1.6635	5.33752
1.664	3.32336
1.6645	4.33044
1.665	0.60425
1.6655	5.43823
1.666	3.02124
1.6665	4.43115
1.667	6.14319
1.6675	3.92761
1.668	8.35876
1.6685	1.81274
1.669	4.02832
1.6695	6.44531
1.67	3.52478
1.6705	5.23682
1.671	5.74036
1.6715	5.33752
1.672	5.23682
1.6725	5.94177
1.673	8.05664
1.6735	4.73328
1.674	5.84106
1.6745	4.33044
1.675	6.54602
1.6755	5.0354
1.676	2.5177
1.6765	4.33044
1.677	10.27222
1.6775	2.01416
1.678	6.64673
1.6785	7.15027
1.679	9.16443
1.6795	4.63257
1.68	0.40283
1.6805	2.01416
1.681	7.15027
1.6815	5.84106
1.682	7.15027
1.6825	3.92761
1.683	4.33044
1.6835	7.95593
1.684	6.04248
1.6845	4.33044
1.685	5.53894
1.6855	11.58142
1.686	3.7262
1.6865	11.38
1.687	8.05664
1.6875	5.43823
1.688	10.37292
1.6885	2.41699
1.689	5.43823
1.6895	7.65381
1.69	5.63965
1.6905	6.84814
1.691	4.73328
1.6915	4.33044
1.692	3.7262
1.6925	9.16443
1.693	1.3092
1.6935	5.43823
1.694	4.43115
1.6945	4.73328
1.695	3.22266
1.6955	11.88354
1.696	5.0354
1.6965	7.75452
1.697	6.3446
1.6975	7.85522
1.698	4.73328
1.6985	4.73328
1.699	4.02832
1.6995	4.02832
1.7	2.31628
1.7005	4.43115
1.701	4.12903
1.7015	1.61133
1.702	3.62549
1.7025	4.73328
1.703	3.92761
1.7035	3.92761
1.704	5.0354
1.7045	4.43115
1.705	5.74036
1.7055	4.22974
1.706	5.43823
1.7065	8.15735
1.707	7.25098
1.7075	12.28638
1.708	7.25098
1.7085	6.3446
1.709	8.7616
1.7095	9.06372
1.71	2.01416
1.7105	6.84814
1.711	4.43115
1.7115	2.41699
1.712	4.63257
1.7125	9.16443
1.713	-2.41699
1.7135	1.51062
1.714	1.3092
1.7145	9.56726
1.715	-0.40283
1.7155	0.20142
1.716	6.84814
1.7165	4.53186
1.717	8.35876
1.7175	4.83398
1.718	3.32336
1.7185	4.43115
1.719	11.2793
1.7195	12.28638
1.72	7.45239
1.7205	5.0354
1.721	2.11487
1.7215	4.12903
1.722	7.75452
1.7225	9.36584
1.723	4.83398
1.7235	5.33752
1.724	8.66089
1.7245	6.14319
1.725	7.25098
1.7255	2.01416
1.726	7.15027
1.7265	14.19983
1.727	4.33044
1.7275	4.53186
1.728	2.92053
1.7285	7.95593
1.729	6.54602
1.7295	6.44531
1.73	10.77576
1.7305	10.67505
1.731	10.57434
1.7315	7.25098
1.732	3.62549
1.7325	8.35876
1.733	10.97717
1.7335	9.86938
1.734	6.74744
1.7345	4.73328
1.735	1.81274
1.7355	4.22974
1.736	5.63965
1.7365	8.05664
1.737	9.06372
1.7375	7.95593
1.738	6.84814
1.7385	5.13611
1.739	4.83398
1.7395	1.91345
1.74	9.26514
1.7405	7.15027
1.741	7.95593
1.7415	4.93469
1.742	6.64673
1.7425	6.44531
1.743	4.33044
1.7435	5.0354
1.744	9.16443
1.7445	1.3092
1.745	1.2085
1.7455	3.92761
1.746	7.45239
1.7465	9.36584
1.747	6.3446
1.7475	6.04248
1.748	9.86938
1.7485	8.35876
1.749	6.14319
1.7495	7.95593
1.75	10.0708
1.7505	8.15735
1.751	5.94177
1.7515	1.40991
1.752	2.41699
1.7525	6.84814
1.753	5.94177
1.7535	3.02124
1.754	3.22266
1.7545	1.2085
1.755	2.41699
1.7555	3.42407
1.756	10.47363
1.7565	8.45947
1.757	4.12903
1.7575	6.74744
1.758	7.25098
1.7585	10.0708
1.759	7.95593
1.7595	6.44531
1.76	9.16443
1.7605	8.25806
1.761	9.26514
1.7615	3.12195
1.762	3.42407
1.7625	8.25806
1.763	8.45947
1.7635	2.21558
1.764	11.68213
1.7645	9.56726
1.765	7.45239
1.7655	6.54602
1.766	4.12903
1.7665	5.43823
1.767	6.74744
1.7675	14.19983
1.768	7.25098
1.7685	5.13611
1.769	5.63965
1.7695	1.81274
1.77	5.43823
1.7705	4.02832
1.771	6.04248
1.7715	5.74036
1.772	2.21558
1.7725	6.3446
1.773	4.33044
1.7735	4.83398
1.774	4.63257
1.7745	3.62549
1.775	3.52478
1.7755	8.15735
1.776	4.33044
1.7765	5.53894
1.777	0.50354
1.7775	5.33752
1.778	2.5177
1.7785	6.94885
1.779	1.61133
1.7795	0.90637
1.78	2.5177
1.7805	5.23682
1.781	5.74036
1.7815	0.40283
1.782	11.2793
1.7825	5.84106
1.783	6.44531
1.7835	5.63965
1.784	5.84106
1.7845	7.5531
1.785	8.05664
1.7855	11.48071
1.786	11.38
1.7865	4.43115
1.787	8.05664
1.7875	10.97717
1.788	7.65381
1.7885	5.13611
1.789	1.81274
1.7895	8.25806
1.79	9.36584
1.7905	11.68213
1.791	9.76868
1.7915	8.45947
1.792	10.0708
1.7925	4.43115
1.793	11.38
1.7935	8.56018
1.794	8.25806
1.7945	14.19983
1.795	9.06372
1.7955	12.5885
1.796	11.88354
1.7965	9.36584
1.797	11.2793
1.7975	8.35876
1.798	5.0354
1.7985	1.61133
1.799	4.93469
1.7995	6.64673
1.8	5.74036
1.8005	5.33752
1.801	1.40991
1.8015	2.92053
1.802	9.06372
1.8025	3.22266
1.803	4.02832
1.8035	1.2085
1.804	3.92761
1.8045	6.94885
1.805	8.35876
1.8055	7.04956
1.806	4.53186
1.8065	9.46655
1.807	3.32336
1.8075	4.43115
1.808	4.63257
1.8085	-0.90637
1.809	1.61133
1.8095	5.0354
1.81	2.11487
1.8105	6.3446
1.811	-0.70496
1.8115	1.61133
1.812	3.7262
1.8125	-0.70496
1.813	3.7262
1.8135	0.90637
1.814	3.42407
1.8145	3.22266
1.815	-1.61133
1.8155	3.02124
1.816	3.8269
1.8165	4.02832
1.817	5.23682
1.8175	-1.2085
1.818	1.51062
1.8185	1.71204
1.819	2.81982
1.8195	1.61133
1.82	7.65381
1.8205	6.84814
1.821	6.54602
1.8215	4.33044
1.822	0.40283
1.8225	0.70496
1.823	3.12195
1.8235	6.94885
1.824	3.7262
1.8245	8.56018
1.825	7.45239
1.8255	7.95593
1.826	10.47363
1.8265	7.04956
1.827	8.35876
1.8275	6.04248
1.828	4.93469
1.8285	4.43115
1.829	6.64673
1.8295	5.13611
1.83	5.74036
1.8305	3.62549
1.831	8.25806
1.8315	5.0354
1.832	6.84814
1.8325	10.77576
1.833	10.17151
1.8335	1.2085
1.834	8.7616
1.8345	9.66797
1.835	13.59558
1.8355	13.19275
1.836	8.56018
1.8365	8.7616
1.837	10.77576
1.8375	18.32886
1.838	8.15735
1.8385	6.54602
1.839	12.38708
1.8395	11.48071
1.84	9.46655
1.8405	7.85522
1.841	12.48779
1.8415	12.28638
1.842	8.45947
1.8425	10.57434
1.843	8.45947
1.8435	8.7616
1.844	5.74036
1.8445	5.23682
1.845	6.3446
1.8455	6.94885
1.846	7.75452
1.8465	9.16443
1.847	7.5531
1.8475	4.02832
1.848	7.75452
1.8485	5.84106
1.849	6.74744
1.8495	3.22266
1.85	8.96301
1.8505	6.64673
1.851	3.7262
1.8515	7.5531
1.852	2.71912
1.8525	7.65381
1.853	3.92761
1.8535	8.15735
1.854	6.04248
1.8545	4.12903
1.855	6.14319
1.8555	1.3092
1.856	-0.60425
1.8565	7.25098
1.857	1.81274
1.8575	1.2085
1.858	5.13611
1.8585	7.25098
1.859	8.45947
1.8595	13.69629
1.86	9.76868
1.8605	6.74744
1.861	5.0354
1.8615	9.36584
1.862	5.84106
1.8625	3.92761
1.863	3.92761
1.8635	6.64673
1.864	8.56018
1.8645	5.94177
1.865	2.01416
1.8655	1.81274
1.866	5.33752
1.8665	5.74036
1.867	2.81982
1.8675	2.41699
1.868	5.84106
1.8685	7.15027
1.869	1.51062
1.8695	5.13611
1.87	2.01416
1.8705	4.12903
1.871	0.40283
1.8715	5.94177
1.872	2.41699
1.8725	5.13611
1.873	2.31628
1.8735	6.04248
1.874	3.8269
1.8745	5.53894
1.875	7.15027
1.8755	9.26514
1.876	4.22974
1.8765	6.3446
1.877	7.15027
1.8775	7.5531
1.878	9.46655
1.8785	2.71912
1.879	3.62549
1.8795	6.44531
1.88	5.13611
1.8805	4.43115
1.881	4.93469
1.8815	5.33752
1.882	3.32336
1.8825	6.74744
1.883	3.22266
1.8835	1.51062
1.884	5.23682
1.8845	6.74744
1.885	7.15027
1.8855	3.42407
1.886	4.93469
1.8865	0.40283
1.887	0.20142
1.8875	4.43115
1.888	5.13611
1.8885	3.32336
1.889	7.35168
1.8895	3.8269
1.89	3.7262
1.8905	1.61133
1.891	0.80566
1.8915	3.8269
1.892	9.16443
1.8925	0.90637
1.893	8.15735
1.8935	6.54602
1.894	10.47363
1.8945	11.98425
1.895	1.81274
1.8955	6.3446
1.896	5.74036
1.8965	12.5885
1.897	11.68213
1.8975	11.17859
1.898	11.78284
1.8985	9.16443
1.899	6.3446
1.8995	7.85522
1.9	7.85522
1.9005	6.14319
1.901	6.14319
1.9015	8.7616
1.902	8.45947
1.9025	-0.50354
1.903	6.14319
1.9035	4.02832
1.904	-1.51062
1.9045	-1.40991
1.905	6.3446
1.9055	5.53894
1.906	2.92053
1.9065	7.85522
1.907	2.81982
1.9075	2.01416
1.908	0.40283
1.9085	7.75452
1.909	7.45239
1.9095	4.83398
1.91	8.35876
1.9105	1.3092
1.911	4.93469
1.9115	6.94885
1.912	8.35876
1.9125	6.64673
1.913	7.75452
1.9135	-0.50354
1.914	3.22266
1.9145	5.0354
1.915	2.61841
1.9155	3.02124
1.916	4.43115
1.9165	8.56018
1.917	6.2439
1.9175	6.04248
1.918	7.25098
1.9185	-1.2085
1.919	4.12903
1.9195	7.25098
1.92	7.25098
1.9205	3.42407
1.921	5.53894
1.9215	5.43823
1.922	4.93469
1.9225	5.74036
1.923	7.65381
1.9235	9.76868
1.924	10.27222
1.9245	3.7262
1.925	7.04956
1.9255	3.92761
1.926	3.7262
1.9265	5.74036
1.927	3.22266
1.9275	5.74036
1.928	5.0354
1.9285	1.51062
1.929	4.33044
1.9295	3.32336
1.93	3.92761
1.9305	12.18567
1.931	9.46655
1.9315	8.45947
1.932	10.87646
1.9325	4.63257
1.933	12.89062
1.9335	8.96301
1.934	5.53894
1.9345	-0.20142
1.935	2.21558
1.9355	5.94177
1.936	11.68213
1.9365	5.13611
1.937	0.80566
1.9375	1.10779
1.938	-1.40991
1.9385	2.11487
1.939	6.64673
1.9395	8.96301
1.94	7.5531
1.9405	5.0354
1.941	5.23682
1.9415	8.56018
1.942	11.2793
1.9425	8.96301
1.943	9.97009
1.9435	7.95593
1.944	9.66797
1.9445	7.95593
1.945	3.8269
1.9455	4.43115
1.946	9.16443
1.9465	10.57434
1.947	1.61133
1.9475	7.95593
1.948	10.17151
1.9485	4.63257
1.949	8.66089
1.9495	5.43823
1.95	4.12903
1.9505	7.15027
1.951	3.62549
1.9515	9.66797
1.952	12.08496
1.9525	9.76868
1.953	6.84814
1.9535	6.84814
1.954	9.26514
1.9545	11.58142
1.955	8.96301
1.9555	5.43823
1.956	9.16443
1.9565	12.68921
1.957	10.67505
1.9575	7.95593
1.958	6.84814
1.9585	9.66797
1.959	8.25806
1.9595	9.76868
1.96	10.27222
1.9605	7.5531
1.961	7.35168
1.9615	8.56018
1.962	3.8269
1.9625	6.04248
1.963	5.0354
1.9635	5.63965
1.964	11.58142
1.9645	7.5531
1.965	6.44531
1.9655	8.8623
1.966	10.0708
1.9665	8.56018
1.967	5.63965
1.9675	4.43115
1.968	5.74036
1.9685	6.94885
1.969	8.56018
1.9695	8.15735
1.97	6.84814
1.9705	5.43823
1.971	7.65381
1.9715	6.04248
1.972	8.05664
1.9725	2.11487
1.973	3.02124
1.9735	2.5177
1.974	5.43823
1.9745	6.14319
1.975	10.47363
1.9755	9.66797
1.976	6.54602
1.9765	6.84814
1.977	4.73328
1.9775	3.8269
1.978	10.17151
1.9785	7.95593
1.979	5.63965
1.9795	7.65381
1.98	10.57434
1.9805	6.94885
1.981	12.5885
1.9815	9.46655
1.982	9.66797
1.9825	9.36584
1.983	7.25098
1.9835	8.96301
1.984	5.23682
1.9845	8.96301
1.985	2.71912
1.9855	3.52478
1.986	9.36584
1.9865	9.26514
1.987	6.94885
1.9875	5.94177
1.988	2.81982
1.9885	5.13611
1.989	5.33752
1.9895	2.5177
1.99	3.32336
1.9905	6.84814
1.991	4.02832
1.9915	4.53186
1.992	7.45239
1.9925	5.53894
1.993	8.15735
1.9935	7.85522
1.994	9.36584
1.9945	6.04248
1.995	7.65381
1.9955	7.45239
1.996	7.04956
1.9965	6.2439
1.997	5.43823
1.9975	7.25098
1.998	3.62549
1.9985	5.74036
1.999	6.3446
1.9995	1.3092
2	7.5531
2.0005	8.15735
2.001	5.53894
2.0015	5.33752
2.002	1.3092
2.0025	0.60425
2.003	4.53186
2.0035	8.15735
2.004	7.25098
2.0045	5.63965
2.005	6.94885
2.0055	6.54602
2.006	11.2793
2.0065	6.14319
2.007	5.84106
2.0075	4.22974
2.008	-0.40283
2.0085	5.84106
2.009	3.52478
2.0095	4.93469
2.01	-0.80566
2.0105	4.73328
2.011	6.3446
2.0115	-1.40991
2.012	7.25098
2.0125	7.04956
2.013	4.63257
2.0135	13.39417
2.014	7.04956
2.0145	3.7262
2.015	4.63257
2.0155	10.97717
2.016	5.74036
2.0165	10.57434
2.017	5.13611
2.0175	6.94885
2.018	6.84814
2.0185	7.45239
2.019	6.14319
2.0195	7.95593
2.02	5.74036
2.0205	8.56018
2.021	3.52478
2.0215	8.25806
2.022	5.43823
2.0225	-1.81274
2.023	6.64673
2.0235	9.76868
2.024	10.17151
2.0245	7.95593
2.025	9.56726
2.0255	7.65381
2.026	8.7616
2.0265	6.94885
2.027	4.43115
2.0275	3.12195
2.028	8.35876
2.0285	10.27222
2.029	14.60266
2.0295	10.47363
2.03	4.53186
2.0305	2.5177
2.031	4.02832
2.0315	-3.12195
2.032	2.81982
2.0325	0.90637
2.033	7.75452
2.0335	6.14319
2.034	3.22266
2.0345	4.43115
2.035	3.92761
2.0355	8.66089
2.036	7.95593
2.0365	5.94177
2.037	5.63965
2.0375	7.95593
2.038	6.3446
2.0385	7.95593
2.039	7.35168
2.0395	5.13611
2.04	-0.80566
2.0405	5.0354
2.041	4.93469
2.0415	7.25098
2.042	2.11487
2.0425	5.74036
2.043	2.5177
2.0435	2.71912
2.044	7.85522
2.0445	10.37292
2.045	7.75452
2.0455	4.33044
2.046	4.33044
2.0465	8.7616
2.047	3.7262
2.0475	3.7262
2.048	3.8269
2.0485	5.13611
2.049	1.91345
2.0495	2.92053
2.05	2.61841
2.0505	3.52478
2.051	3.42407
2.0515	9.66797
2.052	5.63965
2.0525	4.53186
2.053	1.91345
2.0535	2.21558
2.054	1.00708
2.0545	1.61133
2.055	4.63257
2.0555	1.51062
2.056	5.84106
2.0565	4.12903
2.057	5.94177
2.0575	5.74036
2.058	7.75452
2.0585	4.63257
2.059	4.12903
2.0595	5.63965
2.06	6.04248
2.0605	7.25098
2.061	9.76868
2.0615	7.75452
2.062	1.61133
2.0625	1.51062
2.063	4.33044
2.0635	4.63257
2.064	8.66089
2.0645	8.25806
2.065	5.33752
2.0655	9.56726
2.066	7.15027
2.0665	9.26514
2.067	10.97717
2.0675	2.01416
2.068	5.63965
2.0685	6.94885
2.069	5.74036
2.0695	5.74036
2.07	7.25098
2.0705	2.92053
2.071	7.15027
2.0715	10.0708
2.072	8.35876
2.0725	9.26514
2.073	8.8623
2.0735	11.78284
2.074	9.36584
2.0745	10.67505
2.075	5.63965
2.0755	7.15027
2.076	9.26514
2.0765	6.14319
2.077	7.85522
2.0775	1.40991
2.078	9.46655
2.0785	8.96301
2.079	8.96301
2.0795	7.65381
2.08	5.84106
2.0805	7.5531
2.081	9.76868
2.0815	3.52478
2.082	9.06372
2.0825	1.61133
2.083	8.56018
2.0835	2.61841
2.084	1.91345
2.0845	5.13611
2.085	2.61841
2.0855	7.25098
2.086	1.71204
2.0865	6.84814
2.087	1.81274
2.0875	3.8269
2.088	5.63965
2.0885	2.71912
2.089	2.81982
2.0895	3.62549
2.09	7.85522
2.0905	10.87646
2.091	8.35876
2.0915	7.65381
2.092	4.63257
2.0925	6.74744
2.093	8.8623
2.0935	3.7262
2.094	8.45947
2.0945	8.35876
2.095	7.15027
2.0955	4.02832
2.096	6.64673
2.0965	7.75452
2.097	4.22974
2.0975	10.57434
2.098	8.66089
2.0985	9.26514
2.099	0.60425
2.0995	11.38
2.1	5.13611
2.1005	6.94885
2.101	2.92053
2.1015	6.3446
2.102	8.56018
2.1025	11.78284
2.103	4.33044
2.1035	4.22974
2.104	2.5177
2.1045	4.33044
2.105	7.85522
2.1055	3.42407
2.106	5.94177
2.1065	3.42407
2.107	5.63965
2.1075	6.14319
2.108	6.04248
2.1085	9.36584
2.109	12.48779
2.1095	6.54602
2.11	0.90637
2.1105	5.53894
2.111	1.71204
2.1115	1.40991
2.112	5.23682
2.1125	6.74744
2.113	1.2085
2.1135	5.43823
2.114	10.0708
2.1145	9.76868
2.115	10.57434
2.1155	2.71912
2.116	2.61841
2.1165	6.94885
2.117	7.25098
2.1175	7.25098
2.118	6.74744
2.1185	8.8623
2.119	5.94177
2.1195	3.02124
2.12	4.12903
2.1205	3.92761
2.121	1.3092
2.1215	2.41699
2.122	1.2085
2.1225	3.52478
2.123	5.94177
2.1235	7.95593
2.124	2.71912
2.1245	3.62549
2.125	6.14319
2.1255	3.32336
2.126	3.92761
2.1265	8.8623
2.127	6.44531
2.1275	0.80566
2.128	2.01416
2.1285	-1.00708
2.129	-0.40283
2.1295	4.63257
2.13	7.65381
2.1305	3.7262
2.131	6.2439
2.1315	4.02832
2.132	2.5177
2.1325	4.43115
2.133	6.3446
2.1335	4.12903
2.134	0.20142
2.1345	-0.50354
2.135	5.74036
2.1355	2.41699
2.136	2.01416
2.1365	0.80566
2.137	5.43823
2.1375	7.75452
2.138	8.05664
2.1385	4.73328
2.139	2.61841
2.1395	4.63257
2.14	4.12903
2.1405	4.22974
2.141	5.63965
2.1415	3.02124
2.142	6.3446
2.1425	8.25806
2.143	7.5531
2.1435	1.3092
2.144	0.50354
2.1445	5.43823
2.145	3.7262
2.1455	2.11487
2.146	7.45239
2.1465	3.8269
2.147	0.40283
2.1475	5.94177
2.148	4.22974
2.1485	4.12903
2.149	5.23682
2.1495	4.12903
2.15	0.40283
2.1505	1.81274
2.151	2.92053
2.1515	6.44531
2.152	0.60425
2.1525	-3.92761
2.153	6.84814
2.1535	6.64673
2.154	4.83398
2.1545	6.3446
2.155	4.93469
2.1555	4.02832
2.156	5.63965
2.1565	9.36584
2.157	7.35168
2.1575	5.94177
2.158	3.02124
2.1585	4.93469
2.159	5.94177
2.1595	7.35168
2.16	6.04248
2.1605	4.73328
2.161	3.62549
2.1615	5.23682
2.162	7.75452
2.1625	2.11487
2.163	6.2439
2.1635	0.20142
2.164	0.10071
2.1645	5.13611
2.165	-1.2085
2.1655	1.10779
2.166	2.21558
2.1665	3.52478
2.167	0.70496
2.1675	4.63257
2.168	6.94885
2.1685	5.53894
2.169	2.71912
2.1695	6.3446
2.17	5.53894
2.1705	7.65381
2.171	4.83398
2.1715	5.74036
2.172	3.02124
2.1725	8.66089
2.173	3.42407
2.1735	0.50354
2.174	3.62549
2.1745	2.5177
2.175	4.02832
2.1755	1.10779
2.176	13.99841
2.1765	11.48071
2.177	5.43823
2.1775	0.30212
2.178	4.73328
2.1785	8.15735
2.179	7.85522
2.1795	5.84106
2.18	8.96301
2.1805	5.94177
2.181	3.62549
2.1815	9.06372
2.182	5.94177
2.1825	9.86938
2.183	6.2439
2.1835	6.2439
2.184	3.7262
2.1845	6.3446
2.185	7.95593
2.1855	5.43823
2.186	6.44531
2.1865	8.35876
2.187	10.57434
2.1875	5.94177
2.188	7.04956
2.1885	7.85522
2.189	7.75452
2.1895	7.15027
2.19	7.45239
2.1905	9.76868
2.191	7.35168
2.1915	5.33752
2.192	11.2793
2.1925	8.35876
2.193	2.71912
2.1935	6.3446
2.194	4.93469
2.1945	9.56726
2.195	8.05664
2.1955	6.3446
2.196	12.08496
2.1965	4.93469
2.197	8.25806
2.1975	11.17859
2.198	13.19275
2.1985	11.78284
2.199	9.86938
2.1995	10.47363
2.2	4.93469
2.2005	7.35168
2.201	6.84814
2.2015	14.09912
2.202	10.37292
2.2025	1.91345
2.203	3.7262
2.2035	8.15735
2.204	7.15027
2.2045	12.18567
2.205	7.85522
2.2055	5.74036
2.206	2.81982
2.2065	4.83398
2.207	7.65381
2.2075	3.52478
2.208	6.3446
2.2085	9.76868
2.209	8.56018
2.2095	9.56726
2.21	9.46655
2.2105	9.66797
2.211	5.13611
2.2115	6.54602
2.212	6.54602
2.2125	2.5177
2.213	6.14319
2.2135	5.23682
2.214	5.43823
2.2145	6.84814
2.215	1.51062
2.2155	-1.2085
2.216	0.80566
2.2165	3.7262
2.217	5.0354
2.2175	2.92053
2.218	5.84106
2.2185	11.17859
2.219	4.53186
2.2195	7.85522
2.22	4.53186
2.2205	4.93469
2.221	3.8269
2.2215	2.41699
2.222	4.22974
2.2225	3.62549
2.223	2.01416
2.2235	7.04956
2.224	1.3092
2.2245	4.33044
2.225	3.32336
2.2255	0.40283
2.226	3.62549
2.2265	3.7262
2.227	1.00708
2.2275	8.35876
2.228	5.33752
2.2285	7.25098
2.229	2.5177
2.2295	4.63257
2.23	7.95593
2.2305	5.74036
2.231	8.96301
2.2315	8.45947
2.232	3.22266
2.2325	4.93469
2.233	7.15027
2.2335	5.0354
2.234	8.15735
2.2345	8.25806
2.235	5.13611
2.2355	4.43115
2.236	9.16443
2.2365	3.92761
2.237	8.05664
2.2375	5.74036
2.238	3.02124
2.2385	4.43115
2.239	4.33044
2.2395	4.33044
2.24	4.33044
2.2405	4.33044
2.241	4.33044
2.2415	4.33044
2.242	4.33044
2.2425	4.33044
2.243	4.33044
2.2435	4.33044
2.244	4.33044
2.2445	4.33044
2.245	4.33044
2.2455	4.33044
2.246	4.33044
2.2465	4.33044
2.247	4.33044
2.2475	4.33044
2.248	4.33044
2.2485	4.33044
2.249	4.33044
2.2495	6.2439
2.25	2.01416
2.2505	5.53894
2.251	2.21558
2.2515	7.04956
2.252	7.75452
2.2525	4.43115
2.253	5.63965
2.2535	6.84814
2.254	12.08496
2.2545	9.36584
2.255	8.8623
2.2555	2.81982
2.256	6.3446
2.2565	0.20142
2.257	4.73328
2.2575	4.02832
2.258	6.54602
2.2585	2.71912
2.259	3.62549
2.2595	3.52478
2.26	3.62549
2.2605	9.36584
2.261	9.76868
2.2615	10.47363
2.262	6.64673
2.2625	5.13611
2.263	10.47363
2.2635	8.66089
2.264	4.43115
2.2645	7.04956
2.265	7.85522
2.2655	7.85522
2.266	-0.80566
2.2665	5.23682
2.267	5.63965
2.2675	11.07788
2.268	7.15027
2.2685	7.15027
2.269	7.95593
2.2695	5.33752
2.27	5.94177
2.2705	2.61841
2.271	8.45947
2.2715	7.75452
2.272	10.0708
2.2725	3.22266
2.273	7.5531
2.2735	10.17151
2.274	4.43115
2.2745	4.02832
2.275	2.61841
2.2755	0.20142
2.276	1.3092
2.2765	5.23682
2.277	2.31628
2.2775	10.27222
2.278	5.84106
2.2785	7.45239
2.279	14.09912
2.2795	4.63257
2.28	9.66797
2.2805	10.27222
2.281	6.54602
2.2815	10.27222
2.282	9.16443
2.2825	10.0708
2.283	7.04956
2.2835	2.92053
2.284	3.8269
2.2845	7.45239
2.285	7.65381
2.2855	8.56018
2.286	13.09204
2.2865	1.40991
2.287	6.54602
2.2875	5.84106
2.288	4.83398
2.2885	0.50354
2.289	0
2.2895	7.95593
2.29	6.94885
2.2905	10.77576
2.291	4.73328
2.2915	7.04956
2.292	7.65381
2.2925	8.66089
2.293	5.74036
2.2935	2.81982
2.294	4.53186
2.2945	5.84106
2.295	8.45947
2.2955	7.15027
2.296	7.35168
2.2965	9.26514
2.297	5.33752
2.2975	12.08496
2.298	10.77576
2.2985	7.95593
2.299	6.94885
2.2995	2.61841
2.3	7.04956
2.3005	11.68213
2.301	1.81274
2.3015	6.94885
2.302	11.78284
2.3025	8.05664
2.303	8.05664
2.3035	5.94177
2.304	2.31628
2.3045	2.41699
2.305	3.7262
2.3055	-2.61841
2.306	9.76868
2.3065	3.7262
2.307	4.73328
2.3075	7.65381
2.308	6.54602
2.3085	8.8623
2.309	6.04248
2.3095	0
2.31	4.12903
2.3105	6.2439
2.311	0.80566
2.3115	2.21558
2.312	8.96301
2.3125	13.19275
2.313	6.04248
2.3135	6.04248
2.314	4.53186
2.3145	11.2793
2.315	10.77576
2.3155	7.65381
2.316	10.87646
2.3165	10.0708
2.317	12.99133
2.3175	8.45947
2.318	9.26514
2.3185	7.75452
2.319	10.47363
2.3195	10.67505
2.32	12.38708
2.3205	17.32178
2.321	13.09204
2.3215	19.13452
2.322	10.77576
2.3225	9.46655
2.323	10.47363
2.3235	14.90479
2.324	15.50903
2.3245	10.97717
2.325	9.06372
2.3255	6.54602
2.326	9.06372
2.3265	4.83398
2.327	10.57434
2.3275	5.74036
2.328	9.36584
2.3285	3.22266
2.329	8.56018
2.3295	17.92603
2.33	29.30603
2.3305	31.21948
2.331	11.98425
2.3315	-0.90637
2.332	-12.38708
2.3325	-7.35168
2.333	-5.74036
2.3335	-6.2439
2.334	-8.66089
2.3345	-16.41541
2.335	-17.12036
2.3355	-14.70337
2.336	-10.37292
2.3365	-15.30762
2.337	-10.37292
2.3375	-1.3092
2.338	-4.43115
2.3385	4.53186
2.339	15.60974
2.3395	22.6593
2.34	26.3855
2.3405	30.11169
2.341	33.73718
2.3415	29.20532
2.342	30.81665
2.3425	19.83948
2.343	15.00549
2.3435	3.32336
2.344	-0.70496
2.3445	-3.7262
2.345	-3.52478
2.3455	-0.40283
2.346	-1.10779
2.3465	-2.5177
2.347	0.70496
2.3475	-0.40283
2.348	3.62549
2.3485	-2.41699
2.349	-0.70496
2.3495	-1.00708
2.35	7.65381
2.3505	13.69629
2.351	16.91895
2.3515	22.55859
2.352	26.48621
2.3525	21.85364
2.353	27.39258
2.3535	23.36426
2.354	24.06921
2.3545	23.76709
2.355	20.1416
2.3555	14.70337
2.356	15.40833
2.3565	12.18567
2.357	1.2085
2.3575	8.56018
2.358	10.87646
2.3585	9.76868
2.359	13.59558
2.3595	18.93311
2.36	15.91187
2.3605	13.29346
2.361	12.5885
2.3615	19.23523
2.362	17.01965
2.3625	9.46655
2.363	2.21558
2.3635	-13.89771
2.364	-18.53027
2.3645	-23.76709
2.365	-18.93311
2.3655	-15.00549
2.366	-17.32178
2.3665	-4.93469
2.367	-2.31628
2.3675	0
2.368	-2.11487
2.3685	0.80566
2.369	11.2793
2.3695	-1.40991
2.37	-10.77576
2.3705	-45.52002
2.371	-46.92993
2.3715	-25.47913
2.372	-1.00708
2.3725	32.02515
2.373	63.64746
2.3735	87.91809
2.374	103.52783
2.3745	111.8866
2.375	101.71509
2.3755	91.44287
2.376	77.64587
2.3765	55.89294
2.377	31.82373
2.3775	12.99133
2.378	-7.85522
2.3785	-22.55859
2.379	-23.16284
2.3795	-22.76001
2.38	-26.48621
2.3805	-21.65222
2.381	-15.40833
2.3815	-14.09912
2.382	-23.76709
2.3825	-28.09753
2.383	-37.96692
2.3835	-42.90161
2.384	-47.53418
2.3845	-45.01648
2.385	-41.99524
2.3855	-51.86462
2.386	-62.43896
2.3865	-63.34534
2.387	-56.49719
2.3875	-36.65771
2.388	0.90637
2.3885	41.79382
2.389	57.70569
2.3895	60.92834
2.39	61.43188
2.3905	48.23914
2.391	46.62781
2.3915	49.44763
2.392	48.33984
2.3925	39.27612
2.393	29.91028
2.3935	20.94727
2.394	14.19983
2.3945	7.04956
2.395	7.25098
2.3955	16.01257
2.396	24.97559
2.3965	29.20532
2.397	35.34851
2.3975	41.4917
2.398	43.50586
2.3985	37.96692
2.399	31.4209
2.3995	25.37842
2.4	6.2439
2.4005	-5.94177
2.401	-15.91187
2.4015	-25.37842
2.402	-30.91736
2.4025	-34.74426
2.403	-33.83789
2.4035	-36.75842
2.404	-38.67188
2.4045	-37.26196
2.405	-34.34143
2.4055	-29.40674
2.406	-17.42249
2.4065	-17.92603
2.407	-17.01965
2.4075	-13.29346
2.408	-12.48779
2.4085	-1.40991
2.409	8.25806
2.4095	0.20142
2.41	3.62549
2.4105	3.02124
2.411	2.61841
2.4115	3.32336
2.412	-1.51062
2.4125	-2.81982
2.413	-3.52478
2.4135	-5.53894
2.414	-0.40283
2.4145	2.11487
2.415	-2.71912
2.4155	-2.41699
2.416	-3.22266
2.4165	-1.81274
2.417	-7.35168
2.4175	-0.50354
2.418	-2.81982
2.4185	-2.61841
2.419	-2.21558
2.4195	-0.30212
2.42	0.70496
2.4205	-3.12195
2.421	3.92761
2.4215	9.06372
2.422	12.89062
2.4225	13.69629
2.423	14.70337
2.4235	15.20691
2.424	6.74744
2.4245	10.37292
2.425	12.78992
2.4255	20.04089
2.426	19.23523
2.4265	24.27063
2.427	18.22815
2.4275	13.49487
2.428	14.60266
2.4285	20.34302
2.429	19.13452
2.4295	17.32178
2.43	10.37292
2.4305	18.73169
2.431	22.96143
2.4315	20.74585
2.432	30.01099
2.4325	25.88196
2.433	34.44214
2.4335	35.75134
2.434	35.85205
2.4345	28.60107
2.435	27.6947
2.4355	24.77417
2.436	19.63806
2.4365	16.41541
2.437	8.7616
2.4375	5.63965
2.438	2.21558
2.4385	-5.74036
2.439	0.80566
2.4395	-0.10071
2.44	3.12195
2.4405	0.50354
2.441	2.01416
2.4415	-3.92761
2.442	1.10779
2.4425	-0.70496
2.443	-9.86938
2.4435	-15.40833
2.444	-9.97009
2.4445	-6.14319
2.445	1.10779
2.4455	7.65381
2.446	23.66638
2.4465	36.75842
2.447	48.64197
2.4475	42.19666
2.448	38.36975
2.4485	35.54993
2.449	32.02515
2.4495	16.01257
2.45	4.73328
2.4505	0.40283
2.451	-2.92053
2.4515	1.00708
2.452	-0.40283
2.4525	-4.33044
2.453	-6.14319
2.4535	-5.13611
2.454	-5.84106
2.4545	3.92761
2.455	12.18567
2.4555	21.04797
2.456	21.85364
2.4565	20.54443
2.457	13.89771
2.4575	5.13611
2.458	-0.20142
2.4585	-5.0354
2.459	-3.52478
2.4595	-6.74744
2.46	-4.02832
2.4605	-0.70496
2.461	-2.11487
2.4615	8.05664
2.462	19.03381
2.4625	16.61682
2.463	9.56726
2.4635	0.80566
2.464	1.00708
2.4645	-5.94177
2.465	1.00708
2.4655	3.7262
2.466	5.63965
2.4665	6.54602
2.467	9.46655
2.4675	5.74036
2.468	5.0354
2.4685	10.57434
2.469	8.8623
2.4695	10.37292
2.47	8.66089
2.4705	11.98425
2.471	5.43823
2.4715	-1.00708
2.472	0.40283
2.4725	7.15027
2.473	14.09912
2.4735	18.02673
2.474	23.06213
2.4745	17.6239
2.475	12.89062
2.4755	16.81824
2.476	14.09912
2.4765	16.81824
2.477	17.42249
2.4775	28.60107
2.478	44.71436
2.4785	86.8103
2.479	127.89917
2.4795	176.23901
2.48	214.10522
2.4805	215.21301
2.481	206.25
2.4815	170.19653
2.482	113.90076
2.4825	65.86304
2.483	12.89062
2.4835	-28.39966
2.484	-66.16516
2.4845	-84.99756
2.485	-97.38464
2.4855	-102.01721
2.486	-111.9873
2.4865	-108.46252
2.487	-96.98181
2.4875	-93.25562
2.488	-88.42163
2.4885	-83.28552
2.489	-75.83313
2.4895	-68.17932
2.49	-70.59631
2.4905	-77.84729
2.491	-70.09277
2.4915	-59.61914
2.492	-42.09595
2.4925	-37.56409
2.493	-23.26355
2.4935	-25.57983
2.494	-19.43665
2.4945	-24.47205
2.495	-21.85364
2.4955	-18.8324
2.496	-23.16284
2.4965	-25.07629
2.497	-19.63806
2.4975	-12.99133
2.498	-7.35168
2.4985	-9.76868
2.499	-4.12903
2.4995	-5.94177
2.5	-1.71204
2.5005	7.95593
2.501	11.17859
2.5015	10.27222
2.502	16.01257
2.5025	15.20691
2.503	10.87646
2.5035	20.84656
2.504	16.01257
2.5045	16.11328
2.505	13.69629
2.5055	12.99133
2.506	15.40833
2.5065	14.30054
2.507	16.3147
2.5075	10.67505
2.508	14.80408
2.5085	16.51611
2.509	14.70337
2.5095	14.60266
2.51	15.30762
2.5105	13.39417
2.511	16.01257
2.5115	15.91187
2.512	16.51611
2.5125	16.21399
2.513	12.08496
2.5135	12.78992
2.514	9.06372
2.5145	8.66089
2.515	10.57434
2.5155	6.74744
2.516	13.797
2.5165	15.40833
2.517	10.57434
2.5175	14.50195
2.518	16.81824
2.5185	15.60974
2.519	15.40833
2.5195	16.41541
2.52	18.53027
2.5205	18.73169
2.521	21.04797
2.5215	23.06213
2.522	19.94019
2.5225	16.51611
2.523	18.73169
2.5235	23.26355
2.524	25.47913
2.5245	24.06921
2.525	21.24939
2.5255	18.22815
2.526	19.63806
2.5265	17.82532
2.527	8.45947
2.5275	9.26514
2.528	8.25806
2.5285	13.29346
2.529	11.88354
2.5295	5.23682
2.53	8.15735
2.5305	3.8269
2.531	-0.20142
2.5315	-1.00708
2.532	-4.12903
2.5325	5.84106
2.533	4.22974
2.5335	3.8269
2.534	-1.81274
2.5345	6.84814
2.535	1.10779
2.5355	0.50354
2.536	6.74744
2.5365	8.66089
2.537	6.44531
2.5375	2.31628
2.538	8.45947
2.5385	5.23682
2.539	6.2439
2.5395	8.25806
2.54	10.67505
2.5405	8.05664
2.541	9.86938
2.5415	8.8623
2.542	21.55151
2.5425	51.5625
2.543	73.71826
2.5435	81.06995
2.544	75.83313
2.5445	68.48145
2.545	48.44055
2.5455	23.56567
2.546	4.33044
2.5465	-9.26514
2.547	-23.06213
2.5475	-28.60107
2.548	-28.19824
2.5485	-19.23523
2.549	-15.00549
2.5495	-9.66797
2.55	-8.96301
2.5505	-6.2439
2.551	-11.07788
2.5515	-14.90479
2.552	-21.75293
2.5525	-18.53027
2.553	-20.04089
2.5535	-19.23523
2.554	-16.71753
2.5545	-7.75452
2.555	-4.33044
2.5555	-5.53894
2.556	-4.33044
2.5565	-7.65381
2.557	-4.83398
2.5575	-4.02832
2.558	-4.22974
2.5585	5.63965
2.559	1.2085
2.5595	-0.40283
2.56	-4.63257
2.5605	-8.05664
2.561	-1.3092
2.5615	-1.71204
2.562	5.0354
2.5625	8.15735
2.563	5.63965
2.5635	1.40991
2.564	-0.50354
2.5645	-1.51062
2.565	-6.74744
2.5655	-4.93469
2.566	2.92053
2.5665	1.10779
2.567	5.94177
2.5675	5.53894
2.568	2.21558
2.5685	5.74036
2.569	4.63257
2.5695	3.42407
2.57	6.74744
2.5705	7.65381
2.571	5.23682
2.5715	9.97009
2.572	37.46338
2.5725	76.7395
2.573	98.69385
2.5735	105.54199
2.574	85.60181
2.5745	70.49561
2.575	54.28162
2.5755	28.39966
2.576	8.66089
2.5765	-13.69629
2.577	-27.39258
2.5775	-39.17542
2.578	-43.20374
2.5785	-40.38391
2.579	-44.31152
2.5795	-41.69312
2.58	-41.39099
2.5805	-37.06055
2.581	-31.82373
2.5815	-35.65063
2.582	-35.95276
2.5825	-35.95276
2.583	-27.6947
2.5835	-32.52869
2.584	-23.16284
2.5845	-24.57275
2.585	-16.3147
2.5855	-12.5885
2.586	-9.76868
2.5865	-8.15735
2.587	0.40283
2.5875	0.40283
2.588	-2.5177
2.5885	-0.40283
2.589	1.51062
2.5895	2.41699
2.59	-0.60425
2.5905	7.95593
2.591	12.68921
2.5915	6.64673
2.592	7.85522
2.5925	11.17859
2.593	9.26514
2.5935	11.48071
2.594	12.5885
2.5945	11.48071
2.595	3.52478
2.5955	0.30212
2.596	6.3446
2.5965	6.04248
2.597	8.8623
2.5975	13.39417
2.598	2.41699
2.5985	9.16443
2.599	10.47363
2.5995	13.59558
2.6	16.81824
2.6005	9.86938
2.601	16.71753
2.6015	10.67505
2.602	16.61682
2.6025	9.06372
2.603	9.26514
2.6035	12.18567
2.604	14.30054
2.6045	11.88354
2.605	13.19275
2.6055	12.78992
2.606	8.05664
2.6065	10.67505
2.607	13.797
2.6075	14.19983
2.608	7.5531
2.6085	9.26514
2.609	11.58142
2.6095	15.40833
2.61	22.86072
2.6105	22.96143
2.611	34.24072
2.6115	61.43188
2.612	82.68127
2.6125	93.96057
2.613	91.54358
2.6135	70.59631
2.614	62.23755
2.6145	48.74268
2.615	39.07471
2.6155	24.47205
2.616	10.37292
2.6165	-8.25806
2.617	-23.56567
2.6175	-30.11169
2.618	-36.05347
2.6185	-37.26196
2.619	-37.7655
2.6195	-32.52869
2.62	-33.63647
2.6205	-31.01807
2.621	-36.95984
2.6215	-39.27612
2.622	-45.82214
2.6225	-37.26196
2.623	-29.00391
2.6235	-20.84656
2.624	-21.65222
2.6245	-21.95435
2.625	-21.24939
2.6255	-14.30054
2.626	-7.15027
2.6265	-4.33044
2.627	10.87646
2.6275	19.73877
2.628	26.18408
2.6285	16.91895
2.629	13.99841
2.6295	18.93311
2.63	15.91187
2.6305	13.797
2.631	11.78284
2.6315	0.80566
2.632	-1.81274
2.6325	3.8269
2.633	-0.30212
2.6335	-0.70496
2.634	6.3446
2.6345	4.73328
2.635	1.91345
2.6355	11.38
2.636	18.22815
2.6365	19.23523
2.637	20.24231
2.6375	22.35718
2.638	23.26355
2.6385	25.57983
2.639	21.65222
2.6395	25.47913
2.64	21.04797
2.6405	16.01257
2.641	13.797
2.6415	11.78284
2.642	13.69629
2.6425	12.89062
2.643	11.17859
2.6435	7.5531
2.644	2.11487
2.6445	-11.48071
2.645	-27.19116
2.6455	-36.75842
2.646	-32.62939
2.6465	-27.59399
2.647	-23.66638
2.6475	-18.22815
2.648	-17.52319
2.6485	-14.40125
2.649	-4.83398
2.6495	1.00708
2.65	4.33044
2.6505	3.8269
2.651	2.5177
2.6515	3.7262
2.652	-4.83398
2.6525	0.30212
2.653	-4.22974
2.6535	10.27222
2.654	8.15735
2.6545	8.45947
2.655	8.66089
2.6555	9.97009
2.656	6.54602
2.6565	-0.70496
2.657	0.50354
2.6575	2.11487
2.658	1.61133
2.6585	6.2439
2.659	8.66089
2.6595	11.58142
2.66	12.38708
2.6605	13.59558
2.661	9.97009
2.6615	12.99133
2.662	14.09912
2.6625	10.0708
2.663	9.97009
2.6635	17.32178
2.664	16.11328
2.6645	9.66797
2.665	16.91895
2.6655	18.63098
2.666	15.00549
2.6665	19.13452
2.667	10.47363
2.6675	8.56018
2.668	9.56726
2.6685	6.04248
2.669	10.57434
2.6695	10.0708
2.67	3.02124
2.6705	3.02124
2.671	5.13611
2.6715	29.40674
2.672	63.04321
2.6725	79.45862
2.673	85.40039
2.6735	75.02747
2.674	48.74268
2.6745	34.94568
2.675	15.00549
2.6755	-12.18567
2.676	-17.52319
2.6765	-29.20532
2.677	-33.53577
2.6775	-20.74585
2.678	-18.53027
2.6785	5.74036
2.679	78.14941
2.6795	152.37122
2.68	172.10999
2.6805	158.11157
2.681	126.48926
2.6815	74.02039
2.682	21.3501
2.6825	-24.47205
2.683	-69.79065
2.6835	-100.90942
2.684	-119.64111
2.6845	-125.18005
2.685	-117.52625
2.6855	-102.62146
2.686	-84.79614
2.6865	-62.74109
2.687	-44.21082
2.6875	-26.3855
2.688	-13.49487
2.6885	1.00708
2.689	0.10071
2.6895	-2.11487
2.69	-3.7262
2.6905	-3.92761
2.691	3.7262
2.6915	2.5177
2.692	4.93469
2.6925	8.05664
2.693	0.60425
2.6935	3.12195
2.694	2.01416
2.6945	-1.3092
2.695	3.62549
2.6955	-2.01416
2.696	-1.00708
2.6965	1.2085
2.697	0.70496
2.6975	-5.23682
2.698	-3.8269
2.6985	-6.64673
2.699	-2.61841
2.6995	15.1062
2.7	48.54126
2.7005	78.04871
2.701	87.51526
2.7015	86.50818
2.702	69.1864
2.7025	54.38232
2.703	40.2832
2.7035	21.65222
2.704	14.50195
2.7045	-1.40991
2.705	-8.15735
2.7055	-17.01965
2.706	-23.26355
2.7065	-22.05505
2.707	-21.75293
2.7075	-21.24939
2.708	-16.01257
2.7085	-2.5177
2.709	-1.91345
2.7095	-1.2085
2.71	-4.83398
2.7105	-8.25806
2.711	-11.48071
2.7115	-17.12036
2.712	-20.04089
2.7125	-18.63098
2.713	-22.05505
2.7135	-17.92603
2.714	-28.29895
2.7145	-21.55151
2.715	-30.11169
2.7155	-28.80249
2.716	-23.56567
2.7165	-20.24231
2.717	-7.04956
2.7175	0.40283
2.718	5.23682
2.7185	4.73328
2.719	10.37292
2.7195	9.06372
2.72	11.48071
2.7205	11.78284
2.721	24.97559
2.7215	36.05347
2.722	43.20374
2.7225	38.26904
2.723	35.54993
2.7235	30.91736
2.724	15.50903
2.7245	9.36584
2.725	-1.71204
2.7255	-10.97717
2.726	-16.3147
2.7265	-16.81824
2.727	-20.04089
2.7275	-13.09204
2.728	-10.37292
2.7285	-5.13611
2.729	37.7655
2.7295	79.86145
2.73	94.2627
2.7305	101.9165
2.731	93.75916
2.7315	84.59473
2.732	58.81348
2.7325	37.26196
2.733	10.97717
2.7335	-12.78992
2.734	-20.04089
2.7345	-32.7301
2.735	-42.39807
2.7355	-46.5271
2.736	-42.49878
2.7365	-37.66479
2.737	-32.62939
2.7375	-19.83948
2.738	23.26355
2.7385	63.74817
2.739	81.97632
2.7395	75.02747
2.74	59.41772
2.7405	41.08887
2.741	17.82532
2.7415	-6.94885
2.742	-26.78833
2.7425	-40.78674
2.743	-47.43347
2.7435	-52.06604
2.744	-58.41064
2.7445	-58.00781
2.745	-50.2533
2.7455	-46.72852
2.746	-36.55701
2.7465	-36.75842
2.747	-33.23364
2.7475	-27.49329
2.748	-23.56567
2.7485	-23.16284
2.749	-16.3147
2.7495	-3.8269
2.75	0.90637
2.7505	5.23682
2.751	8.8623
2.7515	4.33044
2.752	7.04956
2.7525	8.96301
2.753	3.92761
2.7535	4.83398
2.754	9.06372
2.7545	4.53186
2.755	8.35876
2.7555	8.15735
2.756	10.17151
2.7565	15.00549
2.757	15.50903
2.7575	8.35876
2.758	9.26514
2.7585	8.96301
2.759	11.88354
2.7595	14.90479
2.76	12.89062
2.7605	12.89062
2.761	19.13452
2.7615	21.75293
2.762	24.37134
2.7625	23.46497
2.763	23.76709
2.7635	25.57983
2.764	19.13452
2.7645	19.73877
2.765	16.51611
2.7655	8.8623
2.766	9.36584
2.7665	0.60425
2.767	-8.15735
2.7675	-4.53186
2.768	3.7262
2.7685	-0.30212
2.769	0.50354
2.7695	-4.02832
2.77	0.50354
2.7705	1.3092
2.771	-2.21558
2.7715	0.90637
2.772	3.8269
2.7725	4.83398
2.773	3.42407
2.7735	1.71204
2.774	1.10779
2.7745	7.95593
2.775	4.83398
2.7755	2.81982
2.776	0.20142
2.7765	1.10779
2.777	1.61133
2.7775	4.02832
2.778	7.04956
2.7785	6.84814
2.779	8.8623
2.7795	14.70337
2.78	9.56726
2.7805	9.46655
2.781	6.94885
2.7815	14.40125
2.782	10.77576
2.7825	7.04956
2.783	7.5531
2.7835	6.3446
2.784	8.35876
2.7845	4.22974
2.785	3.32336
2.7855	1.00708
2.786	0.80566
2.7865	8.35876
2.787	4.73328
2.7875	6.94885
2.788	3.62549
2.7885	12.89062
2.789	15.50903
2.7895	17.22107
2.79	18.02673
2.7905	16.71753
2.791	18.42957
2.7915	12.48779
2.792	11.78284
2.7925	17.72461
2.793	17.72461
2.7935	15.00549
2.794	13.69629
2.7945	14.09912
2.795	8.35876
2.7955	7.35168
2.796	3.62549
2.7965	6.64673
2.797	8.96301
2.7975	10.27222
2.798	10.47363
2.7985	12.18567
2.799	10.97717
2.7995	12.28638
2.8	15.60974
2.8005	11.78284
2.801	13.69629
2.8015	35.34851
2.802	59.71985
2.8025	68.88428
2.803	70.49561
2.8035	65.15808
2.804	52.16675
2.8045	42.7002
2.805	30.01099
2.8055	26.3855
2.806	12.68921
2.8065	2.61841
2.807	-7.75452
2.8075	-21.85364
2.808	-19.33594
2.8085	-18.22815
2.809	-14.70337
2.8095	-19.43665
2.81	-21.75293
2.8105	-23.06213
2.811	-20.44373
2.8115	-18.02673
2.812	-13.797
2.8125	-9.06372
2.813	-1.51062
2.8135	15.20691
2.814	58.41064
2.8145	83.38623
2.815	90.83862
2.8155	80.86853
2.816	63.64746
2.8165	38.16833
2.817	18.73169
2.8175	1.10779
2.818	-22.15576
2.8185	-40.38391
2.819	-50.75684
2.8195	-57.60498
2.82	-58.41064
2.8205	-55.3894
2.821	-46.22498
2.8215	-38.57117
2.822	-24.47205
2.8225	-11.58142
2.823	-0.30212
2.8235	10.0708
2.824	19.33594
2.8245	18.53027
2.825	23.76709
2.8255	16.91895
2.826	32.52869
2.8265	92.75208
2.827	142.90466
2.8275	151.56555
2.828	148.94714
2.8285	134.64661
2.829	120.54749
2.8295	134.34448
2.83	117.32483
2.8305	78.45154
2.831	26.28479
2.8315	-17.92603
2.832	-61.12976
2.8325	-89.22729
2.833	-96.27686
2.8335	-111.78589
2.834	-128.40271
2.8345	-131.82678
2.835	-124.27368
2.8355	-112.59155
2.836	-99.80164
2.8365	-93.0542
2.837	-81.87561
2.8375	-76.23596
2.838	-73.01331
2.8385	-80.56641
2.839	-74.42322
2.8395	-73.01331
2.84	-54.68445
2.8405	-40.78674
2.841	-32.12585
2.8415	-16.3147
2.842	-16.61682
2.8425	-5.23682
2.843	1.3092
2.8435	-2.31628
2.844	0
2.8445	4.33044
2.845	0.90637
2.8455	7.85522
2.846	10.47363
2.8465	5.74036
2.847	5.43823
2.8475	3.12195
2.848	5.63965
2.8485	10.77576
2.849	5.84106
2.8495	9.46655
2.85	6.2439
2.8505	1.3092
2.851	10.37292
2.8515	12.48779
2.852	15.71045
2.8525	13.797
2.853	18.22815
2.8535	12.48779
2.854	22.45789
2.8545	18.93311
2.855	26.28479
2.8555	24.27063
2.856	27.6947
2.8565	31.21948
2.857	27.49329
2.8575	25.07629
2.858	26.3855
2.8585	29.70886
2.859	29.30603
2.8595	28.9032
2.86	23.96851
2.8605	20.54443
2.861	20.54443
2.8615	16.51611
2.862	20.1416
2.8625	19.13452
2.863	19.73877
2.8635	19.23523
2.864	13.39417
2.8645	9.66797
2.865	15.71045
2.8655	18.12744
2.866	12.5885
2.8665	10.17151
2.867	10.37292
2.8675	4.83398
2.868	11.88354
2.8685	13.89771
2.869	14.60266
2.8695	9.06372
2.87	4.93469
2.8705	6.3446
2.871	10.27222
2.8715	13.69629
2.872	8.66089
2.8725	8.25806
2.873	9.46655
2.8735	9.46655
2.874	8.56018
2.8745	10.57434
2.875	5.63965
2.8755	11.07788
2.876	5.33752
2.8765	11.17859
2.877	14.70337
2.8775	17.92603
2.878	10.97717
2.8785	13.39417
2.879	7.85522
2.8795	7.5531
2.88	13.59558
2.8805	7.75452
2.881	5.94177
2.8815	5.13611
2.882	1.3092
2.8825	9.16443
2.883	4.33044
2.8835	1.61133
2.884	6.04248
2.8845	28.80249
2.885	54.68445
2.8855	70.69702
2.886	69.48853
2.8865	63.54675
2.887	57.10144
2.8875	44.51294
2.888	31.52161
2.8885	17.32178
2.889	10.47363
2.8895	-5.63965
2.89	-20.54443
2.8905	-20.84656
2.891	-29.50745
2.8915	-24.97559
2.892	-24.37134
2.8925	-20.34302
2.893	-6.74744
2.8935	-4.93469
2.894	-4.02832
2.8945	38.974
2.895	79.86145
2.8955	89.83154
2.896	83.88977
2.8965	62.33826
2.897	41.4917
2.8975	18.63098
2.898	-7.85522
2.8985	-25.47913
2.899	-40.2832
2.8995	-55.08728
2.9	-62.43896
2.9005	-74.52393
2.901	-72.50977
2.9015	-54.38232
2.902	-44.91577
2.9025	-33.43506
2.903	-22.45789
2.9035	-13.39417
2.904	-3.8269
2.9045	9.56726
2.905	12.5885
2.9055	18.53027
2.906	21.55151
2.9065	18.42957
2.907	22.35718
2.9075	18.22815
2.908	20.84656
2.9085	15.1062
2.909	12.38708
2.9095	12.08496
2.91	10.57434
2.9105	6.3446
2.911	3.8269
2.9115	-7.25098
2.912	-6.84814
2.9125	-6.94885
2.913	-6.74744
2.9135	2.11487
2.914	4.93469
2.9145	5.94177
2.915	11.58142
2.9155	13.39417
2.916	15.91187
2.9165	17.42249
2.917	18.12744
2.9175	14.30054
2.918	9.36584
2.9185	7.25098
2.919	11.68213
2.9195	10.47363
2.92	7.85522
2.9205	12.89062
2.921	11.2793
2.9215	5.0354
2.922	6.54602
2.9225	8.8623
2.923	7.35168
2.9235	7.75452
2.924	6.2439
2.9245	7.04956
2.925	7.04956
2.9255	-1.2085
2.926	1.3092
2.9265	1.51062
2.927	-0.30212
2.9275	6.74744
2.928	13.797
2.9285	25.177
2.929	31.52161
2.9295	36.85913
2.93	36.25488
2.9305	32.93152
2.931	28.60107
2.9315	26.28479
2.932	17.6239
2.9325	11.58142
2.933	16.01257
2.9335	24.06921
2.934	30.71594
2.9345	34.24072
2.935	34.94568
2.9355	33.73718
2.936	30.31311
2.9365	23.56567
2.937	16.41541
2.9375	6.04248
2.938	8.45947
2.9385	3.02124
2.939	-3.42407
2.9395	33.33435
2.94	82.78198
2.9405	111.38306
2.941	111.18164
2.9415	98.0896
2.942	66.16516
2.9425	27.29187
2.943	2.61841
2.9435	-22.15576
2.944	-44.11011
2.9445	-65.3595
2.945	-60.22339
2.9455	-57.40356
2.946	-24.77417
2.9465	14.19983
2.947	30.41382
2.9475	36.15417
2.948	19.53735
2.9485	-1.40991
2.949	-16.21399
2.9495	-30.11169
2.95	-51.46179
2.9505	-63.74817
2.951	-71.09985
2.9515	-69.58923
2.952	-59.41772
2.9525	-60.92834
2.953	-52.67029
2.9535	-42.8009
2.954	-35.2478
2.9545	-31.62231
2.955	-34.64355
2.9555	-31.01807
2.956	-37.86621
2.9565	-44.71436
2.957	-40.1825
2.9575	-32.12585
2.958	-22.55859
2.9585	-18.53027
2.959	-24.06921
2.9595	-14.70337
2.96	-5.43823
2.9605	-6.04248
2.961	-2.41699
2.9615	8.35876
2.962	5.13611
2.9625	7.35168
2.963	15.20691
2.9635	11.68213
2.964	10.27222
2.9645	10.67505
2.965	11.78284
2.9655	5.74036
2.966	2.71912
2.9665	9.97009
2.967	11.17859
2.9675	12.68921
2.968	19.33594
2.9685	18.53027
2.969	6.04248
2.9695	15.1062
2.97	9.86938
2.9705	8.45947
2.971	9.06372
2.9715	8.7616
2.972	5.23682
2.9725	2.41699
2.973	4.43115
2.9735	7.15027
2.974	1.61133
2.9745	3.62549
2.975	5.23682
2.9755	6.64673
2.976	9.86938
2.9765	31.92444
2.977	58.91418
2.9775	73.01331
2.978	68.98499
2.9785	61.02905
2.979	63.64746
2.9795	97.58606
2.98	121.15173
2.9805	125.48218
2.981	105.6427
2.9815	66.76941
2.982	19.63806
2.9825	-19.83948
2.983	-53.67737
2.9835	-82.07703
2.984	-85.5011
2.9845	-72.00623
2.985	-63.14392
2.9855	-45.62073
2.986	-9.86938
2.9865	50.85754
2.987	85.09827
2.9875	103.52783
2.988	94.16199
2.9885	83.18481
2.989	53.57666
2.9895	25.07629
2.99	-3.92761
2.9905	-18.12744
2.991	-25.68054
2.9915	-30.61523
2.992	-34.54285
2.9925	-33.03223
2.993	-29.50745
2.9935	-25.78125
2.994	-25.88196
2.9945	-35.44922
2.995	-42.90161
2.9955	-54.98657
2.996	-54.68445
2.9965	-46.5271
2.997	-39.57825
2.9975	-31.62231
2.998	-24.47205
2.9985	-23.56567
2.999	-22.76001
2.9995	-17.22107
3	-6.94885
3.0005	-14.50195
3.001	-13.99841
3.0015	-15.30762
3.002	-15.30762
3.0025	-7.25098
3.003	-1.3092
3.0035	0
3.004	7.95593
3.0045	14.19983
3.005	16.71753
3.0055	15.71045
3.006	7.04956
3.0065	2.01416
3.007	4.12903
3.0075	3.22266
3.008	3.12195
3.0085	3.92761
3.009	2.71912
3.0095	4.33044
3.01	6.14319
3.0105	9.56726
3.011	8.8623
3.0115	7.75452
3.012	5.43823
3.0125	9.66797
3.013	15.81116
3.0135	15.81116
3.014	12.99133
3.0145	20.74585
3.015	20.24231
3.0155	25.07629
3.016	25.57983
3.0165	27.99683
3.017	22.76001
3.0175	23.06213
3.018	19.53735
3.0185	24.47205
3.019	23.66638
3.0195	16.81824
3.02	12.68921
3.0205	11.88354
3.021	10.87646
3.0215	18.02673
3.022	24.67346
3.0225	17.42249
3.023	13.99841
3.0235	15.81116
3.024	16.61682
3.0245	9.46655
3.025	5.84106
3.0255	2.92053
3.026	-0.60425
3.0265	-6.14319
3.027	-1.40991
3.0275	4.53186
3.028	3.8269
3.0285	7.75452
3.029	6.64673
3.0295	5.74036
3.03	9.26514
3.0305	7.15027
3.031	20.54443
3.0315	15.1062
3.032	17.52319
3.0325	17.6239
3.033	10.27222
3.0335	7.95593
3.034	11.58142
3.0345	6.84814
3.035	25.57983
3.0355	69.1864
3.036	102.42004
3.0365	114.505
3.037	102.52075
3.0375	69.68994
3.038	42.59949
3.0385	13.09204
3.039	-0.90637
3.0395	17.92603
3.04	34.94568
3.0405	33.83789
3.041	24.47205
3.0415	-8.35876
3.042	-29.50745
3.0425	-44.81506
3.043	-46.5271
3.0435	-49.74976
3.044	-59.21631
3.0445	-62.33826
3.045	-64.25171
3.0455	-58.30994
3.046	-60.3241
3.0465	-49.64905
3.047	-43.00232
3.0475	-42.7002
3.048	-37.36267
3.0485	-34.24072
3.049	-30.91736
3.0495	-16.51611
3.05	-7.85522
3.0505	0.90637
3.051	0.60425
3.0515	8.66089
3.052	12.28638
3.0525	31.92444
3.053	53.07312
3.0535	64.151
3.054	66.16516
3.0545	58.20923
3.055	41.69312
3.0555	25.78125
3.056	13.89771
3.0565	-3.92761
3.057	-9.16443
3.0575	-17.6239
3.058	-28.29895
3.0585	-35.95276
3.059	-29.50745
3.0595	-28.09753
3.06	-13.39417
3.0605	-11.98425
3.061	3.22266
3.0615	-4.02832
3.062	16.3147
3.0625	68.78357
3.063	103.42712
3.0635	118.93616
3.064	117.02271
3.0645	106.54907
3.065	85.09827
3.0655	57.70569
3.066	24.77417
3.0665	0.60425
3.067	-21.65222
3.0675	-43.80798
3.068	-58.71277
3.0685	-61.53259
3.069	-58.20923
3.0695	-48.54126
3.07	-33.73718
3.0705	-31.72302
3.071	-27.49329
3.0715	-22.96143
3.072	-7.75452
3.0725	-4.63257
3.073	6.74744
3.0735	8.7616
3.074	15.71045
3.0745	8.56018
3.075	-15.91187
3.0755	-24.57275
3.076	-34.84497
3.0765	-35.85205
3.077	-23.76709
3.0775	-16.51611
3.078	-3.42407
3.0785	-0.50354
3.079	0.30212
3.0795	2.21558
3.08	-5.23682
3.0805	3.32336
3.081	2.41699
3.0815	3.42407
3.082	8.35876
3.0825	9.46655
3.083	5.0354
3.0835	8.8623
3.084	12.78992
3.0845	12.38708
3.085	19.53735
3.0855	13.69629
3.086	17.32178
3.0865	19.53735
3.087	22.55859
3.0875	20.64514
3.088	23.8678
3.0885	31.01807
3.089	22.35718
3.0895	23.76709
3.09	15.60974
3.0905	15.60974
3.091	2.11487
3.0915	-11.07788
3.092	-9.16443
3.0925	-7.65381
3.093	-6.14319
3.0935	-9.66797
3.094	-7.95593
3.0945	-9.26514
3.095	-9.36584
3.0955	6.64673
3.096	69.28711
3.0965	150.35706
3.097	203.32947
3.0975	215.21301
3.098	190.03601
3.0985	140.99121
3.099	87.31384
3.0995	30.11169
3.1	-19.23523
3.1005	-56.39648
3.101	-83.78906
3.1015	-95.5719
3.102	-101.31226
3.1025	-93.0542
3.103	-74.2218
3.1035	-56.79932
3.104	-37.26196
3.1045	-26.98975
3.105	-20.64514
3.1055	-14.19983
3.106	-21.3501
3.1065	-33.73718
3.107	-31.82373
3.1075	-34.14001
3.108	-34.94568
3.1085	-27.6947
3.109	-21.65222
3.1095	-13.09204
3.11	-13.29346
3.1105	-14.60266
3.111	-18.02673
3.1115	-12.28638
3.112	-9.16443
3.1125	-1.51062
3.113	-5.84106
3.1135	-6.3446
3.114	-6.64673
3.1145	-10.77576
3.115	-15.40833
3.1155	-11.48071
3.116	-6.04248
3.1165	-4.63257
3.117	-4.43115
3.1175	3.62549
3.118	1.00708
3.1185	7.25098
3.119	9.86938
3.1195	8.66089
3.12	11.07788
3.1205	11.38
3.121	12.08496
3.1215	8.7616
3.122	14.80408
3.1225	9.56726
3.123	10.97717
3.1235	13.797
3.124	17.52319
3.1245	15.20691
3.125	13.29346
3.1255	15.81116
3.126	15.40833
3.1265	12.89062
3.127	13.29346
3.1275	12.28638
3.128	14.50195
3.1285	10.97717
3.129	11.58142
3.1295	16.3147
3.13	22.96143
3.1305	27.99683
3.131	35.2478
3.1315	31.11877
3.132	33.83789
3.1325	27.29187
3.133	31.92444
3.1335	23.36426
3.134	16.41541
3.1345	13.69629
3.135	15.71045
3.1355	18.22815
3.136	30.11169
3.1365	45.62073
3.137	77.34375
3.1375	137.86926
3.138	178.45459
3.1385	225.58594
3.139	272.31445
3.1395	256.5033
3.14	217.02576
3.1405	164.55688
3.141	99.09668
3.1415	41.79382
3.142	-27.89612
3.1425	-76.7395
3.143	-123.36731
3.1435	-155.9967
3.144	-170.80078
3.1445	-176.0376
3.145	-154.08325
3.1455	-144.11316
3.146	-129.20837
3.1465	-120.44678
3.147	-120.44678
3.1475	-106.14624
3.148	-83.38623
3.1485	-69.89136
3.149	-61.93542
3.1495	-48.84338
3.15	-38.16833
3.1505	-30.61523
3.151	-24.97559
3.1515	-21.85364
3.152	-15.20691
3.1525	-18.02673
3.153	-11.2793
3.1535	-15.60974
3.154	-8.35876
3.1545	-9.16443
3.155	-8.05664
3.1555	-3.8269
3.156	6.74744
3.1565	8.7616
3.157	12.28638
3.1575	14.70337
3.158	23.8678
3.1585	19.23523
3.159	17.72461
3.1595	21.65222
3.16	28.19824
3.1605	26.08337
3.161	26.08337
3.1615	25.68054
3.162	25.27771
3.1625	22.76001
3.163	20.84656
3.1635	16.21399
3.164	16.81824
3.1645	10.47363
3.165	6.94885
3.1655	0.90637
3.166	-12.5885
3.1665	-8.45947
3.167	-10.0708
3.1675	-4.12903
3.168	4.93469
3.1685	4.33044
3.169	13.49487
3.1695	16.91895
3.17	14.90479
3.1705	16.21399
3.171	9.46655
3.1715	13.29346
3.172	10.0708
3.1725	5.23682
3.173	7.75452
3.1735	7.85522
3.174	15.71045
3.1745	7.5531
3.175	17.32178
3.1755	8.56018
3.176	16.21399
3.1765	16.21399
3.177	14.90479
3.1775	10.77576
3.178	10.57434
3.1785	10.57434
3.179	11.38
3.1795	9.97009
3.18	14.80408
3.1805	14.60266
3.181	16.21399
3.1815	9.16443
3.182	14.19983
3.1825	12.48779
3.183	10.17151
3.1835	8.25806
3.184	4.93469
3.1845	17.01965
3.185	16.3147
3.1855	14.70337
3.186	10.47363
3.1865	19.13452
3.187	16.3147
3.1875	9.97009
3.188	16.51611
3.1885	35.85205
3.189	91.8457
3.1895	117.62695
3.19	143.91174
3.1905	137.66785
3.191	127.79846
3.1915	96.7804
3.192	60.02197
3.1925	23.46497
3.193	-7.85522
3.1935	-40.58533
3.194	-65.3595
3.1945	-90.93933
3.195	-99.70093
3.1955	-91.64429
3.196	-86.00464
3.1965	-70.49561
3.197	-58.51135
3.1975	-56.49719
3.198	-46.62781
3.1985	-35.54993
3.199	-33.63647
3.1995	-22.86072
3.2	-17.92603
3.2005	-24.06921
3.201	-20.34302
3.2015	-15.20691
3.202	-0.90637
3.2025	4.73328
3.203	9.66797
3.2035	17.52319
3.204	24.16992
3.2045	23.46497
3.205	18.12744
3.2055	25.98267
3.206	18.73169
3.2065	26.48621
3.207	20.04089
3.2075	22.35718
3.208	23.46497
3.2085	22.55859
3.209	17.92603
3.2095	11.68213
3.21	2.41699
3.2105	5.13611
3.211	10.27222
3.2115	12.08496
3.212	10.67505
3.2125	17.52319
3.213	12.38708
3.2135	16.91895
3.214	20.64514
3.2145	15.20691
3.215	15.00549
3.2155	9.06372
3.216	9.56726
3.2165	7.15027
3.217	6.74744
3.2175	3.8269
3.218	-1.91345
3.2185	-11.38
3.219	-23.66638
3.2195	-21.55151
3.22	-13.89771
3.2205	-11.68213
3.221	-11.2793
3.2215	-2.31628
3.222	5.53894
3.2225	0.60425
3.223	-5.74036
3.2235	-2.92053
3.224	-6.2439
3.2245	-3.22266
3.225	-8.35876
3.2255	-7.75452
3.226	-5.23682
3.2265	-0.50354
3.227	6.2439
3.2275	30.11169
3.228	54.0802
3.2285	87.41455
3.229	146.02661
3.2295	185.60486
3.23	172.3114
3.2305	140.28625
3.231	102.52075
3.2315	63.74817
3.232	20.04089
3.2325	-20.84656
3.233	-57.40356
3.2335	-92.85278
3.234	-106.64978
3.2345	-112.18872
3.235	-101.41296
3.2355	-84.59473
3.236	-71.7041
3.2365	-55.99365
3.237	-40.08179
3.2375	-30.31311
3.238	-23.46497
3.2385	-5.23682
3.239	4.43115
3.2395	13.39417
3.24	10.37292
3.2405	21.04797
3.241	31.32019
3.2415	31.82373
3.242	47.43347
3.2425	93.85986
3.243	147.73865
3.2435	178.5553
3.244	166.97388
3.2445	142.40112
3.245	105.84412
3.2455	55.69153
3.246	15.1062
3.2465	-28.70178
3.247	-65.76233
3.2475	-102.62146
3.248	-118.83545
3.2485	-119.33899
3.249	-114.4043
3.2495	-87.71667
3.25	-66.26587
3.2505	-57.50427
3.251	-55.2887
3.2515	-47.23206
3.252	-39.17542
3.2525	-30.31311
3.253	-28.29895
3.2535	-28.9032
3.254	-28.09753
3.2545	-24.67346
3.255	-20.64514
3.2555	-14.60266
3.256	-8.66089
3.2565	-13.19275
3.257	-10.87646
3.2575	-15.50903
3.258	-22.15576
3.2585	-15.30762
3.259	-11.88354
3.2595	-12.89062
3.26	-4.33044
3.2605	-5.33752
3.261	-1.91345
3.2615	-8.8623
3.262	-8.8623
3.2625	3.8269
3.263	3.8269
3.2635	5.43823
3.264	3.92761
3.2645	9.97009
3.265	5.33752
3.2655	7.35168
3.266	6.94885
3.2665	14.70337
3.267	16.61682
3.2675	15.40833
3.268	15.91187
3.2685	20.1416
3.269	16.01257
3.2695	16.3147
3.27	14.50195
3.2705	14.40125
3.271	10.97717
3.2715	16.91895
3.272	14.09912
3.2725	16.61682
3.273	19.13452
3.2735	15.1062
3.274	11.2793
3.2745	14.40125
3.275	13.49487
3.2755	18.73169
3.276	15.60974
3.2765	24.57275
3.277	18.63098
3.2775	16.41541
3.278	16.41541
3.2785	17.82532
3.279	19.13452
3.2795	16.11328
3.28	13.39417
3.2805	15.30762
3.281	20.64514
3.2815	14.40125
3.282	16.61682
3.2825	15.91187
3.283	15.91187
3.2835	11.98425
3.284	8.15735
3.2845	19.94019
3.285	31.11877
3.2855	47.13135
3.286	96.47827
3.2865	123.97156
3.287	138.87634
3.2875	133.94165
3.288	111.78589
3.2885	92.95349
3.289	63.14392
3.2895	25.57983
3.29	-3.12195
3.2905	-23.96851
3.291	-41.18958
3.2915	-50.75684
3.292	-62.33826
3.2925	-58.30994
3.293	-50.2533
3.2935	-36.35559
3.294	-16.3147
3.2945	-10.17151
3.295	6.94885
3.2955	19.13452
3.296	27.6947
3.2965	38.974
3.297	38.26904
3.2975	28.80249
3.298	14.19983
3.2985	0.20142
3.299	-9.36584
3.2995	-17.52319
3.3	-15.00549
3.3005	-16.41541
3.301	-19.13452
3.3015	-20.64514
3.302	-23.56567
3.3025	-30.11169
3.303	-31.11877
3.3035	-40.68604
3.304	-45.11719
3.3045	-39.47754
3.305	-29.60815
3.3055	-30.91736
3.306	-32.02515
3.3065	-36.05347
3.307	-38.77258
3.3075	-16.41541
3.308	-6.64673
3.3085	-9.26514
3.309	-5.74036
3.3095	-2.61841
3.31	-5.94177
3.3105	-1.3092
3.311	5.63965
3.3115	10.67505
3.312	9.66797
3.3125	14.09912
3.313	17.01965
3.3135	31.21948
3.314	36.95984
3.3145	39.98108
3.315	40.68604
3.3155	51.46179
3.316	72.61047
3.3165	93.0542
3.317	88.0188
3.3175	87.71667
3.318	69.38782
3.3185	56.29578
3.319	33.23364
3.3195	16.91895
3.32	12.48779
3.3205	-4.93469
3.321	-25.37842
3.3215	-38.36975
3.322	-53.77808
3.3225	-54.18091
3.323	-54.38232
3.3235	-55.18799
3.324	-50.2533
3.3245	-44.51294
3.325	-16.51611
3.3255	11.58142
3.326	38.06763
3.3265	47.13135
3.327	47.03064
3.3275	35.44922
3.328	16.51611
3.3285	-0.70496
3.329	-10.87646
3.3295	-31.92444
3.33	-37.96692
3.3305	-15.40833
3.331	31.11877
3.3315	59.21631
3.332	77.04163
3.3325	69.68994
3.333	47.03064
3.3335	19.73877
3.334	-5.63965
3.3345	-27.6947
3.335	-41.4917
3.3355	-58.10852
3.336	-68.88428
3.3365	-73.01331
3.337	-71.50269
3.3375	-67.27295
3.338	-55.69153
3.3385	-43.00232
3.339	-32.93152
3.3395	-26.08337
3.34	-15.71045
3.3405	-9.66797
3.341	-5.23682
3.3415	4.22974
3.342	7.85522
3.3425	13.29346
3.343	17.6239
3.3435	13.49487
3.344	17.82532
3.3445	16.01257
3.345	11.88354
3.3455	18.73169
3.346	11.78284
3.3465	15.50903
3.347	11.88354
3.3475	15.81116
3.348	14.60266
3.3485	14.80408
3.349	16.21399
3.3495	14.40125
3.35	11.17859
3.3505	12.78992
3.351	8.96301
3.3515	13.89771
3.352	10.97717
3.3525	12.08496
3.353	14.30054
3.3535	15.81116
3.354	19.63806
3.3545	15.91187
3.355	18.32886
3.3555	21.85364
3.356	15.81116
3.3565	19.33594
3.357	18.12744
3.3575	15.71045
3.358	27.49329
3.3585	23.46497
3.359	26.98975
3.3595	25.88196
3.36	27.79541
3.3605	35.44922
3.361	37.7655
3.3615	23.76709
3.362	27.89612
3.3625	25.88196
3.363	18.22815
3.3635	13.99841
3.364	-0.20142
3.3645	-4.93469
3.365	-12.68921
3.3655	-16.71753
3.366	-10.97717
3.3665	-8.15735
3.367	-2.92053
3.3675	2.01416
3.368	6.94885
3.3685	4.02832
3.369	6.84814
3.3695	5.63965
3.37	24.57275
3.3705	70.99915
3.371	105.34058
3.3715	118.73474
3.372	114.80713
3.3725	95.67261
3.373	75.4303
3.3735	55.99365
3.374	71.30127
3.3745	75.83313
3.375	62.43896
3.3755	36.15417
3.376	10.97717
3.3765	-11.38
3.377	-37.7655
3.3775	-67.77649
3.378	-87.71667
3.3785	-97.38464
3.379	-100.70801
3.3795	-102.01721
3.38	-97.58606
3.3805	-60.82764
3.381	-9.26514
3.3815	30.11169
3.382	53.97949
3.3825	59.82056
3.383	55.59082
3.3835	37.26196
3.384	22.86072
3.3845	5.43823
3.385	-13.19275
3.3855	-22.76001
3.386	-36.65771
3.3865	-52.97241
3.387	-54.28162
3.3875	-57.00073
3.388	-50.65613
3.3885	-50.85754
3.389	-49.64905
3.3895	-44.91577
3.39	-44.41223
3.3905	-42.39807
3.391	-26.48621
3.3915	-14.60266
3.392	0.50354
3.3925	5.0354
3.393	8.25806
3.3935	9.06372
3.394	5.33752
3.3945	8.25806
3.395	3.02124
3.3955	-5.13611
3.396	-7.25098
3.3965	-10.67505
3.397	-9.86938
3.3975	-9.66797
3.398	-12.28638
3.3985	-16.71753
3.399	-14.70337
3.3995	-9.56726
3.4	5.33752
3.4005	20.64514
3.401	33.63647
3.4015	33.9386
3.402	39.27612
3.4025	43.20374
3.403	46.5271
3.4035	44.91577
3.404	41.18958
3.4045	37.96692
3.405	33.63647
3.4055	34.03931
3.406	30.11169
3.4065	24.57275
3.407	24.77417
3.4075	34.84497
3.408	80.76782
3.4085	109.57031
3.409	111.78589
3.4095	100.30518
3.41	67.57507
3.4105	38.06763
3.411	13.09204
3.4115	-2.92053
3.412	-17.42249
3.4125	-28.60107
3.413	-40.1825
3.4135	-48.13843
3.414	-50.05188
3.4145	-49.85046
3.415	-45.82214
3.4155	-33.83789
3.416	-25.07629
3.4165	-20.24231
3.417	-26.28479
3.4175	-21.14868
3.418	-23.66638
3.4185	-19.13452
3.419	-16.3147
3.4195	-12.99133
3.42	-9.66797
3.4205	-12.18567
3.421	-16.61682
3.4215	-8.96301
3.422	1.00708
3.4225	36.4563
3.423	66.76941
3.4235	77.24304
3.424	78.45154
3.4245	64.05029
3.425	45.01648
3.4255	35.44922
3.426	32.62939
3.4265	22.76001
3.427	3.22266
3.4275	-4.63257
3.428	-5.23682
3.4285	-8.25806
3.429	-9.86938
3.4295	-4.73328
3.43	3.7262
3.4305	0.50354
3.431	-7.04956
3.4315	-15.71045
3.432	-29.91028
3.4325	-35.95276
3.433	-27.29187
3.4335	-25.88196
3.434	-26.28479
3.4345	-20.04089
3.435	-21.95435
3.4355	-9.46655
3.436	-3.52478
3.4365	-4.93469
3.437	-12.38708
3.4375	-13.59558
3.438	-15.91187
3.4385	-9.66797
3.439	-5.0354
3.4395	0
3.44	-1.91345
3.4405	0.40283
3.441	5.53894
3.4415	4.53186
3.442	3.42407
3.4425	7.65381
3.443	8.56018
3.4435	8.25806
3.444	12.68921
3.4445	15.00549
3.445	13.49487
3.4455	20.1416
3.446	13.49487
3.4465	10.47363
3.447	16.21399
3.4475	27.29187
3.448	33.53577
3.4485	30.2124
3.449	26.48621
3.4495	16.61682
3.45	2.21558
3.4505	-2.41699
3.451	1.51062
3.4515	10.0708
3.452	3.62549
3.4525	12.5885
3.453	15.60974
3.4535	27.59399
3.454	29.30603
3.4545	15.20691
3.455	8.8623
3.4555	12.5885
3.456	14.40125
3.4565	17.42249
3.457	14.70337
3.4575	7.15027
3.458	-0.30212
3.4585	9.56726
3.459	7.35168
3.4595	6.3446
3.46	10.97717
3.4605	5.43823
3.461	7.75452
3.4615	3.52478
3.462	0.80566
3.4625	6.64673
3.463	8.96301
3.4635	6.54602
3.464	4.63257
3.4645	2.81982
3.465	-0.50354
3.4655	4.73328
3.466	24.37134
3.4665	81.87561
3.467	129.10767
3.4675	137.76855
3.468	128.40271
3.4685	104.73633
3.469	78.75366
3.4695	59.41772
3.47	29.60815
3.4705	16.21399
3.471	34.74426
3.4715	43.90869
3.472	51.5625
3.4725	58.81348
3.473	70.49561
3.4735	61.53259
3.474	33.23364
3.4745	7.35168
3.475	-32.7301
3.4755	-53.47595
3.476	-80.56641
3.4765	-96.07544
3.477	-110.27527
3.4775	-117.62695
3.478	-115.61279
3.4785	-111.18164
3.479	-108.56323
3.4795	-101.61438
3.48	-98.19031
3.4805	-95.06836
3.481	-87.71667
3.4815	-71.60339
3.482	-57.9071
3.4825	-40.38391
3.483	-29.80957
3.4835	-12.08496
3.484	-6.84814
3.4845	-1.10779
3.485	9.16443
3.4855	55.08728
3.486	91.04004
3.4865	103.93066
3.487	96.7804
3.4875	83.38623
3.488	55.89294
3.4885	37.46338
3.489	8.15735
3.4895	-11.78284
3.49	-29.50745
3.4905	-38.77258
3.491	-47.43347
3.4915	-40.68604
3.492	-28.50037
3.4925	-12.28638
3.493	-0.40283
3.4935	1.00708
3.494	12.78992
3.4945	17.01965
3.495	10.47363
3.4955	8.8623
3.496	-0.20142
3.4965	-5.33752
3.497	-6.54602
3.4975	-5.74036
3.498	-8.96301
3.4985	0.30212
3.499	4.22974
3.4995	4.22974
3.5	4.22974
3.5005	4.22974
3.501	4.22974
3.5015	4.22974
3.502	4.22974
3.5025	4.22974
3.503	4.22974
3.5035	4.22974
3.504	4.22974
3.5045	4.22974
3.505	4.22974
3.5055	4.22974
3.506	4.22974
3.5065	4.22974
3.507	4.22974
3.5075	4.22974
3.508	4.22974
3.5085	4.22974
3.509	4.22974
3.5095	46.42639
3.51	33.53577
3.5105	4.02832
3.511	-20.54443
3.5115	-36.05347
3.512	-49.54834
3.5125	-64.25171
3.513	-70.29419
3.5135	-69.68994
3.514	-65.15808
3.5145	-63.94958
3.515	-48.13843
3.5155	-27.49329
3.516	-19.94019
3.5165	-12.48779
3.517	4.53186
3.5175	13.09204
3.518	17.12036
3.5185	24.16992
3.519	26.68762
3.5195	24.67346
3.52	22.55859
3.5205	18.32886
3.521	18.93311
3.5215	17.52319
3.522	8.25806
3.5225	1.71204
3.523	-3.42407
3.5235	21.14868
3.524	67.07153
3.5245	92.55066
3.525	94.86694
3.5255	86.70959
3.526	67.8772
3.5265	55.59082
3.527	50.45471
3.5275	41.39099
3.528	27.59399
3.5285	23.56567
3.529	15.1062
3.5295	10.87646
3.53	10.87646
3.5305	26.28479
3.531	30.71594
3.5315	32.12585
3.532	27.29187
3.5325	14.90479
3.533	-3.22266
3.5335	-19.23523
3.534	-37.86621
3.5345	-46.5271
3.535	-64.05029
3.5355	-82.27844
3.536	-82.88269
3.5365	-86.20605
3.537	-90.93933
3.5375	-90.03296
3.538	-84.79614
3.5385	-71.09985
3.539	-63.84888
3.5395	-55.99365
3.54	-41.59241
3.5405	-33.03223
3.541	-24.87488
3.5415	-9.97009
3.542	-1.00708
3.5425	1.2085
3.543	7.95593
3.5435	10.87646
3.544	9.26514
3.5445	10.47363
3.545	13.69629
3.5455	12.5885
3.546	14.09912
3.5465	17.6239
3.547	13.69629
3.5475	17.72461
3.548	14.90479
3.5485	13.19275
3.549	13.39417
3.5495	14.50195
3.55	16.41541
3.5505	13.39417
3.551	6.3446
3.5515	12.89062
3.552	3.22266
3.5525	8.25806
3.553	9.97009
3.5535	18.8324
3.554	16.71753
3.5545	12.99133
3.555	10.37292
3.5555	11.88354
3.556	14.19983
3.5565	14.40125
3.557	17.32178
3.5575	13.797
3.558	8.8623
3.5585	9.86938
3.559	6.2439
3.5595	7.04956
3.56	2.01416
3.5605	6.54602
3.561	4.83398
3.5615	13.69629
3.562	12.89062
3.5625	15.71045
3.563	12.5885
3.5635	8.7616
3.564	13.19275
3.5645	16.51611
3.565	14.30054
3.5655	16.61682
3.566	13.69629
3.5665	14.60266
3.567	19.63806
3.5675	23.06213
3.568	19.83948
3.5685	21.14868
3.569	25.07629
3.5695	57.60498
3.57	96.57898
3.5705	110.27527
3.571	114.80713
3.5715	93.45703
3.572	68.17932
3.5725	48.84338
3.573	12.89062
3.5735	-14.80408
3.574	-43.50586
3.5745	-53.77808
3.575	-66.97083
3.5755	-74.02039
3.576	-65.3595
3.5765	-58.71277
3.577	-46.12427
3.5775	-33.43506
3.578	-29.50745
3.5785	-24.57275
3.579	-23.8678
3.5795	-20.74585
3.58	-23.06213
3.5805	-13.49487
3.581	-26.98975
3.5815	-21.95435
3.582	-19.53735
3.5825	-13.89771
3.583	-9.26514
3.5835	2.01416
3.584	4.33044
3.5845	14.80408
3.585	13.29346
3.5855	17.32178
3.586	23.66638
3.5865	26.88904
3.587	25.68054
3.5875	25.07629
3.588	25.37842
3.5885	26.68762
3.589	31.52161
3.5895	31.92444
3.59	29.60815
3.5905	25.57983
3.591	30.31311
3.5915	22.15576
3.592	18.02673
3.5925	22.86072
3.593	12.18567
3.5935	13.29346
3.594	17.01965
3.5945	13.49487
3.595	16.21399
3.5955	10.77576
3.596	6.74744
3.5965	8.66089
3.597	3.8269
3.5975	7.85522
3.598	2.81982
3.5985	2.11487
3.599	9.26514
3.5995	7.04956
3.6	0.90637
3.6005	0.60425
3.601	2.01416
3.6015	10.0708
3.602	4.63257
3.6025	4.83398
3.603	5.74036
3.6035	0.90637
3.604	7.5531
3.6045	4.02832
3.605	4.63257
3.6055	1.2085
3.606	10.17151
3.6065	5.63965
3.607	2.11487
3.6075	5.0354
3.608	2.92053
3.6085	3.22266
3.609	5.23682
3.6095	5.43823
3.61	4.63257
3.6105	3.52478
3.611	6.04248
3.6115	4.93469
3.612	1.40991
3.6125	0.40283
3.613	-0.90637
3.6135	6.64673
3.614	6.2439
3.6145	3.8269
3.615	7.15027
3.6155	4.43115
3.616	2.41699
3.6165	5.33752
3.617	5.94177
3.6175	6.54602
3.618	6.74744
3.6185	7.35168
3.619	5.0354
3.6195	37.06055
3.62	125.68359
3.6205	183.69141
3.621	200.30823
3.6215	197.58911
3.622	172.21069
3.6225	128.302
3.623	85.09827
3.6235	35.95276
3.624	7.95593
3.6245	-7.04956
3.625	-15.50903
3.6255	-34.34143
3.626	-51.05896
3.6265	-67.57507
3.627	-75.32959
3.6275	-79.66003
3.628	-87.01172
3.6285	-91.34216
3.629	-91.24146
3.6295	-91.04004
3.63	-96.27686
3.6305	-96.57898
3.631	-84.69543
3.6315	-76.53809
3.632	-70.59631
3.6325	-68.58215
3.633	-64.95667
3.6335	-62.53967
3.634	-50.15259
3.6345	-32.93152
3.635	-17.01965
3.6355	1.91345
3.636	-3.22266
3.6365	1.51062
3.637	1.81274
3.6375	0.20142
3.638	-6.84814
3.6385	-11.78284
3.639	-1.61133
3.6395	20.24231
3.64	20.34302
3.6405	28.60107
3.641	22.05505
3.6415	21.75293
3.642	21.24939
3.6425	20.64514
3.643	16.51611
3.6435	7.04956
3.644	0.30212
3.6445	1.2085
3.645	17.72461
3.6455	74.62463
3.646	161.73706
3.6465	244.11621
3.647	269.89746
3.6475	265.16418
3.648	225.98877
3.6485	172.3114
3.649	112.69226
3.6495	60.12268
3.65	-4.02832
3.6505	-47.53418
3.651	-81.7749
3.6515	-102.62146
3.652	-114.10217
3.6525	-110.27527
3.653	-109.06677
3.6535	-109.4696
3.654	-94.16199
3.6545	-82.27844
3.655	-67.8772
3.6555	-52.26746
3.656	-34.14001
3.6565	-20.84656
3.657	-0.90637
3.6575	0.60425
3.658	7.25098
3.6585	25.98267
3.659	15.91187
3.6595	13.39417
3.66	-0.60425
3.6605	-16.41541
3.661	-46.5271
3.6615	-61.6333
3.662	-67.97791
3.6625	-63.14392
3.663	-63.24463
3.6635	-61.12976
3.664	-51.5625
3.6645	-44.21082
3.665	-44.61365
3.6655	-48.54126
3.666	-39.47754
3.6665	-24.27063
3.667	-11.68213
3.6675	-2.31628
3.668	4.22974
3.6685	8.56018
3.669	9.06372
3.6695	10.77576
3.67	10.17151
3.6705	12.38708
3.671	15.81116
3.6715	15.40833
3.672	20.04089
3.6725	21.75293
3.673	12.5885
3.6735	7.75452
3.674	12.38708
3.6745	8.45947
3.675	1.3092
3.6755	9.06372
3.676	7.85522
3.6765	5.53894
3.677	14.50195
3.6775	43.90869
3.678	87.01172
3.6785	100.30518
3.679	101.51367
3.6795	89.328
3.68	80.86853
3.6805	109.16748
3.681	138.97705
3.6815	150.65918
3.682	139.27917
3.6825	136.35864
3.683	145.8252
3.6835	146.73157
3.684	127.79846
3.6845	96.07544
3.685	65.25879
3.6855	20.1416
3.686	-25.98267
3.6865	-60.62622
3.687	-91.34216
3.6875	-114.505
3.688	-135.04944
3.6885	-148.94714
3.689	-158.21228
3.6895	-162.44202
3.69	-146.22803
3.6905	-151.76697
3.691	-145.32166
3.6915	-133.43811
3.692	-115.31067
3.6925	-101.9165
3.693	-80.76782
3.6935	-49.85046
3.694	-29.60815
3.6945	-4.53186
3.695	10.87646
3.6955	26.08337
3.696	24.87488
3.6965	24.67346
3.697	16.91895
3.6975	21.75293
3.698	20.24231
3.6985	16.81824
3.699	15.00549
3.6995	10.77576
3.7	11.17859
3.7005	11.38
3.701	-1.51062
3.7015	-5.84106
3.702	-0.70496
3.7025	10.67505
3.703	10.67505
3.7035	8.35876
3.704	2.31628
3.7045	3.12195
3.705	-1.3092
3.7055	5.23682
3.706	1.81274
3.7065	9.56726
3.707	7.25098
3.7075	10.77576
3.708	12.99133
3.7085	18.93311
3.709	19.13452
3.7095	28.09753
3.71	81.37207
3.7105	130.92041
3.711	146.63086
3.7115	140.8905
3.712	132.83386
3.7125	109.16748
3.713	77.34375
3.7135	41.69312
3.714	9.46655
3.7145	-24.37134
3.715	-47.53418
3.7155	-58.71277
3.716	-62.74109
3.7165	-58.00781
3.717	-57.00073
3.7175	-50.05188
3.718	-45.11719
3.7185	-41.89453
3.719	-21.95435
3.7195	-10.37292
3.72	-4.73328
3.7205	1.51062
3.721	1.91345
3.7215	4.93469
3.722	1.71204
3.7225	3.92761
3.723	3.32336
3.7235	12.38708
3.724	13.49487
3.7245	18.93311
3.725	25.78125
3.7255	25.07629
3.726	24.27063
3.7265	26.3855
3.727	26.98975
3.7275	32.52869
3.728	37.86621
3.7285	53.57666
3.729	64.45312
3.7295	73.61755
3.73	76.13525
3.7305	126.9928
3.731	214.10522
3.7315	263.25073
3.732	268.18542
3.7325	240.79285
3.733	189.53247
3.7335	134.14307
3.734	62.9425
3.7345	-5.53894
3.735	-67.47437
3.7355	-123.97156
3.736	-174.32556
3.7365	-196.27991
3.737	-212.09106
3.7375	-188.42468
3.738	-160.83069
3.7385	-134.34448
3.739	-110.77881
3.7395	-95.5719
3.74	-79.45862
3.7405	-79.15649
3.741	-74.92676
3.7415	-58.91418
3.742	-41.29028
3.7425	-32.12585
3.743	-24.47205
3.7435	-13.29346
3.744	-5.23682
3.7445	3.8269
3.745	34.14001
3.7455	86.20605
3.746	116.51917
3.7465	134.84802
3.747	136.45935
3.7475	131.72607
3.748	133.53882
3.7485	147.33582
3.749	152.47192
3.7495	134.24377
3.75	106.34766
3.7505	65.76233
3.751	18.53027
3.7515	-28.19824
3.752	-65.3595
3.7525	-91.745
3.753	-110.07385
3.7535	-113.39722
3.754	-117.92908
3.7545	-123.56873
3.755	-112.99438
3.7555	-107.45544
3.756	-99.19739
3.7565	-79.96216
3.757	-72.10693
3.7575	-63.94958
3.758	-50.2533
3.7585	-32.12585
3.759	-22.45789
3.7595	-11.17859
3.76	-5.63965
3.7605	-8.96301
3.761	-5.33752
3.7615	-1.71204
3.762	2.5177
3.7625	7.04956
3.763	3.7262
3.7635	-6.44531
3.764	-1.40991
3.7645	-7.35168
3.765	-4.93469
3.7655	5.23682
3.766	4.43115
3.7665	14.80408
3.767	7.65381
3.7675	9.86938
3.768	9.86938
3.7685	10.57434
3.769	10.0708
3.7695	11.48071
3.77	9.66797
3.7705	8.96301
3.771	15.71045
3.7715	20.64514
3.772	20.44373
3.7725	21.45081
3.773	25.78125
3.7735	24.87488
3.774	24.67346
3.7745	32.62939
3.775	40.1825
3.7755	44.21082
3.776	51.76392
3.7765	97.38464
3.777	147.43652
3.7775	156.39954
3.778	170.90149
3.7785	176.33972
3.779	154.88892
3.7795	118.93616
3.78	81.06995
3.7805	54.28162
3.781	19.23523
3.7815	-24.97559
3.782	-58.81348
3.7825	-74.92676
3.783	-76.03455
3.7835	-71.80481
3.784	-74.12109
3.7845	-74.42322
3.785	-65.96375
3.7855	-59.1156
3.786	-50.85754
3.7865	-40.48462
3.787	-34.64355
3.7875	-33.63647
3.788	-18.42957
3.7885	-0.30212
3.789	14.19983
3.7895	26.08337
3.79	25.78125
3.7905	31.32019
3.791	42.29736
3.7915	33.83789
3.792	30.2124
3.7925	66.97083
3.793	87.11243
3.7935	91.54358
3.794	83.58765
3.7945	67.07153
3.795	32.52869
3.7955	-9.06372
3.796	-37.36267
3.7965	-50.45471
3.797	-64.85596
3.7975	-75.63171
3.798	-86.20605
3.7985	-92.75208
3.799	-97.68677
3.7995	-88.22021
3.8	-82.9834
3.8005	-74.62463
3.801	-63.04321
3.8015	-61.6333
3.802	-47.23206
3.8025	-38.57117
3.803	-25.27771
3.8035	-21.65222
3.804	-18.63098
3.8045	-9.97009
3.805	-2.21558
3.8055	3.02124
3.806	4.12903
3.8065	7.85522
3.807	14.70337
3.8075	28.09753
3.808	43.00232
3.8085	53.87878
3.809	52.06604
3.8095	50.75684
3.81	66.87012
3.8105	110.37598
3.811	124.87793
3.8115	125.68359
3.812	114.80713
3.8125	92.75208
3.813	61.43188
3.8135	40.58533
3.814	14.30054
3.8145	-8.45947
3.815	-35.2478
3.8155	-50.85754
3.816	-68.07861
3.8165	-76.94092
3.817	-78.55225
3.8175	-61.53259
3.818	-54.0802
3.8185	-48.44055
3.819	-35.14709
3.8195	-22.25647
3.82	-13.99841
3.8205	3.62549
3.821	14.90479
3.8215	17.92603
3.822	18.32886
3.8225	14.50195
3.823	19.33594
3.8235	20.04089
3.824	20.24231
3.8245	19.94019
3.825	13.797
3.8255	13.19275
3.826	15.00549
3.8265	13.19275
3.827	12.78992
3.8275	7.85522
3.828	6.84814
3.8285	2.92053
3.829	2.81982
3.8295	4.53186
3.83	8.45947
3.8305	13.49487
3.831	11.07788
3.8315	10.67505
3.832	8.05664
3.8325	13.19275
3.833	14.19983
3.8335	12.18567
3.834	10.0708
3.8345	10.0708
3.835	6.2439
3.8355	5.74036
3.836	3.62549
3.8365	6.84814
3.837	-0.80566
3.8375	4.53186
3.838	5.94177
3.8385	2.81982
3.839	8.66089
3.8395	3.8269
3.84	13.49487
3.8405	48.23914
3.841	75.22888
3.8415	91.8457
3.842	107.15332
3.8425	116.61987
3.843	120.34607
3.8435	117.82837
3.844	120.7489
3.8445	106.54907
3.845	98.99597
3.8455	82.27844
3.846	66.76941
3.8465	38.77258
3.847	0.50354
3.8475	-19.83948
3.848	-24.47205
3.8485	-18.53027
3.849	6.04248
3.8495	54.58374
3.85	69.89136
3.8505	60.82764
3.851	25.07629
3.8515	-17.01965
3.852	-46.62781
3.8525	-80.76782
3.853	-111.38306
3.8535	-137.96997
3.854	-156.70166
3.8545	-163.04626
3.855	-156.50024
3.8555	-126.89209
3.856	-97.28394
3.8565	-73.61755
3.857	-59.41772
3.8575	-42.8009
3.858	-34.44214
3.8585	-30.11169
3.859	-32.22656
3.8595	-25.27771
3.86	-20.64514
3.8605	-17.6239
3.861	-11.48071
3.8615	-5.63965
3.862	0.70496
3.8625	5.13611
3.863	5.53894
3.8635	9.26514
3.864	9.26514
3.8645	12.08496
3.865	25.27771
3.8655	60.12268
3.866	102.42004
3.8665	132.93457
3.867	145.32166
3.8675	147.53723
3.868	137.66785
3.8685	128.70483
3.869	152.57263
3.8695	225.38452
3.87	279.56543
3.8705	280.4718
3.871	256.10046
3.8715	207.15637
3.872	135.45227
3.8725	59.51843
3.873	-12.48779
3.8735	-79.15649
3.874	-139.37988
3.8745	-185.40344
3.875	-211.88965
3.8755	-223.06824
3.876	-225.98877
3.8765	-213.09814
3.877	-199.70398
3.8775	-185.40344
3.878	-166.26892
3.8785	-141.19263
3.879	-112.69226
3.8795	-78.35083
3.88	-53.57666
3.8805	-44.71436
3.881	-33.83789
3.8815	-26.48621
3.882	-16.71753
3.8825	-7.35168
3.883	-0.10071
3.8835	-1.2085
3.884	2.21558
3.8845	8.56018
3.885	24.77417
3.8855	35.14709
3.886	35.54993
3.8865	24.57275
3.887	21.95435
3.8875	15.30762
3.888	10.97717
3.8885	12.18567
3.889	8.05664
3.8895	5.74036
3.89	2.21558
3.8905	-8.8623
3.891	-26.88904
3.8915	-30.01099
3.892	-20.74585
3.8925	-4.93469
3.893	2.92053
3.8935	14.60266
3.894	8.7616
3.8945	13.39417
3.895	8.45947
3.8955	9.97009
3.896	10.0708
3.8965	12.99133
3.897	10.77576
3.8975	16.41541
3.898	20.04089
3.8985	25.07629
3.899	43.00232
3.8995	86.91101
3.9	115.7135
3.9005	123.77014
3.901	120.54749
3.9015	97.38464
3.902	77.14233
3.9025	52.26746
3.903	31.92444
3.9035	28.70178
3.904	55.89294
3.9045	98.49243
3.905	126.48926
3.9055	165.46326
3.906	181.77795
3.9065	168.58521
3.907	143.4082
3.9075	107.75757
3.908	56.39648
3.9085	3.8269
3.909	-39.27612
3.9095	-83.18481
3.91	-117.22412
3.9105	-136.76147
3.911	-150.15564
3.9115	-143.00537
3.912	-139.78271
3.9125	-134.14307
3.913	-119.54041
3.9135	-104.23279
3.914	-95.16907
3.9145	-98.19031
3.915	-88.62305
3.9155	-65.96375
3.916	-41.4917
3.9165	-34.54285
3.917	-33.03223
3.9175	-25.57983
3.918	-23.76709
3.9185	-12.99133
3.919	-6.64673
3.9195	-7.95593
3.92	-0.80566
3.9205	-5.13611
3.921	-2.11487
3.9215	3.8269
3.922	13.49487
3.9225	14.60266
3.923	22.15576
3.9235	30.41382
3.924	22.05505
3.9245	35.44922
3.925	52.16675
3.9255	61.6333
3.926	77.34375
3.9265	76.7395
3.927	89.328
3.9275	98.99597
3.928	101.9165
3.9285	115.41138
3.929	140.48767
3.9295	141.79688
3.93	130.31616
3.9305	121.45386
3.931	96.67969
3.9315	64.85596
3.932	38.67188
3.9325	17.22107
3.933	-3.02124
3.9335	-15.81116
3.934	-34.03931
3.9345	-45.72144
3.935	-64.65454
3.9355	-88.0188
3.936	-90.23438
3.9365	-103.72925
3.937	-105.6427
3.9375	-104.73633
3.938	-89.73083
3.9385	-65.96375
3.939	-48.33984
3.9395	-38.06763
3.94	-33.23364
3.9405	-33.33435
3.941	-22.86072
3.9415	-17.82532
3.942	-10.87646
3.9425	5.43823
3.943	56.90002
3.9435	111.08093
3.944	126.69067
3.9445	129.10767
3.945	116.41846
3.9455	94.3634
3.946	64.05029
3.9465	36.75842
3.947	16.81824
3.9475	1.91345
3.948	47.7356
3.9485	96.7804
3.949	132.63245
3.9495	143.00537
3.95	129.00696
3.9505	100.20447
3.951	75.4303
3.9515	43.50586
3.952	2.5177
3.9525	-48.44055
3.953	-75.32959
3.9535	-99.09668
3.954	-123.77014
3.9545	-135.75439
3.955	-139.07776
3.9555	-148.64502
3.956	-139.37988
3.9565	-117.32483
3.957	-98.0896
3.9575	-82.88269
3.958	-64.85596
3.9585	-45.2179
3.959	-22.05505
3.9595	-27.49329
3.96	-30.41382
3.9605	-31.62231
3.961	-31.11877
3.9615	-19.33594
3.962	6.04248
3.9625	87.51526
3.963	141.19263
3.9635	193.25867
3.964	227.49939
3.9645	213.40027
3.965	167.67883
3.9655	122.96448
3.966	76.23596
3.9665	60.22339
3.967	67.57507
3.9675	66.56799
3.968	77.34375
3.9685	68.68286
3.969	56.79932
3.9695	15.91187
3.97	-20.1416
3.9705	-64.35242
3.971	-97.58606
3.9715	-113.1958
3.972	-128.80554
3.9725	-133.53882
3.973	-139.48059
3.9735	-142.70325
3.974	-128.70483
3.9745	-101.9165
3.975	-69.38782
3.9755	-6.04248
3.976	80.56641
3.9765	158.91724
3.977	218.13354
3.9775	261.43799
3.978	323.37341
3.9785	386.21521
3.979	374.23096
3.9795	343.21289
3.98	270.19958
3.9805	168.38379
3.981	64.65454
3.9815	-19.83948
3.982	-95.77332
3.9825	-159.82361
3.983	-215.61584
3.9835	-249.95728
3.984	-294.36951
3.9845	-340.09094
3.985	-337.97607
3.9855	-279.86755
3.986	-220.55054
3.9865	-171.10291
3.987	-116.61987
3.9875	-27.29187
3.988	51.26038
3.9885	121.35315
3.989	143.71033
3.9895	125.48218
3.99	89.02588
3.9905	64.05029
3.991	30.11169
3.9915	0.60425
3.992	-34.54285
3.9925	-72.61047
3.993	-102.31934
3.9935	-125.98572
3.994	-137.36572
3.9945	-148.4436
3.995	-132.73315
3.9955	-112.89368
3.996	-110.17456
3.9965	-104.83704
3.997	-93.75916
3.9975	-79.2572
3.998	-60.72693
3.9985	-43.10303
3.999	-42.39807
3.9995	-24.97559
4	-5.43823
4.0005	27.29187
4.001	53.17383
4.0015	67.07153
4.002	78.04871
4.0025	79.86145
4.003	74.52393
4.0035	75.63171
4.004	202.02026
4.0045	381.48193
4.005	477.45667
4.0055	531.73828
4.006	510.89172
4.0065	423.07434
4.007	306.05164
4.0075	185.40344
4.008	63.54675
4.0085	-41.18958
4.009	-151.86768
4.0095	-192.05017
4.01	-163.34839
4.0105	-125.38147
4.011	-104.03137
4.0115	-85.5011
4.012	-65.66162
4.0125	-19.43665
4.013	108.46252
4.0135	204.63867
4.014	300.41199
4.0145	411.09009
4.015	455.70374
4.0155	438.28125
4.016	397.89734
4.0165	307.26013
4.017	188.32397
4.0175	50.2533
4.018	-91.94641
4.0185	-215.61584
4.019	-249.15161
4.0195	-273.72437
4.02	-284.80225
4.0205	-297.29004
4.021	-334.45129
4.0215	-378.66211
4.022	-392.15698
4.0225	-389.63928
4.023	-380.07202
4.0235	-384.30176
4.024	-378.25928
4.0245	-347.64404
