Antonio_Festa_Left_2.c3d  



Time(s):	C_L_bicipite(μV):
0	-2.61841
0.0005	0.20142
0.001	2.5177
0.0015	0
0.002	-6.14319
0.0025	-5.13611
0.003	-3.12195
0.0035	-4.73328
0.004	2.61841
0.0045	2.41699
0.005	0.10071
0.0055	-0.40283
0.006	1.61133
0.0065	3.92761
0.007	4.22974
0.0075	-2.31628
0.008	0.10071
0.0085	3.52478
0.009	6.44531
0.0095	0.90637
0.01	5.0354
0.0105	7.45239
0.011	4.02832
0.0115	0.40283
0.012	0.40283
0.0125	3.32336
0.013	3.8269
0.0135	6.54602
0.014	-0.30212
0.0145	2.92053
0.015	1.40991
0.0155	-1.91345
0.016	3.8269
0.0165	9.97009
0.017	2.71912
0.0175	5.94177
0.018	5.74036
0.0185	2.81982
0.019	2.5177
0.0195	6.04248
0.02	0.80566
0.0205	-2.71912
0.021	-4.83398
0.0215	-0.90637
0.022	4.43115
0.0225	0.20142
0.023	-0.70496
0.0235	0.30212
0.024	2.01416
0.0245	3.22266
0.025	6.14319
0.0255	8.56018
0.026	11.78284
0.0265	6.94885
0.027	6.04248
0.0275	7.15027
0.028	7.65381
0.0285	10.97717
0.029	9.66797
0.0295	7.5531
0.03	12.28638
0.0305	9.56726
0.031	12.48779
0.0315	13.29346
0.032	12.28638
0.0325	11.98425
0.033	14.40125
0.0335	12.78992
0.034	7.15027
0.0345	14.80408
0.035	9.66797
0.0355	9.66797
0.036	3.92761
0.0365	5.94177
0.037	8.8623
0.0375	8.35876
0.038	12.78992
0.0385	5.0354
0.039	10.87646
0.0395	10.17151
0.04	13.09204
0.0405	12.18567
0.041	10.97717
0.0415	6.64673
0.042	5.43823
0.0425	6.54602
0.043	9.97009
0.0435	6.44531
0.044	12.08496
0.0445	8.05664
0.045	10.97717
0.0455	7.35168
0.046	7.35168
0.0465	10.47363
0.047	8.8623
0.0475	10.17151
0.048	7.35168
0.0485	6.94885
0.049	8.05664
0.0495	11.2793
0.05	12.38708
0.0505	5.23682
0.051	11.98425
0.0515	9.76868
0.052	5.63965
0.0525	10.87646
0.053	9.36584
0.0535	7.25098
0.054	11.07788
0.0545	13.797
0.055	8.56018
0.0555	10.37292
0.056	12.48779
0.0565	7.04956
0.057	7.15027
0.0575	8.66089
0.058	10.97717
0.0585	7.45239
0.059	3.92761
0.0595	8.05664
0.06	10.67505
0.0605	11.78284
0.061	5.63965
0.0615	10.0708
0.062	15.20691
0.0625	11.88354
0.063	8.96301
0.0635	6.2439
0.064	10.87646
0.0645	12.18567
0.065	4.22974
0.0655	9.56726
0.066	8.7616
0.0665	-0.70496
0.067	0.60425
0.0675	3.7262
0.068	6.84814
0.0685	-1.91345
0.069	0.80566
0.0695	-0.20142
0.07	0.30212
0.0705	-1.61133
0.071	4.02832
0.0715	1.40991
0.072	4.43115
0.0725	5.13611
0.073	-0.40283
0.0735	-2.41699
0.074	-1.71204
0.0745	-3.42407
0.075	2.5177
0.0755	-4.02832
0.076	3.52478
0.0765	-0.20142
0.077	-3.62549
0.0775	1.91345
0.078	4.12903
0.0785	1.91345
0.079	4.53186
0.0795	-0.30212
0.08	4.02832
0.0805	3.12195
0.081	4.63257
0.0815	5.23682
0.082	9.36584
0.0825	7.35168
0.083	0.70496
0.0835	3.7262
0.084	5.23682
0.0845	1.81274
0.085	3.32336
0.0855	0.50354
0.086	3.32336
0.0865	1.51062
0.087	2.5177
0.0875	2.81982
0.088	1.81274
0.0885	8.45947
0.089	7.35168
0.0895	4.73328
0.09	7.5531
0.0905	5.74036
0.091	6.64673
0.0915	9.46655
0.092	8.8623
0.0925	8.05664
0.093	7.25098
0.0935	7.95593
0.094	9.36584
0.0945	8.35876
0.095	8.15735
0.0955	7.5531
0.096	9.56726
0.0965	7.85522
0.097	4.73328
0.0975	4.73328
0.098	6.84814
0.0985	3.52478
0.099	2.92053
0.0995	7.65381
0.1	7.15027
0.1005	4.53186
0.101	5.23682
0.1015	7.04956
0.102	5.84106
0.1025	6.54602
0.103	1.00708
0.1035	4.43115
0.104	8.35876
0.1045	5.23682
0.105	8.45947
0.1055	6.2439
0.106	9.36584
0.1065	3.62549
0.107	6.3446
0.1075	10.17151
0.108	8.7616
0.1085	6.74744
0.109	11.58142
0.1095	13.89771
0.11	7.95593
0.1105	8.7616
0.111	5.74036
0.1115	18.93311
0.112	12.68921
0.1125	3.22266
0.113	8.8623
0.1135	16.91895
0.114	14.09912
0.1145	15.00549
0.115	11.38
0.1155	18.53027
0.116	14.50195
0.1165	13.69629
0.117	10.37292
0.1175	17.01965
0.118	17.01965
0.1185	16.01257
0.119	11.07788
0.1195	13.19275
0.12	11.38
0.1205	15.40833
0.121	10.57434
0.1215	11.58142
0.122	13.39417
0.1225	4.53186
0.123	8.35876
0.1235	9.97009
0.124	7.95593
0.1245	7.15027
0.125	1.10779
0.1255	0.90637
0.126	2.61841
0.1265	5.0354
0.127	1.40991
0.1275	-4.22974
0.128	9.36584
0.1285	11.07788
0.129	9.97009
0.1295	3.12195
0.13	6.04248
0.1305	5.74036
0.131	9.97009
0.1315	4.43115
0.132	5.63965
0.1325	5.33752
0.133	8.7616
0.1335	3.02124
0.134	1.40991
0.1345	4.43115
0.135	3.22266
0.1355	8.05664
0.136	5.84106
0.1365	9.16443
0.137	9.86938
0.1375	9.16443
0.138	7.04956
0.1385	1.81274
0.139	6.3446
0.1395	8.7616
0.14	9.26514
0.1405	6.3446
0.141	5.74036
0.1415	2.71912
0.142	1.2085
0.1425	1.91345
0.143	6.54602
0.1435	5.53894
0.144	8.66089
0.1445	12.68921
0.145	-2.01416
0.1455	1.40991
0.146	11.17859
0.1465	9.26514
0.147	8.8623
0.1475	8.25806
0.148	8.35876
0.1485	7.5531
0.149	2.81982
0.1495	2.92053
0.15	5.33752
0.1505	7.95593
0.151	5.43823
0.1515	6.84814
0.152	2.41699
0.1525	-0.30212
0.153	5.63965
0.1535	1.51062
0.154	-4.12903
0.1545	3.52478
0.155	2.5177
0.1555	-1.61133
0.156	-0.10071
0.1565	-1.51062
0.157	3.92761
0.1575	2.01416
0.158	-0.30212
0.1585	-6.04248
0.159	-3.02124
0.1595	-0.60425
0.16	-1.51062
0.1605	-4.43115
0.161	-2.81982
0.1615	-2.71912
0.162	-1.3092
0.1625	-0.80566
0.163	1.51062
0.1635	1.81274
0.164	-1.81274
0.1645	1.61133
0.165	3.7262
0.1655	-1.2085
0.166	1.61133
0.1665	4.02832
0.167	4.83398
0.1675	6.44531
0.168	3.62549
0.1685	8.96301
0.169	2.92053
0.1695	3.7262
0.17	4.83398
0.1705	6.44531
0.171	-4.33044
0.1715	0.70496
0.172	3.7262
0.1725	9.86938
0.173	4.43115
0.1735	10.27222
0.174	6.44531
0.1745	9.06372
0.175	5.23682
0.1755	8.05664
0.176	9.06372
0.1765	4.12903
0.177	8.35876
0.1775	5.13611
0.178	7.85522
0.1785	9.36584
0.179	4.02832
0.1795	8.15735
0.18	5.13611
0.1805	8.15735
0.181	7.15027
0.1815	6.74744
0.182	7.85522
0.1825	10.37292
0.183	5.33752
0.1835	7.5531
0.184	3.62549
0.1845	3.52478
0.185	4.93469
0.1855	10.77576
0.186	14.19983
0.1865	10.47363
0.187	6.64673
0.1875	6.64673
0.188	4.22974
0.1885	5.53894
0.189	6.44531
0.1895	7.5531
0.19	7.25098
0.1905	-1.40991
0.191	3.42407
0.1915	4.63257
0.192	4.22974
0.1925	7.5531
0.193	6.64673
0.1935	0
0.194	5.53894
0.1945	4.43115
0.195	-0.30212
0.1955	5.53894
0.196	11.98425
0.1965	6.84814
0.197	6.54602
0.1975	5.43823
0.198	6.04248
0.1985	6.2439
0.199	6.64673
0.1995	2.61841
0.2	0.20142
0.2005	-2.11487
0.201	-3.62549
0.2015	-2.81982
0.202	0.10071
0.2025	-4.73328
0.203	1.3092
0.2035	2.81982
0.204	4.53186
0.2045	5.94177
0.205	4.63257
0.2055	2.92053
0.206	0.70496
0.2065	3.7262
0.207	8.35876
0.2075	6.64673
0.208	4.63257
0.2085	4.93469
0.209	11.68213
0.2095	8.56018
0.21	1.61133
0.2105	7.35168
0.211	2.61841
0.2115	5.33752
0.212	2.92053
0.2125	5.74036
0.213	2.31628
0.2135	9.16443
0.214	0.80566
0.2145	2.81982
0.215	7.25098
0.2155	6.64673
0.216	12.18567
0.2165	5.43823
0.217	4.73328
0.2175	10.47363
0.218	10.37292
0.2185	5.23682
0.219	13.49487
0.2195	14.60266
0.22	9.66797
0.2205	13.89771
0.221	10.87646
0.2215	17.01965
0.222	10.37292
0.2225	13.99841
0.223	4.63257
0.2235	4.63257
0.224	6.2439
0.2245	7.35168
0.225	11.48071
0.2255	5.63965
0.226	8.25806
0.2265	1.81274
0.227	2.21558
0.2275	10.67505
0.228	4.93469
0.2285	4.83398
0.229	5.63965
0.2295	5.94177
0.23	2.41699
0.2305	3.62549
0.231	5.23682
0.2315	8.05664
0.232	5.13611
0.2325	2.21558
0.233	1.51062
0.2335	12.48779
0.234	14.30054
0.2345	18.53027
0.235	7.75452
0.2355	6.3446
0.236	13.99841
0.2365	10.47363
0.237	5.33752
0.2375	10.47363
0.238	11.68213
0.2385	9.56726
0.239	9.16443
0.2395	4.83398
0.24	7.95593
0.2405	3.12195
0.241	9.26514
0.2415	8.45947
0.242	10.87646
0.2425	8.35876
0.243	11.68213
0.2435	6.14319
0.244	11.78284
0.2445	8.05664
0.245	10.0708
0.2455	8.96301
0.246	8.05664
0.2465	10.47363
0.247	14.40125
0.2475	8.8623
0.248	10.67505
0.2485	8.25806
0.249	9.06372
0.2495	10.27222
0.25	12.38708
0.2505	5.23682
0.251	7.65381
0.2515	6.74744
0.252	5.23682
0.2525	7.65381
0.253	10.0708
0.2535	8.7616
0.254	8.15735
0.2545	9.86938
0.255	5.74036
0.2555	5.84106
0.256	11.58142
0.2565	9.06372
0.257	10.97717
0.2575	8.7616
0.258	9.76868
0.2585	12.18567
0.259	6.94885
0.2595	7.04956
0.26	3.52478
0.2605	8.8623
0.261	11.88354
0.2615	7.45239
0.262	7.5531
0.2625	6.2439
0.263	9.06372
0.2635	7.85522
0.264	11.38
0.2645	10.37292
0.265	8.96301
0.2655	3.42407
0.266	8.35876
0.2665	3.8269
0.267	4.53186
0.2675	5.84106
0.268	4.63257
0.2685	2.61841
0.269	6.04248
0.2695	3.8269
0.27	2.41699
0.2705	10.57434
0.271	5.23682
0.2715	4.12903
0.272	-1.51062
0.2725	3.02124
0.273	10.0708
0.2735	8.8623
0.274	8.25806
0.2745	6.74744
0.275	-2.5177
0.2755	7.65381
0.276	6.2439
0.2765	6.94885
0.277	6.2439
0.2775	10.97717
0.278	8.15735
0.2785	6.64673
0.279	6.54602
0.2795	2.61841
0.28	2.31628
0.2805	2.21558
0.281	4.02832
0.2815	8.8623
0.282	10.37292
0.2825	3.8269
0.283	2.01416
0.2835	3.12195
0.284	5.74036
0.2845	2.5177
0.285	5.74036
0.2855	2.71912
0.286	7.65381
0.2865	5.23682
0.287	1.91345
0.2875	1.2085
0.288	6.14319
0.2885	-2.71912
0.289	0.90637
0.2895	-0.30212
0.29	1.00708
0.2905	3.62549
0.291	9.06372
0.2915	7.35168
0.292	9.66797
0.2925	2.92053
0.293	6.3446
0.2935	8.35876
0.294	7.15027
0.2945	5.33752
0.295	11.48071
0.2955	7.95593
0.296	8.15735
0.2965	9.16443
0.297	4.63257
0.2975	5.13611
0.298	9.56726
0.2985	8.96301
0.299	4.02832
0.2995	5.74036
0.3	7.15027
0.3005	7.15027
0.301	2.11487
0.3015	2.11487
0.302	5.13611
0.3025	4.63257
0.303	3.22266
0.3035	11.48071
0.304	5.94177
0.3045	8.56018
0.305	10.47363
0.3055	5.63965
0.306	2.92053
0.3065	4.83398
0.307	3.42407
0.3075	10.27222
0.308	8.66089
0.3085	2.11487
0.309	6.04248
0.3095	9.16443
0.31	6.44531
0.3105	6.04248
0.311	9.16443
0.3115	7.5531
0.312	6.3446
0.3125	9.16443
0.313	5.13611
0.3135	3.62549
0.314	4.73328
0.3145	7.85522
0.315	5.33752
0.3155	4.73328
0.316	8.8623
0.3165	8.96301
0.317	10.77576
0.3175	8.05664
0.318	5.13611
0.3185	7.95593
0.319	5.94177
0.3195	3.02124
0.32	7.45239
0.3205	8.66089
0.321	10.57434
0.3215	9.36584
0.322	7.65381
0.3225	10.77576
0.323	10.97717
0.3235	12.99133
0.324	4.43115
0.3245	5.84106
0.325	3.92761
0.3255	8.45947
0.326	10.97717
0.3265	8.45947
0.327	15.30762
0.3275	8.56018
0.328	4.53186
0.3285	5.84106
0.329	9.26514
0.3295	11.2793
0.33	8.05664
0.3305	7.15027
0.331	4.73328
0.3315	-1.00708
0.332	3.32336
0.3325	6.44531
0.333	4.83398
0.3335	4.43115
0.334	2.5177
0.3345	5.43823
0.335	8.25806
0.3355	4.22974
0.336	3.32336
0.3365	1.40991
0.337	7.95593
0.3375	2.81982
0.338	5.84106
0.3385	5.43823
0.339	-0.20142
0.3395	3.52478
0.34	-0.40283
0.3405	1.91345
0.341	5.94177
0.3415	8.45947
0.342	3.32336
0.3425	3.62549
0.343	0.90637
0.3435	1.40991
0.344	5.53894
0.3445	7.35168
0.345	7.15027
0.3455	3.42407
0.346	2.92053
0.3465	6.64673
0.347	3.32336
0.3475	5.74036
0.348	-0.10071
0.3485	-0.30212
0.349	1.81274
0.3495	0.80566
0.35	-0.40283
0.3505	2.11487
0.351	-0.60425
0.3515	5.13611
0.352	4.93469
0.3525	3.52478
0.353	7.04956
0.3535	2.41699
0.354	-0.60425
0.3545	2.5177
0.355	1.91345
0.3555	2.5177
0.356	5.0354
0.3565	5.23682
0.357	2.21558
0.3575	10.37292
0.358	11.07788
0.3585	12.08496
0.359	5.74036
0.3595	3.7262
0.36	6.04248
0.3605	4.63257
0.361	3.12195
0.3615	4.63257
0.362	6.74744
0.3625	6.54602
0.363	7.75452
0.3635	4.63257
0.364	6.2439
0.3645	0.60425
0.365	3.52478
0.3655	3.22266
0.366	8.56018
0.3665	3.02124
0.367	13.09204
0.3675	7.45239
0.368	10.47363
0.3685	9.56726
0.369	9.36584
0.3695	6.94885
0.37	3.7262
0.3705	6.44531
0.371	7.45239
0.3715	5.43823
0.372	1.40991
0.3725	6.2439
0.373	4.73328
0.3735	1.3092
0.374	7.95593
0.3745	3.92761
0.375	3.92761
0.3755	10.37292
0.376	6.2439
0.3765	7.65381
0.377	9.66797
0.3775	4.43115
0.378	3.02124
0.3785	4.12903
0.379	6.44531
0.3795	4.93469
0.38	-0.60425
0.3805	6.2439
0.381	-0.10071
0.3815	3.02124
0.382	3.62549
0.3825	3.32336
0.383	2.92053
0.3835	1.10779
0.384	-1.51062
0.3845	3.42407
0.385	4.22974
0.3855	3.22266
0.386	1.2085
0.3865	0
0.387	2.92053
0.3875	4.83398
0.388	5.0354
0.3885	8.05664
0.389	9.46655
0.3895	2.31628
0.39	6.84814
0.3905	3.7262
0.391	1.71204
0.3915	2.71912
0.392	0.40283
0.3925	6.94885
0.393	4.33044
0.3935	-2.81982
0.394	1.61133
0.3945	-0.50354
0.395	1.3092
0.3955	2.61841
0.396	-0.90637
0.3965	2.31628
0.397	-0.50354
0.3975	2.71912
0.398	7.5531
0.3985	3.32336
0.399	5.53894
0.3995	6.04248
0.4	5.0354
0.4005	8.25806
0.401	9.06372
0.4015	8.8623
0.402	9.97009
0.4025	7.65381
0.403	7.45239
0.4035	10.67505
0.404	5.94177
0.4045	8.35876
0.405	4.53186
0.4055	3.52478
0.406	2.92053
0.4065	2.5177
0.407	2.41699
0.4075	6.14319
0.408	7.85522
0.4085	8.05664
0.409	3.02124
0.4095	4.73328
0.41	8.05664
0.4105	8.05664
0.411	4.93469
0.4115	7.15027
0.412	8.8623
0.4125	9.16443
0.413	6.54602
0.4135	6.94885
0.414	15.1062
0.4145	6.2439
0.415	3.8269
0.4155	6.54602
0.416	10.17151
0.4165	9.26514
0.417	6.44531
0.4175	0.10071
0.418	4.22974
0.4185	3.22266
0.419	5.43823
0.4195	7.85522
0.42	8.8623
0.4205	4.83398
0.421	3.02124
0.4215	8.25806
0.422	4.73328
0.4225	2.01416
0.423	1.2085
0.4235	4.12903
0.424	2.21558
0.4245	1.3092
0.425	3.52478
0.4255	5.43823
0.426	1.10779
0.4265	4.33044
0.427	3.7262
0.4275	1.61133
0.428	4.33044
0.4285	9.36584
0.429	7.75452
0.4295	5.33752
0.43	8.15735
0.4305	10.77576
0.431	4.02832
0.4315	5.74036
0.432	2.71912
0.4325	-5.0354
0.433	3.22266
0.4335	3.12195
0.434	5.53894
0.4345	4.93469
0.435	0.80566
0.4355	6.3446
0.436	7.75452
0.4365	4.93469
0.437	6.44531
0.4375	1.10779
0.438	4.12903
0.4385	3.52478
0.439	1.40991
0.4395	4.93469
0.44	3.12195
0.4405	5.23682
0.441	2.21558
0.4415	2.31628
0.442	3.7262
0.4425	8.35876
0.443	3.22266
0.4435	5.53894
0.444	5.63965
0.4445	5.23682
0.445	6.3446
0.4455	12.68921
0.446	10.57434
0.4465	6.2439
0.447	11.17859
0.4475	7.5531
0.448	8.15735
0.4485	10.47363
0.449	11.17859
0.4495	8.15735
0.45	6.54602
0.4505	4.93469
0.451	1.71204
0.4515	5.43823
0.452	5.43823
0.4525	6.64673
0.453	1.10779
0.4535	5.0354
0.454	10.67505
0.4545	4.22974
0.455	3.22266
0.4555	5.23682
0.456	5.63965
0.4565	8.56018
0.457	4.93469
0.4575	6.2439
0.458	1.81274
0.4585	2.31628
0.459	5.33752
0.4595	6.74744
0.46	8.7616
0.4605	4.63257
0.461	1.81274
0.4615	-0.10071
0.462	1.81274
0.4625	3.7262
0.463	1.40991
0.4635	-1.40991
0.464	1.10779
0.4645	-1.51062
0.465	-1.51062
0.4655	2.5177
0.466	2.01416
0.4665	5.0354
0.467	-0.90637
0.4675	5.63965
0.468	3.42407
0.4685	4.43115
0.469	1.00708
0.4695	1.10779
0.47	1.00708
0.4705	4.02832
0.471	-5.94177
0.4715	0.30212
0.472	5.74036
0.4725	6.84814
0.473	8.66089
0.4735	9.86938
0.474	4.83398
0.4745	9.46655
0.475	7.75452
0.4755	11.07788
0.476	9.66797
0.4765	10.0708
0.477	4.73328
0.4775	6.2439
0.478	10.97717
0.4785	6.04248
0.479	10.87646
0.4795	-0.20142
0.48	0.10071
0.4805	8.56018
0.481	11.2793
0.4815	3.52478
0.482	8.35876
0.4825	6.64673
0.483	8.15735
0.4835	6.3446
0.484	9.26514
0.4845	9.26514
0.485	5.94177
0.4855	5.63965
0.486	6.44531
0.4865	10.67505
0.487	11.07788
0.4875	8.66089
0.488	1.51062
0.4885	3.22266
0.489	2.11487
0.4895	9.26514
0.49	6.2439
0.4905	8.35876
0.491	5.63965
0.4915	5.84106
0.492	13.29346
0.4925	6.64673
0.493	9.46655
0.4935	8.35876
0.494	4.73328
0.4945	10.17151
0.495	7.75452
0.4955	8.7616
0.496	10.67505
0.4965	5.94177
0.497	10.77576
0.4975	6.64673
0.498	0.20142
0.4985	10.87646
0.499	3.92761
0.4995	9.97009
0.5	6.04248
0.5005	-3.32336
0.501	3.22266
0.5015	9.26514
0.502	2.31628
0.5025	5.43823
0.503	4.63257
0.5035	9.76868
0.504	6.14319
0.5045	7.75452
0.505	10.57434
0.5055	10.97717
0.506	9.97009
0.5065	4.43115
0.507	8.25806
0.5075	7.85522
0.508	8.35876
0.5085	7.45239
0.509	5.13611
0.5095	8.15735
0.51	2.5177
0.5105	7.45239
0.511	7.35168
0.5115	3.22266
0.512	5.13611
0.5125	5.13611
0.513	0.40283
0.5135	3.92761
0.514	5.33752
0.5145	5.13611
0.515	-0.70496
0.5155	-0.30212
0.516	1.00708
0.5165	3.52478
0.517	4.53186
0.5175	0
0.518	6.2439
0.5185	4.53186
0.519	0.60425
0.5195	1.71204
0.52	-0.60425
0.5205	-0.90637
0.521	2.01416
0.5215	2.11487
0.522	1.51062
0.5225	-0.40283
0.523	-1.40991
0.5235	2.5177
0.524	4.33044
0.5245	4.02832
0.525	3.7262
0.5255	1.61133
0.526	4.02832
0.5265	9.66797
0.527	4.53186
0.5275	7.35168
0.528	8.56018
0.5285	6.94885
0.529	10.37292
0.5295	6.64673
0.53	5.74036
0.5305	5.33752
0.531	5.84106
0.5315	6.2439
0.532	5.0354
0.5325	7.45239
0.533	7.04956
0.5335	4.53186
0.534	0
0.5345	0.90637
0.535	3.7262
0.5355	7.35168
0.536	8.35876
0.5365	7.04956
0.537	9.46655
0.5375	5.13611
0.538	5.94177
0.5385	4.43115
0.539	8.25806
0.5395	6.54602
0.54	8.56018
0.5405	7.95593
0.541	13.49487
0.5415	8.05664
0.542	5.84106
0.5425	7.65381
0.543	7.45239
0.5435	4.33044
0.544	6.64673
0.5445	3.02124
0.545	7.65381
0.5455	3.7262
0.546	3.32336
0.5465	-0.10071
0.547	1.3092
0.5475	3.22266
0.548	9.46655
0.5485	-0.60425
0.549	4.22974
0.5495	6.2439
0.55	7.25098
0.5505	3.32336
0.551	1.51062
0.5515	3.62549
0.552	6.04248
0.5525	3.62549
0.553	5.63965
0.5535	6.14319
0.554	6.2439
0.5545	3.62549
0.555	5.43823
0.5555	3.22266
0.556	0.50354
0.5565	-0.10071
0.557	2.11487
0.5575	6.94885
0.558	5.94177
0.5585	0.50354
0.559	3.12195
0.5595	4.12903
0.56	8.25806
0.5605	7.04956
0.561	4.83398
0.5615	4.43115
0.562	8.35876
0.5625	10.37292
0.563	8.66089
0.5635	10.17151
0.564	12.78992
0.5645	8.25806
0.565	9.76868
0.5655	8.15735
0.566	4.12903
0.5665	7.5531
0.567	5.33752
0.5675	1.3092
0.568	5.0354
0.5685	5.94177
0.569	3.02124
0.5695	4.83398
0.57	5.33752
0.5705	6.14319
0.571	0.60425
0.5715	2.11487
0.572	4.83398
0.5725	5.13611
0.573	3.7262
0.5735	1.3092
0.574	2.11487
0.5745	5.33752
0.575	2.01416
0.5755	8.96301
0.576	4.43115
0.5765	9.26514
0.577	8.25806
0.5775	0.90637
0.578	4.02832
0.5785	5.43823
0.579	3.42407
0.5795	6.2439
0.58	2.41699
0.5805	2.21558
0.581	7.75452
0.5815	7.95593
0.582	5.23682
0.5825	0.30212
0.583	2.31628
0.5835	1.00708
0.584	4.53186
0.5845	4.53186
0.585	4.63257
0.5855	3.8269
0.586	0.70496
0.5865	5.63965
0.587	6.3446
0.5875	4.53186
0.588	3.22266
0.5885	2.92053
0.589	4.43115
0.5895	9.26514
0.59	5.0354
0.5905	5.23682
0.591	1.91345
0.5915	5.74036
0.592	7.85522
0.5925	1.61133
0.593	9.97009
0.5935	9.06372
0.594	11.78284
0.5945	8.7616
0.595	9.26514
0.5955	7.35168
0.596	7.5531
0.5965	7.45239
0.597	7.85522
0.5975	8.05664
0.598	9.76868
0.5985	4.93469
0.599	6.44531
0.5995	7.25098
0.6	8.35876
0.6005	3.92761
0.601	2.92053
0.6015	5.23682
0.602	6.04248
0.6025	8.05664
0.603	7.75452
0.6035	8.56018
0.604	7.5531
0.6045	13.39417
0.605	11.38
0.6055	6.44531
0.606	1.91345
0.6065	3.92761
0.607	6.54602
0.6075	7.5531
0.608	4.63257
0.6085	8.7616
0.609	1.71204
0.6095	7.5531
0.61	8.66089
0.6105	10.0708
0.611	10.47363
0.6115	9.16443
0.612	9.86938
0.6125	4.73328
0.613	5.43823
0.6135	4.02832
0.614	5.74036
0.6145	3.32336
0.615	6.84814
0.6155	10.47363
0.616	11.68213
0.6165	7.45239
0.617	4.93469
0.6175	11.58142
0.618	3.8269
0.6185	6.14319
0.619	6.3446
0.6195	5.74036
0.62	2.92053
0.6205	4.63257
0.621	5.53894
0.6215	1.40991
0.622	3.8269
0.6225	3.22266
0.623	3.32336
0.6235	4.83398
0.624	5.84106
0.6245	-1.00708
0.625	-0.60425
0.6255	-3.32336
0.626	-2.01416
0.6265	4.53186
0.627	10.67505
0.6275	8.8623
0.628	0.90637
0.6285	-0.30212
0.629	1.81274
0.6295	-0.50354
0.63	3.02124
0.6305	1.61133
0.631	0.70496
0.6315	-1.2085
0.632	3.42407
0.6325	-2.5177
0.633	3.92761
0.6335	4.22974
0.634	5.63965
0.6345	2.81982
0.635	-0.70496
0.6355	0.10071
0.636	3.92761
0.6365	0.90637
0.637	6.54602
0.6375	1.91345
0.638	7.35168
0.6385	6.14319
0.639	-0.70496
0.6395	4.12903
0.64	5.33752
0.6405	5.13611
0.641	0.80566
0.6415	-0.80566
0.642	5.63965
0.6425	7.45239
0.643	4.33044
0.6435	0.90637
0.644	4.63257
0.6445	5.0354
0.645	5.43823
0.6455	6.3446
0.646	5.74036
0.6465	4.22974
0.647	8.66089
0.6475	8.25806
0.648	12.5885
0.6485	9.06372
0.649	3.22266
0.6495	4.02832
0.65	0
0.6505	4.02832
0.651	10.27222
0.6515	3.8269
0.652	1.3092
0.6525	3.7262
0.653	7.85522
0.6535	4.83398
0.654	7.65381
0.6545	8.56018
0.655	6.74744
0.6555	10.0708
0.656	10.47363
0.6565	3.92761
0.657	6.74744
0.6575	4.93469
0.658	6.54602
0.6585	13.39417
0.659	7.65381
0.6595	2.5177
0.66	3.12195
0.6605	2.31628
0.661	5.53894
0.6615	4.53186
0.662	-1.10779
0.6625	1.91345
0.663	6.2439
0.6635	7.85522
0.664	5.53894
0.6645	6.14319
0.665	7.5531
0.6655	2.31628
0.666	4.22974
0.6665	1.81274
0.667	4.73328
0.6675	6.64673
0.668	4.33044
0.6685	3.62549
0.669	7.25098
0.6695	3.22266
0.67	5.53894
0.6705	7.75452
0.671	5.23682
0.6715	4.43115
0.672	2.71912
0.6725	3.52478
0.673	6.64673
0.6735	8.66089
0.674	10.57434
0.6745	11.17859
0.675	3.12195
0.6755	5.53894
0.676	13.09204
0.6765	3.42407
0.677	3.12195
0.6775	10.47363
0.678	8.8623
0.6785	7.04956
0.679	9.76868
0.6795	7.35168
0.68	8.7616
0.6805	7.15027
0.681	9.56726
0.6815	3.92761
0.682	2.41699
0.6825	10.37292
0.683	1.81274
0.6835	6.2439
0.684	3.42407
0.6845	8.8623
0.685	7.45239
0.6855	4.12903
0.686	2.01416
0.6865	2.21558
0.687	3.7262
0.6875	3.62549
0.688	10.97717
0.6885	1.51062
0.689	7.95593
0.6895	8.15735
0.69	0.70496
0.6905	3.92761
0.691	-1.81274
0.6915	1.61133
0.692	3.32336
0.6925	5.0354
0.693	4.63257
0.6935	9.66797
0.694	0.80566
0.6945	2.81982
0.695	6.04248
0.6955	5.33752
0.696	3.7262
0.6965	6.54602
0.697	3.7262
0.6975	-0.80566
0.698	4.33044
0.6985	4.43115
0.699	8.45947
0.6995	1.40991
0.7	-0.90637
0.7005	-1.71204
0.701	3.22266
0.7015	1.51062
0.702	4.83398
0.7025	0.10071
0.703	0.10071
0.7035	3.62549
0.704	2.41699
0.7045	2.01416
0.705	1.40991
0.7055	3.42407
0.706	1.91345
0.7065	1.71204
0.707	-1.10779
0.7075	5.13611
0.708	5.84106
0.7085	7.5531
0.709	7.95593
0.7095	9.66797
0.71	4.43115
0.7105	4.83398
0.711	8.7616
0.7115	2.61841
0.712	6.14319
0.7125	7.85522
0.713	5.13611
0.7135	6.54602
0.714	5.33752
0.7145	5.33752
0.715	8.25806
0.7155	5.43823
0.716	6.54602
0.7165	4.22974
0.717	3.12195
0.7175	10.47363
0.718	5.53894
0.7185	3.8269
0.719	0.50354
0.7195	5.94177
0.72	4.63257
0.7205	9.16443
0.721	0.70496
0.7215	3.22266
0.722	6.54602
0.7225	4.83398
0.723	3.52478
0.7235	8.56018
0.724	9.46655
0.7245	8.96301
0.725	2.92053
0.7255	10.37292
0.726	4.83398
0.7265	11.38
0.727	12.08496
0.7275	8.25806
0.728	7.15027
0.7285	10.47363
0.729	8.96301
0.7295	4.73328
0.73	4.43115
0.7305	8.56018
0.731	9.46655
0.7315	6.74744
0.732	5.94177
0.7325	-0.10071
0.733	1.40991
0.7335	7.65381
0.734	10.47363
0.7345	9.76868
0.735	2.61841
0.7355	4.12903
0.736	6.14319
0.7365	3.42407
0.737	10.57434
0.7375	8.56018
0.738	2.31628
0.7385	2.21558
0.739	6.04248
0.7395	9.46655
0.74	4.93469
0.7405	7.04956
0.741	7.15027
0.7415	3.02124
0.742	5.13611
0.7425	8.25806
0.743	3.62549
0.7435	1.2085
0.744	8.05664
0.7445	2.61841
0.745	-0.80566
0.7455	3.52478
0.746	3.52478
0.7465	1.81274
0.747	5.53894
0.7475	7.35168
0.748	6.44531
0.7485	4.63257
0.749	5.33752
0.7495	8.8623
0.75	9.26514
0.7505	8.25806
0.751	8.45947
0.7515	5.63965
0.752	7.25098
0.7525	6.74744
0.753	2.5177
0.7535	9.76868
0.754	7.25098
0.7545	7.04956
0.755	9.97009
0.7555	7.04956
0.756	9.76868
0.7565	5.0354
0.757	2.61841
0.7575	0.10071
0.758	-0.80566
0.7585	-1.2085
0.759	1.2085
0.7595	4.33044
0.76	-0.90637
0.7605	5.13611
0.761	7.35168
0.7615	2.71912
0.762	0.80566
0.7625	-3.32336
0.763	0.90637
0.7635	1.3092
0.764	-1.40991
0.7645	2.5177
0.765	-0.40283
0.7655	-2.41699
0.766	1.81274
0.7665	2.31628
0.767	5.63965
0.7675	10.27222
0.768	7.15027
0.7685	4.93469
0.769	3.02124
0.7695	2.61841
0.77	6.14319
0.7705	2.71912
0.771	5.53894
0.7715	4.33044
0.772	-2.81982
0.7725	0.30212
0.773	4.33044
0.7735	3.22266
0.774	4.63257
0.7745	4.63257
0.775	2.5177
0.7755	6.14319
0.776	2.11487
0.7765	9.36584
0.777	6.2439
0.7775	6.04248
0.778	2.61841
0.7785	3.42407
0.779	7.25098
0.7795	7.04956
0.78	3.7262
0.7805	7.04956
0.781	9.66797
0.7815	6.84814
0.782	5.63965
0.7825	3.92761
0.783	1.3092
0.7835	5.63965
0.784	5.23682
0.7845	4.63257
0.785	1.91345
0.7855	3.7262
0.786	7.15027
0.7865	8.96301
0.787	10.77576
0.7875	6.2439
0.788	9.97009
0.7885	4.83398
0.789	6.94885
0.7895	4.63257
0.79	6.74744
0.7905	5.63965
0.791	6.74744
0.7915	8.35876
0.792	8.15735
0.7925	8.15735
0.793	7.45239
0.7935	7.35168
0.794	7.04956
0.7945	9.76868
0.795	7.35168
0.7955	3.02124
0.796	6.54602
0.7965	10.97717
0.797	10.87646
0.7975	4.33044
0.798	6.44531
0.7985	2.5177
0.799	6.84814
0.7995	5.94177
0.8	2.5177
0.8005	6.64673
0.801	7.85522
0.8015	7.35168
0.802	6.44531
0.8025	8.56018
0.803	7.95593
0.8035	3.52478
0.804	5.84106
0.8045	3.92761
0.805	5.94177
0.8055	3.32336
0.806	6.04248
0.8065	0.20142
0.807	0.90637
0.8075	3.92761
0.808	1.40991
0.8085	4.12903
0.809	3.7262
0.8095	5.53894
0.81	1.10779
0.8105	0.80566
0.811	-0.50354
0.8115	1.91345
0.812	2.01416
0.8125	10.37292
0.813	10.0708
0.8135	0.40283
0.814	6.04248
0.8145	4.43115
0.815	6.64673
0.8155	3.92761
0.816	5.63965
0.8165	5.0354
0.817	-2.81982
0.8175	8.56018
0.818	1.81274
0.8185	8.96301
0.819	3.42407
0.8195	5.94177
0.82	5.94177
0.8205	4.63257
0.821	4.73328
0.8215	4.53186
0.822	7.04956
0.8225	1.81274
0.823	4.43115
0.8235	4.02832
0.824	1.00708
0.8245	4.02832
0.825	9.56726
0.8255	3.8269
0.826	11.2793
0.8265	9.26514
0.827	14.09912
0.8275	8.25806
0.828	14.30054
0.8285	12.28638
0.829	7.45239
0.8295	8.45947
0.83	13.49487
0.8305	11.38
0.831	10.77576
0.8315	9.36584
0.832	17.32178
0.8325	17.01965
0.833	16.61682
0.8335	11.88354
0.834	12.68921
0.8345	9.66797
0.835	11.17859
0.8355	9.56726
0.836	8.96301
0.8365	12.78992
0.837	12.48779
0.8375	8.56018
0.838	7.75452
0.8385	13.39417
0.839	8.8623
0.8395	9.06372
0.84	7.65381
0.8405	6.74744
0.841	4.53186
0.8415	7.04956
0.842	9.97009
0.8425	7.35168
0.843	4.02832
0.8435	7.5531
0.844	2.01416
0.8445	2.71912
0.845	6.3446
0.8455	8.8623
0.846	7.15027
0.8465	6.3446
0.847	7.25098
0.8475	5.94177
0.848	7.75452
0.8485	8.7616
0.849	7.25098
0.8495	5.94177
0.85	8.35876
0.8505	7.25098
0.851	2.92053
0.8515	10.47363
0.852	5.43823
0.8525	8.15735
0.853	14.09912
0.8535	5.33752
0.854	8.15735
0.8545	10.17151
0.855	11.2793
0.8555	3.02124
0.856	3.22266
0.8565	-1.00708
0.857	7.45239
0.8575	1.81274
0.858	2.21558
0.8585	2.01416
0.859	2.81982
0.8595	3.7262
0.86	5.13611
0.8605	4.33044
0.861	7.04956
0.8615	4.83398
0.862	7.04956
0.8625	5.23682
0.863	5.33752
0.8635	6.2439
0.864	8.35876
0.8645	9.36584
0.865	5.84106
0.8655	6.04248
0.866	-2.11487
0.8665	3.7262
0.867	10.47363
0.8675	8.96301
0.868	6.54602
0.8685	11.58142
0.869	9.76868
0.8695	7.35168
0.87	5.63965
0.8705	0.70496
0.871	5.84106
0.8715	2.11487
0.872	3.22266
0.8725	5.13611
0.873	4.22974
0.8735	1.10779
0.874	1.71204
0.8745	-3.42407
0.875	-1.51062
0.8755	0.50354
0.876	-2.5177
0.8765	4.12903
0.877	5.0354
0.8775	1.61133
0.878	2.21558
0.8785	4.63257
0.879	2.71912
0.8795	7.04956
0.88	2.92053
0.8805	3.7262
0.881	7.15027
0.8815	5.13611
0.882	7.04956
0.8825	4.63257
0.883	3.92761
0.8835	6.14319
0.884	7.04956
0.8845	6.2439
0.885	6.2439
0.8855	4.73328
0.886	1.3092
0.8865	1.91345
0.887	8.35876
0.8875	1.71204
0.888	1.71204
0.8885	4.12903
0.889	5.0354
0.8895	3.7262
0.89	5.0354
0.8905	-1.2085
0.891	0.20142
0.8915	-2.11487
0.892	0.90637
0.8925	1.40991
0.893	5.0354
0.8935	4.63257
0.894	-1.71204
0.8945	0.40283
0.895	-5.63965
0.8955	-0.70496
0.896	0.40283
0.8965	-4.43115
0.897	5.84106
0.8975	2.41699
0.898	1.00708
0.8985	-2.71912
0.899	0
0.8995	-0.10071
0.9	-0.60425
0.9005	-1.61133
0.901	-3.12195
0.9015	0.50354
0.902	3.7262
0.9025	3.32336
0.903	6.2439
0.9035	0.90637
0.904	5.33752
0.9045	-1.61133
0.905	2.61841
0.9055	0.30212
0.906	-0.50354
0.9065	3.02124
0.907	5.0354
0.9075	4.63257
0.908	2.01416
0.9085	3.8269
0.909	11.17859
0.9095	7.95593
0.91	-0.70496
0.9105	0.40283
0.911	2.11487
0.9115	3.92761
0.912	6.14319
0.9125	7.5531
0.913	6.84814
0.9135	6.84814
0.914	12.78992
0.9145	5.43823
0.915	5.94177
0.9155	7.25098
0.916	1.71204
0.9165	9.97009
0.917	8.8623
0.9175	7.95593
0.918	2.61841
0.9185	2.21558
0.919	1.61133
0.9195	2.5177
0.92	4.63257
0.9205	0.30212
0.921	4.02832
0.9215	3.7262
0.922	8.7616
0.9225	7.04956
0.923	10.77576
0.9235	7.45239
0.924	10.27222
0.9245	10.17151
0.925	3.12195
0.9255	5.84106
0.926	5.23682
0.9265	8.8623
0.927	3.8269
0.9275	12.78992
0.928	8.45947
0.9285	10.67505
0.929	11.78284
0.9295	12.68921
0.93	13.49487
0.9305	8.8623
0.931	14.30054
0.9315	17.6239
0.932	10.77576
0.9325	14.70337
0.933	11.88354
0.9335	12.5885
0.934	11.17859
0.9345	11.78284
0.935	10.87646
0.9355	8.96301
0.936	10.17151
0.9365	14.50195
0.937	12.89062
0.9375	15.40833
0.938	10.77576
0.9385	16.21399
0.939	17.42249
0.9395	14.40125
0.94	10.37292
0.9405	13.59558
0.941	13.19275
0.9415	19.13452
0.942	18.12744
0.9425	13.797
0.943	13.99841
0.9435	11.88354
0.944	9.76868
0.9445	3.32336
0.945	5.23682
0.9455	10.97717
0.946	7.95593
0.9465	16.01257
0.947	4.73328
0.9475	10.77576
0.948	12.78992
0.9485	8.45947
0.949	10.67505
0.9495	6.94885
0.95	8.45947
0.9505	3.8269
0.951	7.85522
0.9515	6.84814
0.952	1.61133
0.9525	5.63965
0.953	9.06372
0.9535	4.02832
0.954	9.76868
0.9545	8.45947
0.955	7.45239
0.9555	3.7262
0.956	10.0708
0.9565	9.36584
0.957	7.75452
0.9575	9.97009
0.958	11.2793
0.9585	10.67505
0.959	10.77576
0.9595	5.53894
0.96	5.13611
0.9605	4.12903
0.961	5.43823
0.9615	3.52478
0.962	10.87646
0.9625	6.3446
0.963	4.73328
0.9635	6.74744
0.964	8.66089
0.9645	6.54602
0.965	3.7262
0.9655	6.94885
0.966	7.75452
0.9665	11.2793
0.967	11.68213
0.9675	6.84814
0.968	7.95593
0.9685	5.94177
0.969	1.2085
0.9695	8.15735
0.97	2.81982
0.9705	4.02832
0.971	6.54602
0.9715	9.36584
0.972	2.81982
0.9725	7.35168
0.973	6.94885
0.9735	6.64673
0.974	0.30212
0.9745	6.84814
0.975	9.76868
0.9755	11.68213
0.976	12.68921
0.9765	3.02124
0.977	5.33752
0.9775	3.02124
0.978	7.65381
0.9785	1.71204
0.979	3.7262
0.9795	6.94885
0.98	9.97009
0.9805	11.38
0.981	9.66797
0.9815	9.97009
0.982	6.2439
0.9825	3.12195
0.983	5.0354
0.9835	7.65381
0.984	7.04956
0.9845	11.2793
0.985	4.53186
0.9855	3.42407
0.986	5.74036
0.9865	4.93469
0.987	7.35168
0.9875	2.61841
0.988	4.93469
0.9885	2.5177
0.989	1.51062
0.9895	0.50354
0.99	2.21558
0.9905	5.53894
0.991	0.10071
0.9915	6.54602
0.992	4.73328
0.9925	2.41699
0.993	7.25098
0.9935	6.74744
0.994	11.38
0.9945	8.8623
0.995	1.40991
0.9955	8.96301
0.996	2.41699
0.9965	5.53894
0.997	2.31628
0.9975	8.56018
0.998	5.13611
0.9985	5.33752
0.999	-0.70496
0.9995	0.90637
1	5.33752
1.0005	5.33752
1.001	-2.31628
1.0015	10.27222
1.002	7.45239
1.0025	6.2439
1.003	9.36584
1.0035	5.33752
1.004	3.52478
1.0045	8.56018
1.005	6.54602
1.0055	7.25098
1.006	3.8269
1.0065	8.96301
1.007	5.84106
1.0075	7.65381
1.008	5.74036
1.0085	-0.70496
1.009	3.32336
1.0095	5.43823
1.01	0.20142
1.0105	2.21558
1.011	1.40991
1.0115	4.43115
1.012	1.81274
1.0125	-1.40991
1.013	7.75452
1.0135	5.63965
1.014	6.94885
1.0145	4.83398
1.015	5.53894
1.0155	2.21558
1.016	4.93469
1.0165	6.64673
1.017	6.44531
1.0175	12.08496
1.018	6.94885
1.0185	1.91345
1.019	5.94177
1.0195	0
1.02	3.02124
1.0205	3.52478
1.021	-1.61133
1.0215	2.31628
1.022	-2.01416
1.0225	8.35876
1.023	8.35876
1.0235	1.2085
1.024	4.83398
1.0245	1.00708
1.025	1.2085
1.0255	2.71912
1.026	3.32336
1.0265	0.90637
1.027	3.32336
1.0275	5.63965
1.028	2.61841
1.0285	0.70496
1.029	0.30212
1.0295	2.31628
1.03	3.32336
1.0305	2.81982
1.031	6.94885
1.0315	0.80566
1.032	4.93469
1.0325	5.94177
1.033	5.74036
1.0335	1.3092
1.034	4.83398
1.0345	4.12903
1.035	0.10071
1.0355	7.85522
1.036	3.32336
1.0365	10.77576
1.037	5.43823
1.0375	2.81982
1.038	7.15027
1.0385	7.15027
1.039	5.74036
1.0395	3.8269
1.04	4.73328
1.0405	1.71204
1.041	1.40991
1.0415	2.71912
1.042	8.25806
1.0425	4.22974
1.043	-0.20142
1.0435	3.22266
1.044	5.74036
1.0445	2.81982
1.045	3.92761
1.0455	6.2439
1.046	4.33044
1.0465	6.3446
1.047	7.25098
1.0475	6.64673
1.048	7.5531
1.0485	2.41699
1.049	2.71912
1.0495	0.50354
1.05	1.71204
1.0505	2.81982
1.051	7.65381
1.0515	0.50354
1.052	3.02124
1.0525	2.31628
1.053	3.62549
1.0535	5.74036
1.054	2.5177
1.0545	3.62549
1.055	6.3446
1.0555	4.12903
1.056	2.81982
1.0565	5.74036
1.057	4.83398
1.0575	3.52478
1.058	-0.40283
1.0585	1.51062
1.059	1.00708
1.0595	-0.70496
1.06	4.12903
1.0605	4.02832
1.061	3.12195
1.0615	5.33752
1.062	9.46655
1.0625	7.95593
1.063	6.54602
1.0635	10.57434
1.064	6.94885
1.0645	3.22266
1.065	4.33044
1.0655	4.22974
1.066	9.56726
1.0665	9.26514
1.067	-0.30212
1.0675	0.80566
1.068	6.94885
1.0685	8.25806
1.069	4.43115
1.0695	2.92053
1.07	4.43115
1.0705	-0.60425
1.071	2.5177
1.0715	0.60425
1.072	6.64673
1.0725	2.11487
1.073	2.11487
1.0735	2.31628
1.074	7.95593
1.0745	-1.71204
1.075	0.90637
1.0755	4.43115
1.076	3.42407
1.0765	6.04248
1.077	7.35168
1.0775	11.2793
1.078	8.96301
1.0785	9.97009
1.079	4.12903
1.0795	3.7262
1.08	9.56726
1.0805	9.26514
1.081	10.77576
1.0815	3.32336
1.082	6.64673
1.0825	8.56018
1.083	4.63257
1.0835	3.02124
1.084	2.71912
1.0845	3.7262
1.085	-2.5177
1.0855	1.91345
1.086	6.64673
1.0865	5.43823
1.087	1.71204
1.0875	1.10779
1.088	5.33752
1.0885	3.02124
1.089	-0.80566
1.0895	1.40991
1.09	2.92053
1.0905	3.22266
1.091	8.45947
1.0915	6.64673
1.092	0.80566
1.0925	3.92761
1.093	7.35168
1.0935	9.86938
1.094	8.56018
1.0945	8.8623
1.095	5.0354
1.0955	7.04956
1.096	6.54602
1.0965	6.84814
1.097	11.58142
1.0975	7.15027
1.098	5.33752
1.0985	6.74744
1.099	11.07788
1.0995	5.53894
1.1	8.7616
1.1005	6.14319
1.101	4.53186
1.1015	9.66797
1.102	11.58142
1.1025	9.06372
1.103	1.71204
1.1035	9.46655
1.104	10.17151
1.1045	9.86938
1.105	10.67505
1.1055	7.5531
1.106	8.56018
1.1065	9.46655
1.107	10.17151
1.1075	5.13611
1.108	8.96301
1.1085	6.14319
1.109	6.94885
1.1095	7.75452
1.11	10.0708
1.1105	11.58142
1.111	7.65381
1.1115	11.38
1.112	10.57434
1.1125	5.63965
1.113	8.56018
1.1135	10.67505
1.114	12.28638
1.1145	10.17151
1.115	9.97009
1.1155	6.84814
1.116	7.04956
1.1165	7.04956
1.117	7.45239
1.1175	5.74036
1.118	4.73328
1.1185	7.5531
1.119	4.93469
1.1195	4.93469
1.12	3.42407
1.1205	1.71204
1.121	3.22266
1.1215	3.02124
1.122	-0.60425
1.1225	-2.61841
1.123	4.93469
1.1235	1.3092
1.124	1.71204
1.1245	2.81982
1.125	2.92053
1.1255	6.84814
1.126	7.95593
1.1265	3.92761
1.127	0.70496
1.1275	7.45239
1.128	6.74744
1.1285	7.04956
1.129	4.02832
1.1295	4.83398
1.13	-0.40283
1.1305	4.73328
1.131	10.47363
1.1315	2.92053
1.132	3.02124
1.1325	5.23682
1.133	6.3446
1.1335	4.63257
1.134	1.2085
1.1345	6.04248
1.135	7.25098
1.1355	4.53186
1.136	0.80566
1.1365	8.56018
1.137	7.35168
1.1375	6.04248
1.138	5.94177
1.1385	8.25806
1.139	7.85522
1.1395	9.97009
1.14	6.94885
1.1405	-1.61133
1.141	2.92053
1.1415	2.81982
1.142	4.93469
1.1425	1.10779
1.143	5.43823
1.1435	6.54602
1.144	9.56726
1.1445	10.27222
1.145	6.54602
1.1455	5.23682
1.146	2.31628
1.1465	3.92761
1.147	5.94177
1.1475	7.15027
1.148	7.5531
1.1485	5.43823
1.149	6.54602
1.1495	8.45947
1.15	3.62549
1.1505	6.3446
1.151	6.54602
1.1515	2.81982
1.152	7.45239
1.1525	1.40991
1.153	5.13611
1.1535	4.02832
1.154	2.41699
1.1545	1.81274
1.155	5.23682
1.1555	1.61133
1.156	1.10779
1.1565	4.93469
1.157	7.65381
1.1575	8.05664
1.158	6.14319
1.1585	4.22974
1.159	5.63965
1.1595	10.97717
1.16	12.89062
1.1605	5.43823
1.161	8.05664
1.1615	5.23682
1.162	6.04248
1.1625	8.8623
1.163	9.16443
1.1635	8.56018
1.164	6.94885
1.1645	9.97009
1.165	11.68213
1.1655	2.92053
1.166	7.5531
1.1665	9.76868
1.167	8.45947
1.1675	11.88354
1.168	5.74036
1.1685	5.43823
1.169	6.14319
1.1695	3.12195
1.17	7.25098
1.1705	6.54602
1.171	5.63965
1.1715	3.32336
1.172	6.54602
1.1725	1.81274
1.173	9.16443
1.1735	4.12903
1.174	3.32336
1.1745	5.43823
1.175	4.93469
1.1755	5.53894
1.176	8.25806
1.1765	11.48071
1.177	8.56018
1.1775	1.40991
1.178	3.92761
1.1785	2.71912
1.179	4.22974
1.1795	6.04248
1.18	8.96301
1.1805	4.33044
1.181	1.71204
1.1815	0.10071
1.182	2.21558
1.1825	5.23682
1.183	10.97717
1.1835	10.67505
1.184	6.94885
1.1845	6.84814
1.185	4.12903
1.1855	10.0708
1.186	4.33044
1.1865	2.71912
1.187	3.62549
1.1875	6.2439
1.188	5.94177
1.1885	5.0354
1.189	5.74036
1.1895	0.10071
1.19	5.23682
1.1905	2.41699
1.191	2.61841
1.1915	1.40991
1.192	1.71204
1.1925	8.35876
1.193	3.32336
1.1935	4.12903
1.194	9.56726
1.1945	3.32336
1.195	4.73328
1.1955	0.60425
1.196	-0.50354
1.1965	2.11487
1.197	3.02124
1.1975	5.74036
1.198	7.95593
1.1985	11.2793
1.199	11.58142
1.1995	6.74744
1.2	12.99133
1.2005	5.23682
1.201	6.3446
1.2015	13.797
1.202	7.15027
1.2025	14.70337
1.203	8.05664
1.2035	9.26514
1.204	10.57434
1.2045	6.94885
1.205	3.52478
1.2055	6.64673
1.206	-0.50354
1.2065	4.43115
1.207	6.3446
1.2075	3.52478
1.208	6.2439
1.2085	2.92053
1.209	8.45947
1.2095	12.48779
1.21	10.97717
1.2105	3.22266
1.211	12.08496
1.2115	10.77576
1.212	10.57434
1.2125	4.53186
1.213	9.66797
1.2135	14.40125
1.214	11.58142
1.2145	13.49487
1.215	8.45947
1.2155	6.74744
1.216	9.97009
1.2165	8.7616
1.217	6.04248
1.2175	3.8269
1.218	5.74036
1.2185	2.71912
1.219	1.51062
1.2195	1.2085
1.22	5.43823
1.2205	1.61133
1.221	1.91345
1.2215	4.22974
1.222	-2.11487
1.2225	0.70496
1.223	-1.2085
1.2235	-3.12195
1.224	3.8269
1.2245	0.70496
1.225	4.53186
1.2255	1.61133
1.226	7.15027
1.2265	6.74744
1.227	6.74744
1.2275	3.02124
1.228	7.15027
1.2285	5.63965
1.229	6.2439
1.2295	4.93469
1.23	1.61133
1.2305	1.91345
1.231	6.64673
1.2315	0.70496
1.232	3.52478
1.2325	6.54602
1.233	7.75452
1.2335	3.7262
1.234	2.11487
1.2345	2.31628
1.235	6.84814
1.2355	2.81982
1.236	3.02124
1.2365	5.0354
1.237	5.43823
1.2375	5.63965
1.238	5.94177
1.2385	4.33044
1.239	6.74744
1.2395	10.0708
1.24	7.04956
1.2405	5.74036
1.241	8.8623
1.2415	12.68921
1.242	5.33752
1.2425	9.26514
1.243	8.35876
1.2435	7.85522
1.244	6.2439
1.2445	6.64673
1.245	11.17859
1.2455	10.17151
1.246	8.45947
1.2465	8.35876
1.247	11.78284
1.2475	12.5885
1.248	8.7616
1.2485	8.8623
1.249	8.15735
1.2495	6.54602
1.25	4.63257
1.2505	7.04956
1.251	6.3446
1.2515	11.2793
1.252	1.3092
1.2525	4.12903
1.253	6.64673
1.2535	7.65381
1.254	8.05664
1.2545	7.95593
1.255	3.32336
1.2555	9.97009
1.256	4.53186
1.2565	5.84106
1.257	9.16443
1.2575	5.13611
1.258	1.10779
1.2585	0.40283
1.259	1.61133
1.2595	-1.10779
1.26	0
1.2605	0.70496
1.261	2.92053
1.2615	-0.60425
1.262	2.71912
1.2625	5.84106
1.263	3.12195
1.2635	7.15027
1.264	5.43823
1.2645	3.32336
1.265	3.62549
1.2655	7.75452
1.266	2.41699
1.2665	7.25098
1.267	8.45947
1.2675	5.74036
1.268	4.93469
1.2685	5.84106
1.269	4.12903
1.2695	9.86938
1.27	6.94885
1.2705	6.54602
1.271	6.84814
1.2715	6.2439
1.272	6.84814
1.2725	-0.20142
1.273	5.13611
1.2735	2.81982
1.274	-2.21558
1.2745	0
1.275	3.32336
1.2755	1.61133
1.276	4.73328
1.2765	-0.80566
1.277	-3.92761
1.2775	2.41699
1.278	1.3092
1.2785	-1.51062
1.279	2.31628
1.2795	0.80566
1.28	-0.10071
1.2805	-1.2085
1.281	4.12903
1.2815	-1.3092
1.282	-0.20142
1.2825	1.61133
1.283	-0.70496
1.2835	-0.90637
1.284	-0.20142
1.2845	6.74744
1.285	1.51062
1.2855	2.92053
1.286	6.44531
1.2865	5.63965
1.287	10.17151
1.2875	2.41699
1.288	-0.50354
1.2885	4.93469
1.289	-1.40991
1.2895	3.52478
1.29	7.5531
1.2905	4.33044
1.291	2.61841
1.2915	0.40283
1.292	1.40991
1.2925	1.10779
1.293	0
1.2935	-1.00708
1.294	3.62549
1.2945	3.02124
1.295	2.61841
1.2955	-0.90637
1.296	3.92761
1.2965	6.04248
1.297	5.13611
1.2975	5.63965
1.298	3.12195
1.2985	-0.70496
1.299	7.25098
1.2995	2.21558
1.3	3.02124
1.3005	-1.91345
1.301	5.63965
1.3015	7.75452
1.302	7.35168
1.3025	10.27222
1.303	8.56018
1.3035	7.04956
1.304	4.53186
1.3045	5.33752
1.305	7.25098
1.3055	5.84106
1.306	3.32336
1.3065	1.51062
1.307	8.96301
1.3075	7.75452
1.308	7.15027
1.3085	4.33044
1.309	1.61133
1.3095	7.25098
1.31	8.05664
1.3105	4.63257
1.311	2.5177
1.3115	4.93469
1.312	5.53894
1.3125	10.57434
1.313	9.16443
1.3135	10.0708
1.314	4.43115
1.3145	7.04956
1.315	4.22974
1.3155	6.2439
1.316	10.57434
1.3165	10.47363
1.317	7.04956
1.3175	4.22974
1.318	4.22974
1.3185	7.15027
1.319	4.93469
1.3195	7.35168
1.32	9.06372
1.3205	4.53186
1.321	6.54602
1.3215	5.63965
1.322	5.33752
1.3225	2.21558
1.323	4.43115
1.3235	6.2439
1.324	8.15735
1.3245	11.68213
1.325	5.84106
1.3255	10.27222
1.326	13.59558
1.3265	10.17151
1.327	7.35168
1.3275	8.15735
1.328	5.94177
1.3285	8.56018
1.329	12.89062
1.3295	16.21399
1.33	8.96301
1.3305	14.50195
1.331	11.68213
1.3315	10.17151
1.332	13.19275
1.3325	14.30054
1.333	11.78284
1.3335	9.26514
1.334	2.61841
1.3345	5.23682
1.335	10.0708
1.3355	6.3446
1.336	7.5531
1.3365	8.7616
1.337	9.26514
1.3375	10.27222
1.338	12.18567
1.3385	11.48071
1.339	12.89062
1.3395	9.86938
1.34	7.25098
1.3405	4.22974
1.341	9.66797
1.3415	9.97009
1.342	5.13611
1.3425	8.56018
1.343	10.27222
1.3435	8.66089
1.344	6.54602
1.3445	7.5531
1.345	5.13611
1.3455	5.23682
1.346	8.15735
1.3465	13.69629
1.347	7.15027
1.3475	5.94177
1.348	5.84106
1.3485	2.71912
1.349	1.10779
1.3495	1.91345
1.35	5.43823
1.3505	3.7262
1.351	5.23682
1.3515	3.42407
1.352	5.23682
1.3525	4.12903
1.353	-0.40283
1.3535	3.8269
1.354	3.02124
1.3545	2.31628
1.355	-0.10071
1.3555	-1.2085
1.356	3.32336
1.3565	-2.31628
1.357	-1.51062
1.3575	2.21558
1.358	-2.31628
1.3585	2.31628
1.359	5.0354
1.3595	2.31628
1.36	12.38708
1.3605	6.94885
1.361	-3.02124
1.3615	-0.60425
1.362	2.61841
1.3625	0.90637
1.363	3.22266
1.3635	1.61133
1.364	4.43115
1.3645	2.61841
1.365	1.81274
1.3655	5.74036
1.366	5.43823
1.3665	4.12903
1.367	6.64673
1.3675	7.35168
1.368	8.56018
1.3685	6.94885
1.369	4.83398
1.3695	4.33044
1.37	1.91345
1.3705	8.35876
1.371	5.53894
1.3715	9.06372
1.372	9.66797
1.3725	7.5531
1.373	9.97009
1.3735	5.63965
1.374	3.52478
1.3745	3.12195
1.375	4.73328
1.3755	7.65381
1.376	9.36584
1.3765	6.54602
1.377	4.12903
1.3775	5.13611
1.378	2.61841
1.3785	6.64673
1.379	4.02832
1.3795	2.11487
1.38	4.22974
1.3805	7.45239
1.381	8.96301
1.3815	7.25098
1.382	1.00708
1.3825	4.93469
1.383	1.00708
1.3835	4.93469
1.384	10.57434
1.3845	8.05664
1.385	11.78284
1.3855	11.38
1.386	4.53186
1.3865	5.33752
1.387	5.53894
1.3875	0.50354
1.388	-4.02832
1.3885	2.92053
1.389	8.56018
1.3895	7.25098
1.39	7.5531
1.3905	6.94885
1.391	4.43115
1.3915	0.80566
1.392	0.30212
1.3925	6.74744
1.393	7.25098
1.3935	3.8269
1.394	6.3446
1.3945	5.33752
1.395	4.53186
1.3955	0.70496
1.396	4.12903
1.3965	6.14319
1.397	5.43823
1.3975	9.76868
1.398	0.70496
1.3985	1.71204
1.399	5.53894
1.3995	0.80566
1.4	2.71912
1.4005	-0.60425
1.401	2.71912
1.4015	4.33044
1.402	5.13611
1.4025	2.61841
1.403	4.93469
1.4035	-1.91345
1.404	4.43115
1.4045	1.2085
1.405	3.32336
1.4055	5.33752
1.406	6.3446
1.4065	8.15735
1.407	6.94885
1.4075	7.65381
1.408	5.13611
1.4085	4.73328
1.409	2.21558
1.4095	7.35168
1.41	10.87646
1.4105	9.36584
1.411	10.17151
1.4115	12.48779
1.412	12.68921
1.4125	9.66797
1.413	6.64673
1.4135	5.53894
1.414	4.93469
1.4145	7.65381
1.415	3.32336
1.4155	5.43823
1.416	8.05664
1.4165	4.73328
1.417	-2.41699
1.4175	3.52478
1.418	4.83398
1.4185	4.22974
1.419	0.90637
1.4195	0.10071
1.42	0.20142
1.4205	4.43115
1.421	4.33044
1.4215	3.22266
1.422	4.63257
1.4225	10.67505
1.423	9.26514
1.4235	4.53186
1.424	9.66797
1.4245	10.17151
1.425	6.94885
1.4255	4.53186
1.426	8.05664
1.4265	8.15735
1.427	16.11328
1.4275	6.94885
1.428	4.43115
1.4285	11.48071
1.429	10.27222
1.4295	9.06372
1.43	7.35168
1.4305	10.0708
1.431	5.63965
1.4315	5.63965
1.432	7.35168
1.4325	9.26514
1.433	10.57434
1.4335	7.85522
1.434	8.96301
1.4345	9.97009
1.435	11.58142
1.4355	6.94885
1.436	1.00708
1.4365	1.91345
1.437	2.92053
1.4375	11.17859
1.438	8.35876
1.4385	2.11487
1.439	3.62549
1.4395	10.27222
1.44	6.54602
1.4405	7.85522
1.441	11.68213
1.4415	10.27222
1.442	8.05664
1.4425	13.19275
1.443	14.30054
1.4435	10.0708
1.444	12.78992
1.4445	11.17859
1.445	4.02832
1.4455	7.35168
1.446	7.75452
1.4465	10.57434
1.447	11.58142
1.4475	6.94885
1.448	11.48071
1.4485	7.04956
1.449	5.74036
1.4495	7.75452
1.45	8.96301
1.4505	9.46655
1.451	4.63257
1.4515	1.91345
1.452	4.93469
1.4525	5.74036
1.453	3.8269
1.4535	4.63257
1.454	6.54602
1.4545	10.87646
1.455	7.85522
1.4555	-1.81274
1.456	3.02124
1.4565	3.8269
1.457	4.02832
1.4575	5.13611
1.458	6.2439
1.4585	4.22974
1.459	6.84814
1.4595	8.8623
1.46	9.86938
1.4605	1.10779
1.461	1.81274
1.4615	9.46655
1.462	9.16443
1.4625	10.17151
1.463	5.74036
1.4635	6.94885
1.464	6.04248
1.4645	3.32336
1.465	5.33752
1.4655	2.5177
1.466	8.66089
1.4665	3.32336
1.467	5.53894
1.4675	3.32336
1.468	2.21558
1.4685	8.15735
1.469	6.64673
1.4695	6.3446
1.47	6.64673
1.4705	5.53894
1.471	7.5531
1.4715	6.74744
1.472	9.66797
1.4725	7.15027
1.473	2.71912
1.4735	5.0354
1.474	9.46655
1.4745	5.74036
1.475	4.93469
1.4755	5.63965
1.476	1.00708
1.4765	9.76868
1.477	5.13611
1.4775	9.46655
1.478	9.06372
1.4785	5.0354
1.479	5.43823
1.4795	3.02124
1.48	6.04248
1.4805	10.67505
1.481	8.25806
1.4815	7.25098
1.482	9.36584
1.4825	4.33044
1.483	4.73328
1.4835	7.25098
1.484	10.57434
1.4845	8.45947
1.485	5.63965
1.4855	5.33752
1.486	8.35876
1.4865	12.68921
1.487	11.17859
1.4875	9.86938
1.488	12.48779
1.4885	5.33752
1.489	5.63965
1.4895	3.62549
1.49	3.62549
1.4905	0.90637
1.491	7.45239
1.4915	8.7616
1.492	12.38708
1.4925	8.35876
1.493	11.17859
1.4935	8.05664
1.494	9.36584
1.4945	7.65381
1.495	9.86938
1.4955	11.48071
1.496	2.92053
1.4965	7.04956
1.497	6.54602
1.4975	7.85522
1.498	4.93469
1.4985	11.78284
1.499	8.66089
1.4995	11.38
1.5	10.0708
1.5005	5.43823
1.501	4.63257
1.5015	4.63257
1.502	12.68921
1.5025	1.2085
1.503	5.74036
1.5035	11.58142
1.504	0.10071
1.5045	4.22974
1.505	6.3446
1.5055	9.16443
1.506	6.44531
1.5065	3.8269
1.507	6.64673
1.5075	7.25098
1.508	5.23682
1.5085	3.7262
1.509	1.2085
1.5095	6.74744
1.51	4.22974
1.5105	9.26514
1.511	7.25098
1.5115	9.97009
1.512	7.85522
1.5125	3.52478
1.513	8.45947
1.5135	7.35168
1.514	5.94177
1.5145	5.23682
1.515	7.75452
1.5155	-1.51062
1.516	3.8269
1.5165	8.15735
1.517	8.8623
1.5175	6.84814
1.518	5.94177
1.5185	7.04956
1.519	9.16443
1.5195	11.2793
1.52	10.57434
1.5205	4.93469
1.521	5.43823
1.5215	6.54602
1.522	9.86938
1.5225	5.0354
1.523	3.42407
1.5235	7.15027
1.524	10.67505
1.5245	5.63965
1.525	4.73328
1.5255	3.7262
1.526	9.66797
1.5265	6.84814
1.527	5.84106
1.5275	6.74744
1.528	5.13611
1.5285	8.66089
1.529	9.86938
1.5295	10.57434
1.53	8.45947
1.5305	4.33044
1.531	6.04248
1.5315	7.45239
1.532	5.43823
1.5325	4.53186
1.533	4.22974
1.5335	10.0708
1.534	14.80408
1.5345	10.47363
1.535	12.38708
1.5355	9.26514
1.536	11.38
1.5365	3.42407
1.537	6.3446
1.5375	4.43115
1.538	9.66797
1.5385	3.62549
1.539	6.74744
1.5395	5.13611
1.54	6.54602
1.5405	3.42407
1.541	5.23682
1.5415	6.94885
1.542	4.43115
1.5425	8.15735
1.543	9.56726
1.5435	10.67505
1.544	6.84814
1.5445	9.36584
1.545	6.3446
1.5455	5.23682
1.546	6.04248
1.5465	8.35876
1.547	8.05664
1.5475	8.05664
1.548	5.53894
1.5485	8.35876
1.549	5.84106
1.5495	4.63257
1.55	9.66797
1.5505	8.7616
1.551	8.66089
1.5515	7.65381
1.552	9.66797
1.5525	2.61841
1.553	5.63965
1.5535	9.97009
1.554	5.84106
1.5545	6.44531
1.555	5.63965
1.5555	9.06372
1.556	6.14319
1.5565	5.43823
1.557	4.02832
1.5575	0.40283
1.558	4.22974
1.5585	4.43115
1.559	1.61133
1.5595	1.00708
1.56	4.83398
1.5605	2.41699
1.561	2.71912
1.5615	2.21558
1.562	5.33752
1.5625	4.02832
1.563	3.8269
1.5635	5.74036
1.564	4.43115
1.5645	-0.10071
1.565	-0.30212
1.5655	1.2085
1.566	2.41699
1.5665	4.43115
1.567	3.8269
1.5675	3.52478
1.568	9.66797
1.5685	14.30054
1.569	9.66797
1.5695	10.57434
1.57	8.56018
1.5705	5.23682
1.571	7.45239
1.5715	13.29346
1.572	10.47363
1.5725	7.5531
1.573	5.0354
1.5735	10.67505
1.574	8.7616
1.5745	9.36584
1.575	4.73328
1.5755	7.85522
1.576	6.84814
1.5765	5.94177
1.577	14.70337
1.5775	9.16443
1.578	6.14319
1.5785	6.54602
1.579	6.2439
1.5795	4.53186
1.58	8.8623
1.5805	7.04956
1.581	5.0354
1.5815	10.37292
1.582	7.15027
1.5825	4.83398
1.583	12.38708
1.5835	8.66089
1.584	11.17859
1.5845	9.06372
1.585	5.53894
1.5855	7.35168
1.586	8.56018
1.5865	5.63965
1.587	6.94885
1.5875	7.35168
1.588	5.53894
1.5885	4.33044
1.589	6.74744
1.5895	0
1.59	6.74744
1.5905	4.63257
1.591	0.80566
1.5915	5.33752
1.592	1.51062
1.5925	2.81982
1.593	0.20142
1.5935	5.0354
1.594	-0.10071
1.5945	0.60425
1.595	4.63257
1.5955	2.31628
1.596	3.02124
1.5965	-0.40283
1.597	2.21558
1.5975	-0.40283
1.598	-1.61133
1.5985	-4.43115
1.599	-3.62549
1.5995	1.3092
1.6	-0.70496
1.6005	3.02124
1.601	0.60425
1.6015	2.81982
1.602	0.70496
1.6025	0
1.603	3.42407
1.6035	0.60425
1.604	1.3092
1.6045	3.92761
1.605	4.22974
1.6055	4.83398
1.606	5.33752
1.6065	0.10071
1.607	1.71204
1.6075	1.2085
1.608	1.3092
1.6085	3.7262
1.609	3.02124
1.6095	4.53186
1.61	3.52478
1.6105	5.23682
1.611	-1.61133
1.6115	-2.31628
1.612	-2.11487
1.6125	-2.21558
1.613	2.31628
1.6135	1.2085
1.614	1.51062
1.6145	0.30212
1.615	3.32336
1.6155	1.10779
1.616	3.42407
1.6165	-0.40283
1.617	0.40283
1.6175	0.40283
1.618	1.40991
1.6185	1.2085
1.619	-0.80566
1.6195	-0.70496
1.62	4.22974
1.6205	3.52478
1.621	3.52478
1.6215	3.12195
1.622	3.52478
1.6225	-0.30212
1.623	3.02124
1.6235	4.63257
1.624	-0.50354
1.6245	4.22974
1.625	0.70496
1.6255	0.50354
1.626	5.94177
1.6265	4.93469
1.627	6.3446
1.6275	4.93469
1.628	3.12195
1.6285	3.52478
1.629	5.43823
1.6295	4.53186
1.63	2.61841
1.6305	7.75452
1.631	-0.10071
1.6315	1.10779
1.632	2.01416
1.6325	6.2439
1.633	-0.10071
1.6335	7.75452
1.634	8.15735
1.6345	7.95593
1.635	5.84106
1.6355	8.05664
1.636	9.06372
1.6365	8.56018
1.637	3.92761
1.6375	4.73328
1.638	5.94177
1.6385	5.84106
1.639	4.22974
1.6395	10.37292
1.64	9.46655
1.6405	4.73328
1.641	3.7262
1.6415	3.8269
1.642	6.84814
1.6425	7.95593
1.643	5.63965
1.6435	6.2439
1.644	0.20142
1.6445	4.12903
1.645	8.45947
1.6455	11.78284
1.646	7.25098
1.6465	3.52478
1.647	11.38
1.6475	12.18567
1.648	6.54602
1.6485	9.46655
1.649	12.38708
1.6495	10.47363
1.65	7.04956
1.6505	4.22974
1.651	4.53186
1.6515	8.96301
1.652	6.74744
1.6525	1.40991
1.653	5.33752
1.6535	7.15027
1.654	2.5177
1.6545	9.26514
1.655	4.43115
1.6555	7.35168
1.656	5.84106
1.6565	12.78992
1.657	6.44531
1.6575	5.33752
1.658	3.52478
1.6585	5.74036
1.659	2.92053
1.6595	5.43823
1.66	8.25806
1.6605	9.46655
1.661	8.96301
1.6615	4.93469
1.662	3.92761
1.6625	3.22266
1.663	5.84106
1.6635	3.92761
1.664	7.85522
1.6645	6.04248
1.665	4.22974
1.6655	-0.10071
1.666	2.11487
1.6665	2.92053
1.667	6.74744
1.6675	4.93469
1.668	-1.10779
1.6685	-0.30212
1.669	3.12195
1.6695	5.13611
1.67	-3.7262
1.6705	1.3092
1.671	0.40283
1.6715	-2.5177
1.672	-0.30212
1.6725	3.22266
1.673	1.40991
1.6735	-0.20142
1.674	1.10779
1.6745	3.32336
1.675	0.30212
1.6755	2.41699
1.676	4.83398
1.6765	0.30212
1.677	0.10071
1.6775	0
1.678	1.61133
1.6785	-1.81274
1.679	-3.22266
1.6795	-6.04248
1.68	0.20142
1.6805	-2.31628
1.681	-3.22266
1.6815	-2.5177
1.682	0
1.6825	-1.10779
1.683	-1.3092
1.6835	-4.53186
1.684	-3.7262
1.6845	-2.81982
1.685	0
1.6855	2.21558
1.686	0.60425
1.6865	-1.00708
1.687	0.60425
1.6875	1.10779
1.688	4.02832
1.6885	-0.30212
1.689	0.70496
1.6895	1.3092
1.69	4.22974
1.6905	1.3092
1.691	4.22974
1.6915	3.22266
1.692	7.04956
1.6925	8.25806
1.693	12.78992
1.6935	3.52478
1.694	5.94177
1.6945	0.80566
1.695	5.84106
1.6955	2.01416
1.696	8.05664
1.6965	4.73328
1.697	9.86938
1.6975	6.94885
1.698	5.94177
1.6985	4.33044
1.699	2.31628
1.6995	9.66797
1.7	5.23682
1.7005	10.0708
1.701	7.04956
1.7015	7.5531
1.702	9.16443
1.7025	6.94885
1.703	7.35168
1.7035	10.77576
1.704	10.77576
1.7045	5.63965
1.705	4.33044
1.7055	4.63257
1.706	8.7616
1.7065	10.67505
1.707	9.46655
1.7075	11.98425
1.708	12.48779
1.7085	5.94177
1.709	9.26514
1.7095	5.13611
1.71	8.35876
1.7105	7.25098
1.711	10.67505
1.7115	7.35168
1.712	8.45947
1.7125	7.5531
1.713	7.65381
1.7135	9.16443
1.714	5.23682
1.7145	6.74744
1.715	8.05664
1.7155	7.25098
1.716	10.57434
1.7165	9.26514
1.717	9.86938
1.7175	10.87646
1.718	13.49487
1.7185	13.39417
1.719	11.17859
1.7195	12.78992
1.72	12.78992
1.7205	13.19275
1.721	3.62549
1.7215	6.74744
1.722	7.25098
1.7225	8.05664
1.723	4.43115
1.7235	11.78284
1.724	6.74744
1.7245	10.57434
1.725	3.12195
1.7255	3.92761
1.726	12.08496
1.7265	8.35876
1.727	8.8623
1.7275	8.7616
1.728	7.5531
1.7285	7.15027
1.729	3.32336
1.7295	2.21558
1.73	5.53894
1.7305	6.74744
1.731	3.42407
1.7315	3.22266
1.732	4.63257
1.7325	7.35168
1.733	0.10071
1.7335	5.13611
1.734	2.71912
1.7345	4.33044
1.735	6.54602
1.7355	5.23682
1.736	8.05664
1.7365	13.69629
1.737	5.74036
1.7375	8.05664
1.738	8.66089
1.7385	8.45947
1.739	4.83398
1.7395	6.84814
1.74	10.0708
1.7405	9.66797
1.741	8.25806
1.7415	12.89062
1.742	15.00549
1.7425	12.48779
1.743	9.36584
1.7435	6.74744
1.744	7.35168
1.7445	3.42407
1.745	3.7262
1.7455	7.15027
1.746	8.96301
1.7465	4.02832
1.747	4.73328
1.7475	4.22974
1.748	3.8269
1.7485	7.5531
1.749	4.63257
1.7495	4.02832
1.75	4.93469
1.7505	3.7262
1.751	1.91345
1.7515	0.30212
1.752	2.71912
1.7525	1.40991
1.753	1.51062
1.7535	-0.70496
1.754	0.40283
1.7545	3.32336
1.755	5.0354
1.7555	0.30212
1.756	1.51062
1.7565	0.80566
1.757	0.70496
1.7575	6.3446
1.758	4.83398
1.7585	3.92761
1.759	3.02124
1.7595	3.7262
1.76	7.95593
1.7605	7.15027
1.761	6.94885
1.7615	10.27222
1.762	7.75452
1.7625	8.35876
1.763	10.27222
1.7635	4.63257
1.764	8.05664
1.7645	10.97717
1.765	14.09912
1.7655	11.07788
1.766	7.85522
1.7665	12.78992
1.767	4.63257
1.7675	9.06372
1.768	5.74036
1.7685	7.75452
1.769	7.25098
1.7695	8.56018
1.77	8.35876
1.7705	11.78284
1.771	6.84814
1.7715	11.07788
1.772	5.94177
1.7725	5.94177
1.773	10.87646
1.7735	11.98425
1.774	14.30054
1.7745	9.66797
1.775	5.94177
1.7755	10.47363
1.776	11.2793
1.7765	14.50195
1.777	9.06372
1.7775	11.17859
1.778	7.5531
1.7785	4.43115
1.779	6.04248
1.7795	8.66089
1.78	12.48779
1.7805	4.83398
1.781	8.56018
1.7815	10.37292
1.782	12.78992
1.7825	7.04956
1.783	4.02832
1.7835	8.66089
1.784	7.95593
1.7845	6.54602
1.785	3.42407
1.7855	7.35168
1.786	4.22974
1.7865	6.54602
1.787	7.75452
1.7875	6.74744
1.788	6.74744
1.7885	6.44531
1.789	6.74744
1.7895	7.95593
1.79	10.57434
1.7905	9.06372
1.791	0.90637
1.7915	3.8269
1.792	4.02832
1.7925	-0.60425
1.793	8.05664
1.7935	5.84106
1.794	10.17151
1.7945	6.54602
1.795	9.26514
1.7955	2.71912
1.796	3.02124
1.7965	9.16443
1.797	9.16443
1.7975	5.94177
1.798	7.65381
1.7985	2.5177
1.799	4.22974
1.7995	4.63257
1.8	3.32336
1.8005	6.44531
1.801	3.8269
1.8015	4.33044
1.802	1.51062
1.8025	4.53186
1.803	5.43823
1.8035	2.92053
1.804	10.47363
1.8045	8.15735
1.805	6.14319
1.8055	6.94885
1.806	5.43823
1.8065	11.07788
1.807	9.97009
1.8075	9.76868
1.808	8.35876
1.8085	5.53894
1.809	8.66089
1.8095	6.64673
1.81	5.63965
1.8105	8.56018
1.811	6.64673
1.8115	8.05664
1.812	10.0708
1.8125	1.40991
1.813	1.00708
1.8135	4.53186
1.814	8.45947
1.8145	2.11487
1.815	2.81982
1.8155	2.5177
1.816	6.04248
1.8165	4.33044
1.817	0.80566
1.8175	-3.92761
1.818	4.22974
1.8185	1.61133
1.819	5.94177
1.8195	6.3446
1.82	7.15027
1.8205	3.42407
1.821	4.33044
1.8215	5.84106
1.822	0.40283
1.8225	0.50354
1.823	5.94177
1.8235	7.15027
1.824	7.85522
1.8245	5.94177
1.825	8.45947
1.8255	7.75452
1.826	10.27222
1.8265	8.66089
1.827	6.84814
1.8275	3.62549
1.828	9.97009
1.8285	6.84814
1.829	4.02832
1.8295	9.36584
1.83	7.25098
1.8305	7.85522
1.831	5.84106
1.8315	11.38
1.832	4.93469
1.8325	8.7616
1.833	11.68213
1.8335	12.78992
1.834	7.75452
1.8345	7.15027
1.835	7.15027
1.8355	1.51062
1.836	3.7262
1.8365	3.62549
1.837	5.94177
1.8375	2.41699
1.838	1.10779
1.8385	1.71204
1.839	6.74744
1.8395	6.3446
1.84	0.50354
1.8405	3.8269
1.841	4.63257
1.8415	2.01416
1.842	2.61841
1.8425	5.74036
1.843	5.74036
1.8435	3.52478
1.844	6.3446
1.8445	8.35876
1.845	7.35168
1.8455	11.07788
1.846	9.06372
1.8465	9.66797
1.847	7.04956
1.8475	3.32336
1.848	5.63965
1.8485	6.04248
1.849	7.25098
1.8495	5.53894
1.85	7.75452
1.8505	7.15027
1.851	6.64673
1.8515	5.63965
1.852	3.42407
1.8525	5.43823
1.853	6.94885
1.8535	5.33752
1.854	4.93469
1.8545	3.92761
1.855	0.80566
1.8555	0.50354
1.856	4.43115
1.8565	3.7262
1.857	7.35168
1.8575	7.25098
1.858	4.63257
1.8585	7.35168
1.859	5.33752
1.8595	11.2793
1.86	10.17151
1.8605	4.33044
1.861	2.31628
1.8615	6.2439
1.862	-0.60425
1.8625	12.38708
1.863	11.88354
1.8635	2.81982
1.864	7.65381
1.8645	4.22974
1.865	5.0354
1.8655	3.02124
1.866	0.90637
1.8665	-0.70496
1.867	1.71204
1.8675	3.8269
1.868	6.74744
1.8685	-0.80566
1.869	4.63257
1.8695	0.30212
1.87	3.62549
1.8705	2.31628
1.871	2.61841
1.8715	4.93469
1.872	6.14319
1.8725	0
1.873	2.31628
1.8735	2.41699
1.874	3.12195
1.8745	0.90637
1.875	6.64673
1.8755	9.06372
1.876	4.73328
1.8765	3.7262
1.877	2.01416
1.8775	5.23682
1.878	7.25098
1.8785	6.94885
1.879	6.44531
1.8795	9.16443
1.88	6.44531
1.8805	0.50354
1.881	3.42407
1.8815	10.77576
1.882	10.97717
1.8825	6.44531
1.883	4.12903
1.8835	9.36584
1.884	6.14319
1.8845	6.2439
1.885	8.66089
1.8855	5.74036
1.886	7.25098
1.8865	1.40991
1.887	7.45239
1.8875	9.16443
1.888	6.74744
1.8885	9.86938
1.889	5.33752
1.8895	5.33752
1.89	2.31628
1.8905	2.31628
1.891	4.83398
1.8915	1.00708
1.892	-3.7262
1.8925	0.20142
1.893	4.02832
1.8935	5.84106
1.894	1.61133
1.8945	2.61841
1.895	-1.91345
1.8955	-0.60425
1.896	5.13611
1.8965	4.43115
1.897	3.02124
1.8975	4.33044
1.898	1.00708
1.8985	3.62549
1.899	6.3446
1.8995	7.15027
1.9	7.95593
1.9005	5.0354
1.901	0.60425
1.9015	8.15735
1.902	9.06372
1.9025	11.68213
1.903	11.48071
1.9035	11.07788
1.904	10.67505
1.9045	11.07788
1.905	10.97717
1.9055	10.97717
1.906	7.65381
1.9065	7.75452
1.907	3.32336
1.9075	2.21558
1.908	13.39417
1.9085	7.75452
1.909	12.38708
1.9095	8.7616
1.91	1.71204
1.9105	1.61133
1.911	5.13611
1.9115	9.97009
1.912	4.53186
1.9125	5.53894
1.913	1.10779
1.9135	0.10071
1.914	5.74036
1.9145	8.56018
1.915	6.74744
1.9155	5.84106
1.916	7.15027
1.9165	2.92053
1.917	7.85522
1.9175	5.43823
1.918	4.53186
1.9185	6.04248
1.919	10.97717
1.9195	3.92761
1.92	6.14319
1.9205	2.61841
1.921	2.41699
1.9215	4.12903
1.922	1.10779
1.9225	-0.10071
1.923	2.11487
1.9235	-1.91345
1.924	3.22266
1.9245	7.15027
1.925	3.12195
1.9255	0.90637
1.926	-0.10071
1.9265	-0.80566
1.927	-0.30212
1.9275	-0.20142
1.928	3.62549
1.9285	-1.10779
1.929	1.2085
1.9295	-2.01416
1.93	-1.71204
1.9305	-1.2085
1.931	-1.10779
1.9315	3.02124
1.932	7.04956
1.9325	2.01416
1.933	6.84814
1.9335	2.5177
1.934	4.33044
1.9345	7.75452
1.935	9.86938
1.9355	5.63965
1.936	4.63257
1.9365	4.12903
1.937	5.63965
1.9375	5.94177
1.938	1.10779
1.9385	5.53894
1.939	5.53894
1.9395	0.40283
1.94	-1.71204
1.9405	5.23682
1.941	5.13611
1.9415	4.22974
1.942	5.23682
1.9425	3.02124
1.943	1.51062
1.9435	0.70496
1.944	5.84106
1.9445	6.94885
1.945	12.38708
1.9455	9.26514
1.946	3.52478
1.9465	4.02832
1.947	8.56018
1.9475	1.91345
1.948	7.25098
1.9485	9.56726
1.949	11.88354
1.9495	4.12903
1.95	7.45239
1.9505	7.35168
1.951	3.52478
1.9515	4.73328
1.952	5.33752
1.9525	4.93469
1.953	6.04248
1.9535	9.16443
1.954	3.92761
1.9545	3.7262
1.955	5.0354
1.9555	1.40991
1.956	0.50354
1.9565	1.61133
1.957	4.73328
1.9575	2.5177
1.958	6.3446
1.9585	5.13611
1.959	2.71912
1.9595	5.63965
1.96	2.5177
1.9605	6.84814
1.961	9.66797
1.9615	5.63965
1.962	5.13611
1.9625	6.44531
1.963	5.84106
1.9635	2.21558
1.964	4.93469
1.9645	6.04248
1.965	5.43823
1.9655	6.3446
1.966	7.45239
1.9665	8.45947
1.967	7.65381
1.9675	7.5531
1.968	8.7616
1.9685	7.35168
1.969	8.05664
1.9695	6.2439
1.97	2.92053
1.9705	3.8269
1.971	6.64673
1.9715	9.16443
1.972	9.56726
1.9725	7.04956
1.973	6.54602
1.9735	9.36584
1.974	6.3446
1.9745	7.85522
1.975	6.74744
1.9755	2.21558
1.976	3.32336
1.9765	1.81274
1.977	-0.90637
1.9775	0.60425
1.978	3.92761
1.9785	-0.70496
1.979	-4.02832
1.9795	-1.3092
1.98	3.22266
1.9805	7.75452
1.981	2.41699
1.9815	7.35168
1.982	4.02832
1.9825	0.90637
1.983	7.5531
1.9835	4.33044
1.984	3.7262
1.9845	12.78992
1.985	10.27222
1.9855	7.04956
1.986	7.5531
1.9865	0.60425
1.987	5.33752
1.9875	5.63965
1.988	6.2439
1.9885	4.93469
1.989	5.13611
1.9895	5.94177
1.99	5.84106
1.9905	4.12903
1.991	2.92053
1.9915	6.2439
1.992	6.2439
1.9925	4.73328
1.993	7.95593
1.9935	4.73328
1.994	3.52478
1.9945	6.64673
1.995	3.42407
1.9955	2.31628
1.996	3.62549
1.9965	0.40283
1.997	5.53894
1.9975	5.0354
1.998	4.12903
1.9985	0.80566
1.999	0.60425
1.9995	3.32336
2	7.95593
2.0005	5.53894
2.001	2.92053
2.0015	4.12903
2.002	2.61841
2.0025	8.96301
2.003	7.85522
2.0035	8.35876
2.004	10.27222
2.0045	6.64673
2.005	10.0708
2.0055	7.95593
2.006	5.23682
2.0065	9.06372
2.007	12.18567
2.0075	10.87646
2.008	9.76868
2.0085	11.68213
2.009	9.86938
2.0095	12.68921
2.01	11.48071
2.0105	9.06372
2.011	9.76868
2.0115	11.38
2.012	11.48071
2.0125	10.97717
2.013	10.87646
2.0135	6.84814
2.014	7.15027
2.0145	9.26514
2.015	6.3446
2.0155	8.15735
2.016	12.48779
2.0165	13.797
2.017	10.77576
2.0175	11.07788
2.018	16.51611
2.0185	17.01965
2.019	15.50903
2.0195	13.49487
2.02	15.40833
2.0205	17.82532
2.021	13.89771
2.0215	13.59558
2.022	16.91895
2.0225	15.1062
2.023	12.48779
2.0235	18.02673
2.024	15.20691
2.0245	10.97717
2.025	13.69629
2.0255	20.74585
2.026	17.42249
2.0265	11.88354
2.027	9.36584
2.0275	8.05664
2.028	6.64673
2.0285	3.92761
2.029	6.44531
2.0295	5.74036
2.03	5.43823
2.0305	9.76868
2.031	14.80408
2.0315	17.22107
2.032	10.37292
2.0325	13.69629
2.033	11.48071
2.0335	11.58142
2.034	9.36584
2.0345	7.85522
2.035	11.68213
2.0355	10.67505
2.036	20.1416
2.0365	19.33594
2.037	17.72461
2.0375	19.83948
2.038	17.82532
2.0385	19.13452
2.039	20.64514
2.0395	17.12036
2.04	17.32178
2.0405	14.60266
2.041	12.48779
2.0415	8.96301
2.042	-0.80566
2.0425	-6.2439
2.043	-17.6239
2.0435	-28.19824
2.044	-36.05347
2.0445	-41.18958
2.045	-41.4917
2.0455	-36.05347
2.046	-36.65771
2.0465	-28.29895
2.047	-28.9032
2.0475	-24.37134
2.048	-19.13452
2.0485	-15.50903
2.049	-18.93311
2.0495	-13.19275
2.05	-12.38708
2.0505	-13.59558
2.051	-7.85522
2.0515	-12.28638
2.052	-16.51611
2.0525	-8.05664
2.053	-5.0354
2.0535	-8.96301
2.054	-7.95593
2.0545	-6.54602
2.055	-1.10779
2.0555	-6.2439
2.056	-0.10071
2.0565	-4.63257
2.057	-0.50354
2.0575	0.10071
2.058	-4.53186
2.0585	1.2085
2.059	4.53186
2.0595	2.92053
2.06	5.23682
2.0605	11.2793
2.061	3.32336
2.0615	7.75452
2.062	7.95593
2.0625	4.93469
2.063	10.0708
2.0635	13.09204
2.064	12.08496
2.0645	11.58142
2.065	8.96301
2.0655	8.56018
2.066	12.68921
2.0665	21.75293
2.067	40.68604
2.0675	61.43188
2.068	84.59473
2.0685	99.70093
2.069	120.84961
2.0695	139.78271
2.07	158.5144
2.0705	180.16663
2.071	194.36646
2.0715	206.45142
2.072	217.32788
2.0725	202.22168
2.073	184.79919
2.0735	171.50574
2.074	139.78271
2.0745	106.14624
2.075	68.17932
2.0755	22.45789
2.076	-9.97009
2.0765	-49.74976
2.077	-78.45154
2.0775	-99.3988
2.078	-120.54749
2.0785	-130.8197
2.079	-132.12891
2.0795	-147.53723
2.08	-149.04785
2.0805	-143.10608
2.081	-140.8905
2.0815	-138.47351
2.082	-128.60413
2.0825	-122.36023
2.083	-104.03137
2.0835	-93.65845
2.084	-83.08411
2.0845	-73.61755
2.085	-69.89136
2.0855	-58.00781
2.086	-48.13843
2.0865	-37.16125
2.087	-23.46497
2.0875	-8.56018
2.088	-2.81982
2.0885	-5.13611
2.089	2.61841
2.0895	4.63257
2.09	1.40991
2.0905	7.15027
2.091	6.64673
2.0915	-5.94177
2.092	-7.75452
2.0925	-12.5885
2.093	-10.37292
2.0935	-11.17859
2.094	-12.5885
2.0945	-14.40125
2.095	-19.13452
2.0955	-17.22107
2.096	-13.797
2.0965	-12.08496
2.097	-9.66797
2.0975	-5.43823
2.098	-5.33752
2.0985	-3.12195
2.099	0.10071
2.0995	-3.32336
2.1	0
2.1005	-4.53186
2.101	-3.62549
2.1015	-7.5531
2.102	-2.21558
2.1025	-4.93469
2.103	-4.53186
2.1035	-2.5177
2.104	-0.50354
2.1045	-1.40991
2.105	7.5531
2.1055	24.16992
2.106	44.41223
2.1065	67.77649
2.107	82.17773
2.1075	100.90942
2.108	122.05811
2.1085	147.1344
2.109	159.32007
2.1095	163.85193
2.11	171.80786
2.1105	172.41211
2.111	174.92981
2.1115	162.54272
2.112	148.04077
2.1125	125.98572
2.113	104.73633
2.1135	76.84021
2.114	45.11719
2.1145	23.46497
2.115	-10.0708
2.1155	-29.20532
2.116	-52.26746
2.1165	-64.85596
2.117	-74.02039
2.1175	-82.07703
2.118	-75.83313
2.1185	-72.81189
2.119	-62.53967
2.1195	-49.34692
2.12	-45.72144
2.1205	-44.11011
2.121	-36.55701
2.1215	-27.39258
2.122	-12.5885
2.1225	-5.53894
2.123	-0.70496
2.1235	2.5177
2.124	4.02832
2.1245	4.53186
2.125	2.81982
2.1255	1.40991
2.126	-5.33752
2.1265	-13.29346
2.127	-22.45789
2.1275	-31.4209
2.128	-43.90869
2.1285	-49.85046
2.129	-50.55542
2.1295	-59.1156
2.13	-69.48853
2.1305	-74.72534
2.131	-67.37366
2.1315	-71.40198
2.132	-64.85596
2.1325	-60.52551
2.133	-39.67896
2.1335	-26.28479
2.134	-16.81824
2.1345	-1.10779
2.135	6.54602
2.1355	12.08496
2.136	18.42957
2.1365	42.09595
2.137	73.31543
2.1375	84.39331
2.138	106.04553
2.1385	119.4397
2.139	138.07068
2.1395	149.6521
2.14	161.13281
2.1405	161.53564
2.141	151.56555
2.1415	139.17847
2.142	118.93616
2.1425	93.15491
2.143	69.08569
2.1435	27.59399
2.144	-2.81982
2.1445	-31.92444
2.145	-49.95117
2.1455	-75.63171
2.146	-93.25562
2.1465	-96.57898
2.147	-105.23987
2.1475	-111.18164
2.148	-111.78589
2.1485	-110.07385
2.149	-110.17456
2.1495	-112.39014
2.15	-111.08093
2.1505	-106.8512
2.151	-103.42712
2.1515	-99.80164
2.152	-94.16199
2.1525	-83.28552
2.153	-69.89136
2.1535	-64.05029
2.154	-53.97949
2.1545	-41.79382
2.155	-30.11169
2.1555	-21.55151
2.156	-9.66797
2.1565	-5.53894
2.157	5.43823
2.1575	11.38
2.158	14.60266
2.1585	21.14868
2.159	23.36426
2.1595	16.91895
2.16	13.69629
2.1605	13.19275
2.161	6.3446
2.1615	2.92053
2.162	-2.21558
2.1625	-5.13611
2.163	-0.70496
2.1635	1.40991
2.164	11.68213
2.1645	23.36426
2.165	31.82373
2.1655	37.36267
2.166	46.42639
2.1665	50.65613
2.167	50.2533
2.1675	55.08728
2.168	59.92126
2.1685	70.99915
2.169	74.52393
2.1695	79.45862
2.17	76.53809
2.1705	72.81189
2.171	72.20764
2.1715	64.55383
2.172	57.9071
2.1725	45.52002
2.173	37.26196
2.1735	29.10461
2.174	34.84497
2.1745	33.53577
2.175	23.76709
2.1755	13.69629
2.176	14.19983
2.1765	-3.92761
2.177	-9.46655
2.1775	-11.2793
2.178	-21.04797
2.1785	-34.54285
2.179	-38.974
2.1795	-34.44214
2.18	-32.02515
2.1805	-16.51611
2.181	13.797
2.1815	41.79382
2.182	83.99048
2.1825	118.02979
2.183	144.31458
2.1835	154.38538
2.184	165.56396
2.1845	168.38379
2.185	155.39246
2.1855	131.82678
2.186	109.97314
2.1865	78.85437
2.187	42.8009
2.1875	3.32336
2.188	-28.50037
2.1885	-51.86462
2.189	-71.09985
2.1895	-79.66003
2.19	-71.60339
2.1905	-60.12268
2.191	-37.06055
2.1915	-7.95593
2.192	15.40833
2.1925	36.25488
2.193	40.58533
2.1935	51.05896
2.194	51.66321
2.1945	63.74817
2.195	69.99207
2.1955	79.86145
2.196	78.04871
2.1965	74.72534
2.197	49.44763
2.1975	16.81824
2.198	-24.37134
2.1985	-55.89294
2.199	-94.66553
2.1995	-127.19421
2.2	-153.57971
2.2005	-184.79919
2.201	-195.27283
2.2015	-216.62292
2.202	-220.14771
2.2025	-210.47974
2.203	-186.61194
2.2035	-166.0675
2.204	-145.12024
2.2045	-114.70642
2.205	-86.70959
2.2055	-58.81348
2.206	-24.97559
2.2065	2.61841
2.207	29.91028
2.2075	39.77966
2.208	39.77966
2.2085	42.8009
2.209	33.83789
2.2095	27.09045
2.21	21.45081
2.2105	13.69629
2.211	0.50354
2.2115	-13.39417
2.212	-23.06213
2.2125	-28.60107
2.213	-37.16125
2.2135	-36.25488
2.214	-36.35559
2.2145	-37.86621
2.215	-36.15417
2.2155	-26.58691
2.216	-18.63098
2.2165	0.10071
2.217	11.98425
2.2175	29.70886
2.218	47.93701
2.2185	69.48853
2.219	88.0188
2.2195	98.0896
2.22	116.922
2.2205	130.21545
2.221	150.9613
2.2215	157.10449
2.222	170.19653
2.2225	176.74255
2.223	185.10132
2.2235	181.87866
2.224	166.0675
2.2245	148.04077
2.225	127.99988
2.2255	91.94641
2.226	51.5625
2.2265	7.95593
2.227	-35.75134
2.2275	-66.76941
2.228	-97.48535
2.2285	-121.65527
2.229	-134.64661
2.2295	-139.37988
2.23	-150.45776
2.2305	-144.31458
2.231	-133.23669
2.2315	-123.16589
2.232	-117.62695
2.2325	-103.52783
2.233	-87.71667
2.2335	-84.79614
2.234	-78.04871
2.2345	-60.22339
2.235	-44.11011
2.2355	-28.39966
2.236	-15.40833
2.2365	-1.81274
2.237	14.60266
2.2375	26.78833
2.238	47.8363
2.2385	63.44604
2.239	69.38782
2.2395	82.07703
2.24	84.89685
2.2405	81.37207
2.241	69.89136
2.2415	66.87012
2.242	50.95825
2.2425	45.72144
2.243	30.81665
2.2435	19.13452
2.244	15.30762
2.2445	3.7262
2.245	4.02832
2.2455	31.32019
2.246	75.32959
2.2465	98.79456
2.247	122.56165
2.2475	149.75281
2.248	176.13831
2.2485	196.1792
2.249	201.11389
2.2495	202.02026
2.25	206.95496
2.2505	186.81335
2.251	168.08167
2.2515	127.39563
2.252	85.5011
2.2525	40.58533
2.253	-10.97717
2.2535	-47.93701
2.254	-84.99756
2.2545	-104.13208
2.255	-120.14465
2.2555	-131.52466
2.256	-132.93457
2.2565	-130.92041
2.257	-123.77014
2.2575	-117.12341
2.258	-107.05261
2.2585	-93.65845
2.259	-81.27136
2.2595	-70.29419
2.26	-52.67029
2.2605	-38.26904
2.261	-40.08179
2.2615	-51.15967
2.262	-59.92126
2.2625	-68.88428
2.263	-72.61047
2.2635	-82.9834
2.264	-88.11951
2.2645	-83.18481
2.265	-86.50818
2.2655	-79.15649
2.266	-63.24463
2.2665	-45.3186
2.267	-29.30603
2.2675	-18.02673
2.268	1.2085
2.2685	15.40833
2.269	28.19824
2.2695	39.17542
2.27	44.71436
2.2705	51.36108
2.271	50.15259
2.2715	56.39648
2.272	49.64905
2.2725	44.0094
2.273	32.52869
2.2735	27.6947
2.274	22.45789
2.2745	12.18567
2.275	7.95593
2.2755	2.31628
2.276	-9.46655
2.2765	-10.57434
2.277	-14.09912
2.2775	-20.94727
2.278	-16.51611
2.2785	-13.99841
2.279	-10.37292
2.2795	-9.66797
2.28	0.70496
2.2805	11.17859
2.281	9.26514
2.2815	9.56726
2.282	18.22815
2.2825	25.47913
2.283	33.23364
2.2835	32.62939
2.284	30.11169
2.2845	30.11169
2.285	34.14001
2.2855	39.07471
2.286	46.12427
2.2865	50.75684
2.287	52.67029
2.2875	59.1156
2.288	70.69702
2.2885	80.26428
2.289	75.4303
2.2895	66.6687
2.29	63.04321
2.2905	45.72144
2.291	31.21948
2.2915	14.09912
2.292	9.56726
2.2925	-1.81274
2.293	-15.91187
2.2935	-35.44922
2.294	-49.85046
2.2945	-60.02197
2.295	-71.50269
2.2955	-75.12817
2.296	-66.56799
2.2965	-64.65454
2.297	-57.40356
2.2975	-47.13135
2.298	-36.25488
2.2985	-28.9032
2.299	-20.84656
2.2995	-9.16443
2.3	-4.73328
2.3005	-0.20142
2.301	12.89062
2.3015	28.9032
2.302	34.03931
2.3025	35.34851
2.303	39.88037
2.3035	48.84338
2.304	64.75525
2.3045	71.90552
2.305	75.22888
2.3055	77.74658
2.306	81.67419
2.3065	80.26428
2.307	73.71826
2.3075	63.44604
2.308	51.15967
2.3085	27.79541
2.309	16.81824
2.3095	-1.00708
2.31	-22.76001
2.3105	-37.96692
2.311	-65.25879
2.3115	-75.53101
2.312	-87.81738
2.3125	-89.73083
2.313	-96.17615
2.3135	-100.6073
2.314	-96.8811
2.3145	-91.04004
2.315	-77.34375
2.3155	-72.20764
2.316	-65.15808
2.3165	-54.78516
2.317	-45.72144
2.3175	-36.95984
2.318	-27.09045
2.3185	-19.83948
2.319	-13.59558
2.3195	-5.0354
2.32	3.12195
2.3205	8.15735
2.321	4.12903
2.3215	14.50195
2.322	22.35718
2.3225	25.37842
2.323	26.68762
2.3235	23.26355
2.324	22.15576
2.3245	24.47205
2.325	22.55859
2.3255	24.27063
2.326	25.98267
2.3265	22.45789
2.327	21.85364
2.3275	21.75293
2.328	14.80408
2.3285	15.30762
2.329	13.89771
2.3295	16.01257
2.33	16.51611
2.3305	16.21399
2.331	7.75452
2.3315	7.85522
2.332	17.32178
2.3325	25.78125
2.333	35.04639
2.3335	39.67896
2.334	36.35559
2.3345	35.95276
2.335	33.83789
2.3355	31.52161
2.336	23.16284
2.3365	21.65222
2.337	23.06213
2.3375	16.61682
2.338	19.83948
2.3385	27.39258
2.339	32.83081
2.3395	32.32727
2.34	35.95276
2.3405	39.07471
2.341	42.8009
2.3415	35.54993
2.342	27.19116
2.3425	20.24231
2.343	15.50903
2.3435	9.16443
2.344	9.97009
2.3445	20.84656
2.345	23.76709
2.3455	21.55151
2.346	16.11328
2.3465	10.0708
2.347	4.93469
2.3475	2.21558
2.348	8.7616
2.3485	5.94177
2.349	16.01257
2.3495	9.06372
2.35	8.7616
2.3505	4.93469
2.351	3.8269
2.3515	5.13611
2.352	13.797
2.3525	11.78284
2.353	9.06372
2.3535	7.25098
2.354	4.33044
2.3545	-2.41699
2.355	-1.00708
2.3555	-7.45239
2.356	-3.42407
2.3565	-0.40283
2.357	-3.62549
2.3575	-4.93469
2.358	0.90637
2.3585	-2.01416
2.359	-0.40283
2.3595	-3.02124
2.36	1.40991
2.3605	1.2085
2.361	-0.30212
2.3615	4.43115
2.362	2.81982
2.3625	2.71912
2.363	0
2.3635	-1.51062
2.364	-3.8269
2.3645	-3.92761
2.365	-6.94885
2.3655	-7.25098
2.366	-7.75452
2.3665	-6.54602
2.367	1.00708
2.3675	-0.20142
2.368	3.52478
2.3685	1.61133
2.369	5.13611
2.3695	9.86938
2.37	15.30762
2.3705	12.48779
2.371	14.09912
2.3715	11.88354
2.372	13.39417
2.3725	15.30762
2.373	19.33594
2.3735	18.12744
2.374	12.5885
2.3745	18.22815
2.375	17.82532
2.3755	14.80408
2.376	16.51611
2.3765	9.16443
2.377	11.07788
2.3775	1.81274
2.378	8.45947
2.3785	22.35718
2.379	22.45789
2.3795	18.53027
2.38	20.74585
2.3805	17.12036
2.381	20.54443
2.3815	19.33594
2.382	15.91187
2.3825	12.18567
2.383	9.76868
2.3835	5.74036
2.384	3.52478
2.3845	3.32336
2.385	5.53894
2.3855	14.09912
2.386	21.04797
2.3865	21.14868
2.387	26.18408
2.3875	26.68762
2.388	33.13293
2.3885	36.25488
2.389	35.44922
2.3895	33.9386
2.39	29.91028
2.3905	18.02673
2.391	1.2085
2.3915	0.70496
2.392	-9.06372
2.3925	-14.19983
2.393	-20.1416
2.3935	-20.94727
2.394	-18.42957
2.3945	-18.93311
2.395	-17.92603
2.3955	-16.11328
2.396	-12.99133
2.3965	-8.8623
2.397	-2.92053
2.3975	2.41699
2.398	0.10071
2.3985	10.77576
2.399	6.94885
2.3995	8.05664
2.4	10.77576
2.4005	4.53186
2.401	3.8269
2.4015	5.53894
2.402	2.31628
2.4025	6.54602
2.403	-0.70496
2.4035	-8.96301
2.404	-15.40833
2.4045	-6.84814
2.405	-8.66089
2.4055	1.2085
2.406	4.53186
2.4065	6.54602
2.407	8.05664
2.4075	6.14319
2.408	18.53027
2.4085	19.73877
2.409	33.63647
2.4095	53.47595
2.41	77.44446
2.4105	79.86145
2.411	87.51526
2.4115	99.09668
2.412	107.65686
2.4125	91.44287
2.413	65.76233
2.4135	50.15259
2.414	25.47913
2.4145	5.63965
2.415	-14.50195
2.4155	-30.91736
2.416	-46.82922
2.4165	-54.68445
2.417	-65.66162
2.4175	-64.65454
2.418	-59.92126
2.4185	-57.50427
2.419	-52.06604
2.4195	-42.59949
2.42	-26.18408
2.4205	-10.37292
2.421	-4.33044
2.4215	10.37292
2.422	25.07629
2.4225	15.20691
2.423	10.87646
2.4235	11.68213
2.424	8.7616
2.4245	2.5177
2.425	3.22266
2.4255	-8.56018
2.426	-7.95593
2.4265	-7.5531
2.427	-14.40125
2.4275	-9.66797
2.428	-0.70496
2.4285	25.98267
2.429	39.37683
2.4295	45.72144
2.43	48.54126
2.4305	52.771
2.431	48.03772
2.4315	38.77258
2.432	29.10461
2.4325	30.31311
2.433	16.11328
2.4335	10.17151
2.434	3.02124
2.4345	-2.81982
2.435	-13.89771
2.4355	-24.37134
2.436	-24.87488
2.4365	-21.55151
2.437	-26.28479
2.4375	-22.45789
2.438	-15.71045
2.4385	-7.75452
2.439	9.36584
2.4395	21.75293
2.44	35.95276
2.4405	41.18958
2.441	38.57117
2.4415	36.15417
2.442	33.13293
2.4425	35.2478
2.443	27.79541
2.4435	21.14868
2.444	26.88904
2.4445	27.29187
2.445	43.70728
2.4455	79.35791
2.446	103.42712
2.4465	108.26111
2.447	99.3988
2.4475	72.71118
2.448	47.93701
2.4485	24.47205
2.449	10.27222
2.4495	5.74036
2.45	-5.74036
2.4505	-17.72461
2.451	2.01416
2.4515	32.22656
2.452	38.87329
2.4525	30.81665
2.453	12.18567
2.4535	-14.09912
2.454	-42.19666
2.4545	-59.71985
2.455	-72.71118
2.4555	-86.8103
2.456	-79.96216
2.4565	-69.48853
2.457	-63.84888
2.4575	-65.46021
2.458	-57.10144
2.4585	-53.37524
2.459	-49.64905
2.4595	-53.27454
2.46	-58.91418
2.4605	-62.43896
2.461	-56.19507
2.4615	-47.43347
2.462	-41.99524
2.4625	-34.84497
2.463	-25.07629
2.4635	-21.95435
2.464	1.3092
2.4645	21.14868
2.465	43.40515
2.4655	45.82214
2.466	46.42639
2.4665	45.62073
2.467	35.04639
2.4675	25.37842
2.468	12.08496
2.4685	16.3147
2.469	8.05664
2.4695	1.91345
2.47	5.74036
2.4705	7.95593
2.471	15.71045
2.4715	10.77576
2.472	8.35876
2.4725	7.5531
2.473	9.66797
2.4735	5.53894
2.474	-0.10071
2.4745	-10.0708
2.475	-3.02124
2.4755	-6.74744
2.476	-7.5531
2.4765	-7.5531
2.477	-4.43115
2.4775	-8.56018
2.478	-1.2085
2.4785	1.40991
2.479	5.53894
2.4795	5.43823
2.48	10.67505
2.4805	9.76868
2.481	18.63098
2.4815	20.84656
2.482	23.16284
2.4825	19.73877
2.483	2.71912
2.4835	-2.41699
2.484	-10.37292
2.4845	-23.36426
2.485	-27.6947
2.4855	-42.19666
2.486	-42.59949
2.4865	-52.16675
2.487	-49.34692
2.4875	-44.61365
2.488	-43.80798
2.4885	-33.73718
2.489	-28.39966
2.4895	-16.81824
2.49	-11.17859
2.4905	0.20142
2.491	22.15576
2.4915	33.73718
2.492	39.37683
2.4925	37.66479
2.493	33.13293
2.4935	30.91736
2.494	43.30444
2.4945	57.10144
2.495	67.67578
2.4955	71.20056
2.496	80.36499
2.4965	76.7395
2.497	74.92676
2.4975	70.09277
2.498	60.3241
2.4985	44.81506
2.499	35.65063
2.4995	22.55859
2.5	8.8623
2.5005	-5.23682
2.501	-9.56726
2.5015	-12.89062
2.502	-4.12903
2.5025	-3.32336
2.503	4.93469
2.5035	6.44531
2.504	2.5177
2.5045	12.18567
2.505	13.49487
2.5055	17.72461
2.506	21.14868
2.5065	23.56567
2.507	53.97949
2.5075	95.87402
2.508	123.46802
2.5085	132.73315
2.509	120.84961
2.5095	98.59314
2.51	60.02197
2.5105	18.02673
2.511	-9.06372
2.5115	-37.06055
2.512	-67.67578
2.5125	-78.35083
2.513	-71.90552
2.5135	-79.66003
2.514	-90.43579
2.5145	-99.09668
2.515	-102.52075
2.5155	-93.0542
2.516	-81.37207
2.5165	-52.26746
2.517	-18.73169
2.5175	-7.85522
2.518	3.8269
2.5185	-0.80566
2.519	-7.25098
2.5195	-19.23523
2.52	-27.09045
2.5205	-32.83081
2.521	-35.75134
2.5215	-45.3186
2.522	-47.33276
2.5225	-34.54285
2.523	-20.54443
2.5235	-12.78992
2.524	-6.94885
2.5245	-11.88354
2.525	-2.21558
2.5255	19.94019
2.526	39.27612
2.5265	45.82214
2.527	57.70569
2.5275	52.97241
2.528	54.78516
2.5285	49.64905
2.529	51.76392
2.5295	55.59082
2.53	75.02747
2.5305	86.70959
2.531	82.9834
2.5315	89.02588
2.532	94.2627
2.5325	81.87561
2.533	57.00073
2.5335	32.22656
2.534	-4.53186
2.5345	-35.34851
2.535	-52.771
2.5355	-76.03455
2.536	-86.70959
2.5365	-96.8811
2.537	-102.11792
2.5375	-104.63562
2.538	-96.7804
2.5385	-84.99756
2.539	-72.00623
2.5395	-19.73877
2.54	27.6947
2.5405	63.04321
2.541	82.78198
2.5415	99.3988
2.542	93.85986
2.5425	85.60181
2.543	62.9425
2.5435	45.52002
2.544	23.66638
2.5445	8.25806
2.545	-0.90637
2.5455	5.33752
2.546	8.8623
2.5465	2.71912
2.547	1.10779
2.5475	-3.92761
2.548	-5.13611
2.5485	-8.8623
2.549	-1.3092
2.5495	-3.42407
2.55	-10.37292
2.5505	-10.97717
2.551	-9.26514
2.5515	-17.6239
2.552	-12.99133
2.5525	-15.81116
2.553	-22.25647
2.5535	-30.11169
2.554	-36.75842
2.5545	-35.04639
2.555	-37.06055
2.5555	-39.88037
2.556	-39.17542
2.5565	-34.54285
2.557	-25.98267
2.5575	-24.87488
2.558	-5.94177
2.5585	-5.43823
2.559	4.53186
2.5595	14.60266
2.56	21.95435
2.5605	24.97559
2.561	32.62939
2.5615	32.12585
2.562	26.3855
2.5625	35.95276
2.563	37.16125
2.5635	30.71594
2.564	27.79541
2.5645	27.59399
2.565	28.39966
2.5655	26.78833
2.566	23.16284
2.5665	19.23523
2.567	17.32178
2.5675	24.87488
2.568	17.92603
2.5685	11.68213
2.569	9.06372
2.5695	0.30212
2.57	0.20142
2.5705	10.57434
2.571	12.38708
2.5715	4.02832
2.572	0.60425
2.5725	0
2.573	15.1062
2.5735	47.13135
2.574	60.4248
2.5745	72.30835
2.575	91.34216
2.5755	94.46411
2.576	90.73792
2.5765	72.00623
2.577	66.56799
2.5775	68.17932
2.578	85.70251
2.5785	120.7489
2.579	119.13757
2.5795	99.19739
2.58	76.03455
2.5805	38.36975
2.581	-0.30212
2.5815	-24.16992
2.582	-37.16125
2.5825	-49.24622
2.583	-62.9425
2.5835	-77.04163
2.584	-80.4657
2.5845	-69.08569
2.585	-72.61047
2.5855	-69.1864
2.586	-74.62463
2.5865	-69.68994
2.587	-68.38074
2.5875	-69.89136
2.588	-65.56091
2.5885	-69.38782
2.589	-75.63171
2.5895	-77.54517
2.59	-82.58057
2.5905	-80.06287
2.591	-77.74658
2.5915	-74.12109
2.592	-64.35242
2.5925	-63.04321
2.593	-50.05188
2.5935	-37.06055
2.594	-16.81824
2.5945	23.56567
2.595	59.01489
2.5955	69.79065
2.596	72.71118
2.5965	65.05737
2.597	59.92126
2.5975	39.17542
2.598	17.32178
2.5985	7.75452
2.599	24.87488
2.5995	34.84497
2.6	32.7301
2.6005	27.6947
2.601	13.99841
2.6015	-0.80566
2.602	-5.33752
2.6025	-9.46655
2.603	-11.78284
2.6035	-15.81116
2.604	-12.28638
2.6045	-17.82532
2.605	-16.81824
2.6055	-9.46655
2.606	-0.50354
2.6065	3.7262
2.607	8.35876
2.6075	18.73169
2.608	32.83081
2.6085	41.39099
2.609	38.67188
2.6095	24.57275
2.61	22.05505
2.6105	6.84814
2.611	4.53186
2.6115	3.8269
2.612	-3.32336
2.6125	-0.70496
2.613	-9.26514
2.6135	-15.00549
2.614	-12.48779
2.6145	-7.25098
2.615	-1.71204
2.6155	2.41699
2.616	14.50195
2.6165	20.44373
2.617	30.01099
2.6175	32.52869
2.618	39.07471
2.6185	39.37683
2.619	30.81665
2.6195	27.99683
2.62	46.92993
2.6205	60.12268
2.621	54.0802
2.6215	45.52002
2.622	41.39099
2.6225	45.41931
2.623	39.17542
2.6235	32.22656
2.624	29.60815
2.6245	23.76709
2.625	9.06372
2.6255	2.5177
2.626	4.33044
2.6265	-5.53894
2.627	-3.22266
2.6275	2.31628
2.628	4.53186
2.6285	-5.0354
2.629	-7.95593
2.6295	-22.96143
2.63	-32.62939
2.6305	-37.36267
2.631	-47.93701
2.6315	-55.79224
2.632	-53.87878
2.6325	-53.87878
2.633	-45.41931
2.6335	-41.59241
2.634	-35.85205
2.6345	-34.03931
2.635	-26.58691
2.6355	-15.50903
2.636	-12.18567
2.6365	-0.50354
2.637	7.85522
2.6375	11.38
2.638	14.80408
2.6385	17.92603
2.639	24.77417
2.6395	23.66638
2.64	24.47205
2.6405	18.22815
2.641	16.21399
2.6415	14.60266
2.642	14.80408
2.6425	13.59558
2.643	13.19275
2.6435	13.39417
2.644	11.88354
2.6445	18.8324
2.645	18.02673
2.6455	23.26355
2.646	26.48621
2.6465	18.53027
2.647	20.1416
2.6475	19.63806
2.648	14.60266
2.6485	17.22107
2.649	13.69629
2.6495	15.60974
2.65	13.797
2.6505	9.06372
2.651	15.71045
2.6515	15.40833
2.652	16.11328
2.6525	15.81116
2.653	14.60266
2.6535	15.60974
2.654	8.7616
2.6545	12.08496
2.655	7.35168
2.6555	9.97009
2.656	8.15735
2.6565	10.97717
2.657	11.38
2.6575	17.22107
2.658	12.5885
2.6585	13.89771
2.659	14.90479
2.6595	5.94177
2.66	13.49487
2.6605	8.8623
2.661	8.7616
2.6615	10.37292
2.662	5.43823
2.6625	6.74744
2.663	7.15027
2.6635	7.25098
2.664	4.63257
2.6645	11.48071
2.665	10.37292
2.6655	9.06372
2.666	9.86938
2.6665	11.88354
2.667	15.1062
2.6675	9.56726
2.668	5.13611
2.6685	13.99841
2.669	25.68054
2.6695	36.85913
2.67	46.92993
2.6705	59.01489
2.671	61.23047
2.6715	62.9425
2.672	67.67578
2.6725	65.96375
2.673	73.31543
2.6735	78.75366
2.674	74.52393
2.6745	61.23047
2.675	40.48462
2.6755	15.00549
2.676	-7.35168
2.6765	-0.80566
2.677	13.39417
2.6775	12.68921
2.678	2.11487
2.6785	-8.96301
2.679	-23.26355
2.6795	-36.35559
2.68	-43.20374
2.6805	-55.08728
2.681	-62.03613
2.6815	-56.49719
2.682	-56.19507
2.6825	-51.26038
2.683	-40.58533
2.6835	-36.15417
2.684	-25.78125
2.6845	-4.73328
2.685	30.31311
2.6855	51.36108
2.686	59.01489
2.6865	52.67029
2.687	41.39099
2.6875	27.09045
2.688	11.98425
2.6885	-5.33752
2.689	-13.49487
2.6895	-12.28638
2.69	-17.42249
2.6905	-23.06213
2.691	-24.47205
2.6915	-4.02832
2.692	8.56018
2.6925	19.23523
2.693	22.45789
2.6935	33.53577
2.694	13.29346
2.6945	-1.61133
2.695	-16.81824
2.6955	-2.31628
2.696	23.56567
2.6965	35.14709
2.697	28.9032
2.6975	25.98267
2.698	18.22815
2.6985	-2.11487
2.699	-8.7616
2.6995	-15.60974
2.7	-23.66638
2.7005	-25.47913
2.701	-21.95435
2.7015	-16.71753
2.702	-23.36426
2.7025	-22.96143
2.703	-16.01257
2.7035	2.92053
2.704	18.22815
2.7045	17.12036
2.705	-5.74036
2.7055	-15.1062
2.706	-8.56018
2.7065	5.74036
2.707	11.38
2.7075	2.11487
2.708	-9.16443
2.7085	-12.68921
2.709	-6.54602
2.7095	1.10779
2.71	17.12036
2.7105	13.49487
2.711	-3.62549
2.7115	-22.96143
2.712	-43.40515
2.7125	-54.28162
2.713	-64.05029
2.7135	-71.80481
2.714	-73.21472
2.7145	-64.25171
2.715	-45.92285
2.7155	-38.06763
2.716	-18.02673
2.7165	12.48779
2.717	42.90161
2.7175	65.25879
2.718	70.89844
2.7185	80.16357
2.719	86.8103
2.7195	80.96924
2.72	67.8772
2.7205	49.64905
2.721	33.43506
2.7215	22.45789
2.722	7.95593
2.7225	-9.06372
2.723	-4.33044
2.7235	8.35876
2.724	2.71912
2.7245	-5.94177
2.725	-13.19275
2.7255	-20.84656
2.726	-44.31152
2.7265	-73.21472
2.727	-97.68677
2.7275	-84.69543
2.728	-82.07703
2.7285	-66.36658
2.729	-60.02197
2.7295	-44.11011
2.73	-33.13293
2.7305	-18.53027
2.731	-2.41699
2.7315	9.97009
2.732	30.11169
2.7325	66.16516
2.733	101.61438
2.7335	146.42944
2.734	211.2854
2.7345	246.5332
2.735	245.12329
2.7355	224.57886
2.736	188.02185
2.7365	161.93848
2.737	132.33032
2.7375	106.64978
2.738	77.54517
2.7385	41.4917
2.739	4.22974
2.7395	-27.6947
2.74	-62.53967
2.7405	-81.17065
2.741	-94.96765
2.7415	-101.9165
2.742	-103.93066
2.7425	-107.45544
2.743	-101.61438
2.7435	-94.3634
2.744	-77.04163
2.7445	-65.66162
2.745	-56.49719
2.7455	-41.29028
2.746	-32.93152
2.7465	-31.11877
2.747	-22.05505
2.7475	-21.55151
2.748	-22.15576
2.7485	-20.84656
2.749	-13.99841
2.7495	42.59949
2.75	116.11633
2.7505	192.15088
2.751	245.72754
2.7515	261.23657
2.752	262.54578
2.7525	236.56311
2.753	192.15088
2.7535	130.01404
2.754	68.78357
2.7545	6.44531
2.755	-53.07312
2.7555	-92.95349
2.756	-127.69775
2.7565	-151.66626
2.757	-159.42078
2.7575	-165.9668
2.758	-172.51282
2.7585	-165.36255
2.759	-146.83228
2.7595	-117.62695
2.76	-101.01013
2.7605	-88.11951
2.761	-63.74817
2.7615	-36.15417
2.762	0.70496
2.7625	27.09045
2.763	44.31152
2.7635	71.40198
2.764	85.90393
2.7645	94.76624
2.765	96.27686
2.7655	96.57898
2.766	84.69543
2.7665	76.43738
2.767	72.50977
2.7675	55.79224
2.768	43.00232
2.7685	29.00391
2.769	9.97009
2.7695	-8.05664
2.77	-27.29187
2.7705	-46.62781
2.771	-65.46021
2.7715	-74.32251
2.772	-82.58057
2.7725	-91.94641
2.773	-97.68677
2.7735	-109.77173
2.774	-118.53333
2.7745	-122.25952
2.775	-109.97314
2.7755	-105.6427
2.776	-89.22729
2.7765	-75.22888
2.777	-57.70569
2.7775	-36.85913
2.778	-23.16284
2.7785	-29.91028
2.779	-25.47913
2.7795	-25.57983
2.78	-16.11328
2.7805	-4.22974
2.781	6.84814
2.7815	25.88196
2.782	37.66479
2.7825	39.67896
2.783	56.90002
2.7835	88.42163
2.784	107.25403
2.7845	109.67102
2.785	90.73792
2.7855	69.79065
2.786	44.61365
2.7865	25.78125
2.787	13.797
2.7875	22.35718
2.788	32.32727
2.7885	44.11011
2.789	50.05188
2.7895	53.57666
2.79	51.5625
2.7905	39.07471
2.791	24.27063
2.7915	27.19116
2.792	28.19824
2.7925	24.77417
2.793	8.8623
2.7935	-8.56018
2.794	-24.87488
2.7945	-36.75842
2.795	-46.22498
2.7955	-56.79932
2.796	-48.33984
2.7965	-37.66479
2.797	-34.24072
2.7975	-31.62231
2.798	-25.98267
2.7985	-14.60266
2.799	15.91187
2.7995	27.99683
2.8	35.95276
2.8005	31.62231
2.801	11.68213
2.8015	-10.67505
2.802	-12.78992
2.8025	1.2085
2.803	18.8324
2.8035	20.84656
2.804	18.63098
2.8045	9.86938
2.805	12.38708
2.8055	34.24072
2.806	119.13757
2.8065	196.88416
2.807	239.78577
2.8075	262.24365
2.808	250.2594
2.8085	214.10522
2.809	169.29016
2.8095	114.70642
2.81	62.8418
2.8105	21.95435
2.811	-18.8324
2.8115	-52.36816
2.812	-61.33118
2.8125	-68.48145
2.813	-74.92676
2.8135	-85.60181
2.814	-91.94641
2.8145	-88.32092
2.815	-81.06995
2.8155	-81.37207
2.816	-86.50818
2.8165	-82.47986
2.817	-76.94092
2.8175	-79.55933
2.818	-81.87561
2.8185	-76.7395
2.819	-75.73242
2.8195	-69.1864
2.82	-65.56091
2.8205	-43.20374
2.821	-26.28479
2.8215	11.58142
2.822	39.67896
2.8225	54.38232
2.823	57.60498
2.8235	61.73401
2.824	57.20215
2.8245	64.45312
2.825	79.76074
2.8255	78.04871
2.826	58.41064
2.8265	37.7655
2.827	17.12036
2.8275	6.64673
2.828	-22.45789
2.8285	-37.86621
2.829	-61.6333
2.8295	-79.45862
2.83	-102.82288
2.8305	-110.57739
2.831	-145.22095
2.8315	-169.08875
2.832	-177.95105
2.8325	-180.36804
2.833	-155.9967
2.8335	-115.20996
2.834	-67.8772
2.8345	-30.51453
2.835	-0.20142
2.8355	23.46497
2.836	49.54834
2.8365	50.45471
2.837	55.89294
2.8375	54.58374
2.838	57.20215
2.8385	50.15259
2.839	43.80798
2.8395	41.79382
2.84	64.95667
2.8405	99.80164
2.841	132.22961
2.8415	154.18396
2.842	160.9314
2.8425	150.35706
2.843	130.11475
2.8435	95.26978
2.844	65.15808
2.8445	28.50037
2.845	-2.81982
2.8455	-18.32886
2.846	-34.34143
2.8465	-41.08887
2.847	-43.50586
2.8475	-39.27612
2.848	-32.22656
2.8485	-27.6947
2.849	-13.09204
2.8495	-9.97009
2.85	-3.32336
2.8505	-2.92053
2.851	-5.0354
2.8515	-2.81982
2.852	13.19275
2.8525	37.06055
2.853	39.37683
2.8535	31.82373
2.854	21.75293
2.8545	13.99841
2.855	4.22974
2.8555	-3.7262
2.856	-4.63257
2.8565	-18.53027
2.857	-20.74585
2.8575	-20.24231
2.858	-27.79541
2.8585	-20.74585
2.859	-18.93311
2.8595	-1.91345
2.86	-1.91345
2.8605	-0.10071
2.861	4.22974
2.8615	-0.20142
2.862	3.7262
2.8625	3.02124
2.863	10.27222
2.8635	9.56726
2.864	12.28638
2.8645	17.01965
2.865	19.63806
2.8655	13.99841
2.866	12.89062
2.8665	12.18567
2.867	10.67505
2.8675	7.95593
2.868	12.99133
2.8685	11.58142
2.869	3.7262
2.8695	2.92053
2.87	5.0354
2.8705	2.41699
2.871	6.64673
2.8715	11.2793
2.872	14.80408
2.8725	13.89771
2.873	8.96301
2.8735	9.86938
2.874	29.50745
2.8745	61.53259
2.875	104.53491
2.8755	139.17847
2.876	173.82202
2.8765	202.82593
2.877	215.0116
2.8775	209.67407
2.878	197.89124
2.8785	171.80786
2.879	131.42395
2.8795	101.31226
2.88	103.32642
2.8805	93.96057
2.881	85.09827
2.8815	98.99597
2.882	116.922
2.8825	118.93616
2.883	84.69543
2.8835	36.4563
2.884	-14.60266
2.8845	-64.25171
2.885	-84.99756
2.8855	-115.10925
2.886	-144.21387
2.8865	-169.08875
2.887	-195.27283
2.8875	-169.69299
2.888	-158.11157
2.8885	-186.51123
2.889	-219.84558
2.8895	-247.13745
2.89	-258.51746
2.8905	-243.71338
2.891	-207.35779
2.8915	-129.40979
2.892	-44.61365
2.8925	22.6593
2.893	82.47986
2.8935	123.97156
2.894	167.88025
2.8945	212.29248
2.895	232.53479
2.8955	227.19727
2.896	193.46008
2.8965	152.97546
2.897	111.58447
2.8975	68.78357
2.898	22.45789
2.8985	-23.96851
2.899	-62.43896
2.8995	-96.98181
2.9	-119.13757
2.9005	-137.26501
2.901	-150.35706
2.9015	-151.06201
2.902	-137.76855
2.9025	-136.96289
2.903	-130.8197
2.9035	-121.15173
2.904	-113.80005
2.9045	-104.83704
2.905	-88.22021
2.9055	-71.60339
2.906	-61.43188
2.9065	-53.07312
2.907	-42.19666
2.9075	-35.85205
2.908	-21.24939
2.9085	-7.15027
2.909	-7.15027
2.9095	7.04956
2.91	14.60266
2.9105	18.02673
2.911	23.46497
2.9115	27.29187
2.912	28.39966
2.9125	34.74426
2.913	32.52869
2.9135	31.11877
2.914	24.97559
2.9145	26.18408
2.915	24.97559
2.9155	29.40674
2.916	28.50037
2.9165	30.11169
2.917	38.47046
2.9175	59.51843
2.918	57.30286
2.9185	49.64905
2.919	38.36975
2.9195	25.37842
2.92	15.60974
2.9205	5.23682
2.921	1.40991
2.9215	11.17859
2.922	36.4563
2.9225	65.76233
2.923	74.02039
2.9235	42.29736
2.924	39.88037
2.9245	83.08411
2.925	194.46716
2.9255	293.36243
2.926	324.17908
2.9265	293.76526
2.927	225.0824
2.9275	158.31299
2.928	85.80322
2.9285	19.03381
2.929	-16.11328
2.9295	-23.76709
2.93	-19.33594
2.9305	-39.98108
2.931	-59.51843
2.9315	-73.91968
2.932	-86.50818
2.9325	-95.16907
2.933	-106.75049
2.9335	-119.4397
2.934	-133.3374
2.9345	-133.74023
2.935	-111.08093
2.9355	-48.74268
2.936	-1.00708
2.9365	44.31152
2.937	130.31616
2.9375	202.62451
2.938	239.18152
2.9385	235.85815
2.939	229.91638
2.9395	214.81018
2.94	181.57654
2.9405	138.87634
2.941	88.32092
2.9415	23.16284
2.942	-26.78833
2.9425	-83.38623
2.943	-136.05652
2.9435	-186.20911
2.944	-231.62842
2.9445	-252.97852
2.945	-277.34985
2.9455	-288.83057
2.946	-281.17676
2.9465	-249.45374
2.947	-215.31372
2.9475	-185.30273
2.948	-169.08875
2.9485	-161.73706
2.949	-146.93298
2.9495	-125.58289
2.95	-46.62781
2.9505	54.48303
2.951	100.00305
2.9515	111.8866
2.952	114.80713
2.9525	97.88818
2.953	74.62463
2.9535	38.57117
2.954	18.42957
2.9545	5.13611
2.955	-7.04956
2.9555	-4.33044
2.956	11.17859
2.9565	19.13452
2.957	16.51611
2.9575	64.55383
2.958	164.7583
2.9585	276.6449
2.959	334.45129
2.9595	326.9989
2.96	281.07605
2.9605	203.93372
2.961	132.43103
2.9615	79.2572
2.962	19.73877
2.9625	-21.24939
2.963	-75.83313
2.9635	-90.43579
2.964	-98.89526
2.9645	-125.88501
2.965	-158.21228
2.9655	-184.09424
2.966	-197.28699
2.9665	-200.0061
2.967	-201.51672
2.9675	-210.37903
2.968	-212.39319
2.9685	-216.01868
2.969	-204.43726
2.9695	-176.94397
2.97	-134.74731
2.9705	-84.59473
2.971	-29.40674
2.9715	17.01965
2.972	28.80249
2.9725	23.56567
2.973	11.07788
2.9735	15.60974
2.974	16.41541
2.9745	30.61523
2.975	39.37683
2.9755	48.44055
2.976	55.89294
2.9765	67.27295
2.977	73.11401
2.9775	71.60339
2.978	73.51685
2.9785	67.47437
2.979	68.38074
2.9795	65.05737
2.98	63.84888
2.9805	60.02197
2.981	61.33118
2.9815	50.45471
2.982	46.92993
2.9825	42.7002
2.983	32.93152
2.9835	17.12036
2.984	-8.8623
2.9845	-20.74585
2.985	-32.62939
2.9855	-40.38391
2.986	-49.74976
2.9865	-60.02197
2.987	-58.10852
2.9875	-54.0802
2.988	-49.14551
2.9885	-40.68604
2.989	-46.82922
2.9895	-39.67896
2.99	-46.02356
2.9905	-65.86304
2.991	-91.54358
2.9915	-96.98181
2.992	-103.93066
2.9925	-102.31934
2.993	-95.06836
2.9935	-69.79065
2.994	-37.16125
2.9945	-3.7262
2.995	24.57275
2.9955	45.52002
2.996	73.81897
2.9965	103.62854
2.997	121.35315
2.9975	135.45227
2.998	139.98413
2.9985	136.76147
2.999	138.27209
2.9995	137.16431
3	137.86926
3.0005	128.60413
3.001	109.57031
3.0015	90.83862
3.002	64.95667
3.0025	50.05188
3.003	34.64355
3.0035	32.93152
3.004	27.49329
3.0045	27.09045
3.005	22.86072
3.0055	18.93311
3.006	27.59399
3.0065	31.11877
3.007	41.69312
3.0075	49.34692
3.008	47.43347
3.0085	47.8363
3.009	43.40515
3.0095	38.67188
3.01	44.91577
3.0105	56.69861
3.011	59.71985
3.0115	66.26587
3.012	69.68994
3.0125	85.19897
3.013	114.10217
3.0135	126.79138
3.014	176.23901
3.0145	251.36719
3.015	308.36792
3.0155	374.93591
3.016	384.40247
3.0165	366.67786
3.017	323.47412
3.0175	254.58984
3.018	163.34839
3.0185	68.28003
3.019	-19.94019
3.0195	-80.36499
3.02	-90.5365
3.0205	-95.77332
3.021	-108.1604
3.0215	-120.95032
3.022	-141.89758
3.0225	-173.72131
3.023	-186.61194
3.0235	-192.55371
3.024	-191.64734
3.0245	-188.92822
3.025	-178.35388
3.0255	-165.76538
3.026	-135.04944
3.0265	-102.01721
3.027	-95.47119
3.0275	-101.01013
3.028	-94.66553
3.0285	-84.09119
3.029	-106.44836
3.0295	-118.83545
3.03	-128.302
3.0305	-133.23669
3.031	-132.53174
3.0315	-135.04944
3.032	-131.52466
3.0325	-125.7843
3.033	-107.15332
3.0335	-91.04004
3.034	-72.20764
3.0345	-53.97949
3.035	-39.17542
3.0355	-15.00549
3.036	-5.84106
3.0365	5.63965
3.037	13.69629
3.0375	9.66797
3.038	7.65381
3.0385	-2.21558
3.039	-1.81274
3.0395	-5.33752
3.04	-8.56018
3.0405	-9.16443
3.041	-14.80408
3.0415	-26.78833
3.042	-65.96375
3.0425	-103.52783
3.043	-112.59155
3.0435	-109.4696
3.044	-70.59631
3.0445	-57.50427
3.045	-32.32727
3.0455	-1.2085
3.046	37.86621
3.0465	95.77332
3.047	130.61829
3.0475	152.77405
3.048	147.73865
3.0485	127.49634
3.049	103.32642
3.0495	95.67261
3.05	96.57898
3.0505	104.4342
3.051	95.5719
3.0515	79.86145
3.052	61.6333
3.0525	28.19824
3.053	17.12036
3.0535	43.20374
3.054	100.00305
3.0545	183.89282
3.055	254.99268
3.0555	312.19482
3.056	341.40015
3.0565	353.58582
3.057	324.58191
3.0575	258.41675
3.058	184.59778
3.0585	101.8158
3.059	17.52319
3.0595	-58.00781
3.06	-125.98572
3.0605	-153.479
3.061	-171.90857
3.0615	-185.10132
3.062	-204.53796
3.0625	-211.08398
3.063	-206.65283
3.0635	-204.84009
3.064	-187.71973
3.0645	-166.97388
3.065	-93.85986
3.0655	13.19275
3.066	93.65845
3.0665	214.00452
3.067	357.41272
3.0675	411.99646
3.068	427.80762
3.0685	401.52283
3.069	333.34351
3.0695	260.53162
3.07	157.30591
3.0705	67.8772
3.071	-32.32727
3.0715	-95.5719
3.072	-150.65918
3.0725	-202.02026
3.073	-209.67407
3.0735	-217.02576
3.074	-226.89514
3.0745	-235.35461
3.075	-228.30505
3.0755	-225.68665
3.076	-229.81567
3.0765	-216.22009
3.077	-210.68115
3.0775	-207.86133
3.078	-219.94629
3.0785	-226.08948
3.079	-228.10364
3.0795	-228.60718
3.08	-213.90381
3.0805	-190.23743
3.081	-149.34998
3.0815	-104.13208
3.082	-66.36658
3.0825	-21.14868
3.083	-4.73328
3.0835	1.81274
3.084	0
3.0845	-1.2085
3.085	-2.21558
3.0855	-2.5177
3.086	1.3092
3.0865	5.43823
3.087	9.66797
3.0875	21.55151
3.088	26.98975
3.0885	31.52161
3.089	34.64355
3.0895	33.73718
3.09	34.74426
3.0905	33.63647
3.091	32.12585
3.0915	27.49329
3.092	19.83948
3.0925	6.54602
3.093	2.71912
3.0935	-10.87646
3.094	-2.71912
3.0945	0
3.095	2.11487
3.0955	-8.15735
3.096	-10.97717
3.0965	-20.64514
3.097	-27.49329
3.0975	-13.09204
3.098	-14.19983
3.0985	-21.75293
3.099	-25.177
3.0995	-12.38708
3.1	-6.84814
3.1005	-0.90637
3.101	-11.78284
3.1015	-60.52551
3.102	-126.79138
3.1025	-161.93848
3.103	-179.56238
3.1035	-159.52148
3.104	-119.03687
3.1045	-73.81897
3.105	-12.68921
3.1055	42.49878
3.106	87.11243
3.1065	118.93616
3.107	132.0282
3.1075	141.79688
3.108	151.06201
3.1085	147.73865
3.109	150.9613
3.1095	153.57971
3.11	160.02502
3.1105	149.34998
3.111	146.32874
3.1115	136.35864
3.112	118.33191
3.1125	120.34607
3.113	104.23279
3.1135	90.5365
3.114	64.55383
3.1145	17.12036
3.115	-12.99133
3.1155	-31.52161
3.116	-35.54993
3.1165	-25.78125
3.117	-18.53027
3.1175	-2.71912
3.118	10.47363
3.1185	18.42957
3.119	13.09204
3.1195	-2.61841
3.12	-36.05347
3.1205	-48.84338
3.121	-50.05188
3.1215	-36.15417
3.122	-26.68762
3.1225	-21.95435
3.123	-37.96692
3.1235	-37.7655
3.124	-33.03223
3.1245	-28.29895
3.125	-22.55859
3.1255	-23.36426
3.126	-31.72302
3.1265	-39.17542
3.127	-52.46887
3.1275	-65.66162
3.128	-38.47046
3.1285	-16.41541
3.129	7.45239
3.1295	0.40283
3.13	-0.50354
3.1305	16.81824
3.131	31.32019
3.1315	52.26746
3.132	54.98657
3.1325	54.48303
3.133	45.62073
3.1335	36.75842
3.134	32.7301
3.1345	34.24072
3.135	7.65381
3.1355	-9.06372
3.136	-12.99133
3.1365	8.7616
3.137	29.00391
3.1375	53.87878
3.138	83.28552
3.1385	74.82605
3.139	67.27295
3.1395	75.22888
3.14	88.82446
3.1405	97.58606
3.141	92.85278
3.1415	83.48694
3.142	60.92834
3.1425	38.974
3.143	70.99915
3.1435	165.36255
3.144	250.56152
3.1445	286.21216
3.145	306.15234
3.1455	304.3396
3.146	285.40649
3.1465	244.82117
3.147	123.87085
3.1475	18.02673
3.148	-58.81348
3.1485	-140.28625
3.149	-209.47266
3.1495	-265.26489
3.15	-305.14526
3.1505	-318.43872
3.151	-318.74084
3.1515	-298.59924
3.152	-272.81799
3.1525	-263.55286
3.153	-240.28931
3.1535	-192.85583
3.154	-138.07068
3.1545	-92.24854
3.155	-52.06604
3.1555	2.5177
3.156	45.92285
3.1565	63.14392
3.157	80.36499
3.1575	101.71509
3.158	110.6781
3.1585	96.67969
3.159	98.59314
3.1595	97.28394
3.16	79.96216
3.1605	59.51843
3.161	51.5625
3.1615	49.24622
3.162	44.41223
3.1625	39.57825
3.163	29.40674
3.1635	22.45789
3.164	5.84106
3.1645	-11.38
3.165	-29.70886
3.1655	-33.63647
3.166	-62.8418
3.1665	-78.75366
3.167	-106.64978
3.1675	-116.61987
3.168	-125.07935
3.1685	-96.8811
3.169	-63.84888
3.1695	-32.32727
3.17	-15.00549
3.1705	-7.85522
3.171	-21.75293
3.1715	-18.63098
3.172	-6.74744
3.1725	1.71204
3.173	9.46655
3.1735	29.50745
3.174	44.51294
3.1745	57.30286
3.175	55.99365
3.1755	61.6333
3.176	75.93384
3.1765	98.69385
3.177	119.64111
3.1775	163.65051
3.178	227.29797
3.1785	287.31995
3.179	326.09253
3.1795	373.22388
3.18	378.35999
3.1805	347.34192
3.181	271.71021
3.1815	148.64502
3.182	27.09045
3.1825	-66.56799
3.183	-96.27686
3.1835	-123.66943
3.184	-135.45227
3.1845	-137.26501
3.185	-108.36182
3.1855	-4.73328
3.186	140.99121
3.1865	335.86121
3.187	469.0979
3.1875	488.63525
3.188	452.48108
3.1885	410.48584
3.189	349.05396
3.1895	261.94153
3.19	200.10681
3.1905	129.20837
3.191	84.2926
3.1915	71.60339
3.192	57.40356
3.1925	7.5531
3.193	-41.59241
3.1935	-73.11401
3.194	-86.91101
3.1945	-116.51917
3.195	-165.66467
3.1955	-187.11548
3.196	-218.13354
3.1965	-308.26721
3.197	-383.99963
3.1975	-432.23877
3.198	-461.34338
3.1985	-474.33472
3.199	-444.52515
3.1995	-395.37964
3.2	-325.18616
3.2005	-262.24365
3.201	-175.33264
3.2015	-103.22571
3.202	-57.9071
3.2025	-20.64514
3.203	15.1062
3.2035	42.19666
3.204	73.11401
3.2045	97.88818
3.205	98.89526
3.2055	76.43738
3.206	32.52869
3.2065	-21.55151
3.207	-88.72375
3.2075	-179.05884
3.208	-244.82117
3.2085	-296.68579
3.209	-330.42297
3.2095	-361.74316
3.21	-362.34741
3.2105	-361.34033
3.211	-323.57483
3.2115	-227.39868
3.212	-94.06128
3.2125	32.02515
3.213	154.18396
3.2135	295.98083
3.214	389.33716
3.2145	477.8595
3.215	511.19385
3.2155	483.70056
3.216	448.04993
3.2165	375.43945
3.217	300.91553
3.2175	215.0116
3.218	104.3335
3.2185	-12.48779
3.219	-143.10608
3.2195	-272.9187
3.22	-405.95398
3.2205	-487.12463
3.221	-516.12854
3.2215	-513.1073
3.222	-481.48499
3.2225	-424.08142
3.223	-355.70068
3.2235	-282.18384
3.224	-213.8031
3.2245	-137.66785
3.225	-66.16516
3.2255	1.3092
3.226	36.85913
3.2265	59.21631
3.227	82.78198
3.2275	102.21863
3.228	111.58447
3.2285	113.90076
3.229	105.6427
3.2295	96.27686
3.23	82.07703
3.2305	58.61206
3.231	33.53577
3.2315	10.37292
3.232	-5.33752
3.2325	-8.96301
3.233	-0.30212
3.2335	20.64514
3.234	47.33276
3.2345	66.97083
3.235	108.36182
3.2355	146.42944
3.236	172.61353
3.2365	190.84167
3.237	194.66858
3.2375	177.24609
3.238	150.55847
3.2385	98.89526
3.239	40.08179
3.2395	-8.05664
3.24	-2.31628
3.2405	72.9126
3.241	130.71899
3.2415	128.90625
3.242	133.63953
3.2425	153.07617
3.243	168.78662
3.2435	160.12573
3.244	145.72449
3.2445	116.51917
3.245	82.78198
3.2455	49.44763
3.246	23.66638
3.2465	23.66638
3.247	63.54675
3.2475	121.15173
3.248	177.24609
3.2485	188.6261
3.249	223.67249
3.2495	262.74719
3.25	273.52295
3.2505	255.19409
3.251	232.03125
3.2515	200.50964
3.252	150.35706
3.2525	93.75916
3.253	29.50745
3.2535	-33.33435
3.254	-82.78198
3.2545	-24.97559
3.255	32.22656
3.2555	99.70093
3.256	146.53015
3.2565	230.92346
3.257	289.2334
3.2575	293.86597
3.258	245.42542
3.2585	153.78113
3.259	26.88904
3.2595	-112.39014
3.26	-266.47339
3.2605	-368.69202
3.261	-403.13416
3.2615	-391.1499
3.262	-322.46704
3.2625	-235.95886
3.263	-137.76855
3.2635	-42.09595
3.264	38.57117
3.2645	65.66162
3.265	43.60657
3.2655	17.92603
3.266	-51.66321
3.2665	-147.63794
3.267	-265.16418
3.2675	-375.54016
3.268	-465.3717
3.2685	-510.18677
3.269	-491.55579
3.2695	-422.36938
3.27	-322.36633
3.2705	-244.31763
3.271	-192.15088
3.2715	-167.77954
3.272	-147.43652
3.2725	-125.07935
3.273	-108.36182
3.2735	-80.06287
3.274	-24.67346
3.2745	43.70728
3.275	117.42554
3.2755	195.77637
3.276	251.16577
3.2765	284.29871
3.277	313.80615
3.2775	362.95166
3.278	387.52441
3.2785	480.98145
3.279	571.0144
3.2795	610.08911
3.28	629.72717
3.2805	594.8822
3.281	529.01917
3.2815	509.48181
3.282	522.17102
3.2825	454.99878
3.283	340.39307
3.2835	192.65442
3.284	91.04004
3.2845	38.06763
3.285	-41.79382
3.2855	-147.23511
3.286	-228.10364
3.2865	-296.68579
3.287	-346.13342
3.2875	-387.92725
3.288	-397.79663
3.2885	-329.91943
3.289	-278.86047
3.2895	-225.58594
3.29	-199.60327
3.2905	-178.35388
3.291	-153.17688
3.2915	-142.60254
3.292	-141.59546
3.2925	-175.43335
3.293	-206.95496
3.2935	-226.59302
3.294	-224.78027
3.2945	-168.68591
3.295	-103.72925
3.2955	-78.85437
3.296	-85.70251
3.2965	-103.42712
3.297	-112.39014
3.2975	-115.51208
3.298	-105.13916
3.2985	-101.31226
3.299	-111.8866
3.2995	-139.37988
3.3	-170.09583
3.3005	-189.12964
3.301	-207.4585
3.3015	-232.13196
3.302	-260.83374
3.3025	-284.90295
3.303	-308.26721
3.3035	-318.33801
3.304	-305.04456
3.3045	-291.95251
3.305	-249.15161
3.3055	-202.02026
3.306	-176.94397
3.3065	-151.86768
3.307	-123.97156
3.3075	-107.75757
3.308	-74.12109
3.3085	-35.04639
3.309	-6.84814
3.3095	12.89062
3.31	21.95435
3.3105	30.11169
3.311	30.41382
3.3115	35.95276
3.312	41.69312
3.3125	39.37683
3.313	47.43347
3.3135	48.54126
3.314	47.93701
3.3145	48.44055
3.315	51.66321
3.3155	43.70728
3.316	32.32727
3.3165	11.68213
3.317	-17.12036
3.3175	-53.27454
3.318	-42.90161
3.3185	-7.25098
3.319	34.64355
3.3195	65.56091
3.32	95.97473
3.3205	122.86377
3.321	131.92749
3.3215	148.94714
3.322	158.21228
3.3225	164.35547
3.323	192.85583
3.3235	197.58911
3.324	203.02734
3.3245	308.36792
3.325	491.35437
3.3255	660.94666
3.326	742.41943
3.3265	764.07166
3.327	743.93005
3.3275	658.12683
3.328	559.6344
3.3285	447.04285
3.329	304.64172
3.3295	185.40344
3.33	107.05261
3.3305	37.46338
3.331	-32.62939
3.3315	-98.29102
3.332	-160.9314
3.3325	-205.84717
3.333	-217.12646
3.3335	-213.40027
3.334	-187.31689
3.3345	-86.10535
3.335	35.2478
3.3355	146.83228
3.336	240.79285
3.3365	284.90295
3.337	306.35376
3.3375	309.47571
3.338	277.9541
3.3385	186.81335
3.339	67.17224
3.3395	-43.10303
3.34	-129.71191
3.3405	-226.08948
3.341	-331.22864
3.3415	-449.05701
3.342	-547.0459
3.3425	-585.21423
3.343	-590.75317
3.3435	-563.05847
3.344	-521.26465
3.3445	-470.4071
3.345	-426.49841
3.3455	-375.54016
3.346	-283.89587
3.3465	-208.36487
3.347	-103.62854
3.3475	32.22656
3.348	133.94165
3.3485	170.29724
3.349	180.97229
3.3495	207.4585
3.35	225.68665
3.3505	246.33179
3.351	256.604
3.3515	270.50171
3.352	292.55676
3.3525	408.6731
3.353	459.32922
3.3535	434.75647
3.354	374.93591
3.3545	292.25464
3.355	172.71423
3.3555	48.13843
3.356	-73.51685
3.3565	-173.11707
3.357	-255.49622
3.3575	-303.33252
3.358	-275.03357
3.3585	-196.27991
3.359	-60.82764
3.3595	135.35156
3.36	321.45996
3.3605	444.72656
3.361	542.71545
3.3615	593.573
3.362	617.13867
3.3625	605.35583
3.363	545.43457
3.3635	425.89417
3.364	324.68262
3.3645	273.01941
3.365	190.23743
3.3655	59.1156
3.366	-80.26428
3.3665	-211.99036
3.367	-350.66528
3.3675	-448.04993
3.368	-456.40869
3.3685	-442.30957
3.369	-369.49768
3.3695	-310.5835
3.37	-263.85498
3.3705	-169.89441
3.371	-96.27686
3.3715	-38.974
3.372	12.99133
3.3725	37.86621
3.373	59.01489
3.3735	75.12817
3.374	94.16199
3.3745	113.69934
3.375	101.9165
3.3755	64.45312
3.376	7.35168
3.3765	-53.37524
3.377	-114.4043
3.3775	-118.73474
3.378	-117.32483
3.3785	-133.3374
3.379	-188.92822
3.3795	-274.32861
3.38	-357.91626
3.3805	-440.59753
3.381	-492.36145
3.3815	-504.94995
3.382	-419.04602
3.3825	-209.57336
3.383	8.96301
3.3835	120.95032
3.384	160.22644
3.3845	165.06042
3.385	163.4491
3.3855	198.99902
3.386	230.92346
3.3865	259.92737
3.387	299.10278
3.3875	337.77466
3.388	361.13892
3.3885	386.81946
3.389	379.36707
3.3895	295.98083
3.39	195.87708
3.3905	128.40271
3.391	33.53577
3.3915	-58.51135
3.392	-145.9259
3.3925	-210.68115
3.393	-269.39392
3.3935	-312.49695
3.394	-322.16492
3.3945	-241.4978
3.395	-179.26025
3.3955	-171.40503
3.396	-210.58044
3.3965	-257.30896
3.397	-291.34827
3.3975	-348.04688
3.398	-390.84778
3.3985	-407.66602
3.399	-420.65735
3.3995	-422.87292
3.4	-443.9209
3.4005	-475.84534
3.401	-478.06091
3.4015	-455.40161
3.402	-409.07593
3.4025	-324.78333
3.403	-230.41992
3.4035	-158.4137
3.404	-92.24854
3.4045	-25.68054
3.405	66.97083
3.4055	179.96521
3.406	261.13586
3.4065	296.38367
3.407	307.56226
3.4075	337.37183
3.408	400.11292
3.4085	416.3269
3.409	469.70215
3.4095	527.91138
3.41	676.5564
3.4105	851.78833
3.411	941.01562
3.4115	907.37915
3.412	780.38635
3.4125	630.0293
3.413	492.76428
3.4135	355.39856
3.414	242.80701
3.4145	127.69775
3.415	-5.63965
3.4155	-173.11707
3.416	-363.15308
3.4165	-536.27014
3.417	-661.24878
3.4175	-662.45728
3.418	-469.70215
3.4185	-183.18787
3.419	34.34143
3.4195	155.39246
3.42	204.33655
3.4205	209.47266
3.421	240.79285
3.4215	261.84082
3.422	231.62842
3.4225	167.37671
3.423	56.49719
3.4235	-65.66162
3.424	-172.71423
3.4245	-261.94153
3.425	-319.64722
3.4255	-339.08386
3.426	-321.45996
3.4265	-343.21289
3.427	-362.2467
3.4275	-407.56531
3.428	-448.9563
3.4285	-435.26001
3.429	-415.42053
3.4295	-393.86902
3.43	-373.92883
3.4305	-325.99182
3.431	-274.73145
3.4315	-193.56079
3.432	-65.66162
3.4325	40.78674
3.433	109.3689
3.4335	172.71423
3.434	217.93213
3.4345	255.19409
3.435	297.49146
3.4355	335.55908
3.436	314.61182
3.4365	249.25232
3.437	212.79602
3.4375	119.54041
3.438	63.94958
3.4385	-22.55859
3.439	-112.69226
3.4395	-203.22876
3.44	-270.50171
3.4405	-206.85425
3.441	-109.97314
3.4415	-53.07312
3.442	10.17151
3.4425	90.23438
3.443	154.6875
3.4435	184.8999
3.444	222.66541
3.4445	304.84314
3.445	444.72656
3.4455	553.99475
3.446	678.46985
3.4465	764.47449
3.447	750.17395
3.4475	643.22205
3.448	495.28198
3.4485	318.84155
3.449	163.85193
3.4495	81.47278
3.45	63.84888
3.4505	-18.42957
3.451	-81.27136
3.4515	-40.98816
3.452	-15.20691
3.4525	-4.53186
3.453	-17.72461
3.4535	-96.37756
3.454	-165.76538
3.4545	-179.26025
3.455	-203.93372
3.4555	-287.31995
3.456	-385.71167
3.4565	-470.60852
3.457	-513.91296
3.4575	-558.92944
3.458	-587.42981
3.4585	-568.69812
3.459	-550.46997
3.4595	-532.24182
3.46	-499.91455
3.4605	-457.91931
3.461	-395.68176
3.4615	-313.70544
3.462	-242.10205
3.4625	-83.18481
3.463	100.20447
3.4635	203.12805
3.464	277.14844
3.4645	347.44263
3.465	580.38025
3.4655	846.65222
3.466	993.28308
3.4665	1019.16504
3.467	988.65051
3.4675	891.76941
3.468	767.99927
3.4685	601.02539
3.469	399.30725
3.4695	167.57812
3.47	-61.33118
3.4705	-304.44031
3.471	-532.04041
3.4715	-755.41077
3.472	-939.60571
3.4725	-1038.09814
3.473	-1080.49622
3.4735	-1057.83691
3.474	-987.34131
3.4745	-865.1825
3.475	-685.51941
3.4755	-494.57703
3.476	-358.4198
3.4765	-228.70789
3.477	-86.10535
3.4775	35.44922
3.478	154.18396
3.4785	261.43799
3.479	318.33801
3.4795	373.92883
3.48	398.60229
3.4805	386.51733
3.481	358.52051
3.4815	306.65588
3.482	229.21143
3.4825	150.75989
3.483	108.26111
3.4835	79.45862
3.484	164.65759
3.4845	346.53625
3.485	518.74695
3.4855	575.14343
3.486	511.69739
3.4865	396.08459
3.487	303.73535
3.4875	231.02417
3.488	188.92822
3.4885	147.43652
3.489	58.10852
3.4895	-37.16125
3.49	-89.12659
3.4905	-130.41687
3.491	-168.68591
3.4915	-212.69531
3.492	-256.70471
3.4925	-329.11377
3.493	-373.42529
3.4935	-422.97363
3.494	-389.63928
3.4945	-291.14685
3.495	-237.87231
3.4955	-196.27991
3.496	-140.78979
3.4965	-81.17065
3.497	125.07935
3.4975	408.97522
3.498	594.27795
3.4985	667.08984
3.499	651.58081
3.4995	609.08203
3.5	536.87439
3.5005	429.51965
3.501	285.10437
3.5015	156.39954
3.502	6.74744
3.5025	-148.54431
3.503	-230.41992
3.5035	-270.90454
3.504	-189.73389
3.5045	21.95435
3.505	199.70398
3.5055	364.56299
3.506	511.49597
3.5065	624.59106
3.507	731.44226
3.5075	792.16919
3.508	738.89465
3.5085	608.27637
3.509	464.66675
3.5095	283.89587
3.51	48.74268
3.5105	-198.29407
3.511	-410.98938
3.5115	-587.73193
3.512	-718.95447
3.5125	-824.89929
3.513	-847.55859
3.5135	-772.63184
3.514	-693.87817
3.5145	-504.245
3.515	-283.49304
3.5155	-126.9928
3.516	-54.38232
3.5165	3.8269
3.517	99.80164
3.5175	178.65601
3.518	220.44983
3.5185	239.38293
3.519	245.92896
3.5195	322.06421
3.52	452.27966
3.5205	512.40234
3.521	510.5896
3.5215	482.49207
3.522	384.30176
3.5225	208.56628
3.523	-8.15735
3.5235	-209.47266
3.524	-409.27734
3.5245	-598.20557
3.525	-658.32825
3.5255	-690.95764
3.526	-656.61621
3.5265	-639.59656
3.527	-652.99072
3.5275	-665.78064
3.528	-642.31567
3.5285	-584.8114
3.529	-539.39209
3.5295	-469.50073
3.53	-351.67236
3.5305	-259.32312
3.531	-188.82751
3.5315	-152.57263
3.532	-129.20837
3.5325	-104.53491
3.533	-59.21631
3.5335	-35.04639
3.534	-40.48462
3.5345	-59.82056
3.535	-40.68604
3.5355	-31.92444
3.536	59.51843
3.5365	151.66626
3.537	231.62842
3.5375	297.18933
3.538	319.94934
3.5385	357.1106
3.539	441.30249
3.5395	611.09619
3.54	842.22107
3.5405	1005.26733
3.541	1128.1311
3.5415	1190.06653
3.542	1155.02014
3.5425	1014.12964
3.543	800.93079
3.5435	563.86414
3.544	289.83765
3.5445	35.95276
3.545	-234.75037
3.5455	-530.63049
3.546	-681.08826
3.5465	-671.92383
3.547	-626.3031
3.5475	-578.16467
3.548	-515.02075
3.5485	-441.70532
3.549	-410.28442
3.5495	-382.58972
3.55	-374.93591
3.5505	-382.38831
3.551	-402.63062
3.5515	-435.05859
3.552	-447.64709
3.5525	-472.9248
3.553	-496.28906
3.5535	-506.8634
3.554	-484.10339
3.5545	-398.60229
3.555	-216.92505
3.5555	55.08728
3.556	286.31287
3.5565	459.83276
3.557	659.73816
3.5575	818.35327
3.558	905.36499
3.5585	1137.69836
3.559	1395.10803
3.5595	1660.77576
3.56	1873.37036
3.5605	1984.85413
3.561	1957.66296
3.5615	1751.01013
3.562	1386.44714
3.5625	952.69775
3.563	504.64783
3.5635	9.36584
3.564	-447.64709
3.5645	-826.61133
3.565	-1162.17041
3.5655	-1452.31018
3.566	-1718.48145
3.5665	-1912.94861
3.567	-1979.31519
3.5675	-1970.95642
3.568	-1888.67798
3.5685	-1740.43579
3.569	-1539.82544
3.5695	-1334.07898
3.57	-1135.38208
3.5705	-935.17456
3.571	-648.76099
3.5715	-273.32153
3.572	49.54834
3.5725	423.88
3.573	706.46667
3.5735	906.47278
3.574	1003.45459
3.5745	1015.64026
3.575	1024.50256
3.5755	1011.30981
3.576	845.44373
3.5765	625.0946
3.577	403.93982
3.5775	156.09741
3.578	-83.68835
3.5785	-283.79517
3.579	-429.72107
3.5795	-496.89331
3.58	-567.28821
3.5805	-585.21423
3.581	-578.36609
3.5815	-614.31885
3.582	-688.13782
3.5825	-717.64526
3.583	-678.16772
3.5835	-505.95703
3.584	-91.14075
3.5845	398.09875
3.585	862.06055
3.5855	1139.71252
3.586	1199.43237
3.5865	1090.16418
3.587	1013.02185
3.5875	926.31226
3.588	801.73645
3.5885	661.65161
3.589	507.66907
3.5895	378.35999
3.59	221.3562
3.5905	70.89844
3.591	-46.72852
3.5915	-189.9353
3.592	-309.87854
3.5925	-434.85718
3.593	-526.9043
3.5935	-605.35583
3.594	-678.87268
3.5945	-715.6311
3.595	-699.81995
3.5955	-584.40857
3.596	-343.41431
3.5965	-62.23755
3.597	203.12805
3.5975	435.66284
3.598	679.57764
3.5985	815.13062
3.599	827.71912
3.5995	777.2644
3.6	674.44153
3.6005	552.68555
3.601	370.80688
3.6015	135.65369
3.602	-96.57898
3.6025	-316.02173
3.603	-485.00977
3.6035	-633.05054
3.604	-779.7821
3.6045	-904.96216
3.605	-972.83936
3.6055	-979.38538
3.606	-943.83545
3.6065	-866.89453
3.607	-757.82776
3.6075	-637.68311
3.608	-535.7666
3.6085	-440.89966
3.609	-344.42139
3.6095	-234.95178
3.61	-114.20288
3.6105	15.30762
3.611	132.33032
3.6115	223.77319
3.612	508.0719
3.6125	1068.91479
3.613	1601.55945
3.6135	1873.97461
3.614	2019.7998
3.6145	2020.60547
3.615	1875.98877
3.6155	1594.81201
3.616	1254.51965
3.6165	837.48779
3.617	456.00586
3.6175	109.67102
3.618	-223.8739
3.6185	-542.51404
3.619	-857.83081
3.6195	-1137.59766
3.62	-1392.79175
3.6205	-1546.57288
3.621	-1593.90564
3.6215	-1505.28259
3.622	-1352.81067
3.6225	-1167.60864
3.623	-965.99121
3.6235	-752.99377
3.624	-494.97986
3.6245	-163.95264
3.625	177.85034
3.6255	445.53223
3.626	607.26929
3.6265	687.13074
3.627	679.98047
3.6275	604.55017
3.628	557.72095
3.6285	487.22534
3.629	357.61414
3.6295	170.29724
3.63	-44.31152
3.6305	-129.00696
3.631	-50.65613
3.6315	63.24463
3.632	135.25085
3.6325	155.79529
3.633	120.64819
3.6335	47.03064
3.634	59.21631
3.6345	155.19104
3.635	176.94397
3.6355	188.42468
3.636	245.224
3.6365	291.54968
3.637	359.729
3.6375	415.0177
3.638	436.46851
3.6385	406.2561
3.639	299.70703
3.6395	134.94873
3.64	-49.95117
3.6405	-229.71497
3.641	-425.39062
3.6415	-631.3385
3.642	-885.92834
3.6425	-1131.65588
3.643	-1163.47961
3.6435	-981.19812
3.644	-727.01111
3.6445	-454.59595
3.645	-274.53003
3.6455	-145.8252
3.646	82.68127
3.6465	527.005
3.647	1063.47656
3.6475	1508.60596
3.648	1835.50415
3.6485	1889.48364
3.649	1746.27686
3.6495	1506.79321
3.65	1219.67468
3.6505	865.88745
3.651	440.1947
3.6515	48.84338
3.652	-325.99182
3.6525	-687.33215
3.653	-946.9574
3.6535	-1074.15161
3.654	-1136.28845
3.6545	-1150.79041
3.655	-1112.72278
3.6555	-832.65381
3.656	-333.44421
3.6565	49.24622
3.657	239.98718
3.6575	412.80212
3.658	530.02625
3.6585	530.32837
3.659	457.8186
3.6595	319.54651
3.66	151.76697
3.6605	-32.32727
3.661	-185.40344
3.6615	-369.6991
3.662	-557.41882
3.6625	-676.25427
3.663	-766.48865
3.6635	-823.7915
3.664	-860.44922
3.6645	-853.9032
3.665	-702.43835
3.6655	-587.83264
3.666	-500.82092
3.6665	-432.33948
3.667	-301.21765
3.6675	-116.21704
3.668	102.62146
3.6685	301.01624
3.669	415.72266
3.6695	479.37012
3.67	519.55261
3.6705	723.1842
3.671	864.98108
3.6715	954.40979
3.672	1109.50012
3.6725	1119.97375
3.673	974.85352
3.6735	727.61536
3.674	424.68567
3.6745	107.85828
3.675	-207.35779
3.6755	-482.49207
3.676	-613.31177
3.6765	-698.81287
3.677	-762.96387
3.6775	-795.69397
3.678	-841.41541
3.6785	-871.62781
3.679	-876.15967
3.6795	-848.06213
3.68	-723.0835
3.6805	-553.3905
3.681	-395.07751
3.6815	-304.74243
3.682	-270.60242
3.6825	-254.99268
3.683	-230.72205
3.6835	-180.16663
3.684	-146.83228
3.6845	-132.43103
3.685	-80.36499
3.6855	127.79846
3.686	302.72827
3.6865	321.76208
3.687	304.64172
3.6875	344.92493
3.688	480.3772
3.6885	589.14185
3.689	578.16467
3.6895	496.99402
3.69	405.55115
3.6905	283.69446
3.691	144.01245
3.6915	-3.8269
3.692	-96.37756
3.6925	-183.18787
3.693	-249.75586
3.6935	-291.7511
3.694	-289.13269
3.6945	-252.67639
3.695	-146.83228
3.6955	129.10767
3.696	561.54785
3.6965	853.80249
3.697	926.01013
3.6975	889.151
3.698	851.28479
3.6985	773.33679
3.699	572.02148
3.6995	483.70056
3.7	463.76038
3.7005	444.32373
3.701	581.89087
3.7015	759.43909
3.702	809.69238
3.7025	745.23926
3.703	648.45886
3.7035	520.86182
3.704	558.4259
3.7045	657.01904
3.705	727.51465
3.7055	623.68469
3.706	376.54724
3.7065	52.06604
3.707	-277.85339
3.7075	-541.00342
3.708	-734.06067
3.7085	-734.86633
3.709	-469.0979
3.7095	-163.24768
3.71	93.96057
3.7105	342.20581
3.711	429.21753
3.7115	405.34973
3.712	479.67224
3.7125	639.69727
3.713	759.84192
3.7135	722.47925
3.714	578.26538
3.7145	430.92957
3.715	116.61987
3.7155	-280.67322
3.716	-648.55957
3.7165	-986.83777
3.717	-1269.22302
3.7175	-1428.14026
3.718	-1504.0741
3.7185	-1560.06775
3.719	-1600.04883
3.7195	-1588.06458
3.72	-1578.49731
3.7205	-1545.6665
3.721	-1486.34949
3.7215	-1361.47156
3.722	-1200.64087
3.7225	-1020.57495
3.723	-869.21082
3.7235	-748.15979
3.724	-539.89563
3.7245	-358.92334
3.725	-282.68738
3.7255	-180.16663
3.726	116.31775
3.7265	411.49292
3.727	708.88367
3.7275	925.20447
3.728	987.13989
3.7285	921.7804
3.729	801.93787
3.7295	652.38647
3.73	429.31824
3.7305	189.12964
3.731	17.82532
3.7315	-120.84961
3.732	-218.33496
3.7325	-287.82349
3.733	-344.52209
3.7335	-347.94617
3.734	-308.0658
3.7345	-213.70239
3.735	2.5177
3.7355	255.89905
3.736	372.11609
3.7365	375.74158
3.737	303.73535
3.7375	178.85742
3.738	54.48303
3.7385	-36.35559
3.739	41.18958
3.7395	154.58679
3.74	181.77795
3.7405	173.72131
3.741	125.98572
3.7415	52.16675
3.742	-31.52161
3.7425	-124.97864
3.743	-178.25317
3.7435	-98.39172
3.744	385.20813
3.7445	804.65698
3.745	953.90625
3.7455	946.35315
3.746	900.12817
3.7465	765.28015
3.747	541.50696
3.7475	348.24829
3.748	159.92432
3.7485	-9.86938
3.749	-123.66943
3.7495	-184.29565
3.75	-201.01318
3.7505	-50.45471
3.751	129.40979
3.7515	245.12329
3.752	329.01306
3.7525	385.30884
3.753	489.64233
3.7535	689.84985
3.754	776.25732
3.7545	687.73499
3.755	460.03418
3.7555	164.15405
3.756	-161.63635
3.7565	-298.0957
3.757	-386.81946
3.7575	-558.3252
3.758	-728.52173
3.7585	-871.92993
3.759	-1004.36096
3.7595	-1098.12012
3.76	-1154.31519
3.7605	-1164.28528
3.761	-1110.30579
3.7615	-984.82361
3.762	-681.18896
3.7625	-145.32166
3.763	481.88782
3.7635	974.95422
3.764	1194.90051
3.7645	1223.19946
3.765	1137.89978
3.7655	1089.86206
3.766	1077.87781
3.7665	1126.72119
3.767	941.61987
3.7675	720.96863
3.768	502.43225
3.7685	199.30115
3.769	-168.88733
3.7695	-467.38586
3.77	-683.90808
3.7705	-687.13074
3.771	-662.45728
3.7715	-420.55664
3.772	72.71118
3.7725	551.47705
3.773	742.52014
3.7735	632.14417
3.774	373.82812
3.7745	136.35864
3.775	36.4563
3.7755	-40.68604
3.776	-232.53479
3.7765	-417.83752
3.777	-522.07031
3.7775	-622.5769
3.778	-761.95679
3.7785	-955.61829
3.779	-1162.97607
3.7795	-1277.07825
3.78	-1263.78479
3.7805	-1172.34192
3.781	-1000.33264
3.7815	-825.10071
3.782	-672.93091
3.7825	-447.64709
3.783	-206.04858
3.7835	-57.10144
3.784	98.19031
3.7845	413.40637
3.785	785.32104
3.7855	1082.61108
3.786	1343.94836
3.7865	1705.3894
3.787	1952.02332
3.7875	1927.55127
3.788	1615.25574
3.7885	1189.36157
3.789	755.61218
3.7895	319.34509
3.79	-133.13599
3.7905	-522.47314
3.791	-714.72473
3.7915	-723.28491
3.792	-775.45166
3.7925	-874.64905
3.793	-989.15405
3.7935	-1101.44348
3.794	-1205.57556
3.7945	-1394.80591
3.795	-1504.0741
3.7955	-1527.84119
3.796	-1446.97266
3.7965	-1237.80212
3.797	-768.70422
3.7975	-200.81177
3.798	218.03284
3.7985	539.69421
3.799	707.47375
3.7995	855.91736
3.8	1299.1333
3.8005	1886.16028
3.801	2196.03882
3.8015	2269.9585
3.802	2251.32739
3.8025	2175.9978
3.803	1932.08313
3.8035	1421.49353
3.804	700.82703
3.8045	-32.7301
3.805	-706.86951
3.8055	-1256.63452
3.806	-1679.80957
3.8065	-1942.35535
3.807	-1935.10437
3.8075	-1608.00476
3.808	-1167.00439
3.8085	-798.6145
3.809	-553.59192
3.8095	-509.07898
3.81	-538.68713
3.8105	-556.81458
3.811	-498.60535
3.8115	-415.11841
3.812	-316.42456
3.8125	-246.5332
3.813	-106.8512
3.8135	67.27295
3.814	200.10681
3.8145	249.95728
3.815	237.16736
3.8155	193.56079
3.816	257.00684
3.8165	616.03088
3.817	1163.58032
3.8175	1931.37817
3.818	2508.53564
3.8185	2638.34839
3.819	2457.17456
3.8195	2018.18848
3.82	1432.57141
3.8205	784.41467
3.821	147.1344
3.8215	-480.3772
3.822	-1064.98718
3.8225	-1498.23303
3.823	-1765.00854
3.8235	-1823.82202
3.824	-1783.43811
3.8245	-1651.00708
3.825	-1441.73584
3.8255	-1237.5
3.826	-1083.51746
3.8265	-997.91565
3.827	-929.13208
3.8275	-855.11169
3.828	-774.14246
3.8285	-627.20947
3.829	-413.00354
3.8295	-251.97144
3.83	-166.57104
3.8305	-100.90942
3.831	-45.3186
3.8315	37.36267
3.832	109.4696
3.8325	147.33582
3.833	161.0321
3.8335	82.9834
3.834	-112.08801
3.8345	-289.13269
3.835	-308.26721
3.8355	-202.92664
3.836	-137.0636
3.8365	-117.52625
3.837	-98.59314
3.8375	-83.78906
3.838	-38.26904
3.8385	76.84021
3.839	239.98718
3.8395	322.97058
3.84	306.65588
3.8405	395.27893
3.841	554.39758
3.8415	742.41943
3.842	1011.1084
3.8425	1357.54395
3.843	1623.11096
3.8435	1643.6554
3.844	1478.39355
3.8445	1264.38904
3.845	1337.70447
3.8455	1554.93164
3.846	1559.06067
3.8465	1387.35352
3.847	1040.91797
3.8475	620.0592
3.848	213.8031
3.8485	-1.2085
3.849	310.88562
3.8495	853.80249
3.85	1217.76123
3.8505	1299.73755
3.851	1100.33569
3.8515	536.27014
3.852	-98.69385
3.8525	-656.31409
3.853	-1106.27747
3.8535	-1444.25354
3.854	-1699.0448
3.8545	-1837.61902
3.855	-1847.4884
3.8555	-1740.83862
3.856	-1666.21399
3.8565	-1551.60828
3.857	-1359.15527
3.8575	-1122.49146
3.858	-932.35474
3.8585	-795.08972
3.859	-660.54382
3.8595	-524.4873
3.86	-426.80054
3.8605	-382.18689
3.861	-366.97998
3.8615	-267.68188
3.862	-154.08325
3.8625	-40.08179
3.863	44.71436
3.8635	45.41931
3.864	-17.01965
3.8645	-82.37915
3.865	-102.21863
3.8655	2.41699
3.866	280.27039
3.8665	424.78638
3.867	431.93665
3.8675	422.16797
3.868	518.54553
3.8685	660.04028
3.869	696.09375
3.8695	663.36365
3.87	551.98059
3.8705	392.76123
3.871	299.10278
3.8715	329.5166
3.872	311.59058
3.8725	285.40649
3.873	207.4585
3.8735	34.03931
3.874	-202.5238
3.8745	-344.11926
3.875	-390.04211
3.8755	-264.25781
3.876	-0.80566
3.8765	177.24609
3.877	226.89514
3.8775	300.31128
3.878	310.5835
3.8785	340.29236
3.879	277.65198
3.8795	126.89209
3.88	-117.12341
3.8805	-372.92175
3.881	-524.78943
3.8815	-413.30566
3.882	68.88428
3.8825	1359.96094
3.883	2981.86328
3.8835	3266.46411
3.884	3252.36499
3.8845	3237.76245
3.885	2770.37646
3.8855	1705.3894
3.886	548.15369
3.8865	-663.76648
3.887	-1658.25806
3.8875	-2346.39575
3.888	-2730.29468
3.8885	-2902.10254
3.889	-2967.15991
3.8895	-2881.35669
3.89	-2674.30103
3.8905	-2358.88354
3.891	-2012.75024
3.8915	-1596.82617
3.892	-1260.36072
3.8925	-1029.13513
3.893	-800.83008
3.8935	-525.19226
3.894	-273.82507
3.8945	-120.95032
3.895	-49.95117
3.8955	18.42957
3.896	84.59473
3.8965	53.67737
3.897	-0.10071
3.8975	20.84656
3.898	98.79456
3.8985	134.84802
3.899	188.32397
3.8995	353.98865
3.9	458.52356
3.9005	421.96655
3.901	343.21289
3.9015	222.36328
3.902	44.81506
3.9025	-72.30835
3.903	-94.86694
3.9035	80.06287
3.904	308.97217
3.9045	657.62329
3.905	1031.55212
3.9055	1201.95007
3.906	1261.56921
3.9065	1179.49219
3.907	949.67651
3.9075	649.26453
3.908	352.67944
3.9085	267.48047
3.909	239.78577
3.9095	292.45605
3.91	361.64246
3.9105	315.51819
3.911	240.99426
3.9115	86.40747
3.912	-111.08093
3.9125	-291.85181
3.913	-417.63611
3.9135	-581.08521
3.914	-731.24084
3.9145	-833.56018
3.915	-851.68762
3.9155	-614.72168
3.916	-247.7417
3.9165	106.34766
3.917	259.92737
3.9175	334.45129
3.918	389.73999
3.9185	353.88794
3.919	297.08862
3.9195	322.06421
3.92	347.54333
3.9205	509.98535
