Antonio_Festa_Left_2.c3d  



Time(s):	B_R_bicipite(μV):
0	2.71912
0.0005	6.84814
0.001	2.61841
0.0015	7.35168
0.002	10.57434
0.0025	5.63965
0.003	0.50354
0.0035	4.73328
0.004	4.33044
0.0045	4.53186
0.005	5.13611
0.0055	6.44531
0.006	10.27222
0.0065	7.45239
0.007	5.84106
0.0075	9.26514
0.008	6.2439
0.0085	2.5177
0.009	2.61841
0.0095	4.53186
0.01	6.54602
0.0105	10.97717
0.011	5.63965
0.0115	3.7262
0.012	7.35168
0.0125	3.12195
0.013	3.12195
0.0135	0.90637
0.014	6.74744
0.0145	4.53186
0.015	9.36584
0.0155	9.26514
0.016	6.04248
0.0165	4.22974
0.017	1.91345
0.0175	6.64673
0.018	14.50195
0.0185	7.35168
0.019	10.37292
0.0195	5.53894
0.02	7.45239
0.0205	9.16443
0.021	3.12195
0.0215	1.91345
0.022	7.65381
0.0225	7.35168
0.023	5.53894
0.0235	6.14319
0.024	5.23682
0.0245	6.14319
0.025	2.81982
0.0255	4.63257
0.026	6.3446
0.0265	4.93469
0.027	4.12903
0.0275	5.84106
0.028	5.13611
0.0285	4.83398
0.029	4.02832
0.0295	0.40283
0.03	2.11487
0.0305	2.61841
0.031	4.83398
0.0315	4.02832
0.032	6.84814
0.0325	3.8269
0.033	2.71912
0.0335	-1.10779
0.034	4.43115
0.0345	5.43823
0.035	0.50354
0.0355	0.30212
0.036	7.95593
0.0365	3.02124
0.037	9.06372
0.0375	3.22266
0.038	6.64673
0.0385	9.16443
0.039	6.84814
0.0395	8.05664
0.04	2.71912
0.0405	6.74744
0.041	4.22974
0.0415	4.33044
0.042	8.25806
0.0425	8.15735
0.043	6.2439
0.0435	5.84106
0.044	3.22266
0.0445	0.40283
0.045	-4.22974
0.0455	1.51062
0.046	0
0.0465	1.2085
0.047	0.70496
0.0475	3.02124
0.048	1.40991
0.0485	7.45239
0.049	3.22266
0.0495	5.23682
0.05	9.06372
0.0505	4.43115
0.051	1.00708
0.0515	4.02832
0.052	2.11487
0.0525	2.61841
0.053	-1.00708
0.0535	1.61133
0.054	11.78284
0.0545	3.12195
0.055	3.32336
0.0555	3.62549
0.056	1.91345
0.0565	-2.21558
0.057	2.92053
0.0575	4.02832
0.058	1.91345
0.0585	0.80566
0.059	5.43823
0.0595	5.63965
0.06	2.92053
0.0605	3.8269
0.061	4.83398
0.0615	7.25098
0.062	9.76868
0.0625	7.04956
0.063	1.51062
0.0635	0.40283
0.064	3.92761
0.0645	1.10779
0.065	3.02124
0.0655	3.32336
0.066	11.07788
0.0665	11.88354
0.067	6.3446
0.0675	9.66797
0.068	9.97009
0.0685	9.36584
0.069	7.15027
0.0695	6.84814
0.07	10.97717
0.0705	9.06372
0.071	4.12903
0.0715	10.47363
0.072	6.44531
0.0725	9.16443
0.073	6.64673
0.0735	5.23682
0.074	11.48071
0.0745	2.31628
0.075	5.74036
0.0755	1.61133
0.076	2.61841
0.0765	9.76868
0.077	9.46655
0.0775	11.2793
0.078	1.2085
0.0785	5.23682
0.079	4.53186
0.0795	6.84814
0.08	3.52478
0.0805	8.45947
0.081	9.36584
0.0815	9.66797
0.082	10.77576
0.0825	6.64673
0.083	6.44531
0.0835	7.75452
0.084	8.15735
0.0845	8.05664
0.085	7.35168
0.0855	8.45947
0.086	15.50903
0.0865	8.45947
0.087	9.26514
0.0875	4.63257
0.088	13.09204
0.0885	1.61133
0.089	11.2793
0.0895	3.8269
0.09	3.02124
0.0905	5.43823
0.091	7.25098
0.0915	9.86938
0.092	3.32336
0.0925	6.84814
0.093	5.63965
0.0935	4.02832
0.094	1.71204
0.0945	-0.40283
0.095	-1.91345
0.0955	2.11487
0.096	3.02124
0.0965	0.20142
0.097	3.22266
0.0975	5.63965
0.098	10.17151
0.0985	4.12903
0.099	4.93469
0.0995	8.7616
0.1	10.17151
0.1005	11.17859
0.101	10.47363
0.1015	2.92053
0.102	4.43115
0.1025	5.84106
0.103	3.52478
0.1035	5.23682
0.104	7.35168
0.1045	8.35876
0.105	7.35168
0.1055	1.51062
0.106	5.23682
0.1065	9.06372
0.107	13.69629
0.1075	7.5531
0.108	7.95593
0.1085	10.17151
0.109	13.49487
0.1095	10.27222
0.11	3.62549
0.1105	3.8269
0.111	13.19275
0.1115	5.63965
0.112	4.73328
0.1125	3.02124
0.113	4.33044
0.1135	8.96301
0.114	10.97717
0.1145	2.81982
0.115	-2.11487
0.1155	3.32336
0.116	5.0354
0.1165	8.05664
0.117	4.53186
0.1175	5.63965
0.118	4.33044
0.1185	0.10071
0.119	-1.51062
0.1195	5.13611
0.12	4.53186
0.1205	6.04248
0.121	4.12903
0.1215	9.76868
0.122	9.26514
0.1225	6.94885
0.123	8.25806
0.1235	2.01416
0.124	2.61841
0.1245	0.40283
0.125	4.43115
0.1255	8.7616
0.126	6.64673
0.1265	2.61841
0.127	2.31628
0.1275	7.04956
0.128	1.3092
0.1285	0.50354
0.129	1.40991
0.1295	2.01416
0.13	5.94177
0.1305	3.02124
0.131	-1.00708
0.1315	3.52478
0.132	2.81982
0.1325	5.94177
0.133	5.0354
0.1335	2.31628
0.134	5.33752
0.1345	7.85522
0.135	5.23682
0.1355	7.15027
0.136	6.44531
0.1365	4.02832
0.137	7.25098
0.1375	6.44531
0.138	7.35168
0.1385	8.45947
0.139	4.33044
0.1395	3.62549
0.14	-0.40283
0.1405	3.22266
0.141	-0.30212
0.1415	0.80566
0.142	3.02124
0.1425	0.40283
0.143	0.50354
0.1435	0
0.144	2.5177
0.1445	2.21558
0.145	2.81982
0.1455	4.02832
0.146	-0.20142
0.1465	6.64673
0.147	4.33044
0.1475	1.2085
0.148	7.65381
0.1485	12.38708
0.149	5.74036
0.1495	4.12903
0.15	4.73328
0.1505	3.8269
0.151	6.2439
0.1515	6.74744
0.152	8.45947
0.1525	6.14319
0.153	7.65381
0.1535	7.45239
0.154	8.35876
0.1545	11.88354
0.155	3.02124
0.1555	9.66797
0.156	10.17151
0.1565	9.16443
0.157	10.67505
0.1575	9.36584
0.158	12.78992
0.1585	4.22974
0.159	9.16443
0.1595	6.14319
0.16	3.32336
0.1605	5.53894
0.161	10.47363
0.1615	10.77576
0.162	15.20691
0.1625	11.78284
0.163	10.87646
0.1635	2.41699
0.164	3.8269
0.1645	4.73328
0.165	7.15027
0.1655	3.32336
0.166	5.63965
0.1665	8.8623
0.167	1.00708
0.1675	9.16443
0.168	4.83398
0.1685	2.92053
0.169	4.02832
0.1695	5.74036
0.17	3.52478
0.1705	2.92053
0.171	8.05664
0.1715	7.04956
0.172	8.7616
0.1725	9.97009
0.173	10.67505
0.1735	11.17859
0.174	10.37292
0.1745	12.48779
0.175	6.2439
0.1755	5.84106
0.176	7.35168
0.1765	13.797
0.177	7.85522
0.1775	8.8623
0.178	9.97009
0.1785	10.67505
0.179	12.08496
0.1795	9.16443
0.18	8.7616
0.1805	4.53186
0.181	7.35168
0.1815	3.62549
0.182	5.13611
0.1825	4.02832
0.183	4.63257
0.1835	6.14319
0.184	0.90637
0.1845	5.33752
0.185	2.21558
0.1855	9.46655
0.186	7.95593
0.1865	9.36584
0.187	9.76868
0.1875	4.73328
0.188	6.84814
0.1885	7.45239
0.189	1.3092
0.1895	2.71912
0.19	-1.10779
0.1905	1.71204
0.191	1.71204
0.1915	1.3092
0.192	7.65381
0.1925	6.54602
0.193	6.74744
0.1935	1.10779
0.194	1.61133
0.1945	3.22266
0.195	1.51062
0.1955	5.53894
0.196	6.94885
0.1965	2.11487
0.197	4.53186
0.1975	2.31628
0.198	1.71204
0.1985	6.2439
0.199	0.50354
0.1995	4.43115
0.2	0.40283
0.2005	1.3092
0.201	-0.60425
0.2015	-0.10071
0.202	4.53186
0.2025	3.8269
0.203	5.23682
0.2035	3.62549
0.204	7.25098
0.2045	7.25098
0.205	5.23682
0.2055	9.06372
0.206	6.44531
0.2065	6.64673
0.207	6.04248
0.2075	3.32336
0.208	5.74036
0.2085	7.85522
0.209	5.84106
0.2095	3.7262
0.21	5.23682
0.2105	7.45239
0.211	2.5177
0.2115	2.11487
0.212	4.83398
0.2125	3.12195
0.213	4.63257
0.2135	4.93469
0.214	-0.30212
0.2145	2.31628
0.215	2.5177
0.2155	1.10779
0.216	2.5177
0.2165	1.00708
0.217	3.52478
0.2175	4.53186
0.218	4.73328
0.2185	9.46655
0.219	6.2439
0.2195	7.45239
0.22	8.8623
0.2205	7.85522
0.221	6.2439
0.2215	5.0354
0.222	5.63965
0.2225	3.32336
0.223	0.80566
0.2235	1.51062
0.224	5.13611
0.2245	4.93469
0.225	7.95593
0.2255	6.2439
0.226	7.95593
0.2265	2.61841
0.227	9.06372
0.2275	8.05664
0.228	10.87646
0.2285	6.94885
0.229	2.41699
0.2295	5.0354
0.23	-0.30212
0.2305	5.23682
0.231	4.43115
0.2315	5.33752
0.232	6.64673
0.2325	6.3446
0.233	10.27222
0.2335	9.66797
0.234	5.63965
0.2345	10.67505
0.235	8.8623
0.2355	8.66089
0.236	8.8623
0.2365	11.38
0.237	10.0708
0.2375	6.54602
0.238	9.16443
0.2385	11.58142
0.239	9.16443
0.2395	11.48071
0.24	8.8623
0.2405	10.27222
0.241	10.0708
0.2415	13.69629
0.242	12.08496
0.2425	11.48071
0.243	7.95593
0.2435	9.56726
0.244	12.28638
0.2445	11.07788
0.245	8.7616
0.2455	7.04956
0.246	6.04248
0.2465	8.45947
0.247	7.15027
0.2475	6.74744
0.248	11.88354
0.2485	6.14319
0.249	4.63257
0.2495	9.26514
0.25	5.23682
0.2505	5.53894
0.251	9.06372
0.2515	7.25098
0.252	4.83398
0.2525	8.96301
0.253	8.25806
0.2535	13.89771
0.254	5.63965
0.2545	9.16443
0.255	6.54602
0.2555	12.38708
0.256	5.43823
0.2565	9.66797
0.257	5.33752
0.2575	13.19275
0.258	7.04956
0.2585	7.95593
0.259	10.0708
0.2595	5.63965
0.26	8.66089
0.2605	4.53186
0.261	4.22974
0.2615	0.40283
0.262	-3.42407
0.2625	4.73328
0.263	-1.00708
0.2635	1.3092
0.264	-3.8269
0.2645	2.5177
0.265	6.44531
0.2655	-1.2085
0.266	5.94177
0.2665	-1.00708
0.267	-0.60425
0.2675	5.23682
0.268	12.68921
0.2685	9.66797
0.269	3.02124
0.2695	7.75452
0.27	8.45947
0.2705	6.64673
0.271	12.48779
0.2715	7.95593
0.272	8.05664
0.2725	9.46655
0.273	2.5177
0.2735	2.11487
0.274	2.81982
0.2745	3.62549
0.275	3.32336
0.2755	4.22974
0.276	6.04248
0.2765	6.04248
0.277	0.20142
0.2775	-0.40283
0.278	4.83398
0.2785	-1.40991
0.279	5.84106
0.2795	-0.10071
0.28	5.94177
0.2805	10.0708
0.281	4.83398
0.2815	2.81982
0.282	2.31628
0.2825	0.90637
0.283	4.22974
0.2835	5.43823
0.284	3.42407
0.2845	1.51062
0.285	-0.20142
0.2855	2.61841
0.286	7.75452
0.2865	6.94885
0.287	0.60425
0.2875	2.81982
0.288	4.33044
0.2885	8.05664
0.289	4.53186
0.2895	-0.40283
0.29	4.12903
0.2905	4.12903
0.291	0.10071
0.2915	1.81274
0.292	0.80566
0.2925	0.60425
0.293	5.33752
0.2935	4.22974
0.294	0.90637
0.2945	0.90637
0.295	4.02832
0.2955	7.35168
0.296	5.33752
0.2965	2.5177
0.297	6.74744
0.2975	2.01416
0.298	9.16443
0.2985	2.5177
0.299	-1.00708
0.2995	-1.40991
0.3	-1.81274
0.3005	2.71912
0.301	7.5531
0.3015	3.22266
0.302	3.52478
0.3025	2.92053
0.303	-2.11487
0.3035	-0.40283
0.304	2.41699
0.3045	5.94177
0.305	2.81982
0.3055	0.70496
0.306	5.0354
0.3065	1.61133
0.307	5.94177
0.3075	2.92053
0.308	2.31628
0.3085	2.11487
0.309	0.80566
0.3095	9.16443
0.31	9.16443
0.3105	6.74744
0.311	4.22974
0.3115	-0.20142
0.312	7.04956
0.3125	4.93469
0.313	4.02832
0.3135	-0.90637
0.314	-0.50354
0.3145	2.5177
0.315	1.71204
0.3155	-0.20142
0.316	2.21558
0.3165	8.66089
0.317	3.8269
0.3175	8.15735
0.318	7.95593
0.3185	5.94177
0.319	7.5531
0.3195	7.25098
0.32	8.25806
0.3205	7.85522
0.321	8.96301
0.3215	8.25806
0.322	6.54602
0.3225	9.56726
0.323	12.5885
0.3235	10.67505
0.324	4.33044
0.3245	3.62549
0.325	6.54602
0.3255	4.83398
0.326	8.45947
0.3265	4.02832
0.327	4.33044
0.3275	4.43115
0.328	7.04956
0.3285	8.56018
0.329	8.05664
0.3295	7.15027
0.33	3.62549
0.3305	2.01416
0.331	2.31628
0.3315	5.43823
0.332	10.17151
0.3325	9.26514
0.333	9.16443
0.3335	4.02832
0.334	2.01416
0.3345	8.15735
0.335	3.12195
0.3355	0.20142
0.336	9.86938
0.3365	9.06372
0.337	5.13611
0.3375	9.97009
0.338	8.66089
0.3385	9.97009
0.339	4.63257
0.3395	0.30212
0.34	2.92053
0.3405	4.63257
0.341	1.91345
0.3415	3.8269
0.342	-0.50354
0.3425	5.13611
0.343	1.71204
0.3435	5.94177
0.344	5.23682
0.3445	5.53894
0.345	7.45239
0.3455	8.05664
0.346	6.2439
0.3465	6.54602
0.347	5.74036
0.3475	8.35876
0.348	4.02832
0.3485	4.02832
0.349	4.83398
0.3495	2.92053
0.35	0.90637
0.3505	1.2085
0.351	1.00708
0.3515	0.50354
0.352	-0.80566
0.3525	-1.00708
0.353	-0.90637
0.3535	1.10779
0.354	8.35876
0.3545	7.85522
0.355	11.17859
0.3555	6.44531
0.356	2.92053
0.3565	9.66797
0.357	8.56018
0.3575	9.06372
0.358	11.2793
0.3585	9.56726
0.359	9.97009
0.3595	11.98425
0.36	13.29346
0.3605	9.06372
0.361	2.71912
0.3615	9.46655
0.362	8.8623
0.3625	3.02124
0.363	5.63965
0.3635	5.94177
0.364	10.47363
0.3645	9.16443
0.365	7.95593
0.3655	5.94177
0.366	6.84814
0.3665	4.93469
0.367	3.42407
0.3675	8.05664
0.368	-1.10779
0.3685	8.25806
0.369	6.74744
0.3695	3.22266
0.37	2.41699
0.3705	11.2793
0.371	12.28638
0.3715	9.97009
0.372	8.66089
0.3725	9.56726
0.373	12.68921
0.3735	7.95593
0.374	3.62549
0.3745	1.10779
0.375	0
0.3755	9.76868
0.376	4.83398
0.3765	2.31628
0.377	8.66089
0.3775	3.12195
0.378	3.8269
0.3785	8.45947
0.379	2.41699
0.3795	5.43823
0.38	1.00708
0.3805	5.23682
0.381	9.26514
0.3815	6.84814
0.382	2.92053
0.3825	6.3446
0.383	5.0354
0.3835	0.50354
0.384	-1.71204
0.3845	0.60425
0.385	0.60425
0.3855	2.31628
0.386	4.22974
0.3865	1.3092
0.387	2.81982
0.3875	-2.11487
0.388	2.71912
0.3885	3.02124
0.389	7.95593
0.3895	5.84106
0.39	-0.80566
0.3905	-1.71204
0.391	5.13611
0.3915	0.80566
0.392	1.51062
0.3925	5.23682
0.393	3.32336
0.3935	0.50354
0.394	2.31628
0.3945	5.94177
0.395	2.92053
0.3955	7.95593
0.396	4.63257
0.3965	5.74036
0.397	3.62549
0.3975	6.14319
0.398	3.62549
0.3985	6.2439
0.399	1.81274
0.3995	0.20142
0.4	3.42407
0.4005	3.02124
0.401	3.8269
0.4015	4.53186
0.402	0.80566
0.4025	5.13611
0.403	7.35168
0.4035	9.06372
0.404	12.99133
0.4045	3.32336
0.405	5.0354
0.4055	3.42407
0.406	3.22266
0.4065	4.33044
0.407	1.81274
0.4075	-0.70496
0.408	4.22974
0.4085	6.14319
0.409	5.33752
0.4095	5.43823
0.41	6.74744
0.4105	2.21558
0.411	-0.20142
0.4115	2.61841
0.412	2.81982
0.4125	2.21558
0.413	7.25098
0.4135	6.64673
0.414	8.05664
0.4145	7.04956
0.415	2.5177
0.4155	1.91345
0.416	5.63965
0.4165	4.22974
0.417	1.10779
0.4175	6.94885
0.418	5.94177
0.4185	5.13611
0.419	1.3092
0.4195	9.26514
0.42	3.7262
0.4205	6.54602
0.421	-1.71204
0.4215	3.22266
0.422	9.97009
0.4225	4.33044
0.423	6.54602
0.4235	5.43823
0.424	11.58142
0.4245	7.85522
0.425	7.15027
0.4255	11.98425
0.426	12.28638
0.4265	4.02832
0.427	1.71204
0.4275	5.94177
0.428	5.63965
0.4285	3.92761
0.429	7.45239
0.4295	2.41699
0.43	5.0354
0.4305	3.22266
0.431	4.73328
0.4315	4.93469
0.432	6.74744
0.4325	5.63965
0.433	2.01416
0.4335	6.54602
0.434	5.74036
0.4345	8.05664
0.435	8.7616
0.4355	2.41699
0.436	2.61841
0.4365	4.53186
0.437	2.61841
0.4375	1.40991
0.438	2.5177
0.4385	2.01416
0.439	5.53894
0.4395	8.15735
0.44	8.25806
0.4405	7.65381
0.441	4.43115
0.4415	6.2439
0.442	6.44531
0.4425	9.16443
0.443	7.35168
0.4435	7.5531
0.444	6.54602
0.4445	3.52478
0.445	1.61133
0.4455	5.43823
0.446	3.22266
0.4465	4.02832
0.447	0.30212
0.4475	1.3092
0.448	3.8269
0.4485	5.13611
0.449	3.52478
0.4495	7.45239
0.45	6.2439
0.4505	3.92761
0.451	5.43823
0.4515	0.60425
0.452	7.95593
0.4525	6.2439
0.453	6.94885
0.4535	6.94885
0.454	8.15735
0.4545	5.94177
0.455	11.58142
0.4555	4.33044
0.456	3.52478
0.4565	2.5177
0.457	8.45947
0.4575	1.40991
0.458	3.12195
0.4585	10.27222
0.459	6.14319
0.4595	5.23682
0.46	5.84106
0.4605	2.5177
0.461	7.25098
0.4615	7.15027
0.462	8.66089
0.4625	4.22974
0.463	-0.20142
0.4635	5.43823
0.464	10.87646
0.4645	1.91345
0.465	4.53186
0.4655	8.25806
0.466	8.05664
0.4665	10.57434
0.467	11.68213
0.4675	7.75452
0.468	4.02832
0.4685	8.7616
0.469	3.32336
0.4695	6.04248
0.47	7.85522
0.4705	5.33752
0.471	2.31628
0.4715	-1.2085
0.472	2.5177
0.4725	8.25806
0.473	5.33752
0.4735	2.5177
0.474	5.94177
0.4745	-0.20142
0.475	6.2439
0.4755	3.22266
0.476	12.38708
0.4765	5.74036
0.477	1.2085
0.4775	3.22266
0.478	1.10779
0.4785	6.2439
0.479	5.33752
0.4795	6.74744
0.48	-0.90637
0.4805	5.43823
0.481	1.3092
0.4815	2.01416
0.482	-1.71204
0.4825	7.04956
0.483	-0.30212
0.4835	2.71912
0.484	5.43823
0.4845	3.22266
0.485	7.15027
0.4855	10.0708
0.486	8.15735
0.4865	9.56726
0.487	2.81982
0.4875	9.46655
0.488	9.76868
0.4885	5.74036
0.489	3.42407
0.4895	4.02832
0.49	8.25806
0.4905	7.85522
0.491	6.64673
0.4915	6.14319
0.492	3.42407
0.4925	5.84106
0.493	6.54602
0.4935	12.08496
0.494	11.38
0.4945	11.48071
0.495	10.57434
0.4955	7.15027
0.496	5.84106
0.4965	5.23682
0.497	6.74744
0.4975	8.7616
0.498	7.04956
0.4985	9.97009
0.499	8.7616
0.4995	9.46655
0.5	6.44531
0.5005	7.95593
0.501	1.71204
0.5015	4.63257
0.502	6.04248
0.5025	9.76868
0.503	9.36584
0.5035	5.23682
0.504	6.64673
0.5045	3.52478
0.505	11.58142
0.5055	5.0354
0.506	5.63965
0.5065	6.84814
0.507	0.60425
0.5075	3.02124
0.508	-4.22974
0.5085	-1.2085
0.509	2.81982
0.5095	4.33044
0.51	0
0.5105	7.25098
0.511	6.3446
0.5115	2.11487
0.512	2.71912
0.5125	0.30212
0.513	2.61841
0.5135	-4.02832
0.514	-0.60425
0.5145	0.80566
0.515	-3.22266
0.5155	2.31628
0.516	2.21558
0.5165	1.00708
0.517	3.8269
0.5175	-3.02124
0.518	-3.42407
0.5185	2.5177
0.519	-5.23682
0.5195	-1.00708
0.52	0.40283
0.5205	-1.10779
0.521	-3.22266
0.5215	-5.43823
0.522	-0.40283
0.5225	-1.71204
0.523	-5.53894
0.5235	-1.51062
0.524	-2.71912
0.5245	0.70496
0.525	1.00708
0.5255	-0.10071
0.526	-0.20142
0.5265	-3.7262
0.527	3.12195
0.5275	-1.71204
0.528	0.90637
0.5285	2.81982
0.529	-0.50354
0.5295	2.41699
0.53	2.41699
0.5305	7.35168
0.531	-0.80566
0.5315	-3.22266
0.532	-1.3092
0.5325	-1.81274
0.533	2.5177
0.5335	2.61841
0.534	5.0354
0.5345	3.42407
0.535	-4.22974
0.5355	-2.41699
0.536	-1.00708
0.5365	5.13611
0.537	-3.22266
0.5375	1.71204
0.538	2.41699
0.5385	-0.20142
0.539	4.53186
0.5395	5.53894
0.54	6.84814
0.5405	4.73328
0.541	2.31628
0.5415	4.02832
0.542	7.85522
0.5425	5.84106
0.543	11.17859
0.5435	8.05664
0.544	6.04248
0.5445	7.04956
0.545	2.01416
0.5455	3.7262
0.546	-0.20142
0.5465	5.43823
0.547	8.7616
0.5475	3.8269
0.548	4.12903
0.5485	8.35876
0.549	4.33044
0.5495	10.17151
0.55	11.58142
0.5505	9.66797
0.551	13.49487
0.5515	6.84814
0.552	7.25098
0.5525	7.75452
0.553	12.48779
0.5535	8.8623
0.554	7.45239
0.5545	9.46655
0.555	6.3446
0.5555	8.25806
0.556	12.38708
0.5565	8.45947
0.557	9.06372
0.5575	12.18567
0.558	14.30054
0.5585	12.18567
0.559	12.89062
0.5595	11.98425
0.56	12.38708
0.5605	9.46655
0.561	15.71045
0.5615	16.71753
0.562	13.29346
0.5625	14.09912
0.563	14.90479
0.5635	14.70337
0.564	9.36584
0.5645	13.59558
0.565	6.54602
0.5655	12.08496
0.566	12.48779
0.5665	9.36584
0.567	11.2793
0.5675	9.76868
0.568	10.47363
0.5685	12.18567
0.569	8.66089
0.5695	12.68921
0.57	8.05664
0.5705	18.32886
0.571	11.78284
0.5715	7.04956
0.572	14.70337
0.5725	7.65381
0.573	5.43823
0.5735	14.30054
0.574	12.38708
0.5745	11.68213
0.575	9.86938
0.5755	8.15735
0.576	8.66089
0.5765	9.36584
0.577	4.83398
0.5775	7.5531
0.578	6.84814
0.5785	13.89771
0.579	8.15735
0.5795	9.46655
0.58	10.87646
0.5805	8.25806
0.581	4.22974
0.5815	5.84106
0.582	2.5177
0.5825	-1.40991
0.583	3.22266
0.5835	3.42407
0.584	5.94177
0.5845	9.66797
0.585	5.23682
0.5855	4.33044
0.586	1.3092
0.5865	0.10071
0.587	1.71204
0.5875	0.60425
0.588	0.60425
0.5885	6.54602
0.589	6.74744
0.5895	6.2439
0.59	8.66089
0.5905	8.15735
0.591	4.53186
0.5915	4.43115
0.592	3.8269
0.5925	7.15027
0.593	5.74036
0.5935	10.57434
0.594	6.84814
0.5945	6.74744
0.595	8.15735
0.5955	7.45239
0.596	10.0708
0.5965	16.71753
0.597	12.38708
0.5975	5.63965
0.598	11.58142
0.5985	6.3446
0.599	7.04956
0.5995	9.46655
0.6	7.45239
0.6005	7.95593
0.601	10.0708
0.6015	6.44531
0.602	9.26514
0.6025	8.56018
0.603	7.25098
0.6035	10.0708
0.604	6.94885
0.6045	4.02832
0.605	1.40991
0.6055	3.22266
0.606	1.00708
0.6065	0.80566
0.607	9.66797
0.6075	8.45947
0.608	7.45239
0.6085	7.95593
0.609	7.15027
0.6095	6.3446
0.61	6.54602
0.6105	5.84106
0.611	5.63965
0.6115	3.8269
0.612	8.66089
0.6125	10.0708
0.613	1.71204
0.6135	3.7262
0.614	6.2439
0.6145	1.61133
0.615	0.90637
0.6155	7.75452
0.616	4.63257
0.6165	13.09204
0.617	-1.61133
0.6175	5.43823
0.618	3.32336
0.6185	-1.2085
0.619	7.15027
0.6195	4.43115
0.62	3.32336
0.6205	5.23682
0.621	3.92761
0.6215	5.94177
0.622	9.06372
0.6225	3.92761
0.623	3.62549
0.6235	6.84814
0.624	4.12903
0.6245	5.0354
0.625	8.35876
0.6255	6.64673
0.626	6.84814
0.6265	4.73328
0.627	6.64673
0.6275	8.45947
0.628	4.02832
0.6285	5.84106
0.629	6.74744
0.6295	7.25098
0.63	12.89062
0.6305	10.47363
0.631	9.16443
0.6315	11.68213
0.632	4.02832
0.6325	10.37292
0.633	8.56018
0.6335	6.74744
0.634	6.2439
0.6345	3.52478
0.635	3.62549
0.6355	1.51062
0.636	8.96301
0.6365	1.91345
0.637	2.31628
0.6375	3.42407
0.638	0.50354
0.6385	5.13611
0.639	5.74036
0.6395	7.65381
0.64	3.02124
0.6405	5.33752
0.641	6.44531
0.6415	3.92761
0.642	6.54602
0.6425	9.66797
0.643	7.25098
0.6435	8.35876
0.644	7.45239
0.6445	7.15027
0.645	1.61133
0.6455	1.71204
0.646	1.61133
0.6465	5.13611
0.647	2.41699
0.6475	8.56018
0.648	2.5177
0.6485	5.43823
0.649	2.81982
0.6495	0
0.65	8.96301
0.6505	1.61133
0.651	4.73328
0.6515	6.94885
0.652	7.35168
0.6525	3.22266
0.653	5.94177
0.6535	1.71204
0.654	7.5531
0.6545	9.97009
0.655	14.19983
0.6555	8.8623
0.656	4.22974
0.6565	6.94885
0.657	3.7262
0.6575	2.71912
0.658	4.12903
0.6585	6.84814
0.659	3.62549
0.6595	7.35168
0.66	7.35168
0.6605	4.12903
0.661	8.66089
0.6615	4.83398
0.662	7.5531
0.6625	6.84814
0.663	6.84814
0.6635	9.16443
0.664	5.0354
0.6645	5.23682
0.665	2.41699
0.6655	4.53186
0.666	2.11487
0.6665	-0.90637
0.667	7.5531
0.6675	1.40991
0.668	0.90637
0.6685	3.92761
0.669	5.33752
0.6695	8.25806
0.67	5.53894
0.6705	8.7616
0.671	4.83398
0.6715	9.36584
0.672	7.65381
0.6725	4.33044
0.673	10.27222
0.6735	5.53894
0.674	10.87646
0.6745	6.2439
0.675	7.85522
0.6755	6.04248
0.676	6.04248
0.6765	4.93469
0.677	6.3446
0.6775	2.31628
0.678	6.54602
0.6785	7.15027
0.679	8.8623
0.6795	1.61133
0.68	-1.91345
0.6805	3.42407
0.681	4.02832
0.6815	10.77576
0.682	5.84106
0.6825	4.33044
0.683	3.12195
0.6835	3.42407
0.684	2.61841
0.6845	4.12903
0.685	11.58142
0.6855	6.14319
0.686	2.01416
0.6865	0.70496
0.687	3.12195
0.6875	4.12903
0.688	6.04248
0.6885	2.5177
0.689	5.43823
0.6895	3.22266
0.69	2.11487
0.6905	5.63965
0.691	8.05664
0.6915	3.32336
0.692	6.14319
0.6925	9.46655
0.693	7.15027
0.6935	8.96301
0.694	5.13611
0.6945	4.93469
0.695	5.84106
0.6955	5.63965
0.696	0.70496
0.6965	6.64673
0.697	0.80566
0.6975	4.12903
0.698	5.13611
0.6985	2.31628
0.699	8.45947
0.6995	6.3446
0.7	3.22266
0.7005	4.63257
0.701	4.63257
0.7015	10.87646
0.702	6.44531
0.7025	6.3446
0.703	7.5531
0.7035	10.77576
0.704	4.12903
0.7045	0.40283
0.705	10.17151
0.7055	-0.80566
0.706	5.53894
0.7065	2.81982
0.707	3.02124
0.7075	2.61841
0.708	-2.21558
0.7085	2.41699
0.709	5.74036
0.7095	1.2085
0.71	-0.50354
0.7105	2.92053
0.711	1.00708
0.7115	-1.81274
0.712	4.12903
0.7125	-1.71204
0.713	3.22266
0.7135	4.33044
0.714	3.62549
0.7145	4.93469
0.715	4.73328
0.7155	5.74036
0.716	6.2439
0.7165	6.04248
0.717	11.48071
0.7175	7.65381
0.718	7.75452
0.7185	5.23682
0.719	7.75452
0.7195	7.04956
0.72	7.04956
0.7205	2.71912
0.721	11.17859
0.7215	-0.40283
0.722	7.15027
0.7225	12.89062
0.723	7.04956
0.7235	11.07788
0.724	5.23682
0.7245	4.93469
0.725	7.35168
0.7255	10.0708
0.726	10.57434
0.7265	6.94885
0.727	9.16443
0.7275	5.33752
0.728	6.54602
0.7285	4.83398
0.729	3.52478
0.7295	7.35168
0.73	8.15735
0.7305	9.97009
0.731	4.83398
0.7315	8.25806
0.732	2.01416
0.7325	3.52478
0.733	-1.51062
0.7335	0.10071
0.734	5.63965
0.7345	7.5531
0.735	6.74744
0.7355	5.63965
0.736	2.92053
0.7365	6.44531
0.737	5.33752
0.7375	11.38
0.738	8.8623
0.7385	2.81982
0.739	6.44531
0.7395	8.56018
0.74	9.16443
0.7405	9.66797
0.741	3.92761
0.7415	4.02832
0.742	4.22974
0.7425	10.17151
0.743	7.15027
0.7435	7.35168
0.744	3.8269
0.7445	3.32336
0.745	6.04248
0.7455	5.84106
0.746	6.14319
0.7465	9.16443
0.747	8.56018
0.7475	4.33044
0.748	6.04248
0.7485	4.33044
0.749	7.35168
0.7495	10.47363
0.75	6.54602
0.7505	6.64673
0.751	8.25806
0.7515	-0.70496
0.752	11.68213
0.7525	7.75452
0.753	11.78284
0.7535	12.5885
0.754	10.0708
0.7545	5.13611
0.755	7.35168
0.7555	9.36584
0.756	5.43823
0.7565	3.62549
0.757	4.93469
0.7575	9.16443
0.758	4.53186
0.7585	3.02124
0.759	7.45239
0.7595	5.84106
0.76	3.42407
0.7605	7.15027
0.761	12.78992
0.7615	3.32336
0.762	7.75452
0.7625	6.94885
0.763	9.36584
0.7635	10.17151
0.764	8.8623
0.7645	5.94177
0.765	7.65381
0.7655	9.26514
0.766	2.21558
0.7665	6.44531
0.767	5.0354
0.7675	9.36584
0.768	6.74744
0.7685	4.83398
0.769	2.41699
0.7695	4.63257
0.77	2.11487
0.7705	6.14319
0.771	5.23682
0.7715	3.22266
0.772	2.81982
0.7725	5.33752
0.773	7.35168
0.7735	0.70496
0.774	3.22266
0.7745	3.7262
0.775	5.53894
0.7755	7.85522
0.776	1.81274
0.7765	11.2793
0.777	5.84106
0.7775	4.53186
0.778	6.54602
0.7785	4.22974
0.779	4.53186
0.7795	8.7616
0.78	8.25806
0.7805	1.91345
0.781	6.54602
0.7815	2.31628
0.782	2.81982
0.7825	7.25098
0.783	5.43823
0.7835	3.42407
0.784	4.22974
0.7845	10.17151
0.785	5.84106
0.7855	5.63965
0.786	10.77576
0.7865	4.93469
0.787	4.83398
0.7875	11.78284
0.788	6.3446
0.7885	6.04248
0.789	3.8269
0.7895	2.01416
0.79	4.73328
0.7905	5.74036
0.791	4.73328
0.7915	3.32336
0.792	5.23682
0.7925	3.32336
0.793	-0.80566
0.7935	6.3446
0.794	5.43823
0.7945	1.71204
0.795	4.22974
0.7955	6.84814
0.796	5.74036
0.7965	9.86938
0.797	7.15027
0.7975	-0.50354
0.798	5.13611
0.7985	8.05664
0.799	2.71912
0.7995	2.31628
0.8	3.42407
0.8005	6.04248
0.801	7.35168
0.8015	9.06372
0.802	8.15735
0.8025	3.8269
0.803	8.7616
0.8035	6.3446
0.804	4.53186
0.8045	4.83398
0.805	1.00708
0.8055	5.84106
0.806	6.14319
0.8065	6.64673
0.807	6.04248
0.8075	1.91345
0.808	13.39417
0.8085	13.797
0.809	4.43115
0.8095	1.91345
0.81	6.84814
0.8105	10.27222
0.811	10.37292
0.8115	6.64673
0.812	3.22266
0.8125	10.57434
0.813	4.93469
0.8135	10.17151
0.814	11.17859
0.8145	10.0708
0.815	9.56726
0.8155	5.43823
0.816	6.14319
0.8165	10.17151
0.817	8.05664
0.8175	12.28638
0.818	6.64673
0.8185	8.15735
0.819	5.53894
0.8195	11.68213
0.82	15.20691
0.8205	7.85522
0.821	7.15027
0.8215	12.48779
0.822	5.63965
0.8225	5.74036
0.823	5.53894
0.8235	1.10779
0.824	7.45239
0.8245	9.16443
0.825	8.66089
0.8255	11.07788
0.826	10.47363
0.8265	7.35168
0.827	9.46655
0.8275	7.25098
0.828	9.56726
0.8285	5.53894
0.829	4.22974
0.8295	5.13611
0.83	10.27222
0.8305	5.23682
0.831	4.63257
0.8315	4.63257
0.832	-1.10779
0.8325	4.43115
0.833	6.04248
0.8335	9.66797
0.834	5.74036
0.8345	3.02124
0.835	6.84814
0.8355	3.8269
0.836	6.74744
0.8365	9.36584
0.837	8.56018
0.8375	7.65381
0.838	9.06372
0.8385	9.66797
0.839	8.25806
0.8395	5.74036
0.84	10.77576
0.8405	10.87646
0.841	6.84814
0.8415	6.74744
0.842	7.65381
0.8425	3.32336
0.843	3.42407
0.8435	8.25806
0.844	7.85522
0.8445	7.45239
0.845	9.36584
0.8455	11.07788
0.846	9.46655
0.8465	4.63257
0.847	5.63965
0.8475	3.92761
0.848	7.25098
0.8485	5.84106
0.849	-1.2085
0.8495	5.33752
0.85	7.35168
0.8505	5.0354
0.851	11.38
0.8515	6.54602
0.852	9.36584
0.8525	2.11487
0.853	6.2439
0.8535	5.74036
0.854	5.43823
0.8545	3.32336
0.855	2.5177
0.8555	3.42407
0.856	5.74036
0.8565	4.12903
0.857	6.2439
0.8575	4.12903
0.858	4.93469
0.8585	5.33752
0.859	7.95593
0.8595	5.0354
0.86	11.48071
0.8605	7.35168
0.861	9.97009
0.8615	4.73328
0.862	4.43115
0.8625	6.54602
0.863	3.8269
0.8635	2.01416
0.864	8.8623
0.8645	0.80566
0.865	5.33752
0.8655	4.93469
0.866	14.90479
0.8665	10.17151
0.867	8.96301
0.8675	5.33752
0.868	3.92761
0.8685	2.11487
0.869	7.15027
0.8695	8.45947
0.87	4.73328
0.8705	6.54602
0.871	2.11487
0.8715	1.91345
0.872	5.84106
0.8725	13.29346
0.873	13.59558
0.8735	7.65381
0.874	8.45947
0.8745	4.22974
0.875	5.0354
0.8755	3.22266
0.876	6.44531
0.8765	10.27222
0.877	7.45239
0.8775	3.52478
0.878	1.91345
0.8785	9.86938
0.879	11.17859
0.8795	4.43115
0.88	5.63965
0.8805	2.71912
0.881	9.97009
0.8815	4.02832
0.882	4.63257
0.8825	7.25098
0.883	7.5531
0.8835	7.5531
0.884	8.15735
0.8845	5.94177
0.885	10.77576
0.8855	10.37292
0.886	10.77576
0.8865	2.92053
0.887	3.92761
0.8875	6.3446
0.888	2.61841
0.8885	4.43115
0.889	4.12903
0.8895	3.42407
0.89	6.04248
0.8905	-1.81274
0.891	-1.71204
0.8915	3.32336
0.892	3.32336
0.8925	1.2085
0.893	-0.90637
0.8935	5.13611
0.894	6.04248
0.8945	5.0354
0.895	4.73328
0.8955	0.60425
0.896	-2.21558
0.8965	4.83398
0.897	8.05664
0.8975	6.74744
0.898	6.74744
0.8985	0.30212
0.899	4.12903
0.8995	7.25098
0.9	5.53894
0.9005	3.12195
0.901	4.12903
0.9015	1.2085
0.902	3.7262
0.9025	7.15027
0.903	5.23682
0.9035	5.53894
0.904	4.73328
0.9045	7.85522
0.905	0
0.9055	3.92761
0.906	4.63257
0.9065	7.04956
0.907	1.51062
0.9075	4.33044
0.908	4.93469
0.9085	4.83398
0.909	1.61133
0.9095	2.01416
0.91	3.92761
0.9105	1.10779
0.911	1.61133
0.9115	4.02832
0.912	4.53186
0.9125	-0.20142
0.913	3.02124
0.9135	0.10071
0.914	4.83398
0.9145	2.21558
0.915	5.74036
0.9155	8.66089
0.916	8.66089
0.9165	3.8269
0.917	6.2439
0.9175	2.01416
0.918	5.13611
0.9185	4.73328
0.919	5.74036
0.9195	2.11487
0.92	3.02124
0.9205	0.50354
0.921	8.25806
0.9215	6.44531
0.922	4.02832
0.9225	2.61841
0.923	1.00708
0.9235	10.87646
0.924	7.75452
0.9245	8.96301
0.925	2.61841
0.9255	4.83398
0.926	5.53894
0.9265	8.8623
0.927	4.93469
0.9275	9.26514
0.928	5.84106
0.9285	5.33752
0.929	3.32336
0.9295	7.85522
0.93	0.90637
0.9305	4.53186
0.931	7.65381
0.9315	2.81982
0.932	6.44531
0.9325	4.53186
0.933	2.31628
0.9335	9.56726
0.934	9.66797
0.9345	4.53186
0.935	-1.00708
0.9355	4.33044
0.936	9.97009
0.9365	7.04956
0.937	13.49487
0.9375	0.60425
0.938	6.3446
0.9385	0.30212
0.939	2.81982
0.9395	3.32336
0.94	1.71204
0.9405	8.15735
0.941	4.93469
0.9415	10.47363
0.942	3.22266
0.9425	3.12195
0.943	4.02832
0.9435	0.90637
0.944	6.64673
0.9445	4.02832
0.945	6.74744
0.9455	2.41699
0.946	2.11487
0.9465	3.7262
0.947	2.92053
0.9475	6.84814
0.948	3.32336
0.9485	-0.10071
0.949	3.92761
0.9495	4.63257
0.95	6.54602
0.9505	6.64673
0.951	8.7616
0.9515	5.94177
0.952	2.61841
0.9525	6.64673
0.953	2.71912
0.9535	6.94885
0.954	2.41699
0.9545	6.2439
0.955	3.7262
0.9555	5.23682
0.956	-2.81982
0.9565	2.01416
0.957	3.02124
0.9575	7.15027
0.958	9.06372
0.9585	9.86938
0.959	9.26514
0.9595	6.94885
0.96	9.16443
0.9605	6.14319
0.961	2.81982
0.9615	1.2085
0.962	4.12903
0.9625	8.45947
0.963	2.92053
0.9635	4.22974
0.964	8.35876
0.9645	13.49487
0.965	6.44531
0.9655	6.84814
0.966	5.0354
0.9665	10.47363
0.967	4.93469
0.9675	11.78284
0.968	7.45239
0.9685	12.08496
0.969	4.02832
0.9695	2.61841
0.97	4.53186
0.9705	3.42407
0.971	5.23682
0.9715	5.23682
0.972	4.33044
0.9725	3.32336
0.973	-1.00708
0.9735	5.63965
0.974	7.04956
0.9745	12.5885
0.975	4.43115
0.9755	11.48071
0.976	7.75452
0.9765	8.45947
0.977	4.43115
0.9775	6.3446
0.978	5.94177
0.9785	6.04248
0.979	3.22266
0.9795	1.51062
0.98	3.8269
0.9805	4.73328
0.981	3.52478
0.9815	5.94177
0.982	10.27222
0.9825	2.92053
0.983	11.07788
0.9835	11.68213
0.984	5.13611
0.9845	8.66089
0.985	2.21558
0.9855	9.26514
0.986	8.7616
0.9865	3.32336
0.987	3.02124
0.9875	6.04248
0.988	14.50195
0.9885	7.5531
0.989	5.53894
0.9895	6.74744
0.99	7.35168
0.9905	4.53186
0.991	4.12903
0.9915	1.2085
0.992	4.12903
0.9925	2.61841
0.993	3.42407
0.9935	7.45239
0.994	4.83398
0.9945	7.15027
0.995	5.43823
0.9955	3.8269
0.996	4.83398
0.9965	5.23682
0.997	6.84814
0.9975	7.95593
0.998	6.84814
0.9985	7.65381
0.999	11.78284
0.9995	9.56726
1	6.14319
1.0005	4.12903
1.001	6.3446
1.0015	10.0708
1.002	3.42407
1.0025	4.53186
1.003	5.33752
1.0035	7.75452
1.004	5.63965
1.0045	6.64673
1.005	8.45947
1.0055	3.32336
1.006	6.74744
1.0065	7.04956
1.007	6.44531
1.0075	4.53186
1.008	3.02124
1.0085	4.53186
1.009	4.33044
1.0095	4.53186
1.01	0.80566
1.0105	2.41699
1.011	7.85522
1.0115	-1.81274
1.012	3.22266
1.0125	4.83398
1.013	6.54602
1.0135	3.52478
1.014	0.20142
1.0145	3.92761
1.015	2.01416
1.0155	11.88354
1.016	4.73328
1.0165	5.43823
1.017	4.53186
1.0175	8.35876
1.018	8.05664
1.0185	5.33752
1.019	5.94177
1.0195	7.25098
1.02	10.0708
1.0205	13.19275
1.021	8.05664
1.0215	12.5885
1.022	9.26514
1.0225	7.04956
1.023	7.5531
1.0235	4.33044
1.024	6.54602
1.0245	1.2085
1.025	7.65381
1.0255	3.8269
1.026	7.45239
1.0265	6.3446
1.027	6.14319
1.0275	12.08496
1.028	8.15735
1.0285	11.88354
1.029	0.60425
1.0295	2.61841
1.03	9.26514
1.0305	9.86938
1.031	9.06372
1.0315	5.33752
1.032	5.94177
1.0325	8.35876
1.033	12.68921
1.0335	6.44531
1.034	3.42407
1.0345	5.0354
1.035	3.22266
1.0355	6.2439
1.036	9.26514
1.0365	8.8623
1.037	9.86938
1.0375	9.56726
1.038	2.92053
1.0385	8.15735
1.039	6.94885
1.0395	6.3446
1.04	6.64673
1.0405	6.2439
1.041	0.30212
1.0415	5.84106
1.042	8.8623
1.0425	5.74036
1.043	5.13611
1.0435	-1.40991
1.044	7.35168
1.0445	3.12195
1.045	7.25098
1.0455	7.85522
1.046	3.22266
1.0465	4.73328
1.047	-0.10071
1.0475	2.31628
1.048	1.3092
1.0485	5.53894
1.049	3.02124
1.0495	5.43823
1.05	2.31628
1.0505	5.23682
1.051	4.43115
1.0515	8.15735
1.052	9.97009
1.0525	6.04248
1.053	9.66797
1.0535	9.06372
1.054	10.97717
1.0545	11.07788
1.055	11.2793
1.0555	4.73328
1.056	4.22974
1.0565	8.56018
1.057	4.12903
1.0575	9.46655
1.058	9.97009
1.0585	6.64673
1.059	3.7262
1.0595	3.92761
1.06	2.71912
1.0605	10.17151
1.061	8.96301
1.0615	7.45239
1.062	3.7262
1.0625	6.64673
1.063	1.40991
1.0635	0.20142
1.064	0.70496
1.0645	7.95593
1.065	9.16443
1.0655	5.33752
1.066	-4.02832
1.0665	-1.81274
1.067	5.53894
1.0675	4.93469
1.068	3.02124
1.0685	6.54602
1.069	6.84814
1.0695	7.45239
1.07	6.44531
1.0705	3.62549
1.071	1.3092
1.0715	5.43823
1.072	4.53186
1.0725	5.23682
1.073	4.53186
1.0735	-1.10779
1.074	5.13611
1.0745	6.74744
1.075	9.06372
1.0755	8.8623
1.076	1.91345
1.0765	5.43823
1.077	2.61841
1.0775	10.87646
1.078	9.66797
1.0785	8.7616
1.079	7.95593
1.0795	9.46655
1.08	4.43115
1.0805	10.77576
1.081	10.87646
1.0815	8.66089
1.082	3.52478
1.0825	8.15735
1.083	7.15027
1.0835	7.85522
1.084	7.25098
1.0845	4.33044
1.085	9.16443
1.0855	10.17151
1.086	11.17859
1.0865	4.12903
1.087	3.32336
1.0875	8.45947
1.088	6.2439
1.0885	-0.20142
1.089	-0.20142
1.0895	8.96301
1.09	3.92761
1.0905	6.04248
1.091	6.44531
1.0915	7.45239
1.092	2.21558
1.0925	5.0354
1.093	7.85522
1.0935	0.80566
1.094	5.74036
1.0945	4.33044
1.095	3.92761
1.0955	5.84106
1.096	4.63257
1.0965	4.93469
1.097	6.64673
1.0975	8.56018
1.098	10.67505
1.0985	5.53894
1.099	5.23682
1.0995	7.45239
1.1	6.94885
1.1005	3.12195
1.101	12.68921
1.1015	1.71204
1.102	5.23682
1.1025	9.86938
1.103	14.30054
1.1035	12.99133
1.104	8.66089
1.1045	4.53186
1.105	6.74744
1.1055	7.15027
1.106	6.14319
1.1065	4.12903
1.107	8.15735
1.1075	4.93469
1.108	12.18567
1.1085	9.16443
1.109	9.16443
1.1095	5.23682
1.11	8.7616
1.1105	8.66089
1.111	7.85522
1.1115	5.23682
1.112	5.13611
1.1125	8.45947
1.113	4.02832
1.1135	6.64673
1.114	11.78284
1.1145	10.97717
1.115	9.56726
1.1155	6.54602
1.116	4.83398
1.1165	2.31628
1.117	7.75452
1.1175	6.94885
1.118	9.26514
1.1185	9.76868
1.119	10.57434
1.1195	9.56726
1.12	6.94885
1.1205	6.2439
1.121	7.5531
1.1215	8.35876
1.122	8.15735
1.1225	4.73328
1.123	2.61841
1.1235	3.12195
1.124	3.42407
1.1245	6.3446
1.125	5.43823
1.1255	7.45239
1.126	5.0354
1.1265	5.53894
1.127	3.32336
1.1275	4.43115
1.128	8.35876
1.1285	4.12903
1.129	2.01416
1.1295	6.04248
1.13	4.63257
1.1305	7.5531
1.131	7.15027
1.1315	8.66089
1.132	7.04956
1.1325	5.23682
1.133	8.96301
1.1335	6.54602
1.134	7.25098
1.1345	3.32336
1.135	4.02832
1.1355	0.30212
1.136	1.71204
1.1365	7.5531
1.137	8.96301
1.1375	10.17151
1.138	8.45947
1.1385	7.65381
1.139	8.56018
1.1395	5.84106
1.14	2.11487
1.1405	6.64673
1.141	8.45947
1.1415	4.02832
1.142	8.35876
1.1425	1.91345
1.143	6.54602
1.1435	7.45239
1.144	6.3446
1.1445	7.35168
1.145	1.91345
1.1455	5.13611
1.146	4.93469
1.1465	5.94177
1.147	10.87646
1.1475	0
1.148	5.23682
1.1485	3.62549
1.149	4.43115
1.1495	1.51062
1.15	-2.21558
1.1505	1.2085
1.151	2.11487
1.1515	9.16443
1.152	9.66797
1.1525	7.35168
1.153	3.12195
1.1535	7.85522
1.154	-0.30212
1.1545	6.04248
1.155	6.74744
1.1555	7.5531
1.156	7.45239
1.1565	3.8269
1.157	4.43115
1.1575	8.66089
1.158	8.15735
1.1585	2.31628
1.159	8.96301
1.1595	4.93469
1.16	3.32336
1.1605	3.8269
1.161	3.32336
1.1615	2.11487
1.162	-1.40991
1.1625	0.60425
1.163	6.54602
1.1635	7.65381
1.164	4.43115
1.1645	5.63965
1.165	6.2439
1.1655	4.33044
1.166	7.35168
1.1665	4.93469
1.167	6.64673
1.1675	4.53186
1.168	1.3092
1.1685	-0.60425
1.169	7.04956
1.1695	4.83398
1.17	6.64673
1.1705	4.53186
1.171	3.12195
1.1715	4.43115
1.172	4.63257
1.1725	3.7262
1.173	2.21558
1.1735	8.15735
1.174	4.83398
1.1745	6.84814
1.175	5.23682
1.1755	9.76868
1.176	7.04956
1.1765	4.53186
1.177	7.25098
1.1775	9.16443
1.178	8.66089
1.1785	9.06372
1.179	6.2439
1.1795	5.74036
1.18	3.32336
1.1805	7.25098
1.181	6.44531
1.1815	3.52478
1.182	9.66797
1.1825	5.23682
1.183	6.2439
1.1835	5.13611
1.184	8.8623
1.1845	10.0708
1.185	6.84814
1.1855	9.16443
1.186	2.5177
1.1865	9.66797
1.187	3.8269
1.1875	10.37292
1.188	11.2793
1.1885	7.5531
1.189	6.54602
1.1895	8.8623
1.19	13.99841
1.1905	12.28638
1.191	5.13611
1.1915	5.13611
1.192	6.2439
1.1925	-0.50354
1.193	3.32336
1.1935	3.8269
1.194	7.45239
1.1945	7.45239
1.195	6.54602
1.1955	3.8269
1.196	7.85522
1.1965	3.62549
1.197	4.02832
1.1975	-0.40283
1.198	8.05664
1.1985	7.04956
1.199	8.56018
1.1995	7.75452
1.2	0.10071
1.2005	9.26514
1.201	5.23682
1.2015	3.62549
1.202	4.12903
1.2025	-2.01416
1.203	4.33044
1.2035	2.5177
1.204	0.40283
1.2045	-2.92053
1.205	3.8269
1.2055	8.05664
1.206	6.04248
1.2065	6.04248
1.207	10.67505
1.2075	-0.50354
1.208	3.8269
1.2085	4.43115
1.209	0.50354
1.2095	1.71204
1.21	6.74744
1.2105	6.2439
1.211	4.83398
1.2115	0.20142
1.212	6.54602
1.2125	4.53186
1.213	5.63965
1.2135	6.64673
1.214	6.64673
1.2145	5.0354
1.215	3.52478
1.2155	6.54602
1.216	6.84814
1.2165	6.54602
1.217	9.06372
1.2175	2.11487
1.218	5.63965
1.2185	9.97009
1.219	8.45947
1.2195	9.16443
1.22	9.86938
1.2205	9.06372
1.221	7.35168
1.2215	6.04248
1.222	3.7262
1.2225	1.40991
1.223	5.23682
1.2235	7.45239
1.224	6.74744
1.2245	5.0354
1.225	7.65381
1.2255	5.84106
1.226	5.63965
1.2265	10.57434
1.227	7.65381
1.2275	3.7262
1.228	9.36584
1.2285	12.28638
1.229	12.28638
1.2295	8.66089
1.23	5.84106
1.2305	-1.3092
1.231	-4.83398
1.2315	5.43823
1.232	2.61841
1.2325	7.75452
1.233	6.74744
1.2335	6.64673
1.234	7.95593
1.2345	3.12195
1.235	3.02124
1.2355	4.12903
1.236	5.0354
1.2365	4.93469
1.237	3.32336
1.2375	5.23682
1.238	7.5531
1.2385	4.22974
1.239	7.35168
1.2395	5.94177
1.24	5.84106
1.2405	1.10779
1.241	5.33752
1.2415	0
1.242	6.2439
1.2425	4.63257
1.243	11.38
1.2435	10.37292
1.244	9.76868
1.2445	6.84814
1.245	7.25098
1.2455	5.33752
1.246	8.05664
1.2465	7.65381
1.247	7.25098
1.2475	2.5177
1.248	1.10779
1.2485	6.44531
1.249	6.04248
1.2495	9.76868
1.25	7.95593
1.2505	8.25806
1.251	7.65381
1.2515	2.01416
1.252	2.01416
1.2525	8.7616
1.253	13.19275
1.2535	5.63965
1.254	7.75452
1.2545	10.57434
1.255	6.44531
1.2555	7.15027
1.256	0.90637
1.2565	8.66089
1.257	9.36584
1.2575	5.43823
1.258	4.22974
1.2585	9.06372
1.259	11.68213
1.2595	4.43115
1.26	5.84106
1.2605	6.64673
1.261	1.3092
1.2615	8.66089
1.262	9.06372
1.2625	5.84106
1.263	3.92761
1.2635	9.56726
1.264	6.3446
1.2645	8.8623
1.265	9.76868
1.2655	5.63965
1.266	6.2439
1.2665	6.14319
1.267	6.3446
1.2675	4.73328
1.268	5.74036
1.2685	6.44531
1.269	7.65381
1.2695	7.35168
1.27	5.74036
1.2705	3.32336
1.271	3.62549
1.2715	1.10779
1.272	4.63257
1.2725	5.33752
1.273	6.3446
1.2735	4.43115
1.274	4.93469
1.2745	2.41699
1.275	0.80566
1.2755	5.0354
1.276	4.12903
1.2765	1.71204
1.277	4.63257
1.2775	3.02124
1.278	3.52478
1.2785	5.13611
1.279	3.02124
1.2795	3.22266
1.28	7.75452
1.2805	8.66089
1.281	10.0708
1.2815	7.5531
1.282	5.84106
1.2825	4.93469
1.283	9.26514
1.2835	1.3092
1.284	1.2085
1.2845	-3.02124
1.285	2.41699
1.2855	2.81982
1.286	2.41699
1.2865	5.53894
1.287	4.22974
1.2875	7.65381
1.288	5.0354
1.2885	3.8269
1.289	6.84814
1.2895	4.02832
1.29	6.04248
1.2905	6.2439
1.291	3.92761
1.2915	3.02124
1.292	2.81982
1.2925	7.75452
1.293	4.22974
1.2935	6.84814
1.294	3.42407
1.2945	8.96301
1.295	6.74744
1.2955	6.14319
1.296	2.81982
1.2965	7.5531
1.297	1.61133
1.2975	0.90637
1.298	2.81982
1.2985	0.70496
1.299	10.27222
1.2995	8.8623
1.3	5.63965
1.3005	0.40283
1.301	3.8269
1.3015	3.8269
1.302	5.94177
1.3025	1.40991
1.303	5.84106
1.3035	2.01416
1.304	0.60425
1.3045	6.64673
1.305	5.23682
1.3055	5.13611
1.306	6.54602
1.3065	2.11487
1.307	7.15027
1.3075	8.7616
1.308	7.75452
1.3085	2.41699
1.309	4.53186
1.3095	6.04248
1.31	9.56726
1.3105	3.92761
1.311	4.22974
1.3115	-0.70496
1.312	5.63965
1.3125	-2.01416
1.313	0.10071
1.3135	2.81982
1.314	9.16443
1.3145	4.63257
1.315	9.76868
1.3155	5.33752
1.316	7.35168
1.3165	0.60425
1.317	2.81982
1.3175	4.43115
1.318	1.71204
1.3185	4.93469
1.319	10.37292
1.3195	8.56018
1.32	6.44531
1.3205	6.44531
1.321	7.75452
1.3215	7.25098
1.322	11.88354
1.3225	6.54602
1.323	9.66797
1.3235	5.63965
1.324	6.3446
1.3245	4.63257
1.325	10.97717
1.3255	4.02832
1.326	7.45239
1.3265	8.25806
1.327	8.96301
1.3275	9.97009
1.328	2.5177
1.3285	-0.10071
1.329	2.71912
1.3295	2.92053
1.33	2.41699
1.3305	0.50354
1.331	4.02832
1.3315	3.12195
1.332	0.60425
1.3325	1.2085
1.333	-0.40283
1.3335	1.61133
1.334	4.73328
1.3345	0.10071
1.335	2.61841
1.3355	2.21558
1.336	4.22974
1.3365	4.22974
1.337	5.23682
1.3375	5.0354
1.338	6.94885
1.3385	4.73328
1.339	1.81274
1.3395	7.15027
1.34	3.32336
1.3405	4.33044
1.341	8.66089
1.3415	9.36584
1.342	7.65381
1.3425	7.35168
1.343	2.71912
1.3435	3.8269
1.344	6.3446
1.3445	6.74744
1.345	7.04956
1.3455	6.3446
1.346	5.53894
1.3465	3.02124
1.347	5.74036
1.3475	3.02124
1.348	8.56018
1.3485	9.56726
1.349	2.31628
1.3495	4.83398
1.35	7.65381
1.3505	8.7616
1.351	6.14319
1.3515	11.98425
1.352	9.76868
1.3525	5.74036
1.353	2.71912
1.3535	5.43823
1.354	5.33752
1.3545	7.45239
1.355	12.5885
1.3555	5.63965
1.356	-0.70496
1.3565	3.7262
1.357	5.63965
1.3575	4.02832
1.358	5.94177
1.3585	10.67505
1.359	4.93469
1.3595	8.96301
1.36	10.47363
1.3605	12.08496
1.361	11.98425
1.3615	6.2439
1.362	4.83398
1.3625	9.16443
1.363	7.35168
1.3635	10.27222
1.364	5.33752
1.3645	6.74744
1.365	8.45947
1.3655	3.7262
1.366	2.31628
1.3665	6.14319
1.367	9.66797
1.3675	7.85522
1.368	11.07788
1.3685	13.49487
1.369	8.25806
1.3695	6.3446
1.37	8.66089
1.3705	8.35876
1.371	4.43115
1.3715	4.93469
1.372	2.01416
1.3725	5.0354
1.373	5.53894
1.3735	-0.70496
1.374	2.5177
1.3745	-1.71204
1.375	7.35168
1.3755	9.16443
1.376	3.42407
1.3765	1.61133
1.377	4.22974
1.3775	6.84814
1.378	5.43823
1.3785	6.94885
1.379	6.54602
1.3795	6.84814
1.38	7.25098
1.3805	7.65381
1.381	3.62549
1.3815	6.54602
1.382	4.83398
1.3825	11.48071
1.383	3.8269
1.3835	4.83398
1.384	7.95593
1.3845	7.15027
1.385	9.16443
1.3855	7.35168
1.386	5.13611
1.3865	2.5177
1.387	9.26514
1.3875	5.84106
1.388	0.90637
1.3885	-0.70496
1.389	11.48071
1.3895	7.5531
1.39	4.33044
1.3905	0.10071
1.391	4.02832
1.3915	1.00708
1.392	4.02832
1.3925	6.74744
1.393	2.81982
1.3935	3.22266
1.394	5.94177
1.3945	8.45947
1.395	1.81274
1.3955	4.63257
1.396	6.74744
1.3965	8.66089
1.397	4.83398
1.3975	8.7616
1.398	4.93469
1.3985	2.31628
1.399	5.74036
1.3995	10.0708
1.4	10.57434
1.4005	8.45947
1.401	5.74036
1.4015	15.20691
1.402	8.05664
1.4025	16.21399
1.403	9.66797
1.4035	10.57434
1.404	8.8623
1.4045	8.66089
1.405	7.65381
1.4055	0
1.406	6.3446
1.4065	10.47363
1.407	3.32336
1.4075	7.04956
1.408	8.25806
1.4085	6.3446
1.409	5.53894
1.4095	4.93469
1.41	7.85522
1.4105	6.2439
1.411	7.95593
1.4115	9.66797
1.412	11.88354
1.4125	5.84106
1.413	1.71204
1.4135	11.2793
1.414	9.26514
1.4145	7.5531
1.415	3.12195
1.4155	3.32336
1.416	1.81274
1.4165	5.43823
1.417	4.02832
1.4175	11.38
1.418	8.8623
1.4185	10.87646
1.419	9.76868
1.4195	11.98425
1.42	11.88354
1.4205	4.63257
1.421	10.27222
1.4215	10.57434
1.422	11.48071
1.4225	7.35168
1.423	4.02832
1.4235	0.80566
1.424	2.01416
1.4245	2.41699
1.425	0.40283
1.4255	1.81274
1.426	5.0354
1.4265	-2.21558
1.427	2.81982
1.4275	0.70496
1.428	5.43823
1.4285	1.91345
1.429	1.3092
1.4295	6.2439
1.43	1.51062
1.4305	4.43115
1.431	4.73328
1.4315	5.43823
1.432	7.65381
1.4325	4.53186
1.433	3.12195
1.4335	-0.70496
1.434	-0.40283
1.4345	2.81982
1.435	4.63257
1.4355	4.12903
1.436	4.43115
1.4365	7.45239
1.437	2.81982
1.4375	2.41699
1.438	3.02124
1.4385	3.42407
1.439	-1.40991
1.4395	-6.54602
1.44	3.7262
1.4405	2.21558
1.441	-3.12195
1.4415	-4.53186
1.442	-2.61841
1.4425	0.60425
1.443	-1.51062
1.4435	-3.7262
1.444	-0.30212
1.4445	3.8269
1.445	0.60425
1.4455	-0.70496
1.446	1.40991
1.4465	-3.52478
1.447	2.21558
1.4475	1.61133
1.448	-3.62549
1.4485	0
1.449	-2.31628
1.4495	-3.92761
1.45	-5.63965
1.4505	-3.22266
1.451	-1.51062
1.4515	-7.25098
1.452	-2.5177
1.4525	-3.22266
1.453	-3.8269
1.4535	-4.12903
1.454	-0.50354
1.4545	-3.62549
1.455	-8.25806
1.4555	-2.21558
1.456	3.7262
1.4565	2.92053
1.457	-3.52478
1.4575	-4.22974
1.458	4.73328
1.4585	0.20142
1.459	0.10071
1.4595	3.12195
1.46	5.43823
1.4605	8.7616
1.461	5.33752
1.4615	7.15027
1.462	6.14319
1.4625	3.62549
1.463	3.8269
1.4635	6.14319
1.464	5.43823
1.4645	6.04248
1.465	1.71204
1.4655	5.0354
1.466	6.2439
1.4665	8.56018
1.467	6.14319
1.4675	6.84814
1.468	8.35876
1.4685	6.54602
1.469	6.3446
1.4695	5.53894
1.47	1.00708
1.4705	4.02832
1.471	6.64673
1.4715	-0.90637
1.472	2.5177
1.4725	3.8269
1.473	8.15735
1.4735	6.84814
1.474	9.56726
1.4745	7.65381
1.475	6.84814
1.4755	10.77576
1.476	6.74744
1.4765	3.12195
1.477	4.73328
1.4775	9.16443
1.478	9.16443
1.4785	11.07788
1.479	10.0708
1.4795	17.6239
1.48	12.08496
1.4805	10.27222
1.481	10.57434
1.4815	10.87646
1.482	9.06372
1.4825	5.33752
1.483	9.16443
1.4835	7.85522
1.484	4.73328
1.4845	10.27222
1.485	11.68213
1.4855	10.0708
1.486	11.88354
1.4865	10.57434
1.487	14.30054
1.4875	11.68213
1.488	7.75452
1.4885	12.38708
1.489	14.70337
1.4895	14.09912
1.49	13.49487
1.4905	18.02673
1.491	12.99133
1.4915	15.91187
1.492	13.99841
1.4925	19.23523
1.493	16.01257
1.4935	9.16443
1.494	10.27222
1.4945	10.47363
1.495	8.45947
1.4955	6.44531
1.496	9.36584
1.4965	6.74744
1.497	8.8623
1.4975	7.5531
1.498	7.35168
1.4985	9.66797
1.499	2.31628
1.4995	1.00708
1.5	-0.50354
1.5005	9.46655
1.501	4.73328
1.5015	6.14319
1.502	6.14319
1.5025	2.41699
1.503	5.13611
1.5035	7.35168
1.504	10.37292
1.5045	5.84106
1.505	6.74744
1.5055	4.43115
1.506	7.04956
1.5065	7.95593
1.507	7.95593
1.5075	4.83398
1.508	9.36584
1.5085	6.54602
1.509	9.16443
1.5095	4.02832
1.51	3.92761
1.5105	2.5177
1.511	8.56018
1.5115	9.16443
1.512	6.84814
1.5125	13.39417
1.513	12.38708
1.5135	15.50903
1.514	15.60974
1.5145	14.50195
1.515	17.82532
1.5155	14.40125
1.516	13.19275
1.5165	13.59558
1.517	4.93469
1.5175	1.10779
1.518	3.22266
1.5185	2.71912
1.519	-1.10779
1.5195	-1.00708
1.52	-0.90637
1.5205	3.02124
1.521	-0.50354
1.5215	-5.0354
1.522	-5.84106
1.5225	-5.43823
1.523	-5.33752
1.5235	-2.61841
1.524	-3.02124
1.5245	4.22974
1.525	10.87646
1.5255	11.78284
1.526	12.28638
1.5265	19.94019
1.527	15.30762
1.5275	16.51611
1.528	18.53027
1.5285	11.58142
1.529	13.29346
1.5295	9.76868
1.53	12.89062
1.5305	7.5531
1.531	5.23682
1.5315	3.02124
1.532	1.00708
1.5325	1.10779
1.533	2.5177
1.5335	-3.7262
1.534	-4.73328
1.5345	-4.63257
1.535	0.20142
1.5355	-0.90637
1.536	-1.10779
1.5365	-4.33044
1.537	-3.02124
1.5375	2.41699
1.538	7.25098
1.5385	-4.53186
1.539	1.51062
1.5395	6.84814
1.54	1.71204
1.5405	-0.40283
1.541	3.42407
1.5415	6.64673
1.542	7.15027
1.5425	4.22974
1.543	7.5531
1.5435	4.93469
1.544	8.66089
1.5445	7.15027
1.545	7.15027
1.5455	8.56018
1.546	5.74036
1.5465	2.92053
1.547	3.8269
1.5475	8.35876
1.548	7.85522
1.5485	2.92053
1.549	3.8269
1.5495	2.11487
1.55	5.0354
1.5505	0.50354
1.551	1.3092
1.5515	0.70496
1.552	4.33044
1.5525	1.51062
1.553	8.66089
1.5535	9.26514
1.554	16.61682
1.5545	15.20691
1.555	11.88354
1.5555	16.81824
1.556	10.77576
1.5565	8.45947
1.557	12.89062
1.5575	8.7616
1.558	11.2793
1.5585	4.02832
1.559	6.54602
1.5595	11.07788
1.56	21.55151
1.5605	24.97559
1.561	39.88037
1.5615	57.30286
1.562	62.33826
1.5625	73.51685
1.563	76.03455
1.5635	75.73242
1.564	66.36658
1.5645	63.84888
1.565	60.4248
1.5655	57.8064
1.566	44.21082
1.5665	27.79541
1.567	20.34302
1.5675	7.15027
1.568	-1.2085
1.5685	-8.45947
1.569	-14.50195
1.5695	-19.63806
1.57	-10.0708
1.5705	-5.63965
1.571	-7.04956
1.5715	7.04956
1.572	8.96301
1.5725	7.04956
1.573	8.05664
1.5735	4.33044
1.574	-3.52478
1.5745	-10.47363
1.575	-17.32178
1.5755	-5.43823
1.576	0.60425
1.5765	10.27222
1.577	9.66797
1.5775	11.98425
1.578	7.65381
1.5785	8.66089
1.579	8.35876
1.5795	5.53894
1.58	1.51062
1.5805	-5.0354
1.581	-16.3147
1.5815	-18.12744
1.582	-32.12585
1.5825	-37.36267
1.583	-49.44763
1.5835	-57.70569
1.584	-49.44763
1.5845	-56.09436
1.585	-59.41772
1.5855	-48.74268
1.586	-46.22498
1.5865	-35.14709
1.587	-34.64355
1.5875	-27.59399
1.588	-26.48621
1.5885	-20.64514
1.589	-21.14868
1.5895	-22.45789
1.59	-19.43665
1.5905	-9.56726
1.591	-0.80566
1.5915	14.30054
1.592	21.55151
1.5925	30.11169
1.593	26.28479
1.5935	15.20691
1.594	15.30762
1.5945	12.08496
1.595	6.3446
1.5955	-1.71204
1.596	-7.15027
1.5965	-3.32336
1.597	12.89062
1.5975	43.90869
1.598	73.91968
1.5985	98.99597
1.599	132.33032
1.5995	146.42944
1.6	140.8905
1.6005	139.78271
1.601	136.66077
1.6015	131.22253
1.602	117.82837
1.6025	94.76624
1.603	70.69702
1.6035	40.2832
1.604	10.27222
1.6045	-16.61682
1.605	-47.43347
1.6055	-69.68994
1.606	-89.63013
1.6065	-101.21155
1.607	-105.23987
1.6075	-101.21155
1.608	-94.66553
1.6085	-87.31384
1.609	-81.97632
1.6095	-63.64746
1.61	-59.61914
1.6105	-55.59082
1.611	-47.53418
1.6115	-40.08179
1.612	-35.34851
1.6125	-33.03223
1.613	-33.9386
1.6135	-24.47205
1.614	-18.63098
1.6145	-16.21399
1.615	-4.43115
1.6155	1.00708
1.616	3.8269
1.6165	13.99841
1.617	35.04639
1.6175	61.6333
1.618	87.11243
1.6185	101.41296
1.619	118.33191
1.6195	122.25952
1.62	116.82129
1.6205	111.78589
1.621	115.81421
1.6215	108.36182
1.622	98.29102
1.6225	66.46729
1.623	36.35559
1.6235	5.33752
1.624	-20.34302
1.6245	-41.39099
1.625	-60.82764
1.6255	-76.63879
1.626	-88.82446
1.6265	-97.98889
1.627	-106.9519
1.6275	-112.18872
1.628	-106.34766
1.6285	-100.70801
1.629	-97.38464
1.6295	-77.04163
1.63	-57.00073
1.6305	-22.35718
1.631	5.0354
1.6315	32.22656
1.632	63.14392
1.6325	90.23438
1.633	103.02429
1.6335	117.72766
1.634	125.48218
1.6345	142.19971
1.635	136.56006
1.6355	125.07935
1.636	108.1604
1.6365	88.52234
1.637	66.87012
1.6375	34.54285
1.638	7.75452
1.6385	-19.33594
1.639	-46.82922
1.6395	-63.74817
1.64	-81.87561
1.6405	-95.26978
1.641	-105.54199
1.6415	-106.9519
1.642	-89.83154
1.6425	-73.61755
1.643	-52.46887
1.6435	-29.91028
1.644	-4.02832
1.6445	24.27063
1.645	44.91577
1.6455	52.06604
1.646	48.94409
1.6465	37.56409
1.647	23.26355
1.6475	12.78992
1.648	4.63257
1.6485	-4.93469
1.649	-2.61841
1.6495	-6.74744
1.65	-10.67505
1.6505	-12.08496
1.651	-24.16992
1.6515	-26.48621
1.652	-29.50745
1.6525	-16.21399
1.653	-8.8623
1.6535	3.12195
1.654	14.80408
1.6545	19.13452
1.655	15.30762
1.6555	10.77576
1.656	4.33044
1.6565	-4.93469
1.657	-11.58142
1.6575	-14.90479
1.658	-22.15576
1.6585	-26.58691
1.659	-34.94568
1.6595	-45.62073
1.66	-58.00781
1.6605	-58.91418
1.661	-60.82764
1.6615	-45.82214
1.662	-29.00391
1.6625	-6.64673
1.663	22.35718
1.6635	41.39099
1.664	51.96533
1.6645	62.33826
1.665	77.14233
1.6655	84.2926
1.666	77.948
1.6665	83.38623
1.667	76.23596
1.6675	69.1864
1.668	54.88586
1.6685	47.03064
1.669	39.88037
1.6695	25.27771
1.67	3.92761
1.6705	-8.15735
1.671	-28.70178
1.6715	-45.41931
1.672	-54.58374
1.6725	-59.51843
1.673	-64.45312
1.6735	-63.14392
1.674	-61.23047
1.6745	-60.62622
1.675	-55.79224
1.6755	-51.36108
1.676	-32.52869
1.6765	-3.42407
1.677	30.71594
1.6775	48.74268
1.678	73.61755
1.6785	101.01013
1.679	129.5105
1.6795	129.71191
1.68	127.19421
1.6805	99.70093
1.681	75.53101
1.6815	48.84338
1.682	21.04797
1.6825	8.8623
1.683	-17.92603
1.6835	-39.57825
1.684	-55.08728
1.6845	-72.10693
1.685	-77.14233
1.6855	-74.72534
1.686	-79.76074
1.6865	-72.50977
1.687	-65.96375
1.6875	-54.98657
1.688	-40.1825
1.6885	-28.60107
1.689	-24.06921
1.6895	-17.01965
1.69	-8.35876
1.6905	8.05664
1.691	30.81665
1.6915	56.69861
1.692	73.81897
1.6925	86.70959
1.693	90.5365
1.6935	86.00464
1.694	81.17065
1.6945	67.77649
1.695	50.55542
1.6955	41.59241
1.696	27.09045
1.6965	4.93469
1.697	-16.91895
1.6975	-33.33435
1.698	-40.38391
1.6985	-44.81506
1.699	-42.90161
1.6995	-43.20374
1.7	-32.02515
1.7005	-15.40833
1.701	4.22974
1.7015	42.90161
1.702	71.60339
1.7025	87.01172
1.703	96.7804
1.7035	106.64978
1.704	112.18872
1.7045	108.56323
1.705	89.42871
1.7055	71.60339
1.706	56.19507
1.7065	39.37683
1.707	24.37134
1.7075	-1.51062
1.708	-29.40674
1.7085	-53.07312
1.709	-70.59631
1.7095	-91.745
1.71	-105.74341
1.7105	-112.28943
1.711	-121.05103
1.7115	-117.12341
1.712	-126.79138
1.7125	-125.38147
1.713	-122.36023
1.7135	-107.25403
1.714	-70.09277
1.7145	-16.61682
1.715	20.64514
1.7155	52.97241
1.716	92.34924
1.7165	119.33899
1.717	142.80396
1.7175	149.04785
1.718	151.86768
1.7185	144.51599
1.719	127.99988
1.7195	107.45544
1.72	74.52393
1.7205	45.01648
1.721	10.97717
1.7215	-20.54443
1.722	-55.2887
1.7225	-73.31543
1.723	-94.56482
1.7235	-94.06128
1.724	-88.72375
1.7245	-92.65137
1.725	-93.85986
1.7255	-94.3634
1.726	-95.06836
1.7265	-97.78748
1.727	-85.19897
1.7275	-70.59631
1.728	-58.00781
1.7285	-30.61523
1.729	-5.53894
1.7295	12.48779
1.73	23.46497
1.7305	44.41223
1.731	60.82764
1.7315	57.00073
1.732	48.84338
1.7325	32.22656
1.733	21.85364
1.7335	4.63257
1.734	-9.86938
1.7345	-21.85364
1.735	-32.02515
1.7355	-26.48621
1.736	-21.95435
1.7365	-17.92603
1.737	-17.52319
1.7375	-9.46655
1.738	-4.22974
1.7385	10.27222
1.739	23.26355
1.7395	31.4209
1.74	40.38391
1.7405	40.1825
1.741	40.98816
1.7415	42.49878
1.742	31.01807
1.7425	26.88904
1.743	20.64514
1.7435	16.91895
1.744	13.19275
1.7445	14.40125
1.745	11.68213
1.7455	13.19275
1.746	10.37292
1.7465	3.02124
1.747	9.06372
1.7475	5.84106
1.748	11.88354
1.7485	12.89062
1.749	20.74585
1.7495	16.01257
1.75	26.28479
1.7505	24.37134
1.751	17.01965
1.7515	15.91187
1.752	13.39417
1.7525	15.30762
1.753	15.1062
1.7535	15.30762
1.754	12.89062
1.7545	15.91187
1.755	22.86072
1.7555	36.75842
1.756	51.26038
1.7565	64.05029
1.757	74.12109
1.7575	83.68835
1.758	82.47986
1.7585	77.948
1.759	74.62463
1.7595	61.93542
1.76	46.82922
1.7605	30.81665
1.761	11.78284
1.7615	-0.10071
1.762	-16.71753
1.7625	-29.91028
1.763	-33.83789
1.7635	-46.22498
1.764	-40.58533
1.7645	-37.96692
1.765	-32.83081
1.7655	-22.05505
1.766	-16.91895
1.7665	-9.16443
1.767	-11.48071
1.7675	-6.74744
1.768	-8.35876
1.7685	-3.92761
1.769	0.80566
1.7695	4.33044
1.77	9.16443
1.7705	31.52161
1.771	51.66321
1.7715	65.05737
1.772	64.95667
1.7725	67.77649
1.773	64.95667
1.7735	57.50427
1.774	46.42639
1.7745	26.78833
1.775	7.45239
1.7755	-1.2085
1.776	-5.84106
1.7765	9.06372
1.777	24.87488
1.7775	27.79541
1.778	31.21948
1.7785	21.75293
1.779	22.45789
1.7795	18.12744
1.78	8.35876
1.7805	-8.05664
1.781	-20.34302
1.7815	-37.96692
1.782	-52.16675
1.7825	-65.15808
1.783	-65.05737
1.7835	-58.20923
1.784	-46.02356
1.7845	-28.80249
1.785	-28.19824
1.7855	-20.1416
1.786	-11.58142
1.7865	-2.31628
1.787	-5.63965
1.7875	-6.3446
1.788	-3.52478
1.7885	-6.64673
1.789	-10.47363
1.7895	-14.90479
1.79	-16.3147
1.7905	-10.0708
1.791	-1.91345
1.7915	7.75452
1.792	13.59558
1.7925	20.1416
1.793	25.98267
1.7935	27.6947
1.794	22.05505
1.7945	20.74585
1.795	19.73877
1.7955	1.40991
1.796	1.2085
1.7965	-7.45239
1.797	-16.41541
1.7975	-21.95435
1.798	-19.43665
1.7985	-22.86072
1.799	-11.48071
1.7995	-6.74744
1.8	-9.16443
1.8005	-6.3446
1.801	-0.30212
1.8015	-2.01416
1.802	15.20691
1.8025	22.86072
1.803	33.03223
1.8035	36.05347
1.804	38.87329
1.8045	37.16125
1.805	35.44922
1.8055	32.42798
1.806	24.97559
1.8065	21.75293
1.807	15.60974
1.8075	5.84106
1.808	11.38
1.8085	5.94177
1.809	-1.2085
1.8095	1.40991
1.81	-0.70496
1.8105	-1.91345
1.811	4.22974
1.8115	2.11487
1.812	3.32336
1.8125	5.53894
1.813	9.86938
1.8135	13.49487
1.814	9.86938
1.8145	9.56726
1.815	19.03381
1.8155	24.06921
1.816	28.19824
1.8165	23.96851
1.817	30.51453
1.8175	28.80249
1.818	32.42798
1.8185	38.67188
1.819	40.88745
1.8195	37.7655
1.82	38.77258
1.8205	35.34851
1.821	36.55701
1.8215	35.04639
1.822	34.34143
1.8225	26.48621
1.823	24.16992
1.8235	20.04089
1.824	17.22107
1.8245	11.68213
1.825	12.48779
1.8255	0.60425
1.826	0
1.8265	10.47363
1.827	18.32886
1.8275	14.60266
1.828	18.8324
1.8285	19.43665
1.829	13.99841
1.8295	16.51611
1.83	12.5885
1.8305	8.66089
1.831	2.81982
1.8315	-2.11487
1.832	-3.22266
1.8325	-5.0354
1.833	-13.69629
1.8335	-5.74036
1.834	-4.22974
1.8345	-1.2085
1.835	-0.80566
1.8355	1.40991
1.836	6.84814
1.8365	7.04956
1.837	11.38
1.8375	10.37292
1.838	10.57434
1.8385	8.56018
1.839	18.32886
1.8395	20.24231
1.84	22.86072
1.8405	24.16992
1.841	25.88196
1.8415	34.64355
1.842	42.49878
1.8425	45.3186
1.843	54.98657
1.8435	102.62146
1.844	144.41528
1.8445	153.78113
1.845	146.12732
1.8455	127.79846
1.846	103.125
1.8465	76.03455
1.847	36.65771
1.8475	8.66089
1.848	-22.86072
1.8485	-48.64197
1.849	-66.56799
1.8495	-77.24304
1.85	-84.19189
1.8505	-86.00464
1.851	-88.62305
1.8515	-90.63721
1.852	-88.72375
1.8525	-81.57349
1.853	-62.8418
1.8535	-26.28479
1.854	-3.8269
1.8545	8.66089
1.855	2.92053
1.8555	3.7262
1.856	8.05664
1.8565	1.40991
1.857	1.10779
1.8575	-5.74036
1.858	-8.56018
1.8585	-15.40833
1.859	-23.96851
1.8595	-27.99683
1.86	-27.6947
1.8605	-29.91028
1.861	-32.42798
1.8615	-18.42957
1.862	-16.81824
1.8625	-3.42407
1.863	1.3092
1.8635	13.59558
1.864	23.66638
1.8645	26.18408
1.865	29.80957
1.8655	40.38391
1.866	49.74976
1.8665	54.78516
1.867	51.96533
1.8675	45.41931
1.868	43.90869
1.8685	41.29028
1.869	49.95117
1.8695	57.60498
1.87	51.86462
1.8705	45.82214
1.871	38.47046
1.8715	32.52869
1.872	19.73877
1.8725	6.04248
1.873	-4.22974
1.8735	-17.22107
1.874	-11.98425
1.8745	-14.09912
1.875	-7.15027
1.8755	-2.92053
1.876	-2.71912
1.8765	11.58142
1.877	42.90161
1.8775	73.21472
1.878	88.62305
1.8785	88.11951
1.879	80.16357
1.8795	52.06604
1.88	32.02515
1.8805	8.7616
1.881	-16.3147
1.8815	-31.11877
1.882	-38.974
1.8825	-61.53259
1.883	-70.49561
1.8835	-69.58923
1.884	-69.48853
1.8845	-67.47437
1.885	-65.56091
1.8855	-62.03613
1.886	-57.50427
1.8865	-57.8064
1.887	-28.09753
1.8875	6.54602
1.888	28.39966
1.8885	51.96533
1.889	62.43896
1.8895	68.98499
1.89	66.97083
1.8905	60.72693
1.891	48.94409
1.8915	38.57117
1.892	25.177
1.8925	-0.30212
1.893	-16.01257
1.8935	-27.79541
1.894	-33.03223
1.8945	-30.81665
1.895	-18.73169
1.8955	-15.71045
1.896	-22.76001
1.8965	-17.72461
1.897	-16.71753
1.8975	8.25806
1.898	21.24939
1.8985	29.40674
1.899	40.78674
1.8995	34.24072
1.9	26.68762
1.9005	21.3501
1.901	14.30054
1.9015	7.35168
1.902	3.92761
1.9025	1.61133
1.903	2.01416
1.9035	-4.43115
1.904	-9.06372
1.9045	-9.46655
1.905	-5.94177
1.9055	-13.99841
1.906	-13.29346
1.9065	-7.04956
1.907	6.94885
1.9075	21.24939
1.908	30.51453
1.9085	29.50745
1.909	29.60815
1.9095	28.39966
1.91	26.68762
1.9105	17.6239
1.911	10.57434
1.9115	1.2085
1.912	-1.51062
1.9125	-4.53186
1.913	-15.81116
1.9135	-17.6239
1.914	-15.81116
1.9145	-17.72461
1.915	-15.91187
1.9155	-17.01965
1.916	-20.94727
1.9165	-18.63098
1.917	-16.11328
1.9175	-15.20691
1.918	-27.59399
1.9185	-25.37842
1.919	-26.28479
1.9195	-19.83948
1.92	1.40991
1.9205	14.19983
1.921	20.1416
1.9215	22.96143
1.922	24.97559
1.9225	27.89612
1.923	24.77417
1.9235	23.56567
1.924	18.22815
1.9245	37.26196
1.925	41.39099
1.9255	47.7356
1.926	41.18958
1.9265	29.70886
1.927	18.02673
1.9275	12.48779
1.928	-1.51062
1.9285	-4.22974
1.929	-14.50195
1.9295	-19.83948
1.93	-28.80249
1.9305	-25.07629
1.931	-13.99841
1.9315	-8.25806
1.932	-4.22974
1.9325	-0.40283
1.933	3.7262
1.9335	4.63257
1.934	4.12903
1.9345	0.40283
1.935	0.80566
1.9355	4.33044
1.936	1.40991
1.9365	15.30762
1.937	21.85364
1.9375	24.37134
1.938	33.03223
1.9385	32.42798
1.939	34.24072
1.9395	31.92444
1.94	28.50037
1.9405	23.46497
1.941	19.94019
1.9415	17.52319
1.942	8.8623
1.9425	6.04248
1.943	4.33044
1.9435	-2.92053
1.944	-0.40283
1.9445	-7.15027
1.945	-9.76868
1.9455	-13.797
1.946	-19.13452
1.9465	-27.19116
1.947	-34.44214
1.9475	-34.44214
1.948	-30.71594
1.9485	-26.08337
1.949	-23.56567
1.9495	-20.74585
1.95	-12.78992
1.9505	-11.58142
1.951	-6.14319
1.9515	-4.43115
1.952	-4.12903
1.9525	-3.62549
1.953	-3.92761
1.9535	13.89771
1.954	32.93152
1.9545	50.45471
1.955	67.17224
1.9555	77.14233
1.956	80.66711
1.9565	75.22888
1.957	62.9425
1.9575	52.06604
1.958	40.38391
1.9585	43.70728
1.959	38.16833
1.9595	23.66638
1.96	13.39417
1.9605	-4.22974
1.961	-10.67505
1.9615	-28.29895
1.962	-32.42798
1.9625	-45.82214
1.963	-41.69312
1.9635	-21.14868
1.964	4.12903
1.9645	18.63098
1.965	16.91895
1.9655	17.42249
1.966	2.61841
1.9665	-1.91345
1.967	-9.56726
1.9675	5.63965
1.968	26.88904
1.9685	35.85205
1.969	22.76001
1.9695	15.81116
1.97	4.33044
1.9705	0.20142
1.971	0.20142
1.9715	-2.11487
1.972	-3.52478
1.9725	-10.77576
1.973	-19.63806
1.9735	-27.29187
1.974	-40.78674
1.9745	-44.41223
1.975	-48.33984
1.9755	-45.3186
1.976	-39.67896
1.9765	-33.13293
1.977	-24.87488
1.9775	-15.30762
1.978	-12.38708
1.9785	-1.71204
1.979	5.94177
1.9795	4.73328
1.98	6.14319
1.9805	7.95593
1.981	10.47363
1.9815	19.03381
1.982	16.61682
1.9825	11.07788
1.983	16.51611
1.9835	19.94019
1.984	27.59399
1.9845	24.77417
1.985	22.76001
1.9855	23.76709
1.986	15.60974
1.9865	10.47363
1.987	7.04956
1.9875	-0.40283
1.988	-4.22974
1.9885	-2.71912
1.989	-4.22974
1.9895	5.53894
1.99	4.02832
1.9905	9.06372
1.991	34.64355
1.9915	52.97241
1.992	70.29419
1.9925	75.83313
1.993	68.58215
1.9935	53.07312
1.994	52.46887
1.9945	51.26038
1.995	53.57666
1.9955	43.60657
1.996	28.19824
1.9965	17.42249
1.997	6.44531
1.9975	-13.59558
1.998	-25.177
1.9985	-34.14001
1.999	-37.56409
1.9995	-46.12427
2	-48.33984
2.0005	-43.10303
2.001	-21.95435
2.0015	12.18567
2.002	35.2478
2.0025	43.50586
2.003	49.24622
2.0035	59.71985
2.004	51.36108
2.0045	37.96692
2.005	16.81824
2.0055	2.92053
2.006	-17.72461
2.0065	-37.66479
2.007	-44.41223
2.0075	-52.8717
2.008	-46.72852
2.0085	-41.99524
2.009	-34.54285
2.0095	-29.80957
2.01	-18.73169
2.0105	-6.04248
2.011	-11.48071
2.0115	-9.06372
2.012	-16.3147
2.0125	-19.43665
2.013	-21.85364
2.0135	-24.47205
2.014	-23.46497
2.0145	-17.82532
2.015	-16.71753
2.0155	-15.81116
2.016	-8.66089
2.0165	-0.70496
2.017	5.53894
2.0175	7.15027
2.018	14.60266
2.0185	26.3855
2.019	65.46021
2.0195	87.71667
2.02	97.28394
2.0205	88.0188
2.021	78.45154
2.0215	61.23047
2.022	53.77808
2.0225	35.75134
2.023	11.78284
2.0235	3.52478
2.024	-5.53894
2.0245	-15.00549
2.025	-28.50037
2.0255	-34.24072
2.026	-35.54993
2.0265	-38.16833
2.027	-37.26196
2.0275	-25.78125
2.028	-22.45789
2.0285	-15.91187
2.029	-17.52319
2.0295	0.30212
2.03	14.40125
2.0305	20.04089
2.031	29.10461
2.0315	34.84497
2.032	32.62939
2.0325	40.98816
2.033	45.11719
2.0335	58.71277
2.034	52.46887
2.0345	37.7655
2.035	26.28479
2.0355	24.37134
2.036	13.09204
2.0365	4.73328
2.037	-1.71204
2.0375	-5.63965
2.038	-9.56726
2.0385	-18.02673
2.039	-15.91187
2.0395	-21.95435
2.04	-24.77417
2.0405	-27.19116
2.041	-27.79541
2.0415	-24.57275
2.042	-29.60815
2.0425	-35.14709
2.043	-33.23364
2.0435	-35.04639
2.044	-36.55701
2.0445	-39.67896
2.045	-35.85205
2.0455	-32.22656
2.046	-20.94727
2.0465	-1.51062
2.047	12.78992
2.0475	26.18408
2.048	30.01099
2.0485	34.44214
2.049	28.39966
2.0495	27.59399
2.05	24.57275
2.0505	19.73877
2.051	16.3147
2.0515	9.56726
2.052	6.84814
2.0525	8.7616
2.053	9.76868
2.0535	12.99133
2.054	8.66089
2.0545	7.85522
2.055	11.48071
2.0555	15.71045
2.056	16.81824
2.0565	21.65222
2.057	22.76001
2.0575	20.94727
2.058	23.66638
2.0585	20.74585
2.059	12.99133
2.0595	13.797
2.06	10.87646
2.0605	7.95593
2.061	4.33044
2.0615	0.10071
2.062	-1.40991
2.0625	-1.71204
2.063	-3.32336
2.0635	-8.15735
2.064	-3.32336
2.0645	-9.66797
2.065	-9.46655
2.0655	-11.98425
2.066	-9.46655
2.0665	-9.46655
2.067	-3.22266
2.0675	-2.81982
2.068	0.70496
2.0685	-0.50354
2.069	-0.30212
2.0695	2.11487
2.07	0.50354
2.0705	1.91345
2.071	1.00708
2.0715	0.40283
2.072	6.54602
2.0725	4.63257
2.073	7.45239
2.0735	8.56018
2.074	9.36584
2.0745	2.92053
2.075	6.64673
2.0755	9.36584
2.076	6.94885
2.0765	-3.22266
2.077	-6.94885
2.0775	-12.89062
2.078	-8.66089
2.0785	-1.3092
2.079	7.25098
2.0795	12.38708
2.08	19.73877
2.0805	24.16992
2.081	19.03381
2.0815	13.19275
2.082	4.02832
2.0825	-5.63965
2.083	-10.47363
2.0835	9.06372
2.084	30.51453
2.0845	40.2832
2.085	37.06055
2.0855	30.71594
2.086	18.02673
2.0865	11.98425
2.087	1.3092
2.0875	-8.25806
2.088	-12.08496
2.0885	-23.26355
2.089	-26.08337
2.0895	-22.6593
2.09	-20.74585
2.0905	-22.76001
2.091	-7.65381
2.0915	-14.50195
2.092	-15.81116
2.0925	-20.34302
2.093	-29.30603
2.0935	-25.37842
2.094	-23.26355
2.0945	-18.93311
2.095	-18.8324
2.0955	-15.00549
2.096	-5.33752
2.0965	3.22266
2.097	10.27222
2.0975	12.18567
2.098	13.19275
2.0985	6.94885
2.099	7.15027
2.0995	4.33044
2.1	4.43115
2.1005	-9.06372
2.101	-7.5531
2.1015	-8.35876
2.102	-2.41699
2.1025	0.70496
2.103	4.83398
2.1035	9.86938
2.104	10.47363
2.1045	25.57983
2.105	23.16284
2.1055	19.63806
2.106	26.3855
2.1065	24.97559
2.107	22.55859
2.1075	19.13452
2.108	22.15576
2.1085	28.09753
2.109	33.33435
2.1095	38.67188
2.11	38.36975
2.1105	43.30444
2.111	37.7655
2.1115	37.56409
2.112	37.16125
2.1125	27.39258
2.113	25.57983
2.1135	14.50195
2.114	3.52478
2.1145	-4.93469
2.115	-6.54602
2.1155	-9.16443
2.116	-15.40833
2.1165	-15.30762
2.117	-19.43665
2.1175	-16.51611
2.118	-12.68921
2.1185	-2.61841
2.119	-1.10779
2.1195	-1.40991
2.12	-5.33752
2.1205	7.5531
2.121	29.10461
2.1215	36.25488
2.122	38.16833
2.1225	35.14709
2.123	37.06055
2.1235	50.85754
2.124	67.17224
2.1245	66.26587
2.125	67.77649
2.1255	60.02197
2.126	49.0448
2.1265	32.02515
2.127	21.14868
2.1275	13.49487
2.128	1.61133
2.1285	-10.87646
2.129	-10.0708
2.1295	-13.39417
2.13	-24.87488
2.1305	-41.18958
2.131	-59.61914
2.1315	-71.50269
2.132	-77.34375
2.1325	-76.23596
2.133	-76.03455
2.1335	-63.54675
2.134	-49.14551
2.1345	-29.91028
2.135	-14.80408
2.1355	0.70496
2.136	15.20691
2.1365	20.74585
2.137	25.78125
2.1375	24.27063
2.138	27.49329
2.1385	28.80249
2.139	27.19116
2.1395	24.16992
2.14	26.78833
2.1405	22.6593
2.141	19.43665
2.1415	14.19983
2.142	10.37292
2.1425	2.61841
2.143	2.01416
2.1435	1.00708
2.144	7.25098
2.1445	9.06372
2.145	0.40283
2.1455	9.36584
2.146	12.5885
2.1465	16.51611
2.147	19.23523
2.1475	23.36426
2.148	24.57275
2.1485	31.62231
2.149	31.11877
2.1495	33.63647
2.15	32.83081
2.1505	36.35559
2.151	38.57117
2.1515	38.77258
2.152	39.77966
2.1525	37.26196
2.153	37.7655
2.1535	34.74426
2.154	19.23523
2.1545	15.20691
2.155	11.78284
2.1555	4.43115
2.156	-0.50354
2.1565	-3.12195
2.157	-2.5177
2.1575	-5.13611
2.158	-5.94177
2.1585	-5.13611
2.159	-4.53186
2.1595	-0.40283
2.16	4.02832
2.1605	5.13611
2.161	-2.21558
2.1615	6.94885
2.162	2.81982
2.1625	1.40991
2.163	6.44531
2.1635	13.797
2.164	10.87646
2.1645	19.53735
2.165	24.27063
2.1655	21.65222
2.166	20.24231
2.1665	16.61682
2.167	14.40125
2.1675	11.48071
2.168	6.94885
2.1685	6.04248
2.169	0
2.1695	1.61133
2.17	4.93469
2.1705	9.16443
2.171	4.33044
2.1715	0.80566
2.172	3.12195
2.1725	0.20142
2.173	4.83398
2.1735	6.64673
2.174	1.40991
2.1745	2.92053
2.175	-0.30212
2.1755	-3.22266
2.176	-3.7262
2.1765	-10.0708
2.177	-9.56726
2.1775	-8.7616
2.178	-2.01416
2.1785	-11.58142
2.179	-12.5885
2.1795	-9.97009
2.18	-15.1062
2.1805	-13.89771
2.181	-12.08496
2.1815	-12.08496
2.182	-10.37292
2.1825	-11.17859
2.183	-10.0708
2.1835	-10.0708
2.184	-20.1416
2.1845	-13.39417
2.185	-11.68213
2.1855	-12.08496
2.186	-9.16443
2.1865	-4.73328
2.187	-2.71912
2.1875	1.51062
2.188	-6.2439
2.1885	-17.32178
2.189	-33.83789
2.1895	-51.86462
2.19	-58.91418
2.1905	-57.40356
2.191	-55.99365
2.1915	-46.32568
2.192	-39.77966
2.1925	-30.41382
2.193	-21.3501
2.1935	-10.97717
2.194	-1.2085
2.1945	4.33044
2.195	11.17859
2.1955	14.70337
2.196	20.44373
2.1965	28.29895
2.197	30.2124
2.1975	39.07471
2.198	42.39807
2.1985	45.2179
2.199	58.10852
2.1995	56.5979
2.2	55.49011
2.2005	50.2533
2.201	40.1825
2.2015	31.01807
2.202	22.15576
2.2025	20.24231
2.203	13.69629
2.2035	7.95593
2.204	2.81982
2.2045	6.04248
2.205	10.87646
2.2055	5.33752
2.206	-2.5177
2.2065	-2.81982
2.207	2.92053
2.2075	2.5177
2.208	2.11487
2.2085	6.44531
2.209	2.31628
2.2095	-17.72461
2.21	-26.08337
2.2105	-25.98267
2.211	-32.22656
2.2115	-26.28479
2.212	-21.45081
2.2125	-17.42249
2.213	-17.92603
2.2135	-13.797
2.214	-7.5531
2.2145	0.90637
2.215	7.04956
2.2155	8.8623
2.216	11.98425
2.2165	16.71753
2.217	18.73169
2.2175	24.16992
2.218	22.25647
2.2185	17.42249
2.219	27.59399
2.2195	23.8678
2.22	21.95435
2.2205	22.35718
2.221	25.177
2.2215	20.1416
2.222	21.04797
2.2225	18.22815
2.223	13.99841
2.2235	8.15735
2.224	4.22974
2.2245	9.86938
2.225	10.57434
2.2255	7.5531
2.226	11.2793
2.2265	16.71753
2.227	5.0354
2.2275	7.45239
2.228	7.85522
2.2285	8.45947
2.229	2.92053
2.2295	-1.00708
2.23	-4.93469
2.2305	-1.10779
2.231	-13.39417
2.2315	-16.3147
2.232	-18.63098
2.2325	-11.17859
2.233	-17.12036
2.2335	-16.01257
2.234	-14.70337
2.2345	-6.2439
2.235	-10.17151
2.2355	-10.17151
2.236	-12.78992
2.2365	-5.84106
2.237	-3.02124
2.2375	-3.02124
2.238	-0.80566
2.2385	-3.42407
2.239	-7.25098
2.2395	-6.44531
2.24	3.02124
2.2405	9.46655
2.241	8.96301
2.2415	11.98425
2.242	0.70496
2.2425	-0.40283
2.243	4.93469
2.2435	8.35876
2.244	6.44531
2.2445	5.63965
2.245	10.87646
2.2455	10.17151
2.246	8.8623
2.2465	3.7262
2.247	-0.90637
2.2475	-3.92761
2.248	-2.92053
2.2485	-11.88354
2.249	-5.84106
2.2495	-8.25806
2.25	-2.61841
2.2505	-7.35168
2.251	0.10071
2.2515	-7.65381
2.252	-5.74036
2.2525	-4.02832
2.253	-10.0708
2.2535	-1.51062
2.254	-4.73328
2.2545	-4.93469
2.255	-1.40991
2.2555	0.30212
2.256	-5.23682
2.2565	-0.10071
2.257	3.42407
2.2575	9.66797
2.258	13.89771
2.2585	7.5531
2.259	7.5531
2.2595	6.54602
2.26	0.60425
2.2605	4.83398
2.261	0.60425
2.2615	1.71204
2.262	-3.22266
2.2625	-2.01416
2.263	-2.92053
2.2635	-13.19275
2.264	-7.45239
2.2645	-3.42407
2.265	-8.25806
2.2655	-8.25806
2.266	-5.74036
2.2665	-3.8269
2.267	-4.22974
2.2675	-12.5885
2.268	-5.33752
2.2685	-3.52478
2.269	-3.92761
2.2695	-2.5177
2.27	-4.43115
2.2705	-1.10779
2.271	-6.2439
2.2715	-7.65381
2.272	-2.71912
2.2725	-1.91345
2.273	-6.04248
2.2735	-7.65381
2.274	-7.04956
2.2745	-7.85522
2.275	-3.22266
2.2755	-1.71204
2.276	-2.61841
2.2765	-4.73328
2.277	-5.0354
2.2775	-3.92761
2.278	0
2.2785	4.53186
2.279	-0.10071
2.2795	-1.3092
2.28	-4.33044
2.2805	-8.8623
2.281	-6.84814
2.2815	-1.00708
2.282	-2.11487
2.2825	-3.52478
2.283	1.00708
2.2835	1.51062
2.284	6.54602
2.2845	1.3092
2.285	-0.50354
2.2855	-0.40283
2.286	-7.15027
2.2865	-20.04089
2.287	-38.67188
2.2875	-50.55542
2.288	-63.64746
2.2885	-74.52393
2.289	-76.94092
2.2895	-71.80481
2.29	-69.79065
2.2905	-62.74109
2.291	-49.64905
2.2915	-38.67188
2.292	-20.44373
2.2925	-9.86938
2.293	2.81982
2.2935	14.30054
2.294	27.09045
2.2945	33.83789
2.295	41.89453
2.2955	38.67188
2.296	44.71436
2.2965	53.07312
2.297	63.24463
2.2975	65.56091
2.298	83.28552
2.2985	69.48853
2.299	72.30835
2.2995	63.44604
2.3	61.23047
2.3005	56.79932
2.301	41.89453
2.3015	37.96692
2.302	27.89612
2.3025	21.85364
2.303	17.12036
2.3035	20.54443
2.304	17.42249
2.3045	13.99841
2.305	5.84106
2.3055	6.84814
2.306	4.33044
2.3065	5.13611
2.307	9.66797
2.3075	5.63965
2.308	7.04956
2.3085	-2.5177
2.309	-0.40283
2.3095	6.04248
2.31	-6.44531
2.3105	-0.20142
2.311	-2.5177
2.3115	-1.61133
2.312	-1.91345
2.3125	-9.06372
2.313	-4.93469
2.3135	-0.90637
2.314	-6.04248
2.3145	-10.67505
2.315	-8.15735
2.3155	-8.56018
2.316	-11.07788
2.3165	-9.36584
2.317	-11.68213
2.3175	-11.17859
2.318	-17.32178
2.3185	-17.32178
2.319	-16.91895
2.3195	-18.73169
2.32	-19.63806
2.3205	-17.12036
2.321	-10.87646
2.3215	-12.89062
2.322	-9.36584
2.3225	-5.33752
2.323	-3.32336
2.3235	3.7262
2.324	6.14319
2.3245	8.15735
2.325	8.35876
2.3255	8.15735
2.326	7.85522
2.3265	7.5531
2.327	10.17151
2.3275	8.66089
2.328	9.66797
2.3285	14.40125
2.329	15.40833
2.3295	12.08496
2.33	8.45947
2.3305	6.04248
2.331	6.64673
2.3315	1.00708
2.332	-2.92053
2.3325	0.60425
2.333	1.3092
2.3335	-1.00708
2.334	5.63965
2.3345	3.02124
2.335	-3.22266
2.3355	-1.2085
2.336	-5.43823
2.3365	2.41699
2.337	3.42407
2.3375	-1.71204
2.338	-0.60425
2.3385	2.11487
2.339	0.40283
2.3395	-3.42407
2.34	2.71912
2.3405	-1.61133
2.341	2.31628
2.3415	2.81982
2.342	-0.40283
2.3425	-1.91345
2.343	-1.61133
2.3435	1.40991
2.344	8.66089
2.3445	-2.92053
2.345	-1.40991
2.3455	0.60425
2.346	2.92053
2.3465	0.80566
2.347	-1.10779
2.3475	4.53186
2.348	3.7262
2.3485	-2.21558
2.349	-2.21558
2.3495	-2.41699
2.35	-4.53186
2.3505	-4.43115
2.351	-5.94177
2.3515	-5.33752
2.352	-5.53894
2.3525	-6.64673
2.353	-5.13611
2.3535	1.10779
2.354	-2.92053
2.3545	-1.10779
2.355	-0.20142
2.3555	-1.10779
2.356	0.50354
2.3565	1.00708
2.357	4.83398
2.3575	4.63257
2.358	-0.30212
2.3585	7.04956
2.359	5.63965
2.3595	3.52478
2.36	2.21558
2.3605	7.04956
2.361	8.25806
2.3615	-0.30212
2.362	4.73328
2.3625	2.41699
2.363	0.70496
2.3635	1.10779
2.364	-5.33752
2.3645	5.0354
2.365	3.8269
2.3655	3.12195
2.366	1.91345
2.3665	-1.81274
2.367	0.90637
2.3675	0.90637
2.368	5.33752
2.3685	-2.41699
2.369	3.32336
2.3695	4.12903
2.37	1.00708
2.3705	0
2.371	-6.74744
2.3715	-0.90637
2.372	1.2085
2.3725	0.90637
2.373	8.05664
2.3735	5.13611
2.374	2.92053
2.3745	2.31628
2.375	3.12195
2.3755	8.35876
2.376	-2.71912
2.3765	2.31628
2.377	7.85522
2.3775	-1.71204
2.378	-0.30212
2.3785	4.02832
2.379	1.3092
2.3795	1.51062
2.38	0.20142
2.3805	3.62549
2.381	0.70496
2.3815	2.31628
2.382	7.95593
2.3825	-0.20142
2.383	0.10071
2.3835	5.13611
2.384	3.22266
2.3845	2.71912
2.385	4.73328
2.3855	1.10779
2.386	4.83398
2.3865	5.0354
2.387	2.31628
2.3875	2.5177
2.388	3.52478
2.3885	9.86938
2.389	9.06372
2.3895	3.12195
2.39	-0.70496
2.3905	4.63257
2.391	1.91345
2.3915	7.15027
2.392	7.04956
2.3925	1.91345
2.393	-1.2085
2.3935	1.51062
2.394	3.22266
2.3945	-14.50195
2.395	-21.3501
2.3955	-32.12585
2.396	-29.60815
2.3965	-22.25647
2.397	-18.12744
2.3975	-13.89771
2.398	-7.85522
2.3985	-4.43115
2.399	6.94885
2.3995	3.12195
2.4	4.33044
2.4005	-3.7262
2.401	-15.40833
2.4015	-31.52161
2.402	-49.54834
2.4025	-75.22888
2.403	-77.44446
2.4035	-77.04163
2.404	-65.66162
2.4045	-50.75684
2.405	-37.56409
2.4055	-25.07629
2.406	-9.66797
2.4065	7.25098
2.407	21.75293
2.4075	31.32019
2.408	35.54993
2.4085	44.21082
2.409	52.36816
2.4095	58.71277
2.41	57.00073
2.4105	60.22339
2.411	72.20764
2.4115	76.7395
2.412	78.14941
2.4125	73.81897
2.413	57.30286
2.4135	52.36816
2.414	45.3186
2.4145	38.974
2.415	30.41382
2.4155	26.28479
2.416	19.43665
2.4165	18.32886
2.417	20.04089
2.4175	27.99683
2.418	26.88904
2.4185	31.52161
2.419	32.42798
2.4195	35.54993
2.42	32.7301
2.4205	28.39966
2.421	35.54993
2.4215	23.26355
2.422	24.16992
2.4225	27.79541
2.423	31.4209
2.4235	32.42798
2.424	31.32019
2.4245	25.78125
2.425	21.75293
2.4255	19.83948
2.426	10.87646
2.4265	12.28638
2.427	14.40125
2.4275	11.68213
2.428	13.99841
2.4285	16.81824
2.429	16.71753
2.4295	13.797
2.43	5.84106
2.4305	7.35168
2.431	-1.71204
2.4315	2.31628
2.432	7.35168
2.4325	-8.25806
2.433	2.31628
2.4335	-2.61841
2.434	-7.04956
2.4345	-4.93469
2.435	-12.18567
2.4355	-25.57983
2.436	-27.59399
2.4365	-33.9386
2.437	-49.34692
2.4375	-56.49719
2.438	-58.71277
2.4385	-43.00232
2.439	-35.44922
2.4395	-26.18408
2.44	-21.24939
2.4405	-10.47363
2.441	-7.04956
2.4415	2.41699
2.442	7.75452
2.4425	13.797
2.443	20.74585
2.4435	22.55859
2.444	25.177
2.4445	25.88196
2.445	22.35718
2.4455	17.52319
2.446	20.24231
2.4465	24.27063
2.447	24.77417
2.4475	29.60815
2.448	20.84656
2.4485	20.44373
2.449	17.22107
2.4495	13.797
2.45	14.80408
2.4505	15.1062
2.451	18.8324
2.4515	13.19275
2.452	16.21399
2.4525	17.12036
2.453	13.49487
2.4535	19.43665
2.454	22.25647
2.4545	15.81116
2.455	13.99841
2.4555	14.19983
2.456	16.71753
2.4565	11.68213
2.457	6.54602
2.4575	6.44531
2.458	2.92053
2.4585	7.35168
2.459	6.3446
2.4595	2.11487
2.46	1.61133
2.4605	8.7616
2.461	3.22266
2.4615	-0.30212
2.462	7.35168
2.4625	-0.70496
2.463	0
2.4635	3.12195
2.464	3.42407
2.4645	-1.61133
2.465	0.20142
2.4655	6.44531
2.466	4.53186
2.4665	-0.30212
2.467	1.81274
2.4675	0.10071
2.468	7.15027
2.4685	3.22266
2.469	4.22974
2.4695	2.21558
2.47	7.65381
2.4705	6.14319
2.471	-1.91345
2.4715	2.41699
2.472	-3.42407
2.4725	8.15735
2.473	4.02832
2.4735	6.14319
2.474	4.63257
2.4745	0.70496
2.475	1.51062
2.4755	-1.91345
2.476	4.83398
2.4765	5.23682
2.477	8.8623
2.4775	11.68213
2.478	8.15735
2.4785	7.75452
2.479	6.54602
2.4795	8.56018
2.48	10.27222
2.4805	6.04248
2.481	4.43115
2.4815	7.45239
2.482	3.32336
2.4825	6.44531
2.483	3.42407
2.4835	0.20142
2.484	6.14319
2.4845	5.84106
2.485	5.33752
2.4855	4.02832
2.486	5.43823
2.4865	9.86938
2.487	6.54602
2.4875	4.63257
2.488	5.13611
2.4885	2.01416
2.489	3.12195
2.4895	3.52478
2.49	2.92053
2.4905	1.00708
2.491	-1.00708
2.4915	0.50354
2.492	-4.63257
2.4925	2.71912
2.493	6.3446
2.4935	2.11487
2.494	-1.51062
2.4945	-0.60425
2.495	0.90637
2.4955	-2.61841
2.496	-6.94885
2.4965	-1.40991
2.497	0.90637
2.4975	2.61841
2.498	-3.02124
2.4985	-1.71204
2.499	-8.05664
2.4995	-9.66797
2.5	-12.38708
2.5005	-10.87646
2.501	-15.20691
2.5015	-17.72461
2.502	-12.68921
2.5025	-13.09204
2.503	-22.86072
2.5035	-29.40674
2.504	-33.63647
2.5045	-30.41382
2.505	-29.91028
2.5055	-24.77417
2.506	-19.33594
2.5065	-7.5531
2.507	-6.3446
2.5075	-2.31628
2.508	3.7262
2.5085	10.97717
2.509	22.55859
2.5095	19.33594
2.51	25.98267
2.5105	26.58691
2.511	34.14001
2.5115	31.01807
2.512	39.67896
2.5125	40.38391
2.513	34.14001
2.5135	38.57117
2.514	41.29028
2.5145	41.79382
2.515	47.03064
2.5155	45.62073
2.516	47.43347
2.5165	47.23206
2.517	42.39807
2.5175	38.36975
2.518	34.03931
2.5185	28.9032
2.519	34.94568
2.5195	26.98975
2.52	22.6593
2.5205	25.37842
2.521	15.71045
2.5215	21.85364
2.522	17.01965
2.5225	20.54443
2.523	17.32178
2.5235	16.71753
2.524	9.46655
2.5245	6.64673
2.525	10.87646
2.5255	11.78284
2.526	8.7616
2.5265	1.40991
2.527	10.87646
2.5275	4.83398
2.528	5.94177
2.5285	7.85522
2.529	13.09204
2.5295	10.0708
2.53	8.56018
2.5305	11.68213
2.531	12.38708
2.5315	7.95593
2.532	10.67505
2.5325	11.07788
2.533	6.54602
2.5335	5.74036
2.534	6.64673
2.5345	14.09912
2.535	11.2793
2.5355	9.76868
2.536	6.2439
2.5365	6.14319
2.537	7.45239
2.5375	6.14319
2.538	4.53186
2.5385	4.12903
2.539	4.12903
2.5395	2.31628
2.54	4.53186
2.5405	3.02124
2.541	0.70496
2.5415	-5.74036
2.542	-11.48071
2.5425	-27.79541
2.543	-43.70728
2.5435	-41.89453
2.544	-38.57117
2.5445	-36.65771
2.545	-25.177
2.5455	-11.98425
2.546	-8.25806
2.5465	-3.7262
2.547	5.63965
2.5475	15.71045
2.548	16.51611
2.5485	20.84656
2.549	28.70178
2.5495	30.81665
2.55	30.41382
2.5505	29.50745
2.551	30.11169
2.5515	32.83081
2.552	34.34143
2.5525	33.63647
2.553	35.04639
2.5535	32.02515
2.554	28.9032
2.5545	30.41382
2.555	26.08337
2.5555	22.6593
2.556	19.23523
2.5565	18.12744
2.557	14.90479
2.5575	13.89771
2.558	9.26514
2.5585	3.22266
2.559	6.84814
2.5595	9.56726
2.56	8.15735
2.5605	10.77576
2.561	4.83398
2.5615	1.3092
2.562	-6.54602
2.5625	-25.47913
2.563	-32.12585
2.5635	-24.77417
2.564	-17.52319
2.5645	-10.17151
2.565	-3.32336
2.5655	8.15735
2.566	8.05664
2.5665	10.57434
2.567	12.48779
2.5675	14.30054
2.568	16.71753
2.5685	21.55151
2.569	24.47205
2.5695	29.30603
2.57	36.65771
2.5705	29.40674
2.571	34.03931
2.5715	34.64355
2.572	26.3855
2.5725	32.02515
2.573	29.80957
2.5735	32.62939
2.574	34.44214
2.5745	23.16284
2.575	27.6947
2.5755	26.88904
2.576	20.1416
2.5765	15.91187
2.577	9.56726
2.5775	6.94885
2.578	11.38
2.5785	9.26514
2.579	7.95593
2.5795	6.3446
2.58	6.64673
2.5805	6.54602
2.581	-2.31628
2.5815	1.2085
2.582	-8.15735
2.5825	-2.5177
2.583	0.70496
2.5835	-6.2439
2.584	-6.84814
2.5845	-11.07788
2.585	-6.84814
2.5855	-12.28638
2.586	-9.86938
2.5865	-15.30762
2.587	-13.89771
2.5875	-12.08496
2.588	-7.45239
2.5885	-15.00549
2.589	-10.27222
2.5895	-5.74036
2.59	-9.36584
2.5905	-7.35168
2.591	-2.21558
2.5915	4.22974
2.592	1.61133
2.5925	3.7262
2.593	10.97717
2.5935	8.96301
2.594	14.70337
2.5945	10.0708
2.595	11.98425
2.5955	12.89062
2.596	14.40125
2.5965	15.20691
2.597	15.81116
2.5975	14.90479
2.598	21.45081
2.5985	21.75293
2.599	22.86072
2.5995	14.90479
2.6	10.87646
2.6005	16.21399
2.601	12.18567
2.6015	8.7616
2.602	8.05664
2.6025	1.40991
2.603	-2.21558
2.6035	-1.81274
2.604	-4.63257
2.6045	-7.75452
2.605	-17.82532
2.6055	-23.26355
2.606	-32.32727
2.6065	-48.13843
2.607	-53.77808
2.6075	-51.46179
2.608	-43.10303
2.6085	-36.25488
2.609	-28.80249
2.6095	-30.31311
2.61	-26.48621
2.6105	-24.97559
2.611	-6.3446
2.6115	-5.0354
2.612	1.3092
2.6125	11.78284
2.613	27.39258
2.6135	32.83081
2.614	42.19666
2.6145	46.62781
2.615	50.85754
2.6155	55.49011
2.616	51.5625
2.6165	50.15259
2.617	44.91577
2.6175	42.09595
2.618	32.12585
2.6185	31.62231
2.619	31.52161
2.6195	24.06921
2.62	18.93311
2.6205	9.16443
2.621	4.83398
2.6215	3.02124
2.622	1.3092
2.6225	3.12195
2.623	0.30212
2.6235	-0.90637
2.624	6.44531
2.6245	4.93469
2.625	-0.60425
2.6255	2.11487
2.626	4.83398
2.6265	2.21558
2.627	2.92053
2.6275	7.35168
2.628	5.33752
2.6285	1.3092
2.629	7.85522
2.6295	8.7616
2.63	2.71912
2.6305	7.85522
2.631	8.35876
2.6315	2.41699
2.632	4.22974
2.6325	0.30212
2.633	3.42407
2.6335	-2.41699
2.634	-17.52319
2.6345	-23.16284
2.635	-27.39258
2.6355	-27.59399
2.636	-30.11169
2.6365	-29.50745
2.637	-23.16284
2.6375	-16.61682
2.638	-11.17859
2.6385	-10.47363
2.639	-4.73328
2.6395	4.43115
2.64	9.97009
2.6405	13.99841
2.641	15.30762
2.6415	21.04797
2.642	27.99683
2.6425	26.18408
2.643	34.14001
2.6435	31.52161
2.644	26.68762
2.6445	31.82373
2.645	33.63647
2.6455	34.74426
2.646	40.08179
2.6465	36.55701
2.647	31.62231
2.6475	24.97559
2.648	22.05505
2.6485	22.45789
2.649	19.33594
2.6495	25.68054
2.65	13.99841
2.6505	9.16443
2.651	6.94885
2.6515	8.05664
2.652	11.48071
2.6525	10.47363
2.653	4.33044
2.6535	8.8623
2.654	5.74036
2.6545	8.96301
2.655	7.45239
2.6555	12.78992
2.656	13.99841
2.6565	13.39417
2.657	17.12036
2.6575	9.16443
2.658	10.57434
2.6585	2.31628
2.659	-5.23682
2.6595	-4.63257
2.66	-1.00708
2.6605	-1.3092
2.661	-2.61841
2.6615	8.66089
2.662	10.37292
2.6625	9.46655
2.663	17.92603
2.6635	28.29895
2.664	33.9386
2.6645	38.87329
2.665	41.99524
2.6655	41.08887
2.666	43.20374
2.6665	34.14001
2.667	28.80249
2.6675	26.78833
2.668	21.3501
2.6685	16.11328
2.669	6.64673
2.6695	5.43823
2.67	-0.20142
2.6705	-8.56018
2.671	-11.68213
2.6715	-5.0354
2.672	8.35876
2.6725	22.45789
2.673	31.21948
2.6735	28.50037
2.674	21.95435
2.6745	17.92603
2.675	12.89062
2.6755	15.30762
2.676	32.02515
2.6765	63.14392
2.677	83.48694
2.6775	100.10376
2.678	122.56165
2.6785	139.68201
2.679	159.01794
2.6795	169.89441
2.68	172.41211
2.6805	156.80237
2.681	120.24536
2.6815	86.50818
2.682	46.12427
2.6825	1.81274
2.683	-37.56409
2.6835	-72.30835
2.684	-108.56323
2.6845	-135.95581
2.685	-172.61353
2.6855	-195.17212
2.686	-205.94788
2.6865	-209.37195
2.687	-195.37354
2.6875	-177.85034
2.688	-154.88892
2.6885	-127.89917
2.689	-109.87244
2.6895	-88.92517
2.69	-78.55225
2.6905	-67.77649
2.691	-55.3894
2.6915	-43.30444
2.692	-27.19116
2.6925	-24.87488
2.693	-16.21399
2.6935	-2.71912
2.694	3.8269
2.6945	5.63965
2.695	19.13452
2.6955	25.78125
2.696	26.58691
2.6965	30.01099
2.697	37.96692
2.6975	40.2832
2.698	41.89453
2.6985	33.13293
2.699	32.22656
2.6995	33.53577
2.7	34.94568
2.7005	32.12585
2.701	25.47913
2.7015	29.80957
2.702	23.96851
2.7025	13.797
2.703	11.98425
2.7035	6.2439
2.704	4.93469
2.7045	9.56726
2.705	5.84106
2.7055	6.14319
2.706	-2.21558
2.7065	-2.92053
2.707	3.8269
2.7075	13.29346
2.708	12.99133
2.7085	20.64514
2.709	19.53735
2.7095	25.78125
2.71	23.46497
2.7105	23.36426
2.711	29.91028
2.7115	25.98267
2.712	17.12036
2.7125	21.65222
2.713	18.12744
2.7135	34.14001
2.714	60.02197
2.7145	71.80481
2.715	72.61047
2.7155	63.84888
2.716	57.30286
2.7165	50.05188
2.717	45.01648
2.7175	41.79382
2.718	40.38391
2.7185	31.82373
2.719	26.28479
2.7195	20.04089
2.72	9.16443
2.7205	3.12195
2.721	0.50354
2.7215	-2.61841
2.722	0.60425
2.7225	-6.14319
2.723	-5.23682
2.7235	-11.07788
2.724	-9.76868
2.7245	-16.51611
2.725	-13.59558
2.7255	-22.45789
2.726	-33.23364
2.7265	-30.51453
2.727	-38.06763
2.7275	-37.66479
2.728	-37.66479
2.7285	-33.63647
2.729	-33.23364
2.7295	-22.76001
2.73	-12.38708
2.7305	-3.62549
2.731	6.2439
2.7315	15.60974
2.732	37.36267
2.7325	70.59631
2.733	90.33508
2.7335	88.32092
2.734	88.72375
2.7345	71.40198
2.735	51.66321
2.7355	42.29736
2.736	41.59241
2.7365	45.11719
2.737	48.54126
2.7375	56.19507
2.738	48.84338
2.7385	33.9386
2.739	35.54993
2.7395	41.39099
2.74	40.48462
2.7405	46.5271
2.741	60.62622
2.7415	57.40356
2.742	55.99365
2.7425	52.06604
2.743	35.95276
2.7435	27.6947
2.744	11.58142
2.7445	-6.74744
2.745	-11.68213
2.7455	-19.03381
2.746	-17.92603
2.7465	-26.68762
2.747	-59.21631
2.7475	-99.09668
2.748	-133.03528
2.7485	-151.16272
2.749	-153.479
2.7495	-152.1698
2.75	-152.67334
2.7505	-144.41528
2.751	-137.56714
2.7515	-114.90784
2.752	-80.06287
2.7525	-50.354
2.753	-27.79541
2.7535	-22.76001
2.754	-21.95435
2.7545	-12.08496
2.755	-14.50195
2.7555	-16.01257
2.756	-12.18567
2.7565	-10.47363
2.757	-4.12903
2.7575	6.54602
2.758	26.08337
2.7585	40.1825
2.759	52.46887
2.7595	69.48853
2.76	85.40039
2.7605	90.13367
2.761	85.19897
2.7615	84.2926
2.762	72.10693
2.7625	58.30994
2.763	48.74268
2.7635	43.10303
2.764	61.02905
2.7645	75.93384
2.765	61.83472
2.7655	32.7301
2.766	16.41541
2.7665	3.52478
2.767	-14.09912
2.7675	-17.72461
2.768	-26.98975
2.7685	-31.62231
2.769	-23.36426
2.7695	-15.60974
2.77	-20.94727
2.7705	-15.1062
2.771	-7.35168
2.7715	-6.74744
2.772	-2.01416
2.7725	3.12195
2.773	4.83398
2.7735	3.02124
2.774	8.45947
2.7745	11.58142
2.775	20.44373
2.7755	18.53027
2.776	19.43665
2.7765	20.34302
2.777	14.60266
2.7775	19.43665
2.778	23.36426
2.7785	35.65063
2.779	39.37683
2.7795	44.81506
2.78	45.3186
2.7805	31.62231
2.781	21.14868
2.7815	13.09204
2.782	4.83398
2.7825	2.11487
2.783	-6.2439
2.7835	-15.40833
2.784	-15.1062
2.7845	-1.71204
2.785	33.73718
2.7855	91.34216
2.786	146.93298
2.7865	172.21069
2.787	171.90857
2.7875	151.36414
2.788	132.83386
2.7885	104.03137
2.789	67.97791
2.7895	24.47205
2.79	-20.54443
2.7905	-58.91418
2.791	-89.22729
2.7915	-107.75757
2.792	-104.63562
2.7925	-96.67969
2.793	-45.92285
2.7935	0
2.794	41.08887
2.7945	50.75684
2.795	60.92834
2.7955	53.37524
2.796	32.02515
2.7965	17.01965
2.797	8.05664
2.7975	6.3446
2.798	17.72461
2.7985	20.64514
2.799	13.09204
2.7995	-0.80566
2.8	-20.1416
2.8005	-31.62231
2.801	-33.73718
2.8015	-22.45789
2.802	-12.5885
2.8025	-19.13452
2.803	-24.06921
2.8035	-23.26355
2.804	-21.95435
2.8045	-31.52161
2.805	-36.4563
2.8055	-49.54834
2.806	-53.57666
2.8065	-47.93701
2.807	-37.96692
2.8075	-11.38
2.808	8.25806
2.8085	15.40833
2.809	11.98425
2.8095	0.90637
2.81	-10.17151
2.8105	-20.24231
2.811	-32.12585
2.8115	-38.47046
2.812	-46.72852
2.8125	-53.27454
2.813	-57.50427
2.8135	-58.30994
2.814	-50.45471
2.8145	-41.89453
2.815	-27.39258
2.8155	-21.04797
2.816	-11.38
2.8165	11.38
2.817	41.59241
2.8175	58.71277
2.818	57.70569
2.8185	43.00232
2.819	33.23364
2.8195	25.37842
2.82	18.8324
2.8205	9.06372
2.821	7.65381
2.8215	-1.71204
2.822	-6.54602
2.8225	-3.7262
2.823	-1.81274
2.8235	2.61841
2.824	0.40283
2.8245	0.40283
2.825	2.5177
2.8255	7.25098
2.826	7.35168
2.8265	11.48071
2.827	17.42249
2.8275	32.02515
2.828	43.50586
2.8285	48.64197
2.829	59.61914
2.8295	60.62622
2.83	60.12268
2.8305	52.97241
2.831	47.63489
2.8315	50.15259
2.832	53.17383
2.8325	52.36816
2.833	53.27454
2.8335	59.41772
2.834	69.99207
2.8345	82.17773
2.835	79.55933
2.8355	82.78198
2.836	80.96924
2.8365	63.04321
2.837	47.63489
2.8375	37.16125
2.838	19.33594
2.8385	-0.60425
2.839	-10.67505
2.8395	-19.73877
2.84	-17.72461
2.8405	-24.87488
2.841	-28.09753
2.8415	-28.70178
2.842	-31.62231
2.8425	-28.29895
2.843	-32.22656
2.8435	-37.56409
2.844	-44.81506
2.8445	-50.65613
2.845	-56.79932
2.8455	-61.43188
2.846	-67.57507
2.8465	-72.9126
2.847	-66.97083
2.8475	-50.75684
2.848	-42.29736
2.8485	-23.76709
2.849	2.71912
2.8495	22.45789
2.85	30.71594
2.8505	36.85913
2.851	40.58533
2.8515	39.17542
2.852	38.36975
2.8525	36.35559
2.853	27.59399
2.8535	19.43665
2.854	15.71045
2.8545	15.60974
2.855	17.82532
2.8555	18.63098
2.856	21.55151
2.8565	21.65222
2.857	30.81665
2.8575	28.70178
2.858	27.19116
2.8585	32.83081
2.859	46.72852
2.8595	44.11011
2.86	41.99524
2.8605	32.52869
2.861	24.57275
2.8615	25.98267
2.862	25.47913
2.8625	23.16284
2.863	19.63806
2.8635	13.49487
2.864	7.5531
2.8645	9.26514
2.865	5.53894
2.8655	9.06372
2.866	0.30212
2.8665	-0.70496
2.867	-2.11487
2.8675	-8.15735
2.868	-7.25098
2.8685	-4.93469
2.869	-8.66089
2.8695	-11.2793
2.87	-18.93311
2.8705	-31.72302
2.871	-24.37134
2.8715	-21.3501
2.872	-5.23682
2.8725	0.20142
2.873	-1.91345
2.8735	-11.68213
2.874	-20.74585
2.8745	-25.47913
2.875	-32.93152
2.8755	-34.44214
2.876	-31.72302
2.8765	-23.06213
2.877	-21.04797
2.8775	-9.66797
2.878	-3.12195
2.8785	7.65381
2.879	17.42249
2.8795	25.27771
2.88	37.06055
2.8805	44.41223
2.881	63.84888
2.8815	65.86304
2.882	64.75525
2.8825	62.03613
2.883	52.16675
2.8835	30.91736
2.884	6.64673
2.8845	-9.06372
2.885	-14.80408
2.8855	-15.50903
2.886	-13.89771
2.8865	-15.71045
2.887	-19.63806
2.8875	-32.02515
2.888	-26.3855
2.8885	-32.52869
2.889	-31.92444
2.8895	-29.30603
2.89	-15.91187
2.8905	-4.02832
2.891	5.23682
2.8915	4.93469
2.892	10.17151
2.8925	13.99841
2.893	11.48071
2.8935	10.87646
2.894	19.23523
2.8945	25.88196
2.895	37.96692
2.8955	46.22498
2.896	41.89453
2.8965	36.65771
2.897	38.57117
2.8975	36.4563
2.898	36.85913
2.8985	38.974
2.899	42.8009
2.8995	46.82922
2.9	43.90869
2.9005	37.06055
2.901	34.94568
2.9015	39.88037
2.902	35.44922
2.9025	46.5271
2.903	64.35242
2.9035	71.60339
2.904	68.07861
2.9045	53.17383
2.905	40.08179
2.9055	36.4563
2.906	18.73169
2.9065	7.25098
2.907	-11.78284
2.9075	-27.79541
2.908	-35.14709
2.9085	-35.65063
2.909	-40.68604
2.9095	-43.60657
2.91	-49.34692
2.9105	-38.06763
2.911	-37.66479
2.9115	-33.53577
2.912	-28.19824
2.9125	-27.59399
2.913	-23.06213
2.9135	-9.66797
2.914	16.61682
2.9145	29.20532
2.915	41.39099
2.9155	36.25488
2.916	32.83081
2.9165	28.39966
2.917	16.11328
2.9175	2.41699
2.918	-3.42407
2.9185	-16.21399
2.919	-18.8324
2.9195	-24.57275
2.92	-16.91895
2.9205	-5.63965
2.921	7.35168
2.9215	13.19275
2.922	19.94019
2.9225	19.94019
2.923	14.09912
2.9235	12.28638
2.924	25.177
2.9245	45.01648
2.925	56.19507
2.9255	68.07861
2.926	68.68286
2.9265	59.21631
2.927	54.28162
2.9275	51.5625
2.928	44.31152
2.9285	36.05347
2.929	11.58142
2.9295	-9.86938
2.93	-30.71594
2.9305	-58.61206
2.931	-72.30835
2.9315	-80.4657
2.932	-86.50818
2.9325	-87.01172
2.933	-82.68127
2.9335	-77.24304
2.934	-66.87012
2.9345	-56.79932
2.935	-36.75842
2.9355	-24.47205
2.936	-10.87646
2.9365	-2.5177
2.937	16.11328
2.9375	18.73169
2.938	21.75293
2.9385	19.53735
2.939	18.02673
2.9395	14.80408
2.94	18.8324
2.9405	15.50903
2.941	17.42249
2.9415	17.22107
2.942	12.5885
2.9425	10.87646
2.943	16.71753
2.9435	14.70337
2.944	15.81116
2.9445	14.70337
2.945	13.39417
2.9455	16.11328
2.946	14.40125
2.9465	15.40833
2.947	16.01257
2.9475	15.30762
2.948	13.29346
2.9485	10.27222
2.949	5.84106
2.9495	4.73328
2.95	13.19275
2.9505	11.78284
2.951	7.45239
2.9515	12.89062
2.952	15.20691
2.9525	16.01257
2.953	17.22107
2.9535	14.40125
2.954	15.71045
2.9545	13.797
2.955	10.77576
2.9555	17.82532
2.956	17.12036
2.9565	26.68762
2.957	40.58533
2.9575	40.38391
2.958	26.18408
2.9585	6.64673
2.959	-7.95593
2.9595	-18.93311
2.96	-27.29187
2.9605	-33.03223
2.961	-43.30444
2.9615	-42.8009
2.962	-36.05347
2.9625	-27.39258
2.963	-21.14868
2.9635	-19.33594
2.964	-10.17151
2.9645	-5.23682
2.965	5.94177
2.9655	9.26514
2.966	22.15576
2.9665	40.58533
2.967	43.30444
2.9675	47.43347
2.968	46.22498
2.9685	48.84338
2.969	45.72144
2.9695	41.79382
2.97	38.36975
2.9705	55.99365
2.971	62.03613
2.9715	60.22339
2.972	52.97241
2.9725	35.85205
2.973	15.00549
2.9735	-5.13611
2.974	-19.53735
2.9745	-33.73718
2.975	-45.41931
2.9755	-51.05896
2.976	-45.92285
2.9765	-34.74426
2.977	-26.98975
2.9775	-19.94019
2.978	-11.98425
2.9785	-21.3501
2.979	-34.84497
2.9795	-41.18958
2.98	-35.34851
2.9805	-32.83081
2.981	-23.16284
2.9815	10.87646
2.982	44.91577
2.9825	67.57507
2.983	70.49561
2.9835	56.79932
2.984	48.94409
2.9845	35.65063
2.985	29.00391
2.9855	19.13452
2.986	16.51611
2.9865	5.23682
2.987	2.11487
2.9875	0.60425
2.988	4.22974
2.9885	-3.8269
2.989	5.84106
2.9895	29.60815
2.99	57.40356
2.9905	67.8772
2.991	65.15808
2.9915	53.37524
2.992	37.06055
2.9925	22.6593
2.993	5.33752
2.9935	-2.61841
2.994	-7.85522
2.9945	-6.84814
2.995	-4.53186
2.9955	-3.52478
2.996	3.62549
2.9965	7.85522
2.997	5.84106
2.9975	7.45239
2.998	3.22266
2.9985	-0.60425
2.999	0.60425
2.9995	-1.91345
3	-8.15735
3.0005	-13.39417
3.001	-16.21399
3.0015	-15.20691
3.002	-20.54443
3.0025	-14.60266
3.003	-7.45239
3.0035	-0.30212
3.004	0.80566
3.0045	-2.01416
3.005	-8.66089
3.0055	-4.22974
3.006	-9.56726
3.0065	-11.38
3.007	-9.36584
3.0075	-17.82532
3.008	-22.25647
3.0085	-23.36426
3.009	-16.61682
3.0095	-13.59558
3.01	-1.91345
3.0105	31.72302
3.011	69.58923
3.0115	84.69543
3.012	91.04004
3.0125	89.12659
3.013	66.26587
3.0135	51.46179
3.014	30.61523
3.0145	44.91577
3.015	67.8772
3.0155	83.68835
3.016	74.12109
3.0165	60.22339
3.017	31.52161
3.0175	6.14319
3.018	-16.3147
3.0185	-37.36267
3.019	-53.47595
3.0195	-63.94958
3.02	-83.38623
3.0205	-93.35632
3.021	-98.99597
3.0215	-105.03845
3.022	-110.6781
3.0225	-97.28394
3.023	-77.24304
3.0235	-57.30286
3.024	-37.16125
3.0245	-14.30054
3.025	0.40283
3.0255	7.45239
3.026	18.02673
3.0265	39.88037
3.027	52.771
3.0275	57.40356
3.028	47.93701
3.0285	36.55701
3.029	23.06213
3.0295	4.63257
3.03	1.2085
3.0305	-4.63257
3.031	-15.81116
3.0315	-10.77576
3.032	-11.58142
3.0325	-3.32336
3.033	-2.92053
3.0335	0.40283
3.034	5.13611
3.0345	8.8623
3.035	17.32178
3.0355	19.73877
3.036	22.6593
3.0365	21.95435
3.037	11.68213
3.0375	8.05664
3.038	3.62549
3.0385	-10.27222
3.039	-7.35168
3.0395	-12.38708
3.04	-8.56018
3.0405	-10.77576
3.041	-9.26514
3.0415	-10.77576
3.042	-7.75452
3.0425	-0.70496
3.043	1.51062
3.0435	-4.22974
3.044	-1.51062
3.0445	-4.12903
3.045	-4.83398
3.0455	-4.63257
3.046	-6.3446
3.0465	-3.92761
3.047	4.02832
3.0475	10.87646
3.048	41.08887
3.0485	53.37524
3.049	63.34534
3.0495	67.37366
3.05	50.65613
3.0505	32.42798
3.051	17.6239
3.0515	22.45789
3.052	18.22815
3.0525	15.20691
3.053	9.76868
3.0535	-0.40283
3.054	1.40991
3.0545	-0.80566
3.055	5.53894
3.0555	12.48779
3.056	4.63257
3.0565	3.02124
3.057	4.02832
3.0575	-3.12195
3.058	-8.7616
3.0585	4.93469
3.059	16.11328
3.0595	17.72461
3.06	13.69629
3.0605	2.01416
3.061	-2.41699
3.0615	-15.50903
3.062	-18.32886
3.0625	-23.36426
3.063	-27.49329
3.0635	-27.49329
3.064	-26.98975
3.0645	-22.25647
3.065	-19.33594
3.0655	-14.60266
3.066	-7.45239
3.0665	-8.15735
3.067	-3.92761
3.0675	3.32336
3.068	7.35168
3.0685	12.78992
3.069	8.96301
3.0695	0.50354
3.07	7.65381
3.0705	8.66089
3.071	26.08337
3.0715	28.09753
3.072	34.34143
3.0725	26.98975
3.073	13.29346
3.0735	12.38708
3.074	8.66089
3.0745	6.74744
3.075	4.22974
3.0755	10.37292
3.076	14.09912
3.0765	6.64673
3.077	4.12903
3.0775	11.78284
3.078	12.08496
3.0785	2.01416
3.079	5.0354
3.0795	-0.20142
3.08	-3.62549
3.0805	-2.81982
3.081	-13.39417
3.0815	-12.89062
3.082	-24.47205
3.0825	-37.36267
3.083	-31.92444
3.0835	-12.18567
3.084	4.02832
3.0845	13.39417
3.085	13.49487
3.0855	17.22107
3.086	16.71753
3.0865	15.00549
3.087	23.16284
3.0875	22.96143
3.088	30.51453
3.0885	26.68762
3.089	22.25647
3.0895	19.83948
3.09	40.1825
3.0905	44.71436
3.091	48.44055
3.0915	45.52002
3.092	44.81506
3.0925	31.01807
3.093	28.60107
3.0935	16.01257
3.094	8.25806
3.0945	2.21558
3.095	7.75452
3.0955	10.87646
3.096	16.01257
3.0965	21.75293
3.097	19.83948
3.0975	22.45789
3.098	13.09204
3.0985	9.86938
3.099	8.25806
3.0995	-3.7262
3.1	-6.14319
3.1005	-12.28638
3.101	-19.94019
3.1015	-22.35718
3.102	-28.39966
3.1025	-21.95435
3.103	-17.92603
3.1035	-13.89771
3.104	-13.09204
3.1045	-17.32178
3.105	-23.26355
3.1055	-20.04089
3.106	-13.29346
3.1065	-7.25098
3.107	-4.43115
3.1075	-0.40283
3.108	-2.92053
3.1085	-6.3446
3.109	-5.63965
3.1095	-1.40991
3.11	6.2439
3.1105	19.73877
3.111	30.41382
3.1115	39.07471
3.112	37.36267
3.1125	32.7301
3.113	29.80957
3.1135	18.63098
3.114	10.27222
3.1145	8.56018
3.115	0.20142
3.1155	-7.35168
3.116	8.45947
3.1165	32.62939
3.117	33.13293
3.1175	23.76709
3.118	9.66797
3.1185	-4.63257
3.119	-18.73169
3.1195	-27.09045
3.12	-35.04639
3.1205	-35.04639
3.121	-39.07471
3.1215	-41.29028
3.122	-39.07471
3.1225	-30.81665
3.123	-25.78125
3.1235	-13.89771
3.124	-6.14319
3.1245	0.60425
3.125	-0.70496
3.1255	4.93469
3.126	8.25806
3.1265	7.15027
3.127	7.65381
3.1275	11.2793
3.128	8.45947
3.1285	12.68921
3.129	4.22974
3.1295	10.67505
3.13	12.38708
3.1305	6.74744
3.131	12.08496
3.1315	12.38708
3.132	12.38708
3.1325	3.12195
3.133	12.38708
3.1335	23.56567
3.134	26.48621
3.1345	33.43506
3.135	27.09045
3.1355	21.04797
3.136	29.60815
3.1365	39.88037
3.137	36.75842
3.1375	24.87488
3.138	8.15735
3.1385	12.5885
3.139	16.3147
3.1395	6.2439
3.14	3.7262
3.1405	-12.99133
3.141	-4.93469
3.1415	9.66797
3.142	9.46655
3.1425	5.63965
3.143	-7.75452
3.1435	-15.40833
3.144	-26.28479
3.1445	-34.84497
3.145	-36.25488
3.1455	-43.30444
3.146	-34.24072
3.1465	-21.65222
3.147	-18.8324
3.1475	-6.2439
3.148	-2.21558
3.1485	14.09912
3.149	29.00391
3.1495	33.9386
3.15	27.89612
3.1505	21.55151
3.151	11.88354
3.1515	9.86938
3.152	13.29346
3.1525	7.15027
3.153	4.22974
3.1535	0.90637
3.154	-5.13611
3.1545	-17.92603
3.155	-18.12744
3.1555	-23.96851
3.156	-23.56567
3.1565	-21.95435
3.157	-22.86072
3.1575	-17.82532
3.158	-16.81824
3.1585	-15.50903
3.159	-12.68921
3.1595	-5.43823
3.16	-4.43115
3.1605	-1.2085
3.161	-9.16443
3.1615	-2.01416
3.162	11.78284
3.1625	18.12744
3.163	25.47913
3.1635	26.78833
3.164	24.16992
3.1645	21.3501
3.165	21.04797
3.1655	21.04797
3.166	22.86072
3.1665	21.24939
3.167	11.88354
3.1675	8.8623
3.168	4.43115
3.1685	6.74744
3.169	3.12195
3.1695	-0.20142
3.17	-0.20142
3.1705	-5.74036
3.171	-7.04956
3.1715	-10.77576
3.172	-13.39417
3.1725	-11.38
3.173	-6.14319
3.1735	1.00708
3.174	19.83948
3.1745	23.06213
3.175	21.55151
3.1755	1.71204
3.176	1.71204
3.1765	1.71204
3.177	1.71204
3.1775	1.71204
3.178	1.71204
3.1785	1.71204
3.179	1.71204
3.1795	1.71204
3.18	1.71204
3.1805	1.71204
3.181	1.71204
3.1815	1.71204
3.182	1.71204
3.1825	1.71204
3.183	1.71204
3.1835	1.71204
3.184	1.71204
3.1845	1.71204
3.185	1.71204
3.1855	1.71204
3.186	40.08179
3.1865	37.06055
3.187	45.2179
3.1875	45.11719
3.188	42.19666
3.1885	33.33435
3.189	24.06921
3.1895	18.53027
3.19	9.36584
3.1905	3.62549
3.191	-7.45239
3.1915	-3.42407
3.192	-8.15735
3.1925	-10.17151
3.193	-5.74036
3.1935	-4.12903
3.194	-8.8623
3.1945	-1.3092
3.195	4.33044
3.1955	5.13611
3.196	13.09204
3.1965	13.19275
3.197	10.27222
3.1975	6.3446
3.198	8.8623
3.1985	5.63965
3.199	5.23682
3.1995	2.61841
3.2	4.43115
3.2005	7.75452
3.201	-1.3092
3.2015	-0.10071
3.202	0.80566
3.2025	1.91345
3.203	-1.61133
3.2035	6.54602
3.204	5.74036
3.2045	6.3446
3.205	3.32336
3.2055	7.15027
3.206	22.05505
3.2065	25.47913
3.207	29.91028
3.2075	28.9032
3.208	25.88196
3.2085	22.86072
3.209	19.94019
3.2095	17.32178
3.21	6.84814
3.2105	-1.51062
3.211	-16.61682
3.2115	-17.52319
3.212	-15.71045
3.2125	-18.93311
3.213	-10.97717
3.2135	2.81982
3.214	8.15735
3.2145	14.19983
3.215	12.78992
3.2155	8.05664
3.216	2.01416
3.2165	-7.04956
3.217	-16.81824
3.2175	-23.76709
3.218	-25.78125
3.2185	-21.55151
3.219	-6.74744
3.2195	-4.33044
3.22	-4.33044
3.2205	4.73328
3.221	9.86938
3.2215	16.71753
3.222	23.16284
3.2225	20.44373
3.223	10.87646
3.2235	8.56018
3.224	7.45239
3.2245	4.63257
3.225	6.74744
3.2255	18.02673
3.226	19.33594
3.2265	20.44373
3.227	14.50195
3.2275	4.63257
3.228	-2.81982
3.2285	-5.0354
3.229	-16.41541
3.2295	-15.40833
3.23	-18.02673
3.2305	-18.02673
3.231	-14.30054
3.2315	-12.38708
3.232	-14.30054
3.2325	-14.70337
3.233	-14.60266
3.2335	-8.15735
3.234	-10.87646
3.2345	-8.25806
3.235	-9.86938
3.2355	-5.43823
3.236	-5.84106
3.2365	-5.0354
3.237	-8.05664
3.2375	-3.92761
3.238	5.33752
3.2385	15.91187
3.239	27.09045
3.2395	38.16833
3.24	42.19666
3.2405	35.85205
3.241	22.76001
3.2415	15.60974
3.242	12.89062
3.2425	-0.60425
3.243	3.52478
3.2435	10.17151
3.244	13.89771
3.2445	7.85522
3.245	-2.01416
3.2455	-3.02124
3.246	-3.02124
3.2465	-3.02124
3.247	-3.02124
3.2475	-3.02124
3.248	-3.02124
3.2485	-3.02124
3.249	-3.02124
3.2495	-3.02124
3.25	-3.02124
3.2505	-3.02124
3.251	-3.02124
3.2515	-3.02124
3.252	-3.02124
3.2525	-3.02124
3.253	-3.02124
3.2535	-3.02124
3.254	-3.02124
3.2545	-3.02124
3.255	-3.02124
3.2555	-3.02124
3.256	7.45239
3.2565	3.52478
3.257	5.53894
3.2575	0.30212
3.258	0.50354
3.2585	2.31628
3.259	9.06372
3.2595	16.3147
3.26	26.3855
3.2605	21.04797
3.261	27.59399
3.2615	25.27771
3.262	29.40674
3.2625	28.39966
3.263	27.49329
3.2635	22.15576
3.264	15.00549
3.2645	14.40125
3.265	17.52319
3.2655	16.91895
3.266	17.12036
3.2665	14.90479
3.267	12.78992
3.2675	12.78992
3.268	9.56726
3.2685	10.57434
3.269	4.33044
3.2695	3.52478
3.27	6.44531
3.2705	0.20142
3.271	-1.10779
3.2715	-2.71912
3.272	-8.25806
3.2725	-9.56726
3.273	-4.22974
3.2735	3.42407
3.274	8.45947
3.2745	8.66089
3.275	25.177
3.2755	34.94568
3.276	37.66479
3.2765	38.67188
3.277	33.83789
3.2775	20.74585
3.278	8.7616
3.2785	-1.81274
3.279	-5.53894
3.2795	-17.6239
3.28	-21.65222
3.2805	-31.01807
3.281	-30.51453
3.2815	-26.68762
3.282	4.83398
3.2825	26.3855
3.283	33.23364
3.2835	39.77966
3.284	31.52161
3.2845	26.28479
3.285	12.89062
3.2855	2.71912
3.286	-9.26514
3.2865	-8.7616
3.287	4.93469
3.2875	-2.01416
3.288	-11.98425
3.2885	-26.58691
3.289	-28.09753
3.2895	-17.32178
3.29	-11.98425
3.2905	-18.73169
3.291	-24.16992
3.2915	-19.73877
3.292	-12.48779
3.2925	-9.97009
3.293	-11.58142
3.2935	-6.54602
3.294	-2.01416
3.2945	6.14319
3.295	18.22815
3.2955	20.74585
3.296	25.47913
3.2965	24.77417
3.297	20.34302
3.2975	26.28479
3.298	21.75293
3.2985	30.41382
3.299	32.83081
3.2995	42.19666
3.3	37.96692
3.3005	40.48462
3.301	36.4563
3.3015	37.26196
3.302	26.58691
3.3025	18.8324
3.303	12.48779
3.3035	11.17859
3.304	10.97717
3.3045	3.8269
3.305	6.94885
3.3055	8.96301
3.306	5.94177
3.3065	7.04956
3.307	0.50354
3.3075	-2.01416
3.308	-3.32336
3.3085	-8.35876
3.309	-7.35168
3.3095	-11.48071
3.31	-8.45947
3.3105	-3.12195
3.311	-5.23682
3.3115	-5.33752
3.312	-3.32336
3.3125	-4.43115
3.313	-4.12903
3.3135	-4.53186
3.314	-1.40991
3.3145	-0.10071
3.315	2.81982
3.3155	1.10779
3.316	14.90479
3.3165	20.74585
3.317	25.68054
3.3175	18.93311
3.318	19.94019
3.3185	27.89612
3.319	31.52161
3.3195	27.79541
3.32	18.02673
3.3205	6.84814
3.321	0.20142
3.3215	-8.66089
3.322	1.10779
3.3225	4.73328
3.323	10.17151
3.3235	12.38708
3.324	7.35168
3.3245	4.53186
3.325	-0.10071
3.3255	-2.92053
3.326	-16.21399
3.3265	-29.10461
3.327	-24.47205
3.3275	-17.72461
3.328	-13.29346
3.3285	5.94177
3.329	16.81824
3.3295	17.01965
3.33	23.8678
3.3305	20.94727
3.331	14.30054
3.3315	10.87646
3.332	6.74744
3.3325	3.8269
3.333	-1.61133
3.3335	0.30212
3.334	-4.93469
3.3345	-3.62549
3.335	-6.14319
3.3355	-4.43115
3.336	-11.17859
3.3365	-15.60974
3.337	-14.09912
3.3375	-15.91187
3.338	-15.30762
3.3385	-2.41699
3.339	12.99133
3.3395	19.83948
3.34	20.64514
3.3405	21.24939
3.341	18.73169
3.3415	17.22107
3.342	16.71753
3.3425	9.56726
3.343	5.74036
3.3435	8.45947
3.344	3.42407
3.3445	5.13611
3.345	3.42407
3.3455	10.17151
3.346	18.63098
3.3465	28.19824
3.347	28.19824
3.3475	41.39099
3.348	29.91028
3.3485	29.91028
3.349	27.39258
3.3495	26.68762
3.35	20.74585
3.3505	10.57434
3.351	2.61841
3.3515	-1.81274
3.352	-8.96301
3.3525	-5.0354
3.353	-2.01416
3.3535	-3.42407
3.354	-8.25806
3.3545	-9.66797
3.355	-8.05664
3.3555	-10.67505
3.356	-12.68921
3.3565	-9.26514
3.357	-23.66638
3.3575	-25.68054
3.358	-23.56567
3.3585	-33.53577
3.359	-28.9032
3.3595	-32.22656
3.36	-30.61523
3.3605	-26.98975
3.361	-26.08337
3.3615	-26.78833
3.362	-18.42957
3.3625	-9.76868
3.363	-9.26514
3.3635	-2.61841
3.364	-6.64673
3.3645	-1.51062
3.365	4.83398
3.3655	6.44531
3.366	9.76868
3.3665	12.18567
3.367	14.50195
3.3675	19.33594
3.368	13.29346
3.3685	11.68213
3.369	9.26514
3.3695	-0.30212
3.37	5.63965
3.3705	-3.12195
3.371	1.51062
3.3715	0.60425
3.372	15.40833
3.3725	30.41382
3.373	32.42798
3.3735	33.73718
3.374	19.03381
3.3745	10.57434
3.375	-0.30212
3.3755	0.30212
3.376	-7.95593
3.3765	-16.81824
3.377	-24.57275
3.3775	-21.55151
3.378	-11.38
3.3785	-4.53186
3.379	6.64673
3.3795	3.7262
3.38	7.85522
3.3805	4.93469
3.381	-2.41699
3.3815	-1.71204
3.382	3.62549
3.3825	7.85522
3.383	9.06372
3.3835	12.78992
3.384	19.03381
3.3845	25.37842
3.385	28.19824
3.3855	26.58691
3.386	24.37134
3.3865	25.57983
3.387	17.42249
3.3875	18.8324
3.388	16.91895
3.3885	17.6239
3.389	12.28638
3.3895	11.2793
3.39	4.73328
3.3905	5.13611
3.391	0
3.3915	1.3092
3.392	5.53894
3.3925	1.51062
3.393	7.25098
3.3935	4.73328
3.394	6.74744
3.3945	11.2793
3.395	8.45947
3.3955	9.26514
3.396	5.63965
3.3965	-0.10071
3.397	-3.32336
3.3975	-2.5177
3.398	1.91345
3.3985	13.69629
3.399	21.45081
3.3995	25.177
3.4	23.26355
3.4005	13.59558
3.401	14.30054
3.4015	11.2793
3.402	13.09204
3.4025	8.66089
3.403	3.8269
3.4035	3.42407
3.404	0.90637
3.4045	-0.10071
3.405	2.01416
3.4055	0.90637
3.406	-1.2085
3.4065	3.32336
3.407	5.13611
3.4075	10.67505
3.408	13.89771
3.4085	28.60107
3.409	28.39966
3.4095	19.43665
3.41	9.36584
3.4105	4.83398
3.411	-9.56726
3.4115	-4.33044
3.412	-1.81274
3.4125	-1.3092
3.413	-0.60425
3.4135	-0.40283
3.414	9.06372
3.4145	10.17151
3.415	12.48779
3.4155	17.22107
3.416	22.86072
3.4165	23.56567
3.417	28.19824
3.4175	32.7301
3.418	31.01807
3.4185	26.18408
3.419	31.72302
3.4195	36.35559
3.42	35.65063
3.4205	37.46338
3.421	39.47754
3.4215	37.56409
3.422	33.33435
3.4225	30.11169
3.423	31.82373
3.4235	22.35718
3.424	10.0708
3.4245	4.22974
3.425	-1.61133
3.4255	1.91345
3.426	1.71204
3.4265	-0.60425
3.427	2.71912
3.4275	-0.50354
3.428	-1.61133
3.4285	1.00708
3.429	0
3.4295	-7.85522
3.43	-1.51062
3.4305	-1.61133
3.431	-5.74036
3.4315	-5.94177
3.432	-9.46655
3.4325	-13.39417
3.433	-13.49487
3.4335	-10.97717
3.434	-4.93469
3.4345	-4.53186
3.435	4.53186
3.4355	19.33594
3.436	27.6947
3.4365	34.14001
3.437	28.50037
3.4375	23.66638
3.438	10.47363
3.4385	7.75452
3.439	3.92761
3.4395	3.02124
3.44	-7.95593
3.4405	-12.28638
3.441	-19.43665
3.4415	-25.57983
3.442	-31.72302
3.4425	-26.78833
3.443	-32.02515
3.4435	-29.91028
3.444	-32.52869
3.4445	-25.68054
3.445	-22.86072
3.4455	-18.02673
3.446	-18.63098
3.4465	-21.45081
3.447	-24.57275
3.4475	-26.08337
3.448	-28.39966
3.4485	-27.89612
3.449	-23.26355
3.4495	-26.68762
3.45	-22.25647
3.4505	-17.82532
3.451	-11.58142
3.4515	-7.25098
3.452	-4.33044
3.4525	1.61133
3.453	1.71204
3.4535	-2.31628
3.454	-5.53894
3.4545	-6.54602
3.455	-3.8269
3.4555	-1.61133
3.456	3.12195
3.4565	-1.00708
3.457	4.83398
3.4575	4.22974
3.458	10.47363
3.4585	9.46655
3.459	21.55151
3.4595	21.3501
3.46	24.47205
3.4605	32.7301
3.461	23.56567
3.4615	17.42249
3.462	16.41541
3.4625	11.88354
3.463	9.16443
3.4635	12.48779
3.464	12.89062
3.4645	5.53894
3.465	8.96301
3.4655	3.8269
3.466	3.12195
3.4665	2.81982
3.467	2.31628
3.4675	-0.20142
3.468	-6.64673
3.4685	0.40283
3.469	-1.00708
3.4695	0.80566
3.47	5.63965
3.4705	18.8324
3.471	19.63806
3.4715	21.95435
3.472	23.56567
3.4725	22.15576
3.473	22.05505
3.4735	25.78125
3.474	34.94568
3.4745	42.49878
3.475	39.07471
3.4755	43.30444
3.476	48.13843
3.4765	51.26038
3.477	49.95117
3.4775	44.61365
3.478	43.10303
3.4785	35.54993
3.479	36.75842
3.4795	31.01807
3.48	20.54443
3.4805	17.22107
3.481	7.65381
3.4815	-9.36584
3.482	-18.02673
3.4825	-34.14001
3.483	-43.80798
3.4835	-46.32568
3.484	-52.97241
3.4845	-59.41772
3.485	-58.00781
3.4855	-55.59082
3.486	-48.03772
3.4865	-42.09595
3.487	-27.79541
3.4875	-21.95435
3.488	-11.78284
3.4885	-7.35168
3.489	-1.81274
3.4895	5.53894
3.49	10.47363
3.4905	15.71045
3.491	19.63806
3.4915	20.24231
3.492	19.63806
3.4925	21.04797
3.493	24.87488
3.4935	21.04797
3.494	12.48779
3.4945	9.16443
3.495	7.15027
3.4955	-1.00708
3.496	-2.21558
3.4965	2.61841
3.497	1.10779
3.4975	3.8269
3.498	3.52478
3.4985	0.30212
3.499	4.02832
3.4995	-1.51062
3.5	-6.2439
3.5005	0.40283
3.501	0.10071
3.5015	3.8269
3.502	0.90637
3.5025	4.22974
3.503	4.22974
3.5035	13.49487
3.504	19.83948
3.5045	34.74426
3.505	40.38391
3.5055	41.08887
3.506	31.11877
3.5065	24.47205
3.507	16.3147
3.5075	4.63257
3.508	6.84814
3.5085	-4.63257
3.509	-10.0708
3.5095	-9.97009
3.51	-7.75452
3.5105	-7.04956
3.511	-9.26514
3.5115	-4.12903
3.512	-4.93469
3.5125	0.80566
3.513	-5.13611
3.5135	3.02124
3.514	3.92761
3.5145	1.81274
3.515	3.8269
3.5155	1.00708
3.516	11.88354
3.5165	13.29346
3.517	17.32178
3.5175	11.2793
3.518	16.11328
3.5185	15.71045
3.519	17.52319
3.5195	15.1062
3.52	11.68213
3.5205	12.28638
3.521	10.17151
3.5215	9.26514
3.522	6.94885
3.5225	6.2439
3.523	7.45239
3.5235	6.74744
3.524	4.43115
3.5245	9.16443
3.525	13.89771
3.5255	19.73877
3.526	13.29346
3.5265	16.11328
3.527	16.11328
3.5275	16.41541
3.528	20.1416
3.5285	27.6947
3.529	28.80249
3.5295	38.77258
3.53	44.71436
3.5305	46.32568
3.531	40.78674
3.5315	34.84497
3.532	29.80957
3.5325	34.84497
3.533	28.60107
3.5335	22.55859
3.534	22.55859
3.5345	21.75293
3.535	14.30054
3.5355	7.15027
3.536	0.90637
3.5365	-1.51062
3.537	-6.64673
3.5375	-7.45239
3.538	-1.61133
3.5385	-7.45239
3.539	-11.68213
3.5395	-9.66797
3.54	-8.56018
3.5405	-13.39417
3.541	-10.47363
3.5415	-16.61682
3.542	-13.99841
3.5425	-16.11328
3.543	-17.32178
3.5435	-19.33594
3.544	-13.89771
3.5445	-9.56726
3.545	-4.33044
3.5455	-2.11487
3.546	-5.0354
3.5465	-5.0354
3.547	-1.2085
3.5475	-8.35876
3.548	-9.56726
3.5485	-25.68054
3.549	-37.96692
3.5495	-40.68604
3.55	-39.67896
3.5505	-14.60266
3.551	5.0354
3.5515	7.5531
3.552	14.80408
3.5525	11.2793
3.553	3.22266
3.5535	15.00549
3.554	37.26196
3.5545	61.43188
3.555	75.32959
3.5555	82.17773
3.556	92.85278
3.5565	97.18323
3.557	85.19897
3.5575	62.8418
3.558	35.44922
3.5585	4.33044
3.559	-0.90637
3.5595	3.8269
3.56	-0.80566
3.5605	-11.17859
3.561	-29.00391
3.5615	-37.36267
3.562	-44.0094
3.5625	-41.79382
3.563	-39.37683
3.5635	-28.9032
3.564	-23.16284
3.5645	-27.89612
3.565	-37.86621
3.5655	-40.78674
3.566	-39.47754
3.5665	-36.75842
3.567	-33.23364
3.5675	-32.02515
3.568	-26.78833
3.5685	-22.86072
3.569	-23.36426
3.5695	-18.02673
3.57	-13.49487
3.5705	-9.46655
3.571	-6.94885
3.5715	-13.19275
3.572	-7.25098
3.5725	-8.96301
3.573	-9.86938
3.5735	-7.35168
3.574	-4.93469
3.5745	-4.33044
3.575	-4.63257
3.5755	4.93469
3.576	3.12195
3.5765	5.84106
3.577	14.09912
3.5775	14.30054
3.578	11.98425
3.5785	10.47363
3.579	13.89771
3.5795	7.75452
3.58	12.68921
3.5805	22.55859
3.581	24.47205
3.5815	23.8678
3.582	26.28479
3.5825	22.25647
3.583	21.24939
3.5835	14.70337
3.584	24.67346
3.5845	21.55151
3.585	38.974
3.5855	42.09595
3.586	56.90002
3.5865	70.19348
3.587	72.71118
3.5875	58.00781
3.588	53.27454
3.5885	51.76392
3.589	36.65771
3.5895	36.4563
3.59	37.46338
3.5905	29.50745
3.591	1.2085
3.5915	-24.27063
3.592	-54.28162
3.5925	-72.81189
3.593	-73.41614
3.5935	-63.54675
3.594	-50.75684
3.5945	-37.66479
3.595	-24.97559
3.5955	-17.6239
3.596	-3.22266
3.5965	7.5531
3.597	9.46655
3.5975	8.15735
3.598	11.68213
3.5985	4.73328
3.599	0.90637
3.5995	5.13611
3.6	17.32178
3.6005	31.82373
3.601	46.42639
3.6015	59.31702
3.602	59.31702
3.6025	59.01489
3.603	51.05896
3.6035	41.99524
3.604	21.65222
3.6045	0.50354
3.605	-11.78284
3.6055	-15.91187
3.606	-7.15027
3.6065	-10.0708
3.607	-12.99133
3.6075	-12.48779
3.608	-17.52319
3.6085	-17.12036
3.609	-11.38
3.6095	-5.94177
3.61	6.04248
3.6105	7.75452
3.611	14.09912
3.6115	21.65222
3.612	29.00391
3.6125	12.99133
3.613	5.74036
3.6135	9.56726
3.614	5.94177
3.6145	9.66797
3.615	6.14319
3.6155	19.73877
3.616	23.8678
3.6165	33.13293
3.617	53.87878
3.6175	83.88977
3.618	122.86377
3.6185	139.07776
3.619	146.53015
3.6195	132.73315
3.62	101.8158
3.6205	73.11401
3.621	42.8009
3.6215	15.50903
3.622	-3.92761
3.6225	-18.53027
3.623	-30.91736
3.6235	-40.1825
3.624	-44.71436
3.6245	-59.61914
3.625	-70.3949
3.6255	-76.53809
3.626	-69.38782
3.6265	-61.02905
3.627	-48.33984
3.6275	-51.36108
3.628	-50.2533
3.6285	-50.75684
3.629	-51.36108
3.6295	-53.77808
3.63	-52.56958
3.6305	-42.09595
3.631	-42.19666
3.6315	-39.17542
3.632	-34.44214
3.6325	-36.35559
3.633	-29.70886
3.6335	-30.91736
3.634	-32.93152
3.6345	-32.52869
3.635	-23.56567
3.6355	-24.67346
3.636	-19.13452
3.6365	-15.60974
3.637	-8.66089
3.6375	-8.56018
3.638	-7.65381
3.6385	-6.14319
3.639	-20.24231
3.6395	-34.24072
3.64	-58.20923
3.6405	-75.93384
3.641	-76.13525
3.6415	-68.68286
3.642	-74.32251
3.6425	-61.33118
3.643	-49.64905
3.6435	-39.27612
3.644	-29.91028
3.6445	-14.30054
3.645	-6.2439
3.6455	0.70496
3.646	1.61133
3.6465	19.13452
3.647	21.75293
3.6475	26.58691
3.648	33.73718
3.6485	42.7002
3.649	56.29578
3.6495	66.76941
3.65	67.37366
3.6505	69.1864
3.651	61.33118
3.6515	59.61914
3.652	59.31702
3.6525	54.58374
3.653	70.49561
3.6535	79.15649
3.654	87.41455
3.6545	79.2572
3.655	62.9425
3.6555	50.75684
3.656	38.57117
3.6565	24.77417
3.657	16.21399
3.6575	4.33044
3.658	-9.66797
3.6585	-17.12036
3.659	-19.53735
3.6595	-16.11328
3.66	-14.40125
3.6605	-11.98425
3.661	-6.74744
3.6615	-5.13611
3.662	-3.8269
3.6625	0.10071
3.663	-1.00708
3.6635	-1.40991
3.664	5.0354
3.6645	44.81506
3.665	105.44128
3.6655	151.26343
3.666	158.81653
3.6665	136.45935
3.667	106.9519
3.6675	58.61206
3.668	16.91895
3.6685	-20.04089
3.669	-52.16675
3.6695	-70.3949
3.67	-73.51685
3.6705	-76.43738
3.671	-63.24463
3.6715	-63.24463
3.672	-65.76233
3.6725	-75.02747
3.673	-81.47278
3.6735	-85.90393
3.674	-89.12659
3.6745	-82.37915
3.675	-74.82605
3.6755	-60.82764
3.676	-49.74976
3.6765	-31.52161
3.677	-5.74036
3.6775	17.32178
3.678	37.36267
3.6785	44.51294
3.679	50.45471
3.6795	33.73718
3.68	28.09753
3.6805	19.73877
3.681	23.16284
3.6815	18.22815
3.682	20.1416
3.6825	15.00549
3.683	2.11487
3.6835	-11.98425
3.684	-16.11328
3.6845	-24.97559
3.685	-33.43506
3.6855	-37.16125
3.686	-32.02515
3.6865	-30.31311
3.687	-22.86072
3.6875	-21.24939
3.688	-13.99841
3.6885	-9.26514
3.689	-4.33044
3.6895	-9.76868
3.69	-15.20691
3.6905	-7.45239
3.691	-2.11487
3.6915	-4.53186
3.692	1.2085
3.6925	5.43823
3.693	11.2793
3.6935	15.30762
3.694	34.14001
3.6945	68.28003
3.695	89.328
3.6955	100.30518
3.696	97.18323
3.6965	93.65845
3.697	87.21313
3.6975	81.57349
3.698	84.2926
3.6985	78.75366
3.699	74.12109
3.6995	72.30835
3.7	73.01331
3.7005	70.49561
3.701	62.9425
3.7015	44.21082
3.702	31.92444
3.7025	17.22107
3.703	5.74036
3.7035	-5.13611
3.704	-26.68762
3.7045	-29.40674
3.705	-39.47754
3.7055	-40.58533
3.706	-39.77966
3.7065	-42.49878
3.707	-38.87329
3.7075	-39.67896
3.708	-33.9386
3.7085	-43.70728
3.709	-41.29028
3.7095	-54.68445
3.71	-69.99207
3.7105	-72.20764
3.711	-79.15649
3.7115	-69.28711
3.712	-73.91968
3.7125	-70.19348
3.713	-78.75366
3.7135	-76.84021
3.714	-72.30835
3.7145	-71.20056
3.715	-56.29578
3.7155	-34.44214
3.716	11.98425
3.7165	39.37683
3.717	42.59949
3.7175	39.98108
3.718	38.77258
3.7185	33.23364
3.719	20.1416
3.7195	14.09912
3.72	21.95435
3.7205	45.82214
3.721	77.948
3.7215	108.36182
3.722	121.55457
3.7225	127.19421
3.723	128.80554
3.7235	106.44836
3.724	76.53809
3.7245	47.43347
3.725	25.78125
3.7255	8.66089
3.726	7.95593
3.7265	1.61133
3.727	-3.02124
3.7275	-2.92053
3.728	-16.71753
3.7285	-25.177
3.729	-31.62231
3.7295	-31.72302
3.73	-24.16992
3.7305	-22.86072
3.731	-20.64514
3.7315	-19.23523
3.732	-11.98425
3.7325	-5.74036
3.733	-5.23682
3.7335	-9.36584
3.734	-20.74585
3.7345	-44.31152
3.735	-71.90552
3.7355	-97.88818
3.736	-102.21863
3.7365	-99.80164
3.737	-91.24146
3.7375	-85.80322
3.738	-75.12817
3.7385	-61.53259
3.739	-47.8363
3.7395	-22.6593
3.74	12.48779
3.7405	38.57117
3.741	47.7356
3.7415	57.60498
3.742	57.00073
3.7425	48.23914
3.743	50.65613
3.7435	53.97949
3.744	56.39648
3.7445	51.46179
3.745	50.2533
3.7455	48.33984
3.746	35.85205
3.7465	30.41382
3.747	25.68054
3.7475	25.57983
3.748	21.75293
3.7485	29.50745
3.749	38.974
3.7495	46.5271
3.75	37.16125
3.7505	40.58533
3.751	43.60657
3.7515	54.78516
3.752	73.21472
3.7525	78.55225
3.753	77.44446
3.7535	58.81348
3.754	42.49878
3.7545	24.57275
3.755	19.63806
3.7555	27.19116
3.756	29.40674
3.7565	23.06213
3.757	16.3147
3.7575	7.5531
3.758	-6.54602
3.7585	-24.47205
3.759	-49.14551
3.7595	-65.96375
3.76	-74.82605
3.7605	-85.09827
3.761	-96.07544
3.7615	-97.58606
3.762	-95.87402
3.7625	-78.55225
3.763	-60.3241
3.7635	-33.03223
3.764	-8.35876
3.7645	6.74744
3.765	16.11328
3.7655	30.2124
3.766	48.23914
3.7665	67.8772
3.767	74.72534
3.7675	79.66003
3.768	79.2572
3.7685	56.09436
3.769	30.81665
3.7695	-7.45239
3.77	-14.19983
3.7705	-15.40833
3.771	-23.76709
3.7715	-49.34692
3.772	-76.94092
3.7725	-94.3634
3.773	-77.14233
3.7735	-47.93701
3.774	-28.29895
3.7745	-29.50745
3.775	-11.98425
3.7755	31.32019
3.776	103.22571
3.7765	137.56714
3.777	149.85352
3.7775	164.25476
3.778	155.69458
3.7785	126.18713
3.779	93.25562
3.7795	44.51294
3.78	-0.10071
3.7805	-35.65063
3.781	-47.03064
3.7815	-38.67188
3.782	-15.20691
3.7825	15.91187
3.783	16.11328
3.7835	12.38708
3.784	11.78284
3.7845	10.57434
3.785	-5.0354
3.7855	-13.59558
3.786	-15.30762
3.7865	-8.8623
3.787	-8.66089
3.7875	-1.71204
3.788	-9.16443
3.7885	-18.02673
3.789	-17.52319
3.7895	-14.09912
3.79	-9.46655
3.7905	-6.3446
3.791	9.46655
3.7915	25.98267
3.792	26.08337
3.7925	24.37134
3.793	24.67346
3.7935	15.20691
3.794	21.04797
3.7945	23.8678
3.795	36.05347
3.7955	48.54126
3.796	51.86462
3.7965	55.79224
3.797	52.8717
3.7975	52.771
3.798	45.01648
3.7985	49.64905
3.799	37.66479
3.7995	26.28479
3.8	21.75293
3.8005	17.92603
3.801	16.41541
3.8015	6.04248
3.802	-0.30212
3.8025	-7.04956
3.803	-13.797
3.8035	-19.53735
3.804	-20.44373
3.8045	-22.35718
3.805	-23.76709
3.8055	-18.63098
3.806	-16.3147
3.8065	-11.98425
3.807	1.71204
3.8075	7.45239
3.808	11.17859
3.8085	8.7616
3.809	17.01965
3.8095	20.44373
3.81	26.3855
3.8105	30.2124
3.811	42.09595
3.8115	41.08887
3.812	45.01648
3.8125	39.77966
3.813	36.4563
3.8135	35.14709
3.814	28.80249
3.8145	39.47754
3.815	33.73718
3.8155	27.29187
3.816	29.50745
3.8165	33.43506
3.817	33.43506
3.8175	27.59399
3.818	19.53735
3.8185	-7.04956
3.819	-15.1062
3.8195	-26.18408
3.82	-22.6593
3.8205	-35.04639
3.821	-55.69153
3.8215	-70.29419
3.822	-80.56641
3.8225	-86.40747
3.823	-87.71667
3.8235	-89.83154
3.824	-87.51526
3.8245	-86.30676
3.825	-71.20056
3.8255	-52.56958
3.826	-37.96692
3.8265	-31.62231
3.827	-21.3501
3.8275	-21.3501
3.828	-28.80249
3.8285	-42.09595
3.829	-20.94727
3.8295	-11.2793
3.83	1.2085
3.8305	8.66089
3.831	11.2793
3.8315	6.04248
3.832	0.90637
3.8325	32.83081
3.833	60.62622
3.8335	86.50818
3.834	70.79773
3.8345	35.04639
3.835	-15.20691
3.8355	-62.64038
3.836	-88.82446
3.8365	-107.85828
3.837	-119.03687
3.8375	-117.92908
3.838	-116.51917
3.8385	-94.56482
3.839	-58.30994
3.8395	-1.00708
3.84	35.65063
3.8405	65.66162
3.841	78.95508
3.8415	69.99207
3.842	68.07861
3.8425	65.46021
3.843	61.53259
3.8435	73.41614
3.844	89.73083
3.8445	94.86694
3.845	97.18323
3.8455	89.93225
3.846	81.87561
3.8465	72.50977
3.847	60.4248
3.8475	55.69153
3.848	58.30994
3.8485	63.34534
3.849	70.3949
3.8495	69.1864
3.85	63.74817
3.8505	56.19507
3.851	40.2832
3.8515	26.48621
3.852	10.77576
3.8525	-4.02832
3.853	-12.08496
3.8535	-32.32727
3.854	-30.01099
3.8545	-29.10461
3.855	-32.83081
3.8555	-24.97559
3.856	-18.32886
3.8565	3.32336
3.857	11.68213
3.8575	-3.62549
3.858	-13.49487
3.8585	-29.00391
3.859	-34.64355
3.8595	-33.73718
3.86	-36.4563
3.8605	-44.41223
3.861	-66.6687
3.8615	-95.06836
3.862	-96.27686
3.8625	-108.76465
3.863	-128.50342
3.8635	-140.99121
3.864	-133.53882
3.8645	-119.23828
3.865	-74.42322
3.8655	-12.28638
3.866	55.79224
3.8665	101.51367
3.867	142.70325
3.8675	181.87866
3.868	197.79053
3.8685	198.89832
3.869	192.05017
3.8695	171.30432
3.87	148.84644
3.8705	122.76306
3.871	96.47827
3.8715	70.99915
3.872	52.16675
3.8725	49.34692
3.873	44.21082
3.8735	36.55701
3.874	32.02515
3.8745	39.27612
3.875	44.81506
3.8755	50.75684
3.876	52.06604
3.8765	56.79932
3.877	36.65771
3.8775	20.54443
3.878	15.60974
3.8785	17.72461
3.879	15.50903
3.8795	24.37134
3.88	27.99683
3.8805	29.80957
3.881	30.51453
3.8815	29.20532
3.882	24.97559
3.8825	25.37842
3.883	20.74585
3.8835	17.6239
3.884	17.6239
3.8845	14.50195
3.885	3.8269
3.8855	1.2085
3.886	0.60425
3.8865	0.30212
3.887	4.02832
3.8875	-11.17859
3.888	-22.15576
3.8885	-19.73877
3.889	-21.85364
3.8895	-50.95825
3.89	-57.30286
3.8905	-54.78516
3.891	-58.71277
3.8915	-55.99365
3.892	-56.49719
3.8925	-72.9126
3.893	-92.44995
3.8935	-94.06128
3.894	-78.95508
3.8945	-58.51135
3.895	-34.24072
3.8955	-20.94727
3.896	4.02832
3.8965	15.60974
3.897	25.07629
3.8975	23.8678
3.898	16.01257
3.8985	-15.71045
3.899	-65.05737
3.8995	-71.09985
3.9	-63.24463
3.9005	-70.59631
3.901	-79.76074
3.9015	-80.06287
3.902	-89.73083
3.9025	-74.02039
3.903	-32.7301
3.9035	12.08496
3.904	33.13293
3.9045	50.45471
3.905	47.13135
3.9055	24.87488
3.906	-7.04956
3.9065	-20.1416
3.907	-20.34302
3.9075	6.84814
3.908	34.03931
3.9085	45.01648
3.909	59.1156
3.9095	64.45312
3.91	70.3949
3.9105	83.58765
3.911	63.64746
3.9115	12.08496
3.912	-42.19666
3.9125	-54.88586
3.913	-39.47754
3.9135	-42.09595
3.914	-38.77258
3.9145	-44.81506
3.915	-56.39648
3.9155	-54.48303
3.916	-75.12817
3.9165	-80.96924
3.917	-80.36499
3.9175	-80.06287
3.918	-67.47437
3.9185	-52.16675
3.919	-30.51453
3.9195	4.53186
3.92	33.63647
3.9205	49.44763
3.921	66.97083
3.9215	99.19739
3.922	150.05493
3.9225	190.74097
3.923	188.32397
3.9235	151.86768
3.924	131.62537
3.9245	131.12183
3.925	113.1958
3.9255	84.19189
3.926	64.95667
3.9265	60.3241
3.927	54.88586
3.9275	38.87329
3.928	28.29895
3.9285	7.95593
3.929	-1.81274
3.9295	-8.66089
3.93	-14.30054
3.9305	-15.40833
3.931	-10.97717
3.9315	-2.5177
3.932	2.41699
3.9325	12.38708
3.933	10.57434
3.9335	6.14319
3.934	10.47363
3.9345	4.43115
3.935	0.50354
3.9355	2.92053
3.936	2.92053
3.9365	8.05664
3.937	9.97009
3.9375	7.65381
3.938	-5.74036
3.9385	-21.75293
3.939	-51.46179
3.9395	-66.26587
3.94	-71.30127
3.9405	-57.40356
3.941	-41.18958
3.9415	-22.25647
3.942	-2.92053
3.9425	3.42407
3.943	4.43115
3.9435	-5.23682
3.944	-20.54443
3.9445	-31.11877
3.945	-44.51294
3.9455	-44.81506
3.946	-31.92444
3.9465	-52.46887
3.947	-65.76233
3.9475	-72.9126
3.948	-65.15808
3.9485	-40.88745
3.949	-28.29895
3.9495	-27.19116
3.95	-43.90869
3.9505	-46.02356
3.951	-37.46338
3.9515	-13.49487
3.952	-2.71912
3.9525	-5.63965
3.953	-2.92053
3.9535	15.30762
3.954	58.81348
3.9545	91.14075
3.955	124.4751
3.9555	157.2052
3.956	173.41919
3.9565	163.95264
3.957	127.19421
3.9575	80.66711
3.958	46.22498
3.9585	22.86072
3.959	31.62231
3.9595	53.07312
3.96	56.69861
3.9605	35.04639
3.961	13.59558
3.9615	-32.22656
3.962	-47.23206
3.9625	-56.49719
3.963	-55.3894
3.9635	-53.17383
3.964	-49.85046
3.9645	-39.67896
3.965	-33.9386
3.9655	-44.51294
3.966	-75.32959
3.9665	-126.38855
3.967	-180.97229
3.9675	-222.5647
3.968	-229.71497
3.9685	-233.54187
3.969	-226.3916
3.9695	-190.43884
3.97	-177.3468
3.9705	-159.52148
3.971	-106.04553
3.9715	-61.12976
3.972	5.94177
3.9725	79.66003
3.973	129.20837
3.9735	174.12415
3.974	202.72522
3.9745	211.2854
3.975	209.57336
3.9755	188.82751
3.976	159.62219
3.9765	162.03918
3.977	160.22644
3.9775	135.65369
3.978	116.82129
3.9785	107.95898
3.979	112.28943
3.9795	94.56482
3.98	102.11792
3.9805	101.51367
