Daniele_De_Santis_Right_2.c3d  



Time(s):	B_L_bicipite(μV):
0	6.3446
0.0005	9.86938
0.001	7.5531
0.0015	6.04248
0.002	10.87646
0.0025	7.15027
0.003	2.92053
0.0035	8.45947
0.004	8.96301
0.0045	7.65381
0.005	6.54602
0.0055	8.8623
0.006	7.5531
0.0065	6.94885
0.007	10.47363
0.0075	3.12195
0.008	7.85522
0.0085	7.65381
0.009	4.53186
0.0095	1.91345
0.01	5.33752
0.0105	12.78992
0.011	8.15735
0.0115	5.74036
0.012	5.23682
0.0125	0.80566
0.013	4.43115
0.0135	4.73328
0.014	4.93469
0.0145	6.3446
0.015	4.83398
0.0155	3.42407
0.016	0.70496
0.0165	-3.22266
0.017	3.42407
0.0175	3.62549
0.018	1.00708
0.0185	2.61841
0.019	0.90637
0.0195	2.81982
0.02	2.31628
0.0205	1.40991
0.021	4.33044
0.0215	2.41699
0.022	5.74036
0.0225	1.81274
0.023	1.10779
0.0235	3.62549
0.024	5.84106
0.0245	5.43823
0.025	3.92761
0.0255	7.85522
0.026	-1.51062
0.0265	1.2085
0.027	6.64673
0.0275	9.66797
0.028	9.66797
0.0285	4.33044
0.029	2.5177
0.0295	0.60425
0.03	4.83398
0.0305	3.12195
0.031	5.33752
0.0315	6.84814
0.032	2.31628
0.0325	5.43823
0.033	2.21558
0.0335	4.33044
0.034	3.22266
0.0345	2.92053
0.035	6.84814
0.0355	4.53186
0.036	7.04956
0.0365	4.83398
0.037	5.0354
0.0375	8.25806
0.038	11.48071
0.0385	12.89062
0.039	3.7262
0.0395	1.00708
0.04	6.64673
0.0405	4.73328
0.041	7.85522
0.0415	9.16443
0.042	14.60266
0.0425	12.08496
0.043	6.14319
0.0435	5.74036
0.044	12.99133
0.0445	3.92761
0.045	2.5177
0.0455	2.11487
0.046	-2.21558
0.0465	4.93469
0.047	4.83398
0.0475	4.83398
0.048	6.84814
0.0485	4.33044
0.049	7.25098
0.0495	5.84106
0.05	8.15735
0.0505	8.45947
0.051	7.95593
0.0515	10.67505
0.052	7.04956
0.0525	9.97009
0.053	8.25806
0.0535	6.84814
0.054	6.3446
0.0545	10.0708
0.055	5.84106
0.0555	12.48779
0.056	7.45239
0.0565	8.96301
0.057	3.02124
0.0575	6.2439
0.058	4.63257
0.0585	10.67505
0.059	6.14319
0.0595	2.92053
0.06	1.40991
0.0605	-1.91345
0.061	4.93469
0.0615	2.21558
0.062	6.2439
0.0625	1.40991
0.063	1.00708
0.0635	9.56726
0.064	4.63257
0.0645	7.65381
0.065	8.8623
0.0655	5.94177
0.066	2.41699
0.0665	1.51062
0.067	3.22266
0.0675	2.61841
0.068	4.93469
0.0685	0.40283
0.069	0.90637
0.0695	-0.80566
0.07	-1.81274
0.0705	2.01416
0.071	2.01416
0.0715	2.5177
0.072	-4.22974
0.0725	7.65381
0.073	1.61133
0.0735	6.54602
0.074	7.15027
0.0745	3.32336
0.075	6.64673
0.0755	8.15735
0.076	4.43115
0.0765	5.23682
0.077	2.41699
0.0775	5.63965
0.078	4.43115
0.0785	8.56018
0.079	6.14319
0.0795	4.33044
0.08	7.75452
0.0805	2.21558
0.081	2.61841
0.0815	1.71204
0.082	9.56726
0.0825	4.73328
0.083	3.42407
0.0835	3.32336
0.084	3.22266
0.0845	6.2439
0.085	11.48071
0.0855	7.25098
0.086	7.75452
0.0865	5.13611
0.087	5.13611
0.0875	7.15027
0.088	7.95593
0.0885	7.95593
0.089	7.35168
0.0895	9.16443
0.09	5.0354
0.0905	7.35168
0.091	12.78992
0.0915	5.94177
0.092	3.62549
0.0925	3.7262
0.093	4.12903
0.0935	6.2439
0.094	9.36584
0.0945	3.02124
0.095	7.04956
0.0955	2.41699
0.096	5.23682
0.0965	6.3446
0.097	7.15027
0.0975	9.16443
0.098	8.56018
0.0985	0.50354
0.099	6.3446
0.0995	-1.10779
0.1	2.21558
0.1005	-0.90637
0.101	-2.92053
0.1015	4.43115
0.102	4.73328
0.1025	1.10779
0.103	5.63965
0.1035	3.8269
0.104	5.84106
0.1045	4.12903
0.105	1.10779
0.1055	3.12195
0.106	1.2085
0.1065	1.91345
0.107	6.54602
0.1075	6.44531
0.108	4.12903
0.1085	-0.60425
0.109	0.80566
0.1095	3.32336
0.11	5.84106
0.1105	3.42407
0.111	4.73328
0.1115	0.90637
0.112	9.97009
0.1125	3.32336
0.113	0.10071
0.1135	0.60425
0.114	4.33044
0.1145	4.63257
0.115	6.74744
0.1155	4.73328
0.116	3.92761
0.1165	6.14319
0.117	2.01416
0.1175	6.84814
0.118	7.35168
0.1185	3.92761
0.119	2.71912
0.1195	7.75452
0.12	3.42407
0.1205	-0.10071
0.121	1.71204
0.1215	-1.51062
0.122	-0.80566
0.1225	1.61133
0.123	5.74036
0.1235	3.22266
0.124	1.2085
0.1245	5.84106
0.125	5.94177
0.1255	2.21558
0.126	-1.81274
0.1265	7.75452
0.127	7.65381
0.1275	4.93469
0.128	3.42407
0.1285	5.63965
0.129	5.23682
0.1295	3.62549
0.13	5.74036
0.1305	5.43823
0.131	5.63965
0.1315	2.92053
0.132	-0.80566
0.1325	3.7262
0.133	6.64673
0.1335	7.45239
0.134	8.7616
0.1345	8.05664
0.135	3.92761
0.1355	5.84106
0.136	1.00708
0.1365	9.06372
0.137	6.3446
0.1375	4.83398
0.138	12.48779
0.1385	3.7262
0.139	7.75452
0.1395	5.23682
0.14	9.36584
0.1405	12.89062
0.141	9.36584
0.1415	8.05664
0.142	6.84814
0.1425	7.04956
0.143	3.8269
0.1435	4.33044
0.144	2.01416
0.1445	7.65381
0.145	12.99133
0.1455	5.43823
0.146	4.22974
0.1465	8.56018
0.147	5.23682
0.1475	4.53186
0.148	5.0354
0.1485	4.93469
0.149	0.20142
0.1495	1.10779
0.15	3.42407
0.1505	2.5177
0.151	1.10779
0.1515	1.10779
0.152	3.52478
0.1525	6.64673
0.153	3.8269
0.1535	4.22974
0.154	8.15735
0.1545	11.68213
0.155	8.96301
0.1555	4.63257
0.156	8.15735
0.1565	6.44531
0.157	5.84106
0.1575	6.54602
0.158	8.7616
0.1585	5.23682
0.159	7.25098
0.1595	8.05664
0.16	3.62549
0.1605	6.44531
0.161	4.33044
0.1615	2.92053
0.162	7.15027
0.1625	8.56018
0.163	8.35876
0.1635	7.5531
0.164	13.49487
0.1645	5.94177
0.165	4.02832
0.1655	6.3446
0.166	7.04956
0.1665	6.94885
0.167	9.97009
0.1675	9.97009
0.168	8.56018
0.1685	10.27222
0.169	12.68921
0.1695	11.88354
0.17	6.94885
0.1705	2.71912
0.171	6.64673
0.1715	7.15027
0.172	7.95593
0.1725	5.53894
0.173	7.5531
0.1735	4.53186
0.174	3.92761
0.1745	8.25806
0.175	5.43823
0.1755	2.11487
0.176	11.68213
0.1765	8.7616
0.177	4.43115
0.1775	6.64673
0.178	8.25806
0.1785	4.12903
0.179	3.8269
0.1795	2.81982
0.18	9.46655
0.1805	3.22266
0.181	5.94177
0.1815	2.5177
0.182	6.14319
0.1825	6.04248
0.183	8.66089
0.1835	9.06372
0.184	4.53186
0.1845	6.54602
0.185	7.35168
0.1855	2.81982
0.186	7.15027
0.1865	6.64673
0.187	9.26514
0.1875	1.40991
0.188	2.31628
0.1885	1.10779
0.189	1.10779
0.1895	1.71204
0.19	3.52478
0.1905	5.33752
0.191	3.7262
0.1915	6.04248
0.192	4.43115
0.1925	1.51062
0.193	8.45947
0.1935	9.46655
0.194	5.53894
0.1945	10.87646
0.195	2.92053
0.1955	6.2439
0.196	5.43823
0.1965	5.13611
0.197	5.84106
0.1975	8.8623
0.198	7.35168
0.1985	9.26514
0.199	7.15027
0.1995	6.3446
0.2	3.92761
0.2005	1.91345
0.201	4.63257
0.2015	7.85522
0.202	6.84814
0.2025	10.27222
0.203	7.15027
0.2035	12.68921
0.204	3.8269
0.2045	8.05664
0.205	7.85522
0.2055	5.94177
0.206	2.81982
0.2065	2.11487
0.207	6.2439
0.2075	8.66089
0.208	1.81274
0.2085	3.22266
0.209	4.83398
0.2095	4.22974
0.21	8.45947
0.2105	2.92053
0.211	7.04956
0.2115	4.73328
0.212	10.37292
0.2125	2.41699
0.213	5.84106
0.2135	9.26514
0.214	6.54602
0.2145	5.13611
0.215	-3.8269
0.2155	5.13611
0.216	1.10779
0.2165	2.41699
0.217	0.10071
0.2175	4.12903
0.218	3.42407
0.2185	5.53894
0.219	5.43823
0.2195	4.02832
0.22	1.51062
0.2205	5.13611
0.221	4.43115
0.2215	5.13611
0.222	4.53186
0.2225	0.20142
0.223	2.81982
0.2235	5.33752
0.224	7.04956
0.2245	10.27222
0.225	3.62549
0.2255	5.43823
0.226	3.42407
0.2265	3.62549
0.227	4.22974
0.2275	3.02124
0.228	6.14319
0.2285	5.74036
0.229	-1.51062
0.2295	6.64673
0.23	8.45947
0.2305	9.26514
0.231	5.43823
0.2315	7.85522
0.232	6.74744
0.2325	5.74036
0.233	4.02832
0.2335	2.81982
0.234	2.61841
0.2345	5.63965
0.235	11.78284
0.2355	6.94885
0.236	2.11487
0.2365	4.73328
0.237	5.33752
0.2375	3.22266
0.238	2.01416
0.2385	5.63965
0.239	6.74744
0.2395	11.17859
0.24	2.11487
0.2405	4.02832
0.241	3.02124
0.2415	4.12903
0.242	-2.5177
0.2425	6.04248
0.243	2.5177
0.2435	1.71204
0.244	6.3446
0.2445	8.56018
0.245	3.7262
0.2455	1.00708
0.246	3.92761
0.2465	4.02832
0.247	4.33044
0.2475	8.05664
0.248	7.85522
0.2485	9.76868
0.249	7.25098
0.2495	6.64673
0.25	4.73328
0.2505	8.8623
0.251	7.35168
0.2515	6.64673
0.252	0
0.2525	4.83398
0.253	7.15027
0.2535	4.63257
0.254	4.83398
0.2545	7.75452
0.255	9.36584
0.2555	4.73328
0.256	9.56726
0.2565	7.04956
0.257	5.0354
0.2575	1.00708
0.258	0.90637
0.2585	6.44531
0.259	4.12903
0.2595	-0.20142
0.26	7.65381
0.2605	10.67505
0.261	9.86938
0.2615	4.12903
0.262	4.73328
0.2625	6.04248
0.263	4.02832
0.2635	5.84106
0.264	7.25098
0.2645	8.25806
0.265	9.46655
0.2655	10.97717
0.266	9.46655
0.2665	6.04248
0.267	7.45239
0.2675	14.40125
0.268	5.74036
0.2685	4.53186
0.269	6.74744
0.2695	2.61841
0.27	3.7262
0.2705	7.25098
0.271	8.25806
0.2715	10.37292
0.272	8.45947
0.2725	12.99133
0.273	7.04956
0.2735	6.94885
0.274	5.33752
0.2745	-0.20142
0.275	8.25806
0.2755	5.84106
0.276	7.35168
0.2765	5.33752
0.277	2.61841
0.2775	7.65381
0.278	6.04248
0.2785	1.81274
0.279	2.61841
0.2795	0.70496
0.28	1.81274
0.2805	2.92053
0.281	4.12903
0.2815	9.86938
0.282	4.53186
0.2825	5.13611
0.283	7.65381
0.2835	7.25098
0.284	-1.51062
0.2845	5.84106
0.285	2.41699
0.2855	3.32336
0.286	5.43823
0.2865	6.04248
0.287	4.12903
0.2875	-2.41699
0.288	3.02124
0.2885	1.40991
0.289	8.56018
0.2895	3.8269
0.29	0.40283
0.2905	-1.61133
0.291	-0.30212
0.2915	3.52478
0.292	2.81982
0.2925	1.10779
0.293	-7.04956
0.2935	-2.81982
0.294	-4.22974
0.2945	1.2085
0.295	-6.54602
0.2955	-10.67505
0.296	-13.797
0.2965	-8.05664
0.297	-5.23682
0.2975	-9.16443
0.298	-2.61841
0.2985	-1.61133
0.299	-8.25806
0.2995	-4.43115
0.3	-4.93469
0.3005	-8.7616
0.301	-0.60425
0.3015	-3.12195
0.302	-0.40283
0.3025	-2.11487
0.303	0.40283
0.3035	0.20142
0.304	-4.02832
0.3045	-0.60425
0.305	4.63257
0.3055	4.93469
0.306	2.01416
0.3065	3.02124
0.307	-0.20142
0.3075	1.61133
0.308	4.93469
0.3085	6.3446
0.309	7.35168
0.3095	6.84814
0.31	3.8269
0.3105	5.63965
0.311	5.43823
0.3115	8.35876
0.312	7.5531
0.3125	7.15027
0.313	11.07788
0.3135	9.97009
0.314	4.93469
0.3145	3.7262
0.315	13.29346
0.3155	4.63257
0.316	8.45947
0.3165	3.32336
0.317	8.96301
0.3175	8.45947
0.318	6.54602
0.3185	5.13611
0.319	8.05664
0.3195	9.76868
0.32	8.15735
0.3205	9.06372
0.321	9.97009
0.3215	12.08496
0.322	5.0354
0.3225	5.53894
0.323	7.35168
0.3235	6.54602
0.324	6.64673
0.3245	8.45947
0.325	8.96301
0.3255	9.06372
0.326	12.78992
0.3265	8.25806
0.327	7.95593
0.3275	10.67505
0.328	13.29346
0.3285	7.35168
0.329	5.43823
0.3295	13.39417
0.33	8.45947
0.3305	11.48071
0.331	11.78284
0.3315	9.76868
0.332	6.2439
0.3325	6.3446
0.333	9.86938
0.3335	10.17151
0.334	7.45239
0.3345	1.00708
0.335	8.56018
0.3355	6.64673
0.336	6.74744
0.3365	10.17151
0.337	8.96301
0.3375	10.47363
0.338	9.26514
0.3385	8.45947
0.339	5.13611
0.3395	9.86938
0.34	11.2793
0.3405	6.54602
0.341	8.45947
0.3415	2.61841
0.342	5.23682
0.3425	12.68921
0.343	7.85522
0.3435	6.44531
0.344	7.85522
0.3445	5.0354
0.345	5.74036
0.3455	8.45947
0.346	6.84814
0.3465	2.92053
0.347	3.62549
0.3475	5.63965
0.348	5.94177
0.3485	10.67505
0.349	8.96301
0.3495	6.64673
0.35	5.74036
0.3505	5.13611
0.351	9.36584
0.3515	7.45239
0.352	12.28638
0.3525	8.56018
0.353	8.05664
0.3535	5.33752
0.354	4.83398
0.3545	0.80566
0.355	2.5177
0.3555	4.93469
0.356	4.93469
0.3565	7.15027
0.357	7.75452
0.3575	9.66797
0.358	6.94885
0.3585	13.19275
0.359	7.65381
0.3595	9.16443
0.36	8.45947
0.3605	10.0708
0.361	7.5531
0.3615	6.3446
0.362	5.94177
0.3625	9.66797
0.363	4.22974
0.3635	5.74036
0.364	10.87646
0.3645	9.26514
0.365	2.5177
0.3655	4.63257
0.366	0.50354
0.3665	-2.81982
0.367	2.5177
0.3675	-1.10779
0.368	6.74744
0.3685	0.60425
0.369	6.54602
0.3695	6.74744
0.37	8.66089
0.3705	5.84106
0.371	5.13611
0.3715	4.22974
0.372	4.02832
0.3725	2.01416
0.373	7.5531
0.3735	4.93469
0.374	4.43115
0.3745	6.64673
0.375	2.11487
0.3755	4.63257
0.376	1.3092
0.3765	1.00708
0.377	2.21558
0.3775	2.92053
0.378	2.71912
0.3785	3.52478
0.379	1.51062
0.3795	-2.81982
0.38	7.95593
0.3805	4.43115
0.381	-0.70496
0.3815	-0.50354
0.382	2.81982
0.3825	4.63257
0.383	2.71912
0.3835	5.53894
0.384	-0.40283
0.3845	1.40991
0.385	7.15027
0.3855	2.61841
0.386	5.23682
0.3865	2.81982
0.387	2.31628
0.3875	3.22266
0.388	6.94885
0.3885	-1.2085
0.389	2.92053
0.3895	0.20142
0.39	3.92761
0.3905	10.17151
0.391	7.25098
0.3915	5.63965
0.392	3.8269
0.3925	0.40283
0.393	3.32336
0.3935	7.5531
0.394	7.65381
0.3945	4.43115
0.395	3.8269
0.3955	5.0354
0.396	1.61133
0.3965	10.37292
0.397	9.97009
0.3975	4.43115
0.398	5.23682
0.3985	9.76868
0.399	5.84106
0.3995	5.53894
0.4	4.83398
0.4005	5.33752
0.401	6.44531
0.4015	8.8623
0.402	7.65381
0.4025	2.31628
0.403	7.5531
0.4035	-1.61133
0.404	1.00708
0.4045	6.2439
0.405	0.90637
0.4055	0.10071
0.406	10.27222
0.4065	3.7262
0.407	7.95593
0.4075	3.52478
0.408	5.33752
0.4085	1.81274
0.409	6.2439
0.4095	3.42407
0.41	-0.60425
0.4105	3.62549
0.411	3.62549
0.4115	2.71912
0.412	2.41699
0.4125	1.40991
0.413	1.00708
0.4135	2.31628
0.414	5.74036
0.4145	3.7262
0.415	5.74036
0.4155	1.40991
0.416	4.02832
0.4165	3.22266
0.417	6.54602
0.4175	6.44531
0.418	0.80566
0.4185	6.84814
0.419	0.80566
0.4195	5.13611
0.42	2.92053
0.4205	6.14319
0.421	4.02832
0.4215	8.25806
0.422	7.25098
0.4225	1.91345
0.423	2.61841
0.4235	5.33752
0.424	10.47363
0.4245	4.12903
0.425	9.06372
0.4255	10.67505
0.426	9.06372
0.4265	8.96301
0.427	4.02832
0.4275	4.12903
0.428	1.71204
0.4285	2.71912
0.429	7.04956
0.4295	7.95593
0.43	6.14319
0.4305	6.2439
0.431	4.53186
0.4315	4.83398
0.432	11.68213
0.4325	8.05664
0.433	3.7262
0.4335	7.35168
0.434	7.35168
0.4345	4.93469
0.435	0
0.4355	4.73328
0.436	3.32336
0.4365	5.74036
0.437	5.63965
0.4375	3.8269
0.438	8.8623
0.4385	9.56726
0.439	11.88354
0.4395	7.5531
0.44	9.97009
0.4405	9.36584
0.441	4.73328
0.4415	11.48071
0.442	4.43115
0.4425	7.5531
0.443	9.56726
0.4435	2.61841
0.444	6.2439
0.4445	7.65381
0.445	10.0708
0.4455	9.56726
0.446	11.58142
0.4465	11.98425
0.447	8.05664
0.4475	8.35876
0.448	5.53894
0.4485	10.47363
0.449	4.63257
0.4495	6.64673
0.45	-1.00708
0.4505	0.10071
0.451	1.40991
0.4515	3.7262
0.452	4.73328
0.4525	5.13611
0.453	7.85522
0.4535	5.63965
0.454	8.66089
0.4545	4.63257
0.455	5.74036
0.4555	9.36584
0.456	11.38
0.4565	9.16443
0.457	4.83398
0.4575	8.8623
0.458	8.35876
0.4585	10.37292
0.459	9.56726
0.4595	9.16443
0.46	8.66089
0.4605	7.65381
0.461	7.15027
0.4615	12.28638
0.462	11.17859
0.4625	6.44531
0.463	5.94177
0.4635	5.43823
0.464	8.15735
0.4645	9.46655
0.465	8.66089
0.4655	4.43115
0.466	2.71912
0.4665	2.31628
0.467	5.84106
0.4675	6.64673
0.468	4.43115
0.4685	5.74036
0.469	3.92761
0.4695	4.83398
0.47	5.13611
0.4705	4.53186
0.471	-1.00708
0.4715	2.41699
0.472	3.22266
0.4725	1.81274
0.473	3.32336
0.4735	7.35168
0.474	5.0354
0.4745	4.22974
0.475	5.53894
0.4755	2.31628
0.476	-1.3092
0.4765	3.12195
0.477	3.92761
0.4775	4.22974
0.478	7.45239
0.4785	5.74036
0.479	2.31628
0.4795	5.0354
0.48	0.80566
0.4805	1.91345
0.481	0.50354
0.4815	1.81274
0.482	11.2793
0.4825	8.8623
0.483	7.25098
0.4835	8.66089
0.484	9.06372
0.4845	0
0.485	0.90637
0.4855	8.35876
0.486	1.91345
0.4865	0.70496
0.487	7.75452
0.4875	2.5177
0.488	7.85522
0.4885	1.51062
0.489	-0.90637
0.4895	6.2439
0.49	5.13611
0.4905	6.14319
0.491	2.41699
0.4915	6.64673
0.492	13.797
0.4925	11.2793
0.493	10.0708
0.4935	8.05664
0.494	6.84814
0.4945	1.3092
0.495	4.73328
0.4955	1.91345
0.496	1.00708
0.4965	7.15027
0.497	4.22974
0.4975	4.02832
0.498	7.04956
0.4985	6.2439
0.499	7.65381
0.4995	2.01416
0.5	6.3446
0.5005	5.23682
0.501	-1.61133
0.5015	0.70496
0.502	4.43115
0.5025	3.8269
0.503	6.64673
0.5035	4.73328
0.504	3.12195
0.5045	1.81274
0.505	2.01416
0.5055	-2.81982
0.506	-3.12195
0.5065	-0.60425
0.507	4.22974
0.5075	1.91345
0.508	2.41699
0.5085	2.81982
0.509	7.25098
0.5095	9.16443
0.51	7.5531
0.5105	3.92761
0.511	2.92053
0.5115	4.02832
0.512	7.35168
0.5125	5.33752
0.513	3.32336
0.5135	4.73328
0.514	4.02832
0.5145	12.38708
0.515	5.23682
0.5155	3.7262
0.516	7.5531
0.5165	0.80566
0.517	4.22974
0.5175	3.92761
0.518	1.00708
0.5185	7.65381
0.519	3.52478
0.5195	7.35168
0.52	7.75452
0.5205	8.35876
0.521	7.04956
0.5215	1.91345
0.522	0.70496
0.5225	4.12903
0.523	5.84106
0.5235	3.22266
0.524	0.30212
0.5245	3.12195
0.525	6.74744
0.5255	2.5177
0.526	13.69629
0.5265	8.25806
0.527	3.12195
0.5275	5.13611
0.528	3.52478
0.5285	3.12195
0.529	6.44531
0.5295	11.07788
0.53	4.53186
0.5305	6.54602
0.531	3.12195
0.5315	5.74036
0.532	6.64673
0.5325	5.84106
0.533	5.53894
0.5335	9.26514
0.534	9.86938
0.5345	7.65381
0.535	5.84106
0.5355	2.81982
0.536	5.43823
0.5365	3.92761
0.537	6.14319
0.5375	2.31628
0.538	4.33044
0.5385	5.23682
0.539	4.63257
0.5395	7.5531
0.54	8.25806
0.5405	8.25806
0.541	6.14319
0.5415	0.90637
0.542	7.75452
0.5425	6.64673
0.543	8.25806
0.5435	6.64673
0.544	7.35168
0.5445	10.27222
0.545	5.23682
0.5455	-2.92053
0.546	4.43115
0.5465	9.06372
0.547	12.78992
0.5475	3.12195
0.548	1.3092
0.5485	8.56018
0.549	5.94177
0.5495	1.71204
0.55	3.42407
0.5505	6.2439
0.551	4.22974
0.5515	7.5531
0.552	2.41699
0.5525	4.22974
0.553	5.23682
0.5535	3.02124
0.554	2.71912
0.5545	6.64673
0.555	10.17151
0.5555	3.8269
0.556	5.23682
0.5565	4.93469
0.557	2.01416
0.5575	4.83398
0.558	7.5531
0.5585	1.61133
0.559	7.85522
0.5595	6.64673
0.56	11.78284
0.5605	6.2439
0.561	4.12903
0.5615	4.33044
0.562	12.08496
0.5625	4.63257
0.563	3.92761
0.5635	7.85522
0.564	8.25806
0.5645	4.83398
0.565	2.31628
0.5655	10.0708
0.566	8.56018
0.5665	13.797
0.567	16.11328
0.5675	9.66797
0.568	5.84106
0.5685	3.12195
0.569	8.25806
0.5695	7.35168
0.57	3.92761
0.5705	-0.20142
0.571	-1.40991
0.5715	-0.20142
0.572	7.85522
0.5725	4.33044
0.573	5.43823
0.5735	4.83398
0.574	0.90637
0.5745	-1.71204
0.575	1.71204
0.5755	1.71204
0.576	6.84814
0.5765	6.54602
0.577	1.2085
0.5775	4.12903
0.578	3.42407
0.5785	3.8269
0.579	2.5177
0.5795	-0.70496
0.58	-3.8269
0.5805	6.2439
0.581	8.56018
0.5815	6.54602
0.582	6.54602
0.5825	6.94885
0.583	0.60425
0.5835	9.26514
0.584	9.56726
0.5845	6.3446
0.585	6.54602
0.5855	0.20142
0.586	4.12903
0.5865	7.45239
0.587	1.81274
0.5875	0.80566
0.588	3.7262
0.5885	4.53186
0.589	3.92761
0.5895	4.73328
0.59	6.54602
0.5905	11.17859
0.591	14.40125
0.5915	6.3446
0.592	7.15027
0.5925	7.04956
0.593	8.15735
0.5935	13.19275
0.594	6.64673
0.5945	7.35168
0.595	8.15735
0.5955	8.45947
0.596	3.8269
0.5965	6.14319
0.597	6.04248
0.5975	8.45947
0.598	10.87646
0.5985	8.45947
0.599	15.91187
0.5995	10.37292
0.6	5.53894
0.6005	7.45239
0.601	8.8623
0.6015	5.53894
0.602	2.11487
0.6025	1.61133
0.603	4.02832
0.6035	6.04248
0.604	9.06372
0.6045	6.44531
0.605	8.7616
0.6055	2.41699
0.606	3.42407
0.6065	6.2439
0.607	0.40283
0.6075	0.10071
0.608	-0.90637
0.6085	1.3092
0.609	-0.20142
0.6095	5.94177
0.61	8.25806
0.6105	7.75452
0.611	2.31628
0.6115	-1.40991
0.612	5.53894
0.6125	1.61133
0.613	4.33044
0.6135	8.25806
0.614	7.04956
0.6145	5.63965
0.615	4.43115
0.6155	1.40991
0.616	-3.7262
0.6165	5.23682
0.617	7.5531
0.6175	8.05664
0.618	5.84106
0.6185	6.44531
0.619	5.53894
0.6195	4.93469
0.62	6.94885
0.6205	7.95593
0.621	10.17151
0.6215	6.04248
0.622	9.36584
0.6225	6.44531
0.623	3.92761
0.6235	6.14319
0.624	6.14319
0.6245	4.02832
0.625	6.44531
0.6255	2.81982
0.626	2.81982
0.6265	2.5177
0.627	7.04956
0.6275	7.85522
0.628	4.63257
0.6285	1.00708
0.629	3.62549
0.6295	5.84106
0.63	5.0354
0.6305	5.74036
0.631	5.23682
0.6315	8.45947
0.632	6.74744
0.6325	1.91345
0.633	5.74036
0.6335	0.90637
0.634	2.81982
0.6345	2.41699
0.635	1.00708
0.6355	3.02124
0.636	4.53186
0.6365	1.51062
0.637	3.7262
0.6375	5.74036
0.638	1.71204
0.6385	7.65381
0.639	-0.50354
0.6395	5.33752
0.64	3.8269
0.6405	3.8269
0.641	5.13611
0.6415	10.0708
0.642	8.05664
0.6425	6.04248
0.643	6.84814
0.6435	10.67505
0.644	1.91345
0.6445	1.61133
0.645	11.38
0.6455	10.97717
0.646	9.36584
0.6465	9.76868
0.647	7.15027
0.6475	7.65381
0.648	5.33752
0.6485	4.33044
0.649	5.53894
0.6495	7.65381
0.65	1.00708
0.6505	8.25806
0.651	9.06372
0.6515	7.35168
0.652	1.81274
0.6525	7.45239
0.653	6.64673
0.6535	6.54602
0.654	4.73328
0.6545	3.02124
0.655	6.64673
0.6555	7.15027
0.656	2.81982
0.6565	3.12195
0.657	6.94885
0.6575	5.43823
0.658	-1.61133
0.6585	6.14319
0.659	11.07788
0.6595	4.22974
0.66	6.3446
0.6605	9.56726
0.661	3.7262
0.6615	4.43115
0.662	6.64673
0.6625	9.97009
0.663	7.25098
0.6635	1.81274
0.664	5.0354
0.6645	3.8269
0.665	0.90637
0.6655	3.32336
0.666	1.81274
0.6665	4.12903
0.667	-0.90637
0.6675	4.43115
0.668	2.31628
0.6685	0.40283
0.669	3.52478
0.6695	2.5177
0.67	-0.20142
0.6705	-6.44531
0.671	3.02124
0.6715	2.61841
0.672	0.60425
0.6725	4.43115
0.673	3.02124
0.6735	4.73328
0.674	7.25098
0.6745	4.63257
0.675	4.93469
0.6755	7.35168
0.676	4.63257
0.6765	3.12195
0.677	8.66089
0.6775	2.11487
0.678	5.33752
0.6785	6.3446
0.679	4.93469
0.6795	7.15027
0.68	5.33752
0.6805	2.5177
0.681	7.5531
0.6815	9.97009
0.682	-0.10071
0.6825	2.71912
0.683	5.13611
0.6835	8.8623
0.684	3.7262
0.6845	4.02832
0.685	3.7262
0.6855	4.83398
0.686	0.50354
0.6865	5.33752
0.687	2.31628
0.6875	0.60425
0.688	4.53186
0.6885	6.54602
0.689	1.91345
0.6895	10.77576
0.69	6.44531
0.6905	3.7262
0.691	8.05664
0.6915	10.17151
0.692	8.15735
0.6925	4.83398
0.693	5.43823
0.6935	6.84814
0.694	4.83398
0.6945	11.48071
0.695	8.15735
0.6955	5.0354
0.696	9.16443
0.6965	8.05664
0.697	9.16443
0.6975	7.04956
0.698	7.85522
0.6985	8.35876
0.699	7.04956
0.6995	10.57434
0.7	6.94885
0.7005	7.35168
0.701	7.45239
0.7015	6.64673
0.702	10.97717
0.7025	5.84106
0.703	2.81982
0.7035	9.97009
0.704	7.75452
0.7045	4.83398
0.705	-0.20142
0.7055	10.77576
0.706	7.25098
0.7065	4.12903
0.707	11.38
0.7075	10.17151
0.708	9.16443
0.7085	14.09912
0.709	6.94885
0.7095	4.12903
0.71	12.28638
0.7105	3.42407
0.711	8.66089
0.7115	8.7616
0.712	5.0354
0.7125	4.93469
0.713	0.50354
0.7135	8.35876
0.714	8.66089
0.7145	4.63257
0.715	0.20142
0.7155	8.45947
0.716	7.15027
0.7165	3.32336
0.717	4.73328
0.7175	4.63257
0.718	2.41699
0.7185	2.41699
0.719	4.43115
0.7195	6.04248
0.72	5.43823
0.7205	5.43823
0.721	7.75452
0.7215	8.05664
0.722	11.07788
0.7225	13.19275
0.723	5.74036
0.7235	10.27222
0.724	13.19275
0.7245	10.67505
0.725	9.26514
0.7255	8.25806
0.726	10.27222
0.7265	9.16443
0.727	7.95593
0.7275	7.95593
0.728	7.15027
0.7285	3.8269
0.729	3.12195
0.7295	2.61841
0.73	2.61841
0.7305	2.5177
0.731	9.16443
0.7315	6.14319
0.732	6.04248
0.7325	5.33752
0.733	8.8623
0.7335	7.35168
0.734	5.43823
0.7345	4.43115
0.735	6.54602
0.7355	5.23682
0.736	3.12195
0.7365	4.02832
0.737	6.94885
0.7375	7.35168
0.738	11.58142
0.7385	8.56018
0.739	3.42407
0.7395	8.66089
0.74	11.98425
0.7405	11.88354
0.741	13.59558
0.7415	6.74744
0.742	8.8623
0.7425	5.63965
0.743	3.62549
0.7435	9.06372
0.744	6.2439
0.7445	4.22974
0.745	10.27222
0.7455	6.3446
0.746	7.25098
0.7465	0.90637
0.747	7.45239
0.7475	4.63257
0.748	12.68921
0.7485	6.54602
0.749	7.45239
0.7495	6.64673
0.75	13.49487
0.7505	7.95593
0.751	5.84106
0.7515	6.3446
0.752	4.73328
0.7525	2.5177
0.753	11.38
0.7535	10.0708
0.754	8.8623
0.7545	9.76868
0.755	10.47363
0.7555	4.22974
0.756	8.25806
0.7565	10.17151
0.757	8.8623
0.7575	9.66797
0.758	7.04956
0.7585	7.5531
0.759	1.2085
0.7595	7.25098
0.76	3.22266
0.7605	3.12195
0.761	5.23682
0.7615	6.04248
0.762	3.7262
0.7625	5.33752
0.763	0.10071
0.7635	7.35168
0.764	3.42407
0.7645	7.04956
0.765	5.0354
0.7655	3.42407
0.766	1.10779
0.7665	0.80566
0.767	3.02124
0.7675	3.42407
0.768	3.42407
0.7685	5.33752
0.769	3.12195
0.7695	6.14319
0.77	6.54602
0.7705	10.87646
0.771	6.64673
0.7715	5.23682
0.772	2.41699
0.7725	0.20142
0.773	1.2085
0.7735	3.7262
0.774	2.01416
0.7745	3.32336
0.775	7.45239
0.7755	6.94885
0.776	3.02124
0.7765	3.52478
0.777	3.22266
0.7775	2.61841
0.778	3.7262
0.7785	6.84814
0.779	4.63257
0.7795	1.3092
0.78	6.84814
0.7805	6.04248
0.781	0.80566
0.7815	8.25806
0.782	7.65381
0.7825	0.60425
0.783	3.7262
0.7835	3.02124
0.784	1.40991
0.7845	5.63965
0.785	3.32336
0.7855	3.52478
0.786	3.62549
0.7865	7.75452
0.787	6.04248
0.7875	9.26514
0.788	-0.80566
0.7885	2.01416
0.789	2.81982
0.7895	3.62549
0.79	5.0354
0.7905	3.32336
0.791	5.43823
0.7915	9.56726
0.792	4.43115
0.7925	6.04248
0.793	8.05664
0.7935	4.53186
0.794	5.23682
0.7945	-1.2085
0.795	-0.60425
0.7955	-2.01416
0.796	4.02832
0.7965	3.02124
0.797	2.92053
0.7975	-1.2085
0.798	0.90637
0.7985	-0.40283
0.799	1.51062
0.7995	4.02832
0.8	4.33044
0.8005	6.44531
0.801	8.45947
0.8015	8.7616
0.802	8.96301
0.8025	1.81274
0.803	4.93469
0.8035	1.51062
0.804	3.22266
0.8045	6.84814
0.805	8.45947
0.8055	9.26514
0.806	3.92761
0.8065	3.12195
0.807	1.91345
0.8075	9.76868
0.808	0.70496
0.8085	6.2439
0.809	3.52478
0.8095	5.33752
0.81	7.15027
0.8105	5.84106
0.811	4.22974
0.8115	7.75452
0.812	4.93469
0.8125	7.04956
0.813	4.02832
0.8135	8.45947
0.814	12.18567
0.8145	7.25098
0.815	6.64673
0.8155	3.22266
0.816	1.61133
0.8165	3.62549
0.817	10.87646
0.8175	4.53186
0.818	8.8623
0.8185	7.15027
0.819	3.12195
0.8195	4.22974
0.82	5.94177
0.8205	1.2085
0.821	-0.20142
0.8215	8.8623
0.822	3.32336
0.8225	6.54602
0.823	10.67505
0.8235	11.07788
0.824	8.66089
0.8245	6.2439
0.825	6.14319
0.8255	4.12903
0.826	4.02832
0.8265	7.35168
0.827	4.73328
0.8275	7.65381
0.828	4.63257
0.8285	3.92761
0.829	3.62549
0.8295	2.11487
0.83	-0.40283
0.8305	4.73328
0.831	3.42407
0.8315	2.71912
0.832	4.02832
0.8325	-0.30212
0.833	1.71204
0.8335	2.81982
0.834	5.74036
0.8345	5.0354
0.835	-0.20142
0.8355	5.84106
0.836	3.22266
0.8365	0.90637
0.837	1.2085
0.8375	5.74036
0.838	4.63257
0.8385	8.66089
0.839	4.53186
0.8395	3.22266
0.84	9.26514
0.8405	6.14319
0.841	3.12195
0.8415	5.23682
0.842	0
0.8425	1.91345
0.843	2.31628
0.8435	4.83398
0.844	5.0354
0.8445	4.02832
0.845	-2.11487
0.8455	1.91345
0.846	5.33752
0.8465	3.42407
0.847	5.74036
0.8475	2.5177
0.848	5.13611
0.8485	4.12903
0.849	6.2439
0.8495	6.74744
0.85	8.15735
0.8505	4.02832
0.851	1.51062
0.8515	4.93469
0.852	6.84814
0.8525	5.94177
0.853	6.54602
0.8535	1.71204
0.854	8.7616
0.8545	5.94177
0.855	12.48779
0.8555	3.92761
0.856	4.63257
0.8565	5.94177
0.857	8.25806
0.8575	5.13611
0.858	4.43115
0.8585	3.92761
0.859	0.70496
0.8595	7.75452
0.86	5.53894
0.8605	3.92761
0.861	1.71204
0.8615	-0.70496
0.862	6.54602
0.8625	2.21558
0.863	1.40991
0.8635	0.90637
0.864	6.44531
0.8645	8.96301
0.865	9.56726
0.8655	5.0354
0.866	3.32336
0.8665	9.56726
0.867	6.64673
0.8675	4.22974
0.868	0.10071
0.8685	1.61133
0.869	7.15027
0.8695	4.93469
0.87	10.97717
0.8705	9.06372
0.871	6.54602
0.8715	-1.81274
0.872	4.12903
0.8725	7.45239
0.873	4.93469
0.8735	8.8623
0.874	6.64673
0.8745	4.53186
0.875	7.35168
0.8755	3.52478
0.876	3.12195
0.8765	2.41699
0.877	3.8269
0.8775	4.83398
0.878	5.43823
0.8785	2.71912
0.879	7.5531
0.8795	14.50195
0.88	12.38708
0.8805	9.76868
0.881	9.66797
0.8815	7.45239
0.882	10.37292
0.8825	11.58142
0.883	11.48071
0.8835	10.17151
0.884	10.87646
0.8845	9.66797
0.885	8.35876
0.8855	9.36584
0.886	8.25806
0.8865	5.13611
0.887	7.85522
0.8875	10.17151
0.888	11.68213
0.8885	8.05664
0.889	13.69629
0.8895	10.67505
0.89	7.95593
0.8905	5.63965
0.891	5.74036
0.8915	5.94177
0.892	2.81982
0.8925	4.53186
0.893	-0.80566
0.8935	2.92053
0.894	7.5531
0.8945	5.0354
0.895	2.92053
0.8955	9.06372
0.896	7.04956
0.8965	6.14319
0.897	11.48071
0.8975	11.98425
0.898	7.25098
0.8985	0.30212
0.899	4.53186
0.8995	5.13611
0.9	8.05664
0.9005	8.45947
0.901	2.81982
0.9015	6.94885
0.902	1.3092
0.9025	0.30212
0.903	4.93469
0.9035	1.51062
0.904	1.10779
0.9045	5.0354
0.905	4.33044
0.9055	13.29346
0.906	6.84814
0.9065	3.02124
0.907	1.10779
0.9075	3.22266
0.908	4.22974
0.9085	2.41699
0.909	10.87646
0.9095	7.85522
0.91	6.74744
0.9105	5.53894
0.911	4.02832
0.9115	2.71912
0.912	8.7616
0.9125	6.04248
0.913	2.41699
0.9135	9.16443
0.914	12.48779
0.9145	6.94885
0.915	6.04248
0.9155	6.84814
0.916	2.11487
0.9165	4.73328
0.917	-4.73328
0.9175	1.2085
0.918	5.43823
0.9185	5.43823
0.919	3.42407
0.9195	3.7262
0.92	3.32336
0.9205	8.96301
0.921	7.15027
0.9215	5.74036
0.922	2.61841
0.9225	5.63965
0.923	11.07788
0.9235	5.43823
0.924	9.66797
0.9245	8.66089
0.925	7.95593
0.9255	7.65381
0.926	8.45947
0.9265	2.92053
0.927	2.5177
0.9275	4.93469
0.928	4.53186
0.9285	8.96301
0.929	6.84814
0.9295	7.95593
0.93	8.15735
0.9305	14.09912
0.931	6.94885
0.9315	9.26514
0.932	5.94177
0.9325	7.75452
0.933	10.67505
0.9335	6.2439
0.934	4.93469
0.9345	8.35876
0.935	7.15027
0.9355	7.75452
0.936	6.3446
0.9365	9.26514
0.937	4.93469
0.9375	6.44531
0.938	5.43823
0.9385	7.04956
0.939	5.13611
0.9395	2.21558
0.94	8.45947
0.9405	9.36584
0.941	7.45239
0.9415	9.97009
0.942	8.56018
0.9425	7.85522
0.943	6.04248
0.9435	8.25806
0.944	8.35876
0.9445	3.8269
0.945	7.25098
0.9455	6.04248
0.946	5.13611
0.9465	10.67505
0.947	10.37292
0.9475	6.94885
0.948	7.85522
0.9485	11.38
0.949	7.25098
0.9495	7.75452
0.95	0.40283
0.9505	5.74036
0.951	4.33044
0.9515	7.04956
0.952	9.86938
0.9525	4.43115
0.953	9.46655
0.9535	4.43115
0.954	1.00708
0.9545	4.93469
0.955	6.54602
0.9555	6.2439
0.956	5.94177
0.9565	10.97717
0.957	6.74744
0.9575	6.54602
0.958	8.05664
0.9585	13.19275
0.959	6.3446
0.9595	7.5531
0.96	10.37292
0.9605	9.86938
0.961	16.3147
0.9615	9.66797
0.962	10.87646
0.9625	12.28638
0.963	8.96301
0.9635	11.07788
0.964	8.05664
0.9645	10.37292
0.965	2.5177
0.9655	-0.10071
0.966	6.54602
0.9665	9.36584
0.967	4.93469
0.9675	5.43823
0.968	6.74744
0.9685	12.28638
0.969	8.15735
0.9695	12.5885
0.97	7.85522
0.9705	4.02832
0.971	6.14319
0.9715	5.33752
0.972	4.53186
0.9725	6.64673
0.973	14.60266
0.9735	8.56018
0.974	7.25098
0.9745	2.31628
0.975	2.61841
0.9755	2.41699
0.976	0.90637
0.9765	1.3092
0.977	-1.81274
0.9775	0.20142
0.978	3.52478
0.9785	4.43115
0.979	2.31628
0.9795	2.92053
0.98	-3.12195
0.9805	-4.22974
0.981	-8.96301
0.9815	-3.22266
0.982	-4.73328
0.9825	-1.91345
0.983	-5.0354
0.9835	-4.93469
0.984	1.51062
0.9845	-3.52478
0.985	-4.22974
0.9855	-2.21558
0.986	-4.33044
0.9865	-1.51062
0.987	-4.43115
0.9875	-4.53186
0.988	-6.64673
0.9885	-4.22974
0.989	-4.33044
0.9895	2.5177
0.99	0.20142
0.9905	3.7262
0.991	0.70496
0.9915	1.71204
0.992	5.63965
0.9925	7.5531
0.993	5.53894
0.9935	3.02124
0.994	-1.81274
0.9945	-1.3092
0.995	-2.31628
0.9955	3.42407
0.996	0.90637
0.9965	3.02124
0.997	8.56018
0.9975	4.12903
0.998	2.71912
0.9985	6.54602
0.999	3.42407
0.9995	10.17151
1	8.7616
1.0005	5.43823
1.001	8.7616
1.0015	10.87646
1.002	12.48779
1.0025	5.23682
1.003	6.04248
1.0035	8.05664
1.004	5.94177
1.0045	4.73328
1.005	7.85522
1.0055	5.84106
1.006	7.75452
1.0065	7.15027
1.007	5.74036
1.0075	7.75452
1.008	7.45239
1.0085	10.0708
1.009	14.40125
1.0095	8.35876
1.01	4.53186
1.0105	9.16443
1.011	9.06372
1.0115	8.15735
1.012	11.48071
1.0125	5.0354
1.013	5.53894
1.0135	6.64673
1.014	5.63965
1.0145	4.53186
1.015	8.05664
1.0155	0.60425
1.016	6.74744
1.0165	6.44531
1.017	8.7616
1.0175	3.52478
1.018	7.45239
1.0185	7.95593
1.019	10.87646
1.0195	11.78284
1.02	10.67505
1.0205	10.27222
1.021	12.78992
1.0215	10.47363
1.022	12.48779
1.0225	8.35876
1.023	9.76868
1.0235	10.47363
1.024	6.94885
1.0245	9.86938
1.025	6.54602
1.0255	10.97717
1.026	7.5531
1.0265	9.36584
1.027	10.97717
1.0275	10.17151
1.028	7.75452
1.0285	10.17151
1.029	5.63965
1.0295	9.26514
1.03	8.45947
1.0305	11.17859
1.031	11.78284
1.0315	8.8623
1.032	12.18567
1.0325	3.32336
1.033	9.16443
1.0335	6.54602
1.034	5.74036
1.0345	9.16443
1.035	10.17151
1.0355	1.3092
1.036	6.64673
1.0365	6.84814
1.037	11.17859
1.0375	9.16443
1.038	-0.70496
1.0385	4.73328
1.039	10.47363
1.0395	6.14319
1.04	8.56018
1.0405	8.45947
1.041	3.52478
1.0415	2.5177
1.042	4.73328
1.0425	8.96301
1.043	7.15027
1.0435	5.74036
1.044	7.04956
1.0445	5.33752
1.045	5.94177
1.0455	0.70496
1.046	1.51062
1.0465	8.15735
1.047	2.92053
1.0475	7.65381
1.048	7.85522
1.0485	6.94885
1.049	7.04956
1.0495	5.53894
1.05	6.44531
1.0505	6.2439
1.051	10.17151
1.0515	7.35168
1.052	7.85522
1.0525	6.64673
1.053	9.36584
1.0535	8.56018
1.054	3.22266
1.0545	4.83398
1.055	7.25098
1.0555	7.04956
1.056	3.92761
1.0565	7.04956
1.057	12.38708
1.0575	14.19983
1.058	11.68213
1.0585	8.05664
1.059	1.61133
1.0595	0.40283
1.06	5.94177
1.0605	1.2085
1.061	3.92761
1.0615	5.0354
1.062	3.32336
1.0625	3.62549
1.063	0.40283
1.0635	-0.20142
1.064	2.81982
1.0645	6.54602
1.065	5.84106
1.0655	-0.60425
1.066	2.71912
1.0665	4.22974
1.067	8.35876
1.0675	0.30212
1.068	2.71912
1.0685	9.46655
1.069	2.31628
1.0695	4.02832
1.07	4.43115
1.0705	7.75452
1.071	6.14319
1.0715	3.02124
1.072	4.02832
1.0725	2.71912
1.073	2.71912
1.0735	3.62549
1.074	3.32336
1.0745	1.91345
1.075	4.22974
1.0755	8.56018
1.076	6.14319
1.0765	3.62549
1.077	0.70496
1.0775	1.2085
1.078	-0.10071
1.0785	9.06372
1.079	8.56018
1.0795	-0.30212
1.08	5.53894
1.0805	-1.00708
1.081	10.37292
1.0815	10.47363
1.082	6.84814
1.0825	10.57434
1.083	5.33752
1.0835	4.63257
1.084	5.53894
1.0845	4.93469
1.085	5.23682
1.0855	4.43115
1.086	6.74744
1.0865	7.95593
1.087	3.02124
1.0875	2.11487
1.088	2.92053
1.0885	2.21558
1.089	3.8269
1.0895	0.20142
1.09	4.73328
1.0905	8.35876
1.091	4.12903
1.0915	11.17859
1.092	7.65381
1.0925	1.81274
1.093	-0.80566
1.0935	-3.12195
1.094	6.64673
1.0945	5.23682
1.095	7.95593
1.0955	4.63257
1.096	3.02124
1.0965	5.33752
1.097	1.3092
1.0975	3.42407
1.098	1.51062
1.0985	-2.71912
1.099	3.52478
1.0995	3.42407
1.1	5.94177
1.1005	0
1.101	5.0354
1.1015	9.16443
1.102	5.84106
1.1025	0.80566
1.103	8.25806
1.1035	10.0708
1.104	5.13611
1.1045	8.05664
1.105	5.94177
1.1055	9.46655
1.106	6.04248
1.1065	12.28638
1.107	6.94885
1.1075	7.65381
1.108	6.84814
1.1085	5.13611
1.109	11.48071
1.1095	7.25098
1.11	7.65381
1.1105	4.12903
1.111	5.43823
1.1115	4.43115
1.112	2.31628
1.1125	2.11487
1.113	4.43115
1.1135	9.36584
1.114	6.2439
1.1145	5.33752
1.115	10.77576
1.1155	11.58142
1.116	5.63965
1.1165	10.67505
1.117	14.30054
1.1175	5.74036
1.118	3.32336
1.1185	5.33752
1.119	2.41699
1.1195	0.60425
1.12	8.15735
1.1205	7.65381
1.121	3.32336
1.1215	6.84814
1.122	2.41699
1.1225	7.65381
1.123	2.41699
1.1235	10.17151
1.124	12.18567
1.1245	8.15735
1.125	8.45947
1.1255	1.10779
1.126	4.33044
1.1265	4.22974
1.127	7.85522
1.1275	8.45947
1.128	8.56018
1.1285	10.27222
1.129	7.45239
1.1295	0.60425
1.13	3.7262
1.1305	4.43115
1.131	4.83398
1.1315	6.54602
1.132	2.81982
1.1325	-1.3092
1.133	-2.31628
1.1335	3.7262
1.134	6.2439
1.1345	0.90637
1.135	-1.91345
1.1355	2.81982
1.136	2.11487
1.1365	3.32336
1.137	7.75452
1.1375	3.02124
1.138	3.42407
1.1385	3.92761
1.139	1.81274
1.1395	4.63257
1.14	1.71204
1.1405	1.81274
1.141	9.97009
1.1415	3.22266
1.142	4.83398
1.1425	8.35876
1.143	7.35168
1.1435	7.85522
1.144	9.26514
1.1445	-0.70496
1.145	0.20142
1.1455	10.27222
1.146	5.63965
1.1465	1.51062
1.147	8.96301
1.1475	1.10779
1.148	4.43115
1.1485	6.44531
1.149	-0.60425
1.1495	7.65381
1.15	6.74744
1.1505	4.83398
1.151	3.12195
1.1515	1.71204
1.152	9.26514
1.1525	7.04956
1.153	6.74744
1.1535	9.06372
1.154	2.31628
1.1545	1.2085
1.155	4.33044
1.1555	4.83398
1.156	4.73328
1.1565	-0.80566
1.157	1.51062
1.1575	11.48071
1.158	1.40991
1.1585	1.3092
1.159	4.93469
1.1595	6.3446
1.16	2.11487
1.1605	-3.92761
1.161	-0.80566
1.1615	4.12903
1.162	6.94885
1.1625	2.41699
1.163	3.92761
1.1635	5.63965
1.164	3.92761
1.1645	2.61841
1.165	4.53186
1.1655	7.35168
1.166	4.53186
1.1665	8.56018
1.167	4.93469
1.1675	6.2439
1.168	4.53186
1.1685	3.52478
1.169	6.94885
1.1695	4.63257
1.17	3.02124
1.1705	4.02832
1.171	5.0354
1.1715	1.3092
1.172	-1.10779
1.1725	0.40283
1.173	1.40991
1.1735	7.65381
1.174	4.43115
1.1745	4.83398
1.175	2.81982
1.1755	0.20142
1.176	-2.81982
1.1765	-1.40991
1.177	6.64673
1.1775	1.71204
1.178	0.80566
1.1785	4.73328
1.179	-0.60425
1.1795	-0.50354
1.18	1.00708
1.1805	-0.40283
1.181	1.71204
1.1815	2.41699
1.182	8.7616
1.1825	4.63257
1.183	2.61841
1.1835	1.2085
1.184	3.8269
1.1845	4.63257
1.185	5.13611
1.1855	10.87646
1.186	5.43823
1.1865	6.74744
1.187	8.15735
1.1875	9.56726
1.188	6.64673
1.1885	1.61133
1.189	4.43115
1.1895	8.56018
1.19	3.62549
1.1905	7.04956
1.191	8.45947
1.1915	9.56726
1.192	0.10071
1.1925	4.53186
1.193	3.62549
1.1935	7.04956
1.194	5.33752
1.1945	4.02832
1.195	3.02124
1.1955	5.33752
1.196	5.33752
1.1965	1.71204
1.197	5.43823
1.1975	10.37292
1.198	12.08496
1.1985	5.94177
1.199	8.96301
1.1995	2.01416
1.2	6.74744
1.2005	2.5177
1.201	6.84814
1.2015	3.02124
1.202	-2.21558
1.2025	3.22266
1.203	1.00708
1.2035	0.60425
1.204	6.44531
1.2045	4.22974
1.205	5.33752
1.2055	1.81274
1.206	5.0354
1.2065	6.2439
1.207	3.52478
1.2075	4.12903
1.208	9.06372
1.2085	8.15735
1.209	6.3446
1.2095	6.64673
1.21	8.96301
1.2105	8.96301
1.211	6.54602
1.2115	8.45947
1.212	8.56018
1.2125	5.13611
1.213	3.7262
1.2135	5.23682
1.214	0.50354
1.2145	5.63965
1.215	3.12195
1.2155	6.3446
1.216	5.33752
1.2165	7.35168
1.217	7.25098
1.2175	7.15027
1.218	6.14319
1.2185	10.97717
1.219	6.64673
1.2195	13.39417
1.22	4.43115
1.2205	10.87646
1.221	6.44531
1.2215	8.15735
1.222	3.62549
1.2225	-0.40283
1.223	7.15027
1.2235	3.62549
1.224	5.74036
1.2245	2.21558
1.225	5.53894
1.2255	7.45239
1.226	7.35168
1.2265	9.36584
1.227	5.63965
1.2275	5.84106
1.228	8.15735
1.2285	3.62549
1.229	4.93469
1.2295	5.53894
1.23	-2.41699
1.2305	2.01416
1.231	7.04956
1.2315	4.73328
1.232	2.41699
1.2325	0.40283
1.233	6.64673
1.2335	11.48071
1.234	8.8623
1.2345	5.53894
1.235	8.45947
1.2355	5.63965
1.236	5.23682
1.2365	1.71204
1.237	-0.20142
1.2375	8.15735
1.238	2.31628
1.2385	4.02832
1.239	9.56726
1.2395	9.66797
1.24	7.35168
1.2405	9.06372
1.241	5.33752
1.2415	5.84106
1.242	7.75452
1.2425	5.63965
1.243	4.12903
1.2435	8.05664
1.244	3.22266
1.2445	5.94177
1.245	2.41699
1.2455	8.25806
1.246	6.54602
1.2465	6.94885
1.247	8.8623
1.2475	7.15027
1.248	8.05664
1.2485	7.95593
1.249	4.43115
1.2495	1.00708
1.25	0.30212
1.2505	9.36584
1.251	4.02832
1.2515	3.62549
1.252	3.62549
1.2525	8.45947
1.253	5.74036
1.2535	5.33752
1.254	0.80566
1.2545	3.7262
1.255	7.5531
1.2555	1.61133
1.256	0.60425
1.2565	2.31628
1.257	7.25098
1.2575	4.22974
1.258	3.42407
1.2585	6.84814
1.259	6.14319
1.2595	5.63965
1.26	4.63257
1.2605	3.7262
1.261	4.73328
1.2615	9.76868
1.262	7.04956
1.2625	6.94885
1.263	6.14319
1.2635	4.12903
1.264	-0.40283
1.2645	3.42407
1.265	8.56018
1.2655	10.77576
1.266	5.94177
1.2665	4.63257
1.267	0.80566
1.2675	2.71912
1.268	8.56018
1.2685	7.15027
1.269	4.63257
1.2695	6.64673
1.27	7.45239
1.2705	5.84106
1.271	8.8623
1.2715	5.23682
1.272	10.87646
1.2725	6.3446
1.273	3.42407
1.2735	7.35168
1.274	8.05664
1.2745	7.75452
1.275	8.56018
1.2755	6.94885
1.276	9.97009
1.2765	6.14319
1.277	7.45239
1.2775	3.02124
1.278	4.02832
1.2785	6.64673
1.279	8.7616
1.2795	6.64673
1.28	5.84106
1.2805	7.65381
1.281	4.43115
1.2815	-1.10779
1.282	7.15027
1.2825	5.33752
1.283	2.61841
1.2835	3.92761
1.284	3.12195
1.2845	6.04248
1.285	6.74744
1.2855	7.5531
1.286	2.71912
1.2865	5.63965
1.287	1.3092
1.2875	3.22266
1.288	-0.50354
1.2885	-0.80566
1.289	0.20142
1.2895	1.81274
1.29	7.45239
1.2905	3.12195
1.291	5.53894
1.2915	1.51062
1.292	5.43823
1.2925	4.93469
1.293	3.22266
1.2935	6.2439
1.294	5.74036
1.2945	1.40991
1.295	-3.8269
1.2955	3.12195
1.296	-1.10779
1.2965	5.0354
1.297	1.40991
1.2975	3.62549
1.298	3.8269
1.2985	8.05664
1.299	5.74036
1.2995	7.45239
1.3	5.0354
1.3005	4.43115
1.301	3.42407
1.3015	0
1.302	5.23682
1.3025	7.85522
1.303	3.7262
1.3035	2.11487
1.304	3.22266
1.3045	3.62549
1.305	5.84106
1.3055	-1.40991
1.306	3.32336
1.3065	4.22974
1.307	2.61841
1.3075	5.23682
1.308	1.81274
1.3085	1.61133
1.309	3.7262
1.3095	5.53894
1.31	7.95593
1.3105	1.51062
1.311	5.74036
1.3115	4.43115
1.312	8.8623
1.3125	5.13611
1.313	0.20142
1.3135	4.12903
1.314	7.5531
1.3145	11.78284
1.315	13.19275
1.3155	4.93469
1.316	9.36584
1.3165	7.04956
1.317	10.17151
1.3175	10.0708
1.318	6.44531
1.3185	3.12195
1.319	11.38
1.3195	10.17151
1.32	6.2439
1.3205	8.05664
1.321	8.25806
1.3215	6.64673
1.322	4.63257
1.3225	11.17859
1.323	13.89771
1.3235	9.86938
1.324	7.04956
1.3245	3.12195
1.325	7.45239
1.3255	0.70496
1.326	-1.00708
1.3265	4.02832
1.327	8.56018
1.3275	0.10071
1.328	6.84814
1.3285	4.73328
1.329	6.44531
1.3295	2.61841
1.33	7.04956
1.3305	6.74744
1.331	4.12903
1.3315	7.65381
1.332	4.12903
1.3325	4.22974
1.333	5.53894
1.3335	-3.22266
1.334	2.92053
1.3345	7.04956
1.335	7.75452
1.3355	7.95593
1.336	7.5531
1.3365	2.71912
1.337	3.32336
1.3375	7.45239
1.338	8.15735
1.3385	5.0354
1.339	1.51062
1.3395	7.95593
1.34	5.63965
1.3405	10.27222
1.341	8.05664
1.3415	8.66089
1.342	4.02832
1.3425	10.87646
1.343	4.63257
1.3435	1.51062
1.344	2.21558
1.3445	9.76868
1.345	8.15735
1.3455	4.33044
1.346	10.27222
1.3465	4.22974
1.347	4.83398
1.3475	7.35168
1.348	4.63257
1.3485	9.86938
1.349	2.92053
1.3495	10.77576
1.35	7.04956
1.3505	12.18567
1.351	7.85522
1.3515	5.84106
1.352	3.22266
1.3525	6.3446
1.353	4.93469
1.3535	5.13611
1.354	2.41699
1.3545	2.21558
1.355	10.57434
1.3555	4.63257
1.356	1.40991
1.3565	3.8269
1.357	4.93469
1.3575	0
1.358	3.22266
1.3585	4.83398
1.359	6.04248
1.3595	4.63257
1.36	4.83398
1.3605	4.53186
1.361	1.10779
1.3615	3.12195
1.362	1.61133
1.3625	7.45239
1.363	1.00708
1.3635	9.66797
1.364	13.29346
1.3645	7.45239
1.365	9.56726
1.3655	1.61133
1.366	6.2439
1.3665	0.70496
1.367	5.43823
1.3675	8.15735
1.368	-1.10779
1.3685	5.63965
1.369	7.25098
1.3695	-0.20142
1.37	6.74744
1.3705	7.75452
1.371	7.5531
1.3715	1.61133
1.372	6.84814
1.3725	2.21558
1.373	2.61841
1.3735	4.02832
1.374	3.62549
1.3745	4.22974
1.375	5.63965
1.3755	10.57434
1.376	8.56018
1.3765	8.56018
1.377	7.25098
1.3775	15.40833
1.378	9.46655
1.3785	6.64673
1.379	8.66089
1.3795	7.95593
1.38	9.36584
1.3805	10.97717
1.381	6.44531
1.3815	7.35168
1.382	1.71204
1.3825	4.73328
1.383	4.43115
1.3835	7.85522
1.384	5.74036
1.3845	2.21558
1.385	6.54602
1.3855	-3.02124
1.386	0.90637
1.3865	5.63965
1.387	4.22974
1.3875	9.16443
1.388	7.25098
1.3885	7.35168
1.389	9.76868
1.3895	8.96301
1.39	6.64673
1.3905	9.06372
1.391	3.7262
1.3915	8.15735
1.392	8.7616
1.3925	9.76868
1.393	2.41699
1.3935	7.25098
1.394	6.74744
1.3945	6.44531
1.395	6.3446
1.3955	6.74744
1.396	4.33044
1.3965	8.7616
1.397	6.84814
1.3975	5.0354
1.398	8.96301
1.3985	9.16443
1.399	6.14319
1.3995	5.33752
1.4	4.53186
1.4005	2.81982
1.401	2.41699
1.4015	5.74036
1.402	6.74744
1.4025	11.2793
1.403	13.09204
1.4035	8.45947
1.404	7.95593
1.4045	8.96301
1.405	2.71912
1.4055	5.53894
1.406	5.53894
1.4065	3.8269
1.407	7.75452
1.4075	5.23682
1.408	7.15027
1.4085	10.0708
1.409	7.65381
1.4095	4.22974
1.41	0.60425
1.4105	-1.51062
1.411	4.83398
1.4115	2.01416
1.412	0.50354
1.4125	6.2439
1.413	5.53894
1.4135	7.15027
1.414	4.53186
1.4145	4.73328
1.415	5.84106
1.4155	2.71912
1.416	7.65381
1.4165	5.63965
1.417	5.33752
1.4175	5.33752
1.418	5.84106
1.4185	4.83398
1.419	5.74036
1.4195	2.01416
1.42	2.41699
1.4205	6.54602
1.421	5.63965
1.4215	0.50354
1.422	3.42407
1.4225	10.0708
1.423	3.52478
1.4235	8.66089
1.424	5.0354
1.4245	3.52478
1.425	4.33044
1.4255	7.65381
1.426	6.2439
1.4265	1.81274
1.427	6.2439
1.4275	1.71204
1.428	4.43115
1.4285	4.63257
1.429	2.21558
1.4295	8.56018
1.43	2.5177
1.4305	9.16443
1.431	7.45239
1.4315	7.65381
1.432	7.85522
1.4325	4.63257
1.433	4.73328
1.4335	3.22266
1.434	3.32336
1.4345	12.18567
1.435	4.22974
1.4355	0.20142
1.436	8.96301
1.4365	8.15735
1.437	9.26514
1.4375	8.7616
1.438	6.74744
1.4385	8.45947
1.439	7.85522
1.4395	5.74036
1.44	5.33752
1.4405	6.04248
1.441	4.93469
1.4415	6.2439
1.442	3.12195
1.4425	6.54602
1.443	8.45947
1.4435	4.63257
1.444	7.45239
1.4445	-0.10071
1.445	-3.02124
1.4455	6.64673
1.446	4.22974
1.4465	7.85522
1.447	5.74036
1.4475	-1.10779
1.448	2.92053
1.4485	7.04956
1.449	-3.22266
1.4495	0.60425
1.45	5.84106
1.4505	6.44531
1.451	2.41699
1.4515	0.20142
1.452	-2.61841
1.4525	1.2085
1.453	12.18567
1.4535	6.3446
1.454	3.7262
1.4545	4.63257
1.455	6.3446
1.4555	7.5531
1.456	2.21558
1.4565	0.70496
1.457	-0.10071
1.4575	1.40991
1.458	-2.21558
1.4585	-1.71204
1.459	2.61841
1.4595	4.12903
1.46	4.53186
1.4605	1.00708
1.461	0.50354
1.4615	5.53894
1.462	3.7262
1.4625	-3.62549
1.463	0.20142
1.4635	1.81274
1.464	6.64673
1.4645	3.8269
1.465	3.32336
1.4655	7.04956
1.466	2.01416
1.4665	6.94885
1.467	5.84106
1.4675	1.71204
1.468	5.74036
1.4685	10.47363
1.469	6.54602
1.4695	8.8623
1.47	7.65381
1.4705	8.05664
1.471	10.57434
1.4715	4.93469
1.472	5.53894
1.4725	2.31628
1.473	1.3092
1.4735	3.7262
1.474	5.0354
1.4745	11.07788
1.475	5.0354
1.4755	6.74744
1.476	8.7616
1.4765	5.74036
1.477	2.5177
1.4775	5.53894
1.478	3.22266
1.4785	7.5531
1.479	7.04956
1.4795	3.52478
1.48	1.00708
1.4805	1.91345
1.481	0
1.4815	2.71912
1.482	1.40991
1.4825	6.54602
1.483	5.94177
1.4835	2.92053
1.484	0.90637
1.4845	6.54602
1.485	7.35168
1.4855	0
1.486	0.30212
1.4865	6.3446
1.487	12.08496
1.4875	3.92761
1.488	4.53186
1.4885	0.10071
1.489	-4.43115
1.4895	2.81982
1.49	2.01416
1.4905	2.81982
1.491	4.63257
1.4915	4.53186
1.492	9.56726
1.4925	0.30212
1.493	-0.90637
1.4935	3.12195
1.494	-3.12195
1.4945	-0.30212
1.495	3.12195
1.4955	0.40283
1.496	5.94177
1.4965	2.81982
1.497	4.63257
1.4975	0.30212
1.498	-0.20142
1.4985	0
1.499	3.7262
1.4995	7.15027
1.5	3.32336
1.5005	7.75452
1.501	2.92053
1.5015	3.62549
1.502	6.74744
1.5025	6.14319
1.503	7.75452
1.5035	8.05664
1.504	6.2439
1.5045	7.45239
1.505	9.76868
1.5055	1.00708
1.506	1.71204
1.5065	5.23682
1.507	7.45239
1.5075	7.04956
1.508	5.23682
1.5085	3.02124
1.509	8.66089
1.5095	8.56018
1.51	6.84814
1.5105	8.15735
1.511	6.74744
1.5115	4.93469
1.512	10.0708
1.5125	10.87646
1.513	4.63257
1.5135	2.41699
1.514	9.26514
1.5145	9.56726
1.515	5.33752
1.5155	4.83398
1.516	2.41699
1.5165	7.04956
1.517	7.65381
1.5175	8.45947
1.518	7.65381
1.5185	3.62549
1.519	2.31628
1.5195	5.74036
1.52	7.35168
1.5205	6.04248
1.521	9.56726
1.5215	9.66797
1.522	7.75452
1.5225	8.45947
1.523	6.44531
1.5235	6.44531
1.524	4.12903
1.5245	3.8269
1.525	8.66089
1.5255	8.15735
1.526	7.15027
1.5265	12.68921
1.527	10.77576
1.5275	10.57434
1.528	8.66089
1.5285	13.59558
1.529	8.45947
1.5295	10.37292
1.53	9.06372
1.5305	11.78284
1.531	10.37292
1.5315	7.5531
1.532	7.85522
1.5325	5.84106
1.533	7.85522
1.5335	9.16443
1.534	13.39417
1.5345	9.66797
1.535	3.7262
1.5355	2.81982
1.536	8.66089
1.5365	7.85522
1.537	11.48071
1.5375	9.06372
1.538	1.61133
1.5385	8.8623
1.539	4.12903
1.5395	8.05664
1.54	4.83398
1.5405	6.3446
1.541	7.65381
1.5415	5.74036
1.542	10.27222
1.5425	8.35876
1.543	6.44531
1.5435	7.65381
1.544	2.61841
1.5445	8.56018
1.545	9.66797
1.5455	7.95593
1.546	6.14319
1.5465	7.95593
1.547	6.14319
1.5475	6.44531
1.548	9.16443
1.5485	9.36584
1.549	4.63257
1.5495	2.81982
1.55	5.84106
1.5505	3.12195
1.551	9.86938
1.5515	6.74744
1.552	0.40283
1.5525	5.0354
1.553	4.63257
1.5535	2.61841
1.554	3.42407
1.5545	4.33044
1.555	5.74036
1.5555	6.2439
1.556	5.84106
1.5565	9.16443
1.557	4.02832
1.5575	9.56726
1.558	5.84106
1.5585	5.84106
1.559	0.60425
1.5595	0.10071
1.56	6.94885
1.5605	8.25806
1.561	3.42407
1.5615	2.21558
1.562	1.10779
1.5625	1.91345
1.563	-0.10071
1.5635	7.5531
1.564	4.93469
1.5645	7.04956
1.565	9.97009
1.5655	3.62549
1.566	7.45239
1.5665	6.14319
1.567	2.11487
1.5675	0.50354
1.568	10.37292
1.5685	5.43823
1.569	0.50354
1.5695	7.65381
1.57	8.05664
1.5705	3.22266
1.571	0.50354
1.5715	0.50354
1.572	5.63965
1.5725	2.01416
1.573	-1.40991
1.5735	5.53894
1.574	3.8269
1.5745	4.93469
1.575	0.40283
1.5755	3.22266
1.576	4.12903
1.5765	0.40283
1.577	3.8269
1.5775	1.51062
1.578	-0.90637
1.5785	-2.31628
1.579	0.60425
1.5795	0.40283
1.58	2.81982
1.5805	4.63257
1.581	7.95593
1.5815	6.2439
1.582	4.02832
1.5825	0
1.583	13.39417
1.5835	-0.70496
1.584	-2.81982
1.5845	3.42407
1.585	6.04248
1.5855	1.40991
1.586	7.85522
1.5865	5.94177
1.587	4.83398
1.5875	3.8269
1.588	3.8269
1.5885	4.02832
1.589	8.45947
1.5895	0.70496
1.59	4.63257
1.5905	4.22974
1.591	3.22266
1.5915	3.02124
1.592	3.52478
1.5925	8.7616
1.593	9.46655
1.5935	8.56018
1.594	7.15027
1.5945	5.94177
1.595	9.06372
1.5955	10.67505
1.596	11.07788
1.5965	5.74036
1.597	6.44531
1.5975	8.66089
1.598	4.22974
1.5985	8.35876
1.599	6.14319
1.5995	3.42407
1.6	2.21558
1.6005	6.94885
1.601	7.35168
1.6015	6.54602
1.602	7.15027
1.6025	7.25098
1.603	7.35168
1.6035	7.35168
1.604	9.06372
1.6045	8.45947
1.605	8.8623
1.6055	8.56018
1.606	5.13611
1.6065	8.25806
1.607	11.2793
1.6075	7.35168
1.608	11.98425
1.6085	7.65381
1.609	9.86938
1.6095	6.04248
1.61	8.56018
1.6105	11.58142
1.611	9.36584
1.6115	11.07788
1.612	9.06372
1.6125	9.66797
1.613	10.0708
1.6135	5.23682
1.614	11.07788
1.6145	10.87646
1.615	10.67505
1.6155	8.96301
1.616	9.06372
1.6165	6.54602
1.617	7.45239
1.6175	6.94885
1.618	3.7262
1.6185	5.63965
1.619	3.62549
1.6195	1.91345
1.62	3.8269
1.6205	5.74036
1.621	8.15735
1.6215	8.8623
1.622	1.91345
1.6225	-0.20142
1.623	0.40283
1.6235	-0.20142
1.624	-1.3092
1.6245	-1.40991
1.625	5.13611
1.6255	0.30212
1.626	0.20142
1.6265	-2.61841
1.627	-5.13611
1.6275	1.2085
1.628	-2.61841
1.6285	1.2085
1.629	2.11487
1.6295	-3.52478
1.63	-3.52478
1.6305	0
1.631	-6.14319
1.6315	0.90637
1.632	4.02832
1.6325	1.00708
1.633	-0.20142
1.6335	2.81982
1.634	-1.81274
1.6345	-1.00708
1.635	1.40991
1.6355	-2.71912
1.636	-2.81982
1.6365	-2.61841
1.637	-0.50354
1.6375	-2.11487
1.638	0
1.6385	-1.51062
1.639	2.41699
1.6395	-0.20142
1.64	2.92053
1.6405	1.2085
1.641	-1.3092
1.6415	2.41699
1.642	-2.01416
1.6425	0.80566
1.643	1.91345
1.6435	-1.91345
1.644	1.40991
1.6445	8.66089
1.645	5.33752
1.6455	-0.10071
1.646	0.30212
1.6465	4.33044
1.647	2.01416
1.6475	3.7262
1.648	2.81982
1.6485	8.8623
1.649	7.45239
1.6495	6.54602
1.65	8.7616
1.6505	3.62549
1.651	8.56018
1.6515	7.35168
1.652	9.06372
1.6525	7.95593
1.653	6.74744
1.6535	4.02832
1.654	4.02832
1.6545	8.96301
1.655	2.81982
1.6555	11.78284
1.656	5.63965
1.6565	7.45239
1.657	4.02832
1.6575	6.14319
1.658	4.43115
1.6585	5.23682
1.659	3.22266
1.6595	11.38
1.66	10.27222
1.6605	9.06372
1.661	8.35876
1.6615	8.15735
1.662	8.15735
1.6625	13.19275
1.663	10.27222
1.6635	9.86938
1.664	8.8623
1.6645	9.86938
1.665	11.07788
1.6655	9.06372
1.666	11.07788
1.6665	8.7616
1.667	3.62549
1.6675	10.77576
1.668	10.47363
1.6685	8.05664
1.669	11.78284
1.6695	15.1062
1.67	10.37292
1.6705	10.27222
1.671	9.56726
1.6715	9.66797
1.672	12.18567
1.6725	14.60266
1.673	9.36584
1.6735	7.85522
1.674	10.37292
1.6745	10.97717
1.675	8.15735
1.6755	7.35168
1.676	11.48071
1.6765	17.42249
1.677	15.40833
1.6775	13.39417
1.678	9.97009
1.6785	7.35168
1.679	7.95593
1.6795	4.93469
1.68	0.80566
1.6805	7.04956
1.681	5.0354
1.6815	5.74036
1.682	5.53894
1.6825	9.16443
1.683	5.43823
1.6835	5.74036
1.684	9.86938
1.6845	4.83398
1.685	5.84106
1.6855	3.12195
1.686	0.20142
1.6865	-2.71912
1.687	-0.10071
1.6875	3.92761
1.688	6.74744
1.6885	4.22974
1.689	3.8269
1.6895	4.33044
1.69	10.47363
1.6905	6.2439
1.691	11.98425
1.6915	9.76868
1.692	4.22974
1.6925	11.68213
1.693	11.68213
1.6935	8.15735
1.694	9.16443
1.6945	9.16443
1.695	13.99841
1.6955	9.26514
1.696	9.66797
1.6965	13.09204
1.697	9.76868
1.6975	16.01257
1.698	7.25098
1.6985	3.22266
1.699	3.32336
1.6995	9.66797
1.7	11.38
1.7005	14.30054
1.701	7.95593
1.7015	14.80408
1.702	10.67505
1.7025	6.64673
1.703	6.94885
1.7035	4.93469
1.704	5.84106
1.7045	4.93469
1.705	3.52478
1.7055	5.33752
1.706	9.36584
1.7065	5.94177
1.707	-1.3092
1.7075	4.83398
1.708	9.86938
1.7085	4.22974
1.709	4.22974
1.7095	5.33752
1.71	5.63965
1.7105	7.75452
1.711	4.43115
1.7115	0.50354
1.712	5.74036
1.7125	5.43823
1.713	8.8623
1.7135	8.45947
1.714	5.74036
1.7145	6.44531
1.715	3.32336
1.7155	4.43115
1.716	5.63965
1.7165	1.51062
1.717	9.06372
1.7175	7.75452
1.718	9.46655
1.7185	7.5531
1.719	3.7262
1.7195	5.84106
1.72	5.53894
1.7205	4.53186
1.721	6.94885
1.7215	1.71204
1.722	1.51062
1.7225	-0.60425
1.723	-2.71912
1.7235	-2.41699
1.724	-3.32336
1.7245	3.42407
1.725	7.45239
1.7255	7.15027
1.726	7.45239
1.7265	8.56018
1.727	6.64673
1.7275	12.48779
1.728	1.2085
1.7285	10.67505
1.729	3.62549
1.7295	2.11487
1.73	5.63965
1.7305	2.92053
1.731	4.63257
1.7315	1.40991
1.732	1.81274
1.7325	2.11487
1.733	1.71204
1.7335	6.3446
1.734	2.21558
1.7345	5.43823
1.735	10.37292
1.7355	12.18567
1.736	5.0354
1.7365	8.96301
1.737	7.85522
1.7375	7.65381
1.738	2.71912
1.7385	1.91345
1.739	0.80566
1.7395	-0.60425
1.74	4.02832
1.7405	6.84814
1.741	5.53894
1.7415	8.7616
1.742	3.7262
1.7425	7.65381
1.743	7.75452
1.7435	8.66089
1.744	5.43823
1.7445	3.62549
1.745	10.67505
1.7455	3.02124
1.746	1.61133
1.7465	5.84106
1.747	2.21558
1.7475	1.81274
1.748	6.94885
1.7485	0
1.749	-1.40991
1.7495	1.40991
1.75	2.01416
1.7505	5.13611
1.751	0.20142
1.7515	4.12903
1.752	7.25098
1.7525	4.93469
1.753	1.10779
1.7535	3.02124
1.754	2.01416
1.7545	0.50354
1.755	5.74036
1.7555	6.04248
1.756	6.94885
1.7565	6.84814
1.757	6.84814
1.7575	9.06372
1.758	2.81982
1.7585	8.56018
1.759	8.15735
1.7595	9.06372
1.76	9.06372
1.7605	12.89062
1.761	8.25806
1.7615	2.81982
1.762	7.45239
1.7625	8.96301
1.763	10.0708
1.7635	4.93469
1.764	12.28638
1.7645	1.91345
1.765	2.31628
1.7655	8.7616
1.766	12.99133
1.7665	8.7616
1.767	9.56726
1.7675	6.2439
1.768	8.45947
1.7685	1.61133
1.769	6.14319
1.7695	7.95593
1.77	8.45947
1.7705	2.01416
1.771	5.33752
1.7715	0.20142
1.772	0.70496
1.7725	7.5531
1.773	6.84814
1.7735	-0.50354
1.774	8.96301
1.7745	7.25098
1.775	4.83398
1.7755	2.61841
1.776	6.44531
1.7765	3.22266
1.777	3.92761
1.7775	6.74744
1.778	9.36584
1.7785	7.65381
1.779	6.44531
1.7795	4.43115
1.78	7.04956
1.7805	6.64673
1.781	8.25806
1.7815	8.45947
1.782	9.76868
1.7825	3.7262
1.783	8.05664
1.7835	10.57434
1.784	5.63965
1.7845	4.53186
1.785	9.26514
1.7855	7.15027
1.786	12.28638
1.7865	7.5531
1.787	8.35876
1.7875	12.78992
1.788	5.33752
1.7885	6.74744
1.789	9.76868
1.7895	11.88354
1.79	5.43823
1.7905	7.04956
1.791	8.05664
1.7915	5.13611
1.792	7.04956
1.7925	8.35876
1.793	5.33752
1.7935	4.33044
1.794	4.43115
1.7945	3.92761
1.795	6.04248
1.7955	-1.2085
1.796	4.12903
1.7965	4.12903
1.797	4.02832
1.7975	10.77576
1.798	-0.20142
1.7985	5.0354
1.799	5.33752
1.7995	10.0708
1.8	9.86938
1.8005	5.33752
1.801	6.44531
1.8015	9.36584
1.802	8.15735
1.8025	4.63257
1.803	6.3446
1.8035	7.75452
1.804	6.64673
1.8045	6.2439
1.805	3.8269
1.8055	4.73328
1.806	2.21558
1.8065	4.33044
1.807	3.22266
1.8075	6.44531
1.808	2.31628
1.8085	5.84106
1.809	3.02124
1.8095	1.2085
1.81	4.22974
1.8105	6.74744
1.811	9.66797
1.8115	6.04248
1.812	7.45239
1.8125	9.76868
1.813	8.66089
1.8135	3.62549
1.814	1.81274
1.8145	-1.00708
1.815	5.13611
1.8155	5.13611
1.816	7.5531
1.8165	8.66089
1.817	6.14319
1.8175	9.36584
1.818	5.53894
1.8185	8.45947
1.819	9.56726
1.8195	6.94885
1.82	4.63257
1.8205	4.73328
1.821	6.14319
1.8215	7.04956
1.822	4.53186
1.8225	5.84106
1.823	6.3446
1.8235	6.14319
1.824	8.45947
1.8245	2.5177
1.825	6.84814
1.8255	4.02832
1.826	3.12195
1.8265	10.27222
1.827	1.40991
1.8275	-0.90637
1.828	3.42407
1.8285	5.53894
1.829	5.13611
1.8295	2.71912
1.83	4.83398
1.8305	8.35876
1.831	10.67505
1.8315	3.02124
1.832	1.91345
1.8325	1.71204
1.833	7.65381
1.8335	7.95593
1.834	9.66797
1.8345	3.22266
1.835	-0.20142
1.8355	3.92761
1.836	8.7616
1.8365	5.43823
1.837	9.66797
1.8375	4.43115
1.838	1.2085
1.8385	5.84106
1.839	2.01416
1.8395	4.43115
1.84	3.7262
1.8405	0.70496
1.841	6.2439
1.8415	1.81274
1.842	0.20142
1.8425	5.23682
1.843	2.61841
1.8435	7.04956
1.844	-1.2085
1.8445	4.83398
1.845	2.11487
1.8455	5.33752
1.846	7.65381
1.8465	3.52478
1.847	3.02124
1.8475	1.51062
1.848	3.32336
1.8485	6.64673
1.849	2.41699
1.8495	4.63257
1.85	2.61841
1.8505	-1.10779
1.851	0.40283
1.8515	2.61841
1.852	1.10779
1.8525	2.61841
1.853	4.53186
1.8535	3.32336
1.854	3.52478
1.8545	8.05664
1.855	7.35168
1.8555	2.71912
1.856	4.63257
1.8565	6.3446
1.857	6.54602
1.8575	2.01416
1.858	3.7262
1.8585	1.71204
1.859	7.35168
1.8595	4.22974
1.86	10.57434
1.8605	4.93469
1.861	2.61841
1.8615	7.45239
1.862	3.42407
1.8625	2.92053
1.863	6.44531
1.8635	3.52478
1.864	3.92761
1.8645	6.3446
1.865	0
1.8655	3.22266
1.866	-0.90637
1.8665	2.41699
1.867	-0.80566
1.8675	3.62549
1.868	6.94885
1.8685	9.16443
1.869	6.84814
1.8695	6.3446
1.87	7.45239
1.8705	7.65381
1.871	8.35876
1.8715	4.63257
1.872	2.31628
1.8725	8.66089
1.873	6.44531
1.8735	7.5531
1.874	7.04956
1.8745	7.5531
1.875	12.48779
1.8755	2.61841
1.876	5.33752
1.8765	2.5177
1.877	7.85522
1.8775	11.58142
1.878	7.75452
1.8785	5.13611
1.879	4.63257
1.8795	3.62549
1.88	5.13611
1.8805	5.33752
1.881	8.7616
1.8815	0.20142
1.882	3.52478
1.8825	3.02124
1.883	-2.41699
1.8835	4.12903
1.884	6.54602
1.8845	12.78992
1.885	10.87646
1.8855	9.06372
1.886	3.22266
1.8865	-0.20142
1.887	3.52478
1.8875	5.0354
1.888	7.75452
1.8885	6.54602
1.889	5.84106
1.8895	3.7262
1.89	4.63257
1.8905	4.12903
1.891	6.2439
1.8915	10.0708
1.892	1.51062
1.8925	5.53894
1.893	8.15735
1.8935	9.97009
1.894	3.8269
1.8945	3.52478
1.895	4.02832
1.8955	5.53894
1.896	4.22974
1.8965	2.5177
1.897	4.53186
1.8975	7.15027
1.898	-2.71912
1.8985	1.00708
1.899	2.31628
1.8995	2.92053
1.9	2.92053
1.9005	8.15735
1.901	6.84814
1.9015	-1.71204
1.902	5.23682
1.9025	-1.51062
1.903	2.01416
1.9035	5.94177
1.904	1.81274
1.9045	0.70496
1.905	2.21558
1.9055	10.87646
1.906	7.5531
1.9065	7.25098
1.907	6.04248
1.9075	5.43823
1.908	5.74036
1.9085	1.71204
1.909	3.02124
1.9095	-1.51062
1.91	2.5177
1.9105	3.52478
1.911	5.63965
1.9115	5.43823
1.912	3.12195
1.9125	-1.81274
1.913	4.02832
1.9135	5.63965
1.914	6.84814
1.9145	2.41699
1.915	4.63257
1.9155	2.71912
1.916	1.00708
1.9165	0.10071
1.917	2.61841
1.9175	1.51062
1.918	1.61133
1.9185	0.50354
1.919	1.10779
1.9195	0.50354
1.92	2.92053
1.9205	0.20142
1.921	3.32336
1.9215	2.5177
1.922	5.13611
1.9225	-0.40283
1.923	4.12903
1.9235	2.5177
1.924	2.11487
1.9245	5.13611
1.925	1.81274
1.9255	4.22974
1.926	3.02124
1.9265	5.63965
1.927	5.74036
1.9275	1.40991
1.928	5.13611
1.9285	6.84814
1.929	4.93469
1.9295	2.21558
1.93	3.92761
1.9305	5.84106
1.931	3.02124
1.9315	5.43823
1.932	1.51062
1.9325	4.93469
1.933	2.21558
1.9335	-2.11487
1.934	-0.50354
1.9345	1.81274
1.935	7.35168
1.9355	1.71204
1.936	3.32336
1.9365	5.33752
1.937	4.02832
1.9375	3.52478
1.938	6.44531
1.9385	3.32336
1.939	1.40991
1.9395	7.95593
1.94	8.96301
1.9405	2.81982
1.941	7.04956
1.9415	5.43823
1.942	3.42407
1.9425	11.88354
1.943	9.16443
1.9435	5.0354
1.944	3.62549
1.9445	4.73328
1.945	5.53894
1.9455	8.56018
1.946	8.35876
1.9465	6.54602
1.947	10.27222
1.9475	7.85522
1.948	8.7616
1.9485	6.54602
1.949	6.44531
1.9495	4.83398
1.95	7.35168
1.9505	5.0354
1.951	5.0354
1.9515	6.44531
1.952	-0.10071
1.9525	2.71912
1.953	4.12903
1.9535	11.38
1.954	5.94177
1.9545	1.81274
1.955	6.54602
1.9555	3.22266
1.956	8.7616
1.9565	7.85522
1.957	4.33044
1.9575	7.75452
1.958	7.45239
1.9585	12.08496
1.959	6.44531
1.9595	7.65381
1.96	12.28638
1.9605	11.68213
1.961	5.43823
1.9615	9.66797
1.962	7.35168
1.9625	5.74036
1.963	4.02832
1.9635	4.43115
1.964	5.33752
1.9645	2.92053
1.965	3.7262
1.9655	5.74036
1.966	0.80566
1.9665	5.23682
1.967	4.73328
1.9675	5.74036
1.968	6.54602
1.9685	3.22266
1.969	1.3092
1.9695	3.12195
1.97	3.42407
1.9705	-1.2085
1.971	7.5531
1.9715	3.62549
1.972	3.32336
1.9725	-0.60425
1.973	1.81274
1.9735	5.23682
1.974	6.04248
1.9745	1.40991
1.975	-2.5177
1.9755	1.00708
1.976	3.42407
1.9765	10.77576
1.977	4.73328
1.9775	7.04956
1.978	3.8269
1.9785	2.21558
1.979	2.92053
1.9795	2.61841
1.98	4.53186
1.9805	3.12195
1.981	4.43115
1.9815	8.8623
1.982	7.35168
1.9825	5.84106
1.983	14.40125
1.9835	5.74036
1.984	5.84106
1.9845	3.92761
1.985	-2.11487
1.9855	5.94177
1.986	6.04248
1.9865	9.16443
1.987	5.0354
1.9875	8.8623
1.988	3.8269
1.9885	4.73328
1.989	5.63965
1.9895	1.81274
1.99	3.8269
1.9905	4.33044
1.991	4.83398
1.9915	1.81274
1.992	-1.61133
1.9925	1.2085
1.993	0.90637
1.9935	-0.70496
1.994	2.21558
1.9945	1.91345
1.995	2.71912
1.9955	3.7262
1.996	-1.71204
1.9965	2.5177
1.997	4.73328
1.9975	2.21558
1.998	4.12903
1.9985	6.3446
1.999	1.81274
1.9995	4.53186
2	0.10071
2.0005	0.80566
2.001	6.44531
2.0015	5.74036
2.002	3.02124
2.0025	4.43115
2.003	6.44531
2.0035	8.56018
2.004	1.71204
2.0045	5.74036
2.005	7.35168
2.0055	4.83398
2.006	8.7616
2.0065	5.63965
2.007	7.65381
2.0075	5.13611
2.008	4.12903
2.0085	0.80566
2.009	7.5531
2.0095	8.05664
2.01	6.2439
2.0105	8.7616
2.011	5.63965
2.0115	7.04956
2.012	4.63257
2.0125	5.94177
2.013	10.47363
2.0135	6.84814
2.014	3.22266
2.0145	3.92761
2.015	2.21558
2.0155	5.84106
2.016	6.44531
2.0165	10.77576
2.017	4.02832
2.0175	5.53894
2.018	5.74036
2.0185	4.63257
2.019	3.32336
2.0195	3.92761
2.02	4.02832
2.0205	7.85522
2.021	4.43115
2.0215	5.33752
2.022	2.11487
2.0225	4.63257
2.023	6.2439
2.0235	7.25098
2.024	1.71204
2.0245	7.25098
2.025	5.84106
2.0255	6.64673
2.026	7.15027
2.0265	11.98425
2.027	14.09912
2.0275	6.54602
2.028	6.94885
2.0285	6.14319
2.029	9.76868
2.0295	6.14319
2.03	5.84106
2.0305	2.92053
2.031	-0.40283
2.0315	0.10071
2.032	4.53186
2.0325	4.73328
2.033	2.81982
2.0335	2.41699
2.034	4.63257
2.0345	4.02832
2.035	8.66089
2.0355	9.06372
2.036	3.62549
2.0365	8.7616
2.037	6.3446
2.0375	12.68921
2.038	8.35876
2.0385	2.21558
2.039	7.15027
2.0395	5.33752
2.04	6.44531
2.0405	5.33752
2.041	8.66089
2.0415	4.53186
2.042	3.92761
2.0425	3.62549
2.043	8.05664
2.0435	8.05664
2.044	1.71204
2.0445	3.02124
2.045	3.22266
2.0455	1.10779
2.046	1.71204
2.0465	7.95593
2.047	8.05664
2.0475	9.86938
2.048	3.62549
2.0485	7.95593
2.049	4.73328
2.0495	1.51062
2.05	6.84814
2.0505	9.16443
2.051	8.56018
2.0515	5.84106
2.052	8.25806
2.0525	6.84814
2.053	3.32336
2.0535	0
2.054	8.8623
2.0545	1.81274
2.055	2.61841
2.0555	2.21558
2.056	4.53186
2.0565	5.0354
2.057	2.11487
2.0575	4.22974
2.058	3.22266
2.0585	3.12195
2.059	7.25098
2.0595	3.7262
2.06	0.40283
2.0605	4.53186
2.061	2.92053
2.0615	4.53186
2.062	0
2.0625	1.2085
2.063	0.90637
2.0635	2.01416
2.064	4.02832
2.0645	-0.90637
2.065	0.50354
2.0655	0
2.066	2.81982
2.0665	1.61133
2.067	4.63257
2.0675	2.11487
2.068	0
2.0685	4.12903
2.069	-1.61133
2.0695	0.80566
2.07	4.33044
2.0705	4.22974
2.071	-3.7262
2.0715	3.62549
2.072	-2.81982
2.0725	-1.00708
2.073	6.2439
2.0735	1.91345
2.074	0.70496
2.0745	0.80566
2.075	1.71204
2.0755	5.13611
2.076	-2.41699
2.0765	-1.2085
2.077	0.50354
2.0775	3.52478
2.078	2.41699
2.0785	3.8269
2.079	3.22266
2.0795	5.53894
2.08	0.20142
2.0805	0.80566
2.081	2.5177
2.0815	-2.11487
2.082	8.15735
2.0825	6.64673
2.083	2.5177
2.0835	3.7262
2.084	5.0354
2.0845	4.63257
2.085	9.36584
2.0855	5.53894
2.086	4.33044
2.0865	4.83398
2.087	2.61841
2.0875	4.63257
2.088	1.71204
2.0885	4.53186
2.089	9.56726
2.0895	7.25098
2.09	3.02124
2.0905	7.85522
2.091	2.41699
2.0915	9.86938
2.092	2.61841
2.0925	2.81982
2.093	5.84106
2.0935	6.04248
2.094	4.43115
2.0945	4.93469
2.095	2.92053
2.0955	3.32336
2.096	10.37292
2.0965	5.53894
2.097	4.33044
2.0975	-0.70496
2.098	2.31628
2.0985	4.53186
2.099	8.15735
2.0995	4.93469
2.1	1.61133
2.1005	4.83398
2.101	6.54602
2.1015	4.83398
2.102	4.22974
2.1025	3.12195
2.103	4.22974
2.1035	5.23682
2.104	5.0354
2.1045	4.22974
2.105	2.21558
2.1055	1.71204
2.106	9.76868
2.1065	3.02124
2.107	8.66089
2.1075	9.86938
2.108	8.66089
2.1085	5.84106
2.109	3.22266
2.1095	6.04248
2.11	6.84814
2.1105	4.22974
2.111	1.3092
2.1115	1.91345
2.112	2.31628
2.1125	6.2439
2.113	10.77576
2.1135	6.04248
2.114	4.12903
2.1145	9.66797
2.115	1.51062
2.1155	2.92053
2.116	6.94885
2.1165	8.7616
2.117	7.15027
2.1175	3.02124
2.118	7.95593
2.1185	3.8269
2.119	7.35168
2.1195	9.06372
2.12	1.3092
2.1205	5.43823
2.121	7.15027
2.1215	6.84814
2.122	7.5531
2.1225	8.8623
2.123	6.54602
2.1235	6.64673
2.124	5.53894
2.1245	1.40991
2.125	6.44531
2.1255	3.92761
2.126	7.95593
2.1265	3.42407
2.127	8.15735
2.1275	6.44531
2.128	6.44531
2.1285	10.97717
2.129	10.97717
2.1295	4.22974
2.13	5.63965
2.1305	6.3446
2.131	7.95593
2.1315	2.81982
2.132	4.43115
2.1325	5.74036
2.133	-1.00708
2.1335	0.30212
2.134	3.8269
2.1345	1.3092
2.135	2.41699
2.1355	4.63257
2.136	3.12195
2.1365	3.32336
2.137	6.2439
2.1375	5.23682
2.138	9.66797
2.1385	0.20142
2.139	6.04248
2.1395	4.12903
2.14	1.61133
2.1405	3.62549
2.141	3.32336
2.1415	5.84106
2.142	0.60425
2.1425	1.81274
2.143	3.62549
2.1435	3.12195
2.144	5.84106
2.1445	6.84814
2.145	2.5177
2.1455	5.33752
2.146	8.56018
2.1465	4.02832
2.147	8.8623
2.1475	4.63257
2.148	7.04956
2.1485	7.15027
2.149	7.5531
2.1495	7.5531
2.15	6.54602
2.1505	2.92053
2.151	5.43823
2.1515	5.13611
2.152	2.81982
2.1525	6.84814
2.153	7.45239
2.1535	9.16443
2.154	10.77576
2.1545	8.45947
2.155	7.45239
2.1555	4.22974
2.156	7.5531
2.1565	3.8269
2.157	5.94177
2.1575	8.05664
2.158	4.73328
2.1585	3.52478
2.159	7.5531
2.1595	8.96301
2.16	12.18567
2.1605	10.67505
2.161	5.84106
2.1615	5.63965
2.162	8.05664
2.1625	8.45947
2.163	8.05664
2.1635	8.96301
2.164	9.97009
2.1645	7.65381
2.165	13.09204
2.1655	11.78284
2.166	9.66797
2.1665	9.06372
2.167	4.73328
2.1675	9.36584
2.168	6.54602
2.1685	8.15735
2.169	10.97717
2.1695	14.30054
2.17	14.40125
2.1705	13.89771
2.171	12.38708
2.1715	13.59558
2.172	10.87646
2.1725	8.25806
2.173	7.45239
2.1735	10.27222
2.174	12.28638
2.1745	9.56726
2.175	10.27222
2.1755	8.7616
2.176	10.57434
2.1765	9.06372
2.177	6.04248
2.1775	8.56018
2.178	5.74036
2.1785	5.84106
2.179	7.75452
2.1795	15.20691
2.18	16.01257
2.1805	12.08496
2.181	11.78284
2.1815	9.86938
2.182	10.87646
2.1825	11.2793
2.183	9.46655
2.1835	10.57434
2.184	12.28638
2.1845	8.7616
2.185	9.16443
2.1855	8.45947
2.186	10.17151
2.1865	11.58142
2.187	7.65381
2.1875	12.89062
2.188	6.2439
2.1885	9.56726
2.189	9.56726
2.1895	5.33752
2.19	11.88354
2.1905	10.97717
2.191	10.17151
2.1915	10.37292
2.192	5.53894
2.1925	10.27222
2.193	6.14319
2.1935	5.23682
2.194	5.63965
2.1945	9.66797
2.195	5.43823
2.1955	7.25098
2.196	5.0354
2.1965	5.94177
2.197	7.35168
2.1975	6.04248
2.198	4.22974
2.1985	6.04248
2.199	3.12195
2.1995	4.93469
2.2	2.11487
2.2005	8.8623
2.201	2.01416
2.2015	2.61841
2.202	5.74036
2.2025	3.02124
2.203	4.93469
2.2035	2.5177
2.204	3.02124
2.2045	2.21558
2.205	-0.20142
2.2055	3.62549
2.206	5.33752
2.2065	0.30212
2.207	2.5177
2.2075	7.95593
2.208	11.78284
2.2085	6.84814
2.209	9.66797
2.2095	8.66089
2.21	8.56018
2.2105	9.76868
2.211	6.14319
2.2115	8.96301
2.212	8.8623
2.2125	0.80566
2.213	0.20142
2.2135	-1.91345
2.214	2.31628
2.2145	4.53186
2.215	5.0354
2.2155	8.05664
2.216	-0.20142
2.2165	1.3092
2.217	5.33752
2.2175	2.71912
2.218	2.61841
2.2185	1.3092
2.219	1.81274
2.2195	5.0354
2.22	1.10779
2.2205	2.41699
2.221	3.62549
2.2215	1.10779
2.222	4.83398
2.2225	5.23682
2.223	9.46655
2.2235	5.13611
2.224	3.8269
2.2245	3.22266
2.225	7.75452
2.2255	3.62549
2.226	9.36584
2.2265	9.97009
2.227	14.30054
2.2275	4.93469
2.228	2.31628
2.2285	7.25098
2.229	6.84814
2.2295	7.04956
2.23	7.85522
2.2305	7.25098
2.231	4.12903
2.2315	7.95593
2.232	8.15735
2.2325	10.17151
2.233	8.56018
2.2335	9.06372
2.234	6.14319
2.2345	5.63965
2.235	1.81274
2.2355	3.32336
2.236	1.00708
2.2365	1.91345
2.237	4.12903
2.2375	-0.60425
2.238	6.64673
2.2385	-0.60425
2.239	3.92761
2.2395	9.36584
2.24	9.86938
2.2405	4.43115
2.241	8.56018
2.2415	11.17859
2.242	3.62549
2.2425	5.63965
2.243	6.3446
2.2435	5.53894
2.244	0.60425
2.2445	7.15027
2.245	9.86938
2.2455	-2.31628
2.246	3.52478
2.2465	8.15735
2.247	10.17151
2.2475	10.77576
2.248	7.25098
2.2485	5.33752
2.249	5.84106
2.2495	0.30212
2.25	5.84106
2.2505	9.36584
2.251	2.21558
2.2515	0.70496
2.252	6.3446
2.2525	7.95593
2.253	4.43115
2.2535	10.37292
2.254	13.29346
2.2545	11.38
2.255	10.0708
2.2555	4.93469
2.256	2.92053
2.2565	5.23682
2.257	0.40283
2.2575	6.64673
2.258	4.83398
2.2585	3.32336
2.259	1.71204
2.2595	5.13611
2.26	8.45947
2.2605	0.50354
2.261	3.62549
2.2615	2.01416
2.262	12.28638
2.2625	6.74744
2.263	4.83398
2.2635	6.54602
2.264	8.7616
2.2645	11.78284
2.265	9.36584
2.2655	5.23682
2.266	6.44531
2.2665	10.0708
2.267	8.96301
2.2675	1.81274
2.268	4.73328
2.2685	4.63257
2.269	0.90637
2.2695	-1.91345
2.27	0.40283
2.2705	-0.90637
2.271	1.91345
2.2715	0.80566
2.272	-0.50354
2.2725	0
2.273	-1.2085
2.2735	-1.40991
2.274	4.12903
2.2745	-0.50354
2.275	0.30212
2.2755	0.30212
2.276	4.33044
2.2765	-0.30212
2.277	-2.11487
2.2775	-3.12195
2.278	-0.90637
2.2785	-8.35876
2.279	-6.84814
2.2795	-4.83398
2.28	-0.70496
2.2805	-0.10071
2.281	-7.95593
2.2815	-0.80566
2.282	-2.81982
2.2825	-6.74744
2.283	-4.93469
2.2835	-3.62549
2.284	-0.50354
2.2845	-1.3092
2.285	1.71204
2.2855	-0.80566
2.286	-4.22974
2.2865	5.13611
2.287	4.83398
2.2875	7.04956
2.288	5.13611
2.2885	6.04248
2.289	6.04248
2.2895	3.8269
2.29	5.0354
2.2905	11.68213
2.291	6.74744
2.2915	9.26514
2.292	6.44531
2.2925	3.22266
2.293	5.74036
2.2935	2.01416
2.294	0
2.2945	5.33752
2.295	3.8269
2.2955	9.26514
2.296	9.06372
2.2965	7.95593
2.297	8.25806
2.2975	8.45947
2.298	9.26514
2.2985	9.66797
2.299	11.38
2.2995	11.78284
2.3	12.38708
2.3005	8.8623
2.301	5.94177
2.3015	9.76868
2.302	10.57434
2.3025	11.2793
2.303	6.84814
2.3035	9.36584
2.304	6.74744
2.3045	10.17151
2.305	8.35876
2.3055	8.66089
2.306	4.63257
2.3065	2.21558
2.307	6.2439
2.3075	6.44531
2.308	7.35168
2.3085	4.83398
2.309	8.96301
2.3095	7.45239
2.31	9.36584
2.3105	9.56726
2.311	3.32336
2.3115	1.51062
2.312	8.05664
2.3125	11.2793
2.313	10.27222
2.3135	8.66089
2.314	10.87646
2.3145	8.15735
2.315	9.86938
2.3155	6.54602
2.316	7.35168
2.3165	11.2793
2.317	9.26514
2.3175	7.35168
2.318	5.53894
2.3185	5.53894
2.319	11.38
2.3195	8.25806
2.32	16.01257
2.3205	12.5885
2.321	10.57434
2.3215	9.56726
2.322	9.66797
2.3225	13.69629
2.323	6.54602
2.3235	5.94177
2.324	9.56726
2.3245	6.44531
2.325	7.35168
2.3255	8.25806
2.326	13.69629
2.3265	12.38708
2.327	1.40991
2.3275	12.18567
2.328	8.15735
2.3285	15.60974
2.329	9.06372
2.3295	7.04956
2.33	4.02832
2.3305	4.33044
2.331	3.7262
2.3315	8.05664
2.332	7.5531
2.3325	10.17151
2.333	7.75452
2.3335	9.46655
2.334	9.36584
2.3345	7.45239
2.335	4.53186
2.3355	4.63257
2.336	6.14319
2.3365	1.91345
2.337	4.93469
2.3375	5.43823
2.338	0.60425
2.3385	6.04248
2.339	0.50354
2.3395	7.15027
2.34	6.74744
2.3405	9.66797
2.341	2.41699
2.3415	3.12195
2.342	5.53894
2.3425	3.7262
2.343	9.46655
2.3435	1.51062
2.344	2.61841
2.3445	5.13611
2.345	3.8269
2.3455	4.22974
2.346	8.66089
2.3465	5.43823
2.347	6.84814
2.3475	5.0354
2.348	6.54602
2.3485	4.22974
2.349	5.43823
2.3495	12.28638
2.35	6.2439
2.3505	10.27222
2.351	10.27222
2.3515	7.75452
2.352	7.95593
2.3525	7.25098
2.353	10.67505
2.3535	15.40833
2.354	7.15027
2.3545	5.84106
2.355	10.37292
2.3555	8.35876
2.356	9.46655
2.3565	9.36584
2.357	7.95593
2.3575	11.38
2.358	4.43115
2.3585	5.63965
2.359	3.12195
2.3595	1.91345
2.36	0.70496
2.3605	1.61133
2.361	4.53186
2.3615	2.01416
2.362	1.10779
2.3625	5.94177
2.363	6.94885
2.3635	7.35168
2.364	3.92761
2.3645	8.35876
2.365	5.13611
2.3655	8.05664
2.366	8.66089
2.3665	11.2793
2.367	9.76868
2.3675	7.25098
2.368	5.13611
2.3685	5.0354
2.369	4.53186
2.3695	4.53186
2.37	0.90637
2.3705	7.35168
2.371	5.23682
2.3715	0.80566
2.372	2.81982
2.3725	5.43823
2.373	2.71912
2.3735	3.52478
2.374	2.41699
2.3745	5.63965
2.375	2.31628
2.3755	8.15735
2.376	6.54602
2.3765	10.57434
2.377	6.04248
2.3775	4.12903
2.378	6.84814
2.3785	7.04956
2.379	4.33044
2.3795	4.02832
2.38	-1.71204
2.3805	5.33752
2.381	5.94177
2.3815	6.2439
2.382	2.01416
2.3825	3.8269
2.383	-0.60425
2.3835	1.51062
2.384	6.2439
2.3845	2.71912
2.385	3.12195
2.3855	6.94885
2.386	8.25806
2.3865	4.43115
2.387	7.35168
2.3875	0
2.388	4.63257
2.3885	6.64673
2.389	9.36584
2.3895	6.94885
2.39	4.73328
2.3905	7.25098
2.391	4.22974
2.3915	9.16443
2.392	5.23682
2.3925	5.94177
2.393	5.43823
2.3935	6.44531
2.394	4.83398
2.3945	4.12903
2.395	4.33044
2.3955	6.64673
2.396	1.10779
2.3965	5.84106
2.397	5.53894
2.3975	3.8269
2.398	2.31628
2.3985	-0.10071
2.399	3.62549
2.3995	5.0354
2.4	5.84106
2.4005	5.94177
2.401	2.5177
2.4015	7.85522
2.402	6.2439
2.4025	7.5531
2.403	6.54602
2.4035	6.84814
2.404	6.84814
2.4045	3.02124
2.405	4.02832
2.4055	7.85522
2.406	7.85522
2.4065	2.81982
2.407	0.90637
2.4075	2.11487
2.408	2.41699
2.4085	2.5177
2.409	5.23682
2.4095	1.10779
2.41	10.37292
2.4105	2.61841
2.411	9.46655
2.4115	5.33752
2.412	6.14319
2.4125	-2.21558
2.413	4.02832
2.4135	0
2.414	5.63965
2.4145	8.35876
2.415	5.13611
2.4155	4.53186
2.416	9.46655
2.4165	1.81274
2.417	10.97717
2.4175	4.43115
2.418	6.84814
2.4185	6.44531
2.419	3.12195
2.4195	5.84106
2.42	8.25806
2.4205	8.35876
2.421	9.97009
2.4215	8.35876
2.422	3.8269
2.4225	8.05664
2.423	7.85522
2.4235	4.73328
2.424	6.54602
2.4245	2.31628
2.425	2.01416
2.4255	2.71912
2.426	-1.10779
2.4265	3.32336
2.427	10.0708
2.4275	9.86938
2.428	6.2439
2.4285	-1.00708
2.429	5.53894
2.4295	5.23682
2.43	10.47363
2.4305	3.8269
2.431	5.13611
2.4315	4.63257
2.432	2.71912
2.4325	9.16443
2.433	11.17859
2.4335	11.48071
2.434	8.66089
2.4345	7.25098
2.435	9.36584
2.4355	10.77576
2.436	6.2439
2.4365	5.74036
2.437	6.04248
2.4375	0.80566
2.438	5.53894
2.4385	6.54602
2.439	-0.60425
2.4395	1.3092
2.44	1.40991
2.4405	3.8269
2.441	6.14319
2.4415	7.35168
2.442	7.5531
2.4425	7.15027
2.443	9.26514
2.4435	-0.40283
2.444	2.31628
2.4445	4.02832
2.445	6.04248
2.4455	1.81274
2.446	6.3446
2.4465	4.02832
2.447	4.83398
2.4475	7.35168
2.448	5.63965
2.4485	6.84814
2.449	6.2439
2.4495	3.7262
2.45	10.17151
2.4505	8.15735
2.451	6.84814
2.4515	6.84814
2.452	6.54602
2.4525	5.63965
2.453	6.84814
2.4535	2.21558
2.454	-2.31628
2.4545	1.3092
2.455	8.15735
2.4555	8.25806
2.456	3.8269
2.4565	2.71912
2.457	6.64673
2.4575	9.66797
2.458	8.25806
2.4585	6.44531
2.459	7.04956
2.4595	5.23682
2.46	4.73328
2.4605	9.76868
2.461	7.35168
2.4615	7.5531
2.462	6.54602
2.4625	7.75452
2.463	4.53186
2.4635	7.25098
2.464	4.83398
2.4645	3.52478
2.465	1.10779
2.4655	4.33044
2.466	3.7262
2.4665	8.15735
2.467	9.26514
2.4675	3.7262
2.468	3.52478
2.4685	-1.71204
2.469	2.61841
2.4695	3.32336
2.47	3.7262
2.4705	7.15027
2.471	5.63965
2.4715	3.92761
2.472	6.04248
2.4725	6.04248
2.473	4.83398
2.4735	9.26514
2.474	9.66797
2.4745	4.43115
2.475	2.01416
2.4755	1.61133
2.476	-3.32336
2.4765	1.91345
2.477	0.80566
2.4775	4.73328
2.478	6.04248
2.4785	5.74036
2.479	4.93469
2.4795	9.97009
2.48	7.5531
2.4805	6.64673
2.481	1.71204
2.4815	3.52478
2.482	4.02832
2.4825	3.92761
2.483	1.00708
2.4835	5.63965
2.484	2.71912
2.4845	8.66089
2.485	4.33044
2.4855	7.35168
2.486	7.15027
2.4865	5.43823
2.487	7.95593
2.4875	10.97717
2.488	12.5885
2.4885	8.7616
2.489	4.33044
2.4895	5.63965
2.49	4.22974
2.4905	9.97009
2.491	11.58142
2.4915	5.13611
2.492	3.32336
2.4925	4.83398
2.493	3.7262
2.4935	6.04248
2.494	0.50354
2.4945	0.20142
2.495	0.80566
2.4955	6.3446
2.496	8.05664
2.4965	5.23682
2.497	4.43115
2.4975	6.84814
2.498	1.81274
2.4985	3.02124
2.499	6.04248
2.4995	2.41699
2.5	4.93469
2.5005	5.13611
2.501	2.5177
2.5015	2.41699
2.502	6.3446
2.5025	3.7262
2.503	6.2439
2.5035	2.71912
2.504	3.92761
2.5045	-0.50354
2.505	4.93469
2.5055	4.63257
2.506	11.17859
2.5065	7.85522
2.507	7.15027
2.5075	3.7262
2.508	5.74036
2.5085	6.74744
2.509	11.2793
2.5095	11.58142
2.51	11.38
2.5105	12.48779
2.511	10.57434
2.5115	8.15735
2.512	0.70496
2.5125	7.04956
2.513	6.94885
2.5135	5.33752
2.514	4.83398
2.5145	10.0708
2.515	6.44531
2.5155	0.30212
2.516	5.0354
2.5165	5.23682
2.517	3.7262
2.5175	-1.71204
2.518	-2.31628
2.5185	2.81982
2.519	2.81982
2.5195	1.2085
2.52	4.12903
2.5205	-6.84814
2.521	-0.10071
2.5215	3.7262
2.522	9.16443
2.5225	4.53186
2.523	7.75452
2.5235	2.41699
2.524	4.93469
2.5245	2.5177
2.525	5.84106
2.5255	13.19275
2.526	11.48071
2.5265	7.35168
2.527	5.63965
2.5275	8.66089
2.528	5.53894
2.5285	9.26514
2.529	10.57434
2.5295	6.64673
2.53	4.33044
2.5305	4.02832
2.531	8.8623
2.5315	8.8623
2.532	5.0354
2.5325	7.85522
2.533	9.06372
2.5335	4.63257
2.534	4.63257
2.5345	-1.61133
2.535	0.10071
2.5355	7.75452
2.536	5.53894
2.5365	5.13611
2.537	9.46655
2.5375	8.15735
2.538	5.84106
2.5385	5.43823
2.539	5.53894
2.5395	8.25806
2.54	6.84814
2.5405	3.22266
2.541	4.12903
2.5415	3.92761
2.542	8.15735
2.5425	2.92053
2.543	4.53186
2.5435	11.98425
2.544	5.33752
2.5445	2.81982
2.545	2.01416
2.5455	6.54602
2.546	9.66797
2.5465	8.05664
2.547	9.56726
2.5475	12.78992
2.548	9.16443
2.5485	4.73328
2.549	8.7616
2.5495	10.17151
2.55	10.77576
2.5505	8.45947
2.551	11.48071
2.5515	4.22974
2.552	6.2439
2.5525	6.44531
2.553	7.45239
2.5535	8.45947
2.554	10.67505
2.5545	8.56018
2.555	6.2439
2.5555	7.75452
2.556	6.94885
2.5565	1.3092
2.557	4.63257
2.5575	6.2439
2.558	3.92761
2.5585	4.12903
2.559	10.27222
2.5595	4.53186
2.56	9.56726
2.5605	7.45239
2.561	6.74744
2.5615	10.37292
2.562	6.04248
2.5625	6.3446
2.563	3.62549
2.5635	8.7616
2.564	11.88354
2.5645	8.35876
2.565	5.53894
2.5655	9.56726
2.566	12.28638
2.5665	7.45239
2.567	3.92761
2.5675	11.17859
2.568	7.25098
2.5685	8.96301
2.569	6.3446
2.5695	6.74744
2.57	4.73328
2.5705	3.32336
2.571	9.86938
2.5715	9.66797
2.572	7.65381
2.5725	5.33752
2.573	7.65381
2.5735	6.04248
2.574	4.12903
2.5745	7.95593
2.575	11.07788
2.5755	9.06372
2.576	11.68213
2.5765	8.56018
2.577	13.49487
2.5775	2.01416
2.578	4.63257
2.5785	4.83398
2.579	9.56726
2.5795	10.57434
2.58	8.66089
2.5805	15.50903
2.581	14.70337
2.5815	7.25098
2.582	10.77576
2.5825	11.58142
2.583	9.97009
2.5835	8.05664
2.584	4.73328
2.5845	9.97009
2.585	12.89062
2.5855	3.7262
2.586	4.93469
2.5865	0.10071
2.587	5.53894
2.5875	8.56018
2.588	-1.3092
2.5885	4.02832
2.589	5.13611
2.5895	1.91345
2.59	3.62549
2.5905	5.53894
2.591	5.63965
2.5915	3.92761
2.592	3.52478
2.5925	5.63965
2.593	5.23682
2.5935	7.35168
2.594	4.02832
2.5945	6.04248
2.595	8.56018
2.5955	7.25098
2.596	4.73328
2.5965	3.8269
2.597	-0.50354
2.5975	-1.40991
2.598	2.01416
2.5985	1.61133
2.599	8.56018
2.5995	9.06372
2.6	8.35876
2.6005	2.01416
2.601	4.93469
2.6015	3.02124
2.602	3.32336
2.6025	7.65381
2.603	8.35876
2.6035	7.85522
2.604	7.65381
2.6045	6.64673
2.605	3.32336
2.6055	8.66089
2.606	1.91345
2.6065	3.12195
2.607	3.8269
2.6075	4.22974
2.608	5.0354
2.6085	1.71204
2.609	3.8269
2.6095	2.21558
2.61	4.22974
2.6105	8.8623
2.611	6.44531
2.6115	5.63965
2.612	5.33752
2.6125	5.53894
2.613	1.10779
2.6135	7.35168
2.614	4.02832
2.6145	2.31628
2.615	5.74036
2.6155	4.53186
2.616	4.53186
2.6165	0.30212
2.617	4.02832
2.6175	-0.20142
2.618	3.32336
2.6185	1.51062
2.619	3.62549
2.6195	5.74036
2.62	4.33044
2.6205	4.12903
2.621	7.75452
2.6215	5.84106
2.622	0.90637
2.6225	9.56726
2.623	6.14319
2.6235	7.45239
2.624	4.33044
2.6245	9.46655
2.625	15.00549
2.6255	15.1062
2.626	3.02124
2.6265	9.56726
2.627	1.40991
2.6275	7.65381
2.628	8.35876
2.6285	4.73328
2.629	5.0354
2.6295	6.2439
2.63	7.04956
2.6305	7.95593
2.631	6.2439
2.6315	6.3446
2.632	9.16443
2.6325	2.92053
2.633	4.73328
2.6335	4.02832
2.634	4.93469
2.6345	2.11487
2.635	7.65381
2.6355	9.36584
2.636	8.45947
2.6365	6.84814
2.637	3.62549
2.6375	7.25098
2.638	7.45239
2.6385	0.20142
2.639	1.81274
2.6395	2.5177
2.64	0.10071
2.6405	5.43823
2.641	12.38708
2.6415	5.23682
2.642	3.8269
2.6425	2.61841
2.643	1.10779
2.6435	1.51062
2.644	4.63257
2.6445	2.01416
2.645	2.81982
2.6455	1.00708
2.646	2.21558
2.6465	5.63965
2.647	4.73328
2.6475	4.73328
2.648	-1.40991
2.6485	1.40991
2.649	0.40283
2.6495	4.43115
2.65	-0.20142
2.6505	-0.70496
2.651	0.20142
2.6515	2.5177
2.652	0
2.6525	11.48071
2.653	5.43823
2.6535	6.2439
2.654	6.2439
2.6545	6.94885
2.655	3.32336
2.6555	2.71912
2.656	7.04956
2.6565	8.05664
2.657	2.71912
2.6575	-3.62549
2.658	4.83398
2.6585	3.32336
2.659	0.50354
2.6595	2.71912
2.66	4.12903
2.6605	4.63257
2.661	4.33044
2.6615	4.22974
2.662	2.71912
2.6625	3.8269
2.663	10.27222
2.6635	4.43115
2.664	6.3446
2.6645	9.56726
2.665	7.65381
2.6655	7.85522
2.666	5.13611
2.6665	4.02832
2.667	7.25098
2.6675	5.0354
2.668	6.74744
2.6685	7.45239
2.669	3.42407
2.6695	6.74744
2.67	1.3092
2.6705	7.25098
2.671	7.35168
2.6715	6.14319
2.672	8.05664
2.6725	10.27222
2.673	9.97009
2.6735	6.2439
2.674	3.8269
2.6745	-0.20142
2.675	-0.40283
2.6755	1.3092
2.676	2.11487
2.6765	1.10779
2.677	4.63257
2.6775	1.10779
2.678	-2.21558
2.6785	-2.21558
2.679	0.40283
2.6795	8.96301
2.68	8.35876
2.6805	9.06372
2.681	9.06372
2.6815	6.54602
2.682	7.45239
2.6825	4.93469
2.683	4.53186
2.6835	3.8269
2.684	5.53894
2.6845	3.22266
2.685	3.52478
2.6855	7.75452
2.686	0.30212
2.6865	6.3446
2.687	1.91345
2.6875	2.21558
2.688	1.81274
2.6885	-0.70496
2.689	3.8269
2.6895	-3.22266
2.69	1.51062
2.6905	1.51062
2.691	3.62549
2.6915	-0.20142
2.692	-2.21558
2.6925	0.80566
2.693	1.3092
2.6935	-0.40283
2.694	-0.90637
2.6945	3.8269
2.695	0.40283
2.6955	-2.11487
2.696	0.70496
2.6965	1.61133
2.697	8.05664
2.6975	2.5177
2.698	-1.2085
2.6985	3.02124
2.699	1.2085
2.6995	-0.50354
2.7	4.53186
2.7005	2.01416
2.701	3.8269
2.7015	1.71204
2.702	2.81982
2.7025	0.10071
2.703	3.62549
2.7035	6.64673
2.704	7.95593
2.7045	3.7262
2.705	5.33752
2.7055	8.15735
2.706	3.52478
2.7065	4.43115
2.707	6.3446
2.7075	7.35168
2.708	5.53894
2.7085	6.64673
2.709	4.43115
2.7095	9.66797
2.71	9.26514
2.7105	9.66797
2.711	6.74744
2.7115	-0.10071
2.712	6.54602
2.7125	4.12903
2.713	2.21558
2.7135	3.42407
2.714	10.0708
2.7145	10.57434
2.715	2.92053
2.7155	7.85522
2.716	-1.00708
2.7165	4.12903
2.717	3.22266
2.7175	7.15027
2.718	9.56726
2.7185	12.48779
2.719	9.76868
2.7195	6.64673
2.72	12.08496
2.7205	7.45239
2.721	7.65381
2.7215	8.05664
2.722	4.53186
2.7225	1.81274
2.723	2.5177
2.7235	0
2.724	4.12903
2.7245	4.53186
2.725	10.37292
2.7255	0.70496
2.726	5.63965
2.7265	5.43823
2.727	4.73328
2.7275	4.22974
2.728	2.92053
2.7285	11.2793
2.729	8.25806
2.7295	7.65381
2.73	9.97009
2.7305	8.96301
2.731	7.35168
2.7315	4.83398
2.732	5.74036
2.7325	7.65381
2.733	5.84106
2.7335	5.13611
2.734	8.15735
2.7345	4.73328
2.735	8.35876
2.7355	7.15027
2.736	4.02832
2.7365	5.0354
2.737	7.85522
2.7375	4.22974
2.738	7.35168
2.7385	2.92053
2.739	5.94177
2.7395	2.31628
2.74	-2.92053
2.7405	10.0708
2.741	1.81274
2.7415	2.21558
2.742	4.93469
2.7425	3.22266
2.743	2.81982
2.7435	-2.21558
2.744	2.41699
2.7445	2.21558
2.745	1.51062
2.7455	5.13611
2.746	-2.5177
2.7465	2.81982
2.747	1.91345
2.7475	3.52478
2.748	3.02124
2.7485	4.73328
2.749	1.2085
2.7495	6.14319
2.75	2.61841
2.7505	-0.10071
2.751	5.63965
2.7515	0.80566
2.752	5.94177
2.7525	9.46655
2.753	9.16443
2.7535	6.2439
2.754	8.8623
2.7545	5.63965
2.755	6.14319
2.7555	8.35876
2.756	0.80566
2.7565	2.81982
2.757	2.71912
2.7575	5.94177
2.758	3.52478
2.7585	2.41699
2.759	1.61133
2.7595	2.41699
2.76	1.2085
2.7605	1.40991
2.761	6.84814
2.7615	5.63965
2.762	-1.71204
2.7625	3.32336
2.763	3.22266
2.7635	0.70496
2.764	-3.62549
2.7645	-0.10071
2.765	-0.90637
2.7655	3.7262
2.766	2.71912
2.7665	0.60425
2.767	2.92053
2.7675	4.22974
2.768	5.0354
2.7685	2.01416
2.769	4.02832
2.7695	1.3092
2.77	11.98425
2.7705	4.33044
2.771	7.04956
2.7715	8.25806
2.772	6.04248
2.7725	2.92053
2.773	2.92053
2.7735	0.50354
2.774	9.06372
2.7745	3.12195
2.775	3.32336
2.7755	5.33752
2.776	1.3092
2.7765	8.25806
2.777	8.35876
2.7775	8.7616
2.778	11.2793
2.7785	11.48071
2.779	9.66797
2.7795	11.2793
2.78	5.63965
2.7805	8.05664
2.781	7.5531
2.7815	8.25806
2.782	7.5531
2.7825	10.37292
2.783	8.25806
2.7835	4.43115
2.784	5.33752
2.7845	7.95593
2.785	8.05664
2.7855	6.3446
2.786	3.32336
2.7865	-4.73328
2.787	3.12195
2.7875	6.14319
2.788	4.43115
2.7885	3.02124
2.789	5.84106
2.7895	11.98425
2.79	10.47363
2.7905	10.67505
2.791	11.2793
2.7915	9.66797
2.792	6.84814
2.7925	-3.12195
2.793	2.5177
2.7935	3.32336
2.794	10.37292
2.7945	8.96301
2.795	12.08496
2.7955	9.46655
2.796	6.84814
2.7965	6.54602
2.797	8.15735
2.7975	6.74744
2.798	3.42407
2.7985	8.05664
2.799	5.94177
2.7995	6.3446
2.8	5.43823
2.8005	7.04956
2.801	4.73328
2.8015	7.35168
2.802	5.43823
2.8025	10.47363
2.803	5.74036
2.8035	6.2439
2.804	5.74036
2.8045	7.04956
2.805	7.35168
2.8055	12.99133
2.806	9.16443
2.8065	1.91345
2.807	6.74744
2.8075	6.64673
2.808	5.84106
2.8085	8.96301
2.809	14.30054
2.8095	9.36584
2.81	8.05664
2.8105	9.06372
2.811	8.25806
2.8115	7.5531
2.812	6.2439
2.8125	7.75452
2.813	1.51062
2.8135	9.56726
2.814	7.45239
2.8145	3.22266
2.815	8.25806
2.8155	6.14319
2.816	6.04248
2.8165	10.0708
2.817	5.0354
2.8175	6.84814
2.818	0.60425
2.8185	7.5531
2.819	6.14319
2.8195	3.32336
2.82	-0.50354
2.8205	6.14319
2.821	2.81982
2.8215	4.93469
2.822	5.84106
2.8225	3.22266
2.823	4.02832
2.8235	4.93469
2.824	4.63257
2.8245	3.62549
2.825	-0.10071
2.8255	6.2439
2.826	7.25098
2.8265	9.56726
2.827	4.02832
2.8275	10.17151
2.828	5.53894
2.8285	0.20142
2.829	5.23682
2.8295	4.53186
2.83	5.94177
2.8305	10.57434
2.831	9.86938
2.8315	3.12195
2.832	2.81982
2.8325	4.83398
2.833	4.43115
2.8335	3.22266
2.834	2.5177
2.8345	1.10779
2.835	-0.20142
2.8355	2.71912
2.836	9.06372
2.8365	6.64673
2.837	5.74036
2.8375	1.71204
2.838	8.66089
2.8385	3.8269
2.839	8.35876
2.8395	10.97717
2.84	4.63257
2.8405	5.0354
2.841	7.75452
2.8415	6.44531
2.842	5.0354
2.8425	2.41699
2.843	0.80566
2.8435	1.51062
2.844	7.35168
2.8445	3.52478
2.845	5.0354
2.8455	9.26514
2.846	10.37292
2.8465	8.35876
2.847	6.04248
2.8475	11.98425
2.848	7.95593
2.8485	8.25806
2.849	13.59558
2.8495	7.25098
2.85	4.93469
2.8505	2.92053
2.851	5.13611
2.8515	2.01416
2.852	6.44531
2.8525	10.27222
2.853	9.16443
2.8535	12.18567
2.854	6.14319
2.8545	3.12195
2.855	6.54602
2.8555	1.51062
2.856	-0.30212
2.8565	4.93469
2.857	0.50354
2.8575	6.04248
2.858	4.73328
2.8585	5.74036
2.859	5.53894
2.8595	4.93469
2.86	7.65381
2.8605	6.74744
2.861	11.88354
2.8615	10.27222
2.862	0.90637
2.8625	4.53186
2.863	-1.3092
2.8635	1.40991
2.864	6.3446
2.8645	8.7616
2.865	1.81274
2.8655	8.66089
2.866	5.33752
2.8665	3.8269
2.867	8.8623
2.8675	9.16443
2.868	9.56726
2.8685	8.96301
2.869	6.94885
2.8695	11.17859
2.87	5.0354
2.8705	6.14319
2.871	6.74744
2.8715	9.16443
2.872	4.12903
2.8725	6.94885
2.873	0.30212
2.8735	8.45947
2.874	6.84814
2.8745	9.76868
2.875	5.74036
2.8755	6.64673
2.876	10.37292
2.8765	9.06372
2.877	11.58142
2.8775	5.84106
2.878	6.14319
2.8785	8.15735
2.879	2.81982
2.8795	4.63257
2.88	6.04248
2.8805	4.33044
2.881	5.0354
2.8815	7.25098
2.882	4.93469
2.8825	11.68213
2.883	5.94177
2.8835	11.68213
2.884	10.37292
2.8845	10.17151
2.885	15.00549
2.8855	9.06372
2.886	0.40283
2.8865	0.40283
2.887	6.84814
2.8875	6.44531
2.888	3.52478
2.8885	1.71204
2.889	1.00708
2.8895	8.66089
2.89	8.45947
2.8905	2.31628
2.891	6.14319
2.8915	2.81982
2.892	4.33044
2.8925	6.84814
2.893	8.25806
2.8935	5.74036
2.894	8.25806
2.8945	8.15735
2.895	7.15027
2.8955	8.96301
2.896	9.26514
2.8965	7.65381
2.897	11.07788
2.8975	3.22266
2.898	3.8269
2.8985	3.32336
2.899	6.74744
2.8995	2.81982
2.9	2.01416
2.9005	7.95593
2.901	3.92761
2.9015	-1.2085
2.902	-0.60425
2.9025	3.12195
2.903	-1.61133
2.9035	3.92761
2.904	0.80566
2.9045	-0.50354
2.905	4.22974
2.9055	0.50354
2.906	0
2.9065	-5.13611
2.907	1.00708
2.9075	-6.2439
2.908	-3.8269
2.9085	-0.80566
2.909	-5.13611
2.9095	-2.81982
2.91	-0.50354
2.9105	-5.43823
2.911	-5.0354
2.9115	-2.21558
2.912	0.70496
2.9125	3.42407
2.913	3.52478
2.9135	-1.51062
2.914	3.12195
2.9145	-4.93469
2.915	0.50354
2.9155	-1.3092
2.916	-1.91345
2.9165	-2.41699
2.917	-1.51062
2.9175	2.61841
2.918	0.40283
2.9185	4.53186
2.919	3.92761
2.9195	4.43115
2.92	7.75452
2.9205	1.61133
2.921	3.7262
2.9215	8.45947
2.922	5.13611
2.9225	5.0354
2.923	4.73328
2.9235	6.2439
2.924	1.71204
2.9245	2.21558
2.925	8.66089
2.9255	7.25098
2.926	9.26514
2.9265	10.97717
2.927	3.02124
2.9275	10.87646
2.928	9.86938
2.9285	9.86938
2.929	10.97717
2.9295	8.56018
2.93	9.16443
2.9305	6.3446
2.931	11.38
2.9315	11.17859
2.932	8.25806
2.9325	7.04956
2.933	6.04248
2.9335	7.45239
2.934	10.37292
2.9345	10.27222
2.935	9.86938
2.9355	5.94177
2.936	9.36584
2.9365	7.04956
2.937	5.74036
2.9375	7.35168
2.938	9.16443
2.9385	6.3446
2.939	8.66089
2.9395	8.15735
2.94	11.17859
2.9405	4.63257
2.941	3.92761
2.9415	6.64673
2.942	4.22974
2.9425	3.02124
2.943	9.16443
2.9435	5.33752
2.944	6.94885
2.9445	15.40833
2.945	12.28638
2.9455	11.68213
2.946	10.87646
2.9465	4.22974
2.947	4.83398
2.9475	10.67505
2.948	10.0708
2.9485	12.28638
2.949	6.2439
2.9495	11.78284
2.95	9.46655
2.9505	4.53186
2.951	14.09912
2.9515	10.27222
2.952	3.92761
2.9525	5.23682
2.953	4.93469
2.9535	7.15027
2.954	3.12195
2.9545	8.8623
2.955	6.54602
2.9555	6.84814
2.956	9.06372
2.9565	-0.20142
2.957	2.71912
2.9575	7.95593
2.958	5.63965
2.9585	6.04248
2.959	6.54602
2.9595	8.56018
2.96	9.86938
2.9605	14.40125
2.961	10.17151
2.9615	7.04956
2.962	7.65381
2.9625	12.78992
2.963	7.65381
2.9635	11.07788
2.964	8.35876
2.9645	10.67505
2.965	5.84106
2.9655	7.04956
2.966	7.5531
2.9665	9.56726
2.967	4.63257
2.9675	1.40991
2.968	0.70496
2.9685	1.51062
2.969	7.75452
2.9695	4.12903
2.97	3.92761
2.9705	3.8269
2.971	2.92053
2.9715	2.01416
2.972	4.63257
2.9725	7.45239
2.973	-3.02124
2.9735	1.91345
2.974	2.5177
2.9745	-0.50354
2.975	3.42407
2.9755	4.33044
2.976	4.83398
2.9765	7.5531
2.977	5.74036
2.9775	2.11487
2.978	3.92761
2.9785	2.61841
2.979	-1.61133
2.9795	3.92761
2.98	4.83398
2.9805	0.50354
2.981	2.92053
2.9815	0.30212
2.982	6.2439
2.9825	6.74744
2.983	4.73328
2.9835	4.83398
2.984	6.54602
2.9845	3.02124
2.985	4.73328
2.9855	1.2085
2.986	-1.40991
2.9865	4.53186
2.987	0.70496
2.9875	10.57434
2.988	1.3092
2.9885	8.56018
2.989	6.94885
2.9895	8.15735
2.99	5.53894
2.9905	-0.40283
2.991	5.0354
2.9915	-1.61133
2.992	1.61133
2.9925	2.61841
2.993	6.44531
2.9935	4.22974
2.994	0.60425
2.9945	4.63257
2.995	5.74036
2.9955	4.22974
2.996	6.94885
2.9965	-1.3092
2.997	0.80566
2.9975	5.74036
2.998	6.54602
2.9985	3.52478
2.999	5.23682
2.9995	4.53186
3	4.22974
3.0005	1.71204
3.001	1.10779
3.0015	10.87646
3.002	2.01416
3.0025	7.15027
3.003	4.63257
3.0035	5.84106
3.004	9.16443
3.0045	9.97009
3.005	7.45239
3.0055	10.57434
3.006	8.66089
3.0065	9.16443
3.007	11.48071
3.0075	12.78992
3.008	7.15027
3.0085	10.37292
3.009	7.85522
3.0095	4.83398
3.01	7.85522
3.0105	7.15027
3.011	7.15027
3.0115	9.86938
3.012	12.08496
3.0125	4.12903
3.013	6.54602
3.0135	6.94885
3.014	8.56018
3.0145	7.04956
3.015	2.61841
3.0155	1.71204
3.016	2.61841
3.0165	5.33752
3.017	6.2439
3.0175	2.11487
3.018	3.42407
3.0185	13.49487
3.019	6.74744
3.0195	2.92053
3.02	1.61133
3.0205	0.30212
3.021	1.81274
3.0215	6.3446
3.022	5.13611
3.0225	4.83398
3.023	9.26514
3.0235	3.22266
3.024	2.81982
3.0245	7.5531
3.025	6.44531
3.0255	1.3092
3.026	4.83398
3.0265	-0.60425
3.027	4.63257
3.0275	5.84106
3.028	5.43823
3.0285	4.02832
3.029	0.90637
3.0295	11.78284
3.03	10.0708
3.0305	7.04956
3.031	7.25098
3.0315	8.45947
3.032	8.25806
3.0325	9.26514
3.033	11.2793
3.0335	5.84106
3.034	2.81982
3.0345	9.76868
3.035	7.35168
3.0355	8.25806
3.036	2.81982
3.0365	5.0354
3.037	8.45947
3.0375	4.63257
3.038	5.94177
3.0385	-0.10071
3.039	5.13611
3.0395	4.22974
3.04	0.90637
3.0405	3.8269
3.041	5.23682
3.0415	7.04956
3.042	8.45947
3.0425	4.73328
3.043	6.04248
3.0435	7.45239
3.044	8.45947
3.0445	8.66089
3.045	8.66089
3.0455	3.42407
3.046	2.11487
3.0465	3.52478
3.047	3.42407
3.0475	3.22266
3.048	6.64673
3.0485	3.7262
3.049	3.8269
3.0495	0.40283
3.05	2.21558
3.0505	4.83398
3.051	2.81982
3.0515	1.51062
3.052	1.71204
3.0525	-1.61133
3.053	3.52478
3.0535	0.70496
3.054	6.94885
3.0545	8.66089
3.055	2.71912
3.0555	5.94177
3.056	4.22974
3.0565	6.44531
3.057	1.40991
3.0575	6.84814
3.058	3.92761
3.0585	0.80566
3.059	3.32336
3.0595	5.0354
3.06	3.52478
3.0605	6.2439
3.061	7.5531
3.0615	5.0354
3.062	4.33044
3.0625	6.84814
3.063	5.23682
3.0635	7.35168
3.064	5.84106
3.0645	12.89062
3.065	12.68921
3.0655	4.63257
3.066	4.53186
3.0665	4.63257
3.067	5.0354
3.0675	4.12903
3.068	2.31628
3.0685	5.33752
3.069	4.93469
3.0695	6.2439
3.07	3.92761
3.0705	9.97009
3.071	5.84106
3.0715	6.3446
3.072	2.21558
3.0725	7.35168
3.073	6.64673
3.0735	3.02124
3.074	-1.2085
3.0745	3.32336
3.075	4.02832
3.0755	6.94885
3.076	5.33752
3.0765	9.16443
3.077	6.3446
3.0775	5.33752
3.078	5.0354
3.0785	2.71912
3.079	10.77576
3.0795	6.84814
3.08	6.64673
3.0805	6.74744
3.081	10.97717
3.0815	6.64673
3.082	4.33044
3.0825	5.43823
3.083	6.3446
3.0835	8.45947
3.084	3.52478
3.0845	7.95593
3.085	1.40991
3.0855	9.36584
3.086	3.92761
3.0865	1.71204
3.087	4.53186
3.0875	7.25098
3.088	6.3446
3.0885	6.3446
3.089	2.21558
3.0895	4.33044
3.09	6.2439
3.0905	2.41699
3.091	3.32336
3.0915	6.3446
3.092	3.62549
3.0925	9.97009
3.093	7.15027
3.0935	5.13611
3.094	10.17151
3.0945	0.40283
3.095	7.35168
3.0955	1.91345
3.096	6.14319
3.0965	3.32336
3.097	8.96301
3.0975	7.35168
3.098	3.8269
3.0985	3.8269
3.099	13.19275
3.0995	9.56726
3.1	8.66089
3.1005	8.66089
3.101	6.14319
3.1015	8.35876
3.102	4.53186
3.1025	6.3446
3.103	10.47363
3.1035	5.84106
3.104	1.10779
3.1045	4.33044
3.105	9.66797
3.1055	6.04248
3.106	3.62549
3.1065	8.35876
3.107	9.66797
3.1075	2.61841
3.108	7.95593
3.1085	7.04956
3.109	7.65381
3.1095	4.63257
3.11	4.63257
3.1105	7.35168
3.111	7.15027
3.1115	6.2439
3.112	9.46655
3.1125	1.51062
3.113	2.21558
3.1135	5.33752
3.114	1.71204
3.1145	4.22974
3.115	8.66089
3.1155	5.43823
3.116	6.64673
3.1165	7.95593
3.117	7.04956
3.1175	6.54602
3.118	8.96301
3.1185	3.22266
3.119	8.56018
3.1195	10.77576
3.12	6.64673
3.1205	4.63257
3.121	5.63965
3.1215	4.53186
3.122	4.83398
3.1225	3.52478
3.123	2.61841
3.1235	3.52478
3.124	3.62549
3.1245	6.3446
3.125	13.09204
3.1255	6.54602
3.126	7.75452
3.1265	5.43823
3.127	-1.91345
3.1275	6.94885
3.128	6.64673
3.1285	5.43823
3.129	5.94177
3.1295	2.61841
3.13	3.42407
3.1305	4.12903
3.131	2.21558
3.1315	4.33044
3.132	1.51062
3.1325	1.00708
3.133	5.74036
3.1335	0.40283
3.134	5.13611
3.1345	1.10779
3.135	2.81982
3.1355	5.23682
3.136	7.25098
3.1365	4.33044
3.137	0.20142
3.1375	1.00708
3.138	7.65381
3.1385	8.05664
3.139	2.81982
3.1395	7.75452
3.14	9.56726
3.1405	6.64673
3.141	9.26514
3.1415	4.83398
3.142	7.75452
3.1425	5.33752
3.143	2.5177
3.1435	0.40283
3.144	1.3092
3.1445	0.90637
3.145	4.63257
3.1455	2.61841
3.146	4.12903
3.1465	1.61133
3.147	2.11487
3.1475	0.60425
3.148	3.92761
3.1485	2.61841
3.149	4.83398
3.1495	-1.2085
3.15	-3.42407
3.1505	0
3.151	10.87646
3.1515	8.05664
3.152	5.74036
3.1525	-2.01416
3.153	5.13611
3.1535	8.96301
3.154	10.47363
3.1545	3.52478
3.155	6.74744
3.1555	0.90637
3.156	1.2085
3.1565	2.92053
3.157	6.14319
3.1575	4.83398
3.158	-1.61133
3.1585	1.91345
3.159	5.33752
3.1595	1.2085
3.16	8.05664
3.1605	7.35168
3.161	5.94177
3.1615	4.73328
3.162	2.71912
3.1625	0.60425
3.163	5.94177
3.1635	7.25098
3.164	1.91345
3.1645	0.30212
3.165	6.54602
3.1655	8.05664
3.166	3.7262
3.1665	5.84106
3.167	4.12903
3.1675	4.53186
3.168	4.73328
3.1685	1.51062
3.169	3.62549
3.1695	4.33044
3.17	3.42407
3.1705	2.81982
3.171	0.90637
3.1715	2.11487
3.172	5.23682
3.1725	6.94885
3.173	7.5531
3.1735	9.46655
3.174	7.25098
3.1745	7.95593
3.175	5.84106
3.1755	9.06372
3.176	8.05664
3.1765	7.75452
3.177	8.05664
3.1775	4.73328
3.178	4.12903
3.1785	4.73328
3.179	4.93469
3.1795	5.94177
3.18	3.32336
3.1805	2.92053
3.181	5.33752
3.1815	2.5177
3.182	3.12195
3.1825	6.44531
3.183	3.92761
3.1835	4.22974
3.184	0.90637
3.1845	3.12195
3.185	-0.90637
3.1855	2.31628
3.186	3.8269
3.1865	6.3446
3.187	7.15027
3.1875	-0.30212
3.188	0.40283
3.1885	1.81274
3.189	1.81274
3.1895	1.3092
3.19	-0.70496
3.1905	4.22974
3.191	2.81982
3.1915	1.81274
3.192	6.04248
3.1925	-3.02124
3.193	3.22266
3.1935	6.64673
3.194	6.44531
3.1945	3.62549
3.195	5.74036
3.1955	4.02832
3.196	6.54602
3.1965	6.54602
3.197	4.73328
3.1975	5.63965
3.198	3.02124
3.1985	5.0354
3.199	7.25098
3.1995	6.94885
3.2	4.22974
3.2005	6.2439
3.201	7.5531
3.2015	4.63257
3.202	5.13611
3.2025	11.58142
3.203	7.15027
3.2035	4.12903
3.204	7.35168
3.2045	6.44531
3.205	8.7616
3.2055	5.13611
3.206	10.17151
3.2065	6.14319
3.207	7.15027
3.2075	8.25806
3.208	3.92761
3.2085	6.94885
3.209	11.98425
3.2095	8.7616
3.21	7.45239
3.2105	2.61841
3.211	1.81274
3.2115	4.43115
3.212	3.8269
3.2125	3.92761
3.213	2.92053
3.2135	6.44531
3.214	6.04248
3.2145	8.45947
3.215	7.15027
3.2155	3.32336
3.216	4.93469
3.2165	10.37292
3.217	3.7262
3.2175	6.04248
3.218	10.87646
3.2185	10.17151
3.219	4.93469
3.2195	9.86938
3.22	4.83398
3.2205	3.42407
3.221	6.44531
3.2215	2.01416
3.222	4.53186
3.2225	6.3446
3.223	4.93469
3.2235	2.31628
3.224	0.90637
3.2245	6.2439
3.225	1.61133
3.2255	1.71204
3.226	6.74744
3.2265	5.53894
3.227	2.61841
3.2275	2.71912
3.228	7.85522
3.2285	1.81274
3.229	8.25806
3.2295	5.43823
3.23	6.04248
3.2305	7.85522
3.231	14.30054
3.2315	9.86938
3.232	6.2439
3.2325	7.5531
3.233	4.63257
3.2335	12.18567
3.234	7.25098
3.2345	6.84814
3.235	9.36584
3.2355	12.89062
3.236	12.68921
3.2365	4.73328
3.237	10.37292
3.2375	10.17151
3.238	7.95593
3.2385	8.45947
3.239	4.63257
3.2395	8.15735
3.24	1.71204
3.2405	6.64673
3.241	5.74036
3.2415	2.5177
3.242	4.83398
3.2425	2.41699
3.243	5.43823
3.2435	1.81274
3.244	3.12195
3.2445	-0.10071
3.245	6.44531
3.2455	5.94177
3.246	4.12903
3.2465	9.97009
3.247	6.44531
3.2475	2.5177
3.248	7.35168
3.2485	-0.70496
3.249	4.02832
3.2495	5.84106
3.25	4.43115
3.2505	-0.30212
3.251	8.56018
3.2515	-3.22266
3.252	8.66089
3.2525	4.83398
3.253	1.40991
3.2535	5.84106
3.254	5.53894
3.2545	1.10779
3.255	1.40991
3.2555	1.91345
3.256	4.12903
3.2565	4.93469
3.257	5.23682
3.2575	3.62549
3.258	8.25806
3.2585	-1.00708
3.259	5.23682
3.2595	7.45239
3.26	2.21558
3.2605	2.71912
3.261	3.42407
3.2615	0.50354
3.262	4.73328
3.2625	7.75452
3.263	1.71204
3.2635	7.45239
3.264	1.40991
3.2645	2.11487
3.265	10.77576
3.2655	6.84814
3.266	12.28638
3.2665	3.8269
3.267	14.09912
3.2675	7.35168
3.268	1.81274
3.2685	0
3.269	4.83398
3.2695	4.12903
3.27	2.71912
3.2705	4.63257
3.271	4.63257
3.2715	10.47363
3.272	9.66797
3.2725	12.48779
3.273	5.84106
3.2735	7.35168
3.274	3.7262
3.2745	6.3446
3.275	2.81982
3.2755	8.96301
3.276	9.36584
3.2765	13.19275
3.277	8.56018
3.2775	3.02124
3.278	3.52478
3.2785	7.45239
3.279	6.3446
3.2795	7.95593
3.28	7.95593
3.2805	5.0354
3.281	5.74036
3.2815	9.16443
3.282	12.38708
3.2825	8.45947
3.283	5.94177
3.2835	12.38708
3.284	3.42407
3.2845	5.33752
3.285	3.12195
3.2855	2.11487
3.286	4.12903
3.2865	6.74744
3.287	8.15735
3.2875	4.43115
3.288	-0.50354
3.2885	4.33044
3.289	8.45947
3.2895	1.81274
3.29	6.64673
3.2905	3.12195
3.291	2.11487
3.2915	8.66089
3.292	3.02124
3.2925	5.0354
3.293	4.53186
3.2935	7.5531
3.294	9.26514
3.2945	3.62549
3.295	8.05664
3.2955	7.95593
3.296	4.43115
3.2965	4.43115
3.297	6.54602
3.2975	4.73328
3.298	6.04248
3.2985	5.84106
3.299	3.52478
3.2995	3.32336
3.3	0.20142
3.3005	0.70496
3.301	4.73328
3.3015	4.63257
3.302	3.52478
3.3025	2.92053
3.303	3.42407
3.3035	7.04956
3.304	4.53186
3.3045	5.74036
3.305	9.26514
3.3055	8.45947
3.306	4.33044
3.3065	7.95593
3.307	6.54602
3.3075	6.84814
3.308	2.92053
3.3085	2.81982
3.309	-0.90637
3.3095	0.30212
3.31	3.52478
3.3105	-0.90637
3.311	5.84106
3.3115	8.45947
3.312	5.94177
3.3125	5.43823
3.313	4.12903
3.3135	10.0708
3.314	6.84814
3.3145	7.04956
3.315	4.43115
3.3155	4.12903
3.316	5.0354
3.3165	4.22974
3.317	8.66089
3.3175	4.93469
3.318	0.10071
3.3185	9.26514
3.319	4.93469
3.3195	3.52478
3.32	1.10779
3.3205	3.02124
3.321	1.61133
3.3215	5.63965
3.322	1.2085
3.3225	2.71912
3.323	6.2439
3.3235	4.22974
3.324	2.5177
3.3245	4.22974
3.325	8.66089
3.3255	12.5885
3.326	10.17151
3.3265	8.56018
3.327	2.11487
3.3275	3.52478
3.328	5.94177
3.3285	5.33752
3.329	2.92053
3.3295	6.04248
3.33	5.0354
3.3305	6.44531
3.331	6.2439
3.3315	5.53894
3.332	5.43823
3.3325	6.2439
3.333	6.2439
3.3335	5.33752
3.334	6.04248
3.3345	2.92053
3.335	6.84814
3.3355	2.81982
3.336	6.04248
3.3365	6.94885
3.337	10.0708
3.3375	10.47363
3.338	7.95593
3.3385	6.64673
3.339	7.95593
3.3395	0.10071
3.34	5.84106
3.3405	2.31628
3.341	4.02832
3.3415	9.66797
3.342	7.85522
3.3425	5.74036
3.343	6.3446
3.3435	4.73328
3.344	5.33752
3.3445	7.25098
3.345	10.57434
3.3455	9.36584
3.346	6.94885
3.3465	5.84106
3.347	13.69629
3.3475	10.0708
3.348	5.63965
3.3485	4.73328
3.349	6.54602
3.3495	4.73328
3.35	4.93469
3.3505	8.8623
3.351	8.45947
3.3515	8.25806
3.352	9.16443
3.3525	8.05664
3.353	7.25098
3.3535	3.42407
3.354	1.81274
3.3545	2.81982
3.355	1.91345
3.3555	3.12195
3.356	2.71912
3.3565	2.11487
3.357	5.13611
3.3575	10.37292
3.358	6.44531
3.3585	6.44531
3.359	8.25806
3.3595	2.61841
3.36	9.76868
3.3605	7.45239
3.361	2.71912
3.3615	1.91345
3.362	3.22266
3.3625	4.33044
3.363	4.33044
3.3635	5.63965
3.364	2.41699
3.3645	4.22974
3.365	4.93469
3.3655	5.13611
3.366	5.53894
3.3665	7.95593
3.367	11.38
3.3675	8.56018
3.368	4.53186
3.3685	5.0354
3.369	5.63965
3.3695	4.83398
3.37	6.44531
3.3705	7.95593
3.371	6.54602
3.3715	4.83398
3.372	5.33752
3.3725	3.8269
3.373	0.10071
3.3735	3.52478
3.374	8.05664
3.3745	5.23682
3.375	6.94885
3.3755	10.67505
3.376	6.44531
3.3765	6.44531
3.377	3.02124
3.3775	6.74744
3.378	5.74036
3.3785	3.12195
3.379	4.53186
3.3795	3.02124
3.38	7.15027
3.3805	10.17151
3.381	9.86938
3.3815	3.8269
3.382	8.7616
3.3825	6.2439
3.383	7.04956
3.3835	7.25098
3.384	4.53186
3.3845	8.66089
3.385	8.8623
3.3855	0.40283
3.386	-0.80566
3.3865	10.27222
3.387	5.94177
3.3875	11.68213
3.388	5.43823
3.3885	3.02124
3.389	4.02832
3.3895	6.64673
3.39	2.92053
3.3905	9.36584
3.391	3.32336
3.3915	2.92053
3.392	6.64673
3.3925	4.53186
3.393	1.10779
3.3935	2.11487
3.394	9.26514
3.3945	8.05664
3.395	4.22974
3.3955	0.60425
3.396	6.74744
3.3965	7.95593
3.397	5.43823
3.3975	5.23682
3.398	6.04248
3.3985	12.18567
3.399	8.15735
3.3995	8.35876
3.4	14.19983
3.4005	11.17859
3.401	11.38
3.4015	1.51062
3.402	9.26514
3.4025	9.16443
3.403	14.90479
3.4035	7.85522
3.404	8.66089
3.4045	9.36584
3.405	10.0708
3.4055	7.95593
3.406	10.97717
3.4065	9.06372
3.407	3.92761
3.4075	9.06372
3.408	6.64673
3.4085	7.85522
3.409	7.25098
3.4095	5.94177
3.41	5.13611
3.4105	7.25098
3.411	10.37292
3.4115	2.01416
3.412	1.2085
3.4125	5.63965
3.413	5.63965
3.4135	6.64673
3.414	7.95593
3.4145	9.06372
3.415	7.75452
3.4155	10.67505
3.416	10.97717
3.4165	0.80566
3.417	8.25806
3.4175	8.35876
3.418	8.35876
3.4185	6.54602
3.419	8.7616
3.4195	5.0354
3.42	4.22974
3.4205	5.84106
3.421	11.2793
3.4215	10.0708
3.422	9.66797
3.4225	7.85522
3.423	2.71912
3.4235	5.63965
3.424	4.83398
3.4245	5.43823
3.425	2.11487
3.4255	4.53186
3.426	6.2439
3.4265	7.35168
3.427	5.0354
3.4275	5.74036
3.428	5.74036
3.4285	4.12903
3.429	2.41699
3.4295	4.12903
3.43	6.54602
3.4305	4.93469
3.431	4.22974
3.4315	4.93469
3.432	4.43115
3.4325	6.84814
3.433	8.05664
3.4335	10.77576
3.434	2.71912
3.4345	11.58142
3.435	9.26514
3.4355	3.42407
3.436	0.60425
3.4365	4.83398
3.437	6.2439
3.4375	6.64673
3.438	2.61841
3.4385	3.12195
3.439	6.54602
3.4395	-2.41699
3.44	2.5177
3.4405	1.00708
3.441	1.51062
3.4415	-2.31628
3.442	1.91345
3.4425	0.40283
3.443	3.62549
3.4435	0.60425
3.444	5.23682
3.4445	0.10071
3.445	3.62549
3.4455	1.51062
3.446	3.02124
3.4465	1.51062
3.447	3.52478
3.4475	1.00708
3.448	1.00708
3.4485	4.83398
3.449	2.01416
3.4495	5.63965
3.45	3.52478
3.4505	8.56018
3.451	4.73328
3.4515	6.64673
3.452	7.75452
3.4525	4.63257
3.453	4.33044
3.4535	8.05664
3.454	6.94885
3.4545	3.7262
3.455	5.74036
3.4555	5.43823
3.456	-0.90637
3.4565	0.30212
3.457	5.53894
3.4575	1.00708
3.458	1.51062
3.4585	-0.10071
3.459	3.52478
3.4595	5.23682
3.46	3.42407
3.4605	6.74744
3.461	8.15735
3.4615	7.45239
3.462	5.13611
3.4625	-2.81982
3.463	2.92053
3.4635	5.33752
3.464	7.85522
3.4645	2.92053
3.465	3.7262
3.4655	5.74036
3.466	4.33044
3.4665	5.23682
3.467	4.43115
3.4675	10.27222
3.468	2.61841
3.4685	4.02832
3.469	3.32336
3.4695	3.02124
3.47	8.56018
3.4705	5.23682
3.471	3.8269
3.4715	7.85522
3.472	9.06372
3.4725	6.04248
3.473	5.13611
3.4735	11.78284
3.474	9.36584
3.4745	7.85522
3.475	9.36584
3.4755	9.76868
3.476	6.84814
3.4765	2.61841
3.477	3.7262
3.4775	4.63257
3.478	4.73328
3.4785	3.22266
3.479	7.75452
3.4795	4.43115
3.48	10.57434
3.4805	7.35168
3.481	6.04248
3.4815	8.35876
3.482	5.23682
3.4825	10.57434
3.483	5.33752
3.4835	8.15735
3.484	4.43115
3.4845	8.8623
3.485	3.7262
3.4855	4.63257
3.486	7.35168
3.4865	2.71912
3.487	7.65381
3.4875	7.35168
3.488	8.56018
3.4885	6.04248
3.489	4.83398
3.4895	5.84106
3.49	-0.70496
3.4905	6.04248
3.491	4.53186
3.4915	4.22974
3.492	3.62549
3.4925	-2.31628
3.493	2.81982
3.4935	2.71912
3.494	1.51062
3.4945	1.61133
3.495	1.10779
3.4955	-2.61841
3.496	1.71204
3.4965	3.92761
3.497	3.42407
3.4975	3.12195
3.498	1.61133
3.4985	5.53894
3.499	6.2439
3.4995	2.21558
3.5	6.84814
3.5005	6.04248
3.501	5.84106
3.5015	9.36584
3.502	7.75452
3.5025	2.21558
3.503	1.91345
3.5035	3.02124
3.504	4.02832
3.5045	6.74744
3.505	5.43823
3.5055	4.43115
3.506	6.74744
3.5065	6.74744
3.507	3.92761
3.5075	9.16443
3.508	3.7262
3.5085	1.3092
3.509	6.3446
3.5095	11.2793
3.51	8.45947
3.5105	10.97717
3.511	6.2439
3.5115	6.2439
3.512	6.04248
3.5125	2.61841
3.513	-0.50354
3.5135	8.56018
3.514	5.84106
3.5145	-0.50354
3.515	3.32336
3.5155	10.67505
3.516	14.30054
3.5165	8.7616
3.517	7.95593
3.5175	11.58142
3.518	6.84814
3.5185	4.93469
3.519	5.33752
3.5195	3.12195
3.52	10.57434
3.5205	8.45947
3.521	7.45239
3.5215	4.83398
3.522	1.91345
3.5225	8.05664
3.523	8.35876
3.5235	9.36584
3.524	6.54602
3.5245	9.06372
3.525	4.73328
3.5255	3.02124
3.526	-0.30212
3.5265	0.30212
3.527	6.84814
3.5275	1.10779
3.528	3.92761
3.5285	0.20142
3.529	-3.22266
3.5295	-1.2085
3.53	-1.91345
3.5305	2.5177
3.531	1.81274
3.5315	-0.40283
3.532	1.51062
3.5325	3.22266
3.533	3.62549
3.5335	2.81982
3.534	1.40991
3.5345	-6.54602
3.535	-4.83398
3.5355	-1.91345
3.536	-3.02124
3.5365	-4.33044
3.537	-4.22974
3.5375	-3.02124
3.538	-1.10779
3.5385	1.3092
3.539	-1.81274
3.5395	3.8269
3.54	0.70496
3.5405	0
3.541	1.00708
3.5415	-1.81274
3.542	-1.3092
3.5425	-5.74036
3.543	1.71204
3.5435	-3.32336
3.544	0.50354
3.5445	2.11487
3.545	3.52478
3.5455	1.2085
3.546	4.73328
3.5465	1.00708
3.547	-1.40991
3.5475	4.22974
3.548	5.53894
3.5485	-0.10071
3.549	4.73328
3.5495	4.73328
3.55	3.22266
3.5505	8.56018
3.551	7.45239
3.5515	7.95593
3.552	8.45947
3.5525	7.45239
3.553	5.94177
3.5535	5.84106
3.554	1.81274
3.5545	8.8623
3.555	3.02124
3.5555	6.3446
3.556	11.88354
3.5565	11.58142
3.557	10.17151
3.5575	9.76868
3.558	6.14319
3.5585	6.84814
3.559	8.45947
3.5595	9.26514
3.56	9.26514
3.5605	5.53894
3.561	2.41699
3.5615	4.12903
3.562	4.63257
3.5625	5.84106
3.563	0.80566
3.5635	1.51062
3.564	6.3446
3.5645	8.45947
3.565	9.16443
3.5655	9.66797
3.566	5.84106
3.5665	15.81116
3.567	8.7616
3.5675	4.33044
3.568	9.97009
3.5685	8.8623
3.569	5.53894
3.5695	8.15735
3.57	7.95593
3.5705	5.53894
3.571	9.86938
3.5715	4.73328
3.572	4.02832
3.5725	3.92761
3.573	1.10779
3.5735	4.02832
3.574	6.2439
3.5745	4.83398
3.575	6.74744
3.5755	7.15027
3.576	10.57434
3.5765	1.00708
3.577	5.23682
3.5775	6.64673
3.578	8.66089
3.5785	6.3446
3.579	9.86938
3.5795	10.47363
3.58	8.45947
3.5805	6.04248
3.581	3.32336
3.5815	6.84814
3.582	7.85522
3.5825	8.45947
3.583	4.63257
3.5835	7.5531
3.584	11.78284
3.5845	8.15735
3.585	5.0354
3.5855	4.93469
3.586	7.45239
3.5865	1.3092
3.587	9.36584
3.5875	0.50354
3.588	5.84106
3.5885	0.70496
3.589	6.2439
3.5895	6.04248
3.59	10.77576
3.5905	8.7616
3.591	3.02124
3.5915	3.7262
3.592	2.92053
3.5925	4.73328
3.593	3.62549
3.5935	5.74036
3.594	7.65381
3.5945	12.08496
3.595	6.44531
3.5955	11.68213
3.596	5.23682
3.5965	5.23682
3.597	10.37292
3.5975	11.07788
3.598	14.90479
3.5985	10.0708
3.599	12.68921
3.5995	10.37292
3.6	11.07788
3.6005	12.28638
3.601	12.08496
3.6015	10.0708
3.602	8.8623
3.6025	6.64673
3.603	6.84814
3.6035	6.64673
3.604	8.25806
3.6045	6.74744
3.605	12.78992
3.6055	8.35876
3.606	3.92761
3.6065	7.15027
3.607	5.13611
3.6075	0.10071
3.608	3.12195
3.6085	2.71912
3.609	2.92053
3.6095	2.61841
3.61	1.71204
3.6105	4.93469
3.611	6.44531
3.6115	-2.81982
3.612	-0.50354
3.6125	4.93469
3.613	10.87646
3.6135	2.81982
3.614	6.04248
3.6145	8.8623
3.615	9.06372
3.6155	6.94885
3.616	8.35876
3.6165	10.27222
3.617	4.43115
3.6175	11.07788
3.618	10.0708
3.6185	7.04956
3.619	5.63965
3.6195	7.75452
3.62	3.92761
3.6205	4.93469
3.621	7.04956
3.6215	4.12903
3.622	7.35168
3.6225	6.44531
3.623	8.15735
3.6235	7.35168
3.624	3.7262
3.6245	6.84814
3.625	0.90637
3.6255	1.81274
3.626	3.8269
3.6265	7.45239
3.627	11.98425
3.6275	8.45947
3.628	6.14319
3.6285	1.61133
3.629	5.84106
3.6295	5.23682
3.63	6.54602
3.6305	6.2439
3.631	6.04248
3.6315	6.14319
3.632	6.2439
3.6325	6.54602
3.633	-0.20142
3.6335	2.71912
3.634	6.14319
3.6345	3.7262
3.635	2.11487
3.6355	7.85522
3.636	0.20142
3.6365	3.42407
3.637	9.76868
3.6375	3.12195
3.638	2.21558
3.6385	3.32336
3.639	7.25098
3.6395	4.43115
3.64	3.42407
3.6405	6.2439
3.641	3.7262
3.6415	3.8269
3.642	8.96301
3.6425	3.7262
3.643	5.63965
3.6435	7.65381
3.644	3.7262
3.6445	3.8269
3.645	7.35168
3.6455	3.02124
3.646	-0.20142
3.6465	1.40991
3.647	7.65381
3.6475	6.14319
3.648	10.97717
3.6485	7.15027
3.649	5.0354
3.6495	2.61841
3.65	6.44531
3.6505	0.20142
3.651	5.23682
3.6515	-4.02832
3.652	5.63965
3.6525	5.23682
3.653	5.43823
3.6535	1.91345
3.654	2.71912
3.6545	0
3.655	5.33752
3.6555	1.2085
3.656	-3.32336
3.6565	-0.70496
3.657	8.05664
3.6575	9.26514
3.658	3.32336
3.6585	0.80566
3.659	6.3446
3.6595	7.45239
3.66	5.0354
3.6605	3.7262
3.661	-1.40991
3.6615	3.92761
3.662	7.35168
3.6625	2.61841
3.663	4.93469
3.6635	2.31628
3.664	-0.70496
3.6645	2.61841
3.665	-1.00708
3.6655	5.0354
3.666	5.13611
3.6665	4.02832
3.667	4.12903
3.6675	3.12195
3.668	4.73328
3.6685	7.5531
3.669	4.33044
3.6695	3.8269
3.67	7.5531
3.6705	6.2439
3.671	9.56726
3.6715	1.61133
3.672	9.06372
3.6725	6.3446
3.673	1.61133
3.6735	6.3446
3.674	8.7616
3.6745	13.09204
3.675	8.05664
3.6755	8.96301
3.676	4.73328
3.6765	2.31628
3.677	3.02124
3.6775	5.53894
3.678	2.61841
3.6785	6.04248
3.679	3.52478
3.6795	4.12903
3.68	2.5177
3.6805	3.22266
3.681	2.31628
3.6815	3.22266
3.682	10.77576
3.6825	4.02832
3.683	5.74036
3.6835	5.74036
3.684	-1.61133
3.6845	7.75452
3.685	3.8269
3.6855	3.12195
3.686	5.23682
3.6865	6.84814
3.687	10.37292
3.6875	8.05664
3.688	5.63965
3.6885	3.8269
3.689	3.32336
3.6895	-0.30212
3.69	3.92761
3.6905	6.54602
3.691	5.0354
3.6915	6.04248
3.692	6.64673
3.6925	6.54602
3.693	-2.5177
3.6935	7.65381
3.694	6.04248
3.6945	7.5531
3.695	8.56018
3.6955	4.73328
3.696	4.73328
3.6965	4.53186
3.697	8.8623
3.6975	3.52478
3.698	9.16443
3.6985	4.33044
3.699	2.31628
3.6995	4.02832
3.7	12.08496
3.7005	11.17859
3.701	7.45239
3.7015	8.15735
3.702	10.27222
3.7025	14.80408
3.703	9.56726
3.7035	12.08496
3.704	11.88354
3.7045	13.29346
3.705	7.5531
3.7055	6.14319
3.706	10.57434
3.7065	12.38708
3.707	7.35168
3.7075	13.09204
3.708	9.86938
3.7085	8.7616
3.709	8.56018
3.7095	6.84814
3.71	4.93469
3.7105	2.61841
3.711	2.5177
3.7115	10.37292
3.712	9.16443
3.7125	9.06372
3.713	8.45947
3.7135	8.35876
3.714	5.13611
3.7145	5.63965
3.715	6.84814
3.7155	9.56726
3.716	9.56726
3.7165	4.33044
3.717	4.33044
3.7175	3.02124
3.718	8.7616
3.7185	12.18567
3.719	6.2439
3.7195	2.21558
3.72	4.43115
3.7205	4.33044
3.721	4.73328
3.7215	5.43823
3.722	5.33752
3.7225	4.22974
3.723	4.83398
3.7235	6.64673
3.724	10.57434
3.7245	8.7616
3.725	12.99133
3.7255	12.18567
3.726	10.47363
3.7265	3.12195
3.727	8.05664
3.7275	5.33752
3.728	2.31628
3.7285	4.12903
3.729	3.8269
3.7295	7.04956
3.73	1.91345
3.7305	9.97009
3.731	6.94885
3.7315	0.40283
3.732	4.22974
3.7325	5.43823
3.733	6.64673
3.7335	9.06372
3.734	5.84106
3.7345	1.91345
3.735	4.33044
3.7355	4.73328
3.736	6.84814
3.7365	10.47363
3.737	5.63965
3.7375	6.64673
3.738	-3.32336
3.7385	4.22974
3.739	4.63257
3.7395	1.3092
3.74	0.60425
3.7405	4.73328
3.741	-1.51062
3.7415	1.81274
3.742	5.13611
3.7425	6.44531
3.743	7.04956
3.7435	3.8269
3.744	5.94177
3.7445	5.84106
3.745	0.60425
3.7455	5.33752
3.746	3.42407
3.7465	1.3092
3.747	6.14319
3.7475	11.58142
3.748	10.87646
3.7485	3.32336
3.749	1.71204
3.7495	4.43115
3.75	1.91345
3.7505	7.5531
3.751	0.70496
3.7515	11.98425
3.752	6.14319
3.7525	3.42407
3.753	3.42407
3.7535	-1.2085
3.754	1.00708
3.7545	6.3446
3.755	4.02832
3.7555	4.83398
3.756	11.07788
3.7565	8.8623
3.757	8.96301
3.7575	6.3446
3.758	7.85522
3.7585	7.45239
3.759	5.23682
3.7595	2.71912
3.76	5.53894
3.7605	9.06372
3.761	8.56018
3.7615	6.84814
3.762	9.97009
3.7625	5.0354
3.763	5.84106
3.7635	5.63965
3.764	9.66797
3.7645	3.62549
3.765	-1.3092
3.7655	6.44531
3.766	8.66089
3.7665	4.53186
3.767	1.2085
3.7675	4.33044
3.768	3.92761
3.7685	0.80566
3.769	-0.20142
3.7695	4.53186
3.77	5.53894
3.7705	4.22974
3.771	3.52478
3.7715	7.15027
3.772	7.85522
3.7725	-0.70496
3.773	3.02124
3.7735	9.06372
3.774	7.04956
3.7745	10.47363
3.775	11.58142
3.7755	8.66089
3.776	9.36584
3.7765	5.13611
3.777	4.33044
3.7775	8.15735
3.778	0.50354
3.7785	0.90637
3.779	2.61841
3.7795	3.42407
3.78	0.40283
3.7805	2.41699
3.781	-1.2085
3.7815	8.35876
3.782	4.33044
3.7825	4.02832
3.783	5.33752
3.7835	4.12903
3.784	9.76868
3.7845	4.33044
3.785	7.95593
3.7855	6.3446
3.786	12.38708
3.7865	5.63965
3.787	7.85522
3.7875	8.56018
3.788	8.66089
3.7885	4.83398
3.789	3.52478
3.7895	4.63257
3.79	6.54602
3.7905	6.84814
3.791	7.15027
3.7915	4.93469
3.792	6.74744
3.7925	-1.51062
3.793	6.04248
3.7935	5.94177
3.794	9.16443
3.7945	7.95593
3.795	1.71204
3.7955	2.5177
3.796	5.43823
3.7965	3.32336
3.797	0.80566
3.7975	7.35168
3.798	5.43823
3.7985	6.94885
3.799	2.21558
3.7995	5.43823
3.8	7.35168
3.8005	4.33044
3.801	1.91345
3.8015	3.92761
3.802	4.93469
3.8025	6.84814
3.803	1.91345
3.8035	7.85522
3.804	7.25098
3.8045	7.04956
3.805	8.45947
3.8055	6.14319
3.806	5.74036
3.8065	2.5177
3.807	1.2085
3.8075	5.74036
3.808	5.84106
3.8085	10.47363
3.809	5.23682
3.8095	5.0354
3.81	12.28638
3.8105	8.15735
3.811	8.15735
3.8115	10.47363
3.812	14.09912
3.8125	7.35168
3.813	5.23682
3.8135	10.77576
3.814	1.51062
3.8145	5.33752
3.815	3.32336
3.8155	3.7262
3.816	7.25098
3.8165	4.22974
3.817	9.66797
3.8175	5.94177
3.818	3.02124
3.8185	1.2085
3.819	6.44531
3.8195	3.42407
3.82	6.14319
3.8205	4.02832
3.821	5.94177
3.8215	7.04956
3.822	4.22974
3.8225	4.73328
3.823	1.40991
3.8235	6.94885
3.824	2.61841
3.8245	1.3092
3.825	-0.40283
3.8255	5.43823
3.826	7.85522
3.8265	6.14319
3.827	3.7262
3.8275	3.42407
3.828	6.74744
3.8285	4.73328
3.829	2.92053
3.8295	-0.50354
3.83	3.32336
3.8305	6.54602
3.831	4.02832
3.8315	7.5531
3.832	4.02832
3.8325	4.93469
3.833	5.84106
3.8335	7.15027
3.834	6.64673
3.8345	10.17151
3.835	4.63257
3.8355	3.12195
3.836	5.13611
3.8365	5.63965
3.837	2.01416
3.8375	11.38
3.838	17.6239
3.8385	13.19275
3.839	9.86938
3.8395	12.99133
3.84	13.99841
3.8405	8.7616
3.841	6.54602
3.8415	11.17859
3.842	13.797
3.8425	11.17859
3.843	7.65381
3.8435	7.04956
3.844	12.28638
3.8445	12.89062
3.845	7.85522
3.8455	9.66797
3.846	7.95593
3.8465	1.71204
3.847	6.2439
3.8475	9.56726
3.848	5.63965
3.8485	2.11487
3.849	2.01416
3.8495	7.15027
3.85	8.35876
3.8505	6.54602
3.851	4.02832
3.8515	5.63965
3.852	6.14319
3.8525	5.33752
3.853	2.41699
3.8535	-0.80566
3.854	3.02124
3.8545	4.83398
3.855	4.33044
3.8555	8.96301
3.856	3.12195
3.8565	4.02832
3.857	-1.00708
3.8575	2.41699
3.858	6.64673
3.8585	2.71912
3.859	4.43115
3.8595	-1.40991
3.86	3.02124
3.8605	5.23682
3.861	4.22974
3.8615	5.63965
3.862	8.56018
3.8625	7.35168
3.863	6.84814
3.8635	5.53894
3.864	10.0708
3.8645	6.2439
3.865	2.61841
3.8655	3.42407
3.866	7.95593
3.8665	7.75452
3.867	5.23682
3.8675	13.49487
3.868	1.61133
3.8685	7.85522
3.869	11.48071
3.8695	5.84106
3.87	8.25806
3.8705	6.3446
3.871	9.06372
3.8715	9.56726
3.872	3.42407
3.8725	1.71204
3.873	7.35168
3.8735	5.63965
3.874	5.23682
3.8745	3.92761
3.875	6.3446
3.8755	3.8269
3.876	0.60425
3.8765	2.61841
3.877	2.92053
3.8775	7.65381
3.878	8.05664
3.8785	4.33044
3.879	5.63965
3.8795	6.74744
3.88	-0.70496
3.8805	4.83398
3.881	5.23682
3.8815	3.8269
3.882	5.63965
3.8825	1.10779
3.883	2.92053
3.8835	1.00708
3.884	1.71204
3.8845	5.0354
3.885	6.94885
3.8855	10.77576
3.886	2.81982
3.8865	2.11487
3.887	7.85522
3.8875	6.44531
3.888	5.33752
3.8885	4.12903
3.889	10.97717
3.8895	9.16443
3.89	6.3446
3.8905	2.11487
3.891	3.32336
3.8915	1.2085
3.892	6.2439
3.8925	2.01416
3.893	6.54602
3.8935	3.52478
3.894	4.12903
3.8945	4.02832
3.895	1.2085
3.8955	5.13611
3.896	6.84814
3.8965	8.7616
3.897	12.48779
3.8975	2.31628
3.898	8.05664
3.8985	6.64673
3.899	4.43115
3.8995	6.74744
3.9	9.76868
3.9005	7.04956
3.901	8.05664
3.9015	5.23682
3.902	6.94885
3.9025	5.0354
3.903	0.70496
3.9035	8.96301
3.904	9.16443
3.9045	4.53186
3.905	6.74744
3.9055	2.71912
3.906	3.92761
3.9065	4.43115
3.907	-0.20142
3.9075	-0.70496
3.908	6.04248
3.9085	4.33044
3.909	6.64673
3.9095	5.53894
3.91	6.04248
3.9105	4.12903
3.911	5.0354
3.9115	4.63257
3.912	0.90637
3.9125	2.5177
3.913	0.30212
3.9135	0.70496
3.914	3.7262
3.9145	6.2439
3.915	3.7262
3.9155	7.5531
3.916	-0.50354
3.9165	0.50354
3.917	5.0354
3.9175	6.2439
3.918	1.10779
3.9185	2.31628
3.919	-3.92761
3.9195	-0.60425
3.92	0.30212
3.9205	-0.60425
3.921	0.30212
3.9215	4.73328
3.922	0.30212
3.9225	2.01416
3.923	3.92761
3.9235	-0.80566
3.924	6.44531
3.9245	7.25098
3.925	3.32336
3.9255	2.11487
3.926	7.45239
3.9265	4.22974
3.927	6.84814
3.9275	7.15027
3.928	6.84814
3.9285	8.7616
3.929	8.15735
3.9295	10.57434
3.93	10.17151
3.9305	5.0354
3.931	6.44531
3.9315	11.78284
3.932	7.45239
3.9325	11.98425
3.933	12.78992
3.9335	12.48779
3.934	9.26514
3.9345	7.65381
3.935	4.83398
3.9355	7.04956
3.936	4.73328
3.9365	5.0354
3.937	8.7616
3.9375	8.15735
3.938	4.43115
3.9385	8.05664
3.939	9.46655
3.9395	7.65381
3.94	6.14319
3.9405	5.74036
3.941	4.73328
3.9415	7.95593
3.942	8.96301
3.9425	9.86938
3.943	6.2439
3.9435	10.47363
3.944	7.04956
3.9445	3.32336
3.945	5.74036
3.9455	4.73328
3.946	10.47363
3.9465	9.16443
3.947	7.04956
3.9475	9.97009
3.948	14.80408
3.9485	8.66089
3.949	12.5885
3.9495	8.66089
3.95	6.14319
3.9505	5.53894
3.951	1.81274
3.9515	2.61841
3.952	6.04248
3.9525	8.35876
3.953	6.84814
3.9535	3.92761
3.954	4.63257
3.9545	4.22974
3.955	1.3092
3.9555	0.40283
3.956	4.22974
3.9565	2.5177
3.957	6.94885
3.9575	10.37292
3.958	10.0708
3.9585	7.15027
3.959	8.66089
3.9595	6.14319
3.96	9.36584
3.9605	4.33044
3.961	5.63965
3.9615	0.90637
3.962	5.33752
3.9625	2.11487
3.963	6.04248
3.9635	5.53894
3.964	4.73328
3.9645	2.61841
3.965	5.94177
3.9655	6.2439
3.966	7.85522
3.9665	8.35876
3.967	1.40991
3.9675	8.96301
3.968	5.13611
3.9685	6.04248
3.969	7.5531
3.9695	7.65381
3.97	5.0354
3.9705	7.65381
3.971	2.71912
3.9715	2.11487
3.972	11.17859
3.9725	10.67505
3.973	4.73328
3.9735	2.61841
3.974	-4.12903
3.9745	2.5177
3.975	6.54602
3.9755	2.21558
3.976	-0.60425
3.9765	8.56018
3.977	9.86938
3.9775	3.02124
3.978	8.15735
3.9785	7.25098
3.979	6.3446
3.9795	2.01416
3.98	1.3092
3.9805	6.54602
3.981	-0.20142
3.9815	1.61133
3.982	5.0354
3.9825	8.56018
3.983	4.43115
3.9835	2.21558
3.984	4.73328
3.9845	10.57434
3.985	5.43823
3.9855	5.0354
3.986	3.7262
3.9865	2.61841
3.987	3.92761
3.9875	-1.81274
3.988	2.92053
3.9885	6.74744
3.989	-0.30212
3.9895	0.50354
3.99	8.56018
3.9905	-0.50354
3.991	2.01416
3.9915	3.8269
3.992	5.63965
3.9925	7.75452
3.993	7.85522
3.9935	5.43823
3.994	6.14319
3.9945	2.5177
3.995	2.92053
3.9955	2.71912
3.996	3.32336
3.9965	6.74744
3.997	7.75452
3.9975	5.0354
3.998	4.02832
3.9985	3.92761
3.999	3.62549
3.9995	4.33044
4	8.56018
4.0005	10.87646
4.001	6.94885
4.0015	4.63257
4.002	6.94885
4.0025	5.63965
4.003	6.94885
4.0035	8.45947
4.004	7.5531
4.0045	6.44531
4.005	12.89062
4.0055	11.88354
4.006	8.8623
4.0065	3.42407
4.007	11.17859
4.0075	13.797
4.008	9.26514
4.0085	6.54602
4.009	9.16443
4.0095	7.45239
4.01	5.63965
4.0105	8.05664
4.011	6.2439
4.0115	9.86938
4.012	4.22974
4.0125	2.11487
4.013	5.23682
4.0135	6.64673
4.014	7.25098
4.0145	11.58142
4.015	8.15735
4.0155	1.40991
4.016	11.68213
4.0165	1.61133
4.017	1.00708
4.0175	3.42407
4.018	4.63257
4.0185	4.43115
4.019	9.36584
4.0195	4.02832
4.02	7.75452
4.0205	2.61841
4.021	10.17151
4.0215	6.2439
4.022	9.66797
4.0225	-1.51062
4.023	3.8269
4.0235	2.81982
4.024	7.04956
4.0245	8.25806
4.025	-0.90637
4.0255	7.15027
4.026	5.13611
4.0265	10.97717
4.027	6.54602
4.0275	3.92761
4.028	-1.40991
4.0285	0.20142
4.029	4.43115
4.0295	10.47363
4.03	10.27222
4.0305	7.25098
4.031	6.2439
4.0315	9.97009
4.032	6.54602
4.0325	3.7262
4.033	5.33752
4.0335	4.53186
4.034	4.93469
4.0345	5.43823
4.035	7.15027
4.0355	1.71204
4.036	5.53894
4.0365	2.92053
4.037	7.35168
4.0375	4.43115
4.038	6.44531
4.0385	6.3446
4.039	7.65381
4.0395	5.53894
4.04	2.71912
4.0405	7.95593
4.041	1.2085
4.0415	5.13611
4.042	3.7262
4.0425	5.53894
4.043	9.36584
4.0435	6.44531
4.044	0.90637
4.0445	4.12903
4.045	11.2793
4.0455	7.45239
4.046	6.44531
4.0465	0.90637
4.047	6.2439
4.0475	5.33752
4.048	10.27222
4.0485	5.43823
4.049	3.22266
4.0495	2.71912
4.05	6.14319
4.0505	5.74036
4.051	1.61133
4.0515	9.86938
4.052	5.13611
4.0525	9.36584
4.053	7.75452
4.0535	10.27222
4.054	11.58142
4.0545	4.12903
4.055	6.44531
4.0555	6.74744
4.056	4.63257
4.0565	4.93469
4.057	9.06372
4.0575	4.93469
4.058	2.21558
4.0585	4.33044
4.059	6.54602
4.0595	5.63965
4.06	7.04956
4.0605	3.62549
4.061	4.73328
4.0615	4.22974
4.062	10.77576
4.0625	1.3092
4.063	3.02124
4.0635	1.40991
4.064	0.90637
4.0645	-1.40991
4.065	5.84106
4.0655	5.94177
4.066	11.88354
4.0665	1.81274
4.067	6.3446
4.0675	7.5531
4.068	8.25806
4.0685	4.83398
4.069	2.11487
4.0695	5.63965
4.07	6.74744
4.0705	5.53894
4.071	7.35168
4.0715	3.32336
4.072	9.36584
4.0725	8.66089
4.073	10.37292
4.0735	5.94177
4.074	2.41699
4.0745	6.94885
4.075	14.40125
4.0755	6.94885
4.076	2.92053
4.0765	8.56018
4.077	3.42407
4.0775	6.54602
4.078	0.80566
4.0785	5.13611
4.079	10.77576
4.0795	9.66797
4.08	5.43823
4.0805	8.15735
4.081	8.05664
4.0815	4.02832
4.082	4.53186
4.0825	8.66089
4.083	4.73328
4.0835	4.12903
4.084	4.12903
4.0845	0.90637
4.085	3.8269
4.0855	4.53186
4.086	6.04248
4.0865	6.54602
4.087	8.25806
4.0875	4.22974
4.088	9.56726
4.0885	5.0354
4.089	2.01416
4.0895	4.53186
4.09	1.2085
4.0905	1.81274
4.091	3.92761
4.0915	6.94885
4.092	2.61841
4.0925	4.63257
4.093	1.81274
4.0935	-0.90637
4.094	3.02124
4.0945	5.23682
4.095	8.66089
4.0955	5.0354
4.096	6.74744
4.0965	1.71204
4.097	4.63257
4.0975	3.52478
4.098	7.45239
4.0985	7.5531
4.099	11.58142
4.0995	10.47363
4.1	4.63257
4.1005	10.87646
4.101	3.12195
4.1015	-1.61133
4.102	5.13611
4.1025	3.02124
4.103	2.92053
4.1035	1.3092
4.104	4.93469
4.1045	2.11487
4.105	5.0354
4.1055	1.40991
4.106	2.92053
4.1065	5.63965
4.107	7.45239
4.1075	9.46655
4.108	7.65381
4.1085	5.74036
4.109	4.33044
4.1095	3.32336
4.11	6.04248
4.1105	2.21558
4.111	10.0708
4.1115	-1.2085
4.112	2.61841
4.1125	8.66089
4.113	2.81982
4.1135	10.57434
4.114	1.51062
4.1145	8.8623
4.115	0.20142
4.1155	4.02832
4.116	2.61841
4.1165	0.10071
4.117	1.00708
4.1175	1.61133
4.118	7.15027
4.1185	9.16443
4.119	4.02832
4.1195	4.53186
4.12	3.8269
4.1205	4.93469
4.121	5.74036
4.1215	9.06372
4.122	8.15735
4.1225	6.94885
4.123	13.797
4.1235	9.66797
4.124	15.71045
4.1245	12.5885
4.125	13.09204
4.1255	10.77576
4.126	9.36584
4.1265	4.93469
4.127	13.59558
4.1275	9.26514
4.128	7.15027
4.1285	12.5885
4.129	8.96301
4.1295	12.48779
4.13	10.67505
4.1305	8.45947
4.131	8.66089
4.1315	2.5177
4.132	10.0708
4.1325	8.05664
4.133	3.42407
4.1335	4.22974
4.134	7.65381
4.1345	10.87646
4.135	4.63257
4.1355	5.33752
4.136	2.61841
4.1365	2.71912
4.137	7.45239
4.1375	1.81274
4.138	0.80566
4.1385	1.00708
4.139	5.33752
4.1395	-3.32336
4.14	-3.7262
4.1405	-0.30212
4.141	1.81274
4.1415	-0.50354
4.142	1.61133
4.1425	2.31628
4.143	-0.70496
4.1435	-2.5177
4.144	-0.60425
4.1445	4.02832
4.145	3.7262
4.1455	5.0354
4.146	-0.60425
4.1465	-3.32336
4.147	-1.81274
4.1475	6.64673
4.148	-0.30212
4.1485	-4.02832
4.149	-2.11487
4.1495	-3.42407
