Franco_Uliana_Left_1.c3d  



Time(s):	A_L_bicipite(μV):
0	-8.15735
0.0005	-10.17151
0.001	-14.19983
0.0015	-14.60266
0.002	-5.84106
0.0025	-0.60425
0.003	2.92053
0.0035	10.97717
0.004	14.50195
0.0045	17.32178
0.005	21.65222
0.0055	19.23523
0.006	23.66638
0.0065	14.90479
0.007	13.39417
0.0075	9.86938
0.008	8.15735
0.0085	4.73328
0.009	3.02124
0.0095	-0.40283
0.01	-1.81274
0.0105	-0.40283
0.011	-1.00708
0.0115	8.7616
0.012	9.66797
0.0125	7.25098
0.013	11.48071
0.0135	8.96301
0.014	20.74585
0.0145	17.01965
0.015	19.23523
0.0155	22.6593
0.016	17.32178
0.0165	17.12036
0.017	13.99841
0.0175	10.67505
0.018	6.04248
0.0185	2.31628
0.019	-3.8269
0.0195	-9.06372
0.02	-12.78992
0.0205	-19.33594
0.021	-25.07629
0.0215	-28.80249
0.022	-35.2478
0.0225	-30.61523
0.023	-32.83081
0.0235	-34.84497
0.024	-26.78833
0.0245	-25.78125
0.025	-17.52319
0.0255	-13.49487
0.026	-10.67505
0.0265	-4.33044
0.027	-2.61841
0.0275	-1.51062
0.028	2.41699
0.0285	6.94885
0.029	12.78992
0.0295	15.60974
0.03	15.20691
0.0305	19.73877
0.031	10.57434
0.0315	15.60974
0.032	17.82532
0.0325	21.14868
0.033	21.85364
0.0335	24.06921
0.034	29.00391
0.0345	28.80249
0.035	30.61523
0.0355	26.88904
0.036	27.59399
0.0365	25.07629
0.037	22.86072
0.0375	27.6947
0.038	33.53577
0.0385	35.65063
0.039	38.06763
0.0395	31.62231
0.04	31.52161
0.0405	32.93152
0.041	29.20532
0.0415	27.19116
0.042	17.82532
0.0425	11.2793
0.043	-2.41699
0.0435	-2.01416
0.044	-12.08496
0.0445	-21.75293
0.045	-26.98975
0.0455	-27.99683
0.046	-25.68054
0.0465	-31.21948
0.047	-30.11169
0.0475	-26.18408
0.048	-19.53735
0.0485	-19.33594
0.049	-15.50903
0.0495	-13.69629
0.05	-7.04956
0.0505	-1.81274
0.051	1.91345
0.0515	4.33044
0.052	10.47363
0.0525	16.81824
0.053	22.35718
0.0535	18.53027
0.054	17.42249
0.0545	13.89771
0.055	20.24231
0.0555	21.04797
0.056	21.04797
0.0565	22.86072
0.057	14.70337
0.0575	8.35876
0.058	8.25806
0.0585	13.99841
0.059	10.47363
0.0595	7.25098
0.06	6.54602
0.0605	2.41699
0.061	6.44531
0.0615	9.16443
0.062	4.63257
0.0625	4.22974
0.063	10.47363
0.0635	3.8269
0.064	7.25098
0.0645	9.46655
0.065	2.5177
0.0655	2.71912
0.066	-6.2439
0.0665	-8.05664
0.067	-12.68921
0.0675	-15.71045
0.068	-18.73169
0.0685	-18.8324
0.069	-26.18408
0.0695	-19.43665
0.07	-29.10461
0.0705	-21.55151
0.071	-31.11877
0.0715	-24.87488
0.072	-21.65222
0.0725	-19.73877
0.073	-15.20691
0.0735	-8.45947
0.074	-8.05664
0.0745	-1.61133
0.075	-0.50354
0.0755	-4.53186
0.076	0.80566
0.0765	7.45239
0.077	9.06372
0.0775	5.13611
0.078	6.54602
0.0785	7.25098
0.079	8.35876
0.0795	8.25806
0.08	11.88354
0.0805	17.32178
0.081	19.13452
0.0815	17.12036
0.082	13.39417
0.0825	16.01257
0.083	16.3147
0.0835	17.72461
0.084	19.73877
0.0845	31.32019
0.085	31.82373
0.0855	36.05347
0.086	37.26196
0.0865	37.46338
0.087	37.7655
0.0875	36.4563
0.088	33.23364
0.0885	33.33435
0.089	27.09045
0.0895	25.177
0.09	21.55151
0.0905	11.48071
0.091	10.27222
0.0915	11.2793
0.092	4.22974
0.0925	4.83398
0.093	0
0.0935	-1.91345
0.094	0.80566
0.0945	2.31628
0.095	2.11487
0.0955	-1.3092
0.096	-5.33752
0.0965	-4.33044
0.097	-3.92761
0.0975	-11.78284
0.098	-13.09204
0.0985	-9.97009
0.099	-9.86938
0.0995	-9.36584
0.1	-4.93469
0.1005	-8.35876
0.101	-0.80566
0.1015	8.25806
0.102	6.74744
0.1025	15.20691
0.103	17.12036
0.1035	24.47205
0.104	25.07629
0.1045	26.18408
0.105	20.04089
0.1055	17.92603
0.106	19.13452
0.1065	24.16992
0.107	19.03381
0.1075	17.42249
0.108	14.70337
0.1085	8.7616
0.109	2.41699
0.1095	-0.10071
0.11	-6.14319
0.1105	-14.40125
0.111	-16.61682
0.1115	-15.30762
0.112	-20.1416
0.1125	-17.92603
0.113	-11.98425
0.1135	-11.2793
0.114	-11.17859
0.1145	-1.81274
0.115	4.02832
0.1155	8.25806
0.116	12.5885
0.1165	15.20691
0.117	14.90479
0.1175	20.34302
0.118	19.83948
0.1185	15.81116
0.119	15.50903
0.1195	10.0708
0.12	0.80566
0.1205	-3.7262
0.121	-1.2085
0.1215	1.10779
0.122	7.45239
0.1225	14.90479
0.123	12.28638
0.1235	7.65381
0.124	10.97717
0.1245	13.09204
0.125	18.22815
0.1255	18.73169
0.126	20.24231
0.1265	21.3501
0.127	20.04089
0.1275	15.71045
0.128	9.86938
0.1285	3.92761
0.129	0.70496
0.1295	0.80566
0.13	-2.31628
0.1305	-3.42407
0.131	2.5177
0.1315	6.54602
0.132	5.84106
0.1325	6.74744
0.133	8.7616
0.1335	5.43823
0.134	11.68213
0.1345	10.17151
0.135	7.75452
0.1355	12.78992
0.136	20.1416
0.1365	20.24231
0.137	18.63098
0.1375	18.63098
0.138	18.8324
0.1385	19.63806
0.139	22.05505
0.1395	27.09045
0.14	22.96143
0.1405	11.78284
0.141	13.29346
0.1415	8.35876
0.142	4.83398
0.1425	4.93469
0.143	4.83398
0.1435	5.94177
0.144	16.51611
0.1445	36.25488
0.145	45.82214
0.1455	54.28162
0.146	61.83472
0.1465	52.67029
0.147	55.2887
0.1475	49.64905
0.148	44.51294
0.1485	37.16125
0.149	26.18408
0.1495	22.35718
0.15	16.3147
0.1505	5.13611
0.151	-5.53894
0.1515	-13.19275
0.152	-25.68054
0.1525	-33.03223
0.153	-35.14709
0.1535	-39.88037
0.154	-42.19666
0.1545	-41.79382
0.155	-44.31152
0.1555	-23.96851
0.156	-13.797
0.1565	-6.2439
0.157	6.94885
0.1575	14.09912
0.158	23.06213
0.1585	22.76001
0.159	22.45789
0.1595	16.11328
0.16	16.11328
0.1605	23.16284
0.161	25.07629
0.1615	19.73877
0.162	8.45947
0.1625	-1.00708
0.163	-15.1062
0.1635	-23.96851
0.164	-32.12585
0.1645	-43.50586
0.165	-49.14551
0.1655	-45.92285
0.166	-40.1825
0.1665	-44.11011
0.167	-40.88745
0.1675	-44.0094
0.168	-42.29736
0.1685	-36.65771
0.169	-39.17542
0.1695	-33.83789
0.17	-25.57983
0.1705	-27.89612
0.171	-17.6239
0.1715	-13.89771
0.172	-10.47363
0.1725	-8.15735
0.173	-5.74036
0.1735	-1.71204
0.174	1.51062
0.1745	5.0354
0.175	10.77576
0.1755	12.28638
0.176	10.57434
0.1765	0.60425
0.177	6.2439
0.1775	8.8623
0.178	13.69629
0.1785	21.24939
0.179	18.12744
0.1795	16.91895
0.18	18.63098
0.1805	13.89771
0.181	11.88354
0.1815	9.76868
0.182	18.32886
0.1825	14.70337
0.183	13.797
0.1835	9.46655
0.184	13.19275
0.1845	15.20691
0.185	19.83948
0.1855	22.15576
0.186	28.39966
0.1865	31.21948
0.187	39.17542
0.1875	49.34692
0.188	57.8064
0.1885	62.9425
0.189	61.12976
0.1895	58.51135
0.19	55.99365
0.1905	42.8009
0.191	34.74426
0.1915	26.28479
0.192	13.09204
0.1925	12.89062
0.193	-3.62549
0.1935	-12.89062
0.194	-16.21399
0.1945	-4.43115
0.195	-10.77576
0.1955	0.70496
0.196	24.16992
0.1965	36.55701
0.197	45.2179
0.1975	55.2887
0.198	95.37048
0.1985	111.8866
0.199	117.92908
0.1995	107.45544
0.2	93.25562
0.2005	76.94092
0.201	62.53967
0.2015	37.46338
0.202	8.25806
0.2025	-18.02673
0.203	-40.78674
0.2035	-60.72693
0.204	-82.68127
0.2045	-96.57898
0.205	-106.24695
0.2055	-107.25403
0.206	-102.82288
0.2065	-90.33508
0.207	-72.30835
0.2075	-62.43896
0.208	-54.98657
0.2085	-44.81506
0.209	-26.68762
0.2095	0
0.21	21.95435
0.2105	65.15808
0.211	92.55066
0.2115	99.80164
0.212	94.06128
0.2125	89.328
0.213	80.86853
0.2135	65.3595
0.214	52.46887
0.2145	34.34143
0.215	18.73169
0.2155	-1.40991
0.216	-17.12036
0.2165	-31.72302
0.217	-48.13843
0.2175	-61.33118
0.218	-74.92676
0.2185	-87.91809
0.219	-83.28552
0.2195	-84.69543
0.22	-76.43738
0.2205	-65.25879
0.221	-58.30994
0.2215	-47.63489
0.222	-35.2478
0.2225	-21.55151
0.223	-15.20691
0.2235	-4.93469
0.224	-0.10071
0.2245	1.91345
0.225	22.86072
0.2255	35.04639
0.226	39.27612
0.2265	36.85913
0.227	26.98975
0.2275	22.25647
0.228	26.88904
0.2285	24.77417
0.229	19.83948
0.2295	25.37842
0.23	32.83081
0.2305	39.37683
0.231	39.37683
0.2315	33.33435
0.232	26.88904
0.2325	16.61682
0.233	3.8269
0.2335	-3.7262
0.234	-13.69629
0.2345	-24.47205
0.235	-26.28479
0.2355	-31.62231
0.236	-35.2478
0.2365	-37.16125
0.237	-36.75842
0.2375	-31.01807
0.238	-23.06213
0.2385	-15.20691
0.239	-6.84814
0.2395	-0.20142
0.24	7.85522
0.2405	20.24231
0.241	18.53027
0.2415	22.86072
0.242	17.82532
0.2425	19.23523
0.243	19.94019
0.2435	22.96143
0.244	13.19275
0.2445	10.47363
0.245	0.30212
0.2455	-0.60425
0.246	-15.71045
0.2465	-16.41541
0.247	-12.78992
0.2475	-13.69629
0.248	-14.19983
0.2485	-11.38
0.249	-13.59558
0.2495	-7.35168
0.25	-2.61841
0.2505	6.74744
0.251	15.20691
0.2515	25.98267
0.252	21.14868
0.2525	28.80249
0.253	29.20532
0.2535	26.58691
0.254	26.3855
0.2545	30.31311
0.255	18.12744
0.2555	20.44373
0.256	20.04089
0.2565	15.30762
0.257	11.58142
0.2575	3.22266
0.258	1.3092
0.2585	-1.10779
0.259	-0.90637
0.2595	-2.41699
0.26	-0.50354
0.2605	1.51062
0.261	-3.52478
0.2615	-3.92761
0.262	5.84106
0.2625	10.27222
0.263	15.20691
0.2635	14.80408
0.264	11.58142
0.2645	18.93311
0.265	26.98975
0.2655	33.53577
0.266	40.48462
0.2665	44.21082
0.267	40.58533
0.2675	51.76392
0.268	47.93701
0.2685	46.62781
0.269	49.74976
0.2695	39.47754
0.27	40.78674
0.2705	30.71594
0.271	25.47913
0.2715	22.96143
0.272	15.50903
0.2725	12.28638
0.273	4.93469
0.2735	5.94177
0.274	10.47363
0.2745	7.5531
0.275	4.22974
0.2755	3.02124
0.276	-2.5177
0.2765	-4.12903
0.277	-7.35168
0.2775	-1.10779
0.278	0.40283
0.2785	20.54443
0.279	40.68604
0.2795	63.34534
0.28	105.44128
0.2805	135.55298
0.281	151.06201
0.2815	148.14148
0.282	120.64819
0.2825	97.38464
0.283	73.01331
0.2835	42.8009
0.284	7.25098
0.2845	-26.28479
0.285	-55.3894
0.2855	-84.89685
0.286	-118.2312
0.2865	-135.65369
0.287	-147.53723
0.2875	-151.46484
0.288	-151.66626
0.2885	-140.68909
0.289	-123.97156
0.2895	-106.75049
0.29	-81.06995
0.2905	-60.22339
0.291	-40.48462
0.2915	-14.80408
0.292	10.87646
0.2925	25.98267
0.293	21.85364
0.2935	23.36426
0.294	23.8678
0.2945	23.26355
0.295	14.40125
0.2955	10.87646
0.296	4.02832
0.2965	3.22266
0.297	8.15735
0.2975	18.12744
0.298	15.71045
0.2985	10.27222
0.299	11.07788
0.2995	15.00549
0.3	18.63098
0.3005	33.43506
0.301	40.78674
0.3015	45.3186
0.302	48.74268
0.3025	47.93701
0.303	49.44763
0.3035	35.75134
0.304	20.1416
0.3045	11.88354
0.305	3.12195
0.3055	-12.99133
0.306	-25.07629
0.3065	-30.71594
0.307	-47.13135
0.3075	-54.68445
0.308	-73.71826
0.3085	-74.02039
0.309	-76.23596
0.3095	-72.61047
0.31	-65.05737
0.3105	-57.70569
0.311	-49.74976
0.3115	-41.39099
0.312	-27.49329
0.3125	-9.66797
0.313	-0.40283
0.3135	14.30054
0.314	26.18408
0.3145	33.13293
0.315	56.90002
0.3155	63.54675
0.316	71.50269
0.3165	68.68286
0.317	65.3595
0.3175	64.95667
0.318	59.71985
0.3185	53.57666
0.319	37.36267
0.3195	33.03223
0.32	29.91028
0.3205	20.34302
0.321	5.43823
0.3215	-0.50354
0.322	2.31628
0.3225	-9.26514
0.323	-12.68921
0.3235	-14.09912
0.324	-16.11328
0.3245	-14.70337
0.325	-3.42407
0.3255	-6.94885
0.326	10.0708
0.3265	35.54993
0.327	50.95825
0.3275	48.54126
0.328	47.8363
0.3285	49.34692
0.329	42.7002
0.3295	35.44922
0.33	27.99683
0.3305	23.46497
0.331	20.84656
0.3315	10.47363
0.332	0.40283
0.3325	-8.8623
0.333	-11.78284
0.3335	-21.04797
0.334	-26.48621
0.3345	-27.19116
0.335	-22.45789
0.3355	-20.04089
0.336	-20.34302
0.3365	-13.59558
0.337	-5.94177
0.3375	-6.84814
0.338	-8.15735
0.3385	-6.04248
0.339	-0.50354
0.3395	3.22266
0.34	4.02832
0.3405	6.44531
0.341	12.38708
0.3415	17.12036
0.342	19.73877
0.3425	25.177
0.343	29.70886
0.3435	37.36267
0.344	46.32568
0.3445	37.66479
0.345	40.58533
0.3455	40.2832
0.346	52.97241
0.3465	68.28003
0.347	63.04321
0.3475	70.29419
0.348	93.65845
0.3485	97.98889
0.349	84.59473
0.3495	72.81189
0.35	58.00781
0.3505	41.79382
0.351	17.52319
0.3515	-3.42407
0.352	-23.46497
0.3525	-44.81506
0.353	-60.22339
0.3535	-74.2218
0.354	-74.52393
0.3545	-75.22888
0.355	-75.93384
0.3555	-72.40906
0.356	-67.57507
0.3565	-62.43896
0.357	-54.28162
0.3575	-46.02356
0.358	-41.79382
0.3585	-34.74426
0.359	-23.36426
0.3595	-13.39417
0.36	-2.92053
0.3605	-6.14319
0.361	-5.0354
0.3615	-0.40283
0.362	-6.74744
0.3625	1.51062
0.363	2.61841
0.3635	9.66797
0.364	7.5531
0.3645	17.72461
0.365	13.99841
0.3655	17.32178
0.366	9.36584
0.3665	8.8623
0.367	9.16443
0.3675	6.14319
0.368	7.35168
0.3685	13.49487
0.369	5.0354
0.3695	-0.80566
0.37	-0.10071
0.3705	-6.14319
0.371	-0.80566
0.3715	7.04956
0.372	13.59558
0.3725	14.30054
0.373	18.93311
0.3735	29.91028
0.374	33.03223
0.3745	37.16125
0.375	45.2179
0.3755	52.8717
0.376	56.29578
0.3765	54.0802
0.377	62.64038
0.3775	69.58923
0.378	70.99915
0.3785	75.73242
0.379	81.57349
0.3795	89.22729
0.38	82.07703
0.3805	65.76233
0.381	53.57666
0.3815	42.7002
0.382	41.4917
0.3825	35.2478
0.383	24.97559
0.3835	4.83398
0.384	-11.78284
0.3845	-29.80957
0.385	-36.15417
0.3855	-47.8363
0.386	-48.44055
0.3865	-53.17383
0.387	-51.5625
0.3875	-56.39648
0.388	-49.54834
0.3885	-56.69861
0.389	-52.26746
0.3895	-50.45471
0.39	-49.14551
0.3905	-50.65613
0.391	-48.64197
0.3915	-36.65771
0.392	-31.82373
0.3925	-32.02515
0.393	-21.3501
0.3935	-12.38708
0.394	-6.3446
0.3945	-3.12195
0.395	5.53894
0.3955	6.04248
0.396	7.45239
0.3965	7.04956
0.397	5.53894
0.3975	3.52478
0.398	4.53186
0.3985	2.21558
0.399	-5.74036
0.3995	2.11487
0.4	6.2439
0.4005	8.8623
0.401	30.01099
0.4015	50.354
0.402	65.15808
0.4025	68.48145
0.403	70.79773
0.4035	60.3241
0.404	54.18091
0.4045	42.49878
0.405	28.9032
0.4055	16.71753
0.406	5.13611
0.4065	-3.62549
0.407	-9.36584
0.4075	-12.18567
0.408	-16.21399
0.4085	-12.08496
0.409	-14.50195
0.4095	-16.01257
0.41	-14.19983
0.4105	2.31628
0.411	21.75293
0.4115	34.94568
0.412	39.07471
0.4125	33.9386
0.413	27.09045
0.4135	25.37842
0.414	17.52319
0.4145	12.38708
0.415	14.70337
0.4155	8.8623
0.416	2.31628
0.4165	2.11487
0.417	-0.90637
0.4175	-5.84106
0.418	-18.53027
0.4185	-24.27063
0.419	-26.08337
0.4195	-29.00391
0.42	-27.29187
0.4205	-32.12585
0.421	-27.59399
0.4215	-31.72302
0.422	-18.22815
0.4225	5.84106
0.423	29.30603
0.4235	37.96692
0.424	45.11719
0.4245	47.33276
0.425	44.61365
0.4255	36.4563
0.426	31.82373
0.4265	29.91028
0.427	29.50745
0.4275	30.71594
0.428	26.58691
0.4285	20.64514
0.429	19.33594
0.4295	33.23364
0.43	58.20923
0.4305	64.25171
0.431	58.41064
0.4315	55.79224
0.432	42.19666
0.4325	28.70178
0.433	8.25806
0.4335	-4.93469
0.434	-24.57275
0.4345	-38.36975
0.435	-50.55542
0.4355	-65.05737
0.436	-76.23596
0.4365	-78.55225
0.437	-81.37207
0.4375	-71.80481
0.438	-69.28711
0.4385	-55.89294
0.439	-43.60657
0.4395	-35.04639
0.44	-22.55859
0.4405	-12.5885
0.441	-1.3092
0.4415	5.94177
0.442	27.19116
0.4425	43.10303
0.443	46.82922
0.4435	55.08728
0.444	53.17383
0.4445	50.65613
0.445	41.39099
0.4455	39.37683
0.446	35.75134
0.4465	24.47205
0.447	14.50195
0.4475	-0.50354
0.448	-13.19275
0.4485	-21.24939
0.449	-34.54285
0.4495	-31.72302
0.45	-35.2478
0.4505	-32.22656
0.451	-29.50745
0.4515	-30.11169
0.452	-27.09045
0.4525	-26.18408
0.453	-20.24231
0.4535	-13.99841
0.454	-4.43115
0.4545	4.02832
0.455	1.3092
0.4555	6.04248
0.456	13.29346
0.4565	14.09912
0.457	19.43665
0.4575	26.88904
0.458	30.11169
0.4585	34.84497
0.459	38.36975
0.4595	61.83472
0.46	78.35083
0.4605	70.29419
0.461	56.5979
0.4615	50.45471
0.462	27.99683
0.4625	15.81116
0.463	6.64673
0.4635	-10.37292
0.464	14.80408
0.4645	73.51685
0.465	99.19739
0.4655	100.90942
0.466	94.2627
0.4665	82.9834
0.467	62.9425
0.4675	44.51294
0.468	29.91028
0.4685	8.66089
0.469	1.51062
0.4695	1.3092
0.47	-2.21558
0.4705	-4.73328
0.471	0.80566
0.4715	14.09912
0.472	21.65222
0.4725	28.39966
0.473	31.92444
0.4735	38.26904
0.474	36.25488
0.4745	29.50745
0.475	11.48071
0.4755	-7.65381
0.476	-38.36975
0.4765	-64.75525
0.477	-86.60889
0.4775	-100.30518
0.478	-109.06677
0.4785	-116.51917
0.479	-112.59155
0.4795	-108.05969
0.48	-93.35632
0.4805	-72.50977
0.481	-58.20923
0.4815	-56.79932
0.482	-45.2179
0.4825	-44.11011
0.483	-28.29895
0.4835	-13.69629
0.484	-10.17151
0.4845	-4.33044
0.485	1.71204
0.4855	-3.32336
0.486	-0.40283
0.4865	-0.80566
0.487	4.02832
0.4875	9.66797
0.488	6.54602
0.4885	5.74036
0.489	4.12903
0.4895	7.35168
0.49	6.54602
0.4905	2.11487
0.491	-2.71912
0.4915	2.11487
0.492	4.22974
0.4925	3.7262
0.493	19.83948
0.4935	31.32019
0.494	37.26196
0.4945	39.88037
0.495	39.77966
0.4955	35.2478
0.496	23.8678
0.4965	23.8678
0.497	17.22107
0.4975	11.38
0.498	5.94177
0.4985	3.12195
0.499	-3.12195
0.4995	3.92761
0.5	32.02515
0.5005	53.47595
0.501	66.87012
0.5015	68.38074
0.502	60.4248
0.5025	47.93701
0.503	47.63489
0.5035	33.13293
0.504	15.00549
0.5045	-6.04248
0.505	-15.81116
0.5055	-25.57983
0.506	-20.74585
0.5065	-22.35718
0.507	-21.45081
0.5075	-12.28638
0.508	1.81274
0.5085	18.8324
0.509	24.47205
0.5095	35.65063
0.51	48.44055
0.5105	55.08728
0.511	50.2533
0.5115	42.49878
0.512	33.33435
0.5125	27.39258
0.513	17.01965
0.5135	11.17859
0.514	-4.02832
0.5145	-24.47205
0.515	-27.29187
0.5155	-34.54285
0.516	-40.1825
0.5165	-44.51294
0.517	-52.46887
0.5175	-61.53259
0.518	-62.64038
0.5185	-55.2887
0.519	-38.36975
0.5195	-27.79541
0.52	4.02832
0.5205	50.85754
0.521	78.95508
0.5215	97.88818
0.522	116.61987
0.5225	124.37439
0.523	115.91492
0.5235	94.16199
0.524	87.51526
0.5245	79.45862
0.525	53.17383
0.5255	26.48621
0.526	-1.81274
0.5265	-26.88904
0.527	-42.19666
0.5275	-64.45312
0.528	-79.05579
0.5285	-92.85278
0.529	-89.83154
0.5295	-89.12659
0.53	-79.15649
0.5305	-62.03613
0.531	-50.05188
0.5315	-47.43347
0.532	-41.4917
0.5325	-36.95984
0.533	-33.53577
0.5335	-28.09753
0.534	-27.09045
0.5345	-23.36426
0.535	-19.83948
0.5355	-9.97009
0.536	18.02673
0.5365	74.52393
0.537	158.01086
0.5375	215.81726
0.538	225.68665
0.5385	213.09814
0.539	180.46875
0.5395	141.69617
0.54	102.01721
0.5405	49.24622
0.541	-6.54602
0.5415	-53.67737
0.542	-83.58765
0.5425	-110.47668
0.543	-116.61987
0.5435	-111.9873
0.544	-93.96057
0.5445	-72.40906
0.545	-53.77808
0.5455	-37.96692
0.546	-28.50037
0.5465	-16.21399
0.547	-10.17151
0.5475	-5.13611
0.548	15.71045
0.5485	33.23364
0.549	35.04639
0.5495	65.76233
0.55	92.44995
0.5505	96.57898
0.551	80.76782
0.5515	53.27454
0.552	30.81665
0.5525	4.83398
0.553	-28.39966
0.5535	-48.54126
0.554	-36.55701
0.5545	-34.64355
0.555	-36.15417
0.5555	-26.88904
0.556	-30.61523
0.5565	-33.13293
0.557	-32.22656
0.5575	-26.68762
0.558	-22.76001
0.5585	-18.22815
0.559	-19.03381
0.5595	-20.94727
0.56	-21.45081
0.5605	-22.76001
0.561	-30.71594
0.5615	-33.73718
0.562	-40.58533
0.5625	-24.06921
0.563	-5.53894
0.5635	10.87646
0.564	19.03381
0.5645	11.88354
0.565	-1.81274
0.5655	-12.68921
0.566	-20.34302
0.5665	-31.11877
0.567	-26.58691
0.5675	-26.58691
0.568	-14.19983
0.5685	7.75452
0.569	27.99683
0.5695	43.40515
0.57	60.3241
0.5705	75.73242
0.571	74.72534
0.5715	74.52393
0.572	69.08569
0.5725	67.67578
0.573	68.88428
0.5735	54.38232
0.574	44.21082
0.5745	26.78833
0.575	15.81116
0.5755	0.50354
0.576	-12.68921
0.5765	-23.46497
0.577	-38.974
0.5775	-41.08887
0.578	-45.01648
0.5785	-45.62073
0.579	-41.39099
0.5795	-45.41931
0.58	-38.974
0.5805	-44.21082
0.581	-39.27612
0.5815	-31.11877
0.582	-23.66638
0.5825	4.33044
0.583	27.79541
0.5835	42.90161
0.584	52.56958
0.5845	56.19507
0.585	60.4248
0.5855	57.10144
0.586	46.12427
0.5865	37.16125
0.587	32.12585
0.5875	32.32727
0.588	18.22815
0.5885	15.81116
0.589	0.80566
0.5895	-13.797
0.59	-24.57275
0.5905	-32.22656
0.591	-36.4563
0.5915	-39.07471
0.592	-36.25488
0.5925	-34.74426
0.593	-33.63647
0.5935	-18.8324
0.594	-18.63098
0.5945	8.66089
0.595	36.25488
0.5955	64.95667
0.596	70.3949
0.5965	64.05029
0.597	54.48303
0.5975	44.11011
0.598	24.06921
0.5985	4.33044
0.599	-8.8623
0.5995	-16.71753
0.6	-19.73877
0.6005	-12.78992
0.601	-8.8623
0.6015	-0.90637
0.602	8.45947
0.6025	16.61682
0.603	18.32886
0.6035	16.81824
0.604	9.56726
0.6045	12.78992
0.605	31.92444
0.6055	73.01331
0.606	97.78748
0.6065	98.79456
0.607	90.43579
0.6075	70.69702
0.608	55.49011
0.6085	31.62231
0.609	14.19983
0.6095	-10.47363
0.61	-29.60815
0.6105	-56.49719
0.611	-74.82605
0.6115	-68.78357
0.612	-24.57275
0.6125	21.45081
0.613	51.26038
0.6135	65.15808
0.614	77.04163
0.6145	78.75366
0.615	73.41614
0.6155	73.81897
0.616	78.55225
0.6165	72.40906
0.617	59.71985
0.6175	36.55701
0.618	13.39417
0.6185	-12.78992
0.619	-38.36975
0.6195	-48.94409
0.62	-2.11487
0.6205	17.52319
0.621	20.24231
0.6215	15.81116
0.622	18.73169
0.6225	29.70886
0.623	27.89612
0.6235	16.11328
0.624	-1.3092
0.6245	-18.42957
0.625	-35.44922
0.6255	-54.0802
0.626	-41.39099
0.6265	-33.33435
0.627	-32.02515
0.6275	-40.2832
0.628	-46.22498
0.6285	-55.18799
0.629	-77.04163
0.6295	-81.06995
0.63	-92.44995
0.6305	-59.1156
0.631	-9.76868
0.6315	4.43115
0.632	-2.01416
0.6325	-20.74585
0.633	-34.64355
0.6335	-45.11719
0.634	-56.09436
0.6345	-69.08569
0.635	-74.62463
0.6355	-64.25171
0.636	-54.48303
0.6365	-37.26196
0.637	-28.60107
0.6375	-26.48621
0.638	-20.1416
0.6385	-16.51611
0.639	-16.81824
0.6395	-2.81982
0.64	12.68921
0.6405	20.74585
0.641	28.19824
0.6415	32.22656
0.642	26.48621
0.6425	22.76001
0.643	16.01257
0.6435	1.3092
0.644	-2.61841
0.6445	-9.97009
0.645	-13.39417
0.6455	-8.45947
0.646	6.94885
0.6465	12.89062
0.647	14.70337
0.6475	10.97717
0.648	8.15735
0.6485	3.8269
0.649	9.97009
0.6495	16.71753
0.65	31.82373
0.6505	45.11719
0.651	51.96533
0.6515	59.61914
0.652	58.00781
0.6525	47.33276
0.653	34.44214
0.6535	24.47205
0.654	11.88354
0.6545	7.04956
0.655	-1.61133
0.6555	-11.68213
0.656	-20.04089
0.6565	-22.15576
0.657	-23.76709
0.6575	-32.62939
0.658	-34.24072
0.6585	-38.67188
0.659	-31.52161
0.6595	-28.60107
0.66	-25.78125
0.6605	-19.43665
0.661	-8.35876
0.6615	0.80566
0.662	10.47363
0.6625	34.74426
0.663	50.95825
0.6635	63.04321
0.664	55.89294
0.6645	50.85754
0.665	51.26038
0.6655	40.78674
0.666	32.62939
0.6665	30.11169
0.667	23.66638
0.6675	27.59399
0.668	51.86462
0.6685	77.04163
0.669	95.47119
0.6695	106.64978
0.67	107.55615
0.6705	103.02429
0.671	90.13367
0.6715	70.99915
0.672	58.30994
0.6725	48.23914
0.673	33.03223
0.6735	17.42249
0.674	-0.40283
0.6745	-20.74585
0.675	-32.83081
0.6755	-50.75684
0.676	-54.58374
0.6765	-62.33826
0.677	-61.23047
0.6775	-53.57666
0.678	-48.33984
0.6785	-42.8009
0.679	-38.87329
0.6795	-37.36267
0.68	-32.93152
0.6805	-33.63647
0.681	-25.98267
0.6815	-19.73877
0.682	48.94409
0.6825	134.04236
0.683	169.89441
0.6835	178.45459
0.684	176.44043
0.6845	206.35071
0.685	252.67639
0.6855	267.27905
0.686	242.40417
0.6865	173.01636
0.687	107.95898
0.6875	38.57117
0.688	-22.96143
0.6885	-86.20605
0.689	-130.01404
0.6895	-155.69458
0.69	-166.87317
0.6905	-157.2052
0.691	-134.94873
0.6915	-77.948
0.692	-4.12903
0.6925	34.94568
0.693	71.20056
0.6935	86.50818
0.694	78.65295
0.6945	53.97949
0.695	13.89771
0.6955	-19.13452
0.696	-47.93701
0.6965	-68.48145
0.697	-116.41846
0.6975	-162.44202
0.698	-188.82751
0.6985	-198.09265
0.699	-195.67566
0.6995	-183.18787
0.7	-119.03687
0.7005	-22.15576
0.701	45.41931
0.7015	98.49243
0.702	153.98254
0.7025	187.61902
0.703	179.05884
0.7035	140.68909
0.704	100.00305
0.7045	55.89294
0.705	16.71753
0.7055	-15.1062
0.706	-44.81506
0.7065	-69.68994
0.707	-103.52783
0.7075	-139.07776
0.708	-157.91016
0.7085	-172.21069
0.709	-180.97229
0.7095	-175.93689
0.71	-172.71423
0.7105	-150.65918
0.711	-127.89917
0.7115	-99.19739
0.712	-58.61206
0.7125	1.3092
0.713	39.27612
0.7135	53.07312
0.714	92.95349
0.7145	133.94165
0.715	157.50732
0.7155	176.0376
0.716	177.64893
0.7165	172.41211
0.717	170.39795
0.7175	168.08167
0.718	166.77246
0.7185	155.59387
0.719	131.42395
0.7195	108.36182
0.72	70.89844
0.7205	36.4563
0.721	7.04956
0.7215	-17.82532
0.722	-53.67737
0.7225	-88.11951
0.723	-121.55457
0.7235	-120.34607
0.724	-112.99438
0.7245	-95.67261
0.725	-52.36816
0.7255	-7.95593
0.726	10.67505
0.7265	27.6947
0.727	25.68054
0.7275	16.41541
0.728	17.42249
0.7285	14.70337
0.729	-3.12195
0.7295	-25.07629
0.73	-46.22498
0.7305	-80.36499
0.731	-103.62854
0.7315	-112.18872
0.732	-119.4397
0.7325	-138.07068
0.733	-158.11157
0.7335	-162.94556
0.734	-152.47192
0.7345	-132.12891
0.735	-104.23279
0.7355	-81.06995
0.736	-58.30994
0.7365	-39.17542
0.737	-7.65381
0.7375	32.22656
0.738	101.41296
0.7385	166.57104
0.739	205.44434
0.7395	203.7323
0.74	190.13672
0.7405	161.33423
0.741	131.22253
0.7415	102.21863
0.742	78.95508
0.7425	52.56958
0.743	17.12036
0.7435	8.66089
0.744	-14.50195
0.7445	-29.40674
0.745	-55.99365
0.7455	-79.86145
0.746	-104.03137
0.7465	-113.1958
0.747	-119.74182
0.7475	-116.922
0.748	-118.63403
0.7485	-111.48376
0.749	-105.54199
0.7495	-78.65295
0.75	-61.6333
0.7505	-37.56409
0.751	-14.09912
0.7515	3.7262
0.752	17.22107
0.7525	21.3501
0.753	21.45081
0.7535	20.24231
0.754	25.177
0.7545	41.08887
0.755	51.76392
0.7555	61.43188
0.756	69.48853
0.7565	72.71118
0.757	81.47278
0.7575	86.8103
0.758	90.33508
0.7585	86.60889
0.759	91.64429
0.7595	93.75916
0.76	94.2627
0.7605	90.13367
0.761	68.58215
0.7615	58.00781
0.762	53.07312
0.7625	38.26904
0.763	22.55859
0.7635	8.8623
0.764	-1.2085
0.7645	-16.11328
0.765	-31.21948
0.7655	-41.99524
0.766	-35.85205
0.7665	-6.64673
0.767	12.08496
0.7675	54.18091
0.768	109.4696
0.7685	150.65918
0.769	182.98645
0.7695	207.35779
0.77	208.86841
0.7705	166.87317
0.771	129.5105
0.7715	91.8457
0.772	67.77649
0.7725	46.92993
0.773	25.37842
0.7735	2.71912
0.774	-24.27063
0.7745	-42.09595
0.775	-52.26746
0.7755	-68.58215
0.776	-83.08411
0.7765	-67.07153
0.777	-35.65063
0.7775	-6.74744
0.778	6.84814
0.7785	15.20691
0.779	-5.33752
0.7795	-27.49329
0.78	-66.76941
0.7805	-95.87402
0.781	-112.89368
0.7815	-107.95898
0.782	-109.87244
0.7825	-116.11633
0.783	-135.25085
0.7835	-143.4082
0.784	-146.93298
0.7845	-144.81812
0.785	-139.5813
0.7855	-112.89368
0.786	-90.93933
0.7865	-61.12976
0.787	-43.00232
0.7875	-34.64355
0.788	-20.54443
0.7885	-13.29346
0.789	-2.11487
0.7895	16.41541
0.79	32.02515
0.7905	44.51294
0.791	50.45471
0.7915	60.22339
0.792	61.83472
0.7925	61.93542
0.793	59.82056
0.7935	54.98657
0.794	76.23596
0.7945	109.87244
0.795	108.96606
0.7955	97.38464
0.796	71.09985
0.7965	55.59082
0.797	26.58691
0.7975	11.68213
0.798	23.16284
0.7985	37.36267
0.799	50.15259
0.7995	41.69312
0.8	22.25647
0.8005	-4.22974
0.801	-24.37134
0.8015	-49.74976
0.802	-71.90552
0.8025	-95.06836
0.803	-92.75208
0.8035	-43.70728
0.804	8.7616
0.8045	33.43506
0.805	45.3186
0.8055	39.67896
0.806	32.42798
0.8065	11.58142
0.807	-5.74036
0.8075	-24.57275
0.808	-45.01648
0.8085	-73.31543
0.809	-87.31384
0.8095	-81.7749
0.81	-74.92676
0.8105	-57.00073
0.811	-38.47046
0.8115	-9.66797
0.812	19.53735
0.8125	48.33984
0.813	84.19189
0.8135	102.42004
0.814	122.76306
0.8145	125.48218
0.815	123.16589
0.8155	120.84961
0.816	108.66394
0.8165	93.65845
0.817	71.60339
0.8175	36.65771
0.818	-2.01416
0.8185	-7.25098
0.819	-3.02124
0.8195	3.92761
0.82	3.52478
0.8205	2.01416
0.821	-2.71912
0.8215	10.77576
0.822	21.65222
0.8225	28.39966
0.823	52.46887
0.8235	75.93384
0.824	117.22412
0.8245	154.18396
0.825	173.11707
0.8255	212.39319
0.826	234.75037
0.8265	217.22717
0.827	193.35938
0.8275	157.40662
0.828	110.37598
0.8285	45.41931
0.829	-17.82532
0.8295	-62.74109
0.83	-108.26111
0.8305	-155.19104
0.831	-173.92273
0.8315	-177.64893
0.832	-138.17139
0.8325	-84.19189
0.833	-58.10852
0.8335	-54.28162
0.834	-48.64197
0.8345	-35.44922
0.835	-26.58691
0.8355	-23.46497
0.836	-19.23523
0.8365	14.60266
0.837	53.57666
0.8375	56.69861
0.838	36.35559
0.8385	23.96851
0.839	1.61133
0.8395	-38.26904
0.84	-73.81897
0.8405	-120.54749
0.841	-154.28467
0.8415	-176.64185
0.842	-180.36804
0.8425	-180.16663
0.843	-183.5907
0.8435	-175.33264
0.844	-166.77246
0.8445	-142.60254
0.845	-114.70642
0.8455	-76.03455
0.846	-47.33276
0.8465	-23.46497
0.847	11.68213
0.8475	51.66321
0.848	71.80481
0.8485	74.32251
0.849	69.38782
0.8495	63.64746
0.85	56.69861
0.8505	45.41931
0.851	33.63647
0.8515	17.92603
0.852	6.44531
0.8525	8.15735
0.853	3.7262
0.8535	-9.06372
0.854	-9.26514
0.8545	-7.45239
0.855	-1.81274
0.8555	11.2793
0.856	25.98267
0.8565	29.00391
0.857	38.77258
0.8575	38.974
0.858	40.58533
0.8585	39.07471
0.859	51.15967
0.8595	54.68445
0.86	59.41772
0.8605	45.92285
0.861	35.2478
0.8615	18.12744
0.862	32.02515
0.8625	34.54285
0.863	39.07471
0.8635	35.04639
0.864	35.65063
0.8645	46.5271
0.865	43.70728
0.8655	37.66479
0.866	16.61682
0.8665	-3.12195
0.867	-14.60266
0.8675	-15.81116
0.868	14.90479
0.8685	42.09595
0.869	42.39807
0.8695	20.24231
0.87	4.22974
0.8705	15.30762
0.871	50.65613
0.8715	66.56799
0.872	63.14392
0.8725	61.73401
0.873	49.74976
0.8735	26.3855
0.874	7.65381
0.8745	-24.37134
0.875	-71.60339
0.8755	-108.26111
0.876	-123.87085
0.8765	-122.96448
0.877	-109.26819
0.8775	-86.50818
0.878	-76.03455
0.8785	-68.07861
0.879	-46.92993
0.8795	-18.93311
0.88	13.69629
0.8805	21.04797
0.881	26.58691
0.8815	16.61682
0.882	-2.31628
0.8825	-1.51062
0.883	30.81665
0.8835	58.10852
0.884	65.76233
0.8845	61.33118
0.885	65.56091
0.8855	73.11401
0.886	73.71826
0.8865	65.3595
0.887	60.02197
0.8875	53.87878
0.888	42.09595
0.8885	24.16992
0.889	15.30762
0.8895	32.22656
0.89	55.59082
0.8905	93.25562
0.891	125.48218
0.8915	144.41528
0.892	145.62378
0.8925	138.17139
0.893	128.70483
0.8935	117.62695
0.894	100.6073
0.8945	66.26587
0.895	33.03223
0.8955	-3.22266
0.896	-44.31152
0.8965	-74.72534
0.897	-97.28394
0.8975	-118.02979
0.898	-115.7135
0.8985	-112.59155
0.899	-114.4043
0.8995	-115.91492
0.9	-94.06128
0.9005	-68.38074
0.901	-53.67737
0.9015	-34.64355
0.902	-21.14868
0.9025	-1.71204
0.903	11.07788
0.9035	25.177
0.904	26.18408
0.9045	26.98975
0.905	20.54443
0.9055	16.91895
0.906	21.65222
0.9065	22.6593
0.907	9.46655
0.9075	-7.15027
0.908	-14.60266
0.9085	-28.09753
0.909	-30.51453
0.9095	-36.05347
0.91	-42.8009
0.9105	-41.39099
0.911	-38.16833
0.9115	-37.46338
0.912	-28.70178
0.9125	-13.69629
0.913	-9.97009
0.9135	-1.61133
0.914	3.7262
0.9145	1.51062
0.915	3.92761
0.9155	2.92053
0.916	3.8269
0.9165	2.11487
0.917	5.23682
0.9175	-2.41699
0.918	-7.75452
0.9185	-4.83398
0.919	-9.06372
0.9195	-9.36584
0.92	1.3092
0.9205	8.66089
0.921	19.13452
0.9215	25.78125
0.922	35.65063
0.9225	52.771
0.923	57.9071
0.9235	65.56091
0.924	62.74109
0.9245	61.83472
0.925	65.46021
0.9255	65.56091
0.926	54.78516
0.9265	46.62781
0.927	35.65063
0.9275	30.41382
0.928	10.67505
0.9285	9.56726
0.929	22.25647
0.9295	22.45789
0.93	26.08337
0.9305	33.43506
0.931	16.91895
0.9315	-17.72461
0.932	-37.7655
0.9325	-37.26196
0.933	-37.26196
0.9335	-38.974
0.934	-35.75134
0.9345	-36.4563
0.935	-36.05347
0.9355	-36.05347
0.936	-35.95276
0.9365	-30.81665
0.937	-23.8678
0.9375	-6.54602
0.938	6.04248
0.9385	23.96851
0.939	44.31152
0.9395	57.40356
0.94	59.21631
0.9405	73.21472
0.941	83.48694
0.9415	98.49243
0.942	97.48535
0.9425	101.31226
0.943	82.68127
0.9435	68.28003
0.944	52.56958
0.9445	36.85913
0.945	7.85522
0.9455	-21.14868
0.946	-43.20374
0.9465	-58.10852
0.947	-70.29419
0.9475	-71.30127
0.948	-85.60181
0.9485	-96.37756
0.949	-95.67261
0.9495	-92.04712
0.95	-71.09985
0.9505	-54.18091
0.951	-46.22498
0.9515	-37.46338
0.952	-24.47205
0.9525	-5.53894
0.953	8.25806
0.9535	46.82922
0.954	82.9834
0.9545	76.23596
0.955	65.56091
0.9555	45.01648
0.956	3.32336
0.9565	-39.17542
0.957	-53.47595
0.9575	-70.3949
0.958	-74.12109
0.9585	-85.29968
0.959	-77.948
0.9595	-65.05737
0.96	-46.42639
0.9605	-25.27771
0.961	-6.64673
0.9615	5.33752
0.962	22.25647
0.9625	26.28479
0.963	33.83789
0.9635	35.85205
0.964	30.31311
0.9645	21.24939
0.965	27.09045
0.9655	39.17542
0.966	43.10303
0.9665	32.32727
0.967	33.03223
0.9675	24.87488
0.968	28.9032
0.9685	30.91736
0.969	29.91028
0.9695	27.6947
0.97	22.6593
0.9705	9.66797
0.971	9.26514
0.9715	9.46655
0.972	20.24231
0.9725	27.99683
0.973	33.83789
0.9735	38.974
0.974	42.8009
0.9745	44.61365
0.975	37.7655
0.9755	26.78833
0.976	29.00391
0.9765	20.34302
0.977	21.45081
0.9775	31.82373
0.978	37.26196
0.9785	72.61047
0.979	107.95898
0.9795	118.53333
0.98	110.87952
0.9805	111.8866
0.981	122.25952
0.9815	119.03687
0.982	94.86694
0.9825	69.89136
0.983	48.54126
0.9835	28.19824
0.984	4.12903
0.9845	-20.24231
0.985	-49.74976
0.9855	-61.6333
0.986	-70.69702
0.9865	-63.14392
0.987	-55.2887
0.9875	-49.44763
0.988	-45.41931
0.9885	-51.15967
0.989	-74.12109
0.9895	-90.83862
0.99	-100.30518
0.9905	-106.14624
0.991	-96.47827
0.9915	-88.0188
0.992	-75.4303
0.9925	-62.33826
0.993	-40.38391
0.9935	-21.3501
0.994	-7.15027
0.9945	8.25806
0.995	19.23523
0.9955	32.62939
0.996	44.0094
0.9965	50.75684
0.997	48.23914
0.9975	36.35559
0.998	27.89612
0.9985	28.80249
0.999	26.08337
0.9995	23.46497
1	15.20691
1.0005	4.12903
1.001	-2.61841
1.0015	-10.47363
1.002	-10.27222
1.0025	-16.71753
1.003	-21.45081
1.0035	-25.88196
1.004	-30.81665
1.0045	-25.37842
1.005	-23.66638
1.0055	-16.21399
1.006	-11.38
1.0065	-4.12903
1.007	-5.0354
1.0075	-6.54602
1.008	4.93469
1.0085	-5.13611
1.009	-6.14319
1.0095	-9.56726
1.01	-12.08496
1.0105	-7.15027
1.011	-19.33594
1.0115	-12.48779
1.012	-12.89062
1.0125	-14.40125
1.013	-14.50195
1.0135	-3.02124
1.014	10.27222
1.0145	13.59558
1.015	17.22107
1.0155	14.80408
1.016	22.86072
1.0165	33.9386
1.017	44.11011
1.0175	48.54126
1.018	47.93701
1.0185	50.05188
1.019	47.63489
1.0195	38.87329
1.02	32.62939
1.0205	30.41382
1.021	17.72461
1.0215	0.10071
1.022	-16.81824
1.0225	-29.40674
1.023	-40.68604
1.0235	-32.62939
1.024	-39.37683
1.0245	-38.974
1.025	-43.50586
1.0255	-42.19666
1.026	-36.85913
1.0265	-32.22656
1.027	-31.92444
1.0275	-29.91028
1.028	-33.83789
1.0285	-33.53577
1.029	-24.57275
1.0295	-14.50195
1.03	-4.02832
1.0305	9.06372
1.031	23.16284
1.0315	40.98816
1.032	68.38074
1.0325	83.28552
1.033	86.30676
1.0335	79.76074
1.034	72.40906
1.0345	64.05029
1.035	56.5979
1.0355	67.07153
1.036	84.79614
1.0365	84.89685
1.037	80.56641
1.0375	76.13525
1.038	74.92676
1.0385	71.80481
1.039	63.24463
1.0395	64.25171
1.04	71.40198
1.0405	71.20056
1.041	73.01331
1.0415	70.29419
1.042	71.09985
1.0425	59.61914
1.043	39.07471
1.0435	4.33044
1.044	-13.49487
1.0445	-27.59399
1.045	-58.71277
1.0455	-85.5011
1.046	-88.62305
1.0465	-91.94641
1.047	-93.25562
1.0475	-83.38623
1.048	-64.35242
1.0485	-50.05188
1.049	-53.07312
1.0495	-60.02197
1.05	-67.17224
1.0505	-59.82056
1.051	-56.19507
1.0515	-45.01648
1.052	-40.78674
1.0525	-32.83081
1.053	-32.22656
1.0535	-19.53735
1.054	-10.57434
1.0545	-6.04248
1.055	-3.52478
1.0555	-1.10779
1.056	-0.70496
1.0565	-1.91345
1.057	-5.13611
1.0575	0.40283
1.058	-2.61841
1.0585	1.91345
1.059	8.56018
1.0595	9.86938
1.06	12.5885
1.0605	0.70496
1.061	5.84106
1.0615	6.04248
1.062	13.69629
1.0625	19.23523
1.063	23.36426
1.0635	25.78125
1.064	26.88904
1.0645	31.92444
1.065	32.22656
1.0655	31.11877
1.066	26.3855
1.0665	28.60107
1.067	19.03381
1.0675	24.77417
1.068	35.34851
1.0685	38.77258
1.069	40.08179
1.0695	27.79541
1.07	12.28638
1.0705	6.04248
1.071	2.21558
1.0715	3.52478
1.072	5.13611
1.0725	10.77576
1.073	5.63965
1.0735	4.33044
1.074	2.11487
1.0745	0.20142
1.075	0.60425
1.0755	-7.25098
1.076	-19.94019
1.0765	-27.19116
1.077	-34.94568
1.0775	-36.55701
1.078	-36.85913
1.0785	-33.63647
1.079	-34.54285
1.0795	-32.02515
1.08	-27.49329
1.0805	-21.3501
1.081	-15.1062
1.0815	-14.80408
1.082	-10.57434
1.0825	-4.22974
1.083	-7.95593
1.0835	-8.25806
1.084	-9.97009
1.0845	4.22974
1.085	19.33594
1.0855	32.32727
1.086	35.95276
1.0865	51.5625
1.087	58.41064
1.0875	57.20215
1.088	63.24463
1.0885	59.92126
1.089	50.45471
1.0895	40.08179
1.09	39.88037
1.0905	35.54993
1.091	29.20532
1.0915	31.11877
1.092	20.44373
1.0925	20.24231
1.093	6.74744
1.0935	3.7262
1.094	10.67505
1.0945	10.37292
1.095	7.04956
1.0955	6.04248
1.096	-1.00708
1.0965	3.42407
1.097	4.73328
1.0975	-0.40283
1.098	-9.76868
1.0985	-15.50903
1.099	-20.34302
1.0995	-31.52161
1.1	-42.39807
1.1005	-42.59949
1.101	-38.26904
1.1015	-28.70178
1.102	-23.76709
1.1025	-16.01257
1.103	-9.66797
1.1035	4.33044
1.104	15.60974
1.1045	6.54602
1.105	1.00708
1.1055	-4.12903
1.106	-12.5885
1.1065	-11.48071
1.107	-14.19983
1.1075	-2.92053
1.108	-4.63257
1.1085	-3.7262
1.109	-2.61841
1.1095	-1.71204
1.11	0.80566
1.1105	0.30212
1.111	10.77576
1.1115	10.17151
1.112	9.46655
1.1125	12.38708
1.113	0.20142
1.1135	2.61841
1.114	2.71912
1.1145	6.74744
1.115	8.7616
1.1155	10.77576
1.116	38.16833
1.1165	45.41931
1.117	36.75842
1.1175	32.32727
1.118	20.34302
1.1185	22.45789
1.119	19.03381
1.1195	27.09045
1.12	12.99133
1.1205	4.73328
1.121	-5.13611
1.1215	-11.17859
1.122	-9.66797
1.1225	-8.15735
1.123	-1.71204
1.1235	-5.94177
1.124	-0.70496
1.1245	1.10779
1.125	-2.21558
1.1255	13.89771
1.126	22.45789
1.1265	23.8678
1.127	27.39258
1.1275	34.64355
1.128	41.18958
1.1285	54.28162
1.129	71.09985
1.1295	82.68127
1.13	89.12659
1.1305	98.99597
1.131	94.56482
1.1315	74.92676
1.132	55.2887
1.1325	35.44922
1.133	24.77417
1.1335	6.44531
1.134	-10.67505
1.1345	-16.21399
1.135	-2.71912
1.1355	4.33044
1.136	5.0354
1.1365	-4.93469
1.137	-18.8324
1.1375	-30.31311
1.138	-45.82214
1.1385	-54.98657
1.139	-66.16516
1.1395	-75.73242
1.14	-60.72693
1.1405	-37.16125
1.141	-16.81824
1.1415	-8.56018
1.142	2.61841
1.1425	1.91345
1.143	-1.71204
1.1435	-6.94885
1.144	-6.64673
1.1445	0.50354
1.145	-5.23682
1.1455	-16.91895
1.146	-15.1062
1.1465	-11.2793
1.147	-9.46655
1.1475	-5.94177
1.148	1.81274
1.1485	-0.10071
1.149	9.26514
1.1495	7.85522
1.15	9.46655
1.1505	11.2793
1.151	13.09204
1.1515	6.54602
1.152	5.43823
1.1525	3.02124
1.153	-4.02832
1.1535	-9.26514
1.154	-9.86938
1.1545	-5.33752
1.155	-4.22974
1.1555	1.71204
1.156	-3.12195
1.1565	18.22815
1.157	22.96143
1.1575	31.92444
1.158	27.19116
1.1585	30.2124
1.159	33.23364
1.1595	30.31311
1.16	35.14709
1.1605	39.47754
1.161	40.48462
1.1615	39.07471
1.162	26.48621
1.1625	16.61682
1.163	5.0354
1.1635	-5.84106
1.164	-5.84106
1.1645	9.97009
1.165	16.51611
1.1655	23.16284
1.166	28.09753
1.1665	37.46338
1.167	45.82214
1.1675	54.38232
1.168	60.82764
1.1685	57.50427
1.169	28.60107
1.1695	12.78992
1.17	-2.31628
1.1705	-20.44373
1.171	-43.90869
1.1715	-61.02905
1.172	-81.27136
1.1725	-103.82996
1.173	-104.4342
1.1735	-98.49243
1.174	-87.51526
1.1745	-80.36499
1.175	-73.11401
1.1755	-58.30994
1.176	-43.70728
1.1765	-35.14709
1.177	-30.01099
1.1775	-27.99683
1.178	-21.65222
1.1785	-9.46655
1.179	-3.92761
1.1795	-0.70496
1.18	-5.13611
1.1805	-1.71204
1.181	-4.43115
1.1815	-7.25098
1.182	-0.20142
1.1825	17.01965
1.183	15.40833
1.1835	24.06921
1.184	18.93311
1.1845	12.38708
1.185	1.71204
1.1855	7.5531
1.186	14.90479
1.1865	22.86072
1.187	21.3501
1.1875	21.45081
1.188	19.43665
1.1885	18.93311
1.189	22.76001
1.1895	23.36426
1.19	39.67896
1.1905	41.79382
1.191	40.38391
1.1915	33.13293
1.192	36.65771
1.1925	32.83081
1.193	28.9032
1.1935	27.19116
1.194	21.14868
1.1945	14.09912
1.195	14.90479
1.1955	17.72461
1.196	15.60974
1.1965	14.60266
1.197	11.88354
1.1975	6.2439
1.198	2.41699
1.1985	5.43823
1.199	9.46655
1.1995	3.8269
1.2	0.90637
1.2005	0
1.201	13.89771
1.2015	18.02673
1.202	23.46497
1.2025	15.81116
1.203	18.63098
1.2035	13.09204
1.204	8.66089
1.2045	3.22266
1.205	-0.60425
1.2055	-11.2793
1.206	-12.08496
1.2065	-15.1062
1.207	-24.67346
1.2075	-26.08337
1.208	-27.49329
1.2085	-24.87488
1.209	-26.08337
1.2095	-14.09912
1.21	1.00708
1.2105	8.15735
1.211	14.70337
1.2115	13.19275
1.212	2.41699
1.2125	0.90637
1.213	-0.40283
1.2135	-1.91345
1.214	5.53894
1.2145	13.59558
1.215	6.64673
1.2155	3.32336
1.216	3.42407
1.2165	3.62549
1.217	6.14319
1.2175	18.12744
1.218	30.41382
1.2185	31.01807
1.219	39.07471
1.2195	45.52002
1.22	47.53418
1.2205	53.27454
1.221	50.15259
1.2215	45.52002
1.222	38.87329
1.2225	26.08337
1.223	15.30762
1.2235	-0.40283
1.224	-10.37292
1.2245	-7.15027
1.225	6.54602
1.2255	13.09204
1.226	29.30603
1.2265	40.38391
1.227	40.88745
1.2275	24.16992
1.228	9.26514
1.2285	-11.88354
1.229	-23.06213
1.2295	-18.42957
1.23	-15.91187
1.2305	-17.42249
1.231	-13.89771
1.2315	-24.77417
1.232	-18.93311
1.2325	-21.85364
1.233	-17.22107
1.2335	-17.72461
1.234	-20.24231
1.2345	-24.87488
1.235	-15.40833
1.2355	-2.61841
1.236	8.66089
1.2365	11.78284
1.237	15.1062
1.2375	14.60266
1.238	9.76868
1.2385	18.32886
1.239	19.43665
1.2395	35.14709
1.24	30.81665
1.2405	38.36975
1.241	46.5271
1.2415	48.03772
1.242	45.41931
1.2425	39.88037
1.243	26.28479
1.2435	12.18567
1.244	7.95593
1.2445	-9.06372
1.245	-19.94019
1.2455	-36.55701
1.246	-39.88037
1.2465	-42.19666
1.247	-44.0094
1.2475	-47.63489
1.248	-49.95117
1.2485	-44.41223
1.249	-36.65771
1.2495	-19.43665
1.25	-1.91345
1.2505	7.95593
1.251	0.90637
1.2515	8.96301
1.252	5.43823
1.2525	4.12903
1.253	-1.40991
1.2535	5.13611
1.254	-1.40991
1.2545	9.97009
1.255	26.98975
1.2555	30.31311
1.256	25.37842
1.2565	12.99133
1.257	9.56726
1.2575	0.60425
1.258	-5.94177
1.2585	-4.12903
1.259	5.13611
1.2595	9.36584
1.26	24.97559
1.2605	41.29028
1.261	60.92834
1.2615	72.9126
1.262	79.96216
1.2625	87.31384
1.263	75.63171
1.2635	83.08411
1.264	86.91101
1.2645	83.48694
1.265	80.4657
1.2655	73.81897
1.266	60.22339
1.2665	47.03064
1.267	27.19116
1.2675	-3.8269
1.268	-26.68762
1.2685	-54.98657
1.269	-61.23047
1.2695	-49.64905
1.27	-37.86621
1.2705	-33.73718
1.271	-27.89612
1.2715	-11.2793
1.272	-9.16443
1.2725	-16.01257
1.273	-17.82532
1.2735	-19.03381
1.274	-32.93152
1.2745	-48.44055
1.275	-67.27295
1.2755	-59.1156
1.276	-46.72852
1.2765	-33.43506
1.277	-34.54285
1.2775	-42.49878
1.278	-40.68604
1.2785	-33.13293
1.279	-19.33594
1.2795	-4.33044
1.28	-1.00708
1.2805	-3.12195
1.281	-3.62549
1.2815	-3.02124
1.282	5.84106
1.2825	13.29346
1.283	13.09204
1.2835	21.3501
1.284	23.26355
1.2845	31.62231
1.285	55.18799
1.2855	59.41772
1.286	42.7002
1.2865	23.16284
1.287	25.07629
1.2875	30.41382
1.288	46.22498
1.2885	62.43896
1.289	67.17224
1.2895	55.89294
1.29	45.62073
1.2905	38.16833
1.291	24.27063
1.2915	11.68213
1.292	-3.22266
1.2925	0
1.293	-9.86938
1.2935	-26.58691
1.294	-24.27063
1.2945	-37.26196
1.295	-51.96533
1.2955	-60.62622
1.296	-60.62622
1.2965	-53.47595
1.297	-36.25488
1.2975	-14.09912
1.298	28.9032
1.2985	71.40198
1.299	83.58765
1.2995	77.04163
1.3	64.55383
1.3005	59.21631
1.301	62.64038
1.3015	52.8717
1.302	36.85913
1.3025	18.93311
1.303	0.80566
1.3035	-11.48071
1.304	-18.8324
1.3045	-29.70886
1.305	-40.2832
1.3055	-41.99524
1.306	-38.47046
1.3065	-21.45081
1.307	-14.70337
1.3075	-9.86938
1.308	0
1.3085	-6.74744
1.309	-7.85522
1.3095	-10.0708
1.31	0.70496
1.3105	1.3092
1.311	2.11487
1.3115	4.12903
1.312	-0.30212
1.3125	-6.94885
1.313	-6.94885
1.3135	-7.95593
1.314	-17.32178
1.3145	-34.03931
1.315	-37.96692
1.3155	-34.74426
1.316	-24.16992
1.3165	-23.96851
1.317	-21.04797
1.3175	-17.22107
1.318	-11.98425
1.3185	1.00708
1.319	12.08496
1.3195	14.19983
1.32	14.60266
1.3205	14.19983
1.321	15.81116
1.3215	18.22815
1.322	18.73169
1.3225	16.61682
1.323	14.50195
1.3235	12.18567
1.324	11.58142
1.3245	10.27222
1.325	12.78992
1.3255	6.44531
1.326	8.56018
1.3265	9.97009
1.327	4.73328
1.3275	4.83398
1.328	4.12903
1.3285	10.0708
1.329	6.54602
1.3295	10.27222
1.33	6.44531
1.3305	3.8269
1.331	11.2793
1.3315	11.98425
1.332	10.37292
1.3325	8.15735
1.333	16.71753
1.3335	12.89062
1.334	14.80408
1.3345	17.92603
1.335	17.12036
1.3355	13.19275
1.336	11.68213
1.3365	16.71753
1.337	16.01257
1.3375	15.20691
1.338	17.6239
1.3385	17.82532
1.339	12.48779
1.3395	11.17859
1.34	5.53894
1.3405	5.0354
1.341	3.8269
1.3415	3.32336
1.342	1.40991
1.3425	0.30212
1.343	-0.40283
1.3435	-0.40283
1.344	1.2085
1.3445	-1.10779
1.345	0.40283
1.3455	4.93469
1.346	9.46655
1.3465	7.95593
1.347	10.27222
1.3475	11.17859
1.348	10.67505
1.3485	9.26514
1.349	12.89062
1.3495	15.71045
1.35	10.77576
1.3505	7.45239
1.351	7.25098
1.3515	14.50195
1.352	14.60266
1.3525	14.19983
1.353	16.41541
1.3535	20.34302
1.354	22.25647
1.3545	25.47913
1.355	24.47205
1.3555	37.86621
1.356	54.58374
1.3565	58.00781
1.357	47.93701
1.3575	40.98816
1.358	29.40674
1.3585	16.71753
1.359	4.43115
1.3595	-10.67505
1.36	-34.44214
1.3605	-66.6687
1.361	-90.63721
1.3615	-105.34058
1.362	-104.3335
1.3625	-97.78748
1.363	-83.38623
1.3635	-75.02747
1.364	-57.8064
1.3645	-39.07471
1.365	-31.32019
1.3655	-27.19116
1.366	-24.67346
1.3665	-38.87329
1.367	-38.47046
1.3675	-24.37134
1.368	-9.46655
1.3685	18.63098
1.369	49.34692
1.3695	71.40198
1.37	91.745
1.3705	105.34058
1.371	103.93066
1.3715	89.12659
1.372	77.84729
1.3725	76.23596
1.373	74.2218
1.3735	68.07861
1.374	52.16675
1.3745	36.65771
1.375	24.16992
1.3755	15.50903
1.376	16.21399
1.3765	19.43665
1.377	38.16833
1.3775	43.10303
1.378	32.52869
1.3785	48.44055
1.379	49.54834
1.3795	59.71985
1.38	67.8772
1.3805	89.52942
1.381	104.3335
1.3815	112.18872
1.382	120.04395
1.3825	113.09509
1.383	98.29102
1.3835	99.49951
1.384	85.09827
1.3845	46.22498
1.385	18.93311
1.3855	1.2085
1.386	-26.98975
1.3865	-86.50818
1.387	-129.81262
1.3875	-142.19971
1.388	-162.03918
1.3885	-183.89282
1.389	-195.67566
1.3895	-161.83777
1.39	-135.65369
1.3905	-103.42712
1.391	-99.90234
1.3915	-67.27295
1.392	-62.43896
1.3925	-56.69861
1.393	-47.93701
1.3935	-30.41382
1.394	-23.66638
1.3945	-7.5531
1.395	-2.11487
1.3955	-9.26514
1.396	-3.52478
1.3965	16.01257
1.397	30.61523
1.3975	36.05347
1.398	30.11169
1.3985	19.94019
1.399	11.48071
1.3995	3.12195
1.4	7.65381
1.4005	24.16992
1.401	33.53577
1.4015	26.48621
1.402	18.93311
1.4025	22.45789
1.403	17.72461
1.4035	9.76868
1.404	17.32178
1.4045	11.17859
1.405	7.85522
1.4055	5.53894
1.406	3.62549
1.4065	-3.32336
1.407	-6.3446
1.4075	-7.5531
1.408	-6.54602
1.4085	-3.8269
1.409	1.81274
1.4095	8.25806
1.41	20.24231
1.4105	27.19116
1.411	28.60107
1.4115	23.06213
1.412	23.8678
1.4125	41.39099
1.413	47.43347
1.4135	60.82764
1.414	66.6687
1.4145	68.68286
1.415	58.61206
1.4155	40.48462
1.416	33.43506
1.4165	22.76001
1.417	9.26514
1.4175	3.22266
1.418	12.08496
1.4185	9.36584
1.419	9.46655
1.4195	0.70496
1.42	-16.61682
1.4205	-29.91028
1.421	-40.08179
1.4215	-39.88037
1.422	-27.89612
1.4225	-20.54443
1.423	-15.40833
1.4235	-0.70496
1.424	15.30762
1.4245	31.82373
1.425	42.19666
1.4255	52.8717
1.426	59.31702
1.4265	63.34534
1.427	57.50427
1.4275	45.3186
1.428	35.95276
1.4285	25.88196
1.429	13.19275
1.4295	-2.81982
1.43	-8.05664
1.4305	-9.06372
1.431	-9.97009
1.4315	-16.3147
1.432	-27.09045
1.4325	-22.45789
1.433	-23.96851
1.4335	-25.88196
1.434	-30.2124
1.4345	-24.27063
1.435	-15.71045
1.4355	-7.95593
1.436	-7.75452
1.4365	-9.36584
1.437	-8.15735
1.4375	-12.5885
1.438	-3.12195
1.4385	-0.60425
1.439	0.30212
1.4395	6.84814
1.44	11.98425
1.4405	15.20691
1.441	20.94727
1.4415	22.05505
1.442	21.45081
1.4425	19.73877
1.443	17.32178
1.4435	14.60266
1.444	8.05664
1.4445	9.26514
1.445	11.98425
1.4455	2.71912
1.446	5.33752
1.4465	4.63257
1.447	10.17151
1.4475	6.84814
1.448	8.7616
1.4485	10.27222
1.449	9.66797
1.4495	11.07788
1.45	3.12195
1.4505	7.35168
1.451	0.80566
1.4515	-4.53186
1.452	-1.3092
1.4525	6.2439
1.453	14.50195
1.4535	23.06213
1.454	27.09045
1.4545	40.38391
1.455	36.55701
1.4555	34.24072
1.456	31.21948
1.4565	37.36267
1.457	32.62939
1.4575	28.70178
1.458	16.61682
1.4585	14.09912
1.459	1.51062
1.4595	2.11487
1.46	-5.0354
1.4605	-9.16443
1.461	-15.60974
1.4615	-16.11328
1.462	-24.57275
1.4625	-20.94727
1.463	-25.78125
1.4635	-24.06921
1.464	-28.50037
1.4645	-29.91028
1.465	-30.41382
1.4655	-39.67896
1.466	-68.38074
1.4665	-77.24304
1.467	-60.12268
1.4675	-25.07629
1.468	-0.70496
1.4685	16.51611
1.469	33.43506
1.4695	37.36267
1.47	16.51611
1.4705	13.69629
1.471	5.63965
1.4715	0.80566
1.472	-5.84106
1.4725	-21.24939
1.473	-36.15417
1.4735	-46.5271
1.474	-56.39648
1.4745	-56.09436
1.475	-35.2478
1.4755	-2.21558
1.476	32.7301
1.4765	38.87329
1.477	56.90002
1.4775	82.37915
1.478	87.51526
1.4785	84.89685
1.479	81.17065
1.4795	81.17065
1.48	97.18323
1.4805	114.00146
1.481	130.01404
1.4815	131.62537
1.482	118.13049
1.4825	104.13208
1.483	76.63879
1.4835	52.97241
1.484	33.33435
1.4845	14.90479
1.485	4.93469
1.4855	2.5177
1.486	1.91345
1.4865	22.05505
1.487	24.57275
1.4875	23.56567
1.488	29.30603
1.4885	29.70886
1.489	14.60266
1.4895	3.42407
1.49	-19.33594
1.4905	-39.67896
1.491	-58.10852
1.4915	-72.61047
1.492	-83.18481
1.4925	-102.52075
1.493	-110.27527
1.4935	-105.13916
1.494	-82.88269
1.4945	-53.27454
1.495	-36.35559
1.4955	3.12195
1.496	29.91028
1.4965	46.22498
1.497	57.10144
1.4975	56.5979
1.498	53.37524
1.4985	46.92993
1.499	24.67346
1.4995	9.26514
1.5	-4.53186
1.5005	-5.43823
1.501	-12.5885
1.5015	-15.60974
1.502	-28.09753
1.5025	-39.47754
1.503	-41.29028
1.5035	-39.17542
1.504	-37.56409
1.5045	-33.63647
1.505	-29.10461
1.5055	-32.83081
1.506	-33.03223
1.5065	-30.41382
1.507	-33.83789
1.5075	-31.72302
1.508	-29.60815
1.5085	-19.73877
1.509	-14.30054
1.5095	-12.18567
1.51	-10.77576
1.5105	-5.23682
1.511	1.81274
1.5115	4.83398
1.512	10.27222
1.5125	8.15735
1.513	4.83398
1.5135	2.71912
1.514	2.31628
1.5145	-5.13611
1.515	-10.97717
1.5155	2.31628
1.516	14.19983
1.5165	27.19116
1.517	38.87329
1.5175	61.93542
1.518	65.15808
1.5185	66.56799
1.519	78.85437
1.5195	88.32092
1.52	82.88269
1.5205	70.29419
1.521	51.5625
1.5215	38.67188
1.522	6.64673
1.5225	-3.32336
1.523	-12.18567
1.5235	-15.81116
1.524	-9.56726
1.5245	-5.33752
1.525	-3.12195
1.5255	12.78992
1.526	17.01965
1.5265	19.23523
1.527	16.11328
1.5275	6.04248
1.528	-6.2439
1.5285	-12.78992
1.529	-20.94727
1.5295	-25.57983
1.53	-36.05347
1.5305	-43.50586
1.531	-45.52002
1.5315	-23.56567
1.532	-2.11487
1.5325	8.35876
1.533	12.5885
1.5335	17.92603
1.534	9.66797
1.5345	1.81274
1.535	11.98425
1.5355	18.22815
1.536	16.51611
1.5365	21.3501
1.537	37.46338
1.5375	38.16833
1.538	42.29736
1.5385	43.60657
1.539	44.51294
1.5395	39.07471
1.54	34.24072
1.5405	31.52161
1.541	34.44214
1.5415	16.01257
1.542	7.04956
1.5425	-5.53894
1.543	-12.28638
1.5435	-16.3147
1.544	-16.01257
1.5445	-22.25647
1.545	-30.81665
1.5455	-30.41382
1.546	-24.77417
1.5465	-13.19275
1.547	-16.81824
1.5475	-18.93311
1.548	-12.08496
1.5485	-3.12195
1.549	0.30212
1.5495	-1.10779
1.55	-1.81274
1.5505	12.68921
1.551	30.01099
1.5515	34.94568
1.552	44.91577
1.5525	39.07471
1.553	37.16125
1.5535	44.41223
1.554	53.47595
1.5545	47.93701
1.555	42.7002
1.5555	30.2124
1.556	12.78992
1.5565	5.33752
1.557	-5.0354
1.5575	-11.38
1.558	-25.98267
1.5585	-39.57825
1.559	-32.42798
1.5595	-15.60974
1.56	-9.46655
1.5605	-7.95593
1.561	-12.28638
1.5615	-23.46497
1.562	-29.70886
1.5625	-16.21399
1.563	-19.83948
1.5635	-20.64514
1.564	-14.50195
1.5645	-2.92053
1.565	-5.63965
1.5655	5.84106
1.566	6.14319
1.5665	7.45239
1.567	7.95593
1.5675	6.84814
1.568	10.77576
1.5685	16.61682
1.569	14.70337
1.5695	6.2439
1.57	11.2793
1.5705	14.09912
1.571	29.00391
1.5715	40.78674
1.572	69.79065
1.5725	95.26978
1.573	98.39172
1.5735	105.54199
1.574	110.98022
1.5745	112.59155
1.575	102.31934
1.5755	89.02588
1.576	67.8772
1.5765	44.51294
1.577	12.08496
1.5775	-23.8678
1.578	-49.85046
1.5785	-76.23596
1.579	-76.13525
1.5795	-76.7395
1.58	-77.64587
1.5805	-81.87561
1.581	-82.27844
1.5815	-80.66711
1.582	-60.4248
1.5825	-37.56409
1.583	-23.8678
1.5835	-23.66638
1.584	-21.24939
1.5845	-17.82532
1.585	-20.34302
1.5855	-18.63098
1.586	-15.40833
1.5865	-8.25806
1.587	-7.25098
1.5875	2.21558
1.588	4.93469
1.5885	12.18567
1.589	12.68921
1.5895	10.57434
1.59	-0.20142
1.5905	-4.12903
1.591	-4.73328
1.5915	-4.53186
1.592	-2.21558
1.5925	5.0354
1.593	-6.74744
1.5935	-18.02673
1.594	-15.20691
1.5945	-19.03381
1.595	-12.5885
1.5955	-14.90479
1.596	-4.02832
1.5965	8.8623
1.597	27.99683
1.5975	35.14709
1.598	41.89453
1.5985	39.98108
1.599	33.43506
1.5995	31.72302
1.6	29.40674
1.6005	28.29895
1.601	21.55151
1.6015	26.78833
1.602	29.10461
1.6025	25.47913
1.603	19.63806
1.6035	11.98425
1.604	2.92053
1.6045	9.36584
1.605	20.64514
1.6055	13.89771
1.606	4.73328
1.6065	10.77576
1.607	7.45239
1.6075	9.76868
1.608	8.8623
1.6085	4.63257
1.609	14.60266
1.6095	20.44373
1.61	22.6593
1.6105	6.2439
1.611	-8.8623
1.6115	-19.33594
1.612	-26.28479
1.6125	-28.9032
1.613	-20.54443
1.6135	-7.35168
1.614	11.07788
1.6145	27.59399
1.615	32.12585
1.6155	38.974
1.616	28.70178
1.6165	16.91895
1.617	11.07788
1.6175	12.18567
1.618	18.63098
1.6185	11.17859
1.619	9.56726
1.6195	-5.13611
1.62	-11.88354
1.6205	-20.74585
1.621	-22.45789
1.6215	-18.12744
1.622	-9.06372
1.6225	12.68921
1.623	21.75293
1.6235	18.32886
1.624	16.41541
1.6245	12.89062
1.625	14.50195
1.6255	15.50903
1.626	18.22815
1.6265	18.8324
1.627	17.92603
1.6275	2.61841
1.628	-18.12744
1.6285	-33.33435
1.629	-31.52161
1.6295	-26.28479
1.63	-19.63806
1.6305	-18.42957
1.631	-11.78284
1.6315	-8.66089
1.632	-1.10779
1.6325	-2.5177
1.633	0.30212
1.6335	-1.40991
1.634	-0.40283
1.6345	3.7262
1.635	22.25647
1.6355	13.29346
1.636	5.63965
1.6365	-6.84814
1.637	-8.45947
1.6375	-6.64673
1.638	0.30212
1.6385	0.20142
1.639	29.30603
1.6395	61.6333
1.64	77.44446
1.6405	74.32251
1.641	68.28003
1.6415	63.44604
1.642	48.13843
1.6425	46.82922
1.643	43.10303
1.6435	36.35559
1.644	26.68762
1.6445	23.46497
1.645	13.19275
1.6455	2.92053
1.646	-17.01965
1.6465	-48.74268
1.647	-59.01489
1.6475	-63.14392
1.648	-44.61365
1.6485	-31.21948
1.649	-19.13452
1.6495	-10.0708
1.65	-4.73328
1.6505	5.33752
1.651	9.06372
1.6515	4.53186
1.652	10.37292
1.6525	13.59558
1.653	13.19275
1.6535	13.39417
1.654	6.44531
1.6545	6.54602
1.655	11.88354
1.6555	16.81824
1.656	21.04797
1.6565	35.04639
1.657	43.20374
1.6575	40.38391
1.658	36.75842
1.6585	33.53577
1.659	22.15576
1.6595	15.1062
1.66	-3.62549
1.6605	-8.8623
1.661	-8.45947
1.6615	-19.03381
1.662	-18.32886
1.6625	-12.08496
1.663	3.02124
1.6635	6.04248
1.664	9.26514
1.6645	27.29187
1.665	22.86072
1.6655	13.39417
1.666	0.10071
1.6665	-4.93469
1.667	-9.66797
1.6675	-10.97717
1.668	-7.5531
1.6685	-17.52319
1.669	-17.42249
1.6695	-9.56726
1.67	-17.92603
1.6705	-11.48071
1.671	-2.41699
1.6715	-8.7616
1.672	-6.44531
1.6725	1.40991
1.673	-5.94177
1.6735	-6.94885
1.674	-5.53894
1.6745	-5.13611
1.675	1.10779
1.6755	-3.7262
1.676	3.52478
1.6765	0.80566
1.677	5.0354
1.6775	-0.40283
1.678	8.15735
1.6785	6.74744
1.679	12.68921
1.6795	12.08496
1.68	18.02673
1.6805	27.49329
1.681	22.25647
1.6815	25.07629
1.682	21.95435
1.6825	27.79541
1.683	20.94727
1.6835	7.75452
1.684	-6.3446
1.6845	-20.64514
1.685	-31.11877
1.6855	-33.63647
1.686	-22.6593
1.6865	8.15735
1.687	44.11011
1.6875	70.59631
1.688	81.47278
1.6885	101.61438
1.689	107.25403
1.6895	110.87952
1.69	105.54199
1.6905	84.99756
1.691	67.57507
1.6915	52.16675
1.692	22.55859
1.6925	-13.797
1.693	-54.28162
1.6935	-101.31226
1.694	-119.54041
1.6945	-132.63245
1.695	-129.40979
1.6955	-126.48926
1.696	-108.96606
1.6965	-99.2981
1.697	-90.13367
1.6975	-96.98181
1.698	-103.52783
1.6985	-90.83862
1.699	-81.57349
1.6995	-75.63171
1.7	-57.30286
1.7005	-26.58691
1.701	0.50354
1.7015	32.02515
1.702	50.55542
1.7025	73.91968
1.703	100.10376
1.7035	116.01562
1.704	100.80872
1.7045	92.24854
1.705	77.84729
1.7055	57.00073
1.706	51.86462
1.7065	38.77258
1.707	27.29187
1.7075	18.42957
1.708	15.40833
1.7085	37.56409
1.709	43.90869
1.7095	32.02515
1.71	17.32178
1.7105	2.5177
1.711	-0.60425
1.7115	18.73169
1.712	49.14551
1.7125	51.66321
1.713	63.84888
1.7135	74.42322
1.714	87.61597
1.7145	91.745
1.715	90.43579
1.7155	77.34375
1.716	62.33826
1.7165	47.53418
1.717	36.05347
1.7175	26.98975
1.718	7.65381
1.7185	-8.96301
1.719	-23.96851
1.7195	-13.797
1.72	-3.12195
1.7205	-11.07788
1.721	-31.4209
1.7215	-41.08887
1.722	-46.32568
1.7225	-41.4917
1.723	-47.53418
1.7235	-46.82922
1.724	-50.55542
1.7245	-34.03931
1.725	-7.04956
1.7255	1.71204
1.726	19.13452
1.7265	22.15576
1.727	18.8324
1.7275	13.19275
1.728	13.69629
1.7285	19.53735
1.729	26.58691
1.7295	15.91187
1.73	12.48779
1.7305	-4.73328
1.731	-18.32886
1.7315	-41.4917
1.732	-47.23206
1.7325	-50.354
1.733	-50.55542
1.7335	-45.52002
1.734	-46.22498
1.7345	-47.53418
1.735	-42.39807
1.7355	-33.83789
1.736	-27.29187
1.7365	-17.42249
1.737	-13.19275
1.7375	2.21558
1.738	1.2085
1.7385	3.92761
1.739	10.47363
1.7395	8.7616
1.74	14.19983
1.7405	20.54443
1.741	25.47913
1.7415	25.07629
1.742	26.3855
1.7425	23.96851
1.743	14.30054
1.7435	12.89062
1.744	11.38
1.7445	11.98425
1.745	4.12903
1.7455	4.12903
1.746	-0.40283
1.7465	0.20142
1.747	-1.51062
1.7475	6.04248
1.748	6.64673
1.7485	0.10071
1.749	2.71912
1.7495	-5.33752
1.75	-6.84814
1.7505	-11.48071
1.751	-12.99133
1.7515	-13.59558
1.752	-18.63098
1.7525	-29.20532
1.753	-20.54443
1.7535	-13.89771
1.754	-18.93311
1.7545	-23.16284
1.755	-14.70337
1.7555	0.10071
1.756	9.97009
1.7565	18.73169
1.757	37.16125
1.7575	45.92285
1.758	42.39807
1.7585	42.49878
1.759	39.88037
1.7595	32.52869
1.76	27.39258
1.7605	32.42798
1.761	28.60107
1.7615	41.99524
1.762	53.57666
1.7625	44.91577
1.763	45.3186
1.7635	39.57825
1.764	47.33276
1.7645	59.41772
1.765	66.87012
1.7655	74.82605
1.766	91.04004
1.7665	100.50659
1.767	93.0542
1.7675	90.03296
1.768	85.5011
1.7685	77.04163
1.769	51.86462
1.7695	25.47913
1.77	3.12195
1.7705	-32.93152
1.771	-62.33826
1.7715	-89.73083
1.772	-107.45544
1.7725	-96.17615
1.773	-72.20764
1.7735	-43.70728
1.774	-37.36267
1.7745	-39.88037
1.775	-41.29028
1.7755	-47.13135
1.776	-52.46887
1.7765	-48.54126
1.777	-37.56409
1.7775	-28.09753
1.778	-22.15576
1.7785	-14.80408
1.779	-9.66797
1.7795	-24.87488
1.78	-50.2533
1.7805	-63.34534
1.781	-54.38232
1.7815	-40.68604
1.782	-19.63806
1.7825	4.93469
1.783	3.12195
1.7835	-6.2439
1.784	-5.53894
1.7845	-1.71204
1.785	-27.09045
1.7855	-67.8772
1.786	-82.58057
1.7865	-64.85596
1.787	-37.06055
1.7875	-20.94727
1.788	3.22266
1.7885	20.04089
1.789	45.01648
1.7895	57.20215
1.79	59.01489
1.7905	61.53259
1.791	56.90002
1.7915	59.31702
1.792	51.5625
1.7925	43.40515
1.793	32.42798
1.7935	37.66479
1.794	39.37683
1.7945	43.10303
1.795	43.00232
1.7955	36.15417
1.796	16.61682
1.7965	12.68921
1.797	10.27222
1.7975	8.8623
1.798	-1.2085
1.7985	-13.49487
1.799	-17.6239
1.7995	-6.54602
1.8	-0.70496
1.8005	2.21558
1.801	15.20691
1.8015	31.82373
1.802	43.30444
1.8025	47.7356
1.803	55.2887
1.8035	62.64038
1.804	60.62622
1.8045	63.14392
1.805	73.11401
1.8055	73.71826
1.806	62.43896
1.8065	47.13135
1.807	38.87329
1.8075	29.60815
1.808	11.48071
1.8085	-3.02124
1.809	-16.41541
1.8095	-22.6593
1.81	-22.96143
1.8105	-21.85364
1.811	-26.88904
1.8115	-22.45789
1.812	-23.46497
1.8125	-20.04089
1.813	-18.42957
1.8135	-12.38708
1.814	-5.13611
1.8145	-2.31628
1.815	2.5177
1.8155	-7.95593
1.816	-8.35876
1.8165	-15.91187
1.817	-17.42249
1.8175	-14.09912
1.818	-13.09204
1.8185	-22.25647
1.819	-24.47205
1.8195	-37.56409
1.82	-48.33984
1.8205	-51.76392
1.821	-52.16675
1.8215	-53.47595
1.822	-46.12427
1.8225	-24.77417
1.823	-3.62549
1.8235	2.81982
1.824	14.09912
1.8245	38.57117
1.825	77.04163
1.8255	92.24854
1.826	89.12659
1.8265	89.93225
1.827	73.21472
1.8275	58.10852
1.828	42.59949
1.8285	34.84497
1.829	17.52319
1.8295	2.01416
1.83	-21.55151
1.8305	-22.35718
1.831	-7.85522
1.8315	3.92761
1.832	5.63965
1.8325	6.54602
1.833	6.2439
1.8335	3.7262
1.834	7.04956
1.8345	10.27222
1.835	6.84814
1.8355	15.50903
1.836	17.42249
1.8365	12.78992
1.837	12.48779
1.8375	9.56726
1.838	3.22266
1.8385	3.7262
1.839	1.10779
1.8395	-1.00708
1.84	-2.61841
1.8405	-0.60425
1.841	-0.90637
1.8415	-0.10071
1.842	4.22974
1.8425	12.68921
1.843	17.82532
1.8435	15.20691
1.844	14.40125
1.8445	10.67505
1.845	16.51611
1.8455	27.89612
1.846	43.90869
1.8465	55.49011
1.847	79.76074
1.8475	92.75208
1.848	98.79456
1.8485	89.22729
1.849	88.32092
1.8495	70.69702
1.85	59.61914
1.8505	54.38232
1.851	44.21082
1.8515	18.93311
1.852	-13.49487
1.8525	-38.47046
1.853	-53.47595
1.8535	-62.9425
1.854	-59.21631
1.8545	-58.20923
1.855	-53.87878
1.8555	-50.85754
1.856	-62.03613
1.8565	-67.47437
1.857	-56.5979
1.8575	-45.01648
1.858	-32.42798
1.8585	-20.74585
1.859	-12.18567
1.8595	-8.35876
1.86	-4.12903
1.8605	4.43115
1.861	10.37292
1.8615	20.04089
1.862	20.1416
1.8625	10.97717
1.863	-1.00708
1.8635	-11.2793
1.864	-4.12903
1.8645	0.80566
1.865	25.98267
1.8655	44.71436
1.866	59.71985
1.8665	66.97083
1.867	74.72534
1.8675	63.04321
1.868	39.17542
1.8685	9.66797
1.869	-8.45947
1.8695	-30.71594
1.87	-40.2832
1.8705	-43.60657
1.871	-44.41223
1.8715	-42.09595
1.872	-54.48303
1.8725	-57.00073
1.873	-37.16125
1.8735	-20.1416
1.874	-1.00708
1.8745	8.96301
1.875	0.90637
1.8755	6.54602
1.876	7.5531
1.8765	6.3446
1.877	4.22974
1.8775	5.23682
1.878	8.25806
1.8785	11.38
1.879	14.30054
1.8795	8.25806
1.88	4.63257
1.8805	2.5177
1.881	-4.33044
1.8815	-2.71912
1.882	-1.51062
1.8825	3.22266
1.883	8.15735
1.8835	12.08496
1.884	23.8678
1.8845	15.60974
1.885	22.45789
1.8855	33.13293
1.886	26.08337
1.8865	26.78833
1.887	22.6593
1.8875	20.44373
1.888	16.01257
1.8885	17.6239
1.889	17.42249
1.8895	4.22974
1.89	-2.11487
1.8905	-4.53186
1.891	-10.0708
1.8915	-14.80408
1.892	-7.85522
1.8925	3.42407
1.893	8.25806
1.8935	6.84814
1.894	18.12744
1.8945	10.57434
1.895	-6.84814
1.8955	-9.16443
1.896	-18.12744
1.8965	-33.13293
1.897	-41.29028
1.8975	-30.31311
1.898	-23.66638
1.8985	-23.8678
1.899	-11.98425
1.8995	5.0354
1.9	18.32886
1.9005	29.40674
1.901	23.16284
1.9015	20.64514
1.902	19.63806
1.9025	-2.41699
1.903	-11.07788
1.9035	-9.36584
1.904	-7.04956
1.9045	0.30212
1.905	-3.02124
1.9055	-8.25806
1.906	0.50354
1.9065	-9.06372
1.907	-21.45081
1.9075	-17.01965
1.908	-16.81824
1.9085	-13.39417
1.909	-24.37134
1.9095	-44.11011
1.91	-74.42322
1.9105	-84.19189
1.911	-82.47986
1.9115	-80.16357
1.912	-71.80481
1.9125	-61.6333
1.913	-50.2533
1.9135	-41.89453
1.914	-20.64514
1.9145	9.26514
1.915	37.7655
1.9155	50.75684
1.916	56.19507
1.9165	79.86145
1.917	93.45703
1.9175	99.60022
1.918	108.96606
1.9185	112.49084
1.919	104.53491
1.9195	81.7749
1.92	73.81897
1.9205	70.99915
1.921	63.94958
1.9215	52.36816
1.922	22.6593
1.9225	0.30212
1.923	-10.67505
1.9235	-5.13611
1.924	-0.60425
1.9245	-7.45239
1.925	-8.15735
1.9255	-5.53894
1.926	0.30212
1.9265	2.11487
1.927	1.51062
1.9275	-4.33044
1.928	2.71912
1.9285	10.0708
1.929	8.7616
1.9295	9.36584
1.93	7.15027
1.9305	7.75452
1.931	11.38
1.9315	14.50195
1.932	17.6239
1.9325	7.65381
1.933	7.75452
1.9335	5.13611
1.934	4.22974
1.9345	15.60974
1.935	6.04248
1.9355	5.33752
1.936	9.86938
1.9365	13.49487
1.937	11.07788
1.9375	9.76868
1.938	4.22974
1.9385	14.09912
1.939	10.27222
1.9395	6.44531
1.94	10.97717
1.9405	12.18567
1.941	8.66089
1.9415	9.16443
1.942	8.45947
1.9425	6.14319
1.943	9.36584
1.9435	3.02124
1.944	0.20142
1.9445	4.93469
1.945	4.93469
1.9455	7.45239
1.946	8.15735
1.9465	15.00549
1.947	9.16443
1.9475	20.84656
1.948	30.91736
1.9485	35.04639
1.949	30.01099
1.9495	37.46338
1.95	41.29028
1.9505	44.21082
1.951	39.77966
1.9515	38.26904
1.952	35.04639
1.9525	19.73877
1.953	6.94885
1.9535	-9.16443
1.954	-31.11877
1.9545	-39.88037
1.955	-48.64197
1.9555	-53.47595
1.956	-49.74976
1.9565	-35.44922
1.957	-28.70178
1.9575	-33.13293
1.958	-56.5979
1.9585	-114.70642
1.959	-171.40503
1.9595	-189.53247
1.96	-183.99353
1.9605	-143.71033
1.961	-85.5011
1.9615	-14.30054
1.962	65.86304
1.9625	134.04236
1.963	181.67725
1.9635	220.44983
1.964	242.40417
1.9645	221.05408
1.965	184.69849
1.9655	146.63086
1.966	120.04395
1.9665	90.03296
1.967	52.67029
1.9675	14.90479
1.968	-17.6239
1.9685	-50.65613
1.969	-74.52393
1.9695	-78.25012
1.97	-70.3949
1.9705	-49.64905
1.971	-37.66479
1.9715	-36.85913
1.972	-43.70728
1.9725	-38.974
1.973	-17.42249
1.9735	1.81274
1.974	7.25098
1.9745	17.92603
1.975	25.07629
1.9755	26.88904
1.976	29.30603
1.9765	30.01099
1.977	33.13293
1.9775	27.59399
1.978	14.30054
1.9785	5.94177
1.979	5.63965
1.9795	4.22974
1.98	-3.92761
1.9805	-9.76868
1.981	-7.5531
1.9815	-19.73877
1.982	-19.33594
1.9825	-12.89062
1.983	-6.94885
1.9835	-6.64673
1.984	2.11487
1.9845	12.38708
1.985	20.1416
1.9855	37.26196
1.986	77.14233
1.9865	111.38306
1.987	106.44836
1.9875	101.11084
1.988	83.48694
1.9885	68.68286
1.989	39.57825
1.9895	33.63647
1.99	23.76709
1.9905	12.18567
1.991	-9.46655
1.9915	-16.71753
1.992	-19.43665
1.9925	-26.18408
1.993	-33.83789
1.9935	-35.75134
1.994	-34.14001
1.9945	-47.33276
1.995	-55.99365
1.9955	-77.14233
1.996	-86.10535
1.9965	-75.4303
1.997	-51.36108
1.9975	-22.55859
1.998	9.26514
1.9985	32.12585
1.999	38.47046
1.9995	35.85205
2	21.65222
2.0005	17.72461
2.001	9.97009
2.0015	5.0354
2.002	4.73328
2.0025	-0.70496
2.003	2.21558
2.0035	-9.97009
2.004	-21.75293
2.0045	-30.91736
2.005	-34.74426
2.0055	-23.76709
2.006	-19.43665
2.0065	-12.99133
2.007	-13.49487
2.0075	-15.91187
2.008	-14.80408
2.0085	-10.57434
2.009	-20.74585
2.0095	-11.17859
2.01	-15.91187
2.0105	-1.10779
2.011	13.29346
2.0115	29.40674
2.012	43.00232
2.0125	50.2533
2.013	55.2887
2.0135	61.23047
2.014	57.50427
2.0145	46.12427
2.015	33.53577
2.0155	25.47913
2.016	20.74585
2.0165	10.67505
2.017	1.51062
2.0175	-9.76868
2.018	-27.09045
2.0185	-31.21948
2.019	-28.09753
2.0195	-37.06055
2.02	-36.35559
2.0205	-39.57825
2.021	-49.14551
2.0215	-44.41223
2.022	-44.81506
2.0225	-41.4917
2.023	-54.18091
2.0235	-58.71277
2.024	-42.59949
2.0245	-27.39258
2.025	-15.71045
2.0255	-1.2085
2.026	24.37134
2.0265	40.68604
2.027	54.18091
2.0275	68.78357
2.028	71.20056
2.0285	52.56958
2.029	37.66479
2.0295	36.65771
2.03	31.4209
2.0305	26.68762
2.031	21.65222
2.0315	13.89771
2.032	11.17859
2.0325	9.36584
2.033	11.58142
2.0335	16.41541
2.034	28.80249
2.0345	24.27063
2.035	10.97717
2.0355	5.74036
2.036	3.12195
2.0365	0.50354
2.037	-2.81982
2.0375	-35.75134
2.038	-65.15808
2.0385	-75.12817
2.039	-68.58215
2.0395	-68.68286
2.04	-66.56799
2.0405	-57.20215
2.041	-35.75134
2.0415	-14.30054
2.042	-6.44531
2.0425	12.48779
2.043	18.12744
2.0435	17.72461
2.044	22.05505
2.0445	23.46497
2.045	34.44214
2.0455	51.36108
2.046	48.64197
2.0465	51.86462
2.047	43.90869
2.0475	45.41931
2.048	32.22656
2.0485	29.00391
2.049	43.90869
2.0495	47.8363
2.05	49.34692
2.0505	42.39807
2.051	57.20215
2.0515	66.6687
2.052	58.91418
2.0525	44.11011
2.053	32.32727
2.0535	38.57117
2.054	45.01648
2.0545	47.23206
2.055	48.54126
2.0555	35.54993
2.056	30.01099
2.0565	30.71594
2.057	28.19824
2.0575	14.40125
2.058	-4.43115
2.0585	-11.58142
2.059	-8.7616
2.0595	-7.35168
2.06	-12.5885
2.0605	-29.70886
2.061	-43.70728
2.0615	-49.85046
2.062	-32.22656
2.0625	-20.34302
2.063	-29.20532
2.0635	-36.4563
2.064	-27.49329
2.0645	-14.80408
2.065	2.92053
2.0655	23.16284
2.066	29.70886
2.0665	36.55701
2.067	52.97241
2.0675	61.83472
2.068	66.26587
2.0685	57.20215
2.069	42.29736
2.0695	25.98267
2.07	20.94727
2.0705	8.8623
2.071	-19.83948
2.0715	-39.77966
2.072	-38.77258
2.0725	-34.34143
2.073	-10.47363
2.0735	19.53735
2.074	26.88904
2.0745	28.39966
2.075	42.39807
2.0755	76.03455
2.076	97.68677
2.0765	116.61987
2.077	130.11475
2.0775	112.99438
2.078	77.64587
2.0785	47.13135
2.079	6.14319
2.0795	-31.01807
2.08	-58.61206
2.0805	-80.16357
2.081	-81.27136
2.0815	-68.98499
2.082	-52.67029
2.0825	-37.86621
2.083	-5.0354
2.0835	8.35876
2.084	1.10779
2.0845	13.49487
2.085	26.18408
2.0855	21.04797
2.086	12.48779
2.0865	12.18567
2.087	-4.83398
2.0875	-34.74426
2.088	-58.81348
2.0885	-63.94958
2.089	-46.22498
2.0895	-45.01648
2.09	-49.44763
2.0905	-54.38232
2.091	-55.49011
2.0915	-48.94409
2.092	-50.45471
2.0925	-51.76392
2.093	-53.07312
2.0935	-52.36816
2.094	-58.00781
2.0945	-39.77966
2.095	-33.43506
2.0955	-34.34143
2.096	-29.00391
2.0965	-15.71045
2.097	-3.42407
2.0975	19.53735
2.098	25.07629
2.0985	14.19983
2.099	5.53894
2.0995	-5.33752
2.1	-2.5177
2.1005	-3.12195
2.101	13.797
2.1015	25.68054
2.102	33.83789
2.1025	24.16992
2.103	21.14868
2.1035	16.01257
2.104	22.55859
2.1045	25.177
2.105	20.84656
2.1055	16.71753
2.106	14.40125
2.1065	11.78284
2.107	9.66797
2.1075	16.01257
2.108	15.1062
2.1085	13.797
2.109	16.41541
2.1095	19.53735
2.11	18.8324
2.1105	19.33594
2.111	11.2793
2.1115	16.3147
2.112	9.26514
2.1125	5.23682
2.113	3.92761
2.1135	5.13611
2.114	-1.3092
2.1145	-1.40991
2.115	0.80566
2.1155	6.14319
2.116	-1.10779
2.1165	0.20142
2.117	-4.53186
2.1175	-25.88196
2.118	-37.46338
2.1185	-42.90161
2.119	-26.48621
2.1195	-18.8324
2.12	-12.89062
2.1205	-1.00708
2.121	-2.61841
2.1215	-7.04956
2.122	-9.86938
2.1225	-3.42407
2.123	2.21558
2.1235	7.35168
2.124	13.19275
2.1245	15.91187
2.125	19.94019
2.1255	24.47205
2.126	28.50037
2.1265	47.33276
2.127	62.23755
2.1275	58.10852
2.128	41.4917
2.1285	23.26355
2.129	9.36584
2.1295	-15.81116
2.13	-52.46887
2.1305	-69.68994
2.131	-68.68286
2.1315	-58.30994
2.132	-46.12427
2.1325	-33.23364
2.133	-1.61133
2.1335	11.38
2.134	20.34302
2.1345	35.34851
2.135	47.63489
2.1355	58.41064
2.136	58.81348
2.1365	63.94958
2.137	58.91418
2.1375	45.72144
2.138	23.66638
2.1385	29.00391
2.139	41.89453
2.1395	44.0094
2.14	54.38232
2.1405	71.20056
2.141	84.99756
2.1415	93.65845
2.142	76.7395
2.1425	58.20923
2.143	32.52869
2.1435	24.16992
2.144	14.40125
2.1445	6.14319
2.145	0.70496
2.1455	-6.64673
2.146	1.3092
2.1465	-6.74744
2.147	-7.95593
2.1475	-5.63965
2.148	-1.51062
2.1485	7.95593
2.149	9.76868
2.1495	15.81116
2.15	13.09204
2.1505	23.56567
2.151	17.42249
2.1515	-26.88904
2.152	-57.9071
2.1525	-66.26587
2.153	-52.06604
2.1535	-39.17542
2.154	-17.6239
2.1545	-4.63257
2.155	18.02673
2.1555	42.59949
2.156	58.81348
2.1565	84.2926
2.157	103.52783
2.1575	94.76624
2.158	74.42322
2.1585	52.36816
2.159	30.11169
2.1595	7.04956
2.16	-12.18567
2.1605	-15.30762
2.161	-14.90479
2.1615	-47.63489
2.162	-75.93384
2.1625	-73.81897
2.163	-78.45154
2.1635	-73.41614
2.164	-73.51685
2.1645	-83.48694
2.165	-77.24304
2.1655	-73.61755
2.166	-63.34534
2.1665	-46.92993
2.167	-40.2832
2.1675	-29.70886
2.168	-33.33435
2.1685	-29.91028
2.169	-15.60974
2.1695	-3.02124
2.17	8.96301
2.1705	12.18567
2.171	16.01257
2.1715	29.00391
2.172	42.7002
2.1725	48.54126
2.173	56.69861
2.1735	58.51135
2.174	50.55542
2.1745	41.59241
2.175	34.14001
2.1755	25.47913
2.176	18.63098
2.1765	15.20691
2.177	15.20691
2.1775	9.97009
2.178	8.8623
2.1785	13.19275
2.179	9.26514
2.1795	11.88354
2.18	23.06213
2.1805	31.11877
2.181	26.98975
2.1815	29.40674
2.182	23.16284
2.1825	10.17151
2.183	25.88196
2.1835	35.95276
2.184	32.22656
2.1845	55.69153
2.185	75.63171
2.1855	100.90942
2.186	121.75598
2.1865	132.0282
2.187	121.35315
2.1875	94.2627
2.188	42.39807
2.1885	-49.95117
2.189	-114.60571
2.1895	-143.50891
2.19	-142.099
2.1905	-119.84253
2.191	-73.71826
2.1915	-27.49329
2.192	17.72461
2.1925	50.2533
2.193	71.30127
2.1935	100.20447
2.194	113.1958
2.1945	97.18323
2.195	58.91418
2.1955	19.23523
2.196	-12.78992
2.1965	-30.41382
2.197	-27.79541
2.1975	-34.34143
2.198	-48.23914
2.1985	-47.63489
2.199	-34.64355
2.1995	-14.50195
2.2	-3.02124
2.2005	-27.89612
2.201	-56.69861
2.2015	-62.9425
2.202	-52.46887
2.2025	-43.10303
2.203	-34.34143
2.2035	-28.70178
2.204	-22.35718
2.2045	-8.35876
2.205	-6.14319
2.2055	2.31628
2.206	8.45947
2.2065	13.39417
2.207	12.18567
2.2075	3.32336
2.208	-0.10071
2.2085	2.92053
2.209	2.92053
2.2095	-0.10071
2.21	-4.33044
2.2105	-2.11487
2.211	7.5531
2.2115	5.94177
2.212	6.54602
2.2125	2.11487
2.213	-6.14319
2.2135	-6.2439
2.214	-5.13611
2.2145	-1.91345
2.215	1.10779
2.2155	8.25806
2.216	7.5531
2.2165	6.54602
2.217	6.54602
2.2175	-0.60425
2.218	-0.90637
2.2185	-4.33044
2.219	-10.17151
2.2195	-17.6239
2.22	-38.67188
2.2205	-49.95117
2.221	-57.8064
2.2215	-57.50427
2.222	-60.02197
2.2225	-49.14551
2.223	-30.41382
2.2235	-13.29346
2.224	-5.94177
2.2245	-0.90637
2.225	10.87646
2.2255	19.33594
2.226	20.94727
2.2265	20.94727
2.227	25.47913
2.2275	17.22107
2.228	10.37292
2.2285	15.00549
2.229	20.44373
2.2295	14.80408
2.23	2.01416
2.2305	4.93469
2.231	0.80566
2.2315	-22.76001
2.232	-38.974
2.2325	-41.99524
2.233	-36.25488
2.2335	-27.09045
2.234	-4.53186
2.2345	17.12036
2.235	47.13135
2.2355	69.68994
2.236	97.38464
2.2365	109.06677
2.237	108.46252
2.2375	101.9165
2.238	85.70251
2.2385	64.45312
2.239	40.1825
2.2395	43.20374
2.24	46.92993
2.2405	56.29578
2.241	57.30286
2.2415	58.10852
2.242	66.87012
2.2425	79.45862
2.243	82.07703
2.2435	69.79065
2.244	49.0448
2.2445	38.26904
2.245	49.14551
2.2455	60.92834
2.246	59.82056
2.2465	65.66162
2.247	78.95508
2.2475	99.2981
2.248	104.63562
2.2485	78.55225
2.249	60.4248
2.2495	32.62939
2.25	26.98975
2.2505	15.71045
2.251	-0.60425
2.2515	-16.11328
2.252	-25.68054
2.2525	-26.58691
2.253	-25.37842
2.2535	-34.64355
2.254	-44.71436
2.2545	-49.24622
2.255	-50.05188
2.2555	-45.11719
2.256	-52.97241
2.2565	-68.38074
2.257	-73.91968
2.2575	-85.40039
2.258	-84.49402
2.2585	-69.99207
2.259	-72.40906
2.2595	-79.35791
2.26	-74.02039
2.2605	-90.43579
2.261	-98.79456
2.2615	-104.13208
2.262	-89.93225
2.2625	-71.30127
2.263	-42.90161
2.2635	-30.11169
2.264	-15.30762
2.2645	-2.5177
2.265	-2.31628
2.2655	-0.70496
2.266	-3.52478
2.2665	-9.46655
2.267	-14.30054
2.2675	-3.8269
2.268	17.22107
2.2685	39.47754
2.269	53.37524
2.2695	58.81348
2.27	61.33118
2.2705	61.33118
2.271	66.16516
2.2715	75.63171
2.272	90.5365
2.2725	79.05579
2.273	59.21631
2.2735	31.92444
2.274	0.10071
2.2745	-4.33044
2.275	-7.45239
2.2755	-27.19116
2.276	-37.36267
2.2765	-34.94568
2.277	-38.87329
2.2775	-49.14551
2.278	-37.46338
2.2785	-22.55859
2.279	-5.94177
2.2795	5.53894
2.28	18.32886
2.2805	8.66089
2.281	13.69629
2.2815	14.50195
2.282	21.95435
2.2825	24.27063
2.283	41.89453
2.2835	59.71985
2.284	59.92126
2.2845	50.75684
2.285	33.13293
2.2855	24.06921
2.286	20.44373
2.2865	9.36584
2.287	0.30212
2.2875	7.15027
2.288	6.74744
2.2885	8.7616
2.289	2.11487
2.2895	4.02832
2.29	0.80566
2.2905	3.62549
2.291	6.64673
2.2915	7.75452
2.292	11.38
2.2925	5.74036
2.293	3.92761
2.2935	8.56018
2.294	5.53894
2.2945	13.99841
2.295	5.33752
2.2955	2.61841
2.296	-3.42407
2.2965	-1.91345
2.297	2.01416
2.2975	-1.40991
2.298	4.12903
2.2985	4.83398
2.299	10.97717
2.2995	7.95593
2.3	9.56726
2.3005	2.11487
2.301	-0.30212
2.3015	-7.5531
2.302	-14.60266
2.3025	-24.77417
2.303	-38.77258
2.3035	-51.26038
2.304	-57.9071
2.3045	-55.89294
2.305	-52.06604
2.3055	-32.12585
2.306	2.5177
2.3065	31.62231
2.307	66.76941
2.3075	90.5365
2.308	110.87952
2.3085	119.33899
2.309	124.97864
2.3095	116.922
2.31	102.42004
2.3105	82.58057
2.311	77.04163
2.3115	58.41064
2.312	36.55701
2.3125	13.99841
2.313	0.40283
2.3135	-5.23682
2.314	-20.74585
2.3145	-33.63647
2.315	-37.16125
2.3155	-56.19507
2.316	-74.42322
2.3165	-73.71826
2.317	-101.51367
2.3175	-148.54431
2.318	-184.09424
2.3185	-167.07458
2.319	-112.59155
2.3195	-59.92126
2.32	-10.67505
2.3205	43.00232
2.321	87.61597
2.3215	116.21704
2.322	138.07068
2.3225	139.37988
2.323	130.71899
2.3235	102.82288
2.324	86.8103
2.3245	80.26428
2.325	60.02197
2.3255	24.97559
2.326	-28.09753
2.3265	-53.57666
2.327	-76.43738
2.3275	-82.27844
2.328	-83.18481
2.3285	-66.46729
2.329	-58.41064
2.3295	-58.00781
2.33	-50.354
2.3305	-43.10303
2.331	-33.43506
2.3315	-25.37842
2.332	-9.06372
2.3325	-4.12903
2.333	-2.5177
2.3335	4.02832
2.334	-21.24939
2.3345	-41.99524
2.335	-39.47754
2.3355	-35.14709
2.336	-37.66479
2.3365	-29.00391
2.337	-8.8623
2.3375	46.72852
2.338	72.81189
2.3385	85.60181
2.339	110.57739
2.3395	107.65686
2.34	100.6073
2.3405	84.99756
2.341	62.13684
2.3415	41.89453
2.342	31.62231
2.3425	28.70178
2.343	20.24231
2.3435	16.71753
2.344	8.25806
2.3445	5.13611
2.345	15.71045
2.3455	11.07788
2.346	-11.17859
2.3465	-29.60815
2.347	-40.1825
2.3475	-37.56409
2.348	-19.63806
2.3485	-12.78992
2.349	-5.33752
2.3495	-1.81274
2.35	-4.73328
2.3505	0.60425
2.351	-4.53186
2.3515	-13.59558
2.352	-13.59558
2.3525	-12.68921
2.353	-2.5177
2.3535	9.56726
2.354	16.51611
2.3545	26.98975
2.355	16.11328
2.3555	24.16992
2.356	27.29187
2.3565	34.44214
2.357	36.35559
2.3575	34.14001
2.358	21.45081
2.3585	10.67505
2.359	3.02124
2.3595	3.02124
2.36	3.52478
2.3605	-2.01416
2.361	-1.00708
2.3615	-0.70496
2.362	7.85522
2.3625	6.44531
2.363	5.53894
2.3635	15.1062
2.364	24.57275
2.3645	31.82373
2.365	28.19824
2.3655	26.28479
2.366	27.49329
2.3665	29.91028
2.367	24.67346
2.3675	21.14868
2.368	24.97559
2.3685	23.16284
2.369	25.78125
2.3695	9.46655
2.37	-4.22974
2.3705	-26.78833
2.371	-49.34692
2.3715	-59.01489
2.372	-50.354
2.3725	-43.90869
2.373	-26.58691
2.3735	-12.89062
2.374	-23.16284
2.3745	-38.16833
2.375	-30.91736
2.3755	-13.59558
2.376	-6.84814
2.3765	13.29346
2.377	44.31152
2.3775	61.43188
2.378	72.20764
2.3785	66.36658
2.379	48.94409
2.3795	29.20532
2.38	0.20142
2.3805	-37.46338
2.381	-79.35791
2.3815	-97.48535
2.382	-105.44128
2.3825	-95.37048
2.383	-55.69153
2.3835	-7.15027
2.384	27.09045
2.3845	67.67578
2.385	91.04004
2.3855	77.34375
2.386	82.17773
2.3865	90.23438
2.387	80.76782
2.3875	80.56641
2.388	94.2627
2.3885	103.125
2.389	108.46252
2.3895	114.60571
2.39	111.38306
2.3905	104.93774
2.391	96.67969
2.3915	81.87561
2.392	57.20215
2.3925	9.36584
2.393	-30.61523
2.3935	-63.04321
2.394	-90.43579
2.3945	-84.2926
2.395	-66.06445
2.3955	-56.39648
2.396	-61.23047
2.3965	-57.70569
2.397	-60.3241
2.3975	-63.24463
2.398	-51.26038
2.3985	-36.65771
2.399	-35.75134
2.3995	-31.52161
2.4	-24.57275
2.4005	-20.04089
2.401	-12.08496
2.4015	-8.45947
2.402	7.95593
2.4025	7.35168
2.403	-5.33752
2.4035	-13.69629
2.404	-17.12036
2.4045	-20.44373
2.405	-25.98267
2.4055	-30.31311
2.406	-20.84656
2.4065	-12.99133
2.407	-9.16443
2.4075	-2.81982
2.408	4.02832
2.4085	0.50354
2.409	7.65381
2.4095	11.78284
2.41	8.25806
2.4105	5.53894
2.411	8.8623
2.4115	8.25806
2.412	10.47363
2.4125	0.80566
2.413	-4.12903
2.4135	-0.80566
2.414	2.92053
2.4145	0.20142
2.415	-0.60425
2.4155	1.10779
2.416	3.92761
2.4165	3.92761
2.417	11.17859
2.4175	8.8623
2.418	22.35718
2.4185	18.02673
2.419	18.73169
2.4195	11.07788
2.42	14.50195
2.4205	15.1062
2.421	21.45081
2.4215	21.45081
2.422	21.24939
2.4225	21.24939
2.423	21.24939
2.4235	21.24939
2.424	21.24939
2.4245	21.24939
2.425	21.24939
2.4255	21.24939
2.426	21.24939
2.4265	21.24939
2.427	21.24939
2.4275	21.24939
2.428	21.24939
2.4285	21.24939
2.429	21.24939
2.4295	21.24939
2.43	21.24939
2.4305	21.24939
2.431	21.24939
2.4315	21.24939
2.432	21.24939
2.4325	73.61755
2.433	57.9071
2.4335	33.9386
2.434	-5.84106
2.4345	-37.46338
2.435	-54.48303
2.4355	-56.49719
2.436	-59.61914
2.4365	-58.20923
2.437	-42.39807
2.4375	-38.47046
2.438	-34.03931
2.4385	-27.59399
2.439	-11.88354
2.4395	-5.63965
2.44	-0.10071
2.4405	7.5531
2.441	4.93469
2.4415	4.83398
2.442	25.68054
2.4425	29.60815
2.443	23.36426
2.4435	23.66638
2.444	11.38
2.4445	5.84106
2.445	-5.13611
2.4455	-5.63965
2.446	-20.1416
2.4465	-46.72852
2.447	-57.9071
2.4475	-54.88586
2.448	-52.8717
2.4485	-42.49878
2.449	-46.12427
2.4495	-92.65137
2.45	-111.38306
2.4505	-108.76465
2.451	-72.81189
2.4515	-21.04797
2.452	29.70886
2.4525	64.35242
2.453	95.26978
2.4535	126.58997
2.454	159.01794
2.4545	186.71265
2.455	159.7229
2.4555	131.32324
2.456	85.19897
2.4565	60.92834
2.457	41.99524
2.4575	52.771
2.458	81.06995
2.4585	90.83862
2.459	75.32959
2.4595	53.17383
2.46	49.85046
2.4605	30.81665
2.461	-14.40125
2.4615	-62.9425
2.462	-94.86694
2.4625	-95.47119
2.463	-97.38464
2.4635	-101.01013
2.464	-92.34924
2.4645	-74.12109
2.465	-46.12427
2.4655	-14.70337
2.466	-4.83398
2.4665	10.0708
2.467	11.68213
2.4675	4.63257
2.468	-2.61841
2.4685	-6.74744
2.469	-5.94177
2.4695	-0.30212
2.47	11.58142
2.4705	17.01965
2.471	23.36426
2.4715	23.46497
2.472	23.16284
2.4725	23.56567
2.473	22.35718
2.4735	21.85364
2.474	17.12036
2.4745	26.18408
2.475	33.83789
2.4755	37.46338
2.476	29.70886
2.4765	31.62231
2.477	34.14001
2.4775	29.91028
2.478	31.11877
2.4785	29.10461
2.479	12.78992
2.4795	-0.80566
2.48	-23.76709
2.4805	-40.38391
2.481	-35.65063
2.4815	-42.39807
2.482	-46.82922
2.4825	-46.82922
2.483	-41.99524
2.4835	-32.93152
2.484	-37.26196
2.4845	-29.80957
2.485	-38.16833
2.4855	-53.67737
2.486	-56.19507
2.4865	-37.56409
2.487	-16.81824
2.4875	6.44531
2.488	24.27063
2.4885	33.23364
2.489	32.42798
2.4895	25.78125
2.49	20.1416
2.4905	20.84656
2.491	39.07471
2.4915	53.07312
2.492	71.60339
2.4925	101.9165
2.493	104.03137
2.4935	89.12659
2.494	76.43738
2.4945	71.60339
2.495	57.50427
2.4955	50.75684
2.496	43.20374
2.4965	28.39966
2.497	4.22974
2.4975	-33.9386
2.498	-46.62781
2.4985	-39.88037
2.499	-34.74426
2.4995	-24.37134
2.5	-12.68921
2.5005	-2.21558
2.501	-3.92761
2.5015	9.46655
2.502	19.43665
2.5025	30.71594
2.503	32.62939
2.5035	35.95276
2.504	37.96692
2.5045	28.39966
2.505	4.12903
2.5055	-14.60266
2.506	-20.44373
2.5065	-24.06921
2.507	-30.41382
2.5075	-33.83789
2.508	-32.02515
2.5085	-30.01099
2.509	-27.19116
2.5095	-33.03223
2.51	-30.61523
2.5105	-24.57275
2.511	-12.78992
2.5115	-3.42407
2.512	-3.62549
2.5125	4.73328
2.513	9.86938
2.5135	11.17859
2.514	10.67505
2.5145	11.07788
2.515	6.14319
2.5155	-2.11487
2.516	-8.7616
2.5165	-15.40833
2.517	-15.50903
2.5175	-16.51611
2.518	-26.68762
2.5185	-31.92444
2.519	-30.2124
2.5195	-25.37842
2.52	-15.50903
2.5205	-2.61841
2.521	12.78992
2.5215	22.55859
2.522	31.82373
2.5225	46.5271
2.523	68.48145
2.5235	85.60181
2.524	60.02197
2.5245	34.54285
2.525	17.52319
2.5255	10.37292
2.526	-0.60425
2.5265	0.50354
2.527	13.09204
2.5275	28.9032
2.528	26.58691
2.5285	22.25647
2.529	16.71753
2.5295	0.90637
2.53	-4.02832
2.5305	-6.74744
2.531	-4.43115
2.5315	-9.66797
2.532	-11.68213
2.5325	-13.19275
2.533	-18.63098
2.5335	-24.16992
2.534	-30.41382
2.5345	-19.63806
2.535	8.8623
2.5355	36.35559
2.536	23.16284
2.5365	5.0354
2.537	17.82532
2.5375	38.36975
2.538	59.41772
2.5385	79.2572
2.539	96.17615
2.5395	101.41296
2.54	82.27844
2.5405	65.86304
2.541	53.87878
2.5415	30.11169
2.542	17.72461
2.5425	0.60425
2.543	-14.60266
2.5435	-42.19666
2.544	-52.771
2.5445	-47.93701
2.545	-56.39648
2.5455	-56.39648
2.546	-62.03613
2.5465	-55.08728
2.547	-46.82922
2.5475	-44.41223
2.548	-39.37683
2.5485	-31.11877
2.549	-37.86621
2.5495	-35.95276
2.55	-33.83789
2.5505	-40.08179
2.551	-39.17542
2.5515	-40.08179
2.552	-42.09595
2.5525	-27.99683
2.553	-26.68762
2.5535	-12.18567
2.554	-2.41699
2.5545	-25.88196
2.555	-34.24072
2.5555	-39.77966
2.556	-34.24072
2.5565	-28.19824
2.557	-28.50037
2.5575	-10.87646
2.558	16.3147
2.5585	46.92993
2.559	47.23206
2.5595	43.50586
2.56	50.45471
2.5605	66.76941
2.561	72.71118
2.5615	71.50269
2.562	78.14941
2.5625	88.52234
2.563	78.55225
2.5635	61.53259
2.564	52.26746
2.5645	44.31152
2.565	42.49878
2.5655	49.34692
2.566	55.2887
2.5665	47.03064
2.567	40.68604
2.5675	36.85913
2.568	30.11169
2.5685	28.29895
2.569	18.02673
2.5695	16.41541
2.57	22.86072
2.5705	24.77417
2.571	19.33594
2.5715	14.70337
2.572	8.25806
2.5725	2.71912
2.573	-6.54602
2.5735	-5.53894
2.574	-11.78284
2.5745	-40.08179
2.575	-67.97791
2.5755	-85.80322
2.576	-76.7395
2.5765	-55.79224
2.577	-43.90869
2.5775	-29.60815
2.578	-14.50195
2.5785	-15.1062
2.579	-13.69629
2.5795	-22.86072
2.58	-22.76001
2.5805	-29.91028
2.581	-35.75134
2.5815	-46.92993
2.582	-54.48303
2.5825	-55.49011
2.583	-41.18958
2.5835	-10.17151
2.584	31.92444
2.5845	50.15259
2.585	46.12427
2.5855	24.97559
2.586	21.04797
2.5865	12.08496
2.587	-14.60266
2.5875	-64.05029
2.588	-97.68677
2.5885	-105.34058
2.589	-105.6427
2.5895	-79.45862
2.59	-52.97241
2.5905	-3.7262
2.591	50.75684
2.5915	89.22729
2.592	126.28784
2.5925	151.16272
2.593	161.0321
2.5935	162.54272
2.594	169.08875
2.5945	164.7583
2.595	142.60254
2.5955	112.18872
2.596	70.3949
2.5965	20.94727
2.597	-21.04797
2.5975	-46.62781
2.598	-55.79224
2.5985	-44.81506
2.599	-38.16833
2.5995	-28.29895
2.6	-23.66638
2.6005	-23.96851
2.601	-23.36426
2.6015	-6.04248
2.602	-7.35168
2.6025	-13.29346
2.603	-16.11328
2.6035	-16.71753
2.604	-15.40833
2.6045	-15.40833
2.605	-34.84497
2.6055	-37.46338
2.606	-42.8009
2.6065	-29.50745
2.607	-10.47363
2.6075	13.797
2.608	38.36975
2.6085	45.11719
2.609	59.01489
2.6095	55.69153
2.61	60.22339
2.6105	69.1864
2.611	65.96375
2.6115	59.1156
2.612	45.72144
2.6125	26.58691
2.613	12.08496
2.6135	-7.45239
2.614	-21.3501
2.6145	-29.91028
2.615	-29.30603
2.6155	-27.29187
2.616	-27.99683
2.6165	-44.0094
2.617	-63.44604
2.6175	-65.96375
2.618	-68.28003
2.6185	-55.79224
2.619	-51.36108
2.6195	-55.08728
2.62	-49.14551
2.6205	-40.1825
2.621	-34.14001
2.6215	-14.80408
2.622	-2.21558
2.6225	10.87646
2.623	23.76709
2.6235	27.89612
2.624	24.87488
2.6245	30.51453
2.625	41.59241
2.6255	51.96533
2.626	53.37524
2.6265	51.26038
2.627	51.96533
2.6275	59.71985
2.628	59.92126
2.6285	67.17224
2.629	47.8363
2.6295	38.26904
2.63	33.03223
2.6305	29.80957
2.631	18.93311
2.6315	3.7262
2.632	-4.02832
2.6325	-7.5531
2.633	-13.49487
2.6335	-18.53027
2.634	-25.57983
2.6345	-26.28479
2.635	-22.35718
2.6355	-17.12036
2.636	-24.87488
2.6365	-41.39099
2.637	-61.53259
2.6375	-39.88037
2.638	3.12195
2.6385	30.61523
2.639	44.51294
2.6395	41.59241
2.64	23.8678
2.6405	30.11169
2.641	21.65222
2.6415	21.75293
2.642	31.52161
2.6425	33.03223
2.643	30.81665
2.6435	-6.2439
2.644	-89.328
2.6445	-123.97156
2.645	-103.82996
2.6455	-80.4657
2.646	-56.79932
2.6465	-36.25488
2.647	-9.46655
2.6475	29.70886
2.648	41.4917
2.6485	52.46887
2.649	40.08179
2.6495	6.94885
2.65	-7.95593
2.6505	4.02832
2.651	25.57983
2.6515	48.44055
2.652	71.30127
2.6525	83.78906
2.653	85.29968
2.6535	74.52393
2.654	81.06995
2.6545	91.64429
2.655	95.37048
2.6555	78.04871
2.656	51.66321
2.6565	50.65613
2.657	41.99524
2.6575	43.20374
2.658	46.12427
2.6585	52.56958
2.659	47.33276
2.6595	42.49878
2.66	34.24072
2.6605	19.94019
2.661	7.95593
2.6615	-5.84106
2.662	-19.94019
2.6625	-39.67896
2.663	-43.00232
2.6635	-57.20215
2.664	-61.6333
2.6645	-61.23047
2.665	-57.00073
2.6655	-54.48303
2.666	-44.21082
2.6665	-22.76001
2.667	-9.86938
2.6675	-11.2793
2.668	-12.99133
2.6685	-17.52319
2.669	-8.25806
2.6695	3.92761
2.67	14.60266
2.6705	19.73877
2.671	38.87329
2.6715	46.62781
2.672	41.29028
2.6725	31.62231
2.673	34.34143
2.6735	37.56409
2.674	38.16833
2.6745	44.91577
2.675	58.61206
2.6755	49.85046
2.676	37.56409
2.6765	3.02124
2.677	-16.71753
2.6775	-31.32019
2.678	-32.02515
2.6785	-40.98816
2.679	-46.02356
2.6795	-45.92285
2.68	-49.24622
2.6805	-51.5625
2.681	-47.7356
2.6815	-47.8363
2.682	-39.67896
2.6825	-35.14709
2.683	-30.91736
2.6835	-21.3501
2.684	-16.61682
2.6845	-14.90479
2.685	-11.07788
2.6855	-1.10779
2.686	1.71204
2.6865	-11.98425
2.687	-11.58142
2.6875	-11.07788
2.688	-8.35876
2.6885	-1.2085
2.689	-3.42407
2.6895	-6.74744
2.69	2.11487
2.6905	4.33044
2.691	17.92603
2.6915	28.9032
2.692	35.95276
2.6925	43.40515
2.693	48.64197
2.6935	46.92993
2.694	49.64905
2.6945	43.60657
2.695	41.29028
2.6955	28.9032
2.696	20.84656
2.6965	15.91187
2.697	6.14319
2.6975	-12.08496
2.698	-14.19983
2.6985	-11.68213
2.699	-9.86938
2.6995	-15.81116
2.7	-34.74426
2.7005	-66.26587
2.701	-94.46411
2.7015	-86.20605
2.702	-69.79065
2.7025	-59.82056
2.703	-36.85913
2.7035	-4.73328
2.704	38.57117
2.7045	53.27454
2.705	68.78357
2.7055	68.88428
2.706	56.5979
2.7065	45.2179
2.707	55.59082
2.7075	49.54834
2.708	20.1416
2.7085	-23.06213
2.709	-68.98499
2.7095	-95.67261
2.71	-75.93384
2.7105	-36.95984
2.711	-8.8623
2.7115	2.21558
2.712	18.73169
2.7125	9.16443
2.713	3.42407
2.7135	-4.02832
2.714	-3.8269
2.7145	1.2085
2.715	6.64673
2.7155	19.43665
2.716	27.89612
2.7165	38.67188
2.717	40.98816
2.7175	31.4209
2.718	18.42957
2.7185	13.29346
2.719	24.06921
2.7195	44.41223
2.72	60.4248
2.7205	82.88269
2.721	106.04553
2.7215	116.01562
2.722	122.76306
2.7225	145.42236
2.723	151.36414
2.7235	145.9259
2.724	128.60413
2.7245	109.67102
2.725	84.2926
2.7255	63.44604
2.726	56.90002
2.7265	44.61365
2.727	19.73877
2.7275	15.1062
2.728	20.34302
2.7285	14.80408
2.729	18.02673
2.7295	7.25098
2.73	-19.83948
2.7305	-35.54993
2.731	-64.55383
2.7315	-76.63879
2.732	-82.58057
2.7325	-76.7395
2.733	-64.05029
2.7335	-56.90002
2.734	-45.41931
2.7345	-39.47754
2.735	-44.61365
2.7355	-35.2478
2.736	-17.32178
2.7365	-11.38
2.737	-16.01257
2.7375	-17.6239
2.738	-27.79541
2.7385	-37.46338
2.739	-44.31152
2.7395	-26.48621
2.74	-11.68213
2.7405	2.5177
2.741	-10.0708
2.7415	-20.74585
2.742	-25.68054
2.7425	-39.67896
2.743	-32.32727
2.7435	-17.32178
2.744	-3.7262
2.7445	1.40991
2.745	17.32178
2.7455	9.76868
2.746	15.50903
2.7465	10.67505
2.747	-6.14319
2.7475	-19.13452
2.748	-27.89612
2.7485	-36.35559
2.749	-39.07471
2.7495	-25.68054
2.75	-11.07788
2.7505	9.66797
2.751	29.50745
2.7515	59.31702
2.752	81.57349
2.7525	80.06287
2.753	78.14941
2.7535	79.45862
2.754	73.61755
2.7545	69.28711
2.755	54.28162
2.7555	48.23914
2.756	43.20374
2.7565	31.01807
2.757	28.19824
2.7575	15.71045
2.758	-2.21558
2.7585	-22.96143
2.759	-30.31311
2.7595	-32.52869
2.76	-24.57275
2.7605	-19.94019
2.761	-7.25098
2.7615	-2.21558
2.762	-9.86938
2.7625	-5.23682
2.763	-0.60425
2.7635	0.40283
2.764	2.31628
2.7645	18.02673
2.765	8.05664
2.7655	-8.56018
2.766	-13.69629
2.7665	-24.97559
2.767	-47.8363
2.7675	-75.02747
2.768	-124.97864
2.7685	-179.8645
2.769	-203.32947
2.7695	-200.91248
2.77	-174.42627
2.7705	-132.0282
2.771	-82.47986
2.7715	-24.77417
2.772	32.42798
2.7725	75.32959
2.773	109.97314
2.7735	135.25085
2.774	145.12024
2.7745	133.43811
2.775	108.56323
2.7755	72.00623
2.776	16.01257
2.7765	2.21558
2.777	19.63806
2.7775	54.38232
2.778	83.58765
2.7785	91.64429
2.779	119.13757
2.7795	144.41528
2.78	152.47192
2.7805	157.91016
2.781	145.42236
2.7815	117.92908
2.782	98.59314
2.7825	59.21631
2.783	24.57275
2.7835	-6.14319
2.784	-23.56567
2.7845	-23.16284
2.785	-21.55151
2.7855	-45.62073
2.786	-61.93542
2.7865	-77.84729
2.787	-75.83313
2.7875	-56.90002
2.788	-45.3186
2.7885	-27.99683
2.789	-17.42249
2.7895	-26.68762
2.79	-43.60657
2.7905	-42.90161
2.791	-37.56409
2.7915	-41.89453
2.792	-50.45471
2.7925	-48.44055
2.793	-36.25488
2.7935	-11.98425
2.794	11.98425
2.7945	48.44055
2.795	90.03296
2.7955	123.77014
2.796	136.76147
2.7965	143.91174
2.797	135.45227
2.7975	102.31934
2.798	82.37915
2.7985	67.37366
2.799	52.06604
2.7995	36.75842
2.8	6.94885
2.8005	-12.5885
2.801	-12.38708
2.8015	-18.53027
2.802	-6.3446
2.8025	1.81274
2.803	-4.93469
2.8035	-38.67188
2.804	-67.77649
2.8045	-88.62305
2.805	-94.46411
2.8055	-90.93933
2.806	-80.86853
2.8065	-73.61755
2.807	-58.30994
2.8075	-42.49878
2.808	-28.09753
2.8085	-18.22815
2.809	-18.93311
2.8095	-11.17859
2.81	-10.57434
2.8105	-7.95593
2.811	-6.54602
2.8115	-10.67505
2.812	-1.61133
2.8125	1.71204
2.813	10.47363
2.8135	10.47363
2.814	15.00549
2.8145	14.09912
2.815	-3.12195
2.8155	-45.2179
2.816	-88.52234
2.8165	-121.55457
2.817	-127.89917
2.8175	-109.4696
2.818	-69.28711
2.8185	-34.34143
2.819	-6.54602
2.8195	2.92053
2.82	19.03381
2.8205	35.54993
2.821	50.15259
2.8215	48.74268
2.822	52.97241
2.8225	47.53418
2.823	47.63489
2.8235	46.82922
2.824	47.53418
2.8245	4.33044
2.825	-63.54675
2.8255	-76.53809
2.826	-46.5271
2.8265	-13.49487
2.827	15.81116
2.8275	49.44763
2.828	76.13525
2.8285	98.89526
2.829	113.80005
2.8295	139.17847
2.83	176.74255
2.8305	184.09424
2.831	172.41211
2.8315	120.44678
2.832	49.14551
2.8325	-5.74036
2.833	-26.08337
2.8335	-48.03772
2.834	-66.97083
2.8345	-44.71436
2.835	-16.71753
2.8355	23.46497
2.836	80.96924
2.8365	119.74182
2.837	142.80396
2.8375	140.38696
2.838	122.05811
2.8385	91.64429
2.839	49.0448
2.8395	4.53186
2.84	-24.87488
2.8405	-45.52002
2.841	-65.76233
2.8415	-94.46411
2.842	-120.7489
2.8425	-103.32642
2.843	-98.29102
2.8435	-91.8457
2.844	-78.75366
2.8445	-64.75525
2.845	-43.60657
2.8455	-15.00549
2.846	-10.0708
2.8465	-3.02124
2.847	8.8623
2.8475	20.04089
2.848	18.8324
2.8485	-0.30212
2.849	-6.14319
2.8495	-3.92761
2.85	11.58142
2.8505	45.92285
2.851	66.06445
2.8515	80.86853
2.852	76.13525
2.8525	59.71985
2.853	38.77258
2.8535	14.60266
2.854	2.81982
2.8545	-3.52478
2.855	-28.09753
2.8555	-53.67737
2.856	-71.30127
2.8565	-107.85828
2.857	-177.44751
2.8575	-208.06274
2.858	-175.13123
2.8585	-155.19104
2.859	-124.07227
2.8595	-109.26819
2.86	-85.09827
2.8605	-62.33826
2.861	-37.86621
2.8615	38.36975
2.862	118.83545
2.8625	194.26575
2.863	221.75903
2.8635	260.63232
2.864	295.07446
2.8645	305.74951
2.865	271.50879
2.8655	245.02258
2.866	217.02576
2.8665	179.36096
2.867	134.84802
2.8675	73.71826
2.868	24.87488
2.8685	23.06213
2.869	35.85205
2.8695	-16.81824
2.87	-91.8457
2.8705	-147.1344
2.871	-206.45142
2.8715	-227.29797
2.872	-212.19177
2.8725	-201.41602
2.873	-190.74097
2.8735	-145.32166
2.874	-79.96216
2.8745	-7.15027
2.875	40.98816
2.8755	77.84729
2.876	97.08252
2.8765	84.49402
2.877	55.79224
2.8775	41.79382
2.878	48.23914
2.8785	23.26355
2.879	19.53735
2.8795	34.74426
2.88	37.06055
2.8805	51.76392
2.881	76.43738
2.8815	126.58997
2.882	156.80237
2.8825	161.73706
2.883	118.83545
2.8835	109.57031
2.884	101.31226
2.8845	82.88269
2.885	39.77966
2.8855	5.33752
2.886	-17.72461
2.8865	-39.77966
2.887	-69.1864
2.8875	-97.38464
2.888	-83.58765
2.8885	-61.02905
2.889	-48.13843
2.8895	-36.05347
2.89	-48.54126
2.8905	-49.34692
2.891	-29.80957
2.8915	-1.91345
2.892	-10.27222
2.8925	-37.7655
2.893	-70.59631
2.8935	-99.70093
2.894	-97.88818
2.8945	-87.51526
2.895	-83.58765
2.8955	-73.01331
2.896	-41.69312
2.8965	-34.74426
2.897	-48.03772
2.8975	-100.50659
2.898	-129.5105
2.8985	-145.8252
2.899	-190.84167
2.8995	-214.10522
2.9	-225.28381
2.9005	-206.65283
2.901	-161.53564
2.9015	-108.1604
2.902	-26.48621
2.9025	60.62622
2.903	156.80237
2.9035	189.43176
2.904	180.97229
2.9045	188.42468
2.905	169.7937
2.9055	174.8291
2.906	151.86768
2.9065	74.92676
2.907	40.58533
2.9075	44.91577
2.908	48.54126
2.9085	34.64355
2.909	-5.23682
2.9095	-3.12195
2.91	-9.76868
2.9105	-41.89453
2.911	-74.62463
2.9115	-62.53967
2.912	-58.10852
2.9125	-35.85205
2.913	-29.91028
2.9135	-37.96692
2.914	-39.88037
2.9145	-17.12036
2.915	-25.68054
2.9155	-27.6947
2.916	-0.90637
2.9165	17.12036
2.917	28.70178
2.9175	47.8363
2.918	55.49011
2.9185	66.36658
2.919	72.30835
2.9195	82.78198
2.92	55.99365
2.9205	-0.80566
2.921	-45.92285
2.9215	-85.5011
2.922	-87.11243
2.9225	-85.60181
2.923	-95.5719
2.9235	-100.40588
2.924	-89.42871
2.9245	-64.151
2.925	-54.38232
2.9255	-3.42407
2.926	60.02197
2.9265	146.42944
2.927	205.84717
2.9275	235.85815
2.928	239.88647
2.9285	228.10364
2.929	224.27673
2.9295	218.23425
2.93	197.4884
2.9305	157.70874
2.931	91.34216
2.9315	28.09753
2.932	-13.59558
2.9325	-13.29346
2.933	-11.78284
2.9335	-34.14001
2.934	-80.06287
2.9345	-107.35474
2.935	-116.31775
2.9355	-120.64819
2.936	-132.0282
2.9365	-121.05103
2.937	-81.06995
2.9375	-43.80798
2.938	-30.2124
2.9385	-29.40674
2.939	-41.89453
2.9395	-21.3501
2.94	11.88354
2.9405	76.23596
2.941	115.00854
2.9415	108.66394
2.942	93.75916
2.9425	96.27686
2.943	95.5719
2.9435	71.30127
2.944	43.60657
2.9445	28.70178
2.945	1.3092
2.9455	-36.35559
2.946	-81.87561
2.9465	-112.59155
2.947	-133.94165
2.9475	-124.37439
2.948	-107.55615
2.9485	-72.20764
2.949	4.12903
2.9495	78.55225
2.95	160.02502
2.9505	216.62292
2.951	275.83923
2.9515	300.91553
2.952	290.94543
2.9525	286.41357
2.953	238.17444
2.9535	138.87634
2.954	65.25879
2.9545	-18.63098
2.955	-39.67896
2.9555	-78.25012
2.956	-184.59778
2.9565	-264.35852
2.957	-275.63782
2.9575	-209.57336
2.958	-149.14856
2.9585	-217.83142
2.959	-260.63232
2.9595	-237.77161
2.96	-145.12024
2.9605	43.90869
2.961	300.21057
2.9615	553.28979
2.962	764.5752
2.9625	924.2981
2.963	959.64661
2.9635	926.11084
2.964	942.52625
2.9645	888.04321
2.965	742.82227
2.9655	566.88538
2.966	401.01929
2.9665	213.40027
2.967	34.74426
2.9675	-69.1864
2.968	-147.53723
2.9685	-199.09973
2.969	-224.47815
2.9695	-243.71338
2.97	-286.21216
2.9705	-323.37341
2.971	-346.53625
2.9715	-312.19482
2.972	-270.401
2.9725	-270.60242
2.973	-309.07288
2.9735	-346.13342
2.974	-381.48193
2.9745	-458.22144
2.975	-449.45984
2.9755	-375.43945
2.976	-295.47729
2.9765	-241.69922
2.977	-223.37036
2.9775	-195.07141
2.978	-178.25317
2.9785	-170.59937
2.979	-160.62927
2.9795	-162.34131
2.98	-176.0376
2.9805	-188.32397
2.981	-217.83142
2.9815	-236.66382
2.982	-233.54187
2.9825	-220.65125
2.983	-208.86841
2.9835	-206.75354
2.984	-201.71814
2.9845	-185.80627
2.985	-174.72839
2.9855	-184.09424
2.986	-203.43018
2.9865	-206.35071
2.987	-181.27441
2.9875	-149.14856
2.988	-115.20996
2.9885	-108.46252
2.989	-117.62695
2.9895	-135.04944
2.99	-130.11475
2.9905	-116.922
2.991	-102.42004
2.9915	-85.5011
2.992	-62.8418
2.9925	-52.67029
2.993	-29.00391
2.9935	-4.22974
2.994	11.88354
2.9945	35.04639
2.995	60.72693
2.9955	87.31384
2.996	81.97632
2.9965	59.31702
2.997	50.65613
2.9975	76.13525
2.998	104.4342
2.9985	129.91333
2.999	154.6875
2.9995	179.36096
3	195.47424
3.0005	212.19177
3.001	208.16345
3.0015	173.21777
3.002	140.38696
3.0025	102.82288
3.003	61.73401
3.0035	12.38708
3.004	-38.47046
3.0045	-64.151
3.005	-69.68994
3.0055	-65.3595
3.006	-32.32727
3.0065	-9.97009
3.007	1.10779
3.0075	-20.04089
3.008	-54.58374
3.0085	-79.76074
3.009	-67.07153
3.0095	-29.50745
3.01	-9.56726
3.0105	-41.69312
3.011	-99.80164
3.0115	-114.00146
3.012	-71.30127
3.0125	-36.65771
3.013	-15.71045
3.0135	-3.62549
3.014	0.60425
3.0145	-41.4917
3.015	-73.51685
3.0155	-75.53101
3.016	-55.59082
3.0165	-22.15576
3.017	29.80957
3.0175	106.14624
3.018	183.28857
3.0185	260.53162
3.019	333.04138
3.0195	399.20654
3.02	404.14124
3.0205	393.86902
3.021	366.97998
3.0215	327.40173
3.022	306.25305
3.0225	279.1626
3.023	232.13196
3.0235	187.4176
3.024	177.95105
3.0245	204.63867
3.025	219.84558
3.0255	193.76221
3.026	144.51599
3.0265	97.68677
3.027	34.64355
3.0275	-16.3147
3.028	-83.18481
3.0285	-133.94165
3.029	-152.77405
3.0295	-185.10132
3.03	-206.55212
3.0305	-239.48364
3.031	-246.33179
3.0315	-228.30505
3.032	-215.31372
3.0325	-236.4624
3.033	-309.375
3.0335	-324.27979
3.034	-303.33252
3.0345	-240.1886
3.035	-200.10681
3.0355	-152.47192
3.036	-42.39807
3.0365	72.9126
3.037	153.07617
3.0375	214.81018
3.038	276.84631
3.0385	287.42065
3.039	291.7511
3.0395	273.92578
3.04	238.9801
3.0405	204.33655
3.041	176.74255
3.0415	137.86926
3.042	83.58765
3.0425	45.01648
3.043	48.94409
3.0435	108.05969
3.044	100.10376
3.0445	73.31543
3.045	42.19666
3.0455	21.55151
3.046	-4.33044
3.0465	-22.96143
3.047	-48.94409
3.0475	-57.60498
3.048	-49.0448
3.0485	-65.3595
3.049	-125.68359
3.0495	-201.31531
3.05	-243.20984
3.0505	-251.77002
3.051	-240.39001
3.0515	-230.52063
3.052	-232.93762
3.0525	-218.73779
3.053	-208.56628
3.0535	-226.08948
3.054	-239.88647
3.0545	-218.43567
3.055	-200.10681
3.0555	-201.11389
3.056	-218.03284
3.0565	-199.20044
3.057	-156.09741
3.0575	-164.25476
3.058	-233.34045
3.0585	-248.24524
3.059	-198.09265
3.0595	-136.15723
3.06	-89.83154
3.0605	-43.90869
3.061	34.94568
3.0615	122.46094
3.062	159.42078
3.0625	177.74963
3.063	209.17053
3.0635	253.07922
3.064	270.19958
3.0645	286.51428
3.065	294.06738
3.0655	282.9895
3.066	276.6449
3.0665	250.96436
3.067	209.87549
3.0675	165.9668
3.068	109.77173
3.0685	49.54834
3.069	-14.90479
3.0695	-70.19348
3.07	-70.3949
3.0705	-50.65613
3.071	-56.09436
3.0715	-53.27454
3.072	-40.58533
3.0725	-6.3446
3.073	31.72302
3.0735	60.72693
3.074	56.5979
3.0745	45.2179
3.075	47.43347
3.0755	47.43347
3.076	58.20923
3.0765	49.44763
3.077	28.39966
3.0775	12.68921
3.078	7.25098
3.0785	-6.04248
3.079	-1.71204
3.0795	3.42407
3.08	18.02673
3.0805	37.06055
3.081	52.36816
3.0815	81.17065
3.082	90.93933
3.0825	99.2981
3.083	96.8811
3.0835	92.85278
3.084	88.52234
3.0845	90.83862
3.085	75.63171
3.0855	68.78357
3.086	45.92285
3.0865	32.62939
3.087	25.57983
3.0875	17.6239
3.088	1.3092
3.0885	-20.24231
3.089	-47.93701
3.0895	-44.81506
3.09	-36.75842
3.0905	-35.2478
3.091	-13.49487
3.0915	-1.2085
3.092	3.32336
3.0925	14.50195
3.093	15.50903
3.0935	-10.67505
3.094	-77.34375
3.0945	-138.57422
3.095	-125.58289
3.0955	-91.14075
3.096	-36.15417
3.0965	6.14319
3.097	47.23206
3.0975	87.21313
3.098	99.19739
3.0985	115.51208
3.099	125.48218
3.0995	105.03845
3.1	73.41614
3.1005	66.87012
3.101	98.59314
3.1015	108.26111
3.102	105.44128
3.1025	102.42004
3.103	111.08093
3.1035	114.90784
3.104	71.20056
3.1045	32.7301
3.105	23.06213
3.1055	9.36584
3.106	-44.31152
3.1065	-101.51367
3.107	-119.74182
3.1075	-65.05737
3.108	-12.48779
3.1085	21.75293
3.109	30.01099
3.1095	20.94727
3.11	-10.17151
3.1105	-89.52942
3.111	-131.52466
3.1115	-160.32715
3.112	-139.48059
3.1125	-95.97473
3.113	11.2793
3.1135	108.26111
3.114	185.70557
3.1145	283.09021
3.115	344.42139
3.1155	369.90051
3.116	362.64954
3.1165	342.50793
3.117	296.68579
3.1175	232.43408
3.118	164.45618
3.1185	82.17773
3.119	11.17859
3.1195	-13.29346
3.12	-24.87488
3.1205	-39.98108
3.121	-49.44763
3.1215	-35.44922
3.122	-74.52393
3.1225	-160.72998
3.123	-211.88965
3.1235	-213.8031
3.124	-188.52539
3.1245	-160.62927
3.125	-156.70166
3.1255	-161.13281
3.126	-161.13281
3.1265	-180.06592
3.127	-214.60876
3.1275	-225.28381
3.128	-222.66541
3.1285	-261.74011
3.129	-287.01782
3.1295	-242.10205
3.13	-166.77246
3.1305	-85.09827
3.131	21.75293
3.1315	141.09192
3.132	219.74487
3.1325	254.0863
3.133	277.14844
3.1335	276.24207
3.134	274.53003
3.1345	220.34912
3.135	176.13831
3.1355	120.84961
3.136	65.46021
3.1365	16.3147
3.137	-6.54602
3.1375	-45.62073
3.138	-73.21472
3.1385	-140.68909
3.139	-228.10364
3.1395	-238.57727
3.14	-209.9762
3.1405	-173.01636
3.141	-158.21228
3.1415	-115.91492
3.142	-81.57349
3.1425	-74.42322
3.143	-59.51843
3.1435	-44.21082
3.144	7.5531
3.1445	34.94568
3.145	39.47754
3.1455	86.50818
3.146	113.69934
3.1465	122.76306
3.147	134.44519
3.1475	148.84644
3.148	138.47351
3.1485	121.55457
3.149	88.72375
3.1495	57.10144
3.15	32.7301
3.1505	0.90637
3.151	-54.18091
3.1515	-85.90393
3.152	-89.22729
3.1525	-100.80872
3.153	-123.36731
3.1535	-151.16272
3.154	-169.29016
3.1545	-171.80786
3.155	-172.81494
3.1555	-179.66309
3.156	-153.98254
3.1565	-104.73633
3.157	-79.35791
3.1575	-57.00073
3.158	-1.2085
3.1585	52.8717
3.159	73.81897
3.1595	18.42957
3.16	2.71912
3.1605	35.2478
3.161	87.31384
3.1615	123.66943
3.162	135.25085
3.1625	184.29565
3.163	200.91248
3.1635	171.70715
3.164	130.92041
3.1645	104.4342
3.165	114.80713
3.1655	131.42395
3.166	147.53723
3.1665	165.9668
3.167	179.76379
3.1675	200.71106
3.168	179.76379
3.1685	143.3075
3.169	95.37048
3.1695	48.74268
3.17	-19.13452
3.1705	-73.11401
3.171	-79.05579
3.1715	-38.26904
3.172	11.48071
3.1725	54.58374
3.173	131.82678
3.1735	183.5907
3.174	177.24609
3.1745	161.73706
3.175	81.67419
3.1755	-39.07471
3.176	-95.16907
3.1765	-87.91809
3.177	-41.08887
3.1775	-0.20142
3.178	21.65222
3.1785	42.59949
3.179	60.12268
3.1795	65.76233
3.18	45.92285
3.1805	27.09045
3.181	-16.91895
3.1815	-75.83313
3.182	-126.79138
3.1825	-146.53015
3.183	-128.80554
3.1835	-106.8512
3.184	-115.41138
3.1845	-156.80237
3.185	-169.49158
3.1855	-54.38232
3.186	109.77173
3.1865	242.7063
3.187	385.61096
3.1875	508.27332
3.188	566.98608
3.1885	588.5376
3.189	609.28345
3.1895	560.9436
3.19	470.80994
3.1905	391.25061
3.191	266.97693
3.1915	135.8551
3.192	25.98267
3.1925	-88.11951
3.193	-234.14612
3.1935	-378.96423
3.194	-454.59595
3.1945	-462.24976
3.195	-466.37878
3.1955	-459.42993
3.196	-463.96179
3.1965	-453.68958
3.197	-446.33789
3.1975	-435.56213
3.198	-382.08618
3.1985	-330.62439
3.199	-366.37573
3.1995	-429.92249
3.2	-460.2356
3.2005	-440.79895
3.201	-444.42444
3.2015	-539.19067
3.202	-571.82007
3.2025	-459.53064
3.203	-213.19885
3.2035	-40.2832
3.204	106.14624
3.2045	258.51746
3.205	387.62512
3.2055	459.42993
3.206	530.63049
3.2065	596.69495
3.207	602.33459
3.2075	549.26147
3.208	491.05225
3.2085	403.83911
3.209	254.28772
3.2095	133.84094
3.21	95.47119
3.2105	117.32483
3.211	48.23914
3.2115	-53.47595
3.212	-107.85828
3.2125	-102.11792
3.213	-35.2478
3.2135	61.12976
3.214	149.6521
3.2145	246.83533
3.215	311.08704
3.2155	348.04688
3.216	359.729
3.2165	344.01855
3.217	294.2688
3.2175	158.21228
3.218	-65.56091
3.2185	-154.28467
3.219	-157.10449
3.2195	-205.14221
3.22	-267.58118
3.2205	-268.78967
3.221	-273.62366
3.2215	-294.47021
3.222	-344.32068
3.2225	-387.62512
3.223	-370.40405
3.2235	-360.43396
3.224	-402.02637
3.2245	-427.70691
3.225	-474.63684
3.2255	-436.26709
3.226	-385.61096
3.2265	-263.15002
3.227	-129.00696
3.2275	-0.50354
3.228	130.8197
3.2285	215.71655
3.229	285.5072
3.2295	400.01221
3.23	487.12463
3.2305	529.92554
3.231	555.20325
3.2315	520.96252
3.232	494.77844
3.2325	479.06799
3.233	453.18604
3.2335	396.68884
3.234	328.81165
3.2345	274.32861
3.235	213.8031
3.2355	99.3988
3.236	-38.974
3.2365	-73.71826
3.237	-48.54126
3.2375	0.80566
3.238	88.52234
3.2385	123.36731
3.239	66.97083
3.2395	66.46729
3.24	99.2981
3.2405	95.37048
3.241	54.48303
3.2415	-29.60815
3.242	-121.55457
3.2425	-186.61194
3.243	-221.75903
3.2435	-251.4679
3.244	-323.172
3.2445	-367.48352
3.245	-355.59998
3.2455	-330.92651
3.246	-301.01624
3.2465	-234.04541
3.247	-171.10291
3.2475	-148.74573
3.248	-140.28625
3.2485	-168.58521
3.249	-113.29651
3.2495	-142.60254
3.25	-120.14465
3.2505	27.6947
3.251	196.68274
3.2515	301.51978
3.252	409.47876
3.2525	544.02466
3.253	593.97583
3.2535	539.19067
3.254	461.24268
3.2545	324.4812
3.255	173.01636
3.2555	16.51611
3.256	-165.46326
3.2565	-318.53943
3.257	-386.01379
3.2575	-405.85327
3.258	-422.47009
3.2585	-482.29065
3.259	-421.86584
3.2595	-361.84387
3.26	-296.18225
3.2605	-262.74719
3.261	-240.28931
3.2615	-194.26575
3.262	-143.00537
3.2625	-112.99438
3.263	-80.26428
3.2635	-71.20056
3.264	-81.17065
3.2645	-86.00464
3.265	-85.5011
3.2655	-95.97473
3.266	-107.45544
3.2665	-88.52234
3.267	-72.30835
3.2675	-52.67029
3.268	-1.71204
3.2685	46.42639
3.269	83.88977
3.2695	95.06836
3.27	115.41138
3.2705	129.81262
3.271	111.78589
3.2715	76.53809
3.272	54.18091
3.2725	34.64355
3.273	26.3855
3.2735	42.90161
3.274	65.25879
3.2745	57.40356
3.275	44.51294
3.2755	14.60266
3.276	-16.01257
3.2765	-31.52161
3.277	-32.83081
3.2775	-37.86621
3.278	-48.94409
3.2785	-24.16992
3.279	0.10071
3.2795	38.974
3.28	88.92517
3.2805	114.80713
3.281	102.42004
3.2815	118.63403
3.282	147.43652
3.2825	157.00378
3.283	149.14856
3.2835	142.19971
3.284	112.59155
3.2845	94.66553
3.285	69.68994
3.2855	59.92126
3.286	39.77966
3.2865	17.6239
3.287	-1.51062
3.2875	-43.80798
3.288	-71.7041
3.2885	-70.3949
3.289	-76.53809
3.2895	-116.72058
3.29	-212.29248
3.2905	-252.27356
3.291	-235.85815
3.2915	-121.75598
3.292	-33.9386
3.2925	40.38391
3.293	104.4342
3.2935	168.88733
3.294	230.82275
3.2945	285.00366
3.295	318.94226
3.2955	322.16492
3.296	312.69836
3.2965	287.62207
3.297	253.88489
3.2975	221.05408
3.298	212.4939
3.2985	222.16187
3.299	165.06042
3.2995	107.25403
3.3	56.29578
3.3005	13.49487
3.301	-118.13049
3.3015	-233.54187
3.302	-210.0769
3.3025	-135.45227
3.303	-53.97949
3.3035	39.67896
3.304	85.60181
3.3045	86.50818
3.305	103.125
3.3055	135.75439
3.306	159.42078
3.3065	140.58838
3.307	113.29651
3.3075	56.39648
3.308	10.37292
3.3085	-23.76709
3.309	-0.10071
3.3095	61.6333
3.31	81.17065
3.3105	35.14709
3.311	-27.89612
3.3115	-103.93066
3.312	-154.58679
3.3125	-172.00928
3.313	-152.67334
3.3135	-95.06836
3.314	-38.87329
3.3145	-17.32178
3.315	-7.25098
3.3155	-11.88354
3.316	-32.7301
3.3165	-58.51135
3.317	-81.7749
3.3175	-158.11157
3.318	-244.31763
3.3185	-275.93994
3.319	-295.17517
3.3195	-293.86597
3.32	-267.37976
3.3205	-179.26025
3.321	-127.09351
3.3215	-92.44995
3.322	-76.7395
3.3225	-49.0448
3.323	17.72461
3.3235	97.28394
3.324	155.9967
3.3245	256.10046
3.325	387.52441
3.3255	466.07666
3.326	452.88391
3.3265	391.45203
3.327	368.89343
3.3275	297.39075
3.328	212.39319
3.3285	113.29651
3.329	41.59241
3.3295	-3.8269
3.33	-34.74426
3.3305	-50.45471
3.331	-120.95032
3.3315	-196.88416
3.332	-214.70947
3.3325	-190.23743
3.333	-176.23901
3.3335	-140.99121
3.334	-86.00464
3.3345	-30.41382
3.335	-67.67578
3.3355	-200.0061
3.336	-280.87463
3.3365	-295.67871
3.337	-254.18701
3.3375	-196.88416
3.338	-141.69617
3.3385	-60.22339
3.339	40.38391
3.3395	300.91553
3.34	529.92554
3.3405	670.51392
3.341	742.82227
3.3415	797.20459
3.342	802.23999
3.3425	770.9198
3.343	709.99146
3.3435	659.73816
3.344	633.8562
3.3445	562.65564
3.345	393.96973
3.3455	163.34839
3.346	-52.06604
3.3465	-258.61816
3.347	-401.92566
3.3475	-490.34729
3.348	-604.65088
3.3485	-702.94189
3.349	-728.62244
3.3495	-757.1228
3.35	-793.47839
3.3505	-788.24158
3.351	-757.42493
3.3515	-692.46826
3.352	-622.5769
3.3525	-513.40942
3.353	-426.80054
3.3535	-373.526
3.354	-292.75818
3.3545	-149.95422
3.355	-28.19824
3.3555	83.88977
3.356	164.95972
3.3565	223.8739
3.357	247.54028
3.3575	265.76843
3.358	266.27197
3.3585	224.27673
3.359	171.30432
3.3595	136.15723
3.36	73.51685
3.3605	3.02124
3.361	-66.16516
3.3615	-101.51367
3.362	-166.16821
3.3625	-138.47351
3.363	-62.13684
3.3635	42.29736
3.364	96.27686
3.3645	116.01562
3.365	138.87634
3.3655	150.65918
3.366	140.38696
3.3665	111.78589
3.367	95.16907
3.3675	53.47595
3.368	-17.42249
3.3685	-74.12109
3.369	-137.76855
3.3695	-216.3208
3.37	-254.79126
3.3705	-220.44983
3.371	-206.55212
3.3715	-154.18396
3.372	-61.43188
3.3725	34.44214
3.373	91.44287
3.3735	132.12891
3.374	186.81335
3.3745	194.16504
3.375	153.57971
3.3755	106.04553
3.376	34.03931
3.3765	-24.37134
3.377	-66.87012
3.3775	-110.98022
3.378	-130.01404
3.3785	-141.69617
3.379	-146.02661
3.3795	-144.41528
3.38	-106.75049
3.3805	-35.2478
3.381	26.88904
3.3815	70.89844
3.382	96.47827
3.3825	109.26819
3.383	122.76306
3.3835	118.73474
3.384	123.56873
3.3845	139.17847
3.385	145.32166
3.3855	143.00537
3.386	145.22095
3.3865	148.94714
3.387	167.276
3.3875	194.66858
3.388	204.53796
3.3885	203.32947
3.389	184.19495
3.3895	146.42944
3.39	81.67419
3.3905	-27.09045
3.391	-176.74255
3.3915	-243.00842
3.392	-267.58118
3.3925	-299.20349
3.393	-321.56067
3.3935	-320.755
3.394	-248.34595
3.3945	-144.21387
3.395	-14.60266
3.3955	95.47119
3.396	255.19409
3.3965	379.06494
3.397	484.30481
3.3975	556.10962
3.398	600.92468
3.3985	608.37708
3.399	590.24963
3.3995	537.07581
3.4	456.81152
3.4005	366.37573
3.401	229.21143
3.4015	57.50427
3.402	-125.98572
3.4025	-231.12488
3.403	-296.48438
3.4035	-393.6676
3.404	-504.94995
3.4045	-707.77588
3.405	-809.18884
3.4055	-765.07874
3.406	-662.15515
3.4065	-518.64624
3.407	-287.82349
3.4075	-81.17065
3.408	101.31226
3.4085	249.0509
3.409	368.4906
3.4095	425.79346
3.41	434.65576
3.4105	395.48035
3.411	344.52209
3.4115	278.05481
3.412	206.04858
3.4125	153.479
3.413	168.88733
3.4135	161.13281
3.414	133.94165
3.4145	146.32874
3.415	181.67725
3.4155	234.64966
3.416	277.65198
3.4165	300.6134
3.417	306.25305
3.4175	300.91553
3.418	221.96045
3.4185	103.82996
3.419	17.12036
3.4195	-24.27063
3.42	-21.24939
3.4205	-24.16992
3.421	-29.10461
3.4215	-53.27454
3.422	-88.82446
3.4225	-138.27209
3.423	-160.12573
3.4235	-143.00537
3.424	-168.18237
3.4245	-255.2948
3.425	-279.06189
3.4255	-261.03516
3.426	-229.11072
3.4265	-168.08167
3.427	-92.44995
3.4275	-30.51453
3.428	10.37292
3.4285	63.54675
3.429	100.30518
3.4295	69.08569
3.43	15.30762
3.4305	-46.62781
3.431	-119.84253
3.4315	-178.05176
3.432	-203.53088
3.4325	-251.06506
3.433	-267.98401
3.4335	-255.69763
3.434	-269.89746
3.4345	-310.98633
3.435	-317.83447
3.4355	-308.26721
3.436	-278.75977
3.4365	-236.05957
3.437	-208.96912
3.4375	-178.15247
3.438	-149.04785
3.4385	-115.61279
3.439	-90.93933
3.4395	-45.11719
3.44	8.45947
3.4405	43.40515
3.441	72.20764
3.4415	109.3689
3.442	146.22803
3.4425	170.70007
3.443	184.8999
3.4435	198.09265
3.444	200.30823
3.4445	225.28381
3.445	252.97852
3.4455	256.90613
3.446	194.66858
3.4465	110.6781
3.447	57.40356
3.4475	12.99133
3.448	-26.68762
3.4485	-60.12268
3.449	-45.52002
3.4495	-11.17859
3.45	8.7616
3.4505	-13.89771
3.451	-77.04163
3.4515	-101.41296
3.452	-104.83704
3.4525	-86.8103
3.453	-67.17224
3.4535	-26.78833
3.454	15.40833
3.4545	37.56409
3.455	25.88196
3.4555	48.54126
3.456	82.07703
3.4565	108.1604
3.457	102.52075
3.4575	82.07703
3.458	62.43896
3.4585	72.61047
3.459	91.8457
3.4595	116.41846
3.46	150.75989
3.4605	151.76697
3.461	120.84961
3.4615	72.50977
3.462	72.00623
3.4625	101.9165
3.463	111.78589
3.4635	76.7395
3.464	32.02515
3.4645	28.60107
3.465	68.58215
3.4655	135.04944
3.466	186.41052
3.4665	183.28857
3.467	114.60571
3.4675	32.12585
3.468	-73.91968
3.4685	-133.74023
3.469	-153.17688
3.4695	-188.02185
3.47	-192.55371
3.4705	-158.61511
3.471	-129.5105
3.4715	-85.90393
3.472	-31.62231
3.4725	46.22498
3.473	134.84802
3.4735	140.48767
3.474	181.97937
3.4745	254.99268
3.475	329.91943
3.4755	396.89026
3.476	472.9248
3.4765	521.56677
3.477	475.94604
3.4775	389.43787
3.478	334.95483
3.4785	246.02966
3.479	93.15491
3.4795	-53.97949
3.48	-169.59229
3.4805	-241.29639
3.481	-254.28772
3.4815	-247.23816
3.482	-262.8479
3.4825	-297.59216
3.483	-343.11218
3.4835	-399.81079
3.484	-449.66125
3.4845	-444.92798
3.485	-381.0791
3.4855	-302.82898
3.486	-228.40576
3.4865	-172.51282
3.487	-129.71191
3.4875	-105.13916
3.488	-70.19348
3.4885	-46.12427
3.489	-23.76709
3.4895	8.96301
3.49	42.39807
3.4905	49.24622
3.491	48.03772
3.4915	34.74426
3.492	2.41699
3.4925	-34.94568
3.493	-58.51135
3.4935	-81.7749
3.494	-93.85986
3.4945	-93.65845
3.495	-79.76074
3.4955	-67.67578
3.496	-68.48145
3.4965	-72.30835
3.497	-86.10535
3.4975	-97.38464
3.498	-94.56482
3.4985	-98.19031
3.499	-84.39331
3.4995	-64.05029
3.5	-17.22107
3.5005	32.83081
3.501	75.12817
3.5015	91.14075
3.502	97.78748
3.5025	100.30518
3.503	82.88269
3.5035	69.68994
3.504	53.67737
3.5045	32.52869
3.505	13.29346
3.5055	5.23682
3.506	-37.86621
3.5065	-81.06995
3.507	-100.70801
3.5075	-111.68518
3.508	-107.75757
3.5085	-95.77332
3.509	-54.38232
3.5095	-18.93311
3.51	0.50354
3.5105	29.60815
3.511	8.25806
3.5115	4.02832
3.512	37.26196
3.5125	53.47595
3.513	40.2832
3.5135	4.43115
3.514	36.15417
3.5145	88.72375
3.515	179.05884
3.5155	263.15002
3.516	357.31201
3.5165	447.24426
3.517	523.78235
3.5175	560.9436
3.518	553.18909
3.5185	523.37952
3.519	482.18994
3.5195	412.80212
3.52	284.90295
3.5205	126.89209
3.521	0
3.5215	-158.11157
3.522	-285.91003
3.5225	-288.32703
3.523	-246.83533
3.5235	-212.79602
3.524	-143.3075
3.5245	-68.98499
3.525	-21.85364
3.5255	2.41699
3.526	20.04089
3.5265	33.43506
3.527	53.67737
3.5275	69.79065
3.528	97.68677
3.5285	102.01721
3.529	91.04004
3.5295	60.72693
3.53	75.02747
3.5305	82.37915
3.531	68.58215
3.5315	73.91968
3.532	63.14392
3.5325	28.29895
3.533	-11.17859
3.5335	-43.50586
3.534	-31.72302
3.5345	-30.51453
3.535	-73.11401
3.5355	-96.47827
3.536	-97.68677
3.5365	-78.55225
3.537	-87.71667
3.5375	-93.15491
3.538	-111.08093
3.5385	-128.60413
3.539	-166.87317
3.5395	-193.76221
3.54	-217.5293
3.5405	-233.23975
3.541	-227.6001
3.5415	-215.21301
3.542	-212.19177
3.5425	-207.15637
3.543	-221.15479
3.5435	-202.5238
3.544	-147.83936
3.5445	-100.20447
3.545	-64.75525
3.5455	-40.2832
3.546	-12.38708
3.5465	26.58691
3.547	50.55542
3.5475	67.67578
3.548	80.06287
3.5485	32.7301
3.549	-5.53894
3.5495	-16.81824
3.55	-20.84656
3.5505	-19.83948
3.551	5.0354
3.5515	53.47595
3.552	50.65613
3.5525	33.9386
3.553	48.94409
3.5535	5.94177
3.554	-27.89612
3.5545	1.61133
3.555	38.67188
3.5555	55.89294
3.556	60.72693
3.5565	86.20605
3.557	76.03455
3.5575	57.60498
3.558	42.8009
3.5585	23.16284
3.559	-43.80798
3.5595	-181.27441
3.56	-249.35303
3.5605	-213.60168
3.561	-126.18713
3.5615	-24.27063
3.562	93.96057
3.5625	178.45459
3.563	259.42383
3.5635	310.48279
3.564	364.86511
3.5645	410.68726
3.565	399.40796
3.5655	318.74084
3.566	202.4231
3.5665	118.83545
3.567	49.85046
3.5675	8.05664
3.568	-84.99756
3.5685	-119.23828
3.569	-87.71667
3.5695	-32.42798
3.57	-15.91187
3.5705	-38.87329
3.571	0
3.5715	20.24231
3.572	41.69312
3.5725	44.21082
3.573	37.16125
3.5735	29.50745
3.574	86.10535
3.5745	148.3429
3.575	151.46484
3.5755	174.52698
3.576	210.78186
3.5765	289.83765
3.577	405.24902
3.5775	523.88306
3.578	608.47778
3.5785	627.41089
3.579	636.97815
3.5795	597.70203
3.58	472.62268
3.5805	265.96985
3.581	17.82532
3.5815	-244.21692
3.582	-404.14124
3.5825	-459.53064
3.583	-480.07507
3.5835	-464.66675
3.584	-431.93665
3.5845	-446.84143
3.585	-548.45581
3.5855	-663.56506
3.586	-692.66968
3.5865	-666.38489
3.587	-621.06628
3.5875	-541.20483
3.588	-443.82019
3.5885	-298.80066
3.589	-121.9574
3.5895	18.32886
3.59	117.02271
3.5905	172.10999
3.591	158.21228
3.5915	189.53247
3.592	192.453
3.5925	161.0321
3.593	130.8197
3.5935	93.15491
3.594	94.96765
3.5945	91.24146
3.595	55.2887
3.5955	11.2793
3.596	-37.86621
3.5965	-106.44836
3.597	-162.2406
3.5975	-175.53406
3.598	-135.25085
3.5985	-101.71509
3.599	-95.06836
3.5995	-99.90234
3.6	-97.78748
3.6005	-87.51526
3.601	-72.50977
3.6015	-8.56018
3.602	82.27844
3.6025	168.4845
3.603	227.80151
3.6035	269.39392
3.604	298.90137
3.6045	343.01147
3.605	371.20972
3.6055	363.95874
3.606	313.70544
3.6065	248.24524
3.607	154.28467
3.6075	62.8418
3.608	4.12903
3.6085	-41.59241
3.609	-58.51135
3.6095	-72.20764
3.61	-104.83704
3.6105	-135.95581
3.611	-134.14307
3.6115	-120.84961
3.612	-145.9259
3.6125	-168.98804
3.613	-160.52856
3.6135	-147.33582
3.614	-132.33032
3.6145	-110.98022
3.615	-113.09509
3.6155	-170.09583
3.616	-212.29248
3.6165	-199.60327
3.617	-172.00928
3.6175	-187.82043
3.618	-160.72998
3.6185	-132.33032
3.619	-61.43188
3.6195	39.57825
3.62	117.12341
3.6205	164.55688
3.621	188.42468
3.6215	233.13904
3.622	273.92578
3.6225	309.17358
3.623	289.93835
3.6235	235.1532
3.624	181.27441
3.6245	121.55457
3.625	68.07861
3.6255	4.02832
3.626	-53.47595
3.6265	-106.54907
3.627	-156.19812
3.6275	-198.6969
3.628	-238.07373
3.6285	-219.03992
3.629	-144.01245
3.6295	-59.31702
3.63	37.36267
3.6305	145.01953
3.631	217.83142
3.6315	246.23108
3.632	249.75586
3.6325	246.63391
3.633	216.42151
3.6335	161.13281
3.634	95.37048
3.6345	1.71204
3.635	-83.38623
3.6355	-93.75916
3.636	-77.44446
3.6365	-70.29419
3.637	-124.87793
3.6375	-219.24133
3.638	-354.99573
3.6385	-406.75964
3.639	-394.37256
3.6395	-325.08545
3.64	-250.2594
3.6405	-150.75989
3.641	-8.15735
3.6415	119.64111
3.642	195.87708
3.6425	240.28931
3.643	266.97693
3.6435	256.30188
3.644	226.49231
3.6445	177.64893
3.645	164.7583
3.6455	179.36096
3.646	252.87781
3.6465	315.82031
3.647	341.40015
3.6475	398.30017
3.648	477.05383
3.6485	531.73828
3.649	541.30554
3.6495	546.84448
3.65	510.48889
3.6505	398.703
3.651	201.31531
3.6515	16.51611
3.652	-103.125
3.6525	-178.45459
3.653	-219.34204
3.6535	-273.12012
3.654	-269.89746
3.6545	-273.12012
3.655	-274.1272
3.6555	-270.80383
3.656	-300.31128
3.6565	-343.41431
3.657	-322.56775
3.6575	-242.00134
3.658	-176.23901
3.6585	-205.74646
3.659	-394.47327
3.6595	-478.86658
3.66	-466.68091
3.6605	-423.07434
3.661	-381.98547
3.6615	-276.6449
3.662	-127.59705
3.6625	-0.20142
3.663	111.48376
3.6635	151.06201
3.664	202.02026
3.6645	219.54346
3.665	199.60327
3.6655	167.98096
3.666	161.13281
3.6665	128.80554
3.667	72.50977
3.6675	11.68213
3.668	-31.52161
3.6685	-86.40747
3.669	-130.41687
3.6695	-163.24768
3.67	-153.88184
3.6705	-111.58447
3.671	-76.03455
3.6715	-63.44604
3.672	-33.43506
3.6725	11.07788
3.673	16.91895
3.6735	28.70178
3.674	48.33984
3.6745	5.74036
3.675	12.28638
3.6755	70.19348
3.676	168.38379
3.6765	228.10364
3.677	250.96436
3.6775	260.43091
3.678	253.88489
3.6785	241.29639
3.679	179.05884
3.6795	127.49634
3.68	67.17224
3.6805	23.46497
3.681	-0.70496
3.6815	16.11328
3.682	47.23206
3.6825	59.71985
3.683	97.48535
3.6835	142.30042
3.684	175.93689
3.6845	165.46326
3.685	130.21545
3.6855	108.96606
3.686	93.45703
3.6865	58.91418
3.687	27.99683
3.6875	-9.36584
3.688	-24.27063
3.6885	46.5271
3.689	102.62146
3.6895	125.28076
3.69	108.46252
3.6905	52.06604
3.691	25.27771
3.6915	-1.61133
3.692	-16.61682
3.6925	-64.151
3.693	-134.84802
3.6935	-144.6167
3.694	-124.57581
3.6945	-49.54834
3.695	32.12585
3.6955	95.97473
3.696	101.21155
3.6965	61.53259
3.697	-15.71045
3.6975	-55.49011
3.698	-74.62463
3.6985	-119.64111
3.699	-158.01086
3.6995	-169.89441
3.7	-159.21936
3.7005	-156.90308
3.701	-184.79919
3.7015	-159.52148
3.702	-173.01636
3.7025	-189.23035
3.703	-193.76221
3.7035	-204.23584
3.704	-207.15637
3.7045	-192.55371
3.705	-152.1698
3.7055	-109.57031
3.706	-91.54358
3.7065	-64.35242
3.707	-32.93152
3.7075	-1.10779
3.708	44.31152
3.7085	97.58606
3.709	139.68201
3.7095	145.72449
3.71	150.65918
3.7105	171.20361
3.711	186.00769
3.7115	201.81885
3.712	195.77637
3.7125	166.47034
3.713	145.8252
3.7135	133.94165
3.714	108.1604
3.7145	57.60498
3.715	7.35168
3.7155	-42.7002
3.716	-180.87158
3.7165	-433.74939
3.717	-583.5022
3.7175	-556.31104
3.718	-467.38586
3.7185	-370.80688
3.719	-270.60242
3.7195	-79.86145
3.72	74.32251
3.7205	234.14612
3.721	386.61804
3.7215	430.82886
3.722	421.3623
3.7225	356.70776
3.723	218.33496
3.7235	41.79382
3.724	-62.23755
3.7245	-138.77563
3.725	-158.4137
3.7255	-157.00378
3.726	-134.04236
3.7265	-105.54199
3.727	-62.74109
3.7275	-12.68921
3.728	31.92444
3.7285	68.17932
3.729	86.40747
3.7295	107.55615
3.73	147.83936
3.7305	205.54504
3.731	265.66772
3.7315	344.11926
3.732	440.29541
3.7325	500.31738
3.733	527.91138
3.7335	495.28198
3.734	474.73755
3.7345	453.28674
3.735	395.98389
3.7355	300.91553
3.736	163.4491
3.7365	29.50745
3.737	-41.29028
3.7375	-51.26038
3.738	-67.07153
3.7385	-112.28943
3.739	-181.37512
3.7395	-251.5686
3.74	-291.95251
3.7405	-310.6842
3.741	-303.93677
3.7415	-274.22791
3.742	-251.77002
3.7425	-242.40417
3.743	-258.41675
3.7435	-267.17834
3.744	-237.16736
3.7445	-154.6875
3.745	-80.76782
3.7455	-0.70496
3.746	82.27844
3.7465	93.55774
3.747	13.99841
3.7475	-99.80164
3.748	-171.70715
3.7485	-185.60486
3.749	-177.85034
3.7495	-41.59241
3.75	155.59387
3.7505	319.54651
3.751	465.06958
3.7515	567.48962
3.752	701.93481
3.7525	810.39734
3.753	860.44922
3.7535	809.69238
3.754	718.1488
3.7545	589.94751
3.755	405.85327
3.7555	170.19653
3.756	-66.26587
3.7565	-235.05249
3.757	-373.22388
3.7575	-448.55347
3.758	-501.92871
3.7585	-507.76978
3.759	-498.60535
3.7595	-490.85083
3.76	-523.48022
3.7605	-572.92786
3.761	-588.03406
3.7615	-533.95386
3.762	-450.66833
3.7625	-356.30493
3.763	-272.81799
3.7635	-180.87158
3.764	-117.82837
3.7645	-59.01489
3.765	8.05664
3.7655	45.01648
3.766	70.09277
3.7665	79.05579
3.767	59.01489
3.7675	-2.21558
3.768	-40.98816
3.7685	-84.59473
3.769	-116.72058
3.7695	-172.10999
3.77	-216.22009
3.7705	-224.47815
3.771	-195.57495
3.7715	-166.0675
3.772	-135.45227
3.7725	-142.19971
3.773	-139.48059
3.7735	-104.03137
3.774	-56.09436
3.7745	-25.47913
3.775	1.71204
3.7755	35.34851
3.776	56.90002
3.7765	60.3241
3.777	40.2832
3.7775	31.11877
3.778	16.01257
3.7785	8.25806
3.779	6.2439
3.7795	16.01257
3.78	13.59558
3.7805	36.4563
3.781	89.12659
3.7815	151.76697
3.782	194.46716
3.7825	200.10681
3.783	172.3114
3.7835	179.26025
3.784	242.20276
3.7845	261.74011
3.785	241.90063
3.7855	250.05798
3.786	250.76294
3.7865	186.71265
3.787	87.01172
3.7875	69.89136
3.788	85.70251
3.7885	1.2085
3.789	-118.2312
3.7895	-184.29565
3.79	-147.03369
3.7905	-97.18323
3.791	-84.19189
3.7915	-56.69861
3.792	-9.36584
3.7925	9.46655
3.793	42.19666
3.7935	98.79456
3.794	101.51367
3.7945	75.32959
3.795	44.61365
3.7955	49.64905
3.796	34.64355
3.7965	-1.3092
3.797	1.61133
3.7975	19.13452
