Antonio_Festa_Left_1.c3d  



Time(s):	B_R_bicipite(μV):
0	6.74744
0.0005	5.43823
0.001	7.5531
0.0015	9.56726
0.002	2.41699
0.0025	1.40991
0.003	1.51062
0.0035	7.75452
0.004	5.43823
0.0045	2.5177
0.005	2.11487
0.0055	4.53186
0.006	6.44531
0.0065	4.93469
0.007	4.93469
0.0075	2.01416
0.008	3.32336
0.0085	8.7616
0.009	5.63965
0.0095	-1.91345
0.01	9.26514
0.0105	7.65381
0.011	6.2439
0.0115	6.54602
0.012	8.66089
0.0125	10.17151
0.013	2.31628
0.0135	9.46655
0.014	6.64673
0.0145	8.05664
0.015	5.13611
0.0155	8.25806
0.016	6.74744
0.0165	6.2439
0.017	7.25098
0.0175	5.84106
0.018	3.22266
0.0185	1.40991
0.019	10.37292
0.0195	6.2439
0.02	9.66797
0.0205	11.68213
0.021	7.35168
0.0215	8.45947
0.022	6.44531
0.0225	4.93469
0.023	5.33752
0.0235	0.80566
0.024	2.71912
0.0245	6.84814
0.025	2.81982
0.0255	7.04956
0.026	1.00708
0.0265	2.11487
0.027	4.12903
0.0275	3.12195
0.028	5.84106
0.0285	-1.40991
0.029	3.12195
0.0295	-0.90637
0.03	4.93469
0.0305	6.2439
0.031	6.3446
0.0315	3.02124
0.032	2.71912
0.0325	3.02124
0.033	3.8269
0.0335	6.3446
0.034	4.53186
0.0345	4.63257
0.035	3.52478
0.0355	7.65381
0.036	4.73328
0.0365	2.61841
0.037	10.97717
0.0375	9.16443
0.038	4.93469
0.0385	3.62549
0.039	3.7262
0.0395	5.63965
0.04	2.61841
0.0405	3.12195
0.041	5.13611
0.0415	-3.02124
0.042	3.7262
0.0425	5.0354
0.043	1.81274
0.0435	3.32336
0.044	7.15027
0.0445	5.23682
0.045	6.04248
0.0455	10.0708
0.046	11.58142
0.0465	9.06372
0.047	4.43115
0.0475	1.61133
0.048	6.04248
0.0485	5.63965
0.049	4.73328
0.0495	5.84106
0.05	9.66797
0.0505	5.43823
0.051	9.06372
0.0515	7.25098
0.052	5.43823
0.0525	6.04248
0.053	9.06372
0.0535	9.16443
0.054	6.44531
0.0545	4.83398
0.055	7.25098
0.0555	10.77576
0.056	5.33752
0.0565	4.22974
0.057	2.5177
0.0575	10.47363
0.058	7.95593
0.0585	-1.00708
0.059	3.42407
0.0595	5.84106
0.06	7.15027
0.0605	3.7262
0.061	5.0354
0.0615	3.7262
0.062	5.63965
0.0625	9.26514
0.063	7.45239
0.0635	4.12903
0.064	7.85522
0.0645	4.93469
0.065	10.27222
0.0655	7.5531
0.066	3.22266
0.0665	8.56018
0.067	8.56018
0.0675	6.84814
0.068	8.15735
0.0685	1.71204
0.069	4.12903
0.0695	3.42407
0.07	4.83398
0.0705	13.797
0.071	8.35876
0.0715	11.58142
0.072	8.96301
0.0725	6.44531
0.073	2.31628
0.0735	8.25806
0.074	0.80566
0.0745	-2.5177
0.075	6.64673
0.0755	6.94885
0.076	5.43823
0.0765	10.27222
0.077	4.43115
0.0775	10.27222
0.078	7.85522
0.0785	11.78284
0.079	9.06372
0.0795	5.23682
0.08	12.5885
0.0805	10.57434
0.081	8.35876
0.0815	7.35168
0.082	5.43823
0.0825	5.84106
0.083	0.20142
0.0835	7.5531
0.084	4.43115
0.0845	5.94177
0.085	8.25806
0.0855	8.15735
0.086	6.84814
0.0865	6.3446
0.087	5.33752
0.0875	5.74036
0.088	7.75452
0.0885	7.75452
0.089	3.8269
0.0895	9.76868
0.09	6.3446
0.0905	6.2439
0.091	11.38
0.0915	6.74744
0.092	10.0708
0.0925	4.53186
0.093	7.45239
0.0935	5.0354
0.094	2.41699
0.0945	2.92053
0.095	6.94885
0.0955	8.15735
0.096	5.33752
0.0965	2.92053
0.097	4.43115
0.0975	-0.70496
0.098	3.12195
0.0985	5.13611
0.099	2.11487
0.0995	2.92053
0.1	-0.80566
0.1005	5.13611
0.101	5.84106
0.1015	6.84814
0.102	9.66797
0.1025	4.22974
0.103	3.52478
0.1035	4.33044
0.104	-0.30212
0.1045	8.25806
0.105	12.68921
0.1055	11.78284
0.106	8.05664
0.1065	5.94177
0.107	5.53894
0.1075	7.35168
0.108	7.65381
0.1085	9.86938
0.109	4.22974
0.1095	3.42407
0.11	8.15735
0.1105	4.02832
0.111	6.14319
0.1115	6.2439
0.112	5.94177
0.1125	9.76868
0.113	8.66089
0.1135	7.95593
0.114	11.07788
0.1145	8.45947
0.115	13.29346
0.1155	5.53894
0.116	6.04248
0.1165	4.53186
0.117	4.02832
0.1175	9.36584
0.118	7.25098
0.1185	7.85522
0.119	7.65381
0.1195	3.92761
0.12	3.8269
0.1205	7.25098
0.121	3.7262
0.1215	2.81982
0.122	6.2439
0.1225	1.2085
0.123	7.85522
0.1235	5.43823
0.124	7.04956
0.1245	6.94885
0.125	7.5531
0.1255	4.83398
0.126	8.35876
0.1265	9.36584
0.127	5.53894
0.1275	3.32336
0.128	7.5531
0.1285	3.22266
0.129	4.53186
0.1295	4.02832
0.13	6.54602
0.1305	4.33044
0.131	6.74744
0.1315	9.36584
0.132	6.04248
0.1325	3.32336
0.133	3.42407
0.1335	2.61841
0.134	2.61841
0.1345	8.56018
0.135	-0.60425
0.1355	2.71912
0.136	3.8269
0.1365	7.85522
0.137	7.95593
0.1375	5.13611
0.138	7.04956
0.1385	4.33044
0.139	8.15735
0.1395	7.35168
0.14	8.35876
0.1405	7.25098
0.141	9.97009
0.1415	10.67505
0.142	3.32336
0.1425	9.46655
0.143	10.27222
0.1435	6.44531
0.144	-0.10071
0.1445	2.71912
0.145	6.3446
0.1455	3.92761
0.146	4.02832
0.1465	4.12903
0.147	5.23682
0.1475	5.84106
0.148	2.81982
0.1485	0.20142
0.149	6.14319
0.1495	7.85522
0.15	4.33044
0.1505	7.95593
0.151	8.45947
0.1515	8.15735
0.152	0.40283
0.1525	4.93469
0.153	4.63257
0.1535	2.61841
0.154	7.85522
0.1545	5.13611
0.155	6.94885
0.1555	3.12195
0.156	6.44531
0.1565	5.84106
0.157	5.43823
0.1575	6.2439
0.158	8.7616
0.1585	13.09204
0.159	7.85522
0.1595	10.87646
0.16	6.04248
0.1605	10.67505
0.161	14.70337
0.1615	10.97717
0.162	10.17151
0.1625	10.0708
0.163	3.8269
0.1635	7.95593
0.164	7.5531
0.1645	9.36584
0.165	9.06372
0.1655	7.85522
0.166	6.94885
0.1665	5.33752
0.167	9.97009
0.1675	7.04956
0.168	4.53186
0.1685	7.75452
0.169	10.77576
0.1695	6.84814
0.17	9.36584
0.1705	11.68213
0.171	7.85522
0.1715	10.57434
0.172	4.83398
0.1725	1.71204
0.173	3.8269
0.1735	7.5531
0.174	11.38
0.1745	3.02124
0.175	4.43115
0.1755	2.71912
0.176	8.35876
0.1765	7.65381
0.177	4.93469
0.1775	4.93469
0.178	13.29346
0.1785	9.46655
0.179	6.3446
0.1795	6.84814
0.18	4.02832
0.1805	7.5531
0.181	8.56018
0.1815	7.45239
0.182	3.12195
0.1825	4.43115
0.183	11.17859
0.1835	9.76868
0.184	7.85522
0.1845	9.56726
0.185	2.5177
0.1855	1.40991
0.186	11.78284
0.1865	4.43115
0.187	6.94885
0.1875	1.91345
0.188	6.2439
0.1885	1.2085
0.189	3.02124
0.1895	4.43115
0.19	5.94177
0.1905	6.14319
0.191	5.23682
0.1915	5.84106
0.192	6.44531
0.1925	9.66797
0.193	7.75452
0.1935	7.5531
0.194	2.71912
0.1945	-1.91345
0.195	3.62549
0.1955	6.2439
0.196	9.46655
0.1965	5.94177
0.197	6.44531
0.1975	10.37292
0.198	3.02124
0.1985	0
0.199	4.12903
0.1995	5.74036
0.2	8.66089
0.2005	6.84814
0.201	6.3446
0.2015	6.54602
0.202	8.05664
0.2025	10.37292
0.203	10.37292
0.2035	10.17151
0.204	7.15027
0.2045	0.10071
0.205	4.63257
0.2055	6.2439
0.206	7.65381
0.2065	8.05664
0.207	10.37292
0.2075	10.27222
0.208	8.15735
0.2085	6.74744
0.209	9.46655
0.2095	8.56018
0.21	6.64673
0.2105	8.66089
0.211	10.97717
0.2115	6.64673
0.212	6.54602
0.2125	12.08496
0.213	5.33752
0.2135	5.13611
0.214	5.94177
0.2145	8.7616
0.215	9.46655
0.2155	1.00708
0.216	9.66797
0.2165	5.23682
0.217	0.70496
0.2175	1.10779
0.218	2.31628
0.2185	5.84106
0.219	3.8269
0.2195	4.53186
0.22	11.68213
0.2205	6.3446
0.221	6.44531
0.2215	6.3446
0.222	6.3446
0.2225	5.53894
0.223	5.0354
0.2235	2.01416
0.224	2.5177
0.2245	5.33752
0.225	6.54602
0.2255	5.74036
0.226	4.73328
0.2265	9.56726
0.227	6.54602
0.2275	5.74036
0.228	8.05664
0.2285	6.44531
0.229	3.7262
0.2295	6.2439
0.23	7.04956
0.2305	4.73328
0.231	7.04956
0.2315	5.84106
0.232	6.04248
0.2325	4.12903
0.233	3.7262
0.2335	-0.30212
0.234	2.11487
0.2345	5.33752
0.235	4.63257
0.2355	0.50354
0.236	6.14319
0.2365	2.01416
0.237	-0.10071
0.2375	-0.70496
0.238	-0.10071
0.2385	0.10071
0.239	0.90637
0.2395	-0.30212
0.24	4.93469
0.2405	5.74036
0.241	-1.2085
0.2415	0.20142
0.242	1.10779
0.2425	4.43115
0.243	3.52478
0.2435	2.41699
0.244	3.22266
0.2445	1.10779
0.245	-0.70496
0.2455	-1.71204
0.246	-0.10071
0.2465	-0.10071
0.247	2.11487
0.2475	1.2085
0.248	1.81274
0.2485	0.10071
0.249	1.81274
0.2495	5.53894
0.25	3.32336
0.2505	6.2439
0.251	5.63965
0.2515	7.95593
0.252	2.21558
0.2525	6.44531
0.253	5.94177
0.2535	3.42407
0.254	7.04956
0.2545	6.14319
0.255	4.22974
0.2555	4.02832
0.256	3.92761
0.2565	4.33044
0.257	3.32336
0.2575	5.0354
0.258	5.74036
0.2585	5.94177
0.259	6.04248
0.2595	4.12903
0.26	3.62549
0.2605	6.44531
0.261	3.62549
0.2615	10.47363
0.262	9.36584
0.2625	5.53894
0.263	1.51062
0.2635	9.76868
0.264	5.43823
0.2645	4.12903
0.265	2.31628
0.2655	5.53894
0.266	6.3446
0.2665	4.63257
0.267	2.21558
0.2675	5.0354
0.268	7.95593
0.2685	7.75452
0.269	11.98425
0.2695	5.23682
0.27	7.04956
0.2705	1.81274
0.271	3.7262
0.2715	1.81274
0.272	6.44531
0.2725	6.3446
0.273	1.3092
0.2735	7.35168
0.274	1.91345
0.2745	5.84106
0.275	6.54602
0.2755	3.7262
0.276	11.17859
0.2765	7.15027
0.277	11.68213
0.2775	6.44531
0.278	11.38
0.2785	7.04956
0.279	7.95593
0.2795	8.15735
0.28	11.38
0.2805	5.63965
0.281	3.32336
0.2815	7.5531
0.282	9.06372
0.2825	10.77576
0.283	7.75452
0.2835	9.97009
0.284	10.27222
0.2845	11.98425
0.285	6.54602
0.2855	4.73328
0.286	3.8269
0.2865	5.23682
0.287	3.42407
0.2875	5.63965
0.288	3.22266
0.2885	10.17151
0.289	5.84106
0.2895	7.35168
0.29	5.94177
0.2905	1.40991
0.291	6.54602
0.2915	8.96301
0.292	9.16443
0.2925	6.14319
0.293	11.78284
0.2935	6.84814
0.294	8.35876
0.2945	8.05664
0.295	7.04956
0.2955	9.06372
0.296	4.93469
0.2965	4.33044
0.297	7.45239
0.2975	5.43823
0.298	6.04248
0.2985	8.05664
0.299	4.33044
0.2995	6.54602
0.3	-2.61841
0.3005	0.20142
0.301	3.62549
0.3015	4.83398
0.302	4.73328
0.3025	4.43115
0.303	-0.80566
0.3035	4.83398
0.304	2.31628
0.3045	3.8269
0.305	6.74744
0.3055	5.94177
0.306	0.90637
0.3065	6.14319
0.307	7.04956
0.3075	5.43823
0.308	-2.31628
0.3085	2.81982
0.309	2.81982
0.3095	4.33044
0.31	2.92053
0.3105	3.7262
0.311	-0.50354
0.3115	4.33044
0.312	5.53894
0.3125	5.33752
0.313	7.65381
0.3135	1.81274
0.314	2.41699
0.3145	8.45947
0.315	3.7262
0.3155	-0.30212
0.316	5.53894
0.3165	3.92761
0.317	7.25098
0.3175	3.12195
0.318	3.22266
0.3185	9.66797
0.319	8.7616
0.3195	5.74036
0.32	7.85522
0.3205	6.64673
0.321	9.36584
0.3215	7.15027
0.322	3.02124
0.3225	1.51062
0.323	6.94885
0.3235	2.61841
0.324	6.64673
0.3245	3.8269
0.325	4.12903
0.3255	10.67505
0.326	5.0354
0.3265	3.62549
0.327	6.64673
0.3275	2.92053
0.328	9.26514
0.3285	5.53894
0.329	5.23682
0.3295	3.8269
0.33	5.74036
0.3305	5.53894
0.331	10.0708
0.3315	5.23682
0.332	4.33044
0.3325	5.43823
0.333	6.74744
0.3335	11.17859
0.334	2.61841
0.3345	7.65381
0.335	10.37292
0.3355	5.94177
0.336	12.5885
0.3365	7.5531
0.337	11.38
0.3375	9.16443
0.338	11.48071
0.3385	10.67505
0.339	6.54602
0.3395	3.02124
0.34	8.66089
0.3405	9.97009
0.341	5.43823
0.3415	7.65381
0.342	3.42407
0.3425	7.65381
0.343	1.40991
0.3435	6.64673
0.344	4.43115
0.3445	2.81982
0.345	7.65381
0.3455	3.7262
0.346	2.81982
0.3465	4.43115
0.347	2.5177
0.3475	-0.10071
0.348	0.20142
0.3485	5.23682
0.349	0.80566
0.3495	6.44531
0.35	3.12195
0.3505	3.32336
0.351	4.02832
0.3515	0.20142
0.352	-1.81274
0.3525	4.22974
0.353	2.01416
0.3535	8.56018
0.354	10.77576
0.3545	6.3446
0.355	0.40283
0.3555	6.04248
0.356	2.5177
0.3565	10.67505
0.357	5.94177
0.3575	3.92761
0.358	4.12903
0.3585	0.20142
0.359	4.02832
0.3595	5.53894
0.36	4.12903
0.3605	1.00708
0.361	4.22974
0.3615	2.81982
0.362	-0.20142
0.3625	5.43823
0.363	-0.10071
0.3635	1.51062
0.364	3.22266
0.3645	6.44531
0.365	2.01416
0.3655	5.53894
0.366	1.51062
0.3665	1.91345
0.367	4.73328
0.3675	5.43823
0.368	5.13611
0.3685	-0.40283
0.369	4.22974
0.3695	7.35168
0.37	7.95593
0.3705	4.43115
0.371	3.12195
0.3715	5.74036
0.372	6.2439
0.3725	2.81982
0.373	2.31628
0.3735	5.33752
0.374	5.13611
0.3745	5.74036
0.375	7.15027
0.3755	5.33752
0.376	6.44531
0.3765	3.12195
0.377	0.80566
0.3775	4.33044
0.378	5.23682
0.3785	5.53894
0.379	3.52478
0.3795	4.02832
0.38	0.70496
0.3805	-1.40991
0.381	7.15027
0.3815	4.53186
0.382	6.74744
0.3825	2.81982
0.383	-2.41699
0.3835	-5.43823
0.384	4.33044
0.3845	10.0708
0.385	8.45947
0.3855	2.11487
0.386	8.8623
0.3865	3.12195
0.387	-0.40283
0.3875	0.10071
0.388	1.71204
0.3885	5.13611
0.389	5.74036
0.3895	6.64673
0.39	6.04248
0.3905	1.91345
0.391	4.53186
0.3915	11.07788
0.392	4.33044
0.3925	7.85522
0.393	6.04248
0.3935	3.22266
0.394	1.40991
0.3945	-0.10071
0.395	6.14319
0.3955	12.38708
0.396	8.96301
0.3965	9.97009
0.397	3.52478
0.3975	8.05664
0.398	3.92761
0.3985	4.22974
0.399	6.3446
0.3995	3.22266
0.4	2.71912
0.4005	0.60425
0.401	5.43823
0.4015	9.46655
0.402	4.53186
0.4025	3.52478
0.403	3.52478
0.4035	3.02124
0.404	8.45947
0.4045	10.77576
0.405	10.57434
0.4055	7.04956
0.406	5.53894
0.4065	9.76868
0.407	8.8623
0.4075	8.25806
0.408	2.61841
0.4085	4.33044
0.409	4.93469
0.4095	5.74036
0.41	6.54602
0.4105	5.53894
0.411	5.23682
0.4115	2.61841
0.412	-1.00708
0.4125	1.3092
0.413	11.88354
0.4135	7.45239
0.414	10.47363
0.4145	2.31628
0.415	0.90637
0.4155	3.02124
0.416	5.84106
0.4165	3.32336
0.417	4.12903
0.4175	1.2085
0.418	8.25806
0.4185	4.12903
0.419	5.53894
0.4195	8.7616
0.42	0.90637
0.4205	7.45239
0.421	12.68921
0.4215	10.87646
0.422	9.76868
0.4225	7.25098
0.423	7.04956
0.4235	7.45239
0.424	5.84106
0.4245	6.64673
0.425	8.25806
0.4255	7.15027
0.426	8.8623
0.4265	9.06372
0.427	2.21558
0.4275	5.43823
0.428	5.0354
0.4285	7.65381
0.429	4.73328
0.4295	5.53894
0.43	3.62549
0.4305	13.19275
0.431	5.74036
0.4315	7.85522
0.432	7.45239
0.4325	9.06372
0.433	6.44531
0.4335	9.06372
0.434	3.52478
0.4345	2.81982
0.435	9.86938
0.4355	6.44531
0.436	6.54602
0.4365	10.27222
0.437	3.12195
0.4375	5.0354
0.438	7.25098
0.4385	4.33044
0.439	5.13611
0.4395	4.22974
0.44	5.23682
0.4405	6.3446
0.441	2.61841
0.4415	6.54602
0.442	8.45947
0.4425	10.37292
0.443	12.68921
0.4435	7.45239
0.444	9.36584
0.4445	3.8269
0.445	8.66089
0.4455	6.94885
0.446	3.42407
0.4465	5.33752
0.447	4.83398
0.4475	0.70496
0.448	1.3092
0.4485	-1.81274
0.449	4.53186
0.4495	7.45239
0.45	3.42407
0.4505	8.15735
0.451	4.53186
0.4515	4.63257
0.452	3.02124
0.4525	5.63965
0.453	5.94177
0.4535	8.45947
0.454	5.63965
0.4545	5.23682
0.455	7.65381
0.4555	8.56018
0.456	2.92053
0.4565	5.74036
0.457	6.04248
0.4575	12.78992
0.458	4.43115
0.4585	10.0708
0.459	9.97009
0.4595	6.54602
0.46	11.68213
0.4605	6.84814
0.461	8.96301
0.4615	8.45947
0.462	9.36584
0.4625	7.35168
0.463	5.94177
0.4635	6.54602
0.464	8.66089
0.4645	0.40283
0.465	0.30212
0.4655	5.43823
0.466	1.10779
0.4665	2.71912
0.467	4.93469
0.4675	7.04956
0.468	3.7262
0.4685	-3.02124
0.469	1.40991
0.4695	5.94177
0.47	5.53894
0.4705	7.04956
0.471	5.63965
0.4715	8.25806
0.472	6.44531
0.4725	11.98425
0.473	4.43115
0.4735	7.45239
0.474	3.22266
0.4745	6.3446
0.475	4.53186
0.4755	5.74036
0.476	6.2439
0.4765	3.8269
0.477	2.61841
0.4775	-1.3092
0.478	7.04956
0.4785	0.30212
0.479	6.74744
0.4795	3.92761
0.48	1.51062
0.4805	3.12195
0.481	6.64673
0.4815	4.02832
0.482	2.61841
0.4825	0.90637
0.483	4.02832
0.4835	6.14319
0.484	-0.80566
0.4845	6.54602
0.485	11.17859
0.4855	4.93469
0.486	1.61133
0.4865	6.44531
0.487	5.23682
0.4875	2.41699
0.488	6.84814
0.4885	3.7262
0.489	2.71912
0.4895	7.85522
0.49	0.50354
0.4905	4.73328
0.491	9.06372
0.4915	9.66797
0.492	4.02832
0.4925	7.35168
0.493	5.43823
0.4935	3.92761
0.494	-3.62549
0.4945	1.2085
0.495	3.52478
0.4955	3.32336
0.496	3.7262
0.4965	7.95593
0.497	6.64673
0.4975	8.05664
0.498	7.5531
0.4985	4.93469
0.499	9.16443
0.4995	7.45239
0.5	9.76868
0.5005	12.78992
0.501	9.97009
0.5015	11.78284
0.502	8.56018
0.5025	6.74744
0.503	7.5531
0.5035	9.26514
0.504	3.7262
0.5045	4.53186
0.505	2.21558
0.5055	7.95593
0.506	7.04956
0.5065	8.96301
0.507	3.7262
0.5075	2.31628
0.508	8.15735
0.5085	8.56018
0.509	3.12195
0.5095	5.43823
0.51	6.3446
0.5105	5.53894
0.511	7.15027
0.5115	9.26514
0.512	6.84814
0.5125	6.14319
0.513	4.73328
0.5135	8.15735
0.514	8.7616
0.5145	7.95593
0.515	2.31628
0.5155	6.2439
0.516	3.42407
0.5165	2.21558
0.517	5.74036
0.5175	3.62549
0.518	4.02832
0.5185	5.84106
0.519	5.74036
0.5195	11.58142
0.52	6.84814
0.5205	0.10071
0.521	4.93469
0.5215	4.33044
0.522	3.7262
0.5225	2.31628
0.523	1.71204
0.5235	8.7616
0.524	7.5531
0.5245	6.14319
0.525	5.94177
0.5255	4.02832
0.526	10.0708
0.5265	4.63257
0.527	2.01416
0.5275	10.27222
0.528	9.66797
0.5285	3.42407
0.529	6.84814
0.5295	5.23682
0.53	6.04248
0.5305	1.3092
0.531	9.86938
0.5315	4.63257
0.532	0.10071
0.5325	4.63257
0.533	5.43823
0.5335	10.57434
0.534	9.36584
0.5345	8.25806
0.535	9.56726
0.5355	12.28638
0.536	3.62549
0.5365	6.44531
0.537	5.94177
0.5375	3.12195
0.538	7.04956
0.5385	8.66089
0.539	7.85522
0.5395	11.98425
0.54	7.25098
0.5405	8.15735
0.541	7.85522
0.5415	1.81274
0.542	4.93469
0.5425	4.93469
0.543	9.36584
0.5435	6.94885
0.544	4.93469
0.5445	5.74036
0.545	10.87646
0.5455	6.2439
0.546	8.96301
0.5465	6.74744
0.547	8.05664
0.5475	6.74744
0.548	11.98425
0.5485	5.63965
0.549	13.59558
0.5495	9.97009
0.55	9.16443
0.5505	8.35876
0.551	10.67505
0.5515	6.54602
0.552	0.40283
0.5525	5.53894
0.553	3.62549
0.5535	5.23682
0.554	3.42407
0.5545	5.63965
0.555	5.84106
0.5555	10.77576
0.556	11.88354
0.5565	10.27222
0.557	6.84814
0.5575	8.8623
0.558	4.63257
0.5585	3.22266
0.559	9.66797
0.5595	7.25098
0.56	7.15027
0.5605	4.63257
0.561	2.41699
0.5615	7.15027
0.562	11.07788
0.5625	8.56018
0.563	13.09204
0.5635	14.09912
0.564	10.87646
0.5645	8.8623
0.565	12.08496
0.5655	9.46655
0.566	8.15735
0.5665	4.83398
0.567	12.28638
0.5675	8.45947
0.568	11.78284
0.5685	3.02124
0.569	1.2085
0.5695	7.45239
0.57	-0.10071
0.5705	-4.33044
0.571	-2.71912
0.5715	-3.62549
0.572	-2.71912
0.5725	-0.40283
0.573	-1.51062
0.5735	1.00708
0.574	-0.60425
0.5745	0.20142
0.575	-1.51062
0.5755	-5.13611
0.576	-8.8623
0.5765	-2.01416
0.577	-4.12903
0.5775	-6.94885
0.578	-6.44531
0.5785	-5.53894
0.579	-3.8269
0.5795	-1.51062
0.58	-4.73328
0.5805	-6.2439
0.581	-9.56726
0.5815	-7.65381
0.582	-4.43115
0.5825	-2.71912
0.583	-4.43115
0.5835	-5.43823
0.584	-8.25806
0.5845	-6.74744
0.585	-6.14319
0.5855	-6.84814
0.586	-0.90637
0.5865	-1.81274
0.587	-4.02832
0.5875	-4.83398
0.588	-6.04248
0.5885	-4.43115
0.589	1.3092
0.5895	1.61133
0.59	-4.33044
0.5905	-4.22974
0.591	-1.51062
0.5915	-4.22974
0.592	-2.11487
0.5925	-2.01416
0.593	-1.51062
0.5935	2.21558
0.594	1.10779
0.5945	-0.70496
0.595	-0.70496
0.5955	2.61841
0.596	4.63257
0.5965	1.81274
0.597	3.12195
0.5975	8.96301
0.598	6.2439
0.5985	3.02124
0.599	9.86938
0.5995	11.88354
0.6	4.43115
0.6005	6.2439
0.601	3.02124
0.6015	4.33044
0.602	4.83398
0.6025	7.5531
0.603	8.25806
0.6035	6.44531
0.604	4.53186
0.6045	2.92053
0.605	4.43115
0.6055	7.5531
0.606	-0.70496
0.6065	6.74744
0.607	3.52478
0.6075	2.92053
0.608	4.12903
0.6085	4.43115
0.609	5.63965
0.6095	10.37292
0.61	7.65381
0.6105	7.75452
0.611	7.15027
0.6115	12.38708
0.612	5.33752
0.6125	6.04248
0.613	9.16443
0.6135	11.07788
0.614	9.36584
0.6145	12.78992
0.615	17.42249
0.6155	16.11328
0.616	13.49487
0.6165	13.89771
0.617	16.3147
0.6175	14.80408
0.618	16.11328
0.6185	15.71045
0.619	12.48779
0.6195	16.81824
0.62	18.42957
0.6205	15.60974
0.621	15.20691
0.6215	15.20691
0.622	15.1062
0.6225	17.52319
0.623	15.91187
0.6235	8.96301
0.624	12.28638
0.6245	10.37292
0.625	17.42249
0.6255	14.09912
0.626	8.7616
0.6265	3.92761
0.627	8.8623
0.6275	10.0708
0.628	12.28638
0.6285	11.2793
0.629	15.50903
0.6295	14.09912
0.63	9.86938
0.6305	12.68921
0.631	9.76868
0.6315	8.45947
0.632	12.48779
0.6325	14.30054
0.633	8.25806
0.6335	10.77576
0.634	14.19983
0.6345	12.38708
0.635	13.39417
0.6355	12.78992
0.636	9.66797
0.6365	6.44531
0.637	10.87646
0.6375	8.7616
0.638	9.97009
0.6385	9.16443
0.639	15.60974
0.6395	9.76868
0.64	13.39417
0.6405	6.64673
0.641	7.25098
0.6415	11.2793
0.642	1.40991
0.6425	4.93469
0.643	8.45947
0.6435	8.25806
0.644	8.7616
0.6445	12.68921
0.645	5.53894
0.6455	7.35168
0.646	8.25806
0.6465	10.17151
0.647	7.15027
0.6475	5.43823
0.648	9.46655
0.6485	10.87646
0.649	9.46655
0.6495	8.8623
0.65	3.62549
0.6505	5.13611
0.651	5.94177
0.6515	8.25806
0.652	6.44531
0.6525	4.93469
0.653	7.25098
0.6535	9.16443
0.654	4.53186
0.6545	9.06372
0.655	8.05664
0.6555	12.89062
0.656	9.36584
0.6565	9.76868
0.657	11.38
0.6575	10.27222
0.658	3.92761
0.6585	6.94885
0.659	4.02832
0.6595	4.43115
0.66	7.5531
0.6605	7.35168
0.661	2.92053
0.6615	0.90637
0.662	-2.11487
0.6625	7.65381
0.663	2.11487
0.6635	4.63257
0.664	4.53186
0.6645	3.8269
0.665	3.42407
0.6655	4.53186
0.666	1.3092
0.6665	2.81982
0.667	0.50354
0.6675	2.71912
0.668	3.8269
0.6685	2.61841
0.669	2.21558
0.6695	6.44531
0.67	7.95593
0.6705	8.25806
0.671	4.93469
0.6715	3.22266
0.672	1.91345
0.6725	7.95593
0.673	6.84814
0.6735	8.05664
0.674	8.8623
0.6745	7.35168
0.675	6.84814
0.6755	-0.10071
0.676	5.0354
0.6765	2.5177
0.677	3.8269
0.6775	4.83398
0.678	5.94177
0.6785	4.53186
0.679	4.43115
0.6795	5.74036
0.68	4.83398
0.6805	13.39417
0.681	9.36584
0.6815	7.5531
0.682	4.12903
0.6825	2.92053
0.683	2.71912
0.6835	6.14319
0.684	4.53186
0.6845	3.62549
0.685	6.2439
0.6855	5.23682
0.686	4.83398
0.6865	6.2439
0.687	5.94177
0.6875	7.15027
0.688	8.15735
0.6885	10.87646
0.689	9.46655
0.6895	5.33752
0.69	11.48071
0.6905	5.74036
0.691	3.62549
0.6915	2.81982
0.692	-2.01416
0.6925	1.91345
0.693	3.52478
0.6935	3.7262
0.694	4.73328
0.6945	3.52478
0.695	4.63257
0.6955	2.01416
0.696	8.8623
0.6965	7.65381
0.697	8.96301
0.6975	12.08496
0.698	7.35168
0.6985	6.74744
0.699	7.25098
0.6995	3.02124
0.7	3.7262
0.7005	7.65381
0.701	5.84106
0.7015	6.14319
0.702	9.26514
0.7025	6.2439
0.703	2.92053
0.7035	7.35168
0.704	9.36584
0.7045	4.83398
0.705	7.45239
0.7055	4.63257
0.706	5.13611
0.7065	1.91345
0.707	8.35876
0.7075	7.35168
0.708	0.70496
0.7085	6.3446
0.709	1.40991
0.7095	4.02832
0.71	6.14319
0.7105	12.89062
0.711	4.43115
0.7115	7.25098
0.712	8.8623
0.7125	8.35876
0.713	10.97717
0.7135	4.63257
0.714	11.68213
0.7145	3.8269
0.715	6.3446
0.7155	4.63257
0.716	11.17859
0.7165	7.65381
0.717	7.65381
0.7175	6.3446
0.718	4.22974
0.7185	10.47363
0.719	5.94177
0.7195	11.88354
0.72	7.15027
0.7205	9.36584
0.721	4.93469
0.7215	4.33044
0.722	1.91345
0.7225	-3.02124
0.723	8.8623
0.7235	5.0354
0.724	4.33044
0.7245	9.26514
0.725	5.0354
0.7255	7.75452
0.726	8.15735
0.7265	7.35168
0.727	1.2085
0.7275	4.93469
0.728	7.15027
0.7285	9.46655
0.729	5.63965
0.7295	2.41699
0.73	4.12903
0.7305	4.73328
0.731	6.04248
0.7315	4.02832
0.732	0.40283
0.7325	2.61841
0.733	1.81274
0.7335	5.53894
0.734	7.15027
0.7345	4.93469
0.735	10.37292
0.7355	3.62549
0.736	3.62549
0.7365	8.25806
0.737	13.99841
0.7375	11.58142
0.738	6.64673
0.7385	5.43823
0.739	8.56018
0.7395	1.91345
0.74	4.43115
0.7405	4.43115
0.741	2.5177
0.7415	3.12195
0.742	1.81274
0.7425	5.53894
0.743	5.74036
0.7435	11.88354
0.744	9.16443
0.7445	7.75452
0.745	10.67505
0.7455	8.8623
0.746	7.15027
0.7465	8.96301
0.747	3.92761
0.7475	4.93469
0.748	2.71912
0.7485	-1.3092
0.749	-0.50354
0.7495	3.32336
0.75	0.50354
0.7505	1.71204
0.751	8.45947
0.7515	6.3446
0.752	2.81982
0.7525	7.65381
0.753	0.80566
0.7535	3.12195
0.754	3.7262
0.7545	7.5531
0.755	10.67505
0.7555	5.84106
0.756	3.32336
0.7565	8.96301
0.757	5.74036
0.7575	7.15027
0.758	6.54602
0.7585	6.14319
0.759	3.7262
0.7595	3.22266
0.76	6.14319
0.7605	9.26514
0.761	5.84106
0.7615	6.14319
0.762	10.0708
0.7625	7.5531
0.763	6.3446
0.7635	10.97717
0.764	5.53894
0.7645	11.07788
0.765	2.61841
0.7655	4.53186
0.766	4.02832
0.7665	4.02832
0.767	0.60425
0.7675	1.91345
0.768	1.91345
0.7685	2.92053
0.769	2.61841
0.7695	7.5531
0.77	8.05664
0.7705	9.16443
0.771	5.63965
0.7715	8.7616
0.772	8.05664
0.7725	8.96301
0.773	3.62549
0.7735	2.01416
0.774	6.74744
0.7745	3.32336
0.775	8.45947
0.7755	11.58142
0.776	3.52478
0.7765	11.07788
0.777	5.33752
0.7775	10.87646
0.778	7.04956
0.7785	6.64673
0.779	9.86938
0.7795	9.86938
0.78	10.0708
0.7805	9.26514
0.781	12.38708
0.7815	9.86938
0.782	-1.00708
0.7825	1.61133
0.783	4.93469
0.7835	6.64673
0.784	5.43823
0.7845	5.33752
0.785	2.31628
0.7855	6.84814
0.786	6.84814
0.7865	5.74036
0.787	2.71912
0.7875	1.00708
0.788	-2.81982
0.7885	1.2085
0.789	2.41699
0.7895	3.52478
0.79	6.94885
0.7905	3.52478
0.791	-2.31628
0.7915	5.33752
0.792	-0.60425
0.7925	3.8269
0.793	5.23682
0.7935	2.92053
0.794	8.45947
0.7945	3.92761
0.795	7.35168
0.7955	6.04248
0.796	5.0354
0.7965	1.51062
0.797	6.2439
0.7975	2.41699
0.798	1.10779
0.7985	5.53894
0.799	3.52478
0.7995	5.63965
0.8	10.0708
0.8005	0.70496
0.801	10.27222
0.8015	12.5885
0.802	1.00708
0.8025	6.2439
0.803	13.59558
0.8035	6.2439
0.804	7.25098
0.8045	5.84106
0.805	9.66797
0.8055	3.22266
0.806	3.7262
0.8065	6.2439
0.807	4.22974
0.8075	8.35876
0.808	8.25806
0.8085	3.92761
0.809	5.43823
0.8095	8.15735
0.81	8.7616
0.8105	6.2439
0.811	3.52478
0.8115	2.21558
0.812	0.40283
0.8125	6.04248
0.813	5.33752
0.8135	8.05664
0.814	6.74744
0.8145	5.23682
0.815	4.73328
0.8155	6.3446
0.816	7.85522
0.8165	4.53186
0.817	9.86938
0.8175	6.04248
0.818	7.5531
0.8185	9.66797
0.819	10.37292
0.8195	10.57434
0.82	9.06372
0.8205	9.86938
0.821	6.3446
0.8215	8.45947
0.822	3.62549
0.8225	4.83398
0.823	3.12195
0.8235	5.43823
0.824	8.45947
0.8245	-0.70496
0.825	8.35876
0.8255	10.77576
0.826	5.23682
0.8265	3.52478
0.827	9.36584
0.8275	3.52478
0.828	6.14319
0.8285	5.33752
0.829	9.76868
0.8295	10.97717
0.83	10.27222
0.8305	1.91345
0.831	2.71912
0.8315	3.7262
0.832	1.40991
0.8325	2.31628
0.833	4.43115
0.8335	3.42407
0.834	4.53186
0.8345	7.5531
0.835	9.46655
0.8355	7.15027
0.836	8.96301
0.8365	8.56018
0.837	6.04248
0.8375	5.0354
0.838	12.18567
0.8385	8.96301
0.839	2.21558
0.8395	6.84814
0.84	5.74036
0.8405	3.7262
0.841	5.13611
0.8415	8.35876
0.842	7.75452
0.8425	1.40991
0.843	4.73328
0.8435	7.75452
0.844	8.15735
0.8445	5.74036
0.845	3.42407
0.8455	1.00708
0.846	7.04956
0.8465	2.21558
0.847	5.43823
0.8475	6.84814
0.848	7.35168
0.8485	5.33752
0.849	7.45239
0.8495	6.04248
0.85	5.63965
0.8505	2.5177
0.851	5.13611
0.8515	2.92053
0.852	-0.80566
0.8525	9.46655
0.853	6.74744
0.8535	3.12195
0.854	5.63965
0.8545	7.04956
0.855	2.11487
0.8555	2.92053
0.856	4.02832
0.8565	-1.61133
0.857	3.52478
0.8575	2.81982
0.858	5.94177
0.8585	6.84814
0.859	8.35876
0.8595	7.95593
0.86	4.33044
0.8605	2.11487
0.861	-6.14319
0.8615	-3.42407
0.862	1.71204
0.8625	3.42407
0.863	3.62549
0.8635	1.51062
0.864	-0.90637
0.8645	2.61841
0.865	5.53894
0.8655	4.22974
0.866	8.8623
0.8665	10.17151
0.867	5.13611
0.8675	8.15735
0.868	7.45239
0.8685	4.33044
0.869	5.23682
0.8695	11.78284
0.87	7.95593
0.8705	3.42407
0.871	9.76868
0.8715	8.8623
0.872	2.81982
0.8725	6.2439
0.873	8.66089
0.8735	4.53186
0.874	3.52478
0.8745	2.41699
0.875	0.90637
0.8755	4.12903
0.876	5.63965
0.8765	7.35168
0.877	11.78284
0.8775	5.0354
0.878	0.90637
0.8785	7.35168
0.879	4.83398
0.8795	2.21558
0.88	8.56018
0.8805	4.63257
0.881	2.31628
0.8815	7.85522
0.882	6.2439
0.8825	1.00708
0.883	4.33044
0.8835	5.43823
0.884	7.75452
0.8845	4.83398
0.885	3.52478
0.8855	3.32336
0.886	7.15027
0.8865	2.61841
0.887	4.53186
0.8875	2.71912
0.888	6.44531
0.8885	10.0708
0.889	10.87646
0.8895	5.63965
0.89	4.63257
0.8905	2.11487
0.891	4.12903
0.8915	5.94177
0.892	0.50354
0.8925	1.10779
0.893	4.53186
0.8935	7.25098
0.894	7.35168
0.8945	3.92761
0.895	8.15735
0.8955	3.52478
0.896	0.60425
0.8965	9.06372
0.897	8.35876
0.8975	5.43823
0.898	8.35876
0.8985	3.92761
0.899	8.56018
0.8995	6.54602
0.9	6.64673
0.9005	10.17151
0.901	6.94885
0.9015	3.7262
0.902	4.33044
0.9025	3.32336
0.903	10.87646
0.9035	13.99841
0.904	5.94177
0.9045	8.96301
0.905	7.85522
0.9055	3.62549
0.906	12.48779
0.9065	7.45239
0.907	11.88354
0.9075	7.85522
0.908	4.33044
0.9085	5.74036
0.909	9.36584
0.9095	7.95593
0.91	5.84106
0.9105	7.95593
0.911	5.13611
0.9115	4.43115
0.912	3.22266
0.9125	9.26514
0.913	13.29346
0.9135	11.48071
0.914	1.2085
0.9145	-3.32336
0.915	1.10779
0.9155	4.93469
0.916	8.25806
0.9165	2.92053
0.917	4.33044
0.9175	3.42407
0.918	9.97009
0.9185	2.31628
0.919	-1.10779
0.9195	5.23682
0.92	7.95593
0.9205	7.45239
0.921	6.74744
0.9215	2.5177
0.922	1.81274
0.9225	7.65381
0.923	6.04248
0.9235	7.75452
0.924	5.33752
0.9245	6.2439
0.925	-1.91345
0.9255	7.35168
0.926	-0.50354
0.9265	4.43115
0.927	9.56726
0.9275	7.25098
0.928	4.73328
0.9285	8.15735
0.929	3.52478
0.9295	8.56018
0.93	8.35876
0.9305	1.71204
0.931	1.61133
0.9315	5.84106
0.932	6.54602
0.9325	5.43823
0.933	5.23682
0.9335	3.22266
0.934	10.17151
0.9345	7.15027
0.935	7.95593
0.9355	2.41699
0.936	6.64673
0.9365	7.5531
0.937	8.8623
0.9375	6.84814
0.938	9.06372
0.9385	3.32336
0.939	6.14319
0.9395	4.53186
0.94	4.02832
0.9405	3.22266
0.941	5.94177
0.9415	5.53894
0.942	1.71204
0.9425	7.15027
0.943	6.44531
0.9435	5.23682
0.944	6.3446
0.9445	1.81274
0.945	2.92053
0.9455	2.01416
0.946	-0.40283
0.9465	5.13611
0.947	6.64673
0.9475	8.05664
0.948	5.33752
0.9485	-1.3092
0.949	8.96301
0.9495	2.31628
0.95	0.50354
0.9505	6.3446
0.951	4.73328
0.9515	3.42407
0.952	1.3092
0.9525	3.7262
0.953	5.0354
0.9535	6.84814
0.954	3.12195
0.9545	4.73328
0.955	7.5531
0.9555	3.52478
0.956	7.25098
0.9565	2.31628
0.957	5.43823
0.9575	8.45947
0.958	2.21558
0.9585	5.94177
0.959	10.17151
0.9595	6.64673
0.96	9.46655
0.9605	6.64673
0.961	7.45239
0.9615	1.2085
0.962	4.33044
0.9625	1.51062
0.963	4.53186
0.9635	4.33044
0.964	2.41699
0.9645	1.81274
0.965	2.21558
0.9655	4.33044
0.966	2.71912
0.9665	3.8269
0.967	3.8269
0.9675	4.43115
0.968	3.52478
0.9685	10.17151
0.969	6.74744
0.9695	7.25098
0.97	7.35168
0.9705	8.8623
0.971	9.36584
0.9715	10.87646
0.972	5.23682
0.9725	3.8269
0.973	5.53894
0.9735	7.95593
0.974	4.12903
0.9745	4.33044
0.975	4.63257
0.9755	7.75452
0.976	9.26514
0.9765	3.12195
0.977	2.21558
0.9775	8.45947
0.978	6.84814
0.9785	6.04248
0.979	5.33752
0.9795	5.13611
0.98	6.84814
0.9805	3.62549
0.981	7.95593
0.9815	3.42407
0.982	5.53894
0.9825	3.22266
0.983	8.56018
0.9835	4.33044
0.984	5.63965
0.9845	8.96301
0.985	7.25098
0.9855	6.2439
0.986	0.20142
0.9865	0.60425
0.987	9.56726
0.9875	5.84106
0.988	2.31628
0.9885	5.63965
0.989	7.65381
0.9895	10.37292
0.99	7.5531
0.9905	10.17151
0.991	10.87646
0.9915	8.56018
0.992	3.12195
0.9925	8.96301
0.993	9.06372
0.9935	7.75452
0.994	4.93469
0.9945	1.00708
0.995	9.36584
0.9955	8.35876
0.996	4.02832
0.9965	1.61133
0.997	6.64673
0.9975	0.90637
0.998	4.22974
0.9985	9.26514
0.999	11.17859
0.9995	11.38
1	2.11487
1.0005	3.42407
1.001	6.04248
1.0015	8.66089
1.002	4.33044
1.0025	1.91345
1.003	1.91345
1.0035	5.0354
1.004	0.20142
1.0045	6.74744
1.005	2.41699
1.0055	8.15735
1.006	4.83398
1.0065	5.63965
1.007	0.50354
1.0075	-0.30212
1.008	4.43115
1.0085	7.04956
1.009	-0.50354
1.0095	6.3446
1.01	5.23682
1.0105	8.7616
1.011	7.35168
1.0115	12.99133
1.012	6.04248
1.0125	2.41699
1.013	4.63257
1.0135	5.53894
1.014	9.46655
1.0145	8.7616
1.015	6.74744
1.0155	7.85522
1.016	10.0708
1.0165	5.84106
1.017	6.2439
1.0175	2.11487
1.018	10.0708
1.0185	5.43823
1.019	2.41699
1.0195	1.81274
1.02	4.93469
1.0205	3.62549
1.021	8.8623
1.0215	5.0354
1.022	1.91345
1.0225	5.94177
1.023	-1.91345
1.0235	3.7262
1.024	5.33752
1.0245	4.83398
1.025	3.32336
1.0255	5.33752
1.026	1.3092
1.0265	1.40991
1.027	-1.10779
1.0275	3.7262
1.028	2.21558
1.0285	2.71912
1.029	5.0354
1.0295	8.45947
1.03	2.71912
1.0305	4.33044
1.031	0.40283
1.0315	3.62549
1.032	6.3446
1.0325	6.3446
1.033	7.15027
1.0335	8.7616
1.034	9.16443
1.0345	6.04248
1.035	7.25098
1.0355	5.33752
1.036	4.53186
1.0365	6.04248
1.037	7.75452
1.0375	7.35168
1.038	7.35168
1.0385	6.64673
1.039	1.40991
1.0395	9.26514
1.04	6.04248
1.0405	0.60425
1.041	6.84814
1.0415	10.57434
1.042	7.75452
1.0425	3.32336
1.043	8.25806
1.0435	5.43823
1.044	11.88354
1.0445	10.67505
1.045	6.54602
1.0455	4.02832
1.046	6.04248
1.0465	4.73328
1.047	7.35168
1.0475	6.3446
1.048	4.33044
1.0485	5.13611
1.049	3.8269
1.0495	2.92053
1.05	5.23682
1.0505	3.7262
1.051	8.35876
1.0515	14.30054
1.052	9.46655
1.0525	7.75452
1.053	10.27222
1.0535	8.96301
1.054	12.08496
1.0545	5.94177
1.055	5.0354
1.0555	6.94885
1.056	5.0354
1.0565	5.0354
1.057	6.54602
1.0575	5.84106
1.058	5.13611
1.0585	4.93469
1.059	3.8269
1.0595	5.43823
1.06	3.02124
1.0605	10.67505
1.061	3.32336
1.0615	4.83398
1.062	8.56018
1.0625	7.65381
1.063	5.63965
1.0635	5.43823
1.064	2.5177
1.0645	5.53894
1.065	-1.10779
1.0655	5.84106
1.066	2.31628
1.0665	4.53186
1.067	3.12195
1.0675	3.7262
1.068	1.40991
1.0685	6.14319
1.069	12.48779
1.0695	9.16443
1.07	7.95593
1.0705	4.22974
1.071	5.13611
1.0715	5.84106
1.072	6.74744
1.0725	9.66797
1.073	9.76868
1.0735	7.95593
1.074	7.5531
1.0745	4.22974
1.075	3.8269
1.0755	-0.50354
1.076	0.10071
1.0765	-0.20142
1.077	3.12195
1.0775	5.84106
1.078	3.22266
1.0785	5.0354
1.079	1.71204
1.0795	0.30212
1.08	0.60425
1.0805	-0.50354
1.081	1.71204
1.0815	1.2085
1.082	-3.02124
1.0825	1.40991
1.083	3.02124
1.0835	1.61133
1.084	2.92053
1.0845	4.43115
1.085	2.92053
1.0855	4.33044
1.086	5.53894
1.0865	6.74744
1.087	7.65381
1.0875	6.94885
1.088	6.84814
1.0885	8.7616
1.089	10.77576
1.0895	6.54602
1.09	2.71912
1.0905	2.11487
1.091	-5.33752
1.0915	-0.70496
1.092	4.53186
1.0925	4.12903
1.093	8.35876
1.0935	7.04956
1.094	4.22974
1.0945	9.97009
1.095	9.76868
1.0955	9.36584
1.096	10.37292
1.0965	6.84814
1.097	7.35168
1.0975	9.97009
1.098	8.15735
1.0985	10.57434
1.099	10.0708
1.0995	9.46655
1.1	10.97717
1.1005	6.04248
1.101	9.36584
1.1015	5.23682
1.102	4.63257
1.1025	6.44531
1.103	11.17859
1.1035	2.11487
1.104	0.30212
1.1045	5.43823
1.105	2.61841
1.1055	4.33044
1.106	1.81274
1.1065	4.93469
1.107	2.01416
1.1075	2.41699
1.108	8.15735
1.1085	5.0354
1.109	4.12903
1.1095	5.74036
1.11	5.74036
1.1105	8.45947
1.111	7.35168
1.1115	2.21558
1.112	8.66089
1.1125	9.16443
1.113	7.25098
1.1135	8.45947
1.114	6.2439
1.1145	4.43115
1.115	7.75452
1.1155	11.48071
1.116	6.94885
1.1165	7.35168
1.117	7.15027
1.1175	4.12903
1.118	5.13611
1.1185	6.44531
1.119	1.81274
1.1195	4.53186
1.12	4.73328
1.1205	3.22266
1.121	7.85522
1.1215	3.32336
1.122	4.12903
1.1225	3.22266
1.123	8.15735
1.1235	5.43823
1.124	13.29346
1.1245	9.97009
1.125	5.74036
1.1255	5.53894
1.126	6.3446
1.1265	12.28638
1.127	3.02124
1.1275	0.20142
1.128	0.60425
1.1285	3.92761
1.129	5.84106
1.1295	3.02124
1.13	2.11487
1.1305	5.53894
1.131	3.52478
1.1315	3.8269
1.132	4.22974
1.1325	1.40991
1.133	-0.50354
1.1335	3.12195
1.134	3.22266
1.1345	7.45239
1.135	8.45947
1.1355	3.42407
1.136	10.0708
1.1365	7.04956
1.137	0.60425
1.1375	0.90637
1.138	1.00708
1.1385	5.0354
1.139	5.94177
1.1395	4.43115
1.14	5.33752
1.1405	2.41699
1.141	2.31628
1.1415	5.53894
1.142	5.0354
1.1425	2.31628
1.143	3.22266
1.1435	4.73328
1.144	2.61841
1.1445	0.20142
1.145	4.12903
1.1455	4.73328
1.146	8.7616
1.1465	5.33752
1.147	7.95593
1.1475	5.0354
1.148	11.58142
1.1485	5.84106
1.149	8.05664
1.1495	9.76868
1.15	7.95593
1.1505	8.96301
1.151	3.02124
1.1515	10.27222
1.152	3.22266
1.1525	5.53894
1.153	4.12903
1.1535	6.2439
1.154	2.71912
1.1545	7.25098
1.155	3.22266
1.1555	6.54602
1.156	9.06372
1.1565	8.25806
1.157	-2.01416
1.1575	6.2439
1.158	4.93469
1.1585	5.53894
1.159	0.80566
1.1595	5.53894
1.16	1.10779
1.1605	0.30212
1.161	4.02832
1.1615	5.53894
1.162	1.61133
1.1625	1.71204
1.163	4.12903
1.1635	2.92053
1.164	1.51062
1.1645	2.31628
1.165	2.11487
1.1655	5.63965
1.166	11.17859
1.1665	11.38
1.167	6.14319
1.1675	8.96301
1.168	12.48779
1.1685	4.73328
1.169	6.84814
1.1695	2.01416
1.17	6.3446
1.1705	3.8269
1.171	2.5177
1.1715	5.74036
1.172	2.71912
1.1725	1.51062
1.173	7.25098
1.1735	9.36584
1.174	8.35876
1.1745	9.76868
1.175	7.75452
1.1755	9.86938
1.176	8.35876
1.1765	3.12195
1.177	2.71912
1.1775	2.92053
1.178	3.52478
1.1785	3.7262
1.179	6.3446
1.1795	1.00708
1.18	7.35168
1.1805	8.35876
1.181	8.45947
1.1815	8.25806
1.182	0.40283
1.1825	5.0354
1.183	6.2439
1.1835	4.63257
1.184	4.73328
1.1845	8.66089
1.185	5.43823
1.1855	5.13611
1.186	8.35876
1.1865	10.27222
1.187	4.43115
1.1875	5.74036
1.188	7.04956
1.1885	4.73328
1.189	1.10779
1.1895	0.80566
1.19	6.3446
1.1905	2.31628
1.191	9.26514
1.1915	12.48779
1.192	2.92053
1.1925	4.93469
1.193	12.18567
1.1935	8.56018
1.194	0.30212
1.1945	4.33044
1.195	6.44531
1.1955	9.16443
1.196	8.25806
1.1965	0.40283
1.197	3.8269
1.1975	3.92761
1.198	1.51062
1.1985	3.92761
1.199	5.33752
1.1995	8.66089
1.2	3.7262
1.2005	5.0354
1.201	7.65381
1.2015	1.40991
1.202	8.7616
1.2025	4.83398
1.203	11.2793
1.2035	13.59558
1.204	9.76868
1.2045	6.44531
1.205	8.25806
1.2055	7.75452
1.206	6.04248
1.2065	8.66089
1.207	10.27222
1.2075	5.0354
1.208	8.25806
1.2085	1.91345
1.209	4.73328
1.2095	7.85522
1.21	7.35168
1.2105	6.04248
1.211	9.26514
1.2115	7.75452
1.212	7.45239
1.2125	6.2439
1.213	8.45947
1.2135	7.85522
1.214	8.15735
1.2145	7.04956
1.215	4.83398
1.2155	1.3092
1.216	5.43823
1.2165	8.7616
1.217	7.25098
1.2175	0.20142
1.218	-1.40991
1.2185	4.22974
1.219	5.0354
1.2195	9.66797
1.22	6.44531
1.2205	7.85522
1.221	3.02124
1.2215	0.90637
1.222	5.33752
1.2225	1.81274
1.223	4.63257
1.2235	5.74036
1.224	7.75452
1.2245	5.53894
1.225	6.3446
1.2255	4.63257
1.226	7.15027
1.2265	2.61841
1.227	4.12903
1.2275	3.02124
1.228	4.33044
1.2285	2.31628
1.229	6.84814
1.2295	8.35876
1.23	9.97009
1.2305	9.46655
1.231	5.53894
1.2315	9.36584
1.232	8.05664
1.2325	12.5885
1.233	8.15735
1.2335	9.26514
1.234	4.22974
1.2345	6.04248
1.235	5.74036
1.2355	6.84814
1.236	8.8623
1.2365	6.84814
1.237	11.38
1.2375	9.36584
1.238	2.5177
1.2385	6.74744
1.239	7.85522
1.2395	4.53186
1.24	8.05664
1.2405	7.04956
1.241	11.38
1.2415	11.68213
1.242	7.45239
1.2425	6.04248
1.243	7.75452
1.2435	3.92761
1.244	2.61841
1.2445	3.7262
1.245	3.22266
1.2455	8.96301
1.246	8.25806
1.2465	1.71204
1.247	4.02832
1.2475	4.33044
1.248	6.84814
1.2485	4.43115
1.249	8.7616
1.2495	5.74036
1.25	9.16443
1.2505	11.58142
1.251	8.7616
1.2515	2.31628
1.252	-0.20142
1.2525	2.92053
1.253	1.51062
1.2535	3.12195
1.254	0.50354
1.2545	8.66089
1.255	4.43115
1.2555	8.56018
1.256	4.73328
1.2565	9.86938
1.257	7.45239
1.2575	8.45947
1.258	10.37292
1.2585	8.35876
1.259	5.94177
1.2595	10.67505
1.26	12.89062
1.2605	9.97009
1.261	7.35168
1.2615	4.12903
1.262	6.44531
1.2625	3.12195
1.263	3.12195
1.2635	6.84814
1.264	4.43115
1.2645	3.02124
1.265	5.13611
1.2655	4.22974
1.266	3.7262
1.2665	1.51062
1.267	4.83398
1.2675	5.63965
1.268	4.93469
1.2685	7.25098
1.269	10.0708
1.2695	7.04956
1.27	6.64673
1.2705	4.53186
1.271	7.5531
1.2715	5.84106
1.272	7.04956
1.2725	5.84106
1.273	7.85522
1.2735	6.54602
1.274	6.44531
1.2745	4.02832
1.275	5.63965
1.2755	5.94177
1.276	7.04956
1.2765	7.15027
1.277	6.54602
1.2775	7.5531
1.278	10.57434
1.2785	5.23682
1.279	3.22266
1.2795	5.94177
1.28	7.04956
1.2805	4.22974
1.281	6.94885
1.2815	4.33044
1.282	0.70496
1.2825	4.83398
1.283	11.07788
1.2835	5.63965
1.284	2.5177
1.2845	6.84814
1.285	4.22974
1.2855	4.02832
1.286	2.5177
1.2865	5.43823
1.287	4.33044
1.2875	-0.60425
1.288	2.01416
1.2885	-1.3092
1.289	4.63257
1.2895	0.10071
1.29	3.92761
1.2905	6.2439
1.291	-0.90637
1.2915	5.33752
1.292	0.60425
1.2925	10.47363
1.293	4.22974
1.2935	4.33044
1.294	7.95593
1.2945	-1.40991
1.295	2.92053
1.2955	8.66089
1.296	5.53894
1.2965	3.92761
1.297	7.65381
1.2975	8.56018
1.298	6.44531
1.2985	5.33752
1.299	5.43823
1.2995	9.16443
1.3	2.5177
1.3005	10.77576
1.301	7.04956
1.3015	5.53894
1.302	8.25806
1.3025	6.14319
1.303	10.17151
1.3035	5.94177
1.304	5.94177
1.3045	8.96301
1.305	9.06372
1.3055	9.97009
1.306	7.95593
1.3065	10.17151
1.307	8.25806
1.3075	10.97717
1.308	2.31628
1.3085	4.73328
1.309	3.02124
1.3095	6.54602
1.31	8.7616
1.3105	1.71204
1.311	6.84814
1.3115	4.43115
1.312	5.33752
1.3125	5.0354
1.313	7.75452
1.3135	3.42407
1.314	2.81982
1.3145	5.43823
1.315	5.13611
1.3155	2.31628
1.316	2.41699
1.3165	10.0708
1.317	10.17151
1.3175	6.64673
1.318	6.64673
1.3185	1.3092
1.319	1.81274
1.3195	8.35876
1.32	4.22974
1.3205	3.02124
1.321	4.12903
1.3215	1.10779
1.322	-0.30212
1.3225	5.84106
1.323	5.43823
1.3235	2.92053
1.324	-0.30212
1.3245	4.43115
1.325	5.84106
1.3255	3.12195
1.326	2.5177
1.3265	7.45239
1.327	1.10779
1.3275	4.93469
1.328	6.64673
1.3285	0.70496
1.329	3.32336
1.3295	6.64673
1.33	3.62549
1.3305	7.75452
1.331	4.93469
1.3315	7.85522
1.332	6.3446
1.3325	2.11487
1.333	3.7262
1.3335	6.44531
1.334	4.73328
1.3345	3.7262
1.335	10.47363
1.3355	5.84106
1.336	5.23682
1.3365	7.25098
1.337	5.53894
1.3375	6.3446
1.338	7.95593
1.3385	5.0354
1.339	3.02124
1.3395	4.73328
1.34	1.91345
1.3405	6.84814
1.341	3.42407
1.3415	5.53894
1.342	3.62549
1.3425	9.36584
1.343	9.66797
1.3435	5.0354
1.344	8.35876
1.3445	6.14319
1.345	5.94177
1.3455	3.62549
1.346	8.66089
1.3465	9.26514
1.347	7.04956
1.3475	4.73328
1.348	3.42407
1.3485	5.53894
1.349	-0.40283
1.3495	1.61133
1.35	4.63257
1.3505	5.63965
1.351	3.8269
1.3515	4.73328
1.352	5.43823
1.3525	8.25806
1.353	12.78992
1.3535	4.12903
1.354	6.14319
1.3545	5.43823
1.355	5.53894
1.3555	6.04248
1.356	4.53186
1.3565	-0.60425
1.357	3.7262
1.3575	6.74744
1.358	0.70496
1.3585	4.93469
1.359	11.88354
1.3595	7.95593
1.36	10.37292
1.3605	10.57434
1.361	7.75452
1.3615	8.8623
1.362	2.11487
1.3625	1.91345
1.363	3.32336
1.3635	5.43823
1.364	3.22266
1.3645	6.74744
1.365	5.74036
1.3655	5.0354
1.366	5.94177
1.3665	3.12195
1.367	3.12195
1.3675	3.22266
1.368	0
1.3685	6.3446
1.369	-0.70496
1.3695	5.13611
1.37	5.94177
1.3705	2.11487
1.371	5.0354
1.3715	3.62549
1.372	7.04956
1.3725	4.83398
1.373	7.45239
1.3735	5.0354
1.374	5.74036
1.3745	7.35168
1.375	4.63257
1.3755	3.22266
1.376	4.22974
1.3765	9.66797
1.377	3.8269
1.3775	3.52478
1.378	0.90637
1.3785	5.23682
1.379	5.84106
1.3795	3.7262
1.38	3.02124
1.3805	8.96301
1.381	3.22266
1.3815	10.37292
1.382	6.64673
1.3825	9.86938
1.383	11.68213
1.3835	5.74036
1.384	9.06372
1.3845	3.22266
1.385	2.31628
1.3855	6.74744
1.386	10.97717
1.3865	9.26514
1.387	6.3446
1.3875	11.78284
1.388	8.66089
1.3885	14.50195
1.389	6.84814
1.3895	3.7262
1.39	8.05664
1.3905	6.84814
1.391	2.11487
1.3915	-0.50354
1.392	5.0354
1.3925	3.7262
1.393	3.12195
1.3935	9.16443
1.394	5.23682
1.3945	2.61841
1.395	4.22974
1.3955	4.63257
1.396	5.94177
1.3965	5.74036
1.397	1.51062
1.3975	2.61841
1.398	3.22266
1.3985	6.84814
1.399	4.73328
1.3995	5.0354
1.4	7.75452
1.4005	2.01416
1.401	6.04248
1.4015	9.86938
1.402	7.5531
1.4025	1.3092
1.403	6.94885
1.4035	7.25098
1.404	13.29346
1.4045	5.84106
1.405	9.06372
1.4055	9.66797
1.406	5.74036
1.4065	4.33044
1.407	0.40283
1.4075	4.22974
1.408	5.94177
1.4085	8.8623
1.409	7.85522
1.4095	9.46655
1.41	5.23682
1.4105	3.52478
1.411	2.11487
1.4115	-0.20142
1.412	-2.31628
1.4125	4.93469
1.413	10.87646
1.4135	7.15027
1.414	1.3092
1.4145	9.76868
1.415	5.63965
1.4155	8.05664
1.416	3.22266
1.4165	3.22266
1.417	2.11487
1.4175	3.62549
1.418	10.77576
1.4185	5.74036
1.419	4.73328
1.4195	6.14319
1.42	6.44531
1.4205	9.26514
1.421	12.5885
1.4215	3.12195
1.422	2.81982
1.4225	7.45239
1.423	3.8269
1.4235	9.16443
1.424	3.92761
1.4245	7.25098
1.425	11.07788
1.4255	7.95593
1.426	5.13611
1.4265	10.67505
1.427	6.14319
1.4275	5.63965
1.428	3.7262
1.4285	8.05664
1.429	4.63257
1.4295	4.53186
1.43	5.63965
1.4305	4.63257
1.431	4.22974
1.4315	7.5531
1.432	2.92053
1.4325	1.81274
1.433	9.06372
1.4335	6.44531
1.434	1.71204
1.4345	7.25098
1.435	2.11487
1.4355	1.00708
1.436	6.74744
1.4365	-1.2085
1.437	6.74744
1.4375	3.8269
1.438	-1.61133
1.4385	5.53894
1.439	5.63965
1.4395	7.75452
1.44	5.63965
1.4405	10.17151
1.441	7.45239
1.4415	1.00708
1.442	4.12903
1.4425	5.84106
1.443	2.81982
1.4435	1.51062
1.444	2.81982
1.4445	6.3446
1.445	6.2439
1.4455	8.25806
1.446	7.65381
1.4465	9.86938
1.447	3.02124
1.4475	9.97009
1.448	6.74744
1.4485	4.12903
1.449	4.93469
1.4495	5.84106
1.45	7.65381
1.4505	1.3092
1.451	6.54602
1.4515	4.73328
1.452	9.86938
1.4525	2.71912
1.453	8.05664
1.4535	10.77576
1.454	12.48779
1.4545	6.14319
1.455	2.92053
1.4555	8.25806
1.456	-1.40991
1.4565	2.21558
1.457	3.12195
1.4575	9.66797
1.458	4.73328
1.4585	3.62549
1.459	1.81274
1.4595	5.94177
1.46	6.04248
1.4605	13.09204
1.461	7.35168
1.4615	10.67505
1.462	6.84814
1.4625	5.94177
1.463	3.7262
1.4635	9.06372
1.464	7.25098
1.4645	8.96301
1.465	2.41699
1.4655	-0.70496
1.466	2.21558
1.4665	4.33044
1.467	7.04956
1.4675	5.0354
1.468	9.26514
1.4685	7.5531
1.469	5.23682
1.4695	5.84106
1.47	1.00708
1.4705	5.94177
1.471	1.10779
1.4715	5.33752
1.472	5.43823
1.4725	5.43823
1.473	8.7616
1.4735	5.0354
1.474	6.74744
1.4745	4.43115
1.475	6.2439
1.4755	5.94177
1.476	3.32336
1.4765	9.16443
1.477	8.7616
1.4775	7.85522
1.478	13.49487
1.4785	10.57434
1.479	5.43823
1.4795	3.7262
1.48	5.63965
1.4805	5.43823
1.481	3.52478
1.4815	10.0708
1.482	7.35168
1.4825	5.94177
1.483	2.92053
1.4835	1.40991
1.484	9.86938
1.4845	8.56018
1.485	9.76868
1.4855	9.76868
1.486	17.52319
1.4865	8.15735
1.487	13.39417
1.4875	10.17151
1.488	8.15735
1.4885	7.25098
1.489	9.26514
1.4895	7.45239
1.49	7.25098
1.4905	8.66089
1.491	8.05664
1.4915	12.48779
1.492	9.36584
1.4925	9.97009
1.493	7.85522
1.4935	8.66089
1.494	7.95593
1.4945	10.0708
1.495	10.67505
1.4955	9.86938
1.496	5.63965
1.4965	0.50354
1.497	2.11487
1.4975	1.00708
1.498	4.83398
1.4985	0.50354
1.499	0.80566
1.4995	6.3446
1.5	1.10779
1.5005	0.20142
1.501	2.11487
1.5015	-3.92761
1.502	-0.90637
1.5025	-5.23682
1.503	-5.74036
1.5035	-3.52478
1.504	-2.71912
1.5045	-6.74744
1.505	0.20142
1.5055	-5.0354
1.506	-4.43115
1.5065	-3.42407
1.507	-3.22266
1.5075	-8.15735
1.508	-6.14319
1.5085	-7.04956
1.509	-5.84106
1.5095	-8.15735
1.51	-7.75452
1.5105	-6.64673
1.511	-3.52478
1.5115	-4.12903
1.512	-3.42407
1.5125	-7.75452
1.513	0.90637
1.5135	-6.44531
1.514	-3.92761
1.5145	-2.01416
1.515	-4.12903
1.5155	-0.20142
1.516	-1.51062
1.5165	0.50354
1.517	1.71204
1.5175	0.20142
1.518	0.60425
1.5185	2.5177
1.519	-0.60425
1.5195	5.94177
1.52	3.62549
1.5205	5.0354
1.521	3.7262
1.5215	6.3446
1.522	2.92053
1.5225	8.05664
1.523	4.93469
1.5235	2.92053
1.524	3.8269
1.5245	5.74036
1.525	5.63965
1.5255	6.84814
1.526	9.26514
1.5265	10.37292
1.527	5.63965
1.5275	2.81982
1.528	1.3092
1.5285	4.93469
1.529	6.74744
1.5295	7.45239
1.53	8.35876
1.5305	9.46655
1.531	8.25806
1.5315	9.66797
1.532	10.97717
1.5325	7.5531
1.533	11.78284
1.5335	13.99841
1.534	18.32886
1.5345	13.19275
1.535	10.97717
1.5355	13.69629
1.536	13.39417
1.5365	16.41541
1.537	12.89062
1.5375	11.2793
1.538	16.51611
1.5385	13.09204
1.539	15.1062
1.5395	15.60974
1.54	9.86938
1.5405	13.89771
1.541	11.98425
1.5415	11.58142
1.542	14.70337
1.5425	11.48071
1.543	17.52319
1.5435	16.51611
1.544	10.57434
1.5445	13.89771
1.545	18.22815
1.5455	17.92603
1.546	17.42249
1.5465	18.8324
1.547	16.91895
1.5475	19.03381
1.548	11.07788
1.5485	13.99841
1.549	15.1062
1.5495	16.61682
1.55	16.91895
1.5505	10.47363
1.551	12.78992
1.5515	3.62549
1.552	6.94885
1.5525	12.78992
1.553	13.99841
1.5535	11.48071
1.554	10.87646
1.5545	9.46655
1.555	8.45947
1.5555	6.44531
1.556	11.07788
1.5565	4.73328
1.557	3.7262
1.5575	7.85522
1.558	5.0354
1.5585	3.02124
1.559	8.7616
1.5595	8.8623
1.56	8.45947
1.5605	10.17151
1.561	9.26514
1.5615	7.85522
1.562	9.86938
1.5625	9.56726
1.563	11.58142
1.5635	10.57434
1.564	8.96301
1.5645	6.84814
1.565	6.54602
1.5655	2.11487
1.566	10.0708
1.5665	11.98425
1.567	4.43115
1.5675	9.26514
1.568	5.63965
1.5685	5.63965
1.569	4.33044
1.5695	3.62549
1.57	5.63965
1.5705	6.04248
1.571	4.63257
1.5715	12.28638
1.572	4.73328
1.5725	1.10779
1.573	3.7262
1.5735	9.97009
1.574	9.66797
1.5745	11.38
1.575	7.04956
1.5755	9.56726
1.576	8.66089
1.5765	8.05664
1.577	6.44531
1.5775	5.53894
1.578	4.83398
1.5785	1.51062
1.579	7.65381
1.5795	1.00708
1.58	5.53894
1.5805	6.94885
1.581	0.20142
1.5815	1.40991
1.582	-1.51062
1.5825	-1.3092
1.583	2.01416
1.5835	7.85522
1.584	3.62549
1.5845	10.67505
1.585	1.10779
1.5855	9.26514
1.586	3.7262
1.5865	4.83398
1.587	4.33044
1.5875	9.16443
1.588	3.02124
1.5885	6.84814
1.589	10.0708
1.5895	12.78992
1.59	8.8623
1.5905	3.62549
1.591	7.04956
1.5915	5.74036
1.592	3.8269
1.5925	5.94177
1.593	3.02124
1.5935	0.30212
1.594	9.16443
1.5945	5.84106
1.595	7.85522
1.5955	-0.90637
1.596	2.92053
1.5965	4.73328
1.597	6.54602
1.5975	3.92761
1.598	3.7262
1.5985	2.11487
1.599	7.35168
1.5995	4.43115
1.6	5.0354
1.6005	5.63965
1.601	5.13611
1.6015	1.81274
1.602	6.84814
1.6025	7.85522
1.603	3.62549
1.6035	5.53894
1.604	2.92053
1.6045	4.22974
1.605	5.23682
1.6055	5.63965
1.606	6.2439
1.6065	7.5531
1.607	5.63965
1.6075	4.22974
1.608	2.61841
1.6085	-0.50354
1.609	0.20142
1.6095	4.53186
1.61	8.35876
1.6105	8.8623
1.611	3.32336
1.6115	8.15735
1.612	6.74744
1.6125	4.83398
1.613	5.23682
1.6135	6.84814
1.614	7.25098
1.6145	6.84814
1.615	5.63965
1.6155	6.74744
1.616	5.0354
1.6165	6.84814
1.617	5.43823
1.6175	2.31628
1.618	1.2085
1.6185	6.3446
1.619	6.74744
1.6195	4.63257
1.62	5.63965
1.6205	5.13611
1.621	4.22974
1.6215	9.76868
1.622	8.96301
1.6225	5.84106
1.623	4.53186
1.6235	3.42407
1.624	6.04248
1.6245	2.61841
1.625	-0.80566
1.6255	-2.01416
1.626	4.33044
1.6265	7.5531
1.627	8.35876
1.6275	9.46655
1.628	8.35876
1.6285	7.5531
1.629	7.25098
1.6295	2.01416
1.63	7.5531
1.6305	6.04248
1.631	2.71912
1.6315	1.00708
1.632	6.3446
1.6325	2.92053
1.633	3.92761
1.6335	5.33752
1.634	8.56018
1.6345	6.3446
1.635	9.16443
1.6355	6.44531
1.636	2.01416
1.6365	7.35168
1.637	7.85522
1.6375	6.64673
1.638	7.45239
1.6385	7.75452
1.639	4.53186
1.6395	5.53894
1.64	3.02124
1.6405	6.3446
1.641	3.22266
1.6415	9.36584
1.642	5.53894
1.6425	4.43115
1.643	2.5177
1.6435	10.47363
1.644	5.13611
1.6445	2.01416
1.645	6.64673
1.6455	9.26514
1.646	6.94885
1.6465	3.52478
1.647	11.07788
1.6475	8.66089
1.648	6.54602
1.6485	7.75452
1.649	2.92053
1.6495	6.2439
1.65	4.83398
1.6505	6.2439
1.651	6.54602
1.6515	12.28638
1.652	5.43823
1.6525	5.94177
1.653	4.33044
1.6535	3.92761
1.654	0.50354
1.6545	3.62549
1.655	6.3446
1.6555	8.66089
1.656	5.23682
1.6565	6.44531
1.657	9.66797
1.6575	8.25806
1.658	7.25098
1.6585	8.56018
1.659	6.94885
1.6595	10.0708
1.66	8.15735
1.6605	6.3446
1.661	-3.22266
1.6615	0.40283
1.662	2.01416
1.6625	10.47363
1.663	11.98425
1.6635	8.56018
1.664	4.02832
1.6645	1.10779
1.665	-1.61133
1.6655	0.40283
1.666	3.22266
1.6665	3.7262
1.667	6.3446
1.6675	4.02832
1.668	6.74744
1.6685	3.02124
1.669	4.53186
1.6695	0.60425
1.67	6.84814
1.6705	3.7262
1.671	4.33044
1.6715	9.46655
1.672	6.14319
1.6725	11.48071
1.673	7.95593
1.6735	8.7616
1.674	6.54602
1.6745	2.92053
1.675	6.44531
1.6755	5.84106
1.676	7.85522
1.6765	6.84814
1.677	4.63257
1.6775	3.02124
1.678	5.43823
1.6785	3.52478
1.679	5.84106
1.6795	0.20142
1.68	3.8269
1.6805	6.44531
1.681	5.63965
1.6815	10.0708
1.682	3.8269
1.6825	2.21558
1.683	3.52478
1.6835	2.01416
1.684	1.71204
1.6845	1.00708
1.685	3.22266
1.6855	-4.53186
1.686	5.74036
1.6865	-0.40283
1.687	7.25098
1.6875	9.76868
1.688	4.43115
1.6885	-4.63257
1.689	0.40283
1.6895	5.0354
1.69	7.04956
1.6905	6.54602
1.691	7.75452
1.6915	3.12195
1.692	4.73328
1.6925	4.02832
1.693	2.41699
1.6935	7.65381
1.694	5.13611
1.6945	4.53186
1.695	5.53894
1.6955	5.23682
1.696	5.33752
1.6965	4.12903
1.697	2.21558
1.6975	2.41699
1.698	0.50354
1.6985	-3.32336
1.699	2.41699
1.6995	3.02124
1.7	6.94885
1.7005	5.53894
1.701	6.84814
1.7015	2.5177
1.702	10.87646
1.7025	3.7262
1.703	6.94885
1.7035	7.85522
1.704	6.84814
1.7045	-0.60425
1.705	8.05664
1.7055	10.27222
1.706	7.25098
1.7065	5.0354
1.707	8.35876
1.7075	3.52478
1.708	6.64673
1.7085	0.80566
1.709	4.02832
1.7095	2.71912
1.71	1.71204
1.7105	3.22266
1.711	3.02124
1.7115	9.16443
1.712	3.02124
1.7125	5.53894
1.713	8.25806
1.7135	7.04956
1.714	4.33044
1.7145	5.43823
1.715	13.89771
1.7155	9.16443
1.716	3.42407
1.7165	6.44531
1.717	8.56018
1.7175	8.45947
1.718	8.66089
1.7185	11.07788
1.719	6.94885
1.7195	8.96301
1.72	2.01416
1.7205	3.8269
1.721	8.45947
1.7215	5.94177
1.722	7.75452
1.7225	6.44531
1.723	7.25098
1.7235	7.65381
1.724	8.96301
1.7245	4.53186
1.725	9.16443
1.7255	7.04956
1.726	5.63965
1.7265	7.15027
1.727	3.92761
1.7275	3.32336
1.728	4.83398
1.7285	2.92053
1.729	4.43115
1.7295	1.3092
1.73	1.3092
1.7305	0.50354
1.731	6.54602
1.7315	2.11487
1.732	3.52478
1.7325	4.02832
1.733	-0.30212
1.7335	2.81982
1.734	4.33044
1.7345	2.21558
1.735	4.02832
1.7355	2.71912
1.736	0.30212
1.7365	1.91345
1.737	9.26514
1.7375	9.86938
1.738	4.22974
1.7385	4.83398
1.739	3.62549
1.7395	5.13611
1.74	3.12195
1.7405	7.65381
1.741	4.93469
1.7415	-0.80566
1.742	5.43823
1.7425	5.0354
1.743	3.8269
1.7435	4.83398
1.744	4.83398
1.7445	7.85522
1.745	4.43115
1.7455	9.66797
1.746	6.64673
1.7465	8.7616
1.747	2.71912
1.7475	8.8623
1.748	8.96301
1.7485	4.22974
1.749	5.94177
1.7495	5.53894
1.75	0.60425
1.7505	1.91345
1.751	2.11487
1.7515	2.11487
1.752	5.74036
1.7525	7.15027
1.753	4.02832
1.7535	6.54602
1.754	5.74036
1.7545	11.17859
1.755	10.77576
1.7555	10.37292
1.756	2.5177
1.7565	6.94885
1.757	7.5531
1.7575	6.94885
1.758	2.11487
1.7585	5.53894
1.759	5.13611
1.7595	6.54602
1.76	6.2439
1.7605	11.78284
1.761	7.04956
1.7615	6.54602
1.762	7.04956
1.7625	7.04956
1.763	6.84814
1.7635	5.63965
1.764	8.15735
1.7645	8.35876
1.765	0
1.7655	1.91345
1.766	1.40991
1.7665	5.0354
1.767	6.54602
1.7675	2.81982
1.768	3.7262
1.7685	-3.32336
1.769	2.81982
1.7695	-1.51062
1.77	5.94177
1.7705	1.61133
1.771	7.25098
1.7715	4.73328
1.772	3.52478
1.7725	6.84814
1.773	4.83398
1.7735	1.81274
1.774	4.33044
1.7745	3.42407
1.775	5.94177
1.7755	7.25098
1.776	9.86938
1.7765	0.40283
1.777	-0.90637
1.7775	4.53186
1.778	7.04956
1.7785	4.43115
1.779	5.53894
1.7795	7.35168
1.78	2.61841
1.7805	1.40991
1.781	2.81982
1.7815	-3.12195
1.782	5.94177
1.7825	8.45947
1.783	4.43115
1.7835	-3.52478
1.784	3.12195
1.7845	0.30212
1.785	7.85522
1.7855	6.44531
1.786	8.56018
1.7865	2.92053
1.787	7.65381
1.7875	7.85522
1.788	6.84814
1.7885	5.23682
1.789	1.51062
1.7895	5.94177
1.79	10.0708
1.7905	9.46655
1.791	8.25806
1.7915	10.47363
1.792	7.25098
1.7925	10.67505
1.793	10.17151
1.7935	10.37292
1.794	5.63965
1.7945	6.14319
1.795	8.8623
1.7955	10.47363
1.796	9.16443
1.7965	3.12195
1.797	1.10779
1.7975	0.20142
1.798	-3.62549
1.7985	-0.60425
1.799	-1.40991
1.7995	1.81274
1.8	-7.75452
1.8005	-2.01416
1.801	-3.52478
1.8015	-5.33752
1.802	-8.45947
1.8025	0.60425
1.803	1.2085
1.8035	1.81274
1.804	3.42407
1.8045	3.22266
1.805	5.63965
1.8055	5.0354
1.806	2.71912
1.8065	6.94885
1.807	4.63257
1.8075	1.71204
1.808	7.65381
1.8085	0
1.809	1.40991
1.8095	-0.80566
1.81	5.63965
1.8105	10.77576
1.811	8.8623
1.8115	9.46655
1.812	8.25806
1.8125	7.95593
1.813	11.48071
1.8135	17.72461
1.814	12.78992
1.8145	10.57434
1.815	15.1062
1.8155	7.75452
1.816	10.17151
1.8165	14.80408
1.817	11.2793
1.8175	14.19983
1.818	5.23682
1.8185	5.84106
1.819	6.14319
1.8195	5.23682
1.82	2.92053
1.8205	7.5531
1.821	8.45947
1.8215	8.25806
1.822	10.97717
1.8225	12.28638
1.823	9.26514
1.8235	8.8623
1.824	5.94177
1.8245	6.3446
1.825	8.7616
1.8255	6.94885
1.826	6.64673
1.8265	4.33044
1.827	6.84814
1.8275	8.8623
1.828	6.54602
1.8285	10.67505
1.829	6.44531
1.8295	3.92761
1.83	10.57434
1.8305	-0.50354
1.831	-1.2085
1.8315	1.00708
1.832	4.12903
1.8325	1.61133
1.833	2.21558
1.8335	4.73328
1.834	7.85522
1.8345	7.15027
1.835	2.81982
1.8355	2.11487
1.836	5.94177
1.8365	4.02832
1.837	4.12903
1.8375	3.7262
1.838	10.17151
1.8385	8.35876
1.839	8.8623
1.8395	13.59558
1.84	2.81982
1.8405	10.67505
1.841	4.93469
1.8415	4.53186
1.842	3.92761
1.8425	2.31628
1.843	-0.20142
1.8435	4.63257
1.844	5.63965
1.8445	10.27222
1.845	12.99133
1.8455	7.5531
1.846	13.29346
1.8465	6.14319
1.847	4.43115
1.8475	5.23682
1.848	5.33752
1.8485	4.73328
1.849	4.33044
1.8495	-1.2085
1.85	1.61133
1.8505	9.06372
1.851	8.7616
1.8515	6.64673
1.852	3.92761
1.8525	10.17151
1.853	10.17151
1.8535	11.78284
1.854	7.65381
1.8545	9.26514
1.855	10.67505
1.8555	11.78284
1.856	9.86938
1.8565	5.74036
1.857	6.84814
1.8575	5.43823
1.858	3.22266
1.8585	1.81274
1.859	-4.73328
1.8595	-2.21558
1.86	-4.12903
1.8605	2.71912
1.861	2.61841
1.8615	3.7262
1.862	2.71912
1.8625	2.01416
1.863	2.11487
1.8635	1.81274
1.864	8.7616
1.8645	4.93469
1.865	13.59558
1.8655	15.1062
1.866	18.8324
1.8665	18.02673
1.867	21.65222
1.8675	16.91895
1.868	18.93311
1.8685	11.48071
1.869	13.29346
1.8695	15.50903
1.87	11.78284
1.8705	11.98425
1.871	7.35168
1.8715	0.40283
1.872	-2.92053
1.8725	1.51062
1.873	-3.12195
1.8735	-10.77576
1.874	-7.25098
1.8745	-2.01416
1.875	7.15027
1.8755	7.15027
1.876	9.06372
1.8765	12.28638
1.877	9.66797
1.8775	14.40125
1.878	19.63806
1.8785	14.50195
1.879	17.32178
1.8795	15.91187
1.88	12.68921
1.8805	11.88354
1.881	17.6239
1.8815	14.30054
1.882	8.7616
1.8825	12.38708
1.883	15.91187
1.8835	16.41541
1.884	11.88354
1.8845	6.74744
1.885	7.5531
1.8855	8.15735
1.886	8.56018
1.8865	7.75452
1.887	1.10779
1.8875	-2.11487
1.888	-9.97009
1.8885	-6.54602
1.889	-11.88354
1.8895	-9.86938
1.89	-9.06372
1.8905	-5.94177
1.891	-5.53894
1.8915	-5.63965
1.892	-5.43823
1.8925	-2.01416
1.893	4.12903
1.8935	2.11487
1.894	3.92761
1.8945	9.36584
1.895	5.13611
1.8955	8.25806
1.896	5.43823
1.8965	7.95593
1.897	8.96301
1.8975	8.66089
1.898	9.16443
1.8985	6.3446
1.899	5.63965
1.8995	5.94177
1.9	6.84814
1.9005	6.2439
1.901	0.30212
1.9015	-5.33752
1.902	-7.25098
1.9025	-5.23682
1.903	-1.2085
1.9035	-4.33044
1.904	-1.40991
1.9045	-2.21558
1.905	1.00708
1.9055	-1.81274
1.906	-2.71912
1.9065	-5.74036
1.907	-1.2085
1.9075	-0.20142
1.908	2.21558
1.9085	1.10779
1.909	0.70496
1.9095	6.54602
1.91	2.21558
1.9105	5.94177
1.911	-1.81274
1.9115	3.8269
1.912	0.90637
1.9125	2.31628
1.913	5.63965
1.9135	2.81982
1.914	3.52478
1.9145	0.80566
1.915	6.54602
1.9155	1.81274
1.916	3.8269
1.9165	11.17859
1.917	10.87646
1.9175	-0.50354
1.918	3.52478
1.9185	4.43115
1.919	5.74036
1.9195	-0.40283
1.92	-0.40283
1.9205	-4.22974
1.921	-6.14319
1.9215	-7.35168
1.922	-2.71912
1.9225	2.61841
1.923	1.40991
1.9235	1.91345
1.924	-1.51062
1.9245	0.50354
1.925	-1.61133
1.9255	1.40991
1.926	5.43823
1.9265	6.44531
1.927	6.94885
1.9275	15.71045
1.928	16.41541
1.9285	19.33594
1.929	16.91895
1.9295	20.1416
1.93	20.34302
1.9305	23.76709
1.931	18.73169
1.9315	13.69629
1.932	18.73169
1.9325	15.91187
1.933	15.1062
1.9335	16.71753
1.934	11.88354
1.9345	8.56018
1.935	5.33752
1.9355	-1.51062
1.936	3.7262
1.9365	3.52478
1.937	-5.33752
1.9375	1.81274
1.938	-4.12903
1.9385	-0.70496
1.939	6.04248
1.9395	1.3092
1.94	0.40283
1.9405	4.33044
1.941	8.05664
1.9415	3.62549
1.942	-1.10779
1.9425	1.00708
1.943	4.22974
1.9435	2.41699
1.944	9.86938
1.9445	11.58142
1.945	8.66089
1.9455	11.98425
1.946	10.47363
1.9465	9.46655
1.947	14.60266
1.9475	13.797
1.948	10.47363
1.9485	-0.50354
1.949	-9.46655
1.9495	-11.07788
1.95	-6.84814
1.9505	-3.42407
1.951	-4.22974
1.9515	0.90637
1.952	4.22974
1.9525	11.98425
1.953	12.89062
1.9535	17.42249
1.954	23.8678
1.9545	23.76709
1.955	20.54443
1.9555	24.87488
1.956	27.09045
1.9565	22.96143
1.957	13.59558
1.9575	11.38
1.958	8.7616
1.9585	8.56018
1.959	14.80408
1.9595	21.14868
1.96	18.8324
1.9605	18.42957
1.961	18.12744
1.9615	15.50903
1.962	15.1062
1.9625	18.12744
1.963	19.33594
1.9635	17.72461
1.964	14.40125
1.9645	11.68213
1.965	3.8269
1.9655	1.51062
1.966	-1.2085
1.9665	-4.93469
1.967	-8.8623
1.9675	-8.7616
1.968	-10.47363
1.9685	-15.60974
1.969	-14.80408
1.9695	-14.40125
1.97	-9.36584
1.9705	-6.64673
1.971	-1.51062
1.9715	-3.12195
1.972	-7.15027
1.9725	-4.73328
1.973	-2.41699
1.9735	-1.91345
1.974	-3.32336
1.9745	0.20142
1.975	-3.12195
1.9755	2.5177
1.976	-0.30212
1.9765	-4.73328
1.977	-3.32336
1.9775	-0.90637
1.978	-0.50354
1.9785	3.62549
1.979	-2.92053
1.9795	4.53186
1.98	1.10779
1.9805	5.53894
1.981	6.3446
1.9815	2.92053
1.982	6.44531
1.9825	10.0708
1.983	16.21399
1.9835	13.797
1.984	14.09912
1.9845	19.63806
1.985	20.34302
1.9855	21.45081
1.986	26.18408
1.9865	20.74585
1.987	15.91187
1.9875	10.97717
1.988	8.96301
1.9885	10.97717
1.989	3.8269
1.9895	-4.63257
1.99	1.2085
1.9905	3.02124
1.991	-1.00708
1.9915	2.41699
1.992	-0.50354
1.9925	9.06372
1.993	11.2793
1.9935	13.29346
1.994	6.14319
1.9945	9.46655
1.995	8.05664
1.9955	10.27222
1.996	6.3446
1.9965	1.40991
1.997	0.30212
1.9975	-7.5531
1.998	-6.44531
1.9985	-11.2793
1.999	-9.56726
1.9995	-9.97009
2	-1.3092
2.0005	-0.50354
2.001	4.63257
2.0015	10.17151
2.002	6.94885
2.0025	8.7616
2.003	11.88354
2.0035	7.04956
2.004	10.57434
2.0045	12.28638
2.005	10.77576
2.0055	3.32336
2.006	6.04248
2.0065	10.67505
2.007	12.38708
2.0075	11.98425
2.008	13.29346
2.0085	9.06372
2.009	12.38708
2.0095	14.09912
2.01	12.5885
2.0105	20.04089
2.011	17.82532
2.0115	17.42249
2.012	11.48071
2.0125	13.89771
2.013	20.24231
2.0135	17.42249
2.014	22.86072
2.0145	20.44373
2.015	21.65222
2.0155	16.91895
2.016	17.82532
2.0165	21.45081
2.017	27.99683
2.0175	29.50745
2.018	32.7301
2.0185	33.13293
2.019	29.10461
2.0195	32.02515
2.02	29.10461
2.0205	23.76709
2.021	23.96851
2.0215	14.40125
2.022	7.5531
2.0225	1.00708
2.023	-0.20142
2.0235	4.02832
2.024	-10.57434
2.0245	-9.86938
2.025	-9.06372
2.0255	-14.50195
2.026	-20.04089
2.0265	-15.30762
2.027	-11.88354
2.0275	-13.19275
2.028	-13.49487
2.0285	2.01416
2.029	4.12903
2.0295	5.84106
2.03	7.75452
2.0305	5.23682
2.031	8.05664
2.0315	7.75452
2.032	-2.31628
2.0325	2.11487
2.033	7.95593
2.0335	10.27222
2.034	7.45239
2.0345	2.92053
2.035	-1.71204
2.0355	-6.74744
2.036	-3.62549
2.0365	-10.97717
2.037	-14.19983
2.0375	-15.30762
2.038	-13.49487
2.0385	-15.00549
2.039	-15.1062
2.0395	-12.38708
2.04	-8.45947
2.0405	-2.5177
2.041	0.80566
2.0415	6.2439
2.042	0.40283
2.0425	8.15735
2.043	10.67505
2.0435	10.47363
2.044	7.5531
2.0445	4.93469
2.045	9.36584
2.0455	9.46655
2.046	10.77576
2.0465	8.96301
2.047	9.36584
2.0475	7.85522
2.048	8.45947
2.0485	12.68921
2.049	7.04956
2.0495	8.15735
2.05	7.65381
2.0505	12.18567
2.051	7.04956
2.0515	9.06372
2.052	14.40125
2.0525	10.67505
2.053	3.02124
2.0535	7.75452
2.054	13.29346
2.0545	15.1062
2.055	14.60266
2.0555	9.76868
2.056	15.20691
2.0565	13.19275
2.057	9.56726
2.0575	14.30054
2.058	16.81824
2.0585	14.50195
2.059	14.19983
2.0595	10.37292
2.06	13.59558
2.0605	14.70337
2.061	14.40125
2.0615	16.81824
2.062	16.41541
2.0625	18.8324
2.063	24.27063
2.0635	19.94019
2.064	16.91895
2.0645	14.50195
2.065	26.58691
2.0655	44.71436
2.066	48.84338
2.0665	43.80798
2.067	36.05347
2.0675	28.29895
2.068	16.21399
2.0685	-1.71204
2.069	-17.12036
2.0695	-33.03223
2.07	-49.34692
2.0705	-65.56091
2.071	-68.88428
2.0715	-68.88428
2.072	-63.04321
2.0725	-54.98657
2.073	-43.70728
2.0735	-32.62939
2.074	-17.42249
2.0745	-10.27222
2.075	3.32336
2.0755	10.77576
2.076	20.64514
2.0765	32.12585
2.077	31.01807
2.0775	30.81665
2.078	25.47913
2.0785	24.47205
2.079	16.21399
2.0795	19.23523
2.08	18.53027
2.0805	22.6593
2.081	18.42957
2.0815	22.45789
2.082	25.78125
2.0825	27.49329
2.083	29.00391
2.0835	24.37134
2.084	19.13452
2.0845	25.57983
2.085	19.63806
2.0855	16.51611
2.086	9.46655
2.0865	2.41699
2.087	2.11487
2.0875	1.51062
2.088	1.91345
2.0885	1.3092
2.089	6.04248
2.0895	12.38708
2.09	10.57434
2.0905	13.797
2.091	18.53027
2.0915	22.25647
2.092	22.6593
2.0925	26.48621
2.093	21.55151
2.0935	19.03381
2.094	22.6593
2.0945	20.24231
2.095	18.93311
2.0955	10.0708
2.096	10.47363
2.0965	8.96301
2.097	8.15735
2.0975	12.78992
2.098	13.99841
2.0985	10.57434
2.099	10.27222
2.0995	6.04248
2.1	9.97009
2.1005	9.97009
2.101	6.54602
2.1015	3.12195
2.102	-0.40283
2.1025	4.83398
2.103	6.84814
2.1035	9.36584
2.104	8.7616
2.1045	13.39417
2.105	11.17859
2.1055	20.1416
2.106	16.91895
2.1065	16.51611
2.107	15.40833
2.1075	16.71753
2.108	14.60266
2.1085	17.32178
2.109	17.82532
2.1095	17.72461
2.11	18.12744
2.1105	16.11328
2.111	10.97717
2.1115	12.28638
2.112	17.12036
2.1125	14.90479
2.113	22.55859
2.1135	7.45239
2.114	7.5531
2.1145	2.11487
2.115	-5.23682
2.1155	-0.60425
2.116	-2.61841
2.1165	-3.52478
2.117	-1.71204
2.1175	-6.54602
2.118	0.80566
2.1185	3.7262
2.119	-1.3092
2.1195	-6.84814
2.12	-3.22266
2.1205	-1.71204
2.121	2.92053
2.1215	6.94885
2.122	3.8269
2.1225	4.02832
2.123	7.85522
2.1235	7.15027
2.124	8.35876
2.1245	6.3446
2.125	4.93469
2.1255	5.33752
2.126	12.89062
2.1265	11.58142
2.127	8.25806
2.1275	11.07788
2.128	8.15735
2.1285	-15.50903
2.129	-31.82373
2.1295	-28.80249
2.13	-13.89771
2.1305	0.30212
2.131	9.46655
2.1315	17.12036
2.132	13.49487
2.1325	20.34302
2.133	23.36426
2.1335	20.94727
2.134	16.91895
2.1345	12.08496
2.135	15.60974
2.1355	13.89771
2.136	4.22974
2.1365	1.91345
2.137	1.2085
2.1375	-1.10779
2.138	4.33044
2.1385	0.30212
2.139	6.94885
2.1395	23.56567
2.14	35.14709
2.1405	48.74268
2.141	49.95117
2.1415	51.15967
2.142	42.49878
2.1425	35.65063
2.143	25.57983
2.1435	23.56567
2.144	14.30054
2.1445	1.61133
2.145	-5.94177
2.1455	-12.38708
2.146	-15.81116
2.1465	-18.53027
2.147	-14.09912
2.1475	-18.73169
2.148	-20.44373
2.1485	-18.42957
2.149	-21.14868
2.1495	-17.42249
2.15	-18.22815
2.1505	-12.18567
2.151	-6.14319
2.1515	-6.14319
2.152	-9.46655
2.1525	-7.85522
2.153	-4.63257
2.1535	-1.51062
2.154	2.01416
2.1545	7.04956
2.155	10.17151
2.1555	12.89062
2.156	12.38708
2.1565	13.09204
2.157	11.48071
2.1575	10.57434
2.158	6.74744
2.1585	6.84814
2.159	2.11487
2.1595	-7.45239
2.16	-19.03381
2.1605	-34.44214
2.161	-43.50586
2.1615	-45.01648
2.162	-42.8009
2.1625	-33.53577
2.163	-16.81824
2.1635	9.97009
2.164	30.01099
2.1645	38.47046
2.165	45.11719
2.1655	49.74976
2.166	50.55542
2.1665	47.43347
2.167	42.29736
2.1675	34.54285
2.168	22.35718
2.1685	18.93311
2.169	5.23682
2.1695	-6.54602
2.17	-10.0708
2.1705	-11.07788
2.171	-15.81116
2.1715	-16.81824
2.172	-17.32178
2.1725	-17.42249
2.173	-21.95435
2.1735	-18.42957
2.174	-12.38708
2.1745	-1.2085
2.175	-1.00708
2.1755	6.94885
2.176	2.21558
2.1765	0.80566
2.177	0.50354
2.1775	4.33044
2.178	4.33044
2.1785	3.7262
2.179	9.66797
2.1795	25.07629
2.18	26.48621
2.1805	26.78833
2.181	31.82373
2.1815	30.2124
2.182	28.80249
2.1825	29.91028
2.183	21.45081
2.1835	21.24939
2.184	17.01965
2.1845	11.2793
2.185	2.81982
2.1855	-1.81274
2.186	-2.81982
2.1865	-6.2439
2.187	-5.63965
2.1875	-8.56018
2.188	-8.56018
2.1885	1.81274
2.189	2.11487
2.1895	4.53186
2.19	5.33752
2.1905	7.65381
2.191	8.56018
2.1915	45.11719
2.192	67.77649
2.1925	72.20764
2.193	74.72534
2.1935	76.53809
2.194	81.97632
2.1945	83.48694
2.195	73.51685
2.1955	66.06445
2.196	45.62073
2.1965	35.75134
2.197	21.95435
2.1975	8.7616
2.198	-14.90479
2.1985	-29.40674
2.199	-38.47046
2.1995	-39.37683
2.2	-29.30603
2.2005	-26.98975
2.201	-32.62939
2.2015	-31.01807
2.202	-26.18408
2.2025	-19.43665
2.203	-18.22815
2.2035	-11.68213
2.204	8.96301
2.2045	18.22815
2.205	26.18408
2.2055	42.29736
2.206	40.48462
2.2065	48.54126
2.207	44.31152
2.2075	39.67896
2.208	36.55701
2.2085	29.80957
2.209	21.14868
2.2095	4.02832
2.21	-18.02673
2.2105	-37.56409
2.211	-34.24072
2.2115	-24.37134
2.212	-26.98975
2.2125	-23.06213
2.213	-13.69629
2.2135	-10.67505
2.214	-10.17151
2.2145	-6.04248
2.215	-21.04797
2.2155	-39.07471
2.216	-44.61365
2.2165	-50.85754
2.217	-61.43188
2.2175	-64.75525
2.218	-47.63489
2.2185	-20.94727
2.219	1.71204
2.2195	14.90479
2.22	26.78833
2.2205	20.34302
2.221	26.98975
2.2215	21.14868
2.222	17.92603
2.2225	27.49329
2.223	37.26196
2.2235	39.88037
2.224	37.36267
2.2245	34.24072
2.225	45.01648
2.2255	48.54126
2.226	57.00073
2.2265	54.88586
2.227	42.49878
2.2275	38.67188
2.228	41.79382
2.2285	30.31311
2.229	33.73718
2.2295	31.62231
2.23	31.4209
2.2305	16.91895
2.231	3.92761
2.2315	-16.11328
2.232	-29.50745
2.2325	-37.86621
2.233	-43.40515
2.2335	-53.87878
2.234	-60.12268
2.2345	-68.78357
2.235	-77.14233
2.2355	-79.86145
2.236	-75.73242
2.2365	-79.45862
2.237	-78.35083
2.2375	-64.45312
2.238	-52.97241
2.2385	-37.36267
2.239	-37.56409
2.2395	-36.85913
2.24	-42.8009
2.2405	-49.95117
2.241	-41.08887
2.2415	-31.72302
2.242	-24.47205
2.2425	-14.80408
2.243	-1.3092
2.2435	4.93469
2.244	27.79541
2.2445	44.21082
2.245	55.89294
2.2455	60.02197
2.246	66.76941
2.2465	70.09277
2.247	79.15649
2.2475	82.68127
2.248	84.69543
2.2485	73.71826
2.249	66.36658
2.2495	76.7395
2.25	108.66394
2.2505	115.31067
2.251	107.35474
2.2515	84.39331
2.252	61.53259
2.2525	46.82922
2.253	32.22656
2.2535	19.94019
2.254	22.86072
2.2545	30.91736
2.255	37.46338
2.2555	30.51453
2.256	22.45789
2.2565	25.78125
2.257	26.78833
2.2575	26.48621
2.258	26.68762
2.2585	25.78125
2.259	30.31311
2.2595	20.54443
2.26	4.73328
2.2605	-5.53894
2.261	-14.50195
2.2615	-23.06213
2.262	-33.23364
2.2625	-30.91736
2.263	-34.74426
2.2635	-40.88745
2.264	-53.57666
2.2645	-60.62622
2.265	-62.74109
2.2655	-53.07312
2.266	-51.96533
2.2665	-44.51294
2.267	-31.62231
2.2675	-17.01965
2.268	-12.5885
2.2685	4.43115
2.269	0.80566
2.2695	1.2085
2.27	0.50354
2.2705	-8.45947
2.271	-2.61841
2.2715	-2.71912
2.272	-1.3092
2.2725	0
2.273	2.92053
2.2735	4.53186
2.274	13.797
2.2745	22.55859
2.275	22.86072
2.2755	35.2478
2.276	65.96375
2.2765	109.4696
2.277	126.18713
2.2775	129.5105
2.278	117.72766
2.2785	105.84412
2.279	101.41296
2.2795	83.18481
2.28	67.57507
2.2805	50.85754
2.281	36.95984
2.2815	23.26355
2.282	19.73877
2.2825	22.35718
2.283	16.71753
2.2835	-1.10779
2.284	-10.0708
2.2845	-30.01099
2.285	-45.01648
2.2855	-56.09436
2.286	-66.06445
2.2865	-68.48145
2.287	-64.95667
2.2875	-51.36108
2.288	-34.44214
2.2885	-27.59399
2.289	-22.25647
2.2895	-15.1062
2.29	-10.57434
2.2905	-11.48071
2.291	-17.22107
2.2915	-24.06921
2.292	-16.3147
2.2925	6.14319
2.293	22.45789
2.2935	50.95825
2.294	72.00623
2.2945	91.04004
2.295	105.54199
2.2955	116.31775
2.296	111.8866
2.2965	93.75916
2.297	82.78198
2.2975	54.38232
2.298	17.82532
2.2985	-8.56018
2.299	-34.44214
2.2995	-53.77808
2.3	-66.36658
2.3005	-64.75525
2.301	-73.51685
2.3015	-92.55066
2.302	-107.85828
2.3025	-112.99438
2.303	-116.922
2.3035	-116.01562
2.304	-109.26819
2.3045	-108.1604
2.305	-95.06836
2.3055	-74.82605
2.306	-56.5979
2.3065	-45.11719
2.307	-26.28479
2.3075	-10.47363
2.308	1.61133
2.3085	10.87646
2.309	21.04797
2.3095	27.79541
2.31	34.14001
2.3105	39.67896
2.311	37.96692
2.3115	38.06763
2.312	34.14001
2.3125	42.29736
2.313	36.65771
2.3135	15.30762
2.314	2.61841
2.3145	3.62549
2.315	4.83398
2.3155	-2.11487
2.316	-3.52478
2.3165	-1.2085
2.317	6.14319
2.3175	8.96301
2.318	15.20691
2.3185	25.78125
2.319	32.42798
2.3195	16.61682
2.32	-10.87646
2.3205	-24.87488
2.321	-23.8678
2.3215	-9.16443
2.322	6.94885
2.3225	18.73169
2.323	30.91736
2.3235	41.18958
2.324	49.0448
2.3245	46.12427
2.325	56.09436
2.3255	61.23047
2.326	64.75525
2.3265	70.19348
2.327	71.20056
2.3275	67.17224
2.328	52.771
2.3285	54.28162
2.329	41.29028
2.3295	32.83081
2.33	21.24939
2.3305	19.53735
2.331	24.57275
2.3315	37.96692
2.332	79.05579
2.3325	105.03845
2.333	121.25244
2.3335	112.99438
2.334	97.98889
2.3345	72.71118
2.335	47.43347
2.3355	34.44214
2.336	25.78125
2.3365	19.13452
2.337	9.97009
2.3375	-10.27222
2.338	-26.58691
2.3385	-20.64514
2.339	-22.86072
2.3395	-7.75452
2.34	11.68213
2.3405	16.21399
2.341	21.65222
2.3415	17.12036
2.342	12.78992
2.3425	6.14319
2.343	-5.84106
2.3435	-12.28638
2.344	-18.02673
2.3445	-14.70337
2.345	-11.17859
2.3455	-9.66797
2.346	-13.89771
2.3465	-25.07629
2.347	-35.2478
2.3475	-47.63489
2.348	-51.76392
2.3485	-51.76392
2.349	-55.99365
2.3495	-50.15259
2.35	-47.7356
2.3505	-39.98108
2.351	-33.53577
2.3515	-27.29187
2.352	-12.08496
2.3525	-3.12195
2.353	4.93469
2.3535	4.93469
2.354	4.33044
2.3545	3.8269
2.355	9.97009
2.3555	12.38708
2.356	18.73169
2.3565	9.86938
2.357	11.78284
2.3575	9.97009
2.358	22.45789
2.3585	21.95435
2.359	33.9386
2.3595	39.98108
2.36	41.4917
2.3605	40.48462
2.361	35.85205
2.3615	31.82373
2.362	22.25647
2.3625	25.57983
2.363	32.83081
2.3635	40.1825
2.364	53.77808
2.3645	37.66479
2.365	28.29895
2.3655	21.04797
2.366	21.04797
2.3665	5.84106
2.367	-5.53894
2.3675	-10.27222
2.368	-11.07788
2.3685	-15.1062
2.369	-13.39417
2.3695	-15.00549
2.37	-13.39417
2.3705	-14.19983
2.371	-6.2439
2.3715	-4.93469
2.372	-2.31628
2.3725	0.50354
2.373	-9.56726
2.3735	-13.797
2.374	-19.43665
2.3745	-27.19116
2.375	-34.14001
2.3755	-36.25488
2.376	-33.23364
2.3765	-50.05188
2.377	-48.23914
2.3775	-43.50586
2.378	-40.78674
2.3785	-35.2478
2.379	-39.17542
2.3795	-54.18091
2.38	-49.64905
2.3805	-41.29028
2.381	-10.97717
2.3815	14.70337
2.382	31.62231
2.3825	40.78674
2.383	39.27612
2.3835	37.16125
2.384	24.67346
2.3845	19.33594
2.385	9.16443
2.3855	0.10071
2.386	-8.96301
2.3865	-15.50903
2.387	-23.76709
2.3875	-26.78833
2.388	-24.67346
2.3885	-19.13452
2.389	-11.48071
2.3895	-3.42407
2.39	17.82532
2.3905	31.52161
2.391	41.69312
2.3915	45.41931
2.392	41.99524
2.3925	45.82214
2.393	34.24072
2.3935	29.30603
2.394	22.25647
2.3945	20.54443
2.395	17.52319
2.3955	2.81982
2.396	-2.81982
2.3965	-6.94885
2.397	-8.96301
2.3975	-7.04956
2.398	-8.66089
2.3985	0.80566
2.399	8.15735
2.3995	17.72461
2.4	28.19824
2.4005	32.02515
2.401	47.8363
2.4015	48.33984
2.402	41.29028
2.4025	66.46729
2.403	92.75208
2.4035	101.8158
2.404	94.46411
2.4045	86.70959
2.405	70.29419
2.4055	55.08728
2.406	45.01648
2.4065	27.6947
2.407	17.72461
2.4075	3.92761
2.408	-5.13611
2.4085	-11.2793
2.409	-16.41541
2.4095	-22.76001
2.41	-28.70178
2.4105	-36.4563
2.411	-40.38391
2.4115	-49.24622
2.412	-49.14551
2.4125	-43.70728
2.413	-35.95276
2.4135	-28.9032
2.414	-25.177
2.4145	-22.05505
2.415	-16.81824
2.4155	-16.91895
2.416	-15.00549
2.4165	-4.63257
2.417	-2.01416
2.4175	-2.41699
2.418	-0.60425
2.4185	-7.15027
2.419	-7.25098
2.4195	-6.74744
2.42	-15.71045
2.4205	-10.17151
2.421	-8.56018
2.4215	-9.36584
2.422	-3.12195
2.4225	-3.02124
2.423	1.2085
2.4235	10.0708
2.424	14.30054
2.4245	20.24231
2.425	25.37842
2.4255	23.26355
2.426	23.06213
2.4265	8.05664
2.427	-2.5177
2.4275	-10.17151
2.428	-7.75452
2.4285	-9.86938
2.429	-3.02124
2.4295	4.12903
2.43	10.57434
2.4305	9.66797
2.431	11.68213
2.4315	20.34302
2.432	3.92761
2.4325	-1.3092
2.433	-19.43665
2.4335	-26.18408
2.434	-24.37134
2.4345	-17.72461
2.435	-11.2793
2.4355	-5.23682
2.436	1.81274
2.4365	1.10779
2.437	7.35168
2.4375	16.81824
2.438	33.33435
2.4385	38.77258
2.439	57.10144
2.4395	72.40906
2.44	97.38464
2.4405	108.26111
2.441	98.19031
2.4415	74.32251
2.442	48.33984
2.4425	14.90479
2.443	-21.55151
2.4435	-48.13843
2.444	-70.89844
2.4445	-93.0542
2.445	-104.13208
2.4455	-102.42004
2.446	-101.61438
2.4465	-98.39172
2.447	-83.68835
2.4475	-98.0896
2.448	-118.02979
2.4485	-107.55615
2.449	-104.93774
2.4495	-83.68835
2.45	-57.00073
2.4505	-27.09045
2.451	-11.48071
2.4515	4.22974
2.452	19.13452
2.4525	26.58691
2.453	38.06763
2.4535	43.10303
2.454	46.32568
2.4545	44.81506
2.455	65.66162
2.4555	69.08569
2.456	61.12976
2.4565	55.69153
2.457	49.44763
2.4575	63.74817
2.458	62.13684
2.4585	58.41064
2.459	48.94409
2.4595	32.52869
2.46	15.00549
2.4605	-7.35168
2.461	-32.52869
2.4615	-42.59949
2.462	-38.16833
2.4625	-45.41931
2.463	-42.29736
2.4635	-32.7301
2.464	-26.48621
2.4645	-10.87646
2.465	-1.81274
2.4655	11.98425
2.466	14.60266
2.4665	18.93311
2.467	20.24231
2.4675	29.10461
2.468	28.09753
2.4685	30.31311
2.469	27.49329
2.4695	30.71594
2.47	32.02515
2.4705	33.63647
2.471	31.82373
2.4715	24.77417
2.472	23.76709
2.4725	19.83948
2.473	18.53027
2.4735	8.25806
2.474	-0.40283
2.4745	-6.44531
2.475	-8.35876
2.4755	-14.30054
2.476	-14.50195
2.4765	-19.83948
2.477	-22.45789
2.4775	-19.03381
2.478	-16.11328
2.4785	-11.48071
2.479	-20.04089
2.4795	-30.71594
2.48	-30.01099
2.4805	-26.68762
2.481	-20.24231
2.4815	-20.34302
2.482	-17.42249
2.4825	-7.5531
2.483	0.40283
2.4835	11.07788
2.484	16.81824
2.4845	21.3501
2.485	38.77258
2.4855	83.08411
2.486	105.44128
2.4865	107.05261
2.487	104.53491
2.4875	98.99597
2.488	77.14233
2.4885	64.151
2.489	49.0448
2.4895	27.89612
2.49	7.85522
2.4905	-10.67505
2.491	-22.96143
2.4915	-37.96692
2.492	-47.13135
2.4925	-51.66321
2.493	-57.20215
2.4935	-63.14392
2.494	-58.20923
2.4945	-37.7655
2.495	-18.93311
2.4955	-5.84106
2.496	-1.51062
2.4965	-0.90637
2.497	-1.10779
2.4975	1.91345
2.498	-1.10779
2.4985	-8.35876
2.499	0.30212
2.4995	-9.46655
2.5	-13.19275
2.5005	-10.87646
2.501	-13.39417
2.5015	-12.78992
2.502	-13.19275
2.5025	-13.797
2.503	-5.84106
2.5035	2.81982
2.504	17.32178
2.5045	28.29895
2.505	34.94568
2.5055	28.50037
2.506	23.8678
2.5065	16.71753
2.507	22.25647
2.5075	13.797
2.508	13.89771
2.5085	6.04248
2.509	9.46655
2.5095	3.52478
2.51	0.90637
2.5105	-4.12903
2.511	-34.64355
2.5115	-21.95435
2.512	6.74744
2.5125	25.177
2.513	25.47913
2.5135	11.07788
2.514	-8.45947
2.5145	-17.82532
2.515	-24.77417
2.5155	-20.74585
2.516	-32.7301
2.5165	-47.7356
2.517	-35.65063
2.5175	-27.39258
2.518	-27.89612
2.5185	-30.71594
2.519	-33.13293
2.5195	-46.42639
2.52	-46.02356
2.5205	-38.67188
2.521	-21.04797
2.5215	-9.66797
2.522	6.3446
2.5225	18.12744
2.523	23.66638
2.5235	36.65771
2.524	33.03223
2.5245	33.9386
2.525	34.24072
2.5255	28.09753
2.526	70.59631
2.5265	110.98022
2.527	126.9928
2.5275	125.48218
2.528	110.47668
2.5285	96.27686
2.529	72.50977
2.5295	34.84497
2.53	-2.11487
2.5305	-28.39966
2.531	-51.66321
2.5315	-67.67578
2.532	-78.14941
2.5325	-76.53809
2.533	-61.6333
2.5335	-59.01489
2.534	-52.97241
2.5345	-28.29895
2.535	-8.25806
2.5355	12.38708
2.536	30.51453
2.5365	62.13684
2.537	95.16907
2.5375	100.50659
2.538	98.69385
2.5385	93.25562
2.539	72.20764
2.5395	52.36816
2.54	49.34692
2.5405	52.8717
2.541	37.86621
2.5415	16.21399
2.542	-0.20142
2.5425	-16.01257
2.543	-28.29895
2.5435	-34.03931
2.544	-35.54993
2.5445	-31.62231
2.545	-31.21948
2.5455	-26.28479
2.546	-30.81665
2.5465	-29.00391
2.547	-22.76001
2.5475	-22.86072
2.548	-18.02673
2.5485	-17.52319
2.549	-12.08496
2.5495	-9.97009
2.55	-7.65381
2.5505	-10.47363
2.551	1.00708
2.5515	0.50354
2.552	-10.37292
2.5525	0.40283
2.553	2.31628
2.5535	1.91345
2.554	0.60425
2.5545	8.56018
2.555	4.02832
2.5555	-1.51062
2.556	-2.11487
2.5565	-19.94019
2.557	-37.16125
2.5575	-39.07471
2.558	-41.99524
2.5585	-45.3186
2.559	-48.84338
2.5595	-39.67896
2.56	-36.05347
2.5605	-31.62231
2.561	-11.58142
2.5615	-4.02832
2.562	1.71204
2.5625	12.38708
2.563	8.56018
2.5635	9.06372
2.564	11.98425
2.5645	15.50903
2.565	39.07471
2.5655	56.29578
2.566	72.81189
2.5665	78.85437
2.567	73.81897
2.5675	67.37366
2.568	47.53418
2.5685	34.34143
2.569	7.45239
2.5695	-17.22107
2.57	-32.62939
2.5705	-44.11011
2.571	-58.81348
2.5715	-69.1864
2.572	-69.08569
2.5725	-61.43188
2.573	-59.82056
2.5735	-59.51843
2.574	-46.02356
2.5745	-27.09045
2.575	-14.50195
2.5755	0
2.576	12.28638
2.5765	18.12744
2.577	24.16992
2.5775	24.27063
2.578	27.99683
2.5785	70.69702
2.579	92.04712
2.5795	90.33508
2.58	80.76782
2.5805	69.89136
2.581	55.99365
2.5815	26.3855
2.582	4.22974
2.5825	-10.37292
2.583	-22.96143
2.5835	-30.2124
2.584	-25.88196
2.5845	-40.58533
2.585	-36.55701
2.5855	-28.70178
2.586	-21.04797
2.5865	-13.59558
2.587	-4.02832
2.5875	-0.30212
2.588	14.60266
2.5885	19.63806
2.589	20.84656
2.5895	22.35718
2.59	17.12036
2.5905	19.63806
2.591	18.22815
2.5915	16.11328
2.592	13.19275
2.5925	2.81982
2.593	11.78284
2.5935	14.19983
2.594	28.39966
2.5945	27.09045
2.595	29.30603
2.5955	22.15576
2.596	16.51611
2.5965	6.2439
2.597	1.71204
2.5975	6.84814
2.598	16.3147
2.5985	29.70886
2.599	45.01648
2.5995	39.98108
2.6	29.50745
2.6005	24.67346
2.601	29.80957
2.6015	31.01807
2.602	21.55151
2.6025	0.60425
2.603	-14.30054
2.6035	-25.98267
2.604	-19.23523
2.6045	-11.78284
2.605	-18.12744
2.6055	-24.27063
2.606	-24.06921
2.6065	-30.01099
2.607	-38.16833
2.6075	-40.2832
2.608	-33.9386
2.6085	-34.44214
2.609	-30.11169
2.6095	-27.19116
2.61	-29.50745
2.6105	-32.22656
2.611	-46.72852
2.6115	-40.08179
2.612	-24.37134
2.6125	10.47363
2.613	29.30603
2.6135	33.23364
2.614	32.83081
2.6145	24.47205
2.615	26.3855
2.6155	19.33594
2.616	21.55151
2.6165	27.59399
2.617	24.57275
2.6175	28.09753
2.618	23.76709
2.6185	13.99841
2.619	13.99841
2.6195	13.99841
2.62	8.8623
2.6205	7.95593
2.621	7.85522
2.6215	2.41699
2.622	-0.30212
2.6225	0
2.623	3.8269
2.6235	10.0708
2.624	9.97009
2.6245	5.53894
2.625	3.7262
2.6255	12.18567
2.626	14.80408
2.6265	24.27063
2.627	20.04089
2.6275	17.01965
2.628	25.57983
2.6285	29.20532
2.629	27.49329
2.6295	31.92444
2.63	23.8678
2.6305	18.93311
2.631	7.85522
2.6315	2.41699
2.632	-13.09204
2.6325	-19.23523
2.633	-31.92444
2.6335	-37.36267
2.634	-34.44214
2.6345	-45.3186
2.635	-56.49719
2.6355	-58.41064
2.636	-60.02197
2.6365	-18.8324
2.637	29.30603
2.6375	55.89294
2.638	51.5625
2.6385	42.59949
2.639	29.80957
2.6395	13.09204
2.64	-10.37292
2.6405	-17.01965
2.641	-31.82373
2.6415	-41.59241
2.642	-47.23206
2.6425	-46.92993
2.643	-42.19666
2.6435	-37.86621
2.644	-36.15417
2.6445	-43.60657
2.645	-27.29187
2.6455	-9.16443
2.646	3.32336
2.6465	4.53186
2.647	9.36584
2.6475	7.65381
2.648	9.97009
2.6485	15.50903
2.649	13.19275
2.6495	15.1062
2.65	20.04089
2.6505	9.06372
2.651	9.86938
2.6515	12.68921
2.652	9.26514
2.6525	12.89062
2.653	8.56018
2.6535	7.85522
2.654	9.56726
2.6545	13.19275
2.655	18.73169
2.6555	31.82373
2.656	44.51294
2.6565	52.46887
2.657	50.15259
2.6575	50.55542
2.658	59.41772
2.6585	70.69702
2.659	79.76074
2.6595	86.30676
2.66	91.44287
2.6605	94.06128
2.661	94.66553
2.6615	85.29968
2.662	69.48853
2.6625	53.07312
2.663	40.1825
2.6635	27.29187
2.664	19.33594
2.6645	11.88354
2.665	2.21558
2.6655	-5.43823
2.666	-3.42407
2.6665	-12.78992
2.667	-15.20691
2.6675	0.60425
2.668	58.81348
2.6685	86.30676
2.669	83.18481
2.6695	62.23755
2.67	35.44922
2.6705	14.60266
2.671	-9.16443
2.6715	-35.75134
2.672	-60.22339
2.6725	-68.78357
2.673	-83.58765
2.6735	-83.48694
2.674	-79.55933
2.6745	-72.20764
2.675	-65.05737
2.6755	-50.45471
2.676	-41.99524
2.6765	-36.85913
2.677	-15.60974
2.6775	-3.7262
2.678	9.86938
2.6785	14.40125
2.679	7.15027
2.6795	11.38
2.68	7.04956
2.6805	-9.86938
2.681	-21.85364
2.6815	-25.37842
2.682	-37.06055
2.6825	-16.11328
2.683	9.86938
2.6835	28.39966
2.684	52.36816
2.6845	75.4303
2.685	87.21313
2.6855	85.40039
2.686	74.32251
2.6865	41.69312
2.687	1.00708
2.6875	-37.7655
2.688	-57.9071
2.6885	-74.42322
2.689	-78.85437
2.6895	-75.63171
2.69	-65.3595
2.6905	-56.79932
2.691	-42.49878
2.6915	-24.16992
2.692	-11.58142
2.6925	4.02832
2.693	2.31628
2.6935	-6.54602
2.694	-2.5177
2.6945	6.54602
2.695	16.71753
2.6955	16.71753
2.696	18.32886
2.6965	23.16284
2.697	50.354
2.6975	72.00623
2.698	69.58923
2.6985	90.33508
2.699	86.8103
2.6995	63.74817
2.7	47.23206
2.7005	29.50745
2.701	3.32336
2.7015	-17.12036
2.702	-30.51453
2.7025	-36.25488
2.703	-46.22498
2.7035	-41.39099
2.704	-44.51294
2.7045	-47.03064
2.705	-41.29028
2.7055	-31.92444
2.706	-8.35876
2.7065	7.65381
2.707	16.51611
2.7075	21.85364
2.708	22.55859
2.7085	17.6239
2.709	12.78992
2.7095	5.63965
2.71	-0.40283
2.7105	-8.96301
2.711	-16.91895
2.7115	-3.22266
2.712	-1.51062
2.7125	7.45239
2.713	5.43823
2.7135	-3.7262
2.714	-13.29346
2.7145	-16.01257
2.715	-8.15735
2.7155	-8.35876
2.716	-3.92761
2.7165	-4.02832
2.717	-0.90637
2.7175	6.2439
2.718	11.07788
2.7185	17.32178
2.719	17.01965
2.7195	33.43506
2.72	33.33435
2.7205	31.4209
2.721	20.54443
2.7215	14.09912
2.722	18.73169
2.7225	5.74036
2.723	-1.10779
2.7235	2.71912
2.724	2.31628
2.7245	0.40283
2.725	-4.43115
2.7255	-4.73328
2.726	-4.93469
2.7265	-12.18567
2.727	-8.96301
2.7275	-7.85522
2.728	1.61133
2.7285	11.07788
2.729	21.04797
2.7295	30.91736
2.73	31.32019
2.7305	33.53577
2.731	40.68604
2.7315	49.85046
2.732	55.59082
2.7325	53.67737
2.733	46.42639
2.7335	37.46338
2.734	20.64514
2.7345	17.32178
2.735	11.48071
2.7355	8.45947
2.736	4.22974
2.7365	9.36584
2.737	18.93311
2.7375	25.177
2.738	20.34302
2.7385	10.77576
2.739	13.49487
2.7395	6.54602
2.74	5.63965
2.7405	2.92053
2.741	-0.30212
2.7415	-6.94885
2.742	-15.91187
2.7425	-16.21399
2.743	-14.30054
2.7435	-11.78284
2.744	-13.29346
2.7445	-5.53894
2.745	-5.13611
2.7455	-4.93469
2.746	-21.95435
2.7465	-33.43506
2.747	-42.19666
2.7475	-47.43347
2.748	-49.54834
2.7485	-53.47595
2.749	-52.56958
2.7495	-49.44763
2.75	-42.09595
2.7505	-42.19666
2.751	-33.9386
2.7515	-22.05505
2.752	-9.86938
2.7525	1.51062
2.753	13.49487
2.7535	23.36426
2.754	35.2478
2.7545	46.62781
2.755	48.54126
2.7555	50.85754
2.756	48.44055
2.7565	39.47754
2.757	20.94727
2.7575	22.25647
2.758	22.76001
2.7585	7.85522
2.759	28.29895
2.7595	49.0448
2.76	63.04321
2.7605	58.30994
2.761	42.19666
2.7615	5.13611
2.762	-30.31311
2.7625	-64.35242
2.763	-86.40747
2.7635	-99.3988
2.764	-100.10376
2.7645	-59.51843
2.765	-28.60107
2.7655	-12.99133
2.766	-11.48071
2.7665	-17.92603
2.767	-21.3501
2.7675	-16.01257
2.768	-10.57434
2.7685	-8.56018
2.769	-7.35168
2.7695	10.27222
2.77	47.03064
2.7705	52.16675
2.771	58.20923
2.7715	49.14551
2.772	41.4917
2.7725	40.48462
2.773	33.9386
2.7735	13.09204
2.774	1.40991
2.7745	-10.97717
2.775	-10.57434
2.7755	-6.14319
2.776	-2.92053
2.7765	-4.33044
2.777	-6.74744
2.7775	-6.14319
2.778	5.13611
2.7785	5.43823
2.779	18.42957
2.7795	22.76001
2.78	15.81116
2.7805	21.45081
2.781	16.01257
2.7815	14.80408
2.782	17.22107
2.7825	22.76001
2.783	31.01807
2.7835	30.91736
2.784	32.83081
2.7845	40.58533
2.785	40.68604
2.7855	30.11169
2.786	31.82373
2.7865	25.177
2.787	16.41541
2.7875	11.38
2.788	0.90637
2.7885	1.71204
2.789	-4.73328
2.7895	-22.35718
2.79	-32.83081
2.7905	-34.74426
2.791	-33.33435
2.7915	-33.73718
2.792	-41.39099
2.7925	-47.33276
2.793	-39.57825
2.7935	-32.12585
2.794	-27.6947
2.7945	10.67505
2.795	40.38391
2.7955	56.5979
2.796	72.00623
2.7965	61.23047
2.797	37.16125
2.7975	34.03931
2.798	24.87488
2.7985	16.41541
2.799	40.88745
2.7995	108.56323
2.8	130.11475
2.8005	133.74023
2.801	108.96606
2.8015	100.90942
2.802	71.20056
2.8025	31.32019
2.803	-13.69629
2.8035	-28.80249
2.804	-60.62622
2.8045	-75.73242
2.805	-82.17773
2.8055	-76.63879
2.806	-77.74658
2.8065	-64.45312
2.807	-44.41223
2.8075	-23.26355
2.808	-14.90479
2.8085	-9.16443
2.809	-3.42407
2.8095	-2.5177
2.81	9.76868
2.8105	31.52161
2.811	45.62073
2.8115	54.18091
2.812	47.93701
2.8125	24.87488
2.813	8.56018
2.8135	-5.84106
2.814	-12.99133
2.8145	-32.52869
2.815	-38.26904
2.8155	-44.21082
2.816	-49.24622
2.8165	-34.03931
2.817	-26.28479
2.8175	-10.17151
2.818	4.02832
2.8185	9.56726
2.819	22.55859
2.8195	19.53735
2.82	15.81116
2.8205	9.16443
2.821	2.11487
2.8215	-8.66089
2.822	-3.32336
2.8225	3.12195
2.823	17.6239
2.8235	26.18408
2.824	21.55151
2.8245	12.28638
2.825	9.36584
2.8255	9.16443
2.826	17.72461
2.8265	21.04797
2.827	18.02673
2.8275	5.63965
2.828	-0.20142
2.8285	-1.00708
2.829	-6.54602
2.8295	-5.33752
2.83	2.01416
2.8305	10.97717
2.831	23.36426
2.8315	47.03064
2.832	65.86304
2.8325	74.2218
2.833	71.90552
2.8335	64.151
2.834	52.16675
2.8345	34.54285
2.835	3.32336
2.8355	-42.59949
2.836	-73.41614
2.8365	-88.92517
2.837	-86.10535
2.8375	-75.12817
2.838	-59.92126
2.8385	-48.64197
2.839	-35.75134
2.8395	-23.36426
2.84	7.35168
2.8405	26.98975
2.841	51.96533
2.8415	51.76392
2.842	52.06604
2.8425	37.66479
2.843	21.85364
2.8435	13.39417
2.844	1.81274
2.8445	-3.8269
2.845	-9.16443
2.8455	-11.68213
2.846	-21.75293
2.8465	-26.18408
2.847	-27.89612
2.8475	-31.52161
2.848	-33.73718
2.8485	-24.97559
2.849	-21.95435
2.8495	-10.97717
2.85	-13.19275
2.8505	-19.13452
2.851	-20.24231
2.8515	-22.76001
2.852	-13.89771
2.8525	-0.80566
2.853	3.42407
2.8535	12.99133
2.854	6.3446
2.8545	14.90479
2.855	18.8324
2.8555	29.40674
2.856	31.4209
2.8565	11.2793
2.857	-20.64514
2.8575	-55.89294
2.858	-67.37366
2.8585	-70.89844
2.859	-73.01331
2.8595	-70.79773
2.86	-53.07312
2.8605	-27.09045
2.861	-6.84814
2.8615	0.20142
2.862	10.0708
2.8625	23.26355
2.863	39.47754
2.8635	60.52551
2.864	71.90552
2.8645	70.59631
2.865	77.74658
2.8655	78.04871
2.866	95.26978
2.8665	116.82129
2.867	124.87793
2.8675	122.96448
2.868	99.3988
2.8685	77.24304
2.869	60.72693
2.8695	47.53418
2.87	25.177
2.8705	15.50903
2.871	10.47363
2.8715	2.11487
2.872	-1.81274
2.8725	-8.56018
2.873	-12.68921
2.8735	-22.55859
2.874	-17.82532
2.8745	-11.98425
2.875	-5.0354
2.8755	-5.94177
2.876	-0.60425
2.8765	-6.44531
2.877	-1.10779
2.8775	2.71912
2.878	6.3446
2.8785	17.92603
2.879	26.88904
2.8795	26.68762
2.88	27.59399
2.8805	27.79541
2.881	24.16992
2.8815	15.71045
2.882	11.48071
2.8825	16.11328
2.883	47.03064
2.8835	67.47437
2.884	88.52234
2.8845	87.21313
2.885	80.16357
2.8855	64.55383
2.886	46.62781
2.8865	26.48621
2.887	-12.5885
2.8875	-28.29895
2.888	-54.88586
2.8885	-63.84888
2.889	-70.89844
2.8895	-69.99207
2.89	-32.22656
2.8905	-0.10071
2.891	23.56567
2.8915	35.75134
2.892	50.55542
2.8925	55.79224
2.893	42.8009
2.8935	11.17859
2.894	-37.26196
2.8945	-90.5365
2.895	-122.36023
2.8955	-139.88342
2.896	-130.92041
2.8965	-80.76782
2.897	-42.39807
2.8975	-29.40674
2.898	-22.15576
2.8985	-22.76001
2.899	-32.32727
2.8995	-37.46338
2.9	-39.47754
2.9005	-48.74268
2.901	-35.85205
2.9015	-29.91028
2.902	-21.55151
2.9025	-1.51062
2.903	16.01257
2.9035	30.51453
2.904	55.2887
2.9045	63.74817
2.905	68.48145
2.9055	67.8772
2.906	55.99365
2.9065	50.85754
2.907	43.40515
2.9075	39.77966
2.908	42.59949
2.9085	42.7002
2.909	44.11011
2.9095	41.69312
2.91	34.14001
2.9105	29.91028
2.911	23.26355
2.9115	20.04089
2.912	18.93311
2.9125	29.10461
2.913	43.50586
2.9135	37.86621
2.914	16.21399
2.9145	10.37292
2.915	20.94727
2.9155	32.62939
2.916	41.59241
2.9165	37.36267
2.917	31.72302
2.9175	23.36426
2.918	10.97717
2.9185	-6.64673
2.919	-28.29895
2.9195	-40.88745
2.92	-53.17383
2.9205	-48.13843
2.921	-54.58374
2.9215	-52.36816
2.922	-54.58374
2.9225	-50.05188
2.923	-50.2533
2.9235	-53.17383
2.924	-47.63489
2.9245	-52.97241
2.925	-47.23206
2.9255	-47.53418
2.926	-28.09753
2.9265	-18.32886
2.927	-3.12195
2.9275	18.02673
2.928	34.54285
2.9285	118.13049
2.929	197.3877
2.9295	224.37744
2.93	211.48682
2.9305	177.14539
2.931	130.31616
2.9315	83.08411
2.932	39.17542
2.9325	0.50354
2.933	-38.16833
2.9335	-78.04871
2.934	-94.86694
2.9345	-100.40588
2.935	-91.44287
2.9355	-87.21313
2.936	-86.60889
2.9365	-78.45154
2.937	-54.58374
2.9375	-24.67346
2.938	1.00708
2.9385	13.49487
2.939	28.50037
2.9395	27.59399
2.94	33.53577
2.9405	37.46338
2.941	33.73718
2.9415	26.48621
2.942	15.20691
2.9425	1.10779
2.943	-24.47205
2.9435	-35.65063
2.944	-24.57275
2.9445	11.17859
2.945	26.18408
2.9455	24.87488
2.946	28.9032
2.9465	24.37134
2.947	15.00549
2.9475	10.57434
2.948	2.71912
2.9485	-10.37292
2.949	-14.09912
2.9495	-19.53735
2.95	-18.02673
2.9505	-9.86938
2.951	4.93469
2.9515	25.37842
2.952	35.95276
2.9525	44.21082
2.953	37.66479
2.9535	25.78125
2.954	14.60266
2.9545	1.71204
2.955	-3.32336
2.9555	1.51062
2.956	12.38708
2.9565	23.16284
2.957	29.20532
2.9575	29.40674
2.958	23.96851
2.9585	18.53027
2.959	10.17151
2.9595	-16.11328
2.96	-38.26904
2.9605	-54.18091
2.961	-75.63171
2.9615	-93.85986
2.962	-100.70801
2.9625	-80.16357
2.963	-54.18091
2.9635	-34.54285
2.964	-10.17151
2.9645	7.04956
2.965	23.06213
2.9655	44.0094
2.966	72.20764
2.9665	91.94641
2.967	97.48535
2.9675	99.60022
2.968	81.06995
2.9685	62.33826
2.969	36.95984
2.9695	9.06372
2.97	-5.43823
2.9705	-4.33044
2.971	-7.75452
2.9715	-3.52478
2.972	-10.47363
2.9725	-22.55859
2.973	-28.70178
2.9735	-26.3855
2.974	-17.6239
2.9745	-13.49487
2.975	2.01416
2.9755	6.04248
2.976	14.60266
2.9765	14.09912
2.977	14.19983
2.9775	4.22974
2.978	21.45081
2.9785	32.62939
2.979	31.92444
2.9795	27.09045
2.98	20.54443
2.9805	12.78992
2.981	3.22266
2.9815	-3.22266
2.982	-8.15735
2.9825	-3.32336
2.983	11.17859
2.9835	24.97559
2.984	24.67346
2.9845	18.53027
2.985	22.05505
2.9855	16.01257
2.986	13.59558
2.9865	18.8324
2.987	16.91895
2.9875	3.92761
2.988	4.02832
2.9885	32.93152
2.989	44.81506
2.9895	47.03064
2.99	48.33984
2.9905	45.01648
2.991	22.35718
2.9915	8.8623
2.992	-14.09912
2.9925	-32.93152
2.993	-45.11719
2.9935	-60.92834
2.994	-52.56958
2.9945	-35.14709
2.995	3.22266
2.9955	33.03223
2.996	49.95117
2.9965	60.62622
2.997	53.57666
2.9975	34.34143
2.998	16.91895
2.9985	-5.63965
2.999	-29.10461
2.9995	-47.7356
3	-58.20923
3.0005	-64.85596
3.001	-61.33118
3.0015	-48.64197
3.002	-38.47046
3.0025	-27.09045
3.003	-10.87646
3.0035	-2.71912
3.004	16.61682
3.0045	32.22656
3.005	34.94568
3.0055	34.54285
3.006	24.97559
3.0065	-1.81274
3.007	-29.40674
3.0075	-43.10303
3.008	-40.58533
3.0085	-36.15417
3.009	-30.91736
3.0095	-26.78833
3.01	-22.55859
3.0105	1.00708
3.011	38.87329
3.0115	55.49011
3.012	58.71277
3.0125	69.28711
3.013	69.38782
3.0135	58.71277
3.014	49.24622
3.0145	39.67896
3.015	26.98975
3.0155	9.86938
3.016	8.66089
3.0165	26.3855
3.017	40.98816
3.0175	53.37524
3.018	35.65063
3.0185	23.16284
3.019	12.78992
3.0195	5.43823
3.02	1.71204
3.0205	2.11487
3.021	-18.12744
3.0215	-16.81824
3.022	-23.76709
3.0225	-33.23364
3.023	-22.55859
3.0235	-11.07788
3.024	-3.8269
3.0245	8.15735
3.025	4.63257
3.0255	-4.33044
3.026	-3.7262
3.0265	2.71912
3.027	2.11487
3.0275	9.56726
3.028	16.71753
3.0285	18.32886
3.029	5.84106
3.0295	1.81274
3.03	-2.71912
3.0305	-10.87646
3.031	-13.99841
3.0315	-15.50903
3.032	-11.98425
3.0325	-7.85522
3.033	0.20142
3.0335	0.50354
3.034	-5.74036
3.0345	-6.54602
3.035	-18.32886
3.0355	-7.5531
3.036	1.2085
3.0365	-3.42407
3.037	-9.66797
3.0375	-29.80957
3.038	-55.99365
3.0385	-83.58765
3.039	-92.44995
3.0395	-97.68677
3.04	-98.59314
3.0405	-99.60022
3.041	-90.83862
3.0415	-76.53809
3.042	-60.4248
3.0425	-40.38391
3.043	-2.61841
3.0435	27.39258
3.044	51.76392
3.0445	75.12817
3.045	97.78748
3.0455	109.97314
3.046	112.89368
3.0465	109.4696
3.047	112.18872
3.0475	120.95032
3.048	123.87085
3.0485	104.53491
3.049	81.47278
3.0495	59.92126
3.05	44.71436
3.0505	33.43506
3.051	23.66638
3.0515	27.39258
3.052	8.66089
3.0525	-5.84106
3.053	-18.8324
3.0535	-28.50037
3.054	-30.2124
3.0545	-26.68762
3.055	-26.18408
3.0555	-19.63806
3.056	-11.78284
3.0565	-1.51062
3.057	5.0354
3.0575	16.81824
3.058	70.19348
3.0585	111.8866
3.059	135.25085
3.0595	134.84802
3.06	133.13599
3.0605	116.51917
3.061	97.48535
3.0615	63.54675
3.062	40.1825
3.0625	19.63806
3.063	3.12195
3.0635	-26.78833
3.064	-53.87878
3.0645	-70.19348
3.065	-72.61047
3.0655	-76.53809
3.066	-80.16357
3.0665	-77.04163
3.067	-66.6687
3.0675	-63.44604
3.068	-70.3949
3.0685	-58.20923
3.069	-38.77258
3.0695	-30.61523
3.07	-29.00391
3.0705	-26.3855
3.071	-15.60974
3.0715	-2.92053
3.072	-1.40991
3.0725	40.38391
3.073	95.26978
3.0735	118.13049
3.074	115.20996
3.0745	94.96765
3.075	64.151
3.0755	27.29187
3.076	-16.61682
3.0765	-54.88586
3.077	-59.01489
3.0775	-76.53809
3.078	-76.84021
3.0785	-82.07703
3.079	-73.81897
3.0795	-58.91418
3.08	-43.90869
3.0805	3.02124
3.081	45.41931
3.0815	63.44604
3.082	77.74658
3.0825	77.74658
3.083	66.26587
3.0835	47.43347
3.084	24.47205
3.0845	14.60266
3.085	31.62231
3.0855	55.3894
3.086	76.03455
3.0865	82.27844
3.087	52.26746
3.0875	13.39417
3.088	-2.81982
3.0885	-14.70337
3.089	-35.44922
3.0895	-42.49878
3.09	-48.13843
3.0905	-52.67029
3.091	-54.58374
3.0915	-48.03772
3.092	-43.80798
3.0925	-28.29895
3.093	-20.84656
3.0935	-17.22107
3.094	-21.3501
3.0945	-30.31311
3.095	-26.28479
3.0955	-15.30762
3.096	-10.57434
3.0965	-5.94177
3.097	-0.50354
3.0975	2.5177
3.098	3.92761
3.0985	5.23682
3.099	2.41699
3.0995	-0.50354
3.1	-1.71204
3.1005	10.27222
3.101	9.26514
3.1015	13.59558
3.102	3.8269
3.1025	-3.7262
3.103	-7.35168
3.1035	-5.84106
3.104	-5.33752
3.1045	-4.93469
3.105	-3.92761
3.1055	-9.76868
3.106	-3.32336
3.1065	2.5177
3.107	6.14319
3.1075	10.37292
3.108	12.18567
3.1085	7.25098
3.109	7.65381
3.1095	10.17151
3.11	9.56726
3.1105	19.33594
3.111	33.23364
3.1115	40.88745
3.112	47.33276
3.1125	44.91577
3.113	33.63647
3.1135	11.38
3.114	6.3446
3.1145	3.62549
3.115	-0.40283
3.1155	2.41699
3.116	0.20142
3.1165	3.02124
3.117	-7.04956
3.1175	-12.5885
3.118	-15.20691
3.1185	-0.70496
3.119	26.88904
3.1195	39.17542
3.12	40.78674
3.1205	40.2832
3.121	48.44055
3.1215	74.82605
3.122	91.745
3.1225	96.07544
3.123	89.83154
3.1235	85.19897
3.124	53.27454
3.1245	20.04089
3.125	-10.0708
3.1255	-33.13293
3.126	-51.76392
3.1265	-57.30286
3.127	-57.70569
3.1275	-66.26587
3.128	-61.53259
3.1285	-61.43188
3.129	-66.36658
3.1295	-42.09595
3.13	-16.01257
3.1305	9.26514
3.131	14.19983
3.1315	13.69629
3.132	15.81116
3.1325	23.06213
3.133	21.24939
3.1335	19.73877
3.134	19.53735
3.1345	21.04797
3.135	32.12585
3.1355	25.47913
3.136	22.45789
3.1365	19.33594
3.137	25.27771
3.1375	37.46338
3.138	45.01648
3.1385	54.38232
3.139	49.95117
3.1395	46.62781
3.14	38.06763
3.1405	25.68054
3.141	-4.83398
3.1415	-31.52161
3.142	-45.2179
3.1425	-53.47595
3.143	-64.05029
3.1435	-67.17224
3.144	-64.75525
3.1445	-57.50427
3.145	-51.66321
3.1455	-36.85913
3.146	-22.96143
3.1465	-5.33752
3.147	0.20142
3.1475	3.42407
3.148	17.6239
3.1485	29.10461
3.149	32.7301
3.1495	42.29736
3.15	43.30444
3.1505	40.2832
3.151	44.11011
3.1515	41.18958
3.152	33.03223
3.1525	24.77417
3.153	39.37683
3.1535	51.86462
3.154	35.04639
3.1545	23.8678
3.155	5.43823
3.1555	-12.89062
3.156	-35.65063
3.1565	-43.00232
3.157	-54.28162
3.1575	-63.34534
3.158	-58.20923
3.1585	-42.39807
3.159	-24.06921
3.1595	-7.5531
3.16	4.22974
3.1605	18.63098
3.161	36.05347
3.1615	48.74268
3.162	58.81348
3.1625	69.1864
3.163	77.24304
3.1635	75.4303
3.164	64.75525
3.1645	48.33984
3.165	29.10461
3.1655	11.78284
3.166	7.75452
3.1665	-6.94885
3.167	-13.39417
3.1675	-22.15576
3.168	-35.04639
3.1685	-43.70728
3.169	-46.02356
3.1695	-47.53418
3.17	-38.57117
3.1705	-33.73718
3.171	-31.4209
3.1715	-24.77417
3.172	-11.07788
3.1725	1.2085
3.173	16.01257
3.1735	21.14868
3.174	29.60815
3.1745	27.6947
3.175	28.80249
3.1755	24.97559
3.176	18.02673
3.1765	12.68921
3.177	14.19983
3.1775	20.44373
3.178	30.11169
3.1785	35.75134
3.179	37.06055
3.1795	15.20691
3.18	9.26514
3.1805	-9.06372
3.181	-13.09204
3.1815	-21.24939
3.182	-24.06921
3.1825	-3.92761
3.183	9.97009
3.1835	18.22815
3.184	14.70337
3.1845	12.48779
3.185	4.63257
3.1855	12.48779
3.186	4.33044
3.1865	5.13611
3.187	7.15027
3.1875	12.28638
3.188	20.44373
3.1885	22.25647
3.189	24.67346
3.1895	29.80957
3.19	17.52319
3.1905	6.54602
3.191	-2.41699
3.1915	-13.49487
3.192	-17.82532
3.1925	-28.50037
3.193	-27.19116
3.1935	-21.45081
3.194	-15.00549
3.1945	4.43115
3.195	36.75842
3.1955	57.30286
3.196	66.46729
3.1965	67.97791
3.197	57.50427
3.1975	43.20374
3.198	19.94019
3.1985	-1.61133
3.199	-9.36584
3.1995	-22.25647
3.2	-26.08337
3.2005	-29.30603
3.201	-29.30603
3.2015	-18.8324
3.202	-11.78284
3.2025	-12.18567
3.203	-17.72461
3.2035	-0.80566
3.204	13.49487
3.2045	24.06921
3.205	26.08337
3.2055	24.77417
3.206	9.76868
3.2065	5.63965
3.207	-0.80566
3.2075	-16.21399
3.208	-13.19275
3.2085	-17.42249
3.209	-14.90479
3.2095	-7.04956
3.21	0.60425
3.2105	2.92053
3.211	1.91345
3.2115	10.17151
3.212	12.08496
3.2125	24.67346
3.213	32.02515
3.2135	22.25647
3.214	8.15735
3.2145	7.85522
3.215	1.81274
3.2155	5.0354
3.216	20.74585
3.2165	28.9032
3.217	34.14001
3.2175	37.26196
3.218	32.52869
3.2185	25.47913
3.219	17.72461
3.2195	14.09912
3.22	7.65381
3.2205	2.21558
3.221	-1.10779
3.2215	9.97009
3.222	22.25647
3.2225	30.11169
3.223	34.03931
3.2235	32.62939
3.224	20.1416
3.2245	6.14319
3.225	-7.45239
3.2255	-21.3501
3.226	-34.03931
3.2265	-54.0802
3.227	-54.68445
3.2275	-61.6333
3.228	-57.9071
3.2285	-60.22339
3.229	-54.78516
3.2295	-39.57825
3.23	-17.01965
3.2305	5.23682
3.231	11.2793
3.2315	8.66089
3.232	10.0708
3.2325	11.78284
3.233	4.43115
3.2335	2.11487
3.234	-4.73328
3.2345	-9.46655
3.235	-6.2439
3.2355	-3.62549
3.236	-0.90637
3.2365	3.02124
3.237	-0.30212
3.2375	-0.20142
3.238	-1.10779
3.2385	7.5531
3.239	11.48071
3.2395	1.81274
3.24	-2.81982
3.2405	-2.71912
3.241	-6.14319
3.2415	-0.30212
3.242	2.71912
3.2425	8.96301
3.243	5.84106
3.2435	-0.10071
3.244	-1.51062
3.2445	8.15735
3.245	7.15027
3.2455	13.99841
3.246	19.03381
3.2465	35.75134
3.247	46.92993
3.2475	50.05188
3.248	36.85913
3.2485	30.71594
3.249	27.89612
3.2495	38.26904
3.25	55.79224
3.2505	48.84338
3.251	44.11011
3.2515	43.40515
3.252	42.09595
3.2525	38.974
3.253	40.1825
3.2535	28.29895
3.254	14.70337
3.2545	10.37292
3.255	7.95593
3.2555	0.40283
3.256	14.19983
3.2565	20.34302
3.257	22.45789
3.2575	26.18408
3.258	24.47205
3.2585	20.04089
3.259	8.66089
3.2595	3.7262
3.26	-3.22266
3.2605	-20.34302
3.261	-49.44763
3.2615	-58.10852
3.262	-67.67578
3.2625	-65.76233
3.263	-60.62622
3.2635	-51.46179
3.264	-44.61365
3.2645	-45.11719
3.265	-45.92285
3.2655	-28.9032
3.266	-21.65222
3.2665	-15.20691
3.267	5.94177
3.2675	15.50903
3.268	22.55859
3.2685	22.45789
3.269	13.89771
3.2695	16.71753
3.27	24.16992
3.2705	36.35559
3.271	52.771
3.2715	47.7356
3.272	43.40515
3.2725	70.3949
3.273	92.24854
3.2735	100.70801
3.274	97.38464
3.2745	79.35791
3.275	59.92126
3.2755	51.46179
3.276	31.21948
3.2765	6.2439
3.277	-27.09045
3.2775	-34.44214
3.278	-35.04639
3.2785	-21.3501
3.279	-5.63965
3.2795	0.70496
3.28	-3.52478
3.2805	-3.7262
3.281	1.81274
3.2815	-6.84814
3.282	-10.0708
3.2825	-8.15735
3.283	-6.84814
3.2835	-18.53027
3.284	-18.53027
3.2845	-17.12036
3.285	-13.59558
3.2855	-13.99841
3.286	-7.65381
3.2865	-11.58142
3.287	0.30212
3.2875	-1.40991
3.288	-10.57434
3.2885	-25.57983
3.289	-45.72144
3.2895	-42.29736
3.29	-28.50037
3.2905	-27.6947
3.291	-26.3855
3.2915	-31.92444
3.292	-34.64355
3.2925	-26.58691
3.293	-22.76001
3.2935	-20.04089
3.294	-25.68054
3.2945	-22.55859
3.295	-22.45789
3.2955	-10.97717
3.296	-8.25806
3.2965	2.5177
3.297	14.60266
3.2975	34.24072
3.298	42.90161
3.2985	41.79382
3.299	46.72852
3.2995	51.46179
3.3	46.82922
3.3005	49.95117
3.301	54.58374
3.3015	52.56958
3.302	47.13135
3.3025	41.18958
3.303	42.59949
3.3035	45.72144
3.304	55.18799
3.3045	63.24463
3.305	64.05029
3.3055	64.75525
3.306	56.90002
3.3065	40.88745
3.307	4.33044
3.3075	7.5531
3.308	15.60974
3.3085	8.25806
3.309	-4.43115
3.3095	-9.46655
3.31	-24.97559
3.3105	-48.23914
3.311	-65.86304
3.3115	-75.4303
3.312	-94.2627
3.3125	-95.16907
3.313	-85.40039
3.3135	-81.27136
3.314	-66.76941
3.3145	-46.12427
3.315	-29.70886
3.3155	-7.5531
3.316	16.51611
3.3165	30.01099
3.317	54.0802
3.3175	52.8717
3.318	46.12427
3.3185	45.52002
3.319	35.14709
3.3195	34.74426
3.32	30.41382
3.3205	32.83081
3.321	40.1825
3.3215	47.7356
3.322	51.15967
3.3225	47.53418
3.323	41.59241
3.3235	32.62939
3.324	30.81665
3.3245	38.57117
3.325	37.86621
3.3255	33.23364
3.326	25.68054
3.3265	16.01257
3.327	5.23682
3.3275	2.61841
3.328	-2.31628
3.3285	-2.92053
3.329	5.94177
3.3295	10.57434
3.33	13.69629
3.3305	10.87646
3.331	12.5885
3.3315	18.73169
3.332	14.50195
3.3325	17.92603
3.333	13.59558
3.3335	37.86621
3.334	52.26746
3.3345	49.54834
3.335	46.42639
3.3355	37.66479
3.336	17.12036
3.3365	-2.92053
3.337	-25.88196
3.3375	-37.86621
3.338	-36.65771
3.3385	-33.03223
3.339	-50.85754
3.3395	-49.85046
3.34	-47.23206
3.3405	-30.61523
3.341	-28.39966
3.3415	-22.35718
3.342	-12.18567
3.3425	-0.50354
3.343	20.34302
3.3435	20.94727
3.344	23.36426
3.3445	16.91895
3.345	14.50195
3.3455	18.12744
3.346	17.42249
3.3465	14.09912
3.347	13.29346
3.3475	16.3147
3.348	22.25647
3.3485	19.33594
3.349	17.92603
3.3495	-3.8269
3.35	-15.50903
3.3505	-10.67505
3.351	-8.45947
3.3515	-0.90637
3.352	0.80566
3.3525	-9.26514
3.353	-8.45947
3.3535	-26.58691
3.354	-34.64355
3.3545	-45.41931
3.355	-64.55383
3.3555	-70.89844
3.356	-82.9834
3.3565	-86.91101
3.357	-78.55225
3.3575	-72.10693
3.358	-66.97083
3.3585	-50.65613
3.359	-34.24072
3.3595	-32.32727
3.36	-28.39966
3.3605	-22.55859
3.361	-8.45947
3.3615	1.51062
3.362	-2.71912
3.3625	-4.02832
3.363	13.29346
3.3635	39.37683
3.364	62.03613
3.3645	75.4303
3.365	89.83154
3.3655	97.98889
3.366	88.42163
3.3665	69.99207
3.367	51.76392
3.3675	41.69312
3.368	28.70178
3.3685	6.2439
3.369	-10.37292
3.3695	-20.34302
3.37	-31.21948
3.3705	-30.51453
3.371	-23.16284
3.3715	-11.78284
3.372	7.5531
3.3725	12.99133
3.373	25.27771
3.3735	30.01099
3.374	35.54993
3.3745	25.07629
3.375	26.08337
3.3755	20.84656
3.376	18.53027
3.3765	19.73877
3.377	25.07629
3.3775	29.80957
3.378	34.64355
3.3785	22.76001
3.379	0.80566
3.3795	-18.8324
3.38	-28.60107
3.3805	-28.29895
3.381	-34.54285
3.3815	-35.65063
3.382	-28.9032
3.3825	-34.14001
3.383	-32.12585
3.3835	-26.98975
3.384	-20.1416
3.3845	-9.86938
3.385	-9.56726
3.3855	-7.85522
3.386	-2.61841
3.3865	4.73328
3.387	13.69629
3.3875	22.05505
3.388	35.44922
3.3885	51.15967
3.389	65.76233
3.3895	58.91418
3.39	51.76392
3.3905	42.59949
3.391	34.24072
3.3915	35.85205
3.392	31.52161
3.3925	21.3501
3.393	14.40125
3.3935	17.42249
3.394	15.91187
3.3945	12.99133
3.395	10.27222
3.3955	11.68213
3.396	9.56726
3.3965	7.15027
3.397	8.66089
3.3975	12.5885
3.398	13.49487
3.3985	32.52869
3.399	31.52161
3.3995	38.16833
3.4	36.35559
3.4005	35.34851
3.401	49.14551
3.4015	53.37524
3.402	50.95825
3.4025	44.81506
3.403	23.76709
3.4035	2.61841
3.404	-21.3501
3.4045	-36.75842
3.405	-49.95117
3.4055	-61.02905
3.406	-68.78357
3.4065	-59.31702
3.407	-51.86462
3.4075	-44.61365
3.408	-29.60815
3.4085	-17.92603
3.409	3.52478
3.4095	12.28638
3.41	4.83398
3.4105	4.22974
3.411	10.57434
3.4115	19.94019
3.412	29.80957
3.4125	46.92993
3.413	59.51843
3.4135	60.92834
3.414	60.92834
3.4145	57.40356
3.415	44.71436
3.4155	27.59399
3.416	4.43115
3.4165	-5.43823
3.417	-10.47363
3.4175	-13.59558
3.418	-14.30054
3.4185	-21.95435
3.419	-20.64514
3.4195	-20.24231
3.42	-16.11328
3.4205	-16.51611
3.421	-14.50195
3.4215	-16.21399
3.422	-9.86938
3.4225	0.30212
3.423	11.68213
3.4235	15.40833
3.424	19.63806
3.4245	24.47205
3.425	38.974
3.4255	53.07312
3.426	49.14551
3.4265	46.32568
3.427	62.8418
3.4275	69.58923
3.428	69.79065
3.4285	60.82764
3.429	41.79382
3.4295	14.40125
3.43	-7.5531
3.4305	-20.34302
3.431	-39.77966
3.4315	-48.13843
3.432	-57.9071
3.4325	-66.46729
3.433	-67.97791
3.4335	-63.84888
3.434	-55.08728
3.4345	-40.48462
3.435	-42.8009
3.4355	-25.07629
3.436	-12.89062
3.4365	-0.30212
3.437	11.58142
3.4375	9.16443
3.438	8.15735
3.4385	11.07788
3.439	19.43665
3.4395	29.60815
3.44	31.32019
3.4405	35.14709
3.441	36.65771
3.4415	36.4563
3.442	32.22656
3.4425	32.52869
3.443	34.64355
3.4435	26.3855
3.444	22.86072
3.4445	14.19983
3.445	13.59558
3.4455	14.40125
3.446	3.52478
3.4465	3.92761
3.447	-0.70496
3.4475	6.3446
3.448	11.48071
3.4485	19.03381
3.449	20.54443
3.4495	27.59399
3.45	30.81665
3.4505	33.33435
3.451	34.54285
3.4515	26.08337
3.452	12.68921
3.4525	3.12195
3.453	-2.5177
3.4535	-6.64673
3.454	-7.35168
3.4545	-13.99841
3.455	-2.21558
3.4555	-0.90637
3.456	-0.90637
3.4565	-16.61682
3.457	-24.97559
3.4575	-33.73718
3.458	-35.54993
3.4585	-32.12585
3.459	-31.4209
3.4595	-31.01807
3.46	-45.3186
3.4605	-50.65613
3.461	-47.43347
3.4615	-44.0094
3.462	-49.44763
3.4625	-52.771
3.463	-43.20374
3.4635	-30.41382
3.464	-14.40125
3.4645	3.32336
3.465	13.59558
3.4655	27.79541
3.466	20.94727
3.4665	15.50903
3.467	26.68762
3.4675	26.58691
3.468	20.94727
3.4685	19.94019
3.469	13.29346
3.4695	20.44373
3.47	26.98975
3.4705	47.7356
3.471	65.25879
3.4715	64.55383
3.472	70.49561
3.4725	59.1156
3.473	43.20374
3.4735	36.15417
3.474	42.8009
3.4745	43.50586
3.475	41.99524
3.4755	39.07471
3.476	29.50745
3.4765	28.29895
3.477	51.36108
3.4775	62.53967
3.478	62.43896
3.4785	43.00232
3.479	14.30054
3.4795	-23.06213
3.48	-52.8717
3.4805	-67.37366
3.481	-75.93384
3.4815	-78.45154
3.482	-85.29968
3.4825	-74.2218
3.483	-61.33118
3.4835	-38.77258
3.484	-16.21399
3.4845	4.43115
3.485	25.78125
3.4855	38.77258
3.486	63.44604
3.4865	66.56799
3.487	65.56091
3.4875	64.151
3.488	72.71118
3.4885	68.17932
3.489	46.5271
3.4895	23.76709
3.49	11.07788
3.4905	3.22266
3.491	2.61841
3.4915	1.61133
3.492	-0.20142
3.4925	4.33044
3.493	2.5177
3.4935	-1.2085
3.494	-0.90637
3.4945	-1.2085
3.495	-0.20142
3.4955	-1.71204
3.496	-0.20142
3.4965	-4.83398
3.497	-7.25098
3.4975	-6.3446
3.498	-2.21558
3.4985	-3.52478
3.499	-2.41699
3.4995	-0.80566
3.5	3.12195
3.5005	10.0708
3.501	8.15735
3.5015	22.86072
3.502	43.00232
3.5025	64.45312
3.503	76.23596
3.5035	73.11401
3.504	53.77808
3.5045	27.59399
3.505	7.15027
3.5055	-11.98425
3.506	-23.46497
3.5065	-33.23364
3.507	-30.71594
3.5075	-33.33435
3.508	-34.94568
3.5085	-34.44214
3.509	-32.7301
3.5095	-34.64355
3.51	-32.83081
3.5105	-19.83948
3.511	-12.68921
3.5115	-9.56726
3.512	-1.51062
3.5125	1.91345
3.513	4.12903
3.5135	10.17151
3.514	13.39417
3.5145	6.74744
3.515	17.22107
3.5155	21.3501
3.516	23.26355
3.5165	24.77417
3.517	24.37134
3.5175	17.6239
3.518	20.74585
3.5185	14.70337
3.519	14.90479
3.5195	21.45081
3.52	18.8324
3.5205	21.75293
3.521	24.47205
3.5215	18.42957
3.522	17.22107
3.5225	17.22107
3.523	18.73169
3.5235	20.1416
3.524	36.15417
3.5245	34.24072
3.525	30.31311
3.5255	30.11169
3.526	26.58691
3.5265	12.48779
3.527	3.7262
3.5275	-13.89771
3.528	-26.68762
3.5285	-34.03931
3.529	-36.85913
3.5295	-44.91577
3.53	-43.20374
3.5305	-32.12585
3.531	-26.78833
3.5315	-20.34302
3.532	-17.92603
3.5325	-13.797
3.533	-16.21399
3.5335	-13.29346
3.534	-19.53735
3.5345	-14.90479
3.535	-13.59558
3.5355	-13.09204
3.536	-10.97717
3.5365	-4.63257
3.537	6.04248
3.5375	14.40125
3.538	21.3501
3.5385	19.03381
3.539	19.03381
3.5395	12.28638
3.54	9.46655
3.5405	13.59558
3.541	11.2793
3.5415	12.28638
3.542	5.84106
3.5425	-15.60974
3.543	-27.6947
3.5435	-37.46338
3.544	-53.67737
3.5445	-65.56091
3.545	-69.89136
3.5455	-75.53101
3.546	-64.95667
3.5465	-55.79224
3.547	-46.22498
3.5475	-17.92603
3.548	10.0708
3.5485	31.92444
3.549	53.97949
3.5495	72.61047
3.55	84.79614
3.5505	82.17773
3.551	88.42163
3.5515	95.87402
3.552	107.95898
3.5525	118.13049
3.553	106.8512
3.5535	78.25012
3.554	54.88586
3.5545	31.4209
3.555	20.74585
3.5555	14.90479
3.556	3.52478
3.5565	-11.68213
3.557	-37.16125
3.5575	-69.79065
3.558	-88.11951
3.5585	-88.32092
3.559	-83.88977
3.5595	-64.55383
3.56	-50.95825
3.5605	-16.3147
3.561	26.68762
3.5615	51.26038
3.562	76.7395
3.5625	98.0896
3.563	92.14783
3.5635	77.948
3.564	63.74817
3.5645	56.39648
3.565	27.59399
3.5655	-4.73328
3.566	-19.33594
3.5665	-21.14868
3.567	-28.19824
3.5675	-25.37842
3.568	-20.04089
3.5685	-7.5531
3.569	1.71204
3.5695	-4.53186
3.57	-8.8623
3.5705	-21.14868
3.571	-11.2793
3.5715	-2.61841
3.572	4.33044
3.5725	12.99133
3.573	10.67505
3.5735	13.49487
3.574	11.2793
3.5745	23.46497
3.575	30.01099
3.5755	25.98267
3.576	24.57275
3.5765	15.30762
3.577	13.19275
3.5775	17.12036
3.578	13.39417
3.5785	12.5885
3.579	11.78284
3.5795	18.22815
3.58	18.93311
3.5805	17.42249
3.581	24.27063
3.5815	17.92603
3.582	23.76709
3.5825	21.55151
3.583	21.75293
3.5835	15.1062
3.584	25.47913
3.5845	15.50903
3.585	11.07788
3.5855	32.52869
3.586	50.95825
3.5865	56.69861
3.587	53.37524
3.5875	35.04639
3.588	22.45789
3.5885	-2.5177
3.589	-21.3501
3.5895	-39.88037
3.59	-54.38232
3.5905	-63.04321
3.591	-61.83472
3.5915	-61.83472
3.592	-58.91418
3.5925	-55.08728
3.593	-55.69153
3.5935	-71.30127
3.594	-77.74658
3.5945	-67.77649
3.595	-61.23047
3.5955	-55.3894
3.596	-45.01648
3.5965	-36.95984
3.597	-27.19116
3.5975	-18.53027
3.598	-10.57434
3.5985	5.84106
3.599	17.22107
3.5995	24.27063
3.6	21.95435
3.6005	25.37842
3.601	44.51294
3.6015	48.74268
3.602	61.23047
3.6025	74.62463
3.603	79.96216
3.6035	88.22021
3.604	81.7749
3.6045	71.09985
3.605	61.23047
3.6055	54.58374
3.606	42.09595
3.6065	43.80798
3.607	47.13135
3.6075	41.4917
3.608	32.7301
3.6085	21.45081
3.609	14.19983
3.6095	13.29346
3.61	11.07788
3.6105	-4.33044
3.611	-19.43665
3.6115	-19.23523
3.612	-20.24231
3.6125	-11.58142
3.613	-12.5885
3.6135	-24.06921
3.614	-33.43506
3.6145	-47.63489
3.615	-67.8772
3.6155	-85.29968
3.616	-91.94641
3.6165	-78.35083
3.617	-63.04321
3.6175	-47.53418
3.618	-31.92444
3.6185	-8.8623
3.619	18.32886
3.6195	42.29736
3.62	55.59082
3.6205	65.3595
3.621	55.69153
3.6215	43.60657
3.622	38.87329
3.6225	35.44922
3.623	45.92285
3.6235	41.39099
3.624	47.23206
3.6245	61.23047
3.625	71.80481
3.6255	70.29419
3.626	46.82922
3.6265	37.26196
3.627	24.97559
3.6275	10.97717
3.628	-0.60425
3.6285	-8.25806
3.629	-12.28638
3.6295	-27.29187
3.63	-35.95276
3.6305	-28.19824
3.631	-20.94727
3.6315	-15.71045
3.632	-18.53027
3.6325	-4.02832
3.633	-10.67505
3.6335	0.20142
3.634	1.2085
3.6345	-1.00708
3.635	6.74744
3.6355	16.91895
3.636	24.67346
3.6365	30.81665
3.637	24.16992
3.6375	20.1416
3.638	12.99133
3.6385	12.48779
3.639	14.09912
3.6395	19.73877
3.64	31.21948
3.6405	38.16833
3.641	32.12585
3.6415	25.177
3.642	10.0708
3.6425	-0.40283
3.643	-8.7616
3.6435	-14.70337
3.644	-33.03223
3.6445	-42.90161
3.645	-49.54834
3.6455	-46.22498
3.646	-38.87329
3.6465	-31.21948
3.647	-16.91895
3.6475	-3.22266
3.648	-5.43823
3.6485	-10.77576
3.649	-9.36584
3.6495	-11.38
3.65	-2.61841
3.6505	-8.56018
3.651	-8.35876
3.6515	-11.98425
3.652	-6.2439
3.6525	-2.21558
3.653	2.71912
3.6535	2.01416
3.654	3.52478
3.6545	4.93469
3.655	7.25098
3.6555	10.37292
3.656	7.85522
3.6565	12.38708
3.657	18.73169
3.6575	12.18567
3.658	17.32178
3.6585	9.86938
3.659	0.20142
3.6595	2.81982
3.66	4.73328
3.6605	9.86938
3.661	38.974
3.6615	59.1156
3.662	64.95667
3.6625	72.61047
3.663	55.99365
3.6635	36.35559
3.664	19.73877
3.6645	4.83398
3.665	-12.08496
3.6655	-19.03381
3.666	-32.7301
3.6665	-47.63489
3.667	-47.93701
3.6675	-49.54834
3.668	-44.71436
3.6685	-30.41382
3.669	-9.26514
3.6695	-2.61841
3.67	13.49487
3.6705	16.61682
3.671	10.97717
3.6715	-7.35168
3.672	-18.32886
3.6725	-21.75293
3.673	-24.97559
3.6735	-31.62231
3.674	-29.10461
3.6745	-21.55151
3.675	-19.94019
3.6755	-14.19983
3.676	-1.71204
3.6765	5.74036
3.677	10.97717
3.6775	8.96301
3.678	8.7616
3.6785	10.47363
3.679	15.20691
3.6795	24.16992
3.68	32.52869
3.6805	41.89453
3.681	53.37524
3.6815	45.41931
3.682	42.19666
3.6825	42.7002
3.683	39.07471
3.6835	41.89453
3.684	47.13135
3.6845	51.86462
3.685	47.03064
3.6855	37.56409
3.686	26.68762
3.6865	14.80408
3.687	5.74036
3.6875	4.63257
3.688	2.71912
3.6885	5.23682
3.689	6.74744
3.6895	3.52478
3.69	6.44531
3.6905	16.3147
3.691	10.57434
3.6915	6.44531
3.692	2.41699
3.6925	-5.33752
3.693	4.53186
3.6935	0.30212
3.694	6.94885
3.6945	-4.33044
3.695	-1.81274
3.6955	0.10071
3.696	6.2439
3.6965	1.40991
3.697	-6.64673
3.6975	9.26514
3.698	17.52319
3.6985	22.15576
3.699	27.09045
3.6995	17.52319
3.7	14.90479
3.7005	7.5531
3.701	4.02832
3.7015	-7.25098
3.702	-9.36584
3.7025	-20.44373
3.703	-27.79541
3.7035	-32.93152
3.704	-32.02515
3.7045	-25.78125
3.705	-25.27771
3.7055	-32.7301
3.706	-36.15417
3.7065	-27.59399
3.707	-8.96301
3.7075	-0.80566
3.708	2.71912
3.7085	13.99841
3.709	17.12036
3.7095	25.57983
3.71	28.9032
3.7105	30.91736
3.711	25.177
3.7115	25.98267
3.712	27.59399
3.7125	20.04089
3.713	18.42957
3.7135	6.3446
3.714	14.50195
3.7145	16.01257
3.715	23.36426
3.7155	28.09753
3.716	25.27771
3.7165	11.88354
3.717	0.40283
3.7175	-4.83398
3.718	-12.5885
3.7185	-12.18567
3.719	-8.25806
3.7195	0.90637
3.72	-2.11487
3.7205	3.12195
3.721	9.56726
3.7215	2.61841
3.722	-4.93469
3.7225	-8.45947
3.723	-10.97717
3.7235	-23.76709
3.724	-26.78833
3.7245	-26.48621
3.725	-17.6239
3.7255	-24.57275
3.726	-29.40674
3.7265	-27.99683
3.727	-18.22815
3.7275	-9.76868
3.728	-2.41699
3.7285	7.5531
3.729	13.29346
3.7295	16.41541
3.73	26.18408
3.7305	27.19116
3.731	26.18408
3.7315	43.10303
3.732	43.80798
3.7325	41.18958
3.733	27.99683
3.7335	13.89771
3.734	8.35876
3.7345	14.19983
3.735	25.37842
3.7355	37.56409
3.736	39.98108
3.7365	33.9386
3.737	27.49329
3.7375	23.26355
3.738	17.22107
3.7385	28.39966
3.739	36.55701
3.7395	29.50745
3.74	35.85205
3.7405	41.79382
3.741	36.95984
3.7415	20.94727
3.742	-0.40283
3.7425	-13.89771
3.743	-33.13293
3.7435	-44.21082
3.744	-52.67029
3.7445	-65.86304
3.745	-66.97083
3.7455	-66.76941
3.746	-65.86304
3.7465	-55.59082
3.747	-44.81506
3.7475	-31.11877
3.748	-21.04797
3.7485	-7.5531
3.749	-1.40991
3.7495	1.61133
3.75	6.64673
3.7505	5.53894
3.751	12.68921
3.7515	24.06921
3.752	21.14868
3.7525	30.11169
3.753	38.16833
3.7535	41.4917
3.754	38.16833
3.7545	27.89612
3.755	35.54993
3.7555	50.15259
3.756	50.65613
3.7565	51.36108
3.757	39.47754
3.7575	30.71594
3.758	16.21399
3.7585	0.30212
3.759	-17.42249
3.7595	-24.57275
3.76	-25.37842
3.7605	-25.88196
3.761	-20.44373
3.7615	-22.86072
3.762	-6.2439
3.7625	1.91345
3.763	7.65381
3.7635	14.19983
3.764	18.22815
3.7645	22.35718
3.765	21.85364
3.7655	16.3147
3.766	15.60974
3.7665	19.03381
3.767	15.81116
3.7675	27.59399
3.768	33.83789
3.7685	34.24072
3.769	31.82373
3.7695	29.91028
3.77	32.7301
3.7705	31.21948
3.771	31.11877
3.7715	35.14709
3.772	31.92444
3.7725	16.51611
3.773	-3.22266
3.7735	-14.70337
3.774	-23.66638
3.7745	-21.55151
3.775	-22.45789
3.7755	-26.28479
3.776	-25.37842
3.7765	-27.19116
3.777	-17.42249
3.7775	-9.06372
3.778	-8.45947
3.7785	-6.84814
3.779	4.93469
3.7795	13.09204
3.78	19.03381
3.7805	22.35718
3.781	17.6239
3.7815	21.3501
3.782	26.98975
3.7825	25.57983
3.783	25.57983
3.7835	9.06372
3.784	-4.63257
3.7845	-12.28638
3.785	-11.58142
3.7855	-13.19275
3.786	-14.50195
3.7865	-8.35876
3.787	-2.11487
3.7875	-5.33752
3.788	-7.75452
3.7885	-4.12903
3.789	4.63257
3.7895	22.55859
3.79	23.16284
3.7905	25.177
3.791	19.03381
3.7915	15.91187
3.792	16.51611
3.7925	20.1416
3.793	15.91187
3.7935	-1.61133
3.794	-12.99133
3.7945	-11.48071
3.795	-15.40833
3.7955	-10.87646
3.796	-18.32886
3.7965	-11.88354
3.797	-5.94177
3.7975	-9.06372
3.798	-9.86938
3.7985	-4.93469
3.799	-10.77576
3.7995	-26.28479
3.8	-34.94568
3.8005	-39.47754
3.801	-39.47754
3.8015	-30.41382
3.802	-29.40674
3.8025	-10.57434
3.803	7.25098
3.8035	15.40833
3.804	13.99841
3.8045	8.96301
3.805	10.0708
3.8055	23.36426
3.806	24.37134
3.8065	31.72302
3.807	32.62939
3.8075	39.67896
3.808	51.36108
3.8085	62.64038
3.809	82.47986
3.8095	84.89685
3.81	67.67578
3.8105	43.00232
3.811	18.02673
3.8115	-9.26514
3.812	-31.32019
3.8125	-46.32568
3.813	-49.85046
3.8135	-49.95117
3.814	-40.2832
3.8145	-34.03931
3.815	-21.55151
3.8155	-11.38
3.816	0.80566
3.8165	-2.31628
3.817	3.62549
3.8175	8.56018
3.818	24.87488
3.8185	29.10461
3.819	46.42639
3.8195	56.29578
3.82	66.87012
3.8205	73.01331
3.821	67.27295
3.8215	66.6687
3.822	58.10852
3.8225	41.79382
3.823	25.78125
3.8235	33.9386
3.824	39.17542
3.8245	44.11011
3.825	43.30444
3.8255	28.80249
3.826	19.13452
3.8265	17.01965
3.827	33.03223
3.8275	25.68054
3.828	10.47363
3.8285	1.51062
3.829	-10.17151
3.8295	-29.70886
3.83	-43.80798
3.8305	-49.44763
3.831	-41.18958
3.8315	-41.4917
3.832	-34.84497
3.8325	-23.76709
3.833	-13.39417
3.8335	-11.2793
3.834	-4.22974
3.8345	1.61133
3.835	12.78992
3.8355	14.90479
3.836	15.1062
3.8365	4.53186
3.837	2.21558
3.8375	3.7262
3.838	10.27222
3.8385	7.15027
3.839	10.47363
3.8395	12.48779
3.84	7.75452
3.8405	5.94177
3.841	6.84814
3.8415	4.12903
3.842	-6.2439
3.8425	-16.01257
3.843	-16.51611
3.8435	-27.19116
3.844	-43.40515
3.8445	-49.85046
3.845	-48.33984
3.8455	-38.77258
3.846	-36.75842
3.8465	-33.03223
3.847	-23.16284
3.8475	-23.36426
3.848	-10.67505
3.8485	-1.51062
3.849	-1.3092
3.8495	5.0354
3.85	10.47363
3.8505	15.71045
3.851	21.45081
3.8515	26.08337
3.852	25.27771
3.8525	29.50745
3.853	45.62073
3.8535	55.08728
3.854	52.8717
3.8545	47.7356
3.855	39.98108
3.8555	28.60107
3.856	16.71753
3.8565	4.93469
3.857	-3.02124
3.8575	-4.63257
3.858	-3.02124
3.8585	-6.44531
3.859	-4.73328
3.8595	-3.12195
3.86	-1.51062
3.8605	0.40283
3.861	1.61133
3.8615	-2.31628
3.862	-5.0354
3.8625	0.40283
3.863	5.43823
3.8635	2.92053
3.864	7.45239
3.8645	12.5885
3.865	6.64673
3.8655	-0.60425
3.866	0.90637
3.8665	1.71204
3.867	6.84814
3.8675	5.74036
3.868	4.53186
3.8685	9.06372
3.869	7.85522
3.8695	7.04956
3.87	2.5177
3.8705	8.15735
3.871	6.44531
3.8715	6.44531
3.872	5.84106
3.8725	9.97009
3.873	10.47363
3.8735	8.56018
3.874	14.19983
3.8745	18.53027
3.875	18.73169
3.8755	1.10779
3.876	-17.22107
3.8765	-29.60815
3.877	-44.21082
3.8775	-56.29578
3.878	-60.4248
3.8785	-63.54675
3.879	-58.91418
3.8795	-51.86462
3.88	-39.37683
3.8805	-24.67346
3.881	-19.73877
3.8815	-4.12903
3.882	1.40991
3.8825	9.76868
3.883	18.32886
3.8835	27.09045
3.884	33.9386
3.8845	54.18091
3.885	72.50977
3.8855	88.0188
3.886	104.93774
3.8865	104.73633
3.887	102.01721
3.8875	96.8811
3.888	79.35791
3.8885	67.47437
3.889	61.33118
3.8895	41.29028
3.89	39.07471
3.8905	33.83789
3.891	35.14709
3.8915	27.89612
3.892	36.65771
3.8925	41.69312
3.893	42.39807
3.8935	27.19116
3.894	-5.63965
3.8945	-40.98816
3.895	-59.71985
3.8955	-79.2572
3.896	-90.5365
3.8965	-95.06836
3.897	-95.77332
3.8975	-91.14075
3.898	-88.32092
3.8985	-74.12109
3.899	-50.75684
3.8995	-35.54993
3.9	-22.86072
3.9005	-7.65381
3.901	-3.7262
3.9015	-3.92761
3.902	6.54602
3.9025	11.58142
3.903	20.04089
3.9035	28.50037
3.904	30.81665
3.9045	21.24939
3.905	12.5885
3.9055	18.32886
3.906	16.21399
3.9065	25.47913
3.907	41.99524
3.9075	35.04639
3.908	32.62939
3.9085	21.85364
3.909	14.30054
3.9095	15.1062
3.91	19.43665
3.9105	18.02673
3.911	21.3501
3.9115	21.3501
3.912	13.69629
3.9125	13.49487
3.913	12.78992
3.9135	13.89771
3.914	18.42957
3.9145	16.71753
3.915	11.78284
3.9155	14.60266
3.916	13.09204
3.9165	14.40125
3.917	9.66797
3.9175	7.95593
3.918	7.95593
3.9185	1.81274
3.919	1.2085
3.9195	2.11487
3.92	6.14319
3.9205	6.2439
3.921	10.87646
3.9215	12.18567
3.922	13.19275
3.9225	11.17859
3.923	8.15735
3.9235	9.36584
3.924	3.62549
3.9245	4.73328
3.925	9.86938
3.9255	2.11487
3.926	-13.69629
3.9265	-15.60974
3.927	-15.20691
3.9275	-11.48071
3.928	-15.91187
3.9285	-11.48071
3.929	-11.68213
3.9295	-9.66797
3.93	-14.60266
3.9305	-17.42249
3.931	-19.94019
3.9315	-15.71045
3.932	-3.52478
3.9325	4.33044
3.933	13.69629
3.9335	28.9032
3.934	26.88904
3.9345	28.70178
3.935	38.87329
3.9355	40.48462
3.936	43.80798
3.9365	34.34143
3.937	23.76709
3.9375	9.86938
3.938	15.20691
3.9385	13.39417
3.939	20.1416
3.9395	11.98425
3.94	17.01965
3.9405	17.82532
3.941	11.88354
3.9415	6.04248
3.942	-3.42407
3.9425	-0.30212
3.943	-3.52478
3.9435	-5.33752
3.944	-6.84814
3.9445	-0.80566
3.945	-3.7262
3.9455	1.91345
3.946	19.13452
3.9465	26.18408
3.947	29.00391
3.9475	23.66638
3.948	28.60107
3.9485	24.77417
3.949	15.81116
3.9495	8.25806
3.95	-2.71912
3.9505	-17.72461
3.951	-30.81665
3.9515	-38.06763
3.952	-38.77258
3.9525	-35.44922
3.953	-32.62939
3.9535	-25.07629
3.954	-16.21399
3.9545	0.30212
3.955	12.68921
3.9555	13.39417
3.956	5.23682
3.9565	26.68762
3.957	29.70886
3.9575	24.67346
3.958	18.02673
3.9585	5.84106
3.959	-3.02124
3.9595	-3.7262
3.96	-12.68921
3.9605	-32.02515
3.961	-41.18958
3.9615	-40.38391
3.962	-30.41382
3.9625	-22.05505
3.963	-5.94177
3.9635	9.26514
3.964	12.08496
3.9645	13.29346
3.965	10.0708
3.9655	15.00549
3.966	28.80249
3.9665	38.87329
3.967	70.29419
3.9675	88.22021
3.968	96.8811
3.9685	97.08252
3.969	90.13367
3.9695	78.75366
3.97	59.31702
3.9705	44.81506
3.971	13.49487
3.9715	-5.74036
3.972	-9.26514
3.9725	-7.04956
3.973	-12.89062
3.9735	-8.8623
3.974	-6.3446
3.9745	1.61133
3.975	3.22266
3.9755	11.48071
3.976	19.94019
3.9765	21.75293
3.977	26.98975
3.9775	33.9386
3.978	29.20532
3.9785	17.01965
3.979	18.22815
3.9795	22.55859
3.98	25.57983
3.9805	24.37134
3.981	24.37134
3.9815	21.14868
3.982	17.52319
3.9825	15.71045
3.983	17.42249
3.9835	17.92603
3.984	14.30054
3.9845	1.51062
3.985	4.83398
3.9855	4.12903
3.986	-4.22974
3.9865	-0.70496
3.987	-1.00708
3.9875	-2.71912
3.988	-5.74036
3.9885	-3.12195
3.989	-6.3446
3.9895	-10.27222
3.99	-13.89771
3.9905	-12.99133
3.991	-12.5885
3.9915	-10.97717
3.992	-16.41541
3.9925	-18.8324
3.993	-13.19275
3.9935	-10.0708
3.994	-11.88354
3.9945	-5.53894
