Antonio_Festa_Left_2.c3d  



Time(s):	B_R_bicipite(μV):
0	-14.30054
0.0005	-19.63806
0.001	-32.52869
0.0015	-57.9071
0.002	-73.61755
0.0025	-72.40906
0.003	-50.15259
0.0035	-28.29895
0.004	12.48779
0.0045	41.89453
0.005	54.88586
0.0055	52.46887
0.006	44.71436
0.0065	27.39258
0.007	-5.13611
0.0075	-35.85205
0.008	-52.8717
0.0085	-71.7041
0.009	-87.51526
0.0095	-88.11951
0.01	-73.71826
0.0105	-63.14392
0.011	-61.6333
0.0115	-62.64038
0.012	-61.73401
0.0125	-46.62781
0.013	-31.62231
0.0135	-18.53027
0.014	-23.26355
0.0145	-20.84656
0.015	-11.58142
0.0155	-2.81982
0.016	7.15027
0.0165	23.16284
0.017	52.36816
0.0175	66.16516
0.018	68.38074
0.0185	61.43188
0.019	58.51135
0.0195	48.94409
0.02	37.06055
0.0205	19.63806
0.021	-3.92761
0.0215	-31.11877
0.022	-50.05188
0.0225	-61.12976
0.023	-71.40198
0.0235	-85.5011
0.024	-87.01172
0.0245	-51.15967
0.025	-13.19275
0.0255	-1.91345
0.026	-7.75452
0.0265	-18.42957
0.027	-28.9032
0.0275	-47.93701
0.028	-76.53809
0.0285	-87.71667
0.029	-94.46411
0.0295	-90.83862
0.03	-73.11401
0.0305	-60.02197
0.031	-41.69312
0.0315	-22.86072
0.032	-3.7262
0.0325	36.85913
0.033	81.7749
0.0335	129.30908
0.034	174.8291
0.0345	194.36646
0.035	186.41052
0.0355	167.98096
0.036	150.35706
0.0365	107.95898
0.037	70.89844
0.0375	38.87329
0.038	3.62549
0.0385	-17.32178
0.039	-26.98975
0.0395	-30.61523
0.04	-26.08337
0.0405	1.3092
0.041	76.7395
0.0415	154.28467
0.042	199.50256
0.0425	207.15637
0.043	185.70557
0.0435	143.91174
0.044	101.01013
0.0445	65.66162
0.045	22.55859
0.0455	-22.6593
0.046	-65.25879
0.0465	-111.28235
0.047	-133.3374
0.0475	-150.8606
0.048	-155.49316
0.0485	-166.77246
0.049	-168.58521
0.0495	-166.67175
0.05	-153.98254
0.0505	-140.38696
0.051	-112.49084
0.0515	-77.74658
0.052	-3.62549
0.0525	61.02905
0.053	97.98889
0.0535	101.61438
0.054	120.64819
0.0545	121.05103
0.055	107.95898
0.0555	93.55774
0.056	65.56091
0.0565	41.89453
0.057	20.24231
0.0575	-2.61841
0.058	-25.47913
0.0585	-43.50586
0.059	-57.10144
0.0595	-74.52393
0.06	-65.56091
0.0605	-43.80798
0.061	-20.74585
0.0615	10.27222
0.062	26.48621
0.0625	35.14709
0.063	28.80249
0.0635	32.42798
0.064	43.40515
0.0645	46.5271
0.065	41.39099
0.0655	25.98267
0.066	5.74036
0.0665	-6.14319
0.067	-16.91895
0.0675	-11.17859
0.068	5.33752
0.0685	17.6239
0.069	51.26038
0.0695	105.34058
0.07	131.92749
0.0705	144.11316
0.071	153.57971
0.0715	142.80396
0.072	118.63403
0.0725	91.64429
0.073	71.90552
0.0735	35.34851
0.074	1.51062
0.0745	-12.18567
0.075	-16.41541
0.0755	-22.45789
0.076	-38.974
0.0765	-44.31152
0.077	-62.8418
0.0775	-81.27136
0.078	-94.2627
0.0785	-106.75049
0.079	-119.64111
0.0795	-125.48218
0.08	-121.9574
0.0805	-120.44678
0.081	-132.43103
0.0815	-128.50342
0.082	-115.20996
0.0825	-93.45703
0.083	-68.68286
0.0835	-60.72693
0.084	-36.95984
0.0845	-23.26355
0.085	-12.08496
0.0855	0.30212
0.086	6.3446
0.0865	10.67505
0.087	11.48071
0.0875	18.73169
0.088	14.09912
0.0885	11.78284
0.089	10.67505
0.0895	17.32178
0.09	41.4917
0.0905	78.65295
0.091	111.28235
0.0915	132.22961
0.092	130.01404
0.0925	115.20996
0.093	105.6427
0.0935	92.75208
0.094	79.86145
0.0945	57.9071
0.095	44.61365
0.0955	26.28479
0.096	5.0354
0.0965	-3.32336
0.097	-8.15735
0.0975	-19.23523
0.098	-25.27771
0.0985	-31.4209
0.099	-29.91028
0.0995	-24.87488
0.1	-11.88354
0.1005	-13.797
0.101	-13.09204
0.1015	3.02124
0.102	11.98425
0.1025	16.11328
0.103	14.40125
0.1035	11.68213
0.104	8.8623
0.1045	12.89062
0.105	8.96301
0.1055	16.61682
0.106	20.24231
0.1065	30.31311
0.107	29.60815
0.1075	25.68054
0.108	28.70178
0.1085	28.29895
0.109	24.87488
0.1095	33.9386
0.11	32.32727
0.1105	27.29187
0.111	26.18408
0.1115	23.96851
0.112	21.3501
0.1125	28.80249
0.113	38.36975
0.1135	43.20374
0.114	40.1825
0.1145	45.41931
0.115	50.55542
0.1155	54.48303
0.116	67.8772
0.1165	114.505
0.117	122.96448
0.1175	102.11792
0.118	79.76074
0.1185	102.72217
0.119	129.5105
0.1195	111.48376
0.12	72.10693
0.1205	33.9386
0.121	-11.48071
0.1215	-57.20215
0.122	-90.13367
0.1225	-93.45703
0.123	-76.43738
0.1235	-60.22339
0.124	-64.85596
0.1245	-88.32092
0.125	-102.72217
0.1255	-111.18164
0.126	-110.47668
0.1265	-116.21704
0.127	-101.01013
0.1275	-83.99048
0.128	-64.65454
0.1285	-51.66321
0.129	-42.8009
0.1295	-33.43506
0.13	-13.797
0.1305	-2.61841
0.131	7.25098
0.1315	5.84106
0.132	19.03381
0.1325	22.25647
0.133	30.2124
0.1335	31.52161
0.134	28.39966
0.1345	24.47205
0.135	23.96851
0.1355	24.27063
0.136	21.45081
0.1365	20.1416
0.137	25.07629
0.1375	22.6593
0.138	22.15576
0.1385	16.61682
0.139	17.32178
0.1395	12.99133
0.14	9.06372
0.1405	5.74036
0.141	2.5177
0.1415	0.60425
0.142	1.10779
0.1425	-4.93469
0.143	-10.57434
0.1435	0.90637
0.144	-3.22266
0.1445	1.40991
0.145	3.42407
0.1455	22.6593
0.146	41.29028
0.1465	54.78516
0.147	58.00781
0.1475	52.36816
0.148	44.91577
0.1485	30.91736
0.149	23.46497
0.1495	15.91187
0.15	14.60266
0.1505	16.61682
0.151	14.50195
0.1515	12.68921
0.152	34.94568
0.1525	60.4248
0.153	67.57507
0.1535	57.70569
0.154	36.4563
0.1545	14.40125
0.155	5.53894
0.1555	4.53186
0.156	-7.85522
0.1565	-17.22107
0.157	-21.3501
0.1575	-34.84497
0.158	-45.41931
0.1585	-33.53577
0.159	-0.30212
0.1595	17.92603
0.16	25.27771
0.1605	23.8678
0.161	16.11328
0.1615	9.76868
0.162	34.84497
0.1625	99.70093
0.163	157.91016
0.1635	174.62769
0.164	155.896
0.1645	116.72058
0.165	68.28003
0.1655	19.94019
0.166	-19.03381
0.1665	-50.65613
0.167	-76.7395
0.1675	-88.72375
0.168	-95.16907
0.1685	-84.99756
0.169	-75.32959
0.1695	-70.49561
0.17	-63.44604
0.1705	-59.82056
0.171	-40.78674
0.1715	-22.76001
0.172	-0.80566
0.1725	24.87488
0.173	53.27454
0.1735	58.00781
0.174	44.21082
0.1745	23.96851
0.175	-6.44531
0.1755	-30.61523
0.176	-59.31702
0.1765	-79.86145
0.177	-93.55774
0.1775	-94.76624
0.178	-82.27844
0.1785	-63.94958
0.179	-41.18958
0.1795	-20.24231
0.18	-9.36584
0.1805	3.62549
0.181	23.66638
0.1815	43.80798
0.182	53.77808
0.1825	67.17224
0.183	73.01331
0.1835	68.28003
0.184	51.15967
0.1845	34.24072
0.185	28.39966
0.1855	20.04089
0.186	14.70337
0.1865	13.89771
0.187	11.98425
0.1875	9.56726
0.188	10.77576
0.1885	7.65381
0.189	6.64673
0.1895	8.66089
0.19	8.96301
0.1905	9.06372
0.191	16.91895
0.1915	9.86938
0.192	-5.94177
0.1925	-34.03931
0.193	-43.80798
0.1935	-36.05347
0.194	-24.47205
0.1945	-20.54443
0.195	-21.14868
0.1955	-17.22107
0.196	-26.3855
0.1965	-21.45081
0.197	-14.40125
0.1975	-7.45239
0.198	12.38708
0.1985	22.76001
0.199	27.79541
0.1995	34.64355
0.2	33.83789
0.2005	33.03223
0.201	41.18958
0.2015	38.57117
0.202	33.53577
0.2025	34.14001
0.203	39.98108
0.2035	45.41931
0.204	40.1825
0.2045	20.74585
0.205	13.39417
0.2055	4.22974
0.206	4.33044
0.2065	13.69629
0.207	18.93311
0.2075	18.8324
0.208	16.71753
0.2085	14.80408
0.209	14.40125
0.2095	25.88196
0.21	61.53259
0.2105	111.8866
0.211	133.74023
0.2115	126.89209
0.212	100.30518
0.2125	77.14233
0.213	51.66321
0.2135	14.70337
0.214	-12.5885
0.2145	-36.75842
0.215	-58.51135
0.2155	-69.28711
0.216	-72.81189
0.2165	-69.99207
0.217	-54.38232
0.2175	-35.34851
0.218	-14.60266
0.2185	-9.46655
0.219	-4.43115
0.2195	-7.35168
0.22	-4.02832
0.2205	5.23682
0.221	-0.70496
0.2215	-4.93469
0.222	-7.95593
0.2225	-7.5531
0.223	8.56018
0.2235	29.30603
0.224	41.69312
0.2245	42.59949
0.225	44.41223
0.2255	39.67896
0.226	30.11169
0.2265	19.43665
0.227	14.70337
0.2275	10.67505
0.228	11.17859
0.2285	-5.33752
0.229	-11.17859
0.2295	-21.3501
0.23	-30.2124
0.2305	-39.07471
0.231	-42.29736
0.2315	-43.00232
0.232	-38.974
0.2325	-31.32019
0.233	-15.91187
0.2335	-2.21558
0.234	6.14319
0.2345	9.06372
0.235	11.58142
0.2355	5.53894
0.236	7.04956
0.2365	5.13611
0.237	1.91345
0.2375	-4.93469
0.238	3.12195
0.2385	9.46655
0.239	3.02124
0.2395	-5.33752
0.24	-13.09204
0.2405	-15.20691
0.241	-15.1062
0.2415	-17.52319
0.242	-8.25806
0.2425	-7.85522
0.243	-12.48779
0.2435	-15.91187
0.244	-5.84106
0.2445	-2.21558
0.245	-3.22266
0.2455	-1.71204
0.246	2.31628
0.2465	14.40125
0.247	34.94568
0.2475	87.51526
0.248	135.55298
0.2485	155.59387
0.249	154.38538
0.2495	128.20129
0.25	106.34766
0.2505	91.34216
0.251	67.07153
0.2515	31.62231
0.252	-14.90479
0.2525	-39.77966
0.253	-48.23914
0.2535	-61.53259
0.254	-68.78357
0.2545	-73.31543
0.255	-73.91968
0.2555	-45.92285
0.256	14.40125
0.2565	54.78516
0.257	67.57507
0.2575	62.43896
0.258	47.7356
0.2585	3.8269
0.259	-13.29346
0.2595	-39.67896
0.26	-50.95825
0.2605	-59.71985
0.261	-65.86304
0.2615	-83.28552
0.262	-81.27136
0.2625	-73.51685
0.263	-73.91968
0.2635	-70.49561
0.264	-69.68994
0.2645	-69.58923
0.265	-69.28711
0.2655	-63.14392
0.266	-48.84338
0.2665	-34.03931
0.267	-16.01257
0.2675	-11.78284
0.268	-15.00549
0.2685	-13.797
0.269	-5.43823
0.2695	0.80566
0.27	-2.5177
0.2705	8.05664
0.271	11.38
0.2715	15.20691
0.272	17.72461
0.2725	16.81824
0.273	1.81274
0.2735	3.42407
0.274	1.61133
0.2745	0.70496
0.275	-8.15735
0.2755	-13.29346
0.276	-19.33594
0.2765	-27.49329
0.277	-23.56567
0.2775	-21.3501
0.278	-18.53027
0.2785	-17.6239
0.279	-21.65222
0.2795	-37.86621
0.28	-39.57825
0.2805	-41.08887
0.281	-31.21948
0.2815	-24.77417
0.282	-11.38
0.2825	5.43823
0.283	21.75293
0.2835	28.80249
0.284	32.83081
0.2845	24.67346
0.285	24.97559
0.2855	34.64355
0.286	38.67188
0.2865	54.78516
0.287	66.56799
0.2875	76.13525
0.288	74.2218
0.2885	73.61755
0.289	75.53101
0.2895	72.50977
0.29	63.34534
0.2905	51.86462
0.291	41.69312
0.2915	34.84497
0.292	30.81665
0.2925	25.68054
0.293	29.91028
0.2935	31.52161
0.294	29.30603
0.2945	30.91736
0.295	26.48621
0.2955	27.39258
0.296	25.07629
0.2965	20.1416
0.297	14.90479
0.2975	11.88354
0.298	9.26514
0.2985	5.74036
0.299	5.63965
0.2995	-4.22974
0.3	-12.38708
0.3005	-19.73877
0.301	-31.32019
0.3015	-42.29736
0.302	-64.45312
0.3025	-70.19348
0.303	-70.09277
0.3035	-65.05737
0.304	-58.71277
0.3045	-50.45471
0.305	-37.26196
0.3055	-32.93152
0.306	-16.61682
0.3065	-14.70337
0.307	1.00708
0.3075	10.47363
0.308	17.82532
0.3085	20.74585
0.309	26.58691
0.3095	41.79382
0.31	48.74268
0.3105	50.75684
0.311	45.11719
0.3115	45.52002
0.312	44.21082
0.3125	35.95276
0.313	29.50745
0.3135	15.40833
0.314	10.17151
0.3145	11.68213
0.315	8.8623
0.3155	9.76868
0.316	8.05664
0.3165	5.63965
0.317	1.2085
0.3175	3.7262
0.318	1.71204
0.3185	-3.92761
0.319	-6.44531
0.3195	-3.8269
0.32	1.3092
0.3205	-3.32336
0.321	-3.42407
0.3215	-0.20142
0.322	-5.63965
0.3225	-3.52478
0.323	-3.32336
0.3235	-4.53186
0.324	-5.0354
0.3245	-2.71912
0.325	-1.40991
0.3255	5.84106
0.326	5.0354
0.3265	8.96301
0.327	17.22107
0.3275	15.60974
0.328	18.93311
0.3285	25.88196
0.329	38.36975
0.3295	67.07153
0.33	93.15491
0.3305	107.75757
0.331	101.61438
0.3315	91.24146
0.332	79.96216
0.3325	81.47278
0.333	79.35791
0.3335	72.40906
0.334	54.18091
0.3345	21.55151
0.335	-15.81116
0.3355	-58.91418
0.336	-93.25562
0.3365	-121.35315
0.337	-137.36572
0.3375	-139.88342
0.338	-132.53174
0.3385	-121.65527
0.339	-101.31226
0.3395	-77.24304
0.34	-59.71985
0.3405	-49.34692
0.341	-37.56409
0.3415	-26.78833
0.342	-20.54443
0.3425	-14.80408
0.343	6.64673
0.3435	21.04797
0.344	31.11877
0.3445	35.95276
0.345	33.9386
0.3455	32.22656
0.346	35.85205
0.3465	34.94568
0.347	31.11877
0.3475	28.9032
0.348	29.91028
0.3485	37.26196
0.349	30.41382
0.3495	24.06921
0.35	22.45789
0.3505	21.14868
0.351	19.53735
0.3515	20.04089
0.352	23.56567
0.3525	14.19983
0.353	16.91895
0.3535	13.09204
0.354	13.49487
0.3545	1.3092
0.355	-3.22266
0.3555	-12.78992
0.356	-13.39417
0.3565	-11.48071
0.357	-22.55859
0.3575	-17.01965
0.358	-23.16284
0.3585	-17.52319
0.359	-9.97009
0.3595	-9.97009
0.36	-8.25806
0.3605	-3.42407
0.361	2.71912
0.3615	5.84106
0.362	12.28638
0.3625	17.22107
0.363	14.19983
0.3635	14.30054
0.364	14.09912
0.3645	16.41541
0.365	17.01965
0.3655	14.90479
0.366	18.22815
0.3665	13.29346
0.367	15.00549
0.3675	12.99133
0.368	9.06372
0.3685	9.16443
0.369	6.3446
0.3695	3.62549
0.37	4.93469
0.3705	1.00708
0.371	0.50354
0.3715	-1.00708
0.372	-14.50195
0.3725	-19.63806
0.373	-29.60815
0.3735	-37.16125
0.374	-38.57117
0.3745	-37.66479
0.375	-37.06055
0.3755	-33.9386
0.376	-27.29187
0.3765	-19.83948
0.377	-20.74585
0.3775	-16.11328
0.378	-9.86938
0.3785	3.92761
0.379	6.74744
0.3795	12.08496
0.38	20.64514
0.3805	24.67346
0.381	32.02515
0.3815	38.47046
0.382	43.30444
0.3825	41.4917
0.383	37.66479
0.3835	33.53577
0.384	22.05505
0.3845	14.50195
0.385	16.01257
0.3855	3.92761
0.386	6.3446
0.3865	6.94885
0.387	7.35168
0.3875	8.25806
0.388	13.69629
0.3885	11.48071
0.389	18.93311
0.3895	19.63806
0.39	10.97717
0.3905	12.18567
0.391	15.20691
0.3915	16.21399
0.392	16.11328
0.3925	20.64514
0.393	23.66638
0.3935	15.40833
0.394	8.35876
0.3945	-0.90637
0.395	-5.0354
0.3955	-7.45239
0.396	3.92761
0.3965	3.02124
0.397	-3.62549
0.3975	2.92053
0.398	0.40283
0.3985	8.15735
0.399	9.86938
0.3995	4.43115
0.4	6.54602
0.4005	1.51062
0.401	-0.10071
0.4015	-4.83398
0.402	-9.46655
0.4025	-20.04089
0.403	-35.34851
0.4035	-41.29028
0.404	-38.06763
0.4045	-15.40833
0.405	5.33752
0.4055	2.01416
0.406	-3.22266
0.4065	3.62549
0.407	5.23682
0.4075	-3.8269
0.408	-21.24939
0.4085	-24.97559
0.409	-39.37683
0.4095	-37.66479
0.41	-30.41382
0.4105	-22.86072
0.411	-15.1062
0.4115	-4.83398
0.412	0.50354
0.4125	8.96301
0.413	12.99133
0.4135	19.03381
0.414	31.4209
0.4145	32.12585
0.415	35.54993
0.4155	39.17542
0.416	44.31152
0.4165	41.39099
0.417	44.31152
0.4175	52.97241
0.418	43.90869
0.4185	39.88037
0.419	35.14709
0.4195	29.00391
0.42	30.91736
0.4205	33.03223
0.421	29.60815
0.4215	28.50037
0.422	27.39258
0.4225	29.80957
0.423	24.27063
0.4235	19.63806
0.424	15.30762
0.4245	7.04956
0.425	9.26514
0.4255	4.83398
0.426	12.78992
0.4265	8.7616
0.427	8.7616
0.4275	7.35168
0.428	6.84814
0.4285	5.53894
0.429	8.8623
0.4295	5.94177
0.43	-0.50354
0.4305	5.13611
0.431	5.0354
0.4315	7.15027
0.432	9.66797
0.4325	2.81982
0.433	6.74744
0.4335	5.94177
0.434	7.15027
0.4345	2.41699
0.435	0.30212
0.4355	-3.8269
0.436	0.80566
0.4365	2.41699
0.437	-3.02124
0.4375	-1.10779
0.438	-5.23682
0.4385	-5.63965
0.439	-3.62549
0.4395	-9.16443
0.44	-3.92761
0.4405	8.7616
0.441	13.59558
0.4415	17.12036
0.442	18.93311
0.4425	21.45081
0.443	18.93311
0.4435	18.32886
0.444	14.40125
0.4445	10.67505
0.445	16.81824
0.4455	12.48779
0.446	9.97009
0.4465	5.53894
0.447	-12.48779
0.4475	-20.84656
0.448	-29.60815
0.4485	-22.86072
0.449	3.52478
0.4495	11.38
0.45	21.24939
0.4505	11.48071
0.451	-7.85522
0.4515	-30.61523
0.452	-45.01648
0.4525	-53.07312
0.453	-51.96533
0.4535	-46.92993
0.454	-41.39099
0.4545	-32.7301
0.455	-25.98267
0.4555	-21.95435
0.456	-16.71753
0.4565	-4.53186
0.457	4.12903
0.4575	15.81116
0.458	21.24939
0.4585	25.27771
0.459	27.99683
0.4595	31.11877
0.46	33.23364
0.4605	41.59241
0.461	52.8717
0.4615	46.92993
0.462	43.50586
0.4625	30.41382
0.463	34.44214
0.4635	29.60815
0.464	23.56567
0.4645	9.76868
0.465	8.96301
0.4655	7.75452
0.466	3.12195
0.4665	1.81274
0.467	5.84106
0.4675	0.80566
0.468	1.3092
0.4685	7.04956
0.469	6.3446
0.4695	1.2085
0.47	4.73328
0.4705	9.26514
0.471	15.50903
0.4715	18.12744
0.472	20.94727
0.4725	26.68762
0.473	31.72302
0.4735	30.01099
0.474	23.56567
0.4745	18.22815
0.475	22.86072
0.4755	26.88904
0.476	26.68762
0.4765	23.96851
0.477	16.61682
0.4775	13.29346
0.478	16.21399
0.4785	12.08496
0.479	1.81274
0.4795	7.85522
0.48	2.71912
0.4805	-5.53894
0.481	-6.2439
0.4815	1.51062
0.482	-3.8269
0.4825	2.81982
0.483	14.30054
0.4835	19.63806
0.484	27.09045
0.4845	28.60107
0.485	29.40674
0.4855	24.97559
0.486	20.04089
0.4865	22.45789
0.487	21.85364
0.4875	16.21399
0.488	5.33752
0.4885	1.10779
0.489	-5.43823
0.4895	-4.53186
0.49	-12.48779
0.4905	-12.38708
0.491	-15.71045
0.4915	-21.95435
0.492	-18.63098
0.4925	-18.53027
0.493	-23.76709
0.4935	-25.177
0.494	-26.88904
0.4945	-19.03381
0.495	-17.92603
0.4955	-14.80408
0.496	-12.28638
0.4965	-10.97717
0.497	-4.22974
0.4975	-1.71204
0.498	3.02124
0.4985	4.83398
0.499	4.43115
0.4995	15.91187
0.5	14.19983
0.5005	2.92053
0.501	-6.94885
0.5015	-9.97009
0.502	-9.46655
0.5025	-6.14319
0.503	3.8269
0.5035	3.8269
0.504	3.12195
0.5045	-2.92053
0.505	-10.17151
0.5055	-14.90479
0.506	-20.74585
0.5065	-16.61682
0.507	-7.85522
0.5075	-12.18567
0.508	-9.06372
0.5085	-6.2439
0.509	0.20142
0.5095	2.21558
0.51	10.0708
0.5105	18.73169
0.511	28.39966
0.5115	49.74976
0.512	58.20923
0.5125	59.31702
0.513	63.34534
0.5135	61.6333
0.514	55.59082
0.5145	53.77808
0.515	53.37524
0.5155	48.84338
0.516	49.34692
0.5165	43.80798
0.517	37.86621
0.5175	26.18408
0.518	22.35718
0.5185	18.63098
0.519	3.12195
0.5195	-17.22107
0.52	-16.3147
0.5205	-19.03381
0.521	-19.13452
0.5215	-15.81116
0.522	-3.02124
0.5225	5.84106
0.523	10.47363
0.5235	22.76001
0.524	36.95984
0.5245	45.72144
0.525	47.03064
0.5255	50.95825
0.526	57.8064
0.5265	55.79224
0.527	50.354
0.5275	43.90869
0.528	43.00232
0.5285	37.66479
0.529	38.57117
0.5295	33.53577
0.53	28.80249
0.5305	18.63098
0.531	14.40125
0.5315	7.04956
0.532	-8.66089
0.5325	-15.60974
0.533	-22.76001
0.5335	-24.27063
0.534	-30.2124
0.5345	-18.02673
0.535	-18.63098
0.5355	-12.28638
0.536	-5.74036
0.5365	4.63257
0.537	9.26514
0.5375	14.90479
0.538	14.40125
0.5385	14.50195
0.539	8.05664
0.5395	14.70337
0.54	10.37292
0.5405	-2.5177
0.541	-5.13611
0.5415	-5.74036
0.542	-18.63098
0.5425	-39.67896
0.543	-52.26746
0.5435	-54.78516
0.544	-61.43188
0.5445	-55.08728
0.545	-54.18091
0.5455	-46.82922
0.546	-40.48462
0.5465	-33.23364
0.547	-12.08496
0.5475	10.67505
0.548	26.3855
0.5485	30.71594
0.549	36.4563
0.5495	51.66321
0.55	54.0802
0.5505	52.771
0.551	59.82056
0.5515	56.69861
0.552	71.60339
0.5525	77.24304
0.553	75.32959
0.5535	54.38232
0.554	43.60657
0.5545	34.03931
0.555	39.37683
0.5555	57.50427
0.556	58.10852
0.5565	49.54834
0.557	44.91577
0.5575	45.92285
0.558	47.03064
0.5585	34.34143
0.559	17.12036
0.5595	-4.12903
0.56	-23.06213
0.5605	-37.36267
0.561	-44.31152
0.5615	-42.90161
0.562	-36.25488
0.5625	-34.94568
0.563	-23.96851
0.5635	-8.96301
0.564	-8.56018
0.5645	0
0.565	-4.83398
0.5655	-4.63257
0.566	-11.58142
0.5665	-13.797
0.567	-10.47363
0.5675	-8.45947
0.568	2.01416
0.5685	8.35876
0.569	-2.41699
0.5695	2.81982
0.57	3.12195
0.5705	-5.53894
0.571	-1.3092
0.5715	-1.00708
0.572	-3.52478
0.5725	-3.42407
0.573	2.5177
0.5735	8.56018
0.574	10.77576
0.5745	10.47363
0.575	-4.63257
0.5755	1.40991
0.576	12.89062
0.5765	11.88354
0.577	20.64514
0.5775	17.52319
0.578	29.70886
0.5785	25.88196
0.579	23.26355
0.5795	18.73169
0.58	22.35718
0.5805	21.75293
0.581	16.91895
0.5815	13.99841
0.582	8.56018
0.5825	18.22815
0.583	26.78833
0.5835	35.44922
0.584	42.39807
0.5845	42.7002
0.585	51.46179
0.5855	56.49719
0.586	53.17383
0.5865	41.39099
0.587	38.06763
0.5875	28.80249
0.588	19.13452
0.5885	16.61682
0.589	9.26514
0.5895	9.76868
0.59	-4.43115
0.5905	-5.43823
0.591	-4.02832
0.5915	-14.40125
0.592	-15.60974
0.5925	-14.30054
0.593	-10.17151
0.5935	-10.97717
0.594	-11.38
0.5945	-10.97717
0.595	1.51062
0.5955	6.14319
0.596	18.42957
0.5965	23.76709
0.597	15.30762
0.5975	17.72461
0.598	22.25647
0.5985	24.47205
0.599	21.85364
0.5995	24.06921
0.6	14.80408
0.6005	11.88354
0.601	-7.75452
0.6015	-17.22107
0.602	-22.96143
0.6025	-42.90161
0.603	-58.51135
0.6035	-73.81897
0.604	-59.92126
0.6045	-52.36816
0.605	-39.67896
0.6055	-28.80249
0.606	-17.72461
0.6065	-4.12903
0.607	13.59558
0.6075	19.13452
0.608	17.42249
0.6085	16.81824
0.609	22.15576
0.6095	25.88196
0.61	30.2124
0.6105	40.58533
0.611	34.24072
0.6115	20.24231
0.612	-4.53186
0.6125	-26.48621
0.613	-27.19116
0.6135	-17.92603
0.614	-24.97559
0.6145	-25.98267
0.615	-14.70337
0.6155	-13.49487
0.616	-1.2085
0.6165	9.86938
0.617	18.02673
0.6175	17.82532
0.618	16.81824
0.6185	17.6239
0.619	21.95435
0.6195	21.65222
0.62	24.87488
0.6205	18.32886
0.621	14.70337
0.6215	18.63098
0.622	9.76868
0.6225	0.70496
0.623	3.42407
0.6235	3.8269
0.624	3.42407
0.6245	1.40991
0.625	4.73328
0.6255	4.73328
0.626	20.1416
0.6265	42.90161
0.627	59.21631
0.6275	54.58374
0.628	48.23914
0.6285	39.57825
0.629	19.03381
0.6295	11.68213
0.63	3.92761
0.6305	-9.06372
0.631	-18.42957
0.6315	-18.02673
0.632	-17.92603
0.6325	-21.14868
0.633	-27.29187
0.6335	-31.52161
0.634	-29.00391
0.6345	-25.47913
0.635	-3.92761
0.6355	10.27222
0.636	11.07788
0.6365	8.56018
0.637	6.44531
0.6375	16.3147
0.638	8.25806
0.6385	7.5531
0.639	10.87646
0.6395	18.63098
0.64	25.68054
0.6405	35.75134
0.641	35.75134
0.6415	35.75134
0.642	35.75134
0.6425	35.75134
0.643	35.75134
0.6435	35.75134
0.644	35.75134
0.6445	35.75134
0.645	35.75134
0.6455	35.75134
0.646	35.75134
0.6465	35.75134
0.647	35.75134
0.6475	35.75134
0.648	35.75134
0.6485	35.75134
0.649	35.75134
0.6495	35.75134
0.65	35.75134
0.6505	35.75134
0.651	-47.63489
0.6515	-43.40515
0.652	-45.92285
0.6525	-52.36816
0.653	-45.3186
0.6535	-33.13293
0.654	-25.27771
0.6545	-20.1416
0.655	-17.52319
0.6555	-6.3446
0.656	16.11328
0.6565	26.58691
0.657	27.09045
0.6575	30.31311
0.658	34.54285
0.6585	32.83081
0.659	36.25488
0.6595	38.57117
0.66	34.34143
0.6605	28.29895
0.661	19.53735
0.6615	15.81116
0.662	18.12744
0.6625	16.21399
0.663	9.06372
0.6635	-6.44531
0.664	-11.88354
0.6645	-12.28638
0.665	-18.32886
0.6655	-21.75293
0.666	-19.53735
0.6665	-28.09753
0.667	-35.2478
0.6675	-45.11719
0.668	-43.80798
0.6685	-37.06055
0.669	-18.02673
0.6695	5.94177
0.67	21.24939
0.6705	22.05505
0.671	34.03931
0.6715	32.22656
0.672	32.12585
0.6725	34.54285
0.673	30.91736
0.6735	27.79541
0.674	24.67346
0.6745	19.13452
0.675	13.797
0.6755	8.45947
0.676	10.57434
0.6765	-0.50354
0.677	5.94177
0.6775	-1.10779
0.678	2.11487
0.6785	10.37292
0.679	2.71912
0.6795	0.80566
0.68	-8.25806
0.6805	-12.18567
0.681	-3.92761
0.6815	0.20142
0.682	4.33044
0.6825	13.39417
0.683	21.3501
0.6835	21.75293
0.684	18.8324
0.6845	22.15576
0.685	23.46497
0.6855	34.03931
0.686	42.19666
0.6865	43.10303
0.687	41.99524
0.6875	38.47046
0.688	34.14001
0.6885	28.09753
0.689	24.57275
0.6895	15.60974
0.69	-1.51062
0.6905	-22.6593
0.691	-32.02515
0.6915	-32.32727
0.692	-33.53577
0.6925	-31.92444
0.693	-31.4209
0.6935	-35.44922
0.694	-25.88196
0.6945	-22.45789
0.695	-7.5531
0.6955	-0.10071
0.696	3.12195
0.6965	4.93469
0.697	5.23682
0.6975	2.01416
0.698	-1.51062
0.6985	-5.53894
0.699	1.00708
0.6995	-1.40991
0.7	5.0354
0.7005	4.53186
0.701	6.94885
0.7015	7.45239
0.702	9.66797
0.7025	5.13611
0.703	4.22974
0.7035	3.12195
0.704	1.61133
0.7045	-0.30212
0.705	-0.70496
0.7055	7.75452
0.706	6.14319
0.7065	10.57434
0.707	5.33752
0.7075	2.61841
0.708	-0.80566
0.7085	-3.8269
0.709	3.8269
0.7095	2.21558
0.71	0.80566
0.7105	2.5177
0.711	0
0.7115	0.90637
0.712	2.71912
0.7125	0.50354
0.713	-0.20142
0.7135	-10.87646
0.714	-12.48779
0.7145	-26.88904
0.715	-29.70886
0.7155	-33.13293
0.716	-32.52869
0.7165	-22.6593
0.717	-8.56018
0.7175	5.13611
0.718	10.57434
0.7185	22.86072
0.719	32.62939
0.7195	40.58533
0.72	50.85754
0.7205	58.81348
0.721	52.67029
0.7215	45.41931
0.722	39.07471
0.7225	30.01099
0.723	15.40833
0.7235	8.66089
0.724	2.31628
0.7245	6.94885
0.725	-5.0354
0.7255	-14.19983
0.726	-28.39966
0.7265	-32.52869
0.727	-43.80798
0.7275	-38.974
0.728	-31.82373
0.7285	-29.50745
0.729	-23.46497
0.7295	-23.06213
0.73	-21.95435
0.7305	-20.64514
0.731	-19.63806
0.7315	-18.73169
0.732	-21.3501
0.7325	-25.47913
0.733	-32.42798
0.7335	-41.39099
0.734	-41.29028
0.7345	-35.75134
0.735	-31.21948
0.7355	-22.76001
0.736	-8.05664
0.7365	-5.0354
0.737	-5.63965
0.7375	2.92053
0.738	32.32727
0.7385	41.59241
0.739	48.23914
0.7395	37.56409
0.74	24.37134
0.7405	6.64673
0.741	-6.54602
0.7415	-14.19983
0.742	-12.78992
0.7425	-16.71753
0.743	-5.53894
0.7435	-3.52478
0.744	4.73328
0.7445	13.99841
0.745	11.98425
0.7455	25.37842
0.746	20.04089
0.7465	11.78284
0.747	12.5885
0.7475	5.43823
0.748	-1.61133
0.7485	-5.33752
0.749	-1.51062
0.7495	4.93469
0.75	4.53186
0.7505	4.93469
0.751	2.11487
0.7515	0.70496
0.752	-0.60425
0.7525	2.11487
0.753	6.2439
0.7535	7.65381
0.754	10.17151
0.7545	7.35168
0.755	11.78284
0.7555	10.57434
0.756	2.31628
0.7565	-0.30212
0.757	-4.12903
0.7575	-3.8269
0.758	-1.51062
0.7585	-0.90637
0.759	-0.70496
0.7595	-3.42407
0.76	-1.3092
0.7605	-2.11487
0.761	-6.2439
0.7615	-8.66089
0.762	-13.29346
0.7625	-14.40125
0.763	-13.09204
0.7635	-10.57434
0.764	-3.42407
0.7645	14.09912
0.765	24.37134
0.7655	26.3855
0.766	22.05505
0.7665	19.94019
0.767	19.73877
0.7675	12.28638
0.768	23.56567
0.7685	9.97009
0.769	11.38
0.7695	10.97717
0.77	9.26514
0.7705	8.7616
0.771	0.60425
0.7715	1.91345
0.772	5.74036
0.7725	14.70337
0.773	15.1062
0.7735	24.57275
0.774	21.3501
0.7745	21.3501
0.775	15.40833
0.7755	11.68213
0.776	15.20691
0.7765	13.49487
0.777	15.40833
0.7775	12.48779
0.778	9.16443
0.7785	11.07788
0.779	15.00549
0.7795	16.3147
0.78	16.41541
0.7805	8.56018
0.781	9.66797
0.7815	13.09204
0.782	15.40833
0.7825	8.45947
0.783	15.71045
0.7835	10.97717
0.784	5.33752
0.7845	11.48071
0.785	6.44531
0.7855	-4.83398
0.786	-12.78992
0.7865	-15.40833
0.787	-13.19275
0.7875	-11.68213
0.788	-1.3092
0.7885	-3.92761
0.789	2.61841
0.7895	-0.30212
0.79	4.02832
0.7905	8.7616
0.791	12.5885
0.7915	11.17859
0.792	4.93469
0.7925	-3.7262
0.793	-13.19275
0.7935	-26.08337
0.794	-32.7301
0.7945	-52.8717
0.795	-61.12976
0.7955	-54.88586
0.796	-51.66321
0.7965	-41.39099
0.797	-30.71594
0.7975	-20.94727
0.798	-16.21399
0.7985	-6.44531
0.799	-8.8623
0.7995	-4.43115
0.8	-6.14319
0.8005	-4.33044
0.801	-0.80566
0.8015	-1.00708
0.802	-2.92053
0.8025	-7.95593
0.803	-15.00549
0.8035	-10.17151
0.804	-8.15735
0.8045	0.80566
0.805	4.33044
0.8055	14.80408
0.806	16.41541
0.8065	23.26355
0.807	25.78125
0.8075	22.55859
0.808	23.16284
0.8085	16.41541
0.809	14.80408
0.8095	18.42957
0.81	24.97559
0.8105	20.94727
0.811	21.24939
0.8115	17.72461
0.812	23.56567
0.8125	25.37842
0.813	25.68054
0.8135	34.64355
0.814	36.95984
0.8145	31.92444
0.815	27.39258
0.8155	20.74585
0.816	22.05505
0.8165	15.60974
0.817	5.33752
0.8175	3.62549
0.818	-7.85522
0.8185	-13.49487
0.819	-21.95435
0.8195	-20.1416
0.82	-20.44373
0.8205	-12.28638
0.821	-9.56726
0.8215	-7.65381
0.822	-1.91345
0.8225	1.40991
0.823	2.81982
0.8235	6.14319
0.824	13.29346
0.8245	16.01257
0.825	11.78284
0.8255	11.88354
0.826	8.25806
0.8265	6.94885
0.827	6.74744
0.8275	-1.00708
0.828	-3.32336
0.8285	-4.12903
0.829	-2.11487
0.8295	2.21558
0.83	-1.71204
0.8305	-5.94177
0.831	-6.44531
0.8315	-10.77576
0.832	-14.09912
0.8325	-10.57434
0.833	-16.81824
0.8335	-16.11328
0.834	-13.49487
0.8345	-13.49487
0.835	-11.88354
0.8355	-8.45947
0.836	-0.50354
0.8365	0.30212
0.837	-3.42407
0.8375	1.10779
0.838	6.44531
0.8385	7.65381
0.839	1.91345
0.8395	0
0.84	-11.68213
0.8405	-10.17151
0.841	-10.17151
0.8415	-3.02124
0.842	-1.81274
0.8425	-7.65381
0.843	-3.02124
0.8435	-2.11487
0.844	-6.2439
0.8445	-5.74036
0.845	0.10071
0.8455	4.22974
0.846	11.78284
0.8465	16.41541
0.847	23.56567
0.8475	24.47205
0.848	27.39258
0.8485	25.177
0.849	30.71594
0.8495	28.09753
0.85	27.89612
0.8505	12.18567
0.851	6.64673
0.8515	3.8269
0.852	4.33044
0.8525	4.53186
0.853	-1.10779
0.8535	-2.31628
0.854	-5.53894
0.8545	-1.10779
0.855	2.61841
0.8555	-3.92761
0.856	-4.43115
0.8565	1.91345
0.857	-8.45947
0.8575	0.10071
0.858	-0.40283
0.8585	-1.2085
0.859	-2.5177
0.8595	-0.90637
0.86	-1.51062
0.8605	-4.22974
0.861	-6.04248
0.8615	-0.60425
0.862	-2.21558
0.8625	4.83398
0.863	6.54602
0.8635	5.84106
0.864	6.94885
0.8645	8.7616
0.865	9.06372
0.8655	11.38
0.866	14.19983
0.8665	13.99841
0.867	8.45947
0.8675	7.5531
0.868	10.27222
0.8685	20.64514
0.869	13.69629
0.8695	13.797
0.87	14.70337
0.8705	8.05664
0.871	13.69629
0.8715	9.36584
0.872	12.48779
0.8725	11.58142
0.873	11.48071
0.8735	11.98425
0.874	11.58142
0.8745	17.6239
0.875	12.5885
0.8755	6.54602
0.876	4.43115
0.8765	9.26514
0.877	16.01257
0.8775	15.50903
0.878	23.8678
0.8785	26.68762
0.879	26.28479
0.8795	29.80957
0.88	31.62231
0.8805	27.6947
0.881	23.56567
0.8815	22.55859
0.882	26.08337
0.8825	30.11169
0.883	22.76001
0.8835	15.20691
0.884	2.81982
0.8845	-3.7262
0.885	-16.41541
0.8855	-32.93152
0.886	-42.49878
0.8865	-48.03772
0.887	-47.03064
0.8875	-46.42639
0.888	-41.08887
0.8885	-34.44214
0.889	-33.03223
0.8895	-26.78833
0.89	-24.77417
0.8905	-24.97559
0.891	-13.09204
0.8915	-16.91895
0.892	-13.99841
0.8925	-7.65381
0.893	-8.8623
0.8935	0.60425
0.894	-0.50354
0.8945	3.52478
0.895	8.56018
0.8955	7.85522
0.896	5.53894
0.8965	5.33752
0.897	6.2439
0.8975	4.02832
0.898	4.22974
0.8985	3.8269
0.899	-2.5177
0.8995	-4.22974
0.9	-8.35876
0.9005	1.2085
0.901	-0.80566
0.9015	2.92053
0.902	2.01416
0.9025	1.10779
0.903	0.50354
0.9035	7.45239
0.904	1.3092
0.9045	9.76868
0.905	-0.30212
0.9055	-4.93469
0.906	5.0354
0.9065	8.15735
0.907	13.59558
0.9075	12.99133
0.908	18.8324
0.9085	23.26355
0.909	22.45789
0.9095	20.94727
0.91	24.47205
0.9105	25.07629
0.911	16.01257
0.9115	12.38708
0.912	9.06372
0.9125	0.10071
0.913	-5.84106
0.9135	-5.53894
0.914	-3.32336
0.9145	-8.66089
0.915	-7.45239
0.9155	-4.33044
0.916	-3.7262
0.9165	-5.33752
0.917	-4.02832
0.9175	2.61841
0.918	3.02124
0.9185	2.92053
0.919	3.02124
0.9195	-2.41699
0.92	0.90637
0.9205	-1.61133
0.921	-2.71912
0.9215	4.63257
0.922	-4.73328
0.9225	-2.41699
0.923	-6.14319
0.9235	-4.63257
0.924	-2.92053
0.9245	-6.04248
0.925	0.30212
0.9255	-5.33752
0.926	-8.56018
0.9265	-5.23682
0.927	-1.51062
0.9275	4.43115
0.928	6.04248
0.9285	4.63257
0.929	8.25806
0.9295	12.28638
0.93	17.01965
0.9305	16.11328
0.931	17.22107
0.9315	16.3147
0.932	15.91187
0.9325	10.27222
0.933	0.60425
0.9335	5.53894
0.934	1.2085
0.9345	-3.7262
0.935	-8.56018
0.9355	-6.04248
0.936	-7.5531
0.9365	-5.23682
0.937	-0.20142
0.9375	-6.94885
0.938	-6.94885
0.9385	-1.3092
0.939	-2.92053
0.9395	-2.71912
0.94	1.91345
0.9405	7.25098
0.941	3.02124
0.9415	2.81982
0.942	2.21558
0.9425	3.42407
0.943	16.11328
0.9435	18.22815
0.944	14.50195
0.9445	17.42249
0.945	13.39417
0.9455	8.45947
0.946	-0.10071
0.9465	-8.25806
0.947	-3.52478
0.9475	0.80566
0.948	-1.61133
0.9485	8.25806
0.949	7.75452
0.9495	8.96301
0.95	10.67505
0.9505	6.14319
0.951	8.05664
0.9515	-0.20142
0.952	-1.2085
0.9525	-4.43115
0.953	-8.8623
0.9535	-7.35168
0.954	-8.15735
0.9545	-3.8269
0.955	-10.47363
0.9555	-11.38
0.956	-16.91895
0.9565	-15.91187
0.957	-5.13611
0.9575	1.40991
0.958	1.71204
0.9585	11.38
0.959	14.60266
0.9595	17.72461
0.96	16.51611
0.9605	14.19983
0.961	13.59558
0.9615	17.6239
0.962	17.6239
0.9625	18.53027
0.963	18.8324
0.9635	22.55859
0.964	20.34302
0.9645	26.48621
0.965	24.37134
0.9655	19.63806
0.966	12.78992
0.9665	15.71045
0.967	5.53894
0.9675	3.42407
0.968	1.40991
0.9685	-0.40283
0.969	-7.35168
0.9695	-9.06372
0.97	-5.13611
0.9705	-6.14319
0.971	-3.7262
0.9715	1.71204
0.972	-2.31628
0.9725	7.04956
0.973	3.92761
0.9735	4.02832
0.974	6.64673
0.9745	6.04248
0.975	6.44531
0.9755	6.2439
0.976	13.49487
0.9765	8.8623
0.977	11.2793
0.9775	18.8324
0.978	25.37842
0.9785	28.70178
0.979	26.68762
0.9795	33.83789
0.98	38.77258
0.9805	32.93152
0.981	27.89612
0.9815	21.04797
0.982	5.74036
0.9825	-6.44531
0.983	-21.75293
0.9835	-36.15417
0.984	-39.88037
0.9845	-49.44763
0.985	-52.36816
0.9855	-50.65613
0.986	-49.14551
0.9865	-41.18958
0.987	-40.98816
0.9875	-36.55701
0.988	-27.99683
0.9885	-22.55859
0.989	-11.88354
0.9895	-12.68921
0.99	-2.11487
0.9905	0
0.991	2.61841
0.9915	7.85522
0.992	7.95593
0.9925	5.13611
0.993	19.33594
0.9935	28.39966
0.994	32.32727
0.9945	31.21948
0.995	24.87488
0.9955	22.05505
0.996	16.41541
0.9965	11.88354
0.997	7.15027
0.9975	9.26514
0.998	12.89062
0.9985	16.81824
0.999	22.6593
0.9995	32.42798
1	36.55701
1.0005	23.56567
1.001	17.12036
1.0015	22.35718
1.002	30.51453
1.0025	32.62939
1.003	24.47205
1.0035	25.47913
1.004	15.1062
1.0045	16.71753
1.005	15.00549
1.0055	2.71912
1.006	-0.20142
1.0065	3.92761
1.007	-8.7616
1.0075	-8.35876
1.008	-10.87646
1.0085	-10.77576
1.009	-13.59558
1.0095	-5.0354
1.01	-2.11487
1.0105	7.25098
1.011	14.30054
1.0115	13.49487
1.012	21.85364
1.0125	14.80408
1.013	17.72461
1.0135	24.16992
1.014	19.43665
1.0145	13.89771
1.015	10.0708
1.0155	11.98425
1.016	19.03381
1.0165	30.71594
1.017	35.04639
1.0175	29.10461
1.018	29.40674
1.0185	31.11877
1.019	27.59399
1.0195	19.53735
1.02	10.37292
1.0205	2.21558
1.021	5.43823
1.0215	-2.81982
1.022	-6.2439
1.0225	-6.14319
1.023	0.10071
1.0235	3.42407
1.024	9.36584
1.0245	12.5885
1.025	17.82532
1.0255	20.24231
1.026	21.24939
1.0265	22.05505
1.027	22.25647
1.0275	25.27771
1.028	24.47205
1.0285	26.18408
1.029	23.36426
1.0295	25.47913
1.03	28.60107
1.0305	28.39966
1.031	19.73877
1.0315	17.72461
1.032	22.05505
1.0325	24.97559
1.033	28.39966
1.0335	24.47205
1.034	10.97717
1.0345	3.62549
1.035	-6.3446
1.0355	-7.5531
1.036	-6.74744
1.0365	-11.07788
1.037	-13.09204
1.0375	-3.92761
1.038	-0.10071
1.0385	0.50354
1.039	3.32336
1.0395	-0.40283
1.04	3.32336
1.0405	-3.02124
1.041	2.41699
1.0415	7.85522
1.042	2.81982
1.0425	7.45239
1.043	13.49487
1.0435	13.49487
1.044	12.68921
1.0445	16.81824
1.045	17.22107
1.0455	19.03381
1.046	24.47205
1.0465	25.37842
1.047	21.75293
1.0475	30.41382
1.048	28.80249
1.0485	25.98267
1.049	28.19824
1.0495	28.39966
1.05	23.8678
1.0505	17.42249
1.051	15.40833
1.0515	12.48779
1.052	9.26514
1.0525	12.5885
1.053	15.60974
1.0535	16.71753
1.054	16.71753
1.0545	14.09912
1.055	9.56726
1.0555	2.01416
1.056	-0.70496
1.0565	-2.92053
1.057	-3.7262
1.0575	-5.74036
1.058	-4.33044
1.0585	-1.00708
1.059	-5.0354
1.0595	-4.02832
1.06	-0.30212
1.0605	0.10071
1.061	5.53894
1.0615	10.37292
1.062	9.36584
1.0625	4.33044
1.063	2.5177
1.0635	6.84814
1.064	10.47363
1.0645	10.27222
1.065	14.70337
1.0655	12.38708
1.066	15.30762
1.0665	10.67505
1.067	8.7616
1.0675	8.96301
1.068	11.98425
1.0685	10.87646
1.069	14.40125
1.0695	13.59558
1.07	12.99133
1.0705	12.68921
1.071	11.48071
1.0715	5.94177
1.072	0
1.0725	2.5177
1.073	2.5177
1.0735	10.67505
1.074	9.56726
1.0745	10.97717
1.075	2.71912
1.0755	-10.77576
1.076	-11.38
1.0765	-19.13452
1.077	-19.94019
1.0775	-23.8678
1.078	-30.71594
1.0785	-35.44922
1.079	-34.64355
1.0795	-32.22656
1.08	-31.32019
1.0805	-23.26355
1.081	-14.19983
1.0815	-10.27222
1.082	1.3092
1.0825	5.23682
1.083	7.65381
1.0835	9.36584
1.084	8.15735
1.0845	21.45081
1.085	31.82373
1.0855	26.3855
1.086	25.47913
1.0865	29.70886
1.087	30.91736
1.0875	26.3855
1.088	26.78833
1.0885	25.68054
1.089	23.96851
1.0895	23.76709
1.09	22.86072
1.0905	21.65222
1.091	18.53027
1.0915	24.47205
1.092	27.09045
1.0925	30.41382
1.093	36.55701
1.0935	31.11877
1.094	23.8678
1.0945	23.16284
1.095	10.97717
1.0955	3.52478
1.096	8.56018
1.0965	11.68213
1.097	20.1416
1.0975	30.01099
1.098	38.36975
1.0985	34.64355
1.099	30.41382
1.0995	29.91028
1.1	27.19116
1.1005	17.72461
1.101	6.74744
1.1015	-0.10071
1.102	-8.56018
1.1025	-9.16443
1.103	-4.43115
1.1035	-2.81982
1.104	-2.11487
1.1045	3.02124
1.105	8.56018
1.1055	12.48779
1.106	14.40125
1.1065	25.07629
1.107	24.47205
1.1075	20.74585
1.108	18.22815
1.1085	10.97717
1.109	8.15735
1.1095	0.20142
1.11	-2.5177
1.1105	4.43115
1.111	3.32336
1.1115	7.75452
1.112	3.7262
1.1125	2.92053
1.113	4.02832
1.1135	0.80566
1.114	8.45947
1.1145	8.15735
1.115	11.48071
1.1155	14.30054
1.116	20.74585
1.1165	17.42249
1.117	13.89771
1.1175	17.01965
1.118	19.03381
1.1185	6.94885
1.119	-5.13611
1.1195	-4.63257
1.12	-8.7616
1.1205	-8.56018
1.121	-8.7616
1.1215	-15.81116
1.122	-15.81116
1.1225	-13.59558
1.123	-21.24939
1.1235	-17.52319
1.124	-19.53735
1.1245	-12.5885
1.125	-9.66797
1.1255	-3.62549
1.126	-0.40283
1.1265	1.40991
1.127	5.84106
1.1275	11.88354
1.128	16.61682
1.1285	16.01257
1.129	14.60266
1.1295	17.52319
1.13	29.50745
1.1305	34.24072
1.131	35.85205
1.1315	24.87488
1.132	20.44373
1.1325	22.05505
1.133	15.81116
1.1335	17.01965
1.134	16.01257
1.1345	9.36584
1.135	12.08496
1.1355	10.37292
1.136	12.38708
1.1365	8.15735
1.137	-5.0354
1.1375	-15.71045
1.138	-23.66638
1.1385	-27.19116
1.139	-31.52161
1.1395	-30.2124
1.14	-27.99683
1.1405	-19.63806
1.141	-14.60266
1.1415	-11.48071
1.142	2.41699
1.1425	-2.41699
1.143	-0.60425
1.1435	8.56018
1.144	11.78284
1.1445	9.66797
1.145	12.68921
1.1455	10.47363
1.146	14.09912
1.1465	13.19275
1.147	12.38708
1.1475	14.70337
1.148	21.04797
1.1485	20.04089
1.149	15.60974
1.1495	17.52319
1.15	8.45947
1.1505	-8.7616
1.151	-9.97009
1.1515	-10.17151
1.152	-12.38708
1.1525	-12.08496
1.153	-3.8269
1.1535	-1.91345
1.154	2.92053
1.1545	-1.00708
1.155	-0.40283
1.1555	-7.85522
1.156	-7.45239
1.1565	-10.27222
1.157	-4.22974
1.1575	-13.19275
1.158	-4.63257
1.1585	-3.42407
1.159	-6.54602
1.1595	-3.62549
1.16	-5.74036
1.1605	-0.70496
1.161	-4.93469
1.1615	-6.14319
1.162	-4.02832
1.1625	-6.2439
1.163	-2.92053
1.1635	0.80566
1.164	-2.11487
1.1645	-2.41699
1.165	-2.5177
1.1655	-2.61841
1.166	-0.10071
1.1665	11.78284
1.167	16.71753
1.1675	12.38708
1.168	14.60266
1.1685	14.70337
1.169	15.30762
1.1695	4.33044
1.17	7.25098
1.1705	8.05664
1.171	12.48779
1.1715	10.17151
1.172	2.41699
1.1725	-3.32336
1.173	-4.22974
1.1735	-8.05664
1.174	-7.75452
1.1745	-2.41699
1.175	0.30212
1.1755	1.10779
1.176	8.35876
1.1765	3.7262
1.177	1.10779
1.1775	-0.50354
1.178	7.35168
1.1785	5.53894
1.179	7.95593
1.1795	7.5531
1.18	9.56726
1.1805	0
1.181	10.0708
1.1815	12.48779
1.182	4.33044
1.1825	6.04248
1.183	0.60425
1.1835	8.45947
1.184	6.64673
1.1845	9.66797
1.185	4.63257
1.1855	6.3446
1.186	-4.83398
1.1865	-17.01965
1.187	-18.93311
1.1875	-20.1416
1.188	-17.01965
1.1885	-15.50903
1.189	-17.22107
1.1895	-16.01257
1.19	-15.30762
1.1905	-17.82532
1.191	-18.02673
1.1915	-20.54443
1.192	-14.80408
1.1925	-12.38708
1.193	-8.8623
1.1935	-4.63257
1.194	-2.61841
1.1945	1.2085
1.195	-6.3446
1.1955	-6.3446
1.196	-8.66089
1.1965	-11.48071
1.197	-4.53186
1.1975	-6.84814
1.198	3.52478
1.1985	-1.61133
1.199	2.21558
1.1995	-3.92761
1.2	-0.40283
1.2005	5.0354
1.201	12.68921
1.2015	20.44373
1.202	14.60266
1.2025	15.30762
1.203	18.53027
1.2035	23.06213
1.204	22.25647
1.2045	19.43665
1.205	21.75293
1.2055	20.24231
1.206	21.24939
1.2065	24.97559
1.207	23.06213
1.2075	28.19824
1.208	22.86072
1.2085	22.05505
1.209	15.1062
1.2095	14.30054
1.21	9.36584
1.2105	13.29346
1.211	10.57434
1.2115	11.2793
1.212	9.46655
1.2125	2.21558
1.213	6.54602
1.2135	9.76868
1.214	2.21558
1.2145	0.90637
1.215	2.41699
1.2155	2.31628
1.216	4.73328
1.2165	5.23682
1.217	-0.90637
1.2175	-3.52478
1.218	-1.91345
1.2185	1.81274
1.219	2.71912
1.2195	0.20142
1.22	0
1.2205	0.70496
1.221	-3.62549
1.2215	3.32336
1.222	5.23682
1.2225	-3.52478
1.223	0.30212
1.2235	-12.48779
1.224	-16.51611
1.2245	-18.53027
1.225	-16.11328
1.2255	-15.00549
1.226	-9.56726
1.2265	-16.21399
1.227	-18.22815
1.2275	-14.40125
1.228	-22.25647
1.2285	-8.25806
1.229	-13.39417
1.2295	-12.38708
1.23	-3.92761
1.2305	-5.0354
1.231	2.61841
1.2315	9.06372
1.232	13.09204
1.2325	22.25647
1.233	22.76001
1.2335	30.91736
1.234	24.47205
1.2345	13.09204
1.235	13.797
1.2355	9.16443
1.236	0.50354
1.2365	-9.76868
1.237	-22.05505
1.2375	-29.60815
1.238	-25.78125
1.2385	-19.63806
1.239	-18.53027
1.2395	-18.02673
1.24	-18.32886
1.2405	-17.6239
1.241	-12.28638
1.2415	-9.26514
1.242	-2.71912
1.2425	-1.61133
1.243	-8.7616
1.2435	-8.05664
1.244	-1.81274
1.2445	1.71204
1.245	0.40283
1.2455	5.63965
1.246	5.33752
1.2465	4.53186
1.247	9.76868
1.2475	1.00708
1.248	-6.84814
1.2485	-8.15735
1.249	-13.69629
1.2495	-11.68213
1.25	-18.42957
1.2505	-5.84106
1.251	-3.8269
1.2515	-1.81274
1.252	12.38708
1.2525	18.53027
1.253	28.50037
1.2535	39.37683
1.254	37.46338
1.2545	43.00232
1.255	51.96533
1.2555	50.2533
1.256	51.86462
1.2565	59.01489
1.257	55.99365
1.2575	56.5979
1.258	61.43188
1.2585	61.02905
1.259	45.3186
1.2595	34.94568
1.26	31.62231
1.2605	33.43506
1.261	28.60107
1.2615	24.16992
1.262	22.45789
1.2625	20.64514
1.263	22.55859
1.2635	17.32178
1.264	6.3446
1.2645	5.0354
1.265	3.92761
1.2655	-1.2085
1.266	-4.02832
1.2665	-1.40991
1.267	-4.43115
1.2675	1.00708
1.268	0.10071
1.2685	5.23682
1.269	3.02124
1.2695	1.71204
1.27	-1.00708
1.2705	-4.43115
1.271	-8.25806
1.2715	-5.53894
1.272	-5.53894
1.2725	-12.38708
1.273	-15.50903
1.2735	-16.81824
1.274	-13.69629
1.2745	-5.0354
1.275	-7.25098
1.2755	-5.53894
1.276	-3.52478
1.2765	1.3092
1.277	2.71912
1.2775	10.87646
1.278	17.92603
1.2785	30.41382
1.279	47.43347
1.2795	51.96533
1.28	62.33826
1.2805	58.91418
1.281	54.58374
1.2815	48.74268
1.282	31.82373
1.2825	25.07629
1.283	17.22107
1.2835	16.01257
1.284	11.2793
1.2845	3.92761
1.285	-3.22266
1.2855	-9.06372
1.286	-11.98425
1.2865	-13.99841
1.287	-20.94727
1.2875	-22.05505
1.288	-18.22815
1.2885	-13.49487
1.289	-9.26514
1.2895	-5.23682
1.29	-9.16443
1.2905	-2.81982
1.291	-6.14319
1.2915	-5.23682
1.292	-4.43115
1.2925	2.11487
1.293	2.31628
1.2935	1.91345
1.294	9.36584
1.2945	3.02124
1.295	8.66089
1.2955	9.36584
1.296	-0.60425
1.2965	2.81982
1.297	-1.91345
1.2975	-0.30212
1.298	-0.60425
1.2985	-0.30212
1.299	0.80566
1.2995	1.10779
1.3	-0.20142
1.3005	2.5177
1.301	-5.23682
1.3015	-3.02124
1.302	-2.71912
1.3025	-4.73328
1.303	-12.68921
1.3035	-19.43665
1.304	-14.60266
1.3045	-13.19275
1.305	-13.39417
1.3055	-14.40125
1.306	-8.15735
1.3065	-1.51062
1.307	-0.10071
1.3075	-2.5177
1.308	5.53894
1.3085	6.94885
1.309	4.73328
1.3095	6.14319
1.31	15.50903
1.3105	13.89771
1.311	16.21399
1.3115	10.97717
1.312	20.1416
1.3125	20.04089
1.313	20.44373
1.3135	14.40125
1.314	13.19275
1.3145	9.76868
1.315	4.63257
1.3155	2.41699
1.316	1.61133
1.3165	0.80566
1.317	-1.81274
1.3175	1.40991
1.318	1.71204
1.3185	5.0354
1.319	7.35168
1.3195	8.96301
1.32	14.19983
1.3205	15.60974
1.321	10.67505
1.3215	11.88354
1.322	10.87646
1.3225	6.04248
1.323	10.0708
1.3235	8.8623
1.324	1.51062
1.3245	-1.61133
1.325	-8.8623
1.3255	-19.73877
1.326	-30.2124
1.3265	-32.62939
1.327	-32.83081
1.3275	-40.88745
1.328	-30.81665
1.3285	-31.01807
1.329	-30.81665
1.3295	-24.16992
1.33	-21.75293
1.3305	-16.21399
1.331	-15.50903
1.3315	-13.09204
1.332	-13.89771
1.3325	-24.27063
1.333	-30.11169
1.3335	-31.11877
1.334	-25.98267
1.3345	-17.22107
1.335	-5.33752
1.3355	0.30212
1.336	14.90479
1.3365	25.88196
1.337	19.03381
1.3375	15.20691
1.338	7.45239
1.3385	8.05664
1.339	11.78284
1.3395	11.68213
1.34	5.13611
1.3405	4.63257
1.341	9.66797
1.3415	5.94177
1.342	1.71204
1.3425	2.81982
1.343	-2.81982
1.3435	-6.14319
1.344	-4.02832
1.3445	-2.21558
1.345	-3.32336
1.3455	3.52478
1.346	9.66797
1.3465	15.1062
1.347	15.91187
1.3475	25.88196
1.348	19.83948
1.3485	21.75293
1.349	26.3855
1.3495	21.45081
1.35	25.27771
1.3505	29.20532
1.351	26.18408
1.3515	28.60107
1.352	24.77417
1.3525	31.4209
1.353	22.15576
1.3535	14.30054
1.354	9.66797
1.3545	8.15735
1.355	11.48071
1.3555	10.97717
1.356	10.37292
1.3565	13.49487
1.357	14.30054
1.3575	18.12744
1.358	22.96143
1.3585	15.60974
1.359	14.09912
1.3595	17.82532
1.36	14.60266
1.3605	18.22815
1.361	21.45081
1.3615	16.81824
1.362	19.13452
1.3625	29.91028
1.363	32.12585
1.3635	36.4563
1.364	34.03931
1.3645	31.32019
1.365	33.43506
1.3655	24.37134
1.366	25.37842
1.3665	26.48621
1.367	22.25647
1.3675	19.63806
1.368	22.05505
1.3685	17.01965
1.369	5.43823
1.3695	-0.20142
1.37	-7.45239
1.3705	-16.51611
1.371	-22.86072
1.3715	-22.45789
1.372	-25.57983
1.3725	-15.30762
1.373	-11.07788
1.3735	-10.0708
1.374	-7.25098
1.3745	-6.64673
1.375	-4.33044
1.3755	-10.57434
1.376	-12.18567
1.3765	-13.09204
1.377	-9.26514
1.3775	-8.45947
1.378	-7.45239
1.3785	-6.74744
1.379	-3.52478
1.3795	-1.91345
1.38	-1.3092
1.3805	-3.22266
1.381	-4.43115
1.3815	-0.90637
1.382	-4.12903
1.3825	-2.21558
1.383	2.11487
1.3835	2.41699
1.384	1.00708
1.3845	1.3092
1.385	5.84106
1.3855	3.7262
1.386	3.52478
1.3865	0.30212
1.387	-6.3446
1.3875	-15.71045
1.388	-19.23523
1.3885	-11.68213
1.389	-16.41541
1.3895	-12.89062
1.39	-16.01257
1.3905	-11.88354
1.391	-5.13611
1.3915	-1.71204
1.392	-2.41699
1.3925	-4.02832
1.393	5.13611
1.3935	8.35876
1.394	6.04248
1.3945	7.65381
1.395	12.28638
1.3955	19.03381
1.396	21.04797
1.3965	19.53735
1.397	21.55151
1.3975	20.54443
1.398	18.93311
1.3985	16.81824
1.399	12.78992
1.3995	9.36584
1.4	9.36584
1.4005	12.08496
1.401	10.17151
1.4015	3.7262
1.402	-0.90637
1.4025	-3.92761
1.403	2.92053
1.4035	9.16443
1.404	13.89771
1.4045	12.89062
1.405	9.46655
1.4055	18.32886
1.406	16.41541
1.4065	12.68921
1.407	9.46655
1.4075	12.99133
1.408	6.54602
1.4085	2.41699
1.409	1.91345
1.4095	3.22266
1.41	2.01416
1.4105	3.42407
1.411	6.44531
1.4115	3.8269
1.412	3.62549
1.4125	5.94177
1.413	10.27222
1.4135	7.04956
1.414	2.92053
1.4145	-1.10779
1.415	2.31628
1.4155	-0.90637
1.416	1.00708
1.4165	3.7262
1.417	1.10779
1.4175	1.91345
1.418	-1.00708
1.4185	2.21558
1.419	5.23682
1.4195	7.15027
1.42	7.25098
1.4205	7.95593
1.421	0.80566
1.4215	8.15735
1.422	9.06372
1.4225	10.37292
1.423	10.27222
1.4235	8.25806
1.424	10.97717
1.4245	6.14319
1.425	11.78284
1.4255	6.84814
1.426	-8.05664
1.4265	-20.54443
1.427	-36.35559
1.4275	-46.22498
1.428	-49.0448
1.4285	-50.95825
1.429	-47.03064
1.4295	-39.07471
1.43	-30.01099
1.4305	-21.85364
1.431	-13.29346
1.4315	-5.63965
1.432	0.50354
1.4325	12.48779
1.433	11.17859
1.4335	14.09912
1.434	14.09912
1.4345	9.76868
1.435	14.80408
1.4355	-1.10779
1.436	-7.04956
1.4365	-9.26514
1.437	-10.17151
1.4375	-1.71204
1.438	-3.42407
1.4385	1.00708
1.439	-2.71912
1.4395	-5.43823
1.44	-3.42407
1.4405	-7.65381
1.441	-3.8269
1.4415	5.0354
1.442	20.94727
1.4425	21.85364
1.443	19.43665
1.4435	30.2124
1.444	34.64355
1.4445	45.3186
1.445	45.52002
1.4455	40.1825
1.446	35.75134
1.4465	38.974
1.447	43.80798
1.4475	45.82214
1.448	51.96533
1.4485	45.82214
1.449	45.01648
1.4495	43.90869
1.45	39.67896
1.4505	40.68604
1.451	39.27612
1.4515	29.40674
1.452	21.14868
1.4525	19.33594
1.453	11.38
1.4535	11.17859
1.454	9.06372
1.4545	4.73328
1.455	7.5531
1.4555	4.33044
1.456	6.14319
1.4565	8.45947
1.457	8.7616
1.4575	12.48779
1.458	9.76868
1.4585	5.74036
1.459	5.74036
1.4595	11.88354
1.46	11.98425
1.4605	7.04956
1.461	13.09204
1.4615	17.52319
1.462	18.8324
1.4625	22.15576
1.463	17.72461
1.4635	17.22107
1.464	13.69629
1.4645	8.05664
1.465	15.00549
1.4655	12.08496
1.466	7.65381
1.4665	9.76868
1.467	13.797
1.4675	11.48071
1.468	6.74744
1.4685	5.43823
1.469	8.8623
1.4695	4.22974
1.47	11.07788
1.4705	3.62549
1.471	3.92761
1.4715	6.94885
1.472	2.61841
1.4725	6.04248
1.473	4.93469
1.4735	5.63965
1.474	5.13611
1.4745	4.22974
1.475	0.20142
1.4755	2.61841
1.476	-1.91345
1.4765	-4.53186
1.477	-14.30054
1.4775	-29.91028
1.478	-45.82214
1.4785	-50.65613
1.479	-55.18799
1.4795	-67.77649
1.48	-75.02747
1.4805	-75.32959
1.481	-67.07153
1.4815	-60.72693
1.482	-52.16675
1.4825	-44.61365
1.483	-37.36267
1.4835	-47.93701
1.484	-47.93701
1.4845	-45.52002
1.485	-40.38391
1.4855	-18.93311
1.486	-4.53186
1.4865	11.88354
1.487	25.68054
1.4875	48.64197
1.488	65.66162
1.4885	79.76074
1.489	84.19189
1.4895	85.19897
1.49	87.01172
1.4905	80.06287
1.491	78.35083
1.4915	71.20056
1.492	57.9071
1.4925	49.14551
1.493	35.14709
1.4935	33.33435
1.494	30.31311
1.4945	25.37842
1.495	21.45081
1.4955	23.66638
1.496	15.60974
1.4965	17.12036
1.497	7.04956
1.4975	1.91345
1.498	-2.01416
1.4985	-6.94885
1.499	-11.38
1.4995	-15.1062
1.5	-19.03381
1.5005	-38.57117
1.501	-49.44763
1.5015	-49.85046
1.502	-46.5271
1.5025	-31.62231
1.503	-30.2124
1.5035	-25.88196
1.504	-20.1416
1.5045	-7.35168
1.505	1.61133
1.5055	2.81982
1.506	1.2085
1.5065	1.81274
1.507	3.02124
1.5075	-14.50195
1.508	-21.95435
1.5085	-20.94727
1.509	-11.38
1.5095	-19.33594
1.51	-16.01257
1.5105	-2.81982
1.511	4.12903
1.5115	12.5885
1.512	22.45789
1.5125	32.7301
1.513	37.26196
1.5135	36.85913
1.514	42.8009
1.5145	56.49719
1.515	64.35242
1.5155	74.2218
1.516	87.81738
1.5165	86.00464
1.517	84.99756
1.5175	83.78906
1.518	71.7041
1.5185	61.12976
1.519	57.50427
1.5195	55.3894
1.52	43.80798
1.5205	35.44922
1.521	34.44214
1.5215	28.80249
1.522	27.49329
1.5225	27.59399
1.523	23.26355
1.5235	23.76709
1.524	19.63806
1.5245	21.24939
1.525	18.53027
1.5255	19.03381
1.526	12.18567
1.5265	19.23523
1.527	19.23523
1.5275	19.53735
1.528	13.69629
1.5285	13.09204
1.529	6.94885
1.5295	6.44531
1.53	8.15735
1.5305	11.38
1.531	6.3446
1.5315	12.78992
1.532	7.95593
1.5325	5.94177
1.533	7.5531
1.5335	1.40991
1.534	6.2439
1.5345	-0.20142
1.535	4.83398
1.5355	7.5531
1.536	11.58142
1.5365	5.53894
1.537	-0.10071
1.5375	-1.81274
1.538	-1.3092
1.5385	2.21558
1.539	2.41699
1.5395	4.33044
1.54	-0.80566
1.5405	-2.41699
1.541	0.20142
1.5415	3.42407
1.542	2.41699
1.5425	0.30212
1.543	-0.30212
1.5435	0.20142
1.544	-3.12195
1.5445	-4.53186
1.545	-2.11487
1.5455	-1.00708
1.546	-6.2439
1.5465	-2.61841
1.547	-4.02832
1.5475	3.32336
1.548	-2.11487
1.5485	-2.5177
1.549	-1.61133
1.5495	1.71204
1.55	1.61133
1.5505	-3.12195
1.551	1.10779
1.5515	-2.31628
1.552	-1.51062
1.5525	1.81274
1.553	1.40991
1.5535	1.81274
1.554	1.61133
1.5545	-1.91345
1.555	3.52478
1.5555	3.52478
1.556	0.20142
1.5565	5.43823
1.557	-5.84106
1.5575	-3.02124
1.558	-4.33044
1.5585	0.60425
1.559	1.40991
1.5595	1.2085
1.56	0.30212
1.5605	-6.2439
1.561	-8.15735
1.5615	-7.75452
1.562	-5.84106
1.5625	-6.3446
1.563	-11.48071
1.5635	-10.17151
1.564	-14.09912
1.5645	-23.76709
1.565	-43.40515
1.5655	-48.13843
1.566	-56.79932
1.5665	-62.13684
1.567	-54.28162
1.5675	-53.57666
1.568	-52.06604
1.5685	-43.80798
1.569	-40.78674
1.5695	-40.68604
1.57	-20.74585
1.5705	-19.13452
1.571	-14.90479
1.5715	-12.38708
1.572	-4.02832
1.5725	-1.61133
1.573	3.7262
1.5735	8.35876
1.574	16.3147
1.5745	27.39258
1.575	30.41382
1.5755	28.80249
1.576	23.06213
1.5765	14.40125
1.577	13.99841
1.5775	12.78992
1.578	7.85522
1.5785	10.47363
1.579	9.56726
1.5795	17.42249
1.58	12.18567
1.5805	7.25098
1.581	-9.56726
1.5815	-27.59399
1.582	-36.95984
1.5825	-38.57117
1.583	-44.11011
1.5835	-34.84497
1.584	-31.92444
1.5845	-38.26904
1.585	-39.98108
1.5855	-43.90869
1.586	-35.14709
1.5865	-34.14001
1.587	-22.86072
1.5875	-11.98425
1.588	-11.38
1.5885	-1.51062
1.589	8.8623
1.5895	17.22107
1.59	19.33594
1.5905	34.24072
1.591	42.90161
1.5915	46.42639
1.592	46.5271
1.5925	45.52002
1.593	47.03064
1.5935	40.58533
1.594	31.72302
1.5945	33.63647
1.595	41.39099
1.5955	45.2179
1.596	49.0448
1.5965	54.48303
1.597	45.11719
1.5975	33.23364
1.598	23.36426
1.5985	15.81116
1.599	-2.01416
1.5995	-4.12903
1.6	-15.30762
1.6005	-21.55151
1.601	-22.6593
1.6015	-23.76709
1.602	-27.09045
1.6025	-28.39966
1.603	-19.53735
1.6035	-17.52319
1.604	-12.68921
1.6045	1.51062
1.605	11.68213
1.6055	11.17859
1.606	26.28479
1.6065	33.43506
1.607	35.75134
1.6075	37.66479
1.608	25.37842
1.6085	24.47205
1.609	23.46497
1.6095	9.97009
1.61	-0.90637
1.6105	-19.53735
1.611	-50.95825
1.6115	-64.05029
1.612	-69.99207
1.6125	-64.45312
1.613	-52.36816
1.6135	-36.05347
1.614	-23.06213
1.6145	-5.43823
1.615	8.15735
1.6155	24.47205
1.616	35.44922
1.6165	37.46338
1.617	48.44055
1.6175	51.96533
1.618	59.92126
1.6185	62.23755
1.619	53.07312
1.6195	29.10461
1.62	-18.93311
1.6205	-53.97949
1.621	-82.17773
1.6215	-103.125
1.622	-120.95032
1.6225	-129.30908
1.623	-117.62695
1.6235	-119.13757
1.624	-103.125
1.6245	-78.95508
1.625	-59.51843
1.6255	-34.94568
1.626	-3.32336
1.6265	14.60266
1.627	31.72302
1.6275	47.53418
1.628	55.99365
1.6285	41.79382
1.629	35.54993
1.6295	3.12195
1.63	-17.12036
1.6305	-31.82373
1.631	-17.52319
1.6315	2.71912
1.632	5.74036
1.6325	-2.01416
1.633	-10.37292
1.6335	-16.41541
1.634	-3.22266
1.6345	6.74744
1.635	26.58691
1.6355	29.80957
1.636	37.06055
1.6365	39.17542
1.637	45.41931
1.6375	44.71436
1.638	60.82764
1.6385	70.79773
1.639	78.35083
1.6395	80.76782
1.64	86.40747
1.6405	94.06128
1.641	94.56482
1.6415	88.0188
1.642	86.20605
1.6425	70.99915
1.643	67.77649
1.6435	54.88586
1.644	44.81506
1.6445	38.06763
1.645	30.2124
1.6455	27.29187
1.646	14.19983
1.6465	15.30762
1.647	10.57434
1.6475	10.57434
1.648	5.53894
1.6485	11.07788
1.649	6.04248
1.6495	12.99133
1.65	3.8269
1.6505	11.68213
1.651	11.38
1.6515	2.41699
1.652	2.31628
1.6525	-1.2085
1.653	0.30212
1.6535	-3.02124
1.654	-8.05664
1.6545	-9.46655
1.655	-11.07788
1.6555	-8.15735
1.656	-4.83398
1.6565	-7.65381
1.657	-10.37292
1.6575	-21.3501
1.658	-19.03381
1.6585	-16.91895
1.659	-20.44373
1.6595	-25.68054
1.66	-18.73169
1.6605	-21.24939
1.661	-20.44373
1.6615	-22.86072
1.662	-21.45081
1.6625	-22.35718
1.663	-26.3855
1.6635	-31.21948
1.664	-51.15967
1.6645	-66.26587
1.665	-71.30127
1.6655	-71.50269
1.666	-70.89844
1.6665	-73.01331
1.667	-66.76941
1.6675	-59.71985
1.668	-59.92126
1.6685	-52.06604
1.669	-50.45471
1.6695	-54.88586
1.67	-63.94958
1.6705	-61.93542
1.671	-59.41772
1.6715	-44.31152
1.672	-33.13293
1.6725	-23.06213
1.673	-13.49487
1.6735	1.3092
1.674	-1.81274
1.6745	6.64673
1.675	9.46655
1.6755	7.85522
1.676	11.98425
1.6765	18.22815
1.677	15.20691
1.6775	20.64514
1.678	21.24939
1.6785	30.41382
1.679	34.54285
1.6795	38.67188
1.68	36.55701
1.6805	27.09045
1.681	23.16284
1.6815	16.71753
1.682	6.64673
1.6825	-8.05664
1.683	-12.28638
1.6835	-11.38
1.684	-12.5885
1.6845	-10.37292
1.685	-5.63965
1.6855	-0.30212
1.686	-0.30212
1.6865	1.81274
1.687	1.2085
1.6875	0.20142
1.688	0.80566
1.6885	2.21558
1.689	2.11487
1.6895	-5.33752
1.69	-3.32336
1.6905	-2.5177
1.691	-6.84814
1.6915	-3.92761
1.692	-11.68213
1.6925	-9.76868
1.693	-8.05664
1.6935	-7.25098
1.694	-11.98425
1.6945	-18.8324
1.695	-45.41931
1.6955	-70.69702
1.696	-79.15649
1.6965	-83.48694
1.697	-80.56641
1.6975	-69.58923
1.698	-63.24463
1.6985	-53.57666
1.699	-50.85754
1.6995	-34.74426
1.7	-22.15576
1.7005	-13.797
1.701	-35.44922
1.7015	-75.63171
1.702	-115.81421
1.7025	-135.55298
1.703	-141.09192
1.7035	-129.10767
1.704	-105.74341
1.7045	-80.96924
1.705	-59.51843
1.7055	-59.1156
1.706	-47.13135
1.7065	-35.14709
1.707	-16.71753
1.7075	1.3092
1.708	16.41541
1.7085	33.23364
1.709	36.85913
1.7095	42.19666
1.71	44.0094
1.7105	51.15967
1.711	53.27454
1.7115	64.25171
1.712	71.40198
1.7125	155.9967
1.713	226.59302
1.7135	245.42542
1.714	240.69214
1.7145	224.57886
1.715	199.50256
1.7155	159.62219
1.716	118.53333
1.7165	82.78198
1.717	44.0094
1.7175	0.50354
1.718	-37.26196
1.7185	-62.33826
1.719	-73.11401
1.7195	-62.64038
1.72	-52.26746
1.7205	-32.02515
1.721	-17.42249
1.7215	-4.63257
1.722	14.50195
1.7225	27.99683
1.723	31.52161
1.7235	34.03931
1.724	33.63647
1.7245	32.12585
1.725	27.19116
1.7255	17.72461
1.726	5.84106
1.7265	8.56018
1.727	5.84106
1.7275	6.2439
1.728	1.91345
1.7285	9.56726
1.729	0.30212
1.7295	1.71204
1.73	1.40991
1.7305	-2.31628
1.731	-7.04956
1.7315	-8.25806
1.732	-8.56018
1.7325	-5.84106
1.733	-5.53894
1.7335	1.71204
1.734	3.52478
1.7345	4.12903
1.735	8.45947
1.7355	7.15027
1.736	10.0708
1.7365	7.75452
1.737	11.68213
1.7375	4.83398
1.738	10.87646
1.7385	7.95593
1.739	5.0354
1.7395	4.02832
1.74	5.43823
1.7405	7.04956
1.741	9.36584
1.7415	7.45239
1.742	2.11487
1.7425	-1.40991
1.743	-1.61133
1.7435	-0.90637
1.744	-11.2793
1.7445	-9.36584
1.745	-16.11328
1.7455	-14.30054
1.746	-10.97717
1.7465	-7.85522
1.747	-4.73328
1.7475	-1.91345
1.748	1.10779
1.7485	5.74036
1.749	6.84814
1.7495	7.45239
1.75	16.61682
1.7505	17.22107
1.751	20.64514
1.7515	16.71753
1.752	16.61682
1.7525	20.24231
1.753	24.06921
1.7535	26.28479
1.754	28.39966
1.7545	25.88196
1.755	25.177
1.7555	28.60107
1.756	26.08337
1.7565	22.15576
1.757	23.8678
1.7575	16.3147
1.758	19.03381
1.7585	14.09912
1.759	16.61682
1.7595	19.23523
1.76	17.42249
1.7605	13.797
1.761	11.38
1.7615	12.99133
1.762	13.99841
1.7625	19.53735
1.763	18.12744
1.7635	17.12036
1.764	15.30762
1.7645	13.19275
1.765	22.15576
1.7655	20.44373
1.766	17.12036
1.7665	15.71045
1.767	18.63098
1.7675	10.97717
1.768	14.90479
1.7685	17.01965
1.769	10.77576
1.7695	9.56726
1.77	10.27222
1.7705	13.49487
1.771	14.30054
1.7715	10.37292
1.772	8.56018
1.7725	14.70337
1.773	17.32178
1.7735	14.90479
1.774	14.50195
1.7745	16.71753
1.775	16.51611
1.7755	15.81116
1.776	14.90479
1.7765	18.73169
1.777	17.42249
1.7775	13.29346
1.778	15.91187
1.7785	15.71045
1.779	15.91187
1.7795	19.63806
1.78	18.32886
1.7805	12.38708
1.781	10.0708
1.7815	15.20691
1.782	11.68213
1.7825	13.09204
1.783	20.64514
1.7835	18.22815
1.784	17.01965
1.7845	13.89771
1.785	14.70337
1.7855	18.53027
1.786	10.77576
1.7865	9.06372
1.787	10.87646
1.7875	17.32178
1.788	15.00549
1.7885	22.96143
1.789	14.50195
1.7895	18.42957
1.79	19.73877
1.7905	14.80408
1.791	22.35718
1.7915	21.14868
1.792	22.55859
1.7925	20.04089
1.793	19.73877
1.7935	19.03381
1.794	18.02673
1.7945	18.8324
1.795	16.51611
1.7955	18.02673
1.796	12.99133
1.7965	15.91187
1.797	12.68921
1.7975	17.92603
1.798	18.63098
1.7985	21.3501
1.799	22.05505
1.7995	20.84656
1.8	16.81824
1.8005	17.92603
1.801	10.0708
1.8015	15.71045
1.802	18.02673
1.8025	11.68213
1.803	12.08496
1.8035	13.39417
1.804	9.97009
1.8045	15.81116
1.805	10.77576
1.8055	0.20142
1.806	-8.56018
1.8065	-13.09204
1.807	-17.52319
1.8075	-7.95593
1.808	-11.48071
1.8085	-11.78284
1.809	-9.36584
1.8095	1.81274
1.81	4.63257
1.8105	9.56726
1.811	14.90479
1.8115	20.84656
1.812	26.08337
1.8125	33.23364
1.813	18.22815
1.8135	15.91187
1.814	10.97717
1.8145	12.38708
1.815	15.30762
1.8155	17.22107
1.816	14.70337
1.8165	18.8324
1.817	25.27771
1.8175	31.82373
1.818	33.53577
1.8185	29.80957
1.819	29.40674
1.8195	33.03223
1.82	39.88037
1.8205	39.27612
1.821	37.46338
1.8215	38.974
1.822	34.94568
1.8225	35.95276
1.823	32.22656
1.8235	30.2124
1.824	27.09045
1.8245	27.6947
1.825	27.29187
1.8255	26.08337
1.826	24.77417
1.8265	27.59399
1.827	23.96851
1.8275	23.36426
1.828	17.52319
1.8285	18.12744
1.829	20.1416
1.8295	19.83948
1.83	20.34302
1.8305	17.6239
1.831	13.39417
1.8315	7.35168
1.832	13.09204
1.8325	10.0708
1.833	15.30762
1.8335	12.5885
1.834	9.97009
1.8345	6.74744
1.835	3.22266
1.8355	-1.2085
1.836	4.93469
1.8365	6.14319
1.837	3.7262
1.8375	4.12903
1.838	2.5177
1.8385	7.65381
1.839	9.56726
1.8395	13.49487
1.84	10.17151
1.8405	6.64673
1.841	11.17859
1.8415	9.36584
1.842	7.95593
1.8425	12.08496
1.843	10.67505
1.8435	11.07788
1.844	6.44531
1.8445	5.74036
1.845	5.43823
1.8455	0.90637
1.846	0
1.8465	-0.90637
1.847	6.44531
1.8475	5.94177
1.848	4.02832
1.8485	4.22974
1.849	3.8269
1.8495	2.21558
1.85	4.53186
1.8505	7.95593
1.851	4.53186
1.8515	4.33044
1.852	4.02832
1.8525	2.31628
1.853	2.61841
1.8535	3.22266
1.854	10.87646
1.8545	9.16443
1.855	8.66089
1.8555	6.94885
1.856	10.37292
1.8565	4.53186
1.857	1.3092
1.8575	4.33044
1.858	4.63257
1.8585	3.42407
1.859	7.15027
1.8595	4.22974
1.86	8.7616
1.8605	4.22974
1.861	0.80566
1.8615	4.53186
1.862	5.13611
1.8625	1.91345
1.863	-0.80566
1.8635	-4.63257
1.864	0.50354
1.8645	-1.51062
1.865	-2.81982
1.8655	9.36584
1.866	4.73328
1.8665	8.45947
1.867	16.91895
1.8675	11.2793
1.868	10.47363
1.8685	4.93469
1.869	13.09204
1.8695	6.64673
1.87	4.83398
1.8705	0.30212
1.871	1.10779
1.8715	2.5177
1.872	5.33752
1.8725	4.53186
1.873	7.35168
1.8735	5.63965
1.874	6.14319
1.8745	5.43823
1.875	8.56018
1.8755	5.84106
1.876	-0.60425
1.8765	1.71204
1.877	9.86938
1.8775	1.2085
1.878	5.0354
1.8785	7.35168
1.879	2.81982
1.8795	1.91345
1.88	0.40283
1.8805	2.92053
1.881	5.63965
1.8815	7.65381
1.882	6.64673
1.8825	5.0354
1.883	6.2439
1.8835	8.8623
1.884	4.43115
1.8845	7.04956
1.885	7.75452
1.8855	10.27222
1.886	12.08496
1.8865	8.25806
1.887	6.44531
1.8875	7.5531
1.888	11.07788
1.8885	12.68921
1.889	6.3446
1.8895	7.35168
1.89	12.89062
1.8905	10.17151
1.891	12.68921
1.8915	11.07788
1.892	9.76868
1.8925	9.36584
1.893	11.68213
1.8935	11.2793
1.894	8.35876
1.8945	8.25806
1.895	7.85522
1.8955	11.17859
1.896	8.7616
1.8965	4.22974
1.897	2.81982
1.8975	12.78992
1.898	9.76868
1.8985	9.56726
1.899	7.75452
1.8995	12.5885
1.9	13.09204
1.9005	14.19983
1.901	13.99841
1.9015	15.20691
1.902	14.50195
1.9025	14.60266
1.903	13.89771
1.9035	6.3446
1.904	11.88354
1.9045	11.07788
1.905	12.68921
1.9055	9.16443
1.906	9.16443
1.9065	9.56726
1.907	8.35876
1.9075	2.41699
1.908	-6.74744
1.9085	-18.63098
1.909	-32.83081
1.9095	-51.26038
1.91	-49.74976
1.9105	-48.84338
1.911	-42.39807
1.9115	-41.4917
1.912	-42.49878
1.9125	-38.16833
1.913	-31.11877
1.9135	-25.27771
1.914	-15.00549
1.9145	-1.51062
1.915	7.15027
1.9155	17.72461
1.916	19.94019
1.9165	26.48621
1.917	34.84497
1.9175	36.65771
1.918	42.29736
1.9185	44.41223
1.919	43.20374
1.9195	47.93701
1.92	52.36816
1.9205	46.72852
1.921	49.34692
1.9215	54.18091
1.922	49.24622
1.9225	40.2832
1.923	39.47754
1.9235	37.36267
1.924	31.4209
1.9245	26.58691
1.925	28.50037
1.9255	23.06213
1.926	22.25647
1.9265	16.01257
1.927	15.30762
1.9275	16.21399
1.928	16.3147
1.9285	14.70337
1.929	17.52319
1.9295	16.01257
1.93	11.78284
1.9305	17.42249
1.931	18.22815
1.9315	13.69629
1.932	14.09912
1.9325	14.80408
1.933	14.30054
1.9335	16.11328
1.934	14.09912
1.9345	12.99133
1.935	12.89062
1.9355	9.86938
1.936	10.0708
1.9365	6.54602
1.937	7.45239
1.9375	5.94177
1.938	4.02832
1.9385	6.74744
1.939	3.62549
1.9395	1.61133
1.94	5.0354
1.9405	6.14319
1.941	6.04248
1.9415	7.75452
1.942	7.35168
1.9425	6.04248
1.943	7.5531
1.9435	13.89771
1.944	19.63806
1.9445	21.24939
1.945	18.12744
1.9455	15.1062
1.946	15.00549
1.9465	14.19983
1.947	11.98425
1.9475	15.81116
1.948	9.97009
1.9485	6.64673
1.949	8.7616
1.9495	12.18567
1.95	6.2439
1.9505	6.54602
1.951	6.74744
1.9515	9.56726
1.952	2.01416
1.9525	9.56726
1.953	12.48779
1.9535	8.45947
1.954	3.62549
1.9545	4.02832
1.955	6.04248
1.9555	8.35876
1.956	6.94885
1.9565	3.7262
1.957	6.04248
1.9575	7.5531
1.958	8.05664
1.9585	7.35168
1.959	8.05664
1.9595	8.45947
1.96	4.63257
1.9605	8.05664
1.961	5.84106
1.9615	6.74744
1.962	8.15735
1.9625	7.5531
1.963	6.14319
1.9635	4.12903
1.964	3.62549
1.9645	9.06372
1.965	7.45239
1.9655	10.37292
1.966	8.45947
1.9665	2.41699
1.967	4.12903
1.9675	4.02832
1.968	11.48071
1.9685	5.43823
1.969	5.94177
1.9695	8.96301
1.97	-2.41699
1.9705	2.01416
1.971	6.04248
1.9715	9.26514
1.972	7.65381
1.9725	3.02124
1.973	3.62549
1.9735	7.85522
1.974	-1.61133
1.9745	7.65381
1.975	5.84106
1.9755	6.94885
1.976	2.71912
1.9765	5.74036
1.977	2.81982
1.9775	6.3446
1.978	-0.10071
1.9785	5.84106
1.979	7.75452
1.9795	7.45239
1.98	12.68921
1.9805	16.01257
1.981	14.09912
1.9815	12.89062
1.982	15.20691
1.9825	11.98425
1.983	9.16443
1.9835	13.29346
1.984	7.45239
1.9845	8.15735
1.985	12.89062
1.9855	13.59558
1.986	13.89771
1.9865	1.40991
1.987	-9.16443
1.9875	-9.76868
1.988	-16.3147
1.9885	-15.50903
1.989	-15.20691
1.9895	-11.68213
1.99	-5.13611
1.9905	4.83398
1.991	3.22266
1.9915	4.73328
1.992	10.97717
1.9925	6.54602
1.993	9.56726
1.9935	13.29346
1.994	9.76868
1.9945	14.30054
1.995	13.89771
1.9955	16.71753
1.996	18.32886
1.9965	20.1416
1.997	14.40125
1.9975	11.2793
1.998	15.81116
1.9985	12.89062
1.999	14.09912
1.9995	10.27222
2	11.07788
2.0005	9.46655
2.001	7.65381
2.0015	3.7262
2.002	3.7262
2.0025	5.33752
2.003	13.89771
2.0035	7.25098
2.004	3.92761
2.0045	7.35168
2.005	6.04248
2.0055	11.88354
2.006	7.15027
2.0065	6.2439
2.007	7.95593
2.0075	5.33752
2.008	4.22974
2.0085	4.43115
2.009	9.26514
2.0095	4.63257
2.01	3.62549
2.0105	1.81274
2.011	3.92761
2.0115	2.31628
2.012	5.0354
2.0125	2.61841
2.013	1.81274
2.0135	-15.30762
2.014	-34.03931
2.0145	-55.3894
2.015	-67.37366
2.0155	-66.36658
2.016	-65.56091
2.0165	-57.8064
2.017	-50.45471
2.0175	-42.09595
2.018	-38.06763
2.0185	-23.46497
2.019	-4.93469
2.0195	1.91345
2.02	10.57434
2.0205	17.32178
2.021	28.09753
2.0215	35.95276
2.022	37.96692
2.0225	44.81506
2.023	54.38232
2.0235	53.17383
2.024	54.98657
2.0245	57.30286
2.025	63.04321
2.0255	71.09985
2.026	62.8418
2.0265	61.23047
2.027	57.40356
2.0275	45.72144
2.028	38.974
2.0285	31.82373
2.029	30.91736
2.0295	30.71594
2.03	30.2124
2.0305	28.9032
2.031	24.67346
2.0315	15.40833
2.032	20.04089
2.0325	10.77576
2.033	5.94177
2.0335	2.31628
2.034	5.23682
2.0345	-2.92053
2.035	-4.53186
2.0355	-8.56018
2.036	-6.84814
2.0365	-3.12195
2.037	-9.66797
2.0375	-23.06213
2.038	-35.44922
2.0385	-22.86072
2.039	-21.65222
2.0395	-1.91345
2.04	1.61133
2.0405	9.36584
2.041	18.12744
2.0415	38.87329
2.042	69.38782
2.0425	85.09827
2.043	102.01721
2.0435	102.31934
2.044	101.01013
2.0445	89.22729
2.045	74.32251
2.0455	63.24463
2.046	44.11011
2.0465	23.76709
2.047	8.45947
2.0475	-10.17151
2.048	-24.67346
2.0485	-32.93152
2.049	-39.98108
2.0495	-38.57117
2.05	-43.50586
2.0505	-38.47046
2.051	-38.974
2.0515	-43.80798
2.052	-42.09595
2.0525	-33.83789
2.053	-24.47205
2.0535	-19.13452
2.054	-14.40125
2.0545	-6.2439
2.055	6.64673
2.0555	13.49487
2.056	15.20691
2.0565	13.99841
2.057	12.28638
2.0575	9.36584
2.058	9.97009
2.0585	5.84106
2.059	8.15735
2.0595	4.33044
2.06	9.76868
2.0605	13.89771
2.061	12.38708
2.0615	17.6239
2.062	12.38708
2.0625	13.99841
2.063	14.60266
2.0635	13.49487
2.064	13.89771
2.0645	12.08496
2.065	14.09912
2.0655	4.83398
2.066	4.12903
2.0665	5.84106
2.067	5.94177
2.0675	10.17151
2.068	2.41699
2.0685	2.81982
2.069	3.8269
2.0695	8.45947
2.07	6.74744
2.0705	3.8269
2.071	7.65381
2.0715	8.66089
2.072	-0.90637
2.0725	-2.81982
2.073	-2.61841
2.0735	-8.15735
2.074	-4.93469
2.0745	-2.5177
2.075	-3.12195
2.0755	0
2.076	-2.71912
2.0765	-3.8269
2.077	-1.40991
2.0775	3.52478
2.078	5.74036
2.0785	3.12195
2.079	2.21558
2.0795	-3.32336
2.08	1.40991
2.0805	0.50354
2.081	-9.97009
2.0815	-10.27222
2.082	-20.74585
2.0825	-31.21948
2.083	-38.67188
2.0835	-61.33118
2.084	-75.12817
2.0845	-75.4303
2.085	-77.44446
2.0855	-71.40198
2.086	-60.12268
2.0865	-55.08728
2.087	-38.47046
2.0875	-28.9032
2.088	-15.71045
2.0885	-5.43823
2.089	12.48779
2.0895	23.8678
2.09	33.33435
2.0905	38.06763
2.091	46.42639
2.0915	56.19507
2.092	61.6333
2.0925	70.89844
2.093	80.56641
2.0935	90.33508
2.094	88.0188
2.0945	78.04871
2.095	86.00464
2.0955	81.06995
2.096	76.94092
2.0965	66.06445
2.097	55.3894
2.0975	46.92993
2.098	38.67188
2.0985	26.08337
2.099	20.04089
2.0995	15.91187
2.1	8.96301
2.1005	9.26514
2.101	2.71912
2.1015	-2.11487
2.102	-2.11487
2.1025	-3.52478
2.103	0.80566
2.1035	2.41699
2.104	2.41699
2.1045	7.15027
2.105	7.45239
2.1055	8.96301
2.106	4.53186
2.1065	5.33752
2.107	2.5177
2.1075	-9.36584
2.108	-10.67505
2.1085	-27.49329
2.109	-42.39807
2.1095	-53.97949
2.11	-47.93701
2.1105	-45.62073
2.111	-39.47754
2.1115	-29.00391
2.112	-28.80249
2.1125	-18.63098
2.113	-7.5531
2.1135	4.43115
2.114	10.0708
2.1145	12.08496
2.115	20.44373
2.1155	16.91895
2.116	17.01965
2.1165	23.26355
2.117	30.31311
2.1175	46.02356
2.118	75.32959
2.1185	98.59314
2.119	101.9165
2.1195	113.39722
2.12	116.922
2.1205	117.72766
2.121	102.11792
2.1215	84.09119
2.122	61.43188
2.1225	36.55701
2.123	15.81116
2.1235	-0.10071
2.124	-18.53027
2.1245	-24.77417
2.125	-41.89453
2.1255	-49.54834
2.126	-55.89294
2.1265	-48.33984
2.127	-53.07312
2.1275	-52.97241
2.128	-42.90161
2.1285	-37.66479
2.129	-30.11169
2.1295	-25.07629
2.13	-21.55151
2.1305	-20.64514
2.131	-26.08337
2.1315	-15.71045
2.132	-21.45081
2.1325	-14.90479
2.133	-14.70337
2.1335	-15.1062
2.134	-14.70337
2.1345	-6.54602
2.135	-4.53186
2.1355	-3.42407
2.136	-4.43115
2.1365	-4.73328
2.137	-3.62549
2.1375	-1.51062
2.138	2.31628
2.1385	6.84814
2.139	6.3446
2.1395	12.99133
2.14	8.35876
2.1405	9.66797
2.141	12.48779
2.1415	9.86938
2.142	15.30762
2.1425	19.33594
2.143	22.55859
2.1435	17.52319
2.144	26.68762
2.1445	23.36426
2.145	21.3501
2.1455	25.68054
2.146	27.39258
2.1465	37.86621
2.147	55.49011
2.1475	63.94958
2.148	54.28162
2.1485	40.68604
2.149	20.24231
2.1495	10.87646
2.15	-2.92053
2.1505	-10.67505
2.151	-0.30212
2.1515	7.65381
2.152	3.02124
2.1525	-8.66089
2.153	-24.97559
2.1535	-27.89612
2.154	-22.25647
2.1545	-6.44531
2.155	-0.50354
2.1555	0.40283
2.156	-4.02832
2.1565	-15.71045
2.157	-37.56409
2.1575	-53.47595
2.158	-52.8717
2.1585	-57.40356
2.159	-56.90002
2.1595	-55.59082
2.16	-64.85596
2.1605	-63.14392
2.161	-57.10144
2.1615	-48.33984
2.162	-43.20374
2.1625	-36.4563
2.163	-34.34143
2.1635	-30.11169
2.164	-26.28479
2.1645	-15.00549
2.165	-2.21558
2.1655	7.15027
2.166	18.53027
2.1665	23.66638
2.167	23.96851
2.1675	25.98267
2.168	26.68762
2.1685	23.56567
2.169	28.60107
2.1695	28.70178
2.17	22.35718
2.1705	25.78125
2.171	26.18408
2.1715	25.37842
2.172	25.37842
2.1725	27.59399
2.173	19.13452
2.1735	11.17859
2.174	8.45947
2.1745	2.92053
2.175	0.60425
2.1755	-2.21558
2.176	-3.42407
2.1765	-8.45947
2.177	0.10071
2.1775	-2.11487
2.178	20.1416
2.1785	33.43506
2.179	45.92285
2.1795	54.88586
2.18	80.86853
2.1805	116.51917
2.181	145.01953
2.1815	155.39246
2.182	146.63086
2.1825	125.18005
2.183	104.93774
2.1835	78.75366
2.184	46.72852
2.1845	16.41541
2.185	-10.37292
2.1855	-22.05505
2.186	-49.74976
2.1865	-63.04321
2.187	-65.76233
2.1875	-67.17224
2.188	-66.87012
2.1885	-54.18091
2.189	-49.14551
2.1895	-39.17542
2.19	-26.98975
2.1905	-19.83948
2.191	-16.81824
2.1915	-12.99133
2.192	-9.06372
2.1925	-10.97717
2.193	-5.53894
2.1935	-5.84106
2.194	-7.15027
2.1945	-6.2439
2.195	-3.42407
2.1955	-3.7262
2.196	-2.81982
2.1965	13.39417
2.197	51.96533
2.1975	67.67578
2.198	71.20056
2.1985	70.79773
2.199	68.88428
2.1995	63.94958
2.2	38.16833
2.2005	9.97009
2.201	-7.04956
2.2015	-23.96851
2.202	-38.77258
2.2025	-50.2533
2.203	-55.99365
2.2035	-70.79773
2.204	-72.81189
2.2045	-74.82605
2.205	-74.32251
2.2055	-60.62622
2.206	-52.56958
2.2065	-44.91577
2.207	-42.29736
2.2075	-38.77258
2.208	-30.31311
2.2085	-17.12036
2.209	-11.17859
2.2095	-3.42407
2.21	3.12195
2.2105	3.32336
2.211	0.70496
2.2115	-1.3092
2.212	-1.51062
2.2125	-0.50354
2.213	-4.02832
2.2135	-1.3092
2.214	9.76868
2.2145	32.32727
2.215	53.47595
2.2155	57.10144
2.216	57.20215
2.2165	51.05896
2.217	42.8009
2.2175	31.4209
2.218	21.14868
2.2185	12.5885
2.219	4.02832
2.2195	-4.33044
2.22	-6.14319
2.2205	-6.04248
2.221	-8.15735
2.2215	-11.88354
2.222	-7.25098
2.2225	-0.80566
2.223	0.30212
2.2235	0.40283
2.224	7.45239
2.2245	7.5531
2.225	-10.0708
2.2255	-24.67346
2.226	-35.85205
2.2265	-44.0094
2.227	-43.20374
2.2275	-41.79382
2.228	-39.88037
2.2285	-33.23364
2.229	-28.60107
2.2295	-20.74585
2.23	-3.42407
2.2305	2.01416
2.231	10.97717
2.2315	12.89062
2.232	11.68213
2.2325	9.36584
2.233	9.06372
2.2335	9.66797
2.234	14.09912
2.2345	24.67346
2.235	28.39966
2.2355	43.00232
2.236	59.21631
2.2365	83.08411
2.237	139.48059
2.2375	201.51672
2.238	220.14771
2.2385	206.65283
2.239	169.29016
2.2395	131.62537
2.24	90.33508
2.2405	50.05188
2.241	12.68921
2.2415	-19.33594
2.242	-53.07312
2.2425	-74.12109
2.243	-94.2627
2.2435	-97.78748
2.244	-80.96924
2.2445	-58.71277
2.245	-42.8009
2.2455	-29.20532
2.246	-14.70337
2.2465	-5.0354
2.247	8.56018
2.2475	9.26514
2.248	11.07788
2.2485	-0.70496
2.249	8.96301
2.2495	10.27222
2.25	15.60974
2.2505	19.83948
2.251	40.08179
2.2515	57.20215
2.252	64.55383
2.2525	57.50427
2.253	66.6687
2.2535	83.48694
2.254	84.49402
2.2545	75.32959
2.255	56.09436
2.2555	26.18408
2.256	11.58142
2.2565	-10.17151
2.257	-36.55701
2.2575	-55.79224
2.258	-76.43738
2.2585	-92.65137
2.259	-99.3988
2.2595	-103.52783
2.26	-96.67969
2.2605	-92.85278
2.261	-74.82605
2.2615	-51.96533
2.262	-27.59399
2.2625	-10.0708
2.263	29.40674
2.2635	54.58374
2.264	58.51135
2.2645	62.43896
2.265	51.5625
2.2655	35.54993
2.266	18.53027
2.2665	-0.20142
2.267	-18.8324
2.2675	-25.07629
2.268	-37.86621
2.2685	-46.02356
2.269	-51.96533
2.2695	-56.90002
2.27	-53.47595
2.2705	-40.38391
2.271	-21.45081
2.2715	-5.0354
2.272	7.5531
2.2725	13.19275
2.273	15.91187
2.2735	11.98425
2.274	9.97009
2.2745	-5.33752
2.275	-3.92761
2.2755	-3.52478
2.276	5.53894
2.2765	23.56567
2.277	24.16992
2.2775	15.81116
2.278	6.2439
2.2785	0.60425
2.279	-10.27222
2.2795	-19.43665
2.28	-20.04089
2.2805	-2.21558
2.281	13.797
2.2815	16.71753
2.282	14.70337
2.2825	9.76868
2.283	-0.30212
2.2835	-10.97717
2.284	-13.19275
2.2845	-18.8324
2.285	-22.55859
2.2855	-33.03223
2.286	-32.02515
2.2865	-32.22656
2.287	-28.29895
2.2875	-24.16992
2.288	-17.32178
2.2885	3.52478
2.289	15.91187
2.2895	10.97717
2.29	2.21558
2.2905	2.41699
2.291	13.49487
2.2915	20.64514
2.292	23.16284
2.2925	25.57983
2.293	21.95435
2.2935	24.87488
2.294	21.65222
2.2945	34.94568
2.295	60.92834
2.2955	82.78198
2.296	105.74341
2.2965	104.83704
2.297	112.08801
2.2975	119.94324
2.298	122.46094
2.2985	144.51599
2.299	148.4436
2.2995	140.08484
2.3	116.72058
2.3005	93.15491
2.301	61.73401
2.3015	51.15967
2.302	29.20532
2.3025	6.04248
2.303	-29.50745
2.3035	-61.12976
2.304	-87.41455
2.3045	-94.76624
2.305	-75.63171
2.3055	-62.9425
2.306	-63.54675
2.3065	-73.31543
2.307	-73.91968
2.3075	-73.11401
2.308	-61.02905
2.3085	-56.69861
2.309	-48.64197
2.3095	-36.25488
2.31	-28.39966
2.3105	-16.51611
2.311	5.43823
2.3115	15.20691
2.312	27.39258
2.3125	35.75134
2.313	30.91736
2.3135	20.04089
2.314	5.13611
2.3145	-6.74744
2.315	-15.60974
2.3155	-0.60425
2.316	1.2085
2.3165	7.85522
2.317	26.48621
2.3175	44.21082
2.318	43.90869
2.3185	31.82373
2.319	27.49329
2.3195	12.08496
2.32	-9.06372
2.3205	-15.91187
2.321	-30.91736
2.3215	-49.54834
2.322	-49.44763
2.3225	-54.78516
2.323	-54.0802
2.3235	-55.59082
2.324	-50.65613
2.3245	-59.92126
2.325	-61.43188
2.3255	-58.20923
2.326	-58.20923
2.3265	-51.96533
2.327	-47.53418
2.3275	-39.27612
2.328	-31.72302
2.3285	-32.22656
2.329	-32.62939
2.3295	-34.54285
2.33	-32.93152
2.3305	-34.34143
2.331	-23.76709
2.3315	-19.13452
2.332	-11.58142
2.3325	-5.53894
2.333	8.56018
2.3335	20.34302
2.334	27.79541
2.3345	38.47046
2.335	43.60657
2.3355	61.43188
2.336	60.82764
2.3365	70.19348
2.337	77.04163
2.3375	77.04163
2.338	71.50269
2.3385	75.02747
2.339	85.40039
2.3395	89.83154
2.34	83.28552
2.3405	95.06836
2.341	98.79456
2.3415	96.47827
2.342	104.13208
2.3425	114.10217
2.343	119.84253
2.3435	114.80713
2.344	93.85986
2.3445	67.47437
2.345	38.87329
2.3455	19.13452
2.346	12.5885
2.3465	-2.5177
2.347	-10.57434
2.3475	3.32336
2.348	55.99365
2.3485	132.12891
2.349	197.79053
2.3495	217.5293
2.35	216.22009
2.3505	197.3877
2.351	177.04468
2.3515	148.14148
2.352	116.21704
2.3525	68.58215
2.353	8.45947
2.3535	-52.16675
2.354	-107.35474
2.3545	-151.26343
2.355	-197.3877
2.3555	-235.65674
2.356	-264.55994
2.3565	-275.13428
2.357	-268.08472
2.3575	-255.99976
2.358	-234.14612
2.3585	-212.69531
2.359	-186.20911
2.3595	-159.11865
2.36	-132.93457
2.3605	-110.37598
2.361	-78.35083
2.3615	-42.49878
2.362	-13.797
2.3625	-4.93469
2.363	2.41699
2.3635	11.2793
2.364	15.50903
2.3645	28.80249
2.365	29.91028
2.3655	39.07471
2.366	44.91577
2.3665	43.70728
2.367	51.5625
2.3675	51.96533
2.368	47.43347
2.3685	44.21082
2.369	41.59241
2.3695	32.62939
2.37	30.91736
2.3705	29.10461
2.371	19.63806
2.3715	17.52319
2.372	10.37292
2.3725	18.22815
2.373	19.83948
2.3735	25.78125
2.374	22.6593
2.3745	21.75293
2.375	25.98267
2.3755	25.88196
2.376	32.12585
2.3765	39.57825
2.377	37.7655
2.3775	40.88745
2.378	32.02515
2.3785	27.89612
2.379	35.85205
2.3795	49.0448
2.38	49.64905
2.3805	46.62781
2.381	27.39258
2.3815	5.23682
2.382	-13.797
2.3825	-22.86072
2.383	-28.39966
2.3835	-17.72461
2.384	5.13611
2.3845	30.81665
2.385	39.17542
2.3855	50.45471
2.386	49.85046
2.3865	50.15259
2.387	44.0094
2.3875	39.77966
2.388	41.89453
2.3885	29.70886
2.389	9.66797
2.3895	-13.19275
2.39	-55.99365
2.3905	-74.2218
2.391	-92.04712
2.3915	-104.73633
2.392	-106.04553
2.3925	-100.90942
2.393	-89.42871
2.3935	-82.88269
2.394	-83.08411
2.3945	-82.88269
2.395	-64.151
2.3955	-43.50586
2.396	-18.93311
2.3965	13.797
2.397	51.05896
2.3975	79.15649
2.398	88.0188
2.3985	91.8457
2.399	94.96765
2.3995	86.00464
2.4	78.95508
2.4005	64.25171
2.401	56.39648
2.4015	52.67029
2.402	52.06604
2.4025	46.62781
2.403	45.01648
2.4035	44.71436
2.404	47.23206
2.4045	37.66479
2.405	26.88904
2.4055	27.49329
2.406	18.12744
2.4065	20.04089
2.407	16.71753
2.4075	14.09912
2.408	5.33752
2.4085	-0.30212
2.409	-5.53894
2.4095	-13.89771
2.41	-18.32886
2.4105	-17.32178
2.411	-22.76001
2.4115	-27.49329
2.412	-15.1062
2.4125	-11.68213
2.413	-7.5531
2.4135	5.84106
2.414	11.2793
2.4145	14.09912
2.415	26.98975
2.4155	49.54834
2.416	67.57507
2.4165	68.07861
2.417	68.48145
2.4175	87.41455
2.418	106.04553
2.4185	106.9519
2.419	94.46411
2.4195	67.27295
2.42	54.38232
2.4205	72.81189
2.421	132.43103
2.4215	187.51831
2.422	218.03284
2.4225	185.10132
2.423	119.54041
2.4235	42.09595
2.424	-33.83789
2.4245	-103.52783
2.425	-169.29016
2.4255	-206.45142
2.426	-227.19727
2.4265	-230.62134
2.427	-209.87549
2.4275	-181.87866
2.428	-125.07935
2.4285	-62.8418
2.429	-14.19983
2.4295	21.14868
2.43	44.91577
2.4305	58.91418
2.431	68.58215
2.4315	65.86304
2.432	69.99207
2.4325	61.83472
2.433	74.32251
2.4335	71.90552
2.434	68.98499
2.4345	62.33826
2.435	46.92993
2.4355	28.80249
2.436	11.07788
2.4365	-4.83398
2.437	-14.30054
2.4375	-25.37842
2.438	-40.08179
2.4385	-51.5625
2.439	-66.97083
2.4395	-60.3241
2.44	-66.87012
2.4405	-68.38074
2.441	-57.8064
2.4415	-53.77808
2.442	-46.12427
2.4425	-30.71594
2.443	-21.75293
2.4435	-32.32727
2.444	-22.76001
2.4445	-17.22107
2.445	-3.32336
2.4455	5.43823
2.446	2.41699
2.4465	9.26514
2.447	10.87646
2.4475	11.38
2.448	17.22107
2.4485	14.09912
2.449	16.81824
2.4495	15.40833
2.45	16.81824
2.4505	14.30054
2.451	11.88354
2.4515	16.61682
2.452	21.55151
2.4525	15.50903
2.453	10.77576
2.4535	7.85522
2.454	4.63257
2.4545	3.22266
2.455	8.25806
2.4555	8.66089
2.456	9.36584
2.4565	10.97717
2.457	5.53894
2.4575	5.94177
2.458	2.71912
2.4585	11.17859
2.459	8.8623
2.4595	9.36584
2.46	9.16443
2.4605	7.85522
2.461	5.53894
2.4615	3.7262
2.462	5.63965
2.4625	3.32336
2.463	10.57434
2.4635	4.53186
2.464	2.31628
2.4645	5.13611
2.465	12.89062
2.4655	8.96301
2.466	9.16443
2.4665	6.54602
2.467	6.94885
2.4675	10.57434
2.468	15.40833
2.4685	16.11328
2.469	17.52319
2.4695	15.20691
2.47	11.98425
2.4705	10.87646
2.471	12.5885
2.4715	12.48779
2.472	12.5885
2.4725	12.5885
2.473	13.99841
2.4735	8.35876
2.474	12.5885
2.4745	4.53186
2.475	4.12903
2.4755	0.80566
2.476	0.20142
2.4765	-3.22266
2.477	-5.53894
2.4775	1.00708
2.478	-1.10779
2.4785	-6.14319
2.479	-3.02124
2.4795	-3.52478
2.48	-7.25098
2.4805	-3.8269
2.481	-2.81982
2.4815	0.10071
2.482	3.8269
2.4825	6.64673
2.483	3.7262
2.4835	5.84106
2.484	0.10071
2.4845	1.51062
2.485	2.81982
2.4855	4.02832
2.486	6.44531
2.4865	6.74744
2.487	4.83398
2.4875	3.7262
2.488	-2.11487
2.4885	1.51062
2.489	3.42407
2.4895	2.41699
2.49	13.99841
2.4905	30.11169
2.491	46.42639
2.4915	48.44055
2.492	54.58374
2.4925	61.53259
2.493	63.24463
2.4935	71.20056
2.494	65.46021
2.4945	60.62622
2.495	41.39099
2.4955	22.86072
2.496	25.177
2.4965	42.49878
2.497	35.85205
2.4975	34.84497
2.498	26.18408
2.4985	5.84106
2.499	-15.30762
2.4995	-32.32727
2.5	-49.34692
2.5005	-59.61914
2.501	-73.91968
2.5015	-80.06287
2.502	-93.25562
2.5025	-101.21155
2.503	-95.5719
2.5035	-92.85278
2.504	-75.53101
2.5045	-58.41064
2.505	-46.72852
2.5055	-31.01807
2.506	-16.91895
2.5065	-8.35876
2.507	6.2439
2.5075	18.12744
2.508	19.13452
2.5085	29.60815
2.509	29.60815
2.5095	33.43506
2.51	28.60107
2.5105	25.27771
2.511	28.70178
2.5115	31.62231
2.512	23.66638
2.5125	5.53894
2.513	1.81274
2.5135	10.97717
2.514	30.41382
2.5145	43.70728
2.515	73.61755
2.5155	114.4043
2.516	134.34448
2.5165	135.65369
2.517	135.25085
2.5175	115.61279
2.518	80.76782
2.5185	32.83081
2.519	-14.50195
2.5195	-51.5625
2.52	-82.88269
2.5205	-61.23047
2.521	-24.47205
2.5215	10.87646
2.522	31.62231
2.5225	54.68445
2.523	77.44446
2.5235	83.58765
2.524	106.44836
2.5245	106.24695
2.525	80.56641
2.5255	46.92993
2.526	1.40991
2.5265	-32.7301
2.527	-60.92834
2.5275	-81.97632
2.528	-100.50659
2.5285	-118.93616
2.529	-131.92749
2.5295	-115.91492
2.53	-88.11951
2.5305	-81.06995
2.531	-64.151
2.5315	-24.06921
2.532	11.98425
2.5325	36.15417
2.533	57.30286
2.5335	67.8772
2.534	70.49561
2.5345	53.97949
2.535	23.36426
2.5355	-6.3446
2.536	-32.7301
2.5365	-66.56799
2.537	-93.0542
2.5375	-115.91492
2.538	-126.89209
2.5385	-117.82837
2.539	-112.69226
2.5395	-102.01721
2.54	-86.10535
2.5405	-72.10693
2.541	-56.09436
2.5415	-37.56409
2.542	-18.22815
2.5425	0.10071
2.543	19.33594
2.5435	31.52161
2.544	39.17542
2.5445	42.19666
2.545	46.22498
2.5455	53.57666
2.546	53.37524
2.5465	49.85046
2.547	48.23914
2.5475	51.26038
2.548	52.36816
2.5485	51.86462
2.549	43.50586
2.5495	35.54993
2.55	28.60107
2.5505	22.25647
2.551	15.71045
2.5515	7.85522
2.552	13.49487
2.5525	8.35876
2.553	8.25806
2.5535	8.7616
2.554	10.37292
2.5545	10.37292
2.555	5.33752
2.5555	12.78992
2.556	9.06372
2.5565	7.45239
2.557	3.12195
2.5575	7.45239
2.558	28.09753
2.5585	40.88745
2.559	46.12427
2.5595	44.41223
2.56	63.34534
2.5605	71.40198
2.561	73.01331
2.5615	65.15808
2.562	64.55383
2.5625	62.33826
2.563	51.15967
2.5635	28.19824
2.564	13.89771
2.5645	0.90637
2.565	-7.15027
2.5655	-17.42249
2.566	-16.21399
2.5665	6.14319
2.567	35.04639
2.5675	68.58215
2.568	139.88342
2.5685	199.09973
2.569	222.86682
2.5695	245.62683
2.57	228.40576
2.5705	177.24609
2.571	110.77881
2.5715	41.08887
2.572	-31.72302
2.5725	-95.87402
2.573	-131.92749
2.5735	-161.0321
2.574	-180.16663
2.5745	-196.48132
2.575	-204.03442
2.5755	-201.11389
2.576	-192.75513
2.5765	-176.84326
2.577	-160.83069
2.5775	-144.6167
2.578	-128.40271
2.5785	-107.05261
2.579	-102.92358
2.5795	-98.49243
2.58	-91.34216
2.5805	-80.36499
2.581	-60.62622
2.5815	-47.7356
2.582	-32.83081
2.5825	-20.74585
2.583	-6.44531
2.5835	7.35168
2.584	19.13452
2.5845	29.80957
2.585	39.27612
2.5855	45.41931
2.586	51.66321
2.5865	53.57666
2.587	70.19348
2.5875	77.44446
2.588	82.68127
2.5885	73.31543
2.589	70.89844
2.5895	75.93384
2.59	63.84888
2.5905	56.49719
2.591	32.22656
2.5915	15.91187
2.592	-1.91345
2.5925	-8.8623
2.593	-22.15576
2.5935	-22.35718
2.594	-18.22815
2.5945	-16.61682
2.595	-15.1062
2.5955	-4.02832
2.596	-8.56018
2.5965	-9.56726
2.597	-10.27222
2.5975	-6.64673
2.598	-7.95593
2.5985	-6.44531
2.599	-5.33752
2.5995	3.02124
2.6	7.35168
2.6005	9.06372
2.601	12.38708
2.6015	20.04089
2.602	15.40833
2.6025	26.28479
2.603	43.40515
2.6035	45.72144
2.604	38.57117
2.6045	30.81665
2.605	20.84656
2.6055	9.36584
2.606	-1.3092
2.6065	-7.75452
2.607	-15.20691
2.6075	-25.68054
2.608	-30.41382
2.6085	-32.7301
2.609	-37.36267
2.6095	-44.21082
2.61	-57.8064
2.6105	-67.27295
2.611	-38.06763
2.6115	-10.37292
2.612	15.40833
2.6125	39.57825
2.613	73.01331
2.6135	87.41455
2.614	89.52942
2.6145	78.55225
2.615	69.1864
2.6155	79.96216
2.616	69.89136
2.6165	49.74976
2.617	38.67188
2.6175	46.02356
2.618	27.59399
2.6185	23.76709
2.619	18.8324
2.6195	12.68921
2.62	11.58142
2.6205	3.02124
2.621	-7.35168
2.6215	-29.70886
2.622	-44.11011
2.6225	-65.96375
2.623	-67.97791
2.6235	-61.73401
2.624	-51.86462
2.6245	-59.01489
2.625	-51.96533
2.6255	-49.74976
2.626	-44.21082
2.6265	-33.53577
2.627	-15.20691
2.6275	19.63806
2.628	41.99524
2.6285	75.73242
2.629	92.04712
2.6295	83.78906
2.63	79.15649
2.6305	73.61755
2.631	36.25488
2.6315	17.01965
2.632	29.10461
2.6325	44.91577
2.633	48.84338
2.6335	43.30444
2.634	11.88354
2.6345	-12.78992
2.635	-34.64355
2.6355	-49.14551
2.636	-39.98108
2.6365	-16.91895
2.637	-13.89771
2.6375	-21.24939
2.638	-22.35718
2.6385	-29.91028
2.639	-36.35559
2.6395	-30.2124
2.64	-29.91028
2.6405	-27.19116
2.641	-24.06921
2.6415	-33.23364
2.642	-42.90161
2.6425	-49.44763
2.643	-43.00232
2.6435	-37.46338
2.644	-42.39807
2.6445	-41.69312
2.645	-33.03223
2.6455	-18.53027
2.646	26.78833
2.6465	65.86304
2.647	88.72375
2.6475	99.19739
2.648	106.34766
2.6485	108.66394
2.649	90.83862
2.6495	63.54675
2.65	47.8363
2.6505	59.01489
2.651	56.19507
2.6515	55.79224
2.652	49.34692
2.6525	25.177
2.653	-2.01416
2.6535	-41.08887
2.654	-68.17932
2.6545	-86.00464
2.655	-99.70093
2.6555	-102.11792
2.656	-99.49951
2.6565	-110.6781
2.657	-100.6073
2.6575	-95.77332
2.658	-81.87561
2.6585	-69.48853
2.659	-56.79932
2.6595	-50.65613
2.66	-36.85913
2.6605	-23.26355
2.661	-14.70337
2.6615	-12.89062
2.662	-3.62549
2.6625	11.68213
2.663	20.1416
2.6635	32.7301
2.664	35.75134
2.6645	34.44214
2.665	38.67188
2.6655	23.96851
2.666	21.85364
2.6665	29.20532
2.667	40.38391
2.6675	40.68604
2.668	43.30444
2.6685	42.09595
2.669	41.69312
2.6695	32.42798
2.67	29.60815
2.6705	32.12585
2.671	27.49329
2.6715	22.15576
2.672	16.3147
2.6725	13.09204
2.673	5.0354
2.6735	20.1416
2.674	33.83789
2.6745	35.04639
2.675	31.72302
2.6755	27.19116
2.676	23.06213
2.6765	3.52478
2.677	1.71204
2.6775	-0.50354
2.678	-8.56018
2.6785	-14.19983
2.679	-18.73169
2.6795	-20.1416
2.68	-23.46497
2.6805	-23.16284
2.681	-22.05505
2.6815	-14.50195
2.682	-7.65381
2.6825	-7.35168
2.683	-2.81982
2.6835	-8.96301
2.684	-10.77576
2.6845	-2.61841
2.685	-7.15027
2.6855	-9.06372
2.686	1.61133
2.6865	-4.63257
2.687	-4.43115
2.6875	-9.66797
2.688	-9.66797
2.6885	-14.09912
2.689	-11.58142
2.6895	-5.53894
2.69	3.7262
2.6905	11.88354
2.691	10.67505
2.6915	12.28638
2.692	7.45239
2.6925	9.66797
2.693	11.58142
2.6935	20.64514
2.694	34.14001
2.6945	25.57983
2.695	39.17542
2.6955	72.40906
2.696	92.95349
2.6965	105.13916
2.697	113.09509
2.6975	114.80713
2.698	125.48218
2.6985	133.84094
2.699	116.31775
2.6995	82.78198
2.7	45.92285
2.7005	4.83398
2.701	-21.45081
2.7015	-25.78125
2.702	4.93469
2.7025	47.43347
2.703	103.02429
2.7035	122.05811
2.704	112.99438
2.7045	84.2926
2.705	50.65613
2.7055	21.24939
2.706	-18.32886
2.7065	-52.36816
2.707	-95.97473
2.7075	-131.72607
2.708	-181.27441
2.7085	-218.73779
2.709	-229.91638
2.7095	-229.41284
2.71	-225.58594
2.7105	-186.81335
2.711	-153.57971
2.7115	-128.40271
2.712	-102.82288
2.7125	-77.44446
2.713	-55.3894
2.7135	-39.67896
2.714	-22.25647
2.7145	-22.05505
2.715	-24.27063
2.7155	-29.10461
2.716	-38.67188
2.7165	-35.2478
2.717	-31.92444
2.7175	-23.56567
2.718	-5.53894
2.7185	15.71045
2.719	30.61523
2.7195	50.95825
2.72	71.7041
2.7205	85.80322
2.721	101.61438
2.7215	122.76306
2.722	134.64661
2.7225	135.45227
2.723	142.50183
2.7235	145.01953
2.724	130.41687
2.7245	119.64111
2.725	98.79456
2.7255	78.35083
2.726	57.8064
2.7265	34.34143
2.727	18.12744
2.7275	-9.16443
2.728	-26.58691
2.7285	-44.0094
2.729	-52.06604
2.7295	-48.33984
2.73	-36.55701
2.7305	-22.45789
2.731	-7.15027
2.7315	4.12903
2.732	2.01416
2.7325	6.04248
2.733	16.3147
2.7335	24.77417
2.734	37.56409
2.7345	36.25488
2.735	26.08337
2.7355	11.68213
2.736	2.81982
2.7365	-16.61682
2.737	-36.95984
2.7375	-54.28162
2.738	-54.98657
2.7385	-47.63489
2.739	-25.27771
2.7395	4.63257
2.74	23.36426
2.7405	29.40674
2.741	35.34851
2.7415	32.83081
2.742	23.26355
2.7425	15.40833
2.743	18.8324
2.7435	16.41541
2.744	14.50195
2.7445	9.86938
2.745	-2.71912
2.7455	-5.43823
2.746	-10.97717
2.7465	-16.41541
2.747	-20.74585
2.7475	-24.16992
2.748	-37.46338
2.7485	-48.03772
2.749	-49.74976
2.7495	-55.89294
2.75	-57.00073
2.7505	-52.06604
2.751	-45.11719
2.7515	-39.77966
2.752	-32.62939
2.7525	-24.06921
2.753	-18.53027
2.7535	-1.61133
2.754	-1.00708
2.7545	-4.83398
2.755	5.13611
2.7555	7.04956
2.756	9.16443
2.7565	9.06372
2.757	11.78284
2.7575	11.07788
2.758	9.66797
2.7585	15.50903
2.759	18.12744
2.7595	18.63098
2.76	20.54443
2.7605	18.02673
2.761	12.48779
2.7615	14.50195
2.762	14.50195
2.7625	14.09912
2.763	21.3501
2.7635	26.78833
2.764	27.29187
2.7645	27.59399
2.765	30.51453
2.7655	28.60107
2.766	40.88745
2.7665	63.64746
2.767	82.27844
2.7675	134.5459
2.768	209.06982
2.7685	242.50488
2.769	235.95886
2.7695	214.81018
2.77	170.49866
2.7705	123.06519
2.771	80.66711
2.7715	41.89453
2.772	2.21558
2.7725	-18.73169
2.773	-44.61365
2.7735	-57.50427
2.774	-59.41772
2.7745	-49.0448
2.775	-50.2533
2.7755	-47.43347
2.776	-41.69312
2.7765	-29.10461
2.777	-14.50195
2.7775	-13.797
2.778	-23.76709
2.7785	-52.46887
2.779	-79.96216
2.7795	-109.67102
2.78	-118.2312
2.7805	-123.16589
2.781	-126.9928
2.7815	-130.8197
2.782	-132.12891
2.7825	-120.14465
2.783	-107.55615
2.7835	-81.97632
2.784	-52.36816
2.7845	-28.50037
2.785	-10.27222
2.7855	12.48779
2.786	31.4209
2.7865	39.47754
2.787	51.26038
2.7875	52.771
2.788	83.48694
2.7885	114.4043
2.789	141.79688
2.7895	139.37988
2.79	121.9574
2.7905	94.3634
2.791	73.21472
2.7915	55.18799
2.792	33.33435
2.7925	10.47363
2.793	-13.29346
2.7935	-38.47046
2.794	-62.33826
2.7945	-74.82605
2.795	-75.02747
2.7955	-85.09827
2.796	-73.71826
2.7965	-72.00623
2.797	-65.66162
2.7975	-56.90002
2.798	-52.26746
2.7985	-33.23364
2.799	-29.20532
2.7995	-28.09753
2.8	-28.70178
2.8005	-28.80249
2.801	-14.90479
2.8015	-10.47363
2.802	-7.35168
2.8025	5.53894
2.803	12.5885
2.8035	24.67346
2.804	26.18408
2.8045	30.51453
2.805	35.34851
2.8055	33.03223
2.806	37.56409
2.8065	40.48462
2.807	46.32568
2.8075	42.39807
2.808	45.11719
2.8085	35.65063
2.809	30.91736
2.8095	31.72302
2.81	28.29895
2.8105	25.37842
2.811	24.37134
2.8115	24.97559
2.812	24.06921
2.8125	22.45789
2.813	22.55859
2.8135	21.55151
2.814	24.87488
2.8145	20.84656
2.815	24.77417
2.8155	21.85364
2.816	20.94727
2.8165	19.94019
2.817	20.34302
2.8175	22.76001
2.818	40.2832
2.8185	48.54126
2.819	50.85754
2.8195	50.45471
2.82	50.05188
2.8205	42.7002
2.821	32.83081
2.8215	19.83948
2.822	19.23523
2.8225	22.55859
2.823	28.80249
2.8235	32.93152
2.824	25.47913
2.8245	30.31311
2.825	18.12744
2.8255	14.70337
2.826	15.1062
2.8265	5.43823
2.827	-12.38708
2.8275	-20.94727
2.828	-24.37134
2.8285	-32.12585
2.829	-30.51453
2.8295	-35.85205
2.83	-26.18408
2.8305	-21.14868
2.831	-20.84656
2.8315	-8.8623
2.832	-6.44531
2.8325	-3.8269
2.833	-8.05664
2.8335	-7.95593
2.834	-6.64673
2.8345	-6.74744
2.835	-10.27222
2.8355	-9.56726
2.836	-9.66797
2.8365	-9.06372
2.837	-9.97009
2.8375	-6.94885
2.838	-9.06372
2.8385	-4.73328
2.839	0.80566
2.8395	-3.12195
2.84	1.00708
2.8405	3.7262
2.841	-0.40283
2.8415	-11.48071
2.842	-32.12585
2.8425	-39.07471
2.843	-42.39807
2.8435	-34.74426
2.844	-30.61523
2.8445	-18.8324
2.845	-2.01416
2.8455	-3.12195
2.846	3.62549
2.8465	16.3147
2.847	22.35718
2.8475	25.37842
2.848	31.62231
2.8485	26.58691
2.849	26.68762
2.8495	31.21948
2.85	33.43506
2.8505	34.64355
2.851	41.4917
2.8515	39.67896
2.852	41.89453
2.8525	46.82922
2.853	48.13843
2.8535	43.20374
2.854	32.52869
2.8545	34.44214
2.855	31.21948
2.8555	27.09045
2.856	32.52869
2.8565	45.92285
2.857	78.35083
2.8575	104.23279
2.858	128.50342
2.8585	160.72998
2.859	175.83618
2.8595	168.28308
2.86	148.14148
2.8605	124.87793
2.861	92.55066
2.8615	48.94409
2.862	20.24231
2.8625	14.60266
2.863	16.11328
2.8635	-2.21558
2.864	-27.09045
2.8645	-55.89294
2.865	-76.63879
2.8655	-84.19189
2.866	-89.12659
2.8665	-91.44287
2.867	-92.75208
2.8675	-89.63013
2.868	-85.19897
2.8685	-89.12659
2.869	-101.11084
2.8695	-121.65527
2.87	-124.57581
2.8705	-125.48218
2.871	-131.52466
2.8715	-120.54749
2.872	-116.82129
2.8725	-109.97314
2.873	-94.96765
2.8735	-70.69702
2.874	-44.11011
2.8745	-21.65222
2.875	-2.5177
2.8755	4.12903
2.876	13.59558
2.8765	46.32568
2.877	78.04871
2.8775	94.06128
2.878	111.18164
2.8785	107.25403
2.879	101.41296
2.8795	92.04712
2.88	78.04871
2.8805	45.2179
2.881	21.24939
2.8815	5.84106
2.882	-7.95593
2.8825	-10.47363
2.883	-13.29346
2.8835	-9.97009
2.884	-16.01257
2.8845	-10.97717
2.885	-2.71912
2.8855	37.06055
2.886	80.96924
2.8865	98.69385
2.887	102.72217
2.8875	90.33508
2.888	74.12109
2.8885	60.3241
2.889	42.59949
2.8895	16.51611
2.89	1.3092
2.8905	-11.17859
2.891	-24.97559
2.8915	-44.61365
2.892	-61.73401
2.8925	-68.38074
2.893	-81.7749
2.8935	-83.28552
2.894	-78.04871
2.8945	-76.7395
2.895	-74.42322
2.8955	-81.67419
2.896	-79.76074
2.8965	-78.35083
2.897	-67.17224
2.8975	-61.43188
2.898	-43.10303
2.8985	-33.83789
2.899	-29.60815
2.8995	-19.33594
2.9	-14.30054
2.9005	-8.15735
2.901	-0.80566
2.9015	7.04956
2.902	13.69629
2.9025	9.16443
2.903	17.32178
2.9035	19.73877
2.904	19.23523
2.9045	25.27771
2.905	26.18408
2.9055	26.58691
2.906	37.46338
2.9065	41.89453
2.907	38.06763
2.9075	35.85205
2.908	38.36975
2.9085	38.36975
2.909	28.80249
2.9095	32.12585
2.91	32.22656
2.9105	50.95825
2.911	41.39099
2.9115	37.26196
2.912	34.94568
2.9125	29.30603
2.913	24.16992
2.9135	20.64514
2.914	16.91895
2.9145	13.29346
2.915	8.15735
2.9155	9.46655
2.916	17.32178
2.9165	10.47363
2.917	11.58142
2.9175	17.01965
2.918	32.93152
2.9185	33.03223
2.919	33.53577
2.9195	41.08887
2.92	36.95984
2.9205	38.57117
2.921	36.75842
2.9215	31.62231
2.922	31.01807
2.9225	18.22815
2.923	18.32886
2.9235	5.13611
2.924	5.13611
2.9245	1.91345
2.925	5.23682
2.9255	12.18567
2.926	4.93469
2.9265	7.45239
2.927	22.45789
2.9275	80.4657
2.928	138.3728
2.9285	165.36255
2.929	164.25476
2.9295	156.70166
2.93	150.55847
2.9305	146.02661
2.931	124.97864
2.9315	104.93774
2.932	82.37915
2.9325	68.07861
2.933	52.56958
2.9335	33.13293
2.934	24.77417
2.9345	17.92603
2.935	-0.70496
2.9355	-27.6947
2.936	-37.7655
2.9365	-62.43896
2.937	-76.43738
2.9375	-88.82446
2.938	-81.7749
2.9385	-77.24304
2.939	-71.09985
2.9395	-66.76941
2.94	-70.79773
2.9405	-78.25012
2.941	-82.58057
2.9415	-87.01172
2.942	-83.48694
2.9425	-76.53809
2.943	-64.151
2.9435	-43.10303
2.944	-30.91736
2.9445	-17.22107
2.945	3.62549
2.9455	38.16833
2.946	78.35083
2.9465	92.44995
2.947	98.99597
2.9475	88.42163
2.948	62.74109
2.9485	34.14001
2.949	11.48071
2.9495	-10.77576
2.95	-35.75134
2.9505	-62.13684
2.951	-89.63013
2.9515	-113.09509
2.952	-116.51917
2.9525	-116.31775
2.953	-104.63562
2.9535	-90.83862
2.954	-73.71826
2.9545	-64.55383
2.955	-50.2533
2.9555	-28.9032
2.956	-13.59558
2.9565	-6.84814
2.957	3.62549
2.9575	18.22815
2.958	21.24939
2.9585	21.04797
2.959	21.85364
2.9595	19.83948
2.96	22.15576
2.9605	18.63098
2.961	20.04089
2.9615	21.55151
2.962	17.52319
2.9625	27.59399
2.963	31.4209
2.9635	29.40674
2.964	34.74426
2.9645	36.75842
2.965	35.75134
2.9655	38.16833
2.966	38.67188
2.9665	45.52002
2.967	56.5979
2.9675	48.64197
2.968	43.90869
2.9685	45.52002
2.969	46.5271
2.9695	43.90869
2.97	42.7002
2.9705	34.74426
2.971	28.50037
2.9715	22.6593
2.972	12.5885
2.9725	13.49487
2.973	12.68921
2.9735	10.97717
2.974	11.38
2.9745	8.56018
2.975	11.17859
2.9755	13.19275
2.976	14.30054
2.9765	16.3147
2.977	19.83948
2.9775	24.06921
2.978	27.59399
2.9785	39.27612
2.979	47.43347
2.9795	47.63489
2.98	40.58533
2.9805	46.72852
2.981	50.05188
2.9815	65.56091
2.982	78.04871
2.9825	80.26428
2.983	68.48145
2.9835	56.39648
2.984	39.27612
2.9845	41.79382
2.985	40.08179
2.9855	42.90161
2.986	68.07861
2.9865	86.30676
2.987	93.25562
2.9875	83.28552
2.988	66.36658
2.9885	49.95117
2.989	29.10461
2.9895	13.09204
2.99	-2.11487
2.9905	-21.14868
2.991	-35.75134
2.9915	-42.29736
2.992	-40.98816
2.9925	-39.27612
2.993	-36.55701
2.9935	-34.24072
2.994	-29.70886
2.9945	-17.12036
2.995	-15.50903
2.9955	-18.63098
2.996	-14.60266
2.9965	-11.07788
2.997	-22.6593
2.9975	-16.3147
2.998	-20.1416
2.9985	-25.78125
2.999	-22.86072
2.9995	-12.68921
3	-5.23682
3.0005	2.71912
3.001	5.74036
3.0015	19.43665
3.002	17.22107
3.0025	11.2793
3.003	6.74744
3.0035	2.5177
3.004	6.44531
3.0045	7.15027
3.005	5.74036
3.0055	-1.10779
3.006	-6.84814
3.0065	-6.04248
3.007	-3.8269
3.0075	-10.17151
3.008	-6.64673
3.0085	-10.37292
3.009	-13.19275
3.0095	-12.89062
3.01	-10.87646
3.0105	-11.17859
3.011	-6.3446
3.0115	0.60425
3.012	5.43823
3.0125	11.07788
3.013	15.30762
3.0135	6.54602
3.014	-8.8623
3.0145	-11.07788
3.015	-12.38708
3.0155	-8.96301
3.016	-14.90479
3.0165	-17.92603
3.017	-8.15735
3.0175	1.00708
3.018	13.99841
3.0185	15.00549
3.019	18.02673
3.0195	22.05505
3.02	24.27063
3.0205	27.99683
3.021	21.95435
3.0215	23.26355
3.022	20.44373
3.0225	44.31152
3.023	89.42871
3.0235	113.59863
3.024	131.12183
3.0245	140.58838
3.025	131.92749
3.0255	110.07385
3.026	78.25012
3.0265	48.23914
3.027	21.55151
3.0275	-4.53186
3.028	-20.24231
3.0285	-26.78833
3.029	-37.06055
3.0295	-37.26196
3.03	-26.78833
3.0305	-5.94177
3.031	40.08179
3.0315	66.56799
3.032	70.3949
3.0325	66.87012
3.033	54.0802
3.0335	57.60498
3.034	45.01648
3.0345	29.30603
3.035	24.77417
3.0355	9.66797
3.036	3.62549
3.0365	-9.06372
3.037	-23.76709
3.0375	-33.33435
3.038	-34.03931
3.0385	-25.177
3.039	-24.06921
3.0395	-27.6947
3.04	-36.25488
3.0405	-40.38391
3.041	-41.79382
3.0415	-56.5979
3.042	-62.53967
3.0425	-59.61914
3.043	-42.8009
3.0435	-32.7301
3.044	-30.81665
3.0445	-26.98975
3.045	-20.44373
3.0455	-20.54443
3.046	-18.53027
3.0465	-15.00549
3.047	11.98425
3.0475	36.55701
3.048	52.16675
3.0485	73.11401
3.049	68.78357
3.0495	58.20923
3.05	37.7655
3.0505	40.78674
3.051	38.47046
3.0515	41.29028
3.052	71.20056
3.0525	106.24695
3.053	124.27368
3.0535	120.64819
3.054	108.56323
3.0545	78.75366
3.055	32.02515
3.0555	1.91345
3.056	-26.98975
3.0565	-42.8009
3.057	-53.17383
3.0575	-54.0802
3.058	-49.44763
3.0585	-39.17542
3.059	-32.22656
3.0595	-19.53735
3.06	-18.53027
3.0605	-3.52478
3.061	4.02832
3.0615	9.46655
3.062	18.22815
3.0625	22.55859
3.063	31.82373
3.0635	31.92444
3.064	35.14709
3.0645	23.46497
3.065	23.76709
3.0655	10.87646
3.066	-1.3092
3.0665	-11.58142
3.067	-15.71045
3.0675	-27.59399
3.068	-35.14709
3.0685	-39.67896
3.069	-29.60815
3.0695	-18.53027
3.07	-13.19275
3.0705	-16.41541
3.071	-20.04089
3.0715	-12.89062
3.072	-1.81274
3.0725	-1.00708
3.073	-0.40283
3.0735	0.90637
3.074	5.0354
3.0745	6.94885
3.075	1.40991
3.0755	3.42407
3.076	9.16443
3.0765	23.66638
3.077	38.16833
3.0775	60.52551
3.078	84.89685
3.0785	88.42163
3.079	80.66711
3.0795	63.24463
3.08	42.90161
3.0805	16.91895
3.081	-3.12195
3.0815	-18.73169
3.082	-24.57275
3.0825	-29.00391
3.083	-30.41382
3.0835	-24.57275
3.084	-27.19116
3.0845	-20.24231
3.085	-24.06921
3.0855	-19.33594
3.086	-18.12744
3.0865	-29.60815
3.087	-32.7301
3.0875	-31.72302
3.088	-31.01807
3.0885	-30.01099
3.089	-30.61523
3.0895	-43.00232
3.09	-57.40356
3.0905	-69.08569
3.091	-67.97791
3.0915	-64.25171
3.092	-56.49719
3.0925	-51.5625
3.093	-48.13843
3.0935	-31.11877
3.094	-17.32178
3.0945	-5.23682
3.095	7.5531
3.0955	18.42957
3.096	27.39258
3.0965	38.57117
3.097	39.88037
3.0975	53.37524
3.098	55.2887
3.0985	41.89453
3.099	41.59241
3.0995	36.15417
3.1	36.85913
3.1005	37.26196
3.101	29.50745
3.1015	29.40674
3.102	24.77417
3.1025	17.22107
3.103	15.91187
3.1035	15.50903
3.104	17.52319
3.1045	20.64514
3.105	18.63098
3.1055	26.68762
3.106	28.09753
3.1065	33.83789
3.107	31.82373
3.1075	30.2124
3.108	38.06763
3.1085	41.39099
3.109	54.98657
3.1095	49.54834
3.11	51.46179
3.1105	50.75684
3.111	42.09595
3.1115	41.08887
3.112	35.54993
3.1125	33.33435
3.113	22.25647
3.1135	12.89062
3.114	2.5177
3.1145	-2.11487
3.115	6.44531
3.1155	-0.60425
3.116	-7.85522
3.1165	-13.29346
3.117	-11.98425
3.1175	-14.70337
3.118	-3.42407
3.1185	5.74036
3.119	11.38
3.1195	21.55151
3.12	29.60815
3.1205	61.73401
3.121	78.85437
3.1215	87.01172
3.122	76.63879
3.1225	58.10852
3.123	38.16833
3.1235	29.60815
3.124	21.04797
3.1245	6.3446
3.125	-18.42957
3.1255	-40.48462
3.126	-38.26904
3.1265	-28.39966
3.127	-26.18408
3.1275	-19.33594
3.128	-14.90479
3.1285	4.43115
3.129	17.01965
3.1295	25.07629
3.13	22.86072
3.1305	35.54993
3.131	41.08887
3.1315	41.59241
3.132	46.72852
3.1325	36.05347
3.133	19.03381
3.1335	10.0708
3.134	12.89062
3.1345	4.83398
3.135	29.50745
3.1355	44.41223
3.136	52.26746
3.1365	54.18091
3.137	30.71594
3.1375	11.98425
3.138	-4.33044
3.1385	-29.80957
3.139	-44.21082
3.1395	-40.38391
3.14	-22.45789
3.1405	5.23682
3.141	33.23364
3.1415	42.49878
3.142	48.64197
3.1425	49.64905
3.143	43.60657
3.1435	20.44373
3.144	-8.25806
3.1445	-19.94019
3.145	-37.06055
3.1455	-41.59241
3.146	-37.56409
3.1465	-37.66479
3.147	-39.27612
3.1475	-26.88904
3.148	-28.09753
3.1485	-14.30054
3.149	-7.5531
3.1495	-1.3092
3.15	-8.56018
3.1505	-6.64673
3.151	2.81982
3.1515	11.68213
3.152	5.94177
3.1525	6.2439
3.153	12.68921
3.1535	10.0708
3.154	13.797
3.1545	9.97009
3.155	5.13611
3.1555	0.40283
3.156	2.31628
3.1565	5.33752
3.157	-7.15027
3.1575	-8.8623
3.158	-13.99841
3.1585	-21.85364
3.159	-33.53577
3.1595	-37.86621
3.16	-36.75842
3.1605	-36.15417
3.161	-32.93152
3.1615	-36.05347
3.162	-32.02515
3.1625	-22.45789
3.163	-18.73169
3.1635	-21.14868
3.164	-18.63098
3.1645	-11.07788
3.165	-10.47363
3.1655	0.20142
3.166	9.76868
3.1665	20.54443
3.167	38.87329
3.1675	38.47046
3.168	46.62781
3.1685	46.02356
3.169	37.06055
3.1695	31.11877
3.17	23.56567
3.1705	12.48779
3.171	9.06372
3.1715	-7.15027
3.172	-21.55151
3.1725	-35.34851
3.173	-51.86462
3.1735	-62.64038
3.174	-90.63721
3.1745	-117.82837
3.175	-126.79138
3.1755	-130.01404
3.176	-121.65527
3.1765	-110.37598
3.177	-96.98181
3.1775	-83.18481
3.178	-60.72693
3.1785	-34.74426
3.179	-15.40833
3.1795	9.86938
3.18	33.13293
3.1805	58.41064
3.181	80.56641
3.1815	90.03296
3.182	99.19739
3.1825	97.68677
3.183	102.11792
3.1835	118.63403
3.184	128.60413
3.1845	139.48059
3.185	145.12024
3.1855	130.71899
3.186	108.46252
3.1865	84.69543
3.187	76.33667
3.1875	62.53967
3.188	54.18091
3.1885	53.47595
3.189	45.41931
3.1895	40.78674
3.19	30.51453
3.1905	23.8678
3.191	16.11328
3.1915	14.19983
3.192	13.19275
3.1925	11.98425
3.193	7.35168
3.1935	12.5885
3.194	10.27222
3.1945	9.46655
3.195	5.53894
3.1955	13.49487
3.196	16.51611
3.1965	13.69629
3.197	15.00549
3.1975	10.27222
3.198	8.8623
3.1985	1.2085
3.199	-1.2085
3.1995	-8.66089
3.2	-12.08496
3.2005	-19.53735
3.201	-21.45081
3.2015	-26.08337
3.202	-29.20532
3.2025	-28.80249
3.203	-37.86621
3.2035	-35.2478
3.204	-35.34851
3.2045	-34.44214
3.205	-26.08337
3.2055	-21.75293
3.206	-16.61682
3.2065	-8.7616
3.207	-2.01416
3.2075	3.22266
3.208	6.04248
3.2085	11.07788
3.209	7.75452
3.2095	4.63257
3.21	0.90637
3.2105	3.52478
3.211	-1.00708
3.2115	-4.43115
3.212	0
3.2125	7.45239
3.213	3.42407
3.2135	5.74036
3.214	6.64673
3.2145	6.94885
3.215	6.64673
3.2155	12.48779
3.216	6.04248
3.2165	13.39417
3.217	12.08496
3.2175	16.61682
3.218	16.3147
3.2185	17.92603
3.219	6.54602
3.2195	5.43823
3.22	8.25806
3.2205	5.23682
3.221	2.01416
3.2215	0.80566
3.222	-1.10779
3.2225	-3.8269
3.223	-7.15027
3.2235	-9.97009
3.224	-11.68213
3.2245	-7.95593
3.225	-10.77576
3.2255	-8.35876
3.226	-6.64673
3.2265	-2.5177
3.227	2.5177
3.2275	4.93469
3.228	-7.65381
3.2285	-26.98975
3.229	-41.89453
3.2295	-48.74268
3.23	-51.76392
3.2305	-48.03772
3.231	-30.71594
3.2315	2.41699
3.232	35.95276
3.2325	43.50586
3.233	42.19666
3.2335	18.63098
3.234	-5.84106
3.2345	-21.65222
3.235	-46.72852
3.2355	-64.75525
3.236	-67.97791
3.2365	-68.88428
3.237	-83.68835
3.2375	-85.29968
3.238	-74.52393
3.2385	-58.20923
3.239	-29.50745
3.2395	-2.81982
3.24	18.93311
3.2405	39.67896
3.241	54.88586
3.2415	59.41772
3.242	45.92285
3.2425	27.49329
3.243	14.70337
3.2435	1.61133
3.244	-7.5531
3.2445	1.71204
3.245	15.71045
3.2455	26.28479
3.246	30.81665
3.2465	33.03223
3.247	20.94727
3.2475	-9.76868
3.248	-33.03223
3.2485	-49.34692
3.249	-55.89294
3.2495	-67.47437
3.25	-59.71985
3.2505	-39.47754
3.251	-28.29895
3.2515	-14.09912
3.252	-11.68213
3.2525	3.62549
3.253	12.5885
3.2535	20.84656
3.254	20.44373
3.2545	25.78125
3.255	33.23364
3.2555	36.25488
3.256	36.4563
3.2565	40.08179
3.257	39.27612
3.2575	45.01648
3.258	41.39099
3.2585	45.52002
3.259	56.5979
3.2595	50.85754
3.26	50.45471
3.2605	38.87329
3.261	33.33435
3.2615	29.30603
3.262	28.70178
3.2625	32.22656
3.263	24.47205
3.2635	13.39417
3.264	5.33752
3.2645	-1.10779
3.265	-10.17151
3.2655	-14.80408
3.266	-23.56567
3.2665	-35.04639
3.267	-42.8009
3.2675	-52.56958
3.268	-63.34534
3.2685	-72.40906
3.269	-79.66003
3.2695	-85.29968
3.27	-94.66553
3.2705	-104.73633
3.271	-119.03687
3.2715	-123.46802
3.272	-129.81262
3.2725	-128.50342
3.273	-121.35315
3.2735	-113.80005
3.274	-118.2312
3.2745	-109.16748
3.275	-19.33594
3.2755	79.45862
3.276	170.49866
3.2765	211.58752
3.277	222.96753
3.2775	206.04858
3.278	151.46484
3.2785	97.98889
3.279	44.31152
3.2795	1.2085
3.28	-23.46497
3.2805	-39.27612
3.281	-34.24072
3.2815	-34.54285
3.282	-25.78125
3.2825	-22.96143
3.283	-25.37842
3.2835	-23.96851
3.284	-10.97717
3.2845	0.60425
3.285	11.98425
3.2855	25.88196
3.286	32.52869
3.2865	41.18958
3.287	42.09595
3.2875	40.88745
3.288	35.65063
3.2885	34.64355
3.289	31.21948
3.2895	25.98267
3.29	25.68054
3.2905	22.35718
3.291	16.81824
3.2915	11.07788
3.292	9.86938
3.2925	11.68213
3.293	8.66089
3.2935	4.22974
3.294	6.3446
3.2945	1.81274
3.295	2.92053
3.2955	-0.70496
3.296	-0.10071
3.2965	-4.02832
3.297	-6.54602
3.2975	-3.8269
3.298	-10.27222
3.2985	-3.8269
3.299	-1.2085
3.2995	-4.53186
3.3	-8.45947
3.3005	-6.3446
3.301	-8.7616
3.3015	-4.83398
3.302	7.85522
3.3025	28.9032
3.303	36.4563
3.3035	28.39966
3.304	26.88904
3.3045	18.8324
3.305	6.94885
3.3055	0.10071
3.306	-15.81116
3.3065	-32.12585
3.307	-47.03064
3.3075	-51.36108
3.308	-54.18091
3.3085	-54.48303
3.309	-51.66321
3.3095	-57.20215
3.31	-60.12268
3.3105	-52.8717
3.311	-25.177
3.3115	-6.44531
3.312	0.90637
3.3125	12.99133
3.313	16.21399
3.3135	16.3147
3.314	9.46655
3.3145	0.80566
3.315	-19.33594
3.3155	-26.68762
3.316	-31.01807
3.3165	-28.50037
3.317	-22.45789
3.3175	-19.73877
3.318	-11.88354
3.3185	-1.61133
3.319	6.2439
3.3195	11.68213
3.32	7.5531
3.3205	21.24939
3.321	18.32886
3.3215	13.49487
3.322	-2.21558
3.3225	-9.66797
3.323	-13.89771
3.3235	-8.45947
3.324	-2.31628
3.3245	2.21558
3.325	3.62549
3.3255	21.3501
3.326	43.40515
3.3265	52.97241
3.327	58.71277
3.3275	63.34534
3.328	72.20764
3.3285	90.23438
3.329	96.07544
3.3295	103.72925
3.33	100.50659
3.3305	82.68127
3.331	60.22339
3.3315	43.20374
3.332	11.38
3.3325	-7.5531
3.333	-18.53027
3.3335	-29.00391
3.334	-34.34143
3.3345	-26.3855
3.335	-22.96143
3.3355	-22.76001
3.336	-24.57275
3.3365	-33.03223
3.337	-30.31311
3.3375	-35.34851
3.338	-36.55701
3.3385	-41.89453
3.339	-52.97241
3.3395	-51.96533
3.34	-45.01648
3.3405	-42.29736
3.341	-41.69312
3.3415	-50.85754
3.342	-56.90002
3.3425	-51.15967
3.343	-47.63489
3.3435	-39.57825
3.344	-38.67188
3.3445	-47.7356
3.345	-50.45471
3.3455	-42.39807
3.346	-46.32568
3.3465	-66.6687
3.347	-73.61755
3.3475	-90.43579
3.348	-115.61279
3.3485	-103.72925
3.349	-101.31226
3.3495	-94.86694
3.35	-98.89526
3.3505	-110.17456
3.351	-115.61279
3.3515	-132.93457
3.352	-139.78271
3.3525	-135.95581
3.353	-133.84094
3.3535	-129.00696
3.354	-104.03137
3.3545	-55.99365
3.355	-15.40833
3.3555	4.73328
3.356	23.06213
3.3565	48.23914
3.357	90.23438
3.3575	112.49084
3.358	140.8905
3.3585	174.62769
3.359	203.02734
3.3595	209.9762
3.36	199.50256
3.3605	183.08716
3.361	166.0675
3.3615	138.27209
3.362	118.53333
3.3625	100.70801
3.363	90.13367
3.3635	82.78198
3.364	84.19189
3.3645	81.7749
3.365	79.66003
3.3655	71.20056
3.366	71.30127
3.3665	71.09985
3.367	62.43896
3.3675	49.85046
3.368	45.62073
3.3685	33.83789
3.369	23.8678
3.3695	10.57434
3.37	10.27222
3.3705	11.17859
3.371	13.59558
3.3715	17.72461
3.372	12.5885
3.3725	12.5885
3.373	11.38
3.3735	9.06372
3.374	15.81116
3.3745	17.52319
3.375	7.65381
3.3755	6.74744
3.376	3.42407
3.3765	4.53186
3.377	-7.04956
3.3775	-3.92761
3.378	-10.47363
3.3785	-7.85522
3.379	16.21399
3.3795	34.03931
3.38	39.67896
3.3805	29.20532
3.381	20.44373
3.3815	21.45081
3.382	9.36584
3.3825	-4.43115
3.383	-26.48621
3.3835	-39.88037
3.384	-52.16675
3.3845	-59.51843
3.385	-63.94958
3.3855	-67.37366
3.386	-68.17932
3.3865	-51.26038
3.387	-27.19116
3.3875	-9.97009
3.388	-16.61682
3.3885	-16.61682
3.389	-29.20532
3.3895	-38.36975
3.39	-49.85046
3.3905	-56.49719
3.391	-54.58374
3.3915	-41.08887
3.392	-22.15576
3.3925	-2.5177
3.393	18.02673
3.3935	14.30054
3.394	16.21399
3.3945	18.93311
3.395	19.03381
3.3955	24.97559
3.396	30.31311
3.3965	40.38391
3.397	40.58533
3.3975	43.60657
3.398	40.88745
3.3985	50.2533
3.399	59.21631
3.3995	65.86304
3.4	57.30286
3.4005	41.79382
3.401	20.74585
3.4015	15.71045
3.402	3.8269
3.4025	-13.39417
3.403	-26.88904
3.4035	-29.50745
3.404	-31.72302
3.4045	-31.21948
3.405	-32.52869
3.4055	-33.73718
3.406	-34.74426
3.4065	-32.83081
3.407	-41.18958
3.4075	-67.37366
3.408	-71.09985
3.4085	-72.00623
3.409	-65.15808
3.4095	-49.0448
3.41	-47.8363
3.4105	-53.87878
3.411	-65.96375
3.4115	-59.51843
3.412	-46.12427
3.4125	-18.42957
3.413	5.53894
3.4135	35.14709
3.414	47.53418
3.4145	57.30286
3.415	72.20764
3.4155	84.09119
3.416	79.35791
3.4165	77.84729
3.417	68.28003
3.4175	68.58215
3.418	69.38782
3.4185	62.64038
3.419	53.67737
3.4195	48.13843
3.42	42.09595
3.4205	39.07471
3.421	43.80798
3.4215	48.84338
3.422	42.90161
3.4225	43.30444
3.423	55.18799
3.4235	47.03064
3.424	48.54126
3.4245	78.75366
3.425	91.04004
3.4255	67.67578
3.426	30.81665
3.4265	-1.40991
3.427	-49.14551
3.4275	-92.34924
3.428	-123.36731
3.4285	-142.30042
3.429	-145.22095
3.4295	-138.77563
3.43	-125.07935
3.4305	-99.90234
3.431	-70.49561
3.4315	-58.51135
3.432	-57.00073
3.4325	-49.95117
3.433	-47.13135
3.4335	-38.26904
3.434	-20.54443
3.4345	-7.5531
3.435	5.74036
3.4355	3.8269
3.436	1.3092
3.4365	-4.02832
3.437	6.14319
3.4375	21.24939
3.438	33.53577
3.4385	51.46179
3.439	65.76233
3.4395	76.33667
3.44	100.40588
3.4405	140.48767
3.441	162.64343
3.4415	175.43335
3.442	167.98096
3.4425	157.30591
3.443	111.78589
3.4435	60.82764
3.444	0.10071
3.4445	-35.65063
3.445	-60.52551
3.4455	-73.11401
3.446	-87.41455
3.4465	-86.60889
3.447	-88.52234
3.4475	-97.58606
3.448	-103.72925
3.4485	-111.78589
3.449	-112.59155
3.4495	-112.69226
3.45	-17.01965
3.4505	62.33826
3.451	112.28943
3.4515	136.96289
3.452	135.8551
3.4525	125.18005
3.453	97.08252
3.4535	61.02905
3.454	20.34302
3.4545	-14.70337
3.455	-52.36816
3.4555	-82.68127
3.456	-90.73792
3.4565	-90.5365
3.457	-73.01331
3.4575	-49.64905
3.458	-36.05347
3.4585	-21.04797
3.459	7.75452
3.4595	36.25488
3.46	68.88428
3.4605	88.92517
3.461	111.18164
3.4615	134.34448
3.462	120.44678
3.4625	112.08801
3.463	96.47827
3.4635	95.47119
3.464	94.06128
3.4645	89.328
3.465	94.2627
3.4655	82.17773
3.466	69.28711
3.4665	63.74817
3.467	60.4248
3.4675	55.2887
3.468	36.4563
3.4685	14.09912
3.469	-9.26514
3.4695	-43.90869
3.47	-52.56958
3.4705	-59.51843
3.471	-69.38782
3.4715	-87.21313
3.472	-104.13208
3.4725	-107.85828
3.473	-44.0094
3.4735	31.21948
3.474	68.98499
3.4745	66.16516
3.475	47.8363
3.4755	10.77576
3.476	-48.64197
3.4765	-100.70801
3.477	-173.62061
3.4775	-230.41992
3.478	-248.44666
3.4785	-238.67798
3.479	-213.8031
3.4795	-183.18787
3.48	-140.28625
3.4805	-91.94641
3.481	-51.66321
3.4815	-18.02673
3.482	5.43823
3.4825	37.86621
3.483	62.74109
3.4835	91.34216
3.484	97.68677
3.4845	100.20447
3.485	102.92358
3.4855	107.15332
3.486	104.3335
3.4865	114.70642
3.487	121.35315
3.4875	163.14697
3.488	206.45142
3.4885	210.0769
3.489	190.13672
3.4895	162.13989
3.49	120.7489
3.4905	86.70959
3.491	78.25012
3.4915	45.62073
3.492	4.33044
3.4925	-42.59949
3.493	-78.04871
3.4935	-91.94641
3.494	-103.02429
3.4945	-117.72766
3.495	-109.87244
3.4955	-79.05579
3.496	-74.42322
3.4965	-71.90552
3.497	-70.49561
3.4975	-52.771
3.498	-53.07312
3.4985	-55.49011
3.499	-60.12268
3.4995	-72.50977
3.5	-78.35083
3.5005	-67.47437
3.501	-55.18799
3.5015	-27.79541
3.502	-15.71045
3.5025	-5.33752
3.503	9.56726
3.5035	24.57275
3.504	38.26904
3.5045	72.50977
3.505	102.92358
3.5055	122.36023
3.506	106.75049
3.5065	84.69543
3.507	63.54675
3.5075	44.31152
3.508	28.29895
3.5085	31.72302
3.509	27.29187
3.5095	22.76001
3.51	19.03381
3.5105	30.41382
3.511	44.91577
3.5115	55.18799
3.512	70.59631
3.5125	79.76074
3.513	78.25012
3.5135	65.96375
3.514	58.71277
3.5145	45.2179
3.515	47.43347
3.5155	40.08179
3.516	34.24072
3.5165	44.0094
3.517	56.79932
3.5175	54.28162
3.518	43.30444
3.5185	25.78125
3.519	29.10461
3.5195	97.98889
3.52	172.10999
3.5205	206.35071
3.521	202.72522
3.5215	159.42078
3.522	89.328
3.5225	11.07788
3.523	-52.46887
3.5235	-99.3988
3.524	-97.48535
3.5245	-98.99597
3.525	-104.93774
3.5255	-110.07385
3.526	-113.69934
3.5265	-82.37915
3.527	-20.84656
3.5275	12.5885
3.528	17.82532
3.5285	16.01257
3.529	-1.00708
3.5295	-44.31152
3.53	-89.42871
3.5305	-135.04944
3.531	-160.22644
3.5315	-184.79919
3.532	-209.17053
3.5325	-209.27124
3.533	-198.49548
3.5335	-186.20911
3.534	-163.95264
3.5345	-126.69067
3.535	-87.81738
3.5355	-45.92285
3.536	-12.5885
3.5365	30.71594
3.537	60.3241
3.5375	70.09277
3.538	79.86145
3.5385	88.52234
3.539	94.76624
3.5395	98.19031
3.54	92.95349
3.5405	81.06995
3.541	67.8772
3.5415	48.33984
3.542	32.52869
3.5425	12.99133
3.543	6.94885
3.5435	-4.53186
3.544	-11.88354
3.5445	-12.08496
3.545	-11.38
3.5455	4.02832
3.546	11.58142
3.5465	-5.63965
3.547	-17.22107
3.5475	-28.50037
3.548	-37.66479
3.5485	-45.52002
3.549	11.78284
3.5495	122.05811
3.55	186.71265
3.5505	199.60327
3.551	153.3783
3.5515	105.44128
3.552	29.60815
3.5525	-75.02747
3.553	-177.44751
3.5535	-260.22949
3.554	-305.5481
3.5545	-336.66687
3.555	-347.1405
3.5555	-321.76208
3.556	-284.39941
3.5565	-228.50647
3.557	-158.4137
3.5575	-80.86853
3.558	-6.54602
3.5585	57.20215
3.559	113.29651
3.5595	141.19263
3.56	161.43494
3.5605	172.91565
3.561	177.04468
3.5615	189.43176
3.562	187.51831
3.5625	175.93689
3.563	146.12732
3.5635	132.93457
3.564	140.58838
3.5645	167.67883
3.565	156.80237
3.5655	131.62537
3.566	99.2981
3.5665	72.40906
3.567	51.15967
3.5675	31.82373
3.568	46.32568
3.5685	95.47119
3.569	216.92505
3.5695	277.34985
3.57	275.13428
3.5705	238.9801
3.571	188.72681
3.5715	139.78271
3.572	75.32959
3.5725	-5.43823
3.573	-72.00623
3.5735	-110.17456
3.574	-145.12024
3.5745	-191.54663
3.575	-208.86841
3.5755	-204.23584
3.576	-181.47583
3.5765	-151.56555
3.577	-101.21155
3.5775	-51.46179
3.578	-13.09204
3.5785	3.52478
3.579	17.01965
3.5795	26.48621
3.58	8.05664
3.5805	-12.78992
3.581	-14.50195
3.5815	-3.32336
3.582	13.99841
3.5825	32.83081
3.583	36.75842
3.5835	45.2179
3.584	60.02197
3.5845	69.68994
3.585	66.6687
3.5855	44.91577
3.586	18.63098
3.5865	-8.15735
3.587	-40.98816
3.5875	-40.2832
3.588	21.85364
3.5885	128.40271
3.589	215.21301
3.5895	236.05957
3.59	199.20044
3.5905	116.21704
3.591	16.21399
3.5915	-64.75525
3.592	-126.79138
3.5925	-174.22485
3.593	-186.51123
3.5935	-169.08875
3.594	-143.3075
3.5945	-115.10925
3.595	-76.63879
3.5955	-46.62781
3.596	-12.5885
3.5965	26.48621
3.597	52.56958
3.5975	39.88037
3.598	6.2439
3.5985	-25.98267
3.599	-52.36816
3.5995	-52.771
3.6	-50.65613
3.6005	-47.8363
3.601	-43.80798
3.6015	-40.08179
3.602	-22.6593
3.6025	0.20142
3.603	18.42957
3.6035	36.4563
3.604	47.53418
3.6045	65.05737
3.605	69.99207
3.6055	78.25012
3.606	80.96924
3.6065	85.80322
3.607	82.68127
3.6075	90.83862
3.608	81.7749
3.6085	68.78357
3.609	59.41772
3.6095	56.69861
3.61	60.4248
3.6105	65.96375
3.611	75.22888
3.6115	71.50269
3.612	51.66321
3.6125	22.25647
3.613	-11.38
3.6135	-32.22656
3.614	-47.33276
3.6145	-43.60657
3.615	-46.72852
3.6155	-42.19666
3.616	-42.29736
3.6165	-33.73718
3.617	-23.06213
3.6175	-10.67505
3.618	-3.62549
3.6185	7.75452
3.619	5.84106
3.6195	9.36584
3.62	-6.74744
3.6205	0
3.621	6.84814
3.6215	21.65222
3.622	33.83789
3.6225	44.0094
3.623	45.72144
3.6235	42.59949
3.624	39.27612
3.6245	26.3855
3.625	21.04797
3.6255	13.19275
3.626	11.48071
3.6265	1.00708
3.627	-6.64673
3.6275	-17.42249
3.628	-21.3501
3.6285	-5.63965
3.629	-4.22974
3.6295	-1.00708
3.63	-7.35168
3.6305	-18.42957
3.631	-29.00391
3.6315	-1.3092
3.632	49.74976
3.6325	82.78198
3.633	91.14075
3.6335	76.33667
3.634	51.96533
3.6345	30.11169
3.635	-7.95593
3.6355	-69.38782
3.636	-108.26111
3.6365	-84.89685
3.637	-84.09119
3.6375	-102.21863
3.638	-116.31775
3.6385	-119.13757
3.639	-122.76306
3.6395	-73.81897
3.64	-49.64905
3.6405	-46.5271
3.641	-58.51135
3.6415	-68.38074
3.642	-58.00781
3.6425	-64.151
3.643	-61.23047
3.6435	-43.90869
3.644	-14.60266
3.6445	31.4209
3.645	68.58215
3.6455	102.52075
3.646	143.00537
3.6465	185.80627
3.647	218.03284
3.6475	221.45691
3.648	199.20044
3.6485	162.44202
3.649	112.08801
3.6495	66.87012
3.65	24.97559
3.6505	-23.66638
3.651	-68.48145
3.6515	-97.68677
3.652	-106.14624
3.6525	-97.78748
3.653	-82.37915
3.6535	-62.33826
3.654	-52.26746
3.6545	-35.2478
3.655	-11.38
3.6555	11.17859
3.656	28.60107
3.6565	27.59399
3.657	49.24622
3.6575	74.12109
3.658	95.97473
3.6585	105.13916
3.659	91.745
3.6595	77.44446
3.66	60.62622
3.6605	50.354
3.661	43.70728
3.6615	31.72302
3.662	25.47913
3.6625	15.30762
3.663	-16.61682
3.6635	-39.37683
3.664	-44.61365
3.6645	-44.51294
3.665	-43.60657
3.6655	-31.72302
3.666	-36.4563
3.6665	-33.03223
3.667	-27.39258
3.6675	-24.97559
3.668	-42.29736
3.6685	-137.86926
3.669	-197.08557
3.6695	-208.56628
3.67	-190.33813
3.6705	-188.42468
3.671	-191.94946
3.6715	-191.34521
3.672	-181.27441
3.6725	-155.9967
3.673	-134.5459
3.6735	-134.84802
3.674	-112.18872
3.6745	-105.34058
3.675	-107.55615
3.6755	-82.9834
3.676	-48.74268
3.6765	-7.25098
3.677	54.68445
3.6775	104.93774
3.678	160.52856
3.6785	187.51831
3.679	172.81494
3.6795	136.66077
3.68	114.80713
3.6805	105.94482
3.681	113.80005
3.6815	112.59155
3.682	105.6427
3.6825	107.65686
3.683	111.28235
3.6835	117.02271
3.684	100.30518
3.6845	90.93933
3.685	83.38623
3.6855	78.14941
3.686	77.64587
3.6865	71.20056
3.687	64.45312
3.6875	60.12268
3.688	62.9425
3.6885	80.66711
3.689	76.7395
3.6895	46.12427
3.69	14.60266
3.6905	-10.67505
3.691	-17.12036
3.6915	-34.03931
3.692	-45.41931
3.6925	-51.05896
3.693	-45.01648
3.6935	-25.177
3.694	-2.21558
3.6945	22.76001
3.695	32.93152
3.6955	38.47046
3.696	32.7301
3.6965	31.92444
3.697	30.2124
3.6975	29.50745
3.698	25.07629
3.6985	18.32886
3.699	1.3092
3.6995	-5.74036
3.7	-5.74036
3.7005	-15.30762
3.701	-39.67896
3.7015	-47.93701
3.702	-54.48303
3.7025	-52.36816
3.703	-79.15649
3.7035	-113.80005
3.704	-135.55298
3.7045	-90.5365
3.705	81.97632
3.7055	202.22168
3.706	226.29089
3.7065	169.18945
3.707	110.27527
3.7075	121.65527
3.708	122.96448
3.7085	128.50342
3.709	114.505
3.7095	79.86145
3.71	37.86621
3.7105	2.21558
3.711	-10.67505
3.7115	-38.67188
3.712	-65.3595
3.7125	-72.9126
3.713	-48.23914
3.7135	-27.59399
3.714	-64.95667
3.7145	-80.96924
3.715	-69.1864
3.7155	-39.77966
3.716	-17.42249
3.7165	-32.12585
3.717	-51.26038
3.7175	-17.52319
3.718	33.63647
3.7185	73.51685
3.719	95.47119
3.7195	111.8866
3.72	116.72058
3.7205	118.02979
3.721	126.38855
3.7215	101.31226
3.722	69.08569
3.7225	35.65063
3.723	58.61206
3.7235	79.76074
3.724	56.5979
3.7245	20.24231
3.725	-6.84814
3.7255	-49.54834
3.726	-82.17773
3.7265	-96.47827
3.727	-110.77881
3.7275	-131.72607
3.728	-135.45227
3.7285	-122.05811
3.729	-97.38464
3.7295	-74.2218
3.73	-51.5625
3.7305	-20.54443
3.731	36.95984
3.7315	53.27454
3.732	0.60425
3.7325	-44.11011
3.733	-67.97791
3.7335	-82.37915
3.734	-87.81738
3.7345	-98.49243
3.735	-112.49084
3.7355	-121.85669
3.736	-132.0282
3.7365	-126.58997
3.737	-125.88501
3.7375	-122.15881
3.738	-107.85828
3.7385	-87.31384
3.739	-41.39099
3.7395	12.18567
3.74	65.66162
3.7405	104.03137
3.741	126.18713
3.7415	130.21545
3.742	104.13208
3.7425	79.96216
3.743	77.84729
3.7435	72.50977
3.744	47.13135
3.7445	2.92053
3.745	-40.48462
3.7455	-50.95825
3.746	-51.26038
3.7465	-37.46338
3.747	-11.48071
3.7475	14.60266
3.748	11.58142
3.7485	20.1416
3.749	-16.81824
3.7495	-129.40979
3.75	-280.4718
3.7505	-377.35291
3.751	-374.13025
3.7515	-342.20581
3.752	-331.43005
3.7525	-295.17517
3.753	-259.52454
3.7535	-223.26965
3.754	-130.61829
3.7545	-33.53577
3.755	39.07471
3.7555	97.98889
3.756	137.86926
3.7565	163.5498
3.757	185.70557
3.7575	191.34521
3.758	203.63159
3.7585	227.80151
3.759	249.15161
3.7595	267.48047
3.76	278.55835
3.7605	266.47339
3.761	217.83142
3.7615	153.98254
3.762	96.17615
3.7625	41.79382
3.763	8.7616
3.7635	-14.40125
3.764	-17.22107
3.7645	-15.00549
3.765	2.81982
3.7655	26.48621
3.766	44.31152
3.7665	53.57666
3.767	62.43896
3.7675	110.6781
3.768	160.72998
3.7685	186.81335
3.769	174.12415
3.7695	141.39404
3.77	101.21155
3.7705	72.9126
3.771	32.42798
3.7715	-5.63965
3.772	-38.67188
3.7725	-33.13293
3.773	62.23755
3.7735	202.02026
3.774	287.21924
3.7745	294.47021
3.775	255.69763
3.7755	181.17371
3.776	112.89368
3.7765	52.8717
3.777	-45.72144
3.7775	-134.5459
3.778	-188.22327
3.7785	-214.81018
3.779	-215.31372
3.7795	-171.90857
3.78	-129.5105
3.7805	-116.61987
3.781	-185.90698
3.7815	-255.19409
3.782	-269.0918
3.7825	-216.11938
3.783	-197.18628
3.7835	-191.84875
3.784	-139.68201
3.7845	-136.35864
3.785	-162.34131
3.7855	-122.96448
3.786	20.44373
3.7865	210.0769
3.787	341.80298
3.7875	381.58264
3.788	347.74475
3.7885	257.61108
3.789	166.97388
3.7895	85.90393
3.79	43.60657
3.7905	4.12903
3.791	-0.80566
3.7915	19.03381
3.792	24.16992
3.7925	-3.02124
3.793	-85.19897
3.7935	-127.79846
3.794	-109.77173
3.7945	-52.8717
3.795	26.18408
3.7955	108.46252
3.796	187.82043
3.7965	222.16187
3.797	203.93372
3.7975	149.6521
3.798	73.51685
3.7985	-30.01099
3.799	-115.51208
3.7995	-170.49866
3.8	-198.49548
3.8005	-204.03442
3.801	-204.33655
3.8015	-146.93298
3.802	-92.04712
3.8025	-22.05505
3.803	50.2533
3.8035	102.72217
3.804	86.20605
3.8045	37.36267
3.805	-36.25488
3.8055	-91.8457
3.806	-128.50342
3.8065	-73.91968
3.807	18.93311
3.8075	77.84729
3.808	111.18164
3.8085	155.79529
3.809	216.82434
3.8095	273.92578
3.81	298.39783
3.8105	301.62048
3.811	258.71887
3.8115	177.04468
3.812	62.33826
3.8125	-31.72302
3.813	-39.67896
3.8135	-11.78284
3.814	18.63098
3.8145	36.95984
3.815	45.01648
3.8155	50.55542
3.816	34.34143
3.8165	38.06763
3.817	12.38708
3.8175	-8.56018
3.818	-44.11011
3.8185	-90.33508
3.819	-133.53882
3.8195	-161.63635
3.82	-180.77087
3.8205	-170.19653
3.821	-168.28308
3.8215	-145.22095
3.822	-105.6427
3.8225	-95.87402
3.823	-93.75916
3.8235	-137.96997
3.824	-183.38928
3.8245	-179.8645
3.825	-124.27368
3.8255	-35.65063
3.826	28.50037
3.8265	63.34534
3.827	49.34692
3.8275	31.01807
3.828	16.21399
3.8285	14.70337
3.829	10.87646
3.8295	-2.92053
3.83	-24.87488
3.8305	-42.29736
3.831	-45.82214
3.8315	-43.80798
3.832	-31.62231
3.8325	-32.83081
3.833	-15.00549
3.8335	-1.71204
3.834	-4.83398
3.8345	-23.16284
3.835	-49.14551
3.8355	-50.65613
3.836	-41.18958
3.8365	-30.51453
3.837	-31.32019
3.8375	-7.45239
3.838	15.50903
3.8385	-6.2439
3.839	-17.52319
3.8395	6.74744
3.84	36.35559
3.8405	41.59241
3.841	-2.61841
3.8415	9.66797
3.842	64.05029
3.8425	87.91809
3.843	99.09668
3.8435	77.14233
3.844	30.91736
3.8445	18.93311
3.845	-5.23682
3.8455	-47.13135
3.846	-74.92676
3.8465	-40.1825
3.847	14.09912
3.8475	103.32642
3.848	237.46948
3.8485	346.33484
3.849	368.59131
3.8495	324.38049
3.85	238.67798
3.8505	167.276
3.851	98.29102
3.8515	134.34448
3.852	220.95337
3.8525	252.87781
3.853	239.98718
3.8535	200.10681
3.854	126.48926
3.8545	44.41223
3.855	-47.53418
3.8555	-108.1604
3.856	-145.32166
3.8565	-173.41919
3.857	-189.33105
3.8575	-221.85974
3.858	-232.33337
3.8585	-230.72205
3.859	-227.80151
3.8595	-213.19885
3.86	-188.12256
3.8605	-188.52539
3.861	-150.05493
3.8615	-125.07935
3.862	-46.02356
3.8625	3.42407
3.863	15.71045
