Daniele_De_Santis_Right_1.c3d  



Time(s):	B_L_bicipite(μV):
0	2.5177
0.0005	6.54602
0.001	8.25806
0.0015	30.31311
0.002	43.60657
0.0025	49.44763
0.003	44.91577
0.0035	38.67188
0.004	34.84497
0.0045	19.94019
0.005	12.08496
0.0055	-1.10779
0.006	-3.02124
0.0065	-6.74744
0.007	-5.94177
0.0075	-0.10071
0.008	-0.40283
0.0085	0.50354
0.009	1.00708
0.0095	-7.35168
0.01	-7.35168
0.0105	-13.29346
0.011	-11.78284
0.0115	-18.42957
0.012	-20.54443
0.0125	-24.67346
0.013	-24.16992
0.0135	-15.60974
0.014	-13.49487
0.0145	-11.17859
0.015	-16.61682
0.0155	-10.67505
0.016	-9.26514
0.0165	-1.51062
0.017	-1.51062
0.0175	3.8269
0.018	8.35876
0.0185	5.63965
0.019	14.40125
0.0195	15.00549
0.02	16.51611
0.0205	8.8623
0.021	7.35168
0.0215	10.37292
0.022	4.02832
0.0225	4.33044
0.023	-1.81274
0.0235	0.80566
0.024	1.91345
0.0245	-7.04956
0.025	0.10071
0.0255	7.65381
0.026	12.28638
0.0265	9.97009
0.027	12.5885
0.0275	6.94885
0.028	1.2085
0.0285	-3.42407
0.029	3.12195
0.0295	-8.7616
0.03	-4.12903
0.0305	-8.45947
0.031	-9.26514
0.0315	-7.65381
0.032	-9.16443
0.0325	5.23682
0.033	3.52478
0.0335	4.12903
0.034	14.70337
0.0345	9.26514
0.035	8.8623
0.0355	8.7616
0.036	4.83398
0.0365	5.0354
0.037	5.43823
0.0375	-2.71912
0.038	0.80566
0.0385	6.14319
0.039	13.99841
0.0395	13.49487
0.04	11.78284
0.0405	10.97717
0.041	11.07788
0.0415	5.33752
0.042	5.33752
0.0425	4.53186
0.043	6.04248
0.0435	11.68213
0.044	11.68213
0.0445	8.7616
0.045	-2.31628
0.0455	-2.61841
0.046	1.10779
0.0465	-0.60425
0.047	0.70496
0.0475	-1.10779
0.048	7.15027
0.0485	13.69629
0.049	7.5531
0.0495	6.2439
0.05	5.74036
0.0505	7.75452
0.051	9.26514
0.0515	9.86938
0.052	7.04956
0.0525	8.15735
0.053	11.68213
0.0535	8.66089
0.054	5.94177
0.0545	8.35876
0.055	4.93469
0.0555	5.23682
0.056	-0.30212
0.0565	-7.15027
0.057	-13.89771
0.0575	-11.17859
0.058	-14.80408
0.0585	-6.74744
0.059	-12.38708
0.0595	-1.51062
0.06	-1.00708
0.0605	6.04248
0.061	9.86938
0.0615	2.01416
0.062	3.22266
0.0625	2.92053
0.063	1.91345
0.0635	-7.85522
0.064	-7.15027
0.0645	-5.74036
0.065	-1.10779
0.0655	-0.20142
0.066	0.60425
0.0665	-1.51062
0.067	-7.04956
0.0675	-7.04956
0.068	-5.0354
0.0685	-1.81274
0.069	-5.33752
0.0695	-1.61133
0.07	5.23682
0.0705	9.16443
0.071	17.12036
0.0715	17.92603
0.072	21.24939
0.0725	23.36426
0.073	25.68054
0.0735	26.78833
0.074	24.77417
0.0745	23.76709
0.075	22.55859
0.0755	21.55151
0.076	21.75293
0.0765	15.91187
0.077	14.19983
0.0775	9.56726
0.078	2.71912
0.0785	-3.12195
0.079	-6.94885
0.0795	-6.64673
0.08	-6.64673
0.0805	0
0.081	3.42407
0.0815	-0.40283
0.082	-1.40991
0.0825	-1.40991
0.083	-5.13611
0.0835	-1.00708
0.084	1.40991
0.0845	6.74744
0.085	13.89771
0.0855	14.30054
0.086	15.50903
0.0865	7.75452
0.087	4.02832
0.0875	-6.74744
0.088	-8.96301
0.0885	-15.81116
0.089	-23.76709
0.0895	-26.58691
0.09	-34.03931
0.0905	-37.56409
0.091	-33.9386
0.0915	-26.68762
0.092	-15.20691
0.0925	-9.86938
0.093	-3.32336
0.0935	-0.60425
0.094	5.63965
0.0945	11.38
0.095	9.97009
0.0955	10.47363
0.096	12.08496
0.0965	10.27222
0.097	5.43823
0.0975	11.88354
0.098	13.99841
0.0985	20.44373
0.099	26.78833
0.0995	24.57275
0.1	17.52319
0.1005	12.68921
0.101	9.66797
0.1015	5.84106
0.102	2.21558
0.1025	-2.81982
0.103	-11.68213
0.1035	-8.25806
0.104	-11.48071
0.1045	-12.89062
0.105	-6.64673
0.1055	-11.78284
0.106	-10.27222
0.1065	-6.04248
0.107	3.52478
0.1075	12.89062
0.108	13.09204
0.1085	14.60266
0.109	7.25098
0.1095	10.0708
0.11	8.56018
0.1105	1.00708
0.111	1.81274
0.1115	4.93469
0.112	-2.5177
0.1125	-3.02124
0.113	-9.46655
0.1135	-10.0708
0.114	0.40283
0.1145	9.26514
0.115	16.11328
0.1155	37.56409
0.116	42.90161
0.1165	36.15417
0.117	28.19824
0.1175	15.30762
0.118	8.56018
0.1185	0.40283
0.119	-10.87646
0.1195	-23.16284
0.12	-31.21948
0.1205	-45.72144
0.121	-37.26196
0.1215	-33.63647
0.122	-22.96143
0.1225	-15.71045
0.123	-12.78992
0.1235	-8.45947
0.124	4.83398
0.1245	6.94885
0.125	5.23682
0.1255	4.83398
0.126	0.90637
0.1265	-0.30212
0.127	-5.94177
0.1275	-5.0354
0.128	-5.0354
0.1285	-2.11487
0.129	0.60425
0.1295	-0.80566
0.13	9.86938
0.1305	13.39417
0.131	19.23523
0.1315	17.42249
0.132	21.65222
0.1325	16.91895
0.133	17.92603
0.1335	14.60266
0.134	24.37134
0.1345	19.83948
0.135	15.30762
0.1355	12.28638
0.136	8.7616
0.1365	13.29346
0.137	10.57434
0.1375	9.06372
0.138	2.01416
0.1385	3.42407
0.139	-3.02124
0.1395	1.3092
0.14	5.84106
0.1405	11.58142
0.141	8.96301
0.1415	4.73328
0.142	3.92761
0.1425	5.13611
0.143	4.73328
0.1435	6.94885
0.144	12.08496
0.1445	7.65381
0.145	7.15027
0.1455	5.0354
0.146	4.33044
0.1465	1.71204
0.147	0.50354
0.1475	-2.21558
0.148	-3.22266
0.1485	0.20142
0.149	2.01416
0.1495	1.2085
0.15	2.41699
0.1505	3.8269
0.151	3.92761
0.1515	-4.73328
0.152	-0.10071
0.1525	6.14319
0.153	8.7616
0.1535	12.08496
0.154	6.14319
0.1545	5.74036
0.155	4.73328
0.1555	-3.32336
0.156	-2.11487
0.1565	-5.53894
0.157	-5.94177
0.1575	-1.91345
0.158	8.56018
0.1585	6.2439
0.159	9.06372
0.1595	0.20142
0.16	6.44531
0.1605	7.75452
0.161	5.33752
0.1615	-0.10071
0.162	6.04248
0.1625	2.31628
0.163	5.63965
0.1635	2.31628
0.164	6.64673
0.1645	5.84106
0.165	4.53186
0.1655	-2.5177
0.166	-0.40283
0.1665	-2.92053
0.167	2.01416
0.1675	7.25098
0.168	7.15027
0.1685	3.32336
0.169	3.22266
0.1695	1.71204
0.17	7.5531
0.1705	6.54602
0.171	5.63965
0.1715	5.33752
0.172	6.54602
0.1725	6.84814
0.173	10.97717
0.1735	6.84814
0.174	6.94885
0.1745	5.33752
0.175	3.52478
0.1755	8.56018
0.176	7.5531
0.1765	6.44531
0.177	6.44531
0.1775	6.64673
0.178	2.5177
0.1785	8.35876
0.179	1.61133
0.1795	2.21558
0.18	-0.60425
0.1805	0.50354
0.181	-2.41699
0.1815	-3.02124
0.182	-1.51062
0.1825	-3.02124
0.183	1.81274
0.1835	4.22974
0.184	7.5531
0.1845	8.05664
0.185	10.0708
0.1855	6.44531
0.186	6.94885
0.1865	4.43115
0.187	3.12195
0.1875	5.13611
0.188	11.88354
0.1885	7.35168
0.189	9.26514
0.1895	4.93469
0.19	12.78992
0.1905	5.53894
0.191	6.2439
0.1915	-4.33044
0.192	-7.65381
0.1925	-11.68213
0.193	-18.53027
0.1935	-19.53735
0.194	-12.38708
0.1945	-12.18567
0.195	-7.04956
0.1955	-6.64673
0.196	-6.94885
0.1965	-6.54602
0.197	-3.22266
0.1975	-3.12195
0.198	1.81274
0.1985	-4.22974
0.199	3.52478
0.1995	6.44531
0.2	10.0708
0.2005	11.17859
0.201	7.85522
0.2015	13.99841
0.202	12.48779
0.2025	18.02673
0.203	18.73169
0.2035	19.03381
0.204	17.82532
0.2045	18.42957
0.205	17.01965
0.2055	13.29346
0.206	8.96301
0.2065	18.22815
0.207	13.39417
0.2075	2.11487
0.208	2.61841
0.2085	-2.31628
0.209	-6.14319
0.2095	-18.63098
0.21	-21.95435
0.2105	-19.03381
0.211	-17.12036
0.2115	-13.09204
0.212	-10.47363
0.2125	-3.8269
0.213	-7.75452
0.2135	-1.2085
0.214	0.90637
0.2145	-0.70496
0.215	3.22266
0.2155	-0.80566
0.216	5.43823
0.2165	3.02124
0.217	6.04248
0.2175	10.17151
0.218	8.96301
0.2185	18.8324
0.219	21.95435
0.2195	28.9032
0.22	32.62939
0.2205	36.55701
0.221	37.96692
0.2215	37.86621
0.222	35.34851
0.2225	36.55701
0.223	29.50745
0.2235	22.76001
0.224	17.22107
0.2245	1.61133
0.225	5.84106
0.2255	0.10071
0.226	-9.76868
0.2265	-4.93469
0.227	-10.0708
0.2275	-10.0708
0.228	-8.25806
0.2285	-4.33044
0.229	-4.53186
0.2295	-5.63965
0.23	-7.95593
0.2305	-3.02124
0.231	-10.77576
0.2315	-1.00708
0.232	-1.40991
0.2325	-2.81982
0.233	-5.33752
0.2335	-7.15027
0.234	0.40283
0.2345	-0.90637
0.235	4.22974
0.2355	-0.20142
0.236	7.25098
0.2365	2.92053
0.237	-1.40991
0.2375	1.00708
0.238	9.26514
0.2385	7.75452
0.239	15.60974
0.2395	22.45789
0.24	21.85364
0.2405	25.78125
0.241	18.32886
0.2415	15.00549
0.242	14.19983
0.2425	6.2439
0.243	11.88354
0.2435	13.59558
0.244	11.58142
0.2445	13.59558
0.245	11.07788
0.2455	12.48779
0.246	7.65381
0.2465	4.93469
0.247	5.13611
0.2475	4.33044
0.248	3.42407
0.2485	5.53894
0.249	5.84106
0.2495	4.83398
0.25	5.23682
0.2505	2.61841
0.251	3.62549
0.2515	8.56018
0.252	2.61841
0.2525	-1.00708
0.253	-0.90637
0.2535	4.33044
0.254	-0.90637
0.2545	-0.40283
0.255	-0.50354
0.2555	-3.62549
0.256	-3.42407
0.2565	-0.50354
0.257	-1.71204
0.2575	-1.40991
0.258	-3.32336
0.2585	-1.61133
0.259	-0.30212
0.2595	1.00708
0.26	-1.10779
0.2605	3.42407
0.261	6.14319
0.2615	4.22974
0.262	3.32336
0.2625	5.23682
0.263	6.04248
0.2635	5.33752
0.264	-0.70496
0.2645	3.92761
0.265	0
0.2655	-2.21558
0.266	-0.60425
0.2665	3.52478
0.267	1.3092
0.2675	2.21558
0.268	-0.50354
0.2685	4.53186
0.269	5.33752
0.2695	5.43823
0.27	7.25098
0.2705	-1.51062
0.271	0
0.2715	5.94177
0.272	5.63965
0.2725	7.65381
0.273	4.93469
0.2735	10.37292
0.274	3.52478
0.2745	4.63257
0.275	2.71912
0.2755	-0.60425
0.276	7.04956
0.2765	6.3446
0.277	4.02832
0.2775	7.25098
0.278	7.75452
0.2785	4.43115
0.279	6.94885
0.2795	12.99133
0.28	10.97717
0.2805	6.54602
0.281	2.81982
0.2815	14.09912
0.282	5.33752
0.2825	3.22266
0.283	-0.80566
0.2835	-2.01416
0.284	-6.44531
0.2845	-7.15027
0.285	-3.52478
0.2855	0.10071
0.286	-7.85522
0.2865	-10.37292
0.287	-5.13611
0.2875	-4.33044
0.288	-6.74744
0.2885	-7.95593
0.289	-2.5177
0.2895	-4.63257
0.29	-2.01416
0.2905	2.81982
0.291	2.5177
0.2915	-1.71204
0.292	3.12195
0.2925	5.63965
0.293	7.25098
0.2935	3.92761
0.294	-0.60425
0.2945	0.60425
0.295	3.32336
0.2955	2.31628
0.296	4.63257
0.2965	6.14319
0.297	5.23682
0.2975	-0.40283
0.298	0.40283
0.2985	9.36584
0.299	11.58142
0.2995	10.17151
0.3	11.07788
0.3005	5.43823
0.301	6.54602
0.3015	10.67505
0.302	12.38708
0.3025	18.22815
0.303	11.07788
0.3035	4.73328
0.304	3.22266
0.3045	6.64673
0.305	6.64673
0.3055	3.02124
0.306	3.12195
0.3065	-0.10071
0.307	3.62549
0.3075	12.48779
0.308	8.66089
0.3085	9.56726
0.309	11.58142
0.3095	12.38708
0.31	9.36584
0.3105	11.2793
0.311	8.05664
0.3115	3.22266
0.312	0.30212
0.3125	2.21558
0.313	3.8269
0.3135	-2.01416
0.314	-1.81274
0.3145	-6.84814
0.315	-4.93469
0.3155	-8.8623
0.316	-8.25806
0.3165	-15.50903
0.317	-13.59558
0.3175	-11.68213
0.318	-9.97009
0.3185	-8.56018
0.319	0.90637
0.3195	2.01416
0.32	6.3446
0.3205	1.3092
0.321	-5.63965
0.3215	-0.10071
0.322	0.10071
0.3225	-1.10779
0.323	-0.60425
0.3235	1.10779
0.324	7.04956
0.3245	7.75452
0.325	11.68213
0.3255	7.85522
0.326	3.22266
0.3265	-1.3092
0.327	-0.40283
0.3275	6.94885
0.328	9.56726
0.3285	9.66797
0.329	6.3446
0.3295	10.27222
0.33	15.40833
0.3305	11.07788
0.331	10.17151
0.3315	14.60266
0.332	13.797
0.3325	15.60974
0.333	15.40833
0.3335	5.43823
0.334	6.04248
0.3345	8.35876
0.335	9.06372
0.3355	3.62549
0.336	3.92761
0.3365	0.20142
0.337	-5.0354
0.3375	-6.44531
0.338	-1.91345
0.3385	-4.33044
0.339	4.43115
0.3395	4.12903
0.34	-4.63257
0.3405	-6.2439
0.341	-3.02124
0.3415	-9.86938
0.342	-7.35168
0.3425	-3.92761
0.343	-3.02124
0.3435	-4.33044
0.344	-5.53894
0.3445	1.10779
0.345	2.11487
0.3455	8.25806
0.346	4.22974
0.3465	10.87646
0.347	2.01416
0.3475	0.20142
0.348	0
0.3485	1.40991
0.349	2.92053
0.3495	10.57434
0.35	5.43823
0.3505	2.5177
0.351	8.05664
0.3515	9.56726
0.352	13.69629
0.3525	12.48779
0.353	12.18567
0.3535	10.47363
0.354	17.82532
0.3545	14.50195
0.355	16.11328
0.3555	14.80408
0.356	21.45081
0.3565	23.06213
0.357	17.82532
0.3575	18.42957
0.358	15.20691
0.3585	11.2793
0.359	6.64673
0.3595	7.75452
0.36	5.43823
0.3605	2.5177
0.361	-3.52478
0.3615	-7.85522
0.362	-9.46655
0.3625	-11.38
0.363	-7.5531
0.3635	-5.53894
0.364	-8.35876
0.3645	-6.44531
0.365	-2.71912
0.3655	0.10071
0.366	4.93469
0.3665	9.46655
0.367	6.64673
0.3675	8.66089
0.368	15.20691
0.3685	13.39417
0.369	12.28638
0.3695	8.15735
0.37	14.09912
0.3705	10.47363
0.371	13.797
0.3715	8.35876
0.372	11.58142
0.3725	10.37292
0.373	4.12903
0.3735	5.74036
0.374	0.70496
0.3745	-4.12903
0.375	-2.71912
0.3755	-11.38
0.376	-8.66089
0.3765	-12.48779
0.377	-10.37292
0.3775	-6.84814
0.378	-11.58142
0.3785	-1.2085
0.379	3.32336
0.3795	5.74036
0.38	6.94885
0.3805	3.92761
0.381	5.63965
0.3815	10.27222
0.382	7.75452
0.3825	9.86938
0.383	5.74036
0.3835	7.65381
0.384	16.71753
0.3845	5.74036
0.385	11.58142
0.3855	2.5177
0.386	8.96301
0.3865	8.8623
0.387	9.97009
0.3875	4.73328
0.388	10.77576
0.3885	6.04248
0.389	4.63257
0.3895	7.75452
0.39	4.02832
0.3905	3.92761
0.391	3.02124
0.3915	4.33044
0.392	10.87646
0.3925	7.45239
0.393	11.88354
0.3935	12.28638
0.394	13.09204
0.3945	14.09912
0.395	17.42249
0.3955	13.09204
0.396	13.99841
0.3965	12.89062
0.397	8.7616
0.3975	3.7262
0.398	4.22974
0.3985	3.7262
0.399	-0.40283
0.3995	1.71204
0.4	3.92761
0.4005	11.07788
0.401	8.96301
0.4015	6.64673
0.402	3.12195
0.4025	-6.04248
0.403	-4.22974
0.4035	-3.02124
0.404	-9.76868
0.4045	-6.44531
0.405	-5.0354
0.4055	-1.71204
0.406	-4.73328
0.4065	-4.73328
0.407	-3.7262
0.4075	4.02832
0.408	-2.81982
0.4085	0.60425
0.409	3.52478
0.4095	0.50354
0.41	3.42407
0.4105	2.41699
0.411	4.02832
0.4115	4.63257
0.412	2.11487
0.4125	-0.20142
0.413	9.06372
0.4135	5.53894
0.414	6.2439
0.4145	0.90637
0.415	5.74036
0.4155	2.11487
0.416	8.7616
0.4165	3.7262
0.417	6.3446
0.4175	6.44531
0.418	10.47363
0.4185	2.61841
0.419	11.88354
0.4195	11.98425
0.42	13.19275
0.4205	10.27222
0.421	9.76868
0.4215	5.33752
0.422	11.78284
0.4225	11.48071
0.423	10.0708
0.4235	13.99841
0.424	13.29346
0.4245	6.94885
0.425	11.58142
0.4255	8.25806
0.426	9.26514
0.4265	3.32336
0.427	7.5531
0.4275	5.23682
0.428	9.16443
0.4285	12.48779
0.429	12.38708
0.4295	10.27222
0.43	6.64673
0.4305	12.99133
0.431	15.40833
0.4315	13.29346
0.432	12.08496
0.4325	10.67505
0.433	3.12195
0.4335	-0.10071
0.434	2.21558
0.4345	3.7262
0.435	-3.8269
0.4355	-0.10071
0.436	-4.12903
0.4365	-0.90637
0.437	-3.52478
0.4375	-3.42407
0.438	-6.2439
0.4385	1.61133
0.439	-1.3092
0.4395	-4.93469
0.44	1.91345
0.4405	2.01416
0.441	4.73328
0.4415	5.23682
0.442	4.12903
0.4425	5.23682
0.443	6.94885
0.4435	-0.10071
0.444	2.71912
0.4445	8.15735
0.445	3.8269
0.4455	6.44531
0.446	5.94177
0.4465	7.35168
0.447	5.63965
0.4475	10.97717
0.448	8.8623
0.4485	5.13611
0.449	9.06372
0.4495	10.27222
0.45	8.56018
0.4505	9.56726
0.451	11.48071
0.4515	15.00549
0.452	9.06372
0.4525	13.29346
0.453	5.63965
0.4535	13.797
0.454	10.47363
0.4545	9.66797
0.455	12.68921
0.4555	9.76868
0.456	12.68921
0.4565	15.20691
0.457	19.03381
0.4575	11.2793
0.458	13.19275
0.4585	11.98425
0.459	11.2793
0.4595	2.71912
0.46	2.11487
0.4605	2.92053
0.461	4.22974
0.4615	0.10071
0.462	5.74036
0.4625	10.67505
0.463	14.90479
0.4635	11.58142
0.464	9.16443
0.4645	1.3092
0.465	-4.22974
0.4655	-9.86938
0.466	-12.68921
0.4665	-8.25806
0.467	-8.45947
0.4675	-11.58142
0.468	-8.45947
0.4685	-9.86938
0.469	-9.06372
0.4695	-8.05664
0.47	-8.45947
0.4705	-6.44531
0.471	-3.62549
0.4715	3.02124
0.472	3.32336
0.4725	-1.2085
0.473	0.90637
0.4735	5.23682
0.474	2.92053
0.4745	1.2085
0.475	3.62549
0.4755	2.5177
0.476	0.70496
0.4765	0.50354
0.477	5.53894
0.4775	1.2085
0.478	8.66089
0.4785	5.53894
0.479	3.12195
0.4795	4.02832
0.48	3.42407
0.4805	9.36584
0.481	8.45947
0.4815	3.92761
0.482	7.95593
0.4825	3.02124
0.483	11.78284
0.4835	6.14319
0.484	9.46655
0.4845	6.3446
0.485	6.84814
0.4855	4.22974
0.486	5.94177
0.4865	2.31628
0.487	1.71204
0.4875	6.74744
0.488	7.15027
0.4885	11.17859
0.489	6.84814
0.4895	4.63257
0.49	4.12903
0.4905	3.32336
0.491	3.42407
0.4915	7.85522
0.492	4.22974
0.4925	9.46655
0.493	4.02832
0.4935	6.44531
0.494	0.80566
0.4945	3.32336
0.495	4.12903
0.4955	2.11487
0.496	6.64673
0.4965	8.7616
0.497	4.63257
0.4975	0.60425
0.498	1.3092
0.4985	6.14319
0.499	4.83398
0.4995	8.7616
0.5	7.5531
0.5005	8.05664
0.501	5.94177
0.5015	10.57434
0.502	13.29346
0.5025	11.07788
0.503	8.96301
0.5035	5.84106
0.504	4.83398
0.5045	9.46655
0.505	8.15735
0.5055	8.66089
0.506	15.30762
0.5065	10.47363
0.507	11.07788
0.5075	14.09912
0.508	12.89062
0.5085	15.60974
0.509	10.27222
0.5095	7.45239
0.51	8.56018
0.5105	11.88354
0.511	12.08496
0.5115	8.25806
0.512	5.53894
0.5125	6.2439
0.513	-0.60425
0.5135	0
0.514	1.00708
0.5145	-8.96301
0.515	-10.57434
0.5155	-4.02832
0.516	-4.93469
0.5165	-5.53894
0.517	-4.53186
0.5175	-3.7262
0.518	-1.91345
0.5185	-0.40283
0.519	-0.30212
0.5195	0.50354
0.52	-2.11487
0.5205	-2.61841
0.521	-0.10071
0.5215	3.12195
0.522	1.91345
0.5225	1.51062
0.523	1.91345
0.5235	4.53186
0.524	4.93469
0.5245	-0.60425
0.525	6.44531
0.5255	9.36584
0.526	2.41699
0.5265	2.92053
0.527	8.7616
0.5275	4.12903
0.528	8.15735
0.5285	6.84814
0.529	5.94177
0.5295	7.85522
0.53	2.81982
0.5305	4.33044
0.531	2.71912
0.5315	5.23682
0.532	4.63257
0.5325	11.58142
0.533	8.25806
0.5335	4.02832
0.534	1.00708
0.5345	9.76868
0.535	3.52478
0.5355	5.23682
0.536	7.25098
0.5365	6.3446
0.537	5.94177
0.5375	11.07788
0.538	7.95593
0.5385	6.3446
0.539	8.7616
0.5395	4.73328
0.54	18.73169
0.5405	10.47363
0.541	3.12195
0.5415	4.22974
0.542	1.10779
0.5425	2.81982
0.543	2.31628
0.5435	4.73328
0.544	9.46655
0.5445	4.22974
0.545	11.68213
0.5455	16.91895
0.546	12.48779
0.5465	11.38
0.547	11.2793
0.5475	12.38708
0.548	10.57434
0.5485	11.48071
0.549	11.68213
0.5495	7.95593
0.55	0.40283
0.5505	0.60425
0.551	4.63257
0.5515	3.22266
0.552	5.23682
0.5525	-2.71912
0.553	3.62549
0.5535	1.10779
0.554	-0.50354
0.5545	0
0.555	-5.43823
0.5555	-9.26514
0.556	-7.15027
0.5565	-8.25806
0.557	-8.45947
0.5575	-10.57434
0.558	-2.41699
0.5585	-4.63257
0.559	3.12195
0.5595	3.12195
0.56	5.33752
0.5605	7.04956
0.561	0.70496
0.5615	2.21558
0.562	4.22974
0.5625	5.43823
0.563	7.95593
0.5635	7.5531
0.564	5.33752
0.5645	4.63257
0.565	1.61133
0.5655	0.20142
0.566	2.31628
0.5665	0.70496
0.567	0.30212
0.5675	7.95593
0.568	11.2793
0.5685	3.92761
0.569	5.23682
0.5695	8.35876
0.57	8.7616
0.5705	7.5531
0.571	8.05664
0.5715	11.68213
0.572	13.29346
0.5725	9.76868
0.573	14.60266
0.5735	12.08496
0.574	13.09204
0.5745	12.68921
0.575	14.50195
0.5755	14.30054
0.576	13.19275
0.5765	12.48779
0.577	11.88354
0.5775	8.96301
0.578	9.66797
0.5785	5.0354
0.579	0.30212
0.5795	-7.35168
0.58	-6.64673
0.5805	-4.93469
0.581	-3.92761
0.5815	-7.25098
0.582	-3.42407
0.5825	-1.40991
0.583	-6.3446
0.5835	-11.88354
0.584	-7.75452
0.5845	-4.02832
0.585	-10.87646
0.5855	-10.27222
0.586	-5.43823
0.5865	-11.68213
0.587	-14.19983
0.5875	-6.64673
0.588	-4.53186
0.5885	-3.22266
0.589	0.70496
0.5895	7.15027
0.59	6.14319
0.5905	3.32336
0.591	3.52478
0.5915	2.5177
0.592	3.12195
0.5925	6.14319
0.593	-0.10071
0.5935	2.61841
0.594	6.3446
0.5945	2.61841
0.595	4.53186
0.5955	3.92761
0.596	5.43823
0.5965	3.12195
0.597	1.3092
0.5975	2.31628
0.598	1.71204
0.5985	2.11487
0.599	6.74744
0.5995	5.33752
0.6	11.78284
0.6005	2.71912
0.601	4.83398
0.6015	8.45947
0.602	6.94885
0.6025	9.76868
0.603	11.78284
0.6035	12.99133
0.604	14.80408
0.6045	13.99841
0.605	16.11328
0.6055	16.3147
0.606	8.66089
0.6065	9.97009
0.607	5.43823
0.6075	5.13611
0.608	6.3446
0.6085	1.00708
0.609	2.92053
0.6095	1.81274
0.61	4.93469
0.6105	-0.80566
0.611	4.33044
0.6115	9.76868
0.612	6.84814
0.6125	8.05664
0.613	-0.10071
0.6135	1.81274
0.614	6.04248
0.6145	1.81274
0.615	5.0354
0.6155	8.96301
0.616	5.23682
0.6165	4.73328
0.617	2.71912
0.6175	6.14319
0.618	-3.02124
0.6185	3.8269
0.619	4.22974
0.6195	5.94177
0.62	1.2085
0.6205	0.50354
0.621	4.63257
0.6215	1.51062
0.622	5.33752
0.6225	8.96301
0.623	1.81274
0.6235	6.84814
0.624	9.56726
0.6245	9.86938
0.625	14.19983
0.6255	8.96301
0.626	9.56726
0.6265	10.87646
0.627	12.28638
0.6275	11.17859
0.628	11.38
0.6285	12.5885
0.629	7.75452
0.6295	10.17151
0.63	13.49487
0.6305	9.26514
0.631	11.2793
0.6315	4.22974
0.632	11.07788
0.6325	10.57434
0.633	11.98425
0.6335	14.70337
0.634	8.35876
0.6345	14.40125
0.635	12.08496
0.6355	10.97717
0.636	8.96301
0.6365	2.61841
0.637	0.60425
0.6375	-5.63965
0.638	-8.25806
0.6385	-8.8623
0.639	-6.04248
0.6395	-10.0708
0.64	-8.96301
0.6405	-2.21558
0.641	3.22266
0.6415	2.11487
0.642	5.23682
0.6425	-1.2085
0.643	-2.92053
0.6435	-4.33044
0.644	2.5177
0.6445	-1.40991
0.645	1.81274
0.6455	3.7262
0.646	4.63257
0.6465	4.83398
0.647	7.35168
0.6475	2.5177
0.648	5.13611
0.6485	7.35168
0.649	6.44531
0.6495	6.64673
0.65	1.51062
0.6505	11.68213
0.651	5.23682
0.6515	4.33044
0.652	6.2439
0.6525	6.14319
0.653	6.14319
0.6535	7.65381
0.654	-0.30212
0.6545	1.2085
0.655	-0.60425
0.6555	2.01416
0.656	2.5177
0.6565	-2.61841
0.657	5.0354
0.6575	7.15027
0.658	12.28638
0.6585	7.45239
0.659	9.26514
0.6595	6.04248
0.66	2.61841
0.6605	8.05664
0.661	6.64673
0.6615	9.36584
0.662	4.12903
0.6625	5.74036
0.663	3.8269
0.6635	4.53186
0.664	2.41699
0.6645	5.63965
0.665	3.7262
0.6655	5.53894
0.666	5.0354
0.6665	11.38
0.667	6.14319
0.6675	9.36584
0.668	11.38
0.6685	6.54602
0.669	5.43823
0.6695	4.12903
0.67	4.22974
0.6705	9.46655
0.671	7.95593
0.6715	4.53186
0.672	13.49487
0.6725	10.47363
0.673	9.56726
0.6735	10.37292
0.674	4.53186
0.6745	9.26514
0.675	10.17151
0.6755	12.28638
0.676	8.25806
0.6765	5.84106
0.677	7.75452
0.6775	5.84106
0.678	6.54602
0.6785	7.75452
0.679	6.44531
0.6795	4.83398
0.68	11.07788
0.6805	8.56018
0.681	4.43115
0.6815	10.27222
0.682	4.43115
0.6825	-1.51062
0.683	5.63965
0.6835	6.3446
0.684	0.10071
0.6845	3.62549
0.685	1.91345
0.6855	5.94177
0.686	6.04248
0.6865	3.22266
0.687	4.43115
0.6875	3.12195
0.688	12.48779
0.6885	4.83398
0.689	4.63257
0.6895	5.43823
0.69	1.81274
0.6905	6.94885
0.691	4.12903
0.6915	9.66797
0.692	8.56018
0.6925	8.96301
0.693	14.50195
0.6935	16.01257
0.694	12.68921
0.6945	6.64673
0.695	9.86938
0.6955	14.50195
0.696	14.40125
0.6965	11.98425
0.697	10.67505
0.6975	9.46655
0.698	18.53027
0.6985	10.17151
0.699	15.40833
0.6995	12.48779
0.7	9.16443
0.7005	1.71204
0.701	1.71204
0.7015	0.90637
0.702	-1.81274
0.7025	-4.63257
0.703	-4.53186
0.7035	-3.22266
0.704	-8.66089
0.7045	-9.97009
0.705	-4.43115
0.7055	-3.7262
0.706	-5.53894
0.7065	-1.00708
0.707	-4.83398
0.7075	3.52478
0.708	-0.70496
0.7085	1.51062
0.709	4.02832
0.7095	6.3446
0.71	5.23682
0.7105	5.33752
0.711	5.53894
0.7115	8.8623
0.712	5.94177
0.7125	5.63965
0.713	5.43823
0.7135	7.5531
0.714	10.37292
0.7145	17.82532
0.715	11.2793
0.7155	8.05664
0.716	12.89062
0.7165	18.12744
0.717	13.797
0.7175	11.07788
0.718	15.40833
0.7185	18.12744
0.719	14.90479
0.7195	12.08496
0.72	10.67505
0.7205	11.88354
0.721	6.64673
0.7215	4.93469
0.722	6.44531
0.7225	7.65381
0.723	9.06372
0.7235	5.74036
0.724	-2.92053
0.7245	-6.94885
0.725	-6.04248
0.7255	-5.13611
0.726	-1.71204
0.7265	0
0.727	-0.20142
0.7275	-3.22266
0.728	2.41699
0.7285	-0.10071
0.729	0.40283
0.7295	2.11487
0.73	7.45239
0.7305	4.53186
0.731	6.3446
0.7315	1.3092
0.732	6.74744
0.7325	7.45239
0.733	6.14319
0.7335	8.25806
0.734	7.04956
0.7345	11.68213
0.735	11.88354
0.7355	18.63098
0.736	16.11328
0.7365	17.32178
0.737	14.30054
0.7375	13.29346
0.738	19.03381
0.7385	16.41541
0.739	20.94727
0.7395	14.90479
0.74	18.53027
0.7405	17.01965
0.741	15.91187
0.7415	15.40833
0.742	8.45947
0.7425	8.66089
0.743	8.66089
0.7435	1.3092
0.744	3.12195
0.7445	-5.33752
0.745	-9.66797
0.7455	-5.33752
0.746	-9.06372
0.7465	-4.12903
0.747	-7.65381
0.7475	-1.3092
0.748	-5.84106
0.7485	-8.15735
0.749	-8.66089
0.7495	-7.15027
0.75	-2.92053
0.7505	-9.86938
0.751	-1.2085
0.7515	-0.50354
0.752	0.80566
0.7525	2.41699
0.753	-0.80566
0.7535	4.22974
0.754	7.65381
0.7545	9.26514
0.755	9.06372
0.7555	12.78992
0.756	10.67505
0.7565	9.46655
0.757	7.85522
0.7575	6.74744
0.758	11.2793
0.7585	10.87646
0.759	10.77576
0.7595	6.44531
0.76	9.97009
0.7605	4.02832
0.761	4.02832
0.7615	7.35168
0.762	6.14319
0.7625	4.33044
0.763	4.63257
0.7635	4.43115
0.764	7.75452
0.7645	3.42407
0.765	7.15027
0.7655	6.64673
0.766	7.35168
0.7665	8.25806
0.767	6.3446
0.7675	6.44531
0.768	2.31628
0.7685	6.84814
0.769	12.78992
0.7695	12.28638
0.77	11.98425
0.7705	10.27222
0.771	7.95593
0.7715	3.52478
0.772	11.38
0.7725	4.53186
0.773	5.63965
0.7735	12.78992
0.774	7.15027
0.7745	9.36584
0.775	4.02832
0.7755	5.13611
0.776	3.7262
0.7765	4.33044
0.777	5.74036
0.7775	1.91345
0.778	3.12195
0.7785	2.01416
0.779	10.0708
0.7795	-0.40283
0.78	-5.53894
0.7805	-3.22266
0.781	1.61133
0.7815	-2.81982
0.782	-6.04248
0.7825	-4.43115
0.783	-8.35876
0.7835	-7.95593
0.784	0.40283
0.7845	-2.81982
0.785	-1.71204
0.7855	2.5177
0.786	3.42407
0.7865	4.22974
0.787	6.94885
0.7875	11.38
0.788	10.0708
0.7885	12.89062
0.789	8.35876
0.7895	11.2793
0.79	8.56018
0.7905	5.43823
0.791	11.07788
0.7915	10.87646
0.792	12.78992
0.7925	9.66797
0.793	8.05664
0.7935	9.06372
0.794	13.09204
0.7945	8.45947
0.795	12.38708
0.7955	6.44531
0.796	10.47363
0.7965	2.81982
0.797	7.5531
0.7975	12.5885
0.798	5.94177
0.7985	5.13611
0.799	-0.50354
0.7995	2.41699
0.8	7.15027
0.8005	5.63965
0.801	1.40991
0.8015	6.2439
0.802	-4.73328
0.8025	-2.71912
0.803	-3.12195
0.8035	0.40283
0.804	3.52478
0.8045	4.63257
0.805	1.2085
0.8055	4.73328
0.806	-1.2085
0.8065	-1.00708
0.807	-4.33044
0.8075	5.43823
0.808	5.43823
0.8085	-1.10779
0.809	2.01416
0.8095	1.61133
0.81	1.10779
0.8105	4.93469
0.811	5.53894
0.8115	6.54602
0.812	15.1062
0.8125	5.43823
0.813	10.57434
0.8135	11.98425
0.814	15.81116
0.8145	13.29346
0.815	13.09204
0.8155	18.12744
0.816	13.59558
0.8165	11.58142
0.817	4.73328
0.8175	-0.30212
0.818	-5.33752
0.8185	-4.93469
0.819	-5.74036
0.8195	-7.65381
0.82	-5.33752
0.8205	-5.94177
0.821	-4.63257
0.8215	-1.40991
0.822	5.63965
0.8225	0
0.823	6.2439
0.8235	6.64673
0.824	10.57434
0.8245	13.99841
0.825	11.07788
0.8255	11.58142
0.826	11.78284
0.8265	4.83398
0.827	5.0354
0.8275	8.35876
0.828	9.26514
0.8285	7.5531
0.829	6.14319
0.8295	2.41699
0.83	5.13611
0.8305	11.48071
0.831	12.99133
0.8315	11.2793
0.832	21.65222
0.8325	20.84656
0.833	20.24231
0.8335	12.28638
0.834	11.48071
0.8345	14.80408
0.835	9.36584
0.8355	12.68921
0.836	7.25098
0.8365	12.68921
0.837	12.48779
0.8375	12.89062
0.838	16.11328
0.8385	18.12744
0.839	19.43665
0.8395	23.06213
0.84	24.57275
0.8405	21.45081
0.841	15.71045
0.8415	12.5885
0.842	7.65381
0.8425	7.15027
0.843	1.3092
0.8435	-2.11487
0.844	4.93469
0.8445	3.42407
0.845	3.32336
0.8455	0.60425
0.846	1.81274
0.8465	0.70496
0.847	7.75452
0.8475	4.93469
0.848	10.57434
0.8485	11.68213
0.849	8.8623
0.8495	8.7616
0.85	6.84814
0.8505	13.89771
0.851	7.95593
0.8515	9.86938
0.852	8.25806
0.8525	5.13611
0.853	0.40283
0.8535	0.40283
0.854	-1.10779
0.8545	-0.50354
0.855	-0.70496
0.8555	2.5177
0.856	5.43823
0.8565	2.21558
0.857	0.80566
0.8575	-0.80566
0.858	-3.42407
0.8585	-1.00708
0.859	-1.81274
0.8595	-0.20142
0.86	2.61841
0.8605	-0.30212
0.861	-0.50354
0.8615	1.71204
0.862	5.33752
0.8625	1.40991
0.863	4.73328
0.8635	9.26514
0.864	9.97009
0.8645	6.74744
0.865	11.68213
0.8655	12.68921
0.866	4.93469
0.8665	10.57434
0.867	12.08496
0.8675	9.06372
0.868	11.2793
0.8685	9.36584
0.869	16.81824
0.8695	10.0708
0.87	9.16443
0.8705	15.40833
0.871	14.40125
0.8715	8.7616
0.872	9.26514
0.8725	7.35168
0.873	5.63965
0.8735	2.11487
0.874	-1.00708
0.8745	1.3092
0.875	-6.94885
0.8755	-6.84814
0.876	-11.2793
0.8765	-10.77576
0.877	-7.85522
0.8775	-4.02832
0.878	-3.7262
0.8785	2.01416
0.879	5.94177
0.8795	2.01416
0.88	4.63257
0.8805	3.32336
0.881	6.3446
0.8815	7.35168
0.882	9.06372
0.8825	6.44531
0.883	9.16443
0.8835	8.15735
0.884	6.74744
0.8845	-0.30212
0.885	5.74036
0.8855	8.25806
0.886	5.94177
0.8865	8.66089
0.887	4.12903
0.8875	5.33752
0.888	3.02124
0.8885	2.61841
0.889	8.45947
0.8895	10.67505
0.89	11.68213
0.8905	7.35168
0.891	7.65381
0.8915	5.23682
0.892	7.04956
0.8925	8.56018
0.893	7.04956
0.8935	2.41699
0.894	3.8269
0.8945	0.60425
0.895	2.41699
0.8955	-4.22974
0.896	0.60425
0.8965	5.33752
0.897	8.45947
0.8975	6.64673
0.898	5.74036
0.8985	6.84814
0.899	4.73328
0.8995	0.50354
0.9	-3.62549
0.9005	-7.04956
0.901	-5.63965
0.9015	-5.23682
0.902	-5.84106
0.9025	-1.00708
0.903	-3.22266
0.9035	0.40283
0.904	3.32336
0.9045	-0.10071
0.905	5.74036
0.9055	10.37292
0.906	6.94885
0.9065	11.38
0.907	13.39417
0.9075	9.56726
0.908	11.68213
0.9085	9.56726
0.909	5.53894
0.9095	3.8269
0.91	12.78992
0.9105	17.92603
0.911	25.177
0.9115	25.37842
0.912	23.46497
0.9125	19.03381
0.913	20.64514
0.9135	17.82532
0.914	17.72461
0.9145	7.15027
0.915	4.93469
0.9155	3.42407
0.916	-3.02124
0.9165	-6.74744
0.917	-8.05664
0.9175	-4.22974
0.918	-3.02124
0.9185	-8.25806
0.919	-2.01416
0.9195	5.74036
0.92	-3.42407
0.9205	-1.81274
0.921	10.77576
0.9215	15.91187
0.922	14.40125
0.9225	5.84106
0.923	2.41699
0.9235	4.22974
0.924	1.40991
0.9245	0.50354
0.925	-1.61133
0.9255	2.11487
0.926	-2.61841
0.9265	1.61133
0.927	4.02832
0.9275	9.06372
0.928	8.05664
0.9285	9.16443
0.929	8.56018
0.9295	11.38
0.93	6.54602
0.9305	8.25806
0.931	9.97009
0.9315	9.16443
0.932	9.26514
0.9325	7.65381
0.933	7.5531
0.9335	12.48779
0.934	10.0708
0.9345	5.74036
0.935	3.8269
0.9355	9.76868
0.936	5.13611
0.9365	4.43115
0.937	9.56726
0.9375	13.797
0.938	12.08496
0.9385	13.69629
0.939	10.97717
0.9395	14.09912
0.94	12.99133
0.9405	16.91895
0.941	6.14319
0.9415	12.99133
0.942	16.41541
0.9425	9.66797
0.943	13.29346
0.9435	13.29346
0.944	7.35168
0.9445	8.45947
0.945	8.05664
0.9455	6.44531
0.946	5.0354
0.9465	3.32336
0.947	-0.60425
0.9475	-4.33044
0.948	-9.26514
0.9485	-11.07788
0.949	-8.15735
0.9495	-9.06372
0.95	-1.81274
0.9505	0.10071
0.951	4.02832
0.9515	0.40283
0.952	5.74036
0.9525	0.50354
0.953	3.22266
0.9535	1.3092
0.954	6.54602
0.9545	5.74036
0.955	0.30212
0.9555	2.31628
0.956	2.11487
0.9565	0
0.957	5.43823
0.9575	2.21558
0.958	-0.60425
0.9585	5.74036
0.959	9.66797
0.9595	8.8623
0.96	2.5177
0.9605	3.92761
0.961	-4.02832
0.9615	-6.14319
0.962	6.44531
0.9625	7.5531
0.963	8.8623
0.9635	7.95593
0.964	0.80566
0.9645	6.3446
0.965	11.38
0.9655	9.76868
0.966	10.87646
0.9665	10.87646
0.967	14.40125
0.9675	13.19275
0.968	9.97009
0.9685	6.94885
0.969	-0.20142
0.9695	5.33752
0.97	-2.11487
0.9705	-1.3092
0.971	-0.50354
0.9715	4.22974
0.972	6.94885
0.9725	1.00708
0.973	-0.60425
0.9735	-1.71204
0.974	-4.02832
0.9745	-5.13611
0.975	-2.21558
0.9755	-1.81274
0.976	-0.60425
0.9765	-1.51062
0.977	-6.54602
0.9775	-0.90637
0.978	0.90637
0.9785	8.66089
0.979	8.96301
0.9795	8.45947
0.98	3.52478
0.9805	7.35168
0.981	8.15735
0.9815	7.15027
0.982	17.52319
0.9825	8.8623
0.983	7.85522
0.9835	7.25098
0.984	5.33752
0.9845	4.43115
0.985	5.53894
0.9855	11.98425
0.986	13.19275
0.9865	9.66797
0.987	6.44531
0.9875	5.94177
0.988	4.83398
0.9885	6.2439
0.989	10.17151
0.9895	10.17151
0.99	10.17151
0.9905	10.17151
0.991	10.17151
0.9915	10.17151
0.992	10.17151
0.9925	10.17151
0.993	10.17151
0.9935	10.17151
0.994	10.17151
0.9945	10.17151
0.995	10.17151
0.9955	10.17151
0.996	10.17151
0.9965	10.17151
0.997	10.17151
0.9975	10.17151
0.998	10.17151
0.9985	10.17151
0.999	10.17151
0.9995	-4.22974
1	-5.33752
1.0005	-5.13611
1.001	-12.18567
1.0015	-10.97717
1.002	-15.50903
1.0025	-10.0708
1.003	-8.8623
1.0035	-5.43823
1.004	-6.84814
1.0045	-14.09912
1.005	-16.41541
1.0055	-18.32886
1.006	-14.70337
1.0065	0.30212
1.007	3.92761
1.0075	7.5531
1.008	1.71204
1.0085	5.43823
1.009	-3.62549
1.0095	-3.7262
1.01	2.71912
1.0105	1.00708
1.011	2.41699
1.0115	-3.32336
1.012	-5.0354
1.0125	0.50354
1.013	-4.02832
1.0135	1.2085
1.014	1.2085
1.0145	6.94885
1.015	8.56018
1.0155	14.80408
1.016	8.25806
1.0165	16.41541
1.017	10.27222
1.0175	8.15735
1.018	13.49487
1.0185	7.95593
1.019	12.68921
1.0195	14.70337
1.02	17.6239
1.0205	14.40125
1.021	13.797
1.0215	15.30762
1.022	13.89771
1.0225	11.17859
1.023	13.59558
1.0235	10.0708
1.024	5.23682
1.0245	3.62549
1.025	8.56018
1.0255	7.75452
1.026	6.84814
1.0265	6.04248
1.027	4.02832
1.0275	7.45239
1.028	3.22266
1.0285	2.41699
1.029	4.12903
1.0295	7.04956
1.03	6.3446
1.0305	5.23682
1.031	0.30212
1.0315	-0.50354
1.032	-1.10779
1.0325	4.43115
1.033	6.84814
1.0335	12.5885
1.034	13.49487
1.0345	21.24939
1.035	21.04797
1.0355	18.42957
1.036	17.92603
1.0365	15.91187
1.037	18.63098
1.0375	19.53735
1.038	15.40833
1.0385	14.19983
1.039	9.97009
1.0395	8.8623
1.04	12.18567
1.0405	3.7262
1.041	3.32336
1.0415	4.43115
1.042	1.40991
1.0425	1.71204
1.043	-7.04956
1.0435	-3.42407
1.044	-6.04248
1.0445	-10.37292
1.045	-3.42407
1.0455	-1.91345
1.046	-3.42407
1.0465	-1.91345
1.047	1.71204
1.0475	-0.90637
1.048	-3.02124
1.0485	1.3092
1.049	1.40991
1.0495	-0.70496
1.05	6.64673
1.0505	2.81982
1.051	4.02832
1.0515	10.0708
1.052	13.39417
1.0525	2.92053
1.053	-1.40991
1.0535	9.36584
1.054	6.54602
1.0545	8.56018
1.055	0.40283
1.0555	1.2085
1.056	3.7262
1.0565	1.61133
1.057	-1.81274
1.0575	0.30212
1.058	-1.81274
1.0585	-0.90637
1.059	-7.65381
1.0595	-11.98425
1.06	-3.62549
1.0605	-5.0354
1.061	3.02124
1.0615	7.45239
1.062	14.19983
1.0625	7.85522
1.063	7.35168
1.0635	10.47363
1.064	8.45947
1.0645	6.94885
1.065	5.53894
1.0655	9.46655
1.066	10.27222
1.0665	8.96301
1.067	4.73328
1.0675	7.85522
1.068	4.63257
1.0685	6.74744
1.069	3.7262
1.0695	5.84106
1.07	6.3446
1.0705	6.04248
1.071	8.45947
1.0715	3.52478
1.072	4.22974
1.0725	7.35168
1.073	2.01416
1.0735	4.22974
1.074	7.04956
1.0745	4.73328
1.075	13.89771
1.0755	20.24231
1.076	20.1416
1.0765	17.82532
1.077	13.49487
1.0775	18.8324
1.078	16.91895
1.0785	13.99841
1.079	13.69629
1.0795	14.80408
1.08	9.97009
1.0805	15.50903
1.081	5.74036
1.0815	-0.40283
1.082	-2.41699
1.0825	-9.26514
1.083	-5.33752
1.0835	-7.5531
1.084	-4.33044
1.0845	-2.61841
1.085	-2.31628
1.0855	0.10071
1.086	5.0354
1.0865	5.84106
1.087	6.44531
1.0875	9.66797
1.088	10.17151
1.0885	5.0354
1.089	7.45239
1.0895	11.48071
1.09	6.44531
1.0905	9.36584
1.091	10.37292
1.0915	10.77576
1.092	9.06372
1.0925	6.04248
1.093	12.08496
1.0935	19.13452
1.094	20.84656
1.0945	23.26355
1.095	19.23523
1.0955	17.82532
1.096	20.04089
1.0965	10.27222
1.097	7.25098
1.0975	6.74744
1.098	2.61841
1.0985	4.93469
1.099	-1.10779
1.0995	-1.91345
1.1	3.22266
1.1005	9.36584
1.101	22.96143
1.1015	22.45789
1.102	23.76709
1.1025	15.30762
1.103	15.91187
1.1035	8.25806
1.104	2.01416
1.1045	-0.60425
1.105	-7.95593
1.1055	-14.30054
1.106	-12.68921
1.1065	-11.78284
1.107	-8.35876
1.1075	-4.83398
1.108	-1.40991
1.1085	-1.91345
1.109	-1.61133
1.1095	-2.01416
1.11	-0.60425
1.1105	-6.74744
1.111	-7.35168
1.1115	-6.2439
1.112	-4.22974
1.1125	-8.05664
1.113	-5.23682
1.1135	-4.12903
1.114	-5.63965
1.1145	-4.43115
1.115	-0.10071
1.1155	8.8623
1.116	-0.30212
1.1165	6.04248
1.117	0.80566
1.1175	1.71204
1.118	2.5177
1.1185	11.88354
1.119	9.26514
1.1195	8.15735
1.12	5.43823
1.1205	7.04956
1.121	4.63257
1.1215	9.16443
1.122	8.96301
1.1225	14.50195
1.123	11.58142
1.1235	7.25098
1.124	9.16443
1.1245	4.73328
1.125	11.88354
1.1255	10.67505
1.126	9.66797
1.1265	7.95593
1.127	5.94177
1.1275	7.5531
1.128	12.68921
1.1285	15.30762
1.129	6.74744
1.1295	11.68213
1.13	15.30762
1.1305	11.78284
1.131	6.54602
1.1315	9.86938
1.132	15.00549
1.1325	16.01257
1.133	11.17859
1.1335	8.8623
1.134	10.67505
1.1345	14.50195
1.135	11.2793
1.1355	9.76868
1.136	12.89062
1.1365	9.46655
1.137	5.23682
1.1375	3.7262
1.138	2.92053
1.1385	1.51062
1.139	-3.42407
1.1395	-6.3446
1.14	-0.90637
1.1405	-1.61133
1.141	-3.02124
1.1415	-1.61133
1.142	2.5177
1.1425	7.85522
1.143	13.89771
1.1435	16.81824
1.144	9.46655
1.1445	6.64673
1.145	0.80566
1.1455	3.8269
1.146	1.00708
1.1465	6.94885
1.147	14.09912
1.1475	7.65381
1.148	11.98425
1.1485	2.81982
1.149	1.91345
1.1495	-5.23682
1.15	-7.25098
1.1505	-4.83398
1.151	-8.05664
1.1515	-11.38
1.152	-3.92761
1.1525	-7.04956
1.153	-2.41699
1.1535	0.90637
1.154	2.71912
1.1545	9.97009
1.155	13.19275
1.1555	15.50903
1.156	15.50903
1.1565	13.49487
1.157	18.8324
1.1575	9.06372
1.158	10.17151
1.1585	14.09912
1.159	12.28638
1.1595	9.66797
1.16	10.37292
1.1605	11.58142
1.161	18.53027
1.1615	24.16992
1.162	21.24939
1.1625	18.32886
1.163	17.52319
1.1635	6.04248
1.164	8.45947
1.1645	6.54602
1.165	4.43115
1.1655	2.81982
1.166	3.32336
1.1665	-0.60425
1.167	-3.8269
1.1675	-3.12195
1.168	3.92761
1.1685	4.63257
1.169	1.71204
1.1695	7.75452
1.17	2.01416
1.1705	3.12195
1.171	-1.10779
1.1715	-2.81982
1.172	-3.22266
1.1725	-9.46655
1.173	-8.96301
1.1735	-6.3446
1.174	-4.63257
1.1745	-8.7616
1.175	-11.98425
1.1755	-7.25098
1.176	-3.52478
1.1765	-1.40991
1.177	5.0354
1.1775	3.92761
1.178	6.2439
1.1785	6.2439
1.179	-0.70496
1.1795	3.62549
1.18	0.30212
1.1805	2.01416
1.181	-1.00708
1.1815	2.01416
1.182	3.62549
1.1825	-3.8269
1.183	0
1.1835	5.84106
1.184	1.61133
1.1845	12.28638
1.185	1.10779
1.1855	3.22266
1.186	-5.13611
1.1865	-7.75452
1.187	-4.22974
1.1875	3.12195
1.188	5.43823
1.1885	3.62549
1.189	4.12903
1.1895	10.77576
1.19	17.01965
1.1905	11.88354
1.191	19.43665
1.1915	24.87488
1.192	20.44373
1.1925	14.09912
1.193	13.09204
1.1935	10.47363
1.194	7.75452
1.1945	9.97009
1.195	8.25806
1.1955	8.8623
1.196	4.63257
1.1965	6.94885
1.197	4.43115
1.1975	6.84814
1.198	12.18567
1.1985	9.97009
1.199	4.73328
1.1995	4.63257
1.2	10.67505
1.2005	11.98425
1.201	5.63965
1.2015	3.52478
1.202	-2.31628
1.2025	3.7262
1.203	-2.31628
1.2035	-4.02832
1.204	1.2085
1.2045	3.32336
1.205	4.12903
1.2055	1.71204
1.206	3.12195
1.2065	-1.3092
1.207	6.2439
1.2075	3.7262
1.208	0.10071
1.2085	-3.42407
1.209	-4.73328
1.2095	-2.92053
1.21	-1.81274
1.2105	-4.83398
1.211	-1.81274
1.2115	11.48071
1.212	13.49487
1.2125	15.40833
1.213	22.05505
1.2135	14.50195
1.214	19.03381
1.2145	10.17151
1.215	11.17859
1.2155	1.2085
1.216	3.52478
1.2165	-2.71912
1.217	-2.41699
1.2175	-2.41699
1.218	-0.60425
1.2185	-4.83398
1.219	3.62549
1.2195	3.32336
1.22	3.22266
1.2205	8.66089
1.221	8.25806
1.2215	15.30762
1.222	13.49487
1.2225	8.7616
1.223	5.74036
1.2235	5.0354
1.224	0.50354
1.2245	10.87646
1.225	7.15027
1.2255	12.99133
1.226	5.0354
1.2265	8.25806
1.227	12.18567
1.2275	12.99133
1.228	8.45947
1.2285	18.32886
1.229	20.1416
1.2295	10.97717
1.23	5.74036
1.2305	5.33752
1.231	2.41699
1.2315	2.71912
1.232	6.04248
1.2325	7.04956
1.233	3.8269
1.2335	8.15735
1.234	3.42407
1.2345	1.40991
1.235	-6.2439
1.2355	-0.20142
1.236	6.44531
1.2365	8.7616
1.237	13.99841
1.2375	12.28638
1.238	17.32178
1.2385	12.78992
1.239	17.22107
1.2395	15.00549
1.24	16.01257
1.2405	19.43665
1.241	17.92603
1.2415	20.84656
1.242	19.33594
1.2425	16.81824
1.243	14.60266
1.2435	11.98425
1.244	6.44531
1.2445	1.61133
1.245	-4.43115
1.2455	-8.35876
1.246	-15.50903
1.2465	-10.17151
1.247	-18.53027
1.2475	-11.88354
1.248	-10.67505
1.2485	-9.46655
1.249	-7.5531
1.2495	-7.65381
1.25	3.02124
1.2505	2.81982
1.251	4.53186
1.2515	3.62549
1.252	6.14319
1.2525	10.0708
1.253	3.52478
1.2535	3.62549
1.254	12.38708
1.2545	8.7616
1.255	8.7616
1.2555	10.17151
1.256	11.98425
1.2565	16.21399
1.257	17.22107
1.2575	16.01257
1.258	12.89062
1.2585	17.12036
1.259	12.78992
1.2595	11.07788
1.26	15.1062
1.2605	13.39417
1.261	13.39417
1.2615	8.96301
1.262	3.22266
1.2625	5.33752
1.263	1.2085
1.2635	-5.33752
1.264	-3.7262
1.2645	-0.80566
1.265	0.50354
1.2655	3.62549
1.266	-4.73328
1.2665	-7.75452
1.267	-8.35876
1.2675	-9.06372
1.268	-4.83398
1.2685	-4.12903
1.269	-4.83398
1.2695	4.93469
1.27	10.77576
1.2705	12.99133
1.271	15.71045
1.2715	16.01257
1.272	13.59558
1.2725	16.21399
1.273	18.53027
1.2735	20.74585
1.274	18.42957
1.2745	21.45081
1.275	18.42957
1.2755	15.20691
1.276	11.48071
1.2765	8.35876
1.277	6.74744
1.2775	9.56726
1.278	6.14319
1.2785	10.87646
1.279	11.38
1.2795	-0.70496
1.28	2.21558
1.2805	3.22266
1.281	7.45239
1.2815	7.04956
1.282	5.33752
1.2825	8.45947
1.283	0
1.2835	2.61841
1.284	-6.04248
1.2845	-9.66797
1.285	-9.66797
1.2855	-2.71912
1.286	-2.92053
1.2865	-3.8269
1.287	-2.81982
1.2875	-5.63965
1.288	-6.2439
1.2885	-8.7616
1.289	-6.84814
1.2895	-10.0708
1.29	-2.31628
1.2905	-0.50354
1.291	-4.22974
1.2915	-3.52478
1.292	-2.71912
1.2925	2.81982
1.293	4.93469
1.2935	6.14319
1.294	9.76868
1.2945	10.57434
1.295	7.04956
1.2955	9.16443
1.296	7.65381
1.2965	9.66797
1.297	10.77576
1.2975	8.25806
1.298	9.76868
1.2985	7.75452
1.299	6.64673
1.2995	7.95593
1.3	10.47363
1.3005	12.28638
1.301	15.30762
1.3015	15.50903
1.302	13.797
1.3025	11.58142
1.303	8.7616
1.3035	7.04956
1.304	5.0354
1.3045	6.04248
1.305	5.23682
1.3055	7.65381
1.306	12.78992
1.3065	8.25806
1.307	7.95593
1.3075	8.45947
1.308	10.17151
1.3085	9.36584
1.309	5.33752
1.3095	-1.81274
1.31	2.01416
1.3105	0.80566
1.311	-0.40283
1.3115	-0.60425
1.312	-4.93469
1.3125	-12.99133
1.313	-9.97009
1.3135	-6.14319
1.314	-6.2439
1.3145	-4.53186
1.315	2.01416
1.3155	3.32336
1.316	3.42407
1.3165	7.04956
1.317	3.8269
1.3175	11.38
1.318	10.0708
1.3185	9.66797
1.319	13.69629
1.3195	7.15027
1.32	13.29346
1.3205	15.30762
1.321	17.12036
1.3215	14.70337
1.322	13.09204
1.3225	9.86938
1.323	4.53186
1.3235	1.10779
1.324	2.01416
1.3245	-3.52478
1.325	-7.95593
1.3255	-7.5531
1.326	-10.77576
1.3265	2.5177
1.327	2.41699
1.3275	3.62549
1.328	-0.80566
1.3285	0
1.329	4.22974
1.3295	3.02124
1.33	12.5885
1.3305	8.56018
1.331	11.48071
1.3315	8.96301
1.332	8.35876
1.3325	11.2793
1.333	6.84814
1.3335	5.0354
1.334	8.05664
1.3345	5.13611
1.335	16.01257
1.3355	11.98425
1.336	7.95593
1.3365	9.06372
1.337	17.82532
1.3375	16.3147
1.338	15.00549
1.3385	18.93311
1.339	10.87646
1.3395	11.07788
1.34	8.7616
1.3405	7.45239
1.341	-1.91345
1.3415	-3.62549
1.342	-6.54602
1.3425	-2.41699
1.343	-9.97009
1.3435	-7.45239
1.344	-7.85522
1.3445	-6.44531
1.345	-7.85522
1.3455	-8.15735
1.346	-7.45239
1.3465	-6.64673
1.347	-4.43115
1.3475	3.62549
1.348	-5.23682
1.3485	-8.25806
1.349	-2.31628
1.3495	5.43823
1.35	6.44531
1.3505	5.63965
1.351	6.64673
1.3515	10.37292
1.352	13.69629
1.3525	9.26514
1.353	8.8623
1.3535	17.01965
1.354	17.6239
1.3545	16.21399
1.355	11.58142
1.3555	18.73169
1.356	15.20691
1.3565	15.81116
1.357	16.01257
1.3575	9.46655
1.358	14.50195
1.3585	13.59558
1.359	16.51611
1.3595	3.42407
1.36	0.60425
1.3605	2.01416
1.361	4.93469
1.3615	2.5177
1.362	6.74744
1.3625	4.43115
1.363	-0.20142
1.3635	7.95593
1.364	3.62549
1.3645	3.62549
1.365	7.04956
1.3655	6.44531
1.366	3.62549
1.3665	1.51062
1.367	2.21558
1.3675	5.53894
1.368	4.53186
1.3685	3.62549
1.369	3.62549
1.3695	6.14319
1.37	7.04956
1.3705	6.14319
1.371	9.26514
1.3715	6.54602
1.372	8.8623
1.3725	10.0708
1.373	5.23682
1.3735	11.58142
1.374	7.85522
1.3745	8.25806
1.375	11.38
1.3755	10.27222
1.376	10.87646
1.3765	13.797
1.377	5.43823
1.3775	2.41699
1.378	-2.61841
1.3785	0.70496
1.379	-1.40991
1.3795	0.90637
1.38	4.02832
1.3805	-1.00708
1.381	3.12195
1.3815	2.81982
1.382	10.0708
1.3825	9.36584
1.383	11.48071
1.3835	7.25098
1.384	9.26514
1.3845	7.45239
1.385	5.43823
1.3855	4.43115
1.386	-0.60425
1.3865	-2.71912
1.387	-0.60425
1.3875	-2.92053
1.388	-3.62549
1.3885	0.30212
1.389	-2.41699
1.3895	-5.53894
1.39	-1.91345
1.3905	-3.62549
1.391	2.5177
1.3915	2.81982
1.392	5.33752
1.3925	9.97009
1.393	11.98425
1.3935	14.90479
1.394	12.48779
1.3945	10.67505
1.395	15.60974
1.3955	15.60974
1.396	17.32178
1.3965	17.6239
1.397	19.03381
1.3975	15.20691
1.398	15.00549
1.3985	13.99841
1.399	10.87646
1.3995	5.94177
1.4	2.31628
1.4005	-0.60425
1.401	1.81274
1.4015	-3.52478
1.402	-7.15027
1.4025	-6.84814
1.403	-13.49487
1.4035	-14.50195
1.404	-8.7616
1.4045	-3.92761
1.405	-6.84814
1.4055	-1.10779
1.406	-0.90637
1.4065	-2.71912
1.407	2.11487
1.4075	-4.63257
1.408	-3.02124
1.4085	-0.30212
1.409	-3.7262
1.4095	-5.74036
1.41	-4.12903
1.4105	3.8269
1.411	4.93469
1.4115	11.48071
1.412	12.5885
1.4125	12.68921
1.413	12.18567
1.4135	7.5531
1.414	15.50903
1.4145	11.2793
1.415	9.36584
1.4155	8.7616
1.416	14.80408
1.4165	7.85522
1.417	11.2793
1.4175	8.35876
1.418	6.44531
1.4185	6.64673
1.419	6.54602
1.4195	7.75452
1.42	3.42407
1.4205	-1.91345
1.421	-3.02124
1.4215	3.92761
1.422	7.25098
1.4225	10.0708
1.423	4.83398
1.4235	4.33044
1.424	11.17859
1.4245	13.59558
1.425	4.53186
1.4255	7.65381
1.426	10.57434
1.4265	9.97009
1.427	10.57434
1.4275	6.74744
1.428	10.67505
1.4285	7.04956
1.429	4.22974
1.4295	6.54602
1.43	5.43823
1.4305	3.7262
1.431	6.14319
1.4315	10.0708
1.432	2.11487
1.4325	1.71204
1.433	4.93469
1.4335	9.16443
1.434	12.68921
1.4345	10.0708
1.435	9.56726
1.4355	-2.92053
1.436	1.2085
1.4365	2.61841
1.437	-1.3092
1.4375	-1.2085
1.438	-1.40991
1.4385	-0.40283
1.439	-0.30212
1.4395	1.51062
1.44	5.94177
1.4405	2.31628
1.441	2.81982
1.4415	5.33752
1.442	8.8623
1.4425	8.56018
1.443	8.7616
1.4435	11.38
1.444	18.63098
1.4445	16.21399
1.445	18.53027
1.4455	26.3855
1.446	19.03381
1.4465	16.21399
1.447	11.07788
1.4475	15.50903
1.448	11.98425
1.4485	14.70337
1.449	19.13452
1.4495	11.2793
1.45	9.56726
1.4505	9.16443
1.451	2.11487
1.4515	9.16443
1.452	5.74036
1.4525	0.90637
1.453	-5.53894
1.4535	-11.38
1.454	-10.47363
1.4545	-8.45947
1.455	-8.15735
1.4555	-4.73328
1.456	0.20142
1.4565	-5.0354
1.457	-3.32336
1.4575	2.21558
1.458	1.91345
1.4585	0
1.459	0.90637
1.4595	4.83398
1.46	5.33752
1.4605	3.02124
1.461	7.75452
1.4615	3.22266
1.462	5.13611
1.4625	3.12195
1.463	5.23682
1.4635	9.16443
1.464	1.71204
1.4645	3.32336
1.465	9.97009
1.4655	10.37292
1.466	11.98425
1.4665	10.27222
1.467	12.89062
1.4675	6.64673
1.468	7.25098
1.4685	4.33044
1.469	2.92053
1.4695	-4.83398
1.47	-7.35168
1.4705	-8.35876
1.471	-11.88354
1.4715	-10.77576
1.472	-7.95593
1.4725	1.40991
1.473	1.10779
1.4735	5.0354
1.474	12.18567
1.4745	10.0708
1.475	11.07788
1.4755	8.8623
1.476	7.85522
1.4765	3.32336
1.477	3.92761
1.4775	-0.10071
1.478	2.21558
1.4785	3.92761
1.479	7.25098
1.4795	4.53186
1.48	6.3446
1.4805	4.53186
1.481	3.12195
1.4815	7.04956
1.482	5.23682
1.4825	4.73328
1.483	4.83398
1.4835	-0.60425
1.484	-3.8269
1.4845	-4.63257
1.485	-2.11487
1.4855	-0.60425
1.486	-2.21558
1.4865	0.90637
1.487	3.02124
1.4875	7.15027
1.488	4.53186
1.4885	11.17859
1.489	8.66089
1.4895	7.95593
1.49	6.74744
1.4905	18.53027
1.491	13.797
1.4915	13.797
1.492	16.61682
1.4925	21.3501
1.493	18.22815
1.4935	16.01257
1.494	13.69629
1.4945	8.96301
1.495	16.11328
1.4955	6.84814
1.496	4.53186
1.4965	0.40283
1.497	1.3092
1.4975	-3.42407
1.498	-2.01416
1.4985	-6.14319
1.499	-9.36584
1.4995	-11.17859
1.5	-13.39417
1.5005	-8.7616
1.501	-9.16443
1.5015	1.00708
1.502	2.41699
1.5025	5.0354
1.503	11.88354
1.5035	9.97009
1.504	9.06372
1.5045	2.11487
1.505	7.04956
1.5055	9.26514
1.506	10.97717
1.5065	9.46655
1.507	12.28638
1.5075	12.89062
1.508	16.71753
1.5085	19.13452
1.509	17.32178
1.5095	21.14868
1.51	14.40125
1.5105	16.81824
1.511	21.14868
1.5115	15.20691
1.512	10.77576
1.5125	7.95593
1.513	8.45947
1.5135	2.71912
1.514	1.10779
1.5145	-2.31628
1.515	-4.22974
1.5155	-10.77576
1.516	-2.81982
1.5165	-1.00708
1.517	3.7262
1.5175	3.8269
1.518	9.66797
1.5185	4.73328
1.519	10.0708
1.5195	6.3446
1.52	5.84106
1.5205	9.76868
1.521	9.97009
1.5215	10.67505
1.522	10.97717
1.5225	11.78284
1.523	11.88354
1.5235	11.07788
1.524	9.46655
1.5245	9.56726
1.525	9.06372
1.5255	11.38
1.526	5.33752
1.5265	0.30212
1.527	1.2085
1.5275	7.95593
1.528	6.94885
1.5285	12.38708
1.529	8.05664
1.5295	8.05664
1.53	7.15027
1.5305	14.60266
1.531	8.35876
1.5315	12.78992
1.532	12.18567
1.5325	3.92761
1.533	5.0354
1.5335	5.53894
1.534	4.22974
1.5345	0.60425
1.535	0.70496
1.5355	-6.94885
1.536	-6.54602
1.5365	-10.57434
1.537	-4.12903
1.5375	-4.73328
1.538	-3.92761
1.5385	-3.02124
1.539	0.20142
1.5395	-0.70496
1.54	3.02124
1.5405	-0.30212
1.541	1.10779
1.5415	-1.81274
1.542	-4.53186
1.5425	-0.60425
1.543	-4.02832
1.5435	6.84814
1.544	5.13611
1.5445	6.04248
1.545	12.38708
1.5455	14.30054
1.546	15.40833
1.5465	11.48071
1.547	18.73169
1.5475	21.04797
1.548	18.8324
1.5485	19.94019
1.549	18.12744
1.5495	20.34302
1.55	16.81824
1.5505	15.40833
1.551	17.6239
1.5515	20.24231
1.552	22.15576
1.5525	20.74585
1.553	10.57434
1.5535	8.15735
1.554	2.92053
1.5545	-1.2085
1.555	-3.22266
1.5555	2.31628
1.556	-6.94885
1.5565	-10.37292
1.557	-11.48071
1.5575	-3.62549
1.558	-1.71204
1.5585	-2.81982
1.559	-1.71204
1.5595	-9.46655
1.56	-7.25098
1.5605	-2.71912
1.561	0.70496
1.5615	9.97009
1.562	4.73328
1.5625	6.54602
1.563	2.92053
1.5635	4.33044
1.564	0.70496
1.5645	-9.26514
1.565	0
1.5655	-2.92053
1.566	-2.21558
1.5665	0
1.567	1.3092
1.5675	2.31628
1.568	0.60425
1.5685	-2.71912
1.569	2.5177
1.5695	1.3092
1.57	-2.41699
1.5705	-4.93469
1.571	3.42407
1.5715	0.80566
1.572	2.81982
1.5725	5.13611
1.573	-2.5177
1.5735	0
1.574	1.00708
1.5745	9.06372
1.575	12.18567
1.5755	17.42249
1.576	13.69629
1.5765	10.27222
1.577	14.90479
1.5775	19.53735
1.578	14.50195
1.5785	15.40833
1.579	16.41541
1.5795	18.63098
1.58	18.32886
1.5805	19.83948
1.581	23.26355
1.5815	21.3501
1.582	21.04797
1.5825	15.40833
1.583	12.99133
1.5835	15.91187
1.584	12.68921
1.5845	6.3446
1.585	10.77576
1.5855	14.09912
1.586	8.35876
1.5865	5.63965
1.587	11.17859
1.5875	11.58142
1.588	13.99841
1.5885	19.33594
1.589	20.44373
1.5895	22.05505
1.59	18.42957
1.5905	15.1062
1.591	13.49487
1.5915	13.49487
1.592	7.04956
1.5925	12.99133
1.593	13.797
1.5935	9.56726
1.594	5.84106
1.5945	10.57434
1.595	6.54602
1.5955	8.05664
1.596	-1.81274
1.5965	-2.41699
1.597	-11.98425
1.5975	-10.17151
1.598	-11.78284
1.5985	-7.75452
1.599	-10.57434
1.5995	-5.13611
1.6	6.94885
1.6005	4.73328
1.601	14.70337
1.6015	18.32886
1.602	18.53027
1.6025	11.68213
1.603	17.32178
1.6035	5.53894
1.604	3.22266
1.6045	7.95593
1.605	0
1.6055	-1.61133
1.606	0.80566
1.6065	-0.20142
1.607	1.61133
1.6075	-0.60425
1.608	4.63257
1.6085	-0.20142
1.609	4.33044
1.6095	2.31628
1.61	2.11487
1.6105	5.23682
1.611	-0.60425
1.6115	-0.20142
1.612	0.30212
1.6125	2.81982
1.613	-1.10779
1.6135	-2.41699
1.614	2.01416
1.6145	7.95593
1.615	9.46655
1.6155	4.43115
1.616	8.25806
1.6165	10.77576
1.617	10.97717
1.6175	14.60266
1.618	13.69629
1.6185	22.25647
1.619	24.97559
1.6195	18.8324
1.62	27.29187
1.6205	28.60107
1.621	25.07629
1.6215	27.29187
1.622	24.97559
1.6225	24.97559
1.623	20.74585
1.6235	21.04797
1.624	17.52319
1.6245	15.71045
1.625	8.25806
1.6255	-3.02124
1.626	2.01416
1.6265	1.00708
1.627	-3.22266
1.6275	-11.68213
1.628	-16.21399
1.6285	-12.99133
1.629	-15.40833
1.6295	-18.42957
1.63	-21.95435
1.6305	-13.29346
1.631	-12.28638
1.6315	-3.32336
1.632	-5.33752
1.6325	-6.04248
1.633	-2.31628
1.6335	-4.53186
1.634	3.92761
1.6345	8.56018
1.635	8.7616
1.6355	15.60974
1.636	17.01965
1.6365	19.53735
1.637	23.76709
1.6375	23.56567
1.638	21.04797
1.6385	22.55859
1.639	26.58691
1.6395	28.29895
1.64	26.78833
1.6405	20.04089
1.641	16.71753
1.6415	9.46655
1.642	14.40125
1.6425	5.74036
1.643	-10.97717
1.6435	-13.89771
1.644	-17.01965
1.6445	-22.15576
1.645	-27.6947
1.6455	-22.6593
1.646	-20.04089
1.6465	-20.24231
1.647	-13.69629
1.6475	-19.53735
1.648	-17.92603
1.6485	-17.72461
1.649	-15.00549
1.6495	-19.03381
1.65	-12.89062
1.6505	-3.92761
1.651	3.12195
1.6515	8.56018
1.652	10.27222
1.6525	18.42957
1.653	27.09045
1.6535	18.32886
1.654	18.73169
1.6545	17.01965
1.655	24.16992
1.6555	16.3147
1.656	15.30762
1.6565	15.91187
1.657	10.87646
1.6575	12.08496
1.658	15.30762
1.6585	15.00549
1.659	15.50903
1.6595	10.47363
1.66	8.66089
1.6605	14.09912
1.661	15.30762
1.6615	9.16443
1.662	3.52478
1.6625	2.81982
1.663	-3.7262
1.6635	-4.93469
1.664	-5.53894
1.6645	-6.04248
1.665	-11.17859
1.6655	-9.66797
1.666	-14.60266
1.6665	-9.16443
1.667	-11.17859
1.6675	-9.26514
1.668	-9.46655
1.6685	-7.45239
1.669	1.71204
1.6695	12.48779
1.67	19.13452
1.6705	21.14868
1.671	17.12036
1.6715	9.36584
1.672	8.45947
1.6725	8.7616
1.673	7.35168
1.6735	7.5531
1.674	13.99841
1.6745	15.71045
1.675	17.6239
1.6755	23.36426
1.676	25.37842
1.6765	27.99683
1.677	25.57983
1.6775	22.25647
1.678	19.03381
1.6785	10.77576
1.679	18.32886
1.6795	14.09912
1.68	12.99133
1.6805	20.64514
1.681	22.45789
1.6815	25.27771
1.682	19.03381
1.6825	12.89062
1.683	14.19983
1.6835	7.45239
1.684	3.22266
1.6845	-2.01416
1.685	-7.45239
1.6855	-3.32336
1.686	-1.91345
1.6865	-4.93469
1.687	-3.42407
1.6875	-6.94885
1.688	-1.51062
1.6885	-3.32336
1.689	5.0354
1.6895	7.95593
1.69	7.15027
1.6905	9.97009
1.691	6.64673
1.6915	5.63965
1.692	7.85522
1.6925	9.97009
1.693	2.92053
1.6935	10.37292
1.694	11.38
1.6945	10.97717
1.695	17.82532
1.6955	22.35718
1.696	20.84656
1.6965	22.76001
1.697	26.78833
1.6975	23.36426
1.698	20.94727
1.6985	12.38708
1.699	8.8623
1.6995	7.15027
1.7	0.40283
1.7005	-5.94177
1.701	-7.25098
1.7015	-11.38
1.702	-5.33752
1.7025	-1.61133
1.703	2.11487
1.7035	11.38
1.704	17.6239
1.7045	13.99841
1.705	17.22107
1.7055	17.22107
1.706	12.5885
1.7065	13.09204
1.707	11.98425
1.7075	6.74744
1.708	9.97009
1.7085	12.99133
1.709	6.94885
1.7095	8.35876
1.71	6.74744
1.7105	10.17151
1.711	10.0708
1.7115	14.50195
1.712	14.60266
1.7125	16.21399
1.713	17.42249
1.7135	14.30054
1.714	15.91187
1.7145	8.8623
1.715	5.0354
1.7155	8.66089
1.716	2.41699
1.7165	-1.61133
1.717	-5.94177
1.7175	-9.46655
1.718	-7.95593
1.7185	-6.84814
1.719	-7.95593
1.7195	-7.25098
1.72	-10.97717
1.7205	-11.48071
1.721	-19.33594
1.7215	-19.23523
1.722	-16.41541
1.7225	-18.93311
1.723	-11.78284
1.7235	-4.93469
1.724	11.2793
1.7245	18.53027
1.725	25.68054
1.7255	16.21399
1.726	18.12744
1.7265	18.12744
1.727	19.23523
1.7275	19.13452
1.728	22.15576
1.7285	17.52319
1.729	19.94019
1.7295	24.27063
1.73	25.07629
1.7305	23.06213
1.731	18.8324
1.7315	13.89771
1.732	15.81116
1.7325	13.69629
1.733	19.63806
1.7335	10.0708
1.734	6.64673
1.7345	8.35876
1.735	4.83398
1.7355	6.54602
1.736	9.06372
1.7365	7.15027
1.737	14.19983
1.7375	15.60974
1.738	20.34302
1.7385	16.21399
1.739	14.50195
1.7395	14.30054
1.74	9.36584
1.7405	10.0708
1.741	2.61841
1.7415	-2.61841
1.742	-1.00708
1.7425	-2.92053
1.743	-6.84814
1.7435	-2.01416
1.744	-4.43115
1.7445	-5.63965
1.745	0.90637
1.7455	-2.21558
1.746	-0.10071
1.7465	-4.12903
1.747	-1.10779
1.7475	6.44531
1.748	7.45239
1.7485	17.32178
1.749	22.25647
1.7495	29.80957
1.75	34.74426
1.7505	36.25488
1.751	37.96692
1.7515	30.71594
1.752	19.53735
1.7525	20.1416
1.753	14.50195
1.7535	12.08496
1.754	5.43823
1.7545	3.12195
1.755	-0.70496
1.7555	-0.30212
1.756	-9.56726
1.7565	-17.12036
1.757	-18.53027
1.7575	-12.99133
1.758	-14.09912
1.7585	-18.42957
1.759	-14.09912
1.7595	-5.13611
1.76	2.5177
1.7605	-1.00708
1.761	1.10779
1.7615	-0.60425
1.762	2.11487
1.7625	4.22974
1.763	15.50903
1.7635	27.39258
1.764	28.60107
1.7645	42.49878
1.765	43.80798
1.7655	49.54834
1.766	52.771
1.7665	47.23206
1.767	47.93701
1.7675	44.81506
1.768	38.26904
1.7685	36.85913
1.769	29.91028
1.7695	25.07629
1.77	21.65222
1.7705	14.70337
1.771	8.25806
1.7715	8.96301
1.772	4.83398
1.7725	-6.84814
1.773	-10.97717
1.7735	-16.41541
1.774	-35.34851
1.7745	-47.53418
1.775	-52.06604
1.7755	-55.2887
1.776	-50.2533
1.7765	-38.77258
1.777	-26.48621
1.7775	-19.43665
1.778	-14.50195
1.7785	-3.8269
1.779	-0.10071
1.7795	-5.33752
1.78	-0.90637
1.7805	1.51062
1.781	-0.80566
1.7815	0.20142
1.782	-6.54602
1.7825	1.71204
1.783	4.93469
1.7835	17.92603
1.784	27.39258
1.7845	43.80798
1.785	53.27454
1.7855	55.99365
1.786	54.98657
1.7865	52.16675
1.787	52.771
1.7875	56.19507
1.788	52.16675
1.7885	44.41223
1.789	47.33276
1.7895	36.15417
1.79	47.53418
1.7905	35.14709
1.791	20.64514
1.7915	10.0708
1.792	-0.80566
1.7925	-3.7262
1.793	-3.8269
1.7935	-8.56018
1.794	-8.35876
1.7945	-11.48071
1.795	-6.04248
1.7955	-8.66089
1.796	-6.84814
1.7965	0.50354
1.797	7.15027
1.7975	7.45239
1.798	5.33752
1.7985	8.45947
1.799	2.31628
1.7995	10.17151
1.8	11.98425
1.8005	13.89771
1.801	25.98267
1.8015	24.87488
1.802	24.47205
1.8025	25.07629
1.803	14.30054
1.8035	15.50903
1.804	3.12195
1.8045	-3.62549
1.805	-7.15027
1.8055	-10.0708
1.806	-7.85522
1.8065	-9.97009
1.807	-8.7616
1.8075	-8.8623
1.808	-10.0708
1.8085	-11.58142
1.809	-10.57434
1.8095	-11.17859
1.81	-0.80566
1.8105	-9.76868
1.811	-3.52478
1.8115	-10.27222
1.812	-3.42407
1.8125	-1.81274
1.813	2.01416
1.8135	6.84814
1.814	-0.60425
1.8145	4.02832
1.815	-6.44531
1.8155	-3.92761
1.816	-10.0708
1.8165	-11.38
1.817	-15.00549
1.8175	-12.48779
1.818	7.65381
1.8185	15.91187
1.819	16.51611
1.8195	20.04089
1.82	21.55151
1.8205	30.2124
1.821	32.7301
1.8215	31.4209
1.822	19.43665
1.8225	11.68213
1.823	7.15027
1.8235	6.04248
1.824	7.75452
1.8245	4.93469
1.825	8.45947
1.8255	3.42407
1.826	5.94177
1.8265	6.14319
1.827	2.21558
1.8275	-1.51062
1.828	-1.40991
1.8285	-8.25806
1.829	-7.75452
1.8295	-12.38708
1.83	-13.19275
1.8305	-0.70496
1.831	1.71204
1.8315	14.90479
1.832	18.53027
1.8325	18.12744
1.833	23.06213
1.8335	19.63806
1.834	14.30054
1.8345	12.28638
1.835	5.0354
1.8355	6.14319
1.836	1.2085
1.8365	4.22974
1.837	6.2439
1.8375	7.25098
1.838	4.73328
1.8385	7.04956
1.839	4.63257
1.8395	3.8269
1.84	6.3446
1.8405	11.2793
1.841	14.30054
1.8415	19.33594
1.842	23.36426
1.8425	27.99683
1.843	31.32019
1.8435	24.67346
1.844	25.78125
1.8445	28.9032
1.845	21.95435
1.8455	14.30054
1.846	5.53894
1.8465	-2.11487
1.847	-3.32336
1.8475	-3.02124
1.848	-5.74036
1.8485	1.81274
1.849	-0.60425
1.8495	-5.33752
1.85	-7.45239
1.8505	-5.43823
1.851	-0.50354
1.8515	-0.80566
1.852	-5.0354
1.8525	3.32336
1.853	4.53186
1.8535	-0.90637
1.854	3.32336
1.8545	1.61133
1.855	0.40283
1.8555	-3.62549
1.856	-6.54602
1.8565	-7.15027
1.857	-4.73328
1.8575	-1.91345
1.858	-1.10779
1.8585	0.60425
1.859	5.23682
1.8595	6.94885
1.86	6.94885
1.8605	12.48779
1.861	11.2793
1.8615	14.19983
1.862	17.82532
1.8625	25.37842
1.863	20.74585
1.8635	14.40125
1.864	7.15027
1.8645	11.2793
1.865	3.32336
1.8655	11.07788
1.866	11.78284
1.8665	5.53894
1.867	3.32336
1.8675	0.50354
1.868	-4.53186
1.8685	-13.99841
1.869	-24.47205
1.8695	-35.44922
1.87	-37.36267
1.8705	-39.47754
1.871	-30.91736
1.8715	-26.18408
1.872	-26.08337
1.8725	-18.8324
1.873	-10.77576
1.8735	-6.54602
1.874	-6.94885
1.8745	-2.31628
1.875	-0.90637
1.8755	-8.05664
1.876	-1.91345
1.8765	11.98425
1.877	11.38
1.8775	10.37292
1.878	8.7616
1.8785	11.88354
1.879	16.41541
1.8795	6.14319
1.88	1.10779
1.8805	8.35876
1.881	4.02832
1.8815	0.50354
1.882	2.31628
1.8825	16.91895
1.883	24.27063
1.8835	30.91736
1.884	41.39099
1.8845	40.78674
1.885	33.33435
1.8855	19.63806
1.886	6.94885
1.8865	-2.11487
1.887	-4.73328
1.8875	-5.94177
1.888	-7.15027
1.8885	-11.17859
1.889	-12.99133
1.8895	-7.95593
1.89	-3.42407
1.8905	-7.04956
1.891	-10.67505
1.8915	-16.21399
1.892	-10.47363
1.8925	-12.08496
1.893	-5.53894
1.8935	-4.33044
1.894	0.70496
1.8945	1.91345
1.895	0.90637
1.8955	3.02124
1.896	11.07788
1.8965	20.54443
1.897	22.86072
1.8975	26.08337
1.898	15.71045
1.8985	10.77576
1.899	9.16443
1.8995	12.38708
1.9	8.15735
1.9005	17.32178
1.901	21.55151
1.9015	24.47205
1.902	21.85364
1.9025	21.45081
1.903	21.3501
1.9035	16.01257
1.904	7.85522
1.9045	12.99133
1.905	7.45239
1.9055	-3.92761
1.906	-0.80566
1.9065	-1.91345
1.907	-4.73328
1.9075	-7.45239
1.908	-5.0354
1.9085	-7.5531
1.909	-8.8623
1.9095	-10.37292
1.91	-2.11487
1.9105	-1.3092
1.911	3.62549
1.9115	6.3446
1.912	14.19983
1.9125	9.06372
1.913	1.3092
1.9135	1.51062
1.914	-2.71912
1.9145	-2.01416
1.915	-2.5177
1.9155	-6.84814
1.916	-5.33752
1.9165	-8.15735
1.917	-6.2439
1.9175	2.81982
1.918	6.14319
1.9185	10.87646
1.919	21.85364
1.9195	31.62231
1.92	23.36426
1.9205	24.47205
1.921	16.61682
1.9215	8.15735
1.922	8.45947
1.9225	12.18567
1.923	-0.10071
1.9235	-5.0354
1.924	-8.05664
1.9245	-11.48071
1.925	-22.15576
1.9255	-24.16992
1.926	-25.177
1.9265	-30.51453
1.927	-28.9032
1.9275	-23.76709
1.928	-26.98975
1.9285	-21.75293
1.929	-17.82532
1.9295	-6.74744
1.93	-4.43115
1.9305	2.41699
1.931	-3.22266
1.9315	4.83398
1.932	5.43823
1.9325	6.64673
1.933	9.76868
1.9335	6.94885
1.934	7.65381
1.9345	9.97009
1.935	10.47363
1.9355	6.14319
1.936	14.40125
1.9365	14.50195
1.937	12.68921
1.9375	13.09204
1.938	4.73328
1.9385	9.46655
1.939	8.35876
1.9395	5.33752
1.94	2.61841
1.9405	0.60425
1.941	2.71912
1.9415	0.80566
1.942	-6.14319
1.9425	-9.06372
1.943	-12.28638
1.9435	-16.11328
1.944	-10.37292
1.9445	-10.27222
1.945	-7.25098
1.9455	-5.84106
1.946	1.61133
1.9465	5.43823
1.947	5.13611
1.9475	3.52478
1.948	3.42407
1.9485	-0.90637
1.949	0.90637
1.9495	4.43115
1.95	4.73328
1.9505	5.94177
1.951	9.36584
1.9515	11.68213
1.952	14.80408
1.9525	13.39417
1.953	12.48779
1.9535	11.68213
1.954	11.58142
1.9545	6.64673
1.955	9.66797
1.9555	9.26514
1.956	0.10071
1.9565	-4.02832
1.957	-3.7262
1.9575	-3.92761
1.958	-4.83398
1.9585	7.85522
1.959	8.15735
1.9595	4.53186
1.96	2.92053
1.9605	4.53186
1.961	9.76868
1.9615	16.41541
1.962	17.72461
1.9625	20.44373
1.963	21.04797
1.9635	11.38
1.964	2.5177
1.9645	5.13611
1.965	-0.20142
1.9655	-3.32336
1.966	-6.94885
1.9665	-11.17859
1.967	-15.40833
1.9675	-9.36584
1.968	-1.10779
1.9685	2.31628
1.969	4.12903
1.9695	2.01416
1.97	3.32336
1.9705	3.8269
1.971	10.77576
1.9715	15.60974
1.972	14.80408
1.9725	12.28638
1.973	12.38708
1.9735	15.91187
1.974	21.65222
1.9745	21.24939
1.975	22.15576
1.9755	15.71045
1.976	8.15735
1.9765	1.71204
1.977	-1.2085
1.9775	0.40283
1.978	1.2085
1.9785	5.0354
1.979	11.58142
1.9795	10.37292
1.98	11.48071
1.9805	11.88354
1.981	9.46655
1.9815	7.04956
1.982	8.45947
1.9825	6.04248
1.983	-3.22266
1.9835	3.62549
1.984	2.21558
1.9845	11.48071
1.985	9.16443
1.9855	-1.51062
1.986	-6.14319
1.9865	-4.02832
1.987	-16.41541
1.9875	-20.1416
1.988	-22.05505
1.9885	-23.36426
1.989	-30.31311
1.9895	-30.01099
1.99	-29.60815
1.9905	-19.53735
1.991	-4.22974
1.9915	-1.2085
1.992	1.40991
1.9925	3.32336
1.993	16.51611
1.9935	14.80408
1.994	15.50903
1.9945	17.42249
1.995	23.76709
1.9955	16.81824
1.996	17.12036
1.9965	10.47363
1.997	9.66797
1.9975	9.06372
1.998	9.46655
1.9985	7.75452
1.999	11.68213
1.9995	8.25806
2	8.7616
2.0005	11.78284
2.001	9.36584
2.0015	8.56018
2.002	9.56726
2.0025	7.85522
2.003	13.797
2.0035	4.63257
2.004	-1.91345
2.0045	-4.22974
2.005	-2.81982
2.0055	-2.5177
2.006	-3.12195
2.0065	-5.74036
2.007	-1.91345
2.0075	-2.5177
2.008	1.61133
2.0085	5.94177
2.009	8.56018
2.0095	14.60266
2.01	13.19275
2.0105	11.88354
2.011	16.91895
2.0115	16.81824
2.012	26.48621
2.0125	23.56567
2.013	17.92603
2.0135	20.94727
2.014	25.27771
2.0145	14.80408
2.015	18.12744
2.0155	19.23523
2.016	16.41541
2.0165	14.60266
2.017	5.43823
2.0175	-2.01416
2.018	-5.74036
2.0185	-4.02832
2.019	-10.67505
2.0195	-11.38
2.02	-8.15735
2.0205	-1.2085
2.021	-10.27222
2.0215	-11.17859
2.022	-14.30054
2.0225	-13.89771
2.023	-12.18567
2.0235	-7.65381
2.024	-3.8269
2.0245	-3.42407
2.025	-0.10071
2.0255	-1.2085
2.026	0.90637
2.0265	3.62549
2.027	7.65381
2.0275	7.15027
2.028	4.93469
2.0285	6.84814
2.029	10.57434
2.0295	7.25098
2.03	11.07788
2.0305	12.08496
2.031	17.22107
2.0315	17.12036
2.032	14.19983
2.0325	20.44373
2.033	15.1062
2.0335	13.29346
2.034	13.99841
2.0345	18.22815
2.035	13.59558
2.0355	15.81116
2.036	19.53735
2.0365	21.65222
2.037	24.67346
2.0375	28.60107
2.038	27.59399
2.0385	31.92444
2.039	31.4209
2.0395	34.84497
2.04	23.56567
2.0405	21.04797
2.041	15.91187
2.0415	15.81116
2.042	10.37292
2.0425	2.92053
2.043	1.91345
2.0435	-7.04956
2.044	-13.69629
2.0445	-20.94727
2.045	-19.23523
2.0455	-29.30603
2.046	-30.61523
2.0465	-25.47913
2.047	-27.09045
2.0475	-23.26355
2.048	-22.55859
2.0485	-20.94727
2.049	-11.88354
2.0495	-8.35876
2.05	-13.797
2.0505	-10.77576
2.051	0
2.0515	-1.00708
2.052	4.83398
2.0525	7.5531
2.053	7.75452
2.0535	12.08496
2.054	13.39417
2.0545	10.17151
2.055	4.83398
2.0555	7.5531
2.056	14.50195
2.0565	22.96143
2.057	20.44373
2.0575	22.35718
2.058	18.73169
2.0585	19.23523
2.059	20.64514
2.0595	21.85364
2.06	18.73169
2.0605	15.00549
2.061	21.3501
2.0615	18.42957
2.062	19.33594
2.0625	17.22107
2.063	16.01257
2.0635	12.99133
2.064	12.68921
2.0645	7.35168
2.065	5.84106
2.0655	1.3092
2.066	2.71912
2.0665	1.00708
2.067	-2.81982
2.0675	3.8269
2.068	8.05664
2.0685	15.00549
2.069	21.55151
2.0695	28.80249
2.07	34.84497
2.0705	26.28479
2.071	34.44214
2.0715	30.11169
2.072	30.41382
2.0725	32.22656
2.073	30.81665
2.0735	24.67346
2.074	17.82532
2.0745	13.797
2.075	9.26514
2.0755	5.63965
2.076	3.22266
2.0765	-2.31628
2.077	-6.04248
2.0775	-10.77576
2.078	-4.02832
2.0785	-7.85522
2.079	0.70496
2.0795	2.5177
2.08	1.81274
2.0805	4.33044
2.081	-5.23682
2.0815	-13.89771
2.082	-18.73169
2.0825	-20.24231
2.083	-23.76709
2.0835	-24.97559
2.084	-22.6593
2.0845	-23.76709
2.085	-10.57434
2.0855	-11.78284
2.086	-6.04248
2.0865	4.43115
2.087	7.5531
2.0875	19.43665
2.088	28.39966
2.0885	23.46497
2.089	15.40833
2.0895	10.57434
2.09	13.49487
2.0905	26.68762
2.091	32.32727
2.0915	29.60815
2.092	21.75293
2.0925	12.89062
2.093	5.63965
2.0935	3.02124
2.094	1.2085
2.0945	5.84106
2.095	4.02832
2.0955	2.31628
2.096	-2.5177
2.0965	-6.3446
2.097	-14.90479
2.0975	-13.49487
2.098	-5.13611
2.0985	-2.92053
2.099	-0.40283
2.0995	-1.81274
2.1	5.53894
2.1005	-2.01416
2.101	3.12195
2.1015	2.01416
2.102	8.56018
2.1025	11.58142
2.103	7.35168
2.1035	11.38
2.104	5.94177
2.1045	9.76868
2.105	8.8623
2.1055	15.20691
2.106	19.23523
2.1065	22.45789
2.107	18.8324
2.1075	24.47205
2.108	23.66638
2.1085	22.45789
2.109	24.47205
2.1095	25.07629
2.11	33.73718
2.1105	35.04639
2.111	33.23364
2.1115	33.13293
2.112	26.98975
2.1125	21.24939
2.113	19.33594
2.1135	24.77417
2.114	20.74585
2.1145	5.43823
2.115	-7.04956
2.1155	-16.71753
2.116	-34.03931
2.1165	-36.05347
2.117	-33.53577
2.1175	-29.10461
2.118	-22.6593
2.1185	-21.85364
2.119	-14.90479
2.1195	-15.1062
2.12	-11.2793
2.1205	-7.85522
2.121	-11.68213
2.1215	-14.19983
2.122	-10.97717
2.1225	-8.45947
2.123	-1.81274
2.1235	-6.3446
2.124	-5.74036
2.1245	-1.3092
2.125	1.91345
2.1255	14.19983
2.126	8.96301
2.1265	4.83398
2.127	10.27222
2.1275	10.37292
2.128	5.53894
2.1285	6.74744
2.129	7.35168
2.1295	12.99133
2.13	13.797
2.1305	18.63098
2.131	26.28479
2.1315	31.72302
2.132	39.57825
2.1325	37.7655
2.133	33.63647
2.1335	25.68054
2.134	26.48621
2.1345	17.92603
2.135	21.75293
2.1355	21.95435
2.136	19.53735
2.1365	7.04956
2.137	11.07788
2.1375	14.19983
2.138	16.41541
2.1385	17.82532
2.139	18.32886
2.1395	20.74585
2.14	14.30054
2.1405	5.33752
2.141	12.28638
2.1415	9.56726
2.142	16.91895
2.1425	18.93311
2.143	12.38708
2.1435	14.70337
2.144	14.09912
2.1445	15.50903
2.145	11.07788
2.1455	3.22266
2.146	3.32336
2.1465	2.11487
2.147	-6.44531
2.1475	-11.98425
2.148	-17.92603
2.1485	-17.32178
2.149	-16.71753
2.1495	-4.33044
2.15	-6.14319
2.1505	-1.71204
2.151	-1.3092
2.1515	-5.63965
2.152	0.40283
2.1525	9.36584
2.153	6.84814
2.1535	8.56018
2.154	4.33044
2.1545	12.99133
2.155	12.28638
2.1555	20.1416
2.156	27.39258
2.1565	31.4209
2.157	36.25488
2.1575	33.33435
2.158	30.81665
2.1585	33.83789
2.159	23.36426
2.1595	19.13452
2.16	5.53894
2.1605	-0.60425
2.161	4.63257
2.1615	2.01416
2.162	3.62549
2.1625	-2.81982
2.163	-9.16443
2.1635	-13.99841
2.164	-18.22815
2.1645	-15.00549
2.165	-9.76868
2.1655	-12.89062
2.166	-1.61133
2.1665	-6.3446
2.167	-4.83398
2.1675	4.63257
2.168	6.3446
2.1685	13.69629
2.169	17.01965
2.1695	14.40125
2.17	11.68213
2.1705	16.41541
2.171	16.3147
2.1715	17.72461
2.172	18.02673
2.1725	16.3147
2.173	9.26514
2.1735	6.2439
2.174	4.63257
2.1745	1.81274
2.175	5.13611
2.1755	1.51062
2.176	2.11487
2.1765	-2.5177
2.177	-3.62549
2.1775	-4.22974
2.178	0.80566
2.1785	5.0354
2.179	-5.23682
2.1795	-8.25806
2.18	-13.09204
2.1805	-8.8623
2.181	-15.1062
2.1815	-11.88354
2.182	-3.22266
2.1825	0.20142
2.183	5.53894
2.1835	0.60425
2.184	4.73328
2.1845	6.44531
2.185	14.09912
2.1855	13.29346
2.186	20.84656
2.1865	20.04089
2.187	26.18408
2.1875	20.54443
2.188	16.41541
2.1885	19.63806
2.189	8.66089
2.1895	1.71204
2.19	4.12903
2.1905	2.92053
2.191	-1.51062
2.1915	-7.04956
2.192	-13.29346
2.1925	-10.67505
2.193	-11.68213
2.1935	-12.08496
2.194	1.3092
2.1945	-10.87646
2.195	-9.86938
2.1955	-8.66089
2.196	-7.85522
2.1965	-8.56018
2.197	-8.96301
2.1975	0.90637
2.198	0.70496
2.1985	13.29346
2.199	16.41541
2.1995	13.89771
2.2	9.06372
2.2005	9.86938
2.201	10.77576
2.2015	9.86938
2.202	7.04956
2.2025	15.30762
2.203	12.38708
2.2035	13.09204
2.204	6.3446
2.2045	16.81824
2.205	23.96851
2.2055	23.16284
2.206	23.46497
2.2065	24.97559
2.207	18.02673
2.2075	16.3147
2.208	4.53186
2.2085	6.04248
2.209	6.84814
2.2095	-3.7262
2.21	-5.94177
2.2105	-2.01416
2.211	-0.10071
2.2115	-4.12903
2.212	-4.63257
2.2125	-5.94177
2.213	-1.2085
2.2135	7.15027
2.214	5.74036
2.2145	11.17859
2.215	8.7616
2.2155	6.64673
2.216	11.48071
2.2165	5.63965
2.217	4.83398
2.2175	6.64673
2.218	9.06372
2.2185	8.66089
2.219	4.22974
2.2195	6.04248
2.22	7.85522
2.2205	5.94177
2.221	3.7262
2.2215	3.92761
2.222	5.53894
2.2225	10.67505
2.223	9.16443
2.2235	-1.2085
2.224	2.41699
2.2245	3.8269
2.225	13.797
2.2255	16.11328
2.226	13.89771
2.2265	17.01965
2.227	18.42957
2.2275	12.78992
2.228	12.18567
2.2285	3.42407
2.229	2.31628
2.2295	3.32336
2.23	11.48071
2.2305	2.21558
2.231	5.53894
2.2315	8.45947
2.232	8.25806
2.2325	11.2793
2.233	13.49487
2.2335	7.95593
2.234	8.15735
2.2345	10.87646
2.235	10.77576
2.2355	16.21399
2.236	14.50195
2.2365	8.7616
2.237	12.68921
2.2375	10.27222
2.238	0.20142
2.2385	-3.7262
2.239	-3.8269
2.2395	-2.81982
2.24	1.00708
2.2405	0.90637
2.241	-4.02832
2.2415	-2.31628
2.242	-7.5531
2.2425	-5.74036
2.243	-4.33044
2.2435	-1.51062
2.244	1.51062
2.2445	3.12195
2.245	-0.90637
2.2455	3.12195
2.246	0.40283
2.2465	1.51062
2.247	2.21558
2.2475	4.02832
2.248	4.63257
2.2485	3.12195
2.249	-0.80566
2.2495	-0.30212
2.25	-5.74036
2.2505	3.32336
2.251	6.44531
2.2515	3.7262
2.252	2.81982
2.2525	8.15735
2.253	9.76868
2.2535	10.97717
2.254	11.17859
2.2545	8.15735
2.255	16.11328
2.2555	15.50903
2.256	16.3147
2.2565	19.33594
2.257	21.24939
2.2575	11.58142
2.258	15.00549
2.2585	18.32886
2.259	17.92603
2.2595	20.54443
2.26	21.95435
2.2605	29.30603
2.261	25.27771
2.2615	16.01257
2.262	10.27222
2.2625	1.10779
2.263	-9.26514
2.2635	-12.28638
2.264	-14.09912
2.2645	-17.12036
2.265	-25.177
2.2655	-39.57825
2.266	-38.36975
2.2665	-33.83789
2.267	-28.29895
2.2675	-33.83789
2.268	-32.42798
2.2685	-31.21948
2.269	-26.98975
2.2695	-20.94727
2.27	-18.53027
2.2705	-7.95593
2.271	-1.61133
2.2715	-4.63257
2.272	-8.35876
2.2725	-7.85522
2.273	-6.44531
2.2735	-11.48071
2.274	-8.56018
2.2745	-4.02832
2.275	-4.83398
2.2755	0.10071
2.276	5.84106
2.2765	9.56726
2.277	11.38
2.2775	6.3446
2.278	-1.2085
2.2785	0.50354
2.279	1.3092
2.2795	-0.90637
2.28	8.96301
2.2805	7.04956
2.281	9.16443
2.2815	11.07788
2.282	13.19275
2.2825	18.53027
2.283	12.89062
2.2835	17.22107
2.284	14.60266
2.2845	11.17859
2.285	9.56726
2.2855	19.73877
2.286	15.00549
2.2865	16.71753
2.287	18.22815
2.2875	17.12036
2.288	26.28479
2.2885	19.63806
2.289	22.96143
2.2895	25.47913
2.29	23.66638
2.2905	21.45081
2.291	12.99133
2.2915	6.44531
2.292	1.81274
2.2925	3.12195
2.293	-5.74036
2.2935	-2.31628
2.294	-3.62549
2.2945	-5.13611
2.295	3.92761
2.2955	1.10779
2.296	6.14319
2.2965	-6.74744
2.297	-6.04248
2.2975	-8.66089
2.298	-3.12195
2.2985	0.20142
2.299	-1.51062
2.2995	-7.04956
2.3	-13.49487
2.3005	-10.47363
2.301	-9.36584
2.3015	-9.76868
2.302	-5.74036
2.3025	-1.61133
2.303	-1.91345
2.3035	-1.61133
2.304	-0.40283
2.3045	-0.80566
2.305	-0.20142
2.3055	4.63257
2.306	5.23682
2.3065	9.36584
2.307	9.26514
2.3075	8.05664
2.308	-0.60425
2.3085	-0.60425
2.309	-4.33044
2.3095	-2.92053
2.31	0.20142
2.3105	1.40991
2.311	8.56018
2.3115	11.68213
2.312	3.62549
2.3125	6.84814
2.313	9.97009
2.3135	9.66797
2.314	9.16443
2.3145	11.17859
2.315	11.07788
2.3155	15.81116
2.316	16.91895
2.3165	13.89771
2.317	7.5531
2.3175	0.30212
2.318	1.61133
2.3185	1.10779
2.319	0.60425
2.3195	4.43115
2.32	-4.83398
2.3205	-4.53186
2.321	-8.56018
2.3215	-9.26514
2.322	-7.5531
2.3225	-12.18567
2.323	-7.65381
2.3235	2.61841
2.324	-1.2085
2.3245	3.62549
2.325	6.74744
2.3255	11.07788
2.326	12.5885
2.3265	15.60974
2.327	12.48779
2.3275	19.83948
2.328	26.88904
2.3285	24.16992
2.329	14.90479
2.3295	10.77576
2.33	10.97717
2.3305	10.57434
2.331	19.83948
2.3315	25.98267
2.332	24.06921
2.3325	22.45789
2.333	12.38708
2.3335	6.04248
2.334	12.89062
2.3345	12.48779
2.335	11.98425
2.3355	8.66089
2.336	1.61133
2.3365	5.63965
2.337	5.63965
2.3375	7.5531
2.338	3.62549
2.3385	0.20142
2.339	3.12195
2.3395	1.10779
2.34	-13.89771
2.3405	-15.71045
2.341	-14.90479
2.3415	-20.04089
2.342	-21.55151
2.3425	-6.14319
2.343	-4.73328
2.3435	10.0708
2.344	22.35718
2.3445	32.32727
2.345	35.34851
2.3455	45.82214
2.346	47.7356
2.3465	43.30444
2.347	24.97559
2.3475	19.43665
2.348	18.02673
2.3485	16.61682
2.349	2.71912
2.3495	-4.12903
2.35	-12.68921
2.3505	-27.19116
2.351	-37.26196
2.3515	-50.55542
2.352	-62.53967
2.3525	-62.23755
2.353	-47.63489
2.3535	-35.04639
2.354	-30.2124
2.3545	-25.57983
2.355	-14.60266
2.3555	-3.42407
2.356	0.50354
2.3565	11.88354
2.357	16.81824
2.3575	11.78284
2.358	16.51611
2.3585	19.83948
2.359	25.98267
2.3595	28.70178
2.36	33.03223
2.3605	39.77966
2.361	38.57117
2.3615	35.14709
2.362	25.68054
2.3625	24.06921
2.363	12.5885
2.3635	7.65381
2.364	1.2085
2.3645	-3.92761
2.365	-7.04956
2.3655	-11.2793
2.366	-12.48779
2.3665	-18.63098
2.367	-24.67346
2.3675	-29.80957
2.368	-31.01807
2.3685	-32.93152
2.369	-29.50745
2.3695	-35.34851
2.37	-47.53418
2.3705	-51.66321
2.371	-35.85205
2.3715	-22.76001
2.372	-13.59558
2.3725	0.40283
2.373	4.83398
2.3735	12.99133
2.374	27.59399
2.3745	34.84497
2.375	26.08337
2.3755	24.37134
2.376	19.53735
2.3765	16.01257
2.377	14.50195
2.3775	19.13452
2.378	22.86072
2.3785	30.01099
2.379	26.58691
2.3795	29.70886
2.38	25.177
2.3805	23.06213
2.381	20.54443
2.3815	26.3855
2.382	25.78125
2.3825	16.61682
2.383	10.57434
2.3835	9.97009
2.384	7.5531
2.3845	11.38
2.385	8.25806
2.3855	5.23682
2.386	-4.02832
2.3865	-10.97717
2.387	-9.06372
2.3875	-12.89062
2.388	-5.84106
2.3885	-8.66089
2.389	-10.67505
2.3895	-5.43823
2.39	-0.50354
2.3905	3.42407
2.391	9.36584
2.3915	9.46655
2.392	9.56726
2.3925	7.25098
2.393	4.02832
2.3935	2.71912
2.394	-7.75452
2.3945	-2.5177
2.395	1.61133
2.3955	3.12195
2.396	9.36584
2.3965	-2.21558
2.397	-1.91345
2.3975	-5.53894
2.398	-7.25098
2.3985	-12.78992
2.399	-11.58142
2.3995	-9.66797
2.4	-10.47363
2.4005	2.01416
2.401	3.7262
2.4015	1.3092
2.402	1.2085
2.4025	4.33044
2.403	3.42407
2.4035	8.56018
2.404	10.77576
2.4045	10.57434
2.405	5.13611
2.4055	4.12903
2.406	1.00708
2.4065	-3.02124
2.407	5.63965
2.4075	4.73328
2.408	0.70496
2.4085	-19.94019
2.409	-37.7655
2.4095	-48.23914
2.41	-51.46179
2.4105	-46.02356
2.411	-40.1825
2.4115	-22.05505
2.412	-12.89062
2.4125	-1.2085
2.413	10.77576
2.4135	20.74585
2.414	19.43665
2.4145	12.08496
2.415	14.50195
2.4155	16.81824
2.416	17.42249
2.4165	20.74585
2.417	27.79541
2.4175	25.88196
2.418	22.25647
2.4185	19.23523
2.419	24.67346
2.4195	37.36267
2.42	33.13293
2.4205	31.32019
2.421	24.87488
2.4215	31.52161
2.422	28.70178
2.4225	30.2124
2.423	25.47913
2.4235	21.14868
2.424	26.48621
2.4245	24.97559
2.425	18.93311
2.4255	13.29346
2.426	12.5885
2.4265	18.22815
2.427	11.48071
2.4275	8.45947
2.428	9.46655
2.4285	4.12903
2.429	9.66797
2.4295	6.2439
2.43	6.54602
2.4305	1.61133
2.431	1.00708
2.4315	-0.70496
2.432	3.42407
2.4325	-6.54602
2.433	-10.47363
2.4335	-4.53186
2.434	-5.23682
2.4345	-9.36584
2.435	-0.60425
2.4355	-0.30212
2.436	4.43115
2.4365	5.63965
2.437	13.69629
2.4375	18.12744
2.438	24.77417
2.4385	27.29187
2.439	31.52161
2.4395	28.09753
2.44	20.44373
2.4405	15.40833
2.441	11.68213
2.4415	6.04248
2.442	-4.33044
2.4425	-16.91895
2.443	-29.30603
2.4435	-36.85913
2.444	-31.4209
2.4445	-21.75293
2.445	-11.98425
2.4455	-5.63965
2.446	-4.93469
2.4465	9.46655
2.447	15.60974
2.4475	27.99683
2.448	39.37683
2.4485	39.47754
2.449	41.29028
2.4495	54.68445
2.45	57.8064
2.4505	65.56091
2.451	65.76233
2.4515	62.23755
2.452	59.61914
2.4525	47.7356
2.453	40.58533
2.4535	28.9032
2.454	11.88354
2.4545	-5.43823
2.455	-19.33594
2.4555	-37.96692
2.456	-40.08179
2.4565	-32.42798
2.457	-26.68762
2.4575	-20.64514
2.458	-16.11328
2.4585	-13.89771
2.459	-5.23682
2.4595	-5.13611
2.46	-76.43738
2.4605	-13.09204
2.461	4.02832
2.4615	7.85522
2.462	11.58142
2.4625	5.74036
2.463	9.76868
2.4635	8.66089
2.464	8.15735
2.4645	14.19983
2.465	13.19275
2.4655	14.90479
2.466	12.68921
2.4665	10.47363
2.467	13.99841
2.4675	13.29346
2.468	16.11328
2.4685	19.33594
2.469	9.97009
2.4695	15.60974
2.47	3.22266
2.4705	8.45947
2.471	12.48779
2.4715	16.21399
2.472	15.40833
2.4725	19.94019
2.473	16.81824
2.4735	12.78992
2.474	9.86938
2.4745	8.15735
2.475	5.63965
2.4755	7.75452
2.476	6.44531
2.4765	11.48071
2.477	12.89062
2.4775	6.84814
2.478	8.96301
2.4785	5.33752
2.479	-1.81274
2.4795	-0.80566
2.48	2.21558
2.4805	5.33752
2.481	13.89771
2.4815	18.63098
2.482	14.60266
2.4825	19.94019
2.483	18.63098
2.4835	24.97559
2.484	26.48621
2.4845	23.66638
2.485	14.30054
2.4855	3.32336
2.486	0
2.4865	-6.74744
2.487	-6.04248
2.4875	-12.68921
2.488	-8.15735
2.4885	-8.56018
2.489	-1.40991
2.4895	-1.2085
2.49	-0.90637
2.4905	-7.35168
2.491	-6.3446
2.4915	-7.15027
2.492	-10.17151
2.4925	-6.2439
2.493	-8.45947
2.4935	0.30212
2.494	9.66797
2.4945	14.50195
2.495	19.23523
2.4955	22.15576
2.496	21.65222
2.4965	18.63098
2.497	22.96143
2.4975	29.00391
2.498	33.63647
2.4985	28.50037
2.499	26.08337
2.4995	26.58691
2.5	28.29895
2.5005	41.29028
2.501	54.68445
2.5015	51.46179
2.502	43.40515
2.5025	31.11877
2.503	10.27222
2.5035	-8.45947
2.504	-10.57434
2.5045	-13.59558
2.505	-16.21399
2.5055	-14.30054
2.506	-11.38
2.5065	-5.0354
2.507	-2.21558
2.5075	0.50354
2.508	1.81274
2.5085	2.31628
2.509	5.0354
2.5095	13.59558
2.51	11.88354
2.5105	18.42957
2.511	18.22815
2.5115	22.45789
2.512	12.28638
2.5125	13.49487
2.513	10.37292
2.5135	11.58142
2.514	8.66089
2.5145	9.06372
2.515	6.3446
2.5155	7.5531
2.516	5.33752
2.5165	13.09204
2.517	12.99133
2.5175	13.19275
2.518	11.88354
2.5185	10.97717
2.519	14.50195
2.5195	12.08496
2.52	11.98425
2.5205	15.40833
2.521	13.797
2.5215	8.56018
2.522	7.15027
2.5225	10.97717
2.523	12.28638
2.5235	9.66797
2.524	8.35876
2.5245	4.63257
2.525	11.58142
2.5255	10.17151
2.526	9.06372
2.5265	6.64673
2.527	4.12903
2.5275	4.33044
2.528	-2.31628
2.5285	2.41699
2.529	4.63257
2.5295	-2.81982
2.53	-3.12195
2.5305	-5.43823
2.531	-5.33752
2.5315	1.51062
2.532	2.41699
2.5325	-5.43823
2.533	-32.02515
2.5335	-50.45471
2.534	-58.61206
2.5345	-61.53259
2.535	-47.7356
2.5355	-35.34851
2.536	-15.71045
2.5365	-1.00708
2.537	4.43115
2.5375	20.1416
2.538	30.71594
2.5385	33.83789
2.539	28.60107
2.5395	28.60107
2.54	25.27771
2.5405	23.76709
2.541	21.14868
2.5415	12.89062
2.542	15.00549
2.5425	10.77576
2.543	16.41541
2.5435	19.33594
2.544	11.78284
2.5445	10.97717
2.545	19.73877
2.5455	22.35718
2.546	22.55859
2.5465	23.56567
2.547	31.4209
2.5475	21.55151
2.548	3.32336
2.5485	-34.24072
2.549	-49.95117
2.5495	-54.38232
2.55	-39.98108
2.5505	-30.71594
2.551	-12.5885
2.5515	4.53186
2.552	32.02515
2.5525	58.20923
2.553	77.64587
2.5535	92.24854
2.554	99.09668
2.5545	106.9519
2.555	115.61279
2.5555	126.28784
2.556	118.53333
2.5565	118.02979
2.557	100.40588
2.5575	72.00623
2.558	40.68604
2.5585	13.797
2.559	-15.91187
2.5595	-42.39807
2.56	-58.20923
2.5605	-52.06604
2.561	-48.84338
2.5615	-30.61523
2.562	-18.32886
2.5625	-16.11328
2.563	-0.60425
2.5635	-3.02124
2.564	0.40283
2.5645	0.10071
2.565	9.16443
2.5655	2.92053
2.566	4.02832
2.5665	5.43823
2.567	0.30212
2.5675	-0.40283
2.568	5.23682
2.5685	-1.00708
2.569	1.91345
2.5695	-0.30212
2.57	-6.44531
2.5705	-8.66089
2.571	-5.23682
2.5715	2.11487
2.572	7.35168
2.5725	4.43115
2.573	2.41699
2.5735	3.32336
2.574	7.95593
2.5745	10.17151
2.575	20.1416
2.5755	14.50195
2.576	12.28638
2.5765	14.09912
2.577	27.39258
2.5775	28.9032
2.578	27.59399
2.5785	17.82532
2.579	11.48071
2.5795	0.50354
2.58	0.70496
2.5805	-6.94885
2.581	-1.2085
2.5815	-6.54602
2.582	-3.92761
2.5825	-7.25098
2.583	-7.65381
2.5835	-5.53894
2.584	-9.46655
2.5845	-4.43115
2.585	-0.10071
2.5855	-0.30212
2.586	3.22266
2.5865	-0.60425
2.587	-3.32336
2.5875	-3.32336
2.588	-4.43115
2.5885	3.12195
2.589	6.44531
2.5895	12.68921
2.59	13.69629
2.5905	4.12903
2.591	4.63257
2.5915	5.23682
2.592	5.74036
2.5925	8.35876
2.593	14.19983
2.5935	16.41541
2.594	17.82532
2.5945	10.57434
2.595	12.18567
2.5955	14.50195
2.596	11.07788
2.5965	8.56018
2.597	13.29346
2.5975	6.74744
2.598	2.5177
2.5985	-6.3446
2.599	-10.37292
2.5995	-15.30762
2.6	-20.1416
2.6005	-11.98425
2.601	-14.90479
2.6015	-17.01965
2.602	-10.0708
2.6025	-6.3446
2.603	-16.01257
2.6035	-11.88354
2.604	-8.56018
2.6045	-4.12903
2.605	-3.02124
2.6055	2.61841
2.606	2.21558
2.6065	1.61133
2.607	3.12195
2.6075	1.51062
2.608	-3.12195
2.6085	-3.02124
2.609	1.3092
2.6095	2.61841
2.61	4.53186
2.6105	8.45947
2.611	11.38
2.6115	3.7262
2.612	-17.22107
2.6125	-45.3186
2.613	-61.53259
2.6135	-65.56091
2.614	-60.4248
2.6145	-49.0448
2.615	-30.01099
2.6155	-9.86938
2.616	7.95593
2.6165	23.36426
2.617	36.95984
2.6175	45.11719
2.618	61.43188
2.6185	79.55933
2.619	74.82605
2.6195	54.98657
2.62	32.22656
2.6205	27.49329
2.621	35.85205
2.6215	33.03223
2.622	25.177
2.6225	24.06921
2.623	16.51611
2.6235	15.50903
2.624	18.22815
2.6245	19.53735
2.625	29.91028
2.6255	25.07629
2.626	29.00391
2.6265	27.99683
2.627	40.58533
2.6275	39.07471
2.628	30.71594
2.6285	27.89612
2.629	19.83948
2.6295	17.32178
2.63	12.28638
2.6305	6.3446
2.631	5.63965
2.6315	5.0354
2.632	4.93469
2.6325	2.01416
2.633	1.00708
2.6335	2.5177
2.634	7.95593
2.6345	9.16443
2.635	3.52478
2.6355	-17.42249
2.636	-41.69312
2.6365	-54.98657
2.637	-49.95117
2.6375	-52.36816
2.638	-48.54126
2.6385	-42.59949
2.639	-22.35718
2.6395	3.12195
2.64	11.88354
2.6405	22.96143
2.641	25.177
2.6415	30.81665
2.642	35.65063
2.6425	33.53577
2.643	24.37134
2.6435	13.69629
2.644	9.06372
2.6445	3.12195
2.645	-5.0354
2.6455	-8.66089
2.646	-24.97559
2.6465	-40.08179
2.647	-36.25488
2.6475	-24.67346
2.648	-22.86072
2.6485	-15.1062
2.649	-23.26355
2.6495	-12.48779
2.65	-5.53894
2.6505	10.57434
2.651	11.58142
2.6515	-4.12903
2.652	-13.19275
2.6525	-14.90479
2.653	-9.16443
2.6535	-7.35168
2.654	9.06372
2.6545	19.53735
2.655	28.39966
2.6555	38.06763
2.656	41.89453
2.6565	47.53418
2.657	49.85046
2.6575	46.62781
2.658	41.29028
2.6585	34.54285
2.659	33.33435
2.6595	18.63098
2.66	11.98425
2.6605	12.38708
2.661	19.73877
2.6615	25.27771
2.662	19.94019
2.6625	10.97717
2.663	18.32886
2.6635	28.39966
2.664	34.54285
2.6645	23.66638
2.665	26.48621
2.6655	21.3501
2.666	23.76709
2.6665	24.27063
2.667	22.6593
2.6675	7.75452
2.668	-4.53186
2.6685	-12.5885
2.669	-21.45081
2.6695	-40.1825
2.67	-36.75842
2.6705	-37.36267
2.671	-34.74426
2.6715	-29.20532
2.672	-30.2124
2.6725	-24.27063
2.673	-16.11328
2.6735	-16.3147
2.674	-19.94019
2.6745	-17.42249
2.675	-7.35168
2.6755	0.20142
2.676	10.67505
2.6765	26.28479
2.677	42.19666
2.6775	51.66321
2.678	48.33984
2.6785	51.76392
2.679	64.95667
2.6795	67.77649
2.68	73.91968
2.6805	69.58923
2.681	48.64197
2.6815	32.12585
2.682	15.50903
2.6825	2.92053
2.683	-4.93469
2.6835	-13.49487
2.684	-24.06921
2.6845	-29.00391
2.685	-25.68054
2.6855	-26.3855
2.686	-30.91736
2.6865	-27.6947
2.687	-25.07629
2.6875	-21.24939
2.688	-17.72461
2.6885	-12.08496
2.689	-10.87646
2.6895	-8.15735
2.69	-2.01416
2.6905	-7.25098
2.691	-8.15735
2.6915	-5.84106
2.692	-8.96301
2.6925	-7.15027
2.693	-10.87646
2.6935	-5.84106
2.694	-5.43823
2.6945	-6.64673
2.695	0.40283
2.6955	-3.02124
2.696	0.90637
2.6965	6.3446
2.697	-1.3092
2.6975	-9.46655
2.698	-33.23364
2.6985	-51.15967
2.699	-49.24622
2.6995	-43.60657
2.7	-44.91577
2.7005	-43.20374
2.701	-41.4917
2.7015	-37.26196
2.702	-23.46497
2.7025	-7.35168
2.703	2.5177
2.7035	7.35168
2.704	24.67346
2.7045	42.90161
2.705	50.55542
2.7055	52.36816
2.706	55.08728
2.7065	62.03613
2.707	63.44604
2.7075	66.46729
2.708	57.9071
2.7085	51.15967
2.709	33.43506
2.7095	16.91895
2.71	15.30762
2.7105	15.40833
2.711	17.12036
2.7115	17.92603
2.712	13.69629
2.7125	17.82532
2.713	25.57983
2.7135	24.77417
2.714	17.01965
2.7145	15.50903
2.715	10.17151
2.7155	0.90637
2.716	0.40283
2.7165	-10.0708
2.717	-17.42249
2.7175	-24.37134
2.718	-30.2124
2.7185	-33.43506
2.719	-43.10303
2.7195	-67.8772
2.72	-89.63013
2.7205	-89.83154
2.721	-99.60022
2.7215	-108.76465
2.722	-115.31067
2.7225	-113.90076
2.723	-88.42163
2.7235	-71.7041
2.724	-50.354
2.7245	-22.15576
2.725	-13.797
2.7255	22.86072
2.726	52.36816
2.7265	73.61755
2.727	88.62305
2.7275	87.61597
2.728	88.22021
2.7285	89.63013
2.729	95.5719
2.7295	93.96057
2.73	85.29968
2.7305	80.26428
2.731	69.79065
2.7315	68.17932
2.732	66.36658
2.7325	59.92126
2.733	37.26196
2.7335	15.40833
2.734	12.38708
2.7345	-0.30212
2.735	-1.51062
2.7355	-5.84106
2.736	-12.78992
2.7365	-19.03381
2.737	-14.60266
2.7375	-9.36584
2.738	6.04248
2.7385	21.45081
2.739	19.13452
2.7395	8.7616
2.74	3.7262
2.7405	1.2085
2.741	1.00708
2.7415	-3.12195
2.742	3.52478
2.7425	10.67505
2.743	11.2793
2.7435	8.8623
2.744	9.86938
2.7445	4.83398
2.745	13.69629
2.7455	16.11328
2.746	15.40833
2.7465	16.41541
2.747	3.62549
2.7475	-2.21558
2.748	-8.8623
2.7485	-10.37292
2.749	-0.90637
2.7495	8.05664
2.75	12.38708
2.7505	11.98425
2.751	12.08496
2.7515	10.67505
2.752	6.04248
2.7525	2.21558
2.753	6.04248
2.7535	8.35876
2.754	10.17151
2.7545	17.42249
2.755	8.45947
2.7555	10.0708
2.756	13.19275
2.7565	10.87646
2.757	15.30762
2.7575	14.30054
2.758	7.65381
2.7585	7.04956
2.759	7.45239
2.7595	8.8623
2.76	9.46655
2.7605	11.2793
2.761	7.25098
2.7615	11.88354
2.762	11.38
2.7625	4.73328
2.763	6.04248
2.7635	7.25098
2.764	-3.52478
2.7645	4.63257
2.765	3.12195
2.7655	2.41699
2.766	2.11487
2.7665	0.10071
2.767	-2.81982
2.7675	3.12195
2.768	-1.00708
2.7685	-1.3092
2.769	2.61841
2.7695	0.90637
2.77	3.62549
2.7705	2.71912
2.771	1.91345
2.7715	2.71912
2.772	1.51062
2.7725	0.90637
2.773	3.02124
2.7735	-4.22974
2.774	-1.40991
2.7745	-1.40991
2.775	-4.83398
2.7755	-6.14319
2.776	-6.44531
2.7765	-3.32336
2.777	-3.62549
2.7775	-0.60425
2.778	2.71912
2.7785	-0.90637
2.779	0.10071
2.7795	-3.32336
2.78	-0.10071
2.7805	1.3092
2.781	-5.94177
2.7815	-4.43115
2.782	-4.33044
2.7825	-2.21558
2.783	-2.11487
2.7835	-0.60425
2.784	-5.53894
2.7845	-5.23682
2.785	-1.40991
2.7855	2.01416
2.786	5.0354
2.7865	2.71912
2.787	3.92761
2.7875	10.97717
2.788	8.7616
2.7885	5.94177
2.789	7.15027
2.7895	6.84814
2.79	9.66797
2.7905	7.25098
2.791	5.94177
2.7915	7.04956
2.792	4.22974
2.7925	0.40283
2.793	-7.85522
2.7935	-5.94177
2.794	-4.63257
2.7945	-4.33044
2.795	-0.80566
2.7955	2.92053
2.796	9.26514
2.7965	5.0354
2.797	15.00549
2.7975	14.50195
2.798	10.97717
2.7985	21.85364
2.799	24.97559
2.7995	19.53735
2.8	21.75293
2.8005	23.46497
2.801	25.177
2.8015	26.78833
2.802	29.20532
2.8025	18.8324
2.803	4.43115
2.8035	-2.31628
2.804	-11.98425
2.8045	-16.91895
2.805	-18.8324
2.8055	-15.71045
2.806	-13.99841
2.8065	-16.3147
2.807	-20.84656
2.8075	-27.49329
2.808	-28.9032
2.8085	-32.52869
2.809	-33.03223
2.8095	-28.50037
2.81	-25.68054
2.8105	-26.3855
2.811	-34.74426
2.8115	-33.83789
2.812	-32.7301
2.8125	-38.47046
2.813	-67.67578
2.8135	-73.01331
2.814	-71.90552
2.8145	-61.53259
2.815	-45.82214
2.8155	-30.41382
2.816	-9.97009
2.8165	1.91345
2.817	37.36267
2.8175	51.05896
2.818	56.90002
2.8185	58.30994
2.819	68.17932
2.8195	67.47437
2.82	67.57507
2.8205	61.33118
2.821	60.02197
2.8215	45.01648
2.822	53.27454
2.8225	52.67029
2.823	48.64197
2.8235	32.02515
2.824	29.10461
2.8245	27.79541
2.825	20.94727
2.8255	19.83948
2.826	24.97559
2.8265	31.4209
2.827	29.60815
2.8275	25.07629
2.828	24.97559
2.8285	19.03381
2.829	13.797
2.8295	16.41541
2.83	19.13452
2.8305	7.65381
2.831	8.05664
2.8315	9.46655
2.832	5.84106
2.8325	4.93469
2.833	1.2085
2.8335	3.32336
2.834	-5.53894
2.8345	-2.11487
2.835	-2.41699
2.8355	2.61841
2.836	1.00708
2.8365	-0.70496
2.837	-3.42407
2.8375	-1.61133
2.838	5.84106
2.8385	4.93469
2.839	6.54602
2.8395	4.12903
2.84	2.11487
2.8405	-1.3092
2.841	-0.60425
2.8415	0.80566
2.842	-1.10779
2.8425	2.31628
2.843	0
2.8435	1.2085
2.844	1.81274
2.8445	2.11487
2.845	-0.30212
2.8455	-3.62549
2.846	-1.40991
2.8465	1.61133
2.847	4.73328
2.8475	2.81982
2.848	-5.13611
2.8485	-0.10071
2.849	2.61841
2.8495	-0.30212
2.85	-0.60425
2.8505	-3.02124
2.851	2.61841
2.8515	3.7262
2.852	5.23682
2.8525	-2.41699
2.853	-1.51062
2.8535	0.50354
2.854	-0.10071
2.8545	0.20142
2.855	1.81274
2.8555	1.91345
2.856	11.88354
2.8565	1.81274
2.857	4.43115
2.8575	-1.10779
2.858	-2.21558
2.8585	-8.15735
2.859	-3.62549
2.8595	2.81982
2.86	0.20142
2.8605	0.70496
2.861	4.83398
2.8615	8.8623
2.862	2.81982
2.8625	-1.91345
2.863	2.92053
2.8635	2.71912
2.864	-2.01416
2.8645	-7.95593
2.865	-4.63257
2.8655	2.21558
2.866	0.50354
2.8665	7.15027
2.867	11.58142
2.8675	15.30762
2.868	6.64673
2.8685	6.2439
2.869	1.81274
2.8695	2.71912
2.87	3.12195
2.8705	7.45239
2.871	4.83398
2.8715	8.7616
2.872	10.77576
2.8725	5.23682
2.873	6.74744
2.8735	4.73328
2.874	-1.91345
2.8745	-0.70496
2.875	1.3092
2.8755	0.10071
2.876	11.68213
2.8765	8.05664
2.877	6.94885
2.8775	10.57434
2.878	13.29346
2.8785	16.51611
2.879	31.01807
2.8795	36.55701
2.88	41.29028
2.8805	52.771
2.881	46.02356
2.8815	31.92444
2.882	22.35718
2.8825	20.44373
2.883	17.01965
2.8835	5.53894
2.884	-7.95593
2.8845	-5.84106
2.885	-9.66797
2.8855	-9.06372
2.886	-8.05664
2.8865	-4.63257
2.887	-8.15735
2.8875	-11.98425
2.888	-13.09204
2.8885	-13.69629
2.889	-9.16443
2.8895	-13.19275
2.89	-10.77576
2.8905	-6.94885
2.891	-8.8623
2.8915	-7.95593
2.892	-1.51062
2.8925	-1.3092
2.893	-2.71912
2.8935	-2.61841
2.894	-3.42407
2.8945	-0.30212
2.895	-0.70496
2.8955	1.40991
2.896	-3.02124
2.8965	-0.50354
2.897	1.3092
2.8975	-2.81982
2.898	-2.5177
2.8985	-1.00708
2.899	-1.3092
2.8995	-0.60425
2.9	5.23682
2.9005	2.81982
2.901	-2.11487
2.9015	1.81274
2.902	1.40991
2.9025	1.00708
2.903	3.02124
2.9035	4.22974
2.904	9.06372
2.9045	1.91345
2.905	-1.3092
2.9055	1.00708
2.906	4.22974
2.9065	15.81116
2.907	25.68054
2.9075	36.05347
2.908	29.40674
2.9085	26.3855
2.909	17.42249
2.9095	12.18567
2.91	5.84106
2.9105	7.75452
2.911	4.63257
2.9115	8.96301
2.912	4.93469
2.9125	-0.80566
2.913	-7.75452
2.9135	-16.81824
2.914	-55.2887
2.9145	-103.82996
2.915	-120.14465
2.9155	-111.8866
2.916	-98.0896
2.9165	-86.00464
2.917	-72.50977
2.9175	-40.58533
2.918	-15.40833
2.9185	14.40125
2.919	25.57983
2.9195	40.2832
2.92	42.90161
2.9205	46.02356
2.921	44.61365
2.9215	42.39807
2.922	53.47595
2.9225	67.07153
2.923	60.22339
2.9235	63.54675
2.924	79.55933
2.9245	99.49951
2.925	105.23987
2.9255	91.745
2.926	86.10535
2.9265	78.04871
2.927	63.34534
2.9275	56.29578
2.928	54.88586
2.9285	40.2832
2.929	26.18408
2.9295	24.27063
2.93	18.22815
2.9305	14.09912
2.931	14.19983
2.9315	14.30054
2.932	5.63965
2.9325	4.12903
2.933	-8.96301
2.9335	0.30212
2.934	-1.3092
2.9345	0
2.935	0.50354
2.9355	2.41699
2.936	5.13611
2.9365	7.15027
2.937	3.92761
2.9375	8.66089
2.938	10.67505
2.9385	15.30762
2.939	13.09204
2.9395	12.78992
2.94	14.60266
2.9405	11.78284
2.941	20.44373
2.9415	18.73169
2.942	18.8324
2.9425	22.76001
2.943	23.36426
2.9435	21.45081
2.944	11.38
2.9445	5.74036
2.945	4.63257
2.9455	3.02124
2.946	-2.71912
2.9465	-5.94177
2.947	-13.69629
2.9475	-15.00549
2.948	-20.24231
2.9485	-26.28479
2.949	-29.00391
2.9495	-27.49329
2.95	-28.70178
2.9505	-26.28479
2.951	-23.8678
2.9515	-19.63806
2.952	-16.51611
2.9525	-8.45947
2.953	-6.74744
2.9535	-1.61133
2.954	-3.7262
2.9545	-2.71912
2.955	-1.2085
2.9555	-3.02124
2.956	-5.53894
2.9565	-1.91345
2.957	-4.63257
2.9575	1.61133
2.958	1.51062
2.9585	2.21558
2.959	1.40991
2.9595	2.41699
2.96	7.65381
2.9605	8.56018
2.961	6.54602
2.9615	4.73328
2.962	10.47363
2.9625	16.01257
2.963	13.29346
2.9635	15.50903
2.964	11.07788
2.9645	15.00549
2.965	11.78284
2.9655	14.19983
2.966	10.57434
2.9665	12.48779
2.967	18.53027
2.9675	10.17151
2.968	0.90637
2.9685	3.42407
2.969	-0.10071
2.9695	-5.33752
2.97	-3.12195
2.9705	-4.63257
2.971	-9.56726
2.9715	-5.33752
2.972	3.02124
2.9725	0.30212
2.973	-0.90637
2.9735	1.81274
2.974	4.12903
2.9745	-1.51062
2.975	-24.16992
2.9755	-36.4563
2.976	-48.54126
2.9765	-46.42639
2.977	-42.29736
2.9775	-39.37683
2.978	-29.30603
2.9785	-9.56726
2.979	-1.00708
2.9795	8.7616
2.98	13.09204
2.9805	17.42249
2.981	24.87488
2.9815	18.93311
2.982	20.64514
2.9825	13.69629
2.983	7.15027
2.9835	9.86938
2.984	8.35876
2.9845	12.18567
2.985	16.3147
2.9855	5.43823
2.986	2.41699
2.9865	-0.30212
2.987	7.25098
2.9875	14.19983
2.988	20.34302
2.9885	19.43665
2.989	22.6593
2.9895	29.30603
2.99	23.16284
2.9905	25.88196
2.991	14.30054
2.9915	21.85364
2.992	13.89771
2.9925	4.02832
2.993	11.48071
2.9935	7.85522
2.994	7.95593
2.9945	4.93469
2.995	2.11487
2.9955	2.31628
2.996	-2.01416
2.9965	2.61841
2.997	3.8269
2.9975	2.5177
2.998	6.04248
2.9985	7.45239
2.999	9.97009
2.9995	5.0354
3	5.33752
3.0005	0.20142
3.001	-4.12903
3.0015	-4.33044
3.002	3.12195
3.0025	8.05664
3.003	5.33752
3.0035	-5.33752
3.004	-10.17151
3.0045	-6.54602
3.005	1.81274
3.0055	5.33752
3.006	18.63098
3.0065	32.22656
3.007	41.99524
3.0075	51.66321
3.008	57.10144
3.0085	64.65454
3.009	57.00073
3.0095	57.70569
3.01	49.0448
3.0105	37.26196
3.011	28.50037
3.0115	23.26355
3.012	14.09912
3.0125	-0.10071
3.013	-17.92603
3.0135	-27.49329
3.014	-31.92444
3.0145	-37.66479
3.015	-40.2832
3.0155	-23.16284
3.016	-17.22107
3.0165	-16.21399
3.017	-17.52319
3.0175	-16.61682
3.018	-17.92603
3.0185	-10.47363
3.019	0.10071
3.0195	5.74036
3.02	11.07788
3.0205	4.02832
3.021	1.00708
3.0215	-3.12195
3.022	1.61133
3.0225	3.02124
3.023	5.94177
3.0235	2.31628
3.024	3.02124
3.0245	5.0354
3.025	2.41699
3.0255	3.22266
3.026	0.50354
3.0265	6.74744
3.027	4.43115
3.0275	13.19275
3.028	6.3446
3.0285	12.08496
3.029	16.11328
3.0295	19.43665
3.03	15.81116
3.0305	21.55151
3.031	22.15576
3.0315	23.46497
3.032	22.05505
3.0325	18.73169
3.033	13.49487
3.0335	8.45947
3.034	3.02124
3.0345	1.61133
3.035	-4.33044
3.0355	-8.66089
3.036	-9.86938
3.0365	-9.56726
3.037	-9.56726
3.0375	-5.94177
3.038	-1.71204
3.0385	3.62549
3.039	15.71045
3.0395	9.06372
3.04	9.66797
3.0405	3.52478
3.041	-1.81274
3.0415	1.2085
3.042	-0.60425
3.0425	-3.02124
3.043	-1.91345
3.0435	3.32336
3.044	7.15027
3.0445	2.61841
3.045	9.16443
3.0455	9.16443
3.046	4.33044
3.0465	4.93469
3.047	13.09204
3.0475	11.2793
3.048	19.53735
3.0485	15.71045
3.049	14.50195
3.0495	13.29346
3.05	11.07788
3.0505	9.56726
3.051	7.65381
3.0515	7.15027
3.052	4.12903
3.0525	3.92761
3.053	9.06372
3.0535	14.19983
3.054	20.34302
3.0545	15.50903
3.055	19.03381
3.0555	17.52319
3.056	15.50903
3.0565	5.63965
3.057	10.37292
3.0575	10.87646
3.058	13.797
3.0585	13.89771
3.059	14.09912
3.0595	0
3.06	4.83398
3.0605	-4.73328
3.061	-5.43823
3.0615	-7.5531
3.062	-10.17151
3.0625	-7.75452
3.063	-11.98425
3.0635	-8.8623
3.064	-4.43115
3.0645	-10.77576
3.065	-2.92053
3.0655	-2.5177
3.066	1.00708
3.0665	4.12903
3.067	13.49487
3.0675	17.72461
3.068	22.05505
3.0685	19.13452
3.069	-1.00708
3.0695	-7.85522
3.07	-8.8623
3.0705	-2.41699
3.071	11.38
3.0715	19.23523
3.072	35.75134
3.0725	44.81506
3.073	45.01648
3.0735	47.8363
3.074	42.59949
3.0745	14.60266
3.075	-1.61133
3.0755	-18.22815
3.076	-15.50903
3.0765	-18.93311
3.077	-13.797
3.0775	-10.27222
3.078	4.02832
3.0785	13.39417
3.079	29.80957
3.0795	47.53418
3.08	49.0448
3.0805	36.35559
3.081	28.80249
3.0815	15.30762
3.082	11.17859
3.0825	5.63965
3.083	1.61133
3.0835	-4.53186
3.084	-9.46655
3.0845	-3.12195
3.085	-4.53186
3.0855	2.81982
3.086	-2.21558
3.0865	-6.54602
3.087	2.41699
3.0875	-1.61133
3.088	3.62549
3.0885	-0.70496
3.089	-11.17859
3.0895	-11.17859
3.09	-14.09912
3.0905	-12.18567
3.091	-12.48779
3.0915	-6.64673
3.092	0.60425
3.0925	1.51062
3.093	-2.31628
3.0935	4.22974
3.094	11.2793
3.0945	11.17859
3.095	6.84814
3.0955	13.29346
3.096	12.28638
3.0965	13.69629
3.097	0.30212
3.0975	-6.04248
3.098	-5.53894
3.0985	-5.13611
3.099	4.83398
3.0995	5.23682
3.1	5.53894
3.1005	13.39417
3.101	15.1062
3.1015	10.27222
3.102	11.07788
3.1025	9.76868
3.103	12.68921
3.1035	12.48779
3.104	15.00549
3.1045	12.08496
3.105	3.62549
3.1055	-6.2439
3.106	-12.99133
3.1065	-20.44373
3.107	-25.98267
3.1075	-22.25647
3.108	-14.19983
3.1085	-3.8269
3.109	-22.86072
3.1095	-41.29028
3.11	-39.07471
3.1105	-27.29187
3.111	-11.17859
3.1115	-3.02124
3.112	11.48071
3.1125	19.63806
3.113	47.23206
3.1135	62.13684
3.114	71.40198
3.1145	75.93384
3.115	74.72534
3.1155	64.95667
3.116	66.06445
3.1165	54.0802
3.117	35.95276
3.1175	10.17151
3.118	-9.06372
3.1185	-14.30054
3.119	-9.66797
3.1195	-12.48779
3.12	-10.0708
3.1205	-10.97717
3.121	-17.92603
3.1215	-25.07629
3.122	-26.58691
3.1225	-30.51453
3.123	-29.60815
3.1235	-20.94727
3.124	-14.30054
3.1245	6.14319
3.125	20.84656
3.1255	33.63647
3.126	39.98108
3.1265	41.59241
3.127	41.39099
3.1275	42.09595
3.128	48.03772
3.1285	48.03772
3.129	44.0094
3.1295	32.22656
3.13	17.6239
3.1305	22.45789
3.131	24.67346
3.1315	33.43506
3.132	40.58533
3.1325	35.44922
3.133	34.03931
3.1335	18.73169
3.134	13.09204
3.1345	3.8269
3.135	-2.71912
3.1355	-10.57434
3.136	-5.74036
3.1365	-13.29346
3.137	-19.83948
3.1375	-38.26904
3.138	-37.86621
3.1385	-29.80957
3.139	-18.53027
3.1395	-9.76868
3.14	-0.10071
3.1405	18.93311
3.141	23.56567
3.1415	36.25488
3.142	43.80798
3.1425	40.58533
3.143	32.22656
3.1435	32.52869
3.144	31.82373
3.1445	26.78833
3.145	25.78125
3.1455	15.60974
3.146	21.85364
3.1465	16.71753
3.147	12.48779
3.1475	3.92761
3.148	-5.43823
3.1485	-11.48071
3.149	-15.30762
3.1495	-27.29187
3.15	-18.8324
3.1505	-18.73169
3.151	-15.1062
3.1515	-8.8623
3.152	-6.94885
3.1525	2.71912
3.153	-0.70496
3.1535	1.81274
3.154	9.46655
3.1545	7.95593
3.155	13.99841
3.1555	17.12036
3.156	10.37292
3.1565	9.36584
3.157	5.0354
3.1575	5.74036
3.158	-13.797
3.1585	-29.30603
3.159	-33.73718
3.1595	-23.96851
3.16	-18.93311
3.1605	-14.40125
3.161	-9.86938
3.1615	-9.36584
3.162	-0.90637
3.1625	2.11487
3.163	-4.33044
3.1635	-0.30212
3.164	-3.8269
3.1645	-3.8269
3.165	-5.84106
3.1655	-12.48779
3.166	-10.97717
3.1665	-22.76001
3.167	-40.98816
3.1675	-35.75134
3.168	-30.51453
3.1685	-15.40833
3.169	2.31628
3.1695	11.78284
3.17	17.01965
3.1705	22.55859
3.171	37.7655
3.1715	40.1825
3.172	46.02356
3.1725	50.05188
3.173	53.87878
3.1735	45.72144
3.174	25.98267
3.1745	12.38708
3.175	2.41699
3.1755	-11.98425
3.176	-20.54443
3.1765	-20.24231
3.177	-14.90479
3.1775	-5.63965
3.178	-10.27222
3.1785	-10.37292
3.179	2.92053
3.1795	2.11487
3.18	14.90479
3.1805	14.90479
3.181	19.63806
3.1815	17.72461
3.182	16.71753
3.1825	16.41541
3.183	19.33594
3.1835	18.53027
3.184	23.16284
3.1845	19.53735
3.185	17.82532
3.1855	26.48621
3.186	41.79382
3.1865	52.771
3.187	53.27454
3.1875	50.2533
3.188	49.54834
3.1885	48.13843
3.189	49.44763
3.1895	42.29736
3.19	40.38391
3.1905	43.00232
3.191	41.79382
3.1915	33.83789
3.192	23.36426
3.1925	22.45789
3.193	18.02673
3.1935	7.25098
3.194	-0.20142
3.1945	-13.59558
3.195	-35.14709
3.1955	-49.34692
3.196	-62.33826
3.1965	-50.55542
3.197	-44.51294
3.1975	-44.31152
3.198	-53.37524
3.1985	-46.82922
3.199	-41.99524
3.1995	-27.39258
3.2	-23.06213
3.2005	-17.12036
3.201	-15.30762
3.2015	-6.14319
3.202	9.86938
3.2025	14.60266
3.203	0.70496
3.2035	-24.97559
3.204	-47.03064
3.2045	-47.53418
3.205	-46.82922
3.2055	-43.50586
3.206	-48.13843
3.2065	-48.44055
3.207	-39.67896
3.2075	-21.65222
3.208	1.00708
3.2085	24.27063
3.209	32.93152
3.2095	46.32568
3.21	64.25171
3.2105	76.13525
3.211	92.04712
3.2115	102.11792
3.212	101.31226
3.2125	92.04712
3.213	70.89844
3.2135	55.59082
3.214	36.95984
3.2145	28.50037
3.215	11.17859
3.2155	-6.3446
3.216	-4.22974
3.2165	4.63257
3.217	4.33044
3.2175	1.81274
3.218	8.35876
3.2185	1.91345
3.219	-12.38708
3.2195	-9.36584
3.22	-4.43115
3.2205	-3.42407
3.221	1.71204
3.2215	1.3092
3.222	-4.73328
3.2225	-2.31628
3.223	-5.94177
3.2235	-8.66089
3.224	2.01416
3.2245	5.53894
3.225	6.74744
3.2255	5.43823
3.226	10.17151
3.2265	7.75452
3.227	1.71204
3.2275	-4.73328
3.228	-4.22974
3.2285	-28.80249
3.229	-32.12585
3.2295	-23.46497
3.23	-23.76709
3.2305	-10.57434
3.231	-10.37292
3.2315	-12.99133
3.232	-16.21399
3.2325	-12.68921
3.233	-4.22974
3.2335	1.00708
3.234	9.36584
3.2345	21.75293
3.235	28.80249
3.2355	31.4209
3.236	23.46497
3.2365	13.09204
3.237	3.42407
3.2375	3.7262
3.238	1.3092
3.2385	2.81982
3.239	8.05664
3.2395	5.0354
3.24	9.06372
3.2405	13.29346
3.241	7.15027
3.2415	12.38708
3.242	16.91895
3.2425	20.64514
3.243	10.57434
3.2435	5.53894
3.244	4.22974
3.2445	9.66797
3.245	15.20691
3.2455	12.68921
3.246	12.48779
3.2465	1.3092
3.247	2.41699
3.2475	0.60425
3.248	1.40991
3.2485	1.81274
3.249	0.10071
3.2495	7.5531
3.25	10.27222
3.2505	13.09204
3.251	13.797
3.2515	21.24939
3.252	21.3501
3.2525	14.70337
3.253	16.71753
3.2535	9.46655
3.254	6.54602
3.2545	6.54602
3.255	3.22266
3.2555	5.33752
3.256	1.2085
3.2565	-8.96301
3.257	-21.75293
3.2575	-23.96851
3.258	-24.57275
3.2585	-16.11328
3.259	-8.8623
3.2595	-11.38
3.26	-10.27222
3.2605	-8.7616
3.261	-8.8623
3.2615	1.3092
3.262	-0.90637
3.2625	5.94177
3.263	4.53186
3.2635	-2.41699
3.264	-7.75452
3.2645	-22.45789
3.265	-29.20532
3.2655	-30.81665
3.266	-28.29895
3.2665	-10.67505
3.267	0.40283
3.2675	7.5531
3.268	2.5177
3.2685	6.2439
3.269	8.96301
3.2695	15.60974
3.27	17.52319
3.2705	10.47363
3.271	17.01965
3.2715	14.09912
3.272	20.64514
3.2725	18.8324
3.273	15.91187
3.2735	17.92603
3.274	23.56567
3.2745	29.60815
3.275	32.12585
3.2755	25.27771
3.276	20.24231
3.2765	14.40125
3.277	6.3446
3.2775	8.7616
3.278	5.63965
3.2785	-1.71204
3.279	-3.7262
3.2795	-7.04956
3.28	-4.02832
3.2805	1.81274
3.281	-0.30212
3.2815	2.11487
3.282	3.12195
3.2825	-1.10779
3.283	9.66797
3.2835	13.39417
3.284	24.37134
3.2845	25.177
3.285	25.177
3.2855	12.89062
3.286	16.81824
3.2865	9.76868
3.287	10.97717
3.2875	6.74744
3.288	15.1062
3.2885	17.6239
3.289	14.09912
3.2895	9.26514
3.29	4.43115
3.2905	-2.01416
3.291	-7.04956
3.2915	-12.18567
3.292	-25.47913
3.2925	-21.04797
3.293	-27.29187
3.2935	-39.27612
3.294	-33.33435
3.2945	-20.24231
3.295	-13.19275
3.2955	2.61841
3.296	8.05664
3.2965	0.20142
3.297	-2.81982
3.2975	3.32336
3.298	-5.33752
3.2985	-19.53735
3.299	-14.19983
3.2995	-20.04089
3.3	-8.96301
3.3005	4.83398
3.301	12.78992
3.3015	26.08337
3.302	30.61523
3.3025	10.67505
3.303	-11.68213
3.3035	-17.52319
3.304	-14.19983
3.3045	3.52478
3.305	17.12036
3.3055	32.83081
3.306	54.28162
3.3065	71.50269
3.307	70.09277
3.3075	58.00781
3.308	54.78516
3.3085	43.90869
3.309	25.47913
3.3095	-1.2085
3.31	-19.63806
3.3105	-47.63489
3.311	-56.19507
3.3115	-80.66711
3.312	-112.18872
3.3125	-123.36731
3.313	-101.8158
3.3135	-88.82446
3.314	-71.7041
3.3145	-38.16833
3.315	-1.3092
3.3155	22.86072
3.316	47.7356
3.3165	61.83472
3.317	61.23047
3.3175	51.86462
3.318	35.95276
3.3185	17.22107
3.319	4.12903
3.3195	10.57434
3.32	12.5885
3.3205	14.40125
3.321	14.19983
3.3215	18.42957
3.322	31.32019
3.3225	39.37683
3.323	48.74268
3.3235	66.46729
3.324	63.34534
3.3245	57.10144
3.325	49.54834
3.3255	48.54126
3.326	46.62781
3.3265	46.92993
3.327	36.85913
3.3275	30.71594
3.328	28.39966
3.3285	13.99841
3.329	24.67346
3.3295	16.11328
3.33	19.33594
3.3305	15.71045
3.331	12.48779
3.3315	13.39417
3.332	17.92603
3.3325	22.05505
3.333	25.177
3.3335	22.25647
3.334	20.1416
3.3345	24.97559
3.335	19.43665
3.3355	22.76001
3.336	15.60974
3.3365	20.84656
3.337	15.30762
3.3375	5.63965
3.338	9.46655
3.3385	15.81116
3.339	15.40833
3.3395	12.68921
3.34	11.48071
3.3405	4.02832
3.341	-8.35876
3.3415	-14.50195
3.342	-16.81824
3.3425	-22.05505
3.343	-26.88904
3.3435	-40.38391
3.344	-43.10303
3.3445	-41.59241
3.345	-40.88745
3.3455	-38.06763
3.346	-20.84656
3.3465	0.50354
3.347	20.94727
3.3475	25.27771
3.348	22.86072
3.3485	20.24231
3.349	16.71753
3.3495	9.26514
3.35	7.15027
3.3505	-7.45239
3.351	-18.8324
3.3515	-34.44214
3.352	-32.93152
3.3525	-30.91736
3.353	-25.78125
3.3535	-20.84656
3.354	-36.35559
3.3545	-44.0094
3.355	-49.14551
3.3555	-32.83081
3.356	-24.87488
3.3565	-32.52869
3.357	-46.62781
3.3575	-43.50586
3.358	-36.05347
3.3585	-30.31311
3.359	-26.18408
3.3595	-20.64514
3.36	-6.64673
3.3605	-10.17151
3.361	22.76001
3.3615	51.36108
3.362	69.99207
3.3625	72.81189
3.363	84.79614
3.3635	58.41064
3.364	15.00549
3.3645	-7.75452
3.365	-16.21399
3.3655	-21.85364
3.366	-17.52319
3.3665	-10.67505
3.367	6.74744
3.3675	4.53186
3.368	15.81116
3.3685	21.95435
3.369	20.94727
3.3695	21.95435
3.37	33.03223
3.3705	28.50037
3.371	18.42957
3.3715	13.59558
3.372	8.56018
3.3725	14.50195
3.373	15.1062
3.3735	9.16443
3.374	1.10779
3.3745	-5.53894
3.375	-44.31152
3.3755	-67.37366
3.376	-93.35632
3.3765	-107.65686
3.377	-99.90234
3.3775	-81.57349
3.378	-40.1825
3.3785	-10.97717
3.379	21.04797
3.3795	46.62781
3.38	65.25879
3.3805	66.46729
3.381	56.19507
3.3815	62.33826
3.382	61.93542
3.3825	62.43896
3.383	51.36108
3.3835	46.72852
3.384	38.36975
3.3845	45.52002
3.385	50.15259
3.3855	60.62622
3.386	59.41772
3.3865	53.37524
3.387	37.66479
3.3875	32.52869
3.388	23.76709
3.3885	14.90479
3.389	20.94727
3.3895	21.55151
3.39	25.37842
3.3905	25.47913
3.391	22.96143
3.3915	29.60815
3.392	33.73718
3.3925	19.94019
3.393	15.00549
3.3935	12.99133
3.394	0
3.3945	-3.42407
3.395	-9.46655
3.3955	-8.35876
3.396	-9.86938
3.3965	-11.48071
3.397	-8.66089
3.3975	2.71912
3.398	5.43823
3.3985	14.40125
3.399	13.39417
3.3995	13.797
3.4	18.93311
3.4005	25.47913
3.401	27.99683
3.4015	25.78125
3.402	17.42249
3.4025	15.40833
3.403	14.30054
3.4035	8.66089
3.404	2.11487
3.4045	1.3092
3.405	-1.71204
3.4055	-13.09204
3.406	-31.82373
3.4065	-52.46887
3.407	-58.30994
3.4075	-56.29578
3.408	-45.82214
3.4085	-36.15417
3.409	-25.88196
3.4095	-7.95593
3.41	5.94177
3.4105	14.50195
3.411	23.46497
3.4115	23.16284
3.412	26.68762
3.4125	21.75293
3.413	-2.31628
3.4135	-42.49878
3.414	-67.07153
3.4145	-53.07312
3.415	-40.48462
3.4155	-21.75293
3.416	-6.94885
3.4165	6.94885
3.417	10.77576
3.4175	10.67505
3.418	7.85522
3.4185	2.11487
3.419	-0.90637
3.4195	3.02124
3.42	-9.16443
3.4205	-10.27222
3.421	-3.22266
3.4215	1.40991
3.422	11.98425
3.4225	24.57275
3.423	38.974
3.4235	57.20215
3.424	81.06995
3.4245	95.67261
3.425	95.16907
3.4255	79.45862
3.426	61.53259
3.4265	56.90002
3.427	60.4248
3.4275	67.77649
3.428	71.90552
3.4285	57.70569
3.429	50.75684
3.4295	27.99683
3.43	10.47363
3.4305	-2.92053
3.431	-10.77576
3.4315	-24.16992
3.432	-31.92444
3.4325	-46.82922
3.433	-54.0802
3.4335	-53.77808
3.434	-51.86462
3.4345	-55.2887
3.435	-40.98816
3.4355	-28.09753
3.436	-24.57275
3.4365	-29.00391
3.437	-40.1825
3.4375	-52.16675
3.438	-56.69861
3.4385	-48.13843
3.439	-37.86621
3.4395	-25.78125
3.44	-17.32178
3.4405	-2.61841
3.441	12.78992
3.4415	28.60107
3.442	35.34851
3.4425	42.7002
3.443	50.85754
3.4435	54.88586
3.444	66.36658
3.4445	74.92676
3.445	88.42163
3.4455	86.40747
3.446	76.53809
3.4465	56.5979
3.447	51.96533
3.4475	44.61365
3.448	24.87488
3.4485	-24.87488
3.449	-70.89844
3.4495	-80.56641
3.45	-75.83313
3.4505	-61.02905
3.451	-52.56958
3.4515	-27.79541
3.452	-13.797
3.4525	17.52319
3.453	39.67896
3.4535	47.23206
3.454	54.48303
3.4545	56.69861
3.455	57.00073
3.4555	46.82922
3.456	38.16833
3.4565	33.43506
3.457	21.04797
3.4575	20.64514
3.458	22.05505
3.4585	15.91187
3.459	11.17859
3.4595	1.10779
3.46	-13.59558
3.4605	-19.94019
3.461	-19.33594
3.4615	-8.25806
3.462	5.13611
3.4625	6.94885
3.463	1.81274
3.4635	2.92053
3.464	-0.70496
3.4645	0.60425
3.465	6.14319
3.4655	6.54602
3.466	11.17859
3.4665	15.60974
3.467	15.20691
3.4675	22.25647
3.468	22.35718
3.4685	20.54443
3.469	11.98425
3.4695	10.67505
3.47	7.35168
3.4705	3.7262
3.471	4.33044
3.4715	7.45239
3.472	-1.40991
3.4725	-11.48071
3.473	-9.76868
3.4735	-13.09204
3.474	-11.48071
3.4745	-7.15027
3.475	0.20142
3.4755	1.71204
3.476	-4.63257
3.4765	-23.76709
3.477	-39.37683
3.4775	-43.40515
3.478	-45.72144
3.4785	-59.82056
3.479	-66.76941
3.4795	-57.30286
3.48	-38.57117
3.4805	-23.36426
3.481	-6.64673
3.4815	3.02124
3.482	-0.80566
3.4825	1.40991
3.483	-0.70496
3.4835	-12.89062
3.484	-36.95984
3.4845	-44.31152
3.485	-36.35559
3.4855	-17.82532
3.486	2.21558
3.4865	16.41541
3.487	30.51453
3.4875	35.85205
3.488	38.06763
3.4885	45.3186
3.489	49.95117
3.4895	55.69153
3.49	47.7356
3.4905	52.771
3.491	46.12427
3.4915	39.37683
3.492	32.12585
3.4925	29.80957
3.493	26.3855
3.4935	31.11877
3.494	25.98267
3.4945	43.50586
3.495	52.8717
3.4955	58.81348
3.496	50.55542
3.4965	50.15259
3.497	45.92285
3.4975	45.11719
3.498	39.88037
3.4985	33.13293
3.499	21.85364
3.4995	15.00549
3.5	8.45947
3.5005	9.36584
3.501	7.04956
3.5015	0.30212
3.502	-11.2793
3.5025	-17.6239
3.503	-14.50195
3.5035	-18.02673
3.504	-17.12036
3.5045	-15.00549
3.505	-7.85522
3.5055	-11.88354
3.506	-10.37292
3.5065	-6.44531
3.507	-2.11487
3.5075	3.12195
3.508	5.63965
3.5085	0.20142
3.509	-4.83398
3.5095	-11.48071
3.51	-22.6593
3.5105	-27.39258
3.511	-53.97949
3.5115	-64.55383
3.512	-68.28003
3.5125	-68.17932
3.513	-67.97791
3.5135	-66.97083
3.514	-55.69153
3.5145	-31.62231
3.515	-11.98425
3.5155	7.25098
3.516	18.53027
3.5165	28.60107
3.517	41.69312
3.5175	51.5625
3.518	47.43347
3.5185	49.54834
3.519	45.2179
3.5195	41.08887
3.52	34.84497
3.5205	22.25647
3.521	11.88354
3.5215	0
3.522	3.52478
3.5225	14.30054
3.523	26.18408
3.5235	46.12427
3.524	69.08569
3.5245	73.21472
3.525	62.64038
3.5255	54.28162
3.526	46.82922
3.5265	37.46338
3.527	25.68054
3.5275	14.80408
3.528	-7.25098
3.5285	-8.45947
3.529	-5.94177
3.5295	-9.56726
3.53	-15.50903
3.5305	-14.60266
3.531	-20.64514
3.5315	-62.64038
3.532	-104.63562
3.5325	-120.84961
3.533	-117.12341
3.5335	-96.57898
3.534	-61.02905
3.5345	-26.3855
3.535	-1.00708
3.5355	31.11877
3.536	47.43347
3.5365	52.06604
3.537	53.27454
3.5375	46.5271
3.538	34.44214
3.5385	19.13452
3.539	0
3.5395	-5.63965
3.54	-13.59558
3.5405	-17.72461
3.541	-20.04089
3.5415	6.04248
3.542	35.44922
3.5425	46.32568
3.543	41.69312
3.5435	17.42249
3.544	-9.46655
3.5445	-14.30054
3.545	-4.22974
3.5455	-8.05664
3.546	-15.91187
3.5465	-19.43665
3.547	-18.32886
3.5475	-25.98267
3.548	-41.4917
3.5485	-35.14709
3.549	-21.75293
3.5495	-18.63098
3.55	-17.72461
3.5505	-10.47363
3.551	6.44531
3.5515	27.29187
3.552	48.23914
3.5525	59.51843
3.553	55.69153
3.5535	59.31702
3.554	71.80481
3.5545	75.22888
3.555	75.32959
3.5555	65.76233
3.556	60.52551
3.5565	60.92834
3.557	58.51135
3.5575	46.72852
3.558	39.88037
3.5585	28.39966
3.559	25.47913
3.5595	16.51611
3.56	12.68921
3.5605	17.22107
3.561	20.04089
3.5615	20.94727
3.562	26.58691
3.5625	25.37842
3.563	36.4563
3.5635	26.58691
3.564	13.797
3.5645	7.95593
3.565	6.74744
3.5655	-5.43823
3.566	-6.3446
3.5665	-6.64673
3.567	-1.10779
3.5675	-12.08496
3.568	-7.15027
3.5685	-14.09912
3.569	-12.08496
3.5695	-12.89062
3.57	-8.96301
3.5705	-4.93469
3.571	0.10071
3.5715	1.2085
3.572	5.33752
3.5725	4.33044
3.573	2.61841
3.5735	3.52478
3.574	5.63965
3.5745	12.18567
3.575	13.59558
3.5755	14.30054
3.576	9.56726
3.5765	7.5531
3.577	7.04956
3.5775	-1.51062
3.578	0.40283
3.5785	-3.62549
3.579	-8.7616
3.5795	-6.04248
3.58	-13.69629
3.5805	-13.49487
3.581	-17.82532
3.5815	-14.30054
3.582	-18.12744
3.5825	-22.35718
3.583	-26.3855
3.5835	-20.04089
3.584	-23.8678
3.5845	-16.41541
3.585	-15.00549
3.5855	-13.39417
3.586	-14.90479
3.5865	-27.49329
3.587	-35.34851
3.5875	-42.39807
3.588	-44.71436
3.5885	-40.78674
3.589	-41.08887
3.5895	-31.11877
3.59	-20.1416
3.5905	-15.30762
3.591	-8.15735
3.5915	-5.74036
3.592	-4.02832
3.5925	-9.86938
3.593	-9.26514
3.5935	-6.84814
3.594	-10.97717
3.5945	-3.32336
3.595	-2.41699
3.5955	6.44531
3.596	7.35168
3.5965	15.30762
3.597	17.72461
3.5975	18.12744
3.598	22.25647
3.5985	32.83081
3.599	50.95825
3.5995	49.74976
3.6	47.53418
3.6005	45.11719
3.601	38.47046
3.6015	39.37683
3.602	48.03772
3.6025	54.68445
3.603	50.45471
3.6035	35.54993
3.604	29.50745
3.6045	24.37134
3.605	24.47205
3.6055	19.43665
3.606	10.67505
3.6065	3.42407
3.607	-5.43823
3.6075	-10.87646
3.608	-10.0708
3.6085	-21.75293
3.609	-23.8678
3.6095	-30.61523
3.61	-27.99683
3.6105	-23.16284
3.611	-18.53027
3.6115	-13.49487
3.612	-6.2439
3.6125	-8.96301
3.613	-13.69629
3.6135	-8.7616
3.614	-16.21399
3.6145	-9.86938
3.615	-5.94177
3.6155	-2.92053
3.616	-1.71204
3.6165	12.78992
3.617	11.2793
3.6175	12.99133
3.618	19.13452
3.6185	-0.70496
3.619	-0.50354
3.6195	-8.35876
3.62	-19.33594
3.6205	-6.14319
3.621	5.43823
3.6215	19.73877
3.622	35.34851
3.6225	45.72144
3.623	43.50586
3.6235	30.61523
3.624	25.47913
3.6245	17.92603
3.625	14.30054
3.6255	11.38
3.626	-1.3092
3.6265	7.45239
3.627	21.85364
3.6275	31.62231
3.628	38.36975
3.6285	34.44214
3.629	23.56567
3.6295	22.55859
3.63	8.7616
3.6305	0.40283
3.631	-7.45239
3.6315	-7.95593
3.632	-9.06372
3.6325	-5.23682
3.633	0.70496
3.6335	9.26514
3.634	-9.26514
3.6345	-22.76001
3.635	-31.82373
3.6355	-30.11169
3.636	-22.15576
3.6365	-16.01257
3.637	-13.19275
3.6375	-20.54443
3.638	-32.83081
3.6385	-33.43506
3.639	-56.5979
3.6395	-77.54517
3.64	-79.86145
3.6405	-77.74658
3.641	-78.35083
3.6415	-72.20764
3.642	-50.65613
3.6425	-37.56409
3.643	-16.51611
3.6435	-5.33752
3.644	1.91345
3.6445	29.20532
3.645	26.28479
3.6455	29.00391
3.646	28.09753
3.6465	40.98816
3.647	28.50037
3.6475	21.85364
3.648	26.08337
3.6485	31.82373
3.649	35.75134
3.6495	50.65613
3.65	74.12109
3.6505	96.7804
3.651	111.78589
3.6515	110.57739
3.652	90.63721
3.6525	81.47278
3.653	83.08411
3.6535	84.69543
3.654	73.21472
3.6545	67.07153
3.655	64.65454
3.6555	53.77808
3.656	42.19666
3.6565	34.03931
3.657	28.9032
3.6575	32.62939
3.658	27.49329
3.6585	27.29187
3.659	15.1062
3.6595	10.67505
3.66	10.77576
3.6605	4.53186
3.661	-7.45239
3.6615	-11.68213
3.662	-15.00549
3.6625	-21.14868
3.663	-12.5885
3.6635	-3.7262
3.664	-2.41699
3.6645	3.92761
3.665	-2.71912
3.6655	2.11487
3.666	-8.15735
3.6665	-8.7616
3.667	-15.30762
3.6675	-24.77417
3.668	-26.58691
3.6685	-30.11169
3.669	-23.96851
3.6695	-28.29895
3.67	-22.25647
3.6705	-13.797
3.671	-15.40833
3.6715	-31.52161
3.672	-33.63647
3.6725	-38.26904
3.673	-26.68762
3.6735	-18.22815
3.674	-16.51611
3.6745	-8.45947
3.675	2.41699
3.6755	12.18567
3.676	20.84656
3.6765	25.27771
3.677	25.47913
3.6775	26.98975
3.678	28.39966
3.6785	23.96851
3.679	18.32886
3.6795	13.59558
3.68	10.47363
3.6805	6.44531
3.681	4.43115
3.6815	9.86938
3.682	15.71045
3.6825	13.39417
3.683	14.80408
3.6835	7.45239
3.684	-9.16443
3.6845	-18.32886
3.685	-23.46497
3.6855	-21.24939
3.686	-15.50903
3.6865	-10.17151
3.687	2.31628
3.6875	9.86938
3.688	17.6239
3.6885	20.54443
3.689	19.83948
3.6895	19.53735
3.69	10.0708
3.6905	7.85522
3.691	7.35168
3.6915	-7.65381
3.692	-7.15027
3.6925	-0.60425
3.693	7.04956
3.6935	-4.73328
3.694	-39.37683
3.6945	-49.85046
3.695	-51.5625
3.6955	-38.974
3.696	-10.87646
3.6965	9.86938
3.697	20.94727
3.6975	35.04639
3.698	33.9386
3.6985	28.9032
3.699	22.05505
3.6995	16.71753
3.7	15.1062
3.7005	9.36584
3.701	-4.22974
3.7015	-10.77576
3.702	-17.32178
3.7025	-16.61682
3.703	-14.09912
3.7035	-5.33752
3.704	-2.61841
3.7045	-13.09204
3.705	-35.95276
3.7055	-55.3894
3.706	-56.19507
3.7065	-52.97241
3.707	-35.2478
3.7075	-10.47363
3.708	15.20691
3.7085	39.47754
3.709	60.3241
3.7095	77.24304
3.71	88.72375
3.7105	92.95349
3.711	89.22729
3.7115	84.2926
3.712	76.03455
3.7125	70.19348
3.713	59.1156
3.7135	42.49878
3.714	27.09045
3.7145	14.70337
3.715	8.35876
3.7155	6.44531
3.716	-4.43115
3.7165	-13.797
3.717	-15.50903
3.7175	-30.81665
3.718	-52.16675
3.7185	-62.33826
3.719	-63.84888
3.7195	-77.54517
3.72	-79.86145
3.7205	-72.50977
3.721	-54.0802
3.7215	-32.7301
3.722	-11.17859
3.7225	6.14319
3.723	21.24939
3.7235	20.64514
3.724	37.26196
3.7245	38.16833
3.725	47.93701
3.7255	57.20215
3.726	49.34692
3.7265	39.37683
3.727	25.37842
3.7275	14.80408
3.728	11.88354
3.7285	13.59558
3.729	4.53186
3.7295	-3.62549
3.73	-7.5531
3.7305	-0.50354
3.731	9.76868
3.7315	31.01807
3.732	36.4563
3.7325	30.51453
3.733	24.97559
3.7335	17.82532
3.734	29.50745
3.7345	38.06763
3.735	35.85205
3.7355	38.974
3.736	40.98816
3.7365	41.18958
3.737	34.54285
3.7375	23.06213
3.738	22.05505
3.7385	18.8324
3.739	6.64673
3.7395	4.02832
3.74	-1.40991
3.7405	1.40991
3.741	-1.61133
3.7415	-2.61841
3.742	-1.61133
3.7425	-8.45947
3.743	-8.35876
3.7435	-9.56726
3.744	-2.21558
3.7445	2.01416
3.745	-2.21558
3.7455	-1.51062
3.746	-3.12195
3.7465	3.62549
3.747	10.17151
3.7475	8.45947
3.748	7.25098
3.7485	4.63257
3.749	6.04248
3.7495	0.60425
3.75	-6.74744
3.7505	0
3.751	11.17859
3.7515	10.67505
3.752	14.40125
3.7525	21.14868
3.753	18.22815
3.7535	6.44531
3.754	-1.71204
3.7545	-9.16443
3.755	-26.98975
3.7555	-45.72144
3.756	-75.83313
3.7565	-106.04553
3.757	-112.08801
3.7575	-105.03845
3.758	-90.63721
3.7585	-96.17615
3.759	-91.34216
3.7595	-67.57507
3.76	-41.08887
3.7605	-17.22107
3.761	11.68213
3.7615	40.78674
3.762	71.30127
3.7625	90.33508
3.763	94.56482
3.7635	87.61597
3.764	77.64587
3.7645	70.19348
3.765	63.04321
3.7655	69.08569
3.766	68.78357
3.7665	69.68994
3.767	66.06445
3.7675	60.3241
3.768	47.33276
3.7685	45.41931
3.769	45.01648
3.7695	45.92285
3.77	45.41931
3.7705	41.39099
3.771	38.16833
3.7715	26.3855
3.772	12.5885
3.7725	3.42407
3.773	-9.56726
3.7735	-20.54443
3.774	-24.37134
3.7745	-23.96851
3.775	-25.78125
3.7755	-34.44214
3.776	-33.23364
3.7765	-36.35559
3.777	-39.57825
3.7775	-34.44214
3.778	-22.55859
3.7785	-25.98267
3.779	-21.04797
3.7795	-18.12744
3.78	-13.19275
3.7805	-6.44531
3.781	-3.52478
3.7815	3.92761
3.782	10.37292
3.7825	10.87646
3.783	12.08496
3.7835	14.50195
3.784	6.14319
3.7845	-2.41699
3.785	-7.85522
3.7855	-26.68762
3.786	-46.92993
3.7865	-66.16516
3.787	-67.27295
3.7875	-66.16516
3.788	-39.77966
3.7885	-10.37292
3.789	3.42407
3.7895	21.75293
3.79	39.27612
3.7905	42.90161
3.791	43.80798
3.7915	53.67737
3.792	56.39648
3.7925	59.1156
3.793	56.29578
3.7935	49.74976
3.794	47.23206
3.7945	28.29895
3.795	10.77576
3.7955	9.76868
3.796	9.46655
3.7965	16.41541
3.797	3.02124
3.7975	-13.69629
3.798	-18.73169
3.7985	-15.81116
3.799	-12.08496
3.7995	-3.22266
3.8	4.93469
3.8005	2.21558
3.801	9.97009
3.8015	10.27222
3.802	21.3501
3.8025	23.16284
3.803	36.85913
3.8035	38.67188
3.804	43.00232
3.8045	49.44763
3.805	41.18958
3.8055	41.39099
3.806	43.10303
3.8065	39.57825
3.807	30.71594
3.8075	22.05505
3.808	10.87646
3.8085	-5.43823
3.809	-16.21399
3.8095	-19.53735
3.81	-28.80249
3.8105	-29.91028
3.811	-27.99683
3.8115	-27.49329
3.812	-31.92444
3.8125	-28.9032
3.813	-28.39966
3.8135	-34.14001
3.814	-34.03931
3.8145	-27.79541
3.815	-16.41541
3.8155	-3.8269
3.816	20.1416
3.8165	40.78674
3.817	55.3894
3.8175	56.79932
3.818	59.21631
3.8185	57.70569
3.819	46.72852
3.8195	37.16125
3.82	19.63806
3.8205	9.97009
3.821	-4.83398
3.8215	-12.5885
3.822	-11.58142
3.8225	-8.25806
3.823	-16.41541
3.8235	-30.91736
3.824	-33.03223
3.8245	-32.83081
3.825	-39.77966
3.8255	-43.20374
3.826	-37.86621
3.8265	-31.11877
3.827	-30.31311
3.8275	-29.50745
3.828	-24.97559
3.8285	-25.47913
3.829	-12.18567
3.8295	-5.74036
3.83	-2.41699
3.8305	5.63965
3.831	12.5885
3.8315	15.20691
3.832	20.24231
3.8325	26.3855
3.833	29.80957
3.8335	25.57983
3.834	22.25647
3.8345	25.57983
3.835	19.53735
3.8355	11.68213
3.836	14.30054
3.8365	-2.92053
3.837	-10.37292
3.8375	-31.21948
3.838	-71.50269
3.8385	-104.63562
3.839	-108.96606
3.8395	-98.19031
3.84	-75.4303
3.8405	-51.36108
3.841	-25.78125
3.8415	4.93469
3.842	-4.02832
3.8425	-21.75293
3.843	-19.03381
3.8435	-18.63098
3.844	-15.1062
3.8445	-6.04248
3.845	3.12195
3.8455	13.99841
3.846	23.96851
3.8465	36.4563
3.847	53.47595
3.8475	81.97632
3.848	102.31934
3.8485	126.28784
3.849	145.62378
3.8495	145.72449
3.85	146.53015
3.8505	153.98254
3.851	148.24219
3.8515	139.27917
3.852	116.922
3.8525	87.01172
3.853	60.22339
3.8535	36.15417
3.854	13.09204
3.8545	-16.51611
3.855	-29.80957
3.8555	-28.50037
3.856	-30.01099
3.8565	-21.3501
3.857	-11.48071
3.8575	-0.10071
3.858	3.02124
3.8585	12.08496
3.859	22.55859
3.8595	22.96143
3.86	21.85364
3.8605	27.19116
3.861	30.71594
3.8615	29.10461
3.862	22.15576
3.8625	20.44373
3.863	9.36584
3.8635	6.2439
3.864	0.70496
3.8645	-11.98425
3.865	-19.83948
3.8655	-22.55859
3.866	-35.85205
3.8665	-48.03772
3.867	-52.56958
3.8675	-48.33984
3.868	-39.47754
3.8685	-31.82373
3.869	-31.82373
3.8695	-31.62231
3.87	-33.9386
3.8705	-29.80957
3.871	-26.08337
3.8715	-21.95435
3.872	-21.95435
3.8725	-23.66638
3.873	-21.14868
3.8735	-17.52319
3.874	-13.89771
3.8745	-7.85522
3.875	-6.2439
3.8755	0.50354
3.876	6.84814
3.8765	2.92053
3.877	-3.62549
3.8775	-12.18567
3.878	0.50354
3.8785	1.3092
3.879	3.02124
3.8795	-25.37842
3.88	-46.92993
3.8805	-57.30286
3.881	-51.96533
3.8815	-48.64197
3.882	-8.56018
3.8825	9.97009
3.883	32.52869
3.8835	46.12427
3.884	50.55542
3.8845	38.974
3.885	32.93152
3.8855	23.46497
3.886	14.30054
3.8865	21.3501
3.887	28.60107
3.8875	25.47913
3.888	22.6593
3.8885	28.70178
3.889	28.70178
3.8895	22.86072
3.89	18.73169
3.8905	29.30603
3.891	31.52161
3.8915	35.54993
3.892	43.90869
3.8925	43.00232
3.893	36.65771
3.8935	33.23364
3.894	31.92444
3.8945	29.20532
3.895	28.09753
3.8955	27.19116
3.896	26.3855
3.8965	21.95435
3.897	13.09204
3.8975	2.61841
3.898	0
3.8985	2.41699
3.899	-7.65381
3.8995	-12.99133
3.9	-9.16443
3.9005	-16.61682
3.901	-11.78284
3.9015	-11.98425
3.902	-11.17859
3.9025	-13.09204
3.903	-10.77576
3.9035	-26.48621
3.904	-57.8064
3.9045	-66.36658
3.905	-62.43896
3.9055	-55.99365
3.906	-46.82922
3.9065	-37.26196
3.907	-47.53418
3.9075	-48.13843
3.908	-29.30603
3.9085	-24.37134
3.909	-13.39417
3.9095	-19.63806
3.91	-51.66321
3.9105	-65.25879
3.911	-62.33826
3.9115	-43.40515
3.912	-26.18408
3.9125	0.60425
3.913	19.03381
3.9135	37.36267
3.914	41.99524
3.9145	45.62073
3.915	41.69312
3.9155	33.03223
3.916	40.58533
3.9165	41.39099
3.917	35.34851
3.9175	49.64905
3.918	65.86304
3.9185	53.07312
3.919	1.40991
3.9195	-37.16125
3.92	-75.93384
3.9205	-95.77332
3.921	-102.52075
3.9215	-100.10376
3.922	-79.35791
3.9225	-61.83472
3.923	-41.08887
3.9235	-25.88196
3.924	-6.2439
3.9245	5.94177
3.925	6.14319
3.9255	17.82532
3.926	21.95435
3.9265	26.68762
3.927	18.73169
3.9275	3.32336
3.928	9.66797
3.9285	4.73328
3.929	5.63965
3.9295	16.61682
3.93	29.20532
3.9305	52.06604
3.931	86.50818
3.9315	105.94482
3.932	130.21545
3.9325	140.99121
3.933	137.76855
3.9335	137.66785
3.934	139.27917
3.9345	117.22412
3.935	96.67969
3.9355	80.66711
3.936	73.81897
3.9365	77.948
3.937	74.02039
3.9375	71.30127
3.938	72.9126
3.9385	63.24463
3.939	37.56409
3.9395	-1.3092
3.94	-16.3147
3.9405	-29.91028
3.941	-33.03223
3.9415	-26.68762
3.942	-24.27063
3.9425	-23.16284
3.943	-17.52319
3.9435	-20.74585
3.944	-10.17151
3.9445	-14.30054
3.945	-21.95435
3.9455	-41.39099
3.946	-31.01807
3.9465	-19.03381
3.947	-8.45947
3.9475	7.35168
3.948	10.0708
3.9485	12.5885
3.949	0.90637
3.9495	-0.60425
3.95	-12.28638
3.9505	-34.94568
3.951	-39.77966
3.9515	-42.29736
3.952	-39.17542
3.9525	-36.05347
3.953	-24.27063
3.9535	-16.91895
3.954	12.68921
3.9545	39.17542
3.955	50.2533
3.9555	55.18799
3.956	51.76392
3.9565	47.53418
3.957	47.03064
3.9575	48.74268
3.958	56.09436
3.9585	55.89294
3.959	52.56958
3.9595	43.20374
3.96	31.11877
3.9605	0
3.961	-18.02673
3.9615	-34.44214
3.962	-33.13293
3.9625	-47.23206
3.963	-55.89294
3.9635	-48.33984
3.964	-28.9032
3.9645	-16.51611
3.965	-18.02673
3.9655	-18.8324
3.966	-9.97009
3.9665	4.12903
