Niccolo_Morelli_Left_2.c3d  



Time(s):	B_R_bicipite(μV):
0	4.43115
0.0005	6.14319
0.001	9.06372
0.0015	7.75452
0.002	4.12903
0.0025	8.15735
0.003	7.85522
0.0035	8.35876
0.004	5.94177
0.0045	13.89771
0.005	8.96301
0.0055	9.97009
0.006	8.7616
0.0065	6.74744
0.007	7.25098
0.0075	3.52478
0.008	6.84814
0.0085	10.0708
0.009	9.36584
0.0095	8.45947
0.01	10.57434
0.0105	5.63965
0.011	7.85522
0.0115	7.5531
0.012	11.98425
0.0125	6.3446
0.013	12.68921
0.0135	8.7616
0.014	4.22974
0.0145	8.05664
0.015	5.74036
0.0155	5.0354
0.016	6.44531
0.0165	0
0.017	3.62549
0.0175	5.43823
0.018	2.61841
0.0185	7.04956
0.019	7.25098
0.0195	3.42407
0.02	6.04248
0.0205	4.83398
0.021	7.85522
0.0215	7.45239
0.022	3.92761
0.0225	1.00708
0.023	6.84814
0.0235	4.63257
0.024	5.13611
0.0245	5.63965
0.025	2.01416
0.0255	3.32336
0.026	3.32336
0.0265	5.53894
0.027	2.61841
0.0275	2.81982
0.028	1.91345
0.0285	2.81982
0.029	3.7262
0.0295	4.43115
0.03	5.74036
0.0305	4.73328
0.031	3.92761
0.0315	2.5177
0.032	3.22266
0.0325	0.90637
0.033	3.52478
0.0335	4.22974
0.034	9.97009
0.0345	8.56018
0.035	11.2793
0.0355	4.43115
0.036	0.20142
0.0365	4.53186
0.037	6.84814
0.0375	8.56018
0.038	6.84814
0.0385	5.0354
0.039	6.84814
0.0395	9.36584
0.04	2.61841
0.0405	7.25098
0.041	8.35876
0.0415	3.32336
0.042	3.32336
0.0425	7.75452
0.043	9.36584
0.0435	4.93469
0.044	5.63965
0.0445	6.44531
0.045	6.64673
0.0455	5.94177
0.046	5.74036
0.0465	11.17859
0.047	5.33752
0.0475	6.74744
0.048	5.23682
0.0485	7.95593
0.049	9.76868
0.0495	6.2439
0.05	8.15735
0.0505	5.23682
0.051	8.15735
0.0515	2.92053
0.052	7.85522
0.0525	4.63257
0.053	10.57434
0.0535	9.97009
0.054	13.69629
0.0545	5.0354
0.055	10.67505
0.0555	8.96301
0.056	9.36584
0.0565	12.68921
0.057	10.37292
0.0575	7.25098
0.058	7.75452
0.0585	7.95593
0.059	5.74036
0.0595	-3.02124
0.06	2.41699
0.0605	1.71204
0.061	6.14319
0.0615	8.05664
0.062	2.81982
0.0625	1.61133
0.063	1.71204
0.0635	4.43115
0.064	2.41699
0.0645	2.5177
0.065	7.45239
0.0655	7.75452
0.066	4.83398
0.0665	3.8269
0.067	3.52478
0.0675	3.52478
0.068	7.65381
0.0685	9.26514
0.069	3.8269
0.0695	-2.41699
0.07	4.02832
0.0705	7.65381
0.071	5.53894
0.0715	3.52478
0.072	3.32336
0.0725	3.12195
0.073	-1.10779
0.0735	6.44531
0.074	6.84814
0.0745	5.63965
0.075	4.93469
0.0755	5.43823
0.076	2.01416
0.0765	7.04956
0.077	-1.3092
0.0775	1.51062
0.078	-0.10071
0.0785	5.84106
0.079	5.0354
0.0795	3.12195
0.08	5.53894
0.0805	3.42407
0.081	5.33752
0.0815	9.66797
0.082	7.04956
0.0825	7.65381
0.083	7.5531
0.0835	6.64673
0.084	4.93469
0.0845	3.02124
0.085	7.45239
0.0855	4.73328
0.086	8.96301
0.0865	7.65381
0.087	4.93469
0.0875	4.83398
0.088	4.63257
0.0885	13.39417
0.089	8.96301
0.0895	12.68921
0.09	6.64673
0.0905	1.40991
0.091	7.85522
0.0915	9.46655
0.092	8.25806
0.0925	4.12903
0.093	8.05664
0.0935	12.99133
0.094	11.58142
0.0945	8.45947
0.095	8.05664
0.0955	4.43115
0.096	3.8269
0.0965	4.63257
0.097	7.75452
0.0975	5.13611
0.098	7.35168
0.0985	7.65381
0.099	4.02832
0.0995	1.00708
0.1	4.83398
0.1005	7.95593
0.101	4.93469
0.1015	5.33752
0.102	5.0354
0.1025	2.92053
0.103	4.33044
0.1035	4.63257
0.104	12.18567
0.1045	10.77576
0.105	8.66089
0.1055	8.15735
0.106	9.56726
0.1065	8.96301
0.107	8.35876
0.1075	6.14319
0.108	0.30212
0.1085	6.74744
0.109	7.75452
0.1095	1.3092
0.11	1.40991
0.1105	5.94177
0.111	1.3092
0.1115	3.8269
0.112	1.51062
0.1125	4.43115
0.113	4.53186
0.1135	6.04248
0.114	10.0708
0.1145	12.68921
0.115	10.37292
0.1155	7.25098
0.116	11.38
0.1165	12.48779
0.117	11.2793
0.1175	3.52478
0.118	11.07788
0.1185	9.06372
0.119	7.35168
0.1195	9.46655
0.12	9.56726
0.1205	13.59558
0.121	15.1062
0.1215	6.04248
0.122	8.66089
0.1225	7.75452
0.123	8.05664
0.1235	5.53894
0.124	7.65381
0.1245	5.63965
0.125	6.94885
0.1255	9.56726
0.126	5.63965
0.1265	6.74744
0.127	8.15735
0.1275	7.85522
0.128	3.62549
0.1285	2.61841
0.129	6.44531
0.1295	5.0354
0.13	7.75452
0.1305	5.84106
0.131	2.71912
0.1315	1.91345
0.132	4.12903
0.1325	5.33752
0.133	2.92053
0.1335	5.63965
0.134	3.22266
0.1345	4.22974
0.135	4.63257
0.1355	7.85522
0.136	8.7616
0.1365	1.51062
0.137	3.02124
0.1375	5.13611
0.138	5.53894
0.1385	9.26514
0.139	4.63257
0.1395	2.5177
0.14	1.81274
0.1405	-0.70496
0.141	-0.50354
0.1415	4.93469
0.142	-4.02832
0.1425	1.91345
0.143	4.22974
0.1435	2.5177
0.144	4.12903
0.1445	-0.30212
0.145	5.33752
0.1455	5.13611
0.146	0.10071
0.1465	0
0.147	6.44531
0.1475	2.61841
0.148	10.57434
0.1485	10.77576
0.149	11.88354
0.1495	4.83398
0.15	11.78284
0.1505	6.64673
0.151	4.63257
0.1515	0.30212
0.152	0.40283
0.1525	2.11487
0.153	12.08496
0.1535	6.2439
0.154	8.45947
0.1545	4.53186
0.155	5.94177
0.1555	8.45947
0.156	9.66797
0.1565	10.57434
0.157	8.7616
0.1575	6.64673
0.158	6.54602
0.1585	6.84814
0.159	6.14319
0.1595	4.12903
0.16	5.63965
0.1605	5.63965
0.161	6.04248
0.1615	7.65381
0.162	6.14319
0.1625	2.5177
0.163	2.31628
0.1635	0.20142
0.164	3.32336
0.1645	7.5531
0.165	3.02124
0.1655	4.73328
0.166	1.71204
0.1665	12.99133
0.167	7.25098
0.1675	8.05664
0.168	8.25806
0.1685	5.0354
0.169	7.85522
0.1695	5.23682
0.17	8.96301
0.1705	8.8623
0.171	10.0708
0.1715	6.94885
0.172	4.63257
0.1725	4.33044
0.173	4.93469
0.1735	5.0354
0.174	7.25098
0.1745	10.27222
0.175	-1.71204
0.1755	-0.20142
0.176	-0.70496
0.1765	-3.62549
0.177	0.30212
0.1775	8.25806
0.178	0.60425
0.1785	-5.0354
0.179	-4.53186
0.1795	-0.40283
0.18	3.92761
0.1805	0.40283
0.181	2.41699
0.1815	5.63965
0.182	5.0354
0.1825	4.12903
0.183	4.22974
0.1835	4.73328
0.184	1.2085
0.1845	10.0708
0.185	1.10779
0.1855	4.83398
0.186	1.81274
0.1865	5.84106
0.187	5.43823
0.1875	7.04956
0.188	3.52478
0.1885	3.52478
0.189	3.52478
0.1895	5.84106
0.19	1.51062
0.1905	2.71912
0.191	4.93469
0.1915	4.63257
0.192	10.97717
0.1925	7.35168
0.193	5.63965
0.1935	10.0708
0.194	4.12903
0.1945	3.52478
0.195	3.62549
0.1955	3.92761
0.196	2.21558
0.1965	10.0708
0.197	4.22974
0.1975	5.74036
0.198	-0.40283
0.1985	9.86938
0.199	4.33044
0.1995	2.61841
0.2	4.93469
0.2005	6.2439
0.201	8.35876
0.2015	5.84106
0.202	5.53894
0.2025	7.65381
0.203	8.15735
0.2035	10.77576
0.204	8.7616
0.2045	8.25806
0.205	2.92053
0.2055	6.44531
0.206	5.74036
0.2065	3.52478
0.207	0.30212
0.2075	-2.5177
0.208	1.91345
0.2085	7.04956
0.209	9.97009
0.2095	2.81982
0.21	3.62549
0.2105	-0.10071
0.211	-0.90637
0.2115	3.62549
0.212	-2.11487
0.2125	1.40991
0.213	5.94177
0.2135	4.93469
0.214	7.45239
0.2145	3.7262
0.215	6.94885
0.2155	0.90637
0.216	3.92761
0.2165	8.15735
0.217	5.74036
0.2175	5.84106
0.218	5.53894
0.2185	6.84814
0.219	8.25806
0.2195	8.45947
0.22	4.63257
0.2205	9.16443
0.221	4.83398
0.2215	5.74036
0.222	6.44531
0.2225	-0.30212
0.223	2.01416
0.2235	3.32336
0.224	3.92761
0.2245	3.8269
0.225	2.11487
0.2255	4.63257
0.226	3.92761
0.2265	5.84106
0.227	6.64673
0.2275	3.62549
0.228	3.42407
0.2285	-1.91345
0.229	5.13611
0.2295	3.52478
0.23	4.93469
0.2305	8.45947
0.231	11.68213
0.2315	6.74744
0.232	6.74744
0.2325	9.76868
0.233	4.73328
0.2335	8.8623
0.234	9.36584
0.2345	4.63257
0.235	6.94885
0.2355	8.15735
0.236	8.15735
0.2365	7.95593
0.237	4.22974
0.2375	2.31628
0.238	2.61841
0.2385	7.04956
0.239	6.84814
0.2395	4.22974
0.24	8.15735
0.2405	5.13611
0.241	7.04956
0.2415	9.46655
0.242	10.57434
0.2425	9.06372
0.243	8.25806
0.2435	8.15735
0.244	2.01416
0.2445	1.10779
0.245	7.95593
0.2455	7.25098
0.246	8.7616
0.2465	13.39417
0.247	9.97009
0.2475	15.60974
0.248	13.59558
0.2485	11.78284
0.249	8.45947
0.2495	13.797
0.25	13.49487
0.2505	10.47363
0.251	8.7616
0.2515	11.68213
0.252	10.67505
0.2525	9.66797
0.253	9.66797
0.2535	9.46655
0.254	12.78992
0.2545	14.80408
0.255	14.80408
0.2555	8.56018
0.256	11.78284
0.2565	8.25806
0.257	5.23682
0.2575	11.17859
0.258	3.7262
0.2585	1.51062
0.259	3.92761
0.2595	6.3446
0.26	1.51062
0.2605	6.74744
0.261	6.14319
0.2615	4.93469
0.262	4.93469
0.2625	1.00708
0.263	3.52478
0.2635	2.31628
0.264	4.73328
0.2645	7.65381
0.265	6.84814
0.2655	1.00708
0.266	3.12195
0.2665	1.61133
0.267	2.71912
0.2675	5.74036
0.268	5.63965
0.2685	3.52478
0.269	9.16443
0.2695	6.14319
0.27	3.02124
0.2705	7.85522
0.271	7.45239
0.2715	9.16443
0.272	7.65381
0.2725	4.12903
0.273	2.41699
0.2735	8.7616
0.274	9.06372
0.2745	4.93469
0.275	5.74036
0.2755	4.12903
0.276	-1.91345
0.2765	-0.90637
0.277	3.32336
0.2775	4.63257
0.278	6.84814
0.2785	3.92761
0.279	-1.91345
0.2795	-5.0354
0.28	5.43823
0.2805	2.11487
0.281	-2.11487
0.2815	-1.40991
0.282	-0.70496
0.2825	2.5177
0.283	4.33044
0.2835	1.10779
0.284	6.64673
0.2845	8.35876
0.285	0.10071
0.2855	3.02124
0.286	-1.00708
0.2865	1.71204
0.287	0.10071
0.2875	4.53186
0.288	6.04248
0.2885	4.02832
0.289	3.22266
0.2895	5.74036
0.29	3.7262
0.2905	6.74744
0.291	0.60425
0.2915	5.63965
0.292	1.61133
0.2925	9.76868
0.293	9.06372
0.2935	6.54602
0.294	5.33752
0.2945	2.61841
0.295	9.56726
0.2955	7.04956
0.296	9.76868
0.2965	8.8623
0.297	9.36584
0.2975	7.04956
0.298	4.33044
0.2985	9.66797
0.299	9.76868
0.2995	6.2439
0.3	12.78992
0.3005	9.76868
0.301	11.07788
0.3015	12.68921
0.302	13.49487
0.3025	12.78992
0.303	16.21399
0.3035	12.5885
0.304	9.76868
0.3045	11.07788
0.305	6.3446
0.3055	4.12903
0.306	7.15027
0.3065	6.84814
0.307	9.36584
0.3075	5.63965
0.308	5.53894
0.3085	4.02832
0.309	6.64673
0.3095	2.81982
0.31	4.22974
0.3105	5.23682
0.311	4.33044
0.3115	1.71204
0.312	3.7262
0.3125	5.43823
0.313	4.63257
0.3135	3.42407
0.314	5.43823
0.3145	8.8623
0.315	11.58142
0.3155	3.02124
0.316	8.7616
0.3165	2.81982
0.317	9.06372
0.3175	9.16443
0.318	7.04956
0.3185	5.0354
0.319	9.46655
0.3195	2.61841
0.32	0.90637
0.3205	3.22266
0.321	0.90637
0.3215	4.33044
0.322	4.83398
0.3225	7.45239
0.323	6.2439
0.3235	2.92053
0.324	9.97009
0.3245	5.63965
0.325	3.7262
0.3255	0.20142
0.326	1.61133
0.3265	3.8269
0.327	5.63965
0.3275	6.44531
0.328	4.83398
0.3285	5.74036
0.329	5.13611
0.3295	8.66089
0.33	8.7616
0.3305	4.12903
0.331	5.74036
0.3315	7.25098
0.332	4.22974
0.3325	4.63257
0.333	4.43115
0.3335	7.15027
0.334	5.94177
0.3345	9.66797
0.335	14.19983
0.3355	8.66089
0.336	14.50195
0.3365	10.67505
0.337	4.73328
0.3375	11.38
0.338	5.84106
0.3385	8.05664
0.339	4.83398
0.3395	4.73328
0.34	2.01416
0.3405	6.44531
0.341	4.22974
0.3415	7.35168
0.342	-0.70496
0.3425	7.5531
0.343	2.01416
0.3435	5.23682
0.344	2.21558
0.3445	2.01416
0.345	7.5531
0.3455	5.43823
0.346	-0.20142
0.3465	0.90637
0.347	4.02832
0.3475	4.12903
0.348	1.10779
0.3485	6.64673
0.349	7.5531
0.3495	8.15735
0.35	6.84814
0.3505	5.84106
0.351	5.63965
0.3515	5.74036
0.352	5.0354
0.3525	-3.42407
0.353	2.92053
0.3535	4.33044
0.354	-0.10071
0.3545	7.95593
0.355	4.43115
0.3555	1.00708
0.356	1.2085
0.3565	-3.02124
0.357	0.40283
0.3575	3.22266
0.358	1.10779
0.3585	5.0354
0.359	1.2085
0.3595	1.91345
0.36	1.51062
0.3605	3.7262
0.361	6.2439
0.3615	0
0.362	2.61841
0.3625	-6.2439
0.363	10.17151
0.3635	9.16443
0.364	2.21558
0.3645	1.00708
0.365	3.7262
0.3655	5.33752
0.366	2.11487
0.3665	7.65381
0.367	8.66089
0.3675	4.53186
0.368	3.22266
0.3685	4.63257
0.369	5.23682
0.3695	2.21558
0.37	5.33752
0.3705	0.20142
0.371	0.90637
0.3715	7.04956
0.372	1.2085
0.3725	0.40283
0.373	0.60425
0.3735	1.91345
0.374	5.43823
0.3745	6.3446
0.375	8.15735
0.3755	9.97009
0.376	5.74036
0.3765	8.15735
0.377	8.45947
0.3775	7.04956
0.378	9.26514
0.3785	10.0708
0.379	6.3446
0.3795	5.43823
0.38	6.64673
0.3805	6.54602
0.381	8.35876
0.3815	7.75452
0.382	1.2085
0.3825	4.33044
0.383	1.2085
0.3835	4.63257
0.384	5.43823
0.3845	10.0708
0.385	2.71912
0.3855	4.33044
0.386	8.96301
0.3865	9.46655
0.387	6.54602
0.3875	5.0354
0.388	2.5177
0.3885	-1.00708
0.389	0.40283
0.3895	1.61133
0.39	8.45947
0.3905	5.13611
0.391	3.92761
0.3915	2.31628
0.392	5.13611
0.3925	1.61133
0.393	1.91345
0.3935	-5.0354
0.394	-2.41699
0.3945	-2.92053
0.395	-0.70496
0.3955	0.30212
0.396	4.22974
0.3965	-4.53186
0.397	2.81982
0.3975	-1.81274
0.398	2.01416
0.3985	-1.61133
0.399	-3.8269
0.3995	-2.31628
0.4	-1.81274
0.4005	-1.81274
0.401	-2.41699
0.4015	0.80566
0.402	2.31628
0.4025	-2.41699
0.403	-9.86938
0.4035	-3.02124
0.404	-2.21558
0.4045	1.3092
0.405	-1.91345
0.4055	-0.70496
0.406	-0.20142
0.4065	-1.10779
0.407	-0.70496
0.4075	-2.5177
0.408	0.30212
0.4085	0.50354
0.409	0.40283
0.4095	-4.02832
0.41	-4.22974
0.4105	0.40283
0.411	-4.02832
0.4115	1.81274
0.412	7.45239
0.4125	2.21558
0.413	4.12903
0.4135	4.63257
0.414	6.04248
0.4145	2.41699
0.415	4.73328
0.4155	-2.41699
0.416	2.21558
0.4165	5.74036
0.417	0.60425
0.4175	2.21558
0.418	6.64673
0.4185	1.3092
0.419	4.73328
0.4195	4.93469
0.42	11.07788
0.4205	6.3446
0.421	6.04248
0.4215	3.12195
0.422	6.64673
0.4225	9.26514
0.423	7.15027
0.4235	4.22974
0.424	5.94177
0.4245	4.53186
0.425	-1.2085
0.4255	2.5177
0.426	3.42407
0.4265	0.40283
0.427	7.5531
0.4275	2.71912
0.428	2.81982
0.4285	5.74036
0.429	3.62549
0.4295	-0.60425
0.43	1.10779
0.4305	4.53186
0.431	6.84814
0.4315	4.22974
0.432	8.8623
0.4325	6.54602
0.433	7.25098
0.4335	12.18567
0.434	6.64673
0.4345	6.44531
0.435	5.13611
0.4355	8.8623
0.436	9.66797
0.4365	4.12903
0.437	7.65381
0.4375	7.45239
0.438	6.44531
0.4385	6.3446
0.439	6.3446
0.4395	4.22974
0.44	4.73328
0.4405	5.13611
0.441	2.5177
0.4415	1.10779
0.442	4.63257
0.4425	7.25098
0.443	9.97009
0.4435	6.2439
0.444	10.0708
0.4445	9.86938
0.445	6.84814
0.4455	5.63965
0.446	3.02124
0.4465	6.3446
0.447	6.44531
0.4475	13.797
0.448	4.63257
0.4485	8.35876
0.449	8.66089
0.4495	7.45239
0.45	5.33752
0.4505	2.5177
0.451	8.45947
0.4515	2.81982
0.452	6.64673
0.4525	5.84106
0.453	3.22266
0.4535	-0.70496
0.454	2.01416
0.4545	1.81274
0.455	4.83398
0.4555	5.63965
0.456	8.05664
0.4565	-0.50354
0.457	5.84106
0.4575	6.04248
0.458	4.93469
0.4585	6.64673
0.459	6.2439
0.4595	4.53186
0.46	7.25098
0.4605	2.21558
0.461	6.44531
0.4615	3.92761
0.462	5.84106
0.4625	3.8269
0.463	4.63257
0.4635	6.04248
0.464	5.74036
0.4645	7.15027
0.465	5.94177
0.4655	9.56726
0.466	6.04248
0.4665	1.40991
0.467	7.75452
0.4675	6.04248
0.468	5.13611
0.4685	4.12903
0.469	6.14319
0.4695	-3.52478
0.47	-1.71204
0.4705	0.10071
0.471	6.3446
0.4715	6.14319
0.472	8.8623
0.4725	7.85522
0.473	9.26514
0.4735	8.25806
0.474	1.81274
0.4745	1.10779
0.475	9.06372
0.4755	9.16443
0.476	11.48071
0.4765	9.26514
0.477	13.99841
0.4775	9.06372
0.478	6.44531
0.4785	11.88354
0.479	5.0354
0.4795	9.26514
0.48	8.35876
0.4805	11.48071
0.481	1.40991
0.4815	5.84106
0.482	4.02832
0.4825	2.41699
0.483	3.12195
0.4835	2.5177
0.484	5.23682
0.4845	4.12903
0.485	4.02832
0.4855	11.07788
0.486	8.56018
0.4865	7.04956
0.487	7.15027
0.4875	8.05664
0.488	16.41541
0.4885	17.32178
0.489	5.53894
0.4895	11.98425
0.49	9.66797
0.4905	11.68213
0.491	10.97717
0.4915	13.797
0.492	5.53894
0.4925	12.89062
0.493	8.35876
0.4935	6.64673
0.494	6.84814
0.4945	6.3446
0.495	3.52478
0.4955	9.76868
0.496	8.05664
0.4965	9.16443
0.497	9.56726
0.4975	6.3446
0.498	4.02832
0.4985	6.74744
0.499	8.35876
0.4995	10.77576
0.5	8.7616
0.5005	3.42407
0.501	4.93469
0.5015	8.25806
0.502	9.56726
0.5025	7.45239
0.503	6.14319
0.5035	7.5531
0.504	3.32336
0.5045	3.42407
0.505	7.04956
0.5055	5.0354
0.506	7.04956
0.5065	6.54602
0.507	7.95593
0.5075	6.44531
0.508	7.04956
0.5085	7.45239
0.509	9.46655
0.5095	7.35168
0.51	0.40283
0.5105	1.51062
0.511	3.62549
0.5115	5.94177
0.512	4.22974
0.5125	3.22266
0.513	9.97009
0.5135	7.35168
0.514	9.26514
0.5145	9.36584
0.515	11.17859
0.5155	13.59558
0.516	7.75452
0.5165	8.45947
0.517	7.15027
0.5175	9.06372
0.518	8.15735
0.5185	6.04248
0.519	3.8269
0.5195	10.57434
0.52	2.11487
0.5205	4.43115
0.521	1.51062
0.5215	-2.61841
0.522	-0.50354
0.5225	2.21558
0.523	10.37292
0.5235	6.2439
0.524	1.3092
0.5245	5.84106
0.525	3.32336
0.5255	0.30212
0.526	4.33044
0.5265	-3.42407
0.527	4.12903
0.5275	1.3092
0.528	2.41699
0.5285	1.10779
0.529	5.84106
0.5295	1.91345
0.53	6.84814
0.5305	5.53894
0.531	9.06372
0.5315	4.63257
0.532	6.44531
0.5325	8.96301
0.533	-1.81274
0.5335	4.33044
0.534	-0.30212
0.5345	5.94177
0.535	2.81982
0.5355	6.04248
0.536	9.26514
0.5365	3.32336
0.537	0.60425
0.5375	-0.60425
0.538	8.25806
0.5385	-3.62549
0.539	-0.10071
0.5395	7.04956
0.54	-3.02124
0.5405	-1.2085
0.541	-3.62549
0.5415	-2.21558
0.542	0.40283
0.5425	-3.32336
0.543	-3.22266
0.5435	-3.02124
0.544	-3.52478
0.5445	-4.22974
0.545	1.71204
0.5455	3.92761
0.546	-1.81274
0.5465	-3.12195
0.547	0.90637
0.5475	3.8269
0.548	2.5177
0.5485	6.2439
0.549	8.96301
0.5495	4.12903
0.55	7.65381
0.5505	7.65381
0.551	3.12195
0.5515	4.33044
0.552	2.5177
0.5525	0.80566
0.553	6.64673
0.5535	1.00708
0.554	6.44531
0.5545	5.43823
0.555	5.43823
0.5555	7.04956
0.556	7.85522
0.5565	11.68213
0.557	8.8623
0.5575	11.78284
0.558	9.26514
0.5585	9.56726
0.559	10.37292
0.5595	7.5531
0.56	9.36584
0.5605	8.45947
0.561	8.56018
0.5615	6.44531
0.562	12.78992
0.5625	8.15735
0.563	6.94885
0.5635	5.13611
0.564	4.12903
0.5645	6.54602
0.565	11.78284
0.5655	9.46655
0.566	7.45239
0.5665	4.53186
0.567	9.06372
0.5675	2.71912
0.568	4.93469
0.5685	9.06372
0.569	8.96301
0.5695	6.44531
0.57	8.25806
0.5705	12.18567
0.571	8.7616
0.5715	12.38708
0.572	6.14319
0.5725	1.61133
0.573	0.30212
0.5735	6.54602
0.574	5.74036
0.5745	5.33752
0.575	7.35168
0.5755	8.96301
0.576	4.93469
0.5765	6.3446
0.577	15.30762
0.5775	9.86938
0.578	2.81982
0.5785	6.04248
0.579	6.44531
0.5795	3.92761
0.58	5.0354
0.5805	7.65381
0.581	5.0354
0.5815	1.40991
0.582	4.63257
0.5825	0
0.583	0.60425
0.5835	1.91345
0.584	5.0354
0.5845	3.92761
0.585	6.54602
0.5855	4.33044
0.586	11.98425
0.5865	6.3446
0.587	8.45947
0.5875	7.45239
0.588	8.05664
0.5885	6.84814
0.589	5.33752
0.5895	1.40991
0.59	6.3446
0.5905	8.05664
0.591	7.35168
0.5915	7.35168
0.592	4.73328
0.5925	9.56726
0.593	7.04956
0.5935	14.60266
0.594	7.15027
0.5945	5.94177
0.595	3.8269
0.5955	5.43823
0.596	4.73328
0.5965	4.02832
0.597	3.62549
0.5975	6.84814
0.598	1.91345
0.5985	1.51062
0.599	2.11487
0.5995	6.04248
0.6	-1.3092
0.6005	-1.81274
0.601	4.22974
0.6015	2.41699
0.602	4.53186
0.6025	6.44531
0.603	0.50354
0.6035	0
0.604	-0.30212
0.6045	5.23682
0.605	1.81274
0.6055	4.02832
0.606	0
0.6065	1.51062
0.607	9.66797
0.6075	1.2085
0.608	7.15027
0.6085	3.12195
0.609	6.3446
0.6095	4.63257
0.61	0.90637
0.6105	1.91345
0.611	0.30212
0.6115	6.74744
0.612	-1.40991
0.6125	-4.93469
0.613	-5.53894
0.6135	-4.93469
0.614	0.80566
0.6145	-0.30212
0.615	3.62549
0.6155	1.00708
0.616	-1.71204
0.6165	-1.61133
0.617	0
0.6175	2.71912
0.618	4.43115
0.6185	6.84814
0.619	5.74036
0.6195	2.5177
0.62	5.74036
0.6205	4.93469
0.621	2.21558
0.6215	1.81274
0.622	1.2085
0.6225	-0.10071
0.623	1.81274
0.6235	4.83398
0.624	4.53186
0.6245	4.83398
0.625	9.06372
0.6255	6.04248
0.626	9.16443
0.6265	8.35876
0.627	3.02124
0.6275	5.84106
0.628	8.66089
0.6285	4.53186
0.629	7.5531
0.6295	5.0354
0.63	7.25098
0.6305	7.35168
0.631	8.45947
0.6315	10.27222
0.632	6.64673
0.6325	3.52478
0.633	2.61841
0.6335	9.97009
0.634	2.41699
0.6345	5.33752
0.635	6.64673
0.6355	5.23682
0.636	5.43823
0.6365	11.38
0.637	8.25806
0.6375	3.8269
0.638	4.22974
0.6385	7.5531
0.639	5.84106
0.6395	7.25098
0.64	3.32336
0.6405	2.71912
0.641	2.92053
0.6415	2.81982
0.642	0.60425
0.6425	0.60425
0.643	-2.71912
0.6435	3.32336
0.644	1.71204
0.6445	-0.60425
0.645	0.60425
0.6455	2.21558
0.646	-1.40991
0.6465	1.81274
0.647	-1.2085
0.6475	0.40283
0.648	2.11487
0.6485	6.04248
0.649	5.23682
0.6495	1.81274
0.65	4.12903
0.6505	2.81982
0.651	0.30212
0.6515	0.60425
0.652	1.3092
0.6525	0.30212
0.653	4.02832
0.6535	1.61133
0.654	2.21558
0.6545	2.21558
0.655	2.92053
0.6555	5.23682
0.656	2.81982
0.6565	5.74036
0.657	-4.22974
0.6575	4.12903
0.658	7.15027
0.6585	3.62549
0.659	3.62549
0.6595	7.5531
0.66	5.84106
0.6605	1.40991
0.661	0.90637
0.6615	2.41699
0.662	2.92053
0.6625	6.64673
0.663	4.73328
0.6635	10.57434
0.664	14.60266
0.6645	12.78992
0.665	15.50903
0.6655	6.14319
0.666	6.3446
0.6665	10.17151
0.667	7.95593
0.6675	10.17151
0.668	6.2439
0.6685	5.43823
0.669	5.13611
0.6695	3.52478
0.67	8.15735
0.6705	4.53186
0.671	9.66797
0.6715	5.63965
0.672	4.33044
0.6725	11.88354
0.673	9.26514
0.6735	7.85522
0.674	10.57434
0.6745	6.64673
0.675	7.25098
0.6755	3.8269
0.676	7.65381
0.6765	7.35168
0.677	13.09204
0.6775	8.8623
0.678	13.09204
0.6785	8.05664
0.679	11.48071
0.6795	7.85522
0.68	5.53894
0.6805	3.22266
0.681	8.96301
0.6815	6.74744
0.682	6.3446
0.6825	2.41699
0.683	8.15735
0.6835	-0.70496
0.684	3.22266
0.6845	6.2439
0.685	9.36584
0.6855	3.62549
0.686	4.33044
0.6865	3.52478
0.687	4.53186
0.6875	5.63965
0.688	2.71912
0.6885	5.13611
0.689	5.84106
0.6895	0
0.69	4.53186
0.6905	10.27222
0.691	9.97009
0.6915	8.05664
0.692	6.44531
0.6925	5.0354
0.693	8.66089
0.6935	10.57434
0.694	10.57434
0.6945	6.64673
0.695	14.40125
0.6955	9.76868
0.696	4.93469
0.6965	3.8269
0.697	7.25098
0.6975	7.85522
0.698	6.14319
0.6985	6.84814
0.699	6.2439
0.6995	9.16443
0.7	4.33044
0.7005	0.90637
0.701	3.32336
0.7015	3.7262
0.702	5.43823
0.7025	7.85522
0.703	4.43115
0.7035	12.5885
0.704	6.64673
0.7045	3.52478
0.705	3.62549
0.7055	5.94177
0.706	5.33752
0.7065	6.3446
0.707	7.5531
0.7075	6.74744
0.708	4.33044
0.7085	3.7262
0.709	9.06372
0.7095	0.20142
0.71	5.84106
0.7105	2.01416
0.711	3.02124
0.7115	4.22974
0.712	-0.70496
0.7125	0.60425
0.713	2.71912
0.7135	6.74744
0.714	5.0354
0.7145	7.25098
0.715	-0.10071
0.7155	2.61841
0.716	1.81274
0.7165	3.22266
0.717	2.61841
0.7175	0.80566
0.718	5.94177
0.7185	-3.12195
0.719	-0.20142
0.7195	0
0.72	1.10779
0.7205	5.13611
0.721	1.81274
0.7215	0.40283
0.722	5.0354
0.7225	3.7262
0.723	4.83398
0.7235	1.40991
0.724	6.54602
0.7245	5.33752
0.725	8.45947
0.7255	7.04956
0.726	3.62549
0.7265	6.94885
0.727	3.12195
0.7275	2.31628
0.728	7.65381
0.7285	8.66089
0.729	5.33752
0.7295	2.61841
0.73	5.13611
0.7305	1.71204
0.731	8.66089
0.7315	5.74036
0.732	2.81982
0.7325	5.33752
0.733	4.53186
0.7335	2.61841
0.734	4.63257
0.7345	10.27222
0.735	3.52478
0.7355	3.52478
0.736	10.37292
0.7365	11.68213
0.737	5.94177
0.7375	3.02124
0.738	3.32336
0.7385	5.33752
0.739	6.04248
0.7395	6.64673
0.74	10.27222
0.7405	9.36584
0.741	7.85522
0.7415	10.57434
0.742	7.75452
0.7425	4.63257
0.743	5.33752
0.7435	8.56018
0.744	7.5531
0.7445	4.12903
0.745	8.35876
0.7455	0.50354
0.746	6.44531
0.7465	8.35876
0.747	6.94885
0.7475	8.96301
0.748	9.97009
0.7485	7.85522
0.749	8.35876
0.7495	5.84106
0.75	8.8623
0.7505	3.42407
0.751	6.3446
0.7515	4.22974
0.752	3.92761
0.7525	4.12903
0.753	7.15027
0.7535	8.7616
0.754	5.74036
0.7545	4.12903
0.755	-2.41699
0.7555	3.22266
0.756	4.63257
0.7565	6.64673
0.757	9.56726
0.7575	6.14319
0.758	5.13611
0.7585	5.74036
0.759	5.74036
0.7595	0.50354
0.76	3.22266
0.7605	6.2439
0.761	2.61841
0.7615	8.25806
0.762	3.8269
0.7625	1.51062
0.763	5.13611
0.7635	3.02124
0.764	6.14319
0.7645	4.53186
0.765	10.57434
0.7655	8.35876
0.766	8.05664
0.7665	12.28638
0.767	7.5531
0.7675	2.31628
0.768	10.67505
0.7685	12.08496
0.769	13.797
0.7695	11.58142
0.77	9.06372
0.7705	8.05664
0.771	14.90479
0.7715	7.15027
0.772	10.47363
0.7725	11.58142
0.773	12.89062
0.7735	12.5885
0.774	8.7616
0.7745	12.99133
0.775	8.7616
0.7755	11.68213
0.776	9.36584
0.7765	11.58142
0.777	7.45239
0.7775	14.60266
0.778	16.41541
0.7785	10.27222
0.779	8.96301
0.7795	8.7616
0.78	11.07788
0.7805	8.25806
0.781	6.04248
0.7815	4.12903
0.782	2.11487
0.7825	9.66797
0.783	5.13611
0.7835	4.22974
0.784	-0.20142
0.7845	5.43823
0.785	6.74744
0.7855	5.23682
0.786	3.8269
0.7865	2.71912
0.787	7.95593
0.7875	7.65381
0.788	7.95593
0.7885	7.45239
0.789	4.22974
0.7895	2.21558
0.79	2.81982
0.7905	7.35168
0.791	9.36584
0.7915	1.61133
0.792	1.81274
0.7925	5.43823
0.793	1.2085
0.7935	5.74036
0.794	2.5177
0.7945	5.13611
0.795	2.81982
0.7955	6.94885
0.796	2.5177
0.7965	4.83398
0.797	5.74036
0.7975	4.73328
0.798	9.76868
0.7985	7.15027
0.799	4.53186
0.7995	-0.10071
0.8	-2.61841
0.8005	0.80566
0.801	2.41699
0.8015	5.33752
0.802	3.92761
0.8025	7.15027
0.803	4.22974
0.8035	4.63257
0.804	3.12195
0.8045	3.8269
0.805	2.71912
0.8055	3.62549
0.806	4.22974
0.8065	0.30212
0.807	4.83398
0.8075	2.5177
0.808	4.83398
0.8085	7.04956
0.809	6.2439
0.8095	2.5177
0.81	7.75452
0.8105	7.15027
0.811	10.87646
0.8115	7.65381
0.812	6.94885
0.8125	6.2439
0.813	6.74744
0.8135	5.33752
0.814	6.74744
0.8145	5.43823
0.815	6.84814
0.8155	8.7616
0.816	4.22974
0.8165	10.47363
0.817	7.15027
0.8175	6.54602
0.818	7.25098
0.8185	4.93469
0.819	4.02832
0.8195	4.33044
0.82	2.21558
0.8205	1.71204
0.821	3.52478
0.8215	7.95593
0.822	8.15735
0.8225	4.33044
0.823	3.32336
0.8235	2.61841
0.824	6.3446
0.8245	9.06372
0.825	11.07788
0.8255	12.89062
0.826	2.81982
0.8265	3.02124
0.827	2.41699
0.8275	3.8269
0.828	5.33752
0.8285	10.87646
0.829	4.02832
0.8295	4.63257
0.83	-1.3092
0.8305	1.2085
0.831	1.2085
0.8315	1.40991
0.832	3.7262
0.8325	5.53894
0.833	5.74036
0.8335	2.61841
0.834	0.80566
0.8345	2.41699
0.835	9.16443
0.8355	2.31628
0.836	3.32336
0.8365	-1.2085
0.837	0.90637
0.8375	-2.61841
0.838	-6.3446
0.8385	3.52478
0.839	-2.61841
0.8395	-0.70496
0.84	1.40991
0.8405	2.92053
0.841	0.10071
0.8415	-0.90637
0.842	1.91345
0.8425	4.12903
0.843	6.14319
0.8435	10.97717
0.844	7.35168
0.8445	2.71912
0.845	7.85522
0.8455	7.85522
0.846	9.26514
0.8465	6.44531
0.847	1.61133
0.8475	7.25098
0.848	7.04956
0.8485	11.78284
0.849	7.25098
0.8495	5.74036
0.85	5.23682
0.8505	5.63965
0.851	6.54602
0.8515	5.53894
0.852	4.12903
0.8525	9.06372
0.853	6.54602
0.8535	2.92053
0.854	4.53186
0.8545	4.63257
0.855	8.8623
0.8555	11.38
0.856	8.66089
0.8565	8.25806
0.857	4.22974
0.8575	1.91345
0.858	4.83398
0.8585	1.40991
0.859	4.53186
0.8595	5.94177
0.86	9.06372
0.8605	8.35876
0.861	9.66797
0.8615	5.74036
0.862	9.46655
0.8625	9.26514
0.863	13.19275
0.8635	7.25098
0.864	8.66089
0.8645	10.97717
0.865	7.85522
0.8655	9.66797
0.866	8.7616
0.8665	6.84814
0.867	10.47363
0.8675	8.56018
0.868	5.23682
0.8685	5.23682
0.869	8.25806
0.8695	7.25098
0.87	5.74036
0.8705	6.04248
0.871	7.75452
0.8715	9.06372
0.872	8.66089
0.8725	6.84814
0.873	7.04956
0.8735	4.83398
0.874	6.74744
0.8745	4.83398
0.875	9.66797
0.8755	10.57434
0.876	7.65381
0.8765	4.73328
0.877	4.02832
0.8775	1.51062
0.878	4.93469
0.8785	11.98425
0.879	7.95593
0.8795	4.63257
0.88	8.45947
0.8805	11.48071
0.881	5.33752
0.8815	7.25098
0.882	13.39417
0.8825	15.71045
0.883	12.48779
0.8835	7.35168
0.884	9.66797
0.8845	13.69629
0.885	13.59558
0.8855	6.2439
0.886	5.33752
0.8865	1.91345
0.887	14.60266
0.8875	6.64673
0.888	5.33752
0.8885	5.0354
0.889	3.52478
0.8895	0.70496
0.89	-1.3092
0.8905	2.71912
0.891	11.07788
0.8915	4.63257
0.892	3.42407
0.8925	5.84106
0.893	3.7262
0.8935	6.04248
0.894	6.44531
0.8945	3.02124
0.895	3.8269
0.8955	3.8269
0.896	9.06372
0.8965	4.02832
0.897	2.61841
0.8975	1.3092
0.898	7.15027
0.8985	8.8623
0.899	0.70496
0.8995	10.47363
0.9	9.16443
0.9005	9.36584
0.901	12.5885
0.9015	9.26514
0.902	6.74744
0.9025	5.23682
0.903	11.48071
0.9035	8.96301
0.904	5.74036
0.9045	2.61841
0.905	7.45239
0.9055	8.66089
0.906	3.52478
0.9065	2.01416
0.907	-0.60425
0.9075	3.42407
0.908	4.22974
0.9085	2.31628
0.909	1.71204
0.9095	5.84106
0.91	5.33752
0.9105	4.93469
0.911	-1.81274
0.9115	8.45947
0.912	3.92761
0.9125	8.15735
0.913	6.74744
0.9135	4.83398
0.914	6.44531
0.9145	7.85522
0.915	9.46655
0.9155	5.43823
0.916	7.04956
0.9165	5.74036
0.917	3.02124
0.9175	2.21558
0.918	-0.80566
0.9185	-0.80566
0.919	-0.30212
0.9195	0.90637
0.92	5.43823
0.9205	4.53186
0.921	7.85522
0.9215	7.25098
0.922	7.35168
0.9225	7.45239
0.923	5.33752
0.9235	3.12195
0.924	5.84106
0.9245	5.94177
0.925	5.0354
0.9255	4.22974
0.926	8.66089
0.9265	5.74036
0.927	7.45239
0.9275	11.38
0.928	5.94177
0.9285	5.33752
0.929	3.8269
0.9295	6.04248
0.93	7.04956
0.9305	4.12903
0.931	8.8623
0.9315	6.84814
0.932	8.25806
0.9325	8.56018
0.933	6.3446
0.9335	1.2085
0.934	4.22974
0.9345	2.11487
0.935	9.16443
0.9355	9.36584
0.936	13.39417
0.9365	4.83398
0.937	5.23682
0.9375	7.25098
0.938	13.19275
0.9385	9.26514
0.939	4.73328
0.9395	8.05664
0.94	8.66089
0.9405	8.45947
0.941	11.07788
0.9415	7.65381
0.942	7.85522
0.9425	7.45239
0.943	6.84814
0.9435	9.36584
0.944	5.53894
0.9445	6.84814
0.945	8.35876
0.9455	5.13611
0.946	9.76868
0.9465	13.39417
0.947	10.97717
0.9475	9.46655
0.948	10.47363
0.9485	10.97717
0.949	12.99133
0.9495	7.45239
0.95	7.95593
0.9505	7.5531
0.951	10.0708
0.9515	6.44531
0.952	7.65381
0.9525	9.46655
0.953	9.16443
0.9535	9.46655
0.954	5.43823
0.9545	2.01416
0.955	6.04248
0.9555	4.83398
0.956	7.5531
0.9565	6.3446
0.957	3.62549
0.9575	6.04248
0.958	8.15735
0.9585	4.53186
0.959	7.5531
0.9595	7.45239
0.96	11.07788
0.9605	10.77576
0.961	4.43115
0.9615	12.78992
0.962	9.06372
0.9625	10.77576
0.963	6.54602
0.9635	3.42407
0.964	3.02124
0.9645	5.94177
0.965	7.25098
0.9655	11.2793
0.966	5.23682
0.9665	13.99841
0.967	8.96301
0.9675	13.09204
0.968	10.27222
0.9685	2.11487
0.969	3.62549
0.9695	6.54602
0.97	6.74744
0.9705	10.87646
0.971	8.05664
0.9715	11.38
0.972	12.18567
0.9725	5.23682
0.973	0.80566
0.9735	5.84106
0.974	7.15027
0.9745	3.92761
0.975	5.43823
0.9755	3.7262
0.976	1.91345
0.9765	4.93469
0.977	7.65381
0.9775	10.97717
0.978	11.38
0.9785	12.18567
0.979	6.54602
0.9795	5.84106
0.98	6.54602
0.9805	-0.30212
0.981	14.19983
0.9815	8.15735
0.982	4.02832
0.9825	6.2439
0.983	5.74036
0.9835	5.23682
0.984	6.3446
0.9845	5.23682
0.985	4.22974
0.9855	1.40991
0.986	7.45239
0.9865	1.51062
0.987	3.92761
0.9875	2.01416
0.988	-3.52478
0.9885	1.61133
0.989	3.32336
0.9895	-0.50354
0.99	-1.2085
0.9905	-5.84106
0.991	-8.56018
0.9915	-7.95593
0.992	-7.85522
0.9925	-11.07788
0.993	-2.5177
0.9935	-5.0354
0.994	3.42407
0.9945	-1.3092
0.995	-0.80566
0.9955	-2.21558
0.996	3.32336
0.9965	2.41699
0.997	7.65381
0.9975	6.14319
0.998	12.38708
0.9985	6.14319
0.999	12.68921
0.9995	6.94885
1	10.0708
1.0005	11.17859
1.001	5.43823
1.0015	8.25806
1.002	10.27222
1.0025	8.96301
1.003	9.26514
1.0035	7.85522
1.004	13.49487
1.0045	9.97009
1.005	13.89771
1.0055	10.97717
1.006	13.69629
1.0065	8.96301
1.007	9.76868
1.0075	5.23682
1.008	7.45239
1.0085	11.88354
1.009	3.7262
1.0095	3.42407
1.01	-0.30212
1.0105	-13.59558
1.011	-32.32727
1.0115	-42.49878
1.012	-38.67188
1.0125	-48.84338
1.013	-39.57825
1.0135	-36.65771
1.014	-20.34302
1.0145	-20.54443
1.015	-2.5177
1.0155	8.25806
1.016	15.81116
1.0165	18.12744
1.017	14.60266
1.0175	9.97009
1.018	-6.2439
1.0185	-3.92761
1.019	-8.15735
1.0195	-4.12903
1.02	-8.45947
1.0205	-10.67505
1.021	-5.0354
1.0215	-4.83398
1.022	-5.23682
1.0225	-1.61133
1.023	2.92053
1.0235	17.12036
1.024	24.27063
1.0245	32.32727
1.025	31.21948
1.0255	37.46338
1.026	29.91028
1.0265	16.81824
1.027	0.50354
1.0275	-14.50195
1.028	-18.02673
1.0285	-36.55701
1.029	-35.65063
1.0295	-38.06763
1.03	-23.96851
1.0305	-3.92761
1.031	10.67505
1.0315	20.34302
1.032	32.83081
1.0325	35.34851
1.033	48.54126
1.0335	53.67737
1.034	60.02197
1.0345	64.25171
1.035	60.22339
1.0355	51.66321
1.036	35.04639
1.0365	36.95984
1.037	31.72302
1.0375	32.7301
1.038	29.20532
1.0385	27.59399
1.039	27.29187
1.0395	28.39966
1.04	16.71753
1.0405	17.42249
1.041	-4.73328
1.0415	-11.07788
1.042	-11.07788
1.0425	-9.06372
1.043	-5.94177
1.0435	-6.64673
1.044	-1.10779
1.0445	8.25806
1.045	10.27222
1.0455	9.76868
1.046	22.76001
1.0465	22.35718
1.047	21.75293
1.0475	24.27063
1.048	22.25647
1.0485	22.45789
1.049	24.47205
1.0495	17.22107
1.05	12.99133
1.0505	16.41541
1.051	14.50195
1.0515	7.75452
1.052	3.7262
1.0525	1.51062
1.053	8.25806
1.0535	20.84656
1.054	32.12585
1.0545	44.31152
1.055	50.2533
1.0555	35.95276
1.056	25.88196
1.0565	11.98425
1.057	-5.33752
1.0575	-39.27612
1.058	-66.97083
1.0585	-75.53101
1.059	-80.4657
1.0595	-77.24304
1.06	-63.64746
1.0605	-43.90869
1.061	-20.24231
1.0615	17.72461
1.062	44.31152
1.0625	64.05029
1.063	68.88428
1.0635	75.22888
1.064	75.02747
1.0645	70.3949
1.065	56.29578
1.0655	41.4917
1.066	31.01807
1.0665	24.87488
1.067	26.18408
1.0675	27.6947
1.068	37.06055
1.0685	48.84338
1.069	54.28162
1.0695	58.71277
1.07	55.49011
1.0705	56.90002
1.071	56.5979
1.0715	42.39807
1.072	23.46497
1.0725	18.93311
1.073	4.02832
1.0735	-18.12744
1.074	-34.44214
1.0745	-50.45471
1.075	-52.36816
1.0755	-56.29578
1.076	-53.17383
1.0765	-40.88745
1.077	-30.91736
1.0775	-26.58691
1.078	-18.22815
1.0785	-9.26514
1.079	-3.7262
1.0795	-2.31628
1.08	-10.67505
1.0805	-23.8678
1.081	-21.95435
1.0815	-16.11328
1.082	-12.38708
1.0825	-1.61133
1.083	3.7262
1.0835	21.3501
1.084	21.14868
1.0845	-8.05664
1.085	-37.7655
1.0855	-80.26428
1.086	-119.94324
1.0865	-133.3374
1.087	-125.07935
1.0875	-107.45544
1.088	-94.46411
1.0885	-64.25171
1.089	-33.73718
1.0895	-5.84106
1.09	7.5531
1.0905	6.44531
1.091	3.52478
1.0915	16.61682
1.092	23.46497
1.0925	36.85913
1.093	43.40515
1.0935	51.36108
1.094	60.22339
1.0945	62.74109
1.095	62.9425
1.0955	68.98499
1.096	75.02747
1.0965	77.24304
1.097	84.99756
1.0975	92.85278
1.098	108.1604
1.0985	114.505
1.099	122.25952
1.0995	105.23987
1.1	70.29419
1.1005	44.91577
1.101	31.52161
1.1015	17.52319
1.102	2.61841
1.1025	-0.40283
1.103	9.06372
1.1035	12.18567
1.104	19.94019
1.1045	31.82373
1.105	32.32727
1.1055	40.08179
1.106	38.87329
1.1065	36.75842
1.107	39.17542
1.1075	37.26196
1.108	42.09595
1.1085	36.4563
1.109	39.67896
1.1095	29.80957
1.11	15.71045
1.1105	7.5531
1.111	-7.15027
1.1115	-7.04956
1.112	-11.98425
1.1125	-9.76868
1.113	-3.8269
1.1135	3.8269
1.114	11.78284
1.1145	18.12744
1.115	21.55151
1.1155	21.24939
1.116	20.24231
1.1165	17.82532
1.117	11.48071
1.1175	10.97717
1.118	16.01257
1.1185	12.5885
1.119	13.89771
1.1195	13.29346
1.12	15.00549
1.1205	10.27222
1.121	7.25098
1.1215	8.35876
1.122	8.66089
1.1225	11.88354
1.123	13.99841
1.1235	11.78284
1.124	10.87646
1.1245	9.46655
1.125	2.21558
1.1255	4.53186
1.126	-0.20142
1.1265	-1.10779
1.127	-1.91345
1.1275	-5.53894
1.128	-5.0354
1.1285	-6.14319
1.129	-7.85522
1.1295	-5.74036
1.13	-5.74036
1.1305	-8.96301
1.131	-10.47363
1.1315	-16.41541
1.132	-16.41541
1.1325	-12.78992
1.133	-15.81116
1.1335	-19.53735
1.134	-22.6593
1.1345	-24.16992
1.135	-25.07629
1.1355	-24.16992
1.136	-18.63098
1.1365	-15.60974
1.137	-7.95593
1.1375	-8.15735
1.138	-3.32336
1.1385	-11.2793
1.139	-5.63965
1.1395	-3.92761
1.14	-6.54602
1.1405	-7.45239
1.141	-3.12195
1.1415	-5.53894
1.142	-3.42407
1.1425	-6.3446
1.143	-3.7262
1.1435	-7.75452
1.144	-11.07788
1.1445	-10.37292
1.145	-4.53186
1.1455	-7.04956
1.146	-5.74036
1.1465	-0.50354
1.147	3.7262
1.1475	-0.60425
1.148	0
1.1485	3.32336
1.149	7.75452
1.1495	5.94177
1.15	6.14319
1.1505	5.94177
1.151	5.53894
1.1515	6.64673
1.152	11.88354
1.1525	12.28638
1.153	19.43665
1.1535	15.71045
1.154	13.39417
1.1545	13.69629
1.155	15.30762
1.1555	13.39417
1.156	16.21399
1.1565	18.32886
1.157	18.93311
1.1575	19.03381
1.158	19.94019
1.1585	22.86072
1.159	22.35718
1.1595	27.09045
1.16	23.16284
1.1605	26.88904
1.161	25.88196
1.1615	25.07629
1.162	21.95435
1.1625	27.99683
1.163	25.37842
1.1635	31.4209
1.164	28.80249
1.1645	29.00391
1.165	21.3501
1.1655	20.1416
1.166	25.78125
1.1665	20.04089
1.167	18.32886
1.1675	12.78992
1.168	8.66089
1.1685	10.0708
1.169	7.15027
1.1695	6.74744
1.17	9.56726
1.1705	8.66089
1.171	6.44531
1.1715	9.86938
1.172	7.5531
1.1725	8.25806
1.173	7.04956
1.1735	5.94177
1.174	2.11487
1.1745	10.67505
1.175	3.22266
1.1755	8.66089
1.176	6.14319
1.1765	9.66797
1.177	12.99133
1.1775	17.22107
1.178	22.76001
1.1785	19.23523
1.179	9.76868
1.1795	12.68921
1.18	15.00549
1.1805	12.28638
1.181	9.97009
1.1815	10.87646
1.182	9.97009
1.1825	7.5531
1.183	8.45947
1.1835	8.66089
1.184	10.37292
1.1845	7.45239
1.185	4.12903
1.1855	10.67505
1.186	14.70337
1.1865	11.38
1.187	5.33752
1.1875	1.2085
1.188	5.94177
1.1885	11.98425
1.189	11.78284
1.1895	9.06372
1.19	7.04956
1.1905	8.05664
1.191	4.93469
1.1915	2.11487
1.192	9.16443
1.1925	8.96301
1.193	14.70337
1.1935	7.35168
1.194	13.89771
1.1945	13.19275
1.195	13.69629
1.1955	14.50195
1.196	13.09204
1.1965	18.32886
1.197	16.71753
1.1975	17.52319
1.198	21.24939
1.1985	19.33594
1.199	18.42957
1.1995	19.13452
1.2	16.91895
1.2005	22.15576
1.201	25.78125
1.2015	17.22107
1.202	19.73877
1.2025	18.93311
1.203	20.44373
1.2035	16.91895
1.204	13.29346
1.2045	4.83398
1.205	5.53894
1.2055	4.53186
1.206	-2.41699
1.2065	-5.94177
1.207	1.10779
1.2075	1.3092
1.208	0.30212
1.2085	-1.10779
1.209	-3.92761
1.2095	-2.71912
1.21	-5.33752
1.2105	-9.76868
1.211	-16.71753
1.2115	-15.30762
1.212	-20.34302
1.2125	-12.48779
1.213	-9.76868
1.2135	-10.37292
1.214	-3.92761
1.2145	-1.91345
1.215	1.40991
1.2155	-1.71204
1.216	0.30212
1.2165	4.53186
1.217	8.25806
1.2175	0.20142
1.218	7.45239
1.2185	0.10071
1.219	3.12195
1.2195	1.10779
1.22	-6.44531
1.2205	-6.2439
1.221	-3.22266
1.2215	-0.80566
1.222	-3.22266
1.2225	2.31628
1.223	9.46655
1.2235	3.32336
1.224	7.25098
1.2245	11.2793
1.225	6.04248
1.2255	10.67505
1.226	12.18567
1.2265	13.49487
1.227	13.19275
1.2275	18.22815
1.228	13.49487
1.2285	12.38708
1.229	10.0708
1.2295	8.05664
1.23	9.56726
1.2305	-0.40283
1.231	-3.62549
1.2315	-3.8269
1.232	-8.56018
1.2325	-10.97717
1.233	-10.37292
1.2335	-7.04956
1.234	-7.25098
1.2345	-5.43823
1.235	-1.40991
1.2355	-3.92761
1.236	-1.00708
1.2365	6.3446
1.237	16.01257
1.2375	12.38708
1.238	9.56726
1.2385	14.90479
1.239	15.00549
1.2395	13.69629
1.24	9.97009
1.2405	11.07788
1.241	11.68213
1.2415	9.46655
1.242	15.30762
1.2425	13.797
1.243	19.33594
1.2435	20.04089
1.244	17.82532
1.2445	15.00549
1.245	7.95593
1.2455	10.67505
1.246	3.02124
1.2465	-1.40991
1.247	-1.91345
1.2475	-6.84814
1.248	-12.48779
1.2485	-14.40125
1.249	-13.99841
1.2495	-14.19983
1.25	-18.22815
1.2505	-18.8324
1.251	-11.38
1.2515	-3.42407
1.252	2.31628
1.2525	6.2439
1.253	6.14319
1.2535	15.81116
1.254	22.55859
1.2545	25.27771
1.255	28.29895
1.2555	28.50037
1.256	25.68054
1.2565	27.59399
1.257	18.32886
1.2575	13.39417
1.258	13.49487
1.2585	7.5531
1.259	12.78992
1.2595	15.20691
1.26	15.40833
1.2605	15.00549
1.261	15.20691
1.2615	1.81274
1.262	-2.31628
1.2625	-8.05664
1.263	-12.68921
1.2635	-19.03381
1.264	-18.63098
1.2645	-15.81116
1.265	-15.40833
1.2655	-9.26514
1.266	2.61841
1.2665	7.5531
1.267	14.19983
1.2675	9.46655
1.268	12.18567
1.2685	19.73877
1.269	24.47205
1.2695	24.06921
1.27	28.19824
1.2705	25.98267
1.271	26.08337
1.2715	25.07629
1.272	26.08337
1.2725	23.16284
1.273	20.74585
1.2735	14.50195
1.274	13.89771
1.2745	7.65381
1.275	-0.60425
1.2755	-0.30212
1.276	-16.91895
1.2765	-16.41541
1.277	-18.53027
1.2775	-16.91895
1.278	-11.07788
1.2785	-13.797
1.279	-6.54602
1.2795	-0.70496
1.28	-0.30212
1.2805	4.53186
1.281	2.61841
1.2815	4.12903
1.282	5.43823
1.2825	4.43115
1.283	2.11487
1.2835	4.73328
1.284	5.84106
1.2845	8.56018
1.285	4.53186
1.2855	0.60425
1.286	-0.20142
1.2865	0.50354
1.287	-1.00708
1.2875	3.62549
1.288	3.22266
1.2885	-0.20142
1.289	-2.92053
1.2895	-3.42407
1.29	-5.43823
1.2905	-9.56726
1.291	-8.8623
1.2915	-10.37292
1.292	-6.2439
1.2925	-1.71204
1.293	-3.32336
1.2935	-6.54602
1.294	-5.94177
1.2945	-6.04248
1.295	-1.61133
1.2955	-0.70496
1.296	-8.35876
1.2965	-7.5531
1.297	-3.7262
1.2975	-6.74744
1.298	-6.64673
1.2985	-6.84814
1.299	-1.10779
1.2995	0.90637
1.3	-1.91345
1.3005	-9.76868
1.301	-10.97717
1.3015	-15.91187
1.302	-12.38708
1.3025	-12.99133
1.303	-6.14319
1.3035	-9.56726
1.304	-9.86938
1.3045	-8.35876
1.305	-8.45947
1.3055	-4.33044
1.306	-5.53894
1.3065	-1.2085
1.307	3.7262
1.3075	3.12195
1.308	-1.91345
1.3085	-0.80566
1.309	0.20142
1.3095	2.01416
1.31	-1.61133
1.3105	7.25098
1.311	3.7262
1.3115	0.20142
1.312	-1.00708
1.3125	-3.12195
1.313	0.40283
1.3135	3.92761
1.314	4.22974
1.3145	2.81982
1.315	5.13611
1.3155	2.92053
1.316	5.53894
1.3165	9.97009
1.317	6.64673
1.3175	4.73328
1.318	10.27222
1.3185	5.23682
1.319	8.35876
1.3195	3.22266
1.32	-4.02832
1.3205	3.62549
1.321	2.21558
1.3215	0.20142
1.322	1.51062
1.3225	-4.83398
1.323	-1.00708
1.3235	0.70496
1.324	-1.00708
1.3245	-0.40283
1.325	-1.91345
1.3255	0.20142
1.326	0.50354
1.3265	-2.61841
1.327	-2.61841
1.3275	-1.91345
1.328	2.11487
1.3285	4.02832
1.329	16.91895
1.3295	14.09912
1.33	11.07788
1.3305	14.30054
1.331	4.43115
1.3315	4.93469
1.332	6.74744
1.3325	1.40991
1.333	4.73328
1.3335	9.86938
1.334	2.11487
1.3345	3.32336
1.335	10.0708
1.3355	2.81982
1.336	6.3446
1.3365	9.06372
1.337	8.8623
1.3375	4.12903
1.338	6.14319
1.3385	7.25098
1.339	6.84814
1.3395	11.48071
1.34	11.78284
1.3405	9.06372
1.341	9.16443
1.3415	5.74036
1.342	1.00708
1.3425	-2.81982
1.343	1.3092
1.3435	2.71912
1.344	1.10779
1.3445	-0.60425
1.345	0.30212
1.3455	0.80566
1.346	7.65381
1.3465	5.23682
1.347	0.60425
1.3475	-2.21558
1.348	0.60425
1.3485	-5.43823
1.349	0.40283
1.3495	2.21558
1.35	-0.70496
1.3505	0.70496
1.351	1.40991
1.3515	2.92053
1.352	0.30212
1.3525	5.63965
1.353	11.38
1.3535	7.65381
1.354	6.14319
1.3545	9.46655
1.355	8.35876
1.3555	7.65381
1.356	9.16443
1.3565	7.5531
1.357	8.05664
1.3575	9.26514
1.358	7.5531
1.3585	4.83398
1.359	7.25098
1.3595	10.27222
1.36	0.10071
1.3605	6.3446
1.361	4.33044
1.3615	-0.90637
1.362	10.37292
1.3625	7.85522
1.363	10.0708
1.3635	12.89062
1.364	12.38708
1.3645	13.797
1.365	10.37292
1.3655	8.35876
1.366	7.85522
1.3665	17.82532
1.367	20.04089
1.3675	22.15576
1.368	20.1416
1.3685	18.73169
1.369	22.45789
1.3695	23.16284
1.37	17.92603
1.3705	14.60266
1.371	17.12036
1.3715	8.8623
1.372	9.86938
1.3725	1.00708
1.373	-5.23682
1.3735	-8.35876
1.374	-11.68213
1.3745	-15.30762
1.375	-13.59558
1.3755	-10.97717
1.376	-10.47363
1.3765	-6.64673
1.377	-3.02124
1.3775	-0.80566
1.378	-0.30212
1.3785	0.10071
1.379	-0.30212
1.3795	-9.97009
1.38	-12.78992
1.3805	-14.19983
1.381	-11.48071
1.3815	-9.56726
1.382	-4.02832
1.3825	-5.53894
1.383	-3.7262
1.3835	-0.50354
1.384	3.12195
1.3845	2.11487
1.385	-1.3092
1.3855	2.5177
1.386	-0.10071
1.3865	2.11487
1.387	4.22974
1.3875	1.2085
1.388	-4.02832
1.3885	3.22266
1.389	5.74036
1.3895	5.0354
1.39	5.33752
1.3905	7.75452
1.391	6.54602
1.3915	8.45947
1.392	4.73328
1.3925	-1.51062
1.393	5.13611
1.3935	0.70496
1.394	-2.01416
1.3945	2.21558
1.395	0.90637
1.3955	4.43115
1.396	1.2085
1.3965	3.62549
1.397	7.95593
1.3975	8.66089
1.398	10.97717
1.3985	8.35876
1.399	8.25806
1.3995	12.38708
1.4	13.09204
1.4005	15.20691
1.401	6.2439
1.4015	4.63257
1.402	6.44531
1.4025	0.40283
1.403	-2.5177
1.4035	-4.53186
1.404	-6.2439
1.4045	-12.38708
1.405	-4.02832
1.4055	-9.36584
1.406	-7.15027
1.4065	-4.22974
1.407	-4.83398
1.4075	-6.3446
1.408	-9.56726
1.4085	-11.38
1.409	0.10071
1.4095	0.10071
1.41	3.12195
1.4105	1.2085
1.411	2.92053
1.4115	2.11487
1.412	7.95593
1.4125	8.45947
1.413	10.17151
1.4135	7.95593
1.414	8.7616
1.4145	13.59558
1.415	16.41541
1.4155	25.27771
1.416	18.12744
1.4165	25.57983
1.417	27.89612
1.4175	24.06921
1.418	23.56567
1.4185	18.63098
1.419	14.09912
1.4195	12.68921
1.42	10.0708
1.4205	7.95593
1.421	2.92053
1.4215	10.67505
1.422	12.99133
1.4225	10.87646
1.423	10.0708
1.4235	9.06372
1.424	5.63965
1.4245	11.78284
1.425	14.09912
1.4255	16.71753
1.426	14.30054
1.4265	15.91187
1.427	19.23523
1.4275	13.797
1.428	11.17859
1.4285	15.81116
1.429	16.41541
1.4295	18.53027
1.43	18.53027
1.4305	14.40125
1.431	11.88354
1.4315	18.22815
1.432	14.19983
1.4325	12.99133
1.433	8.56018
1.4335	8.05664
1.434	13.09204
1.4345	11.88354
1.435	11.2793
1.4355	15.00549
1.436	12.08496
1.4365	17.42249
1.437	14.19983
1.4375	13.59558
1.438	15.50903
1.4385	16.51611
1.439	20.1416
1.4395	19.94019
1.44	14.09912
1.4405	19.33594
1.441	17.32178
1.4415	23.76709
1.442	24.67346
1.4425	19.63806
1.443	13.89771
1.4435	19.53735
1.444	17.22107
1.4445	18.53027
1.445	11.78284
1.4455	13.49487
1.446	9.66797
1.4465	9.97009
1.447	9.86938
1.4475	-0.30212
1.448	-2.11487
1.4485	-5.63965
1.449	-6.2439
1.4495	-1.51062
1.45	1.10779
1.4505	8.35876
1.451	9.06372
1.4515	5.63965
1.452	6.64673
1.4525	11.78284
1.453	11.68213
1.4535	10.27222
1.454	8.96301
1.4545	9.06372
1.455	5.13611
1.4555	0.10071
1.456	2.5177
1.4565	-4.83398
1.457	-5.0354
1.4575	-4.63257
1.458	-8.35876
1.4585	-9.16443
1.459	-2.61841
1.4595	1.2085
1.46	3.8269
1.4605	-4.22974
1.461	-0.20142
1.4615	0
1.462	4.93469
1.4625	5.23682
1.463	8.35876
1.4635	10.87646
1.464	12.18567
1.4645	13.19275
1.465	11.38
1.4655	13.29346
1.466	10.77576
1.4665	12.08496
1.467	12.38708
1.4675	11.98425
1.468	12.18567
1.4685	9.36584
1.469	12.28638
1.4695	18.22815
1.47	11.17859
1.4705	13.39417
1.471	13.69629
1.4715	11.48071
1.472	9.16443
1.4725	14.80408
1.473	14.40125
1.4735	11.88354
1.474	3.92761
1.4745	4.33044
1.475	4.53186
1.4755	3.7262
1.476	11.98425
1.4765	8.25806
1.477	9.86938
1.4775	11.98425
1.478	8.05664
1.4785	-1.71204
1.479	-9.16443
1.4795	-3.92761
1.48	-6.94885
1.4805	-2.71912
1.481	-5.53894
1.4815	-1.91345
1.482	3.32336
1.4825	4.12903
1.483	6.3446
1.4835	10.67505
1.484	13.797
1.4845	19.33594
1.485	17.12036
1.4855	17.92603
1.486	12.28638
1.4865	14.19983
1.487	7.25098
1.4875	5.84106
1.488	-1.91345
1.4885	-3.42407
1.489	-2.92053
1.4895	-9.06372
1.49	-12.68921
1.4905	-10.57434
1.491	-16.41541
1.4915	-16.41541
1.492	-11.38
1.4925	-17.12036
1.493	-13.89771
1.4935	-10.47363
1.494	-8.8623
1.4945	-1.3092
1.495	-5.63965
1.4955	1.00708
1.496	-2.81982
1.4965	-4.02832
1.497	-0.40283
1.4975	1.91345
1.498	0.20142
1.4985	6.44531
1.499	11.88354
1.4995	10.87646
1.5	12.18567
1.5005	11.38
1.501	19.53735
1.5015	8.35876
1.502	7.65381
1.5025	0.20142
1.503	2.71912
1.5035	3.92761
1.504	6.84814
1.5045	5.13611
1.505	8.05664
1.5055	8.7616
1.506	7.65381
1.5065	5.33752
1.507	8.35876
1.5075	8.7616
1.508	13.99841
1.5085	11.98425
1.509	10.67505
1.5095	13.89771
1.51	11.17859
1.5105	5.53894
1.511	4.33044
1.5115	-2.71912
1.512	0.60425
1.5125	2.11487
1.513	3.7262
1.5135	11.78284
1.514	11.58142
1.5145	11.48071
1.515	13.09204
1.5155	3.7262
1.516	8.15735
1.5165	8.35876
1.517	13.49487
1.5175	11.07788
1.518	11.68213
1.5185	4.53186
1.519	3.22266
1.5195	9.46655
1.52	7.35168
1.5205	4.53186
1.521	0.90637
1.5215	5.94177
1.522	3.7262
1.5225	5.84106
1.523	8.7616
1.5235	8.25806
1.524	3.7262
1.5245	8.05664
1.525	8.8623
1.5255	7.35168
1.526	5.63965
1.5265	11.98425
1.527	7.75452
1.5275	5.23682
1.528	-1.51062
1.5285	-1.3092
1.529	3.22266
1.5295	0.60425
1.53	-1.2085
1.5305	1.81274
1.531	0.40283
1.5315	7.5531
1.532	2.21558
1.5325	1.81274
1.533	0.20142
1.5335	1.10779
1.534	1.51062
1.5345	1.61133
1.535	3.8269
1.5355	4.33044
1.536	7.25098
1.5365	1.81274
1.537	2.61841
1.5375	0.30212
1.538	4.73328
1.5385	4.83398
1.539	5.33752
1.5395	5.13611
1.54	1.3092
1.5405	5.94177
1.541	5.0354
1.5415	6.44531
1.542	1.61133
1.5425	8.56018
1.543	10.17151
1.5435	2.31628
1.544	1.91345
1.5445	3.02124
1.545	-4.12903
1.5455	-1.00708
1.546	1.91345
1.5465	3.7262
1.547	4.22974
1.5475	4.83398
1.548	5.23682
1.5485	-2.01416
1.549	2.21558
1.5495	4.93469
1.55	5.33752
1.5505	4.63257
1.551	4.33044
1.5515	2.11487
1.552	0.50354
1.5525	-1.00708
1.553	5.63965
1.5535	-0.50354
1.554	4.53186
1.5545	2.81982
1.555	6.14319
1.5555	9.86938
1.556	8.35876
1.5565	8.05664
1.557	10.27222
1.5575	6.94885
1.558	7.75452
1.5585	7.95593
1.559	6.84814
1.5595	5.94177
1.56	5.94177
1.5605	2.31628
1.561	4.83398
1.5615	8.96301
1.562	5.53894
1.5625	1.71204
1.563	5.13611
1.5635	7.65381
1.564	3.8269
1.5645	3.02124
1.565	4.73328
1.5655	1.61133
1.566	3.02124
1.5665	6.3446
1.567	4.93469
1.5675	3.32336
1.568	6.04248
1.5685	1.40991
1.569	4.33044
1.5695	9.26514
1.57	7.04956
1.5705	2.92053
1.571	2.92053
1.5715	1.2085
1.572	10.0708
1.5725	6.94885
1.573	7.15027
1.5735	8.35876
1.574	9.36584
1.5745	7.45239
1.575	7.5531
1.5755	7.45239
1.576	7.45239
1.5765	1.40991
1.577	0.70496
1.5775	4.63257
1.578	-3.8269
1.5785	2.11487
1.579	0
1.5795	2.5177
1.58	-3.52478
1.5805	-0.40283
1.581	0.70496
1.5815	6.14319
1.582	6.2439
1.5825	9.16443
1.583	2.21558
1.5835	5.33752
1.584	2.41699
1.5845	-3.52478
1.585	-2.41699
1.5855	-7.35168
1.586	-10.67505
1.5865	-22.35718
1.587	-21.3501
1.5875	-22.05505
1.588	-23.8678
1.5885	-13.39417
1.589	-10.17151
1.5895	-4.73328
1.59	-0.80566
1.5905	3.62549
1.591	11.38
1.5915	16.11328
1.592	17.92603
1.5925	23.06213
1.593	25.57983
1.5935	20.24231
1.594	19.13452
1.5945	13.29346
1.595	16.21399
1.5955	10.87646
1.596	14.50195
1.5965	15.71045
1.597	14.09912
1.5975	15.00549
1.598	19.13452
1.5985	9.66797
1.599	4.22974
1.5995	1.81274
1.6	2.5177
1.6005	-3.12195
1.601	-1.40991
1.6015	-4.12903
1.602	-5.74036
1.6025	-5.33752
1.603	-5.94177
1.6035	-5.43823
1.604	-9.46655
1.6045	-6.64673
1.605	-10.37292
1.6055	-2.61841
1.606	0.30212
1.6065	4.83398
1.607	2.61841
1.6075	4.43115
1.608	2.61841
1.6085	5.0354
1.609	5.53894
1.6095	3.7262
1.61	2.01416
1.6105	0.60425
1.611	6.94885
1.6115	2.71912
1.612	-1.91345
1.6125	-0.90637
1.613	-0.30212
1.6135	-9.26514
1.614	-10.67505
1.6145	-11.48071
1.615	-17.6239
1.6155	-15.50903
1.616	-17.32178
1.6165	-20.84656
1.617	-22.25647
1.6175	-18.12744
1.618	-20.34302
1.6185	-14.09912
1.619	-11.68213
1.6195	-3.42407
1.62	-1.10779
1.6205	2.5177
1.621	3.62549
1.6215	10.37292
1.622	5.23682
1.6225	-1.2085
1.623	4.33044
1.6235	2.41699
1.624	0
1.6245	0.60425
1.625	-11.98425
1.6255	-15.71045
1.626	-16.21399
1.6265	-12.68921
1.627	-16.01257
1.6275	-12.08496
1.628	-18.73169
1.6285	-22.05505
1.629	-25.68054
1.6295	-15.30762
1.63	-11.78284
1.6305	-6.3446
1.631	-1.61133
1.6315	0.30212
1.632	2.21558
1.6325	6.14319
1.633	5.74036
1.6335	4.63257
1.634	0.30212
1.6345	-1.71204
1.635	-1.3092
1.6355	-7.65381
1.636	-9.26514
1.6365	-8.56018
1.637	-9.46655
1.6375	-9.56726
1.638	-6.04248
1.6385	6.2439
1.639	12.18567
1.6395	17.32178
1.64	15.00549
1.6405	11.07788
1.641	5.94177
1.6415	2.11487
1.642	2.5177
1.6425	1.81274
1.643	6.2439
1.6435	6.3446
1.644	2.81982
1.6445	-3.62549
1.645	-8.56018
1.6455	-14.90479
1.646	-24.97559
1.6465	-23.66638
1.647	-26.08337
1.6475	-19.03381
1.648	-19.03381
1.6485	-11.38
1.649	6.94885
1.6495	15.00549
1.65	16.81824
1.6505	19.23523
1.651	24.06921
1.6515	23.16284
1.652	19.03381
1.6525	24.67346
1.653	20.44373
1.6535	16.51611
1.654	16.11328
1.6545	11.88354
1.655	5.94177
1.6555	12.28638
1.656	6.84814
1.6565	7.75452
1.657	-3.02124
1.6575	1.3092
1.658	0.80566
1.6585	0.40283
1.659	4.33044
1.6595	-2.31628
1.66	-2.5177
1.6605	0.10071
1.661	-4.93469
1.6615	7.15027
1.662	16.41541
1.6625	13.39417
1.663	11.98425
1.6635	9.06372
1.664	2.01416
1.6645	-3.52478
1.665	-6.14319
1.6655	-13.797
1.666	-17.42249
1.6665	-23.06213
1.667	-27.6947
1.6675	-29.10461
1.668	-21.55151
1.6685	-17.52319
1.669	-14.70337
1.6695	-16.11328
1.67	-7.65381
1.6705	-14.60266
1.671	-7.75452
1.6715	-8.66089
1.672	-5.0354
1.6725	-3.7262
1.673	-7.85522
1.6735	-18.32886
1.674	-28.9032
1.6745	-33.23364
1.675	-34.03931
1.6755	-40.08179
1.676	-48.13843
1.6765	-56.79932
1.677	-52.56958
1.6775	-55.79224
1.678	-51.26038
1.6785	-53.27454
1.679	-37.7655
1.6795	-24.06921
1.68	-8.8623
1.6805	1.71204
1.681	10.97717
1.6815	23.56567
1.682	30.71594
1.6825	37.56409
1.683	44.31152
1.6835	48.84338
1.684	46.02356
1.6845	47.43347
1.685	48.94409
1.6855	48.23914
1.686	45.82214
1.6865	45.72144
1.687	43.80798
1.6875	35.65063
1.688	30.61523
1.6885	26.98975
1.689	24.67346
1.6895	23.8678
1.69	31.72302
1.6905	36.55701
1.691	39.67896
1.6915	29.10461
1.692	29.00391
1.6925	26.28479
1.693	22.86072
1.6935	19.23523
1.694	22.15576
1.6945	15.30762
1.695	15.71045
1.6955	15.1062
1.696	15.1062
1.6965	15.20691
1.697	9.16443
1.6975	10.0708
1.698	21.55151
1.6985	11.38
1.699	12.08496
1.6995	8.7616
1.7	14.09912
1.7005	4.12903
1.701	8.66089
1.7015	8.7616
1.702	11.88354
1.7025	12.38708
1.703	9.97009
1.7035	11.68213
1.704	10.0708
1.7045	12.48779
1.705	15.50903
1.7055	17.32178
1.706	18.12744
1.7065	18.53027
1.707	21.95435
1.7075	13.09204
1.708	20.64514
1.7085	17.6239
1.709	17.72461
1.7095	18.02673
1.71	20.54443
1.7105	20.04089
1.711	22.45789
1.7115	19.33594
1.712	27.59399
1.7125	15.81116
1.713	19.63806
1.7135	20.44373
1.714	23.16284
1.7145	24.16992
1.715	22.05505
1.7155	23.76709
1.716	26.48621
1.7165	26.08337
1.717	24.67346
1.7175	26.3855
1.718	22.76001
1.7185	20.74585
1.719	24.87488
1.7195	26.88904
1.72	26.78833
1.7205	24.57275
1.721	27.39258
1.7215	27.29187
1.722	28.70178
1.7225	29.10461
1.723	27.79541
1.7235	31.52161
1.724	30.81665
1.7245	35.34851
1.725	28.29895
1.7255	32.93152
1.726	28.19824
1.7265	30.81665
1.727	26.98975
1.7275	22.86072
1.728	26.78833
1.7285	19.94019
1.729	18.12744
1.7295	21.55151
1.73	18.42957
1.7305	19.23523
1.731	19.33594
1.7315	18.02673
1.732	18.8324
1.7325	25.177
1.733	24.77417
1.7335	22.96143
1.734	21.3501
1.7345	21.3501
1.735	26.28479
1.7355	22.86072
1.736	23.8678
1.7365	24.06921
1.737	20.64514
1.7375	19.43665
1.738	22.15576
1.7385	18.93311
1.739	14.80408
1.7395	10.47363
1.74	18.02673
1.7405	12.89062
1.741	16.41541
1.7415	17.32178
1.742	15.40833
1.7425	19.23523
1.743	13.89771
1.7435	14.09912
1.744	16.41541
1.7445	18.12744
1.745	14.70337
1.7455	13.797
1.746	12.38708
1.7465	10.47363
1.747	12.48779
1.7475	10.97717
1.748	12.78992
1.7485	12.48779
1.749	7.25098
1.7495	13.99841
1.75	14.19983
1.7505	7.75452
1.751	18.42957
1.7515	8.25806
1.752	4.02832
1.7525	3.12195
1.753	1.81274
1.7535	-3.42407
1.754	2.31628
1.7545	2.31628
1.755	4.02832
1.7555	-0.20142
1.756	-3.92761
1.7565	-4.53186
1.757	-2.21558
1.7575	-4.12903
1.758	-3.22266
1.7585	-5.23682
1.759	-10.0708
1.7595	-6.84814
1.76	-5.53894
1.7605	-7.85522
1.761	-3.12195
1.7615	-11.48071
1.762	-7.75452
1.7625	-7.45239
1.763	-7.25098
1.7635	-8.56018
1.764	-3.52478
1.7645	-6.74744
1.765	-4.83398
1.7655	-4.53186
1.766	-4.02832
1.7665	-7.5531
1.767	-6.3446
1.7675	-8.56018
1.768	-5.13611
1.7685	-4.12903
1.769	-6.04248
1.7695	-4.02832
1.77	-4.53186
1.7705	-3.92761
1.771	-6.14319
1.7715	-4.83398
1.772	-6.3446
1.7725	-2.61841
1.773	-1.10779
1.7735	-6.84814
1.774	-7.35168
1.7745	-12.68921
1.775	-6.94885
1.7755	-7.45239
1.776	-6.84814
1.7765	-10.47363
1.777	-8.8623
1.7775	-7.85522
1.778	-7.85522
1.7785	-9.56726
1.779	-7.5531
1.7795	-9.26514
1.78	-10.57434
1.7805	-6.14319
1.781	-14.80408
1.7815	-11.78284
1.782	-11.17859
1.7825	-12.68921
1.783	-8.8623
1.7835	-8.7616
1.784	-13.09204
1.7845	-15.50903
1.785	-12.48779
1.7855	-8.05664
1.786	-7.45239
1.7865	-2.61841
1.787	-5.63965
1.7875	-4.02832
1.788	-5.0354
1.7885	-12.18567
1.789	-4.22974
1.7895	-2.11487
1.79	-4.33044
1.7905	-2.41699
1.791	-1.91345
1.7915	-6.14319
1.792	-5.94177
1.7925	-7.5531
1.793	-2.01416
1.7935	0.50354
1.794	-2.31628
1.7945	-3.32336
1.795	-2.5177
1.7955	-6.84814
1.796	4.12903
1.7965	4.83398
1.797	-0.40283
1.7975	-2.11487
1.798	-1.3092
1.7985	-0.40283
1.799	1.3092
1.7995	-4.12903
1.8	0.80566
1.8005	1.3092
1.801	6.74744
1.8015	0.80566
1.802	6.14319
1.8025	5.23682
1.803	4.93469
1.8035	4.33044
1.804	3.22266
1.8045	8.35876
1.805	5.74036
1.8055	5.94177
1.806	5.94177
1.8065	12.89062
1.807	8.8623
1.8075	12.48779
1.808	13.39417
1.8085	14.70337
1.809	10.57434
1.8095	15.20691
1.81	11.88354
1.8105	16.81824
1.811	20.34302
1.8115	17.12036
1.812	19.94019
1.8125	21.14868
1.813	23.06213
1.8135	18.53027
1.814	15.20691
1.8145	7.45239
1.815	19.23523
1.8155	21.04797
1.816	21.04797
1.8165	18.42957
1.817	22.86072
1.8175	17.6239
1.818	15.71045
1.8185	17.22107
1.819	18.93311
1.8195	16.01257
1.82	15.81116
1.8205	19.13452
1.821	18.32886
1.8215	15.91187
1.822	14.09912
1.8225	16.41541
1.823	12.08496
1.8235	15.91187
1.824	11.98425
1.8245	18.32886
1.825	13.39417
1.8255	15.71045
1.826	14.80408
1.8265	10.17151
1.827	14.30054
1.8275	9.66797
1.828	12.78992
1.8285	11.38
1.829	15.60974
1.8295	8.15735
1.83	6.14319
1.8305	7.15027
1.831	8.56018
1.8315	9.66797
1.832	8.66089
1.8325	7.25098
1.833	8.15735
1.8335	3.32336
1.834	5.0354
1.8345	3.02124
1.835	4.93469
1.8355	2.61841
1.836	7.15027
1.8365	5.43823
1.837	6.2439
1.8375	7.15027
1.838	9.86938
1.8385	2.92053
1.839	2.31628
1.8395	8.25806
1.84	8.05664
1.8405	15.00549
1.841	9.36584
1.8415	8.35876
1.842	13.49487
1.8425	9.56726
1.843	9.97009
1.8435	7.5531
1.844	7.5531
1.8445	6.04248
1.845	0.30212
1.8455	6.54602
1.846	9.97009
1.8465	3.32336
1.847	5.74036
1.8475	5.13611
1.848	1.3092
1.8485	6.2439
1.849	3.02124
1.8495	-0.10071
1.85	2.01416
1.8505	7.35168
1.851	8.8623
1.8515	5.94177
1.852	4.83398
1.8525	10.27222
1.853	7.5531
1.8535	6.84814
1.854	8.05664
1.8545	11.2793
1.855	14.19983
1.8555	8.8623
1.856	8.05664
1.8565	4.12903
1.857	9.06372
1.8575	11.58142
1.858	10.97717
1.8585	11.98425
1.859	7.5531
1.8595	5.84106
1.86	5.33752
1.8605	3.22266
1.861	-2.41699
1.8615	2.5177
1.862	-3.22266
1.8625	5.0354
1.863	1.51062
1.8635	-0.60425
1.864	-5.0354
1.8645	-0.60425
1.865	-0.50354
1.8655	-0.40283
1.866	-1.91345
1.8665	0.20142
1.867	4.73328
1.8675	5.33752
1.868	7.65381
1.8685	5.0354
1.869	-0.90637
1.8695	3.8269
1.87	3.52478
1.8705	6.74744
1.871	5.63965
1.8715	2.31628
1.872	5.0354
1.8725	8.96301
1.873	7.04956
1.8735	8.45947
1.874	9.46655
1.8745	7.75452
1.875	13.69629
1.8755	14.40125
1.876	13.99841
1.8765	10.47363
1.877	14.30054
1.8775	10.97717
1.878	14.70337
1.8785	12.89062
1.879	13.797
1.8795	12.48779
1.88	5.74036
1.8805	6.74744
1.881	9.36584
1.8815	7.45239
1.882	9.36584
1.8825	3.92761
1.883	-0.60425
1.8835	1.00708
1.884	4.83398
1.8845	-0.40283
1.885	5.84106
1.8855	-3.32336
1.886	-1.71204
1.8865	-6.64673
1.887	1.10779
1.8875	-6.84814
1.888	-7.25098
1.8885	-6.54602
1.889	-4.02832
1.8895	-1.2085
1.89	-0.70496
1.8905	0.50354
1.891	-3.52478
1.8915	2.21558
1.892	-2.81982
1.8925	-1.81274
1.893	-1.71204
1.8935	5.0354
1.894	2.81982
1.8945	-2.61841
1.895	4.53186
1.8955	3.92761
1.896	10.37292
1.8965	7.85522
1.897	0.10071
1.8975	7.25098
1.898	8.66089
1.8985	10.67505
1.899	5.13611
1.8995	0.10071
1.9	3.7262
1.9005	6.3446
1.901	4.63257
1.9015	7.25098
1.902	9.36584
1.9025	10.47363
1.903	10.17151
1.9035	4.73328
1.904	6.94885
1.9045	5.0354
1.905	9.26514
1.9055	6.54602
1.906	6.84814
1.9065	4.22974
1.907	-2.01416
1.9075	5.33752
1.908	3.92761
1.9085	-3.32336
1.909	-3.62549
1.9095	3.52478
1.91	2.21558
1.9105	2.41699
1.911	-1.91345
1.9115	-3.8269
1.912	1.3092
1.9125	-2.21558
1.913	-0.90637
1.9135	-2.81982
1.914	-5.13611
1.9145	0.60425
1.915	0
1.9155	-2.71912
1.916	1.2085
1.9165	-2.11487
1.917	-6.2439
1.9175	1.2085
1.918	4.73328
1.9185	3.92761
1.919	0.20142
1.9195	4.53186
1.92	2.61841
1.9205	3.22266
1.921	3.62549
1.9215	1.91345
1.922	1.40991
1.9225	0.80566
1.923	-0.50354
1.9235	4.63257
1.924	3.32336
1.9245	3.42407
1.925	3.32336
1.9255	2.5177
1.926	7.5531
1.9265	2.92053
1.927	5.43823
1.9275	1.91345
1.928	-1.91345
1.9285	5.43823
1.929	5.13611
1.9295	2.5177
1.93	-1.3092
1.9305	6.2439
1.931	7.35168
1.9315	4.22974
1.932	6.84814
1.9325	5.94177
1.933	6.54602
1.9335	6.74744
1.934	7.04956
1.9345	5.33752
1.935	6.94885
1.9355	10.0708
1.936	4.83398
1.9365	10.87646
1.937	4.63257
1.9375	9.06372
1.938	1.71204
1.9385	8.8623
1.939	5.74036
1.9395	5.63965
1.94	1.00708
1.9405	1.81274
1.941	1.91345
1.9415	2.11487
1.942	5.0354
1.9425	5.94177
1.943	6.14319
1.9435	2.01416
1.944	5.13611
1.9445	-0.80566
1.945	-2.92053
1.9455	8.05664
1.946	5.84106
1.9465	5.13611
1.947	4.33044
1.9475	6.74744
1.948	1.10779
1.9485	6.74744
1.949	-3.12195
1.9495	-2.61841
1.95	3.22266
1.9505	0.50354
1.951	2.11487
1.9515	0.70496
1.952	3.52478
1.9525	-0.80566
1.953	6.04248
1.9535	7.5531
1.954	7.5531
1.9545	11.2793
1.955	8.35876
1.9555	7.15027
1.956	6.84814
1.9565	5.13611
1.957	5.53894
1.9575	9.66797
1.958	8.35876
1.9585	7.25098
1.959	9.26514
1.9595	2.61841
1.96	-1.00708
1.9605	4.73328
1.961	2.11487
1.9615	-4.43115
1.962	-0.10071
1.9625	-0.40283
1.963	3.7262
1.9635	6.94885
1.964	7.25098
1.9645	10.67505
1.965	2.61841
1.9655	1.40991
1.966	5.0354
1.9665	4.73328
1.967	2.92053
1.9675	3.62549
1.968	3.12195
1.9685	2.81982
1.969	7.45239
1.9695	0.40283
1.97	0.40283
1.9705	5.0354
1.971	2.5177
1.9715	5.43823
1.972	0.50354
1.9725	-3.52478
1.973	0.90637
1.9735	-1.91345
1.974	-3.32336
1.9745	-0.80566
1.975	-0.20142
1.9755	-2.41699
1.976	2.21558
1.9765	1.10779
1.977	-3.02124
1.9775	-1.71204
1.978	0.50354
1.9785	10.0708
1.979	7.65381
1.9795	2.81982
1.98	2.81982
1.9805	-0.40283
1.981	-2.01416
1.9815	3.02124
1.982	4.83398
1.9825	4.83398
1.983	5.33752
1.9835	3.62549
1.984	2.41699
1.9845	1.81274
1.985	8.35876
1.9855	8.15735
1.986	4.12903
1.9865	4.33044
1.987	5.63965
1.9875	-2.61841
1.988	3.52478
1.9885	6.3446
1.989	-3.42407
1.9895	2.31628
1.99	2.81982
1.9905	-0.30212
1.991	3.52478
1.9915	-0.40283
1.992	1.71204
1.9925	5.84106
1.993	1.40991
1.9935	6.84814
1.994	8.56018
1.9945	6.14319
1.995	6.54602
1.9955	6.64673
1.996	4.22974
1.9965	-1.51062
1.997	-0.70496
1.9975	8.05664
1.998	6.94885
1.9985	6.04248
1.999	7.5531
1.9995	9.56726
2	8.56018
2.0005	4.33044
2.001	3.92761
2.0015	2.01416
2.002	2.92053
2.0025	2.5177
2.003	-1.40991
2.0035	7.45239
2.004	1.3092
2.0045	1.10779
2.005	0.20142
2.0055	2.81982
2.006	2.71912
2.0065	0.90637
2.007	-1.40991
2.0075	3.32336
2.008	3.12195
2.0085	3.32336
2.009	2.92053
2.0095	2.41699
2.01	2.01416
2.0105	2.01416
2.011	5.23682
2.0115	8.25806
2.012	9.06372
2.0125	5.33752
2.013	3.32336
2.0135	3.92761
2.014	5.74036
2.0145	5.43823
2.015	7.65381
2.0155	8.25806
2.016	7.75452
2.0165	10.27222
2.017	11.98425
2.0175	14.50195
2.018	11.78284
2.0185	10.37292
2.019	13.09204
2.0195	10.87646
2.02	12.68921
2.0205	11.58142
2.021	12.18567
2.0215	9.56726
2.022	6.2439
2.0225	7.75452
2.023	10.87646
2.0235	9.36584
2.024	10.47363
2.0245	10.97717
2.025	15.00549
2.0255	13.39417
2.026	13.797
2.0265	11.78284
2.027	11.58142
2.0275	10.37292
2.028	9.36584
2.0285	5.84106
2.029	4.43115
2.0295	2.01416
2.03	4.22974
2.0305	6.54602
2.031	13.39417
2.0315	5.43823
2.032	6.94885
2.0325	10.57434
2.033	12.5885
2.0335	6.3446
2.034	2.81982
2.0345	8.96301
2.035	10.77576
2.0355	8.66089
2.036	12.99133
2.0365	15.20691
2.037	11.38
2.0375	9.66797
2.038	6.04248
2.0385	9.26514
2.039	9.86938
2.0395	13.69629
2.04	12.18567
2.0405	8.05664
2.041	7.65381
2.0415	10.57434
2.042	8.35876
2.0425	5.0354
2.043	6.94885
2.0435	5.23682
2.044	6.3446
2.0445	4.83398
2.045	2.41699
2.0455	5.23682
2.046	6.04248
2.0465	11.38
2.047	5.43823
2.0475	5.33752
2.048	6.54602
2.0485	6.74744
2.049	10.67505
2.0495	5.13611
2.05	11.98425
2.0505	12.38708
2.051	12.68921
2.0515	12.18567
2.052	10.47363
2.0525	10.97717
2.053	8.35876
2.0535	5.94177
2.054	11.38
2.0545	10.47363
2.055	9.06372
2.0555	12.5885
2.056	6.74744
2.0565	11.07788
2.057	12.5885
2.0575	11.38
2.058	16.3147
2.0585	14.40125
2.059	16.71753
2.0595	13.39417
2.06	15.91187
2.0605	20.84656
2.061	13.19275
2.0615	10.37292
2.062	9.26514
2.0625	14.19983
2.063	10.97717
2.0635	9.36584
2.064	10.97717
2.0645	10.87646
2.065	2.5177
2.0655	8.56018
2.066	9.66797
2.0665	7.5531
2.067	10.67505
2.0675	4.12903
2.068	0.50354
2.0685	6.54602
2.069	4.12903
2.0695	7.95593
2.07	10.67505
2.0705	7.65381
2.071	5.94177
2.0715	10.37292
2.072	5.23682
2.0725	9.26514
2.073	3.92761
2.0735	4.43115
2.074	-0.50354
2.0745	3.22266
2.075	4.22974
2.0755	5.74036
2.076	10.37292
2.0765	4.83398
2.077	2.21558
2.0775	7.04956
2.078	1.81274
2.0785	8.35876
2.079	0.40283
2.0795	-2.71912
2.08	4.53186
2.0805	2.41699
2.081	2.11487
2.0815	6.54602
2.082	2.71912
2.0825	4.33044
2.083	8.05664
2.0835	8.35876
2.084	3.7262
2.0845	8.05664
2.085	9.97009
2.0855	7.85522
2.086	8.15735
2.0865	8.7616
2.087	5.53894
2.0875	2.92053
2.088	9.86938
2.0885	8.05664
2.089	9.66797
2.0895	10.97717
2.09	4.83398
2.0905	6.84814
2.091	-0.40283
2.0915	3.42407
2.092	6.3446
2.0925	4.12903
2.093	5.63965
2.0935	1.71204
2.094	8.7616
2.0945	1.00708
2.095	7.75452
2.0955	-2.01416
2.096	-0.70496
2.0965	-1.40991
2.097	-2.81982
2.0975	-1.00708
2.098	-2.31628
2.0985	-1.81274
2.099	1.51062
2.0995	-0.60425
2.1	2.11487
2.1005	-0.20142
2.101	2.01416
2.1015	0.40283
2.102	-4.63257
2.1025	-1.61133
2.103	-2.01416
2.1035	-0.20142
2.104	2.92053
2.1045	-3.22266
2.105	-0.30212
2.1055	-3.12195
2.106	1.61133
2.1065	-3.8269
2.107	-1.00708
2.1075	-0.50354
2.108	5.43823
2.1085	-0.20142
2.109	5.0354
2.1095	2.41699
2.11	-1.00708
2.1105	-0.60425
2.111	-0.80566
2.1115	-2.41699
2.112	-0.90637
2.1125	1.61133
2.113	-3.8269
2.1135	-3.32336
2.114	1.61133
2.1145	3.12195
2.115	3.7262
2.1155	7.45239
2.116	6.84814
2.1165	13.09204
2.117	10.87646
2.1175	4.63257
2.118	-0.30212
2.1185	1.51062
2.119	-0.30212
2.1195	8.15735
2.12	4.53186
2.1205	6.84814
2.121	4.63257
2.1215	0.80566
2.122	1.00708
2.1225	8.8623
2.123	9.36584
2.1235	11.38
2.124	10.97717
2.1245	8.15735
2.125	5.33752
2.1255	7.85522
2.126	6.3446
2.1265	7.85522
2.127	11.48071
2.1275	4.33044
2.128	7.15027
2.1285	4.83398
2.129	2.71912
2.1295	-0.10071
2.13	0.80566
2.1305	1.2085
2.131	10.17151
2.1315	4.83398
2.132	9.06372
2.1325	3.32336
2.133	3.7262
2.1335	0.30212
2.134	-1.40991
2.1345	-0.10071
2.135	4.12903
2.1355	1.61133
2.136	3.92761
2.1365	-1.00708
2.137	-1.81274
2.1375	-0.60425
2.138	-0.60425
2.1385	5.33752
2.139	3.92761
2.1395	1.81274
2.14	6.44531
2.1405	7.15027
2.141	3.8269
2.1415	3.92761
2.142	6.44531
2.1425	6.04248
2.143	4.63257
2.1435	3.22266
2.144	2.41699
2.1445	1.51062
2.145	2.21558
2.1455	1.61133
2.146	6.74744
2.1465	5.53894
2.147	5.63965
2.1475	7.75452
2.148	0.60425
2.1485	7.04956
2.149	2.41699
2.1495	10.47363
2.15	6.54602
2.1505	3.92761
2.151	2.81982
2.1515	2.01416
2.152	3.62549
2.1525	7.45239
2.153	4.83398
2.1535	7.04956
2.154	3.42407
2.1545	7.65381
2.155	9.16443
2.1555	10.37292
2.156	9.16443
2.1565	13.19275
2.157	9.97009
2.1575	8.7616
2.158	10.87646
2.1585	10.57434
2.159	11.98425
2.1595	8.45947
2.16	9.36584
2.1605	5.84106
2.161	5.43823
2.1615	4.73328
2.162	10.0708
2.1625	10.27222
2.163	8.35876
2.1635	6.54602
2.164	15.71045
2.1645	10.87646
2.165	11.88354
2.1655	5.94177
2.166	8.66089
2.1665	13.59558
2.167	11.17859
2.1675	6.84814
2.168	10.0708
2.1685	9.66797
2.169	14.80408
2.1695	9.86938
2.17	14.30054
2.1705	4.93469
2.171	8.66089
2.1715	2.71912
2.172	3.32336
2.1725	8.56018
2.173	6.64673
2.1735	8.66089
2.174	5.0354
2.1745	1.3092
2.175	3.8269
2.1755	8.25806
2.176	2.31628
2.1765	5.23682
2.177	9.26514
2.1775	5.63965
2.178	3.8269
2.1785	10.37292
2.179	7.75452
2.1795	8.35876
2.18	3.62549
2.1805	7.85522
2.181	6.94885
2.1815	8.25806
2.182	10.0708
2.1825	5.74036
2.183	8.8623
2.1835	7.75452
2.184	3.12195
2.1845	6.74744
2.185	2.41699
2.1855	5.43823
2.186	7.85522
2.1865	5.63965
2.187	7.5531
2.1875	3.7262
2.188	1.91345
2.1885	-2.81982
2.189	-1.2085
2.1895	1.3092
2.19	1.81274
2.1905	7.5531
2.191	6.3446
2.1915	10.17151
2.192	7.75452
2.1925	10.27222
2.193	7.45239
2.1935	10.0708
2.194	13.29346
2.1945	10.67505
2.195	6.04248
2.1955	11.2793
2.196	10.37292
2.1965	5.23682
2.197	6.2439
2.1975	6.84814
2.198	9.16443
2.1985	7.5531
2.199	7.25098
2.1995	4.22974
2.2	1.81274
2.2005	5.13611
2.201	3.92761
2.2015	7.04956
2.202	6.94885
2.2025	1.51062
2.203	4.22974
2.2035	6.44531
2.204	1.91345
2.2045	6.84814
2.205	3.62549
2.2055	4.02832
2.206	8.56018
2.2065	13.59558
2.207	7.45239
2.2075	5.94177
2.208	7.15027
2.2085	12.28638
2.209	6.44531
2.2095	4.33044
2.21	4.73328
2.2105	1.91345
2.211	-0.50354
2.2115	1.00708
2.212	-0.60425
2.2125	2.81982
2.213	3.92761
2.2135	2.21558
2.214	6.74744
2.2145	9.86938
2.215	4.73328
2.2155	9.56726
2.216	7.65381
2.2165	11.17859
2.217	11.68213
2.2175	7.35168
2.218	11.98425
2.2185	7.45239
2.219	8.7616
2.2195	9.56726
2.22	8.25806
2.2205	12.5885
2.221	13.19275
2.2215	15.20691
2.222	5.63965
2.2225	5.74036
2.223	9.46655
2.2235	7.04956
2.224	7.85522
2.2245	6.3446
2.225	8.56018
2.2255	7.95593
2.226	6.3446
2.2265	7.85522
2.227	13.797
2.2275	9.36584
2.228	11.88354
2.2285	8.66089
2.229	7.75452
2.2295	6.74744
2.23	11.58142
2.2305	11.48071
2.231	7.04956
2.2315	10.47363
2.232	13.09204
2.2325	7.65381
2.233	7.35168
2.2335	14.19983
2.234	6.14319
2.2345	6.04248
2.235	8.8623
2.2355	7.5531
2.236	6.44531
2.2365	-1.51062
2.237	4.83398
2.2375	5.33752
2.238	7.04956
2.2385	2.11487
2.239	9.36584
2.2395	7.65381
2.24	1.10779
2.2405	-0.20142
2.241	4.83398
2.2415	7.35168
2.242	6.44531
2.2425	1.71204
2.243	1.51062
2.2435	4.93469
2.244	2.31628
2.2445	10.37292
2.245	4.93469
2.2455	-3.32336
2.246	0.90637
2.2465	-6.44531
2.247	-0.80566
2.2475	1.91345
2.248	3.12195
2.2485	1.2085
2.249	5.84106
2.2495	8.15735
2.25	2.5177
2.2505	0.80566
2.251	-3.52478
2.2515	-0.70496
2.252	1.00708
2.2525	-1.91345
2.253	-2.71912
2.2535	-1.10779
2.254	-2.71912
2.2545	-2.61841
2.255	3.42407
2.2555	-1.81274
2.256	0.10071
2.2565	1.00708
2.257	8.96301
2.2575	1.10779
2.258	8.45947
2.2585	6.94885
2.259	3.42407
2.2595	3.92761
2.26	1.00708
2.2605	5.74036
2.261	5.43823
2.2615	4.83398
2.262	5.43823
2.2625	8.05664
2.263	8.25806
2.2635	7.85522
2.264	4.02832
2.2645	5.94177
2.265	5.53894
2.2655	8.45947
2.266	9.06372
2.2665	5.94177
2.267	4.63257
2.2675	4.12903
2.268	6.74744
2.2685	6.04248
2.269	5.23682
2.2695	10.27222
2.27	10.67505
2.2705	10.67505
2.271	5.43823
2.2715	9.97009
2.272	-0.50354
2.2725	4.43115
2.273	4.02832
2.2735	8.05664
2.274	8.35876
2.2745	3.32336
2.275	-1.91345
2.2755	4.12903
2.276	11.07788
2.2765	12.38708
2.277	12.5885
2.2775	14.60266
2.278	9.66797
2.2785	7.85522
2.279	5.33752
2.2795	9.46655
2.28	-1.81274
2.2805	3.32336
2.281	6.64673
2.2815	3.12195
2.282	-3.12195
2.2825	0.70496
2.283	-2.41699
2.2835	-3.22266
2.284	-0.20142
2.2845	-2.41699
2.285	3.32336
2.2855	-0.30212
2.286	-1.71204
2.2865	5.23682
2.287	4.73328
2.2875	-1.00708
2.288	4.22974
2.2885	4.02832
2.289	5.74036
2.2895	8.8623
2.29	1.51062
2.2905	-0.50354
2.291	3.7262
2.2915	11.88354
2.292	2.92053
2.2925	1.3092
2.293	5.74036
2.2935	5.0354
2.294	5.43823
2.2945	6.64673
2.295	3.42407
2.2955	1.2085
2.296	4.73328
2.2965	1.40991
2.297	3.62549
2.2975	2.71912
2.298	5.74036
2.2985	4.12903
2.299	5.53894
2.2995	7.45239
2.3	6.04248
2.3005	0.40283
2.301	2.21558
2.3015	2.41699
2.302	2.41699
2.3025	2.31628
2.303	3.52478
2.3035	3.02124
2.304	1.2085
2.3045	6.44531
2.305	1.2085
2.3055	0
2.306	2.01416
2.3065	0
2.307	-0.40283
2.3075	5.43823
2.308	5.63965
2.3085	1.61133
2.309	0.60425
2.3095	-1.00708
2.31	0.50354
2.3105	4.43115
2.311	5.0354
2.3115	-0.70496
2.312	1.61133
2.3125	5.33752
2.313	-2.21558
2.3135	0.70496
2.314	0.60425
2.3145	0.50354
2.315	1.10779
2.3155	0.20142
2.316	-5.13611
2.3165	3.22266
2.317	2.41699
2.3175	2.31628
2.318	1.3092
2.3185	4.53186
2.319	4.63257
2.3195	2.01416
2.32	2.71912
2.3205	-2.21558
2.321	5.23682
2.3215	2.21558
2.322	11.58142
2.3225	6.54602
2.323	2.61841
2.3235	3.22266
2.324	7.85522
2.3245	3.7262
2.325	4.33044
2.3255	4.63257
2.326	10.0708
2.3265	9.66797
2.327	4.73328
2.3275	7.35168
2.328	3.52478
2.3285	4.83398
2.329	4.83398
2.3295	5.43823
2.33	5.13611
2.3305	-0.60425
2.331	1.3092
2.3315	5.13611
2.332	-2.81982
2.3325	-4.93469
2.333	-0.90637
2.3335	0.70496
2.334	-3.02124
2.3345	-4.12903
2.335	-7.5531
2.3355	1.00708
2.336	1.10779
2.3365	-2.31628
2.337	-0.40283
2.3375	-1.00708
2.338	2.31628
2.3385	5.43823
2.339	-3.52478
2.3395	-4.02832
2.34	-5.63965
2.3405	-5.13611
2.341	-1.71204
2.3415	4.53186
2.342	-2.71912
2.3425	1.51062
2.343	-0.40283
2.3435	1.81274
2.344	4.63257
2.3445	1.00708
2.345	3.8269
2.3455	2.61841
2.346	-2.71912
2.3465	3.7262
2.347	-1.2085
2.3475	5.0354
2.348	1.61133
2.3485	-0.60425
2.349	-2.5177
2.3495	4.12903
2.35	4.02832
2.3505	-0.30212
2.351	3.92761
2.3515	6.2439
2.352	1.61133
2.3525	0.80566
2.353	12.68921
2.3535	10.27222
2.354	4.33044
2.3545	7.95593
2.355	5.94177
2.3555	16.21399
2.356	5.43823
2.3565	13.09204
2.357	7.65381
2.3575	10.27222
2.358	10.37292
2.3585	3.52478
2.359	9.26514
2.3595	10.67505
2.36	12.38708
2.3605	10.17151
2.361	11.07788
2.3615	5.53894
2.362	8.05664
2.3625	9.36584
2.363	7.25098
2.3635	3.52478
2.364	3.8269
2.3645	7.04956
2.365	3.42407
2.3655	4.12903
2.366	-0.70496
2.3665	5.43823
2.367	0.80566
2.3675	3.92761
2.368	5.0354
2.3685	2.71912
2.369	8.8623
2.3695	6.2439
2.37	2.5177
2.3705	10.17151
2.371	11.38
2.3715	8.7616
2.372	1.00708
2.3725	7.85522
2.373	4.83398
2.3735	-1.10779
2.374	6.2439
2.3745	5.53894
2.375	2.92053
2.3755	5.84106
2.376	3.52478
2.3765	8.45947
2.377	8.35876
2.3775	0.90637
2.378	7.35168
2.3785	7.45239
2.379	9.56726
2.3795	11.2793
2.38	8.05664
2.3805	6.04248
2.381	5.63965
2.3815	6.74744
2.382	4.33044
2.3825	1.91345
2.383	5.23682
2.3835	7.15027
2.384	7.65381
2.3845	11.38
2.385	12.48779
2.3855	12.68921
2.386	8.25806
2.3865	9.06372
2.387	5.63965
2.3875	0.10071
2.388	3.8269
2.3885	3.32336
2.389	10.37292
2.3895	4.53186
2.39	10.17151
2.3905	7.25098
2.391	8.45947
2.3915	10.97717
2.392	6.44531
2.3925	9.06372
2.393	10.97717
2.3935	6.14319
2.394	9.26514
2.3945	7.35168
2.395	7.35168
2.3955	8.05664
2.396	5.74036
2.3965	6.14319
2.397	10.37292
2.3975	5.63965
2.398	6.84814
2.3985	8.8623
2.399	14.19983
2.3995	7.5531
2.4	8.35876
2.4005	2.81982
2.401	14.50195
2.4015	10.67505
2.402	12.5885
2.4025	8.15735
2.403	8.05664
2.4035	7.5531
2.404	5.94177
2.4045	9.36584
2.405	4.83398
2.4055	8.7616
2.406	7.35168
2.4065	3.92761
2.407	8.8623
2.4075	4.83398
2.408	3.22266
2.4085	-2.11487
2.409	-0.30212
2.4095	3.42407
2.41	4.63257
2.4105	3.42407
2.411	3.52478
2.4115	6.94885
2.412	1.61133
2.4125	0.60425
2.413	4.33044
2.4135	5.84106
2.414	-2.01416
2.4145	1.61133
2.415	4.63257
2.4155	2.92053
2.416	2.92053
2.4165	7.15027
2.417	1.71204
2.4175	0.30212
2.418	-1.3092
2.4185	-2.21558
2.419	5.0354
2.4195	0.60425
2.42	4.83398
2.4205	1.91345
2.421	2.5177
2.4215	4.12903
2.422	0
2.4225	1.51062
2.423	5.33752
2.4235	3.42407
2.424	6.54602
2.4245	6.94885
2.425	0.70496
2.4255	5.84106
2.426	7.45239
2.4265	4.53186
2.427	2.31628
2.4275	1.2085
2.428	3.02124
2.4285	6.54602
2.429	-1.00708
2.4295	-6.2439
2.43	2.41699
2.4305	-3.8269
2.431	-2.61841
2.4315	-2.01416
2.432	-3.62549
2.4325	3.12195
2.433	0.70496
2.4335	-1.3092
2.434	-2.5177
2.4345	1.51062
2.435	1.40991
2.4355	-3.12195
2.436	-0.60425
2.4365	1.3092
2.437	4.93469
2.4375	3.32336
2.438	5.0354
2.4385	1.3092
2.439	8.66089
2.4395	5.0354
2.44	3.02124
2.4405	6.2439
2.441	5.63965
2.4415	4.83398
2.442	1.40991
2.4425	2.61841
2.443	8.35876
2.4435	6.44531
2.444	4.22974
2.4445	7.35168
2.445	11.2793
2.4455	9.16443
2.446	9.66797
2.4465	9.06372
2.447	9.56726
2.4475	11.58142
2.448	15.30762
2.4485	8.15735
2.449	4.02832
2.4495	5.53894
2.45	17.42249
2.4505	13.49487
2.451	9.66797
2.4515	7.25098
2.452	7.65381
2.4525	12.28638
2.453	9.66797
2.4535	7.75452
2.454	8.7616
2.4545	11.88354
2.455	8.66089
2.4555	7.65381
2.456	7.04956
2.4565	8.66089
2.457	9.26514
2.4575	8.96301
2.458	6.74744
2.4585	8.15735
2.459	7.85522
2.4595	5.43823
2.46	7.85522
2.4605	11.58142
2.461	5.53894
2.4615	0.70496
2.462	3.92761
2.4625	12.08496
2.463	4.33044
2.4635	6.84814
2.464	4.73328
2.4645	3.52478
2.465	3.32336
2.4655	2.41699
2.466	8.35876
2.4665	5.13611
2.467	3.02124
2.4675	2.5177
2.468	5.33752
2.4685	6.74744
2.469	4.63257
2.4695	0
2.47	1.91345
2.4705	8.66089
2.471	6.54602
2.4715	7.25098
2.472	4.43115
2.4725	6.04248
2.473	6.2439
2.4735	9.76868
2.474	9.16443
2.4745	2.21558
2.475	6.14319
2.4755	4.93469
2.476	7.04956
2.4765	6.64673
2.477	4.63257
2.4775	-0.90637
2.478	3.42407
2.4785	5.0354
2.479	7.85522
2.4795	-1.40991
2.48	5.13611
2.4805	6.64673
2.481	3.92761
2.4815	7.75452
2.482	9.76868
2.4825	8.35876
2.483	6.74744
2.4835	7.95593
2.484	6.14319
2.4845	4.43115
2.485	3.62549
2.4855	3.62549
2.486	6.44531
2.4865	4.12903
2.487	8.96301
2.4875	9.46655
2.488	8.15735
2.4885	9.97009
2.489	4.02832
2.4895	8.7616
2.49	3.92761
2.4905	6.14319
2.491	8.66089
2.4915	5.23682
2.492	6.64673
2.4925	7.04956
2.493	8.8623
2.4935	7.15027
2.494	11.58142
2.4945	4.73328
2.495	2.41699
2.4955	3.7262
2.496	6.04248
2.4965	4.73328
2.497	1.81274
2.4975	-0.10071
2.498	-1.61133
2.4985	0.70496
2.499	5.84106
2.4995	9.36584
2.5	2.71912
2.5005	3.12195
2.501	4.53186
2.5015	7.15027
2.502	2.41699
2.5025	2.61841
2.503	8.45947
2.5035	6.44531
2.504	4.22974
2.5045	4.02832
2.505	1.2085
2.5055	12.28638
2.506	10.17151
2.5065	6.2439
2.507	11.78284
2.5075	8.45947
2.508	8.66089
2.5085	8.05664
2.509	11.48071
2.5095	15.71045
2.51	3.22266
2.5105	9.86938
2.511	4.83398
2.5115	9.16443
2.512	2.92053
2.5125	3.7262
2.513	1.91345
2.5135	8.66089
2.514	10.57434
2.5145	6.2439
2.515	5.23682
2.5155	8.35876
2.516	13.39417
2.5165	9.46655
2.517	9.16443
2.5175	2.5177
2.518	6.84814
2.5185	4.12903
2.519	3.32336
2.5195	1.2085
2.52	3.52478
2.5205	6.94885
2.521	3.52478
2.5215	2.21558
2.522	4.63257
2.5225	5.43823
2.523	12.78992
2.5235	6.3446
2.524	3.32336
2.5245	3.22266
2.525	3.92761
2.5255	9.16443
2.526	6.74744
2.5265	1.81274
2.527	-1.2085
2.5275	-1.00708
2.528	-1.00708
2.5285	1.71204
2.529	8.96301
2.5295	1.00708
2.53	4.22974
2.5305	5.13611
2.531	2.61841
2.5315	-0.30212
2.532	3.32336
2.5325	1.40991
2.533	3.22266
2.5335	9.76868
2.534	8.66089
2.5345	4.02832
2.535	5.84106
2.5355	8.66089
2.536	5.43823
2.5365	9.56726
2.537	9.86938
2.5375	2.92053
2.538	3.32336
2.5385	3.8269
2.539	8.45947
2.5395	3.32336
2.54	2.71912
2.5405	3.12195
2.541	0.30212
2.5415	-1.40991
2.542	3.7262
2.5425	0
2.543	2.31628
2.5435	6.04248
2.544	2.92053
2.5445	8.45947
2.545	10.17151
2.5455	10.0708
2.546	10.57434
2.5465	16.11328
2.547	11.07788
2.5475	10.17151
2.548	11.07788
2.5485	17.6239
2.549	17.12036
2.5495	9.06372
2.55	14.19983
2.5505	13.29346
2.551	9.06372
2.5515	13.59558
2.552	18.63098
2.5525	12.48779
2.553	11.88354
2.5535	13.39417
2.554	10.97717
2.5545	14.80408
2.555	12.68921
2.5555	8.15735
2.556	16.21399
2.5565	15.91187
2.557	13.09204
2.5575	12.5885
2.558	8.45947
2.5585	10.97717
2.559	5.53894
2.5595	5.13611
2.56	1.3092
2.5605	2.41699
2.561	1.00708
2.5615	2.01416
2.562	0.10071
2.5625	1.00708
2.563	-0.50354
2.5635	5.43823
2.564	0.70496
2.5645	-1.00708
2.565	2.61841
2.5655	10.17151
2.566	7.75452
2.5665	6.3446
2.567	5.53894
2.5675	1.00708
2.568	8.56018
2.5685	7.15027
2.569	8.66089
2.5695	9.06372
2.57	8.7616
2.5705	10.97717
2.571	8.45947
2.5715	11.58142
2.572	9.76868
2.5725	8.35876
2.573	2.61841
2.5735	4.53186
2.574	3.32336
2.5745	7.45239
2.575	3.62549
2.5755	0.60425
2.576	5.63965
2.5765	4.93469
2.577	3.8269
2.5775	4.22974
2.578	2.92053
2.5785	3.32336
2.579	6.94885
2.5795	-1.10779
2.58	1.61133
2.5805	-0.10071
2.581	-2.92053
2.5815	-5.23682
2.582	-10.87646
2.5825	-1.61133
2.583	-12.89062
2.5835	-13.09204
2.584	-10.17151
2.5845	-10.87646
2.585	-10.57434
2.5855	-5.53894
2.586	-0.90637
2.5865	-2.21558
2.587	2.11487
2.5875	3.42407
2.588	7.65381
2.5885	7.75452
2.589	1.00708
2.5895	0.90637
2.59	-1.51062
2.5905	-0.60425
2.591	-1.61133
2.5915	1.81274
2.592	3.8269
2.5925	3.7262
2.593	2.41699
2.5935	4.83398
2.594	9.46655
2.5945	7.45239
2.595	7.35168
2.5955	7.35168
2.596	4.93469
2.5965	9.26514
2.597	4.83398
2.5975	7.15027
2.598	5.33752
2.5985	9.56726
2.599	7.35168
2.5995	10.0708
2.6	12.48779
2.6005	11.17859
2.601	11.07788
2.6015	11.58142
2.602	6.74744
2.6025	9.36584
2.603	10.27222
2.6035	7.35168
2.604	7.45239
2.6045	12.5885
2.605	11.78284
2.6055	11.68213
2.606	10.97717
2.6065	9.46655
2.607	10.0708
2.6075	11.17859
2.608	10.77576
2.6085	10.37292
2.609	13.69629
2.6095	13.19275
2.61	11.48071
2.6105	10.57434
2.611	7.65381
2.6115	11.78284
2.612	7.25098
2.6125	13.29346
2.613	14.80408
2.6135	5.94177
2.614	10.17151
2.6145	9.66797
2.615	6.94885
2.6155	10.87646
2.616	9.86938
2.6165	5.43823
2.617	8.96301
2.6175	11.07788
2.618	10.57434
2.6185	9.97009
2.619	7.95593
2.6195	10.57434
2.62	7.35168
2.6205	1.61133
2.621	11.88354
2.6215	12.08496
2.622	10.87646
2.6225	7.35168
2.623	9.97009
2.6235	4.53186
2.624	3.02124
2.6245	-7.15027
2.625	-0.80566
2.6255	-1.3092
2.626	1.91345
2.6265	3.7262
2.627	1.10779
2.6275	-1.61133
2.628	0.40283
2.6285	6.2439
2.629	3.92761
2.6295	7.85522
2.63	5.33752
2.6305	8.7616
2.631	6.94885
2.6315	9.66797
2.632	5.94177
2.6325	9.86938
2.633	8.66089
2.6335	3.92761
2.634	9.26514
2.6345	11.2793
2.635	9.56726
2.6355	3.42407
2.636	8.66089
2.6365	3.92761
2.637	6.54602
2.6375	12.99133
2.638	10.47363
2.6385	5.33752
2.639	2.92053
2.6395	-1.2085
2.64	4.12903
2.6405	1.00708
2.641	6.94885
2.6415	7.5531
2.642	10.87646
2.6425	5.43823
2.643	7.35168
2.6435	6.84814
2.644	13.19275
2.6445	11.78284
2.645	6.94885
2.6455	2.92053
2.646	11.98425
2.6465	2.61841
2.647	4.63257
2.6475	2.81982
2.648	-1.71204
2.6485	4.43115
2.649	3.02124
2.6495	3.92761
2.65	2.01416
2.6505	2.31628
2.651	6.94885
2.6515	5.23682
2.652	6.2439
2.6525	8.45947
2.653	7.35168
2.6535	6.04248
2.654	4.02832
2.6545	4.83398
2.655	7.15027
2.6555	4.93469
2.656	5.94177
2.6565	10.17151
2.657	5.43823
2.6575	2.5177
2.658	4.33044
2.6585	9.16443
2.659	5.43823
2.6595	8.15735
2.66	11.07788
2.6605	10.17151
2.661	9.36584
2.6615	8.56018
2.662	7.45239
2.6625	10.77576
2.663	10.67505
2.6635	18.73169
2.664	13.797
2.6645	6.54602
2.665	9.97009
2.6655	7.15027
2.666	12.99133
2.6665	11.68213
2.667	6.3446
2.6675	10.0708
2.668	13.29346
2.6685	7.25098
2.669	9.16443
2.6695	10.47363
2.67	10.97717
2.6705	7.04956
2.671	8.7616
2.6715	7.5531
2.672	5.23682
2.6725	0.80566
2.673	2.41699
2.6735	-0.40283
2.674	-3.8269
2.6745	-1.91345
2.675	-5.0354
2.6755	-5.33752
2.676	-6.44531
2.6765	-15.60974
2.677	-4.22974
2.6775	3.22266
2.678	-3.32336
2.6785	-5.84106
2.679	-2.61841
2.6795	0.10071
2.68	6.44531
2.6805	1.00708
2.681	1.2085
2.6815	5.0354
2.682	3.12195
2.6825	-2.01416
2.683	5.13611
2.6835	8.15735
2.684	5.33752
2.6845	7.15027
2.685	11.38
2.6855	6.94885
2.686	5.74036
2.6865	5.23682
2.687	2.41699
2.6875	3.92761
2.688	7.75452
2.6885	3.7262
2.689	3.22266
2.6895	-2.31628
2.69	-6.64673
2.6905	-0.60425
2.691	-3.7262
2.6915	-6.04248
2.692	-8.05664
2.6925	-5.23682
2.693	-3.52478
2.6935	-4.73328
2.694	-8.25806
2.6945	2.61841
2.695	-2.61841
2.6955	-2.41699
2.696	0.20142
2.6965	7.85522
2.697	8.45947
2.6975	9.16443
2.698	5.13611
2.6985	6.14319
2.699	4.22974
2.6995	10.57434
2.7	7.25098
2.7005	9.66797
2.701	9.86938
2.7015	9.06372
2.702	9.56726
2.7025	12.5885
2.703	4.12903
2.7035	6.74744
2.704	7.25098
2.7045	10.47363
2.705	6.64673
2.7055	8.7616
2.706	5.13611
2.7065	0.90637
2.707	6.54602
2.7075	-4.12903
2.708	-1.61133
2.7085	-3.42407
2.709	-5.23682
2.7095	-3.12195
2.71	-3.32336
2.7105	-4.33044
2.711	-9.66797
2.7115	-8.45947
2.712	-7.5531
2.7125	-9.16443
2.713	-6.84814
2.7135	-4.22974
2.714	1.3092
2.7145	1.2085
2.715	-2.5177
2.7155	2.31628
2.716	-4.33044
2.7165	-1.40991
2.717	0.50354
2.7175	3.32336
2.718	-2.92053
2.7185	4.73328
2.719	5.84106
2.7195	5.23682
2.72	8.66089
2.7205	4.33044
2.721	5.63965
2.7215	3.92761
2.722	5.23682
2.7225	6.64673
2.723	10.57434
2.7235	13.89771
2.724	9.66797
2.7245	22.76001
2.725	15.00549
2.7255	16.71753
2.726	17.32178
2.7265	15.1062
2.727	12.28638
2.7275	14.09912
2.728	11.48071
2.7285	15.20691
2.729	17.32178
2.7295	16.61682
2.73	9.26514
2.7305	12.48779
2.731	15.91187
2.7315	12.48779
2.732	10.97717
2.7325	9.76868
2.733	8.66089
2.7335	9.66797
2.734	7.95593
2.7345	9.86938
2.735	8.66089
2.7355	7.85522
2.736	5.74036
2.7365	5.13611
2.737	2.21558
2.7375	6.64673
2.738	1.81274
2.7385	-4.02832
2.739	-4.43115
2.7395	-6.74744
2.74	-8.15735
2.7405	-1.40991
2.741	3.02124
2.7415	-0.80566
2.742	-5.23682
2.7425	-1.2085
2.743	-0.20142
2.7435	0.30212
2.744	0
2.7445	-0.50354
2.745	-4.22974
2.7455	4.43115
2.746	1.91345
2.7465	0.40283
2.747	7.25098
2.7475	4.33044
2.748	11.58142
2.7485	13.19275
2.749	12.08496
2.7495	11.07788
2.75	10.17151
2.7505	11.68213
2.751	10.27222
2.7515	8.25806
2.752	11.2793
2.7525	10.0708
2.753	17.92603
2.7535	12.5885
2.754	14.80408
2.7545	19.53735
2.755	17.22107
2.7555	12.89062
2.756	15.40833
2.7565	12.68921
2.757	16.91895
2.7575	21.75293
2.758	15.20691
2.7585	14.50195
2.759	15.91187
2.7595	10.47363
2.76	11.07788
2.7605	5.53894
2.761	12.48779
2.7615	9.56726
2.762	10.67505
2.7625	15.00549
2.763	10.37292
2.7635	9.26514
2.764	15.30762
2.7645	14.40125
2.765	16.91895
2.7655	17.82532
2.766	15.71045
2.7665	18.02673
2.767	15.00549
2.7675	17.42249
2.768	12.38708
2.7685	9.26514
2.769	17.92603
2.7695	13.49487
2.77	6.64673
2.7705	-0.20142
2.771	-14.40125
2.7715	-17.52319
2.772	-21.45081
2.7725	-19.63806
2.773	-16.61682
2.7735	-13.19275
2.774	-6.2439
2.7745	-0.30212
2.775	6.74744
2.7755	8.05664
2.776	11.78284
2.7765	14.90479
2.777	18.53027
2.7775	15.71045
2.778	15.1062
2.7785	20.34302
2.779	19.23523
2.7795	18.8324
2.78	15.71045
2.7805	14.80408
2.781	11.78284
2.7815	6.64673
2.782	15.1062
2.7825	12.28638
2.783	10.87646
2.7835	16.51611
2.784	11.98425
2.7845	7.25098
2.785	5.53894
2.7855	4.43115
2.786	5.43823
2.7865	1.51062
2.787	-2.41699
2.7875	-13.797
2.788	-16.41541
2.7885	-17.92603
2.789	-11.17859
2.7895	-11.68213
2.79	-8.45947
2.7905	-4.93469
2.791	-2.21558
2.7915	-2.21558
2.792	-3.22266
2.7925	3.02124
2.793	7.35168
2.7935	5.33752
2.794	3.22266
2.7945	7.5531
2.795	8.25806
2.7955	3.22266
2.796	10.57434
2.7965	13.19275
2.797	13.39417
2.7975	12.99133
2.798	7.04956
2.7985	3.62549
2.799	1.40991
2.7995	1.40991
2.8	2.81982
2.8005	6.64673
2.801	13.39417
2.8015	18.63098
2.802	23.16284
2.8025	19.13452
2.803	19.03381
2.8035	23.56567
2.804	23.36426
2.8045	23.26355
2.805	24.67346
2.8055	26.28479
2.806	29.00391
2.8065	26.88904
2.807	24.67346
2.8075	24.57275
2.808	21.3501
2.8085	15.91187
2.809	16.21399
2.8095	11.17859
2.81	-3.22266
2.8105	-9.56726
2.811	-6.74744
2.8115	-7.25098
2.812	-3.22266
2.8125	-3.92761
2.813	-2.5177
2.8135	-4.93469
2.814	-5.0354
2.8145	0.90637
2.815	3.42407
2.8155	7.95593
2.816	10.97717
2.8165	4.63257
2.817	5.74036
2.8175	10.77576
2.818	2.61841
2.8185	1.81274
2.819	5.23682
2.8195	4.22974
2.82	-0.40283
2.8205	-4.22974
2.821	0
2.8215	-4.02832
2.822	-7.5531
2.8225	-5.23682
2.823	-10.27222
2.8235	-6.04248
2.824	-11.58142
2.8245	-11.88354
2.825	-13.59558
2.8255	-10.0708
2.826	0.60425
2.8265	-6.54602
2.827	-18.32886
2.8275	-25.37842
2.828	-32.62939
2.8285	-24.16992
2.829	-21.3501
2.8295	-10.17151
2.83	-1.2085
2.8305	2.11487
2.831	12.08496
2.8315	20.74585
2.832	28.80249
2.8325	30.51453
2.833	32.7301
2.8335	41.08887
2.834	34.34143
2.8345	33.33435
2.835	28.29895
2.8355	23.56567
2.836	23.06213
2.8365	20.24231
2.837	20.04089
2.8375	18.53027
2.838	17.32178
2.8385	12.48779
2.839	11.78284
2.8395	10.67505
2.84	4.43115
2.8405	8.56018
2.841	2.61841
2.8415	1.71204
2.842	6.54602
2.8425	3.92761
2.843	9.36584
2.8435	-0.20142
2.844	-4.02832
2.8445	-2.11487
2.845	-2.61841
2.8455	-0.50354
2.846	4.22974
2.8465	3.7262
2.847	11.58142
2.8475	10.97717
2.848	13.19275
2.8485	15.30762
2.849	10.37292
2.8495	7.04956
2.85	13.29346
2.8505	9.16443
2.851	8.35876
2.8515	9.76868
2.852	5.63965
2.8525	-1.61133
2.853	3.7262
2.8535	-0.30212
2.854	-0.80566
2.8545	5.33752
2.855	5.84106
2.8555	3.22266
2.856	-1.2085
2.8565	-1.10779
2.857	-1.81274
2.8575	-5.94177
2.858	-0.20142
2.8585	1.00708
2.859	-0.10071
2.8595	4.33044
2.86	5.63965
2.8605	-7.25098
2.861	-7.45239
2.8615	-6.3446
2.862	-7.5531
2.8625	-9.97009
2.863	-13.09204
2.8635	-8.15735
2.864	-5.63965
2.8645	-2.01416
2.865	-3.32336
2.8655	4.33044
2.866	2.31628
2.8665	5.43823
2.867	8.15735
2.8675	6.64673
2.868	5.0354
2.8685	6.2439
2.869	6.04248
2.8695	12.68921
2.87	13.19275
2.8705	16.51611
2.871	12.68921
2.8715	17.6239
2.872	16.01257
2.8725	16.91895
2.873	13.39417
2.8735	12.68921
2.874	9.56726
2.8745	12.99133
2.875	13.19275
2.8755	12.68921
2.876	12.5885
2.8765	10.37292
2.877	9.97009
2.8775	11.68213
2.878	5.84106
2.8785	3.52478
2.879	13.09204
2.8795	6.44531
2.88	9.97009
2.8805	11.58142
2.881	7.04956
2.8815	11.68213
2.882	13.797
2.8825	12.28638
2.883	12.5885
2.8835	10.77576
2.884	13.09204
2.8845	6.64673
2.885	13.49487
2.8855	9.56726
2.886	4.53186
2.8865	13.09204
2.887	17.01965
2.8875	17.32178
2.888	23.66638
2.8885	26.08337
2.889	24.57275
2.8895	21.04797
2.89	22.76001
2.8905	26.08337
2.891	19.13452
2.8915	14.30054
2.892	25.47913
2.8925	25.37842
2.893	22.15576
2.8935	13.99841
2.894	18.12744
2.8945	10.87646
2.895	7.85522
2.8955	6.44531
2.896	4.93469
2.8965	-6.3446
2.897	-4.83398
2.8975	-12.89062
2.898	-17.52319
2.8985	-19.73877
2.899	-23.8678
2.8995	-30.01099
2.9	-32.83081
2.9005	-33.73718
2.901	-41.39099
2.9015	-44.21082
2.902	-41.59241
2.9025	-39.07471
2.903	-35.65063
2.9035	-28.80249
2.904	-25.177
2.9045	-26.18408
2.905	-16.3147
2.9055	-16.01257
2.906	-15.30762
2.9065	-10.57434
2.907	-7.25098
2.9075	-1.81274
2.908	2.81982
2.9085	-1.10779
2.909	2.11487
2.9095	3.52478
2.91	-0.50354
2.9105	2.41699
2.911	8.56018
2.9115	3.02124
2.912	2.01416
2.9125	5.33752
2.913	3.32336
2.9135	12.48779
2.914	5.94177
2.9145	8.96301
2.915	8.66089
2.9155	5.63965
2.916	9.26514
2.9165	11.58142
2.917	5.0354
2.9175	-0.50354
2.918	-7.35168
2.9185	-1.81274
2.919	-1.3092
2.9195	-0.70496
2.92	5.0354
2.9205	19.03381
2.921	23.26355
2.9215	25.47913
2.922	27.79541
2.9225	33.83789
2.923	36.05347
2.9235	35.65063
2.924	29.50745
2.9245	33.53577
2.925	28.70178
2.9255	25.47913
2.926	22.6593
2.9265	23.46497
2.927	18.53027
2.9275	9.86938
2.928	10.87646
2.9285	7.45239
2.929	9.66797
2.9295	8.96301
2.93	1.61133
2.9305	-1.3092
2.931	3.62549
2.9315	3.32336
2.932	4.33044
2.9325	7.75452
2.933	0.30212
2.9335	-0.40283
2.934	-1.3092
2.9345	6.54602
2.935	3.8269
2.9355	4.33044
2.936	2.61841
2.9365	7.65381
2.937	7.85522
2.9375	6.54602
2.938	3.32336
2.9385	6.54602
2.939	10.17151
2.9395	9.56726
2.94	13.49487
2.9405	10.97717
2.941	15.20691
2.9415	13.19275
2.942	17.01965
2.9425	20.84656
2.943	14.40125
2.9435	18.02673
2.944	24.47205
2.9445	20.94727
2.945	18.12744
2.9455	19.03381
2.946	18.93311
2.9465	18.02673
2.947	19.94019
2.9475	14.09912
2.948	2.01416
2.9485	-5.23682
2.949	-7.45239
2.9495	-13.19275
2.95	-6.44531
2.9505	-9.46655
2.951	-3.42407
2.9515	4.43115
2.952	7.95593
2.9525	9.76868
2.953	17.12036
2.9535	22.15576
2.954	26.78833
2.9545	21.04797
2.955	18.8324
2.9555	19.03381
2.956	25.27771
2.9565	26.78833
2.957	17.92603
2.9575	18.32886
2.958	18.12744
2.9585	16.61682
2.959	17.12036
2.9595	15.40833
2.96	8.35876
2.9605	5.43823
2.961	9.36584
2.9615	8.56018
2.962	4.02832
2.9625	0.60425
2.963	-0.20142
2.9635	2.11487
2.964	2.5177
2.9645	11.2793
2.965	11.48071
2.9655	15.71045
2.966	15.50903
2.9665	16.51611
2.967	22.76001
2.9675	22.96143
2.968	22.35718
2.9685	19.94019
2.969	12.38708
2.9695	19.83948
2.97	16.91895
2.9705	10.17151
2.971	1.71204
2.9715	-4.02832
2.972	-11.98425
2.9725	-10.27222
2.973	-20.44373
2.9735	-19.94019
2.974	-17.01965
2.9745	-13.29346
2.975	-7.04956
2.9755	-3.7262
2.976	3.32336
2.9765	9.66797
2.977	10.0708
2.9775	15.1062
2.978	19.33594
2.9785	17.01965
2.979	16.71753
2.9795	21.75293
2.98	26.98975
2.9805	23.96851
2.981	26.18408
2.9815	22.76001
2.982	23.96851
2.9825	27.49329
2.983	21.3501
2.9835	16.11328
2.984	18.02673
2.9845	19.94019
2.985	12.18567
2.9855	8.96301
2.986	18.53027
2.9865	12.28638
2.987	10.47363
2.9875	14.19983
2.988	12.38708
2.9885	7.04956
2.989	13.19275
2.9895	11.68213
2.99	18.73169
2.9905	8.66089
2.991	11.58142
2.9915	14.19983
2.992	12.38708
2.9925	15.60974
2.993	12.5885
2.9935	14.90479
2.994	12.28638
2.9945	12.99133
2.995	12.68921
2.9955	5.23682
2.996	7.25098
2.9965	5.94177
2.997	4.83398
2.9975	2.01416
2.998	2.01416
2.9985	-0.10071
2.999	2.61841
2.9995	2.81982
3	4.53186
3.0005	-1.81274
3.001	1.81274
3.0015	1.2085
3.002	7.65381
3.0025	5.23682
3.003	7.35168
3.0035	5.13611
3.004	1.91345
3.0045	9.76868
3.005	0.10071
3.0055	-1.40991
3.006	-0.60425
3.0065	-0.30212
3.007	1.00708
3.0075	-0.50354
3.008	4.83398
3.0085	5.63965
3.009	6.84814
3.0095	5.74036
3.01	-4.02832
3.0105	3.12195
3.011	1.91345
3.0115	3.42407
3.012	2.81982
3.0125	2.5177
3.013	4.83398
3.0135	5.23682
3.014	2.92053
3.0145	11.98425
3.015	10.67505
3.0155	12.89062
3.016	16.61682
3.0165	7.65381
3.017	7.15027
3.0175	10.0708
3.018	7.35168
3.0185	8.66089
3.019	3.7262
3.0195	8.05664
3.02	11.88354
3.0205	10.17151
3.021	7.15027
3.0215	10.87646
3.022	3.02124
3.0225	3.7262
3.023	2.81982
3.0235	8.96301
3.024	9.36584
3.0245	4.43115
3.025	3.62549
3.0255	3.62549
3.026	2.5177
3.0265	4.63257
3.027	6.54602
3.0275	6.2439
3.028	8.56018
3.0285	5.74036
3.029	9.06372
3.0295	9.46655
3.03	13.49487
3.0305	15.00549
3.031	15.00549
3.0315	8.66089
3.032	7.75452
3.0325	6.54602
3.033	7.85522
3.0335	13.09204
3.034	10.37292
3.0345	6.04248
3.035	10.87646
3.0355	18.8324
3.036	8.25806
3.0365	12.38708
3.037	14.30054
3.0375	8.96301
3.038	11.68213
3.0385	11.07788
3.039	15.30762
3.0395	16.3147
3.04	12.38708
3.0405	8.7616
3.041	3.32336
3.0415	2.71912
3.042	-2.11487
3.0425	-8.15735
3.043	-6.64673
3.0435	-10.67505
3.044	-9.97009
3.0445	-4.93469
3.045	-8.96301
3.0455	-6.14319
3.046	-3.8269
3.0465	-5.23682
3.047	-6.74744
3.0475	-5.13611
3.048	-5.0354
3.0485	-7.15027
3.049	-8.35876
3.0495	-2.01416
3.05	-1.61133
3.0505	-8.56018
3.051	-2.21558
3.0515	-4.02832
3.052	-1.51062
3.0525	-0.10071
3.053	1.71204
3.0535	1.51062
3.054	-1.40991
3.0545	0.90637
3.055	0.20142
3.0555	0.50354
3.056	6.74744
3.0565	2.41699
3.057	9.26514
3.0575	-1.10779
3.058	-0.30212
3.0585	4.93469
3.059	4.33044
3.0595	5.43823
3.06	7.04956
3.0605	9.36584
3.061	7.25098
3.0615	4.33044
3.062	3.32336
3.0625	6.04248
3.063	14.60266
3.0635	9.97009
3.064	10.87646
3.0645	6.14319
3.065	4.63257
3.0655	7.25098
3.066	5.0354
3.0665	3.02124
3.067	9.06372
3.0675	4.02832
3.068	8.15735
3.0685	9.26514
3.069	16.61682
3.0695	15.91187
3.07	10.37292
3.0705	16.51611
3.071	18.02673
3.0715	14.09912
3.072	10.17151
3.0725	9.97009
3.073	5.0354
3.0735	9.26514
3.074	6.44531
3.0745	2.5177
3.075	3.8269
3.0755	6.74744
3.076	4.73328
3.0765	7.25098
3.077	3.12195
3.0775	2.92053
3.078	-0.20142
3.0785	3.7262
3.079	-0.20142
3.0795	0.90637
3.08	-3.22266
3.0805	-8.25806
3.081	-5.23682
3.0815	-3.22266
3.082	-0.90637
3.0825	-5.53894
3.083	-0.90637
3.0835	-1.3092
3.084	1.40991
3.0845	2.81982
3.085	2.5177
3.0855	0.10071
3.086	1.3092
3.0865	-2.01416
3.087	-0.80566
3.0875	-7.95593
3.088	-3.92761
3.0885	0.10071
3.089	3.42407
3.0895	6.2439
3.09	5.33752
3.0905	11.98425
3.091	3.32336
3.0915	9.56726
3.092	10.27222
3.0925	8.35876
3.093	10.47363
3.0935	14.19983
3.094	18.12744
3.0945	12.28638
3.095	17.22107
3.0955	17.92603
3.096	16.41541
3.0965	13.39417
3.097	14.09912
3.0975	11.48071
3.098	8.15735
3.0985	7.35168
3.099	4.43115
3.0995	5.63965
3.1	-1.81274
3.1005	-1.71204
3.101	-2.01416
3.1015	-2.31628
3.102	-7.5531
3.1025	-5.84106
3.103	-11.48071
3.1035	-13.99841
3.104	-24.16992
3.1045	-18.22815
3.105	-12.89062
3.1055	-12.08496
3.106	-8.15735
3.1065	-8.35876
3.107	-2.71912
3.1075	-1.51062
3.108	-7.45239
3.1085	-5.33752
3.109	0.70496
3.1095	-4.22974
3.11	2.71912
3.1105	0.80566
3.111	-1.91345
3.1115	0.70496
3.112	3.22266
3.1125	3.12195
3.113	4.12903
3.1135	6.94885
3.114	8.7616
3.1145	8.35876
3.115	4.63257
3.1155	7.75452
3.116	6.54602
3.1165	7.95593
3.117	7.45239
3.1175	9.86938
3.118	11.2793
3.1185	13.09204
3.119	9.76868
3.1195	14.60266
3.12	15.40833
3.1205	20.64514
3.121	18.8324
3.1215	15.1062
3.122	16.81824
3.1225	15.60974
3.123	14.50195
3.1235	13.89771
3.124	17.42249
3.1245	20.34302
3.125	21.55151
3.1255	18.02673
3.126	15.71045
3.1265	12.78992
3.127	16.91895
3.1275	13.99841
3.128	12.28638
3.1285	10.47363
3.129	14.80408
3.1295	13.89771
3.13	7.5531
3.1305	7.25098
3.131	1.40991
3.1315	3.02124
3.132	-6.74744
3.1325	-4.33044
3.133	-7.35168
3.1335	-8.35876
3.134	-5.63965
3.1345	-7.25098
3.135	-4.02832
3.1355	-2.11487
3.136	-5.0354
3.1365	-3.22266
3.137	-1.40991
3.1375	5.84106
3.138	7.25098
3.1385	11.07788
3.139	10.37292
3.1395	9.26514
3.14	15.60974
3.1405	18.53027
3.141	12.99133
3.1415	12.18567
3.142	14.90479
3.1425	10.57434
3.143	15.91187
3.1435	13.69629
3.144	17.82532
3.1445	16.41541
3.145	16.91895
3.1455	13.39417
3.146	17.32178
3.1465	19.83948
3.147	19.23523
3.1475	13.69629
3.148	15.30762
3.1485	10.97717
3.149	11.07788
3.1495	14.60266
3.15	4.53186
3.1505	-0.50354
3.151	-6.3446
3.1515	-0.10071
3.152	-10.37292
3.1525	-19.94019
3.153	-26.18408
3.1535	-30.01099
3.154	-26.88904
3.1545	-21.24939
3.155	-10.87646
3.1555	-0.20142
3.156	0.40283
3.1565	6.94885
3.157	11.68213
3.1575	7.35168
3.158	9.66797
3.1585	12.99133
3.159	13.89771
3.1595	13.69629
3.16	14.09912
3.1605	14.50195
3.161	14.30054
3.1615	12.18567
3.162	16.11328
3.1625	12.99133
3.163	12.18567
3.1635	13.59558
3.164	8.15735
3.1645	6.04248
3.165	10.57434
3.1655	13.59558
3.166	11.88354
3.1665	10.67505
3.167	8.15735
3.1675	7.85522
3.168	7.45239
3.1685	7.75452
3.169	8.35876
3.1695	9.26514
3.17	8.7616
3.1705	8.15735
3.171	4.43115
3.1715	4.12903
3.172	2.31628
3.1725	-4.93469
3.173	-1.3092
3.1735	2.01416
3.174	-2.11487
3.1745	-2.71912
3.175	0.30212
3.1755	-1.91345
3.176	7.85522
3.1765	4.02832
3.177	10.47363
3.1775	6.3446
3.178	1.51062
3.1785	7.75452
3.179	4.83398
3.1795	9.46655
3.18	8.7616
3.1805	10.57434
3.181	8.05664
3.1815	7.25098
3.182	12.08496
3.1825	9.46655
3.183	10.27222
3.1835	13.99841
3.184	6.54602
3.1845	10.47363
3.185	13.59558
3.1855	12.99133
3.186	12.68921
3.1865	12.38708
3.187	7.5531
3.1875	8.56018
3.188	5.23682
3.1885	0.40283
3.189	5.33752
3.1895	5.53894
3.19	4.33044
3.1905	10.97717
3.191	12.08496
3.1915	7.04956
3.192	8.05664
3.1925	11.48071
3.193	9.16443
3.1935	8.66089
3.194	6.64673
3.1945	1.81274
3.195	6.3446
3.1955	3.32336
3.196	8.45947
3.1965	5.43823
3.197	3.52478
3.1975	2.21558
3.198	7.25098
3.1985	6.2439
3.199	0.60425
3.1995	7.85522
3.2	3.22266
3.2005	5.0354
3.201	7.04956
3.2015	4.33044
3.202	4.02832
3.2025	3.22266
3.203	3.32336
3.2035	9.56726
3.204	5.33752
3.2045	4.53186
3.205	2.81982
3.2055	-2.5177
3.206	2.11487
3.2065	3.32336
3.207	1.51062
3.2075	2.5177
3.208	3.62549
3.2085	6.14319
3.209	3.32336
3.2095	6.64673
3.21	6.74744
3.2105	3.32336
3.211	4.83398
3.2115	8.05664
3.212	6.04248
3.2125	11.2793
3.213	13.39417
3.2135	15.91187
3.214	11.2793
3.2145	12.89062
3.215	11.48071
3.2155	9.26514
3.216	4.43115
3.2165	2.5177
3.217	9.86938
3.2175	13.09204
3.218	8.66089
3.2185	5.74036
3.219	-0.30212
3.2195	-0.70496
3.22	2.71912
3.2205	5.53894
3.221	4.73328
3.2215	12.48779
3.222	8.05664
3.2225	10.67505
3.223	11.78284
3.2235	5.84106
3.224	10.77576
3.2245	2.31628
3.225	3.42407
3.2255	4.43115
3.226	12.38708
3.2265	11.78284
3.227	8.15735
3.2275	7.65381
3.228	12.48779
3.2285	12.38708
3.229	15.60974
3.2295	16.11328
3.23	15.50903
3.2305	9.16443
3.231	1.10779
3.2315	2.92053
3.232	3.42407
3.2325	-4.33044
3.233	-5.63965
3.2335	-2.41699
3.234	-0.10071
3.2345	-6.44531
3.235	-5.43823
3.2355	-3.02124
3.236	1.81274
3.2365	-2.5177
3.237	-4.63257
3.2375	-7.65381
3.238	-6.64673
3.2385	-1.61133
3.239	0
3.2395	-1.91345
3.24	-1.10779
3.2405	2.61841
3.241	-2.71912
3.2415	2.71912
3.242	0
3.2425	4.12903
3.243	3.62549
3.2435	-4.22974
3.244	2.11487
3.2445	0.10071
3.245	4.22974
3.2455	2.92053
3.246	0.30212
3.2465	3.02124
3.247	2.92053
3.2475	7.95593
3.248	7.45239
3.2485	6.44531
3.249	6.14319
3.2495	9.26514
3.25	8.96301
3.2505	7.5531
3.251	5.13611
3.2515	8.7616
3.252	3.7262
3.2525	-1.3092
3.253	-0.10071
3.2535	-0.90637
3.254	4.33044
3.2545	0
3.255	2.61841
3.2555	-0.30212
3.256	2.41699
3.2565	-1.00708
3.257	1.61133
3.2575	-3.92761
3.258	0.20142
3.2585	3.52478
3.259	-1.61133
3.2595	-3.92761
3.26	0
3.2605	-1.10779
3.261	-3.32336
3.2615	-1.51062
3.262	1.71204
3.2625	1.40991
3.263	-1.61133
3.2635	-1.3092
3.264	-1.3092
3.2645	-1.91345
3.265	2.61841
3.2655	-2.01416
3.266	-0.80566
3.2665	-1.51062
3.267	-1.51062
3.2675	-3.62549
3.268	2.92053
3.2685	-1.2085
3.269	-0.20142
3.2695	-3.42407
3.27	-1.40991
3.2705	-0.50354
3.271	5.94177
3.2715	1.81274
3.272	-0.70496
3.2725	-1.91345
3.273	1.61133
3.2735	1.2085
3.274	-0.80566
3.2745	-2.71912
3.275	-1.40991
3.2755	-1.51062
3.276	0.10071
3.2765	-8.8623
3.277	-0.10071
3.2775	-3.02124
3.278	-3.92761
3.2785	-1.00708
3.279	-3.02124
3.2795	3.52478
3.28	-3.52478
3.2805	3.8269
3.281	6.54602
3.2815	4.53186
3.282	4.02832
3.2825	-4.22974
3.283	-8.56018
3.2835	-2.01416
3.284	-5.63965
3.2845	-4.02832
3.285	-1.51062
3.2855	-3.12195
3.286	-8.45947
3.2865	-3.62549
3.287	-6.2439
3.2875	-2.81982
3.288	0
3.2885	-1.71204
3.289	-0.70496
3.2895	4.63257
3.29	-3.12195
3.2905	-6.74744
3.291	-2.11487
3.2915	-2.21558
3.292	-5.74036
3.2925	-1.3092
3.293	0.70496
3.2935	-1.00708
3.294	0.80566
3.2945	-0.10071
3.295	5.53894
3.2955	2.31628
3.296	8.66089
3.2965	4.22974
3.297	9.16443
3.2975	12.28638
3.298	6.44531
3.2985	2.81982
3.299	5.33752
3.2995	-0.90637
3.3	-0.20142
3.3005	-3.02124
3.301	-2.01416
3.3015	-3.8269
3.302	-2.21558
3.3025	0
3.303	4.12903
3.3035	-1.81274
3.304	-2.5177
3.3045	0.20142
3.305	6.64673
3.3055	8.25806
3.306	3.22266
3.3065	8.56018
3.307	8.8623
3.3075	4.73328
3.308	6.74744
3.3085	-0.40283
3.309	-4.53186
3.3095	-2.5177
3.31	1.81274
3.3105	6.84814
3.311	4.83398
3.3115	3.7262
3.312	9.16443
3.3125	5.74036
3.313	-1.00708
3.3135	0.60425
3.314	1.71204
3.3145	1.10779
3.315	4.22974
3.3155	8.7616
3.316	7.5531
3.3165	5.94177
3.317	1.00708
3.3175	4.22974
3.318	2.81982
3.3185	2.31628
3.319	5.94177
3.3195	4.43115
3.32	0.10071
3.3205	5.23682
3.321	1.00708
3.3215	3.42407
3.322	3.42407
3.3225	4.63257
3.323	6.84814
3.3235	4.43115
3.324	2.71912
3.3245	4.53186
3.325	2.21558
3.3255	12.99133
3.326	9.16443
3.3265	13.29346
3.327	9.66797
3.3275	6.04248
3.328	5.63965
3.3285	1.81274
3.329	1.10779
3.3295	2.21558
3.33	3.52478
3.3305	5.13611
3.331	7.5531
3.3315	6.84814
3.332	4.22974
3.3325	8.25806
3.333	10.67505
3.3335	8.66089
3.334	6.84814
3.3345	16.91895
3.335	12.28638
3.3355	12.89062
3.336	11.58142
3.3365	11.48071
3.337	10.97717
3.3375	5.74036
3.338	6.84814
3.3385	5.33752
3.339	5.84106
3.3395	6.04248
3.34	6.44531
3.3405	-1.2085
3.341	5.33752
3.3415	8.25806
3.342	-1.10779
3.3425	2.41699
3.343	0.10071
3.3435	-1.00708
3.344	-3.42407
3.3445	-6.44531
3.345	-11.68213
3.3455	-12.18567
3.346	-13.797
3.3465	-7.5531
3.347	-3.42407
3.3475	-4.22974
3.348	-5.43823
3.3485	-6.84814
3.349	-1.91345
3.3495	2.21558
3.35	1.00708
3.3505	9.36584
3.351	2.31628
3.3515	2.01416
3.352	-5.23682
3.3525	1.61133
3.353	4.22974
3.3535	1.71204
3.354	3.12195
3.3545	3.8269
3.355	1.71204
3.3555	3.42407
3.356	-2.5177
3.3565	7.04956
3.357	6.3446
3.3575	2.81982
3.358	0.20142
3.3585	6.54602
3.359	4.63257
3.3595	8.15735
3.36	1.91345
3.3605	9.76868
3.361	7.45239
3.3615	6.04248
3.362	12.99133
3.3625	6.74744
3.363	6.3446
3.3635	9.86938
3.364	10.97717
3.3645	12.18567
3.365	8.7616
3.3655	8.56018
3.366	-1.00708
3.3665	-13.99841
3.367	-23.96851
3.3675	-28.19824
3.368	-27.89612
3.3685	-25.78125
3.369	-20.04089
3.3695	-11.98425
3.37	-2.81982
3.3705	5.74036
3.371	14.80408
3.3715	22.55859
3.372	26.78833
3.3725	31.92444
3.373	36.05347
3.3735	35.65063
3.374	37.56409
3.3745	31.82373
3.375	33.13293
3.3755	37.06055
3.376	35.85205
3.3765	37.66479
3.377	27.6947
3.3775	19.33594
3.378	15.20691
3.3785	14.40125
3.379	3.8269
3.3795	7.85522
3.38	7.45239
3.3805	11.78284
3.381	20.94727
3.3815	16.91895
3.382	7.75452
3.3825	1.61133
3.383	-3.42407
3.3835	-12.48779
3.384	-12.78992
3.3845	-1.61133
3.385	-1.10779
3.3855	1.91345
3.386	1.2085
3.3865	-0.50354
3.387	-6.3446
3.3875	-3.8269
3.388	-0.70496
3.3885	3.52478
3.389	3.42407
3.3895	8.45947
3.39	9.16443
3.3905	10.57434
3.391	3.92761
3.3915	-0.30212
3.392	-0.10071
3.3925	7.65381
3.393	8.66089
3.3935	6.84814
3.394	4.53186
3.3945	11.88354
3.395	10.37292
3.3955	11.07788
3.396	4.73328
3.3965	8.15735
3.397	3.52478
3.3975	2.5177
3.398	5.13611
3.3985	7.75452
3.399	-5.0354
3.3995	-4.83398
3.4	-2.11487
3.4005	-5.33752
3.401	-4.22974
3.4015	-3.92761
3.402	-4.63257
3.4025	2.21558
3.403	4.83398
3.4035	11.68213
3.404	18.53027
3.4045	18.02673
3.405	25.68054
3.4055	26.48621
3.406	20.24231
3.4065	15.60974
3.407	17.92603
3.4075	13.19275
3.408	15.91187
3.4085	9.97009
3.409	14.80408
3.4095	17.01965
3.41	16.11328
3.4105	15.50903
3.411	9.76868
3.4115	12.5885
3.412	4.53186
3.4125	10.37292
3.413	5.63965
3.4135	-0.80566
3.414	1.91345
3.4145	-3.32336
3.415	-6.44531
3.4155	-5.74036
3.416	-5.84106
3.4165	-7.35168
3.417	-2.21558
3.4175	-9.97009
3.418	-13.89771
3.4185	-16.41541
3.419	-18.22815
3.4195	-29.50745
3.42	-32.22656
3.4205	-27.19116
3.421	-20.44373
3.4215	-18.32886
3.422	-10.57434
3.4225	-6.84814
3.423	3.62549
3.4235	5.23682
3.424	12.68921
3.4245	18.32886
3.425	30.71594
3.4255	31.21948
3.426	35.54993
3.4265	40.68604
3.427	44.81506
3.4275	47.33276
3.428	48.94409
3.4285	47.7356
3.429	45.01648
3.4295	44.81506
3.43	43.70728
3.4305	38.57117
3.431	31.52161
3.4315	18.53027
3.432	20.44373
3.4325	11.98425
3.433	7.65381
3.4335	12.99133
3.434	7.15027
3.4345	6.64673
3.435	6.84814
3.4355	-2.11487
3.436	-10.0708
3.4365	-24.37134
3.437	-28.80249
3.4375	-23.36426
3.438	-22.96143
3.4385	-16.51611
3.439	-10.0708
3.4395	-23.8678
3.44	-28.19824
3.4405	-30.31311
3.441	-30.2124
3.4415	-15.71045
3.442	-14.80408
3.4425	-2.71912
3.443	-23.26355
3.4435	-24.67346
3.444	-24.67346
3.4445	-29.80957
3.445	-25.177
3.4455	-17.92603
3.446	-7.5531
3.4465	-1.40991
3.447	1.51062
3.4475	6.94885
3.448	10.27222
3.4485	20.94727
3.449	26.28479
3.4495	30.01099
3.45	38.77258
3.4505	43.30444
3.451	35.65063
3.4515	27.29187
3.452	26.3855
3.4525	29.40674
3.453	25.37842
3.4535	22.96143
3.454	17.12036
3.4545	12.5885
3.455	13.29346
3.4555	1.91345
3.456	4.63257
3.4565	5.84106
3.457	10.47363
3.4575	11.2793
3.458	14.30054
3.4585	9.46655
3.459	14.09912
3.4595	20.64514
3.46	18.02673
3.4605	17.32178
3.461	15.30762
3.4615	28.09753
3.462	38.67188
3.4625	37.36267
3.463	34.54285
3.4635	35.54993
3.464	33.13293
3.4645	24.37134
3.465	17.01965
3.4655	12.48779
3.466	4.43115
3.4665	-0.20142
3.467	-11.58142
3.4675	-20.04089
3.468	-31.62231
3.4685	-37.46338
3.469	-33.43506
3.4695	-30.2124
3.47	-20.94727
3.4705	-12.48779
3.471	-5.23682
3.4715	3.92761
3.472	7.95593
3.4725	9.76868
3.473	12.38708
3.4735	12.28638
3.474	4.43115
3.4745	4.12903
3.475	2.21558
3.4755	-10.77576
3.476	-18.53027
3.4765	-11.78284
3.477	-14.40125
3.4775	-12.28638
3.478	-9.16443
3.4785	-2.11487
3.479	-10.47363
3.4795	-5.13611
3.48	-3.02124
3.4805	-4.12903
3.481	2.81982
3.4815	8.8623
3.482	5.84106
3.4825	13.89771
3.483	16.81824
3.4835	12.78992
3.484	14.40125
3.4845	16.01257
3.485	16.81824
3.4855	15.71045
3.486	17.01965
3.4865	8.7616
3.487	7.65381
3.4875	9.86938
3.488	0.60425
3.4885	-1.40991
3.489	0.20142
3.4895	5.53894
3.49	7.5531
3.4905	12.48779
3.491	18.93311
3.4915	26.78833
3.492	30.71594
3.4925	28.70178
3.493	29.40674
3.4935	29.30603
3.494	22.96143
3.4945	20.94727
3.495	15.30762
3.4955	16.41541
3.496	15.1062
3.4965	10.57434
3.497	10.67505
3.4975	11.78284
3.498	11.07788
3.4985	11.17859
3.499	21.85364
3.4995	24.06921
3.5	28.60107
3.5005	29.00391
3.501	34.74426
3.5015	25.78125
3.502	23.56567
3.5025	29.91028
3.503	38.77258
3.5035	38.87329
3.504	32.62939
3.5045	30.31311
3.505	25.27771
3.5055	22.86072
3.506	18.22815
3.5065	19.73877
3.507	11.48071
3.5075	4.73328
3.508	-0.40283
3.5085	-3.52478
3.509	-6.3446
3.5095	-14.80408
3.51	-20.34302
3.5105	-36.35559
3.511	-40.78674
3.5115	-56.09436
3.512	-54.98657
3.5125	-47.63489
3.513	-50.05188
3.5135	-44.81506
3.514	-39.67896
3.5145	-29.00391
3.515	-18.63098
3.5155	-13.797
3.516	-8.45947
3.5165	1.3092
3.517	5.13611
3.5175	15.50903
3.518	16.41541
3.5185	19.13452
3.519	22.45789
3.5195	19.63806
3.52	22.25647
3.5205	24.16992
3.521	16.61682
3.5215	17.72461
3.522	19.33594
3.5225	15.20691
3.523	9.16443
3.5235	0
3.524	3.12195
3.5245	6.64673
3.525	15.50903
3.5255	18.12744
3.526	21.24939
3.5265	18.12744
3.527	14.30054
3.5275	8.15735
3.528	9.97009
3.5285	-2.5177
3.529	-4.83398
3.5295	-8.35876
3.53	-12.48779
3.5305	-29.20532
3.531	-40.98816
3.5315	-51.15967
3.532	-50.65613
3.5325	-39.47754
3.533	-29.40674
3.5335	-12.18567
3.534	7.85522
3.5345	24.77417
3.535	42.7002
3.5355	57.30286
3.536	63.74817
3.5365	73.21472
3.537	73.51685
3.5375	70.59631
3.538	72.40906
3.5385	67.27295
3.539	62.8418
3.5395	56.39648
3.54	50.2533
3.5405	39.98108
3.541	37.96692
3.5415	34.44214
3.542	30.2124
3.5425	23.06213
3.543	16.21399
3.5435	8.96301
3.544	10.17151
3.5445	6.3446
3.545	5.23682
3.5455	9.16443
3.546	12.99133
3.5465	10.17151
3.547	10.77576
3.5475	13.19275
3.548	11.07788
3.5485	7.15027
3.549	2.92053
3.5495	7.15027
3.55	9.46655
3.5505	15.20691
3.551	11.48071
3.5515	7.45239
3.552	5.53894
3.5525	5.33752
3.553	2.61841
3.5535	5.43823
3.554	3.52478
3.5545	4.33044
3.555	6.3446
3.5555	0.80566
3.556	4.63257
3.5565	5.74036
3.557	-1.00708
3.5575	2.21558
3.558	1.40991
3.5585	-7.15027
3.559	-6.94885
3.5595	-10.0708
3.56	-6.54602
3.5605	-3.12195
3.561	-1.81274
3.5615	6.3446
3.562	7.5531
3.5625	12.78992
3.563	15.00549
3.5635	18.32886
3.564	25.47913
3.5645	24.57275
3.565	19.83948
3.5655	19.83948
3.566	19.33594
3.5665	15.71045
3.567	16.21399
3.5675	18.93311
3.568	19.43665
3.5685	20.94727
3.569	17.72461
3.5695	14.19983
3.57	9.06372
3.5705	12.5885
3.571	10.57434
3.5715	14.09912
3.572	13.59558
3.5725	16.71753
3.573	14.70337
3.5735	18.12744
3.574	17.22107
3.5745	14.60266
3.575	14.19983
3.5755	21.04797
3.576	16.81824
3.5765	17.32178
3.577	16.01257
3.5775	12.89062
3.578	15.1062
3.5785	17.12036
3.579	4.63257
3.5795	2.5177
3.58	0.60425
3.5805	0.30212
3.581	-17.52319
3.5815	-23.36426
3.582	-27.79541
3.5825	-29.30603
3.583	-22.55859
3.5835	-22.55859
3.584	-7.5531
3.5845	-7.25098
3.585	0.60425
3.5855	10.0708
3.586	24.37134
3.5865	23.36426
3.587	28.50037
3.5875	24.06921
3.588	17.32178
3.5885	11.88354
3.589	14.09912
3.5895	14.90479
3.59	10.77576
3.5905	8.05664
3.591	14.19983
3.5915	9.56726
3.592	8.66089
3.5925	9.97009
3.593	6.94885
3.5935	8.45947
3.594	5.23682
3.5945	5.63965
3.595	4.83398
3.5955	3.22266
3.596	1.61133
3.5965	4.02832
3.597	2.81982
3.5975	2.01416
3.598	2.71912
3.5985	1.51062
3.599	3.8269
3.5995	-2.61841
3.6	-3.42407
3.6005	2.61841
3.601	6.2439
3.6015	9.56726
3.602	2.41699
3.6025	7.25098
3.603	8.8623
3.6035	7.25098
3.604	3.52478
3.6045	8.96301
3.605	11.78284
3.6055	15.30762
3.606	12.38708
3.6065	10.97717
3.607	6.64673
3.6075	9.56726
3.608	7.35168
3.6085	10.17151
3.609	7.35168
3.6095	6.84814
3.61	9.46655
3.6105	11.2793
3.611	5.43823
3.6115	7.95593
3.612	10.57434
3.6125	6.64673
3.613	13.09204
3.6135	8.56018
3.614	10.67505
3.6145	7.95593
3.615	8.15735
3.6155	5.43823
3.616	14.70337
3.6165	15.91187
3.617	12.18567
3.6175	10.17151
3.618	12.68921
3.6185	13.19275
3.619	17.01965
3.6195	14.80408
3.62	10.87646
3.6205	10.67505
3.621	8.15735
3.6215	10.37292
3.622	11.68213
3.6225	11.68213
3.623	-0.70496
3.6235	-4.93469
3.624	-3.62549
3.6245	-2.81982
3.625	-2.5177
3.6255	-3.42407
3.626	-7.35168
3.6265	-10.97717
3.627	-11.17859
3.6275	-8.8623
3.628	-9.76868
3.6285	-9.06372
3.629	-6.84814
3.6295	-2.92053
3.63	-2.11487
3.6305	2.11487
3.631	4.33044
3.6315	6.74744
3.632	7.65381
3.6325	6.2439
3.633	0.60425
3.6335	1.3092
3.634	-2.81982
3.6345	2.71912
3.635	4.53186
3.6355	1.10779
3.636	1.10779
3.6365	0.80566
3.637	3.02124
3.6375	2.71912
3.638	6.74744
3.6385	9.06372
3.639	5.0354
3.6395	3.42407
3.64	9.97009
3.6405	11.98425
3.641	12.68921
3.6415	8.66089
3.642	8.66089
3.6425	16.81824
3.643	14.80408
3.6435	9.26514
3.644	6.44531
3.6445	1.2085
3.645	1.2085
3.6455	1.81274
3.646	-3.12195
3.6465	1.10779
3.647	6.74744
3.6475	17.22107
3.648	19.73877
3.6485	23.36426
3.649	22.05505
3.6495	20.1416
3.65	21.04797
3.6505	27.59399
3.651	18.02673
3.6515	24.77417
3.652	17.82532
3.6525	23.8678
3.653	23.46497
3.6535	18.42957
3.654	14.60266
3.6545	16.01257
3.655	16.11328
3.6555	8.7616
3.656	9.46655
3.6565	2.92053
3.657	7.65381
3.6575	4.83398
3.658	9.06372
3.6585	5.94177
3.659	5.63965
3.6595	7.75452
3.66	5.94177
3.6605	7.65381
3.661	5.33752
3.6615	8.56018
3.662	5.84106
3.6625	7.25098
3.663	2.71912
3.6635	2.41699
3.664	0.80566
3.6645	5.74036
3.665	2.31628
3.6655	4.33044
3.666	2.21558
3.6665	0
3.667	-9.76868
3.6675	-1.51062
3.668	-1.81274
3.6685	1.91345
3.669	2.11487
3.6695	2.71912
3.67	6.94885
3.6705	7.5531
3.671	9.26514
3.6715	-0.40283
3.672	-13.09204
3.6725	-19.63806
3.673	-19.94019
3.6735	-15.30762
3.674	-20.84656
3.6745	-19.23523
3.675	-10.57434
3.6755	-4.63257
3.676	0.60425
3.6765	6.94885
3.677	12.99133
3.6775	16.51611
3.678	8.56018
3.6785	-3.12195
3.679	2.71912
3.6795	6.74744
3.68	8.66089
3.6805	17.6239
3.681	24.06921
3.6815	21.3501
3.682	30.81665
3.6825	30.91736
3.683	33.9386
3.6835	24.57275
3.684	23.16284
3.6845	20.24231
3.685	18.02673
3.6855	12.38708
3.686	10.37292
3.6865	9.16443
3.687	9.36584
3.6875	7.45239
3.688	13.69629
3.6885	16.71753
3.689	15.50903
3.6895	2.21558
3.69	-5.43823
3.6905	-7.15027
3.691	-13.49487
3.6915	-11.38
3.692	-6.94885
3.6925	-3.52478
3.693	3.62549
3.6935	3.22266
3.694	10.77576
3.6945	16.61682
3.695	15.71045
3.6955	14.09912
3.696	15.71045
3.6965	9.26514
3.697	10.0708
3.6975	13.797
3.698	15.91187
3.6985	12.48779
3.699	16.51611
3.6995	20.94727
3.7	17.01965
3.7005	17.22107
3.701	18.32886
3.7015	13.19275
3.702	9.06372
3.7025	10.17151
3.703	12.38708
3.7035	10.47363
3.704	8.8623
3.7045	6.2439
3.705	-0.50354
3.7055	-3.92761
3.706	-4.12903
3.7065	1.2085
3.707	-5.84106
3.7075	-5.0354
3.708	1.51062
3.7085	3.02124
3.709	1.00708
3.7095	2.5177
3.71	0
3.7105	2.41699
3.711	-2.71912
3.7115	-6.2439
3.712	-5.0354
3.7125	-2.92053
3.713	-0.60425
3.7135	0.40283
3.714	-1.81274
3.7145	0.70496
3.715	7.65381
3.7155	8.8623
3.716	9.36584
3.7165	5.94177
3.717	6.74744
3.7175	-1.2085
3.718	4.93469
3.7185	5.53894
3.719	9.66797
3.7195	13.19275
3.72	16.3147
3.7205	16.91895
3.721	9.36584
3.7215	11.07788
3.722	6.74744
3.7225	5.33752
3.723	9.06372
3.7235	8.66089
3.724	9.26514
3.7245	1.10779
3.725	5.84106
3.7255	-0.80566
3.726	5.84106
3.7265	0.10071
3.727	-6.04248
3.7275	-10.17151
3.728	-5.63965
3.7285	-2.81982
3.729	-5.53894
3.7295	-7.95593
3.73	-11.78284
3.7305	-15.40833
3.731	-14.09912
3.7315	-26.68762
3.732	-27.99683
3.7325	-31.01807
3.733	-33.13293
3.7335	-36.95984
3.734	-37.36267
3.7345	-43.30444
3.735	-39.37683
3.7355	-31.72302
3.736	-25.47913
3.7365	-15.71045
3.737	-8.45947
3.7375	-1.3092
3.738	5.23682
3.7385	12.5885
3.739	12.89062
3.7395	19.13452
3.74	17.01965
3.7405	9.26514
3.741	9.86938
3.7415	6.04248
3.742	5.74036
3.7425	5.84106
3.743	10.0708
3.7435	5.84106
3.744	3.02124
3.7445	-2.5177
3.745	2.11487
3.7455	-0.80566
3.746	-2.21558
3.7465	-0.30212
3.747	10.0708
3.7475	9.36584
3.748	8.66089
3.7485	12.5885
3.749	7.75452
3.7495	9.46655
3.75	19.33594
3.7505	18.32886
3.751	20.1416
3.7515	24.06921
3.752	12.5885
3.7525	11.98425
3.753	8.8623
3.7535	10.27222
3.754	9.56726
3.7545	13.29346
3.755	8.7616
3.7555	4.02832
3.756	2.21558
3.7565	0.20142
3.757	4.63257
3.7575	-1.71204
3.758	-0.20142
3.7585	-1.51062
3.759	-0.90637
3.7595	-4.53186
3.76	-3.02124
3.7605	-1.2085
3.761	5.63965
3.7615	3.32336
3.762	4.33044
3.7625	4.22974
3.763	7.65381
3.7635	3.12195
3.764	1.00708
3.7645	1.00708
3.765	5.0354
3.7655	0.50354
3.766	2.21558
3.7665	-0.50354
3.767	-5.13611
3.7675	-11.68213
3.768	-9.06372
3.7685	-4.53186
3.769	-4.12903
3.7695	-9.66797
3.77	-5.43823
3.7705	-8.25806
3.771	2.21558
3.7715	-1.3092
3.772	4.93469
3.7725	2.81982
3.773	7.45239
3.7735	3.8269
3.774	-3.42407
3.7745	-3.32336
3.775	-1.2085
3.7755	-3.22266
3.776	-2.41699
3.7765	-10.17151
3.777	-14.09912
3.7775	-5.23682
3.778	-3.32336
3.7785	-0.90637
3.779	-0.80566
3.7795	-0.40283
3.78	0.20142
3.7805	-0.40283
3.781	3.12195
3.7815	6.2439
3.782	10.77576
3.7825	8.05664
3.783	12.78992
3.7835	15.71045
3.784	10.47363
3.7845	11.58142
3.785	8.25806
3.7855	14.80408
3.786	24.47205
3.7865	21.04797
3.787	21.55151
3.7875	28.50037
3.788	27.09045
3.7885	25.88196
3.789	33.33435
3.7895	33.23364
3.79	23.16284
3.7905	24.57275
3.791	22.6593
3.7915	16.41541
3.792	9.97009
3.7925	7.45239
3.793	16.71753
3.7935	16.3147
3.794	10.0708
3.7945	8.56018
3.795	12.99133
3.7955	11.88354
3.796	12.08496
3.7965	6.14319
3.797	11.07788
3.7975	10.87646
3.798	0
3.7985	0.40283
3.799	-1.2085
3.7995	1.91345
3.8	-5.84106
3.8005	-5.74036
3.801	-10.87646
3.8015	-14.30054
3.802	-12.18567
3.8025	-11.68213
3.803	-21.45081
3.8035	-25.07629
3.804	-18.73169
3.8045	-15.60974
3.805	-10.0708
3.8055	1.2085
3.806	2.92053
3.8065	4.83398
3.807	10.17151
3.8075	9.36584
3.808	16.21399
3.8085	17.01965
3.809	12.18567
3.8095	14.30054
3.81	16.91895
3.8105	15.91187
3.811	12.89062
3.8115	14.90479
3.812	11.07788
3.8125	11.88354
3.813	-8.7616
3.8135	-30.2124
3.814	-42.59949
3.8145	-47.93701
3.815	-41.39099
3.8155	-37.56409
3.816	-22.35718
3.8165	2.41699
3.817	12.38708
3.8175	21.24939
3.818	30.01099
3.8185	38.974
3.819	45.2179
3.8195	50.354
3.82	51.15967
3.8205	51.36108
3.821	50.55542
3.8215	41.89453
3.822	35.65063
3.8225	36.05347
3.823	32.83081
3.8235	32.32727
3.824	29.20532
3.8245	21.55151
3.825	13.19275
3.8255	11.48071
3.826	2.81982
3.8265	0.70496
3.827	-1.71204
3.8275	-10.27222
3.828	-11.78284
3.8285	-12.5885
3.829	-14.09912
3.8295	-11.98425
3.83	-11.68213
3.8305	-13.69629
3.831	-18.22815
3.8315	-17.01965
3.832	-11.2793
3.8325	-8.96301
3.833	-11.2793
3.8335	-2.81982
3.834	-8.66089
3.8345	-15.91187
3.835	-18.93311
3.8355	-25.47913
3.836	-29.80957
3.8365	-30.81665
3.837	-32.32727
3.8375	-29.40674
3.838	-17.92603
3.8385	-13.89771
3.839	-1.40991
3.8395	8.8623
3.84	18.32886
3.8405	26.28479
3.841	28.9032
3.8415	25.98267
3.842	25.78125
3.8425	26.48621
3.843	31.4209
3.8435	28.50037
3.844	22.45789
3.8445	18.53027
3.845	19.53735
3.8455	17.32178
3.846	20.54443
3.8465	24.06921
3.847	22.25647
3.8475	19.33594
3.848	14.50195
3.8485	14.90479
3.849	19.23523
3.8495	12.99133
3.85	21.04797
3.8505	23.96851
3.851	11.88354
3.8515	8.45947
3.852	2.31628
3.8525	-1.81274
3.853	-6.84814
3.8535	-15.30762
3.854	-6.44531
3.8545	-5.0354
3.855	-12.08496
3.8555	-4.33044
3.856	-8.66089
3.8565	-19.03381
3.857	-17.52319
3.8575	-10.67505
3.858	-0.60425
3.8585	8.05664
3.859	22.25647
3.8595	31.21948
3.86	36.75842
3.8605	37.36267
3.861	38.36975
3.8615	41.69312
3.862	44.51294
3.8625	43.00232
3.863	38.67188
3.8635	36.25488
3.864	33.83789
3.8645	23.26355
3.865	17.6239
3.8655	19.03381
3.866	16.21399
3.8665	10.67505
3.867	3.8269
3.8675	-1.3092
3.868	-2.01416
3.8685	1.10779
3.869	-2.81982
3.8695	-5.23682
3.87	-7.75452
3.8705	-10.47363
3.871	-23.26355
3.8715	-44.41223
3.872	-49.34692
3.8725	-48.64197
3.873	-42.59949
3.8735	-39.67896
3.874	-42.09595
3.8745	-31.4209
3.875	-26.68762
3.8755	-23.16284
3.876	-12.5885
3.8765	-14.30054
3.877	-9.76868
3.8775	-4.73328
3.878	-17.32178
3.8785	-16.61682
3.879	-16.3147
3.8795	-11.78284
3.88	-15.81116
3.8805	-9.76868
3.881	5.0354
3.8815	9.56726
3.882	21.24939
3.8825	29.80957
3.883	39.88037
3.8835	43.10303
3.884	38.67188
3.8845	37.66479
3.885	40.48462
3.8855	38.47046
3.886	34.14001
3.8865	27.99683
3.887	31.11877
3.8875	25.68054
3.888	22.55859
3.8885	23.8678
3.889	26.78833
3.8895	35.2478
3.89	36.05347
3.8905	33.23364
3.891	30.41382
3.8915	18.73169
3.892	12.89062
3.8925	9.36584
3.893	4.53186
3.8935	-1.00708
3.894	-13.89771
3.8945	-30.11169
3.895	-31.62231
3.8955	-36.35559
3.896	-32.32727
3.8965	-25.98267
3.897	-15.1062
3.8975	-10.97717
3.898	-13.39417
3.8985	-6.94885
3.899	-13.89771
3.8995	-29.50745
3.9	-42.7002
3.9005	-64.45312
3.901	-82.27844
3.9015	-82.58057
3.902	-74.2218
3.9025	-58.10852
3.903	-35.54993
3.9035	-10.57434
3.904	5.94177
3.9045	25.47913
3.905	33.83789
3.9055	44.91577
3.906	44.61365
3.9065	53.27454
3.907	54.28162
3.9075	61.02905
3.908	57.60498
3.9085	48.13843
3.909	47.93701
3.9095	46.5271
3.91	38.26904
3.9105	32.42798
3.911	21.85364
3.9115	16.61682
3.912	24.67346
3.9125	32.32727
3.913	32.32727
3.9135	45.41931
3.914	45.01648
3.9145	31.92444
3.915	20.1416
3.9155	12.68921
3.916	6.14319
3.9165	5.94177
3.917	2.92053
3.9175	2.61841
3.918	-4.02832
3.9185	-14.09912
3.919	-21.14868
3.9195	-11.78284
3.92	-13.29346
3.9205	-9.76868
3.921	-1.10779
3.9215	-0.70496
3.922	3.02124
3.9225	7.85522
3.923	12.89062
3.9235	19.13452
3.924	15.1062
3.9245	9.97009
3.925	3.02124
3.9255	-6.84814
3.926	-16.91895
3.9265	-16.21399
3.927	-23.76709
3.9275	-32.12585
3.928	-30.01099
3.9285	-27.6947
3.929	-14.19983
3.9295	-2.71912
3.93	4.02832
3.9305	12.28638
3.931	15.81116
3.9315	16.91895
3.932	19.13452
3.9325	13.49487
3.933	10.0708
3.9335	9.36584
3.934	5.0354
3.9345	8.35876
3.935	4.53186
3.9355	1.40991
3.936	4.12903
3.9365	3.7262
3.937	12.18567
3.9375	25.07629
3.938	27.59399
3.9385	34.94568
3.939	38.57117
3.9395	37.36267
3.94	26.18408
3.9405	13.19275
3.941	1.91345
3.9415	-3.92761
3.942	-5.23682
3.9425	-10.97717
3.943	-18.12744
3.9435	-27.19116
3.944	-19.94019
3.9445	-15.30762
3.945	-11.78284
3.9455	-3.32336
3.946	0.60425
3.9465	4.53186
3.947	7.04956
3.9475	7.45239
3.948	5.23682
3.9485	1.81274
3.949	-3.42407
3.9495	3.32336
3.95	8.8623
3.9505	10.87646
3.951	8.15735
3.9515	7.45239
3.952	5.43823
3.9525	10.57434
3.953	7.65381
3.9535	10.67505
3.954	16.91895
3.9545	12.5885
3.955	14.30054
3.9555	1.61133
3.956	-2.11487
3.9565	-8.05664
3.957	-20.74585
3.9575	-17.22107
3.958	-12.89062
3.9585	-10.87646
3.959	-5.53894
3.9595	-6.14319
3.96	-3.42407
3.9605	2.61841
3.961	4.63257
3.9615	8.35876
3.962	6.2439
3.9625	14.30054
3.963	13.19275
3.9635	7.95593
3.964	1.61133
3.9645	3.02124
3.965	-1.51062
3.9655	0.50354
3.966	-4.53186
3.9665	-2.5177
3.967	-3.8269
3.9675	-2.61841
3.968	-2.01416
3.9685	-16.71753
3.969	-19.83948
3.9695	-25.57983
3.97	-17.72461
3.9705	-12.18567
3.971	-7.25098
3.9715	0.70496
3.972	15.00549
3.9725	23.96851
3.973	32.12585
3.9735	37.86621
3.974	33.43506
3.9745	34.94568
3.975	33.03223
3.9755	35.44922
3.976	29.50745
3.9765	35.75134
3.977	36.4563
3.9775	36.55701
3.978	31.92444
3.9785	36.85913
3.979	39.88037
3.9795	33.63647
3.98	18.93311
3.9805	0.40283
3.981	-12.68921
3.9815	-15.91187
3.982	-13.99841
3.9825	-15.91187
3.983	-12.78992
3.9835	-10.27222
3.984	-5.13611
3.9845	-1.71204
3.985	3.02124
3.9855	6.14319
3.986	-2.41699
3.9865	0.20142
3.987	3.12195
3.9875	-16.41541
3.988	-41.79382
3.9885	-55.3894
3.989	-63.64746
3.9895	-64.55383
3.99	-64.25171
3.9905	-57.60498
3.991	-50.75684
3.9915	-46.5271
3.992	-40.98816
3.9925	-27.39258
3.993	-15.30762
3.9935	3.92761
3.994	19.43665
3.9945	32.83081
3.995	35.75134
3.9955	37.66479
3.996	43.50586
3.9965	41.59241
3.997	52.46887
3.9975	49.95117
3.998	62.43896
3.9985	59.41772
3.999	57.50427
3.9995	62.9425
4	67.57507
4.0005	65.66162
4.001	61.83472
4.0015	56.90002
4.002	57.00073
4.0025	55.3894
4.003	45.72144
4.0035	35.14709
4.004	30.31311
4.0045	25.07629
4.005	15.91187
4.0055	8.15735
4.006	8.7616
4.0065	7.65381
4.007	7.65381
4.0075	5.43823
4.008	1.3092
4.0085	3.22266
4.009	-2.92053
4.0095	-1.81274
4.01	5.94177
4.0105	1.3092
4.011	8.56018
4.0115	10.0708
4.012	7.25098
4.0125	4.12903
4.013	5.13611
4.0135	8.45947
4.014	4.43115
4.0145	6.2439
4.015	3.22266
4.0155	4.83398
4.016	1.40991
4.0165	-4.02832
4.017	-6.14319
4.0175	-8.7616
4.018	-12.89062
4.0185	-15.81116
4.019	-8.05664
4.0195	-3.02124
4.02	-7.75452
4.0205	-12.08496
4.021	-32.12585
4.0215	-49.34692
4.022	-58.30994
4.0225	-62.43896
4.023	-62.64038
4.0235	-55.49011
4.024	-49.14551
4.0245	-50.85754
4.025	-59.01489
4.0255	-38.77258
4.026	-35.85205
4.0265	-25.177
4.027	-15.91187
4.0275	-15.00549
4.028	-14.80408
4.0285	-12.5885
4.029	-7.45239
4.0295	-1.40991
4.03	12.18567
4.0305	17.72461
4.031	24.37134
4.0315	27.29187
4.032	25.98267
4.0325	27.79541
4.033	27.6947
4.0335	26.28479
4.034	28.9032
4.0345	28.70178
4.035	29.50745
4.0355	27.99683
4.036	27.89612
4.0365	45.11719
4.037	56.69861
4.0375	57.50427
4.038	64.45312
4.0385	78.35083
4.039	81.87561
4.0395	80.36499
4.04	60.62622
4.0405	52.8717
4.041	56.79932
4.0415	54.0802
4.042	54.88586
4.0425	50.45471
4.043	53.77808
4.0435	47.03064
4.044	39.77966
4.0445	33.83789
4.045	26.88904
