Francesco_Luisi_Right_2.c3d  



Time(s):	B_L_bicipite(μV):
0	25.57983
0.0005	26.18408
0.001	28.60107
0.0015	28.50037
0.002	22.6593
0.0025	13.797
0.003	8.15735
0.0035	1.3092
0.004	0.60425
0.0045	1.00708
0.005	-10.27222
0.0055	-10.87646
0.006	-20.34302
0.0065	-22.35718
0.007	-32.93152
0.0075	-41.39099
0.008	-43.50586
0.0085	-41.08887
0.009	-40.2832
0.0095	-38.36975
0.01	-31.4209
0.0105	-26.68762
0.011	-26.08337
0.0115	-13.09204
0.012	-7.35168
0.0125	-1.61133
0.013	-1.71204
0.0135	-0.50354
0.014	2.71912
0.0145	4.43115
0.015	2.81982
0.0155	1.3092
0.016	1.40991
0.0165	-4.43115
0.017	3.02124
0.0175	5.63965
0.018	5.94177
0.0185	3.12195
0.019	3.22266
0.0195	0.40283
0.02	-0.20142
0.0205	5.43823
0.021	2.71912
0.0215	1.61133
0.022	3.22266
0.0225	-0.40283
0.023	12.5885
0.0235	15.91187
0.024	18.32886
0.0245	21.04797
0.025	25.27771
0.0255	29.00391
0.026	32.52869
0.0265	39.98108
0.027	38.47046
0.0275	38.57117
0.028	39.67896
0.0285	40.48462
0.029	45.62073
0.0295	48.44055
0.03	50.15259
0.0305	54.88586
0.031	56.79932
0.0315	56.09436
0.032	54.98657
0.0325	53.67737
0.033	53.17383
0.0335	53.87878
0.034	51.05896
0.0345	46.72852
0.035	40.98816
0.0355	27.89612
0.036	32.93152
0.0365	26.58691
0.037	25.88196
0.0375	22.15576
0.038	16.61682
0.0385	10.37292
0.039	3.52478
0.0395	5.23682
0.04	-5.43823
0.0405	-5.84106
0.041	-6.74744
0.0415	-17.22107
0.042	-16.81824
0.0425	-20.94727
0.043	-27.29187
0.0435	-18.93311
0.044	-13.797
0.0445	-18.22815
0.045	-24.97559
0.0455	-21.24939
0.046	-12.18567
0.0465	-17.12036
0.047	-11.58142
0.0475	-15.91187
0.048	-10.47363
0.0485	-16.91895
0.049	-19.63806
0.0495	-9.06372
0.05	9.26514
0.0505	18.32886
0.051	26.3855
0.0515	23.36426
0.052	23.36426
0.0525	32.12585
0.053	29.20532
0.0535	30.11169
0.054	29.60815
0.0545	24.37134
0.055	24.16992
0.0555	30.61523
0.056	23.16284
0.0565	25.27771
0.057	30.41382
0.0575	29.50745
0.058	27.09045
0.0585	26.88904
0.059	21.55151
0.0595	13.49487
0.06	9.97009
0.0605	3.92761
0.061	-10.67505
0.0615	-18.93311
0.062	-22.76001
0.0625	-28.29895
0.063	-26.68762
0.0635	-26.18408
0.064	-26.68762
0.0645	-21.24939
0.065	-23.46497
0.0655	-16.51611
0.066	-9.76868
0.0665	-15.30762
0.067	-10.47363
0.0675	-4.93469
0.068	-7.04956
0.0685	-3.62549
0.069	-1.00708
0.0695	-4.22974
0.07	-1.00708
0.0705	-0.10071
0.071	2.92053
0.0715	0.20142
0.072	1.61133
0.0725	1.91345
0.073	12.99133
0.0735	13.49487
0.074	14.30054
0.0745	11.07788
0.075	14.09912
0.0755	14.50195
0.076	12.68921
0.0765	17.6239
0.077	13.89771
0.0775	14.70337
0.078	18.22815
0.0785	13.39417
0.079	11.17859
0.0795	13.69629
0.08	11.58142
0.0805	9.56726
0.081	11.58142
0.0815	7.65381
0.082	5.84106
0.0825	-1.2085
0.083	1.40991
0.0835	1.81274
0.084	5.33752
0.0845	3.52478
0.085	7.75452
0.0855	10.77576
0.086	14.40125
0.0865	5.94177
0.087	6.14319
0.0875	6.74744
0.088	3.92761
0.0885	6.14319
0.089	4.02832
0.0895	1.2085
0.09	-2.31628
0.0905	5.13611
0.091	10.17151
0.0915	6.44531
0.092	5.53894
0.0925	6.14319
0.093	-2.01416
0.0935	-4.63257
0.094	-7.95593
0.0945	-17.12036
0.095	-16.71753
0.0955	-26.48621
0.096	-17.72461
0.0965	-21.14868
0.097	-24.27063
0.0975	-22.96143
0.098	-23.66638
0.0985	-25.78125
0.099	-29.00391
0.0995	-26.78833
0.1	-15.40833
0.1005	-19.03381
0.101	-18.12744
0.1015	-10.77576
0.102	-9.86938
0.1025	-0.20142
0.103	3.52478
0.1035	7.95593
0.104	10.17151
0.1045	15.81116
0.105	15.91187
0.1055	15.60974
0.106	15.20691
0.1065	20.94727
0.107	28.50037
0.1075	31.72302
0.108	28.39966
0.1085	31.4209
0.109	33.83789
0.1095	33.53577
0.11	30.2124
0.1105	33.53577
0.111	27.29187
0.1115	26.98975
0.112	17.52319
0.1125	19.63806
0.113	14.30054
0.1135	15.60974
0.114	9.16443
0.1145	8.96301
0.115	6.2439
0.1155	-7.85522
0.116	7.75452
0.1165	4.02832
0.117	1.2085
0.1175	-2.21558
0.118	-0.70496
0.1185	-3.42407
0.119	-1.40991
0.1195	-5.53894
0.12	-13.09204
0.1205	-16.3147
0.121	-7.35168
0.1215	-4.83398
0.122	5.0354
0.1225	7.25098
0.123	8.05664
0.1235	15.50903
0.124	18.63098
0.1245	21.95435
0.125	45.11719
0.1255	76.43738
0.126	94.16199
0.1265	99.19739
0.127	96.7804
0.1275	87.31384
0.128	74.32251
0.1285	59.41772
0.129	41.89453
0.1295	20.94727
0.13	9.66797
0.1305	-5.33752
0.131	-16.91895
0.1315	-29.80957
0.132	-35.95276
0.1325	-35.04639
0.133	-39.77966
0.1335	-47.23206
0.134	-56.69861
0.1345	-56.90002
0.135	-54.18091
0.1355	-51.76392
0.136	-50.65613
0.1365	-47.63489
0.137	-42.39807
0.1375	-45.52002
0.138	-41.4917
0.1385	-32.93152
0.139	-32.12585
0.1395	-19.33594
0.14	-14.30054
0.1405	-6.64673
0.141	4.83398
0.1415	14.30054
0.142	21.14868
0.1425	26.98975
0.143	26.3855
0.1435	20.74585
0.144	17.82532
0.1445	17.52319
0.145	18.12744
0.1455	13.49487
0.146	8.15735
0.1465	8.45947
0.147	20.84656
0.1475	33.53577
0.148	34.84497
0.1485	35.14709
0.149	34.94568
0.1495	32.02515
0.15	32.42798
0.1505	28.39966
0.151	29.80957
0.1515	28.70178
0.152	32.12585
0.1525	20.24231
0.153	18.63098
0.1535	20.84656
0.154	14.30054
0.1545	7.65381
0.155	-5.84106
0.1555	-1.2085
0.156	-1.10779
0.1565	5.53894
0.157	14.19983
0.1575	59.01489
0.158	80.26428
0.1585	80.16357
0.159	67.97791
0.1595	43.00232
0.16	29.10461
0.1605	4.93469
0.161	-20.34302
0.1615	-38.67188
0.162	-68.38074
0.1625	-92.65137
0.163	-98.19031
0.1635	-103.125
0.164	-88.72375
0.1645	-69.79065
0.165	-52.16675
0.1655	-35.14709
0.166	-15.71045
0.1665	2.71912
0.167	9.97009
0.1675	22.76001
0.168	17.6239
0.1685	14.30054
0.169	12.99133
0.1695	21.14868
0.17	32.22656
0.1705	38.26904
0.171	42.19666
0.1715	34.94568
0.172	22.45789
0.1725	12.38708
0.173	0.60425
0.1735	-21.14868
0.174	-52.97241
0.1745	-58.41064
0.175	-81.37207
0.1755	-82.78198
0.176	-76.53809
0.1765	-71.30127
0.177	-55.3894
0.1775	-40.98816
0.178	-25.177
0.1785	22.25647
0.179	79.2572
0.1795	97.38464
0.18	93.75916
0.1805	81.87561
0.181	72.61047
0.1815	55.79224
0.182	40.58533
0.1825	21.45081
0.183	16.3147
0.1835	1.51062
0.184	-9.06372
0.1845	-10.87646
0.185	-13.09204
0.1855	-0.60425
0.186	3.22266
0.1865	14.50195
0.187	20.1416
0.1875	33.03223
0.188	37.36267
0.1885	31.4209
0.189	33.43506
0.1895	26.28479
0.19	26.18408
0.1905	21.65222
0.191	20.24231
0.1915	16.3147
0.192	12.68921
0.1925	8.96301
0.193	7.45239
0.1935	12.5885
0.194	12.08496
0.1945	18.73169
0.195	23.16284
0.1955	25.47913
0.196	36.85913
0.1965	40.88745
0.197	52.26746
0.1975	46.62781
0.198	44.31152
0.1985	52.8717
0.199	75.02747
0.1995	95.67261
0.2	108.26111
0.2005	110.87952
0.201	112.08801
0.2015	98.89526
0.202	95.5719
0.2025	83.08411
0.203	74.72534
0.2035	63.64746
0.204	46.82922
0.2045	36.4563
0.205	24.16992
0.2055	20.84656
0.206	15.30762
0.2065	15.30762
0.207	11.07788
0.2075	6.2439
0.208	0.90637
0.2085	-15.60974
0.209	-30.91736
0.2095	-45.2179
0.21	-54.48303
0.2105	-66.16516
0.211	-72.20764
0.2115	-81.17065
0.212	-84.69543
0.2125	-85.60181
0.213	-83.18481
0.2135	-76.13525
0.214	-72.50977
0.2145	-64.85596
0.215	-64.85596
0.2155	-59.01489
0.216	-61.12976
0.2165	-59.01489
0.217	-55.49011
0.2175	-48.33984
0.218	-32.12585
0.2185	-28.09753
0.219	-28.29895
0.2195	-22.25647
0.22	-23.96851
0.2205	-22.35718
0.221	-15.40833
0.2215	-12.99133
0.222	-3.7262
0.2225	-7.65381
0.223	-5.43823
0.2235	-7.04956
0.224	-4.22974
0.2245	-2.11487
0.225	0.10071
0.2255	2.21558
0.226	5.23682
0.2265	7.15027
0.227	9.36584
0.2275	2.92053
0.228	2.01416
0.2285	6.2439
0.229	7.15027
0.2295	6.64673
0.23	7.5531
0.2305	17.92603
0.231	18.63098
0.2315	20.54443
0.232	22.6593
0.2325	22.76001
0.233	13.49487
0.2335	14.90479
0.234	17.22107
0.2345	16.41541
0.235	15.81116
0.2355	9.97009
0.236	12.78992
0.2365	15.50903
0.237	16.01257
0.2375	16.91895
0.238	12.68921
0.2385	7.95593
0.239	13.39417
0.2395	11.07788
0.24	6.94885
0.2405	7.15027
0.241	4.83398
0.2415	8.15735
0.242	8.25806
0.2425	7.45239
0.243	6.04248
0.2435	6.84814
0.244	4.12903
0.2445	8.35876
0.245	8.8623
0.2455	5.23682
0.246	5.43823
0.2465	7.04956
0.247	6.64673
0.2475	-0.20142
0.248	0.50354
0.2485	-3.92761
0.249	-2.81982
0.2495	-11.38
0.25	-0.70496
0.2505	11.38
0.251	13.99841
0.2515	11.17859
0.252	11.88354
0.2525	23.66638
0.253	51.46179
0.2535	62.74109
0.254	51.5625
0.2545	26.18408
0.255	12.99133
0.2555	-15.40833
0.256	-29.10461
0.2565	-54.48303
0.257	-56.29578
0.2575	-60.72693
0.258	-59.31702
0.2585	-54.78516
0.259	-45.92285
0.2595	-34.24072
0.26	-24.77417
0.2605	-12.18567
0.261	-5.84106
0.2615	11.2793
0.262	15.30762
0.2625	17.92603
0.263	20.34302
0.2635	29.20532
0.264	26.28479
0.2645	24.06921
0.265	18.63098
0.2655	14.90479
0.266	7.85522
0.2665	13.49487
0.267	17.52319
0.2675	22.6593
0.268	9.36584
0.2685	7.15027
0.269	38.47046
0.2695	90.63721
0.27	108.86536
0.2705	97.98889
0.271	74.2218
0.2715	44.0094
0.272	6.44531
0.2725	-53.77808
0.273	-104.73633
0.2735	-121.35315
0.274	-57.50427
0.2745	8.56018
0.275	48.44055
0.2755	42.19666
0.276	6.14319
0.2765	-21.85364
0.277	-60.3241
0.2775	-100.30518
0.278	-79.35791
0.2785	-77.04163
0.279	-81.87561
0.2795	-111.18164
0.28	-138.47351
0.2805	-156.29883
0.281	-152.57263
0.2815	-140.78979
0.282	-125.28076
0.2825	-107.65686
0.283	-87.91809
0.2835	-68.48145
0.284	-44.11011
0.2845	-23.56567
0.285	1.71204
0.2855	33.73718
0.286	64.55383
0.2865	85.29968
0.287	93.96057
0.2875	102.11792
0.288	115.91492
0.2885	125.58289
0.289	125.68359
0.2895	134.74731
0.29	138.17139
0.2905	131.32324
0.291	125.58289
0.2915	117.32483
0.292	109.77173
0.2925	106.34766
0.293	98.0896
0.2935	92.65137
0.294	84.39331
0.2945	76.43738
0.295	71.40198
0.2955	62.8418
0.296	54.48303
0.2965	48.13843
0.297	43.10303
0.2975	41.69312
0.298	34.64355
0.2985	27.59399
0.299	24.87488
0.2995	23.06213
0.3	18.22815
0.3005	19.13452
0.301	21.04797
0.3015	19.33594
0.302	15.91187
0.3025	17.6239
0.303	17.42249
0.3035	16.71753
0.304	18.73169
0.3045	16.71753
0.305	14.09912
0.3055	16.51611
0.306	11.88354
0.3065	8.05664
0.307	9.97009
0.3075	1.61133
0.308	-0.20142
0.3085	-8.05664
0.309	-7.65381
0.3095	-7.5531
0.31	-13.39417
0.3105	-14.40125
0.311	-13.797
0.3115	-21.24939
0.312	-19.23523
0.3125	-14.70337
0.313	-14.50195
0.3135	-15.1062
0.314	-13.19275
0.3145	-17.42249
0.315	-12.78992
0.3155	-16.81824
0.316	-17.42249
0.3165	-15.40833
0.317	-12.99133
0.3175	-12.08496
0.318	-10.67505
0.3185	-7.65381
0.319	-7.25098
0.3195	-6.54602
0.32	-5.13611
0.3205	1.91345
0.321	6.3446
0.3215	10.57434
0.322	9.26514
0.3225	5.84106
0.323	7.75452
0.3235	5.84106
0.324	5.53894
0.3245	9.26514
0.325	-1.40991
0.3255	3.42407
0.326	6.94885
0.3265	0.40283
0.327	1.00708
0.3275	-3.42407
0.328	2.41699
0.3285	-3.92761
0.329	-9.86938
0.3295	-8.35876
0.33	-10.77576
0.3305	-16.71753
0.331	-9.26514
0.3315	-10.97717
0.332	-9.66797
0.3325	-4.83398
0.333	0.30212
0.3335	1.40991
0.334	10.87646
0.3345	17.32178
0.335	22.35718
0.3355	22.15576
0.336	21.65222
0.3365	22.45789
0.337	11.78284
0.3375	14.30054
0.338	15.00549
0.3385	13.797
0.339	4.83398
0.3395	9.46655
0.34	2.61841
0.3405	1.40991
0.341	0.60425
0.3415	-6.54602
0.342	-1.81274
0.3425	-3.02124
0.343	1.10779
0.3435	1.10779
0.344	-1.40991
0.3445	-2.21558
0.345	-5.53894
0.3455	-11.38
0.346	-12.48779
0.3465	-16.11328
0.347	-16.11328
0.3475	-11.68213
0.348	-12.48779
0.3485	-9.76868
0.349	-2.31628
0.3495	-2.81982
0.35	2.81982
0.3505	4.22974
0.351	4.93469
0.3515	2.61841
0.352	2.92053
0.3525	0.80566
0.353	2.92053
0.3535	2.61841
0.354	2.11487
0.3545	0.50354
0.355	3.8269
0.3555	4.83398
0.356	2.11487
0.3565	2.81982
0.357	8.45947
0.3575	10.77576
0.358	13.39417
0.3585	11.48071
0.359	6.44531
0.3595	8.35876
0.36	7.25098
0.3605	3.42407
0.361	17.92603
0.3615	53.27454
0.362	75.02747
0.3625	79.86145
0.363	73.81897
0.3635	55.18799
0.364	32.42798
0.3645	9.56726
0.365	-20.94727
0.3655	-34.54285
0.366	-48.44055
0.3665	-51.86462
0.367	-52.16675
0.3675	-49.54834
0.368	-38.06763
0.3685	-30.2124
0.369	-27.79541
0.3695	-15.81116
0.37	-3.42407
0.3705	-9.46655
0.371	-4.43115
0.3715	-2.71912
0.372	1.81274
0.3725	5.74036
0.373	4.22974
0.3735	9.46655
0.374	-2.21558
0.3745	-6.3446
0.375	3.02124
0.3755	3.32336
0.376	6.64673
0.3765	2.21558
0.377	12.08496
0.3775	9.66797
0.378	13.69629
0.3785	12.78992
0.379	11.17859
0.3795	5.23682
0.38	2.5177
0.3805	1.61133
0.381	-1.3092
0.3815	4.73328
0.382	3.92761
0.3825	2.11487
0.383	0.30212
0.3835	-2.01416
0.384	0.40283
0.3845	-0.20142
0.385	-2.21558
0.3855	-1.2085
0.386	3.52478
0.3865	-4.93469
0.387	-4.33044
0.3875	0.40283
0.388	6.84814
0.3885	6.74744
0.389	3.62549
0.3895	2.01416
0.39	9.56726
0.3905	6.54602
0.391	6.74744
0.3915	6.74744
0.392	5.74036
0.3925	7.85522
0.393	10.47363
0.3935	9.36584
0.394	14.40125
0.3945	12.08496
0.395	8.7616
0.3955	10.17151
0.396	8.25806
0.3965	8.05664
0.397	11.78284
0.3975	10.57434
0.398	7.5531
0.3985	13.89771
0.399	13.69629
0.3995	11.88354
0.4	16.11328
0.4005	9.46655
0.401	4.22974
0.4015	4.63257
0.402	0.50354
0.4025	-3.22266
0.403	-3.92761
0.4035	-0.80566
0.404	3.62549
0.4045	6.74744
0.405	-7.85522
0.4055	-12.18567
0.406	-3.52478
0.4065	-3.22266
0.407	-13.19275
0.4075	-17.22107
0.408	-24.16992
0.4085	-26.48621
0.409	-14.30054
0.4095	30.81665
0.41	74.42322
0.4105	81.97632
0.411	80.76782
0.4115	69.58923
0.412	48.74268
0.4125	31.11877
0.413	4.12903
0.4135	-4.33044
0.414	-21.3501
0.4145	-42.09595
0.415	-51.26038
0.4155	-57.60498
0.416	-50.05188
0.4165	-39.07471
0.417	-26.98975
0.4175	-12.08496
0.418	-2.5177
0.4185	6.94885
0.419	3.8269
0.4195	-2.81982
0.42	0.90637
0.4205	8.05664
0.421	15.1062
0.4215	17.22107
0.422	24.37134
0.4225	22.76001
0.423	31.62231
0.4235	32.83081
0.424	32.32727
0.4245	34.34143
0.425	25.37842
0.4255	23.56567
0.426	21.85364
0.4265	25.47913
0.427	24.37134
0.4275	17.12036
0.428	14.90479
0.4285	9.66797
0.429	9.06372
0.4295	15.60974
0.43	11.98425
0.4305	11.17859
0.431	14.30054
0.4315	14.90479
0.432	14.19983
0.4325	18.32886
0.433	22.96143
0.4335	22.45789
0.434	22.45789
0.4345	21.14868
0.435	28.19824
0.4355	24.57275
0.436	23.8678
0.4365	19.94019
0.437	21.55151
0.4375	21.14868
0.438	18.53027
0.4385	13.99841
0.439	13.89771
0.4395	8.45947
0.44	6.3446
0.4405	9.66797
0.441	9.26514
0.4415	2.81982
0.442	-4.02832
0.4425	0.10071
0.443	-7.15027
0.4435	-13.59558
0.444	-13.797
0.4445	-21.45081
0.445	-21.3501
0.4455	-29.70886
0.446	-25.88196
0.4465	-22.45789
0.447	-32.83081
0.4475	-26.78833
0.448	-22.35718
0.4485	-20.54443
0.449	-17.52319
0.4495	-12.18567
0.45	-14.09912
0.4505	-7.85522
0.451	-9.97009
0.4515	-8.8623
0.452	-9.86938
0.4525	-5.74036
0.453	-2.5177
0.4535	-9.76868
0.454	-12.28638
0.4545	-7.04956
0.455	-2.71912
0.4555	-2.5177
0.456	-8.8623
0.4565	-0.90637
0.457	-4.63257
0.4575	-7.75452
0.458	-2.11487
0.4585	-4.63257
0.459	-1.10779
0.4595	1.40991
0.46	1.91345
0.4605	-1.81274
0.461	0.90637
0.4615	3.62549
0.462	3.02124
0.4625	0.70496
0.463	-2.41699
0.4635	-0.20142
0.464	2.01416
0.4645	-0.10071
0.465	2.5177
0.4655	3.8269
0.466	3.02124
0.4665	-4.02832
0.467	-1.51062
0.4675	4.12903
0.468	6.3446
0.4685	4.53186
0.469	9.56726
0.4695	8.25806
0.47	3.7262
0.4705	7.35168
0.471	9.46655
0.4715	9.76868
0.472	8.25806
0.4725	12.18567
0.473	13.59558
0.4735	11.2793
0.474	7.85522
0.4745	6.2439
0.475	1.2085
0.4755	5.43823
0.476	8.45947
0.4765	4.43115
0.477	6.14319
0.4775	3.92761
0.478	6.64673
0.4785	7.04956
0.479	2.31628
0.4795	6.14319
0.48	7.25098
0.4805	0.10071
0.481	-0.50354
0.4815	-1.10779
0.482	5.13611
0.4825	0
0.483	-1.00708
0.4835	-2.61841
0.484	0.30212
0.4845	-2.61841
0.485	-5.43823
0.4855	-0.10071
0.486	-1.91345
0.4865	3.42407
0.487	4.53186
0.4875	0.70496
0.488	2.92053
0.4885	4.53186
0.489	4.33044
0.4895	6.04248
0.49	13.49487
0.4905	19.23523
0.491	22.86072
0.4915	32.42798
0.492	33.9386
0.4925	33.83789
0.493	44.0094
0.4935	38.974
0.494	37.46338
0.4945	35.85205
0.495	42.8009
0.4955	34.94568
0.496	31.92444
0.4965	32.7301
0.497	24.77417
0.4975	26.98975
0.498	29.00391
0.4985	28.50037
0.499	21.04797
0.4995	16.41541
0.5	1.40991
0.5005	-2.92053
0.501	-5.23682
0.5015	-17.72461
0.502	-31.32019
0.5025	-31.21948
0.503	-37.86621
0.5035	-36.35559
0.504	-39.37683
0.5045	-42.7002
0.505	-46.42639
0.5055	-44.11011
0.506	-45.2179
0.5065	-41.69312
0.507	-33.53577
0.5075	-25.98267
0.508	-18.02673
0.5085	-8.05664
0.509	-2.81982
0.5095	2.92053
0.51	12.78992
0.5105	22.76001
0.511	25.57983
0.5115	27.49329
0.512	26.18408
0.5125	28.39966
0.513	29.80957
0.5135	32.93152
0.514	36.75842
0.5145	34.74426
0.515	30.51453
0.5155	24.27063
0.516	27.49329
0.5165	18.22815
0.517	18.63098
0.5175	13.49487
0.518	5.84106
0.5185	-3.52478
0.519	-4.33044
0.5195	-13.19275
0.52	-21.85364
0.5205	-27.6947
0.521	-39.37683
0.5215	-41.39099
0.522	-43.20374
0.5225	-51.96533
0.523	-54.68445
0.5235	-50.354
0.524	-45.72144
0.5245	-38.47046
0.525	-29.70886
0.5255	-22.96143
0.526	-17.12036
0.5265	-9.86938
0.527	-0.40283
0.5275	0.80566
0.528	9.46655
0.5285	13.19275
0.529	10.87646
0.5295	16.11328
0.53	17.01965
0.5305	19.83948
0.531	18.53027
0.5315	20.84656
0.532	25.98267
0.5325	22.76001
0.533	30.11169
0.5335	29.20532
0.534	32.22656
0.5345	21.55151
0.535	17.92603
0.5355	6.94885
0.536	6.14319
0.5365	0.30212
0.537	-5.23682
0.5375	-11.07788
0.538	-8.56018
0.5385	-4.33044
0.539	0.80566
0.5395	4.53186
0.54	15.40833
0.5405	16.11328
0.541	15.60974
0.5415	24.47205
0.542	25.68054
0.5425	22.96143
0.543	23.26355
0.5435	23.26355
0.544	25.88196
0.5445	31.52161
0.545	32.52869
0.5455	26.78833
0.546	23.56567
0.5465	25.177
0.547	18.12744
0.5475	17.01965
0.548	17.92603
0.5485	11.68213
0.549	8.66089
0.5495	4.12903
0.55	2.41699
0.5505	6.94885
0.551	11.98425
0.5515	12.68921
0.552	8.56018
0.5525	2.81982
0.553	2.92053
0.5535	1.91345
0.554	-4.73328
0.5545	-5.13611
0.555	-12.68921
0.5555	-9.16443
0.556	-0.60425
0.5565	2.41699
0.557	10.27222
0.5575	13.19275
0.558	16.21399
0.5585	11.48071
0.559	13.19275
0.5595	16.81824
0.56	8.66089
0.5605	1.51062
0.561	-4.12903
0.5615	-6.94885
0.562	-14.90479
0.5625	-23.26355
0.563	-27.6947
0.5635	-24.87488
0.564	-17.01965
0.5645	-16.91895
0.565	-5.23682
0.5655	-2.01416
0.566	4.93469
0.5665	8.05664
0.567	5.94177
0.5675	8.8623
0.568	24.16992
0.5685	31.72302
0.569	37.46338
0.5695	38.87329
0.57	43.20374
0.5705	50.55542
0.571	54.28162
0.5715	55.08728
0.572	54.98657
0.5725	43.50586
0.573	37.86621
0.5735	22.96143
0.574	3.52478
0.5745	-2.5177
0.575	-7.95593
0.5755	-5.13611
0.576	-5.13611
0.5765	0.10071
0.577	5.63965
0.5775	6.04248
0.578	5.84106
0.5785	1.91345
0.579	0
0.5795	-18.8324
0.58	-20.04089
0.5805	-30.2124
0.581	-31.82373
0.5815	-31.52161
0.582	-39.17542
0.5825	-36.4563
0.583	-38.26904
0.5835	-39.07471
0.584	-37.46338
0.5845	-30.31311
0.585	-19.43665
0.5855	-11.58142
0.586	-4.73328
0.5865	6.74744
0.587	6.84814
0.5875	2.5177
0.588	5.53894
0.5885	2.5177
0.589	3.22266
0.5895	5.23682
0.59	17.72461
0.5905	27.79541
0.591	24.87488
0.5915	20.74585
0.592	19.73877
0.5925	9.46655
0.593	3.42407
0.5935	-8.7616
0.594	-13.19275
0.5945	-17.12036
0.595	-11.2793
0.5955	-7.5531
0.596	-2.61841
0.5965	-0.50354
0.597	5.53894
0.5975	12.48779
0.598	15.71045
0.5985	12.99133
0.599	14.50195
0.5995	16.01257
0.6	18.63098
0.6005	16.81824
0.601	21.24939
0.6015	16.51611
0.602	23.36426
0.6025	18.8324
0.603	21.45081
0.6035	15.60974
0.604	24.37134
0.6045	30.11169
0.605	41.89453
0.6055	44.61365
0.606	49.85046
0.6065	49.95117
0.607	45.52002
0.6075	48.74268
0.608	46.22498
0.6085	43.90869
0.609	47.53418
0.6095	39.57825
0.61	38.06763
0.6105	36.35559
0.611	34.24072
0.6115	27.79541
0.612	34.24072
0.6125	30.61523
0.613	26.98975
0.6135	17.01965
0.614	13.39417
0.6145	3.42407
0.615	2.71912
0.6155	6.3446
0.616	7.04956
0.6165	7.04956
0.617	15.00549
0.6175	16.21399
0.618	15.50903
0.6185	17.52319
0.619	15.20691
0.6195	8.35876
0.62	-1.91345
0.6205	-2.5177
0.621	-4.22974
0.6215	-10.27222
0.622	-10.77576
0.6225	-15.1062
0.623	-32.93152
0.6235	-35.14709
0.624	-30.91736
0.6245	-35.04639
0.625	-32.7301
0.6255	-42.90161
0.626	-39.77966
0.6265	-43.10303
0.627	-35.04639
0.6275	-27.49329
0.628	-29.40674
0.6285	-19.13452
0.629	-19.73877
0.6295	-16.11328
0.63	-11.2793
0.6305	-9.46655
0.631	-6.04248
0.6315	-0.40283
0.632	-1.51062
0.6325	3.42407
0.633	11.38
0.6335	11.07788
0.634	10.27222
0.6345	20.04089
0.635	11.98425
0.6355	13.59558
0.636	16.51611
0.6365	25.98267
0.637	24.87488
0.6375	29.30603
0.638	33.73718
0.6385	32.12585
0.639	27.59399
0.6395	24.06921
0.64	22.76001
0.6405	29.80957
0.641	31.11877
0.6415	35.2478
0.642	31.92444
0.6425	40.58533
0.643	41.18958
0.6435	47.93701
0.644	39.37683
0.6445	31.32019
0.645	30.51453
0.6455	29.60815
0.646	22.76001
0.6465	15.30762
0.647	9.06372
0.6475	6.44531
0.648	-2.61841
0.6485	-12.28638
0.649	-14.70337
0.6495	-22.55859
0.65	-29.20532
0.6505	-29.00391
0.651	-24.87488
0.6515	-20.94727
0.652	-20.54443
0.6525	-17.22107
0.653	-19.33594
0.6535	-11.58142
0.654	-10.57434
0.6545	-7.35168
0.655	-1.61133
0.6555	-2.61841
0.656	-0.10071
0.6565	5.33752
0.657	7.15027
0.6575	2.5177
0.658	2.61841
0.6585	1.00708
0.659	12.38708
0.6595	5.43823
0.66	7.15027
0.6605	5.63965
0.661	6.44531
0.6615	4.02832
0.662	2.81982
0.6625	8.66089
0.663	5.94177
0.6635	7.35168
0.664	5.33752
0.6645	7.5531
0.665	9.76868
0.6655	7.25098
0.666	7.35168
0.6665	6.64673
0.667	5.0354
0.6675	11.68213
0.668	10.97717
0.6685	17.72461
0.669	14.50195
0.6695	16.21399
0.67	20.24231
0.6705	21.04797
0.671	21.04797
0.6715	22.35718
0.672	24.57275
0.6725	30.51453
0.673	35.14709
0.6735	32.32727
0.674	31.62231
0.6745	37.36267
0.675	39.37683
0.6755	44.91577
0.676	36.35559
0.6765	39.07471
0.677	35.65063
0.6775	35.14709
0.678	30.51453
0.6785	28.19824
0.679	28.80249
0.6795	29.80957
0.68	23.06213
0.6805	20.1416
0.681	17.32178
0.6815	10.87646
0.682	8.35876
0.6825	3.8269
0.683	4.73328
0.6835	7.25098
0.684	6.54602
0.6845	0
0.685	-4.02832
0.6855	-2.61841
0.686	-10.0708
0.6865	-9.76868
0.687	-9.06372
0.6875	-13.29346
0.688	-11.2793
0.6885	-11.2793
0.689	-13.19275
0.6895	-6.04248
0.69	-12.18567
0.6905	-13.69629
0.691	-11.88354
0.6915	-15.81116
0.692	-12.78992
0.6925	-13.797
0.693	-18.32886
0.6935	-23.56567
0.694	-24.57275
0.6945	-19.33594
0.695	-23.8678
0.6955	-20.04089
0.696	-13.99841
0.6965	-6.84814
0.697	-5.53894
0.6975	0.40283
0.698	-0.40283
0.6985	2.21558
0.699	1.00708
0.6995	0.80566
0.7	5.63965
0.7005	8.66089
0.701	9.86938
0.7015	6.54602
0.702	7.04956
0.7025	8.7616
0.703	7.04956
0.7035	3.42407
0.704	6.64673
0.7045	10.17151
0.705	11.98425
0.7055	12.68921
0.706	18.73169
0.7065	22.35718
0.707	21.75293
0.7075	26.88904
0.708	19.23523
0.7085	24.27063
0.709	17.42249
0.7095	18.53027
0.71	19.43665
0.7105	15.60974
0.711	18.42957
0.7115	8.66089
0.712	7.85522
0.7125	13.29346
0.713	16.3147
0.7135	8.15735
0.714	8.96301
0.7145	-2.01416
0.715	-1.40991
0.7155	-8.45947
0.716	-9.06372
0.7165	-8.35876
0.717	-13.29346
0.7175	-20.64514
0.718	-13.49487
0.7185	-12.89062
0.719	-10.97717
0.7195	-7.04956
0.72	-4.12903
0.7205	-0.30212
0.721	5.43823
0.7215	3.92761
0.722	9.97009
0.7225	13.19275
0.723	13.49487
0.7235	14.30054
0.724	16.01257
0.7245	20.84656
0.725	16.71753
0.7255	16.41541
0.726	14.19983
0.7265	9.26514
0.727	6.74744
0.7275	11.58142
0.728	6.14319
0.7285	7.35168
0.729	10.0708
0.7295	12.38708
0.73	18.22815
0.7305	24.06921
0.731	18.32886
0.7315	23.8678
0.732	24.87488
0.7325	27.09045
0.733	22.35718
0.7335	25.88196
0.734	28.29895
0.7345	21.24939
0.735	22.6593
0.7355	17.12036
0.736	10.47363
0.7365	1.81274
0.737	-10.17151
0.7375	-15.30762
0.738	-10.67505
0.7385	-12.5885
0.739	-16.61682
0.7395	-22.15576
0.74	-25.57983
0.7405	-29.91028
0.741	-36.15417
0.7415	-26.48621
0.742	-19.94019
0.7425	-19.73877
0.743	-11.48071
0.7435	-7.65381
0.744	-9.26514
0.7445	-5.23682
0.745	-5.13611
0.7455	2.01416
0.746	7.75452
0.7465	7.75452
0.747	7.04956
0.7475	9.76868
0.748	7.65381
0.7485	10.27222
0.749	10.67505
0.7495	13.09204
0.75	15.50903
0.7505	17.92603
0.751	16.51611
0.7515	18.63098
0.752	11.68213
0.7525	16.41541
0.753	12.99133
0.7535	17.92603
0.754	13.59558
0.7545	5.43823
0.755	2.31628
0.7555	0.90637
0.756	7.25098
0.7565	0.40283
0.757	2.41699
0.7575	7.35168
0.758	9.46655
0.7585	6.44531
0.759	10.57434
0.7595	14.50195
0.76	10.97717
0.7605	10.37292
0.761	15.60974
0.7615	20.54443
0.762	15.81116
0.7625	13.29346
0.763	17.82532
0.7635	24.77417
0.764	25.07629
0.7645	21.75293
0.765	19.63806
0.7655	15.50903
0.766	11.17859
0.7665	14.80408
0.767	13.19275
0.7675	7.25098
0.768	12.18567
0.7685	10.17151
0.769	11.58142
0.7695	3.42407
0.77	3.42407
0.7705	2.92053
0.771	-3.32336
0.7715	-2.81982
0.772	-2.11487
0.7725	-2.21558
0.773	-3.62549
0.7735	-4.73328
0.774	1.10779
0.7745	0.40283
0.775	-0.90637
0.7755	-4.83398
0.776	-4.33044
0.7765	-1.2085
0.777	-1.51062
0.7775	6.2439
0.778	6.14319
0.7785	1.40991
0.779	-0.50354
0.7795	-1.51062
0.78	-7.04956
0.7805	-7.15027
0.781	-15.91187
0.7815	-22.86072
0.782	-25.98267
0.7825	-28.80249
0.783	-20.24231
0.7835	-16.3147
0.784	-11.68213
0.7845	-10.77576
0.785	-6.44531
0.7855	-3.02124
0.786	0
0.7865	3.92761
0.787	3.22266
0.7875	9.56726
0.788	6.54602
0.7885	9.26514
0.789	8.45947
0.7895	17.12036
0.79	19.63806
0.7905	18.73169
0.791	30.31311
0.7915	28.80249
0.792	31.62231
0.7925	34.54285
0.793	36.75842
0.7935	38.47046
0.794	37.7655
0.7945	38.36975
0.795	37.66479
0.7955	32.02515
0.796	30.81665
0.7965	31.62231
0.797	29.20532
0.7975	31.92444
0.798	16.61682
0.7985	13.89771
0.799	0.20142
0.7995	-6.84814
0.8	-6.94885
0.8005	-4.63257
0.801	-9.97009
0.8015	-11.68213
0.802	-14.30054
0.8025	-9.36584
0.803	-3.12195
0.8035	-4.93469
0.804	10.0708
0.8045	12.99133
0.805	9.76868
0.8055	12.5885
0.806	11.07788
0.8065	19.13452
0.807	10.27222
0.8075	11.98425
0.808	7.95593
0.8085	3.42407
0.809	-2.5177
0.8095	-0.10071
0.81	1.61133
0.8105	-1.00708
0.811	-3.42407
0.8115	-0.90637
0.812	-5.13611
0.8125	-8.15735
0.813	-6.14319
0.8135	-13.797
0.814	-13.49487
0.8145	-8.8623
0.815	-2.81982
0.8155	-5.13611
0.816	0.20142
0.8165	-0.30212
0.817	-5.53894
0.8175	4.43115
0.818	-4.73328
0.8185	-2.5177
0.819	0.30212
0.8195	1.2085
0.82	1.81274
0.8205	-0.90637
0.821	2.01416
0.8215	-1.3092
0.822	0.70496
0.8225	3.12195
0.823	4.53186
0.8235	7.75452
0.824	4.22974
0.8245	9.06372
0.825	3.8269
0.8255	5.23682
0.826	8.05664
0.8265	3.42407
0.827	2.61841
0.8275	7.95593
0.828	8.56018
0.8285	9.06372
0.829	5.0354
0.8295	7.5531
0.83	11.2793
0.8305	11.68213
0.831	6.04248
0.8315	10.77576
0.832	6.54602
0.8325	7.25098
0.833	1.3092
0.8335	4.02832
0.834	8.25806
0.8345	4.73328
0.835	3.92761
0.8355	12.99133
0.836	15.00549
0.8365	11.78284
0.837	18.12744
0.8375	17.82532
0.838	21.85364
0.8385	23.96851
0.839	21.75293
0.8395	24.27063
0.84	31.72302
0.8405	28.39966
0.841	31.82373
0.8415	33.73718
0.842	30.2124
0.8425	32.93152
0.843	29.30603
0.8435	28.09753
0.844	27.79541
0.8445	27.39258
0.845	23.8678
0.8455	22.05505
0.846	22.96143
0.8465	20.54443
0.847	24.67346
0.8475	20.34302
0.848	20.34302
0.8485	19.94019
0.849	12.18567
0.8495	2.41699
0.85	-5.13611
0.8505	-14.90479
0.851	-11.98425
0.8515	-11.98425
0.852	-9.86938
0.8525	-10.27222
0.853	-12.99133
0.8535	-13.99841
0.854	-10.0708
0.8545	-17.42249
0.855	-14.40125
0.8555	-13.19275
0.856	-6.2439
0.8565	-5.43823
0.857	-3.22266
0.8575	-4.53186
0.858	-9.86938
0.8585	-7.35168
0.859	-16.21399
0.8595	-11.07788
0.86	-8.05664
0.8605	-7.85522
0.861	-8.15735
0.8615	-12.38708
0.862	-11.88354
0.8625	-17.92603
0.863	-19.13452
0.8635	-22.05505
0.864	-26.08337
0.8645	-23.16284
0.865	-24.16992
0.8655	-13.29346
0.866	-5.74036
0.8665	-5.53894
0.867	-6.54602
0.8675	3.52478
0.868	2.61841
0.8685	6.3446
0.869	6.64673
0.8695	18.02673
0.87	22.45789
0.8705	23.8678
0.871	30.81665
0.8715	32.62939
0.872	38.16833
0.8725	33.23364
0.873	28.29895
0.8735	24.97559
0.874	25.37842
0.8745	19.53735
0.875	21.65222
0.8755	11.78284
0.876	12.5885
0.8765	6.64673
0.877	8.66089
0.8775	6.74744
0.878	7.75452
0.8785	3.92761
0.879	-4.02832
0.8795	-11.78284
0.88	-13.39417
0.8805	-13.29346
0.881	-15.91187
0.8815	-21.14868
0.882	-26.3855
0.8825	-26.78833
0.883	-30.2124
0.8835	-23.66638
0.884	-18.32886
0.8845	-10.97717
0.885	-8.15735
0.8855	-5.63965
0.886	1.3092
0.8865	-1.00708
0.887	-1.81274
0.8875	-0.80566
0.888	-1.71204
0.8885	-5.0354
0.889	-1.91345
0.8895	1.10779
0.89	10.37292
0.8905	6.54602
0.891	9.56726
0.8915	12.68921
0.892	8.45947
0.8925	13.89771
0.893	15.71045
0.8935	16.21399
0.894	16.21399
0.8945	17.01965
0.895	18.22815
0.8955	13.99841
0.896	15.00549
0.8965	16.11328
0.897	12.38708
0.8975	14.30054
0.898	13.69629
0.8985	11.68213
0.899	8.05664
0.8995	0
0.9	1.10779
0.9005	0.50354
0.901	-5.23682
0.9015	-9.06372
0.902	-14.40125
0.9025	-7.45239
0.903	-7.25098
0.9035	3.42407
0.904	7.15027
0.9045	10.27222
0.905	11.07788
0.9055	14.80408
0.906	8.7616
0.9065	10.97717
0.907	9.56726
0.9075	12.28638
0.908	21.55151
0.9085	19.23523
0.909	22.45789
0.9095	20.74585
0.91	21.45081
0.9105	23.56567
0.911	34.64355
0.9115	32.12585
0.912	28.9032
0.9125	22.55859
0.913	7.5531
0.9135	-3.32336
0.914	-11.07788
0.9145	-9.76868
0.915	-6.64673
0.9155	-4.53186
0.916	-1.81274
0.9165	5.84106
0.917	3.8269
0.9175	-2.11487
0.918	-4.93469
0.9185	-0.70496
0.919	-8.56018
0.9195	-8.15735
0.92	-10.57434
0.9205	-3.12195
0.921	-3.02124
0.9215	-0.90637
0.922	7.65381
0.9225	3.52478
0.923	6.04248
0.9235	7.25098
0.924	12.68921
0.9245	8.66089
0.925	11.2793
0.9255	7.95593
0.926	10.67505
0.9265	9.56726
0.927	5.84106
0.9275	3.92761
0.928	8.15735
0.9285	7.85522
0.929	6.3446
0.9295	4.22974
0.93	-1.81274
0.9305	-7.95593
0.931	-3.62549
0.9315	-8.25806
0.932	-7.5531
0.9325	-2.21558
0.933	3.32336
0.9335	7.65381
0.934	15.30762
0.9345	21.75293
0.935	23.06213
0.9355	26.88904
0.936	20.74585
0.9365	18.12744
0.937	9.76868
0.9375	9.36584
0.938	6.14319
0.9385	4.43115
0.939	9.86938
0.9395	16.41541
0.94	13.89771
0.9405	13.797
0.941	12.48779
0.9415	19.63806
0.942	17.22107
0.9425	19.03381
0.943	15.81116
0.9435	11.68213
0.944	5.94177
0.9445	-7.25098
0.945	-5.43823
0.9455	-9.56726
0.946	-5.43823
0.9465	-6.3446
0.947	-2.81982
0.9475	2.92053
0.948	4.43115
0.9485	9.36584
0.949	14.50195
0.9495	17.01965
0.95	19.73877
0.9505	15.71045
0.951	22.35718
0.9515	25.07629
0.952	32.62939
0.9525	29.50745
0.953	29.30603
0.9535	27.6947
0.954	31.62231
0.9545	27.79541
0.955	19.83948
0.9555	10.67505
0.956	-8.66089
0.9565	-21.65222
0.957	-26.78833
0.9575	-25.88196
0.958	-21.65222
0.9585	-14.90479
0.959	-16.11328
0.9595	-17.01965
0.96	-16.01257
0.9605	-13.39417
0.961	-16.91895
0.9615	-12.68921
0.962	-13.19275
0.9625	-19.13452
0.963	-27.99683
0.9635	-25.27771
0.964	-22.45789
0.9645	-17.6239
0.965	-10.17151
0.9655	-2.5177
0.966	5.94177
0.9665	20.84656
0.967	30.01099
0.9675	33.23364
0.968	38.974
0.9685	35.34851
0.969	19.83948
0.9695	17.32178
0.97	14.19983
0.9705	1.81274
0.971	-0.50354
0.9715	-3.7262
0.972	-6.54602
0.9725	-8.66089
0.973	-8.56018
0.9735	-8.7616
0.974	-1.3092
0.9745	-3.12195
0.975	-2.31628
0.9755	-0.80566
0.976	3.02124
0.9765	4.12903
0.977	11.07788
0.9775	13.99841
0.978	21.04797
0.9785	22.76001
0.979	33.63647
0.9795	39.77966
0.98	36.55701
0.9805	36.35559
0.981	35.2478
0.9815	26.58691
0.982	30.11169
0.9825	30.81665
0.983	25.78125
0.9835	28.9032
0.984	30.61523
0.9845	31.82373
0.985	26.18408
0.9855	28.50037
0.986	27.89612
0.9865	25.07629
0.987	26.68762
0.9875	26.68762
0.988	29.20532
0.9885	26.08337
0.989	21.55151
0.9895	14.70337
0.99	-8.96301
0.9905	-21.55151
0.991	-33.63647
0.9915	-36.65771
0.992	-34.54285
0.9925	-23.06213
0.993	-17.92603
0.9935	-19.33594
0.994	-20.54443
0.9945	-27.99683
0.995	-41.39099
0.9955	-34.84497
0.996	-8.8623
0.9965	11.07788
0.997	13.29346
0.9975	7.95593
0.998	-1.51062
0.9985	-22.45789
0.999	-47.23206
0.9995	-70.79773
1	-73.11401
1.0005	-61.43188
1.001	-65.76233
1.0015	-55.3894
1.002	-46.5271
1.0025	-31.82373
1.003	-12.48779
1.0035	11.98425
1.004	31.62231
1.0045	54.98657
1.005	67.07153
1.0055	78.85437
1.006	82.58057
1.0065	90.43579
1.007	96.57898
1.0075	95.37048
1.008	83.88977
1.0085	78.55225
1.009	75.22888
1.0095	56.5979
1.01	45.92285
1.0105	41.79382
1.011	36.05347
1.0115	28.29895
1.012	26.18408
1.0125	11.98425
1.013	0.90637
1.0135	-11.48071
1.014	-1.51062
1.0145	7.5531
1.015	10.27222
1.0155	13.69629
1.016	20.04089
1.0165	20.94727
1.017	21.04797
1.0175	32.02515
1.018	51.05896
1.0185	60.12268
1.019	60.62622
1.0195	56.90002
1.02	55.2887
1.0205	44.51294
1.021	29.50745
1.0215	26.88904
1.022	22.45789
1.0225	4.43115
1.023	-1.81274
1.0235	-12.99133
1.024	-14.50195
1.0245	-8.96301
1.025	-8.7616
1.0255	-12.38708
1.026	-11.88354
1.0265	-18.53027
1.027	-13.59558
1.0275	-17.22107
1.028	-17.72461
1.0285	-18.12744
1.029	-18.8324
1.0295	-23.96851
1.03	-15.71045
1.0305	-15.60974
1.031	-8.25806
1.0315	-0.50354
1.032	2.21558
1.0325	3.02124
1.033	-0.30212
1.0335	-0.90637
1.034	-10.0708
1.0345	-0.60425
1.035	-1.40991
1.0355	1.3092
1.036	5.84106
1.0365	8.8623
1.037	17.52319
1.0375	16.61682
1.038	9.26514
1.0385	16.51611
1.039	22.05505
1.0395	32.22656
1.04	36.85913
1.0405	32.83081
1.041	28.80249
1.0415	23.56567
1.042	28.9032
1.0425	27.29187
1.043	29.10461
1.0435	33.33435
1.044	34.44214
1.0445	27.59399
1.045	10.0708
1.0455	1.61133
1.046	-4.53186
1.0465	-20.1416
1.047	-21.55151
1.0475	-30.31311
1.048	-22.25647
1.0485	-17.22107
1.049	-9.97009
1.0495	-1.00708
1.05	4.02832
1.0505	7.65381
1.051	13.89771
1.0515	7.04956
1.052	10.57434
1.0525	15.50903
1.053	14.50195
1.0535	19.43665
1.054	27.6947
1.0545	24.16992
1.055	31.72302
1.0555	28.50037
1.056	29.40674
1.0565	25.37842
1.057	21.85364
1.0575	19.53735
1.058	16.51611
1.0585	8.56018
1.059	5.23682
1.0595	2.11487
1.06	-1.61133
1.0605	-1.10779
1.061	4.33044
1.0615	3.12195
1.062	4.22974
1.0625	7.45239
1.063	10.17151
1.0635	13.99841
1.064	12.68921
1.0645	15.81116
1.065	11.48071
1.0655	11.68213
1.066	5.74036
1.0665	2.92053
1.067	-8.66089
1.0675	-15.20691
1.068	-24.87488
1.0685	-22.96143
1.069	-19.73877
1.0695	-15.1062
1.07	-14.90479
1.0705	-9.76868
1.071	-6.74744
1.0715	-4.73328
1.072	-4.73328
1.0725	-11.58142
1.073	-12.5885
1.0735	-16.21399
1.074	-15.50903
1.0745	-14.90479
1.075	-11.88354
1.0755	-10.27222
1.076	-6.64673
1.0765	-8.35876
1.077	-9.56726
1.0775	-9.26514
1.078	-5.84106
1.0785	-3.32336
1.079	-7.04956
1.0795	-3.22266
1.08	0.50354
1.0805	3.02124
1.081	4.53186
1.0815	7.04956
1.082	6.74744
1.0825	7.15027
1.083	13.09204
1.0835	11.78284
1.084	9.66797
1.0845	18.42957
1.085	11.38
1.0855	5.23682
1.086	0.20142
1.0865	-2.5177
1.087	-2.31628
1.0875	-1.10779
1.088	-3.42407
1.0885	1.71204
1.089	6.84814
1.0895	12.48779
1.09	11.88354
1.0905	13.39417
1.091	18.22815
1.0915	16.21399
1.092	17.42249
1.0925	16.51611
1.093	21.45081
1.0935	16.51611
1.094	14.70337
1.0945	14.70337
1.095	13.69629
1.0955	9.76868
1.096	7.04956
1.0965	6.54602
1.097	7.25098
1.0975	8.05664
1.098	6.94885
1.0985	4.12903
1.099	10.17151
1.0995	7.25098
1.1	15.1062
1.1005	6.2439
1.101	8.96301
1.1015	6.2439
1.102	4.73328
1.1025	9.66797
1.103	12.68921
1.1035	10.47363
1.104	12.08496
1.1045	12.5885
1.105	11.07788
1.1055	12.18567
1.106	18.32886
1.1065	17.52319
1.107	22.25647
1.1075	16.91895
1.108	21.75293
1.1085	14.19983
1.109	16.81824
1.1095	19.73877
1.11	16.71753
1.1105	13.89771
1.111	7.85522
1.1115	-0.20142
1.112	-3.22266
1.1125	-5.94177
1.113	-6.84814
1.1135	-11.07788
1.114	-16.21399
1.1145	-24.77417
1.115	-25.37842
1.1155	-28.70178
1.116	-25.78125
1.1165	-21.55151
1.117	-22.86072
1.1175	-22.76001
1.118	-22.86072
1.1185	-23.96851
1.119	-16.01257
1.1195	-12.18567
1.12	-12.99133
1.1205	-11.38
1.121	-3.8269
1.1215	0.10071
1.122	-3.02124
1.1225	4.63257
1.123	10.37292
1.1235	18.02673
1.124	23.36426
1.1245	16.71753
1.125	15.71045
1.1255	22.35718
1.126	17.92603
1.1265	20.54443
1.127	9.16443
1.1275	10.37292
1.128	10.37292
1.1285	8.56018
1.129	5.94177
1.1295	7.25098
1.13	7.35168
1.1305	7.35168
1.131	8.56018
1.1315	9.46655
1.132	13.49487
1.1325	6.84814
1.133	9.76868
1.1335	9.56726
1.134	10.37292
1.1345	14.09912
1.135	9.16443
1.1355	11.98425
1.136	13.09204
1.1365	12.38708
1.137	16.41541
1.1375	16.71753
1.138	18.02673
1.1385	14.90479
1.139	10.37292
1.1395	10.67505
1.14	8.56018
1.1405	2.5177
1.141	-0.40283
1.1415	-5.0354
1.142	-9.36584
1.1425	-4.53186
1.143	-2.5177
1.1435	-0.70496
1.144	-1.71204
1.1445	1.3092
1.145	4.22974
1.1455	-0.50354
1.146	-0.20142
1.1465	1.91345
1.147	5.74036
1.1475	4.43115
1.148	3.92761
1.1485	0.20142
1.149	3.42407
1.1495	5.94177
1.15	11.78284
1.1505	10.67505
1.151	4.33044
1.1515	4.73328
1.152	1.61133
1.1525	-4.83398
1.153	-6.14319
1.1535	-5.43823
1.154	-9.56726
1.1545	-4.12903
1.155	-6.94885
1.1555	-5.63965
1.156	-3.62549
1.1565	-2.11487
1.157	0.10071
1.1575	2.11487
1.158	0.10071
1.1585	5.53894
1.159	3.52478
1.1595	3.12195
1.16	5.63965
1.1605	4.43115
1.161	4.63257
1.1615	5.53894
1.162	6.44531
1.1625	9.76868
1.163	9.26514
1.1635	12.38708
1.164	16.91895
1.1645	21.85364
1.165	20.84656
1.1655	18.63098
1.166	21.45081
1.1665	18.8324
1.167	15.1062
1.1675	12.08496
1.168	6.54602
1.1685	11.48071
1.169	15.91187
1.1695	15.50903
1.17	17.12036
1.1705	10.77576
1.171	24.77417
1.1715	21.65222
1.172	20.24231
1.1725	18.02673
1.173	20.34302
1.1735	29.40674
1.174	23.16284
1.1745	21.85364
1.175	23.46497
1.1755	24.37134
1.176	27.49329
1.1765	22.05505
1.177	20.44373
1.1775	7.65381
1.178	2.71912
1.1785	11.78284
1.179	8.35876
1.1795	2.11487
1.18	-2.31628
1.1805	-11.2793
1.181	-12.08496
1.1815	-18.63098
1.182	-24.16992
1.1825	-19.13452
1.183	-14.50195
1.1835	-17.72461
1.184	-17.42249
1.1845	-11.58142
1.185	-15.50903
1.1855	-12.28638
1.186	-11.07788
1.1865	-2.41699
1.187	-0.10071
1.1875	5.0354
1.188	3.32336
1.1885	4.33044
1.189	2.61841
1.1895	5.74036
1.19	1.71204
1.1905	4.83398
1.191	6.04248
1.1915	11.88354
1.192	11.58142
1.1925	3.7262
1.193	-1.91345
1.1935	7.25098
1.194	7.45239
1.1945	7.75452
1.195	5.74036
1.1955	2.61841
1.196	0.10071
1.1965	-4.83398
1.197	-5.0354
1.1975	-3.32336
1.198	-0.90637
1.1985	2.01416
1.199	5.74036
1.1995	9.36584
1.2	1.51062
1.2005	3.12195
1.201	9.86938
1.2015	14.90479
1.202	16.21399
1.2025	22.45789
1.203	25.27771
1.2035	25.98267
1.204	25.98267
1.2045	21.55151
1.205	13.29346
1.2055	10.0708
1.206	3.22266
1.2065	-6.04248
1.207	-8.7616
1.2075	-12.78992
1.208	-22.05505
1.2085	-18.12744
1.209	-15.81116
1.2095	-13.29346
1.21	-8.7616
1.2105	-9.36584
1.211	-0.30212
1.2115	-5.23682
1.212	2.31628
1.2125	0.10071
1.213	4.53186
1.2135	2.61841
1.214	-1.91345
1.2145	1.00708
1.215	4.02832
1.2155	6.84814
1.216	0.80566
1.2165	9.36584
1.217	7.75452
1.2175	7.04956
1.218	14.40125
1.2185	9.46655
1.219	17.82532
1.2195	17.52319
1.22	15.1062
1.2205	16.51611
1.221	21.24939
1.2215	17.92603
1.222	18.42957
1.2225	12.48779
1.223	13.59558
1.2235	15.60974
1.224	9.76868
1.2245	6.94885
1.225	2.5177
1.2255	-3.42407
1.226	-14.80408
1.2265	-13.797
1.227	-13.797
1.2275	-15.50903
1.228	-10.47363
1.2285	-5.94177
1.229	-1.2085
1.2295	8.96301
1.23	8.66089
1.2305	12.48779
1.231	24.77417
1.2315	16.91895
1.232	11.58142
1.2325	3.22266
1.233	-1.81274
1.2335	-9.16443
1.234	-20.34302
1.2345	-24.97559
1.235	-24.47205
1.2355	-20.24231
1.236	-20.74585
1.2365	-18.53027
1.237	-17.32178
1.2375	-20.74585
1.238	-21.75293
1.2385	-17.42249
1.239	-12.28638
1.2395	-11.48071
1.24	-9.46655
1.2405	-9.06372
1.241	-16.61682
1.2415	-11.98425
1.242	-8.15735
1.2425	-8.96301
1.243	-4.02832
1.2435	-2.31628
1.244	-0.20142
1.2445	1.71204
1.245	4.33044
1.2455	8.8623
1.246	10.77576
1.2465	5.23682
1.247	10.17151
1.2475	11.88354
1.248	21.04797
1.2485	22.05505
1.249	18.32886
1.2495	22.25647
1.25	21.04797
1.2505	19.94019
1.251	8.35876
1.2515	8.66089
1.252	5.13611
1.2525	7.95593
1.253	11.58142
1.2535	11.68213
1.254	15.30762
1.2545	15.91187
1.255	15.20691
1.2555	12.28638
1.256	14.60266
1.2565	11.58142
1.257	13.39417
1.2575	17.01965
1.258	17.12036
1.2585	20.34302
1.259	13.09204
1.2595	10.47363
1.26	10.17151
1.2605	4.53186
1.261	-1.71204
1.2615	-4.43115
1.262	-3.52478
1.2625	-2.41699
1.263	-9.56726
1.2635	-7.95593
1.264	-11.48071
1.2645	-12.08496
1.265	-19.63806
1.2655	-7.95593
1.266	-11.78284
1.2665	-9.56726
1.267	-8.35876
1.2675	-7.65381
1.268	-10.57434
1.2685	-6.3446
1.269	-8.96301
1.2695	6.84814
1.27	-5.74036
1.2705	-4.93469
1.271	-8.05664
1.2715	-0.70496
1.272	4.83398
1.2725	3.42407
1.273	2.01416
1.2735	8.25806
1.274	8.25806
1.2745	10.37292
1.275	12.68921
1.2755	12.99133
1.276	13.39417
1.2765	9.36584
1.277	6.64673
1.2775	7.85522
1.278	-2.81982
1.2785	-5.33752
1.279	-13.797
1.2795	-15.50903
1.28	-4.33044
1.2805	-7.45239
1.281	-0.10071
1.2815	1.51062
1.282	0.60425
1.2825	7.45239
1.283	5.13611
1.2835	0.90637
1.284	7.35168
1.2845	7.5531
1.285	5.84106
1.2855	8.25806
1.286	11.78284
1.2865	7.85522
1.287	5.84106
1.2875	4.12903
1.288	-4.22974
1.2885	-3.42407
1.289	-6.94885
1.2895	2.01416
1.29	-10.67505
1.2905	-14.60266
1.291	-18.12744
1.2915	-13.797
1.292	-13.19275
1.2925	-5.23682
1.293	-3.32336
1.2935	5.94177
1.294	7.75452
1.2945	12.99133
1.295	11.68213
1.2955	17.12036
1.296	16.11328
1.2965	13.59558
1.297	14.09912
1.2975	8.96301
1.298	9.06372
1.2985	7.65381
1.299	9.16443
1.2995	11.78284
1.3	10.27222
1.3005	6.94885
1.301	15.60974
1.3015	12.5885
1.302	18.02673
1.3025	15.71045
1.303	17.01965
1.3035	8.96301
1.304	11.17859
1.3045	11.88354
1.305	16.3147
1.3055	19.53735
1.306	9.16443
1.3065	7.25098
1.307	1.71204
1.3075	-11.78284
1.308	-8.35876
1.3085	-10.27222
1.309	-16.21399
1.3095	-11.38
1.31	-7.04956
1.3105	-6.2439
1.311	-6.54602
1.3115	-3.02124
1.312	-3.62549
1.3125	3.42407
1.313	3.02124
1.3135	4.12903
1.314	-1.61133
1.3145	9.86938
1.315	6.04248
1.3155	3.02124
1.316	4.12903
1.3165	-3.42407
1.317	-1.91345
1.3175	0.80566
1.318	5.33752
1.3185	5.53894
1.319	6.84814
1.3195	11.58142
1.32	13.09204
1.3205	10.17151
1.321	10.77576
1.3215	3.02124
1.322	5.23682
1.3225	-1.2085
1.323	-11.17859
1.3235	-9.26514
1.324	-3.32336
1.3245	1.61133
1.325	5.63965
1.3255	5.53894
1.326	-1.3092
1.3265	-5.0354
1.327	-8.15735
1.3275	-4.43115
1.328	-6.54602
1.3285	-0.60425
1.329	4.43115
1.3295	4.33044
1.33	2.61841
1.3305	2.21558
1.331	8.66089
1.3315	2.41699
1.332	4.73328
1.3325	7.65381
1.333	11.17859
1.3335	7.85522
1.334	9.76868
1.3345	3.8269
1.335	5.63965
1.3355	6.84814
1.336	6.74744
1.3365	1.81274
1.337	1.81274
1.3375	-3.42407
1.338	-9.86938
1.3385	-18.02673
1.339	-14.09912
1.3395	-6.44531
1.34	-5.84106
1.3405	-6.54602
1.341	-5.43823
1.3415	1.61133
1.342	-3.92761
1.3425	0.50354
1.343	6.14319
1.3435	2.31628
1.344	11.68213
1.3445	10.27222
1.345	11.2793
1.3455	10.0708
1.346	6.3446
1.3465	10.97717
1.347	6.64673
1.3475	12.48779
1.348	11.48071
1.3485	10.77576
1.349	11.68213
1.3495	9.66797
1.35	12.5885
1.3505	8.96301
1.351	2.5177
1.3515	3.42407
1.352	9.06372
1.3525	9.76868
1.353	6.64673
1.3535	7.15027
1.354	9.06372
1.3545	14.90479
1.355	16.41541
1.3555	13.09204
1.356	13.59558
1.3565	9.76868
1.357	14.90479
1.3575	12.99133
1.358	17.32178
1.3585	17.32178
1.359	21.04797
1.3595	27.29187
1.36	17.22107
1.3605	24.67346
1.361	22.76001
1.3615	17.12036
1.362	11.68213
1.3625	13.797
1.363	9.86938
1.3635	9.16443
1.364	6.74744
1.3645	7.65381
1.365	9.16443
1.3655	2.31628
1.366	-1.51062
1.3665	-1.71204
1.367	-6.3446
1.3675	-6.94885
1.368	-9.56726
1.3685	-10.77576
1.369	-1.00708
1.3695	1.2085
1.37	0
1.3705	1.00708
1.371	6.04248
1.3715	5.43823
1.372	3.02124
1.3725	-1.10779
1.373	0.40283
1.3735	7.04956
1.374	9.36584
1.3745	7.95593
1.375	5.43823
1.3755	8.66089
1.376	6.54602
1.3765	3.42407
1.377	4.83398
1.3775	14.60266
1.378	9.66797
1.3785	10.67505
1.379	6.04248
1.3795	5.94177
1.38	5.0354
1.3805	5.13611
1.381	6.94885
1.3815	8.7616
1.382	10.27222
1.3825	6.64673
1.383	5.74036
1.3835	9.66797
1.384	2.21558
1.3845	9.26514
1.385	4.93469
1.3855	3.12195
1.386	4.33044
1.3865	11.38
1.387	5.63965
1.3875	3.92761
1.388	3.7262
1.3885	5.94177
1.389	3.62549
1.3895	9.16443
1.39	1.91345
1.3905	0.60425
1.391	1.71204
1.3915	0.80566
1.392	-2.01416
1.3925	0.50354
1.393	9.06372
1.3935	7.35168
1.394	9.16443
1.3945	9.16443
1.395	13.29346
1.3955	9.06372
1.396	12.38708
1.3965	16.61682
1.397	14.19983
1.3975	14.19983
1.398	16.91895
1.3985	15.20691
1.399	20.54443
1.3995	15.1062
1.4	13.09204
1.4005	13.19275
1.401	12.28638
1.4015	4.33044
1.402	6.14319
1.4025	5.23682
1.403	4.02832
1.4035	8.05664
1.404	1.81274
1.4045	-0.30212
1.405	3.22266
1.4055	-0.50354
1.406	-2.31628
1.4065	1.00708
1.407	2.5177
1.4075	-1.61133
1.408	-1.2085
1.4085	-0.80566
1.409	7.25098
1.4095	6.3446
1.41	4.22974
1.4105	3.32336
1.411	-1.10779
1.4115	2.92053
1.412	0.90637
1.4125	4.63257
1.413	5.63965
1.4135	4.63257
1.414	7.35168
1.4145	7.45239
1.415	16.51611
1.4155	18.8324
1.416	22.15576
1.4165	19.53735
1.417	15.30762
1.4175	19.33594
1.418	11.2793
1.4185	13.09204
1.419	15.40833
1.4195	7.75452
1.42	4.73328
1.4205	10.87646
1.421	9.26514
1.4215	5.84106
1.422	11.2793
1.4225	6.04248
1.423	3.52478
1.4235	2.81982
1.424	4.73328
1.4245	0.40283
1.425	2.92053
1.4255	-4.63257
1.426	-3.32336
1.4265	0.60425
1.427	0.80566
1.4275	1.40991
1.428	3.02124
1.4285	4.02832
1.429	2.81982
1.4295	5.0354
1.43	1.51062
1.4305	4.43115
1.431	4.93469
1.4315	3.8269
1.432	-3.02124
1.4325	3.22266
1.433	6.84814
1.4335	2.92053
1.434	11.88354
1.4345	11.78284
1.435	3.8269
1.4355	6.84814
1.436	5.53894
1.4365	8.35876
1.437	12.99133
1.4375	7.75452
1.438	5.53894
1.4385	6.04248
1.439	2.5177
1.4395	6.84814
1.44	11.88354
1.4405	8.66089
1.441	5.94177
1.4415	10.47363
1.442	6.84814
1.4425	17.12036
1.443	15.1062
1.4435	15.50903
1.444	21.24939
1.4445	25.37842
1.445	20.84656
1.4455	17.32178
1.446	22.55859
1.4465	23.46497
1.447	20.94727
1.4475	16.61682
1.448	12.89062
1.4485	9.86938
1.449	3.32336
1.4495	1.40991
1.45	2.5177
1.4505	-2.21558
1.451	-3.8269
1.4515	-2.61841
1.452	-5.53894
1.4525	-3.7262
1.453	-3.32336
1.4535	-0.20142
1.454	-0.40283
1.4545	4.12903
1.455	10.0708
1.4555	11.07788
1.456	12.28638
1.4565	10.97717
1.457	3.8269
1.4575	3.32336
1.458	4.93469
1.4585	7.04956
1.459	3.92761
1.4595	8.7616
1.46	2.21558
1.4605	2.61841
1.461	3.02124
1.4615	-0.50354
1.462	2.92053
1.4625	-3.52478
1.463	3.02124
1.4635	2.31628
1.464	-8.96301
1.4645	-12.38708
1.465	-16.01257
1.4655	-15.50903
1.466	-9.06372
1.4665	-8.96301
1.467	-9.36584
1.4675	-6.94885
1.468	-2.92053
1.4685	-1.3092
1.469	-3.32336
1.4695	4.53186
1.47	2.61841
1.4705	0.90637
1.471	-3.02124
1.4715	-5.53894
1.472	2.5177
1.4725	7.85522
1.473	7.95593
1.4735	-3.32336
1.474	-2.21558
1.4745	3.32336
1.475	-2.31628
1.4755	-1.3092
1.476	1.51062
1.4765	-2.21558
1.477	1.61133
1.4775	1.40991
1.478	9.06372
1.4785	11.17859
1.479	6.84814
1.4795	17.22107
1.48	9.46655
1.4805	9.16443
1.481	5.0354
1.4815	1.3092
1.482	5.63965
1.4825	-0.90637
1.483	0.90637
1.4835	0.50354
1.484	3.12195
1.4845	-0.50354
1.485	1.91345
1.4855	11.2793
1.486	8.96301
1.4865	7.5531
1.487	12.68921
1.4875	18.63098
1.488	17.82532
1.4885	22.25647
1.489	17.52319
1.4895	13.797
1.49	17.01965
1.4905	14.70337
1.491	19.33594
1.4915	14.30054
1.492	12.48779
1.4925	12.99133
1.493	13.99841
1.4935	9.97009
1.494	5.84106
1.4945	7.85522
1.495	12.38708
1.4955	7.65381
1.496	11.07788
1.4965	6.74744
1.497	8.7616
1.4975	11.78284
1.498	7.15027
1.4985	10.87646
1.499	11.17859
1.4995	10.47363
1.5	9.86938
1.5005	7.15027
1.501	2.21558
1.5015	5.84106
1.502	1.2085
1.5025	4.43115
1.503	2.41699
1.5035	3.7262
1.504	4.63257
1.5045	4.12903
1.505	3.42407
1.5055	3.62549
1.506	4.22974
1.5065	-1.91345
1.507	0.80566
1.5075	-0.50354
1.508	-1.81274
1.5085	-0.80566
1.509	-3.52478
1.5095	-3.02124
1.51	-1.51062
1.5105	-7.85522
1.511	-1.3092
1.5115	-1.81274
1.512	0.70496
1.5125	-1.91345
1.513	-3.8269
1.5135	-0.10071
1.514	10.17151
1.5145	10.67505
1.515	11.17859
1.5155	12.38708
1.516	9.56726
1.5165	10.37292
1.517	16.41541
1.5175	7.25098
1.518	5.0354
1.5185	6.74744
1.519	7.15027
1.5195	8.56018
1.52	8.7616
1.5205	4.83398
1.521	4.43115
1.5215	2.41699
1.522	5.43823
1.5225	2.71912
1.523	4.22974
1.5235	7.45239
1.524	7.5531
1.5245	5.94177
1.525	8.7616
1.5255	5.53894
1.526	8.66089
1.5265	13.19275
1.527	9.97009
1.5275	12.28638
1.528	12.48779
1.5285	13.99841
1.529	11.38
1.5295	12.78992
1.53	12.18567
1.5305	7.25098
1.531	6.54602
1.5315	0.20142
1.532	4.63257
1.5325	0.60425
1.533	5.63965
1.5335	0
1.534	5.53894
1.5345	-0.10071
1.535	1.61133
1.5355	-1.3092
1.536	2.71912
1.5365	10.27222
1.537	4.83398
1.5375	5.33752
1.538	0.70496
1.5385	-3.52478
1.539	-6.14319
1.5395	-2.71912
1.54	-1.71204
1.5405	3.32336
1.541	8.15735
1.5415	15.20691
1.542	16.11328
1.5425	14.09912
1.543	10.97717
1.5435	4.73328
1.544	10.57434
1.5445	10.17151
1.545	10.67505
1.5455	10.57434
1.546	14.09912
1.5465	11.2793
1.547	7.65381
1.5475	5.23682
1.548	-1.61133
1.5485	2.11487
1.549	5.94177
1.5495	4.93469
1.55	7.5531
1.5505	11.48071
1.551	9.06372
1.5515	8.66089
1.552	12.28638
1.5525	9.86938
1.553	13.89771
1.5535	13.69629
1.554	11.07788
1.5545	10.37292
1.555	11.07788
1.5555	10.27222
1.556	12.68921
1.5565	10.67505
1.557	11.2793
1.5575	7.95593
1.558	4.83398
1.5585	5.43823
1.559	9.16443
1.5595	8.45947
1.56	13.19275
1.5605	16.21399
1.561	14.30054
1.5615	9.97009
1.562	10.87646
1.5625	6.74744
1.563	8.66089
1.5635	5.74036
1.564	6.2439
1.5645	7.75452
1.565	1.81274
1.5655	5.23682
1.566	8.7616
1.5665	15.81116
1.567	11.07788
1.5675	8.7616
1.568	10.27222
1.5685	11.78284
1.569	9.56726
1.5695	11.2793
1.57	5.0354
1.5705	6.2439
1.571	5.0354
1.5715	1.91345
1.572	1.00708
1.5725	-5.0354
1.573	1.71204
1.5735	1.2085
1.574	2.81982
1.5745	13.59558
1.575	8.05664
1.5755	9.36584
1.576	6.64673
1.5765	7.04956
1.577	3.02124
1.5775	6.74744
1.578	7.15027
1.5785	7.85522
1.579	-2.81982
1.5795	3.22266
1.58	3.12195
1.5805	6.3446
1.581	3.7262
1.5815	5.33752
1.582	3.12195
1.5825	7.75452
1.583	6.74744
1.5835	1.00708
1.584	4.22974
1.5845	7.85522
1.585	5.13611
1.5855	2.01416
1.586	-2.61841
1.5865	-4.73328
1.587	-1.61133
1.5875	-2.61841
1.588	-4.83398
1.5885	-0.10071
1.589	2.21558
1.5895	1.3092
1.59	8.05664
1.5905	5.13611
1.591	1.81274
1.5915	-0.60425
1.592	0.90637
1.5925	-1.81274
1.593	-3.12195
1.5935	4.22974
1.594	2.5177
1.5945	4.02832
1.595	1.2085
1.5955	-3.22266
1.596	0.20142
1.5965	-1.71204
1.597	-3.7262
1.5975	1.3092
1.598	-4.63257
1.5985	1.40991
1.599	8.25806
1.5995	14.09912
1.6	18.63098
1.6005	22.86072
1.601	21.45081
1.6015	22.45789
1.602	18.32886
1.6025	15.1062
1.603	17.12036
1.6035	7.15027
1.604	3.32336
1.6045	4.93469
1.605	3.8269
1.6055	5.23682
1.606	6.2439
1.6065	6.14319
1.607	1.40991
1.6075	4.73328
1.608	3.22266
1.6085	8.25806
1.609	2.5177
1.6095	9.86938
1.61	4.73328
1.6105	3.22266
1.611	2.81982
1.6115	0.30212
1.612	2.31628
1.6125	2.31628
1.613	-0.20142
1.6135	-0.20142
1.614	-0.90637
1.6145	-0.80566
1.615	-1.51062
1.6155	0.90637
1.616	-4.53186
1.6165	9.16443
1.617	4.93469
1.6175	0.90637
1.618	-1.3092
1.6185	1.3092
1.619	-1.51062
1.6195	3.8269
1.62	4.12903
1.6205	-0.30212
1.621	5.43823
1.6215	8.96301
1.622	10.17151
1.6225	4.83398
1.623	8.45947
1.6235	13.89771
1.624	15.00549
1.6245	9.86938
1.625	8.25806
1.6255	6.54602
1.626	7.95593
1.6265	4.63257
1.627	3.42407
1.6275	2.81982
1.628	1.61133
1.6285	6.64673
1.629	5.0354
1.6295	9.56726
1.63	6.2439
1.6305	4.53186
1.631	3.7262
1.6315	6.44531
1.632	3.12195
1.6325	3.7262
1.633	9.86938
1.6335	6.64673
1.634	8.45947
1.6345	12.28638
1.635	14.50195
1.6355	9.66797
1.636	9.46655
1.6365	16.01257
1.637	16.61682
1.6375	13.29346
1.638	10.77576
1.6385	7.65381
1.639	8.7616
1.6395	8.8623
1.64	10.97717
1.6405	8.7616
1.641	5.84106
1.6415	0.70496
1.642	6.14319
1.6425	7.25098
1.643	8.25806
1.6435	5.94177
1.644	12.38708
1.6445	6.04248
1.645	0.40283
1.6455	0.70496
1.646	6.04248
1.6465	7.65381
1.647	6.44531
1.6475	4.93469
1.648	4.73328
1.6485	2.31628
1.649	0.90637
1.6495	3.92761
1.65	2.41699
1.6505	1.71204
1.651	1.2085
1.6515	2.71912
1.652	5.84106
1.6525	0.30212
1.653	0.30212
1.6535	2.61841
1.654	-0.10071
1.6545	2.41699
1.655	1.2085
1.6555	1.10779
1.656	4.53186
1.6565	2.61841
1.657	4.93469
1.6575	1.10779
1.658	1.71204
1.6585	4.53186
1.659	7.85522
1.6595	7.25098
1.66	8.56018
1.6605	9.06372
1.661	7.04956
1.6615	3.42407
1.662	-1.3092
1.6625	-2.31628
1.663	-3.42407
1.6635	1.00708
1.664	2.01416
1.6645	-0.40283
1.665	-0.60425
1.6655	4.22974
1.666	0.90637
1.6665	0
1.667	0.50354
1.6675	3.02124
1.668	-0.40283
1.6685	4.22974
1.669	8.35876
1.6695	6.94885
1.67	2.81982
1.6705	4.93469
1.671	7.5531
1.6715	10.0708
1.672	4.43115
1.6725	0.70496
1.673	-1.3092
1.6735	-1.51062
1.674	1.10779
1.6745	7.95593
1.675	6.04248
1.6755	10.17151
1.676	16.51611
1.6765	15.1062
1.677	9.76868
1.6775	12.99133
1.678	15.40833
1.6785	14.90479
1.679	14.70337
1.6795	15.40833
1.68	12.38708
1.6805	12.18567
1.681	20.24231
1.6815	15.20691
1.682	9.97009
1.6825	3.7262
1.683	2.31628
1.6835	1.81274
1.684	5.13611
1.6845	1.2085
1.685	-1.51062
1.6855	0.80566
1.686	-5.94177
1.6865	-5.63965
1.687	-4.02832
1.6875	-7.95593
1.688	-8.66089
1.6885	-4.73328
1.689	-6.3446
1.6895	-6.94885
1.69	2.81982
1.6905	3.02124
1.691	8.96301
1.6915	4.12903
1.692	12.18567
1.6925	11.07788
1.693	11.07788
1.6935	8.35876
1.694	10.97717
1.6945	9.66797
1.695	7.5531
1.6955	1.40991
1.696	6.3446
1.6965	5.43823
1.697	7.45239
1.6975	5.63965
1.698	-2.21558
1.6985	2.31628
1.699	-0.50354
1.6995	-2.41699
1.7	-1.2085
1.7005	-6.3446
1.701	-3.8269
1.7015	-12.78992
1.702	-8.45947
1.7025	-0.80566
1.703	-2.01416
1.7035	0.30212
1.704	-2.01416
1.7045	0
1.705	2.41699
1.7055	5.13611
1.706	2.5177
1.7065	-0.10071
1.707	1.10779
1.7075	0.30212
1.708	1.61133
1.7085	-1.71204
1.709	1.51062
1.7095	6.3446
1.71	8.66089
1.7105	5.23682
1.711	1.71204
1.7115	2.61841
1.712	4.02832
1.7125	11.17859
1.713	12.18567
1.7135	12.08496
1.714	10.37292
1.7145	12.28638
1.715	15.81116
1.7155	24.97559
1.716	20.44373
1.7165	17.6239
1.717	9.66797
1.7175	9.16443
1.718	9.06372
1.7185	5.43823
1.719	4.02832
1.7195	2.92053
1.72	5.94177
1.7205	7.35168
1.721	11.2793
1.7215	15.91187
1.722	10.47363
1.7225	12.18567
1.723	10.0708
1.7235	13.59558
1.724	11.2793
1.7245	9.26514
1.725	8.15735
1.7255	9.46655
1.726	5.84106
1.7265	9.06372
1.727	6.2439
1.7275	5.23682
1.728	6.44531
1.7285	2.21558
1.729	4.22974
1.7295	2.31628
1.73	14.70337
1.7305	14.50195
1.731	9.06372
1.7315	13.09204
1.732	15.1062
1.7325	11.17859
1.733	12.08496
1.7335	7.95593
1.734	11.07788
1.7345	14.80408
1.735	7.95593
1.7355	11.98425
1.736	9.26514
1.7365	13.69629
1.737	1.51062
1.7375	0.20142
1.738	3.42407
1.7385	2.5177
1.739	9.97009
1.7395	2.61841
1.74	-1.81274
1.7405	-2.92053
1.741	-5.13611
1.7415	5.63965
1.742	1.3092
1.7425	-0.10071
1.743	-1.3092
1.7435	2.71912
1.744	5.33752
1.7445	1.10779
1.745	3.62549
1.7455	9.66797
1.746	8.8623
1.7465	11.58142
1.747	5.94177
1.7475	11.78284
1.748	15.1062
1.7485	20.34302
1.749	18.12744
1.7495	16.21399
1.75	10.57434
1.7505	10.17151
1.751	11.07788
1.7515	9.56726
1.752	15.50903
1.7525	5.23682
1.753	4.12903
1.7535	3.12195
1.754	9.16443
1.7545	9.76868
1.755	9.46655
1.7555	8.15735
1.756	14.50195
1.7565	13.89771
1.757	12.78992
1.7575	14.50195
1.758	13.89771
1.7585	11.88354
1.759	9.56726
1.7595	10.37292
1.76	7.35168
1.7605	9.66797
1.761	8.7616
1.7615	7.5531
1.762	8.66089
1.7625	10.87646
1.763	10.17151
1.7635	9.46655
1.764	15.60974
1.7645	10.37292
1.765	9.16443
1.7655	2.71912
1.766	-3.52478
1.7665	-1.51062
1.767	-1.81274
1.7675	3.7262
1.768	5.63965
1.7685	6.04248
1.769	3.32336
1.7695	-4.73328
1.77	-3.02124
1.7705	5.74036
1.771	4.43115
1.7715	4.33044
1.772	4.73328
1.7725	-0.20142
1.773	1.3092
1.7735	-2.21558
1.774	-13.29346
1.7745	-15.1062
1.775	-18.22815
1.7755	-16.41541
1.776	-17.52319
1.7765	-18.73169
1.777	-15.50903
1.7775	-15.40833
1.778	-9.46655
1.7785	-9.06372
1.779	-12.89062
1.7795	-4.63257
1.78	-4.22974
1.7805	0
1.781	0.70496
1.7815	4.93469
1.782	8.35876
1.7825	7.95593
1.783	6.94885
1.7835	9.36584
1.784	10.77576
1.7845	8.25806
1.785	6.14319
1.7855	7.95593
1.786	0.10071
1.7865	-3.62549
1.787	1.61133
1.7875	8.8623
1.788	7.15027
1.7885	11.48071
1.789	9.46655
1.7895	6.14319
1.79	5.33752
1.7905	4.63257
1.791	7.45239
1.7915	8.45947
1.792	7.45239
1.7925	0.40283
1.793	0.50354
1.7935	4.02832
1.794	7.45239
1.7945	4.93469
1.795	6.44531
1.7955	13.29346
1.796	6.64673
1.7965	4.22974
1.797	2.21558
1.7975	3.42407
1.798	10.37292
1.7985	11.88354
1.799	11.98425
1.7995	13.19275
1.8	15.00549
1.8005	17.6239
1.801	17.72461
1.8015	19.33594
1.802	12.78992
1.8025	13.39417
1.803	11.48071
1.8035	7.15027
1.804	8.25806
1.8045	9.97009
1.805	12.18567
1.8055	9.56726
1.806	14.30054
1.8065	22.6593
1.807	21.04797
1.8075	16.41541
1.808	16.21399
1.8085	17.52319
1.809	20.34302
1.8095	22.25647
1.81	24.27063
1.8105	25.37842
1.811	21.14868
1.8115	23.06213
1.812	9.56726
1.8125	8.05664
1.813	6.84814
1.8135	10.27222
1.814	10.97717
1.8145	10.17151
1.815	10.37292
1.8155	1.81274
1.816	1.71204
1.8165	-2.71912
1.817	-3.92761
1.8175	-2.41699
1.818	1.10779
1.8185	2.11487
1.819	8.25806
1.8195	9.46655
1.82	1.40991
1.8205	-2.92053
1.821	-9.56726
1.8215	-2.21558
1.822	-4.02832
1.8225	-2.21558
1.823	1.81274
1.8235	-1.00708
1.824	-2.21558
1.8245	-2.81982
1.825	11.48071
1.8255	8.15735
1.826	4.53186
1.8265	7.35168
1.827	6.54602
1.8275	-1.2085
1.828	-4.53186
1.8285	-0.40283
1.829	0.90637
1.8295	-3.22266
1.83	-2.5177
1.8305	-6.64673
1.831	-10.47363
1.8315	-10.67505
1.832	-10.77576
1.8325	-15.20691
1.833	-12.28638
1.8335	-12.18567
1.834	-10.17151
1.8345	-7.25098
1.835	-5.53894
1.8355	0.30212
1.836	0.10071
1.8365	8.7616
1.837	11.88354
1.8375	8.35876
1.838	4.93469
1.8385	11.17859
1.839	13.99841
1.8395	8.7616
1.84	13.39417
1.8405	22.45789
1.841	15.71045
1.8415	11.58142
1.842	3.52478
1.8425	-3.7262
1.843	0.50354
1.8435	3.62549
1.844	5.13611
1.8445	7.15027
1.845	2.92053
1.8455	10.97717
1.846	16.61682
1.8465	14.50195
1.847	17.92603
1.8475	18.02673
1.848	14.50195
1.8485	17.42249
1.849	17.32178
1.8495	16.81824
1.85	15.81116
1.8505	10.67505
1.851	17.12036
1.8515	14.50195
1.852	16.3147
1.8525	11.17859
1.853	0.10071
1.8535	7.65381
1.854	3.02124
1.8545	-2.61841
1.855	-5.13611
1.8555	0.30212
1.856	-2.81982
1.8565	-1.10779
1.857	-7.04956
1.8575	-5.63965
1.858	-4.93469
1.8585	-3.32336
1.859	4.63257
1.8595	8.8623
1.86	13.29346
1.8605	22.05505
1.861	24.57275
1.8615	27.59399
1.862	26.68762
1.8625	22.6593
1.863	10.87646
1.8635	13.69629
1.864	16.51611
1.8645	14.80408
1.865	12.48779
1.8655	9.66797
1.866	2.11487
1.8665	0.20142
1.867	5.84106
1.8675	0.20142
1.868	5.23682
1.8685	6.64673
1.869	-0.40283
1.8695	0.40283
1.87	-5.43823
1.8705	3.22266
1.871	9.46655
1.8715	9.97009
1.872	16.81824
1.8725	23.26355
1.873	11.58142
1.8735	15.40833
1.874	6.74744
1.8745	7.35168
1.875	7.65381
1.8755	10.17151
1.876	9.36584
1.8765	8.25806
1.877	8.05664
1.8775	11.17859
1.878	9.86938
1.8785	6.64673
1.879	5.0354
1.8795	8.45947
1.88	10.37292
1.8805	12.38708
1.881	13.49487
1.8815	5.84106
1.882	5.33752
1.8825	2.01416
1.883	-1.81274
1.8835	3.42407
1.884	2.11487
1.8845	0.60425
1.885	-8.45947
1.8855	0.30212
1.886	1.91345
1.8865	0.10071
1.887	4.22974
1.8875	2.21558
1.888	0.70496
1.8885	0.90637
1.889	4.12903
1.8895	1.91345
1.89	2.61841
1.8905	1.00708
1.891	9.66797
1.8915	9.46655
1.892	8.05664
1.8925	8.8623
1.893	11.17859
1.8935	11.58142
1.894	12.89062
1.8945	14.90479
1.895	14.50195
1.8955	10.37292
1.896	6.74744
1.8965	6.84814
1.897	2.61841
1.8975	8.7616
1.898	4.73328
1.8985	-1.40991
1.899	0.80566
1.8995	0.40283
1.9	0.10071
1.9005	-5.53894
1.901	-4.22974
1.9015	-2.5177
1.902	-5.0354
1.9025	-10.47363
1.903	-7.15027
1.9035	-9.66797
1.904	-2.21558
1.9045	3.7262
1.905	8.56018
1.9055	6.94885
1.906	9.16443
1.9065	12.99133
1.907	13.69629
1.9075	12.78992
1.908	9.56726
1.9085	5.74036
1.909	7.85522
1.9095	13.99841
1.91	14.40125
1.9105	15.71045
1.911	10.0708
1.9115	6.2439
1.912	-5.13611
1.9125	-8.35876
1.913	-8.56018
1.9135	-11.38
1.914	-18.63098
1.9145	-14.09912
1.915	-13.59558
1.9155	-9.97009
1.916	-5.0354
1.9165	-6.64673
1.917	-8.56018
1.9175	-7.95593
1.918	-4.73328
1.9185	-1.51062
1.919	7.85522
1.9195	9.86938
1.92	15.1062
1.9205	15.00549
1.921	15.91187
1.9215	14.60266
1.922	15.00549
1.9225	15.71045
1.923	12.68921
1.9235	13.29346
1.924	11.07788
1.9245	14.40125
1.925	22.25647
1.9255	17.92603
1.926	14.50195
1.9265	23.46497
1.927	30.2124
1.9275	27.89612
1.928	27.09045
1.9285	22.45789
1.929	26.08337
1.9295	23.56567
1.93	23.36426
1.9305	27.19116
1.931	26.3855
1.9315	26.18408
1.932	29.30603
1.9325	29.30603
1.933	24.77417
1.9335	21.3501
1.934	8.96301
1.9345	1.3092
1.935	-19.23523
1.9355	-24.16992
1.936	-52.56958
1.9365	-103.82996
1.937	-159.92432
1.9375	-193.76221
1.938	-198.89832
1.9385	-183.48999
1.939	-147.1344
1.9395	-102.52075
1.94	-56.90002
1.9405	-12.68921
1.941	25.177
1.9415	53.87878
1.942	74.2218
1.9425	87.51526
1.943	94.56482
1.9435	98.69385
1.944	100.10376
1.9445	96.98181
1.945	87.21313
1.9455	79.86145
1.946	67.37366
1.9465	49.0448
1.947	34.94568
1.9475	10.77576
1.948	-15.50903
1.9485	-32.93152
1.949	-43.10303
1.9495	-70.29419
1.95	-96.07544
1.9505	-116.922
1.951	-114.80713
1.9515	-89.83154
1.952	-70.29419
1.9525	-43.30444
1.953	-19.53735
1.9535	9.26514
1.954	26.48621
1.9545	42.39807
1.955	54.0802
1.9555	66.6687
1.956	68.78357
1.9565	85.29968
1.957	78.95508
1.9575	70.29419
1.958	53.57666
1.9585	46.72852
1.959	35.44922
1.9595	34.54285
1.96	40.98816
1.9605	42.09595
1.961	41.69312
1.9615	39.07471
1.962	43.30444
1.9625	55.89294
1.963	52.97241
1.9635	64.05029
1.964	69.68994
1.9645	50.45471
1.965	-9.66797
1.9655	-79.2572
1.966	-127.69775
1.9665	-155.79529
1.967	-163.85193
1.9675	-156.09741
1.968	-123.16589
1.9685	-95.37048
1.969	-62.43896
1.9695	-34.14001
1.97	-1.81274
1.9705	28.70178
1.971	58.81348
1.9715	64.85596
1.972	50.45471
1.9725	15.20691
1.973	-46.92993
1.9735	-96.17615
1.974	-130.51758
1.9745	-122.15881
1.975	-91.24146
1.9755	-59.21631
1.976	-26.28479
1.9765	-9.97009
1.977	10.87646
1.9775	31.62231
1.978	47.03064
1.9785	67.17224
1.979	87.31384
1.9795	101.21155
1.98	108.1604
1.9805	106.54907
1.981	110.77881
1.9815	109.26819
1.982	93.45703
1.9825	94.56482
1.983	97.78748
1.9835	85.19897
1.984	44.51294
1.9845	-14.19983
1.985	-38.57117
1.9855	-32.02515
1.986	-17.01965
1.9865	0.80566
1.987	30.81665
1.9875	59.82056
1.988	78.75366
1.9885	90.73792
1.989	102.01721
1.9895	106.24695
1.99	103.02429
1.9905	116.41846
1.991	125.07935
1.9915	129.81262
1.992	127.19421
1.9925	126.58997
1.993	119.03687
1.9935	109.3689
1.994	94.06128
1.9945	78.85437
1.995	67.17224
1.9955	50.05188
1.996	30.91736
1.9965	29.91028
1.997	29.91028
1.9975	31.82373
1.998	30.81665
1.9985	16.01257
1.999	9.36584
1.9995	5.23682
2	-6.04248
2.0005	-8.25806
2.001	-12.18567
2.0015	-12.18567
2.002	-22.86072
2.0025	-26.88904
2.003	-26.3855
2.0035	-25.68054
2.004	-28.9032
2.0045	-29.80957
2.005	-25.57983
2.0055	-20.54443
2.006	-13.69629
2.0065	-17.01965
2.007	-18.02673
2.0075	-14.50195
2.008	-13.29346
2.0085	-18.73169
2.009	-19.03381
2.0095	-19.13452
2.01	-19.63806
2.0105	-18.8324
2.011	-19.43665
2.0115	-20.74585
2.012	-15.50903
2.0125	-21.45081
2.013	-15.60974
2.0135	-12.38708
2.014	-13.69629
2.0145	-10.77576
2.015	-6.64673
2.0155	-6.84814
2.016	-2.61841
2.0165	-8.05664
2.017	-5.43823
2.0175	-15.20691
2.018	-7.65381
2.0185	-9.26514
2.019	-3.62549
2.0195	-1.51062
2.02	-7.35168
2.0205	-8.7616
2.021	-8.56018
2.0215	-3.02124
2.022	-11.78284
2.0225	-7.35168
2.023	-13.19275
2.0235	-15.60974
2.024	-8.15735
2.0245	-10.77576
2.025	-11.2793
2.0255	-12.99133
2.026	-10.57434
2.0265	-11.78284
2.027	-10.37292
2.0275	-9.66797
2.028	-9.86938
2.0285	-7.75452
2.029	-7.65381
2.0295	-8.66089
2.03	-4.73328
2.0305	-8.45947
2.031	-9.26514
2.0315	-6.64673
2.032	-9.26514
2.0325	-6.64673
2.033	-7.75452
2.0335	-4.93469
2.034	-4.53186
2.0345	-7.15027
2.035	-1.51062
2.0355	0.50354
2.036	-0.80566
2.0365	-2.41699
2.037	-2.92053
2.0375	1.40991
2.038	7.45239
2.0385	5.43823
2.039	1.40991
2.0395	4.22974
2.04	0.80566
2.0405	-0.20142
2.041	7.04956
2.0415	8.45947
2.042	6.54602
2.0425	1.51062
2.043	2.21558
2.0435	7.65381
2.044	-0.10071
2.0445	1.71204
2.045	-2.41699
2.0455	-3.42407
2.046	-1.10779
2.0465	4.02832
2.047	-1.91345
2.0475	5.23682
2.048	4.53186
2.0485	4.02832
2.049	3.8269
2.0495	5.94177
2.05	8.25806
2.0505	11.58142
2.051	11.88354
2.0515	10.57434
2.052	12.89062
2.0525	13.797
2.053	11.48071
2.0535	14.60266
2.054	5.94177
2.0545	13.29346
2.055	14.60266
2.0555	9.66797
2.056	10.67505
2.0565	11.2793
2.057	8.7616
2.0575	9.06372
2.058	4.02832
2.0585	7.04956
2.059	6.94885
2.0595	8.15735
2.06	9.36584
2.0605	8.45947
2.061	9.76868
2.0615	16.01257
2.062	12.28638
2.0625	10.37292
2.063	9.76868
2.0635	12.78992
2.064	9.16443
2.0645	8.66089
2.065	6.64673
2.0655	4.02832
2.066	5.23682
2.0665	6.2439
2.067	6.94885
2.0675	0.10071
2.068	3.62549
2.0685	4.63257
2.069	4.33044
2.0695	3.02124
2.07	9.26514
2.0705	8.45947
2.071	7.5531
2.0715	6.74744
2.072	8.8623
2.0725	11.48071
2.073	11.98425
2.0735	8.7616
2.074	7.85522
2.0745	6.64673
2.075	9.36584
2.0755	11.58142
2.076	11.48071
2.0765	9.16443
2.077	10.57434
2.0775	12.38708
2.078	10.47363
2.0785	9.66797
2.079	4.73328
2.0795	11.98425
2.08	10.77576
2.0805	15.00549
2.081	9.16443
2.0815	8.56018
2.082	7.15027
2.0825	4.53186
2.083	8.56018
2.0835	5.74036
2.084	4.22974
2.0845	8.96301
2.085	9.86938
2.0855	9.56726
2.086	2.21558
2.0865	10.27222
2.087	11.38
2.0875	4.53186
2.088	12.48779
2.0885	11.2793
2.089	8.35876
2.0895	8.25806
2.09	6.2439
2.0905	9.16443
2.091	6.64673
2.0915	9.97009
2.092	8.66089
2.0925	8.56018
2.093	14.09912
2.0935	11.78284
2.094	15.40833
2.0945	9.16443
2.095	14.80408
2.0955	14.40125
2.096	11.88354
2.0965	11.58142
2.097	11.98425
2.0975	14.30054
2.098	14.80408
2.0985	12.28638
2.099	15.50903
2.0995	16.21399
2.1	13.19275
2.1005	9.76868
2.101	9.46655
2.1015	15.40833
2.102	14.80408
2.1025	14.70337
2.103	11.58142
2.1035	11.38
2.104	5.74036
2.1045	10.57434
2.105	16.01257
2.1055	11.98425
2.106	11.17859
2.1065	12.89062
2.107	8.8623
2.1075	14.70337
2.108	17.42249
2.1085	19.94019
2.109	23.06213
2.1095	19.03381
2.11	20.94727
2.1105	18.8324
2.111	17.12036
2.1115	10.97717
2.112	12.78992
2.1125	14.40125
2.113	14.50195
2.1135	11.58142
2.114	8.15735
2.1145	10.97717
2.115	6.54602
2.1155	8.25806
2.116	8.7616
2.1165	13.99841
2.117	8.45947
2.1175	9.36584
2.118	8.66089
2.1185	9.06372
2.119	4.93469
2.1195	9.46655
2.12	-1.81274
2.1205	2.41699
2.121	0
2.1215	4.33044
2.122	8.66089
2.1225	8.25806
2.123	6.14319
2.1235	10.47363
2.124	11.88354
2.1245	15.30762
2.125	11.88354
2.1255	14.60266
2.126	19.43665
2.1265	24.27063
2.127	25.98267
2.1275	21.04797
2.128	28.29895
2.1285	33.9386
2.129	31.62231
2.1295	26.3855
2.13	24.16992
2.1305	11.58142
2.131	14.19983
2.1315	18.93311
2.132	11.98425
2.1325	15.20691
2.133	21.04797
2.1335	21.65222
2.134	21.45081
2.1345	25.177
2.135	19.33594
2.1355	10.97717
2.136	10.0708
2.1365	1.51062
2.137	1.40991
2.1375	-8.05664
2.138	-8.45947
2.1385	-5.84106
2.139	-3.12195
2.1395	7.15027
2.14	9.06372
2.1405	12.5885
2.141	18.93311
2.1415	29.00391
2.142	32.7301
2.1425	34.64355
2.143	41.69312
2.1435	30.81665
2.144	21.14868
2.1445	20.64514
2.145	18.32886
2.1455	12.89062
2.146	6.94885
2.1465	3.02124
2.147	-9.76868
2.1475	-16.71753
2.148	-15.50903
2.1485	-20.54443
2.149	-19.13452
2.1495	-19.73877
2.15	-20.54443
2.1505	-10.37292
2.151	-7.65381
2.1515	-0.30212
2.152	-6.94885
2.1525	-5.84106
2.153	-6.54602
2.1535	-10.17151
2.154	-5.33752
2.1545	-1.2085
2.155	-0.90637
2.1555	5.53894
2.156	5.63965
2.1565	1.40991
2.157	-6.04248
2.1575	-9.16443
2.158	0.20142
2.1585	3.22266
2.159	7.25098
2.1595	12.08496
2.16	16.01257
2.1605	11.38
2.161	3.8269
2.1615	-1.3092
2.162	-2.11487
2.1625	-11.58142
2.163	-12.99133
2.1635	-23.26355
2.164	-24.67346
2.1645	-22.76001
2.165	-12.18567
2.1655	-7.85522
2.166	-3.62549
2.1665	-7.95593
2.167	-3.32336
2.1675	-2.71912
2.168	-2.92053
2.1685	-10.77576
2.169	-5.53894
2.1695	-12.5885
2.17	-8.25806
2.1705	-5.13611
2.171	-5.74036
2.1715	-11.07788
2.172	-12.68921
2.1725	-18.02673
2.173	-18.22815
2.1735	-13.49487
2.174	-12.78992
2.1745	-18.53027
2.175	-16.81824
2.1755	-15.50903
2.176	-15.71045
2.1765	-17.12036
2.177	-12.89062
2.1775	-7.65381
2.178	-6.94885
2.1785	-6.3446
2.179	2.61841
2.1795	-2.31628
2.18	4.33044
2.1805	1.3092
2.181	0.30212
2.1815	5.0354
2.182	3.42407
2.1825	8.25806
2.183	4.43115
2.1835	4.02832
2.184	2.41699
2.1845	-4.43115
2.185	-11.17859
2.1855	-11.38
2.186	-17.42249
2.1865	-18.22815
2.187	-17.42249
2.1875	-17.6239
2.188	-13.99841
2.1885	-15.1062
2.189	-17.72461
2.1895	-5.53894
2.19	-6.14319
2.1905	3.52478
2.191	6.84814
2.1915	-7.75452
2.192	-14.50195
2.1925	-17.01965
2.193	-18.53027
2.1935	-21.95435
2.194	-20.04089
2.1945	-20.64514
2.195	-14.70337
2.1955	-7.5531
2.196	-3.62549
2.1965	4.63257
2.197	1.61133
2.1975	-5.53894
2.198	-32.32727
2.1985	-55.99365
2.199	-66.16516
2.1995	-66.6687
2.2	-61.83472
2.2005	-44.41223
2.201	-29.40674
2.2015	-18.12744
2.202	0.40283
2.2025	-6.74744
2.203	-0.70496
2.2035	-0.60425
2.204	-7.15027
2.2045	-15.20691
2.205	-21.45081
2.2055	-21.04797
2.206	-19.33594
2.2065	-22.76001
2.207	-12.99133
2.2075	-5.84106
2.208	-0.50354
2.2085	7.45239
2.209	1.71204
2.2095	-6.74744
2.21	-0.80566
2.2105	4.93469
2.211	10.97717
2.2115	18.8324
2.212	22.15576
2.2125	31.21948
2.213	33.23364
2.2135	44.61365
2.214	41.99524
2.2145	43.60657
2.215	40.78674
2.2155	46.82922
2.216	51.46179
2.2165	50.05188
2.217	49.34692
2.2175	45.72144
2.218	47.63489
2.2185	47.33276
2.219	41.29028
2.2195	47.23206
2.22	51.76392
2.2205	54.88586
2.221	47.53418
2.2215	35.54993
2.222	32.62939
2.2225	29.30603
2.223	20.54443
2.2235	26.18408
2.224	20.84656
2.2245	18.02673
2.225	11.48071
2.2255	10.17151
2.226	8.96301
2.2265	9.46655
2.227	10.47363
2.2275	2.71912
2.228	0
2.2285	-1.40991
2.229	4.53186
2.2295	4.43115
2.23	6.2439
2.2305	6.64673
2.231	8.15735
2.2315	5.33752
2.232	2.61841
2.2325	2.71912
2.233	-4.12903
2.2335	-11.2793
2.234	-10.47363
2.2345	-1.3092
2.235	2.31628
2.2355	5.13611
2.236	4.73328
2.2365	1.91345
2.237	-5.43823
2.2375	-15.71045
2.238	-40.98816
2.2385	-54.18091
2.239	-60.92834
2.2395	-67.07153
2.24	-69.99207
2.2405	-70.29419
2.241	-68.58215
2.2415	-87.91809
2.242	-116.61987
2.2425	-133.43811
2.243	-136.76147
2.2435	-118.93616
2.244	-102.72217
2.2445	-70.59631
2.245	-39.77966
2.2455	-6.94885
2.246	26.08337
2.2465	50.05188
2.247	77.74658
2.2475	96.17615
2.248	106.75049
2.2485	108.56323
2.249	103.82996
2.2495	92.85278
2.25	80.06287
2.2505	76.53809
2.251	68.17932
2.2515	65.15808
2.252	58.20923
2.2525	51.5625
2.253	47.23206
2.2535	39.37683
2.254	21.24939
2.2545	16.61682
2.255	13.19275
2.2555	17.42249
2.256	24.06921
2.2565	22.55859
2.257	18.42957
2.2575	15.91187
2.258	8.66089
2.2585	-8.25806
2.259	-14.60266
2.2595	-24.06921
2.26	-27.39258
2.2605	-27.79541
2.261	-30.11169
2.2615	-24.87488
2.262	-22.35718
2.2625	-13.39417
2.263	-0.10071
2.2635	8.96301
2.264	15.60974
2.2645	15.40833
2.265	27.49329
2.2655	33.83789
2.266	44.41223
2.2665	45.3186
2.267	44.91577
2.2675	46.72852
2.268	42.7002
2.2685	43.60657
2.269	28.9032
2.2695	21.95435
2.27	17.42249
2.2705	13.69629
2.271	13.59558
2.2715	14.90479
2.272	19.94019
2.2725	21.14868
2.273	27.59399
2.2735	21.45081
2.274	18.93311
2.2745	8.45947
2.275	8.45947
2.2755	-0.20142
2.276	-8.45947
2.2765	-20.44373
2.277	-23.46497
2.2775	-29.91028
2.278	-26.58691
2.2785	-24.67346
2.279	-19.83948
2.2795	-15.30762
2.28	-9.16443
2.2805	-1.71204
2.281	10.0708
2.2815	14.30054
2.282	13.69629
2.2825	24.57275
2.283	18.53027
2.2835	16.91895
2.284	18.32886
2.2845	13.49487
2.285	12.18567
2.2855	11.88354
2.286	6.94885
2.2865	9.06372
2.287	1.91345
2.2875	3.32336
2.288	3.12195
2.2885	5.53894
2.289	5.43823
2.2895	9.46655
2.29	11.68213
2.2905	6.04248
2.291	5.63965
2.2915	13.89771
2.292	13.49487
2.2925	6.3446
2.293	0.30212
2.2935	3.7262
2.294	-5.23682
2.2945	-8.25806
2.295	-6.84814
2.2955	-7.25098
2.296	-8.96301
2.2965	-6.94885
2.297	-5.0354
2.2975	1.51062
2.298	5.53894
2.2985	-0.70496
2.299	0.40283
2.2995	-2.5177
2.3	-0.40283
2.3005	-2.31628
2.301	-10.0708
2.3015	-17.01965
2.302	-14.80408
2.3025	-4.73328
2.303	-1.2085
2.3035	0.30212
2.304	5.53894
2.3045	13.09204
2.305	10.77576
2.3055	11.68213
2.306	18.93311
2.3065	15.40833
2.307	13.89771
2.3075	9.86938
2.308	8.8623
2.3085	5.23682
2.309	5.33752
2.3095	5.13611
2.31	1.2085
2.3105	4.22974
2.311	4.12903
2.3115	5.13611
2.312	-1.10779
2.3125	-3.7262
2.313	-5.13611
2.3135	-5.23682
2.314	-1.81274
2.3145	-3.62549
2.315	-1.2085
2.3155	-1.81274
2.316	-3.12195
2.3165	1.51062
2.317	-2.01416
2.3175	-2.11487
2.318	-3.62549
2.3185	-2.31628
2.319	-1.40991
2.3195	2.41699
2.32	5.33752
2.3205	5.53894
2.321	6.54602
2.3215	6.44531
2.322	11.2793
2.3225	10.47363
2.323	6.3446
2.3235	17.72461
2.324	7.45239
2.3245	13.797
2.325	12.68921
2.3255	17.92603
2.326	12.89062
2.3265	16.01257
2.327	17.32178
2.3275	13.69629
2.328	11.38
2.3285	7.35168
2.329	11.98425
2.3295	7.65381
2.33	9.16443
2.3305	12.08496
2.331	10.0708
2.3315	9.76868
2.332	11.17859
2.3325	13.49487
2.333	10.17151
2.3335	7.35168
2.334	6.14319
2.3345	9.97009
2.335	9.56726
2.3355	12.68921
2.336	10.27222
2.3365	7.95593
2.337	10.0708
2.3375	9.06372
2.338	0.50354
2.3385	6.2439
2.339	0.50354
2.3395	2.41699
2.34	-4.53186
2.3405	0.50354
2.341	-4.02832
2.3415	-1.40991
2.342	0.10071
2.3425	-4.33044
2.343	0.50354
2.3435	8.96301
2.344	9.76868
2.3445	15.40833
2.345	18.42957
2.3455	15.91187
2.346	15.40833
2.3465	17.32178
2.347	17.72461
2.3475	19.83948
2.348	14.40125
2.3485	12.89062
2.349	10.87646
2.3495	9.76868
2.35	7.5531
2.3505	8.35876
2.351	8.96301
2.3515	8.45947
2.352	4.02832
2.3525	2.81982
2.353	-0.60425
2.3535	7.5531
2.354	-0.80566
2.3545	7.35168
2.355	2.81982
2.3555	2.11487
2.356	2.81982
2.3565	3.92761
2.357	4.53186
2.3575	2.71912
2.358	7.65381
2.3585	4.22974
2.359	3.52478
2.3595	4.73328
2.36	2.71912
2.3605	5.74036
2.361	0.90637
2.3615	3.92761
2.362	7.35168
2.3625	2.21558
2.363	3.22266
2.3635	3.42407
2.364	-2.31628
2.3645	2.41699
2.365	5.84106
2.3655	3.22266
2.366	8.35876
2.3665	5.63965
2.367	1.40991
2.3675	11.58142
2.368	7.15027
2.3685	5.43823
2.369	7.45239
2.3695	7.15027
2.37	5.53894
2.3705	5.43823
2.371	6.04248
2.3715	10.27222
2.372	11.07788
2.3725	13.09204
2.373	5.13611
2.3735	-0.70496
2.374	-10.17151
2.3745	-18.12744
2.375	-27.79541
2.3755	-33.33435
2.376	-35.54993
2.3765	-36.55701
2.377	-31.32019
2.3775	-32.32727
2.378	-28.29895
2.3785	-23.16284
2.379	-14.70337
2.3795	-10.27222
2.38	-3.42407
2.3805	4.02832
2.381	10.27222
2.3815	10.0708
2.382	21.3501
2.3825	20.74585
2.383	26.88904
2.3835	25.07629
2.384	23.76709
2.3845	29.10461
2.385	29.00391
2.3855	29.20532
2.386	31.62231
2.3865	31.21948
2.387	26.08337
2.3875	17.6239
2.388	6.84814
2.3885	-12.5885
2.389	-21.75293
2.3895	-30.31311
2.39	-37.66479
2.3905	-31.32019
2.391	-28.50037
2.3915	-29.80957
2.392	-36.65771
2.3925	-35.2478
2.393	-27.99683
2.3935	-19.03381
2.394	-21.55151
2.3945	-14.90479
2.395	-12.28638
2.3955	0.60425
2.396	13.39417
2.3965	25.98267
2.397	26.98975
2.3975	14.30054
2.398	3.7262
2.3985	-8.15735
2.399	-7.04956
2.3995	-3.7262
2.4	-3.02124
2.4005	-3.02124
2.401	15.40833
2.4015	20.64514
2.402	30.91736
2.4025	34.54285
2.403	45.92285
2.4035	45.92285
2.404	44.71436
2.4045	45.82214
2.405	49.34692
2.4055	44.0094
2.406	46.12427
2.4065	45.62073
2.407	43.80798
2.4075	39.47754
2.408	35.34851
2.4085	15.00549
2.409	1.51062
2.4095	-4.83398
2.41	-13.69629
2.4105	-18.8324
2.411	-17.32178
2.4115	-9.76868
2.412	-11.78284
2.4125	-8.56018
2.413	-6.04248
2.4135	1.10779
2.414	4.22974
2.4145	2.71912
2.415	6.2439
2.4155	8.25806
2.416	12.28638
2.4165	8.56018
2.417	9.26514
2.4175	13.09204
2.418	11.68213
2.4185	7.15027
2.419	9.97009
2.4195	5.84106
2.42	5.53894
2.4205	4.93469
2.421	9.26514
2.4215	10.47363
2.422	17.22107
2.4225	14.09912
2.423	15.40833
2.4235	17.42249
2.424	17.92603
2.4245	10.67505
2.425	3.02124
2.4255	2.5177
2.426	2.31628
2.4265	-0.50354
2.427	-8.25806
2.4275	-4.63257
2.428	-8.35876
2.4285	-9.66797
2.429	-12.5885
2.4295	-7.15027
2.43	-4.53186
2.4305	-1.2085
2.431	0.90637
2.4315	2.81982
2.432	7.15027
2.4325	6.3446
2.433	7.95593
2.4335	6.14319
2.434	4.22974
2.4345	1.00708
2.435	3.92761
2.4355	-4.53186
2.436	-4.22974
2.4365	-5.74036
2.437	1.00708
2.4375	3.22266
2.438	5.43823
2.4385	10.77576
2.439	10.17151
2.4395	10.27222
2.44	5.43823
2.4405	10.97717
2.441	4.83398
2.4415	0.90637
2.442	3.52478
2.4425	3.02124
2.443	7.45239
2.4435	6.74744
2.444	5.33752
2.4445	10.27222
2.445	10.67505
2.4455	11.78284
2.446	10.27222
2.4465	8.8623
2.447	5.33752
2.4475	6.74744
2.448	10.37292
2.4485	3.8269
2.449	9.36584
2.4495	12.89062
2.45	11.58142
2.4505	8.7616
2.451	6.3446
2.4515	4.33044
2.452	1.61133
2.4525	-1.51062
2.453	-1.91345
2.4535	-5.53894
2.454	-2.81982
2.4545	-6.04248
2.455	-6.94885
2.4555	-11.2793
2.456	-7.45239
2.4565	-5.0354
2.457	-10.87646
2.4575	-11.07788
2.458	-13.29346
2.4585	-8.25806
2.459	-7.45239
2.4595	-7.04956
2.46	-9.97009
2.4605	-12.18567
2.461	-7.85522
2.4615	-3.62549
2.462	-0.50354
2.4625	-0.40283
2.463	-0.80566
2.4635	-5.23682
2.464	-3.32336
2.4645	3.7262
2.465	12.78992
2.4655	15.81116
2.466	18.93311
2.4665	17.12036
2.467	18.42957
2.4675	13.09204
2.468	9.66797
2.4685	0
2.469	-3.32336
2.4695	-2.92053
2.47	-2.5177
2.4705	-2.81982
2.471	1.71204
2.4715	6.74744
2.472	4.22974
2.4725	9.76868
2.473	4.63257
2.4735	-1.61133
2.474	-13.69629
2.4745	-11.68213
2.475	1.91345
2.4755	-2.71912
2.476	-9.16443
2.4765	33.13293
2.477	60.02197
2.4775	67.8772
2.478	60.62622
2.4785	60.52551
2.479	55.08728
2.4795	36.35559
2.48	20.64514
2.4805	4.33044
2.481	-10.47363
2.4815	-16.61682
2.482	-25.57983
2.4825	-37.16125
2.483	-36.55701
2.4835	-39.27612
2.484	-35.54993
2.4845	-34.14001
2.485	-29.91028
2.4855	-26.88904
2.486	-24.27063
2.4865	-14.70337
2.487	-14.90479
2.4875	-9.36584
2.488	-8.05664
2.4885	-7.85522
2.489	-6.2439
2.4895	-3.42407
2.49	-6.54602
2.4905	-4.33044
2.491	-0.50354
2.4915	3.02124
2.492	-0.10071
2.4925	6.84814
2.493	7.45239
2.4935	4.63257
2.494	9.46655
2.4945	6.74744
2.495	4.63257
2.4955	5.13611
2.496	4.93469
2.4965	4.02832
2.497	1.40991
2.4975	1.00708
2.498	6.2439
2.4985	9.16443
2.499	5.74036
2.4995	9.66797
2.5	13.99841
2.5005	13.09204
2.501	20.1416
2.5015	22.35718
2.502	18.12744
2.5025	16.61682
2.503	15.81116
2.5035	16.41541
2.504	18.53027
2.5045	21.04797
2.505	17.22107
2.5055	12.38708
2.506	8.35876
2.5065	9.97009
2.507	9.26514
2.5075	10.0708
2.508	9.56726
2.5085	6.04248
2.509	4.33044
2.5095	5.0354
2.51	-5.13611
2.5105	-4.93469
2.511	-4.53186
2.5115	-1.3092
2.512	1.00708
2.5125	2.01416
2.513	1.00708
2.5135	8.8623
2.514	8.8623
2.5145	7.15027
2.515	-3.32336
2.5155	-6.44531
2.516	3.8269
2.5165	2.61841
2.517	5.84106
2.5175	4.63257
2.518	18.22815
2.5185	22.6593
2.519	8.35876
2.5195	8.66089
2.52	7.65381
2.5205	2.71912
2.521	-1.71204
2.5215	-7.85522
2.522	-20.34302
2.5225	-21.04797
2.523	-24.87488
2.5235	-23.16284
2.524	-19.03381
2.5245	-12.08496
2.525	-5.0354
2.5255	0.70496
2.526	16.21399
2.5265	28.29895
2.527	30.81665
2.5275	21.95435
2.528	8.96301
2.5285	6.64673
2.529	1.81274
2.5295	-2.5177
2.53	-10.17151
2.5305	1.00708
2.531	-3.52478
2.5315	2.71912
2.532	10.17151
2.5325	5.53894
2.533	8.15735
2.5335	12.48779
2.534	9.76868
2.5345	13.89771
2.535	19.23523
2.5355	13.09204
2.536	21.24939
2.5365	23.36426
2.537	27.49329
2.5375	25.27771
2.538	24.67346
2.5385	21.3501
2.539	20.34302
2.5395	22.96143
2.54	18.53027
2.5405	9.06372
2.541	9.76868
2.5415	11.98425
2.542	13.89771
2.5425	10.57434
2.543	14.50195
2.5435	9.66797
2.544	9.66797
2.5445	14.09912
2.545	8.96301
2.5455	5.63965
2.546	11.88354
2.5465	9.66797
2.547	4.53186
2.5475	5.53894
2.548	7.95593
2.5485	6.44531
2.549	5.13611
2.5495	4.33044
2.55	3.92761
2.5505	4.43115
2.551	7.25098
2.5515	8.45947
2.552	8.96301
2.5525	4.63257
2.553	4.93469
2.5535	5.13611
2.554	-3.92761
2.5545	-5.94177
2.555	-19.83948
2.5555	-12.68921
2.556	-11.17859
2.5565	-10.17151
2.557	-7.65381
2.5575	-0.10071
2.558	1.40991
2.5585	0.50354
2.559	10.87646
2.5595	47.7356
2.56	106.44836
2.5605	133.13599
2.561	140.28625
2.5615	125.28076
2.562	98.59314
2.5625	67.67578
2.563	43.50586
2.5635	68.58215
2.564	132.33032
2.5645	149.14856
2.565	143.20679
2.5655	110.17456
2.566	76.7395
2.5665	34.34143
2.567	-12.18567
2.5675	-49.74976
2.568	-77.04163
2.5685	-104.13208
2.569	-127.29492
2.5695	-147.03369
2.57	-171.20361
2.5705	-175.03052
2.571	-165.46326
2.5715	-155.29175
2.572	-137.0636
2.5725	-139.78271
2.573	-130.61829
2.5735	-119.03687
2.574	-95.87402
2.5745	-78.55225
2.575	-59.01489
2.5755	-36.95984
2.576	-21.85364
2.5765	-13.09204
2.577	1.81274
2.5775	10.47363
2.578	27.19116
2.5785	34.64355
2.579	39.07471
2.5795	35.2478
2.58	36.05347
2.5805	32.83081
2.581	32.32727
2.5815	21.14868
2.582	12.99133
2.5825	-8.66089
2.583	-30.61523
2.5835	-2.61841
2.584	8.7616
2.5845	44.91577
2.585	140.78979
2.5855	190.23743
2.586	181.67725
2.5865	150.15564
2.587	124.17297
2.5875	91.14075
2.588	58.20923
2.5885	29.40674
2.589	6.84814
2.5895	-19.73877
2.59	-35.85205
2.5905	-46.32568
2.591	-54.38232
2.5915	-55.99365
2.592	-36.25488
2.5925	-20.34302
2.593	-6.94885
2.5935	13.19275
2.594	34.74426
2.5945	79.15649
2.595	88.72375
2.5955	89.93225
2.596	82.88269
2.5965	78.65295
2.597	74.52393
2.5975	69.99207
2.598	45.52002
2.5985	18.73169
2.599	2.01416
2.5995	-19.83948
2.6	-39.67896
2.6005	-49.85046
2.601	-50.95825
2.6015	-45.82214
2.602	-41.4917
2.6025	-34.74426
2.603	-26.08337
2.6035	-12.28638
2.604	-10.17151
2.6045	-2.5177
2.605	2.81982
2.6055	0.20142
2.606	-5.0354
2.6065	-4.12903
2.607	-10.57434
2.6075	-7.5531
2.608	-8.8623
2.6085	-7.65381
2.609	-2.01416
2.6095	-8.35876
2.61	-4.63257
2.6105	-4.22974
2.611	0.30212
2.6115	3.62549
2.612	0.10071
2.6125	0
2.613	-5.23682
2.6135	-4.02832
2.614	-3.52478
2.6145	-10.0708
2.615	-17.6239
2.6155	-16.91895
2.616	-11.17859
2.6165	-18.42957
2.617	-7.85522
2.6175	-6.44531
2.618	-6.74744
2.6185	-0.90637
2.619	1.00708
2.6195	-3.22266
2.62	-9.46655
2.6205	-9.26514
2.621	-6.44531
2.6215	1.10779
2.622	7.25098
2.6225	7.95593
2.623	11.68213
2.6235	12.78992
2.624	5.0354
2.6245	4.22974
2.625	6.44531
2.6255	-0.40283
2.626	-3.7262
2.6265	-2.71912
2.627	-1.40991
2.6275	4.73328
2.628	1.51062
2.6285	5.33752
2.629	6.2439
2.6295	1.91345
2.63	6.44531
2.6305	21.75293
2.631	38.16833
2.6315	47.13135
2.632	51.15967
2.6325	43.40515
2.633	37.46338
2.6335	24.06921
2.634	14.50195
2.6345	13.89771
2.635	10.67505
2.6355	10.87646
2.636	8.15735
2.6365	11.88354
2.637	-0.60425
2.6375	4.43115
2.638	3.92761
2.6385	-0.80566
2.639	1.2085
2.6395	0.80566
2.64	-1.91345
2.6405	10.47363
2.641	14.40125
2.6415	16.51611
2.642	19.23523
2.6425	19.03381
2.643	18.12744
2.6435	16.21399
2.644	18.42957
2.6445	19.43665
2.645	19.13452
2.6455	10.27222
2.646	6.44531
2.6465	14.90479
2.647	5.43823
2.6475	1.91345
2.648	5.43823
2.6485	10.47363
2.649	16.91895
2.6495	13.59558
2.65	16.11328
2.6505	11.48071
2.651	9.76868
2.6515	13.99841
2.652	9.86938
2.6525	18.02673
2.653	20.34302
2.6535	17.12036
2.654	16.81824
2.6545	16.71753
2.655	14.19983
2.6555	10.0708
2.656	13.59558
2.6565	11.17859
2.657	12.48779
2.6575	16.11328
2.658	12.28638
2.6585	5.53894
2.659	1.71204
2.6595	5.13611
2.66	8.25806
2.6605	13.49487
2.661	10.77576
2.6615	10.77576
2.662	7.25098
2.6625	7.04956
2.663	11.78284
2.6635	11.78284
2.664	8.96301
2.6645	9.06372
2.665	4.43115
2.6655	11.38
2.666	7.85522
2.6665	9.86938
2.667	4.63257
2.6675	6.94885
2.668	12.99133
2.6685	6.2439
2.669	6.04248
2.6695	9.97009
2.67	5.74036
2.6705	7.45239
2.671	8.96301
2.6715	6.74744
2.672	9.16443
2.6725	6.3446
2.673	5.63965
2.6735	6.14319
2.674	4.12903
2.6745	7.15027
2.675	6.14319
2.6755	3.8269
2.676	4.33044
2.6765	3.02124
2.677	7.35168
2.6775	1.2085
2.678	4.53186
2.6785	1.91345
2.679	9.66797
2.6795	3.22266
2.68	8.05664
2.6805	6.84814
2.681	7.75452
2.6815	7.35168
2.682	4.12903
2.6825	2.21558
2.683	0.20142
2.6835	2.41699
2.684	5.94177
2.6845	4.43115
2.685	3.52478
2.6855	-0.50354
2.686	1.71204
2.6865	4.12903
2.687	5.0354
2.6875	-6.54602
2.688	-5.94177
2.6885	-1.40991
2.689	3.02124
2.6895	5.53894
2.69	7.65381
2.6905	7.85522
2.691	9.56726
2.6915	10.17151
2.692	5.13611
2.6925	9.97009
2.693	10.17151
2.6935	8.35876
2.694	8.96301
2.6945	8.05664
2.695	7.75452
2.6955	1.00708
2.696	3.62549
2.6965	7.85522
2.697	7.45239
2.6975	9.97009
2.698	-1.51062
2.6985	1.51062
2.699	2.21558
2.6995	4.63257
2.7	12.48779
2.7005	8.15735
2.701	-0.60425
2.7015	7.25098
2.702	8.7616
2.7025	10.17151
2.703	3.7262
2.7035	7.95593
2.704	6.44531
2.7045	5.63965
2.705	2.61841
2.7055	4.83398
2.706	4.63257
2.7065	4.93469
2.707	0.30212
2.7075	4.02832
2.708	4.22974
2.7085	0.50354
2.709	11.48071
2.7095	11.07788
2.71	7.65381
2.7105	8.25806
2.711	11.68213
2.7115	9.86938
2.712	7.15027
2.7125	6.94885
2.713	8.96301
2.7135	9.56726
2.714	9.06372
2.7145	3.7262
2.715	6.94885
2.7155	1.81274
2.716	1.71204
2.7165	5.13611
2.717	8.7616
2.7175	5.13611
2.718	11.17859
2.7185	4.22974
2.719	5.0354
2.7195	8.15735
2.72	5.53894
2.7205	7.95593
2.721	11.88354
2.7215	3.7262
2.722	3.8269
2.7225	4.53186
2.723	10.0708
2.7235	10.57434
2.724	14.50195
2.7245	11.48071
2.725	6.54602
2.7255	9.06372
2.726	0.90637
2.7265	2.71912
2.727	9.46655
2.7275	7.15027
2.728	4.93469
2.7285	4.63257
2.729	5.84106
2.7295	5.53894
2.73	7.75452
2.7305	10.77576
2.731	10.17151
2.7315	8.15735
2.732	11.07788
2.7325	3.12195
2.733	7.45239
2.7335	11.38
2.734	9.06372
2.7345	7.95593
2.735	9.46655
2.7355	5.23682
2.736	10.17151
2.7365	6.14319
2.737	7.45239
2.7375	5.74036
2.738	3.02124
2.7385	8.96301
2.739	9.16443
2.7395	3.42407
2.74	6.04248
2.7405	8.35876
2.741	9.36584
2.7415	5.74036
2.742	2.31628
2.7425	1.2085
2.743	-3.22266
2.7435	5.0354
2.744	2.21558
2.7445	-0.50354
2.745	3.22266
2.7455	8.45947
2.746	1.91345
2.7465	9.86938
2.747	6.44531
2.7475	8.96301
2.748	6.64673
2.7485	9.97009
2.749	10.37292
2.7495	15.1062
2.75	12.18567
2.7505	5.0354
2.751	2.71912
2.7515	3.02124
2.752	3.22266
2.7525	3.32336
2.753	2.81982
2.7535	2.5177
2.754	4.22974
2.7545	5.23682
2.755	9.06372
2.7555	10.97717
2.756	12.48779
2.7565	8.15735
2.757	13.89771
2.7575	15.60974
2.758	17.42249
2.7585	16.91895
2.759	19.83948
2.7595	16.01257
2.76	18.63098
2.7605	18.22815
2.761	16.21399
2.7615	16.01257
2.762	7.65381
2.7625	2.31628
2.763	-1.2085
2.7635	1.81274
2.764	-2.61841
2.7645	1.40991
2.765	4.43115
2.7655	7.25098
2.766	8.15735
2.7665	12.68921
2.767	6.2439
2.7675	8.15735
2.768	10.47363
2.7685	5.43823
2.769	8.8623
2.7695	2.81982
2.77	8.15735
2.7705	7.04956
2.771	13.09204
2.7715	9.86938
2.772	4.73328
2.7725	9.06372
2.773	13.69629
2.7735	9.16443
2.774	11.78284
2.7745	15.20691
2.775	9.56726
2.7755	9.97009
2.776	5.23682
2.7765	9.06372
2.777	6.44531
2.7775	7.15027
2.778	7.25098
2.7785	1.40991
2.779	6.04248
2.7795	3.12195
2.78	0.90637
2.7805	-2.01416
2.781	3.22266
2.7815	-4.02832
2.782	-3.02124
2.7825	-1.3092
2.783	-1.00708
2.7835	-4.12903
2.784	-1.91345
2.7845	-2.21558
2.785	6.04248
2.7855	8.8623
2.786	13.49487
2.7865	8.15735
2.787	15.81116
2.7875	18.63098
2.788	17.42249
2.7885	18.8324
2.789	26.68762
2.7895	21.3501
2.79	26.88904
2.7905	23.26355
2.791	22.45789
2.7915	19.23523
2.792	17.01965
2.7925	19.53735
2.793	17.12036
2.7935	20.94727
2.794	16.61682
2.7945	14.09912
2.795	13.09204
2.7955	11.88354
2.796	11.2793
2.7965	13.09204
2.797	6.44531
2.7975	7.5531
2.798	7.35168
2.7985	9.56726
2.799	7.5531
2.7995	4.93469
2.8	7.35168
2.8005	4.63257
2.801	0.40283
2.8015	-0.30212
2.802	-1.2085
2.8025	-3.12195
2.803	-3.92761
2.8035	-5.33752
2.804	-11.17859
2.8045	-10.27222
2.805	-8.8623
2.8055	2.31628
2.806	5.74036
2.8065	2.5177
2.807	0.80566
2.8075	-2.01416
2.808	0.60425
2.8085	2.92053
2.809	2.41699
2.8095	2.31628
2.81	7.5531
2.8105	8.25806
2.811	10.0708
2.8115	12.5885
2.812	7.25098
2.8125	8.25806
2.813	7.75452
2.8135	12.68921
2.814	14.09912
2.8145	23.16284
2.815	12.08496
2.8155	9.76868
2.816	7.25098
2.8165	11.78284
2.817	10.87646
2.8175	13.09204
2.818	11.98425
2.8185	8.96301
2.819	6.64673
2.8195	4.83398
2.82	4.43115
2.8205	4.93469
2.821	7.04956
2.8215	0.50354
2.822	-2.21558
2.8225	-6.14319
2.823	-7.5531
2.8235	-3.32336
2.824	-5.0354
2.8245	-4.83398
2.825	-0.50354
2.8255	0.70496
2.826	0.70496
2.8265	-3.12195
2.827	-10.47363
2.8275	-16.41541
2.828	-26.3855
2.8285	-28.50037
2.829	-29.80957
2.8295	-29.70886
2.83	-21.3501
2.8305	-26.48621
2.831	-19.73877
2.8315	-17.42249
2.832	-13.29346
2.8325	-10.67505
2.833	-32.12585
2.8335	-7.5531
2.834	34.54285
2.8345	50.55542
2.835	53.67737
2.8355	20.34302
2.836	-26.98975
2.8365	-51.26038
2.837	-54.88586
2.8375	-55.69153
2.838	-62.13684
2.8385	-66.56799
2.839	-81.67419
2.8395	-85.5011
2.84	-86.00464
2.8405	-83.08411
2.841	-73.11401
2.8415	-57.40356
2.842	-42.90161
2.8425	-24.97559
2.843	-7.15027
2.8435	17.52319
2.844	44.61365
2.8445	48.54126
2.845	58.61206
2.8455	74.02039
2.846	88.92517
2.8465	80.16357
2.847	69.08569
2.8475	50.95825
2.848	48.44055
2.8485	42.7002
2.849	45.82214
2.8495	65.46021
2.85	77.64587
2.8505	84.19189
2.851	89.93225
2.8515	89.63013
2.852	86.00464
2.8525	79.66003
2.853	77.64587
2.8535	77.64587
2.854	70.69702
2.8545	75.63171
2.855	69.28711
2.8555	68.78357
2.856	70.49561
2.8565	60.12268
2.857	58.91418
2.8575	59.01489
2.858	52.771
2.8585	40.88745
2.859	30.01099
2.8595	24.06921
2.86	20.34302
2.8605	13.99841
2.861	7.5531
2.8615	9.66797
2.862	14.70337
2.8625	11.07788
2.863	14.90479
2.8635	5.74036
2.864	2.92053
2.8645	3.32336
2.865	-4.33044
2.8655	-2.71912
2.866	1.2085
2.8665	2.5177
2.867	2.92053
2.8675	-0.20142
2.868	-1.40991
2.8685	-6.94885
2.869	-13.99841
2.8695	-12.08496
2.87	4.93469
2.8705	15.91187
2.871	9.86938
2.8715	13.09204
2.872	6.54602
2.8725	-4.63257
2.873	-13.59558
2.8735	-19.13452
2.874	-4.02832
2.8745	25.47913
2.875	28.80249
2.8755	12.5885
2.876	2.81982
2.8765	-9.36584
2.877	-18.12744
2.8775	-35.44922
2.878	-48.13843
2.8785	-57.70569
2.879	-65.15808
2.8795	-64.65454
2.88	-60.3241
2.8805	-65.86304
2.881	-60.72693
2.8815	-54.68445
2.882	-46.12427
2.8825	-41.18958
2.883	-41.69312
2.8835	-35.04639
2.884	-31.52161
2.8845	-29.40674
2.885	-35.75134
2.8855	-48.13843
2.886	-1.81274
2.8865	64.85596
2.887	147.1344
2.8875	186.20911
2.888	192.95654
2.8885	161.73706
2.889	130.41687
2.8895	88.11951
2.89	44.51294
2.8905	-3.7262
2.891	-50.55542
2.8915	-74.12109
2.892	-98.39172
2.8925	-121.25244
2.893	-139.17847
2.8935	-140.58838
2.894	-123.36731
2.8945	-110.98022
2.895	-97.48535
2.8955	-70.3949
2.896	-46.5271
2.8965	-21.3501
2.897	-15.81116
2.8975	-22.76001
2.898	-19.03381
2.8985	-9.97009
2.899	-4.43115
2.8995	-8.15735
2.9	-13.59558
2.9005	-17.12036
2.901	-17.82532
2.9015	-19.94019
2.902	-15.71045
2.9025	-11.17859
2.903	-2.31628
2.9035	0.60425
2.904	11.48071
2.9045	22.86072
2.905	44.31152
2.9055	49.14551
2.906	49.34692
2.9065	46.32568
2.907	39.88037
2.9075	47.43347
2.908	39.27612
2.9085	34.54285
2.909	15.71045
2.9095	-8.7616
2.91	-29.80957
2.9105	-31.32019
2.911	-41.18958
2.9115	-40.48462
2.912	-39.27612
2.9125	-35.14709
2.913	-33.33435
2.9135	-38.26904
2.914	-34.24072
2.9145	-39.57825
2.915	-31.82373
2.9155	-14.80408
2.916	73.71826
2.9165	153.479
2.917	189.53247
2.9175	183.48999
2.918	154.88892
2.9185	127.19421
2.919	88.82446
2.9195	52.67029
2.92	25.88196
2.9205	6.64673
2.921	-26.58691
2.9215	-51.86462
2.922	-68.48145
2.9225	-73.01331
2.923	-74.12109
2.9235	-66.97083
2.924	-55.2887
2.9245	-37.26196
2.925	-22.76001
2.9255	1.3092
2.926	9.06372
2.9265	12.78992
2.927	17.92603
2.9275	29.60815
2.928	26.28479
2.9285	32.12585
2.929	34.84497
2.9295	39.07471
2.93	41.18958
2.9305	46.02356
2.931	47.13135
2.9315	38.06763
2.932	27.09045
2.9325	17.12036
2.933	11.38
2.9335	10.97717
2.934	-0.10071
2.9345	-8.56018
2.935	-21.95435
2.9355	-27.39258
2.936	-29.40674
2.9365	-36.55701
2.937	-30.01099
2.9375	-28.29895
2.938	-25.27771
2.9385	-21.85364
2.939	-22.55859
2.9395	-17.42249
2.94	-16.3147
2.9405	-12.78992
2.941	-5.53894
2.9415	-12.08496
2.942	-2.71912
2.9425	-4.93469
2.943	1.91345
2.9435	3.22266
2.944	11.98425
2.9445	14.30054
2.945	12.48779
2.9455	8.7616
2.946	16.11328
2.9465	13.89771
2.947	8.45947
2.9475	13.59558
2.948	13.09204
2.9485	4.73328
2.949	3.7262
2.9495	12.78992
2.95	28.80249
2.9505	105.03845
2.951	182.28149
2.9515	214.30664
2.952	208.7677
2.9525	174.52698
2.953	132.73315
2.9535	88.42163
2.954	39.37683
2.9545	-8.35876
2.955	-46.92993
2.9555	-80.66711
2.956	-103.02429
2.9565	-115.00854
2.957	-117.42554
2.9575	-107.35474
2.958	-98.0896
2.9585	-90.83862
2.959	-72.20764
2.9595	-62.53967
2.96	-55.69153
2.9605	-48.64197
2.961	-51.96533
2.9615	-54.28162
2.962	-49.0448
2.9625	-32.93152
2.963	-22.25647
2.9635	-21.14868
2.964	-9.56726
2.9645	-3.02124
2.965	4.43115
2.9655	8.96301
2.966	12.78992
2.9665	15.60974
2.967	16.71753
2.9675	15.91187
2.968	10.97717
2.9685	-6.64673
2.969	-3.32336
2.9695	12.68921
2.97	10.77576
2.9705	5.53894
2.971	-0.90637
2.9715	-7.15027
2.972	-32.32727
2.9725	-2.11487
2.973	51.46179
2.9735	100.50659
2.974	127.79846
2.9745	150.65918
2.975	193.96362
2.9755	191.04309
2.976	160.9314
2.9765	117.82837
2.977	78.75366
2.9775	80.4657
2.978	75.63171
2.9785	54.78516
2.979	16.81824
2.9795	-10.37292
2.98	-43.30444
2.9805	-72.20764
2.981	-95.37048
2.9815	-116.61987
2.982	-119.03687
2.9825	-122.15881
2.983	-128.80554
2.9835	-117.02271
2.984	-108.56323
2.9845	-87.61597
2.985	-66.6687
2.9855	-47.43347
2.986	-30.51453
2.9865	-12.68921
2.987	-11.68213
2.9875	-1.81274
2.988	8.56018
2.9885	18.02673
2.989	23.96851
2.9895	27.79541
2.99	32.02515
2.9905	25.07629
2.991	26.98975
2.9915	17.32178
2.992	14.40125
2.9925	16.41541
2.993	11.58142
2.9935	23.06213
2.994	31.01807
2.9945	36.95984
2.995	35.04639
2.9955	34.03931
2.996	31.52161
2.9965	31.21948
2.997	25.47913
2.9975	20.94727
2.998	16.71753
2.9985	16.51611
2.999	14.30054
2.9995	16.01257
3	10.57434
3.0005	14.70337
3.001	12.78992
3.0015	14.50195
3.002	15.20691
3.0025	16.01257
3.003	13.69629
3.0035	9.76868
3.004	9.97009
3.0045	12.78992
3.005	11.2793
3.0055	13.59558
3.006	17.22107
3.0065	14.30054
3.007	10.97717
3.0075	13.59558
3.008	19.53735
3.0085	18.22815
3.009	19.63806
3.0095	19.13452
3.01	18.53027
3.0105	13.89771
3.011	9.06372
3.0115	7.35168
3.012	5.23682
3.0125	-0.10071
3.013	-5.43823
3.0135	-7.85522
3.014	-11.2793
3.0145	-6.64673
3.015	-9.06372
3.0155	-11.38
3.016	-2.11487
3.0165	1.61133
3.017	-6.14319
3.0175	-3.12195
3.018	-1.71204
3.0185	4.93469
3.019	3.62549
3.0195	4.02832
3.02	3.8269
3.0205	19.94019
3.021	31.21948
3.0215	41.89453
3.022	42.90161
3.0225	42.09595
3.023	37.26196
3.0235	34.54285
3.024	28.50037
3.0245	22.76001
3.025	11.2793
3.0255	4.93469
3.026	10.67505
3.0265	6.74744
3.027	-1.51062
3.0275	-1.91345
3.028	34.94568
3.0285	48.13843
3.029	55.18799
3.0295	47.8363
3.03	33.33435
3.0305	18.93311
3.031	-4.43115
3.0315	-20.1416
3.032	-37.96692
3.0325	-48.74268
3.033	-53.07312
3.0335	-66.06445
3.034	-75.02747
3.0345	-77.24304
3.035	-27.49329
3.0355	29.80957
3.036	46.92993
3.0365	48.94409
3.037	45.92285
3.0375	28.9032
3.038	1.51062
3.0385	-11.48071
3.039	-35.14709
3.0395	-57.9071
3.04	-67.47437
3.0405	-65.96375
3.041	-67.77649
3.0415	-49.34692
3.042	-23.96851
3.0425	48.23914
3.043	119.64111
3.0435	165.66467
3.044	172.91565
3.0445	166.0675
3.045	145.01953
3.0455	111.8866
3.046	78.75366
3.0465	42.19666
3.047	14.50195
3.0475	-17.52319
3.048	-39.77966
3.0485	-54.68445
3.049	-56.5979
3.0495	-56.90002
3.05	-51.66321
3.0505	-37.26196
3.051	-15.91187
3.0515	-5.33752
3.052	-1.61133
3.0525	3.52478
3.053	2.81982
3.0535	1.40991
3.054	-5.94177
3.0545	-13.89771
3.055	-28.29895
3.0555	-33.03223
3.056	-34.74426
3.0565	-42.8009
3.057	-47.53418
3.0575	-43.50586
3.058	-38.974
3.0585	-27.29187
3.059	-21.3501
3.0595	-19.33594
3.06	-9.97009
3.0605	-11.98425
3.061	-8.8623
3.0615	-12.28638
3.062	-7.5531
3.0625	-6.54602
3.063	-8.7616
3.0635	-4.02832
3.064	0.40283
3.0645	2.71912
3.065	3.12195
3.0655	6.04248
3.066	17.72461
3.0665	30.51453
3.067	29.70886
3.0675	28.39966
3.068	35.44922
3.0685	26.08337
3.069	20.64514
3.0695	11.98425
3.07	6.3446
3.0705	8.8623
3.071	0.40283
3.0715	2.61841
3.072	-6.14319
3.0725	-6.74744
3.073	1.3092
3.0735	3.7262
3.074	4.53186
3.0745	11.07788
3.075	12.28638
3.0755	9.97009
3.076	26.88904
3.0765	94.56482
3.077	148.24219
3.0775	159.01794
3.078	158.5144
3.0785	156.50024
3.079	137.66785
3.0795	105.94482
3.08	73.31543
3.0805	30.41382
3.081	-10.97717
3.0815	-50.2533
3.082	-51.05896
3.0825	-5.63965
3.083	28.60107
3.0835	82.17773
3.084	126.08643
3.0845	130.31616
3.085	129.5105
3.0855	169.08875
3.086	173.82202
3.0865	132.83386
3.087	71.09985
3.0875	2.71912
3.088	-65.56091
3.0885	-141.89758
3.089	-194.36646
3.0895	-231.12488
3.09	-245.42542
3.0905	-249.25232
3.091	-242.10205
3.0915	-222.5647
3.092	-198.39478
3.0925	-174.42627
3.093	-145.12024
3.0935	-121.35315
3.094	-100.80872
3.0945	-82.07703
3.095	-61.12976
3.0955	-52.16675
3.096	-48.13843
3.0965	-38.36975
3.097	-23.56567
3.0975	-9.36584
3.098	1.2085
3.0985	8.7616
3.099	11.98425
3.0995	19.73877
3.1	25.88196
3.1005	34.84497
3.101	36.85913
3.1015	32.93152
3.102	33.43506
3.1025	34.34143
3.103	38.26904
3.1035	38.36975
3.104	36.4563
3.1045	33.63647
3.105	35.65063
3.1055	34.34143
3.106	28.09753
3.1065	19.63806
3.107	19.73877
3.1075	18.53027
3.108	14.30054
3.1085	16.01257
3.109	16.11328
3.1095	18.32886
3.11	16.51611
3.1105	27.79541
3.111	28.50037
3.1115	33.63647
3.112	31.52161
3.1125	35.2478
3.113	35.95276
3.1135	36.35559
3.114	44.0094
3.1145	50.75684
3.115	46.82922
3.1155	43.10303
3.116	39.98108
3.1165	33.73718
3.117	37.56409
3.1175	29.80957
3.118	29.40674
3.1185	28.19824
3.119	28.39966
3.1195	31.21948
3.12	30.11169
3.1205	26.3855
3.121	19.13452
3.1215	19.63806
3.122	12.68921
3.1225	7.15027
3.123	3.32336
3.1235	-0.70496
3.124	-2.92053
3.1245	-5.84106
3.125	-2.92053
3.1255	-3.22266
3.126	-7.35168
3.1265	-7.5531
3.127	-17.01965
3.1275	-10.97717
3.128	-5.23682
3.1285	-3.62549
3.129	-4.83398
3.1295	-3.92761
3.13	-4.43115
3.1305	-1.2085
3.131	-7.45239
3.1315	-7.45239
3.132	-7.5531
3.1325	-6.2439
3.133	2.81982
3.1335	5.33752
3.134	8.25806
3.1345	2.41699
3.135	7.95593
3.1355	10.67505
3.136	7.5531
3.1365	10.47363
3.137	10.57434
3.1375	12.38708
3.138	13.09204
3.1385	12.38708
3.139	13.39417
3.1395	15.60974
3.14	10.97717
3.1405	9.46655
3.141	9.66797
3.1415	7.25098
3.142	7.75452
3.1425	10.47363
3.143	10.77576
3.1435	13.59558
3.144	12.28638
3.1445	13.29346
3.145	13.69629
3.1455	16.91895
3.146	20.04089
3.1465	15.91187
3.147	19.63806
3.1475	20.94727
3.148	17.82532
3.1485	18.93311
3.149	15.91187
3.1495	12.99133
3.15	17.82532
3.1505	13.09204
3.151	14.30054
3.1515	12.08496
3.152	10.37292
3.1525	5.13611
3.153	5.74036
3.1535	10.57434
3.154	10.0708
3.1545	6.54602
3.155	7.75452
3.1555	11.88354
3.156	10.67505
3.1565	10.87646
3.157	15.40833
3.1575	12.08496
3.158	21.65222
3.1585	13.09204
3.159	12.08496
3.1595	9.26514
3.16	12.89062
3.1605	5.33752
3.161	-2.5177
3.1615	-1.40991
3.162	-8.45947
3.1625	-5.13611
3.163	7.75452
3.1635	24.67346
3.164	26.18408
3.1645	20.34302
3.165	24.27063
3.1655	26.3855
3.166	18.73169
3.1665	14.60266
3.167	13.19275
3.1675	5.63965
3.168	0.30212
3.1685	-1.61133
3.169	-4.33044
3.1695	0.90637
3.17	-1.2085
3.1705	-3.12195
3.171	1.10779
3.1715	5.63965
3.172	18.53027
3.1725	14.50195
3.173	18.22815
3.1735	19.53735
3.174	19.94019
3.1745	18.42957
3.175	10.67505
3.1755	9.06372
3.176	7.95593
3.1765	15.50903
3.177	15.81116
3.1775	13.09204
3.178	14.09912
3.1785	8.35876
3.179	9.86938
3.1795	2.71912
3.18	-4.33044
3.1805	-8.45947
3.181	-12.48779
3.1815	-15.91187
3.182	-12.38708
3.1825	-17.82532
3.183	-15.91187
3.1835	-8.7616
3.184	-5.63965
3.1845	-6.54602
3.185	-0.80566
3.1855	0.40283
3.186	1.61133
3.1865	0
3.187	1.3092
3.1875	0.50354
3.188	5.94177
3.1885	-0.10071
3.189	-0.50354
3.1895	0.60425
3.19	7.45239
3.1905	7.25098
3.191	10.47363
3.1915	4.33044
3.192	6.04248
3.1925	9.86938
3.193	6.04248
3.1935	10.87646
3.194	3.02124
3.1945	4.22974
3.195	8.66089
3.1955	16.81824
3.196	10.27222
3.1965	15.81116
3.197	15.81116
3.1975	11.78284
3.198	13.89771
3.1985	21.75293
3.199	21.95435
3.1995	20.54443
3.2	18.02673
3.2005	21.95435
3.201	23.36426
3.2015	17.12036
3.202	15.40833
3.2025	11.98425
3.203	9.36584
3.2035	10.67505
3.204	7.85522
3.2045	5.0354
3.205	0.40283
3.2055	-1.40991
3.206	-3.62549
3.2065	-2.81982
3.207	-5.94177
3.2075	5.0354
3.208	6.04248
3.2085	12.78992
3.209	16.61682
3.2095	19.23523
3.21	30.71594
3.2105	35.95276
3.211	31.32019
3.2115	30.81665
3.212	23.66638
3.2125	25.37842
3.213	18.93311
3.2135	18.32886
3.214	15.50903
3.2145	5.53894
3.215	-1.00708
3.2155	4.73328
3.216	-3.12195
3.2165	-2.61841
3.217	-9.97009
3.2175	-9.86938
3.218	-12.5885
3.2185	-19.73877
3.219	-30.41382
3.2195	-28.39966
3.22	-29.80957
3.2205	-34.24072
3.221	-35.54993
3.2215	-37.66479
3.222	-42.59949
3.2225	-40.38391
3.223	-39.07471
3.2235	-30.2124
3.224	-26.28479
3.2245	-27.79541
3.225	-18.32886
3.2255	-21.45081
3.226	-17.22107
3.2265	-20.04089
3.227	-12.28638
3.2275	-11.68213
3.228	-11.17859
3.2285	-11.88354
3.229	-17.12036
3.2295	-9.26514
3.23	-5.94177
3.2305	-2.92053
3.231	1.3092
3.2315	2.81982
3.232	7.45239
3.2325	10.37292
3.233	7.85522
3.2335	12.78992
3.234	8.8623
3.2345	14.70337
3.235	15.30762
3.2355	12.99133
3.236	16.21399
3.2365	8.45947
3.237	8.66089
3.2375	9.46655
3.238	10.57434
3.2385	5.94177
3.239	5.74036
3.2395	6.44531
3.24	9.46655
3.2405	9.66797
3.241	8.35876
3.2415	3.22266
3.242	7.65381
3.2425	8.45947
3.243	12.38708
3.2435	5.74036
3.244	2.71912
3.2445	2.41699
3.245	7.5531
3.2455	5.84106
3.246	6.64673
3.2465	8.35876
3.247	5.33752
3.2475	8.25806
3.248	9.36584
3.2485	2.81982
3.249	4.83398
3.2495	2.92053
3.25	-1.3092
3.2505	-3.92761
3.251	-5.23682
3.2515	-4.12903
3.252	3.02124
3.2525	13.49487
3.253	14.70337
3.2535	23.8678
3.254	14.80408
3.2545	19.94019
3.255	23.96851
3.2555	24.57275
3.256	25.68054
3.2565	28.09753
3.257	29.91028
3.2575	24.87488
3.258	30.71594
3.2585	62.03613
3.259	79.76074
3.2595	75.32959
3.26	65.56091
3.2605	68.58215
3.261	54.28162
3.2615	38.67188
3.262	17.32178
3.2625	-0.90637
3.263	-26.3855
3.2635	-42.29736
3.264	-51.05896
3.2645	-47.8363
3.265	-52.56958
3.2655	-40.98816
3.266	-39.57825
3.2665	-23.36426
3.267	-2.81982
3.2675	14.70337
3.268	15.71045
3.2685	3.12195
3.269	-5.0354
3.2695	-14.09912
3.27	-17.72461
3.2705	-23.8678
3.271	-32.02515
3.2715	-47.7356
3.272	-43.00232
3.2725	-37.66479
3.273	-3.42407
3.2735	69.68994
3.274	117.62695
3.2745	131.22253
3.275	122.15881
3.2755	101.21155
3.276	67.17224
3.2765	38.16833
3.277	6.2439
3.2775	9.46655
3.278	45.11719
3.2785	50.354
3.279	38.974
3.2795	22.05505
3.28	9.56726
3.2805	-5.43823
3.281	-8.35876
3.2815	-13.29346
3.282	-24.87488
3.2825	-37.56409
3.283	-47.03064
3.2835	-51.86462
3.284	-45.52002
3.2845	-35.85205
3.285	-36.55701
3.2855	-22.45789
3.286	-22.86072
3.2865	-18.93311
3.287	-13.29346
3.2875	-12.99133
3.288	-16.3147
3.2885	-9.86938
3.289	-2.5177
3.2895	6.54602
3.29	13.69629
3.2905	14.30054
3.291	22.35718
3.2915	4.93469
3.292	-21.3501
3.2925	-19.63806
3.293	4.63257
3.2935	9.56726
3.294	16.71753
3.2945	1.51062
3.295	-5.0354
3.2955	-8.96301
3.296	3.42407
3.2965	2.41699
3.297	4.33044
3.2975	6.54602
3.298	1.40991
3.2985	1.51062
3.299	5.13611
3.2995	9.26514
3.3	4.83398
3.3005	7.35168
3.301	2.61841
3.3015	-2.21558
3.302	-4.73328
3.3025	-3.02124
3.303	-14.80408
3.3035	-11.2793
3.304	-14.70337
3.3045	-8.7616
3.305	-0.20142
3.3055	4.22974
3.306	14.30054
3.3065	22.45789
3.307	28.29895
3.3075	29.00391
3.308	34.24072
3.3085	21.04797
3.309	45.92285
3.3095	79.15649
3.31	89.93225
3.3105	81.97632
3.311	63.04321
3.3115	39.47754
3.312	86.8103
3.3125	128.50342
3.313	129.71191
3.3135	136.86218
3.314	175.13123
3.3145	197.99194
3.315	178.5553
3.3155	140.28625
3.316	100.10376
3.3165	48.44055
3.317	-8.05664
3.3175	-57.20215
3.318	-92.75208
3.3185	-129.30908
3.319	-151.76697
3.3195	-165.26184
3.32	-166.67175
3.3205	-148.94714
3.321	-130.31616
3.3215	-109.77173
3.322	-102.82288
3.3225	-92.24854
3.323	-73.41614
3.3235	-57.9071
3.324	-33.23364
3.3245	-3.22266
3.325	11.58142
3.3255	8.66089
3.326	18.8324
3.3265	47.33276
3.327	92.55066
3.3275	109.26819
3.328	100.80872
3.3285	80.96924
3.329	67.77649
3.3295	47.13135
3.33	22.05505
3.3305	-5.74036
3.331	-23.46497
3.3315	-34.34143
3.332	-46.32568
3.3325	-55.99365
3.333	-60.62622
3.3335	-64.05029
3.334	-65.15808
3.3345	-53.27454
3.335	-40.78674
3.3355	-34.24072
3.336	-31.72302
3.3365	-27.6947
3.337	-23.56567
3.3375	-21.85364
3.338	-23.36426
3.3385	-17.52319
3.339	-11.58142
3.3395	-14.80408
3.34	-12.68921
3.3405	-21.75293
3.341	-28.80249
3.3415	-22.86072
3.342	-9.06372
3.3425	38.974
3.343	81.97632
3.3435	92.85278
3.344	87.71667
3.3445	72.61047
3.345	61.53259
3.3455	41.18958
3.346	8.15735
3.3465	-16.51611
3.347	-45.3186
3.3475	-60.52551
3.348	-71.60339
3.3485	-75.93384
3.349	-79.86145
3.3495	-76.03455
3.35	-59.92126
3.3505	-46.5271
3.351	-35.65063
3.3515	-31.11877
3.352	-25.88196
3.3525	-21.65222
3.353	-10.37292
3.3535	-7.95593
3.354	3.62549
3.3545	9.06372
3.355	16.3147
3.3555	27.39258
3.356	38.87329
3.3565	44.51294
3.357	51.36108
3.3575	55.59082
3.358	93.35632
3.3585	145.42236
3.359	158.91724
3.3595	155.19104
3.36	137.76855
3.3605	115.81421
3.361	91.24146
3.3615	68.78357
3.362	40.98816
3.3625	23.26355
3.363	6.64673
3.3635	-4.22974
3.364	-12.28638
3.3645	-28.60107
3.365	-29.20532
3.3655	-23.16284
3.366	-29.00391
3.3665	-30.31311
3.367	-28.70178
3.3675	-4.43115
3.368	2.11487
3.3685	1.61133
3.369	-0.10071
3.3695	-9.56726
3.37	-16.71753
3.3705	-19.13452
3.371	-23.46497
3.3715	-31.11877
3.372	-31.32019
3.3725	-10.77576
3.373	49.0448
3.3735	94.56482
3.374	133.74023
3.3745	126.58997
3.375	110.37598
3.3755	85.90393
3.376	53.57666
3.3765	31.01807
3.377	-1.3092
3.3775	-52.16675
3.378	-111.78589
3.3785	-156.90308
3.379	-190.94238
3.3795	-189.43176
3.38	-192.85583
3.3805	-160.22644
3.381	-77.24304
3.3815	17.72461
3.382	87.81738
3.3825	116.82129
3.383	121.45386
3.3835	107.65686
3.384	79.96216
3.3845	52.36816
3.385	21.85364
3.3855	-13.39417
3.386	-32.62939
3.3865	-55.99365
3.387	-74.52393
3.3875	-84.69543
3.388	-82.58057
3.3885	-76.03455
3.389	-59.82056
3.3895	-45.01648
3.39	-45.01648
3.3905	-29.91028
3.391	-7.35168
3.3915	-2.01416
3.392	-13.69629
3.3925	-23.16284
3.393	-37.56409
3.3935	-49.54834
3.394	-52.67029
3.3945	-63.44604
3.395	-66.76941
3.3955	-71.09985
3.396	-69.79065
3.3965	-56.39648
3.397	-40.08179
3.3975	-10.57434
3.398	6.2439
3.3985	32.02515
3.399	61.33118
3.3995	77.34375
3.4	85.80322
3.4005	87.41455
3.401	92.95349
3.4015	98.29102
3.402	99.2981
3.4025	95.26978
3.403	80.66711
3.4035	77.14233
3.404	73.91968
3.4045	77.14233
3.405	73.11401
3.4055	64.65454
3.406	57.00073
3.4065	50.55542
3.407	50.95825
3.4075	76.53809
3.408	101.61438
3.4085	116.31775
3.409	111.18164
3.4095	99.90234
3.41	83.48694
3.4105	62.74109
3.411	35.85205
3.4115	12.28638
3.412	-1.00708
3.4125	4.12903
3.413	-2.92053
3.4135	-9.76868
3.414	-20.44373
3.4145	-19.43665
3.415	-15.71045
3.4155	-15.81116
3.416	-15.60974
3.4165	-29.50745
3.417	-34.54285
3.4175	29.70886
3.418	109.3689
3.4185	147.53723
3.419	142.80396
3.4195	119.94324
3.42	86.91101
3.4205	34.24072
3.421	-41.79382
3.4215	-115.10925
3.422	-129.81262
3.4225	-102.21863
3.423	-97.58606
3.4235	-101.21155
3.424	-95.67261
3.4245	-93.45703
3.425	-96.8811
3.4255	-90.33508
3.426	-90.23438
3.4265	-88.11951
3.427	-91.34216
3.4275	-78.55225
3.428	-68.88428
3.4285	-59.51843
3.429	-57.40356
3.4295	-48.74268
3.43	-41.39099
3.4305	-24.67346
3.431	-9.06372
3.4315	-7.04956
3.432	-3.02124
3.4325	17.72461
3.433	28.60107
3.4335	27.59399
3.434	27.99683
3.4345	31.32019
3.435	32.93152
3.4355	40.88745
3.436	48.94409
3.4365	46.22498
3.437	42.7002
3.4375	41.39099
3.438	43.70728
3.4385	39.07471
3.439	43.70728
3.4395	46.22498
3.44	50.15259
3.4405	54.38232
3.441	50.354
3.4415	49.44763
3.442	48.54126
3.4425	39.77966
3.443	37.66479
3.4435	31.62231
3.444	29.00391
3.4445	31.62231
3.445	56.39648
3.4455	69.79065
3.446	73.31543
3.4465	69.99207
3.447	65.76233
3.4475	50.2533
3.448	40.58533
3.4485	35.14709
3.449	27.89612
3.4495	18.93311
3.45	17.42249
3.4505	7.15027
3.451	-1.2085
3.4515	-11.07788
3.452	-15.00549
3.4525	-17.92603
3.453	-25.98267
3.4535	-26.58691
3.454	-30.61523
3.4545	-31.11877
3.455	-31.72302
3.4555	-38.87329
3.456	-37.46338
3.4565	-28.70178
3.457	-27.19116
3.4575	-19.83948
3.458	-15.71045
3.4585	-17.52319
3.459	-13.59558
3.4595	-9.46655
3.46	-7.45239
3.4605	-4.33044
3.461	-3.32336
3.4615	-5.33752
3.462	4.22974
3.4625	2.01416
3.463	1.2085
3.4635	2.41699
3.464	5.63965
3.4645	6.44531
3.465	7.45239
3.4655	10.37292
3.466	9.76868
3.4665	9.36584
3.467	7.15027
3.4675	1.00708
3.468	1.51062
3.4685	6.3446
3.469	4.02832
3.4695	7.5531
3.47	5.0354
3.4705	7.04956
3.471	4.73328
3.4715	3.62549
3.472	7.95593
3.4725	9.16443
3.473	11.38
3.4735	4.53186
3.474	-1.3092
3.4745	-1.00708
3.475	-3.22266
3.4755	-3.12195
3.476	2.71912
3.4765	4.73328
3.477	6.74744
3.4775	9.36584
3.478	8.05664
3.4785	8.45947
3.479	12.08496
3.4795	14.70337
3.48	11.38
3.4805	9.16443
3.481	16.91895
3.4815	4.73328
3.482	3.7262
3.4825	8.35876
3.483	14.30054
3.4835	12.99133
3.484	13.69629
3.4845	7.15027
3.485	10.87646
3.4855	11.58142
3.486	5.84106
3.4865	9.86938
3.487	12.38708
3.4875	11.58142
3.488	14.09912
3.4885	13.19275
3.489	14.90479
3.4895	19.53735
3.49	17.12036
3.4905	16.01257
3.491	14.60266
3.4915	16.91895
3.492	14.60266
3.4925	17.42249
3.493	14.70337
3.4935	11.48071
3.494	6.3446
3.4945	9.56726
3.495	5.33752
3.4955	2.01416
3.496	-1.40991
3.4965	3.02124
3.497	0.30212
3.4975	-4.02832
3.498	3.22266
3.4985	0.10071
3.499	-0.90637
3.4995	0.70496
3.5	1.91345
3.5005	-2.21558
3.501	-6.64673
3.5015	0.90637
3.502	-0.50354
3.5025	0.30212
3.503	-0.40283
3.5035	3.12195
3.504	2.01416
3.5045	7.75452
3.505	15.30762
3.5055	13.39417
3.506	21.85364
3.5065	21.55151
3.507	21.65222
3.5075	23.76709
3.508	23.16284
3.5085	19.33594
3.509	15.50903
3.5095	10.97717
3.51	10.97717
3.5105	5.13611
3.511	6.3446
3.5115	6.74744
3.512	2.31628
3.5125	6.64673
3.513	6.3446
3.5135	7.25098
3.514	5.63965
3.5145	6.64673
3.515	6.94885
3.5155	8.96301
3.516	2.01416
3.5165	7.15027
3.517	8.56018
3.5175	8.96301
3.518	5.94177
3.5185	3.12195
3.519	-0.90637
3.5195	2.21558
3.52	-2.11487
3.5205	-3.22266
3.521	-1.40991
3.5215	5.13611
3.522	-1.10779
3.5225	3.02124
3.523	4.53186
3.5235	5.0354
3.524	4.12903
3.5245	5.53894
3.525	9.26514
3.5255	9.66797
3.526	11.38
3.5265	12.38708
3.527	13.99841
3.5275	12.5885
3.528	16.41541
3.5285	18.22815
3.529	15.20691
3.5295	12.5885
3.53	5.84106
3.5305	0.70496
3.531	5.53894
3.5315	6.94885
3.532	19.63806
3.5325	55.08728
3.533	66.26587
3.5335	61.12976
3.534	51.86462
3.5345	42.09595
3.535	23.36426
3.5355	7.15027
3.536	-7.5531
3.5365	-27.39258
3.537	-44.51294
3.5375	-57.70569
3.538	-58.51135
3.5385	-44.31152
3.539	-32.83081
3.5395	-34.74426
3.54	-36.85913
3.5405	-36.15417
3.541	-29.80957
3.5415	4.83398
3.542	67.07153
3.5425	96.37756
3.543	132.63245
3.5435	167.17529
3.544	163.4491
3.5445	137.76855
3.545	83.78906
3.5455	29.60815
3.546	-18.53027
3.5465	-56.09436
3.547	-91.24146
3.5475	-119.94324
3.548	-127.49634
3.5485	-127.89917
3.549	-117.12341
3.5495	-105.44128
3.55	-90.63721
3.5505	-69.48853
3.551	-53.17383
3.5515	-47.43347
3.552	-44.21082
3.5525	-40.78674
3.553	-39.88037
3.5535	-31.72302
3.554	-17.42249
3.5545	-9.86938
3.555	-5.94177
3.5555	-4.83398
3.556	7.45239
3.5565	13.09204
3.557	15.1062
3.5575	25.27771
3.558	26.68762
3.5585	30.41382
3.559	32.83081
3.5595	25.88196
3.56	21.65222
3.5605	13.39417
3.561	9.36584
3.5615	11.88354
3.562	15.50903
3.5625	10.47363
3.563	9.66797
3.5635	9.46655
3.564	6.84814
3.5645	8.66089
3.565	6.3446
3.5655	15.1062
3.566	11.38
3.5665	12.48779
3.567	16.01257
3.5675	15.20691
3.568	10.67505
3.5685	16.3147
3.569	16.01257
3.5695	15.81116
3.57	11.38
3.5705	8.7616
3.571	10.87646
3.5715	6.54602
3.572	8.8623
3.5725	-2.21558
3.573	-5.0354
3.5735	-1.71204
3.574	-2.71912
3.5745	-6.54602
3.575	-1.61133
3.5755	-3.92761
3.576	-1.81274
3.5765	2.11487
3.577	-1.40991
3.5775	-1.10779
3.578	5.63965
3.5785	10.37292
3.579	21.55151
3.5795	19.63806
3.58	13.797
3.5805	13.09204
3.581	10.47363
3.5815	12.5885
3.582	8.45947
3.5825	5.0354
3.583	7.04956
3.5835	13.49487
3.584	45.41931
3.5845	74.52393
3.585	84.09119
3.5855	78.85437
3.586	71.40198
3.5865	54.38232
3.587	38.36975
3.5875	26.48621
3.588	16.3147
3.5885	-1.10779
3.589	-15.81116
3.5895	-17.6239
3.59	-25.27771
3.5905	-29.40674
3.591	-26.98975
3.5915	-28.70178
3.592	-23.26355
3.5925	-13.99841
3.593	-15.60974
3.5935	-14.40125
3.594	-19.63806
3.5945	-17.92603
3.595	-20.54443
3.5955	-12.78992
3.596	6.44531
3.5965	18.8324
3.597	23.46497
3.5975	21.24939
3.598	22.05505
3.5985	16.71753
3.599	16.41541
3.5995	14.09912
3.6	12.28638
3.6005	12.18567
3.601	6.64673
3.6015	3.22266
3.602	-6.74744
3.6025	-8.66089
3.603	-3.52478
3.6035	-10.77576
3.604	-5.0354
3.6045	0.50354
3.605	1.00708
3.6055	-2.61841
3.606	1.10779
3.6065	-0.40283
3.607	4.93469
3.6075	5.43823
3.608	3.92761
3.6085	2.71912
3.609	2.01416
3.6095	-2.41699
3.61	2.11487
3.6105	3.8269
3.611	7.04956
3.6115	6.54602
3.612	2.01416
3.6125	5.53894
3.613	0.30212
3.6135	3.12195
3.614	-3.62549
3.6145	-3.92761
3.615	-1.61133
3.6155	-4.12903
3.616	4.43115
3.6165	0
3.617	1.00708
3.6175	11.48071
3.618	4.53186
3.6185	7.35168
3.619	11.07788
3.6195	7.25098
3.62	9.66797
3.6205	11.58142
3.621	8.05664
3.6215	11.07788
3.622	7.65381
3.6225	5.53894
3.623	8.96301
3.6235	6.54602
3.624	5.84106
3.6245	3.7262
3.625	-1.91345
3.6255	-1.00708
3.626	-1.40991
3.6265	-0.20142
3.627	3.42407
3.6275	0.30212
3.628	10.17151
3.6285	9.16443
3.629	13.797
3.6295	8.56018
3.63	10.67505
3.6305	17.01965
3.631	20.74585
3.6315	25.47913
3.632	23.26355
3.6325	22.86072
3.633	21.14868
3.6335	21.55151
3.634	23.26355
3.6345	23.76709
3.635	25.57983
3.6355	20.1416
3.636	18.63098
3.6365	13.59558
3.637	12.28638
3.6375	9.56726
3.638	5.33752
3.6385	3.22266
3.639	0.60425
3.6395	2.31628
3.64	2.71912
3.6405	8.45947
3.641	4.43115
3.6415	4.43115
3.642	4.63257
3.6425	8.45947
3.643	3.92761
3.6435	2.11487
3.644	-6.74744
3.6445	-3.42407
3.645	-5.13611
3.6455	-3.8269
3.646	-4.93469
3.6465	3.7262
3.647	2.92053
3.6475	0.90637
3.648	0.80566
3.6485	10.77576
3.649	12.48779
3.6495	16.21399
3.65	20.44373
3.6505	15.30762
3.651	11.48071
3.6515	5.0354
3.652	4.43115
3.6525	-0.50354
3.653	-9.56726
3.6535	-16.11328
3.654	-6.54602
3.6545	4.12903
3.655	1.40991
3.6555	0.90637
3.656	5.0354
3.6565	44.91577
3.657	90.83862
3.6575	126.38855
3.658	174.8291
3.6585	191.34521
3.659	181.17371
3.6595	147.33582
3.66	106.8512
3.6605	57.60498
3.661	2.81982
3.6615	-38.87329
3.662	-78.04871
3.6625	-98.19031
3.663	-128.50342
3.6635	-136.66077
3.664	-128.50342
3.6645	-116.82129
3.665	-98.19031
3.6655	-76.84021
3.666	-59.82056
3.6665	-46.92993
3.667	-34.24072
3.6675	-25.07629
3.668	-16.41541
3.6685	-5.94177
3.669	0.50354
3.6695	-7.5531
3.67	-4.73328
3.6705	4.43115
3.671	5.0354
3.6715	5.13611
3.672	6.04248
3.6725	11.88354
3.673	7.35168
3.6735	2.81982
3.674	11.38
3.6745	7.5531
3.675	11.78284
3.6755	9.26514
3.676	9.56726
3.6765	9.66797
3.677	5.84106
3.6775	7.5531
3.678	4.43115
3.6785	14.19983
3.679	11.07788
3.6795	2.61841
3.68	-0.30212
3.6805	-0.40283
3.681	7.25098
3.6815	4.22974
3.682	2.41699
3.6825	5.74036
3.683	4.02832
3.6835	1.2085
3.684	-1.61133
3.6845	-0.60425
3.685	-3.92761
3.6855	-3.22266
3.686	-5.0354
3.6865	0.10071
3.687	2.41699
3.6875	3.8269
3.688	7.15027
3.6885	7.04956
3.689	4.93469
3.6895	6.04248
3.69	-1.51062
3.6905	0
3.691	4.63257
3.6915	2.5177
3.692	2.31628
3.6925	4.83398
3.693	10.77576
3.6935	11.98425
3.694	14.90479
3.6945	16.01257
3.695	8.15735
3.6955	8.25806
3.696	15.30762
3.6965	9.97009
3.697	15.30762
3.6975	22.25647
3.698	14.40125
3.6985	13.49487
3.699	11.2793
3.6995	9.46655
3.7	13.59558
3.7005	18.93311
3.701	11.68213
3.7015	16.01257
3.702	17.92603
3.7025	16.11328
3.703	16.01257
3.7035	17.12036
3.704	12.68921
3.7045	9.86938
3.705	5.63965
3.7055	7.25098
3.706	5.94177
3.7065	5.0354
3.707	4.73328
3.7075	5.33752
3.708	-2.31628
3.7085	-0.90637
3.709	3.02124
3.7095	4.02832
3.71	8.45947
3.7105	6.44531
3.711	17.42249
3.7115	11.78284
3.712	16.41541
3.7125	5.84106
3.713	6.54602
3.7135	9.16443
3.714	7.95593
3.7145	4.93469
3.715	-0.10071
3.7155	3.62549
3.716	3.7262
3.7165	3.12195
3.717	6.64673
3.7175	3.62549
3.718	-3.32336
3.7185	6.3446
3.719	5.0354
3.7195	6.14319
3.72	9.06372
3.7205	10.47363
3.721	7.15027
3.7215	2.41699
3.722	1.61133
3.7225	3.8269
3.723	0.40283
3.7235	2.31628
3.724	1.2085
3.7245	1.2085
3.725	7.45239
3.7255	9.56726
3.726	6.04248
3.7265	3.8269
3.727	1.71204
3.7275	8.35876
3.728	6.94885
3.7285	6.2439
3.729	7.25098
3.7295	2.11487
3.73	3.62549
3.7305	5.13611
3.731	2.71912
3.7315	-3.8269
3.732	-1.91345
3.7325	2.5177
3.733	-1.00708
3.7335	3.02124
3.734	-0.20142
3.7345	2.11487
3.735	4.12903
3.7355	3.8269
3.736	3.7262
3.7365	3.52478
3.737	5.23682
3.7375	3.22266
3.738	2.81982
3.7385	3.12195
3.739	11.07788
3.7395	0.40283
3.74	2.5177
3.7405	3.42407
3.741	7.65381
3.7415	8.35876
3.742	8.56018
3.7425	6.64673
3.743	5.84106
3.7435	2.41699
3.744	1.2085
3.7445	3.8269
3.745	2.41699
3.7455	6.54602
3.746	11.07788
3.7465	7.65381
3.747	11.38
3.7475	10.27222
3.748	17.6239
3.7485	14.80408
3.749	9.26514
3.7495	12.68921
3.75	7.95593
3.7505	6.54602
3.751	6.2439
3.7515	3.22266
3.752	-0.70496
3.7525	-1.3092
3.753	3.52478
3.7535	4.43115
3.754	8.05664
3.7545	1.91345
3.755	2.5177
3.7555	3.42407
3.756	3.52478
3.7565	2.5177
3.757	-4.63257
3.7575	-3.8269
3.758	-8.7616
3.7585	-3.22266
3.759	-0.70496
3.7595	0.10071
3.76	2.92053
3.7605	0.80566
3.761	6.3446
3.7615	6.2439
3.762	5.63965
3.7625	4.93469
3.763	4.83398
3.7635	5.43823
3.764	0.60425
3.7645	5.13611
3.765	-0.60425
3.7655	1.3092
3.766	0.70496
3.7665	-0.50354
3.767	2.31628
3.7675	0.10071
3.768	-1.81274
3.7685	2.71912
3.769	2.11487
3.7695	2.61841
3.77	7.15027
3.7705	2.31628
3.771	9.97009
3.7715	8.15735
3.772	9.26514
3.7725	12.99133
3.773	8.66089
3.7735	12.28638
3.774	9.76868
3.7745	9.66797
3.775	10.0708
3.7755	9.06372
3.776	8.15735
3.7765	9.76868
3.777	8.15735
3.7775	7.5531
3.778	8.25806
3.7785	16.51611
3.779	9.97009
3.7795	4.63257
3.78	5.53894
3.7805	6.94885
3.781	10.97717
3.7815	10.67505
3.782	7.15027
3.7825	12.89062
3.783	14.60266
3.7835	6.04248
3.784	7.15027
3.7845	12.48779
3.785	12.08496
3.7855	10.77576
3.786	9.46655
3.7865	11.88354
3.787	9.26514
3.7875	13.19275
3.788	13.29346
3.7885	12.99133
3.789	11.58142
3.7895	9.56726
3.79	7.25098
3.7905	7.15027
3.791	8.96301
3.7915	12.99133
3.792	12.08496
3.7925	1.51062
3.793	8.96301
3.7935	9.66797
3.794	12.99133
3.7945	15.40833
3.795	16.3147
3.7955	18.02673
3.796	14.70337
3.7965	15.40833
3.797	15.71045
3.7975	16.61682
3.798	16.61682
3.7985	11.88354
3.799	7.85522
3.7995	8.05664
3.8	6.94885
3.8005	3.32336
3.801	5.74036
3.8015	3.32336
3.802	-5.0354
3.8025	0.50354
3.803	-0.40283
3.8035	-2.61841
3.804	-4.43115
3.8045	-2.5177
3.805	0.60425
3.8055	-3.02124
3.806	-0.10071
3.8065	-0.10071
3.807	-4.33044
3.8075	-1.3092
3.808	-1.51062
3.8085	3.02124
3.809	1.81274
3.8095	2.81982
3.81	0.40283
3.8105	1.00708
3.811	1.71204
3.8115	3.22266
3.812	0.80566
3.8125	4.43115
3.813	5.23682
3.8135	0
3.814	1.61133
3.8145	0.60425
3.815	3.02124
3.8155	0.30212
3.816	4.02832
3.8165	4.33044
3.817	3.22266
3.8175	-2.01416
3.818	-1.71204
3.8185	-4.22974
3.819	-4.43115
3.8195	-2.11487
3.82	2.81982
3.8205	-0.80566
3.821	3.12195
3.8215	3.32336
3.822	5.0354
3.8225	11.2793
3.823	4.33044
3.8235	8.66089
3.824	15.1062
3.8245	12.78992
3.825	7.45239
3.8255	9.97009
3.826	8.45947
3.8265	8.96301
3.827	13.797
3.8275	10.37292
3.828	6.64673
3.8285	8.45947
3.829	9.46655
3.8295	8.7616
3.83	10.77576
3.8305	8.56018
3.831	9.66797
3.8315	7.95593
3.832	9.56726
3.8325	7.75452
3.833	9.36584
3.8335	16.3147
3.834	10.67505
3.8345	10.27222
3.835	9.26514
3.8355	19.63806
3.836	18.73169
3.8365	16.21399
3.837	11.68213
3.8375	21.85364
3.838	23.26355
3.8385	22.45789
3.839	16.71753
3.8395	15.20691
3.84	11.98425
3.8405	10.27222
3.841	12.18567
3.8415	6.84814
3.842	8.8623
3.8425	10.17151
3.843	6.64673
3.8435	5.13611
3.844	8.25806
3.8445	7.5531
3.845	4.12903
3.8455	4.93469
3.846	6.3446
3.8465	1.61133
3.847	8.8623
3.8475	2.11487
3.848	4.12903
3.8485	-2.41699
3.849	0.10071
3.8495	3.52478
3.85	-2.5177
3.8505	-4.43115
3.851	3.7262
3.8515	7.45239
3.852	5.13611
3.8525	3.02124
3.853	4.43115
3.8535	7.15027
3.854	8.05664
3.8545	-0.90637
3.855	-1.2085
3.8555	3.22266
3.856	3.62549
3.8565	1.00708
3.857	5.84106
3.8575	6.94885
3.858	-3.42407
3.8585	2.11487
3.859	1.81274
3.8595	1.40991
3.86	1.71204
3.8605	-1.81274
3.861	3.22266
3.8615	4.02832
3.862	5.53894
3.8625	11.78284
3.863	9.46655
3.8635	9.16443
3.864	9.16443
3.8645	4.12903
3.865	3.92761
3.8655	7.04956
3.866	0.20142
3.8665	5.94177
3.867	4.63257
3.8675	6.14319
3.868	1.71204
3.8685	5.13611
3.869	11.88354
3.8695	9.46655
3.87	5.94177
3.8705	7.45239
3.871	11.07788
3.8715	11.17859
3.872	3.42407
3.8725	10.27222
3.873	9.86938
3.8735	2.61841
3.874	5.33752
3.8745	3.22266
3.875	-0.20142
3.8755	1.81274
3.876	2.21558
3.8765	4.33044
3.877	3.52478
3.8775	9.66797
3.878	9.76868
3.8785	3.22266
3.879	7.45239
3.8795	3.52478
3.88	0.20142
3.8805	1.61133
3.881	-4.22974
3.8815	-6.64673
3.882	-8.35876
3.8825	-1.61133
3.883	-2.5177
3.8835	-6.64673
3.884	-2.81982
3.8845	-2.11487
3.885	3.12195
3.8855	2.41699
3.886	3.32336
3.8865	4.33044
3.887	10.47363
3.8875	10.97717
3.888	14.30054
3.8885	11.58142
3.889	6.44531
3.8895	5.53894
3.89	5.13611
3.8905	2.01416
3.891	7.45239
3.8915	10.67505
3.892	2.92053
3.8925	10.57434
3.893	14.50195
3.8935	12.78992
3.894	10.97717
3.8945	18.63098
3.895	21.55151
3.8955	17.12036
3.896	19.83948
3.8965	19.94019
3.897	22.96143
3.8975	25.37842
3.898	22.6593
3.8985	21.55151
3.899	17.32178
3.8995	16.61682
3.9	16.01257
3.9005	8.7616
3.901	10.97717
3.9015	13.49487
3.902	12.48779
3.9025	7.45239
3.903	4.43115
3.9035	8.8623
3.904	1.71204
3.9045	1.71204
3.905	7.35168
3.9055	-0.70496
3.906	-1.40991
3.9065	-1.40991
3.907	-4.33044
3.9075	-1.51062
3.908	3.12195
3.9085	0.80566
3.909	3.92761
3.9095	3.22266
3.91	5.84106
3.9105	5.33752
3.911	9.16443
3.9115	7.35168
3.912	9.06372
3.9125	4.12903
3.913	5.84106
3.9135	1.2085
3.914	-2.71912
3.9145	-3.22266
3.915	-7.5531
3.9155	-1.61133
3.916	-0.70496
3.9165	-2.71912
3.917	2.11487
3.9175	-7.65381
3.918	-6.3446
3.9185	-0.90637
3.919	-7.04956
3.9195	-9.86938
3.92	-6.44531
3.9205	-7.75452
3.921	-7.65381
3.9215	2.92053
3.922	9.66797
3.9225	8.96301
3.923	1.40991
3.9235	3.92761
3.924	4.22974
3.9245	6.44531
3.925	4.22974
3.9255	-0.70496
3.926	4.73328
3.9265	7.35168
3.927	12.38708
3.9275	11.17859
3.928	7.45239
3.9285	13.99841
3.929	7.15027
3.9295	8.7616
3.93	14.60266
3.9305	9.76868
3.931	0.40283
3.9315	-1.2085
3.932	-4.12903
3.9325	2.61841
3.933	2.81982
3.9335	1.10779
3.934	-1.81274
3.9345	-1.10779
3.935	-2.11487
3.9355	-1.00708
3.936	3.92761
3.9365	2.71912
3.937	10.0708
3.9375	16.81824
3.938	13.49487
3.9385	14.40125
3.939	24.67346
3.9395	20.34302
3.94	18.12744
3.9405	22.76001
3.941	18.73169
3.9415	14.50195
3.942	14.09912
3.9425	11.78284
3.943	12.38708
3.9435	9.16443
3.944	6.2439
3.9445	5.13611
3.945	-1.00708
3.9455	-2.5177
3.946	-4.12903
3.9465	-3.7262
3.947	-5.23682
3.9475	2.21558
3.948	-1.91345
3.9485	2.11487
3.949	3.32336
