Francesco_Luisi_Left_2.c3d  



Time(s):	B_R_bicipite(μV):
0	2.01416
0.0005	1.51062
0.001	2.41699
0.0015	5.94177
0.002	4.33044
0.0025	5.13611
0.003	7.04956
0.0035	4.22974
0.004	6.3446
0.0045	6.54602
0.005	-0.20142
0.0055	1.71204
0.006	10.27222
0.0065	5.23682
0.007	4.83398
0.0075	8.15735
0.008	5.74036
0.0085	3.32336
0.009	6.04248
0.0095	8.45947
0.01	8.15735
0.0105	3.8269
0.011	5.0354
0.0115	4.73328
0.012	3.52478
0.0125	8.45947
0.013	5.0354
0.0135	11.68213
0.014	8.8623
0.0145	11.38
0.015	7.35168
0.0155	7.5531
0.016	6.3446
0.0165	6.2439
0.017	5.13611
0.0175	6.14319
0.018	7.5531
0.0185	8.45947
0.019	6.84814
0.0195	11.88354
0.02	10.17151
0.0205	5.63965
0.021	9.66797
0.0215	4.33044
0.022	2.01416
0.0225	7.95593
0.023	7.85522
0.0235	10.87646
0.024	7.25098
0.0245	12.5885
0.025	8.96301
0.0255	3.52478
0.026	4.33044
0.0265	2.81982
0.027	9.46655
0.0275	6.44531
0.028	10.67505
0.0285	9.97009
0.029	6.74744
0.0295	2.61841
0.03	5.53894
0.0305	7.04956
0.031	7.85522
0.0315	7.95593
0.032	6.74744
0.0325	3.32336
0.033	3.8269
0.0335	4.02832
0.034	-0.60425
0.0345	-0.20142
0.035	0.80566
0.0355	4.73328
0.036	9.86938
0.0365	8.05664
0.037	6.04248
0.0375	6.54602
0.038	1.91345
0.0385	6.2439
0.039	2.81982
0.0395	8.56018
0.04	6.94885
0.0405	5.94177
0.041	6.94885
0.0415	7.5531
0.042	3.92761
0.0425	6.14319
0.043	8.15735
0.0435	11.48071
0.044	7.85522
0.0445	6.84814
0.045	3.22266
0.0455	-5.13611
0.046	5.43823
0.0465	6.04248
0.047	8.25806
0.0475	0.40283
0.048	1.71204
0.0485	4.63257
0.049	5.13611
0.0495	1.91345
0.05	2.41699
0.0505	5.43823
0.051	4.63257
0.0515	5.0354
0.052	7.04956
0.0525	9.16443
0.053	4.83398
0.0535	3.42407
0.054	3.7262
0.0545	3.12195
0.055	5.74036
0.0555	5.53894
0.056	8.05664
0.0565	0.10071
0.057	0.70496
0.0575	5.23682
0.058	10.67505
0.0585	7.95593
0.059	3.7262
0.0595	8.56018
0.06	6.74744
0.0605	8.15735
0.061	4.93469
0.0615	7.75452
0.062	7.04956
0.0625	4.73328
0.063	3.02124
0.0635	2.5177
0.064	7.15027
0.0645	11.48071
0.065	8.56018
0.0655	3.42407
0.066	5.94177
0.0665	1.3092
0.067	2.11487
0.0675	-3.12195
0.068	4.22974
0.0685	3.12195
0.069	0.70496
0.0695	5.94177
0.07	-0.30212
0.0705	4.63257
0.071	5.43823
0.0715	2.11487
0.072	7.95593
0.0725	3.12195
0.073	5.0354
0.0735	2.31628
0.074	2.71912
0.0745	11.07788
0.075	11.78284
0.0755	5.84106
0.076	11.38
0.0765	5.53894
0.077	5.0354
0.0775	6.84814
0.078	7.25098
0.0785	7.5531
0.079	6.94885
0.0795	3.7262
0.08	6.74744
0.0805	5.84106
0.081	5.43823
0.0815	5.43823
0.082	5.43823
0.0825	9.06372
0.083	9.66797
0.0835	10.27222
0.084	10.77576
0.0845	10.27222
0.085	7.75452
0.0855	4.22974
0.086	0.30212
0.0865	1.71204
0.087	3.42407
0.0875	4.43115
0.088	1.71204
0.0885	3.62549
0.089	3.32336
0.0895	3.7262
0.09	7.95593
0.0905	6.04248
0.091	7.35168
0.0915	6.64673
0.092	2.21558
0.0925	2.81982
0.093	6.14319
0.0935	2.21558
0.094	-3.22266
0.0945	3.02124
0.095	4.83398
0.0955	5.13611
0.096	0.50354
0.0965	1.40991
0.097	3.42407
0.0975	3.62549
0.098	5.84106
0.0985	-1.40991
0.099	1.2085
0.0995	2.71912
0.1	4.53186
0.1005	4.33044
0.101	3.7262
0.1015	3.42407
0.102	5.63965
0.1025	3.12195
0.103	4.12903
0.1035	1.51062
0.104	2.11487
0.1045	5.23682
0.105	4.53186
0.1055	4.53186
0.106	4.33044
0.1065	9.16443
0.107	8.05664
0.1075	6.04248
0.108	1.40991
0.1085	-3.52478
0.109	2.92053
0.1095	5.94177
0.11	1.2085
0.1105	4.93469
0.111	7.65381
0.1115	-1.51062
0.112	3.92761
0.1125	2.81982
0.113	8.8623
0.1135	4.53186
0.114	-0.50354
0.1145	3.8269
0.115	5.13611
0.1155	7.45239
0.116	6.94885
0.1165	0.50354
0.117	4.53186
0.1175	4.33044
0.118	2.92053
0.1185	1.71204
0.119	8.56018
0.1195	8.25806
0.12	2.81982
0.1205	5.23682
0.121	6.44531
0.1215	5.33752
0.122	6.14319
0.1225	5.74036
0.123	3.62549
0.1235	3.92761
0.124	0.40283
0.1245	8.96301
0.125	-1.2085
0.1255	3.02124
0.126	6.2439
0.1265	7.95593
0.127	5.74036
0.1275	0.10071
0.128	7.45239
0.1285	0.50354
0.129	6.2439
0.1295	1.10779
0.13	2.41699
0.1305	2.71912
0.131	3.32336
0.1315	-0.10071
0.132	9.16443
0.1325	4.73328
0.133	4.02832
0.1335	0
0.134	-0.40283
0.1345	0.80566
0.135	3.12195
0.1355	3.22266
0.136	5.63965
0.1365	2.5177
0.137	1.3092
0.1375	3.7262
0.138	7.15027
0.1385	7.75452
0.139	4.22974
0.1395	4.33044
0.14	3.92761
0.1405	1.61133
0.141	3.02124
0.1415	7.85522
0.142	4.53186
0.1425	8.45947
0.143	4.73328
0.1435	6.64673
0.144	7.85522
0.1445	11.68213
0.145	9.97009
0.1455	6.04248
0.146	8.8623
0.1465	7.35168
0.147	9.86938
0.1475	10.57434
0.148	10.97717
0.1485	4.12903
0.149	4.43115
0.1495	13.69629
0.15	7.5531
0.1505	13.39417
0.151	5.63965
0.1515	4.02832
0.152	-1.61133
0.1525	2.71912
0.153	4.12903
0.1535	4.53186
0.154	11.88354
0.1545	-1.81274
0.155	4.63257
0.1555	3.92761
0.156	6.14319
0.1565	6.2439
0.157	4.43115
0.1575	5.33752
0.158	0.60425
0.1585	0.80566
0.159	2.92053
0.1595	3.92761
0.16	4.02832
0.1605	5.0354
0.161	4.43115
0.1615	7.25098
0.162	8.35876
0.1625	5.94177
0.163	4.22974
0.1635	8.15735
0.164	3.32336
0.1645	1.61133
0.165	6.84814
0.1655	8.66089
0.166	12.78992
0.1665	11.07788
0.167	8.66089
0.1675	12.78992
0.168	11.58142
0.1685	13.99841
0.169	13.19275
0.1695	7.85522
0.17	8.8623
0.1705	12.08496
0.171	4.12903
0.1715	9.66797
0.172	11.88354
0.1725	5.63965
0.173	9.46655
0.1735	2.01416
0.174	2.92053
0.1745	7.45239
0.175	10.57434
0.1755	7.95593
0.176	3.7262
0.1765	-0.30212
0.177	0.70496
0.1775	-3.32336
0.178	0.10071
0.1785	2.01416
0.179	4.63257
0.1795	5.0354
0.18	4.43115
0.1805	-4.53186
0.181	2.61841
0.1815	7.45239
0.182	-0.20142
0.1825	4.83398
0.183	7.04956
0.1835	3.62549
0.184	5.74036
0.1845	3.52478
0.185	9.26514
0.1855	5.23682
0.186	7.35168
0.1865	7.45239
0.187	5.13611
0.1875	5.94177
0.188	4.93469
0.1885	2.11487
0.189	3.12195
0.1895	8.8623
0.19	5.13611
0.1905	11.38
0.191	12.89062
0.1915	10.97717
0.192	8.8623
0.1925	2.5177
0.193	5.74036
0.1935	6.64673
0.194	5.23682
0.1945	1.40991
0.195	7.15027
0.1955	0.70496
0.196	2.5177
0.1965	8.35876
0.197	5.53894
0.1975	-0.30212
0.198	4.83398
0.1985	0.50354
0.199	6.54602
0.1995	4.33044
0.2	4.63257
0.2005	8.96301
0.201	2.31628
0.2015	6.14319
0.202	1.3092
0.2025	3.7262
0.203	8.25806
0.2035	8.15735
0.204	3.8269
0.2045	-0.10071
0.205	0.60425
0.2055	0.50354
0.206	2.92053
0.2065	4.93469
0.207	7.45239
0.2075	4.63257
0.208	0.70496
0.2085	7.04956
0.209	2.5177
0.2095	5.84106
0.21	4.63257
0.2105	5.84106
0.211	12.68921
0.2115	9.36584
0.212	3.12195
0.2125	4.53186
0.213	2.81982
0.2135	7.65381
0.214	12.18567
0.2145	7.5531
0.215	3.92761
0.2155	7.15027
0.216	8.66089
0.2165	14.19983
0.217	9.97009
0.2175	9.26514
0.218	11.2793
0.2185	10.77576
0.219	7.35168
0.2195	7.65381
0.22	5.23682
0.2205	0.30212
0.221	3.32336
0.2215	3.02124
0.222	2.81982
0.2225	5.33752
0.223	5.53894
0.2235	5.53894
0.224	3.02124
0.2245	9.97009
0.225	6.14319
0.2255	1.81274
0.226	-0.30212
0.2265	8.35876
0.227	4.02832
0.2275	3.12195
0.228	6.3446
0.2285	2.71912
0.229	2.21558
0.2295	7.85522
0.23	5.63965
0.2305	7.5531
0.231	6.14319
0.2315	2.01416
0.232	2.92053
0.2325	4.02832
0.233	11.2793
0.2335	2.71912
0.234	9.16443
0.2345	9.86938
0.235	4.93469
0.2355	3.32336
0.236	7.75452
0.2365	8.05664
0.237	7.75452
0.2375	10.37292
0.238	6.84814
0.2385	9.97009
0.239	12.48779
0.2395	10.77576
0.24	9.16443
0.2405	9.46655
0.241	14.40125
0.2415	10.0708
0.242	10.17151
0.2425	9.36584
0.243	10.57434
0.2435	7.95593
0.244	7.75452
0.2445	2.5177
0.245	15.30762
0.2455	12.18567
0.246	11.88354
0.2465	8.8623
0.247	9.26514
0.2475	8.66089
0.248	16.61682
0.2485	11.48071
0.249	10.0708
0.2495	8.35876
0.25	9.76868
0.2505	4.73328
0.251	6.54602
0.2515	8.05664
0.252	3.22266
0.2525	5.33752
0.253	6.84814
0.2535	7.15027
0.254	7.95593
0.2545	7.95593
0.255	8.8623
0.2555	5.84106
0.256	10.17151
0.2565	4.83398
0.257	6.14319
0.2575	8.8623
0.258	7.95593
0.2585	8.96301
0.259	8.56018
0.2595	0.10071
0.26	1.2085
0.2605	8.7616
0.261	5.43823
0.2615	4.12903
0.262	-3.02124
0.2625	-2.11487
0.263	-1.91345
0.2635	3.02124
0.264	-9.36584
0.2645	-3.02124
0.265	2.61841
0.2655	4.02832
0.266	-0.70496
0.2665	5.84106
0.267	6.94885
0.2675	5.84106
0.268	4.22974
0.2685	2.5177
0.269	5.33752
0.2695	0.30212
0.27	-1.51062
0.2705	6.94885
0.271	8.56018
0.2715	5.43823
0.272	0.50354
0.2725	1.91345
0.273	2.71912
0.2735	5.94177
0.274	-0.20142
0.2745	1.81274
0.275	6.54602
0.2755	5.23682
0.276	3.62549
0.2765	0.20142
0.277	1.3092
0.2775	3.42407
0.278	5.63965
0.2785	1.40991
0.279	1.2085
0.2795	-0.90637
0.28	6.44531
0.2805	4.63257
0.281	4.33044
0.2815	3.7262
0.282	3.02124
0.2825	1.71204
0.283	0.80566
0.2835	2.71912
0.284	1.10779
0.2845	6.2439
0.285	6.54602
0.2855	10.0708
0.286	8.25806
0.2865	4.22974
0.287	2.41699
0.2875	-0.80566
0.288	3.52478
0.2885	5.23682
0.289	6.14319
0.2895	3.02124
0.29	2.31628
0.2905	2.71912
0.291	4.02832
0.2915	2.5177
0.292	5.74036
0.2925	1.71204
0.293	6.2439
0.2935	5.43823
0.294	3.52478
0.2945	4.93469
0.295	4.93469
0.2955	6.54602
0.296	0.60425
0.2965	2.71912
0.297	8.66089
0.2975	7.04956
0.298	4.73328
0.2985	9.56726
0.299	8.56018
0.2995	7.15027
0.3	5.74036
0.3005	12.08496
0.301	6.44531
0.3015	6.84814
0.302	3.32336
0.3025	8.35876
0.303	-1.71204
0.3035	0.80566
0.304	1.00708
0.3045	0.50354
0.305	5.84106
0.3055	4.22974
0.306	1.2085
0.3065	3.7262
0.307	7.04956
0.3075	7.15027
0.308	3.7262
0.3085	4.33044
0.309	8.35876
0.3095	8.66089
0.31	5.84106
0.3105	4.33044
0.311	5.74036
0.3115	4.53186
0.312	3.02124
0.3125	2.01416
0.313	3.8269
0.3135	8.8623
0.314	9.66797
0.3145	13.59558
0.315	9.56726
0.3155	6.54602
0.316	1.91345
0.3165	3.52478
0.317	9.16443
0.3175	8.15735
0.318	2.01416
0.3185	9.66797
0.319	11.58142
0.3195	10.17151
0.32	6.2439
0.3205	4.53186
0.321	7.04956
0.3215	6.94885
0.322	2.21558
0.3225	4.33044
0.323	9.86938
0.3235	11.17859
0.324	8.66089
0.3245	1.71204
0.325	4.43115
0.3255	0.30212
0.326	-2.31628
0.3265	-0.60425
0.327	7.15027
0.3275	7.25098
0.328	3.8269
0.3285	5.53894
0.329	8.05664
0.3295	5.74036
0.33	-0.80566
0.3305	4.83398
0.331	4.63257
0.3315	5.53894
0.332	2.61841
0.3325	1.40991
0.333	4.12903
0.3335	4.73328
0.334	7.15027
0.3345	8.96301
0.335	1.71204
0.3355	3.42407
0.336	7.85522
0.3365	10.57434
0.337	8.56018
0.3375	7.75452
0.338	-0.40283
0.3385	6.04248
0.339	5.33752
0.3395	3.7262
0.34	5.53894
0.3405	0.80566
0.341	4.53186
0.3415	8.96301
0.342	5.74036
0.3425	9.26514
0.343	4.53186
0.3435	5.53894
0.344	5.0354
0.3445	6.44531
0.345	5.0354
0.3455	8.96301
0.346	9.16443
0.3465	6.04248
0.347	3.92761
0.3475	9.76868
0.348	5.94177
0.3485	8.8623
0.349	3.8269
0.3495	4.83398
0.35	7.85522
0.3505	1.61133
0.351	7.85522
0.3515	7.25098
0.352	2.11487
0.3525	7.95593
0.353	4.53186
0.3535	2.21558
0.354	3.22266
0.3545	3.92761
0.355	7.15027
0.3555	7.25098
0.356	-0.30212
0.3565	1.91345
0.357	4.53186
0.3575	7.5531
0.358	6.14319
0.3585	2.21558
0.359	3.22266
0.3595	-0.30212
0.36	-1.2085
0.3605	-2.41699
0.361	0.80566
0.3615	2.5177
0.362	-1.40991
0.3625	0.40283
0.363	7.95593
0.3635	9.46655
0.364	6.04248
0.3645	1.51062
0.365	9.26514
0.3655	1.91345
0.366	1.81274
0.3665	2.92053
0.367	4.53186
0.3675	5.74036
0.368	6.74744
0.3685	2.01416
0.369	5.74036
0.3695	7.95593
0.37	8.05664
0.3705	5.63965
0.371	5.13611
0.3715	6.64673
0.372	3.62549
0.3725	10.27222
0.373	12.89062
0.3735	5.84106
0.374	11.38
0.3745	2.01416
0.375	5.63965
0.3755	8.66089
0.376	8.05664
0.3765	7.75452
0.377	9.06372
0.3775	9.06372
0.378	5.84106
0.3785	8.96301
0.379	7.15027
0.3795	7.04956
0.38	5.63965
0.3805	4.43115
0.381	5.53894
0.3815	2.31628
0.382	3.92761
0.3825	3.12195
0.383	7.04956
0.3835	8.8623
0.384	11.07788
0.3845	6.2439
0.385	1.40991
0.3855	4.02832
0.386	10.47363
0.3865	8.96301
0.387	10.37292
0.3875	4.02832
0.388	10.87646
0.3885	10.37292
0.389	9.66797
0.3895	6.84814
0.39	11.78284
0.3905	6.84814
0.391	7.25098
0.3915	0.20142
0.392	3.22266
0.3925	2.61841
0.393	4.53186
0.3935	6.3446
0.394	8.05664
0.3945	7.75452
0.395	5.43823
0.3955	8.96301
0.396	2.01416
0.3965	3.7262
0.397	6.54602
0.3975	5.63965
0.398	7.04956
0.3985	7.25098
0.399	10.97717
0.3995	7.25098
0.4	2.31628
0.4005	4.22974
0.401	9.36584
0.4015	3.62549
0.402	6.54602
0.4025	9.86938
0.403	13.49487
0.4035	7.04956
0.404	9.66797
0.4045	2.61841
0.405	7.15027
0.4055	6.14319
0.406	-0.20142
0.4065	5.33752
0.407	4.33044
0.4075	3.62549
0.408	0.90637
0.4085	7.15027
0.409	5.33752
0.4095	4.22974
0.41	-1.40991
0.4105	10.17151
0.411	1.91345
0.4115	5.0354
0.412	4.53186
0.4125	6.04248
0.413	8.8623
0.4135	4.43115
0.414	5.43823
0.4145	6.2439
0.415	1.61133
0.4155	9.36584
0.416	1.00708
0.4165	-4.63257
0.417	-0.80566
0.4175	-4.33044
0.418	-0.60425
0.4185	0
0.419	-1.40991
0.4195	3.42407
0.42	0.40283
0.4205	1.61133
0.421	1.91345
0.4215	4.02832
0.422	2.11487
0.4225	7.35168
0.423	6.3446
0.4235	6.2439
0.424	9.06372
0.4245	3.7262
0.425	-0.80566
0.4255	0.30212
0.426	2.92053
0.4265	3.02124
0.427	3.02124
0.4275	3.02124
0.428	-0.30212
0.4285	1.51062
0.429	9.97009
0.4295	5.43823
0.43	4.83398
0.4305	1.00708
0.431	7.95593
0.4315	7.35168
0.432	7.85522
0.4325	6.14319
0.433	1.71204
0.4335	6.74744
0.434	8.56018
0.4345	4.33044
0.435	8.35876
0.4355	6.44531
0.436	7.5531
0.4365	10.47363
0.437	3.42407
0.4375	8.05664
0.438	7.85522
0.4385	5.63965
0.439	3.8269
0.4395	3.8269
0.44	6.14319
0.4405	5.94177
0.441	6.04248
0.4415	7.25098
0.442	7.75452
0.4425	6.44531
0.443	5.53894
0.4435	9.86938
0.444	6.44531
0.4445	9.06372
0.445	11.68213
0.4455	9.06372
0.446	1.3092
0.4465	7.95593
0.447	4.83398
0.4475	9.36584
0.448	5.94177
0.4485	5.43823
0.449	7.25098
0.4495	9.06372
0.45	5.33752
0.4505	6.3446
0.451	5.84106
0.4515	10.0708
0.452	13.19275
0.4525	9.06372
0.453	9.26514
0.4535	9.26514
0.454	6.84814
0.4545	2.41699
0.455	1.2085
0.4555	7.25098
0.456	6.94885
0.4565	10.67505
0.457	7.45239
0.4575	5.94177
0.458	5.94177
0.4585	3.92761
0.459	7.75452
0.4595	5.63965
0.46	6.04248
0.4605	10.67505
0.461	8.25806
0.4615	7.85522
0.462	7.5531
0.4625	12.99133
0.463	9.97009
0.4635	4.22974
0.464	8.56018
0.4645	3.22266
0.465	2.31628
0.4655	5.13611
0.466	6.74744
0.4665	4.02832
0.467	6.2439
0.4675	7.95593
0.468	4.33044
0.4685	3.02124
0.469	2.11487
0.4695	2.5177
0.47	6.04248
0.4705	5.94177
0.471	7.45239
0.4715	3.52478
0.472	6.44531
0.4725	1.71204
0.473	4.33044
0.4735	7.95593
0.474	4.22974
0.4745	2.41699
0.475	8.66089
0.4755	10.27222
0.476	5.13611
0.4765	9.26514
0.477	5.74036
0.4775	7.5531
0.478	9.16443
0.4785	13.89771
0.479	6.14319
0.4795	8.35876
0.48	18.42957
0.4805	13.59558
0.481	10.17151
0.4815	2.92053
0.482	11.38
0.4825	4.33044
0.483	6.2439
0.4835	5.53894
0.484	10.57434
0.4845	9.16443
0.485	5.43823
0.4855	1.40991
0.486	5.13611
0.4865	9.36584
0.487	4.12903
0.4875	2.11487
0.488	6.04248
0.4885	6.14319
0.489	3.92761
0.4895	-0.90637
0.49	1.00708
0.4905	4.33044
0.491	7.35168
0.4915	7.85522
0.492	4.12903
0.4925	2.41699
0.493	7.95593
0.4935	5.0354
0.494	3.62549
0.4945	3.32336
0.495	7.15027
0.4955	7.85522
0.496	6.44531
0.4965	10.37292
0.497	8.05664
0.4975	9.26514
0.498	8.05664
0.4985	4.22974
0.499	2.61841
0.4995	5.74036
0.5	3.8269
0.5005	6.44531
0.501	7.95593
0.5015	4.73328
0.502	3.32336
0.5025	5.74036
0.503	1.71204
0.5035	4.43115
0.504	10.17151
0.5045	3.02124
0.505	3.32336
0.5055	-0.90637
0.506	8.96301
0.5065	5.0354
0.507	8.96301
0.5075	7.95593
0.508	8.8623
0.5085	8.35876
0.509	7.45239
0.5095	10.47363
0.51	12.89062
0.5105	12.5885
0.511	11.07788
0.5115	5.33752
0.512	6.94885
0.5125	7.85522
0.513	7.25098
0.5135	13.49487
0.514	11.98425
0.5145	11.38
0.515	5.0354
0.5155	7.5531
0.516	6.3446
0.5165	5.23682
0.517	4.53186
0.5175	12.28638
0.518	12.18567
0.5185	8.66089
0.519	12.5885
0.5195	7.25098
0.52	11.58142
0.5205	7.15027
0.521	7.45239
0.5215	8.25806
0.522	10.77576
0.5225	11.98425
0.523	9.97009
0.5235	6.2439
0.524	9.97009
0.5245	14.50195
0.525	9.56726
0.5255	11.2793
0.526	13.09204
0.5265	4.53186
0.527	10.67505
0.5275	11.78284
0.528	13.49487
0.5285	11.68213
0.529	10.97717
0.5295	6.14319
0.53	6.44531
0.5305	8.66089
0.531	9.26514
0.5315	5.43823
0.532	10.27222
0.5325	6.64673
0.533	2.81982
0.5335	1.71204
0.534	4.02832
0.5345	2.71912
0.535	9.16443
0.5355	6.04248
0.536	10.27222
0.5365	6.84814
0.537	6.74744
0.5375	5.33752
0.538	4.83398
0.5385	8.66089
0.539	8.8623
0.5395	6.44531
0.54	3.62549
0.5405	6.74744
0.541	0.90637
0.5415	8.7616
0.542	-0.10071
0.5425	-1.2085
0.543	0.40283
0.5435	5.13611
0.544	4.53186
0.5445	4.83398
0.545	8.35876
0.5455	2.11487
0.546	5.13611
0.5465	-3.12195
0.547	0.70496
0.5475	7.45239
0.548	1.3092
0.5485	3.22266
0.549	5.63965
0.5495	4.73328
0.55	4.93469
0.5505	0.70496
0.551	1.71204
0.5515	0.20142
0.552	4.93469
0.5525	5.13611
0.553	3.42407
0.5535	2.21558
0.554	7.25098
0.5545	2.92053
0.555	6.44531
0.5555	3.8269
0.556	5.74036
0.5565	1.61133
0.557	3.92761
0.5575	-1.61133
0.558	2.81982
0.5585	1.3092
0.559	4.73328
0.5595	8.15735
0.56	8.56018
0.5605	8.25806
0.561	3.42407
0.5615	9.36584
0.562	12.18567
0.5625	9.76868
0.563	3.02124
0.5635	7.85522
0.564	3.8269
0.5645	-0.30212
0.565	2.92053
0.5655	5.74036
0.566	-1.00708
0.5665	3.32336
0.567	5.84106
0.5675	7.35168
0.568	1.40991
0.5685	5.94177
0.569	8.8623
0.5695	7.04956
0.57	4.93469
0.5705	4.73328
0.571	8.45947
0.5715	6.54602
0.572	3.12195
0.5725	5.13611
0.573	4.12903
0.5735	2.81982
0.574	2.21558
0.5745	2.61841
0.575	4.12903
0.5755	-0.90637
0.576	-2.92053
0.5765	-0.30212
0.577	5.33752
0.5775	2.21558
0.578	5.84106
0.5785	2.61841
0.579	1.71204
0.5795	-1.91345
0.58	-1.3092
0.5805	-4.22974
0.581	1.3092
0.5815	7.15027
0.582	2.71912
0.5825	-3.12195
0.583	-2.01416
0.5835	5.63965
0.584	4.83398
0.5845	0.20142
0.585	4.02832
0.5855	6.14319
0.586	2.71912
0.5865	3.62549
0.587	3.42407
0.5875	10.37292
0.588	6.3446
0.5885	6.74744
0.589	6.3446
0.5895	4.53186
0.59	6.44531
0.5905	7.25098
0.591	1.00708
0.5915	4.93469
0.592	4.43115
0.5925	8.96301
0.593	4.22974
0.5935	6.3446
0.594	7.85522
0.5945	9.16443
0.595	9.66797
0.5955	5.63965
0.596	9.86938
0.5965	5.13611
0.597	3.12195
0.5975	9.46655
0.598	4.93469
0.5985	6.54602
0.599	6.54602
0.5995	3.62549
0.6	5.13611
0.6005	13.797
0.601	7.15027
0.6015	4.83398
0.602	2.92053
0.6025	8.45947
0.603	9.86938
0.6035	14.60266
0.604	11.07788
0.6045	3.32336
0.605	7.5531
0.6055	9.36584
0.606	8.45947
0.6065	13.39417
0.607	9.66797
0.6075	7.04956
0.608	6.14319
0.6085	8.8623
0.609	2.31628
0.6095	7.85522
0.61	4.83398
0.6105	6.74744
0.611	9.06372
0.6115	7.5531
0.612	7.45239
0.6125	3.02124
0.613	7.85522
0.6135	7.25098
0.614	9.46655
0.6145	10.57434
0.615	6.84814
0.6155	4.43115
0.616	10.57434
0.6165	11.58142
0.617	9.06372
0.6175	4.73328
0.618	4.93469
0.6185	8.45947
0.619	8.05664
0.6195	6.94885
0.62	7.15027
0.6205	7.35168
0.621	9.36584
0.6215	7.75452
0.622	7.25098
0.6225	11.68213
0.623	1.51062
0.6235	4.73328
0.624	0.20142
0.6245	1.00708
0.625	3.42407
0.6255	3.92761
0.626	10.27222
0.6265	7.75452
0.627	8.15735
0.6275	9.56726
0.628	0.60425
0.6285	-2.5177
0.629	0.90637
0.6295	4.93469
0.63	6.74744
0.6305	9.66797
0.631	6.54602
0.6315	-1.51062
0.632	4.53186
0.6325	5.33752
0.633	-2.11487
0.6335	-1.10779
0.634	1.51062
0.6345	2.21558
0.635	3.32336
0.6355	2.92053
0.636	5.43823
0.6365	-0.30212
0.637	-1.61133
0.6375	-1.40991
0.638	1.00708
0.6385	-4.12903
0.639	-2.01416
0.6395	0.80566
0.64	3.32336
0.6405	2.21558
0.641	3.7262
0.6415	0.80566
0.642	3.8269
0.6425	4.12903
0.643	2.41699
0.6435	2.11487
0.644	2.92053
0.6445	4.93469
0.645	2.92053
0.6455	8.25806
0.646	8.7616
0.6465	1.71204
0.647	1.10779
0.6475	3.02124
0.648	1.00708
0.6485	4.33044
0.649	10.97717
0.6495	5.23682
0.65	4.83398
0.6505	4.73328
0.651	2.92053
0.6515	10.0708
0.652	3.8269
0.6525	-0.10071
0.653	2.61841
0.6535	4.33044
0.654	1.40991
0.6545	4.33044
0.655	3.22266
0.6555	2.71912
0.656	4.12903
0.6565	9.66797
0.657	9.16443
0.6575	5.63965
0.658	6.14319
0.6585	6.54602
0.659	6.2439
0.6595	6.14319
0.66	8.05664
0.6605	7.04956
0.661	7.85522
0.6615	6.94885
0.662	4.93469
0.6625	0.80566
0.663	4.63257
0.6635	1.2085
0.664	5.63965
0.6645	4.73328
0.665	4.83398
0.6655	9.86938
0.666	11.78284
0.6665	7.25098
0.667	7.15027
0.6675	2.92053
0.668	11.38
0.6685	7.65381
0.669	8.96301
0.6695	10.67505
0.67	5.33752
0.6705	5.0354
0.671	4.83398
0.6715	5.13611
0.672	7.45239
0.6725	2.41699
0.673	0.10071
0.6735	0.90637
0.674	3.52478
0.6745	6.54602
0.675	2.01416
0.6755	0.10071
0.676	2.5177
0.6765	-0.80566
0.677	6.3446
0.6775	1.81274
0.678	3.42407
0.6785	3.52478
0.679	6.14319
0.6795	0.80566
0.68	5.33752
0.6805	0
0.681	1.3092
0.6815	3.8269
0.682	6.54602
0.6825	8.66089
0.683	9.56726
0.6835	4.33044
0.684	5.53894
0.6845	-0.50354
0.685	4.22974
0.6855	3.7262
0.686	4.22974
0.6865	0.30212
0.687	0.10071
0.6875	-1.00708
0.688	3.92761
0.6885	4.93469
0.689	4.33044
0.6895	5.43823
0.69	10.57434
0.6905	3.22266
0.691	7.25098
0.6915	4.73328
0.692	10.17151
0.6925	7.5531
0.693	4.43115
0.6935	7.25098
0.694	4.93469
0.6945	4.63257
0.695	1.51062
0.6955	2.31628
0.696	8.05664
0.6965	9.97009
0.697	8.15735
0.6975	3.7262
0.698	4.22974
0.6985	8.56018
0.699	6.84814
0.6995	8.25806
0.7	9.86938
0.7005	8.05664
0.701	-0.80566
0.7015	5.23682
0.702	7.45239
0.7025	15.1062
0.703	9.06372
0.7035	1.00708
0.704	6.54602
0.7045	2.41699
0.705	5.74036
0.7055	5.0354
0.706	2.61841
0.7065	7.45239
0.707	4.43115
0.7075	0.50354
0.708	6.14319
0.7085	1.51062
0.709	5.23682
0.7095	4.22974
0.71	4.43115
0.7105	10.97717
0.711	12.28638
0.7115	7.65381
0.712	5.84106
0.7125	9.56726
0.713	9.97009
0.7135	6.2439
0.714	9.86938
0.7145	9.56726
0.715	4.73328
0.7155	5.53894
0.716	2.71912
0.7165	5.33752
0.717	5.94177
0.7175	5.23682
0.718	4.22974
0.7185	3.92761
0.719	6.2439
0.7195	8.96301
0.72	5.94177
0.7205	9.66797
0.721	5.84106
0.7215	8.7616
0.722	4.12903
0.7225	4.53186
0.723	6.64673
0.7235	3.42407
0.724	1.81274
0.7245	5.63965
0.725	11.07788
0.7255	8.15735
0.726	11.88354
0.7265	11.58142
0.727	7.85522
0.7275	5.84106
0.728	7.15027
0.7285	5.13611
0.729	4.33044
0.7295	2.61841
0.73	7.45239
0.7305	8.96301
0.731	7.75452
0.7315	6.3446
0.732	4.43115
0.7325	2.41699
0.733	4.53186
0.7335	7.85522
0.734	10.77576
0.7345	2.71912
0.735	3.32336
0.7355	5.43823
0.736	7.65381
0.7365	9.06372
0.737	8.8623
0.7375	7.25098
0.738	13.19275
0.7385	6.14319
0.739	8.7616
0.7395	8.45947
0.74	9.26514
0.7405	8.66089
0.741	5.74036
0.7415	6.84814
0.742	8.45947
0.7425	5.84106
0.743	8.66089
0.7435	9.56726
0.744	6.64673
0.7445	9.56726
0.745	5.53894
0.7455	3.7262
0.746	8.96301
0.7465	7.04956
0.747	4.02832
0.7475	5.0354
0.748	9.26514
0.7485	12.08496
0.749	12.5885
0.7495	9.46655
0.75	2.81982
0.7505	2.81982
0.751	3.8269
0.7515	10.37292
0.752	6.64673
0.7525	6.74744
0.753	-1.61133
0.7535	5.33752
0.754	9.06372
0.7545	12.48779
0.755	8.45947
0.7555	4.53186
0.756	5.63965
0.7565	7.75452
0.757	6.2439
0.7575	6.2439
0.758	9.36584
0.7585	7.15027
0.759	8.15735
0.7595	10.37292
0.76	5.74036
0.7605	5.43823
0.761	3.52478
0.7615	5.63965
0.762	6.04248
0.7625	6.3446
0.763	7.25098
0.7635	3.7262
0.764	4.73328
0.7645	4.53186
0.765	3.62549
0.7655	7.85522
0.766	5.23682
0.7665	1.81274
0.767	0.80566
0.7675	-0.30212
0.768	4.53186
0.7685	8.66089
0.769	6.94885
0.7695	4.12903
0.77	6.2439
0.7705	3.42407
0.771	4.93469
0.7715	2.01416
0.772	5.33752
0.7725	2.31628
0.773	4.22974
0.7735	0.40283
0.774	4.22974
0.7745	3.7262
0.775	5.63965
0.7755	-2.71912
0.776	2.21558
0.7765	-5.0354
0.777	-0.80566
0.7775	3.02124
0.778	1.71204
0.7785	4.33044
0.779	8.56018
0.7795	2.5177
0.78	1.00708
0.7805	3.32336
0.781	9.86938
0.7815	4.43115
0.782	3.32336
0.7825	5.94177
0.783	7.85522
0.7835	3.02124
0.784	7.65381
0.7845	4.43115
0.785	5.33752
0.7855	4.93469
0.786	0.40283
0.7865	-3.42407
0.787	5.13611
0.7875	5.84106
0.788	-1.81274
0.7885	7.15027
0.789	5.13611
0.7895	-0.40283
0.79	4.93469
0.7905	7.85522
0.791	8.45947
0.7915	6.74744
0.792	6.64673
0.7925	0.70496
0.793	-0.60425
0.7935	3.32336
0.794	5.0354
0.7945	4.02832
0.795	1.10779
0.7955	0.60425
0.796	1.61133
0.7965	5.0354
0.797	8.45947
0.7975	7.45239
0.798	2.11487
0.7985	-0.10071
0.799	6.44531
0.7995	5.13611
0.8	3.62549
0.8005	6.74744
0.801	0.60425
0.8015	10.87646
0.802	4.33044
0.8025	3.7262
0.803	9.36584
0.8035	8.05664
0.804	7.65381
0.8045	2.92053
0.805	8.05664
0.8055	9.76868
0.806	8.56018
0.8065	3.62549
0.807	5.63965
0.8075	8.56018
0.808	0.60425
0.8085	4.63257
0.809	3.8269
0.8095	6.94885
0.81	6.04248
0.8105	5.94177
0.811	8.15735
0.8115	6.3446
0.812	6.94885
0.8125	4.53186
0.813	1.51062
0.8135	8.35876
0.814	1.3092
0.8145	3.42407
0.815	4.83398
0.8155	2.5177
0.816	4.63257
0.8165	9.16443
0.817	6.94885
0.8175	2.31628
0.818	2.11487
0.8185	2.01416
0.819	0.30212
0.8195	4.53186
0.82	2.71912
0.8205	11.38
0.821	3.12195
0.8215	5.13611
0.822	4.93469
0.8225	7.35168
0.823	8.7616
0.8235	9.26514
0.824	8.45947
0.8245	7.04956
0.825	8.35876
0.8255	3.92761
0.826	10.57434
0.8265	6.54602
0.827	9.86938
0.8275	7.45239
0.828	8.35876
0.8285	1.2085
0.829	6.64673
0.8295	4.43115
0.83	10.0708
0.8305	13.49487
0.831	9.66797
0.8315	13.69629
0.832	9.46655
0.8325	10.77576
0.833	10.67505
0.8335	9.66797
0.834	6.3446
0.8345	5.43823
0.835	0.70496
0.8355	5.84106
0.836	6.94885
0.8365	5.13611
0.837	7.35168
0.8375	2.31628
0.838	7.25098
0.8385	11.88354
0.839	8.15735
0.8395	6.74744
0.84	11.07788
0.8405	1.91345
0.841	3.8269
0.8415	7.25098
0.842	7.5531
0.8425	2.5177
0.843	4.93469
0.8435	7.35168
0.844	7.65381
0.8445	8.25806
0.845	7.75452
0.8455	4.93469
0.846	0
0.8465	4.63257
0.847	3.92761
0.8475	1.61133
0.848	7.65381
0.8485	4.43115
0.849	1.40991
0.8495	5.53894
0.85	5.13611
0.8505	7.04956
0.851	3.8269
0.8515	2.21558
0.852	9.36584
0.8525	6.04248
0.853	6.74744
0.8535	3.52478
0.854	-2.21558
0.8545	0.30212
0.855	3.42407
0.8555	5.94177
0.856	4.02832
0.8565	1.10779
0.857	2.92053
0.8575	6.04248
0.858	5.23682
0.8585	10.47363
0.859	3.22266
0.8595	6.2439
0.86	5.23682
0.8605	4.63257
0.861	7.95593
0.8615	1.40991
0.862	4.22974
0.8625	2.92053
0.863	4.93469
0.8635	8.05664
0.864	5.94177
0.8645	3.7262
0.865	3.62549
0.8655	2.61841
0.866	3.02124
0.8665	3.7262
0.867	5.43823
0.8675	2.71912
0.868	3.42407
0.8685	-0.30212
0.869	1.3092
0.8695	2.31628
0.87	5.53894
0.8705	7.65381
0.871	4.02832
0.8715	1.00708
0.872	6.44531
0.8725	1.40991
0.873	5.13611
0.8735	2.41699
0.874	6.64673
0.8745	8.66089
0.875	4.22974
0.8755	3.62549
0.876	6.74744
0.8765	4.93469
0.877	7.15027
0.8775	8.15735
0.878	9.46655
0.8785	14.30054
0.879	17.52319
0.8795	15.81116
0.88	11.07788
0.8805	11.48071
0.881	15.30762
0.8815	7.85522
0.882	12.68921
0.8825	12.68921
0.883	9.46655
0.8835	10.57434
0.884	15.50903
0.8845	15.91187
0.885	12.99133
0.8855	16.61682
0.886	14.90479
0.8865	11.58142
0.887	11.2793
0.8875	14.70337
0.888	15.91187
0.8885	17.12036
0.889	19.73877
0.8895	14.90479
0.89	7.35168
0.8905	12.38708
0.891	8.45947
0.8915	13.797
0.892	13.29346
0.8925	14.50195
0.893	15.30762
0.8935	17.6239
0.894	13.99841
0.8945	14.19983
0.895	13.19275
0.8955	16.41541
0.896	11.78284
0.8965	12.5885
0.897	10.27222
0.8975	10.37292
0.898	13.59558
0.8985	10.27222
0.899	6.3446
0.8995	7.25098
0.9	6.64673
0.9005	14.09912
0.901	14.50195
0.9015	8.35876
0.902	5.43823
0.9025	5.94177
0.903	8.56018
0.9035	1.3092
0.904	7.95593
0.9045	6.3446
0.905	2.81982
0.9055	2.21558
0.906	2.31628
0.9065	-4.53186
0.907	5.0354
0.9075	0.60425
0.908	4.33044
0.9085	-3.7262
0.909	-1.61133
0.9095	-1.00708
0.91	4.63257
0.9105	-0.30212
0.911	4.02832
0.9115	0.60425
0.912	8.35876
0.9125	4.63257
0.913	4.43115
0.9135	8.66089
0.914	8.8623
0.9145	10.67505
0.915	8.15735
0.9155	9.46655
0.916	9.86938
0.9165	3.42407
0.917	4.22974
0.9175	12.38708
0.918	3.8269
0.9185	2.5177
0.919	1.2085
0.9195	4.73328
0.92	4.63257
0.9205	2.11487
0.921	2.71912
0.9215	1.3092
0.922	3.62549
0.9225	8.25806
0.923	2.5177
0.9235	3.02124
0.924	0
0.9245	-3.92761
0.925	3.22266
0.9255	4.63257
0.926	1.00708
0.9265	3.92761
0.927	2.11487
0.9275	2.61841
0.928	4.43115
0.9285	-0.70496
0.929	7.04956
0.9295	4.63257
0.93	1.61133
0.9305	6.44531
0.931	0.80566
0.9315	-0.60425
0.932	4.02832
0.9325	3.62549
0.933	-1.3092
0.9335	5.63965
0.934	5.23682
0.9345	0.60425
0.935	7.65381
0.9355	2.71912
0.936	1.51062
0.9365	3.12195
0.937	1.40991
0.9375	5.13611
0.938	2.21558
0.9385	7.04956
0.939	7.75452
0.9395	5.43823
0.94	3.12195
0.9405	2.61841
0.941	5.63965
0.9415	7.35168
0.942	7.5531
0.9425	5.13611
0.943	4.83398
0.9435	7.65381
0.944	3.02124
0.9445	4.63257
0.945	1.51062
0.9455	6.44531
0.946	0.70496
0.9465	2.5177
0.947	-0.80566
0.9475	0.80566
0.948	-0.50354
0.9485	-1.71204
0.949	2.21558
0.9495	-3.7262
0.95	2.41699
0.9505	7.45239
0.951	4.12903
0.9515	0.40283
0.952	6.64673
0.9525	3.8269
0.953	2.01416
0.9535	3.22266
0.954	5.33752
0.9545	3.02124
0.955	3.22266
0.9555	5.13611
0.956	7.65381
0.9565	9.86938
0.957	8.56018
0.9575	8.05664
0.958	8.25806
0.9585	5.23682
0.959	8.66089
0.9595	5.94177
0.96	5.33752
0.9605	8.15735
0.961	3.92761
0.9615	0.20142
0.962	1.00708
0.9625	-0.30212
0.963	-1.2085
0.9635	5.13611
0.964	5.63965
0.9645	1.91345
0.965	4.22974
0.9655	0
0.966	0
0.9665	6.3446
0.967	2.01416
0.9675	5.33752
0.968	8.7616
0.9685	4.43115
0.969	6.3446
0.9695	-0.20142
0.97	1.00708
0.9705	5.13611
0.971	2.21558
0.9715	4.33044
0.972	1.2085
0.9725	0.70496
0.973	3.62549
0.9735	2.92053
0.974	8.15735
0.9745	7.25098
0.975	6.2439
0.9755	3.22266
0.976	8.05664
0.9765	7.15027
0.977	8.05664
0.9775	7.04956
0.978	6.84814
0.9785	5.13611
0.979	1.2085
0.9795	1.2085
0.98	5.53894
0.9805	7.25098
0.981	3.8269
0.9815	6.3446
0.982	-0.50354
0.9825	4.53186
0.983	3.92761
0.9835	8.7616
0.984	10.47363
0.9845	5.63965
0.985	6.3446
0.9855	4.43115
0.986	2.5177
0.9865	1.00708
0.987	1.3092
0.9875	7.35168
0.988	0.80566
0.9885	0.60425
0.989	4.93469
0.9895	5.43823
0.99	6.64673
0.9905	1.40991
0.991	5.74036
0.9915	4.12903
0.992	6.74744
0.9925	5.0354
0.993	0.90637
0.9935	0.80566
0.994	5.33752
0.9945	5.94177
0.995	6.04248
0.9955	4.83398
0.996	4.43115
0.9965	7.35168
0.997	10.17151
0.9975	7.15027
0.998	12.28638
0.9985	7.45239
0.999	9.76868
0.9995	9.46655
1	2.31628
1.0005	6.2439
1.001	10.37292
1.0015	12.78992
1.002	7.95593
1.0025	4.93469
1.003	6.54602
1.0035	4.12903
1.004	7.35168
1.0045	4.12903
1.005	4.63257
1.0055	8.96301
1.006	7.15027
1.0065	4.93469
1.007	1.71204
1.0075	6.64673
1.008	7.35168
1.0085	9.16443
1.009	4.93469
1.0095	4.93469
1.01	4.83398
1.0105	2.01416
1.011	1.10779
1.0115	4.12903
1.012	2.81982
1.0125	8.45947
1.013	7.75452
1.0135	6.84814
1.014	5.0354
1.0145	9.56726
1.015	9.16443
1.0155	4.22974
1.016	5.33752
1.0165	7.45239
1.017	6.94885
1.0175	6.94885
1.018	11.88354
1.0185	5.53894
1.019	4.63257
1.0195	6.44531
1.02	5.23682
1.0205	5.63965
1.021	3.42407
1.0215	6.2439
1.022	8.45947
1.0225	10.27222
1.023	5.33752
1.0235	3.8269
1.024	3.22266
1.0245	0.60425
1.025	2.71912
1.0255	7.75452
1.026	5.53894
1.0265	8.35876
1.027	8.05664
1.0275	7.15027
1.028	10.17151
1.0285	6.64673
1.029	12.08496
1.0295	5.63965
1.03	6.04248
1.0305	7.45239
1.031	5.0354
1.0315	7.95593
1.032	3.62549
1.0325	6.64673
1.033	2.21558
1.0335	8.05664
1.034	4.22974
1.0345	4.83398
1.035	2.81982
1.0355	4.33044
1.036	6.54602
1.0365	2.5177
1.037	3.7262
1.0375	2.5177
1.038	13.797
1.0385	6.54602
1.039	6.04248
1.0395	-0.40283
1.04	3.02124
1.0405	6.74744
1.041	3.7262
1.0415	3.8269
1.042	1.61133
1.0425	6.84814
1.043	5.43823
1.0435	-1.81274
1.044	5.63965
1.0445	2.71912
1.045	-0.30212
1.0455	8.66089
1.046	8.45947
1.0465	7.5531
1.047	7.15027
1.0475	5.23682
1.048	8.8623
1.0485	7.85522
1.049	12.68921
1.0495	7.25098
1.05	10.17151
1.0505	9.56726
1.051	12.89062
1.0515	8.66089
1.052	10.47363
1.0525	6.74744
1.053	5.43823
1.0535	4.02832
1.054	6.2439
1.0545	8.56018
1.055	7.95593
1.0555	-0.40283
1.056	0.40283
1.0565	5.33752
1.057	8.05664
1.0575	6.64673
1.058	8.96301
1.0585	11.2793
1.059	7.25098
1.0595	6.2439
1.06	8.56018
1.0605	6.14319
1.061	8.45947
1.0615	2.61841
1.062	5.0354
1.0625	8.15735
1.063	6.54602
1.0635	9.36584
1.064	6.2439
1.0645	8.66089
1.065	14.40125
1.0655	9.16443
1.066	6.84814
1.0665	4.73328
1.067	4.12903
1.0675	-0.40283
1.068	3.92761
1.0685	8.05664
1.069	4.93469
1.0695	5.0354
1.07	8.45947
1.0705	6.2439
1.071	8.15735
1.0715	8.45947
1.072	4.93469
1.0725	5.94177
1.073	2.92053
1.0735	5.33752
1.074	6.3446
1.0745	5.43823
1.075	0.70496
1.0755	3.8269
1.076	7.95593
1.0765	6.04248
1.077	5.13611
1.0775	6.84814
1.078	6.74744
1.0785	7.25098
1.079	11.78284
1.0795	10.87646
1.08	9.56726
1.0805	1.91345
1.081	4.73328
1.0815	0.60425
1.082	-4.53186
1.0825	-0.60425
1.083	1.61133
1.0835	3.7262
1.084	3.92761
1.0845	6.74744
1.085	6.54602
1.0855	5.13611
1.086	6.14319
1.0865	10.37292
1.087	5.33752
1.0875	7.45239
1.088	13.99841
1.0885	-0.60425
1.089	3.12195
1.0895	5.33752
1.09	6.84814
1.0905	5.13611
1.091	5.94177
1.0915	6.04248
1.092	2.11487
1.0925	1.91345
1.093	5.53894
1.0935	3.52478
1.094	11.48071
1.0945	6.74744
1.095	3.92761
1.0955	7.95593
1.096	8.66089
1.0965	9.66797
1.097	10.57434
1.0975	8.15735
1.098	3.92761
1.0985	10.67505
1.099	8.8623
1.0995	4.33044
1.1	8.45947
1.1005	5.53894
1.101	9.16443
1.1015	6.94885
1.102	8.56018
1.1025	11.98425
1.103	6.94885
1.1035	5.43823
1.104	7.25098
1.1045	7.15027
1.105	4.73328
1.1055	10.87646
1.106	15.50903
1.1065	10.67505
1.107	5.53894
1.1075	8.45947
1.108	3.02124
1.1085	9.86938
1.109	4.93469
1.1095	9.56726
1.11	10.17151
1.1105	3.42407
1.111	3.7262
1.1115	1.61133
1.112	1.40991
1.1125	3.02124
1.113	3.8269
1.1135	2.5177
1.114	8.96301
1.1145	15.1062
1.115	11.2793
1.1155	7.15027
1.116	7.5531
1.1165	8.25806
1.117	7.5531
1.1175	6.3446
1.118	2.31628
1.1185	3.32336
1.119	8.15735
1.1195	7.35168
1.12	8.45947
1.1205	9.46655
1.121	9.36584
1.1215	2.92053
1.122	2.92053
1.1225	6.04248
1.123	8.15735
1.1235	-1.61133
1.124	5.63965
1.1245	6.04248
1.125	9.26514
1.1255	0.80566
1.126	5.43823
1.1265	5.74036
1.127	5.63965
1.1275	4.53186
1.128	4.63257
1.1285	5.94177
1.129	7.45239
1.1295	2.01416
1.13	2.71912
1.1305	0.30212
1.131	3.42407
1.1315	-1.2085
1.132	10.57434
1.1325	4.53186
1.133	3.52478
1.1335	3.8269
1.134	5.23682
1.1345	5.63965
1.135	-0.60425
1.1355	0.70496
1.136	1.71204
1.1365	0.50354
1.137	4.93469
1.1375	3.92761
1.138	7.65381
1.1385	2.92053
1.139	4.12903
1.1395	4.53186
1.14	1.71204
1.1405	1.81274
1.141	5.33752
1.1415	4.22974
1.142	9.56726
1.1425	4.43115
1.143	5.33752
1.1435	3.32336
1.144	3.52478
1.1445	10.77576
1.145	9.76868
1.1455	5.94177
1.146	7.04956
1.1465	7.45239
1.147	3.32336
1.1475	2.92053
1.148	3.52478
1.1485	4.02832
1.149	7.85522
1.1495	6.2439
1.15	1.61133
1.1505	4.83398
1.151	7.25098
1.1515	1.81274
1.152	7.45239
1.1525	6.3446
1.153	9.97009
1.1535	8.96301
1.154	13.19275
1.1545	8.35876
1.155	6.3446
1.1555	10.77576
1.156	13.99841
1.1565	8.35876
1.157	6.44531
1.1575	11.17859
1.158	5.23682
1.1585	2.01416
1.159	8.8623
1.1595	9.06372
1.16	8.05664
1.1605	4.73328
1.161	2.5177
1.1615	7.35168
1.162	5.84106
1.1625	4.83398
1.163	0.10071
1.1635	5.63965
1.164	4.43115
1.1645	6.04248
1.165	0.80566
1.1655	-2.41699
1.166	2.21558
1.1665	5.13611
1.167	2.61841
1.1675	0.10071
1.168	3.52478
1.1685	7.25098
1.169	4.73328
1.1695	11.2793
1.17	7.75452
1.1705	6.3446
1.171	0.10071
1.1715	3.52478
1.172	12.68921
1.1725	13.09204
1.173	6.3446
1.1735	8.15735
1.174	4.83398
1.1745	4.33044
1.175	4.12903
1.1755	-2.21558
1.176	3.42407
1.1765	4.22974
1.177	0
1.1775	-0.20142
1.178	1.71204
1.1785	6.14319
1.179	5.84106
1.1795	3.32336
1.18	5.74036
1.1805	6.84814
1.181	7.45239
1.1815	4.43115
1.182	8.15735
1.1825	3.42407
1.183	2.01416
1.1835	3.92761
1.184	1.3092
1.1845	1.51062
1.185	4.63257
1.1855	3.32336
1.186	6.94885
1.1865	6.44531
1.187	-2.11487
1.1875	-0.70496
1.188	-0.10071
1.1885	3.42407
1.189	1.61133
1.1895	3.02124
1.19	5.63965
1.1905	4.93469
1.191	-1.10779
1.1915	6.14319
1.192	4.73328
1.1925	10.47363
1.193	3.8269
1.1935	4.12903
1.194	2.92053
1.1945	3.32336
1.195	6.2439
1.1955	5.0354
1.196	8.7616
1.1965	9.97009
1.197	6.84814
1.1975	11.38
1.198	6.54602
1.1985	4.22974
1.199	9.26514
1.1995	11.38
1.2	9.26514
1.2005	7.85522
1.201	4.63257
1.2015	6.94885
1.202	6.84814
1.2025	2.81982
1.203	3.62549
1.2035	3.32336
1.204	5.13611
1.2045	7.04956
1.205	1.3092
1.2055	4.73328
1.206	6.3446
1.2065	5.33752
1.207	10.17151
1.2075	7.85522
1.208	7.35168
1.2085	4.22974
1.209	5.53894
1.2095	6.3446
1.21	5.63965
1.2105	4.02832
1.211	6.04248
1.2115	3.22266
1.212	4.63257
1.2125	5.43823
1.213	4.63257
1.2135	3.22266
1.214	9.16443
1.2145	10.47363
1.215	7.85522
1.2155	9.26514
1.216	6.64673
1.2165	7.85522
1.217	6.84814
1.2175	7.25098
1.218	4.22974
1.2185	4.02832
1.219	6.14319
1.2195	8.66089
1.22	5.13611
1.2205	10.17151
1.221	6.44531
1.2215	6.3446
1.222	5.13611
1.2225	5.63965
1.223	4.53186
1.2235	5.0354
1.224	7.95593
1.2245	4.73328
1.225	3.12195
1.2255	3.8269
1.226	0.80566
1.2265	4.83398
1.227	3.02124
1.2275	4.53186
1.228	6.64673
1.2285	1.40991
1.229	3.42407
1.2295	4.63257
1.23	1.40991
1.2305	2.81982
1.231	1.40991
1.2315	0.40283
1.232	6.54602
1.2325	2.21558
1.233	6.14319
1.2335	2.11487
1.234	4.83398
1.2345	1.81274
1.235	1.3092
1.2355	7.5531
1.236	5.63965
1.2365	3.32336
1.237	5.74036
1.2375	9.86938
1.238	8.25806
1.2385	6.54602
1.239	3.12195
1.2395	3.7262
1.24	10.37292
1.2405	6.04248
1.241	6.04248
1.2415	9.66797
1.242	6.04248
1.2425	2.31628
1.243	8.66089
1.2435	11.2793
1.244	9.36584
1.2445	5.0354
1.245	9.86938
1.2455	6.74744
1.246	7.15027
1.2465	7.85522
1.247	5.43823
1.2475	11.48071
1.248	10.0708
1.2485	12.99133
1.249	9.46655
1.2495	12.38708
1.25	10.67505
1.2505	5.23682
1.251	7.5531
1.2515	7.5531
1.252	5.23682
1.2525	9.46655
1.253	3.52478
1.2535	9.16443
1.254	10.47363
1.2545	6.3446
1.255	12.38708
1.2555	14.09912
1.256	7.45239
1.2565	2.71912
1.257	6.94885
1.2575	5.43823
1.258	6.04248
1.2585	9.76868
1.259	9.66797
1.2595	12.78992
1.26	11.38
1.2605	7.65381
1.261	9.16443
1.2615	4.53186
1.262	5.13611
1.2625	9.46655
1.263	6.54602
1.2635	7.5531
1.264	9.46655
1.2645	10.57434
1.265	11.2793
1.2655	6.44531
1.266	2.01416
1.2665	3.12195
1.267	2.41699
1.2675	5.74036
1.268	6.04248
1.2685	9.26514
1.269	5.63965
1.2695	5.53894
1.27	2.41699
1.2705	5.94177
1.271	8.25806
1.2715	4.73328
1.272	10.37292
1.2725	7.75452
1.273	7.65381
1.2735	5.43823
1.274	9.66797
1.2745	5.23682
1.275	1.81274
1.2755	0.50354
1.276	4.43115
1.2765	4.93469
1.277	1.10779
1.2775	8.66089
1.278	4.83398
1.2785	3.02124
1.279	-3.42407
1.2795	5.43823
1.28	5.13611
1.2805	-1.61133
1.281	2.31628
1.2815	3.62549
1.282	4.43115
1.2825	5.33752
1.283	3.32336
1.2835	5.43823
1.284	2.01416
1.2845	1.91345
1.285	4.73328
1.2855	3.12195
1.286	5.53894
1.2865	3.7262
1.287	3.52478
1.2875	8.8623
1.288	7.85522
1.2885	1.51062
1.289	5.0354
1.2895	1.00708
1.29	10.17151
1.2905	4.33044
1.291	5.84106
1.2915	6.64673
1.292	6.54602
1.2925	-0.20142
1.293	-0.10071
1.2935	2.41699
1.294	9.36584
1.2945	11.2793
1.295	8.25806
1.2955	5.84106
1.296	7.95593
1.2965	3.92761
1.297	7.15027
1.2975	5.23682
1.298	12.08496
1.2985	8.8623
1.299	3.62549
1.2995	8.66089
1.3	12.99133
1.3005	4.93469
1.301	7.75452
1.3015	5.94177
1.302	10.47363
1.3025	11.48071
1.303	7.85522
1.3035	6.44531
1.304	8.8623
1.3045	5.53894
1.305	9.97009
1.3055	6.64673
1.306	11.58142
1.3065	11.68213
1.307	13.49487
1.3075	10.97717
1.308	6.54602
1.3085	6.84814
1.309	8.05664
1.3095	12.5885
1.31	5.23682
1.3105	10.87646
1.311	10.67505
1.3115	10.0708
1.312	4.93469
1.3125	11.78284
1.313	5.84106
1.3135	1.2085
1.314	-1.10779
1.3145	4.73328
1.315	1.61133
1.3155	9.16443
1.316	8.45947
1.3165	12.78992
1.317	10.77576
1.3175	4.33044
1.318	4.93469
1.3185	4.22974
1.319	5.43823
1.3195	5.84106
1.32	11.98425
1.3205	6.84814
1.321	0
1.3215	5.13611
1.322	1.61133
1.3225	2.5177
1.323	3.32336
1.3235	6.64673
1.324	6.74744
1.3245	9.36584
1.325	9.66797
1.3255	9.76868
1.326	5.63965
1.3265	4.63257
1.327	6.64673
1.3275	6.94885
1.328	8.05664
1.3285	8.56018
1.329	12.28638
1.3295	8.05664
1.33	4.63257
1.3305	3.92761
1.331	3.7262
1.3315	6.94885
1.332	6.04248
1.3325	8.45947
1.333	7.65381
1.3335	8.7616
1.334	7.25098
1.3345	2.31628
1.335	3.8269
1.3355	3.62549
1.336	5.84106
1.3365	2.31628
1.337	7.65381
1.3375	-3.12195
1.338	-0.60425
1.3385	7.35168
1.339	0.10071
1.3395	9.46655
1.34	2.5177
1.3405	4.43115
1.341	1.3092
1.3415	8.05664
1.342	7.25098
1.3425	7.45239
1.343	5.94177
1.3435	10.37292
1.344	6.94885
1.3445	0.30212
1.345	4.12903
1.3455	5.84106
1.346	2.11487
1.3465	-0.20142
1.347	8.25806
1.3475	4.12903
1.348	3.52478
1.3485	8.56018
1.349	5.94177
1.3495	2.92053
1.35	3.32336
1.3505	5.94177
1.351	9.56726
1.3515	12.78992
1.352	7.25098
1.3525	2.11487
1.353	7.5531
1.3535	6.64673
1.354	4.12903
1.3545	2.81982
1.355	14.09912
1.3555	8.66089
1.356	13.19275
1.3565	4.12903
1.357	8.7616
1.3575	14.60266
1.358	12.08496
1.3585	7.15027
1.359	10.37292
1.3595	6.84814
1.36	9.46655
1.3605	4.83398
1.361	7.15027
1.3615	7.35168
1.362	6.74744
1.3625	8.35876
1.363	10.77576
1.3635	7.25098
1.364	7.04956
1.3645	8.7616
1.365	5.0354
1.3655	6.84814
1.366	9.56726
1.3665	4.63257
1.367	10.57434
1.3675	12.18567
1.368	9.06372
1.3685	2.31628
1.369	8.35876
1.3695	7.65381
1.37	2.11487
1.3705	2.11487
1.371	9.97009
1.3715	2.81982
1.372	6.84814
1.3725	4.63257
1.373	2.41699
1.3735	4.53186
1.374	5.74036
1.3745	0.10071
1.375	9.16443
1.3755	4.53186
1.376	9.26514
1.3765	5.53894
1.377	6.64673
1.3775	5.23682
1.378	1.40991
1.3785	6.54602
1.379	2.11487
1.3795	1.51062
1.38	-1.3092
1.3805	7.45239
1.381	7.04956
1.3815	6.64673
1.382	5.43823
1.3825	7.95593
1.383	10.57434
1.3835	6.14319
1.384	7.85522
1.3845	3.92761
1.385	7.25098
1.3855	3.52478
1.386	3.02124
1.3865	0.60425
1.387	5.53894
1.3875	6.04248
1.388	3.92761
1.3885	8.7616
1.389	4.93469
1.3895	5.33752
1.39	1.91345
1.3905	1.3092
1.391	4.73328
1.3915	7.25098
1.392	5.63965
1.3925	4.83398
1.393	2.71912
1.3935	5.63965
1.394	6.2439
1.3945	-0.50354
1.395	5.13611
1.3955	3.92761
1.396	2.21558
1.3965	5.13611
1.397	5.94177
1.3975	5.0354
1.398	8.56018
1.3985	2.81982
1.399	6.94885
1.3995	6.04248
1.4	6.84814
1.4005	2.92053
1.401	-0.60425
1.4015	3.8269
1.402	-0.50354
1.4025	6.2439
1.403	6.94885
1.4035	7.65381
1.404	3.22266
1.4045	4.93469
1.405	4.12903
1.4055	11.17859
1.406	4.73328
1.4065	1.91345
1.407	5.63965
1.4075	4.43115
1.408	2.41699
1.4085	6.2439
1.409	1.51062
1.4095	3.22266
1.41	4.83398
1.4105	4.43115
1.411	7.25098
1.4115	0.80566
1.412	6.04248
1.4125	10.17151
1.413	6.14319
1.4135	1.91345
1.414	1.61133
1.4145	2.41699
1.415	6.54602
1.4155	3.7262
1.416	3.52478
1.4165	3.02124
1.417	4.73328
1.4175	6.3446
1.418	2.01416
1.4185	1.61133
1.419	6.94885
1.4195	7.5531
1.42	7.15027
1.4205	4.83398
1.421	10.37292
1.4215	9.06372
1.422	5.33752
1.4225	3.02124
1.423	5.74036
1.4235	6.54602
1.424	4.63257
1.4245	7.45239
1.425	7.85522
1.4255	9.66797
1.426	12.68921
1.4265	6.64673
1.427	10.87646
1.4275	7.15027
1.428	9.66797
1.4285	5.23682
1.429	5.94177
1.4295	2.21558
1.43	8.56018
1.4305	10.0708
1.431	9.86938
1.4315	6.14319
1.432	8.56018
1.4325	8.15735
1.433	1.2085
1.4335	6.3446
1.434	6.14319
1.4345	3.92761
1.435	6.2439
1.4355	9.06372
1.436	9.26514
1.4365	9.86938
1.437	3.22266
1.4375	14.80408
1.438	7.85522
1.4385	7.15027
1.439	11.48071
1.4395	13.39417
1.44	7.65381
1.4405	11.98425
1.441	8.05664
1.4415	12.18567
1.442	11.58142
1.4425	12.68921
1.443	6.44531
1.4435	6.14319
1.444	7.15027
1.4445	4.02832
1.445	3.32336
1.4455	8.96301
1.446	3.42407
1.4465	5.43823
1.447	3.32336
1.4475	7.04956
1.448	2.71912
1.4485	1.3092
1.449	1.40991
1.4495	6.74744
1.45	8.45947
1.4505	5.33752
1.451	4.83398
1.4515	5.84106
1.452	10.57434
1.4525	5.43823
1.453	4.22974
1.4535	0.90637
1.454	6.04248
1.4545	3.62549
1.455	5.0354
1.4555	9.56726
1.456	10.67505
1.4565	8.8623
1.457	7.75452
1.4575	8.35876
1.458	8.45947
1.4585	8.56018
1.459	2.92053
1.4595	5.53894
1.46	4.02832
1.4605	3.92761
1.461	1.51062
1.4615	5.33752
1.462	3.12195
1.4625	-1.51062
1.463	2.81982
1.4635	-1.71204
1.464	0.80566
1.4645	6.54602
1.465	9.46655
1.4655	5.0354
1.466	3.02124
1.4665	3.52478
1.467	0.10071
1.4675	-1.71204
1.468	2.41699
1.4685	1.91345
1.469	5.33752
1.4695	5.84106
1.47	5.13611
1.4705	8.05664
1.471	6.64673
1.4715	-0.40283
1.472	0.70496
1.4725	2.61841
1.473	3.62549
1.4735	3.8269
1.474	1.3092
1.4745	4.22974
1.475	-1.2085
1.4755	3.02124
1.476	9.76868
1.4765	7.65381
1.477	9.76868
1.4775	9.76868
1.478	3.92761
1.4785	4.02832
1.479	5.0354
1.4795	8.15735
1.48	4.53186
1.4805	10.77576
1.481	11.07788
1.4815	17.12036
1.482	8.96301
1.4825	7.35168
1.483	9.36584
1.4835	5.13611
1.484	9.86938
1.4845	11.78284
1.485	5.63965
1.4855	7.5531
1.486	7.75452
1.4865	8.45947
1.487	8.05664
1.4875	0.40283
1.488	8.56018
1.4885	-1.71204
1.489	7.35168
1.4895	6.2439
1.49	10.27222
1.4905	-0.80566
1.491	2.01416
1.4915	4.93469
1.492	5.0354
1.4925	2.71912
1.493	-2.01416
1.4935	3.62549
1.494	4.63257
1.4945	5.84106
1.495	2.61841
1.4955	6.3446
1.496	0
1.4965	0.10071
1.497	3.7262
1.4975	2.01416
1.498	1.3092
1.4985	-2.81982
1.499	-0.90637
1.4995	3.7262
1.5	0.60425
1.5005	0.70496
1.501	1.00708
1.5015	4.33044
1.502	3.32336
1.5025	2.41699
1.503	5.94177
1.5035	1.61133
1.504	-3.12195
1.5045	3.02124
1.505	3.62549
1.5055	1.2085
1.506	3.42407
1.5065	3.02124
1.507	4.43115
1.5075	2.92053
1.508	2.5177
1.5085	2.01416
1.509	-0.80566
1.5095	2.81982
1.51	7.85522
1.5105	3.42407
1.511	4.93469
1.5115	3.42407
1.512	2.41699
1.5125	2.41699
1.513	2.71912
1.5135	5.13611
1.514	-1.00708
1.5145	3.7262
1.515	2.71912
1.5155	2.71912
1.516	0.10071
1.5165	3.32336
1.517	7.85522
1.5175	6.64673
1.518	7.04956
1.5185	7.95593
1.519	7.5531
1.5195	7.15027
1.52	7.85522
1.5205	13.09204
1.521	10.87646
1.5215	5.94177
1.522	3.7262
1.5225	7.04956
1.523	1.91345
1.5235	2.31628
1.524	3.7262
1.5245	-0.70496
1.525	2.71912
1.5255	6.84814
1.526	-1.00708
1.5265	7.35168
1.527	5.43823
1.5275	3.12195
1.528	2.31628
1.5285	6.14319
1.529	6.2439
1.5295	3.22266
1.53	6.44531
1.5305	1.10779
1.531	-0.40283
1.5315	6.74744
1.532	5.84106
1.5325	6.44531
1.533	1.81274
1.5335	4.02832
1.534	5.23682
1.5345	0.10071
1.535	2.41699
1.5355	-4.43115
1.536	3.22266
1.5365	5.23682
1.537	2.92053
1.5375	1.40991
1.538	3.92761
1.5385	0
1.539	0.60425
1.5395	5.23682
1.54	7.75452
1.5405	0.80566
1.541	3.92761
1.5415	11.38
1.542	9.86938
1.5425	10.27222
1.543	8.05664
1.5435	11.17859
1.544	9.86938
1.5445	6.74744
1.545	3.62549
1.5455	0.40283
1.546	5.53894
1.5465	1.40991
1.547	7.85522
1.5475	3.22266
1.548	3.52478
1.5485	2.01416
1.549	7.15027
1.5495	5.63965
1.55	4.83398
1.5505	1.91345
1.551	6.3446
1.5515	5.63965
1.552	5.94177
1.5525	7.04956
1.553	5.53894
1.5535	7.85522
1.554	10.17151
1.5545	2.61841
1.555	6.04248
1.5555	2.71912
1.556	1.40991
1.5565	9.36584
1.557	8.25806
1.5575	5.0354
1.558	6.2439
1.5585	8.05664
1.559	7.85522
1.5595	3.62549
1.56	3.02124
1.5605	3.52478
1.561	1.81274
1.5615	-1.10779
1.562	5.43823
1.5625	9.56726
1.563	3.02124
1.5635	4.33044
1.564	5.0354
1.5645	3.42407
1.565	9.86938
1.5655	3.32336
1.566	4.53186
1.5665	9.16443
1.567	7.45239
1.5675	10.77576
1.568	12.08496
1.5685	10.97717
1.569	9.76868
1.5695	6.94885
1.57	9.36584
1.5705	4.33044
1.571	9.86938
1.5715	15.71045
1.572	13.29346
1.5725	16.51611
1.573	12.78992
1.5735	11.2793
1.574	11.68213
1.5745	13.49487
1.575	8.05664
1.5755	8.35876
1.576	7.04956
1.5765	10.17151
1.577	5.33752
1.5775	5.13611
1.578	10.97717
1.5785	11.48071
1.579	10.27222
1.5795	15.20691
1.58	5.0354
1.5805	8.56018
1.581	9.36584
1.5815	8.66089
1.582	8.96301
1.5825	4.02832
1.583	8.66089
1.5835	9.16443
1.584	5.0354
1.5845	7.5531
1.585	8.35876
1.5855	4.63257
1.586	0.70496
1.5865	2.41699
1.587	6.74744
1.5875	7.04956
1.588	3.92761
1.5885	3.62549
1.589	3.32336
1.5895	5.23682
1.59	4.93469
1.5905	4.22974
1.591	5.23682
1.5915	-0.40283
1.592	7.95593
1.5925	8.66089
1.593	1.71204
1.5935	1.61133
1.594	4.63257
1.5945	4.02832
1.595	5.23682
1.5955	5.74036
1.596	6.84814
1.5965	4.83398
1.597	8.66089
1.5975	3.7262
1.598	8.66089
1.5985	8.45947
1.599	6.54602
1.5995	8.25806
1.6	9.16443
1.6005	4.43115
1.601	7.15027
1.6015	5.84106
1.602	1.91345
1.6025	-0.10071
1.603	1.10779
1.6035	0.40283
1.604	6.3446
1.6045	9.06372
1.605	4.73328
1.6055	4.83398
1.606	6.44531
1.6065	10.77576
1.607	12.38708
1.6075	11.17859
1.608	7.25098
1.6085	4.83398
1.609	6.74744
1.6095	6.14319
1.61	5.23682
1.6105	6.74744
1.611	11.07788
1.6115	3.22266
1.612	2.11487
1.6125	2.11487
1.613	2.92053
1.6135	-1.2085
1.614	2.61841
1.6145	2.01416
1.615	2.11487
1.6155	4.12903
1.616	2.41699
1.6165	6.3446
1.617	8.05664
1.6175	5.0354
1.618	0.90637
1.6185	8.25806
1.619	8.66089
1.6195	2.71912
1.62	3.12195
1.6205	8.66089
1.621	9.06372
1.6215	8.96301
1.622	3.7262
1.6225	4.93469
1.623	9.06372
1.6235	5.43823
1.624	5.33752
1.6245	7.35168
1.625	9.36584
1.6255	6.2439
1.626	3.42407
1.6265	2.31628
1.627	8.25806
1.6275	7.04956
1.628	-0.10071
1.6285	-7.15027
1.629	2.01416
1.6295	4.83398
1.63	3.02124
1.6305	2.92053
1.631	6.74744
1.6315	8.35876
1.632	4.22974
1.6325	3.8269
1.633	7.75452
1.6335	1.10779
1.634	3.22266
1.6345	2.11487
1.635	7.04956
1.6355	0.30212
1.636	1.71204
1.6365	9.76868
1.637	1.91345
1.6375	6.2439
1.638	11.2793
1.6385	5.23682
1.639	5.63965
1.6395	4.93469
1.64	4.22974
1.6405	0
1.641	3.32336
1.6415	5.74036
1.642	4.53186
1.6425	-0.70496
1.643	4.22974
1.6435	12.18567
1.644	7.35168
1.6445	9.76868
1.645	5.33752
1.6455	3.12195
1.646	5.13611
1.6465	8.25806
1.647	11.38
1.6475	9.26514
1.648	5.63965
1.6485	8.56018
1.649	8.45947
1.6495	1.00708
1.65	6.14319
1.6505	7.85522
1.651	9.86938
1.6515	7.15027
1.652	1.3092
1.6525	5.43823
1.653	4.93469
1.6535	2.71912
1.654	7.35168
1.6545	6.64673
1.655	7.85522
1.6555	6.74744
1.656	3.22266
1.6565	7.04956
1.657	-3.52478
1.6575	0.30212
1.658	0.40283
1.6585	0.10071
1.659	-0.20142
1.6595	2.5177
1.66	2.41699
1.6605	0
1.661	-0.70496
1.6615	6.2439
1.662	7.75452
1.6625	3.32336
1.663	3.02124
1.6635	-0.10071
1.664	1.71204
1.6645	4.73328
1.665	6.44531
1.6655	-0.50354
1.666	-1.91345
1.6665	2.11487
1.667	-0.60425
1.6675	1.3092
1.668	-2.01416
1.6685	3.8269
1.669	2.21558
1.6695	6.54602
1.67	2.41699
1.6705	4.22974
1.671	2.31628
1.6715	7.25098
1.672	5.74036
1.6725	1.40991
1.673	5.63965
1.6735	7.5531
1.674	2.71912
1.6745	4.22974
1.675	2.61841
1.6755	6.2439
1.676	5.43823
1.6765	8.15735
1.677	3.32336
1.6775	4.43115
1.678	-1.61133
1.6785	-1.51062
1.679	4.73328
1.6795	9.46655
1.68	8.96301
1.6805	10.0708
1.681	2.81982
1.6815	6.2439
1.682	3.02124
1.6825	-2.11487
1.683	5.43823
1.6835	5.74036
1.684	2.5177
1.6845	4.73328
1.685	1.00708
1.6855	0.10071
1.686	0.60425
1.6865	2.01416
1.687	1.61133
1.6875	3.62549
1.688	-0.90637
1.6885	5.0354
1.689	5.0354
1.6895	0.90637
1.69	3.62549
1.6905	2.81982
1.691	6.3446
1.6915	-1.3092
1.692	2.11487
1.6925	0.90637
1.693	2.11487
1.6935	0.10071
1.694	7.04956
1.6945	8.7616
1.695	2.71912
1.6955	0.30212
1.696	4.53186
1.6965	1.91345
1.697	1.3092
1.6975	2.5177
1.698	4.02832
1.6985	6.74744
1.699	-0.40283
1.6995	6.54602
1.7	1.2085
1.7005	2.81982
1.701	10.17151
1.7015	7.45239
1.702	6.54602
1.7025	6.54602
1.703	2.61841
1.7035	4.83398
1.704	0.60425
1.7045	-0.50354
1.705	4.12903
1.7055	4.93469
1.706	1.40991
1.7065	7.25098
1.707	7.04956
1.7075	7.04956
1.708	4.33044
1.7085	4.22974
1.709	2.81982
1.7095	9.06372
1.71	5.43823
1.7105	-0.20142
1.711	7.75452
1.7115	5.94177
1.712	7.95593
1.7125	5.94177
1.713	3.52478
1.7135	6.94885
1.714	3.52478
1.7145	3.02124
1.715	7.85522
1.7155	8.35876
1.716	8.15735
1.7165	5.43823
1.717	4.53186
1.7175	10.57434
1.718	7.5531
1.7185	4.83398
1.719	8.15735
1.7195	2.81982
1.72	9.86938
1.7205	9.97009
1.721	7.95593
1.7215	7.04956
1.722	7.04956
1.7225	4.63257
1.723	8.96301
1.7235	6.54602
1.724	-1.10779
1.7245	6.14319
1.725	8.45947
1.7255	5.43823
1.726	5.23682
1.7265	2.01416
1.727	5.23682
1.7275	2.5177
1.728	4.93469
1.7285	4.63257
1.729	10.27222
1.7295	9.16443
1.73	4.33044
1.7305	8.8623
1.731	8.05664
1.7315	6.44531
1.732	8.8623
1.7325	6.54602
1.733	11.48071
1.7335	7.15027
1.734	8.96301
1.7345	13.29346
1.735	3.42407
1.7355	8.96301
1.736	4.43115
1.7365	6.54602
1.737	4.43115
1.7375	5.23682
1.738	3.32336
1.7385	6.84814
1.739	8.66089
1.7395	5.23682
1.74	0.40283
1.7405	8.8623
1.741	5.23682
1.7415	3.8269
1.742	3.32336
1.7425	6.74744
1.743	8.25806
1.7435	6.54602
1.744	7.5531
1.7445	7.5531
1.745	6.84814
1.7455	6.54602
1.746	8.15735
1.7465	8.7616
1.747	9.36584
1.7475	2.61841
1.748	12.99133
1.7485	7.95593
1.749	8.56018
1.7495	7.75452
1.75	4.02832
1.7505	10.47363
1.751	10.67505
1.7515	11.2793
1.752	6.64673
1.7525	9.86938
1.753	8.66089
1.7535	9.76868
1.754	6.44531
1.7545	5.84106
1.755	9.46655
1.7555	8.56018
1.756	4.73328
1.7565	3.32336
1.757	4.12903
1.7575	6.04248
1.758	7.65381
1.7585	5.63965
1.759	6.3446
1.7595	12.28638
1.76	7.5531
1.7605	8.8623
1.761	7.25098
1.7615	6.74744
1.762	7.15027
1.7625	10.27222
1.763	6.74744
1.7635	4.63257
1.764	8.66089
1.7645	7.5531
1.765	8.15735
1.7655	10.57434
1.766	4.33044
1.7665	4.02832
1.767	2.61841
1.7675	9.26514
1.768	8.66089
1.7685	2.5177
1.769	5.33752
1.7695	4.93469
1.77	7.5531
1.7705	4.33044
1.771	2.01416
1.7715	0.40283
1.772	4.02832
1.7725	-2.31628
1.773	2.31628
1.7735	2.31628
1.774	2.01416
1.7745	4.12903
1.775	2.01416
1.7755	0.30212
1.776	4.83398
1.7765	5.13611
1.777	6.04248
1.7775	5.23682
1.778	3.02124
1.7785	8.66089
1.779	9.46655
1.7795	7.5531
1.78	10.47363
1.7805	5.43823
1.781	6.94885
1.7815	8.56018
1.782	4.73328
1.7825	6.14319
1.783	8.15735
1.7835	7.5531
1.784	7.65381
1.7845	4.53186
1.785	6.3446
1.7855	6.54602
1.786	1.2085
1.7865	4.02832
1.787	1.81274
1.7875	9.26514
1.788	9.46655
1.7885	6.84814
1.789	2.31628
1.7895	4.22974
1.79	6.54602
1.7905	6.74744
1.791	10.67505
1.7915	2.11487
1.792	7.45239
1.7925	8.66089
1.793	5.53894
1.7935	4.83398
1.794	6.84814
1.7945	2.41699
1.795	2.01416
1.7955	-2.11487
1.796	-3.42407
1.7965	3.8269
1.797	-0.20142
1.7975	1.91345
1.798	5.0354
1.7985	4.22974
1.799	1.71204
1.7995	5.43823
1.8	3.02124
1.8005	4.63257
1.801	7.04956
1.8015	5.53894
1.802	0.60425
1.8025	2.71912
1.803	6.54602
1.8035	6.54602
1.804	2.5177
1.8045	2.92053
1.805	4.53186
1.8055	-4.22974
1.806	-0.90637
1.8065	0.80566
1.807	1.61133
1.8075	2.01416
1.808	6.3446
1.8085	9.06372
1.809	8.15735
1.8095	3.12195
1.81	5.43823
1.8105	7.25098
1.811	1.40991
1.8115	4.53186
1.812	7.65381
1.8125	8.7616
1.813	11.17859
1.8135	10.0708
1.814	9.16443
1.8145	6.14319
1.815	3.42407
1.8155	8.15735
1.816	2.92053
1.8165	8.7616
1.817	7.85522
1.8175	6.2439
1.818	3.42407
1.8185	1.71204
1.819	6.44531
1.8195	4.12903
1.82	4.83398
1.8205	4.33044
1.821	-0.30212
1.8215	5.23682
1.822	3.22266
1.8225	4.83398
1.823	5.63965
1.8235	4.83398
1.824	7.45239
1.8245	8.05664
1.825	6.74744
1.8255	5.13611
1.826	5.84106
1.8265	0.40283
1.827	3.32336
1.8275	2.92053
1.828	10.27222
1.8285	0
1.829	1.3092
1.8295	4.22974
1.83	3.8269
1.8305	6.54602
1.831	3.12195
1.8315	6.74744
1.832	1.71204
1.8325	7.95593
1.833	4.53186
1.8335	2.5177
1.834	6.44531
1.8345	8.35876
1.835	-1.71204
1.8355	7.25098
1.836	6.64673
1.8365	-1.3092
1.837	3.92761
1.8375	4.83398
1.838	5.0354
1.8385	5.0354
1.839	0.60425
1.8395	1.10779
1.84	8.35876
1.8405	2.21558
1.841	4.73328
1.8415	5.53894
1.842	8.25806
1.8425	10.57434
1.843	6.2439
1.8435	7.35168
1.844	-0.20142
1.8445	0.20142
1.845	6.3446
1.8455	6.54602
1.846	6.74744
1.8465	5.0354
1.847	2.92053
1.8475	5.23682
1.848	8.96301
1.8485	7.85522
1.849	6.64673
1.8495	8.66089
1.85	7.85522
1.8505	5.33752
1.851	5.13611
1.8515	3.52478
1.852	1.10779
1.8525	12.08496
1.853	4.02832
1.8535	13.39417
1.854	5.13611
1.8545	7.95593
1.855	0.80566
1.8555	7.45239
1.856	3.7262
1.8565	8.15735
1.857	6.04248
1.8575	8.15735
1.858	10.67505
1.8585	3.32336
1.859	1.40991
1.8595	4.53186
1.86	5.74036
1.8605	4.83398
1.861	9.46655
1.8615	7.45239
1.862	6.64673
1.8625	5.33752
1.863	2.11487
1.8635	6.04248
1.864	5.33752
1.8645	6.54602
1.865	11.48071
1.8655	9.26514
1.866	10.67505
1.8665	3.52478
1.867	5.43823
1.8675	3.42407
1.868	9.26514
1.8685	7.5531
1.869	4.73328
1.8695	6.04248
1.87	12.68921
1.8705	7.65381
1.871	11.07788
1.8715	10.17151
1.872	4.33044
1.8725	4.73328
1.873	4.12903
1.8735	8.35876
1.874	6.84814
1.8745	6.94885
1.875	2.5177
1.8755	6.3446
1.876	10.37292
1.8765	9.46655
1.877	1.40991
1.8775	0.20142
1.878	1.2085
1.8785	8.8623
1.879	1.2085
1.8795	-0.80566
1.88	-1.2085
1.8805	7.04956
1.881	5.94177
1.8815	6.14319
1.882	3.02124
1.8825	6.64673
1.883	4.12903
1.8835	4.63257
1.884	7.04956
1.8845	1.51062
1.885	1.71204
1.8855	1.10779
1.886	1.91345
1.8865	4.43115
1.887	5.0354
1.8875	5.84106
1.888	2.21558
1.8885	3.42407
1.889	4.22974
1.8895	2.5177
1.89	3.8269
1.8905	11.88354
1.891	4.12903
1.8915	-0.20142
1.892	5.43823
1.8925	1.71204
1.893	7.15027
1.8935	5.43823
1.894	2.81982
1.8945	3.62549
1.895	4.53186
1.8955	4.12903
1.896	4.43115
1.8965	4.93469
1.897	2.11487
1.8975	2.11487
1.898	3.52478
1.8985	3.32336
1.899	-0.50354
1.8995	7.65381
1.9	6.14319
1.9005	6.04248
1.901	8.05664
1.9015	4.63257
1.902	8.45947
1.9025	2.81982
1.903	1.3092
1.9035	-2.11487
1.904	1.3092
1.9045	2.71912
1.905	5.94177
1.9055	1.81274
1.906	2.5177
1.9065	7.45239
1.907	4.53186
1.9075	3.52478
1.908	3.12195
1.9085	1.10779
1.909	6.04248
1.9095	8.8623
1.91	12.38708
1.9105	9.46655
1.911	7.65381
1.9115	4.22974
1.912	4.63257
1.9125	10.77576
1.913	10.57434
1.9135	11.07788
1.914	10.47363
1.9145	4.73328
1.915	4.63257
1.9155	8.15735
1.916	8.35876
1.9165	8.35876
1.917	9.86938
1.9175	9.46655
1.918	9.06372
1.9185	2.92053
1.919	4.93469
1.9195	5.94177
1.92	6.14319
1.9205	6.3446
1.921	7.15027
1.9215	2.01416
1.922	5.0354
1.9225	0.90637
1.923	-2.11487
1.9235	9.76868
1.924	3.7262
1.9245	2.11487
1.925	3.22266
1.9255	3.32336
1.926	-0.20142
1.9265	6.84814
1.927	9.76868
1.9275	5.43823
1.928	4.33044
1.9285	3.7262
1.929	9.46655
1.9295	10.77576
1.93	8.35876
1.9305	8.15735
1.931	7.25098
1.9315	13.29346
1.932	7.85522
1.9325	9.16443
1.933	1.81274
1.9335	-0.10071
1.934	2.71912
1.9345	6.14319
1.935	-2.41699
1.9355	5.94177
1.936	9.26514
1.9365	8.66089
1.937	2.41699
1.9375	1.91345
1.938	6.94885
1.9385	5.0354
1.939	6.2439
1.9395	5.84106
1.94	8.25806
1.9405	15.50903
1.941	4.83398
1.9415	5.84106
1.942	4.12903
1.9425	5.43823
1.943	6.94885
1.9435	6.84814
1.944	5.33752
1.9445	5.84106
1.945	4.22974
1.9455	1.71204
1.946	0
1.9465	4.93469
1.947	6.64673
1.9475	4.22974
1.948	6.14319
1.9485	12.89062
1.949	11.2793
1.9495	4.83398
1.95	8.05664
1.9505	8.35876
1.951	8.8623
1.9515	9.06372
1.952	11.98425
1.9525	6.3446
1.953	6.94885
1.9535	9.16443
1.954	6.14319
1.9545	5.43823
1.955	6.64673
1.9555	11.17859
1.956	5.94177
1.9565	4.93469
1.957	3.42407
1.9575	4.63257
1.958	8.56018
1.9585	8.96301
1.959	4.93469
1.9595	7.04956
1.96	3.8269
1.9605	3.8269
1.961	2.01416
1.9615	5.43823
1.962	8.7616
1.9625	9.56726
1.963	2.01416
1.9635	0.10071
1.964	4.83398
1.9645	8.96301
1.965	3.02124
1.9655	1.61133
1.966	5.43823
1.9665	4.53186
1.967	5.0354
1.9675	9.26514
1.968	9.66797
1.9685	10.87646
1.969	10.27222
1.9695	6.54602
1.97	6.64673
1.9705	5.74036
1.971	9.56726
1.9715	7.95593
1.972	7.35168
1.9725	8.45947
1.973	4.02832
1.9735	7.75452
1.974	2.41699
1.9745	7.04956
1.975	1.3092
1.9755	6.44531
1.976	5.63965
1.9765	13.797
1.977	6.2439
1.9775	5.74036
1.978	11.48071
1.9785	4.63257
1.979	6.64673
1.9795	5.94177
1.98	8.96301
1.9805	3.52478
1.981	0.60425
1.9815	1.00708
1.982	7.65381
1.9825	8.8623
1.983	4.02832
1.9835	0
1.984	1.91345
1.9845	-1.10779
1.985	3.32336
1.9855	5.43823
1.986	15.40833
1.9865	7.04956
1.987	5.63965
1.9875	6.44531
1.988	4.93469
1.9885	2.31628
1.989	7.45239
1.9895	4.53186
1.99	4.53186
1.9905	7.65381
1.991	6.3446
1.9915	6.3446
1.992	3.32336
1.9925	5.33752
1.993	10.0708
1.9935	8.05664
1.994	5.33752
1.9945	5.43823
1.995	8.96301
1.9955	2.31628
1.996	8.96301
1.9965	4.93469
1.997	7.15027
1.9975	5.74036
1.998	4.73328
1.9985	6.94885
1.999	13.59558
1.9995	6.64673
2	7.85522
2.0005	3.42407
2.001	4.12903
2.0015	9.06372
2.002	6.84814
2.0025	5.23682
2.003	4.93469
2.0035	6.3446
2.004	4.43115
2.0045	5.0354
2.005	5.74036
2.0055	4.63257
2.006	10.67505
2.0065	8.15735
2.007	12.99133
2.0075	8.45947
2.008	7.04956
2.0085	11.38
2.009	8.05664
2.0095	5.53894
2.01	8.35876
2.0105	2.21558
2.011	4.83398
2.0115	7.95593
2.012	1.91345
2.0125	8.25806
2.013	6.3446
2.0135	5.0354
2.014	8.66089
2.0145	6.3446
2.015	12.78992
2.0155	5.33752
2.016	7.25098
2.0165	5.74036
2.017	7.65381
2.0175	8.56018
2.018	7.85522
2.0185	11.38
2.019	7.25098
2.0195	9.66797
2.02	9.66797
2.0205	11.78284
2.021	5.13611
2.0215	10.97717
2.022	6.3446
2.0225	11.07788
2.023	3.12195
2.0235	4.12903
2.024	3.22266
2.0245	8.8623
2.025	7.65381
2.0255	3.7262
2.026	7.65381
2.0265	4.33044
2.027	10.0708
2.0275	8.15735
2.028	10.37292
2.0285	4.12903
2.029	3.62549
2.0295	10.17151
2.03	6.04248
2.0305	9.46655
2.031	5.84106
2.0315	9.66797
2.032	1.51062
2.0325	1.40991
2.033	9.06372
2.0335	7.25098
2.034	10.57434
2.0345	10.37292
2.035	6.14319
2.0355	8.7616
2.036	9.97009
2.0365	5.53894
2.037	7.45239
2.0375	13.39417
2.038	10.47363
2.0385	10.67505
2.039	6.14319
2.0395	10.27222
2.04	7.04956
2.0405	7.5531
2.041	1.61133
2.0415	0.50354
2.042	0.20142
2.0425	0.40283
2.043	3.32336
2.0435	1.91345
2.044	2.81982
2.0445	2.01416
2.045	4.83398
2.0455	3.22266
2.046	1.61133
2.0465	2.21558
2.047	-1.2085
2.0475	0.80566
2.048	4.33044
2.0485	3.12195
2.049	-1.00708
2.0495	0.30212
2.05	-2.31628
2.0505	2.21558
2.051	2.81982
2.0515	2.71912
2.052	2.41699
2.0525	3.92761
2.053	1.51062
2.0535	5.63965
2.054	4.73328
2.0545	2.5177
2.055	7.85522
2.0555	6.2439
2.056	8.25806
2.0565	3.52478
2.057	1.2085
2.0575	8.25806
2.058	5.0354
2.0585	5.94177
2.059	0.80566
2.0595	6.3446
2.06	8.56018
2.0605	10.57434
2.061	12.78992
2.0615	9.76868
2.062	7.85522
2.0625	4.93469
2.063	8.45947
2.0635	5.63965
2.064	10.27222
2.0645	10.0708
2.065	9.46655
2.0655	7.5531
2.066	5.94177
2.0665	1.51062
2.067	6.94885
2.0675	11.98425
2.068	5.63965
2.0685	9.86938
2.069	14.09912
2.0695	12.28638
2.07	11.48071
2.0705	7.5531
2.071	12.99133
2.0715	14.40125
2.072	15.00549
2.0725	8.35876
2.073	13.99841
2.0735	14.90479
2.074	11.98425
2.0745	8.56018
2.075	12.28638
2.0755	5.74036
2.076	8.66089
2.0765	12.89062
2.077	8.15735
2.0775	2.81982
2.078	8.56018
2.0785	6.84814
2.079	0.40283
2.0795	4.93469
2.08	8.45947
2.0805	4.43115
2.081	4.43115
2.0815	4.63257
2.082	6.94885
2.0825	9.56726
2.083	6.64673
2.0835	1.3092
2.084	6.2439
2.0845	2.5177
2.085	11.78284
2.0855	2.92053
2.086	5.33752
2.0865	5.13611
2.087	7.85522
2.0875	6.2439
2.088	3.12195
2.0885	1.91345
2.089	4.02832
2.0895	-1.2085
2.09	-1.61133
2.0905	6.64673
2.091	3.92761
2.0915	6.14319
2.092	2.41699
2.0925	0.30212
2.093	0.90637
2.0935	3.22266
2.094	1.00708
2.0945	-2.92053
2.095	-0.10071
2.0955	2.92053
2.096	-0.30212
2.0965	-1.71204
2.097	1.71204
2.0975	-0.40283
2.098	-0.90637
2.0985	1.00708
2.099	1.40991
2.0995	0.80566
2.1	0.70496
2.1005	3.12195
2.101	0.20142
2.1015	1.71204
2.102	1.71204
2.1025	3.22266
2.103	0.30212
2.1035	-0.20142
2.104	1.71204
2.1045	2.01416
2.105	3.12195
2.1055	-1.00708
2.106	5.53894
2.1065	6.14319
2.107	1.40991
2.1075	1.2085
2.108	3.92761
2.1085	6.74744
2.109	1.00708
2.1095	0
2.11	-0.50354
2.1105	5.0354
2.111	1.51062
2.1115	3.7262
2.112	5.74036
2.1125	2.92053
2.113	2.61841
2.1135	5.13611
2.114	1.10779
2.1145	1.3092
2.115	3.8269
2.1155	2.71912
2.116	3.62549
2.1165	1.3092
2.117	-1.2085
2.1175	1.51062
2.118	0
2.1185	2.5177
2.119	4.53186
2.1195	4.53186
2.12	3.52478
2.1205	1.00708
2.121	-2.11487
2.1215	12.99133
2.122	5.94177
2.1225	-0.40283
2.123	3.8269
2.1235	7.15027
2.124	8.8623
2.1245	1.40991
2.125	6.2439
2.1255	4.83398
2.126	8.15735
2.1265	7.15027
2.127	8.66089
2.1275	10.37292
2.128	2.61841
2.1285	4.43115
2.129	5.74036
2.1295	5.0354
2.13	4.43115
2.1305	9.26514
2.131	8.8623
2.1315	8.05664
2.132	3.7262
2.1325	8.35876
2.133	6.74744
2.1335	7.85522
2.134	5.53894
2.1345	7.75452
2.135	9.46655
2.1355	1.3092
2.136	10.0708
2.1365	3.92761
2.137	-0.10071
2.1375	3.8269
2.138	1.51062
2.1385	3.52478
2.139	2.92053
2.1395	8.35876
2.14	11.38
2.1405	13.29346
2.141	5.94177
2.1415	3.7262
2.142	3.8269
2.1425	5.53894
2.143	5.23682
2.1435	9.76868
2.144	6.2439
2.1445	8.56018
2.145	8.56018
2.1455	6.64673
2.146	6.04248
2.1465	5.53894
2.147	5.74036
2.1475	9.06372
2.148	5.94177
2.1485	2.81982
2.149	2.92053
2.1495	5.33752
2.15	5.23682
2.1505	8.45947
2.151	5.53894
2.1515	4.22974
2.152	3.8269
2.1525	5.23682
2.153	6.2439
2.1535	7.25098
2.154	4.63257
2.1545	1.10779
2.155	9.56726
2.1555	-1.3092
2.156	4.63257
2.1565	6.04248
2.157	5.63965
2.1575	6.2439
2.158	8.66089
2.1585	3.52478
2.159	5.94177
2.1595	7.15027
2.16	5.13611
2.1605	3.52478
2.161	5.13611
2.1615	4.12903
2.162	6.44531
2.1625	1.51062
2.163	4.63257
2.1635	7.65381
2.164	2.81982
2.1645	1.00708
2.165	3.52478
2.1655	3.8269
2.166	5.84106
2.1665	5.13611
2.167	-0.20142
2.1675	0.50354
2.168	0.90637
2.1685	4.33044
2.169	0.80566
2.1695	-0.60425
2.17	0.50354
2.1705	5.94177
2.171	7.5531
2.1715	3.02124
2.172	2.71912
2.1725	1.61133
2.173	1.2085
2.1735	5.53894
2.174	-0.30212
2.1745	3.7262
2.175	1.3092
2.1755	1.00708
2.176	2.21558
2.1765	3.12195
2.177	8.96301
2.1775	9.06372
2.178	8.15735
2.1785	0.30212
2.179	2.61841
2.1795	5.0354
2.18	8.8623
2.1805	4.12903
2.181	4.02832
2.1815	4.63257
2.182	4.63257
2.1825	2.41699
2.183	4.22974
2.1835	7.65381
2.184	4.22974
2.1845	5.23682
2.185	2.92053
2.1855	7.35168
2.186	8.35876
2.1865	6.04248
2.187	4.12903
2.1875	9.66797
2.188	5.74036
2.1885	7.5531
2.189	8.66089
2.1895	9.06372
2.19	7.5531
2.1905	2.81982
2.191	10.0708
2.1915	2.81982
2.192	4.73328
2.1925	8.05664
2.193	10.17151
2.1935	5.63965
2.194	4.73328
2.1945	0.70496
2.195	5.84106
2.1955	2.21558
2.196	7.25098
2.1965	-2.11487
2.197	4.22974
2.1975	9.66797
2.198	9.06372
2.1985	5.33752
2.199	3.02124
2.1995	5.53894
2.2	-0.30212
2.2005	3.12195
2.201	6.54602
2.2015	7.5531
2.202	1.3092
2.2025	-2.01416
2.203	2.41699
2.2035	1.61133
2.204	0.10071
2.2045	-5.23682
2.205	9.26514
2.2055	2.01416
2.206	2.81982
2.2065	6.14319
2.207	2.41699
2.2075	-0.10071
2.208	6.74744
2.2085	6.64673
2.209	10.57434
2.2095	3.42407
2.21	4.33044
2.2105	3.22266
2.211	8.7616
2.2115	6.2439
2.212	7.15027
2.2125	2.41699
2.213	4.73328
2.2135	8.05664
2.214	3.12195
2.2145	-2.41699
2.215	1.61133
2.2155	0.90637
2.216	-1.61133
2.2165	2.41699
2.217	1.51062
2.2175	8.56018
2.218	8.15735
2.2185	8.35876
2.219	9.26514
2.2195	6.54602
2.22	8.8623
2.2205	13.49487
2.221	13.49487
2.2215	10.17151
2.222	6.74744
2.2225	5.84106
2.223	6.04248
2.2235	7.35168
2.224	10.17151
2.2245	4.22974
2.225	7.04956
2.2255	7.65381
2.226	6.04248
2.2265	2.5177
2.227	5.74036
2.2275	7.35168
2.228	3.7262
2.2285	4.63257
2.229	0.20142
2.2295	5.94177
2.23	5.13611
2.2305	6.04248
2.231	8.66089
2.2315	6.04248
2.232	5.74036
2.2325	6.44531
2.233	8.15735
2.2335	7.95593
2.234	10.67505
2.2345	4.53186
2.235	11.48071
2.2355	7.85522
2.236	3.42407
2.2365	5.94177
2.237	6.2439
2.2375	3.7262
2.238	9.26514
2.2385	9.86938
2.239	6.84814
2.2395	8.25806
2.24	4.63257
2.2405	6.2439
2.241	4.73328
2.2415	4.43115
2.242	5.13611
2.2425	2.5177
2.243	2.71912
2.2435	6.74744
2.244	3.7262
2.2445	6.2439
2.245	7.04956
2.2455	5.0354
2.246	8.56018
2.2465	3.7262
2.247	2.31628
2.2475	10.47363
2.248	4.12903
2.2485	4.43115
2.249	6.14319
2.2495	-1.3092
2.25	3.52478
2.2505	-1.91345
2.251	1.81274
2.2515	6.14319
2.252	8.05664
2.2525	0.10071
2.253	6.64673
2.2535	4.02832
2.254	8.05664
2.2545	7.45239
2.255	7.04956
2.2555	8.45947
2.256	5.43823
2.2565	6.64673
2.257	6.84814
2.2575	7.95593
2.258	7.15027
2.2585	7.45239
2.259	5.0354
2.2595	7.25098
2.26	11.48071
2.2605	8.7616
2.261	8.25806
2.2615	1.2085
2.262	9.46655
2.2625	8.05664
2.263	9.86938
2.2635	2.71912
2.264	6.64673
2.2645	4.93469
2.265	8.15735
2.2655	5.23682
2.266	5.43823
2.2665	6.2439
2.267	2.81982
2.2675	6.94885
2.268	4.02832
2.2685	13.29346
2.269	7.15027
2.2695	9.56726
2.27	7.25098
2.2705	7.25098
2.271	10.47363
2.2715	7.75452
2.272	3.12195
2.2725	4.43115
2.273	4.02832
2.2735	5.33752
2.274	4.83398
2.2745	7.95593
2.275	4.53186
2.2755	8.25806
2.276	7.75452
2.2765	6.54602
2.277	2.31628
2.2775	0.30212
2.278	-0.70496
2.2785	8.96301
2.279	8.96301
2.2795	8.15735
2.28	5.74036
2.2805	2.61841
2.281	5.63965
2.2815	5.33752
2.282	3.8269
2.2825	5.94177
2.283	10.0708
2.2835	8.35876
2.284	7.45239
2.2845	6.44531
2.285	6.74744
2.2855	7.35168
2.286	1.00708
2.2865	8.66089
2.287	9.66797
2.2875	7.45239
2.288	2.61841
2.2885	8.8623
2.289	6.64673
2.2895	7.5531
2.29	12.38708
2.2905	7.15027
2.291	10.77576
2.2915	9.46655
2.292	3.8269
2.2925	4.93469
2.293	4.73328
2.2935	5.94177
2.294	1.3092
2.2945	5.0354
2.295	6.14319
2.2955	5.84106
2.296	2.11487
2.2965	4.33044
2.297	3.92761
2.2975	1.10779
2.298	5.94177
2.2985	0.20142
2.299	6.64673
2.2995	4.73328
2.3	9.26514
2.3005	7.65381
2.301	2.11487
2.3015	0.40283
2.302	1.40991
2.3025	3.22266
2.303	6.44531
2.3035	3.7262
2.304	5.0354
2.3045	7.65381
2.305	3.7262
2.3055	3.7262
2.306	8.45947
2.3065	6.54602
2.307	4.93469
2.3075	1.3092
2.308	4.12903
2.3085	-1.00708
2.309	2.92053
2.3095	8.45947
2.31	5.33752
2.3105	3.32336
2.311	0.80566
2.3115	0.70496
2.312	2.41699
2.3125	6.54602
2.313	8.05664
2.3135	6.2439
2.314	4.53186
2.3145	7.75452
2.315	4.63257
2.3155	4.02832
2.316	10.67505
2.3165	5.53894
2.317	13.09204
2.3175	6.3446
2.318	8.25806
2.3185	14.70337
2.319	7.95593
2.3195	6.54602
2.32	10.27222
2.3205	4.93469
2.321	5.94177
2.3215	10.47363
2.322	13.19275
2.3225	13.19275
2.323	10.67505
2.3235	14.09912
2.324	11.48071
2.3245	13.797
2.325	4.83398
2.3255	8.05664
2.326	7.25098
2.3265	9.66797
2.327	4.73328
2.3275	6.84814
2.328	6.3446
2.3285	7.15027
2.329	8.05664
2.3295	4.73328
2.33	7.25098
2.3305	8.45947
2.331	4.93469
2.3315	8.15735
2.332	4.02832
2.3325	7.85522
2.333	6.04248
2.3335	9.66797
2.334	3.02124
2.3345	2.01416
2.335	-5.63965
2.3355	5.33752
2.336	2.11487
2.3365	9.16443
2.337	8.96301
2.3375	7.95593
2.338	2.01416
2.3385	9.66797
2.339	7.85522
2.3395	8.96301
2.34	8.7616
2.3405	6.14319
2.341	10.47363
2.3415	7.65381
2.342	9.26514
2.3425	4.83398
2.343	8.56018
2.3435	7.15027
2.344	5.43823
2.3445	6.2439
2.345	6.84814
2.3455	5.53894
2.346	9.97009
2.3465	11.2793
2.347	11.38
2.3475	6.94885
2.348	4.02832
2.3485	8.66089
2.349	10.57434
2.3495	10.27222
2.35	9.76868
2.3505	9.06372
2.351	13.797
2.3515	9.56726
2.352	9.56726
2.3525	7.25098
2.353	7.25098
2.3535	13.59558
2.354	6.84814
2.3545	5.0354
2.355	6.74744
2.3555	10.67505
2.356	7.15027
2.3565	7.75452
2.357	15.81116
2.3575	4.12903
2.358	4.73328
2.3585	9.86938
2.359	12.18567
2.3595	9.16443
2.36	9.06372
2.3605	5.84106
2.361	5.84106
2.3615	7.25098
2.362	3.52478
2.3625	9.26514
2.363	4.73328
2.3635	12.18567
2.364	6.44531
2.3645	3.02124
2.365	7.45239
2.3655	4.22974
2.366	5.13611
2.3665	4.12903
2.367	6.64673
2.3675	1.91345
2.368	1.61133
2.3685	2.41699
2.369	5.0354
2.3695	6.74744
2.37	10.0708
2.3705	4.53186
2.371	9.06372
2.3715	9.16443
2.372	7.75452
2.3725	1.51062
2.373	8.66089
2.3735	1.00708
2.374	7.15027
2.3745	5.0354
2.375	-0.20142
2.3755	2.61841
2.376	3.32336
2.3765	-3.52478
2.377	1.71204
2.3775	3.8269
2.378	6.14319
2.3785	4.43115
2.379	2.61841
2.3795	8.15735
2.38	7.15027
2.3805	4.53186
2.381	4.63257
2.3815	1.91345
2.382	8.96301
2.3825	7.5531
2.383	4.83398
2.3835	-0.70496
2.384	2.5177
2.3845	5.74036
2.385	6.3446
2.3855	6.14319
2.386	0.60425
2.3865	2.41699
2.387	8.8623
2.3875	9.36584
2.388	5.63965
2.3885	7.65381
2.389	5.74036
2.3895	2.61841
2.39	0.90637
2.3905	4.12903
2.391	1.00708
2.3915	6.84814
2.392	4.12903
2.3925	5.33752
2.393	2.11487
2.3935	5.33752
2.394	4.33044
2.3945	8.56018
2.395	9.76868
2.3955	3.32336
2.396	5.74036
2.3965	2.01416
2.397	-1.40991
2.3975	1.2085
2.398	6.14319
2.3985	6.14319
2.399	2.11487
2.3995	3.42407
2.4	0.50354
2.4005	-4.73328
2.401	-0.90637
2.4015	3.92761
2.402	1.10779
2.4025	5.13611
2.403	2.21558
2.4035	3.42407
2.404	1.61133
2.4045	5.13611
2.405	3.02124
2.4055	-0.80566
2.406	1.00708
2.4065	4.53186
2.407	6.94885
2.4075	5.33752
2.408	5.63965
2.4085	6.74744
2.409	6.2439
2.4095	2.11487
2.41	10.17151
2.4105	10.57434
2.411	3.02124
2.4115	1.2085
2.412	3.22266
2.4125	7.35168
2.413	7.35168
2.4135	3.8269
2.414	5.23682
2.4145	0.30212
2.415	5.94177
2.4155	8.35876
2.416	-0.70496
2.4165	0.40283
2.417	-5.63965
2.4175	0.50354
2.418	3.12195
2.4185	10.17151
2.419	3.22266
2.4195	7.75452
2.42	11.78284
2.4205	10.57434
2.421	10.97717
2.4215	12.08496
2.422	10.77576
2.4225	12.68921
2.423	6.64673
2.4235	8.66089
2.424	5.84106
2.4245	4.43115
2.425	1.3092
2.4255	-0.20142
2.426	4.33044
2.4265	2.41699
2.427	5.33752
2.4275	1.10779
2.428	3.8269
2.4285	7.04956
2.429	5.53894
2.4295	11.58142
2.43	2.21558
2.4305	-11.2793
2.431	-17.22107
2.4315	-19.33594
2.432	-17.32178
2.4325	-15.50903
2.433	-14.40125
2.4335	-3.12195
2.434	2.31628
2.4345	18.22815
2.435	32.02515
2.4355	10.17151
2.436	-3.42407
2.4365	-8.8623
2.437	-7.15027
2.4375	1.3092
2.438	15.91187
2.4385	41.69312
2.439	66.26587
2.4395	67.17224
2.44	56.90002
2.4405	47.93701
2.441	47.7356
2.4415	47.8363
2.442	54.98657
2.4425	60.3241
2.443	53.17383
2.4435	53.57666
2.444	49.95117
2.4445	43.80798
2.445	37.66479
2.4455	24.47205
2.446	26.3855
2.4465	24.37134
2.447	13.69629
2.4475	9.76868
2.448	-12.38708
2.4485	-43.80798
2.449	-52.771
2.4495	-44.61365
2.45	-32.22656
2.4505	-51.15967
2.451	-77.44446
2.4515	-75.4303
2.452	-65.46021
2.4525	-52.06604
2.453	-30.31311
2.4535	-11.58142
2.454	0.10071
2.4545	13.49487
2.455	33.73718
2.4555	50.354
2.456	66.26587
2.4565	71.60339
2.457	73.91968
2.4575	60.92834
2.458	57.60498
2.4585	49.54834
2.459	23.66638
2.4595	-5.63965
2.46	-20.1416
2.4605	-19.03381
2.461	-23.76709
2.4615	-41.59241
2.462	-43.40515
2.4625	-45.11719
2.463	-62.74109
2.4635	-67.07153
2.464	-59.61914
2.4645	-45.01648
2.465	-26.68762
2.4655	-12.38708
2.466	-3.62549
2.4665	0
2.467	9.36584
2.4675	22.55859
2.468	24.06921
2.4685	15.40833
2.469	20.04089
2.4695	17.42249
2.47	18.63098
2.4705	27.09045
2.471	23.8678
2.4715	-34.24072
2.472	-119.94324
2.4725	-155.39246
2.473	-151.06201
2.4735	-141.29333
2.474	-123.36731
2.4745	-72.50977
2.475	-23.16284
2.4755	28.29895
2.476	84.09119
2.4765	107.25403
2.477	121.85669
2.4775	131.42395
2.478	137.26501
2.4785	148.24219
2.479	140.99121
2.4795	133.13599
2.48	121.25244
2.4805	103.32642
2.481	79.86145
2.4815	55.79224
2.482	50.75684
2.4825	42.19666
2.483	42.09595
2.4835	40.08179
2.484	34.54285
2.4845	15.1062
2.485	8.7616
2.4855	7.15027
2.486	2.81982
2.4865	-8.66089
2.487	-19.63806
2.4875	-27.19116
2.488	-24.37134
2.4885	-25.47913
2.489	-39.77966
2.4895	-52.97241
2.49	-59.1156
2.4905	-62.9425
2.491	-62.64038
2.4915	-66.46729
2.492	-60.3241
2.4925	-54.78516
2.493	-49.24622
2.4935	-36.75842
2.494	-29.50745
2.4945	-28.29895
2.495	-20.94727
2.4955	-22.96143
2.496	-24.57275
2.4965	-16.61682
2.497	-17.82532
2.4975	-17.32178
2.498	-12.78992
2.4985	-9.46655
2.499	-1.81274
2.4995	4.83398
2.5	11.38
2.5005	12.08496
2.501	21.55151
2.5015	15.81116
2.502	2.01416
2.5025	-15.91187
2.503	-28.9032
2.5035	-26.48621
2.504	-24.67346
2.5045	-23.36426
2.505	-11.58142
2.5055	-12.5885
2.506	-3.92761
2.5065	0.20142
2.507	3.52478
2.5075	11.38
2.508	16.41541
2.5085	16.11328
2.509	17.6239
2.5095	15.71045
2.51	14.19983
2.5105	13.09204
2.511	16.71753
2.5115	18.73169
2.512	9.66797
2.5125	9.46655
2.513	10.57434
2.5135	11.88354
2.514	12.99133
2.5145	14.90479
2.515	15.1062
2.5155	17.72461
2.516	16.61682
2.5165	19.13452
2.517	23.56567
2.5175	18.63098
2.518	19.13452
2.5185	20.34302
2.519	0.30212
2.5195	-18.22815
2.52	-28.29895
2.5205	-25.57983
2.521	-16.3147
2.5215	-5.23682
2.522	1.40991
2.5225	13.797
2.523	19.94019
2.5235	30.51453
2.524	36.25488
2.5245	40.2832
2.525	45.62073
2.5255	38.47046
2.526	-2.21558
2.5265	-26.3855
2.527	-39.67896
2.5275	-36.55701
2.528	-31.72302
2.5285	-23.36426
2.529	-2.31628
2.5295	12.5885
2.53	26.08337
2.5305	40.38391
2.531	48.74268
2.5315	62.64038
2.532	57.40356
2.5325	55.49011
2.533	51.86462
2.5335	45.11719
2.534	34.94568
2.5345	27.6947
2.535	23.46497
2.5355	15.81116
2.536	5.84106
2.5365	7.25098
2.537	9.06372
2.5375	8.56018
2.538	5.84106
2.5385	6.64673
2.539	9.76868
2.5395	11.68213
2.54	19.33594
2.5405	20.64514
2.541	18.53027
2.5415	16.51611
2.542	10.97717
2.5425	13.49487
2.543	12.99133
2.5435	13.69629
2.544	4.43115
2.5445	2.71912
2.545	9.26514
2.5455	4.33044
2.546	10.47363
2.5465	7.04956
2.547	4.83398
2.5475	-2.41699
2.548	-4.33044
2.5485	-5.33752
2.549	-2.11487
2.5495	-4.43115
2.55	-8.8623
2.5505	-6.74744
2.551	-6.14319
2.5515	0.70496
2.552	0.90637
2.5525	-1.91345
2.553	-1.2085
2.5535	0.70496
2.554	10.67505
2.5545	9.06372
2.555	15.50903
2.5555	17.22107
2.556	9.56726
2.5565	12.5885
2.557	17.72461
2.5575	16.21399
2.558	12.18567
2.5585	15.00549
2.559	17.12036
2.5595	14.30054
2.56	13.49487
2.5605	6.14319
2.561	4.63257
2.5615	4.02832
2.562	5.13611
2.5625	0.50354
2.563	-0.80566
2.5635	1.40991
2.564	-1.3092
2.5645	-2.31628
2.565	-3.52478
2.5655	2.01416
2.566	4.33044
2.5665	6.2439
2.567	9.56726
2.5675	11.78284
2.568	11.68213
2.5685	7.45239
2.569	-0.90637
2.5695	0.70496
2.57	-3.8269
2.5705	-4.63257
2.571	-5.13611
2.5715	-1.81274
2.572	-1.71204
2.5725	2.01416
2.573	-2.31628
2.5735	1.81274
2.574	10.57434
2.5745	5.43823
2.575	8.35876
2.5755	7.35168
2.576	2.92053
2.5765	5.63965
2.577	3.32336
2.5775	6.64673
2.578	7.15027
2.5785	9.16443
2.579	4.12903
2.5795	2.5177
2.58	-0.60425
2.5805	2.31628
2.581	1.91345
2.5815	0.40283
2.582	5.84106
2.5825	7.75452
2.583	10.57434
2.5835	13.09204
2.584	14.80408
2.5845	9.06372
2.585	9.36584
2.5855	8.56018
2.586	13.69629
2.5865	19.73877
2.587	12.78992
2.5875	13.69629
2.588	12.89062
2.5885	19.94019
2.589	10.67505
2.5895	18.32886
2.59	16.81824
2.5905	14.90479
2.591	14.80408
2.5915	12.78992
2.592	14.70337
2.5925	11.17859
2.593	2.81982
2.5935	1.91345
2.594	7.95593
2.5945	3.32336
2.595	5.94177
2.5955	6.04248
2.596	6.04248
2.5965	3.22266
2.597	4.93469
2.5975	11.58142
2.598	17.52319
2.5985	16.01257
2.599	13.797
2.5995	13.49487
2.6	18.8324
2.6005	22.6593
2.601	21.45081
2.6015	22.6593
2.602	17.12036
2.6025	15.1062
2.603	17.22107
2.6035	19.13452
2.604	23.56567
2.6045	26.68762
2.605	21.65222
2.6055	9.86938
2.606	-0.20142
2.6065	-2.31628
2.607	0.30212
2.6075	-6.44531
2.608	-19.63806
2.6085	-15.40833
2.609	-12.38708
2.6095	-0.40283
2.61	-16.3147
2.6105	-29.10461
2.611	-28.9032
2.6115	-24.16992
2.612	-15.50903
2.6125	-17.12036
2.613	-2.41699
2.6135	11.2793
2.614	16.51611
2.6145	25.98267
2.615	20.1416
2.6155	27.49329
2.616	38.57117
2.6165	37.96692
2.617	32.22656
2.6175	30.31311
2.618	30.81665
2.6185	35.65063
2.619	37.16125
2.6195	35.54993
2.62	29.30603
2.6205	29.10461
2.621	31.52161
2.6215	35.54993
2.622	32.22656
2.6225	27.19116
2.623	20.64514
2.6235	14.40125
2.624	13.29346
2.6245	13.29346
2.625	10.57434
2.6255	13.29346
2.626	7.95593
2.6265	10.0708
2.627	3.02124
2.6275	-1.81274
2.628	-3.12195
2.6285	-12.78992
2.629	-9.86938
2.6295	-22.45789
2.63	-22.96143
2.6305	-21.45081
2.631	-19.63806
2.6315	-18.93311
2.632	-24.16992
2.6325	-26.58691
2.633	-28.19824
2.6335	-33.73718
2.634	-29.91028
2.6345	-33.23364
2.635	-29.20532
2.6355	-20.04089
2.636	-20.84656
2.6365	-18.93311
2.637	-14.70337
2.6375	-11.2793
2.638	-7.25098
2.6385	-1.10779
2.639	5.84106
2.6395	8.66089
2.64	7.04956
2.6405	5.53894
2.641	5.63965
2.6415	7.15027
2.642	3.8269
2.6425	2.41699
2.643	1.00708
2.6435	0.90637
2.644	4.53186
2.6445	2.92053
2.645	4.53186
2.6455	3.02124
2.646	5.0354
2.6465	7.04956
2.647	1.71204
2.6475	-10.67505
2.648	-22.76001
2.6485	-25.37842
2.649	-28.09753
2.6495	-24.16992
2.65	-16.21399
2.6505	-8.35876
2.651	8.8623
2.6515	15.1062
2.652	6.3446
2.6525	-14.19983
2.653	-27.6947
2.6535	-25.57983
2.654	-16.11328
2.6545	-12.89062
2.655	-3.52478
2.6555	7.04956
2.656	23.76709
2.6565	27.19116
2.657	38.16833
2.6575	39.37683
2.658	51.86462
2.6585	53.27454
2.659	49.44763
2.6595	38.974
2.66	35.65063
2.6605	24.37134
2.661	20.24231
2.6615	8.35876
2.662	11.48071
2.6625	9.16443
2.663	6.74744
2.6635	5.74036
2.664	6.2439
2.6645	0.20142
2.665	-0.80566
2.6655	-7.45239
2.666	-11.38
2.6665	-8.45947
2.667	4.43115
2.6675	9.46655
2.668	9.56726
2.6685	8.66089
2.669	6.64673
2.6695	8.45947
2.67	3.22266
2.6705	-1.81274
2.671	1.2085
2.6715	-0.20142
2.672	0.60425
2.6725	0.90637
2.673	2.21558
2.6735	0.20142
2.674	0.10071
2.6745	-2.41699
2.675	-4.12903
2.6755	4.73328
2.676	-1.10779
2.6765	-3.7262
2.677	-3.02124
2.6775	0.10071
2.678	-4.43115
2.6785	-1.91345
2.679	4.02832
2.6795	-3.7262
2.68	3.7262
2.6805	3.12195
2.681	1.61133
2.6815	-0.80566
2.682	5.53894
2.6825	13.69629
2.683	14.09912
2.6835	9.86938
2.684	9.56726
2.6845	9.56726
2.685	6.14319
2.6855	10.37292
2.686	13.49487
2.6865	20.24231
2.687	11.2793
2.6875	16.41541
2.688	15.20691
2.6885	15.1062
2.689	14.70337
2.6895	13.19275
2.69	8.15735
2.6905	8.45947
2.691	9.16443
2.6915	13.49487
2.692	13.39417
2.6925	13.29346
2.693	17.32178
2.6935	16.11328
2.694	16.11328
2.6945	16.21399
2.695	16.81824
2.6955	10.77576
2.696	14.40125
2.6965	17.42249
2.697	11.07788
2.6975	10.67505
2.698	7.95593
2.6985	4.12903
2.699	11.58142
2.6995	15.91187
2.7	16.51611
2.7005	13.59558
2.701	-6.64673
2.7015	-23.56567
2.702	-21.95435
2.7025	-14.90479
2.703	-8.05664
2.7035	-15.20691
2.704	-6.2439
2.7045	4.53186
2.705	15.71045
2.7055	24.37134
2.706	33.33435
2.7065	42.7002
2.707	40.68604
2.7075	45.62073
2.708	44.31152
2.7085	51.86462
2.709	53.37524
2.7095	44.41223
2.71	41.29028
2.7105	31.92444
2.711	15.81116
2.7115	18.93311
2.712	13.69629
2.7125	11.78284
2.713	7.85522
2.7135	7.65381
2.714	7.75452
2.7145	6.64673
2.715	13.09204
2.7155	13.39417
2.716	10.77576
2.7165	8.35876
2.717	1.51062
2.7175	-0.40283
2.718	-0.70496
2.7185	-9.86938
2.719	-12.38708
2.7195	-22.15576
2.72	-41.59241
2.7205	-50.55542
2.721	-53.27454
2.7215	-40.48462
2.722	-35.95276
2.7225	-28.80249
2.723	-16.11328
2.7235	-5.33752
2.724	9.06372
2.7245	13.39417
2.725	21.3501
2.7255	26.88904
2.726	35.95276
2.7265	36.4563
2.727	43.50586
2.7275	43.10303
2.728	42.19666
2.7285	40.48462
2.729	39.57825
2.7295	31.32019
2.73	22.35718
2.7305	20.04089
2.731	18.73169
2.7315	18.22815
2.732	10.97717
2.7325	9.46655
2.733	5.43823
2.7335	7.85522
2.734	-3.32336
2.7345	-7.65381
2.735	-6.3446
2.7355	-6.94885
2.736	-8.25806
2.7365	-2.31628
2.737	-8.35876
2.7375	-9.16443
2.738	-5.84106
2.7385	-9.46655
2.739	-5.94177
2.7395	-5.74036
2.74	-2.81982
2.7405	-0.70496
2.741	-1.00708
2.7415	-1.00708
2.742	-5.74036
2.7425	-2.61841
2.743	-0.40283
2.7435	-0.40283
2.744	1.3092
2.7445	1.10779
2.745	6.84814
2.7455	8.66089
2.746	9.66797
2.7465	9.46655
2.747	2.5177
2.7475	3.02124
2.748	8.15735
2.7485	6.44531
2.749	6.84814
2.7495	3.22266
2.75	6.3446
2.7505	7.35168
2.751	10.77576
2.7515	5.33752
2.752	6.74744
2.7525	5.13611
2.753	4.53186
2.7535	11.2793
2.754	11.2793
2.7545	14.50195
2.755	12.08496
2.7555	17.72461
2.756	18.42957
2.7565	17.92603
2.757	15.71045
2.7575	13.49487
2.758	6.74744
2.7585	8.66089
2.759	5.74036
2.7595	5.84106
2.76	0.30212
2.7605	8.8623
2.761	7.35168
2.7615	15.40833
2.762	14.19983
2.7625	19.83948
2.763	12.08496
2.7635	2.01416
2.764	-0.70496
2.7645	-3.7262
2.765	0.60425
2.7655	2.71912
2.766	2.71912
2.7665	10.17151
2.767	7.35168
2.7675	11.07788
2.768	1.00708
2.7685	-2.11487
2.769	0.10071
2.7695	4.93469
2.77	11.58142
2.7705	11.07788
2.771	10.77576
2.7715	16.51611
2.772	17.22107
2.7725	16.51611
2.773	17.92603
2.7735	9.97009
2.774	2.21558
2.7745	5.23682
2.775	1.61133
2.7755	-1.00708
2.776	-4.02832
2.7765	-10.67505
2.777	-7.25098
2.7775	-7.35168
2.778	-11.68213
2.7785	-3.7262
2.779	-16.91895
2.7795	-43.30444
2.78	-46.5271
2.7805	-56.79932
2.781	-58.81348
2.7815	-76.43738
2.782	-94.3634
2.7825	-101.21155
2.783	-88.82446
2.7835	-68.48145
2.784	-37.66479
2.7845	-1.10779
2.785	29.60815
2.7855	62.03613
2.786	82.07703
2.7865	106.64978
2.787	118.63403
2.7875	129.81262
2.788	126.08643
2.7885	125.68359
2.789	105.13916
2.7895	95.37048
2.79	84.79614
2.7905	62.8418
2.791	47.7356
2.7915	36.25488
2.792	24.47205
2.7925	7.15027
2.793	12.38708
2.7935	2.81982
2.794	-5.23682
2.7945	-4.53186
2.795	-13.99841
2.7955	-20.74585
2.796	-22.76001
2.7965	-30.91736
2.797	-30.11169
2.7975	-28.19824
2.798	-28.09753
2.7985	-22.86072
2.799	-23.36426
2.7995	-20.84656
2.8	-12.5885
2.8005	-13.19275
2.801	-16.91895
2.8015	-12.28638
2.802	-9.66797
2.8025	-7.95593
2.803	-9.56726
2.8035	-6.94885
2.804	-1.00708
2.8045	-4.33044
2.805	0.10071
2.8055	-2.11487
2.806	1.00708
2.8065	4.53186
2.807	-1.81274
2.8075	8.56018
2.808	8.25806
2.8085	10.47363
2.809	4.73328
2.8095	2.71912
2.81	-6.64673
2.8105	-6.94885
2.811	-1.91345
2.8115	1.61133
2.812	2.21558
2.8125	-1.61133
2.813	-0.30212
2.8135	-2.11487
2.814	-0.90637
2.8145	3.8269
2.815	2.31628
2.8155	6.54602
2.816	2.61841
2.8165	7.04956
2.817	3.42407
2.8175	4.12903
2.818	10.27222
2.8185	1.2085
2.819	5.74036
2.8195	5.74036
2.82	8.7616
2.8205	10.97717
2.821	11.17859
2.8215	10.77576
2.822	7.65381
2.8225	9.56726
2.823	10.77576
2.8235	9.66797
2.824	6.64673
2.8245	4.83398
2.825	8.05664
2.8255	13.69629
2.826	16.81824
2.8265	15.40833
2.827	7.25098
2.8275	14.90479
2.828	11.48071
2.8285	11.17859
2.829	12.68921
2.8295	15.00549
2.83	10.37292
2.8305	15.81116
2.831	12.99133
2.8315	13.89771
2.832	12.89062
2.8325	7.95593
2.833	-1.40991
2.8335	-8.05664
2.834	-12.68921
2.8345	-10.97717
2.835	-10.17151
2.8355	-10.17151
2.836	-6.2439
2.8365	-1.81274
2.837	6.04248
2.8375	6.84814
2.838	8.66089
2.8385	12.18567
2.839	17.72461
2.8395	19.83948
2.84	26.78833
2.8405	24.97559
2.841	23.16284
2.8415	21.3501
2.842	21.85364
2.8425	17.52319
2.843	14.70337
2.8435	14.40125
2.844	14.50195
2.8445	15.60974
2.845	18.32886
2.8455	12.18567
2.846	7.04956
2.8465	0.70496
2.847	-1.51062
2.8475	1.3092
2.848	-3.42407
2.8485	-1.00708
2.849	5.53894
2.8495	9.46655
2.85	6.64673
2.8505	6.04248
2.851	6.04248
2.8515	-1.2085
2.852	2.5177
2.8525	4.12903
2.853	4.33044
2.8535	13.19275
2.854	4.63257
2.8545	6.44531
2.855	9.56726
2.8555	8.8623
2.856	6.44531
2.8565	6.44531
2.857	3.62549
2.8575	3.02124
2.858	3.7262
2.8585	-0.50354
2.859	-3.92761
2.8595	-7.25098
2.86	-5.23682
2.8605	-4.93469
2.861	-2.31628
2.8615	4.63257
2.862	7.25098
2.8625	8.96301
2.863	11.68213
2.8635	13.39417
2.864	10.77576
2.8645	-0.40283
2.865	6.14319
2.8655	-1.71204
2.866	1.71204
2.8665	-2.11487
2.867	-2.11487
2.8675	-1.10779
2.868	6.2439
2.8685	5.94177
2.869	5.94177
2.8695	4.63257
2.87	6.04248
2.8705	9.36584
2.871	6.94885
2.8715	9.36584
2.872	9.26514
2.8725	9.56726
2.873	8.56018
2.8735	9.97009
2.874	6.14319
2.8745	6.74744
2.875	12.5885
2.8755	2.5177
2.876	1.3092
2.8765	7.25098
2.877	12.48779
2.8775	8.66089
2.878	9.76868
2.8785	1.81274
2.879	4.83398
2.8795	7.95593
2.88	4.33044
2.8805	2.21558
2.881	9.56726
2.8815	9.46655
2.882	5.94177
2.8825	8.35876
2.883	9.06372
2.8835	7.45239
2.884	9.26514
2.8845	3.62549
2.885	4.02832
2.8855	0.50354
2.886	6.74744
2.8865	-2.61841
2.887	-2.81982
2.8875	4.83398
2.888	8.66089
2.8885	10.27222
2.889	0.80566
2.8895	2.11487
2.89	6.14319
2.8905	5.84106
2.891	5.74036
2.8915	8.35876
2.892	7.95593
2.8925	2.61841
2.893	4.83398
2.8935	7.15027
2.894	4.93469
2.8945	3.92761
2.895	0.10071
2.8955	1.61133
2.896	0.40283
2.8965	1.91345
2.897	4.43115
2.8975	8.45947
2.898	8.45947
2.8985	5.23682
2.899	11.07788
2.8995	11.68213
2.9	17.42249
2.9005	19.83948
2.901	18.12744
2.9015	17.42249
2.902	13.39417
2.9025	8.25806
2.903	5.33752
2.9035	6.54602
2.904	2.71912
2.9045	0.80566
2.905	-0.90637
2.9055	-6.04248
2.906	-14.80408
2.9065	-41.59241
2.907	-56.79932
2.9075	-60.3241
2.908	-60.72693
2.9085	-46.5271
2.909	-30.2124
2.9095	-13.89771
2.91	3.02124
2.9105	27.29187
2.911	42.09595
2.9115	56.5979
2.912	78.55225
2.9125	79.35791
2.913	81.17065
2.9135	73.91968
2.914	74.42322
2.9145	68.58215
2.915	55.79224
2.9155	49.44763
2.916	42.09595
2.9165	35.75134
2.917	20.04089
2.9175	19.13452
2.918	7.95593
2.9185	6.74744
2.919	-0.30212
2.9195	-4.53186
2.92	-9.16443
2.9205	-15.91187
2.921	-24.27063
2.9215	-26.08337
2.922	-23.06213
2.9225	-28.29895
2.923	-28.50037
2.9235	-19.03381
2.924	-16.51611
2.9245	-7.85522
2.925	-7.15027
2.9255	0
2.926	1.40991
2.9265	-2.5177
2.927	-6.74744
2.9275	-8.45947
2.928	-11.68213
2.9285	-14.50195
2.929	-14.90479
2.9295	-18.02673
2.93	-20.94727
2.9305	-20.24231
2.931	-20.74585
2.9315	-12.38708
2.932	-11.88354
2.9325	-12.38708
2.933	-14.60266
2.9335	-10.47363
2.934	-5.43823
2.9345	-7.5531
2.935	-0.50354
2.9355	-0.70496
2.936	2.92053
2.9365	7.25098
2.937	9.06372
2.9375	3.02124
2.938	0.60425
2.9385	-0.20142
2.939	-6.3446
2.9395	-2.71912
2.94	3.62549
2.9405	7.25098
2.941	10.67505
2.9415	24.47205
2.942	23.96851
2.9425	27.99683
2.943	32.62939
2.9435	37.26196
2.944	38.974
2.9445	38.16833
2.945	36.55701
2.9455	31.52161
2.946	29.60815
2.9465	28.60107
2.947	19.03381
2.9475	13.09204
2.948	8.45947
2.9485	4.12903
2.949	3.22266
2.9495	3.62549
2.95	5.13611
2.9505	6.3446
2.951	-0.40283
2.9515	0.90637
2.952	3.52478
2.9525	2.11487
2.953	1.2085
2.9535	-1.61133
2.954	5.53894
2.9545	2.11487
2.955	-1.61133
2.9555	7.85522
2.956	8.15735
2.9565	-9.06372
2.957	-38.67188
2.9575	-71.90552
2.958	-85.60181
2.9585	-72.71118
2.959	-65.86304
2.9595	-51.26038
2.96	-31.62231
2.9605	-12.38708
2.961	5.43823
2.9615	23.76709
2.962	43.30444
2.9625	57.10144
2.963	65.96375
2.9635	75.93384
2.964	81.37207
2.9645	80.96924
2.965	79.96216
2.9655	78.45154
2.966	62.43896
2.9665	47.63489
2.967	41.39099
2.9675	36.15417
2.968	34.44214
2.9685	12.78992
2.969	-29.00391
2.9695	-51.96533
2.97	-59.82056
2.9705	-56.5979
2.971	-57.70569
2.9715	-45.01648
2.972	-49.14551
2.9725	-39.37683
2.973	-30.81665
2.9735	-13.09204
2.974	-5.84106
2.9745	7.35168
2.975	17.72461
2.9755	31.72302
2.976	43.00232
2.9765	50.95825
2.977	61.6333
2.9775	58.91418
2.978	59.01489
2.9785	50.65613
2.979	42.90161
2.9795	38.47046
2.98	29.10461
2.9805	26.78833
2.981	25.27771
2.9815	14.40125
2.982	12.5885
2.9825	11.48071
2.983	12.28638
2.9835	14.50195
2.984	18.12744
2.9845	13.99841
2.985	10.87646
2.9855	6.04248
2.986	5.74036
2.9865	3.42407
2.987	1.91345
2.9875	-3.92761
2.988	-7.25098
2.9885	-2.41699
2.989	-1.2085
2.9895	-2.41699
2.99	6.64673
2.9905	3.52478
2.991	0.70496
2.9915	5.43823
2.992	-1.10779
2.9925	1.3092
2.993	-1.10779
2.9935	8.25806
2.994	2.92053
2.9945	9.66797
2.995	9.66797
2.9955	-1.00708
2.996	0.70496
2.9965	5.0354
2.997	6.84814
2.9975	-0.60425
2.998	6.44531
2.9985	5.23682
2.999	5.63965
2.9995	-2.21558
3	-5.43823
3.0005	-6.14319
3.001	-7.35168
3.0015	-5.23682
3.002	-4.33044
3.0025	1.71204
3.003	8.35876
3.0035	13.69629
3.004	13.29346
3.0045	19.63806
3.005	13.09204
3.0055	8.96301
3.006	15.81116
3.0065	17.92603
3.007	15.60974
3.0075	14.40125
3.008	13.29346
3.0085	11.2793
3.009	9.56726
3.0095	14.09912
3.01	9.66797
3.0105	2.31628
3.011	5.63965
3.0115	10.77576
3.012	6.44531
3.0125	-0.40283
3.013	-10.37292
3.0135	-9.46655
3.014	-7.45239
3.0145	-1.00708
3.015	-1.71204
3.0155	-0.60425
3.016	-6.94885
3.0165	-3.7262
3.017	0.70496
3.0175	4.93469
3.018	1.40991
3.0185	-12.08496
3.019	-31.72302
3.0195	-29.80957
3.02	-26.28479
3.0205	-21.75293
3.021	-13.89771
3.0215	-5.84106
3.022	5.23682
3.0225	14.50195
3.023	22.86072
3.0235	35.54993
3.024	41.79382
3.0245	50.45471
3.025	57.20215
3.0255	65.66162
3.026	68.78357
3.0265	67.47437
3.027	60.92834
3.0275	47.23206
3.028	26.08337
3.0285	18.42957
3.029	7.95593
3.0295	-0.10071
3.03	-8.15735
3.0305	-5.0354
3.031	-17.01965
3.0315	-23.96851
3.032	-29.50745
3.0325	-26.18408
3.033	-17.22107
3.0335	-9.86938
3.034	-6.94885
3.0345	-13.09204
3.035	-7.65381
3.0355	-13.19275
3.036	-20.94727
3.0365	-16.61682
3.037	-16.51611
3.0375	-19.94019
3.038	-9.26514
3.0385	-8.8623
3.039	-5.13611
3.0395	-6.84814
3.04	-7.45239
3.0405	0.40283
3.041	3.52478
3.0415	3.32336
3.042	-1.51062
3.0425	0.10071
3.043	2.31628
3.0435	-2.71912
3.044	-2.21558
3.0445	-1.40991
3.045	-1.71204
3.0455	1.40991
3.046	1.2085
3.0465	-3.42407
3.047	3.22266
3.0475	3.42407
3.048	-1.10779
3.0485	2.41699
3.049	6.64673
3.0495	6.84814
3.05	-0.20142
3.0505	2.21558
3.051	0.40283
3.0515	4.33044
3.052	5.0354
3.0525	8.25806
3.053	4.83398
3.0535	3.7262
3.054	4.53186
3.0545	5.33752
3.055	4.02832
3.0555	6.84814
3.056	5.0354
3.0565	4.22974
3.057	7.65381
3.0575	5.53894
3.058	4.63257
3.0585	1.40991
3.059	-2.61841
3.0595	-1.40991
3.06	-5.43823
3.0605	0.90637
3.061	6.74744
3.0615	2.92053
3.062	6.04248
3.0625	11.78284
3.063	10.0708
3.0635	15.1062
3.064	21.45081
3.0645	25.47913
3.065	15.91187
3.0655	10.47363
3.066	11.38
3.0665	8.96301
3.067	5.13611
3.0675	5.84106
3.068	-1.71204
3.0685	-5.43823
3.069	-4.33044
3.0695	-2.31628
3.07	4.02832
3.0705	11.38
3.071	18.12744
3.0715	12.89062
3.072	17.72461
3.0725	20.44373
3.073	17.82532
3.0735	26.98975
3.074	26.68762
3.0745	20.24231
3.075	14.80408
3.0755	-1.71204
3.076	-16.11328
3.0765	-20.94727
3.077	-20.64514
3.0775	-17.6239
3.078	-15.1062
3.0785	-8.15735
3.079	-5.33752
3.0795	0.80566
3.08	3.92761
3.0805	8.05664
3.081	12.08496
3.0815	15.30762
3.082	17.82532
3.0825	22.35718
3.083	28.39966
3.0835	19.23523
3.084	20.44373
3.0845	21.14868
3.085	12.99133
3.0855	8.35876
3.086	14.90479
3.0865	15.71045
3.087	17.52319
3.0875	10.67505
3.088	8.35876
3.0885	8.66089
3.089	9.36584
3.0895	5.13611
3.09	-5.23682
3.0905	-8.66089
3.091	-15.20691
3.0915	-15.1062
3.092	-16.41541
3.0925	-10.37292
3.093	-5.84106
3.0935	1.51062
3.094	10.57434
3.0945	15.1062
3.095	15.50903
3.0955	18.32886
3.096	20.34302
3.0965	18.22815
3.097	17.22107
3.0975	15.00549
3.098	13.09204
3.0985	5.33752
3.099	7.04956
3.0995	8.56018
3.1	6.44531
3.1005	7.75452
3.101	8.25806
3.1015	9.66797
3.102	8.05664
3.1025	9.56726
3.103	8.96301
3.1035	8.8623
3.104	3.7262
3.1045	0.50354
3.105	2.21558
3.1055	3.42407
3.106	1.91345
3.1065	3.22266
3.107	4.43115
3.1075	11.38
3.108	8.66089
3.1085	7.95593
3.109	-3.7262
3.1095	-3.02124
3.11	-9.16443
3.1105	-1.61133
3.111	3.22266
3.1115	13.49487
3.112	14.70337
3.1125	7.35168
3.113	7.04956
3.1135	10.57434
3.114	11.78284
3.1145	8.45947
3.115	11.58142
3.1155	11.07788
3.116	10.0708
3.1165	9.36584
3.117	9.97009
3.1175	7.35168
3.118	9.46655
3.1185	10.17151
3.119	9.46655
3.1195	5.0354
3.12	7.5531
3.1205	8.25806
3.121	4.12903
3.1215	3.52478
3.122	1.71204
3.1225	4.33044
3.123	6.64673
3.1235	2.21558
3.124	6.2439
3.1245	6.2439
3.125	8.96301
3.1255	12.08496
3.126	11.38
3.1265	8.45947
3.127	10.97717
3.1275	16.11328
3.128	13.99841
3.1285	9.36584
3.129	10.0708
3.1295	3.8269
3.13	6.04248
3.1305	8.25806
3.131	5.33752
3.1315	8.05664
3.132	6.2439
3.1325	10.17151
3.133	5.53894
3.1335	10.47363
3.134	10.67505
3.1345	5.74036
3.135	10.37292
3.1355	13.29346
3.136	13.39417
3.1365	13.59558
3.137	18.53027
3.1375	17.12036
3.138	13.39417
3.1385	18.63098
3.139	21.24939
3.1395	16.3147
3.14	18.32886
3.1405	12.48779
3.141	4.33044
3.1415	7.04956
3.142	8.05664
3.1425	3.52478
3.143	-4.83398
3.1435	-4.93469
3.144	-4.22974
3.1445	-0.50354
3.145	4.43115
3.1455	1.91345
3.146	5.63965
3.1465	7.04956
3.147	11.98425
3.1475	16.41541
3.148	12.68921
3.1485	11.98425
3.149	7.15027
3.1495	0.50354
3.15	-1.00708
3.1505	-1.3092
3.151	-7.35168
3.1515	-4.02832
3.152	-13.09204
3.1525	-3.22266
3.153	-2.01416
3.1535	0
3.154	-3.52478
3.1545	-1.00708
3.155	-1.40991
3.1555	-5.53894
3.156	4.22974
3.1565	2.5177
3.157	11.48071
3.1575	13.59558
3.158	14.90479
3.1585	18.93311
3.159	19.94019
3.1595	22.76001
3.16	19.13452
3.1605	17.52319
3.161	24.16992
3.1615	21.14868
3.162	16.11328
3.1625	23.96851
3.163	20.54443
3.1635	8.8623
3.164	7.25098
3.1645	7.65381
3.165	-0.30212
3.1655	0.30212
3.166	-1.71204
3.1665	7.15027
3.167	7.04956
3.1675	5.63965
3.168	3.92761
3.1685	4.83398
3.169	1.10779
3.1695	-3.22266
3.17	-7.35168
3.1705	-13.09204
3.171	-9.46655
3.1715	-0.60425
3.172	0.60425
3.1725	-4.02832
3.173	-0.30212
3.1735	-0.80566
3.174	0.50354
3.1745	4.53186
3.175	2.5177
3.1755	-0.10071
3.176	-4.83398
3.1765	0.90637
3.177	-2.5177
3.1775	-3.42407
3.178	-5.74036
3.1785	2.81982
3.179	0.20142
3.1795	-5.0354
3.18	-4.63257
3.1805	1.3092
3.181	2.81982
3.1815	-2.81982
3.182	3.22266
3.1825	1.81274
3.183	1.00708
3.1835	5.94177
3.184	9.56726
3.1845	12.48779
3.185	12.78992
3.1855	13.49487
3.186	13.19275
3.1865	8.25806
3.187	3.42407
3.1875	-1.81274
3.188	-7.65381
3.1885	-7.35168
3.189	-13.29346
3.1895	-11.98425
3.19	-6.54602
3.1905	-10.0708
3.191	-8.8623
3.1915	-9.06372
3.192	-3.22266
3.1925	-11.88354
3.193	-3.32336
3.1935	-3.22266
3.194	-6.64673
3.1945	-6.54602
3.195	-4.43115
3.1955	-6.54602
3.196	-4.83398
3.1965	-1.81274
3.197	-1.81274
3.1975	-5.33752
3.198	-1.2085
3.1985	5.23682
3.199	0.20142
3.1995	6.84814
3.2	3.02124
3.2005	3.02124
3.201	-5.63965
3.2015	1.51062
3.202	0
3.2025	-6.44531
3.203	-2.92053
3.2035	-2.61841
3.204	-0.50354
3.2045	6.54602
3.205	2.21558
3.2055	1.71204
3.206	-1.2085
3.2065	-2.31628
3.207	2.92053
3.2075	0
3.208	-4.63257
3.2085	2.11487
3.209	-1.2085
3.2095	0.90637
3.21	-4.63257
3.2105	-7.04956
3.211	-4.22974
3.2115	-0.40283
3.212	-0.60425
3.2125	2.21558
3.213	1.51062
3.2135	7.35168
3.214	9.26514
3.2145	6.54602
3.215	8.96301
3.2155	9.86938
3.216	4.12903
3.2165	1.00708
3.217	3.32336
3.2175	4.73328
3.218	1.61133
3.2185	3.42407
3.219	2.5177
3.2195	2.31628
3.22	2.61841
3.2205	-0.20142
3.221	0.20142
3.2215	-2.11487
3.222	-1.2085
3.2225	5.43823
3.223	9.16443
3.2235	7.85522
3.224	10.77576
3.2245	8.66089
3.225	8.45947
3.2255	11.48071
3.226	8.7616
3.2265	12.38708
3.227	8.96301
3.2275	7.65381
3.228	6.44531
3.2285	10.27222
3.229	0.80566
3.2295	-6.54602
3.23	-6.74744
3.2305	-5.0354
3.231	1.91345
3.2315	5.84106
3.232	2.61841
3.2325	5.53894
3.233	11.68213
3.2335	10.47363
3.234	11.78284
3.2345	18.63098
3.235	19.13452
3.2355	22.76001
3.236	26.68762
3.2365	22.55859
3.237	16.01257
3.2375	6.04248
3.238	2.11487
3.2385	1.10779
3.239	-5.84106
3.2395	-8.35876
3.24	-12.68921
3.2405	-12.08496
3.241	-2.61841
3.2415	-1.2085
3.242	-6.44531
3.2425	-1.51062
3.243	-0.30212
3.2435	0.40283
3.244	6.14319
3.2445	10.27222
3.245	11.78284
3.2455	17.01965
3.246	11.68213
3.2465	17.42249
3.247	18.93311
3.2475	13.89771
3.248	15.60974
3.2485	22.35718
3.249	18.32886
3.2495	17.52319
3.25	9.06372
3.2505	-0.20142
3.251	-3.02124
3.2515	-7.04956
3.252	-4.12903
3.2525	-2.61841
3.253	-2.92053
3.2535	1.40991
3.254	0.60425
3.2545	4.73328
3.255	12.89062
3.2555	8.8623
3.256	4.33044
3.2565	3.22266
3.257	9.16443
3.2575	10.57434
3.258	6.64673
3.2585	13.29346
3.259	21.55151
3.2595	22.05505
3.26	19.33594
3.2605	15.00549
3.261	-2.5177
3.2615	-11.2793
3.262	-3.8269
3.2625	2.71912
3.263	0
3.2635	1.51062
3.264	12.38708
3.2645	-4.83398
3.265	-8.7616
3.2655	-12.68921
3.266	-3.92761
3.2665	7.5531
3.267	14.70337
3.2675	25.177
3.268	24.47205
3.2685	20.34302
3.269	-0.20142
3.2695	-6.2439
3.27	-14.80408
3.2705	-6.94885
3.271	-7.15027
3.2715	1.40991
3.272	5.43823
3.2725	15.1062
3.273	21.75293
3.2735	14.50195
3.274	11.38
3.2745	6.94885
3.275	6.84814
3.2755	1.10779
3.276	-8.15735
3.2765	-6.64673
3.277	-3.12195
3.2775	-13.99841
3.278	-18.63098
3.2785	-16.71753
3.279	-16.11328
3.2795	-20.1416
3.28	-10.37292
3.2805	-7.5531
3.281	-12.28638
3.2815	-2.21558
3.282	3.8269
3.2825	3.7262
3.283	9.76868
3.2835	14.09912
3.284	13.19275
3.2845	13.59558
3.285	20.24231
3.2855	26.3855
3.286	25.78125
3.2865	26.88904
3.287	27.09045
3.2875	23.36426
3.288	21.65222
3.2885	22.45789
3.289	16.91895
3.2895	21.55151
3.29	26.08337
3.2905	23.66638
3.291	21.85364
3.2915	20.54443
3.292	21.3501
3.2925	18.12744
3.293	19.53735
3.2935	12.99133
3.294	16.21399
3.2945	12.78992
3.295	15.00549
3.2955	12.89062
3.296	12.38708
3.2965	9.46655
3.297	20.64514
3.2975	14.19983
3.298	20.54443
3.2985	18.42957
3.299	18.53027
3.2995	9.97009
3.3	7.85522
3.3005	5.94177
3.301	0.10071
3.3015	0.60425
3.302	-0.60425
3.3025	6.3446
3.303	-3.62549
3.3035	-3.32336
3.304	-2.11487
3.3045	-1.40991
3.305	-4.63257
3.3055	-9.76868
3.306	-13.89771
3.3065	-12.38708
3.307	-10.37292
3.3075	-6.54602
3.308	-8.35876
3.3085	3.62549
3.309	2.81982
3.3095	4.02832
3.31	2.11487
3.3105	-2.31628
3.311	-3.02124
3.3115	4.33044
3.312	1.2085
3.3125	3.32336
3.313	6.44531
3.3135	3.02124
3.314	4.43115
3.3145	4.93469
3.315	7.15027
3.3155	9.16443
3.316	6.04248
3.3165	7.45239
3.317	9.76868
3.3175	2.21558
3.318	0.90637
3.3185	1.2085
3.319	1.71204
3.3195	2.31628
3.32	1.71204
3.3205	3.12195
3.321	3.7262
3.3215	3.8269
3.322	10.67505
3.3225	9.56726
3.323	15.1062
3.3235	17.6239
3.324	19.63806
3.3245	17.72461
3.325	18.42957
3.3255	19.23523
3.326	15.60974
3.3265	-2.81982
3.327	-8.8623
3.3275	-12.5885
3.328	-7.85522
3.3285	-9.86938
3.329	-4.33044
3.3295	-11.07788
3.33	-9.56726
3.3305	-6.74744
3.331	-5.33752
3.3315	-0.50354
3.332	-4.02832
3.3325	-3.92761
3.333	-2.61841
3.3335	1.10779
3.334	2.71912
3.3345	9.36584
3.335	8.56018
3.3355	11.38
3.336	1.00708
3.3365	3.42407
3.337	4.43115
3.3375	2.71912
3.338	6.44531
3.3385	3.12195
3.339	8.8623
3.3395	20.64514
3.34	15.91187
3.3405	18.42957
3.341	13.69629
3.3415	13.59558
3.342	18.93311
3.3425	12.89062
3.343	18.63098
3.3435	14.90479
3.344	18.63098
3.3445	14.90479
3.345	14.80408
3.3455	15.1062
3.346	15.30762
3.3465	11.17859
3.347	21.04797
3.3475	20.94727
3.348	13.99841
3.3485	8.66089
3.349	-1.3092
3.3495	-0.80566
3.35	-10.67505
3.3505	-16.61682
3.351	-22.96143
3.3515	-26.3855
3.352	-30.31311
3.3525	-44.71436
3.353	-60.02197
3.3535	-73.71826
3.354	-96.7804
3.3545	-129.40979
3.355	-139.07776
3.3555	-133.23669
3.356	-122.25952
3.3565	-83.99048
3.357	-44.71436
3.3575	2.11487
3.358	39.27612
3.3585	83.08411
3.359	120.7489
3.3595	148.64502
3.36	159.21936
3.3605	171.10291
3.361	178.85742
3.3615	180.06592
3.362	178.75671
3.3625	167.98096
3.363	142.30042
3.3635	126.28784
3.364	94.2627
3.3645	64.25171
3.365	44.81506
3.3655	18.53027
3.366	-12.78992
3.3665	-46.62781
3.367	-87.71667
3.3675	-99.09668
3.368	-113.29651
3.3685	-105.13916
3.369	-115.31067
3.3695	-116.72058
3.37	-108.96606
3.3705	-92.24854
3.371	-77.54517
3.3715	-79.45862
3.372	-83.99048
3.3725	-83.28552
3.373	-67.37366
3.3735	-61.83472
3.374	-44.41223
3.3745	-36.95984
3.375	-24.06921
3.3755	-10.67505
3.376	5.23682
3.3765	16.61682
3.377	27.99683
3.3775	10.47363
3.378	4.63257
3.3785	5.84106
3.379	6.54602
3.3795	6.2439
3.38	10.97717
3.3805	16.3147
3.381	17.92603
3.3815	23.8678
3.382	36.35559
3.3825	42.8009
3.383	45.41931
3.3835	39.27612
3.384	46.22498
3.3845	52.67029
3.385	52.16675
3.3855	61.83472
3.386	56.09436
3.3865	51.5625
3.387	45.72144
3.3875	45.2179
3.388	44.0094
3.3885	45.3186
3.389	38.36975
3.3895	29.91028
3.39	35.14709
3.3905	29.70886
3.391	27.89612
3.3915	27.79541
3.392	32.62939
3.3925	33.63647
3.393	37.7655
3.3935	31.92444
3.394	28.80249
3.3945	24.16992
3.395	19.63806
3.3955	12.99133
3.396	11.38
3.3965	6.14319
3.397	4.63257
3.3975	10.27222
3.398	2.01416
3.3985	5.74036
3.399	3.02124
3.3995	7.45239
3.4	13.09204
3.4005	8.35876
3.401	15.71045
3.4015	17.32178
3.402	20.54443
3.4025	17.42249
3.403	15.50903
3.4035	12.68921
3.404	0.10071
3.4045	-2.21558
3.405	-7.45239
3.4055	-4.33044
3.406	-3.32336
3.4065	-5.0354
3.407	-7.95593
3.4075	-7.15027
3.408	-9.86938
3.4085	-2.61841
3.409	1.10779
3.4095	6.2439
3.41	14.50195
3.4105	20.94727
3.411	17.52319
3.4115	12.08496
3.412	5.23682
3.4125	-4.22974
3.413	-11.38
3.4135	-16.01257
3.414	-12.5885
3.4145	-6.94885
3.415	-6.54602
3.4155	-7.45239
3.416	-4.53186
3.4165	-4.83398
3.417	-1.51062
3.4175	2.11487
3.418	-2.71912
3.4185	-5.63965
3.419	-3.62549
3.4195	-4.73328
3.42	-7.15027
3.4205	-7.35168
3.421	-10.0708
3.4215	-3.62549
3.422	-7.25098
3.4225	-3.92761
3.423	-8.96301
3.4235	1.3092
3.424	0.70496
3.4245	1.81274
3.425	3.02124
3.4255	-1.40991
3.426	0.80566
3.4265	-4.43115
3.427	-2.61841
3.4275	-3.52478
3.428	-0.30212
3.4285	2.11487
3.429	0.50354
3.4295	8.25806
3.43	7.5531
3.4305	18.12744
3.431	23.56567
3.4315	20.04089
3.432	14.40125
3.4325	14.70337
3.433	10.67505
3.4335	2.21558
3.434	13.09204
3.4345	11.88354
3.435	5.13611
3.4355	8.96301
3.436	12.38708
3.4365	8.7616
3.437	6.84814
3.4375	8.7616
3.438	6.84814
3.4385	11.2793
3.439	12.68921
3.4395	12.28638
3.44	11.17859
3.4405	11.38
3.441	3.62549
3.4415	-0.20142
3.442	6.84814
3.4425	8.05664
3.443	12.18567
3.4435	16.51611
3.444	17.32178
3.4445	13.49487
3.445	11.07788
3.4455	11.2793
3.446	18.22815
3.4465	19.83948
3.447	20.04089
3.4475	30.11169
3.448	32.62939
3.4485	33.83789
3.449	11.68213
3.4495	-5.43823
3.45	-18.02673
3.4505	-22.05505
3.451	-32.93152
3.4515	-29.10461
3.452	-29.10461
3.4525	-13.89771
3.453	-12.18567
3.4535	-12.99133
3.454	-16.3147
3.4545	-3.52478
3.455	4.63257
3.4555	8.8623
3.456	12.08496
3.4565	4.83398
3.457	-7.45239
3.4575	-9.46655
3.458	-11.38
3.4585	-10.47363
3.459	-9.36584
3.4595	-10.0708
3.46	-7.75452
3.4605	-1.10779
3.461	-3.02124
3.4615	-6.04248
3.462	-14.90479
3.4625	-14.40125
3.463	-13.59558
3.4635	-13.39417
3.464	-9.66797
3.4645	-21.95435
3.465	-42.90161
3.4655	-49.54834
3.466	-46.42639
3.4665	-36.15417
3.467	-30.51453
3.4675	-21.24939
3.468	-11.88354
3.4685	-7.35168
3.469	6.3446
3.4695	8.8623
3.47	17.52319
3.4705	15.71045
3.471	12.78992
3.4715	6.14319
3.472	13.89771
3.4725	11.07788
3.473	6.44531
3.4735	8.05664
3.474	-2.11487
3.4745	-3.92761
3.475	-0.90637
3.4755	-7.65381
3.476	-14.80408
3.4765	-7.5531
3.477	-6.54602
3.4775	-0.60425
3.478	6.84814
3.4785	15.30762
3.479	22.55859
3.4795	36.75842
3.48	35.85205
3.4805	27.09045
3.481	30.51453
3.4815	35.44922
3.482	40.88745
3.4825	45.92285
3.483	52.16675
3.4835	47.53418
3.484	54.18091
3.4845	46.12427
3.485	48.94409
3.4855	38.974
3.486	29.80957
3.4865	17.92603
3.487	15.30762
3.4875	12.5885
3.488	12.48779
3.4885	19.63806
3.489	22.6593
3.4895	13.09204
3.49	16.11328
3.4905	20.34302
3.491	15.91187
3.4915	18.8324
3.492	12.78992
3.4925	11.17859
3.493	10.57434
3.4935	10.57434
3.494	17.52319
3.4945	15.81116
3.495	15.60974
3.4955	12.78992
3.496	18.22815
3.4965	11.78284
3.497	4.43115
3.4975	4.22974
3.498	3.62549
3.4985	11.68213
3.499	9.76868
3.4995	13.49487
3.5	7.5531
3.5005	9.97009
3.501	15.30762
3.5015	8.56018
3.502	8.45947
3.5025	7.95593
3.503	15.40833
3.5035	9.46655
3.504	10.37292
3.5045	12.89062
3.505	9.76868
3.5055	8.8623
3.506	9.86938
3.5065	10.67505
3.507	2.5177
3.5075	6.74744
3.508	4.22974
3.5085	-2.92053
3.509	-10.27222
3.5095	-15.1062
3.51	-17.01965
3.5105	-7.45239
3.511	-9.97009
3.5115	-7.5531
3.512	2.71912
3.5125	3.42407
3.513	2.61841
3.5135	0.60425
3.514	1.71204
3.5145	11.07788
3.515	11.07788
3.5155	8.15735
3.516	4.33044
3.5165	3.8269
3.517	2.31628
3.5175	1.91345
3.518	6.14319
3.5185	11.07788
3.519	15.1062
3.5195	11.58142
3.52	9.56726
3.5205	11.58142
3.521	2.71912
3.5215	2.81982
3.522	-3.22266
3.5225	-8.56018
3.523	-10.57434
3.5235	-7.65381
3.524	2.41699
3.5245	1.3092
3.525	2.71912
3.5255	3.42407
3.526	2.61841
3.5265	-1.61133
3.527	-1.40991
3.5275	-0.30212
3.528	-3.52478
3.5285	0
3.529	-3.62549
3.5295	4.43115
3.53	-1.3092
3.5305	-4.22974
3.531	-1.10779
3.5315	-5.84106
3.532	-6.94885
3.5325	1.71204
3.533	-0.80566
3.5335	3.42407
3.534	5.94177
3.5345	5.43823
3.535	6.84814
3.5355	8.96301
3.536	18.63098
3.5365	17.12036
3.537	10.77576
3.5375	10.47363
3.538	15.00549
3.5385	17.82532
3.539	24.16992
3.5395	25.78125
3.54	20.74585
3.5405	11.48071
3.541	7.85522
3.5415	6.14319
3.542	2.01416
3.5425	-13.09204
3.543	-21.55151
3.5435	-16.3147
3.544	-17.42249
3.5445	-8.05664
3.545	0.60425
3.5455	-0.60425
3.546	4.53186
3.5465	13.69629
3.547	14.50195
3.5475	12.89062
3.548	6.44531
3.5485	10.87646
3.549	13.39417
3.5495	13.69629
3.55	13.797
3.5505	18.63098
3.551	17.82532
3.5515	12.38708
3.552	15.91187
3.5525	13.39417
3.553	12.78992
3.5535	6.14319
3.554	6.54602
3.5545	-5.33752
3.555	-2.21558
3.5555	1.40991
3.556	-1.91345
3.5565	-1.71204
3.557	-3.02124
3.5575	-0.10071
3.558	-5.43823
3.5585	-0.70496
3.559	-1.51062
3.5595	-9.36584
3.56	-3.12195
3.5605	-0.90637
3.561	2.41699
3.5615	8.45947
3.562	6.54602
3.5625	8.66089
3.563	12.18567
3.5635	17.32178
3.564	15.81116
3.5645	15.1062
3.565	16.21399
3.5655	5.94177
3.566	-21.45081
3.5665	-44.61365
3.567	-74.2218
3.5675	-90.5365
3.568	-92.04712
3.5685	-80.56641
3.569	-70.09277
3.5695	-45.01648
3.57	-13.797
3.5705	5.94177
3.571	25.68054
3.5715	32.52869
3.572	39.17542
3.5725	51.66321
3.573	67.8772
3.5735	76.33667
3.574	83.58765
3.5745	80.16357
3.575	81.06995
3.5755	64.95667
3.576	52.67029
3.5765	34.14001
3.577	28.50037
3.5775	28.19824
3.578	18.73169
3.5785	2.01416
3.579	-9.97009
3.5795	-19.63806
3.58	-27.59399
3.5805	-32.62939
3.581	-30.51453
3.5815	-20.44373
3.582	-14.80408
3.5825	-11.58142
3.583	4.83398
3.5835	6.04248
3.584	14.40125
3.5845	24.37134
3.585	26.08337
3.5855	28.9032
3.586	31.52161
3.5865	29.70886
3.587	32.7301
3.5875	29.00391
3.588	24.67346
3.5885	20.74585
3.589	17.52319
3.5895	7.35168
3.59	9.06372
3.5905	8.25806
3.591	4.22974
3.5915	7.15027
3.592	10.0708
3.5925	11.38
3.593	14.90479
3.5935	16.91895
3.594	27.09045
3.5945	24.67346
3.595	16.91895
3.5955	18.12744
3.596	19.94019
3.5965	22.25647
3.597	17.72461
3.5975	12.99133
3.598	5.63965
3.5985	-2.11487
3.599	-8.15735
3.5995	-8.05664
3.6	-12.5885
3.6005	-13.09204
3.601	-12.99133
3.6015	-13.39417
3.602	-15.1062
3.6025	-19.83948
3.603	-14.40125
3.6035	-5.53894
3.604	-9.66797
3.6045	-3.62549
3.605	-2.21558
3.6055	-4.73328
3.606	-9.26514
3.6065	4.43115
3.607	1.2085
3.6075	-0.40283
3.608	-6.14319
3.6085	-5.94177
3.609	-2.81982
3.6095	-5.94177
3.61	-4.73328
3.6105	-1.61133
3.611	-2.11487
3.6115	-6.44531
3.612	-8.56018
3.6125	-11.88354
3.613	-14.09912
3.6135	-11.17859
3.614	-4.83398
3.6145	4.33044
3.615	11.58142
3.6155	16.81824
3.616	19.73877
3.6165	24.06921
3.617	25.88196
3.6175	29.30603
3.618	7.15027
3.6185	-22.15576
3.619	-25.37842
3.6195	-20.34302
3.62	-17.01965
3.6205	-9.56726
3.621	-4.63257
3.6215	11.58142
3.622	23.56567
3.6225	33.9386
3.623	42.39807
3.6235	42.29736
3.624	41.69312
3.6245	55.3894
3.625	55.3894
3.6255	60.82764
3.626	51.66321
3.6265	40.48462
3.627	26.98975
3.6275	22.05505
3.628	11.07788
3.6285	-1.40991
3.629	-4.02832
3.6295	-3.92761
3.63	-1.2085
3.6305	5.74036
3.631	2.41699
3.6315	3.62549
3.632	4.33044
3.6325	4.93469
3.633	2.92053
3.6335	0.40283
3.634	-3.42407
3.6345	-3.8269
3.635	-6.2439
3.6355	0.10071
3.636	-1.91345
3.6365	1.3092
3.637	-2.5177
3.6375	0.80566
3.638	6.84814
3.6385	7.25098
3.639	13.89771
3.6395	11.48071
3.64	6.54602
3.6405	8.96301
3.641	4.63257
3.6415	1.00708
3.642	6.64673
3.6425	0.60425
3.643	0.30212
3.6435	1.91345
3.644	0.60425
3.6445	-8.66089
3.645	0.60425
3.6455	-6.54602
3.646	-19.53735
3.6465	-32.42798
3.647	-28.39966
3.6475	-32.62939
3.648	-42.29736
3.6485	-56.69861
3.649	-60.52551
3.6495	-57.40356
3.65	-47.23206
3.6505	-47.7356
3.651	-40.88745
3.6515	-31.72302
3.652	-21.14868
3.6525	-13.49487
3.653	-1.2085
3.6535	16.51611
3.654	26.88904
3.6545	21.95435
3.655	29.00391
3.6555	24.37134
3.656	15.81116
3.6565	-30.11169
3.657	-59.41772
3.6575	-83.38623
3.658	-75.53101
3.6585	-70.3949
3.659	-61.33118
3.6595	-42.19666
3.66	-20.64514
3.6605	2.41699
3.661	27.79541
3.6615	53.67737
3.662	65.56091
3.6625	69.68994
3.663	62.64038
3.6635	61.23047
3.664	67.57507
3.6645	67.27295
3.665	68.28003
3.6655	56.79932
3.666	48.03772
3.6665	43.40515
3.667	45.11719
3.6675	43.40515
3.668	30.71594
3.6685	35.75134
3.669	36.65771
3.6695	36.15417
3.67	32.7301
3.6705	28.29895
3.671	18.42957
3.6715	12.5885
3.672	11.58142
3.6725	2.92053
3.673	2.11487
3.6735	5.33752
3.674	4.73328
3.6745	3.52478
3.675	2.92053
3.6755	7.04956
3.676	-0.10071
3.6765	-5.23682
3.677	-9.97009
3.6775	-8.56018
3.678	-8.35876
3.6785	1.51062
3.679	-4.83398
3.6795	-5.53894
3.68	-1.2085
3.6805	0.90637
3.681	-0.50354
3.6815	6.3446
3.682	3.02124
3.6825	-21.3501
3.683	-32.02515
3.6835	-25.37842
3.684	-18.12744
3.6845	-9.06372
3.685	2.5177
3.6855	11.58142
3.686	22.6593
3.6865	26.28479
3.687	28.29895
3.6875	31.52161
3.688	33.13293
3.6885	38.77258
3.689	41.39099
3.6895	42.09595
3.69	45.82214
3.6905	4.43115
3.691	-18.93311
3.6915	-38.47046
3.692	-38.77258
3.6925	-17.6239
3.693	-19.53735
3.6935	-9.97009
3.694	1.81274
3.6945	-3.02124
3.695	6.54602
3.6955	-11.07788
3.696	-69.38782
3.6965	-72.71118
3.697	-61.83472
3.6975	-50.05188
3.698	-46.42639
3.6985	-17.92603
3.699	6.2439
3.6995	32.93152
3.7	62.74109
3.7005	92.44995
3.701	98.0896
3.7015	98.19031
3.702	100.80872
3.7025	97.98889
3.703	109.16748
3.7035	109.16748
3.704	100.30518
3.7045	81.47278
3.705	63.44604
3.7055	39.07471
3.706	10.97717
3.7065	-10.47363
3.707	-24.47205
3.7075	-44.11011
3.708	-54.58374
3.7085	-52.46887
3.709	-53.37524
3.7095	-46.72852
3.71	-39.37683
3.7105	-70.69702
3.711	-93.45703
3.7115	-103.62854
3.712	-94.86694
3.7125	-71.30127
3.713	-47.33276
3.7135	-22.6593
3.714	-3.7262
3.7145	10.17151
3.715	14.70337
3.7155	26.88904
3.716	44.41223
3.7165	67.57507
3.717	65.25879
3.7175	20.1416
3.718	0.40283
3.7185	4.53186
3.719	15.30762
3.7195	-20.74585
3.72	-130.71899
3.7205	-215.51514
3.721	-214.70947
3.7215	-228.30505
3.722	-219.03992
3.7225	-173.11707
3.723	-118.93616
3.7235	-54.68445
3.724	21.14868
3.7245	100.00305
3.725	165.36255
3.7255	192.15088
3.726	204.43726
3.7265	224.78027
3.727	223.77319
3.7275	209.37195
3.728	186.81335
3.7285	163.04626
3.729	120.95032
3.7295	93.45703
3.73	56.49719
3.7305	22.05505
3.731	8.56018
3.7315	-0.90637
3.732	-0.20142
3.7325	-1.2085
3.733	2.61841
3.7335	5.13611
3.734	8.8623
3.7345	26.58691
3.735	-8.56018
3.7355	-122.56165
3.736	-188.6261
3.7365	-200.81177
3.737	-181.17371
3.7375	-149.75281
3.738	-110.98022
3.7385	-78.95508
3.739	-57.40356
3.7395	-30.51453
3.74	11.48071
3.7405	44.0094
3.741	67.37366
3.7415	48.94409
3.742	-25.177
3.7425	-71.30127
3.743	-96.37756
3.7435	-130.8197
3.744	-155.39246
3.7445	-132.12891
3.745	-87.21313
3.7455	-36.35559
3.746	17.22107
3.7465	46.22498
3.747	72.9126
3.7475	98.99597
3.748	111.8866
3.7485	124.07227
3.749	136.45935
3.7495	128.80554
3.75	101.61438
3.7505	60.12268
3.751	39.88037
3.7515	33.13293
3.752	36.35559
3.7525	35.65063
3.753	37.7655
3.7535	46.82922
3.754	49.95117
3.7545	6.54602
3.755	-140.38696
3.7555	-222.86682
3.756	-208.36487
3.7565	-148.04077
3.757	-77.44446
3.7575	-16.11328
3.758	34.24072
3.7585	82.78198
3.759	123.56873
3.7595	107.95898
3.76	111.8866
3.7605	131.72607
3.761	133.3374
3.7615	140.8905
3.762	157.91016
3.7625	165.26184
3.763	155.896
3.7635	132.73315
3.764	106.75049
3.7645	84.99756
3.765	43.10303
3.7655	-102.52075
3.766	-376.14441
3.7665	-510.99243
3.767	-504.74854
3.7675	-443.31665
3.768	-349.05396
3.7685	-228.60718
3.769	-87.01172
3.7695	45.72144
3.77	155.79529
3.7705	236.4624
3.771	277.65198
3.7715	272.9187
3.772	219.94629
3.7725	122.66235
3.773	54.68445
3.7735	43.50586
3.774	60.92834
3.7745	92.44995
3.775	131.32324
3.7755	161.33423
3.776	170.70007
3.7765	168.28308
3.777	156.80237
3.7775	161.43494
3.778	167.98096
3.7785	170.90149
3.779	172.21069
3.7795	171.40503
3.78	171.90857
3.7805	160.9314
3.781	148.94714
3.7815	135.65369
3.782	124.97864
3.7825	123.77014
3.783	110.37598
3.7835	72.30835
3.784	16.51611
3.7845	-16.51611
3.785	-158.4137
3.7855	-325.48828
3.786	-459.32922
3.7865	-515.42358
3.787	-477.45667
3.7875	-396.08459
3.788	-305.5481
3.7885	-200.0061
3.789	-64.45312
3.7895	24.06921
3.79	97.58606
3.7905	164.05334
3.791	228.20435
3.7915	255.99976
3.792	260.73303
3.7925	254.18701
3.793	226.59302
3.7935	180.36804
3.794	148.14148
3.7945	131.02112
3.795	129.61121
3.7955	137.16431
3.796	169.7937
3.7965	148.4436
3.797	114.60571
3.7975	73.61755
3.798	10.17151
3.7985	-41.89453
3.799	-83.58765
3.7995	-143.00537
3.8	-154.78821
3.8005	-127.89917
3.801	-76.63879
3.8015	-23.06213
3.802	9.26514
3.8025	29.60815
3.803	49.14551
3.8035	63.44604
3.804	52.56958
3.8045	-3.22266
3.805	-97.98889
3.8055	-451.77612
3.806	-686.52649
3.8065	-741.31165
3.807	-705.96313
3.8075	-638.18665
3.808	-530.83191
3.8085	-392.25769
3.809	-204.43726
3.8095	-62.03613
3.81	77.948
3.8105	234.34753
3.811	367.08069
3.8115	423.88
3.812	390.34424
3.8125	347.03979
3.813	332.94067
3.8135	284.198
3.814	152.47192
3.8145	63.24463
3.815	-10.27222
3.8155	-34.44214
3.816	-21.04797
3.8165	-0.40283
3.817	52.36816
3.8175	69.28711
3.818	46.82922
3.8185	24.16992
3.819	21.65222
3.8195	52.8717
3.82	89.42871
3.8205	125.7843
3.821	166.0675
3.8215	166.67175
3.822	172.81494
3.8225	171.0022
3.823	178.85742
3.8235	193.05725
3.824	202.5238
3.8245	218.13354
3.825	241.4978
3.8255	230.92346
3.826	216.01868
3.8265	192.95654
3.827	179.8645
3.8275	168.88733
3.828	134.5459
3.8285	105.23987
3.829	80.66711
3.8295	58.61206
3.83	46.82922
3.8305	36.25488
3.831	41.08887
3.8315	27.89612
3.832	-48.54126
3.8325	-127.09351
3.833	-220.95337
3.8335	-291.54968
3.834	-273.12012
3.8345	-229.51355
3.835	-239.58435
3.8355	-276.84631
3.836	-263.85498
3.8365	-281.47888
3.837	-273.92578
3.8375	-291.65039
3.838	-379.66919
3.8385	-390.54565
3.839	-387.22229
3.8395	-385.61096
3.84	-295.98083
3.8405	-263.55286
3.841	-332.94067
3.8415	-360.23254
3.842	-341.19873
3.8425	-250.96436
3.843	-114.80713
3.8435	54.88586
3.844	208.16345
3.8445	328.00598
3.845	434.95789
3.8455	528.11279
3.846	566.18042
3.8465	546.13953
3.847	493.26782
3.8475	425.79346
3.848	225.98877
3.8485	49.0448
3.849	-4.93469
3.8495	-14.09912
3.85	-19.43665
3.8505	-4.12903
3.851	6.84814
3.8515	35.04639
3.852	86.20605
3.8525	62.74109
3.853	30.91736
3.8535	24.97559
3.854	38.87329
3.8545	36.15417
3.855	44.11011
3.8555	13.39417
3.856	-50.2533
3.8565	-135.95581
3.857	-304.74243
3.8575	-465.87524
3.858	-570.41016
3.8585	-758.93555
3.859	-817.84973
3.8595	-723.48633
3.86	-555.70679
3.8605	-402.02637
3.861	-329.11377
3.8615	-233.13904
3.862	-92.14783
3.8625	21.55151
3.863	163.65051
3.8635	277.75269
3.864	388.02795
3.8645	342.60864
3.865	190.03601
3.8655	110.98022
3.866	134.14307
3.8665	178.15247
3.867	224.37744
3.8675	237.26807
3.868	235.65674
3.8685	260.02808
3.869	318.64014
3.8695	376.24512
3.87	360.43396
3.8705	281.47888
3.871	227.49939
3.8715	199.80469
3.872	157.70874
3.8725	150.15564
3.873	182.98645
3.8735	216.52222
3.874	118.2312
3.8745	57.9071
3.875	25.57983
3.8755	44.71436
3.876	145.32166
3.8765	248.54736
3.877	331.12793
3.8775	367.08069
3.878	162.84485
3.8785	-25.98267
3.879	-108.46252
3.8795	-99.60022
3.88	-49.0448
3.8805	-13.29346
3.881	31.72302
3.8815	104.4342
3.882	193.15796
3.8825	232.73621
3.883	178.65601
3.8835	150.75989
3.884	183.18787
3.8845	192.25159
3.885	142.40112
3.8855	109.77173
3.886	92.95349
3.8865	98.59314
3.887	115.81421
3.8875	96.7804
3.888	101.11084
3.8885	117.82837
3.889	144.01245
3.8895	169.08875
3.89	182.88574
3.8905	183.89282
3.891	187.92114
3.8915	193.05725
3.892	164.35547
3.8925	110.77881
3.893	45.2179
3.8935	-22.35718
3.894	-111.8866
3.8945	-166.87317
3.895	-236.16028
3.8955	-313.70544
3.896	-404.34265
3.8965	-667.08984
3.897	-857.62939
3.8975	-897.20764
3.898	-841.11328
3.8985	-709.58862
3.899	-522.47314
3.8995	-334.95483
3.9	-162.54272
3.9005	-6.04248
3.901	103.52783
3.9015	62.03613
3.902	51.05896
3.9025	82.17773
3.903	109.06677
3.9035	136.05652
3.904	162.74414
3.9045	83.38623
3.905	-24.57275
3.9055	-88.32092
3.906	-202.02026
3.9065	-282.78809
3.907	-298.19641
3.9075	-374.43237
3.908	-358.01697
3.9085	-251.26648
3.909	-92.85278
3.9095	77.948
3.91	236.05957
3.9105	381.17981
3.911	488.83667
3.9115	576.85547
3.912	642.51709
3.9125	659.0332
3.913	607.67212
3.9135	529.22058
3.914	392.86194
3.9145	270.401
3.915	183.38928
3.9155	122.56165
3.916	46.82922
3.9165	-4.63257
3.917	-21.04797
3.9175	-32.12585
3.918	-45.01648
3.9185	-41.79382
3.919	-25.98267
3.9195	16.81824
3.92	59.71985
3.9205	99.80164
3.921	146.02661
3.9215	195.47424
3.922	237.46948
3.9225	257.8125
3.923	223.97461
3.9235	167.07458
3.924	132.0282
3.9245	123.56873
3.925	101.01013
3.9255	82.58057
3.926	57.20215
3.9265	14.40125
3.927	-41.18958
3.9275	-54.58374
3.928	-30.51453
3.9285	7.75452
3.929	-20.64514
3.9295	-186.00769
3.93	-295.17517
3.9305	-367.98706
3.931	-389.33716
3.9315	-358.72192
3.932	-343.21289
3.9325	-340.29236
3.933	-297.69287
3.9335	-204.63867
3.934	-115.91492
3.9345	-112.28943
3.935	-123.06519
3.9355	-109.26819
3.936	-125.68359
3.9365	-214.50806
3.937	-240.1886
3.9375	-194.66858
3.938	-144.81812
3.9385	-77.24304
3.939	-40.08179
3.9395	-30.41382
3.94	-9.26514
3.9405	22.05505
3.941	56.5979
3.9415	98.59314
3.942	154.98962
3.9425	203.53088
3.943	253.48206
3.9435	274.1272
3.944	252.07214
3.9445	207.86133
3.945	156.70166
3.9455	94.2627
3.946	-0.10071
3.9465	-57.50427
3.947	-90.23438
3.9475	-86.30676
3.948	-54.0802
3.9485	-104.73633
3.949	-158.5144
3.9495	-156.39954
3.95	-112.28943
3.9505	-79.96216
3.951	-136.45935
3.9515	-243.00842
3.952	-306.35376
3.9525	-288.62915
3.953	-248.34595
3.9535	-275.13428
3.954	-294.36951
3.9545	-221.75903
3.955	-232.33337
3.9555	-222.66541
3.956	-164.55688
3.9565	-56.09436
3.957	63.14392
3.9575	168.38379
3.958	279.86755
3.9585	397.89734
3.959	432.84302
3.9595	445.93506
3.96	466.47949
3.9605	372.61963
3.961	263.25073
3.9615	177.24609
3.962	80.16357
3.9625	40.88745
3.963	-26.28479
3.9635	-77.14233
3.964	-62.33826
3.9645	-5.23682
3.965	58.41064
3.9655	147.1344
3.966	230.21851
3.9665	180.36804
3.967	118.93616
3.9675	91.04004
3.968	87.51526
3.9685	106.54907
3.969	115.51208
3.9695	88.42163
3.97	47.03064
3.9705	32.12585
3.971	29.91028
3.9715	43.10303
3.972	66.97083
3.9725	71.40198
3.973	-55.69153
3.9735	-172.21069
3.974	-292.15393
3.9745	-316.72668
3.975	-323.57483
3.9755	-315.31677
3.976	-298.69995
3.9765	-223.67249
3.977	-120.84961
3.9775	-30.51453
3.978	60.22339
3.9785	123.97156
3.979	193.6615
3.9795	233.9447
3.98	262.74719
3.9805	263.95569
3.981	249.25232
3.9815	225.78735
3.982	187.21619
3.9825	92.55066
3.983	-38.47046
3.9835	-99.60022
3.984	-118.02979
3.9845	-81.87561
3.985	-20.1416
3.9855	51.46179
3.986	108.86536
3.9865	138.97705
3.987	166.26892
3.9875	182.88574
3.988	131.32324
3.9885	62.9425
3.989	-1.40991
3.9895	-46.12427
3.99	-86.60889
3.9905	-103.52783
3.991	-102.72217
3.9915	-113.59863
3.992	-99.2981
3.9925	-71.30127
3.993	-70.69702
3.9935	-59.51843
3.994	-29.80957
3.9945	8.56018
3.995	39.77966
3.9955	73.01331
3.996	28.60107
3.9965	-28.50037
3.997	-61.02905
3.9975	-50.95825
3.998	-31.01807
3.9985	-62.23755
3.999	-82.78198
3.9995	-83.48694
4	-53.17383
4.0005	-16.91895
4.001	21.65222
4.0015	95.47119
4.002	125.07935
4.0025	143.71033
4.003	152.67334
4.0035	120.64819
4.004	97.28394
4.0045	100.40588
4.005	98.29102
4.0055	70.59631
4.006	15.50903
4.0065	-19.73877
4.007	-38.87329
4.0075	-51.86462
4.008	-53.77808
4.0085	-45.52002
4.009	-124.37439
4.0095	-194.9707
4.01	-224.67957
4.0105	-244.0155
4.011	-239.78577
4.0115	-193.86292
4.012	-133.84094
4.0125	-84.59473
4.013	-38.974
4.0135	10.0708
4.014	44.41223
4.0145	76.33667
4.015	108.36182
4.0155	115.31067
4.016	101.01013
4.0165	74.82605
4.017	59.51843
4.0175	37.66479
4.018	-1.51062
4.0185	-5.23682
4.019	-11.78284
4.0195	-6.14319
4.02	-40.1825
4.0205	-46.22498
4.021	-54.78516
4.0215	-91.24146
4.022	-178.45459
4.0225	-241.29639
4.023	-231.82983
4.0235	-172.61353
4.024	-76.7395
4.0245	-31.21948
4.025	-127.29492
4.0255	-162.54272
4.026	-117.72766
4.0265	-61.12976
4.027	-37.46338
4.0275	-102.31934
4.028	-120.34607
4.0285	-105.44128
4.029	-38.87329
4.0295	56.5979
4.03	145.72449
4.0305	243.81409
4.031	318.2373
4.0315	301.8219
4.032	180.36804
4.0325	91.34216
4.033	30.31311
4.0335	-14.70337
4.034	-112.18872
4.0345	-175.03052
4.035	-156.80237
4.0355	-93.15491
4.036	-25.07629
4.0365	51.86462
4.037	140.99121
4.0375	234.44824
4.038	317.83447
4.0385	330.22156
4.039	324.68262
4.0395	288.83057
4.04	252.07214
4.0405	242.30347
4.041	240.89355
4.0415	162.64343
4.042	-0.20142
4.0425	-202.22168
4.043	-300.5127
4.0435	-321.45996
