Niccolo_Morelli_Right_2.c3d  



Time(s):	Emg_4(μV):
0	137.36572
0.0005	94.56482
0.001	59.01489
0.0015	34.24072
0.002	-0.50354
0.0025	-23.66638
0.003	-30.61523
0.0035	-36.95984
0.004	-41.89453
0.0045	-46.42639
0.005	-47.63489
0.0055	-56.39648
0.006	-50.85754
0.0065	-49.64905
0.007	-54.18091
0.0075	-58.61206
0.008	-60.3241
0.0085	-62.43896
0.009	-59.92126
0.0095	-57.70569
0.01	-64.75525
0.0105	-66.76941
0.011	-59.61914
0.0115	-58.51135
0.012	-59.82056
0.0125	-58.81348
0.013	-50.45471
0.0135	-49.0448
0.014	-45.41931
0.0145	-44.61365
0.015	-44.91577
0.0155	-36.25488
0.016	-30.91736
0.0165	-31.21948
0.017	-22.25647
0.0175	-18.12744
0.018	-12.89062
0.0185	-7.45239
0.019	1.10779
0.0195	12.68921
0.02	11.98425
0.0205	11.38
0.021	8.25806
0.0215	4.33044
0.022	-1.3092
0.0225	2.11487
0.023	-3.02124
0.0235	-7.35168
0.024	-11.58142
0.0245	-9.86938
0.025	-11.38
0.0255	-11.48071
0.026	-10.0708
0.0265	-13.09204
0.027	-19.23523
0.0275	-18.53027
0.028	-25.07629
0.0285	-19.83948
0.029	-18.8324
0.0295	-15.60974
0.03	-17.52319
0.0305	-14.19983
0.031	-17.01965
0.0315	-15.91187
0.032	-17.12036
0.0325	-14.60266
0.033	-17.82532
0.0335	-15.60974
0.034	-20.94727
0.0345	-11.07788
0.035	-11.2793
0.0355	-11.68213
0.036	-7.35168
0.0365	-4.02832
0.037	3.7262
0.0375	8.7616
0.038	19.23523
0.0385	29.60815
0.039	24.67346
0.0395	22.15576
0.04	21.3501
0.0405	19.53735
0.041	18.73169
0.0415	11.58142
0.042	14.30054
0.0425	10.27222
0.043	1.81274
0.0435	13.29346
0.044	5.23682
0.0445	8.45947
0.045	10.77576
0.0455	10.57434
0.046	5.94177
0.0465	0.80566
0.047	-1.51062
0.0475	1.00708
0.048	0.10071
0.0485	-2.61841
0.049	-5.33752
0.0495	-3.42407
0.05	-5.23682
0.0505	-1.81274
0.051	-6.84814
0.0515	-4.02832
0.052	-4.73328
0.0525	-4.63257
0.053	-4.22974
0.0535	-2.71912
0.054	1.61133
0.0545	3.32336
0.055	5.63965
0.0555	6.04248
0.056	1.10779
0.0565	-0.60425
0.057	-3.8269
0.0575	-3.32336
0.058	-9.06372
0.0585	-14.90479
0.059	-11.98425
0.0595	-17.01965
0.06	-11.2793
0.0605	-7.95593
0.061	-10.27222
0.0615	-9.86938
0.062	-7.5531
0.0625	-9.86938
0.063	-2.41699
0.0635	-1.2085
0.064	2.92053
0.0645	6.2439
0.065	1.61133
0.0655	2.31628
0.066	7.15027
0.0665	7.75452
0.067	13.49487
0.0675	19.63806
0.068	15.81116
0.0685	19.53735
0.069	22.55859
0.0695	27.6947
0.07	30.81665
0.0705	24.87488
0.071	25.37842
0.0715	23.36426
0.072	9.36584
0.0725	7.45239
0.073	4.93469
0.0735	2.01416
0.074	4.93469
0.0745	2.31628
0.075	1.00708
0.0755	-2.92053
0.076	4.22974
0.0765	4.33044
0.077	-3.22266
0.0775	-8.05664
0.078	-18.42957
0.0785	-24.57275
0.079	-30.71594
0.0795	-30.41382
0.08	-31.32019
0.0805	-30.91736
0.081	-40.1825
0.0815	-34.94568
0.082	-39.88037
0.0825	-63.24463
0.083	-60.92834
0.0835	-65.3595
0.084	-69.1864
0.0845	-76.94092
0.085	-90.43579
0.0855	-108.46252
0.086	-105.03845
0.0865	-91.64429
0.087	-77.24304
0.0875	-54.98657
0.088	-24.97559
0.0885	7.75452
0.089	37.26196
0.0895	72.50977
0.09	106.14624
0.0905	114.4043
0.091	120.04395
0.0915	122.46094
0.092	121.15173
0.0925	120.84961
0.093	120.14465
0.0935	111.78589
0.094	111.78589
0.0945	99.09668
0.095	98.99597
0.0955	92.24854
0.096	84.69543
0.0965	83.78906
0.097	83.99048
0.0975	70.69702
0.098	63.34534
0.0985	45.72144
0.099	22.05505
0.0995	5.0354
0.1	-3.32336
0.1005	-9.56726
0.101	-10.67505
0.1015	-17.12036
0.102	-40.68604
0.1025	-85.60181
0.103	-123.2666
0.1035	-133.84094
0.104	-146.83228
0.1045	-146.22803
0.105	-131.42395
0.1055	-103.52783
0.106	-74.82605
0.1065	-44.31152
0.107	1.00708
0.1075	36.35559
0.108	73.51685
0.1085	98.29102
0.109	125.07935
0.1095	143.10608
0.11	145.9259
0.1105	149.24927
0.111	148.84644
0.1115	142.70325
0.112	123.77014
0.1125	99.2981
0.113	77.84729
0.1135	60.12268
0.114	40.08179
0.1145	23.8678
0.115	23.8678
0.1155	6.84814
0.116	5.94177
0.1165	-0.60425
0.117	-16.61682
0.1175	-21.65222
0.118	-20.94727
0.1185	-18.8324
0.119	-10.17151
0.1195	-6.84814
0.12	-2.31628
0.1205	0.10071
0.121	3.62549
0.1215	2.81982
0.122	5.13611
0.1225	4.63257
0.123	9.26514
0.1235	4.33044
0.124	12.28638
0.1245	12.68921
0.125	16.11328
0.1255	21.85364
0.126	22.96143
0.1265	25.78125
0.127	25.68054
0.1275	31.21948
0.128	28.19824
0.1285	33.43506
0.129	34.84497
0.1295	31.32019
0.13	40.08179
0.1305	27.99683
0.131	31.82373
0.1315	30.81665
0.132	29.00391
0.1325	25.88196
0.133	24.57275
0.1335	21.85364
0.134	15.1062
0.1345	16.21399
0.135	9.26514
0.1355	11.78284
0.136	6.54602
0.1365	3.8269
0.137	3.52478
0.1375	4.33044
0.138	-6.94885
0.1385	-5.0354
0.139	-0.90637
0.1395	-2.21558
0.14	-3.02124
0.1405	-4.83398
0.141	-9.76868
0.1415	-18.93311
0.142	-16.51611
0.1425	-19.94019
0.143	-21.95435
0.1435	-24.37134
0.144	-21.85364
0.1445	-23.06213
0.145	-17.01965
0.1455	-24.67346
0.146	-22.25647
0.1465	-24.06921
0.147	-21.14868
0.1475	-19.83948
0.148	-13.99841
0.1485	-14.80408
0.149	-7.85522
0.1495	-4.83398
0.15	7.25098
0.1505	13.89771
0.151	14.70337
0.1515	17.72461
0.152	20.64514
0.1525	16.61682
0.153	24.27063
0.1535	22.96143
0.154	20.74585
0.1545	21.14868
0.155	18.73169
0.1555	14.40125
0.156	16.01257
0.1565	15.81116
0.157	16.41541
0.1575	21.24939
0.158	12.99133
0.1585	14.50195
0.159	6.94885
0.1595	11.17859
0.16	8.8623
0.1605	5.74036
0.161	2.21558
0.1615	8.25806
0.162	8.25806
0.1625	3.12195
0.163	-1.10779
0.1635	-3.42407
0.164	-1.00708
0.1645	-7.25098
0.165	-9.76868
0.1655	-2.61841
0.166	-7.15027
0.1665	-6.54602
0.167	-7.04956
0.1675	-6.94885
0.168	-6.64673
0.1685	-16.01257
0.169	-21.95435
0.1695	-19.73877
0.17	-23.46497
0.1705	-32.32727
0.171	-28.19824
0.1715	-31.82373
0.172	-34.94568
0.1725	-35.95276
0.173	-27.99683
0.1735	-29.30603
0.174	-29.60815
0.1745	-26.18408
0.175	-27.6947
0.1755	-27.6947
0.176	-23.96851
0.1765	-21.95435
0.177	-23.26355
0.1775	-17.42249
0.178	-17.92603
0.1785	-7.65381
0.179	1.91345
0.1795	17.12036
0.18	25.47913
0.1805	42.39807
0.181	45.82214
0.1815	52.16675
0.182	49.64905
0.1825	45.72144
0.183	43.80798
0.1835	35.54993
0.184	32.7301
0.1845	22.05505
0.185	21.65222
0.1855	18.32886
0.186	20.74585
0.1865	25.27771
0.187	23.66638
0.1875	29.00391
0.188	25.57983
0.1885	27.79541
0.189	31.62231
0.1895	34.84497
0.19	34.03931
0.1905	29.40674
0.191	21.45081
0.1915	21.95435
0.192	19.53735
0.1925	18.73169
0.193	17.52319
0.1935	11.78284
0.194	7.15027
0.1945	5.94177
0.195	3.7262
0.1955	0.40283
0.196	-5.53894
0.1965	-9.76868
0.197	-17.22107
0.1975	-27.6947
0.198	-33.83789
0.1985	-35.34851
0.199	-38.36975
0.1995	-38.57117
0.2	-33.43506
0.2005	-26.78833
0.201	-30.81665
0.2015	-31.32019
0.202	-37.66479
0.2025	-32.12585
0.203	-27.09045
0.2035	-25.27771
0.204	-28.50037
0.2045	-24.37134
0.205	-23.8678
0.2055	-29.70886
0.206	-24.77417
0.2065	-15.50903
0.207	-1.2085
0.2075	8.56018
0.208	15.00549
0.2085	28.09753
0.209	36.05347
0.2095	41.29028
0.21	52.06604
0.2105	52.16675
0.211	44.51294
0.2115	44.61365
0.212	41.79382
0.2125	38.16833
0.213	33.03223
0.2135	33.73718
0.214	33.73718
0.2145	39.27612
0.215	40.78674
0.2155	42.19666
0.216	47.23206
0.2165	48.94409
0.217	47.13135
0.2175	43.00232
0.218	44.71436
0.2185	38.77258
0.219	37.96692
0.2195	35.34851
0.22	33.63647
0.2205	23.36426
0.221	10.27222
0.2215	1.81274
0.222	4.43115
0.2225	1.51062
0.223	-4.43115
0.2235	-2.41699
0.224	-2.61841
0.2245	-3.62549
0.225	-11.88354
0.2255	-17.72461
0.226	-16.61682
0.2265	-22.05505
0.227	-18.8324
0.2275	-17.01965
0.228	-15.40833
0.2285	-13.59558
0.229	-5.43823
0.2295	-12.48779
0.23	-4.83398
0.2305	-7.65381
0.231	-1.71204
0.2315	-4.53186
0.232	-1.61133
0.2325	3.32336
0.233	8.7616
0.2335	10.47363
0.234	9.56726
0.2345	7.65381
0.235	15.71045
0.2355	16.81824
0.236	18.53027
0.2365	14.19983
0.237	17.12036
0.2375	14.70337
0.238	18.12744
0.2385	13.99841
0.239	16.3147
0.2395	17.32178
0.24	12.18567
0.2405	9.06372
0.241	11.17859
0.2415	9.86938
0.242	3.62549
0.2425	4.12903
0.243	2.11487
0.2435	5.94177
0.244	2.41699
0.2445	3.52478
0.245	-3.02124
0.2455	-0.80566
0.246	-7.65381
0.2465	-11.38
0.247	-20.34302
0.2475	-23.96851
0.248	-30.51453
0.2485	-41.79382
0.249	-44.11011
0.2495	-44.91577
0.25	-34.74426
0.2505	-30.01099
0.251	-30.51453
0.2515	-25.68054
0.252	-29.80957
0.2525	-17.72461
0.253	-15.00549
0.2535	-11.2793
0.254	-4.02832
0.2545	-8.45947
0.255	2.5177
0.2555	3.7262
0.256	6.64673
0.2565	7.65381
0.257	0.70496
0.2575	6.84814
0.258	6.44531
0.2585	11.88354
0.259	18.53027
0.2595	18.73169
0.26	25.27771
0.2605	31.11877
0.261	34.14001
0.2615	38.87329
0.262	49.74976
0.2625	43.50586
0.263	41.59241
0.2635	45.11719
0.264	40.38391
0.2645	32.02515
0.265	31.4209
0.2655	35.2478
0.266	33.13293
0.2665	27.19116
0.267	12.5885
0.2675	7.95593
0.268	-2.31628
0.2685	-18.53027
0.269	-23.8678
0.2695	-30.61523
0.27	-28.09753
0.2705	-32.62939
0.271	-29.00391
0.2715	-30.01099
0.272	-29.80957
0.2725	-40.78674
0.273	-82.68127
0.2735	-131.92749
0.274	-168.98804
0.2745	-192.75513
0.275	-192.05017
0.2755	-176.33972
0.276	-147.83936
0.2765	-122.25952
0.277	-87.11243
0.2775	-50.05188
0.278	-14.50195
0.2785	0.10071
0.279	19.63806
0.2795	33.9386
0.28	40.48462
0.2805	53.77808
0.281	51.26038
0.2815	58.41064
0.282	52.8717
0.2825	45.41931
0.283	53.57666
0.2835	58.10852
0.284	62.64038
0.2845	56.29578
0.285	65.15808
0.2855	57.50427
0.286	55.08728
0.2865	50.05188
0.287	52.771
0.2875	48.74268
0.288	49.34692
0.2885	53.97949
0.289	60.12268
0.2895	73.81897
0.29	93.35632
0.2905	98.49243
0.291	98.79456
0.2915	101.51367
0.292	95.47119
0.2925	93.96057
0.293	84.99756
0.2935	56.79932
0.294	13.99841
0.2945	-27.79541
0.295	-70.69702
0.2955	-114.80713
0.296	-149.14856
0.2965	-154.18396
0.297	-151.46484
0.2975	-129.00696
0.298	-107.15332
0.2985	-66.26587
0.299	-32.42798
0.2995	2.5177
0.3	38.36975
0.3005	67.17224
0.301	72.81189
0.3015	88.22021
0.302	101.01013
0.3025	97.78748
0.303	89.42871
0.3035	79.05579
0.304	71.60339
0.3045	61.73401
0.305	62.9425
0.3055	60.12268
0.306	56.39648
0.3065	51.96533
0.307	49.95117
0.3075	44.11011
0.308	35.04639
0.3085	26.68762
0.309	7.95593
0.3095	2.31628
0.31	-9.86938
0.3105	0.70496
0.311	-1.91345
0.3115	1.40991
0.312	7.25098
0.3125	8.15735
0.313	15.60974
0.3135	17.42249
0.314	13.49487
0.3145	5.94177
0.315	8.25806
0.3155	5.13611
0.316	-2.31628
0.3165	-1.00708
0.317	-6.3446
0.3175	-17.32178
0.318	-22.45789
0.3185	-37.46338
0.319	-44.81506
0.3195	-38.77258
0.32	-24.47205
0.3205	-11.98425
0.321	-3.22266
0.3215	4.63257
0.322	12.08496
0.3225	22.6593
0.323	29.70886
0.3235	38.77258
0.324	39.57825
0.3245	27.39258
0.325	16.41541
0.3255	6.04248
0.326	-14.19983
0.3265	-32.52869
0.327	-53.67737
0.3275	-63.54675
0.328	-67.17224
0.3285	-67.8772
0.329	-61.83472
0.3295	-45.2179
0.33	-41.89453
0.3305	-31.21948
0.331	-28.80249
0.3315	-26.58691
0.332	-44.21082
0.3325	-57.8064
0.333	-75.22888
0.3335	-84.2926
0.334	-75.12817
0.3345	-61.6333
0.335	-50.05188
0.3355	-31.01807
0.336	-12.08496
0.3365	3.92761
0.337	16.21399
0.3375	19.43665
0.338	27.79541
0.3385	30.81665
0.339	24.16992
0.3395	18.42957
0.34	12.5885
0.3405	21.04797
0.341	31.52161
0.3415	40.98816
0.342	49.0448
0.3425	55.59082
0.343	59.71985
0.3435	63.24463
0.344	61.43188
0.3445	61.6333
0.345	58.81348
0.3455	56.09436
0.346	41.79382
0.3465	31.72302
0.347	25.88196
0.3475	20.44373
0.348	25.27771
0.3485	32.52869
0.349	41.08887
0.3495	41.59241
0.35	48.03772
0.3505	48.44055
0.351	44.21082
0.3515	35.75134
0.352	28.80249
0.3525	15.71045
0.353	5.94177
0.3535	-0.40283
0.354	-6.84814
0.3545	-10.47363
0.355	-11.17859
0.3555	-40.88745
0.356	-60.92834
0.3565	-74.32251
0.357	-76.03455
0.3575	-72.50977
0.358	-71.09985
0.3585	-62.9425
0.359	-49.0448
0.3595	-31.4209
0.36	-17.22107
0.3605	-9.66797
0.361	-8.66089
0.3615	-17.6239
0.362	-20.44373
0.3625	-21.14868
0.363	-15.91187
0.3635	-18.42957
0.364	-9.06372
0.3645	1.3092
0.365	10.37292
0.3655	20.84656
0.366	39.98108
0.3665	48.03772
0.367	48.54126
0.3675	46.62781
0.368	44.21082
0.3685	37.7655
0.369	30.41382
0.3695	22.15576
0.37	17.01965
0.3705	15.71045
0.371	16.91895
0.3715	4.63257
0.372	5.84106
0.3725	-0.40283
0.373	-20.84656
0.3735	-29.00391
0.374	-40.98816
0.3745	-51.76392
0.375	-66.16516
0.3755	-65.15808
0.376	-56.09436
0.3765	-44.31152
0.377	-31.32019
0.3775	-9.26514
0.378	8.05664
0.3785	23.46497
0.379	32.62939
0.3795	45.41931
0.38	53.27454
0.3805	57.8064
0.381	61.12976
0.3815	60.52551
0.382	51.66321
0.3825	48.64197
0.383	43.70728
0.3835	30.41382
0.384	21.85364
0.3845	13.59558
0.385	9.86938
0.3855	5.74036
0.386	5.13611
0.3865	-0.30212
0.387	-9.16443
0.3875	-7.65381
0.388	-14.50195
0.3885	-18.12744
0.389	-8.8623
0.3895	-9.97009
0.39	-8.15735
0.3905	-12.78992
0.391	-15.00549
0.3915	-12.5885
0.392	-16.91895
0.3925	-10.77576
0.393	-17.52319
0.3935	-17.42249
0.394	-14.30054
0.3945	-17.22107
0.395	-23.66638
0.3955	-17.72461
0.396	-23.8678
0.3965	-36.95984
0.397	-53.07312
0.3975	-64.75525
0.398	-66.56799
0.3985	-61.93542
0.399	-52.67029
0.3995	-33.03223
0.4	-15.20691
0.4005	0.70496
0.401	18.53027
0.4015	35.34851
0.402	51.15967
0.4025	63.84888
0.403	64.95667
0.4035	65.05737
0.404	66.16516
0.4045	68.98499
0.405	68.68286
0.4055	62.53967
0.406	61.83472
0.4065	54.78516
0.407	45.3186
0.4075	33.23364
0.408	21.04797
0.4085	6.04248
0.409	3.12195
0.4095	-6.84814
0.41	-15.81116
0.4105	-19.33594
0.411	-38.47046
0.4115	-42.90161
0.412	-38.06763
0.4125	-33.03223
0.413	-26.18408
0.4135	-24.16992
0.414	-18.53027
0.4145	-10.27222
0.415	-4.43115
0.4155	-4.12903
0.416	4.43115
0.4165	10.27222
0.417	7.5531
0.4175	9.97009
0.418	7.5531
0.4185	8.35876
0.419	7.95593
0.4195	5.63965
0.42	9.97009
0.4205	6.04248
0.421	2.71912
0.4215	2.5177
0.422	5.63965
0.4225	7.15027
0.423	6.94885
0.4235	11.2793
0.424	13.89771
0.4245	17.72461
0.425	16.21399
0.4255	13.39417
0.426	9.86938
0.4265	3.12195
0.427	-14.80408
0.4275	-51.26038
0.428	-93.85986
0.4285	-137.16431
0.429	-153.07617
0.4295	-156.09741
0.43	-139.48059
0.4305	-119.54041
0.431	-95.77332
0.4315	-63.14392
0.432	-20.54443
0.4325	18.53027
0.433	50.45471
0.4335	86.20605
0.434	108.46252
0.4345	122.25952
0.435	134.94873
0.4355	139.17847
0.436	139.37988
0.4365	130.31616
0.437	119.94324
0.4375	114.00146
0.438	103.72925
0.4385	90.43579
0.439	83.48694
0.4395	61.93542
0.44	21.04797
0.4405	-1.51062
0.441	-15.71045
0.4415	-36.65771
0.442	-45.92285
0.4425	-38.26904
0.443	-36.75842
0.4435	-39.27612
0.444	-36.35559
0.4445	-29.50745
0.445	-26.88904
0.4455	-17.12036
0.446	-6.3446
0.4465	2.41699
0.447	-3.8269
0.4475	4.12903
0.448	16.81824
0.4485	23.8678
0.449	21.75293
0.4495	18.32886
0.45	13.89771
0.4505	13.59558
0.451	16.61682
0.4515	17.82532
0.452	23.16284
0.4525	29.60815
0.453	33.03223
0.4535	34.64355
0.454	37.46338
0.4545	33.23364
0.455	25.47913
0.4555	15.40833
0.456	0
0.4565	-5.74036
0.457	-3.62549
0.4575	-0.80566
0.458	-0.60425
0.4585	-1.00708
0.459	-0.30212
0.4595	-0.90637
0.46	-2.11487
0.4605	-0.70496
0.461	-10.0708
0.4615	-3.02124
0.462	2.31628
0.4625	4.02832
0.463	2.41699
0.4635	2.41699
0.464	6.04248
0.4645	2.01416
0.465	-10.27222
0.4655	-17.42249
0.466	-20.1416
0.4665	-5.84106
0.467	2.01416
0.4675	6.44531
0.468	18.42957
0.4685	17.32178
0.469	10.77576
0.4695	10.27222
0.47	6.84814
0.4705	1.00708
0.471	0
0.4715	2.31628
0.472	-1.10779
0.4725	-9.56726
0.473	-9.97009
0.4735	-15.91187
0.474	-17.82532
0.4745	-29.50745
0.475	-25.78125
0.4755	-24.97559
0.476	-22.45789
0.4765	-19.83948
0.477	-20.24231
0.4775	-16.91895
0.478	-22.35718
0.4785	-20.24231
0.479	-16.41541
0.4795	-10.27222
0.48	-3.22266
0.4805	6.54602
0.481	15.50903
0.4815	29.20532
0.482	42.09595
0.4825	58.71277
0.483	59.61914
0.4835	62.13684
0.484	65.56091
0.4845	53.97949
0.485	38.26904
0.4855	38.26904
0.486	33.63647
0.4865	29.20532
0.487	34.34143
0.4875	16.71753
0.488	2.81982
0.4885	-17.52319
0.489	-29.60815
0.4895	-47.13135
0.49	-56.69861
0.4905	-58.00781
0.491	-55.2887
0.4915	-38.57117
0.492	-30.41382
0.4925	-31.11877
0.493	-29.40674
0.4935	-14.50195
0.494	-9.56726
0.4945	8.56018
0.495	24.27063
0.4955	34.54285
0.496	45.82214
0.4965	39.88037
0.497	25.47913
0.4975	17.82532
0.498	11.88354
0.4985	9.56726
0.499	11.17859
0.4995	15.71045
0.5	21.14868
0.5005	29.60815
0.501	35.85205
0.5015	39.17542
0.502	44.81506
0.5025	47.93701
0.503	47.93701
0.5035	42.19666
0.504	39.07471
0.5045	31.21948
0.505	18.22815
0.5055	-2.41699
0.506	-18.73169
0.5065	-2.21558
0.507	12.28638
0.5075	18.93311
0.508	13.29346
0.5085	6.74744
0.509	-5.13611
0.5095	-11.17859
0.51	-14.40125
0.5105	-12.28638
0.511	-10.57434
0.5115	-4.33044
0.512	-5.94177
0.5125	-3.22266
0.513	-1.51062
0.5135	0.10071
0.514	0.50354
0.5145	11.88354
0.515	11.98425
0.5155	16.51611
0.516	10.37292
0.5165	9.16443
0.517	8.45947
0.5175	-7.75452
0.518	-35.65063
0.5185	-52.26746
0.519	-65.15808
0.5195	-64.25171
0.52	-54.38232
0.5205	-41.08887
0.521	-32.22656
0.5215	-17.92603
0.522	-6.44531
0.5225	4.22974
0.523	15.60974
0.5235	35.75134
0.524	32.22656
0.5245	33.43506
0.525	35.65063
0.5255	33.53577
0.526	39.98108
0.5265	38.36975
0.527	34.24072
0.5275	29.30603
0.528	17.92603
0.5285	7.25098
0.529	-5.53894
0.5295	-19.43665
0.53	-15.30762
0.5305	-23.66638
0.531	-25.37842
0.5315	-34.14001
0.532	-37.16125
0.5325	-28.09753
0.533	-4.83398
0.5335	7.25098
0.534	20.24231
0.5345	38.974
0.535	49.24622
0.5355	56.90002
0.536	42.09595
0.5365	39.17542
0.537	36.55701
0.5375	30.51453
0.538	24.87488
0.5385	18.53027
0.539	11.98425
0.5395	8.96301
0.54	8.66089
0.5405	2.21558
0.541	8.66089
0.5415	10.97717
0.542	8.8623
0.5425	8.35876
0.543	8.45947
0.5435	8.25806
0.544	11.17859
0.5445	11.17859
0.545	21.55151
0.5455	15.71045
0.546	15.60974
0.5465	12.5885
0.547	23.06213
0.5475	20.24231
0.548	19.83948
0.5485	23.76709
0.549	17.22107
0.5495	14.09912
0.55	17.52319
0.5505	7.85522
0.551	-0.80566
0.5515	-1.3092
0.552	-3.7262
0.5525	-8.15735
0.553	-5.43823
0.5535	6.2439
0.554	8.25806
0.5545	14.30054
0.555	20.44373
0.5555	13.09204
0.556	12.5885
0.5565	21.45081
0.557	28.80249
0.5575	37.46338
0.558	35.65063
0.5585	22.6593
0.559	21.75293
0.5595	15.50903
0.56	11.98425
0.5605	14.30054
0.561	10.87646
0.5615	13.49487
0.562	5.74036
0.5625	4.12903
0.563	4.53186
0.5635	9.76868
0.564	11.68213
0.5645	5.43823
0.565	-6.2439
0.5655	-11.88354
0.566	-11.2793
0.5665	-21.3501
0.567	-10.47363
0.5675	-3.42407
0.568	1.81274
0.5685	4.53186
0.569	-0.60425
0.5695	-3.92761
0.57	6.3446
0.5705	11.07788
0.571	16.41541
0.5715	9.97009
0.572	-7.85522
0.5725	-9.26514
0.573	-17.01965
0.5735	-21.55151
0.574	-25.68054
0.5745	-22.76001
0.575	-3.8269
0.5755	-0.80566
0.576	-6.84814
0.5765	-2.81982
0.577	-2.5177
0.5775	5.53894
0.578	17.32178
0.5785	25.78125
0.579	32.93152
0.5795	53.87878
0.58	61.23047
0.5805	74.42322
0.581	55.99365
0.5815	32.22656
0.582	5.43823
0.5825	-18.53027
0.583	-12.08496
0.5835	-2.71912
0.584	2.31628
0.5845	-5.23682
0.585	1.2085
0.5855	2.61841
0.586	1.91345
0.5865	-2.71912
0.587	-16.51611
0.5875	-30.31311
0.588	-36.85913
0.5885	-36.35559
0.589	-45.92285
0.5895	-43.20374
0.59	-43.40515
0.5905	-40.88745
0.591	-25.47913
0.5915	-8.56018
0.592	-4.93469
0.5925	6.64673
0.593	15.30762
0.5935	5.33752
0.594	-7.95593
0.5945	-8.96301
0.595	-8.8623
0.5955	-6.94885
0.596	-11.07788
0.5965	-20.24231
0.597	-30.91736
0.5975	-38.26904
0.598	-37.16125
0.5985	-20.74585
0.599	-7.85522
0.5995	0.60425
0.6	9.76868
0.6005	18.63098
0.601	23.36426
0.6015	33.13293
0.602	39.37683
0.6025	52.56958
0.603	55.3894
0.6035	61.02905
0.604	61.73401
0.6045	57.30286
0.605	59.1156
0.6055	51.66321
0.606	43.60657
0.6065	39.98108
0.607	31.62231
0.6075	22.96143
0.608	22.76001
0.6085	7.85522
0.609	-0.80566
0.6095	0.60425
0.61	4.22974
0.6105	9.36584
0.611	12.08496
0.6115	6.2439
0.612	6.2439
0.6125	10.77576
0.613	13.39417
0.6135	23.16284
0.614	23.06213
0.6145	13.29346
0.615	7.5531
0.6155	-6.3446
0.616	-2.11487
0.6165	-8.45947
0.617	-36.75842
0.6175	-55.2887
0.618	-70.59631
0.6185	-64.65454
0.619	-47.03064
0.6195	-32.42798
0.62	-17.01965
0.6205	-12.99133
0.621	-10.37292
0.6215	2.81982
0.622	9.97009
0.6225	25.88196
0.623	15.40833
0.6235	11.17859
0.624	10.27222
0.6245	-10.57434
0.625	-16.71753
0.6255	-17.42249
0.626	-11.78284
0.6265	-5.74036
0.627	-15.60974
0.6275	-13.797
0.628	-5.63965
0.6285	7.65381
0.629	20.54443
0.6295	28.80249
0.63	33.13293
0.6305	32.22656
0.631	43.80798
0.6315	63.44604
0.632	70.19348
0.6325	69.89136
0.633	58.61206
0.6335	63.24463
0.634	57.50427
0.6345	65.3595
0.635	56.90002
0.6355	58.00781
0.636	49.64905
0.6365	42.49878
0.637	45.52002
0.6375	43.10303
0.638	42.59949
0.6385	28.9032
0.639	17.42249
0.6395	12.68921
0.64	12.68921
0.6405	5.63965
0.641	2.5177
0.6415	-3.52478
0.642	-2.81982
0.6425	-4.02832
0.643	0.20142
0.6435	-1.51062
0.644	-17.6239
0.6445	-36.4563
0.645	-42.90161
0.6455	-48.64197
0.646	-101.9165
0.6465	-148.24219
0.647	-169.29016
0.6475	-166.47034
0.648	-129.10767
0.6485	-79.76074
0.649	-31.72302
0.6495	7.25098
0.65	32.93152
0.6505	52.8717
0.651	57.10144
0.6515	61.02905
0.652	44.21082
0.6525	47.03064
0.653	45.92285
0.6535	45.2179
0.654	38.87329
0.6545	50.05188
0.655	45.52002
0.6555	39.37683
0.656	25.68054
0.6565	20.94727
0.657	19.03381
0.6575	10.77576
0.658	-0.40283
0.6585	4.73328
0.659	3.02124
0.6595	2.21558
0.66	18.32886
0.6605	20.64514
0.661	8.7616
0.6615	-11.17859
0.662	-17.01965
0.6625	-11.2793
0.663	-19.73877
0.6635	-12.48779
0.664	-2.81982
0.6645	0.30212
0.665	12.89062
0.6655	13.39417
0.666	15.00549
0.6665	6.74744
0.667	5.13611
0.6675	2.41699
0.668	5.23682
0.6685	-10.27222
0.669	-9.56726
0.6695	-10.77576
0.67	-9.66797
0.6705	-8.7616
0.671	-2.5177
0.6715	5.84106
0.672	9.16443
0.6725	4.33044
0.673	8.56018
0.6735	20.34302
0.674	16.91895
0.6745	3.22266
0.675	-10.17151
0.6755	-11.38
0.676	-12.28638
0.6765	1.51062
0.677	10.47363
0.6775	23.36426
0.678	32.62939
0.6785	40.58533
0.679	51.5625
0.6795	52.67029
0.68	58.51135
0.6805	49.34692
0.681	32.83081
0.6815	27.6947
0.682	21.24939
0.6825	-1.71204
0.683	-23.26355
0.6835	-27.19116
0.684	-31.21948
0.6845	-24.16992
0.685	-20.44373
0.6855	-14.90479
0.686	-18.8324
0.6865	-22.76001
0.687	-20.44373
0.6875	-18.42957
0.688	-15.91187
0.6885	-6.54602
0.689	-4.93469
0.6895	-4.12903
0.69	3.12195
0.6905	10.37292
0.691	9.06372
0.6915	11.78284
0.692	12.28638
0.6925	11.68213
0.693	14.70337
0.6935	18.12744
0.694	22.6593
0.6945	24.37134
0.695	24.37134
0.6955	-8.7616
0.696	-46.72852
0.6965	-61.02905
0.697	-52.06604
0.6975	-35.44922
0.698	-9.56726
0.6985	10.77576
0.699	32.32727
0.6995	44.91577
0.7	58.91418
0.7005	68.07861
0.701	69.89136
0.7015	61.73401
0.702	48.94409
0.7025	23.46497
0.703	-11.68213
0.7035	-12.78992
0.704	4.22974
0.7045	26.78833
0.705	35.95276
0.7055	10.57434
0.706	-17.12036
0.7065	-33.9386
0.707	-45.72144
0.7075	-45.72144
0.708	-33.83789
0.7085	-15.50903
0.709	-10.77576
0.7095	-13.99841
0.71	-16.91895
0.7105	-11.2793
0.711	-9.76868
0.7115	-15.81116
0.712	-3.62549
0.7125	-24.97559
0.713	-31.21948
0.7135	-32.7301
0.714	-27.09045
0.7145	-29.10461
0.715	-19.33594
0.7155	-7.15027
0.716	6.04248
0.7165	10.87646
0.717	28.80249
0.7175	42.09595
0.718	46.42639
0.7185	38.77258
0.719	34.03931
0.7195	27.19116
0.72	24.06921
0.7205	0.90637
0.721	-17.01965
0.7215	-29.91028
0.722	-43.30444
0.7225	-58.00781
0.723	-60.72693
0.7235	-43.10303
0.724	-23.06213
0.7245	-10.57434
0.725	1.10779
0.7255	3.7262
0.726	4.43115
0.7265	10.67505
0.727	12.48779
0.7275	21.65222
0.728	34.74426
0.7285	53.17383
0.729	66.16516
0.7295	73.11401
0.73	73.11401
0.7305	62.13684
0.731	52.16675
0.7315	41.79382
0.732	28.60107
0.7325	20.04089
0.733	19.33594
0.7335	17.01965
0.734	10.47363
0.7345	15.30762
0.735	12.18567
0.7355	12.08496
0.736	-1.71204
0.7365	-12.38708
0.737	-19.13452
0.7375	-24.97559
0.738	-28.9032
0.7385	-15.60974
0.739	-14.70337
0.7395	-10.37292
0.74	-4.12903
0.7405	6.3446
0.741	7.85522
0.7415	-1.3092
0.742	-3.42407
0.7425	-1.51062
0.743	-9.76868
0.7435	-21.95435
0.744	-21.85364
0.7445	-28.80249
0.745	-28.70178
0.7455	-9.26514
0.746	8.45947
0.7465	23.36426
0.747	24.97559
0.7475	25.88196
0.748	29.70886
0.7485	38.87329
0.749	52.56958
0.7495	64.85596
0.75	62.64038
0.7505	62.13684
0.751	49.24622
0.7515	39.17542
0.752	37.06055
0.7525	23.96851
0.753	11.88354
0.7535	-1.91345
0.754	-13.49487
0.7545	-21.3501
0.755	-27.39258
0.7555	-25.177
0.756	-26.3855
0.7565	-27.09045
0.757	-20.74585
0.7575	-6.04248
0.758	-3.12195
0.7585	-3.42407
0.759	-12.48779
0.7595	-42.49878
0.76	-55.2887
0.7605	-48.64197
0.761	-37.06055
0.7615	-18.73169
0.762	-8.15735
0.7625	3.92761
0.763	13.59558
0.7635	22.45789
0.764	23.76709
0.7645	20.1416
0.765	21.45081
0.7655	24.27063
0.766	28.70178
0.7665	38.36975
0.767	38.974
0.7675	43.60657
0.768	43.70728
0.7685	44.11011
0.769	30.31311
0.7695	29.10461
0.77	19.13452
0.7705	10.77576
0.771	7.95593
0.7715	5.74036
0.772	17.52319
0.7725	23.16284
0.773	25.98267
0.7735	25.37842
0.774	21.14868
0.7745	24.37134
0.775	21.24939
0.7755	14.80408
0.776	6.3446
0.7765	-12.89062
0.777	-9.97009
0.7775	-2.71912
0.778	3.52478
0.7785	0.60425
0.779	-8.35876
0.7795	-26.28479
0.78	-28.60107
0.7805	-32.7301
0.781	-21.95435
0.7815	-15.40833
0.782	-24.27063
0.7825	-23.8678
0.783	-13.29346
0.7835	-3.92761
0.784	-0.40283
0.7845	7.15027
0.785	7.5531
0.7855	13.09204
0.786	16.91895
0.7865	-0.10071
0.787	-14.70337
0.7875	-20.04089
0.788	-22.96143
0.7885	-57.60498
0.789	-94.16199
0.7895	-110.57739
0.79	-105.13916
0.7905	-98.59314
0.791	-75.32959
0.7915	-42.8009
0.792	17.12036
0.7925	53.57666
0.793	58.20923
0.7935	60.22339
0.794	73.91968
0.7945	88.72375
0.795	116.61987
0.7955	136.56006
0.796	158.31299
0.7965	178.75671
0.797	184.29565
0.7975	188.42468
0.798	168.4845
0.7985	138.27209
0.799	105.74341
0.7995	75.73242
0.8	44.41223
0.8005	-0.40283
0.801	-33.63647
0.8015	-60.12268
0.802	-77.34375
0.8025	-79.2572
0.803	-75.83313
0.8035	-59.82056
0.804	-52.16675
0.8045	-54.58374
0.805	-52.06604
0.8055	-39.17542
0.806	-27.99683
0.8065	-17.92603
0.807	-21.24939
0.8075	-19.63806
0.808	-19.23523
0.8085	-19.43665
0.809	-18.42957
0.8095	-22.96143
0.81	-23.06213
0.8105	-21.75293
0.811	-26.78833
0.8115	-14.70337
0.812	-13.89771
0.8125	-18.8324
0.813	-22.15576
0.8135	-19.53735
0.814	-20.34302
0.8145	-20.24231
0.815	-9.66797
0.8155	-5.43823
0.816	3.7262
0.8165	-9.56726
0.817	-28.29895
0.8175	-34.14001
0.818	-34.14001
0.8185	-23.06213
0.819	-6.3446
0.8195	6.04248
0.82	23.8678
0.8205	38.26904
0.821	46.82922
0.8215	61.12976
0.822	62.43896
0.8225	51.36108
0.823	46.62781
0.8235	41.59241
0.824	35.85205
0.8245	25.88196
0.825	17.32178
0.8255	22.45789
0.826	23.16284
0.8265	13.09204
0.827	4.83398
0.8275	-1.00708
0.828	-31.92444
0.8285	-50.05188
0.829	-50.85754
0.8295	-59.82056
0.83	-77.84729
0.8305	-84.19189
0.831	-70.59631
0.8315	-54.58374
0.832	-27.89612
0.8325	-9.06372
0.833	2.31628
0.8335	8.05664
0.834	21.3501
0.8345	19.13452
0.835	18.63098
0.8355	11.98425
0.836	19.23523
0.8365	25.07629
0.837	20.34302
0.8375	28.39966
0.838	19.83948
0.8385	-1.00708
0.839	-19.73877
0.8395	-24.97559
0.84	-16.91895
0.8405	-3.02124
0.841	2.31628
0.8415	1.91345
0.842	0.20142
0.8425	7.95593
0.843	11.88354
0.8435	23.76709
0.844	28.50037
0.8445	25.47913
0.845	17.6239
0.8455	14.80408
0.846	6.04248
0.8465	-3.92761
0.847	-8.56018
0.8475	-5.0354
0.848	3.32336
0.8485	5.43823
0.849	3.8269
0.8495	4.02832
0.85	-39.67896
0.8505	-76.53809
0.851	-74.42322
0.8515	-57.70569
0.852	-60.3241
0.8525	-32.12585
0.853	9.86938
0.8535	63.34534
0.854	106.64978
0.8545	124.37439
0.855	124.97864
0.8555	110.98022
0.856	93.0542
0.8565	74.62463
0.857	58.71277
0.8575	45.2179
0.858	35.2478
0.8585	35.14709
0.859	19.83948
0.8595	7.04956
0.86	7.85522
0.8605	-10.77576
0.861	-28.80249
0.8615	-43.70728
0.862	-26.98975
0.8625	-11.58142
0.863	0.20142
0.8635	-4.63257
0.864	1.2085
0.8645	-2.71912
0.865	6.04248
0.8655	2.01416
0.866	-8.56018
0.8665	-27.79541
0.867	-24.57275
0.8675	-22.55859
0.868	-25.07629
0.8685	-24.87488
0.869	-27.19116
0.8695	-39.07471
0.87	-36.05347
0.8705	-23.56567
0.871	-15.00549
0.8715	-3.8269
0.872	-4.33044
0.8725	0
0.873	-8.35876
0.8735	-13.69629
0.874	-6.2439
0.8745	-12.5885
0.875	-37.66479
0.8755	-56.49719
0.876	-58.10852
0.8765	-54.0802
0.877	-51.26038
0.8775	-37.7655
0.878	-26.68762
0.8785	-34.54285
0.879	-20.84656
0.8795	-17.92603
0.88	-2.41699
0.8805	17.01965
0.881	39.77966
0.8815	53.67737
0.882	62.43896
0.8825	74.42322
0.883	83.68835
0.8835	95.06836
0.884	82.17773
0.8845	59.21631
0.885	38.26904
0.8855	28.70178
0.886	26.28479
0.8865	19.63806
0.887	16.01257
0.8875	2.41699
0.888	-15.30762
0.8885	-12.38708
0.889	-14.40125
0.8895	-40.98816
0.89	-55.08728
0.8905	-53.87878
0.891	-39.88037
0.8915	-38.77258
0.892	-37.16125
0.8925	-20.54443
0.893	-4.93469
0.8935	0.20142
0.894	4.43115
0.8945	10.27222
0.895	2.71912
0.8955	-9.56726
0.896	-8.35876
0.8965	2.01416
0.897	17.92603
0.8975	15.50903
0.898	-2.92053
0.8985	-45.82214
0.899	-76.84021
0.8995	-91.8457
0.9	-79.96216
0.9005	-71.40198
0.901	-57.8064
0.9015	-35.04639
0.902	-14.09912
0.9025	6.74744
0.903	31.01807
0.9035	43.80798
0.904	65.76233
0.9045	64.45312
0.905	62.9425
0.9055	52.97241
0.906	46.02356
0.9065	46.32568
0.907	52.06604
0.9075	36.85913
0.908	23.56567
0.9085	30.11169
0.909	33.13293
0.9095	49.24622
0.91	58.30994
0.9105	63.44604
0.911	63.14392
0.9115	59.51843
0.912	41.69312
0.9125	21.3501
0.913	16.71753
0.9135	20.74585
0.914	22.86072
0.9145	16.61682
0.915	13.49487
0.9155	4.12903
0.916	-12.89062
0.9165	-32.32727
0.917	-33.33435
0.9175	-36.85913
0.918	-39.98108
0.9185	-34.14001
0.919	-19.03381
0.9195	-11.98425
0.92	0
0.9205	2.01416
0.921	6.3446
0.9215	4.93469
0.922	4.12903
0.9225	8.05664
0.923	18.12744
0.9235	15.71045
0.924	11.17859
0.9245	11.48071
0.925	6.74744
0.9255	-9.97009
0.926	-49.24622
0.9265	-87.71667
0.927	-99.09668
0.9275	-84.09119
0.928	-63.34534
0.9285	-32.62939
0.929	12.08496
0.9295	53.47595
0.93	75.73242
0.9305	88.72375
0.931	94.3634
0.9315	98.39172
0.932	104.4342
0.9325	87.01172
0.933	69.99207
0.9335	54.0802
0.934	32.22656
0.9345	32.93152
0.935	36.15417
0.9355	30.31311
0.936	15.40833
0.9365	9.86938
0.937	10.77576
0.9375	5.63965
0.938	4.73328
0.9385	16.61682
0.939	19.83948
0.9395	11.38
0.94	-12.78992
0.9405	-25.37842
0.941	-26.48621
0.9415	-29.70886
0.942	-23.36426
0.9425	-14.90479
0.943	-12.99133
0.9435	-16.21399
0.944	-28.60107
0.9445	-20.1416
0.945	-13.49487
0.9455	-5.53894
0.946	-3.32336
0.9465	6.44531
0.947	7.85522
0.9475	10.17151
0.948	11.38
0.9485	26.98975
0.949	17.52319
0.9495	-0.30212
0.95	-23.96851
0.9505	-48.13843
0.951	-48.74268
0.9515	-34.94568
0.952	-20.64514
0.9525	-4.83398
0.953	8.35876
0.9535	22.05505
0.954	35.65063
0.9545	35.85205
0.955	24.67346
0.9555	20.24231
0.956	20.64514
0.9565	25.27771
0.957	28.9032
0.9575	26.08337
0.958	18.02673
0.9585	15.81116
0.959	8.56018
0.9595	-1.40991
0.96	-9.16443
0.9605	-1.51062
0.961	-6.14319
0.9615	-9.26514
0.962	9.66797
0.9625	19.43665
0.963	35.34851
0.9635	43.60657
0.964	63.94958
0.9645	76.7395
0.965	93.45703
0.9655	93.65845
0.966	68.98499
0.9665	58.00781
0.967	53.37524
0.9675	62.33826
0.968	55.49011
0.9685	40.58533
0.969	29.10461
0.9695	24.06921
0.97	25.68054
0.9705	2.92053
0.971	-12.89062
0.9715	-19.43665
0.972	-24.16992
0.9725	-28.39966
0.973	-19.53735
0.9735	-23.06213
0.974	-29.00391
0.9745	-12.28638
0.975	-11.2793
0.9755	-16.3147
0.976	-32.22656
0.9765	-40.98816
0.977	-36.55701
0.9775	-24.06921
0.978	-8.7616
0.9785	-8.7616
0.979	-11.48071
0.9795	-11.88354
0.98	-4.22974
0.9805	-2.61841
0.981	1.00708
0.9815	-4.93469
0.982	2.11487
0.9825	5.13611
0.983	9.06372
0.9835	20.54443
0.984	20.54443
0.9845	22.35718
0.985	25.07629
0.9855	32.93152
0.986	30.31311
0.9865	37.46338
0.987	33.63647
0.9875	25.177
0.988	28.70178
0.9885	28.19824
0.989	27.09045
0.9895	32.52869
0.99	27.59399
0.9905	24.16992
0.991	28.39966
0.9915	23.66638
0.992	3.12195
0.9925	-7.45239
0.993	-11.78284
0.9935	-0.80566
0.994	6.84814
0.9945	14.30054
0.995	19.53735
0.9955	-8.35876
0.996	-20.74585
0.9965	-17.12036
0.997	-12.08496
0.9975	-13.69629
0.998	0.90637
0.9985	19.03381
0.999	34.44214
0.9995	48.54126
1	50.2533
1.0005	59.82056
1.001	51.26038
1.0015	56.29578
1.002	37.36267
1.0025	20.24231
1.003	5.33752
1.0035	-1.91345
1.004	-6.74744
1.0045	-14.19983
1.005	-12.38708
1.0055	-16.41541
1.006	-21.04797
1.0065	-22.6593
1.007	-7.5531
1.0075	-10.57434
1.008	-11.17859
1.0085	-21.3501
1.009	-17.6239
1.0095	-9.46655
1.01	-1.40991
1.0105	-12.5885
1.011	-7.15027
1.0115	-7.75452
1.012	-45.72144
1.0125	-59.21631
1.013	-83.48694
1.0135	-105.23987
1.014	-108.76465
1.0145	-86.20605
1.015	-58.81348
1.0155	-30.01099
1.016	13.39417
1.0165	61.73401
1.017	97.88818
1.0175	128.80554
1.018	148.04077
1.0185	166.26892
1.019	181.67725
1.0195	171.10291
1.02	164.85901
1.0205	136.35864
1.021	93.85986
1.0215	63.84888
1.022	41.18958
1.0225	20.44373
1.023	6.44531
1.0235	-9.36584
1.024	-39.47754
1.0245	-74.02039
1.025	-102.52075
1.0255	-118.2312
1.026	-122.46094
1.0265	-99.90234
1.027	-74.72534
1.0275	-46.02356
1.028	-11.98425
1.0285	1.10779
1.029	7.15027
1.0295	6.94885
1.03	19.83948
1.0305	34.64355
1.031	34.44214
1.0315	48.84338
1.032	38.36975
1.0325	7.65381
1.033	-5.33752
1.0335	7.45239
1.034	8.7616
1.0345	7.5531
1.035	2.01416
1.0355	-21.55151
1.036	-34.64355
1.0365	-31.92444
1.037	-25.177
1.0375	-22.55859
1.038	-12.89062
1.0385	-3.62549
1.039	-1.51062
1.0395	-1.81274
1.04	6.94885
1.0405	16.41541
1.041	40.48462
1.0415	57.8064
1.042	55.08728
1.0425	58.30994
1.043	53.37524
1.0435	48.74268
1.044	44.0094
1.0445	35.2478
1.045	37.86621
1.0455	24.06921
1.046	-4.02832
1.0465	-12.78992
1.047	-7.15027
1.0475	0
1.048	1.51062
1.0485	2.71912
1.049	17.01965
1.0495	39.77966
1.05	50.85754
1.0505	72.50977
1.051	80.4657
1.0515	85.80322
1.052	88.62305
1.0525	87.71667
1.053	82.78198
1.0535	59.51843
1.054	46.72852
1.0545	36.4563
1.055	24.97559
1.0555	5.53894
1.056	-9.97009
1.0565	-15.40833
1.057	-18.22815
1.0575	-14.40125
1.058	-4.02832
1.0585	1.51062
1.059	0
1.0595	-8.25806
1.06	-36.65771
1.0605	-63.74817
1.061	-50.05188
1.0615	-31.82373
1.062	-16.11328
1.0625	-7.65381
1.063	-6.64673
1.0635	-18.02673
1.064	-30.91736
1.0645	-25.07629
1.065	-11.78284
1.0655	-4.73328
1.066	1.91345
1.0665	10.77576
1.067	19.53735
1.0675	12.08496
1.068	5.23682
1.0685	2.31628
1.069	-7.45239
1.0695	-1.81274
1.07	-4.22974
1.0705	13.09204
1.071	28.39966
1.0715	43.70728
1.072	27.49329
1.0725	-1.40991
1.073	-9.86938
1.0735	-23.16284
1.074	-60.72693
1.0745	-80.76782
1.075	-71.20056
1.0755	-38.26904
1.076	-7.85522
1.0765	29.40674
1.077	34.94568
1.0775	42.49878
1.078	61.12976
1.0785	72.50977
1.079	75.83313
1.0795	46.5271
1.08	29.50745
1.0805	33.73718
1.081	39.07471
1.0815	26.58691
1.082	4.33044
1.0825	-31.62231
1.083	-67.47437
1.0835	-47.03064
1.084	-3.52478
1.0845	20.84656
1.085	28.70178
1.0855	34.94568
1.086	31.4209
1.0865	20.04089
1.087	11.48071
1.0875	10.77576
1.088	-0.20142
1.0885	-0.30212
1.089	-6.54602
1.0895	2.41699
1.09	11.2793
1.0905	16.91895
1.091	20.04089
1.0915	-2.01416
1.092	-21.04797
1.0925	-27.49329
1.093	-19.53735
1.0935	-10.27222
1.094	4.53186
1.0945	3.42407
1.095	8.25806
1.0955	2.5177
1.096	11.68213
1.0965	16.51611
1.097	20.24231
1.0975	23.16284
1.098	17.52319
1.0985	30.01099
1.099	30.01099
1.0995	40.38391
1.1	27.89612
1.1005	32.93152
1.101	49.64905
1.1015	66.36658
1.102	76.03455
1.1025	97.38464
1.103	95.67261
1.1035	92.85278
1.104	79.96216
1.1045	62.9425
1.105	40.08179
1.1055	11.2793
1.106	-20.24231
1.1065	-40.08179
1.107	-45.92285
1.1075	-57.50427
1.108	-50.354
1.1085	-57.50427
1.109	-67.27295
1.1095	-81.06995
1.11	-77.54517
1.1105	-71.90552
1.111	-63.54675
1.1115	-51.26038
1.112	-38.36975
1.1125	-33.53577
1.113	-16.81824
1.1135	6.94885
1.114	19.53735
1.1145	27.39258
1.115	32.02515
1.1155	34.34143
1.116	26.08337
1.1165	21.55151
1.117	22.45789
1.1175	25.177
1.118	30.61523
1.1185	30.01099
1.119	32.93152
1.1195	32.93152
1.12	18.22815
1.1205	6.2439
1.121	2.5177
1.1215	-3.42407
1.122	-0.90637
1.1225	-8.56018
1.123	-8.56018
1.1235	-10.17151
1.124	-15.91187
1.1245	-17.01965
1.125	-6.74744
1.1255	-2.61841
1.126	2.81982
1.1265	6.3446
1.127	1.91345
1.1275	2.71912
1.128	3.52478
1.1285	3.52478
1.129	6.3446
1.1295	7.65381
1.13	8.15735
1.1305	0.40283
1.131	2.41699
1.1315	4.53186
1.132	6.94885
1.1325	8.05664
1.133	7.35168
1.1335	9.76868
1.134	5.43823
1.1345	8.25806
1.135	-4.12903
1.1355	-5.0354
1.136	-16.01257
1.1365	-24.67346
1.137	-14.70337
1.1375	-6.94885
1.138	12.28638
1.1385	-2.5177
1.139	-14.80408
1.1395	-24.27063
1.14	-19.13452
1.1405	-8.66089
1.141	15.60974
1.1415	40.1825
1.142	58.00781
1.1425	74.2218
1.143	82.47986
1.1435	84.79614
1.144	80.86853
1.1445	52.97241
1.145	15.1062
1.1455	17.01965
1.146	21.85364
1.1465	10.37292
1.147	-11.98425
1.1475	-26.78833
1.148	-11.98425
1.1485	-6.74744
1.149	-9.16443
1.1495	-20.44373
1.15	-25.98267
1.1505	-19.33594
1.151	-16.51611
1.1515	-16.01257
1.152	-31.32019
1.1525	-42.90161
1.153	-53.67737
1.1535	-67.77649
1.154	-52.46887
1.1545	-33.9386
1.155	-14.90479
1.1555	-10.57434
1.156	6.3446
1.1565	18.93311
1.157	33.9386
1.1575	48.03772
1.158	60.02197
1.1585	67.8772
1.159	57.8064
1.1595	55.49011
1.16	46.32568
1.1605	42.19666
1.161	40.58533
1.1615	19.73877
1.162	32.62939
1.1625	49.24622
1.163	66.97083
1.1635	78.95508
1.164	76.53809
1.1645	76.33667
1.165	71.7041
1.1655	69.48853
1.166	46.02356
1.1665	-24.77417
1.167	-63.44604
1.1675	-53.97949
1.168	-19.03381
1.1685	-7.5531
1.169	10.77576
1.1695	25.68054
1.17	22.6593
1.1705	17.12036
1.171	6.54602
1.1715	8.56018
1.172	1.91345
1.1725	-15.81116
1.173	-41.79382
1.1735	-62.23755
1.174	-88.72375
1.1745	-90.83862
1.175	-97.38464
1.1755	-90.63721
1.176	-54.38232
1.1765	-23.56567
1.177	-8.15735
1.1775	2.31628
1.178	10.17151
1.1785	6.2439
1.179	-4.02832
1.1795	-15.50903
1.18	-20.44373
1.1805	-24.06921
1.181	-45.52002
1.1815	-46.62781
1.182	-37.7655
1.1825	-19.83948
1.183	-28.09753
1.1835	-27.59399
1.184	-24.27063
1.1845	-19.94019
1.185	-7.25098
1.1855	-5.23682
1.186	22.86072
1.1865	44.41223
1.187	18.32886
1.1875	-22.15576
1.188	-46.5271
1.1885	-45.72144
1.189	-10.57434
1.1895	21.45081
1.19	67.17224
1.1905	113.49792
1.191	150.05493
1.1915	174.52698
1.192	195.07141
1.1925	195.87708
1.193	183.79211
1.1935	143.00537
1.194	115.41138
1.1945	80.06287
1.195	36.55701
1.1955	-26.3855
1.196	-75.12817
1.1965	-99.2981
1.197	-124.77722
1.1975	-155.09033
1.198	-170.70007
1.1985	-155.79529
1.199	-132.22961
1.1995	-118.33191
1.2	-103.32642
1.2005	-83.08411
1.201	-81.87561
1.2015	-74.2218
1.202	-50.45471
1.2025	-27.59399
1.203	-13.797
1.2035	-13.39417
1.204	-9.76868
1.2045	0.90637
1.205	20.74585
1.2055	-16.01257
1.206	-51.15967
1.2065	-41.99524
1.207	-22.45789
1.2075	8.96301
1.208	39.98108
1.2085	66.97083
1.209	87.31384
1.2095	101.01013
1.21	104.4342
1.2105	95.97473
1.211	95.47119
1.2115	93.96057
1.212	74.62463
1.2125	25.78125
1.213	-23.16284
1.2135	-45.52002
1.214	-48.74268
1.2145	-38.47046
1.215	-35.44922
1.2155	-49.34692
1.216	-53.57666
1.2165	-66.76941
1.217	-71.30127
1.2175	-66.46729
1.218	-62.43896
1.2185	-48.54126
1.219	-43.10303
1.2195	-19.13452
1.22	-1.40991
1.2205	18.73169
1.221	39.57825
1.2215	44.61365
1.222	59.61914
1.2225	58.41064
1.223	53.77808
1.2235	61.23047
1.224	69.99207
1.2245	66.97083
1.225	55.59082
1.2255	33.53577
1.226	11.58142
1.2265	-13.797
1.227	-14.09912
1.2275	-11.58142
1.228	-21.14868
1.2285	-36.65771
1.229	-46.5271
1.2295	-47.43347
1.23	-39.17542
1.2305	-31.72302
1.231	-26.3855
1.2315	-15.00549
1.232	-11.78284
1.2325	-11.68213
1.233	3.92761
1.2335	0.90637
1.234	-6.3446
1.2345	-13.797
1.235	-35.95276
1.2355	-44.71436
1.236	-39.37683
1.2365	-30.31311
1.237	-26.58691
1.2375	-18.32886
1.238	-12.38708
1.2385	1.00708
1.239	-0.20142
1.2395	6.14319
1.24	-18.93311
1.2405	-50.45471
1.241	-85.60181
1.2415	-66.46729
1.242	-41.29028
1.2425	-15.91187
1.243	11.58142
1.2435	23.36426
1.244	50.95825
1.2445	58.30994
1.245	34.64355
1.2455	25.37842
1.246	35.65063
1.2465	34.94568
1.247	33.33435
1.2475	30.71594
1.248	44.0094
1.2485	79.35791
1.249	93.55774
1.2495	67.17224
1.25	13.99841
1.2505	-31.52161
1.251	-60.3241
1.2515	-49.95117
1.252	-27.59399
1.2525	-12.5885
1.253	-12.38708
1.2535	-16.3147
1.254	-23.26355
1.2545	-29.20532
1.255	-17.42249
1.2555	-10.0708
1.256	-2.61841
1.2565	2.21558
1.257	16.91895
1.2575	31.82373
1.258	31.92444
1.2585	39.98108
1.259	39.57825
1.2595	40.38391
1.26	36.75842
1.2605	37.26196
1.261	36.85913
1.2615	33.03223
1.262	10.27222
1.2625	10.37292
1.263	-5.33752
1.2635	-25.27771
1.264	-13.69629
1.2645	-2.81982
1.265	-1.10779
1.2655	9.06372
1.266	38.16833
1.2665	53.37524
1.267	42.49878
1.2675	30.01099
1.268	19.33594
1.2685	11.68213
1.269	18.73169
1.2695	44.71436
1.27	52.56958
1.2705	70.3949
1.271	44.51294
1.2715	3.12195
1.272	-11.48071
1.2725	-22.35718
1.273	-41.69312
1.2735	-37.36267
1.274	-20.44373
1.2745	-13.09204
1.275	7.75452
1.2755	14.70337
1.276	13.99841
1.2765	5.53894
1.277	-24.47205
1.2775	-53.97949
1.278	-79.76074
1.2785	-104.13208
1.279	-100.00305
1.2795	-87.01172
1.28	-64.65454
1.2805	-46.62781
1.281	-31.11877
1.2815	-21.24939
1.282	-22.76001
1.2825	-34.84497
1.283	-42.7002
1.2835	-34.84497
1.284	-41.59241
1.2845	-32.62939
1.285	-28.19824
1.2855	-32.62939
1.286	-52.771
1.2865	-67.8772
1.287	-77.34375
1.2875	-62.23755
1.288	-46.02356
1.2885	-24.37134
1.289	-10.0708
1.2895	2.5177
1.29	-2.71912
1.2905	-1.00708
1.291	-1.61133
1.2915	3.22266
1.292	7.65381
1.2925	1.10779
1.293	1.2085
1.2935	-2.31628
1.294	6.94885
1.2945	2.61841
1.295	-9.46655
1.2955	-33.53577
1.296	-42.7002
1.2965	-37.66479
1.297	-29.20532
1.2975	-14.50195
1.298	-6.94885
1.2985	7.04956
1.299	10.0708
1.2995	-5.84106
1.3	-36.65771
1.3005	-74.72534
1.301	-90.13367
1.3015	-85.60181
1.302	-64.35242
1.3025	-46.82922
1.303	-18.22815
1.3035	7.5531
1.304	39.37683
1.3045	66.87012
1.305	87.21313
1.3055	98.0896
1.306	97.08252
1.3065	87.71667
1.307	82.78198
1.3075	79.45862
1.308	73.61755
1.3085	59.82056
1.309	49.44763
1.3095	36.15417
1.31	13.29346
1.3105	-10.17151
1.311	-23.26355
1.3115	-13.89771
1.312	-1.61133
1.3125	17.22107
1.313	35.85205
1.3135	42.29736
1.314	44.41223
1.3145	41.79382
1.315	42.29736
1.3155	35.44922
1.316	34.03931
1.3165	22.25647
1.317	20.84656
1.3175	14.50195
1.318	5.94177
1.3185	-3.92761
1.319	4.22974
1.3195	-4.02832
1.32	-27.29187
1.3205	-37.36267
1.321	-36.4563
1.3215	-19.13452
1.322	-6.44531
1.3225	-12.18567
1.323	-28.29895
1.3235	-20.04089
1.324	-0.90637
1.3245	15.71045
1.325	13.49487
1.3255	3.7262
1.326	-0.20142
1.3265	2.81982
1.327	-1.51062
1.3275	2.11487
1.328	13.69629
1.3285	26.28479
1.329	31.92444
1.3295	39.07471
1.33	27.39258
1.3305	6.44531
1.331	-10.17151
1.3315	-24.47205
1.332	-24.27063
1.3325	9.76868
1.333	41.59241
1.3335	57.30286
1.334	65.25879
1.3345	62.33826
1.335	62.64038
1.3355	51.66321
1.336	25.98267
1.3365	-1.10779
1.337	-14.80408
1.3375	-32.83081
1.338	-32.42798
1.3385	-10.97717
1.339	20.94727
1.3395	26.18408
1.34	9.46655
1.3405	-13.29346
1.341	-19.13452
1.3415	-26.08337
1.342	-32.7301
1.3425	-38.36975
1.343	-39.88037
1.3435	-36.95984
1.344	-39.67896
1.3445	-31.72302
1.345	-20.74585
1.3455	1.00708
1.346	1.40991
1.3465	8.66089
1.347	2.81982
1.3475	-8.25806
1.348	-23.36426
1.3485	-29.00391
1.349	-22.76001
1.3495	-20.34302
1.35	-12.28638
1.3505	-13.29346
1.351	-16.21399
1.3515	-22.05505
1.352	-33.23364
1.3525	-31.32019
1.353	-26.78833
1.3535	-22.96143
1.354	-14.19983
1.3545	-10.57434
1.355	4.73328
1.3555	18.12744
1.356	36.55701
1.3565	41.29028
1.357	62.43896
1.3575	83.78906
1.358	21.55151
1.3585	-48.74268
1.359	-76.23596
1.3595	-81.06995
1.36	-50.85754
1.3605	6.94885
1.361	39.98108
1.3615	43.30444
1.362	50.95825
1.3625	65.86304
1.363	79.35791
1.3635	92.24854
1.364	88.52234
1.3645	67.8772
1.365	47.43347
1.3655	52.67029
1.366	88.82446
1.3665	120.44678
1.367	114.30359
1.3675	104.3335
1.368	104.93774
1.3685	94.2627
1.369	69.99207
1.3695	51.76392
1.37	35.65063
1.3705	25.88196
1.371	18.42957
1.3715	28.70178
1.372	36.85913
1.3725	50.354
1.373	58.61206
1.3735	25.57983
1.374	-5.0354
1.3745	-39.27612
1.375	-51.26038
1.3755	-52.06604
1.376	-77.14233
1.3765	-83.18481
1.377	-72.00623
1.3775	-81.97632
1.378	-113.09509
1.3785	-124.77722
1.379	-99.80164
1.3795	-87.31384
1.38	-76.63879
1.3805	-68.28003
1.381	-43.30444
1.3815	-30.2124
1.382	-15.60974
1.3825	-17.52319
1.383	-19.83948
1.3835	-31.72302
1.384	-41.29028
1.3845	-43.20374
1.385	-37.46338
1.3855	-15.50903
1.386	2.21558
1.3865	13.69629
1.387	20.84656
1.3875	20.54443
1.388	16.01257
1.3885	9.97009
1.389	1.3092
1.3895	-14.30054
1.39	-16.71753
1.3905	-14.30054
1.391	-5.63965
1.3915	6.44531
1.392	4.33044
1.3925	1.71204
1.393	-15.81116
1.3935	-24.97559
1.394	-25.68054
1.3945	-25.27771
1.395	-28.39966
1.3955	-30.61523
1.396	-9.36584
1.3965	18.93311
1.397	45.3186
1.3975	64.35242
1.398	74.72534
1.3985	80.16357
1.399	78.85437
1.3995	76.43738
1.4	66.97083
1.4005	59.71985
1.401	50.75684
1.4015	32.93152
1.402	18.22815
1.4025	7.25098
1.403	-3.7262
1.4035	-6.84814
1.404	-8.45947
1.4045	-0.90637
1.405	17.32178
1.4055	27.6947
1.406	44.21082
1.4065	50.75684
1.407	53.77808
1.4075	51.46179
1.408	45.11719
1.4085	45.52002
1.409	47.7356
1.4095	40.78674
1.41	37.66479
1.4105	35.14709
1.411	32.22656
1.4115	26.3855
1.412	17.42249
1.4125	11.68213
1.413	3.62549
1.4135	-8.96301
1.414	-48.54126
1.4145	-81.97632
1.415	-90.43579
1.4155	-76.33667
1.416	-47.13135
1.4165	-69.1864
1.417	-93.75916
1.4175	-81.37207
1.418	-56.39648
1.4185	4.83398
1.419	77.54517
1.4195	112.99438
1.42	95.16907
1.4205	87.71667
1.421	97.28394
1.4215	119.03687
1.422	146.22803
1.4225	139.88342
1.423	101.11084
1.4235	63.34534
1.424	37.26196
1.4245	14.60266
1.425	5.33752
1.4255	2.92053
1.426	-4.22974
1.4265	-27.49329
1.427	-36.85913
1.4275	-29.10461
1.428	-14.70337
1.4285	-6.94885
1.429	-6.54602
1.4295	-23.96851
1.43	-45.41931
1.4305	-77.84729
1.431	-100.6073
1.4315	-119.64111
1.432	-110.6781
1.4325	-86.40747
1.433	-65.76233
1.4335	-51.15967
1.434	-18.32886
1.4345	22.45789
1.435	59.51843
1.4355	74.12109
1.436	73.41614
1.4365	74.2218
1.437	71.90552
1.4375	48.33984
1.438	51.26038
1.4385	70.99915
1.439	94.56482
1.4395	103.42712
1.44	112.08801
1.4405	114.10217
1.441	97.38464
1.4415	69.1864
1.442	42.39807
1.4425	6.04248
1.443	-39.98108
1.4435	-59.21631
1.444	-74.42322
1.4445	-74.2218
1.445	-60.82764
1.4455	-55.3894
1.446	-58.71277
1.4465	-59.82056
1.447	-64.25171
1.4475	-59.61914
1.448	-49.14551
1.4485	-37.26196
1.449	-39.57825
1.4495	-37.86621
1.45	-27.19116
1.4505	-24.06921
1.451	-12.38708
1.4515	-10.27222
1.452	0.30212
1.4525	9.16443
1.453	12.18567
1.4535	8.05664
1.454	13.09204
1.4545	17.6239
1.455	24.67346
1.4555	35.2478
1.456	43.80798
1.4565	53.27454
1.457	40.58533
1.4575	0
1.458	-17.12036
1.4585	-17.82532
1.459	-12.68921
1.4595	-20.44373
1.46	-8.96301
1.4605	6.3446
1.461	25.27771
1.4615	21.45081
1.462	23.06213
1.4625	-3.02124
1.463	-24.27063
1.4635	-30.81665
1.464	-26.3855
1.4645	-27.99683
1.465	-14.30054
1.4655	-26.28479
1.466	-43.50586
1.4665	-71.50269
1.467	-104.13208
1.4675	-110.57739
1.468	-95.5719
1.4685	-46.42639
1.469	-13.19275
1.4695	15.81116
1.47	32.22656
1.4705	43.30444
1.471	57.9071
1.4715	59.21631
1.472	74.2218
1.4725	65.56091
1.473	56.39648
1.4735	50.85754
1.474	48.23914
1.4745	38.67188
1.475	25.57983
1.4755	1.10779
1.476	-5.33752
1.4765	-18.73169
1.477	-17.6239
1.4775	-1.3092
1.478	16.3147
1.4785	35.75134
1.479	40.68604
1.4795	14.60266
1.48	-40.38391
1.4805	-60.62622
1.481	-52.46887
1.4815	-39.47754
1.482	-15.1062
1.4825	-12.48779
1.483	-8.25806
1.4835	9.16443
1.484	49.85046
1.4845	73.71826
1.485	60.4248
1.4855	20.54443
1.486	-33.13293
1.4865	-76.13525
1.487	-111.48376
1.4875	-119.33899
1.488	-89.22729
1.4885	-47.93701
1.489	-7.35168
1.4895	38.77258
1.49	52.46887
1.4905	72.71118
1.491	102.52075
1.4915	141.79688
1.492	185.20203
1.4925	204.73938
1.493	205.14221
1.4935	194.87
1.494	169.59229
1.4945	131.52466
1.495	90.93933
1.4955	53.77808
1.496	13.99841
1.4965	-43.50586
1.497	-71.50269
1.4975	-66.56799
1.498	-62.64038
1.4985	-48.94409
1.499	-49.64905
1.4995	-49.14551
1.5	-37.06055
1.5005	-13.09204
1.501	5.43823
1.5015	-8.8623
1.502	-59.51843
1.5025	-69.38782
1.503	-89.328
1.5035	-112.49084
1.504	-99.90234
1.5045	-42.59949
1.505	10.57434
1.5055	49.64905
1.506	84.09119
1.5065	113.1958
1.507	121.45386
1.5075	107.65686
1.508	94.2627
1.5085	84.19189
1.509	72.10693
1.5095	55.69153
1.51	21.14868
1.5105	-31.72302
1.511	-97.48535
1.5115	-123.66943
1.512	-101.11084
1.5125	-81.87561
1.513	-91.94641
1.5135	-84.19189
1.514	-49.14551
1.5145	3.8269
1.515	67.57507
1.5155	120.64819
1.516	142.30042
1.5165	148.04077
1.517	127.89917
1.5175	109.87244
1.518	131.32324
1.5185	138.17139
1.519	111.38306
1.5195	74.92676
1.52	5.94177
1.5205	-28.29895
1.521	-48.64197
1.5215	-81.17065
1.522	-99.19739
1.5225	-95.87402
1.523	-76.43738
1.5235	-45.2179
1.524	-17.72461
1.5245	10.77576
1.525	24.16992
1.5255	28.60107
1.526	18.93311
1.5265	-25.27771
1.527	-64.25171
1.5275	-88.22021
1.528	-73.41614
1.5285	-46.72852
1.529	-22.55859
1.5295	-29.60815
1.53	-52.26746
1.5305	-61.83472
1.531	-49.24622
1.5315	-23.16284
1.532	-14.50195
1.5325	0.30212
1.533	4.02832
1.5335	8.8623
1.534	7.45239
1.5345	8.35876
1.535	10.27222
1.5355	8.7616
1.536	-21.65222
1.5365	-55.69153
1.537	-51.5625
1.5375	-35.44922
1.538	-6.84814
1.5385	17.42249
1.539	48.84338
1.5395	75.02747
1.54	112.28943
1.5405	117.32483
1.541	105.44128
1.5415	71.30127
1.542	45.11719
1.5425	4.63257
1.543	-25.47913
1.5435	-23.66638
1.544	-22.76001
1.5445	-32.22656
1.545	-43.50586
1.5455	-72.71118
1.546	-97.98889
1.5465	-94.2627
1.547	-89.22729
1.5475	-60.3241
1.548	-29.80957
1.5485	-24.67346
1.549	-18.63098
1.5495	8.05664
1.55	34.64355
1.5505	62.53967
1.551	91.94641
1.5515	60.12268
1.552	-1.81274
1.5525	-53.17383
1.553	-50.2533
1.5535	-29.40674
1.554	-5.63965
1.5545	27.29187
1.555	55.49011
1.5555	61.53259
1.556	58.91418
1.5565	71.60339
1.557	87.11243
1.5575	82.17773
1.558	79.05579
1.5585	66.06445
1.559	55.89294
1.5595	32.83081
1.56	-2.31628
1.5605	-33.23364
1.561	-59.1156
1.5615	-53.67737
1.562	-23.26355
1.5625	8.8623
1.563	46.62781
1.5635	37.16125
1.564	10.87646
1.5645	14.30054
1.565	34.84497
1.5655	52.8717
1.566	71.09985
1.5665	78.45154
1.567	81.7749
1.5675	72.20764
1.568	61.53259
1.5685	41.18958
1.569	-2.81982
1.5695	-66.97083
1.57	-102.52075
1.5705	-95.16907
1.571	-57.10144
1.5715	-25.57983
1.572	-8.56018
1.5725	-5.63965
1.573	0
1.5735	10.27222
1.574	16.51611
1.5745	9.97009
1.575	-0.50354
1.5755	-10.67505
1.576	-26.58691
1.5765	-38.47046
1.577	-46.02356
1.5775	-57.20215
1.578	-64.95667
1.5785	-60.3241
1.579	-54.88586
1.5795	-56.19507
1.58	-36.95984
1.5805	-31.32019
1.581	-17.32178
1.5815	2.61841
1.582	8.66089
1.5825	16.3147
1.583	22.05505
1.5835	33.43506
1.584	41.08887
1.5845	53.37524
1.585	74.12109
1.5855	73.91968
1.586	63.54675
1.5865	29.30603
1.587	-39.98108
1.5875	-66.26587
1.588	-83.88977
1.5885	-58.30994
1.589	-8.45947
1.5895	7.5531
1.59	42.29736
1.5905	72.81189
1.591	99.90234
1.5915	96.27686
1.592	106.75049
1.5925	105.84412
1.593	106.34766
1.5935	107.35474
1.594	101.61438
1.5945	103.93066
1.595	110.47668
1.5955	119.23828
1.596	106.04553
1.5965	81.47278
1.597	80.4657
1.5975	79.76074
1.598	65.15808
1.5985	41.89453
1.599	28.70178
1.5995	-9.56726
1.6	-41.59241
1.6005	-67.17224
1.601	-80.26428
1.6015	-77.54517
1.602	-92.95349
1.6025	-113.49792
1.603	-119.64111
1.6035	-101.31226
1.604	-92.44995
1.6045	-75.53101
1.605	-65.96375
1.6055	-34.64355
1.606	-12.08496
1.6065	10.27222
1.607	20.74585
1.6075	20.04089
1.608	23.06213
1.6085	36.55701
1.609	28.80249
1.6095	6.14319
1.61	-0.70496
1.6105	-0.90637
1.611	10.87646
1.6115	21.3501
1.612	29.60815
1.6125	1.61133
1.613	-29.50745
1.6135	-40.1825
1.614	-68.98499
1.6145	-95.26978
1.615	-100.40588
1.6155	-87.61597
1.616	-59.1156
1.6165	-26.78833
1.617	10.67505
1.6175	22.55859
1.618	1.81274
1.6185	-37.66479
1.619	-70.99915
1.6195	-67.17224
1.62	-38.06763
1.6205	0.60425
1.621	38.06763
1.6215	82.9834
1.622	137.86926
1.6225	170.29724
1.623	174.22485
1.6235	165.46326
1.624	151.66626
1.6245	82.27844
1.625	12.99133
1.6255	-23.16284
1.626	-20.34302
1.6265	-18.12744
1.627	-24.37134
1.6275	-46.02356
1.628	-53.87878
1.6285	-30.71594
1.629	-20.24231
1.6295	-23.26355
1.63	-27.99683
1.6305	-8.7616
1.631	9.66797
1.6315	28.60107
1.632	39.27612
1.6325	40.68604
1.633	49.85046
1.6335	56.19507
1.634	54.18091
1.6345	12.18567
1.635	-25.177
1.6355	-42.39807
1.636	-37.7655
1.6365	-23.26355
1.637	3.8269
1.6375	23.56567
1.638	53.17383
1.6385	77.14233
1.639	95.37048
1.6395	101.41296
1.64	89.52942
1.6405	88.52234
1.641	76.84021
1.6415	60.4248
1.642	34.24072
1.6425	18.93311
1.643	-11.78284
1.6435	-80.66711
1.644	-113.29651
1.6445	-114.80713
1.645	-86.70959
1.6455	-47.63489
1.646	-5.63965
1.6465	31.21948
1.647	57.00073
1.6475	58.71277
1.648	42.09595
1.6485	32.52869
1.649	27.39258
1.6495	22.86072
1.65	29.20532
1.6505	31.62231
1.651	22.6593
1.6515	32.02515
1.652	50.2533
1.6525	54.38232
1.653	38.16833
1.6535	9.56726
1.654	-3.8269
1.6545	-13.59558
1.655	-24.57275
1.6555	-22.96143
1.656	-35.95276
1.6565	-35.44922
1.657	-40.48462
1.6575	-51.36108
1.658	-58.20923
1.6585	-56.79932
1.659	-50.55542
1.6595	-43.80798
1.66	-72.00623
1.6605	-75.12817
1.661	-52.36816
1.6615	-20.54443
1.662	-1.00708
1.6625	9.16443
1.663	13.09204
1.6635	11.38
1.664	9.36584
1.6645	4.73328
1.665	4.22974
1.6655	-5.23682
1.666	-10.37292
1.6665	-17.42249
1.667	-11.17859
1.6675	0.50354
1.668	16.61682
1.6685	25.88196
1.669	15.81116
1.6695	7.35168
1.67	1.40991
1.6705	5.84106
1.671	8.8623
1.6715	12.5885
1.672	25.07629
1.6725	32.52869
1.673	32.02515
1.6735	19.23523
1.674	13.59558
1.6745	14.60266
1.675	21.3501
1.6755	17.32178
1.676	31.32019
1.6765	46.22498
1.677	61.02905
1.6775	78.45154
1.678	76.53809
1.6785	77.14233
1.679	72.81189
1.6795	74.52393
1.68	57.9071
1.6805	57.70569
1.681	40.68604
1.6815	38.47046
1.682	40.1825
1.6825	32.62939
1.683	35.75134
1.6835	23.76709
1.684	19.53735
1.6845	7.15027
1.685	0.90637
1.6855	-1.81274
1.686	4.12903
1.6865	8.15735
1.687	21.04797
1.6875	28.50037
1.688	28.9032
1.6885	31.82373
1.689	29.80957
1.6895	20.84656
1.69	14.50195
1.6905	7.15027
1.691	4.63257
1.6915	-2.21558
1.692	-1.71204
1.6925	-5.84106
1.693	-13.99841
1.6935	-16.61682
1.694	-27.49329
1.6945	-32.22656
1.695	-33.23364
1.6955	-28.29895
1.696	-14.80408
1.6965	-8.7616
1.697	4.93469
1.6975	2.21558
1.698	4.63257
1.6985	10.67505
1.699	17.42249
1.6995	25.68054
1.7	23.56567
1.7005	16.3147
1.701	19.13452
1.7015	13.49487
1.702	18.63098
1.7025	27.6947
1.703	35.65063
1.7035	30.71594
1.704	27.79541
1.7045	23.06213
1.705	20.94727
1.7055	19.23523
1.706	20.34302
1.7065	23.96851
1.707	16.91895
1.7075	-3.42407
1.708	-18.42957
1.7085	-25.57983
1.709	-19.94019
1.7095	-15.30762
1.71	-2.01416
1.7105	-11.48071
1.711	-28.60107
1.7115	-26.08337
1.712	-8.45947
1.7125	20.34302
1.713	44.11011
1.7135	68.78357
1.714	77.14233
1.7145	81.37207
1.715	91.24146
1.7155	73.01331
1.716	29.10461
1.7165	13.797
1.717	3.42407
1.7175	0.90637
1.718	9.16443
1.7185	14.60266
1.719	7.65381
1.7195	11.48071
1.72	19.03381
1.7205	18.53027
1.721	21.45081
1.7215	13.09204
1.722	12.99133
1.7225	18.8324
1.723	18.12744
1.7235	22.96143
1.724	37.86621
1.7245	47.33276
1.725	55.59082
1.7255	53.87878
1.726	45.62073
1.7265	30.71594
1.727	-12.18567
1.7275	-35.95276
1.728	-41.79382
1.7285	-44.81506
1.729	-61.02905
1.7295	-120.64819
1.73	-167.88025
1.7305	-173.72131
1.731	-170.09583
1.7315	-138.07068
1.732	-75.12817
1.7325	-11.78284
1.733	58.00781
1.7335	107.25403
1.734	128.40271
1.7345	156.80237
1.735	196.27991
1.7355	216.22009
1.736	197.99194
1.7365	160.22644
1.737	122.46094
1.7375	71.20056
1.738	19.63806
1.7385	-18.8324
1.739	-36.35559
1.7395	-58.30994
1.74	-83.08411
1.7405	-95.97473
1.741	-82.07703
1.7415	-51.05896
1.742	-38.36975
1.7425	-20.44373
1.743	-5.13611
1.7435	6.3446
1.744	-7.85522
1.7445	1.91345
1.745	29.40674
1.7455	55.3894
1.746	63.94958
1.7465	73.91968
1.747	82.07703
1.7475	93.85986
1.748	77.948
1.7485	58.91418
1.749	49.34692
1.7495	25.07629
1.75	8.7616
1.7505	-0.10071
1.751	-25.98267
1.7515	-27.99683
1.752	-17.22107
1.7525	-14.19983
1.753	-19.33594
1.7535	-33.9386
1.754	-70.59631
1.7545	-85.40039
1.755	-84.79614
1.7555	-77.948
1.756	-68.48145
1.7565	-44.21082
1.757	-3.8269
1.7575	33.43506
1.758	53.67737
1.7585	62.13684
1.759	62.53967
1.7595	50.75684
1.76	41.39099
1.7605	45.41931
1.761	55.3894
1.7615	37.26196
1.762	10.87646
1.7625	-3.02124
1.763	-12.08496
1.7635	-23.36426
1.764	-11.68213
1.7645	-14.60266
1.765	-1.10779
1.7655	1.61133
1.766	8.25806
1.7665	24.67346
1.767	45.92285
1.7675	61.23047
1.768	61.73401
1.7685	52.56958
1.769	41.4917
1.7695	12.18567
1.77	4.02832
1.7705	-14.90479
1.771	-32.62939
1.7715	-43.20374
1.772	-52.97241
1.7725	-53.47595
1.773	-53.37524
1.7735	-50.354
1.774	-41.39099
1.7745	-31.92444
1.775	-22.86072
1.7755	-18.73169
1.776	-12.18567
1.7765	-6.2439
1.777	-4.53186
1.7775	-2.81982
1.778	10.17151
1.7785	18.93311
1.779	25.07629
1.7795	11.58142
1.78	-38.87329
1.7805	-135.65369
1.781	-225.18311
1.7815	-307.05872
1.782	-364.96582
1.7825	-356.40564
1.783	-295.27588
1.7835	-228.9093
1.784	-146.32874
1.7845	-51.5625
1.785	52.771
1.7855	161.13281
1.786	229.11072
1.7865	271.10596
1.787	274.83215
1.7875	291.04614
1.788	295.77942
1.7885	296.28296
1.789	310.18066
1.7895	309.57642
1.79	290.64331
1.7905	267.78259
1.791	208.56628
1.7915	141.59546
1.792	71.30127
1.7925	14.50195
1.793	-15.60974
1.7935	-40.38391
1.794	-34.44214
1.7945	-26.18408
1.795	-7.15027
1.7955	-6.04248
1.796	-11.48071
1.7965	-29.30603
1.797	-62.43896
1.7975	-71.60339
1.798	-53.57666
1.7985	-51.26038
1.799	-37.06055
1.7995	-33.9386
1.8	-17.42249
1.8005	-25.57983
1.801	-39.27612
1.8015	-58.71277
1.802	-75.63171
1.8025	-73.51685
1.803	-59.21631
1.8035	-20.74585
1.804	6.44531
1.8045	26.48621
1.805	39.07471
1.8055	42.59949
1.806	51.66321
1.8065	60.02197
1.807	62.74109
1.8075	6.44531
1.808	-26.28479
1.8085	2.21558
1.809	51.5625
1.8095	96.98181
1.81	137.16431
1.8105	172.41211
1.811	190.23743
1.8115	192.05017
1.812	198.49548
1.8125	186.1084
1.813	167.77954
1.8135	137.26501
1.814	106.75049
1.8145	49.85046
1.815	-49.0448
1.8155	-111.48376
1.816	-142.19971
1.8165	-169.59229
1.817	-185.80627
1.8175	-161.0321
1.818	-122.25952
1.8185	-88.42163
1.819	-58.30994
1.8195	-71.09985
1.82	-77.84729
1.8205	-66.56799
1.821	-47.93701
1.8215	-41.29028
1.822	-49.85046
1.8225	-39.07471
1.823	-17.72461
1.8235	-3.92761
1.824	7.5531
1.8245	24.16992
1.825	28.09753
1.8255	9.97009
1.826	-18.22815
1.8265	-54.48303
1.827	-82.47986
1.8275	-98.69385
1.828	-79.66003
1.8285	-48.44055
1.829	-6.54602
1.8295	27.99683
1.83	58.71277
1.8305	88.62305
1.831	89.63013
1.8315	53.17383
1.832	-9.86938
1.8325	-112.49084
1.833	-142.80396
1.8335	-160.72998
1.834	-138.87634
1.8345	-100.20447
1.835	-40.98816
1.8355	25.57983
1.836	103.22571
1.8365	165.26184
1.837	203.93372
1.8375	229.11072
1.838	222.66541
1.8385	219.54346
1.839	210.88257
1.8395	192.85583
1.84	161.93848
1.8405	127.49634
1.841	83.38623
1.8415	40.1825
1.842	-17.72461
1.8425	-41.39099
1.843	-58.61206
1.8435	-76.53809
1.844	-80.26428
1.8445	-74.82605
1.845	-82.68127
1.8455	-84.49402
1.846	-74.82605
1.8465	-65.15808
1.847	-45.72144
1.8475	-50.15259
1.848	-61.02905
1.8485	-57.30286
1.849	-52.771
1.8495	-27.6947
1.85	-3.7262
1.8505	15.1062
1.851	20.84656
1.8515	26.58691
1.852	30.2124
1.8525	11.38
1.853	-42.7002
1.8535	-68.48145
1.854	-66.16516
1.8545	-53.37524
1.855	-45.2179
1.8555	-43.50586
1.856	-22.45789
1.8565	12.48779
1.857	53.87878
1.8575	95.77332
1.858	115.61279
1.8585	131.92749
1.859	125.68359
1.8595	111.48376
1.86	102.62146
1.8605	105.6427
1.861	102.01721
1.8615	77.74658
1.862	42.90161
1.8625	10.77576
1.863	-0.10071
1.8635	7.85522
1.864	1.40991
1.8645	-23.96851
1.865	-22.15576
1.8655	-4.33044
1.866	4.53186
1.8665	5.33752
1.867	-4.63257
1.8675	-14.50195
1.868	-21.14868
1.8685	-26.08337
1.869	-36.4563
1.8695	-39.27612
1.87	-39.98108
1.8705	-41.79382
1.871	-40.48462
1.8715	-45.92285
1.872	-48.84338
1.8725	-51.05896
1.873	-55.18799
1.8735	-52.26746
1.874	-45.41931
1.8745	-31.11877
1.875	-19.33594
1.8755	-22.55859
1.876	-18.02673
1.8765	-4.33044
1.877	8.05664
1.8775	14.40125
1.878	15.71045
1.8785	17.12036
1.879	10.57434
1.8795	5.13611
1.88	8.56018
1.8805	8.35876
1.881	3.92761
1.8815	0.70496
1.882	-17.52319
1.8825	-21.75293
1.883	-27.49329
1.8835	-32.42798
1.884	-20.04089
1.8845	-3.42407
1.885	19.83948
1.8855	40.1825
1.886	8.15735
1.8865	-69.08569
1.887	-123.87085
1.8875	-146.42944
1.888	-113.90076
1.8885	-57.40356
1.889	-20.04089
1.8895	0.40283
1.89	-5.13611
1.8905	-1.3092
1.891	17.01965
1.8915	46.32568
1.892	90.33508
1.8925	131.42395
1.893	148.94714
1.8935	160.72998
1.894	171.0022
1.8945	164.45618
1.895	152.47192
1.8955	102.52075
1.896	41.39099
1.8965	8.96301
1.897	-17.01965
1.8975	-30.01099
1.898	-22.6593
1.8985	-7.45239
1.899	-0.90637
1.8995	0.10071
1.9	6.64673
1.9005	3.12195
1.901	-18.42957
1.9015	-40.98816
1.902	-35.65063
1.9025	-68.68286
1.903	-112.99438
1.9035	-133.74023
1.904	-123.77014
1.9045	-107.55615
1.905	-95.5719
1.9055	-70.19348
1.906	-30.01099
1.9065	-2.01416
1.907	30.2124
1.9075	44.61365
1.908	60.92834
1.9085	85.09827
1.909	118.33191
1.9095	122.56165
1.91	137.56714
1.9105	141.99829
1.911	133.94165
1.9115	113.1958
1.912	86.8103
1.9125	75.73242
1.913	71.30127
1.9135	60.22339
1.914	47.53418
1.9145	-0.50354
1.915	-27.29187
1.9155	-43.70728
1.916	-44.61365
1.9165	-38.974
1.917	-29.70886
1.9175	-3.52478
1.918	21.75293
1.9185	34.14001
1.919	36.35559
1.9195	41.08887
1.92	43.20374
1.9205	39.88037
1.921	40.68604
1.9215	39.67896
1.922	39.67896
1.9225	43.90869
1.923	42.59949
1.9235	36.35559
1.924	16.71753
1.9245	-1.71204
1.925	-28.50037
1.9255	-45.11719
1.926	-49.34692
1.9265	-53.07312
1.927	-41.59241
1.9275	-34.34143
1.928	-25.27771
1.9285	-19.33594
1.929	-16.91895
1.9295	-13.19275
1.93	-16.51611
1.9305	-29.91028
1.931	-28.80249
1.9315	-31.32019
1.932	-55.99365
1.9325	-68.38074
1.933	-72.40906
1.9335	-65.86304
1.934	-57.60498
1.9345	-48.33984
1.935	-32.52869
1.9355	-25.37842
1.936	-18.63098
1.9365	-17.32178
1.937	-2.71912
1.9375	14.80408
1.938	10.57434
1.9385	8.25806
1.939	12.5885
1.9395	21.85364
1.94	4.73328
1.9405	7.25098
1.941	23.96851
1.9415	50.45471
1.942	71.40198
1.9425	88.42163
1.943	102.62146
1.9435	114.70642
1.944	117.22412
1.9445	107.55615
1.945	93.55774
1.9455	36.65771
1.946	-27.29187
1.9465	-83.68835
1.947	-127.09351
1.9475	-187.11548
1.948	-221.55762
1.9485	-220.047
1.949	-229.81567
1.9495	-241.4978
1.95	-208.96912
1.9505	-160.62927
1.951	-110.17456
1.9515	-37.66479
1.952	6.04248
1.9525	43.70728
1.953	84.09119
1.9535	128.60413
1.954	170.90149
1.9545	186.51123
1.955	187.4176
1.9555	183.28857
1.956	169.49158
1.9565	168.28308
1.957	158.91724
1.9575	132.83386
1.958	105.6427
1.9585	92.24854
1.959	60.62622
1.9595	35.85205
1.96	17.12036
1.9605	-8.7616
1.961	-86.10535
1.9615	-105.34058
1.962	-98.99597
1.9625	-70.09277
1.963	-42.49878
1.9635	-20.34302
1.964	-6.04248
1.9645	15.40833
1.965	28.60107
1.9655	28.70178
1.966	0.20142
1.9665	-16.41541
1.967	-11.17859
1.9675	-4.53186
1.968	9.26514
1.9685	17.52319
1.969	41.4917
1.9695	8.15735
1.97	-24.06921
1.9705	-37.46338
1.971	-37.86621
1.9715	-53.67737
1.972	-60.72693
1.9725	-61.02905
1.973	-50.95825
1.9735	-16.41541
1.974	31.4209
1.9745	68.78357
1.975	75.93384
1.9755	78.25012
1.976	73.21472
1.9765	64.75525
1.977	71.20056
1.9775	84.09119
1.978	86.20605
1.9785	90.13367
1.979	78.25012
1.9795	60.82764
1.98	55.08728
1.9805	44.61365
1.981	33.63647
1.9815	24.37134
1.982	7.85522
1.9825	0.70496
1.983	-4.63257
1.9835	-15.30762
1.984	-36.55701
1.9845	-44.91577
1.985	-28.50037
1.9855	-7.75452
1.986	-1.71204
1.9865	-5.43823
1.987	-17.22107
1.9875	-17.72461
1.988	-23.46497
1.9885	-23.06213
1.989	-24.27063
1.9895	-21.65222
1.99	-23.26355
1.9905	-15.91187
1.991	-11.58142
1.9915	-19.83948
1.992	-54.48303
1.9925	-75.22888
1.993	-72.9126
1.9935	-79.15649
1.994	-75.63171
1.9945	-59.1156
1.995	-39.98108
1.9955	-12.89062
1.996	14.60266
1.9965	43.60657
1.997	67.8772
1.9975	81.37207
1.998	88.22021
1.9985	72.71118
1.999	71.30127
1.9995	69.1864
2	60.3241
2.0005	36.25488
2.001	24.67346
2.0015	25.98267
2.002	18.8324
2.0025	-17.52319
2.003	-40.68604
2.0035	-51.76392
2.004	-49.95117
2.0045	-41.4917
2.005	-98.19031
2.0055	-176.84326
2.006	-195.97778
2.0065	-171.30432
2.007	-133.74023
2.0075	-78.55225
2.008	-27.19116
2.0085	13.99841
2.009	51.96533
2.0095	86.50818
2.01	107.45544
2.0105	116.922
2.011	109.57031
2.0115	103.02429
2.012	105.6427
2.0125	94.06128
2.013	91.64429
2.0135	81.87561
2.014	63.14392
2.0145	22.45789
2.015	-15.71045
2.0155	-74.32251
2.016	-107.35474
2.0165	-117.52625
2.017	-123.56873
2.0175	-114.4043
2.018	-96.7804
2.0185	-75.93384
2.019	-68.78357
2.0195	-57.9071
2.02	-42.09595
2.0205	-14.40125
2.021	7.5531
2.0215	-32.42798
2.022	-45.72144
2.0225	-35.14709
2.023	-11.17859
2.0235	-4.73328
2.024	-30.11169
2.0245	-35.04639
2.025	-7.35168
2.0255	23.46497
2.026	42.49878
2.0265	53.87878
2.027	62.43896
2.0275	102.82288
2.028	125.68359
2.0285	137.46643
2.029	126.89209
2.0295	121.85669
2.03	117.72766
2.0305	111.9873
2.031	99.3988
2.0315	91.14075
2.032	86.10535
2.0325	75.73242
2.033	52.06604
2.0335	34.64355
2.034	21.04797
2.0345	12.28638
2.035	8.7616
2.0355	20.24231
2.036	17.42249
2.0365	-8.8623
2.037	-23.8678
2.0375	-13.39417
2.038	-12.28638
2.0385	-7.5531
2.039	3.22266
2.0395	12.5885
2.04	20.34302
2.0405	28.70178
2.041	26.78833
2.0415	35.34851
2.042	23.26355
2.0425	10.47363
2.043	-6.14319
2.0435	-21.55151
2.044	-37.36267
2.0445	-57.20215
2.045	-101.71509
2.0455	-150.65918
2.046	-147.73865
2.0465	-111.48376
2.047	-71.7041
2.0475	-29.20532
2.048	4.83398
2.0485	35.04639
2.049	50.15259
2.0495	53.17383
2.05	55.79224
2.0505	48.64197
2.051	40.78674
2.0515	33.43506
2.052	40.48462
2.0525	53.87878
2.053	52.771
2.0535	38.16833
2.054	30.81665
2.0545	30.2124
2.055	20.64514
2.0555	-1.3092
2.056	-14.90479
2.0565	-18.12744
2.057	-20.1416
2.0575	-6.44531
2.058	-8.05664
2.0585	-18.02673
2.059	-39.88037
2.0595	-43.50586
2.06	-49.85046
2.0605	-32.7301
2.061	-12.99133
2.0615	-5.13611
2.062	9.16443
2.0625	29.30603
2.063	53.77808
2.0635	62.03613
2.064	62.9425
2.0645	56.39648
2.065	52.56958
2.0655	52.67029
2.066	55.18799
2.0665	43.50586
2.067	13.59558
2.0675	-0.10071
2.068	-28.19824
2.0685	-53.57666
2.069	-62.03613
2.0695	-59.01489
2.07	-51.86462
2.0705	-39.47754
2.071	-37.7655
2.0715	-42.49878
2.072	-23.36426
2.0725	-6.84814
2.073	3.92761
2.0735	8.56018
2.074	10.0708
2.0745	-2.61841
2.075	-4.93469
2.0755	-14.90479
2.076	-3.22266
2.0765	6.54602
2.077	16.71753
2.0775	17.32178
2.078	13.49487
2.0785	5.33752
2.079	-3.42407
2.0795	-22.86072
2.08	-32.12585
2.0805	-46.42639
2.081	-43.50586
2.0815	-25.78125
2.082	-8.15735
2.0825	3.8269
2.083	11.2793
2.0835	12.99133
2.084	9.86938
2.0845	-2.71912
2.085	-22.76001
2.0855	-22.96143
2.086	-14.09912
2.0865	-7.25098
2.087	11.78284
2.0875	18.32886
2.088	24.47205
2.0885	26.3855
2.089	26.48621
2.0895	40.58533
2.09	55.99365
2.0905	42.39807
2.091	-18.02673
2.0915	-60.3241
2.092	-67.47437
2.0925	-62.64038
2.093	-41.69312
2.0935	-19.13452
2.094	-5.13611
2.0945	1.00708
2.095	25.57983
2.0955	43.20374
2.096	47.93701
2.0965	39.77966
2.097	14.19983
2.0975	-1.51062
2.098	0
2.0985	-6.04248
2.099	4.12903
2.0995	12.68921
2.1	23.76709
2.1005	28.50037
2.101	24.57275
2.1015	16.91895
2.102	10.17151
2.1025	4.12903
2.103	1.2085
2.1035	-48.84338
2.104	-80.56641
2.1045	-74.62463
2.105	-55.79224
2.1055	-37.7655
2.106	-41.69312
2.1065	-46.62781
2.107	-30.11169
2.1075	-4.43115
2.108	21.14868
2.1085	32.32727
2.109	43.10303
2.1095	48.54126
2.11	46.02356
2.1105	41.4917
2.111	44.21082
2.1115	57.60498
2.112	66.46729
2.1125	63.84888
2.113	59.92126
2.1135	60.92834
2.114	61.73401
2.1145	58.41064
2.115	55.2887
2.1155	36.05347
2.116	1.40991
2.1165	-19.03381
2.117	-37.7655
2.1175	-48.23914
2.118	-43.80798
2.1185	-32.83081
2.119	-26.58691
2.1195	-13.59558
2.12	-1.71204
2.1205	6.04248
2.121	7.04956
2.1215	0.50354
2.122	-20.44373
2.1225	-61.43188
2.123	-83.78906
2.1235	-71.60339
2.124	-30.11169
2.1245	19.63806
2.125	64.55383
2.1255	112.79297
2.126	152.57263
2.1265	191.1438
2.127	197.58911
2.1275	186.20911
2.128	161.33423
2.1285	119.94324
2.129	78.14941
2.1295	52.8717
2.13	44.81506
2.1305	28.80249
2.131	0.50354
2.1315	-23.66638
2.132	-26.58691
2.1325	-24.06921
2.133	-26.68762
2.1335	-41.59241
2.134	-61.43188
2.1345	-70.59631
2.135	-83.38623
2.1355	-92.85278
2.136	-103.93066
2.1365	-98.99597
2.137	-83.38623
2.1375	-63.44604
2.138	-45.11719
2.1385	-47.43347
2.139	-45.82214
2.1395	-33.03223
2.14	-19.53735
2.1405	3.12195
2.141	14.70337
2.1415	35.14709
2.142	42.90161
2.1425	43.10303
2.143	47.13135
2.1435	66.36658
2.144	75.73242
2.1445	80.86853
2.145	65.3595
2.1455	40.1825
2.146	-0.80566
2.1465	-44.21082
2.147	-60.22339
2.1475	-68.98499
2.148	-76.84021
2.1485	-69.68994
2.149	-47.53418
2.1495	-21.45081
2.15	7.5531
2.1505	22.45789
2.151	28.39966
2.1515	36.65771
2.152	31.32019
2.1525	-2.92053
2.153	-13.89771
2.1535	-7.45239
2.154	9.66797
2.1545	22.15576
2.155	40.48462
2.1555	48.94409
2.156	63.54675
2.1565	70.69702
2.157	84.99756
2.1575	81.67419
2.158	70.49561
2.1585	65.66162
2.159	57.9071
2.1595	49.0448
2.16	38.77258
2.1605	28.60107
2.161	7.65381
2.1615	5.84106
2.162	9.06372
2.1625	-1.40991
2.163	-22.6593
2.1635	-28.39966
2.164	-35.54993
2.1645	-50.15259
2.165	-57.60498
2.1655	-67.67578
2.166	-62.74109
2.1665	-83.99048
2.167	-112.89368
2.1675	-132.12891
2.168	-129.71191
2.1685	-107.45544
2.169	-75.63171
2.1695	-42.8009
2.17	-35.85205
2.1705	-43.30444
2.171	-63.74817
2.1715	-46.12427
2.172	-7.75452
2.1725	25.78125
2.173	44.0094
2.1735	43.60657
2.174	36.15417
2.1745	39.27612
2.175	45.62073
2.1755	55.3894
2.176	63.24463
2.1765	59.41772
2.177	60.4248
2.1775	60.12268
2.178	62.23755
2.1785	45.3186
2.179	-28.19824
2.1795	-56.09436
2.18	-58.10852
2.1805	-45.2179
2.181	-26.18408
2.1815	-10.27222
2.182	8.7616
2.1825	25.57983
2.183	51.46179
2.1835	66.76941
2.184	62.53967
2.1845	57.10144
2.185	36.4563
2.1855	20.44373
2.186	11.88354
2.1865	22.45789
2.187	43.90869
2.1875	52.56958
2.188	78.55225
2.1885	108.56323
2.189	116.61987
2.1895	118.33191
2.19	110.98022
2.1905	96.17615
2.191	84.49402
2.1915	91.8457
2.192	83.68835
2.1925	75.4303
2.193	54.48303
2.1935	36.35559
2.194	31.52161
2.1945	35.04639
2.195	32.02515
2.1955	-1.2085
2.196	-35.44922
2.1965	-46.42639
2.197	-40.48462
2.1975	-31.01807
2.198	-55.89294
2.1985	-82.68127
2.199	-86.40747
2.1995	-84.89685
2.2	-69.68994
2.2005	-54.28162
2.201	-42.09595
2.2015	-19.73877
2.202	-4.22974
2.2025	11.38
2.203	-4.33044
2.2035	-34.14001
2.204	-56.79932
2.2045	-52.771
2.205	-35.04639
2.2055	-26.58691
2.206	-21.85364
2.2065	-36.35559
2.207	-76.43738
2.2075	-90.23438
2.208	-76.23596
2.2085	-55.79224
2.209	-42.19666
2.2095	-7.25098
2.21	36.05347
2.2105	77.34375
2.211	106.54907
2.2115	126.08643
2.212	133.63953
2.2125	141.79688
2.213	145.12024
2.2135	125.98572
2.214	92.95349
2.2145	61.43188
2.215	44.0094
2.2155	20.64514
2.216	-19.73877
2.2165	-47.13135
2.217	-56.5979
2.2175	-59.82056
2.218	-54.48303
2.2185	-54.68445
2.219	-49.24622
2.2195	-45.01648
2.22	-43.50586
2.2205	-44.81506
2.221	-47.33276
2.2215	-39.88037
2.222	-23.56567
2.2225	-15.50903
2.223	-0.30212
2.2235	3.62549
2.224	1.00708
2.2245	2.21558
2.225	-4.53186
2.2255	-29.50745
2.226	-41.08887
2.2265	-36.95984
2.227	-29.20532
2.2275	-14.09912
2.228	-16.3147
2.2285	-10.27222
2.229	-8.96301
2.2295	-29.91028
2.23	-45.41931
2.2305	-52.16675
2.231	-50.95825
2.2315	-48.03772
2.232	-35.75134
2.2325	-40.88745
2.233	-24.57275
2.2335	-15.30762
2.234	4.73328
2.2345	27.09045
2.235	46.02356
2.2355	78.35083
2.236	97.38464
2.2365	108.56323
2.237	107.35474
2.2375	90.93933
2.238	77.04163
2.2385	69.68994
2.239	72.71118
2.2395	65.46021
2.24	52.97241
2.2405	44.51294
2.241	28.80249
2.2415	29.40674
2.242	15.00549
2.2425	-10.17151
2.243	-28.29895
2.2435	-42.59949
2.244	-65.25879
2.2445	-127.89917
2.245	-157.50732
2.2455	-205.84717
2.246	-273.01941
2.2465	-313.80615
2.247	-294.36951
2.2475	-239.88647
2.248	-153.78113
2.2485	-55.49011
2.249	49.14551
2.2495	122.56165
2.25	176.33972
2.2505	201.71814
2.251	222.96753
2.2515	233.23975
2.252	218.43567
2.2525	192.85583
2.253	173.11707
2.2535	150.75989
2.254	121.45386
2.2545	100.70801
2.255	83.18481
2.2555	67.17224
2.256	45.41931
2.2565	12.89062
2.257	-8.15735
2.2575	-26.58691
2.258	-24.87488
2.2585	-14.30054
2.259	-14.30054
2.2595	-5.43823
2.26	9.26514
2.2605	-21.14868
2.261	-52.771
2.2615	-71.60339
2.262	-91.94641
2.2625	-91.24146
2.263	-82.58057
2.2635	-64.25171
2.264	-43.50586
2.2645	-19.53735
2.265	6.54602
2.2655	25.98267
2.266	24.37134
2.2665	24.87488
2.267	18.73169
2.2675	14.90479
2.268	5.43823
2.2685	-2.01416
2.269	-6.2439
2.2695	-15.50903
2.27	-12.5885
2.2705	15.40833
2.271	61.43188
2.2715	74.32251
2.272	68.98499
2.2725	59.21631
2.273	44.91577
2.2735	33.13293
2.274	25.98267
2.2745	28.60107
2.275	14.60266
2.2755	-11.2793
2.276	-56.69861
2.2765	-94.96765
2.277	-104.63562
2.2775	-93.45703
2.278	-77.04163
2.2785	-50.15259
2.279	-12.18567
2.2795	17.52319
2.28	38.47046
2.2805	51.15967
2.281	71.50269
2.2815	77.54517
2.282	89.02588
2.2825	96.07544
2.283	100.00305
2.2835	101.31226
2.284	92.85278
2.2845	71.09985
2.285	49.85046
2.2855	39.88037
2.286	27.99683
2.2865	21.85364
2.287	18.63098
2.2875	21.14868
2.288	15.91187
2.2885	7.65381
2.289	-2.71912
2.2895	-10.87646
2.29	-34.74426
2.2905	-34.64355
2.291	-16.91895
2.2915	-17.12036
2.292	-28.09753
2.2925	-34.34143
2.293	-44.41223
2.2935	-53.47595
2.294	-45.62073
2.2945	-31.32019
2.295	-14.80408
2.2955	-11.38
2.296	-0.40283
2.2965	-0.80566
2.297	-3.62549
2.2975	-21.95435
2.298	-23.76709
2.2985	-25.68054
2.299	-46.82922
2.2995	-59.1156
2.3	-80.36499
2.3005	-92.34924
2.301	-82.88269
2.3015	-56.19507
2.302	-73.01331
2.3025	-64.75525
2.303	-46.42639
2.3035	-10.0708
2.304	32.7301
2.3045	59.71985
2.305	79.2572
2.3055	85.09827
2.306	93.45703
2.3065	100.70801
2.307	103.93066
2.3075	92.24854
2.308	67.37366
2.3085	58.30994
2.309	63.34534
2.3095	68.88428
2.31	66.36658
2.3105	29.91028
2.311	-10.17151
2.3115	-50.354
2.312	-87.01172
2.3125	-90.83862
2.313	-74.82605
2.3135	-57.70569
2.314	-41.69312
2.3145	-40.1825
2.315	-63.54675
2.3155	-89.63013
2.316	-71.90552
2.3165	-119.54041
2.317	-155.29175
2.3175	-161.33423
2.318	-125.18005
2.3185	-68.78357
2.319	-7.85522
2.3195	46.42639
2.32	96.67969
2.3205	130.01404
2.321	172.51282
2.3215	196.98486
2.322	196.27991
2.3225	180.56946
2.323	146.42944
2.3235	124.17297
2.324	109.57031
2.3245	110.47668
2.325	90.83862
2.3255	69.28711
2.326	56.69861
2.3265	46.82922
2.327	39.37683
2.3275	30.81665
2.328	17.01965
2.3285	11.58142
2.329	9.36584
2.3295	3.8269
2.33	-7.65381
2.3305	-10.77576
2.331	-2.61841
2.3315	-14.19983
2.332	-18.8324
2.3325	-30.81665
2.333	-33.43506
2.3335	-15.1062
2.334	-8.56018
2.3345	-6.84814
2.335	-5.63965
2.3355	-13.09204
2.336	-9.26514
2.3365	-11.98425
2.337	3.22266
2.3375	19.13452
2.338	29.70886
2.3385	26.3855
2.339	6.44531
2.3395	-28.60107
2.34	-77.44446
2.3405	-94.06128
2.341	-88.62305
2.3415	-74.72534
2.342	-82.78198
2.3425	-96.7804
2.343	-80.86853
2.3435	-28.09753
2.344	14.09912
2.3445	34.03931
2.345	31.01807
2.3455	17.22107
2.346	13.59558
2.3465	11.88354
2.347	27.19116
2.3475	31.01807
2.348	31.92444
2.3485	26.18408
2.349	23.56567
2.3495	4.33044
2.35	-4.73328
2.3505	-5.74036
2.351	-8.56018
2.3515	-9.46655
2.352	6.04248
2.3525	13.797
2.353	22.05505
2.3535	11.07788
2.354	-23.36426
2.3545	-44.11011
2.355	-56.09436
2.3555	-69.79065
2.356	-72.61047
2.3565	-73.91968
2.357	-70.59631
2.3575	-54.48303
2.358	-29.50745
2.3585	0.60425
2.359	29.10461
2.3595	41.89453
2.36	53.27454
2.3605	44.0094
2.361	42.7002
2.3615	52.16675
2.362	57.8064
2.3625	56.29578
2.363	-8.25806
2.3635	-58.51135
2.364	-72.50977
2.3645	-67.77649
2.365	-60.52551
2.3655	-49.34692
2.366	-4.22974
2.3665	41.69312
2.367	80.4657
2.3675	92.24854
2.368	51.5625
2.3685	29.20532
2.369	15.71045
2.3695	13.49487
2.37	16.01257
2.3705	16.11328
2.371	6.64673
2.3715	17.01965
2.372	29.60815
2.3725	25.177
2.373	26.58691
2.3735	29.60815
2.374	24.97559
2.3745	33.83789
2.375	49.54834
2.3755	71.90552
2.376	84.19189
2.3765	88.42163
2.377	81.57349
2.3775	68.38074
2.378	52.56958
2.3785	46.82922
2.379	41.39099
2.3795	41.79382
2.38	39.98108
2.3805	27.89612
2.381	2.71912
2.3815	-13.99841
2.382	-34.14001
2.3825	-48.84338
2.383	-56.69861
2.3835	-65.76233
2.384	-73.11401
2.3845	-70.59631
2.385	-50.2533
2.3855	-33.63647
2.386	-17.12036
2.3865	3.52478
2.387	21.55151
2.3875	37.86621
2.388	32.83081
2.3885	14.19983
2.389	19.03381
2.3895	32.62939
2.39	46.5271
2.3905	38.57117
2.391	29.70886
2.3915	24.47205
2.392	15.30762
2.3925	11.07788
2.393	3.7262
2.3935	-13.99841
2.394	-35.44922
2.3945	-87.31384
2.395	-109.77173
2.3955	-112.28943
2.396	-91.54358
2.3965	-72.10693
2.397	-28.50037
2.3975	-4.33044
2.398	25.57983
2.3985	42.8009
2.399	48.33984
2.3995	42.90161
2.4	25.68054
2.4005	22.96143
2.401	27.39258
2.4015	15.1062
2.402	5.74036
2.4025	-7.35168
2.403	-10.47363
2.4035	-15.91187
2.404	-23.8678
2.4045	-20.04089
2.405	-10.87646
2.4055	6.84814
2.406	18.02673
2.4065	38.57117
2.407	65.76233
2.4075	91.745
2.408	99.70093
2.4085	104.83704
2.409	93.65845
2.4095	76.84021
2.41	56.19507
2.4105	33.03223
2.411	36.35559
2.4115	27.89612
2.412	15.81116
2.4125	-4.43115
2.413	-13.99841
2.4135	-3.62549
2.414	3.8269
2.4145	7.25098
2.415	8.56018
2.4155	6.94885
2.416	6.14319
2.4165	4.93469
2.417	-0.30212
2.4175	-2.31628
2.418	-7.5531
2.4185	-19.43665
2.419	-25.57983
2.4195	-24.37134
2.42	-21.85364
2.4205	-19.73877
2.421	-39.27612
2.4215	-57.70569
2.422	-64.25171
2.4225	-61.43188
2.423	-48.03772
2.4235	-30.01099
2.424	-20.54443
2.4245	-16.81824
2.425	-5.94177
2.4255	19.83948
2.426	40.58533
2.4265	56.90002
2.427	72.40906
2.4275	75.53101
2.428	71.20056
2.4285	61.93542
2.429	62.43896
2.4295	48.23914
2.43	44.41223
2.4305	-9.46655
2.431	-62.8418
2.4315	-72.71118
2.432	-82.9834
2.4325	-128.70483
2.433	-148.84644
2.4335	-151.36414
2.434	-143.00537
2.4345	-134.04236
2.435	-112.49084
2.4355	-71.90552
2.436	-53.47595
2.4365	-21.85364
2.437	18.63098
2.4375	54.88586
2.438	93.65845
2.4385	120.14465
2.439	124.07227
2.4395	127.19421
2.44	145.22095
2.4405	174.42627
2.441	173.01636
2.4415	149.45068
2.442	120.84961
2.4425	99.3988
2.443	88.82446
2.4435	80.56641
2.444	63.54675
2.4445	47.63489
2.445	41.29028
2.4455	35.85205
2.446	29.80957
2.4465	10.77576
2.447	-8.8623
2.4475	-15.1062
2.448	-26.68762
2.4485	-47.13135
2.449	-53.37524
2.4495	-43.60657
2.45	-28.19824
2.4505	-30.81665
2.451	-56.19507
2.4515	-57.20215
2.452	-35.75134
2.4525	-21.55151
2.453	-4.73328
2.4535	-4.43115
2.454	0.50354
2.4545	4.12903
2.455	10.0708
2.4555	30.11169
2.456	45.2179
2.4565	48.03772
2.457	37.46338
2.4575	23.06213
2.458	22.96143
2.4585	22.05505
2.459	24.97559
2.4595	28.29895
2.46	34.14001
2.4605	43.60657
2.461	46.42639
2.4615	54.88586
2.462	55.99365
2.4625	53.37524
2.463	48.54126
2.4635	40.38391
2.464	12.78992
2.4645	-1.71204
2.465	2.71912
2.4655	14.40125
2.466	13.49487
2.4665	-2.71912
2.467	-14.80408
2.4675	-13.89771
2.468	-8.25806
2.4685	-8.35876
2.469	2.61841
2.4695	-0.50354
2.47	-21.45081
2.4705	-45.92285
2.471	-81.57349
2.4715	-143.00537
2.472	-158.01086
2.4725	-149.34998
2.473	-118.2312
2.4735	-72.71118
2.474	-40.08179
2.4745	-5.63965
2.475	23.96851
2.4755	34.44214
2.476	33.63647
2.4765	30.31311
2.477	22.96143
2.4775	-2.5177
2.478	-26.68762
2.4785	-28.50037
2.479	-23.56567
2.4795	-17.12036
2.48	-9.86938
2.4805	-17.52319
2.481	-70.59631
2.4815	-91.44287
2.482	-80.76782
2.4825	-41.39099
2.483	3.12195
2.4835	39.77966
2.484	90.33508
2.4845	128.40271
2.485	136.15723
2.4855	103.62854
2.486	63.74817
2.4865	49.44763
2.487	53.27454
2.4875	67.37366
2.488	63.84888
2.4885	65.15808
2.489	60.02197
2.4895	64.45312
2.49	61.23047
2.4905	74.62463
2.491	71.40198
2.4915	41.69312
2.492	7.5531
2.4925	3.22266
2.493	20.64514
2.4935	44.0094
2.494	69.08569
2.4945	86.70959
2.495	87.41455
2.4955	90.73792
2.496	78.35083
2.4965	69.89136
2.497	70.59631
2.4975	70.89844
2.498	56.09436
2.4985	34.44214
2.499	30.91736
2.4995	15.81116
2.5	-54.78516
2.5005	-114.70642
2.501	-154.58679
2.5015	-165.46326
2.502	-172.61353
2.5025	-163.5498
2.503	-136.35864
2.5035	-81.57349
2.504	-26.88904
2.5045	15.81116
2.505	42.09595
2.5055	60.4248
2.506	76.33667
2.5065	79.2572
2.507	72.71118
2.5075	65.76233
2.508	62.53967
2.5085	65.05737
2.509	59.31702
2.5095	41.59241
2.51	33.33435
2.5105	33.9386
2.511	23.26355
2.5115	-1.2085
2.512	-19.33594
2.5125	-4.93469
2.513	8.66089
2.5135	22.6593
2.514	32.93152
2.5145	34.03931
2.515	19.83948
2.5155	2.61841
2.516	-9.66797
2.5165	-21.3501
2.517	-20.34302
2.5175	-21.95435
2.518	-39.17542
2.5185	-72.9126
2.519	-98.59314
2.5195	-102.21863
2.52	-103.82996
2.5205	-93.75916
2.521	-76.23596
2.5215	-43.90869
2.522	-2.21558
2.5225	26.78833
2.523	39.77966
2.5235	52.46887
2.524	64.25171
2.5245	66.46729
2.525	63.84888
2.5255	63.24463
2.526	50.65613
2.5265	36.95984
2.527	44.0094
2.5275	52.36816
2.528	45.92285
2.5285	36.95984
2.529	30.31311
2.5295	34.74426
2.53	40.58533
2.5305	27.6947
2.531	-33.63647
2.5315	-86.20605
2.532	-88.22021
2.5325	-120.64819
2.533	-120.7489
2.5335	-93.65845
2.534	-50.65613
2.5345	-16.61682
2.535	8.56018
2.5355	21.85364
2.536	-3.62549
2.5365	-16.81824
2.537	-4.73328
2.5375	11.78284
2.538	15.20691
2.5385	35.85205
2.539	52.06604
2.5395	74.02039
2.54	106.75049
2.5405	117.52625
2.541	116.11633
2.5415	110.57739
2.542	86.00464
2.5425	61.12976
2.543	50.05188
2.5435	58.10852
2.544	36.95984
2.5445	23.46497
2.545	15.50903
2.5455	16.81824
2.546	14.09912
2.5465	11.88354
2.547	15.00549
2.5475	7.5531
2.548	1.51062
2.5485	-4.73328
2.549	-18.12744
2.5495	-17.6239
2.55	6.74744
2.5505	36.15417
2.551	14.40125
2.5515	-9.97009
2.552	-34.44214
2.5525	-63.54675
2.553	-69.58923
2.5535	-64.95667
2.554	-58.81348
2.5545	-43.70728
2.555	-21.55151
2.5555	-2.11487
2.556	24.27063
2.5565	38.26904
2.557	53.37524
2.5575	65.96375
2.558	70.69702
2.5585	67.07153
2.559	50.95825
2.5595	37.86621
2.56	27.39258
2.5605	16.81824
2.561	2.11487
2.5615	-3.52478
2.562	0
2.5625	6.2439
2.563	13.797
2.5635	18.42957
2.564	11.98425
2.5645	2.11487
2.565	-4.73328
2.5655	-23.46497
2.566	-38.47046
2.5665	-41.08887
2.567	-38.47046
2.5675	-41.18958
2.568	-45.62073
2.5685	-43.90869
2.569	-45.62073
2.5695	-48.13843
2.57	-32.22656
2.5705	-19.43665
2.571	-4.02832
2.5715	12.78992
2.572	1.71204
2.5725	-10.17151
2.573	-7.04956
2.5735	1.00708
2.574	11.17859
2.5745	22.25647
2.575	26.68762
2.5755	35.14709
2.576	51.66321
2.5765	53.57666
2.577	55.08728
2.5775	62.03613
2.578	72.71118
2.5785	62.03613
2.579	27.19116
2.5795	-27.39258
2.58	-55.79224
2.5805	-43.10303
2.581	-38.57117
2.5815	-18.02673
2.582	-10.27222
2.5825	13.99841
2.583	31.82373
2.5835	47.13135
2.584	62.33826
2.5845	81.67419
2.585	82.58057
2.5855	68.48145
2.586	38.974
2.5865	36.65771
2.587	39.98108
2.5875	7.25098
2.588	-22.86072
2.5885	-36.25488
2.589	-27.79541
2.5895	-17.82532
2.59	-14.70337
2.5905	-22.35718
2.591	-18.8324
2.5915	0.50354
2.592	16.01257
2.5925	25.98267
2.593	40.48462
2.5935	54.18091
2.594	55.49011
2.5945	65.96375
2.595	79.55933
2.5955	79.55933
2.596	68.78357
2.5965	39.47754
2.597	17.92603
2.5975	9.66797
2.598	11.17859
2.5985	19.43665
2.599	10.87646
2.5995	-24.87488
2.6	-76.33667
2.6005	-87.61597
2.601	-75.22888
2.6015	-57.00073
2.602	-44.71436
2.6025	-24.37134
2.603	-5.94177
2.6035	-10.57434
2.604	-55.59082
2.6045	-100.6073
2.605	-143.4082
2.6055	-166.97388
2.606	-181.87866
2.6065	-193.25867
2.607	-160.72998
2.6075	-109.77173
2.608	-78.04871
2.6085	-34.64355
2.609	-6.14319
2.6095	12.18567
2.61	41.59241
2.6105	67.37366
2.611	78.45154
2.6115	65.15808
2.612	66.6687
2.6125	86.70959
2.613	116.41846
2.6135	130.01404
2.614	140.18555
2.6145	143.20679
2.615	123.06519
2.6155	92.65137
2.616	74.42322
2.6165	42.49878
2.617	-8.7616
2.6175	-30.31311
2.618	-28.70178
2.6185	-14.70337
2.619	4.83398
2.6195	18.73169
2.62	-8.25806
2.6205	-47.33276
2.621	-63.44604
2.6215	-66.36658
2.622	-36.35559
2.6225	2.21558
2.623	30.51453
2.6235	56.90002
2.624	102.62146
2.6245	109.16748
2.625	110.47668
2.6255	103.32642
2.626	103.02429
2.6265	91.745
2.627	87.11243
2.6275	76.63879
2.628	53.87878
2.6285	33.13293
2.629	13.39417
2.6295	0.10071
2.63	-3.8269
2.6305	-22.55859
2.631	-54.88586
2.6315	-65.86304
2.632	-79.66003
2.6325	-90.93933
2.633	-91.24146
2.6335	-79.2572
2.634	-75.4303
2.6345	-58.61206
2.635	-47.53418
2.6355	-46.02356
2.636	-33.63647
2.6365	-27.49329
2.637	-29.20532
2.6375	-17.92603
2.638	-15.00549
2.6385	-19.83948
2.639	-36.15417
2.6395	-32.7301
2.64	-15.50903
2.6405	5.84106
2.641	18.73169
2.6415	25.88196
2.642	35.2478
2.6425	36.25488
2.643	30.11169
2.6435	24.77417
2.644	18.22815
2.6445	15.91187
2.645	15.30762
2.6455	11.38
2.646	17.42249
2.6465	14.90479
2.647	12.18567
2.6475	15.50903
2.648	-0.20142
2.6485	-9.46655
2.649	-7.95593
2.6495	-8.15735
2.65	-5.84106
2.6505	12.68921
2.651	22.15576
2.6515	23.36426
2.652	30.01099
2.6525	-3.92761
2.653	-59.1156
2.6535	-79.35791
2.654	-94.96765
2.6545	-107.05261
2.655	-94.96765
2.6555	-67.77649
2.656	-38.974
2.6565	-0.20142
2.657	25.47913
2.6575	45.92285
2.658	73.41614
2.6585	107.75757
2.659	125.38147
2.6595	125.88501
2.66	111.48376
2.6605	89.02588
2.661	75.53101
2.6615	70.99915
2.662	64.55383
2.6625	58.51135
2.663	45.01648
2.6635	37.06055
2.664	5.0354
2.6645	-40.2832
2.665	-82.58057
2.6655	-83.18481
2.666	-72.00623
2.6665	-61.73401
2.667	-53.77808
2.6675	-45.2179
2.668	-42.19666
2.6685	-34.64355
2.669	-31.21948
2.6695	-8.96301
2.67	1.71204
2.6705	3.12195
2.671	-26.88904
2.6715	-38.77258
2.672	-33.63647
2.6725	-42.39807
2.673	-74.82605
2.6735	-106.14624
2.674	-120.04395
2.6745	-113.1958
2.675	-88.52234
2.6755	-66.06445
2.676	-37.06055
2.6765	-26.48621
2.677	-17.52319
2.6775	-3.02124
2.678	11.88354
2.6785	24.97559
2.679	35.95276
2.6795	45.62073
2.68	51.36108
2.6805	59.1156
2.681	64.45312
2.6815	56.69861
2.682	60.82764
2.6825	75.53101
2.683	76.43738
2.6835	62.43896
2.684	43.00232
2.6845	23.36426
2.685	34.14001
2.6855	36.75842
2.686	55.18799
2.6865	65.25879
2.687	67.67578
2.6875	76.23596
2.688	72.30835
2.6885	62.43896
2.689	53.07312
2.6895	59.82056
2.69	65.25879
2.6905	62.03613
2.691	83.08411
2.6915	90.93933
2.692	79.55933
2.6925	68.28003
2.693	61.73401
2.6935	53.97949
2.694	37.96692
2.6945	10.67505
2.695	-40.88745
2.6955	-70.29419
2.696	-82.58057
2.6965	-87.41455
2.697	-80.4657
2.6975	-62.9425
2.698	-72.40906
2.6985	-57.50427
2.699	-44.31152
2.6995	-27.29187
2.7	-17.82532
2.7005	-19.83948
2.701	-27.19116
2.7015	-2.11487
2.702	22.45789
2.7025	38.36975
2.703	36.75842
2.7035	54.68445
2.704	73.31543
2.7045	69.28711
2.705	57.9071
2.7055	50.45471
2.706	33.03223
2.7065	13.69629
2.707	23.06213
2.7075	35.14709
2.708	34.14001
2.7085	18.02673
2.709	11.68213
2.7095	2.61841
2.71	3.8269
2.7105	9.06372
2.711	9.86938
2.7115	5.23682
2.712	3.02124
2.7125	-13.69629
2.713	-36.75842
2.7135	-74.32251
2.714	-94.2627
2.7145	-101.31226
2.715	-98.69385
2.7155	-103.72925
2.716	-115.20996
2.7165	-139.27917
2.717	-164.55688
2.7175	-165.26184
2.718	-154.18396
2.7185	-138.3728
2.719	-133.53882
2.7195	-134.14307
2.72	-120.95032
2.7205	-70.69702
2.721	-14.30054
2.7215	39.17542
2.722	93.15491
2.7225	131.12183
2.723	152.27051
2.7235	158.91724
2.724	146.42944
2.7245	143.50891
2.725	148.74573
2.7255	173.72131
2.726	167.47742
2.7265	147.1344
2.727	118.2312
2.7275	93.55774
2.728	52.771
2.7285	3.12195
2.729	-39.27612
2.7295	-53.87878
2.73	-53.37524
2.7305	-48.94409
2.731	-47.93701
2.7315	-83.38623
2.732	-133.3374
2.7325	-152.47192
2.733	-151.26343
2.7335	-120.44678
2.734	-79.96216
2.7345	-45.11719
2.735	-18.73169
2.7355	30.01099
2.736	79.55933
2.7365	115.41138
2.737	133.03528
2.7375	135.75439
2.738	119.4397
2.7385	99.19739
2.739	95.5719
2.7395	100.20447
2.74	91.54358
2.7405	74.52393
2.741	57.8064
2.7415	22.76001
2.742	-3.42407
2.7425	-11.58142
2.743	-21.75293
2.7435	-26.3855
2.744	-23.76709
2.7445	-16.51611
2.745	-20.64514
2.7455	-50.15259
2.746	-91.04004
2.7465	-84.2926
2.747	-66.76941
2.7475	-26.88904
2.748	18.42957
2.7485	56.39648
2.749	81.87561
2.7495	89.52942
2.75	90.13367
2.7505	94.86694
2.751	102.21863
2.7515	84.69543
2.752	-7.85522
2.7525	-75.02747
2.753	-108.1604
2.7535	-102.82288
2.754	-94.76624
2.7545	-83.18481
2.755	-57.70569
2.7555	-26.18408
2.756	0.70496
2.7565	24.06921
2.757	47.7356
2.7575	58.51135
2.758	61.33118
2.7585	41.99524
2.759	30.71594
2.7595	20.44373
2.76	27.79541
2.7605	32.12585
2.761	25.78125
2.7615	3.22266
2.762	-24.06921
2.7625	-46.72852
2.763	-69.38782
2.7635	-85.29968
2.764	-88.11951
2.7645	-59.41772
2.765	-32.62939
2.7655	-18.02673
2.766	-50.65613
2.7665	-116.61987
2.767	-166.26892
2.7675	-166.57104
2.768	-126.18713
2.7685	-74.82605
2.769	-12.78992
2.7695	56.90002
2.77	120.14465
2.7705	175.33264
2.771	213.29956
2.7715	236.05957
2.772	240.28931
2.7725	222.36328
2.773	192.25159
2.7735	144.21387
2.774	100.6073
2.7745	44.71436
2.775	-4.22974
2.7755	-23.8678
2.776	-25.07629
2.7765	-37.46338
2.777	-69.79065
2.7775	-100.40588
2.778	-125.58289
2.7785	-123.06519
2.779	-99.70093
2.7795	-65.05737
2.78	-35.44922
2.7805	-0.90637
2.781	12.5885
2.7815	25.07629
2.782	22.05505
2.7825	4.43115
2.783	-30.31311
2.7835	-104.13208
2.784	-145.22095
2.7845	-148.74573
2.785	-125.68359
2.7855	-86.30676
2.786	-32.83081
2.7865	8.25806
2.787	53.67737
2.7875	84.19189
2.788	103.82996
2.7885	118.63403
2.789	95.37048
2.7895	58.41064
2.79	39.17542
2.7905	43.60657
2.791	30.81665
2.7915	11.98425
2.792	6.04248
2.7925	19.83948
2.793	40.68604
2.7935	63.84888
2.794	89.22729
2.7945	104.83704
2.795	117.02271
2.7955	119.64111
2.796	118.02979
2.7965	105.6427
2.797	89.63013
2.7975	89.63013
2.798	94.06128
2.7985	76.63879
2.799	38.16833
2.7995	12.68921
2.8	-6.14319
2.8005	-18.73169
2.801	-29.30603
2.8015	-37.7655
2.802	-43.40515
2.8025	-54.18091
2.803	-65.96375
2.8035	-64.65454
2.804	-53.17383
2.8045	-47.53418
2.805	-51.36108
2.8055	-62.64038
2.806	-78.65295
2.8065	-84.09119
2.807	-63.14392
2.8075	-33.73718
2.808	-17.32178
2.8085	-8.05664
2.809	-10.17151
2.8095	3.8269
2.81	14.70337
2.8105	14.70337
2.811	17.22107
2.8115	25.47913
2.812	23.16284
2.8125	24.77417
2.813	-1.00708
2.8135	-28.39966
2.814	-34.84497
2.8145	-33.53577
2.815	-24.77417
2.8155	-9.76868
2.816	11.58142
2.8165	27.49329
2.817	44.21082
2.8175	64.45312
2.818	72.61047
2.8185	78.25012
2.819	62.8418
2.8195	45.52002
2.82	25.68054
2.8205	15.91187
2.821	10.97717
2.8215	4.73328
2.822	18.22815
2.8225	31.82373
2.823	30.71594
2.8235	15.60974
2.824	-4.73328
2.8245	-27.39258
2.825	-41.59241
2.8255	-32.83081
2.826	-23.46497
2.8265	-17.42249
2.827	-20.94727
2.8275	-24.27063
2.828	-31.21948
2.8285	-26.3855
2.829	-23.56567
2.8295	-18.02673
2.83	-39.88037
2.8305	-80.86853
2.831	-93.15491
2.8315	-74.2218
2.832	-44.41223
2.8325	-15.40833
2.833	1.3092
2.8335	14.09912
2.834	30.11169
2.8345	61.83472
2.835	70.19348
2.8355	82.37915
2.836	80.66711
2.8365	76.53809
2.837	75.4303
2.8375	79.35791
2.838	62.03613
2.8385	30.61523
2.839	-1.71204
2.8395	-53.57666
2.84	-89.73083
2.8405	-94.06128
2.841	-81.7749
2.8415	-69.08569
2.842	-56.19507
2.8425	-50.05188
2.843	-42.90161
2.8435	-41.99524
2.844	-36.4563
2.8445	-28.60107
2.845	-17.72461
2.8455	10.67505
2.846	32.62939
2.8465	51.96533
2.847	77.44446
2.8475	80.56641
2.848	77.14233
2.8485	68.28003
2.849	62.43896
2.8495	42.7002
2.85	24.16992
2.8505	5.43823
2.851	4.33044
2.8515	4.02832
2.852	-1.71204
2.8525	3.8269
2.853	9.26514
2.8535	3.22266
2.854	-1.2085
2.8545	-54.18091
2.855	-83.99048
2.8555	-101.01013
2.856	-109.97314
2.8565	-107.35474
2.857	-90.5365
2.8575	-88.0188
2.858	-69.79065
2.8585	-37.06055
2.859	-0.60425
2.8595	33.13293
2.86	49.85046
2.8605	71.20056
2.861	84.89685
2.8615	100.40588
2.862	101.21155
2.8625	96.57898
2.863	101.8158
2.8635	100.40588
2.864	94.56482
2.8645	95.87402
2.865	79.96216
2.8655	56.29578
2.866	40.88745
2.8665	20.44373
2.867	5.23682
2.8675	-16.21399
2.868	-32.93152
2.8685	-48.54126
2.869	-59.31702
2.8695	-60.02197
2.87	-45.62073
2.8705	-26.48621
2.871	-3.62549
2.8715	16.01257
2.872	37.16125
2.8725	45.01648
2.873	25.98267
2.8735	13.99841
2.874	-35.2478
2.8745	-37.16125
2.875	-10.77576
2.8755	6.14319
2.876	25.27771
2.8765	51.5625
2.877	72.10693
2.8775	90.43579
2.878	92.55066
2.8785	91.94641
2.879	86.00464
2.8795	76.7395
2.88	59.01489
2.8805	34.84497
2.881	17.22107
2.8815	9.26514
2.882	12.78992
2.8825	31.62231
2.883	38.36975
2.8835	51.5625
2.884	48.33984
2.8845	38.57117
2.885	22.6593
2.8855	10.17151
2.886	2.31628
2.8865	-6.74744
2.887	-21.14868
2.8875	-34.64355
2.888	-42.7002
2.8885	-55.59082
2.889	-67.57507
2.8895	-70.89844
2.89	-62.33826
2.8905	-96.67969
2.891	-130.41687
2.8915	-129.10767
2.892	-107.05261
2.8925	-81.57349
2.893	-58.91418
2.8935	-45.62073
2.894	-32.93152
2.8945	-12.5885
2.895	7.85522
2.8955	17.6239
2.896	27.6947
2.8965	28.9032
2.897	48.74268
2.8975	59.1156
2.898	74.2218
2.8985	76.13525
2.899	68.17932
2.8995	66.06445
2.9	72.81189
2.9005	81.37207
2.901	47.7356
2.9015	8.05664
2.902	2.81982
2.9025	5.0354
2.903	23.66638
2.9035	50.85754
2.904	86.8103
2.9045	98.59314
2.905	84.69543
2.9055	63.74817
2.906	55.59082
2.9065	35.44922
2.907	-0.80566
2.9075	-24.97559
2.908	-68.38074
2.9085	-96.37756
2.909	-110.47668
2.9095	-106.24695
2.91	-98.89526
2.9105	-87.31384
2.911	-76.84021
2.9115	-57.30286
2.912	-66.16516
2.9125	-78.25012
2.913	-83.18481
2.9135	-65.86304
2.914	-33.13293
2.9145	-1.61133
2.915	15.00549
2.9155	22.96143
2.916	31.92444
2.9165	38.16833
2.917	50.65613
2.9175	3.02124
2.918	-45.2179
2.9185	-111.78589
2.919	-166.47034
2.9195	-208.96912
2.92	-214.91089
2.9205	-195.97778
2.921	-157.91016
2.9215	-94.96765
2.922	-20.44373
2.9225	32.02515
2.923	43.70728
2.9235	85.29968
2.924	138.17139
2.9245	176.23901
2.925	205.54504
2.9255	217.02576
2.926	227.6001
2.9265	226.29089
2.927	209.9762
2.9275	204.63867
2.928	199.70398
2.9285	198.19336
2.929	184.19495
2.9295	150.35706
2.93	108.05969
2.9305	69.1864
2.931	41.79382
2.9315	14.19983
2.932	6.94885
2.9325	-2.81982
2.933	-4.63257
2.9335	1.81274
2.934	10.0708
2.9345	15.91187
2.935	10.97717
2.9355	5.23682
2.936	-17.12036
2.9365	-59.01489
2.937	-86.30676
2.9375	-107.25403
2.938	-110.27527
2.9385	-96.27686
2.939	-80.4657
2.9395	-68.17932
2.94	-51.86462
2.9405	-58.30994
2.941	-84.59473
2.9415	-94.46411
2.942	-88.72375
2.9425	-73.61755
2.943	-46.72852
2.9435	-21.14868
2.944	7.85522
2.9445	30.41382
2.945	62.13684
2.9455	93.25562
2.946	111.78589
2.9465	99.49951
2.947	91.64429
2.9475	80.36499
2.948	60.12268
2.9485	30.2124
2.949	22.55859
2.9495	12.48779
2.95	15.20691
2.9505	19.73877
2.951	20.1416
2.9515	25.27771
2.952	48.84338
2.9525	62.74109
2.953	81.17065
2.9535	104.13208
2.954	112.59155
2.9545	120.95032
2.955	106.44836
2.9555	65.15808
2.956	12.28638
2.9565	-36.85913
2.957	-94.06128
2.9575	-125.88501
2.958	-130.01404
2.9585	-123.66943
2.959	-112.28943
2.9595	-91.34216
2.96	-91.14075
2.9605	-97.38464
2.961	-100.50659
2.9615	-67.77649
2.962	-27.89612
2.9625	1.81274
2.963	-2.71912
2.9635	-10.17151
2.964	-15.40833
2.9645	-10.47363
2.965	-5.63965
2.9655	-8.35876
2.966	-9.06372
2.9665	-12.38708
2.967	-13.29346
2.9675	-96.67969
2.968	-146.12732
2.9685	-149.6521
2.969	-135.55298
2.9695	-97.98889
2.97	-53.97949
2.9705	-19.53735
2.971	19.83948
2.9715	63.54675
2.972	96.37756
2.9725	126.08643
2.973	135.65369
2.9735	146.83228
2.974	150.75989
2.9745	154.6875
2.975	161.23352
2.9755	155.39246
2.976	142.80396
2.9765	103.72925
2.977	50.85754
2.9775	-10.67505
2.978	-87.31384
2.9785	-133.3374
2.979	-144.21387
2.9795	-138.3728
2.98	-96.8811
2.9805	-47.8363
2.981	-27.19116
2.9815	-5.53894
2.982	21.24939
2.9825	49.95117
2.983	70.3949
2.9835	90.83862
2.984	96.27686
2.9845	113.59863
2.985	123.66943
2.9855	125.58289
2.986	124.67651
2.9865	100.30518
2.987	71.80481
2.9875	45.52002
2.988	17.72461
2.9885	-14.80408
2.989	-44.11011
2.9895	-49.14551
2.99	-46.92993
2.9905	-33.73718
2.991	-26.58691
2.9915	-20.84656
2.992	-19.23523
2.9925	-9.97009
2.993	11.68213
2.9935	27.59399
2.994	31.32019
2.9945	33.83789
2.995	9.66797
2.9955	-32.02515
2.996	-60.12268
2.9965	-77.34375
2.997	-52.36816
2.9975	-20.1416
2.998	12.18567
2.9985	29.80957
2.999	34.74426
2.9995	28.80249
3	25.68054
3.0005	8.96301
3.001	-4.53186
3.0015	-6.04248
3.002	-3.22266
3.0025	-0.90637
3.003	-7.45239
3.0035	-7.25098
3.004	12.18567
3.0045	25.07629
3.005	25.47913
3.0055	5.94177
3.006	0.80566
3.0065	4.53186
3.007	-3.52478
3.0075	-23.76709
3.008	-29.00391
3.0085	-33.33435
3.009	-51.76392
3.0095	-61.23047
3.01	-61.73401
3.0105	-58.10852
3.011	-41.79382
3.0115	-64.05029
3.012	-87.71667
3.0125	-95.06836
3.013	-76.63879
3.0135	-45.92285
3.014	-9.26514
3.0145	38.06763
3.015	87.31384
3.0155	145.22095
3.016	177.24609
3.0165	179.96521
3.017	184.59778
3.0175	154.78821
3.018	84.09119
3.0185	19.03381
3.019	-57.60498
3.0195	-101.8158
3.02	-111.28235
3.0205	-97.68677
3.021	-56.69861
3.0215	-4.33044
3.022	-3.02124
3.0225	-2.5177
3.023	-1.00708
3.0235	25.37842
3.024	53.77808
3.0245	65.05737
3.025	86.60889
3.0255	92.14783
3.026	103.42712
3.0265	104.83704
3.027	101.61438
3.0275	98.49243
3.028	81.27136
3.0285	48.84338
3.029	31.62231
3.0295	16.71753
3.03	18.02673
3.0305	-1.2085
3.031	0.30212
3.0315	4.53186
3.032	12.5885
3.0325	9.86938
3.033	7.35168
3.0335	0.30212
3.034	-12.68921
3.0345	-28.9032
3.035	-31.32019
3.0355	-32.52869
3.036	-39.77966
3.0365	-49.64905
3.037	-62.43896
3.0375	-55.49011
3.038	-54.68445
3.0385	-53.17383
3.039	-55.18799
3.0395	-55.69153
3.04	-56.69861
3.0405	-51.26038
3.041	-43.20374
3.0415	-28.09753
3.042	-16.81824
3.0425	5.0354
3.043	1.40991
3.0435	-1.81274
3.044	-1.91345
3.0445	2.11487
3.045	5.13611
3.0455	14.30054
3.046	11.2793
3.0465	12.68921
3.047	10.27222
3.0475	22.15576
3.048	32.12585
3.0485	45.2179
3.049	67.17224
3.0495	68.07861
3.05	48.03772
3.0505	-9.86938
3.051	-49.44763
3.0515	-66.87012
3.052	-81.97632
3.0525	-68.78357
3.053	-32.7301
3.0535	-15.20691
3.054	-11.2793
3.0545	-18.32886
3.055	-1.81274
3.0555	14.60266
3.056	27.6947
3.0565	34.94568
3.057	39.67896
3.0575	47.93701
3.058	72.00623
3.0585	67.47437
3.059	24.47205
3.0595	-62.9425
3.06	-133.3374
3.0605	-160.02502
3.061	-135.95581
3.0615	-101.61438
3.062	-56.69861
3.0625	-27.89612
3.063	14.40125
3.0635	53.47595
3.064	79.2572
3.0645	104.3335
3.065	106.9519
3.0655	105.13916
3.066	78.95508
3.0665	50.75684
3.067	19.33594
3.0675	5.53894
3.068	-9.46655
3.0685	-33.43506
3.069	-63.44604
3.0695	-74.32251
3.07	-68.28003
3.0705	-66.97083
3.071	-55.89294
3.0715	-41.89453
3.072	-21.75293
3.0725	14.19983
3.073	59.01489
3.0735	88.32092
3.074	119.03687
3.0745	140.99121
3.075	143.4082
3.0755	130.01404
3.076	129.71191
3.0765	130.31616
3.077	122.66235
3.0775	100.50659
3.078	84.09119
3.0785	52.771
3.079	-34.34143
3.0795	-99.49951
3.08	-118.63403
3.0805	-112.69226
3.081	-95.87402
3.0815	-62.64038
3.082	-23.96851
3.0825	12.48779
3.083	42.90161
3.0835	71.90552
3.084	89.73083
3.0845	99.09668
3.085	102.92358
3.0855	102.92358
3.086	102.72217
3.0865	86.70959
3.087	73.21472
3.0875	68.68286
3.088	68.88428
3.0885	45.3186
3.089	17.52319
3.0895	-10.37292
3.09	-45.52002
3.0905	-75.32959
3.091	-108.46252
3.0915	-125.48218
3.092	-123.16589
3.0925	-114.20288
3.093	-91.04004
3.0935	-58.81348
3.094	-35.85205
3.0945	-18.93311
3.095	-11.07788
3.0955	6.04248
3.096	22.86072
3.0965	45.11719
3.097	56.19507
3.0975	41.59241
3.098	26.08337
3.0985	1.91345
3.099	-19.83948
3.0995	-46.12427
3.1	-65.46021
3.1005	-71.90552
3.101	-68.38074
3.1015	-47.53418
3.102	-39.37683
3.1025	-37.86621
3.103	-37.16125
3.1035	-24.87488
3.104	-6.14319
3.1045	14.70337
3.105	50.65613
3.1055	72.71118
3.106	84.49402
3.1065	97.68677
3.107	90.03296
3.1075	66.46729
3.108	30.71594
3.1085	12.08496
3.109	21.14868
3.1095	24.37134
3.11	32.32727
3.1105	32.93152
3.111	37.46338
3.1115	50.65613
3.112	55.59082
3.1125	24.57275
3.113	-5.63965
3.1135	-45.41931
3.114	-80.96924
3.1145	-140.08484
3.115	-164.65759
3.1155	-174.42627
3.116	-182.28149
3.1165	-165.86609
3.117	-129.71191
3.1175	-85.70251
3.118	-33.63647
3.1185	12.99133
3.119	54.98657
3.1195	93.75916
3.12	108.26111
3.1205	62.03613
3.121	45.01648
3.1215	54.38232
3.122	69.1864
3.1225	91.64429
3.123	110.57739
3.1235	123.16589
3.124	123.16589
3.1245	119.54041
3.125	132.93457
3.1255	117.82837
3.126	113.09509
3.1265	84.39331
3.127	68.88428
3.1275	36.65771
3.128	20.64514
3.1285	-1.81274
3.129	-17.92603
3.1295	-30.71594
3.13	-36.25488
3.1305	-43.00232
3.131	-65.15808
3.1315	-80.76782
3.132	-88.72375
3.1325	-93.15491
3.133	-100.20447
3.1335	-103.93066
3.134	-104.53491
3.1345	-86.91101
3.135	-76.13525
3.1355	-46.22498
3.136	-16.51611
3.1365	4.33044
3.137	19.83948
3.1375	49.0448
3.138	65.76233
3.1385	82.27844
3.139	89.93225
3.1395	86.20605
3.14	86.00464
3.1405	87.51526
3.141	74.32251
3.1415	59.1156
3.142	44.81506
3.1425	35.85205
3.143	23.16284
3.1435	19.43665
3.144	10.47363
3.1445	-4.63257
3.145	-18.8324
3.1455	-30.01099
3.146	-40.2832
3.1465	-53.17383
3.147	-59.71985
3.1475	-70.99915
3.148	-85.70251
3.1485	-104.03137
3.149	-106.9519
3.1495	-103.125
3.15	-105.44128
3.1505	-97.58606
3.151	-94.06128
3.1515	-71.50269
3.152	-43.30444
3.1525	-17.72461
3.153	10.27222
3.1535	35.95276
3.154	51.46179
3.1545	71.7041
3.155	90.5365
3.1555	105.6427
3.156	98.39172
3.1565	90.33508
3.157	79.45862
3.1575	66.87012
3.158	60.4248
3.1585	55.08728
3.159	53.37524
3.1595	41.29028
3.16	26.98975
3.1605	23.76709
3.161	17.01965
3.1615	14.90479
3.162	14.80408
3.1625	21.14868
3.163	20.74585
3.1635	38.06763
3.164	42.09595
3.1645	40.98816
3.165	36.4563
3.1655	30.91736
3.166	26.28479
3.1665	24.27063
3.167	24.37134
3.1675	30.51453
3.168	29.40674
3.1685	15.71045
3.169	-12.08496
3.1695	-31.4209
3.17	-52.97241
3.1705	-55.59082
3.171	-55.18799
3.1715	-52.97241
3.172	-56.5979
3.1725	-53.97949
3.173	-57.40356
3.1735	-62.33826
3.174	-63.74817
3.1745	-59.21631
3.175	-47.7356
3.1755	-34.64355
3.176	-24.67346
3.1765	-10.97717
3.177	9.76868
3.1775	40.48462
3.178	58.81348
3.1785	79.2572
3.179	84.59473
3.1795	81.27136
3.18	72.71118
3.1805	68.88428
3.181	66.16516
3.1815	60.02197
3.182	53.97949
3.1825	54.28162
3.183	49.54834
3.1835	42.90161
3.184	31.82373
3.1845	17.52319
3.185	-1.91345
3.1855	-13.29346
3.186	-14.70337
3.1865	-21.04797
3.187	-18.93311
3.1875	-16.61682
3.188	-21.45081
3.1885	-26.58691
3.189	-20.24231
3.1895	-16.11328
3.19	-8.45947
3.1905	-11.07788
3.191	-12.5885
3.1915	-4.33044
3.192	0.70496
3.1925	11.38
3.193	21.3501
3.1935	25.177
3.194	28.39966
3.1945	49.44763
3.195	60.02197
3.1955	66.16516
3.196	53.57666
3.1965	34.74426
3.197	13.59558
3.1975	-1.71204
3.198	1.3092
3.1985	9.36584
3.199	20.44373
3.1995	23.06213
3.2	17.12036
3.2005	14.60266
3.201	16.3147
3.2015	25.27771
3.202	29.10461
3.2025	22.6593
3.203	10.57434
3.2035	-0.70496
3.204	-14.70337
3.2045	-17.42249
3.205	-25.177
3.2055	-26.78833
3.206	-21.24939
3.2065	-20.34302
3.207	-10.57434
3.2075	-1.10779
3.208	5.63965
3.2085	19.73877
3.209	33.83789
3.2095	45.01648
3.21	44.81506
3.2105	41.89453
3.211	37.7655
3.2115	12.5885
3.212	-9.36584
3.2125	-49.34692
3.213	-102.31934
3.2135	-104.53491
3.214	-72.30835
3.2145	-47.33276
3.215	1.61133
3.2155	29.40674
3.216	50.05188
3.2165	73.51685
3.217	80.06287
3.2175	90.23438
3.218	96.37756
3.2185	98.29102
3.219	95.87402
3.2195	104.93774
3.22	112.69226
3.2205	101.21155
3.221	87.31384
3.2215	62.03613
3.222	31.01807
3.2225	-13.797
3.223	-47.7356
3.2235	-48.03772
3.224	-36.35559
3.2245	-36.05347
3.225	-91.14075
3.2255	-155.19104
3.226	-186.30981
3.2265	-193.05725
3.227	-169.99512
3.2275	-136.35864
3.228	-103.32642
3.2285	-65.86304
3.229	-19.03381
3.2295	24.87488
3.23	54.28162
3.2305	82.58057
3.231	91.24146
3.2315	93.45703
3.232	87.71667
3.2325	79.15649
3.233	71.80481
3.2335	70.3949
3.234	67.97791
3.2345	79.96216
3.235	83.38623
3.2355	73.31543
3.236	55.99365
3.2365	31.72302
3.237	14.80408
3.2375	6.44531
3.238	-0.80566
3.2385	6.14319
3.239	18.42957
3.2395	15.1062
3.24	8.56018
3.2405	0.20142
3.241	-42.39807
3.2415	-81.67419
3.242	-113.09509
3.2425	-119.94324
3.243	-115.00854
3.2435	-100.20447
3.244	-79.86145
3.2445	-59.51843
3.245	-50.75684
3.2455	-36.35559
3.246	-43.10303
3.2465	-43.10303
3.247	-26.48621
3.2475	-8.66089
3.248	8.8623
3.2485	14.19983
3.249	33.33435
3.2495	41.69312
3.25	46.5271
3.2505	42.39807
3.251	33.03223
3.2515	25.37842
3.252	31.92444
3.2525	46.72852
3.253	46.62781
3.2535	48.03772
3.254	52.26746
3.2545	60.52551
3.255	59.82056
3.2555	54.98657
3.256	35.2478
3.2565	23.46497
3.257	30.31311
3.2575	40.68604
3.258	63.04321
3.2585	70.79773
3.259	72.9126
3.2595	70.49561
3.26	70.19348
3.2605	69.89136
3.261	65.25879
3.2615	60.4248
3.262	49.44763
3.2625	-9.56726
3.263	-60.12268
3.2635	-77.24304
3.264	-80.66711
3.2645	-100.30518
3.265	-117.42554
3.2655	-143.10608
3.266	-151.36414
3.2665	-142.19971
3.267	-118.93616
3.2675	-88.0188
3.268	-61.23047
3.2685	-28.39966
3.269	-9.97009
3.2695	19.33594
3.27	43.50586
3.2705	76.53809
3.271	83.78906
3.2715	100.00305
3.272	96.57898
3.2725	82.68127
3.273	93.35632
3.2735	86.8103
3.274	92.55066
3.2745	106.44836
3.275	95.37048
3.2755	82.58057
3.276	49.64905
3.2765	38.36975
3.277	41.08887
3.2775	42.49878
3.278	40.38391
3.2785	30.2124
3.279	26.08337
3.2795	16.51611
3.28	12.18567
3.2805	4.33044
3.281	7.15027
3.2815	3.62549
3.282	4.22974
3.2825	5.33752
3.283	0
3.2835	2.31628
3.284	-1.71204
3.2845	-0.30212
3.285	8.15735
3.2855	-11.2793
3.286	-43.20374
3.2865	-60.52551
3.287	-67.67578
3.2875	-57.20215
3.288	-47.23206
3.2885	-28.60107
3.289	-11.68213
3.2895	9.56726
3.29	24.57275
3.2905	44.0094
3.291	45.2179
3.2915	46.92993
3.292	48.13843
3.2925	35.04639
3.293	28.50037
3.2935	30.31311
3.294	28.19824
3.2945	12.38708
3.295	6.44531
3.2955	11.48071
3.296	11.48071
3.2965	0.70496
3.297	-1.40991
3.2975	-6.2439
3.298	-23.26355
3.2985	-25.07629
3.299	-35.44922
3.2995	-41.4917
3.3	-43.40515
3.3005	-46.02356
3.301	-44.0094
3.3015	-37.7655
3.302	-47.13135
3.3025	-44.11011
3.303	-41.4917
3.3035	-42.90161
3.304	-35.95276
3.3045	-35.54993
3.305	-36.75842
3.3055	-47.93701
3.306	-49.85046
3.3065	-46.22498
3.307	-50.95825
3.3075	-52.36816
3.308	-55.79224
3.3085	-61.53259
3.309	-48.03772
3.3095	-22.05505
3.31	5.23682
3.3105	32.12585
3.311	50.95825
3.3115	74.62463
3.312	89.63013
3.3125	107.05261
3.313	115.91492
3.3135	97.08252
3.314	74.52393
3.3145	64.05029
3.315	49.95117
3.3155	49.24622
3.316	59.41772
3.3165	66.26587
3.317	72.10693
3.3175	63.94958
3.318	38.06763
3.3185	18.12744
3.319	32.22656
3.3195	48.33984
3.32	53.37524
3.3205	51.96533
3.321	38.67188
3.3215	13.89771
3.322	1.10779
3.3225	-6.14319
3.323	-15.81116
3.3235	-17.22107
3.324	-12.08496
3.3245	-14.90479
3.325	-5.53894
3.3255	4.93469
3.326	-0.20142
3.3265	-5.23682
3.327	-24.16992
3.3275	-77.84729
3.328	-121.65527
3.3285	-152.77405
3.329	-168.88733
3.3295	-216.01868
3.33	-313.00049
3.3305	-370.10193
3.331	-357.81555
3.3315	-308.56934
3.332	-227.70081
3.3325	-153.68042
3.333	-68.38074
3.3335	17.01965
3.334	110.37598
3.3345	170.09583
3.335	189.23035
3.3355	205.94788
3.336	229.91638
3.3365	258.81958
3.337	302.82898
3.3375	343.51501
3.338	369.6991
3.3385	363.35449
3.339	340.19165
3.3395	312.29553
3.34	251.26648
3.3405	186.51123
3.341	133.63953
3.3415	75.83313
3.342	27.29187
3.3425	-8.7616
3.343	-17.12036
3.3435	-15.00549
3.344	-16.41541
3.3445	-24.77417
3.345	-39.17542
3.3455	-48.23914
3.346	-33.43506
3.3465	-40.88745
3.347	-37.7655
3.3475	-33.13293
3.348	-28.9032
3.3485	-16.51611
3.349	-13.09204
3.3495	-13.69629
3.35	-20.64514
3.3505	-31.11877
3.351	-37.36267
3.3515	-44.71436
3.352	-47.93701
3.3525	-58.30994
3.353	-71.7041
3.3535	-77.24304
3.354	-87.91809
3.3545	-85.5011
3.355	-78.65295
3.3555	-78.95508
3.356	-68.28003
3.3565	-65.76233
3.357	-62.33826
3.3575	-60.22339
3.358	-56.39648
3.3585	-47.13135
3.359	-52.26746
3.3595	-53.27454
3.36	-43.00232
3.3605	-27.59399
3.361	-11.58142
3.3615	-20.1416
3.362	-19.73877
3.3625	-34.14001
3.363	-35.44922
3.3635	-33.53577
3.364	-22.55859
3.3645	1.2085
3.365	27.19116
3.3655	36.85913
3.366	56.49719
3.3665	73.81897
3.367	93.25562
3.3675	106.64978
3.368	103.52783
3.3685	95.06836
3.369	54.18091
3.3695	1.81274
3.37	-72.50977
3.3705	-154.48608
3.371	-184.69849
3.3715	-164.55688
3.372	-133.3374
3.3725	-101.9165
3.373	-52.97241
3.3735	-7.15027
3.374	33.13293
3.3745	55.3894
3.375	77.04163
3.3755	90.63721
3.376	96.8811
3.3765	87.51526
3.377	94.06128
3.3775	101.51367
3.378	136.76147
3.3785	150.45776
3.379	164.7583
3.3795	156.19812
3.38	142.30042
3.3805	122.05811
3.381	83.68835
3.3815	53.27454
3.382	33.13293
3.3825	27.79541
3.383	28.70178
3.3835	14.40125
3.384	8.25806
3.3845	-43.20374
3.385	-96.67969
3.3855	-113.29651
3.386	-133.43811
3.3865	-165.26184
3.387	-174.8291
3.3875	-162.44202
3.388	-129.20837
3.3885	-94.86694
3.389	-58.71277
3.3895	-14.70337
3.39	7.04956
3.3905	31.32019
3.391	40.2832
3.3915	48.44055
3.392	27.09045
3.3925	-9.16443
3.393	-28.39966
3.3935	-38.26904
3.394	-44.0094
3.3945	-37.66479
3.395	-41.59241
3.3955	-25.177
3.396	14.30054
3.3965	52.8717
3.397	75.02747
3.3975	87.01172
3.398	95.67261
3.3985	86.00464
3.399	63.84888
3.3995	65.25879
3.4	61.73401
3.4005	50.75684
3.401	48.54126
3.4015	39.27612
3.402	11.88354
3.4025	13.69629
3.403	32.22656
3.4035	60.12268
3.404	70.69702
3.4045	74.82605
3.405	71.7041
3.4055	57.60498
3.406	49.34692
3.4065	43.50586
3.407	37.36267
3.4075	9.36584
3.408	-40.78674
3.4085	-83.08411
3.409	-112.69226
3.4095	-107.15332
3.41	-97.08252
3.4105	-78.04871
3.411	-50.354
3.4115	-18.02673
3.412	3.42407
3.4125	8.96301
3.413	22.35718
3.4135	30.41382
3.414	33.83789
3.4145	39.67896
3.415	43.40515
3.4155	53.67737
3.416	55.3894
3.4165	54.88586
3.417	53.57666
3.4175	38.47046
3.418	20.74585
3.4185	-31.21948
3.419	-68.17932
3.4195	-109.26819
3.42	-127.99988
3.4205	-149.34998
3.421	-139.37988
3.4215	-107.85828
3.422	-69.48853
3.4225	-27.59399
3.423	-8.56018
3.4235	25.57983
3.424	54.28162
3.4245	79.2572
3.425	75.53101
3.4255	29.20532
3.426	-4.93469
3.4265	-33.23364
3.427	-63.84888
3.4275	-72.00623
3.428	-57.50427
3.4285	-30.41382
3.429	1.71204
3.4295	31.4209
3.43	65.86304
3.4305	88.0188
3.431	91.54358
3.4315	87.01172
3.432	55.79224
3.4325	15.40833
3.433	7.75452
3.4335	14.19983
3.434	27.39258
3.4345	49.74976
3.435	56.90002
3.4355	48.03772
3.436	33.63647
3.4365	37.86621
3.437	32.93152
3.4375	29.20532
3.438	35.34851
3.4385	46.12427
3.439	49.0448
3.4395	23.96851
3.44	-6.74744
3.4405	-20.74585
3.441	-29.00391
3.4415	-47.13135
3.442	-65.96375
3.4425	-78.45154
3.443	-100.10376
3.4435	-129.20837
3.444	-142.099
3.4445	-136.56006
3.445	-100.40588
3.4455	-60.12268
3.446	-11.17859
3.4465	22.86072
3.447	67.37366
3.4475	103.82996
3.448	113.69934
3.4485	115.31067
3.449	111.28235
3.4495	107.65686
3.45	84.19189
3.4505	57.70569
3.451	34.54285
3.4515	18.42957
3.452	-13.49487
3.4525	-38.77258
3.453	-48.03772
3.4535	-52.8717
3.454	-57.60498
3.4545	-41.99524
3.455	-29.00391
3.4555	-25.07629
3.456	-48.54126
3.4565	-71.90552
3.457	-76.84021
3.4575	-65.66162
3.458	-31.11877
3.4585	-2.31628
3.459	23.36426
3.4595	50.05188
3.46	68.88428
3.4605	78.35083
3.461	75.12817
3.4615	69.38782
3.462	59.21631
3.4625	46.5271
3.463	45.62073
3.4635	40.08179
3.464	38.36975
3.4645	25.37842
3.465	7.95593
3.4655	-13.39417
3.466	-33.73718
3.4665	-49.54834
3.467	-65.3595
3.4675	-78.25012
3.468	-87.81738
3.4685	-76.63879
3.469	-55.08728
3.4695	-34.64355
3.47	-31.11877
3.4705	-13.797
3.471	7.04956
3.4715	19.83948
3.472	47.8363
3.4725	73.91968
3.473	106.9519
3.4735	118.63403
3.474	111.9873
3.4745	104.83704
3.475	99.3988
3.4755	86.40747
3.476	65.25879
3.4765	35.85205
3.477	6.74744
3.4775	-15.91187
3.478	-88.82446
3.4785	-157.30591
3.479	-172.41211
3.4795	-156.90308
3.48	-128.50342
3.4805	-110.17456
3.481	-114.4043
3.4815	-131.22253
3.482	-132.22961
3.4825	-131.42395
3.483	-134.24377
3.4835	-116.41846
3.484	-48.54126
3.4845	12.08496
3.485	55.49011
3.4855	62.8418
3.486	73.61755
3.4865	104.73633
3.487	151.36414
3.4875	161.0321
3.488	162.34131
3.4885	153.07617
3.489	89.73083
3.4895	30.01099
3.49	-9.16443
3.4905	-34.94568
3.491	-40.08179
3.4915	-10.0708
3.492	39.17542
3.4925	74.62463
3.493	95.37048
3.4935	107.85828
3.494	123.46802
3.4945	126.28784
3.495	116.72058
3.4955	80.36499
3.496	30.61523
3.4965	0.70496
3.497	4.43115
3.4975	16.21399
3.498	22.55859
3.4985	24.06921
3.499	15.20691
3.4995	-1.61133
3.5	-0.60425
3.5005	18.22815
3.501	33.23364
3.5015	43.30444
3.502	50.15259
3.5025	65.86304
3.503	73.21472
3.5035	65.25879
3.504	49.64905
3.5045	23.56567
3.505	4.53186
3.5055	-41.4917
3.506	-77.44446
3.5065	-86.60889
3.507	-72.81189
3.5075	-44.81506
3.508	-43.60657
3.5085	-47.43347
3.509	-37.86621
3.5095	-37.36267
3.51	-39.37683
3.5105	-36.05347
3.511	-24.16992
3.5115	-31.62231
3.512	-93.55774
3.5125	-143.91174
3.513	-166.77246
3.5135	-145.9259
3.514	-109.57031
3.5145	-64.05029
3.515	-31.11877
3.5155	-3.8269
3.516	28.09753
3.5165	55.08728
3.517	78.55225
3.5175	84.69543
3.518	69.48853
3.5185	63.74817
3.519	58.00781
3.5195	66.16516
3.52	72.81189
3.5205	79.76074
3.521	108.1604
3.5215	131.32324
3.522	109.77173
3.5225	50.45471
3.523	12.38708
3.5235	-12.48779
3.524	-42.8009
3.5245	-64.151
3.525	-65.25879
3.5255	-53.67737
3.526	-38.974
3.5265	-25.68054
3.527	-15.91187
3.5275	-48.13843
3.528	-79.66003
3.5285	-102.11792
3.529	-119.03687
3.5295	-130.92041
3.53	-124.97864
3.5305	-95.67261
3.531	-69.1864
3.5315	-49.0448
3.532	-82.9834
3.5325	-117.22412
3.533	-138.07068
3.5335	-117.62695
3.534	-86.91101
3.5345	-31.92444
3.535	21.45081
3.5355	84.99756
3.536	146.63086
3.5365	188.32397
3.537	176.44043
3.5375	96.17615
3.538	13.89771
3.5385	-18.8324
3.539	-20.24231
3.5395	-35.54993
3.54	-61.33118
3.5405	-66.36658
3.541	-42.59949
3.5415	10.97717
3.542	60.3241
3.5425	99.80164
3.543	139.48059
3.5435	182.08008
3.544	190.84167
3.5445	186.51123
3.545	173.11707
3.5455	155.9967
3.546	134.74731
3.5465	119.03687
3.547	99.3988
3.5475	94.46411
3.548	92.55066
3.5485	66.97083
3.549	32.42798
3.5495	12.28638
3.55	-28.39966
3.5505	-50.2533
3.551	-65.66162
3.5515	-64.55383
3.552	-64.85596
3.5525	-64.05029
3.553	-50.55542
3.5535	-43.60657
3.554	-27.59399
3.5545	-20.44373
3.555	-7.25098
3.5555	-0.70496
3.556	-51.15967
3.5565	-108.56323
3.557	-121.65527
3.5575	-111.48376
3.558	-92.95349
3.5585	-58.41064
3.559	-27.6947
3.5595	-9.46655
3.56	-29.20532
3.5605	-66.87012
3.561	-77.54517
3.5615	-70.49561
3.562	-56.29578
3.5625	-61.6333
3.563	-50.05188
3.5635	-29.10461
3.564	-4.63257
3.5645	17.92603
3.565	17.22107
3.5655	12.18567
3.566	21.3501
3.5665	30.01099
3.567	46.02356
3.5675	62.74109
3.568	68.88428
3.5685	77.54517
3.569	91.8457
3.5695	111.18164
3.57	118.73474
3.5705	60.62622
3.571	-18.8324
3.5715	-87.31384
3.572	-128.60413
3.5725	-160.62927
3.573	-147.73865
3.5735	-132.53174
3.574	-99.49951
3.5745	-28.09753
3.575	35.2478
3.5755	88.11951
3.576	134.44519
3.5765	168.68591
3.577	177.24609
3.5775	175.43335
3.578	163.4491
3.5785	144.41528
3.579	130.8197
3.5795	133.63953
3.58	133.63953
3.5805	133.63953
3.581	101.9165
3.5815	29.20532
3.582	-26.28479
3.5825	-66.16516
3.583	-76.53809
3.5835	-74.62463
3.584	-54.0802
3.5845	-41.59241
3.585	-17.32178
3.5855	-1.10779
3.586	-38.36975
3.5865	-78.75366
3.587	-105.6427
3.5875	-100.40588
3.588	-82.68127
3.5885	-60.92834
3.589	-72.10693
3.5895	-63.54675
3.59	-40.58533
3.5905	-5.33752
3.591	28.09753
3.5915	38.47046
3.592	52.771
3.5925	43.60657
3.593	35.85205
3.5935	38.26904
3.594	38.67188
3.5945	60.92834
3.595	90.63721
3.5955	95.97473
3.596	101.41296
3.5965	93.0542
3.597	89.73083
3.5975	80.16357
3.598	50.05188
3.5985	24.06921
3.599	7.5531
3.5995	1.3092
3.6	-3.52478
3.6005	-16.01257
3.601	-22.6593
3.6015	-36.4563
3.602	-62.43896
3.6025	-104.03137
3.603	-119.33899
3.6035	-118.53333
3.604	-116.31775
3.6045	-109.06677
3.605	-76.84021
3.6055	-25.68054
3.606	26.58691
3.6065	37.96692
3.607	38.26904
3.6075	4.73328
3.608	-40.1825
3.6085	-62.74109
3.609	-55.08728
3.6095	-39.07471
3.61	-10.47363
3.6105	23.16284
3.611	58.71277
3.6115	68.68286
3.612	57.00073
3.6125	49.34692
3.613	38.16833
3.6135	41.08887
3.614	40.88745
3.6145	62.53967
3.615	83.48694
3.6155	77.24304
3.616	58.10852
3.6165	49.95117
3.617	54.68445
3.6175	46.62781
3.618	31.4209
3.6185	2.71912
3.619	-30.01099
3.6195	-82.27844
3.62	-129.00696
3.6205	-144.41528
3.621	-116.61987
3.6215	-88.52234
3.622	-57.10144
3.6225	-30.2124
3.623	-40.68604
3.6235	-71.90552
3.624	-60.4248
3.6245	-31.72302
3.625	11.58142
3.6255	43.80798
3.626	75.73242
3.6265	96.57898
3.627	109.26819
3.6275	106.54907
3.628	109.97314
3.6285	106.8512
3.629	87.41455
3.6295	81.57349
3.63	75.02747
3.6305	54.28162
3.631	33.83789
3.6315	16.91895
3.632	-28.60107
3.6325	-49.74976
3.633	-70.59631
3.6335	-76.43738
3.634	-54.78516
3.6345	-17.52319
3.635	19.23523
3.6355	45.3186
3.636	51.26038
3.6365	54.18091
3.637	51.26038
3.6375	46.12427
3.638	9.97009
3.6385	-33.83789
3.639	-57.30286
3.6395	-81.27136
3.64	-120.34607
3.6405	-135.65369
3.641	-174.12415
3.6415	-209.77478
3.642	-184.49707
3.6425	-150.05493
3.643	-145.32166
3.6435	-129.61121
3.644	-96.7804
3.6445	-43.80798
3.645	28.70178
3.6455	101.8158
3.646	162.34131
3.6465	197.89124
3.647	224.88098
3.6475	225.58594
3.648	220.34912
3.6485	213.40027
3.649	192.55371
3.6495	136.15723
3.65	105.84412
3.6505	96.47827
3.651	100.70801
3.6515	80.26428
3.652	61.83472
3.6525	39.07471
3.653	10.97717
3.6535	-19.53735
3.654	-44.11011
3.6545	-47.03064
3.655	-45.62073
3.6555	-45.2179
3.656	-43.70728
3.6565	-47.23206
3.657	-50.15259
3.6575	-59.21631
3.658	-69.68994
3.6585	-84.49402
3.659	-95.47119
3.6595	-87.21313
3.66	-64.45312
3.6605	-48.64197
3.661	-40.68604
3.6615	-26.78833
3.662	-29.60815
3.6625	-15.91187
3.663	-9.97009
3.6635	-1.3092
3.664	5.94177
3.6645	13.89771
3.665	28.39966
3.6655	51.26038
3.666	64.75525
3.6665	85.80322
3.667	100.6073
3.6675	112.59155
3.668	115.10925
3.6685	110.6781
3.669	91.8457
3.6695	90.43579
3.67	78.04871
3.6705	68.38074
3.671	61.12976
3.6715	20.74585
3.672	-33.23364
3.6725	-105.23987
3.673	-146.12732
3.6735	-144.6167
3.674	-139.48059
3.6745	-131.22253
3.675	-114.20288
3.6755	-77.34375
3.676	-50.95825
3.6765	-8.66089
3.677	39.88037
3.6775	80.16357
3.678	104.73633
3.6785	128.80554
3.679	121.85669
3.6795	84.99756
3.68	40.98816
3.6805	7.04956
3.681	-15.50903
3.6815	-11.58142
3.682	-3.92761
3.6825	17.42249
3.683	21.85364
3.6835	-2.31628
3.684	-36.25488
3.6845	-73.51685
3.685	-116.21704
3.6855	-210.37903
3.686	-280.87463
3.6865	-353.18298
3.687	-373.02246
3.6875	-357.31201
3.688	-293.16101
3.6885	-193.05725
3.689	-71.90552
3.6895	39.47754
3.69	149.04785
3.6905	236.26099
3.691	313.2019
3.6915	373.72742
3.692	420.25452
3.6925	423.27576
3.693	399.71008
3.6935	343.3136
3.694	260.02808
3.6945	214.60876
3.695	203.83301
3.6955	171.20361
3.696	108.96606
3.6965	62.9425
3.697	12.99133
3.6975	-61.02905
3.698	-110.47668
3.6985	-135.45227
3.699	-131.12183
3.6995	-86.60889
3.7	-16.71753
3.7005	16.3147
3.701	40.68604
3.7015	57.60498
3.702	70.29419
3.7025	58.20923
3.703	21.3501
3.7035	10.87646
3.704	-24.67346
3.7045	-72.30835
3.705	-134.24377
3.7055	-154.28467
3.706	-127.59705
3.7065	-91.745
3.707	-48.44055
3.7075	-7.35168
3.708	12.99133
3.7085	19.73877
3.709	-11.48071
3.7095	-46.42639
3.71	-51.5625
3.7105	-43.00232
3.711	-25.27771
3.7115	1.10779
3.712	29.20532
3.7125	40.88745
3.713	17.72461
3.7135	15.30762
3.714	32.52869
3.7145	63.34534
3.715	68.17932
3.7155	75.53101
3.716	70.49561
3.7165	74.92676
3.717	75.02747
3.7175	76.7395
3.718	10.97717
3.7185	-147.63794
3.719	-262.54578
3.7195	-314.51111
3.72	-310.48279
3.7205	-305.24597
3.721	-298.19641
3.7215	-241.4978
3.722	-183.79211
3.7225	-103.52783
3.723	-25.177
3.7235	53.47595
3.724	113.09509
3.7245	153.27759
3.725	181.67725
3.7255	195.57495
3.726	211.18469
3.7265	198.6969
3.727	163.95264
3.7275	120.44678
3.728	99.3988
3.7285	74.92676
3.729	63.54675
3.7295	50.55542
3.73	49.0448
3.7305	46.12427
3.731	35.85205
3.7315	22.96143
3.732	8.96301
3.7325	-43.50586
3.733	-97.48535
3.7335	-113.09509
3.734	-145.01953
3.7345	-152.27051
3.735	-151.26343
3.7355	-155.69458
3.736	-136.86218
3.7365	-89.83154
3.737	-35.34851
3.7375	18.42957
3.738	65.56091
3.7385	86.10535
3.739	99.3988
3.7395	118.73474
3.74	118.83545
3.7405	107.85828
3.741	103.52783
3.7415	93.65845
3.742	74.12109
3.7425	65.56091
3.743	55.49011
3.7435	47.43347
3.744	40.88745
3.7445	23.36426
3.745	0.70496
3.7455	-15.50903
3.746	-8.8623
3.7465	-5.74036
3.747	-8.96301
3.7475	-3.12195
3.748	8.96301
3.7485	7.65381
3.749	-2.61841
3.7495	-10.67505
3.75	-13.59558
3.7505	-8.25806
3.751	1.2085
3.7515	-9.06372
3.752	-9.76868
3.7525	-16.01257
3.753	-7.25098
3.7535	-16.21399
3.754	-38.57117
3.7545	-70.19348
3.755	-95.47119
3.7555	-108.76465
3.756	-104.73633
3.7565	-98.89526
3.757	-78.95508
3.7575	-69.08569
3.758	-85.29968
3.7585	-104.83704
3.759	-120.24536
3.7595	-109.16748
3.76	-79.66003
3.7605	-29.91028
3.761	-15.60974
3.7615	-33.23364
3.762	-18.73169
3.7625	20.84656
3.763	42.09595
3.7635	72.00623
3.764	91.94641
3.7645	101.8158
3.765	94.86694
3.7655	127.69775
3.766	162.2406
3.7665	167.276
3.767	160.72998
3.7675	117.02271
3.768	63.64746
3.7685	9.86938
3.769	-20.24231
3.7695	-23.8678
3.77	-14.50195
3.7705	13.59558
3.771	48.33984
3.7715	57.00073
3.772	9.66797
3.7725	-56.49719
3.773	-117.32483
3.7735	-142.70325
3.774	-137.76855
3.7745	-112.28943
3.775	-95.77332
3.7755	-81.67419
3.776	-63.54675
3.7765	-57.8064
3.777	-60.22339
3.7775	-42.59949
3.778	-2.31628
3.7785	31.11877
3.779	34.34143
3.7795	13.797
3.78	-9.97009
3.7805	4.22974
3.781	29.70886
3.7815	43.20374
3.782	23.06213
3.7825	20.94727
3.783	11.98425
3.7835	-16.61682
3.784	-21.04797
3.7845	-6.64673
3.785	-4.12903
3.7855	-0.80566
3.786	7.95593
3.7865	40.08179
3.787	62.03613
3.7875	90.03296
3.788	105.44128
3.7885	120.24536
3.789	118.43262
3.7895	86.40747
3.79	25.37842
3.7905	-25.88196
3.791	-56.90002
3.7915	-56.29578
3.792	-41.08887
3.7925	-21.14868
3.793	7.35168
3.7935	31.32019
3.794	31.82373
3.7945	42.19666
3.795	53.17383
3.7955	63.74817
3.796	17.52319
3.7965	-13.19275
3.797	-18.8324
3.7975	-26.3855
3.798	-56.79932
3.7985	-71.30127
3.799	-59.21631
3.7995	-36.65771
3.8	-16.61682
3.8005	3.32336
3.801	8.8623
3.8015	21.75293
3.802	30.51453
3.8025	40.98816
3.803	53.77808
3.8035	75.83313
3.804	89.93225
3.8045	72.61047
3.805	54.38232
3.8055	10.77576
3.806	-22.86072
3.8065	-22.05505
3.807	-8.66089
3.8075	22.55859
3.808	23.36426
3.8085	11.17859
3.809	9.66797
3.8095	9.97009
3.81	36.85913
