Niccolo_Morelli_Right_1.c3d  



Time(s):	Emg_4(μV):
0	9.06372
0.0005	-4.22974
0.001	-3.12195
0.0015	-9.86938
0.002	-15.40833
0.0025	-23.56567
0.003	-18.73169
0.0035	-27.49329
0.004	-33.83789
0.0045	-37.16125
0.005	-44.71436
0.0055	-43.50586
0.006	-54.38232
0.0065	-62.53967
0.007	-65.76233
0.0075	-71.50269
0.008	-64.65454
0.0085	-56.90002
0.009	-50.95825
0.0095	-42.49878
0.01	-37.26196
0.0105	-31.52161
0.011	-14.80408
0.0115	-2.92053
0.012	16.11328
0.0125	24.16992
0.013	42.49878
0.0135	52.26746
0.014	67.27295
0.0145	81.47278
0.015	84.39331
0.0155	89.52942
0.016	91.745
0.0165	95.67261
0.017	93.96057
0.0175	90.23438
0.018	83.18481
0.0185	70.59631
0.019	64.05029
0.0195	65.56091
0.02	59.21631
0.0205	54.78516
0.021	42.8009
0.0215	37.66479
0.022	27.89612
0.0225	25.78125
0.023	25.07629
0.0235	25.37842
0.024	20.84656
0.0245	21.3501
0.025	7.45239
0.0255	3.22266
0.026	-0.60425
0.0265	-0.80566
0.027	-0.50354
0.0275	-1.61133
0.028	-1.10779
0.0285	-2.31628
0.029	-4.93469
0.0295	-8.8623
0.03	-7.45239
0.0305	-9.66797
0.031	-7.5531
0.0315	-9.86938
0.032	-12.5885
0.0325	-18.73169
0.033	-20.1416
0.0335	-23.06213
0.034	-32.93152
0.0345	-30.51453
0.035	-36.95984
0.0355	-40.08179
0.036	-48.03772
0.0365	-36.4563
0.037	-32.32727
0.0375	-36.75842
0.038	-30.31311
0.0385	-25.37842
0.039	-17.32178
0.0395	-9.46655
0.04	-3.02124
0.0405	2.61841
0.041	17.42249
0.0415	21.04797
0.042	34.84497
0.0425	44.41223
0.043	46.22498
0.0435	55.2887
0.044	52.771
0.0445	51.5625
0.045	50.55542
0.0455	48.44055
0.046	44.21082
0.0465	37.36267
0.047	33.33435
0.0475	29.60815
0.048	21.3501
0.0485	24.97559
0.049	25.78125
0.0495	23.96851
0.05	14.70337
0.0505	11.68213
0.051	5.33752
0.0515	10.27222
0.052	2.71912
0.0525	7.5531
0.053	11.07788
0.0535	10.0708
0.054	12.78992
0.0545	10.47363
0.055	0.20142
0.0555	-0.80566
0.056	-0.40283
0.0565	-2.11487
0.057	-7.65381
0.0575	-5.0354
0.058	-7.75452
0.0585	-5.33752
0.059	-5.33752
0.0595	-9.46655
0.06	-4.53186
0.0605	-7.75452
0.061	-5.13611
0.0615	-6.94885
0.062	-7.04956
0.0625	-9.46655
0.063	-14.70337
0.0635	-23.06213
0.064	-30.91736
0.0645	-39.57825
0.065	-43.30444
0.0655	-38.974
0.066	-45.52002
0.0665	-41.29028
0.067	-33.33435
0.0675	-26.78833
0.068	-28.50037
0.0685	-29.00391
0.069	-18.63098
0.0695	-8.15735
0.07	-0.10071
0.0705	11.68213
0.071	11.38
0.0715	18.93311
0.072	27.79541
0.0725	25.07629
0.073	22.35718
0.0735	18.53027
0.074	1.00708
0.0745	-16.71753
0.075	-14.40125
0.0755	-16.71753
0.076	-24.87488
0.0765	-24.27063
0.077	-30.81665
0.0775	-34.34143
0.078	-27.49329
0.0785	-24.06921
0.079	-15.30762
0.0795	-11.58142
0.08	-1.3092
0.0805	9.86938
0.081	23.06213
0.0815	28.70178
0.082	47.13135
0.0825	55.49011
0.083	66.36658
0.0835	68.98499
0.084	74.2218
0.0845	66.06445
0.085	63.94958
0.0855	63.44604
0.086	63.84888
0.0865	67.57507
0.087	63.84888
0.0875	54.48303
0.088	51.36108
0.0885	51.36108
0.089	47.23206
0.0895	41.99524
0.09	34.44214
0.0905	30.31311
0.091	24.37134
0.0915	19.83948
0.092	20.54443
0.0925	12.89062
0.093	5.23682
0.0935	-3.32336
0.094	-22.05505
0.0945	-26.88904
0.095	-37.26196
0.0955	-45.11719
0.096	-49.44763
0.0965	-55.2887
0.097	-63.04321
0.0975	-65.86304
0.098	-74.02039
0.0985	-69.99207
0.099	-68.28003
0.0995	-66.76941
0.1	-69.79065
0.1005	-68.17932
0.101	-57.50427
0.1015	-53.67737
0.102	-39.67896
0.1025	-30.01099
0.103	-21.04797
0.1035	-2.41699
0.104	11.88354
0.1045	18.42957
0.105	34.94568
0.1055	46.42639
0.106	56.29578
0.1065	56.79932
0.107	65.25879
0.1075	73.31543
0.108	73.31543
0.1085	70.99915
0.109	72.10693
0.1095	73.91968
0.11	65.3595
0.1105	59.1156
0.111	51.76392
0.1115	44.41223
0.112	27.79541
0.1125	12.89062
0.113	6.14319
0.1135	-10.77576
0.114	-19.23523
0.1145	-29.40674
0.115	-30.71594
0.1155	-34.64355
0.116	-32.42798
0.1165	-34.54285
0.117	-32.12585
0.1175	-36.25488
0.118	-35.65063
0.1185	-20.74585
0.119	-22.35718
0.1195	-6.3446
0.12	-4.63257
0.1205	6.94885
0.121	16.71753
0.1215	17.22107
0.122	23.66638
0.1225	30.51453
0.123	34.64355
0.1235	46.12427
0.124	50.65613
0.1245	52.26746
0.125	52.26746
0.1255	46.92993
0.126	48.64197
0.1265	43.40515
0.127	46.5271
0.1275	46.32568
0.128	44.71436
0.1285	44.91577
0.129	36.65771
0.1295	31.4209
0.13	27.09045
0.1305	22.35718
0.131	17.82532
0.1315	9.46655
0.132	6.44531
0.1325	4.12903
0.133	5.63965
0.1335	9.66797
0.134	12.99133
0.1345	12.48779
0.135	6.2439
0.1355	5.94177
0.136	2.5177
0.1365	2.21558
0.137	2.41699
0.1375	0.80566
0.138	-5.13611
0.1385	-3.12195
0.139	-0.30212
0.1395	-0.20142
0.14	2.5177
0.1405	-4.43115
0.141	-4.73328
0.1415	-7.45239
0.142	-10.97717
0.1425	-11.2793
0.143	-8.66089
0.1435	-13.19275
0.144	-11.38
0.1445	-15.91187
0.145	-24.47205
0.1455	-29.80957
0.146	-25.37842
0.1465	-25.37842
0.147	-16.91895
0.1475	-19.83948
0.148	-20.84656
0.1485	-16.3147
0.149	-17.42249
0.1495	-19.33594
0.15	-21.45081
0.1505	-22.96143
0.151	-26.78833
0.1515	-25.07629
0.152	-24.97559
0.1525	-24.37134
0.153	-18.53027
0.1535	-14.30054
0.154	3.7262
0.1545	13.29346
0.155	18.02673
0.1555	23.66638
0.156	27.29187
0.1565	29.70886
0.157	35.85205
0.1575	36.55701
0.158	39.77966
0.1585	31.72302
0.159	32.22656
0.1595	24.47205
0.16	23.66638
0.1605	14.30054
0.161	12.5885
0.1615	4.83398
0.162	4.43115
0.1625	3.32336
0.163	9.66797
0.1635	17.52319
0.164	22.76001
0.1645	21.55151
0.165	27.19116
0.1655	25.177
0.166	29.70886
0.1665	33.43506
0.167	27.29187
0.1675	32.02515
0.168	29.10461
0.1685	26.68762
0.169	20.74585
0.1695	21.24939
0.17	12.89062
0.1705	11.38
0.171	9.06372
0.1715	5.53894
0.172	-3.92761
0.1725	-14.09912
0.173	-28.39966
0.1735	-29.20532
0.174	-35.54993
0.1745	-33.73718
0.175	-27.59399
0.1755	-27.6947
0.176	-19.63806
0.1765	-16.11328
0.177	-2.5177
0.1775	-0.50354
0.178	-2.61841
0.1785	1.40991
0.179	4.43115
0.1795	6.84814
0.18	4.22974
0.1805	4.02832
0.181	6.44531
0.1815	-1.3092
0.182	-1.40991
0.1825	-3.62549
0.183	-8.56018
0.1835	-5.53894
0.184	-4.63257
0.1845	-4.73328
0.185	-2.21558
0.1855	6.14319
0.186	10.87646
0.1865	15.30762
0.187	22.35718
0.1875	30.91736
0.188	31.62231
0.1885	40.08179
0.189	41.29028
0.1895	41.08887
0.19	41.08887
0.1905	38.67188
0.191	30.2124
0.1915	24.37134
0.192	25.177
0.1925	26.28479
0.193	25.07629
0.1935	17.6239
0.194	15.50903
0.1945	10.67505
0.195	10.27222
0.1955	9.46655
0.196	16.61682
0.1965	23.06213
0.197	30.01099
0.1975	29.80957
0.198	37.16125
0.1985	32.62939
0.199	31.72302
0.1995	30.2124
0.2	33.43506
0.2005	30.2124
0.201	24.57275
0.2015	23.8678
0.202	26.3855
0.2025	19.94019
0.203	16.41541
0.2035	9.36584
0.204	4.22974
0.2045	0
0.205	-9.76868
0.2055	-11.48071
0.206	-12.99133
0.2065	-11.88354
0.207	-7.04956
0.2075	-1.40991
0.208	-7.5531
0.2085	-6.44531
0.209	-2.01416
0.2095	0.30212
0.21	6.74744
0.2105	9.36584
0.211	6.84814
0.2115	2.11487
0.212	-5.53894
0.2125	-19.43665
0.213	-37.26196
0.2135	-65.3595
0.214	-87.71667
0.2145	-101.71509
0.215	-103.42712
0.2155	-103.02429
0.216	-92.95349
0.2165	-82.37915
0.217	-67.37366
0.2175	-57.10144
0.218	-33.63647
0.2185	-15.71045
0.219	5.23682
0.2195	29.80957
0.22	48.23914
0.2205	70.09277
0.221	88.22021
0.2215	91.8457
0.222	105.94482
0.2225	108.56323
0.223	118.33191
0.2235	110.17456
0.224	108.96606
0.2245	108.1604
0.225	105.54199
0.2255	97.18323
0.226	90.93933
0.2265	84.39331
0.227	77.948
0.2275	69.48853
0.228	60.82764
0.2285	51.66321
0.229	43.70728
0.2295	42.59949
0.23	30.31311
0.2305	18.63098
0.231	10.87646
0.2315	4.12903
0.232	1.71204
0.2325	2.11487
0.233	-4.73328
0.2335	-3.52478
0.234	-2.31628
0.2345	-6.74744
0.235	-17.92603
0.2355	-19.33594
0.236	-19.03381
0.2365	-23.46497
0.237	-22.55859
0.2375	-29.00391
0.238	-26.78833
0.2385	-23.26355
0.239	-28.80249
0.2395	-25.78125
0.24	-31.62231
0.2405	-33.63647
0.241	-31.11877
0.2415	-26.48621
0.242	-20.64514
0.2425	-19.33594
0.243	-17.52319
0.2435	-19.23523
0.244	-9.36584
0.2445	-6.04248
0.245	-8.35876
0.2455	-2.5177
0.246	-3.52478
0.2465	1.3092
0.247	6.3446
0.2475	12.48779
0.248	8.66089
0.2485	4.12903
0.249	6.04248
0.2495	1.40991
0.25	3.22266
0.2505	-4.93469
0.251	-4.53186
0.2515	-6.84814
0.252	-10.47363
0.2525	-13.797
0.253	-9.26514
0.2535	-7.04956
0.254	-6.3446
0.2545	1.91345
0.255	-0.20142
0.2555	3.92761
0.256	5.13611
0.2565	2.01416
0.257	-6.64673
0.2575	-15.1062
0.258	-9.56726
0.2585	-9.86938
0.259	-16.51611
0.2595	-17.92603
0.26	-14.90479
0.2605	-10.57434
0.261	-1.10779
0.2615	-3.8269
0.262	-3.32336
0.2625	7.45239
0.263	15.00549
0.2635	20.84656
0.264	20.64514
0.2645	25.68054
0.265	34.34143
0.2655	35.85205
0.266	38.974
0.2665	40.08179
0.267	42.39807
0.2675	35.75134
0.268	36.25488
0.2685	25.68054
0.269	18.73169
0.2695	11.48071
0.27	8.8623
0.2705	12.5885
0.271	6.04248
0.2715	3.62549
0.272	10.97717
0.2725	9.97009
0.273	14.50195
0.2735	13.39417
0.274	9.56726
0.2745	10.37292
0.275	2.31628
0.2755	0.40283
0.276	1.3092
0.2765	1.2085
0.277	3.8269
0.2775	1.3092
0.278	-3.7262
0.2785	-9.16443
0.279	-10.27222
0.2795	-13.797
0.28	-18.12744
0.2805	-14.60266
0.281	-8.7616
0.2815	-5.0354
0.282	-4.12903
0.2825	4.53186
0.283	7.45239
0.2835	8.8623
0.284	8.35876
0.2845	12.78992
0.285	10.87646
0.2855	13.99841
0.286	5.0354
0.2865	7.04956
0.287	5.0354
0.2875	12.68921
0.288	10.17151
0.2885	7.25098
0.289	0.90637
0.2895	-6.84814
0.29	2.5177
0.2905	12.68921
0.291	14.30054
0.2915	15.71045
0.292	21.85364
0.2925	24.77417
0.293	31.21948
0.2935	33.9386
0.294	37.16125
0.2945	44.41223
0.295	49.95117
0.2955	50.45471
0.296	47.53418
0.2965	44.81506
0.297	47.63489
0.2975	45.11719
0.298	43.70728
0.2985	35.2478
0.299	39.37683
0.2995	36.15417
0.3	31.11877
0.3005	28.50037
0.301	31.72302
0.3015	22.25647
0.302	23.16284
0.3025	10.77576
0.303	9.46655
0.3035	6.04248
0.304	3.32336
0.3045	3.32336
0.305	10.27222
0.3055	6.44531
0.306	8.8623
0.3065	2.41699
0.307	9.06372
0.3075	3.8269
0.308	2.01416
0.3085	4.12903
0.309	1.40991
0.3095	-1.3092
0.31	1.81274
0.3105	-0.90637
0.311	2.71912
0.3115	6.04248
0.312	-2.61841
0.3125	4.83398
0.313	-2.71912
0.3135	-0.10071
0.314	-3.52478
0.3145	-0.50354
0.315	0.80566
0.3155	-1.2085
0.316	-8.96301
0.3165	-9.66797
0.317	-15.1062
0.3175	-15.00549
0.318	-16.11328
0.3185	-13.69629
0.319	-22.86072
0.3195	-24.77417
0.32	-30.11169
0.3205	-29.70886
0.321	-30.41382
0.3215	-24.06921
0.322	-17.22107
0.3225	-21.24939
0.323	-16.11328
0.3235	-10.47363
0.324	-4.43115
0.3245	2.81982
0.325	1.3092
0.3255	0.90637
0.326	3.12195
0.3265	4.43115
0.327	3.92761
0.3275	4.02832
0.328	-1.91345
0.3285	0.40283
0.329	-9.46655
0.3295	-1.71204
0.33	-1.3092
0.3305	0.10071
0.331	0.90637
0.3315	3.22266
0.332	1.10779
0.3325	10.47363
0.333	5.43823
0.3335	8.56018
0.334	18.32886
0.3345	9.76868
0.335	4.63257
0.3355	-2.61841
0.336	-9.97009
0.3365	-24.67346
0.337	-42.39807
0.3375	-55.59082
0.338	-59.1156
0.3385	-69.68994
0.339	-75.53101
0.3395	-77.34375
0.34	-65.56091
0.3405	-64.95667
0.341	-65.46021
0.3415	-68.78357
0.342	-67.47437
0.3425	-50.75684
0.343	-41.4917
0.3435	-30.51453
0.344	-18.42957
0.3445	-8.05664
0.345	-3.32336
0.3455	11.17859
0.346	24.97559
0.3465	23.16284
0.347	24.37134
0.3475	26.3855
0.348	31.21948
0.3485	41.08887
0.349	34.54285
0.3495	47.53418
0.35	57.00073
0.3505	53.87878
0.351	62.23755
0.3515	73.81897
0.352	86.50818
0.3525	92.34924
0.353	102.72217
0.3535	109.16748
0.354	111.38306
0.3545	107.75757
0.355	113.29651
0.3555	107.25403
0.356	109.4696
0.3565	102.42004
0.357	91.94641
0.3575	82.37915
0.358	77.54517
0.3585	65.56091
0.359	57.70569
0.3595	45.3186
0.36	36.05347
0.3605	27.79541
0.361	22.86072
0.3615	14.80408
0.362	2.21558
0.3625	0.90637
0.363	4.73328
0.3635	2.31628
0.364	1.81274
0.3645	-3.62549
0.365	-0.90637
0.3655	-7.65381
0.366	-13.29346
0.3665	-21.65222
0.367	-38.87329
0.3675	-42.49878
0.368	-47.23206
0.3685	-47.23206
0.369	-49.74976
0.3695	-47.53418
0.37	-56.90002
0.3705	-64.45312
0.371	-57.8064
0.3715	-60.02197
0.372	-52.8717
0.3725	-48.23914
0.373	-41.18958
0.3735	-40.78674
0.374	-28.50037
0.3745	-16.21399
0.375	-13.99841
0.3755	1.61133
0.376	8.96301
0.3765	11.38
0.377	18.22815
0.3775	31.62231
0.378	36.85913
0.3785	38.16833
0.379	35.04639
0.3795	35.75134
0.38	41.08887
0.3805	37.26196
0.381	33.33435
0.3815	36.05347
0.382	28.09753
0.3825	25.07629
0.383	23.8678
0.3835	17.92603
0.384	10.0708
0.3845	9.16443
0.385	10.87646
0.3855	11.78284
0.386	6.64673
0.3865	5.13611
0.387	10.87646
0.3875	13.59558
0.388	5.53894
0.3885	6.2439
0.389	6.54602
0.3895	6.44531
0.39	-5.0354
0.3905	-11.48071
0.391	-10.17151
0.3915	-12.38708
0.392	-25.78125
0.3925	-29.40674
0.393	-25.177
0.3935	-30.91736
0.394	-30.91736
0.3945	-30.01099
0.395	-36.15417
0.3955	-27.89612
0.396	-23.26355
0.3965	-16.61682
0.397	-7.35168
0.3975	0.40283
0.398	6.14319
0.3985	5.84106
0.399	3.92761
0.3995	4.43115
0.4	-5.74036
0.4005	-7.25098
0.401	-18.8324
0.4015	-22.55859
0.402	-32.93152
0.4025	-46.22498
0.403	-62.33826
0.4035	-82.88269
0.404	-90.23438
0.4045	-95.87402
0.405	-103.93066
0.4055	-101.21155
0.406	-92.34924
0.4065	-78.35083
0.407	-66.36658
0.4075	-48.33984
0.408	-28.9032
0.4085	-8.25806
0.409	7.5531
0.4095	30.01099
0.41	55.3894
0.4105	71.09985
0.411	83.68835
0.4115	95.37048
0.412	111.38306
0.4125	116.21704
0.413	119.13757
0.4135	119.23828
0.414	117.72766
0.4145	109.77173
0.415	104.63562
0.4155	90.5365
0.416	82.37915
0.4165	67.67578
0.417	60.22339
0.4175	57.00073
0.418	48.44055
0.4185	43.90869
0.419	42.49878
0.4195	35.85205
0.42	20.64514
0.4205	14.80408
0.421	15.40833
0.4215	2.31628
0.422	2.11487
0.4225	-1.51062
0.423	1.10779
0.4235	-0.80566
0.424	-6.54602
0.4245	-5.33752
0.425	-7.15027
0.4255	-2.92053
0.426	-7.75452
0.4265	-7.45239
0.427	-11.48071
0.4275	-17.92603
0.428	-17.12036
0.4285	-21.3501
0.429	-24.06921
0.4295	-23.36426
0.43	-29.50745
0.4305	-36.4563
0.431	-39.67896
0.4315	-40.1825
0.432	-44.61365
0.4325	-43.30444
0.433	-47.43347
0.4335	-46.82922
0.434	-46.42639
0.4345	-42.09595
0.435	-34.14001
0.4355	-34.03931
0.436	-20.84656
0.4365	-17.42249
0.437	-11.48071
0.4375	-7.65381
0.438	-0.20142
0.4385	8.66089
0.439	18.22815
0.4395	18.02673
0.44	20.94727
0.4405	25.57983
0.441	32.93152
0.4415	37.16125
0.442	50.15259
0.4425	50.15259
0.443	49.0448
0.4435	37.66479
0.444	42.29736
0.4445	41.39099
0.445	30.71594
0.4455	27.6947
0.446	25.47913
0.4465	18.32886
0.447	12.38708
0.4475	4.83398
0.448	5.13611
0.4485	2.81982
0.449	2.01416
0.4495	-1.51062
0.45	1.10779
0.4505	0
0.451	-3.12195
0.4515	-6.84814
0.452	-8.25806
0.4525	-9.36584
0.453	-2.21558
0.4535	-7.45239
0.454	-2.31628
0.4545	-5.0354
0.455	-10.77576
0.4555	-9.16443
0.456	-21.95435
0.4565	-34.03931
0.457	-45.41931
0.4575	-59.71985
0.458	-64.75525
0.4585	-68.48145
0.459	-75.12817
0.4595	-84.49402
0.46	-84.99756
0.4605	-79.86145
0.461	-76.94092
0.4615	-69.89136
0.462	-71.80481
0.4625	-53.37524
0.463	-45.72144
0.4635	-27.29187
0.464	-11.2793
0.4645	9.26514
0.465	27.89612
0.4655	33.9386
0.466	46.32568
0.4665	57.9071
0.467	57.8064
0.4675	65.05737
0.468	63.64746
0.4685	62.13684
0.469	70.59631
0.4695	62.33826
0.47	64.151
0.4705	59.31702
0.471	51.46179
0.4715	51.15967
0.472	41.89453
0.4725	43.30444
0.473	40.48462
0.4735	29.00391
0.474	10.87646
0.4745	-10.77576
0.475	-15.20691
0.4755	-23.96851
0.476	-29.50745
0.4765	-41.79382
0.477	-42.19666
0.4775	-47.7356
0.478	-43.00232
0.4785	-35.04639
0.479	-26.28479
0.4795	-23.06213
0.48	-15.1062
0.4805	-19.63806
0.481	-17.52319
0.4815	-16.3147
0.482	-19.63806
0.4825	-26.3855
0.483	-37.26196
0.4835	-37.7655
0.484	-39.98108
0.4845	-36.85913
0.485	-27.89612
0.4855	-28.29895
0.486	-13.09204
0.4865	-8.45947
0.487	5.43823
0.4875	12.68921
0.488	28.80249
0.4885	33.63647
0.489	48.13843
0.4895	53.07312
0.49	57.9071
0.4905	62.74109
0.491	66.56799
0.4915	65.96375
0.492	64.35242
0.4925	72.00623
0.493	70.3949
0.4935	72.9126
0.494	66.46729
0.4945	70.09277
0.495	58.20923
0.4955	51.46179
0.496	38.47046
0.4965	34.24072
0.497	30.81665
0.4975	24.47205
0.498	23.46497
0.4985	14.30054
0.499	5.13611
0.4995	6.94885
0.5	8.05664
0.5005	6.64673
0.501	0
0.5015	-12.48779
0.502	-17.01965
0.5025	-16.21399
0.503	-19.73877
0.5035	-24.77417
0.504	-24.67346
0.5045	-20.64514
0.505	-17.82532
0.5055	-15.81116
0.506	-20.94727
0.5065	-14.60266
0.507	-29.20532
0.5075	-21.85364
0.508	-22.25647
0.5085	-22.25647
0.509	-23.36426
0.5095	-9.97009
0.51	-6.84814
0.5105	1.61133
0.511	8.96301
0.5115	17.92603
0.512	27.19116
0.5125	39.67896
0.513	42.90161
0.5135	52.06604
0.514	53.67737
0.5145	37.66479
0.515	35.85205
0.5155	20.1416
0.516	7.45239
0.5165	0.70496
0.517	-19.13452
0.5175	-40.78674
0.518	-57.9071
0.5185	-68.88428
0.519	-69.38782
0.5195	-75.73242
0.52	-88.92517
0.5205	-96.27686
0.521	-101.41296
0.5215	-101.21155
0.522	-96.67969
0.5225	-104.93774
0.523	-100.00305
0.5235	-96.37756
0.524	-87.51526
0.5245	-69.89136
0.525	-52.36816
0.5255	-29.80957
0.526	-10.0708
0.5265	15.60974
0.527	40.2832
0.5275	66.87012
0.528	90.73792
0.5285	115.51208
0.529	124.57581
0.5295	139.98413
0.53	142.50183
0.5305	140.48767
0.531	144.91882
0.5315	148.3429
0.532	143.71033
0.5325	140.8905
0.533	126.28784
0.5335	117.92908
0.534	94.56482
0.5345	75.02747
0.535	60.62622
0.5355	46.82922
0.536	46.5271
0.5365	44.71436
0.537	40.48462
0.5375	40.98816
0.538	37.16125
0.5385	31.4209
0.539	21.55151
0.5395	13.09204
0.54	11.68213
0.5405	-6.54602
0.541	-17.22107
0.5415	-28.29895
0.542	-29.30603
0.5425	-28.70178
0.543	-35.2478
0.5435	-40.2832
0.544	-33.9386
0.5445	-58.10852
0.545	-93.85986
0.5455	-120.7489
0.546	-137.46643
0.5465	-140.08484
0.547	-137.46643
0.5475	-129.71191
0.548	-119.23828
0.5485	-109.3689
0.549	-92.55066
0.5495	-73.41614
0.55	-53.97949
0.5505	-32.93152
0.551	-3.92761
0.5515	15.1062
0.552	38.47046
0.5525	47.13135
0.553	62.64038
0.5535	76.33667
0.554	84.49402
0.5545	86.70959
0.555	84.09119
0.5555	84.09119
0.556	78.75366
0.5565	80.76782
0.557	87.41455
0.5575	83.18481
0.558	75.02747
0.5585	65.3595
0.559	55.79224
0.5595	44.91577
0.56	40.1825
0.5605	31.82373
0.561	19.23523
0.5615	14.70337
0.562	11.98425
0.5625	7.65381
0.563	10.17151
0.5635	15.1062
0.564	21.3501
0.5645	21.55151
0.565	24.67346
0.5655	21.24939
0.566	24.06921
0.5665	28.39966
0.567	28.80249
0.5675	28.39966
0.568	25.27771
0.5685	30.71594
0.569	26.68762
0.5695	31.82373
0.57	22.25647
0.5705	19.63806
0.571	8.96301
0.5715	-9.97009
0.572	-28.60107
0.5725	-47.13135
0.573	-60.12268
0.5735	-73.51685
0.574	-92.44995
0.5745	-99.2981
0.575	-105.03845
0.5755	-107.75757
0.576	-95.06836
0.5765	-82.17773
0.577	-65.56091
0.5775	-48.94409
0.578	-31.21948
0.5785	-9.46655
0.579	3.22266
0.5795	27.89612
0.58	43.00232
0.5805	52.26746
0.581	53.67737
0.5815	58.51135
0.582	62.13684
0.5825	66.06445
0.583	62.8418
0.5835	60.52551
0.584	55.08728
0.5845	32.42798
0.585	-3.12195
0.5855	-42.8009
0.586	-67.37366
0.5865	-85.5011
0.587	-85.29968
0.5875	-97.08252
0.588	-101.11084
0.5885	-100.80872
0.589	-91.24146
0.5895	-86.30676
0.59	-71.90552
0.5905	-47.03064
0.591	-26.3855
0.5915	-2.01416
0.592	22.55859
0.5925	42.90161
0.593	61.53259
0.5935	80.06287
0.594	94.46411
0.5945	100.50659
0.595	114.20288
0.5955	118.43262
0.596	121.45386
0.5965	118.93616
0.597	118.13049
0.5975	107.55615
0.598	105.13916
0.5985	93.15491
0.599	85.90393
0.5995	62.13684
0.6	26.3855
0.6005	-8.05664
0.601	-41.99524
0.6015	-76.23596
0.602	-109.67102
0.6025	-134.14307
0.603	-135.04944
0.6035	-129.5105
0.604	-114.90784
0.6045	-99.09668
0.605	-80.56641
0.6055	-52.8717
0.606	-40.1825
0.6065	-22.55859
0.607	1.81274
0.6075	24.16992
0.608	36.75842
0.6085	50.15259
0.609	59.31702
0.6095	69.38782
0.61	69.08569
0.6105	61.23047
0.611	58.81348
0.6115	50.2533
0.612	42.19666
0.6125	27.89612
0.613	10.77576
0.6135	-13.29346
0.614	-35.44922
0.6145	-48.13843
0.615	-66.76941
0.6155	-96.67969
0.616	-107.25403
0.6165	-111.38306
0.617	-115.91492
0.6175	-116.41846
0.618	-114.4043
0.6185	-118.43262
0.619	-114.80713
0.6195	-106.34766
0.62	-88.0188
0.6205	-59.92126
0.621	-32.83081
0.6215	0.80566
0.622	34.34143
0.6225	69.28711
0.623	105.6427
0.6235	127.19421
0.624	153.27759
0.6245	170.59937
0.625	179.26025
0.6255	187.21619
0.626	190.33813
0.6265	180.56946
0.627	174.72839
0.6275	164.7583
0.628	159.52148
0.6285	146.02661
0.629	134.94873
0.6295	124.27368
0.63	105.03845
0.6305	81.67419
0.631	71.09985
0.6315	51.26038
0.632	40.78674
0.6325	36.75842
0.633	28.09753
0.6335	21.85364
0.634	7.35168
0.6345	-3.92761
0.635	-17.52319
0.6355	-30.51453
0.636	-46.62781
0.6365	-52.97241
0.637	-63.84888
0.6375	-64.55383
0.638	-71.7041
0.6385	-73.21472
0.639	-69.79065
0.6395	-64.65454
0.64	-57.00073
0.6405	-51.96533
0.641	-47.13135
0.6415	-44.91577
0.642	-37.56409
0.6425	-27.49329
0.643	-16.51611
0.6435	-14.70337
0.644	-0.80566
0.6445	13.69629
0.645	25.88196
0.6455	26.18408
0.646	22.96143
0.6465	23.06213
0.647	14.70337
0.6475	14.09912
0.648	18.93311
0.6485	14.90479
0.649	10.27222
0.6495	11.78284
0.65	17.72461
0.6505	19.23523
0.651	14.09912
0.6515	16.21399
0.652	11.38
0.6525	12.28638
0.653	9.36584
0.6535	10.17151
0.654	12.89062
0.6545	17.6239
0.655	20.04089
0.6555	21.75293
0.656	31.01807
0.6565	28.70178
0.657	25.98267
0.6575	19.94019
0.658	13.797
0.6585	12.08496
0.659	17.52319
0.6595	29.00391
0.66	34.94568
0.6605	34.74426
0.661	37.06055
0.6615	28.50037
0.662	22.76001
0.6625	17.6239
0.663	10.67505
0.6635	5.94177
0.664	7.5531
0.6645	7.65381
0.665	0
0.6655	3.12195
0.666	1.40991
0.6665	-3.52478
0.667	-7.5531
0.6675	-15.00549
0.668	-14.70337
0.6685	-14.90479
0.669	-21.95435
0.6695	-27.99683
0.67	-23.36426
0.6705	-27.99683
0.671	-39.67896
0.6715	-57.8064
0.672	-79.55933
0.6725	-82.68127
0.673	-86.10535
0.6735	-88.42163
0.674	-96.8811
0.6745	-91.54358
0.675	-91.24146
0.6755	-85.80322
0.676	-72.20764
0.6765	-70.79773
0.677	-59.92126
0.6775	-41.69312
0.678	-22.6593
0.6785	-4.22974
0.679	7.15027
0.6795	18.73169
0.68	25.27771
0.6805	36.25488
0.681	36.35559
0.6815	50.95825
0.682	64.25171
0.6825	68.78357
0.683	71.09985
0.6835	65.66162
0.684	64.151
0.6845	68.88428
0.685	64.25171
0.6855	57.70569
0.686	43.00232
0.6865	31.72302
0.687	23.06213
0.6875	13.59558
0.688	1.2085
0.6885	-6.14319
0.689	-8.8623
0.6895	-7.65381
0.69	-15.1062
0.6905	-12.48779
0.691	-9.86938
0.6915	-15.40833
0.692	-34.44214
0.6925	-35.04639
0.693	-36.55701
0.6935	-42.8009
0.694	-52.36816
0.6945	-64.95667
0.695	-78.65295
0.6955	-88.72375
0.696	-95.06836
0.6965	-83.99048
0.697	-61.6333
0.6975	-30.31311
0.698	-0.70496
0.6985	23.36426
0.699	45.82214
0.6995	70.19348
0.7	85.19897
0.7005	99.60022
0.701	108.36182
0.7015	107.25403
0.702	94.86694
0.7025	77.34375
0.703	64.05029
0.7035	42.90161
0.704	40.48462
0.7045	32.7301
0.705	28.09753
0.7055	28.80249
0.706	36.75842
0.7065	34.74426
0.707	33.53577
0.7075	41.69312
0.708	49.95117
0.7085	62.74109
0.709	76.94092
0.7095	82.47986
0.71	84.79614
0.7105	67.57507
0.711	64.55383
0.7115	52.46887
0.712	38.87329
0.7125	33.03223
0.713	26.58691
0.7135	16.61682
0.714	3.92761
0.7145	-13.49487
0.715	-17.82532
0.7155	-18.42957
0.716	-22.76001
0.7165	-20.54443
0.717	-31.11877
0.7175	-36.25488
0.718	-37.7655
0.7185	-38.36975
0.719	-43.50586
0.7195	-40.58533
0.72	-39.88037
0.7205	-35.95276
0.721	-31.72302
0.7215	-16.3147
0.722	-4.63257
0.7225	4.02832
0.723	11.58142
0.7235	12.18567
0.724	17.01965
0.7245	25.47913
0.725	18.42957
0.7255	22.25647
0.726	25.27771
0.7265	33.43506
0.727	42.19666
0.7275	49.34692
0.728	45.72144
0.7285	36.05347
0.729	24.06921
0.7295	16.61682
0.73	16.11328
0.7305	3.42407
0.731	-6.94885
0.7315	-22.55859
0.732	-29.10461
0.7325	-32.12585
0.733	-30.41382
0.7335	-25.47913
0.734	-28.50037
0.7345	-17.22107
0.735	-5.63965
0.7355	-2.11487
0.736	-4.83398
0.7365	-11.78284
0.737	-12.28638
0.7375	-7.95593
0.738	-5.13611
0.7385	-13.29346
0.739	-34.44214
0.7395	-61.23047
0.74	-101.71509
0.7405	-135.45227
0.741	-151.36414
0.7415	-153.68042
0.742	-146.73157
0.7425	-137.96997
0.743	-119.94324
0.7435	-104.3335
0.744	-78.65295
0.7445	-51.76392
0.745	-22.45789
0.7455	10.37292
0.746	22.76001
0.7465	43.70728
0.747	67.37366
0.7475	88.32092
0.748	102.11792
0.7485	112.28943
0.749	118.83545
0.7495	121.05103
0.75	122.86377
0.7505	115.20996
0.751	97.78748
0.7515	82.47986
0.752	69.1864
0.7525	56.29578
0.753	53.77808
0.7535	42.59949
0.754	34.74426
0.7545	25.88196
0.755	12.78992
0.7555	2.11487
0.756	-1.10779
0.7565	-1.81274
0.757	1.61133
0.7575	9.56726
0.758	22.6593
0.7585	34.03931
0.759	40.78674
0.7595	50.65613
0.76	60.4248
0.7605	67.27295
0.761	72.50977
0.7615	75.63171
0.762	80.4657
0.7625	77.24304
0.763	72.30835
0.7635	62.13684
0.764	58.30994
0.7645	51.66321
0.765	49.44763
0.7655	41.08887
0.766	36.25488
0.7665	26.78833
0.767	16.11328
0.7675	3.62549
0.768	1.51062
0.7685	7.85522
0.769	2.92053
0.7695	2.11487
0.77	6.04248
0.7705	6.74744
0.771	-0.80566
0.7715	1.40991
0.772	-5.74036
0.7725	-4.83398
0.773	-5.53894
0.7735	-2.01416
0.774	-1.61133
0.7745	6.64673
0.775	14.09912
0.7755	12.78992
0.776	12.78992
0.7765	9.66797
0.777	6.14319
0.7775	3.32336
0.778	4.73328
0.7785	4.93469
0.779	3.7262
0.7795	-0.20142
0.78	-13.89771
0.7805	-35.44922
0.781	-54.48303
0.7815	-68.78357
0.782	-74.02039
0.7825	-74.2218
0.783	-61.23047
0.7835	-49.0448
0.784	-36.65771
0.7845	-21.55151
0.785	-5.23682
0.7855	6.94885
0.786	20.34302
0.7865	28.70178
0.787	42.90161
0.7875	45.72144
0.788	50.2533
0.7885	50.75684
0.789	59.31702
0.7895	56.19507
0.79	59.31702
0.7905	63.14392
0.791	63.04321
0.7915	57.70569
0.792	55.79224
0.7925	52.56958
0.793	43.30444
0.7935	46.22498
0.794	44.31152
0.7945	24.16992
0.795	1.2085
0.7955	-9.16443
0.796	-14.50195
0.7965	-19.43665
0.797	-16.61682
0.7975	-17.01965
0.798	-12.68921
0.7985	-5.23682
0.799	0
0.7995	4.33044
0.8	-4.63257
0.8005	-13.59558
0.801	-18.53027
0.8015	-21.24939
0.802	-18.42957
0.8025	-10.77576
0.803	-7.45239
0.8035	-4.83398
0.804	-8.05664
0.8045	-18.22815
0.805	-26.68762
0.8055	-35.65063
0.806	-40.1825
0.8065	-35.95276
0.807	-30.2124
0.8075	-29.60815
0.808	-25.177
0.8085	-18.8324
0.809	-16.41541
0.8095	-14.40125
0.81	-3.02124
0.8105	-0.40283
0.811	6.3446
0.8115	13.69629
0.812	25.37842
0.8125	33.83789
0.813	45.11719
0.8135	57.30286
0.814	52.16675
0.8145	44.91577
0.815	53.37524
0.8155	54.28162
0.816	48.94409
0.8165	41.89453
0.817	42.49878
0.8175	33.63647
0.818	30.01099
0.8185	30.71594
0.819	26.58691
0.8195	19.23523
0.82	15.00549
0.8205	18.8324
0.821	12.28638
0.8215	16.71753
0.822	22.05505
0.8225	19.83948
0.823	23.16284
0.8235	35.14709
0.824	40.38391
0.8245	47.43347
0.825	47.23206
0.8255	40.68604
0.826	15.40833
0.8265	-10.47363
0.827	-37.36267
0.8275	-50.55542
0.828	-53.87878
0.8285	-52.56958
0.829	-49.14551
0.8295	-40.38391
0.83	-30.81665
0.8305	-23.36426
0.831	-13.29346
0.8315	-13.59558
0.832	-18.8324
0.8325	-21.85364
0.833	-28.29895
0.8335	-24.06921
0.834	-27.49329
0.8345	-32.93152
0.835	-34.34143
0.8355	-33.13293
0.836	-26.48621
0.8365	-17.52319
0.837	-7.45239
0.8375	-0.10071
0.838	16.21399
0.8385	25.07629
0.839	34.44214
0.8395	57.20215
0.84	56.49719
0.8405	69.58923
0.841	75.63171
0.8415	75.12817
0.842	77.44446
0.8425	72.10693
0.843	68.88428
0.8435	63.54675
0.844	59.1156
0.8445	51.86462
0.845	33.53577
0.8455	16.61682
0.846	5.0354
0.8465	-6.2439
0.847	-16.91895
0.8475	-24.57275
0.848	-35.04639
0.8485	-41.69312
0.849	-37.26196
0.8495	-35.75134
0.85	-37.36267
0.8505	-32.12585
0.851	-25.37842
0.8515	-21.14868
0.852	-25.68054
0.8525	-29.60815
0.853	-33.63647
0.8535	-43.30444
0.854	-42.90161
0.8545	-32.93152
0.855	-30.71594
0.8555	-38.47046
0.856	-40.1825
0.8565	-39.57825
0.857	-35.54993
0.8575	-31.4209
0.858	-15.71045
0.8585	-10.57434
0.859	2.41699
0.8595	5.74036
0.86	3.92761
0.8605	2.31628
0.861	5.94177
0.8615	21.24939
0.862	18.8324
0.8625	31.4209
0.863	39.07471
0.8635	38.974
0.864	45.52002
0.8645	50.15259
0.865	54.38232
0.8655	62.13684
0.866	67.67578
0.8665	63.94958
0.867	64.35242
0.8675	59.61914
0.868	60.22339
0.8685	58.41064
0.869	57.10144
0.8695	50.55542
0.87	43.60657
0.8705	42.09595
0.871	38.67188
0.8715	28.09753
0.872	20.34302
0.8725	1.61133
0.873	-11.68213
0.8735	-24.67346
0.874	-31.4209
0.8745	-52.46887
0.875	-57.50427
0.8755	-44.81506
0.876	-34.74426
0.8765	-28.29895
0.877	-18.8324
0.8775	-14.90479
0.878	-9.06372
0.8785	2.11487
0.879	18.42957
0.8795	16.01257
0.88	-3.32336
0.8805	-7.04956
0.881	-4.22974
0.8815	-25.57983
0.882	-44.71436
0.8825	-59.61914
0.883	-60.22339
0.8835	-46.82922
0.884	-31.01807
0.8845	-24.97559
0.885	-32.62939
0.8855	-28.29895
0.886	-16.71753
0.8865	-2.41699
0.887	14.50195
0.8875	32.83081
0.888	43.50586
0.8885	47.63489
0.889	55.89294
0.8895	60.72693
0.89	53.57666
0.8905	38.26904
0.891	17.22107
0.8915	15.71045
0.892	4.12903
0.8925	3.52478
0.893	2.11487
0.8935	-0.80566
0.894	7.5531
0.8945	16.61682
0.895	30.31311
0.8955	42.19666
0.896	46.12427
0.8965	59.21631
0.897	58.10852
0.8975	53.27454
0.898	43.10303
0.8985	41.69312
0.899	32.12585
0.8995	35.54993
0.9	42.7002
0.9005	46.12427
0.901	59.41772
0.9015	59.51843
0.902	43.20374
0.9025	32.32727
0.903	31.52161
0.9035	33.73718
0.904	41.08887
0.9045	37.06055
0.905	34.14001
0.9055	25.88196
0.906	27.09045
0.9065	31.4209
0.907	34.74426
0.9075	19.73877
0.908	13.69629
0.9085	9.97009
0.909	7.95593
0.9095	-10.87646
0.91	-23.16284
0.9105	-32.12585
0.911	-39.27612
0.9115	-32.42798
0.912	-35.95276
0.9125	-30.11169
0.913	-19.53735
0.9135	-10.67505
0.914	0.40283
0.9145	9.16443
0.915	19.83948
0.9155	15.40833
0.916	-6.3446
0.9165	-29.70886
0.917	-52.8717
0.9175	-53.67737
0.918	-53.57666
0.9185	-49.64905
0.919	-51.66321
0.9195	-57.40356
0.92	-60.12268
0.9205	-47.7356
0.921	-38.47046
0.9215	-29.70886
0.922	-46.22498
0.9225	-52.97241
0.923	-50.2533
0.9235	-39.88037
0.924	-35.65063
0.9245	-15.40833
0.925	-0.90637
0.9255	20.24231
0.926	34.44214
0.9265	50.65613
0.927	65.46021
0.9275	78.14941
0.928	89.93225
0.9285	110.6781
0.929	108.86536
0.9295	98.89526
0.93	93.96057
0.9305	81.67419
0.931	75.4303
0.9315	72.20764
0.932	72.00623
0.9325	68.48145
0.933	79.2572
0.9335	82.9834
0.934	65.15808
0.9345	52.8717
0.935	42.39807
0.9355	26.48621
0.936	8.96301
0.9365	-9.26514
0.937	-15.50903
0.9375	-13.69629
0.938	-6.94885
0.9385	-10.97717
0.939	-15.40833
0.9395	-19.83948
0.94	-61.6333
0.9405	-93.15491
0.941	-104.53491
0.9415	-104.03137
0.942	-87.01172
0.9425	-73.91968
0.943	-49.95117
0.9435	-26.48621
0.944	-3.42407
0.9445	12.89062
0.945	34.03931
0.9455	53.87878
0.946	70.29419
0.9465	71.30127
0.947	69.68994
0.9475	57.60498
0.948	40.88745
0.9485	34.64355
0.949	30.2124
0.9495	22.96143
0.95	29.91028
0.9505	40.98816
0.951	51.36108
0.9515	61.33118
0.952	59.92126
0.9525	55.2887
0.953	52.46887
0.9535	45.2179
0.954	27.19116
0.9545	18.42957
0.955	11.07788
0.9555	3.22266
0.956	-0.40283
0.9565	1.61133
0.957	-0.70496
0.9575	0.60425
0.958	3.22266
0.9585	3.8269
0.959	-0.60425
0.9595	-8.56018
0.96	-7.04956
0.9605	-3.52478
0.961	-8.8623
0.9615	-7.15027
0.962	-16.41541
0.9625	-24.47205
0.963	-44.21082
0.9635	-50.45471
0.964	-56.09436
0.9645	-47.93701
0.965	-42.59949
0.9655	-37.26196
0.966	-26.28479
0.9665	-14.30054
0.967	-0.80566
0.9675	-12.38708
0.968	-33.63647
0.9685	-51.5625
0.969	-75.4303
0.9695	-80.36499
0.97	-85.60181
0.9705	-79.35791
0.971	-76.43738
0.9715	-67.07153
0.972	-45.82214
0.9725	-25.27771
0.973	1.91345
0.9735	22.76001
0.974	43.20374
0.9745	63.14392
0.975	69.89136
0.9755	73.51685
0.976	80.06287
0.9765	79.35791
0.977	85.19897
0.9775	77.54517
0.978	81.57349
0.9785	75.73242
0.979	72.81189
0.9795	77.14233
0.98	83.18481
0.9805	71.90552
0.981	63.94958
0.9815	72.20764
0.982	69.1864
0.9825	62.8418
0.983	47.93701
0.9835	23.26355
0.984	11.88354
0.9845	5.94177
0.985	5.43823
0.9855	3.02124
0.986	7.04956
0.9865	4.12903
0.987	7.75452
0.9875	5.23682
0.988	1.91345
0.9885	6.04248
0.989	6.04248
0.9895	2.5177
0.99	-7.15027
0.9905	-30.81665
0.991	-77.34375
0.9915	-90.03296
0.992	-97.48535
0.9925	-101.11084
0.993	-98.39172
0.9935	-88.0188
0.994	-68.78357
0.9945	-51.5625
0.995	-40.78674
0.9955	-25.177
0.996	-2.71912
0.9965	13.49487
0.997	15.81116
0.9975	17.6239
0.998	16.91895
0.9985	14.40125
0.999	15.91187
0.9995	20.64514
1	33.9386
1.0005	40.38391
1.001	48.44055
1.0015	56.29578
1.002	59.01489
1.0025	65.66162
1.003	52.36816
1.0035	51.5625
1.004	44.51294
1.0045	37.66479
1.005	37.06055
1.0055	49.14551
1.006	59.31702
1.0065	55.3894
1.007	51.15967
1.0075	50.45471
1.008	46.82922
1.0085	43.70728
1.009	31.01807
1.0095	23.36426
1.01	15.30762
1.0105	11.68213
1.011	2.92053
1.0115	4.43115
1.012	-2.92053
1.0125	0.50354
1.013	-0.50354
1.0135	2.21558
1.014	0.30212
1.0145	-2.21558
1.015	-1.51062
1.0155	0.60425
1.016	-1.71204
1.0165	-0.50354
1.017	0.40283
1.0175	-1.2085
1.018	-7.35168
1.0185	-14.40125
1.019	-17.6239
1.0195	-15.20691
1.02	-6.44531
1.0205	-4.22974
1.021	1.2085
1.0215	10.97717
1.022	10.87646
1.0225	3.8269
1.023	-4.02832
1.0235	-26.48621
1.024	-44.11011
1.0245	-42.39807
1.025	-45.52002
1.0255	-34.64355
1.026	-21.95435
1.0265	-19.03381
1.027	-3.12195
1.0275	10.87646
1.028	19.13452
1.0285	31.01807
1.029	35.95276
1.0295	39.37683
1.03	42.09595
1.0305	42.7002
1.031	31.32019
1.0315	23.26355
1.032	15.00549
1.0325	22.96143
1.033	25.177
1.0335	21.24939
1.034	29.20532
1.0345	25.07629
1.035	22.96143
1.0355	25.98267
1.036	16.61682
1.0365	16.71753
1.037	12.38708
1.0375	11.07788
1.038	8.35876
1.0385	18.8324
1.039	22.25647
1.0395	18.32886
1.04	11.68213
1.0405	8.56018
1.041	15.50903
1.0415	21.95435
1.042	25.07629
1.0425	20.74585
1.043	24.67346
1.0435	24.87488
1.044	23.46497
1.0445	18.8324
1.045	17.32178
1.0455	14.19983
1.046	15.71045
1.0465	11.98425
1.047	4.12903
1.0475	7.15027
1.048	9.16443
1.0485	14.70337
1.049	8.15735
1.0495	16.01257
1.05	11.58142
1.0505	6.14319
1.051	8.45947
1.0515	10.47363
1.052	4.73328
1.0525	9.26514
1.053	2.31628
1.0535	1.40991
1.054	6.04248
1.0545	12.08496
1.055	11.78284
1.0555	6.84814
1.056	6.74744
1.0565	9.97009
1.057	9.26514
1.0575	6.2439
1.058	2.71912
1.0585	6.04248
1.059	6.74744
1.0595	7.65381
1.06	7.95593
1.0605	15.1062
1.061	14.09912
1.0615	10.77576
1.062	3.8269
1.0625	8.25806
1.063	6.2439
1.0635	8.35876
1.064	9.16443
1.0645	6.84814
1.065	3.32336
1.0655	6.44531
1.066	8.8623
1.0665	9.66797
1.067	7.25098
1.0675	8.45947
1.068	10.37292
1.0685	6.2439
1.069	3.22266
1.0695	8.45947
1.07	7.85522
1.0705	12.5885
1.071	9.76868
1.0715	12.08496
1.072	10.87646
1.0725	11.07788
1.073	15.71045
1.0735	14.60266
1.074	5.84106
1.0745	5.84106
1.075	7.5531
1.0755	6.44531
1.076	3.52478
1.0765	5.33752
1.077	3.92761
1.0775	9.46655
1.078	4.12903
1.0785	9.06372
1.079	3.12195
1.0795	3.7262
1.08	3.32336
1.0805	2.41699
1.081	2.81982
1.0815	5.84106
1.082	4.33044
1.0825	4.12903
1.083	2.5177
1.0835	4.83398
1.084	7.25098
1.0845	7.25098
1.085	8.15735
1.0855	6.74744
1.086	9.36584
1.0865	4.93469
1.087	2.5177
1.0875	-0.20142
1.088	0.80566
1.0885	4.22974
1.089	1.81274
1.0895	5.43823
1.09	4.63257
1.0905	5.74036
1.091	0.90637
1.0915	3.52478
1.092	1.2085
1.0925	6.04248
1.093	3.52478
1.0935	3.62549
1.094	5.94177
1.0945	2.11487
1.095	1.61133
1.0955	3.8269
1.096	6.54602
1.0965	2.61841
1.097	0.80566
1.0975	3.92761
1.098	8.35876
1.0985	-0.90637
1.099	2.71912
1.0995	6.84814
1.1	4.33044
1.1005	3.22266
1.101	6.94885
1.1015	7.25098
1.102	7.95593
1.1025	5.74036
1.103	3.32336
1.1035	3.32336
1.104	-3.02124
1.1045	-4.73328
1.105	-2.5177
1.1055	1.51062
1.106	2.5177
1.1065	3.92761
1.107	1.61133
1.1075	3.42407
1.108	3.02124
1.1085	5.74036
1.109	0.50354
1.1095	5.74036
1.11	4.63257
1.1105	-1.00708
1.111	-0.40283
1.1115	-1.91345
1.112	-7.25098
1.1125	-8.15735
1.113	-7.45239
1.1135	-3.52478
1.114	-7.95593
1.1145	-6.74744
1.115	-7.65381
1.1155	-10.27222
1.116	-6.64673
1.1165	-3.7262
1.117	-6.44531
1.1175	-10.97717
1.118	-10.27222
1.1185	-14.30054
1.119	-7.95593
1.1195	-5.23682
1.12	2.21558
1.1205	-0.30212
1.121	-6.44531
1.1215	-4.63257
1.122	-0.70496
1.1225	-2.21558
1.123	-10.67505
1.1235	-17.32178
1.124	-24.27063
1.1245	-36.15417
1.125	-41.29028
1.1255	-40.38391
1.126	-28.39966
1.1265	-19.63806
1.127	-21.95435
1.1275	-25.177
1.128	-17.6239
1.1285	-8.56018
1.129	5.53894
1.1295	13.59558
1.13	31.11877
1.1305	20.34302
1.131	-17.52319
1.1315	-55.99365
1.132	-87.51526
1.1325	-97.48535
1.133	-84.99756
1.1335	-69.08569
1.134	-43.00232
1.1345	-20.34302
1.135	3.92761
1.1355	26.88904
1.136	54.68445
1.1365	78.85437
1.137	87.91809
1.1375	93.55774
1.138	98.29102
1.1385	107.25403
1.139	89.93225
1.1395	61.6333
1.14	30.2124
1.1405	26.88904
1.141	27.99683
1.1415	41.29028
1.142	52.16675
1.1425	62.33826
1.143	61.43188
1.1435	45.3186
1.144	29.70886
1.1445	13.69629
1.145	4.22974
1.1455	6.3446
1.146	13.39417
1.1465	13.69629
1.147	14.90479
1.1475	17.72461
1.148	17.01965
1.1485	13.49487
1.149	17.92603
1.1495	19.13452
1.15	13.29346
1.1505	13.39417
1.151	11.58142
1.1515	8.05664
1.152	7.04956
1.1525	8.66089
1.153	2.21558
1.1535	-4.83398
1.154	-3.02124
1.1545	-3.92761
1.155	-8.05664
1.1555	-4.12903
1.156	-5.84106
1.1565	-6.04248
1.157	-12.89062
1.1575	-14.50195
1.158	-9.86938
1.1585	-6.3446
1.159	-5.84106
1.1595	-18.73169
1.16	-41.39099
1.1605	-61.83472
1.161	-68.28003
1.1615	-67.8772
1.162	-61.83472
1.1625	-42.8009
1.163	-34.03931
1.1635	-21.3501
1.164	-4.22974
1.1645	11.58142
1.165	23.26355
1.1655	32.22656
1.166	48.44055
1.1665	47.13135
1.167	48.94409
1.1675	50.354
1.168	46.62781
1.1685	36.85913
1.169	28.80249
1.1695	21.24939
1.17	21.65222
1.1705	16.71753
1.171	9.16443
1.1715	-4.63257
1.172	-19.83948
1.1725	-35.34851
1.173	-31.4209
1.1735	-36.35559
1.174	-35.44922
1.1745	-28.50037
1.175	-15.00549
1.1755	-18.42957
1.176	-11.88354
1.1765	-4.02832
1.177	-1.10779
1.1775	-0.60425
1.178	2.31628
1.1785	-0.20142
1.179	-4.83398
1.1795	-4.93469
1.18	-5.74036
1.1805	-9.86938
1.181	-15.40833
1.1815	-12.28638
1.182	-9.16443
1.1825	-9.86938
1.183	-8.66089
1.1835	-8.05664
1.184	-12.48779
1.1845	-8.56018
1.185	-6.04248
1.1855	-3.62549
1.186	-6.3446
1.1865	-9.36584
1.187	-5.23682
1.1875	-3.12195
1.188	-2.11487
1.1885	-2.11487
1.189	2.5177
1.1895	-1.61133
1.19	-0.20142
1.1905	0.90637
1.191	-4.63257
1.1915	0.80566
1.192	0.30212
1.1925	5.63965
1.193	4.02832
1.1935	-3.32336
1.194	-6.74744
1.1945	1.10779
1.195	-0.10071
1.1955	1.81274
1.196	0.10071
1.1965	-5.23682
1.197	-4.53186
1.1975	-27.39258
1.198	-51.66321
1.1985	-70.59631
1.199	-89.12659
1.1995	-97.48535
1.2	-96.8811
1.2005	-76.03455
1.201	-57.70569
1.2015	-32.62939
1.202	-13.99841
1.2025	0.80566
1.203	-0.70496
1.2035	-13.09204
1.204	-35.75134
1.2045	-51.86462
1.205	-54.98657
1.2055	-48.54126
1.206	-76.63879
1.2065	-97.38464
1.207	-95.47119
1.2075	-67.77649
1.208	-27.29187
1.2085	7.5531
1.209	54.88586
1.2095	87.61597
1.21	117.52625
1.2105	132.22961
1.211	132.63245
1.2115	144.01245
1.212	140.38696
1.2125	126.89209
1.213	110.07385
1.2135	95.06836
1.214	82.78198
1.2145	28.19824
1.215	-53.47595
1.2155	-84.09119
1.216	-94.2627
1.2165	-95.06836
1.217	-83.88977
1.2175	-57.8064
1.218	-26.78833
1.2185	5.13611
1.219	39.67896
1.2195	65.86304
1.22	92.65137
1.2205	100.00305
1.221	116.51917
1.2215	110.47668
1.222	116.31775
1.2225	116.21704
1.223	94.66553
1.2235	81.67419
1.224	69.38782
1.2245	54.18091
1.225	41.4917
1.2255	44.0094
1.226	49.44763
1.2265	42.09595
1.227	33.03223
1.2275	16.01257
1.228	5.94177
1.2285	-0.80566
1.229	-2.71912
1.2295	-8.25806
1.23	-9.06372
1.2305	-25.68054
1.231	-36.85913
1.2315	-46.62781
1.232	-52.56958
1.2325	-54.78516
1.233	-52.36816
1.2335	-47.43347
1.234	-45.01648
1.2345	-27.89612
1.235	-22.45789
1.2355	-22.05505
1.236	-14.80408
1.2365	-6.74744
1.237	6.64673
1.2375	13.19275
1.238	16.11328
1.2385	20.24231
1.239	30.41382
1.2395	39.47754
1.24	38.06763
1.2405	39.98108
1.241	38.57117
1.2415	36.75842
1.242	30.41382
1.2425	24.37134
1.243	25.37842
1.2435	17.42249
1.244	12.68921
1.2445	5.63965
1.245	-1.91345
1.2455	-0.30212
1.246	-8.96301
1.2465	-9.06372
1.247	-7.95593
1.2475	-13.69629
1.248	-17.22107
1.2485	-35.34851
1.249	-36.75842
1.2495	-33.83789
1.25	-37.06055
1.2505	-39.57825
1.251	-47.63489
1.2515	-46.22498
1.252	-38.77258
1.2525	-32.7301
1.253	-21.75293
1.2535	-6.74744
1.254	0.30212
1.2545	15.20691
1.255	22.05505
1.2555	18.22815
1.256	-4.22974
1.2565	-17.6239
1.257	-29.60815
1.2575	-26.58691
1.258	-20.74585
1.2585	-16.11328
1.259	-9.26514
1.2595	-5.53894
1.26	-7.35168
1.2605	-0.40283
1.261	2.21558
1.2615	6.14319
1.262	-4.22974
1.2625	-12.18567
1.263	-21.75293
1.2635	-22.45789
1.264	-19.43665
1.2645	-11.07788
1.265	-13.49487
1.2655	-14.80408
1.266	-8.05664
1.2665	-11.88354
1.267	-6.14319
1.2675	0.90637
1.268	0.90637
1.2685	-0.20142
1.269	-6.74744
1.2695	-24.57275
1.27	-40.78674
1.2705	-47.8363
1.271	-48.54126
1.2715	-38.36975
1.272	-23.96851
1.2725	-15.91187
1.273	3.92761
1.2735	2.81982
1.274	5.94177
1.2745	13.59558
1.275	21.24939
1.2755	24.67346
1.276	37.86621
1.2765	39.57825
1.277	46.42639
1.2775	48.03772
1.278	51.15967
1.2785	54.28162
1.279	58.91418
1.2795	52.56958
1.28	25.07629
1.2805	4.22974
1.281	-14.40125
1.2815	-28.80249
1.282	-36.25488
1.2825	-41.59241
1.283	-62.74109
1.2835	-79.05579
1.284	-97.88818
1.2845	-81.06995
1.285	-67.37366
1.2855	-53.97949
1.286	-40.88745
1.2865	-20.94727
1.287	1.61133
1.2875	35.2478
1.288	67.97791
1.2885	91.94641
1.289	106.24695
1.2895	123.06519
1.29	133.23669
1.2905	138.47351
1.291	130.51758
1.2915	120.64819
1.292	111.58447
1.2925	98.39172
1.293	84.2926
1.2935	72.61047
1.294	67.47437
1.2945	53.27454
1.295	33.53577
1.2955	7.75452
1.296	-2.5177
1.2965	-6.64673
1.297	-23.46497
1.2975	-66.46729
1.298	-98.89526
1.2985	-113.80005
1.299	-127.49634
1.2995	-119.03687
1.3	-102.92358
1.3005	-73.81897
1.301	-50.354
1.3015	-33.9386
1.302	-12.78992
1.3025	-19.73877
1.303	-57.70569
1.3035	-79.15649
1.304	-87.61597
1.3045	-78.65295
1.305	-57.9071
1.3055	-42.29736
1.306	-15.30762
1.3065	1.40991
1.307	27.09045
1.3075	49.0448
1.308	68.58215
1.3085	83.99048
1.309	83.78906
1.3095	89.52942
1.31	89.12659
1.3105	82.88269
1.311	76.33667
1.3115	76.43738
1.312	62.53967
1.3125	62.23755
1.313	62.33826
1.3135	68.68286
1.314	74.02039
1.3145	66.6687
1.315	56.09436
1.3155	39.88037
1.316	20.74585
1.3165	13.49487
1.317	0.40283
1.3175	-1.71204
1.318	-7.5531
1.3185	-12.78992
1.319	-11.98425
1.3195	-18.53027
1.32	-14.30054
1.3205	-16.21399
1.321	-22.86072
1.3215	-25.27771
1.322	-20.94727
1.3225	-18.53027
1.323	-14.30054
1.3235	-13.89771
1.324	-19.53735
1.3245	-23.8678
1.325	-17.6239
1.3255	-17.92603
1.326	-16.41541
1.3265	-12.99133
1.327	-13.09204
1.3275	-8.15735
1.328	-2.92053
1.3285	3.02124
1.329	8.8623
1.3295	8.35876
1.33	20.34302
1.3305	16.01257
1.331	-3.02124
1.3315	-11.48071
1.332	-21.65222
1.3325	-19.23523
1.333	-15.1062
1.3335	-20.1416
1.334	-15.00549
1.3345	-10.17151
1.335	-8.8623
1.3355	-5.23682
1.336	-1.91345
1.3365	-0.60425
1.337	4.43115
1.3375	7.45239
1.338	6.3446
1.3385	-1.71204
1.339	-6.54602
1.3395	-26.48621
1.34	-49.54834
1.3405	-72.61047
1.341	-76.13525
1.3415	-75.53101
1.342	-61.23047
1.3425	-50.15259
1.343	-30.51453
1.3435	-12.68921
1.344	7.04956
1.3445	24.37134
1.345	38.06763
1.3455	52.26746
1.346	51.26038
1.3465	48.94409
1.347	47.63489
1.3475	44.11011
1.348	38.67188
1.3485	16.11328
1.349	2.01416
1.3495	-10.0708
1.35	-16.11328
1.3505	-12.99133
1.351	-10.77576
1.3515	-10.17151
1.352	-1.2085
1.3525	3.52478
1.353	4.22974
1.3535	12.08496
1.354	23.76709
1.3545	32.52869
1.355	38.57117
1.3555	44.61365
1.356	43.20374
1.3565	37.36267
1.357	39.57825
1.3575	39.77966
1.358	30.61523
1.3585	22.25647
1.359	25.78125
1.3595	27.89612
1.36	19.03381
1.3605	7.5531
1.361	2.21558
1.3615	-7.95593
1.362	-7.75452
1.3625	-0.80566
1.363	1.00708
1.3635	-6.2439
1.364	-16.51611
1.3645	-18.02673
1.365	-20.84656
1.3655	-15.81116
1.366	-5.74036
1.3665	1.10779
1.367	10.47363
1.3675	9.26514
1.368	-2.21558
1.3685	-9.97009
1.369	-11.88354
1.3695	-5.84106
1.37	-6.64673
1.3705	4.02832
1.371	-14.70337
1.3715	-31.21948
1.372	-48.03772
1.3725	-57.8064
1.373	-59.51843
1.3735	-59.41772
1.374	-55.2887
1.3745	-51.5625
1.375	-39.37683
1.3755	-18.8324
1.376	-14.09912
1.3765	-13.69629
1.377	-1.51062
1.3775	1.40991
1.378	19.83948
1.3785	37.56409
1.379	51.66321
1.3795	53.57666
1.38	49.85046
1.3805	42.39807
1.381	44.11011
1.3815	42.39807
1.382	40.98816
1.3825	46.42639
1.383	51.15967
1.3835	60.22339
1.384	70.49561
1.3845	67.07153
1.385	58.30994
1.3855	52.67029
1.386	38.57117
1.3865	36.35559
1.387	37.36267
1.3875	33.13293
1.388	28.70178
1.3885	24.87488
1.389	26.18408
1.3895	24.67346
1.39	28.39966
1.3905	32.52869
1.391	31.72302
1.3915	29.70886
1.392	28.50037
1.3925	25.88196
1.393	24.67346
1.3935	22.6593
1.394	22.15576
1.3945	19.23523
1.395	15.60974
1.3955	11.48071
1.396	2.71912
1.3965	-2.01416
1.397	-6.84814
1.3975	-6.3446
1.398	-12.99133
1.3985	-13.797
1.399	-21.85364
1.3995	-20.94727
1.4	-12.99133
1.4005	-11.58142
1.401	-19.13452
1.4015	-37.66479
1.402	-52.16675
1.4025	-57.60498
1.403	-52.46887
1.4035	-39.07471
1.404	-31.62231
1.4045	-14.19983
1.405	5.0354
1.4055	24.47205
1.406	33.23364
1.4065	34.94568
1.407	39.77966
1.4075	44.41223
1.408	44.11011
1.4085	41.99524
1.409	37.7655
1.4095	24.67346
1.41	12.89062
1.4105	-3.42407
1.411	-7.75452
1.4115	-4.43115
1.412	-8.25806
1.4125	-10.87646
1.413	-9.97009
1.4135	-14.50195
1.414	-17.01965
1.4145	-24.97559
1.415	-28.50037
1.4155	-16.91895
1.416	-9.97009
1.4165	-6.74744
1.417	-0.90637
1.4175	4.43115
1.418	6.3446
1.4185	10.67505
1.419	12.99133
1.4195	17.6239
1.42	19.73877
1.4205	22.15576
1.421	22.55859
1.4215	19.83948
1.422	21.14868
1.4225	24.57275
1.423	18.42957
1.4235	13.59558
1.424	13.29346
1.4245	10.0708
1.425	8.45947
1.4255	6.3446
1.426	6.84814
1.4265	0.90637
1.427	-1.00708
1.4275	0.70496
1.428	1.2085
1.4285	-6.04248
1.429	-17.32178
1.4295	-39.37683
1.43	-55.59082
1.4305	-62.74109
1.431	-80.76782
1.4315	-81.57349
1.432	-80.4657
1.4325	-72.71118
1.433	-53.77808
1.4335	-26.48621
1.434	-1.2085
1.4345	21.04797
1.435	36.75842
1.4355	53.07312
1.436	66.87012
1.4365	73.71826
1.437	84.69543
1.4375	89.83154
1.438	85.29968
1.4385	66.87012
1.439	59.21631
1.4395	52.67029
1.44	41.59241
1.4405	31.11877
1.441	13.49487
1.4415	2.41699
1.442	-4.22974
1.4425	-23.56567
1.443	-36.35559
1.4435	-32.7301
1.444	-45.3186
1.4445	-45.92285
1.445	-51.36108
1.4455	-39.98108
1.446	-30.81665
1.4465	-11.17859
1.447	-0.10071
1.4475	15.81116
1.448	22.05505
1.4485	45.11719
1.449	48.84338
1.4495	40.78674
1.45	43.40515
1.4505	41.29028
1.451	35.44922
1.4515	23.36426
1.452	14.80408
1.4525	-4.22974
1.453	-28.9032
1.4535	-27.19116
1.454	-25.98267
1.4545	-14.40125
1.455	-19.13452
1.4555	-17.82532
1.456	-9.26514
1.4565	-2.21558
1.457	-0.30212
1.4575	3.52478
1.458	4.73328
1.4585	7.65381
1.459	15.81116
1.4595	21.45081
1.46	29.00391
1.4605	44.81506
1.461	45.01648
1.4615	52.16675
1.462	48.94409
1.4625	58.00781
1.463	68.17932
1.4635	75.32959
1.464	67.57507
1.4645	59.31702
1.465	48.44055
1.4655	39.47754
1.466	22.76001
1.4665	4.53186
1.467	1.40991
1.4675	4.53186
1.468	3.32336
1.4685	3.22266
1.469	-9.36584
1.4695	-33.03223
1.47	-47.03064
1.4705	-65.46021
1.471	-70.3949
1.4715	-66.36658
1.472	-66.76941
1.4725	-62.13684
1.473	-45.82214
1.4735	-23.46497
1.474	-1.10779
1.4745	23.36426
1.475	39.88037
1.4755	55.79224
1.476	78.55225
1.4765	80.26428
1.477	84.69543
1.4775	71.7041
1.478	65.25879
1.4785	64.65454
1.479	65.66162
1.4795	64.35242
1.48	56.29578
1.4805	40.08179
1.481	26.18408
1.4815	12.89062
1.482	9.86938
1.4825	7.25098
1.483	16.91895
1.4835	-2.92053
1.484	-20.74585
1.4845	-34.03931
1.485	-36.4563
1.4855	-36.35559
1.486	-34.64355
1.4865	-22.96143
1.487	-10.77576
1.4875	-5.23682
1.488	-2.01416
1.4885	9.46655
1.489	13.19275
1.4895	14.09912
1.49	19.94019
1.4905	17.6239
1.491	16.81824
1.4915	21.45081
1.492	21.14868
1.4925	17.12036
1.493	13.89771
1.4935	11.2793
1.494	20.54443
1.4945	11.38
1.495	12.18567
1.4955	11.07788
1.496	14.40125
1.4965	7.45239
1.497	10.97717
1.4975	8.05664
1.498	9.86938
1.4985	11.58142
1.499	7.15027
1.4995	6.74744
1.5	6.44531
1.5005	-1.2085
1.501	-5.23682
1.5015	-3.42407
1.502	-14.40125
1.5025	-11.68213
1.503	-6.54602
1.5035	-5.74036
1.504	-8.45947
1.5045	-10.47363
1.505	-6.04248
1.5055	-0.70496
1.506	-2.11487
1.5065	-4.63257
1.507	0.40283
1.5075	-2.81982
1.508	-4.83398
1.5085	-1.2085
1.509	-3.02124
1.5095	-15.81116
1.51	-25.47913
1.5105	-32.22656
1.511	-32.12585
1.5115	-29.00391
1.512	-27.39258
1.5125	-33.53577
1.513	-44.0094
1.5135	-40.78674
1.514	-37.26196
1.5145	-23.36426
1.515	-16.81824
1.5155	-10.77576
1.516	2.92053
1.5165	14.60266
1.517	27.89612
1.5175	44.51294
1.518	52.36816
1.5185	40.08179
1.519	14.80408
1.5195	-14.19983
1.52	-40.2832
1.5205	-82.88269
1.521	-104.3335
1.5215	-99.09668
1.522	-74.32251
1.5225	-43.80798
1.523	-20.24231
1.5235	18.42957
1.524	51.36108
1.5245	64.05029
1.525	81.67419
1.5255	84.19189
1.526	87.01172
1.5265	78.55225
1.527	69.1864
1.5275	53.57666
1.528	48.74268
1.5285	51.36108
1.529	49.24622
1.5295	54.78516
1.53	48.64197
1.5305	45.72144
1.531	45.2179
1.5315	42.39807
1.532	31.21948
1.5325	28.09753
1.533	28.9032
1.5335	20.64514
1.534	27.39258
1.5345	37.7655
1.535	35.95276
1.5355	45.2179
1.536	53.07312
1.5365	59.51843
1.537	60.3241
1.5375	64.05029
1.538	51.26038
1.5385	36.95984
1.539	34.24072
1.5395	27.79541
1.54	19.63806
1.5405	10.77576
1.541	3.52478
1.5415	-13.29346
1.542	-22.86072
1.5425	-24.57275
1.543	-20.64514
1.5435	-19.43665
1.544	-23.56567
1.5445	-36.55701
1.545	-41.59241
1.5455	-45.2179
1.546	-50.05188
1.5465	-41.79382
1.547	-35.54993
1.5475	-23.36426
1.548	-15.81116
1.5485	-6.04248
1.549	5.43823
1.5495	15.71045
1.55	24.27063
1.5505	31.72302
1.551	28.50037
1.5515	25.98267
1.552	35.54993
1.5525	28.9032
1.553	22.96143
1.5535	20.74585
1.554	17.01965
1.5545	15.60974
1.555	20.54443
1.5555	24.97559
1.556	23.66638
1.5565	10.17151
1.557	-5.84106
1.5575	-5.94177
1.558	-8.35876
1.5585	-12.48779
1.559	-10.87646
1.5595	-5.94177
1.56	-3.52478
1.5605	4.33044
1.561	2.5177
1.5615	-3.7262
1.562	-18.73169
1.5625	-22.86072
1.563	-22.86072
1.5635	-23.26355
1.564	-15.00549
1.5645	-7.04956
1.565	2.41699
1.5655	-3.22266
1.566	-9.66797
1.5665	-10.27222
1.567	-13.49487
1.5675	-24.97559
1.568	-35.54993
1.5685	-39.67896
1.569	-31.32019
1.5695	-29.40674
1.57	-18.8324
1.5705	-12.28638
1.571	0.60425
1.5715	1.81274
1.572	8.05664
1.5725	9.86938
1.573	4.53186
1.5735	8.45947
1.574	8.56018
1.5745	9.16443
1.575	11.48071
1.5755	19.94019
1.576	18.32886
1.5765	20.04089
1.577	28.09753
1.5775	35.65063
1.578	37.26196
1.5785	27.59399
1.579	39.88037
1.5795	31.21948
1.58	25.177
1.5805	27.6947
1.581	23.06213
1.5815	20.94727
1.582	19.33594
1.5825	13.39417
1.583	6.3446
1.5835	7.5531
1.584	8.8623
1.5845	10.37292
1.585	7.15027
1.5855	8.05664
1.586	14.60266
1.5865	8.66089
1.587	6.3446
1.5875	5.63965
1.588	6.04248
1.5885	-6.94885
1.589	-23.8678
1.5895	-51.5625
1.59	-79.86145
1.5905	-96.8811
1.591	-109.16748
1.5915	-111.38306
1.592	-113.39722
1.5925	-92.75208
1.593	-65.96375
1.5935	-28.39966
1.594	8.66089
1.5945	39.27612
1.595	56.49719
1.5955	76.53809
1.596	78.45154
1.5965	86.70959
1.597	83.68835
1.5975	86.70959
1.598	84.2926
1.5985	74.02039
1.599	56.29578
1.5995	28.50037
1.6	2.31628
1.6005	-15.40833
1.601	-32.62939
1.6015	-37.96692
1.602	-27.79541
1.6025	-16.81824
1.603	-21.14868
1.6035	-17.32178
1.604	-13.39417
1.6045	-3.8269
1.605	9.46655
1.6055	22.05505
1.606	30.61523
1.6065	35.75134
1.607	32.12585
1.6075	24.67346
1.608	21.04797
1.6085	27.6947
1.609	26.3855
1.6095	25.78125
1.61	33.13293
1.6105	23.26355
1.611	20.44373
1.6115	10.57434
1.612	13.99841
1.6125	12.89062
1.613	10.37292
1.6135	9.46655
1.614	8.25806
1.6145	4.53186
1.615	9.66797
1.6155	5.13611
1.616	12.18567
1.6165	8.7616
1.617	13.89771
1.6175	9.97009
1.618	10.27222
1.6185	9.36584
1.619	3.22266
1.6195	10.47363
1.62	4.02832
1.6205	-0.90637
1.621	-23.66638
1.6215	-48.54126
1.622	-62.43896
1.6225	-68.28003
1.623	-69.99207
1.6235	-65.86304
1.624	-58.41064
1.6245	-39.98108
1.625	-24.67346
1.6255	-2.5177
1.626	11.68213
1.6265	17.22107
1.627	17.82532
1.6275	19.43665
1.628	19.53735
1.6285	16.81824
1.629	14.60266
1.6295	19.63806
1.63	13.49487
1.6305	22.35718
1.631	31.92444
1.6315	29.60815
1.632	39.88037
1.6325	32.12585
1.633	17.6239
1.6335	14.60266
1.634	-1.00708
1.6345	0.20142
1.635	3.42407
1.6355	5.53894
1.636	5.94177
1.6365	4.12903
1.637	-1.40991
1.6375	-0.20142
1.638	8.66089
1.6385	15.81116
1.639	19.83948
1.6395	15.1062
1.64	12.89062
1.6405	12.48779
1.641	9.56726
1.6415	9.16443
1.642	13.99841
1.6425	11.88354
1.643	9.66797
1.6435	0.90637
1.644	2.61841
1.6445	8.96301
1.645	6.54602
1.6455	5.0354
1.646	4.12903
1.6465	9.97009
1.647	6.04248
1.6475	3.8269
1.648	8.35876
1.6485	3.8269
1.649	3.52478
1.6495	5.63965
1.65	7.85522
1.6505	4.43115
1.651	8.66089
1.6515	4.33044
1.652	4.22974
1.6525	2.92053
1.653	-0.90637
1.6535	0.40283
1.654	0.50354
1.6545	-0.60425
1.655	-1.61133
1.6555	1.3092
1.656	-6.84814
1.6565	-7.75452
1.657	-8.45947
1.6575	-7.15027
1.658	-4.93469
1.6585	-8.05664
1.659	-3.12195
1.6595	-5.63965
1.66	-10.47363
1.6605	-15.30762
1.661	-13.09204
1.6615	-13.19275
1.662	-13.59558
1.6625	-13.29346
1.663	-15.40833
1.6635	-18.32886
1.664	-20.34302
1.6645	-16.41541
1.665	-20.64514
1.6655	-26.08337
1.666	-29.30603
1.6665	-37.7655
1.667	-35.34851
1.6675	-40.38391
1.668	-17.42249
1.6685	-11.17859
1.669	-1.91345
1.6695	9.46655
1.67	19.73877
1.6705	31.72302
1.671	39.67896
1.6715	36.95984
1.672	43.60657
1.6725	48.74268
1.673	45.72144
1.6735	43.00232
1.674	36.05347
1.6745	30.11169
1.675	23.96851
1.6755	18.93311
1.676	15.91187
1.6765	19.53735
1.677	20.34302
1.6775	16.81824
1.678	21.3501
1.6785	10.47363
1.679	2.92053
1.6795	6.54602
1.68	7.35168
1.6805	13.19275
1.681	15.50903
1.6815	20.04089
1.682	24.97559
1.6825	31.21948
1.683	34.84497
1.6835	38.974
1.684	15.40833
1.6845	-11.07788
1.685	-26.68762
1.6855	-32.83081
1.686	-31.82373
1.6865	-27.59399
1.687	-18.63098
1.6875	-6.64673
1.688	-4.33044
1.6885	3.12195
1.689	6.2439
1.6895	12.38708
1.69	1.3092
1.6905	-0.90637
1.691	-6.84814
1.6915	-8.35876
1.692	-23.46497
1.6925	-49.0448
1.693	-79.45862
1.6935	-88.72375
1.694	-80.76782
1.6945	-73.21472
1.695	-55.99365
1.6955	-24.47205
1.696	3.22266
1.6965	23.16284
1.697	49.95117
1.6975	72.81189
1.698	95.37048
1.6985	118.33191
1.699	125.07935
1.6995	126.9928
1.7	116.21704
1.7005	98.99597
1.701	77.64587
1.7015	71.40198
1.702	67.67578
1.7025	64.25171
1.703	67.47437
1.7035	54.48303
1.704	34.94568
1.7045	13.59558
1.705	-1.10779
1.7055	-9.46655
1.706	-26.68762
1.7065	-36.25488
1.707	-31.72302
1.7075	-23.56567
1.708	-7.25098
1.7085	4.83398
1.709	13.39417
1.7095	18.73169
1.71	14.19983
1.7105	-33.43506
1.711	-53.27454
1.7115	-47.33276
1.712	-35.2478
1.7125	-51.5625
1.713	-85.90393
1.7135	-116.82129
1.714	-124.4751
1.7145	-102.11792
1.715	-67.37366
1.7155	-23.06213
1.716	3.02124
1.7165	31.01807
1.717	40.38391
1.7175	29.10461
1.718	30.71594
1.7185	29.91028
1.719	33.33435
1.7195	32.32727
1.72	35.54993
1.7205	35.14709
1.721	-12.99133
1.7215	-56.19507
1.722	-54.38232
1.7225	-48.44055
1.723	-51.36108
1.7235	-49.24622
1.724	-23.96851
1.7245	-8.25806
1.725	21.65222
1.7255	40.78674
1.726	43.80798
1.7265	49.44763
1.727	72.71118
1.7275	84.79614
1.728	84.99756
1.7285	81.17065
1.729	78.04871
1.7295	62.64038
1.73	45.41931
1.7305	38.974
1.731	34.34143
1.7315	27.6947
1.732	25.07629
1.7325	25.37842
1.733	19.53735
1.7335	13.797
1.734	9.56726
1.7345	10.97717
1.735	21.85364
1.7355	29.00391
1.736	22.86072
1.7365	20.34302
1.737	17.42249
1.7375	11.88354
1.738	2.92053
1.7385	-6.84814
1.739	-8.35876
1.7395	-28.19824
1.74	-43.40515
1.7405	-52.8717
1.741	-61.23047
1.7415	-58.81348
1.742	-54.78516
1.7425	-49.85046
1.743	-49.95117
1.7435	-50.354
1.744	-39.77966
1.7445	-57.10144
1.745	-89.328
1.7455	-105.44128
1.746	-102.92358
1.7465	-88.42163
1.747	-70.69702
1.7475	-44.0094
1.748	-11.68213
1.7485	19.13452
1.749	51.26038
1.7495	77.14233
1.75	100.50659
1.7505	110.98022
1.751	109.67102
1.7515	109.4696
1.752	109.16748
1.7525	96.37756
1.753	78.04871
1.7535	62.13684
1.754	46.62781
1.7545	41.59241
1.755	37.06055
1.7555	31.92444
1.756	25.07629
1.7565	8.8623
1.757	5.43823
1.7575	-8.8623
1.758	-16.3147
1.7585	-22.55859
1.759	-34.03931
1.7595	-32.7301
1.76	-29.10461
1.7605	-45.82214
1.761	-73.51685
1.7615	-121.45386
1.762	-124.27368
1.7625	-134.24377
1.763	-142.70325
1.7635	-163.95264
1.764	-156.50024
1.7645	-163.85193
1.765	-152.06909
1.7655	-110.6781
1.766	-46.72852
1.7665	10.67505
1.767	78.45154
1.7675	132.0282
1.768	189.12964
1.7685	225.0824
1.769	242.10205
1.7695	241.4978
1.77	244.31763
1.7705	239.68506
1.771	222.06116
1.7715	193.76221
1.772	156.90308
1.7725	130.31616
1.773	94.2627
1.7735	73.21472
1.774	56.5979
1.7745	34.94568
1.775	2.21558
1.7755	-29.00391
1.776	-44.31152
1.7765	-45.72144
1.777	-65.46021
1.7775	-84.99756
1.778	-104.73633
1.7785	-115.61279
1.779	-118.02979
1.7795	-123.46802
1.78	-119.23828
1.7805	-103.93066
1.781	-68.17932
1.7815	-50.45471
1.782	-21.04797
1.7825	-1.00708
1.783	10.0708
1.7835	5.74036
1.784	14.30054
1.7845	29.60815
1.785	38.57117
1.7855	54.48303
1.786	77.04163
1.7865	95.47119
1.787	88.82446
1.7875	90.83862
1.788	82.9834
1.7885	67.07153
1.789	46.32568
1.7895	43.50586
1.79	39.47754
1.7905	32.93152
1.791	31.21948
1.7915	19.43665
1.792	12.78992
1.7925	-3.62549
1.793	-5.0354
1.7935	-23.76709
1.794	-40.48462
1.7945	-47.33276
1.795	-39.98108
1.7955	-38.06763
1.796	-39.07471
1.7965	-31.82373
1.797	-34.54285
1.7975	-37.26196
1.798	-55.08728
1.7985	-43.50586
1.799	-36.75842
1.7995	-20.04089
1.8	-13.29346
1.8005	-3.42407
1.801	6.44531
1.8015	11.78284
1.802	22.45789
1.8025	24.77417
1.803	23.56567
1.8035	29.60815
1.804	24.57275
1.8045	25.37842
1.805	22.15576
1.8055	20.74585
1.806	11.68213
1.8065	8.15735
1.807	9.06372
1.8075	5.53894
1.808	5.53894
1.8085	4.73328
1.809	-7.5531
1.8095	-16.21399
1.81	-30.11169
1.8105	-32.12585
1.811	-30.31311
1.8115	-26.88904
1.812	-25.98267
1.8125	-22.55859
1.813	-21.14868
1.8135	-6.74744
1.814	5.84106
1.8145	20.54443
1.815	29.60815
1.8155	33.53577
1.816	38.26904
1.8165	32.83081
1.817	25.98267
1.8175	20.54443
1.818	15.81116
1.8185	28.80249
1.819	39.57825
1.8195	37.46338
1.82	46.32568
1.8205	46.92993
1.821	44.71436
1.8215	47.43347
1.822	38.974
1.8225	40.88745
1.823	43.30444
1.8235	43.40515
1.824	44.81506
1.8245	41.4917
1.825	24.06921
1.8255	4.63257
1.826	-13.59558
1.8265	-7.95593
1.827	-9.97009
1.8275	-25.98267
1.828	-36.65771
1.8285	-54.58374
1.829	-78.95508
1.8295	-84.79614
1.83	-70.99915
1.8305	-38.67188
1.831	-0.60425
1.8315	34.24072
1.832	49.14551
1.8325	70.59631
1.833	78.04871
1.8335	90.03296
1.834	93.35632
1.8345	101.9165
1.835	115.31067
1.8355	106.54907
1.836	83.88977
1.8365	62.43896
1.837	47.53418
1.8375	42.49878
1.838	15.91187
1.8385	-14.80408
1.839	-31.52161
1.8395	-32.7301
1.84	-32.02515
1.8405	-26.88904
1.841	-20.1416
1.8415	-5.13611
1.842	18.42957
1.8425	34.64355
1.843	46.12427
1.8435	47.03064
1.844	36.05347
1.8445	19.83948
1.845	7.45239
1.8455	1.3092
1.846	6.04248
1.8465	11.38
1.847	15.00549
1.8475	23.96851
1.848	26.3855
1.8485	26.78833
1.849	22.35718
1.8495	15.40833
1.85	14.30054
1.8505	27.09045
1.851	19.83948
1.8515	14.50195
1.852	-4.33044
1.8525	-16.01257
1.853	-28.09753
1.8535	-22.6593
1.854	-34.14001
1.8545	-35.75134
1.855	-23.56567
1.8555	-9.26514
1.856	0.10071
1.8565	9.26514
1.857	16.21399
1.8575	31.52161
1.858	28.39966
1.8585	35.2478
1.859	42.39807
1.8595	38.87329
1.86	38.87329
1.8605	34.84497
1.861	28.9032
1.8615	28.09753
1.862	27.59399
1.8625	23.66638
1.863	17.22107
1.8635	7.45239
1.864	8.56018
1.8645	5.43823
1.865	0.90637
1.8655	-5.53894
1.866	-4.12903
1.8665	-10.27222
1.867	-14.90479
1.8675	-7.5531
1.868	-8.15735
1.8685	-14.30054
1.869	-17.82532
1.8695	-19.43665
1.87	-12.08496
1.8705	-5.13611
1.871	-4.63257
1.8715	-2.92053
1.872	10.97717
1.8725	14.50195
1.873	21.14868
1.8735	9.86938
1.874	-17.12036
1.8745	-48.84338
1.875	-59.21631
1.8755	-64.55383
1.876	-60.22339
1.8765	-50.85754
1.877	-29.40674
1.8775	-10.0708
1.878	13.29346
1.8785	31.32019
1.879	33.83789
1.8795	37.46338
1.88	41.59241
1.8805	45.62073
1.881	44.31152
1.8815	46.42639
1.882	50.2533
1.8825	45.3186
1.883	41.69312
1.8835	41.39099
1.884	34.84497
1.8845	29.20532
1.885	22.86072
1.8855	15.00549
1.886	4.43115
1.8865	1.00708
1.887	-2.71912
1.8875	5.33752
1.888	-0.60425
1.8885	0.70496
1.889	-1.61133
1.8895	2.21558
1.89	6.74744
1.8905	17.6239
1.891	12.5885
1.8915	16.81824
1.892	13.59558
1.8925	15.60974
1.893	15.30762
1.8935	14.80408
1.894	11.2793
1.8945	15.20691
1.895	7.65381
1.8955	6.3446
1.896	9.86938
1.8965	9.97009
1.897	12.08496
1.8975	2.01416
1.898	-5.43823
1.8985	-3.62549
1.899	0
1.8995	1.81274
1.9	-1.3092
1.9005	7.65381
1.901	17.01965
1.9015	22.86072
1.902	16.71753
1.9025	2.21558
1.903	-9.26514
1.9035	-16.61682
1.904	-11.68213
1.9045	-4.93469
1.905	5.63965
1.9055	14.09912
1.906	26.88904
1.9065	33.73718
1.907	33.83789
1.9075	37.66479
1.908	40.2832
1.9085	38.06763
1.909	43.90869
1.9095	49.54834
1.91	52.67029
1.9105	56.49719
1.911	42.29736
1.9115	26.28479
1.912	-3.7262
1.9125	-31.82373
1.913	-48.54126
1.9135	-60.22339
1.914	-75.02747
1.9145	-88.72375
1.915	-86.8103
1.9155	-72.71118
1.916	-58.41064
1.9165	-49.74976
1.917	-40.88745
1.9175	-43.50586
1.918	-36.55701
1.9185	-41.29028
1.919	-36.25488
1.9195	-27.19116
1.92	-19.73877
1.9205	-14.09912
1.921	-10.97717
1.9215	0.10071
1.922	1.40991
1.9225	11.2793
1.923	9.86938
1.9235	14.50195
1.924	10.0708
1.9245	5.74036
1.925	10.47363
1.9255	2.41699
1.926	3.52478
1.9265	-3.92761
1.927	-0.10071
1.9275	4.02832
1.928	2.92053
1.9285	-1.81274
1.929	2.71912
1.9295	1.81274
1.93	1.81274
1.9305	0.60425
1.931	6.54602
1.9315	12.5885
1.932	12.89062
1.9325	8.8623
1.933	13.29346
1.9335	20.84656
1.934	27.19116
1.9345	17.92603
1.935	30.61523
1.9355	38.36975
1.936	43.70728
1.9365	33.9386
1.937	16.3147
1.9375	-1.3092
1.938	-6.44531
1.9385	-1.71204
1.939	4.12903
1.9395	7.85522
1.94	13.29346
1.9405	25.57983
1.941	34.03931
1.9415	32.7301
1.942	36.85913
1.9425	35.14709
1.943	33.23364
1.9435	23.26355
1.944	6.2439
1.9445	-13.59558
1.945	-62.23755
1.9455	-105.13916
1.946	-123.06519
1.9465	-112.99438
1.947	-86.91101
1.9475	-58.41064
1.948	-24.57275
1.9485	5.33752
1.949	28.19824
1.9495	48.33984
1.95	66.87012
1.9505	76.43738
1.951	75.93384
1.9515	83.38623
1.952	71.20056
1.9525	63.34534
1.953	59.01489
1.9535	55.3894
1.954	38.67188
1.9545	10.57434
1.955	-14.50195
1.9555	-32.22656
1.956	-47.53418
1.9565	-49.44763
1.957	-36.75842
1.9575	-18.53027
1.958	-0.10071
1.9585	8.25806
1.959	23.06213
1.9595	33.03223
1.96	36.85913
1.9605	33.83789
1.961	34.24072
1.9615	33.83789
1.962	37.36267
1.9625	44.91577
1.963	47.23206
1.9635	50.65613
1.964	44.0094
1.9645	30.2124
1.965	25.57983
1.9655	17.72461
1.966	7.85522
1.9665	3.7262
1.967	7.04956
1.9675	2.61841
1.968	1.81274
1.9685	-0.70496
1.969	2.92053
1.9695	1.3092
1.97	7.65381
1.9705	0.40283
1.971	-3.62549
1.9715	-4.73328
1.972	-18.53027
1.9725	-12.78992
1.973	-9.66797
1.9735	-9.56726
1.974	-8.25806
1.9745	-4.22974
1.975	-5.23682
1.9755	-0.90637
1.976	5.53894
1.9765	-3.52478
1.977	-3.7262
1.9775	-1.61133
1.978	1.10779
1.9785	-5.33752
1.979	-13.49487
1.9795	-6.64673
1.98	-10.47363
1.9805	-10.57434
1.981	-2.61841
1.9815	0.50354
1.982	5.13611
1.9825	-6.84814
1.983	-2.31628
1.9835	-1.81274
1.984	2.11487
1.9845	-0.50354
1.985	-4.33044
1.9855	-2.92053
1.986	-7.65381
1.9865	-6.74744
1.987	-15.81116
1.9875	-21.3501
1.988	-36.15417
1.9885	-42.49878
1.989	-48.03772
1.9895	-46.22498
1.99	-39.17542
1.9905	-38.67188
1.991	-36.65771
1.9915	-26.58691
1.992	-17.6239
1.9925	-10.77576
1.993	5.84106
1.9935	14.30054
1.994	15.50903
1.9945	2.81982
1.995	7.15027
1.9955	25.47913
1.996	42.09595
1.9965	43.70728
1.997	29.50745
1.9975	24.97559
1.998	21.75293
1.9985	23.26355
1.999	24.27063
1.9995	23.8678
2	23.8678
2.0005	23.76709
2.001	14.80408
2.0015	16.41541
2.002	11.68213
2.0025	13.19275
2.003	7.75452
2.0035	-1.71204
2.004	-6.84814
2.0045	-7.35168
2.005	-1.2085
2.0055	2.01416
2.006	2.92053
2.0065	8.05664
2.007	4.22974
2.0075	3.02124
2.008	11.2793
2.0085	13.69629
2.009	-16.81824
2.0095	-75.12817
2.01	-121.45386
2.0105	-125.98572
2.011	-121.35315
2.0115	-89.12659
2.012	-63.44604
2.0125	-26.08337
2.013	8.35876
2.0135	31.52161
2.014	49.85046
2.0145	70.09277
2.015	77.948
2.0155	83.99048
2.016	73.41614
2.0165	67.27295
2.017	49.44763
2.0175	47.43347
2.018	36.55701
2.0185	14.60266
2.019	8.25806
2.0195	-2.01416
2.02	-11.58142
2.0205	-18.93311
2.021	-17.6239
2.0215	-4.12903
2.022	3.22266
2.0225	9.26514
2.023	13.69629
2.0235	8.96301
2.024	4.33044
2.0245	-16.21399
2.025	-42.90161
2.0255	-62.23755
2.026	-66.26587
2.0265	-61.33118
2.027	-50.55542
2.0275	-41.99524
2.028	-23.36426
2.0285	3.52478
2.029	13.09204
2.0295	29.00391
2.03	41.08887
2.0305	44.91577
2.031	36.75842
2.0315	39.37683
2.032	45.01648
2.0325	37.86621
2.033	36.05347
2.0335	23.36426
2.034	14.70337
2.0345	0.60425
2.035	-2.31628
2.0355	-4.02832
2.036	-14.30054
2.0365	-15.71045
2.037	-22.05505
2.0375	-17.6239
2.038	-18.12744
2.0385	-16.51611
2.039	-17.12036
2.0395	-11.68213
2.04	-4.02832
2.0405	5.0354
2.041	2.11487
2.0415	9.86938
2.042	10.97717
2.0425	6.2439
2.043	3.22266
2.0435	-1.61133
2.044	-5.74036
2.0445	-3.32336
2.045	-7.04956
2.0455	-5.0354
2.046	-7.04956
2.0465	-4.22974
2.047	-4.63257
2.0475	2.21558
2.048	5.84106
2.0485	0.90637
2.049	1.71204
2.0495	1.81274
2.05	0.50354
2.0505	6.44531
2.051	6.94885
2.0515	3.02124
2.052	5.13611
2.0525	7.04956
2.053	4.33044
2.0535	-1.00708
2.054	-5.74036
2.0545	-14.70337
2.055	-18.53027
2.0555	-15.00549
2.056	-10.47363
2.0565	-0.50354
2.057	5.84106
2.0575	14.50195
2.058	26.58691
2.0585	9.36584
2.059	-25.47913
2.0595	-45.52002
2.06	-57.50427
2.0605	-54.38232
2.061	-48.74268
2.0615	-29.60815
2.062	10.97717
2.0625	39.77966
2.063	52.36816
2.0635	61.02905
2.064	57.00073
2.0645	52.8717
2.065	53.47595
2.0655	44.21082
2.066	36.05347
2.0665	22.76001
2.067	14.50195
2.0675	13.49487
2.068	6.44531
2.0685	-16.61682
2.069	-42.29736
2.0695	-39.47754
2.07	-35.34851
2.0705	-27.39258
2.071	-14.90479
2.0715	-10.17151
2.072	-6.04248
2.0725	-2.31628
2.073	0.20142
2.0735	-2.92053
2.074	-7.95593
2.0745	-11.68213
2.075	-15.20691
2.0755	-12.48779
2.076	-17.42249
2.0765	-8.15735
2.077	-6.3446
2.0775	-5.13611
2.078	-12.89062
2.0785	-14.80408
2.079	-20.34302
2.0795	-17.72461
2.08	-10.37292
2.0805	-1.10779
2.081	-8.05664
2.0815	4.93469
2.082	2.5177
2.0825	10.37292
2.083	16.11328
2.0835	14.60266
2.084	14.60266
2.0845	4.43115
2.085	-5.33752
2.0855	-15.40833
2.086	-11.17859
2.0865	5.74036
2.087	20.94727
2.0875	28.19824
2.088	28.29895
2.0885	17.92603
2.089	6.3446
2.0895	1.61133
2.09	18.63098
2.0905	38.36975
2.091	52.56958
2.0915	60.4248
2.092	56.09436
2.0925	53.77808
2.093	43.50586
2.0935	36.15417
2.094	29.40674
2.0945	23.46497
2.095	20.74585
2.0955	0.30212
2.096	-31.92444
2.0965	-87.41455
2.097	-131.02112
2.0975	-150.45776
2.098	-134.5459
2.0985	-113.49792
2.099	-92.75208
2.0995	-60.92834
2.1	-27.39258
2.1005	9.56726
2.101	32.83081
2.1015	43.30444
2.102	54.38232
2.1025	60.3241
2.103	66.76941
2.1035	63.64746
2.104	68.17932
2.1045	70.49561
2.105	75.93384
2.1055	73.71826
2.106	38.67188
2.1065	2.71912
2.107	-24.97559
2.1075	-37.56409
2.108	-39.17542
2.1085	-43.20374
2.109	-39.98108
2.1095	-40.98816
2.11	-27.29187
2.1105	-28.80249
2.111	-33.43506
2.1115	-22.96143
2.112	-10.67505
2.1125	1.10779
2.113	13.89771
2.1135	15.91187
2.114	37.16125
2.1145	50.95825
2.115	61.23047
2.1155	64.95667
2.116	62.13684
2.1165	57.50427
2.117	42.39807
2.1175	29.20532
2.118	29.60815
2.1185	33.73718
2.119	33.9386
2.1195	27.39258
2.12	25.47913
2.1205	19.33594
2.121	4.83398
2.1215	4.12903
2.122	-19.73877
2.1225	-27.59399
2.123	-27.19116
2.1235	-20.24231
2.124	-13.19275
2.1245	-2.92053
2.125	1.40991
2.1255	11.38
2.126	-1.91345
2.1265	-23.8678
2.127	-36.15417
2.1275	-31.52161
2.128	-13.29346
2.1285	-41.39099
2.129	-67.97791
2.1295	-65.76233
2.13	-45.3186
2.1305	-23.06213
2.131	12.99133
2.1315	29.60815
2.132	62.33826
2.1325	80.66711
2.133	77.24304
2.1335	79.45862
2.134	88.72375
2.1345	92.04712
2.135	82.58057
2.1355	63.84888
2.136	38.06763
2.1365	25.68054
2.137	4.02832
2.1375	-34.24072
2.138	-73.01331
2.1385	-92.14783
2.139	-87.71667
2.1395	-89.02588
2.14	-91.8457
2.1405	-69.79065
2.141	-52.16675
2.1415	-39.57825
2.142	-33.53577
2.1425	-16.51611
2.143	-19.13452
2.1435	-26.88904
2.144	-38.47046
2.1445	-38.57117
2.145	-37.26196
2.1455	-90.5365
2.146	-132.83386
2.1465	-142.70325
2.147	-115.41138
2.1475	-73.61755
2.148	-39.17542
2.1485	-8.66089
2.149	26.48621
2.1495	69.38782
2.15	103.42712
2.1505	119.4397
2.151	131.02112
2.1515	148.94714
2.152	151.76697
2.1525	152.27051
2.153	138.87634
2.1535	113.49792
2.154	92.65137
2.1545	90.43579
2.155	95.06836
2.1555	79.55933
2.156	50.45471
2.1565	12.68921
2.157	-37.46338
2.1575	-69.89136
2.158	-67.97791
2.1585	-61.6333
2.159	-55.49011
2.1595	-47.43347
2.16	-42.29736
2.1605	-28.60107
2.161	-18.73169
2.1615	-4.83398
2.162	-1.61133
2.1625	0.90637
2.163	-6.3446
2.1635	-7.75452
2.164	-4.33044
2.1645	3.22266
2.165	0.90637
2.1655	-6.14319
2.166	-16.51611
2.1665	-25.88196
2.167	-23.46497
2.1675	-18.8324
2.168	-15.40833
2.1685	-5.84106
2.169	-10.67505
2.1695	-8.66089
2.17	-7.45239
2.1705	-4.22974
2.171	5.63965
2.1715	6.3446
2.172	6.3446
2.1725	6.54602
2.173	9.36584
2.1735	3.7262
2.174	13.59558
2.1745	11.48071
2.175	19.03381
2.1755	16.51611
2.176	8.35876
2.1765	5.74036
2.177	-6.84814
2.1775	-20.64514
2.178	-22.25647
2.1785	-18.22815
2.179	-16.91895
2.1795	-7.65381
2.18	10.37292
2.1805	29.00391
2.181	33.63647
2.1815	17.92603
2.182	6.54602
2.1825	20.74585
2.183	35.65063
2.1835	40.68604
2.184	34.44214
2.1845	28.60107
2.185	21.75293
2.1855	17.01965
2.186	18.42957
2.1865	13.797
2.187	11.2793
2.1875	3.12195
2.188	-6.14319
2.1885	-7.5531
2.189	-15.30762
2.1895	-27.99683
2.19	-43.30444
2.1905	-35.54993
2.191	-20.94727
2.1915	0.50354
2.192	6.64673
2.1925	7.45239
2.193	8.66089
2.1935	12.5885
2.194	10.27222
2.1945	13.99841
2.195	23.26355
2.1955	31.52161
2.196	5.13611
2.1965	-34.24072
2.197	-75.02747
2.1975	-91.04004
2.198	-108.86536
2.1985	-130.8197
2.199	-120.34607
2.1995	-89.52942
2.2	-38.77258
2.2005	13.09204
2.201	47.8363
2.2015	57.9071
2.202	79.35791
2.2025	89.73083
2.203	101.8158
2.2035	96.37756
2.204	94.2627
2.2045	66.06445
2.205	-0.50354
2.2055	-55.69153
2.206	-60.82764
2.2065	-33.63647
2.207	-10.67505
2.2075	-2.41699
2.208	-7.35168
2.2085	-24.67346
2.209	-18.53027
2.2095	-4.83398
2.21	20.94727
2.2105	41.89453
2.211	47.7356
2.2115	37.16125
2.212	49.14551
2.2125	49.0448
2.213	39.77966
2.2135	19.23523
2.214	10.67505
2.2145	0.90637
2.215	-4.93469
2.2155	-4.93469
2.216	-11.38
2.2165	-17.6239
2.217	-17.12036
2.2175	-26.3855
2.218	-18.93311
2.2185	-11.98425
2.219	2.81982
2.2195	11.58142
2.22	12.48779
2.2205	9.16443
2.221	5.74036
2.2215	11.88354
2.222	10.0708
2.2225	5.84106
2.223	5.94177
2.2235	-2.92053
2.224	-1.40991
2.2245	-1.10779
2.225	4.93469
2.2255	4.83398
2.226	5.43823
2.2265	11.58142
2.227	14.40125
2.2275	15.00549
2.228	21.24939
2.2285	17.6239
2.229	19.43665
2.2295	18.22815
2.23	18.73169
2.2305	20.64514
2.231	18.02673
2.2315	16.11328
2.232	13.69629
2.2325	16.3147
2.233	17.82532
2.2335	13.19275
2.234	19.13452
2.2345	11.2793
2.235	18.42957
2.2355	18.8324
2.236	7.45239
2.2365	2.81982
2.237	0.60425
2.2375	-0.10071
2.238	7.04956
2.2385	5.23682
2.239	6.64673
2.2395	14.40125
2.24	16.3147
2.2405	7.75452
2.241	-1.91345
2.2415	-10.0708
2.242	-1.10779
2.2425	0.40283
2.243	7.95593
2.2435	3.02124
2.244	-1.81274
2.2445	-4.83398
2.245	-4.83398
2.2455	-13.39417
2.246	-7.65381
2.2465	-11.48071
2.247	-7.04956
2.2475	-4.22974
2.248	-0.80566
2.2485	-2.5177
2.249	-2.11487
2.2495	-1.81274
2.25	5.74036
2.2505	5.94177
2.251	14.40125
2.2515	17.32178
2.252	15.1062
2.2525	12.78992
2.253	9.76868
2.2535	6.74744
2.254	9.86938
2.2545	7.04956
2.255	-5.13611
2.2555	-13.69629
2.256	-11.48071
2.2565	-12.48779
2.257	-7.04956
2.2575	3.12195
2.258	-1.40991
2.2585	-1.2085
2.259	4.83398
2.2595	5.84106
2.26	-0.50354
2.2605	-12.5885
2.261	-41.39099
2.2615	-59.41772
2.262	-57.70569
2.2625	-67.07153
2.263	-68.28003
2.2635	-68.58215
2.264	-46.42639
2.2645	-25.177
2.265	3.32336
2.2655	26.88904
2.266	42.09595
2.2665	63.64746
2.267	79.86145
2.2675	85.29968
2.268	87.21313
2.2685	86.20605
2.269	88.82446
2.2695	61.43188
2.27	31.72302
2.2705	4.02832
2.271	-11.38
2.2715	-19.73877
2.272	-15.20691
2.2725	-14.09912
2.273	-10.57434
2.2735	-2.01416
2.274	1.2085
2.2745	20.24231
2.275	33.23364
2.2755	43.10303
2.276	47.7356
2.2765	52.97241
2.277	55.89294
2.2775	62.33826
2.278	50.05188
2.2785	37.46338
2.279	15.40833
2.2795	-9.46655
2.28	-27.59399
2.2805	-17.92603
2.281	-16.81824
2.2815	-8.05664
2.282	-2.11487
2.2825	10.67505
2.283	14.90479
2.2835	15.91187
2.284	8.66089
2.2845	5.43823
2.285	6.94885
2.2855	17.22107
2.286	19.63806
2.2865	19.94019
2.287	13.89771
2.2875	6.94885
2.288	-13.89771
2.2885	-5.63965
2.289	-3.8269
2.2895	-9.56726
2.29	-3.12195
2.2905	-2.71912
2.291	-4.83398
2.2915	-5.0354
2.292	-15.81116
2.2925	-31.92444
2.293	-27.49329
2.2935	-30.01099
2.294	-29.00391
2.2945	-30.71594
2.295	-28.19824
2.2955	-30.11169
2.296	-24.37134
2.2965	-27.09045
2.297	-21.24939
2.2975	-14.90479
2.298	-16.21399
2.2985	0.30212
2.299	10.17151
2.2995	17.32178
2.3	20.54443
2.3005	23.8678
2.301	28.60107
2.3015	29.20532
2.302	33.53577
2.3025	25.177
2.303	25.177
2.3035	22.15576
2.304	24.77417
2.3045	26.48621
2.305	24.16992
2.3055	22.45789
2.306	22.55859
2.3065	21.75293
2.307	17.32178
2.3075	17.42249
2.308	17.22107
2.3085	20.1416
2.309	25.177
2.3095	20.34302
2.31	22.96143
2.3105	22.15576
2.311	23.16284
2.3115	13.09204
2.312	14.80408
2.3125	13.99841
2.313	16.51611
2.3135	5.74036
2.314	-25.07629
2.3145	-37.56409
2.315	-43.20374
2.3155	-40.68604
2.316	-44.31152
2.3165	-39.27612
2.317	-34.34143
2.3175	-17.32178
2.318	-8.25806
2.3185	1.3092
2.319	9.86938
2.3195	17.22107
2.32	29.80957
2.3205	38.87329
2.321	47.43347
2.3215	37.66479
2.322	27.29187
2.3225	21.14868
2.323	8.45947
2.3235	9.86938
2.324	13.09204
2.3245	27.49329
2.325	30.2124
2.3255	26.28479
2.326	32.42798
2.3265	29.00391
2.327	13.797
2.3275	13.89771
2.328	9.46655
2.3285	9.76868
2.329	21.24939
2.3295	22.45789
2.33	29.30603
2.3305	43.30444
2.331	43.30444
2.3315	46.02356
2.332	34.84497
2.3325	33.13293
2.333	29.40674
2.3335	22.86072
2.334	23.26355
2.3345	29.30603
2.335	31.21948
2.3355	30.81665
2.336	21.65222
2.3365	17.82532
2.337	17.82532
2.3375	19.13452
2.338	18.73169
2.3385	20.64514
2.339	25.78125
2.3395	24.87488
2.34	30.01099
2.3405	24.77417
2.341	22.45789
2.3415	10.27222
2.342	0.70496
2.3425	-1.81274
2.343	-14.09912
2.3435	-18.22815
2.344	-19.73877
2.3445	-12.08496
2.345	-9.06372
2.3455	-9.26514
2.346	-4.02832
2.3465	-7.04956
2.347	-2.61841
2.3475	3.52478
2.348	3.32336
2.3485	0.80566
2.349	4.73328
2.3495	1.2085
2.35	1.40991
2.3505	3.02124
2.351	-4.02832
2.3515	1.00708
2.352	-21.3501
2.3525	-25.78125
2.353	-26.18408
2.3535	-23.16284
2.354	-13.69629
2.3545	-2.5177
2.355	-0.40283
2.3555	14.70337
2.356	31.52161
2.3565	48.23914
2.357	59.21631
2.3575	52.56958
2.358	49.24622
2.3585	25.47913
2.359	-23.66638
2.3595	-67.07153
2.36	-100.50659
2.3605	-122.46094
2.361	-105.23987
2.3615	-66.36658
2.362	-25.37842
2.3625	28.50037
2.363	80.16357
2.3635	113.69934
2.364	129.30908
2.3645	133.53882
2.365	111.68518
2.3655	59.31702
2.366	9.86938
2.3665	-9.86938
2.367	-2.41699
2.3675	20.84656
2.368	33.53577
2.3685	52.16675
2.369	57.30286
2.3695	56.29578
2.37	49.74976
2.3705	25.98267
2.371	4.83398
2.3715	-2.92053
2.372	8.15735
2.3725	21.14868
2.373	8.7616
2.3735	12.89062
2.374	10.0708
2.3745	14.90479
2.375	13.39417
2.3755	-0.10071
2.376	-18.8324
2.3765	-21.55151
2.377	-24.67346
2.3775	-25.177
2.378	-7.5531
2.3785	-0.20142
2.379	8.56018
2.3795	8.56018
2.38	19.13452
2.3805	29.00391
2.381	29.60815
2.3815	30.31311
2.382	32.42798
2.3825	28.9032
2.383	28.70178
2.3835	19.73877
2.384	18.02673
2.3845	13.99841
2.385	31.72302
2.3855	41.89453
2.386	37.7655
2.3865	36.35559
2.387	24.87488
2.3875	11.58142
2.388	0.90637
2.3885	-13.39417
2.389	-22.96143
2.3895	-24.37134
2.39	-23.16284
2.3905	-57.30286
2.391	-69.48853
2.3915	-67.47437
2.392	-62.03613
2.3925	-45.82214
2.393	-17.32178
2.3935	-10.87646
2.394	1.71204
2.3945	2.61841
2.395	9.66797
2.3955	18.22815
2.396	35.65063
2.3965	49.14551
2.397	55.49011
2.3975	60.4248
2.398	62.64038
2.3985	67.97791
2.399	53.97949
2.3995	53.17383
2.4	47.13135
2.4005	35.34851
2.401	19.73877
2.4015	5.13611
2.402	4.02832
2.4025	2.21558
2.403	4.83398
2.4035	14.70337
2.404	20.74585
2.4045	23.26355
2.405	24.57275
2.4055	21.3501
2.406	20.54443
2.4065	20.34302
2.407	20.44373
2.4075	21.55151
2.408	27.6947
2.4085	23.8678
2.409	26.58691
2.4095	23.96851
2.41	18.32886
2.4105	12.89062
2.411	-2.31628
2.4115	-9.56726
2.412	-6.14319
2.4125	1.3092
2.413	4.43115
2.4135	1.71204
2.414	-4.33044
2.4145	0.10071
2.415	3.7262
2.4155	1.10779
2.416	-2.61841
2.4165	-3.42407
2.417	2.81982
2.4175	-2.92053
2.418	-18.22815
2.4185	-32.62939
2.419	-36.15417
2.4195	-32.7301
2.42	-24.87488
2.4205	-11.07788
2.421	-4.33044
2.4215	0
2.422	2.21558
2.4225	1.10779
2.423	8.05664
2.4235	24.57275
2.424	30.31311
2.4245	36.95984
2.425	43.50586
2.4255	37.7655
2.426	28.80249
2.4265	1.91345
2.427	-13.19275
2.4275	-14.09912
2.428	-8.66089
2.4285	-9.66797
2.429	-7.45239
2.4295	3.22266
2.43	8.05664
2.4305	16.01257
2.431	26.3855
2.4315	24.47205
2.432	20.44373
2.4325	7.15027
2.433	-13.09204
2.4335	-15.00549
2.434	-14.09912
2.4345	-11.78284
2.435	-5.0354
2.4355	6.54602
2.436	20.94727
2.4365	39.17542
2.437	51.66321
2.4375	50.95825
2.438	45.2179
2.4385	29.60815
2.439	9.06372
2.4395	-3.8269
2.44	-0.90637
2.4405	11.78284
2.441	15.50903
2.4415	8.66089
2.442	9.56726
2.4425	26.3855
2.443	36.25488
2.4435	49.44763
2.444	48.44055
2.4445	48.13843
2.445	48.13843
2.4455	51.66321
2.446	54.18091
2.4465	49.54834
2.447	37.66479
2.4475	35.2478
2.448	42.19666
2.4485	37.06055
2.449	40.88745
2.4495	15.1062
2.45	-11.2793
2.4505	-33.33435
2.451	-39.77966
2.4515	-33.33435
2.452	-35.14709
2.4525	-44.31152
2.453	-47.93701
2.4535	-49.24622
2.454	-36.05347
2.4545	-35.54993
2.455	-28.9032
2.4555	-18.42957
2.456	-12.5885
2.4565	-9.66797
2.457	-7.45239
2.4575	-8.66089
2.458	-11.68213
2.4585	-3.02124
2.459	0.30212
2.4595	-6.84814
2.46	-1.71204
2.4605	9.26514
2.461	14.40125
2.4615	18.22815
2.462	15.00549
2.4625	9.06372
2.463	-14.40125
2.4635	-47.53418
2.464	-54.58374
2.4645	-40.38391
2.465	-25.78125
2.4655	1.81274
2.466	27.59399
2.4665	-0.20142
2.467	-31.62231
2.4675	-56.39648
2.468	-59.01489
2.4685	-51.66321
2.469	-32.12585
2.4695	-7.25098
2.47	20.04089
2.4705	55.3894
2.471	92.75208
2.4715	118.33191
2.472	148.74573
2.4725	168.28308
2.473	167.276
2.4735	161.23352
2.474	139.07776
2.4745	105.94482
2.475	92.85278
2.4755	79.55933
2.476	61.73401
2.4765	59.82056
2.477	56.90002
2.4775	42.7002
2.478	7.65381
2.4785	-21.24939
2.479	-37.56409
2.4795	-46.22498
2.48	-98.79456
2.4805	-130.61829
2.481	-148.54431
2.4815	-157.10449
2.482	-142.80396
2.4825	-112.99438
2.483	-89.73083
2.4835	-70.49561
2.484	-33.53577
2.4845	-6.94885
2.485	11.78284
2.4855	12.28638
2.486	-1.2085
2.4865	-3.92761
2.487	-10.57434
2.4875	7.35168
2.488	23.36426
2.4885	40.68604
2.489	53.17383
2.4895	65.46021
2.49	70.09277
2.4905	63.44604
2.491	63.94958
2.4915	54.58374
2.492	45.01648
2.4925	36.25488
2.493	33.83789
2.4935	34.54285
2.494	26.78833
2.4945	24.27063
2.495	14.19983
2.4955	7.5531
2.496	6.94885
2.4965	4.73328
2.497	12.28638
2.4975	16.91895
2.498	23.76709
2.4985	35.85205
2.499	22.86072
2.4995	13.29346
2.5	4.63257
2.5005	-0.40283
2.501	-0.20142
2.5015	2.5177
2.502	-5.94177
2.5025	4.83398
2.503	0.50354
2.5035	0.10071
2.504	8.25806
2.5045	13.59558
2.505	20.34302
2.5055	20.84656
2.506	6.04248
2.5065	0.20142
2.507	-8.56018
2.5075	-10.17151
2.508	-14.80408
2.5085	-6.64673
2.509	-6.94885
2.5095	-15.50903
2.51	-18.8324
2.5105	-24.77417
2.511	-24.67346
2.5115	-23.96851
2.512	-19.23523
2.5125	-14.19983
2.513	-10.27222
2.5135	-13.29346
2.514	-8.56018
2.5145	-12.89062
2.515	-7.45239
2.5155	-1.2085
2.516	-9.26514
2.5165	-1.40991
2.517	-11.68213
2.5175	-11.58142
2.518	-19.13452
2.5185	-16.81824
2.519	2.31628
2.5195	15.91187
2.52	34.34143
2.5205	27.89612
2.521	10.57434
2.5215	-33.9386
2.522	-74.92676
2.5225	-98.69385
2.523	-91.94641
2.5235	-79.96216
2.524	-49.54834
2.5245	-15.60974
2.525	21.24939
2.5255	47.43347
2.526	51.96533
2.5265	47.63489
2.527	26.18408
2.5275	14.60266
2.528	19.43665
2.5285	33.03223
2.529	31.32019
2.5295	13.19275
2.53	-9.06372
2.5305	-20.94727
2.531	-5.63965
2.5315	7.5531
2.532	23.96851
2.5325	39.98108
2.533	47.33276
2.5335	59.61914
2.534	73.71826
2.5345	73.21472
2.535	86.20605
2.5355	92.55066
2.536	80.66711
2.5365	65.86304
2.537	58.00781
2.5375	34.44214
2.538	5.33752
2.5385	-16.21399
2.539	-11.2793
2.5395	7.5531
2.54	14.80408
2.5405	11.58142
2.541	6.14319
2.5415	-0.90637
2.542	-3.92761
2.5425	0.20142
2.543	1.91345
2.5435	6.84814
2.544	8.96301
2.5445	11.17859
2.545	-7.25098
2.5455	-22.35718
2.546	-34.03931
2.5465	-33.63647
2.547	-32.52869
2.5475	-29.40674
2.548	-16.91895
2.5485	-16.11328
2.549	-17.82532
2.5495	-7.5531
2.55	2.5177
2.5505	6.2439
2.551	2.5177
2.5515	11.58142
2.552	10.67505
2.5525	23.36426
2.553	33.33435
2.5535	46.82922
2.554	57.60498
2.5545	60.4248
2.555	66.87012
2.5555	60.92834
2.556	54.58374
2.5565	42.7002
2.557	41.69312
2.5575	34.24072
2.558	27.6947
2.5585	19.03381
2.559	8.35876
2.5595	-0.60425
2.56	-42.19666
2.5605	-70.99915
2.561	-65.15808
2.5615	-49.14551
2.562	-33.03223
2.5625	-18.53027
2.563	-10.17151
2.5635	3.8269
2.564	27.6947
2.5645	45.11719
2.565	43.90869
2.5655	50.05188
2.566	58.41064
2.5665	61.12976
2.567	43.70728
2.5675	33.13293
2.568	19.63806
2.5685	23.46497
2.569	29.00391
2.5695	31.92444
2.57	17.52319
2.5705	16.81824
2.571	11.07788
2.5715	-7.75452
2.572	-16.91895
2.5725	-27.19116
2.573	-25.07629
2.5735	-25.78125
2.574	-24.77417
2.5745	-28.60107
2.575	-24.37134
2.5755	-10.37292
2.576	-14.60266
2.5765	-1.61133
2.577	-1.3092
2.5775	1.3092
2.578	16.71753
2.5785	36.25488
2.579	45.41931
2.5795	45.62073
2.58	34.94568
2.5805	31.52161
2.581	40.08179
2.5815	31.11877
2.582	11.38
2.5825	2.61841
2.583	-2.11487
2.5835	11.58142
2.584	10.37292
2.5845	4.73328
2.585	2.41699
2.5855	-11.58142
2.586	-19.73877
2.5865	-23.96851
2.587	-39.37683
2.5875	-71.30127
2.588	-106.24695
2.5885	-118.83545
2.589	-152.97546
2.5895	-162.64343
2.59	-153.3783
2.5905	-124.87793
2.591	-103.62854
2.5915	-75.83313
2.592	-47.63489
2.5925	-22.76001
2.593	7.15027
2.5935	30.01099
2.594	42.8009
2.5945	50.354
2.595	50.05188
2.5955	41.4917
2.596	31.72302
2.5965	11.58142
2.597	5.94177
2.5975	19.23523
2.598	41.39099
2.5985	54.98657
2.599	66.76941
2.5995	83.08411
2.6	84.79614
2.6005	85.60181
2.601	73.81897
2.6015	72.81189
2.602	70.99915
2.6025	70.69702
2.603	62.9425
2.6035	61.53259
2.604	61.33118
2.6045	50.45471
2.605	35.2478
2.6055	26.58691
2.606	26.78833
2.6065	17.01965
2.607	11.17859
2.6075	3.92761
2.608	-14.50195
2.6085	-18.53027
2.609	-20.34302
2.6095	-7.65381
2.61	-20.64514
2.6105	-24.87488
2.611	-22.25647
2.6115	-12.5885
2.612	-17.01965
2.6125	-4.43115
2.613	-1.91345
2.6135	3.8269
2.614	6.04248
2.6145	-0.50354
2.615	-24.97559
2.6155	-54.48303
2.616	-61.12976
2.6165	-60.22339
2.617	-59.31702
2.6175	-58.61206
2.618	-46.12427
2.6185	-21.24939
2.619	6.44531
2.6195	31.72302
2.62	46.02356
2.6205	55.3894
2.621	51.05896
2.6215	56.90002
2.622	60.4248
2.6225	60.12268
2.623	61.23047
2.6235	68.58215
2.624	74.02039
2.6245	64.45312
2.625	50.2533
2.6255	35.44922
2.626	22.76001
2.6265	12.28638
2.627	7.65381
2.6275	12.38708
2.628	7.45239
2.6285	9.56726
2.629	8.25806
2.6295	13.99841
2.63	6.94885
2.6305	-6.84814
2.631	-23.8678
2.6315	-16.51611
2.632	-21.04797
2.6325	-11.78284
2.633	-13.39417
2.6335	-5.53894
2.634	-5.33752
2.6345	-13.09204
2.635	-17.42249
2.6355	-8.25806
2.636	0.20142
2.6365	-7.04956
2.637	-30.2124
2.6375	-72.71118
2.638	-86.30676
2.6385	-79.96216
2.639	-59.61914
2.6395	-28.50037
2.64	5.84106
2.6405	17.52319
2.641	0.50354
2.6415	-3.92761
2.642	4.53186
2.6425	19.33594
2.643	37.56409
2.6435	46.02356
2.644	32.42798
2.6445	28.60107
2.645	21.45081
2.6455	18.02673
2.646	9.36584
2.6465	2.61841
2.647	15.00549
2.6475	19.94019
2.648	16.41541
2.6485	13.09204
2.649	9.26514
2.6495	-8.05664
2.65	-6.3446
2.6505	4.43115
2.651	9.86938
2.6515	12.18567
2.652	8.35876
2.6525	14.80408
2.653	26.88904
2.6535	31.82373
2.654	40.48462
2.6545	30.71594
2.655	34.64355
2.6555	38.26904
2.656	37.66479
2.6565	41.59241
2.657	42.49878
2.6575	28.70178
2.658	30.91736
2.6585	20.94727
2.659	12.89062
2.6595	8.66089
2.66	11.88354
2.6605	18.42957
2.661	18.12744
2.6615	15.60974
2.662	1.81274
2.6625	-12.99133
2.663	-28.9032
2.6635	-34.14001
2.664	-25.88196
2.6645	-12.78992
2.665	-8.25806
2.6655	-2.31628
2.666	0.20142
2.6665	6.14319
2.667	3.7262
2.6675	4.53186
2.668	5.53894
2.6685	8.35876
2.669	-9.16443
2.6695	-33.63647
2.67	-60.52551
2.6705	-79.96216
2.671	-84.59473
2.6715	-66.87012
2.672	-61.93542
2.6725	-48.44055
2.673	-35.75134
2.6735	-26.48621
2.674	-2.41699
2.6745	11.07788
2.675	22.05505
2.6755	34.03931
2.676	42.19666
2.6765	39.37683
2.677	17.92603
2.6775	4.43115
2.678	-5.0354
2.6785	-0.40283
2.679	12.5885
2.6795	14.80408
2.68	26.88904
2.6805	47.33276
2.681	53.97949
2.6815	64.75525
2.682	67.8772
2.6825	66.16516
2.683	69.58923
2.6835	77.14233
2.684	51.5625
2.6845	30.51453
2.685	28.19824
2.6855	30.2124
2.686	19.33594
2.6865	6.64673
2.687	6.04248
2.6875	9.46655
2.688	-2.92053
2.6885	-16.91895
2.689	-26.98975
2.6895	-29.20532
2.69	-20.04089
2.6905	-6.3446
2.691	10.17151
2.6915	23.8678
2.692	28.50037
2.6925	26.18408
2.693	33.33435
2.6935	35.14709
2.694	28.39966
2.6945	28.09753
2.695	21.45081
2.6955	21.24939
2.696	-2.31628
2.6965	-23.76709
2.697	-51.5625
2.6975	-47.33276
2.698	-39.57825
2.6985	-29.40674
2.699	-23.06213
2.6995	-21.55151
2.7	-20.24231
2.7005	-17.01965
2.701	-15.71045
2.7015	-17.82532
2.702	-8.96301
2.7025	-8.05664
2.703	-8.25806
2.7035	-13.69629
2.704	-12.38708
2.7045	-8.05664
2.705	-2.61841
2.7055	-4.02832
2.706	-2.71912
2.7065	-2.71912
2.707	4.02832
2.7075	10.37292
2.708	10.57434
2.7085	0
2.709	-2.11487
2.7095	-1.81274
2.71	-1.61133
2.7105	-10.37292
2.711	-16.3147
2.7115	-25.177
2.712	-30.2124
2.7125	-25.27771
2.713	-28.60107
2.7135	-29.91028
2.714	-20.04089
2.7145	-15.91187
2.715	-6.44531
2.7155	-1.00708
2.716	9.86938
2.7165	8.7616
2.717	11.48071
2.7175	16.91895
2.718	22.86072
2.7185	26.3855
2.719	32.02515
2.7195	40.58533
2.72	32.83081
2.7205	32.62939
2.721	19.33594
2.7215	20.34302
2.722	12.68921
2.7225	14.80408
2.723	10.17151
2.7235	12.89062
2.724	-2.5177
2.7245	-12.89062
2.725	-22.15576
2.7255	-26.28479
2.726	-27.39258
2.7265	-18.93311
2.727	-12.89062
2.7275	-32.22656
2.728	-40.98816
2.7285	-33.33435
2.729	-17.82532
2.7295	0.80566
2.73	25.88196
2.7305	38.67188
2.731	57.30286
2.7315	74.2218
2.732	79.05579
2.7325	77.84729
2.733	72.50977
2.7335	75.53101
2.734	79.76074
2.7345	61.53259
2.735	35.95276
2.7355	22.6593
2.736	13.89771
2.7365	10.97717
2.737	4.02832
2.7375	-9.36584
2.738	-18.53027
2.7385	-13.39417
2.739	-13.69629
2.7395	-8.35876
2.74	-9.97009
2.7405	-10.97717
2.741	-10.87646
2.7415	-26.08337
2.742	-63.04321
2.7425	-95.87402
2.743	-136.76147
2.7435	-149.95422
2.744	-145.32166
2.7445	-112.79297
2.745	-79.15649
2.7455	-42.19666
2.746	-3.02124
2.7465	25.47913
2.747	55.2887
2.7475	70.99915
2.748	77.34375
2.7485	74.12109
2.749	71.09985
2.7495	68.68286
2.75	67.8772
2.7505	51.86462
2.751	34.94568
2.7515	34.74426
2.752	31.72302
2.7525	31.21948
2.753	23.96851
2.7535	11.78284
2.754	1.2085
2.7545	-7.45239
2.755	-8.56018
2.7555	-7.25098
2.756	-4.43115
2.7565	2.81982
2.757	2.81982
2.7575	1.10779
2.758	2.41699
2.7585	-5.13611
2.759	-6.04248
2.7595	-1.3092
2.76	-0.70496
2.7605	3.62549
2.761	6.74744
2.7615	10.27222
2.762	4.73328
2.7625	1.3092
2.763	-3.92761
2.7635	-11.98425
2.764	-17.12036
2.7645	-16.11328
2.765	-9.36584
2.7655	-13.09204
2.766	-8.96301
2.7665	-5.53894
2.767	-3.52478
2.7675	-5.63965
2.768	4.43115
2.7685	2.21558
2.769	1.61133
2.7695	3.02124
2.77	3.62549
2.7705	2.81982
2.771	-3.12195
2.7715	-23.76709
2.772	-32.42798
2.7725	-39.57825
2.773	-28.50037
2.7735	-26.48621
2.774	-22.45789
2.7745	-16.61682
2.775	-7.04956
2.7755	-4.33044
2.776	8.45947
2.7765	26.28479
2.777	40.48462
2.7775	46.62781
2.778	51.66321
2.7785	53.87878
2.779	60.72693
2.7795	50.15259
2.78	42.59949
2.7805	19.53735
2.781	1.40991
2.7815	-13.797
2.782	-19.53735
2.7825	-16.11328
2.783	-4.02832
2.7835	4.83398
2.784	14.80408
2.7845	32.62939
2.785	35.14709
2.7855	37.86621
2.786	36.75842
2.7865	37.7655
2.787	36.75842
2.7875	35.34851
2.788	-16.71753
2.7885	-64.85596
2.789	-106.34766
2.7895	-110.57739
2.79	-86.10535
2.7905	-45.52002
2.791	-12.99133
2.7915	18.32886
2.792	51.05896
2.7925	76.63879
2.793	71.30127
2.7935	73.51685
2.794	72.30835
2.7945	75.32959
2.795	74.72534
2.7955	43.70728
2.796	22.25647
2.7965	0.10071
2.797	-19.63806
2.7975	-37.7655
2.798	-43.20374
2.7985	-34.64355
2.799	-25.98267
2.7995	-14.70337
2.8	-41.69312
2.8005	-93.15491
2.801	-103.32642
2.8015	-82.07703
2.802	-52.8717
2.8025	-25.98267
2.803	3.7262
2.8035	32.42798
2.804	64.55383
2.8045	96.17615
2.805	129.30908
2.8055	155.79529
2.806	143.71033
2.8065	114.4043
2.807	84.39331
2.8075	80.66711
2.808	72.50977
2.8085	62.74109
2.809	39.98108
2.8095	34.34143
2.81	18.8324
2.8105	7.04956
2.811	4.53186
2.8115	-5.74036
2.812	-9.66797
2.8125	-25.98267
2.813	-32.22656
2.8135	-36.4563
2.814	-36.55701
2.8145	-33.63647
2.815	-30.01099
2.8155	-43.40515
2.816	-76.13525
2.8165	-94.96765
2.817	-111.9873
2.8175	-107.15332
2.818	-95.5719
2.8185	-71.20056
2.819	-40.48462
2.8195	-5.23682
2.82	31.62231
2.8205	66.56799
2.821	76.53809
2.8215	90.93933
2.822	96.37756
2.8225	92.75208
2.823	85.80322
2.8235	78.75366
2.824	66.16516
2.8245	69.1864
2.825	61.43188
2.8255	52.36816
2.826	39.77966
2.8265	25.98267
2.827	7.04956
2.8275	-16.01257
2.828	-32.7301
2.8285	-39.77966
2.829	-38.67188
2.8295	-31.92444
2.83	-32.32727
2.8305	-27.79541
2.831	-31.32019
2.8315	-33.23364
2.832	-35.2478
2.8325	-32.22656
2.833	-31.01807
2.8335	-38.36975
2.834	-41.08887
2.8345	-37.46338
2.835	-28.29895
2.8355	-25.47913
2.836	-19.53735
2.8365	-26.88904
2.837	-35.04639
2.8375	-54.0802
2.838	-61.83472
2.8385	-50.2533
2.839	-36.85913
2.8395	-20.74585
2.84	-15.91187
2.8405	-7.35168
2.841	-4.02832
2.8415	-3.02124
2.842	6.04248
2.8425	19.94019
2.843	40.38391
2.8435	53.87878
2.844	61.53259
2.8445	63.64746
2.845	51.36108
2.8455	31.82373
2.846	28.80249
2.8465	30.2124
2.847	46.92993
2.8475	38.06763
2.848	27.79541
2.8485	30.81665
2.849	38.47046
2.8495	40.2832
2.85	44.31152
2.8505	51.96533
2.851	59.41772
2.8515	67.47437
2.852	58.71277
2.8525	51.76392
2.853	39.27612
2.8535	12.48779
2.854	-13.59558
2.8545	-67.8772
2.855	-98.99597
2.8555	-105.34058
2.856	-97.98889
2.8565	-75.73242
2.857	-77.24304
2.8575	-74.72534
2.858	-67.57507
2.8585	-55.99365
2.859	-41.39099
2.8595	-12.48779
2.86	3.62549
2.8605	16.51611
2.861	31.21948
2.8615	35.2478
2.862	35.95276
2.8625	34.03931
2.863	22.05505
2.8635	0.40283
2.864	-8.66089
2.8645	17.12036
2.865	25.177
2.8655	26.98975
2.866	9.26514
2.8665	-4.02832
2.867	-1.91345
2.8675	5.43823
2.868	11.38
2.8685	14.50195
2.869	16.41541
2.8695	2.41699
2.87	-6.94885
2.8705	-10.47363
2.871	-9.97009
2.8715	-5.74036
2.872	-14.80408
2.8725	-60.02197
2.873	-82.37915
2.8735	-80.06287
2.874	-60.12268
2.8745	-38.974
2.875	-15.20691
2.8755	-3.12195
2.876	18.53027
2.8765	39.57825
2.877	63.04321
2.8775	82.27844
2.878	84.89685
2.8785	81.47278
2.879	82.47986
2.8795	90.43579
2.88	89.22729
2.8805	76.53809
2.881	68.17932
2.8815	47.23206
2.882	30.11169
2.8825	9.86938
2.883	-16.11328
2.8835	-70.79773
2.884	-97.68677
2.8845	-115.00854
2.885	-114.00146
2.8855	-97.18323
2.886	-62.03613
2.8865	-27.39258
2.887	9.36584
2.8875	38.47046
2.888	66.6687
2.8885	87.31384
2.889	95.87402
2.8895	77.84729
2.89	56.29578
2.8905	49.85046
2.891	51.66321
2.8915	52.67029
2.892	61.93542
2.8925	34.64355
2.893	17.72461
2.8935	8.7616
2.894	6.2439
2.8945	-6.44531
2.895	-8.45947
2.8955	-18.12744
2.896	-36.55701
2.8965	-33.53577
2.897	-34.54285
2.8975	-13.59558
2.898	3.52478
2.8985	9.46655
2.899	20.74585
2.8995	22.6593
2.9	19.03381
2.9005	15.1062
2.901	13.797
2.9015	6.54602
2.902	7.04956
2.9025	3.22266
2.903	15.60974
2.9035	15.00549
2.904	14.60266
2.9045	10.17151
2.905	16.01257
2.9055	17.72461
2.906	17.92603
2.9065	-2.71912
2.907	-25.98267
2.9075	-39.17542
2.908	-41.08887
2.9085	-41.4917
2.909	-39.67896
2.9095	-37.46338
2.91	-24.97559
2.9105	-7.25098
2.911	2.21558
2.9115	2.92053
2.912	2.5177
2.9125	13.69629
2.913	18.22815
2.9135	23.96851
2.914	23.66638
2.9145	17.92603
2.915	13.59558
2.9155	-0.40283
2.916	-11.38
2.9165	-23.76709
2.917	-33.03223
2.9175	-38.16833
2.918	-34.84497
2.9185	-36.35559
2.919	-47.7356
2.9195	-45.72144
2.92	-29.20532
2.9205	-19.73877
2.921	-10.17151
2.9215	4.63257
2.922	25.88196
2.9225	40.38391
2.923	52.97241
2.9235	55.79224
2.924	59.71985
2.9245	65.46021
2.925	73.21472
2.9255	74.12109
2.926	58.30994
2.9265	45.62073
2.927	40.68604
2.9275	29.91028
2.928	14.50195
2.9285	6.74744
2.929	2.61841
2.9295	4.43115
2.93	5.43823
2.9305	0
2.931	1.40991
2.9315	-7.95593
2.932	-12.38708
2.9325	-0.20142
2.933	10.47363
2.9335	23.46497
2.934	26.08337
2.9345	32.22656
2.935	25.07629
2.9355	15.50903
2.936	6.84814
2.9365	-11.68213
2.937	-10.77576
2.9375	-13.19275
2.938	-19.23523
2.9385	-29.20532
2.939	-41.89453
2.9395	-47.13135
2.94	-58.51135
2.9405	-70.99915
2.941	-77.54517
2.9415	-79.45862
2.942	-73.11401
2.9425	-57.30286
2.943	-53.27454
2.9435	-56.29578
2.944	-50.15259
2.9445	-32.42798
2.945	-18.22815
2.9455	-0.20142
2.946	11.58142
2.9465	21.24939
2.947	19.63806
2.9475	14.70337
2.948	23.26355
2.9485	33.73718
2.949	57.60498
2.9495	72.40906
2.95	74.02039
2.9505	53.37524
2.951	36.55701
2.9515	25.27771
2.952	10.47363
2.9525	9.56726
2.953	-1.91345
2.9535	-49.34692
2.954	-62.8418
2.9545	-50.2533
2.955	-40.98816
2.9555	-35.54993
2.956	-25.68054
2.9565	-12.99133
2.957	10.0708
2.9575	17.42249
2.958	18.22815
2.9585	36.65771
2.959	49.0448
2.9595	52.16675
2.96	53.87878
2.9605	57.40356
2.961	60.4248
2.9615	43.50586
2.962	-1.10779
2.9625	-37.86621
2.963	-51.05896
2.9635	-44.61365
2.964	-36.85913
2.9645	-36.35559
2.965	-29.80957
2.9655	-18.8324
2.966	-2.61841
2.9665	23.46497
2.967	53.57666
2.9675	61.6333
2.968	45.01648
2.9685	-6.44531
2.969	-47.33276
2.9695	-60.92834
2.97	-119.74182
2.9705	-149.95422
2.971	-130.41687
2.9715	-90.83862
2.972	-37.66479
2.9725	23.8678
2.973	77.74658
2.9735	121.15173
2.974	161.0321
2.9745	187.4176
2.975	204.53796
2.9755	196.07849
2.976	186.00769
2.9765	169.99512
2.977	154.88892
2.9775	118.53333
2.978	78.04871
2.9785	51.96533
2.979	14.50195
2.9795	-19.33594
2.98	-28.39966
2.9805	-28.29895
2.981	-38.36975
2.9815	-52.46887
2.982	-48.23914
2.9825	-27.39258
2.983	-12.5885
2.9835	-1.3092
2.984	-5.0354
2.9845	-5.23682
2.985	-5.84106
2.9855	-7.95593
2.986	-6.64673
2.9865	0.80566
2.987	1.10779
2.9875	-2.11487
2.988	2.71912
2.9885	-2.01416
2.989	-6.04248
2.9895	-6.54602
2.99	-11.48071
2.9905	-10.0708
2.991	-11.78284
2.9915	-18.93311
2.992	-13.89771
2.9925	-15.00549
2.993	-7.65381
2.9935	-13.09204
2.994	-3.32336
2.9945	-5.63965
2.995	-33.23364
2.9955	-64.151
2.996	-81.7749
2.9965	-75.4303
2.997	-71.30127
2.9975	-55.18799
2.998	-39.57825
2.9985	-28.29895
2.999	-40.1825
2.9995	-37.46338
3	-22.35718
3.0005	14.80408
3.001	38.77258
3.0015	62.43896
3.002	80.66711
3.0025	94.3634
3.003	107.25403
3.0035	100.00305
3.004	83.99048
3.0045	77.14233
3.005	63.84888
3.0055	58.61206
3.006	44.61365
3.0065	40.38391
3.007	26.88904
3.0075	14.09912
3.008	8.15735
3.0085	-1.3092
3.009	-5.63965
3.0095	-6.74744
3.01	-7.15027
3.0105	-5.53894
3.011	2.81982
3.0115	10.47363
3.012	5.33752
3.0125	10.67505
3.013	17.82532
3.0135	5.53894
3.014	-1.00708
3.0145	-4.73328
3.015	-28.19824
3.0155	-93.85986
3.016	-128.10059
3.0165	-132.53174
3.017	-121.75598
3.0175	-97.08252
3.018	-60.52551
3.0185	-28.39966
3.019	5.13611
3.0195	35.2478
3.02	70.3949
3.0205	101.01013
3.021	100.30518
3.0215	109.3689
3.022	97.58606
3.0225	78.65295
3.023	64.05029
3.0235	48.54126
3.024	31.82373
3.0245	26.98975
3.025	15.00549
3.0255	-13.69629
3.026	-27.6947
3.0265	-39.27612
3.027	-65.05737
3.0275	-71.60339
3.028	-50.2533
3.0285	-18.22815
3.029	12.18567
3.0295	34.64355
3.03	40.58533
3.0305	43.80798
3.031	52.67029
3.0315	55.99365
3.032	51.05896
3.0325	44.31152
3.033	34.34143
3.0335	30.81665
3.034	30.61523
3.0345	7.5531
3.035	-73.01331
3.0355	-111.68518
3.036	-129.20837
3.0365	-130.11475
3.037	-112.79297
3.0375	-88.52234
3.038	-58.10852
3.0385	-14.30054
3.039	29.60815
3.0395	66.06445
3.04	89.93225
3.0405	102.92358
3.041	105.54199
3.0415	86.30676
3.042	69.48853
3.0425	62.23755
3.043	60.22339
3.0435	54.38232
3.044	40.2832
3.0445	30.31311
3.045	26.48621
3.0455	7.65381
3.046	-3.42407
3.0465	-8.35876
3.047	2.01416
3.0475	24.87488
3.048	49.95117
3.0485	53.67737
3.049	50.75684
3.0495	43.30444
3.05	30.81665
3.0505	17.22107
3.051	2.21558
3.0515	-13.09204
3.052	-3.22266
3.0525	6.14319
3.053	12.38708
3.0535	3.22266
3.054	-10.47363
3.0545	-32.22656
3.055	-43.80798
3.0555	-52.56958
3.056	-53.77808
3.0565	-43.10303
3.057	-24.27063
3.0575	0.80566
3.058	19.43665
3.0585	45.92285
3.059	68.78357
3.0595	93.55774
3.06	100.50659
3.0605	91.745
3.061	77.74658
3.0615	50.65613
3.062	21.55151
3.0625	9.36584
3.063	10.17151
3.0635	8.45947
3.064	4.43115
3.0645	-0.70496
3.065	-17.32178
3.0655	-55.69153
3.066	-106.64978
3.0665	-168.98804
3.067	-173.21777
3.0675	-158.11157
3.068	-124.57581
3.0685	-79.96216
3.069	-43.30444
3.0695	-7.65381
3.07	27.39258
3.0705	44.91577
3.071	50.65613
3.0715	40.98816
3.072	35.14709
3.0725	39.07471
3.073	41.39099
3.0735	39.47754
3.074	41.99524
3.0745	50.2533
3.075	54.18091
3.0755	49.54834
3.076	43.50586
3.0765	30.51453
3.077	27.19116
3.0775	18.22815
3.078	16.61682
3.0785	13.89771
3.079	15.50903
3.0795	24.87488
3.08	42.09595
3.0805	63.84888
3.081	63.94958
3.0815	41.39099
3.082	26.28479
3.0825	6.04248
3.083	-12.08496
3.0835	-23.76709
3.084	-31.32019
3.0845	-31.52161
3.085	-35.95276
3.0855	-49.54834
3.086	-54.78516
3.0865	-57.8064
3.087	-51.36108
3.0875	-55.79224
3.088	-55.79224
3.0885	-52.8717
3.089	-45.82214
3.0895	-49.85046
3.09	-37.86621
3.0905	-33.63647
3.091	-26.3855
3.0915	-22.86072
3.092	-42.7002
3.0925	-41.59241
3.093	-42.8009
3.0935	-33.43506
3.094	-12.89062
3.0945	19.23523
3.095	45.11719
3.0955	66.36658
3.096	78.65295
3.0965	91.8457
3.097	100.40588
3.0975	99.60022
3.098	80.36499
3.0985	55.08728
3.099	36.85913
3.0995	29.20532
3.1	19.83948
3.1005	15.60974
3.101	10.77576
3.1015	11.78284
3.102	14.90479
3.1025	12.5885
3.103	0.20142
3.1035	-3.92761
3.104	-15.30762
3.1045	-18.42957
3.105	-10.97717
3.1055	-6.74744
3.106	-10.57434
3.1065	-13.29346
3.107	-11.17859
3.1075	-9.97009
3.108	1.81274
3.1085	12.68921
3.109	22.55859
3.1095	28.60107
3.11	30.51453
3.1105	32.7301
3.111	45.3186
3.1115	42.09595
3.112	35.2478
3.1125	28.60107
3.113	12.08496
3.1135	1.91345
3.114	-9.26514
3.1145	-21.75293
3.115	-40.68604
3.1155	-57.60498
3.116	-74.32251
3.1165	-69.28711
3.117	-60.82764
3.1175	-55.2887
3.118	-38.36975
3.1185	-18.32886
3.119	-2.31628
3.1195	25.37842
3.12	40.38391
3.1205	46.5271
3.121	28.80249
3.1215	7.85522
3.122	-9.06372
3.1225	-14.80408
3.123	-38.16833
3.1235	-59.41772
3.124	-140.28625
3.1245	-220.44983
3.125	-296.08154
3.1255	-297.18933
3.126	-256.5033
3.1265	-173.82202
3.127	-92.44995
3.1275	-10.97717
3.128	68.38074
3.1285	134.14307
3.129	187.31689
3.1295	222.26257
3.13	242.30347
3.1305	237.26807
3.131	226.08948
3.1315	207.65991
3.132	189.23035
3.1325	174.42627
3.133	155.49316
3.1335	144.01245
3.134	105.54199
3.1345	51.5625
3.135	8.05664
3.1355	-28.09753
3.136	-54.88586
3.1365	-58.30994
3.137	-53.47595
3.1375	-52.36816
3.138	-44.91577
3.1385	-43.90869
3.139	-48.94409
3.1395	-40.38391
3.14	-28.29895
3.1405	-18.12744
3.141	-10.67505
3.1415	-7.04956
3.142	-21.04797
3.1425	-18.32886
3.143	-9.16443
3.1435	0.80566
3.144	8.96301
3.1445	15.30762
3.145	9.06372
3.1455	5.84106
3.146	4.73328
3.1465	13.89771
3.147	19.83948
3.1475	26.28479
3.148	27.29187
3.1485	30.2124
3.149	25.88196
3.1495	18.73169
3.15	13.89771
3.1505	-0.60425
3.151	-6.04248
3.1515	-20.54443
3.152	-28.70178
3.1525	-38.16833
3.153	-34.94568
3.1535	-19.63806
3.154	-19.53735
3.1545	-23.46497
3.155	-27.09045
3.1555	-22.15576
3.156	-13.89771
3.1565	-2.41699
3.157	-7.25098
3.1575	-6.2439
3.158	-7.5531
3.1585	0.30212
3.159	-9.66797
3.1595	-28.9032
3.16	-32.7301
3.1605	-43.10303
3.161	-35.54993
3.1615	-28.50037
3.162	-21.95435
3.1625	-8.66089
3.163	-8.25806
3.1635	0.40283
3.164	9.66797
3.1645	14.30054
3.165	25.47913
3.1655	32.93152
3.166	29.60815
3.1665	34.03931
3.167	42.90161
3.1675	35.54993
3.168	30.41382
3.1685	28.80249
3.169	25.37842
3.1695	26.88904
3.17	29.70886
3.1705	29.10461
3.171	24.87488
3.1715	12.68921
3.172	-0.20142
3.1725	-7.75452
3.173	1.81274
3.1735	0
3.174	-10.77576
3.1745	-18.93311
3.175	-19.83948
3.1755	-10.87646
3.176	-13.19275
3.1765	-1.2085
3.177	-3.12195
3.1775	6.14319
3.178	4.43115
3.1785	7.45239
3.179	5.23682
3.1795	8.15735
3.18	9.46655
3.1805	16.51611
3.181	22.15576
3.1815	19.63806
3.182	27.59399
3.1825	32.52869
3.183	17.52319
3.1835	2.31628
3.184	-13.49487
3.1845	-19.13452
3.185	-26.28479
3.1855	-48.54126
3.186	-67.57507
3.1865	-83.58765
3.187	-81.27136
3.1875	-70.59631
3.188	-57.60498
3.1885	-49.85046
3.189	-41.69312
3.1895	-23.16284
3.19	-2.71912
3.1905	27.99683
3.191	28.09753
3.1915	29.00391
3.192	17.6239
3.1925	14.40125
3.193	32.52869
3.1935	51.15967
3.194	61.73401
3.1945	73.11401
3.195	86.00464
3.1955	99.19739
3.196	104.83704
3.1965	110.87952
3.197	105.13916
3.1975	107.05261
3.198	100.80872
3.1985	93.25562
3.199	80.76782
3.1995	62.64038
3.2	44.91577
3.2005	35.85205
3.201	13.09204
3.2015	7.85522
3.202	-4.33044
3.2025	-19.13452
3.203	-39.47754
3.2035	-40.58533
3.204	-63.24463
3.2045	-82.58057
3.205	-93.0542
3.2055	-97.28394
3.206	-95.87402
3.2065	-91.94641
3.207	-81.57349
3.2075	-66.16516
3.208	-50.75684
3.2085	-39.27612
3.209	-67.57507
3.2095	-95.77332
3.21	-91.8457
3.2105	-73.61755
3.211	-80.96924
3.2115	-75.93384
3.212	-52.97241
3.2125	-21.85364
3.213	19.03381
3.2135	58.51135
3.214	94.06128
3.2145	113.39722
3.215	134.04236
3.2155	140.18555
3.216	149.45068
3.2165	145.12024
3.217	147.43652
3.2175	142.40112
3.218	130.8197
3.2185	119.64111
3.219	106.14624
3.2195	81.06995
3.22	47.13135
3.2205	2.71912
3.221	-10.57434
3.2215	-21.85364
3.222	-20.54443
3.2225	-27.79541
3.223	-28.50037
3.2235	-22.55859
3.224	-18.63098
3.2245	-24.87488
3.225	-35.14709
3.2255	-39.17542
3.226	-34.94568
3.2265	-40.1825
3.227	-41.79382
3.2275	-46.12427
3.228	-45.01648
3.2285	-38.06763
3.229	-27.99683
3.2295	-17.32178
3.23	-10.97717
3.2305	-3.7262
3.231	-3.32336
3.2315	9.26514
3.232	15.50903
3.2325	9.56726
3.233	10.0708
3.2335	26.28479
3.234	47.33276
3.2345	44.21082
3.235	47.93701
3.2355	46.92993
3.236	29.60815
3.2365	12.89062
3.237	2.71912
3.2375	-1.2085
3.238	-0.30212
3.2385	-0.50354
3.239	5.53894
3.2395	-2.71912
3.24	-3.12195
3.2405	-5.84106
3.241	-7.85522
3.2415	-0.90637
3.242	2.5177
3.2425	-2.31628
3.243	-8.96301
3.2435	-16.51611
3.244	-13.69629
3.2445	-16.51611
3.245	-6.74744
3.2455	-2.71912
3.246	-3.42407
3.2465	-2.5177
3.247	-6.84814
3.2475	-6.54602
3.248	-5.84106
3.2485	-3.22266
3.249	0.50354
3.2495	4.93469
3.25	2.41699
3.2505	-2.01416
3.251	-8.45947
3.2515	-18.42957
3.252	-21.14868
3.2525	-21.45081
3.253	-16.81824
3.2535	-14.60266
3.254	-27.59399
3.2545	-48.74268
3.255	-70.19348
3.2555	-72.00623
3.256	-66.97083
3.2565	-51.05896
3.257	-25.78125
3.2575	-0.20142
3.258	16.41541
3.2585	36.15417
3.259	48.03772
3.2595	55.18799
3.26	62.33826
3.2605	69.48853
3.261	64.75525
3.2615	58.41064
3.262	43.70728
3.2625	40.98816
3.263	47.03064
3.2635	45.72144
3.264	46.92993
3.2645	58.30994
3.265	63.24463
3.2655	65.05737
3.266	40.58533
3.2665	22.86072
3.267	18.22815
3.2675	19.94019
3.268	13.99841
3.2685	8.05664
3.269	-1.40991
3.2695	-20.24231
3.27	-32.42798
3.2705	-66.06445
3.271	-70.59631
3.2715	-54.48303
3.272	-43.40515
3.2725	-28.70178
3.273	-20.54443
3.2735	-15.60974
3.274	-0.50354
3.2745	32.12585
3.275	57.70569
3.2755	62.43896
3.276	65.3595
3.2765	49.95117
3.277	34.74426
3.2775	14.60266
3.278	0.40283
3.2785	-11.07788
3.279	-16.41541
3.2795	-16.41541
3.28	-8.05664
3.2805	-2.92053
3.281	-5.94177
3.2815	-2.5177
3.282	1.91345
3.2825	-9.36584
3.283	-12.28638
3.2835	-17.32178
3.284	-16.61682
3.2845	-23.06213
3.285	-41.69312
3.2855	-33.23364
3.286	-28.39966
3.2865	-26.78833
3.287	-75.83313
3.2875	-97.28394
3.288	-91.04004
3.2885	-82.37915
3.289	-60.52551
3.2895	-30.2124
3.29	-5.74036
3.2905	20.54443
3.291	50.15259
3.2915	68.07861
3.292	82.17773
3.2925	87.01172
3.293	79.66003
3.2935	80.96924
3.294	73.91968
3.2945	60.02197
3.295	44.11011
3.2955	39.17542
3.296	38.06763
3.2965	51.36108
3.297	61.53259
3.2975	57.10144
3.298	30.31311
3.2985	3.92761
3.299	-17.6239
3.2995	-31.52161
3.3	-33.9386
3.3005	-41.99524
3.301	-38.77258
3.3015	-35.85205
3.302	-29.00391
3.3025	-22.76001
3.303	-13.19275
3.3035	-6.2439
3.304	-1.81274
3.3045	6.14319
3.305	17.82532
3.3055	31.21948
3.306	51.76392
3.3065	68.68286
3.307	39.07471
3.3075	-10.77576
3.308	-41.08887
3.3085	-60.22339
3.309	-59.82056
3.3095	-51.66321
3.31	-40.68604
3.3105	-19.73877
3.311	-2.5177
3.3115	18.32886
3.312	43.60657
3.3125	42.49878
3.313	43.60657
3.3135	41.4917
3.314	54.68445
3.3145	48.54126
3.315	66.36658
3.3155	68.07861
3.316	61.33118
3.3165	59.61914
3.317	57.9071
3.3175	66.87012
3.318	63.94958
3.3185	43.40515
3.319	8.96301
3.3195	-50.55542
3.32	-61.02905
3.3205	-58.71277
3.321	-44.91577
3.3215	-29.30603
3.322	-21.55151
3.3225	-23.76709
3.323	-0.50354
3.3235	22.55859
3.324	48.74268
3.3245	64.25171
3.325	71.30127
3.3255	59.01489
3.326	44.51294
3.3265	36.85913
3.327	23.56567
3.3275	11.2793
3.328	10.17151
3.3285	20.54443
3.329	32.93152
3.3295	35.44922
3.33	30.61523
3.3305	13.59558
3.331	0.20142
3.3315	-0.20142
3.332	5.94177
3.3325	10.17151
3.333	0.90637
3.3335	4.63257
3.334	-17.6239
3.3345	-67.77649
3.335	-94.76624
3.3355	-89.22729
3.336	-79.2572
3.3365	-58.41064
3.337	-31.32019
3.3375	-4.43115
3.338	14.40125
3.3385	32.42798
3.339	41.18958
3.3395	48.13843
3.34	52.67029
3.3405	41.89453
3.341	35.2478
3.3415	12.5885
3.342	-39.37683
3.3425	-73.51685
3.343	-94.56482
3.3435	-101.61438
3.344	-86.8103
3.3445	-67.17224
3.345	-47.23206
3.3455	-31.92444
3.346	-18.73169
3.3465	1.61133
3.347	12.99133
3.3475	23.56567
3.348	30.71594
3.3485	41.4917
3.349	48.13843
3.3495	61.23047
3.35	69.58923
3.3505	90.03296
3.351	105.23987
3.3515	111.28235
3.352	112.08801
3.3525	97.78748
3.353	75.12817
3.3535	47.63489
3.354	26.68762
3.3545	12.08496
3.355	2.5177
3.3555	-10.77576
3.356	-16.11328
3.3565	-24.47205
3.357	-30.51453
3.3575	-29.40674
3.358	-31.62231
3.3585	-31.52161
3.359	-31.01807
3.3595	-33.53577
3.36	-32.83081
3.3605	-30.11169
3.361	-26.28479
3.3615	-21.45081
3.362	-12.68921
3.3625	-10.17151
3.363	-4.93469
3.3635	1.00708
3.364	12.89062
3.3645	9.36584
3.365	14.70337
3.3655	12.89062
3.366	20.24231
3.3665	36.35559
3.367	44.41223
3.3675	43.70728
3.368	44.21082
3.3685	49.54834
3.369	51.76392
3.3695	51.5625
3.37	56.09436
3.3705	48.54126
3.371	39.47754
3.3715	23.56567
3.372	9.86938
3.3725	-9.66797
3.373	-20.54443
3.3735	-42.09595
3.374	-48.74268
3.3745	-43.80798
3.375	-28.09753
3.3755	-19.23523
3.376	-12.78992
3.3765	-10.17151
3.377	-13.19275
3.3775	-16.81824
3.378	-13.89771
3.3785	-8.7616
3.379	0
3.3795	-2.5177
3.38	-13.69629
3.3805	-21.55151
3.381	-10.77576
3.3815	-5.53894
3.382	3.02124
3.3825	20.24231
3.383	30.91736
3.3835	34.44214
3.384	25.57983
3.3845	10.77576
3.385	13.09204
3.3855	15.00549
3.386	17.52319
3.3865	17.12036
3.387	18.63098
3.3875	13.89771
3.388	14.09912
3.3885	6.04248
3.389	16.71753
3.3895	22.45789
3.39	35.65063
3.3905	34.14001
3.391	30.51453
3.3915	24.37134
3.392	23.8678
3.3925	13.69629
3.393	7.85522
3.3935	13.797
3.394	19.03381
3.3945	13.797
3.395	4.22974
3.3955	2.81982
3.396	9.06372
3.3965	13.49487
3.397	-2.31628
3.3975	-18.93311
3.398	-27.99683
3.3985	-40.58533
3.399	-51.36108
3.3995	-35.85205
3.4	-18.02673
3.4005	-19.94019
3.401	-26.68762
3.4015	-22.86072
3.402	-27.19116
3.4025	-13.99841
3.403	-1.61133
3.4035	-4.12903
3.404	-2.21558
3.4045	5.84106
3.405	19.33594
3.4055	33.43506
3.406	43.60657
3.4065	43.10303
3.407	48.33984
3.4075	57.70569
3.408	70.79773
3.4085	84.09119
3.409	76.53809
3.4095	65.86304
3.41	54.98657
3.4105	42.19666
3.411	32.32727
3.4115	24.57275
3.412	24.77417
3.4125	18.12744
3.413	16.01257
3.4135	17.52319
3.414	25.37842
3.4145	20.34302
3.415	18.53027
3.4155	11.98425
3.416	-2.01416
3.4165	-4.93469
3.417	-20.54443
3.4175	-33.13293
3.418	-39.77966
3.4185	-42.7002
3.419	-47.23206
3.4195	-45.52002
3.42	-42.7002
3.4205	-36.75842
3.421	-25.78125
3.4215	-25.177
3.422	-21.14868
3.4225	-14.90479
3.423	-6.74744
3.4235	2.01416
3.424	2.11487
3.4245	2.5177
3.425	8.8623
3.4255	11.78284
3.426	12.18567
3.4265	14.60266
3.427	9.36584
3.4275	-8.7616
3.428	-22.55859
3.4285	-21.04797
3.429	-17.12036
3.4295	-20.94727
3.43	-27.99683
3.4305	-20.04089
3.431	-24.57275
3.4315	-27.29187
3.432	-16.21399
3.4325	-5.0354
3.433	6.64673
3.4335	20.74585
3.434	30.71594
3.4345	34.74426
3.435	36.55701
3.4355	28.70178
3.436	22.15576
3.4365	23.8678
3.437	29.50745
3.4375	30.31311
3.438	37.56409
3.4385	38.36975
3.439	40.2832
3.4395	32.83081
3.44	28.9032
3.4405	33.43506
3.441	21.55151
3.4415	18.73169
3.442	7.35168
3.4425	19.43665
3.443	19.83948
3.4435	27.19116
3.444	32.83081
3.4445	37.36267
3.445	33.43506
3.4455	26.28479
3.446	25.98267
3.4465	20.04089
3.447	19.43665
3.4475	18.73169
3.448	17.52319
3.4485	13.59558
3.449	16.61682
3.4495	-23.76709
3.45	-54.98657
3.4505	-76.63879
3.451	-95.26978
3.4515	-110.57739
3.452	-110.47668
3.4525	-136.45935
3.453	-164.05334
3.4535	-163.85193
3.454	-130.41687
3.4545	-97.38464
3.455	-52.26746
3.4555	4.22974
3.456	43.50586
3.4565	81.47278
3.457	112.89368
3.4575	136.76147
3.458	145.01953
3.4585	142.30042
3.459	147.73865
3.4595	151.06201
3.46	147.23511
3.4605	147.43652
3.461	131.72607
3.4615	115.7135
3.462	102.42004
3.4625	77.14233
3.463	59.21631
3.4635	43.50586
3.464	20.64514
3.4645	3.62549
3.465	-6.64673
3.4655	-12.28638
3.466	-6.44531
3.4665	-5.13611
3.467	-2.11487
3.4675	-8.96301
3.468	-15.40833
3.4685	-8.7616
3.469	-2.11487
3.4695	-2.61841
3.47	2.61841
3.4705	0.10071
3.471	-1.00708
3.4715	1.40991
3.472	-2.5177
3.4725	-1.71204
3.473	-6.74744
3.4735	-6.14319
3.474	-14.40125
3.4745	-24.16992
3.475	-27.09045
3.4755	-23.76709
3.476	-23.8678
3.4765	-6.14319
3.477	-0.20142
3.4775	8.8623
3.478	7.95593
3.4785	-1.10779
3.479	-6.04248
3.4795	-8.45947
3.48	-6.3446
3.4805	-12.5885
3.481	3.92761
3.4815	9.36584
3.482	8.66089
3.4825	6.44531
3.483	2.92053
3.4835	3.52478
3.484	1.2085
3.4845	8.05664
3.485	13.99841
3.4855	19.63806
3.486	15.30762
3.4865	9.66797
3.487	-0.70496
3.4875	3.42407
3.488	-1.3092
3.4885	-11.17859
3.489	-21.14868
3.4895	-31.4209
3.49	-40.58533
3.4905	-32.83081
3.491	-33.13293
3.4915	-31.21948
3.492	-26.28479
3.4925	-30.11169
3.493	-27.59399
3.4935	-31.72302
3.494	-26.3855
3.4945	-13.69629
3.495	-1.10779
3.4955	10.27222
3.496	18.93311
3.4965	19.53735
3.497	-6.3446
3.4975	-40.48462
3.498	-47.93701
3.4985	-46.5271
3.499	-37.56409
3.4995	-20.24231
3.5	0.30212
3.5005	10.37292
3.501	27.79541
3.5015	44.41223
3.502	54.98657
3.5025	60.62622
3.503	72.9126
3.5035	76.84021
3.504	76.03455
3.5045	69.58923
3.505	69.38782
3.5055	66.36658
3.506	51.36108
3.5065	2.5177
3.507	-39.37683
3.5075	-75.63171
3.508	-94.3634
3.5085	-98.69385
3.509	-79.96216
3.5095	-57.70569
3.51	-30.51453
3.5105	-3.52478
3.511	19.13452
3.5115	38.77258
3.512	57.8064
3.5125	65.3595
3.513	68.68286
3.5135	85.70251
3.514	81.37207
3.5145	80.06287
3.515	63.64746
3.5155	58.20923
3.516	61.43188
3.5165	68.68286
3.517	68.48145
3.5175	58.91418
3.518	47.43347
3.5185	35.44922
3.519	19.53735
3.5195	-1.10779
3.52	-7.35168
3.5205	-6.14319
3.521	6.3446
3.5215	3.02124
3.522	6.14319
3.5225	9.16443
3.523	8.7616
3.5235	13.19275
3.524	1.91345
3.5245	-1.40991
3.525	-7.65381
3.5255	-15.81116
3.526	-20.54443
3.5265	-36.4563
3.527	-41.39099
3.5275	-46.12427
3.528	-42.49878
3.5285	-36.35559
3.529	-30.31311
3.5295	-33.43506
3.53	-45.3186
3.5305	-46.72852
3.531	-54.38232
3.5315	-51.86462
3.532	-40.1825
3.5325	-33.73718
3.533	-24.87488
3.5335	-5.84106
3.534	13.39417
3.5345	19.43665
3.535	25.27771
3.5355	43.90869
3.536	56.09436
3.5365	59.82056
3.537	44.81506
3.5375	37.46338
3.538	43.60657
3.5385	41.89453
3.539	23.8678
3.5395	-45.01648
3.54	-83.38623
3.5405	-79.2572
3.541	-67.47437
3.5415	-46.12427
3.542	-11.2793
3.5425	18.02673
3.543	57.60498
3.5435	78.95508
3.544	112.39014
3.5445	134.64661
3.545	135.65369
3.5455	115.7135
3.546	89.63013
3.5465	62.9425
3.547	19.33594
3.5475	-21.24939
3.548	-49.85046
3.5485	-55.49011
3.549	-57.00073
3.5495	-49.44763
3.55	-45.01648
3.5505	-31.11877
3.551	-17.52319
3.5515	-0.50354
3.552	9.76868
3.5525	21.65222
3.553	26.68762
3.5535	34.84497
3.554	43.20374
3.5545	56.39648
3.555	55.79224
3.5555	55.79224
3.556	55.49011
3.5565	65.76233
3.557	70.3949
3.5575	66.46729
3.558	47.53418
3.5585	37.06055
3.559	33.83789
3.5595	32.52869
3.56	12.78992
3.5605	-5.53894
3.561	-9.97009
3.5615	-16.71753
3.562	-16.81824
3.5625	-13.99841
3.563	-19.23523
3.5635	-30.2124
3.564	-37.26196
3.5645	-45.2179
3.565	-40.78674
3.5655	-36.95984
3.566	-26.98975
3.5665	-25.27771
3.567	-22.15576
3.5675	-7.45239
3.568	9.66797
3.5685	13.39417
3.569	17.12036
3.5695	11.88354
3.57	21.04797
3.5705	27.19116
3.571	31.11877
3.5715	36.85913
3.572	34.44214
3.5725	29.50745
3.573	21.55151
3.5735	16.61682
3.574	-6.04248
3.5745	-26.48621
3.575	-48.33984
3.5755	-66.26587
3.576	-77.74658
3.5765	-72.71118
3.577	-61.43188
3.5775	-43.90869
3.578	-39.37683
3.5785	-32.42798
3.579	-31.72302
3.5795	-36.35559
3.58	-69.28711
3.5805	-107.65686
3.581	-115.51208
3.5815	-113.90076
3.582	-94.16199
3.5825	-75.83313
3.583	-54.38232
3.5835	-28.9032
3.584	13.09204
3.5845	47.8363
3.585	70.29419
3.5855	89.52942
3.586	113.29651
3.5865	116.41846
3.587	118.43262
3.5875	107.55615
3.588	104.53491
3.5885	102.01721
3.589	94.16199
3.5895	82.37915
3.59	74.42322
3.5905	61.12976
3.591	46.72852
3.5915	21.14868
3.592	-10.77576
3.5925	-27.99683
3.593	-22.15576
3.5935	-9.76868
3.594	-5.94177
3.5945	-1.71204
3.595	7.95593
3.5955	30.31311
3.596	35.75134
3.5965	44.0094
3.597	38.67188
3.5975	38.974
3.598	34.64355
3.5985	35.44922
3.599	27.19116
3.5995	21.85364
3.6	26.28479
3.6005	13.99841
3.601	15.50903
3.6015	6.54602
3.602	5.23682
3.6025	-0.50354
3.603	2.21558
3.6035	6.44531
3.604	10.57434
3.6045	10.17151
3.605	7.04956
3.6055	11.48071
3.606	0.50354
3.6065	-2.71912
3.607	-14.50195
3.6075	-16.11328
3.608	-11.98425
3.6085	-1.61133
3.609	3.92761
3.6095	6.94885
3.61	4.73328
3.6105	-52.8717
3.611	-86.8103
3.6115	-94.16199
3.612	-93.15491
3.6125	-83.68835
3.613	-62.03613
3.6135	-34.34143
3.614	-10.27222
3.6145	17.12036
3.615	50.95825
3.6155	78.45154
3.616	96.07544
3.6165	106.8512
3.617	98.89526
3.6175	81.17065
3.618	62.43896
3.6185	49.85046
3.619	41.29028
3.6195	25.98267
3.62	16.3147
3.6205	16.81824
3.621	13.09204
3.6215	5.84106
3.622	-1.71204
3.6225	-7.85522
3.623	-7.15027
3.6235	0.90637
3.624	-5.63965
3.6245	-3.02124
3.625	-15.40833
3.6255	-18.93311
3.626	-24.97559
3.6265	-20.04089
3.627	-17.82532
3.6275	-15.71045
3.628	-21.65222
3.6285	-19.13452
3.629	-12.99133
3.6295	-8.66089
3.63	3.32336
3.6305	-8.25806
3.631	-8.56018
3.6315	-4.73328
3.632	-1.81274
3.6325	11.88354
3.633	15.50903
3.6335	25.47913
3.634	15.60974
3.6345	17.72461
3.635	10.47363
3.6355	9.06372
3.636	6.04248
3.6365	-3.7262
3.637	-8.66089
3.6375	-18.8324
3.638	-26.68762
3.6385	-30.41382
3.639	-31.62231
3.6395	-27.79541
3.64	-27.79541
3.6405	-18.63098
3.641	-1.61133
3.6415	0.40283
3.642	2.31628
3.6425	4.12903
3.643	8.05664
3.6435	12.68921
3.644	14.50195
3.6445	8.8623
3.645	20.34302
3.6455	21.95435
3.646	24.77417
3.6465	17.52319
3.647	16.61682
3.6475	10.67505
3.648	7.15027
3.6485	-4.33044
3.649	-19.03381
3.6495	-23.36426
3.65	-25.27771
3.6505	-22.05505
3.651	-30.51453
3.6515	-57.00073
3.652	-60.82764
3.6525	-54.0802
3.653	-44.51294
3.6535	-19.43665
3.654	6.04248
3.6545	32.62939
3.655	54.78516
3.6555	76.84021
3.656	84.59473
3.6565	90.73792
3.657	86.20605
3.6575	81.27136
3.658	66.16516
3.6585	44.71436
3.659	12.18567
3.6595	-7.04956
3.66	-17.52319
3.6605	-23.8678
3.661	-49.24622
3.6615	-59.82056
3.662	-50.65613
3.6625	-50.65613
3.663	-43.20374
3.6635	-41.99524
3.664	-36.95984
3.6645	-24.06921
3.665	-5.13611
3.6655	18.42957
3.666	38.47046
3.6665	43.20374
3.667	54.58374
3.6675	62.03613
3.668	68.48145
3.6685	72.00623
3.669	74.12109
3.6695	64.95667
3.67	71.60339
3.6705	69.38782
3.671	65.96375
3.6715	50.95825
3.672	27.6947
3.6725	27.39258
3.673	21.04797
3.6735	7.25098
3.674	-0.20142
3.6745	-1.10779
3.675	-2.41699
3.6755	-9.36584
3.676	-9.86938
3.6765	-1.81274
3.677	-6.74744
3.6775	0.30212
3.678	-3.12195
3.6785	-6.44531
3.679	-14.50195
3.6795	-35.2478
3.68	-39.27612
3.6805	-38.87329
3.681	-38.36975
3.6815	-25.88196
3.682	-8.96301
3.6825	11.38
3.683	15.40833
3.6835	13.797
3.684	-15.20691
3.6845	-21.55151
3.685	-20.44373
3.6855	-19.63806
3.686	-13.39417
3.6865	-2.31628
3.687	16.21399
3.6875	31.72302
3.688	50.55542
3.6885	62.53967
3.689	70.09277
3.6895	71.40198
3.69	59.71985
3.6905	41.59241
3.691	23.96851
3.6915	-2.81982
3.692	-18.32886
3.6925	-40.88745
3.693	-48.74268
3.6935	-37.16125
3.694	-20.54443
3.6945	-14.80408
3.695	-13.49487
3.6955	-19.63806
3.696	-26.68762
3.6965	-25.27771
3.697	-27.6947
3.6975	-20.34302
3.698	-16.91895
3.6985	-3.92761
3.699	-0.30212
3.6995	12.38708
3.7	27.49329
3.7005	37.56409
3.701	43.10303
3.7015	53.67737
3.702	54.78516
3.7025	53.27454
3.703	54.28162
3.7035	56.49719
3.704	51.26038
3.7045	45.62073
3.705	30.61523
3.7055	23.36426
3.706	9.56726
3.7065	-7.75452
3.707	-6.54602
3.7075	-15.71045
3.708	-16.51611
3.7085	-15.71045
3.709	-20.34302
3.7095	-21.95435
3.71	-22.35718
3.7105	-20.1416
3.711	-9.26514
3.7115	-8.15735
3.712	-2.01416
3.7125	-18.02673
3.713	-35.04639
3.7135	-38.77258
3.714	-53.67737
3.7145	-62.13684
3.715	-62.23755
3.7155	-43.50586
3.716	-28.50037
3.7165	-11.38
3.717	-31.92444
3.7175	-46.02356
3.718	-44.31152
3.7185	-37.06055
3.719	-18.22815
3.7195	4.02832
3.72	18.32886
3.7205	31.82373
3.721	46.02356
3.7215	61.12976
3.722	75.4303
3.7225	74.42322
3.723	80.86853
3.7235	82.78198
3.724	82.58057
3.7245	81.7749
3.725	56.90002
3.7255	34.64355
3.726	30.81665
3.7265	22.15576
3.727	20.64514
3.7275	15.1062
3.728	11.58142
3.7285	2.81982
3.729	-7.5531
3.7295	-8.05664
3.73	-8.7616
3.7305	-13.09204
3.731	-23.76709
3.7315	-31.82373
3.732	-30.61523
3.7325	-34.44214
3.733	-36.65771
3.7335	-40.98816
3.734	-45.62073
3.7345	-35.34851
3.735	-38.47046
3.7355	-30.01099
3.736	-31.21948
3.7365	-26.68762
3.737	-23.16284
3.7375	-18.22815
3.738	-0.30212
3.7385	7.75452
3.739	15.30762
3.7395	19.94019
3.74	29.80957
3.7405	43.10303
3.741	44.21082
3.7415	54.88586
3.742	68.17932
3.7425	73.61755
3.743	74.42322
3.7435	63.14392
3.744	58.61206
3.7445	48.13843
3.745	34.24072
3.7455	8.05664
3.746	-0.70496
3.7465	-8.8623
3.747	-1.51062
3.7475	3.32336
3.748	2.61841
3.7485	9.76868
3.749	2.5177
3.7495	1.3092
3.75	-9.76868
3.7505	-21.65222
3.751	-21.04797
3.7515	-15.60974
3.752	-12.5885
3.7525	-6.54602
3.753	-4.12903
3.7535	-0.40283
3.754	9.46655
3.7545	11.58142
3.755	18.02673
3.7555	21.45081
3.756	18.22815
3.7565	16.01257
3.757	23.56567
3.7575	23.56567
3.758	29.40674
3.7585	13.99841
3.759	-2.81982
3.7595	-23.16284
3.76	-40.1825
3.7605	-43.40515
3.761	-49.85046
3.7615	-47.63489
3.762	-43.30444
3.7625	-37.96692
3.763	-38.87329
3.7635	-32.22656
3.764	-28.60107
3.7645	-7.45239
3.765	-14.09912
3.7655	-29.91028
3.766	-33.03223
3.7665	-29.30603
3.767	-18.42957
3.7675	-5.63965
3.768	7.35168
3.7685	19.94019
3.769	36.95984
3.7695	51.66321
3.77	67.77649
3.7705	78.14941
3.771	72.81189
3.7715	71.50269
3.772	66.87012
3.7725	48.84338
3.773	45.3186
3.7735	57.70569
3.774	56.39648
3.7745	52.56958
3.775	44.81506
3.7755	40.48462
3.776	28.9032
3.7765	4.33044
3.777	-15.30762
3.7775	-34.54285
3.778	-42.90161
3.7785	-42.19666
3.779	-37.26196
3.7795	-44.61365
3.78	-52.46887
3.7805	-51.36108
3.781	-49.24622
3.7815	-31.21948
3.782	-18.8324
3.7825	-53.67737
3.783	-100.70801
3.7835	-115.7135
3.784	-124.17297
3.7845	-114.70642
3.785	-92.55066
3.7855	-62.53967
3.786	-31.62231
3.7865	6.04248
3.787	46.22498
3.7875	84.19189
3.788	107.05261
3.7885	119.54041
3.789	111.58447
3.7895	97.88818
3.79	91.04004
3.7905	75.12817
3.791	55.99365
3.7915	34.34143
3.792	28.50037
3.7925	13.29346
3.793	10.47363
3.7935	4.33044
3.794	0.50354
3.7945	-12.28638
3.795	-7.65381
3.7955	-11.58142
3.796	-1.61133
3.7965	-3.7262
3.797	-6.54602
3.7975	-4.73328
3.798	-0.70496
3.7985	6.2439
3.799	23.26355
3.7995	34.44214
3.8	39.27612
3.8005	44.11011
3.801	46.62781
3.8015	42.7002
3.802	34.24072
3.8025	29.80957
3.803	27.09045
3.8035	21.85364
3.804	16.91895
3.8045	21.95435
3.805	11.88354
3.8055	7.35168
3.806	-1.00708
3.8065	-16.71753
3.807	-33.33435
3.8075	-46.72852
3.808	-51.96533
3.8085	-58.30994
3.809	-58.91418
3.8095	-58.10852
3.81	-50.45471
3.8105	-44.71436
3.811	-27.19116
3.8115	-15.91187
3.812	-14.40125
3.8125	-4.63257
3.813	10.87646
3.8135	20.74585
3.814	22.35718
3.8145	29.91028
3.815	49.14551
3.8155	70.29419
3.816	78.65295
3.8165	82.17773
3.817	81.87561
3.8175	70.19348
3.818	60.92834
3.8185	43.80798
3.819	31.32019
3.8195	19.53735
3.82	-2.01416
3.8205	-21.95435
3.821	-43.80798
3.8215	-66.46729
3.822	-76.84021
3.8225	-79.86145
3.823	-72.10693
3.8235	-73.21472
3.824	-52.26746
3.8245	-22.05505
3.825	10.0708
3.8255	30.41382
3.826	48.03772
3.8265	62.43896
3.827	73.31543
3.8275	75.02747
3.828	75.83313
3.8285	77.14233
3.829	67.77649
3.8295	59.01489
3.83	47.53418
3.8305	46.5271
3.831	48.33984
3.8315	48.03772
3.832	33.73718
3.8325	20.04089
3.833	14.50195
3.8335	4.43115
3.834	7.85522
3.8345	1.40991
3.835	4.53186
3.8355	10.87646
3.836	8.56018
3.8365	-4.73328
3.837	-12.68921
3.8375	-22.96143
3.838	-25.78125
3.8385	-26.28479
3.839	-10.17151
3.8395	-6.3446
3.84	0.40283
3.8405	-1.00708
3.841	-29.50745
3.8415	-62.43896
3.842	-65.46021
3.8425	-64.55383
3.843	-55.49011
3.8435	-48.13843
3.844	-42.39807
3.8445	-38.77258
3.845	-29.80957
3.8455	-20.04089
3.846	-4.83398
3.8465	9.97009
3.847	10.27222
3.8475	7.5531
3.848	3.02124
3.8485	12.18567
3.849	24.57275
3.8495	35.34851
3.85	40.48462
3.8505	48.13843
3.851	58.81348
3.8515	56.90002
3.852	61.23047
3.8525	49.95117
3.853	38.47046
3.8535	33.9386
3.854	27.29187
