Domenico_Di_Fonza_Left_3.c3d  



Time(s):	C_L_bicipite(μV):
0	2.92053
0.0005	3.22266
0.001	8.96301
0.0015	2.92053
0.002	1.91345
0.0025	4.63257
0.003	4.63257
0.0035	9.26514
0.004	5.94177
0.0045	5.43823
0.005	4.02832
0.0055	4.02832
0.006	9.06372
0.0065	3.52478
0.007	7.5531
0.0075	12.89062
0.008	8.05664
0.0085	7.65381
0.009	9.66797
0.0095	7.25098
0.01	5.53894
0.0105	8.96301
0.011	9.36584
0.0115	6.14319
0.012	6.94885
0.0125	13.59558
0.013	10.0708
0.0135	7.04956
0.014	8.66089
0.0145	6.94885
0.015	4.73328
0.0155	12.38708
0.016	11.17859
0.0165	7.95593
0.017	9.46655
0.0175	9.76868
0.018	9.06372
0.0185	6.44531
0.019	6.74744
0.0195	6.2439
0.02	2.92053
0.0205	7.25098
0.021	6.3446
0.0215	8.15735
0.022	9.16443
0.0225	2.5177
0.023	6.54602
0.0235	10.57434
0.024	13.797
0.0245	13.09204
0.025	14.70337
0.0255	11.88354
0.026	11.48071
0.0265	3.8269
0.027	0.50354
0.0275	9.16443
0.028	9.66797
0.0285	9.86938
0.029	12.5885
0.0295	10.27222
0.03	7.75452
0.0305	8.35876
0.031	10.57434
0.0315	4.73328
0.032	4.02832
0.0325	4.83398
0.033	3.22266
0.0335	6.14319
0.034	10.27222
0.0345	6.64673
0.035	4.43115
0.0355	3.22266
0.036	2.41699
0.0365	3.22266
0.037	4.12903
0.0375	9.06372
0.038	10.27222
0.0385	5.74036
0.039	8.56018
0.0395	0.90637
0.04	4.33044
0.0405	3.7262
0.041	5.43823
0.0415	8.05664
0.042	5.43823
0.0425	12.48779
0.043	8.05664
0.0435	7.04956
0.044	4.83398
0.0445	4.33044
0.045	4.83398
0.0455	8.8623
0.046	10.37292
0.0465	6.14319
0.047	8.15735
0.0475	3.12195
0.048	5.84106
0.0485	1.91345
0.049	5.94177
0.0495	-1.51062
0.05	5.84106
0.0505	0.30212
0.051	3.7262
0.0515	3.32336
0.052	5.13611
0.0525	7.5531
0.053	8.45947
0.0535	9.16443
0.054	4.83398
0.0545	1.10779
0.055	-0.70496
0.0555	1.91345
0.056	8.7616
0.0565	1.2085
0.057	5.74036
0.0575	3.62549
0.058	5.23682
0.0585	2.92053
0.059	4.43115
0.0595	3.22266
0.06	10.37292
0.0605	4.83398
0.061	5.53894
0.0615	7.25098
0.062	4.22974
0.0625	2.71912
0.063	1.91345
0.0635	8.7616
0.064	5.74036
0.0645	-2.92053
0.065	4.43115
0.0655	6.64673
0.066	4.63257
0.0665	2.92053
0.067	4.02832
0.0675	6.14319
0.068	0.70496
0.0685	6.84814
0.069	2.81982
0.0695	6.3446
0.07	8.05664
0.0705	10.17151
0.071	6.64673
0.0715	4.12903
0.072	9.86938
0.0725	6.84814
0.073	3.32336
0.0735	6.64673
0.074	4.73328
0.0745	5.63965
0.075	7.45239
0.0755	5.33752
0.076	7.35168
0.0765	1.91345
0.077	3.02124
0.0775	11.2793
0.078	10.17151
0.0785	6.94885
0.079	6.2439
0.0795	2.31628
0.08	9.76868
0.0805	7.65381
0.081	8.96301
0.0815	3.22266
0.082	6.94885
0.0825	2.5177
0.083	7.5531
0.0835	9.86938
0.084	8.8623
0.0845	6.54602
0.085	8.8623
0.0855	6.2439
0.086	9.86938
0.0865	8.25806
0.087	6.04248
0.0875	8.96301
0.088	6.14319
0.0885	8.56018
0.089	9.06372
0.0895	11.68213
0.09	4.73328
0.0905	5.0354
0.091	11.88354
0.0915	8.35876
0.092	-1.00708
0.0925	2.81982
0.093	2.31628
0.0935	5.63965
0.094	4.63257
0.0945	3.8269
0.095	4.43115
0.0955	-1.2085
0.096	1.71204
0.0965	2.5177
0.097	3.22266
0.0975	8.8623
0.098	1.51062
0.0985	8.7616
0.099	2.31628
0.0995	4.93469
0.1	6.64673
0.1005	3.32336
0.101	7.95593
0.1015	6.64673
0.102	2.92053
0.1025	5.74036
0.103	2.21558
0.1035	10.17151
0.104	4.12903
0.1045	7.35168
0.105	4.53186
0.1055	4.63257
0.106	2.5177
0.1065	5.13611
0.107	6.84814
0.1075	5.43823
0.108	4.53186
0.1085	7.65381
0.109	7.5531
0.1095	5.23682
0.11	8.25806
0.1105	7.15027
0.111	3.62549
0.1115	9.56726
0.112	8.7616
0.1125	6.64673
0.113	5.33752
0.1135	9.36584
0.114	12.38708
0.1145	6.3446
0.115	4.43115
0.1155	10.47363
0.116	5.33752
0.1165	6.64673
0.117	6.3446
0.1175	2.71912
0.118	4.73328
0.1185	5.63965
0.119	1.91345
0.1195	6.2439
0.12	7.95593
0.1205	5.13611
0.121	4.73328
0.1215	6.54602
0.122	5.94177
0.1225	8.66089
0.123	7.5531
0.1235	9.76868
0.124	4.73328
0.1245	11.68213
0.125	11.17859
0.1255	11.17859
0.126	6.94885
0.1265	6.94885
0.127	8.96301
0.1275	8.05664
0.128	7.5531
0.1285	8.35876
0.129	7.5531
0.1295	8.05664
0.13	7.45239
0.1305	6.54602
0.131	4.22974
0.1315	6.14319
0.132	4.02832
0.1325	8.45947
0.133	9.06372
0.1335	10.47363
0.134	9.16443
0.1345	2.92053
0.135	6.04248
0.1355	6.64673
0.136	1.61133
0.1365	8.15735
0.137	6.2439
0.1375	2.01416
0.138	2.71912
0.1385	0.40283
0.139	-0.60425
0.1395	2.21558
0.14	3.12195
0.1405	5.84106
0.141	6.54602
0.1415	2.61841
0.142	11.07788
0.1425	8.66089
0.143	4.22974
0.1435	-0.60425
0.144	0.60425
0.1445	-0.20142
0.145	-3.22266
0.1455	-1.2085
0.146	1.3092
0.1465	6.04248
0.147	1.00708
0.1475	2.21558
0.148	4.93469
0.1485	5.33752
0.149	4.53186
0.1495	5.94177
0.15	1.2085
0.1505	4.93469
0.151	6.64673
0.1515	7.75452
0.152	6.64673
0.1525	6.04248
0.153	7.25098
0.1535	9.86938
0.154	4.02832
0.1545	3.7262
0.155	6.54602
0.1555	7.04956
0.156	5.63965
0.1565	5.84106
0.157	6.54602
0.1575	5.0354
0.158	6.44531
0.1585	5.33752
0.159	0.10071
0.1595	-0.90637
0.16	6.04248
0.1605	4.22974
0.161	2.5177
0.1615	-2.41699
0.162	6.3446
0.1625	4.83398
0.163	8.96301
0.1635	9.16443
0.164	3.62549
0.1645	6.54602
0.165	8.35876
0.1655	4.73328
0.166	1.91345
0.1665	2.81982
0.167	3.7262
0.1675	5.53894
0.168	7.45239
0.1685	6.44531
0.169	4.12903
0.1695	3.62549
0.17	6.04248
0.1705	6.04248
0.171	6.84814
0.1715	6.84814
0.172	10.27222
0.1725	4.33044
0.173	5.94177
0.1735	1.2085
0.174	3.7262
0.1745	5.94177
0.175	1.3092
0.1755	5.23682
0.176	8.35876
0.1765	10.27222
0.177	2.21558
0.1775	5.53894
0.178	4.43115
0.1785	10.0708
0.179	5.13611
0.1795	7.65381
0.18	10.17151
0.1805	1.40991
0.181	0.50354
0.1815	0.90637
0.182	-0.50354
0.1825	2.71912
0.183	1.00708
0.1835	3.92761
0.184	1.40991
0.1845	-0.30212
0.185	5.33752
0.1855	10.47363
0.186	10.47363
0.1865	8.66089
0.187	7.15027
0.1875	5.53894
0.188	4.33044
0.1885	4.43115
0.189	8.25806
0.1895	7.85522
0.19	2.71912
0.1905	9.76868
0.191	5.23682
0.1915	3.7262
0.192	1.91345
0.1925	4.33044
0.193	3.12195
0.1935	3.7262
0.194	1.71204
0.1945	-1.51062
0.195	1.91345
0.1955	3.8269
0.196	0.10071
0.1965	0.70496
0.197	2.71912
0.1975	4.73328
0.198	0.50354
0.1985	7.04956
0.199	3.92761
0.1995	4.53186
0.2	-0.90637
0.2005	2.5177
0.201	6.04248
0.2015	4.73328
0.202	1.81274
0.2025	-0.10071
0.203	0
0.2035	4.22974
0.204	0.80566
0.2045	9.86938
0.205	4.53186
0.2055	5.94177
0.206	9.76868
0.2065	6.44531
0.207	9.66797
0.2075	9.26514
0.208	6.3446
0.2085	5.84106
0.209	8.8623
0.2095	2.31628
0.21	5.0354
0.2105	3.42407
0.211	1.51062
0.2115	4.93469
0.212	7.65381
0.2125	11.2793
0.213	8.7616
0.2135	9.26514
0.214	6.74744
0.2145	6.54602
0.215	9.86938
0.2155	0.20142
0.216	2.01416
0.2165	3.52478
0.217	6.54602
0.2175	9.36584
0.218	5.43823
0.2185	6.54602
0.219	5.0354
0.2195	6.3446
0.22	3.32336
0.2205	2.61841
0.221	2.71912
0.2215	0.20142
0.222	0.10071
0.2225	4.02832
0.223	2.71912
0.2235	2.21558
0.224	2.92053
0.2245	11.07788
0.225	1.2085
0.2255	7.75452
0.226	6.14319
0.2265	7.25098
0.227	5.74036
0.2275	4.63257
0.228	6.54602
0.2285	5.13611
0.229	3.42407
0.2295	-1.51062
0.23	3.8269
0.2305	1.10779
0.231	4.22974
0.2315	5.13611
0.232	1.10779
0.2325	2.81982
0.233	4.43115
0.2335	2.01416
0.234	8.15735
0.2345	0.40283
0.235	7.45239
0.2355	4.63257
0.236	5.84106
0.2365	11.88354
0.237	8.66089
0.2375	1.91345
0.238	4.43115
0.2385	1.81274
0.239	4.63257
0.2395	9.06372
0.24	6.54602
0.2405	6.54602
0.241	3.8269
0.2415	5.84106
0.242	3.22266
0.2425	4.12903
0.243	6.94885
0.2435	8.05664
0.244	4.43115
0.2445	7.75452
0.245	6.74744
0.2455	0
0.246	-4.33044
0.2465	5.23682
0.247	1.71204
0.2475	0.50354
0.248	7.25098
0.2485	-1.00708
0.249	2.11487
0.2495	4.53186
0.25	2.5177
0.2505	4.73328
0.251	5.63965
0.2515	9.06372
0.252	3.7262
0.2525	5.53894
0.253	4.02832
0.2535	5.0354
0.254	4.63257
0.2545	11.17859
0.255	13.39417
0.2555	12.28638
0.256	2.81982
0.2565	4.02832
0.257	7.15027
0.2575	5.43823
0.258	9.26514
0.2585	13.19275
0.259	12.28638
0.2595	12.78992
0.26	11.07788
0.2605	9.56726
0.261	14.70337
0.2615	10.27222
0.262	7.75452
0.2625	8.05664
0.263	4.93469
0.2635	6.14319
0.264	6.14319
0.2645	8.35876
0.265	11.38
0.2655	13.797
0.266	10.67505
0.2665	8.35876
0.267	9.86938
0.2675	10.27222
0.268	11.17859
0.2685	10.0708
0.269	2.11487
0.2695	8.66089
0.27	4.22974
0.2705	7.65381
0.271	5.94177
0.2715	9.36584
0.272	6.84814
0.2725	6.04248
0.273	6.64673
0.2735	8.35876
0.274	0.50354
0.2745	6.84814
0.275	8.96301
0.2755	5.53894
0.276	4.83398
0.2765	-0.90637
0.277	2.81982
0.2775	4.43115
0.278	7.15027
0.2785	1.51062
0.279	2.31628
0.2795	4.02832
0.28	2.21558
0.2805	4.33044
0.281	8.45947
0.2815	8.05664
0.282	4.93469
0.2825	5.94177
0.283	9.66797
0.2835	2.81982
0.284	1.81274
0.2845	8.15735
0.285	8.15735
0.2855	7.75452
0.286	0.60425
0.2865	3.92761
0.287	4.73328
0.2875	7.85522
0.288	9.16443
0.2885	5.33752
0.289	8.8623
0.2895	4.22974
0.29	1.71204
0.2905	6.44531
0.291	3.7262
0.2915	3.02124
0.292	8.96301
0.2925	1.81274
0.293	3.22266
0.2935	9.26514
0.294	1.10779
0.2945	1.81274
0.295	4.12903
0.2955	3.42407
0.296	8.25806
0.2965	4.53186
0.297	4.22974
0.2975	2.5177
0.298	2.61841
0.2985	-0.10071
0.299	0.80566
0.2995	0.50354
0.3	5.23682
0.3005	3.8269
0.301	3.7262
0.3015	1.2085
0.302	4.83398
0.3025	-1.51062
0.303	3.62549
0.3035	0.70496
0.304	1.40991
0.3045	2.21558
0.305	5.84106
0.3055	-1.10779
0.306	3.12195
0.3065	5.13611
0.307	3.12195
0.3075	7.35168
0.308	5.13611
0.3085	7.15027
0.309	6.64673
0.3095	2.92053
0.31	5.63965
0.3105	6.44531
0.311	1.10779
0.3115	3.52478
0.312	3.52478
0.3125	4.63257
0.313	7.65381
0.3135	2.61841
0.314	4.73328
0.3145	7.25098
0.315	7.65381
0.3155	4.63257
0.316	4.53186
0.3165	3.52478
0.317	1.91345
0.3175	3.62549
0.318	6.2439
0.3185	4.63257
0.319	5.74036
0.3195	8.7616
0.32	3.02124
0.3205	7.85522
0.321	2.5177
0.3215	10.77576
0.322	4.12903
0.3225	5.13611
0.323	4.12903
0.3235	10.47363
0.324	5.23682
0.3245	5.23682
0.325	6.2439
0.3255	4.73328
0.326	7.85522
0.3265	10.67505
0.327	6.44531
0.3275	3.7262
0.328	5.43823
0.3285	5.94177
0.329	7.15027
0.3295	6.94885
0.33	6.64673
0.3305	3.62549
0.331	5.13611
0.3315	4.43115
0.332	11.88354
0.3325	6.94885
0.333	4.12903
0.3335	2.71912
0.334	4.93469
0.3345	5.53894
0.335	8.15735
0.3355	3.62549
0.336	8.35876
0.3365	4.83398
0.337	1.10779
0.3375	0.80566
0.338	5.13611
0.3385	12.08496
0.339	7.25098
0.3395	0.90637
0.34	4.33044
0.3405	2.71912
0.341	2.21558
0.3415	6.44531
0.342	3.52478
0.3425	8.45947
0.343	8.7616
0.3435	7.04956
0.344	11.38
0.3445	4.83398
0.345	6.14319
0.3455	5.33752
0.346	4.22974
0.3465	8.96301
0.347	4.63257
0.3475	7.35168
0.348	5.0354
0.3485	5.84106
0.349	6.64673
0.3495	5.23682
0.35	-0.40283
0.3505	-2.11487
0.351	5.33752
0.3515	4.33044
0.352	2.92053
0.3525	0
0.353	2.81982
0.3535	2.41699
0.354	1.2085
0.3545	4.22974
0.355	6.74744
0.3555	6.14319
0.356	7.75452
0.3565	6.64673
0.357	2.92053
0.3575	5.94177
0.358	8.45947
0.3585	2.81982
0.359	7.75452
0.3595	4.73328
0.36	7.35168
0.3605	-0.40283
0.361	-3.62549
0.3615	2.81982
0.362	3.92761
0.3625	7.04956
0.363	6.94885
0.3635	8.56018
0.364	10.87646
0.3645	11.38
0.365	4.33044
0.3655	-0.70496
0.366	4.22974
0.3665	7.65381
0.367	3.02124
0.3675	2.92053
0.368	1.2085
0.3685	-1.40991
0.369	1.81274
0.3695	1.91345
0.37	2.41699
0.3705	7.45239
0.371	7.85522
0.3715	2.01416
0.372	6.54602
0.3725	7.15027
0.373	8.05664
0.3735	5.63965
0.374	6.14319
0.3745	8.25806
0.375	6.84814
0.3755	5.63965
0.376	3.22266
0.3765	1.40991
0.377	5.43823
0.3775	-1.91345
0.378	5.13611
0.3785	4.83398
0.379	9.76868
0.3795	0.60425
0.38	1.71204
0.3805	8.35876
0.381	5.63965
0.3815	2.5177
0.382	5.53894
0.3825	6.94885
0.383	6.64673
0.3835	7.15027
0.384	3.52478
0.3845	7.04956
0.385	4.33044
0.3855	5.0354
0.386	7.45239
0.3865	6.64673
0.387	6.44531
0.3875	9.66797
0.388	3.7262
0.3885	8.15735
0.389	11.17859
0.3895	6.84814
0.39	4.63257
0.3905	7.75452
0.391	5.84106
0.3915	8.35876
0.392	6.84814
0.3925	8.7616
0.393	3.7262
0.3935	7.5531
0.394	4.33044
0.3945	7.75452
0.395	3.32336
0.3955	0.50354
0.396	7.35168
0.3965	4.73328
0.397	-0.30212
0.3975	2.81982
0.398	2.61841
0.3985	1.91345
0.399	2.5177
0.3995	8.7616
0.4	4.43115
0.4005	3.52478
0.401	6.04248
0.4015	9.16443
0.402	8.56018
0.4025	11.78284
0.403	4.43115
0.4035	8.25806
0.404	4.93469
0.4045	7.85522
0.405	2.5177
0.4055	4.22974
0.406	6.74744
0.4065	11.88354
0.407	3.8269
0.4075	6.84814
0.408	2.92053
0.4085	10.87646
0.409	3.92761
0.4095	4.02832
0.41	5.33752
0.4105	10.77576
0.411	4.93469
0.4115	9.06372
0.412	9.76868
0.4125	9.46655
0.413	9.86938
0.4135	13.49487
0.414	4.93469
0.4145	5.13611
0.415	4.22974
0.4155	7.35168
0.416	8.66089
0.4165	5.84106
0.417	9.36584
0.4175	5.74036
0.418	1.91345
0.4185	1.81274
0.419	5.23682
0.4195	9.76868
0.42	2.71912
0.4205	6.44531
0.421	6.04248
0.4215	9.26514
0.422	3.42407
0.4225	7.5531
0.423	5.63965
0.4235	4.63257
0.424	4.33044
0.4245	-0.10071
0.425	10.17151
0.4255	5.53894
0.426	6.14319
0.4265	5.74036
0.427	8.15735
0.4275	7.15027
0.428	8.25806
0.4285	7.35168
0.429	7.5531
0.4295	5.53894
0.43	5.63965
0.4305	6.04248
0.431	7.65381
0.4315	8.35876
0.432	4.73328
0.4325	7.35168
0.433	4.63257
0.4335	5.94177
0.434	5.43823
0.4345	2.31628
0.435	0.10071
0.4355	-0.70496
0.436	-0.70496
0.4365	3.12195
0.437	-0.20142
0.4375	1.10779
0.438	6.3446
0.4385	4.93469
0.439	4.53186
0.4395	1.51062
0.44	2.01416
0.4405	7.35168
0.441	3.52478
0.4415	4.43115
0.442	-0.30212
0.4425	7.85522
0.443	2.21558
0.4435	3.42407
0.444	3.32336
0.4445	6.94885
0.445	5.13611
0.4455	7.95593
0.446	8.66089
0.4465	9.86938
0.447	11.17859
0.4475	9.46655
0.448	5.94177
0.4485	0.30212
0.449	8.66089
0.4495	5.63965
0.45	5.13611
0.4505	9.46655
0.451	9.26514
0.4515	11.78284
0.452	5.53894
0.4525	4.33044
0.453	4.83398
0.4535	7.95593
0.454	6.3446
0.4545	5.13611
0.455	5.63965
0.4555	2.81982
0.456	3.62549
0.4565	5.43823
0.457	7.85522
0.4575	5.74036
0.458	5.13611
0.4585	0.60425
0.459	8.8623
0.4595	8.56018
0.46	9.76868
0.4605	10.47363
0.461	7.15027
0.4615	7.5531
0.462	4.33044
0.4625	7.35168
0.463	2.11487
0.4635	-1.91345
0.464	1.61133
0.4645	3.42407
0.465	3.42407
0.4655	7.45239
0.466	5.63965
0.4665	4.22974
0.467	0.40283
0.4675	2.81982
0.468	-1.00708
0.4685	-0.80566
0.469	0.80566
0.4695	3.12195
0.47	-2.5177
0.4705	3.52478
0.471	6.2439
0.4715	6.2439
0.472	0.90637
0.4725	3.42407
0.473	4.43115
0.4735	0.70496
0.474	5.13611
0.4745	3.62549
0.475	2.21558
0.4755	8.56018
0.476	2.11487
0.4765	-0.60425
0.477	-1.51062
0.4775	5.74036
0.478	5.53894
0.4785	6.94885
0.479	6.94885
0.4795	6.54602
0.48	6.94885
0.4805	6.54602
0.481	7.95593
0.4815	8.45947
0.482	2.92053
0.4825	-0.50354
0.483	5.43823
0.4835	9.76868
0.484	3.62549
0.4845	3.7262
0.485	7.15027
0.4855	9.26514
0.486	-0.10071
0.4865	3.02124
0.487	2.81982
0.4875	2.61841
0.488	9.76868
0.4885	7.04956
0.489	8.45947
0.4895	2.81982
0.49	10.77576
0.4905	4.63257
0.491	4.33044
0.4915	8.45947
0.492	6.3446
0.4925	6.84814
0.493	10.17151
0.4935	8.25806
0.494	6.54602
0.4945	6.04248
0.495	0.20142
0.4955	2.01416
0.496	2.92053
0.4965	0
0.497	4.93469
0.4975	-0.20142
0.498	5.63965
0.4985	3.8269
0.499	8.66089
0.4995	7.04956
0.5	3.12195
0.5005	9.16443
0.501	8.45947
0.5015	-0.70496
0.502	12.48779
0.5025	9.97009
0.503	11.88354
0.5035	10.87646
0.504	9.46655
0.5045	5.43823
0.505	14.19983
0.5055	7.75452
0.506	4.63257
0.5065	9.06372
0.507	9.36584
0.5075	8.45947
0.508	5.63965
0.5085	5.33752
0.509	9.76868
0.5095	5.33752
0.51	3.8269
0.5105	5.13611
0.511	1.40991
0.5115	5.13611
0.512	3.7262
0.5125	0.60425
0.513	5.63965
0.5135	7.35168
0.514	8.8623
0.5145	7.5531
0.515	4.22974
0.5155	2.92053
0.516	7.15027
0.5165	2.71912
0.517	5.74036
0.5175	3.52478
0.518	11.07788
0.5185	10.87646
0.519	8.35876
0.5195	5.53894
0.52	0.70496
0.5205	7.04956
0.521	10.77576
0.5215	10.57434
0.522	6.74744
0.5225	10.17151
0.523	9.46655
0.5235	8.05664
0.524	6.64673
0.5245	7.25098
0.525	6.44531
0.5255	6.94885
0.526	4.33044
0.5265	10.17151
0.527	8.7616
0.5275	5.13611
0.528	9.86938
0.5285	8.56018
0.529	5.74036
0.5295	4.63257
0.53	0
0.5305	8.7616
0.531	11.78284
0.5315	5.74036
0.532	9.76868
0.5325	10.17151
0.533	8.7616
0.5335	9.86938
0.534	12.38708
0.5345	9.16443
0.535	11.68213
0.5355	10.47363
0.536	4.22974
0.5365	9.16443
0.537	15.60974
0.5375	9.06372
0.538	5.13611
0.5385	4.73328
0.539	11.38
0.5395	7.04956
0.54	9.36584
0.5405	4.83398
0.541	8.15735
0.5415	6.94885
0.542	4.12903
0.5425	3.12195
0.543	7.45239
0.5435	5.94177
0.544	6.04248
0.5445	2.31628
0.545	1.91345
0.5455	2.81982
0.546	6.04248
0.5465	3.22266
0.547	2.61841
0.5475	7.15027
0.548	5.23682
0.5485	5.23682
0.549	10.67505
0.5495	3.92761
0.55	1.3092
0.5505	6.94885
0.551	4.02832
0.5515	10.67505
0.552	4.12903
0.5525	8.45947
0.553	6.54602
0.5535	6.84814
0.554	9.66797
0.5545	6.74744
0.555	4.43115
0.5555	6.3446
0.556	6.74744
0.5565	3.22266
0.557	3.7262
0.5575	1.40991
0.558	0.60425
0.5585	4.63257
0.559	1.00708
0.5595	5.63965
0.56	6.3446
0.5605	10.37292
0.561	5.23682
0.5615	7.45239
0.562	5.33752
0.5625	2.81982
0.563	6.84814
0.5635	7.25098
0.564	9.86938
0.5645	9.56726
0.565	8.25806
0.5655	11.78284
0.566	8.8623
0.5665	10.27222
0.567	4.33044
0.5675	2.81982
0.568	6.64673
0.5685	6.84814
0.569	6.44531
0.5695	7.65381
0.57	8.45947
0.5705	7.85522
0.571	6.84814
0.5715	2.81982
0.572	4.93469
0.5725	4.33044
0.573	2.41699
0.5735	7.75452
0.574	7.45239
0.5745	5.63965
0.575	3.62549
0.5755	5.74036
0.576	3.32336
0.5765	1.40991
0.577	1.10779
0.5775	5.74036
0.578	4.73328
0.5785	6.3446
0.579	3.22266
0.5795	4.93469
0.58	6.3446
0.5805	4.43115
0.581	-0.10071
0.5815	-0.40283
0.582	4.73328
0.5825	2.31628
0.583	6.64673
0.5835	6.14319
0.584	5.23682
0.5845	3.42407
0.585	-3.22266
0.5855	3.7262
0.586	0.30212
0.5865	6.74744
0.587	3.7262
0.5875	7.35168
0.588	2.41699
0.5885	1.2085
0.589	6.54602
0.5895	1.3092
0.59	1.71204
0.5905	5.94177
0.591	8.15735
0.5915	6.2439
0.592	3.42407
0.5925	1.51062
0.593	5.84106
0.5935	6.2439
0.594	5.53894
0.5945	6.54602
0.595	0
0.5955	6.64673
0.596	4.93469
0.5965	3.02124
0.597	1.40991
0.5975	6.2439
0.598	9.97009
0.5985	6.74744
0.599	10.57434
0.5995	4.22974
0.6	-1.61133
0.6005	3.92761
0.601	5.0354
0.6015	3.7262
0.602	7.35168
0.6025	1.81274
0.603	9.66797
0.6035	5.13611
0.604	6.54602
0.6045	2.41699
0.605	7.04956
0.6055	13.19275
0.606	12.99133
0.6065	14.40125
0.607	10.57434
0.6075	9.76868
0.608	9.06372
0.6085	16.11328
0.609	11.2793
0.6095	13.99841
0.61	12.18567
0.6105	8.15735
0.611	9.76868
0.6115	5.84106
0.612	9.06372
0.6125	8.35876
0.613	11.58142
0.6135	10.0708
0.614	3.7262
0.6145	8.05664
0.615	10.37292
0.6155	9.76868
0.616	6.04248
0.6165	10.0708
0.617	6.84814
0.6175	7.5531
0.618	8.35876
0.6185	4.22974
0.619	8.66089
0.6195	5.23682
0.62	4.02832
0.6205	0
0.621	4.53186
0.6215	8.66089
0.622	9.97009
0.6225	3.92761
0.623	-0.50354
0.6235	3.92761
0.624	9.56726
0.6245	3.12195
0.625	4.43115
0.6255	9.26514
0.626	7.85522
0.6265	3.02124
0.627	4.63257
0.6275	4.02832
0.628	8.05664
0.6285	4.43115
0.629	2.81982
0.6295	5.23682
0.63	4.02832
0.6305	6.64673
0.631	7.65381
0.6315	6.54602
0.632	8.25806
0.6325	12.28638
0.633	6.2439
0.6335	2.11487
0.634	7.25098
0.6345	10.57434
0.635	5.43823
0.6355	3.92761
0.636	3.52478
0.6365	-0.80566
0.637	2.61841
0.6375	3.42407
0.638	5.13611
0.6385	8.05664
0.639	7.25098
0.6395	9.56726
0.64	5.33752
0.6405	6.3446
0.641	4.43115
0.6415	5.74036
0.642	6.3446
0.6425	6.84814
0.643	2.5177
0.6435	0.90637
0.644	0.80566
0.6445	0.90637
0.645	-0.10071
0.6455	6.64673
0.646	-2.31628
0.6465	5.0354
0.647	5.84106
0.6475	4.93469
0.648	3.52478
0.6485	10.37292
0.649	6.84814
0.6495	6.74744
0.65	5.94177
0.6505	6.94885
0.651	8.66089
0.6515	8.96301
0.652	8.66089
0.6525	7.25098
0.653	10.0708
0.6535	10.37292
0.654	9.06372
0.6545	1.71204
0.655	0.60425
0.6555	8.45947
0.656	8.25806
0.6565	5.94177
0.657	8.56018
0.6575	3.22266
0.658	1.81274
0.6585	3.22266
0.659	5.94177
0.6595	1.71204
0.66	3.7262
0.6605	5.94177
0.661	2.5177
0.6615	7.85522
0.662	5.63965
0.6625	6.84814
0.663	9.76868
0.6635	1.51062
0.664	9.56726
0.6645	4.93469
0.665	2.41699
0.6655	5.23682
0.666	5.63965
0.6665	8.56018
0.667	0.10071
0.6675	2.01416
0.668	-0.20142
0.6685	7.15027
0.669	3.92761
0.6695	4.33044
0.67	1.61133
0.6705	0.50354
0.671	1.81274
0.6715	6.14319
0.672	1.3092
0.6725	2.92053
0.673	0.30212
0.6735	-1.91345
0.674	6.44531
0.6745	9.46655
0.675	5.53894
0.6755	4.83398
0.676	2.21558
0.6765	8.45947
0.677	4.83398
0.6775	2.01416
0.678	8.8623
0.6785	6.44531
0.679	4.93469
0.6795	3.42407
0.68	6.64673
0.6805	7.65381
0.681	5.94177
0.6815	7.25098
0.682	4.02832
0.6825	1.71204
0.683	9.36584
0.6835	0.30212
0.684	9.76868
0.6845	8.45947
0.685	12.38708
0.6855	3.42407
0.686	4.63257
0.6865	5.23682
0.687	8.56018
0.6875	8.96301
0.688	4.83398
0.6885	4.93469
0.689	8.35876
0.6895	4.63257
0.69	7.35168
0.6905	6.3446
0.691	7.15027
0.6915	10.87646
0.692	5.84106
0.6925	7.65381
0.693	6.44531
0.6935	7.15027
0.694	8.45947
0.6945	9.16443
0.695	7.65381
0.6955	4.12903
0.696	2.01416
0.6965	3.22266
0.697	4.83398
0.6975	5.13611
0.698	6.74744
0.6985	6.44531
0.699	6.04248
0.6995	5.0354
0.7	4.02832
0.7005	11.88354
0.701	5.63965
0.7015	4.02832
0.702	3.42407
0.7025	5.0354
0.703	8.7616
0.7035	3.32336
0.704	7.95593
0.7045	3.52478
0.705	1.91345
0.7055	3.12195
0.706	3.52478
0.7065	5.23682
0.707	2.11487
0.7075	3.02124
0.708	-0.20142
0.7085	-1.3092
0.709	3.52478
0.7095	1.51062
0.71	5.33752
0.7105	0.60425
0.711	3.62549
0.7115	9.86938
0.712	4.33044
0.7125	4.43115
0.713	5.53894
0.7135	9.06372
0.714	4.93469
0.7145	7.95593
0.715	4.12903
0.7155	4.22974
0.716	7.15027
0.7165	10.67505
0.717	12.48779
0.7175	3.7262
0.718	3.62549
0.7185	7.45239
0.719	1.91345
0.7195	2.81982
0.72	5.84106
0.7205	6.44531
0.721	5.23682
0.7215	0.60425
0.722	3.32336
0.7225	3.62549
0.723	6.04248
0.7235	0
0.724	1.40991
0.7245	-0.40283
0.725	2.61841
0.7255	4.93469
0.726	-0.40283
0.7265	1.51062
0.727	5.94177
0.7275	4.02832
0.728	1.51062
0.7285	9.86938
0.729	8.8623
0.7295	10.0708
0.73	5.53894
0.7305	4.53186
0.731	8.25806
0.7315	8.15735
0.732	4.63257
0.7325	1.91345
0.733	9.16443
0.7335	8.8623
0.734	5.33752
0.7345	9.16443
0.735	4.53186
0.7355	3.32336
0.736	3.32336
0.7365	3.62549
0.737	3.92761
0.7375	7.95593
0.738	6.74744
0.7385	7.95593
0.739	7.15027
0.7395	5.43823
0.74	8.66089
0.7405	8.05664
0.741	6.74744
0.7415	7.95593
0.742	8.25806
0.7425	11.2793
0.743	5.33752
0.7435	10.67505
0.744	8.05664
0.7445	1.40991
0.745	1.51062
0.7455	5.43823
0.746	1.71204
0.7465	5.13611
0.747	6.94885
0.7475	9.06372
0.748	1.3092
0.7485	8.15735
0.749	3.8269
0.7495	5.0354
0.75	4.63257
0.7505	11.38
0.751	8.56018
0.7515	7.65381
0.752	2.71912
0.7525	3.92761
0.753	6.94885
0.7535	10.37292
0.754	1.81274
0.7545	3.32336
0.755	3.8269
0.7555	6.74744
0.756	12.5885
0.7565	11.17859
0.757	3.32336
0.7575	5.43823
0.758	9.06372
0.7585	10.87646
0.759	15.81116
0.7595	12.68921
0.76	15.20691
0.7605	7.95593
0.761	10.17151
0.7615	3.92761
0.762	9.36584
0.7625	5.94177
0.763	7.75452
0.7635	3.62549
0.764	-0.10071
0.7645	4.12903
0.765	5.43823
0.7655	4.43115
0.766	6.94885
0.7665	5.13611
0.767	5.74036
0.7675	3.92761
0.768	4.02832
0.7685	6.14319
0.769	4.02832
0.7695	1.00708
0.77	2.01416
0.7705	4.63257
0.771	1.3092
0.7715	3.42407
0.772	6.3446
0.7725	3.32336
0.773	5.84106
0.7735	3.12195
0.774	8.35876
0.7745	7.85522
0.775	8.7616
0.7755	3.52478
0.776	0.50354
0.7765	2.31628
0.777	0
0.7775	3.22266
0.778	2.11487
0.7785	3.92761
0.779	-0.90637
0.7795	3.7262
0.78	0.10071
0.7805	-0.50354
0.781	6.04248
0.7815	4.63257
0.782	5.53894
0.7825	6.84814
0.783	1.81274
0.7835	5.63965
0.784	-1.00708
0.7845	1.10779
0.785	6.04248
0.7855	3.02124
0.786	3.32336
0.7865	5.63965
0.787	3.52478
0.7875	4.53186
0.788	5.23682
0.7885	2.21558
0.789	7.85522
0.7895	3.7262
0.79	8.05664
0.7905	2.92053
0.791	-0.10071
0.7915	6.94885
0.792	3.42407
0.7925	4.73328
0.793	2.81982
0.7935	4.12903
0.794	2.41699
0.7945	9.06372
0.795	7.85522
0.7955	7.35168
0.796	3.8269
0.7965	8.66089
0.797	9.86938
0.7975	5.74036
0.798	10.47363
0.7985	6.64673
0.799	4.12903
0.7995	2.71912
0.8	7.5531
0.8005	10.17151
0.801	6.54602
0.8015	12.5885
0.802	7.45239
0.8025	7.75452
0.803	12.78992
0.8035	9.97009
0.804	8.35876
0.8045	6.14319
0.805	11.2793
0.8055	9.97009
0.806	4.63257
0.8065	7.45239
0.807	11.78284
0.8075	6.44531
0.808	4.02832
0.8085	8.05664
0.809	5.13611
0.8095	3.52478
0.81	8.05664
0.8105	2.71912
0.811	4.12903
0.8115	11.48071
0.812	13.19275
0.8125	6.54602
0.813	6.94885
0.8135	12.99133
0.814	8.8623
0.8145	6.44531
0.815	4.02832
0.8155	7.04956
0.816	3.92761
0.8165	5.33752
0.817	8.15735
0.8175	7.15027
0.818	2.41699
0.8185	8.8623
0.819	3.92761
0.8195	4.53186
0.82	6.04248
0.8205	4.43115
0.821	2.92053
0.8215	6.14319
0.822	6.2439
0.8225	2.61841
0.823	7.75452
0.8235	6.44531
0.824	5.84106
0.8245	3.02124
0.825	2.41699
0.8255	-1.3092
0.826	-0.10071
0.8265	2.21558
0.827	5.63965
0.8275	6.54602
0.828	6.94885
0.8285	6.94885
0.829	2.81982
0.8295	7.5531
0.83	1.3092
0.8305	4.73328
0.831	12.68921
0.8315	6.64673
0.832	4.83398
0.8325	2.41699
0.833	6.94885
0.8335	7.5531
0.834	8.8623
0.8345	5.0354
0.835	3.7262
0.8355	6.3446
0.836	2.31628
0.8365	0.60425
0.837	5.63965
0.8375	4.93469
0.838	3.42407
0.8385	5.53894
0.839	6.74744
0.8395	9.97009
0.84	2.41699
0.8405	5.53894
0.841	6.04248
0.8415	10.17151
0.842	12.5885
0.8425	10.57434
0.843	6.84814
0.8435	12.89062
0.844	6.74744
0.8445	6.2439
0.845	8.05664
0.8455	7.25098
0.846	7.04956
0.8465	6.94885
0.847	4.93469
0.8475	8.45947
0.848	2.11487
0.8485	9.56726
0.849	9.66797
0.8495	11.78284
0.85	11.78284
0.8505	9.36584
0.851	9.36584
0.8515	13.09204
0.852	6.84814
0.8525	7.5531
0.853	4.12903
0.8535	7.75452
0.854	10.27222
0.8545	9.56726
0.855	6.74744
0.8555	7.25098
0.856	8.45947
0.8565	8.35876
0.857	7.45239
0.8575	3.92761
0.858	2.5177
0.8585	10.17151
0.859	8.56018
0.8595	1.10779
0.86	4.93469
0.8605	6.64673
0.861	-0.40283
0.8615	7.04956
0.862	7.15027
0.8625	7.5531
0.863	5.23682
0.8635	6.2439
0.864	4.43115
0.8645	3.42407
0.865	7.75452
0.8655	5.23682
0.866	6.94885
0.8665	-4.63257
0.867	2.01416
0.8675	7.04956
0.868	7.75452
0.8685	8.8623
0.869	5.0354
0.8695	7.85522
0.87	5.74036
0.8705	7.45239
0.871	6.74744
0.8715	7.45239
0.872	4.33044
0.8725	4.02832
0.873	7.85522
0.8735	6.94885
0.874	5.43823
0.8745	4.22974
0.875	7.45239
0.8755	7.15027
0.876	2.11487
0.8765	-0.80566
0.877	-0.50354
0.8775	2.5177
0.878	1.91345
0.8785	1.81274
0.879	-1.00708
0.8795	3.92761
0.88	-0.30212
0.8805	5.43823
0.881	4.93469
0.8815	5.33752
0.882	7.04956
0.8825	5.63965
0.883	1.3092
0.8835	0.60425
0.884	1.51062
0.8845	-2.71912
0.885	3.62549
0.8855	0.90637
0.886	0.70496
0.8865	2.11487
0.887	6.2439
0.8875	1.00708
0.888	0.90637
0.8885	3.02124
0.889	3.32336
0.8895	7.04956
0.89	5.13611
0.8905	5.53894
0.891	1.71204
0.8915	3.7262
0.892	6.2439
0.8925	0
0.893	4.22974
0.8935	6.2439
0.894	3.7262
0.8945	1.91345
0.895	7.85522
0.8955	5.33752
0.896	4.63257
0.8965	3.42407
0.897	5.74036
0.8975	6.44531
0.898	3.62549
0.8985	6.04248
0.899	5.23682
0.8995	5.13611
0.9	6.14319
0.9005	1.3092
0.901	5.0354
0.9015	3.12195
0.902	9.66797
0.9025	3.7262
0.903	6.54602
0.9035	6.04248
0.904	1.61133
0.9045	3.22266
0.905	3.32336
0.9055	0.30212
0.906	-5.43823
0.9065	-1.40991
0.907	1.40991
0.9075	3.02124
0.908	3.92761
0.9085	6.74744
0.909	7.04956
0.9095	6.84814
0.91	8.7616
0.9105	5.74036
0.911	9.97009
0.9115	9.56726
0.912	9.06372
0.9125	4.93469
0.913	4.93469
0.9135	9.06372
0.914	8.7616
0.9145	6.94885
0.915	1.40991
0.9155	7.35168
0.916	6.64673
0.9165	6.44531
0.917	7.15027
0.9175	6.84814
0.918	5.23682
0.9185	3.42407
0.919	5.13611
0.9195	5.74036
0.92	1.81274
0.9205	7.65381
0.921	4.43115
0.9215	7.5531
0.922	5.63965
0.9225	3.22266
0.923	7.15027
0.9235	3.32336
0.924	2.41699
0.9245	2.41699
0.925	4.12903
0.9255	2.01416
0.926	1.2085
0.9265	2.5177
0.927	-2.5177
0.9275	6.3446
0.928	1.91345
0.9285	5.84106
0.929	0.40283
0.9295	4.53186
0.93	8.35876
0.9305	0.90637
0.931	3.7262
0.9315	5.13611
0.932	-0.30212
0.9325	-2.21558
0.933	-3.32336
0.9335	5.23682
0.934	9.36584
0.9345	3.02124
0.935	3.02124
0.9355	3.22266
0.936	2.92053
0.9365	6.44531
0.937	6.64673
0.9375	3.42407
0.938	7.15027
0.9385	6.14319
0.939	4.43115
0.9395	8.45947
0.94	10.87646
0.9405	12.89062
0.941	13.59558
0.9415	6.64673
0.942	7.15027
0.9425	4.63257
0.943	5.94177
0.9435	9.36584
0.944	10.87646
0.9445	7.45239
0.945	6.64673
0.9455	9.97009
0.946	6.3446
0.9465	4.12903
0.947	6.54602
0.9475	5.74036
0.948	12.28638
0.9485	9.76868
0.949	1.40991
0.9495	5.0354
0.95	12.18567
0.9505	11.2793
0.951	9.76868
0.9515	5.63965
0.952	8.15735
0.9525	4.83398
0.953	6.04248
0.9535	8.66089
0.954	4.63257
0.9545	4.33044
0.955	2.21558
0.9555	8.45947
0.956	4.73328
0.9565	5.33752
0.957	2.41699
0.9575	1.00708
0.958	0.40283
0.9585	9.26514
0.959	7.25098
0.9595	3.52478
0.96	5.84106
0.9605	5.63965
0.961	3.7262
0.9615	6.54602
0.962	10.47363
0.9625	4.12903
0.963	8.15735
0.9635	5.53894
0.964	3.92761
0.9645	5.0354
0.965	6.2439
0.9655	8.8623
0.966	8.05664
0.9665	2.71912
0.967	14.90479
0.9675	5.74036
0.968	4.02832
0.9685	3.62549
0.969	2.31628
0.9695	2.81982
0.97	6.54602
0.9705	8.25806
0.971	2.5177
0.9715	6.44531
0.972	8.66089
0.9725	10.67505
0.973	9.56726
0.9735	11.78284
0.974	7.5531
0.9745	4.93469
0.975	6.74744
0.9755	8.15735
0.976	5.13611
0.9765	9.66797
0.977	8.35876
0.9775	8.15735
0.978	5.0354
0.9785	6.2439
0.979	4.22974
0.9795	13.09204
0.98	10.77576
0.9805	9.76868
0.981	7.15027
0.9815	8.15735
0.982	8.7616
0.9825	3.32336
0.983	9.26514
0.9835	4.73328
0.984	7.25098
0.9845	9.46655
0.985	8.25806
0.9855	-0.50354
0.986	3.7262
0.9865	7.75452
0.987	4.63257
0.9875	9.36584
0.988	4.33044
0.9885	6.94885
0.989	7.5531
0.9895	7.65381
0.99	10.77576
0.9905	9.56726
0.991	6.84814
0.9915	10.67505
0.992	8.35876
0.9925	2.01416
0.993	6.74744
0.9935	3.02124
0.994	3.32336
0.9945	3.22266
0.995	3.02124
0.9955	6.64673
0.996	4.12903
0.9965	5.23682
0.997	4.43115
0.9975	5.53894
0.998	1.81274
0.9985	5.84106
0.999	3.8269
0.9995	1.00708
1	6.3446
1.0005	5.43823
1.001	9.76868
1.0015	13.09204
1.002	11.88354
1.0025	5.13611
1.003	7.85522
1.0035	7.65381
1.004	9.86938
1.0045	4.02832
1.005	2.81982
1.0055	11.48071
1.006	7.75452
1.0065	7.85522
1.007	6.84814
1.0075	2.11487
1.008	7.85522
1.0085	5.84106
1.009	6.2439
1.0095	2.81982
1.01	6.64673
1.0105	5.84106
1.011	4.22974
1.0115	0.80566
1.012	4.43115
1.0125	4.53186
1.013	0.20142
1.0135	4.33044
1.014	5.0354
1.0145	-2.11487
1.015	-0.30212
1.0155	-2.01416
1.016	2.71912
1.0165	0.40283
1.017	6.04248
1.0175	3.22266
1.018	-3.62549
1.0185	1.00708
1.019	0.20142
1.0195	-2.92053
1.02	-1.91345
1.0205	-1.40991
1.021	6.2439
1.0215	11.38
1.022	5.23682
1.0225	3.8269
1.023	7.65381
1.0235	3.92761
1.024	6.3446
1.0245	4.83398
1.025	2.31628
1.0255	4.93469
1.026	2.92053
1.0265	0.70496
1.027	7.45239
1.0275	4.53186
1.028	8.66089
1.0285	7.95593
1.029	6.44531
1.0295	8.25806
1.03	6.94885
1.0305	4.83398
1.031	9.76868
1.0315	7.15027
1.032	2.21558
1.0325	9.66797
1.033	5.84106
1.0335	3.52478
1.034	7.04956
1.0345	3.12195
1.035	8.7616
1.0355	11.17859
1.036	0.70496
1.0365	6.44531
1.037	3.92761
1.0375	6.64673
1.038	8.56018
1.0385	4.63257
1.039	6.44531
1.0395	7.45239
1.04	4.43115
1.0405	3.22266
1.041	4.83398
1.0415	6.94885
1.042	6.94885
1.0425	12.18567
1.043	7.85522
1.0435	10.47363
1.044	2.41699
1.0445	6.3446
1.045	3.02124
1.0455	7.65381
1.046	8.45947
1.0465	10.0708
1.047	7.85522
1.0475	6.54602
1.048	6.3446
1.0485	3.42407
1.049	3.12195
1.0495	3.7262
1.05	9.06372
1.0505	11.98425
1.051	5.0354
1.0515	4.93469
1.052	6.04248
1.0525	5.43823
1.053	1.2085
1.0535	2.21558
1.054	4.93469
1.0545	6.94885
1.055	11.07788
1.0555	7.75452
1.056	6.3446
1.0565	4.22974
1.057	8.05664
1.0575	5.13611
1.058	-0.50354
1.0585	7.95593
1.059	5.0354
1.0595	5.43823
1.06	10.0708
1.0605	4.12903
1.061	1.71204
1.0615	2.31628
1.062	6.54602
1.0625	10.27222
1.063	8.25806
1.0635	6.64673
1.064	-0.90637
1.0645	1.51062
1.065	4.43115
1.0655	1.3092
1.066	3.92761
1.0665	6.14319
1.067	1.71204
1.0675	2.01416
1.068	3.12195
1.0685	3.42407
1.069	5.33752
1.0695	3.62549
1.07	3.8269
1.0705	2.81982
1.071	4.22974
1.0715	8.66089
1.072	10.67505
1.0725	4.53186
1.073	12.99133
1.0735	7.04956
1.074	3.52478
1.0745	6.14319
1.075	1.3092
1.0755	3.12195
1.076	6.54602
1.0765	1.71204
1.077	6.3446
1.0775	4.02832
1.078	5.74036
1.0785	9.06372
1.079	6.04248
1.0795	3.42407
1.08	-0.50354
1.0805	3.92761
1.081	3.12195
1.0815	5.23682
1.082	4.43115
1.0825	2.61841
1.083	1.71204
1.0835	4.73328
1.084	8.15735
1.0845	9.97009
1.085	9.16443
1.0855	3.12195
1.086	3.8269
1.0865	1.10779
1.087	-2.41699
1.0875	3.62549
1.088	2.21558
1.0885	5.53894
1.089	5.13611
1.0895	4.73328
1.09	4.33044
1.0905	5.63965
1.091	9.97009
1.0915	3.52478
1.092	4.93469
1.0925	9.36584
1.093	8.8623
1.0935	3.7262
1.094	6.3446
1.0945	4.73328
1.095	3.22266
1.0955	7.65381
1.096	10.77576
1.0965	8.56018
1.097	7.5531
1.0975	7.85522
1.098	10.17151
1.0985	6.04248
1.099	11.48071
1.0995	10.97717
1.1	15.81116
1.1005	10.0708
1.101	6.2439
1.1015	10.37292
1.102	8.96301
1.1025	9.86938
1.103	11.38
1.1035	8.56018
1.104	8.15735
1.1045	13.797
1.105	12.78992
1.1055	11.98425
1.106	6.2439
1.1065	9.36584
1.107	12.18567
1.1075	11.17859
1.108	6.94885
1.1085	11.48071
1.109	9.06372
1.1095	11.07788
1.11	8.8623
1.1105	14.40125
1.111	8.96301
1.1115	9.97009
1.112	11.38
1.1125	9.76868
1.113	8.35876
1.1135	4.43115
1.114	9.56726
1.1145	10.77576
1.115	6.54602
1.1155	6.54602
1.116	7.85522
1.1165	3.92761
1.117	8.35876
1.1175	8.25806
1.118	7.15027
1.1185	2.5177
1.119	0.60425
1.1195	3.32336
1.12	5.33752
1.1205	4.83398
1.121	-1.10779
1.1215	5.33752
1.122	3.12195
1.1225	-1.40991
1.123	6.44531
1.1235	4.53186
1.124	6.14319
1.1245	5.23682
1.125	3.52478
1.1255	-1.71204
1.126	0.10071
1.1265	-5.0354
1.127	0
1.1275	-0.20142
1.128	4.83398
1.1285	5.13611
1.129	-1.40991
1.1295	0.50354
1.13	4.02832
1.1305	5.13611
1.131	7.35168
1.1315	-0.10071
1.132	-1.40991
1.1325	0.30212
1.133	5.0354
1.1335	4.33044
1.134	5.43823
1.1345	3.12195
1.135	5.63965
1.1355	2.61841
1.136	0.80566
1.1365	7.75452
1.137	8.7616
1.1375	3.8269
1.138	7.15027
1.1385	6.2439
1.139	1.40991
1.1395	4.73328
1.14	1.61133
1.1405	-1.10779
1.141	3.02124
1.1415	5.13611
1.142	0.60425
1.1425	1.10779
1.143	7.65381
1.1435	4.12903
1.144	4.83398
1.1445	2.31628
1.145	1.2085
1.1455	9.26514
1.146	0.80566
1.1465	-1.10779
1.147	1.71204
1.1475	3.22266
1.148	4.53186
1.1485	3.22266
1.149	1.10779
1.1495	7.35168
1.15	9.86938
1.1505	0.80566
1.151	5.0354
1.1515	-3.8269
1.152	3.32336
1.1525	6.04248
1.153	8.7616
1.1535	11.88354
1.154	4.12903
1.1545	4.33044
1.155	6.44531
1.1555	4.53186
1.156	1.10779
1.1565	3.12195
1.157	6.64673
1.1575	6.04248
1.158	2.41699
1.1585	-0.20142
1.159	6.44531
1.1595	4.43115
1.16	-1.10779
1.1605	-0.70496
1.161	3.02124
1.1615	5.23682
1.162	4.02832
1.1625	3.7262
1.163	1.51062
1.1635	-3.32336
1.164	1.2085
1.1645	2.41699
1.165	-0.90637
1.1655	9.46655
1.166	1.10779
1.1665	7.75452
1.167	5.84106
1.1675	2.71912
1.168	3.52478
1.1685	2.61841
1.169	3.52478
1.1695	5.23682
1.17	5.33752
1.1705	9.36584
1.171	5.43823
1.1715	5.0354
1.172	7.95593
1.1725	1.40991
1.173	5.94177
1.1735	2.92053
1.174	2.81982
1.1745	7.5531
1.175	0.90637
1.1755	3.42407
1.176	-2.21558
1.1765	8.25806
1.177	1.71204
1.1775	4.73328
1.178	3.22266
1.1785	7.45239
1.179	5.63965
1.1795	2.61841
1.18	8.66089
1.1805	5.74036
1.181	8.25806
1.1815	6.04248
1.182	11.48071
1.1825	5.43823
1.183	3.12195
1.1835	3.8269
1.184	6.74744
1.1845	11.48071
1.185	8.45947
1.1855	2.01416
1.186	8.45947
1.1865	5.33752
1.187	6.04248
1.1875	6.84814
1.188	7.75452
1.1885	5.23682
1.189	7.04956
1.1895	6.44531
1.19	5.53894
1.1905	8.56018
1.191	4.73328
1.1915	7.95593
1.192	5.74036
1.1925	7.15027
1.193	11.68213
1.1935	3.42407
1.194	2.71912
1.1945	2.21558
1.195	8.45947
1.1955	10.27222
1.196	11.68213
1.1965	6.94885
1.197	9.16443
1.1975	8.8623
1.198	12.18567
1.1985	4.02832
1.199	8.05664
1.1995	6.74744
1.2	5.63965
1.2005	7.15027
1.201	9.26514
1.2015	5.0354
1.202	5.84106
1.2025	7.95593
1.203	6.04248
1.2035	4.73328
1.204	4.02832
1.2045	4.53186
1.205	5.0354
1.2055	5.33752
1.206	6.3446
1.2065	5.63965
1.207	3.8269
1.2075	8.96301
1.208	3.7262
1.2085	3.8269
1.209	0.60425
1.2095	0.50354
1.21	-0.20142
1.2105	2.41699
1.211	4.02832
1.2115	2.31628
1.212	4.63257
1.2125	3.62549
1.213	5.43823
1.2135	4.12903
1.214	6.2439
1.2145	2.92053
1.215	1.91345
1.2155	5.13611
1.216	-1.40991
1.2165	-1.2085
1.217	0.70496
1.2175	4.63257
1.218	5.43823
1.2185	1.51062
1.219	3.7262
1.2195	6.44531
1.22	2.41699
1.2205	3.92761
1.221	2.71912
1.2215	1.91345
1.222	3.22266
1.2225	6.84814
1.223	0.30212
1.2235	8.56018
1.224	9.76868
1.2245	10.77576
1.225	6.64673
1.2255	3.02124
1.226	4.83398
1.2265	5.84106
1.227	5.43823
1.2275	5.84106
1.228	0.80566
1.2285	5.43823
1.229	5.84106
1.2295	3.02124
1.23	-1.91345
1.2305	6.2439
1.231	4.63257
1.2315	3.32336
1.232	5.94177
1.2325	7.95593
1.233	8.15735
1.2335	6.74744
1.234	2.61841
1.2345	6.2439
1.235	2.81982
1.2355	6.94885
1.236	3.52478
1.2365	6.74744
1.237	0.40283
1.2375	3.12195
1.238	7.65381
1.2385	7.04956
1.239	3.42407
1.2395	10.17151
1.24	10.87646
1.2405	7.45239
1.241	8.05664
1.2415	12.38708
1.242	8.15735
1.2425	7.35168
1.243	13.09204
1.2435	10.87646
1.244	5.43823
1.2445	7.95593
1.245	10.0708
1.2455	5.63965
1.246	6.64673
1.2465	6.64673
1.247	3.62549
1.2475	3.7262
1.248	7.45239
1.2485	7.15027
1.249	6.2439
1.2495	8.66089
1.25	9.16443
1.2505	7.5531
1.251	0.10071
1.2515	3.62549
1.252	7.15027
1.2525	2.92053
1.253	3.62549
1.2535	3.8269
1.254	8.66089
1.2545	7.45239
1.255	6.44531
1.2555	8.25806
1.256	4.22974
1.2565	5.63965
1.257	3.22266
1.2575	1.10779
1.258	8.56018
1.2585	7.95593
1.259	0.70496
1.2595	1.91345
1.26	7.25098
1.2605	4.22974
1.261	2.41699
1.2615	2.21558
1.262	0.60425
1.2625	2.61841
1.263	11.48071
1.2635	1.2085
1.264	7.5531
1.2645	2.11487
1.265	6.44531
1.2655	1.40991
1.266	3.52478
1.2665	2.31628
1.267	3.8269
1.2675	0.60425
1.268	1.51062
1.2685	6.44531
1.269	5.0354
1.2695	-0.80566
1.27	6.94885
1.2705	3.62549
1.271	4.02832
1.2715	3.52478
1.272	3.02124
1.2725	2.81982
1.273	4.53186
1.2735	3.7262
1.274	3.22266
1.2745	6.44531
1.275	3.42407
1.2755	7.35168
1.276	5.23682
1.2765	7.75452
1.277	9.66797
1.2775	7.75452
1.278	7.45239
1.2785	8.7616
1.279	7.35168
1.2795	4.63257
1.28	8.8623
1.2805	9.76868
1.281	4.63257
1.2815	2.5177
1.282	3.42407
1.2825	1.3092
1.283	-0.10071
1.2835	1.81274
1.284	3.02124
1.2845	8.56018
1.285	4.43115
1.2855	1.3092
1.286	-1.71204
1.2865	1.71204
1.287	2.41699
1.2875	-3.7262
1.288	2.61841
1.2885	4.53186
1.289	7.45239
1.2895	2.21558
1.29	4.33044
1.2905	2.81982
1.291	0.50354
1.2915	2.01416
1.292	4.83398
1.2925	-1.00708
1.293	4.53186
1.2935	7.45239
1.294	10.37292
1.2945	9.66797
1.295	11.88354
1.2955	8.05664
1.296	10.17151
1.2965	4.02832
1.297	1.91345
1.2975	11.98425
1.298	6.64673
1.2985	2.41699
1.299	13.49487
1.2995	12.38708
1.3	11.58142
1.3005	10.77576
1.301	13.89771
1.3015	9.46655
1.302	7.75452
1.3025	2.81982
1.303	7.35168
1.3035	1.00708
1.304	-1.2085
1.3045	-0.90637
1.305	2.71912
1.3055	-0.20142
1.306	5.53894
1.3065	2.21558
1.307	3.42407
1.3075	1.3092
1.308	-1.91345
1.3085	-2.71912
1.309	-5.0354
1.3095	-11.58142
1.31	-12.89062
1.3105	-12.38708
1.311	-9.16443
1.3115	-7.5531
1.312	-7.25098
1.3125	-15.00549
1.313	-22.6593
1.3135	-28.50037
1.314	-34.14001
1.3145	-32.7301
1.315	-30.31311
1.3155	-30.2124
1.316	-22.76001
1.3165	-23.66638
1.317	-21.3501
1.3175	-20.24231
1.318	-17.01965
1.3185	-15.50903
1.319	-18.63098
1.3195	-17.72461
1.32	-21.14868
1.3205	-21.04797
1.321	-19.63806
1.3215	-12.08496
1.322	-11.78284
1.3225	-7.5531
1.323	-5.0354
1.3235	-5.0354
1.324	-4.12903
1.3245	3.22266
1.325	4.02832
1.3255	9.86938
1.326	18.93311
1.3265	28.70178
1.327	32.02515
1.3275	41.08887
1.328	47.33276
1.3285	58.20923
1.329	58.41064
1.3295	58.20923
1.33	63.94958
1.3305	67.07153
1.331	64.35242
1.3315	63.64746
1.332	65.76233
1.3325	66.16516
1.333	61.02905
1.3335	42.8009
1.334	30.71594
1.3345	29.20532
1.335	28.60107
1.3355	15.60974
1.336	-6.44531
1.3365	-23.96851
1.337	-46.32568
1.3375	-59.01489
1.338	-65.66162
1.3385	-72.30835
1.339	-75.32959
1.3395	-78.55225
1.34	-81.37207
1.3405	-82.88269
1.341	-88.52234
1.3415	-100.50659
1.342	-89.63013
1.3425	-91.04004
1.343	-100.50659
1.3435	-95.06836
1.344	-85.90393
1.3445	-77.24304
1.345	-69.79065
1.3455	-55.08728
1.346	-36.55701
1.3465	-13.19275
1.347	14.40125
1.3475	31.11877
1.348	39.98108
1.3485	51.5625
1.349	68.17932
1.3495	90.13367
1.35	115.7135
1.3505	134.64661
1.351	146.93298
1.3515	164.45618
1.352	168.78662
1.3525	169.59229
1.353	153.68042
1.3535	142.099
1.354	122.05811
1.3545	103.22571
1.355	80.16357
1.3555	65.76233
1.356	51.5625
1.3565	45.52002
1.357	40.78674
1.3575	40.88745
1.358	31.82373
1.3585	33.53577
1.359	25.07629
1.3595	13.39417
1.36	14.09912
1.3605	15.91187
1.361	17.72461
1.3615	22.96143
1.362	23.46497
1.3625	20.64514
1.363	22.96143
1.3635	18.32886
1.364	6.14319
1.3645	-6.94885
1.365	-22.35718
1.3655	-31.92444
1.366	-50.85754
1.3665	-51.46179
1.367	-61.02905
1.3675	-66.26587
1.368	-78.35083
1.3685	-79.05579
1.369	-82.17773
1.3695	-80.86853
1.37	-82.47986
1.3705	-85.29968
1.371	-99.60022
1.3715	-113.49792
1.372	-136.25793
1.3725	-168.78662
1.373	-197.18628
1.3735	-222.86682
1.374	-236.86523
1.3745	-262.8479
1.375	-294.67163
1.3755	-310.6842
1.376	-314.51111
1.3765	-322.86987
1.377	-317.83447
1.3775	-301.11694
1.378	-255.99976
1.3785	-192.25159
1.379	-114.70642
1.3795	-29.60815
1.38	51.15967
1.3805	134.94873
1.381	202.22168
1.3815	276.24207
1.382	330.42297
1.3825	369.6991
1.383	395.78247
1.3835	411.39221
1.384	409.27734
1.3845	383.29468
1.385	337.97607
1.3855	283.59375
1.386	227.39868
1.3865	191.74805
1.387	162.2406
1.3875	134.14307
1.388	111.8866
1.3885	89.328
1.389	94.46411
1.3895	95.16907
1.39	93.45703
1.3905	84.2926
1.391	72.10693
1.3915	52.46887
1.392	38.47046
1.3925	30.61523
1.393	35.14709
1.3935	31.62231
1.394	34.54285
1.3945	34.14001
1.395	25.68054
1.3955	24.77417
1.396	29.70886
1.3965	31.62231
1.397	31.32019
1.3975	18.32886
1.398	1.3092
1.3985	-16.51611
1.399	-35.54993
1.3995	-54.18091
1.4	-68.17932
1.4005	-72.40906
1.401	-67.57507
1.4015	-69.89136
1.402	-65.25879
1.4025	-63.94958
1.403	-58.41064
1.4035	-57.50427
1.404	-37.86621
1.4045	-27.89612
1.405	-26.58691
1.4055	-35.65063
1.406	-57.70569
1.4065	-80.36499
1.407	-98.0896
1.4075	-119.84253
1.408	-138.17139
1.4085	-162.34131
1.409	-186.51123
1.4095	-190.03601
1.41	-182.78503
1.4105	-179.96521
1.411	-173.5199
1.4115	-164.35547
1.412	-146.12732
1.4125	-114.20288
1.413	-74.52393
1.4135	-23.26355
1.414	34.54285
1.4145	93.96057
1.415	146.12732
1.4155	191.24451
1.416	237.77161
1.4165	279.26331
1.417	303.53394
1.4175	318.74084
1.418	309.67712
1.4185	289.43481
1.419	250.2594
1.4195	202.72522
1.42	154.08325
1.4205	103.32642
1.421	68.78357
1.4215	32.42798
1.422	-14.70337
1.4225	-36.55701
1.423	-36.35559
1.4235	-22.96143
1.424	-3.62549
1.4245	10.37292
1.425	32.93152
1.4255	44.91577
1.426	58.61206
1.4265	59.92126
1.427	59.21631
1.4275	60.62622
1.428	58.61206
1.4285	48.13843
1.429	31.62231
1.4295	22.86072
1.43	9.66797
1.4305	-4.53186
1.431	-8.45947
1.4315	-17.72461
1.432	-11.58142
1.4325	-2.31628
1.433	5.84106
1.4335	18.93311
1.434	33.73718
1.4345	52.26746
1.435	61.53259
1.4355	58.51135
1.436	65.25879
1.4365	61.33118
1.437	42.90161
1.4375	32.02515
1.438	22.15576
1.4385	3.92761
1.439	-15.81116
1.4395	-49.24622
1.44	-71.20056
1.4405	-93.96057
1.441	-123.46802
1.4415	-154.48608
1.442	-167.37671
1.4425	-178.45459
1.443	-159.92432
1.4435	-136.05652
1.444	-99.2981
1.4445	-64.55383
1.445	-23.36426
1.4455	9.16443
1.446	47.03064
1.4465	81.27136
1.447	116.82129
1.4475	141.39404
1.448	162.84485
1.4485	179.66309
1.449	178.95813
1.4495	167.57812
1.45	152.87476
1.4505	133.84094
1.451	106.44836
1.4515	85.90393
1.452	52.26746
1.4525	32.62939
1.453	25.57983
1.4535	15.20691
1.454	6.04248
1.4545	-7.65381
1.455	-17.22107
1.4555	-30.11169
1.456	-23.26355
1.4565	-30.2124
1.457	-36.35559
1.4575	-41.69312
1.458	-45.72144
1.4585	-49.34692
1.459	-50.15259
1.4595	-50.2533
1.46	-52.56958
1.4605	-56.49719
1.461	-62.13684
1.4615	-59.31702
1.462	-60.3241
1.4625	-57.30286
1.463	-53.37524
1.4635	-48.74268
1.464	-47.03064
1.4645	-50.65613
1.465	-44.81506
1.4655	-47.13135
1.466	-40.78674
1.4665	-40.98816
1.467	-41.69312
1.4675	-36.05347
1.468	-39.17542
1.4685	-37.7655
1.469	-38.57117
1.4695	-30.51453
1.47	-21.75293
1.4705	-17.72461
1.471	-13.89771
1.4715	-0.70496
1.472	10.67505
1.4725	21.45081
1.473	33.33435
1.4735	45.11719
1.474	51.36108
1.4745	53.27454
1.475	48.64197
1.4755	53.87878
1.476	48.33984
1.4765	50.95825
1.477	44.0094
1.4775	41.39099
1.478	33.13293
1.4785	27.59399
1.479	20.94727
1.4795	5.13611
1.48	4.02832
1.4805	-5.0354
1.481	-8.7616
1.4815	-12.89062
1.482	-15.00549
1.4825	-17.32178
1.483	-21.75293
1.4835	-21.04797
1.484	-23.76709
1.4845	-31.4209
1.485	-29.91028
1.4855	-20.74585
1.486	-22.35718
1.4865	-22.86072
1.487	-22.45789
1.4875	-15.81116
1.488	-17.22107
1.4885	-12.5885
1.489	-20.44373
1.4895	-26.88904
1.49	-25.37842
1.4905	-21.65222
1.491	-19.73877
1.4915	-15.20691
1.492	-9.66797
1.4925	-10.97717
1.493	-14.40125
1.4935	-15.50903
1.494	-14.30054
1.4945	-14.70337
1.495	-28.29895
1.4955	-61.83472
1.496	-92.55066
1.4965	-120.44678
1.497	-145.42236
1.4975	-176.74255
1.498	-218.93921
1.4985	-255.09338
1.499	-275.73853
1.4995	-303.73535
1.5	-312.89978
1.5005	-311.99341
1.501	-296.58508
1.5015	-253.88489
1.502	-199.9054
1.5025	-132.93457
1.503	-57.8064
1.5035	11.68213
1.504	81.87561
1.5045	159.01794
1.505	219.14062
1.5055	272.21375
1.506	318.94226
1.5065	335.45837
1.507	332.83997
1.5075	331.43005
1.508	310.48279
1.5085	289.43481
1.509	257.8125
1.5095	222.5647
1.51	185.60486
1.5105	161.53564
1.511	131.12183
1.5115	108.26111
1.512	91.745
1.5125	82.68127
1.513	92.44995
1.5135	82.88269
1.514	73.61755
1.5145	73.71826
1.515	55.3894
1.5155	38.77258
1.516	22.96143
1.5165	10.47363
1.517	0.90637
1.5175	-12.99133
1.518	-16.3147
1.5185	-14.30054
1.519	-5.74036
1.5195	9.16443
1.52	19.73877
1.5205	25.98267
1.521	33.33435
1.5215	35.04639
1.522	31.32019
1.5225	24.97559
1.523	9.76868
1.5235	-1.61133
1.524	-6.64673
1.5245	-12.68921
1.525	-19.33594
1.5255	-28.39966
1.526	-28.60107
1.5265	-19.73877
1.527	-9.26514
1.5275	-5.84106
1.528	-3.32336
1.5285	-2.11487
1.529	0.40283
1.5295	3.32336
1.53	6.3446
1.5305	1.2085
1.531	3.22266
1.5315	-1.91345
1.532	-9.36584
1.5325	-12.38708
1.533	-24.47205
1.5335	-32.32727
1.534	-47.23206
1.5345	-54.0802
1.535	-56.69861
1.5355	-47.53418
1.536	-37.46338
1.5365	-37.16125
1.537	-33.43506
1.5375	-29.50745
1.538	-35.54993
1.5385	-21.04797
1.539	-28.29895
1.5395	-24.77417
1.54	-18.63098
1.5405	-9.46655
1.541	-11.38
1.5415	-6.04248
1.542	-2.81982
1.5425	-0.30212
1.543	7.15027
1.5435	5.74036
1.544	10.87646
1.5445	13.69629
1.545	17.6239
1.5455	20.04089
1.546	18.32886
1.5465	17.22107
1.547	11.88354
1.5475	16.01257
1.548	14.40125
1.5485	11.2793
1.549	10.77576
1.5495	12.89062
1.55	20.54443
1.5505	24.57275
1.551	12.08496
1.5515	6.74744
1.552	-4.22974
1.5525	-9.56726
1.553	-17.6239
1.5535	-20.04089
1.554	-14.30054
1.5545	-19.23523
1.555	-9.16443
1.5555	-12.08496
1.556	-3.52478
1.5565	0.10071
1.557	5.0354
1.5575	12.99133
1.558	11.38
1.5585	7.5531
1.559	12.18567
1.5595	3.12195
1.56	8.66089
1.5605	14.30054
1.561	14.80408
1.5615	17.72461
1.562	9.97009
1.5625	5.43823
1.563	-5.94177
1.5635	-11.78284
1.564	-13.09204
1.5645	-16.01257
1.565	-18.8324
1.5655	-19.83948
1.566	-24.97559
1.5665	-19.73877
1.567	-19.43665
1.5675	-12.99133
1.568	-8.15735
1.5685	-2.41699
1.569	0.20142
1.5695	3.42407
1.57	7.25098
1.5705	13.99841
1.571	15.60974
1.5715	11.07788
1.572	8.35876
1.5725	-3.02124
1.573	-7.95593
1.5735	-14.90479
1.574	-17.92603
1.5745	-15.00549
1.575	-10.17151
1.5755	-8.05664
1.576	-4.53186
1.5765	-7.5531
1.577	-1.2085
1.5775	5.84106
1.578	8.35876
1.5785	6.94885
1.579	5.23682
1.5795	4.53186
1.58	-0.50354
1.5805	-19.13452
1.581	-29.60815
1.5815	-37.7655
1.582	-45.2179
1.5825	-41.08887
1.583	-43.30444
1.5835	-48.33984
1.584	-63.14392
1.5845	-88.82446
1.585	-115.10925
1.5855	-144.31458
1.586	-173.62061
1.5865	-190.43884
1.587	-192.75513
1.5875	-195.67566
1.588	-195.07141
1.5885	-195.47424
1.589	-190.43884
1.5895	-183.69141
1.59	-169.89441
1.5905	-134.84802
1.591	-110.27527
1.5915	-66.26587
1.592	-14.80408
1.5925	44.71436
1.593	113.80005
1.5935	183.89282
1.594	243.61267
1.5945	290.94543
1.595	330.32227
1.5955	351.47095
1.596	367.78564
1.5965	368.59131
1.597	350.8667
1.5975	316.02173
1.598	269.39392
1.5985	213.90381
1.599	159.7229
1.5995	99.90234
1.6	51.15967
1.6005	0.40283
1.601	-43.30444
1.6015	-65.15808
1.602	-70.59631
1.6025	-58.91418
1.603	-44.41223
1.6035	-40.78674
1.604	-8.05664
1.6045	11.48071
1.605	28.09753
1.6055	41.39099
1.606	49.34692
1.6065	51.76392
1.607	49.24622
1.6075	43.90869
1.608	36.25488
1.6085	21.24939
1.609	14.50195
1.6095	10.47363
1.61	2.61841
1.6105	1.71204
1.611	1.71204
1.6115	6.2439
1.612	10.57434
1.6125	11.17859
1.613	13.29346
1.6135	7.04956
1.614	13.797
1.6145	17.52319
1.615	9.26514
1.6155	0.90637
1.616	-3.32336
1.6165	-4.22974
1.617	-9.86938
1.6175	-18.22815
1.618	-30.51453
1.6185	-40.08179
1.619	-50.95825
1.6195	-56.39648
1.62	-54.88586
1.6205	-49.54834
1.621	-41.79382
1.6215	-26.68762
1.622	-8.96301
1.6225	9.56726
1.623	26.3855
1.6235	36.95984
1.624	43.00232
1.6245	37.7655
1.625	35.14709
1.6255	31.62231
1.626	20.44373
1.6265	10.67505
1.627	3.52478
1.6275	-5.23682
1.628	-11.58142
1.6285	-25.98267
1.629	-43.70728
1.6295	-58.81348
1.63	-68.38074
1.6305	-76.43738
1.631	-82.78198
1.6315	-87.61597
1.632	-101.71509
1.6325	-90.33508
1.633	-80.4657
1.6335	-78.25012
1.634	-60.3241
1.6345	-31.82373
1.635	-9.36584
1.6355	4.43115
1.636	19.83948
1.6365	38.57117
1.637	47.7356
1.6375	51.46179
1.638	46.5271
1.6385	38.77258
1.639	23.46497
1.6395	7.25098
1.64	-11.98425
1.6405	-15.00549
1.641	-21.65222
1.6415	-31.11877
1.642	-38.36975
1.6425	-35.65063
1.643	-21.3501
1.6435	-8.96301
1.644	0.40283
1.6445	16.3147
1.645	31.4209
1.6455	46.5271
1.646	57.70569
1.6465	67.47437
1.647	77.948
1.6475	71.80481
1.648	66.6687
1.6485	69.48853
1.649	72.20764
1.6495	74.02039
1.65	69.28711
1.6505	60.52551
1.651	53.57666
1.6515	49.64905
1.652	41.69312
1.6525	23.56567
1.653	10.57434
1.6535	-4.83398
1.654	-21.14868
1.6545	-29.00391
1.655	-41.18958
1.6555	-45.2179
1.656	-55.89294
1.6565	-59.51843
1.657	-71.50269
1.6575	-72.10693
1.658	-78.14941
1.6585	-84.2926
1.659	-84.09119
1.6595	-87.81738
1.66	-89.83154
1.6605	-82.27844
1.661	-77.84729
1.6615	-64.25171
1.662	-49.34692
1.6625	-33.23364
1.663	-29.60815
1.6635	-21.85364
1.664	-18.73169
1.6645	-26.48621
1.665	-30.41382
1.6655	-26.28479
1.666	-12.99133
1.6665	0
1.667	21.24939
1.6675	24.67346
1.668	49.54834
1.6685	85.40039
1.669	113.1958
1.6695	125.68359
1.67	147.43652
1.6705	165.76538
1.671	171.10291
1.6715	166.16821
1.672	148.14148
1.6725	126.18713
1.673	105.34058
1.6735	81.67419
1.674	52.97241
1.6745	35.95276
1.675	22.76001
1.6755	-3.02124
1.676	-26.68762
1.6765	-48.23914
1.677	-77.44446
1.6775	-98.39172
1.678	-105.03845
1.6785	-92.04712
1.679	-76.84021
1.6795	-47.13135
1.68	-13.89771
1.6805	26.08337
1.681	62.8418
1.6815	91.14075
1.682	108.05969
1.6825	125.18005
1.683	143.60962
1.6835	159.52148
1.684	163.85193
1.6845	147.63794
1.685	120.34607
1.6855	83.28552
1.686	48.94409
1.6865	16.11328
1.687	-1.61133
1.6875	-24.57275
1.688	-33.63647
1.6885	-33.13293
1.689	-28.60107
1.6895	-17.22107
1.69	-26.68762
1.6905	-28.60107
1.691	-20.74585
1.6915	-9.97009
1.692	-6.04248
1.6925	-13.09204
1.693	-18.42957
1.6935	-17.52319
1.694	-8.66089
1.6945	-13.29346
1.695	-14.80408
1.6955	-19.03381
1.696	-20.84656
1.6965	-31.62231
1.697	-38.87329
1.6975	-44.61365
1.698	-51.86462
1.6985	-54.38232
1.699	-47.13135
1.6995	-29.10461
1.7	-0.70496
1.7005	19.13452
1.701	33.53577
1.7015	34.94568
1.702	43.30444
1.7025	56.39648
1.703	70.49561
1.7035	80.76782
1.704	80.56641
1.7045	78.85437
1.705	81.27136
1.7055	67.07153
1.706	43.20374
1.7065	32.32727
1.707	15.60974
1.7075	4.02832
1.708	-16.61682
1.7085	-29.30603
1.709	-39.67896
1.7095	-50.95825
1.71	-56.69861
1.7105	-60.22339
1.711	-76.53809
1.7115	-83.18481
1.712	-96.47827
1.7125	-91.94641
1.713	-90.43579
1.7135	-89.22729
1.714	-82.9834
1.7145	-78.65295
1.715	-65.56091
1.7155	-40.68604
1.716	-17.52319
1.7165	0.20142
1.717	19.43665
1.7175	34.94568
1.718	45.72144
1.7185	47.63489
1.719	55.99365
1.7195	48.33984
1.72	38.26904
1.7205	35.75134
1.721	32.83081
1.7215	18.8324
1.722	3.62549
1.7225	-7.65381
1.723	-9.76868
1.7235	-6.04248
1.724	-18.32886
1.7245	-35.65063
1.725	-49.44763
1.7255	-66.87012
1.726	-70.99915
1.7265	-72.50977
1.727	-77.24304
1.7275	-59.51843
1.728	-38.67188
1.7285	-14.60266
1.729	2.01416
1.7295	23.76709
1.73	35.34851
1.7305	50.2533
1.731	78.25012
1.7315	87.31384
1.732	91.54358
1.7325	87.71667
1.733	79.96216
1.7335	64.75525
1.734	33.83789
1.7345	7.75452
1.735	-45.41931
1.7355	-117.12341
1.736	-170.39795
1.7365	-192.15088
1.737	-194.36646
1.7375	-181.073
1.738	-165.26184
1.7385	-140.8905
1.739	-104.23279
1.7395	-50.2533
1.74	-17.72461
1.7405	-6.74744
1.741	22.45789
1.7415	41.08887
1.742	68.17932
1.7425	90.83862
1.743	105.6427
1.7435	116.01562
1.744	105.23987
1.7445	103.62854
1.745	112.79297
1.7455	124.4751
1.746	130.31616
1.7465	119.84253
1.747	92.65137
1.7475	87.41455
1.748	90.13367
1.7485	84.49402
1.749	56.69861
1.7495	24.57275
1.75	2.61841
1.7505	6.94885
1.751	20.74585
1.7515	43.10303
1.752	56.79932
1.7525	72.30835
1.753	101.01013
1.7535	120.24536
1.754	131.22253
1.7545	129.81262
1.755	117.22412
1.7555	111.48376
1.756	104.83704
1.7565	90.43579
1.757	78.75366
1.7575	50.85754
1.758	35.65063
1.7585	16.61682
1.759	-0.70496
1.7595	-15.91187
1.76	-35.34851
1.7605	-45.01648
1.761	-50.95825
1.7615	-51.96533
1.762	-42.49878
1.7625	-33.83789
1.763	-26.58691
1.7635	-23.76709
1.764	-20.64514
1.7645	-28.09753
1.765	-39.27612
1.7655	-55.2887
1.766	-65.05737
1.7665	-72.61047
1.767	-70.3949
1.7675	-72.50977
1.768	-78.65295
1.7685	-73.91968
1.769	-80.66711
1.7695	-107.65686
1.77	-120.7489
1.7705	-125.38147
1.771	-117.62695
1.7715	-97.38464
1.772	-69.58923
1.7725	-40.1825
1.773	-14.09912
1.7735	16.41541
1.774	40.38391
1.7745	72.40906
1.775	96.67969
1.7755	108.86536
1.776	94.56482
1.7765	77.14233
1.777	44.71436
1.7775	18.8324
1.778	-8.15735
1.7785	-41.99524
1.779	-59.1156
1.7795	-67.77649
1.78	-56.69861
1.7805	-44.61365
1.781	-22.25647
1.7815	-18.22815
1.782	3.7262
1.7825	44.81506
1.783	83.48694
1.7835	114.20288
1.784	126.48926
1.7845	126.58997
1.785	121.25244
1.7855	114.70642
1.786	87.41455
1.7865	56.19507
1.787	25.37842
1.7875	7.04956
1.788	-0.60425
1.7885	-7.65381
1.789	-12.38708
1.7895	-7.85522
1.79	-13.29346
1.7905	-51.36108
1.791	-76.84021
1.7915	-78.14941
1.792	-70.49561
1.7925	-56.49719
1.793	-58.10852
1.7935	-42.39807
1.794	-33.63647
1.7945	-20.64514
1.795	-22.6593
1.7955	-19.83948
1.796	-23.46497
1.7965	-14.40125
1.797	-1.3092
1.7975	16.41541
1.798	37.96692
1.7985	51.15967
1.799	65.46021
1.7995	28.80249
1.8	11.58142
1.8005	5.13611
1.801	1.00708
1.8015	0.40283
1.802	4.73328
1.8025	10.17151
1.803	24.37134
1.8035	23.96851
1.804	25.37842
1.8045	43.70728
1.805	59.41772
1.8055	78.95508
1.806	105.13916
1.8065	134.04236
1.807	141.29333
1.8075	153.07617
1.808	148.4436
1.8085	121.65527
1.809	85.60181
1.8095	50.95825
1.81	27.59399
1.8105	6.44531
1.811	-16.61682
1.8115	-34.24072
1.812	-45.62073
1.8125	-48.33984
1.813	-55.79224
1.8135	-68.58215
1.814	-67.67578
1.8145	-54.98657
1.815	-36.95984
1.8155	-21.24939
1.816	-11.88354
1.8165	8.56018
1.817	12.99133
1.8175	16.81824
1.818	20.34302
1.8185	28.9032
1.819	37.96692
1.8195	44.31152
1.82	45.62073
1.8205	45.11719
1.821	49.34692
1.8215	57.9071
1.822	65.05737
1.8225	62.8418
1.823	51.86462
1.8235	48.44055
1.824	41.4917
1.8245	25.07629
1.825	1.00708
1.8255	-17.32178
1.826	-27.79541
1.8265	-36.35559
1.827	-51.05896
1.8275	-61.43188
1.828	-61.02905
1.8285	-60.62622
1.829	-55.18799
1.8295	-43.40515
1.83	-46.42639
1.8305	-42.39807
1.831	-60.62622
1.8315	-55.89294
1.832	-52.26746
1.8325	-35.2478
1.833	-24.57275
1.8335	-18.53027
1.834	-14.09912
1.8345	-20.94727
1.835	-12.89062
1.8355	-3.52478
1.836	-0.80566
1.8365	-11.48071
1.837	-27.39258
1.8375	-26.3855
1.838	-20.74585
1.8385	-13.29346
1.839	-6.54602
1.8395	5.0354
1.84	15.00549
1.8405	33.23364
1.841	49.34692
1.8415	75.63171
1.842	88.11951
1.8425	98.99597
1.843	110.87952
1.8435	109.77173
1.844	93.85986
1.8445	75.93384
1.845	57.60498
1.8455	44.71436
1.846	37.96692
1.8465	21.3501
1.847	11.07788
1.8475	-21.24939
1.848	-42.29736
1.8485	-74.32251
1.849	-84.49402
1.8495	-93.55774
1.85	-101.8158
1.8505	-107.35474
1.851	-110.27527
1.8515	-99.80164
1.852	-74.02039
1.8525	-46.72852
1.853	-16.3147
1.8535	10.47363
1.854	31.4209
1.8545	50.65613
1.855	67.27295
1.8555	78.85437
1.856	86.30676
1.8565	85.70251
1.857	69.68994
1.8575	40.88745
1.858	20.24231
1.8585	4.43115
1.859	-10.47363
1.8595	-18.32886
1.86	-31.32019
1.8605	-49.0448
1.861	-59.82056
1.8615	-62.9425
1.862	-57.70569
1.8625	-46.62781
1.863	-37.66479
1.8635	-30.81665
1.864	-17.52319
1.8645	-2.71912
1.865	16.3147
1.8655	32.02515
1.866	54.68445
1.8665	58.81348
1.867	74.12109
1.8675	74.42322
1.868	68.58215
1.8685	53.77808
1.869	29.60815
1.8695	-10.87646
1.87	-43.60657
1.8705	-67.27295
1.871	-79.2572
1.8715	-82.47986
1.872	-77.14233
1.8725	-64.151
1.873	-51.96533
1.8735	-41.79382
1.874	-18.63098
1.8745	-1.71204
1.875	-13.29346
1.8755	-48.84338
1.876	-68.58215
1.8765	-79.96216
1.877	-73.71826
1.8775	-70.49561
1.878	-64.05029
1.8785	-40.38391
1.879	-12.78992
1.8795	18.12744
1.88	37.56409
1.8805	57.9071
1.881	85.09827
1.8815	111.58447
1.882	129.00696
1.8825	138.17139
1.883	144.71741
1.8835	153.3783
1.884	148.4436
1.8845	124.97864
1.885	102.42004
1.8855	83.58765
1.886	61.93542
1.8865	27.89612
1.887	-3.8269
1.8875	-45.52002
1.888	-82.27844
1.8885	-113.1958
1.889	-140.08484
1.8895	-142.30042
1.89	-122.66235
1.8905	-97.38464
1.891	-65.96375
1.8915	-26.48621
1.892	23.36426
1.8925	69.08569
1.893	111.9873
1.8935	147.43652
1.894	180.26733
1.8945	185.60486
1.895	179.56238
1.8955	171.40503
1.896	154.08325
1.8965	137.46643
1.897	119.74182
1.8975	105.94482
1.898	93.75916
1.8985	77.74658
1.899	54.38232
1.8995	22.35718
1.9	7.75452
1.9005	0.50354
1.901	2.92053
1.9015	-0.70496
1.902	-8.8623
1.9025	-22.45789
1.903	-42.09595
1.9035	-52.56958
1.904	-55.59082
1.9045	-50.354
1.905	-57.9071
1.9055	-87.31384
1.906	-118.53333
1.9065	-122.66235
1.907	-123.66943
1.9075	-118.43262
1.908	-130.01404
1.9085	-123.97156
1.909	-112.89368
1.9095	-85.09827
1.91	-56.69861
1.9105	-21.14868
1.911	6.04248
1.9115	36.25488
1.912	59.1156
1.9125	91.34216
1.913	111.18164
1.9135	120.54749
1.914	121.9574
1.9145	118.53333
1.915	99.09668
1.9155	86.40747
1.916	73.51685
1.9165	60.4248
1.917	48.44055
1.9175	31.62231
1.918	12.28638
1.9185	-3.92761
1.919	-7.65381
1.9195	2.41699
1.92	5.84106
1.9205	1.10779
1.921	-14.70337
1.9215	-19.43665
1.922	-27.09045
1.9225	-31.21948
1.923	-30.91736
1.9235	-31.82373
1.924	-30.31311
1.9245	-27.09045
1.925	-24.87488
1.9255	-10.37292
1.926	-6.84814
1.9265	-1.51062
1.927	-1.61133
1.9275	2.01416
1.928	0.60425
1.9285	6.3446
1.929	-1.2085
1.9295	-28.39966
1.93	-60.4248
1.9305	-90.93933
1.931	-110.87952
1.9315	-131.32324
1.932	-132.53174
1.9325	-121.55457
1.933	-99.49951
1.9335	-100.80872
1.934	-109.06677
1.9345	-98.59314
1.935	-62.23755
1.9355	-18.22815
1.936	24.57275
1.9365	64.45312
1.937	104.03137
1.9375	123.77014
1.938	138.77563
1.9385	148.54431
1.939	145.42236
1.9395	130.71899
1.94	125.88501
1.9405	124.57581
1.941	117.02271
1.9415	103.52783
1.942	73.41614
1.9425	39.37683
1.943	27.6947
1.9435	20.94727
1.944	15.81116
1.9445	10.27222
1.945	5.0354
1.9455	-4.73328
1.946	-5.84106
1.9465	-19.73877
1.947	-24.77417
1.9475	-19.83948
1.948	-13.59558
1.9485	0
1.949	5.43823
1.9495	9.16443
1.95	5.33752
1.9505	9.06372
1.951	5.33752
1.9515	-10.37292
1.952	-40.08179
1.9525	-52.46887
1.953	-67.27295
1.9535	-83.99048
1.954	-84.99756
1.9545	-83.28552
1.955	-77.84729
1.9555	-65.05737
1.956	-53.77808
1.9565	-38.87329
1.957	-26.88904
1.9575	-10.47363
1.958	-0.40283
1.9585	16.3147
1.959	31.11877
1.9595	45.11719
1.96	52.46887
1.9605	55.89294
1.961	53.27454
1.9615	46.92993
1.962	35.44922
1.9625	28.50037
1.963	15.00549
1.9635	1.91345
1.964	-16.41541
1.9645	-17.12036
1.965	-24.57275
1.9655	-25.68054
1.966	-23.26355
1.9665	-28.9032
1.967	-25.68054
1.9675	-17.22107
1.968	-11.88354
1.9685	0.60425
1.969	1.91345
1.9695	-4.83398
1.97	-23.66638
1.9705	-29.20532
1.971	-51.5625
1.9715	-63.34534
1.972	-73.91968
1.9725	-68.28003
1.973	-56.39648
1.9735	-41.79382
1.974	-31.11877
1.9745	-28.50037
1.975	-17.01965
1.9755	9.56726
1.976	26.58691
1.9765	52.16675
1.977	76.7395
1.9775	112.59155
1.978	138.07068
1.9785	156.90308
1.979	171.10291
1.9795	182.28149
1.98	186.20911
1.9805	188.72681
1.981	181.67725
1.9815	171.30432
1.982	134.5459
1.9825	62.03613
1.983	-29.60815
1.9835	-119.4397
1.984	-193.6615
1.9845	-236.96594
1.985	-253.88489
1.9855	-251.36719
1.986	-233.03833
1.9865	-208.36487
1.987	-171.80786
1.9875	-121.45386
1.988	-57.9071
1.9885	10.47363
1.989	85.19897
1.9895	151.46484
1.99	201.31531
1.9905	234.24683
1.991	267.68188
1.9915	277.65198
1.992	268.28613
1.9925	232.23267
1.993	191.34521
1.9935	111.28235
1.994	53.97949
1.9945	0.70496
1.995	-59.71985
1.9955	-99.49951
1.996	-104.3335
1.9965	-89.328
1.997	-76.94092
1.9975	-59.92126
1.998	-34.54285
1.9985	7.35168
1.999	37.36267
1.9995	59.71985
2	75.53101
2.0005	80.4657
2.001	78.85437
2.0015	67.07153
2.002	49.24622
2.0025	37.16125
2.003	25.37842
2.0035	22.45789
2.004	21.24939
2.0045	6.14319
2.005	-14.19983
2.0055	-32.93152
2.006	-39.17542
2.0065	-46.32568
2.007	-52.97241
2.0075	-55.18799
2.008	-46.72852
2.0085	-38.57117
2.009	-28.19824
2.0095	-8.96301
2.01	3.52478
2.0105	21.65222
2.011	29.00391
2.0115	35.14709
2.012	43.50586
2.0125	35.65063
2.013	37.56409
2.0135	32.42798
2.014	31.01807
2.0145	28.80249
2.015	19.33594
2.0155	-12.78992
2.016	-23.76709
2.0165	-39.07471
2.017	-50.75684
2.0175	-56.09436
2.018	-64.25171
2.0185	-61.73401
2.019	-55.69153
2.0195	-51.36108
2.02	-47.23206
2.0205	-47.93701
2.021	-33.83789
2.0215	-26.88904
2.022	-14.40125
2.0225	-12.38708
2.023	0.10071
2.0235	6.3446
2.024	18.42957
2.0245	35.85205
2.025	43.70728
2.0255	48.33984
2.026	54.88586
2.0265	52.67029
2.027	49.64905
2.0275	38.26904
2.028	19.63806
2.0285	6.14319
2.029	-1.61133
2.0295	-8.56018
2.03	0.80566
2.0305	12.38708
2.031	16.3147
2.0315	10.57434
2.032	13.29346
2.0325	17.12036
2.033	22.45789
2.0335	33.33435
2.034	44.41223
2.0345	49.0448
2.035	43.60657
2.0355	32.93152
2.036	25.57983
2.0365	15.40833
2.037	10.67505
2.0375	-2.41699
2.038	-5.0354
2.0385	-9.76868
2.039	-9.86938
2.0395	-10.37292
2.04	-6.04248
2.0405	-6.14319
2.041	-19.94019
2.0415	-35.44922
2.042	-39.07471
2.0425	-48.84338
2.043	-43.10303
2.0435	-48.64197
2.044	-46.72852
2.0445	-35.65063
2.045	-30.11169
2.0455	-23.36426
2.046	-7.85522
2.0465	10.57434
2.047	8.8623
2.0475	2.81982
2.048	0.90637
2.0485	-3.02124
2.049	-12.99133
2.0495	-20.74585
2.05	-25.27771
2.0505	-24.77417
2.051	-27.99683
2.0515	-10.47363
2.052	3.12195
2.0525	14.19983
2.053	19.83948
2.0535	26.98975
2.054	27.6947
2.0545	32.32727
2.055	40.1825
2.0555	38.974
2.056	29.30603
2.0565	5.23682
2.057	-9.36584
2.0575	-28.39966
2.058	-49.0448
2.0585	-61.93542
2.059	-71.30127
2.0595	-80.66711
2.06	-82.68127
2.0605	-83.58765
2.061	-84.09119
2.0615	-70.89844
2.062	-57.8064
2.0625	-35.65063
2.063	-8.7616
2.0635	22.15576
2.064	55.3894
2.0645	81.67419
2.065	105.74341
2.0655	126.48926
2.066	127.99988
2.0665	119.84253
2.067	100.40588
2.0675	92.85278
2.068	80.66711
2.0685	66.06445
2.069	46.02356
2.0695	18.63098
2.07	0.80566
2.0705	-18.32886
2.071	-35.54993
2.0715	-49.85046
2.072	-42.49878
2.0725	-28.39966
2.073	-19.53735
2.0735	-3.42407
2.074	5.74036
2.0745	16.11328
2.075	18.53027
2.0755	24.06921
2.076	20.44373
2.0765	23.46497
2.077	16.11328
2.0775	0.70496
2.078	-23.36426
2.0785	-29.00391
2.079	-39.67896
2.0795	-45.62073
2.08	-53.17383
2.0805	-63.04321
2.081	-60.4248
2.0815	-40.58533
2.082	-9.76868
2.0825	20.54443
2.083	47.93701
2.0835	67.17224
2.084	72.40906
2.0845	83.58765
2.085	84.69543
2.0855	88.62305
2.086	86.20605
2.0865	81.27136
2.087	62.33826
2.0875	33.63647
2.088	15.71045
2.0885	-5.94177
2.089	-9.46655
2.0895	-16.3147
2.09	-21.65222
2.0905	-25.37842
2.091	-19.33594
2.0915	-0.40283
2.092	16.11328
2.0925	25.177
2.093	32.12585
2.0935	22.25647
2.094	-9.56726
2.0945	-15.81116
2.095	-25.88196
2.0955	-36.65771
2.096	-58.81348
2.0965	-59.51843
2.097	-60.62622
2.0975	-61.02905
2.098	-61.93542
2.0985	-50.55542
2.099	-44.71436
2.0995	-29.91028
2.1	-6.04248
2.1005	24.67346
2.101	60.3241
2.1015	81.17065
2.102	89.83154
2.1025	99.49951
2.103	107.15332
2.1035	106.44836
2.104	106.24695
2.1045	100.00305
2.105	99.2981
2.1055	75.63171
2.106	45.52002
2.1065	25.78125
2.107	1.91345
2.1075	-32.7301
2.108	-50.45471
2.1085	-68.38074
2.109	-69.68994
2.1095	-71.60339
2.11	-66.76941
2.1105	-58.20923
2.111	-47.7356
2.1115	-31.82373
2.112	-23.06213
2.1125	-9.66797
2.113	3.92761
2.1135	19.13452
2.114	27.49329
2.1145	28.39966
2.115	28.09753
2.1155	18.73169
2.116	15.91187
2.1165	12.28638
2.117	3.7262
2.1175	1.81274
2.118	0.80566
2.1185	2.81982
2.119	-1.10779
2.1195	-1.61133
2.12	4.33044
2.1205	15.20691
2.121	18.93311
2.1215	19.23523
2.122	17.72461
2.1225	22.55859
2.123	21.24939
2.1235	8.56018
2.124	8.8623
2.1245	2.81982
2.125	6.74744
2.1255	2.31628
2.126	3.7262
2.1265	1.00708
2.127	-5.13611
2.1275	-7.75452
2.128	-14.90479
2.1285	-20.1416
2.129	-30.51453
2.1295	-35.54993
2.13	-37.96692
2.1305	-40.78674
2.131	-34.94568
2.1315	-28.39966
2.132	-24.77417
2.1325	-15.30762
2.133	3.92761
2.1335	23.56567
2.134	37.06055
2.1345	51.5625
2.135	62.9425
2.1355	68.07861
2.136	81.17065
2.1365	86.20605
2.137	80.4657
2.1375	73.21472
2.138	70.49561
2.1385	56.19507
2.139	39.88037
2.1395	19.33594
2.14	13.29346
2.1405	12.99133
2.141	12.18567
2.1415	9.16443
2.142	14.60266
2.1425	17.42249
2.143	8.35876
2.1435	3.8269
2.144	-4.83398
2.1445	-7.85522
2.145	-12.78992
2.1455	-10.17151
2.146	-13.797
2.1465	-8.45947
2.147	-6.04248
2.1475	-0.70496
2.148	2.01416
2.1485	0.30212
2.149	0.70496
2.1495	-3.22266
2.15	-9.06372
2.1505	-13.59558
2.151	-14.19983
2.1515	-23.46497
2.152	-45.2179
2.1525	-49.14551
2.153	-48.64197
2.1535	-44.91577
2.154	-45.3186
2.1545	-43.40515
2.155	-46.22498
2.1555	-45.41931
2.156	-51.36108
2.1565	-47.93701
2.157	-49.74976
2.1575	-48.23914
2.158	-47.7356
2.1585	-38.974
2.159	-14.30054
2.1595	0.40283
2.16	28.80249
2.1605	51.76392
2.161	63.64746
2.1615	70.79773
2.162	69.79065
2.1625	70.19348
2.163	80.86853
2.1635	76.33667
2.164	62.53967
2.1645	54.78516
2.165	48.84338
2.1655	43.60657
2.166	45.82214
2.1665	41.08887
2.167	28.9032
2.1675	19.03381
2.168	12.99133
2.1685	12.5885
2.169	7.15027
2.1695	6.44531
2.17	-2.5177
2.1705	-17.92603
2.171	-27.09045
2.1715	-37.16125
2.172	-50.45471
2.1725	-60.3241
2.173	-70.99915
2.1735	-86.40747
2.174	-109.4696
2.1745	-115.91492
2.175	-112.99438
2.1755	-106.64978
2.176	-95.06836
2.1765	-74.92676
2.177	-41.99524
2.1775	-19.53735
2.178	25.27771
2.1785	60.4248
2.179	99.49951
2.1795	122.86377
2.18	141.59546
2.1805	146.42944
2.181	152.57263
2.1815	148.54431
2.182	124.97864
2.1825	100.30518
2.183	88.0188
2.1835	62.03613
2.184	10.77576
2.1845	-59.61914
2.185	-116.922
2.1855	-138.77563
2.186	-134.04236
2.1865	-134.5459
2.187	-127.19421
2.1875	-96.37756
2.188	-75.22888
2.1885	-40.08179
2.189	-3.52478
2.1895	28.70178
2.19	56.49719
2.1905	76.63879
2.191	102.82288
2.1915	108.05969
2.192	102.21863
2.1925	100.6073
2.193	96.07544
2.1935	94.66553
2.194	87.91809
2.1945	80.86853
2.195	64.35242
2.1955	50.05188
2.196	36.55701
2.1965	26.3855
2.197	12.48779
2.1975	21.14868
2.198	27.09045
2.1985	24.57275
2.199	16.3147
2.1995	12.68921
2.2	2.61841
2.2005	0
2.201	-8.7616
2.2015	-13.89771
2.202	-18.63098
2.2025	-27.59399
2.203	-54.38232
2.2035	-63.64746
2.204	-62.23755
2.2045	-57.30286
2.205	-51.36108
2.2055	-42.39807
2.206	-38.16833
2.2065	-39.88037
2.207	-36.55701
2.2075	-34.34143
2.208	-35.75134
2.2085	-30.31311
2.209	-25.98267
2.2095	-18.42957
2.21	-15.71045
2.2105	-12.48779
2.211	-7.75452
2.2115	-1.3092
2.212	12.18567
2.2125	28.9032
2.213	43.60657
2.2135	46.32568
2.214	52.67029
2.2145	62.9425
2.215	69.58923
2.2155	80.4657
2.216	79.66003
2.2165	67.37366
2.217	54.78516
2.2175	45.82214
2.218	43.90869
2.2185	37.06055
2.219	21.55151
2.2195	6.3446
2.22	-6.84814
2.2205	-15.1062
2.221	-18.63098
2.2215	-16.51611
2.222	-17.12036
2.2225	-16.71753
2.223	-6.3446
2.2235	5.13611
2.224	13.19275
2.2245	19.83948
2.225	29.40674
2.2255	32.83081
2.226	39.67896
2.2265	36.95984
2.227	39.98108
2.2275	40.08179
2.228	32.32727
2.2285	25.57983
2.229	8.96301
2.2295	-0.10071
2.23	-2.71912
2.2305	-9.16443
2.231	-10.37292
2.2315	-19.43665
2.232	-30.31311
2.2325	-36.95984
2.233	-28.29895
2.2335	-21.75293
2.234	-19.53735
2.2345	-17.6239
2.235	-8.56018
2.2355	-4.22974
2.236	-1.51062
2.2365	0.60425
2.237	2.41699
2.2375	11.2793
2.238	11.78284
2.2385	10.37292
2.239	5.74036
2.2395	5.23682
2.24	-3.02124
2.2405	-9.36584
2.241	-24.97559
2.2415	-43.50586
2.242	-47.53418
2.2425	-49.85046
2.243	-49.85046
2.2435	-58.71277
2.244	-66.26587
2.2445	-61.6333
2.245	-66.46729
2.2455	-61.6333
2.246	-73.61755
2.2465	-71.7041
2.247	-69.1864
2.2475	-56.69861
2.248	-34.84497
2.2485	-4.43115
2.249	20.64514
2.2495	52.46887
2.25	80.96924
2.2505	114.00146
2.251	126.08643
2.2515	143.10608
2.252	153.17688
2.2525	150.35706
2.253	146.53015
2.2535	131.92749
2.254	120.04395
2.2545	99.80164
2.255	69.1864
2.2555	47.8363
2.256	28.09753
2.2565	4.73328
2.257	-13.797
2.2575	-26.68762
2.258	-27.09045
2.2585	-21.45081
2.259	-14.40125
2.2595	-20.94727
2.26	-27.49329
2.2605	-24.57275
2.261	-31.4209
2.2615	-45.52002
2.262	-76.84021
2.2625	-105.34058
2.263	-119.54041
2.2635	-121.65527
2.264	-122.56165
2.2645	-121.15173
2.265	-111.8866
2.2655	-101.01013
2.266	-81.17065
2.2665	-65.3595
2.267	-53.17383
2.2675	-26.3855
2.268	-12.08496
2.2685	4.83398
2.269	12.68921
2.2695	31.92444
2.27	36.65771
2.2705	47.63489
2.271	56.69861
2.2715	69.89136
2.272	80.66711
2.2725	99.09668
2.273	115.7135
2.2735	117.82837
2.274	108.66394
2.2745	87.51526
2.275	86.40747
2.2755	87.81738
2.276	80.76782
2.2765	80.96924
2.277	63.94958
2.2775	52.56958
2.278	40.2832
2.2785	17.92603
2.279	-2.61841
2.2795	-12.28638
2.28	-32.93152
2.2805	-43.70728
2.281	-42.8009
2.2815	-49.54834
2.282	-65.56091
2.2825	-69.89136
2.283	-72.40906
2.2835	-74.62463
2.284	-73.31543
2.2845	-69.28711
2.285	-72.40906
2.2855	-62.9425
2.286	-47.13135
2.2865	-42.39807
2.287	-27.09045
2.2875	1.61133
2.288	37.36267
2.2885	66.87012
2.289	103.02429
2.2895	126.38855
2.29	143.71033
2.2905	146.22803
2.291	145.32166
2.2915	139.88342
2.292	125.88501
2.2925	109.26819
2.293	93.0542
2.2935	74.12109
2.294	58.41064
2.2945	33.63647
2.295	8.15735
2.2955	0.30212
2.296	-0.10071
2.2965	9.97009
2.297	4.63257
2.2975	-19.63806
2.298	-38.77258
2.2985	-53.27454
2.299	-58.61206
2.2995	-66.06445
2.3	-78.04871
2.3005	-102.01721
2.301	-101.51367
2.3015	-108.36182
2.302	-98.79456
2.3025	-87.21313
2.303	-73.51685
2.3035	-56.5979
2.304	-29.91028
2.3045	-11.07788
2.305	13.89771
2.3055	26.18408
2.306	48.13843
2.3065	64.05029
2.307	73.91968
2.3075	83.48694
2.308	88.42163
2.3085	93.45703
2.309	69.68994
2.3095	25.57983
2.31	-7.75452
2.3105	-27.99683
2.311	-47.53418
2.3115	-47.7356
2.312	-55.59082
2.3125	-58.30994
2.313	-59.92126
2.3135	-50.65613
2.314	-40.08179
2.3145	-36.65771
2.315	-40.08179
2.3155	-33.13293
2.316	-21.75293
2.3165	-13.99841
2.317	1.3092
2.3175	15.40833
2.318	36.25488
2.3185	47.7356
2.319	58.41064
2.3195	69.68994
2.32	78.25012
2.3205	79.66003
2.321	77.44446
2.3215	58.91418
2.322	35.85205
2.3225	6.2439
2.323	-12.48779
2.3235	-21.45081
2.324	-41.39099
2.3245	-55.18799
2.325	-62.74109
2.3255	-58.51135
2.326	-45.3186
2.3265	-37.96692
2.327	-24.16992
2.3275	-9.76868
2.328	5.63965
2.3285	28.60107
2.329	42.90161
2.3295	49.34692
2.33	52.16675
2.3305	53.77808
2.331	52.36816
2.3315	53.47595
2.332	51.26038
2.3325	54.38232
2.333	51.86462
2.3335	47.13135
2.334	40.68604
2.3345	17.12036
2.335	-1.61133
2.3355	-14.19983
2.336	-7.35168
2.3365	-2.71912
2.337	-0.20142
2.3375	2.21558
2.338	9.36584
2.3385	10.87646
2.339	16.21399
2.3395	23.26355
2.34	27.99683
2.3405	35.2478
2.341	38.47046
2.3415	39.77966
2.342	35.85205
2.3425	29.60815
2.343	22.96143
2.3435	13.09204
2.344	3.32336
2.3445	-11.48071
2.345	-23.76709
2.3455	-37.06055
2.346	-44.21082
2.3465	-57.20215
2.347	-62.9425
2.3475	-55.49011
2.348	-51.26038
2.3485	-43.40515
2.349	-29.70886
2.3495	-19.53735
2.35	-3.8269
2.3505	7.75452
2.351	19.33594
2.3515	28.19824
2.352	41.4917
2.3525	53.37524
2.353	55.3894
2.3535	50.95825
2.354	46.12427
2.3545	40.2832
2.355	29.70886
2.3555	21.95435
2.356	21.3501
2.3565	8.7616
2.357	4.12903
2.3575	3.02124
2.358	1.00708
2.3585	-13.797
2.359	-11.2793
2.3595	-15.40833
2.36	-16.81824
2.3605	-18.42957
2.361	-15.50903
2.3615	-15.91187
2.362	-10.97717
2.3625	-6.94885
2.363	-8.8623
2.3635	-8.35876
2.364	-9.06372
2.3645	-9.76868
2.365	-23.56567
2.3655	-34.24072
2.366	-37.26196
2.3665	-38.16833
2.367	-44.41223
2.3675	-53.17383
2.368	-52.56958
2.3685	-46.42639
2.369	-42.90161
2.3695	-34.64355
2.37	-38.47046
2.3705	-40.08179
2.371	-29.00391
2.3715	-13.69629
2.372	2.81982
2.3725	4.63257
2.373	13.49487
2.3735	27.49329
2.374	38.47046
2.3745	44.91577
2.375	56.49719
2.3755	61.73401
2.376	67.67578
2.3765	81.97632
2.377	84.2926
2.3775	80.66711
2.378	70.09277
2.3785	70.79773
2.379	63.14392
2.3795	70.19348
2.38	62.43896
2.3805	61.93542
2.381	52.8717
2.3815	45.41931
2.382	39.07471
2.3825	25.47913
2.383	14.19983
2.3835	-2.31628
2.384	-5.23682
2.3845	-5.63965
2.385	-7.95593
2.3855	-4.73328
2.386	-2.01416
2.3865	-5.0354
2.387	-5.0354
2.3875	-3.42407
2.388	-1.3092
2.3885	-2.31628
2.389	-8.15735
2.3895	-7.04956
2.39	-6.94885
2.3905	-8.05664
2.391	-23.66638
2.3915	-27.39258
2.392	-27.19116
2.3925	-34.24072
2.393	-33.73718
2.3935	-36.85913
2.394	-40.88745
2.3945	-39.57825
2.395	-41.18958
2.3955	-46.72852
2.396	-47.03064
2.3965	-45.41931
2.397	-47.63489
2.3975	-55.49011
2.398	-59.82056
2.3985	-66.97083
2.399	-58.81348
2.3995	-52.46887
2.4	-33.43506
2.4005	-6.64673
2.401	11.2793
2.4015	35.44922
2.402	61.53259
2.4025	89.42871
2.403	107.65686
2.4035	117.12341
2.404	121.55457
2.4045	118.73474
2.405	111.78589
2.4055	100.30518
2.406	90.33508
2.4065	66.87012
2.407	53.77808
2.4075	41.4917
2.408	35.95276
2.4085	29.70886
2.409	15.81116
2.4095	15.91187
2.41	19.83948
2.4105	17.82532
2.411	6.04248
2.4115	4.73328
2.412	5.43823
2.4125	-2.61841
2.413	-2.81982
2.4135	-14.30054
2.414	-23.8678
2.4145	-26.18408
2.415	-28.29895
2.4155	-35.65063
2.416	-38.06763
2.4165	-35.54993
2.417	-39.77966
2.4175	-33.23364
2.418	-34.24072
2.4185	-24.97559
2.419	-8.96301
2.4195	5.63965
2.42	23.46497
2.4205	35.14709
2.421	46.22498
2.4215	49.64905
2.422	49.24622
2.4225	62.13684
2.423	57.20215
2.4235	51.46179
2.424	41.99524
2.4245	30.01099
2.425	10.17151
2.4255	-12.38708
2.426	-35.14709
2.4265	-47.53418
2.427	-59.61914
2.4275	-51.36108
2.428	-36.85913
2.4285	-21.75293
2.429	-5.53894
2.4295	-0.40283
2.43	13.09204
2.4305	17.22107
2.431	28.80249
2.4315	28.50037
2.432	12.89062
2.4325	-6.64673
2.433	-55.99365
2.4335	-102.42004
2.434	-130.8197
2.4345	-143.60962
2.435	-156.09741
2.4355	-147.94006
2.436	-121.85669
2.4365	-87.51526
2.437	-59.41772
2.4375	-19.53735
2.438	28.60107
2.4385	86.30676
2.439	130.71899
2.4395	162.44202
2.44	178.95813
2.4405	176.0376
2.441	163.85193
2.4415	150.75989
2.442	125.98572
2.4425	88.62305
2.443	52.06604
2.4435	2.92053
2.444	-30.01099
2.4445	-49.95117
2.445	-83.99048
2.4455	-122.36023
2.446	-150.35706
2.4465	-161.63635
2.447	-156.80237
2.4475	-132.0282
2.448	-133.43811
2.4485	-117.92908
2.449	-84.99756
2.4495	-55.69153
2.45	-19.43665
2.4505	14.90479
2.451	44.61365
2.4515	80.36499
2.452	107.05261
2.4525	136.96289
2.453	162.54272
2.4535	171.40503
2.454	171.30432
2.4545	169.08875
2.455	150.05493
2.4555	127.39563
2.456	103.32642
2.4565	89.22729
2.457	74.42322
2.4575	53.57666
2.458	39.47754
2.4585	34.34143
2.459	30.71594
2.4595	44.0094
2.46	37.56409
2.4605	39.07471
2.461	27.99683
2.4615	21.85364
2.462	12.68921
2.4625	12.38708
2.463	6.94885
2.4635	1.71204
2.464	-4.02832
2.4645	-7.5531
2.465	-15.60974
2.4655	-18.32886
2.466	-12.48779
2.4665	-25.68054
2.467	-35.85205
2.4675	-34.54285
2.468	-30.91736
2.4685	-36.35559
2.469	-32.62939
2.4695	-32.22656
2.47	-37.36267
2.4705	-36.75842
2.471	-48.33984
2.4715	-47.33276
2.472	-46.32568
2.4725	-43.60657
2.473	-42.90161
2.4735	-29.40674
2.474	-20.24231
2.4745	-22.25647
2.475	-12.38708
2.4755	3.02124
2.476	1.3092
2.4765	-12.18567
2.477	-19.53735
2.4775	-18.53027
2.478	-19.63806
2.4785	-22.96143
2.479	-24.47205
2.4795	-16.01257
2.48	-9.66797
2.4805	-3.32336
2.481	-1.2085
2.4815	1.61133
2.482	5.0354
2.4825	10.57434
2.483	19.63806
2.4835	17.32178
2.484	18.8324
2.4845	17.6239
2.485	12.68921
2.4855	15.91187
2.486	14.80408
2.4865	25.78125
2.487	34.34143
2.4875	31.32019
2.488	41.69312
2.4885	56.69861
2.489	51.96533
2.4895	54.18091
2.49	57.70569
2.4905	56.69861
2.491	51.05896
2.4915	27.6947
2.492	2.81982
2.4925	-23.36426
2.493	-51.36108
2.4935	-60.02197
2.494	-75.93384
2.4945	-84.59473
2.495	-84.69543
2.4955	-71.60339
2.496	-47.7356
2.4965	-13.69629
2.497	19.43665
2.4975	49.74976
2.498	76.33667
2.4985	106.54907
2.499	127.69775
2.4995	133.03528
2.5	133.3374
2.5005	122.25952
2.501	93.85986
2.5015	53.17383
2.502	26.08337
2.5025	7.25098
2.503	-15.81116
2.5035	-31.01807
2.504	-47.93701
2.5045	-62.64038
2.505	-82.37915
2.5055	-86.10535
2.506	-83.18481
2.5065	-76.03455
2.507	-73.31543
2.5075	-63.04321
2.508	-45.2179
2.5085	-29.30603
2.509	-12.78992
2.5095	2.5177
2.51	20.44373
2.5105	20.04089
2.511	10.17151
2.5115	2.21558
2.512	-11.78284
2.5125	-15.1062
2.513	-21.95435
2.5135	-28.60107
2.514	-26.48621
2.5145	-17.72461
2.515	-15.00549
2.5155	-28.50037
2.516	-37.26196
2.5165	-30.31311
2.517	-23.96851
2.5175	-30.41382
2.518	-32.22656
2.5185	-20.1416
2.519	-29.70886
2.5195	-56.69861
2.52	-74.82605
2.5205	-73.51685
2.521	-63.54675
2.5215	-50.65613
2.522	-44.11011
2.5225	-26.18408
2.523	0.40283
2.5235	34.03931
2.524	66.6687
2.5245	103.42712
2.525	134.84802
2.5255	150.35706
2.526	159.92432
2.5265	166.0675
2.527	163.24768
2.5275	154.6875
2.528	142.30042
2.5285	129.00696
2.529	110.37598
2.5295	96.37756
2.53	76.84021
2.5305	62.53967
2.531	47.13135
2.5315	32.7301
2.532	26.3855
2.5325	20.54443
2.533	-15.20691
2.5335	-39.67896
2.534	-54.98657
2.5345	-60.52551
2.535	-70.49561
2.5355	-81.7749
2.536	-82.27844
2.5365	-83.88977
2.537	-102.11792
2.5375	-118.73474
2.538	-120.44678
2.5385	-109.06677
2.539	-90.5365
2.5395	-63.34534
2.54	-35.95276
2.5405	-2.11487
2.541	24.47205
2.5415	34.94568
2.542	9.97009
2.5425	-26.88904
2.543	-45.62073
2.5435	-42.90161
2.544	-40.78674
2.5445	-44.0094
2.545	-62.13684
2.5455	-96.17615
2.546	-119.94324
2.5465	-122.46094
2.547	-115.10925
2.5475	-117.32483
2.548	-110.27527
2.5485	-87.41455
2.549	-53.27454
2.5495	8.96301
2.55	66.06445
2.5505	107.05261
2.551	137.86926
2.5515	170.49866
2.552	206.85425
2.5525	228.40576
2.553	232.43408
2.5535	233.44116
2.554	226.89514
2.5545	207.76062
2.555	199.80469
2.5555	177.64893
2.556	148.64502
2.5565	131.22253
2.557	121.65527
2.5575	111.8866
2.558	85.40039
2.5585	65.15808
2.559	52.67029
2.5595	42.49878
2.56	26.98975
2.5605	20.44373
2.561	14.70337
2.5615	-0.90637
2.562	-11.17859
2.5625	-18.73169
2.563	-39.07471
2.5635	-49.0448
2.564	-67.17224
2.5645	-99.3988
2.565	-146.93298
2.5655	-197.08557
2.566	-224.07532
2.5665	-237.6709
2.567	-238.57727
2.5675	-228.00293
2.568	-206.35071
2.5685	-164.85901
2.569	-126.79138
2.5695	-69.38782
2.57	-3.32336
2.5705	41.99524
2.571	63.04321
2.5715	53.17383
2.572	60.72693
2.5725	74.62463
2.573	92.14783
2.5735	87.71667
2.574	60.4248
2.5745	41.08887
2.575	28.19824
2.5755	15.00549
2.576	9.76868
2.5765	4.33044
2.577	3.7262
2.5775	15.30762
2.578	42.09595
2.5785	66.56799
2.579	81.06995
2.5795	87.11243
2.58	76.33667
2.5805	86.30676
2.581	107.45544
2.5815	126.89209
2.582	115.81421
2.5825	95.97473
2.583	70.99915
2.5835	42.19666
2.584	-6.84814
2.5845	-46.82922
2.585	-80.4657
2.5855	-99.90234
2.586	-103.22571
2.5865	-89.42871
2.587	-71.40198
2.5875	-47.8363
2.588	-34.03931
2.5885	-22.6593
2.589	-12.48779
2.5895	-1.71204
2.59	30.91736
2.5905	66.87012
2.591	90.33508
2.5915	102.01721
2.592	102.52075
2.5925	109.3689
2.593	114.80713
2.5935	123.16589
2.594	95.77332
2.5945	13.59558
2.595	-46.22498
2.5955	-96.17615
2.596	-117.22412
2.5965	-137.36572
2.597	-148.94714
2.5975	-142.80396
2.598	-127.79846
2.5985	-112.79297
2.599	-94.76624
2.5995	-64.151
2.6	-30.11169
2.6005	4.63257
2.601	45.92285
2.6015	78.95508
2.602	114.10217
2.6025	126.69067
2.603	134.5459
2.6035	143.60962
2.604	147.73865
2.6045	143.4082
2.605	126.58997
2.6055	103.42712
2.606	67.77649
2.6065	32.52869
2.607	13.797
2.6075	-2.41699
2.608	-27.29187
2.6085	-30.31311
2.609	-31.32019
2.6095	-19.94019
2.61	-16.01257
2.6105	-25.98267
2.611	-34.44214
2.6115	-34.03931
2.612	-37.7655
2.6125	-35.14709
2.613	-31.01807
2.6135	-30.01099
2.614	-35.14709
2.6145	-27.39258
2.615	-24.87488
2.6155	-10.57434
2.616	17.42249
2.6165	36.4563
2.617	52.67029
2.6175	57.10144
2.618	61.53259
2.6185	60.12268
2.619	60.22339
2.6195	43.60657
2.62	15.60974
2.6205	-16.41541
2.621	-38.16833
2.6215	-46.42639
2.622	-54.28162
2.6225	-65.25879
2.623	-77.64587
2.6235	-84.49402
2.624	-78.75366
2.6245	-75.22888
2.625	-85.70251
2.6255	-79.45862
2.626	-57.70569
2.6265	-34.44214
2.627	-7.65381
2.6275	28.39966
2.628	61.73401
2.6285	82.37915
2.629	98.59314
2.6295	106.44836
2.63	111.8866
2.6305	123.06519
2.631	123.46802
2.6315	95.77332
2.632	61.53259
2.6325	-1.71204
2.633	-27.59399
2.6335	-40.68604
2.634	-52.46887
2.6345	-62.13684
2.635	-69.89136
2.6355	-67.47437
2.636	-75.73242
2.6365	-84.79614
2.637	-105.03845
2.6375	-107.95898
2.638	-118.02979
2.6385	-111.48376
2.639	-91.745
2.6395	-65.66162
2.64	-31.21948
2.6405	8.56018
2.641	56.79932
2.6415	95.16907
2.642	120.95032
2.6425	137.0636
2.643	136.15723
2.6435	131.92749
2.644	117.52625
2.6445	97.28394
2.645	61.43188
2.6455	8.35876
2.646	-48.64197
2.6465	-115.91492
2.647	-166.97388
2.6475	-201.41602
2.648	-240.49072
2.6485	-255.39551
2.649	-237.16736
2.6495	-204.23584
2.65	-143.91174
2.6505	-60.52551
2.651	11.98425
2.6515	91.54358
2.652	160.42786
2.6525	221.3562
2.653	250.05798
2.6535	249.0509
2.654	235.35461
2.6545	213.90381
2.655	186.71265
2.6555	161.93848
2.656	126.79138
2.6565	76.33667
2.657	36.85913
2.6575	13.89771
2.658	-9.46655
2.6585	-36.35559
2.659	-73.21472
2.6595	-90.13367
2.66	-93.45703
2.6605	-84.49402
2.661	-71.20056
2.6615	-52.771
2.662	-61.6333
2.6625	-62.74109
2.663	-50.15259
2.6635	-38.26904
2.664	-29.30603
2.6645	-24.37134
2.665	-21.3501
2.6655	-19.43665
2.666	-18.12744
2.6665	-23.16284
2.667	-24.27063
2.6675	-27.19116
2.668	-24.87488
2.6685	-19.03381
2.669	-1.71204
2.6695	10.87646
2.67	34.94568
2.6705	59.1156
2.671	73.11401
2.6715	92.55066
2.672	112.99438
2.6725	128.302
2.673	140.8905
2.6735	155.59387
2.674	141.29333
2.6745	123.36731
2.675	91.34216
2.6755	61.12976
2.676	40.78674
2.6765	26.18408
2.677	15.40833
2.6775	5.13611
2.678	-17.22107
2.6785	-32.22656
2.679	-38.67188
2.6795	-31.4209
2.68	-22.35718
2.6805	3.7262
2.681	28.80249
2.6815	52.56958
2.682	63.94958
2.6825	76.03455
2.683	83.28552
2.6835	81.47278
2.684	66.06445
2.6845	26.58691
2.685	-15.91187
2.6855	-37.7655
2.686	-66.06445
2.6865	-86.91101
2.687	-102.42004
2.6875	-125.18005
2.688	-162.2406
2.6885	-192.65442
2.689	-198.09265
2.6895	-189.02893
2.69	-168.28308
2.6905	-133.03528
2.691	-86.10535
2.6915	-26.78833
2.692	19.43665
2.6925	55.08728
2.693	94.3634
2.6935	131.42395
2.694	170.29724
2.6945	197.79053
2.695	206.85425
2.6955	192.65442
2.696	170.09583
2.6965	149.45068
2.697	131.32324
2.6975	91.94641
2.698	59.31702
2.6985	29.40674
2.699	6.74744
2.6995	-8.15735
2.7	-25.47913
2.7005	-62.03613
2.701	-92.24854
2.7015	-122.76306
2.702	-167.67883
2.7025	-202.12097
2.703	-254.38843
2.7035	-311.08704
2.704	-349.75891
2.7045	-355.19714
2.705	-363.95874
2.7055	-337.0697
2.706	-289.73694
2.7065	-263.75427
2.707	-263.35144
2.7075	-234.04541
2.708	-181.37512
2.7085	-97.08252
2.709	-27.29187
2.7095	36.85913
2.71	108.46252
2.7105	177.85034
2.711	219.64417
2.7115	235.1532
2.712	269.99817
2.7125	290.34119
2.713	283.39233
2.7135	276.14136
2.714	246.33179
2.7145	233.44116
2.715	209.17053
2.7155	180.87158
2.716	156.70166
2.7165	128.80554
2.717	121.45386
2.7175	129.81262
2.718	143.81104
2.7185	153.57971
2.719	165.36255
2.7195	181.97937
2.72	196.88416
2.7205	204.53796
2.721	193.05725
2.7215	169.39087
2.722	150.75989
2.7225	117.92908
2.723	74.2218
2.7235	20.04089
2.724	-24.67346
2.7245	-46.32568
2.725	-54.0802
2.7255	-74.12109
2.726	-88.11951
2.7265	-95.97473
2.727	-87.61597
2.7275	-67.57507
2.728	-49.74976
2.7285	-28.9032
2.729	-12.68921
2.7295	-6.44531
2.73	1.61133
2.7305	2.31628
2.731	10.27222
2.7315	5.94177
2.732	0.70496
2.7325	-0.20142
2.733	-5.43823
2.7335	-6.2439
2.734	-15.40833
2.7345	-21.45081
2.735	-16.41541
2.7355	-3.92761
2.736	-2.71912
2.7365	1.61133
2.737	5.84106
2.7375	1.61133
2.738	9.76868
2.7385	1.61133
2.739	-13.797
2.7395	-19.83948
2.74	-44.0094
2.7405	-72.40906
2.741	-84.89685
2.7415	-80.76782
2.742	-72.20764
2.7425	-71.90552
2.743	-60.12268
2.7435	-43.20374
2.744	-24.06921
2.7445	-6.04248
2.745	9.97009
2.7455	22.76001
2.746	31.4209
2.7465	35.85205
2.747	22.15576
2.7475	-7.25098
2.748	-31.01807
2.7485	-68.68286
2.749	-86.40747
2.7495	-115.81421
2.75	-123.46802
2.7505	-125.48218
2.751	-129.91333
2.7515	-131.02112
2.752	-125.28076
2.7525	-106.14624
2.753	-90.73792
2.7535	-79.55933
2.754	-50.354
2.7545	-20.84656
2.755	2.71912
2.7555	28.19824
2.756	54.38232
2.7565	61.73401
2.757	49.14551
2.7575	24.57275
2.758	-0.40283
2.7585	-11.38
2.759	-17.92603
2.7595	-20.34302
2.76	-24.77417
2.7605	-10.37292
2.761	0.50354
2.7615	25.68054
2.762	49.0448
2.7625	73.01331
2.763	76.53809
2.7635	79.76074
2.764	89.63013
2.7645	108.05969
2.765	134.04236
2.7655	153.3783
2.766	176.94397
2.7665	173.92273
2.767	165.26184
2.7675	134.94873
2.768	86.30676
2.7685	27.99683
2.769	-8.05664
2.7695	-24.06921
2.77	-40.38391
2.7705	-42.8009
2.771	-23.76709
2.7715	-7.25098
2.772	12.99133
2.7725	26.08337
2.773	39.77966
2.7735	51.5625
2.774	63.64746
2.7745	76.23596
2.775	81.67419
2.7755	84.19189
2.776	90.5365
2.7765	87.51526
2.777	81.17065
2.7775	58.41064
2.778	46.5271
2.7785	15.91187
2.779	-39.98108
2.7795	-91.54358
2.78	-126.48926
2.7805	-152.27051
2.781	-189.43176
2.7815	-221.15479
2.782	-235.1532
2.7825	-238.47656
2.783	-238.07373
2.7835	-241.29639
2.784	-232.43408
2.7845	-207.76062
2.785	-163.65051
2.7855	-106.44836
2.786	-54.68445
2.7865	-2.61841
2.787	57.30286
2.7875	120.34607
2.788	177.44751
2.7885	214.70947
2.789	244.0155
2.7895	257.40967
2.79	245.02258
2.7905	167.57812
2.791	90.13367
2.7915	12.28638
2.792	-41.59241
2.7925	-79.66003
2.793	-99.90234
2.7935	-122.15881
2.794	-127.39563
2.7945	-114.60571
2.795	-59.31702
2.7955	-8.56018
2.796	34.94568
2.7965	81.06995
2.797	113.69934
2.7975	136.86218
2.798	167.37671
2.7985	181.77795
2.799	180.26733
2.7995	182.3822
2.8	177.14539
2.8005	138.87634
2.801	86.91101
2.8015	45.41931
2.802	17.42249
2.8025	-28.60107
2.803	-79.66003
2.8035	-134.64661
2.804	-178.45459
2.8045	-195.57495
2.805	-210.98328
2.8055	-224.57886
2.806	-201.81885
2.8065	-175.73547
2.807	-138.57422
2.8075	-89.42871
2.808	-40.48462
2.8085	9.86938
2.809	60.4248
2.8095	111.28235
2.81	150.75989
2.8105	148.64502
2.811	132.22961
2.8115	97.88818
2.812	80.96924
2.8125	77.34375
2.813	75.32959
2.8135	65.25879
2.814	36.15417
2.8145	32.83081
2.815	55.49011
2.8155	78.25012
2.816	103.93066
2.8165	113.49792
2.817	126.28784
2.8175	147.1344
2.818	154.48608
2.8185	161.73706
2.819	151.76697
2.8195	113.1958
2.82	83.38623
2.8205	53.27454
2.821	26.88904
2.8215	-17.32178
2.822	-57.10144
2.8225	-73.51685
2.823	-71.7041
2.8235	-83.08411
2.824	-92.24854
2.8245	-75.73242
2.825	-43.60657
2.8255	-17.22107
2.826	7.45239
2.8265	22.96143
2.827	16.3147
2.8275	18.22815
2.828	23.16284
2.8285	24.47205
2.829	25.27771
2.8295	23.8678
2.83	18.02673
2.8305	23.66638
2.831	32.02515
2.8315	37.06055
2.832	26.78833
2.8325	11.88354
2.833	18.42957
2.8335	30.31311
2.834	36.35559
2.8345	32.7301
2.835	-15.30762
2.8355	-86.10535
2.836	-130.31616
2.8365	-151.36414
2.837	-158.91724
2.8375	-175.63477
2.838	-192.75513
2.8385	-181.17371
2.839	-145.22095
2.8395	-113.39722
2.84	-97.28394
2.8405	-66.36658
2.841	-28.50037
2.8415	1.00708
2.842	26.98975
2.8425	44.41223
2.843	39.77966
2.8435	46.02356
2.844	56.29578
2.8445	53.37524
2.845	69.38782
2.8455	81.37207
2.846	96.8811
2.8465	97.18323
2.847	76.13525
2.8475	48.84338
2.848	18.53027
2.8485	13.89771
2.849	24.47205
2.8495	27.59399
2.85	23.46497
2.8505	19.73877
2.851	14.60266
2.8515	19.53735
2.852	26.98975
2.8525	38.47046
2.853	56.49719
2.8535	68.07861
2.854	66.87012
2.8545	58.51135
2.855	65.3595
2.8555	68.68286
2.856	70.99915
2.8565	52.26746
2.857	13.19275
2.8575	-16.41541
2.858	-37.66479
2.8585	-54.18091
2.859	-59.51843
2.8595	-63.44604
2.86	-76.84021
2.8605	-86.10535
2.861	-89.93225
2.8615	-95.67261
2.862	-105.34058
2.8625	-108.76465
2.863	-98.79456
2.8635	-82.58057
2.864	-65.86304
2.8645	-30.41382
2.865	8.96301
2.8655	44.11011
2.866	52.771
2.8665	28.60107
2.867	-15.20691
2.8675	-66.6687
2.868	-92.44995
2.8685	-116.31775
2.869	-129.00696
2.8695	-121.25244
2.87	-100.30518
2.8705	-70.3949
2.871	-45.52002
2.8715	-29.50745
2.872	-8.7616
2.8725	13.99841
2.873	31.21948
2.8735	46.5271
2.874	55.79224
2.8745	72.50977
2.875	71.40198
2.8755	51.76392
2.876	5.23682
2.8765	-9.06372
2.877	14.60266
2.8775	25.07629
2.878	40.58533
2.8785	78.75366
2.879	129.20837
2.8795	158.01086
2.88	173.01636
2.8805	184.29565
2.881	202.12097
2.8815	205.0415
2.882	207.25708
2.8825	211.2854
2.883	196.88416
2.8835	175.63477
2.884	137.76855
2.8845	114.505
2.885	89.93225
2.8855	37.16125
2.886	1.40991
2.8865	-11.17859
2.887	-18.02673
2.8875	-24.27063
2.888	-46.22498
2.8885	-67.57507
2.889	-76.7395
2.8895	-68.98499
2.89	-57.40356
2.8905	-42.49878
2.891	-15.1062
2.8915	9.06372
2.892	27.19116
2.8925	20.64514
2.893	5.23682
2.8935	-20.04089
2.894	-49.44763
2.8945	-64.85596
2.895	-77.948
2.8955	-91.64429
2.896	-101.31226
2.8965	-98.69385
2.897	-117.52625
2.8975	-146.83228
2.898	-160.72998
2.8985	-143.4082
2.899	-110.07385
2.8995	-69.28711
2.9	-28.9032
2.9005	-19.63806
2.901	3.42407
2.9015	46.42639
2.902	75.73242
2.9025	83.68835
2.903	72.71118
2.9035	50.354
2.904	24.27063
2.9045	5.23682
2.905	1.71204
2.9055	19.53735
2.906	24.27063
2.9065	17.72461
2.907	30.81665
2.9075	63.14392
2.908	98.19031
2.9085	118.83545
2.909	116.01562
2.9095	107.05261
2.91	112.49084
2.9105	122.66235
2.911	114.60571
2.9115	55.3894
2.912	-11.48071
2.9125	-47.93701
2.913	-72.50977
2.9135	-82.17773
2.914	-86.50818
2.9145	-112.69226
2.915	-109.3689
2.9155	-84.39331
2.916	-44.21082
2.9165	-13.99841
2.917	-6.84814
2.9175	7.95593
2.918	12.99133
2.9185	6.64673
2.919	6.74744
2.9195	10.47363
2.92	6.2439
2.9205	-58.91418
2.921	-122.25952
2.9215	-158.5144
2.922	-183.5907
2.9225	-182.98645
2.923	-174.8291
2.9235	-144.31458
2.924	-91.04004
2.9245	-43.10303
2.925	-19.23523
2.9255	1.2085
2.926	29.00391
2.9265	53.77808
2.927	68.17932
2.9275	91.34216
2.928	89.328
2.9285	82.27844
2.929	86.40747
2.9295	83.18481
2.93	84.09119
2.9305	79.76074
2.931	76.43738
2.9315	92.55066
2.932	102.42004
2.9325	98.0896
2.933	117.32483
2.9335	116.61987
2.934	111.78589
2.9345	90.63721
2.935	31.82373
2.9355	-22.55859
2.936	-58.91418
2.9365	-63.24463
2.937	-59.82056
2.9375	-66.56799
2.938	-74.42322
2.9385	-58.71277
2.939	-37.36267
2.9395	-20.94727
2.94	-28.60107
2.9405	-39.07471
2.941	-45.41931
2.9415	-32.42798
2.942	-38.36975
2.9425	-67.97791
2.943	-65.86304
2.9435	-47.53418
2.944	-50.75684
2.9445	-102.42004
2.945	-143.00537
2.9455	-160.83069
2.946	-157.30591
2.9465	-150.55847
2.947	-151.36414
2.9475	-144.51599
2.948	-136.45935
2.9485	-133.53882
2.949	-116.82129
2.9495	-76.13525
2.95	-3.12195
2.9505	86.20605
2.951	175.33264
2.9515	246.73462
2.952	313.00049
2.9525	371.51184
2.953	409.07593
2.9535	403.13416
2.954	353.78723
2.9545	317.23022
2.955	269.49463
2.9555	216.01868
2.956	164.15405
2.9565	103.93066
2.957	75.4303
2.9575	38.77258
2.958	18.63098
2.9585	-1.10779
2.959	-13.59558
2.9595	-10.27222
2.96	6.2439
2.9605	2.92053
2.961	13.39417
2.9615	11.98425
2.962	-5.43823
2.9625	-9.76868
2.963	-6.94885
2.9635	7.45239
2.964	11.88354
2.9645	17.01965
2.965	5.33752
2.9655	-8.56018
2.966	-25.47913
2.9665	-53.87878
2.967	-86.20605
2.9675	-109.87244
2.968	-115.91492
2.9685	-124.57581
2.969	-114.80713
2.9695	-105.74341
2.97	-92.44995
2.9705	-74.62463
2.971	-69.1864
2.9715	-59.21631
2.972	-27.6947
2.9725	-6.54602
2.973	18.12744
2.9735	39.67896
2.974	60.72693
2.9745	73.01331
2.975	79.76074
2.9755	83.58765
2.976	84.09119
2.9765	88.52234
2.977	101.31226
2.9775	115.51208
2.978	130.51758
2.9785	135.8551
2.979	125.68359
2.9795	118.02979
2.98	98.69385
2.9805	58.71277
2.981	0.10071
2.9815	-63.04321
2.982	-107.55615
2.9825	-126.89209
2.983	-132.33032
2.9835	-114.00146
2.984	-93.85986
2.9845	-62.43896
2.985	-19.63806
2.9855	24.47205
2.986	30.81665
2.9865	30.51453
2.987	25.98267
2.9875	21.75293
2.988	31.4209
2.9885	35.95276
2.989	28.29895
2.9895	36.4563
2.99	31.4209
2.9905	18.63098
2.991	12.18567
2.9915	-2.71912
2.992	-6.84814
2.9925	-7.45239
2.993	-9.86938
2.9935	-21.75293
2.994	-26.28479
2.9945	-21.45081
2.995	-6.44531
2.9955	-18.93311
2.996	-41.18958
2.9965	-42.7002
2.997	-47.7356
2.9975	-49.44763
2.998	-40.48462
2.9985	-40.58533
2.999	-62.13684
2.9995	-73.31543
3	-67.27295
3.0005	-56.39648
3.001	-46.62781
3.0015	-40.98816
3.002	-51.66321
3.0025	-50.85754
3.003	-33.9386
3.0035	-9.46655
3.004	22.6593
3.0045	41.79382
3.005	58.10852
3.0055	71.30127
3.006	89.63013
3.0065	116.72058
3.007	127.09351
3.0075	115.51208
3.008	84.99756
3.0085	67.97791
3.009	53.97949
3.0095	36.4563
3.01	9.76868
3.0105	-19.73877
3.011	-49.74976
3.0115	-87.91809
3.012	-122.76306
3.0125	-173.11707
3.013	-200.30823
3.0135	-191.64734
3.014	-181.57654
3.0145	-159.82361
3.015	-132.12891
3.0155	-117.72766
3.016	-97.08252
3.0165	-55.18799
3.017	-25.27771
3.0175	19.03381
3.018	54.18091
3.0185	83.18481
3.019	107.65686
3.0195	124.17297
3.02	132.43103
3.0205	138.67493
3.021	129.30908
3.0215	117.52625
3.022	70.49561
3.0225	5.94177
3.023	-52.67029
3.0235	-85.5011
3.024	-103.42712
3.0245	-95.77332
3.025	-106.54907
3.0255	-94.46411
3.026	-62.03613
3.0265	-14.19983
3.027	50.05188
3.0275	114.00146
3.028	152.27051
3.0285	180.16663
3.029	184.19495
3.0295	204.43726
3.03	218.8385
3.0305	220.14771
3.031	209.47266
3.0315	194.36646
3.032	182.58362
3.0325	165.46326
3.033	129.71191
3.0335	71.40198
3.034	16.11328
3.0345	-8.35876
3.035	-5.63965
3.0355	-4.33044
3.036	-17.32178
3.0365	-34.34143
3.037	-70.89844
3.0375	-82.68127
3.038	-82.17773
3.0385	-68.38074
3.039	-66.06445
3.0395	-68.68286
3.04	-51.86462
3.0405	-53.87878
3.041	-59.51843
3.0415	-49.85046
3.042	-64.55383
3.0425	-87.51526
3.043	-86.00464
3.0435	-63.64746
3.044	-35.54993
3.0445	-5.74036
3.045	18.02673
3.0455	40.2832
3.046	53.97949
3.0465	73.91968
3.047	81.17065
3.0475	91.64429
3.048	90.23438
3.0485	93.35632
3.049	69.28711
3.0495	19.94019
3.05	-24.87488
3.0505	-56.29578
3.051	-68.58215
3.0515	-67.47437
3.052	-67.77649
3.0525	-58.91418
3.053	-49.64905
3.0535	-36.25488
3.054	-13.59558
3.0545	-12.48779
3.055	-49.0448
3.0555	-100.30518
3.056	-136.25793
3.0565	-140.78979
3.057	-131.92749
3.0575	-135.15015
3.058	-148.94714
3.0585	-153.78113
3.059	-142.19971
3.0595	-128.20129
3.06	-86.10535
3.0605	-36.75842
3.061	22.35718
3.0615	77.34375
3.062	98.19031
3.0625	101.41296
3.063	157.2052
3.0635	207.15637
3.064	229.31213
3.0645	245.224
3.065	240.08789
3.0655	223.26965
3.066	206.85425
3.0665	176.23901
3.067	116.01562
3.0675	41.59241
3.068	-27.99683
3.0685	-67.37366
3.069	-81.17065
3.0695	-84.2926
3.07	-65.15808
3.0705	-38.16833
3.071	-2.61841
3.0715	46.12427
3.072	82.07703
3.0725	118.73474
3.073	138.57422
3.0735	153.3783
3.074	155.59387
3.0745	134.64661
3.075	123.87085
3.0755	115.51208
3.076	95.06836
3.0765	58.81348
3.077	17.82532
3.0775	-12.48779
3.078	-36.4563
3.0785	-50.85754
3.079	-53.07312
3.0795	-46.92993
3.08	-34.03931
3.0805	-24.06921
3.081	1.71204
3.0815	1.2085
3.082	4.12903
3.0825	-8.96301
3.083	-11.17859
3.0835	-20.54443
3.084	-39.07471
3.0845	-54.88586
3.085	-71.7041
3.0855	-87.41455
3.086	-93.85986
3.0865	-107.35474
3.087	-200.61035
3.0875	-312.89978
3.088	-387.92725
3.0885	-441.30249
3.089	-452.07825
3.0895	-446.03577
3.09	-405.04761
3.0905	-330.82581
3.091	-235.45532
3.0915	-118.02979
3.092	-9.26514
3.0925	110.98022
3.093	231.52771
3.0935	312.39624
3.094	377.75574
3.0945	412.29858
3.095	430.92957
3.0955	428.71399
3.096	423.47717
3.0965	386.51733
3.097	322.56775
3.0975	258.41675
3.098	178.85742
3.0985	96.17615
3.099	21.14868
3.0995	-17.42249
3.1	-39.67896
3.1005	-62.9425
3.101	-56.79932
3.1015	-52.36816
3.102	-51.66321
3.1025	-52.97241
3.103	-72.81189
3.1035	-91.64429
3.104	-96.7804
3.1045	-99.80164
3.105	-92.24854
3.1055	-95.37048
3.106	-121.55457
3.1065	-136.86218
3.107	-161.33423
3.1075	-158.71582
3.108	-154.18396
3.1085	-160.52856
3.109	-148.94714
3.1095	-134.94873
3.11	-83.28552
3.1105	-19.43665
3.111	37.66479
3.1115	70.69702
3.112	119.54041
3.1125	174.62769
3.113	214.91089
3.1135	234.75037
3.114	218.03284
3.1145	166.87317
3.115	98.29102
3.1155	68.88428
3.116	59.92126
3.1165	50.05188
3.117	30.91736
3.1175	9.97009
3.118	5.63965
3.1185	-15.60974
3.119	-19.94019
3.1195	-9.56726
3.12	-3.02124
3.1205	10.37292
3.121	34.14001
3.1215	49.34692
3.122	62.33826
3.1225	77.04163
3.123	84.49402
3.1235	66.06445
3.124	45.01648
3.1245	25.27771
3.125	15.71045
3.1255	17.6239
3.126	34.74426
3.1265	43.70728
3.127	20.64514
3.1275	3.52478
3.128	7.35168
3.1285	11.78284
3.129	21.45081
3.1295	30.71594
3.13	42.59949
3.1305	52.26746
3.131	50.05188
3.1315	45.92285
3.132	35.95276
3.1325	22.25647
3.133	17.72461
3.1335	6.94885
3.134	-48.13843
3.1345	-103.52783
3.135	-123.36731
3.1355	-135.65369
3.136	-135.45227
3.1365	-112.39014
3.137	-125.28076
3.1375	-172.81494
3.138	-201.61743
3.1385	-199.80469
3.139	-160.62927
3.1395	-111.08093
3.14	-57.60498
3.1405	-7.95593
3.141	23.96851
3.1415	56.49719
3.142	90.5365
3.1425	107.35474
3.143	112.79297
3.1435	110.98022
3.144	119.23828
3.1445	109.3689
3.145	72.20764
3.1455	39.47754
3.146	15.40833
3.1465	-18.93311
3.147	-41.39099
3.1475	-52.36816
3.148	-104.13208
3.1485	-175.13123
3.149	-206.55212
3.1495	-195.67566
3.15	-147.63794
3.1505	-122.15881
3.151	-85.70251
3.1515	-38.974
3.152	29.30603
3.1525	95.67261
3.153	145.8252
3.1535	175.73547
3.154	166.77246
3.1545	130.11475
3.155	97.88818
3.1555	75.22888
3.156	81.06995
3.1565	70.29419
3.157	78.55225
3.1575	79.76074
3.158	98.69385
3.1585	117.22412
3.159	134.84802
3.1595	148.3429
3.16	154.08325
3.1605	171.20361
3.161	178.45459
3.1615	175.33264
3.162	165.66467
3.1625	151.16272
3.163	113.29651
3.1635	63.74817
3.164	42.09595
3.1645	0.80566
3.165	-38.47046
3.1655	-64.75525
3.166	-73.41614
3.1665	-94.56482
3.167	-108.1604
3.1675	-107.25403
3.168	-76.7395
3.1685	-66.36658
3.169	-58.10852
3.1695	-69.68994
3.17	-67.97791
3.1705	-82.07703
3.171	-117.22412
3.1715	-116.01562
3.172	-107.25403
3.1725	-107.25403
3.173	-129.81262
3.1735	-135.55298
3.174	-108.76465
3.1745	-79.55933
3.175	-54.88586
3.1755	-35.14709
3.176	-29.20532
3.1765	-31.32019
3.177	-15.30762
3.1775	-30.41382
3.178	-32.22656
3.1785	-19.33594
3.179	22.15576
3.1795	50.15259
3.18	54.68445
3.1805	42.7002
3.181	50.75684
3.1815	61.93542
3.182	69.89136
3.1825	82.07703
3.183	96.27686
3.1835	119.4397
3.184	118.53333
3.1845	53.57666
3.185	-1.2085
3.1855	-25.68054
3.186	-18.53027
3.1865	-15.00549
3.187	-0.50354
3.1875	20.04089
3.188	43.60657
3.1885	41.99524
3.189	38.36975
3.1895	37.16125
3.19	-8.56018
3.1905	-59.92126
3.191	-98.0896
3.1915	-127.49634
3.192	-167.98096
3.1925	-218.23425
3.193	-260.53162
3.1935	-253.88489
3.194	-253.48206
3.1945	-246.5332
3.195	-221.75903
3.1955	-186.61194
3.196	-141.29333
3.1965	-84.39331
3.197	-2.61841
3.1975	82.9834
3.198	132.63245
3.1985	171.80786
3.199	198.6969
3.1995	213.90381
3.2	238.17444
3.2005	243.51196
3.201	248.04382
3.2015	264.66064
3.202	259.22241
3.2025	236.86523
3.203	227.29797
3.2035	211.08398
3.204	153.88184
3.2045	65.66162
3.205	-7.15027
3.2055	-35.14709
3.206	-62.9425
3.2065	-110.37598
3.207	-138.57422
3.2075	-143.91174
3.208	-110.47668
3.2085	-57.40356
3.209	-2.81982
3.2095	41.29028
3.21	74.42322
3.2105	87.91809
3.211	102.01721
3.2115	92.85278
3.212	56.39648
3.2125	9.16443
3.213	-3.32336
3.2135	1.10779
3.214	-1.10779
3.2145	-2.01416
3.215	-2.01416
3.2155	5.0354
3.216	-10.17151
3.2165	-16.11328
3.217	-20.94727
3.2175	-31.82373
3.218	-67.67578
3.2185	-119.13757
3.219	-131.02112
3.2195	-125.18005
3.22	-145.22095
3.2205	-178.25317
3.221	-194.87
3.2215	-230.41992
3.222	-233.64258
3.2225	-189.73389
3.223	-128.60413
3.2235	-77.34375
3.224	-17.22107
3.2245	39.47754
3.225	111.9873
3.2255	183.38928
3.226	238.37585
3.2265	256.20117
3.227	250.86365
3.2275	248.64807
3.228	262.44507
3.2285	274.1272
3.229	290.13977
3.2295	306.15234
3.23	284.60083
3.2305	235.35461
3.231	166.0675
3.2315	92.34924
3.232	10.97717
3.2325	-63.44604
3.233	-106.44836
3.2335	-133.84094
3.234	-160.42786
3.2345	-177.24609
3.235	-227.29797
3.2355	-306.05164
3.236	-353.88794
3.2365	-361.64246
3.237	-337.47253
3.2375	-303.83606
3.238	-267.68188
3.2385	-205.0415
3.239	-122.66235
3.2395	-29.91028
3.24	89.93225
3.2405	185.50415
3.241	231.72913
3.2415	266.47339
3.242	311.08704
3.2425	376.54724
3.243	409.57947
3.2435	400.61646
3.244	356.50635
3.2445	314.51111
3.245	238.57727
3.2455	163.95264
3.246	98.89526
3.2465	23.26355
3.247	-45.62073
3.2475	-83.88977
3.248	-103.02429
3.2485	-83.68835
3.249	-82.27844
3.2495	-124.67651
3.25	-142.099
3.2505	-124.57581
3.251	-95.26978
3.2515	-81.17065
3.252	-93.96057
3.2525	-107.45544
3.253	-105.23987
3.2535	-108.86536
3.254	-105.13916
3.2545	-85.09827
3.255	-62.13684
3.2555	-38.06763
3.256	-2.11487
3.2565	7.75452
3.257	20.94727
3.2575	15.71045
3.258	-13.39417
3.2585	-25.68054
3.259	-12.08496
3.2595	-15.20691
3.26	-23.96851
3.2605	-18.22815
3.261	12.28638
3.2615	37.26196
3.262	43.00232
3.2625	37.36267
3.263	47.7356
3.2635	67.47437
3.264	92.04712
3.2645	114.30359
3.265	124.4751
3.2655	123.97156
3.266	115.31067
3.2665	102.42004
3.267	103.32642
3.2675	85.60181
3.268	80.06287
3.2685	89.52942
3.269	105.13916
3.2695	103.82996
3.27	105.6427
3.2705	99.2981
3.271	63.64746
3.2715	31.62231
3.272	6.2439
3.2725	-41.79382
3.273	-126.38855
3.2735	-213.90381
3.274	-267.98401
3.2745	-287.21924
3.275	-302.32544
3.2755	-365.77148
3.276	-385.10742
3.2765	-363.35449
3.277	-329.01306
3.2775	-292.95959
3.278	-252.27356
3.2785	-187.01477
3.279	-109.16748
3.2795	-17.32178
3.28	59.1156
3.2805	97.28394
3.281	101.9165
3.2815	123.36731
3.282	151.56555
3.2825	187.11548
3.283	223.26965
3.2835	234.85107
3.284	252.17285
3.2845	265.26489
3.285	252.97852
3.2855	238.57727
3.286	199.20044
3.2865	114.20288
3.287	24.47205
3.2875	-50.354
3.288	-106.34766
3.2885	-173.82202
3.289	-229.21143
3.2895	-287.31995
3.29	-286.31287
3.2905	-244.21692
3.291	-171.90857
3.2915	-74.62463
3.292	9.97009
3.2925	83.48694
3.293	126.28784
3.2935	144.91882
3.294	160.62927
3.2945	170.59937
3.295	114.505
3.2955	9.76868
3.296	-87.11243
3.2965	-124.77722
3.297	-144.01245
3.2975	-140.48767
3.298	-87.71667
3.2985	15.71045
3.299	118.53333
3.2995	182.68433
3.3	245.52612
3.3005	308.46863
3.301	351.67236
3.3015	379.46777
3.302	394.57397
3.3025	381.0791
3.303	360.03113
3.3035	315.7196
3.304	257.61108
3.3045	197.58911
3.305	159.21936
3.3055	128.10059
3.306	89.02588
3.3065	32.93152
3.307	-23.36426
3.3075	-65.46021
3.308	-98.89526
3.3085	-129.40979
3.309	-192.35229
3.3095	-250.96436
3.31	-278.75977
3.3105	-298.90137
3.311	-299.90845
3.3115	-281.78101
3.312	-273.22083
3.3125	-259.22241
3.313	-214.91089
3.3135	-180.87158
3.314	-135.25085
3.3145	-113.59863
3.315	-70.3949
3.3155	-30.81665
3.316	7.25098
3.3165	24.97559
3.317	49.95117
3.3175	77.74658
3.318	93.96057
3.3185	73.51685
3.319	55.18799
3.3195	70.69702
3.32	69.99207
3.3205	59.82056
3.321	44.91577
3.3215	27.79541
3.322	32.7301
3.3225	46.92993
3.323	49.85046
3.3235	51.86462
3.324	57.30286
3.3245	75.73242
3.325	102.21863
3.3255	102.42004
3.326	112.39014
3.3265	105.6427
3.327	119.94324
3.3275	132.22961
3.328	141.59546
3.3285	134.34448
3.329	111.08093
3.3295	78.75366
3.33	-9.56726
3.3305	-109.57031
3.331	-180.06592
3.3315	-236.86523
3.332	-278.15552
3.3325	-285.5072
3.333	-273.42224
3.3335	-231.93054
3.334	-191.04309
3.3345	-182.3822
3.335	-148.4436
3.3355	-124.37439
3.336	-117.12341
3.3365	-92.14783
3.337	-61.83472
3.3375	-16.41541
3.338	10.17151
3.3385	47.33276
3.339	58.51135
3.3395	75.02747
3.34	102.11792
3.3405	131.12183
3.341	123.2666
3.3415	63.54675
3.342	45.82214
3.3425	18.12744
3.343	-21.3501
3.3435	-36.05347
3.344	-7.65381
3.3445	51.96533
3.345	92.34924
3.3455	35.54993
3.346	-19.03381
3.3465	-40.48462
3.347	-39.37683
3.3475	-12.38708
3.348	23.76709
3.3485	42.29736
3.349	27.79541
3.3495	3.02124
3.35	-36.75842
3.3505	-71.90552
3.351	-100.70801
3.3515	-108.56323
3.352	-61.83472
3.3525	-13.69629
3.353	27.6947
3.3535	79.2572
3.354	107.25403
3.3545	138.07068
3.355	180.87158
3.3555	236.76453
3.356	277.55127
3.3565	307.66296
3.357	319.34509
3.3575	270.50171
3.358	228.00293
3.3585	176.64185
3.359	126.08643
3.3595	73.21472
3.36	11.88354
3.3605	-49.34692
3.361	-128.50342
3.3615	-170.39795
3.362	-177.3468
3.3625	-188.12256
3.363	-214.20593
3.3635	-203.7323
3.364	-155.09033
3.3645	-89.22729
3.365	-9.56726
3.3655	72.20764
3.366	123.36731
3.3665	154.6875
3.367	191.54663
3.3675	221.96045
3.368	232.43408
3.3685	204.43726
3.369	184.59778
3.3695	163.75122
3.37	127.49634
3.3705	85.70251
3.371	16.41541
3.3715	-95.97473
3.372	-212.09106
3.3725	-300.41199
3.373	-343.21289
3.3735	-346.93909
3.374	-379.36707
3.3745	-411.09009
3.375	-392.86194
3.3755	-332.33643
3.376	-231.32629
3.3765	-130.11475
3.377	-43.00232
3.3775	36.35559
3.378	102.31934
3.3785	116.41846
3.379	150.05493
3.3795	174.42627
3.38	192.85583
3.3805	229.51355
3.381	217.12646
3.3815	146.93298
3.382	72.40906
3.3825	6.14319
3.383	-11.2793
3.3835	1.3092
3.384	-2.81982
3.3845	-43.40515
3.385	-64.65454
3.3855	-80.36499
3.386	-83.58765
3.3865	-108.66394
3.387	-171.80786
3.3875	-260.53162
3.388	-301.8219
3.3885	-254.48914
3.389	-167.67883
3.3895	-114.80713
3.39	-93.85986
3.3905	-48.84338
3.391	22.55859
3.3915	47.63489
3.392	47.8363
3.3925	51.26038
3.393	-25.27771
3.3935	-133.3374
3.394	-210.88257
3.3945	-259.32312
3.395	-303.0304
3.3955	-326.79749
3.396	-284.50012
3.3965	-206.35071
3.397	-109.57031
3.3975	-13.39417
3.398	82.9834
3.3985	178.65601
3.399	312.29553
3.3995	384.8053
3.4	389.13574
3.4005	345.62988
3.401	298.69995
3.4015	312.59766
3.402	319.74792
3.4025	336.76758
3.403	374.13025
3.4035	398.50159
3.404	380.87769
3.4045	321.76208
3.405	242.90771
3.4055	194.46716
3.406	161.63635
3.4065	94.2627
3.407	21.75293
3.4075	-33.73718
3.408	-49.95117
3.4085	-68.48145
3.409	-89.83154
3.4095	-80.76782
3.41	-35.95276
3.4105	12.18567
3.411	64.85596
3.4115	105.94482
3.412	106.44836
3.4125	91.745
3.413	81.57349
3.4135	117.02271
3.414	146.12732
3.4145	132.12891
3.415	94.86694
3.4155	25.07629
3.416	-71.40198
3.4165	-103.32642
3.417	-110.17456
3.4175	-112.69226
3.418	-102.52075
3.4185	-85.80322
3.419	-61.6333
3.4195	-26.48621
3.42	3.42407
3.4205	-9.46655
3.421	-21.85364
3.4215	-26.08337
3.422	-57.70569
3.4225	-103.22571
3.423	-126.89209
3.4235	-119.13757
3.424	-95.37048
3.4245	-77.44446
3.425	-29.70886
3.4255	52.06604
3.426	113.59863
3.4265	141.89758
3.427	165.06042
3.4275	197.3877
3.428	214.70947
3.4285	232.53479
3.429	253.88489
3.4295	228.9093
3.43	168.38379
3.4305	105.34058
3.431	69.08569
3.4315	45.72144
3.432	-39.37683
3.4325	-213.50098
3.433	-378.96423
3.4335	-468.99719
3.434	-488.33313
3.4345	-475.14038
3.435	-444.72656
3.4355	-394.8761
3.436	-301.92261
3.4365	-207.96204
3.437	-130.61829
3.4375	-43.50586
3.438	13.797
3.4385	74.02039
3.439	135.45227
3.4395	169.18945
3.44	214.50806
3.4405	250.86365
3.441	300.71411
3.4415	303.23181
3.442	267.37976
3.4425	228.50647
3.443	172.41211
3.4435	96.67969
3.444	23.56567
3.4445	-1.3092
3.445	-42.90161
3.4455	-80.56641
3.446	-108.46252
3.4465	-117.12341
3.447	-131.02112
3.4475	-134.34448
3.448	-159.01794
3.4485	-222.16187
3.449	-267.37976
3.4495	-291.04614
3.45	-355.09644
3.4505	-359.32617
3.451	-287.62207
3.4515	-186.51123
3.452	-82.78198
3.4525	24.47205
3.453	135.95581
3.4535	253.28064
3.454	373.12317
3.4545	477.65808
3.455	520.6604
3.4555	556.71387
3.456	543.62183
3.4565	451.97754
3.457	317.33093
3.4575	199.9054
3.458	69.68994
3.4585	-75.02747
3.459	-223.97461
3.4595	-347.24121
3.46	-497.79968
3.4605	-644.22913
3.461	-714.92615
3.4615	-708.58154
3.462	-645.1355
3.4625	-563.86414
3.463	-497.79968
3.4635	-474.23401
3.464	-440.89966
3.4645	-332.73926
3.465	-221.45691
3.4655	-67.17224
3.466	147.33582
3.4665	326.89819
3.467	400.11292
3.4675	468.09082
3.468	496.38977
3.4685	501.32446
3.469	487.22534
3.4695	436.3678
3.47	338.78174
3.4705	223.97461
3.471	151.76697
3.4715	108.56323
3.472	64.45312
3.4725	60.82764
3.473	99.19739
3.4735	153.3783
3.474	197.68982
3.4745	265.16418
3.475	339.78882
3.4755	393.6676
3.476	430.72815
3.4765	456.40869
3.477	432.03735
3.4775	337.27112
3.478	221.55762
3.4785	123.06519
3.479	67.97791
3.4795	-5.84106
3.48	-93.45703
3.4805	-120.24536
3.481	-156.70166
3.4815	-231.62842
3.482	-268.38684
3.4825	-246.4325
3.483	-212.19177
3.4835	-197.4884
3.484	-158.91724
3.4845	-92.14783
3.485	-24.27063
3.4855	35.04639
3.486	90.43579
3.4865	124.57581
3.487	147.23511
3.4875	177.54822
3.488	195.07141
3.4885	203.63159
3.489	193.35938
3.4895	181.073
3.49	148.14148
3.4905	112.49084
3.491	64.75525
3.4915	31.72302
3.492	8.66089
3.4925	-49.74976
3.493	-76.03455
3.4935	-82.17773
3.494	-66.56799
3.4945	-38.77258
3.495	-31.4209
3.4955	-37.16125
3.496	-38.26904
3.4965	-37.86621
3.497	-42.59949
3.4975	-35.65063
3.498	-26.28479
3.4985	-28.50037
3.499	-45.72144
3.4995	-103.72925
3.5	-165.46326
3.5005	-213.29956
3.501	-262.34436
3.5015	-281.6803
3.502	-303.53394
3.5025	-279.46472
3.503	-273.01941
3.5035	-250.05798
3.504	-199.09973
3.5045	-139.88342
3.505	-75.73242
3.5055	-29.50745
3.506	12.89062
3.5065	68.88428
3.507	135.25085
3.5075	191.1438
3.508	243.61267
3.5085	300.6134
3.509	344.52209
3.5095	348.75183
3.51	318.84155
3.5105	292.05322
3.511	247.54028
3.5115	168.4845
3.512	77.34375
3.5125	-7.45239
3.513	-64.45312
3.5135	-92.44995
3.514	-83.68835
3.5145	-43.30444
3.515	10.0708
3.5155	55.2887
3.516	91.44287
3.5165	90.03296
3.517	78.65295
3.5175	68.98499
3.518	30.71594
3.5185	-10.97717
3.519	-67.47437
3.5195	-110.87952
3.52	-148.94714
3.5205	-193.25867
3.521	-218.63708
3.5215	-220.65125
3.522	-279.86755
3.5225	-353.08228
3.523	-380.17273
3.5235	-412.70142
3.524	-384.70459
3.5245	-298.49854
3.525	-236.66382
3.5255	-178.65601
3.526	-91.8457
3.5265	12.68921
3.527	101.21155
3.5275	167.07458
3.528	164.85901
3.5285	147.23511
3.529	121.9574
3.5295	108.1604
3.53	90.63721
3.5305	28.50037
3.531	-34.44214
3.5315	-97.48535
3.532	-196.07849
3.5325	-256.10046
3.533	-306.25305
3.5335	-309.07288
3.534	-339.08386
3.5345	-459.73206
3.535	-639.99939
3.5355	-728.32031
3.536	-745.44067
3.5365	-732.34863
3.537	-687.03003
3.5375	-567.38892
3.538	-448.75488
3.5385	-258.51746
3.539	-59.92126
3.5395	135.95581
3.54	326.39465
3.5405	461.84692
3.541	521.8689
3.5415	570.00732
3.542	578.5675
3.5425	490.04517
3.543	373.526
3.5435	350.56458
3.544	311.48987
3.5445	235.95886
3.545	199.30115
3.5455	222.26257
3.546	208.26416
3.5465	193.35938
3.547	223.26965
3.5475	254.0863
3.548	311.18774
3.5485	422.5708
3.549	538.78784
3.5495	643.02063
3.55	707.07092
3.5505	702.23694
3.551	647.75391
3.5515	559.6344
3.552	449.25842
3.5525	352.57874
3.553	250.05798
3.5535	131.22253
3.554	19.73877
3.5545	-70.3949
3.555	-155.59387
3.5555	-194.76929
3.556	-189.43176
3.5565	-310.48279
3.557	-439.69116
3.5575	-482.59277
3.558	-474.23401
3.5585	-454.49524
3.559	-375.94299
3.5595	-271.30737
3.56	-136.96289
3.5605	3.12195
3.561	93.25562
3.5615	123.2666
3.562	135.8551
3.5625	114.20288
3.563	35.44922
3.5635	21.75293
3.564	9.66797
3.5645	-13.29346
3.565	8.45947
3.5655	45.52002
3.566	60.3241
3.5665	50.15259
3.567	55.79224
3.5675	72.30835
3.568	69.48853
3.5685	79.15649
3.569	93.96057
3.5695	123.97156
3.57	169.08875
3.5705	233.9447
3.571	252.97852
3.5715	251.5686
3.572	267.48047
3.5725	232.83691
3.573	144.81812
3.5735	41.59241
3.574	-53.17383
3.5745	-224.37744
3.575	-328.91235
3.5755	-378.46069
3.576	-390.94849
3.5765	-398.80371
3.577	-485.81543
3.5775	-530.83191
3.578	-518.04199
3.5785	-457.11365
3.579	-338.37891
3.5795	-208.66699
3.58	-110.87952
3.5805	-58.51135
3.581	43.10303
3.5815	142.099
3.582	208.66699
3.5825	280.4718
3.583	351.26953
3.5835	442.00745
3.584	498.30322
3.5845	503.84216
3.585	510.38818
3.5855	496.89331
3.586	423.17505
3.5865	273.42224
3.587	138.57422
3.5875	55.18799
3.588	-9.66797
3.5885	-223.37036
3.589	-537.17651
3.5895	-697.00012
3.59	-742.0166
3.5905	-748.56262
3.591	-729.62952
3.5915	-723.68774
3.592	-712.10632
3.5925	-620.26062
3.593	-461.5448
3.5935	-269.1925
3.594	-90.03296
3.5945	83.99048
3.595	236.86523
3.5955	395.48035
3.596	557.92236
3.5965	675.95215
3.597	749.36829
3.5975	772.93396
3.598	755.31006
3.5985	727.41394
3.599	735.47058
3.5995	750.67749
3.6	700.42419
3.6005	620.46204
3.601	555.00183
3.6015	484.10339
3.602	421.56372
3.6025	344.52209
3.603	250.86365
3.6035	156.60095
3.604	89.02588
3.6045	30.71594
3.605	6.3446
3.6055	-19.43665
3.606	-65.25879
3.6065	-115.51208
3.607	-115.51208
3.6075	-97.18323
3.608	-62.03613
3.6085	-90.83862
3.609	-148.14148
3.6095	-220.55054
3.61	-228.10364
3.6105	-237.57019
3.611	-271.10596
3.6115	-266.6748
3.612	-289.93835
3.6125	-375.23804
3.613	-476.34888
3.6135	-554.29688
3.614	-653.49426
3.6145	-737.68616
3.615	-816.33911
3.6155	-852.6947
3.616	-832.75452
3.6165	-774.646
3.617	-684.51233
3.6175	-543.72253
3.618	-386.31592
3.6185	-204.23584
3.619	-24.47205
3.6195	120.54749
3.62	261.03516
3.6205	382.2876
3.621	428.61328
3.6215	435.86426
3.622	432.84302
3.6225	369.09485
3.623	259.1217
3.6235	127.79846
3.624	-86.30676
3.6245	-425.39062
3.625	-685.51941
3.6255	-788.44299
3.626	-796.0968
3.6265	-688.54065
3.627	-590.95459
3.6275	-522.47314
3.628	-446.23718
3.6285	-371.91467
3.629	-236.36169
3.6295	-38.06763
3.63	140.58838
3.6305	261.13586
3.631	369.19556
3.6315	504.245
3.632	653.09143
3.6325	714.42261
3.633	823.38867
3.6335	952.29492
3.634	1018.05725
3.6345	1004.36096
3.635	945.24536
3.6355	947.05811
3.636	900.02747
3.6365	878.37524
3.637	871.32568
3.6375	872.03064
3.638	853.9032
3.6385	773.53821
3.639	636.47461
3.6395	542.71545
3.64	410.98938
3.6405	141.09192
3.641	-141.59546
3.6415	-342.00439
3.642	-426.39771
3.6425	-490.54871
3.643	-585.31494
3.6435	-658.02612
3.644	-691.05835
3.6445	-658.12683
3.645	-589.14185
3.6455	-461.5448
3.646	-438.18054
3.6465	-387.82654
3.647	-270.70312
3.6475	-144.71741
3.648	-31.72302
3.6485	55.69153
3.649	101.31226
3.6495	137.66785
3.65	124.07227
3.6505	148.4436
3.651	76.23596
3.6515	-29.50745
3.652	-142.50183
3.6525	-167.98096
3.653	-188.82751
3.6535	-228.00293
3.654	-299.3042
3.6545	-362.85095
3.655	-331.22864
3.6555	-308.67004
3.656	-334.14917
3.6565	-329.11377
3.657	-264.55994
3.6575	-135.25085
3.658	-8.15735
3.6585	78.35083
3.659	166.16821
3.6595	268.28613
3.66	292.15393
3.6605	272.21375
3.661	290.94543
3.6615	346.83838
3.662	369.59839
3.6625	376.64795
3.663	380.97839
3.6635	355.29785
3.664	218.23425
3.6645	190.43884
3.665	250.56152
3.6655	296.08154
3.666	308.67004
3.6665	277.9541
3.667	206.35071
3.6675	43.10303
3.668	-155.79529
3.6685	-306.35376
3.669	-418.24036
3.6695	-532.14111
3.67	-600.11902
3.6705	-626.10168
3.671	-598.10486
3.6715	-536.16943
3.672	-459.83276
3.6725	-352.37732
3.673	-242.50488
3.6735	-89.328
3.674	65.86304
3.6745	172.41211
3.675	239.88647
3.6755	180.97229
3.676	112.28943
3.6765	76.53809
3.677	8.15735
3.6775	-57.00073
3.678	-109.57031
3.6785	-180.06592
3.679	-239.48364
3.6795	-232.23267
3.68	-146.42944
3.6805	4.02832
3.681	108.76465
3.6815	159.11865
3.682	266.87622
3.6825	410.78796
3.683	554.80042
3.6835	666.28418
3.684	695.69092
3.6845	673.23303
3.685	667.39197
3.6855	653.39355
3.686	632.24487
3.6865	496.38977
3.687	331.83289
3.6875	195.37354
3.688	85.80322
3.6885	-101.71509
3.689	-265.3656
3.6895	-283.09021
3.69	-277.45056
3.6905	-321.35925
3.691	-338.98315
3.6915	-281.78101
3.692	-165.16113
3.6925	-66.36658
3.693	37.06055
3.6935	135.95581
3.694	227.90222
3.6945	300.6134
3.695	335.65979
3.6955	333.54492
3.696	260.63232
3.6965	103.02429
3.697	-181.37512
3.6975	-423.47717
3.698	-583.40149
3.6985	-670.01038
3.699	-747.55554
3.6995	-775.14954
3.7	-749.26758
3.7005	-697.60437
3.701	-692.87109
3.7015	-671.72241
3.702	-662.25586
3.7025	-676.6571
3.703	-680.68542
3.7035	-744.13147
3.704	-793.17627
3.7045	-782.70264
3.705	-711.90491
3.7055	-641.4093
3.706	-508.17261
3.7065	-227.6001
3.707	44.51294
3.7075	123.2666
3.708	214.70947
3.7085	358.52051
3.709	516.12854
3.7095	680.98755
3.71	781.39343
3.7105	788.24158
3.711	738.69324
3.7115	596.89636
3.712	495.38269
3.7125	417.03186
3.713	376.14441
3.7135	451.17188
3.714	445.33081
3.7145	431.3324
3.715	389.43787
3.7155	358.72192
3.716	382.79114
3.7165	448.9563
3.717	538.98926
3.7175	585.01282
3.718	547.54944
3.7185	428.31116
3.719	245.12329
3.7195	51.96533
3.72	-113.90076
3.7205	-226.08948
3.721	-255.69763
3.7215	-263.35144
3.722	-193.86292
3.7225	-83.78906
3.723	13.797
3.7235	133.94165
3.724	230.82275
3.7245	348.55042
3.725	443.21594
3.7255	372.92175
3.726	262.54578
3.7265	162.54272
3.727	12.68921
3.7275	-218.03284
3.728	-435.1593
3.7285	-614.11743
3.729	-829.22974
3.7295	-1152.20032
3.73	-1358.14819
3.7305	-1350.6958
3.731	-1214.33716
3.7315	-1008.79211
3.732	-752.49023
3.7325	-434.55505
3.733	-97.38464
3.7335	202.92664
3.734	533.2489
3.7345	843.32886
3.735	1106.78101
3.7355	1264.59045
3.736	1379.49829
3.7365	1353.91846
3.737	1267.00745
3.7375	1179.99573
3.738	1034.27124
3.7385	834.97009
3.739	644.12842
3.7395	574.23706
3.74	474.83826
3.7405	205.34363
3.741	-118.33191
3.7415	-257.40967
3.742	-252.67639
3.7425	-202.92664
3.743	-154.98962
3.7435	-140.48767
3.744	-195.67566
3.7445	-381.28052
3.745	-571.31653
3.7455	-708.27942
3.746	-753.69873
3.7465	-732.04651
3.747	-723.48633
3.7475	-630.63354
3.748	-534.75952
3.7485	-498.90747
3.749	-448.85559
3.7495	-372.01538
3.75	-266.07056
3.7505	-122.96448
3.751	-45.62073
3.7515	35.65063
3.752	64.151
3.7525	75.12817
3.753	126.28784
3.7535	173.5199
3.754	170.19653
3.7545	163.5498
3.755	90.5365
3.7555	-86.10535
3.756	-164.25476
3.7565	-159.42078
3.757	-206.55212
3.7575	-307.05872
3.758	-388.93433
3.7585	-499.41101
3.759	-662.25586
3.7595	-830.84106
3.76	-964.37988
3.7605	-1046.25549
3.761	-1029.43726
3.7615	-983.71582
3.762	-894.28711
3.7625	-674.44153
3.763	-431.83594
3.7635	-148.24219
3.764	175.83618
3.7645	502.83508
3.765	656.81763
3.7655	832.5531
3.766	1101.54419
3.7665	1301.55029
3.767	1497.72949
3.7675	1665.91187
3.768	1776.58997
3.7685	1717.97791
3.769	1415.65247
3.7695	940.7135
3.77	349.25537
3.7705	-265.56702
3.771	-793.37769
3.7715	-1239.71558
3.772	-1639.12354
3.7725	-1876.29089
3.773	-1934.39941
3.7735	-1916.37268
3.774	-1739.12659
3.7745	-1401.75476
3.775	-906.47278
3.7755	-294.67163
3.776	327.09961
3.7765	900.53101
3.777	1396.92078
3.7775	1759.16748
3.778	1988.88245
3.7785	1989.88953
3.779	2006.20422
3.7795	2044.77539
3.78	2025.03662
3.7805	1883.13904
3.781	1601.25732
3.7815	1227.22778
3.782	872.63489
3.7825	593.17017
3.783	317.83447
3.7835	92.85278
3.784	-55.18799
3.7845	-181.57654
3.785	-218.23425
3.7855	-245.72754
3.786	-270.30029
3.7865	-202.82593
3.787	-79.15649
3.7875	61.12976
3.788	168.58521
3.7885	189.23035
3.789	159.82361
3.7895	118.13049
3.79	85.5011
3.7905	27.19116
3.791	-6.04248
3.7915	-66.16516
3.792	-127.09351
3.7925	-164.45618
3.793	-214.70947
3.7935	-237.36877
3.794	-255.49622
3.7945	-306.15234
3.795	-372.92175
3.7955	-459.63135
3.796	-493.67065
3.7965	-511.29456
3.797	-520.05615
3.7975	-513.51013
3.798	-508.97827
3.7985	-539.19067
3.799	-658.32825
3.7995	-824.49646
3.8	-920.47119
3.8005	-955.41687
3.801	-966.69617
3.8015	-1027.82593
3.802	-1039.00452
3.8025	-949.37439
3.803	-769.91272
3.8035	-559.53369
3.804	-362.04529
3.8045	-96.98181
3.805	108.86536
3.8055	303.63464
3.806	440.29541
3.8065	597.70203
3.807	767.29431
3.8075	945.14465
3.808	1065.49072
3.8085	1123.90137
3.809	1108.99658
3.8095	960.35156
3.81	779.27856
3.8105	584.30786
3.811	382.79114
3.8115	169.59229
3.812	-13.49487
3.8125	-130.61829
3.813	-248.34595
3.8135	-328.40881
3.814	-315.11536
3.8145	-279.76685
3.815	-214.00452
3.8155	-172.00928
3.816	-119.84253
3.8165	-79.35791
3.817	-102.52075
3.8175	-213.40027
3.818	-296.08154
3.8185	-343.91785
3.819	-382.99255
3.8195	-501.32446
3.82	-683.30383
3.8205	-867.8009
3.821	-1049.47815
3.8215	-1231.05469
3.822	-1412.12769
3.8225	-1424.01123
3.823	-1269.92798
3.8235	-1025.71106
3.824	-712.40845
3.8245	-458.22144
3.825	-119.23828
3.8255	239.48364
3.826	582.49512
3.8265	738.08899
3.827	769.91272
3.8275	789.95361
3.828	611.59973
3.8285	402.4292
3.829	103.72925
3.8295	-182.28149
3.83	-441.00037
3.8305	-623.28186
3.831	-655.2063
3.8315	-608.57849
3.832	-461.5448
3.8325	-209.87549
3.833	115.20996
3.8335	471.41418
3.834	834.97009
3.8345	1083.41675
3.835	1209.70459
3.8355	1254.31824
3.836	1320.28198
3.8365	1391.88538
3.837	1228.33557
3.8375	861.95984
3.838	502.83508
3.8385	169.99512
3.839	-59.51843
3.8395	-246.33179
3.84	-496.38977
3.8405	-701.83411
3.841	-793.67981
3.8415	-749.16687
3.842	-603.74451
3.8425	-344.52209
3.843	-59.71985
3.8435	201.41602
3.844	444.42444
3.8445	644.73267
3.845	752.38953
3.8455	817.64832
3.846	823.28796
3.8465	815.53345
3.847	816.03699
3.8475	752.49023
3.848	612.80823
3.8485	458.82568
3.849	306.55518
3.8495	183.28857
3.85	39.47754
3.8505	-128.60413
3.851	-255.89905
3.8515	-267.48047
3.852	-190.94238
3.8525	-160.32715
3.853	-138.57422
3.8535	-64.25171
3.854	42.09595
3.8545	196.78345
3.855	353.68652
3.8555	456.81152
3.856	534.25598
3.8565	583.60291
3.857	573.93494
3.8575	543.42041
3.858	508.37402
3.8585	434.35364
3.859	306.95801
3.8595	215.61584
3.86	143.4082
