Domenico_Di_Fonza_Left_1.c3d  



Time(s):	C_L_bicipite(μV):
0	11.2793
0.0005	7.85522
0.001	8.66089
0.0015	4.43115
0.002	2.5177
0.0025	1.91345
0.003	6.2439
0.0035	5.13611
0.004	1.2085
0.0045	2.61841
0.005	0.70496
0.0055	6.94885
0.006	6.2439
0.0065	2.41699
0.007	1.3092
0.0075	9.56726
0.008	6.94885
0.0085	7.65381
0.009	8.66089
0.0095	2.41699
0.01	3.7262
0.0105	1.91345
0.011	-0.40283
0.0115	9.86938
0.012	2.92053
0.0125	-3.92761
0.013	0.30212
0.0135	2.92053
0.014	4.73328
0.0145	1.71204
0.015	2.11487
0.0155	1.10779
0.016	4.12903
0.0165	3.02124
0.017	-1.81274
0.0175	3.22266
0.018	0.50354
0.0185	6.44531
0.019	0.80566
0.0195	1.51062
0.02	1.81274
0.0205	1.61133
0.021	2.31628
0.0215	1.00708
0.022	4.83398
0.0225	3.62549
0.023	6.44531
0.0235	6.54602
0.024	0.80566
0.0245	4.22974
0.025	1.81274
0.0255	10.0708
0.026	7.65381
0.0265	7.5531
0.027	4.43115
0.0275	8.66089
0.028	10.37292
0.0285	7.35168
0.029	7.65381
0.0295	2.81982
0.03	10.57434
0.0305	9.86938
0.031	13.59558
0.0315	9.26514
0.032	3.92761
0.0325	7.65381
0.033	8.66089
0.0335	12.08496
0.034	7.5531
0.0345	9.97009
0.035	10.37292
0.0355	11.48071
0.036	2.5177
0.0365	4.83398
0.037	7.75452
0.0375	5.33752
0.038	7.35168
0.0385	8.8623
0.039	6.84814
0.0395	1.40991
0.04	1.40991
0.0405	1.00708
0.041	6.3446
0.0415	7.85522
0.042	8.05664
0.0425	4.12903
0.043	2.41699
0.0435	5.23682
0.044	3.32336
0.0445	4.63257
0.045	2.31628
0.0455	2.11487
0.046	1.91345
0.0465	4.12903
0.047	3.92761
0.0475	2.01416
0.048	-2.11487
0.0485	4.63257
0.049	3.02124
0.0495	5.74036
0.05	6.44531
0.0505	1.40991
0.051	5.74036
0.0515	3.02124
0.052	1.81274
0.0525	7.15027
0.053	5.94177
0.0535	7.85522
0.054	8.96301
0.0545	9.16443
0.055	5.0354
0.0555	5.84106
0.056	4.02832
0.0565	8.05664
0.057	5.63965
0.0575	4.02832
0.058	10.0708
0.0585	2.81982
0.059	2.61841
0.0595	2.81982
0.06	1.2085
0.0605	3.7262
0.061	1.40991
0.0615	5.0354
0.062	2.61841
0.0625	4.43115
0.063	6.84814
0.0635	6.54602
0.064	8.05664
0.0645	5.74036
0.065	10.47363
0.0655	6.74744
0.066	7.85522
0.0665	6.2439
0.067	2.92053
0.0675	1.51062
0.068	4.12903
0.0685	1.71204
0.069	4.83398
0.0695	7.35168
0.07	5.94177
0.0705	4.83398
0.071	4.43115
0.0715	9.56726
0.072	10.87646
0.0725	6.2439
0.073	7.25098
0.0735	7.95593
0.074	6.2439
0.0745	10.57434
0.075	6.04248
0.0755	4.43115
0.076	5.13611
0.0765	11.38
0.077	6.44531
0.0775	5.74036
0.078	5.74036
0.0785	4.43115
0.079	3.42407
0.0795	5.84106
0.08	2.92053
0.0805	4.53186
0.081	6.04248
0.0815	2.71912
0.082	4.73328
0.0825	4.22974
0.083	6.84814
0.0835	3.12195
0.084	7.04956
0.0845	9.26514
0.085	5.53894
0.0855	8.25806
0.086	6.74744
0.0865	5.0354
0.087	3.52478
0.0875	5.43823
0.088	3.12195
0.0885	3.32336
0.089	5.63965
0.0895	7.15027
0.09	7.25098
0.0905	11.88354
0.091	10.87646
0.0915	9.26514
0.092	8.56018
0.0925	12.99133
0.093	13.797
0.0935	6.44531
0.094	6.2439
0.0945	9.66797
0.095	8.45947
0.0955	6.04248
0.096	7.75452
0.0965	5.0354
0.097	6.94885
0.0975	5.94177
0.098	6.84814
0.0985	2.61841
0.099	3.42407
0.0995	7.35168
0.1	5.53894
0.1005	2.11487
0.101	1.10779
0.1015	2.61841
0.102	3.62549
0.1025	7.95593
0.103	1.71204
0.1035	3.32336
0.104	3.52478
0.1045	0.90637
0.105	8.66089
0.1055	14.90479
0.106	11.17859
0.1065	4.83398
0.107	5.23682
0.1075	4.63257
0.108	4.22974
0.1085	6.14319
0.109	7.25098
0.1095	4.73328
0.11	3.12195
0.1105	3.02124
0.111	4.02832
0.1115	3.22266
0.112	3.7262
0.1125	5.94177
0.113	2.41699
0.1135	-1.10779
0.114	4.22974
0.1145	-0.60425
0.115	-1.91345
0.1155	0.30212
0.116	3.22266
0.1165	6.94885
0.117	6.64673
0.1175	3.8269
0.118	2.71912
0.1185	6.64673
0.119	3.62549
0.1195	4.02832
0.12	2.31628
0.1205	3.32336
0.121	0.70496
0.1215	0.10071
0.122	5.63965
0.1225	2.21558
0.123	3.8269
0.1235	4.53186
0.124	5.23682
0.1245	3.62549
0.125	4.12903
0.1255	4.43115
0.126	6.94885
0.1265	4.33044
0.127	2.5177
0.1275	2.61841
0.128	4.33044
0.1285	1.91345
0.129	2.31628
0.1295	3.12195
0.13	0.70496
0.1305	8.66089
0.131	6.74744
0.1315	8.05664
0.132	7.35168
0.1325	8.25806
0.133	5.53894
0.1335	2.61841
0.134	2.5177
0.1345	1.51062
0.135	4.22974
0.1355	8.56018
0.136	6.94885
0.1365	3.62549
0.137	0.90637
0.1375	3.42407
0.138	3.42407
0.1385	5.94177
0.139	6.74744
0.1395	6.44531
0.14	8.8623
0.1405	7.65381
0.141	9.36584
0.1415	5.84106
0.142	7.15027
0.1425	11.68213
0.143	6.3446
0.1435	4.33044
0.144	3.52478
0.1445	3.8269
0.145	3.7262
0.1455	7.35168
0.146	3.12195
0.1465	8.7616
0.147	2.5177
0.1475	0.60425
0.148	9.76868
0.1485	6.94885
0.149	5.33752
0.1495	0.30212
0.15	6.14319
0.1505	5.33752
0.151	8.25806
0.1515	-0.20142
0.152	1.3092
0.1525	3.32336
0.153	3.22266
0.1535	0.90637
0.154	3.7262
0.1545	0.90637
0.155	-3.02124
0.1555	2.21558
0.156	2.01416
0.1565	4.02832
0.157	-1.51062
0.1575	0
0.158	-0.40283
0.1585	-3.12195
0.159	3.52478
0.1595	2.11487
0.16	1.2085
0.1605	3.42407
0.161	-1.81274
0.1615	6.74744
0.162	3.52478
0.1625	6.3446
0.163	2.41699
0.1635	2.01416
0.164	4.93469
0.1645	10.0708
0.165	3.42407
0.1655	4.43115
0.166	7.04956
0.1665	6.84814
0.167	3.52478
0.1675	10.0708
0.168	5.84106
0.1685	6.3446
0.169	9.56726
0.1695	9.97009
0.17	8.05664
0.1705	8.7616
0.171	8.8623
0.1715	6.44531
0.172	10.37292
0.1725	12.38708
0.173	13.49487
0.1735	10.27222
0.174	11.68213
0.1745	6.94885
0.175	5.84106
0.1755	10.77576
0.176	11.38
0.1765	4.93469
0.177	4.53186
0.1775	4.22974
0.178	3.92761
0.1785	9.06372
0.179	4.73328
0.1795	8.25806
0.18	10.17151
0.1805	2.41699
0.181	3.8269
0.1815	8.8623
0.182	8.66089
0.1825	10.87646
0.183	4.93469
0.1835	3.92761
0.184	3.62549
0.1845	5.84106
0.185	4.43115
0.1855	-0.10071
0.186	2.41699
0.1865	8.56018
0.187	6.44531
0.1875	-1.40991
0.188	8.56018
0.1885	2.21558
0.189	0.70496
0.1895	3.22266
0.19	8.56018
0.1905	4.53186
0.191	6.94885
0.1915	7.04956
0.192	7.75452
0.1925	6.14319
0.193	6.74744
0.1935	4.43115
0.194	6.44531
0.1945	3.62549
0.195	6.2439
0.1955	5.94177
0.196	6.94885
0.1965	4.83398
0.197	2.31628
0.1975	-1.00708
0.198	1.61133
0.1985	-2.41699
0.199	4.93469
0.1995	5.74036
0.2	7.95593
0.2005	6.74744
0.201	7.35168
0.2015	9.46655
0.202	3.7262
0.2025	6.04248
0.203	5.94177
0.2035	4.22974
0.204	1.81274
0.2045	7.35168
0.205	11.58142
0.2055	7.35168
0.206	8.66089
0.2065	3.8269
0.207	11.58142
0.2075	3.92761
0.208	3.8269
0.2085	6.14319
0.209	8.25806
0.2095	6.74744
0.21	9.97009
0.2105	7.04956
0.211	9.36584
0.2115	6.74744
0.212	7.25098
0.2125	4.33044
0.213	5.94177
0.2135	11.48071
0.214	11.58142
0.2145	7.35168
0.215	9.97009
0.2155	6.64673
0.216	13.49487
0.2165	10.57434
0.217	11.17859
0.2175	7.25098
0.218	5.84106
0.2185	9.66797
0.219	5.63965
0.2195	11.78284
0.22	8.15735
0.2205	2.31628
0.221	4.73328
0.2215	5.33752
0.222	5.84106
0.2225	9.36584
0.223	3.8269
0.2235	6.04248
0.224	11.38
0.2245	6.3446
0.225	3.42407
0.2255	6.84814
0.226	5.33752
0.2265	8.15735
0.227	1.71204
0.2275	-0.50354
0.228	2.31628
0.2285	6.04248
0.229	5.53894
0.2295	10.0708
0.23	5.94177
0.2305	10.37292
0.231	7.45239
0.2315	7.35168
0.232	3.22266
0.2325	8.8623
0.233	10.47363
0.2335	9.86938
0.234	11.2793
0.2345	9.97009
0.235	8.66089
0.2355	8.15735
0.236	8.66089
0.2365	4.43115
0.237	6.14319
0.2375	8.15735
0.238	5.74036
0.2385	1.00708
0.239	3.02124
0.2395	4.83398
0.24	4.63257
0.2405	9.66797
0.241	8.96301
0.2415	5.63965
0.242	1.71204
0.2425	4.83398
0.243	9.86938
0.2435	7.85522
0.244	2.71912
0.2445	5.74036
0.245	7.25098
0.2455	6.44531
0.246	3.22266
0.2465	-1.81274
0.247	6.04248
0.2475	4.83398
0.248	1.81274
0.2485	4.63257
0.249	6.2439
0.2495	6.84814
0.25	-1.2085
0.2505	4.73328
0.251	2.71912
0.2515	2.21558
0.252	5.33752
0.2525	7.15027
0.253	4.63257
0.2535	0.10071
0.254	6.14319
0.2545	2.61841
0.255	3.22266
0.2555	4.22974
0.256	2.81982
0.2565	7.15027
0.257	0.60425
0.2575	3.02124
0.258	3.8269
0.2585	7.5531
0.259	1.61133
0.2595	3.02124
0.26	7.5531
0.2605	5.23682
0.261	4.53186
0.2615	0.20142
0.262	-1.2085
0.2625	2.71912
0.263	7.45239
0.2635	7.04956
0.264	5.0354
0.2645	-0.70496
0.265	3.8269
0.2655	2.01416
0.266	4.93469
0.2665	7.04956
0.267	2.01416
0.2675	3.02124
0.268	5.43823
0.2685	3.32336
0.269	3.8269
0.2695	3.8269
0.27	5.53894
0.2705	4.93469
0.271	1.40991
0.2715	2.41699
0.272	4.33044
0.2725	7.25098
0.273	6.64673
0.2735	5.84106
0.274	-1.00708
0.2745	4.02832
0.275	7.85522
0.2755	7.35168
0.276	8.66089
0.2765	7.65381
0.277	8.25806
0.2775	3.8269
0.278	4.12903
0.2785	7.15027
0.279	5.33752
0.2795	6.54602
0.28	6.84814
0.2805	3.32336
0.281	4.22974
0.2815	8.66089
0.282	9.56726
0.2825	5.13611
0.283	5.74036
0.2835	11.38
0.284	9.06372
0.2845	8.66089
0.285	17.32178
0.2855	6.44531
0.286	17.42249
0.2865	8.66089
0.287	8.7616
0.2875	6.44531
0.288	9.66797
0.2885	8.05664
0.289	4.93469
0.2895	5.74036
0.29	6.44531
0.2905	5.74036
0.291	10.27222
0.2915	4.12903
0.292	8.35876
0.2925	5.63965
0.293	4.53186
0.2935	-1.71204
0.294	8.35876
0.2945	3.32336
0.295	6.04248
0.2955	9.06372
0.296	4.43115
0.2965	6.74744
0.297	6.94885
0.2975	5.13611
0.298	3.7262
0.2985	9.06372
0.299	7.75452
0.2995	11.38
0.3	8.45947
0.3005	6.64673
0.301	10.77576
0.3015	5.13611
0.302	1.81274
0.3025	7.15027
0.303	3.52478
0.3035	8.05664
0.304	3.8269
0.3045	6.2439
0.305	4.33044
0.3055	1.71204
0.306	4.73328
0.3065	6.2439
0.307	6.04248
0.3075	5.74036
0.308	8.15735
0.3085	5.74036
0.309	8.66089
0.3095	5.94177
0.31	1.61133
0.3105	7.25098
0.311	4.53186
0.3115	4.63257
0.312	7.25098
0.3125	9.86938
0.313	12.18567
0.3135	7.35168
0.314	8.96301
0.3145	7.04956
0.315	1.00708
0.3155	4.73328
0.316	7.5531
0.3165	6.14319
0.317	7.65381
0.3175	8.7616
0.318	9.86938
0.3185	2.81982
0.319	4.73328
0.3195	6.54602
0.32	7.65381
0.3205	14.40125
0.321	7.5531
0.3215	4.83398
0.322	11.17859
0.3225	10.17151
0.323	10.17151
0.3235	4.83398
0.324	10.27222
0.3245	9.06372
0.325	7.04956
0.3255	6.14319
0.326	4.83398
0.3265	7.45239
0.327	6.3446
0.3275	7.15027
0.328	9.97009
0.3285	4.12903
0.329	4.43115
0.3295	2.92053
0.33	2.31628
0.3305	8.8623
0.331	9.06372
0.3315	2.61841
0.332	3.52478
0.3325	10.47363
0.333	2.92053
0.3335	4.63257
0.334	4.53186
0.3345	9.97009
0.335	9.76868
0.3355	7.45239
0.336	0.90637
0.3365	0.10071
0.337	10.47363
0.3375	8.45947
0.338	4.43115
0.3385	12.28638
0.339	10.0708
0.3395	9.46655
0.34	10.97717
0.3405	7.15027
0.341	9.16443
0.3415	7.25098
0.342	15.00549
0.3425	10.0708
0.343	4.63257
0.3435	2.61841
0.344	2.21558
0.3445	5.63965
0.345	5.43823
0.3455	5.43823
0.346	5.0354
0.3465	6.94885
0.347	6.2439
0.3475	7.04956
0.348	2.01416
0.3485	9.66797
0.349	5.63965
0.3495	5.13611
0.35	8.35876
0.3505	8.25806
0.351	7.25098
0.3515	6.84814
0.352	7.95593
0.3525	10.27222
0.353	6.3446
0.3535	11.48071
0.354	10.0708
0.3545	7.35168
0.355	5.94177
0.3555	11.98425
0.356	9.56726
0.3565	4.63257
0.357	8.05664
0.3575	11.38
0.358	9.76868
0.3585	10.97717
0.359	9.56726
0.3595	11.68213
0.36	9.66797
0.3605	8.05664
0.361	9.56726
0.3615	10.37292
0.362	8.05664
0.3625	8.25806
0.363	11.68213
0.3635	11.58142
0.364	6.54602
0.3645	10.47363
0.365	12.38708
0.3655	4.63257
0.366	13.59558
0.3665	15.20691
0.367	9.06372
0.3675	12.68921
0.368	7.35168
0.3685	4.43115
0.369	5.43823
0.3695	6.74744
0.37	8.8623
0.3705	3.92761
0.371	10.27222
0.3715	5.74036
0.372	5.43823
0.3725	4.73328
0.373	3.52478
0.3735	8.45947
0.374	7.25098
0.3745	6.54602
0.375	7.65381
0.3755	5.0354
0.376	5.84106
0.3765	5.23682
0.377	5.63965
0.3775	6.04248
0.378	4.53186
0.3785	3.52478
0.379	9.56726
0.3795	12.38708
0.38	11.17859
0.3805	8.05664
0.381	6.04248
0.3815	6.64673
0.382	4.73328
0.3825	6.94885
0.383	8.35876
0.3835	7.65381
0.384	15.50903
0.3845	8.66089
0.385	10.37292
0.3855	8.45947
0.386	7.85522
0.3865	10.47363
0.387	8.66089
0.3875	8.35876
0.388	14.70337
0.3885	11.58142
0.389	11.98425
0.3895	7.35168
0.39	6.94885
0.3905	12.5885
0.391	11.07788
0.3915	17.42249
0.392	12.5885
0.3925	14.09912
0.393	12.99133
0.3935	12.89062
0.394	11.58142
0.3945	5.43823
0.395	8.25806
0.3955	10.57434
0.396	11.07788
0.3965	16.41541
0.397	13.29346
0.3975	14.80408
0.398	17.92603
0.3985	15.91187
0.399	9.66797
0.3995	15.00549
0.4	11.68213
0.4005	10.77576
0.401	15.20691
0.4015	13.09204
0.402	12.5885
0.4025	15.20691
0.403	8.56018
0.4035	8.15735
0.404	13.49487
0.4045	11.07788
0.405	13.39417
0.4055	5.94177
0.406	8.66089
0.4065	7.25098
0.407	5.53894
0.4075	5.23682
0.408	5.43823
0.4085	10.37292
0.409	5.43823
0.4095	6.94885
0.41	9.76868
0.4105	4.43115
0.411	9.36584
0.4115	9.76868
0.412	9.86938
0.4125	7.5531
0.413	4.22974
0.4135	10.87646
0.414	9.76868
0.4145	4.73328
0.415	6.74744
0.4155	9.66797
0.416	10.17151
0.4165	10.47363
0.417	8.05664
0.4175	5.94177
0.418	14.19983
0.4185	8.05664
0.419	4.63257
0.4195	5.0354
0.42	10.27222
0.4205	7.15027
0.421	10.97717
0.4215	7.75452
0.422	0.70496
0.4225	6.74744
0.423	8.8623
0.4235	5.94177
0.424	1.3092
0.4245	10.0708
0.425	9.26514
0.4255	7.35168
0.426	4.43115
0.4265	6.14319
0.427	6.3446
0.4275	7.15027
0.428	2.41699
0.4285	5.74036
0.429	6.44531
0.4295	3.8269
0.43	5.63965
0.4305	2.81982
0.431	5.43823
0.4315	3.92761
0.432	5.63965
0.4325	3.12195
0.433	2.41699
0.4335	0.60425
0.434	4.33044
0.4345	8.15735
0.435	1.2085
0.4355	-1.71204
0.436	5.94177
0.4365	6.44531
0.437	1.10779
0.4375	2.61841
0.438	4.73328
0.4385	5.53894
0.439	0
0.4395	-2.31628
0.44	2.92053
0.4405	8.8623
0.441	5.84106
0.4415	2.61841
0.442	-0.70496
0.4425	1.3092
0.443	1.71204
0.4435	2.61841
0.444	0.80566
0.4445	3.52478
0.445	3.92761
0.4455	5.23682
0.446	1.71204
0.4465	1.61133
0.447	2.41699
0.4475	9.26514
0.448	5.0354
0.4485	9.66797
0.449	4.12903
0.4495	2.11487
0.45	6.54602
0.4505	4.12903
0.451	0.30212
0.4515	3.52478
0.452	0.40283
0.4525	2.21558
0.453	2.21558
0.4535	5.84106
0.454	2.11487
0.4545	5.63965
0.455	7.75452
0.4555	7.15027
0.456	4.63257
0.4565	5.53894
0.457	4.12903
0.4575	8.56018
0.458	9.06372
0.4585	9.26514
0.459	8.96301
0.4595	6.54602
0.46	7.45239
0.4605	11.98425
0.461	5.13611
0.4615	7.35168
0.462	4.83398
0.4625	6.74744
0.463	5.84106
0.4635	3.02124
0.464	6.14319
0.4645	4.53186
0.465	7.15027
0.4655	7.35168
0.466	9.97009
0.4665	8.25806
0.467	4.73328
0.4675	6.54602
0.468	4.02832
0.4685	6.2439
0.469	7.85522
0.4695	5.74036
0.47	6.84814
0.4705	6.64673
0.471	4.12903
0.4715	7.75452
0.472	4.33044
0.4725	4.73328
0.473	4.33044
0.4735	5.0354
0.474	4.93469
0.4745	5.84106
0.475	5.84106
0.4755	5.33752
0.476	4.02832
0.4765	3.12195
0.477	5.53894
0.4775	2.21558
0.478	1.61133
0.4785	3.92761
0.479	10.27222
0.4795	5.63965
0.48	5.94177
0.4805	1.00708
0.481	2.11487
0.4815	5.0354
0.482	6.2439
0.4825	6.2439
0.483	1.51062
0.4835	6.3446
0.484	7.65381
0.4845	1.71204
0.485	4.73328
0.4855	3.8269
0.486	5.94177
0.4865	1.40991
0.487	4.53186
0.4875	7.65381
0.488	10.27222
0.4885	2.92053
0.489	6.94885
0.4895	1.71204
0.49	-0.90637
0.4905	-2.11487
0.491	-3.42407
0.4915	1.00708
0.492	1.2085
0.4925	2.92053
0.493	-0.10071
0.4935	3.7262
0.494	5.33752
0.4945	1.40991
0.495	-0.90637
0.4955	0.60425
0.496	4.12903
0.4965	4.12903
0.497	-2.81982
0.4975	1.71204
0.498	0.50354
0.4985	5.0354
0.499	-0.70496
0.4995	3.42407
0.5	7.35168
0.5005	3.92761
0.501	5.0354
0.5015	8.66089
0.502	6.3446
0.5025	5.0354
0.503	8.45947
0.5035	8.05664
0.504	6.64673
0.5045	5.23682
0.505	5.84106
0.5055	6.3446
0.506	5.84106
0.5065	6.64673
0.507	8.66089
0.5075	11.78284
0.508	11.38
0.5085	10.77576
0.509	9.66797
0.5095	9.36584
0.51	9.26514
0.5105	7.35168
0.511	10.17151
0.5115	10.77576
0.512	9.97009
0.5125	7.5531
0.513	5.74036
0.5135	6.74744
0.514	6.04248
0.5145	7.65381
0.515	5.74036
0.5155	4.33044
0.516	7.65381
0.5165	11.17859
0.517	11.98425
0.5175	5.53894
0.518	5.23682
0.5185	4.33044
0.519	1.40991
0.5195	3.92761
0.52	9.06372
0.5205	5.13611
0.521	4.22974
0.5215	4.93469
0.522	2.5177
0.5225	2.81982
0.523	1.2085
0.5235	-0.90637
0.524	6.3446
0.5245	12.08496
0.525	7.35168
0.5255	7.04956
0.526	2.81982
0.5265	3.22266
0.527	-0.10071
0.5275	2.41699
0.528	5.23682
0.5285	3.12195
0.529	2.5177
0.5295	0.60425
0.53	2.71912
0.5305	8.66089
0.531	3.92761
0.5315	0.10071
0.532	-0.40283
0.5325	-1.3092
0.533	5.74036
0.5335	2.81982
0.534	1.10779
0.5345	-2.31628
0.535	-1.81274
0.5355	3.42407
0.536	4.43115
0.5365	2.71912
0.537	7.95593
0.5375	5.94177
0.538	-1.71204
0.5385	1.40991
0.539	1.00708
0.5395	-0.20142
0.54	-0.10071
0.5405	0.90637
0.541	3.12195
0.5415	4.53186
0.542	5.23682
0.5425	2.5177
0.543	1.10779
0.5435	7.5531
0.544	5.33752
0.5445	4.43115
0.545	5.43823
0.5455	-0.90637
0.546	2.41699
0.5465	-0.30212
0.547	1.71204
0.5475	4.93469
0.548	6.64673
0.5485	7.25098
0.549	7.45239
0.5495	2.41699
0.55	3.7262
0.5505	8.05664
0.551	4.02832
0.5515	3.7262
0.552	4.73328
0.5525	7.15027
0.553	8.05664
0.5535	7.45239
0.554	4.63257
0.5545	2.71912
0.555	2.92053
0.5555	5.13611
0.556	6.54602
0.5565	3.7262
0.557	8.8623
0.5575	3.22266
0.558	4.83398
0.5585	6.84814
0.559	10.67505
0.5595	11.68213
0.56	9.56726
0.5605	11.98425
0.561	10.17151
0.5615	4.33044
0.562	6.44531
0.5625	5.63965
0.563	11.2793
0.5635	9.36584
0.564	9.56726
0.5645	11.2793
0.565	6.2439
0.5655	1.2085
0.566	6.64673
0.5665	7.25098
0.567	5.63965
0.5675	3.92761
0.568	6.14319
0.5685	6.44531
0.569	6.2439
0.5695	4.73328
0.57	7.5531
0.5705	4.83398
0.571	7.35168
0.5715	7.5531
0.572	6.74744
0.5725	5.33752
0.573	2.31628
0.5735	5.43823
0.574	3.02124
0.5745	2.41699
0.575	2.31628
0.5755	4.02832
0.576	5.43823
0.5765	5.94177
0.577	-0.40283
0.5775	2.41699
0.578	-0.60425
0.5785	8.35876
0.579	-0.70496
0.5795	3.22266
0.58	-0.10071
0.5805	1.61133
0.581	2.21558
0.5815	7.85522
0.582	7.5531
0.5825	-1.40991
0.583	1.3092
0.5835	3.52478
0.584	3.32336
0.5845	0.10071
0.585	4.73328
0.5855	9.86938
0.586	8.66089
0.5865	2.5177
0.587	-0.70496
0.5875	2.31628
0.588	3.02124
0.5885	2.5177
0.589	5.94177
0.5895	4.43115
0.59	6.2439
0.5905	9.76868
0.591	6.64673
0.5915	1.61133
0.592	5.0354
0.5925	-2.31628
0.593	6.74744
0.5935	7.04956
0.594	0.40283
0.5945	7.5531
0.595	4.63257
0.5955	4.22974
0.596	-1.51062
0.5965	7.25098
0.597	4.22974
0.5975	5.94177
0.598	6.54602
0.5985	5.33752
0.599	0.50354
0.5995	2.5177
0.6	1.3092
0.6005	9.56726
0.601	6.74744
0.6015	2.5177
0.602	3.92761
0.6025	6.54602
0.603	6.74744
0.6035	-0.30212
0.604	2.11487
0.6045	7.95593
0.605	7.5531
0.6055	9.56726
0.606	5.84106
0.6065	3.42407
0.607	10.57434
0.6075	5.33752
0.608	7.15027
0.6085	8.35876
0.609	2.71912
0.6095	9.56726
0.61	2.21558
0.6105	6.3446
0.611	5.13611
0.6115	3.32336
0.612	5.43823
0.6125	6.04248
0.613	3.02124
0.6135	5.74036
0.614	4.63257
0.6145	3.8269
0.615	6.44531
0.6155	11.88354
0.616	5.94177
0.6165	8.15735
0.617	5.63965
0.6175	2.61841
0.618	0.30212
0.6185	3.8269
0.619	6.14319
0.6195	9.26514
0.62	7.45239
0.6205	5.84106
0.621	2.41699
0.6215	0.90637
0.622	1.00708
0.6225	1.51062
0.623	9.66797
0.6235	4.12903
0.624	5.33752
0.6245	2.61841
0.625	4.93469
0.6255	5.23682
0.626	-2.01416
0.6265	0.40283
0.627	6.84814
0.6275	5.94177
0.628	4.83398
0.6285	2.21558
0.629	8.66089
0.6295	7.95593
0.63	8.05664
0.6305	5.53894
0.631	3.32336
0.6315	2.31628
0.632	8.15735
0.6325	0.10071
0.633	6.54602
0.6335	8.05664
0.634	5.63965
0.6345	0.70496
0.635	2.5177
0.6355	-1.2085
0.636	5.43823
0.6365	0
0.637	1.81274
0.6375	-0.40283
0.638	5.0354
0.6385	1.00708
0.639	3.62549
0.6395	0.50354
0.64	7.95593
0.6405	10.57434
0.641	3.02124
0.6415	5.74036
0.642	5.84106
0.6425	3.7262
0.643	6.3446
0.6435	4.73328
0.644	6.44531
0.6445	5.94177
0.645	0.70496
0.6455	1.71204
0.646	2.92053
0.6465	2.71912
0.647	1.71204
0.6475	3.02124
0.648	3.02124
0.6485	6.64673
0.649	2.5177
0.6495	0.10071
0.65	2.71912
0.6505	0.20142
0.651	-1.00708
0.6515	3.12195
0.652	0.20142
0.6525	4.22974
0.653	5.33752
0.6535	9.36584
0.654	1.51062
0.6545	3.7262
0.655	1.71204
0.6555	1.2085
0.656	-0.40283
0.6565	2.31628
0.657	4.43115
0.6575	5.53894
0.658	-0.60425
0.6585	2.92053
0.659	1.81274
0.6595	3.92761
0.66	1.2085
0.6605	5.33752
0.661	8.66089
0.6615	3.12195
0.662	9.66797
0.6625	2.71912
0.663	1.51062
0.6635	1.71204
0.664	0.80566
0.6645	-0.10071
0.665	4.02832
0.6655	-1.00708
0.666	-1.81274
0.6665	1.71204
0.667	6.64673
0.6675	3.22266
0.668	8.96301
0.6685	1.81274
0.669	4.02832
0.6695	1.2085
0.67	5.84106
0.6705	8.8623
0.671	5.74036
0.6715	6.84814
0.672	7.25098
0.6725	4.63257
0.673	5.53894
0.6735	2.61841
0.674	4.33044
0.6745	3.92761
0.675	6.94885
0.6755	6.44531
0.676	4.02832
0.6765	2.21558
0.677	2.21558
0.6775	1.91345
0.678	7.85522
0.6785	1.51062
0.679	1.3092
0.6795	-0.10071
0.68	7.25098
0.6805	3.42407
0.681	5.53894
0.6815	5.63965
0.682	2.11487
0.6825	2.31628
0.683	1.10779
0.6835	-3.02124
0.684	7.85522
0.6845	5.0354
0.685	6.84814
0.6855	2.11487
0.686	-1.10779
0.6865	5.63965
0.687	0.20142
0.6875	5.43823
0.688	4.53186
0.6885	0.60425
0.689	4.43115
0.6895	4.63257
0.69	6.84814
0.6905	0.60425
0.691	7.95593
0.6915	11.07788
0.692	12.48779
0.6925	5.53894
0.693	6.64673
0.6935	6.84814
0.694	8.35876
0.6945	9.56726
0.695	6.54602
0.6955	1.3092
0.696	9.36584
0.6965	9.36584
0.697	6.84814
0.6975	5.84106
0.698	5.84106
0.6985	6.04248
0.699	1.71204
0.6995	4.53186
0.7	8.56018
0.7005	7.35168
0.701	8.56018
0.7015	4.33044
0.702	2.31628
0.7025	6.64673
0.703	1.91345
0.7035	7.25098
0.704	5.74036
0.7045	10.87646
0.705	7.25098
0.7055	9.06372
0.706	3.52478
0.7065	7.04956
0.707	4.02832
0.7075	8.96301
0.708	7.95593
0.7085	6.64673
0.709	3.92761
0.7095	6.84814
0.71	7.95593
0.7105	7.04956
0.711	9.66797
0.7115	5.33752
0.712	8.8623
0.7125	9.86938
0.713	3.12195
0.7135	4.22974
0.714	0.30212
0.7145	0.90637
0.715	8.35876
0.7155	5.53894
0.716	12.48779
0.7165	2.71912
0.717	6.04248
0.7175	8.7616
0.718	6.3446
0.7185	4.63257
0.719	4.83398
0.7195	7.04956
0.72	-2.11487
0.7205	1.71204
0.721	7.25098
0.7215	5.63965
0.722	6.44531
0.7225	6.54602
0.723	4.63257
0.7235	7.15027
0.724	0.70496
0.7245	1.10779
0.725	3.52478
0.7255	0.40283
0.726	1.81274
0.7265	3.92761
0.727	10.27222
0.7275	3.12195
0.728	2.5177
0.7285	2.01416
0.729	7.35168
0.7295	9.86938
0.73	3.12195
0.7305	5.33752
0.731	6.2439
0.7315	7.15027
0.732	3.62549
0.7325	2.81982
0.733	8.05664
0.7335	5.74036
0.734	8.96301
0.7345	5.0354
0.735	10.47363
0.7355	6.14319
0.736	7.15027
0.7365	4.33044
0.737	3.22266
0.7375	2.61841
0.738	8.66089
0.7385	6.64673
0.739	9.46655
0.7395	7.35168
0.74	5.13611
0.7405	8.25806
0.741	9.36584
0.7415	7.65381
0.742	5.74036
0.7425	9.97009
0.743	7.85522
0.7435	2.41699
0.744	11.2793
0.7445	3.12195
0.745	4.63257
0.7455	3.7262
0.746	6.74744
0.7465	6.94885
0.747	6.64673
0.7475	4.22974
0.748	4.73328
0.7485	9.16443
0.749	5.74036
0.7495	1.61133
0.75	8.56018
0.7505	8.45947
0.751	9.26514
0.7515	5.23682
0.752	6.74744
0.7525	7.75452
0.753	7.5531
0.7535	10.77576
0.754	11.07788
0.7545	5.0354
0.755	5.84106
0.7555	5.23682
0.756	7.85522
0.7565	6.04248
0.757	7.35168
0.7575	8.7616
0.758	10.57434
0.7585	7.85522
0.759	6.44531
0.7595	12.68921
0.76	15.30762
0.7605	6.44531
0.761	3.02124
0.7615	7.45239
0.762	5.33752
0.7625	0.10071
0.763	0.50354
0.7635	-0.10071
0.764	5.0354
0.7645	4.73328
0.765	9.36584
0.7655	9.86938
0.766	7.04956
0.7665	10.37292
0.767	5.43823
0.7675	6.44531
0.768	7.65381
0.7685	9.06372
0.769	8.66089
0.7695	2.01416
0.77	2.81982
0.7705	6.74744
0.771	4.33044
0.7715	5.53894
0.772	5.0354
0.7725	6.2439
0.773	2.01416
0.7735	6.84814
0.774	-0.80566
0.7745	7.04956
0.775	2.61841
0.7755	1.51062
0.776	-1.3092
0.7765	4.22974
0.777	5.33752
0.7775	4.12903
0.778	9.26514
0.7785	6.94885
0.779	1.71204
0.7795	6.2439
0.78	4.02832
0.7805	7.15027
0.781	1.40991
0.7815	5.13611
0.782	5.43823
0.7825	7.25098
0.783	8.8623
0.7835	3.92761
0.784	9.26514
0.7845	4.02832
0.785	5.0354
0.7855	2.92053
0.786	7.95593
0.7865	7.35168
0.787	5.43823
0.7875	4.73328
0.788	6.04248
0.7885	6.94885
0.789	6.54602
0.7895	8.56018
0.79	12.78992
0.7905	4.43115
0.791	5.53894
0.7915	6.54602
0.792	6.74744
0.7925	9.16443
0.793	2.11487
0.7935	6.94885
0.794	9.76868
0.7945	8.25806
0.795	4.83398
0.7955	1.10779
0.796	5.84106
0.7965	7.75452
0.797	10.0708
0.7975	6.2439
0.798	7.25098
0.7985	7.95593
0.799	4.93469
0.7995	6.04248
0.8	5.23682
0.8005	8.45947
0.801	7.75452
0.8015	1.3092
0.802	4.83398
0.8025	2.61841
0.803	3.12195
0.8035	4.12903
0.804	6.04248
0.8045	3.62549
0.805	3.12195
0.8055	1.51062
0.806	4.33044
0.8065	2.31628
0.807	3.02124
0.8075	1.2085
0.808	6.54602
0.8085	3.92761
0.809	4.63257
0.8095	9.36584
0.81	9.36584
0.8105	6.94885
0.811	5.63965
0.8115	7.85522
0.812	8.96301
0.8125	6.54602
0.813	3.62549
0.8135	11.58142
0.814	7.95593
0.8145	6.54602
0.815	5.63965
0.8155	8.15735
0.816	7.5531
0.8165	8.35876
0.817	3.02124
0.8175	3.92761
0.818	12.78992
0.8185	12.5885
0.819	13.797
0.8195	10.87646
0.82	15.00549
0.8205	9.36584
0.821	7.25098
0.8215	10.87646
0.822	10.97717
0.8225	5.53894
0.823	8.15735
0.8235	10.87646
0.824	9.06372
0.8245	5.13611
0.825	9.56726
0.8255	4.83398
0.826	7.65381
0.8265	6.74744
0.827	7.65381
0.8275	7.5531
0.828	5.0354
0.8285	8.7616
0.829	5.23682
0.8295	5.13611
0.83	0.40283
0.8305	6.14319
0.831	6.54602
0.8315	6.44531
0.832	3.42407
0.8325	1.51062
0.833	3.32336
0.8335	3.52478
0.834	1.81274
0.8345	5.94177
0.835	5.94177
0.8355	7.85522
0.836	1.81274
0.8365	4.12903
0.837	6.14319
0.8375	6.44531
0.838	4.33044
0.8385	5.23682
0.839	1.91345
0.8395	3.62549
0.84	7.15027
0.8405	5.94177
0.841	4.02832
0.8415	5.53894
0.842	8.96301
0.8425	9.76868
0.843	5.94177
0.8435	8.25806
0.844	8.35876
0.8445	5.84106
0.845	5.94177
0.8455	8.35876
0.846	6.44531
0.8465	2.11487
0.847	4.02832
0.8475	0.70496
0.848	7.25098
0.8485	4.53186
0.849	4.12903
0.8495	3.62549
0.85	9.86938
0.8505	2.31628
0.851	1.51062
0.8515	7.65381
0.852	6.2439
0.8525	8.25806
0.853	10.47363
0.8535	9.36584
0.854	3.32336
0.8545	3.8269
0.855	4.93469
0.8555	2.92053
0.856	9.26514
0.8565	9.46655
0.857	3.7262
0.8575	7.35168
0.858	4.73328
0.8585	4.73328
0.859	6.04248
0.8595	4.63257
0.86	3.8269
0.8605	8.96301
0.861	5.63965
0.8615	11.2793
0.862	9.86938
0.8625	5.43823
0.863	8.45947
0.8635	3.62549
0.864	3.52478
0.8645	1.61133
0.865	1.61133
0.8655	2.41699
0.866	6.14319
0.8665	4.93469
0.867	1.2085
0.8675	0.40283
0.868	8.8623
0.8685	5.0354
0.869	1.61133
0.8695	4.12903
0.87	10.0708
0.8705	9.56726
0.871	3.8269
0.8715	10.17151
0.872	5.74036
0.8725	8.05664
0.873	3.62549
0.8735	8.7616
0.874	1.61133
0.8745	3.52478
0.875	8.96301
0.8755	8.7616
0.876	8.35876
0.8765	10.17151
0.877	12.89062
0.8775	12.5885
0.878	10.27222
0.8785	4.93469
0.879	9.46655
0.8795	2.71912
0.88	1.81274
0.8805	5.94177
0.881	9.36584
0.8815	10.17151
0.882	6.04248
0.8825	9.36584
0.883	10.67505
0.8835	8.8623
0.884	7.25098
0.8845	7.95593
0.885	10.47363
0.8855	8.66089
0.886	12.08496
0.8865	10.17151
0.887	5.74036
0.8875	10.17151
0.888	14.19983
0.8885	6.14319
0.889	4.12903
0.8895	6.14319
0.89	7.04956
0.8905	6.94885
0.891	6.94885
0.8915	6.04248
0.892	7.15027
0.8925	6.14319
0.893	8.05664
0.8935	7.15027
0.894	5.84106
0.8945	8.25806
0.895	6.94885
0.8955	8.15735
0.896	9.06372
0.8965	4.73328
0.897	4.83398
0.8975	6.54602
0.898	11.38
0.8985	11.58142
0.899	7.95593
0.8995	7.85522
0.9	8.7616
0.9005	6.94885
0.901	8.45947
0.9015	5.84106
0.902	9.16443
0.9025	12.5885
0.903	7.15027
0.9035	5.74036
0.904	2.61841
0.9045	6.54602
0.905	1.81274
0.9055	5.53894
0.906	7.35168
0.9065	6.64673
0.907	7.45239
0.9075	3.42407
0.908	2.81982
0.9085	4.22974
0.909	7.75452
0.9095	5.74036
0.91	7.65381
0.9105	3.02124
0.911	-1.10779
0.9115	8.45947
0.912	6.74744
0.9125	3.42407
0.913	5.0354
0.9135	3.8269
0.914	3.92761
0.9145	-1.00708
0.915	-1.61133
0.9155	4.33044
0.916	6.2439
0.9165	8.25806
0.917	6.3446
0.9175	6.74744
0.918	9.46655
0.9185	9.46655
0.919	5.13611
0.9195	5.94177
0.92	5.23682
0.9205	6.44531
0.921	4.33044
0.9215	3.7262
0.922	6.54602
0.9225	2.21558
0.923	3.62549
0.9235	0.30212
0.924	3.42407
0.9245	3.7262
0.925	6.44531
0.9255	6.84814
0.926	4.53186
0.9265	1.81274
0.927	2.92053
0.9275	4.22974
0.928	6.2439
0.9285	2.92053
0.929	4.73328
0.9295	2.61841
0.93	6.74744
0.9305	4.02832
0.931	5.13611
0.9315	6.64673
0.932	4.53186
0.9325	5.53894
0.933	2.31628
0.9335	5.0354
0.934	1.3092
0.9345	4.33044
0.935	4.33044
0.9355	1.51062
0.936	4.12903
0.9365	3.42407
0.937	8.35876
0.9375	8.25806
0.938	1.91345
0.9385	0.60425
0.939	0.60425
0.9395	9.86938
0.94	5.74036
0.9405	4.33044
0.941	7.75452
0.9415	6.44531
0.942	5.94177
0.9425	5.13611
0.943	3.8269
0.9435	3.62549
0.944	2.5177
0.9445	7.04956
0.945	10.57434
0.9455	9.06372
0.946	-0.20142
0.9465	4.93469
0.947	9.97009
0.9475	4.83398
0.948	6.44531
0.9485	1.10779
0.949	2.31628
0.9495	3.8269
0.95	5.84106
0.9505	1.91345
0.951	5.23682
0.9515	7.5531
0.952	4.12903
0.9525	7.75452
0.953	5.53894
0.9535	4.43115
0.954	5.53894
0.9545	5.43823
0.955	3.62549
0.9555	3.62549
0.956	-0.20142
0.9565	1.71204
0.957	3.02124
0.9575	4.12903
0.958	4.53186
0.9585	0.70496
0.959	6.94885
0.9595	7.75452
0.96	8.15735
0.9605	7.45239
0.961	5.43823
0.9615	8.56018
0.962	6.14319
0.9625	8.56018
0.963	10.57434
0.9635	8.8623
0.964	6.44531
0.9645	7.35168
0.965	9.76868
0.9655	6.54602
0.966	5.13611
0.9665	6.2439
0.967	9.06372
0.9675	6.54602
0.968	12.78992
0.9685	10.57434
0.969	3.22266
0.9695	3.32336
0.97	5.74036
0.9705	4.33044
0.971	7.45239
0.9715	7.5531
0.972	4.83398
0.9725	6.14319
0.973	0.90637
0.9735	3.32336
0.974	7.25098
0.9745	10.17151
0.975	2.61841
0.9755	6.54602
0.976	12.5885
0.9765	7.85522
0.977	2.81982
0.9775	2.5177
0.978	8.45947
0.9785	6.54602
0.979	7.04956
0.9795	6.54602
0.98	8.7616
0.9805	8.96301
0.981	8.66089
0.9815	6.2439
0.982	4.33044
0.9825	6.2439
0.983	9.36584
0.9835	9.06372
0.984	8.45947
0.9845	10.67505
0.985	4.43115
0.9855	3.22266
0.986	1.3092
0.9865	10.47363
0.987	4.53186
0.9875	8.66089
0.988	7.5531
0.9885	2.5177
0.989	10.47363
0.9895	11.07788
0.99	10.47363
0.9905	6.64673
0.991	10.57434
0.9915	3.22266
0.992	5.63965
0.9925	1.71204
0.993	0.90637
0.9935	3.8269
0.994	3.02124
0.9945	5.94177
0.995	-0.50354
0.9955	4.22974
0.996	3.7262
0.9965	9.56726
0.997	7.85522
0.9975	6.94885
0.998	1.91345
0.9985	8.66089
0.999	9.76868
0.9995	4.53186
1	4.73328
1.0005	8.66089
1.001	8.15735
1.0015	7.45239
1.002	6.2439
1.0025	3.7262
1.003	8.96301
1.0035	6.04248
1.004	12.38708
1.0045	6.3446
1.005	8.35876
1.0055	9.26514
1.006	3.32336
1.0065	9.86938
1.007	5.13611
1.0075	3.62549
1.008	4.02832
1.0085	7.25098
1.009	5.13611
1.0095	11.38
1.01	9.76868
1.0105	4.02832
1.011	3.42407
1.0115	1.10779
1.012	2.11487
1.0125	6.84814
1.013	6.84814
1.0135	5.74036
1.014	5.94177
1.0145	5.23682
1.015	3.12195
1.0155	10.77576
1.016	6.04248
1.0165	8.66089
1.017	9.86938
1.0175	4.22974
1.018	4.22974
1.0185	4.93469
1.019	5.13611
1.0195	3.62549
1.02	6.14319
1.0205	2.81982
1.021	4.12903
1.0215	1.3092
1.022	5.63965
1.0225	6.54602
1.023	5.13611
1.0235	6.84814
1.024	5.63965
1.0245	7.15027
1.025	3.52478
1.0255	2.11487
1.026	-0.90637
1.0265	3.7262
1.027	4.53186
1.0275	6.74744
1.028	2.92053
1.0285	5.84106
1.029	2.71912
1.0295	7.35168
1.03	7.25098
1.0305	6.84814
1.031	6.04248
1.0315	3.12195
1.032	4.33044
1.0325	1.40991
1.033	6.2439
1.0335	8.8623
1.034	2.41699
1.0345	2.11487
1.035	6.2439
1.0355	5.94177
1.036	4.02832
1.0365	3.7262
1.037	0.80566
1.0375	10.17151
1.038	6.84814
1.0385	12.18567
1.039	8.25806
1.0395	10.77576
1.04	4.83398
1.0405	4.73328
1.041	8.25806
1.0415	8.8623
1.042	7.45239
1.0425	8.96301
1.043	4.63257
1.0435	4.12903
1.044	3.32336
1.0445	1.00708
1.045	1.91345
1.0455	2.31628
1.046	6.64673
1.0465	10.87646
1.047	6.94885
1.0475	4.63257
1.048	6.74744
1.0485	4.33044
1.049	4.43115
1.0495	5.43823
1.05	-1.2085
1.0505	7.25098
1.051	4.02832
1.0515	1.81274
1.052	5.63965
1.0525	0.30212
1.053	4.63257
1.0535	10.0708
1.054	9.86938
1.0545	0.30212
1.055	4.83398
1.0555	-0.70496
1.056	-0.60425
1.0565	0.60425
1.057	0
1.0575	5.53894
1.058	7.45239
1.0585	6.64673
1.059	6.04248
1.0595	-1.71204
1.06	4.12903
1.0605	4.83398
1.061	7.75452
1.0615	1.61133
1.062	3.7262
1.0625	6.44531
1.063	4.22974
1.0635	6.04248
1.064	-0.20142
1.0645	1.91345
1.065	-1.81274
1.0655	0.60425
1.066	1.91345
1.0665	1.61133
1.067	2.01416
1.0675	8.15735
1.068	2.81982
1.0685	2.01416
1.069	3.42407
1.0695	4.83398
1.07	-2.31628
1.0705	4.12903
1.071	0.80566
1.0715	2.92053
1.072	6.04248
1.0725	2.81982
1.073	2.41699
1.0735	-0.10071
1.074	3.22266
1.0745	9.97009
1.075	10.0708
1.0755	-0.70496
1.076	3.7262
1.0765	2.71912
1.077	3.62549
1.0775	0.60425
1.078	-1.10779
1.0785	5.53894
1.079	-2.21558
1.0795	2.71912
1.08	3.92761
1.0805	7.45239
1.081	4.43115
1.0815	4.83398
1.082	-0.40283
1.0825	3.92761
1.083	6.04248
1.0835	4.53186
1.084	1.3092
1.0845	-2.41699
1.085	3.02124
1.0855	6.04248
1.086	1.91345
1.0865	-1.71204
1.087	4.43115
1.0875	-2.5177
1.088	3.8269
1.0885	1.51062
1.089	0.70496
1.0895	6.54602
1.09	9.56726
1.0905	8.66089
1.091	5.23682
1.0915	5.53894
1.092	2.41699
1.0925	3.02124
1.093	4.83398
1.0935	4.12903
1.094	-1.51062
1.0945	3.22266
1.095	3.32336
1.0955	3.32336
1.096	2.81982
1.0965	11.38
1.097	12.5885
1.0975	9.66797
1.098	11.38
1.0985	10.57434
1.099	11.68213
1.0995	6.84814
1.1	10.47363
1.1005	11.2793
1.101	8.35876
1.1015	4.02832
1.102	8.56018
1.1025	8.15735
1.103	8.45947
1.1035	6.3446
1.104	12.5885
1.1045	10.17151
1.105	10.27222
1.1055	12.28638
1.106	9.26514
1.1065	13.39417
1.107	14.09912
1.1075	10.47363
1.108	6.04248
1.1085	5.94177
1.109	9.16443
1.1095	15.71045
1.11	13.19275
1.1105	16.61682
1.111	11.68213
1.1115	13.59558
1.112	10.97717
1.1125	12.68921
1.113	9.86938
1.1135	4.83398
1.114	9.46655
1.1145	8.56018
1.115	8.8623
1.1155	6.44531
1.116	10.97717
1.1165	6.3446
1.117	8.7616
1.1175	10.17151
1.118	2.21558
1.1185	3.42407
1.119	6.84814
1.1195	7.35168
1.12	4.53186
1.1205	7.75452
1.121	5.13611
1.1215	6.84814
1.122	7.35168
1.1225	11.68213
1.123	8.96301
1.1235	7.45239
1.124	7.35168
1.1245	4.93469
1.125	7.75452
1.1255	9.36584
1.126	7.5531
1.1265	11.38
1.127	9.97009
1.1275	7.04956
1.128	7.5531
1.1285	6.44531
1.129	5.74036
1.1295	7.95593
1.13	9.76868
1.1305	6.3446
1.131	6.94885
1.1315	6.64673
1.132	7.65381
1.1325	7.85522
1.133	2.5177
1.1335	4.83398
1.134	7.65381
1.1345	2.21558
1.135	3.52478
1.1355	2.81982
1.136	8.15735
1.1365	8.45947
1.137	9.97009
1.1375	5.23682
1.138	4.83398
1.1385	6.54602
1.139	3.12195
1.1395	13.09204
1.14	8.7616
1.1405	5.0354
1.141	7.75452
1.1415	6.44531
1.142	4.63257
1.1425	4.22974
1.143	5.53894
1.1435	4.02832
1.144	4.83398
1.1445	1.91345
1.145	4.73328
1.1455	2.81982
1.146	6.44531
1.1465	5.0354
1.147	0.10071
1.1475	-2.61841
1.148	-3.02124
1.1485	-5.0354
1.149	1.10779
1.1495	5.0354
1.15	5.13611
1.1505	1.81274
1.151	4.63257
1.1515	-0.30212
1.152	2.61841
1.1525	-1.91345
1.153	2.81982
1.1535	1.3092
1.154	-2.71912
1.1545	-1.3092
1.155	1.10779
1.1555	-0.50354
1.156	-0.20142
1.1565	1.81274
1.157	4.22974
1.1575	2.31628
1.158	4.63257
1.1585	6.04248
1.159	6.04248
1.1595	3.42407
1.16	5.43823
1.1605	11.88354
1.161	1.61133
1.1615	4.53186
1.162	4.02832
1.1625	0.50354
1.163	2.71912
1.1635	3.12195
1.164	2.71912
1.1645	1.71204
1.165	0.50354
1.1655	3.42407
1.166	3.7262
1.1665	5.74036
1.167	2.81982
1.1675	2.41699
1.168	8.15735
1.1685	5.84106
1.169	2.31628
1.1695	-0.90637
1.17	-0.50354
1.1705	5.74036
1.171	8.05664
1.1715	11.68213
1.172	3.22266
1.1725	2.5177
1.173	5.53894
1.1735	0.50354
1.174	-2.21558
1.1745	-3.62549
1.175	0.40283
1.1755	8.25806
1.176	3.02124
1.1765	1.2085
1.177	4.93469
1.1775	4.33044
1.178	3.12195
1.1785	6.44531
1.179	9.26514
1.1795	8.15735
1.18	5.43823
1.1805	4.73328
1.181	3.62549
1.1815	4.53186
1.182	11.78284
1.1825	6.84814
1.183	4.83398
1.1835	8.66089
1.184	2.21558
1.1845	8.96301
1.185	3.7262
1.1855	-0.90637
1.186	3.22266
1.1865	7.45239
1.187	9.46655
1.1875	7.04956
1.188	5.43823
1.1885	5.43823
1.189	4.53186
1.1895	7.95593
1.19	1.10779
1.1905	1.2085
1.191	5.63965
1.1915	0.40283
1.192	4.83398
1.1925	5.33752
1.193	8.05664
1.1935	4.73328
1.194	7.95593
1.1945	5.63965
1.195	4.33044
1.1955	1.61133
1.196	4.73328
1.1965	7.45239
1.197	2.41699
1.1975	6.74744
1.198	5.94177
1.1985	4.22974
1.199	2.71912
1.1995	-3.12195
1.2	0
1.2005	1.00708
1.201	-1.51062
1.2015	4.63257
1.202	6.3446
1.2025	6.14319
1.203	8.35876
1.2035	7.5531
1.204	0.20142
1.2045	3.62549
1.205	7.25098
1.2055	7.15027
1.206	5.0354
1.2065	4.02832
1.207	3.7262
1.2075	6.2439
1.208	9.86938
1.2085	11.78284
1.209	2.81982
1.2095	6.74744
1.21	9.56726
1.2105	5.13611
1.211	8.25806
1.2115	9.46655
1.212	10.27222
1.2125	9.66797
1.213	8.96301
1.2135	6.94885
1.214	6.3446
1.2145	7.5531
1.215	9.56726
1.2155	9.86938
1.216	9.46655
1.2165	7.95593
1.217	15.30762
1.2175	11.48071
1.218	7.04956
1.2185	4.53186
1.219	4.02832
1.2195	7.75452
1.22	5.84106
1.2205	5.23682
1.221	9.36584
1.2215	8.35876
1.222	8.66089
1.2225	5.84106
1.223	5.63965
1.2235	6.14319
1.224	8.25806
1.2245	6.74744
1.225	3.32336
1.2255	6.64673
1.226	5.53894
1.2265	-1.10779
1.227	4.22974
1.2275	4.93469
1.228	7.75452
1.2285	8.35876
1.229	6.44531
1.2295	11.78284
1.23	9.16443
1.2305	2.01416
1.231	7.35168
1.2315	6.74744
1.232	2.31628
1.2325	3.12195
1.233	6.04248
1.2335	8.96301
1.234	3.8269
1.2345	10.37292
1.235	1.10779
1.2355	2.01416
1.236	4.02832
1.2365	5.74036
1.237	1.51062
1.2375	5.33752
1.238	1.10779
1.2385	2.01416
1.239	9.97009
1.2395	9.66797
1.24	4.63257
1.2405	9.16443
1.241	2.5177
1.2415	2.61841
1.242	3.92761
1.2425	0.90637
1.243	3.52478
1.2435	-0.50354
1.244	3.22266
1.2445	2.92053
1.245	2.61841
1.2455	-2.41699
1.246	-0.60425
1.2465	-1.81274
1.247	-2.11487
1.2475	-3.62549
1.248	-4.83398
1.2485	-6.74744
1.249	-10.0708
1.2495	-6.44531
1.25	-4.12903
1.2505	-3.42407
1.251	-2.5177
1.2515	-5.84106
1.252	-6.04248
1.2525	-7.25098
1.253	-1.40991
1.2535	-3.22266
1.254	-0.60425
1.2545	4.33044
1.255	6.2439
1.2555	8.8623
1.256	11.88354
1.2565	15.71045
1.257	13.99841
1.2575	26.98975
1.258	24.97559
1.2585	26.58691
1.259	22.96143
1.2595	24.27063
1.26	24.87488
1.2605	16.61682
1.261	15.71045
1.2615	15.20691
1.262	15.60974
1.2625	9.66797
1.263	7.85522
1.2635	8.15735
1.264	6.44531
1.2645	7.85522
1.265	7.04956
1.2655	6.44531
1.266	3.7262
1.2665	7.25098
1.267	0.30212
1.2675	-1.00708
1.268	-1.81274
1.2685	-3.22266
1.269	-2.11487
1.2695	-3.52478
1.27	-6.44531
1.2705	-3.7262
1.271	-0.70496
1.2715	-0.80566
1.272	-1.61133
1.2725	-0.80566
1.273	-5.53894
1.2735	-4.12903
1.274	6.54602
1.2745	10.87646
1.275	16.41541
1.2755	20.04089
1.276	25.177
1.2765	21.55151
1.277	14.50195
1.2775	6.04248
1.278	15.60974
1.2785	11.98425
1.279	7.75452
1.2795	6.64673
1.28	0.60425
1.2805	1.3092
1.281	1.81274
1.2815	2.5177
1.282	1.40991
1.2825	-0.80566
1.283	-0.50354
1.2835	-1.81274
1.284	-1.00708
1.2845	-1.61133
1.285	-0.60425
1.2855	-1.71204
1.286	4.83398
1.2865	14.09912
1.287	8.66089
1.2875	8.96301
1.288	10.17151
1.2885	8.05664
1.289	13.39417
1.2895	13.39417
1.29	16.21399
1.2905	16.41541
1.291	13.89771
1.2915	4.33044
1.292	2.31628
1.2925	-2.61841
1.293	-1.71204
1.2935	-0.70496
1.294	-1.00708
1.2945	-2.61841
1.295	2.01416
1.2955	-2.41699
1.296	-4.43115
1.2965	-1.40991
1.297	-1.91345
1.2975	1.61133
1.298	5.23682
1.2985	5.84106
1.299	5.53894
1.2995	1.00708
1.3	4.93469
1.3005	4.93469
1.301	7.5531
1.3015	7.35168
1.302	11.88354
1.3025	21.04797
1.303	15.60974
1.3035	6.44531
1.304	8.25806
1.3045	11.58142
1.305	8.25806
1.3055	4.73328
1.306	14.90479
1.3065	15.40833
1.307	18.93311
1.3075	16.11328
1.308	18.42957
1.3085	22.55859
1.309	23.46497
1.3095	26.18408
1.31	19.43665
1.3105	15.91187
1.311	6.2439
1.3115	11.68213
1.312	3.32336
1.3125	4.63257
1.313	4.73328
1.3135	-3.12195
1.314	5.0354
1.3145	3.42407
1.315	1.61133
1.3155	-1.81274
1.316	-5.0354
1.3165	-6.04248
1.317	-7.04956
1.3175	-8.45947
1.318	-0.10071
1.3185	0.50354
1.319	2.11487
1.3195	9.76868
1.32	8.56018
1.3205	19.94019
1.321	19.63806
1.3215	18.53027
1.322	20.74585
1.3225	18.42957
1.323	18.8324
1.3235	18.42957
1.324	17.42249
1.3245	11.48071
1.325	12.99133
1.3255	10.87646
1.326	8.8623
1.3265	2.71912
1.327	2.92053
1.3275	-2.01416
1.328	-1.00708
1.3285	3.12195
1.329	3.02124
1.3295	8.25806
1.33	5.84106
1.3305	5.84106
1.331	8.35876
1.3315	6.14319
1.332	17.42249
1.3325	16.21399
1.333	9.56726
1.3335	9.97009
1.334	4.93469
1.3345	10.47363
1.335	2.31628
1.3355	2.41699
1.336	0.70496
1.3365	-7.15027
1.337	-10.87646
1.3375	-9.46655
1.338	-6.64673
1.3385	-5.84106
1.339	-1.3092
1.3395	-0.10071
1.34	3.7262
1.3405	5.0354
1.341	-2.81982
1.3415	-0.50354
1.342	3.52478
1.3425	4.93469
1.343	-1.2085
1.3435	10.67505
1.344	17.12036
1.3445	13.09204
1.345	18.53027
1.3455	17.92603
1.346	13.69629
1.3465	10.57434
1.347	9.16443
1.3475	6.2439
1.348	5.33752
1.3485	2.61841
1.349	0.70496
1.3495	0.90637
1.35	-2.31628
1.3505	-1.00708
1.351	1.81274
1.3515	-1.00708
1.352	-0.80566
1.3525	1.71204
1.353	2.81982
1.3535	-0.70496
1.354	-1.3092
1.3545	-0.30212
1.355	7.45239
1.3555	4.22974
1.356	3.62549
1.3565	8.7616
1.357	5.84106
1.3575	2.71912
1.358	3.7262
1.3585	2.31628
1.359	1.10779
1.3595	0.60425
1.36	-4.53186
1.3605	-0.10071
1.361	0.70496
1.3615	-2.41699
1.362	-2.81982
1.3625	-0.60425
1.363	0.80566
1.3635	2.81982
1.364	3.42407
1.3645	1.61133
1.365	1.40991
1.3655	2.01416
1.366	1.10779
1.3665	-3.92761
1.367	-2.61841
1.3675	0.10071
1.368	1.40991
1.3685	6.54602
1.369	6.74744
1.3695	12.89062
1.37	14.30054
1.3705	16.61682
1.371	16.51611
1.3715	12.28638
1.372	12.5885
1.3725	14.90479
1.373	20.74585
1.3735	16.91895
1.374	15.60974
1.3745	17.22107
1.375	13.89771
1.3755	13.39417
1.376	10.0708
1.3765	9.16443
1.377	3.7262
1.3775	5.53894
1.378	2.41699
1.3785	2.61841
1.379	4.33044
1.3795	6.3446
1.38	1.2085
1.3805	6.84814
1.381	1.2085
1.3815	7.04956
1.382	1.10779
1.3825	1.81274
1.383	2.5177
1.3835	4.12903
1.384	2.41699
1.3845	6.64673
1.385	6.84814
1.3855	2.41699
1.386	4.63257
1.3865	5.63965
1.387	4.83398
1.3875	7.5531
1.388	5.0354
1.3885	-0.50354
1.389	1.40991
1.3895	-0.70496
1.39	0.10071
1.3905	7.15027
1.391	5.94177
1.3915	7.35168
1.392	9.86938
1.3925	5.0354
1.393	5.53894
1.3935	4.33044
1.394	3.8269
1.3945	6.74744
1.395	6.3446
1.3955	10.27222
1.396	3.7262
1.3965	8.96301
1.397	1.2085
1.3975	4.73328
1.398	7.95593
1.3985	5.84106
1.399	10.27222
1.3995	4.53186
1.4	2.61841
1.4005	1.71204
1.401	-1.00708
1.4015	3.92761
1.402	5.94177
1.4025	1.2085
1.403	6.44531
1.4035	1.91345
1.404	4.22974
1.4045	3.12195
1.405	2.11487
1.4055	5.23682
1.406	4.83398
1.4065	5.33752
1.407	3.22266
1.4075	2.01416
1.408	5.84106
1.4085	0.70496
1.409	6.04248
1.4095	10.67505
1.41	1.00708
1.4105	5.0354
1.411	7.04956
1.4115	3.12195
1.412	4.63257
1.4125	5.0354
1.413	3.02124
1.4135	5.43823
1.414	8.56018
1.4145	9.06372
1.415	7.35168
1.4155	10.87646
1.416	8.25806
1.4165	6.04248
1.417	8.66089
1.4175	7.35168
1.418	8.15735
1.4185	0.80566
1.419	3.92761
1.4195	6.54602
1.42	5.84106
1.4205	9.06372
1.421	2.41699
1.4215	4.12903
1.422	2.81982
1.4225	5.84106
1.423	2.92053
1.4235	6.3446
1.424	8.35876
1.4245	12.38708
1.425	12.68921
1.4255	8.96301
1.426	9.36584
1.4265	4.12903
1.427	8.15735
1.4275	7.25098
1.428	3.8269
1.4285	8.7616
1.429	3.52478
1.4295	5.74036
1.43	8.15735
1.4305	3.62549
1.431	9.16443
1.4315	4.33044
1.432	5.13611
1.4325	0
1.433	7.5531
1.4335	7.15027
1.434	8.35876
1.4345	3.52478
1.435	2.21558
1.4355	9.56726
1.436	11.68213
1.4365	6.3446
1.437	6.14319
1.4375	3.42407
1.438	3.62549
1.4385	0.70496
1.439	0.90637
1.4395	0.90637
1.44	3.42407
1.4405	4.33044
1.441	0.90637
1.4415	2.81982
1.442	3.22266
1.4425	3.42407
1.443	4.43115
1.4435	4.53186
1.444	5.63965
1.4445	-1.81274
1.445	0.60425
1.4455	-2.11487
1.446	-2.21558
1.4465	-4.93469
1.447	2.01416
1.4475	-5.13611
1.448	-2.61841
1.4485	-1.51062
1.449	0.20142
1.4495	5.23682
1.45	-1.40991
1.4505	0.70496
1.451	4.33044
1.4515	4.22974
1.452	11.17859
1.4525	10.57434
1.453	10.97717
1.4535	18.22815
1.454	21.75293
1.4545	19.13452
1.455	12.18567
1.4555	17.72461
1.456	18.32886
1.4565	17.01965
1.457	21.95435
1.4575	13.29346
1.458	10.37292
1.4585	3.42407
1.459	1.40991
1.4595	-0.30212
1.46	-2.31628
1.4605	-2.61841
1.461	-0.80566
1.4615	2.01416
1.462	-0.20142
1.4625	2.41699
1.463	5.53894
1.4635	2.71912
1.464	1.91345
1.4645	3.22266
1.465	3.22266
1.4655	8.05664
1.466	15.20691
1.4665	9.46655
1.467	10.37292
1.4675	14.09912
1.468	13.19275
1.4685	10.17151
1.469	12.78992
1.4695	11.2793
1.47	14.09912
1.4705	12.99133
1.471	17.22107
1.4715	12.48779
1.472	7.65381
1.4725	8.96301
1.473	7.35168
1.4735	9.46655
1.474	3.62549
1.4745	9.26514
1.475	3.52478
1.4755	5.63965
1.476	6.54602
1.4765	5.74036
1.477	5.43823
1.4775	4.73328
1.478	1.91345
1.4785	4.83398
1.479	6.74744
1.4795	6.44531
1.48	7.25098
1.4805	6.74744
1.481	-0.20142
1.4815	4.53186
1.482	4.63257
1.4825	-1.10779
1.483	7.04956
1.4835	11.2793
1.484	7.25098
1.4845	7.85522
1.485	2.01416
1.4855	5.0354
1.486	4.63257
1.4865	6.84814
1.487	4.83398
1.4875	5.13611
1.488	5.84106
1.4885	4.43115
1.489	-2.71912
1.4895	5.43823
1.49	-1.71204
1.4905	1.2085
1.491	8.35876
1.4915	6.74744
1.492	4.83398
1.4925	5.74036
1.493	1.71204
1.4935	0.30212
1.494	3.32336
1.4945	-1.10779
1.495	5.53894
1.4955	8.15735
1.496	5.84106
1.4965	8.15735
1.497	3.32336
1.4975	7.65381
1.498	9.66797
1.4985	9.66797
1.499	9.26514
1.4995	9.86938
1.5	7.15027
1.5005	6.74744
1.501	5.94177
1.5015	8.35876
1.502	3.02124
1.5025	5.0354
1.503	7.04956
1.5035	3.8269
1.504	1.71204
1.5045	2.71912
1.505	-4.93469
1.5055	2.5177
1.506	-0.90637
1.5065	4.02832
1.507	6.2439
1.5075	4.63257
1.508	14.09912
1.5085	16.3147
1.509	16.3147
1.5095	18.93311
1.51	19.13452
1.5105	21.24939
1.511	17.12036
1.5115	14.80408
1.512	11.38
1.5125	8.35876
1.513	11.68213
1.5135	12.5885
1.514	12.78992
1.5145	9.86938
1.515	6.44531
1.5155	6.14319
1.516	8.25806
1.5165	4.83398
1.517	6.2439
1.5175	4.93469
1.518	5.94177
1.5185	9.36584
1.519	7.65381
1.5195	8.35876
1.52	9.56726
1.5205	5.63965
1.521	7.95593
1.5215	8.15735
1.522	9.76868
1.5225	11.07788
1.523	7.85522
1.5235	4.63257
1.524	2.31628
1.5245	5.94177
1.525	4.12903
1.5255	3.7262
1.526	8.25806
1.5265	5.23682
1.527	4.53186
1.5275	0
1.528	3.42407
1.5285	4.53186
1.529	4.02832
1.5295	1.2085
1.53	4.63257
1.5305	4.93469
1.531	9.56726
1.5315	7.25098
1.532	4.12903
1.5325	2.71912
1.533	5.43823
1.5335	5.13611
1.534	5.43823
1.5345	7.35168
1.535	8.35876
1.5355	13.89771
1.536	9.97009
1.5365	9.76868
1.537	8.15735
1.5375	5.13611
1.538	8.15735
1.5385	4.93469
1.539	8.25806
1.5395	9.76868
1.54	11.78284
1.5405	9.66797
1.541	5.43823
1.5415	2.11487
1.542	4.73328
1.5425	4.63257
1.543	-5.84106
1.5435	-18.53027
1.544	-25.88196
1.5445	-40.98816
1.545	-51.26038
1.5455	-57.20215
1.546	-61.12976
1.5465	-62.9425
1.547	-61.23047
1.5475	-59.71985
1.548	-53.47595
1.5485	-46.22498
1.549	-32.42798
1.5495	-20.1416
1.55	-4.43115
1.5505	9.97009
1.551	24.87488
1.5515	35.54993
1.552	46.42639
1.5525	53.57666
1.553	58.00781
1.5535	56.79932
1.554	54.38232
1.5545	53.47595
1.555	44.81506
1.5555	39.27612
1.556	35.54993
1.5565	33.63647
1.557	16.3147
1.5575	4.63257
1.558	1.81274
1.5585	11.88354
1.559	9.86938
1.5595	17.01965
1.56	27.09045
1.5605	35.04639
1.561	42.8009
1.5615	49.24622
1.562	54.38232
1.5625	47.63489
1.563	51.26038
1.5635	45.92285
1.564	38.77258
1.5645	39.57825
1.565	32.52869
1.5655	25.98267
1.566	19.63806
1.5665	23.66638
1.567	11.68213
1.5675	6.94885
1.568	11.17859
1.5685	17.82532
1.569	9.06372
1.5695	14.90479
1.57	10.37292
1.5705	9.76868
1.571	2.81982
1.5715	-2.11487
1.572	-3.8269
1.5725	-4.02832
1.573	-4.43115
1.5735	-3.42407
1.574	-5.63965
1.5745	-5.74036
1.575	-4.73328
1.5755	-5.94177
1.576	-7.35168
1.5765	-3.22266
1.577	-6.2439
1.5775	0.80566
1.578	10.47363
1.5785	12.99133
1.579	18.63098
1.5795	22.35718
1.58	25.68054
1.5805	28.80249
1.581	40.38391
1.5815	41.29028
1.582	35.54993
1.5825	32.32727
1.583	37.66479
1.5835	30.71594
1.584	30.2124
1.5845	26.48621
1.585	19.33594
1.5855	17.32178
1.586	13.69629
1.5865	15.30762
1.587	11.78284
1.5875	5.0354
1.588	2.92053
1.5885	-0.50354
1.589	-0.10071
1.5895	-0.60425
1.59	-6.74744
1.5905	-2.92053
1.591	-8.8623
1.5915	-9.56726
1.592	-2.81982
1.5925	-7.45239
1.593	-7.5531
1.5935	-8.15735
1.594	-5.13611
1.5945	-7.45239
1.595	-3.8269
1.5955	-9.16443
1.596	-11.88354
1.5965	-8.35876
1.597	-5.74036
1.5975	-5.0354
1.598	-4.33044
1.5985	4.33044
1.599	5.74036
1.5995	8.8623
1.6	-0.90637
1.6005	-0.60425
1.601	-12.68921
1.6015	-29.60815
1.602	-38.87329
1.6025	-42.29736
1.603	-48.33984
1.6035	-51.36108
1.604	-52.36816
1.6045	-47.33276
1.605	-35.34851
1.6055	-24.47205
1.606	-12.48779
1.6065	-1.81274
1.607	6.84814
1.6075	20.04089
1.608	31.52161
1.6085	38.87329
1.609	54.68445
1.6095	68.07861
1.61	73.51685
1.6105	76.13525
1.611	75.32959
1.6115	76.63879
1.612	66.76941
1.6125	61.43188
1.613	52.26746
1.6135	40.2832
1.614	31.72302
1.6145	32.22656
1.615	21.65222
1.6155	-11.98425
1.616	-31.92444
1.6165	-33.9386
1.617	-38.87329
1.6175	-41.89453
1.618	-44.41223
1.6185	-48.64197
1.619	-43.70728
1.6195	-40.08179
1.62	-33.83789
1.6205	-23.36426
1.621	-11.78284
1.6215	-6.74744
1.622	5.23682
1.6225	12.89062
1.623	21.75293
1.6235	18.53027
1.624	10.87646
1.6245	1.40991
1.625	-0.80566
1.6255	-5.74036
1.626	-8.66089
1.6265	-14.50195
1.627	-20.24231
1.6275	-24.16992
1.628	-18.63098
1.6285	-15.60974
1.629	-8.25806
1.6295	-5.23682
1.63	5.63965
1.6305	20.44373
1.631	37.06055
1.6315	58.10852
1.632	65.76233
1.6325	71.60339
1.633	66.6687
1.6335	62.13684
1.634	52.67029
1.6345	48.23914
1.635	41.59241
1.6355	36.75842
1.636	31.92444
1.6365	27.6947
1.637	11.38
1.6375	-1.71204
1.638	-4.43115
1.6385	0.40283
1.639	-4.33044
1.6395	-0.30212
1.64	8.96301
1.6405	14.40125
1.641	18.73169
1.6415	18.42957
1.642	21.24939
1.6425	22.76001
1.643	29.40674
1.6435	26.08337
1.644	28.9032
1.6445	30.41382
1.645	26.98975
1.6455	22.35718
1.646	16.21399
1.6465	9.26514
1.647	-2.11487
1.6475	6.94885
1.648	3.12195
1.6485	5.63965
1.649	1.00708
1.6495	1.3092
1.65	0.10071
1.6505	0.30212
1.651	4.22974
1.6515	3.7262
1.652	5.84106
1.6525	-10.0708
1.653	-22.25647
1.6535	-49.95117
1.654	-65.46021
1.6545	-68.17932
1.655	-81.06995
1.6555	-79.76074
1.656	-94.66553
1.6565	-86.91101
1.657	-86.60889
1.6575	-75.22888
1.658	-62.9425
1.6585	-53.67737
1.659	-38.36975
1.6595	-24.37134
1.66	-13.49487
1.6605	5.23682
1.661	18.93311
1.6615	30.2124
1.662	35.95276
1.6625	39.37683
1.663	43.30444
1.6635	39.57825
1.664	39.37683
1.6645	43.30444
1.665	47.43347
1.6655	50.95825
1.666	59.31702
1.6665	68.17932
1.667	55.49011
1.6675	33.53577
1.668	22.15576
1.6685	11.88354
1.669	6.94885
1.6695	2.71912
1.67	0.30212
1.6705	-9.16443
1.671	-7.5531
1.6715	-11.58142
1.672	-5.43823
1.6725	-7.15027
1.673	-1.51062
1.6735	8.7616
1.674	14.09912
1.6745	27.59399
1.675	44.31152
1.6755	57.40356
1.676	71.40198
1.6765	72.10693
1.677	72.9126
1.6775	70.99915
1.678	63.34534
1.6785	64.65454
1.679	55.08728
1.6795	49.24622
1.68	40.1825
1.6805	36.4563
1.681	31.21948
1.6815	26.28479
1.682	12.99133
1.6825	-2.31628
1.683	-5.43823
1.6835	-1.71204
1.684	5.53894
1.6845	4.73328
1.685	4.83398
1.6855	8.96301
1.686	8.96301
1.6865	8.96301
1.687	6.74744
1.6875	4.63257
1.688	2.31628
1.6885	6.3446
1.689	6.44531
1.6895	6.74744
1.69	4.63257
1.6905	12.18567
1.691	9.76868
1.6915	5.33752
1.692	-1.2085
1.6925	-4.02832
1.693	-17.12036
1.6935	-37.96692
1.694	-42.19666
1.6945	-48.84338
1.695	-55.49011
1.6955	-61.53259
1.696	-62.8418
1.6965	-62.8418
1.697	-60.92834
1.6975	-48.84338
1.698	-33.03223
1.6985	-27.6947
1.699	-11.2793
1.6995	5.94177
1.7	21.24939
1.7005	32.93152
1.701	50.65613
1.7015	65.05737
1.702	73.71826
1.7025	74.52393
1.703	72.20764
1.7035	68.48145
1.704	65.76233
1.7045	58.61206
1.705	52.8717
1.7055	46.72852
1.706	34.34143
1.7065	28.80249
1.707	16.01257
1.7075	1.81274
1.708	0.10071
1.7085	0.20142
1.709	-10.97717
1.7095	-27.29187
1.71	-49.0448
1.7105	-72.40906
1.711	-89.73083
1.7115	-97.68677
1.712	-104.03137
1.7125	-114.70642
1.713	-103.72925
1.7135	-100.00305
1.714	-91.745
1.7145	-81.57349
1.715	-65.05737
1.7155	-43.70728
1.716	-21.3501
1.7165	-1.40991
1.717	15.91187
1.7175	25.98267
1.718	29.50745
1.7185	33.03223
1.719	42.59949
1.7195	46.62781
1.72	57.9071
1.7205	57.00073
1.721	60.4248
1.7215	68.58215
1.722	73.91968
1.7225	71.40198
1.723	77.948
1.7235	84.19189
1.724	83.48694
1.7245	84.09119
1.725	85.09827
1.7255	88.92517
1.726	90.73792
1.7265	79.2572
1.727	63.94958
1.7275	47.43347
1.728	28.9032
1.7285	6.74744
1.729	-17.32178
1.7295	-34.94568
1.73	-38.57117
1.7305	-42.8009
1.731	-38.77258
1.7315	-35.44922
1.732	-29.20532
1.7325	-31.4209
1.733	-23.06213
1.7335	-18.8324
1.734	-12.78992
1.7345	-2.5177
1.735	9.66797
1.7355	25.88196
1.736	37.26196
1.7365	48.94409
1.737	55.18799
1.7375	54.78516
1.738	57.50427
1.7385	55.08728
1.739	45.92285
1.7395	36.05347
1.74	29.50745
1.7405	21.75293
1.741	21.65222
1.7415	22.76001
1.742	12.5885
1.7425	11.07788
1.743	-1.3092
1.7435	-13.29346
1.744	-12.18567
1.7445	-10.37292
1.745	-5.94177
1.7455	-13.99841
1.746	-12.38708
1.7465	-7.85522
1.747	-9.97009
1.7475	-11.88354
1.748	-8.15735
1.7485	-8.7616
1.749	-9.97009
1.7495	-9.36584
1.75	-11.38
1.7505	-14.19983
1.751	-11.07788
1.7515	-7.85522
1.752	-8.05664
1.7525	-8.56018
1.753	-13.89771
1.7535	-25.27771
1.754	-35.65063
1.7545	-40.08179
1.755	-34.74426
1.7555	-40.48462
1.756	-39.17542
1.7565	-39.98108
1.757	-36.4563
1.7575	-38.67188
1.758	-38.36975
1.7585	-43.10303
1.759	-39.98108
1.7595	-36.95984
1.76	-32.22656
1.7605	-30.91736
1.761	-27.99683
1.7615	-22.55859
1.762	-15.50903
1.7625	-4.02832
1.763	6.3446
1.7635	15.20691
1.764	28.19824
1.7645	38.16833
1.765	43.40515
1.7655	58.71277
1.766	64.85596
1.7665	75.53101
1.767	74.42322
1.7675	83.38623
1.768	78.45154
1.7685	72.50977
1.769	70.69702
1.7695	66.76941
1.77	62.74109
1.7705	60.22339
1.771	47.63489
1.7715	33.13293
1.772	26.28479
1.7725	21.14868
1.773	19.43665
1.7735	20.04089
1.774	19.63806
1.7745	15.20691
1.775	7.95593
1.7755	6.74744
1.776	0.40283
1.7765	-5.23682
1.777	-5.53894
1.7775	-10.67505
1.778	-12.18567
1.7785	-10.87646
1.779	-13.59558
1.7795	-2.11487
1.78	-8.35876
1.7805	-10.57434
1.781	-9.36584
1.7815	-8.05664
1.782	-7.45239
1.7825	-6.94885
1.783	-11.78284
1.7835	-13.09204
1.784	-11.98425
1.7845	-11.07788
1.785	-8.96301
1.7855	-16.41541
1.786	-9.97009
1.7865	-14.40125
1.787	-7.95593
1.7875	-9.76868
1.788	-5.84106
1.7885	-2.81982
1.789	-0.80566
1.7895	-6.54602
1.79	-0.60425
1.7905	4.73328
1.791	1.40991
1.7915	5.74036
1.792	10.17151
1.7925	7.5531
1.793	11.2793
1.7935	16.21399
1.794	14.09912
1.7945	7.75452
1.795	5.43823
1.7955	9.16443
1.796	3.62549
1.7965	5.94177
1.797	8.35876
1.7975	7.85522
1.798	2.5177
1.7985	1.40991
1.799	-2.92053
1.7995	-0.50354
1.8	-3.12195
1.8005	-5.13611
1.801	-4.43115
1.8015	-1.2085
1.802	-4.02832
1.8025	-4.02832
1.803	-0.60425
1.8035	1.3092
1.804	2.21558
1.8045	7.75452
1.805	3.12195
1.8055	-2.11487
1.806	-4.63257
1.8065	-1.40991
1.807	3.52478
1.8075	3.8269
1.808	-0.20142
1.8085	2.61841
1.809	1.71204
1.8095	-0.90637
1.81	1.71204
1.8105	3.42407
1.811	2.92053
1.8115	5.33752
1.812	2.61841
1.8125	5.63965
1.813	5.63965
1.8135	1.2085
1.814	-0.30212
1.8145	-1.00708
1.815	-0.30212
1.8155	-1.3092
1.816	3.02124
1.8165	-0.60425
1.817	-3.12195
1.8175	-3.32336
1.818	-0.20142
1.8185	-8.8623
1.819	-12.08496
1.8195	-20.74585
1.82	-18.32886
1.8205	-13.19275
1.821	-17.92603
1.8215	-17.42249
1.822	-15.91187
1.8225	-33.23364
1.823	-71.30127
1.8235	-92.04712
1.824	-102.42004
1.8245	-110.98022
1.825	-113.49792
1.8255	-103.62854
1.826	-97.18323
1.8265	-69.1864
1.827	-50.95825
1.8275	-42.29736
1.828	-30.51453
1.8285	-21.3501
1.829	-10.17151
1.8295	-1.2085
1.83	13.39417
1.8305	20.74585
1.831	35.54993
1.8315	27.19116
1.832	23.16284
1.8325	9.46655
1.833	2.41699
1.8335	-4.53186
1.834	-8.35876
1.8345	2.21558
1.835	8.45947
1.8355	16.21399
1.836	16.21399
1.8365	28.80249
1.837	42.09595
1.8375	56.5979
1.838	80.26428
1.8385	102.52075
1.839	119.13757
1.8395	126.69067
1.84	133.63953
1.8405	139.07776
1.841	126.18713
1.8415	122.96448
1.842	108.1604
1.8425	93.35632
1.843	76.13525
1.8435	58.81348
1.844	43.20374
1.8445	29.20532
1.845	10.17151
1.8455	-4.02832
1.846	-9.36584
1.8465	-3.92761
1.847	0.10071
1.8475	13.09204
1.848	7.15027
1.8485	5.74036
1.849	3.8269
1.8495	4.93469
1.85	2.01416
1.8505	2.21558
1.851	-2.21558
1.8515	1.81274
1.852	-4.93469
1.8525	-7.65381
1.853	-5.43823
1.8535	-4.73328
1.854	-1.71204
1.8545	-1.91345
1.855	0.70496
1.8555	-4.53186
1.856	-1.51062
1.8565	-0.60425
1.857	5.33752
1.8575	0.90637
1.858	5.84106
1.8585	-2.21558
1.859	-1.71204
1.8595	3.52478
1.86	-0.90637
1.8605	0.90637
1.861	-4.22974
1.8615	6.2439
1.862	6.84814
1.8625	3.8269
1.863	2.71912
1.8635	1.51062
1.864	-3.62549
1.8645	-2.31628
1.865	1.10779
1.8655	2.01416
1.866	-5.84106
1.8665	-2.71912
1.867	-2.5177
1.8675	-8.66089
1.868	-7.75452
1.8685	-5.63965
1.869	-10.67505
1.8695	-7.25098
1.87	1.10779
1.8705	2.11487
1.871	-0.20142
1.8715	7.35168
1.872	1.91345
1.8725	-1.2085
1.873	0.20142
1.8735	-2.41699
1.874	-0.20142
1.8745	-2.92053
1.875	0.70496
1.8755	-2.71912
1.876	-0.60425
1.8765	-1.51062
1.877	-0.30212
1.8775	1.51062
1.878	6.54602
1.8785	11.48071
1.879	9.56726
1.8795	11.58142
1.88	14.90479
1.8805	12.89062
1.881	21.04797
1.8815	23.66638
1.882	21.24939
1.8825	18.8324
1.883	7.75452
1.8835	15.50903
1.884	22.05505
1.8845	17.42249
1.885	20.84656
1.8855	19.83948
1.886	21.14868
1.8865	19.43665
1.887	16.71753
1.8875	8.25806
1.888	8.8623
1.8885	8.7616
1.889	8.05664
1.8895	1.71204
1.89	-1.3092
1.8905	3.02124
1.891	0.60425
1.8915	2.01416
1.892	3.02124
1.8925	6.14319
1.893	5.63965
1.8935	3.92761
1.894	8.45947
1.8945	1.10779
1.895	9.97009
1.8955	3.8269
1.896	0.50354
1.8965	-2.92053
1.897	-2.71912
1.8975	-0.80566
1.898	-3.22266
1.8985	-3.92761
1.899	-10.37292
1.8995	-17.32178
1.9	-20.64514
1.9005	-22.76001
1.901	-27.29187
1.9015	-20.04089
1.902	-17.42249
1.9025	-16.71753
1.903	-11.78284
1.9035	-6.74744
1.904	-0.40283
1.9045	-1.81274
1.905	-3.32336
1.9055	-0.90637
1.906	4.33044
1.9065	7.15027
1.907	13.29346
1.9075	15.71045
1.908	20.54443
1.9085	27.19116
1.909	28.19824
1.9095	34.34143
1.91	43.00232
1.9105	44.71436
1.911	37.7655
1.9115	36.85913
1.912	37.86621
1.9125	33.33435
1.913	19.53735
1.9135	10.77576
1.914	2.5177
1.9145	-1.10779
1.915	-6.84814
1.9155	-3.22266
1.916	-1.40991
1.9165	-6.84814
1.917	-19.33594
1.9175	-26.18408
1.918	-42.39807
1.9185	-40.98816
1.919	-44.51294
1.9195	-46.72852
1.92	-51.15967
1.9205	-50.85754
1.921	-45.62073
1.9215	-41.18958
1.922	-38.47046
1.9225	-32.7301
1.923	-18.02673
1.9235	-13.99841
1.924	-5.43823
1.9245	1.2085
1.925	8.15735
1.9255	4.83398
1.926	5.23682
1.9265	3.42407
1.927	2.92053
1.9275	6.2439
1.928	5.53894
1.9285	4.22974
1.929	-1.00708
1.9295	2.92053
1.93	2.01416
1.9305	-1.71204
1.931	-9.06372
1.9315	-23.46497
1.932	-23.36426
1.9325	-19.53735
1.933	-10.67505
1.9335	-3.7262
1.934	9.86938
1.9345	25.27771
1.935	30.71594
1.9355	37.56409
1.936	41.18958
1.9365	50.55542
1.937	67.47437
1.9375	77.04163
1.938	75.73242
1.9385	79.86145
1.939	86.8103
1.9395	90.93933
1.94	82.9834
1.9405	74.52393
1.941	62.13684
1.9415	50.75684
1.942	34.54285
1.9425	20.24231
1.943	15.30762
1.9435	1.51062
1.944	-5.43823
1.9445	-9.36584
1.945	-3.02124
1.9455	1.51062
1.946	2.5177
1.9465	2.92053
1.947	5.74036
1.9475	4.83398
1.948	4.93469
1.9485	7.75452
1.949	3.92761
1.9495	5.84106
1.95	-2.92053
1.9505	3.92761
1.951	-2.61841
1.9515	-2.11487
1.952	-2.81982
1.9525	-4.33044
1.953	-5.94177
1.9535	-5.13611
1.954	-7.65381
1.9545	-7.25098
1.955	-5.94177
1.9555	-8.8623
1.956	-10.17151
1.9565	-12.08496
1.957	-10.0708
1.9575	-7.45239
1.958	-0.70496
1.9585	-1.51062
1.959	2.71912
1.9595	-2.11487
1.96	3.22266
1.9605	8.8623
1.961	6.44531
1.9615	4.53186
1.962	7.65381
1.9625	9.86938
1.963	9.36584
1.9635	11.07788
1.964	3.22266
1.9645	2.11487
1.965	7.75452
1.9655	4.02832
1.966	3.52478
1.9665	4.73328
1.967	-4.73328
1.9675	-7.25098
1.968	-8.15735
1.9685	-6.64673
1.969	-11.2793
1.9695	-8.05664
1.97	-8.7616
1.9705	-12.48779
1.971	-18.8324
1.9715	-22.35718
1.972	-22.96143
1.9725	-20.34302
1.973	-20.74585
1.9735	-15.71045
1.974	-9.06372
1.9745	-5.53894
1.975	4.33044
1.9755	10.67505
1.976	7.85522
1.9765	26.58691
1.977	31.52161
1.9775	23.56567
1.978	26.48621
1.9785	27.39258
1.979	12.89062
1.9795	6.44531
1.98	-2.71912
1.9805	-4.12903
1.981	-4.02832
1.9815	-3.22266
1.982	1.81274
1.9825	3.42407
1.983	-2.41699
1.9835	-9.36584
1.984	-7.15027
1.9845	-6.94885
1.985	-0.40283
1.9855	6.54602
1.986	9.76868
1.9865	18.22815
1.987	21.75293
1.9875	23.06213
1.988	23.16284
1.9885	25.68054
1.989	28.19824
1.9895	31.82373
1.99	23.06213
1.9905	27.19116
1.991	32.83081
1.9915	28.09753
1.992	21.24939
1.9925	18.12744
1.993	13.69629
1.9935	9.97009
1.994	6.3446
1.9945	8.35876
1.995	0.90637
1.9955	-4.02832
1.996	3.12195
1.9965	-4.12903
1.997	-8.45947
1.9975	-2.31628
1.998	-2.01416
1.9985	-8.7616
1.999	-6.84814
1.9995	-8.45947
2	-4.63257
2.0005	0.20142
2.001	-6.74744
2.0015	-8.05664
2.002	-6.84814
2.0025	-3.32336
2.003	1.71204
2.0035	-3.02124
2.004	-8.45947
2.0045	-10.17151
2.005	-1.51062
2.0055	-3.92761
2.006	-7.35168
2.0065	-5.53894
2.007	-4.22974
2.0075	-6.64673
2.008	-13.19275
2.0085	-7.85522
2.009	-12.48779
2.0095	-10.87646
2.01	-12.38708
2.0105	-8.66089
2.011	-8.96301
2.0115	-5.84106
2.012	-1.71204
2.0125	-0.40283
2.013	3.8269
2.0135	3.12195
2.014	6.44531
2.0145	10.57434
2.015	9.66797
2.0155	7.85522
2.016	14.70337
2.0165	13.29346
2.017	15.1062
2.0175	13.39417
2.018	14.70337
2.0185	16.71753
2.019	20.74585
2.0195	14.40125
2.02	16.01257
2.0205	20.84656
2.021	17.6239
2.0215	14.50195
2.022	5.74036
2.0225	1.71204
2.023	-3.12195
2.0235	-2.11487
2.024	-2.21558
2.0245	-1.81274
2.025	0.70496
2.0255	-1.40991
2.026	2.61841
2.0265	-0.90637
2.027	1.3092
2.0275	2.41699
2.028	4.83398
2.0285	5.94177
2.029	8.66089
2.0295	11.48071
2.03	8.05664
2.0305	7.5531
2.031	7.75452
2.0315	6.74744
2.032	12.68921
2.0325	8.7616
2.033	11.58142
2.0335	8.66089
2.034	1.91345
2.0345	1.91345
2.035	0
2.0355	-2.61841
2.036	-2.01416
2.0365	0.80566
2.037	-3.02124
2.0375	-2.81982
2.038	9.86938
2.0385	4.73328
2.039	6.04248
2.0395	-2.21558
2.04	3.22266
2.0405	-2.41699
2.041	-1.10779
2.0415	-6.44531
2.042	-6.2439
2.0425	-5.84106
2.043	-3.52478
2.0435	-5.0354
2.044	0
2.0445	-0.30212
2.045	-2.61841
2.0455	-4.33044
2.046	-6.74744
2.0465	-8.35876
2.047	-12.48779
2.0475	-9.06372
2.048	-13.39417
2.0485	-11.58142
2.049	-11.48071
2.0495	-17.42249
2.05	-11.98425
2.0505	-23.96851
2.051	-26.3855
2.0515	-24.16992
2.052	-13.09204
2.0525	-9.46655
2.053	-7.65381
2.0535	-11.78284
2.054	-4.43115
2.0545	-1.2085
2.055	-9.56726
2.0555	-18.8324
2.056	-24.67346
2.0565	-27.89612
2.057	-17.42249
2.0575	-15.50903
2.058	-28.60107
2.0585	-31.52161
2.059	-42.49878
2.0595	-39.27612
2.06	-32.12585
2.0605	-25.78125
2.061	-18.02673
2.0615	-8.25806
2.062	-10.37292
2.0625	-18.32886
2.063	-18.73169
2.0635	-25.68054
2.064	-30.11169
2.0645	-14.80408
2.065	-0.10071
2.0655	22.86072
2.066	46.5271
2.0665	70.89844
2.067	98.79456
2.0675	109.4696
2.068	125.38147
2.0685	126.18713
2.069	137.46643
2.0695	139.88342
2.07	137.36572
2.0705	128.302
2.071	112.59155
2.0715	88.0188
2.072	64.55383
2.0725	54.38232
2.073	44.31152
2.0735	28.09753
2.074	13.797
2.0745	11.58142
2.075	-2.81982
2.0755	-12.28638
2.076	-20.04089
2.0765	-17.42249
2.077	-21.65222
2.0775	-17.42249
2.078	-13.19275
2.0785	-14.50195
2.079	-15.60974
2.0795	-11.07788
2.08	-4.83398
2.0805	-7.95593
2.081	-15.1062
2.0815	-16.91895
2.082	-13.69629
2.0825	-11.68213
2.083	-6.2439
2.0835	-7.15027
2.084	-2.31628
2.0845	-4.73328
2.085	-7.15027
2.0855	-7.45239
2.086	-7.04956
2.0865	-6.94885
2.087	-2.92053
2.0875	-8.45947
2.088	-5.53894
2.0885	-4.12903
2.089	-3.92761
2.0895	-4.02832
2.09	1.91345
2.0905	2.61841
2.091	2.11487
2.0915	-1.00708
2.092	6.04248
2.0925	5.0354
2.093	1.71204
2.0935	-2.5177
2.094	0.30212
2.0945	-3.42407
2.095	-3.52478
2.0955	-1.00708
2.096	-0.70496
2.0965	7.35168
2.097	5.33752
2.0975	9.46655
2.098	19.73877
2.0985	25.57983
2.099	22.25647
2.0995	20.04089
2.1	26.28479
2.1005	22.96143
2.101	28.70178
2.1015	26.58691
2.102	23.16284
2.1025	18.22815
2.103	15.00549
2.1035	12.99133
2.104	9.56726
2.1045	6.84814
2.105	9.76868
2.1055	1.40991
2.106	-0.50354
2.1065	2.41699
2.107	-0.40283
2.1075	-0.50354
2.108	-1.10779
2.1085	-1.51062
2.109	0.50354
2.1095	-0.80566
2.11	-4.43115
2.1105	-4.53186
2.111	4.63257
2.1115	-18.42957
2.112	-44.31152
2.1125	-68.78357
2.113	-104.93774
2.1135	-112.08801
2.114	-117.22412
2.1145	-117.02271
2.115	-112.99438
2.1155	-105.44128
2.116	-88.52234
2.1165	-62.64038
2.117	-43.90869
2.1175	-20.24231
2.118	2.71912
2.1185	27.59399
2.119	46.72852
2.1195	63.74817
2.12	78.25012
2.1205	89.12659
2.121	96.27686
2.1215	101.9165
2.122	105.94482
2.1225	102.01721
2.123	100.10376
2.1235	96.67969
2.124	74.52393
2.1245	57.8064
2.125	43.30444
2.1255	50.15259
2.126	51.66321
2.1265	53.77808
2.127	44.81506
2.1275	31.11877
2.128	21.95435
2.1285	10.87646
2.129	12.99133
2.1295	6.84814
2.13	2.31628
2.1305	2.01416
2.131	7.75452
2.1315	6.2439
2.132	4.53186
2.1325	-1.00708
2.133	-8.66089
2.1335	-15.81116
2.134	-19.43665
2.1345	-26.88904
2.135	-25.37842
2.1355	-30.61523
2.136	-53.47595
2.1365	-109.67102
2.137	-147.33582
2.1375	-173.41919
2.138	-196.38062
2.1385	-199.09973
2.139	-200.81177
2.1395	-181.073
2.14	-156.19812
2.1405	-130.71899
2.141	-93.55774
2.1415	-64.75525
2.142	-45.3186
2.1425	-15.30762
2.143	12.28638
2.1435	48.13843
2.144	73.21472
2.1445	87.11243
2.145	88.11951
2.1455	81.67419
2.146	73.41614
2.1465	69.1864
2.147	60.82764
2.1475	60.02197
2.148	76.33667
2.1485	93.55774
2.149	107.95898
2.1495	128.60413
2.15	134.24377
2.1505	130.01404
2.151	134.84802
2.1515	154.98962
2.152	165.9668
2.1525	166.57104
2.153	148.74573
2.1535	143.10608
2.154	139.27917
2.1545	125.7843
2.155	93.55774
2.1555	46.12427
2.156	1.40991
2.1565	-35.65063
2.157	-79.2572
2.1575	-114.20288
2.158	-143.71033
2.1585	-185.70557
2.159	-206.95496
2.1595	-215.91797
2.16	-215.81726
2.1605	-208.66699
2.161	-201.01318
2.1615	-183.5907
2.162	-163.14697
2.1625	-136.76147
2.163	-111.48376
2.1635	-79.76074
2.164	-30.91736
2.1645	19.23523
2.165	63.74817
2.1655	123.16589
2.166	175.83618
2.1665	204.43726
2.167	212.99744
2.1675	215.61584
2.168	226.49231
2.1685	191.34521
2.169	147.83936
2.1695	110.77881
2.17	64.35242
2.1705	20.74585
2.171	-17.6239
2.1715	-39.67896
2.172	-46.42639
2.1725	-61.6333
2.173	-69.1864
2.1735	-53.37524
2.174	-21.24939
2.1745	13.99841
2.175	49.24622
2.1755	77.74658
2.176	88.52234
2.1765	105.03845
2.177	115.51208
2.1775	121.65527
2.178	133.63953
2.1785	131.42395
2.179	126.79138
2.1795	119.4397
2.18	106.54907
2.1805	102.52075
2.181	82.68127
2.1815	61.02905
2.182	47.33276
2.1825	32.83081
2.183	11.88354
2.1835	-29.91028
2.184	-57.9071
2.1845	-81.7749
2.185	-90.83862
2.1855	-90.03296
2.186	-89.63013
2.1865	-76.13525
2.187	-67.8772
2.1875	-68.78357
2.188	-66.16516
2.1885	-73.61755
2.189	-75.12817
2.1895	-78.14941
2.19	-75.12817
2.1905	-81.27136
2.191	-77.64587
2.1915	-78.45154
2.192	-87.41455
2.1925	-137.76855
2.193	-166.97388
2.1935	-169.59229
2.194	-147.33582
2.1945	-129.91333
2.195	-96.17615
2.1955	-56.19507
2.196	-5.74036
2.1965	36.35559
2.197	75.63171
2.1975	115.51208
2.198	141.69617
2.1985	164.35547
2.199	183.89282
2.1995	208.86841
2.2	217.02576
2.2005	215.41443
2.201	197.89124
2.2015	177.74963
2.202	153.3783
2.2025	129.20837
2.203	108.66394
2.2035	86.8103
2.204	70.3949
2.2045	69.08569
2.205	69.28711
2.2055	65.46021
2.206	42.39807
2.2065	25.57983
2.207	14.30054
2.2075	0.20142
2.208	-15.20691
2.2085	-43.00232
2.209	-72.00623
2.2095	-99.09668
2.21	-111.68518
2.2105	-122.36023
2.211	-129.5105
2.2115	-144.6167
2.212	-151.86768
2.2125	-141.79688
2.213	-121.65527
2.2135	-103.52783
2.214	-89.02588
2.2145	-72.20764
2.215	-50.15259
2.2155	-25.177
2.216	-2.01416
2.2165	26.88904
2.217	40.98816
2.2175	60.4248
2.218	67.8772
2.2185	85.5011
2.219	89.73083
2.2195	92.75208
2.22	77.84729
2.2205	68.78357
2.221	75.02747
2.2215	74.62463
2.222	72.00623
2.2225	50.2533
2.223	23.8678
2.2235	-1.61133
2.224	-43.40515
2.2245	-108.96606
2.225	-143.50891
2.2255	-155.19104
2.226	-152.97546
2.2265	-136.66077
2.227	-112.89368
2.2275	-89.02588
2.228	-55.59082
2.2285	-12.08496
2.229	26.18408
2.2295	63.44604
2.23	114.80713
2.2305	137.56714
2.231	162.44202
2.2315	183.69141
2.232	185.10132
2.2325	182.78503
2.233	162.03918
2.2335	143.81104
2.234	112.89368
2.2345	99.09668
2.235	84.99756
2.2355	83.28552
2.236	80.36499
2.2365	65.86304
2.237	52.46887
2.2375	43.90869
2.238	48.03772
2.2385	46.22498
2.239	34.24072
2.2395	23.8678
2.24	21.85364
2.2405	14.60266
2.241	3.12195
2.2415	-9.16443
2.242	-13.49487
2.2425	-35.34851
2.243	-64.95667
2.2435	-78.55225
2.244	-74.32251
2.2445	-69.08569
2.245	-58.00781
2.2455	-51.26038
2.246	-41.18958
2.2465	-39.17542
2.247	-34.24072
2.2475	-27.29187
2.248	-20.64514
2.2485	-9.46655
2.249	10.77576
2.2495	16.01257
2.25	24.87488
2.2505	41.18958
2.251	36.95984
2.2515	38.57117
2.252	40.2832
2.2525	42.90161
2.253	33.33435
2.2535	33.33435
2.254	30.41382
2.2545	19.03381
2.255	17.42249
2.2555	10.0708
2.256	-2.11487
2.2565	-14.30054
2.257	-16.61682
2.2575	-16.41541
2.258	-17.22107
2.2585	-14.50195
2.259	-15.60974
2.2595	-25.78125
2.26	-40.68604
2.2605	-45.11719
2.261	-38.26904
2.2615	-33.33435
2.262	-33.53577
2.2625	-30.41382
2.263	-26.08337
2.2635	-30.31311
2.264	-34.54285
2.2645	-44.71436
2.265	-48.03772
2.2655	-52.36816
2.266	-52.97241
2.2665	-53.47595
2.267	-59.51843
2.2675	-74.52393
2.268	-76.03455
2.2685	-80.4657
2.269	-87.21313
2.2695	-86.20605
2.27	-69.58923
2.2705	-46.82922
2.271	-20.94727
2.2715	16.91895
2.272	46.32568
2.2725	49.14551
2.273	57.50427
2.2735	72.40906
2.274	81.67419
2.2745	81.67419
2.275	61.02905
2.2755	36.55701
2.276	-3.92761
2.2765	-38.16833
2.277	-68.48145
2.2775	-72.10693
2.278	-80.4657
2.2785	-80.16357
2.279	-97.58606
2.2795	-111.38306
2.28	-119.74182
2.2805	-110.47668
2.281	-74.62463
2.2815	-50.45471
2.282	-20.84656
2.2825	12.28638
2.283	40.1825
2.2835	60.82764
2.284	77.74658
2.2845	93.0542
2.285	104.23279
2.2855	114.30359
2.286	146.12732
2.2865	162.34131
2.287	164.25476
2.2875	145.12024
2.288	136.35864
2.2885	139.5813
2.289	147.83936
2.2895	157.50732
2.29	151.36414
2.2905	132.22961
2.291	104.53491
2.2915	90.03296
2.292	70.49561
2.2925	57.60498
2.293	49.85046
2.2935	43.30444
2.294	33.63647
2.2945	18.12744
2.295	5.33752
2.2955	-5.53894
2.296	-15.40833
2.2965	-19.03381
2.297	-27.29187
2.2975	-31.92444
2.298	-38.16833
2.2985	-39.88037
2.299	-39.27612
2.2995	-42.09595
2.3	-36.4563
2.3005	-35.95276
2.301	-37.7655
2.3015	-32.22656
2.302	-27.6947
2.3025	-23.26355
2.303	-15.71045
2.3035	-17.42249
2.304	-6.54602
2.3045	2.01416
2.305	5.74036
2.3055	7.45239
2.306	8.8623
2.3065	6.2439
2.307	8.35876
2.3075	1.51062
2.308	-0.30212
2.3085	-3.22266
2.309	-6.3446
2.3095	-16.3147
2.31	-30.11169
2.3105	-36.75842
2.311	-40.68604
2.3115	-36.25488
2.312	-42.19666
2.3125	-33.23364
2.313	-23.66638
2.3135	-25.07629
2.314	-18.32886
2.3145	-26.18408
2.315	-30.01099
2.3155	-35.2478
2.316	-54.18091
2.3165	-97.58606
2.317	-129.61121
2.3175	-135.65369
2.318	-122.25952
2.3185	-103.02429
2.319	-77.84729
2.3195	-58.81348
2.32	-49.34692
2.3205	-61.6333
2.321	-65.15808
2.3215	-57.70569
2.322	-47.33276
2.3225	-75.4303
2.323	-109.57031
2.3235	-112.89368
2.324	-89.93225
2.3245	-61.6333
2.325	-35.54993
2.3255	-15.91187
2.326	7.85522
2.3265	27.49329
2.327	59.82056
2.3275	84.19189
2.328	114.4043
2.3285	131.52466
2.329	139.98413
2.3295	141.09192
2.33	122.05811
2.3305	104.53491
2.331	94.3634
2.3315	61.12976
2.332	34.24072
2.3325	18.22815
2.333	-1.3092
2.3335	-41.18958
2.334	-52.56958
2.3345	-64.25171
2.335	-69.1864
2.3355	-66.97083
2.336	-58.20923
2.3365	-34.54285
2.337	2.21558
2.3375	30.31311
2.338	65.3595
2.3385	103.02429
2.339	136.15723
2.3395	161.53564
2.34	171.10291
2.3405	185.90698
2.341	192.25159
2.3415	195.37354
2.342	188.52539
2.3425	164.55688
2.343	124.77722
2.3435	81.47278
2.344	34.24072
2.3445	-19.83948
2.345	-60.12268
2.3455	-79.2572
2.346	-79.05579
2.3465	-100.90942
2.347	-177.85034
2.3475	-220.95337
2.348	-227.6001
2.3485	-223.47107
2.349	-218.23425
2.3495	-230.01709
2.35	-234.04541
2.3505	-219.34204
2.351	-200.30823
2.3515	-172.71423
2.352	-145.22095
2.3525	-119.54041
2.353	-91.34216
2.3535	-57.40356
2.354	-13.797
2.3545	38.06763
2.355	94.06128
2.3555	146.93298
2.356	200.30823
2.3565	244.82117
2.357	258.01392
2.3575	258.21533
2.358	252.37427
2.3585	253.78418
2.359	251.87073
2.3595	235.25391
2.36	200.71106
2.3605	161.63635
2.361	129.00696
2.3615	97.58606
2.362	73.61755
2.3625	47.03064
2.363	11.17859
2.3635	-5.94177
2.364	-15.81116
2.3645	-26.68762
2.365	-35.34851
2.3655	-47.7356
2.366	-61.6333
2.3665	-83.28552
2.367	-108.36182
2.3675	-112.79297
2.368	-118.33191
2.3685	-123.16589
2.369	-118.2312
2.3695	-100.6073
2.37	-75.02747
2.3705	-79.96216
2.371	-76.33667
2.3715	-68.07861
2.372	-34.44214
2.3725	4.02832
2.373	42.90161
2.3735	78.85437
2.374	115.61279
2.3745	141.99829
2.375	163.24768
2.3755	161.0321
2.376	168.28308
2.3765	163.4491
2.377	152.67334
2.3775	130.92041
2.378	108.05969
2.3785	86.00464
2.379	60.3241
2.3795	36.15417
2.38	-8.35876
2.3805	-66.87012
2.381	-187.92114
2.3815	-275.4364
2.382	-304.3396
2.3825	-300.00916
2.383	-294.77234
2.3835	-296.88721
2.384	-283.49304
2.3845	-241.09497
2.385	-180.26733
2.3855	-112.49084
2.386	-64.35242
2.3865	-32.7301
2.387	-3.32336
2.3875	36.55701
2.388	60.82764
2.3885	79.2572
2.389	92.75208
2.3895	113.49792
2.39	113.1958
2.3905	104.93774
2.391	109.16748
2.3915	106.8512
2.392	102.21863
2.3925	102.11792
2.393	102.62146
2.3935	101.11084
2.394	79.76074
2.3945	39.67896
2.395	-11.38
2.3955	-31.4209
2.396	-26.08337
2.3965	-36.65771
2.397	-30.61523
2.3975	-22.55859
2.398	-25.177
2.3985	-12.99133
2.399	-3.02124
2.3995	-10.0708
2.4	-7.85522
2.4005	-6.14319
2.401	12.78992
2.4015	35.75134
2.402	53.07312
2.4025	73.81897
2.403	80.06287
2.4035	99.90234
2.404	109.16748
2.4045	119.54041
2.405	130.61829
2.4055	152.97546
2.406	152.87476
2.4065	143.71033
2.407	117.32483
2.4075	97.48535
2.408	97.48535
2.4085	93.65845
2.409	90.03296
2.4095	65.66162
2.41	48.33984
2.4105	38.47046
2.411	35.75134
2.4115	35.65063
2.412	34.94568
2.4125	27.6947
2.413	17.32178
2.4135	19.53735
2.414	19.03381
2.4145	19.03381
2.415	16.61682
2.4155	5.23682
2.416	-9.36584
2.4165	-19.53735
2.417	-37.86621
2.4175	-52.56958
2.418	-61.6333
2.4185	-64.151
2.419	-58.81348
2.4195	-60.52551
2.42	-75.32959
2.4205	-104.4342
2.421	-117.72766
2.4215	-107.45544
2.422	-106.44836
2.4225	-97.48535
2.423	-80.86853
2.4235	-57.00073
2.424	-43.20374
2.4245	-34.34143
2.425	-29.30603
2.4255	-18.8324
2.426	-10.67505
2.4265	-17.72461
2.427	-21.65222
2.4275	-16.81824
2.428	-5.0354
2.4285	1.10779
2.429	2.71912
2.4295	0.80566
2.43	-5.0354
2.4305	-3.92761
2.431	2.11487
2.4315	-15.50903
2.432	-43.50586
2.4325	-60.22339
2.433	-64.151
2.4335	-71.7041
2.434	-75.93384
2.4345	-80.36499
2.435	-57.10144
2.4355	-33.03223
2.436	-32.22656
2.4365	-37.96692
2.437	-40.68604
2.4375	-25.47913
2.438	-16.01257
2.4385	4.83398
2.439	29.10461
2.4395	35.95276
2.44	33.33435
2.4405	27.29187
2.441	36.05347
2.4415	48.44055
2.442	49.0448
2.4425	54.78516
2.443	72.81189
2.4435	95.87402
2.444	106.75049
2.4445	98.59314
2.445	92.24854
2.4455	110.07385
2.446	132.63245
2.4465	132.0282
2.447	137.16431
2.4475	138.47351
2.448	146.32874
2.4485	163.04626
2.449	161.33423
2.4495	136.25793
2.45	107.65686
2.4505	92.75208
2.451	77.24304
2.4515	60.92834
2.452	51.05896
2.4525	44.0094
2.453	26.98975
2.4535	18.8324
2.454	12.68921
2.4545	6.14319
2.455	-19.23523
2.4555	-64.05029
2.456	-87.11243
2.4565	-86.30676
2.457	-81.27136
2.4575	-70.59631
2.458	-64.75525
2.4585	-47.13135
2.459	-32.12585
2.4595	-23.96851
2.46	-45.92285
2.4605	-59.1156
2.461	-57.40356
2.4615	-43.30444
2.462	-36.05347
2.4625	-67.77649
2.463	-124.57581
2.4635	-165.06042
2.464	-166.77246
2.4645	-155.59387
2.465	-133.63953
2.4655	-97.28394
2.466	-54.48303
2.4665	-6.94885
2.467	30.91736
2.4675	50.2533
2.468	76.7395
2.4685	102.11792
2.469	132.63245
2.4695	139.48059
2.47	110.87952
2.4705	85.19897
2.471	61.73401
2.4715	60.22339
2.472	54.48303
2.4725	49.54834
2.473	30.51453
2.4735	17.32178
2.474	-3.62549
2.4745	-26.98975
2.475	-35.65063
2.4755	-23.96851
2.476	-54.68445
2.4765	-93.35632
2.477	-94.96765
2.4775	-71.40198
2.478	-49.44763
2.4785	-21.75293
2.479	9.26514
2.4795	43.30444
2.48	73.11401
2.4805	98.49243
2.481	121.25244
2.4815	146.22803
2.482	156.80237
2.4825	153.57971
2.483	133.53882
2.4835	119.94324
2.484	104.13208
2.4845	75.32959
2.485	52.46887
2.4855	32.93152
2.486	17.42249
2.4865	4.12903
2.487	-14.50195
2.4875	-25.177
2.488	-29.70886
2.4885	-28.50037
2.489	-26.68762
2.4895	-47.13135
2.49	-55.89294
2.4905	-55.99365
2.491	-50.15259
2.4915	-47.13135
2.492	-40.88745
2.4925	-27.09045
2.493	-15.91187
2.4935	-4.12903
2.494	-6.3446
2.4945	4.53186
2.495	15.81116
2.4955	15.91187
2.496	18.12744
2.4965	5.63965
2.497	-4.83398
2.4975	-17.22107
2.498	-25.37842
2.4985	-37.7655
2.499	-53.17383
2.4995	-62.64038
2.5	-74.92676
2.5005	-97.08252
2.501	-145.9259
2.5015	-169.7937
2.502	-176.74255
2.5025	-193.6615
2.503	-207.86133
2.5035	-219.24133
2.504	-202.4231
2.5045	-163.24768
2.505	-94.3634
2.5055	-33.43506
2.506	30.2124
2.5065	67.17224
2.507	94.56482
2.5075	113.80005
2.508	134.34448
2.5085	142.80396
2.509	151.06201
2.5095	146.12732
2.51	130.41687
2.5105	113.80005
2.511	113.90076
2.5115	104.13208
2.512	94.46411
2.5125	95.16907
2.513	93.25562
2.5135	93.0542
2.514	104.03137
2.5145	87.11243
2.515	46.42639
2.5155	5.94177
2.516	-43.30444
2.5165	-76.94092
2.517	-91.8457
2.5175	-119.03687
2.518	-187.71973
2.5185	-256.70471
2.519	-268.99109
2.5195	-286.21216
2.52	-283.79517
2.5205	-264.25781
2.521	-216.11938
2.5215	-166.47034
2.522	-124.67651
2.5225	-65.46021
2.523	9.86938
2.5235	83.08411
2.524	153.27759
2.5245	204.43726
2.525	199.9054
2.5255	174.62769
2.526	185.10132
2.5265	213.29956
2.527	232.83691
2.5275	234.44824
2.528	240.49072
2.5285	235.65674
2.529	232.53479
2.5295	229.21143
2.53	201.71814
2.5305	166.57104
2.531	130.41687
2.5315	122.36023
2.532	128.20129
2.5325	138.47351
2.533	128.60413
2.5335	123.97156
2.534	108.56323
2.5345	97.58606
2.535	80.56641
2.5355	72.30835
2.536	66.16516
2.5365	60.12268
2.537	37.86621
2.5375	22.15576
2.538	12.28638
2.5385	-16.61682
2.539	-62.13684
2.5395	-91.24146
2.54	-88.62305
2.5405	-76.43738
2.541	-66.16516
2.5415	-72.20764
2.542	-106.44836
2.5425	-131.02112
2.543	-143.91174
2.5435	-141.79688
2.544	-131.22253
2.5445	-116.82129
2.545	-109.06677
2.5455	-118.02979
2.546	-124.27368
2.5465	-113.39722
2.547	-97.78748
2.5475	-79.66003
2.548	-69.68994
2.5485	-65.56091
2.549	-49.14551
2.5495	-6.3446
2.55	40.78674
2.5505	57.60498
2.551	63.94958
2.5515	65.86304
2.552	80.56641
2.5525	110.47668
2.553	114.4043
2.5535	80.4657
2.554	63.04321
2.5545	69.89136
2.555	58.81348
2.5555	48.44055
2.556	24.37134
2.5565	7.95593
2.557	-13.797
2.5575	-33.73718
2.558	-45.11719
2.5585	-75.32959
2.559	-177.54822
2.5595	-273.22083
2.56	-319.4458
2.5605	-316.42456
2.561	-289.93835
2.5615	-251.66931
2.562	-214.40735
2.5625	-194.76929
2.563	-196.48132
2.5635	-160.42786
2.564	-75.83313
2.5645	18.32886
2.565	46.92993
2.5655	5.53894
2.566	-16.91895
2.5665	17.52319
2.567	78.65295
2.5675	134.34448
2.568	187.82043
2.5685	230.31921
2.569	250.2594
2.5695	270.80383
2.57	286.61499
2.5705	297.59216
2.571	322.06421
2.5715	328.40881
2.572	318.2373
2.5725	305.6488
2.573	300.81482
2.5735	302.52686
2.574	285.5072
2.5745	203.02734
2.575	105.6427
2.5755	24.57275
2.576	-25.57983
2.5765	-67.37366
2.577	-106.64978
2.5775	-126.58997
2.578	-136.56006
2.5785	-109.26819
2.579	-75.4303
2.5795	-34.03931
2.58	9.06372
2.5805	56.49719
2.581	90.33508
2.5815	110.98022
2.582	136.35864
2.5825	142.50183
2.583	146.73157
2.5835	143.50891
2.584	139.78271
2.5845	126.48926
2.585	121.55457
2.5855	115.51208
2.586	93.0542
2.5865	65.66162
2.587	36.65771
2.5875	-6.04248
2.588	-19.63806
2.5885	-30.51453
2.589	-43.50586
2.5895	-48.74268
2.59	-45.82214
2.5905	-34.34143
2.591	-22.76001
2.5915	-24.87488
2.592	-12.89062
2.5925	-32.93152
2.593	-79.2572
2.5935	-142.50183
2.594	-182.28149
2.5945	-189.83459
2.595	-180.67017
2.5955	-155.09033
2.596	-122.56165
2.5965	-98.0896
2.597	-63.04321
2.5975	-32.62939
2.598	8.96301
2.5985	39.07471
2.599	61.23047
2.5995	80.96924
2.6	95.97473
2.6005	101.71509
2.601	103.125
2.6015	86.30676
2.602	66.97083
2.6025	57.50427
2.603	51.76392
2.6035	49.44763
2.604	55.2887
2.6045	53.27454
2.605	33.83789
2.6055	8.8623
2.606	-6.14319
2.6065	-27.59399
2.607	-35.54993
2.6075	-54.88586
2.608	-53.47595
2.6085	-56.09436
2.609	-46.12427
2.6095	-53.27454
2.61	-60.72693
2.6105	-64.151
2.611	-67.67578
2.6115	-65.3595
2.612	-58.61206
2.6125	-53.77808
2.613	-43.00232
2.6135	-32.83081
2.614	-21.85364
2.6145	-7.95593
2.615	1.10779
2.6155	9.66797
2.616	25.88196
2.6165	33.33435
2.617	45.62073
2.6175	58.61206
2.618	61.33118
2.6185	50.05188
2.619	23.8678
2.6195	-18.93311
2.62	-49.44763
2.6205	-51.96533
2.621	-20.44373
2.6215	-1.81274
2.622	10.17151
2.6225	17.82532
2.623	31.52161
2.6235	23.16284
2.624	-15.50903
2.6245	-31.82373
2.625	-27.39258
2.6255	-22.55859
2.626	-30.81665
2.6265	-30.71594
2.627	-22.76001
2.6275	-5.13611
2.628	15.1062
2.6285	-7.85522
2.629	-30.81665
2.6295	-31.11877
2.63	-13.39417
2.6305	-19.13452
2.631	-31.62231
2.6315	-31.72302
2.632	-18.32886
2.6325	-4.43115
2.633	8.56018
2.6335	-29.80957
2.634	-72.9126
2.6345	-95.87402
2.635	-105.44128
2.6355	-107.35474
2.636	-121.9574
2.6365	-142.30042
2.637	-126.58997
2.6375	-81.67419
2.638	-45.11719
2.6385	-7.04956
2.639	-12.08496
2.6395	-13.19275
2.64	-19.23523
2.6405	-40.1825
2.641	-63.44604
2.6415	-44.51294
2.642	-2.21558
2.6425	44.21082
2.643	87.31384
2.6435	138.47351
2.644	165.26184
2.6445	193.46008
2.645	203.93372
2.6455	222.86682
2.646	240.49072
2.6465	249.85657
2.647	244.31763
2.6475	224.57886
2.648	214.81018
2.6485	191.84875
2.649	135.04944
2.6495	39.57825
2.65	-33.9386
2.6505	-116.922
2.651	-218.03284
2.6515	-312.89978
2.652	-418.94531
2.6525	-469.0979
2.653	-444.62585
2.6535	-376.34583
2.654	-288.0249
2.6545	-175.63477
2.655	-68.88428
2.6555	41.59241
2.656	153.88184
2.6565	256.40259
2.657	341.90369
2.6575	380.27344
2.658	424.48425
2.6585	453.28674
2.659	462.45117
2.6595	435.86426
2.66	350.46387
2.6605	262.54578
2.661	191.64734
2.6615	131.92749
2.662	89.73083
2.6625	46.42639
2.663	3.12195
2.6635	-45.92285
2.664	-57.40356
2.6645	-57.40356
2.665	-62.43896
2.6655	-43.50586
2.666	-18.22815
2.6665	-0.80566
2.667	-2.31628
2.6675	-0.50354
2.668	-1.10779
2.6685	-2.81982
2.669	-4.43115
2.6695	-14.30054
2.67	-28.09753
2.6705	-24.47205
2.671	-22.45789
2.6715	-24.67346
2.672	-26.18408
2.6725	-25.07629
2.673	-24.97559
2.6735	-29.50745
2.674	-41.79382
2.6745	-51.76392
2.675	-59.31702
2.6755	-54.0802
2.676	-54.48303
2.6765	-50.85754
2.677	-45.41931
2.6775	-49.44763
2.678	-55.2887
2.6785	-63.04321
2.679	-72.10693
2.6795	-76.63879
2.68	-64.75525
2.6805	-50.45471
2.681	-49.54834
2.6815	-48.64197
2.682	-38.57117
2.6825	-38.974
2.683	-26.78833
2.6835	-22.15576
2.684	-27.29187
2.6845	-23.46497
2.685	-19.13452
2.6855	-8.96301
2.686	0.60425
2.6865	10.67505
2.687	26.88904
2.6875	38.36975
2.688	48.74268
2.6885	56.5979
2.689	81.47278
2.6895	97.28394
2.69	91.64429
2.6905	76.63879
2.691	41.39099
2.6915	-1.81274
2.692	-26.48621
2.6925	-49.14551
2.693	-55.18799
2.6935	-84.19189
2.694	-125.68359
2.6945	-153.27759
2.695	-158.01086
2.6955	-137.96997
2.696	-107.85828
2.6965	-83.68835
2.697	-42.39807
2.6975	-8.05664
2.698	18.42957
2.6985	62.64038
2.699	104.53491
2.6995	143.60962
2.7	161.23352
2.7005	160.42786
2.701	156.90308
2.7015	157.40662
2.702	151.06201
2.7025	117.62695
2.703	72.00623
2.7035	44.81506
2.704	27.09045
2.7045	13.29346
2.705	2.11487
2.7055	-3.92761
2.706	-12.38708
2.7065	-14.30054
2.707	-18.8324
2.7075	-28.29895
2.708	-27.6947
2.7085	-33.43506
2.709	-29.20532
2.7095	-15.60974
2.71	-9.76868
2.7105	-17.22107
2.711	-18.73169
2.7115	-17.22107
2.712	-6.3446
2.7125	6.14319
2.713	16.81824
2.7135	25.07629
2.714	21.55151
2.7145	-2.41699
2.715	-69.79065
2.7155	-102.82288
2.716	-132.0282
2.7165	-143.71033
2.717	-147.43652
2.7175	-136.66077
2.718	-144.91882
2.7185	-195.97778
2.719	-254.38843
2.7195	-275.13428
2.72	-256.604
2.7205	-221.85974
2.721	-184.39636
2.7215	-150.65918
2.722	-82.9834
2.7225	-22.05505
2.723	45.72144
2.7235	110.17456
2.724	162.2406
2.7245	191.74805
2.725	192.75513
2.7255	191.54663
2.726	181.57654
2.7265	173.62061
2.727	180.16663
2.7275	196.78345
2.728	219.64417
2.7285	241.90063
2.729	239.68506
2.7295	209.27124
2.73	142.30042
2.7305	39.88037
2.731	-19.73877
2.7315	-57.00073
2.732	-61.02905
2.7325	-43.10303
2.733	-28.50037
2.7335	-9.66797
2.734	15.60974
2.7345	36.65771
2.735	50.55542
2.7355	67.17224
2.736	79.66003
2.7365	93.55774
2.737	91.94641
2.7375	-4.22974
2.738	-103.125
2.7385	-162.54272
2.739	-167.88025
2.7395	-153.68042
2.74	-125.7843
2.7405	-82.27844
2.741	-54.98657
2.7415	-59.61914
2.742	-63.04321
2.7425	-56.49719
2.743	-58.10852
2.7435	-43.50586
2.744	-25.57983
2.7445	-9.06372
2.745	10.97717
2.7455	24.16992
2.746	45.11719
2.7465	50.75684
2.747	65.25879
2.7475	86.91101
2.748	91.8457
2.7485	112.89368
2.749	115.10925
2.7495	113.49792
2.75	76.13525
2.7505	57.20215
2.751	57.70569
2.7515	76.7395
2.752	76.33667
2.7525	64.05029
2.753	57.8064
2.7535	62.13684
2.754	70.59631
2.7545	72.00623
2.755	67.67578
2.7555	71.40198
2.756	76.33667
2.7565	81.57349
2.757	70.59631
2.7575	60.52551
2.758	50.15259
2.7585	43.00232
2.759	34.44214
2.7595	33.83789
2.76	22.05505
2.7605	7.15027
2.761	-8.96301
2.7615	-24.77417
2.762	-31.62231
2.7625	-39.77966
2.763	-43.50586
2.7635	-43.40515
2.764	-38.57117
2.7645	-40.48462
2.765	-41.4917
2.7655	-56.09436
2.766	-60.72693
2.7665	-99.70093
2.767	-124.37439
2.7675	-131.32324
2.768	-141.59546
2.7685	-163.95264
2.769	-195.87708
2.7695	-217.5293
2.77	-226.69373
2.7705	-216.01868
2.771	-175.43335
2.7715	-126.69067
2.772	-61.73401
2.7725	-1.51062
2.773	53.97949
2.7735	97.28394
2.774	137.66785
2.7745	172.10999
2.775	198.79761
2.7755	226.99585
2.776	232.73621
2.7765	230.72205
2.777	218.93921
2.7775	194.06433
2.778	171.0022
2.7785	136.05652
2.779	100.90942
2.7795	68.48145
2.78	24.67346
2.7805	-8.45947
2.781	-31.92444
2.7815	-41.99524
2.782	-34.54285
2.7825	-28.39966
2.783	-14.80408
2.7835	-6.44531
2.784	3.32336
2.7845	-1.40991
2.785	0.80566
2.7855	0.50354
2.786	10.47363
2.7865	10.0708
2.787	10.0708
2.7875	13.49487
2.788	26.18408
2.7885	32.83081
2.789	23.26355
2.7895	10.37292
2.79	-9.26514
2.7905	-29.20532
2.791	-44.81506
2.7915	-80.96924
2.792	-147.83936
2.7925	-192.85583
2.793	-209.37195
2.7935	-217.02576
2.794	-237.06665
2.7945	-249.0509
2.795	-228.70789
2.7955	-186.20911
2.796	-134.24377
2.7965	-101.61438
2.797	-87.61597
2.7975	-64.55383
2.798	-15.1062
2.7985	8.96301
2.799	10.17151
2.7995	13.797
2.8	11.78284
2.8005	17.82532
2.801	27.19116
2.8015	45.11719
2.802	76.03455
2.8025	106.14624
2.803	132.12891
2.8035	146.42944
2.804	152.67334
2.8045	141.39404
2.805	97.48535
2.8055	70.99915
2.806	72.61047
2.8065	82.68127
2.807	93.75916
2.8075	112.08801
2.808	86.70959
2.8085	69.28711
2.809	62.8418
2.8095	54.58374
2.81	50.05188
2.8105	44.41223
2.811	49.54834
2.8115	58.71277
2.812	75.73242
2.8125	73.11401
2.813	69.08569
2.8135	67.57507
2.814	69.99207
2.8145	68.38074
2.815	44.41223
2.8155	29.20532
2.816	26.78833
2.8165	7.85522
2.817	-5.43823
2.8175	-28.80249
2.818	-43.30444
2.8185	-53.77808
2.819	-54.18091
2.8195	-49.14551
2.82	-43.90869
2.8205	-26.48621
2.821	-5.74036
2.8215	16.61682
2.822	28.09753
2.8225	35.75134
2.823	50.354
2.8235	37.16125
2.824	0
2.8245	-41.59241
2.825	-130.71899
2.8255	-209.87549
2.826	-227.90222
2.8265	-214.00452
2.827	-206.75354
2.8275	-180.67017
2.828	-135.35156
2.8285	-69.48853
2.829	-3.22266
2.8295	59.21631
2.83	110.57739
2.8305	154.58679
2.831	182.68433
2.8315	166.16821
2.832	153.27759
2.8325	136.96289
2.833	92.85278
2.8335	61.93542
2.834	39.88037
2.8345	24.67346
2.835	17.82532
2.8355	11.2793
2.836	3.32336
2.8365	1.00708
2.837	-0.40283
2.8375	12.5885
2.838	41.79382
2.8385	68.17932
2.839	94.86694
2.8395	127.69775
2.84	144.21387
2.8405	144.51599
2.841	134.14307
2.8415	128.20129
2.842	106.8512
2.8425	72.61047
2.843	42.7002
2.8435	13.797
2.844	-6.14319
2.8445	-12.48779
2.845	-24.37134
2.8455	-42.59949
2.846	-56.39648
2.8465	-65.56091
2.847	-64.05029
2.8475	-57.00073
2.848	-72.61047
2.8485	-95.87402
2.849	-114.70642
2.8495	-120.95032
2.85	-116.01562
2.8505	-93.0542
2.851	-73.31543
2.8515	-37.06055
2.852	-7.75452
2.8525	18.53027
2.853	36.85913
2.8535	61.33118
2.854	87.91809
2.8545	105.13916
2.855	103.82996
2.8555	86.8103
2.856	72.20764
2.8565	52.97241
2.857	36.15417
2.8575	19.83948
2.858	8.96301
2.8585	-5.0354
2.859	-21.14868
2.8595	-54.68445
2.86	-150.8606
2.8605	-254.18701
2.861	-344.01855
2.8615	-383.5968
2.862	-366.27502
2.8625	-313.2019
2.863	-252.57568
2.8635	-190.74097
2.864	-108.36182
2.8645	-20.04089
2.865	53.67737
2.8655	133.43811
2.866	193.56079
2.8665	233.9447
2.867	244.31763
2.8675	237.97302
2.868	232.93762
2.8685	220.44983
2.869	218.93921
2.8695	204.84009
2.87	202.4231
2.8705	198.99902
2.871	178.35388
2.8715	164.7583
2.872	154.38538
2.8725	151.96838
2.873	145.62378
2.8735	120.64819
2.874	74.92676
2.8745	16.51611
2.875	-61.23047
2.8755	-133.53882
2.876	-166.67175
2.8765	-206.95496
2.877	-248.24524
2.8775	-260.3302
2.878	-237.16736
2.8785	-198.29407
2.879	-159.42078
2.8795	-126.28784
2.88	-64.95667
2.8805	-17.82532
2.881	7.65381
2.8815	30.91736
2.882	41.89453
2.8825	67.07153
2.883	89.42871
2.8835	106.75049
2.884	113.1958
2.8845	101.11084
2.885	80.66711
2.8855	59.82056
2.886	36.75842
2.8865	-27.89612
2.887	-87.81738
2.8875	-113.39722
2.888	-107.95898
2.8885	-96.27686
2.889	-80.96924
2.8895	-70.29419
2.89	-56.19507
2.8905	-27.59399
2.891	7.04956
2.8915	33.63647
2.892	62.23755
2.8925	89.73083
2.893	103.62854
2.8935	114.60571
2.894	123.2666
2.8945	123.06519
2.895	103.22571
2.8955	72.9126
2.896	47.33276
2.8965	35.54993
2.897	40.58533
2.8975	44.81506
2.898	58.10852
2.8985	70.29419
2.899	68.68286
2.8995	61.02905
2.9	61.83472
2.9005	38.77258
2.901	15.81116
2.9015	8.8623
2.902	9.56726
2.9025	17.42249
2.903	38.57117
2.9035	55.59082
2.904	63.84888
2.9045	67.17224
2.905	61.83472
2.9055	55.49011
2.906	51.26038
2.9065	47.23206
2.907	51.36108
2.9075	39.67896
2.908	31.52161
2.9085	30.01099
2.909	25.57983
2.9095	17.12036
2.91	9.86938
2.9105	-0.30212
2.911	-2.5177
2.9115	-1.71204
2.912	-8.8623
2.9125	-28.19824
2.913	-55.99365
2.9135	-80.06287
2.914	-89.83154
2.9145	-98.29102
2.915	-127.39563
2.9155	-158.01086
2.916	-171.10291
2.9165	-167.37671
2.917	-145.72449
2.9175	-122.56165
2.918	-85.29968
2.9185	-51.36108
2.919	-19.23523
2.9195	8.05664
2.92	31.21948
2.9205	49.64905
2.921	52.67029
2.9215	59.82056
2.922	63.44604
2.9225	44.71436
2.923	22.6593
2.9235	15.60974
2.924	21.85364
2.9245	35.65063
2.925	23.06213
2.9255	12.28638
2.926	-1.40991
2.9265	-11.98425
2.927	-9.06372
2.9275	-0.30212
2.928	20.44373
2.9285	37.86621
2.929	52.46887
2.9295	57.9071
2.93	66.6687
2.9305	49.74976
2.931	29.91028
2.9315	27.09045
2.932	26.78833
2.9325	22.45789
2.933	3.8269
2.9335	-2.11487
2.934	-30.91736
2.9345	-82.37915
2.935	-146.42944
2.9355	-247.43958
2.936	-409.68018
2.9365	-495.58411
2.937	-506.05774
2.9375	-449.86267
2.938	-355.29785
2.9385	-250.36011
2.939	-130.61829
2.9395	-6.64673
2.94	134.24377
2.9405	241.90063
2.941	344.6228
2.9415	426.90125
2.942	470.70923
2.9425	478.16162
2.943	448.25134
2.9435	413.10425
2.944	372.72034
2.9445	320.85571
2.945	243.41125
2.9455	174.8291
2.946	114.80713
2.9465	56.49719
2.947	-42.7002
2.9475	-190.74097
2.948	-322.56775
2.9485	-408.57239
2.949	-441.50391
2.9495	-423.88
2.95	-376.84937
2.9505	-317.53235
2.951	-260.63232
2.9515	-197.08557
2.952	-121.25244
2.9525	-52.97241
2.953	-8.25806
2.9535	11.2793
2.954	51.96533
2.9545	114.505
2.955	179.36096
2.9555	225.78735
2.956	257.10754
2.9565	281.07605
2.957	314.30969
2.9575	329.41589
2.958	342.20581
2.9585	327.30103
2.959	260.3302
2.9595	186.91406
2.96	131.42395
2.9605	92.04712
2.961	59.21631
2.9615	39.17542
2.962	21.55151
2.9625	1.00708
2.963	-14.09912
2.9635	-18.8324
2.964	-18.63098
2.9645	-24.37134
2.965	-27.79541
2.9655	-50.65613
2.966	-68.68286
2.9665	-80.06287
2.967	-103.42712
2.9675	-123.36731
2.968	-122.15881
2.9685	-106.54907
2.969	-96.37756
2.9695	-84.39331
2.97	-69.68994
2.9705	-60.3241
2.971	-48.94409
2.9715	-39.67896
2.972	-37.7655
2.9725	-36.25488
2.973	-27.19116
2.9735	-8.25806
2.974	2.01416
2.9745	15.91187
2.975	18.8324
2.9755	5.53894
2.976	-1.3092
2.9765	13.797
2.977	27.39258
2.9775	15.30762
2.978	-16.81824
2.9785	-40.2832
2.979	-50.55542
2.9795	-44.81506
2.98	-17.92603
2.9805	-2.92053
2.981	20.44373
2.9815	45.3186
2.982	63.54675
2.9825	71.60339
2.983	74.72534
2.9835	70.59631
2.984	75.83313
2.9845	70.3949
2.985	54.98657
2.9855	6.64673
2.986	-34.54285
2.9865	-66.97083
2.987	-66.56799
2.9875	-78.95508
2.988	-94.46411
2.9885	-94.2627
2.989	-73.51685
2.9895	-43.70728
2.99	1.71204
2.9905	43.10303
2.991	37.06055
2.9915	-5.0354
2.992	-41.4917
2.9925	-61.43188
2.993	-57.8064
2.9935	-43.90869
2.994	-27.79541
2.9945	-17.6239
2.995	3.32336
2.9955	17.6239
2.996	37.36267
2.9965	64.05029
2.997	78.04871
2.9975	78.35083
2.998	90.23438
2.9985	108.56323
2.999	124.4751
2.9995	124.4751
3	125.88501
3.0005	110.98022
3.001	95.47119
3.0015	74.52393
3.002	42.09595
3.0025	13.19275
3.003	-21.24939
3.0035	-51.15967
3.004	-69.08569
3.0045	-109.06677
3.005	-208.06274
3.0055	-300.10986
3.006	-339.48669
3.0065	-329.01306
3.007	-293.56384
3.0075	-236.4624
3.008	-179.66309
3.0085	-133.23669
3.009	-165.9668
3.0095	-257.00684
3.01	-356.60706
3.0105	-397.29309
3.011	-353.58582
3.0115	-277.04773
3.012	-185.30273
3.0125	-109.87244
3.013	-16.91895
3.0135	70.69702
3.014	163.5498
3.0145	268.78967
3.015	369.6991
3.0155	450.2655
3.016	496.49048
3.0165	503.43933
3.017	481.08215
3.0175	445.43152
3.018	413.60779
3.0185	405.75256
3.019	385.10742
3.0195	356.70776
3.02	306.25305
3.0205	237.26807
3.021	148.24219
3.0215	87.11243
3.022	45.92285
3.0225	11.07788
3.023	-13.89771
3.0235	-20.04089
3.024	-11.98425
3.0245	20.64514
3.025	52.36816
3.0255	82.58057
3.026	102.62146
3.0265	93.75916
3.027	86.8103
3.0275	73.31543
3.028	57.70569
3.0285	37.56409
3.029	12.78992
3.0295	-11.68213
3.03	-31.82373
3.0305	-53.57666
3.031	-82.68127
3.0315	-170.39795
3.032	-244.31763
3.0325	-281.07605
3.033	-300.71411
3.0335	-315.92102
3.034	-347.1405
3.0345	-378.05786
3.035	-370.40405
3.0355	-326.29395
3.036	-273.72437
3.0365	-242.10205
3.037	-199.20044
3.0375	-106.9519
3.038	-10.37292
3.0385	85.40039
3.039	174.52698
3.0395	232.43408
3.04	280.97534
3.0405	300.6134
3.041	302.42615
3.0415	292.45605
3.042	286.51428
3.0425	267.48047
3.043	217.73071
3.0435	161.33423
3.044	98.39172
3.0445	48.03772
3.045	30.51453
3.0455	11.58142
3.046	-25.98267
3.0465	-44.31152
3.047	-58.00781
3.0475	-90.03296
3.048	-115.51208
3.0485	-135.25085
3.049	-194.26575
3.0495	-218.8385
3.05	-206.35071
3.0505	-186.30981
3.051	-150.25635
3.0515	-101.01013
3.052	-47.33276
3.0525	2.01416
3.053	38.87329
3.0535	33.03223
3.054	-22.15576
3.0545	-94.46411
3.055	-157.30591
3.0555	-182.18079
3.056	-183.38928
3.0565	-191.1438
3.057	-172.81494
3.0575	-142.60254
3.058	-101.21155
3.0585	-51.15967
3.059	18.32886
3.0595	95.5719
3.06	157.70874
3.0605	214.91089
3.061	247.43958
3.0615	265.3656
3.062	289.53552
3.0625	321.86279
3.063	333.74634
3.0635	319.94934
3.064	271.40808
3.0645	173.11707
3.065	87.41455
3.0655	15.71045
3.066	-19.03381
3.0665	-46.42639
3.067	-55.69153
3.0675	-76.43738
3.068	-61.23047
3.0685	-33.33435
3.069	14.19983
3.0695	35.85205
3.07	22.45789
3.0705	-49.74976
3.071	-110.57739
3.0715	-132.63245
3.072	-107.05261
3.0725	-106.75049
3.073	-132.33032
3.0735	-153.88184
3.074	-141.49475
3.0745	-124.97864
3.075	-107.85828
3.0755	-87.61597
3.076	-52.8717
3.0765	-16.41541
3.077	14.40125
3.0775	14.09912
3.078	-2.31628
3.0785	13.49487
3.079	51.66321
3.0795	100.90942
3.08	140.28625
3.0805	190.23743
3.081	214.60876
3.0815	220.65125
3.082	200.61035
3.0825	164.7583
3.083	154.18396
3.0835	147.33582
3.084	140.68909
3.0845	121.05103
3.085	90.63721
3.0855	59.82056
3.086	39.67896
3.0865	10.67505
3.087	-13.29346
3.0875	-23.96851
3.088	-53.27454
3.0885	-97.38464
3.089	-187.11548
3.0895	-263.25073
3.09	-287.52136
3.0905	-294.47021
3.091	-277.65198
3.0915	-235.1532
3.092	-174.92981
3.0925	-117.92908
3.093	-60.02197
3.0935	-0.20142
3.094	54.48303
3.0945	107.05261
3.095	151.86768
3.0955	154.58679
3.096	147.83936
3.0965	132.33032
3.097	116.41846
3.0975	99.2981
3.098	63.34534
3.0985	25.37842
3.099	4.73328
3.0995	-16.41541
3.1	-42.49878
3.1005	-56.5979
3.101	-77.64587
3.1015	-138.67493
3.102	-217.5293
3.1025	-238.17444
3.103	-196.38062
3.1035	-124.87793
3.104	-43.60657
3.1045	36.95984
3.105	113.49792
3.1055	195.87708
3.106	257.71179
3.1065	279.26331
3.107	288.62915
3.1075	303.23181
3.108	296.18225
3.1085	270.09888
3.109	238.07373
3.1095	199.9054
3.11	152.1698
3.1105	89.83154
3.111	9.16443
3.1115	-53.37524
3.112	-93.96057
3.1125	-128.302
3.113	-161.33423
3.1135	-217.42859
3.114	-256.10046
3.1145	-262.8479
3.115	-243.20984
3.1155	-202.92664
3.116	-193.05725
3.1165	-172.91565
3.117	-145.32166
3.1175	-146.63086
3.118	-123.87085
3.1185	-93.15491
3.119	-44.51294
3.1195	-13.69629
3.12	5.0354
3.1205	15.20691
3.121	-10.47363
3.1215	-16.91895
3.122	2.92053
3.1225	24.97559
3.123	63.14392
3.1235	115.00854
3.124	154.18396
3.1245	191.04309
3.125	205.0415
3.1255	197.89124
3.126	137.66785
3.1265	61.93542
3.127	14.50195
3.1275	-14.70337
3.128	-66.16516
3.1285	-124.97864
3.129	-150.75989
3.1295	-146.02661
3.13	-116.61987
3.1305	-66.26587
3.131	-1.00708
3.1315	50.75684
3.132	99.3988
3.1325	133.94165
3.133	161.0321
3.1335	171.40503
3.134	154.08325
3.1345	30.91736
3.135	-106.34766
3.1355	-192.75513
3.136	-233.03833
3.1365	-235.65674
3.137	-207.76062
3.1375	-167.57812
3.138	-115.7135
3.1385	-36.4563
3.139	55.69153
3.1395	146.12732
3.14	239.68506
3.1405	303.93677
3.141	335.05554
3.1415	344.72351
3.142	335.86121
3.1425	314.71252
3.143	271.00525
3.1435	195.17212
3.144	116.72058
3.1445	49.54834
3.145	-12.89062
3.1455	-76.7395
3.146	-114.30359
3.1465	-140.28625
3.147	-158.61511
3.1475	-165.46326
3.148	-180.16663
3.1485	-178.65601
3.149	-163.95264
3.1495	-130.41687
3.15	-89.93225
3.1505	-55.79224
3.151	-47.13135
3.1515	-26.58691
3.152	-16.3147
3.1525	-19.13452
3.153	-5.43823
3.1535	21.3501
3.154	44.41223
3.1545	70.79773
3.155	74.92676
3.1555	72.50977
3.156	75.12817
3.1565	80.16357
3.157	46.5271
3.1575	8.8623
3.158	16.51611
3.1585	20.74585
3.159	27.39258
3.1595	12.48779
3.16	18.12744
3.1605	32.83081
3.161	55.08728
3.1615	63.24463
3.162	69.48853
3.1625	80.06287
3.163	87.01172
3.1635	98.29102
3.164	91.94641
3.1645	81.27136
3.165	83.99048
3.1655	84.59473
3.166	76.63879
3.1665	68.38074
3.167	57.30286
3.1675	69.38782
3.168	76.23596
3.1685	74.82605
3.169	80.36499
3.1695	56.5979
3.17	1.81274
3.1705	-42.29736
3.171	-77.74658
3.1715	-105.94482
3.172	-117.42554
3.1725	-134.44519
3.173	-195.07141
3.1735	-359.12476
3.174	-469.19861
3.1745	-548.85864
3.175	-555.10254
3.1755	-523.27881
3.176	-490.75012
3.1765	-466.88232
3.177	-495.98694
3.1775	-445.73364
3.178	-337.27112
3.1785	-210.0769
3.179	-85.40039
3.1795	37.7655
3.18	152.1698
3.1805	249.65515
3.181	351.57166
3.1815	426.19629
3.182	469.80286
3.1825	505.5542
3.183	522.97668
3.1835	547.14661
3.184	534.86023
3.1845	500.41809
3.185	438.8855
3.1855	382.99255
3.186	352.88086
3.1865	319.04297
3.187	277.75269
3.1875	230.52063
3.188	186.51123
3.1885	129.61121
3.189	58.20923
3.1895	-3.62549
3.19	-72.40906
3.1905	-118.53333
3.191	-136.96289
3.1915	-142.70325
3.192	-145.01953
3.1925	-122.86377
3.193	-104.3335
3.1935	-71.30127
3.194	-35.34851
3.1945	17.01965
3.195	50.55542
3.1955	71.7041
3.196	96.98181
3.1965	94.56482
3.197	80.36499
3.1975	55.79224
3.198	48.54126
3.1985	27.89612
3.199	-4.93469
3.1995	-45.52002
3.2	-85.90393
3.2005	-101.01013
3.201	-101.71509
3.2015	-109.57031
3.202	-124.67651
3.2025	-134.04236
3.203	-135.15015
3.2035	-116.11633
3.204	-98.69385
3.2045	-78.35083
3.205	-72.9126
3.2055	-66.6687
3.206	-63.04321
3.2065	-65.46021
3.207	-139.78271
3.2075	-214.70947
3.208	-273.82507
3.2085	-299.20349
3.209	-308.56934
3.2095	-314.4104
3.21	-308.1665
3.2105	-287.01782
3.211	-240.89355
3.2115	-179.8645
3.212	-109.67102
3.2125	-56.5979
3.213	3.02124
3.2135	56.49719
3.214	141.69617
3.2145	234.24683
3.215	313.1012
3.2155	375.23804
3.216	410.68726
3.2165	434.35364
3.217	420.45593
3.2175	384.90601
3.218	319.64722
3.2185	229.61426
3.219	156.50024
3.2195	107.25403
3.22	59.61914
3.2205	26.98975
3.221	4.93469
3.2215	0
3.222	21.14868
3.2225	42.59949
3.223	62.03613
3.2235	69.99207
3.224	62.9425
3.2245	63.14392
3.225	66.76941
3.2255	62.9425
3.226	44.61365
3.2265	33.83789
3.227	10.97717
3.2275	-10.97717
3.228	-26.28479
3.2285	-39.77966
3.229	-42.7002
3.2295	-46.32568
3.23	-33.23364
3.2305	-25.37842
3.231	-22.86072
3.2315	-20.04089
3.232	-40.78674
3.2325	-76.33667
3.233	-105.84412
3.2335	-141.89758
3.234	-251.87073
3.2345	-352.57874
3.235	-406.86035
3.2355	-433.8501
3.236	-489.74304
3.2365	-507.16553
3.237	-466.98303
3.2375	-406.75964
3.238	-320.35217
3.2385	-238.37585
3.239	-136.56006
3.2395	-19.94019
3.24	90.13367
3.2405	181.77795
3.241	253.48206
3.2415	315.21606
3.242	353.58582
3.2425	380.27344
3.243	399.60938
3.2435	400.11292
3.244	375.94299
3.2445	332.23572
3.245	246.23108
3.2455	160.72998
3.246	93.15491
3.2465	34.74426
3.247	-7.04956
3.2475	-31.82373
3.248	-40.1825
3.2485	-24.57275
3.249	-2.81982
3.2495	5.13611
3.25	22.35718
3.2505	61.12976
3.251	85.29968
3.2515	78.45154
3.252	91.14075
3.2525	96.07544
3.253	102.11792
3.2535	95.5719
3.254	79.35791
3.2545	71.20056
3.255	58.61206
3.2555	49.85046
3.256	35.65063
3.2565	19.94019
3.257	-8.15735
3.2575	-26.3855
3.258	-11.68213
3.2585	-4.63257
3.259	4.93469
3.2595	18.22815
3.26	2.92053
3.2605	9.36584
3.261	23.66638
3.2615	31.72302
3.262	35.95276
3.2625	30.31311
3.263	17.42249
3.2635	3.92761
3.264	-4.22974
3.2645	9.66797
3.265	13.19275
3.2655	-1.51062
3.266	-12.18567
3.2665	-2.61841
3.267	8.25806
3.2675	-30.31311
3.268	-83.08411
3.2685	-119.64111
3.269	-138.07068
3.2695	-157.80945
3.27	-172.71423
3.2705	-197.79053
3.271	-194.16504
3.2715	-163.65051
3.272	-107.45544
3.2725	-51.96533
3.273	8.66089
3.2735	49.85046
3.274	88.0188
3.2745	122.96448
3.275	139.48059
3.2755	130.01404
3.276	107.25403
3.2765	80.16357
3.277	57.8064
3.2775	27.89612
3.278	-15.81116
3.2785	-56.69861
3.279	-87.11243
3.2795	-90.73792
3.28	-73.01331
3.2805	-58.61206
3.281	-62.64038
3.2815	-77.64587
3.282	-62.13684
3.2825	-24.27063
3.283	16.11328
3.2835	29.00391
3.284	29.40674
3.2845	31.72302
3.285	47.23206
3.2855	46.22498
3.286	32.32727
3.2865	25.37842
3.287	34.24072
3.2875	37.16125
3.288	34.24072
3.2885	29.00391
3.289	19.73877
3.2895	24.06921
3.29	43.50586
3.2905	53.17383
3.291	47.43347
3.2915	28.50037
3.292	11.48071
3.2925	7.25098
3.293	0.40283
3.2935	-28.50037
3.294	-94.2627
3.2945	-142.80396
3.295	-156.29883
3.2955	-174.42627
3.296	-181.97937
3.2965	-182.28149
3.297	-153.17688
3.2975	-120.14465
3.298	-82.68127
3.2985	-45.52002
3.299	-30.31311
3.2995	-23.06213
3.3	-6.44531
3.3005	2.71912
3.301	10.97717
3.3015	11.2793
3.302	33.83789
3.3025	58.30994
3.303	64.75525
3.3035	64.85596
3.304	74.2218
3.3045	83.38623
3.305	94.16199
3.3055	90.03296
3.306	83.68835
3.3065	62.53967
3.307	53.27454
3.3075	64.85596
3.308	88.82446
3.3085	105.13916
3.309	124.67651
3.3095	131.42395
3.31	127.29492
3.3105	112.08801
3.311	103.125
3.3115	90.13367
3.312	77.14233
3.3125	54.18091
3.313	29.91028
3.3135	-1.40991
3.314	-38.974
3.3145	-74.32251
3.315	-104.03137
3.3155	-117.42554
3.316	-124.17297
3.3165	-127.89917
3.317	-170.90149
3.3175	-169.39087
3.318	-147.63794
3.3185	-107.75757
3.319	-55.59082
3.3195	-22.15576
3.32	-67.77649
3.3205	-193.86292
3.321	-312.59766
3.3215	-347.84546
3.322	-309.57642
3.3225	-242.50488
3.323	-173.5199
3.3235	-81.87561
3.324	23.46497
3.3245	122.05811
3.325	209.67407
3.3255	285.5072
3.326	346.33484
3.3265	382.48901
3.327	402.32849
3.3275	411.69434
3.328	403.93982
3.3285	377.85645
3.329	319.74792
3.3295	249.15161
3.33	179.8645
3.3305	124.57581
3.331	79.45862
3.3315	14.60266
3.332	-44.11011
3.3325	-96.7804
3.333	-134.24377
3.3335	-151.56555
3.334	-174.22485
3.3345	-234.24683
3.335	-255.69763
3.3355	-250.76294
3.336	-253.88489
3.3365	-236.56311
3.337	-217.02576
3.3375	-175.23193
3.338	-110.77881
3.3385	-31.62231
3.339	38.47046
3.3395	93.75916
3.34	125.18005
3.3405	162.54272
3.341	195.67566
3.3415	209.17053
3.342	204.53796
3.3425	215.21301
3.343	221.85974
3.3435	205.84717
3.344	183.99353
3.3445	149.95422
3.345	137.86926
3.3455	129.10767
3.346	110.17456
3.3465	72.71118
3.347	16.51611
3.3475	-43.00232
3.348	-103.125
3.3485	-134.34448
3.349	-136.76147
3.3495	-132.53174
3.35	-116.21704
3.3505	-129.91333
3.351	-137.56714
3.3515	-111.58447
3.352	-74.82605
3.3525	-26.08337
3.353	8.56018
3.3535	34.74426
3.354	49.74976
3.3545	65.96375
3.355	77.14233
3.3555	76.33667
3.356	49.14551
3.3565	18.8324
3.357	3.12195
3.3575	-1.71204
3.358	-2.71912
3.3585	-17.32178
3.359	-39.27612
3.3595	-33.73718
3.36	-25.88196
3.3605	-15.81116
3.361	-11.17859
3.3615	-6.3446
3.362	12.18567
3.3625	40.98816
3.363	57.50427
3.3635	83.99048
3.364	110.37598
3.3645	120.84961
3.365	94.86694
3.3655	15.40833
3.366	-147.73865
3.3665	-354.5929
3.367	-550.57068
3.3675	-701.63269
3.368	-775.85449
3.3685	-813.41858
3.369	-781.59485
3.3695	-699.41711
3.37	-564.77051
3.3705	-376.34583
3.371	-163.95264
3.3715	30.2124
3.372	230.52063
3.3725	428.71399
3.373	599.51477
3.3735	718.65234
3.374	801.43433
3.3745	818.6554
3.375	793.07556
3.3755	676.5564
3.376	530.63049
3.3765	430.82886
3.377	331.53076
3.3775	250.2594
3.378	183.69141
3.3785	104.4342
3.379	21.75293
3.3795	-21.04797
3.38	-36.05347
3.3805	-24.27063
3.381	-9.16443
3.3815	-31.01807
3.382	-29.20532
3.3825	-4.33044
3.383	37.66479
3.3835	57.40356
3.384	57.8064
3.3845	63.24463
3.385	61.43188
3.3855	61.33118
3.386	35.34851
3.3865	-9.06372
3.387	-64.45312
3.3875	-104.93774
3.388	-110.57739
3.3885	-94.46411
3.389	-63.54675
3.3895	-47.7356
3.39	-38.57117
3.3905	-24.97559
3.391	-2.11487
3.3915	41.08887
3.392	86.50818
3.3925	114.20288
3.393	130.21545
3.3935	143.50891
3.394	150.9613
3.3945	157.30591
3.395	153.98254
3.3955	132.43103
3.396	106.64978
3.3965	94.3634
3.397	77.64587
3.3975	40.68604
3.398	8.7616
3.3985	-47.23206
3.399	-89.02588
3.3995	-116.82129
3.4	-143.71033
3.4005	-149.45068
3.401	-129.40979
3.4015	-111.8866
3.402	-91.24146
3.4025	-66.56799
3.403	-29.20532
3.4035	0.70496
3.404	0.70496
3.4045	10.67505
3.405	28.39966
3.4055	31.72302
3.406	16.3147
3.4065	-59.51843
3.407	-106.34766
3.4075	-129.10767
3.408	-136.15723
3.4085	-120.7489
3.409	-83.38623
3.4095	-45.2179
3.41	-23.26355
3.4105	-40.98816
3.411	-77.04163
3.4115	-98.69385
3.412	-85.5011
3.4125	-54.48303
3.413	-50.45471
3.4135	-52.46887
3.414	-51.05896
3.4145	-72.9126
3.415	-88.11951
3.4155	-94.96765
3.416	-93.65845
3.4165	-65.56091
3.417	-55.79224
3.4175	-47.63489
3.418	-53.37524
3.4185	-46.02356
3.419	-37.66479
3.4195	-38.47046
3.42	-84.09119
3.4205	-193.96362
3.421	-258.92029
3.4215	-310.07996
3.422	-318.2373
3.4225	-306.65588
3.423	-307.36084
3.4235	-303.93677
3.424	-242.00134
3.4245	-163.04626
3.425	-109.4696
3.4255	-48.03772
3.426	-3.42407
3.4265	77.34375
3.427	181.37512
3.4275	288.42773
3.428	384.30176
3.4285	456.30798
3.429	469.19861
3.4295	428.31116
3.43	340.39307
3.4305	259.22241
3.431	178.35388
3.4315	107.55615
3.432	77.54517
3.4325	98.69385
3.433	110.87952
3.4335	118.53333
3.434	111.78589
3.4345	97.28394
3.435	89.83154
3.4355	103.42712
3.436	153.07617
3.4365	201.2146
3.437	231.82983
3.4375	236.96594
3.438	236.05957
3.4385	230.52063
3.439	233.34045
3.4395	214.81018
3.44	147.33582
3.4405	48.33984
3.441	-42.59949
3.4415	-131.52466
3.442	-189.63318
3.4425	-224.07532
3.443	-263.25073
3.4435	-288.83057
3.444	-292.05322
3.4445	-271.50879
3.445	-229.41284
3.4455	-173.11707
3.446	-102.42004
3.4465	-29.10461
3.447	33.53577
3.4475	85.90393
3.448	137.0636
3.4485	174.72839
3.449	202.02026
3.4495	223.37036
3.45	245.32471
3.4505	274.22791
3.451	279.76685
3.4515	258.61816
3.452	210.0769
3.4525	135.75439
3.453	73.71826
3.4535	29.50745
3.454	-1.00708
3.4545	-22.55859
3.455	-41.79382
3.4555	-60.4248
3.456	-74.02039
3.4565	-78.75366
3.457	-108.1604
3.4575	-130.21545
3.458	-153.17688
3.4585	-145.32166
3.459	-126.9928
3.4595	-137.0636
3.46	-179.66309
3.4605	-189.12964
3.461	-179.15955
3.4615	-169.18945
3.462	-147.23511
3.4625	-140.78979
3.463	-142.099
3.4635	-136.35864
3.464	-187.92114
3.4645	-240.69214
3.465	-246.63391
3.4655	-217.93213
3.466	-163.24768
3.4665	-101.01013
3.467	-40.2832
3.4675	13.19275
3.468	66.97083
3.4685	114.4043
3.469	158.81653
3.4695	163.75122
3.47	156.29883
3.4705	172.81494
3.471	130.8197
3.4715	87.71667
3.472	33.03223
3.4725	-0.70496
3.473	-0.30212
3.4735	2.92053
3.474	11.2793
3.4745	26.68762
3.475	26.08337
3.4755	37.06055
3.476	39.67896
3.4765	52.46887
3.477	35.34851
3.4775	26.28479
3.478	11.17859
3.4785	-66.6687
3.479	-131.52466
3.4795	-140.48767
3.48	-150.8606
3.4805	-167.47742
3.481	-255.59692
3.4815	-310.78491
3.482	-320.755
3.4825	-293.56384
3.483	-233.44116
3.4835	-165.56396
3.484	-102.92358
3.4845	-63.84888
3.485	-61.23047
3.4855	-81.06995
3.486	-83.99048
3.4865	-37.66479
3.487	16.81824
3.4875	57.9071
3.488	83.88977
3.4885	100.50659
3.489	93.45703
3.4895	90.33508
3.49	117.62695
3.4905	188.6261
3.491	286.21216
3.4915	328.91235
3.492	337.47253
3.4925	333.94775
3.493	352.57874
3.4935	346.73767
3.494	334.04846
3.4945	333.74634
3.495	322.26562
3.4955	325.28687
3.496	346.23413
3.4965	323.172
3.497	282.08313
3.4975	254.99268
3.498	246.33179
3.4985	232.03125
3.499	201.2146
3.4995	143.81104
3.5	89.83154
3.5005	55.08728
3.501	30.71594
3.5015	-7.15027
3.502	-50.2533
3.5025	-98.99597
3.503	-139.88342
3.5035	-181.27441
3.504	-202.22168
3.5045	-204.84009
3.505	-201.2146
3.5055	-192.55371
3.506	-178.5553
3.5065	-155.9967
3.507	-113.59863
3.5075	-79.2572
3.508	-82.78198
3.5085	-79.05579
3.509	-86.70959
3.5095	-116.01562
3.51	-149.95422
3.5105	-251.16577
3.511	-335.35767
3.5115	-369.39697
3.512	-340.59448
3.5125	-300.41199
3.513	-264.1571
3.5135	-221.55762
3.514	-177.24609
3.5145	-113.1958
3.515	-36.35559
3.5155	26.28479
3.516	89.02588
3.5165	142.30042
3.517	197.79053
3.5175	181.27441
3.518	188.22327
3.5185	206.75354
3.519	226.69373
3.5195	265.46631
3.52	298.49854
3.5205	297.59216
3.521	260.83374
3.5215	199.9054
3.522	151.16272
3.5225	146.22803
3.523	123.16589
3.5235	73.11401
3.524	25.27771
3.5245	-15.81116
3.525	-58.20923
3.5255	-92.24854
3.526	-125.48218
3.5265	-172.61353
3.527	-197.68982
3.5275	-196.27991
3.528	-188.52539
3.5285	-231.427
3.529	-285.70862
3.5295	-284.90295
3.53	-305.44739
3.5305	-335.45837
3.531	-367.78564
3.5315	-396.48743
3.532	-367.38281
3.5325	-336.36475
3.533	-329.01306
3.5335	-289.03198
3.534	-237.06665
3.5345	-179.76379
3.535	-74.82605
3.5355	60.02197
3.536	191.24451
3.5365	294.47021
3.537	376.84937
3.5375	444.42444
3.538	481.88782
3.5385	517.43774
3.539	560.64148
3.5395	559.83582
3.54	547.34802
3.5405	513.81226
3.541	459.22852
3.5415	400.11292
3.542	338.88245
3.5425	235.85815
3.543	121.35315
3.5435	27.39258
3.544	-44.41223
3.5445	-88.0188
3.545	-130.8197
3.5455	-124.57581
3.546	-108.1604
3.5465	-92.24854
3.547	-74.42322
3.5475	-42.19666
3.548	-11.2793
3.5485	21.55151
3.549	56.49719
3.5495	89.02588
3.55	107.45544
3.5505	96.17615
3.551	79.05579
3.5515	56.19507
3.552	55.89294
3.5525	87.11243
3.553	61.73401
3.5535	0.30212
3.554	-67.17224
3.5545	-232.33337
3.555	-450.36621
3.5555	-563.15918
3.556	-585.61707
3.5565	-543.92395
3.557	-474.93896
3.5575	-386.1145
3.558	-258.31604
3.5585	-111.78589
3.559	39.88037
3.5595	117.82837
3.56	189.33105
3.5605	288.93127
3.561	373.62671
3.5615	429.11682
3.562	470.20569
3.5625	450.76904
3.563	423.88
3.5635	392.66052
3.564	310.48279
3.5645	190.43884
3.565	85.29968
3.5655	-20.04089
3.566	-177.64893
3.5665	-348.85254
3.567	-441.60461
3.5675	-493.87207
3.568	-492.76428
3.5685	-455.80444
3.569	-412.29858
3.5695	-370.80688
3.57	-317.73376
3.5705	-265.06348
3.571	-207.76062
3.5715	-159.62219
3.572	-109.87244
3.5725	-33.13293
3.573	70.09277
3.5735	145.12024
3.574	199.09973
3.5745	239.48364
3.575	248.44666
3.5755	269.99817
3.576	299.40491
3.5765	339.08386
3.577	351.16882
3.5775	305.14526
3.578	244.51904
3.5785	202.4231
3.579	147.23511
3.5795	113.1958
3.58	66.06445
3.5805	-29.20532
3.581	-194.46716
3.5815	-339.78882
3.582	-405.65186
3.5825	-385.51025
3.583	-326.79749
3.5835	-227.39868
3.584	-145.12024
3.5845	-118.13049
3.585	-70.99915
3.5855	-4.53186
3.586	50.05188
3.5865	62.9425
3.587	66.76941
3.5875	71.80481
3.588	87.51526
3.5885	87.81738
3.589	86.40747
3.5895	84.89685
3.59	99.2981
3.5905	135.75439
3.591	154.28467
3.5915	127.59705
3.592	92.85278
3.5925	85.80322
3.593	121.65527
3.5935	169.59229
3.594	199.50256
3.5945	223.16895
3.595	222.16187
3.5955	205.54504
3.596	185.10132
3.5965	163.14697
3.597	118.93616
3.5975	79.76074
3.598	58.81348
3.5985	51.66321
3.599	57.60498
3.5995	4.93469
3.6	-163.95264
3.6005	-242.00134
3.601	-269.59534
3.6015	-263.75427
3.602	-240.39001
3.6025	-231.22559
3.603	-240.39001
3.6035	-303.1311
3.604	-372.51892
3.6045	-461.64551
3.605	-528.91846
3.6055	-515.52429
3.606	-461.94763
3.6065	-385.61096
3.607	-274.02649
3.6075	-142.099
3.608	-15.40833
3.6085	117.12341
3.609	251.4679
3.6095	371.61255
3.61	485.11047
3.6105	559.23157
3.611	605.35583
3.6115	596.79565
3.612	583.30078
3.6125	557.62024
3.613	518.34412
3.6135	484.70764
3.614	416.72974
3.6145	278.05481
3.615	122.36023
3.6155	-9.66797
3.616	-83.18481
3.6165	-91.04004
3.617	-73.91968
3.6175	-65.25879
3.618	-59.71985
3.6185	-24.47205
3.619	18.32886
3.6195	58.71277
3.62	68.48145
3.6205	80.26428
3.621	96.27686
3.6215	106.34766
3.622	102.62146
3.6225	93.45703
3.623	79.15649
3.6235	46.22498
3.624	36.35559
3.6245	1.91345
3.625	-126.58997
3.6255	-248.04382
3.626	-352.67944
3.6265	-416.42761
3.627	-444.62585
3.6275	-450.56763
3.628	-465.57312
3.6285	-470.60852
3.629	-458.12073
3.6295	-427.70691
3.63	-382.48901
3.6305	-317.93518
3.631	-250.86365
3.6315	-171.30432
3.632	-84.79614
3.6325	-25.07629
3.633	45.2179
3.6335	145.42236
3.634	262.44507
3.6345	333.14209
3.635	388.83362
3.6355	446.4386
3.636	463.35754
3.6365	464.26392
3.637	435.05859
3.6375	397.49451
3.638	365.36865
3.6385	321.15784
3.639	223.57178
3.6395	125.98572
3.64	69.08569
3.6405	0.50354
3.641	-61.73401
3.6415	-163.34839
3.642	-231.52771
3.6425	-271.81091
3.643	-282.9895
3.6435	-243.20984
3.644	-187.31689
3.6445	-118.33191
3.645	-90.83862
3.6455	-81.06995
3.646	-67.77649
3.6465	-80.16357
3.647	-61.33118
3.6475	-10.77576
3.648	53.07312
3.6485	94.76624
3.649	130.31616
3.6495	155.29175
3.65	186.91406
3.6505	168.58521
3.651	104.63562
3.6515	40.48462
3.652	-12.48779
3.6525	-56.09436
3.653	-94.66553
3.6535	-109.97314
3.654	-170.70007
3.6545	-195.87708
3.655	-176.84326
3.6555	-131.52466
3.656	-65.46021
3.6565	-24.37134
3.657	44.71436
3.6575	114.30359
3.658	130.31616
3.6585	113.39722
3.659	113.59863
3.6595	117.32483
3.66	131.42395
3.6605	150.8606
3.661	172.00928
3.6615	171.0022
3.662	138.97705
3.6625	89.93225
3.663	79.55933
3.6635	100.00305
3.664	137.46643
3.6645	161.13281
3.665	168.28308
3.6655	159.82361
3.666	123.77014
3.6665	80.4657
3.667	-23.8678
3.6675	-124.27368
3.668	-222.36328
3.6685	-324.88403
3.669	-417.5354
3.6695	-454.99878
3.67	-453.48816
3.6705	-424.58496
3.671	-369.6991
3.6715	-291.7511
3.672	-190.13672
3.6725	-101.71509
3.673	3.62549
3.6735	99.70093
3.674	178.5553
3.6745	270.80383
3.675	352.98157
3.6755	369.59839
3.676	340.89661
3.6765	285.70862
3.677	253.28064
3.6775	221.65833
3.678	140.08484
3.6785	58.81348
3.679	4.12903
3.6795	-9.26514
3.68	3.62549
3.6805	0
3.681	8.15735
3.6815	17.82532
3.682	49.54834
3.6825	73.71826
3.683	84.2926
3.6835	88.72375
3.684	89.83154
3.6845	54.88586
3.685	44.51294
3.6855	13.89771
3.686	-35.95276
3.6865	-108.26111
3.687	-175.13123
3.6875	-187.71973
3.688	-170.49866
3.6885	-147.43652
3.689	-120.14465
3.6895	-125.28076
3.69	-114.30359
3.6905	-66.26587
3.691	-25.78125
3.6915	6.04248
3.692	-15.00549
3.6925	-79.76074
3.693	-117.62695
3.6935	-127.19421
3.694	-106.14624
3.6945	-62.74109
3.695	-50.05188
3.6955	-48.74268
3.696	-32.32727
3.6965	-56.90002
3.697	-188.22327
3.6975	-329.81873
3.698	-424.88708
3.6985	-463.25684
3.699	-448.9563
3.6995	-404.9469
3.7	-317.23022
3.7005	-221.85974
3.701	-146.22803
3.7015	-80.26428
3.702	6.54602
3.7025	70.19348
3.703	134.44519
3.7035	209.47266
3.704	289.93835
3.7045	341.70227
3.705	319.14368
3.7055	240.69214
3.706	104.3335
3.7065	-6.3446
3.707	-44.61365
3.7075	-25.177
3.708	-26.78833
3.7085	-4.02832
3.709	20.94727
3.7095	55.59082
3.71	87.41455
3.7105	116.61987
3.711	150.45776
3.7115	180.56946
3.712	165.9668
3.7125	130.51758
3.713	51.05896
3.7135	8.15735
3.714	7.04956
3.7145	-8.35876
3.715	3.92761
3.7155	39.67896
3.716	66.46729
3.7165	89.02588
3.717	59.41772
3.7175	-64.45312
3.718	-248.9502
3.7185	-413.40637
3.719	-484.60693
3.7195	-457.31506
3.72	-362.64954
3.7205	-257.71179
3.721	-197.4884
3.7215	-111.28235
3.722	18.63098
3.7225	167.77954
3.723	329.91943
3.7235	428.31116
3.724	503.74146
3.7245	559.03015
3.725	603.74451
3.7255	625.29602
3.726	626.3031
3.7265	598.50769
3.727	545.33386
3.7275	427.50549
3.728	318.53943
3.7285	189.12964
3.729	104.3335
3.7295	-11.78284
3.73	-126.58997
3.7305	-221.25549
3.731	-255.69763
3.7315	-299.50562
3.732	-291.34827
3.7325	-240.39001
3.733	-170.90149
3.7335	-99.09668
3.734	-105.34058
3.7345	-120.24536
3.735	-78.45154
3.7355	-19.73877
3.736	-18.22815
3.7365	-21.3501
3.737	4.93469
3.7375	54.68445
3.738	110.77881
3.7385	135.25085
3.739	169.7937
3.7395	191.94946
3.74	204.53796
3.7405	215.0116
3.741	239.68506
3.7415	253.68347
3.742	235.95886
3.7425	159.01794
3.743	54.58374
3.7435	-22.15576
3.744	-109.77173
3.7445	-182.88574
3.745	-225.68665
3.7455	-202.82593
3.746	-159.42078
3.7465	-109.26819
3.747	-65.15808
3.7475	-18.32886
3.748	59.71985
3.7485	133.43811
3.749	168.08167
3.7495	128.90625
3.75	-16.11328
3.7505	-194.66858
3.751	-366.37573
3.7515	-441.10107
3.752	-441.80603
3.7525	-440.1947
3.753	-426.69983
3.7535	-394.27185
3.754	-313.30261
3.7545	-197.79053
3.755	-78.25012
3.7555	38.16833
3.756	44.61365
3.7565	-25.88196
3.757	-46.72852
3.7575	-11.48071
3.758	39.07471
3.7585	87.51526
3.759	73.51685
3.7595	11.68213
3.76	44.71436
3.7605	109.3689
3.761	178.45459
3.7615	212.4939
3.762	254.89197
3.7625	284.70154
3.763	279.86755
3.7635	261.74011
3.764	234.34753
3.7645	221.45691
3.765	241.4978
3.7655	236.56311
3.766	130.01404
3.7665	-16.61682
3.767	-111.8866
3.7675	-167.47742
3.768	-154.38538
3.7685	-119.23828
3.769	-100.6073
3.7695	-89.12659
3.77	-54.98657
3.7705	-49.64905
3.771	-77.24304
3.7715	-64.85596
3.772	-5.43823
3.7725	15.20691
3.773	-82.17773
3.7735	-170.49866
3.774	-232.53479
3.7745	-310.98633
3.775	-404.14124
3.7755	-442.30957
3.776	-406.75964
3.7765	-283.99658
3.777	-132.43103
3.7775	-7.25098
3.778	79.35791
3.7785	134.04236
3.779	160.12573
3.7795	222.76611
3.78	287.21924
3.7805	346.73767
3.781	401.92566
3.7815	410.18372
3.782	375.74158
3.7825	308.1665
3.783	138.07068
3.7835	-27.19116
3.784	-61.33118
3.7845	-12.99133
3.785	16.91895
3.7855	15.30762
3.786	-70.59631
3.7865	-144.31458
3.787	-99.70093
3.7875	-21.65222
3.788	89.63013
3.7885	197.18628
3.789	265.66772
3.7895	340.89661
3.79	399.71008
3.7905	456.61011
3.791	479.26941
3.7915	490.448
3.792	504.64783
3.7925	500.82092
3.793	463.35754
3.7935	379.97131
3.794	278.35693
3.7945	137.56714
3.795	-39.07471
3.7955	-274.32861
3.796	-487.52747
3.7965	-626.80664
3.797	-732.44934
3.7975	-835.17151
3.798	-962.36572
3.7985	-1121.88721
3.799	-1190.16724
3.7995	-1165.7959
3.8	-1074.0509
3.8005	-936.18164
3.801	-777.06299
3.8015	-581.38733
3.802	-376.74866
3.8025	-182.48291
3.803	-15.81116
3.8035	180.26733
3.804	403.93982
3.8045	593.97583
3.805	737.58545
3.8055	865.08179
3.806	984.21936
3.8065	1062.46948
3.807	1045.85266
3.8075	1030.94788
3.808	1001.64185
3.8085	966.49475
3.809	900.4303
3.8095	792.97485
3.81	669.20471
3.8105	493.67065
3.811	266.07056
3.8115	147.53723
3.812	43.30444
3.8125	-108.76465
3.813	-254.58984
3.8135	-346.13342
3.814	-332.53784
3.8145	-268.78967
3.815	-216.52222
3.8155	-183.38928
3.816	-194.16504
3.8165	-252.27356
3.817	-283.09021
3.8175	-297.69287
3.818	-325.08545
3.8185	-378.25928
3.819	-469.80286
3.8195	-560.64148
3.82	-601.32751
3.8205	-553.69263
3.821	-485.91614
3.8215	-409.68018
3.822	-298.80066
3.8225	-144.41528
3.823	18.63098
3.8235	137.46643
3.824	274.53003
3.8245	402.73132
3.825	401.42212
3.8255	405.75256
3.826	371.51184
3.8265	358.62122
3.827	347.1405
3.8275	332.63855
3.828	309.77783
3.8285	255.79834
3.829	220.14771
3.8295	227.49939
3.83	221.96045
3.8305	193.25867
3.831	147.53723
3.8315	27.79541
3.832	-63.64746
3.8325	-95.47119
3.833	-47.8363
3.8335	-14.80408
3.834	10.27222
3.8345	45.11719
3.835	81.37207
3.8355	144.71741
3.836	212.09106
3.8365	252.57568
3.837	272.51587
3.8375	235.85815
3.838	89.12659
3.8385	-25.78125
3.839	-72.20764
3.8395	-74.62463
3.84	-56.90002
3.8405	9.06372
3.841	-6.2439
3.8415	-69.38782
3.842	-128.10059
3.8425	-211.88965
3.843	-264.1571
3.8435	-303.23181
3.844	-306.45447
3.8445	-295.77942
3.845	-257.40967
3.8455	-217.63
3.846	-167.77954
3.8465	-107.95898
3.847	-52.06604
3.8475	22.05505
3.848	106.04553
3.8485	176.33972
3.849	210.17761
3.8495	178.15247
3.85	172.00928
3.8505	200.91248
3.851	174.22485
3.8515	-16.81824
3.852	-241.29639
3.8525	-358.31909
3.853	-402.63062
3.8535	-408.37097
3.854	-396.99097
3.8545	-569.00024
3.855	-778.27148
3.8555	-806.06689
3.856	-740.30457
3.8565	-597.29919
3.857	-390.24353
3.8575	-176.13831
3.858	17.01965
3.8585	190.94238
3.859	338.98315
3.8595	473.62976
3.86	584.40857
3.8605	671.42029
3.861	761.85608
3.8615	855.2124
3.862	938.29651
3.8625	855.31311
3.863	691.86401
3.8635	539.89563
3.864	407.56531
3.8645	262.24365
3.865	157.80945
3.8655	28.50037
3.866	-123.46802
3.8665	-308.26721
3.867	-447.94922
3.8675	-521.16394
3.868	-550.36926
3.8685	-556.31104
3.869	-514.11438
3.8695	-459.42993
3.87	-411.39221
3.8705	-342.60864
3.871	-248.54736
3.8715	-142.30042
3.872	-33.53577
3.8725	85.70251
3.873	220.85266
3.8735	311.28845
3.874	351.57166
3.8745	377.45361
3.875	369.49768
3.8755	242.30347
3.876	92.95349
3.8765	-49.85046
3.877	-166.16821
3.8775	-210.78186
3.878	-245.12329
3.8785	-221.75903
3.879	-190.23743
3.8795	-127.09351
3.88	-39.17542
3.8805	72.9126
3.881	205.54504
3.8815	289.83765
3.882	310.28137
3.8825	291.44897
3.883	299.70703
3.8835	351.57166
3.884	405.75256
3.8845	445.02869
3.885	425.49133
3.8855	372.11609
3.886	330.92651
3.8865	278.35693
3.887	248.34595
3.8875	234.14612
3.888	169.59229
3.8885	84.39331
3.889	8.66089
3.8895	-53.87878
3.89	-129.10767
3.8905	-223.8739
3.891	-277.45056
3.8915	-333.54492
3.892	-353.88794
