Alessio_Russo_Left_2.c3d  



Time(s):	C_R_bicipite(μV):
0	28.39966
0.0005	-5.0354
0.001	-24.67346
0.0015	-39.27612
0.002	-57.8064
0.0025	-62.43896
0.003	-75.12817
0.0035	-79.45862
0.004	-73.51685
0.0045	-68.78357
0.005	-66.36658
0.0055	-46.72852
0.006	-5.33752
0.0065	29.40674
0.007	35.54993
0.0075	43.50586
0.008	41.79382
0.0085	34.03931
0.009	23.36426
0.0095	8.66089
0.01	-7.04956
0.0105	-17.01965
0.011	-24.37134
0.0115	-34.24072
0.012	-31.11877
0.0125	-33.13293
0.013	-35.95276
0.0135	-38.57117
0.014	-37.46338
0.0145	-38.16833
0.015	-40.98816
0.0155	-44.41223
0.016	-44.31152
0.0165	-43.20374
0.017	-33.73718
0.0175	-17.6239
0.018	-21.04797
0.0185	-20.54443
0.019	-20.94727
0.0195	-15.20691
0.02	-5.84106
0.0205	5.0354
0.021	18.8324
0.0215	17.6239
0.022	16.81824
0.0225	23.06213
0.023	17.12036
0.0235	8.25806
0.024	2.21558
0.0245	-5.13611
0.025	-8.8623
0.0255	-3.02124
0.026	0
0.0265	5.53894
0.027	10.87646
0.0275	18.02673
0.028	16.41541
0.0285	17.22107
0.029	19.23523
0.0295	38.26904
0.03	52.8717
0.0305	84.2926
0.031	114.20288
0.0315	127.09351
0.032	142.30042
0.0325	139.37988
0.033	119.94324
0.0335	87.01172
0.034	61.23047
0.0345	36.4563
0.035	19.73877
0.0355	8.05664
0.036	1.00708
0.0365	-10.97717
0.037	-12.89062
0.0375	41.69312
0.038	82.88269
0.0385	89.02588
0.039	71.30127
0.0395	45.2179
0.04	4.83398
0.0405	-22.55859
0.041	-43.50586
0.0415	-56.69861
0.042	-68.98499
0.0425	-89.83154
0.043	-99.09668
0.0435	-102.31934
0.044	-71.30127
0.0445	-44.51294
0.045	-32.93152
0.0455	-42.7002
0.046	-48.64197
0.0465	-56.09436
0.047	-65.05737
0.0475	-78.35083
0.048	-79.66003
0.0485	-82.58057
0.049	-76.84021
0.0495	-76.84021
0.05	-75.83313
0.0505	-70.3949
0.051	-63.04321
0.0515	-59.01489
0.052	-45.01648
0.0525	-42.09595
0.053	-35.14709
0.0535	-32.7301
0.054	-29.50745
0.0545	-27.19116
0.055	-15.20691
0.0555	-3.02124
0.056	-2.81982
0.0565	-0.50354
0.057	1.81274
0.0575	4.73328
0.058	26.98975
0.0585	53.47595
0.059	60.72693
0.0595	66.06445
0.06	62.9425
0.0605	45.62073
0.061	39.17542
0.0615	27.79541
0.062	23.46497
0.0625	59.51843
0.063	85.29968
0.0635	95.77332
0.064	96.57898
0.0645	104.13208
0.065	90.73792
0.0655	76.53809
0.066	71.50269
0.0665	72.81189
0.067	61.02905
0.0675	42.39807
0.068	36.75842
0.0685	24.16992
0.069	8.35876
0.0695	-11.68213
0.07	-23.96851
0.0705	-51.96533
0.071	-71.09985
0.0715	-85.5011
0.072	-97.18323
0.0725	-102.11792
0.073	-93.0542
0.0735	-89.328
0.074	-89.12659
0.0745	-96.17615
0.075	-84.59473
0.0755	-73.11401
0.076	-68.17932
0.0765	-57.30286
0.077	-46.72852
0.0775	-32.22656
0.078	-23.76709
0.0785	-15.00549
0.079	-9.06372
0.0795	-2.01416
0.08	-0.10071
0.0805	2.01416
0.081	6.74744
0.0815	12.78992
0.082	12.99133
0.0825	20.64514
0.083	27.79541
0.0835	44.11011
0.084	46.12427
0.0845	42.39807
0.085	44.61365
0.0855	36.65771
0.086	29.00391
0.0865	25.78125
0.087	19.53735
0.0875	13.89771
0.088	21.24939
0.0885	32.83081
0.089	43.00232
0.0895	57.50427
0.09	82.88269
0.0905	92.95349
0.091	102.62146
0.0915	119.23828
0.092	118.63403
0.0925	108.56323
0.093	103.93066
0.0935	93.0542
0.094	91.8457
0.0945	100.90942
0.095	91.24146
0.0955	68.28003
0.096	47.8363
0.0965	34.44214
0.097	17.6239
0.0975	3.32336
0.098	-10.57434
0.0985	-36.15417
0.099	-60.22339
0.0995	-89.02588
0.1	-108.76465
0.1005	-130.11475
0.101	-135.75439
0.1015	-132.22961
0.102	-132.33032
0.1025	-125.98572
0.103	-113.1958
0.1035	-116.51917
0.104	-108.26111
0.1045	-95.47119
0.105	-92.44995
0.1055	-90.93933
0.106	-85.19897
0.1065	-66.06445
0.107	-38.77258
0.1075	-18.12744
0.108	-8.15735
0.1085	9.76868
0.109	37.7655
0.1095	31.11877
0.11	24.87488
0.1105	5.43823
0.111	2.31628
0.1115	-0.60425
0.112	-2.81982
0.1125	-6.64673
0.113	-8.8623
0.1135	-6.84814
0.114	-16.61682
0.1145	-28.70178
0.115	-25.27771
0.1155	-23.8678
0.116	-24.97559
0.1165	-15.81116
0.117	-16.81824
0.1175	-22.6593
0.118	-19.43665
0.1185	-20.24231
0.119	-16.91895
0.1195	-17.52319
0.12	-12.99133
0.1205	-14.30054
0.121	-11.07788
0.1215	-3.62549
0.122	-6.2439
0.1225	-2.01416
0.123	0.40283
0.1235	2.71912
0.124	3.22266
0.1245	4.43115
0.125	5.74036
0.1255	7.85522
0.126	19.94019
0.1265	48.03772
0.127	61.83472
0.1275	69.28711
0.128	58.91418
0.1285	44.81506
0.129	36.85913
0.1295	20.24231
0.13	7.15027
0.1305	-3.02124
0.131	3.92761
0.1315	25.07629
0.132	32.42798
0.1325	27.79541
0.133	23.16284
0.1335	5.23682
0.134	-9.66797
0.1345	-26.78833
0.135	-26.48621
0.1355	-38.77258
0.136	-36.05347
0.1365	-23.56567
0.137	-4.02832
0.1375	26.78833
0.138	53.67737
0.1385	64.45312
0.139	63.44604
0.1395	51.26038
0.14	25.47913
0.1405	12.08496
0.141	-3.12195
0.1415	-17.01965
0.142	-31.4209
0.1425	-39.37683
0.143	-24.27063
0.1435	0.30212
0.144	12.38708
0.1445	5.13611
0.145	-1.10779
0.1455	-12.48779
0.146	-14.40125
0.1465	-3.02124
0.147	9.46655
0.1475	0.90637
0.148	4.12903
0.1485	-0.20142
0.149	-12.08496
0.1495	-26.18408
0.15	-26.18408
0.1505	-17.6239
0.151	1.40991
0.1515	19.33594
0.152	45.41931
0.1525	60.4248
0.153	62.74109
0.1535	68.38074
0.154	74.2218
0.1545	60.3241
0.155	41.59241
0.1555	32.7301
0.156	40.1825
0.1565	58.61206
0.157	79.76074
0.1575	81.87561
0.158	78.25012
0.1585	62.03613
0.159	30.81665
0.1595	-1.61133
0.16	-24.67346
0.1605	-33.43506
0.161	-29.91028
0.1615	-38.36975
0.162	-44.21082
0.1625	-49.0448
0.163	-59.31702
0.1635	-60.62622
0.164	-75.22888
0.1645	-74.52393
0.165	-67.97791
0.1655	-64.05029
0.166	-53.07312
0.1665	-54.68445
0.167	-37.36267
0.1675	-31.32019
0.168	-31.32019
0.1685	-33.63647
0.169	-37.56409
0.1695	-47.8363
0.17	-46.02356
0.1705	-43.40515
0.171	-43.50586
0.1715	-21.04797
0.172	29.60815
0.1725	72.81189
0.173	80.06287
0.1735	80.06287
0.174	80.76782
0.1745	75.12817
0.175	63.94958
0.1755	39.27612
0.176	5.13611
0.1765	-25.78125
0.177	-50.354
0.1775	-64.85596
0.178	-70.29419
0.1785	-69.58923
0.179	-79.55933
0.1795	-76.43738
0.18	-73.41614
0.1805	-67.47437
0.181	-46.12427
0.1815	-25.47913
0.182	-16.11328
0.1825	-7.25098
0.183	-7.85522
0.1835	-4.33044
0.184	-14.40125
0.1845	-26.28479
0.185	-31.11877
0.1855	-32.7301
0.186	-27.6947
0.1865	-17.72461
0.187	-2.01416
0.1875	4.12903
0.188	13.797
0.1885	17.22107
0.189	22.55859
0.1895	24.77417
0.19	22.6593
0.1905	22.15576
0.191	20.1416
0.1915	15.1062
0.192	8.56018
0.1925	4.12903
0.193	-3.42407
0.1935	-3.02124
0.194	-3.52478
0.1945	2.81982
0.195	19.83948
0.1955	58.61206
0.196	86.60889
0.1965	85.29968
0.197	69.58923
0.1975	46.62781
0.198	18.93311
0.1985	-0.40283
0.199	-17.6239
0.1995	-33.03223
0.2	-45.82214
0.2005	-49.0448
0.201	-45.2179
0.2015	-38.06763
0.202	-33.9386
0.2025	-28.19824
0.203	-22.25647
0.2035	-15.71045
0.204	-16.61682
0.2045	-10.97717
0.205	0.80566
0.2055	14.30054
0.206	29.80957
0.2065	61.53259
0.207	81.67419
0.2075	90.03296
0.208	82.58057
0.2085	74.82605
0.209	90.63721
0.2095	111.78589
0.21	130.11475
0.2105	152.77405
0.211	142.90466
0.2115	120.04395
0.212	111.9873
0.2125	97.68677
0.213	74.52393
0.2135	62.53967
0.214	55.18799
0.2145	60.72693
0.215	56.69861
0.2155	30.01099
0.216	-10.67505
0.2165	-39.27612
0.217	-62.23755
0.2175	-83.08411
0.218	-107.95898
0.2185	-121.15173
0.219	-125.48218
0.2195	-119.84253
0.22	-123.2666
0.2205	-120.95032
0.221	-120.64819
0.2215	-122.76306
0.222	-122.66235
0.2225	-126.79138
0.223	-128.50342
0.2235	-118.43262
0.224	-83.48694
0.2245	-35.2478
0.225	7.75452
0.2255	20.64514
0.226	38.77258
0.2265	54.68445
0.227	55.79224
0.2275	44.11011
0.228	24.06921
0.2285	4.33044
0.229	-17.42249
0.2295	-34.03931
0.23	-40.78674
0.2305	-46.22498
0.231	-43.40515
0.2315	-39.67896
0.232	-34.64355
0.2325	-21.95435
0.233	-10.47363
0.2335	-8.05664
0.234	0.40283
0.2345	4.53186
0.235	2.01416
0.2355	-2.11487
0.236	-15.40833
0.2365	-29.00391
0.237	-32.42798
0.2375	-28.09753
0.238	-16.71753
0.2385	7.65381
0.239	23.36426
0.2395	31.72302
0.24	34.44214
0.2405	32.12585
0.241	30.01099
0.2415	26.58691
0.242	21.75293
0.2425	22.76001
0.243	32.62939
0.2435	44.71436
0.244	36.05347
0.2445	17.82532
0.245	3.42407
0.2455	-7.5531
0.246	-16.11328
0.2465	-24.77417
0.247	-39.88037
0.2475	-46.22498
0.248	-40.78674
0.2485	-44.71436
0.249	-49.0448
0.2495	-45.92285
0.25	-40.88745
0.2505	-47.33276
0.251	-46.42639
0.2515	-35.65063
0.252	-30.81665
0.2525	-30.11169
0.253	-18.53027
0.2535	-13.09204
0.254	-0.80566
0.2545	8.45947
0.255	7.75452
0.2555	12.08496
0.256	9.26514
0.2565	39.57825
0.257	73.41614
0.2575	88.0188
0.258	79.76074
0.2585	70.79773
0.259	62.33826
0.2595	47.23206
0.26	36.25488
0.2605	19.53735
0.261	12.89062
0.2615	3.32336
0.262	20.64514
0.2625	37.56409
0.263	34.84497
0.2635	27.09045
0.264	13.797
0.2645	-4.73328
0.265	-15.20691
0.2655	-21.14868
0.266	-9.36584
0.2665	1.3092
0.267	7.75452
0.2675	11.88354
0.268	17.22107
0.2685	37.86621
0.269	82.17773
0.2695	104.83704
0.27	114.60571
0.2705	99.60022
0.271	86.30676
0.2715	69.48853
0.272	41.18958
0.2725	20.64514
0.273	-4.02832
0.2735	-19.63806
0.274	-40.38391
0.2745	-48.13843
0.275	-47.7356
0.2755	-50.85754
0.276	-58.41064
0.2765	-70.99915
0.277	-71.40198
0.2775	-61.43188
0.278	-52.67029
0.2785	-44.81506
0.279	-41.79382
0.2795	-43.90869
0.28	-49.85046
0.2805	-47.7356
0.281	-48.54126
0.2815	-49.34692
0.282	-55.3894
0.2825	-59.61914
0.283	-59.51843
0.2835	-51.96533
0.284	-42.59949
0.2845	-42.39807
0.285	-35.54993
0.2855	-26.48621
0.286	-18.53027
0.2865	-7.75452
0.287	3.12195
0.2875	14.90479
0.288	24.27063
0.2885	31.11877
0.289	33.9386
0.2895	26.68762
0.29	25.78125
0.2905	24.77417
0.291	27.79541
0.2915	30.11169
0.292	51.46179
0.2925	60.92834
0.293	56.49719
0.2935	57.10144
0.294	49.85046
0.2945	37.06055
0.295	21.14868
0.2955	8.7616
0.296	-0.70496
0.2965	-7.04956
0.297	-16.81824
0.2975	-25.27771
0.298	-24.06921
0.2985	-13.69629
0.299	-12.48779
0.2995	-15.91187
0.3	-19.23523
0.3005	-16.11328
0.301	-12.5885
0.3015	-13.09204
0.302	-13.09204
0.3025	-4.02832
0.303	-3.8269
0.3035	1.40991
0.304	7.25098
0.3045	0.30212
0.305	6.74744
0.3055	22.96143
0.306	35.2478
0.3065	37.86621
0.307	29.00391
0.3075	13.39417
0.308	-10.77576
0.3085	-23.56567
0.309	-14.30054
0.3095	3.42407
0.31	15.81116
0.3105	16.61682
0.311	11.17859
0.3115	-0.60425
0.312	-1.91345
0.3125	-11.88354
0.313	-12.99133
0.3135	-2.01416
0.314	11.17859
0.3145	26.08337
0.315	36.05347
0.3155	27.19116
0.316	21.75293
0.3165	13.39417
0.317	-3.32336
0.3175	-14.19983
0.318	-15.81116
0.3185	-24.97559
0.319	-21.75293
0.3195	-24.57275
0.32	-34.64355
0.3205	-25.37842
0.321	-19.53735
0.3215	9.76868
0.322	68.07861
0.3225	119.94324
0.323	163.34839
0.3235	190.03601
0.324	191.54663
0.3245	152.97546
0.325	115.41138
0.3255	80.36499
0.326	70.99915
0.3265	45.92285
0.327	29.60815
0.3275	14.50195
0.328	-3.12195
0.3285	-29.00391
0.329	-50.55542
0.3295	-73.31543
0.33	-84.2926
0.3305	-95.16907
0.331	-87.41455
0.3315	-94.3634
0.332	-103.62854
0.3325	-115.61279
0.333	-113.59863
0.3335	-103.82996
0.334	-97.48535
0.3345	-103.42712
0.335	-101.41296
0.3355	-97.18323
0.336	-86.8103
0.3365	-64.95667
0.337	-49.95117
0.3375	-31.82373
0.338	-25.68054
0.3385	-17.52319
0.339	-9.86938
0.3395	-3.32336
0.34	-1.51062
0.3405	-1.2085
0.341	-1.2085
0.3415	6.94885
0.342	15.60974
0.3425	8.35876
0.343	22.15576
0.3435	59.1156
0.344	103.93066
0.3445	138.87634
0.345	136.96289
0.3455	124.27368
0.346	100.90942
0.3465	69.89136
0.347	34.64355
0.3475	9.97009
0.348	-10.97717
0.3485	-28.50037
0.349	-34.74426
0.3495	-21.04797
0.35	-3.62549
0.3505	-1.51062
0.351	-10.0708
0.3515	-15.60974
0.352	-34.03931
0.3525	-38.16833
0.353	-49.64905
0.3535	-57.00073
0.354	-53.57666
0.3545	-47.8363
0.355	-45.62073
0.3555	-50.354
0.356	-62.03613
0.3565	-67.47437
0.357	-58.41064
0.3575	-52.26746
0.358	-36.55701
0.3585	-28.19824
0.359	-22.25647
0.3595	-20.74585
0.36	-13.29346
0.3605	-12.48779
0.361	-11.78284
0.3615	-14.09912
0.362	-14.40125
0.3625	-16.01257
0.363	-11.07788
0.3635	-7.35168
0.364	-4.83398
0.3645	-3.52478
0.365	10.67505
0.3655	13.09204
0.366	14.09912
0.3665	16.91895
0.367	15.40833
0.3675	14.70337
0.368	17.12036
0.3685	20.24231
0.369	23.16284
0.3695	25.177
0.37	25.37842
0.3705	24.37134
0.371	21.85364
0.3715	15.81116
0.372	15.71045
0.3725	10.17151
0.373	26.78833
0.3735	57.40356
0.374	75.12817
0.3745	76.7395
0.375	72.61047
0.3755	65.76233
0.376	48.44055
0.3765	38.47046
0.377	36.4563
0.3775	23.8678
0.378	9.56726
0.3785	11.58142
0.379	9.06372
0.3795	13.39417
0.38	39.67896
0.3805	59.92126
0.381	61.53259
0.3815	48.33984
0.382	29.20532
0.3825	16.3147
0.383	1.81274
0.3835	-16.51611
0.384	-25.98267
0.3845	-36.05347
0.385	-39.07471
0.3855	-47.03064
0.386	-42.7002
0.3865	-24.57275
0.387	-16.11328
0.3875	-14.80408
0.388	-19.23523
0.3885	-26.3855
0.389	-32.12585
0.3895	-33.9386
0.39	-39.77966
0.3905	-32.52869
0.391	-35.04639
0.3915	-24.06921
0.392	-26.98975
0.3925	-26.48621
0.393	-25.47913
0.3935	3.8269
0.394	58.71277
0.3945	95.06836
0.395	129.61121
0.3955	145.72449
0.396	155.39246
0.3965	131.12183
0.397	126.28784
0.3975	112.59155
0.398	104.13208
0.3985	131.52466
0.399	143.3075
0.3995	118.33191
0.4	73.91968
0.4005	31.62231
0.401	-14.40125
0.4015	-51.15967
0.402	-73.31543
0.4025	-79.86145
0.403	-63.54675
0.4035	-39.17542
0.404	-11.38
0.4045	1.51062
0.405	4.02832
0.4055	1.61133
0.406	0.50354
0.4065	-1.91345
0.407	-15.60974
0.4075	-28.9032
0.408	-39.17542
0.4085	-47.7356
0.409	-64.25171
0.4095	-67.57507
0.41	-67.47437
0.4105	-49.14551
0.411	-44.71436
0.4115	-44.91577
0.412	-50.85754
0.4125	-59.82056
0.413	-54.18091
0.4135	-61.83472
0.414	-62.53967
0.4145	-63.44604
0.415	-58.61206
0.4155	-64.95667
0.416	-65.66162
0.4165	-70.89844
0.417	-66.26587
0.4175	-74.42322
0.418	-75.4303
0.4185	-67.47437
0.419	-63.94958
0.4195	-61.6333
0.42	-58.81348
0.4205	-49.14551
0.421	-42.59949
0.4215	-20.84656
0.422	13.39417
0.4225	14.90479
0.423	17.01965
0.4235	15.00549
0.424	13.49487
0.4245	13.59558
0.425	20.74585
0.4255	21.85364
0.426	18.42957
0.4265	14.40125
0.427	12.48779
0.4275	19.43665
0.428	20.1416
0.4285	23.96851
0.429	26.88904
0.4295	18.73169
0.43	22.25647
0.4305	38.16833
0.431	39.77966
0.4315	30.31311
0.432	12.28638
0.4325	-3.62549
0.433	-17.01965
0.4335	-37.96692
0.434	-44.91577
0.4345	-52.56958
0.435	-48.33984
0.4355	-49.95117
0.436	-48.33984
0.4365	-47.23206
0.437	-44.21082
0.4375	-32.12585
0.438	-24.87488
0.4385	-20.24231
0.439	-8.56018
0.4395	-11.78284
0.44	-0.20142
0.4405	8.7616
0.441	4.12903
0.4415	4.53186
0.442	12.78992
0.4425	26.3855
0.443	36.4563
0.4435	44.41223
0.444	52.06604
0.4445	82.37915
0.445	123.56873
0.4455	161.63635
0.446	171.90857
0.4465	151.56555
0.447	117.12341
0.4475	85.19897
0.448	55.3894
0.4485	21.24939
0.449	-5.84106
0.4495	-29.80957
0.45	-58.71277
0.4505	-76.13525
0.451	-78.95508
0.4515	-78.04871
0.452	-67.37366
0.4525	-57.9071
0.453	-45.62073
0.4535	-28.39966
0.454	-7.45239
0.4545	29.20532
0.455	67.67578
0.4555	76.63879
0.456	86.10535
0.4565	92.65137
0.457	73.71826
0.4575	37.56409
0.458	2.01416
0.4585	-31.52161
0.459	-56.79932
0.4595	-68.88428
0.46	-74.12109
0.4605	-74.62463
0.461	-74.32251
0.4615	-78.65295
0.462	-73.81897
0.4625	-71.40198
0.463	-66.06445
0.4635	-63.54675
0.464	-58.51135
0.4645	-55.99365
0.465	-54.68445
0.4655	-43.80798
0.466	-40.2832
0.4665	-37.96692
0.467	-32.7301
0.4675	-30.81665
0.468	-25.57983
0.4685	-21.75293
0.469	-18.12744
0.4695	-1.40991
0.47	8.35876
0.4705	21.55151
0.471	26.78833
0.4715	39.67896
0.472	66.06445
0.4725	100.40588
0.473	109.16748
0.4735	94.86694
0.474	75.12817
0.4745	65.56091
0.475	53.87878
0.4755	52.26746
0.476	38.77258
0.4765	25.98267
0.477	27.89612
0.4775	22.45789
0.478	18.73169
0.4785	17.42249
0.479	3.02124
0.4795	0.60425
0.48	-5.23682
0.4805	-13.19275
0.481	-20.34302
0.4815	-28.39966
0.482	-36.4563
0.4825	-34.94568
0.483	-41.59241
0.4835	-49.14551
0.484	-32.7301
0.4845	-17.42249
0.485	-22.76001
0.4855	-13.39417
0.486	-15.20691
0.4865	-23.66638
0.487	-28.19824
0.4875	-29.00391
0.488	-32.83081
0.4885	-41.69312
0.489	-51.66321
0.4895	-59.31702
0.49	-53.47595
0.4905	-45.01648
0.491	-34.03931
0.4915	-29.50745
0.492	-13.797
0.4925	2.81982
0.493	12.38708
0.4935	30.91736
0.494	41.18958
0.4945	53.07312
0.495	57.9071
0.4955	60.22339
0.496	53.47595
0.4965	46.02356
0.497	41.29028
0.4975	39.37683
0.498	50.2533
0.4985	61.93542
0.499	74.82605
0.4995	82.27844
0.5	74.2218
0.5005	55.18799
0.501	33.23364
0.5015	8.56018
0.502	-10.47363
0.5025	-21.14868
0.503	-10.97717
0.5035	14.09912
0.504	18.53027
0.5045	11.58142
0.505	-0.40283
0.5055	-18.22815
0.506	-38.87329
0.5065	-57.70569
0.507	-71.50269
0.5075	-74.12109
0.508	-56.39648
0.5085	-23.26355
0.509	-6.44531
0.5095	16.91895
0.51	19.33594
0.5105	16.41541
0.511	2.92053
0.5115	-3.42407
0.512	-4.83398
0.5125	-7.85522
0.513	-18.02673
0.5135	-24.47205
0.514	-29.70886
0.5145	-28.60107
0.515	-27.49329
0.5155	-25.27771
0.516	-17.92603
0.5165	-20.74585
0.517	-26.48621
0.5175	-36.25488
0.518	-26.3855
0.5185	-12.78992
0.519	2.81982
0.5195	5.0354
0.52	-7.95593
0.5205	-15.81116
0.521	-20.74585
0.5215	-23.96851
0.522	-29.20532
0.5225	-31.11877
0.523	-30.51453
0.5235	-28.29895
0.524	-20.04089
0.5245	-2.01416
0.525	24.57275
0.5255	43.40515
0.526	50.65613
0.5265	44.11011
0.527	31.62231
0.5275	19.63806
0.528	12.38708
0.5285	-3.52478
0.529	-14.70337
0.5295	-22.15576
0.53	-31.11877
0.5305	-41.4917
0.531	-34.03931
0.5315	-11.2793
0.532	26.28479
0.5325	54.78516
0.533	59.1156
0.5335	37.46338
0.534	15.71045
0.5345	3.22266
0.535	7.95593
0.5355	5.43823
0.536	3.62549
0.5365	3.32336
0.537	-5.53894
0.5375	-10.47363
0.538	-7.65381
0.5385	-0.90637
0.539	39.37683
0.5395	77.54517
0.54	93.96057
0.5405	80.36499
0.541	52.06604
0.5415	27.19116
0.542	8.96301
0.5425	-5.0354
0.543	-24.16992
0.5435	-34.24072
0.544	-46.5271
0.5445	-50.85754
0.545	-42.90161
0.5455	-23.66638
0.546	13.89771
0.5465	46.12427
0.547	55.08728
0.5475	59.71985
0.548	55.99365
0.5485	51.5625
0.549	45.11719
0.5495	18.22815
0.55	0.70496
0.5505	-12.5885
0.551	-30.51453
0.5515	-44.71436
0.552	-57.30286
0.5525	-65.25879
0.553	-67.57507
0.5535	-72.20764
0.554	-82.17773
0.5545	-86.60889
0.555	-90.83862
0.5555	-96.47827
0.556	-81.17065
0.5565	-71.60339
0.557	-59.61914
0.5575	-54.88586
0.558	-60.3241
0.5585	-68.78357
0.559	-64.45312
0.5595	-48.84338
0.56	-43.10303
0.5605	-28.50037
0.561	-18.8324
0.5615	-5.0354
0.562	7.35168
0.5625	7.75452
0.563	12.68921
0.5635	17.01965
0.564	20.94727
0.5645	24.27063
0.565	29.00391
0.5655	34.14001
0.566	36.15417
0.5665	37.06055
0.567	38.57117
0.5675	39.98108
0.568	34.64355
0.5685	26.78833
0.569	27.59399
0.5695	19.03381
0.57	11.78284
0.5705	6.94885
0.571	2.61841
0.5715	0
0.572	-8.25806
0.5725	-9.97009
0.573	-14.90479
0.5735	-19.43665
0.574	-9.66797
0.5745	-11.78284
0.575	-3.7262
0.5755	4.12903
0.576	-1.40991
0.5765	4.43115
0.577	-1.81274
0.5775	2.31628
0.578	0.10071
0.5785	0
0.579	-0.90637
0.5795	-3.52478
0.58	-1.40991
0.5805	-3.02124
0.581	9.36584
0.5815	22.45789
0.582	29.50745
0.5825	46.42639
0.583	72.20764
0.5835	81.7749
0.584	89.93225
0.5845	98.69385
0.585	92.14783
0.5855	82.47986
0.586	64.65454
0.5865	46.92993
0.587	20.24231
0.5875	0.70496
0.588	-13.49487
0.5885	-14.80408
0.589	-9.16443
0.5895	-13.797
0.59	-21.3501
0.5905	-26.08337
0.591	-38.87329
0.5915	-55.69153
0.592	-41.59241
0.5925	-24.06921
0.593	13.69629
0.5935	29.91028
0.594	40.78674
0.5945	47.23206
0.595	44.91577
0.5955	23.16284
0.596	5.33752
0.5965	-27.99683
0.597	-62.53967
0.5975	-86.70959
0.598	-96.8811
0.5985	-88.52234
0.599	-78.95508
0.5995	-71.20056
0.6	-59.61914
0.6005	-52.97241
0.601	-42.49878
0.6015	-27.09045
0.602	17.6239
0.6025	68.98499
0.603	88.32092
0.6035	88.52234
0.604	78.85437
0.6045	57.40356
0.605	36.05347
0.6055	15.60974
0.606	17.32178
0.6065	4.33044
0.607	-8.35876
0.6075	-10.37292
0.608	0.10071
0.6085	22.15576
0.609	22.76001
0.6095	9.36584
0.61	-8.35876
0.6105	-17.42249
0.611	-36.95984
0.6115	-44.81506
0.612	-64.75525
0.6125	-72.81189
0.613	-71.09985
0.6135	-78.55225
0.614	-79.2572
0.6145	-82.27844
0.615	-72.10693
0.6155	-58.81348
0.616	-46.82922
0.6165	-41.79382
0.617	-34.34143
0.6175	-39.17542
0.618	-33.33435
0.6185	-32.93152
0.619	-20.34302
0.6195	-10.27222
0.62	-7.75452
0.6205	-5.74036
0.621	-11.78284
0.6215	-7.85522
0.622	0.60425
0.6225	8.25806
0.623	34.44214
0.6235	48.23914
0.624	44.0094
0.6245	33.13293
0.625	26.48621
0.6255	11.58142
0.626	0.20142
0.6265	-6.04248
0.627	-12.08496
0.6275	-16.11328
0.628	-17.42249
0.6285	-17.92603
0.629	-16.51611
0.6295	-12.68921
0.63	-11.2793
0.6305	-9.86938
0.631	-4.93469
0.6315	-5.43823
0.632	-3.12195
0.6325	-13.59558
0.633	-9.86938
0.6335	-7.95593
0.634	-3.7262
0.6345	1.10779
0.635	-5.84106
0.6355	-14.90479
0.636	-20.74585
0.6365	-21.04797
0.637	-16.01257
0.6375	-8.7616
0.638	2.21558
0.6385	6.2439
0.639	6.44531
0.6395	8.45947
0.64	8.56018
0.6405	6.3446
0.641	8.15735
0.6415	11.2793
0.642	2.11487
0.6425	0.60425
0.643	4.83398
0.6435	7.45239
0.644	18.63098
0.6445	28.29895
0.645	49.14551
0.6455	62.33826
0.646	61.43188
0.6465	55.3894
0.647	48.94409
0.6475	33.73718
0.648	24.37134
0.6485	12.28638
0.649	1.71204
0.6495	-11.68213
0.65	-15.50903
0.6505	-16.01257
0.651	-18.22815
0.6515	-3.8269
0.652	16.01257
0.6525	24.77417
0.653	31.72302
0.6535	33.73718
0.654	30.41382
0.6545	25.78125
0.655	25.57983
0.6555	33.63647
0.656	51.15967
0.6565	55.59082
0.657	45.11719
0.6575	27.99683
0.658	9.16443
0.6585	1.71204
0.659	-1.51062
0.6595	-1.2085
0.66	-1.00708
0.6605	0.50354
0.661	8.45947
0.6615	11.98425
0.662	25.37842
0.6625	35.44922
0.663	47.13135
0.6635	39.77966
0.664	30.2124
0.6645	7.75452
0.665	-7.45239
0.6655	-7.45239
0.666	-0.30212
0.6665	4.83398
0.667	22.76001
0.6675	31.11877
0.668	18.42957
0.6685	7.15027
0.669	27.89612
0.6695	45.11719
0.67	46.92993
0.6705	21.85364
0.671	-3.92761
0.6715	-27.99683
0.672	-55.3894
0.6725	-78.75366
0.673	-95.47119
0.6735	-113.39722
0.674	-121.9574
0.6745	-130.8197
0.675	-136.15723
0.6755	-128.70483
0.676	-112.79297
0.6765	-92.75208
0.677	-69.48853
0.6775	-52.8717
0.678	-41.79382
0.6785	-21.65222
0.679	10.77576
0.6795	34.64355
0.68	47.7356
0.6805	59.51843
0.681	53.37524
0.6815	41.79382
0.682	31.82373
0.6825	44.11011
0.683	40.88745
0.6835	24.16992
0.684	0.30212
0.6845	-23.76709
0.685	-25.98267
0.6855	-24.77417
0.686	-19.23523
0.6865	-21.85364
0.687	-12.38708
0.6875	-9.46655
0.688	-9.86938
0.6885	-9.66797
0.689	-22.55859
0.6895	-28.50037
0.69	-25.78125
0.6905	-30.61523
0.691	-19.63806
0.6915	-3.8269
0.692	24.37134
0.6925	43.10303
0.693	44.81506
0.6935	41.59241
0.694	28.39966
0.6945	9.86938
0.695	-9.56726
0.6955	-29.91028
0.696	-50.05188
0.6965	-65.76233
0.697	-69.48853
0.6975	-64.45312
0.698	-51.36108
0.6985	-33.83789
0.699	-19.63806
0.6995	-1.51062
0.7	10.37292
0.7005	12.68921
0.701	10.0708
0.7015	14.80408
0.702	23.26355
0.7025	30.41382
0.703	37.66479
0.7035	26.98975
0.704	22.35718
0.7045	11.07788
0.705	6.2439
0.7055	5.13611
0.706	7.35168
0.7065	16.61682
0.707	32.02515
0.7075	46.92993
0.708	55.59082
0.7085	62.74109
0.709	73.51685
0.7095	66.16516
0.71	48.44055
0.7105	45.72144
0.711	34.64355
0.7115	13.49487
0.712	1.10779
0.7125	3.02124
0.713	6.64673
0.7135	-6.04248
0.714	-23.46497
0.7145	-25.27771
0.715	-21.95435
0.7155	-19.83948
0.716	-30.11169
0.7165	-30.81665
0.717	-33.03223
0.7175	-11.88354
0.718	13.69629
0.7185	33.33435
0.719	33.13293
0.7195	19.03381
0.72	19.33594
0.7205	4.83398
0.721	-13.19275
0.7215	-12.99133
0.722	-17.01965
0.7225	-12.08496
0.723	-8.25806
0.7235	1.10779
0.724	-1.51062
0.7245	-7.65381
0.725	-11.2793
0.7255	-16.91895
0.726	0.20142
0.7265	11.88354
0.727	15.00549
0.7275	15.1062
0.728	19.53735
0.7285	21.14868
0.729	21.55151
0.7295	20.74585
0.73	28.80249
0.7305	9.66797
0.731	-19.03381
0.7315	-30.01099
0.732	-13.89771
0.7325	-23.06213
0.733	-31.52161
0.7335	-26.68762
0.734	-3.42407
0.7345	20.1416
0.735	12.48779
0.7355	5.43823
0.736	3.12195
0.7365	-6.64673
0.737	-23.06213
0.7375	-31.11877
0.738	-44.51294
0.7385	-56.19507
0.739	-54.28162
0.7395	-40.88745
0.74	-47.43347
0.7405	-56.29578
0.741	-60.4248
0.7415	-72.50977
0.742	-49.95117
0.7425	-16.11328
0.743	9.36584
0.7435	20.1416
0.744	32.52869
0.7445	18.42957
0.745	10.47363
0.7455	-3.12195
0.746	-10.27222
0.7465	-12.18567
0.747	-21.85364
0.7475	-31.62231
0.748	-25.47913
0.7485	-25.07629
0.749	-22.45789
0.7495	-21.85364
0.75	-10.97717
0.7505	1.81274
0.751	0
0.7515	-4.12903
0.752	-11.17859
0.7525	-12.68921
0.753	-7.75452
0.7535	-4.33044
0.754	-8.25806
0.7545	-14.90479
0.755	-22.05505
0.7555	-36.95984
0.756	-40.2832
0.7565	-38.16833
0.757	1.40991
0.7575	46.42639
0.758	77.54517
0.7585	96.57898
0.759	87.71667
0.7595	67.97791
0.76	39.98108
0.7605	21.55151
0.761	6.84814
0.7615	0.80566
0.762	-11.88354
0.7625	-10.97717
0.763	-15.40833
0.7635	-10.67505
0.764	-4.12903
0.7645	-9.06372
0.765	-9.46655
0.7655	-20.24231
0.766	-22.05505
0.7665	-23.8678
0.767	-29.50745
0.7675	-25.37842
0.768	-24.16992
0.7685	-17.6239
0.769	-22.96143
0.7695	-16.3147
0.77	-8.15735
0.7705	16.3147
0.771	37.16125
0.7715	44.71436
0.772	50.85754
0.7725	50.05188
0.773	46.72852
0.7735	44.31152
0.774	47.93701
0.7745	58.51135
0.775	70.59631
0.7755	83.08411
0.776	91.14075
0.7765	79.55933
0.777	68.78357
0.7775	44.11011
0.778	33.43506
0.7785	12.38708
0.779	-7.65381
0.7795	-26.48621
0.78	-34.74426
0.7805	-37.86621
0.781	-38.06763
0.7815	-55.2887
0.782	-65.66162
0.7825	-67.8772
0.783	-64.65454
0.7835	-55.49011
0.784	-46.92993
0.7845	-43.80798
0.785	-46.02356
0.7855	-51.66321
0.786	-55.89294
0.7865	-53.57666
0.787	-49.14551
0.7875	-38.47046
0.788	-21.65222
0.7885	-4.83398
0.789	-4.53186
0.7895	-9.56726
0.79	9.26514
0.7905	52.36816
0.791	67.37366
0.7915	72.81189
0.792	65.86304
0.7925	51.66321
0.793	46.32568
0.7935	29.50745
0.794	-2.5177
0.7945	-20.24231
0.795	-25.78125
0.7955	-39.17542
0.796	-61.6333
0.7965	-70.79773
0.797	-73.51685
0.7975	-75.93384
0.798	-75.32959
0.7985	-73.91968
0.799	-63.94958
0.7995	-54.0802
0.8	-31.4209
0.8005	-4.63257
0.801	27.59399
0.8015	32.22656
0.802	20.54443
0.8025	8.05664
0.803	-4.22974
0.8035	-1.2085
0.804	26.78833
0.8045	44.31152
0.805	41.4917
0.8055	45.11719
0.806	73.11401
0.8065	94.2627
0.807	107.85828
0.8075	93.45703
0.808	75.93384
0.8085	57.30286
0.809	36.85913
0.8095	24.16992
0.81	18.63098
0.8105	4.33044
0.811	-4.33044
0.8115	11.98425
0.812	4.43115
0.8125	-9.16443
0.813	-16.11328
0.8135	-20.54443
0.814	-26.98975
0.8145	-27.6947
0.815	-43.40515
0.8155	-46.72852
0.816	-45.41931
0.8165	-46.12427
0.817	-50.65613
0.8175	-57.30286
0.818	-65.56091
0.8185	-63.74817
0.819	-50.15259
0.8195	-31.62231
0.82	-41.69312
0.8205	-31.52161
0.821	-26.88904
0.8215	-19.43665
0.822	-8.96301
0.8225	11.38
0.823	60.92834
0.8235	103.22571
0.824	106.44836
0.8245	76.23596
0.825	39.88037
0.8255	11.17859
0.826	-12.89062
0.8265	-40.38391
0.827	-53.17383
0.8275	-73.71826
0.828	-81.37207
0.8285	-76.13525
0.829	-72.9126
0.8295	-54.98657
0.83	-42.59949
0.8305	-20.44373
0.831	-2.92053
0.8315	5.0354
0.832	6.54602
0.8325	-2.31628
0.833	-0.20142
0.8335	2.61841
0.834	7.5531
0.8345	8.35876
0.835	17.32178
0.8355	26.3855
0.836	23.66638
0.8365	30.71594
0.837	22.6593
0.8375	20.44373
0.838	20.84656
0.8385	10.27222
0.839	-3.42407
0.8395	-15.00549
0.84	-10.67505
0.8405	-2.81982
0.841	-5.13611
0.8415	3.52478
0.842	62.23755
0.8425	131.02112
0.843	152.97546
0.8435	151.06201
0.844	141.09192
0.8445	125.28076
0.845	101.31226
0.8455	80.96924
0.846	52.97241
0.8465	19.03381
0.847	-18.32886
0.8475	-50.45471
0.848	-82.47986
0.8485	-103.22571
0.849	-110.87952
0.8495	-110.57739
0.85	-125.07935
0.8505	-123.66943
0.851	-123.36731
0.8515	-117.72766
0.852	-111.68518
0.8525	-108.66394
0.853	-100.70801
0.8535	-85.80322
0.854	-78.14941
0.8545	-80.4657
0.855	-80.66711
0.8555	-72.10693
0.856	-59.51843
0.8565	-47.53418
0.857	-26.08337
0.8575	-14.50195
0.858	-2.11487
0.8585	6.14319
0.859	10.0708
0.8595	10.27222
0.86	11.88354
0.8605	4.93469
0.861	1.71204
0.8615	-7.45239
0.862	-9.46655
0.8625	3.02124
0.863	21.04797
0.8635	40.88745
0.864	60.3241
0.8645	74.02039
0.865	75.32959
0.8655	82.78198
0.866	93.75916
0.8665	94.06128
0.867	84.89685
0.8675	66.46729
0.868	47.23206
0.8685	30.31311
0.869	11.78284
0.8695	-7.5531
0.87	-10.67505
0.8705	-9.26514
0.871	-14.80408
0.8715	-15.00549
0.872	-14.30054
0.8725	-12.5885
0.873	-9.76868
0.8735	-17.42249
0.874	-14.30054
0.8745	-10.17151
0.875	0.40283
0.8755	1.00708
0.876	5.94177
0.8765	-3.32336
0.877	3.62549
0.8775	-3.02124
0.878	0.80566
0.8785	3.22266
0.879	7.35168
0.8795	0.30212
0.88	2.31628
0.8805	4.53186
0.881	27.6947
0.8815	53.57666
0.882	60.4248
0.8825	52.26746
0.883	34.14001
0.8835	27.89612
0.884	34.34143
0.8845	34.94568
0.885	38.77258
0.8855	27.39258
0.886	7.04956
0.8865	6.44531
0.887	0.50354
0.8875	-15.30762
0.888	-19.53735
0.8885	-30.51453
0.889	-35.14709
0.8895	-49.95117
0.89	-57.40356
0.8905	-67.8772
0.891	-75.12817
0.8915	-70.69702
0.892	-62.9425
0.8925	-54.68445
0.893	-46.72852
0.8935	-51.46179
0.894	-55.3894
0.8945	-44.21082
0.895	-33.83789
0.8955	-28.70178
0.896	-26.88904
0.8965	-21.14868
0.897	-16.61682
0.8975	-9.56726
0.898	-9.06372
0.8985	-10.27222
0.899	-7.04956
0.8995	0.90637
0.9	-1.71204
0.9005	-0.80566
0.901	6.04248
0.9015	7.65381
0.902	7.95593
0.9025	8.56018
0.903	2.71912
0.9035	5.43823
0.904	9.86938
0.9045	12.38708
0.905	18.42957
0.9055	43.90869
0.906	52.8717
0.9065	68.07861
0.907	76.03455
0.9075	77.64587
0.908	98.0896
0.9085	121.15173
0.909	125.88501
0.9095	105.23987
0.91	88.32092
0.9105	69.38782
0.911	42.29736
0.9115	20.94727
0.912	1.00708
0.9125	-21.3501
0.913	-21.04797
0.9135	6.84814
0.914	29.00391
0.9145	38.77258
0.915	27.19116
0.9155	5.74036
0.916	-17.82532
0.9165	-16.71753
0.917	-20.24231
0.9175	-36.4563
0.918	-39.27612
0.9185	-28.19824
0.919	-15.71045
0.9195	11.2793
0.92	45.52002
0.9205	61.53259
0.921	72.40906
0.9215	74.2218
0.922	77.24304
0.9225	65.56091
0.923	42.49878
0.9235	24.27063
0.924	9.56726
0.9245	-4.63257
0.925	-24.47205
0.9255	-43.70728
0.926	-62.8418
0.9265	-79.05579
0.927	-92.34924
0.9275	-97.18323
0.928	-98.19031
0.9285	-107.55615
0.929	-111.58447
0.9295	-109.26819
0.93	-100.00305
0.9305	-70.89844
0.931	-42.7002
0.9315	-12.68921
0.932	6.14319
0.9325	6.94885
0.933	1.10779
0.9335	-0.60425
0.934	-3.92761
0.9345	-8.25806
0.935	-16.3147
0.9355	-17.92603
0.936	-26.68762
0.9365	-32.7301
0.937	-32.7301
0.9375	-29.91028
0.938	-23.06213
0.9385	-13.59558
0.939	-18.02673
0.9395	-13.99841
0.94	-9.46655
0.9405	-4.22974
0.941	9.46655
0.9415	15.60974
0.942	16.91895
0.9425	16.81824
0.943	10.57434
0.9435	9.66797
0.944	8.05664
0.9445	4.63257
0.945	11.38
0.9455	5.63965
0.946	11.68213
0.9465	15.81116
0.947	12.68921
0.9475	8.05664
0.948	14.70337
0.9485	12.99133
0.949	8.05664
0.9495	2.01416
0.95	-3.8269
0.9505	-5.63965
0.951	-7.25098
0.9515	2.5177
0.952	14.40125
0.9525	33.53577
0.953	47.93701
0.9535	48.33984
0.954	48.64197
0.9545	36.35559
0.955	16.01257
0.9555	3.52478
0.956	-5.74036
0.9565	-9.46655
0.957	-13.89771
0.9575	-13.39417
0.958	-14.40125
0.9585	-10.97717
0.959	-6.3446
0.9595	-9.97009
0.96	3.12195
0.9605	15.20691
0.961	20.24231
0.9615	22.55859
0.962	10.0708
0.9625	-10.27222
0.963	-25.57983
0.9635	-30.51453
0.964	-38.77258
0.9645	-42.59949
0.965	-48.44055
0.9655	-44.81506
0.966	-37.36267
0.9665	-25.57983
0.967	-21.04797
0.9675	-15.20691
0.968	-7.95593
0.9685	12.18567
0.969	33.83789
0.9695	36.4563
0.97	48.23914
0.9705	58.30994
0.971	72.71118
0.9715	74.52393
0.972	69.1864
0.9725	58.20923
0.973	41.39099
0.9735	27.49329
0.974	9.26514
0.9745	1.71204
0.975	-2.31628
0.9755	-2.61841
0.976	-6.54602
0.9765	-19.53735
0.977	-23.56567
0.9775	-46.12427
0.978	-67.57507
0.9785	-72.20764
0.979	-80.96924
0.9795	-72.50977
0.98	-58.61206
0.9805	-40.88745
0.981	-30.81665
0.9815	-22.35718
0.982	-19.33594
0.9825	-20.64514
0.983	-23.66638
0.9835	-35.54993
0.984	-39.98108
0.9845	-39.37683
0.985	-31.62231
0.9855	-19.94019
0.986	2.92053
0.9865	28.60107
0.987	44.21082
0.9875	43.10303
0.988	45.92285
0.9885	49.64905
0.989	55.69153
0.9895	76.23596
0.99	95.87402
0.9905	97.48535
0.991	95.87402
0.9915	89.328
0.992	79.2572
0.9925	75.53101
0.993	83.99048
0.9935	63.14392
0.994	39.37683
0.9945	6.84814
0.995	-14.30054
0.9955	-37.66479
0.996	-58.00781
0.9965	-78.35083
0.997	-85.5011
0.9975	-91.34216
0.998	-101.8158
0.9985	-97.38464
0.999	-97.18323
0.9995	-93.45703
1	-91.745
1.0005	-87.21313
1.001	-79.55933
1.0015	-69.89136
1.002	-65.96375
1.0025	-57.60498
1.003	-41.89453
1.0035	-27.29187
1.004	-28.80249
1.0045	-27.39258
1.005	-27.39258
1.0055	-21.24939
1.006	-17.01965
1.0065	-9.76868
1.007	1.2085
1.0075	7.45239
1.008	25.37842
1.0085	44.51294
1.009	41.4917
1.0095	40.98816
1.01	34.24072
1.0105	35.85205
1.011	30.2124
1.0115	38.77258
1.012	40.38391
1.0125	44.0094
1.013	45.52002
1.0135	57.00073
1.014	87.01172
1.0145	97.08252
1.015	89.52942
1.0155	73.81897
1.016	59.41772
1.0165	43.60657
1.017	38.77258
1.0175	34.64355
1.018	32.02515
1.0185	17.52319
1.019	-4.93469
1.0195	-26.78833
1.02	-49.34692
1.0205	-62.74109
1.021	-53.17383
1.0215	-43.10303
1.022	-30.41382
1.0225	-32.22656
1.023	-30.11169
1.0235	-27.6947
1.024	-25.57983
1.0245	-23.26355
1.025	-20.64514
1.0255	-28.70178
1.026	-42.39807
1.0265	-57.70569
1.027	-57.60498
1.0275	-54.18091
1.028	-44.0094
1.0285	-29.30603
1.029	-29.20532
1.0295	-30.2124
1.03	-33.9386
1.0305	-28.80249
1.031	-17.82532
1.0315	-7.15027
1.032	4.63257
1.0325	9.66797
1.033	0.60425
1.0335	-7.04956
1.034	-10.37292
1.0345	-14.50195
1.035	-13.29346
1.0355	-6.64673
1.036	0.40283
1.0365	-1.51062
1.037	1.2085
1.0375	-1.51062
1.038	-9.16443
1.0385	5.74036
1.039	38.77258
1.0395	54.18091
1.04	58.61206
1.0405	55.59082
1.041	45.82214
1.0415	40.08179
1.042	27.29187
1.0425	19.03381
1.043	10.87646
1.0435	1.91345
1.044	-2.41699
1.0445	4.83398
1.045	17.82532
1.0455	33.73718
1.046	42.29736
1.0465	34.44214
1.047	23.16284
1.0475	13.29346
1.048	4.93469
1.0485	-3.52478
1.049	-1.00708
1.0495	4.53186
1.05	13.09204
1.0505	15.00549
1.051	17.72461
1.0515	13.29346
1.052	12.5885
1.0525	12.18567
1.053	4.63257
1.0535	2.31628
1.054	-8.66089
1.0545	-16.01257
1.055	-14.80408
1.0555	-20.24231
1.056	-18.63098
1.0565	-22.05505
1.057	-31.82373
1.0575	-39.67896
1.058	-49.0448
1.0585	-62.13684
1.059	-57.9071
1.0595	-41.39099
1.06	-25.07629
1.0605	-5.74036
1.061	1.40991
1.0615	-12.99133
1.062	-33.83789
1.0625	-28.80249
1.063	-17.32178
1.0635	-5.94177
1.064	40.88745
1.0645	101.21155
1.065	130.92041
1.0655	137.0636
1.066	117.22412
1.0665	102.31934
1.067	92.55066
1.0675	73.61755
1.068	44.21082
1.0685	18.93311
1.069	-7.04956
1.0695	-32.62939
1.07	-37.06055
1.0705	-34.84497
1.071	-40.68604
1.0715	-33.43506
1.072	-34.84497
1.0725	-26.98975
1.073	-6.04248
1.0735	1.81274
1.074	-4.33044
1.0745	-12.68921
1.075	9.36584
1.0755	60.62622
1.076	102.11792
1.0765	100.6073
1.077	70.59631
1.0775	35.2478
1.078	14.40125
1.0785	-4.73328
1.079	-26.78833
1.0795	-47.33276
1.08	-62.64038
1.0805	-72.00623
1.081	-72.40906
1.0815	-77.54517
1.082	-85.80322
1.0825	-85.80322
1.083	-91.44287
1.0835	-98.39172
1.084	-107.45544
1.0845	-105.34058
1.085	-100.6073
1.0855	-72.50977
1.086	-47.43347
1.0865	-17.32178
1.087	12.5885
1.0875	27.99683
1.088	32.62939
1.0885	53.77808
1.089	66.36658
1.0895	58.81348
1.09	57.00073
1.0905	72.30835
1.091	80.96924
1.0915	65.76233
1.092	47.03064
1.0925	-5.43823
1.093	-47.33276
1.0935	-78.04871
1.094	-84.79614
1.0945	-83.88977
1.095	-78.14941
1.0955	-70.49561
1.096	-67.17224
1.0965	-56.09436
1.097	-46.42639
1.0975	-33.23364
1.098	-20.64514
1.0985	-23.06213
1.099	-19.23523
1.0995	0.40283
1.1	25.68054
1.1005	40.68604
1.101	50.15259
1.1015	34.74426
1.102	18.53027
1.1025	4.12903
1.103	-1.40991
1.1035	-11.38
1.104	-2.41699
1.1045	4.33044
1.105	18.12744
1.1055	29.50745
1.106	16.41541
1.1065	10.17151
1.107	12.08496
1.1075	17.72461
1.108	12.99133
1.1085	15.20691
1.109	7.15027
1.1095	6.84814
1.11	22.86072
1.1105	36.25488
1.111	38.47046
1.1115	45.11719
1.112	44.11011
1.1125	46.62781
1.113	43.70728
1.1135	51.86462
1.114	68.28003
1.1145	63.34534
1.115	44.21082
1.1155	28.19824
1.116	19.83948
1.1165	13.69629
1.117	17.32178
1.1175	11.78284
1.118	2.61841
1.1185	15.20691
1.119	38.67188
1.1195	60.02197
1.12	59.51843
1.1205	44.81506
1.121	20.54443
1.1215	0.10071
1.122	-7.95593
1.1225	-7.5531
1.123	-13.09204
1.1235	-28.9032
1.124	-45.92285
1.1245	-59.61914
1.125	-70.89844
1.1255	-70.59631
1.126	-70.59631
1.1265	-73.11401
1.127	-65.3595
1.1275	-54.68445
1.128	-21.55151
1.1285	-5.13611
1.129	3.22266
1.1295	7.25098
1.13	18.32886
1.1305	22.6593
1.131	17.82532
1.1315	18.12744
1.132	14.70337
1.1325	17.42249
1.133	27.99683
1.1335	40.48462
1.134	42.29736
1.1345	46.5271
1.135	33.53577
1.1355	9.76868
1.136	-6.3446
1.1365	-10.27222
1.137	-12.08496
1.1375	-22.35718
1.138	-37.06055
1.1385	-43.00232
1.139	-38.67188
1.1395	-40.48462
1.14	-39.47754
1.1405	-43.80798
1.141	-47.93701
1.1415	-37.96692
1.142	-30.91736
1.1425	-0.50354
1.143	39.98108
1.1435	55.3894
1.144	69.08569
1.1445	73.31543
1.145	64.151
1.1455	62.23755
1.146	62.33826
1.1465	84.59473
1.147	119.4397
1.1475	117.82837
1.148	97.68677
1.1485	68.28003
1.149	28.39966
1.1495	-16.61682
1.15	-54.78516
1.1505	-78.55225
1.151	-92.04712
1.1515	-103.62854
1.152	-118.13049
1.1525	-121.35315
1.153	-107.45544
1.1535	-92.55066
1.154	-69.68994
1.1545	-45.82214
1.155	-40.1825
1.1555	-33.83789
1.156	-26.3855
1.1565	-20.74585
1.157	-16.01257
1.1575	0.40283
1.158	5.0354
1.1585	17.82532
1.159	33.9386
1.1595	58.51135
1.16	66.36658
1.1605	59.1156
1.161	60.62622
1.1615	68.07861
1.162	74.12109
1.1625	62.23755
1.163	33.73718
1.1635	25.07629
1.164	7.95593
1.1645	4.43115
1.165	16.3147
1.1655	34.44214
1.166	26.88904
1.1665	21.24939
1.167	11.2793
1.1675	3.12195
1.168	-13.69629
1.1685	-26.58691
1.169	-39.88037
1.1695	-45.62073
1.17	-20.44373
1.1705	-15.91187
1.171	-16.51611
1.1715	-15.71045
1.172	-12.38708
1.1725	-25.57983
1.173	-20.94727
1.1735	29.20532
1.174	52.36816
1.1745	47.33276
1.175	37.46338
1.1755	35.65063
1.176	26.68762
1.1765	16.61682
1.177	-4.22974
1.1775	-3.7262
1.178	34.74426
1.1785	65.76233
1.179	76.13525
1.1795	59.31702
1.18	37.66479
1.1805	12.99133
1.181	-2.81982
1.1815	-9.06372
1.182	-6.94885
1.1825	-5.33752
1.183	-29.91028
1.1835	-48.23914
1.184	-69.08569
1.1845	-82.47986
1.185	-87.71667
1.1855	-88.22021
1.186	-91.54358
1.1865	-95.16907
1.187	-93.0542
1.1875	-78.75366
1.188	-50.2533
1.1885	-40.58533
1.189	-36.4563
1.1895	-35.04639
1.19	-14.60266
1.1905	17.12036
1.191	32.62939
1.1915	26.68762
1.192	29.40674
1.1925	38.974
1.193	32.62939
1.1935	18.22815
1.194	-5.74036
1.1945	-22.86072
1.195	-42.59949
1.1955	-28.29895
1.196	-30.81665
1.1965	-38.06763
1.197	-44.41223
1.1975	-52.8717
1.198	-44.41223
1.1985	-17.6239
1.199	28.09753
1.1995	57.9071
1.2	69.1864
1.2005	59.82056
1.201	46.32568
1.2015	21.95435
1.202	7.95593
1.2025	-0.20142
1.203	-19.33594
1.2035	-31.4209
1.204	-27.19116
1.2045	-11.68213
1.205	8.56018
1.2055	2.11487
1.206	-0.70496
1.2065	-5.94177
1.207	-15.00549
1.2075	-23.26355
1.208	-21.24939
1.2085	-15.30762
1.209	-20.1416
1.2095	-15.71045
1.21	-4.43115
1.2105	1.40991
1.211	0.10071
1.2115	-10.67505
1.212	-21.04797
1.2125	-25.27771
1.213	-5.13611
1.2135	35.95276
1.214	57.50427
1.2145	62.03613
1.215	54.28162
1.2155	51.15967
1.216	41.89453
1.2165	21.65222
1.217	5.13611
1.2175	-18.42957
1.218	-27.89612
1.2185	-43.60657
1.219	-47.03064
1.2195	-48.23914
1.22	-37.66479
1.2205	-27.99683
1.221	-16.71753
1.2215	-20.44373
1.222	-33.73718
1.2225	-46.5271
1.223	-36.35559
1.2235	-14.30054
1.224	33.53577
1.2245	110.57739
1.225	181.27441
1.2255	206.75354
1.226	202.32239
1.2265	187.31689
1.227	150.25635
1.2275	128.10059
1.228	98.59314
1.2285	50.85754
1.229	9.66797
1.2295	-29.91028
1.23	-46.02356
1.2305	-63.84888
1.231	-63.44604
1.2315	-68.07861
1.232	-60.82764
1.2325	-61.73401
1.233	-60.4248
1.2335	-64.85596
1.234	-72.9126
1.2345	-69.1864
1.235	-67.57507
1.2355	-70.69702
1.236	-69.28711
1.2365	-64.45312
1.237	-66.36658
1.2375	-71.40198
1.238	-71.20056
1.2385	-67.67578
1.239	-61.53259
1.2395	-64.75525
1.24	-65.3595
1.2405	-63.54675
1.241	-59.71985
1.2415	-45.52002
1.242	-27.59399
1.2425	-8.96301
1.243	2.81982
1.2435	19.33594
1.244	21.45081
1.2445	14.30054
1.245	36.15417
1.2455	77.74658
1.246	113.39722
1.2465	134.44519
1.247	140.28625
1.2475	158.11157
1.248	157.30591
1.2485	177.44751
1.249	209.77478
1.2495	219.34204
1.25	195.97778
1.2505	150.8606
1.251	99.09668
1.2515	66.6687
1.252	32.93152
1.2525	-18.63098
1.253	-64.05029
1.2535	-76.84021
1.254	-93.55774
1.2545	-106.24695
1.255	-110.6781
1.2555	-110.77881
1.256	-109.77173
1.2565	-115.61279
1.257	-123.2666
1.2575	-121.75598
1.258	-118.43262
1.2585	-108.26111
1.259	-91.34216
1.2595	-102.72217
1.26	-93.45703
1.2605	-89.52942
1.261	-91.44287
1.2615	-102.82288
1.262	-86.40747
1.2625	-63.34534
1.263	-56.69861
1.2635	-57.40356
1.264	-56.29578
1.2645	-52.771
1.265	-40.1825
1.2655	-28.60107
1.266	-18.12744
1.2665	-24.67346
1.267	-26.28479
1.2675	-22.45789
1.268	-17.92603
1.2685	-15.91187
1.269	-13.69629
1.2695	-13.09204
1.27	-3.42407
1.2705	12.38708
1.271	10.27222
1.2715	6.84814
1.272	9.86938
1.2725	14.30054
1.273	39.57825
1.2735	57.50427
1.274	103.32642
1.2745	112.39014
1.275	119.74182
1.2755	137.36572
1.276	144.01245
1.2765	136.76147
1.277	122.86377
1.2775	119.74182
1.278	120.64819
1.2785	105.74341
1.279	85.80322
1.2795	58.51135
1.28	23.16284
1.2805	6.04248
1.281	-14.60266
1.2815	-32.83081
1.282	-50.05188
1.2825	-60.4248
1.283	-81.27136
1.2835	-87.11243
1.284	-84.49402
1.2845	-74.12109
1.285	-61.73401
1.2855	-50.55542
1.286	-38.47046
1.2865	-31.72302
1.287	-27.09045
1.2875	-20.54443
1.288	-23.66638
1.2885	-15.40833
1.289	-6.74744
1.2895	12.78992
1.29	24.67346
1.2905	65.46021
1.291	92.14783
1.2915	106.64978
1.292	106.8512
1.2925	84.09119
1.293	57.20215
1.2935	46.42639
1.294	21.3501
1.2945	-2.01416
1.295	-15.81116
1.2955	3.12195
1.296	15.71045
1.2965	41.59241
1.297	35.65063
1.2975	6.14319
1.298	-23.06213
1.2985	-47.23206
1.299	-57.60498
1.2995	-77.34375
1.3	-85.80322
1.3005	-62.9425
1.301	-35.14709
1.3015	3.12195
1.302	7.95593
1.3025	1.71204
1.303	-8.15735
1.3035	-31.01807
1.304	-61.23047
1.3045	-73.71826
1.305	-86.70959
1.3055	-91.34216
1.306	-43.00232
1.3065	-18.12744
1.307	-8.45947
1.3075	-6.44531
1.308	-1.91345
1.3085	-10.77576
1.309	-8.7616
1.3095	-21.55151
1.31	-25.98267
1.3105	-20.74585
1.311	-13.69629
1.3115	0
1.312	-15.40833
1.3125	-33.13293
1.313	-34.24072
1.3135	-21.75293
1.314	-22.55859
1.3145	-25.27771
1.315	-20.74585
1.3155	-10.67505
1.316	-2.61841
1.3165	11.17859
1.317	21.65222
1.3175	11.38
1.318	-17.32178
1.3185	-47.63489
1.319	-58.71277
1.3195	-55.89294
1.32	-43.60657
1.3205	-32.7301
1.321	-30.91736
1.3215	-14.70337
1.322	-11.68213
1.3225	-15.71045
1.323	-6.94885
1.3235	-2.61841
1.324	-5.84106
1.3245	-0.40283
1.325	-1.71204
1.3255	-1.61133
1.326	3.42407
1.3265	8.56018
1.327	8.66089
1.3275	-3.02124
1.328	-12.5885
1.3285	-9.56726
1.329	-5.43823
1.3295	-8.05664
1.33	-13.797
1.3305	-7.25098
1.331	2.71912
1.3315	4.02832
1.332	6.3446
1.3325	6.54602
1.333	10.87646
1.3335	8.25806
1.334	9.86938
1.3345	22.76001
1.335	37.56409
1.3355	34.44214
1.336	49.95117
1.3365	67.07153
1.337	70.09277
1.3375	63.14392
1.338	35.54993
1.3385	27.79541
1.339	26.28479
1.3395	9.06372
1.34	-5.33752
1.3405	-16.81824
1.341	-11.17859
1.3415	10.77576
1.342	24.37134
1.3425	23.36426
1.343	24.47205
1.3435	22.96143
1.344	41.99524
1.3445	36.4563
1.345	13.19275
1.3455	-18.73169
1.346	-28.80249
1.3465	-20.44373
1.347	-11.98425
1.3475	-19.33594
1.348	1.51062
1.3485	13.69629
1.349	18.02673
1.3495	16.51611
1.35	26.48621
1.3505	30.2124
1.351	27.79541
1.3515	33.53577
1.352	57.20215
1.3525	55.3894
1.353	49.24622
1.3535	38.77258
1.354	6.54602
1.3545	-10.67505
1.355	-9.66797
1.3555	-8.66089
1.356	-17.01965
1.3565	-13.89771
1.357	-19.83948
1.3575	-29.00391
1.358	-42.7002
1.3585	-54.0802
1.359	-61.73401
1.3595	-62.9425
1.36	-65.66162
1.3605	-71.30127
1.361	-70.89844
1.3615	-60.82764
1.362	-50.05188
1.3625	-53.07312
1.363	-70.99915
1.3635	-86.20605
1.364	-85.70251
1.3645	-67.27295
1.365	-56.39648
1.3655	-52.97241
1.366	-51.86462
1.3665	-45.3186
1.367	-25.88196
1.3675	-15.00549
1.368	-8.8623
1.3685	9.56726
1.369	56.5979
1.3695	100.30518
1.37	109.16748
1.3705	101.41296
1.371	78.45154
1.3715	61.6333
1.372	34.84497
1.3725	9.56726
1.373	-9.66797
1.3735	-9.16443
1.374	-6.64673
1.3745	-11.38
1.375	-28.80249
1.3755	-50.55542
1.376	-51.26038
1.3765	-71.30127
1.377	-75.12817
1.3775	-67.47437
1.378	-53.07312
1.3785	-29.91028
1.379	-11.58142
1.3795	14.90479
1.38	28.80249
1.3805	40.68604
1.381	43.20374
1.3815	42.7002
1.382	43.60657
1.3825	36.15417
1.383	19.23523
1.3835	15.30762
1.384	7.15027
1.3845	-0.50354
1.385	-26.48621
1.3855	-51.76392
1.386	-71.30127
1.3865	-79.15649
1.387	-81.17065
1.3875	-71.40198
1.388	-58.41064
1.3885	-56.39648
1.389	-53.77808
1.3895	-47.8363
1.39	-45.11719
1.3905	-36.25488
1.391	-26.18408
1.3915	-16.81824
1.392	-23.56567
1.3925	-16.41541
1.393	-2.61841
1.3935	11.07788
1.394	22.76001
1.3945	16.3147
1.395	17.6239
1.3955	29.70886
1.396	61.6333
1.3965	87.01172
1.397	128.90625
1.3975	176.33972
1.398	206.45142
1.3985	213.40027
1.399	204.84009
1.3995	191.64734
1.4	145.32166
1.4005	101.8158
1.401	54.18091
1.4015	11.17859
1.402	-13.99841
1.4025	-14.09912
1.403	5.43823
1.4035	15.1062
1.404	17.82532
1.4045	6.44531
1.405	22.96143
1.4055	24.97559
1.406	13.49487
1.4065	3.52478
1.407	-20.44373
1.4075	-24.57275
1.408	-30.11169
1.4085	-40.08179
1.409	-57.50427
1.4095	-70.59631
1.41	-77.74658
1.4105	-78.65295
1.411	-88.0188
1.4115	-101.21155
1.412	-100.20447
1.4125	-74.02039
1.413	-42.19666
1.4135	-12.08496
1.414	16.11328
1.4145	16.3147
1.415	-30.41382
1.4155	-76.63879
1.416	-107.45544
1.4165	-130.92041
1.417	-142.099
1.4175	-145.12024
1.418	-132.0282
1.4185	-115.91492
1.419	-86.10535
1.4195	-59.21631
1.42	-28.60107
1.4205	6.04248
1.421	31.62231
1.4215	44.81506
1.422	47.23206
1.4225	63.64746
1.423	88.0188
1.4235	83.99048
1.424	68.78357
1.4245	50.45471
1.425	43.40515
1.4255	64.55383
1.426	115.31067
1.4265	134.84802
1.427	119.74182
1.4275	99.2981
1.428	82.58057
1.4285	56.79932
1.429	21.95435
1.4295	-12.48779
1.43	-25.68054
1.4305	3.92761
1.431	18.22815
1.4315	17.72461
1.432	15.91187
1.4325	2.41699
1.433	-23.46497
1.4335	-56.5979
1.434	-75.73242
1.4345	-86.91101
1.435	-98.69385
1.4355	-107.85828
1.436	-93.85986
1.4365	-76.33667
1.437	-61.83472
1.4375	-45.3186
1.438	-39.67896
1.4385	-44.0094
1.439	-39.57825
1.4395	-44.71436
1.44	-28.50037
1.4405	-8.66089
1.441	7.65381
1.4415	17.72461
1.442	21.24939
1.4425	2.11487
1.443	-24.77417
1.4435	-43.90869
1.444	-53.47595
1.4445	-61.73401
1.445	-60.12268
1.4455	-52.26746
1.446	-53.47595
1.4465	-53.97949
1.447	-35.14709
1.4475	-19.23523
1.448	-6.94885
1.4485	10.57434
1.449	15.00549
1.4495	17.6239
1.45	32.42798
1.4505	54.0802
1.451	86.30676
1.4515	86.70959
1.452	84.19189
1.4525	65.66162
1.453	49.0448
1.4535	37.36267
1.454	27.09045
1.4545	4.33044
1.455	11.88354
1.4555	22.96143
1.456	60.92834
1.4565	93.25562
1.457	88.62305
1.4575	123.66943
1.458	128.60413
1.4585	109.97314
1.459	68.28003
1.4595	13.797
1.46	-35.2478
1.4605	-73.11401
1.461	-100.50659
1.4615	-120.24536
1.462	-93.75916
1.4625	-65.3595
1.463	-64.75525
1.4635	-69.48853
1.464	-76.7395
1.4645	-71.60339
1.465	-60.12268
1.4655	-53.27454
1.466	-55.69153
1.4665	-56.79932
1.467	-56.5979
1.4675	-49.64905
1.468	-50.65613
1.4685	-46.12427
1.469	-42.29736
1.4695	-42.59949
1.47	-47.53418
1.4705	-55.59082
1.471	-58.20923
1.4715	-53.57666
1.472	-41.18958
1.4725	-22.25647
1.473	-1.51062
1.4735	-5.74036
1.474	-4.43115
1.4745	13.797
1.475	36.4563
1.4755	49.24622
1.476	64.55383
1.4765	71.30127
1.477	58.10852
1.4775	52.97241
1.478	30.51453
1.4785	32.62939
1.479	35.75134
1.4795	35.04639
1.48	28.80249
1.4805	6.14319
1.481	3.32336
1.4815	7.45239
1.482	-2.31628
1.4825	-6.94885
1.483	-13.39417
1.4835	-12.18567
1.484	-22.05505
1.4845	-17.72461
1.485	-13.89771
1.4855	-10.97717
1.486	-6.3446
1.4865	-1.91345
1.487	-12.28638
1.4875	-28.70178
1.488	-33.63647
1.4885	-51.36108
1.489	-54.68445
1.4895	-49.95117
1.49	-42.29736
1.4905	-17.92603
1.491	-7.35168
1.4915	2.41699
1.492	4.73328
1.4925	5.53894
1.493	17.82532
1.4935	23.06213
1.494	36.4563
1.4945	46.62781
1.495	56.90002
1.4955	60.3241
1.496	54.98657
1.4965	43.20374
1.497	27.09045
1.4975	19.63806
1.498	8.7616
1.4985	10.67505
1.499	59.21631
1.4995	102.72217
1.5	113.39722
1.5005	108.05969
1.501	76.33667
1.5015	44.51294
1.502	16.91895
1.5025	12.18567
1.503	4.93469
1.5035	-10.17151
1.504	-14.50195
1.5045	-16.51611
1.505	-18.63098
1.5055	-16.71753
1.506	-7.5531
1.5065	-12.89062
1.507	-16.41541
1.5075	-28.9032
1.508	-35.44922
1.5085	-45.2179
1.509	-52.771
1.5095	-58.91418
1.51	-66.16516
1.5105	-77.14233
1.511	-85.09827
1.5115	-95.87402
1.512	-99.09668
1.5125	-69.28711
1.513	-20.34302
1.5135	22.86072
1.514	46.82922
1.5145	38.67188
1.515	30.11169
1.5155	9.86938
1.516	-24.47205
1.5165	-50.95825
1.517	-59.82056
1.5175	-56.69861
1.518	-63.34534
1.5185	-72.40906
1.519	-68.07861
1.5195	-62.53967
1.52	-58.51135
1.5205	-59.82056
1.521	-51.96533
1.5215	-35.54993
1.522	-22.76001
1.5225	-1.71204
1.523	11.98425
1.5235	12.99133
1.524	1.61133
1.5245	2.01416
1.525	14.70337
1.5255	20.24231
1.526	48.64197
1.5265	76.53809
1.527	87.11243
1.5275	75.12817
1.528	61.83472
1.5285	42.19666
1.529	22.55859
1.5295	8.35876
1.53	-8.45947
1.5305	-14.80408
1.531	-26.48621
1.5315	-39.17542
1.532	-34.54285
1.5325	-26.28479
1.533	-21.75293
1.5335	-18.8324
1.534	-14.40125
1.5345	-10.97717
1.535	-15.00549
1.5355	9.26514
1.536	25.27771
1.5365	40.58533
1.537	34.03931
1.5375	17.72461
1.538	4.93469
1.5385	-7.45239
1.539	-12.18567
1.5395	-12.18567
1.54	7.75452
1.5405	17.42249
1.541	12.18567
1.5415	1.3092
1.542	-2.71912
1.5425	-8.15735
1.543	-2.61841
1.5435	1.91345
1.544	6.3446
1.5445	6.54602
1.545	-2.5177
1.5455	-2.41699
1.546	-2.11487
1.5465	-1.40991
1.547	5.63965
1.5475	16.91895
1.548	23.06213
1.5485	22.35718
1.549	31.01807
1.5495	39.57825
1.55	47.63489
1.5505	42.8009
1.551	25.07629
1.5515	10.97717
1.552	0.50354
1.5525	-15.1062
1.553	-19.83948
1.5535	-15.91187
1.554	-2.41699
1.5545	9.06372
1.555	26.68762
1.5555	30.71594
1.556	32.42798
1.5565	4.93469
1.557	-17.32178
1.5575	-31.32019
1.558	-39.07471
1.5585	-42.8009
1.559	-44.91577
1.5595	-40.78674
1.56	-27.39258
1.5605	-4.22974
1.561	17.22107
1.5615	38.974
1.562	48.33984
1.5625	55.3894
1.563	75.02747
1.5635	101.41296
1.564	102.11792
1.5645	109.16748
1.565	102.92358
1.5655	81.17065
1.566	45.11719
1.5665	30.31311
1.567	10.87646
1.5675	3.02124
1.568	-4.63257
1.5685	-29.80957
1.569	-43.30444
1.5695	-60.22339
1.57	-68.48145
1.5705	-55.3894
1.571	-27.6947
1.5715	-1.91345
1.572	40.38391
1.5725	78.35083
1.573	93.0542
1.5735	82.68127
1.574	65.66162
1.5745	36.75842
1.575	6.04248
1.5755	-5.63965
1.576	6.64673
1.5765	18.02673
1.577	12.99133
1.5775	-4.63257
1.578	-25.177
1.5785	-27.6947
1.579	-8.25806
1.5795	-6.54602
1.58	-15.00549
1.5805	-38.57117
1.581	-64.85596
1.5815	-94.06128
1.582	-96.57898
1.5825	-93.25562
1.583	-87.41455
1.5835	-66.26587
1.584	-56.29578
1.5845	-70.09277
1.585	-74.92676
1.5855	-65.3595
1.586	-25.47913
1.5865	29.50745
1.587	60.92834
1.5875	67.57507
1.588	44.51294
1.5885	4.73328
1.589	-30.91736
1.5895	-59.1156
1.59	-75.12817
1.5905	-86.40747
1.591	-80.26428
1.5915	-81.7749
1.592	-79.05579
1.5925	-69.58923
1.593	-44.31152
1.5935	-16.61682
1.594	-1.2085
1.5945	17.01965
1.595	34.03931
1.5955	45.11719
1.596	56.09436
1.5965	85.09827
1.597	128.50342
1.5975	144.6167
1.598	139.37988
1.5985	106.54907
1.599	88.82446
1.5995	68.78357
1.6	43.70728
1.6005	27.09045
1.601	8.56018
1.6015	5.0354
1.602	1.2085
1.6025	-6.14319
1.603	-19.33594
1.6035	-25.47913
1.604	-2.71912
1.6045	15.20691
1.605	31.92444
1.6055	35.04639
1.606	-0.30212
1.6065	-32.12585
1.607	-58.71277
1.6075	-50.05188
1.608	-31.4209
1.6085	-44.11011
1.609	-61.73401
1.6095	-76.03455
1.61	-69.28711
1.6105	-51.05896
1.611	-54.18091
1.6115	-66.26587
1.612	-55.69153
1.6125	-38.16833
1.613	-15.91187
1.6135	-11.88354
1.614	-11.38
1.6145	-5.63965
1.615	-1.51062
1.6155	-1.3092
1.616	5.33752
1.6165	15.40833
1.617	7.5531
1.6175	7.5531
1.618	5.53894
1.6185	15.91187
1.619	24.27063
1.6195	24.67346
1.62	27.49329
1.6205	56.19507
1.621	76.33667
1.6215	110.47668
1.622	123.36731
1.6225	132.0282
1.623	126.58997
1.6235	125.98572
1.624	111.68518
1.6245	66.76941
1.625	27.19116
1.6255	-16.01257
1.626	-47.13135
1.6265	-47.93701
1.627	-40.08179
1.6275	-33.03223
1.628	-47.93701
1.6285	-66.36658
1.629	-71.30127
1.6295	-75.73242
1.63	-78.95508
1.6305	-72.40906
1.631	-70.49561
1.6315	-69.08569
1.632	-61.23047
1.6325	-43.60657
1.633	-30.2124
1.6335	-15.40833
1.634	-4.12903
1.6345	-8.05664
1.635	-13.29346
1.6355	-10.47363
1.636	-5.43823
1.6365	3.7262
1.637	14.30054
1.6375	23.96851
1.638	63.24463
1.6385	115.81421
1.639	136.05652
1.6395	146.53015
1.64	155.79529
1.6405	126.28784
1.641	89.22729
1.6415	52.36816
1.642	43.60657
1.6425	41.99524
1.643	37.26196
1.6435	36.35559
1.644	32.02515
1.6445	24.16992
1.645	12.5885
1.6455	-6.3446
1.646	-20.54443
1.6465	-33.13293
1.647	-40.98816
1.6475	-50.15259
1.648	-56.5979
1.6485	-59.61914
1.649	-67.67578
1.6495	-82.78198
1.65	-108.36182
1.6505	-127.19421
1.651	-131.62537
1.6515	-133.43811
1.652	-134.74731
1.6525	-122.25952
1.653	-104.73633
1.6535	-88.32092
1.654	-70.29419
1.6545	-61.43188
1.655	-41.08887
1.6555	-17.12036
1.656	-6.74744
1.6565	11.17859
1.657	34.74426
1.6575	47.03064
1.658	59.71985
1.6585	110.27527
1.659	156.80237
1.6595	148.84644
1.66	119.13757
1.6605	82.78198
1.661	63.94958
1.6615	26.88904
1.662	0.60425
1.6625	-20.94727
1.663	-23.76709
1.6635	-32.42798
1.664	-33.73718
1.6645	-28.70178
1.665	-25.27771
1.6655	-25.07629
1.666	-31.72302
1.6665	-50.45471
1.667	-30.61523
1.6675	6.94885
1.668	28.60107
1.6685	33.73718
1.669	32.32727
1.6695	22.25647
1.67	23.06213
1.6705	22.96143
1.671	8.05664
1.6715	-3.22266
1.672	-13.29346
1.6725	-13.99841
1.673	-4.12903
1.6735	1.10779
1.674	0.30212
1.6745	3.12195
1.675	7.15027
1.6755	17.52319
1.676	22.25647
1.6765	20.84656
1.677	14.90479
1.6775	18.12744
1.678	15.1062
1.6785	11.68213
1.679	-7.85522
1.6795	-21.04797
1.68	-29.40674
1.6805	-7.45239
1.681	9.46655
1.6815	21.3501
1.682	26.78833
1.6825	36.65771
1.683	44.51294
1.6835	60.02197
1.684	76.23596
1.6845	90.93933
1.685	115.61279
1.6855	131.02112
1.686	111.9873
1.6865	93.55774
1.687	91.8457
1.6875	67.67578
1.688	25.37842
1.6885	-3.32336
1.689	-15.50903
1.6895	-35.85205
1.69	-63.54675
1.6905	-95.97473
1.691	-123.06519
1.6915	-152.27051
1.692	-164.85901
1.6925	-166.87317
1.693	-163.85193
1.6935	-145.22095
1.694	-104.83704
1.6945	-27.09045
1.695	40.48462
1.6955	80.76782
1.696	101.11084
1.6965	105.74341
1.697	99.80164
1.6975	71.20056
1.698	45.52002
1.6985	28.60107
1.699	24.06921
1.6995	13.797
1.7	-5.84106
1.7005	-12.18567
1.701	-27.09045
1.7015	-31.52161
1.702	-30.81665
1.7025	-21.65222
1.703	-7.04956
1.7035	10.57434
1.704	17.42249
1.7045	26.3855
1.705	40.58533
1.7055	50.05188
1.706	45.92285
1.7065	49.54834
1.707	58.20923
1.7075	46.5271
1.708	51.15967
1.7085	54.78516
1.709	53.57666
1.7095	37.16125
1.71	21.75293
1.7105	5.13611
1.711	-20.44373
1.7115	-39.07471
1.712	-52.16675
1.7125	-58.51135
1.713	-54.58374
1.7135	-59.41772
1.714	-64.05029
1.7145	-78.95508
1.715	-93.25562
1.7155	-99.3988
1.716	-90.93933
1.7165	-91.34216
1.717	-84.59473
1.7175	-75.4303
1.718	-71.30127
1.7185	-83.99048
1.719	-82.9834
1.7195	-70.49561
1.72	-66.06445
1.7205	-63.84888
1.721	-59.21631
1.7215	-51.76392
1.722	-34.84497
1.7225	-29.10461
1.723	-29.70886
1.7235	-35.95276
1.724	-36.55701
1.7245	-26.68762
1.725	-19.13452
1.7255	-17.82532
1.726	-11.68213
1.7265	-4.33044
1.727	6.2439
1.7275	16.51611
1.728	15.60974
1.7285	10.37292
1.729	6.74744
1.7295	16.71753
1.73	14.30054
1.7305	30.2124
1.731	47.7356
1.7315	77.54517
1.732	133.63953
1.7325	167.98096
1.733	161.83777
1.7335	144.11316
1.734	107.95898
1.7345	73.81897
1.735	39.07471
1.7355	20.04089
1.736	-9.36584
1.7365	-37.36267
1.737	-59.92126
1.7375	-75.53101
1.738	-82.47986
1.7385	-80.4657
1.739	-71.40198
1.7395	-78.55225
1.74	-85.90393
1.7405	-78.04871
1.741	-53.47595
1.7415	-34.03931
1.742	-9.66797
1.7425	42.19666
1.743	81.37207
1.7435	111.18164
1.744	114.00146
1.7445	88.11951
1.745	67.97791
1.7455	53.47595
1.746	38.47046
1.7465	26.48621
1.747	16.71753
1.7475	3.42407
1.748	-8.66089
1.7485	-5.63965
1.749	-2.61841
1.7495	0.50354
1.75	0.40283
1.7505	-1.10779
1.751	-9.46655
1.7515	-9.26514
1.752	-10.97717
1.7525	-22.35718
1.753	-20.64514
1.7535	-22.45789
1.754	-21.85364
1.7545	-28.80249
1.755	-33.33435
1.7555	-38.36975
1.756	-17.82532
1.7565	7.45239
1.757	34.14001
1.7575	39.17542
1.758	36.25488
1.7585	41.69312
1.759	49.95117
1.7595	51.86462
1.76	58.10852
1.7605	64.05029
1.761	62.9425
1.7615	55.99365
1.762	52.36816
1.7625	38.77258
1.763	21.85364
1.7635	13.09204
1.764	5.63965
1.7645	5.13611
1.765	24.67346
1.7655	56.29578
1.766	50.65613
1.7665	16.21399
1.767	1.71204
1.7675	-1.00708
1.768	-31.82373
1.7685	-60.12268
1.769	-62.13684
1.7695	-50.95825
1.77	-14.30054
1.7705	28.60107
1.771	51.76392
1.7715	62.74109
1.772	65.76233
1.7725	60.3241
1.773	32.22656
1.7735	28.29895
1.774	38.06763
1.7745	30.31311
1.775	17.12036
1.7755	-11.2793
1.776	-31.92444
1.7765	-50.75684
1.777	-76.23596
1.7775	-93.85986
1.778	-103.02429
1.7785	-100.50659
1.779	-99.60022
1.7795	-100.80872
1.78	-95.87402
1.7805	-89.02588
1.781	-73.11401
1.7815	-64.05029
1.782	-49.14551
1.7825	-30.91736
1.783	-2.61841
1.7835	9.66797
1.784	34.54285
1.7845	73.81897
1.785	76.23596
1.7855	83.78906
1.786	96.07544
1.7865	102.42004
1.787	100.10376
1.7875	100.10376
1.788	102.92358
1.7885	85.5011
1.789	62.13684
1.7895	37.7655
1.79	13.49487
1.7905	-9.76868
1.791	-33.13293
1.7915	-52.36816
1.792	-64.05029
1.7925	-77.44446
1.793	-94.76624
1.7935	-116.41846
1.794	-117.42554
1.7945	-122.96448
1.795	-125.88501
1.7955	-120.95032
1.796	-119.4397
1.7965	-116.82129
1.797	-108.86536
1.7975	-96.98181
1.798	-80.36499
1.7985	-63.94958
1.799	-54.38232
1.7995	-35.04639
1.8	-1.10779
1.8005	16.41541
1.801	27.99683
1.8015	25.68054
1.802	26.78833
1.8025	12.99133
1.803	-2.31628
1.8035	-11.38
1.804	-2.11487
1.8045	7.65381
1.805	7.35168
1.8055	9.56726
1.806	12.18567
1.8065	22.45789
1.807	32.62939
1.8075	35.65063
1.808	39.98108
1.8085	43.50586
1.809	33.53577
1.8095	37.06055
1.81	38.06763
1.8105	33.53577
1.811	37.26196
1.8115	52.36816
1.812	73.31543
1.8125	76.94092
1.813	81.37207
1.8135	75.83313
1.814	70.99915
1.8145	49.24622
1.815	23.46497
1.8155	-2.71912
1.816	-27.19116
1.8165	-34.94568
1.817	-32.62939
1.8175	-29.60815
1.818	-6.14319
1.8185	36.05347
1.819	83.58765
1.8195	93.75916
1.82	90.93933
1.8205	95.5719
1.821	102.21863
1.8215	95.67261
1.822	70.89844
1.8225	51.26038
1.823	37.86621
1.8235	27.39258
1.824	12.08496
1.8245	-13.39417
1.825	-28.19824
1.8255	-20.64514
1.826	15.00549
1.8265	60.02197
1.827	71.20056
1.8275	73.51685
1.828	59.92126
1.8285	46.72852
1.829	31.11877
1.8295	8.66089
1.83	0.60425
1.8305	-14.70337
1.831	-31.52161
1.8315	-50.05188
1.832	-65.25879
1.8325	-76.63879
1.833	-95.16907
1.8335	-134.5459
1.834	-146.73157
1.8345	-128.60413
1.835	-96.67969
1.8355	-60.02197
1.836	-33.73718
1.8365	-17.52319
1.837	2.81982
1.8375	25.57983
1.838	26.08337
1.8385	7.15027
1.839	-12.89062
1.8395	-15.40833
1.84	-5.13611
1.8405	-11.88354
1.841	-22.25647
1.8415	-25.98267
1.842	-36.4563
1.8425	-40.48462
1.843	-55.18799
1.8435	-74.92676
1.844	-84.09119
1.8445	-97.48535
1.845	-108.86536
1.8455	-114.30359
1.846	-100.30518
1.8465	-87.91809
1.847	-72.61047
1.8475	-47.13135
1.848	-31.01807
1.8485	-11.98425
1.849	3.8269
1.8495	21.95435
1.85	52.36816
1.8505	68.28003
1.851	78.95508
1.8515	66.97083
1.852	49.95117
1.8525	36.15417
1.853	18.93311
1.8535	11.38
1.854	9.06372
1.8545	9.46655
1.855	16.21399
1.8555	2.81982
1.856	-6.44531
1.8565	-11.17859
1.857	-7.45239
1.8575	-6.3446
1.858	1.10779
1.8585	12.28638
1.859	16.91895
1.8595	20.1416
1.86	22.45789
1.8605	19.53735
1.861	21.3501
1.8615	18.8324
1.862	19.43665
1.8625	17.92603
1.863	3.42407
1.8635	-1.00708
1.864	-9.66797
1.8645	-4.83398
1.865	13.59558
1.8655	26.28479
1.866	27.6947
1.8665	21.04797
1.867	14.60266
1.8675	11.48071
1.868	7.25098
1.8685	0.50354
1.869	-6.14319
1.8695	-0.60425
1.87	9.06372
1.8705	24.47205
1.871	50.354
1.8715	72.40906
1.872	74.82605
1.8725	76.53809
1.873	71.7041
1.8735	79.86145
1.874	68.98499
1.8745	52.26746
1.875	34.24072
1.8755	17.42249
1.876	9.76868
1.8765	9.46655
1.877	10.0708
1.8775	7.35168
1.878	24.77417
1.8785	61.93542
1.879	83.78906
1.8795	73.81897
1.88	55.89294
1.8805	37.66479
1.881	15.00549
1.8815	-10.0708
1.882	-22.86072
1.8825	-31.32019
1.883	-38.67188
1.8835	-31.01807
1.884	-14.60266
1.8845	4.63257
1.885	31.11877
1.8855	37.66479
1.886	40.08179
1.8865	46.62781
1.887	46.12427
1.8875	43.60657
1.888	12.78992
1.8885	-30.71594
1.889	-55.08728
1.8895	-41.69312
1.89	-3.8269
1.8905	46.82922
1.891	78.45154
1.8915	117.42554
1.892	158.71582
1.8925	173.21777
1.893	175.13123
1.8935	173.82202
1.894	147.03369
1.8945	105.13916
1.895	58.91418
1.8955	6.14319
1.896	-45.72144
1.8965	-94.46411
1.897	-129.40979
1.8975	-152.67334
1.898	-170.09583
1.8985	-178.85742
1.899	-178.25317
1.8995	-176.44043
1.9	-174.52698
1.9005	-170.49866
1.901	-165.36255
1.9015	-153.78113
1.902	-146.83228
1.9025	-145.42236
1.903	-140.38696
1.9035	-133.63953
1.904	-140.58838
1.9045	-151.06201
1.905	-135.15015
1.9055	-121.9574
1.906	-94.06128
1.9065	-75.02747
1.907	-55.89294
1.9075	-37.7655
1.908	-24.16992
1.9085	-13.59558
1.909	0.10071
1.9095	12.38708
1.91	25.27771
1.9105	30.01099
1.911	27.19116
1.9115	26.68762
1.912	51.46179
1.9125	68.68286
1.913	74.72534
1.9135	76.33667
1.914	71.30127
1.9145	61.02905
1.915	56.29578
1.9155	55.89294
1.916	56.5979
1.9165	34.14001
1.917	25.47913
1.9175	7.04956
1.918	7.5531
1.9185	8.7616
1.919	8.25806
1.9195	20.94727
1.92	19.63806
1.9205	16.71753
1.921	30.01099
1.9215	50.354
1.922	74.12109
1.9225	70.99915
1.923	63.54675
1.9235	36.25488
1.924	-9.46655
1.9245	-33.63647
1.925	-51.86462
1.9255	-57.8064
1.926	-55.18799
1.9265	-39.88037
1.927	-22.6593
1.9275	-5.63965
1.928	7.04956
1.9285	24.77417
1.929	37.26196
1.9295	46.92993
1.93	37.66479
1.9305	28.29895
1.931	26.28479
1.9315	39.07471
1.932	41.18958
1.9325	45.01648
1.933	31.11877
1.9335	21.14868
1.934	19.03381
1.9345	3.52478
1.935	6.14319
1.9355	2.61841
1.936	-8.15735
1.9365	-16.11328
1.937	-16.91895
1.9375	-21.85364
1.938	-23.76709
1.9385	-17.12036
1.939	-13.99841
1.9395	-7.15027
1.94	-4.63257
1.9405	-1.61133
1.941	2.01416
1.9415	-5.74036
1.942	-0.90637
1.9425	12.78992
1.943	13.39417
1.9435	19.43665
1.944	14.30054
1.9445	23.36426
1.945	42.19666
1.9455	53.27454
1.946	55.79224
1.9465	53.97949
1.947	59.21631
1.9475	57.30286
1.948	43.30444
1.9485	25.27771
1.949	12.68921
1.9495	7.04956
1.95	-5.33752
1.9505	-24.97559
1.951	-39.47754
1.9515	-51.76392
1.952	-56.09436
1.9525	-52.46887
1.953	-48.74268
1.9535	-46.5271
1.954	-45.2179
1.9545	-41.08887
1.955	-27.6947
1.9555	-10.37292
1.956	2.92053
1.9565	26.88904
1.957	72.40906
1.9575	137.76855
1.958	195.37354
1.9585	219.03992
1.959	216.62292
1.9595	211.08398
1.96	189.43176
1.9605	145.72449
1.961	93.45703
1.9615	24.77417
1.962	-43.80798
1.9625	-83.68835
1.963	-104.73633
1.9635	-117.02271
1.964	-136.76147
1.9645	-156.09741
1.965	-152.1698
1.9655	-153.3783
1.966	-127.39563
1.9665	-107.45544
1.967	-92.55066
1.9675	-83.78906
1.968	-64.05029
1.9685	-30.91736
1.969	-6.74744
1.9695	1.40991
1.97	2.41699
1.9705	5.84106
1.971	11.88354
1.9715	14.30054
1.972	13.797
1.9725	7.65381
1.973	-11.58142
1.9735	-14.70337
1.974	-5.33752
1.9745	3.02124
1.975	1.00708
1.9755	8.35876
1.976	25.177
1.9765	57.00073
1.977	70.79773
1.9775	76.94092
1.978	80.36499
1.9785	98.39172
1.979	110.98022
1.9795	102.72217
1.98	94.56482
1.9805	76.7395
1.981	41.39099
1.9815	1.10779
1.982	-26.08337
1.9825	-54.48303
1.983	-74.62463
1.9835	-81.17065
1.984	-79.2572
1.9845	-72.40906
1.985	-77.44446
1.9855	-83.48694
1.986	-94.06128
1.9865	-98.39172
1.987	-91.14075
1.9875	-73.91968
1.988	-59.21631
1.9885	-48.03772
1.989	-40.38391
1.9895	-29.70886
1.99	-38.26904
1.9905	-66.36658
1.991	-87.11243
1.9915	-91.14075
1.992	-96.67969
1.9925	-88.22021
1.993	-73.51685
1.9935	-49.74976
1.994	-37.16125
1.9945	-21.95435
1.995	0.20142
1.9955	35.65063
1.996	61.53259
1.9965	66.6687
1.997	69.89136
1.9975	78.45154
1.998	69.99207
1.9985	81.06995
1.999	82.58057
1.9995	95.06836
2	110.98022
2.0005	120.34607
2.001	105.34058
2.0015	87.81738
2.002	75.53101
2.0025	76.94092
2.003	74.52393
2.0035	55.49011
2.004	25.57983
2.0045	-5.84106
2.005	-28.70178
2.0055	-50.65613
2.006	-48.44055
2.0065	-39.98108
2.007	-15.30762
2.0075	18.63098
2.008	39.88037
2.0085	52.97241
2.009	52.8717
2.0095	29.30603
2.01	-7.25098
2.0105	-20.24231
2.011	-26.58691
2.0115	-39.98108
2.012	-40.68604
2.0125	-41.18958
2.013	-51.86462
2.0135	-59.21631
2.014	-55.99365
2.0145	-43.40515
2.015	-31.11877
2.0155	-5.84106
2.016	12.68921
2.0165	21.14868
2.017	7.25098
2.0175	-1.2085
2.018	-15.20691
2.0185	-27.79541
2.019	-35.44922
2.0195	-48.33984
2.02	-54.78516
2.0205	-57.60498
2.021	-55.99365
2.0215	-53.97949
2.022	-26.3855
2.0225	-1.2085
2.023	5.43823
2.0235	-3.62549
2.024	-3.62549
2.0245	-4.22974
2.025	-7.15027
2.0255	-10.97717
2.026	-19.33594
2.0265	-37.66479
2.027	-41.4917
2.0275	-35.2478
2.028	-24.27063
2.0285	-23.36426
2.029	-14.70337
2.0295	39.37683
2.03	88.52234
2.0305	94.2627
2.031	73.81897
2.0315	54.88586
2.032	47.03064
2.0325	36.95984
2.033	29.60815
2.0335	28.39966
2.034	30.71594
2.0345	42.09595
2.035	34.64355
2.0355	17.92603
2.036	-5.0354
2.0365	-27.09045
2.037	-34.64355
2.0375	-46.62781
2.038	-53.07312
2.0385	-49.74976
2.039	-37.66479
2.0395	-26.68762
2.04	-5.53894
2.0405	-2.71912
2.041	-7.15027
2.0415	-8.56018
2.042	-21.85364
2.0425	-25.37842
2.043	-15.20691
2.0435	-5.74036
2.044	-11.2793
2.0445	-11.78284
2.045	-17.6239
2.0455	-34.03931
2.046	-46.32568
2.0465	-68.17932
2.047	-73.81897
2.0475	-68.17932
2.048	-62.64038
2.0485	-51.36108
2.049	-66.36658
2.0495	-75.83313
2.05	-92.55066
2.0505	-82.88269
2.051	-60.12268
2.0515	-38.47046
2.052	-4.53186
2.0525	44.31152
2.053	95.87402
2.0535	132.83386
2.054	143.4082
2.0545	146.32874
2.055	117.52625
2.0555	75.73242
2.056	42.39807
2.0565	23.66638
2.057	6.54602
2.0575	-3.02124
2.058	-25.27771
2.0585	-44.51294
2.059	-47.33276
2.0595	-38.57117
2.06	-25.78125
2.0605	-15.50903
2.061	-4.53186
2.0615	4.43115
2.062	27.59399
2.0625	43.80798
2.063	50.45471
2.0635	49.64905
2.064	50.2533
2.0645	43.00232
2.065	28.09753
2.0655	10.27222
2.066	20.94727
2.0665	34.54285
2.067	50.85754
2.0675	47.23206
2.068	51.86462
2.0685	41.39099
2.069	38.67188
2.0695	35.14709
2.07	24.16992
2.0705	1.3092
2.071	-12.68921
2.0715	-24.67346
2.072	-19.94019
2.0725	-6.64673
2.073	6.14319
2.0735	7.04956
2.074	-0.40283
2.0745	-6.94885
2.075	-15.50903
2.0755	-17.82532
2.076	-16.41541
2.0765	-20.64514
2.077	-32.93152
2.0775	-37.16125
2.078	-45.52002
2.0785	-56.19507
2.079	-54.28162
2.0795	-56.49719
2.08	-64.45312
2.0805	-66.26587
2.081	-66.36658
2.0815	-73.41614
2.082	-73.71826
2.0825	-70.59631
2.083	-69.89136
2.0835	-69.48853
2.084	-67.17224
2.0845	-57.70569
2.085	-52.16675
2.0855	-45.92285
2.086	-30.31311
2.0865	-12.99133
2.087	13.49487
2.0875	12.28638
2.088	26.58691
2.0885	23.26355
2.089	11.38
2.0895	4.43115
2.09	13.99841
2.0905	7.75452
2.091	3.32336
2.0915	17.42249
2.092	30.2124
2.0925	28.70178
2.093	43.60657
2.0935	62.53967
2.094	61.23047
2.0945	58.00781
2.095	47.03064
2.0955	38.87329
2.096	35.04639
2.0965	20.1416
2.097	9.26514
2.0975	10.0708
2.098	17.82532
2.0985	21.95435
2.099	24.47205
2.0995	6.94885
2.1	-3.52478
2.1005	-10.37292
2.101	-12.08496
2.1015	-25.07629
2.102	-20.1416
2.1025	3.32336
2.103	3.52478
2.1035	-1.3092
2.104	-12.38708
2.1045	-4.12903
2.105	6.2439
2.1055	26.48621
2.106	42.39807
2.1065	46.72852
2.107	37.26196
2.1075	13.49487
2.108	5.33752
2.1085	20.44373
2.109	38.06763
2.1095	34.84497
2.11	21.45081
2.1105	19.23523
2.111	-7.85522
2.1115	-15.91187
2.112	-35.65063
2.1125	-73.11401
2.113	-87.01172
2.1135	-102.72217
2.114	-101.8158
2.1145	-94.06128
2.115	-85.90393
2.1155	-76.84021
2.116	-54.78516
2.1165	-42.19666
2.117	-22.76001
2.1175	-15.30762
2.118	-2.21558
2.1185	18.53027
2.119	13.89771
2.1195	2.31628
2.12	0.60425
2.1205	1.00708
2.121	-10.27222
2.1215	-32.22656
2.122	-47.23206
2.1225	-47.03064
2.123	-47.33276
2.1235	-42.09595
2.124	-39.47754
2.1245	-26.18408
2.125	-3.12195
2.1255	14.09912
2.126	36.95984
2.1265	54.38232
2.127	64.75525
2.1275	84.2926
2.128	98.49243
2.1285	100.10376
2.129	89.02588
2.1295	75.93384
2.13	82.17773
2.1305	102.11792
2.131	116.21704
2.1315	137.0636
2.132	166.57104
2.1325	162.03918
2.133	149.04785
2.1335	104.3335
2.134	61.93542
2.1345	32.52869
2.135	-3.32336
2.1355	-31.4209
2.136	-50.55542
2.1365	-44.0094
2.137	-53.47595
2.1375	-68.88428
2.138	-71.90552
2.1385	-65.86304
2.139	-63.24463
2.1395	-51.66321
2.14	-55.18799
2.1405	-67.17224
2.141	-76.84021
2.1415	-69.79065
2.142	-60.52551
2.1425	-46.92993
2.143	-38.67188
2.1435	-9.56726
2.144	13.49487
2.1445	46.92993
2.145	64.151
2.1455	71.30127
2.146	44.51294
2.1465	8.35876
2.147	-38.57117
2.1475	-74.12109
2.148	-88.32092
2.1485	-81.27136
2.149	-71.40198
2.1495	-72.71118
2.15	-68.07861
2.1505	-73.91968
2.151	-69.89136
2.1515	-63.44604
2.152	-55.59082
2.1525	-55.59082
2.153	-48.64197
2.1535	-36.95984
2.154	-33.9386
2.1545	-43.80798
2.155	-45.92285
2.1555	-34.94568
2.156	-29.30603
2.1565	-12.28638
2.157	6.84814
2.1575	7.65381
2.158	7.45239
2.1585	12.18567
2.159	13.19275
2.1595	27.89612
2.16	34.54285
2.1605	43.70728
2.161	54.98657
2.1615	64.05029
2.162	60.72693
2.1625	53.87878
2.163	42.39807
2.1635	26.78833
2.164	25.57983
2.1645	26.28479
2.165	24.77417
2.1655	18.63098
2.166	24.97559
2.1665	6.14319
2.167	-12.18567
2.1675	-39.07471
2.168	-33.13293
2.1685	-26.08337
2.169	-3.12195
2.1695	33.23364
2.17	55.79224
2.1705	56.09436
2.171	49.44763
2.1715	38.26904
2.172	31.52161
2.1725	18.53027
2.173	10.37292
2.1735	-22.25647
2.174	-58.10852
2.1745	-75.22888
2.175	-94.2627
2.1755	-109.06677
2.176	-104.73633
2.1765	-91.34216
2.177	-62.53967
2.1775	-32.22656
2.178	-23.8678
2.1785	-21.3501
2.179	-32.52869
2.1795	-32.62939
2.18	-22.15576
2.1805	-20.94727
2.181	-11.2793
2.1815	-18.12744
2.182	-7.15027
2.1825	-1.91345
2.183	3.7262
2.1835	11.38
2.184	28.60107
2.1845	32.02515
2.185	40.98816
2.1855	54.58374
2.186	52.97241
2.1865	51.15967
2.187	60.62622
2.1875	51.26038
2.188	68.07861
2.1885	96.27686
2.189	113.49792
2.1895	117.12341
2.19	110.17456
2.1905	94.96765
2.191	68.98499
2.1915	51.96533
2.192	46.02356
2.1925	34.94568
2.193	38.16833
2.1935	44.21082
2.194	39.77966
2.1945	29.80957
2.195	10.67505
2.1955	-9.26514
2.196	-37.96692
2.1965	-53.07312
2.197	-66.46729
2.1975	-73.31543
2.198	-66.06445
2.1985	-52.06604
2.199	-27.89612
2.1995	-11.88354
2.2	0.60425
2.2005	-4.22974
2.201	-27.99683
2.2015	-49.54834
2.202	-74.32251
2.2025	-88.11951
2.203	-96.17615
2.2035	-94.3634
2.204	-78.14941
2.2045	-58.81348
2.205	-27.99683
2.2055	-1.91345
2.206	25.98267
2.2065	34.64355
2.207	34.54285
2.2075	30.11169
2.208	27.79541
2.2085	16.61682
2.209	8.56018
2.2095	-18.32886
2.21	-30.61523
2.2105	-40.58533
2.211	-39.07471
2.2115	-33.73718
2.212	-20.54443
2.2125	-29.40674
2.213	-29.91028
2.2135	-35.95276
2.214	-43.00232
2.2145	-41.4917
2.215	-50.354
2.2155	-49.64905
2.216	-46.5271
2.2165	-33.83789
2.217	-30.91736
2.2175	-33.9386
2.218	-42.7002
2.2185	-34.54285
2.219	-22.45789
2.2195	-5.0354
2.22	1.3092
2.2205	1.40991
2.221	3.92761
2.2215	11.68213
2.222	23.36426
2.2225	39.07471
2.223	40.58533
2.2235	38.47046
2.224	49.54834
2.2245	56.49719
2.225	54.88586
2.2255	50.95825
2.226	40.48462
2.2265	30.31311
2.227	31.01807
2.2275	45.52002
2.228	55.2887
2.2285	57.00073
2.229	46.62781
2.2295	26.48621
2.23	6.74744
2.2305	0.40283
2.231	-25.37842
2.2315	-47.7356
2.232	-60.92834
2.2325	-68.48145
2.233	-69.48853
2.2335	-56.90002
2.234	-56.39648
2.2345	-76.84021
2.235	-82.07703
2.2355	-77.34375
2.236	-70.3949
2.2365	-71.90552
2.237	-56.49719
2.2375	-49.44763
2.238	-43.80798
2.2385	-31.72302
2.239	-5.63965
2.2395	3.62549
2.24	22.76001
2.2405	40.78674
2.241	69.79065
2.2415	69.48853
2.242	66.46729
2.2425	65.46021
2.243	78.35083
2.2435	70.59631
2.244	63.34534
2.2445	76.53809
2.245	94.16199
2.2455	123.46802
2.246	144.11316
2.2465	157.40662
2.247	122.56165
2.2475	76.23596
2.248	37.7655
2.2485	31.52161
2.249	40.48462
2.2495	59.21631
2.25	67.97791
2.2505	79.55933
2.251	74.2218
2.2515	77.948
2.252	80.36499
2.2525	71.30127
2.253	46.12427
2.2535	6.84814
2.254	-25.47913
2.2545	-51.86462
2.255	-81.67419
2.2555	-116.82129
2.256	-130.51758
2.2565	-132.63245
2.257	-131.12183
2.2575	-131.32324
2.258	-143.81104
2.2585	-146.73157
2.259	-149.55139
2.2595	-127.99988
2.26	-94.3634
2.2605	-78.45154
2.261	-74.2218
2.2615	-79.15649
2.262	-73.61755
2.2625	-68.78357
2.263	-60.22339
2.2635	-63.24463
2.264	-64.55383
2.2645	-44.71436
2.265	-31.92444
2.2655	-27.99683
2.266	2.92053
2.2665	19.83948
2.267	31.92444
2.2675	30.81665
2.268	25.177
2.2685	26.68762
2.269	17.32178
2.2695	-3.12195
2.27	-17.52319
2.2705	-26.88904
2.271	-28.70178
2.2715	-13.797
2.272	-6.54602
2.2725	-6.84814
2.273	-2.81982
2.2735	7.04956
2.274	13.49487
2.2745	22.05505
2.275	41.89453
2.2755	75.83313
2.276	93.15491
2.2765	113.90076
2.277	112.79297
2.2775	105.84412
2.278	99.60022
2.2785	76.23596
2.279	53.97949
2.2795	40.98816
2.28	29.40674
2.2805	3.02124
2.281	-20.04089
2.2815	-44.91577
2.282	-62.23755
2.2825	-70.99915
2.283	-68.28003
2.2835	-79.15649
2.284	-82.37915
2.2845	-67.8772
2.285	-71.60339
2.2855	-67.97791
2.286	-73.91968
2.2865	-74.32251
2.287	-82.47986
2.2875	-102.52075
2.288	-99.49951
2.2885	-88.32092
2.289	-66.26587
2.2895	-46.02356
2.29	-16.01257
2.2905	11.58142
2.291	29.40674
2.2915	47.23206
2.292	89.63013
2.2925	125.58289
2.293	131.42395
2.2935	117.32483
2.294	106.54907
2.2945	112.39014
2.295	130.51758
2.2955	152.27051
2.296	161.63635
2.2965	165.26184
2.297	180.67017
2.2975	183.28857
2.298	145.32166
2.2985	107.25403
2.299	82.58057
2.2995	59.61914
2.3	28.50037
2.3005	-8.05664
2.301	-40.98816
2.3015	-65.3595
2.302	-72.40906
2.3025	-79.96216
2.303	-87.41455
2.3035	-89.22729
2.304	-92.24854
2.3045	-127.79846
2.305	-176.23901
2.3055	-224.78027
2.306	-236.05957
2.3065	-216.52222
2.307	-189.9353
2.3075	-164.65759
2.308	-139.5813
2.3085	-114.20288
2.309	-98.99597
2.3095	-81.27136
2.31	-46.22498
2.3105	-0.10071
2.311	14.50195
2.3115	25.07629
2.312	30.41382
2.3125	32.7301
2.313	34.64355
2.3135	34.44214
2.314	42.09595
2.3145	57.30286
2.315	73.01331
2.3155	62.13684
2.316	49.85046
2.3165	51.76392
2.317	62.43896
2.3175	57.20215
2.318	57.8064
2.3185	51.86462
2.319	40.58533
2.3195	47.7356
2.32	59.31702
2.3205	57.9071
2.321	57.70569
2.3215	42.19666
2.322	16.21399
2.3225	8.05664
2.323	12.28638
2.3235	15.81116
2.324	13.19275
2.3245	14.40125
2.325	7.65381
2.3255	5.63965
2.326	6.94885
2.3265	16.61682
2.327	23.96851
2.3275	50.45471
2.328	64.55383
2.3285	76.84021
2.329	72.00623
2.3295	68.58215
2.33	57.8064
2.3305	38.57117
2.331	25.78125
2.3315	-4.43115
2.332	-25.68054
2.3325	-48.03772
2.333	-61.02905
2.3335	-72.81189
2.334	-70.49561
2.3345	-69.89136
2.335	-93.45703
2.3355	-99.3988
2.336	-83.99048
2.3365	-79.15649
2.337	-73.01331
2.3375	-69.58923
2.338	-63.94958
2.3385	-37.86621
2.339	-13.39417
2.3395	7.95593
2.34	9.26514
2.3405	13.09204
2.341	34.14001
2.3415	45.62073
2.342	50.45471
2.3425	58.91418
2.343	51.46179
2.3435	49.0448
2.344	56.39648
2.3445	54.28162
2.345	46.42639
2.3455	40.08179
2.346	31.82373
2.3465	36.85913
2.347	44.21082
2.3475	57.9071
2.348	67.47437
2.3485	69.89136
2.349	80.36499
2.3495	101.41296
2.35	88.22021
2.3505	38.67188
2.351	-6.04248
2.3515	-38.87329
2.352	-65.46021
2.3525	-95.47119
2.353	-111.08093
2.3535	-111.68518
2.354	-101.71509
2.3545	-94.96765
2.355	-92.75208
2.3555	-100.40588
2.356	-93.65845
2.3565	-102.21863
2.357	-99.80164
2.3575	-101.31226
2.358	-84.59473
2.3585	-68.98499
2.359	-58.30994
2.3595	-45.41931
2.36	-32.62939
2.3605	-11.78284
2.361	-3.42407
2.3615	1.71204
2.362	10.67505
2.3625	6.74744
2.363	12.89062
2.3635	16.41541
2.364	21.85364
2.3645	30.11169
2.365	31.4209
2.3655	35.44922
2.366	31.62231
2.3665	10.0708
2.367	-9.46655
2.3675	-31.82373
2.368	-38.16833
2.3685	-26.3855
2.369	-11.2793
2.3695	3.92761
2.37	16.21399
2.3705	26.3855
2.371	29.00391
2.3715	36.35559
2.372	45.52002
2.3725	41.18958
2.373	33.53577
2.3735	22.35718
2.374	18.22815
2.3745	39.27612
2.375	54.98657
2.3755	54.78516
2.376	41.29028
2.3765	47.43347
2.377	49.54834
2.3775	51.86462
2.378	43.10303
2.3785	37.46338
2.379	14.50195
2.3795	-29.20532
2.38	-78.04871
2.3805	-101.51367
2.381	-117.82837
2.3815	-124.87793
2.382	-102.92358
2.3825	-82.17773
2.383	-99.49951
2.3835	-107.85828
2.384	-109.26819
2.3845	-104.23279
2.385	-92.95349
2.3855	-94.2627
2.386	-105.44128
2.3865	-114.80713
2.387	-103.125
2.3875	-86.10535
2.388	-63.64746
2.3885	-32.7301
2.389	19.94019
2.3895	72.30835
2.39	107.95898
2.3905	117.72766
2.391	116.21704
2.3915	117.52625
2.392	134.34448
2.3925	144.81812
2.393	123.87085
2.3935	77.64587
2.394	47.13135
2.3945	42.59949
2.395	48.94409
2.3955	65.86304
2.396	97.28394
2.3965	118.73474
2.397	124.37439
2.3975	130.11475
2.398	133.84094
2.3985	142.30042
2.399	158.01086
2.3995	151.96838
2.4	137.36572
2.4005	127.09351
2.401	110.47668
2.4015	98.19031
2.402	80.26428
2.4025	61.83472
2.403	30.41382
2.4035	-2.61841
2.404	-37.06055
2.4045	-69.08569
2.405	-106.54907
2.4055	-127.99988
2.406	-139.07776
2.4065	-145.8252
2.407	-145.9259
2.4075	-148.04077
2.408	-152.37122
2.4085	-164.05334
2.409	-166.67175
2.4095	-143.81104
2.41	-124.67651
2.4105	-108.96606
2.411	-85.80322
2.4115	-69.28711
2.412	-58.00781
2.4125	-53.87878
2.413	-47.8363
2.4135	-40.98816
2.414	-46.42639
2.4145	-53.37524
2.415	-46.12427
2.4155	-39.98108
2.416	-31.11877
2.4165	-24.87488
2.417	-17.32178
2.4175	-14.60266
2.418	-1.10779
2.4185	7.65381
2.419	14.30054
2.4195	18.22815
2.42	24.77417
2.4205	41.99524
2.421	62.43896
2.4215	66.46729
2.422	47.8363
2.4225	30.51453
2.423	18.02673
2.4235	19.33594
2.424	41.08887
2.4245	40.88745
2.425	41.29028
2.4255	41.39099
2.426	36.55701
2.4265	32.83081
2.427	25.68054
2.4275	35.75134
2.428	31.82373
2.4285	26.78833
2.429	4.73328
2.4295	-7.95593
2.43	-3.42407
2.4305	-15.71045
2.431	-34.14001
2.4315	-37.26196
2.432	-33.13293
2.4325	3.8269
2.433	34.54285
2.4335	46.42639
2.434	33.33435
2.4345	19.94019
2.435	2.92053
2.4355	-8.96301
2.436	-28.09753
2.4365	-43.00232
2.437	-52.46887
2.4375	-68.88428
2.438	-83.78906
2.4385	-94.3634
2.439	-80.96924
2.4395	-74.32251
2.44	-61.02905
2.4405	-26.18408
2.441	50.05188
2.4415	90.73792
2.442	103.82996
2.4425	59.21631
2.443	-38.06763
2.4435	-93.75916
2.444	-121.9574
2.4445	-122.76306
2.445	-123.66943
2.4455	-99.60022
2.446	-66.46729
2.4465	-38.47046
2.447	5.53894
2.4475	42.7002
2.448	82.88269
2.4485	99.19739
2.449	102.31934
2.4495	102.01721
2.45	97.78748
2.4505	103.22571
2.451	111.8866
2.4515	115.00854
2.452	109.97314
2.4525	113.39722
2.453	105.03845
2.4535	107.75757
2.454	105.6427
2.4545	119.33899
2.455	141.69617
2.4555	161.93848
2.456	154.28467
2.4565	125.28076
2.457	106.34766
2.4575	89.93225
2.458	62.33826
2.4585	20.54443
2.459	-27.59399
2.4595	-71.20056
2.46	-95.37048
2.4605	-115.91492
2.461	-123.46802
2.4615	-131.32324
2.462	-133.74023
2.4625	-143.60962
2.463	-142.099
2.4635	-135.55298
2.464	-135.35156
2.4645	-129.00696
2.465	-127.79846
2.4655	-127.59705
2.466	-119.74182
2.4665	-99.90234
2.467	-71.20056
2.4675	-41.29028
2.468	-13.49487
2.4685	-2.92053
2.469	5.94177
2.4695	12.78992
2.47	23.66638
2.4705	30.2124
2.471	41.08887
2.4715	53.67737
2.472	56.29578
2.4725	56.69861
2.473	54.0802
2.4735	62.8418
2.474	74.62463
2.4745	68.68286
2.475	55.2887
2.4755	26.88904
2.476	17.42249
2.4765	11.68213
2.477	8.8623
2.4775	14.90479
2.478	10.57434
2.4785	-0.80566
2.479	-10.0708
2.4795	-1.81274
2.48	-1.51062
2.4805	-4.02832
2.481	-4.93469
2.4815	-0.50354
2.482	-3.02124
2.4825	-6.2439
2.483	-18.63098
2.4835	-32.22656
2.484	-23.16284
2.4845	-19.94019
2.485	-37.7655
2.4855	-38.16833
2.486	-15.30762
2.4865	-1.71204
2.487	2.71912
2.4875	-8.66089
2.488	-22.6593
2.4885	-43.10303
2.489	-67.17224
2.4895	-88.92517
2.49	-104.93774
2.4905	-128.10059
2.491	-175.23193
2.4915	-203.83301
2.492	-210.68115
2.4925	-159.01794
2.493	-93.96057
2.4935	-33.83789
2.494	9.66797
2.4945	29.00391
2.495	64.05029
2.4955	111.08093
2.496	123.36731
2.4965	110.07385
2.497	75.53101
2.4975	52.771
2.498	44.61365
2.4985	52.67029
2.499	67.8772
2.4995	80.86853
2.5	81.17065
2.5005	81.37207
2.501	76.7395
2.5015	73.61755
2.502	115.31067
2.5025	196.88416
2.503	258.71887
2.5035	266.47339
2.504	241.59851
2.5045	197.58911
2.505	154.58679
2.5055	97.48535
2.506	29.40674
2.5065	-26.48621
2.507	-74.62463
2.5075	-108.46252
2.508	-132.53174
2.5085	-149.85352
2.509	-156.09741
2.5095	-141.79688
2.51	-120.34607
2.5105	-106.44836
2.511	-96.07544
2.5115	-113.1958
2.512	-132.22961
2.5125	-129.30908
2.513	-117.02271
2.5135	-89.83154
2.514	-85.80322
2.5145	-93.55774
2.515	-96.67969
2.5155	-97.28394
2.516	-81.47278
2.5165	-49.64905
2.517	-4.43115
2.5175	29.40674
2.518	48.74268
2.5185	59.82056
2.519	59.92126
2.5195	49.95117
2.52	39.67896
2.5205	29.00391
2.521	8.05664
2.5215	-9.56726
2.522	-8.8623
2.5225	-6.54602
2.523	8.66089
2.5235	15.00549
2.524	10.57434
2.5245	7.65381
2.525	-10.47363
2.5255	-19.03381
2.526	-29.40674
2.5265	-38.26904
2.527	-32.22656
2.5275	-22.55859
2.528	-0.30212
2.5285	27.09045
2.529	52.16675
2.5295	65.96375
2.53	63.54675
2.5305	56.49719
2.531	47.8363
2.5315	32.02515
2.532	18.12744
2.5325	-8.35876
2.533	-40.48462
2.5335	-73.41614
2.534	-108.76465
2.5345	-114.10217
2.535	-103.42712
2.5355	-61.83472
2.536	-33.13293
2.5365	-6.2439
2.537	13.39417
2.5375	13.39417
2.538	22.45789
2.5385	29.30603
2.539	26.28479
2.5395	21.04797
2.54	15.71045
2.5405	17.42249
2.541	31.62231
2.5415	32.52869
2.542	34.24072
2.5425	30.2124
2.543	22.6593
2.5435	24.77417
2.544	32.22656
2.5445	27.6947
2.545	26.48621
2.5455	24.97559
2.546	14.80408
2.5465	3.22266
2.547	0.60425
2.5475	-9.16443
2.548	5.84106
2.5485	13.69629
2.549	13.89771
2.5495	7.15027
2.55	-2.31628
2.5505	-3.8269
2.551	5.94177
2.5515	35.85205
2.552	58.71277
2.5525	65.86304
2.553	49.34692
2.5535	24.06921
2.554	11.38
2.5545	35.04639
2.555	83.18481
2.5555	113.69934
2.556	140.48767
2.5565	146.93298
2.557	135.95581
2.5575	124.87793
2.558	118.53333
2.5585	96.37756
2.559	70.99915
2.5595	32.83081
2.56	7.35168
2.5605	7.95593
2.561	15.60974
2.5615	25.98267
2.562	41.18958
2.5625	38.47046
2.563	47.93701
2.5635	49.24622
2.564	30.41382
2.5645	-1.71204
2.565	-40.88745
2.5655	-93.96057
2.566	-129.91333
2.5665	-157.50732
2.567	-168.18237
2.5675	-166.47034
2.568	-150.65918
2.5685	-126.48926
2.569	-104.03137
2.5695	-76.43738
2.57	-51.76392
2.5705	-45.11719
2.571	-33.73718
2.5715	-23.96851
2.572	-23.16284
2.5725	-19.53735
2.573	-19.94019
2.5735	-8.7616
2.574	0.50354
2.5745	10.47363
2.575	8.7616
2.5755	4.93469
2.576	8.96301
2.5765	1.51062
2.577	-8.56018
2.5775	-20.44373
2.578	-19.33594
2.5785	-6.94885
2.579	-3.52478
2.5795	-15.50903
2.58	-21.65222
2.5805	-19.23523
2.581	-25.07629
2.5815	-25.57983
2.582	-33.33435
2.5825	-27.19116
2.583	-27.89612
2.5835	-29.40674
2.584	-40.1825
2.5845	-47.93701
2.585	-48.74268
2.5855	-53.07312
2.586	-43.30444
2.5865	-16.01257
2.587	19.53735
2.5875	47.03064
2.588	58.91418
2.5885	63.14392
2.589	55.89294
2.5895	44.31152
2.59	21.85364
2.5905	-17.72461
2.591	-51.66321
2.5915	-77.44446
2.592	-90.83862
2.5925	-78.85437
2.593	-60.92834
2.5935	-45.62073
2.594	-25.78125
2.5945	-13.49487
2.595	-1.91345
2.5955	30.51453
2.596	64.25171
2.5965	79.35791
2.597	75.4303
2.5975	54.38232
2.598	32.52869
2.5985	11.88354
2.599	-7.5531
2.5995	-18.93311
2.6	-23.96851
2.6005	-32.83081
2.601	-29.60815
2.6015	-22.96143
2.602	-7.35168
2.6025	-0.30212
2.603	-7.5531
2.6035	-30.01099
2.604	-46.32568
2.6045	-42.59949
2.605	5.53894
2.6055	57.40356
2.606	86.8103
2.6065	74.12109
2.607	47.03064
2.6075	0.60425
2.608	-35.14709
2.6085	-52.36816
2.609	-56.09436
2.6095	-58.51135
2.61	-53.87878
2.6105	-37.86621
2.611	-11.38
2.6115	24.97559
2.612	54.78516
2.6125	73.81897
2.613	86.20605
2.6135	99.80164
2.614	97.38464
2.6145	106.75049
2.615	124.07227
2.6155	126.58997
2.616	109.67102
2.6165	77.34375
2.617	32.93152
2.6175	-4.83398
2.618	-22.05505
2.6185	-35.85205
2.619	-48.33984
2.6195	-51.5625
2.62	-36.65771
2.6205	-26.28479
2.621	1.71204
2.6215	25.177
2.622	31.21948
2.6225	31.01807
2.623	42.09595
2.6235	71.30127
2.624	99.3988
2.6245	95.87402
2.625	78.65295
2.6255	58.20923
2.626	32.62939
2.6265	12.78992
2.627	-11.17859
2.6275	-38.36975
2.628	-59.41772
2.6285	-86.10535
2.629	-114.00146
2.6295	-132.12891
2.63	-133.3374
2.6305	-131.52466
2.631	-138.87634
2.6315	-133.3374
2.632	-128.80554
2.6325	-129.81262
2.633	-138.07068
2.6335	-124.97864
2.634	-92.14783
2.6345	-59.92126
2.635	-34.03931
2.6355	-6.14319
2.636	14.80408
2.6365	25.78125
2.637	32.42798
2.6375	43.60657
2.638	59.92126
2.6385	72.61047
2.639	55.79224
2.6395	36.05347
2.64	14.90479
2.6405	5.53894
2.641	-1.3092
2.6415	5.0354
2.642	12.68921
2.6425	28.19824
2.643	35.54993
2.6435	30.51453
2.644	27.79541
2.6445	25.98267
2.645	17.32178
2.6455	0.60425
2.646	-8.25806
2.6465	-6.14319
2.647	-11.07788
2.6475	-11.68213
2.648	-0.30212
2.6485	-3.62549
2.649	-11.48071
2.6495	-1.40991
2.65	9.46655
2.6505	53.97949
2.651	81.37207
2.6515	85.70251
2.652	68.38074
2.6525	51.86462
2.653	43.50586
2.6535	27.09045
2.654	12.38708
2.6545	0.80566
2.655	-22.76001
2.6555	-39.17542
2.656	-54.88586
2.6565	-52.16675
2.657	-51.5625
2.6575	-37.66479
2.658	-29.60815
2.6585	-28.70178
2.659	-20.24231
2.6595	6.44531
2.66	66.26587
2.6605	121.05103
2.661	149.45068
2.6615	112.08801
2.662	84.59473
2.6625	39.98108
2.663	-13.39417
2.6635	-55.59082
2.664	-74.32251
2.6645	-95.26978
2.665	-110.47668
2.6655	-126.48926
2.666	-142.30042
2.6665	-136.86218
2.667	-106.9519
2.6675	-68.48145
2.668	-14.19983
2.6685	31.11877
2.669	57.30286
2.6695	74.82605
2.67	89.22729
2.6705	95.37048
2.671	80.96924
2.6715	50.45471
2.672	27.59399
2.6725	8.25806
2.673	-10.97717
2.6735	-19.13452
2.674	13.89771
2.6745	53.87878
2.675	78.55225
2.6755	83.48694
2.676	65.86304
2.6765	46.92993
2.677	30.51453
2.6775	10.97717
2.678	-7.5531
2.6785	-23.76709
2.679	-45.92285
2.6795	-59.41772
2.68	-77.84729
2.6805	-93.45703
2.681	-96.07544
2.6815	-94.06128
2.682	-93.85986
2.6825	-88.11951
2.683	-81.06995
2.6835	-90.23438
2.684	-87.31384
2.6845	-71.80481
2.685	-63.14392
2.6855	-48.54126
2.686	-45.11719
2.6865	-36.85913
2.687	-12.78992
2.6875	11.88354
2.688	32.42798
2.6885	38.26904
2.689	26.48621
2.6895	17.12036
2.69	7.35168
2.6905	1.91345
2.691	13.89771
2.6915	26.78833
2.692	24.27063
2.6925	5.23682
2.693	-11.98425
2.6935	-15.1062
2.694	-19.83948
2.6945	-8.25806
2.695	10.67505
2.6955	26.08337
2.696	37.16125
2.6965	56.39648
2.697	68.58215
2.6975	58.00781
2.698	48.94409
2.6985	25.177
2.699	11.2793
2.6995	-3.22266
2.7	-7.25098
2.7005	-5.0354
2.701	0.40283
2.7015	6.64673
2.702	17.82532
2.7025	19.43665
2.703	17.92603
2.7035	6.94885
2.704	4.02832
2.7045	0.10071
2.705	-5.13611
2.7055	-14.40125
2.706	-16.51611
2.7065	-16.71753
2.707	-10.37292
2.7075	-18.12744
2.708	-15.50903
2.7085	-11.2793
2.709	-12.68921
2.7095	-0.40283
2.71	0.90637
2.7105	12.28638
2.711	28.29895
2.7115	29.91028
2.712	16.41541
2.7125	11.78284
2.713	10.97717
2.7135	9.97009
2.714	22.25647
2.7145	39.27612
2.715	48.44055
2.7155	53.37524
2.716	47.23206
2.7165	47.23206
2.717	55.79224
2.7175	49.54834
2.718	40.58533
2.7185	28.39966
2.719	25.37842
2.7195	10.37292
2.72	-10.67505
2.7205	-21.85364
2.721	-26.68762
2.7215	11.48071
2.722	44.51294
2.7225	50.85754
2.723	35.54993
2.7235	29.60815
2.724	22.86072
2.7245	-5.13611
2.725	-36.25488
2.7255	-66.6687
2.726	-77.64587
2.7265	-78.04871
2.727	-55.18799
2.7275	4.12903
2.728	53.77808
2.7285	79.66003
2.729	79.05579
2.7295	66.87012
2.73	61.23047
2.7305	49.85046
2.731	45.41931
2.7315	43.30444
2.732	32.93152
2.7325	10.67505
2.733	-17.22107
2.7335	-42.90161
2.734	-53.57666
2.7345	-50.55542
2.735	-58.30994
2.7355	-50.55542
2.736	-54.98657
2.7365	-55.18799
2.737	-65.3595
2.7375	-61.33118
2.738	-55.18799
2.7385	-51.36108
2.739	-49.64905
2.7395	-54.88586
2.74	-73.61755
2.7405	-86.20605
2.741	-86.8103
2.7415	-82.68127
2.742	-91.14075
2.7425	-90.23438
2.743	-78.65295
2.7435	-45.72144
2.744	-42.49878
2.7445	-24.77417
2.745	-6.04248
2.7455	2.21558
2.746	-2.81982
2.7465	-7.75452
2.747	1.2085
2.7475	9.56726
2.748	8.66089
2.7485	9.97009
2.749	-0.70496
2.7495	-4.93469
2.75	9.56726
2.7505	36.55701
2.751	46.5271
2.7515	47.43347
2.752	58.10852
2.7525	59.61914
2.753	66.76941
2.7535	59.82056
2.754	62.43896
2.7545	53.07312
2.755	64.05029
2.7555	53.17383
2.756	38.26904
2.7565	25.78125
2.757	-2.31628
2.7575	-24.97559
2.758	-54.38232
2.7585	-67.57507
2.759	-68.28003
2.7595	-68.98499
2.76	-68.78357
2.7605	-67.07153
2.761	-49.85046
2.7615	-36.25488
2.762	-26.78833
2.7625	-14.90479
2.763	-4.22974
2.7635	9.56726
2.764	23.46497
2.7645	37.56409
2.765	26.18408
2.7655	25.27771
2.766	33.83789
2.7665	29.70886
2.767	49.95117
2.7675	68.88428
2.768	85.5011
2.7685	82.78198
2.769	77.54517
2.7695	66.46729
2.77	52.97241
2.7705	41.79382
2.771	33.9386
2.7715	33.43506
2.772	11.07788
2.7725	5.13611
2.773	-7.45239
2.7735	-8.8623
2.774	16.3147
2.7745	23.46497
2.775	26.18408
2.7755	23.16284
2.776	20.44373
2.7765	5.94177
2.777	-6.54602
2.7775	-17.72461
2.778	-47.03064
2.7785	-55.69153
2.779	-46.22498
2.7795	-38.67188
2.78	-49.0448
2.7805	-55.49011
2.781	-42.09595
2.7815	5.13611
2.782	37.16125
2.7825	46.62781
2.783	29.30603
2.7835	6.54602
2.784	-5.23682
2.7845	-13.59558
2.785	-11.48071
2.7855	-3.22266
2.786	31.01807
2.7865	55.99365
2.787	54.88586
2.7875	27.6947
2.788	0.20142
2.7885	-5.94177
2.789	-2.5177
2.7895	3.22266
2.79	-1.2085
2.7905	-1.51062
2.791	-0.40283
2.7915	19.63806
2.792	59.31702
2.7925	84.19189
2.793	70.3949
2.7935	59.31702
2.794	43.00232
2.7945	33.73718
2.795	29.30603
2.7955	16.71753
2.796	12.08496
2.7965	16.41541
2.797	9.76868
2.7975	-13.89771
2.798	-20.84656
2.7985	-5.63965
2.799	-7.35168
2.7995	-25.47913
2.8	-43.60657
2.8005	-66.16516
2.801	-87.71667
2.8015	-108.1604
2.802	-128.20129
2.8025	-117.32483
2.803	-99.80164
2.8035	-88.62305
2.804	-78.55225
2.8045	-61.73401
2.805	-30.51453
2.8055	6.94885
2.806	37.46338
2.8065	74.2218
2.807	105.23987
2.8075	114.30359
2.808	103.32642
2.8085	89.22729
2.809	75.4303
2.8095	47.93701
2.81	26.28479
2.8105	7.5531
2.811	-8.35876
2.8115	-29.10461
2.812	-37.7655
2.8125	-33.33435
2.813	-20.54443
2.8135	-29.20532
2.814	-47.53418
2.8145	-62.74109
2.815	-72.30835
2.8155	-79.2572
2.816	-116.61987
2.8165	-147.43652
2.817	-165.9668
2.8175	-174.22485
2.818	-167.67883
2.8185	-149.45068
2.819	-125.7843
2.8195	-95.26978
2.82	-66.87012
2.8205	-29.70886
2.821	-4.43115
2.8215	15.50903
2.822	35.75134
2.8225	47.13135
2.823	45.3186
2.8235	48.03772
2.824	57.60498
2.8245	52.36816
2.825	46.02356
2.8255	36.95984
2.826	33.03223
2.8265	30.01099
2.827	28.60107
2.8275	27.09045
2.828	38.06763
2.8285	36.4563
2.829	33.83789
2.8295	30.71594
2.83	29.70886
2.8305	40.1825
2.831	38.67188
2.8315	29.40674
2.832	32.32727
2.8325	63.94958
2.833	103.125
2.8335	108.96606
2.834	103.93066
2.8345	106.54907
2.835	107.55615
2.8355	89.52942
2.836	42.7002
2.8365	17.42249
2.837	-6.64673
2.8375	-24.06921
2.838	-27.19116
2.8385	-29.70886
2.839	-36.35559
2.8395	-40.2832
2.84	-26.08337
2.8405	-17.72461
2.841	-18.63098
2.8415	-24.16992
2.842	-10.27222
2.8425	40.1825
2.843	78.35083
2.8435	87.91809
2.844	84.2926
2.8445	93.96057
2.845	124.27368
2.8455	128.40271
2.846	96.47827
2.8465	58.81348
2.847	30.41382
2.8475	-4.63257
2.848	-48.23914
2.8485	-80.26428
2.849	-97.08252
2.8495	-92.44995
2.85	-72.71118
2.8505	-59.71985
2.851	-47.93701
2.8515	-22.76001
2.852	-0.90637
2.8525	-3.92761
2.853	-3.12195
2.8535	-18.93311
2.854	-18.93311
2.8545	-11.17859
2.855	3.12195
2.8555	-2.31628
2.856	-5.23682
2.8565	-7.15027
2.857	-15.40833
2.8575	-18.32886
2.858	-12.48779
2.8585	-7.85522
2.859	-16.41541
2.8595	-27.89612
2.86	-46.5271
2.8605	-50.55542
2.861	-50.354
2.8615	-56.90002
2.862	-47.93701
2.8625	-38.06763
2.863	-24.87488
2.8635	-35.14709
2.864	-51.26038
2.8645	-57.9071
2.865	-38.67188
2.8655	-36.85913
2.866	-57.8064
2.8665	-74.2218
2.867	-95.16907
2.8675	-102.52075
2.868	-86.91101
2.8685	-65.15808
2.869	-45.41931
2.8695	-37.36267
2.87	-25.27771
2.8705	-5.84106
2.871	-9.36584
2.8715	-24.47205
2.872	-23.96851
2.8725	-15.50903
2.873	0.30212
2.8735	14.80408
2.874	29.50745
2.8745	43.40515
2.875	43.30444
2.8755	59.21631
2.876	67.67578
2.8765	57.8064
2.877	37.36267
2.8775	26.3855
2.878	33.9386
2.8785	24.77417
2.879	15.40833
2.8795	6.04248
2.88	-1.51062
2.8805	-14.60266
2.881	-21.04797
2.8815	-26.28479
2.882	-35.04639
2.8825	-39.47754
2.883	-15.30762
2.8835	9.36584
2.884	21.04797
2.8845	25.27771
2.885	28.39966
2.8855	34.44214
2.886	39.27612
2.8865	40.98816
2.887	25.47913
2.8875	10.17151
2.888	-2.71912
2.8885	-7.95593
2.889	-6.3446
2.8895	-1.71204
2.89	-2.71912
2.8905	0.30212
2.891	-7.15027
2.8915	2.01416
2.892	19.94019
2.8925	21.65222
2.893	23.06213
2.8935	49.95117
2.894	70.89844
2.8945	84.69543
2.895	99.90234
2.8955	116.11633
2.896	122.76306
2.8965	108.96606
2.897	100.10376
2.8975	75.12817
2.898	47.33276
2.8985	18.12744
2.899	-16.91895
2.8995	-36.35559
2.9	-41.39099
2.9005	-57.50427
2.901	-73.01331
2.9015	-90.23438
2.902	-98.39172
2.9025	-102.72217
2.903	-96.67969
2.9035	-89.73083
2.904	-94.96765
2.9045	-100.30518
2.905	-103.72925
2.9055	-94.46411
2.906	-74.52393
2.9065	-37.66479
2.907	5.74036
2.9075	39.07471
2.908	44.21082
2.9085	52.16675
2.909	45.62073
2.9095	30.2124
2.91	16.3147
2.9105	9.16443
2.911	23.16284
2.9115	38.06763
2.912	50.55542
2.9125	53.97949
2.913	52.771
2.9135	49.34692
2.914	50.85754
2.9145	25.57983
2.915	13.19275
2.9155	25.68054
2.916	49.0448
2.9165	46.92993
2.917	62.33826
2.9175	101.51367
2.918	95.97473
2.9185	71.09985
2.919	33.13293
2.9195	-16.11328
2.92	-55.08728
2.9205	-79.96216
2.921	-99.90234
2.9215	-106.75049
2.922	-104.93774
2.9225	-104.23279
2.923	-94.66553
2.9235	-71.7041
2.924	-35.04639
2.9245	-11.88354
2.925	7.85522
2.9255	17.92603
2.926	4.63257
2.9265	-6.64673
2.927	-0.80566
2.9275	-23.26355
2.928	-61.93542
2.9285	-82.88269
2.929	-82.78198
2.9295	-67.47437
2.93	-58.10852
2.9305	-44.11011
2.931	-33.33435
2.9315	-37.86621
2.932	-55.79224
2.9325	-66.6687
2.933	-72.30835
2.9335	-95.37048
2.934	-110.47668
2.9345	-101.01013
2.935	-100.90942
2.9355	-88.82446
2.936	-76.23596
2.9365	-63.74817
2.937	-30.81665
2.9375	-10.87646
2.938	3.32336
2.9385	18.22815
2.939	36.75842
2.9395	38.36975
2.94	26.68762
2.9405	10.0708
2.941	5.0354
2.9415	21.55151
2.942	37.96692
2.9425	51.36108
2.943	66.97083
2.9435	70.49561
2.944	92.44995
2.9445	129.00696
2.945	163.65051
2.9455	158.4137
2.946	148.84644
2.9465	155.49316
2.947	175.23193
2.9475	182.3822
2.948	181.073
2.9485	139.17847
2.949	84.19189
2.9495	61.02905
2.95	73.51685
2.9505	58.81348
2.951	44.81506
2.9515	12.48779
2.952	-19.73877
2.9525	-30.71594
2.953	-43.90869
2.9535	-31.52161
2.954	-8.45947
2.9545	-7.85522
2.955	-3.12195
2.9555	-9.76868
2.956	-15.81116
2.9565	-27.29187
2.957	-19.83948
2.9575	-15.20691
2.958	-17.32178
2.9585	-19.33594
2.959	-25.27771
2.9595	-37.96692
2.96	-51.15967
2.9605	-56.5979
2.961	-40.88745
2.9615	-20.44373
2.962	-21.45081
2.9625	-29.20532
2.963	-42.59949
2.9635	-55.59082
2.964	-63.54675
2.9645	-62.53967
2.965	-66.26587
2.9655	-77.04163
2.966	-91.8457
2.9665	-108.1604
2.967	-110.27527
2.9675	-115.31067
2.968	-91.8457
2.9685	-63.74817
2.969	-39.57825
2.9695	-19.43665
2.97	-10.0708
2.9705	-30.01099
2.971	-53.17383
2.9715	-54.0802
2.972	-48.54126
2.9725	-46.02356
2.973	-44.71436
2.9735	-40.48462
2.974	-30.81665
2.9745	-18.32886
2.975	-0.70496
2.9755	25.07629
2.976	54.68445
2.9765	75.93384
2.977	80.96924
2.9775	97.28394
2.978	120.95032
2.9785	132.83386
2.979	123.66943
2.9795	110.87952
2.98	90.43579
2.9805	42.7002
2.981	-1.51062
2.9815	-30.51453
2.982	-54.0802
2.9825	-57.9071
2.983	-39.37683
2.9835	-6.84814
2.984	7.65381
2.9845	12.48779
2.985	30.81665
2.9855	45.11719
2.986	54.18091
2.9865	48.44055
2.987	41.39099
2.9875	24.77417
2.988	21.95435
2.9885	27.19116
2.989	20.74585
2.9895	-0.50354
2.99	-10.47363
2.9905	-17.32178
2.991	-35.34851
2.9915	-41.08887
2.992	-45.92285
2.9925	-39.47754
2.993	-33.9386
2.9935	-43.90869
2.994	-51.36108
2.9945	-45.2179
2.995	-38.57117
2.9955	-36.35559
2.996	-20.94727
2.9965	-18.63098
2.997	-29.00391
2.9975	-21.3501
2.998	2.41699
2.9985	12.99133
2.999	55.59082
2.9995	112.79297
3	127.39563
3.0005	101.61438
3.001	82.17773
3.0015	62.74109
3.002	54.18091
3.0025	49.44763
3.003	39.88037
3.0035	19.53735
3.004	8.05664
3.0045	6.04248
3.005	-12.48779
3.0055	-23.8678
3.006	-34.54285
3.0065	-49.44763
3.007	-67.47437
3.0075	-57.40356
3.008	-48.03772
3.0085	-33.73718
3.009	-35.14709
3.0095	-44.41223
3.01	-52.8717
3.0105	-66.46729
3.011	-86.00464
3.0115	-109.16748
3.012	-100.10376
3.0125	-56.09436
3.013	-9.36584
3.0135	30.2124
3.014	51.76392
3.0145	77.44446
3.015	101.41296
3.0155	107.95898
3.016	94.66553
3.0165	78.75366
3.017	63.14392
3.0175	37.56409
3.018	11.2793
3.0185	-6.54602
3.019	-21.65222
3.0195	-28.39966
3.02	-41.18958
3.0205	-46.72852
3.021	-54.98657
3.0215	-59.61914
3.022	-62.23755
3.0225	-64.85596
3.023	-75.73242
3.0235	-81.67419
3.024	-71.30127
3.0245	-58.30994
3.025	-45.3186
3.0255	-33.43506
3.026	-28.19824
3.0265	-7.04956
3.027	15.50903
3.0275	35.75134
3.028	55.89294
3.0285	61.43188
3.029	72.50977
3.0295	78.45154
3.03	70.79773
3.0305	64.55383
3.031	48.54126
3.0315	42.39807
3.032	30.31311
3.0325	11.88354
3.033	1.71204
3.0335	-21.85364
3.034	-34.64355
3.0345	-46.32568
3.035	-62.53967
3.0355	-69.79065
3.036	-69.38782
3.0365	-58.81348
3.037	-39.37683
3.0375	-32.22656
3.038	-9.06372
3.0385	1.91345
3.039	15.91187
3.0395	33.43506
3.04	56.29578
3.0405	87.61597
3.041	108.05969
3.0415	116.51917
3.042	118.43262
3.0425	121.15173
3.043	113.39722
3.0435	95.77332
3.044	73.81897
3.0445	49.95117
3.045	29.70886
3.0455	18.22815
3.046	14.30054
3.0465	41.59241
3.047	43.30444
3.0475	23.16284
3.048	6.94885
3.0485	-15.00549
3.049	-41.39099
3.0495	-50.05188
3.05	-15.00549
3.0505	24.87488
3.051	63.64746
3.0515	61.53259
3.052	20.84656
3.0525	2.5177
3.053	-9.06372
3.0535	-11.98425
3.054	-5.84106
3.0545	-3.92761
3.055	-28.19824
3.0555	-54.38232
3.056	-71.30127
3.0565	-59.82056
3.057	-63.24463
3.0575	-70.3949
3.058	-82.88269
3.0585	-95.47119
3.059	-100.70801
3.0595	-92.75208
3.06	-88.32092
3.0605	-82.68127
3.061	-54.48303
3.0615	-28.19824
3.062	-18.22815
3.0625	-14.09912
3.063	-4.73328
3.0635	-1.00708
3.064	6.14319
3.0645	23.06213
3.065	37.66479
3.0655	32.52869
3.066	26.98975
3.0665	34.14001
3.067	33.83789
3.0675	27.29187
3.068	29.10461
3.0685	47.63489
3.069	60.52551
3.0695	71.80481
3.07	80.56641
3.0705	97.38464
3.071	107.85828
3.0715	138.77563
3.072	183.18787
3.0725	190.53955
3.073	163.65051
3.0735	132.33032
3.074	90.03296
3.0745	39.47754
3.075	-4.73328
3.0755	-43.00232
3.076	-72.50977
3.0765	-97.78748
3.077	-124.57581
3.0775	-156.90308
3.078	-179.36096
3.0785	-187.01477
3.079	-180.97229
3.0795	-161.93848
3.08	-155.59387
3.0805	-146.83228
3.081	-132.43103
3.0815	-118.53333
3.082	-100.20447
3.0825	-75.63171
3.083	-56.79932
3.0835	-32.02515
3.084	-27.19116
3.0845	-25.27771
3.085	-18.53027
3.0855	-7.65381
3.086	14.60266
3.0865	31.92444
3.087	47.43347
3.0875	49.24622
3.088	49.85046
3.0885	48.94409
3.089	46.5271
3.0895	31.62231
3.09	21.85364
3.0905	12.5885
3.091	7.35168
3.0915	14.80408
3.092	15.71045
3.0925	21.65222
3.093	9.16443
3.0935	16.61682
3.094	32.22656
3.0945	30.11169
3.095	9.16443
3.0955	-12.89062
3.096	-20.94727
3.0965	-25.68054
3.097	-37.66479
3.0975	-46.32568
3.098	-56.39648
3.0985	-57.70569
3.099	-51.05896
3.0995	-49.74976
3.1	-42.59949
3.1005	-28.19824
3.101	-10.77576
3.1015	1.71204
3.102	9.97009
3.1025	14.30054
3.103	42.29736
3.1035	89.328
3.104	146.32874
3.1045	174.42627
3.105	193.15796
3.1055	173.01636
3.106	136.66077
3.1065	109.26819
3.107	91.8457
3.1075	100.80872
3.108	103.52783
3.1085	86.50818
3.109	44.61365
3.1095	-6.04248
3.11	-36.4563
3.1105	-58.30994
3.111	-73.01331
3.1115	-80.26428
3.112	-70.3949
3.1125	-58.00781
3.113	-46.5271
3.1135	-48.54126
3.114	-60.3241
3.1145	-83.48694
3.115	-94.06128
3.1155	-90.23438
3.116	-70.59631
3.1165	-63.94958
3.117	-48.74268
3.1175	-36.55701
3.118	-32.83081
3.1185	-23.56567
3.119	-13.09204
3.1195	-16.81824
3.12	-7.04956
3.1205	-3.12195
3.121	3.32336
3.1215	-6.64673
3.122	-1.10779
3.1225	-7.65381
3.123	-10.57434
3.1235	-9.36584
3.124	-10.27222
3.1245	-14.50195
3.125	-6.74744
3.1255	3.62549
3.126	7.5531
3.1265	29.10461
3.127	45.72144
3.1275	51.15967
3.128	49.85046
3.1285	43.10303
3.129	50.354
3.1295	52.36816
3.13	54.48303
3.1305	64.45312
3.131	58.91418
3.1315	50.45471
3.132	46.02356
3.1325	45.11719
3.133	42.8009
3.1335	30.61523
3.134	25.88196
3.1345	22.86072
3.135	0.10071
3.1355	-23.36426
3.136	-44.0094
3.1365	-46.92993
3.137	-38.26904
3.1375	-11.2793
3.138	-17.72461
3.1385	-28.70178
3.139	-32.32727
3.1395	-32.93152
3.14	-12.38708
3.1405	14.60266
3.141	25.78125
3.1415	32.02515
3.142	32.02515
3.1425	40.78674
3.143	40.58533
3.1435	28.80249
3.144	16.91895
3.1445	9.97009
3.145	1.61133
3.1455	-16.01257
3.146	-23.8678
3.1465	-31.01807
3.147	-32.02515
3.1475	-32.22656
3.148	-26.88904
3.1485	-23.56567
3.149	-23.66638
3.1495	-37.26196
3.15	-49.0448
3.1505	-50.05188
3.151	-51.5625
3.1515	-54.78516
3.152	-73.11401
3.1525	-79.05579
3.153	-76.84021
3.1535	-81.67419
3.154	-71.50269
3.1545	-56.39648
3.155	-28.29895
3.1555	5.0354
3.156	41.18958
3.1565	64.05029
3.157	87.41455
3.1575	135.35156
3.158	189.23035
3.1585	205.34363
3.159	201.61743
3.1595	173.72131
3.16	173.11707
3.1605	197.79053
3.161	172.81494
3.1615	124.97864
3.162	88.22021
3.1625	53.57666
3.163	15.30762
3.1635	-6.04248
3.164	-21.65222
3.1645	-4.73328
3.165	3.42407
3.1655	0.40283
3.166	-16.51611
3.1665	-40.78674
3.167	-66.76941
3.1675	-90.23438
3.168	-111.08093
3.1685	-130.51758
3.169	-156.70166
3.1695	-164.05334
3.17	-169.18945
3.1705	-170.19653
3.171	-167.276
3.1715	-138.87634
3.172	-120.7489
3.1725	-111.08093
3.173	-89.328
3.1735	-66.36658
3.174	-45.92285
3.1745	-23.46497
3.175	-4.02832
3.1755	18.53027
3.176	22.76001
3.1765	2.01416
3.177	-8.66089
3.1775	-16.51611
3.178	-24.37134
3.1785	-21.95435
3.179	-16.01257
3.1795	-13.49487
3.18	-4.12903
3.1805	13.89771
3.181	30.51453
3.1815	39.67896
3.182	47.33276
3.1825	39.27612
3.183	26.18408
3.1835	22.45789
3.184	5.84106
3.1845	-3.92761
3.185	-17.52319
3.1855	-35.54993
3.186	-33.83789
3.1865	-27.29187
3.187	-17.32178
3.1875	-4.63257
3.188	2.71912
3.1885	9.97009
3.189	15.00549
3.1895	16.41541
3.19	24.67346
3.1905	36.55701
3.191	57.60498
3.1915	70.3949
3.192	66.26587
3.1925	67.27295
3.193	80.16357
3.1935	99.49951
3.194	104.23279
3.1945	96.8811
3.195	83.18481
3.1955	66.26587
3.196	44.51294
3.1965	22.55859
3.197	4.73328
3.1975	-13.69629
3.198	-30.61523
3.1985	-39.37683
3.199	-44.91577
3.1995	-58.91418
3.2	-73.31543
3.2005	-79.55933
3.201	-88.52234
3.2015	-77.04163
3.202	-47.43347
3.2025	13.59558
3.203	65.15808
3.2035	109.67102
3.204	141.69617
3.2045	186.71265
3.205	255.2948
3.2055	296.28296
3.206	297.18933
3.2065	238.17444
3.207	157.30591
3.2075	72.81189
3.208	2.81982
3.2085	-45.52002
3.209	-75.22888
3.2095	-92.14783
3.21	-102.52075
3.2105	-118.53333
3.211	-128.302
3.2115	-143.20679
3.212	-139.98413
3.2125	-134.5459
3.213	-140.38696
3.2135	-149.6521
3.214	-165.06042
3.2145	-184.59778
3.215	-188.6261
3.2155	-172.21069
3.216	-144.31458
3.2165	-110.87952
3.217	-87.51526
3.2175	-75.02747
3.218	-78.14941
3.2185	-13.09204
3.219	72.71118
3.2195	139.88342
3.22	156.29883
3.2205	142.40112
3.221	128.60413
3.2215	103.62854
3.222	80.56641
3.2225	57.9071
3.223	48.54126
3.2235	47.43347
3.224	44.51294
3.2245	41.08887
3.225	34.74426
3.2255	19.83948
3.226	17.6239
3.2265	15.00549
3.227	19.03381
3.2275	32.32727
3.228	34.34143
3.2285	29.00391
3.229	-2.11487
3.2295	-31.62231
3.23	-50.2533
3.2305	-83.28552
3.231	-121.35315
3.2315	-152.77405
3.232	-146.12732
3.2325	-136.86218
3.233	-118.43262
3.2335	-96.57898
3.234	-85.90393
3.2345	-76.94092
3.235	-74.02039
3.2355	-78.75366
3.236	-66.76941
3.2365	-52.16675
3.237	-39.17542
3.2375	-38.26904
3.238	-28.60107
3.2385	-8.05664
3.239	12.28638
3.2395	6.94885
3.24	20.1416
3.2405	47.33276
3.241	91.24146
3.2415	125.48218
3.242	131.22253
3.2425	131.62537
3.243	134.94873
3.2435	124.57581
3.244	98.0896
3.2445	70.59631
3.245	43.00232
3.2455	26.3855
3.246	8.7616
3.2465	0.50354
3.247	-15.71045
3.2475	-33.53577
3.248	-44.21082
3.2485	-49.34692
3.249	-53.27454
3.2495	-36.75842
3.25	-30.81665
3.2505	-30.91736
3.251	-39.27612
3.2515	-41.69312
3.252	-43.80798
3.2525	-27.49329
3.253	-5.0354
3.2535	18.73169
3.254	35.65063
3.2545	39.98108
3.255	51.36108
3.2555	61.6333
3.256	59.71985
3.2565	48.64197
3.257	48.54126
3.2575	42.49878
3.258	41.39099
3.2585	20.74585
3.259	5.94177
3.2595	-9.86938
3.26	31.01807
3.2605	86.30676
3.261	103.52783
3.2615	83.18481
3.262	43.10303
3.2625	14.60266
3.263	21.75293
3.2635	26.3855
3.264	23.26355
3.2645	-6.84814
3.265	-46.02356
3.2655	-69.08569
3.266	-81.27136
3.2665	-89.63013
3.267	-89.42871
3.2675	-78.95508
3.268	-45.2179
3.2685	-6.64673
3.269	21.55151
3.2695	52.16675
3.27	70.49561
3.2705	69.58923
3.271	56.69861
3.2715	30.2124
3.272	7.65381
3.2725	-19.33594
3.273	-35.95276
3.2735	-45.3186
3.274	-30.31311
3.2745	-14.90479
3.275	2.71912
3.2755	11.2793
3.276	33.63647
3.2765	32.52869
3.277	17.42249
3.2775	3.22266
3.278	-17.32178
3.2785	-23.26355
3.279	-19.23523
3.2795	-38.26904
3.28	-63.64746
3.2805	-90.33508
3.281	-101.71509
3.2815	-109.3689
3.282	-104.3335
3.2825	-105.44128
3.283	-93.96057
3.2835	-78.85437
3.284	-72.00623
3.2845	-65.25879
3.285	-60.92834
3.2855	-55.79224
3.286	-39.47754
3.2865	-31.01807
3.287	-17.42249
3.2875	-8.7616
3.288	-7.04956
3.2885	-10.57434
3.289	-10.37292
3.2895	-7.5531
3.29	-8.8623
3.2905	-15.60974
3.291	-20.04089
3.2915	-31.4209
3.292	-33.13293
3.2925	-26.48621
3.293	-19.63806
3.2935	-14.40125
3.294	-10.0708
3.2945	-4.33044
3.295	0.10071
3.2955	1.2085
3.296	4.33044
3.2965	11.68213
3.297	22.25647
3.2975	47.23206
3.298	71.30127
3.2985	90.63721
3.299	89.52942
3.2995	79.66003
3.3	72.50977
3.3005	63.34534
3.301	64.55383
3.3015	56.49719
3.302	40.98816
3.3025	19.63806
3.303	8.7616
3.3035	1.71204
3.304	3.22266
3.3045	3.32336
3.305	4.83398
3.3055	10.47363
3.306	16.3147
3.3065	26.68762
3.307	16.01257
3.3075	13.19275
3.308	40.78674
3.3085	90.13367
3.309	146.73157
3.3095	185.40344
3.31	191.04309
3.3105	193.96362
3.311	172.41211
3.3115	126.58997
3.312	82.27844
3.3125	30.51453
3.313	-1.61133
3.3135	-37.86621
3.314	-69.08569
3.3145	-86.30676
3.315	-55.79224
3.3155	-13.89771
3.316	49.44763
3.3165	87.31384
3.317	93.75916
3.3175	62.9425
3.318	15.71045
3.3185	-26.3855
3.319	-60.92834
3.3195	-86.10535
3.32	-80.16357
3.3205	-93.0542
3.321	-114.00146
3.3215	-120.64819
3.322	-121.55457
3.3225	-143.81104
3.323	-163.65051
3.3235	-171.70715
3.324	-174.12415
3.3245	-165.66467
3.325	-163.5498
3.3255	-153.479
3.326	-129.30908
3.3265	-103.72925
3.327	-56.39648
3.3275	-13.09204
3.328	8.7616
3.3285	11.2793
3.329	11.07788
3.3295	3.7262
3.33	8.66089
3.3305	14.50195
3.331	9.97009
3.3315	-14.50195
3.332	-30.31311
3.3325	-32.7301
3.333	-29.80957
3.3335	-5.74036
3.334	16.41541
3.3345	31.82373
3.335	38.974
3.3355	50.75684
3.336	45.72144
3.3365	31.62231
3.337	23.16284
3.3375	22.6593
3.338	18.53027
3.3385	15.30762
3.339	14.70337
3.3395	20.74585
3.34	28.60107
3.3405	22.45789
3.341	23.96851
3.3415	30.71594
3.342	41.89453
3.3425	46.82922
3.343	52.16675
3.3435	59.41772
3.344	59.31702
3.3445	84.09119
3.345	94.76624
3.3455	85.60181
3.346	61.6333
3.3465	46.72852
3.347	20.84656
3.3475	7.25098
3.348	-8.15735
3.3485	-5.43823
3.349	-13.09204
3.3495	-17.12036
3.35	-23.16284
3.3505	-25.177
3.351	-27.49329
3.3515	-33.33435
3.352	-41.79382
3.3525	-48.33984
3.353	-54.78516
3.3535	-63.14392
3.354	-75.02747
3.3545	-90.5365
3.355	-91.64429
3.3555	-91.64429
3.356	-79.86145
3.3565	-63.14392
3.357	-46.32568
3.3575	-11.88354
3.358	9.16443
3.3585	35.04639
3.359	48.74268
3.3595	54.98657
3.36	40.88745
3.3605	22.05505
3.361	18.63098
3.3615	27.99683
3.362	32.22656
3.3625	32.22656
3.363	32.02515
3.3635	29.20532
3.364	21.24939
3.3645	20.44373
3.365	20.44373
3.3655	26.18408
3.366	41.69312
3.3665	76.03455
3.367	106.34766
3.3675	115.41138
3.368	104.3335
3.3685	95.06836
3.369	83.18481
3.3695	64.65454
3.37	28.29895
3.3705	12.08496
3.371	35.14709
3.3715	71.90552
3.372	103.125
3.3725	102.42004
3.373	85.09827
3.3735	73.01331
3.374	57.9071
3.3745	41.08887
3.375	27.79541
3.3755	12.89062
3.376	16.41541
3.3765	52.67029
3.377	80.96924
3.3775	71.40198
3.378	22.45789
3.3785	-32.42798
3.379	-81.06995
3.3795	-120.54749
3.38	-141.49475
3.3805	-140.38696
3.381	-137.46643
3.3815	-136.56006
3.382	-148.94714
3.3825	-161.23352
3.383	-164.95972
3.3835	-166.67175
3.384	-149.24927
3.3845	-134.64661
3.385	-129.00696
3.3855	-118.73474
3.386	-93.65845
3.3865	-41.08887
3.387	-10.0708
3.3875	-6.64673
3.388	-3.52478
3.3885	22.15576
3.389	33.73718
3.3895	38.67188
3.39	39.47754
3.3905	37.66479
3.391	40.68604
3.3915	19.53735
3.392	-4.53186
3.3925	-19.83948
3.393	-37.46338
3.3935	-53.07312
3.394	-57.10144
3.3945	-46.92993
3.395	-39.57825
3.3955	-31.32019
3.396	-27.89612
3.3965	-22.25647
3.397	-16.91895
3.3975	21.85364
3.398	49.64905
3.3985	69.28711
3.399	70.19348
3.3995	60.12268
3.4	43.00232
3.4005	21.85364
3.401	20.24231
3.4015	16.51611
3.402	15.60974
3.4025	22.96143
3.403	27.09045
3.4035	27.79541
3.404	33.23364
3.4045	43.30444
3.405	43.60657
3.4055	40.38391
3.406	40.78674
3.4065	43.60657
3.407	34.14001
3.4075	14.80408
3.408	0.40283
3.4085	-14.80408
3.409	-34.94568
3.4095	-58.30994
3.41	-80.96924
3.4105	-86.40747
3.411	-69.48853
3.4115	-33.33435
3.412	-18.12744
3.4125	-15.91187
3.413	-0.10071
3.4135	20.04089
3.414	22.05505
3.4145	32.42798
3.415	56.49719
3.4155	61.93542
3.416	52.771
3.4165	32.22656
3.417	11.78284
3.4175	-2.31628
3.418	-12.38708
3.4185	-20.24231
3.419	-16.51611
3.4195	-22.35718
3.42	-28.29895
3.4205	-32.7301
3.421	-38.06763
3.4215	-33.23364
3.422	-35.04639
3.4225	-27.59399
3.423	-12.5885
3.4235	27.89612
3.424	58.61206
3.4245	92.04712
3.425	117.32483
3.4255	139.88342
3.426	174.52698
3.4265	189.83459
3.427	171.0022
3.4275	132.73315
3.428	82.58057
3.4285	43.10303
3.429	5.53894
3.4295	-14.19983
3.43	-34.94568
3.4305	-43.90869
3.431	-57.70569
3.4315	-77.948
3.432	-87.21313
3.4325	-78.25012
3.433	-69.89136
3.4335	-75.02747
3.434	-78.14941
3.4345	-76.33667
3.435	-72.20764
3.4355	-79.96216
3.436	-63.74817
3.4365	-43.00232
3.437	-30.01099
3.4375	-7.65381
3.438	52.771
3.4385	94.56482
3.439	102.82288
3.4395	96.7804
3.44	98.49243
3.4405	85.80322
3.441	67.67578
3.4415	48.03772
3.442	18.02673
3.4425	3.7262
3.443	-11.48071
3.4435	-17.82532
3.444	-28.70178
3.4445	-31.72302
3.445	-42.8009
3.4455	-65.76233
3.446	-110.87952
3.4465	-129.71191
3.447	-125.98572
3.4475	-103.52783
3.448	-60.4248
3.4485	-13.59558
3.449	16.71753
3.4495	31.11877
3.45	37.86621
3.4505	23.26355
3.451	-14.50195
3.4515	-41.4917
3.452	-71.80481
3.4525	-81.17065
3.453	-78.14941
3.4535	-60.52551
3.454	-42.09595
3.4545	-24.97559
3.455	-2.81982
3.4555	27.89612
3.456	43.70728
3.4565	49.85046
3.457	39.07471
3.4575	18.8324
3.458	6.2439
3.4585	-13.09204
3.459	-29.80957
3.4595	-46.12427
3.46	-53.07312
3.4605	-49.64905
3.461	-45.62073
3.4615	-32.93152
3.462	-28.50037
3.4625	-39.98108
3.463	-47.53418
3.4635	-46.22498
3.464	-31.01807
3.4645	-17.72461
3.465	-9.46655
3.4655	8.96301
3.466	25.177
3.4665	32.22656
3.467	25.57983
3.4675	17.32178
3.468	13.797
3.4685	10.67505
3.469	-1.40991
3.4695	0.30212
3.47	-15.50903
3.4705	-21.45081
3.471	-22.05505
3.4715	-19.33594
3.472	-17.82532
3.4725	-10.47363
3.473	0.90637
3.4735	14.70337
3.474	27.6947
3.4745	34.03931
3.475	44.61365
3.4755	57.20215
3.476	59.61914
3.4765	50.75684
3.477	39.17542
3.4775	28.19824
3.478	16.41541
3.4785	5.63965
3.479	-3.22266
3.4795	-9.66797
3.48	-11.38
3.4805	-12.28638
3.481	-13.49487
3.4815	-13.39417
3.482	8.96301
3.4825	54.58374
3.483	92.14783
3.4835	117.92908
3.484	132.73315
3.4845	143.20679
3.485	145.72449
3.4855	123.06519
3.486	102.92358
3.4865	78.04871
3.487	49.54834
3.4875	26.3855
3.488	19.73877
3.4885	56.39648
3.489	88.82446
3.4895	97.08252
3.49	87.61597
3.4905	62.64038
3.491	20.1416
3.4915	-27.39258
3.492	-60.22339
3.4925	-73.81897
3.493	-74.2218
3.4935	-73.11401
3.494	-79.05579
3.4945	-100.30518
3.495	-106.64978
3.4955	-113.09509
3.496	-113.09509
3.4965	-116.82129
3.497	-118.93616
3.4975	-125.98572
3.498	-129.81262
3.4985	-119.74182
3.499	-105.34058
3.4995	-90.83862
3.5	-91.14075
3.5005	-73.11401
3.501	-59.41772
3.5015	-57.40356
3.502	-41.4917
3.5025	-30.11169
3.503	-11.17859
3.5035	2.21558
3.504	9.06372
3.5045	-2.81982
3.505	-22.86072
3.5055	-43.80798
3.506	-46.92993
3.5065	-39.77966
3.507	-16.21399
3.5075	9.36584
3.508	17.01965
3.5085	29.30603
3.509	37.66479
3.5095	36.4563
3.51	43.20374
3.5105	58.71277
3.511	73.71826
3.5115	100.40588
3.512	123.06519
3.5125	139.07776
3.513	158.21228
3.5135	152.47192
3.514	155.896
3.5145	144.6167
3.515	97.58606
3.5155	50.354
3.516	5.43823
3.5165	-20.24231
3.517	-23.56567
3.5175	3.92761
3.518	27.19116
3.5185	35.54993
3.519	28.29895
3.5195	3.8269
3.52	-19.63806
3.5205	-49.54834
3.521	-71.40198
3.5215	-82.9834
3.522	-85.5011
3.5225	-79.86145
3.523	-69.48853
3.5235	-70.29419
3.524	-71.30127
3.5245	-55.3894
3.525	-20.44373
3.5255	12.78992
3.526	17.32178
3.5265	25.177
3.527	30.11169
3.5275	35.14709
3.528	27.19116
3.5285	13.09204
3.529	-17.01965
3.5295	-37.66479
3.53	-60.12268
3.5305	-71.30127
3.531	-77.84729
3.5315	-81.97632
3.532	-92.55066
3.5325	-94.46411
3.533	-89.22729
3.5335	-75.12817
3.534	-58.00781
3.5345	-30.61523
3.535	-16.51611
3.5355	-9.76868
3.536	-17.92603
3.5365	-20.04089
3.537	-20.84656
3.5375	-9.86938
3.538	-2.31628
3.5385	-0.20142
3.539	5.33752
3.5395	6.64673
3.54	8.66089
3.5405	-0.80566
3.541	-1.91345
3.5415	-4.73328
3.542	-7.95593
3.5425	-8.66089
3.543	-10.17151
3.5435	-6.3446
3.544	17.72461
3.5445	58.10852
3.545	72.81189
3.5455	73.51685
3.546	75.12817
3.5465	87.71667
3.547	71.90552
3.5475	56.90002
3.548	37.36267
3.5485	22.15576
3.549	22.05505
3.5495	18.12744
3.55	5.23682
3.5505	-2.61841
3.551	-16.11328
3.5515	-27.29187
3.552	-20.54443
3.5525	10.17151
3.553	38.87329
3.5535	62.43896
3.554	74.62463
3.5545	60.62622
3.555	45.62073
3.5555	35.75134
3.556	26.78833
3.5565	21.55151
3.557	31.62231
3.5575	47.53418
3.558	42.29736
3.5585	7.75452
3.559	-18.42957
3.5595	-26.68762
3.56	-31.01807
3.5605	-25.68054
3.561	-14.09912
3.5615	-13.797
3.562	-8.66089
3.5625	2.11487
3.563	9.26514
3.5635	18.22815
3.564	14.90479
3.5645	3.7262
3.565	-8.96301
3.5655	-26.78833
3.566	-29.30603
3.5665	-19.94019
3.567	7.25098
3.5675	60.62622
3.568	116.01562
3.5685	117.42554
3.569	88.92517
3.5695	64.55383
3.57	36.65771
3.5705	10.27222
3.571	-12.5885
3.5715	-24.97559
3.572	-47.13135
3.5725	-65.56091
3.573	-86.00464
3.5735	-112.79297
3.574	-133.43811
3.5745	-144.11316
3.575	-141.39404
3.5755	-130.8197
3.576	-115.41138
3.5765	-92.65137
3.577	-65.96375
3.5775	-47.8363
3.578	-37.16125
3.5785	-12.38708
3.579	2.71912
3.5795	17.82532
3.58	21.65222
3.5805	16.21399
3.581	13.09204
3.5815	5.23682
3.582	22.05505
3.5825	60.02197
3.583	67.57507
3.5835	56.49719
3.584	36.65771
3.5845	-21.14868
3.585	-67.17224
3.5855	-108.56323
3.586	-132.53174
3.5865	-133.13599
3.587	-116.11633
3.5875	-101.21155
3.588	-79.55933
3.5885	-58.91418
3.589	-38.06763
3.5895	-11.38
3.59	7.75452
3.5905	24.77417
3.591	40.98816
3.5915	35.54993
3.592	32.42798
3.5925	56.49719
3.593	79.55933
3.5935	82.78198
3.594	72.20764
3.5945	68.28003
3.595	46.62781
3.5955	15.40833
3.596	-7.65381
3.5965	-15.30762
3.597	-12.78992
3.5975	-12.28638
3.598	-17.82532
3.5985	-10.0708
3.599	3.62549
3.5995	31.82373
3.6	47.93701
3.6005	57.20215
3.601	56.49719
3.6015	39.17542
3.602	26.18408
3.6025	15.81116
3.603	14.19983
3.6035	4.12903
3.604	9.56726
3.6045	17.22107
3.605	44.0094
3.6055	52.36816
3.606	49.74976
3.6065	48.94409
3.607	37.36267
3.6075	35.75134
3.608	34.44214
3.6085	28.60107
3.609	18.02673
3.6095	41.89453
3.61	51.66321
3.6105	56.39648
3.611	45.41931
3.6115	28.29895
3.612	3.62549
3.6125	-15.71045
3.613	-35.85205
3.6135	-31.4209
3.614	-7.85522
3.6145	-2.11487
3.615	-9.56726
3.6155	-21.45081
3.616	-33.13293
3.6165	-44.71436
3.617	-61.02905
3.6175	-57.70569
3.618	-45.3186
3.6185	-37.16125
3.619	12.38708
3.6195	61.73401
3.62	83.28552
3.6205	70.09277
3.621	53.27454
3.6215	35.44922
3.622	12.99133
3.6225	0.60425
3.623	-3.02124
3.6235	-0.20142
3.624	17.52319
3.6245	34.64355
3.625	38.974
3.6255	26.18408
3.626	10.57434
3.6265	-0.30212
3.627	-7.25098
3.6275	-9.86938
3.628	-29.50745
3.6285	-43.40515
3.629	-39.07471
3.6295	-21.24939
3.63	-16.3147
3.6305	-18.8324
3.631	-25.27771
3.6315	-36.4563
3.632	-47.93701
3.6325	-55.2887
3.633	-69.99207
3.6335	-76.84021
3.634	-94.3634
3.6345	-88.11951
3.635	-75.22888
3.6355	-79.76074
3.636	-61.53259
3.6365	-29.80957
3.637	-4.33044
3.6375	10.0708
3.638	10.67505
3.6385	2.61841
3.639	-6.74744
3.6395	-9.06372
3.64	-3.62549
3.6405	19.53735
3.641	28.19824
3.6415	26.28479
3.642	22.76001
3.6425	30.2124
3.643	27.19116
3.6435	16.3147
3.644	12.18567
3.6445	0
3.645	1.40991
3.6455	12.48779
3.646	18.93311
3.6465	22.35718
3.647	19.53735
3.6475	-0.50354
3.648	-51.96533
3.6485	-96.57898
3.649	-118.13049
3.6495	-111.38306
3.65	-106.9519
3.6505	-82.58057
3.651	-50.15259
3.6515	-32.62939
3.652	-12.18567
3.6525	1.3092
3.653	13.797
3.6535	10.77576
3.654	18.8324
3.6545	29.70886
3.655	32.52869
3.6555	30.61523
3.656	33.33435
3.6565	24.16992
3.657	14.30054
3.6575	2.11487
3.658	-2.92053
3.6585	-3.22266
3.659	-8.96301
3.6595	6.3446
3.66	16.81824
3.6605	26.28479
3.661	17.6239
3.6615	7.95593
3.662	4.33044
3.6625	14.19983
3.663	58.20923
3.6635	70.79773
3.664	57.20215
3.6645	40.98816
3.665	24.97559
3.6655	7.45239
3.666	-4.83398
3.6665	-13.49487
3.667	-27.49329
3.6675	-39.27612
3.668	-50.65613
3.6685	-51.5625
3.669	-52.46887
3.6695	-49.14551
3.67	-35.2478
3.6705	-20.94727
3.671	-13.797
3.6715	7.25098
3.672	25.177
3.6725	45.41931
3.673	60.62622
3.6735	66.46729
3.674	65.46021
3.6745	56.5979
3.675	32.62939
3.6755	55.99365
3.676	98.49243
3.6765	125.48218
3.677	152.97546
3.6775	191.84875
3.678	213.29956
3.6785	187.4176
3.679	131.22253
3.6795	80.36499
3.68	37.36267
3.6805	3.92761
3.681	-33.9386
3.6815	-62.74109
3.682	-42.49878
3.6825	-26.58691
3.683	-20.94727
3.6835	-31.62231
3.684	-37.26196
3.6845	-37.86621
3.685	-25.07629
3.6855	-7.15027
3.686	20.24231
3.6865	28.50037
3.687	32.02515
3.6875	13.49487
3.688	-3.7262
3.6885	-15.40833
3.689	-42.09595
3.6895	-78.35083
3.69	-110.37598
3.6905	-115.81421
3.691	-110.37598
3.6915	-106.9519
3.692	-97.98889
3.6925	-72.61047
3.693	-30.11169
3.6935	8.66089
3.694	14.09912
3.6945	-1.2085
3.695	-26.48621
3.6955	-53.37524
3.696	-72.00623
3.6965	-78.65295
3.697	-90.43579
3.6975	-86.91101
3.698	-70.79773
3.6985	-56.19507
3.699	-58.20923
3.6995	-59.61914
3.7	-38.57117
3.7005	-30.11169
3.701	-18.53027
3.7015	-11.68213
3.702	-9.66797
3.7025	-3.52478
3.703	6.3446
3.7035	11.68213
3.704	17.6239
3.7045	14.09912
3.705	6.3446
3.7055	2.31628
3.706	1.2085
3.7065	2.81982
3.707	9.86938
3.7075	18.32886
3.708	15.40833
3.7085	12.38708
3.709	11.98425
3.7095	3.92761
3.71	5.13611
3.7105	0.90637
3.711	3.7262
3.7115	19.83948
3.712	26.68762
3.7125	25.78125
3.713	19.94019
3.7135	20.64514
3.714	9.66797
3.7145	-8.66089
3.715	-27.09045
3.7155	-37.56409
3.716	-35.95276
3.7165	-25.57983
3.717	-18.42957
3.7175	-10.47363
3.718	4.02832
3.7185	10.57434
3.719	16.3147
3.7195	23.8678
3.72	36.4563
3.7205	34.64355
3.721	32.12585
3.7215	-1.61133
3.722	-14.09912
3.7225	-20.44373
3.723	-13.29346
3.7235	-18.12744
3.724	-10.37292
3.7245	11.78284
3.725	49.24622
3.7255	77.04163
3.726	103.42712
3.7265	94.96765
3.727	71.40198
3.7275	40.98816
3.728	20.44373
3.7285	18.73169
3.729	22.6593
3.7295	37.96692
3.73	45.2179
3.7305	39.37683
3.731	30.61523
3.7315	24.67346
3.732	41.79382
3.7325	38.36975
3.733	3.22266
3.7335	-22.6593
3.734	-18.93311
3.7345	-7.15027
3.735	10.17151
3.7355	22.45789
3.736	1.00708
3.7365	-22.15576
3.737	-46.92993
3.7375	-57.10144
3.738	-76.13525
3.7385	-83.18481
3.739	-76.53809
3.7395	-52.67029
3.74	-31.4209
3.7405	-20.74585
3.741	-17.42249
3.7415	-14.09912
3.742	-15.20691
3.7425	-8.35876
3.743	-10.97717
3.7435	-7.5531
3.744	-14.09912
3.7445	-18.63098
3.745	-11.88354
3.7455	-8.05664
3.746	-12.18567
3.7465	-16.21399
3.747	-13.09204
3.7475	-9.26514
3.748	5.23682
3.7485	19.53735
3.749	28.39966
3.7495	17.22107
3.75	21.55151
3.7505	31.62231
3.751	35.95276
3.7515	18.73169
3.752	-9.36584
3.7525	-32.22656
3.753	-48.54126
3.7535	-57.70569
3.754	-60.92834
3.7545	-44.81506
3.755	-20.24231
3.7555	9.56726
3.756	28.19824
3.7565	42.90161
3.757	54.78516
3.7575	65.96375
3.758	64.151
3.7585	61.33118
3.759	63.64746
3.7595	47.8363
3.76	31.21948
3.7605	3.8269
3.761	-10.0708
3.7615	-18.93311
3.762	-22.86072
3.7625	-16.41541
3.763	-2.92053
3.7635	10.37292
3.764	23.26355
3.7645	61.53259
3.765	88.52234
3.7655	85.29968
3.766	57.9071
3.7665	30.61523
3.767	1.81274
3.7675	-32.22656
3.768	-57.70569
3.7685	-76.84021
3.769	-87.01172
3.7695	-83.88977
3.77	-73.21472
3.7705	-61.23047
3.771	-60.22339
3.7715	-55.18799
3.772	-32.93152
3.7725	-16.11328
3.773	-5.13611
3.7735	-5.43823
3.774	-7.25098
3.7745	-8.35876
3.775	-0.70496
3.7755	13.797
3.776	6.04248
3.7765	2.41699
3.777	-3.42407
3.7775	0.70496
3.778	2.21558
3.7785	29.10461
3.779	88.92517
3.7795	124.27368
3.78	121.05103
3.7805	98.99597
3.781	82.9834
3.7815	54.58374
3.782	10.57434
3.7825	-52.56958
3.783	-57.00073
3.7835	-49.44763
3.784	-42.7002
3.7845	-39.27612
3.785	-66.6687
3.7855	-84.39331
3.786	-88.52234
3.7865	-55.18799
3.787	-16.01257
3.7875	16.91895
3.788	26.08337
3.7885	32.93152
3.789	25.27771
3.7895	17.82532
3.79	17.12036
3.7905	1.81274
3.791	-12.68921
3.7915	-31.4209
3.792	-40.68604
3.7925	-41.59241
3.793	-43.10303
3.7935	-37.86621
3.794	-45.82214
3.7945	-40.98816
3.795	-55.69153
3.7955	-67.57507
3.796	-67.77649
3.7965	-68.07861
3.797	-64.45312
3.7975	-58.20923
3.798	-59.41772
3.7985	-64.85596
3.799	-75.53101
3.7995	-89.328
