Niccolo_Morelli_Left_1.c3d  



Time(s):	Emg_1(μV):
0	48.54126
0.0005	72.9126
0.001	78.14941
0.0015	70.29419
0.002	58.30994
0.0025	51.66321
0.003	54.18091
0.0035	53.87878
0.004	48.03772
0.0045	35.04639
0.005	24.67346
0.0055	15.91187
0.006	5.94177
0.0065	0.30212
0.007	-6.04248
0.0075	-13.797
0.008	-8.7616
0.0085	-12.89062
0.009	-23.66638
0.0095	-50.2533
0.01	-64.75525
0.0105	-87.31384
0.011	-97.08252
0.0115	-105.6427
0.012	-92.24854
0.0125	-81.47278
0.013	-63.74817
0.0135	-24.37134
0.014	2.31628
0.0145	17.82532
0.015	34.74426
0.0155	40.48462
0.016	50.75684
0.0165	57.10144
0.017	44.71436
0.0175	25.98267
0.018	7.15027
0.0185	-11.17859
0.019	-28.9032
0.0195	-38.16833
0.02	-46.82922
0.0205	-60.62622
0.021	-63.54675
0.0215	-58.20923
0.022	-39.47754
0.0225	-8.45947
0.023	5.84106
0.0235	24.47205
0.024	31.32019
0.0245	41.39099
0.025	70.69702
0.0255	78.55225
0.026	60.4248
0.0265	26.48621
0.027	7.45239
0.0275	-12.08496
0.028	-13.99841
0.0285	-20.54443
0.029	-23.16284
0.0295	-25.37842
0.03	-21.14868
0.0305	-28.80249
0.031	-53.87878
0.0315	-74.02039
0.032	-97.28394
0.0325	-127.29492
0.033	-151.46484
0.0335	-162.54272
0.034	-175.63477
0.0345	-179.76379
0.035	-165.66467
0.0355	-161.43494
0.036	-143.81104
0.0365	-110.47668
0.037	-34.54285
0.0375	54.38232
0.038	121.25244
0.0385	155.79529
0.039	165.86609
0.0395	167.77954
0.04	144.41528
0.0405	83.18481
0.041	17.72461
0.0415	-38.77258
0.042	-66.56799
0.0425	-101.21155
0.043	-138.77563
0.0435	-170.49866
0.044	-196.98486
0.0445	-227.70081
0.045	-243.51196
0.0455	-214.91089
0.046	-167.98096
0.0465	-117.02271
0.047	-70.3949
0.0475	-21.14868
0.048	29.30603
0.0485	84.99756
0.049	145.8252
0.0495	207.15637
0.05	253.58276
0.0505	257.61108
0.051	234.44824
0.0515	208.7677
0.052	195.57495
0.0525	166.67175
0.053	116.82129
0.0535	87.31384
0.054	80.16357
0.0545	92.55066
0.055	89.93225
0.0555	90.13367
0.056	94.66553
0.0565	76.03455
0.057	60.82764
0.0575	51.15967
0.058	39.88037
0.0585	30.51453
0.059	19.94019
0.0595	10.27222
0.06	5.94177
0.0605	-2.81982
0.061	-9.16443
0.0615	-22.35718
0.062	-38.47046
0.0625	-35.85205
0.063	-31.62231
0.0635	-27.19116
0.064	-32.02515
0.0645	-26.98975
0.065	-23.8678
0.0655	-18.22815
0.066	-16.51611
0.0665	-25.68054
0.067	-30.61523
0.0675	-55.79224
0.068	-80.36499
0.0685	-110.77881
0.069	-129.5105
0.0695	-159.42078
0.07	-185.00061
0.0705	-216.72363
0.071	-249.85657
0.0715	-278.55835
0.072	-287.01782
0.0725	-258.81958
0.073	-203.83301
0.0735	-119.4397
0.074	-21.75293
0.0745	70.99915
0.075	155.59387
0.0755	246.13037
0.076	323.77625
0.0765	333.54492
0.077	297.79358
0.0775	243.51196
0.078	203.63159
0.0785	185.00061
0.079	157.40662
0.0795	123.56873
0.08	90.33508
0.0805	83.08411
0.081	90.93933
0.0815	99.2981
0.082	114.10217
0.0825	129.61121
0.083	117.32483
0.0835	94.06128
0.084	53.37524
0.0845	14.30054
0.085	-24.06921
0.0855	-64.151
0.086	-92.55066
0.0865	-115.91492
0.087	-127.99988
0.0875	-129.00696
0.088	-123.87085
0.0885	-83.08411
0.089	-21.75293
0.0895	40.78674
0.09	87.61597
0.0905	113.1958
0.091	131.12183
0.0915	153.17688
0.092	143.10608
0.0925	99.70093
0.093	39.17542
0.0935	-5.53894
0.094	-41.89453
0.0945	-57.40356
0.095	-60.02197
0.0955	-57.8064
0.096	-54.98657
0.0965	-67.37366
0.097	-85.5011
0.0975	-106.24695
0.098	-119.13757
0.0985	-123.36731
0.099	-129.91333
0.0995	-124.4751
0.1	-102.62146
0.1005	-82.88269
0.101	-43.80798
0.1015	9.06372
0.102	47.43347
0.1025	91.54358
0.103	147.33582
0.1035	223.77319
0.104	277.75269
0.1045	298.59924
0.105	275.23499
0.1055	199.09973
0.106	126.08643
0.1065	68.28003
0.107	33.23364
0.1075	36.05347
0.108	55.3894
0.1085	69.89136
0.109	85.80322
0.1095	103.02429
0.11	108.26111
0.1105	94.16199
0.111	74.02039
0.1115	38.67188
0.112	3.92761
0.1125	-24.67346
0.113	-38.36975
0.1135	-40.78674
0.114	-38.87329
0.1145	-24.57275
0.115	13.89771
0.1155	50.55542
0.116	83.08411
0.1165	93.96057
0.117	66.97083
0.1175	27.49329
0.118	-9.46655
0.1185	-31.72302
0.119	-41.29028
0.1195	-49.0448
0.12	-66.87012
0.1205	-86.8103
0.121	-105.54199
0.1215	-109.87244
0.122	-107.55615
0.1225	-90.03296
0.123	-61.23047
0.1235	-45.92285
0.124	-47.53418
0.1245	-39.88037
0.125	-56.79932
0.1255	-83.38623
0.126	-84.09119
0.1265	-71.09985
0.127	-46.02356
0.1275	-11.58142
0.128	4.93469
0.1285	12.68921
0.129	37.16125
0.1295	116.51917
0.13	199.09973
0.1305	250.36011
0.131	269.49463
0.1315	260.22949
0.132	225.38452
0.1325	196.48132
0.133	168.28308
0.1335	140.48767
0.134	105.94482
0.1345	93.15491
0.135	72.30835
0.1355	52.26746
0.136	31.4209
0.1365	2.21558
0.137	-28.50037
0.1375	-60.12268
0.138	-87.41455
0.1385	-118.13049
0.139	-132.43103
0.1395	-138.57422
0.14	-137.66785
0.1405	-128.40271
0.141	-107.55615
0.1415	-87.51526
0.142	-55.69153
0.1425	-37.7655
0.143	-43.50586
0.1435	-48.33984
0.144	-62.43896
0.1445	-110.27527
0.145	-152.77405
0.1455	-162.94556
0.146	-130.11475
0.1465	-48.13843
0.147	39.17542
0.1475	122.56165
0.148	208.86841
0.1485	259.32312
0.149	280.27039
0.1495	300.31128
0.15	289.53552
0.1505	219.54346
0.151	134.94873
0.1515	51.26038
0.152	-4.53186
0.1525	-31.32019
0.153	-17.72461
0.1535	33.9386
0.154	101.41296
0.1545	147.94006
0.155	174.02344
0.1555	169.59229
0.156	127.49634
0.1565	85.40039
0.157	48.23914
0.1575	27.09045
0.158	13.39417
0.1585	8.05664
0.159	6.74744
0.1595	6.94885
0.16	9.46655
0.1605	10.37292
0.161	4.83398
0.1615	7.15027
0.162	-1.2085
0.1625	-1.10779
0.163	-3.8269
0.1635	-8.35876
0.164	-7.45239
0.1645	-8.15735
0.165	-13.69629
0.1655	-18.22815
0.166	-19.73877
0.1665	-20.44373
0.167	-25.177
0.1675	-18.42957
0.168	-7.65381
0.1685	-7.5531
0.169	-4.22974
0.1695	5.0354
0.17	14.30054
0.1705	9.86938
0.171	7.35168
0.1715	-0.10071
0.172	-14.19983
0.1725	-28.39966
0.173	-43.40515
0.1735	-59.31702
0.174	-88.0188
0.1745	-114.70642
0.175	-136.86218
0.1755	-157.40662
0.176	-177.14539
0.1765	-181.97937
0.177	-180.77087
0.1775	-159.01794
0.178	-117.12341
0.1785	-44.11011
0.179	60.62622
0.1795	157.2052
0.18	216.52222
0.1805	242.10205
0.181	247.03674
0.1815	227.70081
0.182	187.82043
0.1825	146.73157
0.183	113.90076
0.1835	81.87561
0.184	70.29419
0.1845	60.22339
0.185	49.64905
0.1855	34.64355
0.186	12.08496
0.1865	-5.23682
0.187	-5.33752
0.1875	-8.45947
0.188	-16.21399
0.1885	-16.71753
0.189	-30.11169
0.1895	-39.27612
0.19	-57.70569
0.1905	-64.65454
0.191	-67.27295
0.1915	-60.3241
0.192	-45.72144
0.1925	-26.78833
0.193	-20.44373
0.1935	-13.29346
0.194	-3.22266
0.1945	14.40125
0.195	15.71045
0.1955	25.78125
0.196	36.35559
0.1965	26.68762
0.197	8.7616
0.1975	-1.2085
0.198	13.59558
0.1985	37.36267
0.199	50.2533
0.1995	38.47046
0.2	29.80957
0.2005	7.15027
0.201	-30.41382
0.2015	-71.7041
0.202	-90.33508
0.2025	-115.20996
0.203	-137.46643
0.2035	-141.09192
0.204	-142.60254
0.2045	-136.05652
0.205	-101.71509
0.2055	-38.47046
0.206	53.67737
0.2065	150.05493
0.207	227.29797
0.2075	258.21533
0.208	226.29089
0.2085	159.7229
0.209	101.61438
0.2095	70.3949
0.21	50.75684
0.2105	30.51453
0.211	4.63257
0.2115	-21.45081
0.212	-23.66638
0.2125	-14.30054
0.213	1.61133
0.2135	10.0708
0.214	28.09753
0.2145	32.93152
0.215	24.77417
0.2155	31.21948
0.216	33.73718
0.2165	34.54285
0.217	37.06055
0.2175	52.56958
0.218	48.54126
0.2185	41.89453
0.219	35.04639
0.2195	27.19116
0.22	8.66089
0.2205	-5.74036
0.221	-19.33594
0.2215	-26.3855
0.222	-31.21948
0.2225	-49.95117
0.223	-76.84021
0.2235	-107.85828
0.224	-128.80554
0.2245	-158.71582
0.225	-162.74414
0.2255	-149.24927
0.226	-134.64661
0.2265	-98.19031
0.227	-78.55225
0.2275	-66.6687
0.228	-54.78516
0.2285	-23.36426
0.229	5.94177
0.2295	47.13135
0.23	81.7749
0.2305	104.4342
0.231	111.68518
0.2315	88.11951
0.232	48.03772
0.2325	16.81824
0.233	3.52478
0.2335	-5.23682
0.234	-12.18567
0.2345	-12.89062
0.235	-9.76868
0.2355	1.00708
0.236	20.54443
0.2365	24.16992
0.237	22.55859
0.2375	20.84656
0.238	-0.50354
0.2385	-18.53027
0.239	-26.68762
0.2395	-32.42798
0.24	-24.06921
0.2405	6.44531
0.241	44.31152
0.2415	71.7041
0.242	68.48145
0.2425	65.05737
0.243	70.59631
0.2435	79.96216
0.244	97.98889
0.2445	87.71667
0.245	48.84338
0.2455	2.41699
0.246	-33.23364
0.2465	-41.08887
0.247	-27.09045
0.2475	-31.32019
0.248	-41.29028
0.2485	-42.59949
0.249	-51.96533
0.2495	-72.00623
0.25	-81.47278
0.2505	-66.46729
0.251	-41.39099
0.2515	-35.54993
0.252	-34.84497
0.2525	-29.20532
0.253	-23.36426
0.2535	-8.8623
0.254	10.97717
0.2545	48.44055
0.255	87.71667
0.2555	122.56165
0.256	143.71033
0.2565	134.34448
0.257	71.20056
0.2575	11.98425
0.258	-18.73169
0.2585	-47.33276
0.259	-82.47986
0.2595	-109.06677
0.26	-134.74731
0.2605	-141.49475
0.261	-128.70483
0.2615	-72.61047
0.262	13.89771
0.2625	96.37756
0.263	164.35547
0.2635	198.49548
0.264	172.81494
0.2645	122.15881
0.265	87.41455
0.2655	70.99915
0.266	59.61914
0.2665	54.38232
0.267	34.94568
0.2675	21.14868
0.268	5.84106
0.2685	2.5177
0.269	-2.92053
0.2695	-8.45947
0.27	-9.36584
0.2705	-16.11328
0.271	-19.73877
0.2715	-24.27063
0.272	-28.09753
0.2725	-21.65222
0.273	0.80566
0.2735	20.34302
0.274	20.84656
0.2745	23.56567
0.275	10.97717
0.2755	-16.01257
0.276	-37.66479
0.2765	-56.49719
0.277	-78.35083
0.2775	-95.77332
0.278	-97.08252
0.2785	-102.72217
0.279	-95.67261
0.2795	-89.63013
0.28	-69.79065
0.2805	-33.83789
0.281	-0.10071
0.2815	22.76001
0.282	42.59949
0.2825	50.15259
0.283	48.74268
0.2835	51.96533
0.284	69.58923
0.2845	87.31384
0.285	90.83862
0.2855	95.77332
0.286	78.25012
0.2865	76.13525
0.287	58.51135
0.2875	30.01099
0.288	-4.63257
0.2885	-10.0708
0.289	4.02832
0.2895	3.22266
0.29	-2.31628
0.2905	-15.1062
0.291	-19.63806
0.2915	1.10779
0.292	30.11169
0.2925	84.19189
0.293	121.9574
0.2935	141.89758
0.294	165.76538
0.2945	146.83228
0.295	109.3689
0.2955	82.07703
0.296	66.06445
0.2965	54.78516
0.297	47.93701
0.2975	30.41382
0.298	12.89062
0.2985	2.41699
0.299	-2.81982
0.2995	-6.14319
0.3	-14.30054
0.3005	-12.78992
0.301	-18.63098
0.3015	-26.88904
0.302	-18.93311
0.3025	-19.83948
0.303	-22.25647
0.3035	-19.03381
0.304	-21.04797
0.3045	-25.07629
0.305	-34.94568
0.3055	-47.13135
0.306	-48.03772
0.3065	-55.2887
0.307	-49.24622
0.3075	-29.70886
0.308	-8.8623
0.3085	5.94177
0.309	34.14001
0.3095	74.02039
0.31	75.12817
0.3105	54.78516
0.311	23.76709
0.3115	-21.75293
0.312	-52.26746
0.3125	-68.68286
0.313	-72.9126
0.3135	-73.91968
0.314	-65.3595
0.3145	-52.36816
0.315	-29.80957
0.3155	4.43115
0.316	38.06763
0.3165	78.55225
0.317	100.6073
0.3175	121.15173
0.318	107.85828
0.3185	77.74658
0.319	63.04321
0.3195	39.47754
0.32	36.75842
0.3205	35.95276
0.321	42.90161
0.3215	35.65063
0.322	17.72461
0.3225	-19.73877
0.323	-43.80798
0.3235	-73.01331
0.324	-93.15491
0.3245	-92.34924
0.325	-82.17773
0.3255	-73.91968
0.326	-67.97791
0.3265	-47.43347
0.327	-6.64673
0.3275	44.81506
0.328	107.55615
0.3285	179.66309
0.329	248.04382
0.3295	239.28223
0.33	190.74097
0.3305	134.04236
0.331	94.56482
0.3315	67.17224
0.332	54.48303
0.3325	37.16125
0.333	25.47913
0.3335	15.71045
0.334	3.8269
0.3345	-9.76868
0.335	-27.89612
0.3355	-27.39258
0.336	-27.49329
0.3365	-26.28479
0.337	-14.80408
0.3375	2.01416
0.338	24.47205
0.3385	40.58533
0.339	56.09436
0.3395	73.71826
0.34	75.02747
0.3405	53.77808
0.341	40.78674
0.3415	21.45081
0.342	12.78992
0.3425	11.07788
0.343	5.33752
0.3435	1.91345
0.344	0.90637
0.3445	-1.61133
0.345	1.2085
0.3455	1.51062
0.346	0.10071
0.3465	9.16443
0.347	4.63257
0.3475	6.94885
0.348	9.86938
0.3485	13.19275
0.349	22.35718
0.3495	37.16125
0.35	32.42798
0.3505	35.04639
0.351	26.58691
0.3515	20.74585
0.352	25.47913
0.3525	22.45789
0.353	25.68054
0.3535	26.88904
0.354	25.07629
0.3545	21.75293
0.355	11.98425
0.3555	8.25806
0.356	3.12195
0.3565	1.10779
0.357	0.40283
0.3575	4.02832
0.358	7.5531
0.3585	6.54602
0.359	3.92761
0.3595	2.92053
0.36	-0.20142
0.3605	1.91345
0.361	-1.71204
0.3615	-2.61841
0.362	-1.71204
0.3625	-1.00708
0.363	-3.8269
0.3635	-2.11487
0.364	-0.70496
0.3645	-1.91345
0.365	4.83398
0.3655	11.38
0.366	13.69629
0.3665	1.51062
0.367	-4.22974
0.3675	-9.16443
0.368	1.40991
0.3685	8.15735
0.369	17.72461
0.3695	39.07471
0.37	60.72693
0.3705	53.67737
0.371	41.59241
0.3715	39.77966
0.372	43.40515
0.3725	37.16125
0.373	35.85205
0.3735	33.03223
0.374	14.19983
0.3745	10.57434
0.375	2.31628
0.3755	-1.71204
0.376	-7.65381
0.3765	-9.16443
0.377	-16.21399
0.3775	-20.84656
0.378	-16.51611
0.3785	-13.09204
0.379	-15.71045
0.3795	-10.0708
0.38	-14.70337
0.3805	-3.52478
0.381	5.53894
0.3815	10.37292
0.382	10.97717
0.3825	4.43115
0.383	-3.32336
0.3835	-2.61841
0.384	-4.63257
0.3845	-6.94885
0.385	-8.96301
0.3855	-1.91345
0.386	1.91345
0.3865	2.01416
0.387	-2.11487
0.3875	-5.0354
0.388	-9.36584
0.3885	-20.24231
0.389	-36.25488
0.3895	-42.09595
0.39	-56.19507
0.3905	-65.76233
0.391	-71.60339
0.3915	-71.50269
0.392	-69.48853
0.3925	-48.84338
0.393	-29.10461
0.3935	1.51062
0.394	18.12744
0.3945	36.55701
0.395	57.30286
0.3955	87.41455
0.396	105.03845
0.3965	111.48376
0.397	108.66394
0.3975	103.52783
0.398	82.27844
0.3985	64.151
0.399	44.71436
0.3995	40.78674
0.4	34.54285
0.4005	21.45081
0.401	19.23523
0.4015	26.08337
0.402	22.35718
0.4025	20.64514
0.403	25.37842
0.4035	24.47205
0.404	35.2478
0.4045	31.82373
0.405	23.76709
0.4055	10.47363
0.406	6.84814
0.4065	3.7262
0.407	0.40283
0.4075	-2.5177
0.408	-5.94177
0.4085	-1.91345
0.409	-1.3092
0.4095	0.30212
0.41	-0.60425
0.4105	-2.5177
0.411	6.94885
0.4115	12.68921
0.412	23.46497
0.4125	29.40674
0.413	30.11169
0.4135	35.65063
0.414	39.77966
0.4145	44.31152
0.415	48.74268
0.4155	38.57117
0.416	32.02515
0.4165	24.97559
0.417	32.62939
0.4175	46.32568
0.418	58.20923
0.4185	70.79773
0.419	76.13525
0.4195	77.34375
0.42	75.4303
0.4205	63.64746
0.421	51.15967
0.4215	31.52161
0.422	19.63806
0.4225	9.16443
0.423	-5.84106
0.4235	-18.63098
0.424	-28.09753
0.4245	-39.07471
0.425	-45.11719
0.4255	-49.74976
0.426	-51.5625
0.4265	-58.00781
0.427	-52.67029
0.4275	-51.26038
0.428	-51.26038
0.4285	-45.3186
0.429	-26.68762
0.4295	-6.04248
0.43	-5.43823
0.4305	-1.61133
0.431	1.00708
0.4315	5.33752
0.432	-0.90637
0.4325	-2.81982
0.433	-1.81274
0.4335	0.20142
0.434	4.43115
0.4345	11.17859
0.435	9.06372
0.4355	15.30762
0.436	15.00549
0.4365	12.38708
0.437	15.91187
0.4375	20.84656
0.438	18.73169
0.4385	24.67346
0.439	26.08337
0.4395	31.01807
0.44	35.85205
0.4405	44.21082
0.441	47.8363
0.4415	47.23206
0.442	45.11719
0.4425	42.09595
0.443	40.98816
0.4435	36.85913
0.444	33.9386
0.4445	24.57275
0.445	18.8324
0.4455	3.8269
0.446	-0.40283
0.4465	-8.35876
0.447	-34.94568
0.4475	-67.67578
0.448	-87.91809
0.4485	-109.3689
0.449	-116.61987
0.4495	-125.48218
0.45	-125.98572
0.4505	-131.32324
0.451	-116.31775
0.4515	-99.60022
0.452	-75.63171
0.4525	-39.07471
0.453	-9.06372
0.4535	18.42957
0.454	41.69312
0.4545	66.76941
0.455	64.95667
0.4555	67.67578
0.456	72.40906
0.4565	59.71985
0.457	57.9071
0.4575	54.48303
0.458	45.11719
0.4585	37.26196
0.459	31.82373
0.4595	35.2478
0.46	33.83789
0.4605	33.63647
0.461	29.00391
0.4615	24.16992
0.462	28.39966
0.4625	16.91895
0.463	20.74585
0.4635	11.98425
0.464	11.78284
0.4645	14.90479
0.465	14.90479
0.4655	8.25806
0.466	13.99841
0.4665	11.88354
0.467	6.3446
0.4675	9.36584
0.468	6.3446
0.4685	6.14319
0.469	9.86938
0.4695	7.35168
0.47	5.23682
0.4705	7.65381
0.471	4.33044
0.4715	4.63257
0.472	1.51062
0.4725	4.22974
0.473	4.53186
0.4735	4.43115
0.474	6.74744
0.4745	-0.10071
0.475	5.23682
0.4755	-1.81274
0.476	-3.92761
0.4765	-0.60425
0.477	-5.33752
0.4775	-2.61841
0.478	-2.41699
0.4785	-2.92053
0.479	-1.00708
0.4795	0.70496
0.48	6.64673
0.4805	3.22266
0.481	10.17151
0.4815	12.28638
0.482	3.8269
0.4825	13.39417
0.483	8.96301
0.4835	13.29346
0.484	21.75293
0.4845	16.01257
0.485	15.00549
0.4855	9.16443
0.486	6.3446
0.4865	5.74036
0.487	6.14319
0.4875	10.27222
0.488	10.17151
0.4885	13.49487
0.489	6.2439
0.4895	12.38708
0.49	6.3446
0.4905	12.5885
0.491	14.30054
0.4915	10.37292
0.492	8.8623
0.4925	7.25098
0.493	7.95593
0.4935	4.73328
0.494	-0.30212
0.4945	-3.32336
0.495	1.3092
0.4955	-2.41699
0.496	-6.04248
0.4965	-3.22266
0.497	-5.23682
0.4975	-7.45239
0.498	-6.04248
0.4985	-1.2085
0.499	-4.33044
0.4995	-4.73328
0.5	-0.40283
0.5005	2.81982
0.501	9.46655
0.5015	14.80408
0.502	32.62939
0.5025	45.11719
0.503	49.24622
0.5035	43.70728
0.504	41.69312
0.5045	39.47754
0.505	33.33435
0.5055	33.9386
0.506	42.59949
0.5065	36.4563
0.507	32.12585
0.5075	31.62231
0.508	25.78125
0.5085	24.16992
0.509	26.3855
0.5095	25.57983
0.51	22.15576
0.5105	13.797
0.511	6.3446
0.5115	5.23682
0.512	5.94177
0.5125	9.66797
0.513	9.66797
0.5135	-2.92053
0.514	-13.797
0.5145	-28.39966
0.515	-40.68604
0.5155	-49.54834
0.516	-47.33276
0.5165	-47.43347
0.517	-34.44214
0.5175	-26.78833
0.518	-22.45789
0.5185	-15.20691
0.519	-11.68213
0.5195	-6.74744
0.52	-1.40991
0.5205	7.65381
0.521	13.19275
0.5215	13.797
0.522	17.82532
0.5225	13.89771
0.523	12.89062
0.5235	2.5177
0.524	-5.63965
0.5245	-3.22266
0.525	-1.61133
0.5255	0.50354
0.526	1.61133
0.5265	8.15735
0.527	18.8324
0.5275	20.54443
0.528	32.7301
0.5285	38.47046
0.529	31.72302
0.5295	25.98267
0.53	20.44373
0.5305	19.94019
0.531	24.77417
0.5315	18.8324
0.532	28.39966
0.5325	37.86621
0.533	42.19666
0.5335	47.7356
0.534	51.36108
0.5345	55.79224
0.535	57.70569
0.5355	61.83472
0.536	62.74109
0.5365	54.78516
0.537	53.37524
0.5375	49.85046
0.538	41.18958
0.5385	30.61523
0.539	28.70178
0.5395	28.60107
0.54	19.63806
0.5405	11.98425
0.541	-10.87646
0.5415	-32.02515
0.542	-44.91577
0.5425	-48.84338
0.543	-52.06604
0.5435	-51.86462
0.544	-50.2533
0.5445	-36.35559
0.545	-26.28479
0.5455	-17.6239
0.546	-8.66089
0.5465	-4.93469
0.547	-3.32336
0.5475	0.50354
0.548	5.0354
0.5485	4.02832
0.549	2.21558
0.5495	2.11487
0.55	8.45947
0.5505	13.59558
0.551	9.97009
0.5515	26.78833
0.552	27.19116
0.5525	19.53735
0.553	13.39417
0.5535	18.93311
0.554	20.04089
0.5545	19.23523
0.555	21.3501
0.5555	18.8324
0.556	14.09912
0.5565	16.01257
0.557	15.81116
0.5575	18.12744
0.558	17.22107
0.5585	14.30054
0.559	9.56726
0.5595	3.7262
0.56	5.84106
0.5605	5.84106
0.561	4.73328
0.5615	7.45239
0.562	10.47363
0.5625	7.65381
0.563	6.84814
0.5635	7.85522
0.564	7.15027
0.5645	9.76868
0.565	13.29346
0.5655	13.59558
0.566	12.5885
0.5665	18.93311
0.567	15.71045
0.5675	16.51611
0.568	25.47913
0.5685	25.98267
0.569	24.67346
0.5695	26.18408
0.57	27.89612
0.5705	23.66638
0.571	22.96143
0.5715	18.73169
0.572	16.11328
0.5725	8.66089
0.573	0.30212
0.5735	-3.32336
0.574	-3.02124
0.5745	-3.12195
0.575	-1.3092
0.5755	-0.30212
0.576	-9.36584
0.5765	-9.56726
0.577	-7.65381
0.5775	-6.04248
0.578	-8.25806
0.5785	-3.42407
0.579	-3.52478
0.5795	-10.27222
0.58	-11.98425
0.5805	-16.01257
0.581	-12.78992
0.5815	-10.47363
0.582	-7.5531
0.5825	-4.53186
0.583	0.40283
0.5835	-0.80566
0.584	1.00708
0.5845	-1.51062
0.585	-1.71204
0.5855	-5.74036
0.586	-3.32336
0.5865	0.60425
0.587	5.94177
0.5875	6.54602
0.588	4.12903
0.5885	-1.40991
0.589	1.2085
0.5895	12.5885
0.59	13.49487
0.5905	20.44373
0.591	13.49487
0.5915	12.28638
0.592	12.5885
0.5925	15.00549
0.593	19.23523
0.5935	24.97559
0.594	27.79541
0.5945	28.70178
0.595	23.16284
0.5955	20.04089
0.596	15.40833
0.5965	6.64673
0.597	12.89062
0.5975	5.84106
0.598	3.92761
0.5985	0.60425
0.599	-2.92053
0.5995	1.2085
0.6	2.31628
0.6005	7.65381
0.601	-2.92053
0.6015	1.00708
0.602	10.37292
0.6025	29.10461
0.603	40.78674
0.6035	47.23206
0.604	42.59949
0.6045	38.06763
0.605	30.31311
0.6055	23.56567
0.606	11.48071
0.6065	15.40833
0.607	17.22107
0.6075	16.61682
0.608	21.45081
0.6085	32.42798
0.609	38.36975
0.6095	36.95984
0.61	29.40674
0.6105	22.86072
0.611	25.27771
0.6115	22.6593
0.612	17.32178
0.6125	10.17151
0.613	-3.92761
0.6135	-15.60974
0.614	-28.60107
0.6145	-26.18408
0.615	-18.93311
0.6155	-21.14868
0.616	-17.22107
0.6165	-10.0708
0.617	-12.99133
0.6175	-11.88354
0.618	-6.64673
0.6185	-5.43823
0.619	-11.78284
0.6195	-11.2793
0.62	-10.67505
0.6205	-13.59558
0.621	-7.75452
0.6215	-14.70337
0.622	-7.35168
0.6225	-14.60266
0.623	-15.40833
0.6235	-18.42957
0.624	-19.23523
0.6245	-13.49487
0.625	-7.45239
0.6255	1.40991
0.626	4.53186
0.6265	7.5531
0.627	2.71912
0.6275	-1.71204
0.628	2.01416
0.6285	10.87646
0.629	19.13452
0.6295	25.88196
0.63	32.7301
0.6305	43.80798
0.631	45.62073
0.6315	55.79224
0.632	61.23047
0.6325	59.51843
0.633	58.10852
0.6335	53.07312
0.634	56.29578
0.6345	48.33984
0.635	52.46887
0.6355	51.86462
0.636	49.85046
0.6365	51.05896
0.637	53.37524
0.6375	47.13135
0.638	49.44763
0.6385	43.00232
0.639	38.36975
0.6395	40.2832
0.64	37.66479
0.6405	32.32727
0.641	28.19824
0.6415	21.95435
0.642	28.19824
0.6425	27.19116
0.643	23.8678
0.6435	16.01257
0.644	12.99133
0.6445	18.8324
0.645	14.70337
0.6455	17.92603
0.646	16.61682
0.6465	10.27222
0.647	14.30054
0.6475	14.40125
0.648	6.44531
0.6485	12.89062
0.649	7.75452
0.6495	0.10071
0.65	0.50354
0.6505	-3.02124
0.651	-5.63965
0.6515	-13.797
0.652	-18.53027
0.6525	-16.11328
0.653	-6.14319
0.6535	-0.40283
0.654	14.70337
0.6545	14.50195
0.655	10.0708
0.6555	12.78992
0.656	6.74744
0.6565	8.25806
0.657	11.48071
0.6575	16.01257
0.658	13.59558
0.6585	11.88354
0.659	13.69629
0.6595	16.21399
0.66	11.38
0.6605	22.05505
0.661	21.65222
0.6615	21.75293
0.662	18.12744
0.6625	18.93311
0.663	16.21399
0.6635	17.22107
0.664	23.46497
0.6645	27.39258
0.665	28.19824
0.6655	27.39258
0.666	24.47205
0.6665	29.91028
0.667	27.79541
0.6675	39.37683
0.668	37.06055
0.6685	44.0094
0.669	48.74268
0.6695	57.20215
0.67	58.91418
0.6705	57.60498
0.671	64.25171
0.6715	65.96375
0.672	68.88428
0.6725	68.28003
0.673	71.60339
0.6735	74.72534
0.674	77.34375
0.6745	73.71826
0.675	67.07153
0.6755	61.02905
0.676	54.88586
0.6765	44.91577
0.677	35.54993
0.6775	26.48621
0.678	22.15576
0.6785	16.21399
0.679	10.77576
0.6795	8.35876
0.68	3.12195
0.6805	1.10779
0.681	1.81274
0.6815	-9.26514
0.682	-14.80408
0.6825	-24.87488
0.683	-27.89612
0.6835	-31.52161
0.684	-31.62231
0.6845	-36.15417
0.685	-39.98108
0.6855	-35.14709
0.686	-34.34143
0.6865	-26.48621
0.687	-12.28638
0.6875	-14.40125
0.688	-18.22815
0.6885	-18.12744
0.689	-17.32178
0.6895	-12.28638
0.69	-9.26514
0.6905	-13.797
0.691	-7.25098
0.6915	-7.15027
0.692	-4.83398
0.6925	-2.01416
0.693	3.32336
0.6935	14.19983
0.694	25.37842
0.6945	28.29895
0.695	27.99683
0.6955	33.73718
0.696	30.01099
0.6965	38.57117
0.697	37.7655
0.6975	36.4563
0.698	42.29736
0.6985	32.7301
0.699	34.03931
0.6995	35.2478
0.7	39.07471
0.7005	39.27612
0.701	43.60657
0.7015	47.43347
0.702	37.46338
0.7025	36.65771
0.703	41.79382
0.7035	42.09595
0.704	43.00232
0.7045	43.30444
0.705	43.80798
0.7055	46.42639
0.706	39.37683
0.7065	46.42639
0.707	40.1825
0.7075	45.62073
0.708	43.10303
0.7085	42.7002
0.709	41.79382
0.7095	35.04639
0.71	29.10461
0.7105	29.00391
0.711	32.62939
0.7115	28.39966
0.712	26.28479
0.7125	32.83081
0.713	35.65063
0.7135	36.65771
0.714	36.95984
0.7145	44.41223
0.715	46.12427
0.7155	44.31152
0.716	43.20374
0.7165	38.16833
0.717	35.65063
0.7175	40.58533
0.718	39.27612
0.7185	36.4563
0.719	39.67896
0.7195	38.974
0.72	38.06763
0.7205	39.77966
0.721	36.65771
0.7215	31.32019
0.722	33.63647
0.7225	36.4563
0.723	32.42798
0.7235	36.55701
0.724	34.34143
0.7245	33.63647
0.725	31.11877
0.7255	34.44214
0.726	37.56409
0.7265	31.92444
0.727	31.4209
0.7275	32.32727
0.728	34.03931
0.7285	40.58533
0.729	37.36267
0.7295	35.54993
0.73	34.54285
0.7305	36.65771
0.731	29.91028
0.7315	27.99683
0.732	29.70886
0.7325	23.96851
0.733	17.12036
0.7335	18.53027
0.734	17.92603
0.7345	12.68921
0.735	12.89062
0.7355	12.48779
0.736	12.38708
0.7365	8.7616
0.737	9.16443
0.7375	16.21399
0.738	28.39966
0.7385	37.46338
0.739	45.41931
0.7395	45.62073
0.74	44.51294
0.7405	44.31152
0.741	37.26196
0.7415	33.53577
0.742	26.98975
0.7425	24.37134
0.743	24.37134
0.7435	25.57983
0.744	20.74585
0.7445	24.77417
0.745	26.98975
0.7455	36.15417
0.746	43.70728
0.7465	58.91418
0.747	63.44604
0.7475	60.4248
0.748	56.79932
0.7485	60.3241
0.749	53.17383
0.7495	45.92285
0.75	34.03931
0.7505	21.24939
0.751	11.17859
0.7515	1.3092
0.752	-0.20142
0.7525	-3.42407
0.753	-5.43823
0.7535	-3.42407
0.754	-0.90637
0.7545	-5.43823
0.755	-5.13611
0.7555	-4.33044
0.756	5.84106
0.7565	15.30762
0.757	19.63806
0.7575	36.65771
0.758	48.84338
0.7585	52.46887
0.759	49.85046
0.7595	50.2533
0.76	47.03064
0.7605	43.30444
0.761	47.8363
0.7615	44.0094
0.762	42.09595
0.7625	38.87329
0.763	32.7301
0.7635	31.82373
0.764	33.83789
0.7645	27.09045
0.765	23.16284
0.7655	22.96143
0.766	20.94727
0.7665	23.76709
0.767	16.91895
0.7675	9.86938
0.768	0.50354
0.7685	1.81274
0.769	-3.8269
0.7695	-0.80566
0.77	0.30212
0.7705	-1.3092
0.771	-3.32336
0.7715	-3.52478
0.772	-13.49487
0.7725	-20.74585
0.773	-34.44214
0.7735	-38.77258
0.774	-43.00232
0.7745	-54.68445
0.775	-62.43896
0.7755	-73.91968
0.776	-70.3949
0.7765	-68.07861
0.777	-62.8418
0.7775	-56.29578
0.778	-44.81506
0.7785	-37.16125
0.779	-35.75134
0.7795	-23.36426
0.78	-7.45239
0.7805	9.86938
0.781	26.98975
0.7815	49.54834
0.782	58.20923
0.7825	65.05737
0.783	71.20056
0.7835	72.81189
0.784	72.40906
0.7845	61.02905
0.785	42.49878
0.7855	41.69312
0.786	32.32727
0.7865	16.61682
0.787	-0.40283
0.7875	-6.94885
0.788	-12.28638
0.7885	-7.15027
0.789	0.80566
0.7895	-2.81982
0.79	-7.45239
0.7905	-2.31628
0.791	-13.59558
0.7915	-25.68054
0.792	-45.92285
0.7925	-48.84338
0.793	-45.62073
0.7935	-43.00232
0.794	-32.22656
0.7945	-21.45081
0.795	-10.37292
0.7955	-7.25098
0.796	-2.61841
0.7965	6.54602
0.797	14.09912
0.7975	26.98975
0.798	49.34692
0.7985	77.24304
0.799	96.8811
0.7995	98.19031
0.8	94.66553
0.8005	82.78198
0.801	74.72534
0.8015	67.07153
0.802	60.92834
0.8025	50.45471
0.803	42.7002
0.8035	36.25488
0.804	34.94568
0.8045	25.37842
0.805	13.69629
0.8055	9.16443
0.806	13.99841
0.8065	10.27222
0.807	9.56726
0.8075	0.40283
0.808	-12.08496
0.8085	-23.06213
0.809	-27.49329
0.8095	-28.39966
0.81	-41.18958
0.8105	-53.77808
0.811	-63.04321
0.8115	-67.37366
0.812	-62.9425
0.8125	-63.94958
0.813	-56.09436
0.8135	-49.74976
0.814	-39.98108
0.8145	-50.2533
0.815	-51.05896
0.8155	-43.60657
0.816	-44.61365
0.8165	-32.32727
0.817	-31.82373
0.8175	-26.68762
0.818	-26.88904
0.8185	-23.8678
0.819	-25.37842
0.8195	-21.04797
0.82	-18.8324
0.8205	-22.25647
0.821	-15.81116
0.8215	-15.50903
0.822	-16.21399
0.8225	-15.71045
0.823	-16.81824
0.8235	-10.17151
0.824	-13.29346
0.8245	-13.89771
0.825	-6.3446
0.8255	6.04248
0.826	16.71753
0.8265	26.48621
0.827	28.19824
0.8275	17.01965
0.828	9.76868
0.8285	9.06372
0.829	13.09204
0.8295	20.84656
0.83	20.44373
0.8305	12.48779
0.831	14.80408
0.8315	18.73169
0.832	14.40125
0.8325	17.72461
0.833	8.25806
0.8335	2.11487
0.834	-14.90479
0.8345	-23.36426
0.835	-33.33435
0.8355	-38.26904
0.836	-35.44922
0.8365	-39.27612
0.837	-40.58533
0.8375	-35.14709
0.838	-30.51453
0.8385	-36.55701
0.839	-28.50037
0.8395	-27.6947
0.84	-28.70178
0.8405	-29.30603
0.841	-33.23364
0.8415	-33.63647
0.842	-28.70178
0.8425	-30.61523
0.843	-30.91736
0.8435	-33.23364
0.844	-32.02515
0.8445	-31.32019
0.845	-33.63647
0.8455	-22.05505
0.846	-35.34851
0.8465	-26.08337
0.847	-14.30054
0.8475	-2.71912
0.848	1.00708
0.8485	8.05664
0.849	6.3446
0.8495	19.13452
0.85	28.09753
0.8505	31.11877
0.851	40.88745
0.8515	39.37683
0.852	31.11877
0.8525	27.6947
0.853	35.44922
0.8535	48.33984
0.854	48.13843
0.8545	45.2179
0.855	38.974
0.8555	31.01807
0.856	27.19116
0.8565	18.63098
0.857	23.96851
0.8575	17.92603
0.858	9.86938
0.8585	7.65381
0.859	5.74036
0.8595	9.86938
0.86	9.36584
0.8605	9.56726
0.861	6.44531
0.8615	6.74744
0.862	-1.3092
0.8625	-2.81982
0.863	2.21558
0.8635	-2.81982
0.864	-2.71912
0.8645	-8.05664
0.865	-8.56018
0.8655	-8.05664
0.866	-14.50195
0.8665	-18.53027
0.867	-19.43665
0.8675	-17.82532
0.868	-13.99841
0.8685	-8.45947
0.869	-10.67505
0.8695	-9.97009
0.87	-7.04956
0.8705	-8.56018
0.871	-6.84814
0.8715	-7.45239
0.872	-5.94177
0.8725	-8.25806
0.873	-2.21558
0.8735	2.11487
0.874	-0.20142
0.8745	-0.80566
0.875	-2.21558
0.8755	-4.33044
0.876	-3.7262
0.8765	-1.40991
0.877	-1.2085
0.8775	0.20142
0.878	5.13611
0.8785	7.85522
0.879	22.6593
0.8795	21.85364
0.88	20.44373
0.8805	21.04797
0.881	24.47205
0.8815	24.57275
0.882	24.87488
0.8825	26.08337
0.883	30.41382
0.8835	29.10461
0.884	35.14709
0.8845	32.42798
0.885	37.26196
0.8855	34.84497
0.886	36.25488
0.8865	27.39258
0.887	22.86072
0.8875	17.12036
0.888	13.59558
0.8885	1.3092
0.889	-4.33044
0.8895	-20.44373
0.89	-31.32019
0.8905	-28.70178
0.891	-36.75842
0.8915	-44.0094
0.892	-53.17383
0.8925	-56.69861
0.893	-59.1156
0.8935	-60.52551
0.894	-64.35242
0.8945	-71.40198
0.895	-71.20056
0.8955	-67.97791
0.896	-67.67578
0.8965	-61.23047
0.897	-57.00073
0.8975	-53.47595
0.898	-35.75134
0.8985	-16.01257
0.899	-5.53894
0.8995	6.94885
0.9	8.25806
0.9005	7.25098
0.901	0.70496
0.9015	-4.63257
0.902	-8.8623
0.9025	-12.28638
0.903	-15.50903
0.9035	-16.71753
0.904	-22.6593
0.9045	-17.01965
0.905	-13.59558
0.9055	-22.6593
0.906	-19.23523
0.9065	-4.33044
0.907	12.5885
0.9075	24.37134
0.908	20.54443
0.9085	12.99133
0.909	10.47363
0.9095	-4.02832
0.91	-6.04248
0.9105	-17.22107
0.911	-21.75293
0.9115	-15.81116
0.912	-15.40833
0.9125	-13.59558
0.913	-15.40833
0.9135	-18.93311
0.914	-22.05505
0.9145	-11.58142
0.915	-12.18567
0.9155	-21.24939
0.916	-27.89612
0.9165	-28.60107
0.917	-20.1416
0.9175	-12.99133
0.918	5.13611
0.9185	19.53735
0.919	18.42957
0.9195	7.04956
0.92	2.81982
0.9205	-1.71204
0.921	2.01416
0.9215	7.35168
0.922	14.70337
0.9225	25.37842
0.923	16.3147
0.9235	16.21399
0.924	10.0708
0.9245	15.91187
0.925	15.60974
0.9255	16.71753
0.926	17.12036
0.9265	15.50903
0.927	12.18567
0.9275	10.47363
0.928	12.18567
0.9285	9.16443
0.929	2.21558
0.9295	-6.54602
0.93	-8.56018
0.9305	-20.1416
0.931	-22.35718
0.9315	-29.30603
0.932	-26.98975
0.9325	-32.22656
0.933	-28.09753
0.9335	-35.34851
0.934	-30.61523
0.9345	-27.6947
0.935	-24.97559
0.9355	-12.89062
0.936	-5.53894
0.9365	4.43115
0.937	19.43665
0.9375	20.24231
0.938	24.97559
0.9385	29.91028
0.939	29.70886
0.9395	31.11877
0.94	30.2124
0.9405	18.63098
0.941	18.8324
0.9415	15.71045
0.942	11.58142
0.9425	13.99841
0.943	16.3147
0.9435	14.30054
0.944	11.48071
0.9445	15.1062
0.945	19.63806
0.9455	19.23523
0.946	20.24231
0.9465	24.16992
0.947	26.28479
0.9475	23.66638
0.948	19.83948
0.9485	20.44373
0.949	21.65222
0.9495	19.23523
0.95	23.96851
0.9505	26.08337
0.951	22.96143
0.9515	22.96143
0.952	18.73169
0.9525	9.86938
0.953	6.54602
0.9535	5.33752
0.954	2.92053
0.9545	7.85522
0.955	8.05664
0.9555	14.60266
0.956	7.85522
0.9565	3.52478
0.957	-14.30054
0.9575	-12.18567
0.958	-7.35168
0.9585	-4.63257
0.959	-13.09204
0.9595	-3.42407
0.96	-0.10071
0.9605	3.8269
0.961	1.51062
0.9615	2.71912
0.962	0.80566
0.9625	-3.12195
0.963	-3.02124
0.9635	-6.74744
0.964	-5.63965
0.9645	-5.0354
0.965	-3.22266
0.9655	-5.63965
0.966	-2.21558
0.9665	-9.76868
0.967	-3.8269
0.9675	-6.54602
0.968	-9.26514
0.9685	-7.75452
0.969	-2.01416
0.9695	6.2439
0.97	12.78992
0.9705	21.04797
0.971	18.32886
0.9715	18.42957
0.972	9.36584
0.9725	2.81982
0.973	-4.33044
0.9735	-10.57434
0.974	-13.89771
0.9745	-14.70337
0.975	-23.96851
0.9755	-23.06213
0.976	-24.57275
0.9765	-21.14868
0.977	-18.02673
0.9775	-18.73169
0.978	-12.38708
0.9785	-20.44373
0.979	-13.39417
0.9795	-5.43823
0.98	-3.7262
0.9805	-1.2085
0.981	1.71204
0.9815	13.99841
0.982	13.39417
0.9825	9.66797
0.983	13.49487
0.9835	7.35168
0.984	11.88354
0.9845	24.47205
0.985	45.82214
0.9855	69.28711
0.986	80.06287
0.9865	78.45154
0.987	60.3241
0.9875	46.72852
0.988	39.37683
0.9885	37.26196
0.989	32.93152
0.9895	24.27063
0.99	23.76709
0.9905	14.80408
0.991	17.82532
0.9915	19.33594
0.992	14.90479
0.9925	8.7616
0.993	10.47363
0.9935	4.02832
0.994	4.93469
0.9945	9.46655
0.995	7.95593
0.9955	7.15027
0.996	4.12903
0.9965	5.33752
0.997	-1.81274
0.9975	-4.12903
0.998	0.30212
0.9985	3.02124
0.999	5.0354
0.9995	8.7616
1	13.99841
1.0005	19.03381
1.001	14.50195
1.0015	9.86938
1.002	8.7616
1.0025	11.98425
1.003	7.65381
1.0035	8.96301
1.004	16.11328
1.0045	19.13452
1.005	24.87488
1.0055	25.98267
1.006	22.35718
1.0065	24.77417
1.007	23.36426
1.0075	23.66638
1.008	33.23364
1.0085	36.15417
1.009	37.06055
1.0095	33.03223
1.01	31.11877
1.0105	30.01099
1.011	26.3855
1.0115	21.14868
1.012	15.71045
1.0125	14.09912
1.013	12.38708
1.0135	1.00708
1.014	1.40991
1.0145	4.83398
1.015	-1.61133
1.0155	-7.35168
1.016	-8.35876
1.0165	-20.24231
1.017	-23.8678
1.0175	-31.32019
1.018	-37.36267
1.0185	-38.87329
1.019	-38.16833
1.0195	-43.70728
1.02	-54.18091
1.0205	-60.12268
1.021	-60.12268
1.0215	-63.94958
1.022	-67.47437
1.0225	-66.56799
1.023	-59.31702
1.0235	-50.75684
1.024	-46.82922
1.0245	-31.01807
1.025	-33.83789
1.0255	-31.72302
1.026	-28.80249
1.0265	-23.96851
1.027	-13.09204
1.0275	-7.85522
1.028	-4.02832
1.0285	3.8269
1.029	3.12195
1.0295	7.15027
1.03	10.47363
1.0305	10.27222
1.031	8.15735
1.0315	6.84814
1.032	3.42407
1.0325	7.5531
1.033	1.51062
1.0335	-2.92053
1.034	-3.42407
1.0345	-5.74036
1.035	-8.05664
1.0355	-4.33044
1.036	-3.7262
1.0365	-6.2439
1.037	4.02832
1.0375	12.99133
1.038	27.49329
1.0385	49.54834
1.039	61.12976
1.0395	68.38074
1.04	77.74658
1.0405	83.88977
1.041	90.5365
1.0415	92.04712
1.042	91.44287
1.0425	87.61597
1.043	88.42163
1.0435	71.7041
1.044	65.66162
1.0445	64.151
1.045	47.53418
1.0455	41.08887
1.046	31.11877
1.0465	27.6947
1.047	24.87488
1.0475	16.81824
1.048	8.8623
1.0485	-4.83398
1.049	-13.99841
1.0495	-20.94727
1.05	-22.45789
1.0505	-19.23523
1.051	-25.57983
1.0515	-41.79382
1.052	-54.58374
1.0525	-58.00781
1.053	-66.46729
1.0535	-62.13684
1.054	-61.33118
1.0545	-68.58215
1.055	-58.61206
1.0555	-53.77808
1.056	-43.20374
1.0565	-33.03223
1.057	-33.13293
1.0575	-25.27771
1.058	-26.78833
1.0585	-29.00391
1.059	-24.47205
1.0595	-23.76709
1.06	-23.76709
1.0605	-18.63098
1.061	-18.32886
1.0615	-18.73169
1.062	-19.23523
1.0625	-17.12036
1.063	-18.42957
1.0635	-12.89062
1.064	-13.39417
1.0645	-9.76868
1.065	-4.63257
1.0655	-2.92053
1.066	-1.61133
1.0665	4.12903
1.067	19.73877
1.0675	21.95435
1.068	19.73877
1.0685	20.94727
1.069	20.1416
1.0695	27.79541
1.07	20.44373
1.0705	17.6239
1.071	19.53735
1.0715	23.46497
1.072	21.95435
1.0725	21.14868
1.073	24.27063
1.0735	21.24939
1.074	19.63806
1.0745	20.1416
1.075	17.22107
1.0755	21.45081
1.076	14.50195
1.0765	16.01257
1.077	16.3147
1.0775	12.78992
1.078	11.58142
1.0785	8.96301
1.079	10.37292
1.0795	9.56726
1.08	10.27222
1.0805	2.01416
1.081	6.64673
1.0815	2.5177
1.082	-1.51062
1.0825	6.94885
1.083	-1.00708
1.0835	-4.93469
1.084	4.83398
1.0845	5.33752
1.085	5.23682
1.0855	-0.10071
1.086	-1.00708
1.0865	-3.7262
1.087	-8.05664
1.0875	-0.70496
1.088	1.91345
1.0885	1.81274
1.089	3.12195
1.0895	11.17859
1.09	16.71753
1.0905	18.93311
1.091	15.91187
1.0915	16.71753
1.092	12.5885
1.0925	21.55151
1.093	16.61682
1.0935	19.94019
1.094	16.3147
1.0945	10.47363
1.095	8.56018
1.0955	4.12903
1.096	5.94177
1.0965	1.91345
1.097	-6.04248
1.0975	-11.38
1.098	-14.50195
1.0985	-15.81116
1.099	-21.04797
1.0995	-15.71045
1.1	-10.37292
1.1005	-5.43823
1.101	-0.80566
1.1015	0.20142
1.102	1.61133
1.1025	7.25098
1.103	14.09912
1.1035	13.49487
1.104	11.38
1.1045	10.47363
1.105	17.92603
1.1055	20.64514
1.106	13.69629
1.1065	21.3501
1.107	21.24939
1.1075	20.54443
1.108	20.44373
1.1085	20.44373
1.109	16.61682
1.1095	11.48071
1.11	9.66797
1.1105	12.28638
1.111	9.26514
1.1115	13.19275
1.112	17.32178
1.1125	21.85364
1.113	22.6593
1.1135	25.37842
1.114	19.43665
1.1145	22.25647
1.115	18.32886
1.1155	20.34302
1.116	19.33594
1.1165	20.54443
1.117	18.02673
1.1175	9.56726
1.118	7.85522
1.1185	8.15735
1.119	6.44531
1.1195	11.17859
1.12	15.20691
1.1205	15.81116
1.121	11.78284
1.1215	11.07788
1.122	7.85522
1.1225	13.09204
1.123	4.12903
1.1235	0.40283
1.124	-6.14319
1.1245	-11.88354
1.125	-14.30054
1.1255	-21.55151
1.126	-20.1416
1.1265	-13.29346
1.127	-9.36584
1.1275	-5.84106
1.128	-7.25098
1.1285	-5.53894
1.129	-5.53894
1.1295	-6.54602
1.13	-7.85522
1.1305	-5.53894
1.131	-1.61133
1.1315	-3.7262
1.132	-5.63965
1.1325	-7.85522
1.133	-11.2793
1.1335	-14.30054
1.134	-12.28638
1.1345	-6.84814
1.135	-5.33752
1.1355	-6.14319
1.136	-11.38
1.1365	-12.38708
1.137	-18.63098
1.1375	-9.76868
1.138	-13.59558
1.1385	-14.60266
1.139	-10.97717
1.1395	-7.65381
1.14	-10.67505
1.1405	-11.78284
1.141	-7.85522
1.1415	-12.89062
1.142	-8.35876
1.1425	-10.97717
1.143	-9.56726
1.1435	-10.27222
1.144	-12.08496
1.1445	-10.57434
1.145	-8.56018
1.1455	-5.13611
1.146	-4.33044
1.1465	-8.25806
1.147	-6.3446
1.1475	-5.23682
1.148	4.33044
1.1485	11.07788
1.149	17.22107
1.1495	19.43665
1.15	25.98267
1.1505	29.00391
1.151	32.42798
1.1515	35.85205
1.152	30.2124
1.1525	40.08179
1.153	37.66479
1.1535	37.26196
1.154	35.54993
1.1545	38.36975
1.155	36.55701
1.1555	37.86621
1.156	36.85913
1.1565	31.52161
1.157	30.11169
1.1575	27.29187
1.158	26.88904
1.1585	26.28479
1.159	20.64514
1.1595	5.33752
1.16	4.02832
1.1605	3.52478
1.161	-9.16443
1.1615	-15.71045
1.162	-29.40674
1.1625	-40.58533
1.163	-62.23755
1.1635	-72.9126
1.164	-79.96216
1.1645	-84.09119
1.165	-85.80322
1.1655	-71.40198
1.166	-63.24463
1.1665	-53.17383
1.167	-41.08887
1.1675	-34.24072
1.168	-11.68213
1.1685	9.97009
1.169	31.11877
1.1695	61.02905
1.17	90.63721
1.1705	105.03845
1.171	112.69226
1.1715	109.16748
1.172	103.02429
1.1725	96.67969
1.173	82.88269
1.1735	71.80481
1.174	62.03613
1.1745	55.18799
1.175	53.57666
1.1755	48.44055
1.176	31.82373
1.1765	19.23523
1.177	6.54602
1.1775	-5.0354
1.178	-20.44373
1.1785	-34.94568
1.179	-49.14551
1.1795	-62.74109
1.18	-69.28711
1.1805	-71.80481
1.181	-66.76941
1.1815	-68.58215
1.182	-63.24463
1.1825	-69.89136
1.183	-62.9425
1.1835	-56.29578
1.184	-47.93701
1.1845	-34.03931
1.185	-22.25647
1.1855	-22.15576
1.186	-22.96143
1.1865	-16.3147
1.187	-15.30762
1.1875	-17.01965
1.188	-14.19983
1.1885	-11.2793
1.189	-11.68213
1.1895	-7.35168
1.19	-9.36584
1.1905	-9.26514
1.191	-11.78284
1.1915	-10.47363
1.192	-4.43115
1.1925	-3.32336
1.193	-1.00708
1.1935	-11.2793
1.194	-10.17151
1.1945	-12.5885
1.195	-11.07788
1.1955	-15.50903
1.196	-10.77576
1.1965	-14.90479
1.197	-10.37292
1.1975	-5.94177
1.198	-1.61133
1.1985	-8.15735
1.199	-7.25098
1.1995	-0.90637
1.2	-0.90637
1.2005	-2.31628
1.201	-3.8269
1.2015	0.80566
1.202	0.90637
1.2025	2.71912
1.203	1.2085
1.2035	-0.10071
1.204	2.81982
1.2045	4.12903
1.205	1.61133
1.2055	2.11487
1.206	5.74036
1.2065	4.83398
1.207	7.65381
1.2075	5.74036
1.208	9.86938
1.2085	9.26514
1.209	14.40125
1.2095	13.09204
1.21	9.56726
1.2105	11.2793
1.211	7.15027
1.2115	7.25098
1.212	9.76868
1.2125	12.68921
1.213	9.97009
1.2135	11.07788
1.214	8.96301
1.2145	9.26514
1.215	6.64673
1.2155	10.97717
1.216	8.8623
1.2165	3.32336
1.217	8.45947
1.2175	10.57434
1.218	3.7262
1.2185	11.58142
1.219	13.29346
1.2195	13.59558
1.22	13.49487
1.2205	14.50195
1.221	14.60266
1.2215	15.20691
1.222	6.94885
1.2225	11.98425
1.223	21.04797
1.2235	22.55859
1.224	25.37842
1.2245	25.88196
1.225	21.24939
1.2255	15.30762
1.226	10.37292
1.2265	4.02832
1.227	-0.10071
1.2275	-1.2085
1.228	-5.33752
1.2285	-9.76868
1.229	-12.99133
1.2295	-14.50195
1.23	-17.32178
1.2305	-17.82532
1.231	-22.05505
1.2315	-21.55151
1.232	-11.38
1.2325	-13.89771
1.233	-11.2793
1.2335	-4.12903
1.234	4.12903
1.2345	-3.92761
1.235	-3.52478
1.2355	-3.22266
1.236	-1.51062
1.2365	1.3092
1.237	-3.52478
1.2375	-0.80566
1.238	4.33044
1.2385	4.43115
1.239	3.52478
1.2395	5.0354
1.24	8.45947
1.2405	0.80566
1.241	4.73328
1.2415	3.92761
1.242	-0.40283
1.2425	-2.71912
1.243	1.91345
1.2435	0
1.244	-5.53894
1.2445	-1.51062
1.245	0.70496
1.2455	-0.50354
1.246	-6.2439
1.2465	-3.92761
1.247	-2.71912
1.2475	0.40283
1.248	3.02124
1.2485	2.81982
1.249	1.10779
1.2495	6.64673
1.25	14.40125
1.2505	18.22815
1.251	23.46497
1.2515	32.83081
1.252	38.16833
1.2525	45.92285
1.253	53.07312
1.2535	57.40356
1.254	60.62622
1.2545	62.23755
1.255	66.56799
1.2555	60.22339
1.256	58.71277
1.2565	55.79224
1.257	51.5625
1.2575	47.7356
1.258	43.80798
1.2585	46.22498
1.259	42.90161
1.2595	27.99683
1.26	25.47913
1.2605	23.66638
1.261	17.01965
1.2615	11.88354
1.262	3.52478
1.2625	-5.0354
1.263	-11.38
1.2635	-25.37842
1.264	-30.01099
1.2645	-36.55701
1.265	-41.39099
1.2655	-54.38232
1.266	-58.00781
1.2665	-67.37366
1.267	-66.87012
1.2675	-65.86304
1.268	-56.90002
1.2685	-55.69153
1.269	-50.2533
1.2695	-50.2533
1.27	-50.2533
1.2705	-50.2533
1.271	-50.2533
1.2715	-50.2533
1.272	-50.2533
1.2725	-50.2533
1.273	-50.2533
1.2735	-50.2533
1.274	-50.2533
1.2745	-50.2533
1.275	-50.2533
1.2755	-50.2533
1.276	-50.2533
1.2765	-50.2533
1.277	-50.2533
1.2775	-50.2533
1.278	-50.2533
1.2785	-50.2533
1.279	-50.2533
1.2795	1.10779
1.28	-1.51062
1.2805	3.02124
1.281	0.90637
1.2815	6.54602
1.282	6.64673
1.2825	5.13611
1.283	9.46655
1.2835	12.48779
1.284	18.22815
1.2845	16.11328
1.285	9.66797
1.2855	15.40833
1.286	17.92603
1.2865	16.41541
1.287	19.03381
1.2875	14.70337
1.288	11.78284
1.2885	17.72461
1.289	17.72461
1.2895	14.90479
1.29	15.1062
1.2905	12.08496
1.291	11.78284
1.2915	8.7616
1.292	13.09204
1.2925	11.2793
1.293	13.39417
1.2935	18.53027
1.294	9.86938
1.2945	20.44373
1.295	20.94727
1.2955	22.25647
1.296	25.78125
1.2965	34.14001
1.297	37.36267
1.2975	44.21082
1.298	45.3186
1.2985	49.95117
1.299	46.72852
1.2995	45.72144
1.3	47.23206
1.3005	36.25488
1.301	35.44922
1.3015	30.31311
1.302	26.08337
1.3025	26.08337
1.303	28.60107
1.3035	23.8678
1.304	16.91895
1.3045	9.46655
1.305	7.15027
1.3055	8.8623
1.306	7.25098
1.3065	-0.60425
1.307	-1.3092
1.3075	-2.71912
1.308	-3.8269
1.3085	-8.7616
1.309	-6.84814
1.3095	-13.29346
1.31	-7.5531
1.3105	-6.94885
1.311	-9.26514
1.3115	-7.75452
1.312	-6.3446
1.3125	-5.33752
1.313	-0.80566
1.3135	-5.53894
1.314	1.10779
1.3145	-0.60425
1.315	4.43115
1.3155	-3.32336
1.316	-0.50354
1.3165	0.30212
1.317	6.64673
1.3175	6.74744
1.318	7.5531
1.3185	6.94885
1.319	5.33752
1.3195	11.07788
1.32	7.65381
1.3205	12.89062
1.321	11.38
1.3215	10.27222
1.322	10.87646
1.3225	7.45239
1.323	8.35876
1.3235	6.04248
1.324	0
1.3245	-2.92053
1.325	-9.36584
1.3255	-8.8623
1.326	-11.58142
1.3265	-18.02673
1.327	-15.20691
1.3275	-10.87646
1.328	-10.27222
1.3285	-3.02124
1.329	-0.90637
1.3295	-1.51062
1.33	-4.12903
1.3305	-7.04956
1.331	-9.66797
1.3315	-5.94177
1.332	-3.32336
1.3325	-2.5177
1.333	-1.91345
1.3335	0
1.334	-5.74036
1.3345	-4.43115
1.335	-0.90637
1.3355	-0.70496
1.336	6.64673
1.3365	-2.81982
1.337	1.40991
1.3375	6.3446
1.338	6.44531
1.3385	5.23682
1.339	10.37292
1.3395	18.8324
1.34	12.48779
1.3405	13.29346
1.341	16.61682
1.3415	12.78992
1.342	17.82532
1.3425	19.33594
1.343	19.63806
1.3435	18.53027
1.344	15.81116
1.3445	7.04956
1.345	2.81982
1.3455	-3.22266
1.346	-8.05664
1.3465	-8.8623
1.347	-3.22266
1.3475	-5.53894
1.348	-6.14319
1.3485	-7.45239
1.349	-9.26514
1.3495	-8.45947
1.35	-1.40991
1.3505	2.5177
1.351	6.64673
1.3515	9.36584
1.352	9.56726
1.3525	9.06372
1.353	6.94885
1.3535	3.8269
1.354	4.02832
1.3545	9.56726
1.355	11.48071
1.3555	19.73877
1.356	27.89612
1.3565	34.03931
1.357	38.57117
1.3575	45.62073
1.358	47.13135
1.3585	42.90161
1.359	37.7655
1.3595	37.66479
1.36	32.42798
1.3605	27.59399
1.361	34.34143
1.3615	28.39966
1.362	30.71594
1.3625	30.01099
1.363	24.37134
1.3635	21.14868
1.364	16.41541
1.3645	10.97717
1.365	6.74744
1.3655	8.96301
1.366	5.53894
1.3665	4.33044
1.367	6.54602
1.3675	4.33044
1.368	5.23682
1.3685	4.33044
1.369	3.32336
1.3695	2.01416
1.37	7.04956
1.3705	4.83398
1.371	5.53894
1.3715	1.51062
1.372	8.05664
1.3725	10.57434
1.373	13.39417
1.3735	14.50195
1.374	15.1062
1.3745	22.05505
1.375	26.18408
1.3755	24.97559
1.376	24.06921
1.3765	16.51611
1.377	17.01965
1.3775	19.13452
1.378	23.26355
1.3785	21.3501
1.379	12.68921
1.3795	9.76868
1.38	2.21558
1.3805	3.92761
1.381	3.62549
1.3815	-3.52478
1.382	-8.15735
1.3825	-11.78284
1.383	-17.42249
1.3835	-18.02673
1.384	-18.12744
1.3845	-17.01965
1.385	-21.55151
1.3855	-19.53735
1.386	-27.39258
1.3865	-24.27063
1.387	-25.98267
1.3875	-22.55859
1.388	-22.86072
1.3885	-22.55859
1.389	-18.93311
1.3895	-21.04797
1.39	-17.01965
1.3905	-21.3501
1.391	-15.00549
1.3915	-21.65222
1.392	-17.52319
1.3925	-13.39417
1.393	-16.81824
1.3935	-12.78992
1.394	-12.78992
1.3945	-9.26514
1.395	-10.0708
1.3955	-13.99841
1.396	-13.59558
1.3965	-11.78284
1.397	-18.42957
1.3975	-10.37292
1.398	-7.15027
1.3985	-5.94177
1.399	-5.13611
1.3995	-3.8269
1.4	-1.91345
1.4005	1.2085
1.401	1.91345
1.4015	2.31628
1.402	3.52478
1.4025	-1.00708
1.403	0.90637
1.4035	7.65381
1.404	6.74744
1.4045	4.93469
1.405	7.04956
1.4055	0.80566
1.406	-2.11487
1.4065	-5.84106
1.407	-10.57434
1.4075	-11.38
1.408	-16.21399
1.4085	-15.81116
1.409	-14.50195
1.4095	-9.66797
1.41	-4.43115
1.4105	-4.43115
1.411	-2.11487
1.4115	7.15027
1.412	14.90479
1.4125	23.06213
1.413	41.99524
1.4135	52.97241
1.414	59.82056
1.4145	66.56799
1.415	58.81348
1.4155	52.06604
1.416	45.01648
1.4165	41.39099
1.417	31.11877
1.4175	28.60107
1.418	20.64514
1.4185	14.80408
1.419	5.53894
1.4195	6.64673
1.42	5.84106
1.4205	3.32336
1.421	6.3446
1.4215	3.12195
1.422	6.44531
1.4225	7.5531
1.423	4.53186
1.4235	1.40991
1.424	8.15735
1.4245	7.5531
1.425	1.61133
1.4255	-3.12195
1.426	-4.12903
1.4265	1.10779
1.427	-3.7262
1.4275	-3.42407
1.428	-7.35168
1.4285	-1.40991
1.429	-9.56726
1.4295	-4.43115
1.43	-7.75452
1.4305	-9.26514
1.431	-6.84814
1.4315	-10.27222
1.432	-10.27222
1.4325	-18.02673
1.433	-10.87646
1.4335	-15.20691
1.434	-12.78992
1.4345	-6.44531
1.435	-4.02832
1.4355	-5.13611
1.436	-4.12903
1.4365	-2.31628
1.437	12.5885
1.4375	19.53735
1.438	20.84656
1.4385	21.95435
1.439	20.54443
1.4395	22.86072
1.44	31.01807
1.4405	36.35559
1.441	45.2179
1.4415	52.16675
1.442	53.17383
1.4425	60.62622
1.443	62.03613
1.4435	61.12976
1.444	59.61914
1.4445	59.1156
1.445	55.99365
1.4455	59.82056
1.446	64.35242
1.4465	64.151
1.447	70.19348
1.4475	64.75525
1.448	57.40356
1.4485	47.53418
1.449	38.06763
1.4495	35.14709
1.45	30.31311
1.4505	17.22107
1.451	5.23682
1.4515	-4.43115
1.452	-10.67505
1.4525	-13.39417
1.453	-10.57434
1.4535	-12.99133
1.454	-16.81824
1.4545	-13.29346
1.455	-7.35168
1.4555	-10.67505
1.456	-11.88354
1.4565	-14.80408
1.457	-15.00549
1.4575	-18.93311
1.458	-21.55151
1.4585	-35.95276
1.459	-48.94409
1.4595	-56.39648
1.46	-64.25171
1.4605	-66.87012
1.461	-65.96375
1.4615	-60.52551
1.462	-62.03613
1.4625	-57.40356
1.463	-58.20923
1.4635	-47.7356
1.464	-39.07471
1.4645	-40.38391
1.465	-36.55701
1.4655	-26.48621
1.466	-20.04089
1.4665	-20.94727
1.467	-18.22815
1.4675	-10.57434
1.468	-8.25806
1.4685	-16.41541
1.469	-17.32178
1.4695	-19.43665
1.47	-21.14868
1.4705	-21.45081
1.471	-17.42249
1.4715	-7.65381
1.472	-10.97717
1.4725	-10.37292
1.473	-6.74744
1.4735	-4.83398
1.474	5.0354
1.4745	19.03381
1.475	27.09045
1.4755	27.29187
1.476	33.13293
1.4765	36.4563
1.477	36.65771
1.4775	40.2832
1.478	51.86462
1.4785	51.36108
1.479	55.59082
1.4795	61.43188
1.48	70.59631
1.4805	69.1864
1.481	71.7041
1.4815	73.21472
1.482	69.08569
1.4825	70.3949
1.483	73.71826
1.4835	64.65454
1.484	64.35242
1.4845	53.67737
1.485	38.57117
1.4855	24.47205
1.486	14.70337
1.4865	1.51062
1.487	-14.80408
1.4875	-27.6947
1.488	-42.90161
1.4885	-58.41064
1.489	-68.58215
1.4895	-78.95508
1.49	-83.38623
1.4905	-74.82605
1.491	-70.49561
1.4915	-64.151
1.492	-64.85596
1.4925	-55.59082
1.493	-48.44055
1.4935	-38.26904
1.494	-36.15417
1.4945	-30.81665
1.495	-27.49329
1.4955	-26.18408
1.496	-16.51611
1.4965	-6.94885
1.497	-6.44531
1.4975	-6.74744
1.498	-6.54602
1.4985	-7.75452
1.499	-4.93469
1.4995	-10.67505
1.5	-7.75452
1.5005	-0.90637
1.501	8.66089
1.5015	8.96301
1.502	5.84106
1.5025	9.26514
1.503	15.30762
1.5035	12.08496
1.504	15.50903
1.5045	15.60974
1.505	28.29895
1.5055	41.99524
1.506	48.33984
1.5065	50.05188
1.507	54.0802
1.5075	46.02356
1.508	53.27454
1.5085	60.3241
1.509	60.02197
1.5095	62.9425
1.51	61.43188
1.5105	54.78516
1.511	50.75684
1.5115	48.74268
1.512	50.85754
1.5125	50.45471
1.513	42.39807
1.5135	35.2478
1.514	37.06055
1.5145	24.87488
1.515	21.04797
1.5155	17.92603
1.516	11.78284
1.5165	-2.81982
1.517	-19.13452
1.5175	-19.03381
1.518	-24.47205
1.5185	-37.96692
1.519	-49.85046
1.5195	-53.87878
1.52	-50.05188
1.5205	-42.19666
1.521	-32.02515
1.5215	-27.6947
1.522	-15.30762
1.5225	-6.3446
1.523	-6.74744
1.5235	-6.2439
1.524	-4.83398
1.5245	-5.74036
1.525	6.64673
1.5255	17.6239
1.526	20.54443
1.5265	25.98267
1.527	24.47205
1.5275	28.70178
1.528	34.84497
1.5285	39.37683
1.529	46.22498
1.5295	50.65613
1.53	54.28162
1.5305	57.20215
1.531	58.81348
1.5315	63.34534
1.532	61.83472
1.5325	61.6333
1.533	63.74817
1.5335	67.57507
1.534	67.47437
1.5345	58.81348
1.535	48.64197
1.5355	40.38391
1.536	26.3855
1.5365	13.19275
1.537	0.80566
1.5375	-16.71753
1.538	-33.73718
1.5385	-37.96692
1.539	-37.96692
1.5395	-43.20374
1.54	-42.49878
1.5405	-47.8363
1.541	-44.71436
1.5415	-45.01648
1.542	-39.27612
1.5425	-35.04639
1.543	-18.93311
1.5435	-7.5531
1.544	-3.92761
1.5445	0.50354
1.545	2.92053
1.5455	-9.86938
1.546	-22.86072
1.5465	-33.13293
1.547	-43.10303
1.5475	-39.88037
1.548	-39.17542
1.5485	-38.26904
1.549	-37.06055
1.5495	-35.34851
1.55	-26.28479
1.5505	-27.49329
1.551	-29.50745
1.5515	-30.51453
1.552	-31.52161
1.5525	-32.83081
1.553	-35.04639
1.5535	-33.9386
1.554	-29.50745
1.5545	-32.32727
1.555	-25.78125
1.5555	-20.84656
1.556	-15.20691
1.5565	-10.77576
1.557	-13.19275
1.5575	-18.32886
1.558	-30.71594
1.5585	-26.78833
1.559	-26.18408
1.5595	-20.1416
1.56	-8.05664
1.5605	-5.63965
1.561	-12.18567
1.5615	-19.83948
1.562	-18.53027
1.5625	-28.39966
1.563	-32.12585
1.5635	-27.19116
1.564	-26.3855
1.5645	-23.66638
1.565	-19.03381
1.5655	-10.87646
1.566	-5.74036
1.5665	-1.10779
1.567	-2.81982
1.5675	-0.50354
1.568	5.13611
1.5685	19.23523
1.569	29.60815
1.5695	41.59241
1.57	62.8418
1.5705	67.17224
1.571	68.68286
1.5715	57.10144
1.572	60.72693
1.5725	51.86462
1.573	55.59082
1.5735	51.96533
1.574	48.23914
1.5745	38.06763
1.575	32.32727
1.5755	33.73718
1.576	32.02515
1.5765	24.87488
1.577	23.16284
1.5775	19.23523
1.578	28.29895
1.5785	22.25647
1.579	18.02673
1.5795	9.56726
1.58	5.33752
1.5805	8.8623
1.581	-1.10779
1.5815	-10.37292
1.582	-6.94885
1.5825	-6.44531
1.583	0.20142
1.5835	6.14319
1.584	3.52478
1.5845	0.70496
1.585	-2.01416
1.5855	-6.14319
1.586	-7.75452
1.5865	-2.31628
1.587	-3.12195
1.5875	6.3446
1.588	8.96301
1.5885	12.18567
1.589	30.91736
1.5895	41.99524
1.59	48.94409
1.5905	55.99365
1.591	52.06604
1.5915	43.10303
1.592	29.30603
1.5925	21.85364
1.593	20.74585
1.5935	15.91187
1.594	15.60974
1.5945	19.83948
1.595	16.21399
1.5955	19.43665
1.596	18.22815
1.5965	16.3147
1.597	15.1062
1.5975	26.28479
1.598	21.24939
1.5985	19.83948
1.599	19.53735
1.5995	20.54443
1.6	13.59558
1.6005	15.00549
1.601	16.41541
1.6015	9.06372
1.602	6.64673
1.6025	8.45947
1.603	9.06372
1.6035	15.00549
1.604	12.89062
1.6045	19.13452
1.605	15.50903
1.6055	21.04797
1.606	20.1416
1.6065	23.76709
1.607	16.51611
1.6075	22.25647
1.608	18.53027
1.6085	15.1062
1.609	7.85522
1.6095	1.2085
1.61	-4.43115
1.6105	-13.59558
1.611	-15.30762
1.6115	-21.24939
1.612	-22.45789
1.6125	-18.02673
1.613	-15.71045
1.6135	-21.24939
1.614	-18.02673
1.6145	-20.94727
1.615	-6.84814
1.6155	-1.91345
1.616	1.51062
1.6165	-3.7262
1.617	-10.47363
1.6175	-15.00549
1.618	-20.64514
1.6185	-15.71045
1.619	-20.44373
1.6195	-18.22815
1.62	-22.35718
1.6205	-23.76709
1.621	-20.74585
1.6215	-9.16443
1.622	-2.92053
1.6225	9.36584
1.623	19.03381
1.6235	31.11877
1.624	30.61523
1.6245	38.16833
1.625	42.19666
1.6255	45.92285
1.626	47.53418
1.6265	44.71436
1.627	25.98267
1.6275	14.19983
1.628	12.08496
1.6285	10.47363
1.629	4.02832
1.6295	-10.67505
1.63	-15.81116
1.6305	-27.39258
1.631	-33.9386
1.6315	-34.94568
1.632	-38.47046
1.6325	-33.83789
1.633	-32.93152
1.6335	-33.13293
1.634	-31.52161
1.6345	-30.11169
1.635	-29.40674
1.6355	-26.48621
1.636	-11.2793
1.6365	-6.54602
1.637	-12.89062
1.6375	-15.81116
1.638	-21.24939
1.6385	-19.63806
1.639	-18.42957
1.6395	-23.66638
1.64	-16.21399
1.6405	-12.18567
1.641	-8.45947
1.6415	2.21558
1.642	9.26514
1.6425	22.35718
1.643	27.59399
1.6435	25.57983
1.644	18.53027
1.6445	15.91187
1.645	13.797
1.6455	14.50195
1.646	13.29346
1.6465	9.66797
1.647	6.54602
1.6475	8.15735
1.648	3.22266
1.6485	-0.10071
1.649	-5.0354
1.6495	-3.92761
1.65	-5.94177
1.6505	-7.65381
1.651	-4.73328
1.6515	-4.53186
1.652	3.22266
1.6525	14.70337
1.653	11.48071
1.6535	9.56726
1.654	10.0708
1.6545	17.01965
1.655	27.89612
1.6555	32.83081
1.656	34.64355
1.6565	39.37683
1.657	33.43506
1.6575	20.04089
1.658	15.30762
1.6585	14.09912
1.659	7.35168
1.6595	5.53894
1.66	-1.3092
1.6605	1.71204
1.661	-0.60425
1.6615	-6.74744
1.662	-10.27222
1.6625	-11.2793
1.663	-12.89062
1.6635	-16.91895
1.664	-23.16284
1.6645	-33.63647
1.665	-40.1825
1.6655	-39.77966
1.666	-47.8363
1.6665	-35.04639
1.667	-29.91028
1.6675	-26.18408
1.668	-15.71045
1.6685	-10.57434
1.669	2.21558
1.6695	10.17151
1.67	28.09753
1.6705	31.4209
1.671	35.65063
1.6715	27.89612
1.672	26.48621
1.6725	26.3855
1.673	26.58691
1.6735	20.74585
1.674	27.29187
1.6745	26.98975
1.675	28.60107
1.6755	24.77417
1.676	22.76001
1.6765	23.66638
1.677	24.57275
1.6775	25.177
1.678	24.16992
1.6785	15.20691
1.679	15.30762
1.6795	14.09912
1.68	8.66089
1.6805	8.7616
1.681	8.8623
1.6815	3.8269
1.682	7.25098
1.6825	3.52478
1.683	9.97009
1.6835	11.48071
1.684	11.48071
1.6845	11.48071
1.685	9.26514
1.6855	14.19983
1.686	9.46655
1.6865	0.40283
1.687	-13.89771
1.6875	-29.40674
1.688	-35.2478
1.6885	-42.29736
1.689	-35.75134
1.6895	-44.21082
1.69	-52.26746
1.6905	-54.48303
1.691	-56.19507
1.6915	-55.89294
1.692	-58.81348
1.6925	-37.26196
1.693	-21.85364
1.6935	1.81274
1.694	18.12744
1.6945	32.62939
1.695	42.8009
1.6955	36.65771
1.696	23.8678
1.6965	11.58142
1.697	6.54602
1.6975	1.71204
1.698	-2.81982
1.6985	-3.7262
1.699	-7.04956
1.6995	-1.61133
1.7	5.23682
1.7005	-1.81274
1.701	-1.91345
1.7015	-5.94177
1.702	-6.74744
1.7025	-7.65381
1.703	-3.7262
1.7035	1.00708
1.704	13.89771
1.7045	34.44214
1.705	40.2832
1.7055	35.34851
1.706	37.86621
1.7065	40.68604
1.707	31.32019
1.7075	26.28479
1.708	22.15576
1.7085	14.90479
1.709	20.1416
1.7095	17.92603
1.71	15.20691
1.7105	20.04089
1.711	14.60266
1.7115	13.09204
1.712	13.19275
1.7125	14.30054
1.713	15.50903
1.7135	24.97559
1.714	30.2124
1.7145	29.70886
1.715	27.49329
1.7155	19.63806
1.716	12.38708
1.7165	6.94885
1.717	-0.50354
1.7175	2.81982
1.718	1.10779
1.7185	7.45239
1.719	6.3446
1.7195	14.60266
1.72	10.57434
1.7205	14.09912
1.721	14.70337
1.7215	20.84656
1.722	18.8324
1.7225	23.16284
1.723	32.93152
1.7235	29.91028
1.724	22.05505
1.7245	14.60266
1.725	21.75293
1.7255	23.06213
1.726	21.55151
1.7265	19.33594
1.727	18.93311
1.7275	12.08496
1.728	11.38
1.7285	4.43115
1.729	5.23682
1.7295	1.3092
1.73	-2.31628
1.7305	-0.60425
1.731	-1.2085
1.7315	-2.81982
1.732	-2.11487
1.7325	2.11487
1.733	7.35168
1.7335	9.97009
1.734	11.38
1.7345	11.98425
1.735	11.17859
1.7355	16.81824
1.736	12.78992
1.7365	9.97009
1.737	0.70496
1.7375	-9.66797
1.738	-6.64673
1.7385	-10.47363
1.739	-16.41541
1.7395	-20.34302
1.74	-24.47205
1.7405	-27.79541
1.741	-21.75293
1.7415	-21.24939
1.742	-17.32178
1.7425	-15.1062
1.743	-9.06372
1.7435	-2.92053
1.744	-2.01416
1.7445	-6.2439
1.745	-3.62549
1.7455	-1.3092
1.746	6.3446
1.7465	4.12903
1.747	4.12903
1.7475	3.12195
1.748	4.83398
1.7485	6.04248
1.749	6.14319
1.7495	6.3446
1.75	10.97717
1.7505	9.06372
1.751	7.95593
1.7515	12.18567
1.752	12.78992
1.7525	7.45239
1.753	3.02124
1.7535	9.16443
1.754	5.23682
1.7545	6.3446
1.755	7.35168
1.7555	5.74036
1.756	7.95593
1.7565	20.24231
1.757	20.34302
1.7575	24.77417
1.758	25.47913
1.7585	28.19824
1.759	29.80957
1.7595	30.81665
1.76	36.75842
1.7605	37.86621
1.761	34.84497
1.7615	38.974
1.762	36.85913
1.7625	36.95984
1.763	32.22656
1.7635	32.02515
1.764	37.96692
1.7645	33.53577
1.765	32.93152
1.7655	32.62939
1.766	31.11877
1.7665	27.49329
1.767	28.70178
1.7675	26.28479
1.768	25.27771
1.7685	24.97559
1.769	20.94727
1.7695	16.3147
1.77	12.89062
1.7705	8.15735
1.771	4.02832
1.7715	-5.23682
1.772	-5.23682
1.7725	-16.11328
1.773	-14.60266
1.7735	-23.16284
1.774	-25.68054
1.7745	-27.49329
1.775	-25.68054
1.7755	-26.18408
1.776	-28.80249
1.7765	-27.19116
1.777	-30.01099
1.7775	-26.98975
1.778	-25.88196
1.7785	-18.73169
1.779	-16.71753
1.7795	-11.48071
1.78	-3.92761
1.7805	4.53186
1.781	7.5531
1.7815	11.68213
1.782	17.01965
1.7825	18.73169
1.783	24.47205
1.7835	23.16284
1.784	24.77417
1.7845	19.83948
1.785	29.60815
1.7855	27.79541
1.786	25.68054
1.7865	24.27063
1.787	18.02673
1.7875	16.71753
1.788	22.15576
1.7885	21.14868
1.789	21.55151
1.7895	20.44373
1.79	28.19824
1.7905	23.56567
1.791	21.45081
1.7915	22.05505
1.792	27.19116
1.7925	25.98267
1.793	27.39258
1.7935	24.67346
1.794	26.28479
1.7945	33.9386
1.795	38.16833
1.7955	46.02356
1.796	57.8064
1.7965	65.3595
1.797	69.58923
1.7975	74.32251
1.798	77.64587
1.7985	81.97632
1.799	86.00464
1.7995	86.10535
1.8	81.87561
1.8005	74.12109
1.801	60.62622
1.8015	46.02356
1.802	29.00391
1.8025	15.71045
1.803	6.3446
1.8035	-5.63965
1.804	-20.24231
1.8045	-31.11877
1.805	-34.64355
1.8055	-43.60657
1.806	-55.99365
1.8065	-59.92126
1.807	-57.30286
1.8075	-66.06445
1.808	-66.06445
1.8085	-74.52393
1.809	-81.67419
1.8095	-82.9834
1.81	-74.92676
1.8105	-68.98499
1.811	-54.38232
1.8115	-41.79382
1.812	-22.35718
1.8125	-8.35876
1.813	1.00708
1.8135	12.89062
1.814	26.3855
1.8145	38.77258
1.815	39.27612
1.8155	45.3186
1.816	51.26038
1.8165	46.42639
1.817	44.0094
1.8175	38.47046
1.818	40.1825
1.8185	38.57117
1.819	42.90161
1.8195	36.4563
1.82	27.09045
1.8205	15.50903
1.821	9.36584
1.8215	2.41699
1.822	-3.8269
1.8225	-7.35168
1.823	-5.63965
1.8235	-5.53894
1.824	4.02832
1.8245	5.53894
1.825	14.09912
1.8255	30.2124
1.826	33.83789
1.8265	39.77966
1.827	36.75842
1.8275	35.44922
1.828	38.36975
1.8285	36.75842
1.829	33.9386
1.8295	29.20532
1.83	32.52869
1.8305	26.88904
1.831	23.56567
1.8315	26.58691
1.832	14.19983
1.8325	24.47205
1.833	30.11169
1.8335	24.37134
1.834	21.24939
1.8345	21.24939
1.835	15.00549
1.8355	6.64673
1.836	10.57434
1.8365	1.91345
1.837	4.02832
1.8375	4.53186
1.838	-4.63257
1.8385	-7.5531
1.839	-12.99133
1.8395	-23.16284
1.84	-39.67896
1.8405	-52.16675
1.841	-67.8772
1.8415	-80.66711
1.842	-83.18481
1.8425	-78.14941
1.843	-57.20215
1.8435	-40.98816
1.844	-23.46497
1.8445	-0.10071
1.845	3.7262
1.8455	10.97717
1.846	13.59558
1.8465	16.21399
1.847	19.03381
1.8475	19.33594
1.848	26.78833
1.8485	27.89612
1.849	19.73877
1.8495	14.60266
1.85	1.91345
1.8505	-11.68213
1.851	-27.39258
1.8515	-34.94568
1.852	-39.17542
1.8525	-39.88037
1.853	-40.48462
1.8535	-44.71436
1.854	-42.09595
1.8545	-27.19116
1.855	-9.86938
1.8555	9.06372
1.856	24.16992
1.8565	31.32019
1.857	41.69312
1.8575	50.2533
1.858	54.98657
1.8585	63.54675
1.859	83.18481
1.8595	109.57031
1.86	128.10059
1.8605	139.68201
1.861	130.41687
1.8615	131.02112
1.862	125.98572
1.8625	120.24536
1.863	114.60571
1.8635	103.72925
1.864	99.09668
1.8645	77.24304
1.865	51.96533
1.8655	23.56567
1.866	-9.66797
1.8665	-26.98975
1.867	-43.10303
1.8675	-63.84888
1.868	-81.57349
1.8685	-87.71667
1.869	-91.34216
1.8695	-88.72375
1.87	-95.37048
1.8705	-91.34216
1.871	-78.04871
1.8715	-66.56799
1.872	-56.90002
1.8725	-38.36975
1.873	-37.16125
1.8735	-28.70178
1.874	-25.78125
1.8745	-20.24231
1.875	-21.24939
1.8755	-16.11328
1.876	-11.2793
1.8765	-10.27222
1.877	-12.38708
1.8775	-10.67505
1.878	-6.44531
1.8785	-10.17151
1.879	-6.2439
1.8795	-11.38
1.88	-7.35168
1.8805	-13.19275
1.881	-15.81116
1.8815	-22.76001
1.882	-23.66638
1.8825	-30.91736
1.883	-18.42957
1.8835	-14.50195
1.884	-7.95593
1.8845	2.81982
1.885	11.68213
1.8855	20.1416
1.886	12.78992
1.8865	5.33752
1.887	-0.10071
1.8875	-12.38708
1.888	-23.96851
1.8885	-31.52161
1.889	-38.47046
1.8895	-44.31152
1.89	-49.95117
1.8905	-56.5979
1.891	-59.61914
1.8915	-53.77808
1.892	-45.01648
1.8925	-26.48621
1.893	-10.67505
1.8935	-0.70496
1.894	8.15735
1.8945	2.5177
1.895	5.84106
1.8955	16.81824
1.896	27.79541
1.8965	43.50586
1.897	46.32568
1.8975	59.71985
1.898	58.81348
1.8985	48.23914
1.899	33.43506
1.8995	26.18408
1.9	28.60107
1.9005	22.76001
1.901	17.42249
1.9015	0.60425
1.902	-5.74036
1.9025	-19.43665
1.903	-24.67346
1.9035	-32.22656
1.904	-25.78125
1.9045	-20.64514
1.905	-1.51062
1.9055	19.94019
1.906	38.77258
1.9065	61.6333
1.907	83.48694
1.9075	103.72925
1.908	114.70642
1.9085	122.76306
1.909	134.94873
1.9095	130.31616
1.91	127.69775
1.9105	109.26819
1.911	79.45862
1.9115	49.54834
1.912	27.49329
1.9125	-1.91345
1.913	-21.75293
1.9135	-42.19666
1.914	-55.49011
1.9145	-58.41064
1.915	-60.3241
1.9155	-61.23047
1.916	-63.24463
1.9165	-61.33118
1.917	-55.89294
1.9175	-29.80957
1.918	-4.93469
1.9185	4.63257
1.919	10.87646
1.9195	5.43823
1.92	8.25806
1.9205	-18.53027
1.921	-39.67896
1.9215	-52.46887
1.922	-67.77649
1.9225	-71.09985
1.923	-65.76233
1.9235	-47.93701
1.924	-38.16833
1.9245	-31.92444
1.925	-28.09753
1.9255	-27.09045
1.926	-27.09045
1.9265	-19.33594
1.927	-16.61682
1.9275	-13.99841
1.928	-6.04248
1.9285	-3.8269
1.929	-5.13611
1.9295	-1.51062
1.93	2.81982
1.9305	2.31628
1.931	11.38
1.9315	22.96143
1.932	27.29187
1.9325	38.974
1.933	52.36816
1.9335	68.88428
1.934	77.84729
1.9345	83.88977
1.935	77.948
1.9355	74.72534
1.936	64.05029
1.9365	58.00781
1.937	55.59082
1.9375	48.33984
1.938	43.30444
1.9385	41.4917
1.939	31.32019
1.9395	27.19116
1.94	24.57275
1.9405	19.53735
1.941	12.68921
1.9415	11.98425
1.942	6.84814
1.9425	-2.61841
1.943	0.20142
1.9435	-4.63257
1.944	-11.98425
1.9445	-16.01257
1.945	-22.55859
1.9455	-31.82373
1.946	-38.47046
1.9465	-54.48303
1.947	-56.29578
1.9475	-53.17383
1.948	-51.05896
1.9485	-51.96533
1.949	-53.47595
1.9495	-48.54126
1.95	-49.85046
1.9505	-37.66479
1.951	-44.31152
1.9515	-40.78674
1.952	-41.79382
1.9525	-37.16125
1.953	-38.57117
1.9535	-33.43506
1.954	-35.85205
1.9545	-33.03223
1.955	-29.40674
1.9555	-32.42798
1.956	-29.20532
1.9565	-25.98267
1.957	-22.05505
1.9575	-19.63806
1.958	-16.61682
1.9585	-19.53735
1.959	-13.99841
1.9595	-15.91187
1.96	-18.42957
1.9605	-20.1416
1.961	-23.76709
1.9615	-19.94019
1.962	-23.16284
1.9625	-25.98267
1.963	-33.33435
1.9635	-39.47754
1.964	-44.41223
1.9645	-43.00232
1.965	-42.19666
1.9655	-49.24622
1.966	-52.97241
1.9665	-46.92993
1.967	-28.9032
1.9675	-16.51611
1.968	7.04956
1.9685	27.89612
1.969	35.95276
1.9695	49.0448
1.97	66.16516
1.9705	80.36499
1.971	60.72693
1.9715	47.53418
1.972	33.23364
1.9725	22.86072
1.973	15.40833
1.9735	9.97009
1.974	10.27222
1.9745	4.22974
1.975	4.12903
1.9755	3.92761
1.976	4.33044
1.9765	-3.62549
1.977	-0.50354
1.9775	-5.53894
1.978	-3.22266
1.9785	-4.63257
1.979	-3.7262
1.9795	-3.42407
1.98	-1.91345
1.9805	-1.61133
1.981	1.81274
1.9815	0.90637
1.982	0.50354
1.9825	7.75452
1.983	10.27222
1.9835	11.2793
1.984	11.58142
1.9845	13.797
1.985	9.76868
1.9855	14.30054
1.986	18.63098
1.9865	12.28638
1.987	15.00549
1.9875	8.7616
1.988	14.09912
1.9885	12.89062
1.989	8.8623
1.9895	4.12903
1.99	3.52478
1.9905	-0.10071
1.991	-0.20142
1.9915	-6.2439
1.992	-10.0708
1.9925	-8.96301
1.993	-6.94885
1.9935	-4.12903
1.994	6.3446
1.9945	10.17151
1.995	4.12903
1.9955	4.73328
1.996	1.3092
1.9965	-6.14319
1.997	-13.19275
1.9975	-26.3855
1.998	-23.46497
1.9985	-25.78125
1.999	-33.43506
1.9995	-38.67188
2	-45.2179
2.0005	-43.40515
2.001	-45.92285
2.0015	-40.1825
2.002	-40.1825
2.0025	-34.84497
2.003	-34.34143
2.0035	-27.99683
2.004	-20.44373
2.0045	-15.30762
2.005	-19.73877
2.0055	-21.55151
2.006	-29.60815
2.0065	-17.52319
2.007	-20.84656
2.0075	-16.41541
2.008	-10.67505
2.0085	-14.19983
2.009	-21.14868
2.0095	-24.77417
2.01	-32.93152
2.0105	-34.64355
2.011	-25.27771
2.0115	-21.85364
2.012	-20.74585
2.0125	-18.63098
2.013	-16.51611
2.0135	-16.51611
2.014	-14.40125
2.0145	-15.71045
2.015	-7.65381
2.0155	1.71204
2.016	14.80408
2.0165	31.4209
2.017	36.15417
2.0175	35.2478
2.018	34.03931
2.0185	25.78125
2.019	23.26355
2.0195	21.45081
2.02	23.66638
2.0205	26.18408
2.021	27.6947
2.0215	22.25647
2.022	21.04797
2.0225	22.25647
2.023	31.01807
2.0235	37.16125
2.024	40.48462
2.0245	42.59949
2.025	32.7301
2.0255	19.43665
2.026	9.66797
2.0265	1.3092
2.027	-8.05664
2.0275	-20.54443
2.028	-29.70886
2.0285	-42.29736
2.029	-52.36816
2.0295	-58.91418
2.03	-61.53259
2.0305	-52.8717
2.031	-44.31152
2.0315	-36.95984
2.032	-31.82373
2.0325	-24.27063
2.033	-19.63806
2.0335	-15.91187
2.034	-9.46655
2.0345	-1.71204
2.035	-0.90637
2.0355	2.01416
2.036	1.3092
2.0365	5.0354
2.037	4.33044
2.0375	7.95593
2.038	3.52478
2.0385	5.43823
2.039	1.51062
2.0395	5.53894
2.04	7.95593
2.0405	7.85522
2.041	8.96301
2.0415	6.04248
2.042	10.17151
2.0425	4.63257
2.043	7.75452
2.0435	7.85522
2.044	9.16443
2.0445	3.12195
2.045	-4.02832
2.0455	-2.71912
2.046	-6.54602
2.0465	1.61133
2.047	5.84106
2.0475	-0.60425
2.048	-2.61841
2.0485	-3.52478
2.049	-6.64673
2.0495	4.12903
2.05	8.56018
2.0505	17.82532
2.051	24.37134
2.0515	30.51453
2.052	30.91736
2.0525	34.34143
2.053	30.41382
2.0535	30.11169
2.054	41.18958
2.0545	46.5271
2.055	47.33276
2.0555	56.19507
2.056	48.44055
2.0565	45.72144
2.057	37.66479
2.0575	29.20532
2.058	21.14868
2.0585	18.42957
2.059	14.90479
2.0595	5.94177
2.06	7.65381
2.0605	7.95593
2.061	0.10071
2.0615	-8.05664
2.062	-9.56726
2.0625	-12.78992
2.063	-18.53027
2.0635	-13.39417
2.064	-19.33594
2.0645	-14.30054
2.065	-8.25806
2.0655	-6.2439
2.066	-6.94885
2.0665	-9.86938
2.067	-16.11328
2.0675	-12.99133
2.068	-6.54602
2.0685	0.80566
2.069	6.74744
2.0695	9.46655
2.07	6.94885
2.0705	9.16443
2.071	13.89771
2.0715	12.18567
2.072	10.97717
2.0725	10.67505
2.073	7.5531
2.0735	11.68213
2.074	11.07788
2.0745	13.29346
2.075	13.99841
2.0755	19.94019
2.076	14.19983
2.0765	14.80408
2.077	16.11328
2.0775	10.57434
2.078	12.08496
2.0785	10.87646
2.079	4.93469
2.0795	5.63965
2.08	8.66089
2.0805	9.36584
2.081	3.52478
2.0815	-0.60425
2.082	0.10071
2.0825	-1.2085
2.083	-0.60425
2.0835	4.22974
2.084	9.76868
2.0845	19.23523
2.085	21.14868
2.0855	31.11877
2.086	38.974
2.0865	51.05896
2.087	59.1156
2.0875	64.35242
2.088	68.07861
2.0885	63.64746
2.089	62.13684
2.0895	61.12976
2.09	55.59082
2.0905	60.02197
2.091	54.78516
2.0915	51.5625
2.092	38.36975
2.0925	24.57275
2.093	8.56018
2.0935	-5.23682
2.094	-14.60266
2.0945	-21.04797
2.095	-32.12585
2.0955	-41.08887
2.096	-50.05188
2.0965	-57.50427
2.097	-74.32251
2.0975	-79.96216
2.098	-80.76782
2.0985	-71.7041
2.099	-67.07153
2.0995	-61.93542
2.1	-56.5979
2.1005	-40.58533
2.101	-37.46338
2.1015	-31.21948
2.102	-18.73169
2.1025	-10.77576
2.103	-4.43115
2.1035	7.04956
2.104	9.26514
2.1045	6.54602
2.105	16.61682
2.1055	21.55151
2.106	24.67346
2.1065	23.76709
2.107	31.01807
2.1075	37.86621
2.108	44.61365
2.1085	53.37524
2.109	67.27295
2.1095	75.12817
2.11	86.91101
2.1105	90.23438
2.111	94.76624
2.1115	93.25562
2.112	90.23438
2.1125	94.96765
2.113	97.78748
2.1135	101.71509
2.114	91.34216
2.1145	83.28552
2.115	62.9425
2.1155	40.78674
2.116	23.66638
2.1165	12.28638
2.117	3.42407
2.1175	-2.81982
2.118	-7.35168
2.1185	-9.76868
2.119	-17.01965
2.1195	-20.1416
2.12	-14.90479
2.1205	-18.22815
2.121	-16.41541
2.1215	-23.36426
2.122	-23.96851
2.1225	-21.3501
2.123	-34.14001
2.1235	-38.57117
2.124	-35.44922
2.1245	-40.1825
2.125	-35.75134
2.1255	-36.05347
2.126	-23.8678
2.1265	-11.38
2.127	1.3092
2.1275	19.94019
2.128	30.91736
2.1285	41.69312
2.129	49.0448
2.1295	61.6333
2.13	73.91968
2.1305	84.19189
2.131	92.14783
2.1315	95.47119
2.132	96.17615
2.1325	86.10535
2.133	80.16357
2.1335	65.56091
2.134	57.9071
2.1345	49.44763
2.135	36.65771
2.1355	32.83081
2.136	35.34851
2.1365	37.86621
2.137	40.68604
2.1375	29.30603
2.138	2.41699
2.1385	-17.82532
2.139	-33.23364
2.1395	-40.38391
2.14	-54.28162
2.1405	-73.81897
2.141	-86.8103
2.1415	-95.87402
2.142	-99.80164
2.1425	-74.62463
2.143	-49.95117
2.1435	-25.07629
2.144	-24.27063
2.1445	-32.83081
2.145	-29.30603
2.1455	-26.28479
2.146	-27.19116
2.1465	-21.14868
2.147	-17.92603
2.1475	-17.52319
2.148	-13.39417
2.1485	-8.8623
2.149	-8.7616
2.1495	-2.11487
2.15	0.70496
2.1505	3.62549
2.151	-1.00708
2.1515	3.22266
2.152	6.84814
2.1525	7.04956
2.153	11.88354
2.1535	11.68213
2.154	8.45947
2.1545	9.76868
2.155	11.2793
2.1555	17.32178
2.156	14.80408
2.1565	25.68054
2.157	27.59399
2.1575	32.93152
2.158	34.24072
2.1585	40.38391
2.159	46.5271
2.1595	58.20923
2.16	71.80481
2.1605	88.92517
2.161	95.47119
2.1615	109.3689
2.162	115.31067
2.1625	123.77014
2.163	130.21545
2.1635	128.302
2.164	118.53333
2.1645	108.66394
2.165	88.82446
2.1655	70.99915
2.166	45.92285
2.1665	30.61523
2.167	13.29346
2.1675	-2.61841
2.168	-23.8678
2.1685	-37.06055
2.169	-52.36816
2.1695	-62.53967
2.17	-70.19348
2.1705	-69.89136
2.171	-75.4303
2.1715	-76.33667
2.172	-85.19897
2.1725	-78.55225
2.173	-74.02039
2.1735	-66.87012
2.174	-64.65454
2.1745	-61.83472
2.175	-57.40356
2.1755	-38.67188
2.176	-27.19116
2.1765	-25.37842
2.177	-25.37842
2.1775	-19.73877
2.178	-24.47205
2.1785	-23.36426
2.179	-19.53735
2.1795	-16.11328
2.18	-20.74585
2.1805	-19.33594
2.181	-12.68921
2.1815	-1.00708
2.182	0.90637
2.1825	8.7616
2.183	7.35168
2.1835	12.28638
2.184	19.83948
2.1845	22.86072
2.185	29.40674
2.1855	37.06055
2.186	45.92285
2.1865	58.81348
2.187	61.83472
2.1875	70.49561
2.188	78.25012
2.1885	89.328
2.189	88.22021
2.1895	90.73792
2.19	89.02588
2.1905	84.99756
2.191	82.17773
2.1915	83.08411
2.192	76.43738
2.1925	68.28003
2.193	63.84888
2.1935	71.80481
2.194	81.67419
2.1945	95.37048
2.195	96.17615
2.1955	98.19031
2.196	101.21155
2.1965	86.50818
2.197	76.33667
2.1975	50.85754
2.198	32.42798
2.1985	10.0708
2.199	-1.2085
2.1995	-18.12744
2.2	-26.18408
2.2005	-27.79541
2.201	-31.11877
2.2015	-40.88745
2.202	-48.74268
2.2025	-58.91418
2.203	-66.87012
2.2035	-61.83472
2.204	-61.53259
2.2045	-63.04321
2.205	-64.55383
2.2055	-64.85596
2.206	-54.0802
2.2065	-56.09436
2.207	-41.08887
2.2075	-35.04639
2.208	-23.96851
2.2085	-24.77417
2.209	-24.27063
2.2095	-17.92603
2.21	-23.06213
2.2105	-22.96143
2.211	-25.68054
2.2115	-29.30603
2.212	-29.20532
2.2125	-29.60815
2.213	-30.61523
2.2135	-25.98267
2.214	-22.45789
2.2145	-11.98425
2.215	-9.36584
2.2155	-4.63257
2.216	5.84106
2.2165	21.04797
2.217	49.95117
2.2175	77.74658
2.218	96.67969
2.2185	108.76465
2.219	100.50659
2.2195	98.49243
2.22	84.59473
2.2205	80.16357
2.221	75.93384
2.2215	80.86853
2.222	92.75208
2.2225	111.58447
2.223	135.65369
2.2235	144.01245
2.224	139.37988
2.2245	127.59705
2.225	113.49792
2.2255	107.55615
2.226	89.73083
2.2265	66.97083
2.227	46.22498
2.2275	24.27063
2.228	15.20691
2.2285	-2.31628
2.229	-13.29346
2.2295	-32.62939
2.23	-47.23206
2.2305	-56.19507
2.231	-63.04321
2.2315	-54.88586
2.232	-47.7356
2.2325	-39.47754
2.233	-34.64355
2.2335	-38.77258
2.234	-41.39099
2.2345	-51.05896
2.235	-45.2179
2.2355	-34.14001
2.236	-22.86072
2.2365	-11.98425
2.237	-5.63965
2.2375	-0.30212
2.238	-3.92761
2.2385	-1.40991
2.239	4.93469
2.2395	-4.43115
2.24	-7.45239
2.2405	-5.13611
2.241	7.75452
2.2415	9.76868
2.242	9.97009
2.2425	12.08496
2.243	15.81116
2.2435	12.38708
2.244	10.47363
2.2445	17.82532
2.245	10.0708
2.2455	13.09204
2.246	10.27222
2.2465	13.39417
2.247	14.50195
2.2475	10.17151
2.248	2.11487
2.2485	-5.74036
2.249	-9.76868
2.2495	-16.21399
2.25	-25.98267
2.2505	-36.25488
2.251	-49.34692
2.2515	-67.97791
2.252	-79.66003
2.2525	-82.9834
2.253	-81.06995
2.2535	-75.53101
2.254	-72.50977
2.2545	-70.89844
2.255	-68.17932
2.2555	-69.28711
2.256	-66.76941
2.2565	-60.72693
2.257	-51.66321
2.2575	-44.81506
2.258	-40.08179
2.2585	-34.54285
2.259	-27.79541
2.2595	-29.80957
2.26	-29.70886
2.2605	-28.29895
2.261	-18.53027
2.2615	-19.33594
2.262	-11.2793
2.2625	7.35168
2.263	32.52869
2.2635	47.13135
2.264	76.33667
2.2645	103.32642
2.265	125.48218
2.2655	143.60962
2.266	157.2052
2.2665	162.03918
2.267	160.02502
2.2675	159.82361
2.268	159.01794
2.2685	164.35547
2.269	149.75281
2.2695	141.39404
2.27	138.97705
2.2705	131.72607
2.271	124.67651
2.2715	107.15332
2.272	83.48694
2.2725	61.12976
2.273	30.81665
2.2735	4.73328
2.274	-22.86072
2.2745	-43.70728
2.275	-72.81189
2.2755	-93.65845
2.276	-110.07385
2.2765	-119.64111
2.277	-122.56165
2.2775	-120.14465
2.278	-110.37598
2.2785	-102.82288
2.279	-90.13367
2.2795	-78.45154
2.28	-67.77649
2.2805	-65.76233
2.281	-50.65613
2.2815	-38.67188
2.282	-25.88196
2.2825	-15.60974
2.283	-9.97009
2.2835	-7.65381
2.284	4.02832
2.2845	7.65381
2.285	9.36584
2.2855	9.36584
2.286	9.26514
2.2865	11.2793
2.287	8.15735
2.2875	7.5531
2.288	2.31628
2.2885	3.32336
2.289	2.31628
2.2895	-3.22266
2.29	-9.26514
2.2905	-10.97717
2.291	-8.7616
2.2915	-11.68213
2.292	-11.78284
2.2925	-10.47363
2.293	-6.04248
2.2935	-4.12903
2.294	3.7262
2.2945	10.67505
2.295	29.50745
2.2955	37.66479
2.296	51.26038
2.2965	50.05188
2.297	56.90002
2.2975	64.35242
2.298	58.71277
2.2985	61.02905
2.299	58.30994
2.2995	57.20215
2.3	46.72852
2.3005	43.80798
2.301	45.41931
2.3015	45.41931
2.302	38.974
2.3025	31.62231
2.303	28.19824
2.3035	18.22815
2.304	10.37292
2.3045	-0.80566
2.305	-3.62549
2.3055	-9.46655
2.306	-13.797
2.3065	-28.50037
2.307	-39.67896
2.3075	-44.31152
2.308	-43.30444
2.3085	-47.13135
2.309	-41.69312
2.3095	-44.31152
2.31	-40.98816
2.3105	-40.98816
2.311	-38.47046
2.3115	-30.81665
2.312	-29.80957
2.3125	-21.55151
2.313	-21.04797
2.3135	-12.99133
2.314	-17.32178
2.3145	-17.6239
2.315	-22.6593
2.3155	-18.32886
2.316	-7.85522
2.3165	9.56726
2.317	21.14868
2.3175	33.13293
2.318	36.15417
2.3185	46.22498
2.319	45.11719
2.3195	55.59082
2.32	59.61914
2.3205	66.76941
2.321	70.09277
2.3215	82.07703
2.322	83.38623
2.3225	87.41455
2.323	88.11951
2.3235	82.68127
2.324	87.41455
2.3245	93.75916
2.325	90.63721
2.3255	104.4342
2.326	114.00146
2.3265	116.21704
2.327	106.54907
2.3275	105.84412
2.328	110.98022
2.3285	114.90784
2.329	114.60571
2.3295	102.21863
2.33	84.59473
2.3305	69.28711
2.331	50.85754
2.3315	38.36975
2.332	12.78992
2.3325	-24.37134
2.333	-55.79224
2.3335	-79.05579
2.334	-96.67969
2.3345	-109.97314
2.335	-121.15173
2.3355	-130.8197
2.336	-137.66785
2.3365	-134.84802
2.337	-141.29333
2.3375	-144.11316
2.338	-137.46643
2.3385	-134.74731
2.339	-128.302
2.3395	-115.20996
2.34	-111.8866
2.3405	-101.21155
2.341	-82.68127
2.3415	-67.47437
2.342	-55.69153
2.3425	-44.71436
2.343	-38.87329
2.3435	-29.00391
2.344	-21.04797
2.3445	-9.26514
2.345	1.2085
2.3455	6.14319
2.346	6.44531
2.3465	15.20691
2.347	15.81116
2.3475	16.51611
2.348	19.73877
2.3485	28.29895
2.349	30.2124
2.3495	37.86621
2.35	41.99524
2.3505	42.19666
2.351	52.06604
2.3515	64.151
2.352	73.01331
2.3525	88.22021
2.353	98.79456
2.3535	117.12341
2.354	138.27209
2.3545	170.29724
2.355	191.74805
2.3555	206.25
2.356	219.14062
2.3565	221.85974
2.357	225.28381
2.3575	217.93213
2.358	215.0116
2.3585	202.72522
2.359	187.11548
2.3595	162.2406
2.36	132.0282
2.3605	102.52075
2.361	73.11401
2.3615	37.7655
2.362	8.05664
2.3625	-31.21948
2.363	-72.00623
2.3635	-93.96057
2.364	-108.96606
2.3645	-114.4043
2.365	-122.25952
2.3655	-131.62537
2.366	-146.42944
2.3665	-143.20679
2.367	-138.97705
2.3675	-143.81104
2.368	-138.57422
2.3685	-126.58997
2.369	-123.06519
2.3695	-115.10925
2.37	-109.67102
2.3705	-94.96765
2.371	-81.37207
2.3715	-65.46021
2.372	-55.49011
2.3725	-38.974
2.373	-33.03223
2.3735	-19.94019
2.374	-10.87646
2.3745	-3.62549
2.375	1.91345
2.3755	9.06372
2.376	6.3446
2.3765	14.70337
2.377	17.01965
2.3775	13.797
2.378	16.61682
2.3785	14.90479
2.379	15.00549
2.3795	17.22107
2.38	17.22107
2.3805	22.25647
2.381	26.98975
2.3815	26.48621
2.382	26.78833
2.3825	25.98267
2.383	25.177
2.3835	29.20532
2.384	30.71594
2.3845	39.37683
2.385	43.00232
2.3855	44.31152
2.386	51.86462
2.3865	66.26587
2.387	84.2926
2.3875	92.34924
2.388	92.65137
2.3885	104.03137
2.389	106.8512
2.3895	107.85828
2.39	102.72217
2.3905	107.45544
2.391	99.80164
2.3915	102.82288
2.392	92.55066
2.3925	86.20605
2.393	80.96924
2.3935	72.50977
2.394	60.72693
2.3945	58.91418
2.395	51.86462
2.3955	39.47754
2.396	26.48621
2.3965	15.50903
2.397	-2.01416
2.3975	-27.89612
2.398	-44.71436
2.3985	-56.5979
2.399	-62.8418
2.3995	-74.82605
2.4	-81.47278
2.4005	-90.33508
2.401	-86.8103
2.4015	-80.06287
2.402	-78.04871
2.4025	-76.43738
2.403	-65.96375
2.4035	-59.71985
2.404	-45.82214
2.4045	-38.57117
2.405	-26.68762
2.4055	-18.53027
2.406	-22.96143
2.4065	-17.92603
2.407	-8.05664
2.4075	-4.02832
2.408	2.92053
2.4085	7.5531
2.409	15.60974
2.4095	22.6593
2.41	26.98975
2.4105	29.40674
2.411	34.34143
2.4115	42.59949
2.412	45.82214
2.4125	51.5625
2.413	61.02905
2.4135	62.64038
2.414	66.76941
2.4145	65.46021
2.415	69.08569
2.4155	66.97083
2.416	60.62622
2.4165	69.58923
2.417	63.44604
2.4175	56.49719
2.418	45.11719
2.4185	31.4209
2.419	25.27771
2.4195	17.92603
2.42	15.30762
2.4205	2.21558
2.421	4.33044
2.4215	-7.04956
2.422	-8.35876
2.4225	-13.797
2.423	-13.19275
2.4235	-20.84656
2.424	-21.55151
2.4245	-25.68054
2.425	-29.70886
2.4255	-23.8678
2.426	-20.74585
2.4265	-20.54443
2.427	-16.81824
2.4275	-13.99841
2.428	-9.66797
2.4285	-12.68921
2.429	-3.7262
2.4295	-6.94885
2.43	-2.5177
2.4305	-1.51062
2.431	1.51062
2.4315	1.81274
2.432	2.21558
2.4325	6.84814
2.433	13.89771
2.4335	17.22107
2.434	24.67346
2.4345	22.35718
2.435	24.57275
2.4355	28.19824
2.436	34.34143
2.4365	41.29028
2.437	40.98816
2.4375	46.42639
2.438	53.67737
2.4385	51.15967
2.439	52.46887
2.4395	58.61206
2.44	67.37366
2.4405	70.3949
2.441	71.7041
2.4415	78.35083
2.442	78.14941
2.4425	76.33667
2.443	73.91968
2.4435	75.63171
2.444	74.32251
2.4445	74.62463
2.445	66.46729
2.4455	51.96533
2.446	39.17542
2.4465	26.28479
2.447	11.68213
2.4475	-2.11487
2.448	-19.94019
2.4485	-25.27771
2.449	-35.34851
2.4495	-42.59949
2.45	-44.21082
2.4505	-49.0448
2.451	-50.95825
2.4515	-56.90002
2.452	-54.98657
2.4525	-43.90869
2.453	-40.98816
2.4535	-33.43506
2.454	-31.52161
2.4545	-22.86072
2.455	-17.6239
2.4555	-7.95593
2.456	2.01416
2.4565	8.05664
2.457	16.71753
2.4575	21.24939
2.458	23.16284
2.4585	28.09753
2.459	29.70886
2.4595	44.91577
2.46	56.79932
2.4605	57.10144
2.461	61.93542
2.4615	60.22339
2.462	57.50427
2.4625	57.50427
2.463	49.85046
2.4635	40.88745
2.464	40.38391
2.4645	25.98267
2.465	16.3147
2.4655	6.2439
2.466	-12.78992
2.4665	-14.70337
2.467	-24.87488
2.4675	-30.61523
2.468	-37.56409
2.4685	-45.82214
2.469	-51.86462
2.4695	-48.54126
2.47	-57.50427
2.4705	-66.46729
2.471	-82.47986
2.4715	-89.02588
2.472	-87.61597
2.4725	-77.14233
2.473	-73.61755
2.4735	-66.46729
2.474	-64.151
2.4745	-60.52551
2.475	-54.98657
2.4755	-48.13843
2.476	-37.7655
2.4765	-26.48621
2.477	-16.71753
2.4775	-7.45239
2.478	-3.22266
2.4785	4.22974
2.479	1.10779
2.4795	-0.50354
2.48	2.92053
2.4805	2.11487
2.481	6.64673
2.4815	1.2085
2.482	2.71912
2.4825	7.85522
2.483	5.94177
2.4835	4.73328
2.484	12.89062
2.4845	11.78284
2.485	14.90479
2.4855	24.57275
2.486	19.94019
2.4865	18.8324
2.487	21.3501
2.4875	24.57275
2.488	22.6593
2.4885	26.18408
2.489	22.6593
2.4895	27.09045
2.49	29.91028
2.4905	35.04639
2.491	41.4917
2.4915	37.66479
2.492	44.31152
2.4925	46.92993
2.493	52.56958
2.4935	52.67029
2.494	55.99365
2.4945	54.28162
2.495	50.15259
2.4955	45.3186
2.496	42.29736
2.4965	30.61523
2.497	22.96143
2.4975	13.59558
2.498	12.48779
2.4985	4.43115
2.499	3.42407
2.4995	-6.94885
2.5	-14.70337
2.5005	-16.21399
2.501	-13.29346
2.5015	-4.83398
2.502	-2.92053
2.5025	1.81274
2.503	7.5531
2.5035	18.32886
2.504	15.91187
2.5045	13.89771
2.505	13.49487
2.5055	7.15027
2.506	5.23682
2.5065	3.92761
2.507	-0.80566
2.5075	-9.97009
2.508	-11.38
2.5085	-5.23682
2.509	-5.84106
2.5095	-10.17151
2.51	-5.33752
2.5105	-10.27222
2.511	-13.39417
2.5115	-13.797
2.512	-11.07788
2.5125	-7.85522
2.513	-8.7616
2.5135	-9.26514
2.514	-4.63257
2.5145	-3.02124
2.515	5.43823
2.5155	3.8269
2.516	4.53186
2.5165	9.97009
2.517	13.89771
2.5175	16.81824
2.518	17.82532
2.5185	20.44373
2.519	13.39417
2.5195	14.60266
2.52	19.83948
2.5205	8.25806
2.521	8.96301
2.5215	4.33044
2.522	10.57434
2.5225	17.22107
2.523	14.50195
2.5235	9.66797
2.524	11.88354
2.5245	12.89062
2.525	6.94885
2.5255	9.16443
2.526	6.14319
2.5265	-3.12195
2.527	-5.63965
2.5275	-5.0354
2.528	0.20142
2.5285	-0.60425
2.529	-1.40991
2.5295	-4.73328
2.53	-1.71204
2.5305	0.90637
2.531	8.35876
2.5315	7.95593
2.532	9.36584
2.5325	11.68213
2.533	11.58142
2.5335	15.71045
2.534	9.06372
2.5345	6.2439
2.535	1.61133
2.5355	-1.81274
2.536	5.74036
2.5365	8.96301
2.537	15.40833
2.5375	19.53735
2.538	18.42957
2.5385	20.24231
2.539	16.91895
2.5395	13.29346
2.54	17.52319
2.5405	16.01257
2.541	24.47205
2.5415	25.68054
2.542	15.60974
2.5425	21.95435
2.543	19.03381
2.5435	24.37134
2.544	25.07629
2.5445	26.3855
2.545	29.20532
2.5455	33.33435
2.546	25.177
2.5465	24.47205
2.547	32.93152
2.5475	31.32019
2.548	25.177
2.5485	14.19983
2.549	5.53894
2.5495	9.66797
2.55	8.7616
2.5505	11.38
2.551	11.07788
2.5515	11.17859
2.552	7.35168
2.5525	3.32336
2.553	-1.91345
2.5535	0.50354
2.554	8.15735
2.5545	13.19275
2.555	19.53735
2.5555	24.47205
2.556	27.59399
2.5565	18.22815
2.557	18.02673
2.5575	11.68213
2.558	12.5885
2.5585	9.86938
2.559	6.44531
2.5595	6.74744
2.56	-1.91345
2.5605	-2.31628
2.561	5.13611
2.5615	5.53894
2.562	10.97717
2.5625	6.94885
2.563	11.17859
2.5635	11.58142
2.564	13.797
2.5645	18.22815
2.565	13.59558
2.5655	9.46655
2.566	-0.60425
2.5665	-3.62549
2.567	-10.27222
2.5675	-7.35168
2.568	-16.51611
2.5685	-25.98267
2.569	-31.52161
2.5695	-35.2478
2.57	-31.32019
2.5705	-29.10461
2.571	-23.8678
2.5715	-26.28479
2.572	-31.92444
2.5725	-32.32727
2.573	-28.09753
2.5735	-29.00391
2.574	-25.07629
2.5745	-15.40833
2.575	-14.60266
2.5755	-4.63257
2.576	-5.94177
2.5765	-2.71912
2.577	-4.02832
2.5775	0.90637
2.578	0.30212
2.5785	2.21558
2.579	2.11487
2.5795	4.02832
2.58	7.65381
2.5805	8.25806
2.581	10.87646
2.5815	10.47363
2.582	10.0708
2.5825	10.87646
2.583	14.50195
2.5835	19.83948
2.584	21.24939
2.5845	17.92603
2.585	17.42249
2.5855	17.52319
2.586	19.23523
2.5865	24.57275
2.587	20.1416
2.5875	20.74585
2.588	26.78833
2.5885	28.09753
2.589	29.91028
2.5895	34.94568
2.59	29.50745
2.5905	28.29895
2.591	30.11169
2.5915	33.63647
2.592	34.54285
2.5925	37.36267
2.593	39.57825
2.5935	35.85205
2.594	33.43506
2.5945	30.11169
2.595	35.2478
2.5955	28.9032
2.596	27.19116
2.5965	22.55859
2.597	17.22107
2.5975	11.07788
2.598	15.1062
2.5985	10.17151
2.599	13.09204
2.5995	9.26514
2.6	13.69629
2.6005	4.02832
2.601	7.35168
2.6015	2.61841
2.602	-2.61841
2.6025	-0.70496
2.603	-5.33752
2.6035	-13.99841
2.604	-20.34302
2.6045	-24.16992
2.605	-24.87488
2.6055	-22.96143
2.606	-19.33594
2.6065	-15.30762
2.607	-14.40125
2.6075	-9.76868
2.608	-8.35876
2.6085	-5.74036
2.609	-7.25098
2.6095	-4.93469
2.61	5.33752
2.6105	-1.91345
2.611	2.21558
2.6115	0.30212
2.612	1.3092
2.6125	-1.00708
2.613	0.30212
2.6135	3.62549
2.614	-5.13611
2.6145	-1.3092
2.615	-8.25806
2.6155	-5.74036
2.616	-9.56726
2.6165	-8.7616
2.617	-14.40125
2.6175	-22.96143
2.618	-20.44373
2.6185	-13.59558
2.619	-9.16443
2.6195	-2.11487
2.62	2.41699
2.6205	4.53186
2.621	9.16443
2.6215	11.68213
2.622	15.71045
2.6225	15.71045
2.623	10.97717
2.6235	13.69629
2.624	15.20691
2.6245	16.81824
2.625	13.69629
2.6255	9.16443
2.626	9.86938
2.6265	6.84814
2.627	12.68921
2.6275	11.17859
2.628	13.797
2.6285	15.00549
2.629	10.47363
2.6295	14.90479
2.63	17.6239
2.6305	20.64514
2.631	16.3147
2.6315	13.59558
2.632	7.45239
2.6325	9.16443
2.633	4.33044
2.6335	2.5177
2.634	5.84106
2.6345	2.41699
2.635	-2.5177
2.6355	-5.53894
2.636	-7.95593
2.6365	-13.49487
2.637	-12.08496
2.6375	-13.99841
2.638	-15.50903
2.6385	-23.66638
2.639	-26.58691
2.6395	-31.52161
2.64	-28.80249
2.6405	-32.32727
2.641	-22.15576
2.6415	-22.55859
2.642	-9.66797
2.6425	-9.06372
2.643	-4.63257
2.6435	-2.11487
2.644	-6.04248
2.6445	-3.62549
2.645	-3.02124
2.6455	-2.41699
2.646	-0.50354
2.6465	0.80566
2.647	2.61841
2.6475	2.92053
2.648	0.50354
2.6485	1.40991
2.649	5.33752
2.6495	3.8269
2.65	4.12903
2.6505	2.5177
2.651	8.25806
2.6515	9.36584
2.652	6.3446
2.6525	5.0354
2.653	5.13611
2.6535	6.14319
2.654	8.7616
2.6545	3.32336
2.655	9.46655
2.6555	7.04956
2.656	8.96301
2.6565	9.06372
2.657	10.87646
2.6575	8.35876
2.658	10.27222
2.6585	13.59558
2.659	10.17151
2.6595	7.65381
2.66	7.5531
2.6605	14.09912
2.661	14.80408
2.6615	10.17151
2.662	16.71753
2.6625	26.28479
2.663	26.08337
2.6635	26.48621
2.664	22.96143
2.6645	26.78833
2.665	27.39258
2.6655	20.04089
2.666	17.72461
2.6665	15.1062
2.667	19.13452
2.6675	12.5885
2.668	8.96301
2.6685	7.25098
2.669	0.60425
2.6695	-2.81982
2.67	-9.66797
2.6705	-2.61841
2.671	-6.3446
2.6715	-7.25098
2.672	-6.3446
2.6725	-7.25098
2.673	-9.86938
2.6735	-1.81274
2.674	-8.35876
2.6745	-6.84814
2.675	-4.22974
2.6755	-1.51062
2.676	-8.25806
2.6765	-10.0708
2.677	-8.05664
2.6775	-3.22266
2.678	-1.10779
2.6785	-1.10779
2.679	-5.43823
2.6795	-3.12195
2.68	-3.12195
2.6805	1.00708
2.681	1.81274
2.6815	4.63257
2.682	1.2085
2.6825	9.46655
2.683	9.16443
2.6835	5.53894
2.684	6.94885
2.6845	5.13611
2.685	4.43115
2.6855	9.97009
2.686	2.5177
2.6865	0.60425
2.687	-2.41699
2.6875	-3.8269
2.688	-4.63257
2.6885	-1.91345
2.689	4.63257
2.6895	6.14319
2.69	3.52478
2.6905	5.63965
2.691	9.46655
2.6915	11.17859
2.692	13.49487
2.6925	12.99133
2.693	14.90479
2.6935	12.48779
2.694	14.09912
2.6945	11.78284
2.695	4.02832
2.6955	6.44531
2.696	-0.50354
2.6965	0.50354
2.697	0
2.6975	-1.91345
2.698	-5.63965
2.6985	-4.22974
2.699	-2.5177
2.6995	-5.13611
2.7	-4.73328
2.7005	0.10071
2.701	-3.92761
2.7015	-8.05664
2.702	-5.74036
2.7025	-3.02124
2.703	-2.61841
2.7035	-4.83398
2.704	-9.66797
2.7045	-2.71912
2.705	-4.83398
2.7055	-3.12195
2.706	-2.71912
2.7065	-0.60425
2.707	0.70496
2.7075	4.53186
2.708	-1.3092
2.7085	2.92053
2.709	3.32336
2.7095	4.53186
2.71	9.06372
2.7105	5.74036
2.711	8.56018
2.7115	2.41699
2.712	6.74744
2.7125	11.07788
2.713	6.74744
2.7135	14.30054
2.714	12.78992
2.7145	12.78992
2.715	11.48071
2.7155	11.07788
2.716	17.42249
2.7165	15.91187
2.717	13.797
2.7175	12.78992
2.718	14.70337
2.7185	10.77576
2.719	10.97717
2.7195	16.61682
2.72	18.73169
2.7205	24.67346
2.721	29.30603
2.7215	21.24939
2.722	20.94727
2.7225	18.42957
2.723	17.01965
2.7235	21.04797
2.724	23.46497
2.7245	19.13452
2.725	18.02673
2.7255	21.85364
2.726	16.61682
2.7265	15.81116
2.727	14.90479
2.7275	10.57434
2.728	7.75452
2.7285	10.87646
2.729	7.15027
2.7295	2.81982
2.73	3.62549
2.7305	3.02124
2.731	-3.12195
2.7315	-10.17151
2.732	-9.16443
2.7325	-18.63098
2.733	-24.06921
2.7335	-20.44373
2.734	-16.91895
2.7345	-16.81824
2.735	-19.13452
2.7355	-21.45081
2.736	-21.75293
2.7365	-18.8324
2.737	-15.71045
2.7375	-5.94177
2.738	-9.56726
2.7385	-8.96301
2.739	-8.96301
2.7395	-8.25806
2.74	-10.87646
2.7405	-6.14319
2.741	-9.06372
2.7415	-6.64673
2.742	-10.97717
2.7425	-9.97009
2.743	-7.04956
2.7435	-8.05664
2.744	-8.8623
2.7445	-9.06372
2.745	1.91345
2.7455	3.62549
2.746	4.12903
2.7465	-3.8269
2.747	-7.35168
2.7475	-5.33752
2.748	-1.61133
2.7485	-1.91345
2.749	0.90637
2.7495	1.61133
2.75	2.92053
2.7505	1.51062
2.751	3.12195
2.7515	-0.70496
2.752	-2.21558
2.7525	-0.40283
2.753	3.02124
2.7535	-1.00708
2.754	4.33044
2.7545	3.02124
2.755	4.43115
2.7555	5.33752
2.756	5.94177
2.7565	7.25098
2.757	14.09912
2.7575	12.68921
2.758	16.51611
2.7585	9.06372
2.759	18.02673
2.7595	20.1416
2.76	16.81824
2.7605	19.83948
2.761	22.55859
2.7615	22.86072
2.762	24.27063
2.7625	23.26355
2.763	29.40674
2.7635	18.32886
2.764	23.66638
2.7645	18.02673
2.765	14.30054
2.7655	9.97009
2.766	14.30054
2.7665	13.39417
2.767	9.26514
2.7675	3.42407
2.768	-1.81274
2.7685	-1.61133
2.769	-2.81982
2.7695	-10.47363
2.77	-6.3446
2.7705	-8.15735
2.771	-2.31628
2.7715	-9.46655
2.772	-10.17151
2.7725	-8.45947
2.773	-8.8623
2.7735	-7.45239
2.774	-9.66797
2.7745	-10.47363
2.775	-15.81116
2.7755	-7.35168
2.776	-3.8269
2.7765	-4.83398
2.777	3.92761
2.7775	4.43115
2.778	7.04956
2.7785	5.33752
2.779	10.17151
2.7795	18.42957
2.78	21.55151
2.7805	28.9032
2.781	45.72144
2.7815	50.55542
2.782	60.82764
2.7825	75.12817
2.783	81.67419
2.7835	79.05579
2.784	83.38623
2.7845	80.76782
2.785	79.15649
2.7855	75.63171
2.786	69.79065
2.7865	64.151
2.787	62.8418
2.7875	46.12427
2.788	39.47754
2.7885	26.78833
2.789	16.51611
2.7895	8.96301
2.79	-1.61133
2.7905	-6.54602
2.791	-12.78992
2.7915	-14.70337
2.792	-23.8678
2.7925	-32.7301
2.793	-42.39807
2.7935	-44.81506
2.794	-40.68604
2.7945	-43.60657
2.795	-48.64197
2.7955	-48.64197
2.796	-47.53418
2.7965	-45.41931
2.797	-44.11011
2.7975	-38.974
2.798	-42.19666
2.7985	-38.06763
2.799	-45.2179
2.7995	-48.54126
2.8	-44.91577
2.8005	-33.9386
2.801	-25.177
2.8015	-18.22815
2.802	-13.59558
2.8025	-6.14319
2.803	-7.5531
2.8035	-7.5531
2.804	-1.3092
2.8045	-6.44531
2.805	-16.71753
2.8055	-10.17151
2.806	-13.59558
2.8065	-17.92603
2.807	-13.49487
2.8075	-14.09912
2.808	-13.69629
2.8085	-5.63965
2.809	4.12903
2.8095	7.5531
2.81	9.56726
2.8105	20.04089
2.811	23.96851
2.8115	34.34143
2.812	42.19666
2.8125	43.40515
2.813	43.70728
2.8135	44.11011
2.814	44.51294
2.8145	40.08179
2.815	38.974
2.8155	38.57117
2.816	31.21948
2.8165	20.84656
2.817	10.67505
2.8175	11.2793
2.818	3.02124
2.8185	3.22266
2.819	-2.5177
2.8195	-6.64673
2.82	-5.63965
2.8205	-4.63257
2.821	-2.92053
2.8215	-8.7616
2.822	-2.71912
2.8225	1.61133
2.823	3.52478
2.8235	6.04248
2.824	9.16443
2.8245	13.69629
2.825	9.86938
2.8255	6.64673
2.826	2.61841
2.8265	6.2439
2.827	3.52478
2.8275	2.81982
2.828	-2.81982
2.8285	-3.92761
2.829	-10.37292
2.8295	-7.95593
2.83	-6.04248
2.8305	-5.63965
2.831	-12.68921
2.8315	-11.88354
2.832	-4.22974
2.8325	-5.13611
2.833	-5.13611
2.8335	-2.61841
2.834	-6.44531
2.8345	-10.27222
2.835	-9.76868
2.8355	-13.99841
2.836	-19.83948
2.8365	-18.93311
2.837	-33.13293
2.8375	-33.63647
2.838	-27.19116
2.8385	-21.14868
2.839	-22.55859
2.8395	-21.65222
2.84	-19.13452
2.8405	-12.08496
2.841	-9.36584
2.8415	-5.94177
2.842	-2.21558
2.8425	0.20142
2.843	1.91345
2.8435	-4.43115
2.844	0
2.8445	0.70496
2.845	3.02124
2.8455	7.95593
2.846	11.98425
2.8465	25.78125
2.847	41.59241
2.8475	54.18091
2.848	67.77649
2.8485	81.47278
2.849	85.5011
2.8495	92.55066
2.85	103.62854
2.8505	107.55615
2.851	110.6781
2.8515	113.49792
2.852	107.55615
2.8525	90.43579
2.853	82.78198
2.8535	69.99207
2.854	58.51135
2.8545	37.56409
2.855	18.73169
2.8555	-0.70496
2.856	-24.57275
2.8565	-43.00232
2.857	-56.19507
2.8575	-72.00623
2.858	-87.21313
2.8585	-95.5719
2.859	-102.52075
2.8595	-99.2981
2.86	-92.04712
2.8605	-95.47119
2.861	-86.50818
2.8615	-83.58765
2.862	-71.90552
2.8625	-63.84888
2.863	-58.20923
2.8635	-51.96533
2.864	-48.54126
2.8645	-37.56409
2.865	-33.43506
2.8655	-29.50745
2.866	-23.66638
2.8665	-17.6239
2.867	-14.50195
2.8675	-14.70337
2.868	-8.56018
2.8685	-7.35168
2.869	-6.74744
2.8695	-9.16443
2.87	-9.56726
2.8705	-3.12195
2.871	-8.15735
2.8715	-3.8269
2.872	0.40283
2.8725	9.46655
2.873	21.45081
2.8735	28.39966
2.874	32.12585
2.8745	35.65063
2.875	40.2832
2.8755	46.02356
2.876	51.15967
2.8765	56.5979
2.877	46.92993
2.8775	44.31152
2.878	45.01648
2.8785	44.51294
2.879	43.10303
2.8795	42.90161
2.88	38.36975
2.8805	36.4563
2.881	23.66638
2.8815	18.93311
2.882	21.65222
2.8825	16.01257
2.883	17.22107
2.8835	10.87646
2.884	12.89062
2.8845	10.17151
2.885	5.94177
2.8855	1.3092
2.886	2.92053
2.8865	3.22266
2.887	-4.33044
2.8875	-10.67505
2.888	-17.42249
2.8885	-21.04797
2.889	-23.56567
2.8895	-22.76001
2.89	-16.3147
2.8905	-16.81824
2.891	-16.3147
2.8915	-13.29346
2.892	-13.19275
2.8925	-13.49487
2.893	-21.45081
2.8935	-17.6239
2.894	-13.89771
2.8945	-10.57434
2.895	-8.45947
2.8955	-6.74744
2.896	-9.66797
2.8965	-8.56018
2.897	-3.7262
2.8975	-5.94177
2.898	-1.51062
2.8985	-2.61841
2.899	-3.12195
2.8995	-4.63257
2.9	-1.71204
2.9005	5.0354
2.901	3.22266
2.9015	0.40283
2.902	-1.91345
2.9025	-0.80566
2.903	3.32336
2.9035	2.92053
2.904	5.43823
2.9045	5.23682
2.905	8.56018
2.9055	12.78992
2.906	18.22815
2.9065	24.06921
2.907	28.39966
2.9075	33.53577
2.908	41.08887
2.9085	42.29736
2.909	48.13843
2.9095	51.5625
2.91	44.0094
2.9105	40.08179
2.911	42.39807
2.9115	38.36975
2.912	26.18408
2.9125	22.15576
2.913	18.73169
2.9135	26.48621
2.914	18.93311
2.9145	17.6239
2.915	11.17859
2.9155	12.18567
2.916	4.33044
2.9165	2.81982
2.917	-0.80566
2.9175	-7.75452
2.918	-14.80408
2.9185	-16.01257
2.919	-13.39417
2.9195	-21.3501
2.92	-23.16284
2.9205	-29.40674
2.921	-30.81665
2.9215	-28.70178
2.922	-24.77417
2.9225	-17.82532
2.923	-20.24231
2.9235	-11.88354
2.924	-11.68213
2.9245	-17.82532
2.925	-14.90479
2.9255	-14.50195
2.926	-16.71753
2.9265	-16.21399
2.927	-14.80408
2.9275	-21.3501
2.928	-25.27771
2.9285	-20.34302
2.929	-12.68921
2.9295	-7.5531
2.93	-6.2439
2.9305	6.3446
2.931	0.50354
2.9315	2.61841
2.932	7.04956
2.9325	9.86938
2.933	12.5885
2.9335	1.71204
2.934	2.81982
2.9345	3.7262
2.935	5.74036
2.9355	6.04248
2.936	8.05664
2.9365	15.30762
2.937	25.177
2.9375	25.57983
2.938	28.60107
2.9385	31.82373
2.939	41.29028
2.9395	38.06763
2.94	39.88037
2.9405	48.74268
2.941	46.62781
2.9415	42.90161
2.942	44.71436
2.9425	40.68604
2.943	36.75842
2.9435	33.73718
2.944	24.37134
2.9445	14.90479
2.945	5.43823
2.9455	5.43823
2.946	-3.12195
2.9465	-10.67505
2.947	-13.797
2.9475	-20.34302
2.948	-28.09753
2.9485	-34.54285
2.949	-35.65063
2.9495	-40.1825
2.95	-37.7655
2.9505	-36.75842
2.951	-24.47205
2.9515	-24.67346
2.952	-14.70337
2.9525	-8.66089
2.953	6.14319
2.9535	25.57983
2.954	37.36267
2.9545	40.08179
2.955	48.64197
2.9555	55.69153
2.956	54.0802
2.9565	48.13843
2.957	51.05896
2.9575	48.23914
2.958	43.80798
2.9585	50.15259
2.959	44.51294
2.9595	47.53418
2.96	44.81506
2.9605	49.0448
2.961	43.80798
2.9615	40.58533
2.962	43.10303
2.9625	40.48462
2.963	31.82373
2.9635	26.18408
2.964	19.03381
2.9645	-1.2085
2.965	-13.69629
2.9655	-25.57983
2.966	-32.83081
2.9665	-34.64355
2.967	-32.83081
2.9675	-48.44055
2.968	-49.0448
2.9685	-46.62781
2.969	-40.88745
2.9695	-33.9386
2.97	-25.88196
2.9705	-21.75293
2.971	-16.61682
2.9715	-12.68921
2.972	-7.5531
2.9725	-9.16443
2.973	-9.66797
2.9735	-4.83398
2.974	-4.93469
2.9745	-1.2085
2.975	-7.95593
2.9755	-4.33044
2.976	-8.8623
2.9765	-6.84814
2.977	-10.37292
2.9775	-11.58142
2.978	-17.22107
2.9785	-13.19275
2.979	-19.73877
2.9795	-19.43665
2.98	-17.6239
2.9805	-13.797
2.981	-14.19983
2.9815	-5.33752
2.982	-8.05664
2.9825	-3.7262
2.983	2.61841
2.9835	12.18567
2.984	13.49487
2.9845	4.43115
2.985	11.78284
2.9855	13.39417
2.986	21.55151
2.9865	20.1416
2.987	30.81665
2.9875	37.96692
2.988	43.40515
2.9885	44.61365
2.989	53.67737
2.9895	57.30286
2.99	56.90002
2.9905	55.59082
2.991	58.61206
2.9915	58.10852
2.992	59.41772
2.9925	56.09436
2.993	51.46179
2.9935	52.56958
2.994	53.27454
2.9945	49.34692
2.995	48.94409
2.9955	44.21082
2.996	36.85913
2.9965	36.05347
2.997	25.07629
2.9975	10.97717
2.998	2.41699
2.9985	-2.61841
2.999	-15.50903
2.9995	-27.99683
3	-27.29187
3.0005	-38.87329
3.001	-39.37683
3.0015	-37.96692
3.002	-42.59949
3.0025	-49.95117
3.003	-53.27454
3.0035	-59.51843
3.004	-63.74817
3.0045	-67.17224
3.005	-69.58923
3.0055	-69.08569
3.006	-68.17932
3.0065	-53.27454
3.007	-48.44055
3.0075	-51.36108
3.008	-47.13135
3.0085	-48.74268
3.009	-32.93152
3.0095	-28.9032
3.01	-13.89771
3.0105	-6.2439
3.011	-6.74744
3.0115	-4.33044
3.012	3.62549
3.0125	10.87646
3.013	19.53735
3.0135	31.62231
3.014	40.08179
3.0145	34.64355
3.015	45.01648
3.0155	40.98816
3.016	43.10303
3.0165	39.77966
3.017	38.87329
3.0175	42.39807
3.018	42.90161
3.0185	43.00232
3.019	36.35559
3.0195	35.04639
3.02	34.14001
3.0205	30.71594
3.021	24.77417
3.0215	29.91028
3.022	20.54443
3.0225	22.86072
3.023	26.48621
3.0235	24.06921
3.024	23.8678
3.0245	25.68054
3.025	28.70178
3.0255	31.82373
3.026	29.20532
3.0265	20.74585
3.027	14.90479
3.0275	3.52478
3.028	-4.53186
3.0285	-11.78284
3.029	-21.24939
3.0295	-28.09753
3.03	-32.02515
3.0305	-36.75842
3.031	-36.05347
3.0315	-32.12585
3.032	-36.25488
3.0325	-38.57117
3.033	-31.92444
3.0335	-22.55859
3.034	-18.53027
3.0345	-12.18567
3.035	-7.65381
3.0355	0.80566
3.036	0
3.0365	6.64673
3.037	17.22107
3.0375	18.32886
3.038	26.68762
3.0385	20.54443
3.039	23.46497
3.0395	25.27771
3.04	20.64514
3.0405	22.05505
3.041	22.96143
3.0415	16.61682
3.042	18.22815
3.0425	19.13452
3.043	16.81824
3.0435	18.42957
3.044	17.32178
3.0445	13.89771
3.045	9.76868
3.0455	12.48779
3.046	13.19275
3.0465	6.3446
3.047	7.45239
3.0475	9.16443
3.048	14.09912
3.0485	15.30762
3.049	22.96143
3.0495	23.26355
3.05	23.06213
3.0505	23.26355
3.051	19.13452
3.0515	22.15576
3.052	24.97559
3.0525	27.09045
3.053	19.94019
3.0535	16.61682
3.054	13.797
3.0545	14.19983
3.055	17.72461
3.0555	18.42957
3.056	10.37292
3.0565	13.39417
3.057	10.27222
3.0575	10.67505
3.058	9.06372
3.0585	6.44531
3.059	12.28638
3.0595	19.23523
3.06	24.57275
3.0605	29.20532
3.061	21.45081
3.0615	25.88196
3.062	25.07629
3.0625	23.66638
3.063	24.97559
3.0635	25.27771
3.064	22.96143
3.0645	21.24939
3.065	17.12036
3.0655	11.78284
3.066	8.8623
3.0665	3.8269
3.067	2.71912
3.0675	-7.45239
3.068	-12.5885
3.0685	-18.53027
3.069	-29.60815
3.0695	-32.52869
3.07	-33.63647
3.0705	-35.04639
3.071	-39.88037
3.0715	-43.90869
3.072	-39.67896
3.0725	-32.83081
3.073	-30.2124
3.0735	-18.42957
3.074	-13.99841
3.0745	0
3.075	7.04956
3.0755	13.59558
3.076	24.87488
3.0765	30.31311
3.077	38.26904
3.0775	37.66479
3.078	44.71436
3.0785	44.71436
3.079	36.55701
3.0795	34.74426
3.08	33.43506
3.0805	34.24072
3.081	28.19824
3.0815	25.98267
3.082	18.93311
3.0825	13.39417
3.083	13.59558
3.0835	3.32336
3.084	-10.37292
3.0845	-13.69629
3.085	-20.24231
3.0855	-20.94727
3.086	-29.80957
3.0865	-29.40674
3.087	-30.41382
3.0875	-29.40674
3.088	-37.36267
3.0885	-40.58533
3.089	-36.05347
3.0895	-35.2478
3.09	-25.88196
3.0905	-22.45789
3.091	-18.73169
3.0915	-11.17859
3.092	-11.2793
3.0925	-12.38708
3.093	-19.53735
3.0935	-20.04089
3.094	-16.3147
3.0945	-13.09204
3.095	-2.71912
3.0955	6.94885
3.096	16.21399
3.0965	17.52319
3.097	13.39417
3.0975	21.3501
3.098	20.94727
3.0985	18.12744
3.099	25.88196
3.0995	16.51611
3.1	15.40833
3.1005	18.53027
3.101	17.82532
3.1015	12.08496
3.102	8.05664
3.1025	6.2439
3.103	9.36584
3.1035	6.54602
3.104	6.74744
3.1045	1.40991
3.105	6.14319
3.1055	4.02832
3.106	2.81982
3.1065	4.02832
3.107	3.62549
3.1075	6.64673
3.108	6.14319
3.1085	1.61133
3.109	0.40283
3.1095	5.0354
3.11	1.61133
3.1105	6.14319
3.111	13.49487
3.1115	11.88354
3.112	15.1062
3.1125	12.38708
3.113	17.12036
3.1135	20.54443
3.114	20.84656
3.1145	17.22107
3.115	21.24939
3.1155	20.54443
3.116	23.16284
3.1165	19.73877
3.117	19.03381
3.1175	21.45081
3.118	19.94019
3.1185	24.27063
3.119	19.83948
3.1195	19.73877
3.12	19.94019
3.1205	15.00549
3.121	19.63806
3.1215	21.65222
3.122	26.28479
3.1225	19.03381
3.123	8.15735
3.1235	8.25806
3.124	10.67505
3.1245	11.07788
3.125	6.94885
3.1255	9.16443
3.126	-1.40991
3.1265	-5.84106
3.127	-1.91345
3.1275	-10.0708
3.128	-6.2439
3.1285	-2.92053
3.129	-3.42407
3.1295	-11.2793
3.13	-7.15027
3.1305	-14.09912
3.131	-15.50903
3.1315	-20.34302
3.132	-22.15576
3.1325	-23.96851
3.133	-21.45081
3.1335	-22.55859
3.134	-24.67346
3.1345	-12.68921
3.135	-11.48071
3.1355	-13.89771
3.136	-15.20691
3.1365	-11.98425
3.137	-7.04956
3.1375	-3.62549
3.138	-6.54602
3.1385	-8.25806
3.139	-1.81274
3.1395	-4.53186
3.14	-3.7262
3.1405	-1.61133
3.141	-4.53186
3.1415	-2.92053
3.142	-4.02832
3.1425	-5.53894
3.143	0.10071
3.1435	0.90637
3.144	10.67505
3.1445	12.89062
3.145	16.21399
3.1455	14.90479
3.146	15.40833
3.1465	21.14868
3.147	20.74585
3.1475	14.50195
3.148	18.22815
3.1485	16.91895
3.149	13.89771
3.1495	12.38708
3.15	14.40125
3.1505	10.67505
3.151	10.47363
3.1515	6.44531
3.152	6.2439
3.1525	5.33752
3.153	3.02124
3.1535	1.2085
3.154	3.92761
3.1545	5.23682
3.155	5.33752
3.1555	-3.52478
3.156	-10.27222
3.1565	-9.46655
3.157	-8.66089
3.1575	-6.64673
3.158	-7.95593
3.1585	-0.50354
3.159	-5.23682
3.1595	-3.62549
3.16	3.7262
3.1605	11.78284
3.161	3.22266
3.1615	3.52478
3.162	5.0354
3.1625	2.81982
3.163	3.92761
3.1635	12.68921
3.164	11.38
3.1645	17.01965
3.165	8.35876
3.1655	7.85522
3.166	4.33044
3.1665	8.15735
3.167	5.63965
3.1675	4.93469
3.168	2.21558
3.1685	7.75452
3.169	-4.22974
3.1695	0.20142
3.17	-3.12195
3.1705	-8.35876
3.171	-10.87646
3.1715	-15.20691
3.172	-13.19275
3.1725	-10.27222
3.173	-5.74036
3.1735	-8.05664
3.174	-4.43115
3.1745	-5.84106
3.175	-1.91345
3.1755	-1.71204
3.176	-2.21558
3.1765	-0.90637
3.177	-1.2085
3.1775	1.71204
3.178	2.11487
3.1785	2.21558
3.179	1.71204
3.1795	-0.60425
3.18	5.13611
3.1805	5.43823
3.181	6.44531
3.1815	5.13611
3.182	5.13611
3.1825	1.51062
3.183	1.3092
3.1835	5.0354
3.184	9.97009
3.1845	3.7262
3.185	9.86938
3.1855	9.56726
3.186	9.97009
3.1865	8.05664
3.187	11.78284
3.1875	17.52319
3.188	12.99133
3.1885	18.22815
3.189	21.55151
3.1895	23.46497
3.19	27.39258
3.1905	34.34143
3.191	34.14001
3.1915	34.94568
3.192	35.75134
3.1925	37.7655
3.193	35.65063
3.1935	33.33435
3.194	30.91736
3.1945	26.98975
3.195	25.27771
3.1955	13.19275
3.196	13.29346
3.1965	5.63965
3.197	5.0354
3.1975	-3.62549
3.198	-4.83398
3.1985	-4.93469
3.199	-8.15735
3.1995	-11.17859
3.2	-11.98425
3.2005	-18.63098
3.201	-16.21399
3.2015	-19.83948
3.202	-14.80408
3.2025	-19.53735
3.203	-18.22815
3.2035	-19.23523
3.204	-8.7616
3.2045	-13.29346
3.205	-10.0708
3.2055	-3.02124
3.206	-7.5531
3.2065	0.50354
3.207	0.30212
3.2075	5.53894
3.208	10.27222
3.2085	13.797
3.209	12.89062
3.2095	16.21399
3.21	17.72461
3.2105	10.97717
3.211	21.65222
3.2115	22.15576
3.212	12.89062
3.2125	11.58142
3.213	11.2793
3.2135	5.94177
3.214	1.40991
3.2145	-1.3092
3.215	-1.00708
3.2155	4.12903
3.216	3.62549
3.2165	-1.40991
3.217	3.42407
3.2175	7.04956
3.218	1.51062
3.2185	2.5177
3.219	1.91345
3.2195	-2.31628
3.22	-7.85522
3.2205	-4.43115
3.221	-5.63965
3.2215	1.00708
3.222	-3.62549
3.2225	-3.22266
3.223	2.61841
3.2235	3.8269
3.224	2.61841
3.2245	10.47363
3.225	11.98425
3.2255	11.88354
3.226	10.0708
3.2265	10.17151
3.227	5.53894
3.2275	10.17151
3.228	8.45947
3.2285	10.67505
3.229	16.41541
3.2295	14.09912
3.23	13.59558
3.2305	12.78992
3.231	15.60974
3.2315	16.21399
3.232	7.35168
3.2325	9.97009
3.233	14.80408
3.2335	15.71045
3.234	21.65222
3.2345	20.94727
3.235	25.177
3.2355	38.47046
3.236	40.58533
3.2365	42.90161
3.237	54.78516
3.2375	57.70569
3.238	49.85046
3.2385	55.99365
3.239	52.36816
3.2395	50.85754
3.24	53.07312
3.2405	48.74268
3.241	43.10303
3.2415	33.9386
3.242	28.39966
3.2425	21.65222
3.243	15.40833
3.2435	13.69629
3.244	9.46655
3.2445	0.70496
3.245	0.90637
3.2455	-1.91345
3.246	-5.23682
3.2465	-14.50195
3.247	-20.04089
3.2475	-25.88196
3.248	-34.94568
3.2485	-40.68604
3.249	-38.974
3.2495	-44.61365
3.25	-45.62073
3.2505	-44.0094
3.251	-44.21082
3.2515	-43.40515
3.252	-39.67896
3.2525	-31.32019
3.253	-27.99683
3.2535	-19.83948
3.254	-9.36584
3.2545	-5.33752
3.255	-0.70496
3.2555	4.22974
3.256	8.56018
3.2565	7.45239
3.257	6.44531
3.2575	4.12903
3.258	4.02832
3.2585	10.17151
3.259	11.17859
3.2595	13.39417
3.26	9.66797
3.2605	11.68213
3.261	11.68213
3.2615	3.12195
3.262	11.78284
3.2625	8.35876
3.263	12.5885
3.2635	17.12036
3.264	17.01965
3.2645	12.78992
3.265	13.69629
3.2655	10.47363
3.266	11.07788
3.2665	8.66089
3.267	8.15735
3.2675	8.7616
3.268	-1.71204
3.2685	-2.41699
3.269	-2.61841
3.2695	-5.13611
3.27	-3.32336
3.2705	-9.36584
3.271	-17.32178
3.2715	-9.46655
3.272	1.3092
3.2725	10.67505
3.273	6.04248
3.2735	17.01965
3.274	25.88196
3.2745	44.81506
3.275	51.76392
3.2755	61.43188
3.276	67.77649
3.2765	59.01489
3.277	51.66321
3.2775	44.81506
3.278	43.50586
3.2785	35.44922
3.279	31.11877
3.2795	24.57275
3.28	12.48779
3.2805	4.83398
3.281	-3.22266
3.2815	-12.18567
3.282	-11.68213
3.2825	-10.87646
3.283	-20.34302
3.2835	-25.57983
3.284	-31.11877
3.2845	-37.46338
3.285	-42.7002
3.2855	-41.39099
3.286	-41.29028
3.2865	-38.67188
3.287	-37.56409
3.2875	-40.38391
3.288	-42.90161
3.2885	-46.32568
3.289	-37.86621
3.2895	-36.4563
3.29	-22.55859
3.2905	-18.63098
3.291	-10.87646
3.2915	-5.74036
3.292	-6.64673
3.2925	-4.53186
3.293	3.32336
3.2935	0.50354
3.294	-2.31628
3.2945	-2.41699
3.295	3.32336
3.2955	-7.15027
3.296	-9.76868
3.2965	-3.92761
3.297	-1.3092
3.2975	1.3092
3.298	2.41699
3.2985	3.7262
3.299	8.56018
3.2995	12.08496
3.3	16.51611
3.3005	20.1416
3.301	21.3501
3.3015	25.88196
3.302	28.50037
3.3025	34.03931
3.303	42.49878
3.3035	45.92285
3.304	47.13135
3.3045	54.18091
3.305	58.20923
3.3055	55.49011
3.306	55.89294
3.3065	48.54126
3.307	38.47046
3.3075	36.95984
3.308	28.9032
3.3085	18.53027
3.309	4.83398
3.3095	2.41699
3.31	-4.33044
3.3105	-11.98425
3.311	-14.90479
3.3115	-23.76709
3.312	-19.23523
3.3125	-27.49329
3.313	-27.49329
3.3135	-23.56567
3.314	-18.12744
3.3145	-15.30762
3.315	-18.32886
3.3155	-9.36584
3.316	-12.08496
3.3165	-8.56018
3.317	-13.89771
3.3175	-9.66797
3.318	-12.5885
3.3185	-11.88354
3.319	-3.52478
3.3195	-10.0708
3.32	-4.12903
3.3205	-5.23682
3.321	-5.23682
3.3215	1.61133
3.322	6.14319
3.3225	4.63257
3.323	6.14319
3.3235	5.13611
3.324	8.35876
3.3245	6.84814
3.325	10.77576
3.3255	8.66089
3.326	9.56726
3.3265	5.53894
3.327	8.7616
3.3275	8.45947
3.328	10.47363
3.3285	11.07788
3.329	11.88354
3.3295	10.47363
3.33	14.60266
3.3305	10.87646
3.331	18.02673
3.3315	14.90479
3.332	17.72461
3.3325	26.48621
3.333	23.56567
3.3335	25.78125
3.334	28.60107
3.3345	31.72302
3.335	30.31311
3.3355	26.3855
3.336	26.08337
3.3365	27.09045
3.337	27.39258
3.3375	23.06213
3.338	21.55151
3.3385	23.46497
3.339	22.05505
3.3395	24.77417
3.34	29.50745
3.3405	33.63647
3.341	35.2478
3.3415	37.7655
3.342	35.34851
3.3425	33.43506
3.343	26.98975
3.3435	23.8678
3.344	17.22107
3.3445	14.30054
3.345	4.63257
3.3455	0
3.346	-5.74036
3.3465	-14.30054
3.347	-16.01257
3.3475	-10.97717
3.348	-16.61682
3.3485	-19.13452
3.349	-17.82532
3.3495	-23.56567
3.35	-26.68762
3.3505	-27.99683
3.351	-34.24072
3.3515	-39.67896
3.352	-41.99524
3.3525	-40.78674
3.353	-40.88745
3.3535	-28.19824
3.354	-23.26355
3.3545	-25.37842
3.355	-22.86072
3.3555	-17.72461
3.356	-10.67505
3.3565	-1.91345
3.357	-0.50354
3.3575	7.75452
3.358	16.21399
3.3585	15.00549
3.359	18.53027
3.3595	16.51611
3.36	21.24939
3.3605	19.53735
3.361	25.27771
3.3615	20.94727
3.362	28.9032
3.3625	31.01807
3.363	37.56409
3.3635	43.40515
3.364	44.0094
3.3645	38.77258
3.365	36.95984
3.3655	37.46338
3.366	32.62939
3.3665	32.22656
3.367	26.78833
3.3675	26.68762
3.368	29.10461
3.3685	23.56567
3.369	17.92603
3.3695	16.11328
3.37	5.63965
3.3705	1.91345
3.371	-3.22266
3.3715	-6.44531
3.372	-7.5531
3.3725	-17.01965
3.373	-24.47205
3.3735	-41.59241
3.374	-46.42639
3.3745	-56.19507
3.375	-65.25879
3.3755	-60.02197
3.376	-65.3595
3.3765	-62.9425
3.377	-59.61914
3.3775	-52.06604
3.378	-48.13843
3.3785	-38.06763
3.379	-29.00391
3.3795	-19.23523
3.38	-16.91895
3.3805	-8.66089
3.381	-13.39417
3.3815	-7.45239
3.382	-7.75452
3.3825	-7.95593
3.383	-3.8269
3.3835	-1.81274
3.384	1.00708
3.3845	0.90637
3.385	2.5177
3.3855	10.47363
3.386	10.97717
3.3865	8.05664
3.387	12.28638
3.3875	11.88354
3.388	17.12036
3.3885	18.73169
3.389	18.93311
3.3895	24.67346
3.39	25.88196
3.3905	35.34851
3.391	37.16125
3.3915	39.67896
3.392	42.29736
3.3925	46.32568
3.393	47.03064
3.3935	50.65613
3.394	44.81506
3.3945	38.47046
3.395	32.32727
3.3955	32.02515
3.396	26.28479
3.3965	18.93311
3.397	19.43665
3.3975	19.53735
3.398	16.71753
3.3985	17.32178
3.399	12.78992
3.3995	10.0708
3.4	1.81274
3.4005	1.3092
3.401	2.81982
3.4015	1.51062
3.402	-0.20142
3.4025	0.70496
3.403	-3.8269
3.4035	-19.23523
3.404	-27.59399
3.4045	-29.30603
3.405	-22.55859
3.4055	-27.39258
3.406	-21.04797
3.4065	-12.99133
3.407	-15.91187
3.4075	-11.48071
3.408	-10.67505
3.4085	-7.35168
3.409	-1.10779
3.4095	-6.54602
3.41	-0.60425
3.4105	-3.12195
3.411	0.70496
3.4115	-2.21558
3.412	-0.10071
3.4125	-1.3092
3.413	-0.50354
3.4135	2.71912
3.414	9.76868
3.4145	9.16443
3.415	10.87646
3.4155	13.09204
3.416	14.19983
3.4165	11.2793
3.417	12.28638
3.4175	10.17151
3.418	11.07788
3.4185	12.28638
3.419	9.46655
3.4195	20.24231
3.42	19.23523
3.4205	18.93311
3.421	20.74585
3.4215	22.86072
3.422	24.57275
3.4225	22.35718
3.423	25.27771
3.4235	21.85364
3.424	24.87488
3.4245	23.8678
3.425	26.48621
3.4255	27.89612
3.426	23.26355
3.4265	26.08337
3.427	23.96851
3.4275	22.55859
3.428	13.59558
3.4285	16.91895
3.429	23.96851
3.4295	29.40674
3.43	23.26355
3.4305	22.35718
3.431	17.22107
3.4315	18.32886
3.432	17.32178
3.4325	11.88354
3.433	14.40125
3.4335	13.29346
3.434	9.66797
3.4345	11.88354
3.435	5.43823
3.4355	2.11487
3.436	0.70496
3.4365	-4.83398
3.437	-9.66797
3.4375	-17.32178
3.438	-15.40833
3.4385	-21.65222
3.439	-24.16992
3.4395	-24.16992
3.44	-26.58691
3.4405	-30.11169
3.441	-24.97559
3.4415	-27.29187
3.442	-24.87488
3.4425	-21.65222
3.443	-14.70337
3.4435	-11.2793
3.444	-2.11487
3.4445	-7.75452
3.445	-4.63257
3.4455	1.61133
3.446	4.22974
3.4465	3.8269
3.447	2.61841
3.4475	6.14319
3.448	8.56018
3.4485	4.73328
3.449	12.18567
3.4495	9.56726
3.45	13.29346
3.4505	11.88354
3.451	12.99133
3.4515	12.68921
3.452	8.35876
3.4525	5.94177
3.453	-0.60425
3.4535	1.3092
3.454	0.90637
3.4545	-0.60425
3.455	-0.40283
3.4555	0.20142
3.456	-0.50354
3.4565	0.90637
3.457	0.80566
3.4575	-0.60425
3.458	-8.25806
3.4585	-6.94885
3.459	-5.23682
3.4595	-1.10779
3.46	-3.42407
3.4605	-3.22266
3.461	-4.12903
3.4615	-0.50354
3.462	-3.7262
3.4625	-2.31628
3.463	2.71912
3.4635	3.8269
3.464	3.62549
3.4645	5.43823
3.465	8.7616
3.4655	10.27222
3.466	7.95593
3.4665	9.86938
3.467	14.80408
3.4675	15.50903
3.468	12.78992
3.4685	9.26514
3.469	9.86938
3.4695	11.78284
3.47	18.63098
3.4705	17.92603
3.471	19.94019
3.4715	19.43665
3.472	20.64514
3.4725	20.54443
3.473	21.95435
3.4735	19.33594
3.474	20.74585
3.4745	15.91187
3.475	14.19983
3.4755	12.78992
3.476	4.93469
3.4765	7.15027
3.477	5.33752
3.4775	0.20142
3.478	-0.40283
3.4785	3.42407
3.479	3.12195
3.4795	-3.42407
3.48	-2.5177
3.4805	-0.60425
3.481	7.04956
3.4815	12.89062
3.482	17.72461
3.4825	17.22107
3.483	13.29346
3.4835	10.67505
3.484	7.65381
3.4845	7.85522
3.485	4.33044
3.4855	7.75452
3.486	9.26514
3.4865	6.44531
3.487	3.32336
3.4875	8.35876
3.488	3.8269
3.4885	5.43823
3.489	1.51062
3.4895	14.40125
3.49	16.3147
3.4905	19.23523
3.491	21.24939
3.4915	24.47205
3.492	30.11169
3.4925	29.10461
3.493	21.65222
3.4935	16.71753
3.494	17.12036
3.4945	8.66089
3.495	5.33752
3.4955	5.33752
3.496	5.74036
3.4965	-2.71912
3.497	-1.10779
3.4975	-7.85522
3.498	-10.77576
3.4985	-11.98425
3.499	-12.08496
3.4995	-10.97717
3.5	-21.45081
3.5005	-17.92603
3.501	-32.02515
3.5015	-34.54285
3.502	-36.75842
3.5025	-36.75842
3.503	-35.54993
3.5035	-30.61523
3.504	-24.06921
3.5045	-15.71045
3.505	-10.67505
3.5055	-10.27222
3.506	-8.7616
3.5065	2.11487
3.507	9.36584
3.5075	17.22107
3.508	11.68213
3.5085	14.90479
3.509	18.22815
3.5095	15.40833
3.51	21.75293
3.5105	28.60107
3.511	27.49329
3.5115	29.60815
3.512	40.58533
3.5125	40.88745
3.513	39.67896
3.5135	45.92285
3.514	53.27454
3.5145	57.70569
3.515	63.54675
3.5155	61.93542
3.516	72.81189
3.5165	71.7041
3.517	65.76233
3.5175	63.54675
3.518	67.27295
3.5185	66.46729
3.519	61.83472
3.5195	48.54126
3.52	37.06055
3.5205	35.95276
3.521	25.68054
3.5215	13.89771
3.522	-0.90637
3.5225	-12.38708
3.523	-16.81824
3.5235	-23.16284
3.524	-31.32019
3.5245	-40.78674
3.525	-50.55542
3.5255	-53.97949
3.526	-57.9071
3.5265	-55.3894
3.527	-56.79932
3.5275	-50.2533
3.528	-48.23914
3.5285	-43.30444
3.529	-37.96692
3.5295	-44.71436
3.53	-50.2533
3.5305	-51.05896
3.531	-49.54834
3.5315	-45.2179
3.532	-41.29028
3.5325	-30.11169
3.533	-24.67346
3.5335	-17.6239
3.534	-7.85522
3.5345	-3.42407
3.535	2.31628
3.5355	8.25806
3.536	18.22815
3.5365	20.34302
3.537	22.6593
3.5375	15.81116
3.538	15.20691
3.5385	17.32178
3.539	13.19275
3.5395	6.44531
3.54	5.43823
3.5405	5.33752
3.541	3.92761
3.5415	-9.76868
3.542	-1.51062
3.5425	-5.13611
3.543	-8.56018
3.5435	-2.5177
3.544	4.53186
3.5445	6.3446
3.545	10.0708
3.5455	18.53027
3.546	18.02673
3.5465	21.95435
3.547	26.28479
3.5475	20.44373
3.548	21.55151
3.5485	26.28479
3.549	23.46497
3.5495	18.02673
3.55	25.47913
3.5505	18.53027
3.551	21.65222
3.5515	23.66638
3.552	17.72461
3.5525	21.24939
3.553	18.73169
3.5535	17.22107
3.554	20.44373
3.5545	19.43665
3.555	21.24939
3.5555	15.30762
3.556	10.67505
3.5565	5.0354
3.557	5.13611
3.5575	-2.21558
3.558	-5.33752
3.5585	-12.48779
3.559	-21.55151
3.5595	-17.22107
3.56	-15.20691
3.5605	-18.8324
3.561	-19.63806
3.5615	-21.04797
3.562	-23.76709
3.5625	-14.80408
3.563	-14.09912
3.5635	-14.50195
3.564	-13.19275
3.5645	-11.48071
3.565	-16.01257
3.5655	-3.62549
3.566	-7.65381
3.5665	-8.05664
3.567	-6.64673
3.5675	-8.96301
3.568	-4.22974
3.5685	5.23682
3.569	12.28638
3.5695	20.24231
3.57	26.28479
3.5705	27.59399
3.571	33.13293
3.5715	37.36267
3.572	41.29028
3.5725	44.11011
3.573	47.43347
3.5735	45.72144
3.574	39.77966
3.5745	37.16125
3.575	32.12585
3.5755	24.37134
3.576	25.177
3.5765	20.94727
3.577	9.26514
3.5775	-0.30212
3.578	-2.01416
3.5785	-3.32336
3.579	-7.45239
3.5795	-13.19275
3.58	-14.80408
3.5805	-18.02673
3.581	-13.49487
3.5815	-16.41541
3.582	-14.80408
3.5825	-11.88354
3.583	-15.30762
3.5835	-21.3501
3.584	-22.96143
3.5845	-25.37842
3.585	-24.37134
3.5855	-16.21399
3.586	-11.17859
3.5865	-3.52478
3.587	-1.10779
3.5875	-2.21558
3.588	-1.2085
3.5885	0.70496
3.589	2.41699
3.5895	-1.40991
3.59	-1.2085
3.5905	-1.3092
3.591	3.42407
3.5915	-8.7616
3.592	-8.96301
3.5925	-16.21399
3.593	2.11487
3.5935	8.45947
3.594	20.34302
3.5945	26.28479
3.595	27.29187
3.5955	23.06213
3.596	18.73169
3.5965	13.89771
3.597	24.67346
3.5975	32.52869
3.598	26.58691
3.5985	33.73718
3.599	27.59399
3.5995	28.29895
3.6	28.9032
3.6005	23.36426
3.601	18.8324
3.6015	14.40125
3.602	8.66089
3.6025	9.36584
3.603	11.38
3.6035	20.04089
3.604	24.67346
3.6045	30.11169
3.605	26.08337
3.6055	26.68762
3.606	22.15576
3.6065	16.11328
3.607	9.06372
3.6075	2.31628
3.608	-2.41699
3.6085	-5.94177
3.609	-7.45239
3.6095	-7.85522
3.61	-18.73169
3.6105	-34.84497
3.611	-32.93152
3.6115	-36.35559
3.612	-28.39966
3.6125	-25.78125
3.613	-18.8324
3.6135	-18.53027
3.614	-13.29346
3.6145	-9.76868
3.615	-3.12195
3.6155	6.84814
3.616	11.58142
3.6165	14.19983
3.617	17.6239
3.6175	15.1062
3.618	19.43665
3.6185	22.25647
3.619	29.20532
3.6195	32.02515
3.62	40.2832
3.6205	37.7655
3.621	50.95825
3.6215	51.05896
3.622	55.3894
3.6225	52.46887
3.623	40.88745
3.6235	36.75842
3.624	23.96851
3.6245	13.89771
3.625	9.46655
3.6255	1.51062
3.626	-5.84106
3.6265	-23.56567
3.627	-36.85913
3.6275	-57.30286
3.628	-62.53967
3.6285	-67.67578
3.629	-62.13684
3.6295	-59.92126
3.63	-60.4248
3.6305	-49.54834
3.631	-40.1825
3.6315	-37.66479
3.632	-31.4209
3.6325	-29.80957
3.633	-27.49329
3.6335	-19.63806
3.634	-18.12744
3.6345	-18.12744
3.635	-17.32178
3.6355	-9.97009
3.636	-14.40125
3.6365	-9.76868
3.637	-4.43115
3.6375	6.54602
3.638	12.68921
3.6385	18.32886
3.639	20.04089
3.6395	25.88196
3.64	26.28479
3.6405	25.68054
3.641	27.6947
3.6415	25.07629
3.642	27.39258
3.6425	31.32019
3.643	31.21948
3.6435	29.40674
3.644	23.76709
3.6445	26.3855
3.645	22.35718
3.6455	26.78833
3.646	28.29895
3.6465	26.28479
3.647	22.15576
3.6475	19.13452
3.648	13.19275
3.6485	11.78284
3.649	12.18567
3.6495	10.97717
3.65	8.7616
3.6505	1.10779
3.651	3.22266
3.6515	4.53186
3.652	5.63965
3.6525	6.44531
3.653	10.47363
3.6535	5.63965
3.654	15.50903
3.6545	12.78992
3.655	15.30762
3.6555	12.18567
3.656	13.89771
3.6565	19.23523
3.657	16.61682
3.6575	10.77576
3.658	7.35168
3.6585	11.58142
3.659	9.46655
3.6595	5.13611
3.66	3.92761
3.6605	7.65381
3.661	7.25098
3.6615	6.84814
3.662	7.45239
3.6625	1.51062
3.663	-0.10071
3.6635	-2.71912
3.664	-4.73328
3.6645	-0.50354
3.665	0.70496
3.6655	2.31628
3.666	-0.30212
3.6665	-3.32336
3.667	-2.61841
3.6675	10.27222
3.668	9.06372
3.6685	19.94019
3.669	20.54443
3.6695	18.53027
3.67	16.61682
3.6705	19.43665
3.671	20.54443
3.6715	26.3855
3.672	18.32886
3.6725	21.75293
3.673	18.53027
3.6735	20.64514
3.674	15.00549
3.6745	14.30054
3.675	7.5531
3.6755	5.94177
3.676	0.10071
3.6765	-0.70496
3.677	-9.56726
3.6775	-16.21399
3.678	-24.47205
3.6785	-21.75293
3.679	-21.04797
3.6795	-16.21399
3.68	-16.01257
3.6805	-17.92603
3.681	-17.52319
3.6815	-24.57275
3.682	-19.63806
3.6825	-17.22107
3.683	-8.66089
3.6835	-6.44531
3.684	-3.62549
3.6845	-1.3092
3.685	-3.02124
3.6855	-3.7262
3.686	2.71912
3.6865	8.66089
3.687	12.08496
3.6875	17.72461
3.688	22.96143
3.6885	33.9386
3.689	35.65063
3.6895	40.58533
3.69	43.40515
3.6905	40.08179
3.691	45.11719
3.6915	40.88745
3.692	43.70728
3.6925	37.16125
3.693	43.60657
3.6935	44.0094
3.694	49.44763
3.6945	48.23914
3.695	51.46179
3.6955	46.42639
3.696	41.4917
3.6965	37.86621
3.697	30.61523
3.6975	25.177
3.698	20.54443
3.6985	11.17859
3.699	3.8269
3.6995	-5.94177
3.7	-12.28638
3.7005	-23.56567
3.701	-33.33435
3.7015	-35.14709
3.702	-28.39966
3.7025	-29.40674
3.703	-25.47913
3.7035	-24.77417
3.704	-21.55151
3.7045	-31.11877
3.705	-35.2478
3.7055	-35.75134
3.706	-41.59241
3.7065	-41.4917
3.707	-38.06763
3.7075	-28.9032
3.708	-20.94727
3.7085	-9.97009
3.709	2.41699
3.7095	14.80408
3.71	25.07629
3.7105	30.41382
3.711	32.7301
3.7115	33.73718
3.712	39.77966
3.7125	36.55701
3.713	31.82373
3.7135	36.4563
3.714	29.30603
3.7145	22.55859
3.715	22.6593
3.7155	19.43665
3.716	14.70337
3.7165	14.60266
3.717	11.68213
3.7175	1.10779
3.718	-5.63965
3.7185	-10.27222
3.719	-10.67505
3.7195	-21.3501
3.72	-27.6947
3.7205	-37.46338
3.721	-40.88745
3.7215	-39.47754
3.722	-38.16833
3.7225	-36.4563
3.723	-35.54993
3.7235	-31.92444
3.724	-22.15576
3.7245	-16.51611
3.725	-10.0708
3.7255	-8.25806
3.726	-4.33044
3.7265	-7.65381
3.727	7.35168
3.7275	14.60266
3.728	21.75293
3.7285	23.76709
3.729	19.03381
3.7295	18.53027
3.73	17.6239
3.7305	17.22107
3.731	14.50195
3.7315	12.08496
3.732	7.45239
3.7325	8.15735
3.733	10.77576
3.7335	10.47363
3.734	4.73328
3.7345	-2.31628
3.735	-13.49487
3.7355	-18.53027
3.736	-25.47913
3.7365	-24.47205
3.737	-31.4209
3.7375	-22.76001
3.738	-22.15576
3.7385	-20.34302
3.739	-13.39417
3.7395	-7.35168
3.74	-1.10779
3.7405	6.04248
3.741	12.28638
3.7415	13.59558
3.742	11.78284
3.7425	17.01965
3.743	22.86072
3.7435	27.79541
3.744	32.12585
3.7445	32.12585
3.745	33.13293
3.7455	33.53577
3.746	27.79541
3.7465	24.27063
3.747	20.84656
3.7475	10.87646
3.748	3.12195
3.7485	2.81982
3.749	-5.74036
3.7495	-7.35168
3.75	-7.25098
3.7505	-16.51611
3.751	-15.00549
3.7515	-21.04797
3.752	-27.19116
3.7525	-30.2124
3.753	-28.80249
3.7535	-29.20532
3.754	-21.95435
3.7545	-23.16284
3.755	-19.94019
3.7555	-11.88354
3.756	-8.15735
3.7565	-2.01416
3.757	4.22974
3.7575	2.31628
3.758	4.63257
3.7585	6.44531
3.759	7.45239
3.7595	14.90479
3.76	9.46655
3.7605	8.96301
3.761	9.16443
3.7615	9.16443
3.762	16.11328
3.7625	15.40833
3.763	17.42249
3.7635	17.92603
3.764	14.30054
3.7645	12.68921
3.765	10.87646
3.7655	11.38
3.766	11.07788
3.7665	15.81116
3.767	15.00549
3.7675	18.73169
3.768	20.1416
3.7685	18.63098
3.769	15.30762
3.7695	15.91187
3.77	16.11328
3.7705	14.40125
3.771	14.90479
3.7715	17.22107
3.772	13.59558
3.7725	16.41541
3.773	14.09912
3.7735	19.43665
3.774	16.81824
3.7745	9.66797
3.775	6.84814
3.7755	1.40991
3.776	-0.70496
3.7765	-1.10779
3.777	-4.83398
3.7775	-3.8269
3.778	-4.12903
3.7785	-2.41699
3.779	-2.31628
3.7795	-2.21558
3.78	-1.10779
3.7805	-1.91345
3.781	-4.02832
3.7815	-6.04248
3.782	-6.3446
3.7825	-3.92761
3.783	-6.2439
3.7835	-4.02832
3.784	-6.84814
3.7845	-3.42407
3.785	-3.32336
3.7855	0.10071
3.786	-8.05664
3.7865	-4.22974
3.787	-3.7262
3.7875	2.11487
3.788	-1.61133
3.7885	-0.60425
3.789	2.61841
3.7895	6.54602
3.79	16.41541
3.7905	23.26355
3.791	28.29895
3.7915	28.09753
3.792	33.73718
3.7925	35.54993
3.793	32.32727
3.7935	32.7301
3.794	27.59399
3.7945	23.16284
3.795	18.93311
3.7955	15.30762
3.796	6.84814
3.7965	0.80566
3.797	-3.42407
3.7975	-0.50354
3.798	-9.06372
3.7985	-19.94019
3.799	-17.52319
3.7995	-23.16284
3.8	-18.53027
3.8005	-14.70337
3.801	-19.73877
3.8015	-18.12744
3.802	-15.20691
3.8025	-6.44531
3.803	-3.52478
3.8035	0
3.804	-0.60425
3.8045	3.7262
3.805	5.84106
3.8055	7.65381
3.806	4.63257
3.8065	-3.22266
3.807	-7.95593
3.8075	-11.17859
3.808	-10.77576
3.8085	1.3092
3.809	6.14319
3.8095	10.27222
3.81	19.53735
3.8105	25.177
3.811	34.14001
3.8115	41.89453
3.812	41.18958
3.8125	42.90161
3.813	32.93152
3.8135	28.60107
3.814	31.32019
3.8145	25.78125
3.815	21.3501
3.8155	15.20691
3.816	2.92053
3.8165	0.70496
3.817	-5.74036
3.8175	-3.12195
3.818	-6.04248
3.8185	-10.17151
3.819	-12.99133
3.8195	-14.40125
3.82	-8.56018
3.8205	-13.09204
3.821	-9.66797
3.8215	-9.26514
3.822	-12.89062
3.8225	-17.92603
3.823	-15.91187
3.8235	-4.93469
3.824	-2.71912
3.8245	6.14319
3.825	16.3147
3.8255	18.12744
3.826	26.3855
3.8265	27.89612
3.827	31.62231
3.8275	26.3855
3.828	27.09045
3.8285	27.39258
3.829	29.80957
3.8295	26.88904
3.83	22.15576
3.8305	14.09912
3.831	9.97009
3.8315	14.50195
3.832	13.09204
3.8325	7.65381
3.833	2.01416
3.8335	3.8269
3.834	-0.70496
3.8345	-10.87646
3.835	-20.1416
3.8355	-16.01257
3.836	-15.40833
3.8365	-24.57275
3.837	-22.15576
3.8375	-19.03381
3.838	-30.01099
3.8385	-34.34143
3.839	-31.21948
3.8395	-22.86072
3.84	-24.06921
3.8405	-23.56567
3.841	-17.32178
3.8415	-22.25647
3.842	-21.75293
3.8425	-12.68921
3.843	0.90637
3.8435	11.58142
3.844	14.90479
3.8445	37.56409
3.845	42.49878
3.8455	35.54993
3.846	38.47046
3.8465	31.62231
3.847	30.11169
3.8475	31.01807
3.848	25.37842
3.8485	14.50195
3.849	8.66089
3.8495	10.0708
3.85	4.43115
3.8505	1.51062
3.851	0.60425
3.8515	3.52478
3.852	1.51062
3.8525	5.23682
3.853	10.77576
3.8535	14.09912
3.854	13.797
3.8545	12.48779
3.855	10.0708
3.8555	5.13611
3.856	5.13611
3.8565	7.85522
3.857	5.43823
3.8575	-5.43823
3.858	-15.20691
3.8585	-18.93311
3.859	-17.01965
3.8595	-22.15576
3.86	-17.6239
3.8605	-8.7616
3.861	-9.97009
3.8615	-9.76868
3.862	-10.67505
3.8625	-17.32178
3.863	-29.70886
3.8635	-35.65063
3.864	-43.70728
3.8645	-49.74976
3.865	-50.55542
3.8655	-50.45471
3.866	-50.354
3.8665	-44.71436
3.867	-31.62231
3.8675	-25.78125
3.868	-14.70337
3.8685	-10.37292
3.869	-6.54602
3.8695	-3.12195
3.87	-1.81274
3.8705	2.61841
3.871	10.27222
3.8715	16.3147
3.872	24.16992
3.8725	19.63806
3.873	24.47205
