Domenico_Di_Fonza_Left_1.c3d  



Time(s):	B_L_bicipite(μV):
0	-0.40283
0.0005	6.2439
0.001	3.32336
0.0015	3.32336
0.002	2.31628
0.0025	3.62549
0.003	4.02832
0.0035	2.71912
0.004	0.10071
0.0045	2.21558
0.005	1.81274
0.0055	4.53186
0.006	0
0.0065	3.42407
0.007	-3.32336
0.0075	-2.71912
0.008	1.61133
0.0085	6.2439
0.009	6.94885
0.0095	3.22266
0.01	1.51062
0.0105	3.52478
0.011	6.2439
0.0115	1.2085
0.012	1.3092
0.0125	-2.41699
0.013	-5.74036
0.0135	4.63257
0.014	-2.5177
0.0145	-1.51062
0.015	1.51062
0.0155	-0.40283
0.016	-0.70496
0.0165	3.8269
0.017	4.53186
0.0175	9.06372
0.018	4.53186
0.0185	8.35876
0.019	5.23682
0.0195	-0.40283
0.02	1.71204
0.0205	3.22266
0.021	2.11487
0.0215	7.45239
0.022	1.51062
0.0225	8.7616
0.023	3.7262
0.0235	5.74036
0.024	6.44531
0.0245	5.94177
0.025	4.93469
0.0255	7.04956
0.026	8.05664
0.0265	9.16443
0.027	2.5177
0.0275	3.12195
0.028	2.92053
0.0285	3.12195
0.029	2.81982
0.0295	5.13611
0.03	5.74036
0.0305	1.51062
0.031	-0.30212
0.0315	4.53186
0.032	2.41699
0.0325	-1.00708
0.033	0.50354
0.0335	5.43823
0.034	1.81274
0.0345	2.61841
0.035	8.8623
0.0355	1.40991
0.036	4.53186
0.0365	1.10779
0.037	1.3092
0.0375	2.21558
0.038	1.2085
0.0385	2.5177
0.039	5.94177
0.0395	6.54602
0.04	-2.5177
0.0405	-2.92053
0.041	-2.81982
0.0415	2.92053
0.042	1.81274
0.0425	3.92761
0.043	8.15735
0.0435	3.42407
0.044	6.74744
0.0445	8.8623
0.045	6.3446
0.0455	4.73328
0.046	4.93469
0.0465	0.50354
0.047	2.92053
0.0475	-3.42407
0.048	1.61133
0.0485	-4.73328
0.049	-5.0354
0.0495	-3.42407
0.05	-5.74036
0.0505	-4.53186
0.051	-3.8269
0.0515	-3.12195
0.052	0.80566
0.0525	-0.60425
0.053	1.2085
0.0535	0.40283
0.054	-3.7262
0.0545	2.61841
0.055	0.50354
0.0555	0.10071
0.056	-0.50354
0.0565	-1.00708
0.057	-0.60425
0.0575	3.42407
0.058	-2.31628
0.0585	3.8269
0.059	3.42407
0.0595	4.02832
0.06	3.12195
0.0605	0.90637
0.061	7.15027
0.0615	6.74744
0.062	8.25806
0.0625	4.53186
0.063	6.64673
0.0635	9.66797
0.064	5.63965
0.0645	5.84106
0.065	10.47363
0.0655	5.43823
0.066	4.43115
0.0665	8.15735
0.067	8.35876
0.0675	7.85522
0.068	2.71912
0.0685	8.66089
0.069	9.26514
0.0695	9.66797
0.07	11.78284
0.0705	12.89062
0.071	5.53894
0.0715	11.38
0.072	2.01416
0.0725	6.3446
0.073	5.23682
0.0735	2.01416
0.074	4.33044
0.0745	5.94177
0.075	5.33752
0.0755	10.17151
0.076	11.17859
0.0765	14.19983
0.077	6.3446
0.0775	7.95593
0.078	6.14319
0.0785	7.75452
0.079	6.44531
0.0795	4.83398
0.08	10.67505
0.0805	10.37292
0.081	8.25806
0.0815	5.63965
0.082	9.97009
0.0825	9.26514
0.083	3.8269
0.0835	8.25806
0.084	8.8623
0.0845	7.95593
0.085	5.84106
0.0855	9.86938
0.086	8.15735
0.0865	8.25806
0.087	7.75452
0.0875	12.08496
0.088	10.77576
0.0885	6.54602
0.089	7.95593
0.0895	11.88354
0.09	8.45947
0.0905	7.35168
0.091	7.45239
0.0915	9.06372
0.092	10.47363
0.0925	8.56018
0.093	7.15027
0.0935	11.68213
0.094	3.22266
0.0945	7.04956
0.095	6.94885
0.0955	10.67505
0.096	13.59558
0.0965	6.14319
0.097	3.32336
0.0975	6.54602
0.098	5.43823
0.0985	5.84106
0.099	4.33044
0.0995	8.05664
0.1	5.63965
0.1005	5.53894
0.101	4.02832
0.1015	3.62549
0.102	1.00708
0.1025	3.92761
0.103	7.85522
0.1035	-0.30212
0.104	7.35168
0.1045	8.96301
0.105	8.8623
0.1055	8.15735
0.106	11.58142
0.1065	10.57434
0.107	4.83398
0.1075	5.94177
0.108	11.38
0.1085	6.44531
0.109	5.63965
0.1095	4.02832
0.11	9.36584
0.1105	9.86938
0.111	7.95593
0.1115	8.66089
0.112	6.94885
0.1125	5.63965
0.113	8.25806
0.1135	5.13611
0.114	4.63257
0.1145	5.74036
0.115	5.43823
0.1155	4.02832
0.116	8.35876
0.1165	5.13611
0.117	9.56726
0.1175	3.8269
0.118	3.8269
0.1185	0.20142
0.119	4.63257
0.1195	8.35876
0.12	6.54602
0.1205	7.15027
0.121	15.50903
0.1215	5.94177
0.122	1.51062
0.1225	4.93469
0.123	7.35168
0.1235	10.67505
0.124	6.94885
0.1245	5.0354
0.125	5.0354
0.1255	5.53894
0.126	7.35168
0.1265	1.81274
0.127	9.26514
0.1275	8.15735
0.128	7.25098
0.1285	5.0354
0.129	5.84106
0.1295	7.75452
0.13	8.05664
0.1305	3.7262
0.131	-1.2085
0.1315	4.02832
0.132	6.74744
0.1325	1.91345
0.133	5.43823
0.1335	2.11487
0.134	3.8269
0.1345	6.64673
0.135	3.52478
0.1355	4.53186
0.136	7.85522
0.1365	8.05664
0.137	6.64673
0.1375	4.43115
0.138	2.71912
0.1385	4.93469
0.139	4.12903
0.1395	5.94177
0.14	5.33752
0.1405	11.07788
0.141	7.5531
0.1415	8.45947
0.142	10.97717
0.1425	6.94885
0.143	9.46655
0.1435	7.45239
0.144	7.35168
0.1445	7.45239
0.145	2.31628
0.1455	10.57434
0.146	10.0708
0.1465	7.04956
0.147	4.43115
0.1475	9.76868
0.148	3.7262
0.1485	4.22974
0.149	10.87646
0.1495	6.2439
0.15	15.30762
0.1505	6.54602
0.151	4.63257
0.1515	8.15735
0.152	1.81274
0.1525	0
0.153	2.5177
0.1535	5.84106
0.154	3.7262
0.1545	7.45239
0.155	6.84814
0.1555	9.66797
0.156	2.31628
0.1565	2.21558
0.157	6.64673
0.1575	4.22974
0.158	9.86938
0.1585	4.53186
0.159	3.02124
0.1595	4.53186
0.16	5.13611
0.1605	9.06372
0.161	8.45947
0.1615	3.02124
0.162	5.94177
0.1625	7.75452
0.163	5.53894
0.1635	4.02832
0.164	5.74036
0.1645	5.23682
0.165	3.22266
0.1655	3.32336
0.166	6.54602
0.1665	6.84814
0.167	2.92053
0.1675	5.33752
0.168	7.45239
0.1685	4.93469
0.169	6.64673
0.1695	5.33752
0.17	7.45239
0.1705	5.74036
0.171	3.32336
0.1715	-1.91345
0.172	3.42407
0.1725	3.52478
0.173	10.37292
0.1735	9.76868
0.174	6.84814
0.1745	6.64673
0.175	4.43115
0.1755	5.33752
0.176	13.99841
0.1765	8.66089
0.177	5.84106
0.1775	13.09204
0.178	8.56018
0.1785	7.25098
0.179	6.74744
0.1795	9.56726
0.18	6.84814
0.1805	4.63257
0.181	0.40283
0.1815	-0.80566
0.182	4.12903
0.1825	7.95593
0.183	5.53894
0.1835	2.92053
0.184	5.84106
0.1845	-2.31628
0.185	4.43115
0.1855	9.66797
0.186	5.13611
0.1865	3.7262
0.187	1.61133
0.1875	4.12903
0.188	4.43115
0.1885	6.44531
0.189	8.25806
0.1895	7.65381
0.19	8.66089
0.1905	4.93469
0.191	1.10779
0.1915	8.7616
0.192	6.94885
0.1925	6.64673
0.193	1.00708
0.1935	6.54602
0.194	1.51062
0.1945	3.12195
0.195	2.01416
0.1955	7.15027
0.196	6.74744
0.1965	1.40991
0.197	1.10779
0.1975	5.84106
0.198	7.95593
0.1985	8.7616
0.199	0.60425
0.1995	6.64673
0.2	8.8623
0.2005	4.53186
0.201	2.92053
0.2015	5.23682
0.202	0
0.2025	1.3092
0.203	5.53894
0.2035	3.7262
0.204	5.74036
0.2045	2.5177
0.205	2.41699
0.2055	2.81982
0.206	3.12195
0.2065	9.66797
0.207	8.7616
0.2075	8.05664
0.208	5.23682
0.2085	3.8269
0.209	5.53894
0.2095	-0.30212
0.21	6.2439
0.2105	1.40991
0.211	3.92761
0.2115	4.02832
0.212	3.32336
0.2125	-3.02124
0.213	-1.3092
0.2135	3.42407
0.214	4.93469
0.2145	3.8269
0.215	7.95593
0.2155	3.32336
0.216	7.15027
0.2165	9.46655
0.217	8.66089
0.2175	5.33752
0.218	2.61841
0.2185	4.43115
0.219	5.84106
0.2195	2.31628
0.22	8.56018
0.2205	5.33752
0.221	6.54602
0.2215	6.54602
0.222	7.04956
0.2225	8.15735
0.223	-0.30212
0.2235	5.63965
0.224	0.50354
0.2245	4.12903
0.225	7.35168
0.2255	7.45239
0.226	8.96301
0.2265	3.52478
0.227	4.12903
0.2275	2.21558
0.228	6.44531
0.2285	7.75452
0.229	2.92053
0.2295	7.45239
0.23	6.44531
0.2305	6.54602
0.231	1.40991
0.2315	5.13611
0.232	3.22266
0.2325	-1.40991
0.233	4.93469
0.2335	2.31628
0.234	5.23682
0.2345	1.3092
0.235	5.33752
0.2355	0
0.236	-0.40283
0.2365	1.81274
0.237	10.57434
0.2375	9.36584
0.238	0.90637
0.2385	-1.00708
0.239	4.53186
0.2395	2.01416
0.24	3.52478
0.2405	2.92053
0.241	1.81274
0.2415	5.43823
0.242	11.58142
0.2425	7.25098
0.243	8.05664
0.2435	4.73328
0.244	4.73328
0.2445	4.33044
0.245	11.58142
0.2455	6.14319
0.246	6.14319
0.2465	4.02832
0.247	2.61841
0.2475	4.02832
0.248	-3.62549
0.2485	3.62549
0.249	1.51062
0.2495	1.00708
0.25	4.12903
0.2505	3.62549
0.251	2.11487
0.2515	8.25806
0.252	4.33044
0.2525	0.80566
0.253	2.81982
0.2535	3.92761
0.254	4.63257
0.2545	4.12903
0.255	3.92761
0.2555	9.26514
0.256	8.56018
0.2565	10.0708
0.257	8.35876
0.2575	8.35876
0.258	7.04956
0.2585	1.61133
0.259	8.25806
0.2595	8.8623
0.26	4.02832
0.2605	2.31628
0.261	9.46655
0.2615	8.66089
0.262	10.27222
0.2625	1.81274
0.263	7.5531
0.2635	4.83398
0.264	4.02832
0.2645	1.71204
0.265	5.33752
0.2655	6.64673
0.266	11.78284
0.2665	7.65381
0.267	15.81116
0.2675	14.50195
0.268	12.18567
0.2685	13.29346
0.269	17.42249
0.2695	17.01965
0.27	13.797
0.2705	19.03381
0.271	16.71753
0.2715	11.78284
0.272	10.77576
0.2725	15.50903
0.273	9.06372
0.2735	11.88354
0.274	7.04956
0.2745	10.17151
0.275	5.84106
0.2755	4.63257
0.276	5.33752
0.2765	8.25806
0.277	11.68213
0.2775	6.84814
0.278	9.36584
0.2785	10.57434
0.279	10.17151
0.2795	12.89062
0.28	17.72461
0.2805	19.13452
0.281	21.04797
0.2815	19.83948
0.282	20.84656
0.2825	20.34302
0.283	15.30762
0.2835	14.09912
0.284	7.95593
0.2845	2.31628
0.285	3.02124
0.2855	3.42407
0.286	3.02124
0.2865	-2.71912
0.287	1.40991
0.2875	-2.92053
0.288	7.35168
0.2885	4.02832
0.289	11.07788
0.2895	9.66797
0.29	7.15027
0.2905	5.74036
0.291	-2.31628
0.2915	-4.43115
0.292	1.81274
0.2925	3.42407
0.293	9.56726
0.2935	12.28638
0.294	7.45239
0.2945	10.17151
0.295	13.09204
0.2955	12.18567
0.296	20.64514
0.2965	15.71045
0.297	15.50903
0.2975	9.06372
0.298	9.46655
0.2985	8.35876
0.299	12.78992
0.2995	14.19983
0.3	16.61682
0.3005	10.57434
0.301	13.59558
0.3015	9.56726
0.302	0.90637
0.3025	-6.64673
0.303	-17.92603
0.3035	-19.94019
0.304	-21.45081
0.3045	-16.21399
0.305	-19.94019
0.3055	-15.20691
0.306	-9.86938
0.3065	-2.11487
0.307	-2.41699
0.3075	4.12903
0.308	2.21558
0.3085	3.32336
0.309	4.33044
0.3095	1.91345
0.31	0.80566
0.3105	9.06372
0.311	2.92053
0.3115	4.53186
0.312	-0.30212
0.3125	-5.84106
0.313	2.81982
0.3135	-2.11487
0.314	-2.61841
0.3145	-1.91345
0.315	-3.22266
0.3155	-1.91345
0.316	1.81274
0.3165	-0.10071
0.317	1.61133
0.3175	3.12195
0.318	-0.30212
0.3185	0.50354
0.319	-4.02832
0.3195	4.33044
0.32	7.25098
0.3205	9.36584
0.321	4.73328
0.3215	3.32336
0.322	7.35168
0.3225	9.66797
0.323	9.76868
0.3235	4.43115
0.324	8.8623
0.3245	3.12195
0.325	6.64673
0.3255	5.53894
0.326	1.51062
0.3265	-1.00708
0.327	0.60425
0.3275	7.15027
0.328	9.46655
0.3285	8.7616
0.329	1.91345
0.3295	6.44531
0.33	0.40283
0.3305	-3.22266
0.331	-1.81274
0.3315	1.71204
0.332	3.02124
0.3325	9.86938
0.333	6.3446
0.3335	0.60425
0.334	9.97009
0.3345	10.77576
0.335	12.38708
0.3355	13.29346
0.336	14.40125
0.3365	14.09912
0.337	18.12744
0.3375	14.80408
0.338	9.86938
0.3385	6.04248
0.339	7.35168
0.3395	4.53186
0.34	2.01416
0.3405	2.92053
0.341	-1.40991
0.3415	0.20142
0.342	-0.40283
0.3425	8.7616
0.343	11.78284
0.3435	18.42957
0.344	26.68762
0.3445	21.55151
0.345	17.32178
0.3455	19.33594
0.346	17.32178
0.3465	9.97009
0.347	9.66797
0.3475	6.04248
0.348	4.22974
0.3485	9.76868
0.349	14.90479
0.3495	11.88354
0.35	5.13611
0.3505	-6.2439
0.351	-12.18567
0.3515	-25.37842
0.352	-31.52161
0.3525	-30.51453
0.353	-37.46338
0.3535	-33.23364
0.354	-27.49329
0.3545	-22.15576
0.355	-14.09912
0.3555	-11.2793
0.356	-11.68213
0.3565	-8.66089
0.357	-4.22974
0.3575	-7.35168
0.358	-3.12195
0.3585	-2.41699
0.359	-5.33752
0.3595	-4.33044
0.36	-0.10071
0.3605	-1.71204
0.361	3.12195
0.3615	1.3092
0.362	7.65381
0.3625	4.93469
0.363	5.94177
0.3635	5.23682
0.364	4.43115
0.3645	7.5531
0.365	9.06372
0.3655	3.12195
0.366	4.43115
0.3665	3.7262
0.367	6.3446
0.3675	12.99133
0.368	20.74585
0.3685	13.797
0.369	9.06372
0.3695	7.15027
0.37	10.37292
0.3705	7.04956
0.371	5.84106
0.3715	9.46655
0.372	16.81824
0.3725	16.21399
0.373	18.22815
0.3735	16.71753
0.374	15.71045
0.3745	16.71753
0.375	14.30054
0.3755	8.25806
0.376	6.3446
0.3765	5.23682
0.377	0.30212
0.3775	-0.80566
0.378	-8.7616
0.3785	-11.07788
0.379	-16.51611
0.3795	-14.60266
0.38	-19.03381
0.3805	-15.40833
0.381	-15.1062
0.3815	-13.39417
0.382	-5.13611
0.3825	-7.45239
0.383	-3.7262
0.3835	-3.02124
0.384	-7.5531
0.3845	-5.63965
0.385	-5.0354
0.3855	-5.33752
0.386	-6.74744
0.3865	-0.60425
0.387	-3.22266
0.3875	-1.2085
0.388	-0.30212
0.3885	-1.00708
0.389	0.10071
0.3895	-5.33752
0.39	-4.33044
0.3905	-5.84106
0.391	-3.62549
0.3915	-2.71912
0.392	-0.60425
0.3925	0.60425
0.393	2.01416
0.3935	0.20142
0.394	-6.04248
0.3945	3.22266
0.395	2.61841
0.3955	4.53186
0.396	5.94177
0.3965	3.22266
0.397	1.51062
0.3975	3.42407
0.398	7.45239
0.3985	4.43115
0.399	1.40991
0.3995	4.02832
0.4	8.25806
0.4005	11.58142
0.401	6.84814
0.4015	4.43115
0.402	9.86938
0.4025	7.45239
0.403	5.23682
0.4035	7.75452
0.404	7.65381
0.4045	3.52478
0.405	3.92761
0.4055	6.74744
0.406	4.83398
0.4065	7.15027
0.407	5.94177
0.4075	3.92761
0.408	11.78284
0.4085	6.04248
0.409	9.56726
0.4095	5.23682
0.41	10.57434
0.4105	14.50195
0.411	14.30054
0.4115	11.98425
0.412	13.99841
0.4125	13.29346
0.413	13.49487
0.4135	9.97009
0.414	12.48779
0.4145	9.76868
0.415	11.88354
0.4155	14.40125
0.416	12.18567
0.4165	11.48071
0.417	6.3446
0.4175	15.20691
0.418	12.38708
0.4185	12.18567
0.419	13.59558
0.4195	9.46655
0.42	17.32178
0.4205	15.1062
0.421	16.71753
0.4215	17.22107
0.422	12.89062
0.4225	17.12036
0.423	16.91895
0.4235	22.55859
0.424	14.80408
0.4245	9.76868
0.425	12.08496
0.4255	7.25098
0.426	4.53186
0.4265	6.44531
0.427	7.65381
0.4275	10.97717
0.428	4.22974
0.4285	13.49487
0.429	12.78992
0.4295	12.89062
0.43	8.96301
0.4305	3.12195
0.431	3.02124
0.4315	-1.00708
0.432	2.5177
0.4325	5.33752
0.433	13.59558
0.4335	9.06372
0.434	3.7262
0.4345	4.33044
0.435	3.12195
0.4355	5.13611
0.436	2.31628
0.4365	1.71204
0.437	0.30212
0.4375	-3.7262
0.438	2.21558
0.4385	-1.61133
0.439	-3.62549
0.4395	-2.92053
0.44	-6.3446
0.4405	-9.76868
0.441	-0.70496
0.4415	-10.47363
0.442	-16.91895
0.4425	-13.59558
0.443	-11.38
0.4435	-7.75452
0.444	-12.38708
0.4445	-7.65381
0.445	-8.8623
0.4455	-7.25098
0.446	-8.35876
0.4465	-8.8623
0.447	-10.87646
0.4475	-4.33044
0.448	-8.8623
0.4485	-7.45239
0.449	-14.30054
0.4495	-11.98425
0.45	-11.68213
0.4505	-8.8623
0.451	-4.93469
0.4515	-5.43823
0.452	-6.3446
0.4525	-4.73328
0.453	-9.97009
0.4535	-10.77576
0.454	-11.98425
0.4545	-12.28638
0.455	-11.48071
0.4555	-8.66089
0.456	-7.04956
0.4565	-11.07788
0.457	-7.35168
0.4575	-6.3446
0.458	-11.68213
0.4585	-14.70337
0.459	-12.99133
0.4595	-14.40125
0.46	-13.797
0.4605	-13.39417
0.461	-9.56726
0.4615	-6.64673
0.462	-13.29346
0.4625	-12.78992
0.463	-10.0708
0.4635	-8.15735
0.464	-9.97009
0.4645	-9.16443
0.465	-6.3446
0.4655	-12.78992
0.466	-15.20691
0.4665	-8.56018
0.467	-10.97717
0.4675	-16.01257
0.468	-14.50195
0.4685	-15.50903
0.469	-11.2793
0.4695	-14.80408
0.47	-16.11328
0.4705	-11.38
0.471	-14.90479
0.4715	-15.20691
0.472	-12.89062
0.4725	-14.50195
0.473	-14.40125
0.4735	-8.05664
0.474	-12.28638
0.4745	-16.71753
0.475	-20.94727
0.4755	-19.73877
0.476	-11.07788
0.4765	-17.32178
0.477	-15.00549
0.4775	-19.73877
0.478	-19.43665
0.4785	-24.27063
0.479	-24.47205
0.4795	-19.23523
0.48	-13.19275
0.4805	-14.09912
0.481	-8.66089
0.4815	-14.30054
0.482	-9.06372
0.4825	-10.77576
0.483	-8.8623
0.4835	-6.04248
0.484	-9.06372
0.4845	-13.29346
0.485	-6.54602
0.4855	-9.66797
0.486	-10.37292
0.4865	-15.1062
0.487	-17.01965
0.4875	-13.09204
0.488	-11.68213
0.4885	-16.61682
0.489	-12.5885
0.4895	-12.18567
0.49	-11.88354
0.4905	-6.2439
0.491	-13.59558
0.4915	-11.17859
0.492	-14.09912
0.4925	-11.78284
0.493	-16.71753
0.4935	-13.49487
0.494	-16.11328
0.4945	-15.91187
0.495	-11.38
0.4955	-10.37292
0.496	-7.5531
0.4965	-8.35876
0.497	-5.33752
0.4975	-8.05664
0.498	-10.17151
0.4985	-1.40991
0.499	-1.40991
0.4995	0.30212
0.5	-4.33044
0.5005	-1.91345
0.501	-0.70496
0.5015	-1.71204
0.502	4.33044
0.5025	-3.52478
0.503	-2.81982
0.5035	3.92761
0.504	12.48779
0.5045	12.78992
0.505	11.58142
0.5055	9.06372
0.506	6.2439
0.5065	13.89771
0.507	12.78992
0.5075	8.66089
0.508	9.97009
0.5085	9.97009
0.509	8.45947
0.5095	-1.10779
0.51	3.52478
0.5105	4.02832
0.511	-1.91345
0.5115	-9.26514
0.512	-6.84814
0.5125	-7.65381
0.513	-3.22266
0.5135	-8.66089
0.514	-8.8623
0.5145	-6.3446
0.515	-0.30212
0.5155	1.2085
0.516	6.64673
0.5165	1.10779
0.517	9.06372
0.5175	13.09204
0.518	6.54602
0.5185	12.5885
0.519	9.97009
0.5195	7.15027
0.52	8.66089
0.5205	11.68213
0.521	11.07788
0.5215	10.47363
0.522	17.12036
0.5225	11.58142
0.523	10.27222
0.5235	18.42957
0.524	21.04797
0.5245	23.46497
0.525	20.1416
0.5255	19.33594
0.526	16.81824
0.5265	12.68921
0.527	10.27222
0.5275	9.06372
0.528	15.50903
0.5285	10.67505
0.529	6.04248
0.5295	8.45947
0.53	7.35168
0.5305	8.05664
0.531	6.2439
0.5315	10.0708
0.532	13.49487
0.5325	14.70337
0.533	11.68213
0.5335	7.95593
0.534	9.16443
0.5345	19.94019
0.535	19.53735
0.5355	13.69629
0.536	23.26355
0.5365	20.84656
0.537	15.00549
0.5375	8.56018
0.538	6.94885
0.5385	8.35876
0.539	9.97009
0.5395	11.78284
0.54	18.02673
0.5405	11.78284
0.541	14.40125
0.5415	17.52319
0.542	15.40833
0.5425	16.81824
0.543	20.24231
0.5435	17.32178
0.544	18.8324
0.5445	19.73877
0.545	21.85364
0.5455	23.16284
0.546	22.05505
0.5465	22.25647
0.547	17.22107
0.5475	22.86072
0.548	13.797
0.5485	12.68921
0.549	16.01257
0.5495	9.66797
0.55	9.97009
0.5505	15.81116
0.551	17.52319
0.5515	18.12744
0.552	11.07788
0.5525	16.71753
0.553	12.5885
0.5535	14.80408
0.554	15.50903
0.5545	18.8324
0.555	14.09912
0.5555	14.70337
0.556	17.52319
0.5565	18.32886
0.557	14.60266
0.5575	20.1416
0.558	19.83948
0.5585	14.50195
0.559	18.22815
0.5595	15.50903
0.56	21.04797
0.5605	13.49487
0.561	16.01257
0.5615	13.29346
0.562	13.39417
0.5625	15.60974
0.563	17.42249
0.5635	11.48071
0.564	16.11328
0.5645	15.20691
0.565	17.72461
0.5655	18.53027
0.566	16.41541
0.5665	9.66797
0.567	9.16443
0.5675	10.37292
0.568	7.95593
0.5685	7.5531
0.569	5.94177
0.5695	6.64673
0.57	9.06372
0.5705	13.69629
0.571	12.68921
0.5715	5.63965
0.572	4.12903
0.5725	4.83398
0.573	6.14319
0.5735	4.33044
0.574	1.91345
0.5745	5.23682
0.575	12.99133
0.5755	13.19275
0.576	8.96301
0.5765	6.44531
0.577	8.35876
0.5775	8.96301
0.578	13.99841
0.5785	10.27222
0.579	6.3446
0.5795	8.35876
0.58	6.14319
0.5805	9.76868
0.581	18.02673
0.5815	18.93311
0.582	17.22107
0.5825	9.97009
0.583	6.84814
0.5835	8.25806
0.584	5.0354
0.5845	2.31628
0.585	2.71912
0.5855	0.30212
0.586	9.36584
0.5865	7.15027
0.587	5.84106
0.5875	10.37292
0.588	12.08496
0.5885	11.78284
0.589	6.14319
0.5895	4.33044
0.59	4.33044
0.5905	6.44531
0.591	1.2085
0.5915	9.46655
0.592	10.37292
0.5925	4.93469
0.593	8.7616
0.5935	9.97009
0.594	6.94885
0.5945	7.25098
0.595	5.33752
0.5955	4.22974
0.596	1.2085
0.5965	6.54602
0.597	2.81982
0.5975	5.63965
0.598	6.14319
0.5985	4.53186
0.599	7.25098
0.5995	-0.50354
0.6	3.42407
0.6005	5.33752
0.601	3.32336
0.6015	5.84106
0.602	1.3092
0.6025	6.44531
0.603	9.66797
0.6035	8.96301
0.604	9.46655
0.6045	9.56726
0.605	8.8623
0.6055	11.2793
0.606	10.97717
0.6065	8.7616
0.607	12.18567
0.6075	6.84814
0.608	10.17151
0.6085	4.93469
0.609	12.5885
0.6095	9.56726
0.61	11.2793
0.6105	11.2793
0.611	7.65381
0.6115	9.66797
0.612	7.85522
0.6125	13.09204
0.613	9.06372
0.6135	5.43823
0.614	11.17859
0.6145	9.26514
0.615	11.98425
0.6155	10.77576
0.616	10.87646
0.6165	8.66089
0.617	10.37292
0.6175	7.04956
0.618	6.74744
0.6185	12.68921
0.619	7.85522
0.6195	11.98425
0.62	5.33752
0.6205	5.84106
0.621	2.81982
0.6215	2.5177
0.622	6.94885
0.6225	6.2439
0.623	6.94885
0.6235	10.77576
0.624	5.84106
0.6245	3.8269
0.625	3.62549
0.6255	4.83398
0.626	6.2439
0.6265	3.7262
0.627	6.2439
0.6275	8.35876
0.628	10.97717
0.6285	4.63257
0.629	5.63965
0.6295	0.10071
0.63	8.05664
0.6305	9.76868
0.631	6.74744
0.6315	10.77576
0.632	8.45947
0.6325	6.44531
0.633	10.37292
0.6335	17.92603
0.634	13.29346
0.6345	15.30762
0.635	17.52319
0.6355	17.01965
0.636	16.01257
0.6365	15.30762
0.637	6.54602
0.6375	10.47363
0.638	5.13611
0.6385	5.63965
0.639	8.45947
0.6395	8.45947
0.64	7.65381
0.6405	10.0708
0.641	11.2793
0.6415	12.38708
0.642	8.25806
0.6425	10.87646
0.643	17.32178
0.6435	14.90479
0.644	16.81824
0.6445	15.20691
0.645	14.80408
0.6455	10.0708
0.646	16.21399
0.6465	16.51611
0.647	12.28638
0.6475	13.69629
0.648	14.19983
0.6485	20.34302
0.649	13.19275
0.6495	6.44531
0.65	16.3147
0.6505	10.87646
0.651	15.30762
0.6515	11.68213
0.652	16.91895
0.6525	15.91187
0.653	24.06921
0.6535	26.58691
0.654	20.54443
0.6545	23.8678
0.655	29.70886
0.6555	21.45081
0.656	23.36426
0.6565	23.46497
0.657	25.177
0.6575	21.65222
0.658	24.77417
0.6585	20.1416
0.659	16.21399
0.6595	13.29346
0.66	12.48779
0.6605	16.3147
0.661	19.23523
0.6615	13.59558
0.662	13.69629
0.6625	6.3446
0.663	9.97009
0.6635	4.33044
0.664	10.47363
0.6645	8.15735
0.665	8.66089
0.6655	12.89062
0.666	16.21399
0.6665	9.76868
0.667	10.67505
0.6675	12.18567
0.668	12.28638
0.6685	13.39417
0.669	16.61682
0.6695	13.89771
0.67	18.32886
0.6705	21.65222
0.671	15.1062
0.6715	17.22107
0.672	13.39417
0.6725	13.59558
0.673	14.30054
0.6735	14.09912
0.674	13.59558
0.6745	12.08496
0.675	11.48071
0.6755	12.18567
0.676	13.797
0.6765	19.43665
0.677	14.09912
0.6775	12.28638
0.678	14.30054
0.6785	15.20691
0.679	23.16284
0.6795	14.80408
0.68	14.30054
0.6805	12.5885
0.681	15.71045
0.6815	19.33594
0.682	14.50195
0.6825	19.83948
0.683	16.71753
0.6835	10.17151
0.684	10.87646
0.6845	17.6239
0.685	22.45789
0.6855	21.14868
0.686	17.72461
0.6865	17.42249
0.687	16.81824
0.6875	17.72461
0.688	18.8324
0.6885	15.50903
0.689	16.61682
0.6895	12.89062
0.69	16.21399
0.6905	13.09204
0.691	15.81116
0.6915	16.3147
0.692	13.09204
0.6925	10.67505
0.693	15.81116
0.6935	13.89771
0.694	15.50903
0.6945	16.41541
0.695	16.01257
0.6955	9.46655
0.696	12.38708
0.6965	13.89771
0.697	12.18567
0.6975	11.98425
0.698	17.6239
0.6985	16.11328
0.699	20.24231
0.6995	19.33594
0.7	17.22107
0.7005	14.90479
0.701	14.30054
0.7015	18.02673
0.702	16.21399
0.7025	16.81824
0.703	9.66797
0.7035	8.05664
0.704	11.98425
0.7045	10.0708
0.705	10.97717
0.7055	11.38
0.706	10.37292
0.7065	13.09204
0.707	13.39417
0.7075	19.94019
0.708	18.63098
0.7085	17.82532
0.709	18.73169
0.7095	13.99841
0.71	14.09912
0.7105	13.19275
0.711	15.81116
0.7115	18.93311
0.712	19.33594
0.7125	15.71045
0.713	14.19983
0.7135	12.08496
0.714	12.68921
0.7145	7.45239
0.715	8.8623
0.7155	9.76868
0.716	12.28638
0.7165	16.41541
0.717	17.12036
0.7175	16.21399
0.718	13.49487
0.7185	17.82532
0.719	13.39417
0.7195	14.30054
0.72	16.01257
0.7205	11.17859
0.721	9.76868
0.7215	7.85522
0.722	12.99133
0.7225	11.68213
0.723	8.05664
0.7235	4.73328
0.724	4.93469
0.7245	6.04248
0.725	7.85522
0.7255	13.29346
0.726	15.00549
0.7265	14.30054
0.727	8.45947
0.7275	6.74744
0.728	10.87646
0.7285	9.66797
0.729	5.43823
0.7295	6.04248
0.73	13.59558
0.7305	12.68921
0.731	4.33044
0.7315	10.87646
0.732	11.2793
0.7325	4.83398
0.733	12.28638
0.7335	5.53894
0.734	12.38708
0.7345	8.56018
0.735	7.75452
0.7355	3.8269
0.736	15.81116
0.7365	15.00549
0.737	7.15027
0.7375	8.56018
0.738	10.97717
0.7385	13.797
0.739	13.89771
0.7395	10.37292
0.74	14.90479
0.7405	10.67505
0.741	8.96301
0.7415	12.68921
0.742	9.56726
0.7425	11.2793
0.743	10.47363
0.7435	13.39417
0.744	8.45947
0.7445	6.84814
0.745	3.32336
0.7455	5.43823
0.746	7.35168
0.7465	8.8623
0.747	13.09204
0.7475	13.19275
0.748	14.30054
0.7485	10.27222
0.749	9.36584
0.7495	11.78284
0.75	11.2793
0.7505	8.25806
0.751	12.38708
0.7515	9.36584
0.752	9.16443
0.7525	8.96301
0.753	16.3147
0.7535	14.70337
0.754	16.71753
0.7545	9.97009
0.755	11.88354
0.7555	13.29346
0.756	10.57434
0.7565	8.25806
0.757	16.11328
0.7575	12.48779
0.758	10.47363
0.7585	12.18567
0.759	12.99133
0.7595	11.68213
0.76	11.2793
0.7605	8.8623
0.761	8.15735
0.7615	10.97717
0.762	9.26514
0.7625	12.28638
0.763	12.28638
0.7635	12.18567
0.764	7.45239
0.7645	10.0708
0.765	14.70337
0.7655	11.88354
0.766	13.69629
0.7665	12.99133
0.767	16.61682
0.7675	15.30762
0.768	9.97009
0.7685	8.66089
0.769	11.68213
0.7695	8.35876
0.77	9.36584
0.7705	12.18567
0.771	13.09204
0.7715	13.69629
0.772	11.68213
0.7725	15.40833
0.773	14.60266
0.7735	18.22815
0.774	12.28638
0.7745	10.47363
0.775	8.7616
0.7755	10.47363
0.776	7.25098
0.7765	8.25806
0.777	14.90479
0.7775	14.40125
0.778	9.36584
0.7785	8.66089
0.779	9.46655
0.7795	8.45947
0.78	13.797
0.7805	13.49487
0.781	9.06372
0.7815	11.38
0.782	11.68213
0.7825	15.50903
0.783	15.30762
0.7835	13.59558
0.784	16.81824
0.7845	11.78284
0.785	12.78992
0.7855	11.78284
0.786	11.48071
0.7865	12.38708
0.787	12.99133
0.7875	13.39417
0.788	11.17859
0.7885	10.87646
0.789	21.04797
0.7895	17.32178
0.79	21.95435
0.7905	13.797
0.791	10.37292
0.7915	15.60974
0.792	17.32178
0.7925	15.71045
0.793	16.01257
0.7935	8.35876
0.794	7.45239
0.7945	13.39417
0.795	12.99133
0.7955	10.77576
0.796	13.19275
0.7965	9.46655
0.797	9.97009
0.7975	14.90479
0.798	11.07788
0.7985	11.07788
0.799	11.07788
0.7995	7.75452
0.8	6.14319
0.8005	12.48779
0.801	17.32178
0.8015	15.40833
0.802	9.56726
0.8025	8.25806
0.803	12.38708
0.8035	12.5885
0.804	11.58142
0.8045	14.09912
0.805	12.08496
0.8055	12.78992
0.806	12.28638
0.8065	7.5531
0.807	8.96301
0.8075	10.27222
0.808	12.38708
0.8085	10.67505
0.809	6.14319
0.8095	5.63965
0.81	13.09204
0.8105	14.30054
0.811	12.08496
0.8115	9.56726
0.812	12.89062
0.8125	8.56018
0.813	10.27222
0.8135	11.07788
0.814	15.60974
0.8145	13.29346
0.815	7.5531
0.8155	10.0708
0.816	11.98425
0.8165	6.94885
0.817	5.0354
0.8175	5.94177
0.818	5.74036
0.8185	9.36584
0.819	3.62549
0.8195	8.05664
0.82	7.04956
0.8205	13.39417
0.821	9.97009
0.8215	12.28638
0.822	11.17859
0.8225	7.45239
0.823	10.0708
0.8235	10.97717
0.824	8.45947
0.8245	11.88354
0.825	10.0708
0.8255	10.47363
0.826	10.57434
0.8265	6.2439
0.827	14.50195
0.8275	13.09204
0.828	10.67505
0.8285	10.67505
0.829	4.12903
0.8295	6.84814
0.83	8.35876
0.8305	4.53186
0.831	12.68921
0.8315	7.95593
0.832	11.58142
0.8325	16.21399
0.833	16.3147
0.8335	11.48071
0.834	16.21399
0.8345	14.90479
0.835	9.46655
0.8355	7.35168
0.836	8.7616
0.8365	9.56726
0.837	12.28638
0.8375	10.87646
0.838	12.08496
0.8385	11.17859
0.839	9.46655
0.8395	12.99133
0.84	13.49487
0.8405	14.50195
0.841	13.19275
0.8415	14.60266
0.842	20.04089
0.8425	14.09912
0.843	11.98425
0.8435	15.91187
0.844	15.60974
0.8445	11.98425
0.845	10.17151
0.8455	11.17859
0.846	11.17859
0.8465	7.75452
0.847	14.30054
0.8475	16.01257
0.848	16.81824
0.8485	12.18567
0.849	11.68213
0.8495	12.68921
0.85	11.68213
0.8505	12.89062
0.851	14.70337
0.8515	13.797
0.852	11.58142
0.8525	8.45947
0.853	13.09204
0.8535	14.09912
0.854	16.41541
0.8545	10.57434
0.855	14.19983
0.8555	12.18567
0.856	10.77576
0.8565	14.30054
0.857	13.797
0.8575	10.77576
0.858	11.07788
0.8585	10.97717
0.859	11.68213
0.8595	12.28638
0.86	6.44531
0.8605	9.06372
0.861	7.25098
0.8615	8.96301
0.862	7.45239
0.8625	3.32336
0.863	2.71912
0.8635	5.43823
0.864	8.56018
0.8645	2.5177
0.865	1.00708
0.8655	3.92761
0.866	2.61841
0.8665	7.15027
0.867	4.53186
0.8675	6.94885
0.868	2.81982
0.8685	-1.2085
0.869	-1.10779
0.8695	3.8269
0.87	4.73328
0.8705	5.84106
0.871	5.63965
0.8715	8.15735
0.872	6.14319
0.8725	7.5531
0.873	-0.40283
0.8735	2.71912
0.874	1.3092
0.8745	-5.74036
0.875	1.00708
0.8755	4.22974
0.876	5.84106
0.8765	4.02832
0.877	1.40991
0.8775	3.52478
0.878	-0.70496
0.8785	-0.10071
0.879	0.40283
0.8795	4.83398
0.88	-0.80566
0.8805	0
0.881	1.91345
0.8815	2.41699
0.882	2.5177
0.8825	-2.01416
0.883	8.35876
0.8835	1.51062
0.884	0.60425
0.8845	0.90637
0.885	-1.40991
0.8855	1.00708
0.886	5.0354
0.8865	5.63965
0.887	-1.2085
0.8875	5.13611
0.888	5.84106
0.8885	5.94177
0.889	5.53894
0.8895	-0.60425
0.89	7.25098
0.8905	5.0354
0.891	6.54602
0.8915	4.53186
0.892	6.84814
0.8925	6.94885
0.893	2.41699
0.8935	0.10071
0.894	7.15027
0.8945	4.73328
0.895	5.33752
0.8955	8.35876
0.896	1.61133
0.8965	11.2793
0.897	4.93469
0.8975	3.8269
0.898	6.2439
0.8985	1.00708
0.899	7.35168
0.8995	4.12903
0.9	4.12903
0.9005	6.64673
0.901	5.43823
0.9015	5.53894
0.902	9.36584
0.9025	9.26514
0.903	-0.20142
0.9035	-0.60425
0.904	3.12195
0.9045	2.41699
0.905	7.25098
0.9055	12.68921
0.906	8.56018
0.9065	10.0708
0.907	6.3446
0.9075	7.5531
0.908	9.97009
0.9085	7.65381
0.909	9.86938
0.9095	5.53894
0.91	8.35876
0.9105	8.25806
0.911	9.76868
0.9115	10.77576
0.912	5.94177
0.9125	8.15735
0.913	6.04248
0.9135	6.2439
0.914	6.3446
0.9145	2.21558
0.915	2.5177
0.9155	3.42407
0.916	6.94885
0.9165	0.40283
0.917	6.04248
0.9175	10.27222
0.918	7.35168
0.9185	8.05664
0.919	3.02124
0.9195	7.45239
0.92	7.85522
0.9205	-1.40991
0.921	2.92053
0.9215	4.22974
0.922	9.76868
0.9225	4.83398
0.923	6.64673
0.9235	5.43823
0.924	12.78992
0.9245	2.21558
0.925	6.94885
0.9255	4.83398
0.926	4.43115
0.9265	3.42407
0.927	-1.3092
0.9275	3.52478
0.928	6.64673
0.9285	6.94885
0.929	0.70496
0.9295	4.02832
0.93	2.21558
0.9305	-1.2085
0.931	-1.61133
0.9315	0.90637
0.932	1.00708
0.9325	3.92761
0.933	3.62549
0.9335	-0.10071
0.934	3.42407
0.9345	2.61841
0.935	-0.60425
0.9355	2.81982
0.936	1.61133
0.9365	0
0.937	-1.00708
0.9375	1.81274
0.938	2.41699
0.9385	1.10779
0.939	1.81274
0.9395	-5.13611
0.94	-1.00708
0.9405	1.71204
0.941	2.41699
0.9415	1.10779
0.942	5.74036
0.9425	3.62549
0.943	1.91345
0.9435	-4.63257
0.944	-1.10779
0.9445	4.63257
0.945	3.7262
0.9455	6.04248
0.946	5.23682
0.9465	2.31628
0.947	6.84814
0.9475	2.92053
0.948	5.33752
0.9485	6.14319
0.949	5.0354
0.9495	7.04956
0.95	5.53894
0.9505	11.17859
0.951	9.66797
0.9515	1.00708
0.952	0.30212
0.9525	4.83398
0.953	0.90637
0.9535	6.84814
0.954	4.93469
0.9545	5.13611
0.955	4.43115
0.9555	5.13611
0.956	1.81274
0.9565	6.94885
0.957	5.53894
0.9575	5.74036
0.958	6.14319
0.9585	9.56726
0.959	2.31628
0.9595	-1.51062
0.96	8.05664
0.9605	0
0.961	2.81982
0.9615	2.21558
0.962	8.66089
0.9625	5.74036
0.963	3.92761
0.9635	6.64673
0.964	4.83398
0.9645	4.93469
0.965	6.14319
0.9655	2.92053
0.966	8.56018
0.9665	15.50903
0.967	6.64673
0.9675	8.45947
0.968	11.07788
0.9685	11.78284
0.969	11.58142
0.9695	3.32336
0.97	7.95593
0.9705	8.8623
0.971	11.07788
0.9715	6.54602
0.972	9.76868
0.9725	8.96301
0.973	7.95593
0.9735	6.74744
0.974	7.25098
0.9745	5.63965
0.975	4.83398
0.9755	10.57434
0.976	7.85522
0.9765	9.46655
0.977	9.86938
0.9775	10.17151
0.978	6.44531
0.9785	9.46655
0.979	7.45239
0.9795	5.74036
0.98	9.36584
0.9805	12.48779
0.981	8.56018
0.9815	12.5885
0.982	6.44531
0.9825	9.86938
0.983	9.56726
0.9835	10.0708
0.984	6.94885
0.9845	7.75452
0.985	8.66089
0.9855	9.86938
0.986	7.45239
0.9865	10.17151
0.987	7.85522
0.9875	8.56018
0.988	7.35168
0.9885	3.62549
0.989	10.0708
0.9895	3.12195
0.99	2.41699
0.9905	3.42407
0.991	8.96301
0.9915	12.68921
0.992	8.25806
0.9925	3.22266
0.993	6.44531
0.9935	8.56018
0.994	6.44531
0.9945	4.43115
0.995	4.93469
0.9955	8.15735
0.996	0.50354
0.9965	10.57434
0.997	5.13611
0.9975	-1.61133
0.998	4.93469
0.9985	5.74036
0.999	6.54602
0.9995	-2.5177
1	6.44531
1.0005	1.3092
1.001	5.53894
1.0015	2.5177
1.002	3.7262
1.0025	1.81274
1.003	4.22974
1.0035	9.06372
1.004	2.92053
1.0045	-4.73328
1.005	-1.81274
1.0055	0.20142
1.006	1.71204
1.0065	-4.02832
1.007	-1.40991
1.0075	-0.90637
1.008	-0.30212
1.0085	1.3092
1.009	0.60425
1.0095	-1.10779
1.01	-0.40283
1.0105	0
1.011	-3.12195
1.0115	0.20142
1.012	4.73328
1.0125	1.2085
1.013	1.40991
1.0135	0.30212
1.014	-2.11487
1.0145	-0.10071
1.015	0.60425
1.0155	-0.10071
1.016	-0.10071
1.0165	1.40991
1.017	-1.51062
1.0175	-4.02832
1.018	-0.20142
1.0185	-1.00708
1.019	1.91345
1.0195	-1.10779
1.02	3.32336
1.0205	2.11487
1.021	4.02832
1.0215	3.32336
1.022	-3.32336
1.0225	2.41699
1.023	0.80566
1.0235	1.81274
1.024	1.61133
1.0245	-4.63257
1.025	2.21558
1.0255	-4.12903
1.026	-0.70496
1.0265	-6.3446
1.027	-0.70496
1.0275	-0.40283
1.028	5.63965
1.0285	-3.7262
1.029	-4.22974
1.0295	-3.32336
1.03	0.80566
1.0305	-0.40283
1.031	-3.52478
1.0315	-2.21558
1.032	-6.74744
1.0325	-2.11487
1.033	1.91345
1.0335	1.81274
1.034	-0.70496
1.0345	-1.81274
1.035	0.30212
1.0355	-3.22266
1.036	-3.12195
1.0365	2.81982
1.037	1.40991
1.0375	4.53186
1.038	1.81274
1.0385	1.3092
1.039	4.83398
1.0395	2.61841
1.04	-0.40283
1.0405	-0.10071
1.041	2.71912
1.0415	-0.90637
1.042	3.22266
1.0425	-4.83398
1.043	-8.15735
1.0435	-7.04956
1.044	-5.63965
1.0445	-6.94885
1.045	0.10071
1.0455	0.50354
1.046	-2.81982
1.0465	-5.63965
1.047	-3.02124
1.0475	-3.32336
1.048	-4.73328
1.0485	-0.60425
1.049	2.31628
1.0495	-4.22974
1.05	-2.61841
1.0505	-0.20142
1.051	3.22266
1.0515	-2.71912
1.052	-1.00708
1.0525	1.81274
1.053	3.62549
1.0535	-3.8269
1.054	1.51062
1.0545	-2.11487
1.055	0.60425
1.0555	-2.61841
1.056	-3.22266
1.0565	-1.91345
1.057	-0.50354
1.0575	-1.3092
1.058	-2.21558
1.0585	-7.85522
1.059	-4.43115
1.0595	-7.85522
1.06	-4.93469
1.0605	-3.52478
1.061	-3.32336
1.0615	-5.23682
1.062	3.42407
1.0625	-0.10071
1.063	-5.0354
1.0635	-6.14319
1.064	-8.35876
1.0645	-7.5531
1.065	-1.00708
1.0655	-3.22266
1.066	1.00708
1.0665	-2.41699
1.067	-4.33044
1.0675	-0.40283
1.068	-0.70496
1.0685	-1.2085
1.069	2.11487
1.0695	-2.92053
1.07	1.10779
1.0705	1.71204
1.071	2.92053
1.0715	-2.71912
1.072	-1.40991
1.0725	-4.93469
1.073	-4.93469
1.0735	-5.74036
1.074	-1.61133
1.0745	-1.61133
1.075	-7.5531
1.0755	-6.54602
1.076	-6.84814
1.0765	-3.32336
1.077	-7.04956
1.0775	-3.42407
1.078	4.22974
1.0785	1.91345
1.079	-1.10779
1.0795	-9.26514
1.08	-3.12195
1.0805	-1.81274
1.081	-0.30212
1.0815	-0.60425
1.082	0.80566
1.0825	-5.53894
1.083	-5.23682
1.0835	-2.81982
1.084	-3.8269
1.0845	-9.76868
1.085	-4.43115
1.0855	-8.7616
1.086	-5.84106
1.0865	-1.71204
1.087	-8.8623
1.0875	-4.83398
1.088	-3.8269
1.0885	-10.67505
1.089	-4.63257
1.0895	-9.97009
1.09	-7.85522
1.0905	-11.07788
1.091	-6.54602
1.0915	-6.74744
1.092	-6.2439
1.0925	-7.95593
1.093	-4.12903
1.0935	-9.26514
1.094	-5.53894
1.0945	-7.75452
1.095	-7.04956
1.0955	-4.43115
1.096	-2.41699
1.0965	-7.15027
1.097	-3.92761
1.0975	-2.11487
1.098	-2.01416
1.0985	-6.2439
1.099	-5.0354
1.0995	-3.22266
1.1	-3.12195
1.1005	-5.53894
1.101	2.11487
1.1015	2.21558
1.102	-1.2085
1.1025	-1.10779
1.103	-3.8269
1.1035	-0.60425
1.104	1.00708
1.1045	0
1.105	2.41699
1.1055	-4.02832
1.106	-0.80566
1.1065	-6.94885
1.107	0.60425
1.1075	0.60425
1.108	0.10071
1.1085	-0.80566
1.109	-1.2085
1.1095	-7.5531
1.11	-9.46655
1.1105	-3.32336
1.111	-8.35876
1.1115	-3.02124
1.112	-1.61133
1.1125	-4.22974
1.113	-5.43823
1.1135	-7.95593
1.114	-5.0354
1.1145	-8.56018
1.115	-8.45947
1.1155	0.60425
1.116	3.92761
1.1165	-0.80566
1.117	-3.92761
1.1175	-5.74036
1.118	-6.84814
1.1185	-0.60425
1.119	0.30212
1.1195	-1.40991
1.12	-3.92761
1.1205	-3.62549
1.121	-0.80566
1.1215	0.90637
1.122	-3.52478
1.1225	5.0354
1.123	4.73328
1.1235	6.64673
1.124	1.00708
1.1245	0.30212
1.125	4.53186
1.1255	5.84106
1.126	-0.90637
1.1265	2.01416
1.127	6.2439
1.1275	0.30212
1.128	9.26514
1.1285	9.06372
1.129	1.00708
1.1295	2.92053
1.13	5.63965
1.1305	7.5531
1.131	0.20142
1.1315	1.2085
1.132	4.02832
1.1325	2.71912
1.133	5.74036
1.1335	7.04956
1.134	10.47363
1.1345	8.25806
1.135	11.48071
1.1355	12.28638
1.136	1.40991
1.1365	6.2439
1.137	0.60425
1.1375	8.35876
1.138	5.63965
1.1385	3.12195
1.139	5.43823
1.1395	3.8269
1.14	8.35876
1.1405	4.93469
1.141	2.81982
1.1415	12.68921
1.142	6.2439
1.1425	6.2439
1.143	11.17859
1.1435	10.27222
1.144	5.23682
1.1445	9.16443
1.145	1.3092
1.1455	7.15027
1.146	6.2439
1.1465	2.11487
1.147	10.47363
1.1475	11.98425
1.148	9.66797
1.1485	6.14319
1.149	12.48779
1.1495	9.26514
1.15	10.87646
1.1505	6.64673
1.151	6.94885
1.1515	13.99841
1.152	7.35168
1.1525	6.04248
1.153	8.66089
1.1535	7.85522
1.154	4.73328
1.1545	3.92761
1.155	5.84106
1.1555	2.61841
1.156	3.52478
1.1565	5.23682
1.157	5.84106
1.1575	1.91345
1.158	4.83398
1.1585	4.93469
1.159	9.06372
1.1595	3.52478
1.16	4.22974
1.1605	2.81982
1.161	2.21558
1.1615	3.32336
1.162	5.0354
1.1625	9.76868
1.163	0.70496
1.1635	1.91345
1.164	3.8269
1.1645	3.8269
1.165	5.23682
1.1655	-0.40283
1.166	1.10779
1.1665	-0.10071
1.167	0.60425
1.1675	-6.04248
1.168	1.81274
1.1685	-2.61841
1.169	-3.32336
1.1695	-1.81274
1.17	0.60425
1.1705	2.41699
1.171	-1.40991
1.1715	-0.90637
1.172	0.10071
1.1725	-1.91345
1.173	-5.33752
1.1735	0.40283
1.174	0.20142
1.1745	3.42407
1.175	7.35168
1.1755	2.71912
1.176	4.63257
1.1765	2.11487
1.177	5.84106
1.1775	4.93469
1.178	5.33752
1.1785	4.53186
1.179	3.7262
1.1795	1.2085
1.18	-2.11487
1.1805	-0.30212
1.181	-5.53894
1.1815	-9.86938
1.182	-3.02124
1.1825	3.42407
1.183	-4.63257
1.1835	-2.5177
1.184	-2.61841
1.1845	-0.20142
1.185	-0.80566
1.1855	-4.33044
1.186	-1.2085
1.1865	1.61133
1.187	-2.31628
1.1875	-0.60425
1.188	3.32336
1.1885	-0.50354
1.189	-0.80566
1.1895	-6.2439
1.19	-2.61841
1.1905	1.10779
1.191	-0.50354
1.1915	-6.3446
1.192	0.40283
1.1925	5.23682
1.193	3.32336
1.1935	3.22266
1.194	-1.40991
1.1945	4.12903
1.195	-0.70496
1.1955	1.51062
1.196	2.5177
1.1965	2.41699
1.197	3.7262
1.1975	-1.71204
1.198	0.60425
1.1985	4.22974
1.199	1.61133
1.1995	3.12195
1.2	2.71912
1.2005	4.22974
1.201	1.61133
1.2015	4.93469
1.202	-2.11487
1.2025	4.53186
1.203	2.01416
1.2035	3.8269
1.204	4.12903
1.2045	3.12195
1.205	11.98425
1.2055	7.04956
1.206	8.56018
1.2065	4.63257
1.207	11.17859
1.2075	8.25806
1.208	8.05664
1.2085	4.83398
1.209	8.15735
1.2095	5.33752
1.21	3.12195
1.2105	6.14319
1.211	10.47363
1.2115	7.45239
1.212	1.00708
1.2125	1.00708
1.213	6.44531
1.2135	7.95593
1.214	4.63257
1.2145	9.56726
1.215	4.63257
1.2155	4.33044
1.216	6.2439
1.2165	9.97009
1.217	14.50195
1.2175	8.15735
1.218	3.32336
1.2185	5.33752
1.219	9.86938
1.2195	8.05664
1.22	12.68921
1.2205	11.78284
1.221	3.62549
1.2215	7.35168
1.222	8.15735
1.2225	11.68213
1.223	8.7616
1.2235	15.1062
1.224	9.86938
1.2245	6.74744
1.225	7.65381
1.2255	6.54602
1.226	6.84814
1.2265	14.30054
1.227	12.38708
1.2275	7.45239
1.228	3.32336
1.2285	8.35876
1.229	8.8623
1.2295	6.64673
1.23	5.43823
1.2305	5.23682
1.231	7.85522
1.2315	7.15027
1.232	11.17859
1.2325	9.97009
1.233	12.48779
1.2335	7.5531
1.234	8.05664
1.2345	10.87646
1.235	13.29346
1.2355	8.96301
1.236	8.66089
1.2365	12.38708
1.237	13.49487
1.2375	11.38
1.238	16.01257
1.2385	14.80408
1.239	9.86938
1.2395	7.35168
1.24	12.89062
1.2405	14.40125
1.241	13.39417
1.2415	11.78284
1.242	13.09204
1.2425	15.1062
1.243	15.20691
1.2435	10.57434
1.244	11.88354
1.2445	14.09912
1.245	12.18567
1.2455	13.09204
1.246	14.90479
1.2465	8.56018
1.247	14.60266
1.2475	14.19983
1.248	11.98425
1.2485	11.2793
1.249	10.0708
1.2495	12.68921
1.25	10.87646
1.2505	14.30054
1.251	12.38708
1.2515	12.68921
1.252	10.77576
1.2525	12.5885
1.253	7.25098
1.2535	7.95593
1.254	10.97717
1.2545	8.7616
1.255	7.65381
1.2555	9.26514
1.256	10.57434
1.2565	9.26514
1.257	12.28638
1.2575	8.05664
1.258	8.35876
1.2585	12.48779
1.259	6.94885
1.2595	8.66089
1.26	11.17859
1.2605	15.20691
1.261	9.86938
1.2615	12.68921
1.262	10.57434
1.2625	8.15735
1.263	11.07788
1.2635	8.56018
1.264	9.56726
1.2645	9.46655
1.265	10.47363
1.2655	7.65381
1.266	6.64673
1.2665	6.64673
1.267	5.53894
1.2675	4.22974
1.268	8.56018
1.2685	7.75452
1.269	14.50195
1.2695	7.5531
1.27	12.99133
1.2705	12.38708
1.271	12.5885
1.2715	10.67505
1.272	8.66089
1.2725	9.56726
1.273	9.06372
1.2735	9.16443
1.274	9.86938
1.2745	7.15027
1.275	9.36584
1.2755	12.68921
1.276	7.15027
1.2765	9.97009
1.277	11.17859
1.2775	7.95593
1.278	7.35168
1.2785	8.35876
1.279	7.35168
1.2795	12.89062
1.28	12.99133
1.2805	14.60266
1.281	11.68213
1.2815	10.47363
1.282	10.27222
1.2825	5.53894
1.283	5.63965
1.2835	7.75452
1.284	6.84814
1.2845	3.52478
1.285	8.7616
1.2855	9.56726
1.286	8.45947
1.2865	8.8623
1.287	11.38
1.2875	8.66089
1.288	4.43115
1.2885	5.63965
1.289	3.32336
1.2895	7.45239
1.29	13.09204
1.2905	7.75452
1.291	7.85522
1.2915	6.94885
1.292	6.84814
1.2925	3.8269
1.293	10.47363
1.2935	7.15027
1.294	5.13611
1.2945	7.5531
1.295	7.35168
1.2955	7.15027
1.296	6.74744
1.2965	10.87646
1.297	13.69629
1.2975	7.25098
1.298	7.85522
1.2985	9.86938
1.299	4.12903
1.2995	1.61133
1.3	13.19275
1.3005	17.52319
1.301	17.82532
1.3015	19.53735
1.302	20.24231
1.3025	15.71045
1.303	18.53027
1.3035	20.34302
1.304	23.8678
1.3045	19.43665
1.305	24.57275
1.3055	22.05505
1.306	21.95435
1.3065	22.45789
1.307	18.53027
1.3075	15.00549
1.308	17.92603
1.3085	17.22107
1.309	14.90479
1.3095	8.35876
1.31	11.17859
1.3105	9.97009
1.311	8.66089
1.3115	6.74744
1.312	14.09912
1.3125	8.45947
1.313	10.27222
1.3135	10.97717
1.314	11.58142
1.3145	15.30762
1.315	9.97009
1.3155	11.07788
1.316	4.93469
1.3165	9.76868
1.317	5.0354
1.3175	-0.50354
1.318	-0.30212
1.3185	2.92053
1.319	2.31628
1.3195	-2.71912
1.32	-0.70496
1.3205	3.52478
1.321	-0.70496
1.3215	-1.81274
1.322	-0.80566
1.3225	0
1.323	0.50354
1.3235	0.70496
1.324	6.84814
1.3245	2.81982
1.325	-2.11487
1.3255	-2.11487
1.326	-1.81274
1.3265	6.54602
1.327	6.54602
1.3275	6.54602
1.328	6.54602
1.3285	6.54602
1.329	6.54602
1.3295	6.54602
1.33	6.54602
1.3305	6.54602
1.331	6.54602
1.3315	6.54602
1.332	6.54602
1.3325	6.54602
1.333	6.54602
1.3335	6.54602
1.334	6.54602
1.3345	6.54602
1.335	6.54602
1.3355	6.54602
1.336	6.54602
1.3365	6.54602
1.337	14.70337
1.3375	8.35876
1.338	7.45239
1.3385	12.99133
1.339	10.0708
1.3395	10.77576
1.34	12.48779
1.3405	9.86938
1.341	9.97009
1.3415	18.02673
1.342	13.59558
1.3425	9.86938
1.343	14.09912
1.3435	17.6239
1.344	17.92603
1.3445	12.78992
1.345	18.12744
1.3455	11.98425
1.346	16.61682
1.3465	15.81116
1.347	18.63098
1.3475	23.96851
1.348	26.18408
1.3485	34.34143
1.349	37.7655
1.3495	39.77966
1.35	57.20215
1.3505	73.51685
1.351	79.66003
1.3515	81.27136
1.352	79.96216
1.3525	82.37915
1.353	84.39331
1.3535	88.11951
1.354	85.90393
1.3545	86.40747
1.355	82.27844
1.3555	84.19189
1.356	75.32959
1.3565	72.61047
1.357	61.6333
1.3575	43.40515
1.358	27.29187
1.3585	7.45239
1.359	-14.90479
1.3595	-35.95276
1.36	-56.69861
1.3605	-77.04163
1.361	-94.86694
1.3615	-113.39722
1.362	-124.97864
1.3625	-130.21545
1.363	-135.75439
1.3635	-137.66785
1.364	-133.63953
1.3645	-128.60413
1.365	-113.09509
1.3655	-97.18323
1.366	-89.12659
1.3665	-73.61755
1.367	-61.02905
1.3675	-49.24622
1.368	-34.94568
1.3685	-18.63098
1.369	-15.91187
1.3695	-11.38
1.37	-1.61133
1.3705	8.15735
1.371	7.5531
1.3715	9.86938
1.372	13.89771
1.3725	18.53027
1.373	25.47913
1.3735	24.67346
1.374	26.48621
1.3745	23.46497
1.375	19.83948
1.3755	30.11169
1.376	15.91187
1.3765	16.91895
1.377	26.78833
1.3775	17.32178
1.378	18.93311
1.3785	15.1062
1.379	16.01257
1.3795	10.87646
1.38	17.92603
1.3805	17.22107
1.381	15.40833
1.3815	15.81116
1.382	20.84656
1.3825	25.27771
1.383	25.27771
1.3835	26.98975
1.384	33.73718
1.3845	27.89612
1.385	27.19116
1.3855	25.98267
1.386	25.98267
1.3865	27.99683
1.387	22.6593
1.3875	22.76001
1.388	23.66638
1.3885	19.73877
1.389	17.52319
1.3895	13.59558
1.39	16.91895
1.3905	12.08496
1.391	9.06372
1.3915	11.07788
1.392	4.93469
1.3925	1.2085
1.393	-3.52478
1.3935	-1.40991
1.394	-1.71204
1.3945	-7.85522
1.395	-4.22974
1.3955	-4.22974
1.396	-5.63965
1.3965	-8.8623
1.397	-10.0708
1.3975	-10.37292
1.398	-11.07788
1.3985	-4.63257
1.399	-4.53186
1.3995	-10.57434
1.4	-5.23682
1.4005	-2.41699
1.401	5.0354
1.4015	-4.43115
1.402	0.80566
1.4025	-1.10779
1.403	0.80566
1.4035	0.30212
1.404	2.41699
1.4045	2.81982
1.405	3.22266
1.4055	3.02124
1.406	3.7262
1.4065	9.56726
1.407	8.05664
1.4075	8.8623
1.408	5.23682
1.4085	2.31628
1.409	4.63257
1.4095	5.94177
1.41	5.33752
1.4105	3.12195
1.411	1.71204
1.4115	8.25806
1.412	5.43823
1.4125	10.17151
1.413	13.19275
1.4135	11.88354
1.414	8.15735
1.4145	4.12903
1.415	0
1.4155	2.11487
1.416	1.2085
1.4165	0.70496
1.417	-0.50354
1.4175	0.70496
1.418	2.21558
1.4185	9.66797
1.419	3.8269
1.4195	1.2085
1.42	5.0354
1.4205	7.85522
1.421	4.12903
1.4215	6.14319
1.422	6.94885
1.4225	13.49487
1.423	9.26514
1.4235	5.23682
1.424	4.83398
1.4245	2.41699
1.425	3.7262
1.4255	7.25098
1.426	4.53186
1.4265	8.7616
1.427	5.13611
1.4275	0.80566
1.428	1.40991
1.4285	4.22974
1.429	6.44531
1.4295	4.53186
1.43	5.23682
1.4305	9.66797
1.431	13.59558
1.4315	6.54602
1.432	10.87646
1.4325	7.65381
1.433	6.44531
1.4335	-0.30212
1.434	3.52478
1.4345	6.64673
1.435	3.42407
1.4355	13.797
1.436	4.53186
1.4365	10.27222
1.437	9.26514
1.4375	6.64673
1.438	9.36584
1.4385	4.02832
1.439	8.25806
1.4395	7.85522
1.44	1.61133
1.4405	0.40283
1.441	0.20142
1.4415	-0.60425
1.442	1.51062
1.4425	8.45947
1.443	6.14319
1.4435	2.92053
1.444	4.83398
1.4445	4.83398
1.445	1.61133
1.4455	4.43115
1.446	3.8269
1.4465	2.92053
1.447	3.7262
1.4475	2.61841
1.448	0.50354
1.4485	-1.81274
1.449	1.61133
1.4495	-2.81982
1.45	5.33752
1.4505	3.42407
1.451	2.11487
1.4515	6.84814
1.452	4.73328
1.4525	1.91345
1.453	2.01416
1.4535	1.2085
1.454	3.7262
1.4545	5.74036
1.455	4.22974
1.4555	1.10779
1.456	0.20142
1.4565	6.14319
1.457	2.71912
1.4575	0.60425
1.458	-0.90637
1.4585	6.3446
1.459	9.06372
1.4595	3.52478
1.46	-2.01416
1.4605	6.54602
1.461	6.64673
1.4615	5.84106
1.462	8.05664
1.4625	3.32336
1.463	2.61841
1.4635	1.3092
1.464	6.94885
1.4645	2.5177
1.465	6.54602
1.4655	4.73328
1.466	5.0354
1.4665	4.63257
1.467	6.54602
1.4675	4.33044
1.468	-5.23682
1.4685	2.5177
1.469	6.04248
1.4695	2.61841
1.47	4.22974
1.4705	3.32336
1.471	6.64673
1.4715	1.91345
1.472	7.75452
1.4725	6.64673
1.473	6.2439
1.4735	3.12195
1.474	6.14319
1.4745	5.53894
1.475	4.63257
1.4755	3.7262
1.476	0.40283
1.4765	-2.01416
1.477	0.20142
1.4775	-4.73328
1.478	-9.46655
1.4785	-4.33044
1.479	-2.11487
1.4795	-3.92761
1.48	1.3092
1.4805	5.13611
1.481	-1.00708
1.4815	5.94177
1.482	6.74744
1.4825	5.43823
1.483	9.36584
1.4835	6.54602
1.484	3.42407
1.4845	2.21558
1.485	-2.11487
1.4855	5.0354
1.486	2.01416
1.4865	5.0354
1.487	4.93469
1.4875	7.45239
1.488	6.54602
1.4885	8.25806
1.489	-0.20142
1.4895	6.04248
1.49	6.64673
1.4905	6.04248
1.491	4.33044
1.4915	3.32336
1.492	0.70496
1.4925	-1.61133
1.493	3.32336
1.4935	7.15027
1.494	5.33752
1.4945	5.13611
1.495	6.54602
1.4955	5.33752
1.496	1.10779
1.4965	0.40283
1.497	1.2085
1.4975	5.33752
1.498	-0.30212
1.4985	1.00708
1.499	1.61133
1.4995	-3.02124
1.5	-3.02124
1.5005	6.54602
1.501	5.43823
1.5015	6.2439
1.502	11.2793
1.5025	13.39417
1.503	2.41699
1.5035	3.92761
1.504	8.25806
1.5045	11.2793
1.505	5.23682
1.5055	9.36584
1.506	3.7262
1.5065	0.70496
1.507	5.94177
1.5075	5.84106
1.508	4.53186
1.5085	2.61841
1.509	2.01416
1.5095	4.33044
1.51	1.81274
1.5105	3.12195
1.511	1.2085
1.5115	1.81274
1.512	6.14319
1.5125	5.33752
1.513	5.0354
1.5135	-0.60425
1.514	3.7262
1.5145	-1.61133
1.515	0.10071
1.5155	0.80566
1.516	-3.02124
1.5165	-4.43115
1.517	-2.92053
1.5175	7.25098
1.518	13.69629
1.5185	31.72302
1.519	44.21082
1.5195	55.79224
1.52	66.76941
1.5205	69.99207
1.521	82.68127
1.5215	90.83862
1.522	108.05969
1.5225	129.61121
1.523	144.6167
1.5235	146.32874
1.524	142.40112
1.5245	132.22961
1.525	120.7489
1.5255	103.42712
1.526	79.15649
1.5265	63.64746
1.527	48.74268
1.5275	27.29187
1.528	3.12195
1.5285	-13.797
1.529	-31.32019
1.5295	-45.62073
1.53	-54.48303
1.5305	-57.8064
1.531	-60.62622
1.5315	-66.6687
1.532	-70.09277
1.5325	-76.43738
1.533	-72.00623
1.5335	-67.8772
1.534	-61.93542
1.5345	-61.53259
1.535	-68.98499
1.5355	-74.42322
1.536	-71.09985
1.5365	-73.51685
1.537	-70.59631
1.5375	-66.46729
1.538	-65.66162
1.5385	-56.5979
1.539	-49.95117
1.5395	-46.62781
1.54	-32.12585
1.5405	-18.32886
1.541	-4.73328
1.5415	-7.65381
1.542	2.21558
1.5425	15.1062
1.543	13.19275
1.5435	17.32178
1.544	9.56726
1.5445	13.19275
1.545	9.06372
1.5455	1.51062
1.546	7.15027
1.5465	6.74744
1.547	15.71045
1.5475	14.30054
1.548	12.38708
1.5485	3.42407
1.549	-0.60425
1.5495	5.0354
1.55	5.94177
1.5505	10.0708
1.551	15.30762
1.5515	17.52319
1.552	18.42957
1.5525	22.86072
1.553	18.32886
1.5535	14.30054
1.554	10.37292
1.5545	10.0708
1.555	10.87646
1.5555	0.30212
1.556	-13.69629
1.5565	-23.66638
1.557	-35.44922
1.5575	-44.61365
1.558	-57.30286
1.5585	-57.20215
1.559	-51.46179
1.5595	-42.29736
1.56	-18.73169
1.5605	3.92761
1.561	25.37842
1.5615	39.67896
1.562	57.10144
1.5625	74.52393
1.563	90.63721
1.5635	104.63562
1.564	115.61279
1.5645	135.55298
1.565	147.63794
1.5655	169.99512
1.566	192.95654
1.5665	214.00452
1.567	234.64966
1.5675	264.76135
1.568	302.52686
1.5685	325.48828
1.569	340.49377
1.5695	335.55908
1.57	307.05872
1.5705	279.66614
1.571	250.56152
1.5715	214.91089
1.572	162.94556
1.5725	96.47827
1.573	34.64355
1.5735	-32.52869
1.574	-94.3634
1.5745	-153.88184
1.575	-217.73071
1.5755	-272.21375
1.576	-310.6842
1.5765	-329.91943
1.577	-343.11218
1.5775	-344.01855
1.578	-338.98315
1.5785	-334.65271
1.579	-316.12244
1.5795	-296.48438
1.58	-258.61816
1.5805	-223.57178
1.581	-197.4884
1.5815	-178.95813
1.582	-174.62769
1.5825	-159.01794
1.583	-135.65369
1.5835	-122.76306
1.584	-109.97314
1.5845	-91.54358
1.585	-86.70959
1.5855	-89.52942
1.586	-79.66003
1.5865	-72.50977
1.587	-58.81348
1.5875	-51.86462
1.588	-59.51843
1.5885	-54.98657
1.589	-55.59082
1.5895	-54.88586
1.59	-53.77808
1.5905	-54.98657
1.591	-34.34143
1.5915	-30.2124
1.592	-34.34143
1.5925	-22.96143
1.593	-22.55859
1.5935	-7.04956
1.594	-1.81274
1.5945	18.32886
1.595	24.37134
1.5955	35.95276
1.596	42.8009
1.5965	47.93701
1.597	52.36816
1.5975	62.64038
1.598	61.12976
1.5985	54.58374
1.599	50.2533
1.5995	55.99365
1.6	62.9425
1.6005	64.55383
1.601	73.41614
1.6015	80.86853
1.602	81.67419
1.6025	88.0188
1.603	93.75916
1.6035	98.19031
1.604	110.37598
1.6045	122.66235
1.605	128.80554
1.6055	118.93616
1.606	118.63403
1.6065	108.76465
1.607	100.30518
1.6075	87.71667
1.608	75.02747
1.6085	63.74817
1.609	44.71436
1.6095	37.66479
1.61	23.66638
1.6105	25.27771
1.611	24.97559
1.6115	34.64355
1.612	42.59949
1.6125	55.99365
1.613	56.90002
1.6135	63.24463
1.614	73.41614
1.6145	85.80322
1.615	85.80322
1.6155	83.99048
1.616	72.61047
1.6165	58.41064
1.617	40.88745
1.6175	27.79541
1.618	3.12195
1.6185	-20.34302
1.619	-45.52002
1.6195	-63.94958
1.62	-79.2572
1.6205	-92.55066
1.621	-100.90942
1.6215	-103.125
1.622	-105.34058
1.6225	-104.73633
1.623	-102.62146
1.6235	-96.07544
1.624	-84.39331
1.6245	-72.20764
1.625	-60.62622
1.6255	-49.24622
1.626	-35.65063
1.6265	-9.26514
1.627	21.14868
1.6275	50.354
1.628	49.54834
1.6285	58.51135
1.629	63.24463
1.6295	67.67578
1.63	70.59631
1.6305	74.62463
1.631	59.71985
1.6315	34.34143
1.632	15.71045
1.6325	4.12903
1.633	-0.30212
1.6335	-10.17151
1.634	-17.52319
1.6345	-16.61682
1.635	-24.57275
1.6355	-28.39966
1.636	-31.21948
1.6365	-22.76001
1.637	-16.91895
1.6375	-6.14319
1.638	3.8269
1.6385	16.01257
1.639	37.06055
1.6395	51.5625
1.64	66.76941
1.6405	81.67419
1.641	88.62305
1.6415	95.77332
1.642	93.0542
1.6425	73.21472
1.643	75.12817
1.6435	68.78357
1.644	56.79932
1.6445	50.75684
1.645	42.39807
1.6455	36.35559
1.646	30.71594
1.6465	21.95435
1.647	19.43665
1.6475	10.57434
1.648	0.40283
1.6485	-11.78284
1.649	-14.40125
1.6495	-12.08496
1.65	-5.74036
1.6505	15.60974
1.651	26.08337
1.6515	26.18408
1.652	21.95435
1.6525	18.32886
1.653	2.11487
1.6535	-18.93311
1.654	-42.29736
1.6545	-65.25879
1.655	-94.3634
1.6555	-114.20288
1.656	-142.70325
1.6565	-170.39795
1.657	-186.51123
1.6575	-187.92114
1.658	-185.40344
1.6585	-154.98962
1.659	-141.89758
1.6595	-108.56323
1.66	-80.36499
1.6605	-47.43347
1.661	-23.8678
1.6615	-5.13611
1.662	19.53735
1.6625	35.34851
1.663	40.68604
1.6635	44.11011
1.664	43.30444
1.6645	45.01648
1.665	49.85046
1.6655	48.94409
1.666	33.23364
1.6665	25.88196
1.667	23.56567
1.6675	22.6593
1.668	18.32886
1.6685	7.95593
1.669	10.17151
1.6695	18.32886
1.67	25.07629
1.6705	32.83081
1.671	40.88745
1.6715	42.59949
1.672	41.69312
1.6725	44.41223
1.673	43.40515
1.6735	39.57825
1.674	29.10461
1.6745	13.39417
1.675	3.92761
1.6755	-11.98425
1.676	-12.78992
1.6765	-13.99841
1.677	-11.68213
1.6775	-4.83398
1.678	5.53894
1.6785	9.26514
1.679	11.78284
1.6795	11.38
1.68	18.12744
1.6805	26.18408
1.681	21.85364
1.6815	31.11877
1.682	35.2478
1.6825	45.82214
1.683	62.74109
1.6835	80.16357
1.684	100.90942
1.6845	114.30359
1.685	114.60571
1.6855	113.49792
1.686	106.54907
1.6865	93.25562
1.687	75.93384
1.6875	46.72852
1.688	19.23523
1.6885	-5.84106
1.689	-31.62231
1.6895	-57.9071
1.69	-79.45862
1.6905	-93.45703
1.691	-98.29102
1.6915	-99.60022
1.692	-97.18323
1.6925	-87.61597
1.693	-81.37207
1.6935	-68.88428
1.694	-49.54834
1.6945	-29.60815
1.695	-8.35876
1.6955	17.42249
1.696	47.03064
1.6965	71.30127
1.697	79.45862
1.6975	73.81897
1.698	63.54675
1.6985	47.33276
1.699	37.16125
1.6995	21.85364
1.7	11.48071
1.7005	-6.54602
1.701	-22.6593
1.7015	-30.91736
1.702	-47.53418
1.7025	-49.85046
1.703	-62.53967
1.7035	-66.46729
1.704	-71.60339
1.7045	-70.89844
1.705	-61.6333
1.7055	-49.24622
1.706	-39.37683
1.7065	-29.30603
1.707	-11.58142
1.7075	2.31628
1.708	19.03381
1.7085	22.96143
1.709	39.77966
1.7095	42.7002
1.71	36.85913
1.7105	31.82373
1.711	31.92444
1.7115	23.66638
1.712	15.20691
1.7125	10.27222
1.713	12.99133
1.7135	8.7616
1.714	-7.5531
1.7145	-9.26514
1.715	-11.17859
1.7155	-4.83398
1.716	-7.85522
1.7165	-12.08496
1.717	-14.30054
1.7175	-19.53735
1.718	-10.67505
1.7185	-13.797
1.719	0.90637
1.7195	11.78284
1.72	33.83789
1.7205	41.79382
1.721	55.2887
1.7215	61.23047
1.722	71.80481
1.7225	77.44446
1.723	86.10535
1.7235	85.70251
1.724	86.10535
1.7245	86.60889
1.725	91.8457
1.7255	91.54358
1.726	93.55774
1.7265	97.78748
1.727	94.86694
1.7275	97.38464
1.728	91.94641
1.7285	77.84729
1.729	59.71985
1.7295	36.4563
1.73	20.04089
1.7305	8.45947
1.731	-22.15576
1.7315	-47.53418
1.732	-78.85437
1.7325	-95.67261
1.733	-101.31226
1.7335	-112.39014
1.734	-123.16589
1.7345	-124.17297
1.735	-110.77881
1.7355	-93.35632
1.736	-69.79065
1.7365	-39.17542
1.737	-14.80408
1.7375	6.84814
1.738	28.29895
1.7385	38.36975
1.739	48.64197
1.7395	50.15259
1.74	50.05188
1.7405	42.8009
1.741	45.01648
1.7415	51.66321
1.742	32.7301
1.7425	16.11328
1.743	-0.80566
1.7435	0.10071
1.744	-8.15735
1.7445	-19.83948
1.745	-17.82532
1.7455	-19.73877
1.746	-22.76001
1.7465	-22.96143
1.747	-20.04089
1.7475	-4.43115
1.748	1.00708
1.7485	13.49487
1.749	28.9032
1.7495	50.65613
1.75	64.45312
1.7505	68.88428
1.751	62.64038
1.7515	47.63489
1.752	28.80249
1.7525	12.38708
1.753	2.81982
1.7535	-5.33752
1.754	-17.6239
1.7545	-32.62939
1.755	-35.65063
1.7555	-37.66479
1.756	-44.21082
1.7565	-46.02356
1.757	-47.63489
1.7575	-56.69861
1.758	-53.57666
1.7585	-59.61914
1.759	-56.90002
1.7595	-61.33118
1.76	-45.72144
1.7605	-30.81665
1.761	-19.13452
1.7615	-8.96301
1.762	-3.32336
1.7625	4.22974
1.763	9.36584
1.7635	17.42249
1.764	16.51611
1.7645	15.81116
1.765	36.75842
1.7655	57.40356
1.766	70.49561
1.7665	84.39331
1.767	97.28394
1.7675	105.54199
1.768	104.83704
1.7685	107.55615
1.769	106.14624
1.7695	89.73083
1.77	78.75366
1.7705	61.93542
1.771	45.52002
1.7715	29.10461
1.772	15.30762
1.7725	-2.92053
1.773	-30.41382
1.7735	-50.85754
1.774	-66.76941
1.7745	-84.19189
1.775	-93.0542
1.7755	-95.67261
1.776	-107.95898
1.7765	-106.8512
1.777	-114.70642
1.7775	-110.27527
1.778	-97.38464
1.7785	-75.93384
1.779	-60.62622
1.7795	-51.36108
1.78	-29.80957
1.7805	-20.64514
1.781	-9.97009
1.7815	5.13611
1.782	12.08496
1.7825	25.57983
1.783	29.00391
1.7835	25.98267
1.784	30.01099
1.7845	20.54443
1.785	19.13452
1.7855	22.96143
1.786	24.27063
1.7865	21.14868
1.787	17.22107
1.7875	5.53894
1.788	-2.61841
1.7885	-7.45239
1.789	-7.95593
1.7895	-10.77576
1.79	0.60425
1.7905	5.84106
1.791	9.66797
1.7915	16.91895
1.792	13.09204
1.7925	11.68213
1.793	18.73169
1.7935	22.55859
1.794	22.55859
1.7945	31.01807
1.795	29.70886
1.7955	41.79382
1.796	50.05188
1.7965	49.44763
1.797	41.18958
1.7975	41.89453
1.798	38.36975
1.7985	36.35559
1.799	29.40674
1.7995	25.98267
1.8	18.42957
1.8005	6.64673
1.801	12.18567
1.8015	11.58142
1.802	5.13611
1.8025	8.66089
1.803	3.22266
1.8035	2.5177
1.804	4.93469
1.8045	6.74744
1.805	9.56726
1.8055	12.28638
1.806	11.78284
1.8065	18.93311
1.807	21.75293
1.8075	30.81665
1.808	41.18958
1.8085	46.72852
1.809	50.05188
1.8095	50.95825
1.81	48.64197
1.8105	51.96533
1.811	55.2887
1.8115	67.07153
1.812	89.328
1.8125	104.3335
1.813	117.12341
1.8135	138.07068
1.814	145.9259
1.8145	155.29175
1.815	148.14148
1.8155	140.38696
1.816	134.34448
1.8165	104.93774
1.817	74.02039
1.8175	43.50586
1.818	0.30212
1.8185	-30.31311
1.819	-72.50977
1.8195	-103.72925
1.82	-132.33032
1.8205	-167.57812
1.821	-183.18787
1.8215	-194.46716
1.822	-202.12097
1.8225	-204.53796
1.823	-204.13513
1.8235	-185.50415
1.824	-154.58679
1.8245	-133.43811
1.825	-112.08801
1.8255	-100.6073
1.826	-94.76624
1.8265	-78.25012
1.827	-58.30994
1.8275	-35.54993
1.828	-17.32178
1.8285	-4.02832
1.829	6.44531
1.8295	10.27222
1.83	20.64514
1.8305	26.88904
1.831	21.95435
1.8315	22.15576
1.832	16.81824
1.8325	17.12036
1.833	17.01965
1.8335	21.55151
1.834	15.40833
1.8345	20.64514
1.835	25.68054
1.8355	21.45081
1.836	19.83948
1.8365	22.6593
1.837	19.53735
1.8375	17.22107
1.838	21.65222
1.8385	21.45081
1.839	19.83948
1.8395	23.36426
1.84	20.94727
1.8405	23.96851
1.841	19.83948
1.8415	22.86072
1.842	17.42249
1.8425	15.60974
1.843	18.42957
1.8435	19.43665
1.844	21.14868
1.8445	18.12744
1.845	17.32178
1.8455	12.08496
1.846	5.63965
1.8465	11.78284
1.847	7.65381
1.8475	8.35876
1.848	5.94177
1.8485	14.40125
1.849	8.7616
1.8495	12.18567
1.85	24.06921
1.8505	29.70886
1.851	30.71594
1.8515	31.62231
1.852	32.62939
1.8525	32.22656
1.853	32.93152
1.8535	38.06763
1.854	39.67896
1.8545	37.06055
1.855	34.34143
1.8555	30.2124
1.856	27.79541
1.8565	26.18408
1.857	27.39258
1.8575	19.63806
1.858	17.6239
1.8585	18.93311
1.859	24.67346
1.8595	17.32178
1.86	22.86072
1.8605	26.58691
1.861	22.76001
1.8615	20.84656
1.862	30.2124
1.8625	34.94568
1.863	34.64355
1.8635	35.65063
1.864	29.00391
1.8645	21.14868
1.865	12.5885
1.8655	3.92761
1.866	-1.00708
1.8665	2.71912
1.867	-4.73328
1.8675	-13.69629
1.868	-18.73169
1.8685	-12.38708
1.869	-16.3147
1.8695	-11.38
1.87	-0.50354
1.8705	5.94177
1.871	12.78992
1.8715	20.64514
1.872	23.96851
1.8725	21.65222
1.873	33.53577
1.8735	44.91577
1.874	55.89294
1.8745	60.62622
1.875	65.96375
1.8755	68.38074
1.876	65.05737
1.8765	51.76392
1.877	41.89453
1.8775	30.91736
1.878	18.73169
1.8785	17.92603
1.879	10.37292
1.8795	6.64673
1.88	-9.36584
1.8805	-22.15576
1.881	-26.08337
1.8815	-32.32727
1.882	-38.06763
1.8825	-33.53577
1.883	-35.95276
1.8835	-40.48462
1.884	-38.36975
1.8845	-27.39258
1.885	-18.93311
1.8855	-10.87646
1.886	-1.51062
1.8865	3.12195
1.887	6.3446
1.8875	15.81116
1.888	32.52869
1.8885	41.18958
1.889	48.94409
1.8895	40.1825
1.89	36.65771
1.8905	31.72302
1.891	25.177
1.8915	12.99133
1.892	-0.10071
1.8925	-15.40833
1.893	-28.09753
1.8935	-41.08887
1.894	-52.36816
1.8945	-60.12268
1.895	-67.27295
1.8955	-68.38074
1.896	-51.05896
1.8965	-34.94568
1.897	-18.02673
1.8975	12.89062
1.898	31.21948
1.8985	50.85754
1.899	69.1864
1.8995	70.79773
1.9	71.30127
1.9005	67.67578
1.901	62.74109
1.9015	45.72144
1.902	33.63647
1.9025	13.69629
1.903	-9.56726
1.9035	-37.16125
1.904	-47.63489
1.9045	-64.45312
1.905	-78.95508
1.9055	-78.45154
1.906	-78.65295
1.9065	-73.21472
1.907	-54.78516
1.9075	-40.58533
1.908	-22.45789
1.9085	-3.7262
1.909	4.93469
1.9095	21.55151
1.91	38.67188
1.9105	43.90869
1.911	49.44763
1.9115	51.15967
1.912	51.36108
1.9125	57.10144
1.913	57.00073
1.9135	46.72852
1.914	38.57117
1.9145	37.46338
1.915	30.41382
1.9155	32.52869
1.916	43.70728
1.9165	70.79773
1.917	95.67261
1.9175	106.64978
1.918	108.05969
1.9185	100.00305
1.919	92.44995
1.9195	77.04163
1.92	71.50269
1.9205	66.06445
1.921	62.23755
1.9215	48.54126
1.922	34.03931
1.9225	21.65222
1.923	13.49487
1.9235	7.25098
1.924	-8.25806
1.9245	-29.30603
1.925	-42.19666
1.9255	-55.59082
1.926	-62.33826
1.9265	-79.05579
1.927	-97.58606
1.9275	-118.43262
1.928	-134.14307
1.9285	-137.66785
1.929	-140.78979
1.9295	-143.00537
1.93	-124.87793
1.9305	-105.6427
1.931	-78.75366
1.9315	-77.34375
1.932	-58.71277
1.9325	-37.26196
1.933	0.50354
1.9335	25.07629
1.934	43.40515
1.9345	46.12427
1.935	43.50586
1.9355	38.57117
1.936	40.68604
1.9365	39.67896
1.937	30.01099
1.9375	25.88196
1.938	25.27771
1.9385	30.81665
1.939	32.83081
1.9395	24.37134
1.94	12.78992
1.9405	6.54602
1.941	3.02124
1.9415	1.10779
1.942	-9.97009
1.9425	-21.95435
1.943	-29.20532
1.9435	-42.49878
1.944	-31.32019
1.9445	-20.64514
1.945	-15.71045
1.9455	0.30212
1.946	17.32178
1.9465	23.46497
1.947	24.67346
1.9475	47.13135
1.948	61.6333
1.9485	68.98499
1.949	73.71826
1.9495	59.82056
1.95	54.38232
1.9505	49.64905
1.951	48.23914
1.9515	48.33984
1.952	45.92285
1.9525	42.90161
1.953	50.65613
1.9535	50.05188
1.954	62.13684
1.9545	67.37366
1.955	72.10693
1.9555	73.91968
1.956	76.53809
1.9565	72.61047
1.957	68.48145
1.9575	55.08728
1.958	37.66479
1.9585	12.08496
1.959	-19.63806
1.9595	-39.17542
1.96	-57.20215
1.9605	-72.81189
1.961	-100.80872
1.9615	-111.08093
1.962	-127.19421
1.9625	-137.46643
1.963	-132.12891
1.9635	-109.67102
1.964	-101.61438
1.9645	-96.67969
1.965	-82.78198
1.9655	-52.46887
1.966	-17.92603
1.9665	11.38
1.967	27.29187
1.9675	18.93311
1.968	26.78833
1.9685	36.55701
1.969	50.354
1.9695	68.68286
1.97	81.87561
1.9705	93.0542
1.971	108.66394
1.9715	118.33191
1.972	124.17297
1.9725	127.09351
1.973	129.20837
1.9735	130.01404
1.974	123.56873
1.9745	108.66394
1.975	88.22021
1.9755	71.50269
1.976	45.01648
1.9765	16.21399
1.977	-13.39417
1.9775	-43.90869
1.978	-68.28003
1.9785	-89.22729
1.979	-93.55774
1.9795	-101.9165
1.98	-108.46252
1.9805	-119.64111
1.981	-101.51367
1.9815	-90.5365
1.982	-73.41614
1.9825	-58.81348
1.983	-36.65771
1.9835	-14.19983
1.984	13.89771
1.9845	30.51453
1.985	39.77966
1.9855	41.59241
1.986	40.48462
1.9865	43.80798
1.987	51.26038
1.9875	39.37683
1.988	25.27771
1.9885	12.38708
1.989	5.23682
1.9895	-4.53186
1.99	-13.19275
1.9905	-21.45081
1.991	-24.97559
1.9915	-36.55701
1.992	-43.70728
1.9925	-41.79382
1.993	-39.17542
1.9935	-37.36267
1.994	-31.32019
1.9945	-25.37842
1.995	-20.74585
1.9955	-15.40833
1.996	-4.02832
1.9965	-2.61841
1.997	5.43823
1.9975	18.93311
1.998	20.04089
1.9985	27.89612
1.999	25.37842
1.9995	29.60815
2	29.70886
2.0005	32.93152
2.001	37.56409
2.0015	29.20532
2.002	35.2478
2.0025	30.91736
2.003	23.56567
2.0035	24.97559
2.004	33.83789
2.0045	28.70178
2.005	25.68054
2.0055	12.99133
2.006	13.19275
2.0065	2.21558
2.007	-4.83398
2.0075	-9.16443
2.008	-3.02124
2.0085	-3.42407
2.009	-12.89062
2.0095	-19.03381
2.01	-12.78992
2.0105	-12.28638
2.011	-13.29346
2.0115	-16.3147
2.012	-14.30054
2.0125	-5.13611
2.013	6.94885
2.0135	27.19116
2.014	61.73401
2.0145	88.22021
2.015	86.60889
2.0155	90.73792
2.016	89.83154
2.0165	91.8457
2.017	93.15491
2.0175	94.96765
2.018	97.38464
2.0185	97.28394
2.019	99.19739
2.0195	99.3988
2.02	104.13208
2.0205	97.78748
2.021	89.83154
2.0215	72.71118
2.022	48.23914
2.0225	23.16284
2.023	-4.43115
2.0235	-19.03381
2.024	-30.51453
2.0245	-48.03772
2.025	-62.43896
2.0255	-76.53809
2.026	-92.55066
2.0265	-100.00305
2.027	-103.02429
2.0275	-90.63721
2.028	-69.89136
2.0285	-54.0802
2.029	-30.71594
2.0295	-16.21399
2.03	-2.5177
2.0305	8.8623
2.031	21.65222
2.0315	38.16833
2.032	50.95825
2.0325	53.57666
2.033	53.27454
2.0335	64.85596
2.034	69.38782
2.0345	62.03613
2.035	57.8064
2.0355	49.74976
2.036	32.52869
2.0365	16.61682
2.037	1.3092
2.0375	-8.96301
2.038	-4.53186
2.0385	2.31628
2.039	-7.45239
2.0395	-22.96143
2.04	-27.39258
2.0405	-23.06213
2.041	-10.47363
2.0415	-10.17151
2.042	-7.04956
2.0425	-3.92761
2.043	-2.5177
2.0435	5.63965
2.044	13.09204
2.0445	21.85364
2.045	28.50037
2.0455	21.14868
2.046	4.12903
2.0465	-13.797
2.047	-32.52869
2.0475	-49.54834
2.048	-71.40198
2.0485	-98.79456
2.049	-124.17297
2.0495	-139.88342
2.05	-145.8252
2.0505	-136.56006
2.051	-113.69934
2.0515	-85.5011
2.052	-52.26746
2.0525	-18.42957
2.053	8.05664
2.0535	19.94019
2.054	31.92444
2.0545	48.94409
2.055	55.18799
2.0555	55.2887
2.056	48.33984
2.0565	39.07471
2.057	29.80957
2.0575	33.83789
2.058	33.43506
2.0585	34.94568
2.059	32.42798
2.0595	26.68762
2.06	33.13293
2.0605	34.14001
2.061	38.26904
2.0615	43.80798
2.062	50.95825
2.0625	47.33276
2.063	54.78516
2.0635	49.0448
2.064	54.58374
2.0645	63.44604
2.065	62.03613
2.0655	60.82764
2.066	54.88586
2.0665	49.24622
2.067	43.50586
2.0675	32.7301
2.068	29.00391
2.0685	15.91187
2.069	4.02832
2.0695	-10.97717
2.07	-8.8623
2.0705	-18.8324
2.071	-29.30603
2.0715	-33.53577
2.072	-30.2124
2.0725	-27.89612
2.073	-33.63647
2.0735	-35.34851
2.074	-32.93152
2.0745	-25.27771
2.075	-19.13452
2.0755	-7.15027
2.076	-7.45239
2.0765	-5.33752
2.077	-2.11487
2.0775	2.01416
2.078	4.22974
2.0785	6.3446
2.079	10.47363
2.0795	12.38708
2.08	14.60266
2.0805	6.84814
2.081	2.92053
2.0815	4.53186
2.082	2.21558
2.0825	4.12903
2.083	3.7262
2.0835	0
2.084	3.62549
2.0845	3.7262
2.085	8.7616
2.0855	7.35168
2.086	8.96301
2.0865	10.47363
2.087	19.73877
2.0875	23.06213
2.088	21.95435
2.0885	17.82532
2.089	7.95593
2.0895	12.99133
2.09	4.33044
2.0905	0.60425
2.091	3.8269
2.0915	1.40991
2.092	5.33752
2.0925	14.19983
2.093	12.68921
2.0935	15.91187
2.094	13.99841
2.0945	9.16443
2.095	5.0354
2.0955	9.16443
2.096	11.98425
2.0965	7.95593
2.097	8.45947
2.0975	15.60974
2.098	17.82532
2.0985	11.88354
2.099	18.93311
2.0995	29.20532
2.1	42.29736
2.1005	48.03772
2.101	49.64905
2.1015	61.93542
2.102	70.99915
2.1025	73.11401
2.103	66.36658
2.1035	60.3241
2.104	61.02905
2.1045	46.82922
2.105	28.9032
2.1055	20.04089
2.106	18.02673
2.1065	17.52319
2.107	1.71204
2.1075	-5.74036
2.108	-3.7262
2.1085	-12.18567
2.109	-16.71753
2.1095	-23.66638
2.11	-25.88196
2.1105	-28.80249
2.111	-22.6593
2.1115	-18.12744
2.112	-31.4209
2.1125	-43.10303
2.113	-52.06604
2.1135	-58.71277
2.114	-62.53967
2.1145	-43.00232
2.115	-32.83081
2.1155	-27.6947
2.116	-20.44373
2.1165	1.51062
2.117	13.49487
2.1175	15.81116
2.118	28.09753
2.1185	66.46729
2.119	113.29651
2.1195	146.42944
2.12	157.00378
2.1205	147.73865
2.121	144.41528
2.1215	122.96448
2.122	105.6427
2.1225	82.37915
2.123	51.66321
2.1235	22.86072
2.124	-3.62549
2.1245	-36.25488
2.125	-70.99915
2.1255	-94.46411
2.126	-115.41138
2.1265	-115.7135
2.127	-100.10376
2.1275	-81.06995
2.128	-73.11401
2.1285	-61.43188
2.129	-47.93701
2.1295	-43.20374
2.13	-26.18408
2.1305	-20.44373
2.131	-22.86072
2.1315	-22.76001
2.132	-15.60974
2.1325	-26.68762
2.133	-36.05347
2.1335	-50.354
2.134	-65.46021
2.1345	-57.50427
2.135	-46.92993
2.1355	-30.51453
2.136	-16.51611
2.1365	-10.57434
2.137	2.61841
2.1375	19.63806
2.138	26.18408
2.1385	29.91028
2.139	25.07629
2.1395	23.36426
2.14	19.83948
2.1405	5.53894
2.141	6.04248
2.1415	3.32336
2.142	21.95435
2.1425	28.29895
2.143	29.91028
2.1435	25.177
2.144	20.64514
2.1445	18.8324
2.145	18.42957
2.1455	6.74744
2.146	-1.10779
2.1465	5.84106
2.147	20.44373
2.1475	29.00391
2.148	34.24072
2.1485	37.36267
2.149	32.93152
2.1495	38.16833
2.15	46.62781
2.1505	53.27454
2.151	60.72693
2.1515	65.56091
2.152	66.56799
2.1525	61.43188
2.153	61.93542
2.1535	60.72693
2.154	54.38232
2.1545	35.54993
2.155	16.01257
2.1555	-9.26514
2.156	-26.08337
2.1565	-58.00781
2.157	-78.75366
2.1575	-103.02429
2.158	-126.48926
2.1585	-145.32166
2.159	-158.71582
2.1595	-155.79529
2.16	-151.96838
2.1605	-137.96997
2.161	-117.92908
2.1615	-83.38623
2.162	-61.73401
2.1625	-47.23206
2.163	-26.68762
2.1635	-9.06372
2.164	18.12744
2.1645	47.93701
2.165	65.86304
2.1655	74.2218
2.166	83.58765
2.1665	75.93384
2.167	66.76941
2.1675	69.1864
2.168	69.58923
2.1685	76.13525
2.169	75.12817
2.1695	68.48145
2.17	65.05737
2.1705	59.41772
2.171	52.06604
2.1715	41.59241
2.172	32.12585
2.1725	5.33752
2.173	-10.17151
2.1735	-23.26355
2.174	-41.89453
2.1745	-56.19507
2.175	-61.83472
2.1755	-65.25879
2.176	-66.97083
2.1765	-59.31702
2.177	-54.68445
2.1775	-35.14709
2.178	-21.24939
2.1785	-7.35168
2.179	5.63965
2.1795	22.76001
2.18	42.49878
2.1805	57.00073
2.181	65.3595
2.1815	61.53259
2.182	62.43896
2.1825	63.24463
2.183	64.65454
2.1835	71.90552
2.184	76.94092
2.1845	73.41614
2.185	72.71118
2.1855	66.97083
2.186	55.2887
2.1865	54.98657
2.187	38.77258
2.1875	21.45081
2.188	3.22266
2.1885	-17.22107
2.189	-37.16125
2.1895	-51.96533
2.19	-57.9071
2.1905	-62.43896
2.191	-64.45312
2.1915	-59.1156
2.192	-42.49878
2.1925	-17.6239
2.193	32.12585
2.1935	92.14783
2.194	142.60254
2.1945	174.02344
2.195	202.5238
2.1955	232.6355
2.196	247.03674
2.1965	241.90063
2.197	222.36328
2.1975	197.4884
2.198	169.89441
2.1985	131.12183
2.199	81.87561
2.1995	25.07629
2.2	-28.50037
2.2005	-82.88269
2.201	-122.05811
2.2015	-165.46326
2.202	-190.74097
2.2025	-214.00452
2.203	-233.34045
2.2035	-243.51196
2.204	-237.57019
2.2045	-232.43408
2.205	-227.6001
2.2055	-200.10681
2.206	-157.70874
2.2065	-114.30359
2.207	-80.36499
2.2075	-63.24463
2.208	-57.70569
2.2085	-41.08887
2.209	-25.57983
2.2095	-15.20691
2.21	-3.32336
2.2105	9.16443
2.211	25.07629
2.2115	61.93542
2.212	86.70959
2.2125	105.54199
2.213	118.02979
2.2135	123.87085
2.214	124.27368
2.2145	123.56873
2.215	125.88501
2.2155	131.52466
2.216	126.79138
2.2165	112.69226
2.217	102.11792
2.2175	86.40747
2.218	75.32959
2.2185	62.53967
2.219	47.93701
2.2195	25.47913
2.22	9.16443
2.2205	-4.33044
2.221	-27.6947
2.2215	-42.8009
2.222	-57.8064
2.2225	-66.06445
2.223	-56.5979
2.2235	-42.29736
2.224	-30.31311
2.2245	-24.37134
2.225	-20.1416
2.2255	-1.3092
2.226	17.42249
2.2265	22.05505
2.227	19.13452
2.2275	7.04956
2.228	-8.35876
2.2285	-26.88904
2.229	-33.13293
2.2295	-46.02356
2.23	-45.3186
2.2305	-59.71985
2.231	-72.10693
2.2315	-85.19897
2.232	-95.5719
2.2325	-109.4696
2.233	-112.49084
2.2335	-116.01562
2.234	-98.69385
2.2345	-84.19189
2.235	-68.58215
2.2355	-55.79224
2.236	-45.41931
2.2365	-20.94727
2.237	-1.91345
2.2375	16.91895
2.238	45.11719
2.2385	81.47278
2.239	115.10925
2.2395	137.36572
2.24	149.55139
2.2405	157.80945
2.241	168.38379
2.2415	181.27441
2.242	186.20911
2.2425	169.49158
2.243	150.25635
2.2435	126.58997
2.244	96.8811
2.2445	69.28711
2.245	34.94568
2.2455	3.02124
2.246	-33.73718
2.2465	-69.58923
2.247	-96.98181
2.2475	-115.10925
2.248	-132.22961
2.2485	-146.02661
2.249	-151.76697
2.2495	-143.4082
2.25	-129.20837
2.2505	-113.49792
2.251	-106.04553
2.2515	-84.79614
2.252	-62.23755
2.2525	-63.54675
2.253	-64.65454
2.2535	-48.13843
2.254	-31.32019
2.2545	-2.31628
2.255	12.38708
2.2555	15.30762
2.256	20.34302
2.2565	17.12036
2.257	19.73877
2.2575	18.8324
2.258	21.65222
2.2585	25.88196
2.259	30.31311
2.2595	30.31311
2.26	26.68762
2.2605	29.30603
2.261	24.37134
2.2615	29.00391
2.262	29.70886
2.2625	24.97559
2.263	13.89771
2.2635	13.39417
2.264	15.81116
2.2645	23.46497
2.265	22.15576
2.2655	20.84656
2.266	12.89062
2.2665	17.12036
2.267	13.09204
2.2675	6.3446
2.268	6.64673
2.2685	13.09204
2.269	20.64514
2.2695	22.05505
2.27	20.04089
2.2705	20.44373
2.271	23.16284
2.2715	26.88904
2.272	35.54993
2.2725	43.90869
2.273	50.354
2.2735	55.79224
2.274	61.33118
2.2745	65.3595
2.275	73.11401
2.2755	80.86853
2.276	90.73792
2.2765	97.18323
2.277	101.51367
2.2775	101.01013
2.278	92.75208
2.2785	82.68127
2.279	73.51685
2.2795	46.62781
2.28	30.61523
2.2805	18.8324
2.281	-2.01416
2.2815	-20.84656
2.282	-39.77966
2.2825	-59.61914
2.283	-74.02039
2.2835	-81.17065
2.284	-89.83154
2.2845	-98.29102
2.285	-92.44995
2.2855	-87.61597
2.286	-74.72534
2.2865	-53.27454
2.287	-38.77258
2.2875	-22.55859
2.288	-3.8269
2.2885	1.91345
2.289	10.27222
2.2895	26.48621
2.29	40.1825
2.2905	50.85754
2.291	46.42639
2.2915	38.47046
2.292	38.06763
2.2925	33.23364
2.293	28.70178
2.2935	22.96143
2.294	25.98267
2.2945	21.14868
2.295	20.24231
2.2955	11.38
2.296	6.64673
2.2965	-1.61133
2.297	-3.42407
2.2975	-9.86938
2.298	-10.17151
2.2985	-14.30054
2.299	-10.27222
2.2995	-15.00549
2.3	-18.42957
2.3005	-22.55859
2.301	-16.61682
2.3015	-4.63257
2.302	4.43115
2.3025	11.68213
2.303	8.8623
2.3035	10.17151
2.304	11.68213
2.3045	16.91895
2.305	30.2124
2.3055	54.98657
2.306	78.45154
2.3065	93.35632
2.307	109.67102
2.3075	138.87634
2.308	168.18237
2.3085	194.56787
2.309	199.9054
2.3095	188.32397
2.31	181.47583
2.3105	173.41919
2.311	143.91174
2.3115	105.54199
2.312	59.82056
2.3125	11.07788
2.313	-37.16125
2.3135	-80.56641
2.314	-110.6781
2.3145	-136.86218
2.315	-147.53723
2.3155	-162.13989
2.316	-170.19653
2.3165	-165.06042
2.317	-145.72449
2.3175	-130.01404
2.318	-116.41846
2.3185	-80.56641
2.319	-45.92285
2.3195	-22.76001
2.32	-7.35168
2.3205	-5.0354
2.321	-10.27222
2.3215	-16.51611
2.322	-14.90479
2.3225	2.21558
2.323	28.29895
2.3235	61.43188
2.324	94.86694
2.3245	116.72058
2.325	140.08484
2.3255	158.5144
2.326	173.21777
2.3265	172.81494
2.327	160.32715
2.3275	128.50342
2.328	86.50818
2.3285	27.6947
2.329	-39.47754
2.3295	-100.90942
2.33	-153.88184
2.3305	-200.61035
2.331	-243.10913
2.3315	-269.29321
2.332	-270.80383
2.3325	-254.38843
2.333	-225.98877
2.3335	-204.9408
2.334	-178.45459
2.3345	-146.32874
2.335	-109.87244
2.3355	-71.40198
2.336	-50.95825
2.3365	-24.87488
2.337	-4.63257
2.3375	11.48071
2.338	35.2478
2.3385	43.70728
2.339	45.72144
2.3395	34.64355
2.34	29.00391
2.3405	30.51453
2.341	31.01807
2.3415	30.91736
2.342	25.27771
2.3425	28.60107
2.343	32.12585
2.3435	31.32019
2.344	22.76001
2.3445	19.23523
2.345	20.84656
2.3455	15.1062
2.346	18.32886
2.3465	19.33594
2.347	20.74585
2.3475	30.11169
2.348	27.29187
2.3485	44.61365
2.349	51.05896
2.3495	59.51843
2.35	69.99207
2.3505	88.42163
2.351	105.03845
2.3515	102.72217
2.352	101.71509
2.3525	100.20447
2.353	95.06836
2.3535	90.23438
2.354	76.7395
2.3545	62.64038
2.355	44.81506
2.3555	31.32019
2.356	24.57275
2.3565	23.16284
2.357	6.3446
2.3575	-3.12195
2.358	-9.66797
2.3585	-15.71045
2.359	-29.50745
2.3595	-45.41931
2.36	-52.36816
2.3605	-58.81348
2.361	-61.73401
2.3615	-61.73401
2.362	-54.78516
2.3625	-33.23364
2.363	-32.83081
2.3635	-27.6947
2.364	-18.42957
2.3645	-10.27222
2.365	2.31628
2.3655	4.83398
2.366	4.73328
2.3665	10.77576
2.367	12.78992
2.3675	5.53894
2.368	-2.11487
2.3685	-4.53186
2.369	-3.7262
2.3695	-3.62549
2.37	1.71204
2.3705	1.2085
2.371	13.89771
2.3715	27.09045
2.372	23.16284
2.3725	28.29895
2.373	26.78833
2.3735	22.35718
2.374	16.3147
2.3745	13.69629
2.375	14.50195
2.3755	8.7616
2.376	7.95593
2.3765	9.36584
2.377	4.22974
2.3775	7.75452
2.378	11.07788
2.3785	8.96301
2.379	7.95593
2.3795	7.15027
2.38	7.85522
2.3805	10.17151
2.381	19.83948
2.3815	38.57117
2.382	43.50586
2.3825	43.40515
2.383	41.89453
2.3835	42.90161
2.384	50.75684
2.3845	56.19507
2.385	48.54126
2.3855	38.974
2.386	25.98267
2.3865	20.74585
2.387	13.89771
2.3875	18.42957
2.388	21.85364
2.3885	25.47913
2.389	21.95435
2.3895	24.97559
2.39	29.40674
2.3905	27.29187
2.391	20.84656
2.3915	16.41541
2.392	12.5885
2.3925	3.92761
2.393	-11.58142
2.3935	-23.26355
2.394	-28.39966
2.3945	-30.2124
2.395	-30.51453
2.3955	-35.44922
2.396	-36.05347
2.3965	-20.94727
2.397	1.71204
2.3975	24.57275
2.398	41.18958
2.3985	58.00781
2.399	80.76782
2.3995	105.6427
2.4	134.24377
2.4005	144.91882
2.401	145.01953
2.4015	131.02112
2.402	95.37048
2.4025	69.58923
2.403	46.12427
2.4035	12.89062
2.404	-13.19275
2.4045	-45.82214
2.405	-71.40198
2.4055	-95.47119
2.406	-103.52783
2.4065	-98.0896
2.407	-103.22571
2.4075	-103.32642
2.408	-95.47119
2.4085	-80.96924
2.409	-58.30994
2.4095	-43.30444
2.41	-30.2124
2.4105	-32.52869
2.411	-39.37683
2.4115	-42.39807
2.412	-48.84338
2.4125	-53.97949
2.413	-53.87878
2.4135	-59.82056
2.414	-57.10144
2.4145	-52.67029
2.415	-47.13135
2.4155	-43.10303
2.416	-37.46338
2.4165	-6.2439
2.417	49.0448
2.4175	85.80322
2.418	96.98181
2.4185	96.07544
2.419	96.67969
2.4195	90.5365
2.42	85.19897
2.4205	88.52234
2.421	110.37598
2.4215	135.65369
2.422	148.94714
2.4225	148.74573
2.423	138.67493
2.4235	125.28076
2.424	107.65686
2.4245	83.68835
2.425	59.21631
2.4255	34.64355
2.426	0.20142
2.4265	-33.03223
2.427	-68.68286
2.4275	-89.22729
2.428	-119.03687
2.4285	-147.94006
2.429	-166.57104
2.4295	-176.94397
2.43	-168.68591
2.4305	-154.88892
2.431	-150.25635
2.4315	-141.09192
2.432	-129.10767
2.4325	-114.80713
2.433	-91.54358
2.4335	-59.92126
2.434	-44.11011
2.4345	-17.01965
2.435	16.11328
2.4355	34.44214
2.436	38.57117
2.4365	54.68445
2.437	58.51135
2.4375	50.75684
2.438	50.75684
2.4385	66.76941
2.439	79.15649
2.4395	72.61047
2.44	64.85596
2.4405	61.73401
2.441	53.37524
2.4415	44.51294
2.442	37.46338
2.4425	30.01099
2.443	20.54443
2.4435	16.41541
2.444	17.92603
2.4445	12.89062
2.445	5.0354
2.4455	1.61133
2.446	-11.68213
2.4465	-17.22107
2.447	-16.71753
2.4475	-15.20691
2.448	-17.52319
2.4485	-11.48071
2.449	-1.61133
2.4495	14.60266
2.45	28.09753
2.4505	38.26904
2.451	56.5979
2.4515	69.28711
2.452	84.49402
2.4525	99.80164
2.453	89.63013
2.4535	79.55933
2.454	59.1156
2.4545	38.87329
2.455	15.60974
2.4555	-0.90637
2.456	-32.22656
2.4565	-64.75525
2.457	-88.92517
2.4575	-110.37598
2.458	-120.54749
2.4585	-129.5105
2.459	-122.36023
2.4595	-114.60571
2.46	-98.19031
2.4605	-75.73242
2.461	-52.16675
2.4615	-21.04797
2.462	2.92053
2.4625	29.20532
2.463	53.97949
2.4635	71.20056
2.464	83.99048
2.4645	84.69543
2.465	72.81189
2.4655	69.1864
2.466	66.97083
2.4665	55.08728
2.467	60.02197
2.4675	61.43188
2.468	71.20056
2.4685	72.9126
2.469	91.34216
2.4695	91.94641
2.47	97.08252
2.4705	99.70093
2.471	93.65845
2.4715	80.4657
2.472	65.25879
2.4725	48.13843
2.473	42.59949
2.4735	36.05347
2.474	49.44763
2.4745	53.77808
2.475	57.10144
2.4755	50.85754
2.476	54.68445
2.4765	57.70569
2.477	36.05347
2.4775	19.33594
2.478	11.38
2.4785	-0.30212
2.479	4.02832
2.4795	-4.73328
2.48	-4.22974
2.4805	-8.35876
2.481	-7.35168
2.4815	0.40283
2.482	0.20142
2.4825	-12.5885
2.483	-23.76709
2.4835	-33.33435
2.484	-24.06921
2.4845	-26.18408
2.485	-30.81665
2.4855	-47.53418
2.486	-48.13843
2.4865	-44.61365
2.487	-39.27612
2.4875	-38.36975
2.488	-49.64905
2.4885	-62.03613
2.489	-62.9425
2.4895	-68.28003
2.49	-66.76941
2.4905	-48.54126
2.491	-31.4209
2.4915	-25.37842
2.492	-21.45081
2.4925	-20.24231
2.493	-19.23523
2.4935	-26.58691
2.494	-33.9386
2.4945	-33.63647
2.495	-37.96692
2.4955	-38.77258
2.496	-52.97241
2.4965	-63.24463
2.497	-66.16516
2.4975	-81.27136
2.498	-94.06128
2.4985	-95.77332
2.499	-93.15491
2.4995	-89.73083
2.5	-75.32959
2.5005	-57.8064
2.501	-45.62073
2.5015	-25.88196
2.502	7.95593
2.5025	39.98108
2.503	53.17383
2.5035	66.16516
2.504	69.99207
2.5045	71.50269
2.505	73.61755
2.5055	77.74658
2.506	81.97632
2.5065	89.52942
2.507	86.10535
2.5075	80.36499
2.508	84.59473
2.5085	83.58765
2.509	80.86853
2.5095	79.2572
2.51	80.76782
2.5105	62.13684
2.511	53.67737
2.5115	42.39807
2.512	41.59241
2.5125	38.87329
2.513	39.17542
2.5135	49.74976
2.514	53.67737
2.5145	58.00781
2.515	57.50427
2.5155	54.48303
2.516	46.62781
2.5165	31.52161
2.517	20.34302
2.5175	8.56018
2.518	2.92053
2.5185	-16.71753
2.519	-23.16284
2.5195	-48.44055
2.52	-53.27454
2.5205	-62.8418
2.521	-65.3595
2.5215	-75.73242
2.522	-80.26428
2.5225	-88.32092
2.523	-85.60181
2.5235	-83.58765
2.524	-74.02039
2.5245	-59.92126
2.525	-53.87878
2.5255	-27.19116
2.526	-11.17859
2.5265	-3.7262
2.527	-9.06372
2.5275	-9.86938
2.528	-6.44531
2.5285	2.31628
2.529	9.16443
2.5295	13.797
2.53	26.28479
2.5305	29.10461
2.531	29.20532
2.5315	32.42798
2.532	43.80798
2.5325	52.56958
2.533	60.22339
2.5335	72.30835
2.534	75.02747
2.5345	68.28003
2.535	70.19348
2.5355	61.02905
2.536	53.27454
2.5365	45.72144
2.537	26.98975
2.5375	7.25098
2.538	-21.55151
2.5385	-40.1825
2.539	-56.29578
2.5395	-70.89844
2.54	-77.948
2.5405	-79.55933
2.541	-74.72534
2.5415	-63.34534
2.542	-60.92834
2.5425	-37.86621
2.543	-17.12036
2.5435	-4.53186
2.544	11.88354
2.5445	36.4563
2.545	66.06445
2.5455	87.31384
2.546	86.00464
2.5465	82.58057
2.547	81.47278
2.5475	68.28003
2.548	61.6333
2.5485	50.85754
2.549	40.48462
2.5495	35.44922
2.55	30.91736
2.5505	13.09204
2.551	2.71912
2.5515	-2.11487
2.552	-12.68921
2.5525	-27.19116
2.553	-39.67896
2.5535	-57.10144
2.554	-53.37524
2.5545	-47.93701
2.555	-39.98108
2.5555	-32.62939
2.556	-25.27771
2.5565	-24.67346
2.557	-21.3501
2.5575	-6.64673
2.558	13.797
2.5585	26.78833
2.559	38.77258
2.5595	38.47046
2.56	42.49878
2.5605	35.65063
2.561	33.43506
2.5615	33.03223
2.562	34.24072
2.5625	45.72144
2.563	43.20374
2.5635	57.30286
2.564	72.81189
2.5645	73.61755
2.565	70.69702
2.5655	62.03613
2.566	50.85754
2.5665	44.21082
2.567	39.37683
2.5675	31.72302
2.568	20.84656
2.5685	15.71045
2.569	10.87646
2.5695	7.15027
2.57	21.3501
2.5705	28.60107
2.571	31.01807
2.5715	39.27612
2.572	36.15417
2.5725	31.52161
2.573	28.80249
2.5735	28.70178
2.574	34.34143
2.5745	43.40515
2.575	37.7655
2.5755	32.62939
2.576	35.85205
2.5765	50.15259
2.577	78.45154
2.5775	91.8457
2.578	93.96057
2.5785	90.63721
2.579	98.19031
2.5795	91.94641
2.58	81.87561
2.5805	66.06445
2.581	39.67896
2.5815	-2.61841
2.582	-42.7002
2.5825	-85.70251
2.583	-126.48926
2.5835	-151.76697
2.584	-174.92981
2.5845	-182.98645
2.585	-182.98645
2.5855	-170.59937
2.586	-158.21228
2.5865	-126.9928
2.587	-77.64587
2.5875	-33.13293
2.588	-19.83948
2.5885	-24.77417
2.589	-20.04089
2.5895	-20.1416
2.59	-12.5885
2.5905	-2.11487
2.591	-3.42407
2.5915	-15.50903
2.592	-50.05188
2.5925	-68.88428
2.593	-69.89136
2.5935	-72.9126
2.594	-72.81189
2.5945	-64.55383
2.595	-53.17383
2.5955	-57.20215
2.596	-37.56409
2.5965	-32.93152
2.597	-22.45789
2.5975	-13.69629
2.598	-9.46655
2.5985	-9.46655
2.599	-9.16443
2.5995	-20.34302
2.6	-24.47205
2.6005	-22.05505
2.601	-15.1062
2.6015	-19.94019
2.602	-15.30762
2.6025	-9.86938
2.603	-2.71912
2.6035	4.43115
2.604	15.50903
2.6045	16.21399
2.605	7.75452
2.6055	7.25098
2.606	9.56726
2.6065	28.09753
2.607	46.12427
2.6075	55.18799
2.608	54.0802
2.6085	56.69861
2.609	62.64038
2.6095	67.97791
2.61	69.58923
2.6105	79.15649
2.611	76.33667
2.6115	75.93384
2.612	70.19348
2.6125	72.71118
2.613	73.21472
2.6135	63.24463
2.614	48.33984
2.6145	35.2478
2.615	22.05505
2.6155	1.3092
2.616	-10.37292
2.6165	-21.3501
2.617	-27.99683
2.6175	-38.57117
2.618	-43.90869
2.6185	-46.5271
2.619	-40.88745
2.6195	-31.92444
2.62	-17.42249
2.6205	-9.66797
2.621	-1.40991
2.6215	8.96301
2.622	12.18567
2.6225	19.43665
2.623	32.42798
2.6235	33.03223
2.624	30.61523
2.6245	21.85364
2.625	18.93311
2.6255	10.57434
2.626	11.17859
2.6265	7.45239
2.627	-1.2085
2.6275	-11.48071
2.628	-15.60974
2.6285	-24.27063
2.629	-23.06213
2.6295	-22.6593
2.63	-19.43665
2.6305	-18.22815
2.631	-17.42249
2.6315	-15.20691
2.632	-10.97717
2.6325	-6.74744
2.633	5.53894
2.6335	10.47363
2.634	2.61841
2.6345	10.57434
2.635	15.50903
2.6355	26.78833
2.636	21.65222
2.6365	26.88904
2.637	20.1416
2.6375	17.92603
2.638	13.29346
2.6385	10.77576
2.639	12.99133
2.6395	14.90479
2.64	22.15576
2.6405	28.50037
2.641	31.01807
2.6415	29.00391
2.642	33.13293
2.6425	34.64355
2.643	32.83081
2.6435	28.60107
2.644	35.75134
2.6445	38.67188
2.645	33.73718
2.6455	27.99683
2.646	26.3855
2.6465	35.14709
2.647	29.91028
2.6475	29.10461
2.648	25.37842
2.6485	22.6593
2.649	11.17859
2.6495	3.8269
2.65	1.71204
2.6505	-1.00708
2.651	-7.35168
2.6515	-3.8269
2.652	-8.15735
2.6525	-16.11328
2.653	-18.02673
2.6535	-22.86072
2.654	-27.39258
2.6545	-20.54443
2.655	-17.92603
2.6555	-18.02673
2.656	-7.75452
2.6565	-8.56018
2.657	-8.56018
2.6575	-0.30212
2.658	8.8623
2.6585	33.73718
2.659	57.10144
2.6595	69.79065
2.66	89.63013
2.6605	98.0896
2.661	110.77881
2.6615	114.10217
2.662	122.96448
2.6625	117.82837
2.663	114.90784
2.6635	110.6781
2.664	102.82288
2.6645	82.47986
2.665	55.79224
2.6655	31.72302
2.666	-1.61133
2.6665	-28.29895
2.667	-59.51843
2.6675	-88.82446
2.668	-105.84412
2.6685	-119.74182
2.669	-128.70483
2.6695	-140.68909
2.67	-124.07227
2.6705	-93.35632
2.671	-63.14392
2.6715	-39.37683
2.672	-17.52319
2.6725	4.73328
2.673	43.80798
2.6735	111.68518
2.674	152.77405
2.6745	168.78662
2.675	176.44043
2.6755	182.3822
2.676	170.19653
2.6765	154.6875
2.677	136.45935
2.6775	117.72766
2.678	104.13208
2.6785	73.11401
2.679	45.62073
2.6795	-4.43115
2.68	-54.28162
2.6805	-106.54907
2.681	-149.04785
2.6815	-183.28857
2.682	-189.63318
2.6825	-186.81335
2.683	-177.85034
2.6835	-172.10999
2.684	-131.32324
2.6845	-91.24146
2.685	-66.26587
2.6855	-41.4917
2.686	-35.04639
2.6865	-8.96301
2.687	3.32336
2.6875	15.1062
2.688	4.83398
2.6885	9.16443
2.689	-0.40283
2.6895	-6.64673
2.69	-24.06921
2.6905	-41.08887
2.691	-62.03613
2.6915	-86.10535
2.692	-95.97473
2.6925	-101.51367
2.693	-116.922
2.6935	-98.39172
2.694	-69.68994
2.6945	-39.57825
2.695	-32.83081
2.6955	-28.60107
2.696	-23.8678
2.6965	-15.1062
2.697	-8.35876
2.6975	-7.04956
2.698	-1.10779
2.6985	3.32336
2.699	0.20142
2.6995	0.20142
2.7	1.61133
2.7005	3.12195
2.701	4.93469
2.7015	8.25806
2.702	16.21399
2.7025	28.60107
2.703	26.88904
2.7035	27.79541
2.704	36.85913
2.7045	43.30444
2.705	54.68445
2.7055	56.49719
2.706	55.99365
2.7065	58.51135
2.707	62.8418
2.7075	60.92834
2.708	52.06604
2.7085	58.61206
2.709	61.73401
2.7095	59.21631
2.71	63.84888
2.7105	61.43188
2.711	61.12976
2.7115	63.34534
2.712	62.13684
2.7125	56.49719
2.713	47.13135
2.7135	35.14709
2.714	21.04797
2.7145	3.8269
2.715	-2.71912
2.7155	-9.76868
2.716	-8.8623
2.7165	-13.59558
2.717	-17.42249
2.7175	-17.82532
2.718	-18.73169
2.7185	-22.86072
2.719	-18.42957
2.7195	-9.56726
2.72	-4.83398
2.7205	9.97009
2.721	14.09912
2.7215	16.81824
2.722	20.84656
2.7225	16.91895
2.723	20.1416
2.7235	17.01965
2.724	17.22107
2.7245	17.72461
2.725	24.67346
2.7255	24.27063
2.726	26.08337
2.7265	27.49329
2.727	19.83948
2.7275	13.89771
2.728	5.74036
2.7285	2.01416
2.729	16.11328
2.7295	21.65222
2.73	27.59399
2.7305	28.70178
2.731	43.90869
2.7315	49.64905
2.732	59.71985
2.7325	74.32251
2.733	91.64429
2.7335	98.29102
2.734	98.89526
2.7345	96.17615
2.735	96.8811
2.7355	85.80322
2.736	72.00623
2.7365	44.41223
2.737	20.24231
2.7375	5.63965
2.738	-15.81116
2.7385	-32.93152
2.739	-57.9071
2.7395	-84.39331
2.74	-96.27686
2.7405	-112.59155
2.741	-114.60571
2.7415	-109.26819
2.742	-107.75757
2.7425	-97.58606
2.743	-79.76074
2.7435	-58.10852
2.744	-25.177
2.7445	6.74744
2.745	15.20691
2.7455	32.32727
2.746	46.42639
2.7465	57.30286
2.747	58.41064
2.7475	51.26038
2.748	32.02515
2.7485	20.64514
2.749	20.54443
2.7495	19.03381
2.75	15.20691
2.7505	-1.40991
2.751	-11.98425
2.7515	-27.09045
2.752	-40.48462
2.7525	-44.31152
2.753	-35.65063
2.7535	-23.96851
2.754	-11.48071
2.7545	20.24231
2.755	45.3186
2.7555	65.86304
2.756	77.74658
2.7565	90.33508
2.757	90.43579
2.7575	84.59473
2.758	68.78357
2.7585	56.79932
2.759	43.90869
2.7595	31.92444
2.76	21.14868
2.7605	13.09204
2.761	8.56018
2.7615	-6.3446
2.762	-11.98425
2.7625	-25.57983
2.763	-35.54993
2.7635	-43.50586
2.764	-53.87878
2.7645	-62.53967
2.765	-67.37366
2.7655	-69.89136
2.766	-73.71826
2.7665	-66.87012
2.767	-56.29578
2.7675	-41.99524
2.768	-33.33435
2.7685	-31.4209
2.769	-29.30603
2.7695	-1.40991
2.77	35.04639
2.7705	61.53259
2.771	97.78748
2.7715	114.30359
2.772	127.89917
2.7725	129.30908
2.773	126.48926
2.7735	116.21704
2.774	108.56323
2.7745	99.2981
2.775	102.82288
2.7755	84.99756
2.776	41.79382
2.7765	3.32336
2.777	-40.88745
2.7775	-80.36499
2.778	-104.03137
2.7785	-126.69067
2.779	-146.02661
2.7795	-155.69458
2.78	-142.60254
2.7805	-105.74341
2.781	-64.35242
2.7815	-31.21948
2.782	-2.21558
2.7825	42.59949
2.783	92.75208
2.7835	135.55298
2.784	180.06592
2.7845	212.89673
2.785	222.5647
2.7855	229.01001
2.786	223.67249
2.7865	198.6969
2.787	155.39246
2.7875	99.60022
2.788	45.11719
2.7885	-22.45789
2.789	-91.14075
2.7895	-166.26892
2.79	-216.3208
2.7905	-246.93604
2.791	-255.49622
2.7915	-255.69763
2.792	-242.90771
2.7925	-209.37195
2.793	-168.88733
2.7935	-137.46643
2.794	-120.64819
2.7945	-96.98181
2.795	-73.01331
2.7955	-47.7356
2.796	-32.02515
2.7965	-26.48621
2.797	-33.43506
2.7975	-58.00781
2.798	-86.8103
2.7985	-101.61438
2.799	-105.23987
2.7995	-97.68677
2.8	-84.39331
2.8005	-64.55383
2.801	-55.08728
2.8015	-43.60657
2.802	-18.73169
2.8025	-3.32336
2.803	21.55151
2.8035	45.2179
2.804	57.10144
2.8045	59.31702
2.805	53.57666
2.8055	44.61365
2.806	39.98108
2.8065	39.17542
2.807	39.57825
2.8075	39.27612
2.808	38.16833
2.8085	37.26196
2.809	48.94409
2.8095	45.41931
2.81	47.53418
2.8105	46.22498
2.811	41.99524
2.8115	47.33276
2.812	46.22498
2.8125	47.03064
2.813	49.0448
2.8135	49.34692
2.814	52.67029
2.8145	49.95117
2.815	44.71436
2.8155	43.60657
2.816	37.86621
2.8165	40.2832
2.817	35.14709
2.8175	30.2124
2.818	27.09045
2.8185	27.09045
2.819	27.99683
2.8195	17.72461
2.82	16.01257
2.8205	9.86938
2.821	2.81982
2.8215	2.21558
2.822	2.61841
2.8225	5.63965
2.823	1.3092
2.8235	1.00708
2.824	4.83398
2.8245	5.84106
2.825	15.00549
2.8255	18.93311
2.826	33.53577
2.8265	31.21948
2.827	35.34851
2.8275	28.80249
2.828	25.27771
2.8285	26.08337
2.829	23.16284
2.8295	25.177
2.83	23.8678
2.8305	27.59399
2.831	26.08337
2.8315	27.29187
2.832	28.50037
2.8325	35.65063
2.833	37.7655
2.8335	44.91577
2.834	35.75134
2.8345	28.60107
2.835	13.59558
2.8355	21.65222
2.836	24.16992
2.8365	20.04089
2.837	15.40833
2.8375	15.50903
2.838	16.71753
2.8385	8.66089
2.839	15.40833
2.8395	15.71045
2.84	17.92603
2.8405	12.78992
2.841	11.48071
2.8415	11.68213
2.842	15.40833
2.8425	19.13452
2.843	27.39258
2.8435	30.71594
2.844	31.52161
2.8445	35.65063
2.845	45.01648
2.8455	34.84497
2.846	23.36426
2.8465	0.60425
2.847	-20.1416
2.8475	-40.08179
2.848	-55.18799
2.8485	-63.04321
2.849	-85.5011
2.8495	-108.86536
2.85	-116.922
2.8505	-116.11633
2.851	-113.90076
2.8515	-93.15491
2.852	-77.948
2.8525	-65.56091
2.853	-58.10852
2.8535	-49.54834
2.854	-29.50745
2.8545	-21.55151
2.855	-9.36584
2.8555	-5.43823
2.856	1.40991
2.8565	-1.3092
2.857	6.2439
2.8575	22.05505
2.858	26.68762
2.8585	25.37842
2.859	24.16992
2.8595	22.45789
2.86	16.3147
2.8605	13.09204
2.861	14.60266
2.8615	16.01257
2.862	14.70337
2.8625	13.29346
2.863	9.66797
2.8635	3.92761
2.864	3.22266
2.8645	7.65381
2.865	9.26514
2.8655	13.09204
2.866	14.09912
2.8665	17.32178
2.867	14.30054
2.8675	13.89771
2.868	10.47363
2.8685	11.68213
2.869	11.48071
2.8695	6.54602
2.87	5.74036
2.8705	15.60974
2.871	18.53027
2.8715	13.69629
2.872	15.81116
2.8725	23.46497
2.873	30.01099
2.8735	36.15417
2.874	39.07471
2.8745	39.17542
2.875	43.90869
2.8755	75.02747
2.876	101.11084
2.8765	118.2312
2.877	134.34448
2.8775	149.34998
2.878	169.39087
2.8785	174.22485
2.879	179.05884
2.8795	195.57495
2.88	216.11938
2.8805	217.83142
2.881	215.41443
2.8815	199.09973
2.882	181.67725
2.8825	148.4436
2.883	116.51917
2.8835	75.63171
2.884	32.32727
2.8845	-11.07788
2.885	-56.5979
2.8855	-90.5365
2.886	-116.11633
2.8865	-147.43652
2.887	-181.87866
2.8875	-199.80469
2.888	-213.70239
2.8885	-213.90381
2.889	-218.33496
2.8895	-234.95178
2.89	-251.66931
2.8905	-248.9502
2.891	-246.63391
2.8915	-227.49939
2.892	-207.05566
2.8925	-185.90698
2.893	-153.88184
2.8935	-114.4043
2.894	-69.1864
2.8945	-42.8009
2.895	-32.22656
2.8955	-24.97559
2.896	11.88354
2.8965	40.88745
2.897	53.07312
2.8975	60.22339
2.898	78.55225
2.8985	93.15491
2.899	102.31934
2.8995	96.8811
2.9	99.90234
2.9005	111.18164
2.901	116.31775
2.9015	111.28235
2.902	109.3689
2.9025	105.84412
2.903	102.52075
2.9035	98.89526
2.904	96.57898
2.9045	95.16907
2.905	82.58057
2.9055	67.47437
2.906	52.67029
2.9065	36.95984
2.907	19.43665
2.9075	-11.88354
2.908	-33.53577
2.9085	-49.34692
2.909	-69.38782
2.9095	-87.81738
2.91	-100.6073
2.9105	-113.1958
2.911	-115.81421
2.9115	-102.52075
2.912	-84.09119
2.9125	-71.20056
2.913	-50.55542
2.9135	-37.16125
2.914	-12.89062
2.9145	-8.96301
2.915	8.7616
2.9155	10.47363
2.916	15.1062
2.9165	23.56567
2.917	28.70178
2.9175	27.59399
2.918	20.54443
2.9185	28.60107
2.919	32.52869
2.9195	34.03931
2.92	57.40356
2.9205	92.55066
2.921	113.69934
2.9215	123.36731
2.922	136.35864
2.9225	146.83228
2.923	164.7583
2.9235	184.39636
2.924	196.78345
2.9245	202.5238
2.925	199.40186
2.9255	187.61902
2.926	173.21777
2.9265	137.96997
2.927	102.31934
2.9275	45.52002
2.928	-20.84656
2.9285	-65.66162
2.929	-119.13757
2.9295	-172.3114
2.93	-196.88416
2.9305	-214.91089
2.931	-211.2854
2.9315	-210.68115
2.932	-190.43884
2.9325	-157.00378
2.933	-125.48218
2.9335	-73.11401
2.934	-38.57117
2.9345	-23.26355
2.935	-11.58142
2.9355	22.76001
2.936	51.26038
2.9365	63.24463
2.937	52.06604
2.9375	32.93152
2.938	16.3147
2.9385	1.91345
2.939	-6.64673
2.9395	-5.0354
2.94	6.74744
2.9405	14.50195
2.941	19.43665
2.9415	25.47913
2.942	20.54443
2.9425	13.29346
2.943	7.5531
2.9435	18.53027
2.944	50.95825
2.9445	89.52942
2.945	142.60254
2.9455	164.65759
2.946	186.61194
2.9465	207.05566
2.947	209.47266
2.9475	218.93921
2.948	230.62134
2.9485	235.05249
2.949	230.92346
2.9495	221.3562
2.95	221.3562
2.9505	198.19336
2.951	152.27051
2.9515	81.27136
2.952	7.35168
2.9525	-74.02039
2.953	-147.03369
2.9535	-225.18311
2.954	-296.88721
2.9545	-351.97449
2.955	-392.96265
2.9555	-432.44019
2.956	-449.15771
2.9565	-446.64001
2.957	-423.67859
2.9575	-373.12317
2.958	-300.41199
2.9585	-220.55054
2.959	-143.60962
2.9595	-36.85913
2.96	80.16357
2.9605	181.17371
2.961	260.73303
2.9615	319.54651
2.962	354.99573
2.9625	368.69202
2.963	378.86353
2.9635	387.52441
2.964	381.48193
2.9645	354.08936
2.965	301.11694
2.9655	234.44824
2.966	161.93848
2.9665	75.53101
2.967	-18.32886
2.9675	-127.69775
2.968	-233.74329
2.9685	-316.32385
2.969	-368.89343
2.9695	-387.22229
2.97	-386.61804
2.9705	-359.93042
2.971	-306.35376
2.9715	-232.6355
2.972	-117.82837
2.9725	-8.45947
2.973	66.56799
2.9735	126.69067
2.974	220.24841
2.9745	318.33801
2.975	390.74707
2.9755	418.54248
2.976	414.71558
2.9765	403.83911
2.977	385.71167
2.9775	352.88086
2.978	296.28296
2.9785	215.81726
2.979	118.63403
2.9795	14.80408
2.98	-99.2981
2.9805	-211.08398
2.981	-315.21606
2.9815	-397.99805
2.982	-444.22302
2.9825	-470.00427
2.983	-457.11365
2.9835	-440.59753
2.984	-407.36389
2.9845	-347.34192
2.985	-258.11462
2.9855	-160.32715
2.986	-82.17773
2.9865	-6.64673
2.987	69.1864
2.9875	145.62378
2.988	195.57495
2.9885	161.63635
2.989	101.41296
2.9895	54.78516
2.99	10.27222
2.9905	-26.98975
2.991	-47.33276
2.9915	-59.61914
2.992	-56.90002
2.9925	-36.35559
2.993	0.20142
2.9935	7.5531
2.994	29.40674
2.9945	66.06445
2.995	84.09119
2.9955	96.7804
2.996	87.51526
2.9965	62.13684
2.997	42.19666
2.9975	19.63806
2.998	-4.43115
2.9985	-53.87878
2.999	-97.28394
2.9995	-126.69067
3	-132.73315
3.0005	-138.17139
3.001	-145.62378
3.0015	-153.17688
3.002	-148.64502
3.0025	-143.3075
3.003	-126.58997
3.0035	-96.57898
3.004	-72.40906
3.0045	-50.45471
3.005	-20.74585
3.0055	17.22107
3.006	56.90002
3.0065	68.88428
3.007	66.46729
3.0075	81.06995
3.008	92.44995
3.0085	98.79456
3.009	91.8457
3.0095	74.62463
3.01	75.02747
3.0105	76.23596
3.011	82.9834
3.0115	81.17065
3.012	98.79456
3.0125	131.72607
3.013	175.53406
3.0135	216.01868
3.014	283.59375
3.0145	333.54492
3.015	386.41663
3.0155	430.92957
3.016	471.51489
3.0165	506.15845
3.017	508.17261
3.0175	487.62817
3.018	453.38745
3.0185	426.49841
3.019	381.88477
3.0195	299.3042
3.02	212.4939
3.0205	102.62146
3.021	-24.57275
3.0215	-152.06909
3.022	-280.77393
3.0225	-388.33008
3.023	-448.04993
3.0235	-492.56287
3.024	-517.84058
3.0245	-512.10022
3.025	-514.21509
3.0255	-479.47083
3.026	-393.76831
3.0265	-327.09961
3.027	-297.995
3.0275	-224.37744
3.028	-142.70325
3.0285	-78.75366
3.029	-41.4917
3.0295	-41.18958
3.03	-52.56958
3.0305	-37.96692
3.031	-26.68762
3.0315	-33.53577
3.032	-57.8064
3.0325	-52.36816
3.033	-36.05347
3.0335	-32.32727
3.034	-17.22107
3.0345	7.15027
3.035	60.02197
3.0355	111.8866
3.036	159.82361
3.0365	188.32397
3.037	209.06982
3.0375	208.46558
3.038	201.2146
3.0385	180.06592
3.039	136.25793
3.0395	74.12109
3.04	9.56726
3.0405	-55.49011
3.041	-108.56323
3.0415	-158.71582
3.042	-203.22876
3.0425	-236.16028
3.043	-255.19409
3.0435	-263.45215
3.044	-233.34045
3.0445	-192.75513
3.045	-156.19812
3.0455	-87.91809
3.046	-22.55859
3.0465	23.06213
3.047	59.21631
3.0475	69.1864
3.048	57.9071
3.0485	51.26038
3.049	55.18799
3.0495	55.99365
3.05	66.76941
3.0505	73.11401
3.051	70.19348
3.0515	75.93384
3.052	75.4303
3.0525	77.64587
3.053	72.81189
3.0535	64.75525
3.054	58.10852
3.0545	52.46887
3.055	50.45471
3.0555	47.93701
3.056	47.7356
3.0565	23.16284
3.057	-2.5177
3.0575	-42.8009
3.058	-63.84888
3.0585	-83.48694
3.059	-91.24146
3.0595	-111.48376
3.06	-120.34607
3.0605	-128.40271
3.061	-122.05811
3.0615	-113.09509
3.062	-94.2627
3.0625	-66.56799
3.063	-54.18091
3.0635	-28.9032
3.064	-11.2793
3.0645	2.01416
3.065	18.93311
3.0655	35.85205
3.066	66.06445
3.0665	75.53101
3.067	69.08569
3.0675	65.05737
3.068	62.53967
3.0685	80.26428
3.069	118.83545
3.0695	147.53723
3.07	162.54272
3.0705	171.40503
3.071	179.56238
3.0715	168.98804
3.072	158.71582
3.0725	148.64502
3.073	145.01953
3.0735	124.37439
3.074	98.59314
3.0745	72.61047
3.075	64.95667
3.0755	47.03064
3.076	28.50037
3.0765	17.92603
3.077	2.01416
3.0775	-14.70337
3.078	-6.74744
3.0785	7.35168
3.079	32.52869
3.0795	51.36108
3.08	84.79614
3.0805	109.67102
3.081	119.23828
3.0815	105.6427
3.082	87.81738
3.0825	63.84888
3.083	15.71045
3.0835	-26.18408
3.084	-60.22339
3.0845	-88.92517
3.085	-116.31775
3.0855	-122.56165
3.086	-117.12341
3.0865	-104.4342
3.087	-91.745
3.0875	-53.57666
3.088	-7.95593
3.0885	33.33435
3.089	70.89844
3.0895	103.42712
3.09	114.10217
3.0905	102.52075
3.091	65.86304
3.0915	17.32178
3.092	-31.72302
3.0925	-84.89685
3.093	-117.62695
3.0935	-145.72449
3.094	-165.66467
3.0945	-181.073
3.095	-169.08875
3.0955	-169.99512
3.096	-155.79529
3.0965	-120.24536
3.097	-69.89136
3.0975	-22.86072
3.098	11.48071
3.0985	36.35559
3.099	47.03064
3.0995	55.79224
3.1	78.95508
3.1005	103.93066
3.101	107.05261
3.1015	102.92358
3.102	106.24695
3.1025	106.64978
3.103	107.65686
3.1035	105.54199
3.104	111.68518
3.1045	122.46094
3.105	139.17847
3.1055	159.21936
3.106	166.87317
3.1065	162.64343
3.107	155.29175
3.1075	130.8197
3.108	108.1604
3.1085	84.19189
3.109	67.37366
3.1095	46.12427
3.11	37.56409
3.1105	11.07788
3.111	-18.8324
3.1115	-50.55542
3.112	-67.27295
3.1125	-65.15808
3.113	-55.3894
3.1135	-50.05188
3.114	-36.55701
3.1145	-15.60974
3.115	20.34302
3.1155	47.43347
3.116	49.54834
3.1165	35.75134
3.117	29.20532
3.1175	57.40356
3.118	64.151
3.1185	51.86462
3.119	41.99524
3.1195	66.6687
3.12	89.22729
3.1205	109.97314
3.121	132.12891
3.1215	131.22253
3.122	122.56165
3.1225	129.10767
3.123	121.75598
3.1235	85.90393
3.124	40.78674
3.1245	4.02832
3.125	-50.05188
3.1255	-115.51208
3.126	-189.02893
3.1265	-271.10596
3.127	-346.33484
3.1275	-393.46619
3.128	-404.34265
3.1285	-401.42212
3.129	-376.24512
3.1295	-327.50244
3.13	-273.12012
3.1305	-210.0769
3.131	-130.8197
3.1315	-59.61914
3.132	12.5885
3.1325	85.09827
3.133	153.98254
3.1335	207.76062
3.134	232.03125
3.1345	218.53638
3.135	188.82751
3.1355	150.8606
3.136	103.125
3.1365	54.18091
3.137	-2.31628
3.1375	-64.65454
3.138	-98.19031
3.1385	-112.99438
3.139	-105.94482
3.1395	-102.21863
3.14	-93.45703
3.1405	-77.14233
3.141	-54.98657
3.1415	-18.93311
3.142	20.04089
3.1425	62.03613
3.143	100.50659
3.1435	153.3783
3.144	217.22717
3.1445	247.84241
3.145	239.38293
3.1455	224.37744
3.146	187.92114
3.1465	149.24927
3.147	104.63562
3.1475	40.08179
3.148	-21.45081
3.1485	-77.24304
3.149	-130.01404
3.1495	-175.33264
3.15	-211.38611
3.1505	-240.79285
3.151	-243.71338
3.1515	-234.64966
3.152	-212.39319
3.1525	-186.51123
3.153	-139.5813
3.1535	-81.47278
3.154	-56.49719
3.1545	-49.0448
3.155	-41.99524
3.1555	-38.26904
3.156	-29.30603
3.1565	-23.56567
3.157	-12.18567
3.1575	-0.20142
3.158	7.85522
3.1585	15.81116
3.159	24.16992
3.1595	33.73718
3.16	43.40515
3.1605	51.66321
3.161	52.46887
3.1615	48.54126
3.162	50.45471
3.1625	40.08179
3.163	46.72852
3.1635	47.43347
3.164	41.99524
3.1645	34.34143
3.165	32.52869
3.1655	27.09045
3.166	25.177
3.1665	23.76709
3.167	16.51611
3.1675	13.29346
3.168	20.44373
3.1685	41.99524
3.169	53.27454
3.1695	67.17224
3.17	81.87561
3.1705	89.73083
3.171	95.87402
3.1715	108.76465
3.172	120.24536
3.1725	127.69775
3.173	127.79846
3.1735	123.77014
3.174	114.505
3.1745	87.31384
3.175	65.46021
3.1755	30.81665
3.176	11.98425
3.1765	-15.50903
3.177	-49.14551
3.1775	-79.15649
3.178	-91.14075
3.1785	-106.34766
3.179	-114.70642
3.1795	-119.94324
3.18	-115.10925
3.1805	-103.22571
3.181	-82.68127
3.1815	-57.50427
3.182	-39.07471
3.1825	2.92053
3.183	38.57117
3.1835	66.56799
3.184	80.06287
3.1845	82.07703
3.185	81.27136
3.1855	88.42163
3.186	90.93933
3.1865	94.76624
3.187	94.76624
3.1875	84.59473
3.188	88.52234
3.1885	94.86694
3.189	95.06836
3.1895	88.82446
3.19	80.86853
3.1905	70.69702
3.191	77.54517
3.1915	78.45154
3.192	86.91101
3.1925	88.11951
3.193	80.16357
3.1935	57.10144
3.194	48.84338
3.1945	41.18958
3.195	25.27771
3.1955	1.51062
3.196	-21.55151
3.1965	-44.91577
3.197	-65.15808
3.1975	-84.2926
3.198	-85.40039
3.1985	-78.95508
3.199	-58.61206
3.1995	-11.78284
3.2	21.75293
3.2005	58.30994
3.201	120.95032
3.2015	158.4137
3.202	197.4884
3.2025	222.96753
3.203	257.61108
3.2035	271.10596
3.204	271.10596
3.2045	254.28772
3.205	227.09656
3.2055	187.71973
3.206	146.32874
3.2065	123.36731
3.207	88.42163
3.2075	30.81665
3.208	-33.43506
3.2085	-116.82129
3.209	-182.08008
3.2095	-244.11621
3.21	-294.2688
3.2105	-325.08545
3.211	-317.63306
3.2115	-302.02332
3.212	-296.68579
3.2125	-298.39783
3.213	-282.18384
3.2135	-242.50488
3.214	-207.76062
3.2145	-176.33972
3.215	-138.47351
3.2155	-75.53101
3.216	-17.12036
3.2165	18.42957
3.217	32.7301
3.2175	26.18408
3.218	39.57825
3.2185	67.37366
3.219	100.80872
3.2195	106.14624
3.22	98.29102
3.2205	97.28394
3.221	103.125
3.2215	107.85828
3.222	104.93774
3.2225	92.65137
3.223	79.86145
3.2235	63.04321
3.224	42.09595
3.2245	13.29346
3.225	-30.81665
3.2255	-67.67578
3.226	-81.06995
3.2265	-77.44446
3.227	-84.09119
3.2275	-87.11243
3.228	-82.9834
3.2285	-73.71826
3.229	-42.49878
3.2295	-2.21558
3.23	18.63098
3.2305	27.99683
3.231	53.77808
3.2315	83.18481
3.232	99.90234
3.2325	96.67969
3.233	98.69385
3.2335	90.73792
3.234	88.62305
3.2345	66.36658
3.235	29.50745
3.2355	0.70496
3.236	-21.3501
3.2365	-47.23206
3.237	-63.44604
3.2375	-94.2627
3.238	-117.22412
3.2385	-125.7843
3.239	-120.04395
3.2395	-124.57581
3.24	-123.16589
3.2405	-118.43262
3.241	-112.79297
3.2415	-91.8457
3.242	-92.44995
3.2425	-104.63562
3.243	-103.62854
3.2435	-86.60889
3.244	-63.04321
3.2445	-36.4563
3.245	8.66089
3.2455	47.63489
3.246	67.8772
3.2465	92.34924
3.247	110.17456
3.2475	116.72058
3.248	129.30908
3.2485	138.3728
3.249	138.87634
3.2495	128.302
3.25	120.24536
3.2505	110.47668
3.251	92.24854
3.2515	60.82764
3.252	24.47205
3.2525	-4.63257
3.253	-22.76001
3.2535	-39.17542
3.254	-64.85596
3.2545	-77.44446
3.255	-89.63013
3.2555	-90.13367
3.256	-80.86853
3.2565	-73.91968
3.257	-68.48145
3.2575	-54.0802
3.258	-19.43665
3.2585	8.15735
3.259	23.26355
3.2595	14.19983
3.26	23.56567
3.2605	41.89453
3.261	53.87878
3.2615	45.82214
3.262	41.08887
3.2625	28.50037
3.263	32.42798
3.2635	48.64197
3.264	49.74976
3.2645	59.21631
3.265	70.29419
3.2655	84.39331
3.266	93.55774
3.2665	93.45703
3.267	103.125
3.2675	102.42004
3.268	95.67261
3.2685	91.8457
3.269	80.16357
3.2695	62.43896
3.27	49.44763
3.2705	66.87012
3.271	75.63171
3.2715	75.53101
3.272	88.0188
3.2725	89.02588
3.273	75.93384
3.2735	59.21631
3.274	54.98657
3.2745	43.90869
3.275	36.25488
3.2755	48.74268
3.276	52.06604
3.2765	49.34692
3.277	60.62622
3.2775	86.8103
3.278	107.85828
3.2785	119.84253
3.279	114.30359
3.2795	99.19739
3.28	90.5365
3.2805	95.16907
3.281	93.96057
3.2815	61.6333
3.282	27.79541
3.2825	1.91345
3.283	-10.87646
3.2835	-18.63098
3.284	-20.74585
3.2845	-20.84656
3.285	-15.00549
3.2855	-21.3501
3.286	-32.62939
3.2865	-44.91577
3.287	-69.89136
3.2875	-105.34058
3.288	-148.84644
3.2885	-203.32947
3.289	-248.9502
3.2895	-262.14294
3.29	-263.15002
3.2905	-268.89038
3.291	-272.21375
3.2915	-292.25464
3.292	-286.41357
3.2925	-259.22241
3.293	-213.60168
3.2935	-160.72998
3.294	-116.01562
3.2945	-75.53101
3.295	-21.45081
3.2955	23.26355
3.296	37.36267
3.2965	35.95276
3.297	30.51453
3.2975	27.59399
3.298	16.61682
3.2985	10.17151
3.299	11.48071
3.2995	21.3501
3.3	48.23914
3.3005	68.88428
3.301	69.99207
3.3015	70.59631
3.302	78.04871
3.3025	88.92517
3.303	103.125
3.3035	114.30359
3.304	110.17456
3.3045	115.91492
3.305	120.24536
3.3055	138.77563
3.306	131.72607
3.3065	126.69067
3.307	126.89209
3.3075	135.95581
3.308	136.35864
3.3085	139.78271
3.309	134.94873
3.3095	116.72058
3.31	125.07935
3.3105	135.8551
3.311	133.13599
3.3115	115.10925
3.312	101.51367
3.3125	92.44995
3.313	78.25012
3.3135	53.37524
3.314	15.40833
3.3145	-30.2124
3.315	-53.77808
3.3155	-79.15649
3.316	-97.38464
3.3165	-124.17297
3.317	-139.5813
3.3175	-135.04944
3.318	-97.08252
3.3185	-61.23047
3.319	-16.11328
3.3195	7.45239
3.32	53.97949
3.3205	104.83704
3.321	136.15723
3.3215	125.98572
3.322	96.98181
3.3225	67.47437
3.323	35.04639
3.3235	-5.13611
3.324	-49.95117
3.3245	-95.87402
3.325	-138.77563
3.3255	-165.9668
3.326	-187.51831
3.3265	-195.67566
3.327	-210.88257
3.3275	-219.44275
3.328	-207.65991
3.3285	-186.71265
3.329	-179.56238
3.3295	-157.10449
3.33	-109.57031
3.3305	-46.82922
3.331	-2.11487
3.3315	8.35876
3.332	-0.40283
3.3325	-11.2793
3.333	-0.80566
3.3335	9.76868
3.334	15.1062
3.3345	3.92761
3.335	-3.8269
3.3355	-7.85522
3.336	-18.8324
3.3365	-9.16443
3.337	-5.13611
3.3375	-5.74036
3.338	-3.42407
3.3385	9.66797
3.339	17.52319
3.3395	18.32886
3.34	40.98816
3.3405	49.54834
3.341	72.61047
3.3415	123.66943
3.342	174.12415
3.3425	217.22717
3.343	275.73853
3.3435	337.77466
3.344	393.06335
3.3445	424.48425
3.345	420.75806
3.3455	395.27893
3.346	351.16882
3.3465	300.10986
3.347	247.7417
3.3475	179.8645
3.348	88.0188
3.3485	-21.55151
3.349	-117.02271
3.3495	-206.35071
3.35	-277.24915
3.3505	-329.71802
3.351	-355.9021
3.3515	-370.00122
3.352	-362.75024
3.3525	-318.64014
3.353	-273.22083
3.3535	-213.8031
3.354	-154.88892
3.3545	-55.89294
3.355	46.12427
3.3555	128.80554
3.356	191.24451
3.3565	233.74329
3.357	233.84399
3.3575	195.37354
3.358	142.19971
3.3585	81.37207
3.359	23.46497
3.3595	-37.66479
3.36	-106.24695
3.3605	-165.86609
3.361	-207.4585
3.3615	-233.23975
3.362	-234.34753
3.3625	-210.37903
3.363	-203.63159
3.3635	-174.12415
3.364	-139.48059
3.3645	-105.23987
3.365	-74.2218
3.3655	-33.9386
3.366	-6.2439
3.3665	21.45081
3.367	37.06055
3.3675	33.53577
3.368	29.00391
3.3685	28.19824
3.369	37.7655
3.3695	37.36267
3.37	42.19666
3.3705	32.12585
3.371	13.49487
3.3715	-13.19275
3.372	-33.83789
3.3725	-49.64905
3.373	-64.55383
3.3735	-61.6333
3.374	-51.26038
3.3745	-27.09045
3.375	-11.58142
3.3755	-6.94885
3.376	23.26355
3.3765	38.47046
3.377	49.0448
3.3775	43.60657
3.378	40.48462
3.3785	49.14551
3.379	52.56958
3.3795	57.10144
3.38	79.55933
3.3805	101.61438
3.381	130.51758
3.3815	148.94714
3.382	143.71033
3.3825	131.22253
3.383	117.62695
3.3835	114.60571
3.384	102.82288
3.3845	88.22021
3.385	72.9126
3.3855	65.05737
3.386	67.27295
3.3865	76.53809
3.387	70.89844
3.3875	70.89844
3.388	68.17932
3.3885	63.74817
3.389	68.78357
3.3895	74.32251
3.39	98.89526
3.3905	103.32642
3.391	106.54907
3.3915	92.14783
3.392	69.48853
3.3925	46.5271
3.393	21.75293
3.3935	-8.8623
3.394	-33.43506
3.3945	-62.9425
3.395	-105.23987
3.3955	-124.27368
3.396	-126.58997
3.3965	-125.7843
3.397	-118.53333
3.3975	-110.87952
3.398	-101.41296
3.3985	-85.70251
3.399	-73.61755
3.3995	-67.77649
3.4	-42.8009
3.4005	-25.37842
3.401	-1.00708
3.4015	-8.96301
3.402	-45.62073
3.4025	-80.06287
3.403	-105.13916
3.4035	-109.3689
3.404	-98.49243
3.4045	-85.40039
3.405	-68.28003
3.4055	-52.46887
3.406	-22.6593
3.4065	2.61841
3.407	24.57275
3.4075	40.88745
3.408	57.00073
3.4085	72.71118
3.409	73.21472
3.4095	64.65454
3.41	102.01721
3.4105	128.90625
3.411	141.49475
3.4115	146.32874
3.412	163.95264
3.4125	193.56079
3.413	224.57886
3.4135	263.95569
3.414	308.36792
3.4145	354.19006
3.415	360.33325
3.4155	327.60315
3.416	307.86438
3.4165	294.57092
3.417	292.95959
3.4175	263.15002
3.418	213.09814
3.4185	145.22095
3.419	70.59631
3.4195	-2.71912
3.42	-59.61914
3.4205	-118.13049
3.421	-183.5907
3.4215	-233.84399
3.422	-236.26099
3.4225	-220.047
3.423	-228.30505
3.4235	-236.86523
3.424	-239.78577
3.4245	-222.26257
3.425	-187.51831
3.4255	-164.25476
3.426	-194.36646
3.4265	-222.16187
3.427	-258.61816
3.4275	-300.21057
3.428	-344.82422
3.4285	-374.53308
3.429	-374.13025
3.4295	-360.13184
3.43	-319.94934
3.4305	-296.7865
3.431	-259.021
3.4315	-190.84167
3.432	-113.09509
3.4325	-60.72693
3.433	-55.08728
3.4335	-17.01965
3.434	33.83789
3.4345	101.71509
3.435	158.31299
3.4355	186.51123
3.436	180.36804
3.4365	174.02344
3.437	195.07141
3.4375	202.32239
3.438	189.53247
3.4385	182.98645
3.439	167.98096
3.4395	146.63086
3.44	133.3374
3.4405	104.63562
3.441	72.30835
3.4415	62.13684
3.442	51.96533
3.4425	27.49329
3.443	2.41699
3.4435	-11.38
3.444	-25.98267
3.4445	-40.08179
3.445	-53.57666
3.4455	-45.62073
3.446	-42.29736
3.4465	-40.2832
3.447	-24.67346
3.4475	18.12744
3.448	131.82678
3.4485	212.09106
3.449	251.36719
3.4495	287.62207
3.45	323.37341
3.4505	347.54333
3.451	385.81238
3.4515	380.47485
3.452	340.49377
3.4525	283.79517
3.453	199.30115
3.4535	117.12341
3.454	33.9386
3.4545	-47.53418
3.455	-120.24536
3.4555	-187.82043
3.456	-253.07922
3.4565	-300.6134
3.457	-335.35767
3.4575	-363.65662
3.458	-368.79272
3.4585	-364.05945
3.459	-361.54175
3.4595	-354.08936
3.46	-318.2373
3.4605	-267.27905
3.461	-190.74097
3.4615	-117.72766
3.462	-50.65613
3.4625	-18.12744
3.463	14.09912
3.4635	61.43188
3.464	106.24695
3.4645	141.99829
3.465	121.55457
3.4655	108.86536
3.466	111.78589
3.4665	133.94165
3.467	150.65918
3.4675	166.57104
3.468	205.54504
3.4685	250.96436
3.469	290.5426
3.4695	298.69995
3.47	297.995
3.4705	283.69446
3.471	262.64648
3.4715	237.06665
3.472	201.51672
3.4725	167.276
3.473	117.72766
3.4735	76.13525
3.474	40.48462
3.4745	7.85522
3.475	-18.53027
3.4755	-58.20923
3.476	-81.87561
3.4765	-93.0542
3.477	-116.922
3.4775	-152.97546
3.478	-187.71973
3.4785	-225.88806
3.479	-242.80701
3.4795	-256.80542
3.48	-300.6134
3.4805	-333.54492
3.481	-344.32068
3.4815	-334.552
3.482	-327.20032
3.4825	-303.73535
3.483	-259.22241
3.4835	-206.14929
3.484	-141.89758
3.4845	-83.38623
3.485	-30.71594
3.4855	-4.73328
3.486	22.35718
3.4865	30.81665
3.487	28.70178
3.4875	44.61365
3.488	56.79932
3.4885	69.89136
3.489	73.41614
3.4895	66.06445
3.49	57.60498
3.4905	56.29578
3.491	51.96533
3.4915	44.51294
3.492	39.67896
3.4925	43.40515
3.493	36.15417
3.4935	32.93152
3.494	38.974
3.4945	40.78674
3.495	53.47595
3.4955	72.10693
3.496	87.71667
3.4965	126.18713
3.497	158.61511
3.4975	191.04309
3.498	230.01709
3.4985	255.2948
3.499	286.11145
3.4995	329.5166
3.5	378.25928
3.5005	395.17822
3.501	407.96814
3.5015	387.42371
3.502	350.36316
3.5025	301.11694
3.503	262.44507
3.5035	205.64575
3.504	133.03528
3.5045	36.55701
3.505	-44.41223
3.5055	-75.73242
3.506	-123.87085
3.5065	-171.20361
3.507	-234.95178
3.5075	-270.50171
3.508	-289.53552
3.5085	-291.24756
3.509	-312.39624
3.5095	-330.92651
3.51	-324.38049
3.5105	-313.30261
3.511	-277.9541
3.5115	-252.7771
3.512	-224.47815
3.5125	-185.50415
3.513	-153.07617
3.5135	-123.56873
3.514	-90.93933
3.5145	-44.51294
3.515	-21.3501
3.5155	-44.31152
3.516	-68.58215
3.5165	-72.30835
3.517	-70.09277
3.5175	-63.84888
3.518	-30.2124
3.5185	6.04248
3.519	40.98816
3.5195	67.47437
3.52	92.55066
3.5205	117.62695
3.521	145.01953
3.5215	164.25476
3.522	187.11548
3.5225	207.5592
3.523	222.06116
3.5235	208.96912
3.524	193.76221
3.5245	175.33264
3.525	148.64502
3.5255	115.10925
3.526	73.21472
3.5265	18.8324
3.527	-36.35559
3.5275	-80.4657
3.528	-104.03137
3.5285	-103.42712
3.529	-102.11792
3.5295	-84.59473
3.53	-40.1825
3.5305	9.76868
3.531	48.03772
3.5315	90.93933
3.532	130.01404
3.5325	176.54114
3.533	229.51355
3.5335	278.15552
3.534	273.92578
3.5345	268.38684
3.535	272.11304
3.5355	255.79834
3.536	206.85425
3.5365	159.52148
3.537	81.06995
3.5375	25.37842
3.538	-19.03381
3.5385	-52.36816
3.539	-95.47119
3.5395	-141.79688
3.54	-186.91406
3.5405	-231.52771
3.541	-272.31445
3.5415	-305.24597
3.542	-308.1665
3.5425	-291.85181
3.543	-277.75269
3.5435	-310.98633
3.544	-344.72351
3.5445	-355.19714
3.545	-334.65271
3.5455	-296.88721
3.546	-265.26489
3.5465	-219.74487
3.547	-179.46167
3.5475	-135.8551
3.548	-83.68835
3.5485	-34.14001
3.549	-1.51062
3.5495	26.18408
3.55	53.77808
3.5505	66.97083
3.551	67.77649
3.5515	70.69702
3.552	67.57507
3.5525	60.92834
3.553	59.01489
3.5535	67.97791
3.554	97.78748
3.5545	128.90625
3.555	150.8606
3.5555	173.01636
3.556	185.00061
3.5565	211.2854
3.557	245.12329
3.5575	279.06189
3.558	320.85571
3.5585	374.7345
3.559	422.87292
3.5595	434.05151
3.56	431.03027
3.5605	410.58655
3.561	365.16724
3.5615	326.69678
3.562	254.89197
3.5625	176.64185
3.563	77.84729
3.5635	-35.44922
3.564	-131.32324
3.5645	-204.03442
3.565	-267.58118
3.5655	-304.74243
3.566	-332.13501
3.5665	-354.89502
3.567	-359.6283
3.5675	-369.09485
3.568	-359.12476
3.5685	-332.33643
3.569	-304.13818
3.5695	-246.73462
3.57	-181.97937
3.5705	-132.12891
3.571	-73.61755
3.5715	-15.91187
3.572	36.4563
3.5725	91.745
3.573	140.58838
3.5735	141.99829
3.574	121.85669
3.5745	92.44995
3.575	62.43896
3.5755	28.09753
3.576	-21.75293
3.5765	-71.90552
3.577	-102.92358
3.5775	-125.18005
3.578	-147.53723
3.5785	-170.70007
3.579	-185.20203
3.5795	-172.41211
3.58	-131.52466
3.5805	-88.42163
3.581	-60.22339
3.5815	-41.59241
3.582	-12.89062
3.5825	41.18958
3.583	73.51685
3.5835	82.78198
3.584	92.75208
3.5845	101.71509
3.585	110.37598
3.5855	118.2312
3.586	145.52307
3.5865	174.8291
3.587	212.5946
3.5875	255.69763
3.588	268.58826
3.5885	265.56702
3.589	258.21533
3.5895	254.58984
3.59	244.31763
3.5905	226.49231
3.591	212.89673
3.5915	195.87708
3.592	148.94714
3.5925	126.58997
3.593	131.42395
3.5935	115.10925
3.594	79.55933
3.5945	54.98657
3.595	31.4209
3.5955	-0.30212
3.596	-29.60815
3.5965	-54.78516
3.597	-97.68677
3.5975	-134.94873
3.598	-164.35547
3.5985	-183.38928
3.599	-226.19019
3.5995	-277.45056
3.6	-330.7251
3.6005	-352.88086
3.601	-359.52759
3.6015	-317.53235
3.602	-235.45532
3.6025	-120.14465
3.603	-51.05896
3.6035	-17.32178
3.604	31.21948
3.6045	127.89917
3.605	222.96753
3.6055	285.30579
3.606	321.86279
3.6065	332.94067
3.607	333.74634
3.6075	305.5481
3.608	268.28613
3.6085	229.31213
3.609	183.79211
3.6095	97.38464
3.61	13.69629
3.6105	-72.00623
3.611	-144.81812
3.6115	-212.5946
3.612	-275.23499
3.6125	-318.33801
3.613	-358.31909
3.6135	-367.38281
3.614	-347.64404
3.6145	-328.71094
3.615	-294.97375
3.6155	-258.71887
3.616	-215.21301
3.6165	-169.7937
3.617	-124.57581
3.6175	-84.2926
3.618	-52.67029
3.6185	-31.92444
3.619	-23.56567
3.6195	-14.09912
3.62	-4.43115
3.6205	10.0708
3.621	29.00391
3.6215	45.82214
3.622	53.37524
3.6225	66.97083
3.623	65.86304
3.6235	62.74109
3.624	60.22339
3.6245	94.06128
3.625	131.62537
3.6255	154.98962
3.626	175.73547
3.6265	210.47974
3.627	243.00842
3.6275	272.61658
3.628	313.70544
3.6285	319.84863
3.629	315.82031
3.6295	315.82031
3.63	330.92651
3.6305	345.93201
3.631	351.26953
3.6315	353.98865
3.632	310.28137
3.6325	261.33728
3.633	190.64026
3.6335	97.98889
3.634	7.65381
3.6345	-79.2572
3.635	-172.91565
3.6355	-259.92737
3.636	-333.14209
3.6365	-408.27026
3.637	-456.30798
3.6375	-476.85242
3.638	-444.22302
3.6385	-388.33008
3.639	-318.2373
3.6395	-251.66931
3.64	-168.28308
3.6405	-110.87952
3.641	-76.43738
3.6415	-40.88745
3.642	-15.20691
3.6425	-4.12903
3.643	-22.05505
3.6435	-53.47595
3.644	-79.76074
3.6445	-72.00623
3.645	-52.26746
3.6455	-33.43506
3.646	-22.86072
3.6465	-32.83081
3.647	-33.83789
3.6475	-23.76709
3.648	-18.42957
3.6485	-9.56726
3.649	26.88904
3.6495	101.61438
3.65	151.46484
3.6505	172.3114
3.651	192.55371
3.6515	203.22876
3.652	206.65283
3.6525	206.45142
3.653	206.95496
3.6535	199.40186
3.654	197.58911
3.6545	166.0675
3.655	124.57581
3.6555	76.23596
3.656	22.76001
3.6565	-6.54602
3.657	-33.33435
3.6575	-61.43188
3.658	-94.06128
3.6585	-125.98572
3.659	-131.02112
3.6595	-139.27917
3.66	-134.84802
3.6605	-107.05261
3.661	-82.9834
3.6615	-79.15649
3.662	-79.35791
3.6625	-53.47595
3.663	-22.96143
3.6635	0.40283
3.664	-15.71045
3.6645	-46.72852
3.665	-74.12109
3.6655	-92.34924
3.666	-95.77332
3.6665	-95.06836
3.667	-92.34924
3.6675	-82.9834
3.668	-74.92676
3.6685	-51.46179
3.669	-5.63965
3.6695	51.5625
3.67	84.39331
3.6705	99.60022
3.671	105.13916
3.6715	109.3689
3.672	114.505
3.6725	133.74023
3.673	149.75281
3.6735	165.86609
3.674	191.44592
3.6745	212.99744
3.675	228.50647
3.6755	246.23108
3.676	262.44507
3.6765	265.66772
3.677	261.13586
3.6775	280.97534
3.678	310.48279
3.6785	317.23022
3.679	307.05872
3.6795	310.28137
3.68	340.99731
3.6805	316.12244
3.681	255.49622
3.6815	174.8291
3.682	103.52783
3.6825	20.84656
3.683	-75.63171
3.6835	-149.14856
3.684	-226.29089
3.6845	-312.19482
3.685	-388.33008
3.6855	-438.68408
3.686	-482.29065
3.6865	-527.81067
3.687	-544.32678
3.6875	-526.09863
3.688	-512.80518
3.6885	-483.39844
3.689	-430.02319
3.6895	-364.05945
3.69	-300.5127
3.6905	-241.69922
3.691	-198.39478
3.6915	-143.20679
3.692	-95.47119
3.6925	-58.10852
3.693	-17.82532
3.6935	17.52319
3.694	54.78516
3.6945	76.13525
3.695	92.65137
3.6955	98.99597
3.696	96.37756
3.6965	104.4342
3.697	125.68359
3.6975	138.07068
3.698	157.50732
3.6985	198.39478
3.699	256.40259
3.6995	300.71411
3.7	324.78333
3.7005	371.91467
3.701	408.57239
3.7015	419.85168
3.702	404.44336
3.7025	397.3938
3.703	351.06812
3.7035	311.08704
3.704	261.33728
3.7045	193.25867
3.705	90.23438
3.7055	-8.96301
3.706	-87.91809
3.7065	-144.81812
3.707	-191.54663
3.7075	-193.46008
3.708	-186.51123
3.7085	-170.49866
3.709	-159.32007
3.7095	-178.75671
3.71	-170.29724
3.7105	-134.5459
3.711	-123.2666
3.7115	-123.16589
3.712	-122.25952
3.7125	-134.84802
3.713	-156.09741
3.7135	-203.02734
3.714	-246.93604
3.7145	-252.97852
3.715	-225.98877
3.7155	-170.39795
3.716	-140.58838
3.7165	-117.72766
3.717	-97.58606
3.7175	-54.18091
3.718	17.82532
3.7185	63.84888
3.719	59.61914
3.7195	25.57983
3.72	-15.50903
3.7205	-40.98816
3.721	-50.354
3.7215	-47.03064
3.722	-47.53418
3.7225	-47.13135
3.723	-37.7655
3.7235	-25.47913
3.724	-18.32886
3.7245	-11.07788
3.725	-14.90479
3.7255	-3.92761
3.726	8.45947
3.7265	27.89612
3.727	34.03931
3.7275	47.8363
3.728	49.34692
3.7285	61.83472
3.729	98.59314
3.7295	144.31458
3.73	173.41919
3.7305	182.28149
3.731	193.96362
3.7315	201.61743
3.732	208.06274
3.7325	203.02734
3.733	199.09973
3.7335	195.47424
3.734	180.56946
3.7345	158.91724
3.735	130.01404
3.7355	104.73633
3.736	79.15649
3.7365	47.53418
3.737	1.61133
3.7375	-39.07471
3.738	-76.33667
3.7385	-109.77173
3.739	-137.96997
3.7395	-146.12732
3.74	-147.1344
3.7405	-137.0636
3.741	-122.46094
3.7415	-97.28394
3.742	-85.90393
3.7425	-67.47437
3.743	-46.92993
3.7435	-15.60974
3.744	17.82532
3.7445	47.8363
3.745	68.48145
3.7455	77.64587
3.746	79.86145
3.7465	70.69702
3.747	57.50427
3.7475	50.05188
3.748	32.93152
3.7485	17.6239
3.749	-4.02832
3.7495	-33.9386
3.75	-45.52002
3.7505	-42.59949
3.751	-25.07629
3.7515	-16.51611
3.752	-8.96301
3.7525	-12.89062
3.753	-3.8269
3.7535	12.08496
3.754	36.25488
3.7545	68.68286
3.755	94.16199
3.7555	112.18872
3.756	122.66235
3.7565	146.63086
3.757	128.80554
3.7575	101.71509
3.758	60.12268
3.7585	15.71045
3.759	-46.72852
3.7595	-89.73083
3.76	-112.49084
3.7605	-146.02661
3.761	-152.1698
3.7615	-115.41138
3.762	-74.42322
3.7625	-63.34534
3.763	-54.38232
3.7635	-34.24072
3.764	-15.40833
3.7645	4.33044
3.765	34.03931
3.7655	71.50269
3.766	88.11951
3.7665	99.60022
3.767	124.27368
3.7675	157.91016
3.768	149.75281
3.7685	103.62854
3.769	58.30994
3.7695	21.85364
3.77	-14.50195
3.7705	-32.22656
3.771	-54.78516
3.7715	-74.12109
3.772	-90.73792
3.7725	-94.46411
3.773	-115.31067
3.7735	-138.47351
3.774	-142.40112
3.7745	-140.8905
3.775	-136.45935
3.7755	-133.03528
3.776	-125.68359
3.7765	-93.85986
3.777	-54.28162
3.7775	-29.10461
3.778	-10.0708
3.7785	37.96692
3.779	89.42871
3.7795	129.91333
3.78	171.20361
3.7805	200.50964
3.781	231.93054
3.7815	250.36011
3.782	247.43958
3.7825	246.93604
3.783	220.44983
3.7835	186.81335
3.784	148.04077
3.7845	151.86768
3.785	148.04077
3.7855	130.92041
3.786	104.3335
3.7865	65.05737
3.787	-25.68054
3.7875	-102.72217
3.788	-187.82043
3.7885	-270.90454
3.789	-334.75342
3.7895	-344.52209
3.79	-309.87854
3.7905	-278.05481
3.791	-240.1886
3.7915	-209.17053
3.792	-169.59229
3.7925	-95.87402
3.793	-28.09753
3.7935	-12.78992
3.794	-43.50586
3.7945	-71.09985
3.795	-62.64038
3.7955	-21.3501
3.796	25.27771
3.7965	53.87878
3.797	73.51685
3.7975	104.63562
3.798	154.38538
3.7985	188.52539
3.799	189.02893
3.7995	157.40662
3.8	122.15881
3.8005	69.89136
3.801	26.08337
3.8015	-14.40125
3.802	-50.45471
3.8025	-91.14075
3.803	-103.42712
3.8035	-102.72217
3.804	-89.52942
3.8045	-69.28711
3.805	-58.81348
3.8055	-56.29578
3.806	-53.87878
3.8065	-25.98267
3.807	-4.02832
3.8075	15.30762
3.808	30.41382
3.8085	36.15417
3.809	28.19824
3.8095	14.60266
3.81	19.43665
3.8105	22.35718
3.811	25.68054
3.8115	29.60815
3.812	59.82056
3.8125	72.00623
3.813	60.4248
3.8135	52.46887
3.814	58.61206
3.8145	80.36499
3.815	116.51917
3.8155	176.74255
3.816	250.46082
3.8165	302.32544
3.817	326.29395
3.8175	308.36792
3.818	250.05798
3.8185	181.073
3.819	104.53491
3.8195	23.26355
3.82	-69.48853
3.8205	-160.62927
3.821	-233.13904
3.8215	-290.34119
3.822	-322.56775
3.8225	-341.60156
3.823	-336.06262
3.8235	-305.44739
3.824	-291.34827
3.8245	-263.25073
3.825	-212.39319
3.8255	-179.66309
3.826	-143.4082
3.8265	-99.19739
3.827	-69.28711
3.8275	-57.20215
3.828	-34.94568
3.8285	-2.31628
3.829	31.01807
3.8295	84.79614
3.83	136.35864
3.8305	153.57971
3.831	142.80396
3.8315	154.38538
3.832	153.3783
3.8325	131.62537
3.833	108.66394
3.8335	100.10376
3.834	76.84021
3.8345	66.97083
3.835	30.41382
3.8355	7.35168
3.836	-14.30054
3.8365	-36.85913
3.837	-47.7356
3.8375	-56.39648
3.838	-62.13684
3.8385	-65.25879
3.839	-61.33118
3.8395	-49.44763
3.84	-27.6947
3.8405	-4.53186
3.841	28.39966
3.8415	52.771
3.842	76.33667
3.8425	129.71191
3.843	215.61584
3.8435	277.45056
3.844	317.53235
3.8445	370.40405
3.845	427.10266
3.8455	462.7533
3.846	464.56604
3.8465	437.677
3.847	387.52441
3.8475	320.6543
3.848	261.84082
3.8485	158.71582
3.849	50.2533
3.8495	-55.2887
3.85	-150.9613
3.8505	-223.57178
3.851	-274.1272
3.8515	-300.81482
3.852	-304.13818
3.8525	-300.10986
3.853	-285.80933
3.8535	-255.59692
3.854	-206.95496
3.8545	-123.66943
3.855	-64.45312
3.8555	-59.61914
3.856	-68.68286
3.8565	-60.3241
3.857	-61.12976
3.8575	-83.99048
3.858	-133.63953
3.8585	-185.60486
3.859	-212.99744
3.8595	-232.33337
3.86	-237.97302
3.8605	-227.29797
3.861	-203.02734
3.8615	-168.28308
3.862	-133.23669
3.8625	-92.55066
3.863	-42.19666
3.8635	-5.63965
3.864	14.70337
3.8645	29.40674
3.865	43.30444
3.8655	93.35632
3.866	130.61829
3.8665	146.42944
3.867	154.48608
3.8675	161.13281
3.868	155.69458
