Cristian_Larivera_Left_1.c3d  



Time(s):	B_L_bicipite(μV):
0	-74.2218
0.0005	-73.01331
0.001	-86.50818
0.0015	-71.90552
0.002	-37.7655
0.0025	4.12903
0.003	46.02356
0.0035	78.04871
0.004	122.25952
0.0045	158.31299
0.005	189.43176
0.0055	206.35071
0.006	207.65991
0.0065	191.64734
0.007	162.34131
0.0075	131.72607
0.008	108.86536
0.0085	92.65137
0.009	69.68994
0.0095	59.31702
0.01	47.93701
0.0105	41.18958
0.011	39.47754
0.0115	44.71436
0.012	43.60657
0.0125	42.90161
0.013	34.24072
0.0135	24.27063
0.014	22.55859
0.0145	18.73169
0.015	18.93311
0.0155	19.94019
0.016	15.91187
0.0165	8.56018
0.017	-69.48853
0.0175	-137.66785
0.018	-181.37512
0.0185	-187.01477
0.019	-161.83777
0.0195	-127.19421
0.02	-96.57898
0.0205	-48.44055
0.021	-2.21558
0.0215	32.32727
0.022	47.23206
0.0225	46.92993
0.023	-3.32336
0.0235	-42.59949
0.024	-54.28162
0.0245	-51.05896
0.025	-46.82922
0.0255	-31.62231
0.026	-6.14319
0.0265	21.55151
0.027	56.79932
0.0275	50.75684
0.028	20.84656
0.0285	-6.04248
0.029	-21.95435
0.0295	-35.2478
0.03	-94.16199
0.0305	-169.08875
0.031	-225.0824
0.0315	-230.1178
0.032	-191.84875
0.0325	-151.36414
0.033	-104.83704
0.0335	-60.22339
0.034	-19.43665
0.0345	37.26196
0.035	80.4657
0.0355	128.60413
0.036	155.39246
0.0365	174.02344
0.037	179.26025
0.0375	188.52539
0.038	186.91406
0.0385	175.33264
0.039	162.03918
0.0395	145.8252
0.04	120.84961
0.0405	108.26111
0.041	92.55066
0.0415	79.55933
0.042	73.61755
0.0425	65.56091
0.043	58.71277
0.0435	60.12268
0.044	55.89294
0.0445	63.94958
0.045	66.87012
0.0455	64.95667
0.046	65.25879
0.0465	63.84888
0.047	57.20215
0.0475	49.85046
0.048	37.56409
0.0485	27.39258
0.049	15.91187
0.0495	12.78992
0.05	12.78992
0.0505	5.63965
0.051	5.23682
0.0515	-0.80566
0.052	-10.57434
0.0525	-21.45081
0.053	-25.07629
0.0535	-33.43506
0.054	-30.41382
0.0545	-22.6593
0.055	-31.52161
0.0555	-33.9386
0.056	-27.49329
0.0565	-30.61523
0.057	-30.01099
0.0575	-28.9032
0.058	-30.91736
0.0585	-44.71436
0.059	-143.4082
0.0595	-257.51038
0.06	-307.66296
0.0605	-290.5426
0.061	-247.23816
0.0615	-183.99353
0.062	-127.09351
0.0625	-74.32251
0.063	-29.10461
0.0635	14.70337
0.064	43.20374
0.0645	56.5979
0.065	46.92993
0.0655	25.98267
0.066	31.72302
0.0665	37.06055
0.067	29.40674
0.0675	27.09045
0.068	32.02515
0.0685	52.771
0.069	64.55383
0.0695	79.66003
0.07	106.64978
0.0705	128.60413
0.071	144.01245
0.0715	119.94324
0.072	70.09277
0.0725	42.09595
0.073	-3.22266
0.0735	-48.13843
0.074	-89.02588
0.0745	-85.5011
0.075	-72.10693
0.0755	-55.59082
0.076	-45.2179
0.0765	-49.14551
0.077	-102.31934
0.0775	-139.5813
0.078	-127.39563
0.0785	-94.06128
0.079	-52.56958
0.0795	-12.89062
0.08	17.12036
0.0805	52.8717
0.081	84.39331
0.0815	96.37756
0.082	105.44128
0.0825	124.77722
0.083	140.08484
0.0835	155.79529
0.084	157.10449
0.0845	153.78113
0.085	132.43103
0.0855	104.93774
0.086	89.02588
0.0865	92.44995
0.087	91.8457
0.0875	82.47986
0.088	30.51453
0.0885	3.8269
0.089	-4.63257
0.0895	-1.61133
0.09	-3.62549
0.0905	-2.81982
0.091	-6.2439
0.0915	-0.80566
0.092	11.58142
0.0925	25.78125
0.093	39.27612
0.0935	48.23914
0.094	44.81506
0.0945	18.93311
0.095	-41.08887
0.0955	-81.97632
0.096	-93.75916
0.0965	-93.0542
0.097	-94.16199
0.0975	-122.15881
0.098	-150.45776
0.0985	-169.39087
0.099	-146.12732
0.0995	-95.37048
0.1	-48.33984
0.1005	-1.3092
0.101	19.83948
0.1015	-5.74036
0.102	-17.42249
0.1025	-14.70337
0.103	-11.2793
0.1035	5.63965
0.104	37.96692
0.1045	49.64905
0.105	68.38074
0.1055	81.87561
0.106	89.63013
0.1065	86.20605
0.107	49.54834
0.1075	25.57983
0.108	22.6593
0.1085	23.36426
0.109	25.07629
0.1095	19.13452
0.11	27.59399
0.1105	50.75684
0.111	73.31543
0.1115	100.90942
0.112	115.7135
0.1125	111.58447
0.113	120.64819
0.1135	115.81421
0.114	88.0188
0.1145	66.06445
0.115	50.55542
0.1155	45.3186
0.116	34.64355
0.1165	-14.90479
0.117	-77.24304
0.1175	-135.55298
0.118	-204.23584
0.1185	-238.37585
0.119	-242.20276
0.1195	-218.13354
0.12	-167.88025
0.1205	-117.92908
0.121	-60.02197
0.1215	5.43823
0.122	67.67578
0.1225	128.10059
0.123	172.3114
0.1235	206.35071
0.124	234.85107
0.1245	229.51355
0.125	206.45142
0.1255	181.97937
0.126	163.4491
0.1265	129.71191
0.127	107.65686
0.1275	80.76782
0.128	43.00232
0.1285	32.12585
0.129	16.81824
0.1295	-0.90637
0.13	-11.68213
0.1305	-18.73169
0.131	-29.91028
0.1315	-55.2887
0.132	-69.48853
0.1325	-69.48853
0.133	-69.68994
0.1335	-62.13684
0.134	-48.84338
0.1345	-33.63647
0.135	-36.35559
0.1355	-28.80249
0.136	-15.20691
0.1365	0.60425
0.137	-24.27063
0.1375	-26.58691
0.138	-11.17859
0.1385	13.49487
0.139	31.72302
0.1395	48.64197
0.14	67.77649
0.1405	83.78906
0.141	87.11243
0.1415	94.46411
0.142	95.26978
0.1425	92.34924
0.143	80.06287
0.1435	43.40515
0.144	20.94727
0.1445	-19.13452
0.145	-39.07471
0.1455	-59.71985
0.146	-114.60571
0.1465	-156.19812
0.147	-151.66626
0.1475	-120.34607
0.148	-70.69702
0.1485	-39.88037
0.149	-2.11487
0.1495	34.44214
0.15	72.00623
0.1505	92.85278
0.151	105.84412
0.1515	54.38232
0.152	-47.23206
0.1525	-100.30518
0.153	-125.07935
0.1535	-121.25244
0.154	-141.39404
0.1545	-144.21387
0.155	-123.46802
0.1555	-99.3988
0.156	-50.75684
0.1565	8.96301
0.157	72.9126
0.1575	123.06519
0.158	146.93298
0.1585	158.61511
0.159	150.75989
0.1595	129.20837
0.16	104.23279
0.1605	64.55383
0.161	26.88904
0.1615	-44.11011
0.162	-108.66394
0.1625	-116.11633
0.163	-97.58606
0.1635	-72.81189
0.164	-90.33508
0.1645	-133.94165
0.165	-142.40112
0.1655	-119.13757
0.166	-97.78748
0.1665	-81.67419
0.167	-65.15808
0.1675	-52.06604
0.168	-30.51453
0.1685	6.04248
0.169	46.12427
0.1695	63.84888
0.17	64.05029
0.1705	42.39807
0.171	43.90869
0.1715	58.51135
0.172	80.56641
0.1725	106.44836
0.173	127.89917
0.1735	134.74731
0.174	133.23669
0.1745	119.84253
0.175	70.69702
0.1755	45.3186
0.176	58.81348
0.1765	79.55933
0.177	87.61597
0.1775	76.23596
0.178	49.14551
0.1785	-34.24072
0.179	-131.82678
0.1795	-157.2052
0.18	-145.12024
0.1805	-115.61279
0.181	-74.32251
0.1815	-31.52161
0.182	18.32886
0.1825	60.02197
0.183	111.28235
0.1835	139.37988
0.184	148.24219
0.1845	150.55847
0.185	151.66626
0.1855	129.30908
0.186	117.12341
0.1865	95.67261
0.187	80.66711
0.1875	63.44604
0.188	72.61047
0.1885	62.9425
0.189	76.23596
0.1895	74.92676
0.19	83.08411
0.1905	79.55933
0.191	89.22729
0.1915	92.34924
0.192	79.66003
0.1925	74.72534
0.193	59.41772
0.1935	39.47754
0.194	11.68213
0.1945	-13.797
0.195	-34.34143
0.1955	-44.11011
0.196	-54.78516
0.1965	-65.86304
0.197	-69.08569
0.1975	-72.10693
0.198	-60.72693
0.1985	-55.69153
0.199	-46.02356
0.1995	-38.16833
0.2	-25.78125
0.2005	-16.11328
0.201	-18.73169
0.2015	-20.54443
0.202	-28.29895
0.2025	-73.31543
0.203	-131.02112
0.2035	-156.70166
0.204	-148.3429
0.2045	-123.77014
0.205	-102.21863
0.2055	-70.49561
0.206	-50.75684
0.2065	-34.44214
0.207	-9.97009
0.2075	22.45789
0.208	46.82922
0.2085	62.74109
0.209	72.50977
0.2095	75.83313
0.21	65.66162
0.2105	49.24622
0.211	28.80249
0.2115	4.93469
0.212	0.70496
0.2125	1.00708
0.213	2.41699
0.2135	7.85522
0.214	4.53186
0.2145	-6.54602
0.215	-27.29187
0.2155	-35.85205
0.216	-44.61365
0.2165	-58.71277
0.217	-48.84338
0.2175	-35.65063
0.218	-19.63806
0.2185	-14.40125
0.219	-17.12036
0.2195	-11.58142
0.22	2.61841
0.2205	11.88354
0.221	-2.41699
0.2215	-39.37683
0.222	-61.53259
0.2225	-53.97949
0.223	-72.00623
0.2235	-102.21863
0.224	-104.4342
0.2245	-87.31384
0.225	-52.46887
0.2255	-10.27222
0.226	21.45081
0.2265	54.48303
0.227	79.15649
0.2275	117.12341
0.228	139.48059
0.2285	142.80396
0.229	122.86377
0.2295	106.75049
0.23	96.07544
0.2305	84.09119
0.231	68.17932
0.2315	59.21631
0.232	57.10144
0.2325	52.97241
0.233	54.38232
0.2335	53.67737
0.234	45.92285
0.2345	37.36267
0.235	35.34851
0.2355	27.19116
0.236	-6.94885
0.2365	-33.73718
0.237	-50.15259
0.2375	-56.5979
0.238	-58.51135
0.2385	-97.38464
0.239	-137.66785
0.2395	-133.23669
0.24	-123.06519
0.2405	-104.4342
0.241	-76.23596
0.2415	-114.90784
0.242	-205.34363
0.2425	-231.72913
0.243	-211.58752
0.2435	-179.15955
0.244	-126.48926
0.2445	-58.81348
0.245	3.52478
0.2455	61.6333
0.246	125.68359
0.2465	169.89441
0.247	179.26025
0.2475	203.32947
0.248	197.58911
0.2485	180.06592
0.249	150.55847
0.2495	117.32483
0.25	86.00464
0.2505	71.60339
0.251	75.93384
0.2515	89.52942
0.252	84.79614
0.2525	82.78198
0.253	72.30835
0.2535	31.72302
0.254	-15.30762
0.2545	-28.9032
0.255	-21.3501
0.2555	-8.05664
0.256	2.31628
0.2565	11.78284
0.257	34.84497
0.2575	60.12268
0.258	88.42163
0.2585	100.90942
0.259	99.90234
0.2595	93.65845
0.26	86.60889
0.2605	64.25171
0.261	51.66321
0.2615	34.44214
0.262	9.56726
0.2625	-24.97559
0.263	-54.88586
0.2635	-86.8103
0.264	-94.56482
0.2645	-84.99756
0.265	-75.93384
0.2655	-67.57507
0.266	-58.51135
0.2665	-46.32568
0.267	-32.42798
0.2675	-9.16443
0.268	14.19983
0.2685	6.04248
0.269	-38.06763
0.2695	-57.8064
0.27	-61.93542
0.2705	-107.35474
0.271	-153.27759
0.2715	-233.13904
0.272	-273.42224
0.2725	-269.59534
0.273	-248.84949
0.2735	-229.61426
0.274	-187.21619
0.2745	-95.06836
0.275	-12.18567
0.2755	58.81348
0.276	129.91333
0.2765	173.92273
0.277	195.87708
0.2775	186.30981
0.278	158.21228
0.2785	148.04077
0.279	146.32874
0.2795	142.40112
0.28	123.56873
0.2805	104.53491
0.281	79.86145
0.2815	69.38782
0.282	69.38782
0.2825	85.70251
0.283	112.49084
0.2835	127.19421
0.284	129.40979
0.2845	119.33899
0.285	95.5719
0.2855	74.82605
0.286	43.90869
0.2865	15.00549
0.287	2.81982
0.2875	2.92053
0.288	7.35168
0.2885	15.00549
0.289	13.19275
0.2895	8.45947
0.29	6.2439
0.2905	10.47363
0.291	8.56018
0.2915	14.70337
0.292	9.06372
0.2925	-9.97009
0.293	-69.1864
0.2935	-115.41138
0.294	-135.65369
0.2945	-123.77014
0.295	-94.16199
0.2955	-68.78357
0.296	-48.94409
0.2965	-12.48779
0.297	-4.73328
0.2975	2.5177
0.298	11.78284
0.2985	22.15576
0.299	41.08887
0.2995	16.01257
0.3	-18.12744
0.3005	-20.84656
0.301	-14.80408
0.3015	-9.56726
0.302	-40.08179
0.3025	-88.82446
0.303	-112.69226
0.3035	-88.22021
0.304	-57.70569
0.3045	-16.91895
0.305	-5.43823
0.3055	3.7262
0.306	14.09912
0.3065	23.46497
0.307	38.26904
0.3075	41.69312
0.308	43.00232
0.3085	61.83472
0.309	65.96375
0.3095	69.38782
0.31	75.02747
0.3105	88.82446
0.311	92.75208
0.3115	89.22729
0.312	82.9834
0.3125	80.56641
0.313	66.16516
0.3135	56.19507
0.314	56.69861
0.3145	52.16675
0.315	64.45312
0.3155	62.13684
0.316	53.27454
0.3165	36.25488
0.317	31.4209
0.3175	36.65771
0.318	43.90869
0.3185	55.59082
0.319	42.59949
0.3195	29.91028
0.32	31.92444
0.3205	22.35718
0.321	23.96851
0.3215	21.24939
0.322	20.74585
0.3225	18.53027
0.323	15.30762
0.3235	7.25098
0.324	-0.30212
0.3245	-18.02673
0.325	-43.80798
0.3255	-67.77649
0.326	-84.19189
0.3265	-91.94641
0.327	-87.81738
0.3275	-87.81738
0.328	-87.81738
0.3285	-87.81738
0.329	-87.81738
0.3295	-87.81738
0.33	-87.81738
0.3305	-87.81738
0.331	-87.81738
0.3315	-87.81738
0.332	-87.81738
0.3325	-87.81738
0.333	-87.81738
0.3335	-87.81738
0.334	-87.81738
0.3345	-87.81738
0.335	-87.81738
0.3355	-87.81738
0.336	-87.81738
0.3365	-87.81738
0.337	-87.81738
0.3375	79.2572
0.338	61.73401
0.3385	38.16833
0.339	11.58142
0.3395	-17.92603
0.34	-30.61523
0.3405	-19.94019
0.341	2.11487
0.3415	16.81824
0.342	20.44373
0.3425	5.53894
0.343	0
0.3435	-39.67896
0.344	-87.01172
0.3445	-147.03369
0.345	-201.71814
0.3455	-204.43726
0.346	-161.53564
0.3465	-113.90076
0.347	-58.41064
0.3475	-5.13611
0.348	49.44763
0.3485	95.97473
0.349	134.64661
0.3495	165.46326
0.35	194.06433
0.3505	202.92664
0.351	201.61743
0.3515	200.71106
0.352	170.59937
0.3525	134.64661
0.353	102.01721
0.3535	73.61755
0.354	53.47595
0.3545	51.96533
0.355	47.53418
0.3555	47.03064
0.356	47.93701
0.3565	46.62781
0.357	36.55701
0.3575	34.03931
0.358	9.56726
0.3585	3.22266
0.359	5.63965
0.3595	-7.35168
0.36	-15.60974
0.3605	-27.99683
0.361	-46.12427
0.3615	-41.69312
0.362	-46.32568
0.3625	-50.2533
0.363	-40.88745
0.3635	-27.6947
0.364	-22.96143
0.3645	-24.67346
0.365	-15.60974
0.3655	-6.84814
0.366	1.10779
0.3665	-1.61133
0.367	7.75452
0.3675	12.99133
0.368	24.47205
0.3685	40.98816
0.369	42.49878
0.3695	35.44922
0.37	21.55151
0.3705	21.85364
0.371	20.24231
0.3715	20.34302
0.372	13.19275
0.3725	1.10779
0.373	4.83398
0.3735	1.81274
0.374	7.5531
0.3745	1.51062
0.375	-41.29028
0.3755	-85.40039
0.376	-127.69775
0.3765	-162.84485
0.377	-187.92114
0.3775	-199.50256
0.378	-180.67017
0.3785	-185.60486
0.379	-181.57654
0.3795	-144.71741
0.38	-74.62463
0.3805	-0.70496
0.381	68.28003
0.3815	126.18713
0.382	174.12415
0.3825	193.96362
0.383	207.4585
0.3835	190.13672
0.384	154.18396
0.3845	138.57422
0.385	124.77722
0.3855	116.11633
0.386	101.31226
0.3865	91.14075
0.387	76.53809
0.3875	63.44604
0.388	49.74976
0.3885	40.08179
0.389	44.31152
0.3895	46.92993
0.39	45.52002
0.3905	33.53577
0.391	25.47913
0.3915	13.19275
0.392	9.56726
0.3925	8.96301
0.393	0.20142
0.3935	-8.05664
0.394	1.81274
0.3945	-4.22974
0.395	-88.11951
0.3955	-192.05017
0.396	-245.82825
0.3965	-247.03674
0.397	-211.2854
0.3975	-161.73706
0.398	-96.7804
0.3985	-29.91028
0.399	22.86072
0.3995	74.12109
0.4	118.83545
0.4005	113.69934
0.401	76.33667
0.4015	60.3241
0.402	58.00781
0.4025	51.96533
0.403	44.41223
0.4035	25.177
0.404	11.98425
0.4045	12.28638
0.405	12.38708
0.4055	9.86938
0.406	4.93469
0.4065	5.23682
0.407	-11.38
0.4075	-28.80249
0.408	-42.19666
0.4085	-39.77966
0.409	-43.80798
0.4095	-34.14001
0.41	-15.30762
0.4105	5.33752
0.411	25.78125
0.4115	46.22498
0.412	54.78516
0.4125	68.58215
0.413	80.76782
0.4135	77.54517
0.414	76.33667
0.4145	87.41455
0.415	84.2926
0.4155	74.92676
0.416	75.02747
0.4165	64.65454
0.417	50.95825
0.4175	43.40515
0.418	33.73718
0.4185	31.72302
0.419	20.74585
0.4195	1.71204
0.42	-23.76709
0.4205	-65.46021
0.421	-100.10376
0.4215	-128.70483
0.422	-139.68201
0.4225	-127.29492
0.423	-95.87402
0.4235	-71.7041
0.424	-39.47754
0.4245	-11.68213
0.425	23.46497
0.4255	52.46887
0.426	82.07703
0.4265	102.42004
0.427	114.20288
0.4275	120.7489
0.428	123.77014
0.4285	96.37756
0.429	64.05029
0.4295	61.12976
0.43	48.33984
0.4305	29.70886
0.431	26.48621
0.4315	26.18408
0.432	26.98975
0.4325	25.98267
0.433	12.99133
0.4335	-16.81824
0.434	-41.08887
0.4345	-84.89685
0.435	-104.23279
0.4355	-116.01562
0.436	-123.46802
0.4365	-143.71033
0.437	-216.62292
0.4375	-286.91711
0.438	-312.39624
0.4385	-281.78101
0.439	-204.43726
0.4395	-128.50342
0.44	-60.22339
0.4405	-3.42407
0.441	44.41223
0.4415	88.11951
0.442	111.18164
0.4425	95.97473
0.443	95.67261
0.4435	99.70093
0.444	96.07544
0.4445	87.11243
0.445	68.98499
0.4455	55.18799
0.446	53.27454
0.4465	27.09045
0.447	5.63965
0.4475	-9.86938
0.448	-23.96851
0.4485	-38.77258
0.449	-40.2832
0.4495	-36.15417
0.45	-8.45947
0.4505	3.8269
0.451	-5.53894
0.4515	-30.31311
0.452	-25.37842
0.4525	4.53186
0.453	51.15967
0.4535	92.44995
0.454	115.7135
0.4545	150.25635
0.455	164.95972
0.4555	176.64185
0.456	171.30432
0.4565	143.91174
0.457	78.95508
0.4575	37.66479
0.458	-1.61133
0.4585	-64.05029
0.459	-107.85828
0.4595	-128.20129
0.46	-125.07935
0.4605	-112.18872
0.461	-82.68127
0.4615	-41.79382
0.462	2.92053
0.4625	40.48462
0.463	53.57666
0.4635	66.87012
0.464	75.63171
0.4645	76.63879
0.465	80.06287
0.4655	71.90552
0.466	73.41614
0.4665	65.56091
0.467	72.81189
0.4675	86.60889
0.468	82.78198
0.4685	76.53809
0.469	64.85596
0.4695	51.26038
0.47	57.50427
0.4705	77.04163
0.471	95.5719
0.4715	94.96765
0.472	87.71667
0.4725	83.88977
0.473	81.06995
0.4735	68.28003
0.474	59.51843
0.4745	40.78674
0.475	27.29187
0.4755	7.5531
0.476	-12.5885
0.4765	-27.79541
0.477	-38.06763
0.4775	-45.72144
0.478	-45.82214
0.4785	-31.01807
0.479	-18.32886
0.4795	-8.66089
0.48	-2.31628
0.4805	10.17151
0.481	3.62549
0.4815	19.03381
0.482	6.54602
0.4825	-31.82373
0.483	-61.93542
0.4835	-121.25244
0.484	-181.77795
0.4845	-216.72363
0.485	-226.29089
0.4855	-209.67407
0.486	-167.77954
0.4865	-115.31067
0.487	-67.27295
0.4875	-34.03931
0.488	2.31628
0.4885	38.87329
0.489	74.82605
0.4895	88.92517
0.49	38.16833
0.4905	-89.63013
0.491	-171.40503
0.4915	-220.14771
0.492	-234.34753
0.4925	-204.73938
0.493	-162.74414
0.4935	-113.29651
0.494	-55.3894
0.4945	4.33044
0.495	59.71985
0.4955	103.93066
0.496	156.39954
0.4965	176.74255
0.497	207.76062
0.4975	218.43567
0.498	209.87549
0.4985	199.20044
0.499	195.07141
0.4995	177.04468
0.5	158.01086
0.5005	132.22961
0.501	129.00696
0.5015	137.26501
0.502	129.91333
0.5025	124.87793
0.503	122.66235
0.5035	110.87952
0.504	90.5365
0.5045	38.16833
0.505	-35.44922
0.5055	-80.86853
0.506	-185.60486
0.5065	-303.63464
0.507	-333.94775
0.5075	-316.22314
0.508	-277.75269
0.5085	-222.76611
0.509	-160.62927
0.5095	-97.08252
0.51	-34.74426
0.5105	13.89771
0.511	55.49011
0.5115	79.86145
0.512	105.74341
0.5125	119.94324
0.513	144.01245
0.5135	153.07617
0.514	153.88184
0.5145	145.62378
0.515	130.8197
0.5155	131.82678
0.516	127.99988
0.5165	128.20129
0.517	119.03687
0.5175	107.25403
0.518	93.35632
0.5185	84.2926
0.519	58.81348
0.5195	41.18958
0.52	13.29346
0.5205	-30.41382
0.521	-131.22253
0.5215	-224.57886
0.522	-291.34827
0.5225	-346.53625
0.523	-354.49219
0.5235	-331.43005
0.524	-277.65198
0.5245	-216.01868
0.525	-134.34448
0.5255	-68.88428
0.526	4.93469
0.5265	51.76392
0.527	98.79456
0.5275	128.20129
0.528	150.05493
0.5285	177.24609
0.529	180.56946
0.5295	180.56946
0.53	178.75671
0.5305	169.18945
0.531	164.25476
0.5315	178.25317
0.532	167.17529
0.5325	147.1344
0.533	148.54431
0.5335	153.57971
0.534	155.9967
0.5345	159.62219
0.535	134.5459
0.5355	102.52075
0.536	77.44446
0.5365	60.3241
0.537	53.77808
0.5375	41.79382
0.538	28.50037
0.5385	3.92761
0.539	-10.97717
0.5395	-8.35876
0.54	-3.32336
0.5405	-9.36584
0.541	-13.09204
0.5415	-17.22107
0.542	-17.01965
0.5425	-27.19116
0.543	-16.71753
0.5435	-18.32886
0.544	-12.38708
0.5445	-17.82532
0.545	-18.8324
0.5455	-28.80249
0.546	-47.7356
0.5465	-81.37207
0.547	-126.48926
0.5475	-182.48291
0.548	-268.08472
0.5485	-313.80615
0.549	-307.96509
0.5495	-284.29871
0.55	-252.17285
0.5505	-212.89673
0.551	-187.82043
0.5515	-136.15723
0.552	-49.14551
0.5525	24.06921
0.553	96.7804
0.5535	147.23511
0.554	175.43335
0.5545	204.73938
0.555	220.65125
0.5555	208.7677
0.556	194.87
0.5565	168.88733
0.557	150.15564
0.5575	138.17139
0.558	115.91492
0.5585	102.72217
0.559	100.6073
0.5595	95.16907
0.56	90.83862
0.5605	58.10852
0.561	11.17859
0.5615	-11.58142
0.562	-25.27771
0.5625	-37.06055
0.563	-70.79773
0.5635	-89.02588
0.564	-89.328
0.5645	-84.39331
0.565	-77.74658
0.5655	-70.89844
0.566	-63.44604
0.5665	-44.0094
0.567	-34.94568
0.5675	-9.66797
0.568	4.63257
0.5685	19.03381
0.569	25.98267
0.5695	21.55151
0.57	6.64673
0.5705	-23.46497
0.571	-59.61914
0.5715	-67.97791
0.572	-53.57666
0.5725	-23.8678
0.573	2.71912
0.5735	32.93152
0.574	52.97241
0.5745	60.72693
0.575	50.95825
0.5755	45.52002
0.576	58.10852
0.5765	63.94958
0.577	71.40198
0.5775	76.53809
0.578	63.14392
0.5785	0.50354
0.579	-53.17383
0.5795	-73.61755
0.58	-62.64038
0.5805	-35.54993
0.581	-7.35168
0.5815	26.68762
0.582	33.23364
0.5825	17.42249
0.583	-9.66797
0.5835	-69.08569
0.584	-134.64661
0.5845	-171.60645
0.585	-175.13123
0.5855	-158.61511
0.586	-131.02112
0.5865	-105.84412
0.587	-73.11401
0.5875	-39.07471
0.588	-10.47363
0.5885	9.66797
0.589	-40.58533
0.5895	-84.39331
0.59	-107.75757
0.5905	-141.39404
0.591	-126.89209
0.5915	-90.73792
0.592	-42.59949
0.5925	20.1416
0.593	79.45862
0.5935	150.75989
0.594	215.41443
0.5945	266.27197
0.595	286.91711
0.5955	282.08313
0.596	278.86047
0.5965	210.37903
0.597	61.93542
0.5975	-37.36267
0.598	-72.50977
0.5985	-80.26428
0.599	-77.84729
0.5995	-66.6687
0.6	-35.95276
0.6005	-17.6239
0.601	-18.32886
0.6015	-2.31628
0.602	16.21399
0.6025	32.62939
0.603	36.35559
0.6035	31.11877
0.604	23.56567
0.6045	30.91736
0.605	36.85913
0.6055	37.26196
0.606	57.70569
0.6065	67.8772
0.607	62.23755
0.6075	67.67578
0.608	51.46179
0.6085	40.2832
0.609	22.55859
0.6095	12.78992
0.61	18.63098
0.6105	37.86621
0.611	57.30286
0.6115	48.94409
0.612	44.21082
0.6125	56.19507
0.613	75.22888
0.6135	82.88269
0.614	61.23047
0.6145	39.17542
0.615	18.8324
0.6155	10.47363
0.616	7.65381
0.6165	2.5177
0.617	-3.02124
0.6175	4.22974
0.618	16.91895
0.6185	17.82532
0.619	13.49487
0.6195	15.30762
0.62	13.39417
0.6205	-19.83948
0.621	-53.47595
0.6215	-74.32251
0.622	-80.16357
0.6225	-68.98499
0.623	-49.95117
0.6235	-27.19116
0.624	-17.82532
0.6245	-4.12903
0.625	12.48779
0.6255	9.46655
0.626	-19.94019
0.6265	-25.27771
0.627	-28.70178
0.6275	-23.36426
0.628	-17.32178
0.6285	-18.73169
0.629	-19.83948
0.6295	-18.42957
0.63	-0.40283
0.6305	11.58142
0.631	25.177
0.6315	33.73718
0.632	40.58533
0.6325	52.16675
0.633	57.30286
0.6335	54.88586
0.634	42.09595
0.6345	31.52161
0.635	24.27063
0.6355	24.67346
0.636	33.03223
0.6365	35.2478
0.637	27.19116
0.6375	11.48071
0.638	-13.49487
0.6385	-19.63806
0.639	-21.75293
0.6395	-10.57434
0.64	-18.93311
0.6405	-47.43347
0.641	-84.79614
0.6415	-141.59546
0.642	-170.29724
0.6425	-171.90857
0.643	-166.87317
0.6435	-142.80396
0.644	-108.96606
0.6445	-67.17224
0.645	-19.13452
0.6455	31.11877
0.646	71.20056
0.6465	92.65137
0.647	97.08252
0.6475	81.57349
0.648	63.24463
0.6485	49.14551
0.649	40.1825
0.6495	23.76709
0.65	10.0708
0.6505	-33.63647
0.651	-73.31543
0.6515	-63.14392
0.652	-44.91577
0.6525	-23.06213
0.653	-7.45239
0.6535	-23.76709
0.654	-47.93701
0.6545	-53.17383
0.655	-30.61523
0.6555	-12.28638
0.656	9.76868
0.6565	36.85913
0.657	72.61047
0.6575	77.64587
0.658	92.55066
0.6585	95.5719
0.659	94.2627
0.6595	88.82446
0.66	82.27844
0.6605	80.76782
0.661	84.39331
0.6615	88.22021
0.662	71.7041
0.6625	46.32568
0.663	7.95593
0.6635	-61.02905
0.664	-120.95032
0.6645	-149.45068
0.665	-159.42078
0.6655	-141.89758
0.666	-122.96448
0.6665	-110.77881
0.667	-125.58289
0.6675	-107.95898
0.668	-90.33508
0.6685	-84.79614
0.669	-57.10144
0.6695	-16.41541
0.67	33.9386
0.6705	74.2218
0.671	105.6427
0.6715	117.82837
0.672	127.59705
0.6725	143.10608
0.673	141.09192
0.6735	129.61121
0.674	125.58289
0.6745	110.87952
0.675	94.2627
0.6755	81.06995
0.676	71.90552
0.6765	64.95667
0.677	68.98499
0.6775	64.65454
0.678	78.55225
0.6785	71.09985
0.679	64.25171
0.6795	49.74976
0.68	40.88745
0.6805	24.47205
0.681	-0.60425
0.6815	-23.8678
0.682	-32.12585
0.6825	-52.36816
0.683	-84.19189
0.6835	-105.34058
0.684	-120.24536
0.6845	-124.27368
0.685	-114.30359
0.6855	-122.15881
0.686	-142.70325
0.6865	-133.84094
0.687	-96.98181
0.6875	-70.59631
0.688	-44.21082
0.6885	-16.81824
0.689	16.21399
0.6895	54.78516
0.69	81.67419
0.6905	95.67261
0.691	129.20837
0.6915	144.71741
0.692	145.32166
0.6925	140.08484
0.693	122.36023
0.6935	95.97473
0.694	56.49719
0.6945	-1.61133
0.695	-51.86462
0.6955	-82.78198
0.696	-97.48535
0.6965	-97.88818
0.697	-80.36499
0.6975	-51.5625
0.698	-23.06213
0.6985	5.23682
0.699	32.52869
0.6995	42.19666
0.7	53.97949
0.7005	57.40356
0.701	57.40356
0.7015	43.10303
0.702	-5.53894
0.7025	-20.64514
0.703	-25.78125
0.7035	-43.40515
0.704	-88.11951
0.7045	-94.06128
0.705	-69.79065
0.7055	-38.77258
0.706	-3.92761
0.7065	37.26196
0.707	67.17224
0.7075	93.65845
0.708	109.67102
0.7085	116.922
0.709	115.20996
0.7095	101.21155
0.71	64.35242
0.7105	26.58691
0.711	-0.80566
0.7115	-28.29895
0.712	-54.98657
0.7125	-70.29419
0.713	-80.16357
0.7135	-82.27844
0.714	-80.06287
0.7145	-65.86304
0.715	-48.33984
0.7155	-37.46338
0.716	-12.38708
0.7165	-74.12109
0.717	-129.71191
0.7175	-121.15173
0.718	-101.31226
0.7185	-69.38782
0.719	-70.09277
0.7195	-29.50745
0.72	28.70178
0.7205	84.19189
0.721	129.81262
0.7215	159.32007
0.722	185.10132
0.7225	190.33813
0.723	196.68274
0.7235	202.4231
0.724	200.10681
0.7245	182.88574
0.725	151.66626
0.7255	122.36023
0.726	98.89526
0.7265	75.73242
0.727	54.0802
0.7275	17.22107
0.728	-24.47205
0.7285	-50.75684
0.729	-67.77649
0.7295	-71.09985
0.73	-67.37366
0.7305	-62.8418
0.731	-71.50269
0.7315	-94.3634
0.732	-133.84094
0.7325	-191.94946
0.733	-219.03992
0.7335	-205.74646
0.734	-201.2146
0.7345	-203.12805
0.735	-225.58594
0.7355	-216.42151
0.736	-177.14539
0.7365	-102.52075
0.737	-16.91895
0.7375	71.20056
0.738	132.0282
0.7385	176.94397
0.739	218.63708
0.7395	222.86682
0.74	234.04541
0.7405	245.12329
0.741	242.20276
0.7415	219.44275
0.742	166.47034
0.7425	107.85828
0.743	68.28003
0.7435	29.70886
0.744	21.24939
0.7445	-2.21558
0.745	-48.33984
0.7455	-72.00623
0.746	-63.74817
0.7465	-44.81506
0.747	-20.74585
0.7475	28.19824
0.748	57.20215
0.7485	78.95508
0.749	68.07861
0.7495	49.64905
0.75	61.83472
0.7505	60.82764
0.751	52.97241
0.7515	40.88745
0.752	19.73877
0.7525	13.39417
0.753	8.05664
0.7535	15.20691
0.754	30.31311
0.7545	37.7655
0.755	49.64905
0.7555	45.72144
0.756	33.33435
0.7565	-11.88354
0.757	-68.17932
0.7575	-89.73083
0.758	-98.49243
0.7585	-91.34216
0.759	-74.52393
0.7595	-57.9071
0.76	-30.61523
0.7605	-5.94177
0.761	-3.8269
0.7615	-21.75293
0.762	-23.16284
0.7625	-7.5531
0.763	5.0354
0.7635	26.08337
0.764	40.48462
0.7645	40.88745
0.765	41.69312
0.7655	42.19666
0.766	34.34143
0.7665	37.56409
0.767	47.7356
0.7675	57.40356
0.768	56.69861
0.7685	60.72693
0.769	64.25171
0.7695	56.19507
0.77	50.95825
0.7705	37.46338
0.771	22.55859
0.7715	19.23523
0.772	12.5885
0.7725	-33.13293
0.773	-82.9834
0.7735	-114.80713
0.774	-133.03528
0.7745	-169.08875
0.775	-205.84717
0.7755	-191.64734
0.776	-157.60803
0.7765	-121.55457
0.777	-70.09277
0.7775	-12.99133
0.778	22.6593
0.7785	41.99524
0.779	47.93701
0.7795	57.40356
0.78	62.03613
0.7805	52.8717
0.781	42.7002
0.7815	38.06763
0.782	28.9032
0.7825	31.82373
0.783	39.27612
0.7835	54.58374
0.784	61.73401
0.7845	63.74817
0.785	60.22339
0.7855	58.20923
0.786	69.58923
0.7865	82.17773
0.787	96.07544
0.7875	100.50659
0.788	102.11792
0.7885	102.21863
0.789	93.45703
0.7895	98.19031
0.79	91.34216
0.7905	88.42163
0.791	75.22888
0.7915	5.84106
0.792	-68.78357
0.7925	-104.3335
0.793	-118.63403
0.7935	-131.82678
0.794	-163.04626
0.7945	-178.45459
0.795	-177.14539
0.7955	-154.28467
0.796	-124.17297
0.7965	-96.47827
0.797	-71.7041
0.7975	-46.5271
0.798	-19.23523
0.7985	13.39417
0.799	43.50586
0.7995	69.1864
0.8	85.5011
0.8005	83.99048
0.801	80.26428
0.8015	8.7616
0.802	-84.59473
0.8025	-130.61829
0.803	-120.44678
0.8035	-98.29102
0.804	-103.32642
0.8045	-97.98889
0.805	-98.89526
0.8055	-116.01562
0.806	-115.81421
0.8065	-133.23669
0.807	-119.03687
0.8075	-64.05029
0.808	-4.73328
0.8085	47.8363
0.809	83.18481
0.8095	125.98572
0.81	152.47192
0.8105	194.46716
0.811	222.36328
0.8115	235.25391
0.812	220.047
0.8125	207.15637
0.813	187.01477
0.8135	167.276
0.814	135.8551
0.8145	109.87244
0.815	89.73083
0.8155	70.3949
0.816	55.79224
0.8165	55.2887
0.817	48.54126
0.8175	32.93152
0.818	-11.2793
0.8185	-82.78198
0.819	-159.52148
0.8195	-188.42468
0.82	-177.44751
0.8205	-148.14148
0.821	-106.44836
0.8215	-62.13684
0.822	-30.11169
0.8225	8.45947
0.823	41.69312
0.8235	73.71826
0.824	97.38464
0.8245	116.82129
0.825	130.11475
0.8255	126.89209
0.826	124.07227
0.8265	109.57031
0.827	101.21155
0.8275	87.01172
0.828	74.52393
0.8285	70.09277
0.829	64.151
0.8295	48.64197
0.83	42.39807
0.8305	42.49878
0.831	28.09753
0.8315	23.56567
0.832	28.39966
0.8325	28.19824
0.833	20.84656
0.8335	7.75452
0.834	1.00708
0.8345	-6.94885
0.835	-13.09204
0.8355	-21.45081
0.836	-20.44373
0.8365	-21.65222
0.837	-25.27771
0.8375	-25.88196
0.838	-22.15576
0.8385	-29.00391
0.839	-28.19824
0.8395	-28.09753
0.84	-35.14709
0.8405	-36.85913
0.841	-53.77808
0.8415	-68.58215
0.842	-90.33508
0.8425	-100.90942
0.843	-95.47119
0.8435	-98.79456
0.844	-84.49402
0.8445	-68.58215
0.845	-54.38232
0.8455	-41.18958
0.846	-19.94019
0.8465	-5.33752
0.847	27.89612
0.8475	33.23364
0.848	14.30054
0.8485	8.05664
0.849	-14.09912
0.8495	-39.17542
0.85	-63.64746
0.8505	-60.3241
0.851	-51.46179
0.8515	-52.26746
0.852	-57.30286
0.8525	-59.82056
0.853	-51.05896
0.8535	-44.91577
0.854	-30.01099
0.8545	-19.03381
0.855	5.84106
0.8555	22.15576
0.856	6.2439
0.8565	-28.80249
0.857	-41.69312
0.8575	-36.85913
0.858	-15.00549
0.8585	5.43823
0.859	37.7655
0.8595	61.73401
0.86	78.65295
0.8605	103.125
0.861	112.39014
0.8615	102.82288
0.862	71.30127
0.8625	67.97791
0.863	65.76233
0.8635	72.81189
0.864	73.81897
0.8645	64.75525
0.865	58.30994
0.8655	72.20764
0.866	77.54517
0.8665	66.97083
0.867	54.88586
0.8675	38.06763
0.868	26.98975
0.8685	21.75293
0.869	9.56726
0.8695	-14.09912
0.87	-21.85364
0.8705	-21.55151
0.871	1.00708
0.8715	19.73877
0.872	-7.35168
0.8725	-77.84729
0.873	-97.98889
0.8735	-92.04712
0.874	-75.93384
0.8745	-64.55383
0.875	-35.44922
0.8755	-6.04248
0.876	25.177
0.8765	60.92834
0.877	76.43738
0.8775	80.36499
0.878	60.92834
0.8785	-3.22266
0.879	-39.37683
0.8795	-59.01489
0.88	-67.07153
0.8805	-65.25879
0.881	-77.84729
0.8815	-87.71667
0.882	-72.81189
0.8825	-55.08728
0.883	-25.07629
0.8835	5.23682
0.884	0.40283
0.8845	-16.3147
0.885	-4.73328
0.8855	18.63098
0.886	36.15417
0.8865	50.65613
0.887	63.44604
0.8875	77.14233
0.888	54.38232
0.8885	60.4248
0.889	81.06995
0.8895	107.05261
0.89	120.14465
0.8905	141.79688
0.891	131.12183
0.8915	79.66003
0.892	39.37683
0.8925	11.58142
0.893	10.0708
0.8935	19.73877
0.894	16.11328
0.8945	25.47913
0.895	30.11169
0.8955	42.49878
0.896	45.62073
0.8965	27.99683
0.897	13.49487
0.8975	-7.04956
0.898	-23.36426
0.8985	-59.71985
0.899	-111.58447
0.8995	-145.8252
0.9	-136.66077
0.9005	-110.6781
0.901	-77.14233
0.9015	-38.26904
0.902	17.42249
0.9025	56.19507
0.903	64.151
0.9035	19.73877
0.904	14.19983
0.9045	11.98425
0.905	13.99841
0.9055	29.50745
0.906	55.69153
0.9065	80.36499
0.907	92.44995
0.9075	92.75208
0.908	96.47827
0.9085	82.47986
0.909	69.68994
0.9095	61.23047
0.91	61.12976
0.9105	49.34692
0.911	45.2179
0.9115	31.32019
0.912	15.40833
0.9125	4.43115
0.913	7.95593
0.9135	15.1062
0.914	14.30054
0.9145	5.23682
0.915	-7.5531
0.9155	-12.18567
0.916	-7.95593
0.9165	-8.15735
0.917	-5.63965
0.9175	-1.61133
0.918	-1.00708
0.9185	6.2439
0.919	10.57434
0.9195	8.56018
0.92	0.20142
0.9205	-15.60974
0.921	-28.70178
0.9215	-109.97314
0.922	-211.99036
0.9225	-256.604
0.923	-256.70471
0.9235	-232.03125
0.924	-196.07849
0.9245	-150.8606
0.925	-121.15173
0.9255	-150.35706
0.926	-172.41211
0.9265	-150.55847
0.927	-98.59314
0.9275	-57.8064
0.928	-7.35168
0.9285	41.59241
0.929	81.67419
0.9295	106.14624
0.93	130.31616
0.9305	151.46484
0.931	168.88733
0.9315	174.62769
0.932	183.99353
0.9325	189.12964
0.933	176.54114
0.9335	152.1698
0.934	129.91333
0.9345	118.2312
0.935	112.18872
0.9355	102.72217
0.936	102.01721
0.9365	107.05261
0.937	100.30518
0.9375	94.56482
0.938	72.10693
0.9385	-20.1416
0.939	-135.75439
0.9395	-222.06116
0.94	-255.39551
0.9405	-252.7771
0.941	-223.57178
0.9415	-185.70557
0.942	-135.65369
0.9425	-90.43579
0.943	-69.68994
0.9435	-59.51843
0.944	-71.7041
0.9445	-69.89136
0.945	-53.57666
0.9455	-42.7002
0.946	-8.25806
0.9465	23.96851
0.947	51.96533
0.9475	87.01172
0.948	139.07776
0.9485	156.09741
0.949	152.37122
0.9495	162.03918
0.95	157.40662
0.9505	164.85901
0.951	159.42078
0.9515	149.55139
0.952	132.63245
0.9525	117.42554
0.953	87.21313
0.9535	64.151
0.954	50.95825
0.9545	38.77258
0.955	36.55701
0.9555	39.98108
0.956	30.31311
0.9565	26.08337
0.957	26.78833
0.9575	29.00391
0.958	14.60266
0.9585	-39.27612
0.959	-60.3241
0.9595	-55.08728
0.96	-45.41931
0.9605	-44.11011
0.961	-41.69312
0.9615	-36.25488
0.962	-15.20691
0.9625	-3.02124
0.963	-4.83398
0.9635	-7.45239
0.964	-16.91895
0.9645	-30.31311
0.965	-41.18958
0.9655	-54.38232
0.966	-53.17383
0.9665	-43.10303
0.967	-33.23364
0.9675	-14.70337
0.968	-7.35168
0.9685	0.60425
0.969	9.16443
0.9695	3.02124
0.97	11.68213
0.9705	17.22107
0.971	-53.07312
0.9715	-138.07068
0.972	-198.89832
0.9725	-236.96594
0.973	-254.79126
0.9735	-234.54895
0.974	-181.073
0.9745	-121.45386
0.975	-62.03613
0.9755	-3.32336
0.976	50.15259
0.9765	96.07544
0.977	138.17139
0.9775	172.21069
0.978	203.53088
0.9785	199.80469
0.979	137.36572
0.9795	55.89294
0.98	26.58691
0.9805	-1.10779
0.981	-9.56726
0.9815	-10.0708
0.982	17.6239
0.9825	57.8064
0.983	65.46021
0.9835	45.62073
0.984	36.05347
0.9845	-10.97717
0.985	-64.25171
0.9855	-108.46252
0.986	-104.83704
0.9865	-79.55933
0.987	-36.85913
0.9875	8.66089
0.988	54.88586
0.9885	100.50659
0.989	89.63013
0.9895	70.89844
0.99	75.83313
0.9905	99.90234
0.991	92.65137
0.9915	77.34375
0.992	75.53101
0.9925	61.12976
0.993	60.72693
0.9935	71.80481
0.994	86.30676
0.9945	93.35632
0.995	87.01172
0.9955	88.72375
0.996	85.80322
0.9965	85.29968
0.997	74.52393
0.9975	67.67578
0.998	69.58923
0.9985	84.19189
0.999	107.65686
0.9995	118.33191
1	122.36023
1.0005	121.45386
1.001	84.09119
1.0015	-11.88354
1.002	-91.745
1.0025	-129.40979
1.003	-144.01245
1.0035	-136.45935
1.004	-112.28943
1.0045	-77.24304
1.005	-43.20374
1.0055	-10.97717
1.006	17.92603
1.0065	34.84497
1.007	41.69312
1.0075	21.95435
1.008	-13.797
1.0085	-51.96533
1.009	-91.14075
1.0095	-116.72058
1.01	-119.94324
1.0105	-112.08801
1.011	-97.58606
1.0115	-86.91101
1.012	-51.86462
1.0125	-10.17151
1.013	35.14709
1.0135	60.4248
1.014	36.05347
1.0145	24.97559
1.015	49.54834
1.0155	71.60339
1.016	84.79614
1.0165	86.00464
1.017	95.47119
1.0175	96.47827
1.018	92.65137
1.0185	105.13916
1.019	102.21863
1.0195	87.91809
1.02	75.12817
1.0205	65.15808
1.021	55.18799
1.0215	39.27612
1.022	31.32019
1.0225	23.66638
1.023	13.99841
1.0235	7.85522
1.024	1.51062
1.0245	-0.80566
1.025	-13.19275
1.0255	-21.24939
1.026	-36.05347
1.0265	-32.22656
1.027	-29.60815
1.0275	-34.03931
1.028	-68.17932
1.0285	-128.70483
1.029	-182.88574
1.0295	-244.41833
1.03	-278.35693
1.0305	-274.63074
1.031	-239.08081
1.0315	-188.02185
1.032	-138.17139
1.0325	-88.22021
1.033	-35.2478
1.0335	14.09912
1.034	52.56958
1.0345	76.03455
1.035	90.63721
1.0355	106.9519
1.036	114.90784
1.0365	103.62854
1.037	85.60181
1.0375	67.37366
1.038	25.78125
1.0385	3.32336
1.039	-5.94177
1.0395	13.19275
1.04	26.58691
1.0405	59.01489
1.041	77.74658
1.0415	87.01172
1.042	103.42712
1.0425	111.8866
1.043	109.87244
1.0435	114.10217
1.044	128.50342
1.0445	127.79846
1.045	112.18872
1.0455	105.34058
1.046	82.17773
1.0465	68.68286
1.047	56.79932
1.0475	50.45471
1.048	52.97241
1.0485	47.33276
1.049	44.21082
1.0495	26.28479
1.05	-35.85205
1.0505	-71.40198
1.051	-87.81738
1.0515	-84.89685
1.052	-95.77332
1.0525	-177.54822
1.053	-268.38684
1.0535	-294.77234
1.054	-284.80225
1.0545	-230.41992
1.055	-167.57812
1.0555	-107.75757
1.056	-44.81506
1.0565	-0.90637
1.057	47.23206
1.0575	77.948
1.058	96.98181
1.0585	95.06836
1.059	106.04553
1.0595	107.85828
1.06	112.99438
1.0605	124.37439
1.061	126.58997
1.0615	125.68359
1.062	137.0636
1.0625	122.76306
1.063	60.22339
1.0635	30.01099
1.064	24.77417
1.0645	14.40125
1.065	21.65222
1.0655	6.04248
1.066	-66.26587
1.0665	-109.87244
1.067	-113.39722
1.0675	-88.82446
1.068	-47.93701
1.0685	-4.83398
1.069	8.7616
1.0695	13.29346
1.07	44.21082
1.0705	65.96375
1.071	70.89844
1.0715	76.43738
1.072	68.17932
1.0725	45.01648
1.073	21.95435
1.0735	14.90479
1.074	-9.56726
1.0745	-42.19666
1.075	-55.99365
1.0755	-66.16516
1.076	-75.53101
1.0765	-63.74817
1.077	-44.61365
1.0775	-21.75293
1.078	11.48071
1.0785	30.11169
1.079	40.2832
1.0795	48.94409
1.08	24.77417
1.0805	-5.84106
1.081	-24.47205
1.0815	-20.54443
1.082	-30.71594
1.0825	-52.26746
1.083	-59.61914
1.0835	-56.49719
1.084	-50.75684
1.0845	-86.30676
1.085	-157.80945
1.0855	-171.40503
1.086	-158.81653
1.0865	-133.84094
1.087	-83.58765
1.0875	-29.30603
1.088	23.26355
1.0885	83.78906
1.089	134.5459
1.0895	166.36963
1.09	193.86292
1.0905	216.22009
1.091	210.37903
1.0915	205.34363
1.092	192.55371
1.0925	140.8905
1.093	83.99048
1.0935	52.56958
1.094	43.20374
1.0945	41.69312
1.095	35.04639
1.0955	64.65454
1.096	102.82288
1.0965	118.33191
1.097	129.00696
1.0975	126.18713
1.098	88.82446
1.0985	61.6333
1.099	27.09045
1.0995	-27.29187
1.1	-49.14551
1.1005	-58.30994
1.101	-70.19348
1.1015	-62.13684
1.102	-57.00073
1.1025	-46.12427
1.103	-30.11169
1.1035	-31.92444
1.104	-78.95508
1.1045	-106.24695
1.105	-118.63403
1.1055	-155.19104
1.106	-194.36646
1.1065	-192.25159
1.107	-164.25476
1.1075	-121.9574
1.108	-70.3949
1.1085	-14.80408
1.109	38.16833
1.1095	88.32092
1.11	127.69775
1.1105	151.76697
1.111	155.9967
1.1115	143.91174
1.112	105.44128
1.1125	59.01489
1.113	44.91577
1.1135	24.37134
1.114	9.97009
1.1145	5.13611
1.115	17.72461
1.1155	30.2124
1.116	46.32568
1.1165	67.37366
1.117	87.41455
1.1175	86.40747
1.118	74.72534
1.1185	65.76233
1.119	69.68994
1.1195	74.2218
1.12	75.4303
1.1205	68.48145
1.121	55.49011
1.1215	45.52002
1.122	37.26196
1.1225	26.68762
1.123	13.69629
1.1235	10.67505
1.124	-17.22107
1.1245	-89.73083
1.125	-187.31689
1.1255	-300.10986
1.126	-350.56458
1.1265	-334.35059
1.127	-300.10986
1.1275	-265.06348
1.128	-209.27124
1.1285	-144.21387
1.129	-91.64429
1.1295	-36.15417
1.13	12.5885
1.1305	60.12268
1.131	100.70801
1.1315	118.43262
1.132	125.38147
1.1325	131.72607
1.133	131.52466
1.1335	124.87793
1.134	117.02271
1.1345	121.25244
1.135	115.81421
1.1355	107.25403
1.136	91.24146
1.1365	88.11951
1.137	79.55933
1.1375	67.17224
1.138	36.65771
1.1385	-1.51062
1.139	-39.27612
1.1395	-103.02429
1.14	-156.60095
1.1405	-210.88257
1.141	-223.26965
1.1415	-198.89832
1.142	-154.78821
1.1425	-106.64978
1.143	-75.93384
1.1435	-43.70728
1.144	-22.15576
1.1445	-16.11328
1.145	-5.23682
1.1455	22.96143
1.146	34.84497
1.1465	43.40515
1.147	50.15259
1.1475	54.28162
1.148	44.11011
1.1485	30.91736
1.149	16.61682
1.1495	33.83789
1.15	51.05896
1.1505	75.12817
1.151	93.85986
1.1515	112.49084
1.152	75.93384
1.1525	27.79541
1.153	8.8623
1.1535	2.92053
1.154	3.7262
1.1545	13.09204
1.155	43.80798
1.1555	71.7041
1.156	98.0896
1.1565	72.71118
1.157	41.79382
1.1575	39.57825
1.158	61.02905
1.1585	52.16675
1.159	30.01099
1.1595	31.72302
1.16	52.06604
1.1605	66.76941
1.161	74.52393
1.1615	85.09827
1.162	96.17615
1.1625	92.34924
1.163	86.50818
1.1635	66.36658
1.164	56.5979
1.1645	34.84497
1.165	5.0354
1.1655	-20.24231
1.166	-38.87329
1.1665	-43.40515
1.167	-51.46179
1.1675	-52.97241
1.168	-55.08728
1.1685	-41.99524
1.169	-32.52869
1.1695	-12.89062
1.17	9.16443
1.1705	47.63489
1.171	57.8064
1.1715	35.04639
1.172	35.95276
1.1725	64.95667
1.173	95.37048
1.1735	94.76624
1.174	56.5979
1.1745	13.797
1.175	-3.52478
1.1755	-80.36499
1.176	-144.6167
1.1765	-194.36646
1.177	-194.9707
1.1775	-161.53564
1.178	-113.80005
1.1785	-71.20056
1.179	-29.91028
1.1795	2.31628
1.18	35.2478
1.1805	62.33826
1.181	77.34375
1.1815	78.04871
1.182	61.02905
1.1825	46.82922
1.183	32.12585
1.1835	10.97717
1.184	3.02124
1.1845	2.21558
1.185	-6.64673
1.1855	-25.88196
1.186	-31.4209
1.1865	-34.24072
1.187	-23.46497
1.1875	-19.23523
1.188	-15.00549
1.1885	-18.42957
1.189	-7.35168
1.1895	-28.50037
1.19	-50.45471
1.1905	-47.7356
1.191	-16.11328
1.1915	25.68054
1.192	55.08728
1.1925	84.79614
1.193	108.66394
1.1935	125.28076
1.194	137.56714
1.1945	136.25793
1.195	117.72766
1.1955	100.70801
1.196	95.5719
1.1965	81.27136
1.197	65.3595
1.1975	57.8064
1.198	41.4917
1.1985	22.6593
1.199	-25.177
1.1995	-56.79932
1.2	-52.8717
1.2005	-50.95825
1.201	-40.2832
1.2015	-26.88904
1.202	-19.83948
1.2025	-8.35876
1.203	-2.41699
1.2035	-37.36267
1.204	-69.48853
1.2045	-56.90002
1.205	-33.53577
1.2055	-23.66638
1.206	-13.89771
1.2065	4.93469
1.207	11.48071
1.2075	26.98975
1.208	50.354
1.2085	75.4303
1.209	83.08411
1.2095	87.11243
1.21	66.46729
1.2105	31.4209
1.211	-3.02124
1.2115	-39.27612
1.212	-54.78516
1.2125	-81.7749
1.213	-115.91492
1.2135	-135.65369
1.214	-129.61121
1.2145	-111.08093
1.215	-101.61438
1.2155	-86.20605
1.216	-59.41772
1.2165	-25.78125
1.217	-32.62939
1.2175	-75.22888
1.218	-105.54199
1.2185	-124.17297
1.219	-124.17297
1.2195	-84.19189
1.22	-45.62073
1.2205	6.2439
1.221	45.3186
1.2215	74.42322
1.222	107.35474
1.2225	109.06677
1.223	88.11951
1.2235	72.81189
1.224	70.89844
1.2245	69.79065
1.225	56.39648
1.2255	51.86462
1.226	43.20374
1.2265	57.10144
1.227	67.27295
1.2275	81.27136
1.228	90.33508
1.2285	92.34924
1.229	94.3634
1.2295	99.90234
1.23	94.16199
1.2305	87.61597
1.231	92.14783
1.2315	99.70093
1.232	101.8158
1.2325	98.69385
1.233	57.70569
1.2335	-48.54126
1.234	-168.98804
1.2345	-232.43408
1.235	-229.41284
1.2355	-217.22717
1.236	-190.64026
1.2365	-126.08643
1.237	-59.92126
1.2375	7.15027
1.238	67.57507
1.2385	117.22412
1.239	152.1698
1.2395	165.76538
1.24	167.276
1.2405	154.08325
1.241	144.6167
1.2415	112.49084
1.242	70.19348
1.2425	44.81506
1.243	32.22656
1.2435	17.12036
1.244	16.91895
1.2445	16.81824
1.245	17.32178
1.2455	14.50195
1.246	5.53894
1.2465	9.16443
1.247	13.59558
1.2475	30.91736
1.248	38.26904
1.2485	46.32568
1.249	50.354
1.2495	56.79932
1.25	60.72693
1.2505	65.76233
1.251	62.53967
1.2515	56.69861
1.252	51.26038
1.2525	48.74268
1.253	44.41223
1.2535	37.96692
1.254	30.61523
1.2545	26.48621
1.255	11.38
1.2555	-19.23523
1.256	-39.67896
1.2565	-40.1825
1.257	-50.45471
1.2575	-57.10144
1.258	-67.17224
1.2585	-62.9425
1.259	-58.30994
1.2595	-51.5625
1.26	-56.29578
1.2605	-65.05737
1.261	-78.25012
1.2615	-78.85437
1.262	-73.61755
1.2625	-66.87012
1.263	-54.88586
1.2635	-53.67737
1.264	-41.18958
1.2645	-31.52161
1.265	-20.94727
1.2655	-8.96301
1.266	10.67505
1.2665	18.42957
1.267	19.43665
1.2675	28.09753
1.268	27.49329
1.2685	26.78833
1.269	17.42249
1.2695	18.22815
1.27	-14.60266
1.2705	-91.34216
1.271	-150.75989
1.2715	-166.57104
1.272	-146.93298
1.2725	-123.87085
1.273	-84.89685
1.2735	-35.65063
1.274	8.8623
1.2745	39.77966
1.275	56.90002
1.2755	25.57983
1.276	-20.74585
1.2765	-77.44446
1.277	-236.36169
1.2775	-374.93591
1.278	-467.8894
1.2785	-508.97827
1.279	-456.5094
1.2795	-359.93042
1.28	-261.84082
1.2805	-176.74255
1.281	-70.29419
1.2815	44.51294
1.282	130.61829
1.2825	183.79211
1.283	207.05566
1.2835	238.47656
1.284	258.81958
1.2845	260.22949
1.285	262.04224
1.2855	266.27197
1.286	294.87305
1.2865	308.46863
1.287	304.13818
1.2875	303.73535
1.288	295.67871
1.2885	284.09729
1.289	253.58276
1.2895	208.46558
1.29	180.77087
1.2905	158.71582
1.291	147.33582
1.2915	140.38696
1.292	126.18713
1.2925	73.51685
1.293	-25.68054
1.2935	-132.43103
1.294	-178.35388
1.2945	-184.8999
1.295	-163.75122
1.2955	-123.36731
1.296	-82.47986
1.2965	-36.55701
1.297	12.08496
1.2975	45.41931
1.298	76.03455
1.2985	77.04163
1.299	76.43738
1.2995	80.86853
1.3	75.93384
1.3005	42.7002
1.301	13.49487
1.3015	11.48071
1.302	9.76868
1.3025	13.19275
1.303	10.37292
1.3035	14.30054
1.304	30.61523
1.3045	48.33984
1.305	55.89294
1.3055	60.22339
1.306	57.30286
1.3065	19.43665
1.307	-33.9386
1.3075	-39.27612
1.308	-32.7301
1.3085	-15.71045
1.309	-2.31628
1.3095	4.12903
1.31	-3.52478
1.3105	-10.37292
1.311	2.41699
1.3115	7.75452
1.312	13.39417
1.3125	23.76709
1.313	25.78125
1.3135	1.2085
1.314	-30.01099
1.3145	-67.27295
1.315	-105.84412
1.3155	-128.70483
1.316	-147.23511
1.3165	-157.80945
1.317	-151.36414
1.3175	-142.40112
1.318	-129.61121
1.3185	-102.21863
1.319	-73.21472
1.3195	-52.56958
1.32	-32.42798
1.3205	-23.96851
1.321	-11.58142
1.3215	-11.58142
1.322	-14.80408
1.3225	-24.27063
1.323	-42.90161
1.3235	-57.20215
1.324	-56.29578
1.3245	-60.92834
1.325	-93.85986
1.3255	-116.11633
1.326	-173.21777
1.3265	-197.18628
1.327	-186.20911
1.3275	-140.99121
1.328	-73.31543
1.3285	-29.30603
1.329	12.18567
1.3295	61.6333
1.33	107.05261
1.3305	124.97864
1.331	125.58289
1.3315	130.51758
1.332	119.84253
1.3325	111.58447
1.333	92.44995
1.3335	80.96924
1.334	61.23047
1.3345	1.2085
1.335	-38.87329
1.3355	-65.05737
1.336	-63.44604
1.3365	-52.56958
1.337	-27.99683
1.3375	12.5885
1.338	49.64905
1.3385	82.07703
1.339	115.20996
1.3395	148.3429
1.34	175.83618
1.3405	191.54663
1.341	201.81885
1.3415	223.57178
1.342	229.01001
1.3425	201.31531
1.343	102.52075
1.3435	23.76709
1.344	-8.25806
1.3445	-4.83398
1.345	4.63257
1.3455	20.64514
1.346	36.65771
1.3465	62.13684
1.347	72.40906
1.3475	83.38623
1.348	89.12659
1.3485	92.34924
1.349	94.86694
1.3495	82.88269
1.35	63.54675
1.3505	50.05188
1.351	25.57983
1.3515	-10.57434
1.352	-41.4917
1.3525	-55.89294
1.353	-60.4248
1.3535	-49.95117
1.354	-32.7301
1.3545	-32.42798
1.355	-47.33276
1.3555	-45.01648
1.356	-50.95825
1.3565	-73.11401
1.357	-89.02588
1.3575	-98.49243
1.358	-102.21863
1.3585	-88.82446
1.359	-74.72534
1.3595	-52.97241
1.36	-31.62231
1.3605	-14.40125
1.361	1.71204
1.3615	21.65222
1.362	35.85205
1.3625	8.7616
1.363	-78.04871
1.3635	-137.96997
1.364	-143.00537
1.3645	-117.02271
1.365	-80.16357
1.3655	-75.32959
1.366	-81.7749
1.3665	-66.6687
1.367	-38.06763
1.3675	1.00708
1.368	27.49329
1.3685	55.89294
1.369	32.62939
1.3695	-45.92285
1.37	-84.79614
1.3705	-87.91809
1.371	-61.43188
1.3715	-37.96692
1.372	-6.64673
1.3725	18.53027
1.373	42.90161
1.3735	81.7749
1.374	107.15332
1.3745	118.13049
1.375	109.06677
1.3755	98.79456
1.376	112.39014
1.3765	112.89368
1.377	114.4043
1.3775	121.85669
1.378	91.64429
1.3785	-0.90637
1.379	-55.59082
1.3795	-83.68835
1.38	-64.05029
1.3805	-33.9386
1.381	2.21558
1.3815	32.52869
1.382	49.74976
1.3825	78.55225
1.383	110.57739
1.3835	132.83386
1.384	145.62378
1.3845	151.76697
1.385	143.81104
1.3855	129.40979
1.386	103.32642
1.3865	67.67578
1.387	41.89453
1.3875	33.63647
1.388	25.47913
1.3885	13.99841
1.389	9.36584
1.3895	10.47363
1.39	4.63257
1.3905	-2.31628
1.391	-83.58765
1.3915	-198.6969
1.392	-239.58435
1.3925	-233.23975
1.393	-235.55603
1.3935	-213.60168
1.394	-160.32715
1.3945	-87.31384
1.395	-18.42957
1.3955	41.4917
1.396	50.15259
1.3965	57.8064
1.397	87.01172
1.3975	112.69226
1.398	112.49084
1.3985	107.85828
1.399	105.13916
1.3995	94.06128
1.4	82.58057
1.4005	74.62463
1.401	68.88428
1.4015	60.02197
1.402	60.82764
1.4025	54.78516
1.403	51.86462
1.4035	55.18799
1.404	57.40356
1.4045	56.5979
1.405	60.82764
1.4055	62.03613
1.406	56.19507
1.4065	33.73718
1.407	20.54443
1.4075	18.12744
1.408	14.70337
1.4085	9.26514
1.409	-12.28638
1.4095	-33.03223
1.41	-65.56091
1.4105	-83.48694
1.411	-87.11243
1.4115	-90.5365
1.412	-110.47668
1.4125	-124.07227
1.413	-126.28784
1.4135	-109.57031
1.414	-81.67419
1.4145	-62.53967
1.415	-36.05347
1.4155	-6.84814
1.416	40.98816
1.4165	80.66711
1.417	106.8512
1.4175	125.88501
1.418	103.22571
1.4185	14.60266
1.419	-80.66711
1.4195	-120.95032
1.42	-135.75439
1.4205	-162.13989
1.421	-161.0321
1.4215	-118.53333
1.422	-65.46021
1.4225	-17.52319
1.423	32.83081
1.4235	74.82605
1.424	103.22571
1.4245	130.71899
1.425	144.51599
1.4255	149.95422
1.426	138.17139
1.4265	125.98572
1.427	111.68518
1.4275	93.35632
1.428	79.2572
1.4285	73.91968
1.429	75.73242
1.4295	79.55933
1.43	27.79541
1.4305	-19.33594
1.431	-19.63806
1.4315	-13.99841
1.432	-13.29346
1.4325	-3.22266
1.433	29.30603
1.4335	62.13684
1.434	79.15649
1.4345	81.17065
1.435	82.88269
1.4355	70.19348
1.436	52.06604
1.4365	27.39258
1.437	3.02124
1.4375	-2.11487
1.438	-10.67505
1.4385	-23.76709
1.439	-33.63647
1.4395	-36.35559
1.44	-26.98975
1.4405	-13.59558
1.441	3.12195
1.4415	21.75293
1.442	-16.41541
1.4425	-26.68762
1.443	-29.20532
1.4435	-15.71045
1.444	-14.70337
1.4445	-8.05664
1.445	-3.22266
1.4455	11.98425
1.446	13.49487
1.4465	2.11487
1.447	-26.88904
1.4475	-52.67029
1.448	-61.23047
1.4485	-52.46887
1.449	-54.38232
1.4495	-68.68286
1.45	-196.88416
1.4505	-364.16016
1.451	-429.41895
1.4515	-419.75098
1.452	-367.08069
1.4525	-286.41357
1.453	-197.99194
1.4535	-100.20447
1.454	-8.15735
1.4545	77.74658
1.455	126.89209
1.4555	177.74963
1.456	228.70789
1.4565	263.04932
1.457	262.74719
1.4575	222.96753
1.458	139.27917
1.4585	71.30127
1.459	48.44055
1.4595	40.38391
1.46	59.31702
1.4605	90.93933
1.461	128.20129
1.4615	147.73865
1.462	138.57422
1.4625	115.00854
1.463	67.8772
1.4635	34.94568
1.464	10.67505
1.4645	-4.73328
1.465	-22.25647
1.4655	-45.52002
1.466	-46.12427
1.4665	-46.22498
1.467	-46.42639
1.4675	-36.15417
1.468	-13.09204
1.4685	24.57275
1.469	52.36816
1.4695	61.43188
1.47	71.7041
1.4705	72.20764
1.471	66.06445
1.4715	68.17932
1.472	88.82446
1.4725	105.23987
1.473	102.11792
1.4735	94.56482
1.474	113.1958
1.4745	120.24536
1.475	119.74182
1.4755	114.70642
1.476	102.62146
1.4765	76.53809
1.477	58.71277
1.4775	26.88904
1.478	15.00549
1.4785	-1.81274
1.479	-22.86072
1.4795	-53.87878
1.48	-126.38855
1.4805	-204.33655
1.481	-244.51904
1.4815	-283.39233
1.482	-318.33801
1.4825	-301.62048
1.483	-266.27197
1.4835	-239.08081
1.484	-273.01941
1.4845	-278.25623
1.485	-237.77161
1.4855	-161.43494
1.486	-73.51685
1.4865	-3.52478
1.487	72.81189
1.4875	134.5459
1.488	184.49707
1.4885	215.61584
1.489	243.91479
1.4895	267.48047
1.49	271.00525
1.4905	255.59692
1.491	224.27673
1.4915	185.30273
1.492	158.21228
1.4925	125.18005
1.493	105.54199
1.4935	78.14941
1.494	31.92444
1.4945	-26.3855
1.495	-89.52942
1.4955	-156.80237
1.496	-157.2052
1.4965	-129.5105
1.497	-97.68677
1.4975	-49.44763
1.498	-7.65381
1.4985	48.33984
1.499	92.14783
1.4995	117.72766
1.5	125.88501
1.5005	131.22253
1.501	143.60962
1.5015	141.39404
1.502	136.86218
1.5025	126.9928
1.503	99.19739
1.5035	72.50977
1.504	49.44763
1.5045	37.16125
1.505	34.84497
1.5055	18.8324
1.506	2.21558
1.5065	-21.14868
1.507	-35.14709
1.5075	-63.54675
1.508	-86.50818
1.5085	-85.70251
1.509	-71.60339
1.5095	-98.29102
1.51	-150.55847
1.5105	-148.24219
1.511	-116.922
1.5115	-90.33508
1.512	-45.72144
1.5125	-9.97009
1.513	31.92444
1.5135	58.71277
1.514	78.95508
1.5145	85.90393
1.515	72.20764
1.5155	50.85754
1.516	28.80249
1.5165	9.97009
1.517	-11.58142
1.5175	-10.87646
1.518	-21.65222
1.5185	-33.03223
1.519	-36.55701
1.5195	-24.57275
1.52	-16.21399
1.5205	9.76868
1.521	19.03381
1.5215	22.86072
1.522	11.88354
1.5225	-5.63965
1.523	-14.19983
1.5235	-16.71753
1.524	-19.43665
1.5245	-32.62939
1.525	-45.52002
1.5255	-55.3894
1.526	-47.33276
1.5265	-57.20215
1.527	-80.06287
1.5275	-81.17065
1.528	-62.33826
1.5285	-57.50427
1.529	-37.66479
1.5295	5.74036
1.53	44.91577
1.5305	75.32959
1.531	97.68677
1.5315	108.66394
1.532	72.40906
1.5325	-0.10071
1.533	-49.0448
1.5335	-99.60022
1.534	-136.25793
1.5345	-157.60803
1.535	-166.0675
1.5355	-189.53247
1.536	-210.0769
1.5365	-192.05017
1.537	-150.65918
1.5375	-81.7749
1.538	-8.56018
1.5385	37.96692
1.539	78.85437
1.5395	115.41138
1.54	143.10608
1.5405	179.15955
1.541	191.04309
1.5415	201.91956
1.542	193.25867
1.5425	185.00061
1.543	167.88025
1.5435	131.42395
1.544	107.25403
1.5445	82.58057
1.545	73.01331
1.5455	56.5979
1.546	55.89294
1.5465	25.27771
1.547	-25.177
1.5475	-41.69312
1.548	-38.26904
1.5485	-23.46497
1.549	-30.91736
1.5495	-52.36816
1.55	-52.67029
1.5505	-16.51611
1.551	27.09045
1.5515	48.64197
1.552	66.87012
1.5525	79.2572
1.553	94.96765
1.5535	95.67261
1.554	103.32642
1.5545	89.52942
1.555	81.06995
1.5555	75.02747
1.556	67.57507
1.5565	46.12427
1.557	-31.32019
1.5575	-122.56165
1.558	-187.01477
1.5585	-195.17212
1.559	-196.98486
1.5595	-163.14697
1.56	-113.49792
1.5605	-75.53101
1.561	-29.70886
1.5615	-90.33508
1.562	-213.70239
1.5625	-244.51904
1.563	-251.87073
1.5635	-246.23108
1.564	-209.87549
1.5645	-152.77405
1.565	-94.96765
1.5655	-37.7655
1.566	14.80408
1.5665	63.14392
1.567	117.02271
1.5675	156.60095
1.568	184.29565
1.5685	203.63159
1.569	207.25708
1.5695	165.66467
1.57	111.18164
1.5705	59.01489
1.571	8.25806
1.5715	-45.01648
1.572	-122.25952
1.5725	-174.72839
1.573	-178.5553
1.5735	-146.63086
1.574	-98.29102
1.5745	-44.81506
1.575	18.42957
1.5755	78.25012
1.576	130.01404
1.5765	177.74963
1.577	214.30664
1.5775	233.54187
1.578	232.73621
1.5785	212.5946
1.579	181.87866
1.5795	168.68591
1.58	166.87317
1.5805	136.25793
1.581	111.08093
1.5815	69.28711
1.582	35.75134
1.5825	26.78833
1.583	19.13452
1.5835	7.85522
1.584	-2.81982
1.5845	-5.23682
1.585	-2.5177
1.5855	-5.53894
1.586	-9.46655
1.5865	-11.98425
1.587	-14.30054
1.5875	-8.7616
1.588	0.70496
1.5885	-15.91187
1.589	-19.53735
1.5895	-12.68921
1.59	-14.80408
1.5905	-10.97717
1.591	5.84106
1.5915	29.00391
1.592	63.94958
1.5925	85.90393
1.593	85.80322
1.5935	43.70728
1.594	-12.18567
1.5945	-63.84888
1.595	-76.13525
1.5955	-55.89294
1.596	-40.2832
1.5965	-11.68213
1.597	4.02832
1.5975	-14.30054
1.598	-56.5979
1.5985	-94.96765
1.599	-128.80554
1.5995	-133.3374
1.6	-117.02271
1.6005	-82.07703
1.601	-34.14001
1.6015	20.1416
1.602	51.96533
1.6025	84.99756
1.603	117.32483
1.6035	137.16431
1.604	158.21228
1.6045	165.06042
1.605	152.06909
1.6055	134.44519
1.606	129.5105
1.6065	120.34607
1.607	98.29102
1.6075	72.20764
1.608	48.94409
1.6085	37.56409
1.609	33.43506
1.6095	23.26355
1.61	5.43823
1.6105	-11.78284
1.611	-12.38708
1.6115	-18.12744
1.612	-13.69629
1.6125	-14.40125
1.613	-13.89771
1.6135	-10.97717
1.614	-30.91736
1.6145	-117.12341
1.615	-170.90149
1.6155	-173.41919
1.616	-160.32715
1.6165	-138.57422
1.617	-121.65527
1.6175	-133.63953
1.618	-141.49475
1.6185	-124.87793
1.619	-103.02429
1.6195	-104.3335
1.62	-115.51208
1.6205	-156.39954
1.621	-164.35547
1.6215	-144.01245
1.622	-166.36963
1.6225	-178.25317
1.623	-151.66626
1.6235	-115.7135
1.624	-85.40039
1.6245	-58.41064
1.625	-40.1825
1.6255	-22.05505
1.626	8.15735
1.6265	40.08179
1.627	87.51526
1.6275	141.09192
1.628	183.99353
1.6285	203.63159
1.629	221.75903
1.6295	223.57178
1.63	210.27832
1.6305	185.50415
1.631	164.35547
1.6315	162.13989
1.632	164.85901
1.6325	147.94006
1.633	123.87085
1.6335	101.61438
1.634	84.59473
1.6345	84.79614
1.635	86.60889
1.6355	90.33508
1.636	88.11951
1.6365	67.8772
1.637	3.92761
1.6375	-81.47278
1.638	-132.22961
1.6385	-146.12732
1.639	-163.04626
1.6395	-156.50024
1.64	-144.01245
1.6405	-118.53333
1.641	-97.08252
1.6415	-72.20764
1.642	-43.70728
1.6425	-10.87646
1.643	26.18408
1.6435	59.1156
1.644	73.91968
1.6445	101.8158
1.645	107.25403
1.6455	110.07385
1.646	120.95032
1.6465	132.63245
1.647	137.36572
1.6475	145.52307
1.648	137.46643
1.6485	135.25085
1.649	120.34607
1.6495	103.72925
1.65	86.10535
1.6505	69.48853
1.651	48.74268
1.6515	38.06763
1.652	11.2793
1.6525	-9.97009
1.653	-31.01807
1.6535	-43.50586
1.654	-58.51135
1.6545	-75.53101
1.655	-128.70483
1.6555	-162.44202
1.656	-175.93689
1.6565	-156.90308
1.657	-129.91333
1.6575	-82.68127
1.658	-52.46887
1.6585	-18.93311
1.659	-3.22266
1.6595	-14.30054
1.66	-29.70886
1.6605	-32.02515
1.661	-27.99683
1.6615	-10.17151
1.662	1.61133
1.6625	22.25647
1.663	31.4209
1.6635	41.4917
1.664	59.21631
1.6645	74.42322
1.665	71.30127
1.6655	78.75366
1.666	78.95508
1.6665	70.19348
1.667	57.10144
1.6675	48.54126
1.668	35.04639
1.6685	30.01099
1.669	39.27612
1.6695	52.56958
1.67	58.81348
1.6705	57.30286
1.671	53.77808
1.6715	42.90161
1.672	27.89612
1.6725	25.88196
1.673	14.40125
1.6735	0.90637
1.674	-3.12195
1.6745	-12.78992
1.675	-14.60266
1.6755	-13.59558
1.676	-9.16443
1.6765	-3.12195
1.677	-11.88354
1.6775	-13.99841
1.678	-15.20691
1.6785	-22.55859
1.679	-34.44214
1.6795	-47.93701
1.68	-57.10144
1.6805	-52.06604
1.681	-41.59241
1.6815	-39.67896
1.682	-29.50745
1.6825	-13.99841
1.683	-2.41699
1.6835	12.78992
1.684	2.21558
1.6845	1.71204
1.685	-3.22266
1.6855	-8.45947
1.686	-22.15576
1.6865	-25.47913
1.687	-22.96143
1.6875	-27.79541
1.688	-30.51453
1.6885	-21.85364
1.689	-10.37292
1.6895	-0.80566
1.69	8.56018
1.6905	7.45239
1.691	18.8324
1.6915	24.16992
1.692	26.78833
1.6925	-2.81982
1.693	-97.08252
1.6935	-156.39954
1.694	-151.56555
1.6945	-132.93457
1.695	-130.92041
1.6955	-170.09583
1.696	-189.43176
1.6965	-185.00061
1.697	-158.5144
1.6975	-124.27368
1.698	-77.34375
1.6985	-43.40515
1.699	-6.94885
1.6995	32.83081
1.7	61.93542
1.7005	77.948
1.701	85.5011
1.7015	99.80164
1.702	100.50659
1.7025	96.7804
1.703	97.78748
1.7035	63.44604
1.704	11.2793
1.7045	-11.58142
1.705	-14.09912
1.7055	-4.02832
1.706	2.81982
1.7065	22.25647
1.707	53.37524
1.7075	86.91101
1.708	110.37598
1.7085	131.82678
1.709	149.75281
1.7095	146.12732
1.71	148.3429
1.7105	127.59705
1.711	69.58923
1.7115	5.43823
1.712	-31.72302
1.7125	-49.54834
1.713	-39.37683
1.7135	-23.76709
1.714	6.44531
1.7145	52.26746
1.715	83.78906
1.7155	112.08801
1.716	114.20288
1.7165	123.56873
1.717	123.2666
1.7175	123.87085
1.718	107.45544
1.7185	90.83862
1.719	33.63647
1.7195	-52.56958
1.72	-114.505
1.7205	-152.57263
1.721	-165.06042
1.7215	-177.24609
1.722	-165.06042
1.7225	-136.96289
1.723	-100.90942
1.7235	-57.20215
1.724	-21.24939
1.7245	14.19983
1.725	47.03064
1.7255	72.9126
1.726	91.24146
1.7265	91.64429
1.727	90.73792
1.7275	63.64746
1.728	37.56409
1.7285	0.60425
1.729	-33.13293
1.7295	-46.92993
1.73	-46.32568
1.7305	-49.64905
1.731	-49.0448
1.7315	-45.2179
1.732	-30.91736
1.7325	-29.60815
1.733	-10.87646
1.7335	13.39417
1.734	33.23364
1.7345	61.23047
1.735	84.69543
1.7355	82.68127
1.736	79.15649
1.7365	65.96375
1.737	29.10461
1.7375	-30.2124
1.738	-110.6781
1.7385	-144.41528
1.739	-145.42236
1.7395	-129.61121
1.74	-108.86536
1.7405	-63.44604
1.741	-25.47913
1.7415	21.04797
1.742	71.20056
1.7425	123.2666
1.743	148.94714
1.7435	144.51599
1.744	143.4082
1.7445	137.0636
1.745	125.18005
1.7455	110.77881
1.746	89.83154
1.7465	81.67419
1.747	61.6333
1.7475	22.96143
1.748	-10.17151
1.7485	-25.78125
1.749	-66.46729
1.7495	-144.71741
1.75	-192.75513
1.7505	-183.18787
1.751	-154.88892
1.7515	-129.20837
1.752	-92.65137
1.7525	-71.7041
1.753	-74.62463
1.7535	-47.33276
1.754	-9.66797
1.7545	19.13452
1.755	42.7002
1.7555	73.91968
1.756	100.70801
1.7565	123.46802
1.757	130.92041
1.7575	122.66235
1.758	100.50659
1.7585	81.67419
1.759	46.22498
1.7595	8.45947
1.76	-23.06213
1.7605	-29.91028
1.761	-31.82373
1.7615	-30.2124
1.762	-28.39966
1.7625	-7.25098
1.763	8.96301
1.7635	28.80249
1.764	30.81665
1.7645	39.07471
1.765	41.69312
1.7655	38.06763
1.766	38.67188
1.7665	51.15967
1.767	64.25171
1.7675	77.14233
1.768	75.12817
1.7685	62.13684
1.769	52.16675
1.7695	47.93701
1.77	54.48303
1.7705	53.57666
1.771	47.63489
1.7715	32.83081
1.772	25.47913
1.7725	15.00549
1.773	16.3147
1.7735	18.42957
1.774	12.48779
1.7745	14.50195
1.775	15.71045
1.7755	0.50354
1.776	-8.15735
1.7765	-11.2793
1.777	-10.47363
1.7775	-11.98425
1.778	-8.15735
1.7785	-4.83398
1.779	-11.68213
1.7795	-16.61682
1.78	-19.13452
1.7805	-21.24939
1.781	-22.6593
1.7815	-38.26904
1.782	-44.51294
1.7825	-48.33984
1.783	-38.36975
1.7835	-41.69312
1.784	-49.64905
1.7845	-54.28162
1.785	-62.13684
1.7855	-63.74817
1.786	-57.50427
1.7865	-62.8418
1.787	-52.36816
1.7875	-58.30994
1.788	-75.02747
1.7885	-79.86145
1.789	-100.80872
1.7895	-136.76147
1.79	-166.0675
1.7905	-165.36255
1.791	-126.38855
1.7915	-91.54358
1.792	-48.33984
1.7925	4.33044
1.793	46.5271
1.7935	77.948
1.794	96.27686
1.7945	107.05261
1.795	96.57898
1.7955	88.82446
1.796	86.20605
1.7965	86.30676
1.797	76.03455
1.7975	74.42322
1.798	69.1864
1.7985	60.4248
1.799	43.90869
1.7995	10.17151
1.8	-0.20142
1.8005	-0.90637
1.801	-5.33752
1.8015	-7.25098
1.802	-8.35876
1.8025	-1.40991
1.803	4.43115
1.8035	11.2793
1.804	22.25647
1.8045	29.00391
1.805	38.26904
1.8055	50.45471
1.806	49.0448
1.8065	43.30444
1.807	33.73718
1.8075	34.44214
1.808	37.7655
1.8085	40.38391
1.809	42.59949
1.8095	40.68604
1.81	40.1825
1.8105	43.80798
1.811	42.39807
1.8115	35.95276
1.812	19.53735
1.8125	15.50903
1.813	7.75452
1.8135	8.45947
1.814	5.53894
1.8145	15.30762
1.815	13.09204
1.8155	4.53186
1.816	-4.12903
1.8165	-4.22974
1.817	-4.53186
1.8175	-7.15027
1.818	-10.17151
1.8185	-9.56726
1.819	-27.79541
1.8195	-74.42322
1.82	-107.35474
1.8205	-116.82129
1.821	-107.75757
1.8215	-112.89368
1.822	-105.74341
1.8225	-136.45935
1.823	-172.41211
1.8235	-174.42627
1.824	-182.78503
1.8245	-172.81494
1.825	-134.44519
1.8255	-95.26978
1.826	-42.49878
1.8265	14.19983
1.827	65.15808
1.8275	107.15332
1.828	144.21387
1.8285	164.55688
1.829	176.64185
1.8295	180.16663
1.83	173.01636
1.8305	160.32715
1.831	150.15564
1.8315	141.29333
1.832	102.42004
1.8325	28.9032
1.833	-12.38708
1.8335	-29.50745
1.834	-34.54285
1.8345	-39.07471
1.835	-68.98499
1.8355	-67.57507
1.836	-49.54834
1.8365	-24.57275
1.837	-0.60425
1.8375	20.24231
1.838	26.28479
1.8385	16.21399
1.839	-17.32178
1.8395	-43.10303
1.84	-37.46338
1.8405	-35.54993
1.841	-37.06055
1.8415	-29.91028
1.842	-9.86938
1.8425	26.78833
1.843	62.43896
1.8435	98.0896
1.844	119.13757
1.8445	115.51208
1.845	109.77173
1.8455	93.35632
1.846	81.87561
1.8465	78.14941
1.847	76.63879
1.8475	71.09985
1.848	69.79065
1.8485	70.19348
1.849	65.3595
1.8495	50.95825
1.85	38.26904
1.8505	31.21948
1.851	19.23523
1.8515	5.53894
1.852	-8.96301
1.8525	-15.91187
1.853	-21.04797
1.8535	-18.93311
1.854	-17.52319
1.8545	-17.01965
1.855	-13.39417
1.8555	-15.60974
1.856	-17.42249
1.8565	-13.99841
1.857	-9.76868
1.8575	-3.22266
1.858	-7.35168
1.8585	-7.5531
1.859	-7.35168
1.8595	-6.84814
1.86	2.5177
1.8605	13.797
1.861	24.37134
1.8615	21.14868
1.862	4.43115
1.8625	-29.91028
1.863	-52.26746
1.8635	-50.55542
1.864	-46.82922
1.8645	-47.13135
1.865	-42.39807
1.8655	-34.24072
1.866	-19.53735
1.8665	-23.76709
1.867	-24.87488
1.8675	-26.28479
1.868	-27.39258
1.8685	-5.63965
1.869	-0.80566
1.8695	0.20142
1.87	1.61133
1.8705	4.93469
1.871	9.66797
1.8715	7.85522
1.872	15.50903
1.8725	32.32727
1.873	38.67188
1.8735	21.45081
1.874	1.71204
1.8745	-18.53027
1.875	-23.16284
1.8755	-34.94568
1.876	-35.34851
1.8765	-27.99683
1.877	-12.78992
1.8775	-6.44531
1.878	-0.50354
1.8785	7.35168
1.879	20.84656
1.8795	40.38391
1.88	57.40356
1.8805	67.17224
1.881	69.89136
1.8815	61.73401
1.882	50.95825
1.8825	47.23206
1.883	61.6333
1.8835	63.64746
1.884	53.97949
1.8845	51.15967
1.885	51.76392
1.8855	48.64197
1.886	46.32568
1.8865	37.16125
1.887	32.22656
1.8875	5.43823
1.888	-8.05664
1.8885	-14.70337
1.889	-12.5885
1.8895	-5.63965
1.89	-1.61133
1.8905	5.94177
1.891	6.2439
1.8915	9.46655
1.892	19.53735
1.8925	26.98975
1.893	19.83948
1.8935	14.90479
1.894	-23.46497
1.8945	-63.64746
1.895	-79.96216
1.8955	-82.17773
1.896	-74.2218
1.8965	-63.74817
1.897	-54.0802
1.8975	-45.3186
1.898	-24.47205
1.8985	-13.59558
1.899	-4.63257
1.8995	8.66089
1.9	16.3147
1.9005	25.98267
1.901	31.32019
1.9015	36.75842
1.902	29.91028
1.9025	12.38708
1.903	13.797
1.9035	11.58142
1.904	14.50195
1.9045	9.86938
1.905	19.33594
1.9055	19.03381
1.906	17.6239
1.9065	2.81982
1.907	4.83398
1.9075	-11.07788
1.908	-14.90479
1.9085	-17.12036
1.909	-13.69629
1.9095	-9.66797
1.91	-8.7616
1.9105	-5.33752
1.911	-1.81274
1.9115	-4.83398
1.912	-9.76868
1.9125	-7.04956
1.913	2.5177
1.9135	0.50354
1.914	0.40283
1.9145	-3.8269
1.915	-13.89771
1.9155	-20.94727
1.916	-24.77417
1.9165	-23.06213
1.917	-24.57275
1.9175	-32.93152
1.918	-67.17224
1.9185	-82.17773
1.919	-69.1864
1.9195	-50.55542
1.92	-33.63647
1.9205	-32.62939
1.921	-26.88904
1.9215	-3.02124
1.922	13.39417
1.9225	51.5625
1.923	76.84021
1.9235	88.0188
1.924	87.21313
1.9245	93.15491
1.925	97.98889
1.9255	91.64429
1.926	70.59631
1.9265	55.79224
1.927	38.36975
1.9275	36.85913
1.928	-3.32336
1.9285	-62.74109
1.929	-91.94641
1.9295	-106.64978
1.93	-98.29102
1.9305	-73.01331
1.931	-43.80798
1.9315	-31.92444
1.932	-65.46021
1.9325	-67.67578
1.933	-53.77808
1.9335	-20.74585
1.934	15.00549
1.9345	61.93542
1.935	81.97632
1.9355	103.52783
1.936	118.83545
1.9365	110.27527
1.937	108.76465
1.9375	108.46252
1.938	115.91492
1.9385	107.35474
1.939	93.85986
1.9395	75.4303
1.94	46.62781
1.9405	40.68604
1.941	39.07471
1.9415	26.68762
1.942	15.20691
1.9425	9.36584
1.943	10.77576
1.9435	6.54602
1.944	0.90637
1.9445	-13.39417
1.945	-9.56726
1.9455	-11.68213
1.946	-17.82532
1.9465	-12.48779
1.947	-16.51611
1.9475	-18.53027
1.948	-21.45081
1.9485	-18.02673
1.949	-24.47205
1.9495	-24.57275
1.95	-24.77417
1.9505	-29.00391
1.951	-27.19116
1.9515	-33.23364
1.952	-27.99683
1.9525	-22.76001
1.953	-23.36426
1.9535	-23.96851
1.954	-30.11169
1.9545	-32.93152
1.955	-46.72852
1.9555	-51.36108
1.956	-50.95825
1.9565	-46.02356
1.957	-36.95984
1.9575	-28.9032
1.958	-21.65222
1.9585	-6.14319
1.959	-2.61841
1.9595	9.46655
1.96	20.34302
1.9605	19.94019
1.961	28.9032
1.9615	25.98267
1.962	29.70886
1.9625	24.27063
1.963	20.94727
1.9635	24.06921
1.964	18.93311
1.9645	12.68921
1.965	13.49487
1.9655	8.56018
1.966	11.68213
1.9665	9.76868
1.967	6.94885
1.9675	3.42407
1.968	6.94885
1.9685	-1.2085
1.969	-13.89771
1.9695	-32.02515
1.97	-44.81506
1.9705	-44.81506
1.971	-39.57825
1.9715	-45.2179
1.972	-44.31152
1.9725	-43.60657
1.973	-30.2124
1.9735	-15.60974
1.974	-4.22974
1.9745	8.25806
1.975	23.8678
1.9755	32.52869
1.976	38.06763
1.9765	51.36108
1.977	59.61914
1.9775	61.6333
1.978	65.46021
1.9785	63.64746
1.979	42.59949
1.9795	20.34302
1.98	10.57434
1.9805	-1.61133
1.981	-4.22974
1.9815	-4.12903
1.982	-0.60425
1.9825	2.81982
1.983	10.67505
1.9835	16.21399
1.984	14.30054
1.9845	3.02124
1.985	0.80566
1.9855	-3.02124
1.986	-17.01965
1.9865	-23.46497
1.987	-58.81348
1.9875	-118.93616
1.988	-156.09741
1.9885	-198.79761
1.989	-225.18311
1.9895	-203.22876
1.99	-149.95422
1.9905	-92.65137
1.991	-40.38391
1.9915	23.96851
1.992	68.88428
1.9925	117.72766
1.993	170.39795
1.9935	203.53088
1.994	215.31372
1.9945	216.52222
1.995	190.94238
1.9955	173.82202
1.996	167.88025
1.9965	144.91882
1.997	113.59863
1.9975	88.92517
1.998	74.62463
1.9985	53.07312
1.999	45.3186
1.9995	35.85205
2	29.91028
2.0005	18.63098
2.001	0.60425
2.0015	-2.92053
2.002	-3.52478
2.0025	0.50354
2.003	-0.10071
2.0035	-7.15027
2.004	-54.28162
2.0045	-103.72925
2.005	-143.60962
2.0055	-161.73706
2.006	-149.34998
2.0065	-123.77014
2.007	-96.17615
2.0075	-54.28162
2.008	-21.75293
2.0085	3.22266
2.009	31.01807
2.0095	45.62073
2.01	64.151
2.0105	66.46729
2.011	80.66711
2.0115	87.11243
2.012	84.2926
2.0125	81.7749
2.013	70.79773
2.0135	70.09277
2.014	71.80481
2.0145	71.90552
2.015	65.66162
2.0155	57.30286
2.016	45.3186
2.0165	37.06055
2.017	31.01807
2.0175	23.8678
2.018	12.68921
2.0185	10.0708
2.019	-1.40991
2.0195	-15.1062
2.02	-20.64514
2.0205	-26.28479
2.021	-29.10461
2.0215	-25.68054
2.022	-24.57275
2.0225	-22.55859
2.023	-18.12744
2.0235	-29.00391
2.024	-70.69702
2.0245	-84.79614
2.025	-74.82605
2.0255	-66.46729
2.026	-46.82922
2.0265	-27.19116
2.027	-11.58142
2.0275	10.97717
2.028	24.57275
2.0285	1.91345
2.029	-40.2832
2.0295	-68.07861
2.03	-74.72534
2.0305	-72.40906
2.031	-74.2218
2.0315	-65.56091
2.032	-48.44055
2.0325	-36.65771
2.033	-25.88196
2.0335	-0.60425
2.034	25.78125
2.0345	48.33984
2.035	50.05188
2.0355	40.58533
2.036	38.87329
2.0365	32.42798
2.037	17.32178
2.0375	21.45081
2.038	30.81665
2.0385	36.05347
2.039	44.0094
2.0395	44.61365
2.04	51.26038
2.0405	70.29419
2.041	91.94641
2.0415	107.85828
2.042	108.36182
2.0425	109.4696
2.043	100.00305
2.0435	84.09119
2.044	83.18481
2.0445	72.71118
2.045	65.66162
2.0455	61.43188
2.046	48.84338
2.0465	43.40515
2.047	29.50745
2.0475	26.48621
2.048	17.92603
2.0485	11.88354
2.049	3.22266
2.0495	-0.60425
2.05	-3.8269
2.0505	2.01416
2.051	9.76868
2.0515	16.51611
2.052	28.29895
2.0525	34.03931
2.053	35.34851
2.0535	30.01099
2.054	27.39258
2.0545	24.47205
2.055	12.18567
2.0555	8.96301
2.056	1.10779
2.0565	-3.52478
2.057	-6.14319
2.0575	-9.66797
2.058	-19.63806
2.0585	-25.98267
2.059	-20.34302
2.0595	-20.44373
2.06	-16.61682
2.0605	-17.32178
2.061	-21.45081
2.0615	-20.1416
2.062	-19.03381
2.0625	-13.09204
2.063	-17.72461
2.0635	-18.42957
2.064	-17.72461
2.0645	-17.22107
2.065	-32.52869
2.0655	-50.55542
2.066	-52.67029
2.0665	-53.27454
2.067	-47.33276
2.0675	-37.96692
2.068	-30.91736
2.0685	-23.56567
2.069	-12.68921
2.0695	0.80566
2.07	10.47363
2.0705	13.29346
2.071	10.57434
2.0715	20.34302
2.072	22.55859
2.0725	29.91028
2.073	30.81665
2.0735	30.41382
2.074	32.52869
2.0745	23.16284
2.075	15.00549
2.0755	23.96851
2.076	23.76709
2.0765	19.33594
2.077	15.30762
2.0775	17.42249
2.078	17.72461
2.0785	21.14868
2.079	9.97009
2.0795	7.95593
2.08	9.76868
2.0805	12.48779
2.081	17.22107
2.0815	19.43665
2.082	17.72461
2.0825	12.5885
2.083	10.57434
2.0835	12.68921
2.084	11.58142
2.0845	4.53186
2.085	1.51062
2.0855	1.00708
2.086	-6.2439
2.0865	-11.58142
2.087	-16.91895
2.0875	-15.50903
2.088	-18.22815
2.0885	-52.26746
2.089	-81.17065
2.0895	-86.00464
2.09	-75.32959
2.0905	-59.82056
2.091	-45.2179
2.0915	-29.50745
2.092	-16.71753
2.0925	-3.32336
2.093	12.48779
2.0935	4.33044
2.094	-4.83398
2.0945	-24.67346
2.095	-39.47754
2.0955	-43.40515
2.096	-47.63489
2.0965	-48.33984
2.097	-40.78674
2.0975	-32.22656
2.098	-18.32886
2.0985	7.5531
2.099	21.14868
2.0995	35.2478
2.1	58.20923
2.1005	71.90552
2.101	86.20605
2.1015	82.27844
2.102	67.27295
2.1025	62.8418
2.103	71.90552
2.1035	67.57507
2.104	53.37524
2.1045	41.29028
2.105	32.62939
2.1055	30.71594
2.106	24.77417
2.1065	13.69629
2.107	-2.5177
2.1075	1.51062
2.108	-1.61133
2.1085	-4.22974
2.109	-7.65381
2.1095	-7.75452
2.11	-5.94177
2.1105	-6.44531
2.111	-11.68213
2.1115	-3.42407
2.112	-8.25806
2.1125	-6.74744
2.113	-9.06372
2.1135	-9.66797
2.114	-8.7616
2.1145	-9.76868
2.115	-3.62549
2.1155	-1.40991
2.116	7.95593
2.1165	12.78992
2.117	-13.49487
2.1175	-44.51294
2.118	-53.87878
2.1185	-53.37524
2.119	-53.47595
2.1195	-56.29578
2.12	-48.54126
2.1205	-32.22656
2.121	-15.91187
2.1215	-1.91345
2.122	6.44531
2.1225	21.75293
2.123	32.93152
2.1235	52.771
2.124	65.76233
2.1245	65.96375
2.125	54.88586
2.1255	55.79224
2.126	36.4563
2.1265	25.177
2.127	21.95435
2.1275	18.73169
2.128	14.60266
2.1285	14.30054
2.129	18.63098
2.1295	14.50195
2.13	10.77576
2.1305	8.66089
2.131	0.40283
2.1315	2.92053
2.132	0.70496
2.1325	-32.83081
2.133	-59.21631
2.1335	-92.34924
2.134	-143.50891
2.1345	-186.1084
2.135	-182.58362
2.1355	-162.94556
2.136	-142.099
2.1365	-119.23828
2.137	-81.7749
2.1375	-42.90161
2.138	-3.8269
2.1385	21.24939
2.139	47.93701
2.1395	70.69702
2.14	87.91809
2.1405	101.11084
2.141	104.13208
2.1415	118.2312
2.142	119.33899
2.1425	104.13208
2.143	105.23987
2.1435	101.31226
2.144	84.09119
2.1445	75.63171
2.145	74.42322
2.1455	89.63013
2.146	93.85986
2.1465	87.31384
2.147	84.79614
2.1475	76.94092
2.148	61.12976
2.1485	50.05188
2.149	39.47754
2.1495	33.53577
2.15	21.04797
2.1505	19.43665
2.151	17.6239
2.1515	16.81824
2.152	8.8623
2.1525	10.67505
2.153	2.5177
2.1535	1.91345
2.154	-7.95593
2.1545	-24.16992
2.155	-32.42798
2.1555	-35.85205
2.156	-34.54285
2.1565	-26.98975
2.157	-36.15417
2.1575	-42.29736
2.158	-81.87561
2.1585	-131.42395
2.159	-147.63794
2.1595	-138.77563
2.16	-110.57739
2.1605	-75.02747
2.161	-34.54285
2.1615	7.35168
2.162	43.10303
2.1625	73.41614
2.163	86.40747
2.1635	93.96057
2.164	93.45703
2.1645	92.75208
2.165	83.08411
2.1655	71.50269
2.166	52.26746
2.1665	35.34851
2.167	24.27063
2.1675	23.8678
2.168	18.22815
2.1685	9.26514
2.169	8.15735
2.1695	7.25098
2.17	0.70496
2.1705	1.61133
2.171	-5.0354
2.1715	3.22266
2.172	10.0708
2.1725	10.57434
2.173	5.33752
2.1735	3.92761
2.174	-4.93469
2.1745	-10.87646
2.175	-15.91187
2.1755	-17.72461
2.176	-22.86072
2.1765	-25.88196
2.177	-16.91895
2.1775	-6.84814
2.178	-1.61133
2.1785	6.14319
2.179	10.77576
2.1795	21.04797
2.18	31.62231
2.1805	31.82373
2.181	21.3501
2.1815	12.78992
2.182	9.97009
2.1825	-6.94885
2.183	-58.10852
2.1835	-89.328
2.184	-100.30518
2.1845	-109.26819
2.185	-99.49951
2.1855	-92.85278
2.186	-67.8772
2.1865	-48.03772
2.187	-23.66638
2.1875	-8.96301
2.188	11.98425
2.1885	27.49329
2.189	24.67346
2.1895	25.07629
2.19	27.59399
2.1905	26.18408
2.191	32.7301
2.1915	34.03931
2.192	29.40674
2.1925	33.13293
2.193	29.70886
2.1935	11.38
2.194	4.83398
2.1945	3.7262
2.195	3.62549
2.1955	8.66089
2.196	15.00549
2.1965	8.66089
2.197	-44.51294
2.1975	-105.13916
2.198	-122.05811
2.1985	-102.11792
2.199	-75.53101
2.1995	-54.98657
2.2	-53.57666
2.2005	-50.75684
2.201	-16.91895
2.2015	9.56726
2.202	38.974
2.2025	55.18799
2.203	89.22729
2.2035	106.14624
2.204	121.45386
2.2045	126.69067
2.205	121.75598
2.2055	121.05103
2.206	111.08093
2.2065	98.79456
2.207	91.04004
2.2075	78.04871
2.208	65.56091
2.2085	51.15967
2.209	44.91577
2.2095	42.09595
2.21	33.13293
2.2105	30.01099
2.211	26.18408
2.2115	28.70178
2.212	29.10461
2.2125	24.57275
2.213	13.09204
2.2135	10.47363
2.214	-3.42407
2.2145	-10.27222
2.215	-20.04089
2.2155	-38.47046
2.216	-42.8009
2.2165	-41.39099
2.217	-32.83081
2.2175	-30.41382
2.218	-21.3501
2.2185	-12.5885
2.219	-2.81982
2.2195	6.14319
2.22	13.49487
2.2205	19.03381
2.221	20.94727
2.2215	28.50037
2.222	18.53027
2.2225	18.12744
2.223	11.88354
2.2235	-5.0354
2.224	-16.3147
2.2245	-22.15576
2.225	-37.46338
2.2255	-45.2179
2.226	-69.48853
2.2265	-99.60022
2.227	-112.99438
2.2275	-100.10376
2.228	-92.34924
2.2285	-67.97791
2.229	-43.30444
2.2295	-18.93311
2.23	5.43823
2.2305	6.44531
2.231	3.32336
2.2315	3.62549
2.232	9.56726
2.2325	14.70337
2.233	14.19983
2.2335	22.25647
2.234	21.85364
2.2345	26.28479
2.235	34.84497
2.2355	46.02356
2.236	60.12268
2.2365	80.66711
2.237	80.86853
2.2375	39.27612
2.238	-7.45239
2.2385	-40.38391
2.239	-42.49878
2.2395	-36.55701
2.24	-17.22107
2.2405	10.87646
2.241	29.20532
2.2415	44.21082
2.242	51.86462
2.2425	64.25171
2.243	68.58215
2.2435	72.20764
2.244	66.16516
2.2445	58.10852
2.245	52.97241
2.2455	44.51294
2.246	35.95276
2.2465	31.72302
2.247	-6.84814
2.2475	-46.5271
2.248	-63.74817
2.2485	-73.11401
2.249	-66.87012
2.2495	-63.04321
2.25	-49.0448
2.2505	-37.7655
2.251	-17.22107
2.2515	0.20142
2.252	-11.68213
2.2525	-35.95276
2.253	-39.67896
2.2535	-37.96692
2.254	-15.40833
2.2545	4.43115
2.255	23.06213
2.2555	31.72302
2.256	6.2439
2.2565	-10.97717
2.257	-8.45947
2.2575	19.53735
2.258	39.88037
2.2585	51.5625
2.259	64.85596
2.2595	73.81897
2.26	78.04871
2.2605	77.14233
2.261	73.11401
2.2615	65.46021
2.262	55.89294
2.2625	48.64197
2.263	49.0448
2.2635	41.69312
2.264	37.26196
2.2645	24.87488
2.265	16.51611
2.2655	14.80408
2.266	16.41541
2.2665	19.43665
2.267	10.47363
2.2675	8.15735
2.268	4.63257
2.2685	-3.42407
2.269	-4.83398
2.2695	-9.06372
2.27	-4.73328
2.2705	-2.71912
2.271	-5.43823
2.2715	-10.97717
2.272	-21.65222
2.2725	-39.07471
2.273	-55.89294
2.2735	-60.02197
2.274	-66.26587
2.2745	-71.60339
2.275	-67.77649
2.2755	-61.83472
2.276	-51.15967
2.2765	-39.27612
2.277	-28.60107
2.2775	-12.89062
2.278	5.74036
2.2785	24.57275
2.279	33.73718
2.2795	58.51135
2.28	69.58923
2.2805	58.71277
2.281	57.60498
2.2815	73.01331
2.282	77.84729
2.2825	72.71118
2.283	60.3241
2.2835	39.67896
2.284	23.36426
2.2845	11.88354
2.285	2.31628
2.2855	-18.02673
2.286	-31.72302
2.2865	-33.03223
2.287	-30.41382
2.2875	-28.9032
2.288	-18.02673
2.2885	-8.66089
2.289	-7.5531
2.2895	-3.22266
2.29	5.23682
2.2905	6.04248
2.291	7.45239
2.2915	7.45239
2.292	-3.52478
2.2925	-60.3241
2.293	-119.54041
2.2935	-145.8252
2.294	-146.42944
2.2945	-137.66785
2.295	-109.67102
2.2955	-82.9834
2.296	-54.38232
2.2965	-12.5885
2.297	19.03381
2.2975	42.19666
2.298	59.71985
2.2985	77.74658
2.299	96.57898
2.2995	104.73633
2.3	100.90942
2.3005	93.85986
2.301	92.75208
2.3015	86.10535
2.302	67.37366
2.3025	47.7356
2.303	40.38391
2.3035	28.60107
2.304	15.60974
2.3045	2.21558
2.305	-6.54602
2.3055	-13.39417
2.306	-10.77576
2.3065	-11.2793
2.307	-2.31628
2.3075	7.75452
2.308	14.40125
2.3085	18.32886
2.309	18.73169
2.3095	28.80249
2.31	24.37134
2.3105	22.15576
2.311	25.07629
2.3115	27.6947
2.312	32.32727
2.3125	29.10461
2.313	29.40674
2.3135	26.18408
2.314	9.97009
2.3145	-16.91895
2.315	-47.13135
2.3155	-82.68127
2.316	-100.30518
2.3165	-94.3634
2.317	-89.42871
2.3175	-76.84021
2.318	-64.55383
2.3185	-51.5625
2.319	-36.05347
2.3195	-16.91895
2.32	7.95593
2.3205	35.95276
2.321	59.51843
2.3215	69.79065
2.322	76.84021
2.3225	77.04163
2.323	72.61047
2.3235	63.54675
2.324	62.03613
2.3245	63.04321
2.325	69.38782
2.3255	71.60339
2.326	66.97083
2.3265	59.71985
2.327	50.2533
2.3275	45.41931
2.328	32.7301
2.3285	22.6593
2.329	17.32178
2.3295	-0.30212
2.33	-12.08496
2.3305	-22.6593
2.331	-23.16284
2.3315	-20.74585
2.332	-20.04089
2.3325	-13.19275
2.333	-15.00549
2.3335	-11.78284
2.334	-10.87646
2.3345	-2.81982
2.335	3.22266
2.3355	4.33044
2.336	2.11487
2.3365	10.67505
2.337	13.69629
2.3375	4.83398
2.338	-7.65381
2.3385	-53.17383
2.339	-83.28552
2.3395	-112.99438
2.34	-170.39795
2.3405	-206.85425
2.341	-187.71973
2.3415	-141.79688
2.342	-99.80164
2.3425	-59.1156
2.343	-14.50195
2.3435	40.78674
2.344	80.36499
2.3445	111.08093
2.345	134.64661
2.3455	130.61829
2.346	125.07935
2.3465	107.05261
2.347	97.28394
2.3475	86.8103
2.348	70.79773
2.3485	38.06763
2.349	-21.85364
2.3495	-61.6333
2.35	-63.64746
2.3505	-50.75684
2.351	-35.14709
2.3515	-9.26514
2.352	15.30762
2.3525	38.57117
2.353	54.88586
2.3535	66.16516
2.354	73.81897
2.3545	89.52942
2.355	95.67261
2.3555	90.23438
2.356	83.78906
2.3565	64.55383
2.357	38.47046
2.3575	21.3501
2.358	7.95593
2.3585	-8.05664
2.359	-18.32886
2.3595	-20.44373
2.36	-29.70886
2.3605	-69.68994
2.361	-102.92358
2.3615	-118.2312
2.362	-113.09509
2.3625	-97.68677
2.363	-69.38782
2.3635	-48.44055
2.364	-37.26196
2.3645	-25.78125
2.365	-17.92603
2.3655	-14.50195
2.366	-8.66089
2.3665	-3.12195
2.367	7.75452
2.3675	16.41541
2.368	22.55859
2.3685	15.30762
2.369	12.68921
2.3695	19.23523
2.37	20.94727
2.3705	33.63647
2.371	51.96533
2.3715	65.66162
2.372	72.10693
2.3725	76.7395
2.373	67.57507
2.3735	55.18799
2.374	58.71277
2.3745	58.71277
2.375	38.47046
2.3755	28.09753
2.376	17.01965
2.3765	9.76868
2.377	11.48071
2.3775	15.50903
2.378	26.98975
2.3785	27.89612
2.379	28.29895
2.3795	32.02515
2.38	36.05347
2.3805	32.7301
2.381	24.77417
2.3815	21.55151
2.382	16.21399
2.3825	22.25647
2.383	27.39258
2.3835	27.49329
2.384	17.01965
2.3845	12.18567
2.385	4.33044
2.3855	-3.32336
2.386	-16.71753
2.3865	-39.37683
2.387	-43.50586
2.3875	-60.22339
2.388	-64.95667
2.3885	-67.8772
2.389	-61.83472
2.3895	-49.34692
2.39	-38.57117
2.3905	-25.68054
2.391	-12.38708
2.3915	-5.23682
2.392	-2.01416
2.3925	-9.86938
2.393	-5.33752
2.3935	-14.30054
2.394	-43.10303
2.3945	-87.41455
2.395	-107.55615
2.3955	-108.26111
2.396	-92.44995
2.3965	-65.05737
2.397	-38.36975
2.3975	-13.39417
2.398	20.74585
2.3985	72.81189
2.399	95.47119
2.3995	108.1604
2.4	117.12341
2.4005	118.02979
2.401	112.79297
2.4015	98.49243
2.402	99.19739
2.4025	79.45862
2.403	67.8772
2.4035	59.01489
2.404	50.45471
2.4045	47.33276
2.405	47.7356
2.4055	35.2478
2.406	34.74426
2.4065	28.29895
2.407	21.95435
2.4075	16.11328
2.408	5.53894
2.4085	1.3092
2.409	2.41699
2.4095	2.11487
2.41	7.35168
2.4105	-0.10071
2.411	-15.20691
2.4115	-28.50037
2.412	-32.52869
2.4125	-36.65771
2.413	-35.65063
2.4135	-33.63647
2.414	-31.72302
2.4145	-28.09753
2.415	-22.45789
2.4155	-9.26514
2.416	-1.91345
2.4165	17.42249
2.417	18.22815
2.4175	13.797
2.418	19.43665
2.4185	5.74036
2.419	-1.71204
2.4195	-7.85522
2.42	-9.06372
2.4205	-8.15735
2.421	-11.88354
2.4215	-17.12036
2.422	-8.15735
2.4225	-17.32178
2.423	-46.22498
2.4235	-67.37366
2.424	-66.26587
2.4245	-54.68445
2.425	-37.96692
2.4255	-23.06213
2.426	-1.00708
2.4265	12.99133
2.427	30.31311
2.4275	40.68604
2.428	48.44055
2.4285	45.11719
2.429	39.98108
2.4295	44.71436
2.43	46.12427
2.4305	48.84338
2.431	41.39099
2.4315	33.03223
2.432	21.65222
2.4325	29.70886
2.433	29.80957
2.4335	30.01099
2.434	24.47205
2.4345	30.51453
2.435	25.27771
2.4355	5.94177
2.436	-2.11487
2.4365	-1.00708
2.437	-3.92761
2.4375	-5.63965
2.438	-11.07788
2.4385	-13.09204
2.439	-8.96301
2.4395	-6.44531
2.44	-7.95593
2.4405	-7.15027
2.441	-3.92761
2.4415	3.52478
2.442	12.08496
2.4425	15.81116
2.443	19.43665
2.4435	16.61682
2.444	6.64673
2.4445	8.05664
2.445	6.64673
2.4455	2.71912
2.446	7.15027
2.4465	5.13611
2.447	1.40991
2.4475	-7.5531
2.448	-10.57434
2.4485	-12.78992
2.449	-6.2439
2.4495	1.10779
2.45	-0.40283
2.4505	0.10071
2.451	3.02124
2.4515	2.71912
2.452	4.83398
2.4525	7.85522
2.453	13.09204
2.4535	9.26514
2.454	-19.94019
2.4545	-88.52234
2.455	-170.19653
2.4555	-200.20752
2.456	-192.75513
2.4565	-161.33423
2.457	-122.46094
2.4575	-67.07153
2.458	-11.88354
2.4585	30.61523
2.459	65.15808
2.4595	94.2627
2.46	108.36182
2.4605	123.87085
2.461	121.75598
2.4615	115.00854
2.462	94.76624
2.4625	73.61755
2.463	47.23206
2.4635	34.94568
2.464	28.50037
2.4645	19.13452
2.465	16.41541
2.4655	13.29346
2.466	21.75293
2.4665	19.53735
2.467	3.8269
2.4675	-28.09753
2.468	-42.49878
2.4685	-31.4209
2.469	-24.37134
2.4695	-6.84814
2.47	6.74744
2.4705	10.57434
2.471	16.51611
2.4715	36.95984
2.472	48.33984
2.4725	56.29578
2.473	60.82764
2.4735	54.28162
2.474	46.02356
2.4745	46.02356
2.475	34.74426
2.4755	40.38391
2.476	30.91736
2.4765	11.48071
2.477	-1.91345
2.4775	-3.42407
2.478	-9.56726
2.4785	-17.42249
2.479	-12.89062
2.4795	-3.02124
2.48	3.8269
2.4805	0.50354
2.481	4.53186
2.4815	18.22815
2.482	25.07629
2.4825	26.18408
2.483	27.99683
2.4835	28.19824
2.484	29.20532
2.4845	30.31311
2.485	35.85205
2.4855	46.62781
2.486	42.7002
2.4865	44.21082
2.487	28.19824
2.4875	23.76709
2.488	20.24231
2.4885	9.76868
2.489	13.09204
2.4895	13.29346
2.49	7.25098
2.4905	-6.64673
2.491	-23.46497
2.4915	-31.01807
2.492	-30.91736
2.4925	-49.54834
2.493	-87.61597
2.4935	-106.64978
2.494	-110.77881
2.4945	-93.75916
2.495	-71.90552
2.4955	-45.92285
2.496	-21.65222
2.4965	9.76868
2.497	32.52869
2.4975	44.81506
2.498	59.21631
2.4985	58.41064
2.499	55.89294
2.4995	52.67029
2.5	60.12268
2.5005	62.64038
2.501	50.45471
2.5015	41.79382
2.502	34.14001
2.5025	27.79541
2.503	19.43665
2.5035	12.48779
2.504	13.69629
2.5045	9.76868
2.505	1.3092
2.5055	-0.70496
2.506	-1.71204
2.5065	5.13611
2.507	5.43823
2.5075	5.0354
2.508	5.23682
2.5085	3.02124
2.509	2.92053
2.5095	-9.06372
2.51	-14.70337
2.5105	-25.27771
2.511	-30.01099
2.5115	-41.89453
2.512	-61.6333
2.5125	-63.44604
2.513	-64.35242
2.5135	-54.48303
2.514	-37.46338
2.5145	-24.57275
2.515	-4.12903
2.5155	23.76709
2.516	36.55701
2.5165	8.05664
2.517	-19.13452
2.5175	-44.31152
2.518	-55.2887
2.5185	-44.61365
2.519	-25.78125
2.5195	-10.97717
2.52	5.63965
2.5205	12.99133
2.521	19.73877
2.5215	25.07629
2.522	25.88196
2.5225	32.12585
2.523	37.46338
2.5235	45.52002
2.524	49.64905
2.5245	50.45471
2.525	45.11719
2.5255	40.58533
2.526	38.974
2.5265	48.23914
2.527	45.01648
2.5275	40.98816
2.528	36.35559
2.5285	34.24072
2.529	33.23364
2.5295	24.06921
2.53	6.14319
2.5305	2.92053
2.531	1.10779
2.5315	-6.04248
2.532	-12.08496
2.5325	-18.8324
2.533	-18.93311
2.5335	-21.24939
2.534	-21.14868
2.5345	-19.33594
2.535	-11.88354
2.5355	1.2085
2.536	14.90479
2.5365	25.47913
2.537	23.26355
2.5375	26.78833
2.538	22.05505
2.5385	7.95593
2.539	-10.67505
2.5395	-12.48779
2.54	-8.45947
2.5405	-5.13611
2.541	-1.91345
2.5415	10.87646
2.542	11.98425
2.5425	10.87646
2.543	9.86938
2.5435	7.65381
2.544	9.46655
2.5445	7.45239
2.545	12.08496
2.5455	19.23523
2.546	20.74585
2.5465	13.797
2.547	7.95593
2.5475	4.53186
2.548	7.45239
2.5485	10.57434
2.549	12.28638
2.5495	8.45947
2.55	5.33752
2.5505	8.8623
2.551	15.20691
2.5515	18.02673
2.552	13.797
2.5525	12.48779
2.553	2.11487
2.5535	7.45239
2.554	14.09912
2.5545	6.44531
2.555	3.62549
2.5555	-2.81982
2.556	-13.39417
2.5565	-14.60266
2.557	-18.53027
2.5575	-19.94019
2.558	-13.797
2.5585	-23.06213
2.559	-21.14868
2.5595	-23.46497
2.56	-17.72461
2.5605	-13.99841
2.561	-8.45947
2.5615	-14.40125
2.562	-19.33594
2.5625	-26.18408
2.563	-27.09045
2.5635	-23.56567
2.564	-27.89612
2.5645	-28.60107
2.565	-33.83789
2.5655	-27.09045
2.566	-26.28479
2.5665	-29.10461
2.567	-25.177
2.5675	-30.81665
2.568	-66.06445
2.5685	-113.39722
2.569	-127.99988
2.5695	-121.35315
2.57	-109.97314
2.5705	-102.21863
2.571	-79.55933
2.5715	-69.99207
2.572	-59.1156
2.5725	-46.32568
2.573	-24.97559
2.5735	-0.80566
2.574	8.35876
2.5745	19.53735
2.575	29.50745
2.5755	44.11011
2.576	54.28162
2.5765	58.91418
2.577	68.58215
2.5775	67.67578
2.578	70.09277
2.5785	63.64746
2.579	35.85205
2.5795	-26.08337
2.58	-88.32092
2.5805	-117.82837
2.581	-172.71423
2.5815	-203.53088
2.582	-197.4884
2.5825	-145.42236
2.583	-89.328
2.5835	-40.38391
2.584	21.75293
2.5845	68.58215
2.585	120.24536
2.5855	157.91016
2.586	178.5553
2.5865	183.38928
2.587	176.64185
2.5875	165.36255
2.588	144.91882
2.5885	136.25793
2.589	129.5105
2.5895	120.14465
2.59	102.21863
2.5905	95.5719
2.591	80.4657
2.5915	82.07703
2.592	77.84729
2.5925	78.85437
2.593	71.40198
2.5935	58.81348
2.594	47.03064
2.5945	43.20374
2.595	42.29736
2.5955	38.26904
2.596	34.74426
2.5965	27.59399
2.597	13.99841
2.5975	5.13611
2.598	-14.70337
2.5985	-16.51611
2.599	-28.39966
2.5995	-50.85754
2.6	-63.44604
2.6005	-66.16516
2.601	-95.16907
2.6015	-121.55457
2.602	-124.27368
2.6025	-102.11792
2.603	-78.95508
2.6035	-51.66321
2.604	-15.60974
2.6045	0
2.605	-17.42249
2.6055	-17.42249
2.606	-1.81274
2.6065	10.27222
2.607	23.06213
2.6075	29.80957
2.608	45.82214
2.6085	60.52551
2.609	66.87012
2.6095	68.07861
2.61	77.14233
2.6105	78.75366
2.611	75.83313
2.6115	79.05579
2.612	64.95667
2.6125	41.89453
2.613	31.62231
2.6135	34.54285
2.614	43.30444
2.6145	49.34692
2.615	45.11719
2.6155	40.78674
2.616	36.55701
2.6165	35.04639
2.617	28.9032
2.6175	22.6593
2.618	23.26355
2.6185	17.72461
2.619	12.5885
2.6195	9.76868
2.62	5.94177
2.6205	2.11487
2.621	-0.30212
2.6215	-1.61133
2.622	-2.31628
2.6225	-1.91345
2.623	2.31628
2.6235	4.63257
2.624	4.02832
2.6245	0.10071
2.625	7.35168
2.6255	11.17859
2.626	5.74036
2.6265	4.93469
2.627	6.74744
2.6275	5.53894
2.628	8.25806
2.6285	11.2793
2.629	8.05664
2.6295	-3.42407
2.63	-5.63965
2.6305	-5.43823
2.631	-3.92761
2.6315	-7.65381
2.632	-9.36584
2.6325	-12.89062
2.633	-17.32178
2.6335	-51.36108
2.634	-114.70642
2.6345	-151.46484
2.635	-147.43652
2.6355	-128.10059
2.636	-91.64429
2.6365	-45.92285
2.637	-3.12195
2.6375	33.03223
2.638	60.02197
2.6385	83.18481
2.639	92.95349
2.6395	102.72217
2.64	102.62146
2.6405	103.42712
2.641	93.96057
2.6415	81.27136
2.642	60.3241
2.6425	47.7356
2.643	41.59241
2.6435	35.65063
2.644	28.39966
2.6445	23.96851
2.645	22.45789
2.6455	20.04089
2.646	15.1062
2.6465	15.40833
2.647	12.68921
2.6475	7.15027
2.648	9.86938
2.6485	12.5885
2.649	11.17859
2.6495	12.28638
2.65	-3.22266
2.6505	-14.60266
2.651	-18.93311
2.6515	-24.27063
2.652	-27.09045
2.6525	-32.93152
2.653	-42.39807
2.6535	-32.83081
2.654	-25.177
2.6545	-24.67346
2.655	-10.57434
2.6555	1.71204
2.656	19.43665
2.6565	22.45789
2.657	23.26355
2.6575	29.70886
2.658	32.93152
2.6585	23.06213
2.659	22.45789
2.6595	18.93311
2.66	22.45789
2.6605	26.78833
2.661	26.3855
2.6615	21.24939
2.662	13.39417
2.6625	10.0708
2.663	3.7262
2.6635	-1.91345
2.664	-4.02832
2.6645	-8.05664
2.665	-11.78284
2.6655	-5.63965
2.666	-9.06372
2.6665	-15.40833
2.667	-34.14001
2.6675	-45.62073
2.668	-73.01331
2.6685	-106.9519
2.669	-116.72058
2.6695	-123.36731
2.67	-109.3689
2.6705	-100.30518
2.671	-83.48694
2.6715	-63.14392
2.672	-46.42639
2.6725	-26.58691
2.673	2.81982
2.6735	29.50745
2.674	51.5625
2.6745	70.99915
2.675	82.58057
2.6755	89.63013
2.676	87.61597
2.6765	83.18481
2.677	85.70251
2.6775	78.04871
2.678	75.32959
2.6785	82.07703
2.679	80.66711
2.6795	66.76941
2.68	55.18799
2.6805	47.7356
2.681	30.11169
2.6815	19.43665
2.682	19.83948
2.6825	24.67346
2.683	24.67346
2.6835	25.177
2.684	13.29346
2.6845	11.58142
2.685	10.77576
2.6855	-0.40283
2.686	-5.63965
2.6865	-10.17151
2.687	-25.78125
2.6875	-46.42639
2.688	-81.97632
2.6885	-134.44519
2.689	-163.85193
2.6895	-168.38379
2.69	-203.43018
2.6905	-270.90454
2.691	-289.73694
2.6915	-251.06506
2.692	-204.03442
2.6925	-151.66626
2.693	-84.99756
2.6935	-20.94727
2.694	36.65771
2.6945	85.60181
2.695	127.09351
2.6955	175.53406
2.696	210.47974
2.6965	219.24133
2.697	205.54504
2.6975	204.23584
2.698	184.29565
2.6985	150.65918
2.699	126.08643
2.6995	124.4751
2.7	121.65527
2.7005	113.29651
2.701	82.9834
2.7015	61.02905
2.702	49.74976
2.7025	35.44922
2.703	27.59399
2.7035	22.05505
2.704	28.19824
2.7045	25.47913
2.705	22.15576
2.7055	14.50195
2.706	9.36584
2.7065	9.76868
2.707	7.75452
2.7075	12.5885
2.708	9.36584
2.7085	6.14319
2.709	3.52478
2.7095	6.84814
2.71	4.33044
2.7105	2.92053
2.711	2.81982
2.7115	3.32336
2.712	7.5531
2.7125	9.26514
2.713	0.80566
2.7135	-41.4917
2.714	-74.82605
2.7145	-86.30676
2.715	-89.12659
2.7155	-77.44446
2.716	-64.25171
2.7165	-42.90161
2.717	-20.24231
2.7175	6.54602
2.718	29.00391
2.7185	48.54126
2.719	50.15259
2.7195	50.65613
2.72	45.92285
2.7205	43.70728
2.721	38.47046
2.7215	35.85205
2.722	26.48621
2.7225	20.74585
2.723	11.2793
2.7235	10.77576
2.724	13.49487
2.7245	18.12744
2.725	6.94885
2.7255	2.5177
2.726	-2.71912
2.7265	-4.33044
2.727	-3.8269
2.7275	-5.13611
2.728	-5.0354
2.7285	1.81274
2.729	2.61841
2.7295	9.86938
2.73	10.97717
2.7305	0.90637
2.731	-5.63965
2.7315	-5.94177
2.732	-19.53735
2.7325	-24.57275
2.733	-23.66638
2.7335	-21.95435
2.734	-22.15576
2.7345	-22.96143
2.735	-21.85364
2.7355	-18.12744
2.736	-19.53735
2.7365	-13.797
2.737	-10.0708
2.7375	-2.21558
2.738	6.54602
2.7385	14.60266
2.739	12.68921
2.7395	-31.62231
2.74	-79.15649
2.7405	-102.52075
2.741	-90.83862
2.7415	-67.57507
2.742	-43.50586
2.7425	-26.08337
2.743	3.32336
2.7435	29.91028
2.744	41.29028
2.7445	47.03064
2.745	55.99365
2.7455	58.61206
2.746	62.74109
2.7465	64.95667
2.747	60.52551
2.7475	48.03772
2.748	35.04639
2.7485	36.15417
2.749	28.60107
2.7495	8.15735
2.75	5.84106
2.7505	13.49487
2.751	14.30054
2.7515	17.72461
2.752	16.81824
2.7525	22.25647
2.753	30.11169
2.7535	39.07471
2.754	39.88037
2.7545	32.52869
2.755	23.16284
2.7555	19.83948
2.756	20.64514
2.7565	14.60266
2.757	7.04956
2.7575	2.01416
2.758	5.0354
2.7585	4.93469
2.759	6.84814
2.7595	8.35876
2.76	4.93469
2.7605	2.01416
2.761	-7.35168
2.7615	-31.4209
2.762	-33.23364
2.7625	-27.79541
2.763	-32.7301
2.7635	-48.54126
2.764	-60.22339
2.7645	-68.58215
2.765	-71.20056
2.7655	-65.05737
2.766	-61.83472
2.7665	-63.34534
2.767	-62.33826
2.7675	-52.771
2.768	-40.58533
2.7685	-40.48462
2.769	-35.14709
2.7695	-18.53027
2.77	0.70496
2.7705	11.68213
2.771	32.52869
2.7715	46.12427
2.772	68.28003
2.7725	78.04871
2.773	90.5365
2.7735	92.44995
2.774	99.09668
2.7745	102.62146
2.775	94.66553
2.7755	86.40747
2.776	80.36499
2.7765	71.09985
2.777	65.15808
2.7775	59.21631
2.778	50.354
2.7785	36.55701
2.779	23.8678
2.7795	-7.95593
2.78	-43.70728
2.7805	-56.69861
2.781	-58.51135
2.7815	-42.7002
2.782	-27.39258
2.7825	-6.84814
2.783	10.97717
2.7835	20.24231
2.784	40.2832
2.7845	48.74268
2.785	49.85046
2.7855	39.27612
2.786	32.52869
2.7865	30.61523
2.787	23.36426
2.7875	16.61682
2.788	6.3446
2.7885	-0.60425
2.789	-2.71912
2.7895	6.54602
2.79	6.3446
2.7905	9.46655
2.791	9.36584
2.7915	0.10071
2.792	-22.86072
2.7925	-67.37366
2.793	-95.06836
2.7935	-99.80164
2.794	-84.49402
2.7945	-83.68835
2.795	-70.49561
2.7955	-54.18091
2.796	-26.3855
2.7965	-1.3092
2.797	19.53735
2.7975	37.46338
2.798	55.69153
2.7985	76.84021
2.799	72.40906
2.7995	75.93384
2.8	61.23047
2.8005	43.00232
2.801	24.47205
2.8015	16.11328
2.802	20.1416
2.8025	34.14001
2.803	30.01099
2.8035	22.96143
2.804	10.57434
2.8045	6.74744
2.805	9.56726
2.8055	13.89771
2.806	18.42957
2.8065	23.06213
2.807	28.29895
2.8075	34.24072
2.808	31.11877
2.8085	30.2124
2.809	-0.10071
2.8095	-60.92834
2.81	-90.23438
2.8105	-104.03137
2.811	-103.72925
2.8115	-80.96924
2.812	-62.53967
2.8125	-43.30444
2.813	-20.54443
2.8135	3.8269
2.814	20.54443
2.8145	35.04639
2.815	39.77966
2.8155	45.2179
2.816	49.24622
2.8165	48.54126
2.817	56.49719
2.8175	40.68604
2.818	32.22656
2.8185	26.58691
2.819	18.73169
2.8195	17.6239
2.82	13.797
2.8205	2.5177
2.821	-3.92761
2.8215	-16.41541
2.822	-31.32019
2.8225	-45.41931
2.823	-49.34692
2.8235	-50.05188
2.824	-51.96533
2.8245	-49.24622
2.825	-32.83081
2.8255	-21.55151
2.826	-11.58142
2.8265	-1.51062
2.827	-49.95117
2.8275	-100.50659
2.828	-110.87952
2.8285	-98.49243
2.829	-80.56641
2.8295	-47.63489
2.83	-8.96301
2.8305	33.9386
2.831	61.93542
2.8315	74.82605
2.832	80.56641
2.8325	91.94641
2.833	95.16907
2.8335	101.01013
2.834	99.19739
2.8345	91.8457
2.835	83.88977
2.8355	64.151
2.836	59.31702
2.8365	56.79932
2.837	44.51294
2.8375	39.27612
2.838	33.73718
2.8385	35.44922
2.839	34.24072
2.8395	31.72302
2.84	30.41382
2.8405	25.98267
2.841	17.22107
2.8415	16.71753
2.842	30.91736
2.8425	28.29895
2.843	27.29187
2.8435	21.24939
2.844	12.78992
2.8445	2.11487
2.845	0.70496
2.8455	2.41699
2.846	-17.22107
2.8465	-60.12268
2.847	-79.76074
2.8475	-84.39331
2.848	-76.33667
2.8485	-65.46021
2.849	-45.3186
2.8495	-27.89612
2.85	-11.58142
2.8505	7.95593
2.851	25.98267
2.8515	34.03931
2.852	39.98108
2.8525	43.20374
2.853	37.96692
2.8535	43.80798
2.854	23.76709
2.8545	12.99133
2.855	3.62549
2.8555	2.41699
2.856	-1.3092
2.8565	-3.12195
2.857	2.92053
2.8575	-1.91345
2.858	4.63257
2.8585	1.00708
2.859	4.33044
2.8595	15.30762
2.86	20.1416
2.8605	18.8324
2.861	20.34302
2.8615	15.40833
2.862	11.88354
2.8625	6.04248
2.863	3.62549
2.8635	7.75452
2.864	-3.32336
2.8645	-11.58142
2.865	-17.72461
2.8655	-17.82532
2.866	-20.94727
2.8665	-16.91895
2.867	-12.99133
2.8675	-9.66797
2.868	-7.85522
2.8685	-2.61841
2.869	-1.61133
2.8695	-3.02124
2.87	-9.46655
2.8705	-42.39807
2.871	-78.95508
2.8715	-91.94641
2.872	-84.39331
2.8725	-61.43188
2.873	-37.36267
2.8735	-11.88354
2.874	7.5531
2.8745	23.96851
2.875	36.15417
2.8755	28.80249
2.876	20.54443
2.8765	19.73877
2.877	14.19983
2.8775	22.05505
2.878	21.85364
2.8785	15.71045
2.879	1.10779
2.8795	-7.04956
2.88	7.15027
2.8805	23.66638
2.881	37.26196
2.8815	47.03064
2.882	56.09436
2.8825	57.30286
2.883	50.45471
2.8835	48.64197
2.884	34.74426
2.8845	29.10461
2.885	25.37842
2.8855	23.66638
2.886	22.96143
2.8865	23.66638
2.887	20.64514
2.8875	22.45789
2.888	20.84656
2.8885	10.77576
2.889	4.53186
2.8895	-3.52478
2.89	-11.07788
2.8905	-11.17859
2.891	-15.40833
2.8915	-44.21082
2.892	-68.07861
2.8925	-69.89136
2.893	-61.53259
2.8935	-58.41064
2.894	-52.36816
2.8945	-46.12427
2.895	-28.29895
2.8955	-14.19983
2.896	5.74036
2.8965	25.177
2.897	34.14001
2.8975	43.10303
2.898	37.36267
2.8985	34.84497
2.899	31.92444
2.8995	14.70337
2.9	-3.8269
2.9005	-5.33752
2.901	-9.86938
2.9015	-7.95593
2.902	2.01416
2.9025	7.35168
2.903	22.25647
2.9035	35.85205
2.904	52.46887
2.9045	56.5979
2.905	53.27454
2.9055	48.74268
2.906	44.11011
2.9065	31.32019
2.907	28.70178
2.9075	23.76709
2.908	24.47205
2.9085	21.75293
2.909	7.85522
2.9095	-5.84106
2.91	-11.2793
2.9105	-15.00549
2.911	-4.12903
2.9115	-10.57434
2.912	-0.90637
2.9125	0.20142
2.913	10.67505
2.9135	14.30054
2.914	20.1416
2.9145	23.96851
2.915	33.33435
2.9155	25.88196
2.916	18.8324
2.9165	17.42249
2.917	10.0708
2.9175	10.0708
2.918	5.94177
2.9185	-2.21558
2.919	-8.56018
2.9195	-11.2793
2.92	-6.44531
2.9205	-3.02124
2.921	-5.84106
2.9215	5.53894
2.922	-2.21558
2.9225	-1.61133
2.923	6.04248
2.9235	1.2085
2.924	-5.13611
2.9245	-7.85522
2.925	-2.31628
2.9255	-4.12903
2.926	-1.61133
2.9265	-3.52478
2.927	-0.30212
2.9275	0.80566
2.928	-0.60425
2.9285	-1.81274
2.929	-1.81274
2.9295	-5.13611
2.93	0.20142
2.9305	5.13611
2.931	9.56726
2.9315	7.25098
2.932	5.13611
2.9325	2.61841
2.933	4.73328
2.9335	-4.63257
2.934	-5.23682
2.9345	-1.61133
2.935	-17.72461
2.9355	-40.88745
2.936	-38.77258
2.9365	-36.75842
2.937	-33.9386
2.9375	-32.83081
2.938	-59.92126
2.9385	-99.70093
2.939	-119.4397
2.9395	-112.18872
2.94	-91.64429
2.9405	-73.21472
2.941	-44.31152
2.9415	-12.08496
2.942	19.53735
2.9425	44.61365
2.943	63.14392
2.9435	77.14233
2.944	81.67419
2.9445	79.15649
2.945	81.7749
2.9455	78.55225
2.946	68.48145
2.9465	54.38232
2.947	36.95984
2.9475	19.23523
2.948	-8.56018
2.9485	-34.44214
2.949	-37.46338
2.9495	-44.11011
2.95	-51.66321
2.9505	-50.354
2.951	-48.23914
2.9515	-32.52869
2.952	-12.38708
2.9525	14.80408
2.953	35.44922
2.9535	52.67029
2.954	67.37366
2.9545	67.77649
2.955	63.74817
2.9555	55.89294
2.956	55.59082
2.9565	67.37366
2.957	54.38232
2.9575	10.27222
2.958	-47.13135
2.9585	-69.79065
2.959	-70.29419
2.9595	-54.0802
2.96	-38.06763
2.9605	-17.01965
2.961	6.2439
2.9615	34.84497
2.962	52.26746
2.9625	71.09985
2.963	70.99915
2.9635	59.01489
2.964	55.89294
2.9645	57.30286
2.965	49.0448
2.9655	41.69312
2.966	36.95984
2.9665	23.8678
2.967	18.8324
2.9675	23.16284
2.968	18.32886
2.9685	9.97009
2.969	6.04248
2.9695	-0.90637
2.97	-8.45947
2.9705	-12.28638
2.971	-8.7616
2.9715	-16.91895
2.972	-63.14392
2.9725	-112.18872
2.973	-123.36731
2.9735	-115.00854
2.974	-99.70093
2.9745	-79.86145
2.975	-44.91577
2.9755	-22.15576
2.976	2.81982
2.9765	29.80957
2.977	46.22498
2.9775	60.4248
2.978	68.28003
2.9785	63.64746
2.979	71.60339
2.9795	69.28711
2.98	65.76233
2.9805	49.34692
2.981	44.0094
2.9815	36.95984
2.982	41.89453
2.9825	40.58533
2.983	41.89453
2.9835	31.32019
2.984	28.60107
2.9845	22.25647
2.985	20.84656
2.9855	13.29346
2.986	9.86938
2.9865	7.04956
2.987	-1.81274
2.9875	1.40991
2.988	-1.00708
2.9885	-1.71204
2.989	-5.43823
2.9895	-9.86938
2.99	-10.57434
2.9905	-13.69629
2.991	-9.36584
2.9915	-6.04248
2.992	-0.20142
2.9925	5.23682
2.993	-0.10071
2.9935	-0.70496
2.994	3.7262
2.9945	-0.60425
2.995	-5.43823
2.9955	-1.10779
2.996	-2.21558
2.9965	-8.66089
2.997	-9.66797
2.9975	-0.80566
2.998	-12.08496
2.9985	-14.50195
2.999	-48.23914
2.9995	-87.51526
3	-100.00305
3.0005	-107.25403
3.001	-113.59863
3.0015	-110.98022
3.002	-103.82996
3.0025	-93.96057
3.003	-78.35083
3.0035	-59.61914
3.004	-33.83789
3.0045	-8.56018
3.005	22.45789
3.0055	39.98108
3.006	59.51843
3.0065	78.25012
3.007	89.328
3.0075	94.76624
3.008	107.75757
3.0085	118.83545
3.009	119.64111
3.0095	117.22412
3.01	114.80713
3.0105	92.85278
3.011	80.56641
3.0115	64.45312
3.012	49.85046
3.0125	39.47754
3.013	39.57825
3.0135	33.83789
3.014	29.00391
3.0145	22.55859
3.015	36.05347
3.0155	31.32019
3.016	27.49329
3.0165	23.76709
3.017	20.84656
3.0175	21.75293
3.018	12.38708
3.0185	9.46655
3.019	8.56018
3.0195	8.56018
3.02	3.7262
3.0205	-6.54602
3.021	-4.22974
3.0215	-3.8269
3.022	-14.90479
3.0225	-29.30603
3.023	-32.42798
3.0235	-35.54993
3.024	-35.54993
3.0245	-37.86621
3.025	-36.75842
3.0255	-38.16833
3.026	-32.02515
3.0265	-25.27771
3.027	-13.59558
3.0275	-1.2085
3.028	2.81982
3.0285	8.66089
3.029	15.00549
3.0295	18.22815
3.03	24.57275
3.0305	19.94019
3.031	26.88904
3.0315	19.43665
3.032	18.73169
3.0325	14.60266
3.033	22.35718
3.0335	17.32178
3.034	10.37292
3.0345	3.32336
3.035	6.3446
3.0355	3.7262
3.036	5.43823
3.0365	13.19275
3.037	11.88354
3.0375	12.99133
3.038	7.85522
3.0385	4.02832
3.039	1.91345
3.0395	-3.02124
3.04	-14.90479
3.0405	-21.14868
3.041	-26.78833
3.0415	-26.3855
3.042	-28.09753
3.0425	-32.32727
3.043	-25.07629
3.0435	-19.94019
3.044	-15.50903
3.0445	-11.17859
3.045	-11.98425
3.0455	-33.73718
3.046	-67.47437
3.0465	-98.79456
3.047	-107.35474
3.0475	-106.14624
3.048	-96.67969
3.0485	-72.20764
3.049	-51.05896
3.0495	-19.23523
3.05	18.02673
3.0505	36.35559
3.051	57.30286
3.0515	68.88428
3.052	73.91968
3.0525	80.86853
3.053	78.45154
3.0535	69.48853
3.054	62.9425
3.0545	59.61914
3.055	56.79932
3.0555	61.93542
3.056	50.354
3.0565	43.00232
3.057	34.94568
3.0575	29.91028
3.058	26.88904
3.0585	34.24072
3.059	38.06763
3.0595	41.4917
3.06	31.82373
3.0605	24.57275
3.061	20.1416
3.0615	14.30054
3.062	8.7616
3.0625	7.85522
3.063	3.92761
3.0635	5.0354
3.064	10.67505
3.0645	14.30054
3.065	2.41699
3.0655	-6.14319
3.066	-8.45947
3.0665	-8.05664
3.067	-22.45789
3.0675	-43.90869
3.068	-55.69153
3.0685	-53.97949
3.069	-59.51843
3.0695	-55.79224
3.07	-54.58374
3.0705	-63.24463
3.071	-62.13684
3.0715	-55.49011
3.072	-44.41223
3.0725	-25.177
3.073	-14.19983
3.0735	-10.17151
3.074	2.11487
3.0745	3.92761
3.075	15.91187
3.0755	30.41382
3.076	45.92285
3.0765	51.76392
3.077	60.72693
3.0775	65.66162
3.078	63.74817
3.0785	41.4917
3.079	39.17542
3.0795	50.15259
3.08	46.22498
3.0805	46.5271
3.081	49.64905
3.0815	43.40515
3.082	35.65063
3.0825	20.44373
3.083	22.55859
3.0835	20.64514
3.084	14.09912
3.0845	-27.39258
3.085	-66.46729
3.0855	-73.51685
3.086	-60.52551
3.0865	-42.7002
3.087	-32.12585
3.0875	-16.21399
3.088	0.10071
3.0885	19.03381
3.089	30.51453
3.0895	40.1825
3.09	39.88037
3.0905	39.47754
3.091	33.73718
3.0915	26.98975
3.092	14.90479
3.0925	19.43665
3.093	14.09912
3.0935	19.23523
3.094	26.3855
3.0945	13.29346
3.095	-18.53027
3.0955	-47.23206
3.096	-55.59082
3.0965	-51.05896
3.097	-36.65771
3.0975	-17.42249
3.098	0.20142
3.0985	17.01965
3.099	29.20532
3.0995	38.26904
3.1	49.34692
3.1005	56.90002
3.101	49.95117
3.1015	52.67029
3.102	55.18799
3.1025	54.78516
3.103	40.88745
3.1035	26.3855
3.104	6.14319
3.1045	-10.57434
3.105	-10.17151
3.1055	-9.56726
3.106	-16.11328
3.1065	-12.38708
3.107	-8.56018
3.1075	-10.27222
3.108	-13.39417
3.1085	3.42407
3.109	18.02673
3.1095	31.21948
3.11	28.80249
3.1105	31.72302
3.111	26.88904
3.1115	20.1416
3.112	18.63098
3.1125	12.18567
3.113	-20.64514
3.1135	-40.38391
3.114	-54.28162
3.1145	-51.36108
3.115	-50.45471
3.1155	-39.88037
3.116	-27.29187
3.1165	-10.0708
3.117	6.14319
3.1175	21.04797
3.118	33.63647
3.1185	37.16125
3.119	41.4917
3.1195	46.12427
3.12	46.02356
3.1205	38.06763
3.121	29.80957
3.1215	24.27063
3.122	20.34302
3.1225	10.27222
3.123	13.797
3.1235	16.81824
3.124	10.37292
3.1245	13.29346
3.125	12.78992
3.1255	8.15735
3.126	0.90637
3.1265	1.40991
3.127	2.81982
3.1275	-3.7262
3.128	-5.63965
3.1285	-12.28638
3.129	-24.97559
3.1295	-35.04639
3.13	-34.44214
3.1305	-40.98816
3.131	-75.93384
3.1315	-104.83704
3.132	-102.31934
3.1325	-87.31384
3.133	-61.12976
3.1335	-29.70886
3.134	-6.2439
3.1345	11.17859
3.135	20.54443
3.1355	29.80957
3.136	27.09045
3.1365	28.39966
3.137	28.60107
3.1375	34.03931
3.138	37.86621
3.1385	36.35559
3.139	36.4563
3.1395	33.33435
3.14	31.4209
3.1405	30.81665
3.141	36.85913
3.1415	35.2478
3.142	43.90869
3.1425	46.5271
3.143	45.62073
3.1435	45.3186
3.144	35.85205
3.1445	36.35559
3.145	39.67896
3.1455	34.64355
3.146	23.66638
3.1465	7.5531
3.147	-2.11487
3.1475	-14.60266
3.148	-21.55151
3.1485	-33.83789
3.149	-38.47046
3.1495	-30.31311
3.15	-22.6593
3.1505	-24.67346
3.151	-13.99841
3.1515	-7.04956
3.152	6.84814
3.1525	20.44373
3.153	25.47913
3.1535	31.32019
3.154	39.88037
3.1545	31.52161
3.155	13.99841
3.1555	-7.5531
3.156	-15.50903
3.1565	-17.6239
3.157	-6.74744
3.1575	3.12195
3.158	4.63257
3.1585	5.13611
3.159	11.88354
3.1595	5.53894
3.16	8.96301
3.1605	21.3501
3.161	29.70886
3.1615	31.01807
3.162	23.66638
3.1625	23.26355
3.163	20.44373
3.1635	10.87646
3.164	9.56726
3.1645	-2.61841
3.165	-2.5177
3.1655	-9.56726
3.166	-10.57434
3.1665	2.41699
3.167	-6.44531
3.1675	-10.97717
3.168	-14.80408
3.1685	-21.04797
3.169	-17.6239
3.1695	-22.6593
3.17	-20.64514
3.1705	-11.98425
3.171	-13.19275
3.1715	-17.6239
3.172	-9.97009
3.1725	-6.64673
3.173	-6.04248
3.1735	-6.3446
3.174	-11.68213
3.1745	-6.94885
3.175	-1.71204
3.1755	-0.90637
3.176	1.61133
3.1765	4.33044
3.177	4.22974
3.1775	0
3.178	-1.51062
3.1785	-8.7616
3.179	-6.74744
3.1795	-9.46655
3.18	-8.8623
3.1805	-3.22266
3.181	1.81274
3.1815	-8.66089
3.182	-7.45239
3.1825	-5.84106
3.183	-5.94177
3.1835	-5.13611
3.184	-2.21558
3.1845	1.81274
3.185	4.83398
3.1855	3.02124
3.186	-8.96301
3.1865	-17.92603
3.187	-23.26355
3.1875	-29.80957
3.188	-27.29187
3.1885	-22.45789
3.189	-20.54443
3.1895	-14.30054
3.19	-10.67505
3.1905	-2.71912
3.191	7.25098
3.1915	11.17859
3.192	15.50903
3.1925	23.56567
3.193	12.99133
3.1935	5.43823
3.194	-3.42407
3.1945	-13.29346
3.195	-11.98425
3.1955	-4.43115
3.196	8.8623
3.1965	19.94019
3.197	17.72461
3.1975	20.1416
3.198	17.32178
3.1985	19.63806
3.199	24.37134
3.1995	27.19116
3.2	21.85364
3.2005	15.20691
3.201	19.43665
3.2015	18.63098
3.202	12.18567
3.2025	19.94019
3.203	24.16992
3.2035	23.66638
3.204	33.23364
3.2045	46.22498
3.205	50.15259
3.2055	49.95117
3.206	44.0094
3.2065	42.49878
3.207	45.41931
3.2075	40.48462
3.208	36.05347
3.2085	32.42798
3.209	28.60107
3.2095	22.15576
3.21	19.23523
3.2105	15.30762
3.211	21.04797
3.2115	20.04089
3.212	10.67505
3.2125	11.68213
3.213	6.74744
3.2135	4.73328
3.214	-2.31628
3.2145	3.42407
3.215	-4.73328
3.2155	-14.09912
3.216	-36.25488
3.2165	-98.39172
3.217	-164.05334
3.2175	-187.01477
3.218	-177.64893
3.2185	-152.47192
3.219	-116.11633
3.2195	-56.39648
3.22	-3.8269
3.2205	46.5271
3.221	92.04712
3.2215	120.95032
3.222	137.66785
3.2225	139.88342
3.223	129.30908
3.2235	112.99438
3.224	118.2312
3.2245	111.68518
3.225	94.06128
3.2255	41.29028
3.226	0.30212
3.2265	-19.94019
3.227	-17.01965
3.2275	-9.16443
3.228	-0.40283
3.2285	12.99133
3.229	21.14868
3.2295	19.13452
3.23	3.42407
3.2305	-4.83398
3.231	-4.83398
3.2315	2.21558
3.232	5.43823
3.2325	19.13452
3.233	25.68054
3.2335	21.75293
3.234	17.72461
3.2345	20.64514
3.235	33.43506
3.2355	49.44763
3.236	51.36108
3.2365	48.23914
3.237	38.47046
3.2375	24.57275
3.238	14.80408
3.2385	3.7262
3.239	3.8269
3.2395	-3.62549
3.24	-0.50354
3.2405	-1.40991
3.241	5.33752
3.2415	8.35876
3.242	9.76868
3.2425	12.38708
3.243	21.3501
3.2435	30.01099
3.244	31.52161
3.2445	36.25488
3.245	31.62231
3.2455	28.09753
3.246	33.33435
3.2465	33.9386
3.247	26.58691
3.2475	23.66638
3.248	17.42249
3.2485	15.91187
3.249	11.48071
3.2495	9.26514
3.25	12.08496
3.2505	6.54602
3.251	6.54602
3.2515	6.84814
3.252	0.90637
3.2525	3.02124
3.253	10.0708
3.2535	11.17859
3.254	12.78992
3.2545	8.45947
3.255	6.84814
3.2555	8.7616
3.256	-1.81274
3.2565	-5.13611
3.257	-11.68213
3.2575	-14.60266
3.258	-11.68213
3.2585	-15.1062
3.259	-12.18567
3.2595	-9.36584
3.26	-10.27222
3.2605	-9.76868
3.261	-11.38
3.2615	-23.26355
3.262	-26.58691
3.2625	-29.10461
3.263	-30.41382
3.2635	-34.84497
3.264	-33.03223
3.2645	-26.58691
3.265	-23.66638
3.2655	-20.34302
3.266	-21.85364
3.2665	-7.65381
3.267	0.90637
3.2675	16.61682
3.268	16.01257
3.2685	19.73877
3.269	16.91895
3.2695	14.19983
3.27	3.52478
3.2705	-48.44055
3.271	-90.33508
3.2715	-107.05261
3.272	-102.72217
3.2725	-92.34924
3.273	-68.38074
3.2735	-39.17542
3.274	-4.83398
3.2745	15.91187
3.275	45.01648
3.2755	60.72693
3.276	66.16516
3.2765	61.53259
3.277	48.74268
3.2775	40.08179
3.278	25.78125
3.2785	12.89062
3.279	-15.20691
3.2795	-27.29187
3.28	-35.44922
3.2805	-37.06055
3.281	-28.39966
3.2815	-13.39417
3.282	-2.61841
3.2825	7.75452
3.283	20.44373
3.2835	32.93152
3.284	33.33435
3.2845	43.60657
3.285	51.46179
3.2855	69.99207
3.286	86.10535
3.2865	85.60181
3.287	77.64587
3.2875	52.771
3.288	38.26904
3.2885	35.04639
3.289	35.54993
3.2895	27.79541
3.29	21.14868
3.2905	11.88354
3.291	12.28638
3.2915	6.2439
3.292	9.76868
3.2925	4.02832
3.293	5.53894
3.2935	4.53186
3.294	4.93469
3.2945	9.06372
3.295	9.46655
3.2955	6.14319
3.296	7.25098
3.2965	6.44531
3.297	10.87646
3.2975	7.85522
3.298	3.12195
3.2985	8.15735
3.299	5.23682
3.2995	4.12903
3.3	1.51062
3.3005	1.51062
3.301	-5.63965
3.3015	-0.80566
3.302	-5.94177
3.3025	0.20142
3.303	-3.8269
3.3035	-16.91895
3.304	-22.35718
3.3045	-20.64514
3.305	-17.22107
3.3055	-17.52319
3.306	-11.78284
3.3065	-8.96301
3.307	-6.2439
3.3075	-4.53186
3.308	-1.10779
3.3085	1.2085
3.309	7.95593
3.3095	14.09912
3.31	12.28638
3.3105	16.71753
3.311	18.22815
3.3115	11.68213
3.312	7.35168
3.3125	1.81274
3.313	-5.74036
3.3135	-5.74036
3.314	2.81982
3.3145	-18.73169
3.315	-51.15967
3.3155	-57.70569
3.316	-45.82214
3.3165	-31.01807
3.317	-39.57825
3.3175	-28.19824
3.318	-30.2124
3.3185	-20.1416
3.319	-6.74744
3.3195	8.45947
3.32	23.16284
3.3205	33.13293
3.321	44.71436
3.3215	51.05896
3.322	50.85754
3.3225	49.24622
3.323	41.69312
3.3235	39.37683
3.324	31.32019
3.3245	5.84106
3.325	-37.36267
3.3255	-53.27454
3.326	-54.38232
3.3265	-46.72852
3.327	-37.7655
3.3275	-21.14868
3.328	-4.63257
3.3285	13.39417
3.329	26.98975
3.3295	36.4563
3.33	36.95984
3.3305	27.29187
3.331	5.33752
3.3315	-15.60974
3.332	-32.42798
3.3325	-49.64905
3.333	-59.71985
3.3335	-65.05737
3.334	-64.151
3.3345	-53.07312
3.335	-33.9386
3.3355	-5.74036
3.336	13.29346
3.3365	34.64355
3.337	55.49011
3.3375	65.25879
3.338	72.81189
3.3385	67.97791
3.339	55.2887
3.3395	58.81348
3.34	66.56799
3.3405	76.7395
3.341	41.69312
3.3415	-15.30762
3.342	-48.03772
3.3425	-61.43188
3.343	-62.03613
3.3435	-54.78516
3.344	-39.77966
3.3445	-26.88904
3.345	-10.57434
3.3455	1.81274
3.346	6.64673
3.3465	7.95593
3.347	14.40125
3.3475	25.98267
3.348	32.83081
3.3485	37.46338
3.349	50.75684
3.3495	62.9425
3.35	69.08569
3.3505	73.21472
3.351	81.67419
3.3515	81.67419
3.352	68.78357
3.3525	66.6687
3.353	68.07861
3.3535	62.8418
3.354	49.44763
3.3545	41.18958
3.355	32.02515
3.3555	17.72461
3.356	18.02673
3.3565	19.03381
3.357	21.3501
3.3575	22.86072
3.358	13.29346
3.3585	12.89062
3.359	5.33752
3.3595	7.15027
3.36	4.12903
3.3605	2.21558
3.361	-2.01416
3.3615	-9.56726
3.362	-7.85522
3.3625	3.7262
3.363	1.10779
3.3635	3.12195
3.364	8.15735
3.3645	0.20142
3.365	-7.85522
3.3655	-3.92761
3.366	-2.71912
3.3665	-9.97009
3.367	-6.44531
3.3675	-6.14319
3.368	-4.53186
3.3685	-4.53186
3.369	-11.2793
3.3695	-17.92603
3.37	-20.54443
3.3705	-15.60974
3.371	-14.80408
3.3715	-12.5885
3.372	-15.1062
3.3725	-12.89062
3.373	-6.3446
3.3735	-0.70496
3.374	3.52478
3.3745	-0.30212
3.375	1.3092
3.3755	3.12195
3.376	-8.35876
3.3765	-25.37842
3.377	-25.98267
3.3775	-22.15576
3.378	-19.43665
3.3785	-11.2793
3.379	-4.02832
3.3795	4.22974
3.38	13.09204
3.3805	14.90479
3.381	19.43665
3.3815	15.20691
3.382	23.46497
3.3825	26.18408
3.383	21.3501
3.3835	20.1416
3.384	11.17859
3.3845	2.71912
3.385	-11.98425
3.3855	-26.28479
3.386	-39.17542
3.3865	-46.82922
3.387	-54.18091
3.3875	-60.52551
3.388	-54.28162
3.3885	-47.7356
3.389	-38.36975
3.3895	-32.22656
3.39	-14.70337
3.3905	9.36584
3.391	26.18408
3.3915	50.85754
3.392	60.62622
3.3925	60.52551
3.393	65.76233
3.3935	46.32568
3.394	35.14709
3.3945	14.40125
3.395	-6.54602
3.3955	-7.85522
3.396	-8.45947
3.3965	1.71204
3.397	1.40991
3.3975	1.00708
3.398	9.76868
3.3985	6.64673
3.399	10.37292
3.3995	18.22815
3.4	21.45081
3.4005	22.25647
3.401	19.53735
3.4015	11.88354
3.402	8.8623
3.4025	14.09912
3.403	14.90479
3.4035	11.07788
3.404	14.40125
3.4045	12.99133
3.405	8.45947
3.4055	3.92761
3.406	8.05664
3.4065	5.13611
3.407	13.69629
3.4075	20.64514
3.408	15.81116
3.4085	17.22107
3.409	15.71045
3.4095	17.12036
3.41	8.7616
3.4105	-4.02832
3.411	-48.13843
3.4115	-74.12109
3.412	-74.52393
3.4125	-61.33118
3.413	-45.3186
3.4135	-32.83081
3.414	-18.63098
3.4145	-20.04089
3.415	-14.90479
3.4155	-5.63965
3.416	-4.43115
3.4165	-9.06372
3.417	-12.89062
3.4175	-7.35168
3.418	0.30212
3.4185	5.63965
3.419	2.21558
3.4195	6.2439
3.42	19.33594
3.4205	36.35559
3.421	44.31152
3.4215	57.60498
3.422	64.65454
3.4225	69.58923
3.423	61.83472
3.4235	57.40356
3.424	47.43347
3.4245	28.50037
3.425	16.61682
3.4255	23.66638
3.426	28.50037
3.4265	27.39258
3.427	17.32178
3.4275	19.83948
3.428	6.94885
3.4285	8.45947
3.429	11.2793
3.4295	8.66089
3.43	3.42407
3.4305	2.5177
3.431	8.7616
3.4315	11.17859
3.432	16.01257
3.4325	8.7616
3.433	-18.02673
3.4335	-65.25879
3.434	-86.8103
3.4345	-96.17615
3.435	-94.06128
3.4355	-85.70251
3.436	-67.57507
3.4365	-54.68445
3.437	-46.32568
3.4375	-29.30603
3.438	-17.32178
3.4385	-2.21558
3.439	2.71912
3.4395	10.67505
3.44	9.06372
3.4405	15.00549
3.441	15.50903
3.4415	7.25098
3.442	4.02832
3.4425	10.77576
3.443	18.93311
3.4435	27.59399
3.444	48.23914
3.4445	56.19507
3.445	55.2887
3.4455	56.49719
3.446	49.0448
3.4465	33.73718
3.447	41.89453
3.4475	41.29028
3.448	55.79224
3.4485	61.02905
3.449	61.53259
3.4495	33.43506
3.45	-12.78992
3.4505	-42.7002
3.451	-49.54834
3.4515	-37.86621
3.452	-19.94019
3.4525	-1.61133
3.453	6.84814
3.4535	5.84106
3.454	1.00708
3.4545	11.88354
3.455	17.01965
3.4555	20.24231
3.456	21.75293
3.4565	22.55859
3.457	28.19824
3.4575	22.25647
3.458	19.13452
3.4585	14.19983
3.459	7.45239
3.4595	5.23682
3.46	17.92603
3.4605	29.80957
3.461	40.98816
3.4615	41.29028
3.462	35.44922
3.4625	24.57275
3.463	18.53027
3.4635	9.66797
3.464	2.21558
3.4645	0.60425
3.465	-6.64673
3.4655	-11.68213
3.466	-20.34302
3.4665	-30.01099
3.467	-30.71594
3.4675	-40.98816
3.468	-39.17542
3.4685	-29.20532
3.469	-21.55151
3.4695	-5.63965
3.47	11.48071
3.4705	21.3501
3.471	24.27063
3.4715	35.34851
3.472	37.7655
3.4725	34.64355
3.473	31.01807
3.4735	31.4209
3.474	25.37842
3.4745	24.06921
3.475	19.63806
3.4755	21.14868
3.476	22.6593
3.4765	26.08337
3.477	27.29187
3.4775	22.76001
3.478	28.39966
3.4785	21.95435
3.479	14.60266
3.4795	-6.54602
3.48	-40.1825
3.4805	-94.96765
3.481	-130.21545
3.4815	-134.5459
3.482	-117.62695
3.4825	-92.44995
3.483	-68.88428
3.4835	-39.07471
3.484	-7.15027
3.4845	17.32178
3.485	36.4563
3.4855	57.70569
3.486	65.86304
3.4865	70.19348
3.487	73.81897
3.4875	67.47437
3.488	65.86304
3.4885	57.40356
3.489	57.8064
3.4895	52.56958
3.49	50.15259
3.4905	46.62781
3.491	40.88745
3.4915	33.63647
3.492	-0.80566
3.4925	-32.42798
3.493	-45.3186
3.4935	-40.88745
3.494	-47.33276
3.4945	-46.72852
3.495	-33.13293
3.4955	-19.13452
3.496	-1.61133
3.4965	11.2793
3.497	25.37842
3.4975	38.36975
3.498	37.96692
3.4985	39.98108
3.499	46.42639
3.4995	46.72852
3.5	39.98108
3.5005	40.1825
3.501	38.16833
3.5015	35.75134
3.502	30.91736
3.5025	26.28479
3.503	15.30762
3.5035	10.47363
3.504	6.2439
3.5045	2.21558
3.505	-1.10779
3.5055	-5.84106
3.506	-2.31628
3.5065	5.33752
3.507	2.01416
3.5075	2.61841
3.508	-2.81982
3.5085	-14.09912
3.509	-15.50903
3.5095	-16.71753
3.51	-12.48779
3.5105	-12.08496
3.511	-7.65381
3.5115	-5.84106
3.512	-8.45947
3.5125	-2.21558
3.513	-7.5531
3.5135	-3.02124
3.514	-5.23682
3.5145	2.92053
3.515	-1.3092
3.5155	11.48071
3.516	8.25806
3.5165	10.0708
3.517	9.36584
3.5175	6.84814
3.518	2.31628
3.5185	0.30212
3.519	-0.40283
3.5195	-14.30054
3.52	-38.36975
3.5205	-55.18799
3.521	-47.8363
3.5215	-46.92993
3.522	-46.92993
3.5225	-38.36975
3.523	-27.29187
3.5235	-23.8678
3.524	-4.12903
3.5245	4.63257
3.525	16.41541
3.5255	27.09045
3.526	42.19666
3.5265	42.8009
3.527	48.54126
3.5275	52.06604
3.528	53.27454
3.5285	46.5271
3.529	42.8009
3.5295	36.35559
3.53	34.84497
3.5305	27.59399
3.531	-7.15027
3.5315	-60.62622
3.532	-101.8158
3.5325	-116.922
3.533	-117.52625
3.5335	-105.34058
3.534	-87.81738
3.5345	-64.65454
3.535	-39.57825
3.5355	-14.30054
3.536	20.74585
3.5365	52.26746
3.537	77.74658
3.5375	93.65845
3.538	97.98889
3.5385	93.65845
3.539	80.56641
3.5395	64.85596
3.54	69.58923
3.5405	65.86304
3.541	50.354
3.5415	36.75842
3.542	22.76001
3.5425	3.52478
3.543	5.43823
3.5435	13.39417
3.544	9.76868
3.5445	13.59558
3.545	15.00549
3.5455	4.22974
3.546	-6.94885
3.5465	-12.99133
3.547	-17.6239
3.5475	-18.63098
3.548	-12.5885
3.5485	-7.75452
3.549	-0.90637
3.5495	-3.8269
3.55	-6.44531
3.5505	4.22974
3.551	5.94177
3.5515	6.3446
3.552	11.98425
3.5525	23.26355
3.553	25.88196
3.5535	33.13293
3.554	29.30603
3.5545	20.54443
3.555	5.74036
3.5555	-13.49487
3.556	-36.85913
3.5565	-53.37524
3.557	-66.97083
3.5575	-59.01489
3.558	-65.05737
3.5585	-62.8418
3.559	-62.13684
3.5595	-61.6333
3.56	-45.92285
3.5605	-33.03223
3.561	-18.73169
3.5615	2.01416
3.562	11.68213
3.5625	25.57983
3.563	31.62231
3.5635	40.58533
3.564	45.2179
3.5645	58.51135
3.565	66.46729
3.5655	75.63171
3.566	72.61047
3.5665	63.04321
3.567	40.98816
3.5675	29.60815
3.568	24.47205
3.5685	20.94727
3.569	20.04089
3.5695	25.47913
3.57	23.66638
3.5705	22.76001
3.571	21.95435
3.5715	22.05505
3.572	26.88904
3.5725	28.9032
3.573	34.24072
3.5735	41.79382
3.574	30.81665
3.5745	20.74585
3.575	11.2793
3.5755	1.40991
3.576	-0.90637
3.5765	-4.73328
3.577	0.10071
3.5775	2.71912
3.578	2.31628
3.5785	1.2085
3.579	-0.20142
3.5795	1.71204
3.58	-0.60425
3.5805	-5.23682
3.581	-0.90637
3.5815	-4.02832
3.582	2.21558
3.5825	9.76868
3.583	8.8623
3.5835	8.45947
3.584	0.20142
3.5845	-5.43823
3.585	-45.72144
3.5855	-71.90552
3.586	-83.48694
3.5865	-80.66711
3.587	-66.56799
3.5875	-47.03064
3.588	-25.88196
3.5885	-9.26514
3.589	-4.02832
3.5895	14.30054
3.59	21.14868
3.5905	20.54443
3.591	23.56567
3.5915	23.66638
3.592	28.70178
3.5925	26.98975
3.593	9.56726
3.5935	-12.28638
3.594	-32.02515
3.5945	-37.86621
3.595	-39.88037
3.5955	-34.03931
3.596	-30.31311
3.5965	-18.53027
3.597	-1.00708
3.5975	2.61841
3.598	25.68054
3.5985	47.93701
3.599	62.13684
3.5995	64.05029
3.6	61.23047
3.6005	58.91418
3.601	47.8363
3.6015	60.12268
3.602	54.88586
3.6025	48.54126
3.603	31.72302
3.6035	24.47205
3.604	15.1062
3.6045	17.92603
3.605	17.01965
3.6055	11.48071
3.606	8.8623
3.6065	3.8269
3.607	3.8269
3.6075	4.83398
3.608	-3.52478
3.6085	-10.87646
3.609	-13.29346
3.6095	-17.32178
3.61	-12.78992
3.6105	-8.96301
3.611	0.50354
3.6115	10.57434
3.612	17.92603
3.6125	20.1416
3.613	15.91187
3.6135	13.19275
3.614	16.3147
3.6145	9.86938
3.615	-10.47363
3.6155	-27.59399
3.616	-36.65771
3.6165	-42.39807
3.617	-43.80798
3.6175	-37.7655
3.618	-32.83081
3.6185	-22.35718
3.619	-22.45789
3.6195	-19.23523
3.62	-3.12195
3.6205	10.27222
3.621	21.04797
3.6215	33.03223
3.622	38.57117
3.6225	43.20374
3.623	43.50586
3.6235	44.31152
3.624	41.79382
3.6245	3.42407
3.625	-51.86462
3.6255	-79.35791
3.626	-70.49561
3.6265	-74.42322
3.627	-102.92358
3.6275	-107.35474
3.628	-82.88269
3.6285	-48.94409
3.629	-21.85364
3.6295	12.08496
3.63	36.05347
3.6305	56.19507
3.631	71.80481
3.6315	87.91809
3.632	91.14075
3.6325	90.23438
3.633	83.28552
3.6335	74.2218
3.634	72.61047
3.6345	70.89844
3.635	60.22339
3.6355	48.54126
3.636	40.48462
3.6365	38.06763
3.637	30.41382
3.6375	24.97559
3.638	15.00549
3.6385	4.02832
3.639	-6.84814
3.6395	-15.20691
3.64	-22.96143
3.6405	-23.36426
3.641	-26.18408
3.6415	-21.45081
3.642	-10.17151
3.6425	3.42407
3.643	7.65381
3.6435	11.38
3.644	15.00549
3.6445	26.3855
3.645	38.57117
3.6455	43.10303
3.646	47.23206
3.6465	34.34143
3.647	15.20691
3.6475	5.23682
3.648	18.12744
3.6485	19.63806
3.649	21.3501
3.6495	15.30762
3.65	1.3092
3.6505	-2.5177
3.651	-5.23682
3.6515	-36.75842
3.652	-67.67578
3.6525	-69.08569
3.653	-60.12268
3.6535	-44.81506
3.654	-31.4209
3.6545	-21.75293
3.655	-7.45239
3.6555	6.64673
3.656	17.01965
3.6565	27.29187
3.657	33.43506
3.6575	29.80957
3.658	35.75134
3.6585	39.77966
3.659	37.06055
3.6595	26.88904
3.66	14.80408
3.6605	6.04248
3.661	0.50354
3.6615	-3.02124
3.662	6.44531
3.6625	9.16443
3.663	13.59558
3.6635	18.63098
3.664	30.81665
3.6645	35.04639
3.665	32.52869
3.6655	20.24231
3.666	16.01257
3.6665	9.76868
3.667	-6.64673
3.6675	-22.76001
3.668	-30.91736
3.6685	-34.24072
3.669	-36.55701
3.6695	-34.14001
3.67	-26.3855
3.6705	-20.54443
3.671	-5.0354
3.6715	1.00708
3.672	21.14868
3.6725	26.98975
3.673	7.04956
3.6735	-20.34302
3.674	-32.7301
3.6745	-34.03931
3.675	-26.48621
3.6755	-12.28638
3.676	-0.50354
3.6765	8.25806
3.677	25.177
3.6775	40.58533
3.678	57.60498
3.6785	61.23047
3.679	53.67737
3.6795	54.78516
3.68	53.07312
3.6805	43.50586
3.681	29.40674
3.6815	19.43665
3.682	9.56726
3.6825	6.3446
3.683	4.12903
3.6835	4.53186
3.684	-6.14319
3.6845	-26.88904
3.685	-39.07471
3.6855	-43.30444
3.686	-48.33984
3.6865	-59.41772
3.687	-48.94409
3.6875	-38.47046
3.688	-27.59399
3.6885	-12.08496
3.689	-7.5531
3.6895	-10.27222
3.69	-7.85522
3.6905	0.20142
3.691	-4.33044
3.6915	-2.71912
3.692	-1.61133
3.6925	-12.99133
3.693	-2.41699
3.6935	-11.98425
3.694	0.60425
3.6945	13.59558
3.695	33.43506
3.6955	42.19666
3.696	46.72852
3.6965	47.53418
3.697	48.03772
3.6975	46.5271
3.698	50.45471
3.6985	59.82056
3.699	65.3595
3.6995	67.77649
3.7	68.38074
3.7005	54.58374
3.701	44.31152
3.7015	33.23364
3.702	28.29895
3.7025	20.94727
3.703	15.30762
3.7035	12.08496
3.704	3.92761
3.7045	4.53186
3.705	6.64673
3.7055	10.87646
3.706	6.94885
3.7065	4.93469
3.707	4.93469
3.7075	7.04956
3.708	9.56726
3.7085	11.07788
3.709	6.04248
3.7095	5.43823
3.71	0.10071
3.7105	6.04248
3.711	3.42407
3.7115	-2.11487
3.712	-9.86938
3.7125	-16.61682
3.713	-27.89612
3.7135	-24.27063
3.714	-23.46497
3.7145	-21.04797
3.715	-24.77417
3.7155	-22.25647
3.716	-20.1416
3.7165	-16.81824
3.717	-7.25098
3.7175	-5.94177
3.718	-2.71912
3.7185	-1.40991
3.719	-0.30212
3.7195	8.66089
3.72	3.7262
3.7205	0.90637
3.721	5.74036
3.7215	6.84814
3.722	6.54602
3.7225	16.91895
3.723	21.04797
3.7235	27.19116
3.724	38.57117
3.7245	42.09595
3.725	33.63647
3.7255	38.16833
3.726	31.62231
3.7265	25.07629
3.727	23.96851
3.7275	18.73169
3.728	12.28638
3.7285	16.91895
3.729	10.27222
3.7295	3.52478
3.73	-3.12195
3.7305	-1.3092
3.731	5.63965
3.7315	19.53735
3.732	20.24231
3.7325	24.27063
3.733	21.3501
3.7335	12.5885
3.734	7.65381
3.7345	-0.20142
3.735	-11.88354
3.7355	-24.87488
3.736	-28.60107
3.7365	-20.74585
3.737	-15.20691
3.7375	-6.84814
3.738	-1.40991
3.7385	0.60425
3.739	-1.81274
3.7395	-3.92761
3.74	-8.45947
3.7405	-11.78284
3.741	-8.05664
3.7415	-8.66089
3.742	-8.8623
3.7425	-8.66089
3.743	-5.0354
3.7435	-6.94885
3.744	-6.14319
3.7445	-11.38
3.745	-21.04797
3.7455	-38.77258
3.746	-51.05896
3.7465	-49.74976
3.747	-51.76392
3.7475	-70.09277
3.748	-108.46252
3.7485	-112.49084
3.749	-106.34766
3.7495	-85.80322
3.75	-55.2887
3.7505	-32.02515
3.751	-2.5177
3.7515	19.53735
3.752	37.16125
3.7525	52.97241
3.753	62.23755
3.7535	60.72693
3.754	59.1156
3.7545	37.26196
3.755	14.19983
3.7555	-6.54602
3.756	-25.78125
3.7565	-27.59399
3.757	-28.9032
3.7575	-22.05505
3.758	-13.797
3.7585	2.61841
3.759	16.51611
3.7595	29.20532
3.76	22.25647
3.7605	21.24939
3.761	18.12744
3.7615	21.45081
3.762	13.19275
3.7625	13.89771
3.763	6.14319
3.7635	-24.16992
3.764	-55.99365
3.7645	-59.61914
3.765	-49.14551
3.7655	-26.18408
3.766	-4.22974
3.7665	13.59558
3.767	32.93152
3.7675	54.98657
3.768	64.45312
3.7685	64.45312
3.769	53.97949
3.7695	20.1416
3.77	5.94177
3.7705	3.8269
3.771	5.63965
3.7715	10.27222
3.772	15.00549
3.7725	24.16992
3.773	45.52002
3.7735	65.25879
3.774	71.90552
3.7745	73.71826
3.775	67.67578
3.7755	60.92834
3.776	59.71985
3.7765	62.03613
3.777	54.98657
3.7775	41.99524
3.778	24.77417
3.7785	2.11487
3.779	-11.58142
3.7795	-19.94019
3.78	-17.42249
3.7805	-19.03381
3.781	-19.23523
3.7815	-10.0708
3.782	-3.7262
3.7825	5.53894
3.783	11.38
3.7835	23.76709
3.784	32.93152
3.7845	42.8009
3.785	41.18958
3.7855	36.55701
3.786	39.47754
3.7865	34.54285
3.787	27.09045
3.7875	20.54443
3.788	10.57434
3.7885	2.5177
3.789	8.96301
3.7895	5.94177
3.79	-7.95593
3.7905	-12.38708
3.791	-9.46655
3.7915	-8.66089
3.792	-10.87646
3.7925	-19.83948
3.793	-10.47363
3.7935	-14.40125
3.794	-8.8623
3.7945	6.94885
3.795	16.51611
3.7955	28.19824
3.796	34.74426
3.7965	42.39807
3.797	44.41223
3.7975	45.41931
3.798	51.05896
3.7985	41.08887
3.799	35.2478
3.7995	27.99683
3.8	-20.64514
3.8005	-67.07153
3.801	-80.86853
3.8015	-73.71826
3.802	-61.02905
3.8025	-39.67896
3.803	-12.89062
3.8035	11.38
3.804	24.97559
3.8045	36.4563
