Cristian_Larivera_Left_2.c3d  



Time(s):	B_L_bicipite(μV):
0	5.43823
0.0005	-2.31628
0.001	-1.51062
0.0015	2.41699
0.002	2.81982
0.0025	0
0.003	2.81982
0.0035	2.61841
0.004	2.71912
0.0045	0.50354
0.005	-1.91345
0.0055	1.2085
0.006	-0.90637
0.0065	5.33752
0.007	4.43115
0.0075	4.43115
0.008	18.8324
0.0085	15.40833
0.009	20.04089
0.0095	14.50195
0.01	8.15735
0.0105	4.83398
0.011	10.87646
0.0115	7.5531
0.012	7.75452
0.0125	2.41699
0.013	1.40991
0.0135	4.73328
0.014	-6.44531
0.0145	-8.8623
0.015	-9.66797
0.0155	-11.78284
0.016	-5.84106
0.0165	-3.22266
0.017	-2.61841
0.0175	-1.00708
0.018	0.30212
0.0185	3.7262
0.019	5.23682
0.0195	10.17151
0.02	15.60974
0.0205	22.35718
0.021	20.84656
0.0215	21.75293
0.022	25.98267
0.0225	21.45081
0.023	20.34302
0.0235	16.61682
0.024	4.12903
0.0245	2.5177
0.025	1.51062
0.0255	2.21558
0.026	1.2085
0.0265	7.95593
0.027	8.56018
0.0275	11.88354
0.028	17.92603
0.0285	17.22107
0.029	6.44531
0.0295	11.17859
0.03	10.37292
0.0305	7.95593
0.031	1.71204
0.0315	-4.43115
0.032	-3.8269
0.0325	-7.75452
0.033	-7.45239
0.0335	-8.45947
0.034	-8.56018
0.0345	-12.28638
0.035	-6.54602
0.0355	-9.56726
0.036	-1.10779
0.0365	0.90637
0.037	8.15735
0.0375	10.37292
0.038	16.11328
0.0385	16.51611
0.039	17.12036
0.0395	14.80408
0.04	9.46655
0.0405	5.63965
0.041	4.43115
0.0415	-3.32336
0.042	-2.01416
0.0425	-7.85522
0.043	-17.52319
0.0435	-15.60974
0.044	-8.96301
0.0445	-13.49487
0.045	-7.25098
0.0455	1.71204
0.046	9.26514
0.0465	18.42957
0.047	19.53735
0.0475	16.01257
0.048	15.81116
0.0485	16.91895
0.049	14.50195
0.0495	9.36584
0.05	10.0708
0.0505	-1.00708
0.051	1.81274
0.0515	-1.3092
0.052	-0.20142
0.0525	-1.91345
0.053	1.2085
0.0535	5.74036
0.054	5.13611
0.0545	2.21558
0.055	8.25806
0.0555	1.00708
0.056	-0.20142
0.0565	2.21558
0.057	5.13611
0.0575	3.22266
0.058	7.04956
0.0585	11.2793
0.059	11.88354
0.0595	8.96301
0.06	10.37292
0.0605	15.50903
0.061	13.39417
0.0615	20.1416
0.062	19.53735
0.0625	16.01257
0.063	10.77576
0.0635	14.70337
0.064	9.76868
0.0645	2.21558
0.065	0.60425
0.0655	-3.42407
0.066	0.20142
0.0665	-4.73328
0.067	-1.71204
0.0675	3.12195
0.068	2.5177
0.0685	3.42407
0.069	2.81982
0.0695	2.11487
0.07	7.45239
0.0705	5.23682
0.071	7.65381
0.0715	3.02124
0.072	6.3446
0.0725	4.83398
0.073	8.05664
0.0735	10.17151
0.074	14.60266
0.0745	5.94177
0.075	1.81274
0.0755	4.43115
0.076	6.94885
0.0765	3.8269
0.077	2.92053
0.0775	2.11487
0.078	3.62549
0.0785	2.01416
0.079	4.22974
0.0795	-0.50354
0.08	2.71912
0.0805	2.41699
0.081	1.81274
0.0815	4.63257
0.082	6.04248
0.0825	5.84106
0.083	10.67505
0.0835	11.17859
0.084	14.30054
0.0845	14.60266
0.085	12.5885
0.0855	9.86938
0.086	6.3446
0.0865	1.81274
0.087	6.84814
0.0875	7.5531
0.088	7.45239
0.0885	15.40833
0.089	12.18567
0.0895	8.45947
0.09	11.88354
0.0905	12.28638
0.091	6.94885
0.0915	7.15027
0.092	1.00708
0.0925	-1.51062
0.093	-1.2085
0.0935	1.61133
0.094	1.10779
0.0945	1.00708
0.095	0.90637
0.0955	4.12903
0.096	8.7616
0.0965	9.76868
0.097	3.22266
0.0975	2.81982
0.098	14.80408
0.0985	7.85522
0.099	16.3147
0.0995	13.89771
0.1	13.69629
0.1005	11.68213
0.101	10.27222
0.1015	7.75452
0.102	6.04248
0.1025	8.05664
0.103	3.42407
0.1035	8.35876
0.104	9.06372
0.1045	9.06372
0.105	9.06372
0.1055	9.06372
0.106	9.06372
0.1065	9.06372
0.107	9.06372
0.1075	9.06372
0.108	9.06372
0.1085	9.06372
0.109	9.06372
0.1095	9.06372
0.11	9.06372
0.1105	9.06372
0.111	9.06372
0.1115	9.06372
0.112	9.06372
0.1125	9.06372
0.113	9.06372
0.1135	9.06372
0.114	9.06372
0.1145	17.72461
0.115	13.19275
0.1155	10.87646
0.116	8.7616
0.1165	8.56018
0.117	10.87646
0.1175	1.40991
0.118	1.2085
0.1185	2.21558
0.119	8.45947
0.1195	8.35876
0.12	10.47363
0.1205	12.78992
0.121	16.3147
0.1215	15.1062
0.122	11.48071
0.1225	12.68921
0.123	3.12195
0.1235	-0.40283
0.124	-6.54602
0.1245	-13.797
0.125	-14.19983
0.1255	-10.0708
0.126	-7.95593
0.1265	-6.84814
0.127	-3.62549
0.1275	-0.40283
0.128	4.53186
0.1285	7.15027
0.129	4.83398
0.1295	9.36584
0.13	2.71912
0.1305	7.85522
0.131	8.56018
0.1315	9.56726
0.132	3.7262
0.1325	-4.63257
0.133	-9.76868
0.1335	-7.45239
0.134	-6.64673
0.1345	-11.98425
0.135	-3.7262
0.1355	-2.21558
0.136	-1.2085
0.1365	-4.73328
0.137	0.80566
0.1375	8.66089
0.138	9.86938
0.1385	8.45947
0.139	4.93469
0.1395	-0.70496
0.14	0.30212
0.1405	-1.81274
0.141	-0.90637
0.1415	-1.40991
0.142	1.00708
0.1425	3.7262
0.143	-1.00708
0.1435	1.10779
0.144	5.23682
0.1445	1.71204
0.145	3.7262
0.1455	4.83398
0.146	5.63965
0.1465	6.2439
0.147	10.27222
0.1475	10.77576
0.148	11.58142
0.1485	7.85522
0.149	10.87646
0.1495	5.0354
0.15	2.81982
0.1505	15.00549
0.151	16.01257
0.1515	15.91187
0.152	8.7616
0.1525	1.81274
0.153	-1.91345
0.1535	-8.8623
0.154	-10.27222
0.1545	-3.42407
0.155	-4.93469
0.1555	3.22266
0.156	0.60425
0.1565	7.45239
0.157	10.27222
0.1575	15.00549
0.158	16.11328
0.1585	13.69629
0.159	17.32178
0.1595	17.6239
0.16	22.55859
0.1605	13.49487
0.161	11.98425
0.1615	15.50903
0.162	8.56018
0.1625	10.77576
0.163	8.7616
0.1635	8.96301
0.164	12.5885
0.1645	7.04956
0.165	1.61133
0.1655	-2.5177
0.166	-2.61841
0.1665	3.12195
0.167	0.40283
0.1675	-6.64673
0.168	-3.8269
0.1685	-11.07788
0.169	-9.26514
0.1695	-10.17151
0.17	-4.63257
0.1705	0.90637
0.171	1.81274
0.1715	2.5177
0.172	8.66089
0.1725	9.26514
0.173	11.17859
0.1735	9.76868
0.174	15.81116
0.1745	17.32178
0.175	7.75452
0.1755	1.51062
0.176	1.40991
0.1765	-4.73328
0.177	-9.97009
0.1775	-5.94177
0.178	-3.42407
0.1785	0.20142
0.179	-1.10779
0.1795	7.85522
0.18	11.07788
0.1805	11.2793
0.181	9.06372
0.1815	7.25098
0.182	8.56018
0.1825	2.71912
0.183	6.2439
0.1835	6.94885
0.184	3.02124
0.1845	-3.12195
0.185	5.53894
0.1855	3.92761
0.186	15.20691
0.1865	14.40125
0.187	10.17151
0.1875	18.12744
0.188	15.81116
0.1885	16.51611
0.189	6.04248
0.1895	6.64673
0.19	5.74036
0.1905	-1.61133
0.191	0.20142
0.1915	-4.73328
0.192	-10.97717
0.1925	-11.58142
0.193	-9.16443
0.1935	-8.35876
0.194	-2.5177
0.1945	0.50354
0.195	-4.43115
0.1955	-0.20142
0.196	-3.22266
0.1965	6.64673
0.197	-1.10779
0.1975	3.42407
0.198	4.63257
0.1985	-0.20142
0.199	4.53186
0.1995	8.66089
0.2	11.88354
0.2005	7.95593
0.201	8.7616
0.2015	10.57434
0.202	1.91345
0.2025	-3.62549
0.203	5.33752
0.2035	4.33044
0.204	0.90637
0.2045	4.22974
0.205	-2.01416
0.2055	3.32336
0.206	2.41699
0.2065	6.04248
0.207	1.3092
0.2075	-1.51062
0.208	0.70496
0.2085	5.74036
0.209	10.77576
0.2095	6.74744
0.21	10.37292
0.2105	11.68213
0.211	12.68921
0.2115	16.71753
0.212	12.28638
0.2125	9.36584
0.213	8.8623
0.2135	5.43823
0.214	7.75452
0.2145	8.25806
0.215	2.11487
0.2155	5.0354
0.216	1.3092
0.2165	2.92053
0.217	6.14319
0.2175	6.2439
0.218	6.04248
0.2185	4.53186
0.219	3.02124
0.2195	-0.30212
0.22	3.42407
0.2205	1.61133
0.221	7.5531
0.2215	11.38
0.222	8.8623
0.2225	10.67505
0.223	4.33044
0.2235	0.20142
0.224	0
0.2245	-1.3092
0.225	-1.00708
0.2255	6.74744
0.226	3.52478
0.2265	7.35168
0.227	12.99133
0.2275	7.45239
0.228	6.54602
0.2285	10.17151
0.229	9.76868
0.2295	7.04956
0.23	15.00549
0.2305	18.8324
0.231	9.46655
0.2315	10.87646
0.232	8.35876
0.2325	6.64673
0.233	3.92761
0.2335	4.33044
0.234	9.56726
0.2345	11.58142
0.235	9.16443
0.2355	4.83398
0.236	1.81274
0.2365	2.11487
0.237	8.96301
0.2375	5.23682
0.238	4.63257
0.2385	11.17859
0.239	2.92053
0.2395	0
0.24	-0.60425
0.2405	0
0.241	-7.95593
0.2415	-7.15027
0.242	-10.27222
0.2425	-13.49487
0.243	-11.48071
0.2435	-6.3446
0.244	3.7262
0.2445	6.2439
0.245	10.0708
0.2455	14.80408
0.246	17.22107
0.2465	13.19275
0.247	16.3147
0.2475	13.49487
0.248	13.29346
0.2485	11.68213
0.249	2.31628
0.2495	-2.81982
0.25	-4.22974
0.2505	-1.71204
0.251	-3.7262
0.2515	-5.74036
0.252	-10.47363
0.2525	-15.00549
0.253	-17.52319
0.2535	-21.95435
0.254	-13.49487
0.2545	-13.29346
0.255	-16.61682
0.2555	-10.0708
0.256	-9.06372
0.2565	-8.7616
0.257	-2.11487
0.2575	0.50354
0.258	-2.21558
0.2585	-5.23682
0.259	-0.80566
0.2595	-5.13611
0.26	-7.65381
0.2605	-10.87646
0.261	-12.89062
0.2615	-10.0708
0.262	-11.98425
0.2625	-11.78284
0.263	-2.61841
0.2635	-7.5531
0.264	-3.92761
0.2645	5.23682
0.265	4.73328
0.2655	3.8269
0.266	5.74036
0.2665	4.43115
0.267	-4.73328
0.2675	-2.21558
0.268	-2.41699
0.2685	-5.63965
0.269	-1.00708
0.2695	-7.5531
0.27	-7.5531
0.2705	-13.69629
0.271	-16.11328
0.2715	-10.27222
0.272	-7.65381
0.2725	-3.62549
0.273	-3.32336
0.2735	-1.3092
0.274	1.40991
0.2745	5.0354
0.275	15.60974
0.2755	19.13452
0.276	21.85364
0.2765	25.07629
0.277	23.46497
0.2775	25.47913
0.278	22.96143
0.2785	14.90479
0.279	17.22107
0.2795	10.87646
0.28	-0.20142
0.2805	-1.10779
0.281	-7.04956
0.2815	3.32336
0.282	7.15027
0.2825	8.66089
0.283	10.77576
0.2835	18.93311
0.284	15.81116
0.2845	13.69629
0.285	15.1062
0.2855	19.53735
0.286	17.6239
0.2865	18.42957
0.287	17.52319
0.2875	10.37292
0.288	12.78992
0.2885	18.53027
0.289	19.83948
0.2895	16.21399
0.29	12.18567
0.2905	12.68921
0.291	11.88354
0.2915	9.86938
0.292	10.47363
0.2925	10.47363
0.293	11.17859
0.2935	11.58142
0.294	9.76868
0.2945	5.63965
0.295	5.23682
0.2955	11.38
0.296	10.17151
0.2965	9.16443
0.297	5.0354
0.2975	3.52478
0.298	3.8269
0.2985	7.75452
0.299	9.97009
0.2995	11.98425
0.3	12.89062
0.3005	15.91187
0.301	19.03381
0.3015	20.1416
0.302	18.22815
0.3025	10.0708
0.303	5.74036
0.3035	0.50354
0.304	-6.64673
0.3045	1.71204
0.305	12.18567
0.3055	8.35876
0.306	12.99133
0.3065	14.30054
0.307	14.50195
0.3075	12.48779
0.308	13.09204
0.3085	14.60266
0.309	14.40125
0.3095	15.30762
0.31	10.57434
0.3105	8.66089
0.311	3.92761
0.3115	-1.00708
0.312	-5.63965
0.3125	-4.43115
0.313	-4.43115
0.3135	-8.05664
0.314	5.43823
0.3145	2.01416
0.315	0.70496
0.3155	4.22974
0.316	6.14319
0.3165	-1.81274
0.317	-1.3092
0.3175	-0.40283
0.318	-1.00708
0.3185	1.51062
0.319	7.04956
0.3195	8.05664
0.32	12.28638
0.3205	17.92603
0.321	9.46655
0.3215	4.43115
0.322	5.53894
0.3225	2.11487
0.323	5.23682
0.3235	4.93469
0.324	11.98425
0.3245	15.30762
0.325	12.08496
0.3255	9.66797
0.326	9.86938
0.3265	10.27222
0.327	5.84106
0.3275	8.66089
0.328	7.04956
0.3285	7.45239
0.329	10.57434
0.3295	12.5885
0.33	9.86938
0.3305	10.67505
0.331	4.22974
0.3315	0.70496
0.332	-2.61841
0.3325	-3.62549
0.333	-5.63965
0.3335	-10.67505
0.334	-20.24231
0.3345	-20.1416
0.335	-17.22107
0.3355	-9.97009
0.336	-2.11487
0.3365	0.80566
0.337	10.97717
0.3375	17.01965
0.338	24.67346
0.3385	22.6593
0.339	24.57275
0.3395	25.78125
0.34	23.66638
0.3405	33.9386
0.341	30.91736
0.3415	32.22656
0.342	23.96851
0.3425	17.01965
0.343	10.17151
0.3435	8.7616
0.344	8.15735
0.3445	1.81274
0.345	2.81982
0.3455	6.04248
0.346	9.36584
0.3465	11.07788
0.347	8.05664
0.3475	5.33752
0.348	5.0354
0.3485	-1.61133
0.349	-5.0354
0.3495	-6.64673
0.35	2.41699
0.3505	5.63965
0.351	4.73328
0.3515	-0.20142
0.352	6.54602
0.3525	-2.41699
0.353	0.20142
0.3535	-6.54602
0.354	-7.25098
0.3545	-5.74036
0.355	-1.2085
0.3555	3.02124
0.356	1.2085
0.3565	5.13611
0.357	10.57434
0.3575	19.63806
0.358	23.26355
0.3585	24.27063
0.359	27.29187
0.3595	28.60107
0.36	26.88904
0.3605	27.79541
0.361	15.71045
0.3615	6.94885
0.362	3.32336
0.3625	3.42407
0.363	-5.13611
0.3635	-18.63098
0.364	-16.11328
0.3645	-12.5885
0.365	-16.51611
0.3655	-9.46655
0.366	-3.02124
0.3665	3.32336
0.367	5.53894
0.3675	12.08496
0.368	14.80408
0.3685	11.07788
0.369	14.19983
0.3695	21.3501
0.37	14.40125
0.3705	14.30054
0.371	13.49487
0.3715	19.33594
0.372	17.12036
0.3725	11.78284
0.373	9.97009
0.3735	8.15735
0.374	5.94177
0.3745	3.62549
0.375	-0.60425
0.3755	-0.90637
0.376	-0.60425
0.3765	0.30212
0.377	-4.83398
0.3775	-0.80566
0.378	-2.21558
0.3785	-0.10071
0.379	-4.02832
0.3795	-2.31628
0.38	6.94885
0.3805	9.86938
0.381	8.35876
0.3815	3.22266
0.382	-5.0354
0.3825	-3.62549
0.383	-3.12195
0.3835	1.3092
0.384	-2.81982
0.3845	-1.91345
0.385	3.32336
0.3855	3.22266
0.386	2.5177
0.3865	-3.8269
0.387	-1.81274
0.3875	5.53894
0.388	10.87646
0.3885	11.48071
0.389	6.04248
0.3895	9.56726
0.39	10.37292
0.3905	4.53186
0.391	4.12903
0.3915	-1.3092
0.392	5.94177
0.3925	5.94177
0.393	11.2793
0.3935	17.6239
0.394	16.61682
0.3945	14.70337
0.395	13.09204
0.3955	7.15027
0.396	8.8623
0.3965	3.7262
0.397	3.8269
0.3975	4.83398
0.398	-2.92053
0.3985	-7.5531
0.399	-4.83398
0.3995	1.81274
0.4	0.80566
0.4005	5.23682
0.401	7.35168
0.4015	5.23682
0.402	7.65381
0.4025	6.84814
0.403	-1.3092
0.4035	-1.81274
0.404	-7.5531
0.4045	-8.96301
0.405	-8.35876
0.4055	-2.41699
0.406	-0.40283
0.4065	6.44531
0.407	10.47363
0.4075	14.19983
0.408	13.797
0.4085	17.42249
0.409	15.00549
0.4095	16.41541
0.41	10.57434
0.4105	6.54602
0.411	11.17859
0.4115	18.53027
0.412	26.58691
0.4125	15.71045
0.413	14.40125
0.4135	14.19983
0.414	13.797
0.4145	11.48071
0.415	12.08496
0.4155	16.11328
0.416	16.11328
0.4165	14.60266
0.417	11.78284
0.4175	5.63965
0.418	2.5177
0.4185	0.90637
0.419	-1.40991
0.4195	1.10779
0.42	2.21558
0.4205	1.00708
0.421	2.21558
0.4215	-1.3092
0.422	-0.70496
0.4225	-8.7616
0.423	-5.33752
0.4235	-0.30212
0.424	-3.02124
0.4245	2.21558
0.425	0.40283
0.4255	6.94885
0.426	6.2439
0.4265	9.26514
0.427	6.84814
0.4275	10.47363
0.428	6.14319
0.4285	10.77576
0.429	6.04248
0.4295	4.53186
0.43	5.0354
0.4305	4.53186
0.431	6.74744
0.4315	7.15027
0.432	-0.40283
0.4325	-0.30212
0.433	6.3446
0.4335	0.30212
0.434	5.13611
0.4345	8.56018
0.435	0.10071
0.4355	-0.70496
0.436	-0.50354
0.4365	-2.92053
0.437	-0.80566
0.4375	4.43115
0.438	3.12195
0.4385	3.92761
0.439	5.13611
0.4395	7.04956
0.44	2.21558
0.4405	4.33044
0.441	-0.90637
0.4415	4.12903
0.442	-0.10071
0.4425	-0.70496
0.443	-2.5177
0.4435	1.00708
0.444	6.44531
0.4445	9.66797
0.445	13.797
0.4455	10.0708
0.446	9.76868
0.4465	15.81116
0.447	16.21399
0.4475	16.71753
0.448	15.91187
0.4485	11.98425
0.449	5.94177
0.4495	4.43115
0.45	2.31628
0.4505	-0.30212
0.451	-4.63257
0.4515	-4.83398
0.452	-2.31628
0.4525	1.91345
0.453	-4.33044
0.4535	-1.81274
0.454	-7.95593
0.4545	-7.85522
0.455	-2.31628
0.4555	3.22266
0.456	10.17151
0.4565	12.38708
0.457	11.48071
0.4575	11.98425
0.458	16.51611
0.4585	13.49487
0.459	17.01965
0.4595	16.91895
0.46	13.49487
0.4605	0.10071
0.461	0
0.4615	-7.25098
0.462	-4.33044
0.4625	-11.58142
0.463	-1.71204
0.4635	3.7262
0.464	10.87646
0.4645	9.06372
0.465	12.5885
0.4655	13.39417
0.466	17.01965
0.4665	11.17859
0.467	12.48779
0.4675	13.19275
0.468	17.22107
0.4685	13.09204
0.469	9.16443
0.4695	2.41699
0.47	3.62549
0.4705	2.21558
0.471	5.23682
0.4715	4.33044
0.472	4.73328
0.4725	4.73328
0.473	5.74036
0.4735	9.36584
0.474	1.2085
0.4745	5.0354
0.475	5.94177
0.4755	0.70496
0.476	0.70496
0.4765	0
0.477	-1.00708
0.4775	-4.33044
0.478	-1.91345
0.4785	-3.8269
0.479	2.41699
0.4795	2.81982
0.48	2.21558
0.4805	-2.01416
0.481	-6.2439
0.4815	-0.80566
0.482	0.10071
0.4825	6.14319
0.483	4.12903
0.4835	-2.41699
0.484	-0.20142
0.4845	-0.60425
0.485	-4.12903
0.4855	-3.02124
0.486	-0.30212
0.4865	1.61133
0.487	5.94177
0.4875	2.92053
0.488	2.21558
0.4885	5.53894
0.489	10.97717
0.4895	15.81116
0.49	13.09204
0.4905	12.68921
0.491	7.95593
0.4915	2.5177
0.492	4.22974
0.4925	-1.2085
0.493	-1.71204
0.4935	-3.92761
0.494	-3.02124
0.4945	-0.30212
0.495	8.45947
0.4955	5.53894
0.496	5.63965
0.4965	1.51062
0.497	-1.91345
0.4975	1.81274
0.498	-2.11487
0.4985	-0.30212
0.499	3.52478
0.4995	5.74036
0.5	-0.90637
0.5005	-9.97009
0.501	-3.52478
0.5015	-1.51062
0.502	4.43115
0.5025	0.70496
0.503	-0.30212
0.5035	-4.02832
0.504	-1.51062
0.5045	0.50354
0.505	2.61841
0.5055	-0.10071
0.506	-2.92053
0.5065	1.10779
0.507	3.7262
0.5075	-1.81274
0.508	0
0.5085	-0.50354
0.509	0.70496
0.5095	1.51062
0.51	-4.83398
0.5105	-3.62549
0.511	2.5177
0.5115	-1.51062
0.512	2.21558
0.5125	8.15735
0.513	13.59558
0.5135	8.25806
0.514	10.87646
0.5145	5.84106
0.515	-0.50354
0.5155	-4.73328
0.516	-6.94885
0.5165	-8.8623
0.517	-13.39417
0.5175	-15.1062
0.518	-13.09204
0.5185	-10.0708
0.519	-6.14319
0.5195	-2.81982
0.52	-0.80566
0.5205	6.2439
0.521	6.64673
0.5215	6.64673
0.522	17.52319
0.5225	19.13452
0.523	18.42957
0.5235	27.39258
0.524	27.39258
0.5245	18.73169
0.525	19.13452
0.5255	20.54443
0.526	18.63098
0.5265	10.37292
0.527	10.67505
0.5275	5.84106
0.528	12.08496
0.5285	15.30762
0.529	13.49487
0.5295	8.45947
0.53	2.11487
0.5305	1.40991
0.531	0.70496
0.5315	-2.71912
0.532	2.41699
0.5325	-5.0354
0.533	4.22974
0.5335	3.22266
0.534	-0.60425
0.5345	3.02124
0.535	2.21558
0.5355	1.00708
0.536	-3.92761
0.5365	0.90637
0.537	5.33752
0.5375	3.02124
0.538	9.56726
0.5385	19.94019
0.539	16.61682
0.5395	11.68213
0.54	12.99133
0.5405	7.04956
0.541	0
0.5415	6.04248
0.542	1.51062
0.5425	5.43823
0.543	-2.5177
0.5435	-8.96301
0.544	-1.61133
0.5445	-7.75452
0.545	-7.35168
0.5455	-5.33752
0.546	1.10779
0.5465	0.90637
0.547	-0.40283
0.5475	7.75452
0.548	3.92761
0.5485	4.53186
0.549	6.74744
0.5495	-0.20142
0.55	3.12195
0.5505	9.66797
0.551	10.87646
0.5515	7.35168
0.552	11.17859
0.5525	4.63257
0.553	4.73328
0.5535	3.52478
0.554	-3.32336
0.5545	-9.97009
0.555	-16.51611
0.5555	-15.81116
0.556	-9.26514
0.5565	1.10779
0.557	3.12195
0.5575	3.22266
0.558	9.16443
0.5585	17.82532
0.559	19.43665
0.5595	30.01099
0.56	27.49329
0.5605	28.70178
0.561	27.09045
0.5615	21.45081
0.562	11.88354
0.5625	14.70337
0.563	10.27222
0.5635	6.84814
0.564	3.8269
0.5645	-2.11487
0.565	-3.02124
0.5655	-0.30212
0.566	0.90637
0.5665	1.3092
0.567	3.22266
0.5675	6.3446
0.568	5.84106
0.5685	6.44531
0.569	4.83398
0.5695	9.36584
0.57	17.32178
0.5705	11.17859
0.571	11.17859
0.5715	8.56018
0.572	4.93469
0.5725	3.8269
0.573	5.43823
0.5735	5.74036
0.574	6.3446
0.5745	7.04956
0.575	5.84106
0.5755	11.68213
0.576	10.47363
0.5765	10.17151
0.577	9.86938
0.5775	7.25098
0.578	5.23682
0.5785	2.81982
0.579	5.63965
0.5795	8.25806
0.58	3.42407
0.5805	-4.73328
0.581	-2.5177
0.5815	-0.30212
0.582	4.73328
0.5825	0.10071
0.583	5.84106
0.5835	4.12903
0.584	7.95593
0.5845	5.94177
0.585	4.83398
0.5855	4.12903
0.586	7.75452
0.5865	2.81982
0.587	9.36584
0.5875	10.67505
0.588	15.71045
0.5885	18.02673
0.589	9.06372
0.5895	5.43823
0.59	-0.40283
0.5905	1.10779
0.591	4.02832
0.5915	2.21558
0.592	-1.00708
0.5925	4.93469
0.593	5.63965
0.5935	3.32336
0.594	3.52478
0.5945	1.00708
0.595	-7.04956
0.5955	-5.94177
0.596	-3.7262
0.5965	2.41699
0.597	-2.92053
0.5975	-3.42407
0.598	0.70496
0.5985	4.53186
0.599	3.32336
0.5995	1.00708
0.6	1.40991
0.6005	0.60425
0.601	4.73328
0.6015	6.14319
0.602	2.61841
0.6025	15.60974
0.603	24.27063
0.6035	18.93311
0.604	19.33594
0.6045	21.3501
0.605	16.41541
0.6055	10.57434
0.606	4.73328
0.6065	1.71204
0.607	-0.60425
0.6075	3.8269
0.608	-2.31628
0.6085	-5.0354
0.609	0.30212
0.6095	5.63965
0.61	4.83398
0.6105	-0.60425
0.611	3.8269
0.6115	6.44531
0.612	1.10779
0.6125	4.02832
0.613	6.04248
0.6135	2.11487
0.614	-2.71912
0.6145	-4.12903
0.615	-5.63965
0.6155	-3.02124
0.616	-0.10071
0.6165	2.01416
0.617	5.0354
0.6175	6.54602
0.618	5.0354
0.6185	4.02832
0.619	4.53186
0.6195	8.56018
0.62	7.65381
0.6205	4.33044
0.621	2.21558
0.6215	6.44531
0.622	11.68213
0.6225	13.49487
0.623	11.68213
0.6235	7.25098
0.624	14.50195
0.6245	16.51611
0.625	11.17859
0.6255	9.76868
0.626	10.27222
0.6265	3.52478
0.627	6.64673
0.6275	4.83398
0.628	4.43115
0.6285	8.15735
0.629	3.22266
0.6295	6.14319
0.63	4.83398
0.6305	6.54602
0.631	11.17859
0.6315	12.68921
0.632	14.50195
0.6325	4.02832
0.633	5.0354
0.6335	-7.45239
0.634	-11.78284
0.6345	-13.19275
0.635	-13.59558
0.6355	-13.39417
0.636	-6.54602
0.6365	-1.2085
0.637	-3.52478
0.6375	1.2085
0.638	2.31628
0.6385	9.56726
0.639	2.81982
0.6395	13.89771
0.64	15.30762
0.6405	20.04089
0.641	16.41541
0.6415	14.09912
0.642	9.36584
0.6425	0.30212
0.643	-1.10779
0.6435	5.53894
0.644	3.8269
0.6445	2.01416
0.645	-6.2439
0.6455	-16.91895
0.646	-14.90479
0.6465	-10.27222
0.647	-4.43115
0.6475	4.02832
0.648	12.89062
0.6485	12.38708
0.649	21.14868
0.6495	16.21399
0.65	17.32178
0.6505	16.01257
0.651	19.53735
0.6515	11.07788
0.652	7.45239
0.6525	4.83398
0.653	3.12195
0.6535	8.15735
0.654	-2.41699
0.6545	-4.22974
0.655	-1.61133
0.6555	-0.80566
0.656	-1.2085
0.6565	2.61841
0.657	7.15027
0.6575	12.99133
0.658	16.61682
0.6585	19.43665
0.659	23.26355
0.6595	25.47913
0.66	14.60266
0.6605	16.81824
0.661	7.85522
0.6615	4.02832
0.662	-4.93469
0.6625	-1.00708
0.663	-5.0354
0.6635	-4.93469
0.664	-7.95593
0.6645	-6.2439
0.665	-4.53186
0.6655	-6.54602
0.666	-2.11487
0.6665	1.81274
0.667	0.80566
0.6675	1.10779
0.668	2.92053
0.6685	2.01416
0.669	4.02832
0.6695	1.71204
0.67	-1.81274
0.6705	0.60425
0.671	3.52478
0.6715	1.10779
0.672	3.22266
0.6725	3.8269
0.673	4.22974
0.6735	3.02124
0.674	-0.20142
0.6745	2.61841
0.675	4.12903
0.6755	7.15027
0.676	5.43823
0.6765	4.83398
0.677	1.00708
0.6775	-1.00708
0.678	7.04956
0.6785	12.78992
0.679	15.00549
0.6795	18.12744
0.68	18.02673
0.6805	20.94727
0.681	19.33594
0.6815	19.73877
0.682	13.89771
0.6825	13.19275
0.683	6.3446
0.6835	5.13611
0.684	5.33752
0.6845	7.85522
0.685	5.53894
0.6855	1.91345
0.686	1.81274
0.6865	2.21558
0.687	1.71204
0.6875	-1.10779
0.688	2.41699
0.6885	-2.92053
0.689	1.40991
0.6895	-4.73328
0.69	1.00708
0.6905	4.43115
0.691	3.42407
0.6915	-0.20142
0.692	-1.51062
0.6925	6.04248
0.693	4.02832
0.6935	0.90637
0.694	13.69629
0.6945	17.42249
0.695	16.91895
0.6955	15.1062
0.696	16.51611
0.6965	20.94727
0.697	23.16284
0.6975	21.14868
0.698	20.34302
0.6985	14.60266
0.699	9.97009
0.6995	7.75452
0.7	-1.81274
0.7005	0.80566
0.701	-6.54602
0.7015	-4.63257
0.702	-7.35168
0.7025	-5.0354
0.703	0.10071
0.7035	4.73328
0.704	9.26514
0.7045	11.2793
0.705	15.91187
0.7055	15.1062
0.706	17.82532
0.7065	12.48779
0.707	6.74744
0.7075	8.96301
0.708	2.71912
0.7085	3.62549
0.709	3.7262
0.7095	-1.40991
0.71	-3.12195
0.7105	0.80566
0.711	13.29346
0.7115	16.01257
0.712	13.69629
0.7125	11.78284
0.713	10.0708
0.7135	11.07788
0.714	6.44531
0.7145	4.53186
0.715	3.7262
0.7155	2.01416
0.716	6.74744
0.7165	-2.41699
0.717	1.2085
0.7175	-4.02832
0.718	-3.8269
0.7185	3.32336
0.719	2.21558
0.7195	2.21558
0.72	1.61133
0.7205	0.20142
0.721	4.22974
0.7215	0.50354
0.722	-3.52478
0.7225	-7.75452
0.723	-6.14319
0.7235	-5.74036
0.724	-7.45239
0.7245	5.74036
0.725	14.19983
0.7255	10.37292
0.726	13.59558
0.7265	17.12036
0.727	13.09204
0.7275	15.81116
0.728	13.49487
0.7285	11.68213
0.729	3.42407
0.7295	1.51062
0.73	3.42407
0.7305	-3.22266
0.731	2.61841
0.7315	-1.61133
0.732	1.3092
0.7325	1.00708
0.733	6.74744
0.7335	2.92053
0.734	6.54602
0.7345	9.97009
0.735	9.06372
0.7355	12.68921
0.736	9.56726
0.7365	6.3446
0.737	9.06372
0.7375	14.30054
0.738	8.7616
0.7385	10.37292
0.739	4.53186
0.7395	5.84106
0.74	7.5531
0.7405	8.66089
0.741	7.65381
0.7415	11.78284
0.742	10.17151
0.7425	13.69629
0.743	21.95435
0.7435	13.09204
0.744	12.28638
0.7445	5.53894
0.745	4.63257
0.7455	-2.71912
0.746	-3.42407
0.7465	4.83398
0.747	4.53186
0.7475	14.90479
0.748	14.80408
0.7485	18.93311
0.749	18.42957
0.7495	13.99841
0.75	21.75293
0.7505	17.72461
0.751	11.98425
0.7515	10.97717
0.752	3.8269
0.7525	11.07788
0.753	1.3092
0.7535	4.43115
0.754	3.12195
0.7545	0.80566
0.755	5.0354
0.7555	2.92053
0.756	6.74744
0.7565	7.85522
0.757	5.84106
0.7575	7.5531
0.758	3.02124
0.7585	2.21558
0.759	-0.20142
0.7595	1.51062
0.76	-1.51062
0.7605	1.00708
0.761	2.31628
0.7615	1.00708
0.762	1.51062
0.7625	8.56018
0.763	3.42407
0.7635	3.32336
0.764	3.52478
0.7645	0.40283
0.765	0.40283
0.7655	1.10779
0.766	0
0.7665	-1.61133
0.767	6.2439
0.7675	-1.81274
0.768	-3.62549
0.7685	-4.02832
0.769	1.61133
0.7695	7.75452
0.77	20.44373
0.7705	17.72461
0.771	12.99133
0.7715	11.78284
0.772	12.99133
0.7725	7.04956
0.773	5.94177
0.7735	7.5531
0.774	4.63257
0.7745	4.73328
0.775	10.47363
0.7755	10.57434
0.776	10.57434
0.7765	4.33044
0.777	2.71912
0.7775	-1.81274
0.778	-5.94177
0.7785	-7.85522
0.779	-8.05664
0.7795	-4.63257
0.78	-7.5531
0.7805	-4.33044
0.781	-3.52478
0.7815	0.90637
0.782	8.35876
0.7825	3.22266
0.783	12.68921
0.7835	7.15027
0.784	3.7262
0.7845	3.62549
0.785	5.13611
0.7855	-0.30212
0.786	2.81982
0.7865	0.90637
0.787	3.62549
0.7875	1.40991
0.788	1.71204
0.7885	3.8269
0.789	7.35168
0.7895	5.43823
0.79	4.83398
0.7905	12.78992
0.791	8.15735
0.7915	9.86938
0.792	5.23682
0.7925	11.88354
0.793	11.07788
0.7935	9.97009
0.794	5.53894
0.7945	-0.80566
0.795	-0.60425
0.7955	5.74036
0.796	3.22266
0.7965	3.12195
0.797	2.61841
0.7975	-6.44531
0.798	2.41699
0.7985	2.41699
0.799	2.5177
0.7995	6.44531
0.8	6.54602
0.8005	4.22974
0.801	9.86938
0.8015	11.48071
0.802	7.25098
0.8025	0.80566
0.803	-2.11487
0.8035	5.53894
0.804	1.51062
0.8045	5.23682
0.805	1.71204
0.8055	-0.50354
0.806	0.90637
0.8065	-3.02124
0.807	0.80566
0.8075	-4.63257
0.808	-4.22974
0.8085	2.41699
0.809	-1.81274
0.8095	2.71912
0.81	4.63257
0.8105	7.95593
0.811	4.63257
0.8115	6.94885
0.812	8.05664
0.8125	4.12903
0.813	11.2793
0.8135	8.7616
0.814	2.81982
0.8145	0.80566
0.815	1.2085
0.8155	0.50354
0.816	-1.00708
0.8165	-2.21558
0.817	-0.40283
0.8175	0.80566
0.818	-1.71204
0.8185	-1.2085
0.819	5.23682
0.8195	5.0354
0.82	4.83398
0.8205	9.26514
0.821	5.23682
0.8215	15.71045
0.822	22.35718
0.8225	21.04797
0.823	21.75293
0.8235	13.99841
0.824	9.56726
0.8245	1.51062
0.825	-2.81982
0.8255	0
0.826	0.60425
0.8265	6.54602
0.827	8.45947
0.8275	15.40833
0.828	10.37292
0.8285	12.99133
0.829	17.32178
0.8295	12.28638
0.83	5.33752
0.8305	2.01416
0.831	1.61133
0.8315	3.92761
0.832	-1.2085
0.8325	-3.52478
0.833	-5.33752
0.8335	-9.26514
0.834	-6.44531
0.8345	-4.53186
0.835	-3.8269
0.8355	1.40991
0.836	6.64673
0.8365	11.98425
0.837	10.57434
0.8375	14.19983
0.838	17.01965
0.8385	24.27063
0.839	19.43665
0.8395	19.03381
0.84	14.30054
0.8405	5.94177
0.841	1.40991
0.8415	-1.91345
0.842	-0.80566
0.8425	-5.53894
0.843	-7.15027
0.8435	-9.76868
0.844	-9.66797
0.8445	-4.93469
0.845	-2.61841
0.8455	2.01416
0.846	-1.71204
0.8465	-1.40991
0.847	0.20142
0.8475	6.84814
0.848	4.63257
0.8485	3.42407
0.849	5.53894
0.8495	2.41699
0.85	1.2085
0.8505	6.2439
0.851	3.7262
0.8515	6.3446
0.852	5.74036
0.8525	3.92761
0.853	0.20142
0.8535	-5.23682
0.854	-6.54602
0.8545	-6.84814
0.855	0.40283
0.8555	4.73328
0.856	1.71204
0.8565	4.22974
0.857	9.46655
0.8575	7.95593
0.858	6.3446
0.8585	6.84814
0.859	9.06372
0.8595	5.0354
0.86	7.75452
0.8605	11.88354
0.861	16.61682
0.8615	24.57275
0.862	25.98267
0.8625	26.48621
0.863	18.22815
0.8635	14.90479
0.864	14.40125
0.8645	19.83948
0.865	15.00549
0.8655	24.27063
0.866	12.68921
0.8665	10.27222
0.867	12.08496
0.8675	6.04248
0.868	7.5531
0.8685	9.36584
0.869	10.37292
0.8695	6.04248
0.87	5.94177
0.8705	8.96301
0.871	11.38
0.8715	8.35876
0.872	10.17151
0.8725	12.18567
0.873	9.97009
0.8735	2.41699
0.874	2.01416
0.8745	-1.00708
0.875	0
0.8755	3.32336
0.876	-0.70496
0.8765	5.13611
0.877	1.40991
0.8775	5.84106
0.878	4.53186
0.8785	1.40991
0.879	3.8269
0.8795	10.37292
0.88	6.84814
0.8805	6.3446
0.881	1.91345
0.8815	0.20142
0.882	0.70496
0.8825	-6.74744
0.883	-4.22974
0.8835	-2.92053
0.884	-6.2439
0.8845	-1.91345
0.885	-9.97009
0.8855	-5.94177
0.886	-7.85522
0.8865	-13.49487
0.887	-11.98425
0.8875	-5.63965
0.888	-5.43823
0.8885	-13.49487
0.889	-4.33044
0.8895	-10.0708
0.89	-7.04956
0.8905	-5.23682
0.891	-4.12903
0.8915	5.53894
0.892	0.60425
0.8925	10.27222
0.893	7.75452
0.8935	6.64673
0.894	1.2085
0.8945	2.5177
0.895	1.3092
0.8955	0.70496
0.896	-5.23682
0.8965	-11.48071
0.897	-13.29346
0.8975	-19.73877
0.898	-17.32178
0.8985	-15.1062
0.899	-5.74036
0.8995	-5.63965
0.9	-7.35168
0.9005	-6.94885
0.901	-2.01416
0.9015	-2.5177
0.902	1.81274
0.9025	3.22266
0.903	10.27222
0.9035	13.19275
0.904	10.57434
0.9045	14.90479
0.905	19.53735
0.9055	24.77417
0.906	13.09204
0.9065	6.84814
0.907	11.78284
0.9075	9.26514
0.908	2.31628
0.9085	-5.0354
0.909	-12.18567
0.9095	-4.02832
0.91	-0.50354
0.9105	-3.02124
0.911	-1.00708
0.9115	4.63257
0.912	6.44531
0.9125	5.43823
0.913	3.7262
0.9135	8.56018
0.914	13.49487
0.9145	16.41541
0.915	10.0708
0.9155	13.09204
0.916	9.36584
0.9165	16.3147
0.917	15.50903
0.9175	3.62549
0.918	9.86938
0.9185	6.84814
0.919	5.63965
0.9195	5.53894
0.92	1.71204
0.9205	8.45947
0.921	11.38
0.9215	8.45947
0.922	12.68921
0.9225	14.80408
0.923	20.74585
0.9235	20.04089
0.924	21.85364
0.9245	23.16284
0.925	27.49329
0.9255	27.79541
0.926	22.96143
0.9265	20.54443
0.927	18.32886
0.9275	11.68213
0.928	7.15027
0.9285	8.05664
0.929	1.40991
0.9295	1.81274
0.93	0.30212
0.9305	3.92761
0.931	3.8269
0.9315	3.7262
0.932	3.92761
0.9325	3.12195
0.933	1.61133
0.9335	0.30212
0.934	0.60425
0.9345	-1.2085
0.935	-1.10779
0.9355	9.76868
0.936	7.75452
0.9365	6.64673
0.937	3.12195
0.9375	2.81982
0.938	0.80566
0.9385	0.70496
0.939	-1.91345
0.9395	2.92053
0.94	-0.50354
0.9405	1.3092
0.941	2.5177
0.9415	12.78992
0.942	14.80408
0.9425	16.21399
0.943	23.76709
0.9435	19.53735
0.944	15.91187
0.9445	14.09912
0.945	20.04089
0.9455	18.22815
0.946	12.18567
0.9465	15.30762
0.947	8.35876
0.9475	11.38
0.948	14.30054
0.9485	11.88354
0.949	7.45239
0.9495	5.84106
0.95	2.11487
0.9505	4.53186
0.951	5.13611
0.9515	6.74744
0.952	5.74036
0.9525	9.16443
0.953	11.88354
0.9535	15.20691
0.954	10.97717
0.9545	12.78992
0.955	13.49487
0.9555	7.45239
0.956	8.25806
0.9565	6.3446
0.957	-0.50354
0.9575	-0.60425
0.958	2.11487
0.9585	-2.81982
0.959	-2.41699
0.9595	-7.85522
0.96	-7.65381
0.9605	-5.84106
0.961	-5.23682
0.9615	1.71204
0.962	7.45239
0.9625	12.38708
0.963	18.93311
0.9635	23.96851
0.964	22.96143
0.9645	27.6947
0.965	20.04089
0.9655	12.38708
0.966	7.65381
0.9665	0.50354
0.967	-2.92053
0.9675	-9.36584
0.968	-7.85522
0.9685	-9.26514
0.969	-5.63965
0.9695	1.10779
0.97	1.91345
0.9705	-5.0354
0.971	4.22974
0.9715	3.92761
0.972	9.46655
0.9725	19.33594
0.973	19.03381
0.9735	26.58691
0.974	29.30603
0.9745	23.16284
0.975	19.43665
0.9755	21.85364
0.976	15.30762
0.9765	8.7616
0.977	4.33044
0.9775	1.40991
0.978	-2.41699
0.9785	5.63965
0.979	2.5177
0.9795	0.90637
0.98	0.30212
0.9805	-2.61841
0.981	-3.62549
0.9815	-1.00708
0.982	3.7262
0.9825	2.41699
0.983	0.60425
0.9835	-3.52478
0.984	-7.25098
0.9845	-2.92053
0.985	-6.14319
0.9855	-3.02124
0.986	-1.91345
0.9865	-3.22266
0.987	-3.22266
0.9875	-2.92053
0.988	2.81982
0.9885	11.68213
0.989	19.23523
0.9895	14.70337
0.99	18.02673
0.9905	12.48779
0.991	12.68921
0.9915	5.13611
0.992	5.53894
0.9925	-0.60425
0.993	-0.40283
0.9935	-6.2439
0.994	2.71912
0.9945	-4.73328
0.995	0.20142
0.9955	6.74744
0.996	10.27222
0.9965	8.96301
0.997	11.07788
0.9975	11.17859
0.998	16.01257
0.9985	13.59558
0.999	10.57434
0.9995	11.2793
1	10.47363
1.0005	9.26514
1.001	7.04956
1.0015	4.53186
1.002	1.10779
1.0025	-1.61133
1.003	-2.71912
1.0035	-9.46655
1.004	-4.53186
1.0045	0.80566
1.005	-3.12195
1.0055	-10.47363
1.006	-7.65381
1.0065	-5.74036
1.007	-5.63965
1.0075	7.35168
1.008	3.12195
1.0085	-0.10071
1.009	7.25098
1.0095	9.97009
1.01	11.38
1.0105	15.81116
1.011	22.86072
1.0115	20.64514
1.012	20.34302
1.0125	15.20691
1.013	11.2793
1.0135	14.30054
1.014	7.25098
1.0145	7.25098
1.015	11.68213
1.0155	2.81982
1.016	2.81982
1.0165	0.90637
1.017	-0.30212
1.0175	-2.41699
1.018	1.3092
1.0185	-1.51062
1.019	2.01416
1.0195	3.8269
1.02	7.75452
1.0205	5.94177
1.021	5.74036
1.0215	2.61841
1.022	1.91345
1.0225	-1.51062
1.023	1.3092
1.0235	-8.25806
1.024	-5.63965
1.0245	2.41699
1.025	-0.40283
1.0255	2.5177
1.026	6.04248
1.0265	13.59558
1.027	22.86072
1.0275	22.35718
1.028	25.37842
1.0285	25.177
1.029	21.14868
1.0295	13.29346
1.03	10.17151
1.0305	7.04956
1.031	6.74744
1.0315	-5.13611
1.032	-1.10779
1.0325	-1.40991
1.033	2.5177
1.0335	0
1.034	9.16443
1.0345	8.7616
1.035	12.38708
1.0355	11.07788
1.036	9.66797
1.0365	2.41699
1.037	4.02832
1.0375	6.54602
1.038	4.02832
1.0385	6.14319
1.039	5.23682
1.0395	17.82532
1.04	8.96301
1.0405	5.74036
1.041	5.23682
1.0415	6.94885
1.042	1.91345
1.0425	-2.31628
1.043	-7.25098
1.0435	-0.60425
1.044	-5.13611
1.0445	-6.84814
1.045	-6.74744
1.0455	-6.44531
1.046	-2.92053
1.0465	6.64673
1.047	8.56018
1.0475	14.80408
1.048	9.26514
1.0485	7.5531
1.049	17.32178
1.0495	16.21399
1.05	16.51611
1.0505	8.96301
1.051	4.43115
1.0515	5.63965
1.052	5.13611
1.0525	7.75452
1.053	11.48071
1.0535	-3.62549
1.054	-9.46655
1.0545	-5.43823
1.055	-3.7262
1.0555	-5.13611
1.056	-6.44531
1.0565	-7.75452
1.057	-7.65381
1.0575	-1.51062
1.058	-6.44531
1.0585	-0.30212
1.059	3.62549
1.0595	12.68921
1.06	11.68213
1.0605	8.7616
1.061	6.14319
1.0615	0.70496
1.062	-7.45239
1.0625	-4.43115
1.063	2.81982
1.0635	-1.00708
1.064	6.14319
1.0645	4.33044
1.065	5.13611
1.0655	7.35168
1.066	4.93469
1.0665	8.66089
1.067	12.18567
1.0675	6.3446
1.068	0.10071
1.0685	5.13611
1.069	16.81824
1.0695	14.50195
1.07	13.09204
1.0705	13.59558
1.071	21.04797
1.0715	15.00549
1.072	13.59558
1.0725	7.15027
1.073	1.91345
1.0735	0.90637
1.074	0.50354
1.0745	-5.33752
1.075	-5.43823
1.0755	6.44531
1.076	7.04956
1.0765	11.07788
1.077	15.30762
1.0775	18.8324
1.078	18.73169
1.0785	19.33594
1.079	26.48621
1.0795	31.72302
1.08	29.91028
1.0805	27.99683
1.081	22.05505
1.0815	14.19983
1.082	3.92761
1.0825	-1.3092
1.083	-8.45947
1.0835	-7.35168
1.084	-8.66089
1.0845	-4.63257
1.085	-3.12195
1.0855	-4.93469
1.086	-0.90637
1.0865	-1.81274
1.087	-1.91345
1.0875	6.94885
1.088	5.74036
1.0885	6.14319
1.089	7.75452
1.0895	5.0354
1.09	6.94885
1.0905	8.96301
1.091	-1.51062
1.0915	4.02832
1.092	6.14319
1.0925	1.40991
1.093	-4.12903
1.0935	-1.40991
1.094	-11.17859
1.0945	-6.84814
1.095	-4.63257
1.0955	-7.15027
1.096	-9.97009
1.0965	-7.25098
1.097	-1.2085
1.0975	-1.10779
1.098	1.71204
1.0985	5.33752
1.099	13.19275
1.0995	11.68213
1.1	15.91187
1.1005	20.04089
1.101	19.43665
1.1015	21.04797
1.102	20.44373
1.1025	16.61682
1.103	12.48779
1.1035	5.84106
1.104	3.8269
1.1045	7.85522
1.105	6.84814
1.1055	11.07788
1.106	2.5177
1.1065	7.85522
1.107	5.63965
1.1075	9.97009
1.108	-0.50354
1.1085	3.22266
1.109	5.63965
1.1095	-2.81982
1.11	-3.02124
1.1105	-2.71912
1.111	-3.92761
1.1115	-3.8269
1.112	-4.83398
1.1125	0.80566
1.113	-0.60425
1.1135	-0.60425
1.114	-0.50354
1.1145	-1.81274
1.115	-4.63257
1.1155	3.32336
1.116	3.52478
1.1165	1.3092
1.117	8.66089
1.1175	7.04956
1.118	11.38
1.1185	7.25098
1.119	9.26514
1.1195	5.0354
1.12	3.12195
1.1205	1.2085
1.121	2.71912
1.1215	3.52478
1.122	7.15027
1.1225	10.47363
1.123	13.29346
1.1235	10.97717
1.124	7.85522
1.1245	7.5531
1.125	2.21558
1.1255	5.84106
1.126	5.63965
1.1265	8.96301
1.127	4.93469
1.1275	0.50354
1.128	4.73328
1.1285	-1.51062
1.129	0.30212
1.1295	8.35876
1.13	5.94177
1.1305	4.43115
1.131	5.0354
1.1315	9.66797
1.132	17.6239
1.1325	23.36426
1.133	23.56567
1.1335	26.3855
1.134	22.86072
1.1345	25.57983
1.135	20.44373
1.1355	8.96301
1.136	4.22974
1.1365	-1.00708
1.137	2.71912
1.1375	-2.41699
1.138	-6.94885
1.1385	-3.12195
1.139	-8.45947
1.1395	-8.56018
1.14	-7.85522
1.1405	-4.02832
1.141	-1.3092
1.1415	-2.01416
1.142	3.32336
1.1425	-1.61133
1.143	0.90637
1.1435	10.37292
1.144	4.53186
1.1445	11.78284
1.145	8.35876
1.1455	6.84814
1.146	5.53894
1.1465	8.96301
1.147	3.22266
1.1475	10.0708
1.148	10.57434
1.1485	11.07788
1.149	11.2793
1.1495	2.81982
1.15	2.11487
1.1505	5.74036
1.151	5.43823
1.1515	5.43823
1.152	2.5177
1.1525	2.21558
1.153	-5.43823
1.1535	0
1.154	1.2085
1.1545	-0.10071
1.155	-1.2085
1.1555	1.61133
1.156	10.97717
1.1565	0.40283
1.157	7.35168
1.1575	7.5531
1.158	5.43823
1.1585	4.93469
1.159	0
1.1595	5.33752
1.16	10.17151
1.1605	7.95593
1.161	9.66797
1.1615	5.43823
1.162	6.84814
1.1625	4.12903
1.163	5.43823
1.1635	7.35168
1.164	0.60425
1.1645	-0.40283
1.165	-3.92761
1.1655	-6.44531
1.166	-7.25098
1.1665	-0.60425
1.167	-0.60425
1.1675	-0.50354
1.168	1.91345
1.1685	-2.11487
1.169	-12.48779
1.1695	-7.04956
1.17	-1.2085
1.1705	1.3092
1.171	3.02124
1.1715	4.02832
1.172	3.52478
1.1725	-1.10779
1.173	-1.40991
1.1735	5.74036
1.174	5.84106
1.1745	10.87646
1.175	14.80408
1.1755	12.78992
1.176	9.76868
1.1765	16.81824
1.177	7.5531
1.1775	4.53186
1.178	6.14319
1.1785	2.31628
1.179	8.56018
1.1795	8.8623
1.18	10.87646
1.1805	10.17151
1.181	12.48779
1.1815	7.75452
1.182	7.65381
1.1825	10.77576
1.183	15.71045
1.1835	15.50903
1.184	15.40833
1.1845	12.38708
1.185	12.28638
1.1855	14.80408
1.186	12.5885
1.1865	9.36584
1.187	5.43823
1.1875	1.61133
1.188	-2.81982
1.1885	-1.3092
1.189	-1.3092
1.1895	0.50354
1.19	-2.11487
1.1905	5.84106
1.191	2.01416
1.1915	-3.12195
1.192	4.12903
1.1925	-3.52478
1.193	-1.61133
1.1935	-6.2439
1.194	1.00708
1.1945	1.91345
1.195	1.91345
1.1955	4.12903
1.196	0.40283
1.1965	3.22266
1.197	-2.81982
1.1975	-0.60425
1.198	-1.51062
1.1985	-4.22974
1.199	-5.94177
1.1995	-1.40991
1.2	-2.61841
1.2005	-6.04248
1.201	0.40283
1.2015	2.31628
1.202	8.45947
1.2025	7.04956
1.203	7.25098
1.2035	9.16443
1.204	13.69629
1.2045	9.26514
1.205	15.20691
1.2055	11.78284
1.206	16.11328
1.2065	14.09912
1.207	12.78992
1.2075	6.84814
1.208	-1.00708
1.2085	0.50354
1.209	0.20142
1.2095	-1.10779
1.21	-1.00708
1.2105	0.50354
1.211	-2.31628
1.2115	-4.73328
1.212	-6.94885
1.2125	0.60425
1.213	-4.93469
1.2135	-0.30212
1.214	4.63257
1.2145	16.3147
1.215	15.40833
1.2155	21.3501
1.216	11.58142
1.2165	5.84106
1.217	6.64673
1.2175	2.81982
1.218	-1.51062
1.2185	-4.63257
1.219	-5.0354
1.2195	-0.20142
1.22	-0.70496
1.2205	0
1.221	3.32336
1.2215	2.41699
1.222	1.2085
1.2225	0.20142
1.223	2.21558
1.2235	0.50354
1.224	-0.30212
1.2245	0.70496
1.225	-2.31628
1.2255	0.10071
1.226	0.70496
1.2265	9.26514
1.227	12.38708
1.2275	12.89062
1.228	9.36584
1.2285	9.66797
1.229	8.15735
1.2295	9.86938
1.23	15.71045
1.2305	15.81116
1.231	14.90479
1.2315	15.20691
1.232	4.73328
1.2325	9.26514
1.233	12.18567
1.2335	17.32178
1.234	11.07788
1.2345	10.97717
1.235	2.61841
1.2355	5.0354
1.236	6.44531
1.2365	7.35168
1.237	7.45239
1.2375	5.94177
1.238	6.94885
1.2385	5.23682
1.239	4.73328
1.2395	1.10779
1.24	3.12195
1.2405	3.7262
1.241	4.43115
1.2415	7.45239
1.242	7.45239
1.2425	12.48779
1.243	7.95593
1.2435	7.04956
1.244	2.61841
1.2445	-2.5177
1.245	-2.5177
1.2455	4.83398
1.246	1.51062
1.2465	4.63257
1.247	2.81982
1.2475	9.46655
1.248	6.84814
1.2485	8.05664
1.249	9.26514
1.2495	9.06372
1.25	14.60266
1.2505	9.76868
1.251	4.43115
1.2515	10.47363
1.252	-0.20142
1.2525	-5.23682
1.253	-9.86938
1.2535	-10.47363
1.254	-8.15735
1.2545	-5.53894
1.255	1.81274
1.2555	10.47363
1.256	12.48779
1.2565	9.36584
1.257	2.31628
1.2575	6.3446
1.258	3.42407
1.2585	5.13611
1.259	6.84814
1.2595	4.73328
1.26	2.81982
1.2605	1.2085
1.261	-4.02832
1.2615	-2.11487
1.262	-3.02124
1.2625	-1.71204
1.263	0.40283
1.2635	1.3092
1.264	-0.10071
1.2645	7.95593
1.265	9.26514
1.2655	8.56018
1.266	6.2439
1.2665	6.54602
1.267	2.21558
1.2675	-0.50354
1.268	-6.94885
1.2685	-3.02124
1.269	-4.53186
1.2695	0.40283
1.27	-0.60425
1.2705	0.20142
1.271	10.57434
1.2715	10.37292
1.272	15.1062
1.2725	24.27063
1.273	19.33594
1.2735	21.75293
1.274	21.3501
1.2745	18.22815
1.275	21.3501
1.2755	15.81116
1.276	9.56726
1.2765	6.04248
1.277	2.5177
1.2775	4.73328
1.278	-2.31628
1.2785	-3.12195
1.279	-0.40283
1.2795	-2.21558
1.28	-7.75452
1.2805	-8.7616
1.281	-15.00549
1.2815	-8.56018
1.282	-7.5531
1.2825	0
1.283	2.61841
1.2835	5.94177
1.284	7.75452
1.2845	12.18567
1.285	7.95593
1.2855	10.57434
1.286	11.58142
1.2865	9.36584
1.287	9.06372
1.2875	11.58142
1.288	7.75452
1.2885	6.04248
1.289	5.84106
1.2895	-0.80566
1.29	-3.02124
1.2905	-9.97009
1.291	-10.0708
1.2915	-5.13611
1.292	-0.80566
1.2925	0.10071
1.293	-11.58142
1.2935	-12.18567
1.294	-10.87646
1.2945	-7.65381
1.295	-5.0354
1.2955	-3.7262
1.296	-0.10071
1.2965	-0.10071
1.297	7.5531
1.2975	8.66089
1.298	10.37292
1.2985	13.89771
1.299	10.47363
1.2995	7.25098
1.3	8.56018
1.3005	7.5531
1.301	10.47363
1.3015	9.26514
1.302	9.26514
1.3025	7.85522
1.303	10.17151
1.3035	9.86938
1.304	8.45947
1.3045	3.92761
1.305	8.35876
1.3055	9.36584
1.306	5.63965
1.3065	4.22974
1.307	7.04956
1.3075	-0.80566
1.308	-2.11487
1.3085	1.81274
1.309	5.84106
1.3095	7.25098
1.31	8.8623
1.3105	8.7616
1.311	5.23682
1.3115	1.3092
1.312	1.51062
1.3125	7.15027
1.313	14.60266
1.3135	14.09912
1.314	18.42957
1.3145	16.3147
1.315	14.30054
1.3155	10.17151
1.316	8.05664
1.3165	7.75452
1.317	4.02832
1.3175	4.63257
1.318	-0.20142
1.3185	2.11487
1.319	7.35168
1.3195	12.38708
1.32	12.18567
1.3205	9.46655
1.321	11.17859
1.3215	9.66797
1.322	10.77576
1.3225	8.35876
1.323	-1.81274
1.3235	-3.22266
1.324	-0.70496
1.3245	4.02832
1.325	4.22974
1.3255	3.92761
1.326	6.14319
1.3265	12.18567
1.327	8.35876
1.3275	6.44531
1.328	4.93469
1.3285	4.12903
1.329	3.52478
1.3295	5.33752
1.33	-0.50354
1.3305	2.5177
1.331	0.40283
1.3315	0.20142
1.332	-2.31628
1.3325	-7.45239
1.333	3.62549
1.3335	1.00708
1.334	-1.00708
1.3345	-4.63257
1.335	5.74036
1.3355	8.25806
1.336	14.80408
1.3365	12.28638
1.337	9.16443
1.3375	8.25806
1.338	5.84106
1.3385	1.71204
1.339	3.32336
1.3395	7.75452
1.34	14.90479
1.3405	17.32178
1.341	15.1062
1.3415	17.32178
1.342	6.04248
1.3425	12.78992
1.343	10.27222
1.3435	7.5531
1.344	3.12195
1.3445	-0.50354
1.345	-2.31628
1.3455	-4.43115
1.346	-2.5177
1.3465	1.40991
1.347	2.01416
1.3475	-2.61841
1.348	2.61841
1.3485	2.41699
1.349	6.2439
1.3495	3.62549
1.35	5.94177
1.3505	9.26514
1.351	7.5531
1.3515	13.89771
1.352	10.77576
1.3525	12.78992
1.353	14.19983
1.3535	15.00549
1.354	16.41541
1.3545	15.30762
1.355	18.22815
1.3555	14.70337
1.356	12.18567
1.3565	7.04956
1.357	5.74036
1.3575	8.25806
1.358	3.7262
1.3585	3.7262
1.359	-4.02832
1.3595	-1.71204
1.36	2.41699
1.3605	1.00708
1.361	0.40283
1.3615	1.71204
1.362	4.93469
1.3625	10.17151
1.363	5.94177
1.3635	4.12903
1.364	1.81274
1.3645	4.22974
1.365	4.02832
1.3655	6.94885
1.366	4.43115
1.3665	3.8269
1.367	6.54602
1.3675	7.45239
1.368	15.00549
1.3685	11.88354
1.369	9.16443
1.3695	10.97717
1.37	13.99841
1.3705	5.43823
1.371	10.67505
1.3715	9.97009
1.372	2.71912
1.3725	3.12195
1.373	-0.10071
1.3735	0.10071
1.374	0.70496
1.3745	3.42407
1.375	5.13611
1.3755	3.12195
1.376	9.36584
1.3765	11.58142
1.377	11.2793
1.3775	8.05664
1.378	9.56726
1.3785	5.53894
1.379	8.7616
1.3795	10.97717
1.38	3.92761
1.3805	1.71204
1.381	3.62549
1.3815	2.41699
1.382	-2.01416
1.3825	-5.0354
1.383	-5.63965
1.3835	-6.3446
1.384	-9.36584
1.3845	-3.22266
1.385	-0.30212
1.3855	7.75452
1.386	7.15027
1.3865	14.80408
1.387	15.40833
1.3875	17.6239
1.388	11.78284
1.3885	18.42957
1.389	12.28638
1.3895	11.07788
1.39	7.35168
1.3905	8.05664
1.391	2.71912
1.3915	-5.0354
1.392	-6.94885
1.3925	-5.33752
1.393	-4.83398
1.3935	-0.70496
1.394	-0.40283
1.3945	0.80566
1.395	5.43823
1.3955	-4.43115
1.396	-0.40283
1.3965	-6.2439
1.397	1.40991
1.3975	6.54602
1.398	13.09204
1.3985	11.2793
1.399	7.35168
1.3995	10.67505
1.4	5.13611
1.4005	-6.14319
1.401	-4.53186
1.4015	-3.22266
1.402	-1.71204
1.4025	-12.99133
1.403	-11.48071
1.4035	-8.56018
1.404	-4.73328
1.4045	-2.11487
1.405	16.01257
1.4055	22.55859
1.406	37.16125
1.4065	43.40515
1.407	44.61365
1.4075	38.26904
1.408	30.81665
1.4085	23.8678
1.409	16.01257
1.4095	6.04248
1.41	-1.10779
1.4105	-3.42407
1.411	-3.32336
1.4115	-1.3092
1.412	1.00708
1.4125	-1.3092
1.413	-3.32336
1.4135	-1.91345
1.414	-0.80566
1.4145	-4.53186
1.415	-3.52478
1.4155	4.53186
1.416	8.15735
1.4165	6.44531
1.417	5.74036
1.4175	3.02124
1.418	6.74744
1.4185	-2.81982
1.419	-2.41699
1.4195	-6.44531
1.42	3.42407
1.4205	-0.60425
1.421	3.62549
1.4215	1.00708
1.422	5.13611
1.4225	4.83398
1.423	4.12903
1.4235	8.96301
1.424	3.42407
1.4245	1.00708
1.425	4.33044
1.4255	8.25806
1.426	-4.73328
1.4265	-15.20691
1.427	-14.90479
1.4275	-23.06213
1.428	-13.09204
1.4285	-5.13611
1.429	-1.71204
1.4295	-1.2085
1.43	0.40283
1.4305	15.81116
1.431	18.73169
1.4315	19.94019
1.432	13.59558
1.4325	20.94727
1.433	14.90479
1.4335	18.02673
1.434	15.00549
1.4345	19.53735
1.435	14.40125
1.4355	7.25098
1.436	14.90479
1.4365	10.17151
1.437	12.68921
1.4375	8.15735
1.438	6.54602
1.4385	1.00708
1.439	6.44531
1.4395	7.15027
1.44	10.77576
1.4405	4.02832
1.441	6.64673
1.4415	-1.40991
1.442	-0.20142
1.4425	-0.70496
1.443	3.32336
1.4435	6.14319
1.444	9.97009
1.4445	1.40991
1.445	3.92761
1.4455	4.93469
1.446	3.92761
1.4465	4.63257
1.447	3.52478
1.4475	4.73328
1.448	5.84106
1.4485	13.19275
1.449	14.90479
1.4495	5.63965
1.45	2.81982
1.4505	-0.90637
1.451	-8.56018
1.4515	-0.60425
1.452	-6.74744
1.4525	-0.30212
1.453	-3.12195
1.4535	0.10071
1.454	0.70496
1.4545	3.02124
1.455	-1.81274
1.4555	4.63257
1.456	14.70337
1.4565	11.38
1.457	7.45239
1.4575	13.09204
1.458	13.19275
1.4585	15.40833
1.459	11.58142
1.4595	6.2439
1.46	5.33752
1.4605	0.50354
1.461	4.93469
1.4615	8.66089
1.462	9.76868
1.4625	15.1062
1.463	15.71045
1.4635	7.85522
1.464	8.96301
1.4645	12.38708
1.465	12.89062
1.4655	7.85522
1.466	11.98425
1.4665	10.17151
1.467	6.2439
1.4675	2.71912
1.468	-3.02124
1.4685	-8.45947
1.469	-12.08496
1.4695	-20.94727
1.47	-20.34302
1.4705	-18.8324
1.471	-9.36584
1.4715	-5.43823
1.472	7.35168
1.4725	11.58142
1.473	21.65222
1.4735	22.55859
1.474	22.86072
1.4745	24.87488
1.475	20.54443
1.4755	13.59558
1.476	8.66089
1.4765	0.60425
1.477	6.74744
1.4775	7.25098
1.478	2.21558
1.4785	2.21558
1.479	-2.11487
1.4795	-0.10071
1.48	-0.50354
1.4805	2.81982
1.481	-0.60425
1.4815	-9.06372
1.482	-7.75452
1.4825	-6.84814
1.483	-6.74744
1.4835	1.10779
1.484	1.91345
1.4845	1.61133
1.485	-1.3092
1.4855	9.97009
1.486	10.47363
1.4865	9.06372
1.487	7.25098
1.4875	12.5885
1.488	10.27222
1.4885	12.28638
1.489	13.69629
1.4895	12.18567
1.49	4.02832
1.4905	2.21558
1.491	-0.90637
1.4915	-4.63257
1.492	-6.84814
1.4925	-8.35876
1.493	-4.43115
1.4935	2.71912
1.494	2.81982
1.4945	6.54602
1.495	7.65381
1.4955	8.7616
1.496	11.88354
1.4965	5.53894
1.497	6.2439
1.4975	2.61841
1.498	5.84106
1.4985	11.48071
1.499	6.84814
1.4995	1.40991
1.5	-0.50354
1.5005	2.92053
1.501	8.56018
1.5015	3.8269
1.502	8.45947
1.5025	8.05664
1.503	3.12195
1.5035	7.35168
1.504	5.84106
1.5045	2.01416
1.505	6.14319
1.5055	11.78284
1.506	5.23682
1.5065	7.85522
1.507	8.96301
1.5075	13.39417
1.508	11.68213
1.5085	11.98425
1.509	12.28638
1.5095	15.91187
1.51	8.7616
1.5105	10.87646
1.511	7.5531
1.5115	5.53894
1.512	18.02673
1.5125	6.64673
1.513	4.02832
1.5135	6.04248
1.514	7.95593
1.5145	4.73328
1.515	7.65381
1.5155	5.43823
1.516	7.25098
1.5165	8.25806
1.517	7.95593
1.5175	6.94885
1.518	6.14319
1.5185	10.87646
1.519	9.66797
1.5195	8.35876
1.52	8.56018
1.5205	15.50903
1.521	7.75452
1.5215	4.73328
1.522	4.33044
1.5225	-3.62549
1.523	-4.33044
1.5235	2.41699
1.524	0.90637
1.5245	1.10779
1.525	-2.41699
1.5255	-2.01416
1.526	2.11487
1.5265	3.42407
1.527	3.8269
1.5275	6.64673
1.528	13.89771
1.5285	15.30762
1.529	9.26514
1.5295	0.20142
1.53	-0.50354
1.5305	-0.40283
1.531	-3.7262
1.5315	-4.93469
1.532	-8.56018
1.5325	-7.45239
1.533	-1.10779
1.5335	-7.5531
1.534	-12.18567
1.5345	-9.56726
1.535	-9.46655
1.5355	-8.96301
1.536	-3.62549
1.5365	-4.43115
1.537	-8.56018
1.5375	-10.0708
1.538	-11.07788
1.5385	-12.48779
1.539	-9.16443
1.5395	-5.13611
1.54	-2.11487
1.5405	3.52478
1.541	-4.22974
1.5415	-0.60425
1.542	-0.80566
1.5425	-4.53186
1.543	3.8269
1.5435	0.50354
1.544	-3.02124
1.5445	-9.06372
1.545	-7.15027
1.5455	-4.73328
1.546	0.60425
1.5465	10.77576
1.547	14.09912
1.5475	21.3501
1.548	24.97559
1.5485	28.09753
1.549	20.54443
1.5495	12.5885
1.55	8.25806
1.5505	-3.7262
1.551	-12.99133
1.5515	-11.2793
1.552	-3.7262
1.5525	0.90637
1.553	4.63257
1.5535	17.72461
1.554	21.55151
1.5545	21.45081
1.555	26.3855
1.5555	25.07629
1.556	14.80408
1.5565	15.1062
1.557	11.98425
1.5575	6.84814
1.558	4.02832
1.5585	2.5177
1.559	9.06372
1.5595	6.3446
1.56	3.12195
1.5605	10.47363
1.561	6.54602
1.5615	6.94885
1.562	11.88354
1.5625	10.67505
1.563	5.33752
1.5635	9.46655
1.564	6.44531
1.5645	12.18567
1.565	15.1062
1.5655	20.54443
1.566	18.42957
1.5665	8.8623
1.567	17.42249
1.5675	19.13452
1.568	16.81824
1.5685	23.56567
1.569	25.37842
1.5695	21.85364
1.57	15.71045
1.5705	13.19275
1.571	15.1062
1.5715	11.98425
1.572	7.25098
1.5725	10.27222
1.573	14.19983
1.5735	13.19275
1.574	17.92603
1.5745	12.28638
1.575	6.14319
1.5755	3.32336
1.576	4.93469
1.5765	10.97717
1.577	16.11328
1.5775	11.17859
1.578	10.27222
1.5785	13.797
1.579	12.08496
1.5795	13.69629
1.58	18.12744
1.5805	12.28638
1.581	9.56726
1.5815	9.76868
1.582	14.19983
1.5825	17.42249
1.583	21.45081
1.5835	12.89062
1.584	11.68213
1.5845	10.87646
1.585	7.25098
1.5855	6.84814
1.586	12.99133
1.5865	13.09204
1.587	5.74036
1.5875	9.26514
1.588	8.05664
1.5885	12.08496
1.589	10.37292
1.5895	8.56018
1.59	7.35168
1.5905	5.23682
1.591	1.3092
1.5915	5.33752
1.592	5.0354
1.5925	10.37292
1.593	4.33044
1.5935	-6.14319
1.594	2.31628
1.5945	1.61133
1.595	2.11487
1.5955	1.3092
1.596	9.76868
1.5965	4.02832
1.597	8.8623
1.5975	11.07788
1.598	11.48071
1.5985	2.01416
1.599	2.5177
1.5995	2.41699
1.6	0.60425
1.6005	0.30212
1.601	-3.22266
1.6015	-4.73328
1.602	-0.50354
1.6025	1.10779
1.603	4.63257
1.6035	2.92053
1.604	9.36584
1.6045	7.75452
1.605	10.67505
1.6055	17.72461
1.606	15.71045
1.6065	17.42249
1.607	15.1062
1.6075	17.42249
1.608	18.22815
1.6085	15.1062
1.609	14.80408
1.6095	12.08496
1.61	7.45239
1.6105	0.20142
1.611	-0.20142
1.6115	2.5177
1.612	-1.00708
1.6125	-0.40283
1.613	-1.10779
1.6135	2.71912
1.614	-1.10779
1.6145	2.21558
1.615	-6.54602
1.6155	-9.06372
1.616	-7.35168
1.6165	-8.15735
1.617	-7.35168
1.6175	-0.80566
1.618	12.08496
1.6185	14.09912
1.619	23.36426
1.6195	30.11169
1.62	33.03223
1.6205	29.00391
1.621	26.08337
1.6215	22.15576
1.622	15.81116
1.6225	15.1062
1.623	12.48779
1.6235	11.98425
1.624	9.56726
1.6245	1.00708
1.625	7.5531
1.6255	6.3446
1.626	3.42407
1.6265	3.62549
1.627	0.80566
1.6275	5.74036
1.628	9.06372
1.6285	7.95593
1.629	10.57434
1.6295	3.22266
1.63	4.93469
1.6305	3.32336
1.631	4.22974
1.6315	0.60425
1.632	-0.10071
1.6325	-4.43115
1.633	-6.64673
1.6335	-5.84106
1.634	-6.44531
1.6345	-2.11487
1.635	-2.61841
1.6355	3.8269
1.636	-1.00708
1.6365	5.53894
1.637	9.06372
1.6375	11.2793
1.638	9.97009
1.6385	17.01965
1.639	18.53027
1.6395	15.91187
1.64	18.32886
1.6405	17.52319
1.641	15.20691
1.6415	10.87646
1.642	9.76868
1.6425	2.21558
1.643	-3.02124
1.6435	-3.8269
1.644	2.41699
1.6445	3.62549
1.645	4.02832
1.6455	6.04248
1.646	8.35876
1.6465	9.26514
1.647	8.66089
1.6475	14.50195
1.648	9.46655
1.6485	-1.00708
1.649	-3.22266
1.6495	-1.81274
1.65	-0.70496
1.6505	6.04248
1.651	13.69629
1.6515	8.56018
1.652	3.92761
1.6525	6.3446
1.653	-1.61133
1.6535	-2.92053
1.654	-13.99841
1.6545	-10.37292
1.655	-13.69629
1.6555	-10.27222
1.656	-7.95593
1.6565	0.60425
1.657	10.27222
1.6575	20.04089
1.658	17.6239
1.6585	13.39417
1.659	9.97009
1.6595	8.66089
1.66	9.66797
1.6605	1.3092
1.661	1.40991
1.6615	-5.13611
1.662	-2.5177
1.6625	-5.43823
1.663	1.71204
1.6635	-1.40991
1.664	-1.2085
1.6645	0.80566
1.665	2.11487
1.6655	-0.10071
1.666	3.12195
1.6665	6.84814
1.667	9.46655
1.6675	11.78284
1.668	10.37292
1.6685	7.35168
1.669	1.81274
1.6695	5.63965
1.67	7.45239
1.6705	5.94177
1.671	8.8623
1.6715	4.22974
1.672	4.73328
1.6725	7.5531
1.673	-0.20142
1.6735	-2.41699
1.674	-0.60425
1.6745	-1.00708
1.675	6.3446
1.6755	3.7262
1.676	1.91345
1.6765	5.53894
1.677	2.11487
1.6775	8.96301
1.678	13.39417
1.6785	10.97717
1.679	14.09912
1.6795	6.74744
1.68	10.77576
1.6805	14.50195
1.681	9.66797
1.6815	19.94019
1.682	16.81824
1.6825	15.71045
1.683	11.07788
1.6835	12.18567
1.684	5.63965
1.6845	2.92053
1.685	0.40283
1.6855	-1.61133
1.686	-3.52478
1.6865	4.02832
1.687	5.84106
1.6875	6.14319
1.688	12.38708
1.6885	15.91187
1.689	13.89771
1.6895	17.42249
1.69	16.41541
1.6905	12.68921
1.691	6.44531
1.6915	6.74744
1.692	3.02124
1.6925	-1.00708
1.693	-0.30212
1.6935	-7.45239
1.694	2.01416
1.6945	-0.30212
1.695	-3.12195
1.6955	4.43115
1.696	3.32336
1.6965	-4.93469
1.697	-3.12195
1.6975	6.14319
1.698	9.26514
1.6985	10.97717
1.699	6.74744
1.6995	10.77576
1.7	5.23682
1.7005	4.93469
1.701	6.14319
1.7015	3.32336
1.702	3.02124
1.7025	10.17151
1.703	9.36584
1.7035	6.04248
1.704	1.40991
1.7045	2.11487
1.705	0.30212
1.7055	-0.70496
1.706	1.00708
1.7065	0.80566
1.707	-0.90637
1.7075	2.92053
1.708	1.00708
1.7085	4.33044
1.709	2.61841
1.7095	5.33752
1.71	9.76868
1.7105	11.17859
1.711	15.30762
1.7115	19.13452
1.712	16.71753
1.7125	18.02673
1.713	12.48779
1.7135	14.40125
1.714	12.5885
1.7145	14.09912
1.715	14.30054
1.7155	7.25098
1.716	2.41699
1.7165	-2.31628
1.717	0.60425
1.7175	-3.8269
1.718	-2.92053
1.7185	-0.80566
1.719	-5.33752
1.7195	-3.32336
1.72	2.31628
1.7205	1.40991
1.721	5.23682
1.7215	2.21558
1.722	2.61841
1.7225	4.33044
1.723	8.7616
1.7235	10.0708
1.724	13.19275
1.7245	13.19275
1.725	15.00549
1.7255	15.1062
1.726	10.47363
1.7265	10.37292
1.727	2.31628
1.7275	-4.93469
1.728	0.40283
1.7285	5.53894
1.729	7.04956
1.7295	6.2439
1.73	13.89771
1.7305	9.26514
1.731	7.65381
1.7315	8.66089
1.732	8.56018
1.7325	4.93469
1.733	6.84814
1.7335	0.30212
1.734	-3.12195
1.7345	1.51062
1.735	1.51062
1.7355	5.13611
1.736	6.54602
1.7365	9.76868
1.737	13.19275
1.7375	7.85522
1.738	3.8269
1.7385	6.14319
1.739	2.71912
1.7395	-3.8269
1.74	-1.3092
1.7405	-2.21558
1.741	-3.02124
1.7415	9.46655
1.742	3.12195
1.7425	-1.00708
1.743	0
1.7435	-1.71204
1.744	0.50354
1.7445	1.00708
1.745	2.21558
1.7455	0.90637
1.746	6.54602
1.7465	8.45947
1.747	18.12744
1.7475	17.12036
1.748	17.6239
1.7485	10.57434
1.749	0.60425
1.7495	1.61133
1.75	3.32336
1.7505	1.40991
1.751	5.33752
1.7515	4.93469
1.752	7.25098
1.7525	12.68921
1.753	17.01965
1.7535	19.03381
1.754	18.93311
1.7545	16.71753
1.755	9.97009
1.7555	18.73169
1.756	9.76868
1.7565	7.65381
1.757	12.18567
1.7575	8.35876
1.758	-0.30212
1.7585	-5.53894
1.759	-11.88354
1.7595	-6.94885
1.76	-12.28638
1.7605	-12.89062
1.761	-8.56018
1.7615	-2.11487
1.762	3.52478
1.7625	11.58142
1.763	14.40125
1.7635	14.19983
1.764	15.40833
1.7645	12.38708
1.765	11.78284
1.7655	17.6239
1.766	11.68213
1.7665	7.45239
1.767	1.00708
1.7675	-7.15027
1.768	-4.53186
1.7685	-1.2085
1.769	-0.90637
1.7695	1.91345
1.77	0.50354
1.7705	-2.01416
1.771	1.71204
1.7715	5.74036
1.772	1.00708
1.7725	-0.40283
1.773	-5.13611
1.7735	-9.46655
1.774	-9.97009
1.7745	-4.73328
1.775	-6.44531
1.7755	-5.84106
1.776	-9.46655
1.7765	-12.08496
1.777	-5.53894
1.7775	-0.70496
1.778	-1.40991
1.7785	2.41699
1.779	8.45947
1.7795	15.20691
1.78	13.09204
1.7805	13.797
1.781	25.98267
1.7815	25.177
1.782	21.45081
1.7825	13.49487
1.783	6.54602
1.7835	5.43823
1.784	0.50354
1.7845	-0.10071
1.785	5.0354
1.7855	0.20142
1.786	-6.3446
1.7865	0.10071
1.787	-1.81274
1.7875	-1.40991
1.788	-5.94177
1.7885	-2.81982
1.789	5.63965
1.7895	8.45947
1.79	10.37292
1.7905	11.38
1.791	9.46655
1.7915	10.87646
1.792	8.45947
1.7925	10.87646
1.793	10.0708
1.7935	12.5885
1.794	10.87646
1.7945	13.49487
1.795	7.5531
1.7955	4.93469
1.796	6.04248
1.7965	5.53894
1.797	5.74036
1.7975	6.54602
1.798	3.42407
1.7985	6.84814
1.799	0.20142
1.7995	-1.2085
1.8	1.10779
1.8005	2.81982
1.801	-1.81274
1.8015	0.70496
1.802	-4.53186
1.8025	-3.42407
1.803	-4.12903
1.8035	-2.92053
1.804	-1.10779
1.8045	2.41699
1.805	-0.60425
1.8055	7.95593
1.806	0.80566
1.8065	6.54602
1.807	6.64673
1.8075	2.01416
1.808	-5.0354
1.8085	-5.13611
1.809	1.71204
1.8095	11.78284
1.81	6.3446
1.8105	11.58142
1.811	12.5885
1.8115	7.85522
1.812	8.15735
1.8125	6.54602
1.813	9.56726
1.8135	14.40125
1.814	15.1062
1.8145	13.49487
1.815	3.92761
1.8155	7.04956
1.816	7.25098
1.8165	6.04248
1.817	7.65381
1.8175	10.27222
1.818	10.37292
1.8185	10.67505
1.819	4.53186
1.8195	7.45239
1.82	7.75452
1.8205	8.56018
1.821	3.52478
1.8215	1.3092
1.822	2.41699
1.8225	-8.7616
1.823	-13.19275
1.8235	-13.99841
1.824	-8.15735
1.8245	-6.2439
1.825	0.80566
1.8255	1.10779
1.826	7.15027
1.8265	7.04956
1.827	10.57434
1.8275	11.17859
1.828	16.01257
1.8285	17.52319
1.829	21.45081
1.8295	20.04089
1.83	20.34302
1.8305	18.42957
1.831	14.50195
1.8315	6.44531
1.832	7.95593
1.8325	7.35168
1.833	10.17151
1.8335	6.2439
1.834	3.42407
1.8345	7.95593
1.835	7.35168
1.8355	6.84814
1.836	10.37292
1.8365	9.16443
1.837	8.25806
1.8375	15.50903
1.838	15.40833
1.8385	15.50903
1.839	9.46655
1.8395	6.94885
1.84	-2.41699
1.8405	-0.80566
1.841	0.90637
1.8415	2.21558
1.842	6.54602
1.8425	7.65381
1.843	12.78992
1.8435	21.14868
1.844	16.3147
1.8445	16.51611
1.845	14.19983
1.8455	13.39417
1.846	8.35876
1.8465	7.5531
1.847	4.12903
1.8475	-2.11487
1.848	-2.61841
1.8485	-12.08496
1.849	-6.84814
1.8495	-14.50195
1.85	-12.5885
1.8505	-6.2439
1.851	-6.14319
1.8515	0.90637
1.852	0.70496
1.8525	4.22974
1.853	4.43115
1.8535	16.71753
1.854	17.22107
1.8545	13.99841
1.855	13.39417
1.8555	15.50903
1.856	10.27222
1.8565	11.2793
1.857	3.12195
1.8575	10.57434
1.858	1.40991
1.8585	-1.3092
1.859	1.3092
1.8595	0.30212
1.86	-3.22266
1.8605	3.42407
1.861	-1.51062
1.8615	-2.41699
1.862	-2.11487
1.8625	1.51062
1.863	4.73328
1.8635	8.05664
1.864	13.69629
1.8645	10.87646
1.865	6.44531
1.8655	10.67505
1.866	14.50195
1.8665	9.36584
1.867	11.58142
1.8675	10.67505
1.868	11.58142
1.8685	2.71912
1.869	-0.70496
1.8695	-5.13611
1.87	-7.5531
1.8705	-11.38
1.871	-10.77576
1.8715	-4.12903
1.872	-7.15027
1.8725	1.2085
1.873	-0.80566
1.8735	-1.10779
1.874	8.96301
1.8745	16.81824
1.875	21.95435
1.8755	19.33594
1.876	13.59558
1.8765	9.06372
1.877	6.14319
1.8775	3.32336
1.878	3.02124
1.8785	5.94177
1.879	5.43823
1.8795	-3.8269
1.88	5.13611
1.8805	5.13611
1.881	0.30212
1.8815	5.53894
1.882	3.7262
1.8825	3.02124
1.883	5.13611
1.8835	9.76868
1.884	7.15027
1.8845	7.75452
1.885	7.5531
1.8855	11.98425
1.886	8.8623
1.8865	6.2439
1.887	4.83398
1.8875	6.94885
1.888	8.35876
1.8885	8.96301
1.889	3.62549
1.8895	5.84106
1.89	8.35876
1.8905	9.36584
1.891	3.32336
1.8915	-0.40283
1.892	-2.21558
1.8925	-2.41699
1.893	-3.8269
1.8935	-1.40991
1.894	-7.75452
1.8945	-6.84814
1.895	-8.05664
1.8955	-1.61133
1.896	-1.51062
1.8965	0
1.897	1.2085
1.8975	3.92761
1.898	10.67505
1.8985	11.17859
1.899	16.11328
1.8995	15.60974
1.9	16.51611
1.9005	12.99133
1.901	19.13452
1.9015	25.37842
1.902	17.32178
1.9025	15.60974
1.903	9.06372
1.9035	5.0354
1.904	0.30212
1.9045	-2.81982
1.905	-4.02832
1.9055	-12.48779
1.906	-6.94885
1.9065	-1.81274
1.907	0.80566
1.9075	2.11487
1.908	6.74744
1.9085	14.40125
1.909	21.24939
1.9095	26.78833
1.91	28.09753
1.9105	30.51453
1.911	23.56567
1.9115	21.04797
1.912	6.64673
1.9125	-0.50354
1.913	-2.5177
1.9135	-8.35876
1.914	-11.17859
1.9145	-9.66797
1.915	-14.60266
1.9155	-12.89062
1.916	-8.45947
1.9165	-13.59558
1.917	-9.86938
1.9175	-11.68213
1.918	-17.01965
1.9185	-18.53027
1.919	-14.40125
1.9195	-11.88354
1.92	-15.60974
1.9205	-14.50195
1.921	-7.85522
1.9215	-5.74036
1.922	3.52478
1.9225	7.35168
1.923	19.23523
1.9235	26.58691
1.924	32.12585
1.9245	39.98108
1.925	36.85913
1.9255	32.42798
1.926	29.80957
1.9265	24.67346
1.927	13.89771
1.9275	14.40125
1.928	10.57434
1.9285	4.43115
1.929	-0.80566
1.9295	-10.17151
1.93	-20.24231
1.9305	-19.43665
1.931	-22.55859
1.9315	-17.01965
1.932	-10.67505
1.9325	-4.73328
1.933	-6.54602
1.9335	3.02124
1.934	-2.31628
1.9345	4.22974
1.935	6.2439
1.9355	4.12903
1.936	0.50354
1.9365	-3.92761
1.937	-5.0354
1.9375	-9.16443
1.938	-3.52478
1.9385	-2.31628
1.939	-2.21558
1.9395	0.50354
1.94	8.7616
1.9405	7.15027
1.941	5.53894
1.9415	11.17859
1.942	14.40125
1.9425	17.42249
1.943	13.29346
1.9435	14.50195
1.944	14.90479
1.9445	12.48779
1.945	10.37292
1.9455	4.53186
1.946	5.0354
1.9465	6.84814
1.947	7.85522
1.9475	11.58142
1.948	6.94885
1.9485	12.68921
1.949	11.48071
1.9495	13.69629
1.95	10.27222
1.9505	14.70337
1.951	12.48779
1.9515	10.37292
1.952	12.28638
1.9525	12.18567
1.953	5.43823
1.9535	7.15027
1.954	6.64673
1.9545	6.94885
1.955	4.12903
1.9555	6.3446
1.956	7.85522
1.9565	12.5885
1.957	3.12195
1.9575	9.06372
1.958	4.43115
1.9585	7.25098
1.959	3.8269
1.9595	0.70496
1.96	3.32336
1.9605	5.53894
1.961	5.63965
1.9615	2.41699
1.962	4.83398
1.9625	1.10779
1.963	0.90637
1.9635	-1.2085
1.964	-1.00708
1.9645	-3.12195
1.965	-5.63965
1.9655	-3.92761
1.966	-5.63965
1.9665	-4.53186
1.967	-5.53894
1.9675	-9.06372
1.968	-8.35876
1.9685	-4.63257
1.969	7.95593
1.9695	15.20691
1.97	20.54443
1.9705	19.94019
1.971	25.47913
1.9715	24.16992
1.972	20.34302
1.9725	23.96851
1.973	16.21399
1.9735	13.89771
1.974	10.47363
1.9745	4.43115
1.975	-2.41699
1.9755	-10.47363
1.976	-11.38
1.9765	-9.66797
1.977	-7.35168
1.9775	-9.06372
1.978	-11.58142
1.9785	-0.90637
1.979	-8.56018
1.9795	-2.81982
1.98	-1.91345
1.9805	6.94885
1.981	4.93469
1.9815	4.12903
1.982	6.44531
1.9825	3.32336
1.983	0.60425
1.9835	7.04956
1.984	9.56726
1.9845	8.45947
1.985	9.97009
1.9855	5.53894
1.986	1.2085
1.9865	2.61841
1.987	9.56726
1.9875	11.78284
1.988	13.89771
1.9885	15.81116
1.989	16.51611
1.9895	13.59558
1.99	19.63806
1.9905	10.77576
1.991	10.0708
1.9915	7.25098
1.992	9.26514
1.9925	12.08496
1.993	9.56726
1.9935	1.71204
1.994	3.8269
1.9945	5.43823
1.995	8.66089
1.9955	3.92761
1.996	5.0354
1.9965	4.53186
1.997	8.25806
1.9975	0.30212
1.998	0.40283
1.9985	-0.50354
1.999	-1.10779
1.9995	-4.43115
2	-8.7616
2.0005	-0.60425
2.001	-2.21558
2.0015	2.81982
2.002	-2.21558
2.0025	-5.0354
2.003	-5.0354
2.0035	-3.8269
2.004	-1.2085
2.0045	-1.10779
2.005	3.62549
2.0055	3.52478
2.006	4.22974
2.0065	8.96301
2.007	10.27222
2.0075	9.97009
2.008	7.95593
2.0085	7.85522
2.009	4.93469
2.0095	7.35168
2.01	7.25098
2.0105	8.66089
2.011	14.09912
2.0115	11.17859
2.012	12.89062
2.0125	18.42957
2.013	16.3147
2.0135	11.58142
2.014	5.33752
2.0145	6.74744
2.015	-1.2085
2.0155	2.92053
2.016	6.14319
2.0165	-1.81274
2.017	7.65381
2.0175	8.05664
2.018	3.7262
2.0185	-0.30212
2.019	1.71204
2.0195	-3.62549
2.02	4.83398
2.0205	4.53186
2.021	12.5885
2.0215	18.02673
2.022	23.8678
2.0225	16.21399
2.023	17.42249
2.0235	13.49487
2.024	11.38
2.0245	10.97717
2.025	8.15735
2.0255	5.33752
2.026	7.25098
2.0265	-1.51062
2.027	-1.71204
2.0275	3.02124
2.028	-2.11487
2.0285	1.00708
2.029	0.80566
2.0295	-1.40991
2.03	8.56018
2.0305	12.5885
2.031	18.63098
2.0315	22.55859
2.032	21.75293
2.0325	16.11328
2.033	12.08496
2.0335	9.56726
2.034	2.01416
2.0345	0.10071
2.035	-1.40991
2.0355	-7.75452
2.036	-6.44531
2.0365	-2.21558
2.037	-3.02124
2.0375	1.00708
2.038	10.27222
2.0385	10.97717
2.039	11.78284
2.0395	8.7616
2.04	11.17859
2.0405	6.64673
2.041	7.65381
2.0415	6.94885
2.042	-2.31628
2.0425	-0.50354
2.043	-3.8269
2.0435	3.7262
2.044	3.32336
2.0445	9.26514
2.045	5.94177
2.0455	11.68213
2.046	7.5531
2.0465	13.89771
2.047	16.21399
2.0475	13.09204
2.048	15.30762
2.0485	8.05664
2.049	5.33752
2.0495	5.74036
2.05	7.15027
2.0505	4.43115
2.051	-3.52478
2.0515	-4.22974
2.052	-4.73328
2.0525	-2.92053
2.053	-7.85522
2.0535	-8.35876
2.054	3.62549
2.0545	1.10779
2.055	2.92053
2.0555	0.60425
2.056	3.52478
2.0565	2.92053
2.057	8.45947
2.0575	9.76868
2.058	9.86938
2.0585	8.8623
2.059	9.36584
2.0595	4.53186
2.06	-4.73328
2.0605	-11.78284
2.061	-14.60266
2.0615	-10.67505
2.062	-6.04248
2.0625	-1.00708
2.063	1.2085
2.0635	4.93469
2.064	11.48071
2.0645	16.01257
2.065	21.55151
2.0655	23.16284
2.066	29.00391
2.0665	21.65222
2.067	18.42957
2.0675	12.99133
2.068	8.96301
2.0685	9.76868
2.069	10.87646
2.0695	12.68921
2.07	8.05664
2.0705	4.12903
2.071	4.73328
2.0715	2.01416
2.072	9.06372
2.0725	7.25098
2.073	6.04248
2.0735	9.66797
2.074	10.57434
2.0745	5.74036
2.075	2.01416
2.0755	4.22974
2.076	-3.8269
2.0765	0.60425
2.077	3.32336
2.0775	3.32336
2.078	1.40991
2.0785	4.83398
2.079	5.74036
2.0795	3.22266
2.08	5.13611
2.0805	10.77576
2.081	9.26514
2.0815	5.33752
2.082	3.42407
2.0825	7.5531
2.083	-1.61133
2.0835	2.81982
2.084	-3.7262
2.0845	-6.94885
2.085	-11.2793
2.0855	-1.81274
2.086	3.22266
2.0865	1.2085
2.087	3.62549
2.0875	7.65381
2.088	14.80408
2.0885	18.8324
2.089	17.92603
2.0895	16.61682
2.09	20.74585
2.0905	16.3147
2.091	22.25647
2.0915	19.73877
2.092	16.3147
2.0925	12.38708
2.093	6.94885
2.0935	1.61133
2.094	5.63965
2.0945	3.12195
2.095	7.15027
2.0955	5.13611
2.096	7.35168
2.0965	5.94177
2.097	8.7616
2.0975	11.58142
2.098	13.89771
2.0985	6.3446
2.099	8.35876
2.0995	9.16443
2.1	11.2793
2.1005	13.69629
2.101	12.5885
2.1015	10.27222
2.102	14.40125
2.1025	10.17151
2.103	9.76868
2.1035	13.39417
2.104	13.09204
2.1045	11.48071
2.105	9.66797
2.1055	4.93469
2.106	5.74036
2.1065	-1.91345
2.107	-3.62549
2.1075	-0.90637
2.108	-2.71912
2.1085	-4.53186
2.109	-1.91345
2.1095	2.41699
2.11	3.32336
2.1105	8.66089
2.111	2.31628
2.1115	7.85522
2.112	6.2439
2.1125	-1.00708
2.113	0.80566
2.1135	5.13611
2.114	10.0708
2.1145	7.95593
2.115	11.17859
2.1155	10.17151
2.116	6.04248
2.1165	0.30212
2.117	0.50354
2.1175	5.94177
2.118	3.7262
2.1185	6.64673
2.119	6.74744
2.1195	3.7262
2.12	5.0354
2.1205	8.96301
2.121	7.45239
2.1215	13.09204
2.122	7.95593
2.1225	3.12195
2.123	-2.11487
2.1235	3.02124
2.124	-2.71912
2.1245	0.20142
2.125	-4.93469
2.1255	-1.61133
2.126	2.31628
2.1265	0
2.127	2.92053
2.1275	-5.94177
2.128	1.10779
2.1285	2.5177
2.129	2.92053
2.1295	2.01416
2.13	4.63257
2.1305	3.22266
2.131	-0.30212
2.1315	0.90637
2.132	5.94177
2.1325	7.45239
2.133	11.17859
2.1335	12.28638
2.134	9.86938
2.1345	5.74036
2.135	1.00708
2.1355	1.40991
2.136	0.20142
2.1365	4.33044
2.137	8.96301
2.1375	14.50195
2.138	11.58142
2.1385	13.19275
2.139	17.72461
2.1395	18.53027
2.14	15.20691
2.1405	12.28638
2.141	11.88354
2.1415	-2.71912
2.142	-6.44531
2.1425	-6.04248
2.143	-0.20142
2.1435	2.21558
2.144	-0.20142
2.1445	2.41699
2.145	-1.51062
2.1455	4.02832
2.146	-2.11487
2.1465	-6.54602
2.147	-7.35168
2.1475	-7.04956
2.148	-6.74744
2.1485	2.81982
2.149	2.41699
2.1495	0.40283
2.15	9.26514
2.1505	4.33044
2.151	6.3446
2.1515	8.8623
2.152	6.3446
2.1525	3.92761
2.153	3.92761
2.1535	5.43823
2.154	6.44531
2.1545	-4.33044
2.155	-4.22974
2.1555	-7.35168
2.156	-2.5177
2.1565	-2.41699
2.157	-1.61133
2.1575	3.22266
2.158	10.87646
2.1585	4.12903
2.159	11.88354
2.1595	3.12195
2.16	-2.41699
2.1605	3.92761
2.161	-2.41699
2.1615	-1.40991
2.162	1.81274
2.1625	6.2439
2.163	7.65381
2.1635	6.74744
2.164	3.12195
2.1645	-0.80566
2.165	0.50354
2.1655	-3.22266
2.166	-3.32336
2.1665	-1.51062
2.167	-4.73328
2.1675	-3.8269
2.168	-8.66089
2.1685	-4.02832
2.169	-11.48071
2.1695	-7.85522
2.17	-8.66089
2.1705	-1.40991
2.171	-1.3092
2.1715	4.93469
2.172	5.13611
2.1725	6.04248
2.173	2.11487
2.1735	-6.54602
2.174	-13.19275
2.1745	-13.89771
2.175	-11.48071
2.1755	-16.11328
2.176	-16.3147
2.1765	-15.81116
2.177	-12.28638
2.1775	-10.87646
2.178	-6.14319
2.1785	0.40283
2.179	9.86938
2.1795	7.45239
2.18	8.25806
2.1805	9.26514
2.181	10.47363
2.1815	12.38708
2.182	13.39417
2.1825	19.03381
2.183	21.65222
2.1835	21.04797
2.184	19.33594
2.1845	22.6593
2.185	13.59558
2.1855	6.74744
2.186	4.53186
2.1865	1.71204
2.187	0.90637
2.1875	0.60425
2.188	6.64673
2.1885	1.71204
2.189	-0.40283
2.1895	-7.15027
2.19	1.40991
2.1905	-1.3092
2.191	0.60425
2.1915	3.92761
2.192	6.44531
2.1925	3.8269
2.193	7.65381
2.1935	9.06372
2.194	15.60974
2.1945	13.29346
2.195	10.67505
2.1955	16.01257
2.196	10.67505
2.1965	4.12903
2.197	5.43823
2.1975	13.69629
2.198	17.6239
2.1985	15.81116
2.199	14.40125
2.1995	20.84656
2.2	16.81824
2.2005	12.28638
2.201	14.30054
2.2015	17.42249
2.202	16.11328
2.2025	15.81116
2.203	7.5531
2.2035	12.48779
2.204	9.46655
2.2045	9.76868
2.205	8.56018
2.2055	7.75452
2.206	9.56726
2.2065	10.0708
2.207	10.47363
2.2075	11.2793
2.208	10.0708
2.2085	11.2793
2.209	12.38708
2.2095	6.64673
2.21	10.0708
2.2105	12.28638
2.211	14.40125
2.2115	13.797
2.212	10.87646
2.2125	8.35876
2.213	0.50354
2.2135	4.43115
2.214	3.92761
2.2145	1.71204
2.215	1.40991
2.2155	10.37292
2.216	10.87646
2.2165	5.94177
2.217	6.74744
2.2175	4.33044
2.218	9.26514
2.2185	7.45239
2.219	5.23682
2.2195	6.64673
2.22	2.01416
2.2205	1.71204
2.221	2.81982
2.2215	6.94885
2.222	9.26514
2.2225	4.93469
2.223	12.78992
2.2235	11.88354
2.224	6.94885
2.2245	7.04956
2.225	6.2439
2.2255	4.33044
2.226	5.53894
2.2265	9.46655
2.227	6.44531
2.2275	5.0354
2.228	4.63257
2.2285	8.8623
2.229	13.09204
2.2295	16.01257
2.23	22.25647
2.2305	24.06921
2.231	31.4209
2.2315	24.37134
2.232	19.73877
2.2325	15.20691
2.233	12.28638
2.2335	16.51611
2.234	11.07788
2.2345	7.75452
2.235	5.84106
2.2355	3.32336
2.236	0.30212
2.2365	-5.53894
2.237	-5.13611
2.2375	-5.23682
2.238	-4.93469
2.2385	3.62549
2.239	6.2439
2.2395	2.71912
2.24	4.53186
2.2405	5.33752
2.241	3.92761
2.2415	3.8269
2.242	10.87646
2.2425	0.50354
2.243	0.20142
2.2435	1.00708
2.244	-5.74036
2.2445	-7.45239
2.245	-7.65381
2.2455	-8.35876
2.246	-11.07788
2.2465	-3.62549
2.247	0.30212
2.2475	0.90637
2.248	4.53186
2.2485	18.42957
2.249	22.35718
2.2495	26.28479
2.25	28.09753
2.2505	32.83081
2.251	34.24072
2.2515	30.11169
2.252	22.25647
2.2525	19.83948
2.253	9.56726
2.2535	12.38708
2.254	6.64673
2.2545	5.63965
2.255	7.35168
2.2555	10.0708
2.256	9.26514
2.2565	-0.10071
2.257	-1.61133
2.2575	-2.11487
2.258	-2.11487
2.2585	0.40283
2.259	3.92761
2.2595	5.94177
2.26	4.22974
2.2605	5.23682
2.261	3.32336
2.2615	-1.3092
2.262	6.04248
2.2625	5.74036
2.263	5.23682
2.2635	3.8269
2.264	1.51062
2.2645	1.10779
2.265	-3.32336
2.2655	-0.80566
2.266	-3.52478
2.2665	2.41699
2.267	-3.7262
2.2675	-4.02832
2.268	-5.53894
2.2685	-4.43115
2.269	-9.06372
2.2695	-8.96301
2.27	4.73328
2.2705	7.95593
2.271	3.02124
2.2715	4.83398
2.272	6.64673
2.2725	8.25806
2.273	11.68213
2.2735	7.45239
2.274	13.29346
2.2745	16.71753
2.275	13.39417
2.2755	8.56018
2.276	12.08496
2.2765	5.94177
2.277	2.61841
2.2775	1.71204
2.278	-0.20142
2.2785	6.14319
2.279	8.15735
2.2795	3.8269
2.28	-3.12195
2.2805	-1.3092
2.281	3.52478
2.2815	3.12195
2.282	0.50354
2.2825	4.02832
2.283	3.92761
2.2835	6.64673
2.284	-2.11487
2.2845	-2.81982
2.285	3.7262
2.2855	1.61133
2.286	3.02124
2.2865	1.71204
2.287	5.33752
2.2875	3.42407
2.288	-1.71204
2.2885	-1.10779
2.289	2.11487
2.2895	-0.80566
2.29	5.33752
2.2905	-3.12195
2.291	-5.43823
2.2915	-0.10071
2.292	3.8269
2.2925	1.00708
2.293	5.94177
2.2935	1.3092
2.294	0.10071
2.2945	4.93469
2.295	6.44531
2.2955	9.06372
2.296	5.94177
2.2965	12.28638
2.297	14.09912
2.2975	20.74585
2.298	15.50903
2.2985	11.2793
2.299	10.77576
2.2995	2.21558
2.3	-7.65381
2.3005	-9.46655
2.301	-2.81982
2.3015	2.01416
2.302	7.25098
2.3025	5.0354
2.303	7.95593
2.3035	5.43823
2.304	8.05664
2.3045	7.04956
2.305	11.17859
2.3055	13.29346
2.306	9.97009
2.3065	12.38708
2.307	17.12036
2.3075	12.68921
2.308	6.74744
2.3085	8.25806
2.309	6.64673
2.3095	6.84814
2.31	5.74036
2.3105	12.08496
2.311	8.96301
2.3115	8.25806
2.312	15.20691
2.3125	11.98425
2.313	9.06372
2.3135	10.87646
2.314	12.28638
2.3145	5.94177
2.315	5.0354
2.3155	5.74036
2.316	2.21558
2.3165	0.70496
2.317	2.81982
2.3175	3.62549
2.318	1.71204
2.3185	4.33044
2.319	0.70496
2.3195	-3.52478
2.32	-0.50354
2.3205	1.71204
2.321	1.51062
2.3215	3.8269
2.322	3.7262
2.3225	3.52478
2.323	9.76868
2.3235	6.64673
2.324	8.96301
2.3245	14.30054
2.325	17.92603
2.3255	21.45081
2.326	17.6239
2.3265	19.94019
2.327	19.03381
2.3275	17.6239
2.328	15.71045
2.3285	13.29346
2.329	6.64673
2.3295	7.04956
2.33	3.32336
2.3305	0.10071
2.331	-5.63965
2.3315	-15.71045
2.332	-12.99133
2.3325	-6.44531
2.333	-3.62549
2.3335	2.61841
2.334	1.61133
2.3345	3.32336
2.335	12.78992
2.3355	19.63806
2.336	12.18567
2.3365	11.88354
2.337	14.90479
2.3375	15.60974
2.338	9.76868
2.3385	-3.52478
2.339	-9.76868
2.3395	-6.64673
2.34	-2.41699
2.3405	3.8269
2.341	7.45239
2.3415	9.56726
2.342	6.84814
2.3425	2.41699
2.343	-2.11487
2.3435	8.56018
2.344	9.16443
2.3445	9.86938
2.345	8.96301
2.3455	6.84814
2.346	1.3092
2.3465	5.23682
2.347	1.81274
2.3475	6.64673
2.348	2.61841
2.3485	2.61841
2.349	-1.51062
2.3495	-0.30212
2.35	-5.23682
2.3505	-2.61841
2.351	3.7262
2.3515	3.92761
2.352	5.74036
2.3525	7.15027
2.353	9.46655
2.3535	5.84106
2.354	13.29346
2.3545	17.22107
2.355	15.81116
2.3555	17.22107
2.356	24.06921
2.3565	28.70178
2.357	26.58691
2.3575	24.16992
2.358	15.20691
2.3585	12.78992
2.359	7.95593
2.3595	2.5177
2.36	-0.80566
2.3605	-5.33752
2.361	-1.51062
2.3615	-3.7262
2.362	-8.7616
2.3625	-9.56726
2.363	-8.05664
2.3635	-12.89062
2.364	-8.96301
2.3645	-9.36584
2.365	-9.16443
2.3655	-3.8269
2.366	-3.02124
2.3665	-2.21558
2.367	-2.11487
2.3675	0.20142
2.368	-2.01416
2.3685	3.52478
2.369	9.56726
2.3695	12.68921
2.37	11.88354
2.3705	7.45239
2.371	13.09204
2.3715	17.42249
2.372	12.18567
2.3725	8.15735
2.373	6.54602
2.3735	7.85522
2.374	10.87646
2.3745	2.41699
2.375	2.5177
2.3755	7.65381
2.376	12.18567
2.3765	10.47363
2.377	9.46655
2.3775	7.45239
2.378	6.04248
2.3785	8.45947
2.379	9.66797
2.3795	3.32336
2.38	0.70496
2.3805	-0.40283
2.381	1.2085
2.3815	6.14319
2.382	1.3092
2.3825	-1.61133
2.383	-3.32336
2.3835	-11.88354
2.384	-12.78992
2.3845	-17.52319
2.385	-13.69629
2.3855	-7.25098
2.386	-3.52478
2.3865	4.43115
2.387	11.2793
2.3875	18.32886
2.388	25.27771
2.3885	27.39258
2.389	25.78125
2.3895	25.177
2.39	28.09753
2.3905	22.05505
2.391	17.12036
2.3915	7.15027
2.392	7.85522
2.3925	10.47363
2.393	6.2439
2.3935	6.54602
2.394	8.56018
2.3945	3.42407
2.395	1.2085
2.3955	-2.21558
2.396	2.21558
2.3965	6.2439
2.397	6.14319
2.3975	11.88354
2.398	10.0708
2.3985	7.15027
2.399	6.94885
2.3995	6.14319
2.4	10.57434
2.4005	5.13611
2.401	6.94885
2.4015	0.40283
2.402	4.33044
2.4025	-2.41699
2.403	2.61841
2.4035	8.66089
2.404	14.19983
2.4045	18.32886
2.405	22.15576
2.4055	18.63098
2.406	14.09912
2.4065	13.99841
2.407	7.5531
2.4075	6.64673
2.408	6.14319
2.4085	3.52478
2.409	-2.11487
2.4095	-0.40283
2.41	3.8269
2.4105	-2.31628
2.411	4.02832
2.4115	-1.40991
2.412	-0.10071
2.4125	-3.02124
2.413	6.94885
2.4135	-1.51062
2.414	5.53894
2.4145	4.63257
2.415	10.0708
2.4155	10.57434
2.416	9.86938
2.4165	-1.91345
2.417	-4.22974
2.4175	-2.61841
2.418	-1.61133
2.4185	-2.61841
2.419	-2.31628
2.4195	-2.5177
2.42	1.51062
2.4205	4.33044
2.421	8.15735
2.4215	7.25098
2.422	10.87646
2.4225	15.00549
2.423	12.18567
2.4235	13.69629
2.424	20.24231
2.4245	20.04089
2.425	7.65381
2.4255	8.25806
2.426	10.87646
2.4265	0.90637
2.427	1.3092
2.4275	11.07788
2.428	16.71753
2.4285	12.68921
2.429	15.50903
2.4295	18.22815
2.43	22.25647
2.4305	11.38
2.431	7.95593
2.4315	3.22266
2.432	1.3092
2.4325	2.61841
2.433	2.81982
2.4335	0.30212
2.434	4.83398
2.4345	6.04248
2.435	11.17859
2.4355	16.61682
2.436	18.8324
2.4365	10.97717
2.437	4.73328
2.4375	8.66089
2.438	8.05664
2.4385	0.90637
2.439	-1.81274
2.4395	-6.44531
2.44	-11.48071
2.4405	-5.74036
2.441	-4.53186
2.4415	1.3092
2.442	3.02124
2.4425	6.54602
2.443	5.0354
2.4435	6.94885
2.444	11.07788
2.4445	1.3092
2.445	1.3092
2.4455	4.33044
2.446	0.70496
2.4465	-1.00708
2.447	0.20142
2.4475	-2.01416
2.448	-1.00708
2.4485	-3.22266
2.449	2.5177
2.4495	5.43823
2.45	0.90637
2.4505	6.2439
2.451	2.5177
2.4515	3.42407
2.452	6.74744
2.4525	5.63965
2.453	6.04248
2.4535	2.01416
2.454	8.05664
2.4545	10.47363
2.455	10.47363
2.4555	11.78284
2.456	12.5885
2.4565	7.35168
2.457	2.01416
2.4575	1.00708
2.458	1.51062
2.4585	6.94885
2.459	5.74036
2.4595	7.75452
2.46	8.15735
2.4605	10.0708
2.461	15.71045
2.4615	16.21399
2.462	18.63098
2.4625	19.63806
2.463	17.92603
2.4635	16.01257
2.464	11.78284
2.4645	10.77576
2.465	-0.60425
2.4655	-6.14319
2.466	-7.85522
2.4665	-15.00549
2.467	-6.3446
2.4675	-4.53186
2.468	-10.87646
2.4685	-10.77576
2.469	-5.74036
2.4695	-13.29346
2.47	-0.60425
2.4705	-3.52478
2.471	4.63257
2.4715	9.06372
2.472	13.49487
2.4725	7.45239
2.473	6.3446
2.4735	11.58142
2.474	13.09204
2.4745	14.09912
2.475	14.40125
2.4755	14.09912
2.476	4.02832
2.4765	5.23682
2.477	1.3092
2.4775	9.36584
2.478	5.74036
2.4785	-3.22266
2.479	2.11487
2.4795	4.43115
2.48	7.5531
2.4805	6.44531
2.481	2.5177
2.4815	5.23682
2.482	10.0708
2.4825	9.76868
2.483	12.5885
2.4835	6.54602
2.484	6.14319
2.4845	9.16443
2.485	6.14319
2.4855	5.74036
2.486	5.23682
2.4865	-1.3092
2.487	2.61841
2.4875	2.41699
2.488	-4.93469
2.4885	-9.56726
2.489	-4.83398
2.4895	0.30212
2.49	11.68213
2.4905	19.03381
2.491	16.3147
2.4915	12.5885
2.492	15.00549
2.4925	13.797
2.493	18.32886
2.4935	16.3147
2.494	14.80408
2.4945	10.67505
2.495	16.81824
2.4955	13.797
2.496	9.66797
2.4965	4.83398
2.497	5.43823
2.4975	9.36584
2.498	0.10071
2.4985	1.51062
2.499	-1.10779
2.4995	-0.60425
2.5	-4.22974
2.5005	-1.81274
2.501	-2.01416
2.5015	2.81982
2.502	11.2793
2.5025	10.57434
2.503	4.93469
2.5035	-0.90637
2.504	-1.81274
2.5045	-4.43115
2.505	6.3446
2.5055	3.8269
2.506	7.04956
2.5065	4.12903
2.507	1.3092
2.5075	-3.7262
2.508	-0.50354
2.5085	-1.91345
2.509	-2.61841
2.5095	-1.40991
2.51	3.32336
2.5105	10.47363
2.511	10.77576
2.5115	10.47363
2.512	8.8623
2.5125	9.76868
2.513	1.81274
2.5135	-1.00708
2.514	6.04248
2.5145	6.3446
2.515	10.0708
2.5155	14.30054
2.516	16.81824
2.5165	11.48071
2.517	11.98425
2.5175	4.73328
2.518	-2.41699
2.5185	-7.65381
2.519	-8.15735
2.5195	-0.20142
2.52	-5.13611
2.5205	-8.8623
2.521	-6.74744
2.5215	0.50354
2.522	-2.92053
2.5225	-4.63257
2.523	-5.53894
2.5235	3.32336
2.524	9.16443
2.5245	19.13452
2.525	18.12744
2.5255	23.8678
2.526	15.00549
2.5265	14.50195
2.527	8.66089
2.5275	5.43823
2.528	6.14319
2.5285	2.41699
2.529	0.70496
2.5295	0.70496
2.53	4.02832
2.5305	2.81982
2.531	-2.21558
2.5315	4.93469
2.532	5.33752
2.5325	3.52478
2.533	7.65381
2.5335	7.15027
2.534	6.84814
2.5345	-1.61133
2.535	-2.5177
2.5355	-6.54602
2.536	-11.48071
2.5365	-8.45947
2.537	-4.53186
2.5375	0.60425
2.538	3.22266
2.5385	4.83398
2.539	3.8269
2.5395	5.63965
2.54	8.25806
2.5405	10.37292
2.541	4.12903
2.5415	7.5531
2.542	16.3147
2.5425	11.98425
2.543	17.92603
2.5435	12.5885
2.544	12.08496
2.5445	11.98425
2.545	13.69629
2.5455	5.33752
2.546	8.15735
2.5465	12.08496
2.547	6.2439
2.5475	12.08496
2.548	11.58142
2.5485	16.41541
2.549	14.30054
2.5495	18.12744
2.55	22.25647
2.5505	18.63098
2.551	22.6593
2.5515	17.01965
2.552	3.7262
2.5525	3.02124
2.553	1.40991
2.5535	2.11487
2.554	3.12195
2.5545	2.81982
2.555	10.27222
2.5555	7.75452
2.556	12.48779
2.5565	13.69629
2.557	17.12036
2.5575	19.83948
2.558	22.96143
2.5585	18.42957
2.559	16.21399
2.5595	5.84106
2.56	3.42407
2.5605	10.17151
2.561	6.3446
2.5615	6.44531
2.562	0.50354
2.5625	-5.23682
2.563	-3.32336
2.5635	-0.30212
2.564	2.81982
2.5645	-3.62549
2.565	-0.60425
2.5655	-5.23682
2.566	-3.52478
2.5665	-1.10779
2.567	-3.02124
2.5675	0.80566
2.568	6.44531
2.5685	10.87646
2.569	17.32178
2.5695	18.53027
2.57	16.01257
2.5705	20.1416
2.571	16.3147
2.5715	13.49487
2.572	16.71753
2.5725	15.81116
2.573	21.55151
2.5735	16.3147
2.574	22.96143
2.5745	12.78992
2.575	11.38
2.5755	4.12903
2.576	0.60425
2.5765	-1.00708
2.577	-1.2085
2.5775	-1.10779
2.578	-1.3092
2.5785	1.00708
2.579	-3.42407
2.5795	-5.84106
2.58	-6.74744
2.5805	-5.74036
2.581	-1.91345
2.5815	-0.80566
2.582	1.71204
2.5825	10.0708
2.583	15.20691
2.5835	9.56726
2.584	8.25806
2.5845	6.84814
2.585	4.93469
2.5855	-1.3092
2.586	-2.5177
2.5865	-5.63965
2.587	-6.04248
2.5875	-1.2085
2.588	-2.11487
2.5885	-4.12903
2.589	-5.0354
2.5895	-0.70496
2.59	-8.15735
2.5905	-8.7616
2.591	-6.3446
2.5915	-5.0354
2.592	3.8269
2.5925	0.30212
2.593	5.43823
2.5935	8.25806
2.594	9.46655
2.5945	3.62549
2.595	5.0354
2.5955	3.32336
2.596	1.40991
2.5965	3.92761
2.597	2.21558
2.5975	9.26514
2.598	6.44531
2.5985	0.90637
2.599	8.25806
2.5995	3.8269
2.6	3.02124
2.6005	1.61133
2.601	0.60425
2.6015	3.42407
2.602	12.38708
2.6025	6.64673
2.603	9.26514
2.6035	7.65381
2.604	7.75452
2.6045	1.2085
2.605	9.56726
2.6055	7.45239
2.606	6.3446
2.6065	7.25098
2.607	8.35876
2.6075	2.71912
2.608	4.33044
2.6085	6.04248
2.609	6.84814
2.6095	6.14319
2.61	7.15027
2.6105	2.81982
2.611	1.10779
2.6115	2.11487
2.612	3.12195
2.6125	6.2439
2.613	4.43115
2.6135	11.98425
2.614	5.84106
2.6145	5.84106
2.615	5.84106
2.6155	5.84106
2.616	5.84106
2.6165	5.84106
2.617	5.84106
2.6175	5.84106
2.618	5.84106
2.6185	5.84106
2.619	5.84106
2.6195	5.84106
2.62	5.84106
2.6205	5.84106
2.621	5.84106
2.6215	5.84106
2.622	5.84106
2.6225	5.84106
2.623	5.84106
2.6235	5.84106
2.624	5.84106
2.6245	1.51062
2.625	2.31628
2.6255	6.3446
2.626	6.94885
2.6265	5.63965
2.627	9.46655
2.6275	5.13611
2.628	1.81274
2.6285	3.42407
2.629	1.40991
2.6295	-3.12195
2.63	-0.20142
2.6305	0.50354
2.631	8.25806
2.6315	7.65381
2.632	9.76868
2.6325	11.48071
2.633	13.39417
2.6335	8.96301
2.634	18.02673
2.6345	11.88354
2.635	10.47363
2.6355	11.17859
2.636	10.37292
2.6365	7.65381
2.637	6.14319
2.6375	3.8269
2.638	12.28638
2.6385	9.56726
2.639	7.75452
2.6395	14.09912
2.64	4.43115
2.6405	5.63965
2.641	4.63257
2.6415	5.0354
2.642	3.92761
2.6425	9.76868
2.643	11.88354
2.6435	4.73328
2.644	0.30212
2.6445	-3.02124
2.645	1.2085
2.6455	3.8269
2.646	-0.50354
2.6465	0.70496
2.647	-11.38
2.6475	-17.01965
2.648	-17.42249
2.6485	-16.11328
2.649	-9.66797
2.6495	-4.53186
2.65	1.91345
2.6505	11.17859
2.651	15.60974
2.6515	21.14868
2.652	22.55859
2.6525	18.53027
2.653	15.71045
2.6535	16.51611
2.654	13.797
2.6545	4.83398
2.655	6.2439
2.6555	14.90479
2.656	8.15735
2.6565	7.95593
2.657	6.84814
2.6575	4.22974
2.658	7.35168
2.6585	3.8269
2.659	-4.73328
2.6595	-2.61841
2.66	-0.60425
2.6605	-1.00708
2.661	8.8623
2.6615	6.74744
2.662	11.68213
2.6625	11.2793
2.663	8.8623
2.6635	5.33752
2.664	12.28638
2.6645	14.40125
2.665	12.78992
2.6655	14.40125
2.666	16.01257
2.6665	11.58142
2.667	4.63257
2.6675	8.25806
2.668	0.90637
2.6685	3.92761
2.669	4.43115
2.6695	6.14319
2.67	4.73328
2.6705	-0.50354
2.671	-0.20142
2.6715	1.51062
2.672	0.60425
2.6725	7.04956
2.673	6.2439
2.6735	15.30762
2.674	14.09912
2.6745	10.47363
2.675	9.86938
2.6755	-0.70496
2.676	4.12903
2.6765	4.83398
2.677	3.7262
2.6775	7.45239
2.678	2.61841
2.6785	9.36584
2.679	8.05664
2.6795	4.22974
2.68	7.75452
2.6805	9.97009
2.681	6.44531
2.6815	4.83398
2.682	8.05664
2.6825	2.61841
2.683	-2.31628
2.6835	6.3446
2.684	6.14319
2.6845	5.23682
2.685	3.7262
2.6855	5.23682
2.686	4.02832
2.6865	1.61133
2.687	2.81982
2.6875	1.81274
2.688	1.61133
2.6885	4.93469
2.689	5.43823
2.6895	9.36584
2.69	11.58142
2.6905	13.69629
2.691	12.5885
2.6915	8.15735
2.692	11.58142
2.6925	3.7262
2.693	3.22266
2.6935	3.42407
2.694	3.12195
2.6945	8.66089
2.695	6.64673
2.6955	6.2439
2.696	7.45239
2.6965	5.0354
2.697	-5.74036
2.6975	2.61841
2.698	1.3092
2.6985	1.00708
2.699	0.20142
2.6995	7.65381
2.7	0.20142
2.7005	2.31628
2.701	-5.53894
2.7015	-1.40991
2.702	-2.61841
2.7025	2.01416
2.703	1.2085
2.7035	-0.60425
2.704	2.71912
2.7045	2.81982
2.705	1.3092
2.7055	3.52478
2.706	-2.21558
2.7065	7.65381
2.707	5.74036
2.7075	3.7262
2.708	4.33044
2.7085	5.43823
2.709	0.80566
2.7095	-5.74036
2.71	-9.26514
2.7105	-10.27222
2.711	-5.84106
2.7115	-7.75452
2.712	-2.31628
2.7125	10.57434
2.713	6.44531
2.7135	11.78284
2.714	11.98425
2.7145	15.40833
2.715	15.60974
2.7155	22.76001
2.716	13.797
2.7165	11.38
2.717	8.96301
2.7175	12.48779
2.718	9.26514
2.7185	7.25098
2.719	10.57434
2.7195	7.45239
2.72	7.25098
2.7205	9.16443
2.721	7.85522
2.7215	11.48071
2.722	15.1062
2.7225	13.99841
2.723	15.1062
2.7235	12.68921
2.724	14.60266
2.7245	11.88354
2.725	12.18567
2.7255	5.43823
2.726	5.94177
2.7265	7.95593
2.727	5.13611
2.7275	3.92761
2.728	5.53894
2.7285	7.35168
2.729	8.25806
2.7295	3.7262
2.73	4.33044
2.7305	5.53894
2.731	5.74036
2.7315	12.28638
2.732	9.26514
2.7325	11.38
2.733	18.93311
2.7335	16.61682
2.734	14.19983
2.7345	13.797
2.735	7.65381
2.7355	1.71204
2.736	-1.40991
2.7365	2.21558
2.737	3.12195
2.7375	-1.81274
2.738	-4.02832
2.7385	1.2085
2.739	1.91345
2.7395	5.43823
2.74	0.30212
2.7405	-3.62549
2.741	-4.63257
2.7415	0.20142
2.742	-2.11487
2.7425	-2.41699
2.743	4.83398
2.7435	3.52478
2.744	1.2085
2.7445	-1.40991
2.745	0.10071
2.7455	6.14319
2.746	4.12903
2.7465	2.21558
2.747	1.81274
2.7475	-1.00708
2.748	3.22266
2.7485	2.31628
2.749	-5.43823
2.7495	-3.52478
2.75	-3.62549
2.7505	-0.70496
2.751	3.32336
2.7515	-6.94885
2.752	-5.33752
2.7525	-2.11487
2.753	-5.53894
2.7535	-6.04248
2.754	-2.21558
2.7545	4.43115
2.755	5.63965
2.7555	-0.10071
2.756	16.81824
2.7565	16.71753
2.757	14.30054
2.7575	4.33044
2.758	-1.71204
2.7585	-7.04956
2.759	-6.3446
2.7595	-4.73328
2.76	-0.80566
2.7605	-3.32336
2.761	3.42407
2.7615	-2.81982
2.762	2.01416
2.7625	1.2085
2.763	-9.86938
2.7635	-22.86072
2.764	-35.54993
2.7645	-37.46338
2.765	-32.22656
2.7655	-19.83948
2.766	-8.56018
2.7665	1.81274
2.767	9.76868
2.7675	18.22815
2.768	21.75293
2.7685	24.27063
2.769	30.71594
2.7695	31.21948
2.77	34.54285
2.7705	27.89612
2.771	32.12585
2.7715	18.8324
2.772	15.91187
2.7725	2.41699
2.773	2.01416
2.7735	4.63257
2.774	9.46655
2.7745	20.44373
2.775	6.74744
2.7755	-4.02832
2.776	-7.85522
2.7765	-9.16443
2.777	1.71204
2.7775	8.35876
2.778	11.2793
2.7785	15.81116
2.779	25.37842
2.7795	29.20532
2.78	29.40674
2.7805	30.2124
2.781	37.56409
2.7815	42.59949
2.782	35.54993
2.7825	26.3855
2.783	30.51453
2.7835	21.95435
2.784	15.50903
2.7845	9.97009
2.785	16.01257
2.7855	13.19275
2.786	10.57434
2.7865	13.69629
2.787	20.94727
2.7875	26.58691
2.788	21.85364
2.7885	21.95435
2.789	28.29895
2.7895	28.70178
2.79	17.01965
2.7905	10.87646
2.791	6.54602
2.7915	6.54602
2.792	6.94885
2.7925	0.80566
2.793	-0.70496
2.7935	1.61133
2.794	4.33044
2.7945	-0.80566
2.795	-0.20142
2.7955	8.8623
2.796	11.2793
2.7965	9.46655
2.797	9.56726
2.7975	7.15027
2.798	11.78284
2.7985	7.25098
2.799	11.07788
2.7995	11.98425
2.8	15.1062
2.8005	13.59558
2.801	3.52478
2.8015	7.85522
2.802	9.06372
2.8025	3.42407
2.803	6.84814
2.8035	5.74036
2.804	5.13611
2.8045	3.92761
2.805	1.81274
2.8055	4.53186
2.806	5.63965
2.8065	3.52478
2.807	7.35168
2.8075	3.8269
2.808	0.80566
2.8085	1.91345
2.809	-1.91345
2.8095	-0.40283
2.81	-1.61133
2.8105	-9.36584
2.811	-8.35876
2.8115	-13.49487
2.812	-15.81116
2.8125	-13.19275
2.813	-11.58142
2.8135	-16.81824
2.814	-19.94019
2.8145	-12.48779
2.815	-10.47363
2.8155	-6.14319
2.816	-4.93469
2.8165	-7.25098
2.817	3.7262
2.8175	0.80566
2.818	6.84814
2.8185	7.04956
2.819	-4.43115
2.8195	-6.04248
2.82	-10.47363
2.8205	-6.44531
2.821	-7.04956
2.8215	-7.35168
2.822	-6.74744
2.8225	-7.75452
2.823	-12.5885
2.8235	-6.94885
2.824	-2.81982
2.8245	-0.60425
2.825	7.5531
2.8255	11.07788
2.826	17.42249
2.8265	18.32886
2.827	17.72461
2.8275	14.50195
2.828	9.26514
2.8285	-3.22266
2.829	-9.26514
2.8295	-10.77576
2.83	-14.70337
2.8305	-16.41541
2.831	-21.45081
2.8315	-13.69629
2.832	-12.28638
2.8325	-5.33752
2.833	1.3092
2.8335	4.43115
2.834	5.84106
2.8345	9.66797
2.835	7.25098
2.8355	7.95593
2.836	7.35168
2.8365	-5.84106
2.837	-1.2085
2.8375	-3.42407
2.838	-8.8623
2.8385	-14.40125
2.839	-4.33044
2.8395	2.21558
2.84	4.43115
2.8405	2.5177
2.841	5.0354
2.8415	6.94885
2.842	11.88354
2.8425	13.29346
2.843	20.44373
2.8435	21.24939
2.844	24.06921
2.8445	26.3855
2.845	24.87488
2.8455	28.29895
2.846	19.33594
2.8465	7.85522
2.847	1.51062
2.8475	-5.23682
2.848	1.81274
2.8485	6.64673
2.849	-0.60425
2.8495	-4.53186
2.85	-9.06372
2.8505	-4.12903
2.851	2.01416
2.8515	7.85522
2.852	11.38
2.8525	13.797
2.853	15.91187
2.8535	17.92603
2.854	27.39258
2.8545	31.11877
2.855	30.61523
2.8555	33.73718
2.856	27.89612
2.8565	26.88904
2.857	22.15576
2.8575	27.89612
2.858	23.96851
2.8585	25.47913
2.859	21.55151
2.8595	21.04797
2.86	15.40833
2.8605	16.11328
2.861	19.33594
2.8615	21.75293
2.862	16.71753
2.8625	22.35718
2.863	17.82532
2.8635	17.32178
2.864	19.73877
2.8645	22.25647
2.865	22.76001
2.8655	15.40833
2.866	18.8324
2.8665	20.1416
2.867	10.67505
2.8675	16.11328
2.868	9.86938
2.8685	3.8269
2.869	1.2085
2.8695	1.51062
2.87	9.26514
2.8705	15.1062
2.871	5.23682
2.8715	4.83398
2.872	11.78284
2.8725	11.07788
2.873	11.68213
2.8735	7.04956
2.874	9.36584
2.8745	10.87646
2.875	10.87646
2.8755	11.38
2.876	11.58142
2.8765	4.53186
2.877	3.02124
2.8775	-3.02124
2.878	-1.2085
2.8785	-2.61841
2.879	-0.20142
2.8795	-0.60425
2.88	-5.23682
2.8805	1.2085
2.881	-0.20142
2.8815	-9.66797
2.882	-30.81665
2.8825	-31.32019
2.883	-27.59399
2.8835	-17.12036
2.884	1.40991
2.8845	14.40125
2.885	18.63098
2.8855	32.93152
2.886	31.4209
2.8865	38.47046
2.887	35.44922
2.8875	38.26904
2.888	29.91028
2.8885	26.28479
2.889	30.51453
2.8895	21.75293
2.89	16.71753
2.8905	14.70337
2.891	11.38
2.8915	6.74744
2.892	7.04956
2.8925	10.97717
2.893	10.47363
2.8935	8.35876
2.894	7.04956
2.8945	9.66797
2.895	12.89062
2.8955	17.92603
2.896	14.40125
2.8965	12.5885
2.897	13.29346
2.8975	17.6239
2.898	9.46655
2.8985	-0.70496
2.899	4.63257
2.8995	8.05664
2.9	3.02124
2.9005	6.3446
2.901	3.8269
2.9015	6.64673
2.902	2.81982
2.9025	1.2085
2.903	2.5177
2.9035	0.20142
2.904	2.81982
2.9045	4.83398
2.905	7.85522
2.9055	14.80408
2.906	16.81824
2.9065	13.49487
2.907	11.38
2.9075	10.57434
2.908	8.45947
2.9085	11.68213
2.909	9.56726
2.9095	5.74036
2.91	2.92053
2.9105	6.84814
2.911	2.11487
2.9115	3.42407
2.912	3.22266
2.9125	8.15735
2.913	6.14319
2.9135	4.93469
2.914	5.33752
2.9145	5.84106
2.915	4.02832
2.9155	2.92053
2.916	-2.61841
2.9165	-16.3147
2.917	-16.61682
2.9175	-15.50903
2.918	-11.2793
2.9185	-1.3092
2.919	3.62549
2.9195	1.51062
2.92	7.5531
2.9205	7.15027
2.921	11.2793
2.9215	15.50903
2.922	23.06213
2.9225	16.81824
2.923	14.30054
2.9235	14.50195
2.924	-7.35168
2.9245	-28.39966
2.925	-44.21082
2.9255	-48.64197
2.926	-50.05188
2.9265	-41.08887
2.927	-35.75134
2.9275	-24.16992
2.928	-11.78284
2.9285	2.11487
2.929	12.48779
2.9295	25.37842
2.93	31.62231
2.9305	40.58533
2.931	46.32568
2.9315	42.29736
2.932	40.68604
2.9325	39.98108
2.933	39.67896
2.9335	26.48621
2.934	22.76001
2.9345	26.28479
2.935	22.25647
2.9355	23.46497
2.936	20.44373
2.9365	18.32886
2.937	15.40833
2.9375	16.41541
2.938	10.17151
2.9385	16.3147
2.939	9.97009
2.9395	7.95593
2.94	10.0708
2.9405	11.48071
2.941	13.19275
2.9415	11.38
2.942	11.38
2.9425	9.76868
2.943	11.58142
2.9435	8.35876
2.944	10.0708
2.9445	9.06372
2.945	7.75452
2.9455	9.46655
2.946	9.76868
2.9465	7.15027
2.947	8.45947
2.9475	3.52478
2.948	5.33752
2.9485	7.35168
2.949	5.94177
2.9495	7.65381
2.95	3.8269
2.9505	4.12903
2.951	8.35876
2.9515	-0.40283
2.952	-10.97717
2.9525	-6.54602
2.953	-1.40991
2.9535	-3.7262
2.954	4.02832
2.9545	4.83398
2.955	18.73169
2.9555	16.3147
2.956	24.77417
2.9565	23.26355
2.957	23.96851
2.9575	16.01257
2.958	14.90479
2.9585	10.87646
2.959	5.0354
2.9595	3.22266
2.96	6.14319
2.9605	-1.10779
2.961	-5.0354
2.9615	-9.16443
2.962	-10.27222
2.9625	-5.13611
2.963	-3.62549
2.9635	-5.0354
2.964	-7.15027
2.9645	-8.35876
2.965	-17.22107
2.9655	-21.3501
2.966	-12.68921
2.9665	-14.09912
2.967	-21.14868
2.9675	-21.14868
2.968	-14.30054
2.9685	-11.17859
2.969	-10.87646
2.9695	-5.13611
2.97	0.10071
2.9705	4.33044
2.971	7.35168
2.9715	5.0354
2.972	9.26514
2.9725	3.92761
2.973	-30.11169
2.9735	-43.80798
2.974	-39.47754
2.9745	-27.29187
2.975	-8.25806
2.9755	5.13611
2.976	16.91895
2.9765	28.29895
2.977	41.18958
2.9775	48.44055
2.978	52.36816
2.9785	58.10852
2.979	60.82764
2.9795	47.8363
2.98	45.01648
2.9805	44.71436
2.981	32.62939
2.9815	24.67346
2.982	22.15576
2.9825	22.55859
2.983	25.27771
2.9835	22.05505
2.984	29.60815
2.9845	21.14868
2.985	21.95435
2.9855	23.36426
2.986	24.27063
2.9865	15.71045
2.987	15.20691
2.9875	15.81116
2.988	20.64514
2.9885	17.01965
2.989	14.19983
2.9895	11.48071
2.99	13.59558
2.9905	9.36584
2.991	7.95593
2.9915	8.15735
2.992	4.53186
2.9925	-5.33752
2.993	-29.50745
2.9935	-66.6687
2.994	-73.11401
2.9945	-67.27295
2.995	-46.62781
2.9955	-29.50745
2.996	-13.09204
2.9965	-3.42407
2.997	9.97009
2.9975	16.91895
2.998	25.07629
2.9985	30.2124
2.999	28.19824
2.9995	32.83081
3	30.01099
3.0005	23.76709
3.001	19.83948
3.0015	22.96143
3.002	22.45789
3.0025	20.24231
3.003	16.41541
3.0035	19.03381
3.004	17.12036
3.0045	19.83948
3.005	26.08337
3.0055	23.8678
3.006	25.27771
3.0065	25.177
3.007	22.35718
3.0075	12.38708
3.008	11.07788
3.0085	9.16443
3.009	5.23682
3.0095	6.14319
3.01	9.97009
3.0105	8.96301
3.011	7.85522
3.0115	8.66089
3.012	14.70337
3.0125	15.00549
3.013	10.67505
3.0135	3.62549
3.014	6.64673
3.0145	1.71204
3.015	2.31628
3.0155	4.53186
3.016	5.94177
3.0165	-0.90637
3.017	-3.12195
3.0175	-5.63965
3.018	2.81982
3.0185	1.2085
3.019	2.5177
3.0195	9.26514
3.02	9.56726
3.0205	5.53894
3.021	10.97717
3.0215	2.92053
3.022	5.84106
3.0225	7.04956
3.023	7.04956
3.0235	-2.01416
3.024	-6.14319
3.0245	-10.77576
3.025	-17.12036
3.0255	-9.26514
3.026	-13.29346
3.0265	-12.89062
3.027	-17.01965
3.0275	-18.42957
3.028	-25.88196
3.0285	-30.61523
3.029	-25.37842
3.0295	-22.96143
3.03	-17.22107
3.0305	-8.7616
3.031	0.20142
3.0315	5.63965
3.032	17.42249
3.0325	22.76001
3.033	31.82373
3.0335	37.66479
3.034	42.09595
3.0345	41.79382
3.035	43.10303
3.0355	48.54126
3.036	44.51294
3.0365	38.974
3.037	31.21948
3.0375	28.19824
3.038	21.24939
3.0385	18.12744
3.039	17.6239
3.0395	18.42957
3.04	11.38
3.0405	5.63965
3.041	10.77576
3.0415	15.71045
3.042	11.2793
3.0425	9.06372
3.043	6.64673
3.0435	7.15027
3.044	7.45239
3.0445	5.0354
3.045	4.12903
3.0455	0.70496
3.046	8.56018
3.0465	5.13611
3.047	-0.30212
3.0475	2.61841
3.048	0.10071
3.0485	-1.00708
3.049	0
3.0495	-3.92761
3.05	5.13611
3.0505	4.83398
3.051	5.23682
3.0515	-0.10071
3.052	-12.89062
3.0525	-26.28479
3.053	-27.89612
3.0535	-31.62231
3.054	-30.2124
3.0545	-31.01807
3.055	-30.91736
3.0555	-24.37134
3.056	-19.23523
3.0565	-20.24231
3.057	-2.31628
3.0575	6.94885
3.058	18.12744
3.0585	29.10461
3.059	24.16992
3.0595	25.88196
3.06	21.75293
3.0605	22.25647
3.061	18.22815
3.0615	17.92603
3.062	18.32886
3.0625	22.25647
3.063	26.18408
3.0635	24.67346
3.064	29.40674
3.0645	30.61523
3.065	24.77417
3.0655	24.57275
3.066	24.47205
3.0665	18.42957
3.067	22.35718
3.0675	18.12744
3.068	17.42249
3.0685	16.01257
3.069	4.63257
3.0695	9.76868
3.07	3.8269
3.0705	4.02832
3.071	5.0354
3.0715	4.12903
3.072	0.90637
3.0725	-12.68921
3.073	-8.7616
3.0735	-6.94885
3.074	-1.71204
3.0745	-5.43823
3.075	1.2085
3.0755	-3.02124
3.076	0.90637
3.0765	-0.50354
3.077	9.16443
3.0775	11.48071
3.078	6.74744
3.0785	6.54602
3.079	4.83398
3.0795	1.61133
3.08	2.61841
3.0805	8.35876
3.081	9.97009
3.0815	10.67505
3.082	14.80408
3.0825	16.3147
3.083	12.78992
3.0835	15.50903
3.084	6.74744
3.0845	6.44531
3.085	8.7616
3.0855	6.2439
3.086	13.19275
3.0865	9.76868
3.087	12.28638
3.0875	8.45947
3.088	8.15735
3.0885	4.02832
3.089	0.90637
3.0895	-11.98425
3.09	-22.6593
3.0905	-28.09753
3.091	-30.2124
3.0915	-25.78125
3.092	-19.73877
3.0925	-40.88745
3.093	-47.03064
3.0935	-50.2533
3.094	-48.13843
3.0945	-45.01648
3.095	-39.88037
3.0955	-36.05347
3.096	-32.42798
3.0965	-13.99841
3.097	-1.71204
3.0975	12.08496
3.098	27.89612
3.0985	38.16833
3.099	46.42639
3.0995	53.27454
3.1	50.45471
3.1005	46.62781
3.101	45.52002
3.1015	42.09595
3.102	36.75842
3.1025	27.79541
3.103	27.09045
3.1035	29.40674
3.104	28.80249
3.1045	27.49329
3.105	25.07629
3.1055	21.24939
3.106	19.73877
3.1065	24.27063
3.107	20.84656
3.1075	14.50195
3.108	17.22107
3.1085	18.12744
3.109	20.44373
3.1095	14.19983
3.11	15.30762
3.1105	20.24231
3.111	16.81824
3.1115	18.73169
3.112	15.71045
3.1125	6.3446
3.113	11.68213
3.1135	16.81824
3.114	10.87646
3.1145	8.96301
3.115	13.89771
3.1155	7.04956
3.116	7.95593
3.1165	9.06372
3.117	4.63257
3.1175	10.47363
3.118	7.85522
3.1185	5.23682
3.119	-0.30212
3.1195	4.93469
3.12	7.04956
3.1205	-3.8269
3.121	-6.2439
3.1215	-37.16125
3.122	-53.57666
3.1225	-55.59082
3.123	-49.85046
3.1235	-37.46338
3.124	-31.11877
3.1245	-19.23523
3.125	-12.38708
3.1255	-8.15735
3.126	1.40991
3.1265	6.74744
3.127	16.01257
3.1275	15.60974
3.128	24.37134
3.1285	22.76001
3.129	19.53735
3.1295	22.05505
3.13	19.94019
3.1305	17.52319
3.131	10.0708
3.1315	-23.46497
3.132	-36.15417
3.1325	-51.86462
3.133	-56.29578
3.1335	-50.2533
3.134	-46.62781
3.1345	-39.98108
3.135	-24.77417
3.1355	-18.02673
3.136	-37.86621
3.1365	-67.07153
3.137	-78.04871
3.1375	-78.35083
3.138	-64.65454
3.1385	-40.08179
3.139	-22.86072
3.1395	2.11487
3.14	18.42957
3.1405	18.42957
3.141	24.16992
3.1415	37.16125
3.142	48.64197
3.1425	50.95825
3.143	55.89294
3.1435	57.00073
3.144	46.82922
3.1445	39.88037
3.145	28.39966
3.1455	20.34302
3.146	32.52869
3.1465	27.49329
3.147	23.16284
3.1475	25.98267
3.148	17.12036
3.1485	11.78284
3.149	5.33752
3.1495	3.62549
3.15	3.62549
3.1505	-2.41699
3.151	1.10779
3.1515	10.0708
3.152	22.05505
3.1525	31.4209
3.153	38.77258
3.1535	39.27612
3.154	40.68604
3.1545	49.64905
3.155	48.23914
3.1555	45.01648
3.156	36.35559
3.1565	27.89612
3.157	22.55859
3.1575	17.92603
3.158	19.23523
3.1585	14.90479
3.159	18.93311
3.1595	18.02673
3.16	18.02673
3.1605	20.1416
3.161	20.94727
3.1615	21.04797
3.162	20.34302
3.1625	23.16284
3.163	27.09045
3.1635	21.95435
3.164	21.3501
3.1645	14.50195
3.165	16.81824
3.1655	15.81116
3.166	14.90479
3.1665	1.81274
3.167	-13.39417
3.1675	-22.15576
3.168	-29.00391
3.1685	-28.39966
3.169	-18.8324
3.1695	-14.09912
3.17	-15.30762
3.1705	-4.43115
3.171	-2.31628
3.1715	9.46655
3.172	16.21399
3.1725	13.797
3.173	15.20691
3.1735	14.30054
3.174	15.60974
3.1745	13.69629
3.175	11.98425
3.1755	7.75452
3.176	-8.7616
3.1765	-13.49487
3.177	-15.60974
3.1775	-11.38
3.178	-11.68213
3.1785	-11.17859
3.179	-11.07788
3.1795	-4.33044
3.18	-34.64355
3.1805	-57.40356
3.181	-61.12976
3.1815	-47.33276
3.182	-35.04639
3.1825	-20.54443
3.183	-5.0354
3.1835	9.26514
3.184	12.68921
3.1845	21.45081
3.185	26.68762
3.1855	26.88904
3.186	25.37842
3.1865	21.45081
3.187	16.61682
3.1875	21.3501
3.188	15.30762
3.1885	10.77576
3.189	8.45947
3.1895	14.19983
3.19	14.09912
3.1905	17.32178
3.191	19.03381
3.1915	20.1416
3.192	17.92603
3.1925	14.30054
3.193	11.98425
3.1935	15.40833
3.194	10.47363
3.1945	7.75452
3.195	-1.51062
3.1955	-27.6947
3.196	-33.23364
3.1965	-43.30444
3.197	-30.61523
3.1975	-18.32886
3.198	-3.62549
3.1985	7.75452
3.199	1.61133
3.1995	-8.25806
3.2	-7.35168
3.2005	-1.91345
3.201	6.2439
3.2015	11.58142
3.202	12.78992
3.2025	15.81116
3.203	10.57434
3.2035	12.68921
3.204	21.65222
3.2045	21.14868
3.205	19.53735
3.2055	11.68213
3.206	0.90637
3.2065	-3.12195
3.207	1.00708
3.2075	0.20142
3.208	2.31628
3.2085	9.86938
3.209	8.25806
3.2095	13.59558
3.21	22.15576
3.2105	22.25647
3.211	17.12036
3.2115	18.22815
3.212	17.72461
3.2125	16.41541
3.213	15.30762
3.2135	16.01257
3.214	11.07788
3.2145	9.97009
3.215	6.44531
3.2155	5.0354
3.216	0
3.2165	-2.01416
3.217	0.10071
3.2175	1.61133
3.218	-5.74036
3.2185	-6.3446
3.219	-3.32336
3.2195	-6.54602
3.22	-9.97009
3.2205	-6.2439
3.221	-6.54602
3.2215	-3.8269
3.222	-3.02124
3.2225	0.60425
3.223	0.90637
3.2235	1.81274
3.224	10.47363
3.2245	9.26514
3.225	12.78992
3.2255	17.01965
3.226	11.07788
3.2265	-10.77576
3.227	-18.32886
3.2275	-35.85205
3.228	-48.94409
3.2285	-49.34692
3.229	-51.5625
3.2295	-44.61365
3.23	-32.12585
3.2305	-15.20691
3.231	-5.74036
3.2315	6.44531
3.232	14.19983
3.2325	16.71753
3.233	26.18408
3.2335	23.26355
3.234	22.35718
3.2345	22.35718
3.235	22.35718
3.2355	22.35718
3.236	22.35718
3.2365	22.35718
3.237	22.35718
3.2375	22.35718
3.238	22.35718
3.2385	22.35718
3.239	22.35718
3.2395	22.35718
3.24	22.35718
3.2405	22.35718
3.241	22.35718
3.2415	22.35718
3.242	22.35718
3.2425	22.35718
3.243	22.35718
3.2435	22.35718
3.244	22.35718
3.2445	42.29736
3.245	63.34534
3.2455	70.89844
3.246	79.05579
3.2465	69.68994
3.247	58.81348
3.2475	51.96533
3.248	38.16833
3.2485	23.06213
3.249	8.15735
3.2495	-18.42957
3.25	-40.58533
3.2505	-34.74426
3.251	-21.24939
3.2515	-10.47363
3.252	0.50354
3.2525	10.27222
3.253	13.89771
3.2535	26.28479
3.254	39.98108
3.2545	46.62781
3.255	43.80798
3.2555	43.30444
3.256	32.93152
3.2565	30.51453
3.257	24.57275
3.2575	21.45081
3.258	27.59399
3.2585	29.70886
3.259	36.4563
3.2595	39.17542
3.26	45.82214
3.2605	49.64905
3.261	38.67188
3.2615	46.02356
3.262	37.06055
3.2625	35.14709
3.263	25.57983
3.2635	34.24072
3.264	34.44214
3.2645	30.61523
3.265	25.47913
3.2655	27.59399
3.266	25.07629
3.2665	23.26355
3.267	22.35718
3.2675	17.12036
3.268	15.71045
3.2685	9.06372
3.269	0.30212
3.2695	8.25806
3.27	5.63965
3.2705	4.63257
3.271	1.2085
3.2715	-0.50354
3.272	-2.41699
3.2725	-5.43823
3.273	-6.54602
3.2735	-4.53186
3.274	-1.00708
3.2745	-9.26514
3.275	-8.15735
3.2755	-14.80408
3.276	-12.78992
3.2765	-26.3855
3.277	-43.80798
3.2775	-45.01648
3.278	-37.16125
3.2785	-21.95435
3.279	-4.73328
3.2795	4.63257
3.28	18.8324
3.2805	18.32886
3.281	15.20691
3.2815	18.93311
3.282	15.60974
3.2825	12.28638
3.283	8.05664
3.2835	3.12195
3.284	4.22974
3.2845	-1.51062
3.285	-2.5177
3.2855	6.14319
3.286	9.26514
3.2865	11.2793
3.287	20.74585
3.2875	20.84656
3.288	23.36426
3.2885	21.85364
3.289	23.76709
3.2895	26.3855
3.29	17.92603
3.2905	17.12036
3.291	15.60974
3.2915	4.33044
3.292	-37.26196
3.2925	-69.99207
3.293	-82.07703
3.2935	-75.32959
3.294	-61.93542
3.2945	-42.49878
3.295	-25.37842
3.2955	-10.67505
3.296	11.88354
3.2965	28.9032
3.297	38.974
3.2975	40.98816
3.298	49.34692
3.2985	45.62073
3.299	44.41223
3.2995	43.50586
3.3	23.36426
3.3005	14.09912
3.301	6.64673
3.3015	5.0354
3.302	3.7262
3.3025	1.2085
3.303	-5.63965
3.3035	-10.27222
3.304	-6.84814
3.3045	-1.91345
3.305	-9.06372
3.3055	-20.54443
3.306	-33.33435
3.3065	-38.06763
3.307	-33.73718
3.3075	-17.72461
3.308	-10.27222
3.3085	-6.04248
3.309	0.70496
3.3095	17.12036
3.31	18.63098
3.3105	15.50903
3.311	19.03381
3.3115	18.42957
3.312	13.49487
3.3125	1.81274
3.313	-3.52478
3.3135	-15.71045
3.314	-21.04797
3.3145	-33.9386
3.315	-36.85913
3.3155	-26.3855
3.316	-21.85364
3.3165	-16.21399
3.317	-10.27222
3.3175	1.61133
3.318	11.48071
3.3185	19.83948
3.319	25.27771
3.3195	26.48621
3.32	33.23364
3.3205	35.54993
3.321	29.70886
3.3215	-5.43823
3.322	-39.37683
3.3225	-61.6333
3.323	-65.96375
3.3235	-61.6333
3.324	-46.62781
3.3245	-34.54285
3.325	-31.4209
3.3255	-41.39099
3.326	-41.08887
3.3265	-35.34851
3.327	-22.05505
3.3275	-7.15027
3.328	10.87646
3.3285	25.57983
3.329	34.44214
3.3295	43.30444
3.33	47.13135
3.3305	57.00073
3.331	72.30835
3.3315	83.48694
3.332	73.11401
3.3325	61.53259
3.333	56.19507
3.3335	52.67029
3.334	44.51294
3.3345	44.31152
3.335	40.38391
3.3355	21.95435
3.336	5.13611
3.3365	-5.33752
3.337	-25.78125
3.3375	-37.26196
3.338	-41.08887
3.3385	-35.44922
3.339	-27.99683
3.3395	-10.97717
3.34	4.33044
3.3405	11.78284
3.341	15.81116
3.3415	18.93311
3.342	29.40674
3.3425	37.86621
3.343	43.50586
3.3435	40.1825
3.344	40.48462
3.3445	35.65063
3.345	32.93152
3.3455	16.21399
3.346	4.73328
3.3465	0.70496
3.347	-0.10071
3.3475	-4.02832
3.348	0.80566
3.3485	-3.8269
3.349	-12.89062
3.3495	-20.54443
3.35	-26.68762
3.3505	-23.16284
3.351	-7.25098
3.3515	0.60425
3.352	4.63257
3.3525	12.48779
3.353	21.14868
3.3535	26.58691
3.354	26.78833
3.3545	25.27771
3.355	31.82373
3.3555	28.9032
3.356	18.93311
3.3565	21.14868
3.357	26.28479
3.3575	26.3855
3.358	21.14868
3.3585	16.51611
3.359	9.76868
3.3595	-5.74036
3.36	-13.39417
3.3605	-17.32178
3.361	-17.82532
3.3615	-16.11328
3.362	-13.59558
3.3625	-10.97717
3.363	-16.01257
3.3635	-38.36975
3.364	-44.0094
3.3645	-27.39258
3.365	-19.73877
3.3655	-3.52478
3.366	8.96301
3.3665	18.73169
3.367	21.45081
3.3675	25.78125
3.368	31.52161
3.3685	37.16125
3.369	36.05347
3.3695	30.51453
3.37	30.11169
3.3705	31.82373
3.371	33.53577
3.3715	30.31311
3.372	23.26355
3.3725	30.91736
3.373	26.58691
3.3735	18.22815
3.374	24.37134
3.3745	17.01965
3.375	20.04089
3.3755	16.71753
3.376	17.12036
3.3765	4.73328
3.377	-6.44531
3.3775	-19.13452
3.378	-32.12585
3.3785	-39.37683
3.379	-30.41382
3.3795	-32.7301
3.38	-27.79541
3.3805	-22.86072
3.381	-9.76868
3.3815	-1.3092
3.382	-0.80566
3.3825	9.36584
3.383	22.6593
3.3835	28.60107
3.384	19.73877
3.3845	-10.77576
3.385	-39.07471
3.3855	-37.96692
3.386	-35.44922
3.3865	-38.16833
3.387	-30.71594
3.3875	-18.8324
3.388	9.46655
3.3885	19.73877
3.389	27.89612
3.3895	30.91736
3.39	38.77258
3.3905	43.70728
3.391	46.12427
3.3915	46.5271
3.392	39.57825
3.3925	40.68604
3.393	16.01257
3.3935	-19.53735
3.394	-39.07471
3.3945	-39.57825
3.395	-34.24072
3.3955	-31.62231
3.396	-19.33594
3.3965	-12.99133
3.397	-1.81274
3.3975	16.3147
3.398	23.56567
3.3985	23.16284
3.399	22.05505
3.3995	19.33594
3.4	17.42249
3.4005	13.59558
3.401	17.12036
3.4015	6.3446
3.402	-3.02124
3.4025	4.93469
3.403	-3.92761
3.4035	-14.80408
3.404	-15.60974
3.4045	-17.82532
3.405	-16.41541
3.4055	-19.83948
3.406	-15.50903
3.4065	-7.85522
3.407	-2.71912
3.4075	1.00708
3.408	-1.51062
3.4085	3.62549
3.409	0.80566
3.4095	6.64673
3.41	12.5885
3.4105	11.78284
3.411	17.42249
3.4115	28.39966
3.412	26.48621
3.4125	36.55701
3.413	39.67896
3.4135	34.03931
3.414	31.01807
3.4145	24.67346
3.415	22.35718
3.4155	12.99133
3.416	8.05664
3.4165	6.74744
3.417	-1.51062
3.4175	0.60425
3.418	-1.2085
3.4185	5.43823
3.419	-2.92053
3.4195	-10.57434
3.42	-8.56018
3.4205	-10.0708
3.421	-2.92053
3.4215	0.20142
3.422	6.84814
3.4225	12.28638
3.423	17.72461
3.4235	22.86072
3.424	25.37842
3.4245	24.16992
3.425	25.78125
3.4255	23.96851
3.426	22.05505
3.4265	16.11328
3.427	17.72461
3.4275	12.5885
3.428	14.50195
3.4285	14.30054
3.429	12.08496
3.4295	10.0708
3.43	4.22974
3.4305	-2.41699
3.431	-19.23523
3.4315	-24.47205
3.432	-18.63098
3.4325	-15.50903
3.433	-5.23682
3.4335	0.10071
3.434	12.48779
3.4345	13.29346
3.435	20.24231
3.4355	23.06213
3.436	27.19116
3.4365	24.47205
3.437	20.24231
3.4375	20.44373
3.438	22.6593
3.4385	17.32178
3.439	9.86938
3.4395	-8.8623
3.44	-23.36426
3.4405	-38.06763
3.441	-41.69312
3.4415	-40.98816
3.442	-35.85205
3.4425	-26.28479
3.443	-24.06921
3.4435	-8.05664
3.444	5.0354
3.4445	11.68213
3.445	24.87488
3.4455	33.43506
3.446	35.34851
3.4465	30.41382
3.447	33.73718
3.4475	25.37842
3.448	19.43665
3.4485	11.17859
3.449	11.98425
3.4495	-13.99841
3.45	-28.70178
3.4505	-32.83081
3.451	-23.76709
3.4515	-14.70337
3.452	-6.2439
3.4525	-2.61841
3.453	0.80566
3.4535	16.51611
3.454	24.57275
3.4545	24.37134
3.455	33.73718
3.4555	26.18408
3.456	25.27771
3.4565	17.92603
3.457	17.52319
3.4575	20.1416
3.458	16.81824
3.4585	11.88354
3.459	10.77576
3.4595	7.65381
3.46	2.92053
3.4605	-10.57434
3.461	-22.55859
3.4615	-20.24231
3.462	-20.54443
3.4625	-18.32886
3.463	-17.32178
3.4635	-14.50195
3.464	1.2085
3.4645	-2.61841
3.465	7.5531
3.4655	6.54602
3.466	4.83398
3.4665	-2.21558
3.467	0.40283
3.4675	-1.10779
3.468	2.01416
3.4685	-4.63257
3.469	-8.15735
3.4695	-8.35876
3.47	-13.09204
3.4705	-30.71594
3.471	-43.50586
3.4715	-43.10303
3.472	-42.19666
3.4725	-36.15417
3.473	-35.04639
3.4735	-36.35559
3.474	-17.6239
3.4745	-12.99133
3.475	-3.8269
3.4755	3.02124
3.476	12.68921
3.4765	22.86072
3.477	28.80249
3.4775	28.39966
3.478	30.2124
3.4785	23.66638
3.479	24.16992
3.4795	21.45081
3.48	16.71753
3.4805	15.00549
3.481	16.11328
3.4815	17.12036
3.482	14.60266
3.4825	12.18567
3.483	12.89062
3.4835	8.7616
3.484	11.78284
3.4845	11.2793
3.485	13.69629
3.4855	18.02673
3.486	17.82532
3.4865	12.89062
3.487	14.09912
3.4875	6.04248
3.488	3.92761
3.4885	-0.80566
3.489	-7.65381
3.4895	-7.45239
3.49	-0.50354
3.4905	9.06372
3.491	16.21399
3.4915	6.44531
3.492	7.75452
3.4925	11.17859
3.493	14.19983
3.4935	8.45947
3.494	10.17151
3.4945	11.98425
3.495	7.75452
3.4955	9.56726
3.496	13.89771
3.4965	15.91187
3.497	18.32886
3.4975	25.47913
3.498	23.56567
3.4985	15.30762
3.499	13.19275
3.4995	17.01965
3.5	16.11328
3.5005	18.73169
3.501	15.81116
3.5015	19.63806
3.502	17.6239
3.5025	11.07788
3.503	9.36584
3.5035	-2.61841
3.504	-4.22974
3.5045	-7.15027
3.505	-6.2439
3.5055	-8.35876
3.506	-6.84814
3.5065	-1.00708
3.507	1.81274
3.5075	6.2439
3.508	6.54602
3.5085	12.18567
3.509	13.89771
3.5095	14.90479
3.51	7.95593
3.5105	8.35876
3.511	4.02832
3.5115	12.78992
3.512	13.49487
3.5125	15.81116
3.513	16.21399
3.5135	15.71045
3.514	10.37292
3.5145	14.40125
3.515	8.56018
3.5155	11.58142
3.516	5.63965
3.5165	-5.43823
3.517	-8.56018
3.5175	-11.17859
3.518	-4.63257
3.5185	-9.76868
3.519	-8.7616
3.5195	-7.04956
3.52	-3.12195
3.5205	0.60425
3.521	-1.10779
3.5215	-6.84814
3.522	-11.2793
3.5225	-14.60266
3.523	-8.45947
3.5235	-8.05664
3.524	-2.21558
3.5245	-2.31628
3.525	9.56726
3.5255	16.61682
3.526	13.89771
3.5265	4.43115
3.527	1.40991
3.5275	2.71912
3.528	11.17859
3.5285	12.48779
3.529	11.78284
3.5295	5.94177
3.53	1.61133
3.5305	11.07788
3.531	10.67505
3.5315	20.44373
3.532	18.93311
3.5325	24.47205
3.533	33.03223
3.5335	5.94177
3.534	-25.177
3.5345	-44.0094
3.535	-64.45312
3.5355	-69.99207
3.536	-69.89136
3.5365	-64.95667
3.537	-50.75684
3.5375	-29.70886
3.538	-14.90479
3.5385	10.37292
3.539	32.93152
3.5395	44.91577
3.54	52.8717
3.5405	58.10852
3.541	62.43896
3.5415	69.48853
3.542	58.71277
3.5425	49.85046
3.543	47.33276
3.5435	37.66479
3.544	22.55859
3.5445	18.8324
3.545	0.70496
3.5455	-9.06372
3.546	-10.87646
3.5465	-4.73328
3.547	6.3446
3.5475	24.16992
3.548	29.80957
3.5485	33.83789
3.549	43.30444
3.5495	41.18958
3.55	57.10144
3.5505	63.34534
3.551	64.55383
3.5515	50.05188
3.552	40.08179
3.5525	32.32727
3.553	18.22815
3.5535	12.28638
3.554	5.23682
3.5545	10.97717
3.555	15.81116
3.5555	12.48779
3.556	9.36584
3.5565	9.97009
3.557	7.04956
3.5575	11.17859
3.558	4.12903
3.5585	4.83398
3.559	1.81274
3.5595	3.8269
3.56	0.30212
3.5605	1.10779
3.561	11.2793
3.5615	6.54602
3.562	-3.42407
3.5625	3.7262
3.563	9.66797
3.5635	10.87646
3.564	5.63965
3.5645	2.21558
3.565	-1.81274
3.5655	-6.2439
3.566	-34.44214
3.5665	-64.45312
3.567	-69.08569
3.5675	-60.82764
3.568	-46.32568
3.5685	-29.30603
3.569	-22.05505
3.5695	-22.86072
3.57	-25.98267
3.5705	-26.48621
3.571	-21.14868
3.5715	-10.37292
3.572	-8.25806
3.5725	1.3092
3.573	3.32336
3.5735	14.19983
3.574	7.75452
3.5745	12.78992
3.575	14.60266
3.5755	6.94885
3.576	11.98425
3.5765	17.32178
3.577	15.20691
3.5775	17.92603
3.578	10.47363
3.5785	9.46655
3.579	-3.12195
3.5795	-10.17151
3.58	-4.02832
3.5805	-0.50354
3.581	3.32336
3.5815	-5.74036
3.582	-52.36816
3.5825	-86.00464
3.583	-86.8103
3.5835	-65.15808
3.584	-45.11719
3.5845	-19.63806
3.585	-2.5177
3.5855	10.57434
3.586	28.09753
3.5865	45.3186
3.587	41.99524
3.5875	36.75842
3.588	33.23364
3.5885	29.50745
3.589	19.23523
3.5895	20.74585
3.59	15.81116
3.5905	10.47363
3.591	13.69629
3.5915	33.9386
3.592	35.44922
3.5925	44.21082
3.593	45.92285
3.5935	48.74268
3.594	49.14551
3.5945	39.17542
3.595	23.66638
3.5955	19.63806
3.596	16.3147
3.5965	12.99133
3.597	15.81116
3.5975	19.13452
3.598	13.69629
3.5985	29.00391
3.599	38.67188
3.5995	46.02356
3.6	41.29028
3.6005	42.90161
3.601	37.96692
3.6015	38.06763
3.602	37.16125
3.6025	36.75842
3.603	39.77966
3.6035	27.49329
3.604	23.8678
3.6045	22.15576
3.605	21.14868
3.6055	22.6593
3.606	19.33594
3.6065	17.82532
3.607	13.797
3.6075	6.3446
3.608	-2.81982
3.6085	-2.71912
3.609	-4.63257
3.6095	-8.25806
3.61	-9.26514
3.6105	-11.88354
3.611	-7.35168
3.6115	-4.33044
3.612	-4.53186
3.6125	-6.94885
3.613	-0.10071
3.6135	3.92761
3.614	2.71912
3.6145	7.45239
3.615	9.46655
3.6155	12.68921
3.616	17.01965
3.6165	24.67346
3.617	25.98267
3.6175	31.01807
3.618	33.83789
3.6185	30.81665
3.619	24.57275
3.6195	22.96143
3.62	17.52319
3.6205	5.43823
3.621	0.30212
3.6215	-6.64673
3.622	-11.68213
3.6225	-9.46655
3.623	-12.28638
3.6235	-10.67505
3.624	-10.0708
3.6245	-5.23682
3.625	-6.2439
3.6255	-8.25806
3.626	-10.67505
3.6265	-5.84106
3.627	-8.8623
3.6275	-2.11487
3.628	-4.22974
3.6285	-0.80566
3.629	-3.8269
3.6295	-2.11487
3.63	2.01416
3.6305	2.01416
3.631	4.02832
3.6315	2.92053
3.632	1.00708
3.6325	0.30212
3.633	1.71204
3.6335	-3.8269
3.634	-6.84814
3.6345	-13.59558
3.635	-18.8324
3.6355	-29.30603
3.636	-36.35559
3.6365	-38.06763
3.637	-35.44922
3.6375	-30.11169
3.638	-21.85364
3.6385	-20.24231
3.639	-15.91187
3.6395	-8.25806
3.64	-0.70496
3.6405	6.14319
3.641	12.38708
3.6415	15.91187
3.642	1.91345
3.6425	-16.01257
3.643	-17.6239
3.6435	-6.3446
3.644	-6.74744
3.6445	8.25806
3.645	20.34302
3.6455	33.13293
3.646	41.08887
3.6465	46.82922
3.647	50.75684
3.6475	56.79932
3.648	57.50427
3.6485	49.44763
3.649	46.72852
3.6495	37.66479
3.65	25.68054
3.6505	25.37842
3.651	21.95435
3.6515	15.00549
3.652	15.00549
3.6525	17.42249
3.653	15.71045
3.6535	13.59558
3.654	11.07788
3.6545	3.32336
3.655	-0.70496
3.6555	-10.67505
3.656	-12.68921
3.6565	-38.87329
3.657	-94.16199
3.6575	-122.96448
3.658	-156.09741
3.6585	-214.60876
3.659	-234.54895
3.6595	-212.99744
3.66	-163.85193
3.6605	-95.77332
3.661	-41.08887
3.6615	14.60266
3.662	69.08569
3.6625	110.77881
3.663	141.89758
3.6635	153.17688
3.664	149.95422
3.6645	140.8905
3.665	126.9928
3.6655	104.23279
3.666	92.85278
3.6665	74.62463
3.667	57.40356
3.6675	54.88586
3.668	50.85754
3.6685	37.36267
3.669	22.45789
3.6695	13.797
3.67	-0.90637
3.6705	-16.81824
3.671	-35.2478
3.6715	-55.79224
3.672	-72.61047
3.6725	-81.7749
3.673	-88.32092
3.6735	-75.32959
3.674	-56.90002
3.6745	-36.65771
3.675	-1.2085
3.6755	24.67346
3.676	41.18958
3.6765	53.47595
3.677	54.68445
3.6775	62.53967
3.678	71.60339
3.6785	67.17224
3.679	69.58923
3.6795	64.65454
3.68	52.67029
3.6805	48.84338
3.681	35.65063
3.6815	21.04797
3.682	5.23682
3.6825	-7.15027
3.683	-8.56018
3.6835	0.60425
3.684	0.90637
3.6845	8.56018
3.685	25.27771
3.6855	29.50745
3.686	33.83789
3.6865	34.24072
3.687	46.5271
3.6875	43.00232
3.688	44.21082
3.6885	43.20374
3.689	41.99524
3.6895	39.77966
3.69	17.72461
3.6905	0.60425
3.691	-19.43665
3.6915	-30.71594
3.692	-35.65063
3.6925	-30.01099
3.693	-17.32178
3.6935	-8.35876
3.694	6.2439
3.6945	14.70337
3.695	20.84656
3.6955	20.54443
3.696	23.76709
3.6965	25.27771
3.697	16.21399
3.6975	13.29346
3.698	6.74744
3.6985	6.2439
3.699	2.01416
3.6995	4.33044
3.7	0.70496
3.7005	-5.53894
3.701	-5.13611
3.7015	-13.69629
3.702	-15.91187
3.7025	-14.60266
3.703	-13.89771
3.7035	-13.39417
3.704	-13.09204
3.7045	-8.7616
3.705	-7.25098
3.7055	-1.81274
3.706	-0.30212
3.7065	5.13611
3.707	10.17151
3.7075	8.45947
3.708	9.36584
3.7085	5.63965
3.709	4.02832
3.7095	9.36584
3.71	10.67505
3.7105	17.82532
3.711	11.48071
3.7115	10.37292
3.712	9.26514
3.7125	4.33044
3.713	10.47363
3.7135	8.05664
3.714	12.28638
3.7145	11.48071
3.715	6.84814
3.7155	4.63257
3.716	7.65381
3.7165	7.65381
3.717	7.75452
3.7175	2.71912
3.718	-1.3092
3.7185	2.81982
3.719	-4.43115
3.7195	2.11487
3.72	-3.02124
3.7205	-9.36584
3.721	-3.42407
3.7215	-1.91345
3.722	-11.78284
3.7225	-22.76001
3.723	-29.91028
3.7235	-34.24072
3.724	-35.85205
3.7245	-28.60107
3.725	-29.70886
3.7255	-27.99683
3.726	-17.52319
3.7265	-9.56726
3.727	-7.5531
3.7275	-14.60266
3.728	-51.15967
3.7285	-66.56799
3.729	-59.82056
3.7295	-44.81506
3.73	-30.81665
3.7305	-11.2793
3.731	2.5177
3.7315	20.34302
3.732	36.85913
3.7325	41.39099
3.733	51.66321
3.7335	61.12976
3.734	60.52551
3.7345	54.28162
3.735	50.75684
3.7355	46.62781
3.736	42.39807
3.7365	29.80957
3.737	31.92444
3.7375	36.95984
3.738	33.9386
3.7385	30.41382
3.739	30.81665
3.7395	26.18408
3.74	11.78284
3.7405	7.15027
3.741	-0.10071
3.7415	-7.04956
3.742	-20.24231
3.7425	-18.02673
3.743	-11.98425
3.7435	-15.81116
3.744	-11.98425
3.7445	-2.01416
3.745	2.71912
3.7455	5.94177
3.746	9.36584
3.7465	11.2793
3.747	13.59558
3.7475	11.38
3.748	8.7616
3.7485	10.0708
3.749	4.93469
3.7495	11.17859
3.75	7.04956
3.7505	7.75452
3.751	2.01416
3.7515	6.64673
3.752	5.0354
3.7525	7.85522
3.753	6.2439
3.7535	5.94177
3.754	-8.7616
3.7545	-7.85522
3.755	-25.78125
3.7555	-53.77808
3.756	-68.07861
3.7565	-67.17224
3.757	-72.00623
3.7575	-68.48145
3.758	-67.17224
3.7585	-57.10144
3.759	-43.00232
3.7595	-29.50745
3.76	-16.11328
3.7605	-5.33752
3.761	5.84106
3.7615	7.35168
3.762	0.20142
3.7625	-13.99841
3.763	-11.88354
3.7635	-36.75842
3.764	-76.43738
3.7645	-85.5011
3.765	-83.08411
3.7655	-52.16675
3.766	-21.3501
3.7665	3.02124
3.767	27.39258
3.7675	58.20923
3.768	86.60889
3.7685	89.93225
3.769	63.54675
3.7695	34.94568
3.77	24.16992
3.7705	8.56018
3.771	-2.01416
3.7715	-15.20691
3.772	-23.56567
3.7725	-28.80249
3.773	-54.48303
3.7735	-52.46887
3.774	-42.90161
3.7745	-20.64514
3.775	7.75452
3.7755	26.18408
3.776	37.66479
3.7765	54.18091
3.777	70.79773
3.7775	84.19189
3.778	93.96057
3.7785	103.62854
3.779	107.15332
3.7795	101.8158
3.78	103.02429
3.7805	97.78748
3.781	86.30676
3.7815	74.42322
3.782	62.9425
3.7825	57.20215
3.783	54.58374
3.7835	58.81348
3.784	53.67737
3.7845	53.07312
3.785	46.02356
3.7855	39.07471
3.786	28.70178
3.7865	24.97559
3.787	24.27063
3.7875	8.7616
3.788	5.84106
3.7885	-2.92053
3.789	-4.02832
3.7895	-4.33044
3.79	-0.80566
3.7905	0.90637
3.791	-4.53186
3.7915	-3.52478
3.792	-0.20142
3.7925	-4.43115
3.793	-2.01416
3.7935	5.63965
3.794	5.0354
3.7945	11.38
3.795	10.77576
3.7955	10.67505
3.796	13.09204
3.7965	6.64673
3.797	-1.2085
3.7975	-59.21631
3.798	-111.8866
3.7985	-119.94324
3.799	-111.68518
3.7995	-93.25562
3.8	-61.43188
3.8005	-31.82373
3.801	-10.27222
3.8015	8.66089
3.802	31.21948
3.8025	38.36975
3.803	50.15259
3.8035	49.14551
3.804	51.66321
3.8045	48.74268
3.805	42.7002
3.8055	42.8009
3.806	39.17542
3.8065	33.53577
3.807	29.80957
3.8075	27.79541
3.808	25.68054
3.8085	22.05505
3.809	24.97559
3.8095	24.37134
3.81	20.94727
3.8105	17.92603
3.811	21.04797
3.8115	18.73169
3.812	26.48621
3.8125	24.27063
3.813	21.04797
3.8135	23.36426
3.814	26.18408
3.8145	25.57983
3.815	31.72302
3.8155	25.68054
3.816	13.89771
3.8165	-5.23682
3.817	-30.81665
3.8175	-47.03064
3.818	-49.74976
3.8185	-45.2179
3.819	-39.37683
3.8195	-34.24072
3.82	-25.27771
3.8205	-19.23523
3.821	-6.54602
3.8215	3.42407
3.822	6.2439
3.8225	13.09204
3.823	18.53027
3.8235	21.85364
3.824	23.8678
3.8245	22.05505
3.825	18.42957
3.8255	20.24231
3.826	20.74585
3.8265	15.71045
3.827	13.99841
3.8275	3.22266
3.828	-0.90637
3.8285	-8.15735
3.829	-5.23682
3.8295	0.80566
3.83	-1.51062
3.8305	-20.54443
3.831	-55.2887
3.8315	-72.30835
3.832	-79.05579
3.8325	-71.80481
3.833	-59.41772
3.8335	-49.85046
3.834	-33.33435
3.8345	-17.92603
3.835	-1.71204
3.8355	11.88354
3.836	15.20691
3.8365	12.68921
3.837	11.88354
3.8375	18.42957
3.838	18.12744
3.8385	18.8324
3.839	20.94727
3.8395	21.75293
3.84	20.54443
3.8405	22.96143
3.841	31.92444
3.8415	38.26904
3.842	34.24072
3.8425	37.56409
3.843	56.19507
3.8435	58.51135
3.844	57.40356
3.8445	50.2533
3.845	41.29028
3.8455	33.03223
3.846	14.50195
3.8465	7.35168
3.847	4.22974
3.8475	0.70496
3.848	-2.01416
3.8485	-1.2085
3.849	-1.10779
3.8495	-4.33044
3.85	6.64673
3.8505	6.94885
3.851	14.50195
3.8515	11.88354
3.852	13.39417
3.8525	12.38708
3.853	12.18567
3.8535	18.12744
3.854	19.43665
3.8545	18.8324
3.855	20.24231
3.8555	22.76001
3.856	19.23523
3.8565	16.21399
3.857	10.87646
3.8575	11.38
3.858	-5.0354
3.8585	1.61133
3.859	-3.32336
3.8595	-21.75293
3.86	-66.36658
3.8605	-100.6073
3.861	-102.92358
3.8615	-85.29968
3.862	-71.20056
3.8625	-62.8418
3.863	-47.33276
3.8635	-34.03931
3.864	-22.45789
3.8645	-14.09912
3.865	-28.39966
3.8655	-71.60339
3.866	-105.74341
3.8665	-109.3689
3.867	-93.75916
3.8675	-86.8103
3.868	-79.15649
3.8685	-64.25171
3.869	-40.1825
3.8695	-8.96301
3.87	27.29187
3.8705	43.50586
3.871	74.52393
3.8715	103.125
3.872	108.76465
3.8725	61.33118
3.873	18.02673
3.8735	-0.10071
3.874	-9.56726
3.8745	0.40283
3.875	26.3855
3.8755	49.85046
3.876	63.94958
3.8765	78.35083
3.877	95.77332
3.8775	79.96216
3.878	59.92126
3.8785	45.11719
3.879	34.24072
3.8795	26.78833
3.88	12.68921
3.8805	14.50195
3.881	18.22815
3.8815	23.8678
3.882	35.95276
3.8825	53.77808
3.883	65.86304
3.8835	74.92676
3.884	83.88977
3.8845	94.06128
3.885	90.33508
3.8855	76.63879
3.886	65.3595
3.8865	62.23755
3.887	46.92993
3.8875	31.92444
3.888	26.28479
3.8885	27.49329
3.889	31.92444
3.8895	32.52869
3.89	33.73718
3.8905	29.70886
3.891	30.61523
3.8915	32.12585
3.892	34.14001
3.8925	28.39966
3.893	24.87488
3.8935	21.85364
3.894	20.1416
3.8945	19.13452
3.895	17.12036
3.8955	11.2793
3.896	10.0708
3.8965	9.76868
3.897	9.26514
3.8975	12.38708
3.898	7.85522
3.8985	0.50354
3.899	-7.5531
3.8995	-9.86938
3.9	-11.48071
3.9005	-5.13611
3.901	-4.53186
3.9015	-0.20142
3.902	-9.97009
3.9025	-17.01965
3.903	-24.57275
3.9035	-32.42798
3.904	-32.02515
3.9045	-26.3855
3.905	-22.76001
3.9055	-18.53027
3.906	-11.88354
3.9065	-2.71912
3.907	4.73328
3.9075	5.53894
3.908	10.27222
3.9085	2.81982
3.909	3.62549
3.9095	4.43115
3.91	13.59558
3.9105	14.40125
3.911	12.99133
3.9115	1.91345
3.912	-1.00708
3.9125	-8.56018
3.913	-9.66797
3.9135	-20.34302
3.914	-36.85913
3.9145	-43.40515
3.915	-44.11011
3.9155	-39.47754
3.916	-26.3855
3.9165	-12.89062
3.917	-6.04248
3.9175	5.74036
3.918	13.797
3.9185	14.19983
3.919	20.04089
3.9195	19.43665
3.92	19.33594
3.9205	17.72461
3.921	9.06372
3.9215	7.65381
3.922	4.73328
3.9225	-8.15735
3.923	-22.05505
3.9235	-28.9032
3.924	-60.12268
3.9245	-82.68127
3.925	-79.96216
3.9255	-69.08569
3.926	-43.00232
3.9265	-23.96851
3.927	1.2085
3.9275	22.25647
3.928	28.60107
3.9285	47.53418
3.929	53.07312
3.9295	53.77808
3.93	54.18091
3.9305	43.00232
3.931	26.18408
3.9315	-21.24939
3.932	-57.9071
3.9325	-69.08569
3.933	-70.89844
3.9335	-58.30994
3.934	-35.44922
3.9345	-11.68213
3.935	4.83398
3.9355	24.87488
3.936	32.12585
3.9365	40.58533
3.937	43.60657
3.9375	47.13135
3.938	42.09595
3.9385	31.92444
3.939	36.35559
3.9395	41.4917
3.94	39.27612
3.9405	32.12585
3.941	37.06055
3.9415	30.81665
3.942	30.71594
3.9425	21.45081
3.943	21.65222
3.9435	15.50903
3.944	1.3092
3.9445	-7.95593
3.945	-6.2439
3.9455	-10.0708
3.946	-9.97009
3.9465	-24.67346
3.947	-40.68604
3.9475	-35.75134
3.948	-40.38391
3.9485	-41.4917
3.949	-41.4917
3.9495	-45.72144
3.95	-42.90161
3.9505	-47.8363
3.951	-44.91577
3.9515	-38.16833
3.952	-35.75134
3.9525	-28.09753
3.953	-27.29187
3.9535	-27.89612
3.954	-16.61682
3.9545	-12.38708
3.955	2.61841
3.9555	17.52319
3.956	44.11011
3.9565	64.65454
3.957	75.02747
3.9575	81.97632
3.958	85.29968
3.9585	81.37207
3.959	68.58215
3.9595	58.30994
3.96	59.31702
3.9605	43.90869
3.961	40.98816
3.9615	39.57825
3.962	35.04639
3.9625	34.14001
3.963	24.37134
3.9635	16.3147
3.964	10.0708
3.9645	-3.12195
3.965	-10.87646
3.9655	-14.09912
3.966	-20.34302
3.9665	-18.12744
3.967	-9.66797
3.9675	-5.13611
3.968	11.88354
3.9685	12.48779
3.969	18.12744
3.9695	20.24231
3.97	20.44373
3.9705	11.17859
3.971	12.48779
3.9715	7.85522
3.972	13.69629
3.9725	9.56726
3.973	13.49487
3.9735	2.61841
3.974	4.63257
3.9745	-10.17151
3.975	-13.59558
3.9755	-40.1825
3.976	-73.31543
3.9765	-79.66003
3.977	-74.82605
3.9775	-65.15808
3.978	-58.61206
3.9785	-86.91101
3.979	-109.77173
3.9795	-110.17456
3.98	-85.19897
3.9805	-47.43347
3.981	-7.35168
3.9815	21.55151
3.982	43.70728
3.9825	71.50269
3.983	90.23438
3.9835	91.14075
3.984	92.44995
3.9845	91.54358
3.985	92.34924
3.9855	81.7749
3.986	65.56091
3.9865	53.37524
3.987	44.0094
3.9875	35.95276
3.988	35.95276
3.9885	26.3855
3.989	18.32886
3.9895	21.55151
3.99	18.53027
3.9905	22.55859
3.991	11.78284
3.9915	-17.72461
3.992	-63.14392
3.9925	-88.92517
3.993	-91.44287
3.9935	-73.91968
3.994	-45.72144
3.9945	-23.66638
3.995	-4.93469
3.9955	20.54443
3.996	39.07471
3.9965	44.51294
