Gabriele_Carluccio_Right_1.c3d  



Time(s):	A_L_bicipite(μV):
0	5.74036
0.0005	7.5531
0.001	6.14319
0.0015	7.95593
0.002	4.12903
0.0025	2.41699
0.003	1.3092
0.0035	4.02832
0.004	3.92761
0.0045	5.13611
0.005	9.16443
0.0055	14.50195
0.006	14.70337
0.0065	4.12903
0.007	3.92761
0.0075	1.40991
0.008	-0.10071
0.0085	6.64673
0.009	8.96301
0.0095	4.73328
0.01	4.73328
0.0105	6.64673
0.011	6.84814
0.0115	7.5531
0.012	-1.71204
0.0125	-1.51062
0.013	2.5177
0.0135	3.52478
0.014	4.12903
0.0145	8.15735
0.015	1.3092
0.0155	5.63965
0.016	6.3446
0.0165	2.11487
0.017	1.40991
0.0175	5.23682
0.018	1.61133
0.0185	4.43115
0.019	5.43823
0.0195	5.63965
0.02	11.2793
0.0205	3.7262
0.021	-0.90637
0.0215	5.63965
0.022	6.04248
0.0225	2.11487
0.023	5.84106
0.0235	3.52478
0.024	5.84106
0.0245	6.94885
0.025	8.96301
0.0255	6.44531
0.026	6.14319
0.0265	4.22974
0.027	5.33752
0.0275	9.36584
0.028	4.93469
0.0285	10.17151
0.029	6.3446
0.0295	1.3092
0.03	4.53186
0.0305	0
0.031	5.74036
0.0315	4.73328
0.032	10.97717
0.0325	8.45947
0.033	7.75452
0.0335	0.10071
0.034	7.04956
0.0345	2.81982
0.035	8.96301
0.0355	9.16443
0.036	1.61133
0.0365	7.95593
0.037	1.91345
0.0375	5.33752
0.038	5.53894
0.0385	1.2085
0.039	5.0354
0.0395	0.10071
0.04	2.61841
0.0405	-2.71912
0.041	0.10071
0.0415	2.31628
0.042	3.12195
0.0425	-3.52478
0.043	2.92053
0.0435	1.2085
0.044	2.61841
0.0445	11.98425
0.045	12.89062
0.0455	9.56726
0.046	10.37292
0.0465	8.56018
0.047	5.84106
0.0475	6.04248
0.048	5.33752
0.0485	8.7616
0.049	8.45947
0.0495	11.58142
0.05	7.45239
0.0505	8.96301
0.051	7.35168
0.0515	1.91345
0.052	11.17859
0.0525	5.84106
0.053	5.43823
0.0535	7.45239
0.054	11.38
0.0545	11.2793
0.055	1.91345
0.0555	-0.20142
0.056	8.7616
0.0565	4.12903
0.057	10.0708
0.0575	8.25806
0.058	3.42407
0.0585	5.33752
0.059	6.3446
0.0595	3.02124
0.06	0.80566
0.0605	3.12195
0.061	4.22974
0.0615	3.22266
0.062	5.84106
0.0625	3.42407
0.063	5.53894
0.0635	7.45239
0.064	6.04248
0.0645	7.95593
0.065	5.0354
0.0655	10.47363
0.066	10.97717
0.0665	11.17859
0.067	4.83398
0.0675	4.93469
0.068	6.64673
0.0685	7.15027
0.069	6.64673
0.0695	5.13611
0.07	11.38
0.0705	7.25098
0.071	4.53186
0.0715	16.3147
0.072	13.99841
0.0725	7.35168
0.073	4.33044
0.0735	5.0354
0.074	6.2439
0.0745	6.14319
0.075	5.33752
0.0755	1.71204
0.076	10.87646
0.0765	9.06372
0.077	12.18567
0.0775	14.40125
0.078	6.94885
0.0785	11.88354
0.079	11.48071
0.0795	8.7616
0.08	5.53894
0.0805	4.02832
0.081	10.67505
0.0815	11.38
0.082	6.2439
0.0825	5.94177
0.083	8.66089
0.0835	7.15027
0.084	5.23682
0.0845	2.71912
0.085	3.22266
0.0855	-0.40283
0.086	4.02832
0.0865	8.45947
0.087	10.27222
0.0875	13.29346
0.088	8.05664
0.0885	9.26514
0.089	12.78992
0.0895	12.18567
0.09	10.17151
0.0905	7.85522
0.091	15.40833
0.0915	5.33752
0.092	2.11487
0.0925	0.20142
0.093	3.62549
0.0935	0.70496
0.094	-1.51062
0.0945	2.61841
0.095	2.21558
0.0955	5.53894
0.096	7.85522
0.0965	5.33752
0.097	7.75452
0.0975	4.93469
0.098	7.75452
0.0985	8.96301
0.099	7.75452
0.0995	6.44531
0.1	6.94885
0.1005	4.33044
0.101	4.12903
0.1015	8.56018
0.102	12.18567
0.1025	11.17859
0.103	9.16443
0.1035	8.15735
0.104	7.65381
0.1045	4.63257
0.105	5.23682
0.1055	8.45947
0.106	8.45947
0.1065	-1.10779
0.107	4.02832
0.1075	5.23682
0.108	-0.30212
0.1085	5.23682
0.109	0.20142
0.1095	-1.2085
0.11	0.80566
0.1105	8.05664
0.111	7.75452
0.1115	13.69629
0.112	14.50195
0.1125	12.08496
0.113	9.56726
0.1135	7.04956
0.114	6.64673
0.1145	6.14319
0.115	6.2439
0.1155	7.04956
0.116	0.80566
0.1165	-3.02124
0.117	-0.10071
0.1175	8.7616
0.118	5.33752
0.1185	6.94885
0.119	5.33752
0.1195	5.13611
0.12	-0.90637
0.1205	4.12903
0.121	10.0708
0.1215	4.43115
0.122	3.92761
0.1225	5.74036
0.123	3.32336
0.1235	6.3446
0.124	5.13611
0.1245	-0.90637
0.125	2.61841
0.1255	0
0.126	-4.22974
0.1265	-3.12195
0.127	0.70496
0.1275	2.31628
0.128	6.74744
0.1285	2.21558
0.129	9.16443
0.1295	9.76868
0.13	2.92053
0.1305	3.42407
0.131	1.91345
0.1315	7.15027
0.132	4.83398
0.1325	1.81274
0.133	0.80566
0.1335	5.63965
0.134	2.92053
0.1345	-3.32336
0.135	-2.5177
0.1355	0.20142
0.136	8.35876
0.1365	6.04248
0.137	5.84106
0.1375	1.91345
0.138	0.70496
0.1385	1.81274
0.139	4.53186
0.1395	6.14319
0.14	8.15735
0.1405	10.27222
0.141	7.45239
0.1415	7.45239
0.142	6.44531
0.1425	6.64673
0.143	0.90637
0.1435	0.30212
0.144	3.62549
0.1445	2.61841
0.145	0.60425
0.1455	3.62549
0.146	7.5531
0.1465	5.13611
0.147	6.64673
0.1475	8.25806
0.148	5.13611
0.1485	0.70496
0.149	6.54602
0.1495	8.96301
0.15	10.17151
0.1505	6.14319
0.151	2.31628
0.1515	1.3092
0.152	1.10779
0.1525	1.71204
0.153	-1.71204
0.1535	-0.80566
0.154	-1.61133
0.1545	-3.32336
0.155	-1.10779
0.1555	-1.10779
0.156	-0.80566
0.1565	-1.2085
0.157	-3.52478
0.1575	-4.73328
0.158	-1.2085
0.1585	-3.92761
0.159	1.3092
0.1595	3.52478
0.16	14.80408
0.1605	21.95435
0.161	27.99683
0.1615	28.70178
0.162	25.47913
0.1625	20.84656
0.163	18.8324
0.1635	22.15576
0.164	19.73877
0.1645	14.50195
0.165	18.22815
0.1655	13.89771
0.166	13.39417
0.1665	4.63257
0.167	4.22974
0.1675	3.52478
0.168	-2.31628
0.1685	6.2439
0.169	5.94177
0.1695	5.0354
0.17	5.84106
0.1705	-0.70496
0.171	-5.53894
0.1715	-4.73328
0.172	3.12195
0.1725	6.14319
0.173	11.07788
0.1735	8.96301
0.174	9.97009
0.1745	8.35876
0.175	1.40991
0.1755	1.40991
0.176	1.81274
0.1765	2.61841
0.177	8.15735
0.1775	10.77576
0.178	12.28638
0.1785	12.18567
0.179	13.09204
0.1795	8.25806
0.18	6.54602
0.1805	9.76868
0.181	5.0354
0.1815	0.90637
0.182	4.63257
0.1825	9.76868
0.183	5.0354
0.1835	8.25806
0.184	9.16443
0.1845	5.53894
0.185	6.14319
0.1855	1.51062
0.186	0.30212
0.1865	2.01416
0.187	8.15735
0.1875	6.94885
0.188	1.71204
0.1885	-3.7262
0.189	0.40283
0.1895	-3.22266
0.19	1.2085
0.1905	-0.20142
0.191	-1.40991
0.1915	1.10779
0.192	-4.63257
0.1925	-6.2439
0.193	-2.11487
0.1935	-1.10779
0.194	0.40283
0.1945	0.90637
0.195	4.33044
0.1955	1.2085
0.196	-1.00708
0.1965	3.42407
0.197	0.40283
0.1975	-2.41699
0.198	-4.12903
0.1985	0.20142
0.199	-2.81982
0.1995	2.11487
0.2	3.62549
0.2005	1.91345
0.201	2.01416
0.2015	-0.30212
0.202	-2.11487
0.2025	2.71912
0.203	4.73328
0.2035	4.53186
0.204	0.50354
0.2045	0.10071
0.205	-4.12903
0.2055	-2.31628
0.206	-2.01416
0.2065	-3.8269
0.207	0.90637
0.2075	8.56018
0.208	3.42407
0.2085	3.42407
0.209	6.44531
0.2095	9.16443
0.21	3.02124
0.2105	4.93469
0.211	6.44531
0.2115	3.12195
0.212	-1.00708
0.2125	2.31628
0.213	2.01416
0.2135	4.83398
0.214	4.22974
0.2145	3.22266
0.215	2.81982
0.2155	4.43115
0.216	8.66089
0.2165	6.44531
0.217	8.45947
0.2175	-0.20142
0.218	3.62549
0.2185	0.40283
0.219	2.92053
0.2195	2.71912
0.22	5.13611
0.2205	2.92053
0.221	1.00708
0.2215	0.80566
0.222	9.26514
0.2225	7.35168
0.223	6.84814
0.2235	9.16443
0.224	9.86938
0.2245	7.75452
0.225	6.3446
0.2255	5.13611
0.226	3.22266
0.2265	8.35876
0.227	5.53894
0.2275	4.73328
0.228	12.5885
0.2285	7.35168
0.229	0
0.2295	-0.30212
0.23	4.02832
0.2305	8.15735
0.231	7.35168
0.2315	6.64673
0.232	7.35168
0.2325	0.70496
0.233	7.25098
0.2335	10.87646
0.234	10.87646
0.2345	4.63257
0.235	5.13611
0.2355	4.53186
0.236	5.53894
0.2365	10.37292
0.237	3.7262
0.2375	5.63965
0.238	2.92053
0.2385	-0.50354
0.239	0.60425
0.2395	0.90637
0.24	5.53894
0.2405	3.8269
0.241	4.43115
0.2415	0.40283
0.242	-2.5177
0.2425	0
0.243	1.40991
0.2435	6.14319
0.244	6.2439
0.2445	8.66089
0.245	7.65381
0.2455	7.35168
0.246	7.04956
0.2465	2.01416
0.247	-1.3092
0.2475	8.45947
0.248	6.2439
0.2485	8.35876
0.249	7.35168
0.2495	7.35168
0.25	9.46655
0.2505	8.56018
0.251	8.35876
0.2515	11.98425
0.252	6.84814
0.2525	4.73328
0.253	8.15735
0.2535	8.7616
0.254	1.2085
0.2545	6.2439
0.255	6.3446
0.2555	3.02124
0.256	8.96301
0.2565	12.18567
0.257	12.28638
0.2575	2.61841
0.258	9.66797
0.2585	6.04248
0.259	11.07788
0.2595	10.37292
0.26	3.92761
0.2605	5.13611
0.261	5.13611
0.2615	6.2439
0.262	7.65381
0.2625	5.94177
0.263	4.83398
0.2635	7.04956
0.264	8.56018
0.2645	8.15735
0.265	5.23682
0.2655	5.94177
0.266	7.75452
0.2665	5.63965
0.267	8.7616
0.2675	11.78284
0.268	2.41699
0.2685	5.84106
0.269	0.30212
0.2695	13.49487
0.27	7.25098
0.2705	10.17151
0.271	8.15735
0.2715	8.96301
0.272	7.95593
0.2725	2.11487
0.273	5.13611
0.2735	10.27222
0.274	10.0708
0.2745	8.25806
0.275	12.48779
0.2755	9.97009
0.276	11.98425
0.2765	11.17859
0.277	7.45239
0.2775	2.21558
0.278	5.63965
0.2785	8.05664
0.279	3.12195
0.2795	1.10779
0.28	0.70496
0.2805	-3.62549
0.281	0.10071
0.2815	7.75452
0.282	6.94885
0.2825	6.64673
0.283	8.45947
0.2835	5.13611
0.284	1.40991
0.2845	6.14319
0.285	4.53186
0.2855	3.52478
0.286	5.53894
0.2865	2.41699
0.287	7.85522
0.2875	7.75452
0.288	6.3446
0.2885	6.54602
0.289	0.20142
0.2895	6.14319
0.29	6.74744
0.2905	10.0708
0.291	7.15027
0.2915	7.04956
0.292	3.42407
0.2925	4.12903
0.293	6.3446
0.2935	1.00708
0.294	5.13611
0.2945	5.84106
0.295	8.56018
0.2955	4.53186
0.296	1.51062
0.2965	4.22974
0.297	5.33752
0.2975	10.87646
0.298	4.63257
0.2985	4.43115
0.299	1.81274
0.2995	0.30212
0.3	2.41699
0.3005	1.51062
0.301	3.12195
0.3015	2.92053
0.302	8.05664
0.3025	7.95593
0.303	8.45947
0.3035	4.12903
0.304	7.25098
0.3045	7.04956
0.305	9.76868
0.3055	4.93469
0.306	4.93469
0.3065	11.68213
0.307	14.19983
0.3075	4.53186
0.308	4.33044
0.3085	8.25806
0.309	3.12195
0.3095	3.12195
0.31	7.95593
0.3105	5.84106
0.311	7.95593
0.3115	7.35168
0.312	6.3446
0.3125	10.77576
0.313	14.40125
0.3135	4.83398
0.314	9.06372
0.3145	7.65381
0.315	12.48779
0.3155	12.28638
0.316	8.05664
0.3165	9.26514
0.317	10.47363
0.3175	11.38
0.318	11.17859
0.3185	7.95593
0.319	5.74036
0.3195	-0.60425
0.32	2.01416
0.3205	3.52478
0.321	6.74744
0.3215	5.94177
0.322	4.12903
0.3225	7.25098
0.323	6.14319
0.3235	3.02124
0.324	7.04956
0.3245	11.48071
0.325	8.66089
0.3255	10.0708
0.326	7.45239
0.3265	10.67505
0.327	6.2439
0.3275	6.04248
0.328	6.04248
0.3285	11.38
0.329	6.54602
0.3295	0.40283
0.33	-0.90637
0.3305	1.2085
0.331	4.73328
0.3315	1.91345
0.332	3.12195
0.3325	6.94885
0.333	2.11487
0.3335	1.71204
0.334	4.53186
0.3345	6.64673
0.335	2.41699
0.3355	6.94885
0.336	6.3446
0.3365	4.63257
0.337	5.33752
0.3375	6.14319
0.338	7.65381
0.3385	7.5531
0.339	6.04248
0.3395	7.85522
0.34	5.0354
0.3405	7.85522
0.341	7.75452
0.3415	7.15027
0.342	3.8269
0.3425	9.36584
0.343	5.33752
0.3435	3.8269
0.344	3.52478
0.3445	2.31628
0.345	5.74036
0.3455	8.45947
0.346	6.14319
0.3465	3.92761
0.347	0.30212
0.3475	4.63257
0.348	-0.70496
0.3485	7.15027
0.349	2.01416
0.3495	5.13611
0.35	4.22974
0.3505	0.40283
0.351	4.22974
0.3515	-1.91345
0.352	3.52478
0.3525	7.85522
0.353	5.53894
0.3535	0
0.354	2.71912
0.3545	7.45239
0.355	10.0708
0.3555	8.7616
0.356	7.65381
0.3565	4.33044
0.357	1.71204
0.3575	7.45239
0.358	8.45947
0.3585	7.04956
0.359	10.97717
0.3595	5.43823
0.36	5.74036
0.3605	3.42407
0.361	1.91345
0.3615	6.3446
0.362	5.33752
0.3625	4.83398
0.363	2.21558
0.3635	4.83398
0.364	0.10071
0.3645	2.31628
0.365	2.92053
0.3655	5.43823
0.366	4.33044
0.3665	8.56018
0.367	5.84106
0.3675	2.81982
0.368	6.54602
0.3685	6.04248
0.369	6.54602
0.3695	1.3092
0.37	8.56018
0.3705	9.06372
0.371	4.53186
0.3715	6.04248
0.372	8.7616
0.3725	5.84106
0.373	3.62549
0.3735	6.04248
0.374	9.76868
0.3745	5.13611
0.375	3.7262
0.3755	2.92053
0.376	5.33752
0.3765	7.15027
0.377	1.00708
0.3775	-2.21558
0.378	1.00708
0.3785	5.74036
0.379	-0.60425
0.3795	5.0354
0.38	7.5531
0.3805	6.74744
0.381	8.25806
0.3815	8.25806
0.382	7.5531
0.3825	6.84814
0.383	1.91345
0.3835	3.7262
0.384	2.71912
0.3845	4.53186
0.385	5.33752
0.3855	2.5177
0.386	0.30212
0.3865	-1.3092
0.387	4.33044
0.3875	-1.61133
0.388	3.8269
0.3885	10.0708
0.389	10.57434
0.3895	6.94885
0.39	9.16443
0.3905	3.8269
0.391	9.06372
0.3915	4.02832
0.392	6.04248
0.3925	8.05664
0.393	2.41699
0.3935	8.45947
0.394	8.05664
0.3945	7.5531
0.395	5.0354
0.3955	11.68213
0.396	4.02832
0.3965	2.41699
0.397	6.44531
0.3975	5.84106
0.398	1.00708
0.3985	2.61841
0.399	4.12903
0.3995	7.75452
0.4	14.09912
0.4005	4.63257
0.401	3.7262
0.4015	6.3446
0.402	6.54602
0.4025	7.75452
0.403	3.12195
0.4035	7.15027
0.404	1.00708
0.4045	8.15735
0.405	5.0354
0.4055	9.06372
0.406	8.7616
0.4065	11.2793
0.407	6.74744
0.4075	7.45239
0.408	3.22266
0.4085	8.15735
0.409	7.04956
0.4095	8.8623
0.41	4.12903
0.4105	3.62549
0.411	9.56726
0.4115	8.25806
0.412	5.0354
0.4125	3.12195
0.413	6.04248
0.4135	0.60425
0.414	-3.42407
0.4145	-0.80566
0.415	4.22974
0.4155	4.22974
0.416	8.35876
0.4165	8.66089
0.417	4.43115
0.4175	8.35876
0.418	11.68213
0.4185	5.84106
0.419	7.5531
0.4195	12.18567
0.42	9.06372
0.4205	10.87646
0.421	6.14319
0.4215	-0.50354
0.422	-5.84106
0.4225	-1.91345
0.423	0
0.4235	0.20142
0.424	-0.20142
0.4245	2.41699
0.425	-0.40283
0.4255	-4.22974
0.426	7.95593
0.4265	8.7616
0.427	0.70496
0.4275	1.40991
0.428	-1.00708
0.4285	-1.2085
0.429	2.31628
0.4295	3.02124
0.43	3.02124
0.4305	3.92761
0.431	5.74036
0.4315	6.2439
0.432	4.43115
0.4325	7.85522
0.433	3.02124
0.4335	0
0.434	5.33752
0.4345	6.54602
0.435	3.52478
0.4355	10.47363
0.436	5.33752
0.4365	2.81982
0.437	8.56018
0.4375	-0.20142
0.438	2.11487
0.4385	-0.20142
0.439	2.5177
0.4395	8.05664
0.44	4.53186
0.4405	6.14319
0.441	6.54602
0.4415	4.53186
0.442	2.11487
0.4425	2.01416
0.443	8.45947
0.4435	-1.51062
0.444	0.30212
0.4445	-1.40991
0.445	-0.50354
0.4455	-0.40283
0.446	5.84106
0.4465	7.5531
0.447	0.40283
0.4475	-0.10071
0.448	-0.10071
0.4485	-2.5177
0.449	3.62549
0.4495	3.7262
0.45	1.2085
0.4505	-2.92053
0.451	2.41699
0.4515	-0.20142
0.452	4.93469
0.4525	6.14319
0.453	5.43823
0.4535	4.73328
0.454	1.3092
0.4545	4.73328
0.455	3.22266
0.4555	3.8269
0.456	2.21558
0.4565	-0.50354
0.457	-2.21558
0.4575	-6.54602
0.458	2.01416
0.4585	1.81274
0.459	2.01416
0.4595	6.04248
0.46	8.15735
0.4605	11.88354
0.461	4.73328
0.4615	2.5177
0.462	5.63965
0.4625	11.78284
0.463	17.42249
0.4635	9.46655
0.464	6.74744
0.4645	7.45239
0.465	5.63965
0.4655	2.71912
0.466	1.40991
0.4665	0.40283
0.467	1.51062
0.4675	0.80566
0.468	5.13611
0.4685	5.84106
0.469	6.74744
0.4695	6.3446
0.47	4.63257
0.4705	9.56726
0.471	8.8623
0.4715	2.92053
0.472	3.12195
0.4725	12.08496
0.473	8.15735
0.4735	-1.2085
0.474	5.43823
0.4745	4.43115
0.475	4.53186
0.4755	2.81982
0.476	6.74744
0.4765	4.93469
0.477	3.92761
0.4775	5.43823
0.478	5.63965
0.4785	3.22266
0.479	6.84814
0.4795	4.12903
0.48	9.16443
0.4805	9.76868
0.481	6.44531
0.4815	8.66089
0.482	11.17859
0.4825	8.45947
0.483	11.07788
0.4835	13.09204
0.484	10.37292
0.4845	5.94177
0.485	6.44531
0.4855	7.85522
0.486	8.45947
0.4865	7.75452
0.487	8.25806
0.4875	10.27222
0.488	4.22974
0.4885	4.12903
0.489	5.43823
0.4895	7.45239
0.49	2.5177
0.4905	6.3446
0.491	5.0354
0.4915	2.31628
0.492	10.87646
0.4925	11.98425
0.493	6.44531
0.4935	2.21558
0.494	10.0708
0.4945	8.7616
0.495	7.75452
0.4955	3.8269
0.496	7.75452
0.4965	14.70337
0.497	10.47363
0.4975	8.56018
0.498	8.35876
0.4985	6.54602
0.499	8.7616
0.4995	4.53186
0.5	2.01416
0.5005	9.46655
0.501	6.3446
0.5015	2.21558
0.502	0.40283
0.5025	1.00708
0.503	2.92053
0.5035	3.92761
0.504	1.3092
0.5045	1.71204
0.505	2.11487
0.5055	3.62549
0.506	4.02832
0.5065	8.35876
0.507	1.2085
0.5075	3.52478
0.508	8.45947
0.5085	3.42407
0.509	-2.61841
0.5095	2.92053
0.51	0.40283
0.5105	2.81982
0.511	3.92761
0.5115	7.35168
0.512	8.96301
0.5125	6.84814
0.513	9.76868
0.5135	8.56018
0.514	9.66797
0.5145	14.09912
0.515	10.47363
0.5155	7.65381
0.516	12.28638
0.5165	11.17859
0.517	9.16443
0.5175	12.78992
0.518	12.99133
0.5185	7.15027
0.519	14.40125
0.5195	8.7616
0.52	12.89062
0.5205	8.35876
0.521	6.3446
0.5215	5.63965
0.522	4.43115
0.5225	10.67505
0.523	9.66797
0.5235	9.26514
0.524	14.90479
0.5245	13.19275
0.525	9.06372
0.5255	2.5177
0.526	6.2439
0.5265	9.76868
0.527	4.33044
0.5275	9.56726
0.528	5.94177
0.5285	6.64673
0.529	8.35876
0.5295	6.14319
0.53	8.45947
0.5305	8.96301
0.531	4.12903
0.5315	7.35168
0.532	4.12903
0.5325	5.63965
0.533	4.33044
0.5335	7.45239
0.534	10.57434
0.5345	6.94885
0.535	1.61133
0.5355	-0.10071
0.536	1.61133
0.5365	4.33044
0.537	0.90637
0.5375	-0.50354
0.538	6.74744
0.5385	12.08496
0.539	10.27222
0.5395	5.33752
0.54	1.00708
0.5405	7.25098
0.541	8.05664
0.5415	4.12903
0.542	6.84814
0.5425	8.25806
0.543	12.18567
0.5435	7.75452
0.544	12.68921
0.5445	7.95593
0.545	8.15735
0.5455	8.35876
0.546	10.0708
0.5465	7.04956
0.547	9.56726
0.5475	6.14319
0.548	7.95593
0.5485	5.23682
0.549	10.67505
0.5495	9.26514
0.55	7.75452
0.5505	5.94177
0.551	8.8623
0.5515	7.35168
0.552	6.54602
0.5525	8.56018
0.553	6.44531
0.5535	7.35168
0.554	5.33752
0.5545	1.51062
0.555	5.13611
0.5555	7.75452
0.556	8.15735
0.5565	2.92053
0.557	11.48071
0.5575	4.53186
0.558	10.17151
0.5585	5.84106
0.559	7.5531
0.5595	8.25806
0.56	16.3147
0.5605	3.52478
0.561	0.60425
0.5615	5.94177
0.562	3.7262
0.5625	11.2793
0.563	2.5177
0.5635	5.33752
0.564	3.92761
0.5645	7.45239
0.565	8.15735
0.5655	6.14319
0.566	9.26514
0.5665	7.75452
0.567	2.71912
0.5675	2.01416
0.568	2.41699
0.5685	9.36584
0.569	11.98425
0.5695	6.64673
0.57	3.52478
0.5705	8.05664
0.571	6.64673
0.5715	11.78284
0.572	10.17151
0.5725	6.3446
0.573	10.47363
0.5735	5.84106
0.574	6.2439
0.5745	6.64673
0.575	3.42407
0.5755	5.84106
0.576	7.85522
0.5765	8.66089
0.577	5.23682
0.5775	5.33752
0.578	3.32336
0.5785	7.5531
0.579	10.17151
0.5795	12.78992
0.58	7.35168
0.5805	3.52478
0.581	6.2439
0.5815	8.15735
0.582	8.7616
0.5825	9.76868
0.583	3.8269
0.5835	1.51062
0.584	3.52478
0.5845	8.7616
0.585	8.96301
0.5855	15.20691
0.586	12.18567
0.5865	9.66797
0.587	9.36584
0.5875	3.32336
0.588	2.92053
0.5885	4.02832
0.589	7.35168
0.5895	3.62549
0.59	6.64673
0.5905	7.95593
0.591	12.78992
0.5915	9.66797
0.592	8.8623
0.5925	10.57434
0.593	3.42407
0.5935	5.13611
0.594	12.99133
0.5945	5.94177
0.595	10.27222
0.5955	3.92761
0.596	2.11487
0.5965	5.84106
0.597	-2.61841
0.5975	4.33044
0.598	5.74036
0.5985	11.68213
0.599	3.8269
0.5995	2.41699
0.6	4.12903
0.6005	6.74744
0.601	7.75452
0.6015	9.66797
0.602	9.86938
0.6025	10.27222
0.603	3.22266
0.6035	8.05664
0.604	8.05664
0.6045	8.35876
0.605	11.2793
0.6055	4.93469
0.606	6.14319
0.6065	4.33044
0.607	7.5531
0.6075	5.94177
0.608	6.3446
0.6085	-0.50354
0.609	0.60425
0.6095	4.43115
0.61	5.43823
0.6105	-2.11487
0.611	-0.70496
0.6115	7.75452
0.612	1.3092
0.6125	3.02124
0.613	3.32336
0.6135	4.43115
0.614	6.14319
0.6145	3.92761
0.615	4.12903
0.6155	5.0354
0.616	7.5531
0.6165	9.86938
0.617	4.73328
0.6175	4.73328
0.618	5.63965
0.6185	3.92761
0.619	5.13611
0.6195	-1.51062
0.62	5.23682
0.6205	3.92761
0.621	11.98425
0.6215	8.05664
0.622	9.56726
0.6225	5.33752
0.623	-2.41699
0.6235	6.04248
0.624	3.7262
0.6245	5.63965
0.625	5.13611
0.6255	5.33752
0.626	5.84106
0.6265	6.2439
0.627	6.44531
0.6275	2.81982
0.628	4.12903
0.6285	4.53186
0.629	-0.50354
0.6295	5.84106
0.63	13.39417
0.6305	15.81116
0.631	17.72461
0.6315	13.59558
0.632	10.37292
0.6325	10.47363
0.633	17.6239
0.6335	10.0708
0.634	3.7262
0.6345	2.21558
0.635	1.91345
0.6355	-2.71912
0.636	-0.70496
0.6365	-5.13611
0.637	-4.02832
0.6375	-4.33044
0.638	-5.43823
0.6385	0.20142
0.639	-0.80566
0.6395	-2.11487
0.64	3.52478
0.6405	-2.5177
0.641	1.40991
0.6415	5.0354
0.642	2.31628
0.6425	-1.00708
0.643	2.71912
0.6435	4.43115
0.644	3.32336
0.6445	6.3446
0.645	12.28638
0.6455	5.63965
0.646	10.0708
0.6465	8.15735
0.647	4.02832
0.6475	4.43115
0.648	4.02832
0.6485	2.61841
0.649	7.45239
0.6495	9.16443
0.65	8.35876
0.6505	6.3446
0.651	5.63965
0.6515	1.00708
0.652	2.41699
0.6525	3.7262
0.653	4.63257
0.6535	10.0708
0.654	9.46655
0.6545	8.45947
0.655	4.73328
0.6555	5.63965
0.656	10.77576
0.6565	5.23682
0.657	6.54602
0.6575	7.45239
0.658	3.22266
0.6585	5.13611
0.659	2.31628
0.6595	0.20142
0.66	0.90637
0.6605	2.31628
0.661	13.69629
0.6615	9.86938
0.662	10.57434
0.6625	12.48779
0.663	6.84814
0.6635	4.73328
0.664	-1.91345
0.6645	-5.13611
0.665	3.7262
0.6655	1.3092
0.666	3.02124
0.6665	7.15027
0.667	6.44531
0.6675	2.01416
0.668	8.45947
0.6685	1.40991
0.669	0.70496
0.6695	-1.61133
0.67	2.01416
0.6705	2.21558
0.671	1.40991
0.6715	6.74744
0.672	8.66089
0.6725	4.63257
0.673	4.43115
0.6735	-0.60425
0.674	4.63257
0.6745	4.53186
0.675	7.5531
0.6755	12.38708
0.676	17.6239
0.6765	27.89612
0.677	33.83789
0.6775	33.23364
0.678	30.61523
0.6785	18.8324
0.679	19.63806
0.6795	10.27222
0.68	12.68921
0.6805	9.86938
0.681	2.81982
0.6815	-4.02832
0.682	-4.33044
0.6825	-9.76868
0.683	-10.0708
0.6835	-15.60974
0.684	-18.63098
0.6845	-18.63098
0.685	-11.17859
0.6855	-16.3147
0.686	-12.18567
0.6865	-13.29346
0.687	-13.49487
0.6875	-14.60266
0.688	-3.22266
0.6885	0.10071
0.689	7.45239
0.6895	21.85364
0.69	35.2478
0.6905	45.2179
0.691	42.09595
0.6915	41.08887
0.692	39.37683
0.6925	38.16833
0.693	25.177
0.6935	19.83948
0.694	18.63098
0.6945	20.04089
0.695	6.3446
0.6955	-5.84106
0.696	-19.13452
0.6965	-17.92603
0.697	-21.55151
0.6975	-22.45789
0.698	-22.55859
0.6985	-23.16284
0.699	-19.94019
0.6995	-12.18567
0.7	-7.15027
0.7005	13.69629
0.701	35.95276
0.7015	44.51294
0.702	45.52002
0.7025	55.18799
0.703	79.05579
0.7035	102.72217
0.704	105.84412
0.7045	88.62305
0.705	63.54675
0.7055	48.13843
0.706	36.55701
0.7065	32.93152
0.707	16.01257
0.7075	4.73328
0.708	-15.81116
0.7085	-36.75842
0.709	-54.98657
0.7095	-61.53259
0.71	-75.22888
0.7105	-81.97632
0.711	-77.14233
0.7115	-81.37207
0.712	-78.65295
0.7125	-72.61047
0.713	-63.94958
0.7135	-46.32568
0.714	-41.69312
0.7145	-40.2832
0.715	-33.83789
0.7155	-18.02673
0.716	-12.08496
0.7165	-3.8269
0.717	2.41699
0.7175	5.74036
0.718	11.78284
0.7185	6.94885
0.719	10.77576
0.7195	13.29346
0.72	6.84814
0.7205	12.18567
0.721	6.84814
0.7215	10.77576
0.722	13.39417
0.7225	11.17859
0.723	2.71912
0.7235	7.45239
0.724	5.13611
0.7245	20.04089
0.725	29.30603
0.7255	39.27612
0.726	46.12427
0.7265	55.59082
0.727	64.75525
0.7275	81.17065
0.728	77.948
0.7285	73.01331
0.729	58.00781
0.7295	48.94409
0.73	28.39966
0.7305	17.82532
0.731	9.66797
0.7315	-4.93469
0.732	-18.12744
0.7325	-26.78833
0.733	-33.43506
0.7335	-38.67188
0.734	-41.29028
0.7345	-33.73718
0.735	-31.01807
0.7355	-31.62231
0.736	-29.30603
0.7365	-27.79541
0.737	-24.06921
0.7375	-27.29187
0.738	-27.6947
0.7385	-23.06213
0.739	5.13611
0.7395	24.27063
0.74	34.64355
0.7405	42.19666
0.741	43.20374
0.7415	35.34851
0.742	24.77417
0.7425	13.49487
0.743	11.58142
0.7435	4.93469
0.744	-4.93469
0.7445	-11.68213
0.745	-10.37292
0.7455	-11.98425
0.746	-8.66089
0.7465	-4.33044
0.747	2.92053
0.7475	4.93469
0.748	15.40833
0.7485	18.32886
0.749	22.86072
0.7495	24.77417
0.75	22.55859
0.7505	14.50195
0.751	10.37292
0.7515	7.04956
0.752	8.7616
0.7525	16.3147
0.753	16.91895
0.7535	21.85364
0.754	19.53735
0.7545	22.25647
0.755	18.12744
0.7555	21.55151
0.756	21.95435
0.7565	16.51611
0.757	18.63098
0.7575	17.32178
0.758	9.46655
0.7585	6.94885
0.759	2.61841
0.7595	-2.31628
0.76	-5.33752
0.7605	-14.40125
0.761	-17.6239
0.7615	-16.41541
0.762	-8.45947
0.7625	-6.2439
0.763	-5.94177
0.7635	-5.33752
0.764	-3.52478
0.7645	-3.12195
0.765	28.60107
0.7655	56.29578
0.766	70.19348
0.7665	74.12109
0.767	73.71826
0.7675	59.21631
0.768	42.39807
0.7685	34.64355
0.769	15.40833
0.7695	-2.21558
0.77	-15.40833
0.7705	-24.77417
0.771	-29.80957
0.7715	-40.98816
0.772	-41.79382
0.7725	-39.88037
0.773	-41.08887
0.7735	-36.65771
0.774	-28.39966
0.7745	-22.96143
0.775	-17.42249
0.7755	-0.60425
0.776	15.1062
0.7765	20.94727
0.777	25.07629
0.7775	31.11877
0.778	55.89294
0.7785	79.45862
0.779	91.04004
0.7795	89.83154
0.78	88.82446
0.7805	72.20764
0.781	52.26746
0.7815	46.12427
0.782	39.88037
0.7825	19.03381
0.783	-0.40283
0.7835	-17.01965
0.784	-38.16833
0.7845	-50.75684
0.785	-20.84656
0.7855	26.78833
0.786	44.21082
0.7865	47.13135
0.787	38.67188
0.7875	25.07629
0.788	0.60425
0.7885	-18.32886
0.789	-26.08337
0.7895	-45.2179
0.79	-56.39648
0.7905	-70.29419
0.791	-77.74658
0.7915	-86.10535
0.792	-85.29968
0.7925	-79.86145
0.793	-70.49561
0.7935	-52.67029
0.794	-38.87329
0.7945	-17.01965
0.795	24.47205
0.7955	68.28003
0.796	87.91809
0.7965	91.745
0.797	83.38623
0.7975	68.38074
0.798	50.65613
0.7985	30.91736
0.799	20.24231
0.7995	5.0354
0.8	-15.60974
0.8005	-24.37134
0.801	-29.50745
0.8015	-31.92444
0.802	-31.92444
0.8025	-24.47205
0.803	6.84814
0.8035	27.39258
0.804	44.51294
0.8045	56.29578
0.805	63.84888
0.8055	63.24463
0.806	53.87878
0.8065	37.46338
0.807	12.78992
0.8075	0.60425
0.808	-10.77576
0.8085	-19.53735
0.809	-26.3855
0.8095	-32.02515
0.81	-45.01648
0.8105	-46.82922
0.811	-50.45471
0.8115	-47.53418
0.812	-53.27454
0.8125	-47.93701
0.813	-45.41931
0.8135	-39.17542
0.814	-30.11169
0.8145	-23.56567
0.815	-5.63965
0.8155	1.3092
0.816	19.23523
0.8165	38.87329
0.817	48.44055
0.8175	45.62073
0.818	41.59241
0.8185	32.22656
0.819	26.88904
0.8195	26.68762
0.82	26.3855
0.8205	25.07629
0.821	16.21399
0.8215	13.49487
0.822	28.70178
0.8225	49.54834
0.823	77.14233
0.8235	87.61597
0.824	84.89685
0.8245	81.7749
0.825	63.34534
0.8255	45.72144
0.826	24.67346
0.8265	13.69629
0.827	6.2439
0.8275	-4.93469
0.828	-12.99133
0.8285	-19.13452
0.829	-27.39258
0.8295	-35.14709
0.83	-43.40515
0.8305	-38.57117
0.831	-28.09753
0.8315	-20.44373
0.832	-6.14319
0.8325	27.29187
0.833	46.42639
0.8335	50.05188
0.834	45.82214
0.8345	35.54993
0.835	18.32886
0.8355	13.89771
0.836	10.97717
0.8365	14.70337
0.837	5.84106
0.8375	-0.90637
0.838	-5.84106
0.8385	-9.56726
0.839	-11.78284
0.8395	-5.94177
0.84	-2.81982
0.8405	9.76868
0.841	10.37292
0.8415	11.78284
0.842	17.32178
0.8425	12.28638
0.843	11.17859
0.8435	15.20691
0.844	19.13452
0.8445	22.6593
0.845	17.12036
0.8455	13.59558
0.846	17.72461
0.8465	13.09204
0.847	16.51611
0.8475	10.57434
0.848	2.5177
0.8485	1.00708
0.849	7.5531
0.8495	9.36584
0.85	15.60974
0.8505	22.55859
0.851	23.56567
0.8515	29.40674
0.852	22.45789
0.8525	20.64514
0.853	15.81116
0.8535	11.98425
0.854	7.25098
0.8545	6.84814
0.855	8.15735
0.8555	8.05664
0.856	8.56018
0.8565	10.17151
0.857	9.36584
0.8575	12.08496
0.858	18.53027
0.8585	22.45789
0.859	27.79541
0.8595	25.98267
0.86	22.35718
0.8605	23.06213
0.861	21.75293
0.8615	23.46497
0.862	19.73877
0.8625	21.04797
0.863	27.19116
0.8635	28.60107
0.864	26.28479
0.8645	31.62231
0.865	28.9032
0.8655	30.01099
0.866	27.49329
0.8665	20.34302
0.867	15.71045
0.8675	13.09204
0.868	10.37292
0.8685	0.50354
0.869	0.10071
0.8695	-2.21558
0.87	1.71204
0.8705	24.16992
0.871	45.72144
0.8715	51.76392
0.872	46.5271
0.8725	54.58374
0.873	65.15808
0.8735	65.56091
0.874	60.4248
0.8745	54.58374
0.875	30.11169
0.8755	8.45947
0.876	41.39099
0.8765	92.55066
0.877	105.13916
0.8775	88.42163
0.878	55.08728
0.8785	33.03223
0.879	14.90479
0.8795	-6.14319
0.88	-36.25488
0.8805	-65.66162
0.881	-90.43579
0.8815	-111.28235
0.882	-129.61121
0.8825	-136.25793
0.883	-128.70483
0.8835	-125.28076
0.884	-99.19739
0.8845	-83.99048
0.885	-60.02197
0.8855	-34.34143
0.886	-20.64514
0.8865	-2.92053
0.887	17.92603
0.8875	32.7301
0.888	35.75134
0.8885	36.75842
0.889	36.25488
0.8895	35.75134
0.89	37.56409
0.8905	44.0094
0.891	43.30444
0.8915	33.33435
0.892	28.19824
0.8925	14.90479
0.893	22.86072
0.8935	37.7655
0.894	82.78198
0.8945	112.69226
0.895	123.87085
0.8955	110.6781
0.896	90.83862
0.8965	68.48145
0.897	43.20374
0.8975	13.49487
0.898	-8.7616
0.8985	-24.37134
0.899	-38.87329
0.8995	-41.39099
0.9	-45.52002
0.9005	-48.94409
0.901	-37.66479
0.9015	-28.50037
0.902	-23.06213
0.9025	-10.87646
0.903	-0.70496
0.9035	1.2085
0.904	2.71912
0.9045	3.7262
0.905	0.40283
0.9055	0.50354
0.906	1.71204
0.9065	4.53186
0.907	18.42957
0.9075	22.96143
0.908	23.8678
0.9085	15.81116
0.909	21.3501
0.9095	21.65222
0.91	23.76709
0.9105	23.26355
0.911	19.23523
0.9115	24.77417
0.912	26.18408
0.9125	20.84656
0.913	18.02673
0.9135	19.83948
0.914	17.01965
0.9145	18.02673
0.915	18.02673
0.9155	20.44373
0.916	12.89062
0.9165	22.55859
0.917	18.93311
0.9175	34.24072
0.918	67.8772
0.9185	89.63013
0.919	94.06128
0.9195	90.23438
0.92	69.1864
0.9205	44.81506
0.921	24.87488
0.9215	13.49487
0.922	-7.65381
0.9225	-24.06921
0.923	-44.61365
0.9235	-49.54834
0.924	-46.32568
0.9245	-24.16992
0.925	-13.19275
0.9255	1.3092
0.926	2.41699
0.9265	12.28638
0.927	3.12195
0.9275	5.94177
0.928	7.95593
0.9285	8.05664
0.929	5.33752
0.9295	-1.10779
0.93	-2.21558
0.9305	11.88354
0.931	24.27063
0.9315	27.09045
0.932	21.14868
0.9325	3.02124
0.933	-5.63965
0.9335	-10.67505
0.934	-8.8623
0.9345	-0.60425
0.935	3.22266
0.9355	0.50354
0.936	-7.95593
0.9365	-20.84656
0.937	-29.91028
0.9375	-28.09753
0.938	-26.48621
0.9385	-22.35718
0.939	-21.55151
0.9395	-13.29346
0.94	-4.33044
0.9405	-1.61133
0.941	10.0708
0.9415	16.3147
0.942	31.52161
0.9425	39.17542
0.943	41.08887
0.9435	35.2478
0.944	36.25488
0.9445	31.4209
0.945	32.93152
0.9455	30.11169
0.946	24.27063
0.9465	24.57275
0.947	21.65222
0.9475	24.47205
0.948	16.3147
0.9485	9.56726
0.949	1.3092
0.9495	-3.52478
0.95	-2.92053
0.9505	-4.02832
0.951	0.20142
0.9515	-0.50354
0.952	-2.21558
0.9525	-4.33044
0.953	-4.73328
0.9535	0.40283
0.954	-2.81982
0.9545	-4.53186
0.955	-2.11487
0.9555	1.71204
0.956	6.94885
0.9565	9.46655
0.957	9.46655
0.9575	12.68921
0.958	12.99133
0.9585	17.01965
0.959	21.65222
0.9595	19.83948
0.96	20.94727
0.9605	21.24939
0.961	19.53735
0.9615	23.8678
0.962	23.36426
0.9625	34.84497
0.963	48.84338
0.9635	77.948
0.964	115.41138
0.9645	131.62537
0.965	121.85669
0.9655	98.0896
0.966	69.1864
0.9665	32.32727
0.967	4.33044
0.9675	-22.15576
0.968	-32.83081
0.9685	-44.11011
0.969	-47.43347
0.9695	-41.59241
0.97	-37.16125
0.9705	-20.64514
0.971	11.38
0.9715	22.25647
0.972	23.96851
0.9725	12.08496
0.973	0.60425
0.9735	-4.43115
0.974	-18.02673
0.9745	-13.39417
0.975	14.90479
0.9755	38.06763
0.976	51.46179
0.9765	44.51294
0.977	37.7655
0.9775	39.98108
0.978	24.27063
0.9785	8.15735
0.979	-12.18567
0.9795	-22.15576
0.98	-32.22656
0.9805	-37.16125
0.981	-38.26904
0.9815	-27.79541
0.982	-15.91187
0.9825	-8.7616
0.983	-11.78284
0.9835	-16.71753
0.984	-7.65381
0.9845	-5.53894
0.985	10.87646
0.9855	63.14392
0.986	102.92358
0.9865	115.41138
0.987	101.41296
0.9875	74.72534
0.988	38.36975
0.9885	2.21558
0.989	-28.60107
0.9895	-59.92126
0.99	-67.97791
0.9905	-64.05029
0.991	-64.75525
0.9915	-53.17383
0.992	-43.70728
0.9925	-34.34143
0.993	-25.78125
0.9935	-23.8678
0.994	-18.73169
0.9945	-11.78284
0.995	-15.1062
0.9955	-12.38708
0.996	-5.0354
0.9965	7.85522
0.997	7.65381
0.9975	3.62549
0.998	9.86938
0.9985	22.05505
0.999	17.72461
0.9995	2.01416
1	3.92761
1.0005	6.3446
1.001	13.797
1.0015	21.45081
1.002	17.82532
1.0025	23.66638
1.003	27.09045
1.0035	31.52161
1.004	32.93152
1.0045	16.3147
1.005	5.43823
1.0055	6.94885
1.006	9.16443
1.0065	15.91187
1.007	17.32178
1.0075	22.45789
1.008	34.84497
1.0085	43.50586
1.009	44.51294
1.0095	48.54126
1.01	46.72852
1.0105	40.68604
1.011	44.61365
1.0115	33.43506
1.012	32.22656
1.0125	42.19666
1.013	40.48462
1.0135	40.88745
1.014	42.39807
1.0145	38.67188
1.015	40.58533
1.0155	33.83789
1.016	31.4209
1.0165	44.61365
1.017	58.81348
1.0175	63.84888
1.018	54.78516
1.0185	48.64197
1.019	35.95276
1.0195	31.01807
1.02	18.02673
1.0205	0.30212
1.021	-9.06372
1.0215	-13.99841
1.022	-14.40125
1.0225	-11.17859
1.023	-10.97717
1.0235	-3.92761
1.024	-3.02124
1.0245	1.00708
1.025	-4.22974
1.0255	0.40283
1.026	3.8269
1.0265	5.33752
1.027	1.10779
1.0275	0.50354
1.028	7.45239
1.0285	2.5177
1.029	3.92761
1.0295	0.90637
1.03	3.7262
1.0305	8.8623
1.031	7.15027
1.0315	4.02832
1.032	9.56726
1.0325	16.3147
1.033	17.32178
1.0335	20.34302
1.034	24.67346
1.0345	19.03381
1.035	16.81824
1.0355	12.08496
1.036	8.96301
1.0365	11.07788
1.037	10.37292
1.0375	8.05664
1.038	12.28638
1.0385	15.1062
1.039	20.34302
1.0395	25.27771
1.04	31.72302
1.0405	36.95984
1.041	41.89453
1.0415	41.79382
1.042	41.89453
1.0425	53.17383
1.043	63.44604
1.0435	59.01489
1.044	49.44763
1.0445	40.58533
1.045	26.28479
1.0455	8.8623
1.046	-17.6239
1.0465	-26.08337
1.047	-36.4563
1.0475	-45.11719
1.048	-51.36108
1.0485	-54.88586
1.049	-36.15417
1.0495	-17.01965
1.05	-15.81116
1.0505	-7.75452
1.051	-14.30054
1.0515	-13.89771
1.052	-14.30054
1.0525	-25.177
1.053	-23.66638
1.0535	-18.63098
1.054	-6.84814
1.0545	5.23682
1.055	-2.5177
1.0555	-14.90479
1.056	-9.16443
1.0565	-8.25806
1.057	-6.64673
1.0575	4.53186
1.058	15.60974
1.0585	22.35718
1.059	21.75293
1.0595	21.75293
1.06	23.36426
1.0605	29.60815
1.061	30.71594
1.0615	33.73718
1.062	30.81665
1.0625	27.09045
1.063	13.49487
1.0635	7.35168
1.064	7.35168
1.0645	-1.3092
1.065	3.92761
1.0655	7.04956
1.066	8.05664
1.0665	9.46655
1.067	9.16443
1.0675	17.72461
1.068	17.52319
1.0685	16.11328
1.069	13.49487
1.0695	12.48779
1.07	16.91895
1.0705	20.74585
1.071	17.82532
1.0715	15.20691
1.072	11.48071
1.0725	14.19983
1.073	11.07788
1.0735	14.60266
1.074	19.83948
1.0745	22.45789
1.075	17.32178
1.0755	13.99841
1.076	6.54602
1.0765	11.07788
1.077	14.50195
1.0775	14.90479
1.078	11.88354
1.0785	12.78992
1.079	11.07788
1.0795	17.72461
1.08	17.12036
1.0805	17.82532
1.081	20.54443
1.0815	24.57275
1.082	24.97559
1.0825	31.72302
1.083	38.26904
1.0835	43.00232
1.084	49.44763
1.0845	49.24622
1.085	49.34692
1.0855	42.59949
1.086	23.26355
1.0865	11.17859
1.087	4.53186
1.0875	6.44531
1.088	-1.71204
1.0885	-10.97717
1.089	-17.82532
1.0895	-16.41541
1.09	-10.97717
1.0905	-8.56018
1.091	-8.05664
1.0915	-3.42407
1.092	-11.58142
1.0925	-24.06921
1.093	-26.58691
1.0935	-31.72302
1.094	-31.82373
1.0945	-34.14001
1.095	-37.7655
1.0955	-40.08179
1.096	-37.56409
1.0965	-35.75134
1.097	-27.99683
1.0975	-15.30762
1.098	-1.51062
1.0985	18.22815
1.099	26.68762
1.0995	34.14001
1.1	39.77966
1.1005	41.59241
1.101	45.11719
1.1015	30.2124
1.102	21.85364
1.1025	17.01965
1.103	21.95435
1.1035	5.84106
1.104	1.71204
1.1045	7.85522
1.105	16.21399
1.1055	23.36426
1.106	16.61682
1.1065	19.13452
1.107	25.07629
1.1075	25.177
1.108	25.177
1.1085	20.54443
1.109	18.53027
1.1095	22.55859
1.11	34.03931
1.1105	39.17542
1.111	38.16833
1.1115	28.29895
1.112	19.73877
1.1125	22.25647
1.113	15.00549
1.1135	4.53186
1.114	9.97009
1.1145	8.45947
1.115	7.5531
1.1155	5.23682
1.116	3.7262
1.1165	5.23682
1.117	10.77576
1.1175	11.48071
1.118	11.48071
1.1185	6.54602
1.119	13.39417
1.1195	12.99133
1.12	13.89771
1.1205	14.70337
1.121	18.32886
1.1215	15.50903
1.122	14.70337
1.1225	8.25806
1.123	-3.52478
1.1235	-18.73169
1.124	-22.05505
1.1245	-18.53027
1.125	-9.86938
1.1255	-7.25098
1.126	-3.62549
1.1265	-7.15027
1.127	-5.33752
1.1275	2.92053
1.128	17.6239
1.1285	14.09912
1.129	10.57434
1.1295	14.40125
1.13	7.45239
1.1305	17.92603
1.131	19.83948
1.1315	19.33594
1.132	18.22815
1.1325	14.40125
1.133	3.52478
1.1335	-1.91345
1.134	3.92761
1.1345	6.74744
1.135	10.17151
1.1355	17.72461
1.136	23.26355
1.1365	11.48071
1.137	11.38
1.1375	9.97009
1.138	8.8623
1.1385	11.17859
1.139	9.36584
1.1395	6.94885
1.14	8.7616
1.1405	9.86938
1.141	15.00549
1.1415	11.07788
1.142	7.04956
1.1425	6.2439
1.143	0.70496
1.1435	3.42407
1.144	1.71204
1.1445	0.90637
1.145	-4.33044
1.1455	3.02124
1.146	-0.50354
1.1465	0.20142
1.147	1.71204
1.1475	-3.22266
1.148	2.92053
1.1485	2.01416
1.149	1.3092
1.1495	-0.90637
1.15	-10.37292
1.1505	-6.14319
1.151	-7.04956
1.1515	-4.02832
1.152	0.20142
1.1525	-3.92761
1.153	-1.61133
1.1535	-0.20142
1.154	0.30212
1.1545	1.00708
1.155	1.81274
1.1555	-0.60425
1.156	-2.92053
1.1565	-3.8269
1.157	-2.81982
1.1575	-3.62549
1.158	-2.61841
1.1585	-6.04248
1.159	-4.43115
1.1595	-1.2085
1.16	-4.12903
1.1605	-4.93469
1.161	-6.84814
1.1615	-9.97009
1.162	-3.22266
1.1625	-2.11487
1.163	-7.35168
1.1635	-7.5531
1.164	-4.73328
1.1645	2.41699
1.165	0.10071
1.1655	-1.10779
1.166	0
1.1665	0.10071
1.167	1.2085
1.1675	1.00708
1.168	3.52478
1.1685	-7.35168
1.169	0.60425
1.1695	-3.12195
1.17	-3.7262
1.1705	3.02124
1.171	0.50354
1.1715	0.10071
1.172	-4.22974
1.1725	-2.71912
1.173	-3.62549
1.1735	-3.62549
1.174	0.90637
1.1745	-1.71204
1.175	0
1.1755	-3.42407
1.176	-3.92761
1.1765	-4.02832
1.177	-0.20142
1.1775	-0.90637
1.178	-1.2085
1.1785	0.50354
1.179	-1.81274
1.1795	-0.50354
1.18	-2.41699
1.1805	-2.01416
1.181	1.2085
1.1815	-5.0354
1.182	-3.22266
1.1825	-5.74036
1.183	-2.11487
1.1835	-1.2085
1.184	3.62549
1.1845	-0.60425
1.185	-3.92761
1.1855	3.7262
1.186	-1.81274
1.1865	3.22266
1.187	-1.10779
1.1875	2.71912
1.188	-4.33044
1.1885	2.71912
1.189	-5.43823
1.1895	-8.66089
1.19	-1.2085
1.1905	-6.74744
1.191	-1.91345
1.1915	-6.84814
1.192	-3.8269
1.1925	-6.3446
1.193	-7.5531
1.1935	-7.25098
1.194	-7.15027
1.1945	-5.84106
1.195	-3.22266
1.1955	-0.10071
1.196	-0.50354
1.1965	-2.11487
1.197	-4.33044
1.1975	-8.15735
1.198	1.2085
1.1985	1.10779
1.199	0.10071
1.1995	-2.5177
1.2	-8.8623
1.2005	-2.71912
1.201	-5.33752
1.2015	-1.91345
1.202	-3.52478
1.2025	-6.74744
1.203	-4.63257
1.2035	-5.84106
1.204	0.70496
1.2045	-3.42407
1.205	-6.94885
1.2055	-5.13611
1.206	-8.96301
1.2065	-7.85522
1.207	-6.44531
1.2075	-9.06372
1.208	-4.02832
1.2085	2.92053
1.209	3.7262
1.2095	2.41699
1.21	5.13611
1.2105	-1.40991
1.211	-4.12903
1.2115	-2.41699
1.212	-4.12903
1.2125	-4.33044
1.213	-3.52478
1.2135	-1.00708
1.214	1.2085
1.2145	-3.92761
1.215	0.50354
1.2155	-5.23682
1.216	-6.3446
1.2165	-1.61133
1.217	-0.60425
1.2175	1.71204
1.218	-4.53186
1.2185	-3.8269
1.219	-5.63965
1.2195	-7.45239
1.22	-0.30212
1.2205	-2.41699
1.221	-7.5531
1.2215	-1.91345
1.222	-4.63257
1.2225	-4.33044
1.223	1.00708
1.2235	-5.53894
1.224	-3.02124
1.2245	-5.23682
1.225	-3.92761
1.2255	-7.15027
1.226	-4.53186
1.2265	-10.37292
1.227	-4.53186
1.2275	-1.91345
1.228	-6.2439
1.2285	-6.74744
1.229	-1.40991
1.2295	-4.93469
1.23	-2.61841
1.2305	-6.14319
1.231	-5.94177
1.2315	-2.81982
1.232	-4.83398
1.2325	-3.02124
1.233	-2.5177
1.2335	-2.92053
1.234	-1.00708
1.2345	-7.25098
1.235	-5.63965
1.2355	-5.13611
1.236	-2.31628
1.2365	-5.23682
1.237	-3.12195
1.2375	-4.22974
1.238	-7.95593
1.2385	-6.04248
1.239	-8.05664
1.2395	-8.05664
1.24	-11.07788
1.2405	-10.27222
1.241	-7.15027
1.2415	-8.66089
1.242	-10.17151
1.2425	-8.45947
1.243	-11.58142
1.2435	-8.56018
1.244	-5.23682
1.2445	-9.86938
1.245	-11.78284
1.2455	-12.89062
1.246	-9.26514
1.2465	-12.68921
1.247	-12.38708
1.2475	-11.98425
1.248	-12.99133
1.2485	-10.17151
1.249	-13.49487
1.2495	-15.81116
1.25	-11.88354
1.2505	-14.09912
1.251	-11.98425
1.2515	-18.12744
1.252	-15.00549
1.2525	-11.68213
1.253	-12.99133
1.2535	-13.29346
1.254	-12.38708
1.2545	-15.60974
1.255	-16.51611
1.2555	-18.02673
1.256	-15.91187
1.2565	-20.64514
1.257	-20.1416
1.2575	-19.83948
1.258	-14.40125
1.2585	-15.91187
1.259	-21.45081
1.2595	-16.91895
1.26	-15.81116
1.2605	-13.29346
1.261	-11.68213
1.2615	-15.81116
1.262	-18.53027
1.2625	-14.60266
1.263	-12.48779
1.2635	-15.91187
1.264	-19.03381
1.2645	-18.22815
1.265	-21.95435
1.2655	-24.57275
1.266	-15.30762
1.2665	-19.03381
1.267	-21.3501
1.2675	-10.77576
1.268	-12.5885
1.2685	-18.63098
1.269	-19.63806
1.2695	-18.22815
1.27	-21.95435
1.2705	-18.02673
1.271	-19.63806
1.2715	-24.67346
1.272	-22.96143
1.2725	-24.97559
1.273	-23.36426
1.2735	-24.06921
1.274	-23.36426
1.2745	-26.18408
1.275	-22.15576
1.2755	-30.01099
1.276	-30.41382
1.2765	-24.47205
1.277	-21.75293
1.2775	-22.55859
1.278	-26.58691
1.2785	-26.28479
1.279	-23.8678
1.2795	-30.2124
1.28	-28.29895
1.2805	-28.39966
1.281	-24.67346
1.2815	-25.78125
1.282	-24.37134
1.2825	-26.48621
1.283	-23.96851
1.2835	-23.8678
1.284	-18.93311
1.2845	-16.21399
1.285	-16.01257
1.2855	-13.99841
1.286	-14.30054
1.2865	-6.84814
1.287	-0.20142
1.2875	2.31628
1.288	5.63965
1.2885	7.35168
1.289	2.61841
1.2895	5.84106
1.29	5.53894
1.2905	11.17859
1.291	9.26514
1.2915	11.68213
1.292	2.71912
1.2925	1.40991
1.293	-10.0708
1.2935	-22.6593
1.294	-35.85205
1.2945	-54.78516
1.295	-72.81189
1.2955	-81.57349
1.296	-94.3634
1.2965	-102.82288
1.297	-95.47119
1.2975	-80.56641
1.298	-67.8772
1.2985	-56.39648
1.299	-48.44055
1.2995	-44.11011
1.3	-42.59949
1.3005	-44.61365
1.301	-35.14709
1.3015	-37.16125
1.302	-36.35559
1.3025	-35.14709
1.303	-34.54285
1.3035	-30.81665
1.304	-29.50745
1.3045	-27.09045
1.305	-28.80249
1.3055	-33.03223
1.306	-31.11877
1.3065	-31.32019
1.307	-35.34851
1.3075	-29.50745
1.308	-23.8678
1.3085	-26.68762
1.309	-25.68054
1.3095	-26.88904
1.31	-28.39966
1.3105	-21.3501
1.311	-24.67346
1.3115	-21.55151
1.312	-24.77417
1.3125	-25.47913
1.313	-22.96143
1.3135	-25.88196
1.314	-24.97559
1.3145	-28.9032
1.315	-25.47913
1.3155	-26.58691
1.316	-31.32019
1.3165	-32.02515
1.317	-31.32019
1.3175	-27.6947
1.318	-21.24939
1.3185	-17.82532
1.319	-12.68921
1.3195	-11.98425
1.32	-19.23523
1.3205	-18.42957
1.321	-17.82532
1.3215	-20.04089
1.322	-15.71045
1.3225	-15.91187
1.323	-18.53027
1.3235	-18.32886
1.324	-27.39258
1.3245	-18.32886
1.325	-16.3147
1.3255	-17.52319
1.326	-18.73169
1.3265	-18.63098
1.327	-18.02673
1.3275	-20.74585
1.328	-17.52319
1.3285	-18.02673
1.329	-14.09912
1.3295	-16.21399
1.33	-18.32886
1.3305	-22.15576
1.331	-21.24939
1.3315	-21.14868
1.332	-20.1416
1.3325	-17.52319
1.333	-15.60974
1.3335	-19.53735
1.334	-20.94727
1.3345	-18.42957
1.335	-18.93311
1.3355	-15.1062
1.336	-20.1416
1.3365	-17.6239
1.337	-20.64514
1.3375	-18.93311
1.338	-10.37292
1.3385	-11.07788
1.339	-13.797
1.3395	-9.16443
1.34	-16.51611
1.3405	-14.09912
1.341	-18.32886
1.3415	-14.09912
1.342	-9.56726
1.3425	-11.98425
1.343	-17.92603
1.3435	-20.64514
1.344	-13.29346
1.3445	-9.56726
1.345	-14.09912
1.3455	-9.46655
1.346	-11.2793
1.3465	-11.2793
1.347	-15.81116
1.3475	-19.63806
1.348	-12.08496
1.3485	-12.18567
1.349	-15.00549
1.3495	-13.69629
1.35	-10.67505
1.3505	-13.49487
1.351	-10.87646
1.3515	-13.09204
1.352	-6.14319
1.3525	-12.89062
1.353	-11.98425
1.3535	-12.78992
1.354	-6.04248
1.3545	-5.0354
1.355	-11.78284
1.3555	-9.66797
1.356	-7.85522
1.3565	-10.0708
1.357	-9.76868
1.3575	-9.06372
1.358	-6.74744
1.3585	-5.84106
1.359	-6.54602
1.3595	-9.56726
1.36	-8.15735
1.3605	-4.02832
1.361	-9.26514
1.3615	-7.25098
1.362	-7.04956
1.3625	-5.13611
1.363	-7.85522
1.3635	-7.95593
1.364	-6.94885
1.3645	-7.5531
1.365	-5.23682
1.3655	-1.40991
1.366	-3.22266
1.3665	-1.3092
1.367	-6.2439
1.3675	-8.15735
1.368	-0.80566
1.3685	1.00708
1.369	-2.61841
1.3695	-1.81274
1.37	-4.33044
1.3705	-8.45947
1.371	-6.74744
1.3715	-8.7616
1.372	-6.54602
1.3725	-7.45239
1.373	-5.94177
1.3735	-8.45947
1.374	-6.14319
1.3745	-6.74744
1.375	-5.13611
1.3755	-6.74744
1.376	-4.83398
1.3765	-3.22266
1.377	-4.93469
1.3775	-5.43823
1.378	-3.92761
1.3785	-10.27222
1.379	-7.15027
1.3795	-8.05664
1.38	-8.8623
1.3805	-9.46655
1.381	-6.2439
1.3815	-8.35876
1.382	-6.64673
1.3825	-6.64673
1.383	-1.91345
1.3835	-5.23682
1.384	-8.66089
1.3845	-6.54602
1.385	-2.11487
1.3855	0.80566
1.386	-4.43115
1.3865	-2.01416
1.387	-2.21558
1.3875	-2.01416
1.388	-1.00708
1.3885	-3.22266
1.389	-5.43823
1.3895	-6.14319
1.39	-9.16443
1.3905	-11.78284
1.391	-6.84814
1.3915	-4.93469
1.392	-5.13611
1.3925	-7.95593
1.393	-1.91345
1.3935	-4.33044
1.394	-8.05664
1.3945	-9.06372
1.395	-7.04956
1.3955	-7.25098
1.396	-7.65381
1.3965	-6.14319
1.397	-13.49487
1.3975	-15.91187
1.398	-14.40125
1.3985	-5.94177
1.399	-6.14319
1.3995	-13.19275
1.4	-10.77576
1.4005	-10.37292
1.401	-10.77576
1.4015	-10.77576
1.402	-12.68921
1.4025	-11.07788
1.403	-9.56726
1.4035	-14.19983
1.404	-11.68213
1.4045	-5.84106
1.405	-7.65381
1.4055	-4.73328
1.406	-6.84814
1.4065	-7.45239
1.407	-10.17151
1.4075	-13.09204
1.408	-13.19275
1.4085	-13.89771
1.409	-9.06372
1.4095	-14.70337
1.41	-14.09912
1.4105	-10.97717
1.411	-6.94885
1.4115	-5.94177
1.412	-8.8623
1.4125	-7.95593
1.413	-9.36584
1.4135	-10.77576
1.414	-10.0708
1.4145	-9.46655
1.415	-5.43823
1.4155	-5.94177
1.416	-9.76868
1.4165	-6.94885
1.417	-10.47363
1.4175	-13.89771
1.418	-6.3446
1.4185	-8.56018
1.419	-7.15027
1.4195	-16.11328
1.42	-11.78284
1.4205	-9.06372
1.421	-4.53186
1.4215	-9.76868
1.422	-9.26514
1.4225	-12.28638
1.423	-9.46655
1.4235	-9.16443
1.424	-10.57434
1.4245	-13.69629
1.425	-11.58142
1.4255	-3.32336
1.426	-6.64673
1.4265	-4.63257
1.427	-3.12195
1.4275	-4.43115
1.428	-6.94885
1.4285	-2.5177
1.429	-5.23682
1.4295	-6.2439
1.43	-7.35168
1.4305	-3.62549
1.431	-7.25098
1.4315	-6.54602
1.432	-9.86938
1.4325	-11.07788
1.433	-13.09204
1.4335	-13.89771
1.434	-15.50903
1.4345	-10.77576
1.435	-9.46655
1.4355	-4.83398
1.436	-10.47363
1.4365	-5.94177
1.437	-12.5885
1.4375	-12.78992
1.438	-6.54602
1.4385	-8.05664
1.439	-11.17859
1.4395	-12.68921
1.44	-10.87646
1.4405	-11.48071
1.441	-7.95593
1.4415	-6.74744
1.442	-11.48071
1.4425	-8.25806
1.443	-6.54602
1.4435	-6.94885
1.444	-10.17151
1.4445	-8.8623
1.445	-3.02124
1.4455	-5.63965
1.446	-5.23682
1.4465	-2.61841
1.447	-4.53186
1.4475	-3.22266
1.448	-7.45239
1.4485	-7.65381
1.449	-5.23682
1.4495	-1.40991
1.45	2.71912
1.4505	-1.40991
1.451	-5.84106
1.4515	-1.00708
1.452	-5.63965
1.4525	-2.31628
1.453	4.63257
1.4535	2.01416
1.454	0.40283
1.4545	0
1.455	-4.33044
1.4555	-5.13611
1.456	-0.50354
1.4565	1.10779
1.457	2.01416
1.4575	-7.15027
1.458	-6.14319
1.4585	-0.90637
1.459	-3.8269
1.4595	-5.63965
1.46	2.5177
1.4605	3.02124
1.461	-1.3092
1.4615	-1.10779
1.462	-1.81274
1.4625	0.30212
1.463	0.50354
1.4635	6.3446
1.464	4.02832
1.4645	3.62549
1.465	-3.12195
1.4655	4.63257
1.466	2.41699
1.4665	4.33044
1.467	6.3446
1.4675	6.14319
1.468	0.30212
1.4685	5.13611
1.469	15.00549
1.4695	4.93469
1.47	3.62549
1.4705	3.12195
1.471	0.10071
1.4715	5.53894
1.472	1.3092
1.4725	5.33752
1.473	6.3446
1.4735	7.95593
1.474	8.66089
1.4745	13.09204
1.475	11.17859
1.4755	2.5177
1.476	5.33752
1.4765	5.84106
1.477	9.06372
1.4775	14.30054
1.478	9.56726
1.4785	4.02832
1.479	3.42407
1.4795	4.73328
1.48	9.26514
1.4805	4.83398
1.481	5.13611
1.4815	3.8269
1.482	8.56018
1.4825	11.88354
1.483	14.19983
1.4835	10.77576
1.484	8.8623
1.4845	11.48071
1.485	8.8623
1.4855	10.57434
1.486	10.0708
1.4865	5.63965
1.487	13.89771
1.4875	13.09204
1.488	15.81116
1.4885	7.35168
1.489	10.0708
1.4895	8.96301
1.49	9.76868
1.4905	14.09912
1.491	13.797
1.4915	18.53027
1.492	13.89771
1.4925	3.7262
1.493	14.50195
1.4935	11.17859
1.494	10.77576
1.4945	18.73169
1.495	21.14868
1.4955	19.73877
1.496	16.41541
1.4965	11.88354
1.497	12.5885
1.4975	14.60266
1.498	17.22107
1.4985	18.93311
1.499	12.5885
1.4995	14.19983
1.5	16.81824
1.5005	18.32886
1.501	21.75293
1.5015	18.22815
1.502	16.3147
1.5025	12.38708
1.503	17.12036
1.5035	15.50903
1.504	11.88354
1.5045	15.81116
1.505	14.09912
1.5055	10.37292
1.506	11.17859
1.5065	7.75452
1.507	10.0708
1.5075	10.57434
1.508	14.80408
1.5085	23.56567
1.509	16.61682
1.5095	11.07788
1.51	11.68213
1.5105	13.19275
1.511	12.28638
1.5115	10.17151
1.512	15.1062
1.5125	16.11328
1.513	14.60266
1.5135	17.52319
1.514	13.89771
1.5145	15.50903
1.515	20.94727
1.5155	15.00549
1.516	16.11328
1.5165	17.01965
1.517	17.22107
1.5175	12.18567
1.518	18.73169
1.5185	17.92603
1.519	14.30054
1.5195	17.82532
1.52	16.51611
1.5205	12.08496
1.521	12.68921
1.5215	14.90479
1.522	14.70337
1.5225	14.90479
1.523	15.30762
1.5235	7.95593
1.524	14.60266
1.5245	17.72461
1.525	24.27063
1.5255	18.73169
1.526	13.99841
1.5265	20.64514
1.527	13.39417
1.5275	16.21399
1.528	18.93311
1.5285	19.83948
1.529	15.00549
1.5295	16.01257
1.53	13.19275
1.5305	17.42249
1.531	11.38
1.5315	14.09912
1.532	19.94019
1.5325	6.84814
1.533	9.76868
1.5335	8.7616
1.534	12.5885
1.5345	14.80408
1.535	7.5531
1.5355	13.49487
1.536	10.57434
1.5365	8.7616
1.537	9.26514
1.5375	20.64514
1.538	18.53027
1.5385	19.63806
1.539	17.72461
1.5395	15.81116
1.54	18.02673
1.5405	19.73877
1.541	17.6239
1.5415	17.52319
1.542	17.6239
1.5425	19.03381
1.543	21.04797
1.5435	16.41541
1.544	20.04089
1.5445	22.15576
1.545	28.19824
1.5455	23.46497
1.546	24.97559
1.5465	21.75293
1.547	21.3501
1.5475	22.05505
1.548	19.23523
1.5485	22.6593
1.549	27.29187
1.5495	25.47913
1.55	25.98267
1.5505	32.32727
1.551	25.177
1.5515	23.26355
1.552	16.81824
1.5525	18.93311
1.553	16.61682
1.5535	17.22107
1.554	25.27771
1.5545	26.78833
1.555	18.63098
1.5555	18.8324
1.556	8.8623
1.5565	13.69629
1.557	18.32886
1.5575	17.92603
1.558	15.40833
1.5585	11.48071
1.559	11.78284
1.5595	12.89062
1.56	16.01257
1.5605	16.81824
1.561	18.12744
1.5615	13.99841
1.562	19.53735
1.5625	24.67346
1.563	21.24939
1.5635	25.68054
1.564	27.99683
1.5645	24.57275
1.565	26.18408
1.5655	31.92444
1.566	30.11169
1.5665	25.98267
1.567	26.18408
1.5675	18.73169
1.568	21.75293
1.5685	22.05505
1.569	20.04089
1.5695	21.75293
1.57	22.6593
1.5705	26.58691
1.571	25.37842
1.5715	24.06921
1.572	26.28479
1.5725	25.98267
1.573	20.44373
1.5735	23.26355
1.574	23.8678
1.5745	21.24939
1.575	19.53735
1.5755	22.6593
1.576	17.12036
1.5765	19.03381
1.577	20.24231
1.5775	18.12744
1.578	20.94727
1.5785	21.04797
1.579	19.73877
1.5795	20.54443
1.58	15.50903
1.5805	22.55859
1.581	23.36426
1.5815	17.82532
1.582	18.8324
1.5825	16.21399
1.583	15.60974
1.5835	22.6593
1.584	21.24939
1.5845	21.55151
1.585	22.45789
1.5855	22.55859
1.586	19.13452
1.5865	20.64514
1.587	18.53027
1.5875	14.60266
1.588	10.67505
1.5885	19.33594
1.589	19.03381
1.5895	19.33594
1.59	30.2124
1.5905	23.46497
1.591	20.34302
1.5915	26.58691
1.592	26.58691
1.5925	24.47205
1.593	25.57983
1.5935	26.98975
1.594	30.71594
1.5945	33.53577
1.595	36.75842
1.5955	30.51453
1.596	26.88904
1.5965	30.2124
1.597	34.14001
1.5975	34.54285
1.598	30.41382
1.5985	28.09753
1.599	25.78125
1.5995	17.72461
1.6	14.80408
1.6005	15.20691
1.601	9.16443
1.6015	10.27222
1.602	15.81116
1.6025	11.48071
1.603	11.58142
1.6035	12.48779
1.604	10.97717
1.6045	17.6239
1.605	11.17859
1.6055	10.27222
1.606	13.39417
1.6065	17.22107
1.607	16.41541
1.6075	19.43665
1.608	15.71045
1.6085	19.94019
1.609	22.25647
1.6095	19.73877
1.61	20.64514
1.6105	20.84656
1.611	20.24231
1.6115	18.02673
1.612	18.53027
1.6125	17.92603
1.613	21.85364
1.6135	21.45081
1.614	19.03381
1.6145	19.63806
1.615	23.06213
1.6155	19.63806
1.616	17.82532
1.6165	19.03381
1.617	20.54443
1.6175	22.6593
1.618	19.03381
1.6185	15.30762
1.619	26.58691
1.6195	19.63806
1.62	19.83948
1.6205	23.26355
1.621	22.45789
1.6215	24.37134
1.622	21.3501
1.6225	21.04797
1.623	23.06213
1.6235	21.55151
1.624	24.27063
1.6245	14.70337
1.625	19.43665
1.6255	21.3501
1.626	24.27063
1.6265	22.86072
1.627	25.37842
1.6275	22.76001
1.628	17.12036
1.6285	16.51611
1.629	20.94727
1.6295	18.73169
1.63	15.40833
1.6305	16.91895
1.631	23.16284
1.6315	17.92603
1.632	20.94727
1.6325	21.65222
1.633	21.85364
1.6335	19.13452
1.634	20.94727
1.6345	21.3501
1.635	27.09045
1.6355	23.06213
1.636	24.16992
1.6365	27.09045
1.637	22.86072
1.6375	18.53027
1.638	28.19824
1.6385	26.98975
1.639	22.35718
1.6395	23.36426
1.64	19.23523
1.6405	19.94019
1.641	21.85364
1.6415	21.45081
1.642	23.96851
1.6425	18.02673
1.643	21.3501
1.6435	13.39417
1.644	16.61682
1.6445	14.09912
1.645	12.99133
1.6455	14.50195
1.646	13.89771
1.6465	8.56018
1.647	21.95435
1.6475	18.93311
1.648	18.42957
1.6485	11.98425
1.649	15.30762
1.6495	12.78992
1.65	7.65381
1.6505	13.29346
1.651	8.05664
1.6515	2.81982
1.652	5.84106
1.6525	10.67505
1.653	10.87646
1.6535	9.86938
1.654	12.89062
1.6545	11.38
1.655	10.47363
1.6555	15.00549
1.656	16.41541
1.6565	15.1062
1.657	19.83948
1.6575	18.53027
1.658	17.52319
1.6585	13.797
1.659	13.59558
1.6595	13.29346
1.66	11.68213
1.6605	7.95593
1.661	8.7616
1.6615	7.95593
1.662	7.65381
1.6625	11.98425
1.663	15.20691
1.6635	14.70337
1.664	10.67505
1.6645	13.29346
1.665	12.78992
1.6655	12.08496
1.666	11.88354
1.6665	12.08496
1.667	8.56018
1.6675	12.18567
1.668	14.30054
1.6685	18.73169
1.669	8.35876
1.6695	10.37292
1.67	6.64673
1.6705	9.97009
1.671	5.53894
1.6715	12.68921
1.672	11.78284
1.6725	9.97009
1.673	10.67505
1.6735	10.97717
1.674	12.68921
1.6745	6.84814
1.675	11.78284
1.6755	8.05664
1.676	11.78284
1.6765	12.48779
1.677	16.3147
1.6775	10.47363
1.678	11.68213
1.6785	13.89771
1.679	11.48071
1.6795	20.44373
1.68	20.64514
1.6805	14.40125
1.681	14.30054
1.6815	12.89062
1.682	16.91895
1.6825	18.22815
1.683	14.90479
1.6835	10.97717
1.684	12.78992
1.6845	16.51611
1.685	17.22107
1.6855	18.02673
1.686	13.49487
1.6865	13.09204
1.687	8.96301
1.6875	13.99841
1.688	14.80408
1.6885	13.39417
1.689	16.71753
1.6895	15.20691
1.69	13.39417
1.6905	13.89771
1.691	13.19275
1.6915	12.18567
1.692	13.29346
1.6925	8.96301
1.693	14.80408
1.6935	19.53735
1.694	17.01965
1.6945	8.7616
1.695	13.29346
1.6955	14.09912
1.696	9.66797
1.6965	15.50903
1.697	7.5531
1.6975	9.46655
1.698	9.06372
1.6985	9.46655
1.699	16.21399
1.6995	12.99133
1.7	16.3147
1.7005	23.36426
1.701	21.65222
1.7015	19.23523
1.702	20.44373
1.7025	20.44373
1.703	18.42957
1.7035	14.60266
1.704	18.22815
1.7045	13.09204
1.705	7.35168
1.7055	10.17151
1.706	6.3446
1.7065	10.17151
1.707	6.94885
1.7075	8.96301
1.708	6.14319
1.7085	7.45239
1.709	12.68921
1.7095	15.40833
1.71	11.58142
1.7105	4.93469
1.711	4.63257
1.7115	7.65381
1.712	8.66089
1.7125	5.74036
1.713	10.97717
1.7135	8.66089
1.714	12.18567
1.7145	14.19983
1.715	10.87646
1.7155	9.56726
1.716	14.09912
1.7165	12.99133
1.717	15.50903
1.7175	12.48779
1.718	10.57434
1.7185	6.94885
1.719	13.69629
1.7195	13.59558
1.72	12.38708
1.7205	14.40125
1.721	12.28638
1.7215	15.30762
1.722	12.5885
1.7225	10.87646
1.723	10.37292
1.7235	2.5177
1.724	6.3446
1.7245	4.83398
1.725	7.04956
1.7255	5.63965
1.726	11.07788
1.7265	9.56726
1.727	11.98425
1.7275	9.36584
1.728	6.94885
1.7285	6.3446
1.729	10.67505
1.7295	8.15735
1.73	13.39417
1.7305	15.1062
1.731	12.08496
1.7315	12.5885
1.732	10.97717
1.7325	17.12036
1.733	13.89771
1.7335	8.25806
1.734	2.5177
1.7345	8.45947
1.735	10.37292
1.7355	10.17151
1.736	10.27222
1.7365	2.71912
1.737	9.97009
1.7375	3.7262
1.738	8.05664
1.7385	10.47363
1.739	9.86938
1.7395	8.35876
1.74	12.68921
1.7405	13.59558
1.741	8.66089
1.7415	9.76868
1.742	15.71045
1.7425	6.64673
1.743	10.27222
1.7435	9.06372
1.744	5.33752
1.7445	8.8623
1.745	9.26514
1.7455	10.77576
1.746	10.87646
1.7465	13.797
1.747	11.98425
1.7475	14.80408
1.748	8.96301
1.7485	10.87646
1.749	11.98425
1.7495	10.27222
1.75	7.95593
1.7505	8.96301
1.751	6.3446
1.7515	9.46655
1.752	16.51611
1.7525	15.71045
1.753	17.42249
1.7535	14.70337
1.754	17.92603
1.7545	17.32178
1.755	13.49487
1.7555	9.36584
1.756	7.85522
1.7565	5.94177
1.757	10.57434
1.7575	12.5885
1.758	7.04956
1.7585	4.43115
1.759	5.43823
1.7595	4.12903
1.76	0.20142
1.7605	2.11487
1.761	11.48071
1.7615	6.14319
1.762	10.47363
1.7625	11.48071
1.763	9.36584
1.7635	3.32336
1.764	8.56018
1.7645	9.97009
1.765	10.47363
1.7655	10.17151
1.766	11.58142
1.7665	5.94177
1.767	4.53186
1.7675	3.12195
1.768	5.13611
1.7685	8.45947
1.769	1.81274
1.7695	2.21558
1.77	8.25806
1.7705	-1.40991
1.771	3.52478
1.7715	4.93469
1.772	1.51062
1.7725	6.94885
1.773	4.12903
1.7735	0.30212
1.774	-2.21558
1.7745	0.10071
1.775	-0.40283
1.7755	1.10779
1.776	-3.12195
1.7765	-3.42407
1.777	2.5177
1.7775	-0.90637
1.778	6.14319
1.7785	-2.21558
1.779	0.80566
1.7795	1.81274
1.78	0.20142
1.7805	7.35168
1.781	7.65381
1.7815	10.27222
1.782	10.87646
1.7825	9.66797
1.783	4.22974
1.7835	8.56018
1.784	9.36584
1.7845	16.21399
1.785	9.66797
1.7855	9.66797
1.786	6.64673
1.7865	10.67505
1.787	3.62549
1.7875	-1.71204
1.788	0.40283
1.7885	0.40283
1.789	0.30212
1.7895	4.53186
1.79	-6.94885
1.7905	4.83398
1.791	5.23682
1.7915	-0.40283
1.792	1.81274
1.7925	-1.71204
1.793	1.00708
1.7935	-0.90637
1.794	-2.81982
1.7945	-1.81274
1.795	-5.33752
1.7955	-2.11487
1.796	0
1.7965	0.80566
1.797	6.74744
1.7975	5.94177
1.798	7.25098
1.7985	15.81116
1.799	13.69629
1.7995	10.47363
1.8	17.6239
1.8005	14.50195
1.801	9.36584
1.8015	14.19983
1.802	12.99133
1.8025	12.48779
1.803	5.13611
1.8035	13.69629
1.804	10.57434
1.8045	6.64673
1.805	5.43823
1.8055	6.44531
1.806	1.10779
1.8065	0.50354
1.807	8.15735
1.8075	7.5531
1.808	10.37292
1.8085	4.22974
1.809	0.90637
1.8095	6.84814
1.81	3.92761
1.8105	-1.10779
1.811	7.45239
1.8115	2.5177
1.812	1.71204
1.8125	2.21558
1.813	0.70496
1.8135	-4.53186
1.814	-3.32336
1.8145	-5.13611
1.815	0.60425
1.8155	2.61841
1.816	0.40283
1.8165	-0.40283
1.817	0.70496
1.8175	0.70496
1.818	0.60425
1.8185	-2.92053
1.819	-6.94885
1.8195	-6.94885
1.82	-12.99133
1.8205	-16.61682
1.821	-11.98425
1.8215	-15.1062
1.822	-16.3147
1.8225	-14.30054
1.823	-7.15027
1.8235	-5.74036
1.824	0.90637
1.8245	10.57434
1.825	16.21399
1.8255	13.39417
1.826	15.1062
1.8265	16.91895
1.827	11.98425
1.8275	12.68921
1.828	9.86938
1.8285	3.02124
1.829	4.02832
1.8295	2.11487
1.83	1.71204
1.8305	-0.80566
1.831	-1.40991
1.8315	-0.60425
1.832	-2.41699
1.8325	-8.05664
1.833	-0.40283
1.8335	-4.02832
1.834	-1.61133
1.8345	-1.40991
1.835	-6.94885
1.8355	-2.11487
1.836	0
1.8365	-1.40991
1.837	-0.10071
1.8375	-5.0354
1.838	-2.92053
1.8385	-1.40991
1.839	-2.81982
1.8395	-3.8269
1.84	-3.42407
1.8405	-7.15027
1.841	-6.84814
1.8415	-1.3092
1.842	3.32336
1.8425	9.86938
1.843	10.27222
1.8435	6.64673
1.844	11.17859
1.8445	14.50195
1.845	9.76868
1.8455	6.54602
1.846	10.87646
1.8465	6.94885
1.847	7.04956
1.8475	5.43823
1.848	13.29346
1.8485	11.78284
1.849	15.91187
1.8495	12.89062
1.85	12.38708
1.8505	4.63257
1.851	2.92053
1.8515	0.10071
1.852	-1.10779
1.8525	2.81982
1.853	-2.71912
1.8535	-2.92053
1.854	1.3092
1.8545	5.13611
1.855	3.52478
1.8555	4.33044
1.856	2.01416
1.8565	3.02124
1.857	0
1.8575	5.23682
1.858	2.5177
1.8585	6.44531
1.859	2.11487
1.8595	1.91345
1.86	5.43823
1.8605	1.40991
1.861	6.54602
1.8615	3.22266
1.862	6.3446
1.8625	3.62549
1.863	6.74744
1.8635	2.81982
1.864	3.62549
1.8645	3.52478
1.865	-0.60425
1.8655	6.94885
1.866	4.93469
1.8665	4.53186
1.867	4.12903
1.8675	-0.90637
1.868	0.60425
1.8685	-2.81982
1.869	-3.92761
1.8695	-1.71204
1.87	-4.83398
1.8705	-3.62549
1.871	-11.2793
1.8715	-7.85522
1.872	-10.27222
1.8725	-6.54602
1.873	-7.95593
1.8735	-7.85522
1.874	-0.80566
1.8745	0.50354
1.875	-0.80566
1.8755	-0.20142
1.876	1.51062
1.8765	1.81274
1.877	5.33752
1.8775	8.15735
1.878	8.66089
1.8785	8.35876
1.879	7.35168
1.8795	9.06372
1.88	8.15735
1.8805	10.57434
1.881	12.38708
1.8815	10.17151
1.882	14.40125
1.8825	10.67505
1.883	4.93469
1.8835	4.53186
1.884	9.06372
1.8845	4.33044
1.885	1.61133
1.8855	3.92761
1.886	5.63965
1.8865	-3.8269
1.887	2.61841
1.8875	-1.3092
1.888	-5.43823
1.8885	-3.52478
1.889	-1.81274
1.8895	-2.71912
1.89	-5.33752
1.8905	-6.74744
1.891	-4.93469
1.8915	-3.02124
1.892	1.3092
1.8925	5.0354
1.893	1.00708
1.8935	0.30212
1.894	2.01416
1.8945	-2.01416
1.895	-2.31628
1.8955	0.90637
1.896	1.91345
1.8965	0.80566
1.897	-2.41699
1.8975	-1.61133
1.898	-1.3092
1.8985	0.50354
1.899	1.71204
1.8995	2.31628
1.9	4.22974
1.9005	-0.30212
1.901	2.71912
1.9015	2.41699
1.902	-1.2085
1.9025	5.94177
1.903	7.45239
1.9035	4.53186
1.904	6.14319
1.9045	2.01416
1.905	9.97009
1.9055	5.33752
1.906	3.02124
1.9065	3.12195
1.907	3.12195
1.9075	0.80566
1.908	-0.40283
1.9085	-2.31628
1.909	-2.31628
1.9095	0.90637
1.91	0.80566
1.9105	5.13611
1.911	6.44531
1.9115	5.74036
1.912	6.3446
1.9125	13.69629
1.913	13.39417
1.9135	7.95593
1.914	4.43115
1.9145	6.3446
1.915	3.12195
1.9155	3.42407
1.916	2.92053
1.9165	2.71912
1.917	4.33044
1.9175	1.91345
1.918	4.53186
1.9185	3.62549
1.919	0.70496
1.9195	1.61133
1.92	-2.5177
1.9205	1.51062
1.921	0
1.9215	4.93469
1.922	2.81982
1.9225	4.83398
1.923	12.38708
1.9235	11.38
1.924	9.56726
1.9245	10.0708
1.925	10.47363
1.9255	9.86938
1.926	11.78284
1.9265	7.85522
1.927	9.76868
1.9275	9.06372
1.928	16.71753
1.9285	9.86938
1.929	9.66797
1.9295	5.84106
1.93	11.17859
1.9305	9.16443
1.931	12.48779
1.9315	10.37292
1.932	2.81982
1.9325	9.06372
1.933	4.22974
1.9335	2.31628
1.934	8.25806
1.9345	3.8269
1.935	2.41699
1.9355	2.31628
1.936	-0.90637
1.9365	-3.32336
1.937	-2.31628
1.9375	2.5177
1.938	1.2085
1.9385	3.42407
1.939	-2.01416
1.9395	1.81274
1.94	4.22974
1.9405	-0.20142
1.941	-4.33044
1.9415	-0.30212
1.942	1.3092
1.9425	2.71912
1.943	8.25806
1.9435	23.16284
1.944	20.64514
1.9445	19.43665
1.945	20.44373
1.9455	15.71045
1.946	12.89062
1.9465	20.1416
1.947	22.6593
1.9475	18.63098
1.948	11.58142
1.9485	8.45947
1.949	6.44531
1.9495	5.63965
1.95	10.57434
1.9505	8.96301
1.951	8.8623
1.9515	9.06372
1.952	6.94885
1.9525	5.13611
1.953	4.53186
1.9535	4.22974
1.954	5.43823
1.9545	10.97717
1.955	3.02124
1.9555	1.3092
1.956	7.25098
1.9565	10.27222
1.957	5.74036
1.9575	0
1.958	4.33044
1.9585	12.48779
1.959	12.99133
1.9595	13.797
1.96	20.1416
1.9605	19.53735
1.961	15.00549
1.9615	10.67505
1.962	15.81116
1.9625	19.94019
1.963	13.49487
1.9635	17.6239
1.964	22.15576
1.9645	18.53027
1.965	19.13452
1.9655	19.03381
1.966	7.25098
1.9665	6.14319
1.967	12.48779
1.9675	9.76868
1.968	10.67505
1.9685	8.45947
1.969	8.96301
1.9695	7.45239
1.97	7.15027
1.9705	5.13611
1.971	7.75452
1.9715	5.33752
1.972	8.96301
1.9725	6.14319
1.973	11.78284
1.9735	5.94177
1.974	5.23682
1.9745	3.22266
1.975	1.40991
1.9755	-2.5177
1.976	2.71912
1.9765	1.40991
1.977	3.42407
1.9775	2.11487
1.978	5.13611
1.9785	0.60425
1.979	1.51062
1.9795	1.10779
1.98	2.61841
1.9805	5.33752
1.981	0.20142
1.9815	3.32336
1.982	4.12903
1.9825	2.5177
1.983	3.92761
1.9835	4.53186
1.984	3.7262
1.9845	2.01416
1.985	1.51062
1.9855	0.50354
1.986	9.66797
1.9865	10.67505
1.987	6.3446
1.9875	10.17151
1.988	14.60266
1.9885	14.50195
1.989	15.81116
1.9895	21.75293
1.99	21.95435
1.9905	20.54443
1.991	16.71753
1.9915	14.30054
1.992	10.87646
1.9925	0.70496
1.993	-4.22974
1.9935	-9.56726
1.994	-4.93469
1.9945	-5.43823
1.995	-8.7616
1.9955	-7.45239
1.996	-6.04248
1.9965	-9.97009
1.997	-5.0354
1.9975	-0.60425
1.998	8.56018
1.9985	8.45947
1.999	10.77576
1.9995	12.68921
2	14.19983
2.0005	18.12744
2.001	18.73169
2.0015	9.97009
2.002	10.37292
2.0025	8.25806
2.003	8.25806
2.0035	6.04248
2.004	3.92761
2.0045	1.81274
2.005	13.39417
2.0055	15.71045
2.006	16.51611
2.0065	20.1416
2.007	15.40833
2.0075	15.91187
2.008	16.91895
2.0085	18.73169
2.009	14.90479
2.0095	10.0708
2.01	8.25806
2.0105	5.63965
2.011	8.56018
2.0115	6.64673
2.012	3.62549
2.0125	2.5177
2.013	1.91345
2.0135	4.33044
2.014	5.13611
2.0145	3.22266
2.015	6.2439
2.0155	7.15027
2.016	5.84106
2.0165	-0.10071
2.017	7.35168
2.0175	11.2793
2.018	12.68921
2.0185	16.81824
2.019	25.27771
2.0195	18.02673
2.02	9.86938
2.0205	9.06372
2.021	10.67505
2.0215	7.85522
2.022	10.17151
2.0225	5.43823
2.023	2.41699
2.0235	1.71204
2.024	2.11487
2.0245	-2.92053
2.025	-3.52478
2.0255	-2.71912
2.026	1.40991
2.0265	-2.01416
2.027	2.21558
2.0275	2.21558
2.028	0.60425
2.0285	5.33752
2.029	11.2793
2.0295	9.97009
2.03	6.04248
2.0305	6.04248
2.031	9.97009
2.0315	10.97717
2.032	15.1062
2.0325	8.35876
2.033	3.92761
2.0335	13.49487
2.034	14.19983
2.0345	5.84106
2.035	6.2439
2.0355	9.46655
2.036	2.61841
2.0365	-0.70496
2.037	1.10779
2.0375	6.74744
2.038	7.35168
2.0385	13.69629
2.039	6.04248
2.0395	9.66797
2.04	6.14319
2.0405	10.57434
2.041	6.94885
2.0415	13.39417
2.042	11.2793
2.0425	14.50195
2.043	16.11328
2.0435	5.74036
2.044	1.71204
2.0445	7.95593
2.045	3.7262
2.0455	-0.10071
2.046	1.61133
2.0465	-3.62549
2.047	4.73328
2.0475	8.7616
2.048	5.94177
2.0485	11.07788
2.049	14.40125
2.0495	9.56726
2.05	13.69629
2.0505	13.69629
2.051	8.35876
2.0515	13.49487
2.052	9.66797
2.0525	4.43115
2.053	-0.10071
2.0535	-3.7262
2.054	1.2085
2.0545	-3.7262
2.055	-0.10071
2.0555	1.2085
2.056	-1.00708
2.0565	1.40991
2.057	11.58142
2.0575	13.59558
2.058	17.6239
2.0585	10.47363
2.059	7.15027
2.0595	7.5531
2.06	9.66797
2.0605	11.88354
2.061	14.19983
2.0615	9.36584
2.062	15.81116
2.0625	13.19275
2.063	8.66089
2.0635	5.23682
2.064	4.12903
2.0645	8.05664
2.065	7.85522
2.0655	5.84106
2.066	10.57434
2.0665	8.96301
2.067	8.66089
2.0675	14.50195
2.068	9.76868
2.0685	8.45947
2.069	8.05664
2.0695	5.84106
2.07	8.66089
2.0705	7.95593
2.071	10.77576
2.0715	16.3147
2.072	10.97717
2.0725	1.81274
2.073	5.0354
2.0735	8.15735
2.074	12.38708
2.0745	9.56726
2.075	6.14319
2.0755	8.56018
2.076	6.2439
2.0765	3.12195
2.077	-0.20142
2.0775	1.40991
2.078	2.92053
2.0785	2.11487
2.079	0.20142
2.0795	-5.23682
2.08	-7.15027
2.0805	-3.12195
2.081	1.00708
2.0815	-0.80566
2.082	-0.80566
2.0825	4.53186
2.083	8.45947
2.0835	14.09912
2.084	14.60266
2.0845	10.27222
2.085	11.2793
2.0855	3.8269
2.086	4.22974
2.0865	-1.2085
2.087	3.12195
2.0875	3.8269
2.088	10.77576
2.0885	6.04248
2.089	4.02832
2.0895	0.30212
2.09	1.2085
2.0905	-3.02124
2.091	-1.00708
2.0915	8.8623
2.092	9.66797
2.0925	8.96301
2.093	9.46655
2.0935	15.50903
2.094	6.14319
2.0945	3.52478
2.095	6.54602
2.0955	2.92053
2.096	9.26514
2.0965	20.64514
2.097	25.78125
2.0975	27.6947
2.098	24.57275
2.0985	20.34302
2.099	18.93311
2.0995	26.08337
2.1	18.32886
2.1005	12.89062
2.101	8.7616
2.1015	6.04248
2.102	11.48071
2.1025	9.76868
2.103	7.65381
2.1035	5.43823
2.104	8.7616
2.1045	7.35168
2.105	3.92761
2.1055	-1.00708
2.106	-2.21558
2.1065	-0.90637
2.107	1.61133
2.1075	1.2085
2.108	6.3446
2.1085	1.2085
2.109	2.81982
2.1095	5.33752
2.11	6.14319
2.1105	5.13611
2.111	4.73328
2.1115	6.04248
2.112	4.53186
2.1125	3.32336
2.113	5.84106
2.1135	4.53186
2.114	4.53186
2.1145	5.74036
2.115	1.61133
2.1155	3.32336
2.116	-1.2085
2.1165	-2.31628
2.117	-0.40283
2.1175	-1.10779
2.118	-2.81982
2.1185	1.81274
2.119	-1.71204
2.1195	-0.80566
2.12	-1.40991
2.1205	1.71204
2.121	-3.92761
2.1215	-5.84106
2.122	-2.11487
2.1225	-2.81982
2.123	0.10071
2.1235	9.66797
2.124	10.67505
2.1245	15.50903
2.125	13.09204
2.1255	10.67505
2.126	10.67505
2.1265	14.09912
2.127	8.05664
2.1275	8.25806
2.128	6.94885
2.1285	6.3446
2.129	12.68921
2.1295	15.71045
2.13	15.60974
2.1305	17.12036
2.131	13.49487
2.1315	18.02673
2.132	9.86938
2.1325	7.85522
2.133	11.68213
2.1335	8.15735
2.134	8.25806
2.1345	-3.62549
2.135	2.71912
2.1355	3.12195
2.136	5.43823
2.1365	0.10071
2.137	2.41699
2.1375	5.33752
2.138	6.2439
2.1385	6.64673
2.139	8.35876
2.1395	5.13611
2.14	3.8269
2.1405	3.62549
2.141	5.84106
2.1415	10.77576
2.142	14.70337
2.1425	13.29346
2.143	17.52319
2.1435	19.53735
2.144	13.49487
2.1445	6.74744
2.145	9.16443
2.1455	6.74744
2.146	7.04956
2.1465	12.28638
2.147	14.90479
2.1475	11.07788
2.148	7.75452
2.1485	6.3446
2.149	9.36584
2.1495	2.61841
2.15	12.08496
2.1505	18.22815
2.151	18.22815
2.1515	18.93311
2.152	28.09753
2.1525	27.09045
2.153	14.70337
2.1535	13.69629
2.154	6.3446
2.1545	3.02124
2.155	4.22974
2.1555	-1.3092
2.156	-2.31628
2.1565	0.50354
2.157	5.84106
2.1575	7.5531
2.158	3.62549
2.1585	4.63257
2.159	3.52478
2.1595	5.33752
2.16	3.62549
2.1605	8.8623
2.161	4.43115
2.1615	1.10779
2.162	1.3092
2.1625	-0.40283
2.163	9.06372
2.1635	19.73877
2.164	17.01965
2.1645	15.71045
2.165	5.53894
2.1655	1.51062
2.166	7.04956
2.1665	11.17859
2.167	6.2439
2.1675	9.56726
2.168	9.36584
2.1685	16.71753
2.169	22.76001
2.1695	26.3855
2.17	21.75293
2.1705	21.75293
2.171	16.81824
2.1715	16.71753
2.172	12.18567
2.1725	14.19983
2.173	10.97717
2.1735	9.86938
2.174	10.17151
2.1745	10.37292
2.175	7.45239
2.1755	1.00708
2.176	1.71204
2.1765	1.2085
2.177	4.63257
2.1775	4.02832
2.178	5.33752
2.1785	8.66089
2.179	5.0354
2.1795	-4.93469
2.18	-3.22266
2.1805	-6.14319
2.181	0.20142
2.1815	3.52478
2.182	12.48779
2.1825	21.14868
2.183	14.30054
2.1835	5.53894
2.184	7.65381
2.1845	2.5177
2.185	6.54602
2.1855	7.04956
2.186	11.48071
2.1865	6.3446
2.187	14.60266
2.1875	14.19983
2.188	18.02673
2.1885	14.60266
2.189	4.43115
2.1895	1.71204
2.19	-2.01416
2.1905	-11.68213
2.191	-1.71204
2.1915	3.02124
2.192	3.32336
2.1925	3.22266
2.193	6.84814
2.1935	-1.71204
2.194	-0.40283
2.1945	-0.90637
2.195	4.12903
2.1955	10.67505
2.196	14.40125
2.1965	12.68921
2.197	19.63806
2.1975	20.94727
2.198	22.86072
2.1985	17.42249
2.199	11.58142
2.1995	5.84106
2.2	13.39417
2.2005	14.60266
2.201	14.19983
2.2015	9.26514
2.202	4.83398
2.2025	3.7262
2.203	5.43823
2.2035	5.53894
2.204	5.23682
2.2045	2.92053
2.205	6.74744
2.2055	6.14319
2.206	5.23682
2.2065	11.17859
2.207	12.18567
2.2075	8.7616
2.208	9.16443
2.2085	7.35168
2.209	10.57434
2.2095	14.90479
2.21	13.39417
2.2105	12.68921
2.211	7.65381
2.2115	-6.14319
2.212	-3.32336
2.2125	-0.30212
2.213	2.61841
2.2135	9.06372
2.214	16.01257
2.2145	11.98425
2.215	7.95593
2.2155	5.94177
2.216	-2.21558
2.2165	3.32336
2.217	6.44531
2.2175	12.68921
2.218	21.14868
2.2185	36.4563
2.219	32.42798
2.2195	23.46497
2.22	19.73877
2.2205	13.09204
2.221	6.94885
2.2215	7.35168
2.222	4.02832
2.2225	-1.40991
2.223	1.00708
2.2235	-3.62549
2.224	-6.94885
2.2245	-8.96301
2.225	-4.43115
2.2255	-5.63965
2.226	-8.15735
2.2265	-3.02124
2.227	-3.02124
2.2275	-7.5531
2.228	-5.43823
2.2285	-0.30212
2.229	5.23682
2.2295	1.91345
2.23	-2.92053
2.2305	2.31628
2.231	3.42407
2.2315	10.37292
2.232	16.11328
2.2325	24.06921
2.233	24.57275
2.2335	19.94019
2.234	17.52319
2.2345	14.80408
2.235	12.99133
2.2355	13.89771
2.236	13.49487
2.2365	12.18567
2.237	9.66797
2.2375	5.23682
2.238	7.85522
2.2385	10.97717
2.239	5.53894
2.2395	1.71204
2.24	8.56018
2.2405	6.3446
2.241	7.85522
2.2415	-13.09204
2.242	-19.83948
2.2425	-20.1416
2.243	-16.11328
2.2435	1.2085
2.244	6.14319
2.2445	8.96301
2.245	-1.91345
2.2455	-1.40991
2.246	-2.01416
2.2465	7.35168
2.247	5.13611
2.2475	-4.63257
2.248	-14.40125
2.2485	-22.15576
2.249	-23.8678
2.2495	-30.2124
2.25	-27.6947
2.2505	-19.53735
2.251	-9.66797
2.2515	-1.91345
2.252	3.7262
2.2525	13.49487
2.253	22.86072
2.2535	23.76709
2.254	25.27771
2.2545	25.37842
2.255	22.86072
2.2555	26.18408
2.256	15.00549
2.2565	4.33044
2.257	-13.09204
2.2575	-26.78833
2.258	-30.31311
2.2585	-33.03223
2.259	-29.30603
2.2595	-27.09045
2.26	-28.80249
2.2605	-21.95435
2.261	-28.60107
2.2615	-31.72302
2.262	-15.1062
2.2625	-13.89771
2.263	-7.95593
2.2635	-9.46655
2.264	-6.74744
2.2645	-7.75452
2.265	-8.05664
2.2655	-7.15027
2.266	6.94885
2.2665	8.05664
2.267	17.22107
2.2675	19.94019
2.268	15.50903
2.2685	18.93311
2.269	4.43115
2.2695	0.40283
2.27	2.5177
2.2705	8.8623
2.271	12.08496
2.2715	10.87646
2.272	11.68213
2.2725	17.01965
2.273	13.29346
2.2735	8.56018
2.274	16.91895
2.2745	19.43665
2.275	32.12585
2.2755	40.38391
2.276	47.63489
2.2765	59.61914
2.277	74.92676
2.2775	83.99048
2.278	89.93225
2.2785	84.49402
2.279	80.26428
2.2795	73.61755
2.28	67.67578
2.2805	65.15808
2.281	71.20056
2.2815	94.16199
2.282	113.69934
2.2825	127.79846
2.283	121.85669
2.2835	108.76465
2.284	96.17615
2.2845	82.47986
2.285	73.11401
2.2855	73.21472
2.286	70.3949
2.2865	63.44604
2.287	66.36658
2.2875	54.48303
2.288	50.15259
2.2885	58.71277
2.289	61.02905
2.2895	47.03064
2.29	34.64355
2.2905	11.68213
2.291	6.54602
2.2915	8.45947
2.292	10.37292
2.2925	15.91187
2.293	27.99683
2.2935	37.86621
2.294	33.63647
2.2945	29.50745
2.295	18.8324
2.2955	7.85522
2.296	12.48779
2.2965	15.50903
2.297	13.29346
2.2975	19.03381
2.298	16.51611
2.2985	5.84106
2.299	-0.30212
2.2995	-7.85522
2.3	-15.1062
2.3005	-22.6593
2.301	-23.36426
2.3015	-47.33276
2.302	-57.20215
2.3025	-57.60498
2.303	-66.46729
2.3035	-66.97083
2.304	-62.53967
2.3045	-59.31702
2.305	-58.81348
2.3055	-42.7002
2.306	-38.57117
2.3065	-34.14001
2.307	-44.11011
2.3075	-55.99365
2.308	-58.10852
2.3085	-53.27454
2.309	-45.82214
2.3095	-53.67737
2.31	-54.0802
2.3105	-52.16675
2.311	-38.87329
2.3115	-22.6593
2.312	-7.25098
2.3125	-3.52478
2.313	-3.02124
2.3135	8.7616
2.314	22.45789
2.3145	31.32019
2.315	43.30444
2.3155	46.62781
2.316	58.81348
2.3165	60.72693
2.317	63.94958
2.3175	60.12268
2.318	58.20923
2.3185	51.76392
2.319	45.41931
2.3195	28.80249
2.32	24.57275
2.3205	18.53027
2.321	11.58142
2.3215	9.16443
2.322	2.31628
2.3225	8.8623
2.323	17.52319
2.3235	41.08887
2.324	45.2179
2.3245	41.08887
2.325	48.13843
2.3255	57.10144
2.326	62.53967
2.3265	61.6333
2.327	42.7002
2.3275	36.95984
2.328	35.44922
2.3285	35.95276
2.329	36.25488
2.3295	34.74426
2.33	32.7301
2.3305	17.92603
2.331	6.44531
2.3315	0.90637
2.332	2.81982
2.3325	-2.21558
2.333	-5.74036
2.3335	4.22974
2.334	-4.12903
2.3345	4.33044
2.335	21.04797
2.3355	30.91736
2.336	49.34692
2.3365	63.84888
2.337	58.41064
2.3375	47.8363
2.338	36.75842
2.3385	22.6593
2.339	4.22974
2.3395	-2.41699
2.34	-7.85522
2.3405	-10.17151
2.341	15.00549
2.3415	18.02673
2.342	28.9032
2.3425	24.47205
2.343	31.62231
2.3435	32.32727
2.344	24.67346
2.3445	13.99841
2.345	7.35168
2.3455	2.5177
2.346	5.53894
2.3465	-2.71912
2.347	1.91345
2.3475	7.15027
2.348	15.91187
2.3485	15.91187
2.349	11.58142
2.3495	-1.10779
2.35	-17.52319
2.3505	-18.32886
2.351	-20.44373
2.3515	-22.05505
2.352	-21.95435
2.3525	-27.49329
2.353	-26.58691
2.3535	-19.63806
2.354	-10.57434
2.3545	3.52478
2.355	28.60107
2.3555	49.24622
2.356	69.1864
2.3565	64.85596
2.357	46.62781
2.3575	32.52869
2.358	20.64514
2.3585	7.85522
2.359	-21.04797
2.3595	-50.45471
2.36	-76.94092
2.3605	-89.63013
2.361	-104.03137
2.3615	-114.60571
2.362	-110.77881
2.3625	-112.89368
2.363	-97.18323
2.3635	-68.58215
2.364	-39.27612
2.3645	-3.22266
2.365	30.91736
2.3655	39.98108
2.366	32.02515
2.3665	24.37134
2.367	33.73718
2.3675	34.64355
2.368	33.23364
2.3685	28.19824
2.369	27.6947
2.3695	26.98975
2.37	29.60815
2.3705	34.54285
2.371	32.52869
2.3715	29.50745
2.372	24.47205
2.3725	5.13611
2.373	-11.98425
2.3735	-19.83948
2.374	-23.36426
2.3745	-30.81665
2.375	-36.65771
2.3755	-33.13293
2.376	-26.88904
2.3765	-19.03381
2.377	-2.31628
2.3775	-6.44531
2.378	-1.3092
2.3785	-10.37292
2.379	-14.60266
2.3795	-13.49487
2.38	-18.12744
2.3805	-22.05505
2.381	-39.17542
2.3815	-37.36267
2.382	-32.62939
2.3825	-31.72302
2.383	-23.26355
2.3835	-8.35876
2.384	10.17151
2.3845	33.53577
2.385	40.58533
2.3855	51.15967
2.386	54.48303
2.3865	75.02747
2.387	82.9834
2.3875	77.64587
2.388	68.07861
2.3885	71.50269
2.389	70.09277
2.3895	58.41064
2.39	39.27612
2.3905	33.13293
2.391	27.79541
2.3915	29.10461
2.392	28.09753
2.3925	31.52161
2.393	37.7655
2.3935	33.73718
2.394	35.54993
2.3945	32.32727
2.395	36.85913
2.3955	36.4563
2.396	38.87329
2.3965	36.15417
2.397	36.4563
2.3975	38.16833
2.398	39.27612
2.3985	25.68054
2.399	12.68921
2.3995	11.38
2.4	3.52478
2.4005	0.10071
2.401	-5.63965
2.4015	-0.50354
2.402	-6.94885
2.4025	-8.66089
2.403	-17.52319
2.4035	-21.3501
2.404	-23.46497
2.4045	-33.53577
2.405	-39.77966
2.4055	-46.22498
2.406	-53.87878
2.4065	-56.5979
2.407	-48.33984
2.4075	-47.43347
2.408	-48.64197
2.4085	-38.16833
2.409	-36.4563
2.4095	-29.91028
2.41	-30.71594
2.4105	-21.55151
2.411	-11.07788
2.4115	-6.2439
2.412	-4.63257
2.4125	-4.73328
2.413	3.02124
2.4135	2.81982
2.414	12.48779
2.4145	9.86938
2.415	4.02832
2.4155	3.22266
2.416	5.13611
2.4165	-4.02832
2.417	-10.87646
2.4175	-7.5531
2.418	-3.32336
2.4185	-0.10071
2.419	9.56726
2.4195	9.26514
2.42	11.2793
2.4205	14.90479
2.421	14.50195
2.4215	8.7616
2.422	2.92053
2.4225	-3.32336
2.423	-0.60425
2.4235	0.70496
2.424	0.40283
2.4245	7.04956
2.425	-2.5177
2.4255	-6.04248
2.426	-1.3092
2.4265	-0.60425
2.427	-4.43115
2.4275	-9.66797
2.428	-12.08496
2.4285	-14.90479
2.429	-17.42249
2.4295	-19.53735
2.43	-14.09912
2.4305	-20.94727
2.431	-21.04797
2.4315	-16.41541
2.432	-13.59558
2.4325	-16.3147
2.433	-14.60266
2.4335	-15.1062
2.434	-17.92603
2.4345	-16.11328
2.435	-8.45947
2.4355	-8.8623
2.436	4.33044
2.4365	12.48779
2.437	14.80408
2.4375	20.54443
2.438	10.0708
2.4385	16.41541
2.439	18.22815
2.4395	15.81116
2.44	8.66089
2.4405	-4.93469
2.441	-4.93469
2.4415	-1.51062
2.442	-5.43823
2.4425	-0.80566
2.443	3.22266
2.4435	-8.15735
2.444	-8.7616
2.4445	-12.89062
2.445	-12.99133
2.4455	-19.13452
2.446	-14.70337
2.4465	-15.40833
2.447	-19.63806
2.4475	-8.8623
2.448	-0.60425
2.4485	10.17151
2.449	17.92603
2.4495	19.23523
2.45	19.83948
2.4505	18.02673
2.451	17.52319
2.4515	8.35876
2.452	5.23682
2.4525	6.44531
2.453	6.04248
2.4535	-0.40283
2.454	-2.41699
2.4545	-2.31628
2.455	-1.61133
2.4555	-1.00708
2.456	2.31628
2.4565	1.51062
2.457	0.90637
2.4575	1.51062
2.458	-3.52478
2.4585	-2.71912
2.459	-1.00708
2.4595	-3.12195
2.46	-5.74036
2.4605	-6.64673
2.461	-7.85522
2.4615	-5.43823
2.462	1.3092
2.4625	4.83398
2.463	1.71204
2.4635	1.10779
2.464	6.64673
2.4645	-1.3092
2.465	-4.93469
2.4655	4.63257
2.466	2.01416
2.4665	2.31628
2.467	12.89062
2.4675	6.44531
2.468	2.81982
2.4685	0.90637
2.469	4.63257
2.4695	3.7262
2.47	-2.92053
2.4705	-3.62549
2.471	-2.5177
2.4715	-6.04248
2.472	-6.3446
2.4725	-2.61841
2.473	-3.7262
2.4735	-0.80566
2.474	-6.64673
2.4745	-4.33044
2.475	-13.69629
2.4755	-2.21558
2.476	-1.61133
2.4765	-4.53186
2.477	-8.96301
2.4775	-7.35168
2.478	-5.74036
2.4785	-7.25098
2.479	-11.98425
2.4795	-13.29346
2.48	-8.96301
2.4805	-5.0354
2.481	-11.78284
2.4815	-8.05664
2.482	-5.33752
2.4825	-3.92761
2.483	-1.61133
2.4835	-2.5177
2.484	-1.81274
2.4845	3.42407
2.485	1.2085
2.4855	-3.62549
2.486	-6.94885
2.4865	-15.20691
2.487	-7.95593
2.4875	-3.12195
2.488	0.40283
2.4885	1.51062
2.489	-3.32336
2.4895	-2.71912
2.49	-5.74036
2.4905	-11.98425
2.491	-7.75452
2.4915	-1.3092
2.492	-0.50354
2.4925	6.74744
2.493	6.74744
2.4935	3.12195
2.494	-2.11487
2.4945	-4.33044
2.495	-1.71204
2.4955	-3.52478
2.496	-4.33044
2.4965	-1.40991
2.497	-2.11487
2.4975	-3.12195
2.498	-3.32336
2.4985	-5.0354
2.499	-4.93469
2.4995	-3.32336
2.5	-6.84814
2.5005	-4.73328
2.501	-0.10071
2.5015	-5.43823
2.502	-8.96301
2.5025	-7.65381
2.503	-3.32336
2.5035	-3.22266
2.504	-1.2085
2.5045	1.2085
2.505	0.50354
2.5055	-1.61133
2.506	0.30212
2.5065	0.10071
2.507	-1.3092
2.5075	-0.20142
2.508	-2.92053
2.5085	1.71204
2.509	-5.13611
2.5095	-1.2085
2.51	-3.32336
2.5105	1.3092
2.511	-0.60425
2.5115	3.62549
2.512	0.80566
2.5125	0.90637
2.513	-5.13611
2.5135	-2.81982
2.514	-2.5177
2.5145	0
2.515	-3.62549
2.5155	-7.5531
2.516	-5.53894
2.5165	-9.56726
2.517	-4.53186
2.5175	0.40283
2.518	-2.11487
2.5185	4.83398
2.519	0.10071
2.5195	1.61133
2.52	5.63965
2.5205	5.94177
2.521	2.71912
2.5215	-0.60425
2.522	-4.22974
2.5225	-6.74744
2.523	-7.25098
2.5235	-8.05664
2.524	-6.44531
2.5245	-3.62549
2.525	-1.2085
2.5255	1.51062
2.526	4.22974
2.5265	3.52478
2.527	-1.81274
2.5275	2.11487
2.528	-4.12903
2.5285	-2.61841
2.529	4.63257
2.5295	5.33752
2.53	14.30054
2.5305	17.82532
2.531	15.81116
2.5315	12.48779
2.532	9.86938
2.5325	6.64673
2.533	6.54602
2.5335	6.14319
2.534	2.92053
2.5345	2.5177
2.535	2.41699
2.5355	8.25806
2.536	2.61841
2.5365	3.7262
2.537	7.15027
2.5375	6.3446
2.538	3.92761
2.5385	6.14319
2.539	4.73328
2.5395	3.22266
2.54	6.3446
2.5405	9.16443
2.541	12.18567
2.5415	5.43823
2.542	5.0354
2.5425	0.50354
2.543	4.12903
2.5435	8.35876
2.544	9.46655
2.5445	10.47363
2.545	9.36584
2.5455	7.45239
2.546	8.35876
2.5465	9.97009
2.547	9.56726
2.5475	6.84814
2.548	-0.30212
2.5485	-3.92761
2.549	-1.40991
2.5495	-1.00708
2.55	6.84814
2.5505	4.33044
2.551	7.75452
2.5515	5.33752
2.552	2.5177
2.5525	4.73328
2.553	11.58142
2.5535	11.98425
2.554	12.38708
2.5545	6.94885
2.555	7.25098
2.5555	4.73328
2.556	5.43823
2.5565	10.97717
2.557	7.25098
2.5575	4.83398
2.558	-0.70496
2.5585	0.50354
2.559	2.21558
2.5595	5.23682
2.56	1.2085
2.5605	8.45947
2.561	5.84106
2.5615	2.81982
2.562	1.81274
2.5625	2.11487
2.563	5.94177
2.5635	7.35168
2.564	7.15027
2.5645	4.43115
2.565	0.70496
2.5655	7.85522
2.566	5.94177
2.5665	3.12195
2.567	0.20142
2.5675	4.93469
2.568	3.22266
2.5685	3.32336
2.569	5.53894
2.5695	7.65381
2.57	5.53894
2.5705	0.80566
2.571	-0.90637
2.5715	2.21558
2.572	5.23682
2.5725	-2.11487
2.573	5.23682
2.5735	1.00708
2.574	3.7262
2.5745	0.30212
2.575	2.41699
2.5755	3.12195
2.576	2.71912
2.5765	-1.91345
2.577	0.90637
2.5775	2.11487
2.578	5.74036
2.5785	6.64673
2.579	0.30212
2.5795	2.81982
2.58	1.91345
2.5805	-0.80566
2.581	3.92761
2.5815	1.3092
2.582	-0.70496
2.5825	4.22974
2.583	3.8269
2.5835	3.62549
2.584	7.85522
2.5845	9.97009
2.585	7.85522
2.5855	2.01416
2.586	1.10779
2.5865	4.53186
2.587	2.71912
2.5875	6.74744
2.588	2.71912
2.5885	10.67505
2.589	4.43115
2.5895	5.23682
2.59	1.51062
2.5905	4.02832
2.591	4.02832
2.5915	2.01416
2.592	1.71204
2.5925	0.40283
2.593	4.43115
2.5935	7.95593
2.594	4.63257
2.5945	4.33044
2.595	4.43115
2.5955	0.80566
2.596	-3.92761
2.5965	-0.30212
2.597	-1.00708
2.5975	-6.14319
2.598	-8.7616
2.5985	-0.50354
2.599	-0.90637
2.5995	-1.91345
2.6	1.3092
2.6005	-0.90637
2.601	-4.73328
2.6015	-0.30212
2.602	-2.5177
2.6025	-1.40991
2.603	5.74036
2.6035	10.17151
2.604	6.84814
2.6045	4.93469
2.605	4.12903
2.6055	0.90637
2.606	-2.71912
2.6065	2.92053
2.607	-2.21558
2.6075	-5.84106
2.608	-6.44531
2.6085	-6.3446
2.609	-7.75452
2.6095	-10.17151
2.61	-2.71912
2.6105	-3.62549
2.611	-9.66797
2.6115	-10.0708
2.612	-5.53894
2.6125	3.02124
2.613	2.92053
2.6135	0.70496
2.614	3.92761
2.6145	-0.30212
2.615	0.30212
2.6155	5.53894
2.616	4.33044
2.6165	7.85522
2.617	8.45947
2.6175	-1.10779
2.618	-0.40283
2.6185	3.22266
2.619	3.32336
2.6195	2.5177
2.62	1.3092
2.6205	-0.90637
2.621	0.50354
2.6215	2.31628
2.622	-3.52478
2.6225	-6.14319
2.623	-8.15735
2.6235	-5.84106
2.624	-4.83398
2.6245	-1.81274
2.625	0.10071
2.6255	0.10071
2.626	-3.42407
2.6265	-0.30212
2.627	-4.22974
2.6275	0.50354
2.628	-0.60425
2.6285	-2.92053
2.629	-7.15027
2.6295	-6.94885
2.63	-2.92053
2.6305	-0.10071
2.631	0.40283
2.6315	2.71912
2.632	1.40991
2.6325	5.43823
2.633	2.81982
2.6335	2.21558
2.634	3.92761
2.6345	-4.12903
2.635	-4.93469
2.6355	-6.74744
2.636	-4.83398
2.6365	-0.80566
2.637	0.30212
2.6375	0.20142
2.638	-1.61133
2.6385	0.10071
2.639	1.10779
2.6395	1.61133
2.64	0.40283
2.6405	0.30212
2.641	1.91345
2.6415	1.2085
2.642	3.12195
2.6425	5.13611
2.643	5.63965
2.6435	8.66089
2.644	1.61133
2.6445	-1.81274
2.645	-1.71204
2.6455	4.53186
2.646	0.70496
2.6465	-3.12195
2.647	-1.3092
2.6475	4.63257
2.648	4.22974
2.6485	3.32336
2.649	3.12195
2.6495	3.42407
2.65	0.20142
2.6505	-2.5177
2.651	-2.01416
2.6515	-0.40283
2.652	-0.10071
2.6525	-0.50354
2.653	-1.91345
2.6535	-6.14319
2.654	0.10071
2.6545	-2.71912
2.655	-1.00708
2.6555	-1.71204
2.656	3.52478
2.6565	-3.62549
2.657	-0.90637
2.6575	-4.22974
2.658	-1.61133
2.6585	-4.02832
2.659	-3.7262
2.6595	6.14319
2.66	7.45239
2.6605	1.71204
2.661	-0.90637
2.6615	-1.91345
2.662	0.90637
2.6625	0.50354
2.663	4.43115
2.6635	7.04956
2.664	3.32336
2.6645	2.01416
2.665	-3.12195
2.6655	3.92761
2.666	1.00708
2.6665	1.00708
2.667	-1.2085
2.6675	0
2.668	-1.71204
2.6685	-4.83398
2.669	-2.5177
2.6695	-1.51062
2.67	3.12195
2.6705	3.22266
2.671	4.02832
2.6715	-2.81982
2.672	-1.61133
2.6725	0.20142
2.673	1.40991
2.6735	-2.11487
2.674	-3.52478
2.6745	2.5177
2.675	1.81274
2.6755	-2.41699
2.676	-0.40283
2.6765	2.31628
2.677	3.62549
2.6775	-2.71912
2.678	1.00708
2.6785	-5.53894
2.679	-4.12903
2.6795	-3.62549
2.68	-4.33044
2.6805	-4.93469
2.681	-2.21558
2.6815	-0.30212
2.682	0.10071
2.6825	-0.40283
2.683	2.21558
2.6835	7.95593
2.684	1.91345
2.6845	6.44531
2.685	2.71912
2.6855	3.32336
2.686	-2.21558
2.6865	0
2.687	-4.33044
2.6875	-0.60425
2.688	2.41699
2.6885	-1.40991
2.689	4.02832
2.6895	2.21558
2.69	6.14319
2.6905	-1.3092
2.691	1.51062
2.6915	-2.31628
2.692	-5.33752
2.6925	-4.22974
2.693	-9.06372
2.6935	-2.11487
2.694	-12.48779
2.6945	-7.5531
2.695	-7.5531
2.6955	-5.53894
2.696	-2.5177
2.6965	-3.12195
2.697	-1.91345
2.6975	0.50354
2.698	1.40991
2.6985	2.71912
2.699	-0.20142
2.6995	0.70496
2.7	2.81982
2.7005	0.40283
2.701	-0.80566
2.7015	-7.45239
2.702	-6.64673
2.7025	-5.33752
2.703	-5.74036
2.7035	-3.22266
2.704	-5.23682
2.7045	-6.3446
2.705	4.73328
2.7055	3.12195
2.706	5.13611
2.7065	0.40283
2.707	1.00708
2.7075	-2.11487
2.708	-1.40991
2.7085	4.12903
2.709	-3.8269
2.7095	-1.91345
2.71	-3.7262
2.7105	-4.02832
2.711	-6.14319
2.7115	-4.22974
2.712	-2.11487
2.7125	-0.40283
2.713	-3.52478
2.7135	-5.74036
2.714	-4.73328
2.7145	-6.14319
2.715	-4.63257
2.7155	-1.61133
2.716	-5.84106
2.7165	-6.14319
2.717	-2.61841
2.7175	-9.06372
2.718	-2.5177
2.7185	0.20142
2.719	-1.91345
2.7195	-5.43823
2.72	-6.04248
2.7205	-2.81982
2.721	3.92761
2.7215	1.00708
2.722	-0.30212
2.7225	-1.81274
2.723	-0.40283
2.7235	-2.31628
2.724	-3.12195
2.7245	-2.21558
2.725	-0.20142
2.7255	-6.14319
2.726	-4.53186
2.7265	-6.54602
2.727	-2.31628
2.7275	-1.10779
2.728	-3.7262
2.7285	-2.11487
2.729	-3.02124
2.7295	-3.32336
2.73	-4.73328
2.7305	-6.04248
2.731	-1.40991
2.7315	-1.2085
2.732	-1.81274
2.7325	-2.31628
2.733	-5.0354
2.7335	-4.12903
2.734	-1.91345
2.7345	-0.60425
2.735	-3.92761
2.7355	-2.21558
2.736	-3.92761
2.7365	-8.05664
2.737	-7.95593
2.7375	-4.63257
2.738	-3.12195
2.7385	-9.86938
2.739	-5.94177
2.7395	-3.8269
2.74	-8.66089
2.7405	-4.93469
2.741	-1.51062
2.7415	-3.62549
2.742	1.51062
2.7425	-0.50354
2.743	-5.43823
2.7435	-2.31628
2.744	2.92053
2.7445	-3.42407
2.745	-1.40991
2.7455	-6.04248
2.746	-4.33044
2.7465	-4.02832
2.747	-2.01416
2.7475	-2.5177
2.748	2.31628
2.7485	1.91345
2.749	-1.3092
2.7495	0.30212
2.75	0.20142
2.7505	8.25806
2.751	8.45947
2.7515	12.78992
2.752	13.19275
2.7525	9.36584
2.753	6.64673
2.7535	12.08496
2.754	9.36584
2.7545	8.66089
2.755	3.7262
2.7555	2.92053
2.756	4.63257
2.7565	5.23682
2.757	10.57434
2.7575	13.59558
2.758	12.38708
2.7585	8.05664
2.759	11.88354
2.7595	8.7616
2.76	9.26514
2.7605	12.08496
2.761	10.47363
2.7615	10.47363
2.762	6.64673
2.7625	13.59558
2.763	5.43823
2.7635	7.85522
2.764	12.68921
2.7645	9.86938
2.765	10.27222
2.7655	9.56726
2.766	13.797
2.7665	7.15027
2.767	9.26514
2.7675	10.27222
2.768	7.45239
2.7685	8.8623
2.769	7.85522
2.7695	1.2085
2.77	2.21558
2.7705	6.94885
2.771	14.30054
2.7715	18.22815
2.772	18.32886
2.7725	17.32178
2.773	14.90479
2.7735	17.32178
2.774	13.59558
2.7745	8.7616
2.775	8.96301
2.7755	10.47363
2.776	12.48779
2.7765	8.56018
2.777	9.46655
2.7775	15.1062
2.778	15.1062
2.7785	13.797
2.779	14.70337
2.7795	7.25098
2.78	11.58142
2.7805	10.67505
2.781	9.26514
2.7815	4.83398
2.782	10.27222
2.7825	1.81274
2.783	7.75452
2.7835	3.02124
2.784	8.25806
2.7845	5.23682
2.785	7.04956
2.7855	6.2439
2.786	12.38708
2.7865	11.17859
2.787	6.84814
2.7875	10.77576
2.788	10.27222
2.7885	9.86938
2.789	5.0354
2.7895	6.54602
2.79	6.54602
2.7905	10.0708
2.791	9.66797
2.7915	9.26514
2.792	10.17151
2.7925	12.08496
2.793	8.35876
2.7935	11.78284
2.794	8.45947
2.7945	12.18567
2.795	13.19275
2.7955	16.61682
2.796	11.88354
2.7965	5.84106
2.797	7.04956
2.7975	9.97009
2.798	6.2439
2.7985	6.84814
2.799	10.37292
2.7995	9.76868
2.8	6.14319
2.8005	8.8623
2.801	2.01416
2.8015	11.07788
2.802	13.09204
2.8025	13.797
2.803	6.74744
2.8035	5.63965
2.804	4.22974
2.8045	10.87646
2.805	11.98425
2.8055	7.95593
2.806	8.15735
2.8065	8.45947
2.807	5.0354
2.8075	5.74036
2.808	6.94885
2.8085	10.47363
2.809	9.46655
2.8095	12.68921
2.81	9.97009
2.8105	5.74036
2.811	9.86938
2.8115	9.66797
2.812	13.99841
2.8125	6.44531
2.813	7.45239
2.8135	1.51062
2.814	6.2439
2.8145	12.68921
2.815	10.97717
2.8155	12.18567
2.816	13.69629
2.8165	4.12903
2.817	9.06372
2.8175	8.8623
2.818	8.45947
2.8185	10.97717
2.819	10.0708
2.8195	13.19275
2.82	10.0708
2.8205	9.66797
2.821	8.45947
2.8215	10.57434
2.822	9.86938
2.8225	12.28638
2.823	7.5531
2.8235	9.86938
2.824	11.68213
2.8245	14.09912
2.825	13.09204
2.8255	8.15735
2.826	7.65381
2.8265	13.99841
2.827	11.48071
2.8275	12.38708
2.828	12.78992
2.8285	10.97717
2.829	6.2439
2.8295	4.53186
2.83	3.42407
2.8305	5.94177
2.831	10.37292
2.8315	6.94885
2.832	15.71045
2.8325	9.76868
2.833	9.26514
2.8335	14.19983
2.834	12.28638
2.8345	13.69629
2.835	11.98425
2.8355	12.48779
2.836	18.02673
2.8365	11.2793
2.837	16.71753
2.8375	14.70337
2.838	17.72461
2.8385	19.43665
2.839	14.09912
2.8395	12.28638
2.84	13.69629
2.8405	9.36584
2.841	13.99841
2.8415	16.3147
2.842	14.19983
2.8425	15.1062
2.843	15.1062
2.8435	13.19275
2.844	8.25806
2.8445	10.97717
2.845	11.2793
2.8455	13.09204
2.846	17.52319
2.8465	11.98425
2.847	10.47363
2.8475	11.58142
2.848	12.68921
2.8485	17.12036
2.849	14.09912
2.8495	10.67505
2.85	11.98425
2.8505	10.97717
2.851	7.75452
2.8515	8.25806
2.852	9.56726
2.8525	14.50195
2.853	19.33594
2.8535	11.88354
2.854	17.01965
2.8545	12.48779
2.855	15.40833
2.8555	14.90479
2.856	16.01257
2.8565	12.99133
2.857	13.39417
2.8575	13.29346
2.858	14.40125
2.8585	14.70337
2.859	15.20691
2.8595	16.11328
2.86	8.8623
2.8605	16.3147
2.861	10.37292
2.8615	12.78992
2.862	21.55151
2.8625	12.5885
2.863	15.91187
2.8635	11.88354
2.864	13.99841
2.8645	12.08496
2.865	9.76868
2.8655	13.09204
2.866	12.5885
2.8665	12.5885
2.867	11.17859
2.8675	13.59558
2.868	11.38
2.8685	15.91187
2.869	17.92603
2.8695	14.90479
2.87	10.37292
2.8705	12.68921
2.871	14.09912
2.8715	12.89062
2.872	11.07788
2.8725	13.59558
2.873	14.70337
2.8735	13.99841
2.874	16.41541
2.8745	13.09204
2.875	7.35168
2.8755	10.37292
2.876	14.60266
2.8765	13.69629
2.877	10.97717
2.8775	10.57434
2.878	8.96301
2.8785	7.25098
2.879	11.48071
2.8795	12.28638
2.88	12.78992
2.8805	11.88354
2.881	8.05664
2.8815	6.44531
2.882	8.8623
2.8825	11.07788
2.883	13.99841
2.8835	11.07788
2.884	9.46655
2.8845	3.62549
2.885	7.25098
2.8855	10.57434
2.886	13.99841
2.8865	10.47363
2.887	11.2793
2.8875	6.94885
2.888	14.60266
2.8885	14.09912
2.889	15.71045
2.8895	13.49487
2.89	7.25098
2.8905	9.86938
2.891	8.05664
2.8915	3.32336
2.892	4.83398
2.8925	6.2439
2.893	11.88354
2.8935	11.38
2.894	12.99133
2.8945	11.48071
2.895	16.21399
2.8955	17.72461
2.896	19.43665
2.8965	18.02673
2.897	11.58142
2.8975	11.58142
2.898	10.0708
2.8985	12.18567
2.899	14.80408
2.8995	6.74744
2.9	8.66089
2.9005	10.47363
2.901	10.47363
2.9015	12.38708
2.902	14.30054
2.9025	13.49487
2.903	8.8623
2.9035	12.78992
2.904	12.5885
2.9045	13.19275
2.905	12.18567
2.9055	7.25098
2.906	13.49487
2.9065	12.38708
2.907	6.14319
2.9075	12.08496
2.908	14.30054
2.9085	11.38
2.909	12.89062
2.9095	12.18567
2.91	13.49487
2.9105	4.63257
2.911	6.44531
2.9115	9.36584
2.912	12.28638
2.9125	12.48779
2.913	14.70337
2.9135	10.87646
2.914	21.14868
2.9145	15.60974
2.915	11.68213
2.9155	14.50195
2.916	8.96301
2.9165	11.38
2.917	13.797
2.9175	9.86938
2.918	9.86938
2.9185	11.17859
2.919	11.07788
2.9195	11.68213
2.92	14.09912
2.9205	9.76868
2.921	4.33044
2.9215	10.37292
2.922	13.69629
2.9225	11.38
2.923	9.26514
2.9235	10.57434
2.924	12.48779
2.9245	10.27222
2.925	14.30054
2.9255	8.66089
2.926	9.06372
2.9265	8.35876
2.927	10.67505
2.9275	10.27222
2.928	8.15735
2.9285	9.46655
2.929	10.87646
2.9295	7.45239
2.93	8.96301
2.9305	10.27222
2.931	3.92761
2.9315	7.85522
2.932	6.2439
2.9325	12.99133
2.933	8.8623
2.9335	13.09204
2.934	15.40833
2.9345	5.63965
2.935	8.56018
2.9355	10.0708
2.936	12.99133
2.9365	12.5885
2.937	4.83398
2.9375	7.75452
2.938	15.81116
2.9385	7.85522
2.939	12.08496
2.9395	11.48071
2.94	8.15735
2.9405	4.53186
2.941	7.95593
2.9415	9.36584
2.942	6.74744
2.9425	10.47363
2.943	14.40125
2.9435	8.8623
2.944	7.04956
2.9445	13.797
2.945	11.48071
2.9455	11.58142
2.946	11.48071
2.9465	13.69629
2.947	8.45947
2.9475	10.0708
2.948	5.94177
2.9485	7.45239
2.949	7.65381
2.9495	7.75452
2.95	1.61133
2.9505	6.94885
2.951	9.26514
2.9515	11.2793
2.952	9.16443
2.9525	11.78284
2.953	11.38
2.9535	5.94177
2.954	10.57434
2.9545	9.46655
2.955	7.75452
2.9555	12.78992
2.956	13.69629
2.9565	10.77576
2.957	12.99133
2.9575	6.84814
2.958	6.74744
2.9585	4.33044
2.959	8.05664
2.9595	8.7616
2.96	10.47363
2.9605	0.70496
2.961	-1.51062
2.9615	7.85522
2.962	6.04248
2.9625	2.11487
2.963	10.77576
2.9635	7.95593
2.964	8.96301
2.9645	6.2439
2.965	4.43115
2.9655	8.05664
2.966	8.96301
2.9665	2.21558
2.967	1.10779
2.9675	1.81274
2.968	3.52478
2.9685	7.45239
2.969	9.76868
2.9695	12.89062
2.97	9.86938
2.9705	6.2439
2.971	10.87646
2.9715	7.5531
2.972	5.0354
2.9725	6.64673
2.973	6.84814
2.9735	5.63965
2.974	4.83398
2.9745	4.12903
2.975	2.21558
2.9755	5.63965
2.976	8.05664
2.9765	10.97717
2.977	6.74744
2.9775	4.02832
2.978	1.81274
2.9785	3.12195
2.979	6.74744
2.9795	4.73328
2.98	2.92053
2.9805	7.04956
2.981	3.22266
2.9815	-2.61841
2.982	1.40991
2.9825	5.23682
2.983	2.5177
2.9835	5.33752
2.984	5.63965
2.9845	1.81274
2.985	3.8269
2.9855	4.33044
2.986	-0.60425
2.9865	4.73328
2.987	9.46655
2.9875	10.17151
2.988	9.86938
2.9885	14.19983
2.989	18.73169
2.9895	21.3501
2.99	14.70337
2.9905	10.87646
2.991	10.17151
2.9915	8.35876
2.992	10.77576
2.9925	12.5885
2.993	10.57434
2.9935	8.45947
2.994	7.35168
2.9945	5.13611
2.995	5.53894
2.9955	8.15735
2.996	10.97717
2.9965	6.84814
2.997	5.84106
2.9975	6.2439
2.998	8.25806
2.9985	3.62549
2.999	8.05664
2.9995	4.02832
3	3.62549
3.0005	1.3092
3.001	-1.81274
3.0015	4.53186
3.002	8.05664
3.0025	5.23682
3.003	7.45239
3.0035	8.96301
3.004	5.63965
3.0045	7.45239
3.005	3.8269
3.0055	7.45239
3.006	9.26514
3.0065	8.66089
3.007	4.33044
3.0075	6.3446
3.008	5.43823
3.0085	11.98425
3.009	5.43823
3.0095	11.58142
3.01	5.84106
3.0105	10.17151
3.011	11.78284
3.0115	15.00549
3.012	11.38
3.0125	14.19983
3.013	11.17859
3.0135	13.99841
3.014	12.78992
3.0145	8.15735
3.015	9.97009
3.0155	13.89771
3.016	16.71753
3.0165	10.27222
3.017	12.48779
3.0175	10.87646
3.018	12.5885
3.0185	12.08496
3.019	13.797
3.0195	8.15735
3.02	9.66797
3.0205	4.93469
3.021	8.15735
3.0215	8.7616
3.022	11.68213
3.0225	8.45947
3.023	11.07788
3.0235	12.28638
3.024	15.60974
3.0245	10.77576
3.025	15.20691
3.0255	11.68213
3.026	9.46655
3.0265	8.96301
3.027	2.71912
3.0275	10.57434
3.028	6.94885
3.0285	10.0708
3.029	8.56018
3.0295	7.25098
3.03	4.22974
3.0305	1.71204
3.031	6.84814
3.0315	9.16443
3.032	10.37292
3.0325	10.0708
3.033	8.66089
3.0335	10.37292
3.034	7.5531
3.0345	11.78284
3.035	12.99133
3.0355	9.26514
3.036	5.63965
3.0365	7.35168
3.037	3.32336
3.0375	1.00708
3.038	5.63965
3.0385	5.0354
3.039	4.02832
3.0395	4.93469
3.04	3.52478
3.0405	0.90637
3.041	6.44531
3.0415	9.46655
3.042	5.33752
3.0425	4.33044
3.043	9.06372
3.0435	6.04248
3.044	12.28638
3.0445	3.12195
3.045	5.23682
3.0455	6.2439
3.046	4.12903
3.0465	6.94885
3.047	-1.40991
3.0475	4.12903
3.048	8.96301
3.0485	11.68213
3.049	10.17151
3.0495	5.33752
3.05	9.76868
3.0505	3.52478
3.051	3.22266
3.0515	7.35168
3.052	3.22266
3.0525	5.63965
3.053	7.5531
3.0535	6.74744
3.054	11.78284
3.0545	10.0708
3.055	9.76868
3.0555	6.04248
3.056	2.01416
3.0565	4.73328
3.057	5.23682
3.0575	4.02832
3.058	9.76868
3.0585	6.84814
3.059	0.10071
3.0595	6.44531
3.06	6.74744
3.0605	9.26514
3.061	8.05664
3.0615	5.13611
3.062	6.3446
3.0625	9.36584
3.063	10.17151
3.0635	3.62549
3.064	7.35168
3.0645	6.84814
3.065	6.3446
3.0655	6.74744
3.066	7.15027
3.0665	14.70337
3.067	12.68921
3.0675	17.52319
3.068	12.5885
3.0685	14.80408
3.069	11.88354
3.0695	6.94885
3.07	10.17151
3.0705	6.64673
3.071	10.27222
3.0715	9.56726
3.072	12.38708
3.0725	18.63098
3.073	6.84814
3.0735	5.84106
3.074	9.26514
3.0745	8.35876
3.075	16.51611
3.0755	7.85522
3.076	9.16443
3.0765	8.8623
3.077	9.56726
3.0775	15.60974
3.078	16.01257
3.0785	12.48779
3.079	17.22107
3.0795	13.797
3.08	10.27222
3.0805	8.25806
3.081	12.78992
3.0815	11.48071
3.082	10.57434
3.0825	7.95593
3.083	9.56726
3.0835	12.28638
3.084	6.2439
3.0845	8.8623
3.085	5.23682
3.0855	8.15735
3.086	8.15735
3.0865	8.35876
3.087	7.15027
3.0875	11.68213
3.088	5.94177
3.0885	12.08496
3.089	5.43823
3.0895	2.61841
3.09	3.8269
3.0905	4.73328
3.091	7.04956
3.0915	9.46655
3.092	6.84814
3.0925	6.2439
3.093	3.12195
3.0935	2.11487
3.094	5.23682
3.0945	7.04956
3.095	6.2439
3.0955	7.85522
3.096	6.94885
3.0965	8.05664
3.097	5.43823
3.0975	8.05664
3.098	11.48071
3.0985	9.46655
3.099	7.5531
3.0995	9.36584
3.1	-3.02124
3.1005	2.11487
3.101	7.65381
3.1015	9.76868
3.102	6.54602
3.1025	5.74036
3.103	6.84814
3.1035	10.87646
3.104	12.99133
3.1045	12.48779
3.105	9.16443
3.1055	12.48779
3.106	9.56726
3.1065	7.25098
3.107	3.62549
3.1075	8.05664
3.108	9.76868
3.1085	5.94177
3.109	4.33044
3.1095	6.3446
3.11	4.73328
3.1105	4.43115
3.111	-0.30212
3.1115	3.8269
3.112	7.45239
3.1125	7.15027
3.113	12.38708
3.1135	5.43823
3.114	3.52478
3.1145	3.02124
3.115	5.53894
3.1155	10.17151
3.116	4.93469
3.1165	2.92053
3.117	1.71204
3.1175	5.94177
3.118	2.31628
3.1185	9.86938
3.119	6.84814
3.1195	8.96301
3.12	10.17151
3.1205	0.90637
3.121	3.12195
3.1215	1.91345
3.122	2.92053
3.1225	3.12195
3.123	2.01416
3.1235	-1.51062
3.124	3.7262
3.1245	2.11487
3.125	7.04956
3.1255	6.54602
3.126	2.61841
3.1265	6.54602
3.127	3.02124
3.1275	5.33752
3.128	13.59558
3.1285	9.66797
3.129	6.14319
3.1295	4.73328
3.13	0.70496
3.1305	6.2439
3.131	7.15027
3.1315	2.81982
3.132	5.43823
3.1325	7.04956
3.133	8.45947
3.1335	5.53894
3.134	7.25098
3.1345	3.8269
3.135	9.46655
3.1355	5.0354
3.136	10.0708
3.1365	10.17151
3.137	2.92053
3.1375	4.02832
3.138	5.63965
3.1385	0
3.139	2.5177
3.1395	4.12903
3.14	2.01416
3.1405	6.94885
3.141	8.35876
3.1415	6.44531
3.142	8.45947
3.1425	8.05664
3.143	8.56018
3.1435	8.15735
3.144	5.94177
3.1445	6.54602
3.145	3.8269
3.1455	-0.50354
3.146	2.21558
3.1465	1.61133
3.147	3.92761
3.1475	1.51062
3.148	3.62549
3.1485	7.04956
3.149	8.35876
3.1495	2.71912
3.15	0.50354
3.1505	-0.80566
3.151	6.3446
3.1515	6.94885
3.152	7.04956
3.1525	5.13611
3.153	8.96301
3.1535	7.85522
3.154	8.96301
3.1545	9.16443
3.155	8.35876
3.1555	12.5885
3.156	6.94885
3.1565	1.91345
3.157	12.48779
3.1575	8.05664
3.158	3.92761
3.1585	5.0354
3.159	5.0354
3.1595	1.10779
3.16	9.26514
3.1605	7.35168
3.161	5.53894
3.1615	5.0354
3.162	8.66089
3.1625	6.54602
3.163	4.73328
3.1635	9.66797
3.164	5.33752
3.1645	-2.21558
3.165	3.62549
3.1655	-0.80566
3.166	2.92053
3.1665	4.02832
3.167	6.3446
3.1675	5.0354
3.168	9.16443
3.1685	5.63965
3.169	8.66089
3.1695	6.84814
3.17	7.95593
3.1705	3.02124
3.171	9.56726
3.1715	8.96301
3.172	10.27222
3.1725	8.66089
3.173	5.53894
3.1735	4.53186
3.174	9.46655
3.1745	2.31628
3.175	2.5177
3.1755	3.22266
3.176	8.05664
3.1765	3.92761
3.177	0
3.1775	2.71912
3.178	2.5177
3.1785	4.33044
3.179	6.14319
3.1795	3.12195
3.18	4.02832
3.1805	2.71912
3.181	1.3092
3.1815	2.92053
3.182	3.7262
3.1825	2.92053
3.183	3.52478
3.1835	7.65381
3.184	6.74744
3.1845	1.3092
3.185	5.63965
3.1855	3.52478
3.186	-0.30212
3.1865	3.7262
3.187	3.32336
3.1875	-2.61841
3.188	0.60425
3.1885	0
3.189	6.14319
3.1895	6.3446
3.19	6.14319
3.1905	2.01416
3.191	3.02124
3.1915	7.5531
3.192	1.61133
3.1925	4.83398
3.193	5.13611
3.1935	3.7262
3.194	-1.2085
3.1945	-3.02124
3.195	3.12195
3.1955	5.53894
3.196	5.94177
3.1965	4.53186
3.197	5.33752
3.1975	5.53894
3.198	8.25806
3.1985	4.12903
3.199	0.50354
3.1995	1.71204
3.2	2.11487
3.2005	-0.40283
3.201	5.63965
3.2015	3.52478
3.202	8.35876
3.2025	7.15027
3.203	12.18567
3.2035	10.17151
3.204	9.76868
3.2045	4.93469
3.205	2.71912
3.2055	2.01416
3.206	-0.80566
3.2065	0.20142
3.207	3.22266
3.2075	1.3092
3.208	-3.92761
3.2085	4.02832
3.209	7.85522
3.2095	10.57434
3.21	6.74744
3.2105	0.10071
3.211	0.80566
3.2115	-3.8269
3.212	-6.84814
3.2125	2.92053
3.213	2.71912
3.2135	6.14319
3.214	4.02832
3.2145	6.14319
3.215	4.53186
3.2155	4.53186
3.216	6.74744
3.2165	2.71912
3.217	3.8269
3.2175	3.52478
3.218	6.84814
3.2185	7.5531
3.219	4.83398
3.2195	5.94177
3.22	7.45239
3.2205	3.7262
3.221	6.2439
3.2215	4.02832
3.222	5.94177
3.2225	-3.52478
3.223	6.44531
3.2235	4.33044
3.224	6.54602
3.2245	6.64673
3.225	9.36584
3.2255	6.14319
3.226	4.73328
3.2265	9.16443
3.227	6.74744
3.2275	0
3.228	5.23682
3.2285	3.42407
3.229	4.53186
3.2295	5.63965
3.23	2.61841
3.2305	5.33752
3.231	1.61133
3.2315	0.50354
3.232	-0.30212
3.2325	2.92053
3.233	-4.73328
3.2335	0.80566
3.234	0
3.2345	-0.10071
3.235	0.30212
3.2355	4.22974
3.236	5.43823
3.2365	4.73328
3.237	8.05664
3.2375	1.3092
3.238	5.63965
3.2385	5.23682
3.239	3.12195
3.2395	5.33752
3.24	2.41699
3.2405	2.41699
3.241	10.27222
3.2415	6.44531
3.242	4.22974
3.2425	7.15027
3.243	5.74036
3.2435	4.02832
3.244	4.43115
3.2445	6.04248
3.245	8.15735
3.2455	4.63257
3.246	9.26514
3.2465	4.83398
3.247	8.7616
3.2475	10.37292
3.248	6.84814
3.2485	7.45239
3.249	7.15027
3.2495	9.56726
3.25	15.00549
3.2505	5.43823
3.251	4.22974
3.2515	0.10071
3.252	5.43823
3.2525	0.90637
3.253	4.53186
3.2535	3.92761
3.254	3.8269
3.2545	5.13611
3.255	4.02832
3.2555	0.10071
3.256	1.00708
3.2565	4.53186
3.257	-0.40283
3.2575	-0.90637
3.258	0.80566
3.2585	0
3.259	5.53894
3.2595	1.2085
3.26	4.83398
3.2605	4.83398
3.261	2.11487
3.2615	7.5531
3.262	7.5531
3.2625	9.97009
3.263	5.13611
3.2635	6.04248
3.264	7.5531
3.2645	5.23682
3.265	3.52478
3.2655	3.8269
3.266	5.43823
3.2665	4.43115
3.267	6.44531
3.2675	3.8269
3.268	5.33752
3.2685	4.73328
3.269	0.30212
3.2695	3.22266
3.27	-0.40283
3.2705	4.53186
3.271	1.3092
3.2715	0.20142
3.272	5.63965
3.2725	2.41699
3.273	-0.30212
3.2735	-0.30212
3.274	-1.91345
3.2745	0.10071
3.275	1.91345
3.2755	1.00708
3.276	0.90637
3.2765	-2.92053
3.277	-2.41699
3.2775	1.3092
3.278	-2.11487
3.2785	-8.25806
3.279	2.61841
3.2795	1.10779
3.28	0
3.2805	-0.20142
3.281	3.02124
3.2815	3.62549
3.282	4.63257
3.2825	4.33044
3.283	5.33752
3.2835	2.92053
3.284	-0.10071
3.2845	3.42407
3.285	4.22974
3.2855	1.61133
3.286	0
3.2865	-4.93469
3.287	-0.50354
3.2875	2.92053
3.288	1.51062
3.2885	5.13611
3.289	1.51062
3.2895	-3.32336
3.29	-1.40991
3.2905	4.12903
3.291	3.42407
3.2915	-0.50354
3.292	2.81982
3.2925	-8.35876
3.293	-1.2085
3.2935	-6.14319
3.294	0.60425
3.2945	-1.10779
3.295	2.41699
3.2955	5.94177
3.296	5.23682
3.2965	7.25098
3.297	6.64673
3.2975	6.54602
3.298	5.23682
3.2985	3.62549
3.299	-0.30212
3.2995	1.10779
3.3	1.2085
3.3005	-2.21558
3.301	2.61841
3.3015	5.13611
3.302	3.7262
3.3025	3.92761
3.303	3.02124
3.3035	-2.81982
3.304	-2.41699
3.3045	-0.10071
3.305	2.21558
3.3055	1.10779
3.306	0.20142
3.3065	-4.53186
3.307	1.71204
3.3075	5.94177
3.308	5.53894
3.3085	3.8269
3.309	11.58142
3.3095	7.35168
3.31	6.3446
3.3105	5.13611
3.311	6.54602
3.3115	7.15027
3.312	-1.51062
3.3125	5.23682
3.313	1.3092
3.3135	5.63965
3.314	5.23682
3.3145	3.62549
3.315	-0.80566
3.3155	-0.20142
3.316	-3.32336
3.3165	-4.63257
3.317	-3.02124
3.3175	1.51062
3.318	1.71204
3.3185	6.44531
3.319	2.71912
3.3195	4.02832
3.32	2.92053
3.3205	4.63257
3.321	4.53186
3.3215	-1.40991
3.322	6.64673
3.3225	5.13611
3.323	6.14319
3.3235	7.5531
3.324	1.61133
3.3245	2.21558
3.325	1.61133
3.3255	-0.40283
3.326	-0.10071
3.3265	3.62549
3.327	1.40991
3.3275	3.22266
3.328	1.40991
3.3285	4.43115
3.329	1.3092
3.3295	0.70496
3.33	1.10779
3.3305	-2.92053
3.331	4.53186
3.3315	2.41699
3.332	0.20142
3.3325	3.22266
3.333	2.5177
3.3335	7.75452
3.334	8.8623
3.3345	5.74036
3.335	3.92761
3.3355	6.94885
3.336	6.14319
3.3365	2.61841
3.337	5.53894
3.3375	6.54602
3.338	9.26514
3.3385	4.73328
3.339	-1.61133
3.3395	8.15735
3.34	4.02832
3.3405	5.53894
3.341	2.31628
3.3415	2.21558
3.342	-0.20142
3.3425	-3.52478
3.343	-2.21558
3.3435	3.92761
3.344	3.02124
3.3445	1.00708
3.345	-2.21558
3.3455	-1.00708
3.346	-0.80566
3.3465	3.22266
3.347	-0.10071
3.3475	3.92761
3.348	4.83398
3.3485	-0.80566
3.349	0.40283
3.3495	-0.30212
3.35	-3.8269
3.3505	-1.91345
3.351	-0.10071
3.3515	-2.5177
3.352	0.10071
3.3525	-2.11487
3.353	4.02832
3.3535	6.84814
3.354	7.15027
3.3545	2.01416
3.355	-1.10779
3.3555	3.8269
3.356	-1.51062
3.3565	-3.52478
3.357	4.83398
3.3575	5.84106
3.358	1.10779
3.3585	3.12195
3.359	4.12903
3.3595	2.5177
3.36	1.71204
3.3605	0.60425
3.361	0.30212
3.3615	5.23682
3.362	-1.61133
3.3625	-2.92053
3.363	2.21558
3.3635	0.90637
3.364	2.31628
3.3645	-0.20142
3.365	5.23682
3.3655	2.21558
3.366	3.8269
3.3665	0.90637
3.367	-2.5177
3.3675	0
3.368	10.57434
3.3685	2.21558
3.369	0.70496
3.3695	3.22266
3.37	7.15027
3.3705	7.15027
3.371	5.63965
3.3715	2.11487
3.372	1.91345
3.3725	3.62549
3.373	2.92053
3.3735	-0.90637
3.374	1.10779
3.3745	2.31628
3.375	0.70496
3.3755	1.51062
3.376	-2.61841
3.3765	0.60425
3.377	0.30212
3.3775	3.52478
3.378	-6.84814
3.3785	0.60425
3.379	-1.40991
3.3795	-0.70496
3.38	-0.10071
3.3805	-1.3092
3.381	0.90637
3.3815	1.61133
3.382	-1.3092
3.3825	0.90637
3.383	-1.61133
3.3835	-1.81274
3.384	4.83398
3.3845	6.2439
3.385	4.93469
3.3855	2.92053
3.386	1.61133
3.3865	1.61133
3.387	3.7262
3.3875	4.12903
3.388	4.02832
3.3885	4.12903
3.389	4.22974
3.3895	-1.40991
3.39	1.00708
3.3905	2.61841
3.391	8.35876
3.3915	3.92761
3.392	5.43823
3.3925	7.04956
3.393	2.41699
3.3935	3.8269
3.394	7.65381
3.3945	10.67505
3.395	5.53894
3.3955	5.23682
3.396	3.7262
3.3965	-3.12195
3.397	-0.20142
3.3975	0.60425
3.398	-0.40283
3.3985	0.30212
3.399	5.94177
3.3995	3.62549
3.4	0.80566
3.4005	0.50354
3.401	1.51062
3.4015	7.65381
3.402	4.53186
3.4025	4.02832
3.403	2.81982
3.4035	1.2085
3.404	0.60425
3.4045	1.91345
3.405	3.02124
3.4055	6.84814
3.406	1.51062
3.4065	0.30212
3.407	1.81274
3.4075	3.8269
3.408	0.20142
3.4085	7.25098
3.409	2.21558
3.4095	4.22974
3.41	-1.51062
3.4105	-0.80566
3.411	1.51062
3.4115	1.2085
3.412	1.00708
3.4125	4.73328
3.413	2.11487
3.4135	6.14319
3.414	2.81982
3.4145	9.06372
3.415	11.38
3.4155	7.5531
3.416	1.91345
3.4165	1.10779
3.417	1.51062
3.4175	-1.2085
3.418	-1.3092
3.4185	0.80566
3.419	0
3.4195	3.02124
3.42	2.11487
3.4205	4.93469
3.421	4.43115
3.4215	7.25098
3.422	6.64673
3.4225	2.81982
3.423	1.00708
3.4235	-1.61133
3.424	1.2085
3.4245	-0.40283
3.425	0.90637
3.4255	-2.11487
3.426	2.01416
3.4265	2.11487
3.427	-2.21558
3.4275	2.01416
3.428	2.41699
3.4285	7.35168
3.429	4.63257
3.4295	5.23682
3.43	4.22974
3.4305	1.81274
3.431	0.40283
3.4315	4.93469
3.432	2.01416
3.4325	6.94885
3.433	3.32336
3.4335	3.22266
3.434	5.94177
3.4345	2.61841
3.435	9.56726
3.4355	8.25806
3.436	9.26514
3.4365	0.50354
3.437	7.15027
3.4375	11.98425
3.438	9.86938
3.4385	7.25098
3.439	7.5531
3.4395	3.12195
3.44	6.74744
3.4405	8.25806
3.441	7.5531
3.4415	4.53186
3.442	3.02124
3.4425	5.23682
3.443	5.23682
3.4435	4.63257
3.444	1.51062
3.4445	0.40283
3.445	-1.40991
3.4455	5.43823
3.446	1.71204
3.4465	1.81274
3.447	4.22974
3.4475	4.53186
3.448	11.07788
3.4485	4.73328
3.449	6.94885
3.4495	8.25806
3.45	1.00708
3.4505	3.22266
3.451	6.94885
3.4515	6.2439
3.452	9.16443
3.4525	8.05664
3.453	2.71912
3.4535	7.75452
3.454	12.08496
3.4545	6.74744
3.455	5.23682
3.4555	2.31628
3.456	4.33044
3.4565	0.90637
3.457	5.53894
3.4575	3.12195
3.458	1.71204
3.4585	1.51062
3.459	4.22974
3.4595	9.86938
3.46	4.33044
3.4605	3.12195
3.461	2.01416
3.4615	6.94885
3.462	6.2439
3.4625	5.53894
3.463	9.97009
3.4635	9.06372
3.464	12.38708
3.4645	0.70496
3.465	8.35876
3.4655	8.35876
3.466	4.93469
3.4665	10.37292
3.467	6.94885
3.4675	9.97009
3.468	11.78284
3.4685	10.37292
3.469	9.56726
3.4695	6.44531
3.47	11.68213
3.4705	2.5177
3.471	5.13611
3.4715	5.63965
3.472	7.65381
3.4725	5.0354
3.473	4.43115
3.4735	2.92053
3.474	5.43823
3.4745	6.3446
3.475	5.63965
3.4755	6.54602
3.476	1.40991
3.4765	7.15027
3.477	3.62549
3.4775	5.84106
3.478	4.33044
3.4785	3.7262
3.479	0.90637
3.4795	1.81274
3.48	4.73328
3.4805	7.35168
3.481	2.11487
3.4815	4.93469
3.482	8.35876
3.4825	6.94885
3.483	7.65381
3.4835	4.73328
3.484	6.2439
3.4845	8.35876
3.485	2.92053
3.4855	6.94885
3.486	10.0708
3.4865	0.30212
3.487	2.5177
3.4875	3.52478
3.488	5.23682
3.4885	6.94885
3.489	1.71204
3.4895	4.63257
3.49	4.93469
3.4905	2.61841
3.491	4.83398
3.4915	4.22974
3.492	6.64673
3.4925	9.76868
3.493	3.42407
3.4935	0.30212
3.494	3.52478
3.4945	-0.50354
3.495	-0.60425
3.4955	-0.90637
3.496	2.71912
3.4965	0.20142
3.497	1.40991
3.4975	-4.33044
3.498	-0.10071
3.4985	-0.10071
3.499	2.21558
3.4995	1.81274
3.5	-0.40283
3.5005	3.42407
3.501	4.63257
3.5015	2.92053
3.502	4.02832
3.5025	4.73328
3.503	5.74036
3.5035	-2.81982
3.504	-2.81982
3.5045	1.51062
3.505	-0.30212
3.5055	3.32336
3.506	2.21558
3.5065	5.84106
3.507	10.57434
3.5075	10.37292
3.508	7.95593
3.5085	10.17151
3.509	8.15735
3.5095	10.17151
3.51	-1.10779
3.5105	5.33752
3.511	3.92761
3.5115	-0.20142
3.512	-0.50354
3.5125	4.73328
3.513	4.93469
3.5135	4.12903
3.514	7.15027
3.5145	9.16443
3.515	6.94885
3.5155	9.36584
3.516	9.06372
3.5165	10.0708
3.517	4.83398
3.5175	5.23682
3.518	6.64673
3.5185	8.56018
3.519	6.3446
3.5195	6.84814
3.52	0.20142
3.5205	4.63257
3.521	2.92053
3.5215	7.04956
3.522	3.92761
3.5225	2.61841
3.523	6.44531
3.5235	4.63257
3.524	5.63965
3.5245	3.8269
3.525	4.73328
3.5255	5.13611
3.526	4.83398
3.5265	10.27222
3.527	6.74744
3.5275	0.20142
3.528	5.33752
3.5285	4.93469
3.529	8.25806
3.5295	5.13611
3.53	2.41699
3.5305	-3.22266
3.531	2.21558
3.5315	6.64673
3.532	5.23682
3.5325	8.05664
3.533	10.37292
3.5335	8.7616
3.534	6.74744
3.5345	3.52478
3.535	8.66089
3.5355	5.33752
3.536	2.01416
3.5365	0.90637
3.537	2.5177
3.5375	7.65381
3.538	5.84106
3.5385	3.62549
3.539	4.22974
3.5395	9.26514
3.54	7.95593
3.5405	9.16443
3.541	3.42407
3.5415	8.56018
3.542	6.54602
3.5425	11.78284
3.543	6.64673
3.5435	10.97717
3.544	10.77576
3.5445	5.94177
3.545	8.35876
3.5455	13.29346
3.546	12.28638
3.5465	7.25098
3.547	4.33044
3.5475	3.02124
3.548	5.74036
3.5485	3.7262
3.549	4.93469
3.5495	4.83398
3.55	8.35876
3.5505	7.5531
3.551	2.5177
3.5515	4.43115
3.552	5.84106
3.5525	1.91345
3.553	-1.40991
3.5535	4.02832
3.554	-0.20142
3.5545	-5.84106
3.555	4.73328
3.5555	3.12195
3.556	8.05664
3.5565	9.86938
3.557	4.53186
3.5575	6.2439
3.558	8.15735
3.5585	6.44531
3.559	4.83398
3.5595	1.51062
3.56	6.44531
3.5605	4.43115
3.561	0.40283
3.5615	-5.33752
3.562	0.50354
3.5625	7.5531
3.563	5.0354
3.5635	0.10071
3.564	3.02124
3.5645	-2.81982
3.565	-1.00708
3.5655	2.92053
3.566	-0.40283
3.5665	4.63257
3.567	4.93469
3.5675	2.5177
3.568	8.05664
3.5685	3.12195
3.569	3.12195
3.5695	1.40991
3.57	3.12195
3.5705	1.3092
3.571	-0.20142
3.5715	-7.5531
3.572	-5.23682
3.5725	-4.93469
3.573	3.42407
3.5735	-4.83398
3.574	-0.40283
3.5745	-1.2085
3.575	2.61841
3.5755	0.20142
3.576	-2.5177
3.5765	-4.63257
3.577	-6.44531
3.5775	-2.01416
3.578	-5.23682
3.5785	1.00708
3.579	-0.40283
3.5795	-1.2085
3.58	0.50354
3.5805	-2.71912
3.581	-3.32336
3.5815	-4.93469
3.582	-4.22974
3.5825	-3.12195
3.583	-1.51062
3.5835	5.74036
3.584	9.97009
3.5845	4.22974
3.585	7.75452
3.5855	4.73328
3.586	2.71912
3.5865	3.12195
3.587	1.00708
3.5875	-1.51062
3.588	-0.80566
3.5885	2.21558
3.589	7.15027
3.5895	6.84814
3.59	5.43823
3.5905	8.25806
3.591	4.53186
3.5915	4.12903
3.592	7.95593
3.5925	9.56726
3.593	6.2439
3.5935	7.65381
3.594	3.02124
3.5945	6.44531
3.595	5.84106
3.5955	8.8623
3.596	5.74036
3.5965	5.33752
3.597	11.17859
3.5975	11.07788
3.598	12.08496
3.5985	11.2793
3.599	9.66797
3.5995	10.77576
3.6	10.87646
3.6005	10.77576
3.601	8.56018
3.6015	13.39417
3.602	11.88354
3.6025	13.99841
3.603	12.28638
3.6035	5.94177
3.604	7.65381
3.6045	13.09204
3.605	2.21558
3.6055	5.13611
3.606	6.14319
3.6065	3.62549
3.607	9.46655
3.6075	12.08496
3.608	2.5177
3.6085	9.16443
3.609	8.96301
3.6095	3.42407
3.61	2.61841
3.6105	8.15735
3.611	9.76868
3.6115	5.43823
3.612	6.14319
3.6125	7.5531
3.613	7.04956
3.6135	10.77576
3.614	5.94177
3.6145	5.74036
3.615	10.47363
3.6155	3.32336
3.616	6.84814
3.6165	3.32336
3.617	1.81274
3.6175	9.46655
3.618	4.83398
3.6185	9.76868
3.619	7.65381
3.6195	6.44531
3.62	5.43823
3.6205	8.35876
3.621	10.67505
3.6215	5.43823
3.622	5.33752
3.6225	7.5531
3.623	7.45239
3.6235	9.36584
3.624	5.63965
3.6245	9.06372
3.625	9.16443
3.6255	7.35168
3.626	9.86938
3.6265	4.63257
3.627	2.5177
3.6275	0.90637
3.628	6.64673
3.6285	3.22266
3.629	11.17859
3.6295	4.93469
3.63	7.04956
3.6305	11.88354
3.631	8.8623
3.6315	8.05664
3.632	9.36584
3.6325	9.36584
3.633	13.19275
3.6335	12.78992
3.634	6.14319
3.6345	6.04248
3.635	4.93469
3.6355	1.2085
3.636	7.04956
3.6365	10.67505
3.637	7.35168
3.6375	7.95593
3.638	11.68213
3.6385	7.65381
3.639	8.7616
3.6395	11.38
3.64	9.86938
3.6405	11.48071
3.641	10.37292
3.6415	12.99133
3.642	5.23682
3.6425	8.8623
3.643	13.09204
3.6435	5.33752
3.644	6.74744
3.6445	6.44531
3.645	8.66089
3.6455	8.66089
3.646	3.92761
3.6465	6.04248
3.647	6.3446
3.6475	8.15735
3.648	2.11487
3.6485	4.53186
3.649	7.25098
3.6495	5.13611
3.65	5.74036
3.6505	8.56018
3.651	7.35168
3.6515	-0.80566
3.652	7.75452
3.6525	-1.00708
3.653	4.22974
3.6535	3.22266
3.654	5.33752
3.6545	5.13611
3.655	7.04956
3.6555	7.75452
3.656	12.38708
3.6565	5.63965
3.657	4.53186
3.6575	4.12903
3.658	7.25098
3.6585	10.57434
3.659	13.89771
3.6595	15.1062
3.66	16.3147
3.6605	12.5885
3.661	9.56726
3.6615	12.99133
3.662	9.56726
3.6625	10.77576
3.663	9.76868
3.6635	2.81982
3.664	5.84106
3.6645	1.51062
3.665	2.21558
3.6655	4.33044
3.666	6.3446
3.6665	-0.10071
3.667	0.40283
3.6675	4.83398
3.668	1.2085
3.6685	2.92053
3.669	1.40991
3.6695	0.50354
3.67	10.57434
3.6705	8.7616
3.671	10.17151
3.6715	0.50354
3.672	6.04248
3.6725	6.74744
3.673	7.85522
3.6735	2.01416
3.674	8.7616
3.6745	3.62549
3.675	2.81982
3.6755	0.10071
3.676	3.8269
3.6765	10.97717
3.677	9.16443
3.6775	6.2439
3.678	5.53894
3.6785	6.64673
3.679	7.65381
3.6795	8.45947
3.68	8.25806
3.6805	6.3446
3.681	6.54602
3.6815	9.76868
3.682	8.8623
3.6825	7.85522
3.683	7.75452
3.6835	10.47363
3.684	8.15735
3.6845	4.93469
3.685	0.50354
3.6855	2.81982
3.686	1.71204
3.6865	-4.73328
3.687	2.41699
3.6875	3.8269
3.688	9.06372
3.6885	6.54602
3.689	10.97717
3.6895	14.90479
3.69	11.48071
3.6905	11.17859
3.691	11.48071
3.6915	7.04956
3.692	6.14319
3.6925	10.27222
3.693	5.53894
3.6935	3.32336
3.694	8.15735
3.6945	4.83398
3.695	4.22974
3.6955	7.65381
3.696	6.94885
3.6965	6.54602
3.697	7.35168
3.6975	6.2439
3.698	6.84814
3.6985	11.17859
3.699	6.04248
3.6995	6.3446
3.7	3.52478
3.7005	9.16443
3.701	6.64673
3.7015	5.74036
3.702	3.92761
3.7025	3.52478
3.703	3.22266
3.7035	7.65381
3.704	10.17151
3.7045	4.93469
3.705	5.84106
3.7055	13.99841
3.706	4.33044
3.7065	4.12903
3.707	8.56018
3.7075	3.92761
3.708	5.63965
3.7085	7.25098
3.709	8.35876
3.7095	7.5531
3.71	8.7616
3.7105	5.23682
3.711	7.15027
3.7115	8.25806
3.712	8.8623
3.7125	5.84106
3.713	9.46655
3.7135	9.06372
3.714	5.33752
3.7145	6.2439
3.715	5.43823
3.7155	3.32336
3.716	2.5177
3.7165	4.83398
3.717	4.73328
3.7175	8.56018
3.718	3.12195
3.7185	2.41699
3.719	-0.40283
3.7195	3.62549
3.72	5.53894
3.7205	1.81274
3.721	6.04248
3.7215	6.64673
3.722	3.92761
3.7225	-1.00708
3.723	-4.43115
3.7235	6.14319
3.724	3.7262
3.7245	-1.3092
3.725	8.05664
3.7255	5.74036
3.726	5.74036
3.7265	2.31628
3.727	3.52478
3.7275	12.18567
3.728	14.70337
3.7285	11.88354
3.729	7.95593
3.7295	4.63257
3.73	5.53894
3.7305	8.66089
3.731	3.52478
3.7315	8.56018
3.732	3.62549
3.7325	8.66089
3.733	6.54602
3.7335	6.74744
3.734	5.94177
3.7345	5.43823
3.735	3.62549
3.7355	10.0708
3.736	9.36584
3.7365	8.05664
3.737	12.5885
3.7375	9.86938
3.738	11.98425
3.7385	6.64673
3.739	8.05664
3.7395	9.97009
3.74	9.97009
3.7405	10.77576
3.741	10.17151
3.7415	11.38
3.742	8.8623
3.7425	7.75452
3.743	12.78992
3.7435	8.45947
3.744	10.17151
3.7445	5.84106
3.745	7.35168
3.7455	5.0354
3.746	3.52478
3.7465	9.76868
3.747	10.0708
3.7475	7.75452
3.748	6.54602
3.7485	3.02124
3.749	7.45239
3.7495	4.93469
3.75	9.26514
3.7505	6.14319
3.751	5.0354
3.7515	4.02832
3.752	2.41699
3.7525	2.41699
3.753	-0.40283
3.7535	2.61841
3.754	6.74744
3.7545	6.14319
3.755	8.96301
3.7555	8.66089
3.756	10.0708
3.7565	4.12903
3.757	4.83398
3.7575	9.46655
3.758	2.21558
3.7585	5.0354
3.759	-0.70496
3.7595	5.63965
3.76	-0.60425
3.7605	0.70496
3.761	2.21558
3.7615	5.63965
3.762	5.0354
3.7625	7.25098
3.763	8.25806
3.7635	8.8623
3.764	7.35168
3.7645	12.38708
3.765	4.53186
3.7655	3.8269
3.766	4.83398
3.7665	-2.81982
3.767	0.20142
3.7675	4.63257
3.768	6.3446
3.7685	4.63257
3.769	4.83398
3.7695	3.32336
3.77	3.7262
3.7705	-2.31628
3.771	2.31628
3.7715	7.45239
3.772	2.21558
3.7725	-1.00708
3.773	3.52478
3.7735	6.3446
3.774	7.65381
3.7745	5.13611
3.775	4.33044
3.7755	7.25098
3.776	-0.50354
3.7765	3.8269
3.777	4.43115
3.7775	7.95593
3.778	4.33044
3.7785	2.5177
3.779	4.53186
3.7795	8.7616
3.78	4.22974
3.7805	12.18567
3.781	11.17859
3.7815	17.12036
3.782	11.38
3.7825	12.28638
3.783	4.02832
3.7835	8.96301
3.784	9.56726
3.7845	4.22974
3.785	8.56018
3.7855	10.0708
3.786	3.8269
3.7865	11.17859
3.787	6.84814
3.7875	3.62549
3.788	8.15735
3.7885	12.38708
3.789	7.75452
3.7895	9.26514
3.79	9.36584
3.7905	3.92761
3.791	5.74036
3.7915	10.97717
3.792	11.17859
3.7925	4.63257
3.793	4.93469
3.7935	6.2439
3.794	5.0354
3.7945	4.83398
3.795	6.94885
3.7955	9.46655
3.796	5.23682
3.7965	2.61841
3.797	7.25098
3.7975	2.61841
3.798	10.57434
3.7985	6.94885
3.799	2.41699
3.7995	0.10071
3.8	-2.11487
3.8005	1.71204
3.801	0.60425
3.8015	2.71912
3.802	4.12903
3.8025	5.33752
3.803	9.26514
3.8035	3.32336
3.804	7.25098
3.8045	7.5531
3.805	8.15735
3.8055	4.83398
3.806	9.06372
3.8065	4.22974
3.807	5.63965
3.8075	5.0354
3.808	5.0354
3.8085	8.25806
3.809	8.45947
3.8095	14.60266
3.81	6.84814
3.8105	3.22266
3.811	4.73328
3.8115	-1.91345
3.812	-0.20142
3.8125	4.02832
3.813	1.61133
3.8135	1.81274
3.814	1.3092
3.8145	3.52478
3.815	3.02124
3.8155	3.52478
3.816	-1.3092
3.8165	3.8269
3.817	5.63965
3.8175	0.60425
3.818	0.60425
3.8185	4.43115
3.819	8.66089
3.8195	7.5531
3.82	7.75452
3.8205	6.04248
3.821	9.97009
3.8215	10.87646
3.822	4.33044
3.8225	9.26514
3.823	6.74744
3.8235	10.37292
3.824	10.97717
3.8245	6.14319
3.825	4.33044
3.8255	3.92761
3.826	8.66089
3.8265	8.25806
3.827	6.84814
3.8275	7.15027
3.828	1.71204
3.8285	5.23682
3.829	6.3446
3.8295	7.85522
3.83	4.73328
3.8305	1.3092
3.831	-0.50354
3.8315	3.02124
3.832	3.32336
3.8325	6.3446
3.833	1.91345
3.8335	8.05664
3.834	1.71204
3.8345	2.41699
3.835	5.43823
3.8355	7.45239
3.836	2.71912
3.8365	8.35876
3.837	4.73328
3.8375	3.42407
3.838	4.22974
3.8385	3.12195
3.839	9.76868
3.8395	8.15735
3.84	12.08496
3.8405	8.8623
3.841	11.98425
3.8415	5.43823
3.842	5.53894
3.8425	5.53894
3.843	-0.60425
3.8435	2.11487
3.844	6.44531
3.8445	4.43115
3.845	10.67505
3.8455	7.5531
3.846	3.12195
3.8465	9.66797
3.847	8.66089
3.8475	11.07788
3.848	7.95593
3.8485	8.35876
3.849	6.74744
3.8495	6.54602
3.85	9.36584
3.8505	9.46655
3.851	5.43823
3.8515	6.04248
3.852	5.94177
3.8525	7.65381
3.853	6.74744
3.8535	0.20142
3.854	5.33752
3.8545	0.70496
3.855	8.66089
3.8555	1.40991
3.856	4.73328
3.8565	4.22974
3.857	13.59558
3.8575	11.07788
3.858	7.35168
3.8585	4.53186
3.859	3.22266
3.8595	5.94177
3.86	11.48071
3.8605	9.46655
3.861	5.33752
3.8615	9.46655
3.862	5.33752
3.8625	2.41699
3.863	3.02124
3.8635	6.64673
3.864	7.15027
3.8645	3.62549
3.865	4.22974
3.8655	-0.90637
3.866	1.71204
3.8665	0
3.867	3.02124
3.8675	4.02832
3.868	12.08496
3.8685	13.59558
3.869	8.8623
3.8695	0.30212
3.87	4.63257
3.8705	5.13611
3.871	9.36584
3.8715	8.45947
3.872	9.26514
3.8725	10.0708
3.873	13.09204
3.8735	12.38708
3.874	19.53735
3.8745	14.80408
3.875	15.50903
3.8755	12.18567
3.876	10.97717
3.8765	12.99133
3.877	14.80408
3.8775	13.59558
3.878	10.87646
3.8785	10.47363
3.879	8.8623
3.8795	10.87646
3.88	10.97717
3.8805	4.93469
3.881	3.42407
3.8815	4.53186
3.882	4.83398
3.8825	5.94177
3.883	2.71912
3.8835	8.15735
3.884	3.22266
3.8845	6.54602
3.885	5.13611
3.8855	3.22266
3.886	1.00708
3.8865	6.3446
3.887	2.5177
3.8875	6.94885
3.888	8.35876
3.8885	9.56726
3.889	2.31628
3.8895	4.63257
3.89	4.02832
3.8905	5.94177
3.891	9.97009
3.8915	5.0354
3.892	6.3446
3.8925	5.84106
3.893	5.74036
3.8935	4.12903
3.894	7.35168
3.8945	4.63257
3.895	-0.40283
3.8955	5.0354
3.896	7.35168
3.8965	8.25806
3.897	4.93469
3.8975	4.02832
3.898	6.04248
3.8985	5.33752
3.899	-0.10071
3.8995	0.30212
3.9	2.81982
3.9005	5.53894
3.901	3.52478
3.9015	6.94885
3.902	8.56018
3.9025	5.13611
3.903	9.36584
3.9035	2.61841
3.904	5.23682
3.9045	6.3446
3.905	5.13611
3.9055	7.65381
3.906	4.63257
3.9065	8.35876
3.907	8.8623
3.9075	5.84106
3.908	4.63257
3.9085	3.7262
3.909	11.48071
3.9095	10.87646
3.91	4.73328
3.9105	1.91345
3.911	1.51062
3.9115	1.40991
3.912	4.63257
3.9125	8.05664
3.913	8.35876
3.9135	9.46655
3.914	14.40125
3.9145	10.77576
3.915	10.47363
3.9155	6.04248
3.916	7.85522
3.9165	6.14319
3.917	9.06372
3.9175	5.23682
3.918	7.35168
3.9185	4.83398
3.919	8.45947
3.9195	5.13611
3.92	9.86938
3.9205	13.39417
3.921	8.15735
3.9215	4.93469
3.922	1.2085
3.9225	10.47363
3.923	3.8269
3.9235	5.43823
3.924	5.43823
3.9245	-2.11487
3.925	0.80566
3.9255	8.45947
3.926	1.51062
3.9265	2.11487
3.927	0.20142
3.9275	5.43823
3.928	1.71204
3.9285	6.64673
3.929	5.23682
3.9295	7.35168
3.93	6.44531
3.9305	9.97009
3.931	14.09912
3.9315	10.37292
3.932	12.08496
3.9325	10.67505
3.933	5.43823
3.9335	5.13611
3.934	10.0708
3.9345	7.5531
3.935	2.11487
3.9355	6.64673
3.936	6.84814
3.9365	6.3446
3.937	13.99841
3.9375	11.2793
3.938	6.3446
3.9385	14.60266
3.939	10.47363
3.9395	5.74036
3.94	10.17151
3.9405	4.83398
3.941	-0.10071
3.9415	7.25098
3.942	6.74744
3.9425	5.84106
3.943	6.04248
3.9435	4.53186
3.944	5.23682
3.9445	4.33044
3.945	8.05664
3.9455	7.5531
3.946	6.54602
3.9465	11.68213
3.947	9.46655
3.9475	9.66797
3.948	6.14319
3.9485	6.2439
3.949	3.22266
3.9495	6.94885
3.95	8.7616
3.9505	5.0354
3.951	3.92761
3.9515	6.74744
3.952	4.02832
3.9525	4.22974
3.953	1.71204
3.9535	1.2085
3.954	5.33752
3.9545	5.33752
3.955	0.80566
3.9555	3.42407
3.956	3.32336
3.9565	4.83398
3.957	5.94177
3.9575	8.66089
3.958	6.44531
3.9585	6.44531
3.959	7.35168
3.9595	11.38
3.96	9.06372
3.9605	9.66797
3.961	9.86938
3.9615	9.26514
3.962	2.31628
3.9625	6.74744
3.963	7.5531
3.9635	9.56726
3.964	9.86938
3.9645	7.95593
3.965	9.56726
3.9655	8.25806
3.966	8.56018
3.9665	3.92761
3.967	3.02124
3.9675	7.25098
3.968	8.05664
3.9685	8.45947
3.969	4.12903
3.9695	3.02124
3.97	7.5531
3.9705	8.8623
3.971	13.29346
3.9715	5.84106
3.972	2.41699
3.9725	1.51062
3.973	3.62549
3.9735	5.13611
3.974	10.87646
3.9745	8.8623
3.975	3.7262
3.9755	4.53186
3.976	3.02124
3.9765	8.8623
3.977	8.25806
3.9775	5.53894
3.978	5.74036
3.9785	5.84106
3.979	3.32336
3.9795	-0.20142
3.98	4.12903
3.9805	3.7262
3.981	3.8269
3.9815	3.42407
3.982	4.43115
3.9825	4.53186
3.983	9.76868
3.9835	4.02832
3.984	10.57434
3.9845	10.27222
3.985	2.41699
3.9855	6.44531
3.986	4.33044
3.9865	12.68921
3.987	11.38
3.9875	5.74036
3.988	8.15735
3.9885	0.50354
3.989	4.02832
3.9895	6.2439
3.99	7.15027
3.9905	0.10071
3.991	8.05664
3.9915	5.53894
3.992	0.40283
3.9925	-0.90637
3.993	0.40283
3.9935	-0.10071
3.994	3.12195
3.9945	0.80566
3.995	4.63257
3.9955	0.40283
3.996	-0.10071
3.9965	4.02832
3.997	6.84814
3.9975	2.01416
3.998	2.01416
3.9985	4.22974
3.999	-3.52478
3.9995	7.45239
4	6.84814
4.0005	4.33044
4.001	2.5177
4.0015	7.75452
4.002	5.53894
4.0025	6.94885
4.003	5.0354
4.0035	6.44531
4.004	3.42407
4.0045	-3.32336
4.005	0.70496
4.0055	5.74036
4.006	6.94885
4.0065	9.66797
4.007	11.17859
4.0075	11.2793
4.008	6.54602
4.0085	8.25806
4.009	8.15735
4.0095	8.35876
4.01	5.84106
4.0105	5.53894
4.011	9.86938
4.0115	2.61841
4.012	3.52478
4.0125	5.84106
4.013	8.05664
4.0135	6.54602
4.014	9.56726
4.0145	11.07788
4.015	5.63965
4.0155	11.68213
4.016	6.74744
4.0165	0.80566
4.017	5.0354
4.0175	4.33044
4.018	1.10779
4.0185	4.02832
4.019	19.23523
4.0195	30.91736
4.02	37.7655
4.0205	35.14709
4.021	22.55859
4.0215	12.5885
4.022	8.35876
4.0225	2.11487
4.023	-0.10071
4.0235	-5.94177
4.024	-12.5885
4.0245	-8.66089
4.025	-13.19275
4.0255	-9.56726
4.026	-5.33752
4.0265	-8.56018
4.027	-6.3446
4.0275	-5.0354
4.028	-5.33752
4.0285	-3.12195
4.029	-0.20142
4.0295	-4.33044
4.03	-1.10779
4.0305	-3.92761
4.031	-9.46655
4.0315	-7.45239
