Danilo_Mastropaolo_Right_2.c3d  



Time(s):	Emg_3(μV):
0	2.01416
0.0005	4.63257
0.001	-0.80566
0.0015	3.12195
0.002	10.47363
0.0025	11.88354
0.003	7.75452
0.0035	4.93469
0.004	5.84106
0.0045	9.36584
0.005	9.56726
0.0055	9.06372
0.006	6.54602
0.0065	8.8623
0.007	6.04248
0.0075	9.06372
0.008	9.46655
0.0085	11.2793
0.009	8.66089
0.0095	10.67505
0.01	10.37292
0.0105	9.66797
0.011	5.53894
0.0115	11.48071
0.012	9.06372
0.0125	6.74744
0.013	10.27222
0.0135	9.26514
0.014	8.66089
0.0145	7.25098
0.015	12.18567
0.0155	9.16443
0.016	16.61682
0.0165	9.97009
0.017	11.98425
0.0175	9.26514
0.018	6.14319
0.0185	7.35168
0.019	6.04248
0.0195	6.2439
0.02	6.74744
0.0205	8.35876
0.021	8.96301
0.0215	7.25098
0.022	3.62549
0.0225	1.3092
0.023	6.84814
0.0235	2.92053
0.024	5.74036
0.0245	7.85522
0.025	8.8623
0.0255	9.16443
0.026	13.39417
0.0265	13.09204
0.027	14.70337
0.0275	6.04248
0.028	11.78284
0.0285	10.77576
0.029	10.17151
0.0295	19.13452
0.03	17.01965
0.0305	23.36426
0.031	22.25647
0.0315	24.97559
0.032	20.1416
0.0325	19.83948
0.033	14.70337
0.0335	14.70337
0.034	13.59558
0.0345	7.75452
0.035	5.63965
0.0355	0.80566
0.036	2.21558
0.0365	-0.60425
0.037	-7.65381
0.0375	-7.85522
0.038	-11.58142
0.0385	-13.99841
0.039	-12.68921
0.0395	-13.19275
0.04	-7.65381
0.0405	-7.25098
0.041	-3.32336
0.0415	-4.73328
0.042	-0.90637
0.0425	0.20142
0.043	1.10779
0.0435	4.93469
0.044	3.42407
0.0445	2.61841
0.045	6.44531
0.0455	8.66089
0.046	4.02832
0.0465	7.5531
0.047	5.74036
0.0475	14.50195
0.048	6.14319
0.0485	2.11487
0.049	6.84814
0.0495	3.92761
0.05	0.70496
0.0505	3.52478
0.051	0.80566
0.0515	4.02832
0.052	7.85522
0.0525	4.63257
0.053	5.84106
0.0535	5.63965
0.054	-3.7262
0.0545	-2.31628
0.055	-13.49487
0.0555	-5.0354
0.056	-2.92053
0.0565	-2.01416
0.057	-7.75452
0.0575	-1.71204
0.058	-3.32336
0.0585	-5.84106
0.059	-2.01416
0.0595	-3.02124
0.06	-8.66089
0.0605	-10.57434
0.061	-4.63257
0.0615	-1.2085
0.062	-1.40991
0.0625	8.15735
0.063	8.25806
0.0635	7.45239
0.064	12.28638
0.0645	11.88354
0.065	13.99841
0.0655	12.68921
0.066	7.15027
0.0665	4.53186
0.067	9.46655
0.0675	12.38708
0.068	20.54443
0.0685	23.26355
0.069	27.19116
0.0695	30.11169
0.07	39.07471
0.0705	44.61365
0.071	42.90161
0.0715	44.91577
0.072	39.37683
0.0725	36.35559
0.073	33.83789
0.0735	25.27771
0.074	14.30054
0.0745	3.12195
0.075	-3.7262
0.0755	-11.17859
0.076	-8.25806
0.0765	-20.74585
0.077	-26.3855
0.0775	-32.7301
0.078	-30.71594
0.0785	-29.50745
0.079	-29.40674
0.0795	-19.63806
0.08	-16.71753
0.0805	-15.71045
0.081	-13.49487
0.0815	-6.64673
0.082	-3.32336
0.0825	1.40991
0.083	3.22266
0.0835	7.25098
0.084	7.25098
0.0845	4.22974
0.085	6.84814
0.0855	6.74744
0.086	13.89771
0.0865	23.56567
0.087	16.91895
0.0875	20.04089
0.088	18.02673
0.0885	14.09912
0.089	14.90479
0.0895	8.56018
0.09	13.39417
0.0905	13.39417
0.091	12.38708
0.0915	9.16443
0.092	0.90637
0.0925	-0.50354
0.093	-6.44531
0.0935	1.91345
0.094	-0.20142
0.0945	-5.23682
0.095	-1.61133
0.0955	-7.45239
0.096	-3.42407
0.0965	-7.15027
0.097	-1.91345
0.0975	0.50354
0.098	9.16443
0.0985	8.35876
0.099	9.86938
0.0995	8.66089
0.1	8.7616
0.1005	15.20691
0.101	15.71045
0.1015	14.30054
0.102	21.04797
0.1025	23.16284
0.103	21.85364
0.1035	19.53735
0.104	21.55151
0.1045	33.83789
0.105	49.85046
0.1055	55.18799
0.106	56.49719
0.1065	58.71277
0.107	59.82056
0.1075	66.87012
0.108	62.23755
0.1085	59.92126
0.109	51.15967
0.1095	43.50586
0.11	34.34143
0.1105	25.37842
0.111	6.94885
0.1115	-0.20142
0.112	-21.95435
0.1125	-25.78125
0.113	-33.53577
0.1135	-41.08887
0.114	-46.22498
0.1145	-50.65613
0.115	-58.30994
0.1155	-62.9425
0.116	-65.3595
0.1165	-59.82056
0.117	-51.15967
0.1175	-37.96692
0.118	-32.02515
0.1185	-22.45789
0.119	-9.46655
0.1195	2.61841
0.12	6.94885
0.1205	17.82532
0.121	18.02673
0.1215	24.67346
0.122	28.09753
0.1225	24.57275
0.123	23.06213
0.1235	26.48621
0.124	17.6239
0.1245	6.2439
0.125	7.75452
0.1255	9.97009
0.126	5.0354
0.1265	7.5531
0.127	11.78284
0.1275	15.40833
0.128	24.27063
0.1285	28.09753
0.129	28.39966
0.1295	23.06213
0.13	19.73877
0.1305	24.16992
0.131	35.85205
0.1315	44.71436
0.132	38.77258
0.1325	30.31311
0.133	20.64514
0.1335	8.7616
0.134	0.90637
0.1345	-9.06372
0.135	-20.74585
0.1355	-33.9386
0.136	-38.16833
0.1365	-41.59241
0.137	-50.85754
0.1375	-53.37524
0.138	-50.65613
0.1385	-52.97241
0.139	-51.76392
0.1395	-47.53418
0.14	-38.87329
0.1405	-30.51453
0.141	-22.76001
0.1415	-11.88354
0.142	-6.04248
0.1425	-1.3092
0.143	2.11487
0.1435	3.62549
0.144	5.23682
0.1445	18.12744
0.145	14.40125
0.1455	13.39417
0.146	14.90479
0.1465	13.89771
0.147	15.50903
0.1475	20.84656
0.148	17.52319
0.1485	20.74585
0.149	19.94019
0.1495	27.29187
0.15	23.36426
0.1505	23.8678
0.151	18.12744
0.1515	15.00549
0.152	23.46497
0.1525	24.77417
0.153	24.06921
0.1535	23.56567
0.154	22.35718
0.1545	22.05505
0.155	27.59399
0.1555	34.64355
0.156	39.47754
0.1565	34.84497
0.157	32.83081
0.1575	30.81665
0.158	26.98975
0.1585	27.09045
0.159	27.6947
0.1595	21.65222
0.16	19.94019
0.1605	5.94177
0.161	0.20142
0.1615	-9.97009
0.162	-10.57434
0.1625	-16.11328
0.163	-21.3501
0.1635	-30.01099
0.164	-23.36426
0.1645	-22.86072
0.165	-21.65222
0.1655	-14.90479
0.166	-9.16443
0.1665	-8.8623
0.167	-2.92053
0.1675	2.01416
0.168	-2.21558
0.1685	7.25098
0.169	24.57275
0.1695	31.72302
0.17	40.1825
0.1705	45.41931
0.171	47.23206
0.1715	54.88586
0.172	46.92993
0.1725	50.2533
0.173	48.13843
0.1735	50.45471
0.174	42.59949
0.1745	34.54285
0.175	29.60815
0.1755	22.25647
0.176	10.17151
0.1765	6.04248
0.177	-5.84106
0.1775	-9.26514
0.178	-23.16284
0.1785	-25.98267
0.179	-33.9386
0.1795	-39.98108
0.18	-45.82214
0.1805	-47.23206
0.181	-37.06055
0.1815	-39.27612
0.182	-24.87488
0.1825	-22.96143
0.183	-20.24231
0.1835	-17.22107
0.184	-19.33594
0.1845	-8.7616
0.185	1.3092
0.1855	4.53186
0.186	13.89771
0.1865	19.03381
0.187	13.09204
0.1875	17.12036
0.188	16.3147
0.1885	12.99133
0.189	16.01257
0.1895	10.27222
0.19	5.63965
0.1905	-0.20142
0.191	-3.42407
0.1915	-5.53894
0.192	-17.42249
0.1925	-21.95435
0.193	-30.71594
0.1935	-35.95276
0.194	-35.95276
0.1945	-34.44214
0.195	-32.22656
0.1955	-34.03931
0.196	-29.50745
0.1965	-22.96143
0.197	-17.42249
0.1975	-3.02124
0.198	1.40991
0.1985	13.29346
0.199	11.98425
0.1995	21.24939
0.2	25.78125
0.2005	31.62231
0.201	46.02356
0.2015	51.46179
0.202	51.96533
0.2025	50.55542
0.203	47.03064
0.2035	34.84497
0.204	21.85364
0.2045	19.83948
0.205	12.89062
0.2055	-2.01416
0.206	-16.81824
0.2065	-27.99683
0.207	-37.26196
0.2075	-45.2179
0.208	-44.61365
0.2085	-43.10303
0.209	-40.68604
0.2095	-39.57825
0.21	-34.74426
0.2105	-28.70178
0.211	-20.34302
0.2115	-7.85522
0.212	-7.35168
0.2125	3.32336
0.213	9.56726
0.2135	19.53735
0.214	26.48621
0.2145	27.39258
0.215	39.07471
0.2155	46.02356
0.216	40.98816
0.2165	33.03223
0.217	26.48621
0.2175	13.69629
0.218	4.22974
0.2185	1.71204
0.219	-3.7262
0.2195	5.84106
0.22	6.3446
0.2205	29.10461
0.221	40.08179
0.2215	48.54126
0.222	49.95117
0.2225	55.59082
0.223	61.33118
0.2235	54.98657
0.224	47.13135
0.2245	35.2478
0.225	27.09045
0.2255	18.22815
0.226	3.7262
0.2265	-13.59558
0.227	-24.97559
0.2275	-33.9386
0.228	-37.7655
0.2285	-39.17542
0.229	-37.86621
0.2295	-27.99683
0.23	-15.71045
0.2305	-13.59558
0.231	-3.92761
0.2315	7.95593
0.232	21.45081
0.2325	31.62231
0.233	38.67188
0.2335	43.00232
0.234	49.14551
0.2345	51.66321
0.235	41.79382
0.2355	29.60815
0.236	11.2793
0.2365	-4.73328
0.237	-21.65222
0.2375	-39.07471
0.238	-53.37524
0.2385	-63.34534
0.239	-72.50977
0.2395	-69.99207
0.24	-67.27295
0.2405	-55.99365
0.241	-48.23914
0.2415	-39.57825
0.242	-33.23364
0.2425	-21.85364
0.243	-14.60266
0.2435	4.12903
0.244	13.797
0.2445	22.76001
0.245	39.07471
0.2455	45.82214
0.246	48.54126
0.2465	51.26038
0.247	51.86462
0.2475	51.36108
0.248	60.92834
0.2485	59.21631
0.249	49.34692
0.2495	39.98108
0.25	29.20532
0.2505	24.06921
0.251	26.98975
0.2515	25.98267
0.252	25.88196
0.2525	15.40833
0.253	12.68921
0.2535	16.3147
0.254	8.25806
0.2545	9.16443
0.255	8.96301
0.2555	11.78284
0.256	2.61841
0.2565	6.44531
0.257	4.83398
0.2575	0.50354
0.258	-3.42407
0.2585	-2.21558
0.259	-5.43823
0.2595	-4.43115
0.26	-5.43823
0.2605	-3.52478
0.261	-8.15735
0.2615	-9.76868
0.262	-10.27222
0.2625	-9.36584
0.263	-4.63257
0.2635	-0.30212
0.264	6.54602
0.2645	5.13611
0.265	6.44531
0.2655	7.45239
0.266	18.93311
0.2665	17.52319
0.267	21.55151
0.2675	28.60107
0.268	28.29895
0.2685	31.01807
0.269	20.64514
0.2695	15.50903
0.27	9.86938
0.2705	7.85522
0.271	-2.11487
0.2715	5.74036
0.272	10.37292
0.2725	14.60266
0.273	18.8324
0.2735	30.41382
0.274	39.17542
0.2745	50.75684
0.275	51.36108
0.2755	44.21082
0.276	40.48462
0.2765	33.23364
0.277	25.78125
0.2775	15.1062
0.278	18.8324
0.2785	13.19275
0.279	4.33044
0.2795	-0.20142
0.28	-5.84106
0.2805	-12.78992
0.281	-22.15576
0.2815	-21.14868
0.282	-19.63806
0.2825	-22.76001
0.283	-10.77576
0.2835	-4.73328
0.284	-2.41699
0.2845	-0.70496
0.285	9.46655
0.2855	13.99841
0.286	13.49487
0.2865	15.71045
0.287	27.6947
0.2875	31.62231
0.288	32.32727
0.2885	25.47913
0.289	18.22815
0.2895	7.85522
0.29	3.8269
0.2905	-3.8269
0.291	-12.99133
0.2915	-21.24939
0.292	-28.50037
0.2925	-27.6947
0.293	-36.05347
0.2935	-37.96692
0.294	-38.36975
0.2945	-38.47046
0.295	-41.18958
0.2955	-36.55701
0.296	-30.41382
0.2965	-15.81116
0.297	-14.60266
0.2975	-13.29346
0.298	-5.63965
0.2985	4.02832
0.299	7.95593
0.2995	17.32178
0.3	20.24231
0.3005	18.73169
0.301	26.98975
0.3015	37.66479
0.302	45.3186
0.3025	47.8363
0.303	41.39099
0.3035	35.04639
0.304	24.27063
0.3045	21.55151
0.305	22.86072
0.3055	25.57983
0.306	13.19275
0.3065	1.91345
0.307	-5.53894
0.3075	-5.63965
0.308	-12.89062
0.3085	-12.08496
0.309	-16.41541
0.3095	-14.19983
0.31	-22.96143
0.3105	-15.50903
0.311	-19.73877
0.3115	-14.09912
0.312	-15.30762
0.3125	-7.35168
0.313	-4.63257
0.3135	-4.12903
0.314	-5.53894
0.3145	0
0.315	7.5531
0.3155	9.06372
0.316	6.64673
0.3165	3.62549
0.317	10.37292
0.3175	15.91187
0.318	10.17151
0.3185	15.91187
0.319	17.42249
0.3195	16.81824
0.32	13.39417
0.3205	9.66797
0.321	2.71912
0.3215	1.51062
0.322	-6.64673
0.3225	-18.63098
0.323	-23.8678
0.3235	-25.98267
0.324	-35.44922
0.3245	-38.57117
0.325	-43.10303
0.3255	-37.36267
0.326	-20.34302
0.3265	-6.54602
0.327	4.63257
0.3275	13.59558
0.328	21.55151
0.3285	28.50037
0.329	23.46497
0.3295	17.72461
0.33	13.19275
0.3305	13.39417
0.331	13.69629
0.3315	12.89062
0.332	10.97717
0.3325	-0.50354
0.333	-6.04248
0.3335	-23.06213
0.334	-26.48621
0.3345	-29.91028
0.335	-33.33435
0.3355	-33.23364
0.336	-28.50037
0.3365	-21.75293
0.337	-16.41541
0.3375	-8.45947
0.338	-0.90637
0.3385	1.00708
0.339	9.36584
0.3395	8.56018
0.34	18.02673
0.3405	30.31311
0.341	34.84497
0.3415	51.15967
0.342	51.86462
0.3425	59.1156
0.343	58.91418
0.3435	56.69861
0.344	45.92285
0.3445	38.26904
0.345	31.72302
0.3455	23.26355
0.346	16.21399
0.3465	5.43823
0.347	-2.61841
0.3475	-11.07788
0.348	-12.5885
0.3485	-22.86072
0.349	-18.73169
0.3495	-19.23523
0.35	-13.89771
0.3505	-6.14319
0.351	-0.90637
0.3515	2.81982
0.352	12.99133
0.3525	18.42957
0.353	25.37842
0.3535	27.09045
0.354	27.99683
0.3545	34.03931
0.355	29.10461
0.3555	26.28479
0.356	23.8678
0.3565	21.04797
0.357	14.40125
0.3575	3.62549
0.358	6.04248
0.3585	8.35876
0.359	17.01965
0.3595	21.55151
0.36	20.84656
0.3605	13.19275
0.361	5.84106
0.3615	10.0708
0.362	8.35876
0.3625	-6.64673
0.363	-9.46655
0.3635	-22.55859
0.364	-38.67188
0.3645	-45.01648
0.365	-45.11719
0.3655	-42.39807
0.366	-53.57666
0.3665	-58.20923
0.367	-65.66162
0.3675	-49.14551
0.368	-37.46338
0.3685	-35.65063
0.369	-27.6947
0.3695	-22.45789
0.37	-18.32886
0.3705	-9.16443
0.371	-11.68213
0.3715	2.5177
0.372	-0.10071
0.3725	1.3092
0.373	1.10779
0.3735	0.40283
0.374	1.81274
0.3745	-4.43115
0.375	2.71912
0.3755	2.71912
0.376	18.73169
0.3765	26.3855
0.377	33.33435
0.3775	27.19116
0.378	32.02515
0.3785	33.03223
0.379	30.01099
0.3795	31.32019
0.38	33.23364
0.3805	30.2124
0.381	28.60107
0.3815	25.177
0.382	24.27063
0.3825	11.68213
0.383	2.01416
0.3835	1.71204
0.384	1.51062
0.3845	2.11487
0.385	-0.30212
0.3855	2.31628
0.386	-0.40283
0.3865	8.96301
0.387	6.54602
0.3875	13.89771
0.388	16.01257
0.3885	19.13452
0.389	23.96851
0.3895	21.95435
0.39	18.53027
0.3905	22.86072
0.391	28.50037
0.3915	18.42957
0.392	18.32886
0.3925	16.41541
0.393	16.01257
0.3935	6.74744
0.394	4.53186
0.3945	0.60425
0.395	-4.93469
0.3955	-2.31628
0.396	-1.3092
0.3965	-0.60425
0.397	5.23682
0.3975	16.91895
0.398	15.30762
0.3985	18.22815
0.399	15.1062
0.3995	20.34302
0.4	22.15576
0.4005	34.14001
0.401	29.00391
0.4015	30.61523
0.402	26.78833
0.4025	23.56567
0.403	18.22815
0.4035	10.47363
0.404	7.85522
0.4045	1.10779
0.405	-9.86938
0.4055	-18.42957
0.406	-22.25647
0.4065	-32.52869
0.407	-30.11169
0.4075	-19.33594
0.408	-1.71204
0.4085	16.81824
0.409	21.85364
0.4095	41.29028
0.41	45.92285
0.4105	58.00781
0.411	60.62622
0.4115	60.82764
0.412	53.07312
0.4125	42.7002
0.413	21.55151
0.4135	16.11328
0.414	0
0.4145	-7.25098
0.415	-4.93469
0.4155	-18.02673
0.416	-24.67346
0.4165	-29.80957
0.417	-38.26904
0.4175	-46.42639
0.418	-52.26746
0.4185	-49.54834
0.419	-54.58374
0.4195	-52.771
0.42	-51.05896
0.4205	-51.5625
0.421	-44.31152
0.4215	-39.67896
0.422	-33.33435
0.4225	-32.22656
0.423	-34.74426
0.4235	-33.43506
0.424	-20.54443
0.4245	-5.63965
0.425	9.26514
0.4255	9.86938
0.426	18.63098
0.4265	22.15576
0.427	33.33435
0.4275	46.82922
0.428	55.18799
0.4285	53.17383
0.429	54.28162
0.4295	51.76392
0.43	51.36108
0.4305	46.12427
0.431	40.58533
0.4315	31.52161
0.432	23.66638
0.4325	12.89062
0.433	11.38
0.4335	-2.92053
0.434	-15.81116
0.4345	-20.84656
0.435	-13.59558
0.4355	-19.63806
0.436	-17.22107
0.4365	-12.28638
0.437	-1.10779
0.4375	8.15735
0.438	8.8623
0.4385	0.70496
0.439	-1.10779
0.4395	1.91345
0.44	20.04089
0.4405	37.7655
0.441	42.59949
0.4415	44.61365
0.442	36.95984
0.4425	19.73877
0.443	4.33044
0.4435	-20.04089
0.444	-35.65063
0.4445	-48.33984
0.445	-60.4248
0.4455	-62.43896
0.446	-51.66321
0.4465	-44.0094
0.447	-40.58533
0.4475	-39.07471
0.448	-28.50037
0.4485	-22.55859
0.449	-17.12036
0.4495	-6.44531
0.45	-1.61133
0.4505	-0.60425
0.451	4.53186
0.4515	6.64673
0.452	7.5531
0.4525	4.22974
0.453	1.81274
0.4535	2.71912
0.454	-0.20142
0.4545	4.83398
0.455	5.94177
0.4555	8.45947
0.456	2.81982
0.4565	14.90479
0.457	21.04797
0.4575	33.23364
0.458	29.00391
0.4585	25.27771
0.459	37.46338
0.4595	46.12427
0.46	50.75684
0.4605	65.56091
0.461	67.97791
0.4615	80.16357
0.462	89.63013
0.4625	85.60181
0.463	76.53809
0.4635	66.06445
0.464	43.50586
0.4645	32.83081
0.465	3.02124
0.4655	-7.85522
0.466	-24.16992
0.4665	-36.05347
0.467	-39.57825
0.4675	-46.5271
0.468	-53.67737
0.4685	-56.90002
0.469	-62.43896
0.4695	-61.23047
0.47	-55.49011
0.4705	-61.23047
0.471	-58.00781
0.4715	-42.19666
0.472	-35.75134
0.4725	-17.82532
0.473	-18.8324
0.4735	-3.12195
0.474	-1.71204
0.4745	1.81274
0.475	9.46655
0.4755	8.35876
0.476	17.52319
0.4765	19.03381
0.477	16.61682
0.4775	17.52319
0.478	21.65222
0.4785	25.98267
0.479	19.73877
0.4795	23.06213
0.48	25.177
0.4805	33.73718
0.481	37.96692
0.4815	54.88586
0.482	58.91418
0.4825	61.33118
0.483	54.38232
0.4835	51.5625
0.484	41.79382
0.4845	30.01099
0.485	30.11169
0.4855	21.65222
0.486	18.63098
0.4865	13.09204
0.487	10.47363
0.4875	4.02832
0.488	3.8269
0.4885	-2.41699
0.489	-6.64673
0.4895	-2.71912
0.49	-17.01965
0.4905	-12.78992
0.491	-12.99133
0.4915	-16.11328
0.492	-17.92603
0.4925	-30.51453
0.493	-32.62939
0.4935	-40.08179
0.494	-34.14001
0.4945	-29.10461
0.495	-23.26355
0.4955	-21.85364
0.496	-18.02673
0.4965	-13.797
0.497	-9.86938
0.4975	-2.92053
0.498	0.30212
0.4985	9.76868
0.499	17.01965
0.4995	16.61682
0.5	20.34302
0.5005	23.16284
0.501	27.59399
0.5015	25.27771
0.502	22.05505
0.5025	35.04639
0.503	41.39099
0.5035	35.54993
0.504	36.95984
0.5045	40.1825
0.505	44.81506
0.5055	39.07471
0.506	38.47046
0.5065	29.20532
0.507	26.48621
0.5075	14.90479
0.508	3.42407
0.5085	-7.5531
0.509	-19.43665
0.5095	-22.76001
0.51	-28.70178
0.5105	-35.75134
0.511	-30.51453
0.5115	-24.27063
0.512	-24.87488
0.5125	-25.37842
0.513	-21.3501
0.5135	-29.40674
0.514	-20.24231
0.5145	-20.04089
0.515	-12.38708
0.5155	-3.32336
0.516	3.22266
0.5165	2.01416
0.517	-0.70496
0.5175	0.70496
0.518	-0.60425
0.5185	15.30762
0.519	21.14868
0.5195	26.68762
0.52	26.78833
0.5205	34.14001
0.521	45.3186
0.5215	52.67029
0.522	58.30994
0.5225	61.6333
0.523	67.17224
0.5235	70.29419
0.524	74.12109
0.5245	64.25171
0.525	57.40356
0.5255	45.72144
0.526	30.71594
0.5265	15.50903
0.527	1.91345
0.5275	-9.97009
0.528	-19.43665
0.5285	-24.57275
0.529	-18.93311
0.5295	-13.59558
0.53	-12.18567
0.5305	3.62549
0.531	26.48621
0.5315	35.14709
0.532	37.7655
0.5325	43.40515
0.533	48.03772
0.5335	37.7655
0.534	26.98975
0.5345	10.17151
0.535	2.31628
0.5355	-4.43115
0.536	-25.177
0.5365	-33.03223
0.537	-46.82922
0.5375	-54.68445
0.538	-53.67737
0.5385	-46.12427
0.539	-57.60498
0.5395	-55.2887
0.54	-54.48303
0.5405	-44.91577
0.541	-40.58533
0.5415	-29.70886
0.542	-25.68054
0.5425	-23.06213
0.543	-11.07788
0.5435	-4.02832
0.544	2.92053
0.5445	6.84814
0.545	9.76868
0.5455	18.12744
0.546	27.19116
0.5465	26.98975
0.547	23.36426
0.5475	21.3501
0.548	26.18408
0.5485	29.50745
0.549	27.89612
0.5495	27.39258
0.55	21.65222
0.5505	19.73877
0.551	22.76001
0.5515	16.61682
0.552	9.97009
0.5525	8.8623
0.553	13.69629
0.5535	19.43665
0.554	33.73718
0.5545	38.87329
0.555	52.771
0.5555	65.66162
0.556	80.06287
0.5565	85.60181
0.557	79.66003
0.5575	67.97791
0.558	58.20923
0.5585	58.00781
0.559	46.12427
0.5595	26.58691
0.56	14.70337
0.5605	13.99841
0.561	8.05664
0.5615	-8.66089
0.562	-18.63098
0.5625	-34.94568
0.563	-44.51294
0.5635	-59.01489
0.564	-67.8772
0.5645	-74.52393
0.565	-79.55933
0.5655	-73.11401
0.566	-63.94958
0.5665	-67.67578
0.567	-56.49719
0.5675	-45.92285
0.568	-45.11719
0.5685	-33.03223
0.569	-23.66638
0.5695	-20.54443
0.57	-15.50903
0.5705	-13.09204
0.571	-14.50195
0.5715	-20.54443
0.572	-21.55151
0.5725	-9.16443
0.573	0
0.5735	7.04956
0.574	19.03381
0.5745	22.86072
0.575	23.66638
0.5755	33.73718
0.576	36.05347
0.5765	30.51453
0.577	25.98267
0.5775	23.76709
0.578	16.51611
0.5785	2.61841
0.579	-6.3446
0.5795	-16.51611
0.58	-19.23523
0.5805	-23.96851
0.581	-18.42957
0.5815	-10.77576
0.582	-16.3147
0.5825	-0.90637
0.583	9.97009
0.5835	23.26355
0.584	33.23364
0.5845	45.3186
0.585	62.23755
0.5855	71.09985
0.586	70.29419
0.5865	64.75525
0.587	59.01489
0.5875	51.46179
0.588	44.31152
0.5885	33.23364
0.589	19.13452
0.5895	8.35876
0.59	3.52478
0.5905	5.0354
0.591	15.1062
0.5915	29.70886
0.592	42.90161
0.5925	52.36816
0.593	48.44055
0.5935	49.44763
0.594	55.2887
0.5945	57.20215
0.595	53.77808
0.5955	48.13843
0.596	29.30603
0.5965	16.41541
0.597	-1.71204
0.5975	-27.19116
0.598	-47.63489
0.5985	-54.48303
0.599	-68.68286
0.5995	-71.80481
0.6	-77.14233
0.6005	-72.9126
0.601	-56.49719
0.6015	-47.03064
0.602	-39.67896
0.6025	-33.13293
0.603	-27.59399
0.6035	-28.29895
0.604	-31.92444
0.6045	-26.48621
0.605	-24.27063
0.6055	-26.68762
0.606	-26.78833
0.6065	-21.65222
0.607	-6.44531
0.6075	-2.92053
0.608	-4.33044
0.6085	-0.20142
0.609	5.53894
0.6095	10.37292
0.61	6.44531
0.6105	15.20691
0.611	23.66638
0.6115	19.94019
0.612	31.4209
0.6125	34.03931
0.613	36.55701
0.6135	38.87329
0.614	34.24072
0.6145	27.99683
0.615	29.40674
0.6155	29.40674
0.616	26.3855
0.6165	27.19116
0.617	24.57275
0.6175	24.16992
0.618	24.77417
0.6185	18.53027
0.619	13.49487
0.6195	14.09912
0.62	6.14319
0.6205	7.35168
0.621	11.58142
0.6215	10.87646
0.622	11.07788
0.6225	6.3446
0.623	1.51062
0.6235	4.33044
0.624	1.91345
0.6245	-5.74036
0.625	-0.70496
0.6255	-3.22266
0.626	4.22974
0.6265	-1.00708
0.627	-3.42407
0.6275	0
0.628	1.81274
0.6285	11.2793
0.629	14.60266
0.6295	17.82532
0.63	39.37683
0.6305	47.33276
0.631	52.06604
0.6315	60.3241
0.632	58.20923
0.6325	47.93701
0.633	46.22498
0.6335	29.20532
0.634	20.54443
0.6345	13.09204
0.635	3.02124
0.6355	-4.93469
0.636	-18.02673
0.6365	-31.21948
0.637	-20.64514
0.6375	-16.01257
0.638	-14.70337
0.6385	-16.21399
0.639	0.20142
0.6395	15.50903
0.64	23.96851
0.6405	26.28479
0.641	14.50195
0.6415	22.96143
0.642	24.16992
0.6425	23.56567
0.643	9.66797
0.6435	-0.90637
0.644	-14.50195
0.6445	-30.71594
0.645	-37.66479
0.6455	-48.64197
0.646	-66.26587
0.6465	-79.35791
0.647	-79.15649
0.6475	-86.50818
0.648	-82.47986
0.6485	-78.95508
0.649	-78.85437
0.6495	-65.76233
0.65	-44.71436
0.6505	-19.53735
0.651	-4.12903
0.6515	18.22815
0.652	20.64514
0.6525	25.98267
0.653	28.9032
0.6535	37.66479
0.654	47.53418
0.6545	47.7356
0.655	53.27454
0.6555	47.43347
0.656	41.99524
0.6565	29.50745
0.657	18.63098
0.6575	9.76868
0.658	-3.7262
0.6585	0.20142
0.659	4.53186
0.6595	14.60266
0.66	19.23523
0.6605	24.27063
0.661	29.20532
0.6615	29.60815
0.662	33.9386
0.6625	31.11877
0.663	33.63647
0.6635	24.67346
0.664	25.47913
0.6645	27.19116
0.665	24.06921
0.6655	29.00391
0.666	35.04639
0.6665	44.41223
0.667	49.0448
0.6675	45.3186
0.668	39.07471
0.6685	35.34851
0.669	24.67346
0.6695	23.06213
0.67	25.37842
0.6705	29.91028
0.671	25.27771
0.6715	25.37842
0.672	28.39966
0.6725	38.06763
0.673	48.84338
0.6735	58.51135
0.674	58.91418
0.6745	53.57666
0.675	36.4563
0.6755	31.32019
0.676	13.797
0.6765	-3.62549
0.677	-25.78125
0.6775	-39.77966
0.678	-51.46179
0.6785	-61.53259
0.679	-71.50269
0.6795	-77.34375
0.68	-80.4657
0.6805	-81.37207
0.681	-72.61047
0.6815	-65.15808
0.682	-64.05029
0.6825	-57.10144
0.683	-37.86621
0.6835	-23.26355
0.684	-9.26514
0.6845	-1.91345
0.685	6.84814
0.6855	21.55151
0.686	20.34302
0.6865	26.28479
0.687	30.11169
0.6875	33.83789
0.688	30.41382
0.6885	30.71594
0.689	32.32727
0.6895	36.35559
0.69	29.80957
0.6905	28.50037
0.691	25.88196
0.6915	17.82532
0.692	17.22107
0.6925	7.25098
0.693	6.84814
0.6935	17.12036
0.694	31.11877
0.6945	40.2832
0.695	47.63489
0.6955	55.3894
0.696	60.4248
0.6965	62.03613
0.697	68.98499
0.6975	64.75525
0.698	58.71277
0.6985	52.26746
0.699	47.93701
0.6995	24.47205
0.7	14.50195
0.7005	1.3092
0.701	-19.33594
0.7015	-36.4563
0.702	-55.3894
0.7025	-71.50269
0.703	-78.04871
0.7035	-88.82446
0.704	-96.37756
0.7045	-100.80872
0.705	-94.06128
0.7055	-78.25012
0.706	-66.46729
0.7065	-52.67029
0.707	-28.50037
0.7075	-13.19275
0.708	-6.3446
0.7085	2.92053
0.709	10.0708
0.7095	16.81824
0.71	15.91187
0.7105	22.15576
0.711	19.73877
0.7115	34.24072
0.712	34.54285
0.7125	32.62939
0.713	31.21948
0.7135	37.56409
0.714	21.55151
0.7145	28.70178
0.715	21.55151
0.7155	19.73877
0.716	21.95435
0.7165	19.43665
0.717	15.71045
0.7175	9.16443
0.718	-5.74036
0.7185	-4.33044
0.719	-1.71204
0.7195	-8.15735
0.72	-5.13611
0.7205	-8.8623
0.721	-22.35718
0.7215	-30.41382
0.722	-41.08887
0.7225	-37.96692
0.723	-33.33435
0.7235	-19.23523
0.724	-3.62549
0.7245	7.75452
0.725	15.20691
0.7255	18.02673
0.726	22.55859
0.7265	23.66638
0.727	29.00391
0.7275	19.83948
0.728	19.83948
0.7285	9.16443
0.729	-0.70496
0.7295	-9.26514
0.73	-5.43823
0.7305	-8.45947
0.731	-5.43823
0.7315	-8.7616
0.732	-7.04956
0.7325	-4.02832
0.733	-1.00708
0.7335	4.83398
0.734	12.28638
0.7345	17.01965
0.735	28.60107
0.7355	26.88904
0.736	36.95984
0.7365	39.67896
0.737	41.79382
0.7375	45.3186
0.738	46.22498
0.7385	48.54126
0.739	54.0802
0.7395	44.61365
0.74	42.29736
0.7405	31.01807
0.741	20.84656
0.7415	16.61682
0.742	4.73328
0.7425	-2.5177
0.743	-6.74744
0.7435	-2.41699
0.744	2.61841
0.7445	7.95593
0.745	17.92603
0.7455	23.36426
0.746	23.26355
0.7465	33.33435
0.747	48.44055
0.7475	55.99365
0.748	56.19507
0.7485	49.44763
0.749	28.60107
0.7495	16.01257
0.75	8.25806
0.7505	0.70496
0.751	2.21558
0.7515	8.7616
0.752	7.5531
0.7525	4.12903
0.753	-1.3092
0.7535	-15.00549
0.754	-23.26355
0.7545	-33.9386
0.755	-31.52161
0.7555	-33.73718
0.756	-28.39966
0.7565	-16.3147
0.757	-14.90479
0.7575	-14.50195
0.758	-18.93311
0.7585	-21.24939
0.759	-23.8678
0.7595	-28.70178
0.76	-22.76001
0.7605	-12.48779
0.761	-4.33044
0.7615	-0.20142
0.762	-3.32336
0.7625	-6.14319
0.763	-12.38708
0.7635	-15.91187
0.764	-24.47205
0.7645	-34.44214
0.765	-31.52161
0.7655	-21.04797
0.766	-5.0354
0.7665	8.35876
0.767	6.14319
0.7675	10.77576
0.768	21.85364
0.7685	14.40125
0.769	17.12036
0.7695	8.25806
0.77	10.57434
0.7705	6.2439
0.771	6.74744
0.7715	12.5885
0.772	17.92603
0.7725	15.1062
0.773	15.30762
0.7735	26.28479
0.774	26.68762
0.7745	32.42798
0.775	28.19824
0.7755	25.37842
0.776	18.53027
0.7765	16.01257
0.777	15.30762
0.7775	20.54443
0.778	21.24939
0.7785	18.63098
0.779	9.36584
0.7795	5.43823
0.78	5.23682
0.7805	0.20142
0.781	-6.14319
0.7815	-10.97717
0.782	-7.15027
0.7825	-2.92053
0.783	6.94885
0.7835	11.68213
0.784	30.31311
0.7845	36.05347
0.785	43.10303
0.7855	44.41223
0.786	44.91577
0.7865	34.14001
0.787	27.19116
0.7875	23.96851
0.788	17.52319
0.7885	10.0708
0.789	2.21558
0.7895	-2.01416
0.79	-6.74744
0.7905	-10.77576
0.791	-14.19983
0.7915	-25.98267
0.792	-17.52319
0.7925	-18.42957
0.793	-20.74585
0.7935	-15.81116
0.794	-16.21399
0.7945	-10.67505
0.795	-13.59558
0.7955	-15.60974
0.796	-17.22107
0.7965	-16.01257
0.797	-14.09912
0.7975	-20.04089
0.798	-20.64514
0.7985	-14.40125
0.799	-6.04248
0.7995	-3.42407
0.8	2.5177
0.8005	8.56018
0.801	12.78992
0.8015	15.91187
0.802	9.66797
0.8025	13.49487
0.803	21.85364
0.8035	22.15576
0.804	24.67346
0.8045	21.85364
0.805	21.3501
0.8055	17.52319
0.806	9.26514
0.8065	6.14319
0.807	-1.51062
0.8075	-3.12195
0.808	-5.43823
0.8085	-11.78284
0.809	-13.29346
0.8095	-13.99841
0.81	-8.8623
0.8105	-8.05664
0.811	-3.22266
0.8115	1.51062
0.812	11.17859
0.8125	13.19275
0.813	12.18567
0.8135	23.46497
0.814	24.87488
0.8145	31.01807
0.815	29.40674
0.8155	27.59399
0.816	27.09045
0.8165	24.27063
0.817	32.42798
0.8175	40.88745
0.818	47.13135
0.8185	46.5271
0.819	54.68445
0.8195	62.23755
0.82	58.41064
0.8205	48.03772
0.821	42.8009
0.8215	34.14001
0.822	26.88904
0.8225	21.3501
0.823	14.30054
0.8235	5.0354
0.824	-0.40283
0.8245	-6.14319
0.825	-7.65381
0.8255	-12.48779
0.826	-15.30762
0.8265	-16.11328
0.827	-12.5885
0.8275	-10.87646
0.828	-14.09912
0.8285	-10.67505
0.829	-8.35876
0.8295	-6.94885
0.83	-6.14319
0.8305	-0.30212
0.831	-2.5177
0.8315	-1.00708
0.832	-5.0354
0.8325	0
0.833	-1.71204
0.8335	3.8269
0.834	17.22107
0.8345	28.09753
0.835	38.47046
0.8355	39.17542
0.836	47.53418
0.8365	51.05896
0.837	48.44055
0.8375	53.87878
0.838	47.33276
0.8385	48.94409
0.839	42.7002
0.8395	26.58691
0.84	22.15576
0.8405	0
0.841	-8.66089
0.8415	-20.1416
0.842	-39.98108
0.8425	-47.53418
0.843	-61.83472
0.8435	-57.40356
0.844	-64.45312
0.8445	-65.46021
0.845	-57.10144
0.8455	-56.49719
0.846	-57.10144
0.8465	-45.01648
0.847	-36.35559
0.8475	-29.40674
0.848	-16.91895
0.8485	-7.35168
0.849	5.23682
0.8495	3.92761
0.85	-3.8269
0.8505	4.43115
0.851	4.63257
0.8515	4.53186
0.852	10.57434
0.8525	12.08496
0.853	15.00549
0.8535	17.01965
0.854	28.29895
0.8545	31.21948
0.855	34.84497
0.8555	34.84497
0.856	40.48462
0.8565	41.29028
0.857	33.03223
0.8575	40.08179
0.858	42.39807
0.8585	34.74426
0.859	31.21948
0.8595	23.06213
0.86	12.28638
0.8605	-4.12903
0.861	-11.17859
0.8615	-8.25806
0.862	-6.84814
0.8625	0.70496
0.863	9.56726
0.8635	19.83948
0.864	22.15576
0.8645	23.56567
0.865	25.57983
0.8655	29.00391
0.866	25.57983
0.8665	11.68213
0.867	1.81274
0.8675	-12.68921
0.868	-21.24939
0.8685	-29.00391
0.869	-31.82373
0.8695	-32.83081
0.87	-35.14709
0.8705	-34.54285
0.871	-36.4563
0.8715	-44.51294
0.872	-43.70728
0.8725	-43.80798
0.873	-44.81506
0.8735	-36.65771
0.874	-23.06213
0.8745	-7.85522
0.875	2.5177
0.8755	4.22974
0.876	9.46655
0.8765	12.5885
0.877	10.87646
0.8775	15.50903
0.878	14.40125
0.8785	20.94727
0.879	21.75293
0.8795	20.74585
0.88	23.8678
0.8805	34.03931
0.881	32.12585
0.8815	24.06921
0.882	25.68054
0.8825	24.87488
0.883	20.34302
0.8835	21.55151
0.884	22.86072
0.8845	27.29187
0.885	43.00232
0.8855	57.00073
0.886	58.61206
0.8865	63.24463
0.887	81.17065
0.8875	93.55774
0.888	92.95349
0.8885	83.28552
0.889	78.25012
0.8895	59.61914
0.89	51.26038
0.8905	35.65063
0.891	10.37292
0.8915	-5.84106
0.892	-18.42957
0.8925	-31.72302
0.893	-46.82922
0.8935	-54.28162
0.894	-60.4248
0.8945	-60.82764
0.895	-52.26746
0.8955	-40.58533
0.896	-35.65063
0.8965	-30.41382
0.897	-25.88196
0.8975	-9.76868
0.898	0.70496
0.8985	4.12903
0.899	13.59558
0.8995	18.02673
0.9	20.1416
0.9005	20.94727
0.901	10.37292
0.9015	19.43665
0.902	21.85364
0.9025	15.81116
0.903	8.15735
0.9035	6.84814
0.904	2.61841
0.9045	5.84106
0.905	7.25098
0.9055	-1.81274
0.906	-0.90637
0.9065	-10.0708
0.907	-16.3147
0.9075	-28.60107
0.908	-27.6947
0.9085	-39.47754
0.909	-36.05347
0.9095	-48.33984
0.91	-58.61206
0.9105	-60.52551
0.911	-63.14392
0.9115	-57.30286
0.912	-59.92126
0.9125	-51.15967
0.913	-44.41223
0.9135	-31.11877
0.914	-12.68921
0.9145	-1.40991
0.915	13.39417
0.9155	19.23523
0.916	19.94019
0.9165	27.39258
0.917	27.89612
0.9175	31.21948
0.918	32.12585
0.9185	26.78833
0.919	29.10461
0.9195	25.27771
0.92	34.14001
0.9205	37.26196
0.921	46.92993
0.9215	46.02356
0.922	36.65771
0.9225	34.24072
0.923	30.31311
0.9235	29.70886
0.924	26.88904
0.9245	22.86072
0.925	16.3147
0.9255	19.53735
0.926	6.44531
0.9265	1.81274
0.927	1.71204
0.9275	3.02124
0.928	-3.32336
0.9285	-10.87646
0.929	-4.12903
0.9295	7.85522
0.93	13.39417
0.9305	27.79541
0.931	37.66479
0.9315	38.87329
0.932	41.69312
0.9325	42.39807
0.933	43.30444
0.9335	35.65063
0.934	20.94727
0.9345	12.68921
0.935	2.31628
0.9355	-2.5177
0.936	-8.66089
0.9365	-7.45239
0.937	-6.2439
0.9375	-13.29346
0.938	-9.06372
0.9385	-7.5531
0.939	-4.12903
0.9395	1.00708
0.94	0
0.9405	0.20142
0.941	7.85522
0.9415	7.35168
0.942	17.6239
0.9425	22.6593
0.943	28.60107
0.9435	21.24939
0.944	24.97559
0.9445	22.6593
0.945	18.02673
0.9455	15.1062
0.946	7.04956
0.9465	10.0708
0.947	9.06372
0.9475	13.39417
0.948	13.39417
0.9485	16.81824
0.949	17.92603
0.9495	31.11877
0.95	44.21082
0.9505	62.13684
0.951	77.84729
0.9515	86.91101
0.952	88.42163
0.9525	82.07703
0.953	72.9126
0.9535	51.46179
0.954	37.86621
0.9545	16.3147
0.955	-4.93469
0.9555	-28.29895
0.956	-48.64197
0.9565	-66.46729
0.957	-81.27136
0.9575	-92.04712
0.958	-101.41296
0.9585	-110.17456
0.959	-112.59155
0.9595	-113.1958
0.96	-96.57898
0.9605	-69.58923
0.961	-60.82764
0.9615	-43.60657
0.962	-31.92444
0.9625	-17.12036
0.963	1.2085
0.9635	15.00549
0.964	14.50195
0.9645	22.25647
0.965	21.45081
0.9655	27.49329
0.966	30.71594
0.9665	36.75842
0.967	42.8009
0.9675	50.15259
0.968	58.10852
0.9685	64.55383
0.969	70.3949
0.9695	66.87012
0.97	60.3241
0.9705	55.59082
0.971	48.94409
0.9715	41.39099
0.972	32.32727
0.9725	29.50745
0.973	27.79541
0.9735	21.75293
0.974	13.99841
0.9745	10.37292
0.975	10.0708
0.9755	3.42407
0.976	5.23682
0.9765	5.33752
0.977	8.45947
0.9775	17.6239
0.978	23.36426
0.9785	25.27771
0.979	22.86072
0.9795	21.55151
0.98	15.81116
0.9805	6.74744
0.981	-0.40283
0.9815	-2.81982
0.982	-9.16443
0.9825	0.30212
0.983	-1.10779
0.9835	-7.95593
0.984	-7.5531
0.9845	-5.0354
0.985	-0.30212
0.9855	21.24939
0.986	45.62073
0.9865	52.8717
0.987	62.53967
0.9875	76.33667
0.988	76.7395
0.9885	78.14941
0.989	70.49561
0.9895	65.66162
0.99	63.24463
0.9905	58.81348
0.991	52.771
0.9915	30.91736
0.992	6.54602
0.9925	-18.73169
0.993	-40.88745
0.9935	-57.50427
0.994	-74.2218
0.9945	-89.42871
0.995	-91.24146
0.9955	-96.57898
0.996	-98.29102
0.9965	-107.45544
0.997	-106.44836
0.9975	-106.64978
0.998	-93.25562
0.9985	-83.48694
0.999	-58.81348
0.9995	-28.19824
1	3.92761
1.0005	20.54443
1.001	31.32019
1.0015	39.27612
1.002	44.51294
1.0025	44.81506
1.003	35.95276
1.0035	34.54285
1.004	25.177
1.0045	18.53027
1.005	10.87646
1.0055	7.5531
1.006	4.53186
1.0065	6.94885
1.007	-1.10779
1.0075	5.84106
1.008	9.06372
1.0085	8.25806
1.009	6.54602
1.0095	11.58142
1.01	9.86938
1.0105	15.71045
1.011	11.48071
1.0115	8.96301
1.012	10.57434
1.0125	10.67505
1.013	10.77576
1.0135	9.16443
1.014	9.06372
1.0145	0.80566
1.015	1.81274
1.0155	3.02124
1.016	1.40991
1.0165	5.33752
1.017	3.02124
1.0175	3.7262
1.018	-0.80566
1.0185	-3.42407
1.019	-0.30212
1.0195	-3.8269
1.02	-5.13611
1.0205	-10.27222
1.021	-9.16443
1.0215	-12.18567
1.022	-8.66089
1.0225	-10.27222
1.023	-13.99841
1.0235	-13.99841
1.024	-11.07788
1.0245	-17.01965
1.025	-10.77576
1.0255	-7.5531
1.026	-9.76868
1.0265	-2.71912
1.027	-10.97717
1.0275	-9.46655
1.028	-7.45239
1.0285	-6.04248
1.029	-3.62549
1.0295	-4.73328
1.03	3.22266
1.0305	18.63098
1.031	30.71594
1.0315	33.43506
1.032	37.66479
1.0325	48.94409
1.033	48.03772
1.0335	51.76392
1.034	47.13135
1.0345	56.39648
1.035	47.03064
1.0355	37.06055
1.036	33.33435
1.0365	18.73169
1.037	23.16284
1.0375	35.2478
1.038	37.06055
1.0385	29.00391
1.039	30.61523
1.0395	23.76709
1.04	18.22815
1.0405	11.48071
1.041	6.84814
1.0415	3.92761
1.042	9.76868
1.0425	12.68921
1.043	28.80249
1.0435	30.41382
1.044	37.16125
1.0445	31.92444
1.045	37.06055
1.0455	29.30603
1.046	23.26355
1.0465	19.03381
1.047	15.50903
1.0475	10.17151
1.048	7.85522
1.0485	-6.14319
1.049	-7.15027
1.0495	-7.25098
1.05	-12.5885
1.0505	-20.04089
1.051	-17.42249
1.0515	-13.19275
1.052	-12.5885
1.0525	-12.18567
1.053	-16.01257
1.0535	-14.40125
1.054	-21.75293
1.0545	-22.86072
1.055	-3.32336
1.0555	9.36584
1.056	20.34302
1.0565	30.41382
1.057	42.39807
1.0575	54.18091
1.058	57.10144
1.0585	63.44604
1.059	52.26746
1.0595	48.64197
1.06	37.16125
1.0605	25.177
1.061	21.95435
1.0615	13.89771
1.062	4.22974
1.0625	-7.65381
1.063	-17.32178
1.0635	-26.48621
1.064	-29.91028
1.0645	-37.16125
1.065	-42.19666
1.0655	-48.54126
1.066	-49.44763
1.0665	-57.70569
1.067	-58.10852
1.0675	-50.55542
1.068	-46.02356
1.0685	-35.75134
1.069	-33.43506
1.0695	-27.6947
1.07	-19.73877
1.0705	-16.01257
1.071	-12.08496
1.0715	-1.51062
1.072	9.46655
1.0725	14.09912
1.073	20.94727
1.0735	27.29187
1.074	32.02515
1.0745	33.53577
1.075	23.56567
1.0755	18.53027
1.076	21.14868
1.0765	18.22815
1.077	26.88904
1.0775	20.94727
1.078	19.43665
1.0785	13.69629
1.079	13.49487
1.0795	13.49487
1.08	6.94885
1.0805	2.01416
1.081	-1.61133
1.0815	-6.64673
1.082	-5.63965
1.0825	-11.68213
1.083	-16.71753
1.0835	-16.61682
1.084	-19.73877
1.0845	-13.99841
1.085	-15.30762
1.0855	-11.68213
1.086	-11.2793
1.0865	-7.04956
1.087	-4.43115
1.0875	0.90637
1.088	0.50354
1.0885	6.2439
1.089	3.02124
1.0895	0.50354
1.09	2.41699
1.0905	11.07788
1.091	20.54443
1.0915	35.75134
1.092	56.5979
1.0925	72.81189
1.093	82.68127
1.0935	84.59473
1.094	82.58057
1.0945	81.06995
1.095	80.16357
1.0955	70.09277
1.096	54.28162
1.0965	27.79541
1.097	10.47363
1.0975	-8.7616
1.098	-15.00549
1.0985	-34.94568
1.099	-47.33276
1.0995	-59.71985
1.1	-61.43188
1.1005	-57.70569
1.101	-45.92285
1.1015	-39.27612
1.102	-37.46338
1.1025	-15.81116
1.103	-6.84814
1.1035	6.44531
1.104	8.66089
1.1045	4.73328
1.105	5.43823
1.1055	8.66089
1.106	8.45947
1.1065	8.66089
1.107	8.66089
1.1075	12.38708
1.108	13.39417
1.1085	14.40125
1.109	17.12036
1.1095	15.1062
1.11	17.32178
1.1105	19.73877
1.111	13.09204
1.1115	18.53027
1.112	10.57434
1.1125	17.12036
1.113	7.95593
1.1135	2.5177
1.114	-3.22266
1.1145	0.20142
1.115	5.63965
1.1155	8.96301
1.116	25.07629
1.1165	22.05505
1.117	21.75293
1.1175	20.44373
1.118	24.97559
1.1185	35.75134
1.119	38.47046
1.1195	45.82214
1.12	49.44763
1.1205	60.82764
1.121	56.39648
1.1215	53.37524
1.122	49.34692
1.1225	34.94568
1.123	23.36426
1.1235	14.40125
1.124	2.81982
1.1245	-15.20691
1.125	-29.10461
1.1255	-37.06055
1.126	-38.47046
1.1265	-50.55542
1.127	-49.54834
1.1275	-38.36975
1.128	-27.09045
1.1285	-22.05505
1.129	-13.69629
1.1295	-11.58142
1.13	-13.29346
1.1305	-6.04248
1.131	3.12195
1.1315	3.12195
1.132	6.04248
1.1325	7.04956
1.133	3.7262
1.1335	15.91187
1.134	20.54443
1.1345	17.32178
1.135	17.6239
1.1355	12.28638
1.136	13.89771
1.1365	10.37292
1.137	2.21558
1.1375	1.51062
1.138	-13.29346
1.1385	-15.00549
1.139	-23.96851
1.1395	-23.46497
1.14	-22.55859
1.1405	-24.67346
1.141	-21.95435
1.1415	-15.00549
1.142	-13.19275
1.1425	-12.99133
1.143	-8.96301
1.1435	0.20142
1.144	-6.3446
1.1445	-3.62549
1.145	-2.01416
1.1455	-6.2439
1.146	-0.90637
1.1465	-2.11487
1.147	-1.40991
1.1475	-3.12195
1.148	-2.01416
1.1485	2.5177
1.149	-4.02832
1.1495	-0.10071
1.15	-5.0354
1.1505	-1.61133
1.151	-0.60425
1.1515	-3.92761
1.152	-2.21558
1.1525	-1.81274
1.153	2.11487
1.1535	-2.11487
1.154	-7.5531
1.1545	-13.19275
1.155	-15.40833
1.1555	-11.68213
1.156	-11.48071
1.1565	-3.12195
1.157	1.2085
1.1575	12.5885
1.158	13.09204
1.1585	12.78992
1.159	21.55151
1.1595	16.81824
1.16	21.14868
1.1605	37.46338
1.161	52.97241
1.1615	63.04321
1.162	59.1156
1.1625	55.18799
1.163	53.77808
1.1635	47.33276
1.164	38.06763
1.1645	30.61523
1.165	21.24939
1.1655	11.38
1.166	0.70496
1.1665	-13.59558
1.167	-25.57983
1.1675	-33.43506
1.168	-34.24072
1.1685	-33.73718
1.169	-36.85913
1.1695	-33.9386
1.17	-30.81665
1.1705	-19.23523
1.171	-0.30212
1.1715	22.86072
1.172	49.44763
1.1725	68.48145
1.173	75.32959
1.1735	75.4303
1.174	74.32251
1.1745	56.29578
1.175	41.69312
1.1755	31.32019
1.176	15.30762
1.1765	-1.40991
1.177	-15.50903
1.1775	-25.07629
1.178	-42.19666
1.1785	-41.08887
1.179	-41.69312
1.1795	-38.26904
1.18	-31.72302
1.1805	-16.51611
1.181	-6.3446
1.1815	-4.43115
1.182	7.45239
1.1825	7.65381
1.183	1.40991
1.1835	-1.3092
1.184	1.10779
1.1845	4.22974
1.185	1.61133
1.1855	8.25806
1.186	7.75452
1.1865	13.39417
1.187	15.1062
1.1875	18.63098
1.188	18.12744
1.1885	25.27771
1.189	23.16284
1.1895	24.06921
1.19	15.20691
1.1905	13.29346
1.191	8.66089
1.1915	8.45947
1.192	9.16443
1.1925	5.84106
1.193	5.74036
1.1935	10.87646
1.194	3.7262
1.1945	4.12903
1.195	-2.81982
1.1955	-3.42407
1.196	-4.33044
1.1965	-2.21558
1.197	1.00708
1.1975	-6.94885
1.198	-7.45239
1.1985	-4.83398
1.199	4.63257
1.1995	10.77576
1.2	11.88354
1.2005	13.19275
1.201	9.76868
1.2015	5.94177
1.202	6.14319
1.2025	2.5177
1.203	3.22266
1.2035	6.64673
1.204	7.25098
1.2045	8.96301
1.205	5.84106
1.2055	5.43823
1.206	1.61133
1.2065	0.50354
1.207	0.70496
1.2075	2.41699
1.208	1.81274
1.2085	5.13611
1.209	4.22974
1.2095	3.02124
1.21	-0.60425
1.2105	7.15027
1.211	1.61133
1.2115	9.76868
1.212	4.83398
1.2125	15.40833
1.213	24.57275
1.2135	34.14001
1.214	37.86621
1.2145	42.49878
1.215	36.05347
1.2155	34.14001
1.216	32.62939
1.2165	21.14868
1.217	21.24939
1.2175	15.20691
1.218	4.83398
1.2185	-6.44531
1.219	-13.19275
1.2195	-14.60266
1.22	-16.21399
1.2205	-26.68762
1.221	-22.86072
1.2215	-27.6947
1.222	-26.58691
1.2225	-15.1062
1.223	0.60425
1.2235	8.45947
1.224	13.99841
1.2245	16.91895
1.225	15.1062
1.2255	7.65381
1.226	4.93469
1.2265	-0.30212
1.227	-8.35876
1.2275	-7.25098
1.228	-5.84106
1.2285	-6.64673
1.229	4.93469
1.2295	9.26514
1.23	14.80408
1.2305	21.45081
1.231	19.83948
1.2315	14.09912
1.232	2.01416
1.2325	-0.10071
1.233	-8.45947
1.2335	-16.81824
1.234	-23.66638
1.2345	-27.49329
1.235	-27.6947
1.2355	-28.50037
1.236	-32.02515
1.2365	-28.80249
1.237	-24.47205
1.2375	-17.82532
1.238	-10.57434
1.2385	-5.0354
1.239	-5.94177
1.2395	-1.51062
1.24	0.10071
1.2405	5.84106
1.241	9.16443
1.2415	15.20691
1.242	24.57275
1.2425	24.16992
1.243	20.04089
1.2435	17.6239
1.244	20.34302
1.2445	19.33594
1.245	22.25647
1.2455	34.84497
1.246	44.61365
1.2465	55.59082
1.247	60.82764
1.2475	51.36108
1.248	53.57666
1.2485	49.0448
1.249	50.55542
1.2495	35.04639
1.25	21.85364
1.2505	19.13452
1.251	8.05664
1.2515	1.71204
1.252	2.31628
1.2525	6.64673
1.253	8.7616
1.2535	6.2439
1.254	5.74036
1.2545	3.7262
1.255	-3.92761
1.2555	-10.57434
1.256	-12.5885
1.2565	-14.50195
1.257	-17.12036
1.2575	-13.39417
1.258	-17.01965
1.2585	-23.16284
1.259	-31.32019
1.2595	-33.13293
1.26	-33.03223
1.2605	-37.7655
1.261	-33.33435
1.2615	-28.50037
1.262	-19.03381
1.2625	-12.5885
1.263	-2.21558
1.2635	-4.02832
1.264	-2.5177
1.2645	6.3446
1.265	10.17151
1.2655	15.30762
1.266	18.42957
1.2665	20.04089
1.267	19.83948
1.2675	36.4563
1.268	54.48303
1.2685	66.26587
1.269	68.48145
1.2695	74.82605
1.27	66.56799
1.2705	57.20215
1.271	48.54126
1.2715	34.14001
1.272	12.99133
1.2725	3.12195
1.273	-2.01416
1.2735	-8.45947
1.274	-17.82532
1.2745	-24.47205
1.275	-20.94727
1.2755	-17.82532
1.276	-15.71045
1.2765	-10.57434
1.277	-5.53894
1.2775	1.71204
1.278	18.32886
1.2785	31.11877
1.279	37.66479
1.2795	38.16833
1.28	46.92993
1.2805	52.8717
1.281	49.85046
1.2815	49.64905
1.282	43.90869
1.2825	33.63647
1.283	23.76709
1.2835	16.21399
1.284	-5.74036
1.2845	-24.16992
1.285	-34.03931
1.2855	-47.23206
1.286	-44.11011
1.2865	-35.75134
1.287	-12.28638
1.2875	-3.22266
1.288	12.38708
1.2885	25.78125
1.289	34.44214
1.2895	25.47913
1.29	15.60974
1.2905	9.56726
1.291	3.22266
1.2915	-2.01416
1.292	-2.31628
1.2925	-13.99841
1.293	-16.11328
1.2935	-18.12744
1.294	-22.35718
1.2945	-30.11169
1.295	-39.47754
1.2955	-46.62781
1.296	-40.48462
1.2965	-31.82373
1.297	-23.36426
1.2975	-19.23523
1.298	-14.90479
1.2985	-19.33594
1.299	-11.2793
1.2995	-4.93469
1.3	-3.92761
1.3005	8.05664
1.301	9.16443
1.3015	22.6593
1.302	26.58691
1.3025	25.177
1.303	16.71753
1.3035	15.91187
1.304	14.60266
1.3045	11.17859
1.305	12.99133
1.3055	13.09204
1.306	10.67505
1.3065	12.38708
1.307	12.18567
1.3075	13.39417
1.308	29.70886
1.3085	34.24072
1.309	47.63489
1.3095	47.23206
1.31	56.79932
1.3105	69.48853
1.311	86.50818
1.3115	91.54358
1.312	88.52234
1.3125	78.35083
1.313	60.3241
1.3135	38.974
1.314	20.04089
1.3145	3.02124
1.315	-14.40125
1.3155	-29.20532
1.316	-47.7356
1.3165	-68.48145
1.317	-82.47986
1.3175	-92.65137
1.318	-101.11084
1.3185	-91.8457
1.319	-97.38464
1.3195	-85.19897
1.32	-73.01331
1.3205	-55.89294
1.321	-39.57825
1.3215	-19.13452
1.322	-8.35876
1.3225	2.5177
1.323	14.09912
1.3235	23.76709
1.324	27.29187
1.3245	28.60107
1.325	30.2124
1.3255	25.177
1.326	26.3855
1.3265	26.48621
1.327	23.96851
1.3275	17.52319
1.328	20.74585
1.3285	21.65222
1.329	20.1416
1.3295	28.9032
1.33	28.19824
1.3305	27.39258
1.331	36.85913
1.3315	25.37842
1.332	23.46497
1.3325	15.71045
1.333	18.02673
1.3335	11.88354
1.334	1.91345
1.3345	0.60425
1.335	6.2439
1.3355	-6.04248
1.336	-18.32886
1.3365	-19.94019
1.337	-15.20691
1.3375	-7.75452
1.338	-11.88354
1.3385	-8.45947
1.339	3.32336
1.3395	8.8623
1.34	10.97717
1.3405	17.01965
1.341	19.94019
1.3415	18.63098
1.342	22.76001
1.3425	18.02673
1.343	15.40833
1.3435	9.36584
1.344	8.05664
1.3445	3.7262
1.345	2.31628
1.3455	15.00549
1.346	21.65222
1.3465	39.67896
1.347	45.41931
1.3475	44.11011
1.348	37.96692
1.3485	30.71594
1.349	16.91895
1.3495	8.45947
1.35	10.97717
1.3505	16.41541
1.351	22.45789
1.3515	16.21399
1.352	16.21399
1.3525	10.97717
1.353	3.7262
1.3535	-3.52478
1.354	-5.33752
1.3545	-11.17859
1.355	-5.43823
1.3555	-4.53186
1.356	-15.30762
1.3565	-18.63098
1.357	-30.11169
1.3575	-33.73718
1.358	-35.95276
1.3585	-28.19824
1.359	-17.82532
1.3595	-8.05664
1.36	-2.5177
1.3605	7.45239
1.361	7.04956
1.3615	14.90479
1.362	37.86621
1.3625	64.65454
1.363	77.74658
1.3635	85.80322
1.364	89.42871
1.3645	82.9834
1.365	84.79614
1.3655	79.15649
1.366	64.151
1.3665	52.06604
1.367	28.60107
1.3675	14.90479
1.368	-3.12195
1.3685	-23.76709
1.369	-41.99524
1.3695	-54.58374
1.37	-67.97791
1.3705	-81.06995
1.371	-78.55225
1.3715	-77.64587
1.372	-75.4303
1.3725	-66.97083
1.373	-46.82922
1.3735	-28.39966
1.374	-4.43115
1.3745	11.07788
1.375	31.32019
1.3755	35.14709
1.376	34.24072
1.3765	37.46338
1.377	31.4209
1.3775	27.09045
1.378	15.40833
1.3785	10.27222
1.379	3.42407
1.3795	-10.67505
1.38	-19.83948
1.3805	-28.9032
1.381	-28.80249
1.3815	-34.84497
1.382	-35.54993
1.3825	-31.82373
1.383	-32.93152
1.3835	-23.66638
1.384	-23.76709
1.3845	-8.96301
1.385	10.67505
1.3855	19.43665
1.386	31.01807
1.3865	30.71594
1.387	30.81665
1.3875	24.97559
1.388	14.90479
1.3885	4.22974
1.389	3.22266
1.3895	1.00708
1.39	-2.92053
1.3905	-0.60425
1.391	-9.26514
1.3915	-3.8269
1.392	-1.2085
1.3925	5.63965
1.393	14.30054
1.3935	14.40125
1.394	23.16284
1.3945	45.52002
1.395	54.88586
1.3955	65.86304
1.396	68.07861
1.3965	59.51843
1.397	47.23206
1.3975	34.74426
1.398	28.39966
1.3985	26.68762
1.399	11.38
1.3995	-5.53894
1.4	-20.04089
1.4005	-29.91028
1.401	-35.85205
1.4015	-46.72852
1.402	-52.46887
1.4025	-48.13843
1.403	-54.68445
1.4035	-40.48462
1.404	-28.09753
1.4045	-13.19275
1.405	-7.35168
1.4055	-9.76868
1.406	-6.14319
1.4065	0.70496
1.407	1.51062
1.4075	4.02832
1.408	6.94885
1.4085	5.13611
1.409	1.61133
1.4095	11.48071
1.41	19.94019
1.4105	18.32886
1.411	12.08496
1.4115	5.74036
1.412	14.90479
1.4125	17.82532
1.413	23.26355
1.4135	22.86072
1.414	22.86072
1.4145	18.53027
1.415	12.5885
1.4155	8.25806
1.416	3.22266
1.4165	-0.10071
1.417	2.5177
1.4175	-1.91345
1.418	-5.94177
1.4185	-10.97717
1.419	-10.67505
1.4195	-6.3446
1.42	-2.81982
1.4205	-4.02832
1.421	-2.41699
1.4215	1.81274
1.422	9.97009
1.4225	24.87488
1.423	36.35559
1.4235	49.95117
1.424	54.58374
1.4245	51.66321
1.425	43.50586
1.4255	45.72144
1.426	41.69312
1.4265	47.33276
1.427	39.37683
1.4275	33.9386
1.428	26.18408
1.4285	22.96143
1.429	25.88196
1.4295	21.95435
1.43	11.2793
1.4305	2.11487
1.431	-18.22815
1.4315	-26.78833
1.432	-33.43506
1.4325	-35.44922
1.433	-39.07471
1.4335	-44.51294
1.434	-44.41223
1.4345	-39.67896
1.435	-32.22656
1.4355	-22.55859
1.436	-13.29346
1.4365	6.64673
1.437	25.88196
1.4375	40.48462
1.438	41.99524
1.4385	45.41931
1.439	42.7002
1.4395	43.70728
1.44	37.66479
1.4405	28.70178
1.441	15.30762
1.4415	1.40991
1.442	-11.48071
1.4425	-22.15576
1.443	-34.14001
1.4435	-39.98108
1.444	-28.19824
1.4445	-26.68762
1.445	-23.26355
1.4455	-27.09045
1.446	-16.81824
1.4465	-16.3147
1.447	-6.04248
1.4475	1.00708
1.448	9.06372
1.4485	2.71912
1.449	1.00708
1.4495	-0.70496
1.45	-9.06372
1.4505	-8.8623
1.451	11.17859
1.4515	39.98108
1.452	49.95117
1.4525	63.74817
1.453	65.86304
1.4535	68.17932
1.454	59.1156
1.4545	47.63489
1.455	41.29028
1.4555	36.05347
1.456	29.10461
1.4565	27.39258
1.457	18.73169
1.4575	9.16443
1.458	0.80566
1.4585	-14.70337
1.459	-19.23523
1.4595	-31.32019
1.46	-39.27612
1.4605	-34.84497
1.461	-30.61523
1.4615	-32.52869
1.462	-26.78833
1.4625	-23.8678
1.463	-22.25647
1.4635	-16.71753
1.464	-17.6239
1.4645	-9.76868
1.465	4.53186
1.4655	3.02124
1.466	4.02832
1.4665	4.73328
1.467	0.80566
1.4675	3.62549
1.468	9.26514
1.4685	8.56018
1.469	18.32886
1.4695	19.13452
1.47	27.59399
1.4705	22.55859
1.471	21.95435
1.4715	10.47363
1.472	10.0708
1.4725	10.47363
1.473	7.75452
1.4735	7.75452
1.474	10.87646
1.4745	8.25806
1.475	11.17859
1.4755	11.98425
1.476	10.47363
1.4765	16.3147
1.477	14.40125
1.4775	9.26514
1.478	11.68213
1.4785	15.00549
1.479	13.09204
1.4795	8.45947
1.48	8.45947
1.4805	12.5885
1.481	9.56726
1.4815	11.2793
1.482	11.68213
1.4825	14.80408
1.483	22.6593
1.4835	35.2478
1.484	40.88745
1.4845	57.9071
1.485	69.28711
1.4855	61.73401
1.486	53.57666
1.4865	44.21082
1.487	50.95825
1.4875	40.68604
1.488	32.83081
1.4885	30.71594
1.489	31.4209
1.4895	30.11169
1.49	21.95435
1.4905	8.8623
1.491	-0.70496
1.4915	-1.3092
1.492	-6.44531
1.4925	-12.48779
1.493	-20.94727
1.4935	-23.06213
1.494	-33.43506
1.4945	-35.85205
1.495	-44.91577
1.4955	-52.06604
1.496	-60.02197
1.4965	-61.33118
1.497	-51.86462
1.4975	-47.13135
1.498	-50.55542
1.4985	-49.34692
1.499	-48.13843
1.4995	-46.62781
1.5	-48.03772
1.5005	-36.75842
1.501	-16.81824
1.5015	5.23682
1.502	20.34302
1.5025	24.97559
1.503	28.39966
1.5035	36.05347
1.504	31.92444
1.5045	31.82373
1.505	21.14868
1.5055	17.42249
1.506	20.94727
1.5065	14.19983
1.507	12.08496
1.5075	11.58142
1.508	10.67505
1.5085	11.98425
1.509	8.25806
1.5095	12.99133
1.51	14.60266
1.5105	7.75452
1.511	16.71753
1.5115	28.9032
1.512	40.48462
1.5125	43.00232
1.513	52.06604
1.5135	58.00781
1.514	58.81348
1.5145	62.74109
1.515	57.8064
1.5155	46.5271
1.516	36.35559
1.5165	22.25647
1.517	4.43115
1.5175	-19.63806
1.518	-30.2124
1.5185	-42.49878
1.519	-52.26746
1.5195	-55.79224
1.52	-62.64038
1.5205	-62.64038
1.521	-63.04321
1.5215	-61.33118
1.522	-53.77808
1.5225	-36.25488
1.523	-24.37134
1.5235	-7.75452
1.524	-0.50354
1.5245	5.84106
1.525	14.30054
1.5255	14.80408
1.526	17.12036
1.5265	15.1062
1.527	7.25098
1.5275	3.52478
1.528	-0.30212
1.5285	7.25098
1.529	19.43665
1.5295	31.4209
1.53	36.35559
1.5305	29.80957
1.531	19.94019
1.5315	15.50903
1.532	9.46655
1.5325	2.31628
1.533	4.22974
1.5335	-4.02832
1.534	-7.75452
1.5345	-12.68921
1.535	-13.59558
1.5355	-18.8324
1.536	-13.29346
1.5365	-4.22974
1.537	-1.40991
1.5375	4.43115
1.538	11.78284
1.5385	17.52319
1.539	26.88904
1.5395	26.3855
1.54	19.43665
1.5405	16.81824
1.541	13.39417
1.5415	3.92761
1.542	3.7262
1.5425	2.92053
1.543	-2.71912
1.5435	-11.98425
1.544	-9.97009
1.5445	-6.84814
1.545	-10.87646
1.5455	-14.80408
1.546	-3.8269
1.5465	-5.0354
1.547	1.2085
1.5475	-4.93469
1.548	-4.22974
1.5485	-1.40991
1.549	4.33044
1.5495	13.797
1.55	17.12036
1.5505	14.09912
1.551	10.17151
1.5515	12.28638
1.552	15.60974
1.5525	15.91187
1.553	11.07788
1.5535	10.57434
1.554	12.28638
1.5545	11.78284
1.555	12.28638
1.5555	23.46497
1.556	34.34143
1.5565	38.974
1.557	39.37683
1.5575	36.05347
1.558	39.07471
1.5585	24.67346
1.559	17.12036
1.5595	12.48779
1.56	9.06372
1.5605	-0.60425
1.561	-9.56726
1.5615	-10.57434
1.562	-14.40125
1.5625	-18.63098
1.563	-16.21399
1.5635	-18.73169
1.564	-7.04956
1.5645	7.75452
1.565	16.01257
1.5655	22.76001
1.566	25.88196
1.5665	22.55859
1.567	21.04797
1.5675	21.85364
1.568	16.3147
1.5685	9.36584
1.569	5.43823
1.5695	2.01416
1.57	-5.63965
1.5705	-4.43115
1.571	2.81982
1.5715	4.12903
1.572	19.94019
1.5725	31.21948
1.573	30.61523
1.5735	28.39966
1.574	22.45789
1.5745	19.33594
1.575	10.37292
1.5755	4.33044
1.576	-1.51062
1.5765	-7.45239
1.577	-13.09204
1.5775	-20.1416
1.578	-12.89062
1.5785	-7.85522
1.579	-6.64673
1.5795	-2.41699
1.58	-2.41699
1.5805	0.70496
1.581	-1.51062
1.5815	1.91345
1.582	10.37292
1.5825	22.55859
1.583	39.47754
1.5835	58.00781
1.584	71.90552
1.5845	79.35791
1.585	82.68127
1.5855	82.27844
1.586	72.61047
1.5865	54.0802
1.587	40.58533
1.5875	24.37134
1.588	1.2085
1.5885	-16.3147
1.589	-37.7655
1.5895	-58.81348
1.59	-68.07861
1.5905	-82.68127
1.591	-81.67419
1.5915	-76.33667
1.592	-71.40198
1.5925	-60.92834
1.593	-42.29736
1.5935	-32.93152
1.594	-15.40833
1.5945	-11.68213
1.595	-8.15735
1.5955	-6.44531
1.596	10.77576
1.5965	23.96851
1.597	26.58691
1.5975	41.18958
1.598	43.60657
1.5985	41.18958
1.599	40.48462
1.5995	34.54285
1.6	35.65063
1.6005	30.61523
1.601	20.74585
1.6015	13.797
1.602	6.64673
1.6025	-6.84814
1.603	-10.87646
1.6035	-25.78125
1.604	-29.91028
1.6045	-38.36975
1.605	-37.46338
1.6055	-36.95984
1.606	-37.86621
1.6065	-28.9032
1.607	-24.16992
1.6075	-13.49487
1.608	-4.93469
1.6085	3.32336
1.609	9.16443
1.6095	22.6593
1.61	32.42798
1.6105	44.51294
1.611	50.45471
1.6115	60.22339
1.612	66.06445
1.6125	68.58215
1.613	72.00623
1.6135	64.45312
1.614	60.3241
1.6145	41.69312
1.615	30.11169
1.6155	17.22107
1.616	1.40991
1.6165	-18.8324
1.617	-30.11169
1.6175	-41.99524
1.618	-53.57666
1.6185	-55.79224
1.619	-60.62622
1.6195	-58.81348
1.62	-54.18091
1.6205	-47.03064
1.621	-36.85913
1.6215	-28.80249
1.622	-16.21399
1.6225	-10.27222
1.623	-1.91345
1.6235	3.02124
1.624	11.38
1.6245	30.01099
1.625	40.58533
1.6255	58.51135
1.626	58.00781
1.6265	58.81348
1.627	50.15259
1.6275	58.91418
1.628	81.37207
1.6285	99.19739
1.629	102.01721
1.6295	93.15491
1.63	82.88269
1.6305	65.96375
1.631	55.08728
1.6315	48.74268
1.632	25.57983
1.6325	10.47363
1.633	-9.46655
1.6335	-18.8324
1.634	-37.86621
1.6345	-49.44763
1.635	-63.14392
1.6355	-71.60339
1.636	-76.94092
1.6365	-80.06287
1.637	-72.9126
1.6375	-73.11401
1.638	-73.51685
1.6385	-61.02905
1.639	-52.06604
1.6395	-32.62939
1.64	-11.68213
1.6405	12.18567
1.641	18.32886
1.6415	33.73718
1.642	43.90869
1.6425	40.58533
1.643	46.82922
1.6435	43.40515
1.644	35.44922
1.6445	31.01807
1.645	27.09045
1.6455	4.02832
1.646	-2.81982
1.6465	-6.3446
1.647	-13.59558
1.6475	-20.1416
1.648	-21.3501
1.6485	-23.96851
1.649	-27.79541
1.6495	-25.47913
1.65	-23.76709
1.6505	-21.85364
1.651	-15.91187
1.6515	-11.78284
1.652	-5.84106
1.6525	4.33044
1.653	21.3501
1.6535	32.93152
1.654	38.06763
1.6545	35.75134
1.655	38.57117
1.6555	29.00391
1.656	28.70178
1.6565	21.3501
1.657	19.83948
1.6575	23.66638
1.658	20.94727
1.6585	21.04797
1.659	16.71753
1.6595	25.07629
1.66	39.17542
1.6605	47.53418
1.661	78.95508
1.6615	111.38306
1.662	121.85669
1.6625	126.38855
1.663	108.05969
1.6635	97.38464
1.664	78.45154
1.6645	60.22339
1.665	31.32019
1.6655	7.65381
1.666	-16.41541
1.6665	-42.09595
1.667	-65.05737
1.6675	-90.03296
1.668	-100.30518
1.6685	-107.35474
1.669	-111.68518
1.6695	-100.30518
1.67	-92.65137
1.6705	-73.71826
1.671	-64.25171
1.6715	-57.40356
1.672	-44.41223
1.6725	-34.64355
1.673	-17.12036
1.6735	-1.40991
1.674	8.8623
1.6745	19.23523
1.675	22.45789
1.6755	31.32019
1.676	32.52869
1.6765	35.95276
1.677	29.60815
1.6775	28.60107
1.678	25.47913
1.6785	23.36426
1.679	15.20691
1.6795	12.18567
1.68	13.29346
1.6805	13.99841
1.681	14.70337
1.6815	22.6593
1.682	29.10461
1.6825	33.63647
1.683	33.9386
1.6835	34.14001
1.684	32.62939
1.6845	28.19824
1.685	35.14709
1.6855	35.44922
1.686	34.84497
1.6865	33.23364
1.687	25.98267
1.6875	21.65222
1.688	12.28638
1.6885	7.45239
1.689	6.94885
1.6895	-0.40283
1.69	-2.81982
1.6905	-4.83398
1.691	-13.69629
1.6915	-8.56018
1.692	-12.89062
1.6925	-13.19275
1.693	-1.00708
1.6935	11.38
1.694	10.27222
1.6945	3.22266
1.695	0.90637
1.6955	-1.00708
1.696	-10.17151
1.6965	-12.68921
1.697	-17.01965
1.6975	-13.99841
1.698	-14.09912
1.6985	-12.78992
1.699	-1.91345
1.6995	-2.81982
1.7	-2.21558
1.7005	-0.30212
1.701	-2.01416
1.7015	-1.51062
1.702	12.08496
1.7025	12.78992
1.703	14.50195
1.7035	18.32886
1.704	16.91895
1.7045	18.53027
1.705	26.78833
1.7055	24.57275
1.706	22.05505
1.7065	19.94019
1.707	13.09204
1.7075	5.84106
1.708	8.7616
1.7085	2.21558
1.709	4.22974
1.7095	8.66089
1.71	7.75452
1.7105	10.27222
1.711	10.87646
1.7115	9.56726
1.712	5.74036
1.7125	0.60425
1.713	-3.52478
1.7135	-1.51062
1.714	5.23682
1.7145	1.2085
1.715	3.8269
1.7155	-1.2085
1.716	5.53894
1.7165	15.81116
1.717	27.49329
1.7175	44.31152
1.718	59.82056
1.7185	69.08569
1.719	71.20056
1.7195	68.07861
1.72	73.41614
1.7205	67.27295
1.721	67.57507
1.7215	59.21631
1.722	44.21082
1.7225	24.47205
1.723	2.61841
1.7235	-13.29346
1.724	-32.12585
1.7245	-38.87329
1.725	-44.21082
1.7255	-52.36816
1.726	-42.59949
1.7265	-37.7655
1.727	-37.16125
1.7275	-30.81665
1.728	-35.2478
1.7285	-36.05347
1.729	-33.43506
1.7295	-31.82373
1.73	-32.42798
1.7305	-18.32886
1.731	11.78284
1.7315	37.46338
1.732	57.8064
1.7325	65.86304
1.733	66.6687
1.7335	55.08728
1.734	47.7356
1.7345	34.94568
1.735	29.20532
1.7355	11.68213
1.736	-2.81982
1.7365	-15.91187
1.737	-35.75134
1.7375	-50.45471
1.738	-56.69861
1.7385	-59.31702
1.739	-61.6333
1.7395	-60.02197
1.74	-47.13135
1.7405	-41.29028
1.741	-31.92444
1.7415	-26.48621
1.742	-24.67346
1.7425	-24.47205
1.743	-20.04089
1.7435	-16.61682
1.744	-6.64673
1.7445	2.21558
1.745	12.89062
1.7455	22.35718
1.746	38.67188
1.7465	39.07471
1.747	34.64355
1.7475	33.33435
1.748	20.64514
1.7485	23.06213
1.749	24.67346
1.7495	23.46497
1.75	21.75293
1.7505	21.3501
1.751	18.8324
1.7515	10.37292
1.752	10.37292
1.7525	1.61133
1.753	-0.20142
1.7535	-12.08496
1.754	-9.36584
1.7545	-9.06372
1.755	-7.45239
1.7555	-9.06372
1.756	-1.61133
1.7565	1.91345
1.757	12.08496
1.7575	16.51611
1.758	18.22815
1.7585	18.63098
1.759	17.92603
1.7595	17.42249
1.76	13.49487
1.7605	13.69629
1.761	3.42407
1.7615	7.65381
1.762	5.94177
1.7625	2.11487
1.763	9.97009
1.7635	24.67346
1.764	35.14709
1.7645	38.26904
1.765	59.01489
1.7655	64.85596
1.766	72.10693
1.7665	67.27295
1.767	69.38782
1.7675	57.8064
1.768	47.7356
1.7685	37.7655
1.769	19.73877
1.7695	1.61133
1.77	-12.18567
1.7705	-20.04089
1.771	-20.24231
1.7715	-26.08337
1.772	-31.01807
1.7725	-24.77417
1.773	-13.69629
1.7735	-2.41699
1.774	8.05664
1.7745	15.40833
1.775	22.35718
1.7755	17.6239
1.776	22.05505
1.7765	17.92603
1.777	10.67505
1.7775	5.63965
1.778	5.13611
1.7785	-0.90637
1.779	-6.84814
1.7795	-17.12036
1.78	-18.8324
1.7805	-27.99683
1.781	-22.96143
1.7815	-21.65222
1.782	-18.73169
1.7825	-23.76709
1.783	-24.37134
1.7835	-28.80249
1.784	-28.80249
1.7845	-33.83789
1.785	-27.09045
1.7855	-22.86072
1.786	-22.45789
1.7865	-19.83948
1.787	-14.30054
1.7875	-11.17859
1.788	-5.63965
1.7885	-4.53186
1.789	3.32336
1.7895	5.13611
1.79	9.97009
1.7905	8.45947
1.791	1.61133
1.7915	4.73328
1.792	16.91895
1.7925	18.8324
1.793	22.35718
1.7935	15.91187
1.794	18.93311
1.7945	18.32886
1.795	15.40833
1.7955	13.39417
1.796	11.38
1.7965	10.87646
1.797	12.28638
1.7975	10.87646
1.798	11.2793
1.7985	10.37292
1.799	2.81982
1.7995	3.8269
1.8	-2.31628
1.8005	-1.51062
1.801	-9.86938
1.8015	-12.68921
1.802	-15.1062
1.8025	-25.47913
1.803	-24.16992
1.8035	-22.25647
1.804	-17.32178
1.8045	-7.15027
1.805	-7.85522
1.8055	-1.81274
1.806	2.41699
1.8065	4.12903
1.807	7.5531
1.8075	19.73877
1.808	18.93311
1.8085	28.80249
1.809	34.34143
1.8095	33.53577
1.81	28.60107
1.8105	21.24939
1.811	25.07629
1.8115	22.15576
1.812	19.13452
1.8125	22.86072
1.813	44.61365
1.8135	83.68835
1.814	106.54907
1.8145	119.64111
1.815	116.41846
1.8155	117.32483
1.816	114.70642
1.8165	103.42712
1.817	87.11243
1.8175	68.48145
1.818	46.42639
1.8185	24.47205
1.819	-7.75452
1.8195	-32.02515
1.82	-52.8717
1.8205	-82.37915
1.821	-96.7804
1.8215	-117.92908
1.822	-131.52466
1.8225	-133.3374
1.823	-132.33032
1.8235	-116.11633
1.824	-102.31934
1.8245	-81.7749
1.825	-66.26587
1.8255	-46.82922
1.826	-36.75842
1.8265	-25.78125
1.827	-25.07629
1.8275	-13.797
1.828	-9.16443
1.8285	11.58142
1.829	24.27063
1.8295	34.84497
1.83	30.11169
1.8305	31.01807
1.831	27.99683
1.8315	26.28479
1.832	27.29187
1.8325	27.99683
1.833	27.49329
1.8335	25.177
1.834	22.25647
1.8345	21.3501
1.835	19.73877
1.8355	14.70337
1.836	17.82532
1.8365	5.43823
1.837	3.8269
1.8375	7.35168
1.838	7.95593
1.8385	9.66797
1.839	6.84814
1.8395	3.52478
1.84	5.13611
1.8405	2.41699
1.841	13.39417
1.8415	14.40125
1.842	18.32886
1.8425	17.82532
1.843	20.64514
1.8435	21.3501
1.844	21.3501
1.8445	22.6593
1.845	17.82532
1.8455	17.01965
1.846	19.13452
1.8465	7.85522
1.847	2.31628
1.8475	-2.41699
1.848	2.71912
1.8485	13.89771
1.849	30.01099
1.8495	33.83789
1.85	30.91736
1.8505	32.22656
1.851	24.87488
1.8515	19.63806
1.852	10.97717
1.8525	-1.51062
1.853	0.90637
1.8535	-2.41699
1.854	-2.11487
1.8545	-11.88354
1.855	-17.42249
1.8555	-16.51611
1.856	-17.42249
1.8565	-21.55151
1.857	-19.63806
1.8575	-14.60266
1.858	-5.33752
1.8585	-3.8269
1.859	-4.33044
1.8595	-2.21558
1.86	-4.12903
1.8605	7.15027
1.861	12.18567
1.8615	14.80408
1.862	15.81116
1.8625	19.53735
1.863	20.54443
1.8635	19.03381
1.864	12.18567
1.8645	8.15735
1.865	6.74744
1.8655	5.23682
1.866	8.66089
1.8665	7.95593
1.867	1.81274
1.8675	-0.60425
1.868	6.44531
1.8685	3.7262
1.869	7.15027
1.8695	6.2439
1.87	15.91187
1.8705	28.60107
1.871	38.57117
1.8715	44.81506
1.872	38.57117
1.8725	29.50745
1.873	35.44922
1.8735	39.67896
1.874	41.08887
1.8745	31.01807
1.875	27.39258
1.8755	3.12195
1.876	1.00708
1.8765	-3.02124
1.877	-5.63965
1.8775	-21.95435
1.878	-31.92444
1.8785	-36.05347
1.879	-49.74976
1.8795	-50.45471
1.88	-53.37524
1.8805	-47.03064
1.881	-40.38391
1.8815	-35.04639
1.882	-25.177
1.8825	-26.48621
1.883	-24.77417
1.8835	-13.99841
1.884	-12.18567
1.8845	-10.67505
1.885	-8.25806
1.8855	-5.53894
1.886	-6.14319
1.8865	1.2085
1.887	6.04248
1.8875	4.12903
1.888	17.01965
1.8885	40.1825
1.889	48.94409
1.8895	46.82922
1.89	63.24463
1.8905	74.32251
1.891	81.37207
1.8915	88.42163
1.892	94.56482
1.8925	90.23438
1.893	73.81897
1.8935	54.98657
1.894	26.3855
1.8945	1.2085
1.895	-24.37134
1.8955	-49.54834
1.896	-73.01331
1.8965	-78.04871
1.897	-75.53101
1.8975	-79.35791
1.898	-78.85437
1.8985	-73.81897
1.899	-63.34534
1.8995	-50.05188
1.9	-28.39966
1.9005	-11.78284
1.901	-4.33044
1.9015	2.21558
1.902	1.91345
1.9025	4.63257
1.903	21.45081
1.9035	30.11169
1.904	37.7655
1.9045	43.50586
1.905	37.96692
1.9055	41.29028
1.906	36.05347
1.9065	26.88904
1.907	35.95276
1.9075	45.92285
1.908	40.48462
1.9085	40.2832
1.909	38.36975
1.9095	35.04639
1.91	33.73718
1.9105	26.28479
1.911	25.88196
1.9115	15.60974
1.912	7.95593
1.9125	4.53186
1.913	-8.56018
1.9135	-14.40125
1.914	-21.04797
1.9145	-18.53027
1.915	-19.03381
1.9155	-23.66638
1.916	-26.28479
1.9165	-23.46497
1.917	-19.94019
1.9175	-8.8623
1.918	-0.20142
1.9185	6.64673
1.919	12.38708
1.9195	8.96301
1.92	14.30054
1.9205	19.73877
1.921	19.53735
1.9215	23.8678
1.922	17.6239
1.9225	11.07788
1.923	6.44531
1.9235	-4.33044
1.924	-4.22974
1.9245	-12.78992
1.925	-19.83948
1.9255	-20.84656
1.926	-17.72461
1.9265	-21.24939
1.927	-20.64514
1.9275	-19.33594
1.928	-16.01257
1.9285	-8.45947
1.929	-2.81982
1.9295	-0.50354
1.93	1.61133
1.9305	-7.25098
1.931	-2.81982
1.9315	-3.7262
1.932	-7.04956
1.9325	-2.61841
1.933	-4.93469
1.9335	0.40283
1.934	7.45239
1.9345	4.43115
1.935	10.17151
1.9355	14.80408
1.936	22.45789
1.9365	20.04089
1.937	19.94019
1.9375	19.33594
1.938	10.37292
1.9385	12.68921
1.939	14.80408
1.9395	16.11328
1.94	11.48071
1.9405	9.36584
1.941	8.05664
1.9415	8.25806
1.942	16.51611
1.9425	11.07788
1.943	5.43823
1.9435	5.53894
1.944	7.5531
1.9445	3.32336
1.945	2.61841
1.9455	3.22266
1.946	0.30212
1.9465	-6.64673
1.947	0.80566
1.9475	6.94885
1.948	8.7616
1.9485	1.71204
1.949	4.63257
1.9495	3.62549
1.95	1.71204
1.9505	-1.61133
1.951	-3.02124
1.9515	1.40991
1.952	8.25806
1.9525	6.54602
1.953	7.85522
1.9535	9.46655
1.954	4.63257
1.9545	2.41699
1.955	1.61133
1.9555	0.70496
1.956	1.51062
1.9565	1.61133
1.957	1.40991
1.9575	5.13611
1.958	6.04248
1.9585	5.74036
1.959	17.42249
1.9595	34.44214
1.96	54.18091
1.9605	54.58374
1.961	47.53418
1.9615	47.43347
1.962	36.65771
1.9625	27.89612
1.963	23.36426
1.9635	18.8324
1.964	18.63098
1.9645	18.42957
1.965	15.20691
1.9655	6.54602
1.966	-2.01416
1.9665	-16.41541
1.967	-18.12744
1.9675	-28.39966
1.968	-28.9032
1.9685	-40.88745
1.969	-46.42639
1.9695	-39.88037
1.97	-28.70178
1.9705	-33.03223
1.971	-32.7301
1.9715	-27.99683
1.972	-18.63098
1.9725	-11.48071
1.973	-7.15027
1.9735	2.81982
1.974	10.97717
1.9745	22.6593
1.975	18.32886
1.9755	20.64514
1.976	32.22656
1.9765	32.42798
1.977	22.05505
1.9775	12.48779
1.978	13.99841
1.9785	12.48779
1.979	8.45947
1.9795	9.66797
1.98	12.99133
1.9805	36.55701
1.981	56.90002
1.9815	62.43896
1.982	53.77808
1.9825	48.03772
1.983	38.67188
1.9835	45.3186
1.984	53.97949
1.9845	55.18799
1.985	60.62622
1.9855	58.10852
1.986	54.58374
1.9865	44.41223
1.987	26.68762
1.9875	12.99133
1.988	8.7616
1.9885	7.25098
1.989	5.0354
1.9895	5.74036
1.99	2.41699
1.9905	-9.97009
1.991	-16.21399
1.9915	-21.55151
1.992	-33.73718
1.9925	-41.4917
1.993	-50.45471
1.9935	-52.36816
1.994	-52.26746
1.9945	-50.354
1.995	-41.08887
1.9955	-39.17542
1.996	-30.31311
1.9965	-30.2124
1.997	-30.41382
1.9975	-26.28479
1.998	-21.75293
1.9985	-13.09204
1.999	-7.75452
1.9995	-6.64673
2	-2.5177
2.0005	8.45947
2.001	16.71753
2.0015	21.55151
2.002	24.37134
2.0025	18.53027
2.003	18.53027
2.0035	14.80408
2.004	11.98425
2.0045	9.06372
2.005	7.95593
2.0055	8.35876
2.006	2.81982
2.0065	3.8269
2.007	3.8269
2.0075	0.40283
2.008	4.12903
2.0085	6.74744
2.009	35.2478
2.0095	60.3241
2.01	72.20764
2.0105	85.5011
2.011	85.40039
2.0115	82.47986
2.012	91.64429
2.0125	100.80872
2.013	101.21155
2.0135	87.21313
2.014	72.71118
2.0145	65.76233
2.015	55.79224
2.0155	36.4563
2.016	23.76709
2.0165	1.10779
2.017	-17.6239
2.0175	-38.87329
2.018	-55.08728
2.0185	-65.05737
2.019	-78.95508
2.0195	-90.43579
2.02	-97.28394
2.0205	-100.10376
2.021	-96.7804
2.0215	-100.00305
2.022	-94.16199
2.0225	-86.40747
2.023	-78.04871
2.0235	-70.09277
2.024	-52.36816
2.0245	-48.94409
2.025	-30.51453
2.0255	-18.93311
2.026	-1.91345
2.0265	12.5885
2.027	12.18567
2.0275	11.17859
2.028	16.51611
2.0285	21.85364
2.029	23.76709
2.0295	25.37842
2.03	21.14868
2.0305	23.66638
2.031	16.71753
2.0315	16.01257
2.032	7.15027
2.0325	10.97717
2.033	10.27222
2.0335	15.91187
2.034	32.62939
2.0345	32.93152
2.035	35.85205
2.0355	23.46497
2.036	13.89771
2.0365	6.04248
2.037	6.2439
2.0375	-0.50354
2.038	-3.42407
2.0385	-10.87646
2.039	-13.99841
2.0395	-17.52319
2.04	-19.43665
2.0405	-18.42957
2.041	-19.13452
2.0415	-6.14319
2.042	17.22107
2.0425	32.62939
2.043	42.29736
2.0435	46.92993
2.044	54.38232
2.0445	52.56958
2.045	53.27454
2.0455	53.07312
2.046	50.55542
2.0465	45.3186
2.047	35.14709
2.0475	30.51453
2.048	12.99133
2.0485	2.41699
2.049	-9.66797
2.0495	-17.01965
2.05	-21.04797
2.0505	-20.74585
2.051	-26.98975
2.0515	-22.6593
2.052	-26.08337
2.0525	-28.9032
2.053	-35.04639
2.0535	-27.29187
2.054	-26.08337
2.0545	-27.79541
2.055	-18.02673
2.0555	-15.40833
2.056	-13.19275
2.0565	-2.71912
2.057	9.26514
2.0575	8.56018
2.058	16.3147
2.0585	23.16284
2.059	26.08337
2.0595	28.50037
2.06	36.85913
2.0605	39.98108
2.061	59.1156
2.0615	89.42871
2.062	96.7804
2.0625	94.76624
2.063	90.73792
2.0635	84.69543
2.064	70.19348
2.0645	61.93542
2.065	53.87878
2.0655	40.78674
2.066	19.23523
2.0665	-5.13611
2.067	-20.64514
2.0675	-32.93152
2.068	-47.8363
2.0685	-53.97949
2.069	-60.62622
2.0695	-66.87012
2.07	-63.44604
2.0705	-64.65454
2.071	-58.41064
2.0715	-49.24622
2.072	-44.91577
2.0725	-37.06055
2.073	-20.94727
2.0735	2.21558
2.074	26.78833
2.0745	42.59949
2.075	47.7356
2.0755	58.00781
2.076	67.17224
2.0765	68.28003
2.077	61.33118
2.0775	47.7356
2.078	38.36975
2.0785	27.99683
2.079	16.11328
2.0795	0.70496
2.08	-20.94727
2.0805	-37.06055
2.081	-54.78516
2.0815	-66.46729
2.082	-73.71826
2.0825	-64.05029
2.083	-64.65454
2.0835	-56.69861
2.084	-55.99365
2.0845	-41.4917
2.085	-36.85913
2.0855	-37.26196
2.086	-28.29895
2.0865	-20.74585
2.087	-8.25806
2.0875	1.00708
2.088	-3.12195
2.0885	5.0354
2.089	16.41541
2.0895	20.34302
2.09	25.78125
2.0905	21.95435
2.091	25.47913
2.0915	26.98975
2.092	19.23523
2.0925	24.47205
2.093	21.85364
2.0935	29.00391
2.094	27.49329
2.0945	26.48621
2.095	26.28479
2.0955	17.92603
2.096	15.00549
2.0965	13.59558
2.097	15.1062
2.0975	28.9032
2.098	27.59399
2.0985	26.78833
2.099	21.14868
2.0995	29.91028
2.1	26.3855
2.1005	27.49329
2.101	27.79541
2.1015	30.71594
2.102	25.98267
2.1025	18.32886
2.103	13.59558
2.1035	19.03381
2.104	16.71753
2.1045	12.28638
2.105	10.0708
2.1055	21.55151
2.106	22.05505
2.1065	25.78125
2.107	39.88037
2.1075	63.04321
2.108	68.38074
2.1085	74.02039
2.109	77.54517
2.1095	71.50269
2.11	62.53967
2.1105	57.8064
2.111	41.18958
2.1115	30.01099
2.112	9.06372
2.1125	-5.53894
2.113	-15.30762
2.1135	-19.73877
2.114	-27.79541
2.1145	-33.23364
2.115	-30.51453
2.1155	-23.46497
2.116	-20.34302
2.1165	-0.60425
2.117	12.5885
2.1175	14.60266
2.118	10.37292
2.1185	10.77576
2.119	5.33752
2.1195	0.30212
2.12	-10.87646
2.1205	-27.59399
2.121	-32.83081
2.1215	-45.2179
2.122	-63.84888
2.1225	-77.54517
2.123	-93.35632
2.1235	-93.45703
2.124	-87.61597
2.1245	-83.88977
2.125	-77.84729
2.1255	-66.56799
2.126	-60.22339
2.1265	-40.08179
2.127	-29.70886
2.1275	-13.59558
2.128	5.0354
2.1285	22.55859
2.129	38.16833
2.1295	47.63489
2.13	51.66321
2.1305	49.34692
2.131	49.95117
2.1315	44.0094
2.132	53.17383
2.1325	46.12427
2.133	33.43506
2.1335	20.84656
2.134	30.81665
2.1345	52.36816
2.135	63.34534
2.1355	66.6687
2.136	68.98499
2.1365	61.53259
2.137	55.79224
2.1375	47.93701
2.138	43.20374
2.1385	41.29028
2.139	29.00391
2.1395	11.2793
2.14	3.02124
2.1405	5.13611
2.141	4.12903
2.1415	0.90637
2.142	3.52478
2.1425	8.7616
2.143	6.04248
2.1435	-2.92053
2.144	-22.76001
2.1445	-35.65063
2.145	-50.354
2.1455	-47.33276
2.146	-46.5271
2.1465	-38.974
2.147	-41.08887
2.1475	-35.04639
2.148	-34.64355
2.1485	-32.32727
2.149	-26.48621
2.1495	-9.97009
2.15	3.62549
2.1505	16.41541
2.151	17.32178
2.1515	18.02673
2.152	14.90479
2.1525	15.71045
2.153	6.94885
2.1535	-2.41699
2.154	-1.10779
2.1545	-5.74036
2.155	-13.89771
2.1555	-21.04797
2.156	-20.94727
2.1565	-24.27063
2.157	-30.41382
2.1575	-28.09753
2.158	-22.05505
2.1585	-17.32178
2.159	-12.48779
2.1595	-8.35876
2.16	-2.31628
2.1605	5.43823
2.161	5.63965
2.1615	2.5177
2.162	5.63965
2.1625	9.97009
2.163	8.96301
2.1635	1.91345
2.164	-7.45239
2.1645	1.51062
2.165	4.12903
2.1655	-9.56726
2.166	-7.45239
2.1665	-10.17151
2.167	-11.2793
2.1675	-8.7616
2.168	-1.71204
2.1685	4.12903
2.169	8.15735
2.1695	13.89771
2.17	17.22107
2.1705	23.96851
2.171	32.52869
2.1715	28.19824
2.172	37.7655
2.1725	41.69312
2.173	41.59241
2.1735	42.49878
2.174	29.20532
2.1745	21.04797
2.175	1.3092
2.1755	-22.25647
2.176	-26.78833
2.1765	-21.55151
2.177	-23.8678
2.1775	-19.53735
2.178	-9.06372
2.1785	-1.91345
2.179	5.23682
2.1795	4.33044
2.18	-0.30212
2.1805	11.88354
2.181	16.71753
2.1815	26.58691
2.182	25.27771
2.1825	22.05505
2.183	18.63098
2.1835	20.94727
2.184	4.02832
2.1845	-3.52478
2.185	-10.67505
2.1855	-10.47363
2.186	-3.42407
2.1865	10.27222
2.187	22.25647
2.1875	31.52161
2.188	28.29895
2.1885	38.36975
2.189	55.99365
2.1895	71.80481
2.19	65.25879
2.1905	58.10852
2.191	44.61365
2.1915	32.52869
2.192	13.49487
2.1925	-7.75452
2.193	-20.64514
2.1935	-38.57117
2.194	-45.92285
2.1945	-53.07312
2.195	-49.85046
2.1955	-47.13135
2.196	-38.67188
2.1965	-34.44214
2.197	-21.55151
2.1975	-18.22815
2.198	-10.27222
2.1985	-2.81982
2.199	-5.13611
2.1995	11.07788
2.2	46.12427
2.2005	74.12109
2.201	100.00305
2.2015	103.42712
2.202	97.88818
2.2025	92.04712
2.203	83.18481
2.2035	58.51135
2.204	38.57117
2.2045	23.96851
2.205	5.0354
2.2055	-14.60266
2.206	-26.78833
2.2065	-29.91028
2.207	-35.14709
2.2075	-41.18958
2.208	-33.53577
2.2085	-27.89612
2.209	-21.55151
2.2095	-19.33594
2.21	-13.29346
2.2105	-13.39417
2.211	-19.94019
2.2115	-19.94019
2.212	-8.56018
2.2125	-2.81982
2.213	-0.60425
2.2135	0.40283
2.214	4.53186
2.2145	1.2085
2.215	-12.5885
2.2155	-19.23523
2.216	-21.3501
2.2165	-24.57275
2.217	-15.91187
2.2175	-13.89771
2.218	-6.54602
2.2185	0.70496
2.219	21.85364
2.2195	47.13135
2.22	69.28711
2.2205	75.4303
2.221	70.79773
2.2215	66.26587
2.222	58.91418
2.2225	48.74268
2.223	33.63647
2.2235	18.93311
2.224	9.76868
2.2245	-4.93469
2.225	-12.99133
2.2255	-18.63098
2.226	-24.97559
2.2265	-34.14001
2.227	-46.02356
2.2275	-47.43347
2.228	-35.14709
2.2285	-16.71753
2.229	-4.93469
2.2295	5.33752
2.23	12.78992
2.2305	17.92603
2.231	31.62231
2.2315	47.53418
2.232	54.98657
2.2325	62.13684
2.233	58.91418
2.2335	46.02356
2.234	33.33435
2.2345	15.60974
2.235	-4.12903
2.2355	-16.71753
2.236	-38.57117
2.2365	-55.18799
2.237	-60.02197
2.2375	-70.69702
2.238	-68.38074
2.2385	-66.06445
2.239	-59.71985
2.2395	-53.57666
2.24	-44.41223
2.2405	-36.4563
2.241	-35.04639
2.2415	-34.64355
2.242	-25.57983
2.2425	-18.22815
2.243	-8.8623
2.2435	-8.7616
2.244	-5.13611
2.2445	8.8623
2.245	20.54443
2.2455	22.6593
2.246	19.53735
2.2465	16.91895
2.247	18.53027
2.2475	17.42249
2.248	7.95593
2.2485	8.15735
2.249	14.50195
2.2495	23.16284
2.25	30.51453
2.2505	33.83789
2.251	30.2124
2.2515	32.42798
2.252	33.23364
2.2525	23.66638
2.253	20.84656
2.2535	20.04089
2.254	32.42798
2.2545	26.3855
2.255	22.76001
2.2555	28.70178
2.256	23.96851
2.2565	24.77417
2.257	21.95435
2.2575	21.85364
2.258	11.78284
2.2585	14.60266
2.259	-1.3092
2.2595	-9.86938
2.26	-21.55151
2.2605	-22.15576
2.261	-24.06921
2.2615	-25.177
2.262	-21.14868
2.2625	-12.99133
2.263	13.89771
2.2635	34.34143
2.264	38.77258
2.2645	49.0448
2.265	53.17383
2.2655	51.05896
2.266	54.28162
2.2665	50.05188
2.267	39.57825
2.2675	32.93152
2.268	22.6593
2.2685	7.85522
2.269	0.20142
2.2695	2.92053
2.27	-8.45947
2.2705	-10.57434
2.271	-13.797
2.2715	10.0708
2.272	33.03223
2.2725	44.0094
2.273	49.34692
2.2735	49.64905
2.274	49.24622
2.2745	38.06763
2.275	29.80957
2.2755	21.3501
2.276	10.87646
2.2765	-2.5177
2.277	-20.34302
2.2775	-23.8678
2.278	-26.88904
2.2785	-30.31311
2.279	-34.94568
2.2795	-30.11169
2.28	-11.17859
2.2805	0
2.281	15.91187
2.2815	30.41382
2.282	37.56409
2.2825	36.75842
2.283	31.11877
2.2835	28.70178
2.284	15.40833
2.2845	-0.30212
2.285	-13.99841
2.2855	-18.42957
2.286	-16.91895
2.2865	-22.45789
2.287	-22.55859
2.2875	-28.80249
2.288	-23.8678
2.2885	-17.6239
2.289	-15.1062
2.2895	-7.25098
2.29	-3.22266
2.2905	1.51062
2.291	0.30212
2.2915	11.68213
2.292	11.68213
2.2925	19.53735
2.293	17.6239
2.2935	20.54443
2.294	18.02673
2.2945	15.81116
2.295	17.92603
2.2955	14.60266
2.296	13.39417
2.2965	17.52319
2.297	11.38
2.2975	3.32336
2.298	4.43115
2.2985	-0.50354
2.299	6.14319
2.2995	-1.3092
2.3	0.90637
2.3005	4.12903
2.301	1.51062
2.3015	-2.71912
2.302	4.43115
2.3025	11.98425
2.303	24.16992
2.3035	39.88037
2.304	52.46887
2.3045	71.50269
2.305	107.75757
2.3055	148.4436
2.306	170.09583
2.3065	182.28149
2.307	172.10999
2.3075	154.38538
2.308	127.09351
2.3085	98.39172
2.309	62.9425
2.3095	21.3501
2.31	-12.89062
2.3105	-58.00781
2.311	-97.08252
2.3115	-129.5105
2.312	-150.65918
2.3125	-161.83777
2.313	-159.42078
2.3135	-153.07617
2.314	-138.27209
2.3145	-110.87952
2.315	-88.0188
2.3155	-68.48145
2.316	-53.37524
2.3165	-49.85046
2.317	-37.66479
2.3175	-24.27063
2.318	-12.89062
2.3185	0.40283
2.319	10.87646
2.3195	13.69629
2.32	24.27063
2.3205	24.97559
2.321	19.73877
2.3215	22.86072
2.322	25.177
2.3225	28.39966
2.323	20.34302
2.3235	16.51611
2.324	6.64673
2.3245	2.41699
2.325	2.92053
2.3255	5.43823
2.326	2.81982
2.3265	2.92053
2.327	-11.58142
2.3275	-3.42407
2.328	3.42407
2.3285	19.83948
2.329	31.52161
2.3295	33.03223
2.33	31.4209
2.3305	34.54285
2.331	27.19116
2.3315	24.57275
2.332	16.41541
2.3325	13.49487
2.333	0.40283
2.3335	-5.53894
2.334	-6.44531
2.3345	-9.06372
2.335	20.84656
2.3355	43.20374
2.336	60.02197
2.3365	74.92676
2.337	84.59473
2.3375	83.28552
2.338	87.11243
2.3385	68.48145
2.339	52.36816
2.3395	43.20374
2.34	27.29187
2.3405	6.84814
2.341	-7.95593
2.3415	-21.75293
2.342	-32.62939
2.3425	-42.49878
2.343	-48.54126
2.3435	-57.30286
2.344	-57.50427
2.3445	-57.40356
2.345	-49.44763
2.3455	-46.5271
2.346	-41.29028
2.3465	-40.08179
2.347	-27.59399
2.3475	-20.24231
2.348	-6.3446
2.3485	5.33752
2.349	13.49487
2.3495	16.51611
2.35	24.77417
2.3505	22.96143
2.351	25.88196
2.3515	17.42249
2.352	16.91895
2.3525	11.58142
2.353	8.96301
2.3535	9.97009
2.354	11.58142
2.3545	10.17151
2.355	15.40833
2.3555	11.07788
2.356	9.26514
2.3565	4.93469
2.357	1.61133
2.3575	6.04248
2.358	4.63257
2.3585	3.42407
2.359	-9.46655
2.3595	-17.72461
2.36	-26.58691
2.3605	-23.76709
2.361	-19.73877
2.3615	-21.65222
2.362	-26.08337
2.3625	-22.96143
2.363	-12.99133
2.3635	-12.5885
2.364	15.20691
2.3645	40.98816
2.365	58.30994
2.3655	77.34375
2.366	86.20605
2.3665	78.85437
2.367	74.52393
2.3675	61.73401
2.368	45.01648
2.3685	26.28479
2.369	5.94177
2.3695	-12.18567
2.37	-37.26196
2.3705	-44.81506
2.371	-54.28162
2.3715	-52.8717
2.372	-57.9071
2.3725	-50.55542
2.373	-41.99524
2.3735	-34.64355
2.374	-31.82373
2.3745	-27.79541
2.375	-25.57983
2.3755	-14.60266
2.376	20.74585
2.3765	37.7655
2.377	57.40356
2.3775	60.4248
2.378	50.354
2.3785	46.22498
2.379	25.37842
2.3795	4.93469
2.38	-6.74744
2.3805	-1.51062
2.381	2.01416
2.3815	5.23682
2.382	-5.43823
2.3825	-16.81824
2.383	-25.07629
2.3835	-32.12585
2.384	-45.62073
2.3845	-40.48462
2.385	-30.01099
2.3855	-32.42798
2.386	-25.37842
2.3865	-21.65222
2.387	-13.39417
2.3875	-5.0354
2.388	-6.44531
2.3885	7.95593
2.389	11.98425
2.3895	25.37842
2.39	31.92444
2.3905	27.89612
2.391	20.44373
2.3915	10.87646
2.392	12.38708
2.3925	13.29346
2.393	12.48779
2.3935	26.88904
2.394	29.20532
2.3945	27.09045
2.395	24.06921
2.3955	38.06763
2.396	42.59949
2.3965	47.43347
2.397	39.88037
2.3975	47.8363
2.398	54.18091
2.3985	55.99365
2.399	50.75684
2.3995	39.67896
2.4	27.19116
2.4005	21.14868
2.401	12.78992
2.4015	1.40991
2.402	-9.76868
2.4025	-23.76709
2.403	-29.91028
2.4035	-40.78674
2.404	-45.01648
2.4045	-38.26904
2.405	-32.83081
2.4055	-33.83789
2.406	-26.98975
2.4065	-20.34302
2.407	-17.92603
2.4075	-18.73169
2.408	-22.76001
2.4085	-0.40283
2.409	15.40833
2.4095	22.55859
2.41	29.30603
2.4105	26.3855
2.411	34.94568
2.4115	41.59241
2.412	38.57117
2.4125	34.54285
2.413	32.52869
2.4135	24.97559
2.414	18.02673
2.4145	10.57434
2.415	3.32336
2.4155	-4.22974
2.416	-7.75452
2.4165	-12.08496
2.417	-15.1062
2.4175	-15.40833
2.418	-13.797
2.4185	-10.17151
2.419	-4.02832
2.4195	-7.04956
2.42	-7.04956
2.4205	-2.41699
2.421	0.70496
2.4215	7.5531
2.422	10.67505
2.4225	16.01257
2.423	13.59558
2.4235	7.15027
2.424	15.1062
2.4245	15.71045
2.425	16.11328
2.4255	21.65222
2.426	23.36426
2.4265	26.18408
2.427	28.39966
2.4275	22.76001
2.428	24.47205
2.4285	23.16284
2.429	25.177
2.4295	20.34302
2.43	15.81116
2.4305	13.39417
2.431	11.88354
2.4315	8.25806
2.432	7.04956
2.4325	11.38
2.433	14.19983
2.4335	13.69629
2.434	19.94019
2.4345	11.88354
2.435	7.65381
2.4355	13.89771
2.436	13.89771
2.4365	11.38
2.437	14.30054
2.4375	14.40125
2.438	16.11328
2.4385	21.3501
2.439	18.42957
2.4395	16.91895
2.44	18.42957
2.4405	13.09204
2.441	11.68213
2.4415	9.66797
2.442	14.19983
2.4425	12.38708
2.443	10.87646
2.4435	16.61682
2.444	9.36584
2.4445	7.85522
2.445	7.04956
2.4455	-2.71912
2.446	-5.33752
2.4465	-13.797
2.447	-8.66089
2.4475	-11.48071
2.448	-5.33752
2.4485	-1.3092
2.449	-4.73328
2.4495	-10.67505
2.45	-11.88354
2.4505	-3.02124
2.451	-3.42407
2.4515	-1.61133
2.452	-7.25098
2.4525	-3.52478
2.453	-5.63965
2.4535	-3.32336
2.454	-5.0354
2.4545	-3.42407
2.455	-3.12195
2.4555	-9.36584
2.456	-2.01416
2.4565	-9.66797
2.457	-4.12903
2.4575	-0.80566
2.458	-1.00708
2.4585	0.20142
2.459	2.92053
2.4595	-0.20142
2.46	3.42407
2.4605	2.81982
2.461	9.46655
2.4615	10.77576
2.462	12.08496
2.4625	11.88354
2.463	8.05664
2.4635	13.69629
2.464	17.12036
2.4645	17.72461
2.465	12.38708
2.4655	11.78284
2.466	14.70337
2.4665	17.52319
2.467	17.12036
2.4675	14.50195
2.468	16.81824
2.4685	11.48071
2.469	6.84814
2.4695	9.16443
2.47	4.53186
2.4705	3.02124
2.471	-0.10071
2.4715	0.30212
2.472	-1.91345
2.4725	-11.07788
2.473	-8.56018
2.4735	-10.47363
2.474	-3.02124
2.4745	-7.75452
2.475	-8.45947
2.4755	-9.76868
2.476	-4.02832
2.4765	1.2085
2.477	-2.92053
2.4775	-6.3446
2.478	-3.7262
2.4785	-3.92761
2.479	-4.73328
2.4795	-6.64673
2.48	-4.63257
2.4805	-3.12195
2.481	-1.3092
2.4815	-3.62549
2.482	0.60425
2.4825	-1.3092
2.483	-9.86938
2.4835	-18.93311
2.484	-22.45789
2.4845	-31.01807
2.485	-27.79541
2.4855	-23.56567
2.486	-24.67346
2.4865	-24.47205
2.487	-21.45081
2.4875	-14.30054
2.488	-12.38708
2.4885	-4.83398
2.489	-1.81274
2.4895	0.50354
2.49	-0.70496
2.4905	1.3092
2.491	4.53186
2.4915	9.16443
2.492	14.40125
2.4925	15.40833
2.493	22.96143
2.4935	39.47754
2.494	48.33984
2.4945	51.15967
2.495	47.53418
2.4955	47.7356
2.496	46.82922
2.4965	44.21082
2.497	47.03064
2.4975	50.05188
2.498	46.82922
2.4985	41.29028
2.499	37.26196
2.4995	32.62939
2.5	23.66638
2.5005	22.55859
2.501	22.15576
2.5015	21.45081
2.502	18.32886
2.5025	15.40833
2.503	14.09912
2.5035	19.53735
2.504	15.91187
2.5045	18.32886
2.505	13.19275
2.5055	12.68921
2.506	10.0708
2.5065	8.7616
2.507	9.16443
2.5075	4.53186
2.508	4.22974
2.5085	10.87646
2.509	8.35876
2.5095	12.78992
2.51	10.57434
2.5105	7.95593
2.511	7.15027
2.5115	13.49487
2.512	9.36584
2.5125	5.33752
2.513	8.05664
2.5135	6.94885
2.514	9.66797
2.5145	8.56018
2.515	10.47363
2.5155	8.35876
2.516	16.21399
2.5165	13.29346
2.517	8.8623
2.5175	10.97717
2.518	2.5177
2.5185	3.92761
2.519	0.80566
2.5195	4.63257
2.52	1.51062
2.5205	8.56018
2.521	8.25806
2.5215	11.2793
2.522	3.92761
2.5225	3.32336
2.523	0.50354
2.5235	-0.10071
2.524	-3.42407
2.5245	-0.20142
2.525	0.70496
2.5255	0.10071
2.526	-0.50354
2.5265	-4.53186
2.527	-9.36584
2.5275	-10.17151
2.528	-12.78992
2.5285	-10.0708
2.529	-9.56726
2.5295	-17.6239
2.53	-22.35718
2.5305	-28.09753
2.531	-19.53735
2.5315	-8.15735
2.532	-4.33044
2.5325	10.77576
2.533	20.44373
2.5335	20.1416
2.534	17.6239
2.5345	11.88354
2.535	28.39966
2.5355	64.75525
2.536	97.78748
2.5365	115.10925
2.537	130.11475
2.5375	151.16272
2.538	153.68042
2.5385	146.02661
2.539	143.81104
2.5395	134.04236
2.54	110.27527
2.5405	80.56641
2.541	59.51843
2.5415	36.4563
2.542	-7.85522
2.5425	-38.974
2.543	-78.75366
2.5435	-112.08801
2.544	-141.79688
2.5445	-165.9668
2.545	-180.16663
2.5455	-189.73389
2.546	-193.56079
2.5465	-190.03601
2.547	-189.43176
2.5475	-182.08008
2.548	-165.36255
2.5485	-135.25085
2.549	-105.6427
2.5495	-70.89844
2.55	-42.29736
2.5505	-21.04797
2.551	1.51062
2.5515	23.66638
2.552	37.66479
2.5525	35.75134
2.553	40.68604
2.5535	53.07312
2.554	59.82056
2.5545	58.20923
2.555	57.60498
2.5555	68.58215
2.556	67.07153
2.5565	64.25171
2.557	52.46887
2.5575	48.84338
2.558	51.5625
2.5585	54.88586
2.559	49.0448
2.5595	33.43506
2.56	31.21948
2.5605	30.51453
2.561	24.77417
2.5615	26.78833
2.562	26.3855
2.5625	21.95435
2.563	28.9032
2.5635	23.56567
2.564	26.78833
2.5645	41.4917
2.565	43.10303
2.5655	37.46338
2.566	46.42639
2.5665	43.70728
2.567	31.21948
2.5675	19.43665
2.568	10.57434
2.5685	-1.81274
2.569	-0.50354
2.5695	-3.02124
2.57	-3.8269
2.5705	-3.52478
2.571	-14.40125
2.5715	-16.21399
2.572	-17.6239
2.5725	-18.32886
2.573	-17.12036
2.5735	-15.40833
2.574	-17.92603
2.5745	-10.57434
2.575	1.2085
2.5755	8.35876
2.576	-0.40283
2.5765	-12.68921
2.577	-21.3501
2.5775	-26.48621
2.578	-33.33435
2.5785	-34.14001
2.579	-28.39966
2.5795	-28.29895
2.58	-12.99133
2.5805	4.22974
2.581	6.54602
2.5815	-0.20142
2.582	1.2085
2.5825	7.5531
2.583	11.48071
2.5835	16.41541
2.584	18.63098
2.5845	16.51611
2.585	20.44373
2.5855	24.27063
2.586	26.08337
2.5865	25.57983
2.587	29.40674
2.5875	30.01099
2.588	30.51453
2.5885	35.75134
2.589	38.06763
2.5895	37.26196
2.59	33.13293
2.5905	31.21948
2.591	31.62231
2.5915	26.58691
2.592	18.22815
2.5925	15.91187
2.593	17.01965
2.5935	9.86938
2.594	11.58142
2.5945	4.02832
2.595	-4.63257
2.5955	-2.61841
2.596	7.25098
2.5965	1.40991
2.597	8.15735
2.5975	0.10071
2.598	1.71204
2.5985	15.20691
2.599	20.24231
2.5995	20.44373
2.6	20.84656
2.6005	13.69629
2.601	6.2439
2.6015	6.14319
2.602	1.3092
2.6025	2.01416
2.603	-12.28638
2.6035	-20.1416
2.604	-31.82373
2.6045	-30.11169
2.605	-13.19275
2.6055	-3.42407
2.606	3.02124
2.6065	9.56726
2.607	7.75452
2.6075	1.00708
2.608	0
2.6085	12.78992
2.609	32.42798
2.6095	39.37683
2.61	44.51294
2.6105	41.39099
2.611	19.43665
2.6115	-1.81274
2.612	-17.82532
2.6125	-26.48621
2.613	-30.2124
2.6135	-23.46497
2.614	-9.26514
2.6145	-3.22266
2.615	-1.40991
2.6155	16.3147
2.616	32.32727
2.6165	50.55542
2.617	56.49719
2.6175	59.82056
2.618	56.39648
2.6185	46.72852
2.619	38.47046
2.6195	20.54443
2.62	8.25806
2.6205	9.36584
2.621	0.80566
2.6215	-21.55151
2.622	-37.7655
2.6225	-40.2832
2.623	-41.89453
2.6235	-38.06763
2.624	-32.12585
2.6245	-35.44922
2.625	-47.7356
2.6255	-56.19507
2.626	-55.3894
2.6265	-46.32568
2.627	-44.71436
2.6275	-46.82922
2.628	-40.48462
2.6285	-32.7301
2.629	-23.96851
2.6295	-20.34302
2.63	-20.54443
2.6305	-7.25098
2.631	4.53186
2.6315	21.04797
2.632	30.91736
2.6325	34.24072
2.633	33.83789
2.6335	37.56409
2.634	43.20374
2.6345	41.89453
2.635	40.2832
2.6355	30.01099
2.636	30.81665
2.6365	27.29187
2.637	21.04797
2.6375	15.00549
2.638	10.87646
2.6385	13.69629
2.639	11.07788
2.6395	7.85522
2.64	9.56726
2.6405	7.75452
2.641	6.44531
2.6415	10.27222
2.642	6.64673
2.6425	10.97717
2.643	15.50903
2.6435	14.70337
2.644	20.64514
2.6445	27.59399
2.645	24.77417
2.6455	20.04089
2.646	20.1416
2.6465	15.81116
2.647	9.56726
2.6475	7.15027
2.648	4.43115
2.6485	5.0354
2.649	2.01416
2.6495	-2.61841
2.65	5.74036
2.6505	12.18567
2.651	9.86938
2.6515	2.11487
2.652	-4.22974
2.6525	-1.2085
2.653	0.90637
2.6535	20.1416
2.654	27.49329
2.6545	29.50745
2.655	32.12585
2.6555	31.62231
2.656	40.1825
2.6565	49.95117
2.657	53.77808
2.6575	58.81348
2.658	55.59082
2.6585	49.14551
2.659	51.26038
2.6595	53.47595
2.66	45.11719
2.6605	32.32727
2.661	23.26355
2.6615	17.22107
2.662	-0.90637
2.6625	-5.53894
2.663	-13.29346
2.6635	-15.40833
2.664	-22.76001
2.6645	-30.41382
2.665	-39.17542
2.6655	-39.27612
2.666	-43.10303
2.6665	-41.39099
2.667	-43.50586
2.6675	-45.2179
2.668	-33.13293
2.6685	-31.62231
2.669	-11.68213
2.6695	-7.75452
2.67	-0.30212
2.6705	-4.63257
2.671	-2.31628
2.6715	0.60425
2.672	-7.95593
2.6725	-8.8623
2.673	-2.5177
2.6735	-7.15027
2.674	-6.3446
2.6745	2.81982
2.675	7.75452
2.6755	11.17859
2.676	19.33594
2.6765	22.25647
2.677	18.32886
2.6775	20.94727
2.678	26.98975
2.6785	29.50745
2.679	34.84497
2.6795	37.56409
2.68	36.35559
2.6805	30.81665
2.681	29.60815
2.6815	27.59399
2.682	19.63806
2.6825	16.71753
2.683	17.32178
2.6835	18.53027
2.684	10.47363
2.6845	1.51062
2.685	9.76868
2.6855	8.8623
2.686	7.75452
2.6865	12.48779
2.687	6.54602
2.6875	6.04248
2.688	3.92761
2.6885	1.3092
2.689	1.00708
2.6895	4.93469
2.69	3.42407
2.6905	1.71204
2.691	4.53186
2.6915	6.44531
2.692	5.33752
2.6925	5.43823
2.693	2.92053
2.6935	-5.94177
2.694	-1.10779
2.6945	-5.33752
2.695	-14.70337
2.6955	-10.67505
2.696	-14.50195
2.6965	-19.33594
2.697	9.16443
2.6975	53.37524
2.698	90.93933
2.6985	101.51367
2.699	110.87952
2.6995	101.21155
2.7	87.41455
2.7005	64.85596
2.701	38.87329
2.7015	17.92603
2.702	-3.42407
2.7025	-38.57117
2.703	-70.3949
2.7035	-86.40747
2.704	-95.06836
2.7045	-99.19739
2.705	-103.32642
2.7055	-86.70959
2.706	-74.72534
2.7065	-64.25171
2.707	-55.49011
2.7075	-52.06604
2.708	-36.15417
2.7085	-25.88196
2.709	-24.16992
2.7095	-12.28638
2.71	-1.81274
2.7105	9.76868
2.711	18.22815
2.7115	23.36426
2.712	25.27771
2.7125	32.83081
2.713	49.0448
2.7135	38.26904
2.714	25.07629
2.7145	22.35718
2.715	22.35718
2.7155	27.59399
2.716	34.34143
2.7165	37.26196
2.717	32.7301
2.7175	38.36975
2.718	35.34851
2.7185	34.84497
2.719	31.11877
2.7195	26.58691
2.72	32.93152
2.7205	33.63647
2.721	23.56567
2.7215	23.66638
2.722	25.88196
2.7225	20.74585
2.723	27.59399
2.7235	15.50903
2.724	19.23523
2.7245	16.21399
2.725	18.12744
2.7255	12.5885
2.726	1.91345
2.7265	3.32336
2.727	0.40283
2.7275	-6.94885
2.728	-14.19983
2.7285	-19.43665
2.729	-17.52319
2.7295	-17.92603
2.73	-12.78992
2.7305	-11.78284
2.731	-11.58142
2.7315	-4.22974
2.732	-5.74036
2.7325	-1.61133
2.733	0.60425
2.7335	-1.10779
2.734	-7.75452
2.7345	-3.8269
2.735	-6.2439
2.7355	-4.63257
2.736	0.40283
2.7365	-6.2439
2.737	-0.70496
2.7375	3.12195
2.738	2.41699
2.7385	2.11487
2.739	0.80566
2.7395	1.00708
2.74	6.04248
2.7405	7.65381
2.741	3.52478
2.7415	-1.81274
2.742	-1.2085
2.7425	3.22266
2.743	2.5177
2.7435	3.62549
2.744	3.12195
2.7445	1.91345
2.745	2.41699
2.7455	-1.51062
2.746	-1.2085
2.7465	-6.3446
2.747	-9.66797
2.7475	-6.44531
2.748	-7.25098
2.7485	-2.21558
2.749	35.65063
2.7495	70.79773
2.75	90.03296
2.7505	94.96765
2.751	84.39331
2.7515	71.50269
2.752	52.26746
2.7525	33.53577
2.753	2.71912
2.7535	-16.91895
2.754	-45.2179
2.7545	-48.74268
2.755	-54.18091
2.7555	-58.51135
2.756	-58.51135
2.7565	-65.3595
2.757	-60.02197
2.7575	-59.21631
2.758	-50.65613
2.7585	-44.61365
2.759	-35.34851
2.7595	-29.40674
2.76	-23.96851
2.7605	-19.63806
2.761	-19.43665
2.7615	-10.0708
2.762	2.81982
2.7625	7.95593
2.763	18.42957
2.7635	25.47913
2.764	41.69312
2.7645	44.41223
2.765	37.26196
2.7655	27.59399
2.766	20.64514
2.7665	17.82532
2.767	21.95435
2.7675	16.61682
2.768	17.6239
2.7685	24.77417
2.769	24.57275
2.7695	25.177
2.77	16.01257
2.7705	21.14868
2.771	12.48779
2.7715	16.81824
2.772	10.37292
2.7725	13.69629
2.773	4.33044
2.7735	12.28638
2.774	13.59558
2.7745	9.26514
2.775	32.42798
2.7755	61.6333
2.776	89.83154
2.7765	104.63562
2.777	118.73474
2.7775	135.95581
2.778	134.14307
2.7785	117.22412
2.779	100.90942
2.7795	68.88428
2.78	31.32019
2.7805	-7.04956
2.781	-45.01648
2.7815	-78.85437
2.782	-97.98889
2.7825	-109.67102
2.783	-113.59863
2.7835	-113.1958
2.784	-115.61279
2.7845	-115.10925
2.785	-117.32483
2.7855	-96.8811
2.786	-73.01331
2.7865	-44.21082
2.787	-29.91028
2.7875	-19.03381
2.788	-9.86938
2.7885	-8.66089
2.789	-4.53186
2.7895	1.00708
2.79	1.71204
2.7905	6.64673
2.791	18.53027
2.7915	25.47913
2.792	17.01965
2.7925	24.27063
2.793	21.65222
2.7935	15.40833
2.794	19.23523
2.7945	16.71753
2.795	21.24939
2.7955	22.15576
2.796	13.59558
2.7965	15.1062
2.797	16.01257
2.7975	21.55151
2.798	9.56726
2.7985	4.93469
2.799	2.5177
2.7995	8.15735
2.8	19.63806
2.8005	26.28479
2.801	30.61523
2.8015	31.62231
2.802	30.31311
2.8025	33.63647
2.803	33.13293
2.8035	31.62231
2.804	31.32019
2.8045	49.14551
2.805	67.07153
2.8055	82.9834
2.806	90.03296
2.8065	84.59473
2.807	76.23596
2.8075	59.21631
2.808	37.86621
2.8085	15.71045
2.809	-11.07788
2.8095	-28.70178
2.81	-53.67737
2.8105	-72.71118
2.811	-92.44995
2.8115	-108.05969
2.812	-113.49792
2.8125	-111.08093
2.813	-103.02429
2.8135	-88.52234
2.814	-77.34375
2.8145	-58.10852
2.815	-42.19666
2.8155	-35.34851
2.816	-30.51453
2.8165	-16.81824
2.817	-6.84814
2.8175	-4.12903
2.818	4.53186
2.8185	10.67505
2.819	9.46655
2.8195	11.58142
2.82	12.78992
2.8205	18.02673
2.821	14.60266
2.8215	9.06372
2.822	13.59558
2.8225	13.09204
2.823	11.58142
2.8235	15.00549
2.824	9.66797
2.8245	2.31628
2.825	0.40283
2.8255	-5.84106
2.826	-15.91187
2.8265	-23.66638
2.827	-25.57983
2.8275	-32.42798
2.828	-33.03223
2.8285	-27.59399
2.829	-24.77417
2.8295	-21.95435
2.83	-22.86072
2.8305	-15.91187
2.831	-19.33594
2.8315	-14.80408
2.832	-2.41699
2.8325	7.75452
2.833	21.95435
2.8335	20.44373
2.834	24.77417
2.8345	24.27063
2.835	33.13293
2.8355	32.12585
2.836	24.06921
2.8365	10.87646
2.837	6.2439
2.8375	0.80566
2.838	-2.21558
2.8385	-0.40283
2.839	8.35876
2.8395	23.76709
2.84	20.64514
2.8405	9.56726
2.841	13.39417
2.8415	16.91895
2.842	18.53027
2.8425	50.05188
2.843	59.82056
2.8435	65.76233
2.844	71.80481
2.8445	63.64746
2.845	50.45471
2.8455	38.16833
2.846	33.9386
2.8465	18.32886
2.847	1.61133
2.8475	-14.90479
2.848	-35.65063
2.8485	-37.36267
2.849	-49.85046
2.8495	-49.44763
2.85	-46.62781
2.8505	-23.56567
2.851	-6.44531
2.8515	3.32336
2.852	13.29346
2.8525	38.77258
2.853	66.6687
2.8535	101.41296
2.854	106.44836
2.8545	106.54907
2.855	101.21155
2.8555	86.20605
2.856	87.21313
2.8565	80.36499
2.857	96.98181
2.8575	121.55457
2.858	123.56873
2.8585	99.09668
2.859	68.88428
2.8595	45.82214
2.86	5.63965
2.8605	-23.8678
2.861	-53.07312
2.8615	-89.52942
2.862	-112.28943
2.8625	-138.67493
2.863	-146.63086
2.8635	-153.17688
2.864	-158.81653
2.8645	-158.71582
2.865	-131.02112
2.8655	-102.11792
2.866	-73.61755
2.8665	-49.74976
2.867	-29.40674
2.8675	-4.53186
2.868	13.69629
2.8685	28.9032
2.869	41.89453
2.8695	51.96533
2.87	60.52551
2.8705	74.2218
2.871	70.29419
2.8715	70.29419
2.872	62.23755
2.8725	56.09436
2.873	50.05188
2.8735	43.80798
2.874	31.21948
2.8745	25.98267
2.875	20.84656
2.8755	27.49329
2.876	29.91028
2.8765	30.11169
2.877	26.58691
2.8775	27.19116
2.878	27.79541
2.8785	24.27063
2.879	31.52161
2.8795	22.6593
2.88	23.46497
2.8805	24.27063
2.881	20.54443
2.8815	21.75293
2.882	14.80408
2.8825	11.17859
2.883	11.07788
2.8835	6.94885
2.884	5.43823
2.8845	-3.02124
2.885	-4.73328
2.8855	-8.8623
2.886	-10.47363
2.8865	-8.25806
2.887	-9.97009
2.8875	-4.22974
2.888	-6.54602
2.8885	-9.66797
2.889	-9.06372
2.8895	-9.66797
2.89	-16.21399
2.8905	-17.32178
2.891	-23.76709
2.8915	-25.57983
2.892	-38.06763
2.8925	-46.72852
2.893	-50.05188
2.8935	-53.37524
2.894	-46.82922
2.8945	-29.10461
2.895	18.02673
2.8955	68.88428
2.896	111.38306
2.8965	122.56165
2.897	126.9928
2.8975	109.16748
2.898	84.89685
2.8985	60.12268
2.899	29.00391
2.8995	-3.02124
2.9	-35.34851
2.9005	-65.76233
2.901	-94.2627
2.9015	-104.83704
2.902	-128.60413
2.9025	-124.97864
2.903	-87.31384
2.9035	-50.2533
2.904	-16.21399
2.9045	3.42407
2.905	5.0354
2.9055	4.53186
2.906	0.40283
2.9065	10.17151
2.907	19.83948
2.9075	39.47754
2.908	46.92993
2.9085	35.2478
2.909	29.60815
2.9095	19.53735
2.91	7.95593
2.9105	-2.61841
2.911	-1.40991
2.9115	-0.70496
2.912	6.94885
2.9125	13.797
2.913	14.40125
2.9135	21.14868
2.914	16.71753
2.9145	18.8324
2.915	18.73169
2.9155	33.63647
2.916	35.34851
2.9165	39.57825
2.917	48.44055
2.9175	54.78516
2.918	54.98657
2.9185	70.59631
2.919	80.56641
2.9195	76.13525
2.92	61.73401
2.9205	66.16516
2.921	75.53101
2.9215	93.35632
2.922	94.16199
2.9225	81.67419
2.923	61.43188
2.9235	25.07629
2.924	-0.40283
2.9245	-21.85364
2.925	-34.74426
2.9255	-51.5625
2.926	-70.19348
2.9265	-80.26428
2.927	-76.53809
2.9275	-79.2572
2.928	-81.57349
2.9285	-84.49402
2.929	-85.5011
2.9295	-90.43579
2.93	-91.8457
2.9305	-76.23596
2.931	-61.93542
2.9315	-47.13135
2.932	-30.2124
2.9325	-26.18408
2.933	-15.1062
2.9335	-8.66089
2.934	9.97009
2.9345	40.48462
2.935	69.38782
2.9355	85.80322
2.936	91.8457
2.9365	86.60889
2.937	76.84021
2.9375	71.40198
2.938	59.41772
2.9385	47.33276
2.939	44.51294
2.9395	22.05505
2.94	6.3446
2.9405	-14.50195
2.941	-33.83789
2.9415	-48.23914
2.942	-60.92834
2.9425	-67.67578
2.943	-81.57349
2.9435	-87.51526
2.944	-76.53809
2.9445	-39.47754
2.945	-17.72461
2.9455	6.3446
2.946	24.87488
2.9465	60.72693
2.947	75.22888
2.9475	75.22888
2.948	57.8064
2.9485	31.01807
2.949	0.60425
2.9495	-28.29895
2.95	-60.72693
2.9505	-87.11243
2.951	-111.48376
2.9515	-136.96289
2.952	-154.38538
2.9525	-165.16113
2.953	-156.90308
2.9535	-133.43811
2.954	-107.65686
2.9545	-75.53101
2.955	-49.34692
2.9555	-18.12744
2.956	17.22107
2.9565	45.62073
2.957	54.88586
2.9575	64.65454
2.958	76.23596
2.9585	82.9834
2.959	98.99597
2.9595	102.52075
2.96	99.19739
2.9605	95.26978
2.961	97.48535
2.9615	92.95349
2.962	83.68835
2.9625	72.20764
2.963	54.18091
2.9635	41.39099
2.964	33.03223
2.9645	17.92603
2.965	12.18567
2.9655	2.41699
2.966	-13.39417
2.9665	-7.5531
2.967	-0.90637
2.9675	0.60425
2.968	7.85522
2.9685	31.01807
2.969	39.47754
2.9695	45.92285
2.97	40.08179
2.9705	43.50586
2.971	42.7002
2.9715	46.92993
2.972	84.19189
2.9725	143.3075
2.973	194.16504
2.9735	237.16736
2.974	243.10913
2.9745	229.01001
2.975	200.50964
2.9755	163.24768
2.976	109.97314
2.9765	55.99365
2.977	2.5177
2.9775	-58.91418
2.978	-132.12891
2.9785	-190.53955
2.979	-235.75745
2.9795	-248.44666
2.98	-248.34595
2.9805	-254.89197
2.981	-258.11462
2.9815	-242.40417
2.982	-205.54504
2.9825	-169.7937
2.983	-128.80554
2.9835	-87.61597
2.984	-52.06604
2.9845	-24.27063
2.985	-1.61133
2.9855	21.14868
2.986	47.23206
2.9865	74.32251
2.987	79.86145
2.9875	80.86853
2.988	84.59473
2.9885	81.97632
2.989	75.22888
2.9895	64.05029
2.99	61.33118
2.9905	50.75684
2.991	48.74268
2.9915	42.8009
2.992	34.74426
2.9925	33.83789
2.993	24.67346
2.9935	16.11328
2.994	11.88354
2.9945	17.01965
2.995	11.48071
2.9955	1.2085
2.996	-0.60425
2.9965	-4.22974
2.997	-3.42407
2.9975	-5.33752
2.998	-11.98425
2.9985	-12.99133
2.999	-10.0708
2.9995	1.71204
3	-0.90637
3.0005	-0.80566
3.001	1.2085
3.0015	16.51611
3.002	38.16833
3.0025	47.23206
3.003	45.2179
3.0035	33.9386
3.004	28.09753
3.0045	10.97717
3.005	0.50354
3.0055	-6.44531
3.006	-3.62549
3.0065	0.90637
3.007	19.94019
3.0075	40.08179
3.008	42.19666
3.0085	38.974
3.009	25.68054
3.0095	2.31628
3.01	-11.38
3.0105	-24.77417
3.011	-32.12585
3.0115	-31.72302
3.012	-37.86621
3.0125	-41.59241
3.013	-49.54834
3.0135	-51.76392
3.014	-45.52002
3.0145	-25.68054
3.015	-7.45239
3.0155	9.76868
3.016	14.90479
3.0165	18.12744
3.017	22.25647
3.0175	19.43665
3.018	19.03381
3.0185	21.55151
3.019	24.16992
3.0195	30.2124
3.02	32.83081
3.0205	26.48621
3.021	32.7301
3.0215	40.1825
3.022	30.31311
3.0225	26.48621
3.023	22.05505
3.0235	32.62939
3.024	65.76233
3.0245	86.60889
3.025	87.01172
3.0255	90.13367
3.026	75.4303
3.0265	64.65454
3.027	50.65613
3.0275	32.93152
3.028	39.17542
3.0285	42.90161
3.029	39.67896
3.0295	34.94568
3.03	10.27222
3.0305	-25.27771
3.031	-53.47595
3.0315	-85.5011
3.032	-103.42712
3.0325	-120.44678
3.033	-103.82996
3.0335	-95.5719
3.034	-94.3634
3.0345	-83.78906
3.035	-69.08569
3.0355	-50.354
3.036	-41.99524
3.0365	-34.64355
3.037	-25.57983
3.0375	-13.89771
3.038	0.80566
3.0385	6.84814
3.039	12.28638
3.0395	7.25098
3.04	1.81274
3.0405	4.73328
3.041	5.74036
3.0415	2.21558
3.042	1.40991
3.0425	-0.60425
3.043	10.37292
3.0435	13.19275
3.044	8.96301
3.0445	10.57434
3.045	10.0708
3.0455	13.797
3.046	25.07629
3.0465	44.71436
3.047	62.33826
3.0475	65.76233
3.048	63.94958
3.0485	57.30286
3.049	62.64038
3.0495	59.41772
3.05	53.67737
3.0505	47.7356
3.051	48.44055
3.0515	40.78674
3.052	44.41223
3.0525	28.39966
3.053	27.89612
3.0535	21.65222
3.054	14.80408
3.0545	20.04089
3.055	19.43665
3.0555	11.68213
3.056	10.87646
3.0565	12.5885
3.057	12.38708
3.0575	12.38708
3.058	9.97009
3.0585	16.61682
3.059	18.8324
3.0595	10.67505
3.06	13.69629
3.0605	13.797
3.061	9.36584
3.0615	5.63965
3.062	3.8269
3.0625	2.11487
3.063	-2.31628
3.0635	-0.30212
3.064	1.2085
3.0645	-4.73328
3.065	-10.0708
3.0655	-9.06372
3.066	-4.22974
3.0665	-4.93469
3.067	-5.84106
3.0675	-9.26514
3.068	-9.06372
3.0685	-10.47363
3.069	-8.96301
3.0695	-7.15027
3.07	-6.2439
3.0705	-3.02124
3.071	-5.23682
3.0715	-3.22266
3.072	-6.2439
3.0725	-7.15027
3.073	-2.71912
3.0735	-0.70496
3.074	-0.80566
3.0745	-3.92761
3.075	-2.31628
3.0755	-0.10071
3.076	0
3.0765	1.81274
3.077	3.52478
3.0775	5.13611
3.078	-1.71204
3.0785	1.2085
3.079	-2.41699
3.0795	-7.85522
3.08	-4.12903
3.0805	-4.93469
3.081	0.80566
3.0815	-0.80566
3.082	-1.3092
3.0825	2.81982
3.083	-1.10779
3.0835	-1.81274
3.084	-1.10779
3.0845	3.7262
3.085	-0.50354
3.0855	-0.60425
3.086	4.02832
3.0865	11.78284
3.087	8.35876
3.0875	12.28638
3.088	23.8678
3.0885	25.47913
3.089	26.98975
3.0895	15.1062
3.09	26.18408
3.0905	66.56799
3.091	100.30518
3.0915	136.05652
3.092	149.34998
3.0925	143.81104
3.093	129.00696
3.0935	108.36182
3.094	76.94092
3.0945	33.73718
3.095	-2.31628
3.0955	-42.29736
3.096	-75.73242
3.0965	-111.28235
3.097	-134.64661
3.0975	-151.56555
3.098	-167.17529
3.0985	-171.70715
3.099	-163.75122
3.0995	-149.55139
3.1	-133.53882
3.1005	-117.42554
3.101	-96.57898
3.1015	-76.7395
3.102	-45.52002
3.1025	-15.71045
3.103	5.53894
3.1035	13.29346
3.104	18.93311
3.1045	42.19666
3.105	80.36499
3.1055	115.81421
3.106	130.8197
3.1065	125.58289
3.107	108.26111
3.1075	95.77332
3.108	94.86694
3.1085	109.26819
3.109	96.47827
3.1095	81.57349
3.11	73.31543
3.1105	62.03613
3.111	42.90161
3.1115	24.97559
3.112	14.30054
3.1125	4.43115
3.113	0.40283
3.1135	-9.86938
3.114	-13.59558
3.1145	-17.32178
3.115	-20.34302
3.1155	-34.54285
3.116	-45.52002
3.1165	-41.18958
3.117	-31.72302
3.1175	-23.96851
3.118	-25.47913
3.1185	-13.19275
3.119	-0.50354
3.1195	9.26514
3.12	13.797
3.1205	9.06372
3.121	4.73328
3.1215	-1.10779
3.122	0.40283
3.1225	0.40283
3.123	15.00549
3.1235	18.32886
3.124	27.49329
3.1245	23.16284
3.125	27.89612
3.1255	26.28479
3.126	21.75293
3.1265	19.43665
3.127	23.36426
3.1275	16.91895
3.128	18.93311
3.1285	8.8623
3.129	1.81274
3.1295	-0.30212
3.13	-0.60425
3.1305	-3.02124
3.131	-12.48779
3.1315	-9.56726
3.132	-0.20142
3.1325	0.30212
3.133	9.06372
3.1335	7.25098
3.134	-0.20142
3.1345	1.10779
3.135	-1.3092
3.1355	-4.73328
3.136	-6.84814
3.1365	-1.61133
3.137	-5.0354
3.1375	4.53186
3.138	1.81274
3.1385	1.00708
3.139	-3.7262
3.1395	-8.25806
3.14	-6.44531
3.1405	-9.06372
3.141	-8.8623
3.1415	-7.04956
3.142	-8.96301
3.1425	-11.98425
3.143	-13.29346
3.1435	-11.38
3.144	-11.58142
3.1445	-11.68213
3.145	-0.80566
3.1455	21.04797
3.146	45.3186
3.1465	60.02197
3.147	72.40906
3.1475	77.74658
3.148	70.79773
3.1485	62.43896
3.149	61.53259
3.1495	60.3241
3.15	50.95825
3.1505	40.1825
3.151	20.84656
3.1515	4.53186
3.152	-11.48071
3.1525	-18.93311
3.153	-32.62939
3.1535	-37.16125
3.154	-48.23914
3.1545	-50.95825
3.155	-56.49719
3.1555	-54.18091
3.156	-52.771
3.1565	-51.76392
3.157	-46.02356
3.1575	-38.47046
3.158	-29.60815
3.1585	-28.70178
3.159	-25.07629
3.1595	-29.30603
3.16	-28.80249
3.1605	-21.75293
3.161	-17.42249
3.1615	-9.46655
3.162	0
3.1625	13.59558
3.163	16.71753
3.1635	28.50037
3.164	15.60974
3.1645	15.71045
3.165	10.57434
3.1655	10.37292
3.166	1.00708
3.1665	-2.61841
3.167	-6.84814
3.1675	-20.64514
3.168	-21.65222
3.1685	-21.85364
3.169	-26.28479
3.1695	-22.76001
3.17	-16.51611
3.1705	-10.77576
3.171	3.02124
3.1715	15.20691
3.172	22.86072
3.1725	24.06921
3.173	26.28479
3.1735	43.70728
3.174	60.92834
3.1745	87.51526
3.175	149.45068
3.1755	210.0769
3.176	233.84399
3.1765	236.86523
3.177	225.28381
3.1775	196.48132
3.178	147.33582
3.1785	100.6073
3.179	49.64905
3.1795	-1.71204
3.18	-59.1156
3.1805	-76.13525
3.181	-88.32092
3.1815	-105.54199
3.182	-117.92908
3.1825	-111.9873
3.183	-106.14624
3.1835	-104.13208
3.184	-92.24854
3.1845	-76.63879
3.185	-65.3595
3.1855	-51.36108
3.186	-41.79382
3.1865	-43.00232
3.187	-32.32727
3.1875	-34.94568
3.188	-50.05188
3.1885	-61.02905
3.189	-68.48145
3.1895	-52.8717
3.19	-49.64905
3.1905	-49.34692
3.191	-41.79382
3.1915	-36.25488
3.192	-16.51611
3.1925	2.71912
3.193	32.52869
3.1935	45.41931
3.194	58.20923
3.1945	69.08569
3.195	74.32251
3.1955	75.93384
3.196	78.95508
3.1965	86.10535
3.197	83.48694
3.1975	76.63879
3.198	63.04321
3.1985	58.30994
3.199	45.62073
3.1995	40.2832
3.2	33.13293
3.2005	23.8678
3.201	19.13452
3.2015	5.33752
3.202	-8.8623
3.2025	-20.34302
3.203	-26.88904
3.2035	-35.65063
3.204	-33.73718
3.2045	-30.01099
3.205	-26.78833
3.2055	-15.30762
3.206	-4.93469
3.2065	11.48071
3.207	10.87646
3.2075	10.67505
3.208	19.23523
3.2085	21.85364
3.209	14.50195
3.2095	23.06213
3.21	35.04639
3.2105	51.26038
3.211	45.11719
3.2115	54.68445
3.212	48.13843
3.2125	43.80798
3.213	35.75134
3.2135	32.12585
3.214	23.46497
3.2145	10.57434
3.215	-4.63257
3.2155	-26.88904
3.216	-43.30444
3.2165	-52.46887
3.217	-64.151
3.2175	-62.8418
3.218	-55.79224
3.2185	-44.0094
3.219	-27.39258
3.2195	-0.80566
3.22	26.28479
3.2205	41.4917
3.221	53.87878
3.2215	70.99915
3.222	108.56323
3.2225	141.39404
3.223	148.64502
3.2235	135.04944
3.224	112.69226
3.2245	85.19897
3.225	62.64038
3.2255	40.48462
3.226	2.31628
3.2265	-40.1825
3.227	-76.63879
3.2275	-101.51367
3.228	-127.69775
3.2285	-143.50891
3.229	-144.11316
3.2295	-144.41528
3.23	-133.94165
3.2305	-120.34607
3.231	-105.13916
3.2315	-90.13367
3.232	-70.89844
3.2325	-57.9071
3.233	-27.39258
3.2335	0.30212
3.234	19.23523
3.2345	32.32727
3.235	47.63489
3.2355	58.00781
3.236	61.83472
3.2365	52.8717
3.237	44.41223
3.2375	42.8009
3.238	37.7655
3.2385	36.95984
3.239	30.31311
3.2395	27.49329
3.24	27.29187
3.2405	22.25647
3.241	17.42249
3.2415	12.28638
3.242	17.6239
3.2425	15.40833
3.243	17.12036
3.2435	16.01257
3.244	16.81824
3.2445	17.72461
3.245	14.80408
3.2455	12.78992
3.246	13.59558
3.2465	11.88354
3.247	11.38
3.2475	12.48779
3.248	9.76868
3.2485	5.13611
3.249	5.63965
3.2495	8.96301
3.25	6.3446
3.2505	5.23682
3.251	8.15735
3.2515	7.5531
3.252	9.56726
3.2525	10.27222
3.253	9.36584
3.2535	9.06372
3.254	2.71912
3.2545	8.56018
3.255	14.80408
3.2555	13.39417
3.256	7.45239
3.2565	11.48071
3.257	7.45239
3.2575	8.66089
3.258	0
3.2585	3.7262
3.259	9.76868
3.2595	-0.10071
3.26	-0.90637
3.2605	1.2085
3.261	-2.11487
3.2615	0.60425
3.262	4.12903
3.2625	2.01416
3.263	1.81274
3.2635	4.43115
3.264	3.92761
3.2645	-1.3092
3.265	0.60425
3.2655	2.81982
3.266	2.5177
3.2665	5.23682
3.267	0.80566
3.2675	5.33752
3.268	6.84814
3.2685	0.50354
3.269	3.8269
3.2695	6.14319
3.27	-0.70496
3.2705	5.63965
3.271	-0.30212
3.2715	8.05664
3.272	2.41699
3.2725	0.40283
3.273	1.81274
3.2735	-1.00708
3.274	-3.92761
3.2745	-4.33044
3.275	4.73328
3.2755	5.43823
3.276	15.30762
3.2765	20.64514
3.277	44.0094
3.2775	112.18872
3.278	171.10291
3.2785	186.61194
3.279	194.66858
3.2795	190.33813
3.28	175.43335
3.2805	144.11316
3.281	106.34766
3.2815	50.55542
3.282	-4.33044
3.2825	-57.20215
3.283	-103.02429
3.2835	-142.19971
3.284	-160.72998
3.2845	-160.32715
3.285	-165.26184
3.2855	-157.00378
3.286	-137.46643
3.2865	-128.20129
3.287	-113.80005
3.2875	-100.20447
3.288	-78.14941
3.2885	-58.91418
3.289	-48.33984
3.2895	-28.50037
3.29	-8.35876
3.2905	12.68921
3.291	20.54443
3.2915	14.70337
3.292	20.64514
3.2925	28.70178
3.293	29.60815
3.2935	23.26355
3.294	23.26355
3.2945	24.47205
3.295	19.73877
3.2955	24.06921
3.296	21.55151
3.2965	23.06213
3.297	15.91187
3.2975	10.77576
3.298	4.12903
3.2985	3.8269
3.299	6.14319
3.2995	3.7262
3.3	-7.75452
3.3005	-13.39417
3.301	-17.82532
3.3015	-9.16443
3.302	4.63257
3.3025	20.04089
3.303	28.9032
3.3035	35.95276
3.304	30.51453
3.3045	35.04639
3.305	24.27063
3.3055	15.40833
3.306	5.94177
3.3065	-10.77576
3.307	-21.45081
3.3075	-36.15417
3.308	-40.58533
3.3085	-55.59082
3.309	-73.11401
3.3095	-68.98499
3.31	-61.02905
3.3105	-51.05896
3.311	-44.21082
3.3115	-34.74426
3.312	-21.85364
3.3125	1.2085
3.313	14.70337
3.3135	30.11169
3.314	39.67896
3.3145	52.56958
3.315	53.37524
3.3155	58.91418
3.316	57.40356
3.3165	52.8717
3.317	58.91418
3.3175	64.151
3.318	62.8418
3.3185	51.66321
3.319	43.20374
3.3195	29.80957
3.32	22.55859
3.3205	22.86072
3.321	22.35718
3.3215	16.41541
3.322	12.28638
3.3225	19.73877
3.323	47.43347
3.3235	55.99365
3.324	66.06445
3.3245	62.23755
3.325	65.56091
3.3255	69.38782
3.326	70.99915
3.3265	78.85437
3.327	96.27686
3.3275	92.04712
3.328	86.30676
3.3285	70.69702
3.329	44.91577
3.3295	25.177
3.33	19.94019
3.3305	7.04956
3.331	1.51062
3.3315	20.24231
3.332	37.16125
3.3325	64.95667
3.333	80.06287
3.3335	81.06995
3.334	58.61206
3.3345	40.1825
3.335	28.70178
3.3355	9.06372
3.336	-26.08337
3.3365	-67.07153
3.337	-96.8811
3.3375	-112.89368
3.338	-114.00146
3.3385	-121.75598
3.339	-119.13757
3.3395	-116.922
3.34	-110.27527
3.3405	-120.34607
3.341	-115.00854
3.3415	-108.76465
3.342	-87.61597
3.3425	-76.7395
3.343	-68.48145
3.3435	-58.91418
3.344	-53.87878
3.3445	-46.72852
3.345	-60.62622
3.3455	-58.61206
3.346	-44.51294
3.3465	-25.57983
3.347	-12.89062
3.3475	2.11487
3.348	7.04956
3.3485	17.82532
3.349	14.30054
3.3495	20.44373
3.35	31.72302
3.3505	39.67896
3.351	37.16125
3.3515	42.19666
3.352	52.06604
3.3525	64.65454
3.353	77.14233
3.3535	98.69385
3.354	116.11633
3.3545	115.00854
3.355	105.03845
3.3555	89.12659
3.356	68.68286
3.3565	64.151
3.357	73.01331
3.3575	61.83472
3.358	47.03064
3.3585	32.83081
3.359	14.30054
3.3595	0.60425
3.36	-24.06921
3.3605	-41.89453
3.361	-60.22339
3.3615	-70.29419
3.362	-72.50977
3.3625	-79.2572
3.363	-88.0188
3.3635	-89.22729
3.364	-83.99048
3.3645	-77.74658
3.365	-77.04163
3.3655	-62.8418
3.366	-39.27612
3.3665	-16.41541
3.367	10.77576
3.3675	26.78833
3.368	49.95117
3.3685	66.36658
3.369	78.95508
3.3695	83.68835
3.37	78.35083
3.3705	78.75366
3.371	80.86853
3.3715	79.66003
3.372	83.28552
3.3725	72.81189
3.373	69.08569
3.3735	63.84888
3.374	48.74268
3.3745	45.52002
3.375	33.83789
3.3755	26.58691
3.376	26.78833
3.3765	20.04089
3.377	15.71045
3.3775	7.15027
3.378	0.70496
3.3785	-5.74036
3.379	-10.37292
3.3795	-9.66797
3.38	-13.09204
3.3805	-5.13611
3.381	-12.18567
3.3815	-11.68213
3.382	-11.88354
3.3825	-8.8623
3.383	-9.66797
3.3835	-8.66089
3.384	-11.88354
3.3845	-7.75452
3.385	-4.83398
3.3855	-1.3092
3.386	-5.23682
3.3865	-1.51062
3.387	0.60425
3.3875	-2.71912
3.388	-4.12903
3.3885	1.51062
3.389	1.51062
3.3895	-0.30212
3.39	0.50354
3.3905	0.50354
3.391	0.70496
3.3915	-1.61133
3.392	-0.60425
3.3925	1.61133
3.393	1.71204
3.3935	-10.37292
3.394	-11.38
3.3945	-11.07788
3.395	-14.19983
3.3955	-7.35168
3.396	13.49487
3.3965	28.80249
3.397	35.44922
3.3975	45.41931
3.398	46.92993
3.3985	29.30603
3.399	32.42798
3.3995	44.11011
3.4	54.48303
3.4005	53.07312
3.401	39.88037
3.4015	27.09045
3.402	9.46655
3.4025	-16.51611
3.403	-40.98816
3.4035	-62.9425
3.404	-80.4657
3.4045	-87.51526
3.405	-89.42871
3.4055	-98.49243
3.406	-92.75208
3.4065	-88.0188
3.407	-71.80481
3.4075	-64.45312
3.408	-54.68445
3.4085	-41.39099
3.409	-19.43665
3.4095	-4.33044
3.41	9.97009
3.4105	19.94019
3.411	26.68762
3.4115	25.98267
3.412	15.81116
3.4125	6.44531
3.413	3.8269
3.4135	4.93469
3.414	10.97717
3.4145	8.35876
3.415	3.12195
3.4155	0.10071
3.416	-2.41699
3.4165	0.30212
3.417	-4.73328
3.4175	5.0354
3.418	7.15027
3.4185	15.1062
3.419	25.78125
3.4195	33.83789
3.42	40.88745
3.4205	41.29028
3.421	39.67896
3.4215	32.02515
3.422	11.68213
3.4225	22.05505
3.423	36.4563
3.4235	44.0094
3.424	44.11011
3.4245	63.14392
3.425	83.88977
3.4255	114.20288
3.426	164.05334
3.4265	230.31921
3.427	273.12012
3.4275	300.00916
3.428	285.30579
3.4285	263.85498
3.429	207.35779
3.4295	141.39404
3.43	60.12268
3.4305	-16.51611
3.431	-93.25562
3.4315	-153.78113
3.432	-215.41443
3.4325	-266.5741
3.433	-303.0304
3.4335	-327.80457
3.434	-345.52917
3.4345	-325.6897
3.435	-296.38367
3.4355	-262.14294
3.436	-226.3916
3.4365	-188.52539
3.437	-158.31299
3.4375	-116.922
3.438	-85.60181
3.4385	-49.0448
3.439	-15.60974
3.4395	8.05664
3.44	32.42798
3.4405	40.78674
3.441	47.93701
3.4415	56.29578
3.442	70.79773
3.4425	92.04712
3.443	107.15332
3.4435	121.45386
3.444	126.9928
3.4445	124.67651
3.445	122.76306
3.4455	127.79846
3.446	129.81262
3.4465	127.79846
3.447	128.60413
3.4475	123.66943
3.448	116.41846
3.4485	118.13049
3.449	114.30359
3.4495	97.48535
3.45	86.40747
3.4505	76.23596
3.451	71.40198
3.4515	53.17383
3.452	40.98816
3.4525	19.53735
3.453	4.53186
3.4535	-10.0708
3.454	-18.12744
3.4545	-23.46497
3.455	-42.09595
3.4555	-42.49878
3.456	-53.97949
3.4565	-47.03064
3.457	-47.33276
3.4575	-38.26904
3.458	-25.37842
3.4585	-4.53186
3.459	16.81824
3.4595	44.91577
3.46	65.05737
3.4605	87.21313
3.461	102.92358
3.4615	103.32642
3.462	88.82446
3.4625	78.65295
3.463	51.46179
3.4635	29.70886
3.464	12.5885
3.4645	-3.92761
3.465	-24.06921
3.4655	-37.46338
3.466	-52.16675
3.4665	-51.05896
3.467	-47.63489
3.4675	-49.54834
3.468	-51.66321
3.4685	-53.97949
3.469	-39.37683
3.4695	-16.81824
3.47	-4.22974
3.4705	12.28638
3.471	30.31311
3.4715	36.35559
3.472	43.30444
3.4725	40.08179
3.473	18.02673
3.4735	-3.32336
3.474	-7.65381
3.4745	-1.10779
3.475	-18.12744
3.4755	-27.09045
3.476	-55.69153
3.4765	-74.92676
3.477	-94.56482
3.4775	-104.3335
3.478	-104.93774
3.4785	-103.62854
3.479	-105.54199
3.4795	-91.04004
3.48	-42.29736
3.4805	8.45947
3.481	52.8717
3.4815	81.47278
3.482	99.19739
3.4825	106.9519
3.483	97.78748
3.4835	72.50977
3.484	64.35242
3.4845	45.41931
3.485	16.81824
3.4855	7.95593
3.486	11.88354
3.4865	10.57434
3.487	22.86072
3.4875	25.78125
3.488	17.92603
3.4885	14.30054
3.489	-8.7616
3.4895	-5.74036
3.49	-16.51611
3.4905	-17.01965
3.491	-13.39417
3.4915	-26.78833
3.492	-42.90161
3.4925	-46.22498
3.493	-53.67737
3.4935	-57.20215
3.494	-50.45471
3.4945	-42.19666
3.495	-35.2478
3.4955	-36.85913
3.496	-32.32727
3.4965	38.47046
3.497	165.86609
3.4975	247.84241
3.498	289.2334
3.4985	305.6488
3.499	299.90845
3.4995	298.0957
3.5	270.70312
3.5005	218.03284
3.501	155.79529
3.5015	81.27136
3.502	-6.2439
3.5025	-98.39172
3.503	-169.29016
3.5035	-223.47107
3.504	-266.97693
3.5045	-286.51428
3.505	-287.52136
3.5055	-285.00366
3.506	-275.03357
3.5065	-244.21692
3.507	-206.04858
3.5075	-163.65051
3.508	-122.66235
3.5085	-94.06128
3.509	-66.6687
3.5095	-34.03931
3.51	-1.40991
3.5105	10.37292
3.511	18.73169
3.5115	18.12744
3.512	24.77417
3.5125	23.26355
3.513	23.06213
3.5135	27.19116
3.514	33.23364
3.5145	31.11877
3.515	17.52319
3.5155	22.6593
3.516	38.36975
3.5165	61.6333
3.517	68.17932
3.5175	65.05737
3.518	60.62622
3.5185	51.15967
3.519	39.47754
3.5195	37.46338
3.52	25.57983
3.5205	18.93311
3.521	5.63965
3.5215	-2.31628
3.522	-21.14868
3.5225	-48.74268
3.523	-72.71118
3.5235	-78.25012
3.524	-76.53809
3.5245	-67.67578
3.525	-51.66321
3.5255	-26.28479
3.526	2.41699
3.5265	20.54443
3.527	36.35559
3.5275	47.03064
3.528	69.48853
3.5285	77.14233
3.529	81.57349
3.5295	82.17773
3.53	75.63171
3.5305	63.24463
3.531	41.4917
3.5315	26.78833
3.532	16.71753
3.5325	9.66797
3.533	16.61682
3.5335	17.92603
3.534	16.71753
3.5345	18.02673
3.535	24.06921
3.5355	27.19116
3.536	35.54993
3.5365	36.25488
3.537	31.62231
3.5375	23.06213
3.538	5.84106
3.5385	2.41699
3.539	-2.01416
3.5395	-1.61133
3.54	4.33044
3.5405	16.21399
3.541	4.83398
3.5415	5.63965
3.542	7.04956
3.5425	7.45239
3.543	3.92761
3.5435	8.35876
3.544	1.61133
3.5445	-3.52478
3.545	-6.64673
3.5455	-5.33752
3.546	-6.94885
3.5465	-16.21399
3.547	-18.42957
3.5475	-18.73169
3.548	-4.93469
3.5485	-4.43115
3.549	-0.80566
3.5495	0.70496
3.55	4.43115
3.5505	5.23682
3.551	18.8324
3.5515	20.34302
3.552	24.27063
3.5525	24.06921
3.553	37.26196
3.5535	40.38391
3.554	43.10303
3.5545	38.974
3.555	37.16125
3.5555	37.7655
3.556	34.84497
3.5565	31.21948
3.557	31.32019
3.5575	19.73877
3.558	9.26514
3.5585	-1.2085
3.559	-5.13611
3.5595	-8.7616
3.56	-17.01965
3.5605	-28.09753
3.561	-29.91028
3.5615	-30.81665
3.562	-41.18958
3.5625	-37.36267
3.563	-34.54285
3.5635	-30.2124
3.564	-23.8678
3.5645	-20.44373
3.565	-17.92603
3.5655	-9.36584
3.566	-6.3446
3.5665	-2.11487
3.567	0.60425
3.5675	3.32336
3.568	6.94885
3.5685	2.71912
3.569	7.45239
3.5695	6.84814
3.57	-6.2439
3.5705	-8.7616
3.571	34.44214
3.5715	85.60181
3.572	124.77722
3.5725	156.39954
3.573	168.28308
3.5735	167.88025
3.574	158.91724
3.5745	136.86218
3.575	112.79297
3.5755	79.76074
3.576	49.14551
3.5765	10.67505
3.577	-25.27771
3.5775	-52.97241
3.578	-80.16357
3.5785	-101.51367
3.579	-117.82837
3.5795	-129.5105
3.58	-134.34448
3.5805	-141.79688
3.581	-140.68909
3.5815	-140.58838
3.582	-130.71899
3.5825	-112.59155
3.583	-88.82446
3.5835	-70.69702
3.584	-52.771
3.5845	-46.72852
3.585	-32.93152
3.5855	-21.55151
3.586	-0.80566
3.5865	6.04248
3.587	8.15735
3.5875	5.33752
3.588	8.05664
3.5885	19.63806
3.589	30.11169
3.5895	29.91028
3.59	22.96143
3.5905	12.99133
3.591	8.8623
3.5915	-0.60425
3.592	11.78284
3.5925	15.81116
3.593	21.04797
3.5935	47.33276
3.594	57.20215
3.5945	65.46021
3.595	64.05029
3.5955	70.49561
3.596	64.75525
3.5965	66.16516
3.597	51.96533
3.5975	40.58533
3.598	34.14001
3.5985	16.01257
3.599	-3.52478
3.5995	-21.75293
3.6	-17.72461
3.6005	-12.89062
3.601	-13.797
3.6015	3.8269
3.602	10.17151
3.6025	11.88354
3.603	20.84656
3.6035	19.03381
3.604	26.3855
3.6045	32.7301
3.605	26.3855
3.6055	26.28479
3.606	22.25647
3.6065	14.80408
3.607	7.65381
3.6075	-3.8269
3.608	-13.99841
3.6085	-21.95435
3.609	-25.177
3.6095	-32.02515
3.61	-33.63647
3.6105	-31.52161
3.611	-20.74585
3.6115	-19.43665
3.612	-7.45239
3.6125	-7.25098
3.613	0.30212
3.6135	1.10779
3.614	2.92053
3.6145	8.7616
3.615	8.25806
3.6155	4.02832
3.616	4.53186
3.6165	7.04956
3.617	12.28638
3.6175	10.77576
3.618	10.0708
3.6185	10.97717
3.619	15.40833
3.6195	20.84656
3.62	14.19983
3.6205	15.1062
3.621	9.97009
3.6215	6.44531
3.622	5.0354
3.6225	9.76868
3.623	8.05664
3.6235	3.7262
3.624	9.16443
3.6245	9.26514
3.625	7.15027
3.6255	10.0708
3.626	10.37292
3.6265	12.89062
3.627	10.77576
3.6275	14.19983
3.628	11.2793
3.6285	4.02832
3.629	12.99133
3.6295	7.85522
3.63	8.35876
3.6305	10.87646
3.631	2.31628
3.6315	1.3092
3.632	5.13611
3.6325	3.7262
3.633	7.85522
3.6335	14.80408
3.634	23.36426
3.6345	29.30603
3.635	29.40674
3.6355	19.43665
3.636	11.17859
3.6365	3.02124
3.637	5.53894
3.6375	4.33044
3.638	4.02832
3.6385	-2.31628
3.639	-8.66089
3.6395	-5.53894
3.64	-14.60266
3.6405	-23.06213
3.641	-23.36426
3.6415	-27.59399
3.642	-32.93152
3.6425	-32.7301
3.643	-31.4209
3.6435	-26.78833
3.644	-31.32019
3.6445	-29.70886
3.645	-19.73877
3.6455	-22.55859
3.646	-22.55859
3.6465	-20.04089
3.647	-9.56726
3.6475	-9.66797
3.648	-6.3446
3.6485	-0.80566
3.649	-5.74036
3.6495	-17.92603
3.65	-18.22815
3.6505	-22.55859
3.651	-29.40674
3.6515	-27.89612
3.652	-29.00391
3.6525	-35.85205
3.653	-37.06055
3.6535	-14.40125
3.654	-0.60425
3.6545	17.32178
3.655	19.43665
3.6555	9.26514
3.656	-3.8269
3.6565	5.0354
3.657	48.03772
3.6575	89.02588
3.658	129.10767
3.6585	177.04468
3.659	250.76294
3.6595	308.56934
3.66	336.36475
3.6605	339.68811
3.661	321.25854
3.6615	266.97693
3.662	199.60327
3.6625	119.54041
3.663	33.53577
3.6635	-57.70569
3.664	-139.37988
3.6645	-220.047
3.665	-280.67322
3.6655	-324.98474
3.666	-349.96033
3.6665	-347.54333
3.667	-324.98474
3.6675	-295.07446
3.668	-240.69214
3.6685	-178.95813
3.669	-117.62695
3.6695	-56.39648
3.67	7.15027
3.6705	54.0802
3.671	91.14075
3.6715	119.13757
3.672	147.33582
3.6725	163.85193
3.673	173.92273
3.6735	181.67725
3.674	178.5553
3.6745	156.80237
3.675	130.11475
3.6755	97.28394
3.676	73.51685
3.6765	43.50586
3.677	20.04089
3.6775	-5.63965
3.678	-17.22107
3.6785	-33.33435
3.679	-39.98108
3.6795	-52.46887
3.68	-56.29578
3.6805	-53.37524
3.681	-57.9071
3.6815	-52.06604
3.682	-41.29028
3.6825	-16.91895
3.683	21.3501
3.6835	52.16675
3.684	73.41614
3.6845	80.66711
3.685	85.70251
3.6855	102.72217
3.686	119.23828
3.6865	134.34448
3.687	138.77563
3.6875	135.35156
3.688	123.56873
3.6885	110.77881
3.689	98.49243
3.6895	67.97791
3.69	34.94568
3.6905	6.94885
3.691	-11.88354
3.6915	-43.40515
3.692	-69.99207
3.6925	-92.75208
3.693	-115.91492
3.6935	-130.01404
3.694	-132.22961
3.6945	-129.30908
3.695	-112.08801
3.6955	-83.68835
3.696	-58.61206
3.6965	-25.27771
3.697	-14.30054
3.6975	-0.20142
3.698	2.71912
3.6985	8.35876
3.699	15.40833
3.6995	9.26514
3.7	4.83398
3.7005	3.8269
3.701	3.7262
3.7015	-6.54602
3.702	-23.36426
3.7025	-34.24072
3.703	-44.61365
3.7035	-66.56799
3.704	-72.00623
3.7045	-62.8418
3.705	-38.87329
3.7055	16.11328
3.706	88.62305
3.7065	123.36731
3.707	135.15015
3.7075	131.02112
3.708	139.48059
3.7085	158.11157
3.709	171.20361
3.7095	150.25635
3.71	115.51208
3.7105	96.98181
3.711	73.51685
3.7115	86.50818
3.712	128.20129
3.7125	184.09424
3.713	198.6969
3.7135	168.88733
3.714	137.46643
3.7145	116.11633
3.715	67.07153
3.7155	1.10779
3.716	-63.54675
3.7165	-79.45862
3.717	-97.78748
3.7175	-93.65845
3.718	-69.08569
3.7185	-39.17542
3.719	-26.18408
3.7195	-35.95276
3.72	-50.55542
3.7205	-51.66321
3.721	-36.4563
3.7215	-44.71436
3.722	-81.06995
3.7225	-128.302
3.723	-183.18787
3.7235	-236.66382
3.724	-304.44031
3.7245	-359.52759
3.725	-387.323
3.7255	-393.76831
3.726	-391.04919
3.7265	-389.33716
3.727	-383.69751
3.7275	-367.68494
3.728	-330.7251
3.7285	-266.5741
3.729	-200.61035
3.7295	-129.20837
3.73	-77.74658
3.7305	-35.14709
3.731	11.58142
3.7315	41.08887
3.732	56.5979
3.7325	49.24622
3.733	64.75525
3.7335	78.85437
3.734	94.06128
3.7345	150.55847
3.735	206.95496
3.7355	246.5332
3.736	254.28772
3.7365	239.28223
3.737	226.99585
3.7375	199.30115
3.738	168.88733
3.7385	165.86609
3.739	177.14539
3.7395	170.49866
3.74	168.88733
3.7405	144.91882
3.741	132.0282
3.7415	109.97314
3.742	82.37915
3.7425	62.33826
3.743	63.04321
3.7435	60.4248
3.744	46.42639
3.7445	16.81824
3.745	-1.3092
3.7455	-25.98267
3.746	-37.66479
3.7465	-45.41931
3.747	-51.15967
3.7475	-62.03613
3.748	-59.41772
3.7485	-58.30994
3.749	-37.26196
3.7495	-20.84656
3.75	1.2085
3.7505	15.50903
3.751	33.63647
3.7515	47.53418
3.752	52.06604
3.7525	50.95825
3.753	54.68445
3.7535	61.53259
3.754	68.28003
3.7545	64.35242
3.755	68.48145
3.7555	66.76941
3.756	58.00781
3.7565	51.15967
3.757	51.05896
3.7575	49.64905
3.758	59.41772
3.7585	48.94409
3.759	48.54126
3.7595	45.11719
3.76	35.85205
3.7605	29.10461
3.761	27.49329
3.7615	21.85364
3.762	26.08337
3.7625	30.91736
3.763	27.6947
3.7635	17.92603
3.764	24.57275
3.7645	29.40674
3.765	36.35559
3.7655	30.71594
3.766	31.62231
3.7665	23.46497
3.767	15.40833
3.7675	4.02832
3.768	-15.20691
3.7685	-25.98267
3.769	-27.29187
3.7695	-33.33435
3.77	-42.19666
3.7705	-41.69312
3.771	-39.07471
3.7715	-39.98108
3.772	-41.08887
3.7725	-37.06055
3.773	-34.64355
3.7735	-17.42249
3.774	8.05664
3.7745	54.88586
3.775	111.68518
3.7755	180.26733
3.776	280.77393
3.7765	365.57007
3.777	411.79504
3.7775	399.9115
3.778	362.146
3.7785	322.46704
3.779	245.72754
3.7795	166.57104
3.78	73.21472
3.7805	-22.55859
3.781	-123.06519
3.7815	-214.20593
3.782	-299.70703
3.7825	-359.6283
3.783	-400.01221
3.7835	-412.29858
3.784	-385.30884
3.7845	-342.81006
3.785	-294.06738
3.7855	-231.62842
3.786	-182.18079
3.7865	-138.17139
3.787	-98.89526
3.7875	-64.05029
3.788	-44.71436
3.7885	-22.25647
3.789	19.23523
3.7895	43.30444
3.79	62.74109
3.7905	70.99915
3.791	75.83313
3.7915	72.30835
3.792	77.54517
3.7925	75.63171
3.793	62.13684
3.7935	53.97949
3.794	62.23755
3.7945	88.0188
3.795	121.25244
3.7955	138.97705
3.796	134.74731
3.7965	118.63403
3.797	100.70801
3.7975	80.4657
3.798	61.02905
3.7985	40.98816
3.799	18.63098
3.7995	1.81274
3.8	-39.67896
3.8005	-73.91968
3.801	-103.42712
3.8015	-132.73315
3.802	-144.81812
3.8025	-146.93298
3.803	-152.97546
3.8035	-147.43652
3.804	-145.01953
3.8045	-154.18396
3.805	-164.15405
3.8055	-153.17688
3.806	-106.9519
3.8065	-58.30994
3.807	-7.65381
3.8075	49.74976
3.808	102.82288
3.8085	163.4491
3.809	193.05725
3.8095	195.07141
3.81	184.19495
3.8105	171.50574
3.811	153.17688
3.8115	116.31775
3.812	81.06995
3.8125	62.53967
3.813	39.67896
3.8135	5.23682
3.814	-37.86621
3.8145	-70.59631
3.815	-91.745
3.8155	-105.44128
3.816	-114.80713
3.8165	-115.31067
3.817	-111.28235
3.8175	-112.18872
3.818	-113.49792
3.8185	-93.0542
3.819	-66.76941
3.8195	-44.11011
3.82	-29.70886
3.8205	-6.3446
3.821	41.4917
3.8215	100.00305
3.822	207.5592
3.8225	333.54492
3.823	423.27576
3.8235	466.88232
3.824	470.70923
3.8245	447.04285
3.825	402.12708
3.8255	333.94775
3.826	274.32861
3.8265	226.69373
3.827	173.21777
3.8275	89.02588
3.828	-4.33044
3.8285	-81.97632
3.829	-156.90308
3.8295	-216.72363
3.83	-266.5741
3.8305	-291.54968
3.831	-301.01624
3.8315	-312.69836
3.832	-325.79041
3.8325	-333.94775
3.833	-335.65979
3.8335	-314.20898
3.834	-277.14844
3.8345	-210.78186
3.835	-156.70166
3.8355	-119.64111
3.836	-101.71509
3.8365	-80.86853
3.837	-58.41064
3.8375	-41.59241
3.838	-25.68054
3.8385	1.00708
3.839	22.96143
3.8395	40.1825
3.84	54.48303
3.8405	45.2179
3.841	35.14709
3.8415	30.81665
3.842	45.62073
3.8425	60.72693
3.843	80.96924
3.8435	91.8457
3.844	98.0896
3.8445	104.13208
3.845	102.11792
3.8455	88.0188
3.846	76.63879
3.8465	77.24304
3.847	67.77649
3.8475	49.34692
3.848	29.10461
3.8485	11.88354
3.849	3.02124
3.8495	-11.78284
3.85	-27.59399
3.8505	-15.20691
3.851	0.30212
3.8515	27.59399
3.852	55.69153
3.8525	61.53259
3.853	67.77649
3.8535	67.8772
3.854	74.82605
3.8545	76.7395
3.855	68.88428
3.8555	65.46021
3.856	58.41064
3.8565	48.74268
3.857	30.31311
3.8575	10.47363
3.858	-14.40125
3.8585	-22.96143
3.859	-20.34302
3.8595	-25.47913
3.86	-32.83081
3.8605	-40.38391
3.861	-51.86462
3.8615	-59.1156
3.862	-51.96533
3.8625	-47.43347
3.863	-32.7301
3.8635	-33.23364
3.864	-27.09045
3.8645	-16.51611
3.865	-13.89771
3.8655	-8.35876
