Christian_Larivera_Left_3.c3d  



Time(s):	C_R_bicipite(μV):
0	0
0.0005	-0.30212
0.001	1.71204
0.0015	5.43823
0.002	-0.50354
0.0025	2.21558
0.003	-2.5177
0.0035	1.40991
0.004	-1.71204
0.0045	3.42407
0.005	0.40283
0.0055	5.53894
0.006	3.22266
0.0065	-1.2085
0.007	-0.30212
0.0075	3.32336
0.008	-0.50354
0.0085	3.7262
0.009	4.43115
0.0095	5.23682
0.01	3.02124
0.0105	-1.91345
0.011	2.5177
0.0115	5.53894
0.012	2.11487
0.0125	5.0354
0.013	3.02124
0.0135	7.04956
0.014	6.04248
0.0145	0.90637
0.015	-0.10071
0.0155	0
0.016	1.00708
0.0165	0
0.017	2.41699
0.0175	3.62549
0.018	3.12195
0.0185	1.91345
0.019	-2.5177
0.0195	7.35168
0.02	1.51062
0.0205	0.30212
0.021	3.7262
0.0215	4.43115
0.022	-0.10071
0.0225	2.21558
0.023	-3.32336
0.0235	-5.23682
0.024	-4.33044
0.0245	-0.80566
0.025	-1.3092
0.0255	-2.21558
0.026	4.02832
0.0265	-2.11487
0.027	1.00708
0.0275	-3.52478
0.028	2.71912
0.0285	5.23682
0.029	4.63257
0.0295	2.61841
0.03	1.81274
0.0305	4.02832
0.031	0.40283
0.0315	-2.5177
0.032	-0.80566
0.0325	-0.30212
0.033	0.80566
0.0335	-2.5177
0.034	-2.5177
0.0345	3.62549
0.035	4.83398
0.0355	-0.80566
0.036	-0.40283
0.0365	1.71204
0.037	0.90637
0.0375	-3.02124
0.038	-0.90637
0.0385	-0.50354
0.039	2.5177
0.0395	2.92053
0.04	-2.81982
0.0405	-0.60425
0.041	1.10779
0.0415	-3.02124
0.042	-1.81274
0.0425	0
0.043	3.32336
0.0435	-2.41699
0.044	-3.7262
0.0445	1.81274
0.045	1.00708
0.0455	-0.80566
0.046	4.43115
0.0465	1.2085
0.047	0
0.0475	4.12903
0.048	6.94885
0.0485	1.10779
0.049	-3.8269
0.0495	1.3092
0.05	-2.5177
0.0505	4.53186
0.051	0
0.0515	2.41699
0.052	4.02832
0.0525	2.92053
0.053	3.7262
0.0535	5.84106
0.054	6.84814
0.0545	4.43115
0.055	2.81982
0.0555	2.11487
0.056	1.81274
0.0565	1.51062
0.057	6.14319
0.0575	6.84814
0.058	2.61841
0.0585	-5.0354
0.059	-2.21558
0.0595	-3.7262
0.06	-1.3092
0.0605	-0.40283
0.061	-0.60425
0.0615	-4.73328
0.062	-0.30212
0.0625	-3.52478
0.063	0.70496
0.0635	-0.50354
0.064	1.10779
0.0645	5.33752
0.065	1.00708
0.0655	-1.40991
0.066	-3.62549
0.0665	1.10779
0.067	0.20142
0.0675	2.71912
0.068	3.12195
0.0685	1.51062
0.069	2.81982
0.0695	2.71912
0.07	3.32336
0.0705	6.04248
0.071	8.56018
0.0715	1.91345
0.072	13.59558
0.0725	11.38
0.073	7.45239
0.0735	2.71912
0.074	6.74744
0.0745	4.63257
0.075	1.61133
0.0755	-0.80566
0.076	4.83398
0.0765	4.63257
0.077	-2.41699
0.0775	-3.22266
0.078	-2.11487
0.0785	2.71912
0.079	-4.43115
0.0795	1.40991
0.08	3.62549
0.0805	1.71204
0.081	-3.8269
0.0815	-4.22974
0.082	-4.43115
0.0825	1.91345
0.083	-3.12195
0.0835	1.10779
0.084	2.81982
0.0845	1.61133
0.085	-0.10071
0.0855	4.83398
0.086	1.40991
0.0865	-0.80566
0.087	-2.01416
0.0875	-2.21558
0.088	-4.63257
0.0885	-2.61841
0.089	-2.41699
0.0895	-3.52478
0.09	-1.51062
0.0905	-5.74036
0.091	-6.64673
0.0915	-3.62549
0.092	-4.83398
0.0925	-3.7262
0.093	-3.12195
0.0935	-6.44531
0.094	-1.10779
0.0945	-2.61841
0.095	-1.91345
0.0955	-1.51062
0.096	-1.3092
0.0965	-1.2085
0.097	4.93469
0.0975	1.91345
0.098	10.87646
0.0985	3.22266
0.099	3.22266
0.0995	5.33752
0.1	-0.40283
0.1005	2.92053
0.101	2.71912
0.1015	1.40991
0.102	-1.2085
0.1025	3.12195
0.103	7.15027
0.1035	2.61841
0.104	-0.50354
0.1045	0.70496
0.105	-0.90637
0.1055	-4.12903
0.106	-1.40991
0.1065	5.63965
0.107	5.43823
0.1075	1.51062
0.108	6.3446
0.1085	4.73328
0.109	1.51062
0.1095	1.00708
0.11	5.23682
0.1105	3.52478
0.111	2.11487
0.1115	1.91345
0.112	5.84106
0.1125	2.41699
0.113	6.2439
0.1135	4.53186
0.114	2.11487
0.1145	-3.7262
0.115	-1.91345
0.1155	0.30212
0.116	1.40991
0.1165	-1.3092
0.117	-0.20142
0.1175	-2.01416
0.118	-2.81982
0.1185	-3.8269
0.119	-2.61841
0.1195	1.91345
0.12	-3.22266
0.1205	2.21558
0.121	-2.81982
0.1215	-3.92761
0.122	8.7616
0.1225	-0.60425
0.123	0.30212
0.1235	2.61841
0.124	-0.80566
0.1245	5.63965
0.125	1.81274
0.1255	1.51062
0.126	4.73328
0.1265	3.12195
0.127	0.40283
0.1275	2.71912
0.128	5.53894
0.1285	4.53186
0.129	-0.40283
0.1295	4.12903
0.13	3.22266
0.1305	-2.31628
0.131	-2.11487
0.1315	-4.12903
0.132	0.90637
0.1325	6.54602
0.133	0.30212
0.1335	1.00708
0.134	1.91345
0.1345	9.97009
0.135	-1.40991
0.1355	1.40991
0.136	-3.8269
0.1365	-4.12903
0.137	-2.11487
0.1375	-3.7262
0.138	-4.22974
0.1385	-4.02832
0.139	-1.91345
0.1395	1.10779
0.14	3.8269
0.1405	-5.0354
0.141	-3.92761
0.1415	-8.8623
0.142	-0.80566
0.1425	-1.10779
0.143	0.30212
0.1435	-2.11487
0.144	-0.70496
0.1445	-0.20142
0.145	0.50354
0.1455	1.2085
0.146	-0.40283
0.1465	2.11487
0.147	4.93469
0.1475	1.91345
0.148	2.71912
0.1485	-0.90637
0.149	2.41699
0.1495	-1.10779
0.15	0.70496
0.1505	1.71204
0.151	0
0.1515	-2.11487
0.152	1.91345
0.1525	-3.7262
0.153	0.70496
0.1535	1.10779
0.154	7.15027
0.1545	4.33044
0.155	2.61841
0.1555	4.33044
0.156	7.04956
0.1565	2.11487
0.157	1.61133
0.1575	4.12903
0.158	1.2085
0.1585	4.63257
0.159	8.56018
0.1595	3.52478
0.16	3.12195
0.1605	3.7262
0.161	4.73328
0.1615	4.12903
0.162	5.63965
0.1625	7.04956
0.163	2.31628
0.1635	-0.70496
0.164	2.92053
0.1645	1.81274
0.165	0.80566
0.1655	4.93469
0.166	-4.83398
0.1665	0.80566
0.167	-0.60425
0.1675	1.00708
0.168	-1.61133
0.1685	0.40283
0.169	0.30212
0.1695	-3.52478
0.17	3.22266
0.1705	-2.71912
0.171	-0.40283
0.1715	-2.61841
0.172	-0.60425
0.1725	5.53894
0.173	2.31628
0.1735	-0.50354
0.174	0.50354
0.1745	1.10779
0.175	0.10071
0.1755	0.30212
0.176	1.71204
0.1765	1.00708
0.177	0.60425
0.1775	-1.00708
0.178	-0.50354
0.1785	-3.02124
0.179	-2.5177
0.1795	1.91345
0.18	-1.10779
0.1805	1.10779
0.181	-3.02124
0.1815	0.80566
0.182	-3.8269
0.1825	-0.90637
0.183	1.40991
0.1835	-2.01416
0.184	2.31628
0.1845	2.81982
0.185	0.40283
0.1855	-0.70496
0.186	-5.0354
0.1865	-2.11487
0.187	-3.32336
0.1875	-0.40283
0.188	-1.40991
0.1885	0
0.189	-1.51062
0.1895	0.20142
0.19	2.31628
0.1905	0.60425
0.191	4.22974
0.1915	2.01416
0.192	5.13611
0.1925	-2.31628
0.193	0.90637
0.1935	0.60425
0.194	1.2085
0.1945	-2.31628
0.195	1.91345
0.1955	2.31628
0.196	-3.62549
0.1965	-1.40991
0.197	-2.21558
0.1975	-3.02124
0.198	-6.84814
0.1985	-3.62549
0.199	-8.8623
0.1995	-5.23682
0.2	-7.75452
0.2005	-4.12903
0.201	-6.64673
0.2015	-1.10779
0.202	-4.63257
0.2025	2.92053
0.203	5.0354
0.2035	5.43823
0.204	2.92053
0.2045	0.30212
0.205	-0.20142
0.2055	4.02832
0.206	3.62549
0.2065	2.21558
0.207	4.73328
0.2075	6.84814
0.208	-2.01416
0.2085	-0.50354
0.209	0.90637
0.2095	-1.10779
0.21	-2.01416
0.2105	-1.00708
0.211	-3.8269
0.2115	-5.53894
0.212	-2.21558
0.2125	1.3092
0.213	-7.45239
0.2135	1.3092
0.214	-1.2085
0.2145	0.80566
0.215	-2.01416
0.2155	1.00708
0.216	3.92761
0.2165	2.5177
0.217	5.43823
0.2175	8.8623
0.218	9.26514
0.2185	0.10071
0.219	2.31628
0.2195	3.32336
0.22	5.84106
0.2205	2.41699
0.221	5.23682
0.2215	4.12903
0.222	10.17151
0.2225	8.35876
0.223	6.44531
0.2235	5.0354
0.224	11.68213
0.2245	4.63257
0.225	6.14319
0.2255	7.75452
0.226	8.45947
0.2265	10.47363
0.227	0.70496
0.2275	5.94177
0.228	5.74036
0.2285	6.74744
0.229	5.84106
0.2295	-1.40991
0.23	1.51062
0.2305	1.71204
0.231	-0.30212
0.2315	-1.3092
0.232	-0.20142
0.2325	2.01416
0.233	0.70496
0.2335	0.70496
0.234	-2.01416
0.2345	0.70496
0.235	-1.3092
0.2355	-0.50354
0.236	-3.02124
0.2365	-4.93469
0.237	-1.3092
0.2375	-6.3446
0.238	-2.31628
0.2385	-0.70496
0.239	-3.32336
0.2395	-3.62549
0.24	-2.21558
0.2405	2.11487
0.241	-5.43823
0.2415	-1.51062
0.242	0.90637
0.2425	1.91345
0.243	2.71912
0.2435	0.30212
0.244	-1.40991
0.2445	0.30212
0.245	1.00708
0.2455	-4.12903
0.246	-1.81274
0.2465	-2.81982
0.247	-0.20142
0.2475	1.81274
0.248	5.23682
0.2485	0.10071
0.249	-0.40283
0.2495	-1.71204
0.25	-0.40283
0.2505	-3.32336
0.251	-2.81982
0.2515	2.21558
0.252	2.31628
0.2525	6.94885
0.253	2.21558
0.2535	5.63965
0.254	0.80566
0.2545	2.81982
0.255	8.7616
0.2555	3.42407
0.256	2.71912
0.2565	1.81274
0.257	2.92053
0.2575	5.13611
0.258	1.00708
0.2585	5.33752
0.259	4.53186
0.2595	8.05664
0.26	2.61841
0.2605	2.41699
0.261	2.5177
0.2615	2.41699
0.262	-1.3092
0.2625	-1.2085
0.263	0.90637
0.2635	-1.81274
0.264	1.10779
0.2645	5.23682
0.265	3.52478
0.2655	3.62549
0.266	0.50354
0.2665	5.0354
0.267	4.53186
0.2675	4.63257
0.268	5.13611
0.2685	8.66089
0.269	6.14319
0.2695	4.33044
0.27	-2.01416
0.2705	4.63257
0.271	2.31628
0.2715	-0.90637
0.272	-2.92053
0.2725	0.60425
0.273	1.10779
0.2735	-0.60425
0.274	-1.91345
0.2745	1.40991
0.275	1.71204
0.2755	0.10071
0.276	-1.91345
0.2765	-3.62549
0.277	-6.04248
0.2775	-1.91345
0.278	3.02124
0.2785	0.70496
0.279	3.22266
0.2795	4.73328
0.28	4.22974
0.2805	-0.60425
0.281	1.3092
0.2815	2.81982
0.282	2.81982
0.2825	7.04956
0.283	2.21558
0.2835	1.71204
0.284	-2.31628
0.2845	0.20142
0.285	-2.61841
0.2855	1.00708
0.286	0.90637
0.2865	0.50354
0.287	4.22974
0.2875	3.42407
0.288	-0.40283
0.2885	1.51062
0.289	3.52478
0.2895	2.01416
0.29	-4.33044
0.2905	0.90637
0.291	-0.40283
0.2915	-2.41699
0.292	6.3446
0.2925	2.01416
0.293	-0.50354
0.2935	2.71912
0.294	6.14319
0.2945	3.22266
0.295	2.71912
0.2955	-0.40283
0.296	6.2439
0.2965	2.92053
0.297	4.53186
0.2975	2.11487
0.298	4.83398
0.2985	3.22266
0.299	1.51062
0.2995	6.14319
0.3	8.35876
0.3005	2.41699
0.301	5.84106
0.3015	0.30212
0.302	1.10779
0.3025	4.93469
0.303	1.3092
0.3035	2.5177
0.304	2.31628
0.3045	-11.48071
0.305	-1.91345
0.3055	-4.63257
0.306	-8.96301
0.3065	-12.18567
0.307	-9.56726
0.3075	-3.7262
0.308	-12.28638
0.3085	-11.17859
0.309	-6.94885
0.3095	-9.76868
0.31	-13.59558
0.3105	-9.36584
0.311	-8.7616
0.3115	-7.95593
0.312	-11.88354
0.3125	-4.12903
0.313	-4.43115
0.3135	-5.13611
0.314	-5.63965
0.3145	-9.66797
0.315	-6.54602
0.3155	-11.38
0.316	-12.68921
0.3165	-14.40125
0.317	-10.97717
0.3175	-10.0708
0.318	-9.46655
0.3185	-13.69629
0.319	-12.68921
0.3195	-13.99841
0.32	-12.99133
0.3205	-12.99133
0.321	-18.93311
0.3215	-19.53735
0.322	-22.25647
0.3225	-15.30762
0.323	-18.12744
0.3235	-13.09204
0.324	-12.18567
0.3245	-17.6239
0.325	-10.87646
0.3255	-9.06372
0.326	-14.40125
0.3265	-10.77576
0.327	-16.81824
0.3275	-10.97717
0.328	-11.17859
0.3285	-17.01965
0.329	-15.40833
0.3295	-11.48071
0.33	-17.12036
0.3305	-13.19275
0.331	-9.97009
0.3315	-10.67505
0.332	-7.35168
0.3325	-5.63965
0.333	-7.25098
0.3335	-1.51062
0.334	-1.51062
0.3345	2.31628
0.335	2.71912
0.3355	-3.62549
0.336	0.50354
0.3365	3.52478
0.337	-1.51062
0.3375	-0.30212
0.338	7.15027
0.3385	2.92053
0.339	3.52478
0.3395	4.53186
0.34	7.35168
0.3405	1.61133
0.341	3.22266
0.3415	1.91345
0.342	6.2439
0.3425	6.74744
0.343	2.61841
0.3435	5.74036
0.344	12.78992
0.3445	6.04248
0.345	8.15735
0.3455	3.92761
0.346	4.02832
0.3465	7.25098
0.347	5.43823
0.3475	4.12903
0.348	6.94885
0.3485	9.86938
0.349	3.02124
0.3495	10.37292
0.35	8.45947
0.3505	7.75452
0.351	9.46655
0.3515	11.78284
0.352	12.78992
0.3525	10.27222
0.353	13.59558
0.3535	10.67505
0.354	9.06372
0.3545	8.7616
0.355	9.36584
0.3555	7.5531
0.356	10.47363
0.3565	10.67505
0.357	11.38
0.3575	8.25806
0.358	9.26514
0.3585	8.25806
0.359	9.26514
0.3595	7.75452
0.36	6.04248
0.3605	2.92053
0.361	2.92053
0.3615	10.47363
0.362	4.43115
0.3625	9.36584
0.363	7.75452
0.3635	9.46655
0.364	-0.70496
0.3645	6.54602
0.365	3.92761
0.3655	6.04248
0.366	3.62549
0.3665	8.96301
0.367	8.96301
0.3675	5.23682
0.368	3.22266
0.3685	9.56726
0.369	9.76868
0.3695	10.67505
0.37	12.28638
0.3705	2.31628
0.371	6.04248
0.3715	5.74036
0.372	5.74036
0.3725	10.67505
0.373	11.2793
0.3735	5.74036
0.374	9.86938
0.3745	8.25806
0.375	5.63965
0.3755	4.22974
0.376	2.92053
0.3765	8.96301
0.377	5.74036
0.3775	5.33752
0.378	4.22974
0.3785	3.8269
0.379	7.95593
0.3795	3.42407
0.38	3.62549
0.3805	2.92053
0.381	-1.51062
0.3815	6.2439
0.382	0.80566
0.3825	2.5177
0.383	-1.00708
0.3835	-0.50354
0.384	6.74744
0.3845	1.61133
0.385	2.41699
0.3855	5.84106
0.386	1.81274
0.3865	1.3092
0.387	4.53186
0.3875	1.51062
0.388	1.2085
0.3885	0
0.389	4.63257
0.3895	0.60425
0.39	-0.60425
0.3905	0.50354
0.391	-2.92053
0.3915	4.63257
0.392	-0.80566
0.3925	6.3446
0.393	6.54602
0.3935	2.31628
0.394	1.61133
0.3945	-3.02124
0.395	3.02124
0.3955	0.80566
0.396	1.40991
0.3965	4.53186
0.397	-0.10071
0.3975	1.71204
0.398	4.93469
0.3985	4.12903
0.399	3.92761
0.3995	1.2085
0.4	6.94885
0.4005	7.15027
0.401	4.93469
0.4015	4.43115
0.402	3.12195
0.4025	4.83398
0.403	9.86938
0.4035	10.87646
0.404	7.5531
0.4045	4.22974
0.405	1.61133
0.4055	3.7262
0.406	3.22266
0.4065	3.32336
0.407	1.10779
0.4075	0.60425
0.408	2.21558
0.4085	7.85522
0.409	1.91345
0.4095	2.41699
0.41	3.62549
0.4105	-0.10071
0.411	-2.01416
0.4115	-4.43115
0.412	-5.43823
0.4125	-1.40991
0.413	-2.92053
0.4135	-6.04248
0.414	-9.06372
0.4145	-12.18567
0.415	-0.90637
0.4155	-3.42407
0.416	-10.47363
0.4165	-3.62549
0.417	-9.76868
0.4175	-8.05664
0.418	-9.06372
0.4185	-6.14319
0.419	-2.71912
0.4195	-5.74036
0.42	-0.90637
0.4205	1.2085
0.421	-2.31628
0.4215	-0.40283
0.422	-1.71204
0.4225	-1.40991
0.423	-6.14319
0.4235	-1.3092
0.424	-3.02124
0.4245	0.60425
0.425	1.00708
0.4255	0.70496
0.426	-4.12903
0.4265	-3.02124
0.427	-2.31628
0.4275	-6.74744
0.428	2.31628
0.4285	8.15735
0.429	3.8269
0.4295	3.12195
0.43	-5.63965
0.4305	-0.90637
0.431	-4.93469
0.4315	-4.02832
0.432	-1.71204
0.4325	-3.62549
0.433	2.81982
0.4335	-1.2085
0.434	-4.63257
0.4345	1.10779
0.435	1.2085
0.4355	-1.71204
0.436	0.70496
0.4365	-5.74036
0.437	-6.2439
0.4375	-5.74036
0.438	-4.73328
0.4385	0.10071
0.439	-1.40991
0.4395	-0.10071
0.44	-3.22266
0.4405	0.90637
0.441	-1.00708
0.4415	-6.3446
0.442	1.40991
0.4425	-0.90637
0.443	-1.81274
0.4435	1.3092
0.444	-0.80566
0.4445	-4.63257
0.445	0.10071
0.4455	5.94177
0.446	1.2085
0.4465	3.22266
0.447	2.81982
0.4475	3.8269
0.448	4.22974
0.4485	5.0354
0.449	0.80566
0.4495	-0.10071
0.45	-2.11487
0.4505	0.60425
0.451	-0.70496
0.4515	-2.31628
0.452	-8.7616
0.4525	-9.26514
0.453	-4.02832
0.4535	-1.10779
0.454	-1.51062
0.4545	-5.13611
0.455	-1.61133
0.4555	-1.51062
0.456	1.10779
0.4565	-2.41699
0.457	-1.10779
0.4575	4.22974
0.458	-3.62549
0.4585	-5.74036
0.459	-3.8269
0.4595	-1.00708
0.46	6.84814
0.4605	-2.11487
0.461	-6.14319
0.4615	-2.81982
0.462	-7.45239
0.4625	4.22974
0.463	-1.91345
0.4635	4.12903
0.464	0.70496
0.4645	-2.92053
0.465	1.3092
0.4655	2.01416
0.466	0.70496
0.4665	0.20142
0.467	-0.10071
0.4675	1.81274
0.468	-0.80566
0.4685	-0.90637
0.469	-2.81982
0.4695	-6.84814
0.47	-4.73328
0.4705	-4.83398
0.471	-1.81274
0.4715	-3.22266
0.472	-1.2085
0.4725	-1.2085
0.473	-5.94177
0.4735	-3.62549
0.474	-2.61841
0.4745	-7.35168
0.475	-0.90637
0.4755	2.61841
0.476	-4.83398
0.4765	0.30212
0.477	-2.21558
0.4775	-6.84814
0.478	-1.10779
0.4785	2.21558
0.479	2.5177
0.4795	1.10779
0.48	4.22974
0.4805	4.93469
0.481	-4.83398
0.4815	-0.80566
0.482	-0.10071
0.4825	3.22266
0.483	1.51062
0.4835	1.2085
0.484	-1.00708
0.4845	0.30212
0.485	2.5177
0.4855	-2.41699
0.486	-1.3092
0.4865	-3.7262
0.487	-5.23682
0.4875	-13.39417
0.488	-11.38
0.4885	-3.8269
0.489	-12.68921
0.4895	-9.46655
0.49	2.31628
0.4905	0.50354
0.491	-0.80566
0.4915	1.81274
0.492	-0.90637
0.4925	-1.81274
0.493	0.20142
0.4935	2.81982
0.494	-1.40991
0.4945	-8.96301
0.495	-1.3092
0.4955	2.11487
0.496	-1.61133
0.4965	1.2085
0.497	-2.01416
0.4975	0
0.498	-3.7262
0.4985	-5.74036
0.499	-1.2085
0.4995	2.5177
0.5	-2.11487
0.5005	-2.21558
0.501	0.70496
0.5015	0.30212
0.502	-4.73328
0.5025	-2.31628
0.503	-2.31628
0.5035	1.3092
0.504	-6.04248
0.5045	-0.90637
0.505	2.92053
0.5055	-1.00708
0.506	0.90637
0.5065	0.30212
0.507	-4.22974
0.5075	-1.00708
0.508	-2.41699
0.5085	-1.81274
0.509	-6.94885
0.5095	-2.81982
0.51	-1.71204
0.5105	0.60425
0.511	-3.8269
0.5115	0.50354
0.512	3.52478
0.5125	-1.2085
0.513	1.71204
0.5135	2.5177
0.514	0.50354
0.5145	6.44531
0.515	1.81274
0.5155	1.2085
0.516	0.30212
0.5165	2.61841
0.517	3.12195
0.5175	-1.40991
0.518	5.74036
0.5185	6.84814
0.519	3.02124
0.5195	0.50354
0.52	-4.93469
0.5205	-5.23682
0.521	-4.22974
0.5215	-6.44531
0.522	-6.74744
0.5225	-5.53894
0.523	-8.35876
0.5235	-6.3446
0.524	-0.10071
0.5245	-12.5885
0.525	-0.60425
0.5255	0.50354
0.526	-4.02832
0.5265	-1.61133
0.527	-2.41699
0.5275	0.40283
0.528	0.20142
0.5285	-3.32336
0.529	-2.21558
0.5295	-6.04248
0.53	-1.51062
0.5305	-1.91345
0.531	7.25098
0.5315	7.45239
0.532	3.02124
0.5325	3.22266
0.533	3.32336
0.5335	4.43115
0.534	-0.80566
0.5345	-0.20142
0.535	-0.20142
0.5355	1.00708
0.536	5.13611
0.5365	-3.02124
0.537	7.45239
0.5375	5.23682
0.538	2.5177
0.5385	7.04956
0.539	3.02124
0.5395	0
0.54	2.71912
0.5405	5.74036
0.541	8.7616
0.5415	7.65381
0.542	8.25806
0.5425	4.22974
0.543	2.71912
0.5435	4.43115
0.544	0.70496
0.5445	1.71204
0.545	0.50354
0.5455	-0.10071
0.546	-3.22266
0.5465	-4.43115
0.547	-3.52478
0.5475	-6.3446
0.548	-8.96301
0.5485	-8.56018
0.549	-9.97009
0.5495	-4.12903
0.55	0.90637
0.5505	-5.33752
0.551	-5.84106
0.5515	-7.45239
0.552	-7.15027
0.5525	-7.65381
0.553	-1.3092
0.5535	-1.61133
0.554	2.21558
0.5545	-2.81982
0.555	-0.30212
0.5555	2.71912
0.556	3.8269
0.5565	-1.81274
0.557	-0.30212
0.5575	-0.90637
0.558	-0.90637
0.5585	1.3092
0.559	-0.20142
0.5595	6.04248
0.56	3.22266
0.5605	2.01416
0.561	3.92761
0.5615	-2.61841
0.562	6.44531
0.5625	-4.22974
0.563	-4.33044
0.5635	-0.90637
0.564	2.41699
0.5645	5.13611
0.565	0.60425
0.5655	0
0.566	-0.40283
0.5665	-3.62549
0.567	-1.81274
0.5675	-2.01416
0.568	-3.92761
0.5685	-6.3446
0.569	-7.85522
0.5695	-4.53186
0.57	-6.74744
0.5705	-2.61841
0.571	-0.90637
0.5715	-6.74744
0.572	1.00708
0.5725	-4.43115
0.573	-1.2085
0.5735	-1.51062
0.574	-2.31628
0.5745	-4.02832
0.575	0.90637
0.5755	3.12195
0.576	1.81274
0.5765	6.54602
0.577	1.81274
0.5775	1.2085
0.578	5.43823
0.5785	7.75452
0.579	2.31628
0.5795	-1.2085
0.58	2.71912
0.5805	1.71204
0.581	2.71912
0.5815	4.53186
0.582	2.5177
0.5825	1.61133
0.583	-0.40283
0.5835	1.3092
0.584	-1.61133
0.5845	-0.30212
0.585	-1.3092
0.5855	-2.92053
0.586	-2.31628
0.5865	-0.60425
0.587	3.42407
0.5875	2.31628
0.588	1.10779
0.5885	0.70496
0.589	-2.61841
0.5895	1.40991
0.59	5.0354
0.5905	7.5531
0.591	2.11487
0.5915	1.40991
0.592	0.40283
0.5925	2.01416
0.593	5.0354
0.5935	-1.2085
0.594	-0.30212
0.5945	-6.3446
0.595	-0.60425
0.5955	0.10071
0.596	2.31628
0.5965	-6.3446
0.597	-1.2085
0.5975	3.92761
0.598	0.70496
0.5985	1.2085
0.599	-0.30212
0.5995	0.50354
0.6	-4.73328
0.6005	3.8269
0.601	2.5177
0.6015	2.61841
0.602	3.42407
0.6025	-0.50354
0.603	0.50354
0.6035	-2.61841
0.604	-3.7262
0.6045	3.62549
0.605	1.10779
0.6055	-3.7262
0.606	2.92053
0.6065	2.71912
0.607	3.8269
0.6075	5.13611
0.608	1.3092
0.6085	4.83398
0.609	-0.40283
0.6095	-3.8269
0.61	-1.10779
0.6105	-0.20142
0.611	4.93469
0.6115	3.52478
0.612	3.8269
0.6125	9.26514
0.613	10.87646
0.6135	11.68213
0.614	9.76868
0.6145	8.8623
0.615	3.02124
0.6155	6.64673
0.616	7.04956
0.6165	0.70496
0.617	5.43823
0.6175	2.92053
0.618	-2.21558
0.6185	0.90637
0.619	-1.51062
0.6195	0
0.62	-4.33044
0.6205	0.60425
0.621	-1.40991
0.6215	-1.61133
0.622	-0.80566
0.6225	-3.22266
0.623	-7.95593
0.6235	-14.50195
0.624	-9.86938
0.6245	-3.42407
0.625	-2.92053
0.6255	-4.22974
0.626	-5.0354
0.6265	-6.2439
0.627	-5.94177
0.6275	-3.62549
0.628	1.2085
0.6285	-3.42407
0.629	-2.11487
0.6295	-5.74036
0.63	-6.04248
0.6305	-4.53186
0.631	-2.92053
0.6315	-10.0708
0.632	-2.01416
0.6325	-1.91345
0.633	1.10779
0.6335	-0.20142
0.634	0.10071
0.6345	-3.22266
0.635	-6.14319
0.6355	-4.73328
0.636	-4.73328
0.6365	-5.13611
0.637	-2.11487
0.6375	-1.61133
0.638	-4.22974
0.6385	0.50354
0.639	-2.71912
0.6395	-10.47363
0.64	-6.54602
0.6405	-9.56726
0.641	-0.40283
0.6415	2.61841
0.642	-0.20142
0.6425	-3.12195
0.643	3.12195
0.6435	-3.8269
0.644	-1.71204
0.6445	-2.31628
0.645	-5.94177
0.6455	4.73328
0.646	0.60425
0.6465	-1.00708
0.647	-2.81982
0.6475	1.3092
0.648	5.63965
0.6485	-2.92053
0.649	0.90637
0.6495	-1.00708
0.65	-4.53186
0.6505	-8.05664
0.651	-0.90637
0.6515	-4.83398
0.652	-6.84814
0.6525	-2.01416
0.653	-3.02124
0.6535	4.33044
0.654	4.02832
0.6545	0.10071
0.655	-2.71912
0.6555	-2.41699
0.656	-2.5177
0.6565	3.42407
0.657	1.71204
0.6575	-3.02124
0.658	-0.30212
0.6585	-3.02124
0.659	0.40283
0.6595	0.60425
0.66	-1.91345
0.6605	-5.63965
0.661	-4.53186
0.6615	2.41699
0.662	3.02124
0.6625	2.11487
0.663	0.60425
0.6635	-5.0354
0.664	-1.81274
0.6645	-0.40283
0.665	0.50354
0.6655	-2.31628
0.666	0.70496
0.6665	0.40283
0.667	-3.8269
0.6675	0.70496
0.668	4.22974
0.6685	0
0.669	1.00708
0.6695	-2.5177
0.67	2.01416
0.6705	-3.92761
0.671	-0.60425
0.6715	1.40991
0.672	-0.10071
0.6725	-4.63257
0.673	-0.20142
0.6735	2.01416
0.674	3.92761
0.6745	-2.21558
0.675	1.51062
0.6755	2.21558
0.676	3.7262
0.6765	1.40991
0.677	-2.41699
0.6775	2.11487
0.678	4.93469
0.6785	0.80566
0.679	6.14319
0.6795	0.20142
0.68	-2.01416
0.6805	2.5177
0.681	-1.51062
0.6815	-2.21558
0.682	-4.43115
0.6825	3.12195
0.683	-3.02124
0.6835	-1.3092
0.684	0.10071
0.6845	-4.93469
0.685	-5.23682
0.6855	-4.83398
0.686	-4.63257
0.6865	-7.75452
0.687	-2.11487
0.6875	-8.66089
0.688	-0.80566
0.6885	-4.83398
0.689	-1.81274
0.6895	-2.71912
0.69	0.10071
0.6905	-2.61841
0.691	0.80566
0.6915	-2.01416
0.692	4.33044
0.6925	-3.7262
0.693	-2.31628
0.6935	0
0.694	-2.11487
0.6945	1.00708
0.695	2.11487
0.6955	-4.02832
0.696	0.90637
0.6965	0.50354
0.697	2.11487
0.6975	-0.60425
0.698	-0.50354
0.6985	3.52478
0.699	-1.61133
0.6995	6.84814
0.7	3.22266
0.7005	7.95593
0.701	1.71204
0.7015	0.80566
0.702	2.31628
0.7025	0.80566
0.703	2.5177
0.7035	-1.40991
0.704	2.81982
0.7045	-0.50354
0.705	6.3446
0.7055	3.12195
0.706	-0.30212
0.7065	0.20142
0.707	-0.20142
0.7075	5.63965
0.708	1.2085
0.7085	0.10071
0.709	1.81274
0.7095	2.81982
0.71	3.12195
0.7105	2.31628
0.711	5.84106
0.7115	-1.61133
0.712	-1.00708
0.7125	4.93469
0.713	7.85522
0.7135	6.44531
0.714	1.40991
0.7145	4.63257
0.715	-1.81274
0.7155	-2.81982
0.716	2.01416
0.7165	2.92053
0.717	4.73328
0.7175	0.70496
0.718	2.41699
0.7185	9.16443
0.719	0.70496
0.7195	-1.81274
0.72	-0.70496
0.7205	1.3092
0.721	-1.71204
0.7215	-4.63257
0.722	-6.84814
0.7225	-1.51062
0.723	-3.42407
0.7235	-7.95593
0.724	-4.12903
0.7245	-13.59558
0.725	-8.8623
0.7255	-13.69629
0.726	-8.8623
0.7265	-6.54602
0.727	-5.33752
0.7275	-1.51062
0.728	-2.41699
0.7285	-1.10779
0.729	0.20142
0.7295	-4.83398
0.73	-1.51062
0.7305	-0.30212
0.731	0.40283
0.7315	1.2085
0.732	2.01416
0.7325	0.80566
0.733	3.02124
0.7335	0.60425
0.734	2.41699
0.7345	-1.00708
0.735	5.74036
0.7355	1.91345
0.736	2.21558
0.7365	3.92761
0.737	0.70496
0.7375	-0.20142
0.738	-3.52478
0.7385	-2.5177
0.739	4.02832
0.7395	0.20142
0.74	6.54602
0.7405	-0.40283
0.741	9.06372
0.7415	8.15735
0.742	7.75452
0.7425	5.33752
0.743	7.65381
0.7435	6.94885
0.744	2.92053
0.7445	4.83398
0.745	5.13611
0.7455	4.73328
0.746	0.70496
0.7465	4.33044
0.747	8.56018
0.7475	8.66089
0.748	7.04956
0.7485	3.32336
0.749	2.41699
0.7495	2.01416
0.75	1.00708
0.7505	-2.01416
0.751	-1.81274
0.7515	-3.02124
0.752	3.42407
0.7525	-1.40991
0.753	-2.41699
0.7535	-1.3092
0.754	4.02832
0.7545	2.61841
0.755	-11.07788
0.7555	-5.53894
0.756	-7.85522
0.7565	-8.8623
0.757	-11.38
0.7575	-9.86938
0.758	-8.25806
0.7585	-6.14319
0.759	-13.69629
0.7595	-3.62549
0.76	-4.93469
0.7605	-1.71204
0.761	-5.63965
0.7615	-7.5531
0.762	-4.73328
0.7625	0.90637
0.763	-2.5177
0.7635	-2.92053
0.764	-1.00708
0.7645	-6.14319
0.765	2.71912
0.7655	5.63965
0.766	-2.41699
0.7665	0.40283
0.767	-1.81274
0.7675	-2.31628
0.768	-4.83398
0.7685	-3.22266
0.769	-9.97009
0.7695	-6.14319
0.77	-7.5531
0.7705	-3.12195
0.771	-0.10071
0.7715	0.40283
0.772	-3.02124
0.7725	-2.81982
0.773	-0.50354
0.7735	3.8269
0.774	3.02124
0.7745	2.71912
0.775	1.61133
0.7755	10.37292
0.776	2.71912
0.7765	-0.90637
0.777	3.12195
0.7775	1.71204
0.778	2.92053
0.7785	-1.71204
0.779	0.40283
0.7795	1.71204
0.78	0.80566
0.7805	-0.80566
0.781	-4.53186
0.7815	-6.64673
0.782	-7.75452
0.7825	-1.10779
0.783	-4.93469
0.7835	-5.94177
0.784	2.41699
0.7845	-1.91345
0.785	-9.76868
0.7855	-1.81274
0.786	-5.0354
0.7865	-7.45239
0.787	-0.20142
0.7875	-3.62549
0.788	4.33044
0.7885	5.33752
0.789	3.42407
0.7895	0
0.79	1.10779
0.7905	-0.90637
0.791	3.62549
0.7915	1.2085
0.792	5.13611
0.7925	-0.70496
0.793	4.22974
0.7935	4.33044
0.794	8.25806
0.7945	2.41699
0.795	1.2085
0.7955	4.93469
0.796	2.92053
0.7965	-2.5177
0.797	2.41699
0.7975	-1.40991
0.798	1.51062
0.7985	1.2085
0.799	-0.20142
0.7995	0.70496
0.8	-1.3092
0.8005	-1.40991
0.801	0.90637
0.8015	4.12903
0.802	2.21558
0.8025	-0.40283
0.803	4.33044
0.8035	2.31628
0.804	6.04248
0.8045	2.81982
0.805	9.46655
0.8055	3.12195
0.806	1.10779
0.8065	7.95593
0.807	6.64673
0.8075	2.81982
0.808	0.40283
0.8085	1.91345
0.809	3.12195
0.8095	3.32336
0.81	5.33752
0.8105	4.63257
0.811	2.5177
0.8115	7.45239
0.812	8.56018
0.8125	9.76868
0.813	7.65381
0.8135	10.0708
0.814	12.48779
0.8145	9.86938
0.815	12.38708
0.8155	6.44531
0.816	5.23682
0.8165	4.63257
0.817	-1.00708
0.8175	-5.0354
0.818	-1.61133
0.8185	0.20142
0.819	1.61133
0.8195	-4.63257
0.82	-1.91345
0.8205	-8.25806
0.821	-10.77576
0.8215	-9.16443
0.822	-8.25806
0.8225	-10.57434
0.823	-2.01416
0.8235	-3.7262
0.824	-0.60425
0.8245	3.02124
0.825	0.20142
0.8255	1.40991
0.826	-2.21558
0.8265	-2.71912
0.827	0.70496
0.8275	-2.92053
0.828	1.3092
0.8285	2.31628
0.829	3.8269
0.8295	-1.91345
0.83	-2.01416
0.8305	-3.32336
0.831	0.90637
0.8315	-0.10071
0.832	-1.3092
0.8325	-3.8269
0.833	-1.40991
0.8335	-1.40991
0.834	-3.8269
0.8345	-4.73328
0.835	-4.12903
0.8355	-4.02832
0.836	-0.40283
0.8365	2.21558
0.837	5.63965
0.8375	0.20142
0.838	0.10071
0.8385	-0.10071
0.839	3.32336
0.8395	-2.31628
0.84	0.40283
0.8405	-0.50354
0.841	-2.5177
0.8415	-5.23682
0.842	-2.31628
0.8425	-8.35876
0.843	-8.25806
0.8435	-0.10071
0.844	1.71204
0.8445	0.60425
0.845	-0.50354
0.8455	1.10779
0.846	-1.00708
0.8465	-0.20142
0.847	0.40283
0.8475	3.8269
0.848	-1.91345
0.8485	2.5177
0.849	0.30212
0.8495	-2.5177
0.85	-4.83398
0.8505	-2.92053
0.851	-3.22266
0.8515	-2.61841
0.852	1.51062
0.8525	4.12903
0.853	1.3092
0.8535	0
0.854	-5.0354
0.8545	1.61133
0.855	-0.50354
0.8555	-2.81982
0.856	0.20142
0.8565	-1.40991
0.857	2.31628
0.8575	7.15027
0.858	6.3446
0.8585	6.74744
0.859	1.10779
0.8595	-1.61133
0.86	0.80566
0.8605	1.2085
0.861	-0.70496
0.8615	0.40283
0.862	-1.81274
0.8625	-5.13611
0.863	1.40991
0.8635	1.00708
0.864	2.71912
0.8645	-3.42407
0.865	-4.02832
0.8655	-0.80566
0.866	-1.71204
0.8665	4.83398
0.867	6.04248
0.8675	2.81982
0.868	3.42407
0.8685	-0.80566
0.869	-0.90637
0.8695	2.01416
0.87	0.50354
0.8705	-1.00708
0.871	-3.32336
0.8715	1.51062
0.872	1.81274
0.8725	3.8269
0.873	2.11487
0.8735	-2.41699
0.874	5.43823
0.8745	1.81274
0.875	1.91345
0.8755	0.20142
0.876	0.60425
0.8765	4.43115
0.877	8.05664
0.8775	5.84106
0.878	-0.90637
0.8785	2.21558
0.879	1.3092
0.8795	4.33044
0.88	0.40283
0.8805	0.20142
0.881	-0.80566
0.8815	-0.70496
0.882	-6.64673
0.8825	-2.81982
0.883	1.71204
0.8835	-2.31628
0.884	0.40283
0.8845	-2.01416
0.885	-0.70496
0.8855	0.50354
0.886	2.21558
0.8865	-2.92053
0.887	4.02832
0.8875	-0.60425
0.888	-0.90637
0.8885	4.83398
0.889	-4.22974
0.8895	1.51062
0.89	1.00708
0.8905	1.51062
0.891	3.52478
0.8915	2.81982
0.892	5.53894
0.8925	-0.30212
0.893	2.01416
0.8935	6.04248
0.894	7.5531
0.8945	0.60425
0.895	0.40283
0.8955	-0.40283
0.896	-4.12903
0.8965	-3.02124
0.897	-0.20142
0.8975	7.35168
0.898	0.40283
0.8985	2.31628
0.899	2.01416
0.8995	2.5177
0.9	-2.92053
0.9005	2.92053
0.901	0.50354
0.9015	-1.40991
0.902	1.81274
0.9025	-0.90637
0.903	0.20142
0.9035	2.61841
0.904	-1.61133
0.9045	-1.71204
0.905	-5.74036
0.9055	-5.43823
0.906	2.31628
0.9065	1.40991
0.907	1.2085
0.9075	-3.42407
0.908	-2.31628
0.9085	-4.33044
0.909	-3.7262
0.9095	-2.61841
0.91	-1.51062
0.9105	0.20142
0.911	-2.5177
0.9115	-1.00708
0.912	-1.40991
0.9125	2.11487
0.913	-2.92053
0.9135	-3.02124
0.914	0.30212
0.9145	-5.53894
0.915	-3.52478
0.9155	2.41699
0.916	-2.5177
0.9165	1.10779
0.917	-3.22266
0.9175	-1.2085
0.918	1.61133
0.9185	-1.10779
0.919	0.10071
0.9195	4.02832
0.92	1.2085
0.9205	5.74036
0.921	3.92761
0.9215	-3.8269
0.922	3.02124
0.9225	0.80566
0.923	1.3092
0.9235	4.53186
0.924	2.31628
0.9245	-5.0354
0.925	3.62549
0.9255	-4.43115
0.926	-1.00708
0.9265	-3.52478
0.927	-4.12903
0.9275	-5.0354
0.928	-4.63257
0.9285	-6.94885
0.929	-10.87646
0.9295	-11.98425
0.93	-4.43115
0.9305	-6.3446
0.931	-6.3446
0.9315	-5.74036
0.932	-5.43823
0.9325	-8.96301
0.933	-7.45239
0.9335	-8.25806
0.934	-10.27222
0.9345	-7.5531
0.935	-9.66797
0.9355	-6.94885
0.936	-2.11487
0.9365	1.51062
0.937	-1.3092
0.9375	-0.60425
0.938	0
0.9385	1.3092
0.939	3.32336
0.9395	1.91345
0.94	0.80566
0.9405	5.13611
0.941	-1.61133
0.9415	0.50354
0.942	-3.62549
0.9425	-2.81982
0.943	1.3092
0.9435	3.12195
0.944	5.94177
0.9445	1.40991
0.945	-2.92053
0.9455	-2.11487
0.946	4.02832
0.9465	6.14319
0.947	3.12195
0.9475	4.43115
0.948	2.81982
0.9485	6.3446
0.949	7.95593
0.9495	3.22266
0.95	6.94885
0.9505	6.3446
0.951	4.02832
0.9515	6.3446
0.952	1.51062
0.9525	3.32336
0.953	10.67505
0.9535	8.66089
0.954	10.27222
0.9545	8.56018
0.955	6.2439
0.9555	5.33752
0.956	-0.30212
0.9565	-1.00708
0.957	-1.51062
0.9575	-1.61133
0.958	-2.92053
0.9585	-3.32336
0.959	-1.00708
0.9595	-9.06372
0.96	-7.35168
0.9605	-10.57434
0.961	-7.04956
0.9615	-4.02832
0.962	-9.86938
0.9625	-3.42407
0.963	0.30212
0.9635	1.00708
0.964	-1.40991
0.9645	-1.61133
0.965	-3.62549
0.9655	-2.11487
0.966	-2.71912
0.9665	-4.63257
0.967	-3.22266
0.9675	-6.3446
0.968	1.81274
0.9685	1.3092
0.969	-1.51062
0.9695	8.56018
0.97	2.31628
0.9705	1.40991
0.971	3.32336
0.9715	3.22266
0.972	1.61133
0.9725	0.90637
0.973	2.41699
0.9735	-0.20142
0.974	2.92053
0.9745	5.74036
0.975	4.43115
0.9755	-3.52478
0.976	-5.23682
0.9765	3.8269
0.977	5.53894
0.9775	1.00708
0.978	4.12903
0.9785	-0.40283
0.979	-1.71204
0.9795	3.92761
0.98	2.61841
0.9805	6.44531
0.981	-3.92761
0.9815	-1.10779
0.982	2.92053
0.9825	-2.61841
0.983	1.61133
0.9835	-3.02124
0.984	-5.53894
0.9845	-6.04248
0.985	-2.21558
0.9855	-3.62549
0.986	1.10779
0.9865	-2.41699
0.987	0.80566
0.9875	-1.81274
0.988	-5.63965
0.9885	-5.94177
0.989	-5.94177
0.9895	-4.43115
0.99	2.21558
0.9905	-2.11487
0.991	-2.61841
0.9915	-2.31628
0.992	-3.52478
0.9925	0.90637
0.993	-7.25098
0.9935	-5.23682
0.994	-6.2439
0.9945	-4.02832
0.995	0.60425
0.9955	-2.81982
0.996	5.23682
0.9965	-3.42407
0.997	-1.00708
0.9975	-0.60425
0.998	-5.74036
0.9985	-0.20142
0.999	2.41699
0.9995	2.71912
1	-1.2085
1.0005	0.70496
1.001	-2.01416
1.0015	-1.91345
1.002	-2.5177
1.0025	-2.01416
1.003	1.40991
1.0035	-3.62549
1.004	0.60425
1.0045	3.52478
1.005	0.80566
1.0055	-1.91345
1.006	0.40283
1.0065	2.01416
1.007	1.81274
1.0075	6.64673
1.008	2.92053
1.0085	1.40991
1.009	3.62549
1.0095	10.37292
1.01	3.02124
1.0105	2.21558
1.011	1.81274
1.0115	7.65381
1.012	3.12195
1.0125	4.73328
1.013	5.33752
1.0135	8.25806
1.014	-0.30212
1.0145	-2.21558
1.015	-0.70496
1.0155	-5.63965
1.016	4.02832
1.0165	-1.91345
1.017	-5.53894
1.0175	-4.73328
1.018	-5.43823
1.0185	2.81982
1.019	-0.80566
1.0195	-5.94177
1.02	-0.60425
1.0205	4.83398
1.021	5.94177
1.0215	3.7262
1.022	-0.60425
1.0225	2.11487
1.023	6.54602
1.0235	6.84814
1.024	4.33044
1.0245	2.31628
1.025	5.53894
1.0255	5.74036
1.026	-0.30212
1.0265	5.84106
1.027	5.0354
1.0275	1.61133
1.028	2.5177
1.0285	1.10779
1.029	-1.51062
1.0295	3.12195
1.03	-5.23682
1.0305	-2.61841
1.031	-8.56018
1.0315	-8.66089
1.032	-6.54602
1.0325	-8.45947
1.033	-9.56726
1.0335	-11.07788
1.034	-4.93469
1.0345	-8.7616
1.035	-4.83398
1.0355	-5.23682
1.036	-9.06372
1.0365	-7.25098
1.037	-2.81982
1.0375	2.41699
1.038	1.71204
1.0385	-3.62549
1.039	3.02124
1.0395	-0.70496
1.04	-3.62549
1.0405	-5.63965
1.041	-8.45947
1.0415	-6.14319
1.042	-4.53186
1.0425	-5.13611
1.043	-3.22266
1.0435	-0.40283
1.044	0.90637
1.0445	4.33044
1.045	3.8269
1.0455	1.2085
1.046	0.60425
1.0465	5.84106
1.047	8.45947
1.0475	3.8269
1.048	3.12195
1.0485	3.52478
1.049	6.54602
1.0495	4.02832
1.05	5.0354
1.0505	0.90637
1.051	3.22266
1.0515	0.80566
1.052	2.21558
1.0525	2.11487
1.053	0.20142
1.0535	-4.53186
1.054	-6.44531
1.0545	-4.02832
1.055	-4.02832
1.0555	-10.47363
1.056	-8.7616
1.0565	-4.02832
1.057	-0.90637
1.0575	-1.91345
1.058	-5.13611
1.0585	-3.62549
1.059	-3.12195
1.0595	-1.71204
1.06	2.81982
1.0605	-2.31628
1.061	-2.01416
1.0615	2.11487
1.062	4.43115
1.0625	5.63965
1.063	8.56018
1.0635	6.3446
1.064	0.90637
1.0645	7.45239
1.065	7.15027
1.0655	5.63965
1.066	7.25098
1.0665	8.56018
1.067	6.14319
1.0675	3.02124
1.068	4.33044
1.0685	2.01416
1.069	4.02832
1.0695	0.50354
1.07	4.12903
1.0705	0
1.071	-1.51062
1.0715	-2.92053
1.072	-1.10779
1.0725	-3.02124
1.073	-3.02124
1.0735	0.50354
1.074	0.90637
1.0745	-5.13611
1.075	1.10779
1.0755	1.2085
1.076	1.71204
1.0765	4.33044
1.077	8.96301
1.0775	3.42407
1.078	0.60425
1.0785	-0.70496
1.079	3.92761
1.0795	7.04956
1.08	3.32336
1.0805	2.31628
1.081	5.43823
1.0815	5.94177
1.082	1.51062
1.0825	0.50354
1.083	-2.92053
1.0835	-2.21558
1.084	-3.52478
1.0845	-0.70496
1.085	-1.00708
1.0855	-1.91345
1.086	-6.14319
1.0865	0.90637
1.087	1.91345
1.0875	1.3092
1.088	-4.33044
1.0885	-0.60425
1.089	-3.02124
1.0895	-6.3446
1.09	2.71912
1.0905	-6.94885
1.091	-8.56018
1.0915	-3.8269
1.092	-7.35168
1.0925	-1.3092
1.093	-5.53894
1.0935	-0.50354
1.094	-6.04248
1.0945	-3.02124
1.095	-6.2439
1.0955	-8.05664
1.096	-5.94177
1.0965	-10.97717
1.097	-9.46655
1.0975	-7.85522
1.098	-9.26514
1.0985	-10.27222
1.099	-13.69629
1.0995	-5.13611
1.1	-13.29346
1.1005	-10.77576
1.101	-8.25806
1.1015	-11.07788
1.102	-6.64673
1.1025	-13.29346
1.103	-11.98425
1.1035	-16.41541
1.104	-16.01257
1.1045	-22.76001
1.105	-12.99133
1.1055	-19.53735
1.106	-18.02673
1.1065	-23.46497
1.107	-19.94019
1.1075	-22.35718
1.108	-20.54443
1.1085	-20.34302
1.109	-18.32886
1.1095	-17.42249
1.11	-13.29346
1.1105	-14.30054
1.111	-16.41541
1.1115	-21.14868
1.112	-10.97717
1.1125	-7.25098
1.113	-11.68213
1.1135	-16.01257
1.114	-13.29346
1.1145	-8.7616
1.115	-5.13611
1.1155	-7.95593
1.116	-7.65381
1.1165	-9.56726
1.117	-3.22266
1.1175	-2.71912
1.118	-3.22266
1.1185	0.40283
1.119	-0.50354
1.1195	-2.11487
1.12	-1.40991
1.1205	-2.61841
1.121	2.31628
1.1215	-0.20142
1.122	-8.25806
1.1225	1.2085
1.123	-2.31628
1.1235	0.40283
1.124	1.00708
1.1245	-6.04248
1.125	-9.66797
1.1255	-9.46655
1.126	-0.10071
1.1265	-1.40991
1.127	-2.5177
1.1275	2.01416
1.128	-1.71204
1.1285	2.61841
1.129	8.35876
1.1295	7.35168
1.13	9.56726
1.1305	13.69629
1.131	9.97009
1.1315	5.94177
1.132	8.05664
1.1325	7.25098
1.133	8.35876
1.1335	10.47363
1.134	9.26514
1.1345	7.65381
1.135	3.8269
1.1355	9.26514
1.136	13.89771
1.1365	11.78284
1.137	9.56726
1.1375	8.25806
1.138	10.47363
1.1385	11.58142
1.139	14.90479
1.1395	12.48779
1.14	12.18567
1.1405	13.99841
1.141	10.27222
1.1415	11.78284
1.142	10.37292
1.1425	12.38708
1.143	10.17151
1.1435	7.95593
1.144	7.15027
1.1445	11.07788
1.145	13.29346
1.1455	6.44531
1.146	8.8623
1.1465	11.2793
1.147	10.27222
1.1475	8.15735
1.148	12.08496
1.1485	7.5531
1.149	9.46655
1.1495	7.5531
1.15	4.63257
1.1505	5.33752
1.151	15.1062
1.1515	12.28638
1.152	5.84106
1.1525	2.71912
1.153	9.56726
1.1535	2.92053
1.154	7.25098
1.1545	0.60425
1.155	-1.71204
1.1555	1.10779
1.156	-6.3446
1.1565	1.81274
1.157	4.73328
1.1575	1.91345
1.158	-0.70496
1.1585	-2.92053
1.159	-7.45239
1.1595	-0.90637
1.16	4.63257
1.1605	7.85522
1.161	5.43823
1.1615	5.63965
1.162	4.53186
1.1625	0.90637
1.163	1.10779
1.1635	6.94885
1.164	5.23682
1.1645	6.3446
1.165	-1.71204
1.1655	0.30212
1.166	0.80566
1.1665	-1.00708
1.167	0.90637
1.1675	-1.91345
1.168	1.81274
1.1685	2.41699
1.169	1.3092
1.1695	0.40283
1.17	2.21558
1.1705	1.51062
1.171	5.53894
1.1715	10.17151
1.172	4.12903
1.1725	8.45947
1.173	2.41699
1.1735	8.15735
1.174	5.43823
1.1745	3.12195
1.175	1.71204
1.1755	-0.10071
1.176	-3.7262
1.1765	-1.3092
1.177	-1.71204
1.1775	-3.62549
1.178	-1.3092
1.1785	-5.94177
1.179	-3.52478
1.1795	-0.60425
1.18	-0.90637
1.1805	-4.83398
1.181	-1.00708
1.1815	-6.3446
1.182	-1.91345
1.1825	-3.92761
1.183	4.73328
1.1835	-0.70496
1.184	0.10071
1.1845	4.63257
1.185	2.61841
1.1855	4.53186
1.186	5.23682
1.1865	2.41699
1.187	-0.50354
1.1875	2.61841
1.188	-3.22266
1.1885	-4.22974
1.189	-4.83398
1.1895	1.10779
1.19	2.71912
1.1905	5.63965
1.191	8.45947
1.1915	11.48071
1.192	3.7262
1.1925	1.3092
1.193	4.63257
1.1935	4.63257
1.194	-0.80566
1.1945	0.10071
1.195	5.63965
1.1955	3.62549
1.196	0.50354
1.1965	-0.20142
1.197	-6.2439
1.1975	-5.74036
1.198	-7.85522
1.1985	-2.11487
1.199	-4.93469
1.1995	-5.33752
1.2	-3.7262
1.2005	-0.20142
1.201	2.71912
1.2015	-0.70496
1.202	-0.70496
1.2025	-1.3092
1.203	0.20142
1.2035	-0.70496
1.204	-0.70496
1.2045	-2.92053
1.205	2.5177
1.2055	0
1.206	3.02124
1.2065	4.33044
1.207	4.22974
1.2075	3.92761
1.208	4.63257
1.2085	3.62549
1.209	-1.51062
1.2095	1.3092
1.21	2.41699
1.2105	1.71204
1.211	-7.25098
1.2115	-4.22974
1.212	-3.8269
1.2125	-2.61841
1.213	-3.62549
1.2135	-3.12195
1.214	1.71204
1.2145	-2.11487
1.215	-2.81982
1.2155	2.81982
1.216	3.62549
1.2165	3.12195
1.217	2.5177
1.2175	7.85522
1.218	4.33044
1.2185	2.71912
1.219	3.62549
1.2195	4.73328
1.22	1.61133
1.2205	2.41699
1.221	4.02832
1.2215	-1.00708
1.222	-0.30212
1.2225	-1.10779
1.223	-4.22974
1.2235	-4.73328
1.224	1.51062
1.2245	-2.11487
1.225	-5.63965
1.2255	-9.76868
1.226	-8.15735
1.2265	-7.45239
1.227	-5.13611
1.2275	-6.3446
1.228	-8.8623
1.2285	-7.04956
1.229	-4.12903
1.2295	-3.42407
1.23	0.80566
1.2305	-1.2085
1.231	1.71204
1.2315	-1.51062
1.232	-1.3092
1.2325	-1.61133
1.233	-5.74036
1.2335	-0.80566
1.234	-0.90637
1.2345	-4.22974
1.235	-1.00708
1.2355	4.22974
1.236	-5.13611
1.2365	0.90637
1.237	-1.00708
1.2375	-3.8269
1.238	-1.40991
1.2385	-4.63257
1.239	1.71204
1.2395	0.50354
1.24	1.51062
1.2405	-1.3092
1.241	3.42407
1.2415	1.10779
1.242	-0.50354
1.2425	0.40283
1.243	1.3092
1.2435	7.25098
1.244	5.74036
1.2445	-3.12195
1.245	0
1.2455	3.02124
1.246	-3.42407
1.2465	3.52478
1.247	0.50354
1.2475	-1.40991
1.248	-2.01416
1.2485	-3.8269
1.249	0.80566
1.2495	-2.71912
1.25	-2.92053
1.2505	-5.84106
1.251	-3.12195
1.2515	0.60425
1.252	-1.91345
1.2525	-6.54602
1.253	-1.10779
1.2535	-3.8269
1.254	-1.51062
1.2545	-3.22266
1.255	-4.22974
1.2555	4.12903
1.256	-8.25806
1.2565	-7.15027
1.257	-3.8269
1.2575	-1.71204
1.258	-8.96301
1.2585	-5.43823
1.259	-2.81982
1.2595	-6.94885
1.26	-8.66089
1.2605	-6.94885
1.261	-3.52478
1.2615	0.90637
1.262	-3.8269
1.2625	-3.12195
1.263	-7.65381
1.2635	0.60425
1.264	-1.10779
1.2645	0.20142
1.265	2.41699
1.2655	6.3446
1.266	7.04956
1.2665	3.8269
1.267	-2.41699
1.2675	-2.31628
1.268	-0.70496
1.2685	-2.41699
1.269	-3.8269
1.2695	2.01416
1.27	3.62549
1.2705	1.71204
1.271	1.81274
1.2715	2.41699
1.272	2.01416
1.2725	2.21558
1.273	1.40991
1.2735	5.63965
1.274	1.71204
1.2745	-0.60425
1.275	-0.40283
1.2755	4.02832
1.276	7.75452
1.2765	5.94177
1.277	5.63965
1.2775	4.73328
1.278	2.92053
1.2785	-1.51062
1.279	2.71912
1.2795	1.10779
1.28	-1.2085
1.2805	-2.01416
1.281	-2.01416
1.2815	-4.22974
1.282	-7.85522
1.2825	0.30212
1.283	0
1.2835	-1.2085
1.284	-2.92053
1.2845	-10.37292
1.285	-7.75452
1.2855	-6.3446
1.286	-1.81274
1.2865	-1.40991
1.287	-3.52478
1.2875	-3.7262
1.288	-2.61841
1.2885	-3.62549
1.289	-1.40991
1.2895	-0.40283
1.29	-2.31628
1.2905	-1.40991
1.291	0.50354
1.2915	-5.84106
1.292	-3.7262
1.2925	0.90637
1.293	-0.40283
1.2935	1.2085
1.294	3.92761
1.2945	3.8269
1.295	5.43823
1.2955	7.35168
1.296	3.02124
1.2965	2.61841
1.297	1.2085
1.2975	1.61133
1.298	0.40283
1.2985	-1.81274
1.299	1.3092
1.2995	5.43823
1.3	3.8269
1.3005	4.12903
1.301	0.40283
1.3015	-3.22266
1.302	1.40991
1.3025	-1.3092
1.303	3.32336
1.3035	1.61133
1.304	-4.22974
1.3045	-2.92053
1.305	-3.12195
1.3055	-5.23682
1.306	-4.43115
1.3065	-3.42407
1.307	-5.13611
1.3075	-2.71912
1.308	-6.74744
1.3085	-9.36584
1.309	-4.33044
1.3095	-7.25098
1.31	-11.17859
1.3105	-12.5885
1.311	-6.84814
1.3115	-10.77576
1.312	-5.84106
1.3125	-9.76868
1.313	-10.0708
1.3135	-6.64673
1.314	-8.15735
1.3145	-9.97009
1.315	-6.64673
1.3155	-4.93469
1.316	-6.14319
1.3165	-5.43823
1.317	-4.02832
1.3175	0.20142
1.318	4.93469
1.3185	-4.93469
1.319	-9.76868
1.3195	-0.90637
1.32	-5.84106
1.3205	-4.02832
1.321	1.00708
1.3215	2.11487
1.322	-1.2085
1.3225	1.10779
1.323	-4.33044
1.3235	0.50354
1.324	-5.13611
1.3245	-2.21558
1.325	1.00708
1.3255	1.91345
1.326	4.22974
1.3265	-4.12903
1.327	1.10779
1.3275	-6.64673
1.328	-3.7262
1.3285	-2.11487
1.329	-5.84106
1.3295	-1.71204
1.33	0.90637
1.3305	2.61841
1.331	1.71204
1.3315	6.54602
1.332	4.63257
1.3325	5.74036
1.333	8.56018
1.3335	11.2793
1.334	6.14319
1.3345	6.2439
1.335	5.33752
1.3355	11.2793
1.336	3.02124
1.3365	-0.80566
1.337	1.3092
1.3375	0.80566
1.338	-2.41699
1.3385	-3.8269
1.339	-10.97717
1.3395	-9.76868
1.34	-6.64673
1.3405	-12.89062
1.341	-10.87646
1.3415	-7.75452
1.342	-7.65381
1.3425	-2.11487
1.343	-7.25098
1.3435	-6.04248
1.344	-6.3446
1.3445	-6.2439
1.345	-5.53894
1.3455	-4.63257
1.346	-1.51062
1.3465	-3.22266
1.347	-1.71204
1.3475	-2.41699
1.348	0.10071
1.3485	1.61133
1.349	3.02124
1.3495	3.7262
1.35	8.25806
1.3505	4.33044
1.351	2.21558
1.3515	4.12903
1.352	5.0354
1.3525	-2.11487
1.353	2.01416
1.3535	0.80566
1.354	0.30212
1.3545	3.02124
1.355	6.14319
1.3555	1.91345
1.356	-2.31628
1.3565	3.02124
1.357	-5.13611
1.3575	-10.47363
1.358	-3.22266
1.3585	-2.11487
1.359	-5.74036
1.3595	-10.97717
1.36	-8.66089
1.3605	-8.8623
1.361	-8.25806
1.3615	-7.85522
1.362	-6.54602
1.3625	-3.52478
1.363	-7.15027
1.3635	-7.35168
1.364	-3.52478
1.3645	-3.8269
1.365	-1.91345
1.3655	-1.71204
1.366	5.0354
1.3665	-3.62549
1.367	0.20142
1.3675	1.40991
1.368	6.54602
1.3685	6.54602
1.369	3.8269
1.3695	6.54602
1.37	4.63257
1.3705	4.33044
1.371	5.43823
1.3715	8.66089
1.372	7.5531
1.3725	5.43823
1.373	6.64673
1.3735	10.77576
1.374	3.42407
1.3745	5.0354
1.375	7.95593
1.3755	2.81982
1.376	3.8269
1.3765	-2.01416
1.377	-1.3092
1.3775	2.81982
1.378	1.61133
1.3785	-6.74744
1.379	-0.40283
1.3795	-4.73328
1.38	-2.21558
1.3805	-1.51062
1.381	-1.71204
1.3815	0.20142
1.382	-2.11487
1.3825	-2.5177
1.383	0.90637
1.3835	1.00708
1.384	-0.70496
1.3845	-0.30212
1.385	-1.51062
1.3855	-4.73328
1.386	-8.35876
1.3865	-5.43823
1.387	-5.0354
1.3875	-1.2085
1.388	-3.62549
1.3885	-4.83398
1.389	-3.42407
1.3895	-7.04956
1.39	-2.5177
1.3905	-2.21558
1.391	-3.7262
1.3915	-0.40283
1.392	1.3092
1.3925	-1.81274
1.393	4.02832
1.3935	7.15027
1.394	2.81982
1.3945	-1.71204
1.395	2.31628
1.3955	3.22266
1.396	0.30212
1.3965	-2.61841
1.397	2.01416
1.3975	3.22266
1.398	0.90637
1.3985	-3.8269
1.399	4.83398
1.3995	3.62549
1.4	-1.81274
1.4005	-3.32336
1.401	-3.62549
1.4015	-3.52478
1.402	1.61133
1.4025	2.61841
1.403	-6.04248
1.4035	-8.66089
1.404	-6.64673
1.4045	-6.2439
1.405	-5.13611
1.4055	-2.41699
1.406	-2.41699
1.4065	-5.23682
1.407	4.63257
1.4075	3.92761
1.408	4.02832
1.4085	7.65381
1.409	13.39417
1.4095	6.14319
1.41	6.54602
1.4105	3.22266
1.411	8.66089
1.4115	2.81982
1.412	1.2085
1.4125	6.2439
1.413	5.94177
1.4135	1.00708
1.414	-0.50354
1.4145	6.64673
1.415	-3.12195
1.4155	1.00708
1.416	0.80566
1.4165	-1.00708
1.417	0.10071
1.4175	-4.12903
1.418	-6.04248
1.4185	-6.14319
1.419	-7.25098
1.4195	-4.73328
1.42	-6.2439
1.4205	-4.02832
1.421	-5.13611
1.4215	-5.33752
1.422	-4.12903
1.4225	-12.28638
1.423	-10.87646
1.4235	-11.78284
1.424	-10.47363
1.4245	-7.75452
1.425	-7.04956
1.4255	-7.5531
1.426	-6.84814
1.4265	-5.53894
1.427	-4.93469
1.4275	-6.64673
1.428	-1.40991
1.4285	-5.33752
1.429	-9.56726
1.4295	-2.61841
1.43	-4.02832
1.4305	-6.3446
1.431	-10.37292
1.4315	-2.61841
1.432	-7.04956
1.4325	-1.61133
1.433	0.30212
1.4335	-5.43823
1.434	-1.71204
1.4345	-0.80566
1.435	2.01416
1.4355	-1.91345
1.436	-1.81274
1.4365	-2.41699
1.437	-5.23682
1.4375	-7.5531
1.438	-0.20142
1.4385	-2.81982
1.439	-4.22974
1.4395	5.84106
1.44	1.51062
1.4405	1.40991
1.441	5.13611
1.4415	1.00708
1.442	3.32336
1.4425	6.04248
1.443	7.65381
1.4435	8.25806
1.444	7.35168
1.4445	7.04956
1.445	11.38
1.4455	12.48779
1.446	9.86938
1.4465	9.97009
1.447	13.49487
1.4475	12.08496
1.448	13.89771
1.4485	14.90479
1.449	12.18567
1.4495	10.27222
1.45	8.96301
1.4505	6.14319
1.451	1.91345
1.4515	-0.30212
1.452	-6.54602
1.4525	-7.85522
1.453	-14.90479
1.4535	-16.01257
1.454	-12.5885
1.4545	-8.45947
1.455	-6.14319
1.4555	-3.12195
1.456	-8.15735
1.4565	-8.35876
1.457	-5.53894
1.4575	-3.8269
1.458	-2.5177
1.4585	-6.44531
1.459	-8.66089
1.4595	-7.85522
1.46	-5.94177
1.4605	-7.45239
1.461	-11.17859
1.4615	-12.68921
1.462	-19.94019
1.4625	-16.71753
1.463	-22.35718
1.4635	-21.04797
1.464	-20.04089
1.4645	-19.43665
1.465	-10.87646
1.4655	-8.56018
1.466	-4.02832
1.4665	-1.51062
1.467	-6.2439
1.4675	-4.73328
1.468	-3.02124
1.4685	-1.71204
1.469	0
1.4695	0.20142
1.47	5.23682
1.4705	10.97717
1.471	11.17859
1.4715	12.89062
1.472	15.91187
1.4725	21.65222
1.473	19.53735
1.4735	20.1416
1.474	15.1062
1.4745	14.60266
1.475	11.2793
1.4755	5.43823
1.476	5.94177
1.4765	0.70496
1.477	2.92053
1.4775	-0.30212
1.478	9.06372
1.4785	-3.02124
1.479	-3.42407
1.4795	-1.71204
1.48	-6.64673
1.4805	-6.54602
1.481	-12.68921
1.4815	-11.07788
1.482	-15.40833
1.4825	-15.81116
1.483	-21.55151
1.4835	-19.43665
1.484	-19.94019
1.4845	-14.30054
1.485	-16.61682
1.4855	-14.80408
1.486	-15.60974
1.4865	-15.71045
1.487	-15.00549
1.4875	-13.29346
1.488	-13.797
1.4885	-17.52319
1.489	-15.1062
1.4895	-14.70337
1.49	-11.38
1.4905	-7.5531
1.491	-7.35168
1.4915	-1.2085
1.492	-3.62549
1.4925	-2.21558
1.493	0
1.4935	2.21558
1.494	1.91345
1.4945	4.63257
1.495	2.71912
1.4955	6.14319
1.496	3.7262
1.4965	7.25098
1.497	8.35876
1.4975	11.98425
1.498	15.40833
1.4985	15.40833
1.499	13.797
1.4995	16.61682
1.5	13.89771
1.5005	11.17859
1.501	17.42249
1.5015	16.61682
1.502	9.16443
1.5025	12.18567
1.503	8.45947
1.5035	0
1.504	3.02124
1.5045	-4.93469
1.505	-7.95593
1.5055	-3.52478
1.506	-8.35876
1.5065	-13.49487
1.507	-6.84814
1.5075	-12.38708
1.508	-12.38708
1.5085	-12.48779
1.509	-8.8623
1.5095	-4.43115
1.51	6.2439
1.5105	14.09912
1.511	16.3147
1.5115	17.01965
1.512	21.55151
1.5125	18.42957
1.513	20.04089
1.5135	15.81116
1.514	17.12036
1.5145	20.44373
1.515	16.81824
1.5155	17.12036
1.516	15.71045
1.5165	10.0708
1.517	11.2793
1.5175	-1.61133
1.518	-3.7262
1.5185	-12.5885
1.519	-17.92603
1.5195	-23.96851
1.52	-29.60815
1.5205	-28.19824
1.521	-27.99683
1.5215	-24.67346
1.522	-28.19824
1.5225	-33.23364
1.523	-23.76709
1.5235	-19.13452
1.524	-12.08496
1.5245	-2.81982
1.525	-9.06372
1.5255	-2.01416
1.526	-2.61841
1.5265	-1.3092
1.527	3.12195
1.5275	2.71912
1.528	4.73328
1.5285	7.95593
1.529	6.04248
1.5295	11.07788
1.53	1.61133
1.5305	-3.22266
1.531	-2.01416
1.5315	-4.22974
1.532	-2.92053
1.5325	-8.45947
1.533	-11.48071
1.5335	-3.62549
1.534	-2.41699
1.5345	-4.22974
1.535	1.40991
1.5355	1.3092
1.536	7.35168
1.5365	7.35168
1.537	15.60974
1.5375	17.32178
1.538	17.82532
1.5385	13.19275
1.539	25.07629
1.5395	26.98975
1.54	29.30603
1.5405	34.14001
1.541	34.64355
1.5415	32.42798
1.542	29.80957
1.5425	16.21399
1.543	10.77576
1.5435	-5.43823
1.544	-17.52319
1.5445	-30.61523
1.545	-35.14709
1.5455	-43.00232
1.546	-54.88586
1.5465	-62.33826
1.547	-60.02197
1.5475	-48.13843
1.548	-46.72852
1.5485	-39.88037
1.549	-32.52869
1.5495	-23.66638
1.55	-14.60266
1.5505	-6.44531
1.551	-4.73328
1.5515	2.81982
1.552	11.58142
1.5525	11.98425
1.553	17.22107
1.5535	21.24939
1.554	17.22107
1.5545	20.84656
1.555	17.52319
1.5555	12.99133
1.556	10.47363
1.5565	-0.10071
1.557	-2.11487
1.5575	-3.8269
1.558	1.10779
1.5585	2.61841
1.559	-3.42407
1.5595	-0.50354
1.56	6.94885
1.5605	13.39417
1.561	22.25647
1.5615	22.96143
1.562	30.81665
1.5625	33.63647
1.563	32.93152
1.5635	32.32727
1.564	32.83081
1.5645	40.48462
1.565	38.47046
1.5655	37.96692
1.566	42.49878
1.5665	48.94409
1.567	37.66479
1.5675	33.53577
1.568	21.14868
1.5685	10.17151
1.569	-4.12903
1.5695	-24.97559
1.57	-33.9386
1.5705	-40.78674
1.571	-53.27454
1.5715	-60.3241
1.572	-60.3241
1.5725	-65.66162
1.573	-59.92126
1.5735	-55.79224
1.574	-58.20923
1.5745	-47.33276
1.575	-40.98816
1.5755	-34.24072
1.576	-34.64355
1.5765	-24.97559
1.577	-26.3855
1.5775	-23.8678
1.578	-18.32886
1.5785	-7.25098
1.579	-6.94885
1.5795	-3.32336
1.58	9.76868
1.5805	14.19983
1.581	28.60107
1.5815	44.61365
1.582	41.39099
1.5825	51.36108
1.583	47.03064
1.5835	36.95984
1.584	37.7655
1.5845	29.91028
1.585	29.91028
1.5855	25.27771
1.586	21.45081
1.5865	19.23523
1.587	8.8623
1.5875	10.87646
1.588	-0.70496
1.5885	-8.45947
1.589	-10.47363
1.5895	-9.56726
1.59	-13.69629
1.5905	-23.8678
1.591	-22.45789
1.5915	-24.87488
1.592	-24.97559
1.5925	-35.2478
1.593	-36.25488
1.5935	-37.7655
1.594	-35.34851
1.5945	-35.65063
1.595	-27.19116
1.5955	-19.63806
1.596	-20.44373
1.5965	-16.51611
1.597	-9.86938
1.5975	-7.15027
1.598	-6.64673
1.5985	-5.53894
1.599	-8.45947
1.5995	-9.36584
1.6	-9.06372
1.6005	-10.37292
1.601	-10.57434
1.6015	-14.30054
1.602	-12.48779
1.6025	-10.57434
1.603	-9.26514
1.6035	-7.95593
1.604	-9.26514
1.6045	-12.18567
1.605	-16.3147
1.6055	-6.14319
1.606	-4.02832
1.6065	-3.22266
1.607	-7.25098
1.6075	-0.80566
1.608	3.92761
1.6085	-0.10071
1.609	-1.10779
1.6095	-1.2085
1.61	3.12195
1.6105	-4.73328
1.611	-3.62549
1.6115	-1.10779
1.612	-2.21558
1.6125	0.90637
1.613	5.63965
1.6135	4.53186
1.614	9.76868
1.6145	13.19275
1.615	10.87646
1.6155	8.7616
1.616	11.2793
1.6165	5.53894
1.617	0.40283
1.6175	-4.53186
1.618	-2.81982
1.6185	9.66797
1.619	9.46655
1.6195	10.0708
1.62	15.50903
1.6205	14.80408
1.621	15.20691
1.6215	8.15735
1.622	17.42249
1.6225	22.6593
1.623	29.30603
1.6235	36.65771
1.624	37.56409
1.6245	49.24622
1.625	52.46887
1.6255	51.26038
1.626	42.19666
1.6265	38.57117
1.627	29.20532
1.6275	16.91895
1.628	3.22266
1.6285	-3.32336
1.629	-10.27222
1.6295	-20.04089
1.63	-31.32019
1.6305	-40.2832
1.631	-41.29028
1.6315	-46.62781
1.632	-46.12427
1.6325	-41.89453
1.633	-33.03223
1.6335	-32.42798
1.634	-18.63098
1.6345	-18.73169
1.635	-17.32178
1.6355	-11.98425
1.636	-4.73328
1.6365	3.52478
1.637	0
1.6375	1.10779
1.638	1.00708
1.6385	-3.32336
1.639	0.20142
1.6395	-2.11487
1.64	-2.11487
1.6405	-8.25806
1.641	-5.13611
1.6415	-8.96301
1.642	-14.50195
1.6425	-9.56726
1.643	-4.73328
1.6435	-1.3092
1.644	0.40283
1.6445	2.21558
1.645	1.91345
1.6455	-2.61841
1.646	-5.63965
1.6465	-4.53186
1.647	-4.83398
1.6475	-4.33044
1.648	4.12903
1.6485	2.41699
1.649	9.26514
1.6495	17.32178
1.65	16.91895
1.6505	18.8324
1.651	15.91187
1.6515	11.2793
1.652	15.91187
1.6525	9.97009
1.653	10.87646
1.6535	5.23682
1.654	0.20142
1.6545	-1.3092
1.655	6.44531
1.6555	1.10779
1.656	8.96301
1.6565	8.8623
1.657	7.5531
1.6575	7.15027
1.658	11.2793
1.6585	14.60266
1.659	18.32886
1.6595	13.09204
1.66	16.3147
1.6605	12.78992
1.661	10.47363
1.6615	13.09204
1.662	8.56018
1.6625	12.99133
1.663	4.02832
1.6635	-1.2085
1.664	2.21558
1.6645	0.20142
1.665	-2.41699
1.6655	-3.42407
1.666	-4.33044
1.6665	-1.51062
1.667	-3.8269
1.6675	-7.25098
1.668	-8.8623
1.6685	-7.45239
1.669	-7.75452
1.6695	-11.2793
1.67	-11.38
1.6705	-18.02673
1.671	-16.3147
1.6715	-7.15027
1.672	-3.32336
1.6725	-5.0354
1.673	-0.40283
1.6735	-3.12195
1.674	5.23682
1.6745	1.71204
1.675	4.63257
1.6755	9.36584
1.676	7.95593
1.6765	7.35168
1.677	2.5177
1.6775	4.63257
1.678	2.11487
1.6785	2.81982
1.679	9.16443
1.6795	8.25806
1.68	9.97009
1.6805	3.42407
1.681	4.93469
1.6815	6.04248
1.682	4.12903
1.6825	0.90637
1.683	3.52478
1.6835	-3.62549
1.684	-8.8623
1.6845	-6.64673
1.685	0.80566
1.6855	0.50354
1.686	3.12195
1.6865	11.17859
1.687	11.98425
1.6875	11.78284
1.688	8.56018
1.6885	12.18567
1.689	9.46655
1.6895	15.40833
1.69	15.50903
1.6905	7.85522
1.691	6.94885
1.6915	11.38
1.692	9.46655
1.6925	6.74744
1.693	5.94177
1.6935	5.13611
1.694	0
1.6945	4.63257
1.695	4.12903
1.6955	-0.70496
1.696	2.92053
1.6965	8.7616
1.697	9.46655
1.6975	9.16443
1.698	3.8269
1.6985	2.31628
1.699	1.40991
1.6995	-6.2439
1.7	-7.25098
1.7005	-0.30212
1.701	-3.32336
1.7015	-9.56726
1.702	-7.45239
1.7025	-5.13611
1.703	-8.66089
1.7035	-6.94885
1.704	-3.52478
1.7045	-6.44531
1.705	-8.96301
1.7055	-9.06372
1.706	-6.84814
1.7065	-13.19275
1.707	-11.78284
1.7075	-5.63965
1.708	-5.74036
1.7085	-1.2085
1.709	-0.60425
1.7095	-1.2085
1.71	-6.94885
1.7105	-0.90637
1.711	7.85522
1.7115	4.63257
1.712	2.5177
1.7125	1.40991
1.713	1.81274
1.7135	-2.81982
1.714	-2.21558
1.7145	1.10779
1.715	-1.00708
1.7155	2.61841
1.716	3.02124
1.7165	5.33752
1.717	14.30054
1.7175	15.1062
1.718	9.56726
1.7185	10.87646
1.719	14.70337
1.7195	11.17859
1.72	12.48779
1.7205	11.07788
1.721	7.04956
1.7215	7.15027
1.722	2.71912
1.7225	1.91345
1.723	-4.73328
1.7235	-3.52478
1.724	-1.2085
1.7245	0.10071
1.725	1.61133
1.7255	2.31628
1.726	4.43115
1.7265	3.22266
1.727	1.10779
1.7275	1.51062
1.728	0.30212
1.7285	3.52478
1.729	3.02124
1.7295	3.22266
1.73	-1.10779
1.7305	2.92053
1.731	2.41699
1.7315	3.12195
1.732	5.43823
1.7325	9.46655
1.733	4.93469
1.7335	8.25806
1.734	20.94727
1.7345	24.77417
1.735	30.2124
1.7355	25.68054
1.736	22.55859
1.7365	22.05505
1.737	13.59558
1.7375	8.35876
1.738	6.54602
1.7385	2.21558
1.739	-1.00708
1.7395	-2.71912
1.74	0
1.7405	-1.3092
1.741	-11.78284
1.7415	-9.76868
1.742	-9.46655
1.7425	-11.38
1.743	-19.94019
1.7435	-16.41541
1.744	-14.30054
1.7445	-19.53735
1.745	-19.23523
1.7455	-16.61682
1.746	-13.69629
1.7465	-7.65381
1.747	0.30212
1.7475	2.31628
1.748	5.0354
1.7485	8.56018
1.749	4.73328
1.7495	-1.51062
1.75	1.91345
1.7505	-0.60425
1.751	0.50354
1.7515	-4.12903
1.752	-4.12903
1.7525	-7.04956
1.753	-3.12195
1.7535	-7.04956
1.754	-8.05664
1.7545	-7.65381
1.755	-6.44531
1.7555	-5.53894
1.756	-3.22266
1.7565	-2.71912
1.757	-3.92761
1.7575	0.90637
1.758	-0.30212
1.7585	10.0708
1.759	6.54602
1.7595	7.65381
1.76	12.99133
1.7605	8.7616
1.761	10.97717
1.7615	14.09912
1.762	16.41541
1.7625	10.97717
1.763	6.44531
1.7635	12.18567
1.764	9.86938
1.7645	10.47363
1.765	5.94177
1.7655	7.35168
1.766	8.45947
1.7665	0.20142
1.767	-6.84814
1.7675	-10.27222
1.768	-11.48071
1.7685	-8.66089
1.769	-1.81274
1.7695	-2.41699
1.77	0
1.7705	-3.32336
1.771	-6.3446
1.7715	-4.43115
1.772	-3.92761
1.7725	-1.10779
1.773	-7.85522
1.7735	-0.40283
1.774	6.74744
1.7745	9.97009
1.775	9.46655
1.7755	9.16443
1.776	4.12903
1.7765	7.15027
1.777	6.84814
1.7775	8.8623
1.778	4.12903
1.7785	-3.92761
1.779	-1.81274
1.7795	-1.00708
1.78	0.60425
1.7805	-5.74036
1.781	-0.80566
1.7815	-1.51062
1.782	1.10779
1.7825	0.30212
1.783	-3.62549
1.7835	-3.12195
1.784	-1.3092
1.7845	0.50354
1.785	-1.81274
1.7855	6.84814
1.786	2.21558
1.7865	5.0354
1.787	11.38
1.7875	8.7616
1.788	12.5885
1.7885	18.63098
1.789	21.04797
1.7895	19.13452
1.79	23.06213
1.7905	21.04797
1.791	15.1062
1.7915	10.27222
1.792	6.3446
1.7925	4.73328
1.793	-0.10071
1.7935	-7.45239
1.794	-6.04248
1.7945	-12.18567
1.795	-10.17151
1.7955	-6.84814
1.796	-8.05664
1.7965	-7.35168
1.797	-7.45239
1.7975	-3.32336
1.798	0.40283
1.7985	5.33752
1.799	13.39417
1.7995	10.17151
1.8	10.67505
1.8005	9.76868
1.801	10.87646
1.8015	3.42407
1.802	-1.10779
1.8025	4.73328
1.803	-6.04248
1.8035	-5.53894
1.804	-13.99841
1.8045	-12.28638
1.805	-12.78992
1.8055	-8.45947
1.806	-4.43115
1.8065	-1.51062
1.807	-9.26514
1.8075	-5.74036
1.808	-9.56726
1.8085	-7.25098
1.809	-2.61841
1.8095	7.65381
1.81	6.14319
1.8105	4.33044
1.811	2.41699
1.8115	3.42407
1.812	6.14319
1.8125	2.5177
1.813	8.8623
1.8135	4.12903
1.814	3.12195
1.8145	6.84814
1.815	4.43115
1.8155	1.91345
1.816	10.47363
1.8165	12.18567
1.817	10.87646
1.8175	7.65381
1.818	4.33044
1.8185	3.22266
1.819	3.7262
1.8195	6.54602
1.82	8.7616
1.8205	9.26514
1.821	3.02124
1.8215	-4.12903
1.822	-3.62549
1.8225	-2.81982
1.823	-7.25098
1.8235	-6.04248
1.824	-10.67505
1.8245	-11.98425
1.825	-9.66797
1.8255	-8.45947
1.826	-4.83398
1.8265	-10.47363
1.827	-10.67505
1.8275	-9.86938
1.828	-12.78992
1.8285	-6.44531
1.829	-9.26514
1.8295	-6.94885
1.83	-3.8269
1.8305	-6.94885
1.831	-2.21558
1.8315	-1.00708
1.832	-2.21558
1.8325	5.94177
1.833	6.3446
1.8335	1.61133
1.834	5.23682
1.8345	1.51062
1.835	-2.92053
1.8355	2.11487
1.836	3.52478
1.8365	6.2439
1.837	2.61841
1.8375	3.52478
1.838	1.91345
1.8385	1.00708
1.839	-2.01416
1.8395	0.90637
1.84	1.61133
1.8405	-0.50354
1.841	-0.10071
1.8415	-1.71204
1.842	-4.02832
1.8425	-1.00708
1.843	-3.7262
1.8435	-1.40991
1.844	-2.61841
1.8445	2.01416
1.845	7.15027
1.8455	0.70496
1.846	-0.80566
1.8465	-1.3092
1.847	-5.23682
1.8475	-1.91345
1.848	4.73328
1.8485	4.43115
1.849	8.8623
1.8495	5.43823
1.85	10.47363
1.8505	7.85522
1.851	6.04248
1.8515	9.46655
1.852	7.35168
1.8525	12.38708
1.853	10.0708
1.8535	9.16443
1.854	12.08496
1.8545	5.63965
1.855	4.63257
1.8555	7.15027
1.856	8.05664
1.8565	14.90479
1.857	3.22266
1.8575	4.33044
1.858	2.61841
1.8585	4.22974
1.859	3.32336
1.8595	6.3446
1.86	1.61133
1.8605	8.25806
1.861	4.93469
1.8615	10.67505
1.862	2.21558
1.8625	3.62549
1.863	4.63257
1.8635	6.74744
1.864	7.04956
1.8645	7.75452
1.865	2.01416
1.8655	5.13611
1.866	7.04956
1.8665	-4.12903
1.867	-2.92053
1.8675	-9.66797
1.868	-7.45239
1.8685	-2.21558
1.869	0.90637
1.8695	-5.53894
1.87	-9.86938
1.8705	-8.45947
1.871	-4.33044
1.8715	-1.51062
1.872	-3.22266
1.8725	-2.21558
1.873	3.92761
1.8735	9.16443
1.874	3.02124
1.8745	6.14319
1.875	5.94177
1.8755	6.74744
1.876	9.06372
1.8765	4.53186
1.877	-2.01416
1.8775	-7.15027
1.878	-7.65381
1.8785	-6.44531
1.879	-11.2793
1.8795	-21.24939
1.88	-28.60107
1.8805	-23.66638
1.881	-32.83081
1.8815	-32.62939
1.882	-38.974
1.8825	-31.01807
1.883	-25.68054
1.8835	-25.177
1.884	-26.48621
1.8845	-21.04797
1.885	-18.02673
1.8855	-19.33594
1.886	-25.177
1.8865	-20.84656
1.887	-21.75293
1.8875	-18.8324
1.888	-17.6239
1.8885	-20.84656
1.889	-17.32178
1.8895	-19.53735
1.89	-14.80408
1.8905	-14.19983
1.891	-13.09204
1.8915	-11.58142
1.892	-12.68921
1.8925	-9.46655
1.893	-10.47363
1.8935	-9.16443
1.894	-3.52478
1.8945	-0.60425
1.895	-3.7262
1.8955	0.60425
1.896	1.51062
1.8965	12.48779
1.897	23.46497
1.8975	30.41382
1.898	26.58691
1.8985	26.78833
1.899	25.98267
1.8995	22.96143
1.9	19.43665
1.9005	16.21399
1.901	19.03381
1.9015	11.88354
1.902	12.78992
1.9025	10.27222
1.903	6.54602
1.9035	2.92053
1.904	3.8269
1.9045	1.71204
1.905	7.04956
1.9055	3.92761
1.906	0.50354
1.9065	-3.12195
1.907	-2.5177
1.9075	-7.95593
1.908	-7.35168
1.9085	-11.88354
1.909	-10.87646
1.9095	-13.99841
1.91	-5.0354
1.9105	-2.61841
1.911	-7.85522
1.9115	-12.28638
1.912	-12.99133
1.9125	-7.25098
1.913	-6.74744
1.9135	-4.73328
1.914	-7.04956
1.9145	-9.46655
1.915	0.40283
1.9155	-1.10779
1.916	0.10071
1.9165	4.63257
1.917	1.00708
1.9175	0.20142
1.918	2.61841
1.9185	3.42407
1.919	2.71912
1.9195	3.02124
1.92	2.21558
1.9205	-0.50354
1.921	2.31628
1.9215	5.43823
1.922	5.74036
1.9225	8.45947
1.923	5.53894
1.9235	5.84106
1.924	8.96301
1.9245	8.15735
1.925	5.63965
1.9255	9.86938
1.926	9.26514
1.9265	8.25806
1.927	12.5885
1.9275	12.78992
1.928	10.87646
1.9285	20.84656
1.929	20.54443
1.9295	25.47913
1.93	23.76709
1.9305	25.98267
1.931	29.70886
1.9315	19.94019
1.932	14.19983
1.9325	7.35168
1.933	3.7262
1.9335	-3.02124
1.934	-1.40991
1.9345	-5.33752
1.935	-8.45947
1.9355	-12.08496
1.936	-20.64514
1.9365	-17.82532
1.937	-22.76001
1.9375	-19.43665
1.938	-17.22107
1.9385	-9.26514
1.939	-8.56018
1.9395	-5.13611
1.94	0.50354
1.9405	0.20142
1.941	2.31628
1.9415	-2.31628
1.942	10.67505
1.9425	7.35168
1.943	4.43115
1.9435	-0.80566
1.944	3.22266
1.9445	2.31628
1.945	5.94177
1.9455	5.13611
1.946	-4.12903
1.9465	4.02832
1.947	1.40991
1.9475	7.75452
1.948	1.40991
1.9485	11.2793
1.949	8.35876
1.9495	6.44531
1.95	4.22974
1.9505	8.25806
1.951	7.5531
1.9515	9.16443
1.952	8.25806
1.9525	5.84106
1.953	6.74744
1.9535	7.15027
1.954	7.65381
1.9545	5.84106
1.955	0.40283
1.9555	3.32336
1.956	-2.31628
1.9565	2.31628
1.957	10.77576
1.9575	5.53894
1.958	12.38708
1.9585	7.85522
1.959	7.35168
1.9595	9.06372
1.96	18.73169
1.9605	9.76868
1.961	17.12036
1.9615	16.21399
1.962	13.49487
1.9625	12.5885
1.963	13.19275
1.9635	18.32886
1.964	11.38
1.9645	18.22815
1.965	7.35168
1.9655	4.63257
1.966	7.15027
1.9665	8.96301
1.967	9.97009
1.9675	1.3092
1.968	-2.92053
1.9685	-11.48071
1.969	-7.15027
1.9695	-11.2793
1.97	-9.36584
1.9705	-15.50903
1.971	-12.5885
1.9715	-14.60266
1.972	-17.82532
1.9725	-17.12036
1.973	-19.53735
1.9735	-20.84656
1.974	-23.26355
1.9745	-22.86072
1.975	-23.8678
1.9755	-23.26355
1.976	-20.94727
1.9765	-18.73169
1.977	-10.37292
1.9775	-11.58142
1.978	-8.25806
1.9785	-6.14319
1.979	-5.63965
1.9795	3.8269
1.98	5.94177
1.9805	0.50354
1.981	5.0354
1.9815	7.35168
1.982	8.66089
1.9825	16.21399
1.983	5.53894
1.9835	8.56018
1.984	2.5177
1.9845	2.31628
1.985	1.40991
1.9855	-2.92053
1.986	-7.04956
1.9865	-13.39417
1.987	-14.09912
1.9875	-15.40833
1.988	-16.51611
1.9885	-11.2793
1.989	-17.22107
1.9895	-9.76868
1.99	-12.38708
1.9905	-12.08496
1.991	-1.81274
1.9915	-2.5177
1.992	4.22974
1.9925	4.63257
1.993	-1.61133
1.9935	-4.83398
1.994	-1.40991
1.9945	4.33044
1.995	3.22266
1.9955	10.67505
1.996	7.75452
1.9965	10.27222
1.997	8.15735
1.9975	5.74036
1.998	8.05664
1.9985	2.71912
1.999	-3.52478
1.9995	0.80566
2	0.30212
2.0005	5.43823
2.001	1.00708
2.0015	-2.61841
2.002	3.8269
2.0025	-5.43823
2.003	-1.3092
2.0035	-0.20142
2.004	3.92761
2.0045	-4.83398
2.005	-4.63257
2.0055	-3.8269
2.006	-1.81274
2.0065	1.2085
2.007	13.49487
2.0075	18.12744
2.008	9.16443
2.0085	11.98425
2.009	11.17859
2.0095	14.70337
2.01	8.35876
2.0105	9.46655
2.011	0.20142
2.0115	-4.93469
2.012	-9.26514
2.0125	-9.26514
2.013	-6.64673
2.0135	-5.53894
2.014	-8.35876
2.0145	-7.75452
2.015	-4.43115
2.0155	-5.13611
2.016	-1.3092
2.0165	2.92053
2.017	8.15735
2.0175	21.24939
2.018	23.8678
2.0185	19.94019
2.019	15.40833
2.0195	14.09912
2.02	11.78284
2.0205	11.2793
2.021	8.35876
2.0215	3.32336
2.022	-3.92761
2.0225	-1.2085
2.023	-11.78284
2.0235	-13.09204
2.024	-7.04956
2.0245	-19.23523
2.025	-15.00549
2.0255	-12.89062
2.026	-12.5885
2.0265	-11.2793
2.027	-11.88354
2.0275	-6.3446
2.028	-3.52478
2.0285	0.50354
2.029	-0.30212
2.0295	1.10779
2.03	-2.31628
2.0305	-6.2439
2.031	-7.35168
2.0315	-15.60974
2.032	-16.3147
2.0325	-20.74585
2.033	-20.44373
2.0335	-19.53735
2.034	-17.42249
2.0345	-18.8324
2.035	-13.59558
2.0355	-8.7616
2.036	-13.29346
2.0365	-12.5885
2.037	-7.65381
2.0375	-5.43823
2.038	0.80566
2.0385	-9.46655
2.039	-6.64673
2.0395	-8.8623
2.04	-6.74744
2.0405	-6.94885
2.041	-15.60974
2.0415	-12.68921
2.042	-19.23523
2.0425	-14.09912
2.043	-10.97717
2.0435	-5.63965
2.044	-12.99133
2.0445	-10.0708
2.045	-8.05664
2.0455	-3.32336
2.046	-6.2439
2.0465	-4.12903
2.047	-1.61133
2.0475	1.71204
2.048	-0.60425
2.0485	-3.12195
2.049	-3.7262
2.0495	0.90637
2.05	-1.61133
2.0505	-2.71912
2.051	-2.92053
2.0515	-6.74744
2.052	-8.35876
2.0525	-13.39417
2.053	-1.81274
2.0535	1.71204
2.054	5.84106
2.0545	7.85522
2.055	10.17151
2.0555	7.5531
2.056	12.48779
2.0565	9.26514
2.057	8.05664
2.0575	14.60266
2.058	13.09204
2.0585	10.57434
2.059	13.09204
2.0595	9.46655
2.06	11.98425
2.0605	16.61682
2.061	11.78284
2.0615	11.68213
2.062	12.48779
2.0625	8.35876
2.063	8.8623
2.0635	10.37292
2.064	-1.00708
2.0645	-8.7616
2.065	-8.35876
2.0655	-9.06372
2.066	-11.98425
2.0665	-8.56018
2.067	-5.23682
2.0675	-3.12195
2.068	-6.64673
2.0685	0.60425
2.069	0.60425
2.0695	3.02124
2.07	3.62549
2.0705	6.2439
2.071	6.04248
2.0715	7.15027
2.072	-1.3092
2.0725	1.3092
2.073	0.90637
2.0735	1.61133
2.074	5.0354
2.0745	6.04248
2.075	5.23682
2.0755	3.02124
2.076	6.04248
2.0765	8.05664
2.077	-0.50354
2.0775	-2.11487
2.078	-4.93469
2.0785	-8.66089
2.079	-11.88354
2.0795	-12.99133
2.08	-11.38
2.0805	-9.26514
2.081	-12.48779
2.0815	-11.98425
2.082	-8.25806
2.0825	-1.3092
2.083	-1.40991
2.0835	0.30212
2.084	1.00708
2.0845	3.62549
2.085	2.21558
2.0855	-6.54602
2.086	-8.25806
2.0865	-5.63965
2.087	-1.91345
2.0875	3.42407
2.088	1.00708
2.0885	-3.32336
2.089	-2.5177
2.0895	-1.81274
2.09	0.30212
2.0905	8.96301
2.091	14.80408
2.0915	21.95435
2.092	27.99683
2.0925	35.04639
2.093	38.974
2.0935	36.25488
2.094	29.60815
2.0945	31.01807
2.095	26.98975
2.0955	15.30762
2.096	8.7616
2.0965	-3.52478
2.097	-14.50195
2.0975	-19.83948
2.098	-31.92444
2.0985	-29.80957
2.099	-35.44922
2.0995	-35.34851
2.1	-38.36975
2.1005	-34.84497
2.101	-24.67346
2.1015	-13.89771
2.102	-8.8623
2.1025	-1.81274
2.103	-2.01416
2.1035	1.00708
2.104	7.04956
2.1045	3.32336
2.105	3.42407
2.1055	0.10071
2.106	-0.30212
2.1065	-13.19275
2.107	-21.55151
2.1075	-18.8324
2.108	-17.52319
2.1085	-11.88354
2.109	-3.92761
2.1095	-3.7262
2.11	-0.70496
2.1105	2.11487
2.111	5.74036
2.1115	12.78992
2.112	12.18567
2.1125	12.38708
2.113	13.39417
2.1135	8.8623
2.114	10.97717
2.1145	12.28638
2.115	7.65381
2.1155	10.67505
2.116	14.09912
2.1165	5.13611
2.117	3.92761
2.1175	8.56018
2.118	8.96301
2.1185	3.42407
2.119	9.66797
2.1195	4.02832
2.12	5.0354
2.1205	-1.61133
2.121	-1.2085
2.1215	-8.05664
2.122	-8.35876
2.1225	-21.45081
2.123	-19.63806
2.1235	-21.85364
2.124	-19.13452
2.1245	-18.02673
2.125	-17.32178
2.1255	-10.0708
2.126	-10.37292
2.1265	-2.21558
2.127	-2.01416
2.1275	-1.10779
2.128	-6.3446
2.1285	-9.46655
2.129	-7.85522
2.1295	-9.76868
2.13	-9.97009
2.1305	-15.20691
2.131	-11.68213
2.1315	-4.02832
2.132	-4.93469
2.1325	-10.37292
2.133	-9.66797
2.1335	-4.63257
2.134	-1.40991
2.1345	-4.83398
2.135	5.74036
2.1355	4.83398
2.136	0.20142
2.1365	0.60425
2.137	4.93469
2.1375	3.32336
2.138	5.23682
2.1385	4.22974
2.139	-1.2085
2.1395	0.40283
2.14	-1.71204
2.1405	-4.73328
2.141	-9.06372
2.1415	-9.36584
2.142	-2.81982
2.1425	-1.00708
2.143	1.71204
2.1435	2.61841
2.144	-1.81274
2.1445	1.40991
2.145	8.45947
2.1455	12.18567
2.146	9.56726
2.1465	7.65381
2.147	7.04956
2.1475	4.73328
2.148	-0.80566
2.1485	-8.8623
2.149	-2.92053
2.1495	3.92761
2.15	0.20142
2.1505	2.01416
2.151	-2.81982
2.1515	2.5177
2.152	1.81274
2.1525	-4.02832
2.153	-2.71912
2.1535	-8.8623
2.154	-7.85522
2.1545	-14.19983
2.155	-12.48779
2.1555	-2.01416
2.156	7.5531
2.1565	8.7616
2.157	20.94727
2.1575	14.60266
2.158	23.96851
2.1585	24.87488
2.159	23.66638
2.1595	20.64514
2.16	17.22107
2.1605	16.61682
2.161	14.90479
2.1615	13.09204
2.162	11.07788
2.1625	8.45947
2.163	3.32336
2.1635	-0.10071
2.164	-4.12903
2.1645	-12.89062
2.165	-13.49487
2.1655	-12.68921
2.166	-13.39417
2.1665	-23.06213
2.167	-21.45081
2.1675	-17.72461
2.168	-14.09912
2.1685	-7.85522
2.169	-6.3446
2.1695	-14.60266
2.17	-11.07788
2.1705	-17.22107
2.171	-21.95435
2.1715	-16.3147
2.172	-26.28479
2.1725	-20.64514
2.173	-21.95435
2.1735	-25.98267
2.174	-20.1416
2.1745	-17.72461
2.175	-17.52319
2.1755	-13.69629
2.176	-14.50195
2.1765	-8.35876
2.177	-5.94177
2.1775	-2.31628
2.178	-0.60425
2.1785	2.41699
2.179	-0.50354
2.1795	3.92761
2.18	-2.01416
2.1805	2.21558
2.181	-1.3092
2.1815	3.32336
2.182	-1.71204
2.1825	-0.20142
2.183	1.3092
2.1835	-2.21558
2.184	-7.75452
2.1845	-14.90479
2.185	-15.60974
2.1855	-13.59558
2.186	-11.48071
2.1865	-12.38708
2.187	-7.65381
2.1875	-15.20691
2.188	-9.26514
2.1885	-9.06372
2.189	-9.97009
2.1895	-7.5531
2.19	-2.61841
2.1905	-1.61133
2.191	1.2085
2.1915	5.53894
2.192	13.59558
2.1925	9.06372
2.193	7.35168
2.1935	13.49487
2.194	13.99841
2.1945	11.78284
2.195	11.58142
2.1955	3.02124
2.196	4.22974
2.1965	5.0354
2.197	-0.20142
2.1975	5.74036
2.198	-4.73328
2.1985	-7.35168
2.199	-10.37292
2.1995	-14.19983
2.2	-15.60974
2.2005	-11.98425
2.201	-9.86938
2.2015	-8.96301
2.202	-11.17859
2.2025	-7.85522
2.203	-7.95593
2.2035	-9.16443
2.204	-3.7262
2.2045	-4.63257
2.205	-3.42407
2.2055	0.40283
2.206	-1.00708
2.2065	3.52478
2.207	4.43115
2.2075	3.32336
2.208	2.92053
2.2085	-4.22974
2.209	1.81274
2.2095	-4.02832
2.21	0.40283
2.2105	2.71912
2.211	-0.90637
2.2115	7.35168
2.212	6.3446
2.2125	13.09204
2.213	9.66797
2.2135	3.8269
2.214	10.27222
2.2145	10.67505
2.215	9.66797
2.2155	1.3092
2.216	-11.48071
2.2165	-8.15735
2.217	-10.17151
2.2175	-7.95593
2.218	-11.48071
2.2185	-13.19275
2.219	-10.87646
2.2195	-6.2439
2.22	-5.33752
2.2205	-6.54602
2.221	-6.2439
2.2215	2.71912
2.222	5.33752
2.2225	3.7262
2.223	10.77576
2.2235	14.30054
2.224	12.78992
2.2245	9.26514
2.225	3.42407
2.2255	4.02832
2.226	-0.60425
2.2265	0.20142
2.227	2.11487
2.2275	-4.63257
2.228	-2.21558
2.2285	1.00708
2.229	-2.31628
2.2295	-9.66797
2.23	-11.78284
2.2305	-24.37134
2.231	-25.07629
2.2315	-25.37842
2.232	-25.07629
2.2325	-22.6593
2.233	-18.8324
2.2335	-16.3147
2.234	-13.09204
2.2345	-6.94885
2.235	-8.15735
2.2355	-9.36584
2.236	-8.25806
2.2365	-2.31628
2.237	-0.30212
2.2375	-0.30212
2.238	-1.71204
2.2385	5.43823
2.239	3.7262
2.2395	6.94885
2.24	4.83398
2.2405	4.53186
2.241	7.5531
2.2415	5.0354
2.242	6.74744
2.2425	13.797
2.243	10.37292
2.2435	0.90637
2.244	2.5177
2.2445	5.0354
2.245	5.63965
2.2455	7.15027
2.246	6.3446
2.2465	8.45947
2.247	7.65381
2.2475	7.25098
2.248	10.57434
2.2485	4.63257
2.249	7.25098
2.2495	11.68213
2.25	6.04248
2.2505	7.35168
2.251	5.0354
2.2515	5.13611
2.252	5.33752
2.2525	6.74744
2.253	8.35876
2.2535	1.81274
2.254	0.30212
2.2545	-1.2085
2.255	2.71912
2.2555	-7.04956
2.256	-2.21558
2.2565	-5.33752
2.257	-4.12903
2.2575	-3.92761
2.258	-2.81982
2.2585	5.0354
2.259	9.36584
2.2595	11.58142
2.26	13.59558
2.2605	15.60974
2.261	19.63806
2.2615	23.8678
2.262	27.49329
2.2625	39.37683
2.263	45.82214
2.2635	46.82922
2.264	49.54834
2.2645	47.13135
2.265	49.74976
2.2655	43.70728
2.266	33.63647
2.2665	12.89062
2.267	-3.12195
2.2675	-21.14868
2.268	-37.26196
2.2685	-49.0448
2.269	-56.69861
2.2695	-66.56799
2.27	-73.21472
2.2705	-75.63171
2.271	-63.24463
2.2715	-57.50427
2.272	-50.15259
2.2725	-37.7655
2.273	-23.16284
2.2735	-12.38708
2.274	-12.68921
2.2745	-6.74744
2.275	-4.33044
2.2755	5.0354
2.276	4.33044
2.2765	-2.11487
2.277	-5.13611
2.2775	-9.46655
2.278	-11.58142
2.2785	-20.34302
2.279	-17.12036
2.2795	-18.8324
2.28	-10.97717
2.2805	-6.84814
2.281	-5.43823
2.2815	-7.85522
2.282	-2.01416
2.2825	-5.23682
2.283	-0.70496
2.2835	-1.40991
2.284	-3.02124
2.2845	6.04248
2.285	3.32336
2.2855	-1.00708
2.286	1.10779
2.2865	-5.53894
2.287	-1.71204
2.2875	-1.3092
2.288	1.10779
2.2885	2.01416
2.289	2.41699
2.2895	2.71912
2.29	2.41699
2.2905	0.80566
2.291	10.77576
2.2915	11.68213
2.292	2.5177
2.2925	5.23682
2.293	12.38708
2.2935	8.56018
2.294	16.3147
2.2945	11.98425
2.295	16.71753
2.2955	13.99841
2.296	10.47363
2.2965	8.7616
2.297	9.56726
2.2975	9.46655
2.298	-1.51062
2.2985	-4.93469
2.299	-2.11487
2.2995	-2.92053
2.3	-0.40283
2.3005	1.10779
2.301	-1.10779
2.3015	1.3092
2.302	1.71204
2.3025	-2.01416
2.303	-2.5177
2.3035	-4.93469
2.304	-8.7616
2.3045	-1.00708
2.305	0.50354
2.3055	-5.13611
2.306	-3.32336
2.3065	-6.44531
2.307	-3.02124
2.3075	-8.96301
2.308	0.50354
2.3085	-4.43115
2.309	-6.94885
2.3095	-12.38708
2.31	-14.09912
2.3105	-14.30054
2.311	-11.88354
2.3115	-12.89062
2.312	-15.91187
2.3125	-12.08496
2.313	-10.87646
2.3135	-8.66089
2.314	-3.02124
2.3145	-1.71204
2.315	-0.20142
2.3155	0.30212
2.316	0.20142
2.3165	1.00708
2.317	0.20142
2.3175	1.10779
2.318	2.31628
2.3185	0.50354
2.319	9.26514
2.3195	1.2085
2.32	5.53894
2.3205	8.56018
2.321	8.7616
2.3215	5.23682
2.322	4.93469
2.3225	10.77576
2.323	1.10779
2.3235	1.10779
2.324	5.43823
2.3245	5.33752
2.325	7.35168
2.3255	10.27222
2.326	12.18567
2.3265	11.68213
2.327	12.68921
2.3275	6.14319
2.328	5.13611
2.3285	1.81274
2.329	7.35168
2.3295	8.96301
2.33	5.33752
2.3305	6.04248
2.331	3.22266
2.3315	-5.13611
2.332	-9.36584
2.3325	-11.88354
2.333	-13.19275
2.3335	-16.61682
2.334	-18.12744
2.3345	-8.25806
2.335	-11.07788
2.3355	-5.23682
2.336	-7.35168
2.3365	-1.00708
2.337	-0.60425
2.3375	-2.92053
2.338	-1.10779
2.3385	-5.13611
2.339	-0.70496
2.3395	1.61133
2.34	6.84814
2.3405	6.74744
2.341	13.89771
2.3415	13.69629
2.342	10.97717
2.3425	15.30762
2.343	14.30054
2.3435	10.47363
2.344	5.74036
2.3445	3.02124
2.345	4.12903
2.3455	4.12903
2.346	6.2439
2.3465	7.45239
2.347	6.84814
2.3475	4.63257
2.348	9.16443
2.3485	15.91187
2.349	13.29346
2.3495	22.86072
2.35	33.63647
2.3505	39.57825
2.351	46.82922
2.3515	49.0448
2.352	48.03772
2.3525	32.93152
2.353	27.29187
2.3535	13.797
2.354	-7.25098
2.3545	-19.33594
2.355	-38.77258
2.3555	-57.9071
2.356	-75.53101
2.3565	-84.19189
2.357	-87.21313
2.3575	-82.47986
2.358	-76.43738
2.3585	-65.66162
2.359	-54.48303
2.3595	-44.71436
2.36	-27.79541
2.3605	-23.16284
2.361	-22.05505
2.3615	-13.39417
2.362	-2.5177
2.3625	5.63965
2.363	7.65381
2.3635	11.88354
2.364	6.04248
2.3645	8.7616
2.365	9.26514
2.3655	4.83398
2.366	8.8623
2.3665	0.10071
2.367	4.43115
2.3675	5.43823
2.368	2.41699
2.3685	2.41699
2.369	6.14319
2.3695	1.00708
2.37	3.22266
2.3705	2.61841
2.371	1.61133
2.3715	6.14319
2.372	2.92053
2.3725	-2.01416
2.373	-3.22266
2.3735	-3.02124
2.374	-3.52478
2.3745	0.40283
2.375	2.92053
2.3755	4.53186
2.376	6.3446
2.3765	8.56018
2.377	9.26514
2.3775	6.44531
2.378	4.43115
2.3785	10.67505
2.379	9.97009
2.3795	7.65381
2.38	11.17859
2.3805	18.73169
2.381	13.59558
2.3815	16.61682
2.382	19.13452
2.3825	13.19275
2.383	17.12036
2.3835	12.78992
2.384	9.97009
2.3845	8.96301
2.385	5.13611
2.3855	2.81982
2.386	-6.44531
2.3865	-7.45239
2.387	-2.5177
2.3875	-8.96301
2.388	-6.04248
2.3885	-13.29346
2.389	-10.77576
2.3895	-6.54602
2.39	-5.0354
2.3905	-3.7262
2.391	-3.7262
2.3915	-1.81274
2.392	-1.81274
2.3925	-1.51062
2.393	-4.22974
2.3935	0.90637
2.394	-0.20142
2.3945	7.04956
2.395	4.63257
2.3955	2.71912
2.396	-5.63965
2.3965	-0.60425
2.397	1.10779
2.3975	5.13611
2.398	5.74036
2.3985	-0.90637
2.399	3.12195
2.3995	7.45239
2.4	10.0708
2.4005	8.45947
2.401	12.28638
2.4015	10.27222
2.402	4.83398
2.4025	10.37292
2.403	-2.92053
2.4035	-0.60425
2.404	-0.20142
2.4045	-3.32336
2.405	-3.7262
2.4055	-11.2793
2.406	-8.96301
2.4065	-18.22815
2.407	-13.99841
2.4075	-21.24939
2.408	-15.50903
2.4085	-22.76001
2.409	-13.99841
2.4095	-9.56726
2.41	-7.15027
2.4105	-11.17859
2.411	-11.2793
2.4115	-4.73328
2.412	-6.64673
2.4125	-2.31628
2.413	-6.84814
2.4135	-6.04248
2.414	0
2.4145	2.92053
2.415	20.54443
2.4155	33.9386
2.416	44.11011
2.4165	50.45471
2.417	48.23914
2.4175	39.77966
2.418	39.17542
2.4185	34.44214
2.419	25.27771
2.4195	12.99133
2.42	7.65381
2.4205	5.94177
2.421	-0.60425
2.4215	-4.33044
2.422	-4.73328
2.4225	-8.05664
2.423	-20.34302
2.4235	-15.71045
2.424	-23.36426
2.4245	-27.89612
2.425	-27.39258
2.4255	-27.49329
2.426	-30.51453
2.4265	-28.29895
2.427	-34.64355
2.4275	-24.57275
2.428	-27.09045
2.4285	-21.04797
2.429	-8.66089
2.4295	-6.94885
2.43	-1.61133
2.4305	5.33752
2.431	7.15027
2.4315	6.64673
2.432	6.74744
2.4325	15.1062
2.433	16.3147
2.4335	14.40125
2.434	14.09912
2.4345	11.78284
2.435	12.38708
2.4355	13.49487
2.436	8.66089
2.4365	1.81274
2.437	2.01416
2.4375	-2.81982
2.438	-3.92761
2.4385	-8.7616
2.439	-9.56726
2.4395	-6.94885
2.44	-9.86938
2.4405	-9.76868
2.441	-0.20142
2.4415	3.32336
2.442	11.07788
2.4425	17.52319
2.443	19.73877
2.4435	28.9032
2.444	28.70178
2.4445	25.57983
2.445	19.73877
2.4455	5.0354
2.446	-0.80566
2.4465	-14.50195
2.447	-25.07629
2.4475	-33.23364
2.448	-54.0802
2.4485	-62.33826
2.449	-68.28003
2.4495	-70.09277
2.45	-62.23755
2.4505	-63.24463
2.451	-51.5625
2.4515	-46.12427
2.452	-39.88037
2.4525	-29.91028
2.453	-19.33594
2.4535	-11.88354
2.454	-6.44531
2.4545	3.7262
2.455	5.23682
2.4555	7.45239
2.456	4.83398
2.4565	9.97009
2.457	4.02832
2.4575	6.54602
2.458	7.85522
2.4585	8.7616
2.459	10.87646
2.4595	7.85522
2.46	7.35168
2.4605	-0.20142
2.461	5.43823
2.4615	4.43115
2.462	4.43115
2.4625	4.22974
2.463	-3.62549
2.4635	1.91345
2.464	4.02832
2.4645	-1.00708
2.465	3.92761
2.4655	1.3092
2.466	4.02832
2.4665	5.84106
2.467	2.41699
2.4675	4.63257
2.468	4.53186
2.4685	5.63965
2.469	5.84106
2.4695	2.81982
2.47	2.92053
2.4705	7.35168
2.471	7.35168
2.4715	8.05664
2.472	11.78284
2.4725	6.44531
2.473	7.5531
2.4735	10.57434
2.474	8.8623
2.4745	6.84814
2.475	13.29346
2.4755	5.0354
2.476	4.02832
2.4765	8.56018
2.477	8.15735
2.4775	12.18567
2.478	8.66089
2.4785	13.29346
2.479	10.47363
2.4795	7.45239
2.48	4.22974
2.4805	0.90637
2.481	5.23682
2.4815	-0.70496
2.482	-0.80566
2.4825	-3.32336
2.483	-5.0354
2.4835	-4.53186
2.484	-6.84814
2.4845	-4.73328
2.485	0.90637
2.4855	-1.51062
2.486	-2.11487
2.4865	-6.84814
2.487	-12.48779
2.4875	-11.58142
2.488	-11.38
2.4885	-9.97009
2.489	-5.23682
2.4895	-1.51062
2.49	9.36584
2.4905	10.0708
2.491	14.80408
2.4915	12.18567
2.492	5.53894
2.4925	3.62549
2.493	-0.40283
2.4935	-11.58142
2.494	-7.45239
2.4945	-6.14319
2.495	-6.84814
2.4955	-4.43115
2.496	-2.92053
2.4965	-10.37292
2.497	-16.41541
2.4975	-11.48071
2.498	-12.78992
2.4985	-12.28638
2.499	-12.08496
2.4995	-13.69629
2.5	-12.89062
2.5005	-12.99133
2.501	-16.81824
2.5015	-21.65222
2.502	-20.34302
2.5025	-15.91187
2.503	-14.19983
2.5035	-18.22815
2.504	-14.70337
2.5045	-13.69629
2.505	-10.87646
2.5055	-13.69629
2.506	-7.85522
2.5065	-6.74744
2.507	-6.04248
2.5075	-4.12903
2.508	-1.2085
2.5085	4.12903
2.509	2.01416
2.5095	1.71204
2.51	1.61133
2.5105	1.40991
2.511	4.73328
2.5115	4.63257
2.512	6.44531
2.5125	9.36584
2.513	7.95593
2.5135	3.32336
2.514	-0.60425
2.5145	-0.70496
2.515	-4.33044
2.5155	-7.85522
2.516	-2.41699
2.5165	-3.62549
2.517	1.71204
2.5175	3.32336
2.518	-1.91345
2.5185	3.42407
2.519	-0.90637
2.5195	-5.23682
2.52	-5.0354
2.5205	-1.00708
2.521	-0.70496
2.5215	-4.63257
2.522	-1.40991
2.5225	0.80566
2.523	-0.60425
2.5235	-1.10779
2.524	-0.40283
2.5245	9.06372
2.525	6.54602
2.5255	13.59558
2.526	10.67505
2.5265	17.6239
2.527	16.41541
2.5275	8.96301
2.528	10.97717
2.5285	11.07788
2.529	7.25098
2.5295	-6.14319
2.53	0.50354
2.5305	-4.63257
2.531	-9.26514
2.5315	-5.94177
2.532	-4.02832
2.5325	-9.97009
2.533	-4.83398
2.5335	-7.25098
2.534	-4.12903
2.5345	-2.11487
2.535	3.62549
2.5355	0.80566
2.536	-0.40283
2.5365	3.92761
2.537	5.33752
2.5375	5.33752
2.538	10.47363
2.5385	5.53894
2.539	8.05664
2.5395	4.43115
2.54	-3.12195
2.5405	-9.46655
2.541	-3.42407
2.5415	-9.97009
2.542	-7.85522
2.5425	-6.44531
2.543	-1.2085
2.5435	-2.81982
2.544	-0.50354
2.5445	4.53186
2.545	6.54602
2.5455	-0.10071
2.546	5.23682
2.5465	3.02124
2.547	4.53186
2.5475	0.70496
2.548	1.2085
2.5485	2.01416
2.549	3.7262
2.5495	9.56726
2.55	4.02832
2.5505	6.74744
2.551	5.53894
2.5515	10.87646
2.552	9.66797
2.5525	12.28638
2.553	6.44531
2.5535	2.61841
2.554	12.78992
2.5545	13.797
2.555	19.94019
2.5555	24.87488
2.556	36.05347
2.5565	49.0448
2.557	60.02197
2.5575	60.72693
2.558	64.45312
2.5585	62.13684
2.559	55.08728
2.5595	41.79382
2.56	20.64514
2.5605	7.95593
2.561	-8.05664
2.5615	-22.05505
2.562	-37.16125
2.5625	-51.05896
2.563	-60.22339
2.5635	-61.12976
2.564	-54.58374
2.5645	-53.37524
2.565	-48.94409
2.5655	-44.61365
2.566	-31.32019
2.5665	-29.91028
2.567	-25.68054
2.5675	-20.34302
2.568	-10.97717
2.5685	-3.52478
2.569	-6.74744
2.5695	-4.83398
2.57	-7.95593
2.5705	-8.66089
2.571	-15.20691
2.5715	-5.13611
2.572	8.96301
2.5725	20.44373
2.573	31.92444
2.5735	31.32019
2.574	27.6947
2.5745	15.1062
2.575	11.98425
2.5755	1.2085
2.576	-5.94177
2.5765	-12.28638
2.577	-15.1062
2.5775	-18.22815
2.578	-23.16284
2.5785	-19.53735
2.579	-32.7301
2.5795	-29.20532
2.58	-23.06213
2.5805	-21.95435
2.581	-22.05505
2.5815	-19.53735
2.582	-21.24939
2.5825	-17.72461
2.583	-13.59558
2.5835	-9.56726
2.584	-23.56567
2.5845	-12.38708
2.585	-15.30762
2.5855	-8.7616
2.586	-9.97009
2.5865	-17.72461
2.587	-21.14868
2.5875	-18.63098
2.588	-15.91187
2.5885	-14.70337
2.589	-15.00549
2.5895	-14.40125
2.59	-10.87646
2.5905	-3.92761
2.591	-1.51062
2.5915	-7.45239
2.592	-7.75452
2.5925	-6.2439
2.593	-9.36584
2.5935	-4.73328
2.594	-3.62549
2.5945	-2.81982
2.595	8.05664
2.5955	15.1062
2.596	11.78284
2.5965	14.50195
2.597	14.19983
2.5975	13.99841
2.598	16.21399
2.5985	9.56726
2.599	9.36584
2.5995	11.17859
2.6	6.74744
2.6005	7.5531
2.601	3.7262
2.6015	6.2439
2.602	6.44531
2.6025	1.61133
2.603	3.32336
2.6035	-2.71912
2.604	-9.56726
2.6045	-8.56018
2.605	-8.8623
2.6055	-9.46655
2.606	1.00708
2.6065	5.43823
2.607	3.52478
2.6075	6.04248
2.608	4.63257
2.6085	6.14319
2.609	17.12036
2.6095	12.68921
2.61	10.17151
2.6105	10.77576
2.611	12.08496
2.6115	10.87646
2.612	10.0708
2.6125	11.88354
2.613	13.19275
2.6135	12.48779
2.614	7.25098
2.6145	5.53894
2.615	6.44531
2.6155	0.40283
2.616	-3.22266
2.6165	-9.66797
2.617	-7.95593
2.6175	-6.04248
2.618	-7.95593
2.6185	-6.94885
2.619	-8.96301
2.6195	-7.25098
2.62	-0.50354
2.6205	-4.83398
2.621	-5.53894
2.6215	-8.56018
2.622	-5.0354
2.6225	-12.68921
2.623	-10.57434
2.6235	-1.71204
2.624	-1.71204
2.6245	-0.60425
2.625	1.40991
2.6255	-1.51062
2.626	0.10071
2.6265	-1.40991
2.627	-3.52478
2.6275	1.40991
2.628	0.20142
2.6285	6.84814
2.629	2.71912
2.6295	6.84814
2.63	8.15735
2.6305	7.65381
2.631	5.33752
2.6315	0
2.632	1.71204
2.6325	-0.60425
2.633	-5.84106
2.6335	-8.56018
2.634	-9.56726
2.6345	-13.69629
2.635	-9.06372
2.6355	-4.93469
2.636	-9.76868
2.6365	-13.797
2.637	-18.73169
2.6375	-23.56567
2.638	-27.59399
2.6385	-40.58533
2.639	-34.84497
2.6395	-40.38391
2.64	-31.52161
2.6405	-31.92444
2.641	-37.06055
2.6415	-36.25488
2.642	-29.20532
2.6425	-29.80957
2.643	-30.91736
2.6435	-27.29187
2.644	-7.15027
2.6445	-7.5531
2.645	-3.22266
2.6455	-1.40991
2.646	8.66089
2.6465	8.66089
2.647	11.17859
2.6475	12.38708
2.648	13.69629
2.6485	14.50195
2.649	22.25647
2.6495	26.58691
2.65	30.71594
2.6505	42.8009
2.651	45.2179
2.6515	50.15259
2.652	57.20215
2.6525	57.8064
2.653	53.07312
2.6535	44.71436
2.654	30.91736
2.6545	16.51611
2.655	4.43115
2.6555	-13.797
2.656	-23.26355
2.6565	-26.58691
2.657	-31.72302
2.6575	-42.59949
2.658	-33.13293
2.6585	-33.53577
2.659	-28.70178
2.6595	-25.07629
2.66	-15.91187
2.6605	-4.53186
2.661	-3.7262
2.6615	8.56018
2.662	23.36426
2.6625	32.93152
2.663	40.48462
2.6635	49.34692
2.664	49.24622
2.6645	50.45471
2.665	63.44604
2.6655	67.47437
2.666	63.24463
2.6665	57.9071
2.667	43.40515
2.6675	30.51453
2.668	21.14868
2.6685	16.61682
2.669	5.84106
2.6695	-3.12195
2.67	-8.25806
2.6705	-17.32178
2.671	-26.78833
2.6715	-40.08179
2.672	-44.21082
2.6725	-49.24622
2.673	-53.47595
2.6735	-57.10144
2.674	-60.02197
2.6745	-59.01489
2.675	-57.9071
2.6755	-58.71277
2.676	-65.66162
2.6765	-65.46021
2.677	-64.25171
2.6775	-55.59082
2.678	-38.67188
2.6785	-35.2478
2.679	-30.2124
2.6795	-29.50745
2.68	-29.30603
2.6805	-22.25647
2.681	-11.88354
2.6815	-12.68921
2.682	-5.33752
2.6825	-0.80566
2.683	11.48071
2.6835	11.17859
2.684	7.45239
2.6845	12.48779
2.685	4.33044
2.6855	3.8269
2.686	6.14319
2.6865	6.84814
2.687	8.35876
2.6875	9.26514
2.688	7.85522
2.6885	12.78992
2.689	18.42957
2.6895	16.01257
2.69	14.60266
2.6905	12.78992
2.691	16.61682
2.6915	8.05664
2.692	12.68921
2.6925	8.7616
2.693	15.60974
2.6935	29.40674
2.694	28.39966
2.6945	34.44214
2.695	28.09753
2.6955	21.65222
2.696	24.57275
2.6965	21.85364
2.697	14.50195
2.6975	12.18567
2.698	9.66797
2.6985	5.43823
2.699	3.12195
2.6995	1.71204
2.7	-5.63965
2.7005	-2.31628
2.701	-1.51062
2.7015	-9.26514
2.702	-2.21558
2.7025	13.39417
2.703	27.6947
2.7035	37.7655
2.704	43.70728
2.7045	44.71436
2.705	35.34851
2.7055	36.95984
2.706	27.59399
2.7065	25.37842
2.707	15.60974
2.7075	4.93469
2.708	6.3446
2.7085	0.30212
2.709	-4.43115
2.7095	-10.67505
2.71	-17.01965
2.7105	-25.07629
2.711	-30.81665
2.7115	-21.24939
2.712	-16.01257
2.7125	-19.03381
2.713	-17.52319
2.7135	-15.30762
2.714	-11.48071
2.7145	-10.0708
2.715	-4.83398
2.7155	-1.2085
2.716	1.3092
2.7165	0.70496
2.717	3.62549
2.7175	4.83398
2.718	15.50903
2.7185	10.87646
2.719	10.67505
2.7195	14.30054
2.72	21.45081
2.7205	27.29187
2.721	38.36975
2.7215	42.59949
2.722	41.79382
2.7225	39.67896
2.723	40.88745
2.7235	37.7655
2.724	29.40674
2.7245	14.60266
2.725	4.53186
2.7255	-6.74744
2.726	-29.40674
2.7265	-36.05347
2.727	-46.12427
2.7275	-55.59082
2.728	-57.40356
2.7285	-57.50427
2.729	-63.74817
2.7295	-61.6333
2.73	-60.92834
2.7305	-59.31702
2.731	-44.71436
2.7315	-34.34143
2.732	-33.53577
2.7325	-23.56567
2.733	-21.65222
2.7335	-8.56018
2.734	1.40991
2.7345	13.89771
2.735	28.09753
2.7355	25.177
2.736	33.43506
2.7365	38.67188
2.737	47.63489
2.7375	62.8418
2.738	78.04871
2.7385	91.04004
2.739	101.71509
2.7395	113.1958
2.74	111.28235
2.7405	101.9165
2.741	90.73792
2.7415	74.92676
2.742	59.31702
2.7425	43.00232
2.743	19.43665
2.7435	-9.06372
2.744	-34.74426
2.7445	-53.67737
2.745	-72.81189
2.7455	-91.14075
2.746	-110.98022
2.7465	-114.10217
2.747	-122.86377
2.7475	-124.17297
2.748	-120.95032
2.7485	-109.67102
2.749	-95.16907
2.7495	-83.18481
2.75	-61.23047
2.7505	-52.771
2.751	-40.08179
2.7515	-24.67346
2.752	-17.6239
2.7525	3.62549
2.753	17.42249
2.7535	17.01965
2.754	17.22107
2.7545	19.63806
2.755	11.07788
2.7555	16.3147
2.756	12.08496
2.7565	12.48779
2.757	9.66797
2.7575	6.64673
2.758	4.63257
2.7585	5.23682
2.759	-7.04956
2.7595	-7.75452
2.76	-12.89062
2.7605	-6.64673
2.761	-10.67505
2.7615	-6.14319
2.762	-2.5177
2.7625	-0.40283
2.763	-2.5177
2.7635	-0.90637
2.764	-8.66089
2.7645	-12.18567
2.765	-7.04956
2.7655	-7.04956
2.766	-8.7616
2.7665	-9.86938
2.767	-5.13611
2.7675	-10.67505
2.768	-10.97717
2.7685	-3.62549
2.769	-1.2085
2.7695	-4.43115
2.77	-1.91345
2.7705	-1.2085
2.771	-5.53894
2.7715	-6.84814
2.772	-5.94177
2.7725	-1.10779
2.773	0.20142
2.7735	0.10071
2.774	7.75452
2.7745	11.17859
2.775	9.36584
2.7755	20.34302
2.776	17.12036
2.7765	24.87488
2.777	28.29895
2.7775	37.46338
2.778	42.09595
2.7785	46.62781
2.779	38.47046
2.7795	39.77966
2.78	39.67896
2.7805	30.11169
2.781	23.36426
2.7815	25.47913
2.782	17.72461
2.7825	21.95435
2.783	19.33594
2.7835	21.45081
2.784	27.6947
2.7845	34.84497
2.785	38.67188
2.7855	44.0094
2.786	49.85046
2.7865	49.14551
2.787	50.05188
2.7875	46.5271
2.788	39.37683
2.7885	32.12585
2.789	30.91736
2.7895	22.35718
2.79	12.38708
2.7905	-7.65381
2.791	-23.16284
2.7915	-38.47046
2.792	-54.78516
2.7925	-62.64038
2.793	-74.52393
2.7935	-79.35791
2.794	-63.14392
2.7945	-43.60657
2.795	-31.72302
2.7955	-26.48621
2.796	-30.51453
2.7965	-25.37842
2.797	-18.93311
2.7975	-18.02673
2.798	-18.22815
2.7985	-22.6593
2.799	-21.65222
2.7995	-23.76709
2.8	-22.96143
2.8005	-29.20532
2.801	-22.05505
2.8015	-24.16992
2.802	-26.3855
2.8025	-24.16992
2.803	-28.19824
2.8035	-30.41382
2.804	-36.75842
2.8045	-36.35559
2.805	-27.19116
2.8055	-23.16284
2.806	-19.94019
2.8065	-14.19983
2.807	-15.20691
2.8075	-6.44531
2.808	-4.12903
2.8085	-6.2439
2.809	-6.04248
2.8095	2.21558
2.81	7.04956
2.8105	14.50195
2.811	29.60815
2.8115	41.99524
2.812	44.21082
2.8125	43.60657
2.813	44.71436
2.8135	41.39099
2.814	43.70728
2.8145	36.25488
2.815	33.43506
2.8155	27.29187
2.816	31.92444
2.8165	32.7301
2.817	31.92444
2.8175	30.41382
2.818	35.2478
2.8185	33.23364
2.819	33.9386
2.8195	29.50745
2.82	28.70178
2.8205	9.66797
2.821	-9.56726
2.8215	-29.70886
2.822	-54.18091
2.8225	-70.19348
2.823	-74.32251
2.8235	-89.22729
2.824	-82.68127
2.8245	-72.71118
2.825	-61.6333
2.8255	-29.70886
2.826	-12.48779
2.8265	-0.70496
2.827	8.96301
2.8275	9.86938
2.828	17.92603
2.8285	19.33594
2.829	28.50037
2.8295	28.70178
2.83	27.79541
2.8305	33.33435
2.831	30.2124
2.8315	27.89612
2.832	18.8324
2.8325	10.47363
2.833	7.95593
2.8335	-6.44531
2.834	-12.28638
2.8345	-17.12036
2.835	-25.47913
2.8355	-27.19116
2.836	-20.54443
2.8365	-19.73877
2.837	-14.80408
2.8375	-7.65381
2.838	1.3092
2.8385	-3.12195
2.839	-3.22266
2.8395	-6.2439
2.84	-11.48071
2.8405	-22.35718
2.841	-19.03381
2.8415	-20.94727
2.842	-30.41382
2.8425	-30.31311
2.843	-28.50037
2.8435	-23.46497
2.844	-20.54443
2.8445	-16.51611
2.845	-13.29346
2.8455	-13.89771
2.846	-5.74036
2.8465	-3.62549
2.847	3.32336
2.8475	9.76868
2.848	9.16443
2.8485	15.71045
2.849	10.67505
2.8495	10.67505
2.85	13.69629
2.8505	14.19983
2.851	8.8623
2.8515	-2.5177
2.852	-4.73328
2.8525	-12.68921
2.853	-16.21399
2.8535	-20.44373
2.854	-28.29895
2.8545	-36.35559
2.855	-35.04639
2.8555	-25.98267
2.856	4.12903
2.8565	28.9032
2.857	45.01648
2.8575	58.00781
2.858	64.55383
2.8585	74.82605
2.859	79.45862
2.8595	84.09119
2.86	90.13367
2.8605	92.65137
2.861	94.76624
2.8615	88.32092
2.862	81.87561
2.8625	74.42322
2.863	62.74109
2.8635	51.86462
2.864	38.974
2.8645	14.60266
2.865	-5.84106
2.8655	-29.40674
2.866	-49.14551
2.8665	-61.12976
2.867	-78.35083
2.8675	-90.23438
2.868	-84.39331
2.8685	-71.09985
2.869	-65.46021
2.8695	-64.05029
2.87	-52.56958
2.8705	-45.72144
2.871	-34.94568
2.8715	-23.46497
2.872	-17.72461
2.8725	-11.98425
2.873	-11.88354
2.8735	-18.42957
2.874	-23.8678
2.8745	-29.00391
2.875	-26.48621
2.8755	-32.93152
2.876	-48.33984
2.8765	-57.70569
2.877	-66.46729
2.8775	-69.38782
2.878	-60.12268
2.8785	-57.40356
2.879	-51.15967
2.8795	-43.10303
2.88	-38.67188
2.8805	-20.34302
2.881	-11.48071
2.8815	3.02124
2.882	15.1062
2.8825	35.04639
2.883	73.11401
2.8835	100.30518
2.884	113.80005
2.8845	113.39722
2.885	110.57739
2.8855	89.328
2.886	74.92676
2.8865	51.15967
2.887	27.79541
2.8875	4.43115
2.888	-16.3147
2.8885	-31.52161
2.889	-54.98657
2.8895	-67.77649
2.89	-80.66711
2.8905	-88.11951
2.891	-87.91809
2.8915	-78.25012
2.892	-67.97791
2.8925	-58.71277
2.893	-45.2179
2.8935	-29.40674
2.894	-12.68921
2.8945	3.92761
2.895	24.57275
2.8955	47.93701
2.896	59.21631
2.8965	60.62622
2.897	59.21631
2.8975	63.74817
2.898	58.51135
2.8985	49.24622
2.899	45.92285
2.8995	34.24072
2.9	34.14001
2.9005	26.98975
2.901	28.50037
2.9015	30.81665
2.902	36.95984
2.9025	40.48462
2.903	39.17542
2.9035	31.4209
2.904	33.83789
2.9045	30.61523
2.905	15.71045
2.9055	-1.91345
2.906	-20.94727
2.9065	-49.95117
2.907	-66.87012
2.9075	-79.05579
2.908	-80.26428
2.9085	-88.11951
2.909	-83.99048
2.9095	-72.30835
2.91	-61.83472
2.9105	-45.2179
2.911	-34.54285
2.9115	-21.55151
2.912	-5.94177
2.9125	0.80566
2.913	5.33752
2.9135	10.67505
2.914	9.86938
2.9145	9.36584
2.915	5.74036
2.9155	11.2793
2.916	11.78284
2.9165	9.36584
2.917	7.95593
2.9175	4.22974
2.918	1.2085
2.9185	-3.22266
2.919	-4.22974
2.9195	-1.3092
2.92	-4.93469
2.9205	-5.0354
2.921	6.54602
2.9215	1.81274
2.922	-0.30212
2.9225	-7.04956
2.923	-14.30054
2.9235	-21.3501
2.924	-27.39258
2.9245	-23.66638
2.925	-20.44373
2.9255	-15.40833
2.926	-18.8324
2.9265	-16.41541
2.927	-17.22107
2.9275	-13.29346
2.928	-12.5885
2.9285	-5.0354
2.929	-3.62549
2.9295	-3.02124
2.93	-0.20142
2.9305	-0.20142
2.931	-4.22974
2.9315	-4.63257
2.932	-1.00708
2.9325	-4.73328
2.933	-0.50354
2.9335	1.51062
2.934	4.63257
2.9345	-1.2085
2.935	-3.42407
2.9355	-1.51062
2.936	1.40991
2.9365	4.12903
2.937	1.61133
2.9375	3.8269
2.938	15.71045
2.9385	17.01965
2.939	16.51611
2.9395	12.08496
2.94	2.92053
2.9405	1.71204
2.941	6.84814
2.9415	2.5177
2.942	8.25806
2.9425	6.54602
2.943	-1.40991
2.9435	-2.21558
2.944	-3.52478
2.9445	-3.32336
2.945	-9.06372
2.9455	-8.66089
2.946	-17.92603
2.9465	-17.72461
2.947	-17.42249
2.9475	-24.37134
2.948	-18.53027
2.9485	-10.87646
2.949	-5.94177
2.9495	5.13611
2.95	7.45239
2.9505	2.01416
2.951	1.71204
2.9515	7.75452
2.952	3.8269
2.9525	9.56726
2.953	9.76868
2.9535	3.92761
2.954	-1.2085
2.9545	-2.21558
2.955	-5.63965
2.9555	1.91345
2.956	-2.31628
2.9565	-10.37292
2.957	-10.47363
2.9575	0.90637
2.958	3.02124
2.9585	12.28638
2.959	30.91736
2.9595	31.82373
2.96	26.08337
2.9605	28.9032
2.961	18.73169
2.9615	20.34302
2.962	15.60974
2.9625	18.73169
2.963	17.01965
2.9635	15.60974
2.964	17.42249
2.9645	15.1062
2.965	10.37292
2.9655	6.64673
2.966	0.80566
2.9665	-6.84814
2.967	-7.15027
2.9675	-14.40125
2.968	-13.89771
2.9685	-14.60266
2.969	-7.95593
2.9695	-2.41699
2.97	0.10071
2.9705	-0.30212
2.971	-4.33044
2.9715	-3.92761
2.972	-8.25806
2.9725	-5.74036
2.973	7.65381
2.9735	14.80408
2.974	5.33752
2.9745	9.46655
2.975	9.16443
2.9755	18.93311
2.976	18.22815
2.9765	22.35718
2.977	27.29187
2.9775	27.99683
2.978	30.41382
2.9785	30.11169
2.979	25.37842
2.9795	18.42957
2.98	14.40125
2.9805	11.07788
2.981	2.41699
2.9815	-14.19983
2.982	-26.28479
2.9825	-29.60815
2.983	-31.11877
2.9835	-43.30444
2.984	-43.40515
2.9845	-54.48303
2.985	-61.33118
2.9855	-53.77808
2.986	-50.65613
2.9865	-41.29028
2.987	-34.03931
2.9875	-25.68054
2.988	-24.37134
2.9885	-17.6239
2.989	-12.18567
2.9895	-7.5531
2.99	-7.25098
2.9905	5.33752
2.991	5.63965
2.9915	4.33044
2.992	0.40283
2.9925	7.5531
2.993	-1.00708
2.9935	4.53186
2.994	6.04248
2.9945	10.97717
2.995	6.3446
2.9955	5.74036
2.996	7.15027
2.9965	9.26514
2.997	7.45239
2.9975	12.99133
2.998	9.36584
2.9985	0.40283
2.999	0
2.9995	-3.7262
3	-2.81982
3.0005	-3.02124
3.001	-2.61841
3.0015	-6.44531
3.002	-5.84106
3.0025	-1.91345
3.003	-2.61841
3.0035	-0.80566
3.004	3.92761
3.0045	6.54602
3.005	5.13611
3.0055	13.19275
3.006	13.99841
3.0065	11.07788
3.007	9.06372
3.0075	9.76868
3.008	15.50903
3.0085	19.63806
3.009	21.45081
3.0095	25.68054
3.01	23.56567
3.0105	21.95435
3.011	13.29346
3.0115	13.69629
3.012	11.2793
3.0125	3.12195
3.013	4.12903
3.0135	-2.81982
3.014	-3.8269
3.0145	-3.42407
3.015	-3.12195
3.0155	2.11487
3.016	-1.81274
3.0165	-10.87646
3.017	-5.13611
3.0175	-10.0708
3.018	-19.73877
3.0185	-20.94727
3.019	-23.16284
3.0195	-27.59399
3.02	-25.57983
3.0205	-21.95435
3.021	-20.54443
3.0215	-20.64514
3.022	-21.85364
3.0225	-15.60974
3.023	-9.46655
3.0235	-5.53894
3.024	-8.35876
3.0245	-2.31628
3.025	-1.40991
3.0255	4.83398
3.026	9.76868
3.0265	13.59558
3.027	13.39417
3.0275	23.06213
3.028	27.49329
3.0285	21.85364
3.029	11.07788
3.0295	14.30054
3.03	13.09204
3.0305	8.35876
3.031	-0.30212
3.0315	5.74036
3.032	6.84814
3.0325	1.91345
3.033	3.22266
3.0335	-3.12195
3.034	-2.11487
3.0345	-8.35876
3.035	-11.17859
3.0355	-11.38
3.036	-2.81982
3.0365	8.8623
3.037	16.71753
3.0375	30.91736
3.038	41.18958
3.0385	48.94409
3.039	53.07312
3.0395	49.85046
3.04	41.29028
3.0405	29.70886
3.041	19.83948
3.0415	7.25098
3.042	4.73328
3.0425	-7.5531
3.043	-19.63806
3.0435	-35.04639
3.044	-43.90869
3.0445	-43.20374
3.045	-48.13843
3.0455	-41.89453
3.046	-44.61365
3.0465	-45.2179
3.047	-47.13135
3.0475	-38.57117
3.048	-29.40674
3.0485	-22.55859
3.049	-18.53027
3.0495	-10.37292
3.05	-15.71045
3.0505	-15.91187
3.051	-22.35718
3.0515	-16.91895
3.052	-16.41541
3.0525	-12.28638
3.053	-8.45947
3.0535	-4.53186
3.054	-7.5531
3.0545	-4.73328
3.055	1.81274
3.0555	11.07788
3.056	17.22107
3.0565	24.16992
3.057	34.64355
3.0575	64.65454
3.058	93.75916
3.0585	96.37756
3.059	106.34766
3.0595	111.48376
3.06	120.95032
3.0605	124.17297
3.061	131.02112
3.0615	138.47351
3.062	148.54431
3.0625	158.21228
3.063	167.77954
3.0635	168.28308
3.064	165.9668
3.0645	143.10608
3.065	110.6781
3.0655	70.49561
3.066	32.7301
3.0665	-11.38
3.067	-64.35242
3.0675	-121.25244
3.068	-169.99512
3.0685	-205.44434
3.069	-217.93213
3.0695	-236.96594
3.07	-235.65674
3.0705	-236.26099
3.071	-210.47974
3.0715	-170.29724
3.072	-138.87634
3.0725	-106.8512
3.073	-91.745
3.0735	-78.95508
3.074	-67.8772
3.0745	-47.93701
3.075	-27.59399
3.0755	-11.2793
3.076	-2.71912
3.0765	7.65381
3.077	20.84656
3.0775	29.00391
3.078	32.7301
3.0785	41.59241
3.079	46.72852
3.0795	50.55542
3.08	46.22498
3.0805	56.79932
3.081	58.20923
3.0815	62.03613
3.082	60.92834
3.0825	53.17383
3.083	31.11877
3.0835	17.92603
3.084	-9.16443
3.0845	-29.50745
3.085	-43.00232
3.0855	-51.86462
3.086	-57.00073
3.0865	-60.4248
3.087	-50.45471
3.0875	-43.80798
3.088	-24.97559
3.0885	-14.19983
3.089	4.22974
3.0895	18.93311
3.09	29.00391
3.0905	37.06055
3.091	41.18958
3.0915	52.56958
3.092	39.27612
3.0925	41.89453
3.093	21.85364
3.0935	6.2439
3.094	-3.12195
3.0945	-13.09204
3.095	-22.55859
3.0955	-27.99683
3.096	-37.56409
3.0965	-44.0094
3.097	-47.13135
3.0975	-48.33984
3.098	-37.26196
3.0985	-30.2124
3.099	-17.32178
3.0995	-8.66089
3.1	-1.2085
3.1005	4.12903
3.101	1.3092
3.1015	-4.02832
3.102	-2.92053
3.1025	-6.3446
3.103	2.11487
3.1035	5.94177
3.104	7.65381
3.1045	-2.92053
3.105	-13.89771
3.1055	-31.92444
3.106	-40.98816
3.1065	-43.10303
3.107	-39.57825
3.1075	-33.53577
3.108	-28.9032
3.1085	-18.42957
3.109	-14.90479
3.1095	-13.09204
3.11	-14.50195
3.1105	-13.69629
3.111	-8.96301
3.1115	-8.66089
3.112	1.91345
3.1125	7.75452
3.113	8.66089
3.1135	6.84814
3.114	4.12903
3.1145	7.5531
3.115	11.17859
3.1155	17.01965
3.116	19.13452
3.1165	11.98425
3.117	15.71045
3.1175	21.04797
3.118	30.61523
3.1185	25.177
3.119	25.68054
3.1195	27.59399
3.12	33.23364
3.1205	34.94568
3.121	39.17542
3.1215	38.57117
3.122	33.33435
3.1225	31.32019
3.123	33.13293
3.1235	20.1416
3.124	12.28638
3.1245	-1.71204
3.125	-9.36584
3.1255	-21.45081
3.126	-26.68762
3.1265	-33.23364
3.127	-29.30603
3.1275	-36.95984
3.128	-38.974
3.1285	-42.49878
3.129	-46.02356
3.1295	-36.85913
3.13	-25.27771
3.1305	-10.0708
3.131	-4.43115
3.1315	4.43115
3.132	4.22974
3.1325	10.27222
3.133	13.89771
3.1335	18.93311
3.134	15.71045
3.1345	12.78992
3.135	15.30762
3.1355	17.22107
3.136	17.32178
3.1365	14.90479
3.137	14.19983
3.1375	12.99133
3.138	13.89771
3.1385	12.99133
3.139	4.43115
3.1395	-1.61133
3.14	-5.53894
3.1405	-3.52478
3.141	-3.7262
3.1415	-6.94885
3.142	-8.35876
3.1425	-10.97717
3.143	-14.09912
3.1435	-16.91895
3.144	-17.42249
3.1445	-0.40283
3.145	6.54602
3.1455	17.82532
3.146	23.26355
3.1465	35.85205
3.147	44.51294
3.1475	48.23914
3.148	52.8717
3.1485	54.0802
3.149	59.1156
3.1495	51.86462
3.15	55.2887
3.1505	40.48462
3.151	22.35718
3.1515	-3.32336
3.152	-24.67346
3.1525	-39.57825
3.153	-55.49011
3.1535	-58.61206
3.154	-65.15808
3.1545	-67.77649
3.155	-70.3949
3.1555	-70.49561
3.156	-53.67737
3.1565	-43.20374
3.157	-42.19666
3.1575	-39.07471
3.158	-33.03223
3.1585	-30.2124
3.159	-20.04089
3.1595	-11.58142
3.16	8.96301
3.1605	19.03381
3.161	33.43506
3.1615	42.7002
3.162	40.58533
3.1625	42.19666
3.163	46.92993
3.1635	40.78674
3.164	50.2533
3.1645	57.20215
3.165	59.71985
3.1655	56.09436
3.166	48.23914
3.1665	41.4917
3.167	35.75134
3.1675	30.81665
3.168	18.93311
3.1685	4.22974
3.169	-16.51611
3.1695	-25.27771
3.17	-35.54993
3.1705	-40.48462
3.171	-39.67896
3.1715	-43.50586
3.172	-48.94409
3.1725	-49.0448
3.173	-41.59241
3.1735	-33.53577
3.174	-28.9032
3.1745	-18.53027
3.175	-11.58142
3.1755	-2.71912
3.176	2.11487
3.1765	9.86938
3.177	7.35168
3.1775	14.80408
3.178	14.70337
3.1785	17.22107
3.179	14.80408
3.1795	23.06213
3.18	19.94019
3.1805	21.75293
3.181	16.71753
3.1815	15.1062
3.182	12.18567
3.1825	12.38708
3.183	5.94177
3.1835	-0.20142
3.184	-3.02124
3.1845	-5.63965
3.185	-10.47363
3.1855	-15.50903
3.186	-14.09912
3.1865	-7.15027
3.187	4.63257
3.1875	14.09912
3.188	16.61682
3.1885	17.6239
3.189	20.74585
3.1895	22.86072
3.19	30.2124
3.1905	38.974
3.191	44.71436
3.1915	62.53967
3.192	75.4303
3.1925	75.12817
3.193	76.53809
3.1935	69.1864
3.194	63.34534
3.1945	58.30994
3.195	51.46179
3.1955	50.2533
3.196	43.20374
3.1965	43.30444
3.197	48.23914
3.1975	59.61914
3.198	47.7356
3.1985	29.10461
3.199	9.66797
3.1995	-16.11328
3.2	-39.98108
3.2005	-66.36658
3.201	-91.64429
3.2015	-104.23279
3.202	-114.505
3.2025	-120.14465
3.203	-119.03687
3.2035	-114.90784
3.204	-114.90784
3.2045	-111.58447
3.205	-99.49951
3.2055	-87.11243
3.206	-77.64587
3.2065	-65.05737
3.207	-52.46887
3.2075	-40.58533
3.208	-20.04089
3.2085	-8.8623
3.209	4.33044
3.2095	14.40125
3.21	13.39417
3.2105	8.35876
3.211	9.56726
3.2115	11.98425
3.212	15.60974
3.2125	14.40125
3.213	5.63965
3.2135	1.00708
3.214	-0.10071
3.2145	-5.0354
3.215	-10.67505
3.2155	-13.89771
3.216	-14.30054
3.2165	-4.12903
3.217	-1.00708
3.2175	1.10779
3.218	1.51062
3.2185	0.10071
3.219	5.94177
3.2195	8.35876
3.22	5.74036
3.2205	8.96301
3.221	11.68213
3.2215	18.63098
3.222	24.06921
3.2225	27.49329
3.223	35.2478
3.2235	32.22656
3.224	27.99683
3.2245	36.25488
3.225	28.09753
3.2255	26.08337
3.226	21.45081
3.2265	19.33594
3.227	17.72461
3.2275	9.06372
3.228	1.3092
3.2285	-8.25806
3.229	-11.2793
3.2295	-12.18567
3.23	-1.00708
3.2305	9.56726
3.231	20.04089
3.2315	20.74585
3.232	21.3501
3.2325	25.177
3.233	31.01807
3.2335	30.41382
3.234	29.60815
3.2345	26.18408
3.235	27.29187
3.2355	18.93311
3.236	18.42957
3.2365	9.26514
3.237	6.04248
3.2375	-11.07788
3.238	-15.81116
3.2385	-24.87488
3.239	-30.31311
3.2395	-39.57825
3.24	-43.00232
3.2405	-33.23364
3.241	-26.28479
3.2415	-8.66089
3.242	0.80566
3.2425	16.61682
3.243	33.63647
3.2435	40.48462
3.244	48.54126
3.2445	51.36108
3.245	47.53418
3.2455	36.15417
3.246	29.00391
3.2465	17.82532
3.247	13.89771
3.2475	14.09912
3.248	13.09204
3.2485	20.64514
3.249	11.88354
3.2495	19.33594
3.25	31.72302
3.2505	38.26904
3.251	46.12427
3.2515	49.85046
3.252	60.12268
3.2525	62.13684
3.253	58.91418
3.2535	43.00232
3.254	36.65771
3.2545	23.76709
3.255	-6.84814
3.2555	-29.80957
3.256	-34.84497
3.2565	-25.47913
3.257	-17.6239
3.2575	-3.92761
3.258	3.62549
3.2585	6.94885
3.259	8.96301
3.2595	22.15576
3.26	32.42798
3.2605	40.78674
3.261	46.02356
3.2615	50.65613
3.262	54.0802
3.2625	49.0448
3.263	45.92285
3.2635	36.55701
3.264	17.92603
3.2645	-5.63965
3.265	-32.62939
3.2655	-64.05029
3.266	-87.61597
3.2665	-109.57031
3.267	-110.27527
3.2675	-103.82996
3.268	-93.35632
3.2685	-91.8457
3.269	-76.23596
3.2695	-72.61047
3.27	-63.54675
3.2705	-50.15259
3.271	-32.12585
3.2715	-22.05505
3.272	1.2085
3.2725	3.92761
3.273	9.66797
3.2735	14.60266
3.274	17.92603
3.2745	13.49487
3.275	8.8623
3.2755	-5.63965
3.276	-21.55151
3.2765	-28.50037
3.277	-33.73718
3.2775	-36.85913
3.278	-37.16125
3.2785	-29.30603
3.279	-0.80566
3.2795	6.14319
3.28	19.83948
3.2805	23.56567
3.281	22.25647
3.2815	25.27771
3.282	23.76709
3.2825	27.09045
3.283	26.28479
3.2835	27.89612
3.284	31.92444
3.2845	24.97559
3.285	24.97559
3.2855	14.50195
3.286	6.14319
3.2865	5.33752
3.287	-3.32336
3.2875	-8.96301
3.288	-20.54443
3.2885	-32.22656
3.289	-35.14709
3.2895	-37.06055
3.29	-40.98816
3.2905	-45.72144
3.291	-53.47595
3.2915	-59.71985
3.292	-51.66321
3.2925	-38.36975
3.293	-28.39966
3.2935	-23.36426
3.294	-13.69629
3.2945	-7.15027
3.295	2.81982
3.2955	12.18567
3.296	16.01257
3.2965	18.73169
3.297	12.5885
3.2975	11.2793
3.298	10.17151
3.2985	13.89771
3.299	12.38708
3.2995	21.95435
3.3	25.68054
3.3005	30.61523
3.301	35.04639
3.3015	32.93152
3.302	35.2478
3.3025	35.2478
3.303	64.45312
3.3035	87.01172
3.304	110.07385
3.3045	116.72058
3.305	113.1958
3.3055	94.56482
3.306	83.08411
3.3065	67.8772
3.307	44.51294
3.3075	32.83081
3.308	25.07629
3.3085	20.74585
3.309	33.9386
3.3095	31.4209
3.31	38.67188
3.3105	45.41931
3.311	39.98108
3.3115	41.08887
3.312	41.69312
3.3125	44.81506
3.313	51.05896
3.3135	55.59082
3.314	57.9071
3.3145	54.0802
3.315	38.974
3.3155	7.85522
3.316	-15.1062
3.3165	-36.75842
3.317	-64.55383
3.3175	-91.34216
3.318	-106.64978
3.3185	-129.00696
3.319	-133.3374
3.3195	-114.20288
3.32	-92.14783
3.3205	-73.61755
3.321	-63.14392
3.3215	-50.75684
3.322	-34.24072
3.3225	-13.99841
3.323	3.02124
3.3235	21.45081
3.324	38.36975
3.3245	55.49011
3.325	62.33826
3.3255	54.18091
3.326	48.33984
3.3265	27.09045
3.327	-4.53186
3.3275	-37.26196
3.328	-66.97083
3.3285	-88.82446
3.329	-108.86536
3.3295	-114.70642
3.33	-107.85828
3.3305	-101.01013
3.331	-67.17224
3.3315	-26.68762
3.332	28.70178
3.3325	76.94092
3.333	129.40979
3.3335	181.27441
3.334	234.24683
3.3345	243.61267
3.335	247.64099
3.3355	243.10913
3.336	217.93213
3.3365	174.92981
3.337	129.61121
3.3375	70.09277
3.338	6.3446
3.3385	-54.38232
3.339	-111.9873
3.3395	-151.76697
3.34	-207.86133
3.3405	-240.99426
3.341	-266.27197
3.3415	-295.37659
3.342	-300.31128
3.3425	-292.85889
3.343	-266.87622
3.3435	-233.84399
3.344	-192.05017
3.3445	-159.32007
3.345	-133.53882
3.3455	-106.14624
3.346	-75.02747
3.3465	-47.8363
3.347	-22.6593
3.3475	-4.53186
3.348	-5.84106
3.3485	-1.00708
3.349	3.42407
3.3495	-8.45947
3.35	-6.14319
3.3505	-0.10071
3.351	6.2439
3.3515	15.00549
3.352	28.29895
3.3525	54.78516
3.353	61.73401
3.3535	55.69153
3.354	56.09436
3.3545	59.82056
3.355	64.65454
3.3555	64.55383
3.356	64.45312
3.3565	64.65454
3.357	70.79773
3.3575	83.18481
3.358	98.89526
3.3585	132.53174
3.359	130.01404
3.3595	126.79138
3.36	107.25403
3.3605	87.21313
3.361	52.56958
3.3615	19.83948
3.362	-10.47363
3.3625	-29.40674
3.363	-55.49011
3.3635	-80.36499
3.364	-91.04004
3.3645	-97.48535
3.365	-104.63562
3.3655	-102.01721
3.366	-91.745
3.3665	-80.16357
3.367	-76.33667
3.3675	-61.83472
3.368	-42.90161
3.3685	-35.75134
3.369	-26.08337
3.3695	-20.34302
3.37	-13.19275
3.3705	-13.19275
3.371	-9.16443
3.3715	2.81982
3.372	16.21399
3.3725	23.26355
3.373	30.71594
3.3735	42.29736
3.374	53.47595
3.3745	50.45471
3.375	56.09436
3.3755	55.49011
3.376	49.34692
3.3765	47.93701
3.377	46.02356
3.3775	36.15417
3.378	21.95435
3.3785	3.42407
3.379	1.40991
3.3795	-12.78992
3.38	-30.11169
3.3805	-21.85364
3.381	-15.71045
3.3815	-14.09912
3.382	-7.15027
3.3825	-4.33044
3.383	-4.33044
3.3835	0.70496
3.384	8.56018
3.3845	7.5531
3.385	15.71045
3.3855	19.03381
3.386	23.36426
3.3865	26.68762
3.387	29.30603
3.3875	27.19116
3.388	19.94019
3.3885	5.0354
3.389	3.22266
3.3895	2.5177
3.39	2.11487
3.3905	3.8269
3.391	6.3446
3.3915	11.68213
3.392	16.81824
3.3925	18.63098
3.393	17.32178
3.3935	21.85364
3.394	34.84497
3.3945	50.45471
3.395	75.53101
3.3955	112.89368
3.396	116.11633
3.3965	110.77881
3.397	99.70093
3.3975	101.9165
3.398	119.4397
3.3985	124.87793
3.399	120.44678
3.3995	106.64978
3.4	93.55774
3.4005	88.0188
3.401	78.55225
3.4015	73.21472
3.402	57.70569
3.4025	38.06763
3.403	12.08496
3.4035	-17.42249
3.404	-43.60657
3.4045	-63.94958
3.405	-73.11401
3.4055	-91.8457
3.406	-116.31775
3.4065	-141.39404
3.407	-149.95422
3.4075	-153.479
3.408	-151.86768
3.4085	-153.17688
3.409	-125.18005
3.4095	-106.75049
3.41	-85.5011
3.4105	-78.14941
3.411	-62.13684
3.4115	-43.50586
3.412	6.2439
3.4125	58.81348
3.413	94.66553
3.4135	101.21155
3.414	98.49243
3.4145	87.71667
3.415	86.00464
3.4155	84.69543
3.416	96.27686
3.4165	105.34058
3.417	119.74182
3.4175	124.67651
3.418	116.31775
3.4185	111.08093
3.419	92.55066
3.4195	73.41614
3.42	43.60657
3.4205	12.48779
3.421	-28.60107
3.4215	-70.59631
3.422	-114.00146
3.4225	-160.72998
3.423	-204.84009
3.4235	-245.62683
3.424	-257.20825
3.4245	-264.76135
3.425	-258.11462
3.4255	-256.20117
3.426	-232.33337
3.4265	-204.23584
3.427	-171.50574
3.4275	-143.3075
3.428	-123.97156
3.4285	-87.41455
3.429	-61.73401
3.4295	-34.54285
3.43	-6.74744
3.4305	16.01257
3.431	30.2124
3.4315	33.33435
3.432	40.78674
3.4325	44.91577
3.433	47.13135
3.4335	43.40515
3.434	46.32568
3.4345	54.58374
3.435	59.92126
3.4355	57.30286
3.436	61.73401
3.4365	69.28711
3.437	76.43738
3.4375	81.67419
3.438	84.79614
3.4385	86.30676
3.439	93.45703
3.4395	121.25244
3.44	145.8252
3.4405	178.45459
3.441	222.46399
3.4415	237.97302
3.442	227.90222
3.4425	201.31531
3.443	165.46326
3.4435	125.18005
3.444	102.01721
3.4445	65.3595
3.445	51.66321
3.4455	54.0802
3.446	62.03613
3.4465	78.95508
3.447	88.42163
3.4475	96.17615
3.448	90.5365
3.4485	85.19897
3.449	97.58606
3.4495	98.0896
3.45	100.90942
3.4505	91.94641
3.451	85.80322
3.4515	71.60339
3.452	51.15967
3.4525	29.00391
3.453	-16.91895
3.4535	-64.151
3.454	-125.7843
3.4545	-168.58521
3.455	-219.64417
3.4555	-255.49622
3.456	-272.31445
3.4565	-276.04065
3.457	-288.22632
3.4575	-279.86755
3.458	-256.10046
3.4585	-212.39319
3.459	-161.13281
3.4595	-122.96448
3.46	-93.15491
3.4605	-75.22888
3.461	-58.91418
3.4615	-44.61365
3.462	-47.93701
3.4625	-50.354
3.463	-48.03772
3.4635	-52.16675
3.464	-59.21631
3.4645	-66.97083
3.465	-81.67419
3.4655	-95.16907
3.466	-92.04712
3.4665	-71.20056
3.467	-48.23914
3.4675	-27.09045
3.468	-16.51611
3.4685	6.3446
3.469	38.974
3.4695	57.10144
3.47	73.61755
3.4705	83.88977
3.471	86.10535
3.4715	76.33667
3.472	74.52393
3.4725	54.98657
3.473	46.22498
3.4735	26.58691
3.474	17.22107
3.4745	21.85364
3.475	24.87488
3.4755	33.33435
3.476	25.68054
3.4765	19.83948
3.477	9.76868
3.4775	13.99841
3.478	19.43665
3.4785	24.37134
3.479	19.23523
3.4795	23.96851
3.48	13.49487
3.4805	-12.99133
3.481	-36.35559
3.4815	-28.19824
3.482	-5.13611
3.4825	15.40833
3.483	24.97559
3.4835	19.13452
3.484	13.29346
3.4845	6.44531
3.485	-5.53894
3.4855	-28.9032
3.486	-43.40515
3.4865	-53.27454
3.487	-76.03455
3.4875	-68.28003
3.488	-68.38074
3.4885	-61.73401
3.489	-53.77808
3.4895	-53.77808
3.49	-64.55383
3.4905	-78.35083
3.491	-83.08411
3.4915	-86.50818
3.492	-84.39331
3.4925	-83.48694
3.493	-65.76233
3.4935	-38.47046
3.494	-10.27222
3.4945	7.35168
3.495	26.08337
3.4955	42.90161
3.496	49.64905
3.4965	53.57666
3.497	62.64038
3.4975	69.28711
3.498	75.63171
3.4985	82.68127
3.499	100.90942
3.4995	127.19421
3.5	139.17847
3.5005	151.26343
3.501	168.78662
3.5015	174.22485
3.502	155.69458
3.5025	135.35156
3.503	128.40271
3.5035	112.18872
3.504	100.30518
3.5045	97.28394
3.505	131.32324
3.5055	191.74805
3.506	229.41284
3.5065	250.05798
3.507	266.77551
3.5075	265.16418
3.508	239.28223
3.5085	193.6615
3.509	129.10767
3.5095	72.71118
3.51	30.41382
3.5105	-11.2793
3.511	-43.00232
3.5115	-70.3949
3.512	-89.52942
3.5125	-94.96765
3.513	-104.53491
3.5135	-131.12183
3.514	-152.97546
3.5145	-170.80078
3.515	-158.81653
3.5155	-104.3335
3.516	-34.84497
3.5165	24.06921
3.517	90.23438
3.5175	150.35706
3.518	201.51672
3.5185	227.49939
3.519	238.27515
3.5195	238.17444
3.52	242.40417
3.5205	236.66382
3.521	200.10681
3.5215	162.03918
3.522	116.61987
3.5225	44.41223
3.523	-32.32727
3.5235	-112.89368
3.524	-176.74255
3.5245	-185.50415
3.525	-200.20752
3.5255	-229.01001
3.526	-255.19409
3.5265	-233.84399
3.527	-216.11938
3.5275	-207.5592
3.528	-200.71106
3.5285	-213.8031
3.529	-222.06116
3.5295	-225.78735
3.53	-240.99426
3.5305	-252.27356
3.531	-257.30896
3.5315	-240.89355
3.532	-223.97461
3.5325	-217.02576
3.533	-207.86133
3.5335	-191.34521
3.534	-171.80786
3.5345	-153.479
3.535	-120.84961
3.5355	-99.49951
3.536	-67.8772
3.5365	-49.54834
3.537	-27.99683
3.5375	-8.05664
3.538	3.42407
3.5385	0.90637
3.539	-16.01257
3.5395	-42.39807
3.54	-79.66003
3.5405	-112.79297
3.541	-140.78979
3.5415	-154.38538
3.542	-159.42078
3.5425	-163.65051
3.543	-168.98804
3.5435	-176.54114
3.544	-172.00928
3.5445	-173.01636
3.545	-176.64185
3.5455	-161.43494
3.546	-86.91101
3.5465	-7.35168
3.547	56.39648
3.5475	111.18164
3.548	163.65051
3.5485	233.44116
3.549	306.05164
3.5495	351.37024
3.55	386.71875
3.5505	410.88867
3.551	431.3324
3.5515	442.81311
3.552	452.48108
3.5525	463.76038
3.553	462.35046
3.5535	445.43152
3.554	390.44495
3.5545	332.0343
3.555	271.6095
3.5555	229.71497
3.556	202.62451
3.5565	188.32397
3.557	192.15088
3.5575	180.87158
3.558	176.44043
3.5585	153.68042
3.559	148.74573
3.5595	136.25793
3.56	114.90784
3.5605	114.30359
3.561	132.0282
3.5615	130.92041
3.562	105.03845
3.5625	85.19897
3.563	77.84729
3.5635	54.88586
3.564	36.35559
3.5645	40.1825
3.565	30.71594
3.5655	18.8324
3.566	-6.44531
3.5665	-22.25647
3.567	-31.11877
3.5675	-22.86072
3.568	-30.81665
3.5685	-61.6333
3.569	-86.60889
3.5695	-88.22021
3.57	-111.78589
3.5705	-140.48767
3.571	-175.93689
3.5715	-230.92346
3.572	-288.62915
3.5725	-333.14209
3.573	-382.48901
3.5735	-396.99097
3.574	-398.30017
3.5745	-395.98389
3.575	-403.93982
3.5755	-398.30017
3.576	-418.54248
3.5765	-450.46692
3.577	-443.01453
3.5775	-426.19629
3.578	-389.8407
3.5785	-358.4198
3.579	-326.09253
3.5795	-300.41199
3.58	-267.78259
3.5805	-252.97852
3.581	-237.77161
3.5815	-208.56628
3.582	-142.80396
3.5825	-61.33118
3.583	7.85522
3.5835	78.85437
3.584	153.07617
3.5845	222.06116
3.585	268.68896
3.5855	317.73376
3.586	361.54175
3.5865	393.96973
3.587	423.7793
3.5875	434.85718
3.588	446.74072
3.5885	447.14355
3.589	424.28284
3.5895	372.3175
3.59	303.0304
3.5905	213.09814
3.591	119.84253
3.5915	26.28479
3.592	-72.9126
3.5925	-154.78821
3.593	-170.49866
3.5935	-196.07849
3.594	-199.60327
3.5945	-223.26965
3.595	-184.39636
3.5955	-76.13525
3.596	1.3092
3.5965	67.07153
3.597	123.06519
3.5975	164.55688
3.598	203.83301
3.5985	238.07373
3.599	260.93445
3.5995	265.96985
3.6	252.87781
3.6005	216.42151
3.601	173.5199
3.6015	120.84961
3.602	50.55542
3.6025	-58.91418
3.603	-185.90698
3.6035	-298.49854
3.604	-393.56689
3.6045	-456.40869
3.605	-510.28748
3.6055	-587.73193
3.606	-652.78931
3.6065	-698.0072
3.607	-724.19128
3.6075	-700.32349
3.608	-643.62488
3.6085	-556.31104
3.609	-479.37012
3.6095	-384.30176
3.61	-299.90845
3.6105	-215.71655
3.611	-115.10925
3.6115	-33.73718
3.612	30.31311
3.6125	86.20605
3.613	133.3374
3.6135	207.4585
3.614	284.80225
3.6145	335.45837
3.615	363.05237
3.6155	376.24512
3.616	374.63379
3.6165	362.34741
3.617	419.65027
3.6175	465.97595
3.618	498.80676
3.6185	513.61084
3.619	487.72888
3.6195	448.75488
3.62	398.90442
3.6205	342.00439
3.621	286.7157
3.6215	226.19019
3.622	157.2052
3.6225	85.09827
3.623	11.68213
3.6235	-58.81348
3.624	-106.8512
3.6245	-126.69067
3.625	-149.85352
3.6255	-140.28625
3.626	-122.66235
3.6265	-145.52307
3.627	-192.35229
3.6275	-248.44666
3.628	-297.995
3.6285	-284.50012
3.629	-246.83533
3.6295	-178.35388
3.63	-120.14465
3.6305	-62.53967
3.631	-9.46655
3.6315	54.18091
3.632	125.58289
3.6325	212.29248
3.633	264.66064
3.6335	324.38049
3.634	362.34741
3.6345	390.84778
3.635	416.93115
3.6355	433.44727
3.636	428.10974
3.6365	395.58105
3.637	354.99573
3.6375	279.1626
3.638	150.35706
3.6385	25.27771
3.639	-103.52783
3.6395	-243.41125
3.64	-363.35449
3.6405	-465.87524
3.641	-554.09546
3.6415	-591.55884
3.642	-606.66504
3.6425	-604.75159
3.643	-567.89246
3.6435	-504.94995
3.644	-415.0177
3.6445	-323.07129
3.645	-249.35303
3.6455	-167.276
3.646	-106.75049
3.6465	-69.38782
3.647	-47.53418
3.6475	-57.10144
3.648	-76.43738
3.6485	-115.31067
3.649	-150.9613
3.6495	-203.02734
3.65	-257.51038
3.6505	-306.75659
3.651	-334.14917
3.6515	-361.54175
3.652	-376.24512
3.6525	-363.25378
3.653	-335.15625
3.6535	-282.88879
3.654	-201.81885
3.6545	-130.21545
3.655	-57.00073
3.6555	20.44373
3.656	136.76147
3.6565	360.9375
3.657	569.50378
3.6575	691.15906
3.658	803.85132
3.6585	854.60815
3.659	865.1825
3.6595	856.01807
3.66	808.28247
3.6605	719.96155
3.661	617.13867
3.6615	490.448
3.662	370.30334
3.6625	277.14844
3.663	199.50256
3.6635	116.51917
3.664	10.97717
3.6645	-112.69226
3.665	-182.18079
3.6655	-190.94238
3.666	-203.22876
3.6665	-203.7323
3.667	-222.16187
3.6675	-237.87231
3.668	-238.77869
3.6685	-189.43176
3.669	-54.78516
3.6695	92.65137
3.67	183.89282
3.6705	274.73145
3.671	348.44971
3.6715	417.33398
3.672	520.45898
3.6725	614.31885
3.673	651.58081
3.6735	661.24878
3.674	651.88293
3.6745	609.58557
3.675	560.23865
3.6755	508.17261
3.676	416.93115
3.6765	277.65198
3.677	121.75598
3.6775	-32.12585
3.678	-188.02185
3.6785	-342.20581
3.679	-482.69348
3.6795	-609.78699
3.68	-675.65002
3.6805	-700.92773
3.681	-705.96313
3.6815	-690.4541
3.682	-659.83887
3.6825	-643.32275
3.683	-642.11426
3.6835	-652.6886
3.684	-661.5509
3.6845	-633.95691
3.685	-605.65796
3.6855	-570.61157
3.686	-536.57227
3.6865	-516.43066
3.687	-483.29773
3.6875	-488.53455
3.688	-489.34021
3.6885	-496.08765
3.689	-484.80835
3.6895	-459.32922
3.69	-421.2616
3.6905	-356.70776
3.691	-239.18152
3.6915	-113.1958
3.692	-16.11328
3.6925	70.99915
3.693	142.50183
3.6935	207.76062
3.694	262.64648
3.6945	297.29004
3.695	337.0697
3.6955	392.3584
3.696	446.03577
3.6965	489.34021
3.697	515.625
3.6975	512.80518
3.698	473.22693
3.6985	401.12
3.699	303.53394
3.6995	181.67725
3.7	55.89294
3.7005	-69.68994
3.701	-164.7583
3.7015	-246.83533
3.702	-324.68262
3.7025	-392.25769
3.703	-448.85559
3.7035	-485.00977
3.704	-476.34888
3.7045	-465.97595
3.705	-423.37646
3.7055	-360.23254
3.706	-252.7771
3.7065	-156.80237
3.707	-51.96533
3.7075	47.33276
3.708	125.48218
3.7085	198.99902
3.709	250.66223
3.7095	281.98242
3.71	306.15234
3.7105	348.95325
3.711	390.54565
3.7115	427.90833
3.712	449.35913
3.7125	471.21277
3.713	469.80286
3.7135	449.96338
3.714	409.37805
3.7145	367.68494
3.715	343.91785
3.7155	294.06738
3.716	229.01001
3.7165	176.44043
3.717	144.01245
3.7175	130.92041
3.718	94.16199
3.7185	33.53577
3.719	-26.58691
3.7195	-103.02429
3.72	-163.5498
3.7205	-199.80469
3.721	-221.3562
3.7215	-247.7417
3.722	-262.64648
3.7225	-291.24756
3.723	-328.71094
3.7235	-348.75183
3.724	-315.51819
3.7245	-294.97375
3.725	-273.01941
3.7255	-260.22949
3.726	-236.16028
3.7265	-192.15088
3.727	-163.75122
3.7275	-140.48767
3.728	-129.71191
3.7285	-123.77014
3.729	-119.33899
3.7295	-112.28943
3.73	-116.51917
3.7305	-114.00146
3.731	-131.12183
3.7315	-140.58838
3.732	-139.98413
3.7325	-131.82678
3.733	-105.03845
3.7335	-53.17383
3.734	-13.09204
3.7345	38.47046
3.735	90.23438
3.7355	131.22253
3.736	156.19812
3.7365	166.26892
3.737	160.12573
3.7375	148.84644
3.738	144.01245
3.7385	134.84802
3.739	118.43262
3.7395	92.65137
3.74	82.37915
3.7405	88.42163
3.741	99.49951
3.7415	115.91492
3.742	124.87793
3.7425	122.46094
3.743	130.8197
3.7435	132.33032
3.744	148.54431
3.7445	157.50732
3.745	153.3783
3.7455	120.84961
3.746	89.93225
3.7465	85.29968
3.747	102.21863
3.7475	153.479
3.748	183.08716
3.7485	188.12256
3.749	186.71265
3.7495	181.57654
3.75	182.58362
3.7505	204.43726
3.751	243.71338
3.7515	283.19092
3.752	320.85571
3.7525	374.7345
3.753	418.44177
3.7535	446.74072
3.754	450.86975
3.7545	441.90674
3.755	406.05469
3.7555	362.44812
3.756	319.24438
3.7565	280.77393
3.757	276.04065
3.7575	278.75977
3.758	287.92419
3.7585	288.42773
3.759	268.38684
3.7595	245.02258
3.76	231.72913
3.7605	214.30664
3.761	241.39709
3.7615	248.34595
3.762	237.87231
3.7625	228.30505
3.763	196.58203
3.7635	154.38538
3.764	118.93616
3.7645	101.61438
3.765	84.69543
3.7655	81.57349
3.766	61.6333
3.7665	67.77649
3.767	58.00781
3.7675	16.41541
3.768	-10.0708
3.7685	-52.67029
3.769	-112.69226
3.7695	-161.53564
3.77	-221.75903
3.7705	-293.46313
3.771	-380.77698
3.7715	-453.18604
3.772	-518.94836
3.7725	-582.69653
3.773	-661.4502
3.7735	-737.68616
3.774	-808.18176
3.7745	-862.7655
3.775	-872.33276
3.7755	-860.34851
3.776	-852.79541
3.7765	-788.04016
3.777	-676.45569
3.7775	-570.20874
3.778	-480.17578
3.7785	-422.36938
3.779	-372.61963
3.7795	-317.83447
3.78	-275.4364
3.7805	-257.00684
3.781	-240.49072
3.7815	-224.78027
3.782	-223.47107
3.7825	-227.80151
3.783	-238.07373
3.7835	-251.26648
3.784	-248.54736
3.7845	-255.2948
3.785	-235.75745
3.7855	-174.8291
3.786	-42.39807
3.7865	115.91492
3.787	264.45923
3.7875	367.1814
3.788	401.52283
3.7885	411.2915
3.789	392.3584
3.7895	346.53625
3.79	289.83765
3.7905	221.65833
3.791	161.93848
3.7915	90.23438
3.792	32.7301
3.7925	-48.23914
3.793	-121.65527
3.7935	-170.90149
3.794	-211.18469
3.7945	-243.71338
3.795	-247.43958
3.7955	-236.4624
3.796	-220.65125
3.7965	-188.92822
3.797	-163.24768
3.7975	-120.54749
3.798	-91.64429
3.7985	-53.27454
3.799	-3.62549
3.7995	71.90552
3.8	117.92908
3.8005	142.50183
3.801	154.38538
3.8015	150.35706
3.802	145.01953
3.8025	127.89917
3.803	126.28784
3.8035	169.49158
3.804	206.65283
3.8045	253.78418
3.805	297.18933
3.8055	330.62439
3.806	343.3136
3.8065	352.57874
3.807	352.47803
3.8075	348.85254
3.808	349.45679
3.8085	327.30103
3.809	287.11853
3.8095	243.31055
3.81	193.76221
3.8105	140.38696
3.811	112.99438
3.8115	135.35156
3.812	250.86365
3.8125	365.46936
3.813	411.79504
3.8135	433.8501
3.814	465.3717
3.8145	519.55261
3.815	593.06946
3.8155	652.18506
3.816	742.0166
3.8165	802.84424
3.817	811.00159
3.8175	771.42334
3.818	721.17004
3.8185	700.5249
3.819	714.12048
3.8195	687.03003
3.82	593.17017
3.8205	485.91614
3.821	353.48511
3.8215	258.01392
3.822	130.31616
3.8225	-0.50354
3.823	-146.02661
3.8235	-268.18542
3.824	-397.09167
3.8245	-541.90979
3.825	-670.91675
3.8255	-800.12512
3.826	-907.78198
3.8265	-1025.81177
3.827	-1114.2334
3.8275	-1184.12476
3.828	-1203.15857
3.8285	-1177.67944
3.829	-1137.89978
3.8295	-1085.73303
3.83	-1006.67725
3.8305	-902.34375
3.831	-776.86157
3.8315	-643.42346
3.832	-537.37793
3.8325	-428.51257
3.833	-278.75977
3.8335	-130.92041
3.834	-19.13452
3.8345	96.37756
3.835	206.35071
3.8355	293.56384
3.836	354.19006
3.8365	399.81079
3.837	429.82178
3.8375	417.23328
3.838	381.98547
3.8385	339.68811
3.839	334.45129
3.8395	314.91394
3.84	271.71021
3.8405	227.70081
3.841	185.90698
3.8415	156.90308
3.842	121.45386
3.8425	138.27209
3.843	149.04785
3.8435	241.09497
3.844	387.12158
3.8445	503.94287
3.845	575.74768
3.8455	600.32043
3.846	602.23389
3.8465	652.89001
3.847	667.08984
3.8475	616.2323
3.848	552.18201
3.8485	477.8595
3.849	460.73914
3.8495	399.30725
3.85	285.20508
3.8505	139.98413
3.851	-35.54993
3.8515	-229.31213
3.852	-378.86353
3.8525	-517.03491
3.853	-575.54626
3.8535	-560.54077
3.854	-534.55811
3.8545	-508.77686
3.855	-495.98694
3.8555	-498.50464
3.856	-502.83508
3.8565	-489.13879
3.857	-513.30872
3.8575	-523.58093
3.858	-475.4425
3.8585	-419.54956
3.859	-396.68884
3.8595	-391.04919
3.86	-395.88318
3.8605	-432.84302
3.861	-497.29614
3.8615	-557.51953
3.862	-584.71069
3.8625	-587.42981
3.863	-573.93494
3.8635	-539.89563
3.864	-511.8988
3.8645	-467.48657
3.865	-375.33875
3.8655	-270.401
3.866	-170.49866
3.8665	-83.18481
3.867	11.38
3.8675	100.00305
3.868	248.04382
3.8685	382.2876
3.869	459.63135
3.8695	502.13013
3.87	505.5542
3.8705	474.83826
3.871	492.05933
3.8715	535.96802
3.872	531.73828
3.8725	490.448
3.873	411.69434
3.8735	322.16492
3.874	272.41516
3.8745	254.69055
3.875	255.69763
3.8755	266.17126
3.876	239.28223
3.8765	207.4585
3.877	200.0061
3.8775	185.80627
3.878	190.84167
3.8785	211.78894
3.879	212.39319
3.8795	180.46875
3.88	117.12341
3.8805	22.6593
3.881	-39.57825
3.8815	-69.89136
3.882	-109.16748
3.8825	-109.67102
3.883	-51.66321
3.8835	9.86938
3.884	69.28711
3.8845	114.80713
3.885	181.57654
3.8855	234.44824
3.886	293.36243
3.8865	349.15466
3.887	412.09717
3.8875	453.38745
3.888	470.80994
3.8885	440.29541
3.889	374.7345
3.8895	305.24597
3.89	270.90454
3.8905	230.52063
3.891	192.55371
3.8915	188.32397
3.892	189.9353
3.8925	206.65283
3.893	339.78882
3.8935	497.29614
3.894	600.62256
3.8945	625.49744
3.895	586.72485
3.8955	519.25049
3.896	416.93115
3.8965	340.59448
3.897	229.51355
3.8975	50.2533
3.898	-118.02979
3.8985	-268.38684
3.899	-343.61572
3.8995	-378.76282
3.9	-479.1687
3.9005	-528.11279
3.901	-457.8186
3.9015	-258.71887
3.902	-13.59558
3.9025	241.4978
3.903	390.44495
3.9035	511.59668
3.904	572.2229
3.9045	572.02148
3.905	531.63757
3.9055	430.42603
3.906	294.57092
3.9065	130.61829
3.907	-46.02356
3.9075	-225.78735
3.908	-446.53931
3.9085	-702.94189
3.909	-916.14075
3.9095	-1096.50879
3.91	-1297.9248
3.9105	-1498.83728
3.911	-1665.30762
3.9115	-1728.14941
3.912	-1654.93469
3.9125	-1500.85144
3.913	-1388.86414
3.9135	-1264.59045
3.914	-1158.94775
3.9145	-1041.11938
3.915	-913.82446
3.9155	-782.1991
3.916	-638.69019
3.9165	-493.06641
3.917	-397.99805
3.9175	-339.78882
3.918	-291.14685
3.9185	-239.98718
