Alessio_Russo_Left_1.c3d  



Time(s):	A_R_bicipite(μV):
0	197.89124
0.0005	225.18311
0.001	232.43408
0.0015	230.01709
0.002	203.53088
0.0025	159.62219
0.003	129.91333
0.0035	104.73633
0.004	70.59631
0.0045	43.90869
0.005	12.28638
0.0055	-22.76001
0.006	-48.74268
0.0065	-57.50427
0.007	-46.32568
0.0075	-29.30603
0.008	-16.11328
0.0085	-2.01416
0.009	29.10461
0.0095	54.98657
0.01	62.43896
0.0105	55.69153
0.011	41.89453
0.0115	13.797
0.012	-18.42957
0.0125	-15.1062
0.013	-4.12903
0.0135	-16.11328
0.014	-73.81897
0.0145	-141.09192
0.015	-192.75513
0.0155	-218.93921
0.016	-211.58752
0.0165	-189.12964
0.017	-177.64893
0.0175	-172.3114
0.018	-145.22095
0.0185	-107.85828
0.019	-71.7041
0.0195	-14.50195
0.02	44.91577
0.0205	91.54358
0.021	120.04395
0.0215	116.11633
0.022	121.05103
0.0225	132.83386
0.023	146.73157
0.0235	153.17688
0.024	140.38696
0.0245	152.06909
0.025	169.39087
0.0255	187.21619
0.026	183.89282
0.0265	186.30981
0.027	180.36804
0.0275	154.98962
0.028	119.94324
0.0285	104.63562
0.029	73.11401
0.0295	22.55859
0.03	-2.01416
0.0305	-3.92761
0.031	2.41699
0.0315	10.0708
0.032	15.81116
0.0325	-8.25806
0.033	-91.54358
0.0335	-157.50732
0.034	-173.31848
0.0345	-167.98096
0.035	-174.72839
0.0355	-172.00928
0.036	-148.24219
0.0365	-107.05261
0.037	-56.69861
0.0375	-8.66089
0.038	32.42798
0.0385	26.18408
0.039	13.19275
0.0395	12.68921
0.04	18.93311
0.0405	14.50195
0.041	1.71204
0.0415	-2.81982
0.042	-3.42407
0.0425	6.3446
0.043	33.83789
0.0435	57.00073
0.044	37.06055
0.0445	-5.84106
0.045	-33.83789
0.0455	-36.15417
0.046	-34.74426
0.0465	-36.25488
0.047	-39.47754
0.0475	-48.03772
0.048	-54.0802
0.0485	-51.26038
0.049	-24.47205
0.0495	-16.71753
0.05	-52.97241
0.0505	-103.82996
0.051	-109.57031
0.0515	-84.39331
0.052	-61.33118
0.0525	-121.45386
0.053	-158.5144
0.0535	-165.86609
0.054	-149.24927
0.0545	-137.76855
0.055	-103.02429
0.0555	-50.85754
0.056	36.85913
0.0565	119.54041
0.057	174.42627
0.0575	202.32239
0.058	233.84399
0.0585	249.0509
0.059	253.07922
0.0595	247.54028
0.06	231.12488
0.0605	210.47974
0.061	178.85742
0.0615	150.65918
0.062	124.17297
0.0625	105.44128
0.063	96.17615
0.0635	95.26978
0.064	87.51526
0.0645	81.67419
0.065	80.96924
0.0655	72.9126
0.066	52.97241
0.0665	-8.05664
0.067	-80.4657
0.0675	-123.97156
0.068	-129.91333
0.0685	-126.38855
0.069	-128.70483
0.0695	-146.02661
0.07	-186.61194
0.0705	-225.78735
0.071	-238.67798
0.0715	-197.79053
0.072	-124.37439
0.0725	-76.43738
0.073	-31.21948
0.0735	34.84497
0.074	95.37048
0.0745	133.3374
0.075	158.81653
0.0755	157.60803
0.076	133.63953
0.0765	77.948
0.077	42.8009
0.0775	34.64355
0.078	47.53418
0.0785	57.70569
0.079	80.06287
0.0795	101.9165
0.08	82.17773
0.0805	30.41382
0.081	-3.42407
0.0815	-8.15735
0.082	11.78284
0.0825	14.40125
0.083	23.46497
0.0835	33.73718
0.084	57.00073
0.0845	72.61047
0.085	75.93384
0.0855	63.44604
0.086	25.27771
0.0865	-14.40125
0.087	-34.54285
0.0875	-32.12585
0.088	-30.31311
0.0885	-26.3855
0.089	-23.56567
0.0895	-34.94568
0.09	-60.22339
0.0905	-83.58765
0.091	-91.745
0.0915	-101.21155
0.092	-100.00305
0.0925	-105.54199
0.093	-97.78748
0.0935	-74.2218
0.094	-43.70728
0.0945	-29.10461
0.095	4.33044
0.0955	43.40515
0.096	67.27295
0.0965	82.78198
0.097	101.71509
0.0975	122.25952
0.098	124.67651
0.0985	97.68677
0.099	65.46021
0.0995	45.72144
0.1	9.56726
0.1005	-16.91895
0.101	-20.44373
0.1015	-40.08179
0.102	-70.69702
0.1025	-65.86304
0.103	-57.20215
0.1035	-43.90869
0.104	-44.41223
0.1045	-48.13843
0.105	-61.6333
0.1055	-63.04321
0.106	-50.2533
0.1065	-84.09119
0.107	-118.33191
0.1075	-134.94873
0.108	-129.30908
0.1085	-127.09351
0.109	-103.62854
0.1095	-82.58057
0.11	-73.31543
0.1105	-61.6333
0.111	-28.80249
0.1115	-17.32178
0.112	1.40991
0.1125	-2.41699
0.113	-5.0354
0.1135	7.65381
0.114	45.92285
0.1145	66.97083
0.115	66.56799
0.1155	38.47046
0.116	43.60657
0.1165	36.35559
0.117	43.40515
0.1175	83.58765
0.118	153.88184
0.1185	220.24841
0.119	288.93127
0.1195	301.51978
0.12	296.68579
0.1205	280.37109
0.121	255.19409
0.1215	213.90381
0.122	161.0321
0.1225	95.37048
0.123	16.51611
0.1235	-73.81897
0.124	-133.43811
0.1245	-169.49158
0.125	-161.33423
0.1255	-135.25085
0.126	-102.62146
0.1265	-72.00623
0.127	-44.21082
0.1275	-6.14319
0.128	3.52478
0.1285	4.73328
0.129	-11.07788
0.1295	-22.05505
0.13	-43.60657
0.1305	-74.92676
0.131	-72.00623
0.1315	-63.44604
0.132	-33.43506
0.1325	5.43823
0.133	21.14868
0.1335	36.75842
0.134	64.35242
0.1345	103.02429
0.135	130.21545
0.1355	129.20837
0.136	110.47668
0.1365	84.39331
0.137	45.62073
0.1375	19.94019
0.138	4.43115
0.1385	-17.22107
0.139	-32.52869
0.1395	-43.80798
0.14	-57.10144
0.1405	-37.46338
0.141	-16.11328
0.1415	-6.84814
0.142	1.00708
0.1425	7.45239
0.143	18.42957
0.1435	17.72461
0.144	-30.2124
0.1445	-61.73401
0.145	-63.84888
0.1455	-34.74426
0.146	-25.68054
0.1465	-48.74268
0.147	-80.76782
0.1475	-90.13367
0.148	-74.62463
0.1485	-55.2887
0.149	-28.29895
0.1495	1.51062
0.15	30.51453
0.1505	55.99365
0.151	68.07861
0.1515	54.0802
0.152	-0.40283
0.1525	-50.85754
0.153	-86.30676
0.1535	-105.94482
0.154	-141.59546
0.1545	-151.46484
0.155	-136.15723
0.1555	-103.02429
0.156	-54.28162
0.1565	-24.67346
0.157	10.77576
0.1575	52.56958
0.158	96.07544
0.1585	122.76306
0.159	117.12341
0.1595	48.94409
0.16	-0.60425
0.1605	3.8269
0.161	37.66479
0.1615	47.63489
0.162	51.36108
0.1625	50.75684
0.163	16.21399
0.1635	-17.92603
0.164	-30.71594
0.1645	-34.84497
0.165	-49.14551
0.1655	-69.1864
0.166	-71.7041
0.1665	-11.2793
0.167	54.38232
0.1675	89.52942
0.168	98.29102
0.1685	108.56323
0.169	96.7804
0.1695	82.58057
0.17	87.71667
0.1705	97.98889
0.171	85.40039
0.1715	61.23047
0.172	39.37683
0.1725	8.66089
0.173	-31.92444
0.1735	-72.61047
0.174	-66.46729
0.1745	-63.84888
0.175	-54.18091
0.1755	-53.77808
0.176	-55.99365
0.1765	-30.2124
0.177	0.70496
0.1775	39.67896
0.178	77.74658
0.1785	119.23828
0.179	121.05103
0.1795	83.48694
0.18	59.1156
0.1805	51.96533
0.181	34.44214
0.1815	9.26514
0.182	-18.8324
0.1825	-6.3446
0.183	23.46497
0.1835	39.67896
0.184	52.67029
0.1845	74.12109
0.185	70.59631
0.1855	63.84888
0.186	38.36975
0.1865	19.23523
0.187	6.3446
0.1875	3.32336
0.188	-12.89062
0.1885	-30.41382
0.189	-25.78125
0.1895	-15.71045
0.19	-6.44531
0.1905	-6.84814
0.191	12.18567
0.1915	42.7002
0.192	55.99365
0.1925	46.32568
0.193	40.08179
0.1935	27.89612
0.194	12.38708
0.1945	4.43115
0.195	6.74744
0.1955	9.66797
0.196	13.797
0.1965	13.19275
0.197	7.85522
0.1975	-8.56018
0.198	-50.354
0.1985	-71.09985
0.199	-66.16516
0.1995	-33.83789
0.2	-26.3855
0.2005	-89.328
0.201	-192.05017
0.2015	-256.30188
0.202	-262.54578
0.2025	-232.43408
0.203	-182.08008
0.2035	-113.59863
0.204	-16.51611
0.2045	84.49402
0.205	134.34448
0.2055	148.14148
0.206	116.51917
0.2065	26.68762
0.207	-52.8717
0.2075	-101.31226
0.208	-121.55457
0.2085	-98.59314
0.209	-58.10852
0.2095	15.00549
0.21	69.58923
0.2105	79.96216
0.211	98.0896
0.2115	110.07385
0.212	101.21155
0.2125	83.68835
0.213	17.01965
0.2135	-48.74268
0.214	-97.08252
0.2145	-144.71741
0.215	-168.78662
0.2155	-174.32556
0.216	-170.29724
0.2165	-168.58521
0.217	-141.19263
0.2175	-108.1604
0.218	-80.96924
0.2185	-61.93542
0.219	-33.43506
0.2195	-17.72461
0.22	-3.62549
0.2205	13.99841
0.221	68.28003
0.2215	115.31067
0.222	146.73157
0.2225	152.06909
0.223	153.17688
0.2235	167.37671
0.224	200.20752
0.2245	223.57178
0.225	215.91797
0.2255	201.81885
0.226	205.14221
0.2265	221.75903
0.227	218.93921
0.2275	194.46716
0.228	170.80078
0.2285	147.83936
0.229	123.66943
0.2295	92.95349
0.23	46.62781
0.2305	6.94885
0.231	-18.32886
0.2315	-36.4563
0.232	-52.56958
0.2325	-58.81348
0.233	-52.771
0.2335	-24.37134
0.234	-7.35168
0.2345	-15.40833
0.235	-19.83948
0.2355	-33.13293
0.236	-45.11719
0.2365	-62.03613
0.237	-86.10535
0.2375	-95.67261
0.238	-95.67261
0.2385	-79.45862
0.239	-68.07861
0.2395	-74.52393
0.24	-84.89685
0.2405	-74.32251
0.241	-56.39648
0.2415	-13.19275
0.242	29.80957
0.2425	70.59631
0.243	94.2627
0.2435	106.04553
0.244	112.69226
0.2445	114.505
0.245	112.08801
0.2455	73.41614
0.246	17.82532
0.2465	-47.23206
0.247	-113.49792
0.2475	-129.40979
0.248	-119.33899
0.2485	-89.12659
0.249	-69.28711
0.2495	-43.80798
0.25	-67.47437
0.2505	-92.44995
0.251	-104.13208
0.2515	-109.3689
0.252	-85.19897
0.2525	-54.58374
0.253	-67.07153
0.2535	-74.42322
0.254	-60.62622
0.2545	-37.36267
0.255	16.3147
0.2555	62.03613
0.256	83.08411
0.2565	99.49951
0.257	110.17456
0.2575	121.15173
0.258	121.55457
0.2585	112.69226
0.259	95.06836
0.2595	39.57825
0.26	7.04956
0.2605	7.65381
0.261	9.97009
0.2615	-4.73328
0.262	-38.36975
0.2625	-80.56641
0.263	-100.90942
0.2635	-79.2572
0.264	-48.74268
0.2645	0.90637
0.265	28.29895
0.2655	44.0094
0.266	43.10303
0.2665	48.84338
0.267	25.98267
0.2675	6.94885
0.268	10.37292
0.2685	5.53894
0.269	7.85522
0.2695	19.83948
0.27	37.06055
0.2705	53.37524
0.271	76.94092
0.2715	96.67969
0.272	129.81262
0.2725	166.0675
0.273	178.95813
0.2735	156.29883
0.274	108.96606
0.2745	75.22888
0.275	48.94409
0.2755	36.35559
0.276	41.39099
0.2765	47.03064
0.277	46.32568
0.2775	36.15417
0.278	24.97559
0.2785	34.34143
0.279	41.69312
0.2795	33.03223
0.28	30.11169
0.2805	16.61682
0.281	-6.44531
0.2815	-27.89612
0.282	-41.59241
0.2825	-58.91418
0.283	-75.32959
0.2835	-115.31067
0.284	-133.84094
0.2845	-134.04236
0.285	-85.90393
0.2855	-44.0094
0.286	7.65381
0.2865	36.85913
0.287	62.8418
0.2875	79.05579
0.288	104.73633
0.2885	127.49634
0.289	134.44519
0.2895	117.92908
0.29	83.78906
0.2905	46.32568
0.291	6.64673
0.2915	-40.68604
0.292	-68.88428
0.2925	-91.8457
0.293	-112.49084
0.2935	-128.40271
0.294	-114.00146
0.2945	-94.2627
0.295	-76.33667
0.2955	-60.4248
0.296	-47.23206
0.2965	-31.32019
0.297	-0.20142
0.2975	25.37842
0.298	20.74585
0.2985	-3.52478
0.299	-3.8269
0.2995	2.92053
0.3	4.43115
0.3005	-4.73328
0.301	-9.86938
0.3015	-6.54602
0.302	23.26355
0.3025	34.54285
0.303	-13.99841
0.3035	-53.57666
0.304	-72.50977
0.3045	-70.3949
0.305	-59.1156
0.3055	-81.27136
0.306	-195.47424
0.3065	-392.15698
0.307	-501.52588
0.3075	-468.89648
0.308	-371.71326
0.3085	-264.35852
0.309	-117.72766
0.3095	44.0094
0.31	185.00061
0.3105	280.77393
0.311	329.61731
0.3115	337.17041
0.312	308.56934
0.3125	259.52454
0.313	213.09814
0.3135	188.92822
0.314	160.72998
0.3145	129.10767
0.315	94.76624
0.3155	65.05737
0.316	51.36108
0.3165	46.22498
0.317	58.71277
0.3175	90.43579
0.318	112.28943
0.3185	106.9519
0.319	78.25012
0.3195	50.65613
0.32	40.58533
0.3205	47.8363
0.321	55.08728
0.3215	60.22339
0.322	47.63489
0.3225	35.34851
0.323	26.88904
0.3235	24.57275
0.324	30.51453
0.3245	14.50195
0.325	24.97559
0.3255	30.81665
0.326	48.94409
0.3265	60.12268
0.327	52.8717
0.3275	37.46338
0.328	31.4209
0.3285	15.00549
0.329	-1.10779
0.3295	-6.74744
0.33	22.05505
0.3305	59.92126
0.331	89.83154
0.3315	85.90393
0.332	62.53967
0.3325	47.7356
0.333	28.39966
0.3335	-8.05664
0.334	-36.55701
0.3345	-65.46021
0.335	-110.07385
0.3355	-128.10059
0.336	-117.52625
0.3365	-100.00305
0.337	-117.32483
0.3375	-157.60803
0.338	-178.35388
0.3385	-199.30115
0.339	-180.87158
0.3395	-122.96448
0.34	-67.97791
0.3405	-25.177
0.341	2.71912
0.3415	6.14319
0.342	5.13611
0.3425	11.78284
0.343	5.74036
0.3435	24.06921
0.344	54.38232
0.3445	80.86853
0.345	86.20605
0.3455	99.19739
0.346	105.6427
0.3465	80.86853
0.347	43.90869
0.3475	4.02832
0.348	-21.75293
0.3485	-50.354
0.349	-74.82605
0.3495	-90.93933
0.35	-106.14624
0.3505	-106.54907
0.351	-95.06836
0.3515	-70.69702
0.352	-26.08337
0.3525	31.11877
0.353	67.67578
0.3535	78.85437
0.354	85.5011
0.3545	97.68677
0.355	96.57898
0.3555	69.38782
0.356	-94.76624
0.3565	-260.43091
0.357	-357.41272
0.3575	-359.42688
0.358	-334.75342
0.3585	-288.22632
0.359	-223.26965
0.3595	-126.28784
0.36	-13.99841
0.3605	97.08252
0.361	178.5553
0.3615	221.65833
0.362	229.01001
0.3625	223.57178
0.363	207.15637
0.3635	198.6969
0.364	180.46875
0.3645	153.78113
0.365	145.52307
0.3655	150.55847
0.366	151.16272
0.3665	167.47742
0.367	137.36572
0.3675	113.49792
0.368	114.4043
0.3685	119.13757
0.369	112.08801
0.3695	94.16199
0.37	74.2218
0.3705	49.44763
0.371	-19.23523
0.3715	-40.1825
0.372	-21.55151
0.3725	32.32727
0.373	69.1864
0.3735	87.01172
0.374	80.56641
0.3745	62.43896
0.375	33.53577
0.3755	15.91187
0.376	-16.11328
0.3765	-47.53418
0.377	-76.23596
0.3775	-116.01562
0.378	-154.58679
0.3785	-163.04626
0.379	-124.27368
0.3795	-79.15649
0.38	-45.41931
0.3805	-20.34302
0.381	16.21399
0.3815	26.48621
0.382	40.78674
0.3825	55.18799
0.383	64.85596
0.3835	72.71118
0.384	76.94092
0.3845	80.26428
0.385	83.18481
0.3855	90.5365
0.386	75.83313
0.3865	74.32251
0.387	92.14783
0.3875	91.94641
0.388	90.73792
0.3885	73.61755
0.389	48.94409
0.3895	-5.33752
0.39	-40.58533
0.3905	-62.64038
0.391	-60.22339
0.3915	-51.05896
0.392	-56.79932
0.3925	-56.09436
0.393	-41.4917
0.3935	-27.89612
0.394	-21.65222
0.3945	-14.09912
0.395	-9.26514
0.3955	-24.87488
0.396	-43.60657
0.3965	-44.11011
0.397	-45.92285
0.3975	-54.68445
0.398	-72.71118
0.3985	-83.48694
0.399	-98.79456
0.3995	-116.72058
0.4	-125.38147
0.4005	-123.06519
0.401	-106.64978
0.4015	-93.96057
0.402	-96.37756
0.4025	-100.80872
0.403	-96.17615
0.4035	-117.02271
0.404	-129.00696
0.4045	-117.22412
0.405	-88.22021
0.4055	-46.22498
0.406	-12.08496
0.4065	7.04956
0.407	6.04248
0.4075	-21.14868
0.408	-57.20215
0.4085	-86.30676
0.409	-108.66394
0.4095	-110.47668
0.41	-101.31226
0.4105	-76.03455
0.411	-37.16125
0.4115	-4.73328
0.412	22.55859
0.4125	43.10303
0.413	41.79382
0.4135	-53.27454
0.414	-124.67651
0.4145	-156.39954
0.415	-130.01404
0.4155	-92.04712
0.416	-12.68921
0.4165	94.3634
0.417	171.10291
0.4175	219.54346
0.418	248.64807
0.4185	248.04382
0.419	230.62134
0.4195	221.3562
0.42	215.0116
0.4205	208.56628
0.421	222.16187
0.4215	248.14453
0.422	251.4679
0.4225	207.25708
0.423	124.97864
0.4235	60.3241
0.424	20.74585
0.4245	-32.83081
0.425	-52.56958
0.4255	-52.8717
0.426	-35.14709
0.4265	-21.24939
0.427	-14.90479
0.4275	0.80566
0.428	10.17151
0.4285	8.15735
0.429	-4.73328
0.4295	-29.60815
0.43	-59.82056
0.4305	-43.70728
0.431	-23.26355
0.4315	-12.78992
0.432	-6.2439
0.4325	14.60266
0.433	29.30603
0.4335	59.92126
0.434	90.73792
0.4345	107.25403
0.435	100.90942
0.4355	87.81738
0.436	82.9834
0.4365	63.34534
0.437	22.45789
0.4375	6.54602
0.438	-14.40125
0.4385	-30.91736
0.439	-35.95276
0.4395	-31.92444
0.44	-26.88904
0.4405	-23.66638
0.441	-34.54285
0.4415	-42.19666
0.442	-41.99524
0.4425	-36.85913
0.443	-22.45789
0.4435	-11.48071
0.444	-18.32886
0.4445	-14.09912
0.445	-5.13611
0.4455	6.84814
0.446	21.95435
0.4465	32.93152
0.447	48.03772
0.4475	60.02197
0.448	49.74976
0.4485	27.59399
0.449	12.08496
0.4495	6.2439
0.45	1.51062
0.4505	-11.07788
0.451	-23.76709
0.4515	-30.01099
0.452	-20.04089
0.4525	-21.04797
0.453	-23.8678
0.4535	-34.14001
0.454	-44.11011
0.4545	-52.36816
0.455	-58.30994
0.4555	-76.43738
0.456	-69.89136
0.4565	-32.93152
0.457	-3.7262
0.4575	-0.60425
0.458	-6.44531
0.4585	-6.04248
0.459	-19.43665
0.4595	-29.40674
0.46	10.0708
0.4605	50.95825
0.461	59.1156
0.4615	50.75684
0.462	34.74426
0.4625	-3.52478
0.463	-89.52942
0.4635	-163.24768
0.464	-248.9502
0.4645	-315.21606
0.465	-335.45837
0.4655	-313.1012
0.466	-264.86206
0.4665	-213.29956
0.467	-155.79529
0.4675	-65.86304
0.468	35.75134
0.4685	110.27527
0.469	155.896
0.4695	178.65601
0.47	175.23193
0.4705	177.14539
0.471	175.23193
0.4715	160.83069
0.472	150.25635
0.4725	154.48608
0.473	168.58521
0.4735	203.22876
0.474	222.96753
0.4745	251.66931
0.475	273.82507
0.4755	268.18542
0.476	228.9093
0.4765	159.92432
0.477	82.58057
0.4775	-11.38
0.478	-69.68994
0.4785	-80.56641
0.479	-88.42163
0.4795	-90.13367
0.48	-99.70093
0.4805	-94.56482
0.481	-65.76233
0.4815	-33.03223
0.482	-55.69153
0.4825	-120.54749
0.483	-148.4436
0.4835	-147.83936
0.484	-129.91333
0.4845	-93.35632
0.485	-49.54834
0.4855	8.56018
0.486	58.81348
0.4865	96.47827
0.487	143.20679
0.4875	173.21777
0.488	196.68274
0.4885	203.63159
0.489	179.56238
0.4895	135.55298
0.49	110.07385
0.4905	86.70959
0.491	76.63879
0.4915	64.65454
0.492	68.28003
0.4925	62.64038
0.493	49.44763
0.4935	8.25806
0.494	-29.40674
0.4945	-63.44604
0.495	-99.49951
0.4955	-126.38855
0.496	-136.25793
0.4965	-128.10059
0.497	-102.42004
0.4975	-77.54517
0.498	-58.30994
0.4985	-46.92993
0.499	-55.2887
0.4995	-38.16833
0.5	7.35168
0.5005	37.36267
0.501	62.64038
0.5015	70.99915
0.502	67.67578
0.5025	17.72461
0.503	-43.10303
0.5035	-81.17065
0.504	-102.82288
0.5045	-96.37756
0.505	-90.83862
0.5055	-116.31775
0.506	-138.07068
0.5065	-145.32166
0.507	-123.77014
0.5075	-77.948
0.508	-31.72302
0.5085	4.53186
0.509	26.3855
0.5095	44.71436
0.51	67.17224
0.5105	86.10535
0.511	89.22729
0.5115	67.47437
0.512	39.98108
0.5125	28.9032
0.513	-20.1416
0.5135	-59.21631
0.514	-93.65845
0.5145	-88.52234
0.515	-104.13208
0.5155	-97.68677
0.516	-60.52551
0.5165	-4.93469
0.517	41.59241
0.5175	98.49243
0.518	150.05493
0.5185	165.66467
0.519	186.00769
0.5195	188.02185
0.52	194.46716
0.5205	177.24609
0.521	151.36414
0.5215	113.69934
0.522	92.14783
0.5225	77.34375
0.523	58.10852
0.5235	47.7356
0.524	43.70728
0.5245	50.45471
0.525	43.40515
0.5255	38.67188
0.526	33.53577
0.5265	42.39807
0.527	48.84338
0.5275	21.55151
0.528	-8.66089
0.5285	-28.9032
0.529	-39.47754
0.5295	-37.06055
0.53	-32.12585
0.5305	-23.46497
0.531	-6.64673
0.5315	26.98975
0.532	39.37683
0.5325	18.8324
0.533	-13.49487
0.5335	-48.23914
0.534	-56.90002
0.5345	-63.74817
0.535	-63.94958
0.5355	-76.13525
0.536	-64.65454
0.5365	-50.05188
0.537	-54.68445
0.5375	-75.4303
0.538	-107.25403
0.5385	-127.49634
0.539	-151.16272
0.5395	-173.11707
0.54	-189.9353
0.5405	-195.47424
0.541	-190.13672
0.5415	-182.58362
0.542	-168.28308
0.5425	-132.73315
0.543	-87.11243
0.5435	-38.77258
0.544	4.43115
0.5445	19.43665
0.545	26.68762
0.5455	26.08337
0.546	37.7655
0.5465	59.41772
0.547	92.65137
0.5475	127.09351
0.548	147.73865
0.5485	163.4491
0.549	176.23901
0.5495	173.21777
0.55	153.98254
0.5505	117.52625
0.551	67.07153
0.5515	3.22266
0.552	-73.51685
0.5525	-109.3689
0.553	-90.33508
0.5535	-38.16833
0.554	5.23682
0.5545	37.96692
0.555	58.00781
0.5555	62.74109
0.556	75.22888
0.5565	92.14783
0.557	103.32642
0.5575	117.12341
0.558	158.01086
0.5585	192.453
0.559	209.67407
0.5595	164.7583
0.56	107.15332
0.5605	39.57825
0.561	10.97717
0.5615	6.14319
0.562	8.96301
0.5625	-13.19275
0.563	-46.02356
0.5635	-46.32568
0.564	-37.16125
0.5645	-29.50745
0.565	-49.0448
0.5655	-74.72534
0.566	-111.18164
0.5665	-162.44202
0.567	-182.28149
0.5675	-166.16821
0.568	-142.40112
0.5685	-116.31775
0.569	-89.83154
0.5695	-44.0094
0.57	14.40125
0.5705	72.40906
0.571	91.44287
0.5715	76.84021
0.572	38.36975
0.5725	25.27771
0.573	10.67505
0.5735	4.43115
0.574	-1.71204
0.5745	-7.5531
0.575	-12.48779
0.5755	-4.93469
0.576	13.19275
0.5765	22.6593
0.577	14.40125
0.5775	4.22974
0.578	10.17151
0.5785	24.47205
0.579	49.85046
0.5795	59.92126
0.58	71.80481
0.5805	92.24854
0.581	125.38147
0.5815	130.01404
0.582	99.60022
0.5825	39.07471
0.583	-6.04248
0.5835	-1.2085
0.584	19.43665
0.5845	14.90479
0.585	-8.35876
0.5855	-34.54285
0.586	-56.09436
0.5865	-66.56799
0.587	-55.79224
0.5875	-43.10303
0.588	-19.73877
0.5885	-3.32336
0.589	-1.61133
0.5895	6.44531
0.59	7.15027
0.5905	11.88354
0.591	33.83789
0.5915	54.38232
0.592	80.66711
0.5925	97.58606
0.593	90.23438
0.5935	67.57507
0.594	23.8678
0.5945	-30.61523
0.595	-87.61597
0.5955	-124.57581
0.596	-120.84961
0.5965	-98.99597
0.597	-76.7395
0.5975	-58.81348
0.598	-64.05029
0.5985	-47.53418
0.599	-9.76868
0.5995	42.09595
0.6	76.94092
0.6005	95.16907
0.601	110.17456
0.6015	119.84253
0.602	125.98572
0.6025	125.98572
0.603	103.72925
0.6035	98.59314
0.604	85.19897
0.6045	62.74109
0.605	39.98108
0.6055	7.75452
0.606	-23.26355
0.6065	-13.39417
0.607	0.20142
0.6075	-5.94177
0.608	-63.24463
0.6085	-101.9165
0.609	-115.61279
0.6095	-103.42712
0.61	-82.27844
0.6105	-58.71277
0.611	-35.2478
0.6115	-17.32178
0.612	-9.46655
0.6125	0.50354
0.613	2.21558
0.6135	12.5885
0.614	31.82373
0.6145	38.974
0.615	48.54126
0.6155	66.06445
0.616	71.80481
0.6165	70.99915
0.617	62.53967
0.6175	40.2832
0.618	24.27063
0.6185	-3.22266
0.619	-20.84656
0.6195	-23.76709
0.62	-20.54443
0.6205	-40.38391
0.621	-58.61206
0.6215	-101.01013
0.622	-166.36963
0.6225	-186.71265
0.623	-167.77954
0.6235	-137.36572
0.624	-145.62378
0.6245	-152.97546
0.625	-140.68909
0.6255	-105.94482
0.626	-68.28003
0.6265	-25.47913
0.627	24.97559
0.6275	68.78357
0.628	117.02271
0.6285	152.27051
0.629	174.92981
0.6295	170.29724
0.63	159.62219
0.6305	151.86768
0.631	144.31458
0.6315	142.50183
0.632	149.24927
0.6325	137.76855
0.633	133.03528
0.6335	132.93457
0.634	113.69934
0.6345	66.6687
0.635	27.29187
0.6355	-5.74036
0.636	-25.68054
0.6365	-12.78992
0.637	-2.41699
0.6375	-27.79541
0.638	-45.92285
0.6385	-52.26746
0.639	-71.30127
0.6395	-94.66553
0.64	-82.68127
0.6405	-59.51843
0.641	-49.64905
0.6415	-63.44604
0.642	-63.84888
0.6425	-76.03455
0.643	-100.20447
0.6435	-104.23279
0.644	-92.95349
0.6445	-72.50977
0.645	-57.40356
0.6455	-37.26196
0.646	-45.82214
0.6465	-19.73877
0.647	22.55859
0.6475	73.21472
0.648	127.79846
0.6485	148.04077
0.649	149.55139
0.6495	119.54041
0.65	93.45703
0.6505	66.87012
0.651	4.53186
0.6515	-42.09595
0.652	-63.64746
0.6525	-42.7002
0.653	8.15735
0.6535	55.79224
0.654	69.99207
0.6545	64.95667
0.655	61.12976
0.6555	67.8772
0.656	79.05579
0.6565	73.61755
0.657	57.20215
0.6575	56.49719
0.658	48.84338
0.6585	48.13843
0.659	49.14551
0.6595	31.21948
0.66	-2.71912
0.6605	-32.62939
0.661	-43.40515
0.6615	-37.56409
0.662	-25.37842
0.6625	-2.61841
0.663	18.12744
0.6635	23.36426
0.664	22.55859
0.6645	-5.23682
0.665	-53.97949
0.6655	-93.15491
0.666	-125.18005
0.6665	-137.16431
0.667	-146.83228
0.6675	-112.08801
0.668	-46.32568
0.6685	31.52161
0.669	83.88977
0.6695	108.66394
0.67	107.25403
0.6705	99.80164
0.671	87.71667
0.6715	62.53967
0.672	16.3147
0.6725	-23.46497
0.673	-42.19666
0.6735	-70.79773
0.674	-104.73633
0.6745	-119.74182
0.675	-125.98572
0.6755	-103.125
0.676	-73.51685
0.6765	-48.23914
0.677	-16.01257
0.6775	10.27222
0.678	29.10461
0.6785	39.07471
0.679	31.62231
0.6795	7.35168
0.68	-9.46655
0.6805	-2.81982
0.681	-26.08337
0.6815	-64.95667
0.682	-102.82288
0.6825	-130.61829
0.683	-148.94714
0.6835	-119.84253
0.684	-66.76941
0.6845	-34.84497
0.685	-12.78992
0.6855	12.48779
0.686	44.61365
0.6865	59.21631
0.687	62.8418
0.6875	65.15808
0.688	60.62622
0.6885	68.07861
0.689	77.84729
0.6895	91.44287
0.69	113.49792
0.6905	135.95581
0.691	136.35864
0.6915	127.99988
0.692	128.80554
0.6925	131.02112
0.693	109.26819
0.6935	84.89685
0.694	77.948
0.6945	82.78198
0.695	77.04163
0.6955	66.06445
0.696	48.33984
0.6965	43.50586
0.697	44.0094
0.6975	48.13843
0.698	12.68921
0.6985	-59.01489
0.699	-114.60571
0.6995	-146.22803
0.7	-140.38696
0.7005	-105.94482
0.701	-52.26746
0.7015	0.50354
0.702	35.75134
0.7025	62.8418
0.703	112.28943
0.7035	171.70715
0.704	193.86292
0.7045	191.24451
0.705	178.85742
0.7055	152.47192
0.706	94.06128
0.7065	44.31152
0.707	-37.16125
0.7075	-92.85278
0.708	-91.24146
0.7085	-67.57507
0.709	-29.00391
0.7095	-13.69629
0.71	9.46655
0.7105	27.89612
0.711	15.00549
0.7115	31.52161
0.712	35.65063
0.7125	28.80249
0.713	-2.21558
0.7135	-23.8678
0.714	-45.3186
0.7145	-50.05188
0.715	-40.2832
0.7155	-14.19983
0.716	-11.38
0.7165	-12.5885
0.717	4.33044
0.7175	26.18408
0.718	35.14709
0.7185	40.98816
0.719	53.87878
0.7195	49.54834
0.72	38.26904
0.7205	-0.20142
0.721	-42.59949
0.7215	-81.97632
0.722	-95.16907
0.7225	-104.03137
0.723	-87.01172
0.7235	-86.8103
0.724	-95.87402
0.7245	-112.89368
0.725	-159.62219
0.7255	-210.0769
0.726	-201.51672
0.7265	-176.54114
0.727	-145.52307
0.7275	-131.72607
0.728	-104.23279
0.7285	-97.38464
0.729	-108.05969
0.7295	-106.34766
0.73	-72.71118
0.7305	-45.2179
0.731	-33.33435
0.7315	-23.56567
0.732	1.40991
0.7325	48.33984
0.733	123.06519
0.7335	202.22168
0.734	241.09497
0.7345	241.79993
0.735	234.75037
0.7355	228.60718
0.736	240.08789
0.7365	233.9447
0.737	204.84009
0.7375	168.08167
0.738	137.16431
0.7385	119.03687
0.739	111.58447
0.7395	95.87402
0.74	66.26587
0.7405	18.12744
0.741	-91.34216
0.7415	-176.13831
0.742	-215.71655
0.7425	-213.09814
0.743	-191.64734
0.7435	-171.60645
0.744	-149.45068
0.7445	-103.93066
0.745	-53.67737
0.7455	11.68213
0.746	51.86462
0.7465	63.84888
0.747	62.33826
0.7475	52.46887
0.748	63.54675
0.7485	102.01721
0.749	120.24536
0.7495	124.07227
0.75	105.34058
0.7505	76.7395
0.751	57.8064
0.7515	52.56958
0.752	35.04639
0.7525	6.84814
0.753	11.2793
0.7535	17.92603
0.754	30.31311
0.7545	6.54602
0.755	-25.78125
0.7555	-24.87488
0.756	-24.16992
0.7565	-21.95435
0.757	-20.64514
0.7575	0.90637
0.758	18.8324
0.7585	35.95276
0.759	37.06055
0.7595	43.30444
0.76	47.23206
0.7605	56.69861
0.761	76.7395
0.7615	89.52942
0.762	59.21631
0.7625	-7.95593
0.763	-59.71985
0.7635	-60.92834
0.764	-32.52869
0.7645	-0.60425
0.765	27.29187
0.7655	54.18091
0.766	85.5011
0.7665	100.90942
0.767	92.75208
0.7675	78.85437
0.768	62.33826
0.7685	39.98108
0.769	19.53735
0.7695	-16.3147
0.77	-31.82373
0.7705	-45.52002
0.771	-49.34692
0.7715	-43.00232
0.772	-25.37842
0.7725	-17.32178
0.773	-11.17859
0.7735	-0.80566
0.774	-4.93469
0.7745	-21.3501
0.775	-69.38782
0.7755	-114.20288
0.776	-115.31067
0.7765	-123.56873
0.777	-145.42236
0.7775	-152.1698
0.778	-145.32166
0.7785	-136.05652
0.779	-122.76306
0.7795	-97.98889
0.78	-63.84888
0.7805	-80.4657
0.781	-146.73157
0.7815	-211.18469
0.782	-229.21143
0.7825	-202.92664
0.783	-169.18945
0.7835	-110.17456
0.784	-72.40906
0.7845	-54.0802
0.785	-51.5625
0.7855	-71.30127
0.786	-71.90552
0.7865	-91.24146
0.787	-94.66553
0.7875	-69.1864
0.788	-10.57434
0.7885	40.08179
0.789	72.50977
0.7895	60.4248
0.79	38.57117
0.7905	34.34143
0.791	43.20374
0.7915	67.67578
0.792	120.95032
0.7925	181.27441
0.793	234.64966
0.7935	274.22791
0.794	278.15552
0.7945	266.5741
0.795	264.96277
0.7955	269.99817
0.796	290.94543
0.7965	315.31677
0.797	321.35925
0.7975	297.39075
0.798	258.71887
0.7985	213.19885
0.799	163.4491
0.7995	96.8811
0.8	55.79224
0.8005	66.97083
0.801	67.67578
0.8015	61.83472
0.802	41.39099
0.8025	-0.90637
0.803	-23.66638
0.8035	-74.72534
0.804	-126.08643
0.8045	-171.20361
0.805	-222.66541
0.8055	-246.63391
0.806	-225.0824
0.8065	-183.08716
0.807	-136.96289
0.8075	-73.51685
0.808	-5.43823
0.8085	49.44763
0.809	97.08252
0.8095	116.41846
0.81	104.63562
0.8105	73.11401
0.811	39.98108
0.8115	1.81274
0.812	-17.32178
0.8125	-9.97009
0.813	-12.08496
0.8135	-50.2533
0.814	-132.33032
0.8145	-184.19495
0.815	-179.05884
0.8155	-157.60803
0.816	-126.69067
0.8165	-86.30676
0.817	-53.97949
0.8175	-25.98267
0.818	5.84106
0.8185	43.40515
0.819	68.28003
0.8195	92.85278
0.82	113.09509
0.8205	121.15173
0.821	129.5105
0.8215	113.49792
0.822	101.41296
0.8225	95.67261
0.823	75.93384
0.8235	54.38232
0.824	43.70728
0.8245	32.32727
0.825	3.32336
0.8255	-41.29028
0.826	-45.52002
0.8265	-52.97241
0.827	-55.79224
0.8275	-77.14233
0.828	-88.32092
0.8285	-99.90234
0.829	-105.03845
0.8295	-85.40039
0.83	-60.12268
0.8305	-48.03772
0.831	-47.13135
0.8315	-38.36975
0.832	-34.54285
0.8325	-48.13843
0.833	-64.75525
0.8335	-75.12817
0.834	-68.78357
0.8345	-44.11011
0.835	-13.59558
0.8355	15.91187
0.836	23.76709
0.8365	1.91345
0.837	-40.98816
0.8375	-96.07544
0.838	-143.00537
0.8385	-159.82361
0.839	-160.52856
0.8395	-117.72766
0.84	-57.8064
0.8405	0.80566
0.841	50.2533
0.8415	61.93542
0.842	64.45312
0.8425	78.85437
0.843	108.26111
0.8435	128.80554
0.844	114.00146
0.8445	96.47827
0.845	76.23596
0.8455	42.59949
0.846	42.8009
0.8465	48.33984
0.847	52.771
0.8475	48.03772
0.848	15.00549
0.8485	-51.86462
0.849	-61.6333
0.8495	-3.32336
0.85	70.49561
0.8505	123.2666
0.851	116.51917
0.8515	80.4657
0.852	67.97791
0.8525	84.49402
0.853	100.40588
0.8535	90.93933
0.854	56.19507
0.8545	4.33044
0.855	-27.39258
0.8555	-46.42639
0.856	-62.8418
0.8565	-63.04321
0.857	-51.46179
0.8575	-40.78674
0.858	-19.83948
0.8585	-29.80957
0.859	-41.4917
0.8595	-51.36108
0.86	-58.20923
0.8605	-28.19824
0.861	21.65222
0.8615	68.88428
0.862	82.27844
0.8625	56.39648
0.863	19.03381
0.8635	16.71753
0.864	10.67505
0.8645	7.65381
0.865	8.56018
0.8655	8.15735
0.866	7.85522
0.8665	15.50903
0.867	12.78992
0.8675	25.27771
0.868	39.47754
0.8685	39.27612
0.869	21.95435
0.8695	13.59558
0.87	18.73169
0.8705	19.33594
0.871	40.2832
0.8715	65.56091
0.872	74.52393
0.8725	75.93384
0.873	81.67419
0.8735	82.68127
0.874	55.79224
0.8745	-27.6947
0.875	-100.70801
0.8755	-119.94324
0.876	-95.47119
0.8765	-41.18958
0.877	-2.81982
0.8775	-21.85364
0.878	-36.4563
0.8785	0.70496
0.879	47.93701
0.8795	79.2572
0.88	93.0542
0.8805	98.89526
0.881	103.93066
0.8815	94.56482
0.882	89.63013
0.8825	89.63013
0.883	68.68286
0.8835	40.58533
0.884	8.45947
0.8845	-25.37842
0.885	-53.67737
0.8855	-95.87402
0.886	-104.13208
0.8865	-116.922
0.887	-134.44519
0.8875	-140.68909
0.888	-143.3075
0.8885	-131.72607
0.889	-106.54907
0.8895	-61.73401
0.89	-26.68762
0.8905	2.92053
0.891	2.41699
0.8915	-27.99683
0.892	-34.54285
0.8925	-28.29895
0.893	-9.36584
0.8935	5.53894
0.894	3.12195
0.8945	-0.80566
0.895	5.84106
0.8955	20.04089
0.896	49.14551
0.8965	60.22339
0.897	53.67737
0.8975	32.62939
0.898	22.35718
0.8985	26.28479
0.899	44.61365
0.8995	69.48853
0.9	82.78198
0.9005	86.60889
0.901	89.02588
0.9015	107.75757
0.902	117.52625
0.9025	106.34766
0.903	14.80408
0.9035	-75.22888
0.904	-113.59863
0.9045	-123.66943
0.905	-123.46802
0.9055	-121.05103
0.906	-98.79456
0.9065	-65.05737
0.907	-20.94727
0.9075	29.40674
0.908	78.04871
0.9085	109.67102
0.909	118.02979
0.9095	90.63721
0.91	78.14941
0.9105	96.8811
0.911	142.40112
0.9115	174.92981
0.912	137.36572
0.9125	74.32251
0.913	17.01965
0.9135	-60.52551
0.914	-109.26819
0.9145	-127.89917
0.915	-118.13049
0.9155	-84.79614
0.916	-67.37366
0.9165	-60.22339
0.917	-60.12268
0.9175	-64.35242
0.918	-45.62073
0.9185	-22.25647
0.919	12.89062
0.9195	42.39807
0.92	53.17383
0.9205	58.10852
0.921	66.36658
0.9215	77.24304
0.922	83.28552
0.9225	72.30835
0.923	51.15967
0.9235	12.78992
0.924	-25.57983
0.9245	47.7356
0.925	154.58679
0.9255	232.83691
0.926	233.13904
0.9265	200.61035
0.927	156.39954
0.9275	102.82288
0.928	58.81348
0.9285	39.77966
0.929	8.15735
0.9295	-32.52869
0.93	-81.57349
0.9305	-111.9873
0.931	-127.69775
0.9315	-134.84802
0.932	-157.70874
0.9325	-178.45459
0.933	-190.03601
0.9335	-177.3468
0.934	-142.60254
0.9345	-79.76074
0.935	-27.99683
0.9355	2.81982
0.936	32.52869
0.9365	47.13135
0.937	55.79224
0.9375	46.82922
0.938	-6.74744
0.9385	-94.16199
0.939	-163.14697
0.9395	-221.45691
0.94	-244.82117
0.9405	-224.67957
0.941	-205.34363
0.9415	-197.4884
0.942	-220.44983
0.9425	-235.95886
0.943	-220.34912
0.9435	-173.92273
0.944	-116.21704
0.9445	-59.71985
0.945	5.43823
0.9455	65.66162
0.946	107.85828
0.9465	157.2052
0.947	181.17371
0.9475	184.49707
0.948	188.32397
0.9485	197.08557
0.949	202.5238
0.9495	184.29565
0.95	162.54272
0.9505	125.68359
0.951	107.75757
0.9515	121.05103
0.952	120.7489
0.9525	83.48694
0.953	10.47363
0.9535	-58.20923
0.954	-77.54517
0.9545	-75.93384
0.955	-41.59241
0.9555	-0.20142
0.956	20.74585
0.9565	46.12427
0.957	61.93542
0.9575	67.27295
0.958	74.92676
0.9585	77.948
0.959	57.00073
0.9595	43.70728
0.96	48.23914
0.9605	55.3894
0.961	78.35083
0.9615	60.52551
0.962	41.79382
0.9625	22.35718
0.963	-9.16443
0.9635	-6.04248
0.964	36.75842
0.9645	66.26587
0.965	80.26428
0.9655	89.22729
0.966	112.49084
0.9665	126.18713
0.967	128.40271
0.9675	109.67102
0.968	82.17773
0.9685	56.09436
0.969	25.68054
0.9695	49.95117
0.97	110.47668
0.9705	147.23511
0.971	168.88733
0.9715	167.57812
0.972	132.73315
0.9725	83.48694
0.973	40.08179
0.9735	-1.61133
0.974	-51.36108
0.9745	-87.31384
0.975	-111.9873
0.9755	-129.00696
0.976	-134.64661
0.9765	-144.51599
0.977	-149.85352
0.9775	-154.18396
0.978	-175.03052
0.9785	-166.67175
0.979	-146.42944
0.9795	-101.21155
0.98	-66.26587
0.9805	-8.15735
0.981	36.95984
0.9815	41.08887
0.982	13.29346
0.9825	-0.50354
0.983	-18.02673
0.9835	-22.15576
0.984	-18.63098
0.9845	10.17151
0.985	21.14868
0.9855	20.94727
0.986	17.22107
0.9865	16.41541
0.987	-3.42407
0.9875	-37.36267
0.988	-62.9425
0.9885	-86.70959
0.989	-111.08093
0.9895	-115.81421
0.99	-88.52234
0.9905	-54.0802
0.991	-16.01257
0.9915	-0.40283
0.992	19.73877
0.9925	27.6947
0.993	25.78125
0.9935	-7.75452
0.994	-47.13135
0.9945	-64.151
0.995	-59.61914
0.9955	-48.54126
0.996	-30.2124
0.9965	-7.95593
0.997	-18.93311
0.9975	-79.2572
0.998	-116.01562
0.9985	-135.65369
0.999	-116.01562
0.9995	-83.08411
1	-57.50427
1.0005	-21.55151
1.001	33.03223
1.0015	86.60889
1.002	106.44836
1.0025	121.35315
1.003	99.60022
1.0035	50.45471
1.004	6.74744
1.0045	0.10071
1.005	10.17151
1.0055	-3.92761
1.006	-35.34851
1.0065	-32.12585
1.007	6.64673
1.0075	51.5625
1.008	86.50818
1.0085	97.48535
1.009	98.49243
1.0095	106.8512
1.01	118.73474
1.0105	125.88501
1.011	114.80713
1.0115	97.28394
1.012	58.00781
1.0125	-1.2085
1.013	-5.0354
1.0135	13.19275
1.014	23.46497
1.0145	-1.91345
1.015	1.61133
1.0155	43.30444
1.016	91.44287
1.0165	147.53723
1.017	155.19104
1.0175	129.71191
1.018	86.10535
1.0185	58.30994
1.019	40.58533
1.0195	27.19116
1.02	35.14709
1.0205	23.66638
1.021	15.30762
1.0215	6.2439
1.022	-0.40283
1.0225	8.25806
1.023	21.45081
1.0235	32.62939
1.024	55.59082
1.0245	52.8717
1.025	23.16284
1.0255	1.81274
1.026	6.3446
1.0265	22.96143
1.027	22.25647
1.0275	10.27222
1.028	-6.2439
1.0285	-27.59399
1.029	-47.63489
1.0295	-68.07861
1.03	-83.68835
1.0305	-82.58057
1.031	-66.56799
1.0315	-42.19666
1.032	-34.74426
1.0325	-42.8009
1.033	-69.48853
1.0335	-78.75366
1.034	-71.7041
1.0345	-59.1156
1.035	-55.69153
1.0355	-58.00781
1.036	-18.32886
1.0365	19.13452
1.037	27.39258
1.0375	33.23364
1.038	43.60657
1.0385	68.98499
1.039	77.948
1.0395	69.58923
1.04	65.76233
1.0405	48.64197
1.041	39.07471
1.0415	45.72144
1.042	50.65613
1.0425	52.06604
1.043	41.59241
1.0435	25.177
1.044	-11.88354
1.0445	-61.12976
1.045	-118.43262
1.0455	-147.53723
1.046	-140.8905
1.0465	-121.75598
1.047	-92.85278
1.0475	-33.73718
1.048	30.11169
1.0485	66.36658
1.049	92.95349
1.0495	87.41455
1.05	73.71826
1.0505	84.99756
1.051	78.85437
1.0515	59.01489
1.052	29.30603
1.0525	26.88904
1.053	25.68054
1.0535	37.66479
1.054	39.27612
1.0545	43.60657
1.055	42.90161
1.0555	14.80408
1.056	-11.07788
1.0565	-54.78516
1.057	-93.65845
1.0575	-156.80237
1.058	-234.64966
1.0585	-233.44116
1.059	-189.53247
1.0595	-126.28784
1.06	-77.24304
1.0605	-50.15259
1.061	-16.41541
1.0615	7.85522
1.062	41.69312
1.0625	52.46887
1.063	52.8717
1.0635	45.3186
1.064	9.16443
1.0645	-52.97241
1.065	-81.37207
1.0655	-72.20764
1.066	-46.82922
1.0665	-24.06921
1.067	5.84106
1.0675	43.00232
1.068	98.89526
1.0685	176.33972
1.069	257.71179
1.0695	306.45447
1.07	319.64722
1.0705	303.93677
1.071	251.77002
1.0715	207.4585
1.072	188.6261
1.0725	173.11707
1.073	152.87476
1.0735	110.77881
1.074	45.41931
1.0745	-19.13452
1.075	-55.18799
1.0755	-72.20764
1.076	-92.95349
1.0765	-105.44128
1.077	-87.71667
1.0775	-73.31543
1.078	-69.89136
1.0785	-78.55225
1.079	-98.69385
1.0795	-109.3689
1.08	-103.02429
1.0805	-98.69385
1.081	-76.84021
1.0815	-41.18958
1.082	-19.73877
1.0825	-12.18567
1.083	-41.4917
1.0835	-57.60498
1.084	-65.05737
1.0845	-57.8064
1.085	-42.59949
1.0855	-33.83789
1.086	-49.54834
1.0865	-66.97083
1.087	-60.82764
1.0875	-47.7356
1.088	-5.84106
1.0885	31.82373
1.089	46.02356
1.0895	20.1416
1.09	5.94177
1.0905	29.60815
1.091	64.05029
1.0915	55.99365
1.092	48.54126
1.0925	71.20056
1.093	100.70801
1.0935	90.63721
1.094	71.80481
1.0945	51.96533
1.095	47.23206
1.0955	47.7356
1.096	47.53418
1.0965	53.07312
1.097	44.11011
1.0975	61.53259
1.098	92.14783
1.0985	109.26819
1.099	111.18164
1.0995	88.92517
1.1	61.53259
1.1005	20.34302
1.101	-18.93311
1.1015	-68.78357
1.102	-144.91882
1.1025	-210.27832
1.103	-249.85657
1.1035	-243.20984
1.104	-216.72363
1.1045	-196.88416
1.105	-173.82202
1.1055	-141.49475
1.106	-103.32642
1.1065	-80.06287
1.107	-96.37756
1.1075	-110.17456
1.108	-106.44836
1.1085	-94.2627
1.109	-59.82056
1.1095	-26.68762
1.11	0.60425
1.1105	32.93152
1.111	78.65295
1.1115	119.13757
1.112	148.74573
1.1125	149.85352
1.113	144.41528
1.1135	123.46802
1.114	125.58289
1.1145	130.21545
1.115	114.20288
1.1155	99.60022
1.116	99.70093
1.1165	124.07227
1.117	164.15405
1.1175	210.98328
1.118	239.58435
1.1185	236.86523
1.119	232.6355
1.1195	176.94397
1.12	119.33899
1.1205	75.53101
1.121	47.7356
1.1215	29.20532
1.122	9.76868
1.1225	27.79541
1.123	65.3595
1.1235	113.90076
1.124	130.8197
1.1245	106.75049
1.125	70.69702
1.1255	31.62231
1.126	-19.43665
1.1265	-68.98499
1.127	-98.39172
1.1275	-127.59705
1.128	-146.02661
1.1285	-161.13281
1.129	-153.88184
1.1295	-152.06909
1.13	-128.90625
1.1305	-107.15332
1.131	-83.68835
1.1315	-70.19348
1.132	-60.92834
1.1325	-48.54126
1.133	-40.2832
1.1335	-36.75842
1.134	-20.54443
1.1345	-12.48779
1.135	-6.64673
1.1355	-20.04089
1.136	-9.66797
1.1365	-11.58142
1.137	-17.52319
1.1375	-32.02515
1.138	-51.96533
1.1385	-63.74817
1.139	-82.9834
1.1395	-100.90942
1.14	-108.46252
1.1405	-90.93933
1.141	-73.41614
1.1415	-103.82996
1.142	-146.22803
1.1425	-167.276
1.143	-170.19653
1.1435	-180.16663
1.144	-177.85034
1.1445	-151.46484
1.145	-98.39172
1.1455	-19.53735
1.146	65.56091
1.1465	132.63245
1.147	176.84326
1.1475	177.95105
1.148	167.37671
1.1485	139.98413
1.149	143.81104
1.1495	130.71899
1.15	112.28943
1.1505	88.82446
1.151	80.66711
1.1515	90.73792
1.152	93.0542
1.1525	88.52234
1.153	91.34216
1.1535	88.22021
1.154	81.17065
1.1545	68.48145
1.155	17.6239
1.1555	-33.43506
1.156	-59.92126
1.1565	-63.44604
1.157	-51.76392
1.1575	-52.771
1.158	-57.00073
1.1585	-87.01172
1.159	-103.32642
1.1595	-103.32642
1.16	-87.11243
1.1605	-66.06445
1.161	-33.9386
1.1615	-0.30212
1.162	47.13135
1.1625	99.70093
1.163	131.22253
1.1635	117.92908
1.164	90.23438
1.1645	65.3595
1.165	25.37842
1.1655	-29.00391
1.166	-75.02747
1.1665	-101.51367
1.167	-87.71667
1.1675	-54.28162
1.168	-26.68762
1.1685	5.0354
1.169	24.97559
1.1695	31.21948
1.17	32.7301
1.1705	54.48303
1.171	87.91809
1.1715	119.64111
1.172	137.66785
1.1725	143.91174
1.173	139.37988
1.1735	126.79138
1.174	92.14783
1.1745	69.99207
1.175	62.9425
1.1755	70.69702
1.176	66.76941
1.1765	31.62231
1.177	15.1062
1.1775	4.73328
1.178	-12.5885
1.1785	-30.11169
1.179	-14.40125
1.1795	5.0354
1.18	24.87488
1.1805	51.66321
1.181	78.85437
1.1815	97.78748
1.182	107.05261
1.1825	101.8158
1.183	91.24146
1.1835	80.86853
1.184	51.66321
1.1845	5.94177
1.185	-45.52002
1.1855	-65.25879
1.186	-62.43896
1.1865	-52.8717
1.187	-51.46179
1.1875	-80.86853
1.188	-133.23669
1.1885	-163.14697
1.189	-147.33582
1.1895	-117.52625
1.19	-113.1958
1.1905	-109.26819
1.191	-90.63721
1.1915	-36.4563
1.192	16.3147
1.1925	55.69153
1.193	86.60889
1.1935	77.44446
1.194	52.16675
1.1945	25.47913
1.195	8.45947
1.1955	-9.97009
1.196	-14.50195
1.1965	-23.16284
1.197	-35.54993
1.1975	-12.99133
1.198	5.74036
1.1985	36.75842
1.199	55.99365
1.1995	50.95825
1.2	69.28711
1.2005	75.93384
1.201	77.84729
1.2015	79.96216
1.202	67.97791
1.2025	47.03064
1.203	35.54993
1.2035	12.08496
1.204	0.30212
1.2045	-27.29187
1.205	-66.97083
1.2055	-89.83154
1.206	-97.78748
1.2065	-105.74341
1.207	-106.24695
1.2075	-96.8811
1.208	-80.66711
1.2085	-60.72693
1.209	-46.62781
1.2095	-42.29736
1.21	-26.18408
1.2105	-11.2793
1.211	20.24231
1.2115	42.90161
1.212	52.46887
1.2125	52.26746
1.213	57.20215
1.2135	60.72693
1.214	66.97083
1.2145	73.41614
1.215	76.43738
1.2155	84.59473
1.216	83.18481
1.2165	71.50269
1.217	57.50427
1.2175	51.15967
1.218	38.77258
1.2185	12.99133
1.219	-17.32178
1.2195	-30.51453
1.22	-30.11169
1.2205	-35.04639
1.221	-50.2533
1.2215	-53.27454
1.222	-55.79224
1.2225	-58.81348
1.223	-52.97241
1.2235	-53.17383
1.224	-62.74109
1.2245	-53.57666
1.225	-36.35559
1.2255	-24.77417
1.226	-34.64355
1.2265	-46.22498
1.227	-59.1156
1.2275	-50.45471
1.228	-30.31311
1.2285	-28.70178
1.229	-9.46655
1.2295	-12.89062
1.23	-20.1416
1.2305	-53.07312
1.231	-79.86145
1.2315	-84.19189
1.232	-83.78906
1.2325	-76.63879
1.233	-53.17383
1.2335	-5.23682
1.234	24.97559
1.2345	72.30835
1.235	139.48059
1.2355	233.34045
1.236	293.56384
1.2365	303.33252
1.237	285.20508
1.2375	255.2948
1.238	220.55054
1.2385	205.64575
1.239	171.70715
1.2395	127.29492
1.24	65.25879
1.2405	23.66638
1.241	-2.81982
1.2415	-26.3855
1.242	-25.57983
1.2425	-75.02747
1.243	-181.87866
1.2435	-229.41284
1.244	-231.22559
1.2445	-202.62451
1.245	-151.56555
1.2455	-99.70093
1.246	-41.08887
1.2465	4.83398
1.247	38.47046
1.2475	39.47754
1.248	31.82373
1.2485	31.72302
1.249	34.24072
1.2495	27.89612
1.25	35.04639
1.2505	29.20532
1.251	-33.63647
1.2515	-85.19897
1.252	-86.40747
1.2525	-40.58533
1.253	16.61682
1.2535	63.74817
1.254	88.72375
1.2545	111.58447
1.255	124.67651
1.2555	124.57581
1.256	103.72925
1.2565	63.64746
1.257	22.76001
1.2575	-20.54443
1.258	-48.44055
1.2585	-54.98657
1.259	-35.85205
1.2595	-19.03381
1.26	-16.91895
1.2605	-29.50745
1.261	-26.48621
1.2615	-13.69629
1.262	-5.74036
1.2625	-9.56726
1.263	0.10071
1.2635	12.08496
1.264	20.44373
1.2645	15.30762
1.265	2.61841
1.2655	-9.06372
1.266	-8.05664
1.2665	-38.16833
1.267	-59.21631
1.2675	-40.58533
1.268	-33.9386
1.2685	-39.98108
1.269	-47.93701
1.2695	-46.12427
1.27	-63.94958
1.2705	-72.61047
1.271	-62.13684
1.2715	-31.4209
1.272	-23.8678
1.2725	-20.04089
1.273	-36.85913
1.2735	-41.29028
1.274	-29.50745
1.2745	5.84106
1.275	38.77258
1.2755	53.27454
1.276	29.20532
1.2765	-30.31311
1.277	-70.3949
1.2775	-55.89294
1.278	-6.64673
1.2785	29.20532
1.279	44.0094
1.2795	46.82922
1.28	44.71436
1.2805	29.91028
1.281	26.78833
1.2815	36.35559
1.282	74.02039
1.2825	101.71509
1.283	103.02429
1.2835	84.99756
1.284	88.22021
1.2845	87.31384
1.285	89.63013
1.2855	83.68835
1.286	68.98499
1.2865	51.96533
1.287	39.67896
1.2875	26.78833
1.288	11.48071
1.2885	10.57434
1.289	12.5885
1.2895	19.94019
1.29	14.50195
1.2905	31.72302
1.291	53.47595
1.2915	54.38232
1.292	47.93701
1.2925	45.72144
1.293	72.9126
1.2935	102.42004
1.294	113.69934
1.2945	116.41846
1.295	95.26978
1.2955	30.2124
1.296	-24.57275
1.2965	-60.22339
1.297	-61.73401
1.2975	-57.8064
1.298	-49.95117
1.2985	-72.9126
1.299	-94.46411
1.2995	-112.39014
1.3	-107.65686
1.3005	-100.40588
1.301	-84.99756
1.3015	-61.43188
1.302	-48.64197
1.3025	-41.4917
1.303	-17.72461
1.3035	-5.94177
1.304	10.0708
1.3045	34.14001
1.305	37.66479
1.3055	26.68762
1.306	11.88354
1.3065	14.90479
1.307	18.93311
1.3075	24.37134
1.308	35.2478
1.3085	34.14001
1.309	24.16992
1.3095	25.27771
1.31	8.66089
1.3105	-2.92053
1.311	-30.01099
1.3115	-36.25488
1.312	-39.67896
1.3125	-25.98267
1.313	-11.48071
1.3135	-5.0354
1.314	-12.5885
1.3145	-14.50195
1.315	-11.98425
1.3155	-14.50195
1.316	-35.14709
1.3165	-67.67578
1.317	-84.69543
1.3175	-98.59314
1.318	-115.10925
1.3185	-126.69067
1.319	-159.92432
1.3195	-219.54346
1.32	-246.73462
1.3205	-237.16736
1.321	-190.94238
1.3215	-130.92041
1.322	-64.45312
1.3225	4.83398
1.323	67.97791
1.3235	125.38147
1.324	167.88025
1.3245	187.21619
1.325	179.15955
1.3255	161.53564
1.326	161.63635
1.3265	164.85901
1.327	174.92981
1.3275	182.78503
1.328	185.10132
1.3285	168.08167
1.329	148.4436
1.3295	127.19421
1.33	94.56482
1.3305	91.04004
1.331	88.92517
1.3315	92.14783
1.332	121.05103
1.3325	125.98572
1.333	97.48535
1.3335	58.10852
1.334	35.14709
1.3345	23.56567
1.335	5.84106
1.3355	-14.60266
1.336	-49.95117
1.3365	-76.03455
1.337	-71.7041
1.3375	-68.28003
1.338	-58.81348
1.3385	-38.974
1.339	-52.06604
1.3395	-87.91809
1.34	-94.66553
1.3405	-115.20996
1.341	-120.7489
1.3415	-114.4043
1.342	-76.33667
1.3425	-62.74109
1.343	-60.12268
1.3435	-51.5625
1.344	-51.5625
1.3445	-31.11877
1.345	-22.05505
1.3455	-14.40125
1.346	-7.45239
1.3465	5.13611
1.347	14.19983
1.3475	10.0708
1.348	6.64673
1.3485	8.25806
1.349	14.70337
1.3495	39.27612
1.35	45.72144
1.3505	33.13293
1.351	-1.61133
1.3515	-8.7616
1.352	8.35876
1.3525	31.92444
1.353	52.771
1.3535	69.99207
1.354	91.745
1.3545	127.49634
1.355	147.94006
1.3555	161.93848
1.356	147.63794
1.3565	111.58447
1.357	66.46729
1.3575	36.15417
1.358	19.83948
1.3585	14.30054
1.359	18.42957
1.3595	35.85205
1.36	67.97791
1.3605	96.47827
1.361	94.86694
1.3615	82.78198
1.362	43.30444
1.3625	13.797
1.363	0.70496
1.3635	-12.48779
1.364	-19.43665
1.3645	-46.02356
1.365	-127.49634
1.3655	-222.5647
1.366	-273.22083
1.3665	-280.57251
1.367	-268.58826
1.3675	-232.33337
1.368	-192.25159
1.3685	-139.98413
1.369	-77.44446
1.3695	-27.39258
1.37	4.53186
1.3705	22.15576
1.371	33.43506
1.3715	44.61365
1.372	58.10852
1.3725	54.48303
1.373	51.26038
1.3735	37.16125
1.374	14.50195
1.3745	-3.52478
1.375	-26.88904
1.3755	0
1.376	27.49329
1.3765	40.2832
1.377	54.98657
1.3775	68.58215
1.378	79.55933
1.3785	90.93933
1.379	94.76624
1.3795	99.09668
1.38	103.62854
1.3805	102.72217
1.381	89.73083
1.3815	38.77258
1.382	-20.34302
1.3825	-51.36108
1.383	-45.92285
1.3835	-28.09753
1.384	-9.56726
1.3845	10.67505
1.385	21.24939
1.3855	34.03931
1.386	71.20056
1.3865	103.62854
1.387	174.02344
1.3875	222.76611
1.388	237.16736
1.3885	219.14062
1.389	184.79919
1.3895	129.30908
1.39	51.36108
1.3905	-19.43665
1.391	-89.02588
1.3915	-151.26343
1.392	-227.90222
1.3925	-269.49463
1.393	-225.28381
1.3935	-164.85901
1.394	-122.66235
1.3945	-93.85986
1.395	-48.44055
1.3955	-11.58142
1.396	17.01965
1.3965	45.3186
1.397	71.50269
1.3975	75.63171
1.398	59.92126
1.3985	44.0094
1.399	25.37842
1.3995	-0.30212
1.4	-30.01099
1.4005	-61.23047
1.401	-88.72375
1.4015	-140.38696
1.402	-162.2406
1.4025	-169.59229
1.403	-144.51599
1.4035	-103.32642
1.404	-60.82764
1.4045	1.51062
1.405	56.19507
1.4055	92.04712
1.406	104.53491
1.4065	98.79456
1.407	89.12659
1.4075	76.43738
1.408	62.53967
1.4085	60.12268
1.409	76.7395
1.4095	97.38464
1.41	104.73633
1.4105	87.61597
1.411	59.1156
1.4115	24.67346
1.412	-10.0708
1.4125	-7.85522
1.413	21.55151
1.4135	58.81348
1.414	76.03455
1.4145	80.26428
1.415	96.37756
1.4155	139.88342
1.416	162.34131
1.4165	165.16113
1.417	148.4436
1.4175	120.84961
1.418	72.50977
1.4185	38.47046
1.419	11.78284
1.4195	-34.84497
1.42	-77.948
1.4205	-117.72766
1.421	-139.17847
1.4215	-147.63794
1.422	-157.91016
1.4225	-147.1344
1.423	-118.2312
1.4235	-91.94641
1.424	-76.53809
1.4245	-54.98657
1.425	-45.3186
1.4255	-42.7002
1.426	-52.16675
1.4265	-75.32959
1.427	-96.67969
1.4275	-107.15332
1.428	-84.69543
1.4285	-87.91809
1.429	-107.55615
1.4295	-114.505
1.43	-95.97473
1.4305	-58.71277
1.431	-16.91895
1.4315	28.39966
1.432	57.40356
1.4325	81.87561
1.433	99.80164
1.4335	105.34058
1.434	96.8811
1.4345	88.92517
1.435	93.0542
1.4355	106.8512
1.436	128.80554
1.4365	167.67883
1.437	184.29565
1.4375	173.21777
1.438	148.04077
1.4385	104.83704
1.439	49.24622
1.4395	4.02832
1.44	-37.16125
1.4405	-101.9165
1.441	-171.30432
1.4415	-202.62451
1.442	-203.43018
1.4425	-177.74963
1.443	-149.04785
1.4435	-106.34766
1.444	-63.34534
1.4445	0.40283
1.445	66.87012
1.4455	110.47668
1.446	134.5459
1.4465	123.46802
1.447	110.47668
1.4475	107.05261
1.448	104.03137
1.4485	108.76465
1.449	101.61438
1.4495	82.78198
1.45	77.44446
1.4505	69.1864
1.451	59.82056
1.4515	49.74976
1.452	79.66003
1.4525	123.77014
1.453	156.60095
1.4535	166.87317
1.454	148.74573
1.4545	106.54907
1.455	55.79224
1.4555	3.22266
1.456	-42.90161
1.4565	-88.11951
1.457	-155.39246
1.4575	-169.08875
1.458	-176.74255
1.4585	-178.95813
1.459	-194.06433
1.4595	-188.32397
1.46	-174.52698
1.4605	-160.62927
1.461	-143.20679
1.4615	-97.38464
1.462	-61.6333
1.4625	-23.06213
1.463	6.54602
1.4635	46.5271
1.464	74.02039
1.4645	98.79456
1.465	108.26111
1.4655	115.10925
1.466	102.21863
1.4665	69.28711
1.467	14.80408
1.4675	-35.34851
1.468	-7.85522
1.4685	31.32019
1.469	71.40198
1.4695	94.66553
1.47	107.55615
1.4705	92.55066
1.471	72.30835
1.4715	87.31384
1.472	114.00146
1.4725	119.03687
1.473	101.11084
1.4735	69.1864
1.474	21.95435
1.4745	-6.84814
1.475	-38.26904
1.4755	-52.46887
1.476	-65.56091
1.4765	-43.10303
1.477	-18.42957
1.4775	-16.81824
1.478	-9.36584
1.4785	-0.50354
1.479	-13.99841
1.4795	-47.43347
1.48	-93.96057
1.4805	-123.77014
1.481	-125.68359
1.4815	-106.8512
1.482	-93.25562
1.4825	-93.96057
1.483	-81.67419
1.4835	-63.54675
1.484	-85.90393
1.4845	-146.02661
1.485	-213.29956
1.4855	-226.89514
1.486	-195.67566
1.4865	-152.87476
1.487	-101.31226
1.4875	-50.55542
1.488	-14.50195
1.4885	29.30603
1.489	67.27295
1.4895	87.31384
1.49	100.80872
1.4905	110.17456
1.491	134.5459
1.4915	140.78979
1.492	134.74731
1.4925	117.32483
1.493	120.04395
1.4935	126.48926
1.494	113.29651
1.4945	97.48535
1.495	81.57349
1.4955	44.11011
1.496	1.61133
1.4965	-1.61133
1.497	-0.30212
1.4975	-18.32886
1.498	-27.09045
1.4985	-64.05029
1.499	-93.55774
1.4995	-101.71509
1.5	-84.89685
1.5005	-39.07471
1.501	7.15027
1.5015	54.18091
1.502	100.00305
1.5025	153.68042
1.503	188.52539
1.5035	201.61743
1.504	190.74097
1.5045	150.35706
1.505	106.14624
1.5055	78.14941
1.506	69.1864
1.5065	61.12976
1.507	16.3147
1.5075	-25.78125
1.508	-67.07153
1.5085	-97.18323
1.509	-85.09827
1.5095	-47.63489
1.51	-17.22107
1.5105	6.44531
1.511	15.91187
1.5115	24.67346
1.512	22.45789
1.5125	23.56567
1.513	28.80249
1.5135	42.19666
1.514	50.75684
1.5145	58.10852
1.515	51.76392
1.5155	19.23523
1.516	-8.56018
1.5165	-29.60815
1.517	-34.54285
1.5175	-47.63489
1.518	-50.2533
1.5185	-26.08337
1.519	-0.50354
1.5195	35.44922
1.52	71.90552
1.5205	80.96924
1.521	81.67419
1.5215	67.8772
1.522	46.22498
1.5225	29.70886
1.523	2.31628
1.5235	7.45239
1.524	21.24939
1.5245	26.3855
1.525	17.6239
1.5255	0.90637
1.526	-16.21399
1.5265	-21.65222
1.527	-32.62939
1.5275	-11.58142
1.528	-4.22974
1.5285	-8.05664
1.529	-21.95435
1.5295	-29.60815
1.53	-51.96533
1.5305	-71.90552
1.531	-66.06445
1.5315	-50.95825
1.532	-54.48303
1.5325	-48.94409
1.533	-44.31152
1.5335	-12.78992
1.534	39.67896
1.5345	83.78906
1.535	101.61438
1.5355	51.26038
1.536	-18.42957
1.5365	-82.88269
1.537	-108.96606
1.5375	-99.80164
1.538	-66.06445
1.5385	-44.11011
1.539	-68.17932
1.5395	-93.75916
1.54	-108.66394
1.5405	-92.34924
1.541	-61.6333
1.5415	-32.22656
1.542	-45.01648
1.5425	-64.151
1.543	-60.82764
1.5435	-45.82214
1.544	-24.77417
1.5445	-14.19983
1.545	3.8269
1.5455	19.83948
1.546	39.37683
1.5465	67.57507
1.547	99.09668
1.5475	120.95032
1.548	123.16589
1.5485	112.18872
1.549	78.85437
1.5495	-3.32336
1.55	-50.45471
1.5505	-68.88428
1.551	-78.75366
1.5515	-103.52783
1.552	-117.62695
1.5525	-98.99597
1.553	-48.13843
1.5535	-1.91345
1.554	23.36426
1.5545	25.27771
1.555	31.32019
1.5555	41.08887
1.556	49.64905
1.5565	47.33276
1.557	43.70728
1.5575	50.75684
1.558	58.81348
1.5585	62.03613
1.559	69.1864
1.5595	75.93384
1.56	97.58606
1.5605	125.68359
1.561	140.08484
1.5615	149.14856
1.562	165.26184
1.5625	174.42627
1.563	165.06042
1.5635	141.99829
1.564	95.87402
1.5645	45.01648
1.565	7.35168
1.5655	4.73328
1.566	6.64673
1.5665	-3.22266
1.567	-34.84497
1.5675	-72.10693
1.568	-80.16357
1.5685	-67.47437
1.569	-46.02356
1.5695	-23.96851
1.57	-6.04248
1.5705	-7.35168
1.571	0.60425
1.5715	1.40991
1.572	24.06921
1.5725	61.12976
1.573	97.48535
1.5735	115.81421
1.574	88.52234
1.5745	22.96143
1.575	-50.75684
1.5755	-91.54358
1.576	-116.31775
1.5765	-143.60962
1.577	-152.27051
1.5775	-161.73706
1.578	-179.46167
1.5785	-195.27283
1.579	-199.20044
1.5795	-176.33972
1.58	-117.72766
1.5805	-43.10303
1.581	24.37134
1.5815	50.85754
1.582	60.92834
1.5825	60.12268
1.583	64.55383
1.5835	65.86304
1.584	57.70569
1.5845	46.32568
1.585	39.17542
1.5855	63.04321
1.586	98.19031
1.5865	126.08643
1.587	140.38696
1.5875	138.27209
1.588	136.45935
1.5885	115.20996
1.589	99.3988
1.5895	92.65137
1.59	78.85437
1.5905	48.74268
1.591	-0.90637
1.5915	-57.40356
1.592	-128.80554
1.5925	-183.28857
1.593	-217.42859
1.5935	-226.89514
1.594	-204.73938
1.5945	-160.52856
1.595	-104.3335
1.5955	-47.53418
1.596	4.02832
1.5965	28.80249
1.597	37.36267
1.5975	12.78992
1.598	3.12195
1.5985	-37.66479
1.599	-73.71826
1.5995	-91.94641
1.6	-81.17065
1.6005	-40.58533
1.601	8.96301
1.6015	85.80322
1.602	152.06909
1.6025	196.07849
1.603	218.33496
1.6035	226.3916
1.604	219.44275
1.6045	207.65991
1.605	166.26892
1.6055	118.73474
1.606	99.80164
1.6065	81.57349
1.607	35.14709
1.6075	-21.04797
1.608	-61.53259
1.6085	-74.02039
1.609	-83.48694
1.6095	-75.12817
1.61	-70.09277
1.6105	-73.41614
1.611	-63.14392
1.6115	-40.48462
1.612	-27.09045
1.6125	-35.75134
1.613	-41.89453
1.6135	-39.88037
1.614	-35.44922
1.6145	-25.78125
1.615	-5.74036
1.6155	2.21558
1.616	38.57117
1.6165	62.9425
1.617	67.07153
1.6175	78.55225
1.618	71.7041
1.6185	58.00781
1.619	57.40356
1.6195	49.14551
1.62	35.44922
1.6205	10.77576
1.621	4.12903
1.6215	14.50195
1.622	30.01099
1.6225	33.03223
1.623	48.84338
1.6235	49.14551
1.624	47.93701
1.6245	47.23206
1.625	41.69312
1.6255	40.48462
1.626	45.52002
1.6265	51.26038
1.627	45.11719
1.6275	46.02356
1.628	50.95825
1.6285	73.41614
1.629	82.88269
1.6295	82.07703
1.63	62.33826
1.6305	49.85046
1.631	57.40356
1.6315	76.94092
1.632	65.25879
1.6325	27.79541
1.633	-31.62231
1.6335	-89.93225
1.634	-151.36414
1.6345	-196.78345
1.635	-215.81726
1.6355	-210.37903
1.636	-195.07141
1.6365	-188.6261
1.637	-189.9353
1.6375	-150.35706
1.638	-92.55066
1.6385	-50.75684
1.639	-36.55701
1.6395	-36.85913
1.64	-36.95984
1.6405	-36.75842
1.641	-39.17542
1.6415	-25.88196
1.642	2.41699
1.6425	25.37842
1.643	51.86462
1.6435	72.20764
1.644	84.2926
1.6445	93.55774
1.645	91.64429
1.6455	83.08411
1.646	82.88269
1.6465	66.06445
1.647	-11.48071
1.6475	-64.65454
1.648	-60.4248
1.6485	-37.06055
1.649	-17.92603
1.6495	-13.29346
1.65	-20.74585
1.6505	-38.47046
1.651	-32.02515
1.6515	-26.18408
1.652	-24.37134
1.6525	-62.13684
1.653	-114.4043
1.6535	-162.74414
1.654	-182.58362
1.6545	-177.85034
1.655	-148.04077
1.6555	-101.9165
1.656	-56.90002
1.6565	-29.91028
1.657	21.3501
1.6575	80.4657
1.658	134.64661
1.6585	193.15796
1.659	222.06116
1.6595	164.05334
1.66	88.42163
1.6605	29.00391
1.661	3.7262
1.6615	12.18567
1.662	26.88904
1.6625	60.72693
1.663	87.21313
1.6635	122.25952
1.664	134.44519
1.6645	156.39954
1.665	175.33264
1.6655	175.83618
1.666	153.17688
1.6665	141.19263
1.667	120.14465
1.6675	102.62146
1.668	90.43579
1.6685	79.2572
1.669	53.47595
1.6695	44.51294
1.67	35.34851
1.6705	23.8678
1.671	25.37842
1.6715	22.86072
1.672	11.68213
1.6725	2.01416
1.673	-7.35168
1.6735	-30.31311
1.674	-63.24463
1.6745	-93.96057
1.675	-122.56165
1.6755	-103.93066
1.676	-67.8772
1.6765	-39.27612
1.677	-26.08337
1.6775	-8.8623
1.678	-0.40283
1.6785	1.51062
1.679	18.42957
1.6795	50.2533
1.68	75.12817
1.6805	96.27686
1.681	106.04553
1.6815	99.70093
1.682	93.45703
1.6825	89.93225
1.683	102.82288
1.6835	111.48376
1.684	99.3988
1.6845	73.91968
1.685	38.57117
1.6855	0.20142
1.686	-15.60974
1.6865	-16.51611
1.687	-26.3855
1.6875	-56.39648
1.688	-70.29419
1.6885	-52.36816
1.689	-86.70959
1.6895	-104.23279
1.69	-117.42554
1.6905	-130.92041
1.691	-139.07776
1.6915	-133.13599
1.692	-111.08093
1.6925	-91.24146
1.693	-72.30835
1.6935	-52.16675
1.694	-30.71594
1.6945	-23.36426
1.695	-29.40674
1.6955	-43.60657
1.696	-54.0802
1.6965	-54.38232
1.697	-69.99207
1.6975	-75.22888
1.698	-65.46021
1.6985	-57.9071
1.699	-46.02356
1.6995	-27.89612
1.7	4.83398
1.7005	25.07629
1.701	30.61523
1.7015	19.94019
1.702	2.41699
1.7025	-23.26355
1.703	-30.01099
1.7035	-9.56726
1.704	22.76001
1.7045	56.90002
1.705	76.94092
1.7055	97.48535
1.706	104.23279
1.7065	107.35474
1.707	82.17773
1.7075	43.20374
1.708	41.08887
1.7085	59.51843
1.709	57.30286
1.7095	61.23047
1.71	49.44763
1.7105	25.68054
1.711	22.76001
1.7115	36.05347
1.712	56.39648
1.7125	74.32251
1.713	60.82764
1.7135	46.12427
1.714	41.99524
1.7145	27.89612
1.715	4.53186
1.7155	-17.72461
1.716	-35.2478
1.7165	-27.09045
1.717	-11.68213
1.7175	26.18408
1.718	62.9425
1.7185	71.60339
1.719	61.93542
1.7195	34.84497
1.72	12.28638
1.7205	-0.20142
1.721	11.07788
1.7215	-9.06372
1.722	-88.11951
1.7225	-183.28857
1.723	-245.02258
1.7235	-251.97144
1.724	-232.73621
1.7245	-204.63867
1.725	-199.40186
1.7255	-195.17212
1.726	-161.63635
1.7265	-118.43262
1.727	-45.2179
1.7275	50.75684
1.728	84.2926
1.7285	92.75208
1.729	105.03845
1.7295	130.51758
1.73	172.51282
1.7305	216.62292
1.731	223.97461
1.7315	207.76062
1.732	179.46167
1.7325	184.59778
1.733	181.17371
1.7335	178.15247
1.734	169.7937
1.7345	160.83069
1.735	140.18555
1.7355	83.58765
1.736	7.04956
1.7365	-73.31543
1.737	-118.83545
1.7375	-128.10059
1.738	-110.37598
1.7385	-96.8811
1.739	-64.95667
1.7395	-42.39807
1.74	-9.16443
1.7405	22.05505
1.741	32.42798
1.7415	32.7301
1.742	31.92444
1.7425	22.25647
1.743	18.63098
1.7435	18.32886
1.744	24.67346
1.7445	21.14868
1.745	25.177
1.7455	35.04639
1.746	53.07312
1.7465	78.95508
1.747	86.50818
1.7475	76.94092
1.748	65.76233
1.7485	63.04321
1.749	59.41772
1.7495	42.29736
1.75	23.26355
1.7505	18.63098
1.751	17.32178
1.7515	13.99841
1.752	-5.43823
1.7525	-40.78674
1.753	-56.19507
1.7535	-60.12268
1.754	-64.75525
1.7545	-64.65454
1.755	-65.96375
1.7555	-60.4248
1.756	-65.86304
1.7565	-59.1156
1.757	-56.49719
1.7575	-61.02905
1.758	-79.2572
1.7585	-88.0188
1.759	-75.53101
1.7595	-42.7002
1.76	-17.72461
1.7605	-9.06372
1.761	-10.47363
1.7615	-20.04089
1.762	-16.91895
1.7625	-17.92603
1.763	-33.43506
1.7635	-28.19824
1.764	-29.10461
1.7645	-30.11169
1.765	-33.73718
1.7655	-33.63647
1.766	-40.2832
1.7665	-47.23206
1.767	-48.23914
1.7675	-67.17224
1.768	-94.66553
1.7685	-94.56482
1.769	-58.00781
1.7695	9.36584
1.77	76.84021
1.7705	101.21155
1.771	111.18164
1.7715	107.85828
1.772	93.55774
1.7725	76.7395
1.773	67.57507
1.7735	52.46887
1.774	41.4917
1.7745	38.16833
1.775	33.43506
1.7755	28.80249
1.776	21.3501
1.7765	18.63098
1.777	14.90479
1.7775	23.66638
1.778	38.26904
1.7785	47.43347
1.779	42.09595
1.7795	31.4209
1.78	18.22815
1.7805	-12.18567
1.781	-45.62073
1.7815	-101.51367
1.782	-136.15723
1.7825	-148.64502
1.783	-146.12732
1.7835	-128.20129
1.784	-91.54358
1.7845	-79.05579
1.785	-124.37439
1.7855	-150.8606
1.786	-144.81812
1.7865	-123.66943
1.787	-80.4657
1.7875	-24.37134
1.788	38.974
1.7885	102.01721
1.789	168.88733
1.7895	194.66858
1.79	177.54822
1.7905	147.1344
1.791	112.08801
1.7915	90.93933
1.792	62.13684
1.7925	50.75684
1.793	57.70569
1.7935	68.07861
1.794	74.82605
1.7945	75.22888
1.795	74.82605
1.7955	72.20764
1.796	73.91968
1.7965	76.84021
1.797	69.99207
1.7975	67.17224
1.798	57.30286
1.7985	45.2179
1.799	56.29578
1.7995	58.71277
1.8	64.45312
1.8005	54.0802
1.801	19.23523
1.8015	-40.68604
1.802	-99.49951
1.8025	-129.00696
1.803	-128.60413
1.8035	-104.23279
1.804	-79.35791
1.8045	-53.57666
1.805	-32.93152
1.8055	-10.17151
1.806	0.40283
1.8065	10.27222
1.807	34.64355
1.8075	66.06445
1.808	85.40039
1.8085	85.19897
1.809	78.95508
1.8095	60.62622
1.81	46.32568
1.8105	38.36975
1.811	29.60815
1.8115	42.90161
1.812	36.95984
1.8125	40.58533
1.813	41.99524
1.8135	51.86462
1.814	62.33826
1.8145	70.29419
1.815	62.74109
1.8155	56.09436
1.816	42.59949
1.8165	25.98267
1.817	9.36584
1.8175	2.81982
1.818	3.32336
1.8185	1.61133
1.819	-2.31628
1.8195	0.10071
1.82	-9.97009
1.8205	-5.0354
1.821	6.3446
1.8215	-5.0354
1.822	-55.89294
1.8225	-130.92041
1.823	-142.80396
1.8235	-109.26819
1.824	-91.64429
1.8245	-97.88818
1.825	-96.7804
1.8255	-100.90942
1.826	-96.67969
1.8265	-93.15491
1.827	-74.82605
1.8275	-67.07153
1.828	-60.4248
1.8285	-59.82056
1.829	-54.78516
1.8295	-45.11719
1.83	-23.16284
1.8305	-9.26514
1.831	-23.16284
1.8315	-51.5625
1.832	-53.17383
1.8325	-43.70728
1.833	-34.14001
1.8335	-13.49487
1.834	12.48779
1.8345	38.36975
1.835	54.18091
1.8355	63.54675
1.836	65.76233
1.8365	73.91968
1.837	115.31067
1.8375	167.88025
1.838	196.98486
1.8385	178.35388
1.839	98.39172
1.8395	36.15417
1.84	-14.40125
1.8405	-54.18091
1.841	-66.76941
1.8415	-45.52002
1.842	-15.71045
1.8425	3.52478
1.843	11.58142
1.8435	33.9386
1.844	62.13684
1.8445	87.91809
1.845	106.64978
1.8455	117.02271
1.846	126.28784
1.8465	137.86926
1.847	135.35156
1.8475	110.98022
1.848	90.83862
1.8485	56.49719
1.849	41.4917
1.8495	37.16125
1.85	38.26904
1.8505	43.00232
1.851	44.81506
1.8515	40.38391
1.852	23.56567
1.8525	2.71912
1.853	-27.99683
1.8535	-112.59155
1.854	-180.87158
1.8545	-226.19019
1.855	-224.07532
1.8555	-177.24609
1.856	-114.30359
1.8565	-75.12817
1.857	-46.72852
1.8575	-28.09753
1.858	-2.71912
1.8585	25.57983
1.859	47.03064
1.8595	62.64038
1.86	71.20056
1.8605	73.21472
1.861	78.25012
1.8615	68.38074
1.862	57.00073
1.8625	46.22498
1.863	51.15967
1.8635	34.03931
1.864	14.50195
1.8645	-9.16443
1.865	-1.10779
1.8655	7.25098
1.866	16.71753
1.8665	11.17859
1.867	1.61133
1.8675	-20.04089
1.868	-37.26196
1.8685	-43.20374
1.869	-47.7356
1.8695	-41.18958
1.87	-32.62939
1.8705	-36.75842
1.871	-35.34851
1.8715	-42.90161
1.872	-32.93152
1.8725	-31.32019
1.873	-25.27771
1.8735	-18.22815
1.874	11.38
1.8745	31.92444
1.875	72.40906
1.8755	100.50659
1.876	112.69226
1.8765	101.01013
1.877	78.14941
1.8775	65.46021
1.878	50.55542
1.8785	37.66479
1.879	20.44373
1.8795	3.02124
1.88	-13.09204
1.8805	-18.53027
1.881	-39.27612
1.8815	-49.14551
1.882	-33.13293
1.8825	-17.42249
1.883	-2.01416
1.8835	5.74036
1.884	4.22974
1.8845	-16.81824
1.885	-43.30444
1.8855	-61.93542
1.886	-70.69702
1.8865	-73.21472
1.887	-69.1864
1.8875	-72.40906
1.888	-68.38074
1.8885	-38.77258
1.889	-26.48621
1.8895	-11.17859
1.89	2.92053
1.8905	21.65222
1.891	16.61682
1.8915	4.73328
1.892	-0.90637
1.8925	-9.86938
1.893	-18.53027
1.8935	-1.40991
1.894	33.53577
1.8945	65.46021
1.895	80.36499
1.8955	94.96765
1.896	87.31384
1.8965	86.30676
1.897	84.19189
1.8975	83.58765
1.898	81.37207
1.8985	49.64905
1.899	10.57434
1.8995	-22.96143
1.9	-51.26038
1.9005	-116.82129
1.901	-157.2052
1.9015	-164.7583
1.902	-152.77405
1.9025	-123.97156
1.903	-80.86853
1.9035	-46.02356
1.904	-11.68213
1.9045	-7.35168
1.905	10.17151
1.9055	52.26746
1.906	107.65686
1.9065	134.5459
1.907	133.13599
1.9075	91.44287
1.908	84.89685
1.9085	97.18323
1.909	107.65686
1.9095	86.8103
1.91	74.62463
1.9105	63.14392
1.911	50.354
1.9115	37.66479
1.912	31.82373
1.9125	36.35559
1.913	37.36267
1.9135	33.63647
1.914	26.08337
1.9145	9.76868
1.915	-10.87646
1.9155	-5.63965
1.916	19.13452
1.9165	24.47205
1.917	14.90479
1.9175	0.80566
1.918	-2.31628
1.9185	-0.60425
1.919	5.84106
1.9195	9.86938
1.92	32.93152
1.9205	56.49719
1.921	59.51843
1.9215	56.29578
1.922	45.01648
1.9225	13.29346
1.923	-25.88196
1.9235	-71.09985
1.924	-113.69934
1.9245	-161.63635
1.925	-236.26099
1.9255	-277.04773
1.926	-259.021
1.9265	-198.29407
1.927	-142.90466
1.9275	-87.31384
1.928	-31.01807
1.9285	12.78992
1.929	75.32959
1.9295	109.67102
1.93	128.80554
1.9305	132.73315
1.931	129.00696
1.9315	131.92749
1.932	132.43103
1.9325	101.8158
1.933	75.12817
1.9335	45.3186
1.934	38.974
1.9345	39.17542
1.935	41.39099
1.9355	44.81506
1.936	41.18958
1.9365	31.01807
1.937	32.7301
1.9375	24.27063
1.938	7.35168
1.9385	6.04248
1.939	4.73328
1.9395	8.05664
1.94	1.61133
1.9405	-5.63965
1.941	-5.94177
1.9415	2.31628
1.942	15.71045
1.9425	13.39417
1.943	-11.48071
1.9435	-54.0802
1.944	-95.87402
1.9445	-127.99988
1.945	-106.9519
1.9455	-48.64197
1.946	-14.50195
1.9465	9.46655
1.947	21.55151
1.9475	13.49487
1.948	16.61682
1.9485	9.86938
1.949	5.74036
1.9495	-13.797
1.95	-25.37842
1.9505	-33.83789
1.951	-28.19824
1.9515	-7.04956
1.952	29.00391
1.9525	56.90002
1.953	70.09277
1.9535	56.39648
1.954	48.44055
1.9545	51.5625
1.955	62.03613
1.9555	65.66162
1.956	59.41772
1.9565	49.85046
1.957	13.69629
1.9575	0.60425
1.958	-7.35168
1.9585	-31.32019
1.959	-45.62073
1.9595	-64.55383
1.96	-47.03064
1.9605	-21.24939
1.961	4.93469
1.9615	21.14868
1.962	18.12744
1.9625	-26.28479
1.963	-99.90234
1.9635	-150.45776
1.964	-164.65759
1.9645	-167.37671
1.965	-136.96289
1.9655	-83.68835
1.966	-24.97559
1.9665	-2.31628
1.967	32.02515
1.9675	52.16675
1.968	66.87012
1.9685	98.69385
1.969	122.56165
1.9695	134.5459
1.97	136.86218
1.9705	130.71899
1.971	126.38855
1.9715	128.50342
1.972	120.64819
1.9725	103.42712
1.973	97.18323
1.9735	88.92517
1.974	82.37915
1.9745	73.61755
1.975	39.67896
1.9755	1.61133
1.976	-31.01807
1.9765	-41.99524
1.977	-36.35559
1.9775	-30.01099
1.978	-34.24072
1.9785	-18.53027
1.979	0.40283
1.9795	9.86938
1.98	15.71045
1.9805	28.9032
1.981	35.54993
1.9815	28.09753
1.982	6.3446
1.9825	-6.3446
1.983	-14.80408
1.9835	-22.35718
1.984	-4.93469
1.9845	-12.08496
1.985	-36.25488
1.9855	-37.26196
1.986	-30.51453
1.9865	-31.92444
1.987	-36.75842
1.9875	-35.04639
1.988	-48.33984
1.9885	-77.84729
1.989	-94.06128
1.9895	-82.27844
1.99	-24.27063
1.9905	43.40515
1.991	92.75208
1.9915	108.1604
1.992	91.64429
1.9925	60.12268
1.993	-24.47205
1.9935	-77.948
1.994	-86.60889
1.9945	-94.46411
1.995	-90.23438
1.9955	-76.13525
1.996	-50.45471
1.9965	-9.46655
1.997	36.4563
1.9975	66.76941
1.998	74.82605
1.9985	69.68994
1.999	39.57825
1.9995	10.27222
2	-38.87329
2.0005	-86.20605
2.001	-83.58765
2.0015	-71.20056
2.002	-47.53418
2.0025	-18.32886
2.003	27.49329
2.0035	45.92285
2.004	47.33276
2.0045	43.00232
2.005	56.79932
2.0055	58.51135
2.006	44.11011
2.0065	29.60815
2.007	4.83398
2.0075	-23.26355
2.008	-43.60657
2.0085	-61.73401
2.009	-80.66711
2.0095	-97.58606
2.01	-96.07544
2.0105	-72.20764
2.011	-27.99683
2.0115	34.74426
2.012	67.37366
2.0125	80.76782
2.013	62.03613
2.0135	48.94409
2.014	28.60107
2.0145	18.12744
2.015	15.1062
2.0155	3.92761
2.016	-8.35876
2.0165	-6.04248
2.017	5.84106
2.0175	20.74585
2.018	37.26196
2.0185	57.40356
2.019	57.8064
2.0195	48.84338
2.02	50.95825
2.0205	54.98657
2.021	64.05029
2.0215	51.36108
2.022	59.1156
2.0225	73.61755
2.023	77.54517
2.0235	65.3595
2.024	49.85046
2.0245	-3.62549
2.025	-73.51685
2.0255	-101.01013
2.026	-90.03296
2.0265	-71.80481
2.027	-61.33118
2.0275	-55.08728
2.028	-43.60657
2.0285	-8.45947
2.029	40.08179
2.0295	73.51685
2.03	91.8457
2.0305	88.82446
2.031	82.37915
2.0315	75.93384
2.032	59.82056
2.0325	51.96533
2.033	26.68762
2.0335	2.81982
2.034	6.84814
2.0345	32.42798
2.035	53.47595
2.0355	63.74817
2.036	67.77649
2.0365	58.00781
2.037	36.65771
2.0375	27.49329
2.038	12.28638
2.0385	5.0354
2.039	-6.64673
2.0395	-27.6947
2.04	-35.95276
2.0405	-17.92603
2.041	6.74744
2.0415	11.68213
2.042	-23.06213
2.0425	-41.89453
2.043	-48.33984
2.0435	-44.21082
2.044	-34.14001
2.0445	-17.12036
2.045	-9.26514
2.0455	13.99841
2.046	41.99524
2.0465	69.79065
2.047	83.99048
2.0475	72.9126
2.048	60.12268
2.0485	29.00391
2.049	-11.2793
2.0495	-45.11719
2.05	-76.94092
2.0505	-94.96765
2.051	-98.49243
2.0515	-85.90393
2.052	-62.13684
2.0525	-32.42798
2.053	-12.38708
2.0535	6.04248
2.054	10.47363
2.0545	15.50903
2.055	5.43823
2.0555	-9.97009
2.056	-34.14001
2.0565	-62.03613
2.057	-38.06763
2.0575	18.22815
2.058	69.68994
2.0585	91.44287
2.059	84.99756
2.0595	54.28162
2.06	28.9032
2.0605	19.83948
2.061	17.6239
2.0615	-1.40991
2.062	-37.96692
2.0625	-60.02197
2.063	-68.07861
2.0635	-80.36499
2.064	-91.34216
2.0645	-106.04553
2.065	-111.08093
2.0655	-150.9613
2.066	-143.60962
2.0665	-108.96606
2.067	-91.24146
2.0675	-92.95349
2.068	-84.69543
2.0685	-67.8772
2.069	-50.85754
2.0695	-51.76392
2.07	-67.37366
2.0705	-81.27136
2.071	-92.14783
2.0715	-78.04871
2.072	-46.02356
2.0725	-9.56726
2.073	30.51453
2.0735	66.87012
2.074	112.59155
2.0745	134.44519
2.075	125.07935
2.0755	94.96765
2.076	46.62781
2.0765	43.60657
2.077	93.45703
2.0775	117.42554
2.078	126.38855
2.0785	123.2666
2.079	103.72925
2.0795	86.91101
2.08	74.92676
2.0805	80.86853
2.081	100.20447
2.0815	110.37598
2.082	105.34058
2.0825	86.70959
2.083	72.71118
2.0835	50.95825
2.084	36.55701
2.0845	28.19824
2.085	25.27771
2.0855	30.81665
2.086	49.24622
2.0865	64.35242
2.087	74.02039
2.0875	95.16907
2.088	110.37598
2.0885	103.42712
2.089	91.14075
2.0895	28.39966
2.09	-32.22656
2.0905	-65.66162
2.091	-77.44446
2.0915	-70.29419
2.092	-46.5271
2.0925	-27.09045
2.093	-4.53186
2.0935	22.45789
2.094	39.88037
2.0945	63.14392
2.095	93.25562
2.0955	112.79297
2.096	113.80005
2.0965	87.81738
2.097	61.83472
2.0975	8.66089
2.098	-38.47046
2.0985	-68.07861
2.099	-82.58057
2.0995	-84.2926
2.1	-93.45703
2.1005	-108.36182
2.101	-121.9574
2.1015	-94.66553
2.102	-32.62939
2.1025	16.51611
2.103	35.85205
2.1035	21.55151
2.104	3.8269
2.1045	-10.77576
2.105	-19.03381
2.1055	-9.26514
2.106	0.50354
2.1065	37.66479
2.107	66.56799
2.1075	92.85278
2.108	102.62146
2.1085	84.99756
2.109	45.3186
2.1095	21.24939
2.11	27.09045
2.1105	36.05347
2.111	49.24622
2.1115	20.74585
2.112	-9.76868
2.1125	-33.13293
2.113	-37.56409
2.1135	-44.71436
2.114	-51.76392
2.1145	-42.90161
2.115	-37.26196
2.1155	-34.64355
2.116	-25.27771
2.1165	-22.05505
2.117	-26.18408
2.1175	-40.78674
2.118	-52.771
2.1185	-68.07861
2.119	-65.46021
2.1195	-60.4248
2.12	-72.10693
2.1205	-86.20605
2.121	-86.10535
2.1215	-81.27136
2.122	-72.30835
2.1225	-67.57507
2.123	-56.09436
2.1235	-63.34534
2.124	-106.14624
2.1245	-120.34607
2.125	-112.28943
2.1255	-90.13367
2.126	-55.59082
2.1265	-9.66797
2.127	37.16125
2.1275	64.05029
2.128	85.60181
2.1285	123.66943
2.129	154.98962
2.1295	164.35547
2.13	155.19104
2.1305	127.19421
2.131	108.56323
2.1315	53.87878
2.132	7.04956
2.1325	-21.14868
2.133	-43.50586
2.1335	-31.11877
2.134	-4.12903
2.1345	20.74585
2.135	66.6687
2.1355	111.78589
2.136	135.65369
2.1365	126.08643
2.137	81.27136
2.1375	19.94019
2.138	-16.71753
2.1385	-3.7262
2.139	21.65222
2.1395	48.13843
2.14	56.79932
2.1405	57.8064
2.141	53.37524
2.1415	31.01807
2.142	37.16125
2.1425	32.12585
2.143	18.32886
2.1435	-11.78284
2.144	-47.93701
2.1445	-81.57349
2.145	-86.70959
2.1455	-77.04163
2.146	-74.42322
2.1465	-74.12109
2.147	-112.28943
2.1475	-178.35388
2.148	-190.43884
2.1485	-131.22253
2.149	-53.87878
2.1495	4.02832
2.15	39.37683
2.1505	8.05664
2.151	-50.354
2.1515	-96.8811
2.152	-100.90942
2.1525	-78.95508
2.153	-65.86304
2.1535	-39.37683
2.154	4.12903
2.1545	51.26038
2.155	99.80164
2.1555	118.63403
2.156	109.06677
2.1565	105.54199
2.157	113.49792
2.1575	131.32324
2.158	150.15564
2.1585	154.18396
2.159	144.11316
2.1595	126.69067
2.16	95.87402
2.1605	58.00781
2.161	38.16833
2.1615	35.65063
2.162	27.39258
2.1625	38.974
2.163	48.13843
2.1635	51.66321
2.164	34.84497
2.1645	17.72461
2.165	-7.04956
2.1655	-39.27612
2.166	-73.31543
2.1665	-99.70093
2.167	-106.14624
2.1675	-83.88977
2.168	-39.47754
2.1685	-4.12903
2.169	30.41382
2.1695	52.67029
2.17	68.07861
2.1705	85.90393
2.171	90.03296
2.1715	93.35632
2.172	90.83862
2.1725	127.19421
2.173	164.05334
2.1735	149.55139
2.174	100.10376
2.1745	65.96375
2.175	15.40833
2.1755	-37.26196
2.176	-87.01172
2.1765	-73.71826
2.177	-44.81506
2.1775	-32.42798
2.178	-46.12427
2.1785	-60.02197
2.179	-66.36658
2.1795	-60.22339
2.18	-58.41064
2.1805	-63.34534
2.181	-71.60339
2.1815	-51.76392
2.182	-13.39417
2.1825	20.04089
2.183	44.21082
2.1835	34.94568
2.184	23.06213
2.1845	11.2793
2.185	3.32336
2.1855	-6.2439
2.186	6.04248
2.1865	5.94177
2.187	6.04248
2.1875	2.61841
2.188	4.12903
2.1885	-9.56726
2.189	-21.3501
2.1895	-38.26904
2.19	-37.06055
2.1905	-46.12427
2.191	-55.3894
2.1915	-61.33118
2.192	-55.89294
2.1925	-41.4917
2.193	-20.54443
2.1935	-7.95593
2.194	-40.38391
2.1945	-62.53967
2.195	-56.09436
2.1955	-12.5885
2.196	16.51611
2.1965	22.05505
2.197	12.5885
2.1975	23.56567
2.198	15.71045
2.1985	14.30054
2.199	22.05505
2.1995	16.51611
2.2	21.3501
2.2005	25.177
2.201	26.08337
2.2015	26.3855
2.202	20.84656
2.2025	19.94019
2.203	14.40125
2.2035	13.797
2.204	21.85364
2.2045	30.51453
2.205	32.12585
2.2055	31.11877
2.206	49.74976
2.2065	50.85754
2.207	58.30994
2.2075	60.52551
2.208	37.46338
2.2085	-0.50354
2.209	-29.91028
2.2095	-45.3186
2.21	-34.84497
2.2105	-6.04248
2.211	36.85913
2.2115	71.20056
2.212	98.19031
2.2125	117.62695
2.213	113.29651
2.2135	85.80322
2.214	61.12976
2.2145	34.03931
2.215	10.67505
2.2155	-4.63257
2.216	-25.177
2.2165	-32.83081
2.217	-42.19666
2.2175	-30.51453
2.218	-20.54443
2.2185	-15.1062
2.219	-10.17151
2.2195	-12.99133
2.22	-39.07471
2.2205	-84.19189
2.221	-105.34058
2.2215	-123.36731
2.222	-133.3374
2.2225	-150.15564
2.223	-187.21619
2.2235	-223.57178
2.224	-197.08557
2.2245	-118.33191
2.225	-5.43823
2.2255	92.95349
2.226	138.97705
2.2265	150.9613
2.227	159.42078
2.2275	169.99512
2.228	164.45618
2.2285	149.75281
2.229	140.08484
2.2295	105.94482
2.23	34.14001
2.2305	-76.7395
2.231	-139.68201
2.2315	-139.88342
2.232	-114.60571
2.2325	-77.948
2.233	-41.69312
2.2335	-10.27222
2.234	26.78833
2.2345	69.38782
2.235	97.08252
2.2355	102.52075
2.236	94.56482
2.2365	80.66711
2.237	61.53259
2.2375	52.16675
2.238	20.74585
2.2385	18.12744
2.239	32.93152
2.2395	36.15417
2.24	28.50037
2.2405	26.18408
2.241	16.41541
2.2415	1.51062
2.242	-62.43896
2.2425	-100.30518
2.243	-121.25244
2.2435	-119.03687
2.244	-101.31226
2.2445	-69.38782
2.245	-42.09595
2.2455	-3.92761
2.246	24.06921
2.2465	48.44055
2.247	50.354
2.2475	55.2887
2.248	64.65454
2.2485	72.71118
2.249	91.64429
2.2495	76.13525
2.25	84.49402
2.2505	79.15649
2.251	85.90393
2.2515	77.14233
2.252	80.16357
2.2525	78.35083
2.253	56.5979
2.2535	40.88745
2.254	25.88196
2.2545	13.29346
2.255	-24.57275
2.2555	-45.41931
2.256	-38.67188
2.2565	-44.0094
2.257	-48.84338
2.2575	-45.01648
2.258	-37.86621
2.2585	-29.80957
2.259	-35.75134
2.2595	-33.73718
2.26	-21.75293
2.2605	-12.78992
2.261	-1.2085
2.2615	5.84106
2.262	8.96301
2.2625	19.83948
2.263	21.45081
2.2635	19.53735
2.264	0.20142
2.2645	-9.76868
2.265	-10.97717
2.2655	-25.78125
2.266	-31.11877
2.2665	-75.22888
2.267	-118.33191
2.2675	-128.10059
2.268	-74.2218
2.2685	-0.70496
2.269	66.56799
2.2695	126.89209
2.27	174.12415
2.2705	185.80627
2.271	191.54663
2.2715	170.59937
2.272	138.77563
2.2725	78.75366
2.273	5.0354
2.2735	-57.30286
2.274	-99.90234
2.2745	-122.56165
2.275	-131.32324
2.2755	-140.38696
2.276	-141.99829
2.2765	-153.3783
2.277	-137.56714
2.2775	-106.8512
2.278	-62.03613
2.2785	1.51062
2.279	41.39099
2.2795	45.11719
2.28	7.45239
2.2805	-40.98816
2.281	-78.85437
2.2815	-112.18872
2.282	-126.28784
2.2825	-106.75049
2.283	-77.14233
2.2835	-54.18091
2.284	-18.32886
2.2845	12.28638
2.285	44.11011
2.2855	58.91418
2.286	70.3949
2.2865	68.48145
2.287	58.71277
2.2875	50.85754
2.288	49.54834
2.2885	46.32568
2.289	37.66479
2.2895	-0.60425
2.29	-51.05896
2.2905	-57.8064
2.291	-60.52551
2.2915	-43.90869
2.292	-17.42249
2.2925	3.8269
2.293	-9.36584
2.2935	-24.47205
2.294	-12.18567
2.2945	9.86938
2.295	38.06763
2.2955	67.67578
2.296	84.39331
2.2965	102.72217
2.297	119.4397
2.2975	129.91333
2.298	123.97156
2.2985	119.33899
2.299	120.34607
2.2995	115.91492
2.3	96.67969
2.3005	83.88977
2.301	87.41455
2.3015	84.49402
2.302	72.61047
2.3025	73.21472
2.303	80.56641
2.3035	75.53101
2.304	61.33118
2.3045	52.97241
2.305	40.68604
2.3055	37.86621
2.306	29.60815
2.3065	25.68054
2.307	20.74585
2.3075	23.26355
2.308	20.34302
2.3085	5.43823
2.309	-4.43115
2.3095	-20.1416
2.31	-27.09045
2.3105	-45.11719
2.311	-48.23914
2.3115	-66.87012
2.312	-78.35083
2.3125	-88.42163
2.313	-116.51917
2.3135	-109.26819
2.314	-50.45471
2.3145	-22.6593
2.315	6.44531
2.3155	35.85205
2.316	41.69312
2.3165	-69.08569
2.317	-164.45618
2.3175	-215.51514
2.318	-225.98877
2.3185	-213.29956
2.319	-178.45459
2.3195	-143.91174
2.32	-113.59863
2.3205	-86.00464
2.321	-28.50037
2.3215	22.05505
2.322	76.33667
2.3225	88.42163
2.323	85.19897
2.3235	58.71277
2.324	40.98816
2.3245	52.06604
2.325	68.88428
2.3255	90.83862
2.326	80.96924
2.3265	64.45312
2.327	55.49011
2.3275	69.68994
2.328	70.59631
2.3285	69.79065
2.329	47.33276
2.3295	-51.5625
2.33	-114.90784
2.3305	-125.38147
2.331	-108.86536
2.3315	-84.09119
2.332	-57.40356
2.3325	-21.65222
2.333	15.40833
2.3335	58.41064
2.334	96.57898
2.3345	129.5105
2.335	146.32874
2.3355	141.39404
2.336	135.95581
2.3365	129.71191
2.337	115.41138
2.3375	98.59314
2.338	60.3241
2.3385	34.54285
2.339	31.32019
2.3395	40.58533
2.34	29.20532
2.3405	25.47913
2.341	22.35718
2.3415	25.37842
2.342	29.91028
2.3425	19.63806
2.343	13.19275
2.3435	5.13611
2.344	9.97009
2.3445	13.09204
2.345	18.32886
2.3455	27.6947
2.346	46.22498
2.3465	41.4917
2.347	26.18408
2.3475	1.81274
2.348	6.14319
2.3485	31.62231
2.349	54.0802
2.3495	50.75684
2.35	34.94568
2.3505	11.78284
2.351	-6.44531
2.3515	-15.00549
2.352	-7.75452
2.3525	-5.33752
2.353	5.23682
2.3535	-0.10071
2.354	-17.52319
2.3545	1.2085
2.355	9.76868
2.3555	16.21399
2.356	15.20691
2.3565	24.87488
2.357	30.91736
2.3575	41.99524
2.358	53.27454
2.3585	65.05737
2.359	54.28162
2.3595	31.62231
2.36	8.15735
2.3605	-5.13611
2.361	-21.75293
2.3615	-22.15576
2.362	-29.60815
2.3625	-50.45471
2.363	-62.43896
2.3635	-74.62463
2.364	-80.16357
2.3645	-65.66162
2.365	-34.34143
2.3655	-1.91345
2.366	19.23523
2.3665	19.23523
2.367	13.19275
2.3675	18.63098
2.368	3.92761
2.3685	-19.53735
2.369	-34.94568
2.3695	-62.8418
2.37	-79.66003
2.3705	-93.35632
2.371	-80.76782
2.3715	-75.93384
2.372	-57.30286
2.3725	-51.86462
2.373	-74.32251
2.3735	-82.88269
2.374	-89.42871
2.3745	-94.06128
2.375	-89.52942
2.3755	-87.71667
2.376	-98.49243
2.3765	-85.19897
2.377	-58.71277
2.3775	-23.26355
2.378	9.06372
2.3785	48.84338
2.379	69.08569
2.3795	81.17065
2.38	87.11243
2.3805	96.7804
2.381	133.94165
2.3815	143.71033
2.382	133.03528
2.3825	119.13757
2.383	112.39014
2.3835	48.03772
2.384	-47.93701
2.3845	-125.68359
2.385	-158.4137
2.3855	-142.30042
2.386	-127.39563
2.3865	-112.18872
2.387	-98.29102
2.3875	-71.7041
2.388	-45.62073
2.3885	-22.45789
2.389	-11.17859
2.3895	2.81982
2.39	1.40991
2.3905	-0.40283
2.391	-4.02832
2.3915	7.04956
2.392	18.63098
2.3925	26.78833
2.393	29.91028
2.3935	29.20532
2.394	12.18567
2.3945	-12.38708
2.395	-3.22266
2.3955	25.177
2.396	59.1156
2.3965	99.3988
2.397	127.49634
2.3975	153.07617
2.398	184.79919
2.3985	201.2146
2.399	211.08398
2.3995	204.13513
2.4	187.51831
2.4005	169.99512
2.401	150.45776
2.4015	131.22253
2.402	112.69226
2.4025	81.06995
2.403	68.17932
2.4035	46.62781
2.404	26.78833
2.4045	10.97717
2.405	8.56018
2.4055	0.40283
2.406	2.71912
2.4065	-7.04956
2.407	-23.8678
2.4075	-24.97559
2.408	-30.41382
2.4085	-45.01648
2.409	-79.66003
2.4095	-95.87402
2.41	-77.44446
2.4105	-51.86462
2.411	-42.7002
2.4115	-45.2179
2.412	-75.4303
2.4125	-115.31067
2.413	-112.99438
2.4135	-60.72693
2.414	-13.69629
2.4145	15.81116
2.415	31.21948
2.4155	50.354
2.416	60.52551
2.4165	55.69153
2.417	38.36975
2.4175	13.59558
2.418	-2.71912
2.4185	-13.59558
2.419	-12.18567
2.4195	-26.68762
2.42	-28.19824
2.4205	-36.05347
2.421	-46.82922
2.4215	-91.34216
2.422	-157.00378
2.4225	-189.23035
2.423	-169.89441
2.4235	-108.96606
2.424	-54.0802
2.4245	-11.78284
2.425	41.99524
2.4255	85.19897
2.426	123.46802
2.4265	134.5459
2.427	143.4082
2.4275	132.53174
2.428	123.16589
2.4285	118.73474
2.429	91.44287
2.4295	65.86304
2.43	34.34143
2.4305	-4.83398
2.431	-47.03064
2.4315	-76.03455
2.432	-82.68127
2.4325	-74.92676
2.433	-74.92676
2.4335	-72.30835
2.434	-92.85278
2.4345	-100.6073
2.435	-94.96765
2.4355	-93.55774
2.436	-75.32959
2.4365	-57.10144
2.437	-46.92993
2.4375	-47.7356
2.438	-31.4209
2.4385	-51.46179
2.439	-61.73401
2.4395	-72.30835
2.44	-75.63171
2.4405	-73.81897
2.441	-57.9071
2.4415	-34.54285
2.442	-0.90637
2.4425	52.771
2.443	115.61279
2.4435	161.43494
2.444	188.22327
2.4445	185.50415
2.445	172.51282
2.4455	171.60645
2.446	156.09741
2.4465	127.69775
2.447	97.88818
2.4475	79.45862
2.448	54.0802
2.4485	10.57434
2.449	-11.2793
2.4495	-27.29187
2.45	-63.84888
2.4505	-87.31384
2.451	-95.37048
2.4515	-79.66003
2.452	-70.19348
2.4525	-79.05579
2.453	-70.99915
2.4535	-48.64197
2.454	1.71204
2.4545	66.87012
2.455	117.22412
2.4555	162.03918
2.456	174.02344
2.4565	155.896
2.457	116.31775
2.4575	75.32959
2.458	29.30603
2.4585	-10.97717
2.459	-39.67896
2.4595	-43.10303
2.46	-51.86462
2.4605	-59.82056
2.461	-69.48853
2.4615	-59.1156
2.462	-68.38074
2.4625	-94.86694
2.463	-101.71509
2.4635	-101.21155
2.464	-113.90076
2.4645	-135.04944
2.465	-135.45227
2.4655	-132.22961
2.466	-108.86536
2.4665	-47.13135
2.467	12.68921
2.4675	71.09985
2.468	114.10217
2.4685	152.27051
2.469	183.38928
2.4695	189.12964
2.47	181.57654
2.4705	157.30591
2.471	128.20129
2.4715	113.39722
2.472	130.92041
2.4725	139.78271
2.473	127.99988
2.4735	112.79297
2.474	102.52075
2.4745	111.48376
2.475	98.39172
2.4755	57.00073
2.476	-26.58691
2.4765	-99.80164
2.477	-141.39404
2.4775	-152.1698
2.478	-142.60254
2.4785	-109.16748
2.479	-72.00623
2.4795	-48.84338
2.48	-46.5271
2.4805	-44.21082
2.481	-35.95276
2.4815	-34.94568
2.482	-34.64355
2.4825	-42.59949
2.483	-32.32727
2.4835	1.81274
2.484	37.46338
2.4845	66.26587
2.485	80.96924
2.4855	76.53809
2.486	59.92126
2.4865	41.89453
2.487	19.03381
2.4875	2.71912
2.488	-3.92761
2.4885	-16.61682
2.489	-36.85913
2.4895	-44.41223
2.49	-53.87878
2.4905	-49.0448
2.491	-43.80798
2.4915	-38.16833
2.492	-22.6593
2.4925	0
2.493	17.22107
2.4935	7.5531
2.494	-14.90479
2.4945	-61.73401
2.495	-93.45703
2.4955	-101.21155
2.496	-120.04395
2.4965	-153.98254
2.497	-155.69458
2.4975	-108.1604
2.498	-49.24622
2.4985	8.7616
2.499	58.10852
2.4995	102.92358
2.5	136.35864
2.5005	148.04077
2.501	165.06042
2.5015	172.10999
2.502	156.39954
2.5025	137.86926
2.503	117.72766
2.5035	97.88818
2.504	80.16357
2.5045	53.77808
2.505	40.98816
2.5055	39.57825
2.506	26.88904
2.5065	25.47913
2.507	42.8009
2.5075	70.89844
2.508	82.9834
2.5085	63.54675
2.509	63.94958
2.5095	51.26038
2.51	31.92444
2.5105	2.01416
2.511	-62.64038
2.5115	-129.61121
2.512	-185.40344
2.5125	-214.10522
2.513	-214.91089
2.5135	-212.29248
2.514	-177.04468
2.5145	-143.10608
2.515	-113.1958
2.5155	-74.32251
2.516	-24.27063
2.5165	16.01257
2.517	50.354
2.5175	32.52869
2.518	-11.68213
2.5185	-48.94409
2.519	-48.03772
2.5195	-35.54993
2.52	-16.3147
2.5205	18.53027
2.521	61.83472
2.5215	82.07703
2.522	80.86853
2.5225	106.14624
2.523	137.36572
2.5235	151.16272
2.524	143.20679
2.5245	132.12891
2.525	102.72217
2.5255	63.14392
2.526	40.1825
2.5265	47.43347
2.527	56.5979
2.5275	61.53259
2.528	52.16675
2.5285	28.19824
2.529	11.48071
2.5295	0.70496
2.53	7.45239
2.5305	17.72461
2.531	21.95435
2.5315	35.14709
2.532	22.35718
2.5325	9.56726
2.533	-4.53186
2.5335	-8.45947
2.534	-25.98267
2.5345	-39.37683
2.535	-40.88745
2.5355	-38.77258
2.536	-46.92993
2.5365	-54.28162
2.537	-60.92834
2.5375	-59.31702
2.538	-41.08887
2.5385	-40.88745
2.539	-33.43506
2.5395	-18.12744
2.54	-5.43823
2.5405	24.16992
2.541	55.59082
2.5415	85.80322
2.542	102.01721
2.5425	108.46252
2.543	104.63562
2.5435	103.22571
2.544	90.5365
2.5445	68.38074
2.545	59.51843
2.5455	102.62146
2.546	149.6521
2.5465	136.96289
2.547	81.67419
2.5475	28.50037
2.548	-26.08337
2.5485	-79.66003
2.549	-115.00854
2.5495	-131.22253
2.55	-143.91174
2.5505	-154.08325
2.551	-188.52539
2.5515	-208.46558
2.552	-210.37903
2.5525	-172.21069
2.553	-139.17847
2.5535	-90.03296
2.554	-44.51294
2.5545	12.78992
2.555	59.21631
2.5555	84.79614
2.556	89.73083
2.5565	78.45154
2.557	58.10852
2.5575	52.36816
2.558	56.79932
2.5585	57.60498
2.559	43.00232
2.5595	18.42957
2.56	-5.13611
2.5605	-8.66089
2.561	1.40991
2.5615	23.46497
2.562	20.74585
2.5625	17.92603
2.563	31.52161
2.5635	37.56409
2.564	46.32568
2.5645	48.74268
2.565	46.02356
2.5655	33.23364
2.566	44.31152
2.5665	32.93152
2.567	19.53735
2.5675	1.81274
2.568	-1.00708
2.5685	7.5531
2.569	39.27612
2.5695	62.74109
2.57	89.328
2.5705	105.74341
2.571	95.67261
2.5715	57.60498
2.572	23.76709
2.5725	7.04956
2.573	-8.56018
2.5735	1.51062
2.574	15.40833
2.5745	24.37134
2.575	7.65381
2.5755	-5.94177
2.576	0.50354
2.5765	-5.74036
2.577	-27.39258
2.5775	-39.57825
2.578	-34.54285
2.5785	-30.81665
2.579	-20.64514
2.5795	-11.17859
2.58	-2.5177
2.5805	-5.33752
2.581	-9.56726
2.5815	-3.02124
2.582	-1.2085
2.5825	-7.35168
2.583	-29.60815
2.5835	-41.89453
2.584	-28.09753
2.5845	-27.6947
2.585	-34.74426
2.5855	-41.89453
2.586	-44.21082
2.5865	-61.02905
2.587	-90.93933
2.5875	-91.64429
2.588	-98.39172
2.5885	-117.92908
2.589	-129.91333
2.5895	-129.61121
2.59	-119.84253
2.5905	-78.35083
2.591	-39.98108
2.5915	-3.02124
2.592	22.55859
2.5925	32.32727
2.593	49.14551
2.5935	62.53967
2.594	91.24146
2.5945	130.61829
2.595	168.88733
2.5955	190.74097
2.596	195.27283
2.5965	171.0022
2.597	153.07617
2.5975	122.46094
2.598	88.72375
2.5985	42.8009
2.599	-3.42407
2.5995	-14.09912
2.6	19.63806
2.6005	49.54834
2.601	54.38232
2.6015	52.46887
2.602	61.83472
2.6025	81.06995
2.603	78.14941
2.6035	55.99365
2.604	32.83081
2.6045	-5.53894
2.605	-44.21082
2.6055	-71.80481
2.606	-85.60181
2.6065	-67.47437
2.607	-54.68445
2.6075	-30.41382
2.608	-38.16833
2.6085	-104.23279
2.609	-177.14539
2.6095	-211.88965
2.61	-194.26575
2.6105	-160.02502
2.611	-129.71191
2.6115	-101.01013
2.612	-64.151
2.6125	-27.99683
2.613	27.99683
2.6135	69.48853
2.614	85.80322
2.6145	96.27686
2.615	98.69385
2.6155	89.02588
2.616	73.81897
2.6165	72.81189
2.617	71.30127
2.6175	70.59631
2.618	72.9126
2.6185	79.96216
2.619	88.11951
2.6195	99.80164
2.62	99.49951
2.6205	91.34216
2.621	88.0188
2.6215	65.56091
2.622	38.57117
2.6225	38.47046
2.623	23.26355
2.6235	-5.74036
2.624	-33.43506
2.6245	-44.31152
2.625	-49.64905
2.6255	-40.08179
2.626	-38.06763
2.6265	-31.4209
2.627	-7.35168
2.6275	42.39807
2.628	84.89685
2.6285	86.91101
2.629	72.20764
2.6295	57.30286
2.63	47.63489
2.6305	36.95984
2.631	31.11877
2.6315	20.1416
2.632	8.05664
2.6325	1.71204
2.633	-9.46655
2.6335	-25.177
2.634	-37.96692
2.6345	-37.7655
2.635	-27.79541
2.6355	-4.83398
2.636	15.91187
2.6365	19.53735
2.637	9.66797
2.6375	-1.91345
2.638	-1.10779
2.6385	8.8623
2.639	-3.42407
2.6395	-28.39966
2.64	-51.5625
2.6405	-56.09436
2.641	-33.9386
2.6415	-32.32727
2.642	-2.41699
2.6425	29.70886
2.643	28.29895
2.6435	-3.02124
2.644	-36.25488
2.6445	-56.5979
2.645	-58.10852
2.6455	-54.58374
2.646	-43.50586
2.6465	-22.76001
2.647	-15.00549
2.6475	-17.01965
2.648	-32.93152
2.6485	-36.85913
2.649	-55.3894
2.6495	-61.23047
2.65	-61.83472
2.6505	-85.19897
2.651	-107.75757
2.6515	-102.01721
2.652	-76.43738
2.6525	-32.93152
2.653	4.73328
2.6535	33.9386
2.654	69.89136
2.6545	93.55774
2.655	93.15491
2.6555	91.54358
2.656	90.33508
2.6565	94.56482
2.657	91.54358
2.6575	30.51453
2.658	-45.82214
2.6585	-65.15808
2.659	-62.53967
2.6595	-64.35242
2.66	-75.02747
2.6605	-82.78198
2.661	-71.60339
2.6615	-49.64905
2.662	-22.55859
2.6625	15.71045
2.663	46.72852
2.6635	57.00073
2.664	21.3501
2.6645	-32.32727
2.665	-47.53418
2.6655	-25.07629
2.666	0.10071
2.6665	2.21558
2.667	1.61133
2.6675	18.12744
2.668	43.80798
2.6685	62.9425
2.669	105.74341
2.6695	139.48059
2.67	147.23511
2.6705	131.82678
2.671	110.6781
2.6715	72.20764
2.672	14.19983
2.6725	-12.78992
2.673	-12.5885
2.6735	-0.80566
2.674	10.87646
2.6745	20.34302
2.675	34.24072
2.6755	49.0448
2.676	62.53967
2.6765	103.62854
2.677	155.49316
2.6775	173.41919
2.678	179.76379
2.6785	166.67175
2.679	152.37122
2.6795	122.66235
2.68	91.24146
2.6805	57.10144
2.681	18.22815
2.6815	-13.89771
2.682	-37.96692
2.6825	-66.36658
2.683	-82.58057
2.6835	-92.65137
2.684	-86.70959
2.6845	-65.76233
2.685	-45.41931
2.6855	-49.14551
2.686	-39.07471
2.6865	-44.51294
2.687	-69.79065
2.6875	-108.66394
2.688	-132.73315
2.6885	-134.34448
2.689	-120.34607
2.6895	-118.93616
2.69	-114.30359
2.6905	-97.58606
2.691	-71.60339
2.6915	-34.54285
2.692	-0.80566
2.6925	35.85205
2.693	64.35242
2.6935	78.55225
2.694	81.06995
2.6945	94.96765
2.695	94.76624
2.6955	97.98889
2.696	93.96057
2.6965	90.03296
2.697	86.30676
2.6975	79.05579
2.698	70.89844
2.6985	57.70569
2.699	46.12427
2.6995	34.24072
2.7	22.35718
2.7005	10.17151
2.701	-1.91345
2.7015	-23.8678
2.702	-68.58215
2.7025	-116.31775
2.703	-161.23352
2.7035	-183.08716
2.704	-198.89832
2.7045	-230.62134
2.705	-225.48523
2.7055	-200.0061
2.706	-149.04785
2.7065	-88.11951
2.707	-24.37134
2.7075	14.70337
2.708	38.06763
2.7085	59.41772
2.709	83.38623
2.7095	97.58606
2.71	120.04395
2.7105	143.00537
2.711	156.19812
2.7115	154.88892
2.712	125.48218
2.7125	104.63562
2.713	94.46411
2.7135	89.63013
2.714	94.16199
2.7145	95.26978
2.715	78.25012
2.7155	78.65295
2.716	86.20605
2.7165	82.9834
2.717	70.59631
2.7175	63.84888
2.718	61.02905
2.7185	57.70569
2.719	54.78516
2.7195	51.96533
2.72	36.95984
2.7205	19.94019
2.721	-5.23682
2.7215	-29.30603
2.722	-42.19666
2.7225	-51.26038
2.723	-57.20215
2.7235	-73.11401
2.724	-82.68127
2.7245	-85.09827
2.725	-64.05029
2.7255	-46.82922
2.726	-26.98975
2.7265	-10.57434
2.727	-17.12036
2.7275	-38.77258
2.728	-59.51843
2.7285	-58.51135
2.729	-77.44446
2.7295	-89.02588
2.73	-111.8866
2.7305	-128.80554
2.731	-100.70801
2.7315	-86.40747
2.732	-95.77332
2.7325	-103.52783
2.733	-81.27136
2.7335	-52.06604
2.734	-14.09912
2.7345	12.38708
2.735	27.99683
2.7355	46.5271
2.736	57.30286
2.7365	81.7749
2.737	114.20288
2.7375	125.48218
2.738	128.80554
2.7385	122.15881
2.739	102.52075
2.7395	92.14783
2.74	87.11243
2.7405	72.71118
2.741	72.81189
2.7415	56.90002
2.742	24.87488
2.7425	11.2793
2.743	15.91187
2.7435	1.61133
2.744	-11.48071
2.7445	-23.36426
2.745	-15.00549
2.7455	-11.38
2.746	14.40125
2.7465	85.5011
2.747	150.9613
2.7475	165.46326
2.748	146.12732
2.7485	108.1604
2.749	80.26428
2.7495	38.36975
2.75	-80.16357
2.7505	-179.76379
2.751	-237.46948
2.7515	-264.86206
2.752	-272.21375
2.7525	-250.66223
2.753	-224.88098
2.7535	-177.14539
2.754	-141.79688
2.7545	-120.04395
2.755	-93.35632
2.7555	-89.328
2.756	-81.7749
2.7565	-52.46887
2.757	-1.2085
2.7575	38.16833
2.758	65.76233
2.7585	77.84729
2.759	92.24854
2.7595	116.41846
2.76	135.65369
2.7605	153.98254
2.761	178.25317
2.7615	198.49548
2.762	202.32239
2.7625	181.27441
2.763	145.22095
2.7635	103.42712
2.764	71.20056
2.7645	52.56958
2.765	42.90161
2.7655	29.00391
2.766	18.22815
2.7665	10.47363
2.767	-3.12195
2.7675	-6.3446
2.768	-9.97009
2.7685	-16.01257
2.769	-17.22107
2.7695	-23.06213
2.77	-18.12744
2.7705	-7.95593
2.771	1.91345
2.7715	-15.30762
2.772	-38.06763
2.7725	-32.32727
2.773	-11.68213
2.7735	4.43115
2.774	-5.33752
2.7745	-5.74036
2.775	-12.68921
2.7755	-9.76868
2.776	-8.45947
2.7765	11.17859
2.777	19.83948
2.7775	11.68213
2.778	4.22974
2.7785	21.45081
2.779	43.90869
2.7795	47.13135
2.78	40.78674
2.7805	37.56409
2.781	30.71594
2.7815	5.84106
2.782	3.62549
2.7825	-35.34851
2.783	-84.89685
2.7835	-121.25244
2.784	-122.25952
2.7845	-99.80164
2.785	-78.35083
2.7855	-53.77808
2.786	-38.57117
2.7865	-20.44373
2.787	4.63257
2.7875	30.91736
2.788	51.46179
2.7885	79.96216
2.789	84.09119
2.7895	94.16199
2.79	106.64978
2.7905	106.75049
2.791	101.8158
2.7915	89.63013
2.792	77.84729
2.7925	70.29419
2.793	65.3595
2.7935	69.99207
2.794	67.47437
2.7945	60.92834
2.795	46.72852
2.7955	38.16833
2.796	29.60815
2.7965	22.15576
2.797	17.12036
2.7975	8.15735
2.798	4.73328
2.7985	11.98425
2.799	19.43665
2.7995	21.45081
2.8	10.57434
2.8005	6.64673
2.801	0.90637
2.8015	3.92761
2.802	-8.96301
2.8025	-39.98108
2.803	-78.85437
2.8035	-102.82288
2.804	-115.20996
2.8045	-69.68994
2.805	-8.35876
2.8055	41.79382
2.806	68.78357
2.8065	62.03613
2.807	46.22498
2.8075	13.19275
2.808	-12.08496
2.8085	-16.51611
2.809	0.10071
2.8095	11.48071
2.81	18.53027
2.8105	11.07788
2.811	6.44531
2.8115	-12.08496
2.812	-32.83081
2.8125	-45.52002
2.813	-51.26038
2.8135	-77.64587
2.814	-91.24146
2.8145	-115.10925
2.815	-118.2312
2.8155	-88.0188
2.816	-70.69702
2.8165	-64.75525
2.817	-59.41772
2.8175	-60.02197
2.818	-62.8418
2.8185	-59.51843
2.819	-39.47754
2.8195	-24.16992
2.82	-16.01257
2.8205	-5.63965
2.821	-31.32019
2.8215	-59.31702
2.822	-71.20056
2.8225	-58.41064
2.823	-38.974
2.8235	-1.71204
2.824	20.34302
2.8245	46.92993
2.825	70.69702
2.8255	88.0188
2.826	99.49951
2.8265	90.73792
2.827	55.08728
2.8275	24.57275
2.828	21.75293
2.8285	17.92603
2.829	5.33752
2.8295	-6.84814
2.83	-36.95984
2.8305	-57.70569
2.831	-54.58374
2.8315	-39.88037
2.832	-10.0708
2.8325	18.42957
2.833	36.75842
2.8335	52.67029
2.834	67.8772
2.8345	68.98499
2.835	71.30127
2.8355	75.93384
2.836	72.20764
2.8365	74.52393
2.837	81.87561
2.8375	74.62463
2.838	72.50977
2.8385	75.02747
2.839	87.21313
2.8395	87.71667
2.84	80.36499
2.8405	73.01331
2.841	66.97083
2.8415	60.92834
2.842	57.20215
2.8425	49.85046
2.843	41.29028
2.8435	33.73718
2.844	20.1416
2.8445	2.11487
2.845	-5.84106
2.8455	-19.83948
2.846	-39.77966
2.8465	-22.55859
2.847	30.11169
2.8475	52.8717
2.848	40.78674
2.8485	13.797
2.849	-16.61682
2.8495	-18.8324
2.85	-20.44373
2.8505	-26.58691
2.851	-16.21399
2.8515	-29.00391
2.852	-47.03064
2.8525	-71.7041
2.853	-64.35242
2.8535	-49.24622
2.854	-35.95276
2.8545	-41.18958
2.855	-55.79224
2.8555	-71.90552
2.856	-68.28003
2.8565	-58.20923
2.857	-31.32019
2.8575	-3.92761
2.858	10.17151
2.8585	25.37842
2.859	35.95276
2.8595	37.46338
2.86	26.68762
2.8605	-3.92761
2.861	-18.42957
2.8615	-14.70337
2.862	8.96301
2.8625	17.32178
2.863	16.71753
2.8635	19.23523
2.864	31.32019
2.8645	37.66479
2.865	45.01648
2.8655	41.08887
2.866	40.68604
2.8665	44.61365
2.867	58.71277
2.8675	92.85278
2.868	105.44128
2.8685	98.99597
2.869	62.64038
2.8695	31.52161
2.87	9.66797
2.8705	6.54602
2.871	4.33044
2.8715	17.52319
2.872	28.09753
2.8725	25.177
2.873	27.29187
2.8735	29.30603
2.874	22.45789
2.8745	12.78992
2.875	-14.09912
2.8755	-50.55542
2.876	-78.55225
2.8765	-72.9126
2.877	-57.40356
2.8775	-57.10144
2.878	-69.58923
2.8785	-76.13525
2.879	-87.11243
2.8795	-90.33508
2.88	-85.40039
2.8805	-64.85596
2.881	-74.72534
2.8815	-156.09741
2.882	-221.96045
2.8825	-249.15161
2.883	-222.66541
2.8835	-175.83618
2.884	-111.8866
2.8845	-38.26904
2.885	28.80249
2.8855	53.17383
2.886	61.33118
2.8865	77.24304
2.887	110.6781
2.8875	138.77563
2.888	139.98413
2.8885	142.30042
2.889	153.78113
2.8895	169.08875
2.89	163.85193
2.8905	151.26343
2.891	128.50342
2.8915	117.42554
2.892	113.59863
2.8925	102.11792
2.893	95.06836
2.8935	75.63171
2.894	56.5979
2.8945	38.36975
2.895	21.04797
2.8955	13.89771
2.896	7.85522
2.8965	9.66797
2.897	27.49329
2.8975	40.48462
2.898	27.79541
2.8985	9.76868
2.899	-23.36426
2.8995	-54.18091
2.9	-62.23755
2.9005	-61.12976
2.901	-53.47595
2.9015	-46.62781
2.902	-39.27612
2.9025	-27.99683
2.903	-26.3855
2.9035	-26.78833
2.904	-30.91736
2.9045	-26.58691
2.905	-5.43823
2.9055	22.05505
2.906	66.97083
2.9065	89.93225
2.907	91.8457
2.9075	74.2218
2.908	54.38232
2.9085	53.27454
2.909	51.76392
2.9095	32.12585
2.91	0.90637
2.9105	-4.43115
2.911	-5.23682
2.9115	-26.78833
2.912	-52.16675
2.9125	-45.62073
2.913	-45.62073
2.9135	-58.00781
2.914	-63.14392
2.9145	-62.23755
2.915	-74.42322
2.9155	-67.07153
2.916	-76.7395
2.9165	-95.06836
2.917	-108.46252
2.9175	-108.66394
2.918	-87.41455
2.9185	-71.40198
2.919	-43.10303
2.9195	-20.1416
2.92	-5.33752
2.9205	9.86938
2.921	40.98816
2.9215	77.24304
2.922	120.24536
2.9225	149.34998
2.923	141.89758
2.9235	115.10925
2.924	91.94641
2.9245	69.58923
2.925	44.51294
2.9255	19.03381
2.926	8.15735
2.9265	0.60425
2.927	17.6239
2.9275	27.49329
2.928	47.43347
2.9285	60.52551
2.929	65.15808
2.9295	78.14941
2.93	72.9126
2.9305	64.75525
2.931	46.32568
2.9315	18.32886
2.932	4.73328
2.9325	-2.5177
2.933	-5.33752
2.9335	-11.07788
2.934	-15.50903
2.9345	-44.21082
2.935	-87.41455
2.9355	-111.28235
2.936	-104.83704
2.9365	-63.64746
2.937	-25.47913
2.9375	-8.66089
2.938	0.40283
2.9385	5.74036
2.939	16.3147
2.9395	18.53027
2.94	14.19983
2.9405	6.84814
2.941	-11.2793
2.9415	-21.3501
2.942	-32.52869
2.9425	-46.32568
2.943	-59.01489
2.9435	-59.92126
2.944	-52.26746
2.9445	-34.54285
2.945	-20.1416
2.9455	-11.38
2.946	0
2.9465	7.15027
2.947	21.95435
2.9475	38.36975
2.948	37.46338
2.9485	31.32019
2.949	-2.5177
2.9495	-19.94019
2.95	-18.02673
2.9505	-18.02673
2.951	-10.57434
2.9515	-9.76868
2.952	-29.60815
2.9525	-75.83313
2.953	-96.07544
2.9535	-90.93933
2.954	-77.948
2.9545	-63.54675
2.955	-48.84338
2.9555	-23.26355
2.956	13.29346
2.9565	57.9071
2.957	87.11243
2.9575	99.80164
2.958	108.66394
2.9585	106.8512
2.959	99.70093
2.9595	88.22021
2.96	76.13525
2.9605	55.2887
2.961	24.97559
2.9615	-4.83398
2.962	-24.97559
2.9625	-20.94727
2.963	0.80566
2.9635	16.91895
2.964	18.32886
2.9645	5.94177
2.965	-10.47363
2.9655	-13.19275
2.966	15.20691
2.9665	43.80798
2.967	70.79773
2.9675	69.99207
2.968	72.61047
2.9685	42.90161
2.969	0
2.9695	-45.3186
2.97	-56.90002
2.9705	-34.34143
2.971	-18.12744
2.9715	-4.63257
2.972	5.43823
2.9725	23.96851
2.973	52.771
2.9735	70.59631
2.974	77.04163
2.9745	58.51135
2.975	50.95825
2.9755	33.13293
2.976	24.67346
2.9765	23.36426
2.977	24.47205
2.9775	18.53027
2.978	13.89771
2.9785	-2.01416
2.979	-29.30603
2.9795	-66.56799
2.98	-95.87402
2.9805	-112.69226
2.981	-116.11633
2.9815	-108.1604
2.982	-90.23438
2.9825	-63.54675
2.983	-32.7301
2.9835	7.04956
2.984	30.61523
2.9845	61.12976
2.985	94.06128
2.9855	114.90784
2.986	122.76306
2.9865	115.61279
2.987	101.61438
2.9875	88.72375
2.988	81.27136
2.9885	89.42871
2.989	100.50659
2.9895	116.51917
2.99	109.67102
2.9905	83.68835
2.991	60.4248
2.9915	37.96692
2.992	24.97559
2.9925	19.23523
2.993	-13.99841
2.9935	-28.70178
2.994	-38.47046
2.9945	-30.41382
2.995	-21.24939
2.9955	-7.95593
2.996	0.80566
2.9965	5.84106
2.997	1.71204
2.9975	-9.06372
2.998	0.40283
2.9985	20.94727
2.999	35.75134
2.9995	34.74426
3	6.44531
3.0005	-29.91028
3.001	-60.52551
3.0015	-67.07153
3.002	-64.85596
3.0025	-46.02356
3.003	-31.52161
3.0035	-36.55701
3.004	-58.30994
3.0045	-50.45471
3.005	-42.90161
3.0055	-37.66479
3.006	-37.36267
3.0065	-31.4209
3.007	-19.43665
3.0075	-11.38
3.008	-11.2793
3.0085	-10.77576
3.009	-11.07788
3.0095	-15.20691
3.01	-23.8678
3.0105	-34.74426
3.011	-35.54993
3.0115	-39.37683
3.012	-27.89612
3.0125	5.33752
3.013	29.10461
3.0135	39.57825
3.014	41.29028
3.0145	50.85754
3.015	62.03613
3.0155	69.38782
3.016	67.67578
3.0165	33.73718
3.017	8.56018
3.0175	-12.89062
3.018	-22.96143
3.0185	-22.6593
3.019	-13.29346
3.0195	-5.0354
3.02	6.84814
3.0205	21.04797
3.021	34.64355
3.0215	47.33276
3.022	51.86462
3.0225	49.64905
3.023	54.98657
3.0235	8.96301
3.024	-57.20215
3.0245	-119.84253
3.025	-142.19971
3.0255	-153.07617
3.026	-134.34448
3.0265	-95.87402
3.027	-61.73401
3.0275	-15.40833
3.028	32.22656
3.0285	71.30127
3.029	102.82288
3.0295	109.16748
3.03	106.44836
3.0305	85.29968
3.031	82.37915
3.0315	102.31934
3.032	104.4342
3.0325	90.13367
3.033	44.61365
3.0335	49.64905
3.034	75.63171
3.0345	75.83313
3.035	56.09436
3.0355	17.32178
3.036	-17.32178
3.0365	-28.70178
3.037	-16.81824
3.0375	-15.91187
3.038	-11.88354
3.0385	-9.76868
3.039	-16.3147
3.0395	-30.71594
3.04	-63.64746
3.0405	-74.52393
3.041	-91.745
3.0415	-94.2627
3.042	-87.21313
3.0425	-95.5719
3.043	-90.73792
3.0435	-76.84021
3.044	-46.02356
3.0445	-8.15735
3.045	32.62939
3.0455	65.66162
3.046	90.5365
3.0465	111.28235
3.047	122.46094
3.0475	116.922
3.048	113.29651
3.0485	105.74341
3.049	105.54199
3.0495	87.81738
3.05	57.10144
3.0505	21.85364
3.051	-10.57434
3.0515	-40.38391
3.052	-58.71277
3.0525	-63.34534
3.053	-49.85046
3.0535	-31.21948
3.054	-4.83398
3.0545	1.3092
3.055	-4.33044
3.0555	-6.94885
3.056	11.07788
3.0565	46.32568
3.057	69.58923
3.0575	85.90393
3.058	86.91101
3.0585	78.35083
3.059	60.52551
3.0595	43.90869
3.06	36.95984
3.0605	36.55701
3.061	11.17859
3.0615	-20.44373
3.062	-22.86072
3.0625	-34.74426
3.063	-53.97949
3.0635	-59.1156
3.064	-52.97241
3.0645	-37.7655
3.065	-20.64514
3.0655	-11.07788
3.066	-0.30212
3.0665	16.01257
3.067	28.60107
3.0675	45.3186
3.068	58.20923
3.0685	66.97083
3.069	55.2887
3.0695	45.2179
3.07	48.84338
3.0705	53.87878
3.071	46.72852
3.0715	29.50745
3.072	11.78284
3.0725	4.43115
3.073	20.54443
3.0735	5.74036
3.074	-16.91895
3.0745	-38.06763
3.075	-60.22339
3.0755	-84.79614
3.076	-94.06128
3.0765	-107.45544
3.077	-109.97314
3.0775	-87.21313
3.078	-75.93384
3.0785	-65.46021
3.079	-47.8363
3.0795	-29.30603
3.08	-1.40991
3.0805	0.40283
3.081	-9.97009
3.0815	-12.89062
3.082	-16.01257
3.0825	-0.50354
3.083	29.70886
3.0835	66.97083
3.084	73.91968
3.0845	94.96765
3.085	113.90076
3.0855	123.36731
3.086	111.68518
3.0865	97.78748
3.087	79.96216
3.0875	55.79224
3.088	19.43665
3.0885	-23.66638
3.089	-56.09436
3.0895	-98.99597
3.09	-181.87866
3.0905	-245.224
3.091	-263.75427
3.0915	-240.79285
3.092	-193.46008
3.0925	-154.88892
3.093	-116.11633
3.0935	-65.66162
3.094	-14.19983
3.0945	31.82373
3.095	69.38782
3.0955	95.26978
3.096	115.61279
3.0965	126.48926
3.097	131.72607
3.0975	103.22571
3.098	56.49719
3.0985	22.96143
3.099	8.25806
3.0995	7.15027
3.1	18.32886
3.1005	34.94568
3.101	56.29578
3.1015	63.74817
3.102	75.93384
3.1025	91.44287
3.103	91.94641
3.1035	60.62622
3.104	36.25488
3.1045	27.99683
3.105	57.60498
3.1055	128.20129
3.106	188.92822
3.1065	204.84009
3.107	184.79919
3.1075	156.29883
3.108	122.96448
3.1085	109.67102
3.109	100.6073
3.1095	92.95349
3.11	72.61047
3.1105	49.24622
3.111	1.2085
3.1115	-48.74268
3.112	-75.4303
3.1125	-81.67419
3.113	-81.47278
3.1135	-74.12109
3.114	-73.21472
3.1145	-78.85437
3.115	-103.02429
3.1155	-112.79297
3.116	-113.80005
3.1165	-124.17297
3.117	-141.79688
3.1175	-133.53882
3.118	-125.7843
3.1185	-104.93774
3.119	-82.88269
3.1195	-53.17383
3.12	-34.14001
3.1205	-18.32886
3.121	1.3092
3.1215	32.52869
3.122	62.74109
3.1225	75.02747
3.123	66.97083
3.1235	44.81506
3.124	15.40833
3.1245	-12.68921
3.125	-26.98975
3.1255	-16.3147
3.126	-0.80566
3.1265	-5.63965
3.127	3.52478
3.1275	21.85364
3.128	28.9032
3.1285	40.68604
3.129	45.82214
3.1295	33.03223
3.13	23.26355
3.1305	2.01416
3.131	-12.48779
3.1315	-27.89612
3.132	-42.19666
3.1325	-45.41931
3.133	-40.08179
3.1335	-16.11328
3.134	0.20142
3.1345	7.04956
3.135	17.32178
3.1355	20.54443
3.136	16.91895
3.1365	14.19983
3.137	17.72461
3.1375	30.71594
3.138	37.56409
3.1385	49.0448
3.139	51.66321
3.1395	70.69702
3.14	87.11243
3.1405	91.34216
3.141	84.09119
3.1415	73.41614
3.142	41.59241
3.1425	1.61133
3.143	-17.72461
3.1435	-19.94019
3.144	-5.23682
3.1445	8.8623
3.145	6.64673
3.1455	-0.30212
3.146	-10.97717
3.1465	-16.21399
3.147	-12.89062
3.1475	-8.56018
3.148	-14.80408
3.1485	-29.10461
3.149	-28.70178
3.1495	-11.2793
3.15	18.53027
3.1505	47.53418
3.151	60.62622
3.1515	53.47595
3.152	48.23914
3.1525	47.63489
3.153	3.7262
3.1535	-43.80798
3.154	-63.14392
3.1545	-66.46729
3.155	-62.74109
3.1555	-45.72144
3.156	-39.88037
3.1565	-26.98975
3.157	-18.73169
3.1575	-10.0708
3.158	7.45239
3.1585	9.16443
3.159	2.5177
3.1595	-11.68213
3.16	-31.62231
3.1605	-37.46338
3.161	-47.23206
3.1615	-62.9425
3.162	-79.15649
3.1625	-70.69702
3.163	-54.98657
3.1635	-70.89844
3.164	-74.82605
3.1645	-60.12268
3.165	-26.68762
3.1655	-0.40283
3.166	49.44763
3.1665	99.90234
3.167	149.24927
3.1675	173.92273
3.168	180.77087
3.1685	159.92432
3.169	129.20837
3.1695	106.9519
3.17	79.45862
3.1705	43.90869
3.171	-10.67505
3.1715	-74.52393
3.172	-91.04004
3.1725	-76.94092
3.173	-69.1864
3.1735	-55.59082
3.174	-21.24939
3.1745	15.30762
3.175	41.08887
3.1755	46.92993
3.176	53.57666
3.1765	55.89294
3.177	42.39807
3.1775	19.63806
3.178	-11.48071
3.1785	-32.32727
3.179	-46.72852
3.1795	-48.03772
3.18	-11.2793
3.1805	28.50037
3.181	32.22656
3.1815	41.69312
3.182	54.78516
3.1825	69.89136
3.183	74.32251
3.1835	56.90002
3.184	37.56409
3.1845	24.47205
3.185	15.40833
3.1855	2.61841
3.186	-12.18567
3.1865	-19.03381
3.187	-7.5531
3.1875	18.53027
3.188	42.29736
3.1885	50.2533
3.189	50.45471
3.1895	39.67896
3.19	22.96143
3.1905	-2.01416
3.191	-17.72461
3.1915	-27.49329
3.192	-22.6593
3.1925	-17.82532
3.193	-10.57434
3.1935	5.53894
3.194	19.23523
3.1945	17.22107
3.195	5.23682
3.1955	5.94177
3.196	2.21558
3.1965	-10.37292
3.197	-32.02515
3.1975	-58.41064
3.198	-70.19348
3.1985	-75.02747
3.199	-56.90002
3.1995	-29.20532
3.2	-34.44214
3.2005	-49.34692
3.201	-64.65454
3.2015	-70.59631
3.202	-57.30286
3.2025	-34.54285
3.203	-4.22974
3.2035	16.01257
3.204	38.67188
3.2045	46.92993
3.205	52.67029
3.2055	43.10303
3.206	31.52161
3.2065	43.50586
3.207	45.92285
3.2075	34.03931
3.208	30.31311
3.2085	26.68762
3.209	28.60107
3.2095	24.67346
3.21	42.19666
3.2105	65.76233
3.211	62.9425
3.2115	50.85754
3.212	30.81665
3.2125	-2.61841
3.213	-28.70178
3.2135	-51.26038
3.214	-60.12268
3.2145	-49.64905
3.215	-44.0094
3.2155	-20.64514
3.216	0.20142
3.2165	1.61133
3.217	5.74036
3.2175	28.29895
3.218	54.38232
3.2185	73.61755
3.219	75.02747
3.2195	67.47437
3.22	59.92126
3.2205	43.40515
3.221	18.63098
3.2215	-46.12427
3.222	-95.67261
3.2225	-118.33191
3.223	-119.23828
3.2235	-92.55066
3.224	-61.53259
3.2245	-32.93152
3.225	-4.63257
3.2255	16.21399
3.226	42.49878
3.2265	59.71985
3.227	34.44214
3.2275	-11.58142
3.228	-42.29736
3.2285	-50.65613
3.229	-50.75684
3.2295	-63.24463
3.23	-67.8772
3.2305	-57.70569
3.231	-32.02515
3.2315	-7.15027
3.232	29.10461
3.2325	64.35242
3.233	97.38464
3.2335	123.16589
3.234	143.3075
3.2345	155.79529
3.235	149.85352
3.2355	147.53723
3.236	145.01953
3.2365	131.32324
3.237	112.89368
3.2375	112.89368
3.238	110.27527
3.2385	89.22729
3.239	75.63171
3.2395	47.33276
3.24	39.57825
3.2405	19.63806
3.241	-11.78284
3.2415	-35.34851
3.242	-54.98657
3.2425	-60.92834
3.243	-35.44922
3.2435	-6.74744
3.244	23.06213
3.2445	37.46338
3.245	43.90869
3.2455	32.7301
3.246	14.09912
3.2465	-5.43823
3.247	-19.13452
3.2475	-49.44763
3.248	-72.71118
3.2485	-92.65137
3.249	-102.01721
3.2495	-99.80164
3.25	-90.33508
3.2505	-82.58057
3.251	-74.82605
3.2515	-67.17224
3.252	-52.56958
3.2525	-48.44055
3.253	-98.19031
3.2535	-166.77246
3.254	-192.55371
3.2545	-189.33105
3.255	-166.77246
3.2555	-129.40979
3.256	-83.68835
3.2565	-40.08179
3.257	19.63806
3.2575	89.93225
3.258	140.08484
3.2585	172.3114
3.259	177.74963
3.2595	166.87317
3.26	148.74573
3.2605	129.71191
3.261	108.05969
3.2615	88.52234
3.262	75.02747
3.2625	57.30286
3.263	48.54126
3.2635	27.39258
3.264	-0.60425
3.2645	-16.01257
3.265	-34.74426
3.2655	-41.29028
3.266	-42.90161
3.2665	-43.10303
3.267	-41.08887
3.2675	-32.93152
3.268	-22.05505
3.2685	-3.32336
3.269	-10.57434
3.2695	-22.76001
3.27	-35.14709
3.2705	-42.59949
3.271	-70.49561
3.2715	-73.51685
3.272	-65.46021
3.2725	-42.7002
3.273	-19.94019
3.2735	2.5177
3.274	28.60107
3.2745	59.1156
3.275	82.9834
3.2755	90.73792
3.276	78.35083
3.2765	70.19348
3.277	60.22339
3.2775	53.97949
3.278	41.69312
3.2785	35.54993
3.279	25.88196
3.2795	16.81824
3.28	13.49487
3.2805	14.19983
3.281	-4.12903
3.2815	-2.81982
3.282	9.26514
3.2825	11.78284
3.283	3.8269
3.2835	10.77576
3.284	11.48071
3.2845	15.60974
3.285	16.41541
3.2855	19.03381
3.286	28.39966
3.2865	29.70886
3.287	24.27063
3.2875	20.74585
3.288	25.27771
3.2885	27.19116
3.289	18.93311
3.2895	23.66638
3.29	26.98975
3.2905	19.13452
3.291	-3.8269
3.2915	-24.67346
3.292	-40.48462
3.2925	-47.23206
3.293	-63.44604
3.2935	-90.83862
3.294	-137.36572
3.2945	-181.87866
3.295	-196.78345
3.2955	-177.95105
3.296	-126.08643
3.2965	-64.151
3.297	-9.86938
3.2975	26.3855
3.298	38.16833
3.2985	42.09595
3.299	49.14551
3.2995	46.72852
3.3	46.5271
3.3005	45.72144
3.301	51.86462
3.3015	70.99915
3.302	78.04871
3.3025	91.44287
3.303	97.78748
3.3035	93.25562
3.304	105.34058
3.3045	120.64819
3.305	129.5105
3.3055	142.19971
3.306	151.96838
3.3065	136.86218
3.307	121.15173
3.3075	97.48535
3.308	80.4657
3.3085	57.30286
3.309	34.34143
3.3095	10.47363
3.31	-2.5177
3.3105	-16.41541
3.311	-28.39966
3.3115	-34.74426
3.312	-27.6947
3.3125	-15.50903
3.313	0.70496
3.3135	-0.20142
3.314	-10.57434
3.3145	-0.10071
3.315	24.27063
3.3155	38.87329
3.316	48.23914
3.3165	48.54126
3.317	43.80798
3.3175	31.62231
3.318	29.70886
3.3185	22.35718
3.319	18.42957
3.3195	10.47363
3.32	0.20142
3.3205	-20.44373
3.321	-33.13293
3.3215	-37.96692
3.322	-42.39807
3.3225	-45.2179
3.323	-49.85046
3.3235	-56.09436
3.324	-57.40356
3.3245	-56.79932
3.325	-63.24463
3.3255	-47.23206
3.326	-24.97559
3.3265	1.71204
3.327	1.51062
3.3275	-8.35876
3.328	-39.57825
3.3285	-54.48303
3.329	-43.70728
3.3295	-27.99683
3.33	-29.91028
3.3305	-54.98657
3.331	-77.54517
3.3315	-78.25012
3.332	-84.99756
3.3325	-86.20605
3.333	-76.03455
3.3335	-73.11401
3.334	-77.14233
3.3345	-79.45862
3.335	-56.29578
3.3355	-42.49878
3.336	-31.32019
3.3365	-14.50195
3.337	12.78992
3.3375	20.04089
3.338	36.25488
3.3385	62.13684
3.339	78.85437
3.3395	92.55066
3.34	99.49951
3.3405	111.08093
3.341	122.25952
3.3415	124.27368
3.342	112.39014
3.3425	91.94641
3.343	58.81348
3.3435	29.00391
3.344	9.86938
3.3445	-8.96301
3.345	-32.12585
3.3455	-60.22339
3.346	-75.32959
3.3465	-80.96924
3.347	-75.22888
3.3475	-62.43896
3.348	-48.74268
3.3485	-31.32019
3.349	-2.41699
3.3495	23.36426
3.35	52.67029
3.3505	66.87012
3.351	60.02197
3.3515	54.98657
3.352	48.44055
3.3525	51.46179
3.353	56.29578
3.3535	35.54993
3.354	8.56018
3.3545	8.15735
3.355	10.67505
3.3555	11.2793
3.356	13.39417
3.3565	12.48779
3.357	-35.95276
3.3575	-107.95898
3.358	-134.04236
3.3585	-113.80005
3.359	-87.11243
3.3595	-66.97083
3.36	-61.6333
3.3605	-52.06604
3.361	-26.58691
3.3615	-2.21558
3.362	19.13452
3.3625	33.23364
3.363	34.14001
3.3635	46.12427
3.364	89.02588
3.3645	110.17456
3.365	115.00854
3.3655	105.03845
3.366	70.49561
3.3665	28.9032
3.367	-3.7262
3.3675	-10.37292
3.368	-5.84106
3.3685	-8.25806
3.369	7.25098
3.3695	16.91895
3.37	6.44531
3.3705	-6.04248
3.371	-3.92761
3.3715	6.3446
3.372	21.3501
3.3725	35.2478
3.373	42.7002
3.3735	38.77258
3.374	32.02515
3.3745	12.5885
3.375	1.61133
3.3755	0.60425
3.376	23.16284
3.3765	41.89453
3.377	61.02905
3.3775	92.75208
3.378	133.13599
3.3785	166.87317
3.379	176.54114
3.3795	148.4436
3.38	116.61987
3.3805	95.5719
3.381	52.56958
3.3815	-3.22266
3.382	-41.69312
3.3825	-63.24463
3.383	-73.61755
3.3835	-85.40039
3.384	-88.72375
3.3845	-74.02039
3.385	-63.04321
3.3855	-40.48462
3.386	-34.54285
3.3865	-30.2124
3.387	-28.60107
3.3875	-25.07629
3.388	-19.43665
3.3885	-19.13452
3.389	-21.14868
3.3895	-23.8678
3.39	-24.97559
3.3905	-20.34302
3.391	-19.03381
3.3915	-14.19983
3.392	-3.52478
3.3925	14.19983
3.393	18.8324
3.3935	17.22107
3.394	27.89612
3.3945	39.27612
3.395	43.30444
3.3955	-5.74036
3.396	-93.15491
3.3965	-152.97546
3.397	-176.54114
3.3975	-168.58521
3.398	-145.9259
3.3985	-127.49634
3.399	-114.20288
3.3995	-101.51367
3.4	-69.68994
3.4005	-37.46338
3.401	0.50354
3.4015	51.46179
3.402	76.94092
3.4025	90.23438
3.403	88.62305
3.4035	87.71667
3.404	93.65845
3.4045	83.68835
3.405	70.19348
3.4055	65.76233
3.406	63.14392
3.4065	50.65613
3.407	18.42957
3.4075	-8.05664
3.408	-27.79541
3.4085	-57.30286
3.409	-106.8512
3.4095	-137.46643
3.41	-139.68201
3.4105	-105.94482
3.411	-54.78516
3.4115	-0.20142
3.412	35.04639
3.4125	51.66321
3.413	57.30286
3.4135	100.40588
3.414	146.73157
3.4145	168.18237
3.415	187.61902
3.4155	202.32239
3.416	202.5238
3.4165	188.12256
3.417	131.62537
3.4175	83.58765
3.418	43.40515
3.4185	-21.14868
3.419	-84.49402
3.4195	-125.28076
3.42	-147.1344
3.4205	-147.1344
3.421	-129.10767
3.4215	-94.06128
3.422	-46.02356
3.4225	-32.42798
3.423	-35.14709
3.4235	-42.7002
3.424	-50.75684
3.4245	-45.72144
3.425	-25.37842
3.4255	-14.40125
3.426	-5.63965
3.4265	6.54602
3.427	3.8269
3.4275	5.43823
3.428	1.71204
3.4285	21.24939
3.429	25.98267
3.4295	9.16443
3.43	-13.39417
3.4305	7.85522
3.431	62.8418
3.4315	89.83154
3.432	76.23596
3.4325	67.67578
3.433	35.75134
3.4335	20.04089
3.434	1.00708
3.4345	-13.49487
3.435	-14.09912
3.4355	3.32336
3.436	5.0354
3.4365	5.74036
3.437	21.55151
3.4375	49.64905
3.438	69.99207
3.4385	86.50818
3.439	89.83154
3.4395	92.85278
3.44	101.71509
3.4405	96.7804
3.441	89.328
3.4415	79.76074
3.442	72.30835
3.4425	64.25171
3.443	60.12268
3.4435	45.41931
3.444	18.73169
3.4445	-7.35168
3.445	-30.81665
3.4455	-26.58691
3.446	-4.33044
3.4465	13.19275
3.447	37.66479
3.4475	40.38391
3.448	33.43506
3.4485	27.6947
3.449	36.75842
3.4495	26.78833
3.45	3.8269
3.4505	-39.17542
3.451	-57.8064
3.4515	-65.56091
3.452	-72.20764
3.4525	-68.38074
3.453	-54.28162
3.4535	-35.34851
3.454	-26.98975
3.4545	-23.46497
3.455	-14.19983
3.4555	-14.60266
3.456	-11.98425
3.4565	-37.86621
3.457	-54.28162
3.4575	-50.45471
3.458	-44.11011
3.4585	-25.177
3.459	2.21558
3.4595	24.77417
3.46	12.18567
3.4605	-13.69629
3.461	-23.36426
3.4615	6.74744
3.462	32.42798
3.4625	19.73877
3.463	-4.33044
3.4635	-37.36267
3.464	-78.25012
3.4645	-145.01953
3.465	-199.60327
3.4655	-218.73779
3.466	-198.29407
3.4665	-161.23352
3.467	-106.24695
3.4675	-42.8009
3.468	8.96301
3.4685	66.76941
3.469	123.77014
3.4695	160.9314
3.47	191.64734
3.4705	184.39636
3.471	190.33813
3.4715	189.63318
3.472	179.56238
3.4725	164.35547
3.473	138.87634
3.4735	133.13599
3.474	132.73315
3.4745	129.81262
3.475	124.17297
3.4755	124.27368
3.476	122.15881
3.4765	102.82288
3.477	98.59314
3.4775	98.29102
3.478	88.42163
3.4785	66.76941
3.479	40.98816
3.4795	15.71045
3.48	-38.87329
3.4805	-102.92358
3.481	-197.18628
3.4815	-271.91162
3.482	-326.29395
3.4825	-324.17908
3.483	-299.50562
3.4835	-267.37976
3.484	-247.94312
3.4845	-236.56311
3.485	-210.27832
3.4855	-138.97705
3.486	-79.86145
3.4865	-43.90869
3.487	3.02124
3.4875	54.48303
3.488	102.72217
3.4885	132.33032
3.489	142.50183
3.4895	155.69458
3.49	168.4845
3.4905	160.9314
3.491	155.9967
3.4915	143.71033
3.492	131.72607
3.4925	115.41138
3.493	113.80005
3.4935	114.80713
3.494	114.90784
3.4945	105.34058
3.495	109.77173
3.4955	91.745
3.496	81.67419
3.4965	55.08728
3.497	46.32568
3.4975	47.33276
3.498	42.49878
3.4985	29.20532
3.499	6.54602
3.4995	1.61133
3.5	-5.43823
3.5005	-5.84106
3.501	-16.11328
3.5015	-20.44373
3.502	-22.6593
3.5025	-20.64514
3.503	-22.6593
3.5035	-28.39966
3.504	-41.89453
3.5045	-48.94409
3.505	-64.75525
3.5055	-69.89136
3.506	-64.25171
3.5065	-43.40515
3.507	-18.63098
3.5075	0.80566
3.508	2.92053
3.5085	-15.71045
3.509	-31.72302
3.5095	-35.04639
3.51	-28.60107
3.5105	-20.24231
3.511	-12.68921
3.5115	-4.83398
3.512	8.96301
3.5125	33.63647
3.513	50.05188
3.5135	64.151
3.514	72.61047
3.5145	78.14941
3.515	81.27136
3.5155	72.00623
3.516	61.53259
3.5165	40.88745
3.517	24.97559
3.5175	7.75452
3.518	2.5177
3.5185	8.45947
3.519	22.25647
3.5195	14.40125
3.52	-6.3446
3.5205	-17.82532
3.521	-31.21948
3.5215	-48.94409
3.522	-62.33826
3.5225	-54.68445
3.523	-59.1156
3.5235	-63.04321
3.524	-58.30994
3.5245	-60.22339
3.525	-61.23047
3.5255	-81.7749
3.526	-116.11633
3.5265	-139.5813
3.527	-149.85352
3.5275	-122.25952
3.528	-75.22888
3.5285	-44.31152
3.529	-18.32886
3.5295	-4.53186
3.53	3.52478
3.5305	12.5885
3.531	24.16992
3.5315	16.41541
3.532	-34.03931
3.5325	-77.74658
3.533	-92.14783
3.5335	-67.97791
3.534	-22.55859
3.5345	22.15576
3.535	74.72534
3.5355	125.18005
3.536	182.48291
3.5365	219.44275
3.537	208.46558
3.5375	175.53406
3.538	126.69067
3.5385	82.78198
3.539	65.15808
3.5395	75.02747
3.54	70.89844
3.5405	51.76392
3.541	40.78674
3.5415	38.974
3.542	55.18799
3.5425	72.00623
3.543	70.69702
3.5435	58.91418
3.544	39.88037
3.5445	11.98425
3.545	-10.97717
3.5455	-5.43823
3.546	18.53027
3.5465	32.93152
3.547	18.8324
3.5475	-6.2439
3.548	-32.93152
3.5485	-42.90161
3.549	-46.5271
3.5495	-42.09595
3.55	-35.95276
3.5505	-46.42639
3.551	-71.40198
3.5515	-93.55774
3.552	-108.86536
3.5525	-119.84253
3.553	-113.29651
3.5535	-101.61438
3.554	-84.19189
3.5545	-66.56799
3.555	-66.26587
3.5555	-59.82056
3.556	-47.8363
3.5565	-7.35168
3.557	24.87488
3.5575	42.59949
3.558	35.65063
3.5585	3.02124
3.559	-16.51611
3.5595	-21.65222
3.56	-24.97559
3.5605	-19.83948
3.561	-7.75452
3.5615	9.16443
3.562	22.55859
3.5625	51.76392
3.563	64.55383
3.5635	75.73242
3.564	86.40747
3.5645	99.60022
3.565	107.05261
3.5655	110.77881
3.566	101.61438
3.5665	78.95508
3.567	54.28162
3.5675	38.974
3.568	31.01807
3.5685	-7.65381
3.569	-35.54993
3.5695	-44.21082
3.57	-33.63647
3.5705	-12.18567
3.571	6.14319
3.5715	18.42957
3.572	31.92444
3.5725	69.1864
3.573	92.65137
3.5735	106.9519
3.574	110.27527
3.5745	104.23279
3.575	79.96216
3.5755	62.53967
3.576	33.63647
3.5765	-1.71204
3.577	-15.50903
3.5775	-7.95593
3.578	-5.84106
3.5785	-25.98267
3.579	-52.06604
3.5795	-48.13843
3.58	-32.62939
3.5805	-26.18408
3.581	-16.81824
3.5815	-11.38
3.582	-10.97717
3.5825	-21.24939
3.583	-50.85754
3.5835	-81.87561
3.584	-96.47827
3.5845	-81.37207
3.585	-52.26746
3.5855	0.50354
3.586	19.94019
3.5865	14.19983
3.587	-11.07788
3.5875	-25.47913
3.588	-27.99683
3.5885	-30.2124
3.589	-66.87012
3.5895	-106.34766
3.59	-133.84094
3.5905	-141.49475
3.591	-102.31934
3.5915	-49.14551
3.592	11.2793
3.5925	54.38232
3.593	105.84412
3.5935	146.12732
3.594	162.2406
3.5945	152.1698
3.595	140.78979
3.5955	102.31934
3.596	69.68994
3.5965	54.68445
3.597	56.19507
3.5975	46.22498
3.598	33.33435
3.5985	18.53027
3.599	0.10071
3.5995	-13.59558
3.6	-2.11487
3.6005	-9.06372
3.601	7.65381
3.6015	34.84497
3.602	67.37366
3.6025	96.8811
3.603	89.52942
3.6035	83.99048
3.604	74.52393
3.6045	81.47278
3.605	83.88977
3.6055	81.27136
3.606	60.92834
3.6065	32.93152
3.607	16.61682
3.6075	2.71912
3.608	-6.74744
3.6085	-24.37134
3.609	-59.01489
3.6095	-97.58606
3.61	-122.96448
3.6105	-143.71033
3.611	-147.33582
3.6115	-143.20679
3.612	-125.38147
3.6125	-94.96765
3.613	-69.48853
3.6135	-45.01648
3.614	-32.83081
3.6145	-23.56567
3.615	-21.75293
3.6155	-20.04089
3.616	-16.21399
3.6165	-15.91187
3.617	-16.11328
3.6175	-17.32178
3.618	-15.60974
3.6185	-21.85364
3.619	-39.57825
3.6195	-46.02356
3.62	-55.79224
3.6205	-63.44604
3.621	-73.01331
3.6215	-84.99756
3.622	-84.2926
3.6225	-68.68286
3.623	-29.80957
3.6235	17.12036
3.624	42.29736
3.6245	48.33984
3.625	43.00232
3.6255	53.77808
3.626	65.05737
3.6265	78.85437
3.627	112.39014
3.6275	149.34998
3.628	165.56396
3.6285	155.19104
3.629	143.20679
3.6295	128.60413
3.63	95.47119
3.6305	55.99365
3.631	34.24072
3.6315	24.77417
3.632	18.73169
3.6325	10.57434
3.633	32.42798
3.6335	61.33118
3.634	53.67737
3.6345	22.05505
3.635	9.86938
3.6355	5.33752
3.636	0
3.6365	-1.2085
3.637	0.10071
3.6375	-15.00549
3.638	-37.66479
3.6385	-39.77966
3.639	-25.27771
3.6395	-7.75452
3.64	0.30212
3.6405	0.70496
3.641	-7.35168
3.6415	-23.06213
3.642	-47.53418
3.6425	-61.53259
3.643	-67.07153
3.6435	-67.17224
3.644	-48.33984
3.6445	-21.75293
3.645	-9.86938
3.6455	-8.15735
3.646	-49.0448
3.6465	-88.0188
3.647	-121.25244
3.6475	-120.44678
3.648	-93.65845
3.6485	-47.43347
3.649	-10.87646
3.6495	32.52869
3.65	88.42163
3.6505	137.26501
3.651	165.46326
3.6515	167.37671
3.652	162.13989
3.6525	146.02661
3.653	121.05103
3.6535	117.82837
3.654	108.05969
3.6545	93.25562
3.655	71.40198
3.6555	59.82056
3.656	44.21082
3.6565	27.09045
3.657	18.8324
3.6575	16.71753
3.658	13.49487
3.6585	18.02673
3.659	17.92603
3.6595	11.2793
3.66	5.33752
3.6605	-10.87646
3.661	-25.47913
3.6615	-38.06763
3.662	-42.09595
3.6625	-52.46887
3.663	-58.41064
3.6635	-69.08569
3.664	-59.51843
3.6645	-33.03223
3.665	7.35168
3.6655	39.77966
3.666	46.62781
3.6665	14.40125
3.667	-10.87646
3.6675	-27.89612
3.668	-27.39258
3.6685	-48.94409
3.669	-116.61987
3.6695	-186.51123
3.67	-219.74487
3.6705	-235.85815
3.671	-248.9502
3.6715	-226.79443
3.672	-200.0061
3.6725	-181.27441
3.673	-180.77087
3.6735	-152.87476
3.674	-105.03845
3.6745	-44.41223
3.675	7.45239
3.6755	59.21631
3.676	134.44519
3.6765	189.9353
3.677	208.96912
3.6775	208.7677
3.678	192.85583
3.6785	172.81494
3.679	155.29175
3.6795	137.66785
3.68	156.29883
3.6805	182.68433
3.681	193.25867
3.6815	173.41919
3.682	127.49634
3.6825	57.30286
3.683	28.50037
3.6835	34.44214
3.684	12.5885
3.6845	-18.22815
3.685	-17.22107
3.6855	-6.14319
3.686	-8.8623
3.6865	1.00708
3.687	0.60425
3.6875	-8.15735
3.688	-44.11011
3.6885	-69.48853
3.689	-87.91809
3.6895	-96.07544
3.69	-90.03296
3.6905	-69.38782
3.691	-38.87329
3.6915	-17.72461
3.692	-25.78125
3.6925	-12.99133
3.693	3.62549
3.6935	18.63098
3.694	37.86621
3.6945	37.36267
3.695	14.70337
3.6955	11.88354
3.696	10.97717
3.6965	25.98267
3.697	43.80798
3.6975	53.97949
3.698	65.76233
3.6985	51.46179
3.699	27.59399
3.6995	-7.75452
3.7	-23.16284
3.7005	-33.23364
3.701	-17.6239
3.7015	12.48779
3.702	66.16516
3.7025	123.97156
3.703	164.25476
3.7035	173.21777
3.704	161.73706
3.7045	137.66785
3.705	92.44995
3.7055	42.90161
3.706	16.21399
3.7065	-43.90869
3.707	-126.08643
3.7075	-171.90857
3.708	-187.92114
3.7085	-183.08716
3.709	-179.05884
3.7095	-161.43494
3.71	-124.07227
3.7105	-72.30835
3.711	-14.19983
3.7115	24.47205
3.712	47.53418
3.7125	59.51843
3.713	53.67737
3.7135	36.35559
3.714	40.78674
3.7145	41.39099
3.715	36.75842
3.7155	24.27063
3.716	6.94885
3.7165	0.60425
3.717	-0.80566
3.7175	10.0708
3.718	18.22815
3.7185	34.64355
3.719	53.97949
3.7195	48.84338
3.72	62.03613
3.7205	57.20215
3.721	30.91736
3.7215	-5.94177
3.722	-24.37134
3.7225	-35.75134
3.723	-38.57117
3.7235	-41.29028
3.724	-35.85205
3.7245	-24.06921
3.725	-36.4563
3.7255	-64.75525
3.726	-91.44287
3.7265	-109.16748
3.727	-112.18872
3.7275	-100.90942
3.728	-84.19189
3.7285	-64.35242
3.729	-48.94409
3.7295	-35.54993
3.73	-21.75293
3.7305	-14.80408
3.731	11.17859
3.7315	31.21948
3.732	56.49719
3.7325	87.41455
3.733	100.20447
3.7335	114.20288
3.734	117.42554
3.7345	119.94324
3.735	121.25244
3.7355	120.44678
3.736	123.66943
3.7365	98.0896
3.737	49.85046
3.7375	5.74036
3.738	-12.38708
3.7385	-12.38708
3.739	-49.0448
3.7395	-91.745
3.74	-103.125
3.7405	-76.43738
3.741	-58.61206
3.7415	-38.36975
3.742	-23.36426
3.7425	-11.17859
3.743	20.84656
3.7435	70.29419
3.744	107.35474
3.7445	105.34058
3.745	117.72766
3.7455	113.09509
3.746	104.53491
3.7465	76.23596
3.747	65.66162
3.7475	32.22656
3.748	2.41699
3.7485	-17.92603
3.749	-38.67188
3.7495	-33.13293
3.75	-20.1416
3.7505	-32.52869
3.751	-40.38391
3.7515	-46.5271
3.752	-46.72852
3.7525	-36.35559
3.753	2.5177
3.7535	52.46887
3.754	94.3634
3.7545	105.34058
3.755	115.41138
3.7555	124.87793
3.756	108.46252
3.7565	75.93384
3.757	45.2179
3.7575	36.55701
3.758	13.19275
3.7585	-42.19666
3.759	-109.87244
3.7595	-155.896
3.76	-154.18396
3.7605	-129.40979
3.761	-105.13916
3.7615	-92.24854
3.762	-69.1864
3.7625	-30.91736
3.763	5.43823
3.7635	64.35242
3.764	115.7135
3.7645	151.66626
3.765	157.10449
3.7655	151.36414
