Antonio_Festa_Right_2.c3d  



Time(s):	B_R_bicipite(μV):
0	1.71204
0.0005	5.33752
0.001	3.52478
0.0015	-1.51062
0.002	-2.21558
0.0025	-0.80566
0.003	1.91345
0.0035	0.80566
0.004	3.62549
0.0045	5.0354
0.005	1.3092
0.0055	7.04956
0.006	7.95593
0.0065	4.73328
0.007	3.42407
0.0075	5.0354
0.008	7.25098
0.0085	9.46655
0.009	5.33752
0.0095	4.22974
0.01	5.33752
0.0105	4.02832
0.011	5.0354
0.0115	9.66797
0.012	0.90637
0.0125	6.74744
0.013	13.19275
0.0135	12.68921
0.014	7.15027
0.0145	9.16443
0.015	12.5885
0.0155	3.12195
0.016	2.31628
0.0165	6.44531
0.017	2.92053
0.0175	5.63965
0.018	5.53894
0.0185	6.44531
0.019	5.13611
0.0195	6.14319
0.02	5.53894
0.0205	8.15735
0.021	1.91345
0.0215	1.81274
0.022	3.7262
0.0225	5.33752
0.023	7.15027
0.0235	9.26514
0.024	6.94885
0.0245	10.27222
0.025	6.94885
0.0255	9.76868
0.026	4.33044
0.0265	6.74744
0.027	2.11487
0.0275	1.51062
0.028	1.91345
0.0285	6.84814
0.029	10.17151
0.0295	5.53894
0.03	9.76868
0.0305	16.11328
0.031	7.15027
0.0315	2.01416
0.032	7.15027
0.0325	6.14319
0.033	5.33752
0.0335	-0.70496
0.034	6.04248
0.0345	6.04248
0.035	8.25806
0.0355	7.35168
0.036	5.53894
0.0365	7.75452
0.037	2.11487
0.0375	5.0354
0.038	5.23682
0.0385	5.33752
0.039	5.74036
0.0395	9.26514
0.04	8.7616
0.0405	5.63965
0.041	10.17151
0.0415	3.32336
0.042	5.43823
0.0425	12.28638
0.043	6.04248
0.0435	9.16443
0.044	1.61133
0.0445	5.43823
0.045	1.51062
0.0455	5.33752
0.046	7.04956
0.0465	8.15735
0.047	7.85522
0.0475	8.15735
0.048	3.22266
0.0485	9.86938
0.049	10.47363
0.0495	13.39417
0.05	10.27222
0.0505	5.13611
0.051	4.63257
0.0515	10.37292
0.052	7.5531
0.0525	9.46655
0.053	10.17151
0.0535	8.05664
0.054	6.14319
0.0545	10.37292
0.055	5.23682
0.0555	11.78284
0.056	12.08496
0.0565	7.65381
0.057	5.94177
0.0575	11.48071
0.058	9.56726
0.0585	11.2793
0.059	11.58142
0.0595	9.86938
0.06	8.56018
0.0605	3.22266
0.061	6.84814
0.0615	9.97009
0.062	4.93469
0.0625	6.44531
0.063	9.36584
0.0635	3.22266
0.064	10.17151
0.0645	9.56726
0.065	7.04956
0.0655	6.14319
0.066	4.63257
0.0665	6.04248
0.067	-1.51062
0.0675	2.31628
0.068	9.46655
0.0685	5.33752
0.069	6.84814
0.0695	6.2439
0.07	-2.21558
0.0705	7.15027
0.071	5.33752
0.0715	6.74744
0.072	2.92053
0.0725	2.5177
0.073	4.53186
0.0735	4.53186
0.074	8.7616
0.0745	10.27222
0.075	10.27222
0.0755	9.36584
0.076	10.0708
0.0765	6.04248
0.077	6.74744
0.0775	7.04956
0.078	4.22974
0.0785	5.0354
0.079	7.65381
0.0795	3.12195
0.08	6.84814
0.0805	8.56018
0.081	9.56726
0.0815	6.74744
0.082	7.25098
0.0825	6.3446
0.083	6.2439
0.0835	7.04956
0.084	9.66797
0.0845	11.2793
0.085	11.07788
0.0855	6.64673
0.086	4.73328
0.0865	15.00549
0.087	8.15735
0.0875	8.56018
0.088	7.25098
0.0885	1.91345
0.089	4.22974
0.0895	2.81982
0.09	4.93469
0.0905	3.62549
0.091	8.8623
0.0915	5.84106
0.092	6.64673
0.0925	4.02832
0.093	1.51062
0.0935	2.71912
0.094	4.43115
0.0945	0.50354
0.095	5.43823
0.0955	0.60425
0.096	1.91345
0.0965	1.51062
0.097	2.41699
0.0975	1.91345
0.098	3.32336
0.0985	-2.61841
0.099	5.0354
0.0995	3.52478
0.1	1.51062
0.1005	3.02124
0.101	1.51062
0.1015	3.42407
0.102	3.8269
0.1025	0
0.103	2.92053
0.1035	1.51062
0.104	0.80566
0.1045	1.81274
0.105	-1.3092
0.1055	0.10071
0.106	2.31628
0.1065	9.06372
0.107	4.43115
0.1075	0.90637
0.108	4.93469
0.1085	0.20142
0.109	-2.31628
0.1095	0.40283
0.11	-0.60425
0.1105	2.81982
0.111	1.40991
0.1115	-2.92053
0.112	2.61841
0.1125	-3.02124
0.113	-3.8269
0.1135	-1.2085
0.114	-3.22266
0.1145	4.83398
0.115	1.3092
0.1155	-0.70496
0.116	3.62549
0.1165	6.14319
0.117	0.50354
0.1175	3.12195
0.118	-3.02124
0.1185	5.43823
0.119	3.02124
0.1195	3.22266
0.12	2.92053
0.1205	4.53186
0.121	3.42407
0.1215	8.15735
0.122	5.63965
0.1225	6.84814
0.123	5.23682
0.1235	4.33044
0.124	11.38
0.1245	9.06372
0.125	3.32336
0.1255	5.43823
0.126	8.96301
0.1265	5.63965
0.127	6.44531
0.1275	6.54602
0.128	11.78284
0.1285	9.76868
0.129	13.99841
0.1295	7.35168
0.13	6.14319
0.1305	9.76868
0.131	6.14319
0.1315	5.23682
0.132	1.91345
0.1325	1.91345
0.133	0.60425
0.1335	3.02124
0.134	2.31628
0.1345	-0.60425
0.135	-0.30212
0.1355	1.00708
0.136	0.40283
0.1365	1.2085
0.137	3.22266
0.1375	6.44531
0.138	1.91345
0.1385	-0.20142
0.139	4.12903
0.1395	2.5177
0.14	1.40991
0.1405	-3.62549
0.141	-0.90637
0.1415	-5.63965
0.142	-8.8623
0.1425	-9.76868
0.143	-9.16443
0.1435	-12.28638
0.144	-10.57434
0.1445	-10.47363
0.145	-12.99133
0.1455	-24.06921
0.146	-54.88586
0.1465	-73.91968
0.147	-93.45703
0.1475	-96.37756
0.148	-99.80164
0.1485	-109.67102
0.149	-111.18164
0.1495	-106.75049
0.15	-101.9165
0.1505	-99.09668
0.151	-87.71667
0.1515	-76.7395
0.152	-65.25879
0.1525	-42.29736
0.153	-18.63098
0.1535	3.7262
0.154	34.03931
0.1545	51.66321
0.155	81.37207
0.1555	93.85986
0.156	120.04395
0.1565	138.97705
0.157	146.32874
0.1575	149.45068
0.158	150.65918
0.1585	147.73865
0.159	136.96289
0.1595	123.2666
0.16	107.65686
0.1605	89.42871
0.161	72.71118
0.1615	61.93542
0.162	58.20923
0.1625	43.40515
0.163	34.44214
0.1635	31.72302
0.164	31.92444
0.1645	16.21399
0.165	13.19275
0.1655	7.85522
0.166	1.3092
0.1665	0.30212
0.167	4.22974
0.1675	6.14319
0.168	11.07788
0.1685	15.91187
0.169	8.96301
0.1695	12.5885
0.17	12.28638
0.1705	12.18567
0.171	10.77576
0.1715	7.25098
0.172	9.46655
0.1725	6.84814
0.173	6.44531
0.1735	6.3446
0.174	9.46655
0.1745	8.15735
0.175	9.76868
0.1755	10.27222
0.176	7.5531
0.1765	0.80566
0.177	3.32336
0.1775	4.43115
0.178	5.0354
0.1785	4.93469
0.179	0.10071
0.1795	1.51062
0.18	2.41699
0.1805	0.20142
0.181	2.11487
0.1815	1.10779
0.182	-1.40991
0.1825	-1.81274
0.183	-2.71912
0.1835	-3.22266
0.184	-6.44531
0.1845	-8.45947
0.185	-10.77576
0.1855	-13.09204
0.186	-9.06372
0.1865	-12.78992
0.187	-21.24939
0.1875	-15.60974
0.188	-13.29346
0.1885	-16.41541
0.189	-10.0708
0.1895	-11.68213
0.19	-4.63257
0.1905	2.11487
0.191	6.54602
0.1915	6.54602
0.192	6.44531
0.1925	11.78284
0.193	9.06372
0.1935	8.66089
0.194	7.75452
0.1945	7.45239
0.195	2.01416
0.1955	-1.91345
0.196	-8.25806
0.1965	-2.5177
0.197	-4.83398
0.1975	-15.00549
0.198	-11.2793
0.1985	-15.40833
0.199	-15.00549
0.1995	-11.17859
0.2	-4.63257
0.2005	-4.63257
0.201	-5.74036
0.2015	1.91345
0.202	8.35876
0.2025	12.68921
0.203	21.65222
0.2035	24.77417
0.204	35.14709
0.2045	28.19824
0.205	27.99683
0.2055	31.01807
0.206	30.71594
0.2065	26.88904
0.207	23.8678
0.2075	15.50903
0.208	13.09204
0.2085	12.5885
0.209	13.09204
0.2095	17.32178
0.21	17.72461
0.2105	8.56018
0.211	8.45947
0.2115	11.07788
0.212	12.89062
0.2125	14.19983
0.213	12.48779
0.2135	9.36584
0.214	3.22266
0.2145	2.92053
0.215	6.64673
0.2155	9.86938
0.216	8.96301
0.2165	3.7262
0.217	7.65381
0.2175	1.00708
0.218	-2.21558
0.2185	0.60425
0.219	2.01416
0.2195	2.61841
0.22	-1.51062
0.2205	-3.42407
0.221	-2.11487
0.2215	-3.8269
0.222	-4.63257
0.2225	-6.44531
0.223	-4.83398
0.2235	-3.42407
0.224	-6.04248
0.2245	-11.38
0.225	-17.01965
0.2255	-10.0708
0.226	-10.27222
0.2265	-8.45947
0.227	-15.91187
0.2275	-17.72461
0.228	-12.5885
0.2285	-15.00549
0.229	-16.21399
0.2295	-14.50195
0.23	-7.15027
0.2305	-6.84814
0.231	-4.93469
0.2315	-6.14319
0.232	-2.21558
0.2325	0.40283
0.233	1.2085
0.2335	8.15735
0.234	9.36584
0.2345	17.22107
0.235	18.73169
0.2355	24.16992
0.236	24.97559
0.2365	28.39966
0.237	32.83081
0.2375	35.34851
0.238	37.7655
0.2385	43.40515
0.239	38.67188
0.2395	33.03223
0.24	25.27771
0.2405	26.48621
0.241	16.61682
0.2415	16.21399
0.242	14.70337
0.2425	12.28638
0.243	7.45239
0.2435	9.76868
0.244	0.10071
0.2445	8.25806
0.245	9.16443
0.2455	0.50354
0.246	-1.61133
0.2465	-3.32336
0.247	-1.81274
0.2475	1.3092
0.248	-0.40283
0.2485	0.40283
0.249	-11.88354
0.2495	-4.83398
0.25	-8.56018
0.2505	-10.37292
0.251	-4.63257
0.2515	-10.77576
0.252	-16.61682
0.2525	-20.1416
0.253	-22.25647
0.2535	-21.14868
0.254	-21.95435
0.2545	-18.22815
0.255	-20.84656
0.2555	-16.71753
0.256	-18.02673
0.2565	-20.84656
0.257	-14.70337
0.2575	-10.47363
0.258	-6.64673
0.2585	-2.31628
0.259	3.42407
0.2595	7.85522
0.26	15.00549
0.2605	22.86072
0.261	24.97559
0.2615	34.44214
0.262	31.92444
0.2625	34.03931
0.263	36.25488
0.2635	32.42798
0.264	32.02515
0.2645	27.09045
0.265	22.76001
0.2655	28.19824
0.266	23.96851
0.2665	19.83948
0.267	15.81116
0.2675	8.96301
0.268	7.35168
0.2685	3.52478
0.269	5.74036
0.2695	9.97009
0.27	10.77576
0.2705	8.05664
0.271	7.25098
0.2715	12.18567
0.272	10.47363
0.2725	8.05664
0.273	11.78284
0.2735	12.99133
0.274	10.77576
0.2745	10.67505
0.275	6.74744
0.2755	6.94885
0.276	4.53186
0.2765	5.33752
0.277	3.8269
0.2775	2.21558
0.278	-0.50354
0.2785	2.31628
0.279	2.81982
0.2795	2.41699
0.28	0.90637
0.2805	-1.91345
0.281	-1.2085
0.2815	3.22266
0.282	-1.3092
0.2825	3.7262
0.283	1.51062
0.2835	-3.32336
0.284	1.71204
0.2845	8.66089
0.285	1.10779
0.2855	4.83398
0.286	5.23682
0.2865	2.21558
0.287	-0.70496
0.2875	0.10071
0.288	1.81274
0.2885	-2.01416
0.289	2.92053
0.2895	6.3446
0.29	8.8623
0.2905	7.45239
0.291	6.3446
0.2915	8.56018
0.292	5.74036
0.2925	9.16443
0.293	7.85522
0.2935	8.7616
0.294	5.43823
0.2945	9.86938
0.295	7.25098
0.2955	8.66089
0.296	10.37292
0.2965	4.83398
0.297	6.2439
0.2975	8.96301
0.298	5.53894
0.2985	5.74036
0.299	-2.71912
0.2995	4.22974
0.3	0.50354
0.3005	0.90637
0.301	-0.80566
0.3015	2.92053
0.302	1.91345
0.3025	4.53186
0.303	-2.81982
0.3035	0.20142
0.304	2.41699
0.3045	3.12195
0.305	4.63257
0.3055	3.42407
0.306	0.70496
0.3065	-1.00708
0.307	-2.92053
0.3075	-1.2085
0.308	-4.73328
0.3085	-7.15027
0.309	-4.63257
0.3095	-3.52478
0.31	-6.54602
0.3105	-5.0354
0.311	-9.46655
0.3115	1.10779
0.312	6.14319
0.3125	10.47363
0.313	10.67505
0.3135	15.40833
0.314	21.3501
0.3145	24.87488
0.315	29.40674
0.3155	17.92603
0.316	24.27063
0.3165	18.53027
0.317	24.47205
0.3175	21.75293
0.318	13.49487
0.3185	9.16443
0.319	14.80408
0.3195	9.06372
0.32	11.88354
0.3205	9.76868
0.321	10.57434
0.3215	3.92761
0.322	7.15027
0.3225	5.84106
0.323	4.12903
0.3235	11.38
0.324	5.94177
0.3245	8.8623
0.325	10.77576
0.3255	2.61841
0.326	7.25098
0.3265	7.45239
0.327	7.04956
0.3275	5.84106
0.328	6.54602
0.3285	6.14319
0.329	10.37292
0.3295	10.67505
0.33	9.56726
0.3305	9.36584
0.331	2.21558
0.3315	12.28638
0.332	11.98425
0.3325	9.56726
0.333	3.52478
0.3335	7.85522
0.334	7.15027
0.3345	7.15027
0.335	8.45947
0.3355	10.47363
0.336	4.12903
0.3365	5.43823
0.337	8.45947
0.3375	11.58142
0.338	11.88354
0.3385	6.14319
0.339	9.36584
0.3395	9.76868
0.34	10.77576
0.3405	7.95593
0.341	6.3446
0.3415	8.66089
0.342	4.93469
0.3425	5.84106
0.343	4.93469
0.3435	3.12195
0.344	3.32336
0.3445	6.14319
0.345	1.81274
0.3455	2.71912
0.346	1.00708
0.3465	0
0.347	3.7262
0.3475	-1.71204
0.348	2.31628
0.3485	3.7262
0.349	3.92761
0.3495	4.93469
0.35	4.33044
0.3505	3.92761
0.351	0.30212
0.3515	9.46655
0.352	1.91345
0.3525	7.35168
0.353	2.01416
0.3535	2.81982
0.354	4.53186
0.3545	3.92761
0.355	4.53186
0.3555	-0.20142
0.356	-0.50354
0.3565	3.22266
0.357	3.12195
0.3575	3.7262
0.358	-0.50354
0.3585	1.40991
0.359	-2.11487
0.3595	-3.42407
0.36	1.00708
0.3605	0
0.361	2.31628
0.3615	1.51062
0.362	-1.81274
0.3625	1.2085
0.363	4.33044
0.3635	-4.93469
0.364	0.70496
0.3645	-0.60425
0.365	5.0354
0.3655	5.53894
0.366	5.0354
0.3665	10.47363
0.367	7.35168
0.3675	4.22974
0.368	6.04248
0.3685	5.0354
0.369	6.94885
0.3695	4.53186
0.37	11.58142
0.3705	6.44531
0.371	7.45239
0.3715	8.66089
0.372	1.91345
0.3725	5.23682
0.373	5.33752
0.3735	9.06372
0.374	6.04248
0.3745	6.64673
0.375	6.04248
0.3755	3.92761
0.376	9.16443
0.3765	12.28638
0.377	12.78992
0.3775	12.28638
0.378	10.37292
0.3785	10.0708
0.379	9.86938
0.3795	0.80566
0.38	2.01416
0.3805	3.42407
0.381	2.31628
0.3815	1.81274
0.382	6.14319
0.3825	3.02124
0.383	7.95593
0.3835	3.02124
0.384	3.8269
0.3845	8.35876
0.385	7.85522
0.3855	2.41699
0.386	4.22974
0.3865	8.05664
0.387	2.92053
0.3875	4.22974
0.388	5.23682
0.3885	7.35168
0.389	10.77576
0.3895	4.63257
0.39	1.51062
0.3905	5.74036
0.391	7.95593
0.3915	6.14319
0.392	8.05664
0.3925	5.84106
0.393	4.53186
0.3935	11.48071
0.394	1.3092
0.3945	6.04248
0.395	5.23682
0.3955	2.92053
0.396	9.26514
0.3965	8.96301
0.397	4.22974
0.3975	9.56726
0.398	5.43823
0.3985	3.52478
0.399	6.84814
0.3995	9.26514
0.4	6.84814
0.4005	3.92761
0.401	8.15735
0.4015	9.46655
0.402	8.96301
0.4025	9.66797
0.403	6.84814
0.4035	-0.50354
0.404	5.23682
0.4045	6.04248
0.405	4.63257
0.4055	4.93469
0.406	2.81982
0.4065	3.42407
0.407	5.74036
0.4075	3.02124
0.408	4.43115
0.4085	6.94885
0.409	1.91345
0.4095	4.63257
0.41	7.65381
0.4105	6.14319
0.411	2.11487
0.4115	-1.2085
0.412	3.02124
0.4125	4.73328
0.413	6.74744
0.4135	2.5177
0.414	8.45947
0.4145	2.71912
0.415	8.25806
0.4155	8.35876
0.416	7.95593
0.4165	10.0708
0.417	7.85522
0.4175	6.54602
0.418	6.3446
0.4185	8.8623
0.419	10.47363
0.4195	9.26514
0.42	9.06372
0.4205	2.5177
0.421	5.33752
0.4215	2.71912
0.422	1.71204
0.4225	7.15027
0.423	5.33752
0.4235	6.74744
0.424	0.30212
0.4245	5.53894
0.425	4.83398
0.4255	4.02832
0.426	3.22266
0.4265	2.61841
0.427	5.43823
0.4275	6.54602
0.428	5.53894
0.4285	2.01416
0.429	1.10779
0.4295	3.22266
0.43	6.74744
0.4305	5.94177
0.431	0.70496
0.4315	3.52478
0.432	3.32336
0.4325	7.75452
0.433	9.56726
0.4335	9.06372
0.434	1.51062
0.4345	8.96301
0.435	9.36584
0.4355	11.58142
0.436	5.84106
0.4365	5.53894
0.437	6.2439
0.4375	5.43823
0.438	2.71912
0.4385	5.43823
0.439	2.21558
0.4395	6.44531
0.44	4.53186
0.4405	5.94177
0.441	5.33752
0.4415	7.5531
0.442	6.94885
0.4425	9.06372
0.443	10.67505
0.4435	9.46655
0.444	8.45947
0.4445	3.02124
0.445	9.66797
0.4455	4.53186
0.446	10.47363
0.4465	6.74744
0.447	0.40283
0.4475	9.86938
0.448	11.38
0.4485	14.09912
0.449	9.66797
0.4495	6.94885
0.45	5.94177
0.4505	11.07788
0.451	7.04956
0.4515	10.77576
0.452	8.45947
0.4525	10.67505
0.453	8.7616
0.4535	7.25098
0.454	3.32336
0.4545	9.26514
0.455	2.92053
0.4555	3.8269
0.456	6.3446
0.4565	7.95593
0.457	-0.60425
0.4575	8.7616
0.458	5.84106
0.4585	2.21558
0.459	9.06372
0.4595	7.5531
0.46	7.15027
0.4605	11.2793
0.461	6.74744
0.4615	6.3446
0.462	7.45239
0.4625	6.44531
0.463	9.86938
0.4635	4.93469
0.464	2.5177
0.4645	1.00708
0.465	5.0354
0.4655	2.21558
0.466	4.33044
0.4665	5.84106
0.467	2.41699
0.4675	5.43823
0.468	2.92053
0.4685	0.70496
0.469	7.15027
0.4695	-0.80566
0.47	6.3446
0.4705	3.7262
0.471	5.53894
0.4715	2.41699
0.472	5.0354
0.4725	3.52478
0.473	2.21558
0.4735	2.5177
0.474	8.15735
0.4745	0.70496
0.475	9.26514
0.4755	7.5531
0.476	3.52478
0.4765	7.25098
0.477	8.8623
0.4775	7.85522
0.478	7.65381
0.4785	8.25806
0.479	1.61133
0.4795	-0.50354
0.48	10.0708
0.4805	2.61841
0.481	4.63257
0.4815	2.01416
0.482	2.5177
0.4825	5.0354
0.483	2.5177
0.4835	3.92761
0.484	7.65381
0.4845	3.8269
0.485	10.57434
0.4855	10.27222
0.486	8.56018
0.4865	4.63257
0.487	10.67505
0.4875	6.84814
0.488	8.7616
0.4885	4.33044
0.489	8.56018
0.4895	8.15735
0.49	2.11487
0.4905	8.05664
0.491	7.85522
0.4915	0.50354
0.492	2.01416
0.4925	6.84814
0.493	4.83398
0.4935	8.8623
0.494	4.12903
0.4945	4.83398
0.495	5.74036
0.4955	2.01416
0.496	5.94177
0.4965	7.35168
0.497	3.32336
0.4975	8.45947
0.498	4.02832
0.4985	6.94885
0.499	2.31628
0.4995	2.71912
0.5	4.93469
0.5005	1.91345
0.501	6.44531
0.5015	7.04956
0.502	3.52478
0.5025	9.16443
0.503	10.47363
0.5035	7.65381
0.504	11.48071
0.5045	3.52478
0.505	1.91345
0.5055	6.74744
0.506	2.71912
0.5065	6.44531
0.507	6.84814
0.5075	3.92761
0.508	1.10779
0.5085	6.44531
0.509	1.40991
0.5095	0.60425
0.51	-0.30212
0.5105	2.61841
0.511	-2.21558
0.5115	2.31628
0.512	5.94177
0.5125	2.81982
0.513	3.22266
0.5135	-5.23682
0.514	-0.30212
0.5145	1.71204
0.515	-4.83398
0.5155	0.60425
0.516	3.62549
0.5165	5.13611
0.517	1.51062
0.5175	0.10071
0.518	9.26514
0.5185	2.61841
0.519	10.27222
0.5195	5.43823
0.52	2.01416
0.5205	6.3446
0.521	5.33752
0.5215	1.00708
0.522	4.12903
0.5225	2.5177
0.523	2.5177
0.5235	5.23682
0.524	4.73328
0.5245	4.53186
0.525	2.21558
0.5255	3.8269
0.526	7.95593
0.5265	6.64673
0.527	3.92761
0.5275	9.46655
0.528	8.7616
0.5285	8.35876
0.529	7.5531
0.5295	7.95593
0.53	5.23682
0.5305	4.12903
0.531	7.45239
0.5315	2.31628
0.532	5.23682
0.5325	8.96301
0.533	5.84106
0.5335	2.61841
0.534	6.84814
0.5345	5.13611
0.535	4.22974
0.5355	8.66089
0.536	7.75452
0.5365	6.64673
0.537	9.46655
0.5375	8.7616
0.538	3.52478
0.5385	11.58142
0.539	6.74744
0.5395	6.74744
0.54	5.13611
0.5405	3.32336
0.541	9.46655
0.5415	2.21558
0.542	5.63965
0.5425	8.45947
0.543	2.92053
0.5435	5.53894
0.544	1.71204
0.5445	6.84814
0.545	3.42407
0.5455	5.43823
0.546	10.97717
0.5465	6.2439
0.547	4.12903
0.5475	5.74036
0.548	5.43823
0.5485	12.5885
0.549	5.63965
0.5495	7.45239
0.55	7.15027
0.5505	3.12195
0.551	6.2439
0.5515	9.97009
0.552	9.26514
0.5525	11.98425
0.553	13.797
0.5535	5.13611
0.554	6.94885
0.5545	8.7616
0.555	9.56726
0.5555	9.16443
0.556	9.36584
0.5565	9.97009
0.557	9.36584
0.5575	4.53186
0.558	5.13611
0.5585	9.46655
0.559	10.17151
0.5595	5.13611
0.56	3.7262
0.5605	5.23682
0.561	7.45239
0.5615	13.09204
0.562	7.95593
0.5625	7.35168
0.563	3.42407
0.5635	2.41699
0.564	3.32336
0.5645	5.43823
0.565	5.53894
0.5655	5.33752
0.566	3.8269
0.5665	2.21558
0.567	6.3446
0.5675	-0.30212
0.568	2.61841
0.5685	2.31628
0.569	5.13611
0.5695	2.92053
0.57	-0.50354
0.5705	-0.20142
0.571	3.12195
0.5715	4.73328
0.572	3.02124
0.5725	7.45239
0.573	4.93469
0.5735	5.33752
0.574	2.92053
0.5745	3.22266
0.575	6.14319
0.5755	7.85522
0.576	5.0354
0.5765	-0.20142
0.577	8.35876
0.5775	7.65381
0.578	2.31628
0.5785	8.45947
0.579	6.74744
0.5795	7.65381
0.58	0.70496
0.5805	4.12903
0.581	3.02124
0.5815	8.25806
0.582	10.77576
0.5825	5.23682
0.583	6.14319
0.5835	12.89062
0.584	6.14319
0.5845	10.97717
0.585	7.75452
0.5855	6.64673
0.586	7.95593
0.5865	10.37292
0.587	9.46655
0.5875	8.96301
0.588	7.15027
0.5885	9.76868
0.589	4.22974
0.5895	6.64673
0.59	9.76868
0.5905	1.61133
0.591	4.02832
0.5915	6.64673
0.592	7.35168
0.5925	11.17859
0.593	11.17859
0.5935	13.09204
0.594	5.94177
0.5945	3.12195
0.595	8.25806
0.5955	8.35876
0.596	6.14319
0.5965	3.42407
0.597	10.37292
0.5975	12.78992
0.598	2.81982
0.5985	9.36584
0.599	8.45947
0.5995	5.84106
0.6	3.42407
0.6005	5.53894
0.601	4.02832
0.6015	3.42407
0.602	1.10779
0.6025	7.65381
0.603	4.93469
0.6035	3.12195
0.604	4.73328
0.6045	3.7262
0.605	3.12195
0.6055	0
0.606	5.94177
0.6065	4.12903
0.607	3.52478
0.6075	4.22974
0.608	6.84814
0.6085	4.33044
0.609	6.04248
0.6095	0.90637
0.61	4.12903
0.6105	4.63257
0.611	4.12903
0.6115	5.74036
0.612	2.92053
0.6125	7.5531
0.613	4.33044
0.6135	3.52478
0.614	9.86938
0.6145	7.75452
0.615	5.84106
0.6155	6.84814
0.616	6.54602
0.6165	4.02832
0.617	2.92053
0.6175	6.14319
0.618	7.04956
0.6185	6.3446
0.619	2.61841
0.6195	7.25098
0.62	4.43115
0.6205	3.32336
0.621	5.74036
0.6215	3.62549
0.622	4.93469
0.6225	5.13611
0.623	6.64673
0.6235	2.31628
0.624	1.40991
0.6245	10.37292
0.625	4.12903
0.6255	5.53894
0.626	7.95593
0.6265	2.21558
0.627	9.16443
0.6275	7.45239
0.628	5.43823
0.6285	10.87646
0.629	1.81274
0.6295	7.95593
0.63	8.05664
0.6305	3.92761
0.631	6.74744
0.6315	5.43823
0.632	5.74036
0.6325	5.23682
0.633	11.68213
0.6335	7.95593
0.634	7.5531
0.6345	1.3092
0.635	5.94177
0.6355	9.46655
0.636	8.15735
0.6365	7.35168
0.637	4.53186
0.6375	3.52478
0.638	2.5177
0.6385	3.32336
0.639	9.26514
0.6395	5.43823
0.64	4.02832
0.6405	3.7262
0.641	6.94885
0.6415	1.61133
0.642	4.63257
0.6425	3.8269
0.643	2.92053
0.6435	2.41699
0.644	1.51062
0.6445	0.90637
0.645	0.30212
0.6455	2.21558
0.646	10.87646
0.6465	3.62549
0.647	0.20142
0.6475	7.15027
0.648	3.32336
0.6485	6.94885
0.649	2.41699
0.6495	5.23682
0.65	2.31628
0.6505	3.42407
0.651	5.53894
0.6515	8.35876
0.652	4.63257
0.6525	1.10779
0.653	2.5177
0.6535	1.91345
0.654	1.00708
0.6545	6.14319
0.655	3.92761
0.6555	2.92053
0.656	5.53894
0.6565	4.43115
0.657	8.45947
0.6575	12.08496
0.658	8.35876
0.6585	10.27222
0.659	5.63965
0.6595	10.27222
0.66	9.97009
0.6605	1.81274
0.661	4.53186
0.6615	1.00708
0.662	5.94177
0.6625	8.35876
0.663	6.64673
0.6635	2.31628
0.664	9.26514
0.6645	6.14319
0.665	13.797
0.6655	10.47363
0.666	1.3092
0.6665	2.01416
0.667	7.04956
0.6675	1.10779
0.668	7.35168
0.6685	2.41699
0.669	1.81274
0.6695	5.84106
0.67	7.5531
0.6705	5.43823
0.671	3.42407
0.6715	7.45239
0.672	4.73328
0.6725	3.8269
0.673	5.63965
0.6735	5.43823
0.674	2.11487
0.6745	8.7616
0.675	2.81982
0.6755	2.31628
0.676	3.42407
0.6765	8.8623
0.677	8.25806
0.6775	7.5531
0.678	5.94177
0.6785	5.63965
0.679	2.71912
0.6795	4.43115
0.68	9.56726
0.6805	3.02124
0.681	9.16443
0.6815	2.11487
0.682	5.43823
0.6825	7.65381
0.683	1.51062
0.6835	1.40991
0.684	3.52478
0.6845	9.56726
0.685	5.13611
0.6855	2.81982
0.686	8.45947
0.6865	0.50354
0.687	5.43823
0.6875	6.2439
0.688	4.12903
0.6885	5.74036
0.689	9.26514
0.6895	3.02124
0.69	3.22266
0.6905	-2.81982
0.691	4.12903
0.6915	5.94177
0.692	9.66797
0.6925	7.85522
0.693	2.92053
0.6935	5.23682
0.694	4.02832
0.6945	6.44531
0.695	7.25098
0.6955	8.7616
0.696	6.84814
0.6965	1.3092
0.697	2.71912
0.6975	-0.20142
0.698	2.61841
0.6985	9.36584
0.699	10.97717
0.6995	5.23682
0.7	11.38
0.7005	5.43823
0.701	6.04248
0.7015	6.74744
0.702	8.35876
0.7025	7.85522
0.703	4.73328
0.7035	7.04956
0.704	6.64673
0.7045	6.2439
0.705	8.45947
0.7055	11.68213
0.706	7.85522
0.7065	3.42407
0.707	6.3446
0.7075	7.85522
0.708	8.96301
0.7085	6.74744
0.709	3.52478
0.7095	2.21558
0.71	0
0.7105	1.81274
0.711	2.92053
0.7115	1.2085
0.712	-1.2085
0.7125	4.33044
0.713	5.13611
0.7135	7.25098
0.714	10.57434
0.7145	10.37292
0.715	11.07788
0.7155	5.63965
0.716	15.00549
0.7165	8.45947
0.717	14.70337
0.7175	12.38708
0.718	11.98425
0.7185	16.51611
0.719	12.48779
0.7195	10.27222
0.72	11.17859
0.7205	15.1062
0.721	14.30054
0.7215	9.36584
0.722	9.76868
0.7225	12.78992
0.723	12.18567
0.7235	10.0708
0.724	11.88354
0.7245	4.53186
0.725	8.7616
0.7255	13.09204
0.726	5.33752
0.7265	9.36584
0.727	7.85522
0.7275	7.5531
0.728	9.06372
0.7285	12.18567
0.729	8.25806
0.7295	13.39417
0.73	12.28638
0.7305	13.09204
0.731	14.50195
0.7315	9.06372
0.732	9.36584
0.7325	7.35168
0.733	13.49487
0.7335	9.36584
0.734	20.34302
0.7345	17.01965
0.735	12.08496
0.7355	7.25098
0.736	11.48071
0.7365	9.56726
0.737	10.17151
0.7375	11.38
0.738	11.17859
0.7385	1.71204
0.739	9.36584
0.7395	9.36584
0.74	7.75452
0.7405	8.96301
0.741	5.84106
0.7415	7.04956
0.742	6.74744
0.7425	11.38
0.743	5.53894
0.7435	7.75452
0.744	7.25098
0.7445	8.66089
0.745	5.63965
0.7455	4.33044
0.746	4.22974
0.7465	7.04956
0.747	2.92053
0.7475	0.80566
0.748	4.53186
0.7485	4.22974
0.749	6.2439
0.7495	0.70496
0.75	-1.00708
0.7505	5.33752
0.751	5.13611
0.7515	-2.21558
0.752	5.84106
0.7525	4.43115
0.753	-3.02124
0.7535	6.14319
0.754	5.0354
0.7545	6.3446
0.755	5.13611
0.7555	-1.61133
0.756	0
0.7565	4.22974
0.757	0.50354
0.7575	5.43823
0.758	10.57434
0.7585	2.21558
0.759	2.01416
0.7595	4.22974
0.76	5.13611
0.7605	7.35168
0.761	7.85522
0.7615	0.80566
0.762	6.3446
0.7625	4.43115
0.763	2.71912
0.7635	0.40283
0.764	0.30212
0.7645	3.52478
0.765	5.63965
0.7655	-0.10071
0.766	1.00708
0.7665	-2.31628
0.767	5.53894
0.7675	-1.00708
0.768	-1.61133
0.7685	3.22266
0.769	6.44531
0.7695	4.73328
0.77	3.92761
0.7705	6.3446
0.771	1.3092
0.7715	4.33044
0.772	3.92761
0.7725	2.21558
0.773	10.97717
0.7735	8.05664
0.774	8.66089
0.7745	12.78992
0.775	5.43823
0.7755	4.43115
0.776	0.30212
0.7765	6.2439
0.777	6.3446
0.7775	7.95593
0.778	9.86938
0.7785	4.22974
0.779	3.22266
0.7795	0.40283
0.78	4.33044
0.7805	3.92761
0.781	2.21558
0.7815	0.30212
0.782	1.51062
0.7825	4.73328
0.783	0.70496
0.7835	6.04248
0.784	7.95593
0.7845	0.70496
0.785	1.2085
0.7855	5.23682
0.786	8.15735
0.7865	2.61841
0.787	8.96301
0.7875	4.43115
0.788	3.92761
0.7885	8.15735
0.789	2.41699
0.7895	9.16443
0.79	6.94885
0.7905	5.84106
0.791	5.74036
0.7915	6.64673
0.792	1.61133
0.7925	-2.61841
0.793	1.81274
0.7935	-1.81274
0.794	1.71204
0.7945	4.22974
0.795	0.10071
0.7955	2.41699
0.796	0.20142
0.7965	3.02124
0.797	0
0.7975	-3.12195
0.798	3.7262
0.7985	1.81274
0.799	2.81982
0.7995	4.43115
0.8	7.15027
0.8005	-2.31628
0.801	2.92053
0.8015	7.15027
0.802	5.33752
0.8025	7.35168
0.803	9.86938
0.8035	6.14319
0.804	4.83398
0.8045	2.61841
0.805	5.94177
0.8055	5.13611
0.806	8.96301
0.8065	5.53894
0.807	10.77576
0.8075	13.69629
0.808	7.04956
0.8085	7.95593
0.809	4.12903
0.8095	9.46655
0.81	6.94885
0.8105	7.5531
0.811	6.04248
0.8115	4.12903
0.812	5.84106
0.8125	9.16443
0.813	10.57434
0.8135	4.73328
0.814	6.74744
0.8145	11.98425
0.815	8.25806
0.8155	3.12195
0.816	11.17859
0.8165	7.95593
0.817	8.05664
0.8175	7.15027
0.818	5.74036
0.8185	11.07788
0.819	10.37292
0.8195	5.63965
0.82	6.14319
0.8205	7.75452
0.821	0.30212
0.8215	7.15027
0.822	5.33752
0.8225	4.53186
0.823	4.83398
0.8235	1.10779
0.824	9.76868
0.8245	1.61133
0.825	-1.81274
0.8255	3.8269
0.826	6.44531
0.8265	12.68921
0.827	4.12903
0.8275	11.68213
0.828	7.25098
0.8285	9.16443
0.829	7.95593
0.8295	9.46655
0.83	10.37292
0.8305	1.2085
0.831	1.10779
0.8315	-2.11487
0.832	-1.81274
0.8325	9.36584
0.833	0
0.8335	1.40991
0.834	5.0354
0.8345	3.8269
0.835	-2.41699
0.8355	3.02124
0.836	9.36584
0.8365	5.13611
0.837	-2.01416
0.8375	0.10071
0.838	-0.60425
0.8385	3.32336
0.839	1.40991
0.8395	1.2085
0.84	2.31628
0.8405	4.53186
0.841	0.10071
0.8415	3.42407
0.842	8.56018
0.8425	3.12195
0.843	2.31628
0.8435	5.13611
0.844	6.84814
0.8445	1.2085
0.845	5.33752
0.8455	2.31628
0.846	2.71912
0.8465	2.81982
0.847	6.84814
0.8475	-2.61841
0.848	-3.8269
0.8485	-3.32336
0.849	0.20142
0.8495	-1.00708
0.85	-1.00708
0.8505	1.81274
0.851	-0.70496
0.8515	-0.60425
0.852	4.93469
0.8525	-1.10779
0.853	2.41699
0.8535	6.64673
0.854	0.20142
0.8545	4.63257
0.855	1.10779
0.8555	2.11487
0.856	1.10779
0.8565	3.12195
0.857	6.74744
0.8575	-0.10071
0.858	5.33752
0.8585	1.40991
0.859	-2.31628
0.8595	2.92053
0.86	0.30212
0.8605	0.20142
0.861	4.83398
0.8615	4.22974
0.862	-1.71204
0.8625	6.64673
0.863	7.35168
0.8635	4.73328
0.864	0
0.8645	3.12195
0.865	5.84106
0.8655	3.7262
0.866	2.92053
0.8665	0.20142
0.867	5.23682
0.8675	1.81274
0.868	2.61841
0.8685	3.02124
0.869	2.71912
0.8695	7.25098
0.87	5.23682
0.8705	4.53186
0.871	5.23682
0.8715	3.92761
0.872	4.22974
0.8725	5.74036
0.873	14.30054
0.8735	8.66089
0.874	10.17151
0.8745	9.97009
0.875	1.71204
0.8755	4.12903
0.876	6.04248
0.8765	2.31628
0.877	5.43823
0.8775	-0.70496
0.878	5.13611
0.8785	-0.80566
0.879	4.53186
0.8795	1.40991
0.88	6.04248
0.8805	3.42407
0.881	3.62549
0.8815	2.81982
0.882	-1.51062
0.8825	-1.00708
0.883	5.94177
0.8835	4.63257
0.884	0
0.8845	0.60425
0.885	10.17151
0.8855	12.28638
0.886	5.84106
0.8865	8.05664
0.887	7.75452
0.8875	8.56018
0.888	5.63965
0.8885	5.0354
0.889	10.27222
0.8895	11.78284
0.89	4.63257
0.8905	2.21558
0.891	-0.20142
0.8915	5.23682
0.892	5.23682
0.8925	0.70496
0.893	3.52478
0.8935	6.04248
0.894	7.45239
0.8945	9.36584
0.895	5.53894
0.8955	5.74036
0.896	11.38
0.8965	0.70496
0.897	3.22266
0.8975	9.97009
0.898	7.5531
0.8985	7.15027
0.899	6.04248
0.8995	5.53894
0.9	5.0354
0.9005	4.22974
0.901	2.81982
0.9015	5.84106
0.902	2.92053
0.9025	6.3446
0.903	12.08496
0.9035	6.14319
0.904	5.94177
0.9045	12.18567
0.905	11.2793
0.9055	8.8623
0.906	1.91345
0.9065	9.97009
0.907	4.33044
0.9075	4.33044
0.908	8.15735
0.9085	5.94177
0.909	4.12903
0.9095	9.76868
0.91	7.15027
0.9105	5.43823
0.911	6.44531
0.9115	8.25806
0.912	5.74036
0.9125	7.85522
0.913	9.16443
0.9135	12.38708
0.914	10.0708
0.9145	8.25806
0.915	6.74744
0.9155	8.8623
0.916	8.05664
0.9165	12.5885
0.917	12.38708
0.9175	5.23682
0.918	5.53894
0.9185	3.7262
0.919	0.80566
0.9195	3.02124
0.92	10.57434
0.9205	8.8623
0.921	4.83398
0.9215	8.35876
0.922	5.13611
0.9225	7.45239
0.923	7.5531
0.9235	3.62549
0.924	7.45239
0.9245	10.37292
0.925	5.43823
0.9255	4.93469
0.926	10.27222
0.9265	7.15027
0.927	10.37292
0.9275	5.43823
0.928	2.92053
0.9285	6.74744
0.929	5.94177
0.9295	4.53186
0.93	5.63965
0.9305	4.63257
0.931	6.3446
0.9315	5.13611
0.932	7.04956
0.9325	7.35168
0.933	6.74744
0.9335	5.13611
0.934	12.78992
0.9345	6.74744
0.935	3.7262
0.9355	5.43823
0.936	7.85522
0.9365	3.32336
0.937	7.45239
0.9375	7.04956
0.938	10.27222
0.9385	10.47363
0.939	7.65381
0.9395	8.56018
0.94	3.02124
0.9405	7.04956
0.941	10.37292
0.9415	5.0354
0.942	4.93469
0.9425	6.94885
0.943	3.92761
0.9435	5.74036
0.944	7.65381
0.9445	7.15027
0.945	5.63965
0.9455	2.81982
0.946	11.48071
0.9465	3.8269
0.947	7.04956
0.9475	5.63965
0.948	4.02832
0.9485	2.61841
0.949	7.85522
0.9495	6.54602
0.95	9.16443
0.9505	9.56726
0.951	8.7616
0.9515	3.92761
0.952	7.85522
0.9525	4.73328
0.953	4.02832
0.9535	10.87646
0.954	8.25806
0.9545	2.71912
0.955	3.22266
0.9555	8.15735
0.956	9.66797
0.9565	11.07788
0.957	13.69629
0.9575	10.37292
0.958	8.35876
0.9585	11.88354
0.959	9.86938
0.9595	13.49487
0.96	8.66089
0.9605	3.32336
0.961	7.25098
0.9615	4.53186
0.962	10.47363
0.9625	8.45947
0.963	7.5531
0.9635	7.45239
0.964	10.67505
0.9645	12.28638
0.965	8.35876
0.9655	12.78992
0.966	8.25806
0.9665	4.43115
0.967	7.5531
0.9675	7.45239
0.968	10.37292
0.9685	7.25098
0.969	10.47363
0.9695	12.08496
0.97	13.09204
0.9705	7.85522
0.971	7.65381
0.9715	6.14319
0.972	15.1062
0.9725	13.09204
0.973	11.78284
0.9735	6.44531
0.974	10.97717
0.9745	3.92761
0.975	6.2439
0.9755	7.5531
0.976	10.47363
0.9765	3.62549
0.977	4.73328
0.9775	7.45239
0.978	5.13611
0.9785	5.74036
0.979	7.85522
0.9795	9.66797
0.98	9.97009
0.9805	6.64673
0.981	4.12903
0.9815	7.25098
0.982	10.37292
0.9825	5.74036
0.983	9.36584
0.9835	8.66089
0.984	5.74036
0.9845	3.12195
0.985	7.75452
0.9855	7.15027
0.986	9.36584
0.9865	6.14319
0.987	3.02124
0.9875	4.22974
0.988	2.92053
0.9885	3.52478
0.989	4.53186
0.9895	3.12195
0.99	1.00708
0.9905	3.02124
0.991	-3.62549
0.9915	2.21558
0.992	1.2085
0.9925	7.04956
0.993	7.25098
0.9935	6.64673
0.994	5.43823
0.9945	3.8269
0.995	5.43823
0.9955	7.75452
0.996	1.71204
0.9965	5.84106
0.997	6.54602
0.9975	3.32336
0.998	1.00708
0.9985	7.5531
0.999	2.61841
0.9995	6.3446
1	5.0354
1.0005	3.7262
1.001	5.0354
1.0015	6.54602
1.002	2.11487
1.0025	4.73328
1.003	5.94177
1.0035	1.81274
1.004	5.63965
1.0045	5.13611
1.005	7.25098
1.0055	9.36584
1.006	11.68213
1.0065	7.65381
1.007	5.74036
1.0075	1.81274
1.008	6.54602
1.0085	6.04248
1.009	8.25806
1.0095	6.44531
1.01	8.35876
1.0105	7.65381
1.011	3.8269
1.0115	2.61841
1.012	4.33044
1.0125	7.65381
1.013	3.02124
1.0135	4.63257
1.014	11.68213
1.0145	4.33044
1.015	2.31628
1.0155	-0.80566
1.016	6.54602
1.0165	7.15027
1.017	5.23682
1.0175	8.05664
1.018	7.5531
1.0185	2.92053
1.019	8.15735
1.0195	7.75452
1.02	8.25806
1.0205	8.05664
1.021	9.56726
1.0215	0.40283
1.022	4.83398
1.0225	2.71912
1.023	3.02124
1.0235	3.22266
1.024	-0.30212
1.0245	6.14319
1.025	0.70496
1.0255	3.52478
1.026	2.61841
1.0265	8.45947
1.027	4.12903
1.0275	7.5531
1.028	5.13611
1.0285	6.2439
1.029	4.22974
1.0295	9.76868
1.03	4.93469
1.0305	8.66089
1.031	8.45947
1.0315	5.63965
1.032	10.47363
1.0325	4.73328
1.033	7.85522
1.0335	7.65381
1.034	6.64673
1.0345	6.2439
1.035	11.38
1.0355	1.91345
1.036	10.17151
1.0365	8.45947
1.037	1.61133
1.0375	2.81982
1.038	9.56726
1.0385	8.66089
1.039	13.09204
1.0395	11.88354
1.04	5.84106
1.0405	7.04956
1.041	6.14319
1.0415	7.5531
1.042	2.31628
1.0425	3.22266
1.043	3.7262
1.0435	0.90637
1.044	4.93469
1.0445	8.15735
1.045	7.15027
1.0455	5.74036
1.046	6.94885
1.0465	10.87646
1.047	0.50354
1.0475	7.5531
1.048	4.63257
1.0485	4.93469
1.049	3.32336
1.0495	7.65381
1.05	5.94177
1.0505	2.92053
1.051	6.14319
1.0515	2.81982
1.052	4.63257
1.0525	-0.80566
1.053	3.8269
1.0535	5.94177
1.054	-0.60425
1.0545	6.44531
1.055	1.61133
1.0555	6.2439
1.056	3.92761
1.0565	5.33752
1.057	6.74744
1.0575	4.33044
1.058	4.53186
1.0585	10.57434
1.059	4.53186
1.0595	4.33044
1.06	7.45239
1.0605	7.15027
1.061	7.45239
1.0615	8.45947
1.062	3.92761
1.0625	6.04248
1.063	4.63257
1.0635	3.62549
1.064	4.33044
1.0645	7.45239
1.065	3.62549
1.0655	6.2439
1.066	-0.40283
1.0665	5.84106
1.067	7.15027
1.0675	8.8623
1.068	11.68213
1.0685	6.3446
1.069	9.97009
1.0695	10.0708
1.07	7.25098
1.0705	8.66089
1.071	7.15027
1.0715	6.74744
1.072	6.04248
1.0725	11.17859
1.073	3.92761
1.0735	8.45947
1.074	0.40283
1.0745	4.83398
1.075	9.97009
1.0755	1.61133
1.076	5.63965
1.0765	4.83398
1.077	5.74036
1.0775	5.94177
1.078	5.33752
1.0785	4.63257
1.079	8.56018
1.0795	7.04956
1.08	7.25098
1.0805	8.7616
1.081	7.95593
1.0815	9.56726
1.082	6.84814
1.0825	5.63965
1.083	10.27222
1.0835	6.84814
1.084	7.85522
1.0845	7.25098
1.085	6.94885
1.0855	6.74744
1.086	6.74744
1.0865	9.56726
1.087	10.17151
1.0875	6.54602
1.088	5.33752
1.0885	9.66797
1.089	7.65381
1.0895	8.05664
1.09	7.04956
1.0905	3.32336
1.091	5.74036
1.0915	7.35168
1.092	9.06372
1.0925	5.33752
1.093	3.22266
1.0935	5.94177
1.094	6.44531
1.0945	7.45239
1.095	9.16443
1.0955	2.41699
1.096	1.61133
1.0965	8.25806
1.097	4.73328
1.0975	4.02832
1.098	5.0354
1.0985	3.62549
1.099	6.54602
1.0995	8.8623
1.1	4.83398
1.1005	7.45239
1.101	1.00708
1.1015	4.93469
1.102	9.66797
1.1025	8.56018
1.103	3.52478
1.1035	3.62549
1.104	-0.60425
1.1045	1.10779
1.105	3.12195
1.1055	2.71912
1.106	-2.01416
1.1065	1.51062
1.107	3.42407
1.1075	1.40991
1.108	4.53186
1.1085	6.2439
1.109	7.04956
1.1095	7.45239
1.11	5.53894
1.1105	5.84106
1.111	3.7262
1.1115	-0.90637
1.112	3.02124
1.1125	5.43823
1.113	8.8623
1.1135	5.33752
1.114	5.13611
1.1145	3.92761
1.115	6.54602
1.1155	5.43823
1.116	2.31628
1.1165	4.43115
1.117	2.01416
1.1175	1.71204
1.118	6.64673
1.1185	7.95593
1.119	6.54602
1.1195	1.91345
1.12	5.13611
1.1205	4.43115
1.121	2.71912
1.1215	2.71912
1.122	2.81982
1.1225	7.45239
1.123	7.45239
1.1235	8.45947
1.124	9.76868
1.1245	7.45239
1.125	11.17859
1.1255	6.54602
1.126	10.97717
1.1265	11.17859
1.127	7.5531
1.1275	8.45947
1.128	5.63965
1.1285	7.85522
1.129	3.02124
1.1295	6.64673
1.13	5.84106
1.1305	5.33752
1.131	10.17151
1.1315	7.5531
1.132	9.36584
1.1325	6.84814
1.133	11.2793
1.1335	13.29346
1.134	7.04956
1.1345	7.04956
1.135	11.78284
1.1355	8.35876
1.136	7.15027
1.1365	6.84814
1.137	6.3446
1.1375	13.59558
1.138	11.58142
1.1385	9.06372
1.139	7.15027
1.1395	7.15027
1.14	3.7262
1.1405	2.01416
1.141	4.22974
1.1415	8.56018
1.142	4.83398
1.1425	3.7262
1.143	1.71204
1.1435	7.45239
1.144	3.42407
1.1445	2.92053
1.145	4.12903
1.1455	0.90637
1.146	7.04956
1.1465	10.87646
1.147	6.54602
1.1475	6.94885
1.148	8.56018
1.1485	3.92761
1.149	5.33752
1.1495	7.65381
1.15	9.86938
1.1505	8.05664
1.151	7.25098
1.1515	8.45947
1.152	3.02124
1.1525	8.96301
1.153	9.66797
1.1535	4.12903
1.154	5.23682
1.1545	7.65381
1.155	1.81274
1.1555	1.3092
1.156	4.73328
1.1565	4.53186
1.157	5.84106
1.1575	1.3092
1.158	4.83398
1.1585	2.71912
1.159	6.64673
1.1595	7.5531
1.16	3.42407
1.1605	7.95593
1.161	14.70337
1.1615	6.3446
1.162	7.04956
1.1625	15.20691
1.163	5.13611
1.1635	5.74036
1.164	8.96301
1.1645	7.25098
1.165	1.2085
1.1655	6.2439
1.166	0.50354
1.1665	3.52478
1.167	7.65381
1.1675	8.45947
1.168	8.05664
1.1685	3.8269
1.169	4.02832
1.1695	8.8623
1.17	11.48071
1.1705	10.37292
1.171	5.13611
1.1715	6.2439
1.172	10.77576
1.1725	6.94885
1.173	7.5531
1.1735	13.99841
1.174	8.7616
1.1745	9.26514
1.175	9.56726
1.1755	3.8269
1.176	2.01416
1.1765	4.53186
1.177	6.94885
1.1775	3.32336
1.178	6.74744
1.1785	11.88354
1.179	6.64673
1.1795	4.53186
1.18	3.92761
1.1805	7.35168
1.181	7.75452
1.1815	7.04956
1.182	5.43823
1.1825	1.71204
1.183	5.74036
1.1835	3.42407
1.184	5.23682
1.1845	0.80566
1.185	1.51062
1.1855	0.60425
1.186	-3.02124
1.1865	-0.50354
1.187	-2.01416
1.1875	-0.60425
1.188	-2.01416
1.1885	1.51062
1.189	5.0354
1.1895	1.2085
1.19	3.32336
1.1905	4.83398
1.191	0.80566
1.1915	0.20142
1.192	1.2085
1.1925	3.32336
1.193	2.41699
1.1935	0.20142
1.194	8.15735
1.1945	4.12903
1.195	5.0354
1.1955	-0.80566
1.196	-0.60425
1.1965	4.83398
1.197	4.22974
1.1975	6.2439
1.198	6.54602
1.1985	7.5531
1.199	8.25806
1.1995	3.02124
1.2	4.93469
1.2005	1.81274
1.201	4.53186
1.2015	7.45239
1.202	3.7262
1.2025	4.83398
1.203	3.02124
1.2035	6.14319
1.204	4.43115
1.2045	4.93469
1.205	7.15027
1.2055	2.92053
1.206	3.62549
1.2065	4.83398
1.207	2.41699
1.2075	4.63257
1.208	4.73328
1.2085	9.97009
1.209	7.85522
1.2095	4.73328
1.21	6.2439
1.2105	6.54602
1.211	6.54602
1.2115	3.42407
1.212	5.33752
1.2125	2.81982
1.213	1.10779
1.2135	2.11487
1.214	3.02124
1.2145	10.17151
1.215	6.84814
1.2155	6.04248
1.216	5.63965
1.2165	4.93469
1.217	2.31628
1.2175	5.13611
1.218	0.50354
1.2185	-3.02124
1.219	4.63257
1.2195	6.54602
1.22	7.85522
1.2205	5.0354
1.221	10.97717
1.2215	8.15735
1.222	3.62549
1.2225	0.80566
1.223	4.22974
1.2235	7.95593
1.224	6.54602
1.2245	6.2439
1.225	7.04956
1.2255	10.0708
1.226	2.71912
1.2265	9.66797
1.227	7.35168
1.2275	6.54602
1.228	0.10071
1.2285	8.45947
1.229	3.92761
1.2295	3.02124
1.23	9.36584
1.2305	2.11487
1.231	10.77576
1.2315	6.14319
1.232	4.53186
1.2325	5.74036
1.233	5.84106
1.2335	2.11487
1.234	6.54602
1.2345	6.2439
1.235	6.2439
1.2355	6.14319
1.236	2.11487
1.2365	0.50354
1.237	1.91345
1.2375	8.96301
1.238	9.97009
1.2385	4.73328
1.239	6.84814
1.2395	4.63257
1.24	3.12195
1.2405	6.04248
1.241	10.27222
1.2415	5.84106
1.242	6.54602
1.2425	9.16443
1.243	6.04248
1.2435	6.2439
1.244	9.86938
1.2445	6.64673
1.245	6.44531
1.2455	9.86938
1.246	5.43823
1.2465	4.63257
1.247	2.21558
1.2475	5.0354
1.248	4.43115
1.2485	4.83398
1.249	3.7262
1.2495	10.77576
1.25	11.07788
1.2505	8.7616
1.251	15.71045
1.2515	13.797
1.252	7.75452
1.2525	6.84814
1.253	6.04248
1.2535	7.45239
1.254	6.44531
1.2545	8.8623
1.255	5.84106
1.2555	11.17859
1.256	9.06372
1.2565	7.5531
1.257	5.0354
1.2575	1.61133
1.258	12.28638
1.2585	10.17151
1.259	10.77576
1.2595	9.97009
1.26	7.15027
1.2605	5.33752
1.261	5.53894
1.2615	8.15735
1.262	7.75452
1.2625	7.85522
1.263	7.04956
1.2635	-2.01416
1.264	-0.50354
1.2645	4.93469
1.265	7.45239
1.2655	4.12903
1.266	5.23682
1.2665	2.81982
1.267	7.85522
1.2675	5.43823
1.268	5.13611
1.2685	9.16443
1.269	-0.60425
1.2695	0.30212
1.27	3.8269
1.2705	5.0354
1.271	6.04248
1.2715	4.83398
1.272	0.80566
1.2725	5.13611
1.273	1.10779
1.2735	4.73328
1.274	3.8269
1.2745	3.42407
1.275	2.41699
1.2755	4.53186
1.276	9.06372
1.2765	9.16443
1.277	2.5177
1.2775	6.04248
1.278	3.22266
1.2785	4.83398
1.279	0.50354
1.2795	3.32336
1.28	4.73328
1.2805	4.02832
1.281	-1.00708
1.2815	5.74036
1.282	10.57434
1.2825	9.36584
1.283	2.71912
1.2835	7.75452
1.284	8.25806
1.2845	1.51062
1.285	6.2439
1.2855	5.0354
1.286	2.41699
1.2865	7.25098
1.287	1.3092
1.2875	2.61841
1.288	7.5531
1.2885	-1.00708
1.289	4.63257
1.2895	7.95593
1.29	5.43823
1.2905	1.61133
1.291	-0.30212
1.2915	4.73328
1.292	2.5177
1.2925	3.52478
1.293	3.8269
1.2935	4.93469
1.294	-0.40283
1.2945	3.7262
1.295	5.0354
1.2955	1.2085
1.296	4.02832
1.2965	4.43115
1.297	4.73328
1.2975	4.43115
1.298	10.27222
1.2985	4.43115
1.299	6.84814
1.2995	6.64673
1.3	11.17859
1.3005	4.33044
1.301	4.93469
1.3015	3.92761
1.302	5.43823
1.3025	5.43823
1.303	-1.40991
1.3035	0.80566
1.304	4.02832
1.3045	-0.40283
1.305	1.00708
1.3055	1.91345
1.306	4.53186
1.3065	5.74036
1.307	2.61841
1.3075	5.74036
1.308	6.64673
1.3085	0.80566
1.309	3.22266
1.3095	1.2085
1.31	1.2085
1.3105	5.63965
1.311	2.71912
1.3115	4.53186
1.312	6.94885
1.3125	-2.11487
1.313	4.43115
1.3135	4.22974
1.314	-2.21558
1.3145	-3.42407
1.315	5.13611
1.3155	3.62549
1.316	3.12195
1.3165	0.80566
1.317	2.31628
1.3175	6.3446
1.318	4.83398
1.3185	1.51062
1.319	0.70496
1.3195	0.40283
1.32	5.23682
1.3205	0.90637
1.321	1.2085
1.3215	4.93469
1.322	2.92053
1.3225	2.41699
1.323	2.81982
1.3235	5.33752
1.324	8.25806
1.3245	4.43115
1.325	-0.90637
1.3255	6.44531
1.326	-3.02124
1.3265	2.81982
1.327	6.54602
1.3275	6.74744
1.328	11.98425
1.3285	9.26514
1.329	7.04956
1.3295	5.13611
1.33	7.04956
1.3305	0.70496
1.331	6.94885
1.3315	5.84106
1.332	10.27222
1.3325	8.56018
1.333	7.15027
1.3335	7.45239
1.334	8.96301
1.3345	10.17151
1.335	6.2439
1.3355	5.43823
1.336	10.77576
1.3365	10.97717
1.337	12.68921
1.3375	8.15735
1.338	11.68213
1.3385	9.16443
1.339	4.22974
1.3395	13.797
1.34	9.56726
1.3405	6.3446
1.341	8.25806
1.3415	5.43823
1.342	6.2439
1.3425	6.14319
1.343	9.26514
1.3435	8.7616
1.344	10.37292
1.3445	7.45239
1.345	8.35876
1.3455	8.25806
1.346	12.5885
1.3465	9.46655
1.347	5.0354
1.3475	6.94885
1.348	4.93469
1.3485	5.94177
1.349	5.94177
1.3495	6.94885
1.35	11.48071
1.3505	7.35168
1.351	8.15735
1.3515	8.7616
1.352	6.54602
1.3525	9.36584
1.353	8.45947
1.3535	6.14319
1.354	7.45239
1.3545	3.7262
1.355	8.8623
1.3555	0.50354
1.356	8.7616
1.3565	5.43823
1.357	7.04956
1.3575	3.32336
1.358	6.2439
1.3585	4.33044
1.359	5.63965
1.3595	6.94885
1.36	11.17859
1.3605	4.33044
1.361	4.02832
1.3615	1.81274
1.362	6.94885
1.3625	5.33752
1.363	1.61133
1.3635	3.52478
1.364	7.5531
1.3645	4.22974
1.365	3.22266
1.3655	3.32336
1.366	0.80566
1.3665	4.83398
1.367	5.84106
1.3675	6.74744
1.368	3.42407
1.3685	6.94885
1.369	11.78284
1.3695	9.16443
1.37	8.66089
1.3705	6.3446
1.371	6.3446
1.3715	6.54602
1.372	10.17151
1.3725	4.73328
1.373	4.83398
1.3735	8.66089
1.374	8.96301
1.3745	8.8623
1.375	5.23682
1.3755	8.05664
1.376	5.33752
1.3765	2.41699
1.377	3.8269
1.3775	1.2085
1.378	3.42407
1.3785	0.90637
1.379	-5.43823
1.3795	4.53186
1.38	1.71204
1.3805	2.61841
1.381	0.20142
1.3815	5.53894
1.382	0.80566
1.3825	5.94177
1.383	1.81274
1.3835	6.14319
1.384	0.90637
1.3845	4.43115
1.385	3.02124
1.3855	4.02832
1.386	0.80566
1.3865	1.81274
1.387	3.52478
1.3875	0.30212
1.388	1.40991
1.3885	8.25806
1.389	0.50354
1.3895	1.00708
1.39	2.21558
1.3905	2.11487
1.391	4.73328
1.3915	-4.33044
1.392	1.81274
1.3925	0
1.393	-2.81982
1.3935	-1.91345
1.394	4.12903
1.3945	7.45239
1.395	3.52478
1.3955	-2.61841
1.396	-0.50354
1.3965	1.3092
1.397	1.81274
1.3975	3.92761
1.398	-1.3092
1.3985	2.01416
1.399	-4.22974
1.3995	-1.71204
1.4	-5.94177
1.4005	-0.10071
1.401	-3.92761
1.4015	2.5177
1.402	-0.10071
1.4025	-1.40991
1.403	3.92761
1.4035	3.8269
1.404	1.71204
1.4045	1.3092
1.405	-0.30212
1.4055	-0.20142
1.406	-3.02124
1.4065	-1.2085
1.407	-0.20142
1.4075	-3.32336
1.408	-3.12195
1.4085	3.42407
1.409	0.60425
1.4095	4.02832
1.41	7.65381
1.4105	2.61841
1.411	4.33044
1.4115	3.62549
1.412	9.16443
1.4125	5.94177
1.413	-0.20142
1.4135	4.02832
1.414	-1.51062
1.4145	2.11487
1.415	-3.12195
1.4155	-0.20142
1.416	3.52478
1.4165	2.21558
1.417	3.52478
1.4175	3.22266
1.418	4.12903
1.4185	4.83398
1.419	8.8623
1.4195	3.22266
1.42	4.22974
1.4205	5.94177
1.421	7.04956
1.4215	3.7262
1.422	3.02124
1.4225	1.2085
1.423	4.73328
1.4235	8.25806
1.424	1.61133
1.4245	1.91345
1.425	11.58142
1.4255	4.53186
1.426	5.43823
1.4265	8.35876
1.427	10.47363
1.4275	6.2439
1.428	6.04248
1.4285	8.96301
1.429	10.17151
1.4295	3.12195
1.43	2.11487
1.4305	2.61841
1.431	6.3446
1.4315	7.25098
1.432	3.7262
1.4325	5.43823
1.433	6.44531
1.4335	9.36584
1.434	9.06372
1.4345	7.5531
1.435	7.45239
1.4355	11.2793
1.436	7.85522
1.4365	7.65381
1.437	2.5177
1.4375	3.92761
1.438	8.25806
1.4385	8.96301
1.439	11.98425
1.4395	17.12036
1.44	15.00549
1.4405	16.3147
1.441	16.21399
1.4415	11.48071
1.442	12.08496
1.4425	15.71045
1.443	12.38708
1.4435	7.5531
1.444	12.99133
1.4445	6.54602
1.445	12.28638
1.4455	8.35876
1.446	3.12195
1.4465	4.22974
1.447	3.8269
1.4475	6.74744
1.448	4.33044
1.4485	11.48071
1.449	5.74036
1.4495	7.65381
1.45	6.14319
1.4505	7.45239
1.451	7.04956
1.4515	4.73328
1.452	6.3446
1.4525	3.12195
1.453	3.12195
1.4535	3.62549
1.454	2.81982
1.4545	7.85522
1.455	8.05664
1.4555	5.33752
1.456	3.42407
1.4565	6.64673
1.457	3.92761
1.4575	5.33752
1.458	4.83398
1.4585	4.22974
1.459	7.25098
1.4595	8.05664
1.46	1.51062
1.4605	3.8269
1.461	3.52478
1.4615	1.10779
1.462	9.06372
1.4625	7.04956
1.463	6.54602
1.4635	11.98425
1.464	6.54602
1.4645	5.84106
1.465	6.84814
1.4655	4.12903
1.466	1.00708
1.4665	5.94177
1.467	3.7262
1.4675	7.85522
1.468	4.02832
1.4685	5.13611
1.469	2.61841
1.4695	4.33044
1.47	13.89771
1.4705	10.17151
1.471	9.86938
1.4715	9.26514
1.472	9.46655
1.4725	0.50354
1.473	-0.70496
1.4735	4.02832
1.474	-1.91345
1.4745	5.23682
1.475	6.04248
1.4755	4.22974
1.476	2.11487
1.4765	7.04956
1.477	0.80566
1.4775	6.94885
1.478	3.32336
1.4785	7.15027
1.479	4.53186
1.4795	3.42407
1.48	2.01416
1.4805	1.2085
1.481	0.90637
1.4815	4.02832
1.482	8.15735
1.4825	13.59558
1.483	5.13611
1.4835	4.12903
1.484	9.06372
1.4845	9.66797
1.485	9.66797
1.4855	15.40833
1.486	10.77576
1.4865	6.64673
1.487	1.51062
1.4875	7.15027
1.488	7.15027
1.4885	13.797
1.489	7.25098
1.4895	6.54602
1.49	7.15027
1.4905	8.15735
1.491	7.95593
1.4915	5.23682
1.492	9.86938
1.4925	5.74036
1.493	6.74744
1.4935	5.63965
1.494	-0.60425
1.4945	9.16443
1.495	5.74036
1.4955	10.77576
1.496	8.96301
1.4965	4.73328
1.497	7.45239
1.4975	3.92761
1.498	6.64673
1.4985	6.84814
1.499	4.22974
1.4995	8.56018
1.5	7.25098
1.5005	9.66797
1.501	2.61841
1.5015	0.80566
1.502	1.81274
1.5025	3.42407
1.503	7.65381
1.5035	4.53186
1.504	0.60425
1.5045	6.54602
1.505	5.53894
1.5055	7.75452
1.506	10.27222
1.5065	3.42407
1.507	2.5177
1.5075	4.73328
1.508	6.3446
1.5085	9.76868
1.509	9.16443
1.5095	15.71045
1.51	13.39417
1.5105	8.25806
1.511	8.15735
1.5115	8.7616
1.512	6.3446
1.5125	6.2439
1.513	7.25098
1.5135	-1.3092
1.514	4.93469
1.5145	1.71204
1.515	2.71912
1.5155	8.8623
1.516	3.8269
1.5165	8.56018
1.517	8.56018
1.5175	6.64673
1.518	9.97009
1.5185	-0.20142
1.519	0
1.5195	4.73328
1.52	-0.70496
1.5205	6.2439
1.521	6.04248
1.5215	8.8623
1.522	2.61841
1.5225	4.83398
1.523	2.81982
1.5235	5.33752
1.524	4.43115
1.5245	3.8269
1.525	6.54602
1.5255	5.74036
1.526	4.43115
1.5265	0.80566
1.527	1.61133
1.5275	3.32336
1.528	10.37292
1.5285	14.09912
1.529	7.95593
1.5295	6.54602
1.53	3.12195
1.5305	6.54602
1.531	8.15735
1.5315	10.17151
1.532	8.96301
1.5325	9.26514
1.533	3.12195
1.5335	4.53186
1.534	4.73328
1.5345	8.25806
1.535	0.60425
1.5355	4.02832
1.536	7.25098
1.5365	3.12195
1.537	3.8269
1.5375	6.2439
1.538	7.35168
1.5385	5.53894
1.539	5.63965
1.5395	7.25098
1.54	1.91345
1.5405	6.94885
1.541	0.50354
1.5415	5.13611
1.542	9.26514
1.5425	2.71912
1.543	7.45239
1.5435	8.35876
1.544	4.93469
1.5445	7.15027
1.545	5.13611
1.5455	3.52478
1.546	-0.10071
1.5465	3.22266
1.547	11.38
1.5475	6.2439
1.548	7.25098
1.5485	14.30054
1.549	11.98425
1.5495	5.63965
1.55	9.97009
1.5505	11.38
1.551	9.16443
1.5515	5.94177
1.552	13.29346
1.5525	12.89062
1.553	10.77576
1.5535	4.43115
1.554	3.32336
1.5545	3.92761
1.555	9.26514
1.5555	9.06372
1.556	3.12195
1.5565	6.74744
1.557	6.3446
1.5575	5.0354
1.558	7.35168
1.5585	5.33752
1.559	4.53186
1.5595	7.35168
1.56	3.22266
1.5605	6.2439
1.561	8.05664
1.5615	6.3446
1.562	7.04956
1.5625	10.77576
1.563	3.8269
1.5635	-2.21558
1.564	-10.17151
1.5645	-11.2793
1.565	-16.91895
1.5655	-12.28638
1.566	-11.68213
1.5665	-18.8324
1.567	-21.85364
1.5675	-23.8678
1.568	-23.16284
1.5685	-26.88904
1.569	-24.67346
1.5695	-25.98267
1.57	-18.93311
1.5705	-14.30054
1.571	-13.19275
1.5715	-6.84814
1.572	1.51062
1.5725	7.75452
1.573	10.0708
1.5735	17.22107
1.574	21.24939
1.5745	19.23523
1.575	26.58691
1.5755	25.78125
1.576	27.89612
1.5765	28.19824
1.577	26.88904
1.5775	15.81116
1.578	17.42249
1.5785	13.89771
1.579	12.48779
1.5795	12.18567
1.58	9.56726
1.5805	6.14319
1.581	5.84106
1.5815	2.71912
1.582	0.80566
1.5825	1.51062
1.583	-4.22974
1.5835	-6.74744
1.584	-11.38
1.5845	-13.39417
1.585	-13.09204
1.5855	-11.88354
1.586	-14.19983
1.5865	-9.97009
1.587	-7.15027
1.5875	-6.94885
1.588	-0.50354
1.5885	10.67505
1.589	5.74036
1.5895	16.61682
1.59	16.11328
1.5905	18.12744
1.591	19.53735
1.5915	30.11169
1.592	24.27063
1.5925	30.91736
1.593	31.21948
1.5935	22.35718
1.594	22.25647
1.5945	20.74585
1.595	13.09204
1.5955	8.66089
1.596	11.78284
1.5965	19.73877
1.597	20.54443
1.5975	22.05505
1.598	23.8678
1.5985	25.88196
1.599	35.95276
1.5995	32.93152
1.6	32.22656
1.6005	27.59399
1.601	22.96143
1.6015	21.95435
1.602	25.37842
1.6025	16.81824
1.603	7.65381
1.6035	2.81982
1.604	1.40991
1.6045	1.91345
1.605	4.43115
1.6055	1.40991
1.606	-4.33044
1.6065	-4.63257
1.607	-2.61841
1.6075	-6.04248
1.608	-10.67505
1.6085	-9.46655
1.609	-7.85522
1.6095	-2.21558
1.61	1.40991
1.6105	-3.52478
1.611	-1.2085
1.6115	2.41699
1.612	6.04248
1.6125	-1.2085
1.613	-1.40991
1.6135	0.60425
1.614	-1.00708
1.6145	-1.10779
1.615	-1.51062
1.6155	-3.22266
1.616	-8.15735
1.6165	-2.21558
1.617	-2.5177
1.6175	0.20142
1.618	6.64673
1.6185	7.04956
1.619	8.15735
1.6195	9.97009
1.62	16.11328
1.6205	13.59558
1.621	19.63806
1.6215	17.6239
1.622	22.6593
1.6225	20.94727
1.623	26.28479
1.6235	25.27771
1.624	26.88904
1.6245	25.68054
1.625	15.00549
1.6255	13.19275
1.626	17.42249
1.6265	13.69629
1.627	18.02673
1.6275	10.17151
1.628	5.53894
1.6285	12.18567
1.629	12.38708
1.6295	11.17859
1.63	2.81982
1.6305	10.27222
1.631	10.47363
1.6315	11.38
1.632	8.45947
1.6325	9.56726
1.633	6.84814
1.6335	7.45239
1.634	0.60425
1.6345	3.62549
1.635	4.33044
1.6355	3.8269
1.636	5.53894
1.6365	2.11487
1.637	-1.40991
1.6375	-2.5177
1.638	-1.71204
1.6385	-5.23682
1.639	3.92761
1.6395	3.8269
1.64	0.70496
1.6405	1.10779
1.641	-0.40283
1.6415	-4.73328
1.642	-4.12903
1.6425	-3.02124
1.643	1.10779
1.6435	1.10779
1.644	2.01416
1.6445	1.61133
1.645	-0.20142
1.6455	0.60425
1.646	3.8269
1.6465	3.8269
1.647	7.5531
1.6475	-0.90637
1.648	0.80566
1.6485	-0.10071
1.649	2.11487
1.6495	0.60425
1.65	1.71204
1.6505	0.20142
1.651	-1.40991
1.6515	3.12195
1.652	3.02124
1.6525	3.8269
1.653	6.44531
1.6535	9.36584
1.654	4.22974
1.6545	-2.21558
1.655	-1.81274
1.6555	-10.47363
1.656	-3.42407
1.6565	-9.36584
1.657	-10.27222
1.6575	-8.05664
1.658	-10.37292
1.6585	-14.19983
1.659	-16.01257
1.6595	-13.49487
1.66	-12.68921
1.6605	-9.86938
1.661	-8.35876
1.6615	-0.50354
1.662	2.41699
1.6625	8.25806
1.663	13.69629
1.6635	15.30762
1.664	24.77417
1.6645	26.18408
1.665	27.6947
1.6655	31.01807
1.666	32.02515
1.6665	33.83789
1.667	28.09753
1.6675	26.58691
1.668	19.94019
1.6685	21.24939
1.669	12.78992
1.6695	11.78284
1.67	7.25098
1.6705	0.20142
1.671	7.95593
1.6715	3.02124
1.672	3.12195
1.6725	-1.51062
1.673	-7.5531
1.6735	-7.85522
1.674	-5.94177
1.6745	-10.67505
1.675	0.90637
1.6755	-1.00708
1.676	0.60425
1.6765	-4.22974
1.677	2.31628
1.6775	1.71204
1.678	-2.81982
1.6785	-3.7262
1.679	-1.10779
1.6795	-2.81982
1.68	-2.5177
1.6805	-8.25806
1.681	-5.84106
1.6815	-8.8623
1.682	-13.59558
1.6825	-10.47363
1.683	-11.38
1.6835	-6.84814
1.684	-4.93469
1.6845	-5.23682
1.685	-3.02124
1.6855	3.52478
1.686	-1.00708
1.6865	4.73328
1.687	2.81982
1.6875	4.33044
1.688	11.38
1.6885	14.40125
1.689	7.85522
1.6895	3.12195
1.69	12.18567
1.6905	9.66797
1.691	11.2793
1.6915	16.51611
1.692	21.55151
1.6925	23.06213
1.693	23.56567
1.6935	23.36426
1.694	22.6593
1.6945	17.72461
1.695	19.94019
1.6955	19.63806
1.696	13.89771
1.6965	16.61682
1.697	13.19275
1.6975	15.40833
1.698	11.2793
1.6985	15.91187
1.699	20.94727
1.6995	20.74585
1.7	18.53027
1.7005	12.18567
1.701	16.11328
1.7015	17.92603
1.702	17.92603
1.7025	16.11328
1.703	12.08496
1.7035	11.88354
1.704	9.76868
1.7045	12.08496
1.705	13.69629
1.7055	5.94177
1.706	3.62549
1.7065	4.33044
1.707	6.94885
1.7075	0.50354
1.708	14.09912
1.7085	9.56726
1.709	6.54602
1.7095	11.48071
1.71	10.87646
1.7105	6.44531
1.711	6.44531
1.7115	6.74744
1.712	8.15735
1.7125	7.04956
1.713	3.92761
1.7135	5.94177
1.714	4.02832
1.7145	1.10779
1.715	10.37292
1.7155	1.40991
1.716	9.66797
1.7165	5.84106
1.717	9.56726
1.7175	5.63965
1.718	6.04248
1.7185	5.43823
1.719	9.36584
1.7195	8.8623
1.72	6.94885
1.7205	6.54602
1.721	4.12903
1.7215	8.45947
1.722	4.22974
1.7225	4.53186
1.723	4.22974
1.7235	4.43115
1.724	7.25098
1.7245	8.8623
1.725	4.43115
1.7255	7.65381
1.726	6.44531
1.7265	5.43823
1.727	5.74036
1.7275	1.2085
1.728	8.8623
1.7285	6.74744
1.729	1.51062
1.7295	2.41699
1.73	0.50354
1.7305	6.04248
1.731	2.71912
1.7315	5.74036
1.732	-2.71912
1.7325	3.92761
1.733	6.84814
1.7335	3.7262
1.734	7.04956
1.7345	0.20142
1.735	3.52478
1.7355	1.61133
1.736	4.33044
1.7365	6.2439
1.737	8.05664
1.7375	0.20142
1.738	2.11487
1.7385	5.84106
1.739	0.80566
1.7395	1.10779
1.74	5.53894
1.7405	2.21558
1.741	5.43823
1.7415	4.53186
1.742	1.10779
1.7425	2.21558
1.743	2.71912
1.7435	5.74036
1.744	2.21558
1.7445	2.5177
1.745	6.14319
1.7455	4.33044
1.746	3.42407
1.7465	5.0354
1.747	2.31628
1.7475	6.84814
1.748	6.94885
1.7485	6.3446
1.749	2.21558
1.7495	2.71912
1.75	-0.10071
1.7505	2.5177
1.751	6.04248
1.7515	-0.30212
1.752	4.12903
1.7525	8.45947
1.753	6.04248
1.7535	3.12195
1.754	7.04956
1.7545	0.30212
1.755	5.53894
1.7555	4.53186
1.756	7.45239
1.7565	8.96301
1.757	11.98425
1.7575	9.26514
1.758	6.64673
1.7585	9.56726
1.759	12.28638
1.7595	10.37292
1.76	6.94885
1.7605	8.96301
1.761	11.98425
1.7615	7.04956
1.762	10.77576
1.7625	8.66089
1.763	13.49487
1.7635	2.31628
1.764	9.26514
1.7645	10.97717
1.765	9.36584
1.7655	10.37292
1.766	10.47363
1.7665	8.8623
1.767	13.49487
1.7675	8.66089
1.768	10.97717
1.7685	13.29346
1.769	6.14319
1.7695	8.25806
1.77	10.87646
1.7705	4.73328
1.771	4.33044
1.7715	7.45239
1.772	10.67505
1.7725	8.66089
1.773	8.15735
1.7735	9.97009
1.774	10.17151
1.7745	6.3446
1.775	6.54602
1.7755	6.3446
1.776	5.13611
1.7765	2.31628
1.777	6.04248
1.7775	3.22266
1.778	-0.40283
1.7785	-1.51062
1.779	2.92053
1.7795	6.64673
1.78	1.40991
1.7805	-0.60425
1.781	3.52478
1.7815	6.3446
1.782	-0.40283
1.7825	-0.10071
1.783	-3.32336
1.7835	-3.32336
1.784	1.2085
1.7845	2.11487
1.785	4.83398
1.7855	0.90637
1.786	0.40283
1.7865	3.12195
1.787	6.74744
1.7875	6.14319
1.788	6.04248
1.7885	4.02832
1.789	4.43115
1.7895	0.80566
1.79	1.81274
1.7905	5.43823
1.791	2.81982
1.7915	5.53894
1.792	4.83398
1.7925	2.81982
1.793	1.3092
1.7935	3.42407
1.794	-3.52478
1.7945	1.3092
1.795	-4.63257
1.7955	2.21558
1.796	1.3092
1.7965	2.61841
1.797	0.60425
1.7975	5.74036
1.798	8.96301
1.7985	4.02832
1.799	4.02832
1.7995	4.53186
1.8	4.63257
1.8005	3.92761
1.801	4.33044
1.8015	4.83398
1.802	0.90637
1.8025	2.81982
1.803	0.70496
1.8035	1.51062
1.804	3.12195
1.8045	4.22974
1.805	1.3092
1.8055	4.43115
1.806	-0.70496
1.8065	5.53894
1.807	6.2439
1.8075	1.51062
1.808	-3.32336
1.8085	2.21558
1.809	0.10071
1.8095	2.41699
1.81	3.8269
1.8105	0.30212
1.811	4.43115
1.8115	0
1.812	5.43823
1.8125	3.8269
1.813	5.33752
1.8135	5.43823
1.814	4.93469
1.8145	4.33044
1.815	0.50354
1.8155	1.00708
1.816	-0.80566
1.8165	0.60425
1.817	-2.31628
1.8175	1.71204
1.818	5.33752
1.8185	2.92053
1.819	1.40991
1.8195	4.12903
1.82	8.25806
1.8205	3.42407
1.821	6.94885
1.8215	4.22974
1.822	2.61841
1.8225	6.84814
1.823	4.53186
1.8235	0.80566
1.824	-1.81274
1.8245	1.71204
1.825	3.92761
1.8255	3.52478
1.826	3.52478
1.8265	6.54602
1.827	5.53894
1.8275	4.93469
1.828	4.73328
1.8285	2.81982
1.829	6.04248
1.8295	8.56018
1.83	7.85522
1.8305	6.44531
1.831	4.12903
1.8315	1.71204
1.832	1.71204
1.8325	3.12195
1.833	7.5531
1.8335	2.01416
1.834	9.06372
1.8345	11.07788
1.835	6.44531
1.8355	7.95593
1.836	11.48071
1.8365	4.93469
1.837	5.33752
1.8375	7.04956
1.838	12.08496
1.8385	13.19275
1.839	8.96301
1.8395	7.35168
1.84	6.14319
1.8405	4.73328
1.841	7.75452
1.8415	6.84814
1.842	9.36584
1.8425	10.0708
1.843	8.56018
1.8435	1.40991
1.844	9.66797
1.8445	6.74744
1.845	7.45239
1.8455	9.56726
1.846	4.22974
1.8465	2.5177
1.847	3.52478
1.8475	3.62549
1.848	7.04956
1.8485	5.63965
1.849	12.28638
1.8495	10.17151
1.85	3.02124
1.8505	3.22266
1.851	6.54602
1.8515	1.40991
1.852	8.15735
1.8525	5.94177
1.853	8.66089
1.8535	2.5177
1.854	4.33044
1.8545	5.94177
1.855	6.2439
1.8555	7.15027
1.856	10.67505
1.8565	6.84814
1.857	6.64673
1.8575	-0.30212
1.858	1.00708
1.8585	5.33752
1.859	5.63965
1.8595	5.13611
1.86	4.93469
1.8605	3.22266
1.861	6.44531
1.8615	8.7616
1.862	2.31628
1.8625	-0.50354
1.863	4.22974
1.8635	-6.3446
1.864	0.60425
1.8645	-1.71204
1.865	-1.61133
1.8655	5.43823
1.866	1.51062
1.8665	-0.10071
1.867	9.36584
1.8675	5.33752
1.868	0.60425
1.8685	4.53186
1.869	9.76868
1.8695	7.5531
1.87	6.04248
1.8705	7.04956
1.871	5.13611
1.8715	9.16443
1.872	8.25806
1.8725	5.94177
1.873	3.8269
1.8735	3.02124
1.874	2.11487
1.8745	7.15027
1.875	5.84106
1.8755	7.95593
1.876	5.84106
1.8765	2.41699
1.877	8.56018
1.8775	8.05664
1.878	2.61841
1.8785	4.93469
1.879	3.32336
1.8795	3.12195
1.88	7.45239
1.8805	4.02832
1.881	8.96301
1.8815	5.63965
1.882	1.3092
1.8825	-0.40283
1.883	-2.21558
1.8835	3.42407
1.884	2.41699
1.8845	0.80566
1.885	1.61133
1.8855	-0.70496
1.886	-1.81274
1.8865	2.92053
1.887	5.23682
1.8875	0.90637
1.888	1.40991
1.8885	6.74744
1.889	-0.60425
1.8895	2.31628
1.89	-1.51062
1.8905	-6.64673
1.891	-3.32336
1.8915	-4.02832
1.892	-2.71912
1.8925	-6.74744
1.893	-5.23682
1.8935	-5.0354
1.894	1.10779
1.8945	-0.40283
1.895	1.71204
1.8955	4.12903
1.896	8.35876
1.8965	8.35876
1.897	15.91187
1.8975	19.13452
1.898	20.94727
1.8985	15.91187
1.899	15.40833
1.8995	12.28638
1.9	14.70337
1.9005	11.17859
1.901	8.96301
1.9015	4.83398
1.902	5.94177
1.9025	6.74744
1.903	3.32336
1.9035	4.22974
1.904	3.22266
1.9045	8.56018
1.905	11.17859
1.9055	12.89062
1.906	11.38
1.9065	6.94885
1.907	8.15735
1.9075	11.88354
1.908	8.15735
1.9085	8.7616
1.909	7.65381
1.9095	4.33044
1.91	6.54602
1.9105	3.8269
1.911	2.71912
1.9115	8.7616
1.912	4.63257
1.9125	7.35168
1.913	4.22974
1.9135	3.02124
1.914	8.96301
1.9145	9.97009
1.915	9.26514
1.9155	10.87646
1.916	5.94177
1.9165	4.43115
1.917	7.75452
1.9175	6.44531
1.918	7.15027
1.9185	6.84814
1.919	6.84814
1.9195	14.30054
1.92	10.27222
1.9205	9.66797
1.921	6.84814
1.9215	6.3446
1.922	4.93469
1.9225	5.13611
1.923	4.83398
1.9235	6.64673
1.924	3.92761
1.9245	8.56018
1.925	9.16443
1.9255	10.77576
1.926	7.25098
1.9265	6.64673
1.927	10.67505
1.9275	6.2439
1.928	10.97717
1.9285	7.5531
1.929	9.26514
1.9295	4.33044
1.93	10.67505
1.9305	11.48071
1.931	10.77576
1.9315	6.84814
1.932	11.07788
1.9325	8.25806
1.933	8.35876
1.9335	5.43823
1.934	6.3446
1.9345	8.66089
1.935	7.75452
1.9355	7.5531
1.936	3.7262
1.9365	8.66089
1.937	8.56018
1.9375	9.46655
1.938	7.15027
1.9385	11.17859
1.939	7.45239
1.9395	12.99133
1.94	11.58142
1.9405	7.35168
1.941	5.94177
1.9415	6.64673
1.942	9.06372
1.9425	8.45947
1.943	9.06372
1.9435	8.96301
1.944	8.25806
1.9445	5.74036
1.945	10.0708
1.9455	7.95593
1.946	8.05664
1.9465	6.54602
1.947	5.63965
1.9475	6.44531
1.948	8.45947
1.9485	8.96301
1.949	3.7262
1.9495	6.84814
1.95	7.35168
1.9505	8.05664
1.951	12.89062
1.9515	6.64673
1.952	8.8623
1.9525	3.8269
1.953	2.61841
1.9535	6.14319
1.954	4.53186
1.9545	5.63965
1.955	6.54602
1.9555	8.15735
1.956	0.50354
1.9565	4.93469
1.957	1.81274
1.9575	3.22266
1.958	6.54602
1.9585	7.65381
1.959	9.06372
1.9595	4.73328
1.96	6.84814
1.9605	5.53894
1.961	5.0354
1.9615	6.14319
1.962	5.63965
1.9625	-4.43115
1.963	1.91345
1.9635	-0.40283
1.964	4.53186
1.9645	5.0354
1.965	0.30212
1.9655	4.83398
1.966	0
1.9665	3.62549
1.967	4.22974
1.9675	0.80566
1.968	8.66089
1.9685	5.53894
1.969	8.15735
1.9695	7.25098
1.97	9.26514
1.9705	3.22266
1.971	6.74744
1.9715	6.44531
1.972	5.43823
1.9725	5.53894
1.973	5.84106
1.9735	6.54602
1.974	6.74744
1.9745	8.8623
1.975	8.45947
1.9755	7.25098
1.976	5.84106
1.9765	4.43115
1.977	9.16443
1.9775	4.12903
1.978	3.8269
1.9785	2.41699
1.979	4.53186
1.9795	2.5177
1.98	5.53894
1.9805	2.41699
1.981	8.45947
1.9815	0.50354
1.982	3.42407
1.9825	0.50354
1.983	0.20142
1.9835	-1.81274
1.984	-2.01416
1.9845	7.15027
1.985	2.71912
1.9855	2.21558
1.986	6.04248
1.9865	3.92761
1.987	0.20142
1.9875	2.31628
1.988	2.5177
1.9885	2.41699
1.989	5.33752
1.9895	1.40991
1.99	0.30212
1.9905	1.00708
1.991	4.02832
1.9915	3.42407
1.992	-4.02832
1.9925	-2.61841
1.993	-5.13611
1.9935	-1.91345
1.994	-4.12903
1.9945	0.70496
1.995	2.21558
1.9955	5.0354
1.996	3.52478
1.9965	13.09204
1.997	17.72461
1.9975	19.53735
1.998	19.53735
1.9985	18.12744
1.999	14.90479
1.9995	14.09912
2	17.92603
2.0005	15.00549
2.001	13.19275
2.0015	8.96301
2.002	8.7616
2.0025	7.35168
2.003	6.74744
2.0035	6.04248
2.004	9.16443
2.0045	9.46655
2.005	7.85522
2.0055	5.74036
2.006	6.04248
2.0065	8.56018
2.007	8.35876
2.0075	9.06372
2.008	2.61841
2.0085	1.61133
2.009	6.44531
2.0095	10.17151
2.01	8.45947
2.0105	11.17859
2.011	6.2439
2.0115	10.27222
2.012	0.90637
2.0125	3.12195
2.013	8.96301
2.0135	4.33044
2.014	4.33044
2.0145	3.8269
2.015	3.22266
2.0155	5.53894
2.016	7.15027
2.0165	8.15735
2.017	9.46655
2.0175	4.43115
2.018	8.7616
2.0185	5.94177
2.019	0.60425
2.0195	7.35168
2.02	6.44531
2.0205	7.5531
2.021	8.25806
2.0215	10.0708
2.022	9.26514
2.0225	8.05664
2.023	6.3446
2.0235	10.77576
2.024	4.33044
2.0245	7.65381
2.025	6.64673
2.0255	1.81274
2.026	10.87646
2.0265	8.66089
2.027	5.0354
2.0275	5.63965
2.028	8.25806
2.0285	4.53186
2.029	2.61841
2.0295	7.5531
2.03	7.45239
2.0305	8.96301
2.031	4.22974
2.0315	5.43823
2.032	6.3446
2.0325	2.01416
2.033	3.32336
2.0335	4.63257
2.034	7.35168
2.0345	8.15735
2.035	6.64673
2.0355	4.53186
2.036	6.2439
2.0365	6.94885
2.037	3.92761
2.0375	7.25098
2.038	7.35168
2.0385	9.76868
2.039	7.25098
2.0395	9.06372
2.04	3.52478
2.0405	-5.74036
2.041	1.2085
2.0415	-4.43115
2.042	-6.2439
2.0425	-12.48779
2.043	-12.38708
2.0435	-15.20691
2.044	-15.71045
2.0445	-14.50195
2.045	-9.46655
2.0455	-9.97009
2.046	-4.02832
2.0465	-5.33752
2.047	3.52478
2.0475	8.05664
2.048	14.19983
2.0485	18.22815
2.049	22.6593
2.0495	26.28479
2.05	27.49329
2.0505	28.29895
2.051	31.92444
2.0515	31.92444
2.052	31.32019
2.0525	21.04797
2.053	22.6593
2.0535	16.61682
2.054	19.33594
2.0545	8.96301
2.055	6.3446
2.0555	4.02832
2.056	0.50354
2.0565	-1.2085
2.057	4.02832
2.0575	1.3092
2.058	2.92053
2.0585	0.40283
2.059	7.04956
2.0595	5.0354
2.06	3.52478
2.0605	2.21558
2.061	3.02124
2.0615	7.5531
2.062	1.10779
2.0625	-2.21558
2.063	2.5177
2.0635	5.63965
2.064	-0.50354
2.0645	2.81982
2.065	-4.02832
2.0655	0.50354
2.066	-2.5177
2.0665	-8.35876
2.067	-13.797
2.0675	-16.3147
2.068	-13.19275
2.0685	-14.09912
2.069	-10.57434
2.0695	-10.27222
2.07	-7.35168
2.0705	-10.0708
2.071	-7.45239
2.0715	-0.70496
2.072	0.60425
2.0725	-0.40283
2.073	0.90637
2.0735	1.71204
2.074	2.41699
2.0745	-1.71204
2.075	5.0354
2.0755	9.66797
2.076	11.2793
2.0765	19.83948
2.077	21.24939
2.0775	31.01807
2.078	32.32727
2.0785	33.43506
2.079	36.05347
2.0795	44.0094
2.08	42.39807
2.0805	38.57117
2.081	36.55701
2.0815	32.62939
2.082	38.47046
2.0825	31.82373
2.083	33.13293
2.0835	28.70178
2.084	27.6947
2.0845	20.64514
2.085	15.1062
2.0855	13.59558
2.086	10.87646
2.0865	10.37292
2.087	14.09912
2.0875	6.44531
2.088	7.5531
2.0885	2.81982
2.089	0.50354
2.0895	2.71912
2.09	5.94177
2.0905	8.15735
2.091	10.57434
2.0915	10.57434
2.092	4.33044
2.0925	4.83398
2.093	9.76868
2.0935	6.44531
2.094	5.74036
2.0945	2.21558
2.095	-3.22266
2.0955	-6.54602
2.096	-6.84814
2.0965	-8.05664
2.097	-2.71912
2.0975	-6.3446
2.098	-0.40283
2.0985	-6.44531
2.099	-11.2793
2.0995	-10.27222
2.1	-6.54602
2.1005	-5.53894
2.101	-5.33752
2.1015	-3.12195
2.102	-11.2793
2.1025	-5.63965
2.103	-8.96301
2.1035	-5.33752
2.104	-4.22974
2.1045	-6.84814
2.105	-4.33044
2.1055	-9.56726
2.106	-12.28638
2.1065	-16.01257
2.107	-16.3147
2.1075	-21.14868
2.108	-13.19275
2.1085	-13.89771
2.109	-7.5531
2.1095	-9.97009
2.11	-7.45239
2.1105	0
2.111	-1.51062
2.1115	13.19275
2.112	16.61682
2.1125	26.18408
2.113	27.89612
2.1135	26.08337
2.114	28.50037
2.1145	25.07629
2.115	25.57983
2.1155	27.39258
2.116	34.34143
2.1165	27.6947
2.117	28.50037
2.1175	16.21399
2.118	8.66089
2.1185	2.11487
2.119	-2.92053
2.1195	-5.43823
2.12	-4.83398
2.1205	-1.81274
2.121	-7.85522
2.1215	-4.63257
2.122	-8.66089
2.1225	-8.25806
2.123	-11.78284
2.1235	-15.00549
2.124	-16.41541
2.1245	-11.2793
2.125	-3.7262
2.1255	-2.01416
2.126	4.53186
2.1265	10.37292
2.127	14.70337
2.1275	20.74585
2.128	27.89612
2.1285	35.54993
2.129	41.4917
2.1295	43.50586
2.13	43.70728
2.1305	51.66321
2.131	40.78674
2.1315	39.47754
2.132	34.24072
2.1325	22.6593
2.133	20.1416
2.1335	9.36584
2.134	1.51062
2.1345	-5.0354
2.135	-15.00549
2.1355	-17.92603
2.136	-16.61682
2.1365	-19.13452
2.137	-10.77576
2.1375	-15.81116
2.138	-12.5885
2.1385	-9.66797
2.139	-4.83398
2.1395	-3.7262
2.14	2.92053
2.1405	0.70496
2.141	7.35168
2.1415	17.72461
2.142	14.70337
2.1425	17.12036
2.143	13.99841
2.1435	12.38708
2.144	8.25806
2.1445	6.44531
2.145	-0.20142
2.1455	1.61133
2.146	3.42407
2.1465	3.42407
2.147	6.54602
2.1475	12.89062
2.148	12.08496
2.1485	4.73328
2.149	4.33044
2.1495	12.38708
2.15	11.68213
2.1505	10.67505
2.151	12.28638
2.1515	14.30054
2.152	14.60266
2.1525	17.01965
2.153	17.6239
2.1535	18.02673
2.154	20.54443
2.1545	24.87488
2.155	19.63806
2.1555	14.90479
2.156	5.43823
2.1565	2.21558
2.157	-2.92053
2.1575	-7.65381
2.158	-13.89771
2.1585	-18.42957
2.159	-25.177
2.1595	-25.68054
2.16	-33.63647
2.1605	-34.03931
2.161	-36.25488
2.1615	-34.44214
2.162	-35.65063
2.1625	-26.98975
2.163	-24.27063
2.1635	-25.68054
2.164	-19.43665
2.1645	-11.17859
2.165	-0.70496
2.1655	2.92053
2.166	15.20691
2.1665	21.04797
2.167	22.86072
2.1675	27.09045
2.168	29.20532
2.1685	24.16992
2.169	32.62939
2.1695	31.82373
2.17	34.84497
2.1705	26.28479
2.171	25.07629
2.1715	20.34302
2.172	26.08337
2.1725	19.53735
2.173	7.95593
2.1735	1.00708
2.174	-4.02832
2.1745	-11.38
2.175	-25.177
2.1755	-25.88196
2.176	-30.01099
2.1765	-30.81665
2.177	-36.55701
2.1775	-34.03931
2.178	-28.29895
2.1785	-28.70178
2.179	-21.85364
2.1795	-16.71753
2.18	-9.26514
2.1805	-3.8269
2.181	5.43823
2.1815	13.99841
2.182	17.52319
2.1825	27.6947
2.183	43.30444
2.1835	48.84338
2.184	51.05896
2.1845	39.17542
2.185	31.4209
2.1855	24.67346
2.186	12.5885
2.1865	11.17859
2.187	2.21558
2.1875	3.52478
2.188	0.30212
2.1885	-1.10779
2.189	4.83398
2.1895	7.85522
2.19	14.19983
2.1905	22.6593
2.191	19.83948
2.1915	18.02673
2.192	13.59558
2.1925	3.12195
2.193	-9.26514
2.1935	-24.37134
2.194	-46.92993
2.1945	-56.90002
2.195	-72.9126
2.1955	-85.29968
2.196	-94.06128
2.1965	-100.10376
2.197	-103.02429
2.1975	-104.03137
2.198	-98.89526
2.1985	-89.63013
2.199	-71.90552
2.1995	-50.85754
2.2	-33.83789
2.2005	-9.36584
2.201	12.99133
2.2015	37.86621
2.202	53.37524
2.2025	74.82605
2.203	91.24146
2.2035	104.73633
2.204	120.04395
2.2045	122.25952
2.205	118.13049
2.2055	118.33191
2.206	116.922
2.2065	108.46252
2.207	105.23987
2.2075	95.77332
2.208	88.42163
2.2085	79.2572
2.209	77.04163
2.2095	72.30835
2.21	67.07153
2.2105	49.95117
2.211	36.75842
2.2115	25.57983
2.212	13.09204
2.2125	18.73169
2.213	9.56726
2.2135	11.07788
2.214	8.66089
2.2145	5.33752
2.215	2.81982
2.2155	-3.02124
2.216	-3.22266
2.2165	-8.15735
2.217	-6.94885
2.2175	-14.40125
2.218	-18.02673
2.2185	-22.05505
2.219	-23.26355
2.2195	-23.06213
2.22	-23.46497
2.2205	-27.29187
2.221	-34.34143
2.2215	-30.81665
2.222	-30.61523
2.2225	-24.16992
2.223	-18.53027
2.2235	-13.89771
2.224	-6.14319
2.2245	2.81982
2.225	3.92761
2.2255	10.0708
2.226	13.29346
2.2265	22.35718
2.227	17.42249
2.2275	18.32886
2.228	25.27771
2.2285	26.68762
2.229	35.34851
2.2295	30.61523
2.23	25.88196
2.2305	23.16284
2.231	22.45789
2.2315	24.97559
2.232	28.09753
2.2325	32.7301
2.233	37.7655
2.2335	28.50037
2.234	18.93311
2.2345	10.27222
2.235	2.41699
2.2355	0.90637
2.236	-7.25098
2.2365	-15.50903
2.237	-22.15576
2.2375	-16.11328
2.238	-25.177
2.2385	-30.01099
2.239	-37.66479
2.2395	-36.85913
2.24	-49.24622
2.2405	-49.54834
2.241	-53.57666
2.2415	-50.85754
2.242	-43.80798
2.2425	-36.85913
2.243	-25.07629
2.2435	-27.29187
2.244	-20.94727
2.2445	-24.27063
2.245	-16.51611
2.2455	-16.11328
2.246	-22.15576
2.2465	-23.66638
2.247	-32.42798
2.2475	-37.7655
2.248	-32.7301
2.2485	-33.03223
2.249	-25.98267
2.2495	-17.72461
2.25	-15.91187
2.2505	-12.68921
2.251	5.33752
2.2515	9.16443
2.252	19.23523
2.2525	33.43506
2.253	43.90869
2.2535	45.01648
2.254	50.85754
2.2545	53.47595
2.255	61.02905
2.2555	57.8064
2.256	52.26746
2.2565	48.74268
2.257	46.32568
2.2575	35.65063
2.258	30.2124
2.2585	27.89612
2.259	26.3855
2.2595	36.25488
2.26	39.27612
2.2605	44.91577
2.261	45.3186
2.2615	41.69312
2.262	42.90161
2.2625	33.63647
2.263	15.71045
2.2635	9.66797
2.264	-6.3446
2.2645	-19.13452
2.265	-29.10461
2.2655	-34.14001
2.266	-40.88745
2.2665	-47.13135
2.267	-49.95117
2.2675	-52.06604
2.268	-45.82214
2.2685	-34.84497
2.269	-33.33435
2.2695	-26.48621
2.27	-7.25098
2.2705	2.01416
2.271	6.64673
2.2715	12.99133
2.272	19.63806
2.2725	36.85913
2.273	30.11169
2.2735	35.54993
2.274	43.00232
2.2745	45.2179
2.275	46.42639
2.2755	43.10303
2.276	40.88745
2.2765	38.57117
2.277	33.43506
2.2775	29.60815
2.278	23.26355
2.2785	32.12585
2.279	29.30603
2.2795	25.88196
2.28	24.67346
2.2805	18.93311
2.281	19.94019
2.2815	33.23364
2.282	30.01099
2.2825	27.39258
2.283	35.54993
2.2835	39.77966
2.284	35.75134
2.2845	24.57275
2.285	14.50195
2.2855	2.01416
2.286	-18.93311
2.2865	-24.67346
2.287	-30.71594
2.2875	-32.22656
2.288	-46.12427
2.2885	-41.59241
2.289	-48.13843
2.2895	-50.55542
2.29	-51.05896
2.2905	-54.38232
2.291	-51.26038
2.2915	-45.01648
2.292	-34.94568
2.2925	-24.77417
2.293	-21.14868
2.2935	-16.71753
2.294	-2.92053
2.2945	6.3446
2.295	17.01965
2.2955	20.1416
2.296	26.88904
2.2965	25.177
2.297	18.22815
2.2975	3.92761
2.298	-8.8623
2.2985	-12.68921
2.299	-24.06921
2.2995	-26.68762
2.3	-36.75842
2.3005	-44.0094
2.301	-49.14551
2.3015	-45.11719
2.302	-48.23914
2.3025	-47.8363
2.303	-38.06763
2.3035	-36.55701
2.304	-22.96143
2.3045	-10.87646
2.305	1.00708
2.3055	23.26355
2.306	33.23364
2.3065	39.98108
2.307	49.54834
2.3075	56.90002
2.308	63.34534
2.3085	75.93384
2.309	83.99048
2.3095	86.91101
2.31	85.29968
2.3105	90.93933
2.311	87.41455
2.3115	82.07703
2.312	74.32251
2.3125	70.29419
2.313	64.55383
2.3135	54.38232
2.314	41.79382
2.3145	38.67188
2.315	22.76001
2.3155	14.19983
2.316	2.31628
2.3165	-5.53894
2.317	-9.97009
2.3175	-4.73328
2.318	1.2085
2.3185	11.78284
2.319	17.12036
2.3195	26.08337
2.32	30.41382
2.3205	34.54285
2.321	34.03931
2.3215	31.21948
2.322	21.04797
2.3225	16.11328
2.323	14.09912
2.3235	8.96301
2.324	6.94885
2.3245	1.2085
2.325	2.01416
2.3255	10.37292
2.326	15.50903
2.3265	9.97009
2.327	13.59558
2.3275	18.12744
2.328	18.32886
2.3285	24.06921
2.329	22.76001
2.3295	24.97559
2.33	23.76709
2.3305	26.3855
2.331	31.21948
2.3315	28.9032
2.332	25.88196
2.3325	25.98267
2.333	26.78833
2.3335	28.80249
2.334	27.59399
2.3345	26.48621
2.335	23.46497
2.3355	15.20691
2.336	20.54443
2.3365	22.05505
2.337	21.04797
2.3375	20.34302
2.338	14.30054
2.3385	14.09912
2.339	9.26514
2.3395	4.93469
2.34	-2.81982
2.3405	-5.43823
2.341	-9.26514
2.3415	-10.17151
2.342	-14.70337
2.3425	-14.50195
2.343	-13.59558
2.3435	-9.56726
2.344	-12.78992
2.3445	-19.03381
2.345	-30.61523
2.3455	-38.87329
2.346	-39.77966
2.3465	-40.08179
2.347	-42.8009
2.3475	-44.71436
2.348	-38.87329
2.3485	-29.20532
2.349	-28.60107
2.3495	-18.63098
2.35	-19.43665
2.3505	-6.14319
2.351	1.10779
2.3515	10.97717
2.352	19.63806
2.3525	27.6947
2.353	35.14709
2.3535	33.23364
2.354	31.72302
2.3545	37.06055
2.355	32.22656
2.3555	26.58691
2.356	17.92603
2.3565	21.75293
2.357	13.19275
2.3575	15.81116
2.358	13.89771
2.3585	10.67505
2.359	5.0354
2.3595	3.22266
2.36	1.81274
2.3605	-2.81982
2.361	-2.21558
2.3615	-13.797
2.362	-14.40125
2.3625	-19.33594
2.363	-21.75293
2.3635	-18.42957
2.364	-19.33594
2.3645	-20.44373
2.365	-20.04089
2.3655	-18.42957
2.366	-16.3147
2.3665	-3.62549
2.367	-1.61133
2.3675	1.3092
2.368	12.78992
2.3685	22.15576
2.369	26.88904
2.3695	25.57983
2.37	26.3855
2.3705	11.58142
2.371	9.66797
2.3715	8.05664
2.372	-1.81274
2.3725	-12.08496
2.373	-7.95593
2.3735	-17.22107
2.374	-16.61682
2.3745	-23.8678
2.375	-22.76001
2.3755	-27.79541
2.376	-21.3501
2.3765	-27.29187
2.377	-27.79541
2.3775	-23.56567
2.378	-22.86072
2.3785	-17.52319
2.379	-22.76001
2.3795	-25.88196
2.38	-23.16284
2.3805	-18.02673
2.381	-4.22974
2.3815	2.5177
2.382	10.0708
2.3825	17.12036
2.383	27.49329
2.3835	37.66479
2.384	53.47595
2.3845	63.94958
2.385	65.05737
2.3855	66.06445
2.386	66.16516
2.3865	55.08728
2.387	34.54285
2.3875	16.21399
2.388	1.2085
2.3885	-6.94885
2.389	-17.52319
2.3895	-18.02673
2.39	-27.49329
2.3905	-31.92444
2.391	-34.64355
2.3915	-44.0094
2.392	-40.1825
2.3925	-38.87329
2.393	-32.52869
2.3935	-37.86621
2.394	-36.4563
2.3945	-22.55859
2.395	-13.49487
2.3955	-4.63257
2.396	3.92761
2.3965	8.05664
2.397	11.58142
2.3975	6.94885
2.398	5.13611
2.3985	3.12195
2.399	8.45947
2.3995	17.32178
2.4	19.13452
2.4005	15.50903
2.401	17.72461
2.4015	13.09204
2.402	7.95593
2.4025	7.25098
2.403	16.01257
2.4035	18.73169
2.404	23.76709
2.4045	31.11877
2.405	41.08887
2.4055	47.43347
2.406	54.0802
2.4065	65.3595
2.407	69.79065
2.4075	69.28711
2.408	60.12268
2.4085	50.55542
2.409	40.08179
2.4095	21.3501
2.41	6.74744
2.4105	-5.53894
2.411	-13.29346
2.4115	-21.24939
2.412	-29.80957
2.4125	-34.84497
2.413	-36.75842
2.4135	-28.70178
2.414	-32.42798
2.4145	-32.83081
2.415	-30.81665
2.4155	-26.48621
2.416	-14.60266
2.4165	-12.89062
2.417	-8.8623
2.4175	-4.93469
2.418	-1.40991
2.4185	4.63257
2.419	2.01416
2.4195	6.2439
2.42	7.25098
2.4205	9.26514
2.421	16.41541
2.4215	28.29895
2.422	32.12585
2.4225	31.4209
2.423	26.48621
2.4235	31.11877
2.424	21.85364
2.4245	22.35718
2.425	14.90479
2.4255	9.06372
2.426	5.43823
2.4265	-3.22266
2.427	2.21558
2.4275	5.33752
2.428	15.00549
2.4285	14.30054
2.429	17.32178
2.4295	20.54443
2.43	26.98975
2.4305	27.6947
2.431	29.40674
2.4315	27.49329
2.432	25.98267
2.4325	24.47205
2.433	20.74585
2.4335	15.40833
2.434	9.56726
2.4345	7.35168
2.435	3.22266
2.4355	-4.43115
2.436	-2.41699
2.4365	4.83398
2.437	-8.25806
2.4375	-16.11328
2.438	-16.51611
2.4385	-17.01965
2.439	-14.50195
2.4395	-15.40833
2.44	-17.92603
2.4405	-14.40125
2.441	-14.30054
2.4415	-9.26514
2.442	-7.95593
2.4425	-1.61133
2.443	4.53186
2.4435	15.40833
2.444	15.20691
2.4445	12.38708
2.445	25.98267
2.4455	22.15576
2.446	16.21399
2.4465	18.42957
2.447	13.09204
2.4475	8.66089
2.448	0.70496
2.4485	-2.81982
2.449	-4.63257
2.4495	-10.17151
2.45	-6.54602
2.4505	-16.61682
2.451	-11.48071
2.4515	-12.18567
2.452	-11.17859
2.4525	-10.77576
2.453	-15.50903
2.4535	-12.89062
2.454	-11.2793
2.4545	-10.0708
2.455	-7.04956
2.4555	-1.00708
2.456	3.62549
2.4565	10.77576
2.457	8.25806
2.4575	14.70337
2.458	13.29346
2.4585	2.92053
2.459	5.53894
2.4595	2.61841
2.46	-6.54602
2.4605	-15.1062
2.461	-24.37134
2.4615	-35.44922
2.462	-44.61365
2.4625	-49.74976
2.463	-42.49878
2.4635	-34.54285
2.464	-29.60815
2.4645	-17.72461
2.465	-11.58142
2.4655	-4.12903
2.466	3.32336
2.4665	7.95593
2.467	6.94885
2.4675	-3.7262
2.468	-14.50195
2.4685	-20.24231
2.469	-24.37134
2.4695	-15.81116
2.47	-15.1062
2.4705	0.80566
2.471	5.43823
2.4715	18.53027
2.472	34.84497
2.4725	46.62781
2.473	61.83472
2.4735	65.15808
2.474	68.58215
2.4745	60.72693
2.475	51.96533
2.4755	43.00232
2.476	33.73718
2.4765	13.797
2.477	-2.92053
2.4775	-14.40125
2.478	-22.76001
2.4785	-29.50745
2.479	-28.29895
2.4795	-17.01965
2.48	-5.63965
2.4805	-10.57434
2.481	-10.77576
2.4815	-7.95593
2.482	7.45239
2.4825	9.36584
2.483	18.73169
2.4835	22.76001
2.484	32.83081
2.4845	33.53577
2.485	44.81506
2.4855	44.0094
2.486	51.15967
2.4865	51.86462
2.487	51.36108
2.4875	50.354
2.488	44.51294
2.4885	37.86621
2.489	29.00391
2.4895	20.44373
2.49	10.87646
2.4905	-7.95593
2.491	-21.14868
2.4915	-31.72302
2.492	-30.61523
2.4925	-29.80957
2.493	-27.6947
2.4935	-18.8324
2.494	-9.97009
2.4945	2.61841
2.495	15.60974
2.4955	23.16284
2.496	22.76001
2.4965	30.41382
2.497	30.51453
2.4975	29.60815
2.498	31.4209
2.4985	31.4209
2.499	31.21948
2.4995	30.31311
2.5	21.95435
2.5005	23.06213
2.501	19.73877
2.5015	17.42249
2.502	12.38708
2.5025	11.78284
2.503	18.42957
2.5035	10.27222
2.504	14.60266
2.5045	17.12036
2.505	8.66089
2.5055	14.19983
2.506	11.88354
2.5065	11.17859
2.507	7.85522
2.5075	6.94885
2.508	-0.60425
2.5085	-0.90637
2.509	-1.00708
2.5095	-7.75452
2.51	-16.81824
2.5105	-16.81824
2.511	-22.55859
2.5115	-26.48621
2.512	-29.91028
2.5125	-39.27612
2.513	-41.4917
2.5135	-46.82922
2.514	-49.64905
2.5145	-44.81506
2.515	-40.08179
2.5155	-30.81665
2.516	-26.98975
2.5165	-20.64514
2.517	-8.7616
2.5175	1.40991
2.518	5.63965
2.5185	13.59558
2.519	18.42957
2.5195	21.85364
2.52	22.25647
2.5205	21.24939
2.521	18.53027
2.5215	17.52319
2.522	20.64514
2.5225	15.40833
2.523	16.61682
2.5235	14.40125
2.524	14.80408
2.5245	19.13452
2.525	23.56567
2.5255	19.83948
2.526	19.53735
2.5265	28.70178
2.527	29.10461
2.5275	28.29895
2.528	24.87488
2.5285	15.00549
2.529	7.15027
2.5295	4.83398
2.53	3.32336
2.5305	5.0354
2.531	3.42407
2.5315	7.45239
2.532	2.21558
2.5325	6.3446
2.533	10.47363
2.5335	4.93469
2.534	1.40991
2.5345	-0.10071
2.535	1.3092
2.5355	1.91345
2.536	5.23682
2.5365	-6.04248
2.537	-14.50195
2.5375	-22.15576
2.538	-28.9032
2.5385	-27.6947
2.539	-19.53735
2.5395	-20.24231
2.54	-11.48071
2.5405	-11.68213
2.541	-1.91345
2.5415	-0.50354
2.542	1.00708
2.5425	-0.20142
2.543	3.8269
2.5435	6.74744
2.544	2.81982
2.5445	2.01416
2.545	3.32336
2.5455	4.53186
2.546	10.77576
2.5465	7.5531
2.547	7.75452
2.5475	5.0354
2.548	-0.40283
2.5485	0.90637
2.549	-1.40991
2.5495	-5.0354
2.55	-2.92053
2.5505	1.40991
2.551	-0.70496
2.5515	7.5531
2.552	8.66089
2.5525	1.81274
2.553	-8.56018
2.5535	-6.44531
2.554	-9.36584
2.5545	-4.73328
2.555	-7.95593
2.5555	-5.23682
2.556	4.73328
2.5565	7.04956
2.557	5.94177
2.5575	-5.84106
2.558	-8.35876
2.5585	-7.25098
2.559	-5.53894
2.5595	-0.70496
2.56	4.43115
2.5605	4.83398
2.561	8.25806
2.5615	11.2793
2.562	15.71045
2.5625	22.25647
2.563	28.80249
2.5635	25.88196
2.564	23.36426
2.5645	27.19116
2.565	26.08337
2.5655	26.78833
2.566	29.00391
2.5665	26.88904
2.567	23.96851
2.5675	33.83789
2.568	32.22656
2.5685	21.65222
2.569	19.53735
2.5695	7.35168
2.57	10.17151
2.5705	2.81982
2.571	2.5177
2.5715	-9.06372
2.572	-14.50195
2.5725	-16.11328
2.573	-20.54443
2.5735	-20.44373
2.574	-19.43665
2.5745	-15.81116
2.575	-28.70178
2.5755	-47.03064
2.576	-55.49011
2.5765	-49.24622
2.577	-40.1825
2.5775	-29.30603
2.578	-24.87488
2.5785	-24.37134
2.579	-10.67505
2.5795	-2.21558
2.58	8.45947
2.5805	19.94019
2.581	25.177
2.5815	31.52161
2.582	28.09753
2.5825	33.23364
2.583	39.47754
2.5835	37.7655
2.584	32.12585
2.5845	31.11877
2.585	33.83789
2.5855	33.13293
2.586	35.34851
2.5865	36.65771
2.587	29.70886
2.5875	29.70886
2.588	27.6947
2.5885	25.57983
2.589	21.75293
2.5895	14.70337
2.59	11.2793
2.5905	9.06372
2.591	8.35876
2.5915	11.07788
2.592	9.26514
2.5925	10.97717
2.593	15.50903
2.5935	10.57434
2.594	10.17151
2.5945	14.70337
2.595	14.40125
2.5955	16.81824
2.596	11.78284
2.5965	17.6239
2.597	11.78284
2.5975	7.15027
2.598	11.58142
2.5985	7.15027
2.599	9.86938
2.5995	6.74744
2.6	-0.70496
2.6005	-3.12195
2.601	-4.63257
2.6015	-4.53186
2.602	-7.5531
2.6025	-3.8269
2.603	-2.71912
2.6035	-3.22266
2.604	4.93469
2.6045	12.68921
2.605	11.78284
2.6055	15.1062
2.606	20.04089
2.6065	26.18408
2.607	29.30603
2.6075	21.3501
2.608	23.56567
2.6085	21.75293
2.609	18.53027
2.6095	16.41541
2.61	16.01257
2.6105	13.69629
2.611	18.12744
2.6115	18.22815
2.612	10.87646
2.6125	9.76868
2.613	7.45239
2.6135	9.26514
2.614	7.95593
2.6145	10.0708
2.615	4.43115
2.6155	2.21558
2.616	0.80566
2.6165	-0.80566
2.617	0.60425
2.6175	2.92053
2.618	-3.22266
2.6185	4.93469
2.619	1.61133
2.6195	5.74036
2.62	2.92053
2.6205	5.53894
2.621	10.47363
2.6215	10.87646
2.622	10.17151
2.6225	9.86938
2.623	7.75452
2.6235	-2.31628
2.624	-3.22266
2.6245	-4.83398
2.625	-8.45947
2.6255	-9.36584
2.626	-0.20142
2.6265	-3.8269
2.627	-1.81274
2.6275	-8.35876
2.628	-4.83398
2.6285	-5.74036
2.629	-4.22974
2.6295	-7.65381
2.63	-11.78284
2.6305	-8.66089
2.631	-13.49487
2.6315	-10.77576
2.632	-10.87646
2.6325	-6.2439
2.633	-2.21558
2.6335	-2.81982
2.634	5.13611
2.6345	10.67505
2.635	7.95593
2.6355	11.78284
2.636	14.40125
2.6365	5.13611
2.637	-7.75452
2.6375	-24.57275
2.638	-39.67896
2.6385	-49.64905
2.639	-44.91577
2.6395	-43.30444
2.64	-29.20532
2.6405	-25.47913
2.641	-13.19275
2.6415	-11.98425
2.642	-5.63965
2.6425	13.99841
2.643	31.01807
2.6435	40.2832
2.644	48.54126
2.6445	47.43347
2.645	44.71436
2.6455	41.99524
2.646	41.4917
2.6465	40.78674
2.647	34.84497
2.6475	32.62939
2.648	26.88904
2.6485	28.70178
2.649	25.177
2.6495	31.11877
2.65	32.32727
2.6505	38.16833
2.651	35.34851
2.6515	34.44214
2.652	25.27771
2.6525	17.32178
2.653	7.25098
2.6535	-7.65381
2.654	-37.96692
2.6545	-46.92993
2.655	-49.34692
2.6555	-46.12427
2.656	-43.90869
2.6565	-36.55701
2.657	-29.20532
2.6575	-19.43665
2.658	-8.66089
2.6585	3.42407
2.659	10.0708
2.6595	25.177
2.66	29.20532
2.6605	31.4209
2.661	30.2124
2.6615	41.79382
2.662	42.19666
2.6625	38.47046
2.663	38.36975
2.6635	33.9386
2.664	36.65771
2.6645	28.70178
2.665	24.87488
2.6655	20.24231
2.666	14.30054
2.6665	13.69629
2.667	11.58142
2.6675	2.61841
2.668	4.63257
2.6685	2.21558
2.669	1.00708
2.6695	-8.25806
2.67	-10.97717
2.6705	-11.38
2.671	-10.0708
2.6715	-9.16443
2.672	-13.19275
2.6725	-16.3147
2.673	-9.06372
2.6735	-13.29346
2.674	-7.35168
2.6745	-15.30762
2.675	-11.48071
2.6755	-12.28638
2.676	-11.17859
2.6765	-11.07788
2.677	-11.68213
2.6775	-11.88354
2.678	-2.61841
2.6785	-1.10779
2.679	6.2439
2.6795	8.05664
2.68	8.8623
2.6805	7.75452
2.681	7.04956
2.6815	6.64673
2.682	1.3092
2.6825	5.63965
2.683	-4.33044
2.6835	-1.51062
2.684	-1.2085
2.6845	-7.15027
2.685	-8.15735
2.6855	-10.17151
2.686	0.70496
2.6865	-9.56726
2.687	-16.51611
2.6875	-22.76001
2.688	-17.32178
2.6885	-16.11328
2.689	-11.78284
2.6895	-8.15735
2.69	-0.70496
2.6905	1.51062
2.691	7.45239
2.6915	16.3147
2.692	19.13452
2.6925	21.24939
2.693	19.63806
2.6935	19.03381
2.694	18.12744
2.6945	22.96143
2.695	19.33594
2.6955	22.05505
2.696	21.55151
2.6965	20.64514
2.697	21.65222
2.6975	18.32886
2.698	15.81116
2.6985	17.92603
2.699	14.19983
2.6995	19.03381
2.7	17.32178
2.7005	21.14868
2.701	17.22107
2.7015	17.52319
2.702	17.32178
2.7025	14.50195
2.703	8.96301
2.7035	9.46655
2.704	8.35876
2.7045	8.25806
2.705	7.75452
2.7055	9.06372
2.706	7.25098
2.7065	1.81274
2.707	-4.93469
2.7075	-11.68213
2.708	-17.32178
2.7085	-16.01257
2.709	-18.02673
2.7095	-16.21399
2.71	-12.89062
2.7105	-15.00549
2.711	-7.04956
2.7115	-8.7616
2.712	-6.44531
2.7125	-5.53894
2.713	-0.10071
2.7135	3.52478
2.714	8.8623
2.7145	16.11328
2.715	12.18567
2.7155	18.12744
2.716	14.30054
2.7165	17.92603
2.717	15.00549
2.7175	18.73169
2.718	19.63806
2.7185	14.80408
2.719	11.17859
2.7195	18.02673
2.72	14.40125
2.7205	12.08496
2.721	2.31628
2.7215	-3.8269
2.722	-4.02832
2.7225	-1.91345
2.723	1.10779
2.7235	2.71912
2.724	6.14319
2.7245	7.04956
2.725	5.13611
2.7255	-9.56726
2.726	-10.57434
2.7265	-5.84106
2.727	-0.50354
2.7275	2.92053
2.728	5.33752
2.7285	16.11328
2.729	17.32178
2.7295	23.36426
2.73	29.40674
2.7305	32.12585
2.731	36.05347
2.7315	33.13293
2.732	33.73718
2.7325	34.74426
2.733	37.06055
2.7335	25.57983
2.734	13.49487
2.7345	12.08496
2.735	5.74036
2.7355	-6.64673
2.736	-21.75293
2.7365	-29.20532
2.737	-32.83081
2.7375	-31.92444
2.738	-33.9386
2.7385	-35.04639
2.739	-32.52869
2.7395	-23.46497
2.74	-27.6947
2.7405	-21.24939
2.741	-16.41541
2.7415	-20.84656
2.742	-12.18567
2.7425	-4.63257
2.743	2.71912
2.7435	14.90479
2.744	22.15576
2.7445	34.94568
2.745	47.53418
2.7455	47.53418
2.746	62.8418
2.7465	68.68286
2.747	65.05737
2.7475	60.3241
2.748	55.3894
2.7485	44.41223
2.749	34.94568
2.7495	30.51453
2.75	22.86072
2.7505	9.06372
2.751	10.17151
2.7515	11.88354
2.752	1.81274
2.7525	3.32336
2.753	-1.40991
2.7535	8.8623
2.754	2.01416
2.7545	6.74744
2.755	5.94177
2.7555	-5.53894
2.756	-18.42957
2.7565	-23.16284
2.757	-27.39258
2.7575	-24.47205
2.758	-22.45789
2.7585	-7.85522
2.759	-5.63965
2.7595	3.02124
2.76	1.71204
2.7605	7.75452
2.761	19.53735
2.7615	19.13452
2.762	16.61682
2.7625	16.11328
2.763	18.32886
2.7635	16.71753
2.764	12.5885
2.7645	12.08496
2.765	5.23682
2.7655	-1.61133
2.766	0.90637
2.7665	1.71204
2.767	-1.81274
2.7675	-8.7616
2.768	-8.96301
2.7685	-10.47363
2.769	-5.53894
2.7695	-4.22974
2.77	1.71204
2.7705	9.66797
2.771	9.66797
2.7715	20.1416
2.772	17.01965
2.7725	19.23523
2.773	25.27771
2.7735	24.27063
2.774	26.28479
2.7745	24.87488
2.775	22.45789
2.7755	18.32886
2.776	16.91895
2.7765	7.95593
2.777	9.46655
2.7775	4.93469
2.778	2.71912
2.7785	-2.81982
2.779	-5.33752
2.7795	-6.94885
2.78	-3.92761
2.7805	-7.25098
2.781	-3.22266
2.7815	1.91345
2.782	-5.13611
2.7825	-1.2085
2.783	-1.10779
2.7835	3.7262
2.784	8.15735
2.7845	13.797
2.785	18.42957
2.7855	16.21399
2.786	6.74744
2.7865	12.5885
2.787	13.29346
2.7875	11.07788
2.788	1.3092
2.7885	-14.09912
2.789	-29.50745
2.7895	-33.33435
2.79	-31.32019
2.7905	-21.45081
2.791	-20.1416
2.7915	-15.50903
2.792	-8.15735
2.7925	-4.43115
2.793	1.71204
2.7935	6.84814
2.794	9.76868
2.7945	13.797
2.795	20.04089
2.7955	17.42249
2.796	15.50903
2.7965	11.88354
2.797	8.7616
2.7975	5.23682
2.798	2.61841
2.7985	10.47363
2.799	13.49487
2.7995	19.03381
2.8	25.88196
2.8005	26.08337
2.801	30.31311
2.8015	32.02515
2.802	33.73718
2.8025	30.41382
2.803	28.39966
2.8035	24.27063
2.804	7.25098
2.8045	3.12195
2.805	4.43115
2.8055	9.16443
2.806	5.33752
2.8065	9.36584
2.807	-1.2085
2.8075	5.84106
2.808	0.50354
2.8085	-1.3092
2.809	3.8269
2.8095	2.81982
2.81	4.53186
2.8105	-0.80566
2.811	0.10071
2.8115	2.31628
2.812	-0.90637
2.8125	2.5177
2.813	1.40991
2.8135	5.33752
2.814	0.60425
2.8145	3.92761
2.815	2.71912
2.8155	3.32336
2.816	7.35168
2.8165	4.83398
2.817	3.12195
2.8175	5.53894
2.818	3.02124
2.8185	3.62549
2.819	1.2085
2.8195	-1.10779
2.82	-3.02124
2.8205	-9.66797
2.821	-31.52161
2.8215	-34.14001
2.822	-29.30603
2.8225	-33.73718
2.823	-30.91736
2.8235	-25.57983
2.824	-22.05505
2.8245	-16.71753
2.825	-10.37292
2.8255	1.61133
2.826	2.21558
2.8265	16.01257
2.827	23.46497
2.8275	35.85205
2.828	39.57825
2.8285	39.37683
2.829	35.2478
2.8295	34.64355
2.83	37.7655
2.8305	35.65063
2.831	31.72302
2.8315	28.80249
2.832	21.85364
2.8325	22.35718
2.833	21.45081
2.8335	14.90479
2.834	17.32178
2.8345	19.53735
2.835	24.57275
2.8355	30.81665
2.836	21.65222
2.8365	18.93311
2.837	12.48779
2.8375	4.12903
2.838	2.81982
2.8385	2.11487
2.839	0
2.8395	2.71912
2.84	6.3446
2.8405	7.04956
2.841	9.66797
2.8415	4.63257
2.842	6.94885
2.8425	3.02124
2.843	6.94885
2.8435	1.40991
2.844	-2.21558
2.8445	-4.22974
2.845	-6.54602
2.8455	-7.15027
2.846	-5.53894
2.8465	-2.31628
2.847	-2.5177
2.8475	-1.2085
2.848	0
2.8485	4.83398
2.849	5.53894
2.8495	2.92053
2.85	1.61133
2.8505	-0.70496
2.851	-4.02832
2.8515	-7.15027
2.852	-12.99133
2.8525	-11.88354
2.853	-17.92603
2.8535	-21.95435
2.854	-9.56726
2.8545	-14.30054
2.855	-11.98425
2.8555	-3.8269
2.856	-0.50354
2.8565	8.35876
2.857	8.8623
2.8575	8.66089
2.858	9.06372
2.8585	5.43823
2.859	1.71204
2.8595	5.63965
2.86	-2.11487
2.8605	0.10071
2.861	3.02124
2.8615	-0.60425
2.862	2.01416
2.8625	7.35168
2.863	12.48779
2.8635	10.47363
2.864	16.01257
2.8645	19.53735
2.865	26.3855
2.8655	23.36426
2.866	26.18408
2.8665	26.3855
2.867	25.47913
2.8675	19.63806
2.868	13.797
2.8685	13.59558
2.869	8.15735
2.8695	6.64673
2.87	4.43115
2.8705	-3.32336
2.871	-10.0708
2.8715	-9.76868
2.872	-10.67505
2.8725	-7.95593
2.873	-6.54602
2.8735	-2.21558
2.874	-10.37292
2.8745	-10.0708
2.875	-7.95593
2.8755	-11.98425
2.876	-16.3147
2.8765	-13.99841
2.877	-14.90479
2.8775	-7.75452
2.878	-6.54602
2.8785	-0.30212
2.879	-1.3092
2.8795	-1.91345
2.88	-2.61841
2.8805	0.60425
2.881	-2.21558
2.8815	-4.93469
2.882	-2.31628
2.8825	-2.31628
2.883	-3.32336
2.8835	1.71204
2.884	-0.30212
2.8845	8.35876
2.885	8.66089
2.8855	9.36584
2.886	15.91187
2.8865	29.00391
2.887	22.55859
2.8875	36.35559
2.888	34.94568
2.8885	35.14709
2.889	32.7301
2.8895	25.177
2.89	18.53027
2.8905	13.29346
2.891	9.76868
2.8915	6.04248
2.892	8.25806
2.8925	7.45239
2.893	0.20142
2.8935	1.71204
2.894	-1.10779
2.8945	-1.10779
2.895	-2.5177
2.8955	-4.63257
2.896	0.40283
2.8965	4.63257
2.897	5.23682
2.8975	5.63965
2.898	5.74036
2.8985	8.8623
2.899	5.53894
2.8995	6.3446
2.9	2.61841
2.9005	7.25098
2.901	5.94177
2.9015	-0.50354
2.902	0.30212
2.9025	-0.40283
2.903	-20.44373
2.9035	-25.07629
2.904	-26.78833
2.9045	-27.79541
2.905	-20.34302
2.9055	-20.24231
2.906	-13.29346
2.9065	-6.44531
2.907	0.80566
2.9075	10.67505
2.908	16.51611
2.9085	15.81116
2.909	22.55859
2.9095	17.6239
2.91	20.04089
2.9105	19.63806
2.911	22.05505
2.9115	24.37134
2.912	21.04797
2.9125	24.16992
2.913	30.31311
2.9135	15.81116
2.914	1.71204
2.9145	-0.30212
2.915	-16.81824
2.9155	-21.75293
2.916	-24.77417
2.9165	-16.3147
2.917	-11.48071
2.9175	-5.94177
2.918	2.01416
2.9185	6.94885
2.919	11.98425
2.9195	18.02673
2.92	21.14868
2.9205	22.45789
2.921	28.09753
2.9215	33.9386
2.922	32.02515
2.9225	25.98267
2.923	22.35718
2.9235	19.03381
2.924	22.15576
2.9245	13.69629
2.925	19.03381
2.9255	11.58142
2.926	9.26514
2.9265	8.25806
2.927	5.13611
2.9275	0.40283
2.928	0.10071
2.9285	-0.20142
2.929	0.30212
2.9295	-1.61133
2.93	-8.05664
2.9305	-7.45239
2.931	-5.33752
2.9315	-8.66089
2.932	-2.81982
2.9325	2.71912
2.933	3.22266
2.9335	4.02832
2.934	7.04956
2.9345	5.43823
2.935	6.14319
2.9355	11.58142
2.936	7.65381
2.9365	13.09204
2.937	15.60974
2.9375	13.59558
2.938	22.6593
2.9385	25.57983
2.939	27.49329
2.9395	34.74426
2.94	36.35559
2.9405	35.54993
2.941	37.16125
2.9415	34.14001
2.942	29.00391
2.9425	26.18408
2.943	18.42957
2.9435	19.73877
2.944	18.73169
2.9445	16.21399
2.945	15.40833
2.9455	16.21399
2.946	4.73328
2.9465	7.04956
2.947	-3.8269
2.9475	0.80566
2.948	-9.36584
2.9485	-12.08496
2.949	-14.90479
2.9495	-14.19983
2.95	-12.5885
2.9505	-12.28638
2.951	-19.63806
2.9515	-16.61682
2.952	-21.75293
2.9525	-19.43665
2.953	-22.15576
2.9535	-18.22815
2.954	-21.75293
2.9545	-18.8324
2.955	-18.02673
2.9555	-14.50195
2.956	-15.00549
2.9565	-11.38
2.957	-2.71912
2.9575	3.42407
2.958	9.26514
2.9585	13.59558
2.959	13.29346
2.9595	13.89771
2.96	15.60974
2.9605	18.73169
2.961	10.17151
2.9615	8.8623
2.962	9.16443
2.9625	5.33752
2.963	1.51062
2.9635	3.62549
2.964	0.10071
2.9645	2.41699
2.965	3.52478
2.9655	1.40991
2.966	0
2.9665	7.15027
2.967	9.86938
2.9675	15.81116
2.968	27.19116
2.9685	25.37842
2.969	27.49329
2.9695	25.98267
2.97	22.45789
2.9705	19.33594
2.971	16.21399
2.9715	14.30054
2.972	0.50354
2.9725	2.92053
2.973	6.64673
2.9735	3.42407
2.974	6.44531
2.9745	2.21558
2.975	-1.00708
2.9755	-7.75452
2.976	-10.67505
2.9765	-11.48071
2.977	-10.97717
2.9775	-15.00549
2.978	-17.6239
2.9785	-21.45081
2.979	-20.74585
2.9795	-19.63806
2.98	-19.33594
2.9805	-19.23523
2.981	-13.29346
2.9815	-11.68213
2.982	-11.98425
2.9825	-9.56726
2.983	-4.43115
2.9835	0.80566
2.984	0.80566
2.9845	4.12903
2.985	4.83398
2.9855	13.49487
2.986	14.90479
2.9865	19.23523
2.987	19.53735
2.9875	18.12744
2.988	18.63098
2.9885	14.19983
2.989	11.38
2.9895	9.36584
2.99	10.77576
2.9905	11.38
2.991	15.00549
2.9915	13.69629
2.992	12.68921
2.9925	8.8623
2.993	4.63257
2.9935	1.10779
2.994	8.15735
2.9945	3.92761
2.995	1.61133
2.9955	4.63257
2.996	9.36584
2.9965	11.2793
2.997	13.49487
2.9975	11.68213
2.998	4.02832
2.9985	1.61133
2.999	2.41699
2.9995	0.30212
3	-0.90637
3.0005	2.11487
3.001	1.51062
3.0015	0.10071
3.002	0.80566
3.0025	5.63965
3.003	3.92761
3.0035	2.81982
3.004	3.8269
3.0045	4.53186
3.005	2.92053
3.0055	5.23682
3.006	2.92053
3.0065	4.63257
3.007	12.68921
3.0075	12.5885
3.008	7.65381
3.0085	12.68921
3.009	8.66089
3.0095	12.38708
3.01	6.94885
3.0105	-4.43115
3.011	-3.8269
3.0115	-11.98425
3.012	-15.1062
3.0125	-24.06921
3.013	-22.96143
3.0135	-19.73877
3.014	-15.91187
3.0145	-10.37292
3.015	-5.84106
3.0155	4.12903
3.016	13.89771
3.0165	21.14868
3.017	32.02515
3.0175	32.7301
3.018	37.66479
3.0185	32.32727
3.019	32.12585
3.0195	41.99524
3.02	40.2832
3.0205	32.93152
3.021	35.54993
3.0215	32.12585
3.022	23.16284
3.0225	21.65222
3.023	16.61682
3.0235	12.18567
3.024	12.68921
3.0245	7.35168
3.025	2.11487
3.0255	7.95593
3.026	8.05664
3.0265	6.74744
3.027	6.94885
3.0275	-1.61133
3.028	-9.66797
3.0285	-9.06372
3.029	-9.86938
3.0295	-4.02832
3.03	-10.17151
3.0305	-13.59558
3.031	-6.2439
3.0315	-3.12195
3.032	-10.57434
3.0325	-6.2439
3.033	-3.32336
3.0335	3.12195
3.034	7.5531
3.0345	6.04248
3.035	12.38708
3.0355	10.77576
3.036	12.28638
3.0365	9.86938
3.037	5.13611
3.0375	11.2793
3.038	11.38
3.0385	16.51611
3.039	13.49487
3.0395	10.37292
3.04	3.8269
3.0405	1.2085
3.041	-3.12195
3.0415	3.42407
3.042	0.50354
3.0425	3.92761
3.043	3.42407
3.0435	-1.2085
3.044	1.2085
3.0445	-1.51062
3.045	-5.0354
3.0455	-1.81274
3.046	-3.02124
3.0465	-4.83398
3.047	-1.91345
3.0475	-3.7262
3.048	-2.92053
3.0485	-1.2085
3.049	-0.60425
3.0495	-0.70496
3.05	-4.22974
3.0505	-3.8269
3.051	-8.25806
3.0515	-12.78992
3.052	-17.6239
3.0525	-18.93311
3.053	-13.39417
3.0535	-18.02673
3.054	-11.78284
3.0545	-10.37292
3.055	-2.11487
3.0555	12.89062
3.056	21.65222
3.0565	26.18408
3.057	22.25647
3.0575	13.49487
3.058	9.36584
3.0585	6.94885
3.059	0.40283
3.0595	0.50354
3.06	-0.90637
3.0605	0.40283
3.061	5.43823
3.0615	8.45947
3.062	13.39417
3.0625	16.01257
3.063	18.93311
3.0635	17.42249
3.064	27.6947
3.0645	27.6947
3.065	31.82373
3.0655	27.29187
3.066	27.99683
3.0665	27.29187
3.067	25.68054
3.0675	20.74585
3.068	17.6239
3.0685	18.8324
3.069	17.42249
3.0695	10.37292
3.07	8.05664
3.0705	6.14319
3.071	13.49487
3.0715	15.60974
3.072	16.81824
3.0725	16.81824
3.073	16.41541
3.0735	12.18567
3.074	11.88354
3.0745	12.5885
3.075	13.89771
3.0755	18.12744
3.076	19.83948
3.0765	25.88196
3.077	26.28479
3.0775	37.36267
3.078	31.01807
3.0785	33.43506
3.079	25.88196
3.0795	23.46497
3.08	15.1062
3.0805	15.40833
3.081	10.37292
3.0815	6.3446
3.082	-2.81982
3.0825	-0.80566
3.083	-4.83398
3.0835	-8.7616
3.084	-20.24231
3.0845	-19.73877
3.085	-23.66638
3.0855	-29.40674
3.086	-25.27771
3.0865	-37.7655
3.087	-38.974
3.0875	-34.14001
3.088	-38.36975
3.0885	-38.16833
3.089	-32.42798
3.0895	-38.36975
3.09	-31.4209
3.0905	-26.58691
3.091	-15.71045
3.0915	-12.08496
3.092	-7.65381
3.0925	2.61841
3.093	12.38708
3.0935	17.42249
3.094	23.96851
3.0945	33.53577
3.095	36.15417
3.0955	35.85205
3.096	35.14709
3.0965	21.04797
3.097	19.43665
3.0975	10.57434
3.098	0.60425
3.0985	-3.62549
3.099	0.30212
3.0995	-5.94177
3.1	-3.02124
3.1005	-3.32336
3.101	7.45239
3.1015	8.96301
3.102	10.27222
3.1025	15.00549
3.103	25.88196
3.1035	38.26904
3.104	50.85754
3.1045	48.54126
3.105	39.67896
3.1055	37.66479
3.106	27.6947
3.1065	18.93311
3.107	15.91187
3.1075	15.91187
3.108	14.09912
3.1085	10.67505
3.109	14.30054
3.1095	13.69629
3.11	12.5885
3.1105	14.80408
3.111	19.83948
3.1115	17.6239
3.112	17.6239
3.1125	15.1062
3.113	14.70337
3.1135	8.05664
3.114	5.53894
3.1145	12.99133
3.115	16.51611
3.1155	11.88354
3.116	18.53027
3.1165	10.17151
3.117	6.04248
3.1175	0.30212
3.118	-17.92603
3.1185	-27.19116
3.119	-29.70886
3.1195	-26.18408
3.12	-18.73169
3.1205	-25.47913
3.121	-20.44373
3.1215	-15.91187
3.122	-16.3147
3.1225	-20.44373
3.123	-11.48071
3.1235	-12.38708
3.124	-14.09912
3.1245	-18.12744
3.125	-24.16992
3.1255	-31.32019
3.126	-36.35559
3.1265	-32.42798
3.127	-28.19824
3.1275	-22.86072
3.128	-6.3446
3.1285	2.31628
3.129	11.88354
3.1295	20.84656
3.13	27.79541
3.1305	40.48462
3.131	42.09595
3.1315	47.23206
3.132	47.03064
3.1325	47.93701
3.133	44.91577
3.1335	36.65771
3.134	30.31311
3.1345	21.3501
3.135	23.76709
3.1355	13.99841
3.136	15.91187
3.1365	20.84656
3.137	23.8678
3.1375	22.6593
3.138	24.87488
3.1385	20.34302
3.139	20.94727
3.1395	17.01965
3.14	13.19275
3.1405	17.92603
3.141	21.95435
3.1415	17.82532
3.142	17.52319
3.1425	15.60974
3.143	16.91895
3.1435	12.18567
3.144	8.05664
3.1445	6.54602
3.145	9.46655
3.1455	6.94885
3.146	10.97717
3.1465	10.17151
3.147	5.74036
3.1475	4.93469
3.148	-0.40283
3.1485	-3.12195
3.149	-8.7616
3.1495	-9.36584
3.15	-8.8623
3.1505	-4.93469
3.151	0.80566
3.1515	5.0354
3.152	9.86938
3.1525	10.57434
3.153	10.37292
3.1535	11.48071
3.154	14.40125
3.1545	11.98425
3.155	11.17859
3.1555	7.25098
3.156	-6.2439
3.1565	-13.39417
3.157	-22.55859
3.1575	-25.78125
3.158	-25.68054
3.1585	-26.58691
3.159	-26.78833
3.1595	-31.82373
3.16	-37.36267
3.1605	-35.34851
3.161	-34.03931
3.1615	-26.28479
3.162	-26.18408
3.1625	-17.22107
3.163	-6.94885
3.1635	-0.50354
3.164	14.50195
3.1645	23.76709
3.165	34.14001
3.1655	30.61523
3.166	36.4563
3.1665	36.75842
3.167	41.89453
3.1675	39.27612
3.168	34.44214
3.1685	37.66479
3.169	34.74426
3.1695	32.02515
3.17	23.66638
3.1705	22.86072
3.171	22.25647
3.1715	21.55151
3.172	19.03381
3.1725	17.12036
3.173	13.69629
3.1735	13.09204
3.174	11.68213
3.1745	12.18567
3.175	12.89062
3.1755	7.45239
3.176	8.35876
3.1765	5.84106
3.177	0.10071
3.1775	2.61841
3.178	-0.10071
3.1785	-0.20142
3.179	1.2085
3.1795	-0.40283
3.18	-4.53186
3.1805	-1.3092
3.181	-0.80566
3.1815	3.52478
3.182	2.11487
3.1825	-3.22266
3.183	-3.8269
3.1835	-7.04956
3.184	-5.23682
3.1845	0.10071
3.185	6.3446
3.1855	5.63965
3.186	5.94177
3.1865	3.52478
3.187	-0.80566
3.1875	-0.20142
3.188	-2.5177
3.1885	-5.0354
3.189	-4.93469
3.1895	-8.25806
3.19	-3.62549
3.1905	-8.45947
3.191	-3.42407
3.1915	-5.74036
3.192	-6.14319
3.1925	-2.41699
3.193	-25.47913
3.1935	-58.00781
3.194	-82.68127
3.1945	-85.60181
3.195	-95.47119
3.1955	-74.82605
3.196	-55.18799
3.1965	-44.51294
3.197	-28.19824
3.1975	-4.63257
3.198	10.77576
3.1985	29.20532
3.199	45.52002
3.1995	51.66321
3.2	52.46887
3.2005	44.31152
3.201	31.32019
3.2015	21.04797
3.202	17.12036
3.2025	13.09204
3.203	18.32886
3.2035	25.98267
3.204	34.14001
3.2045	38.36975
3.205	33.13293
3.2055	27.49329
3.206	26.3855
3.2065	24.27063
3.207	21.85364
3.2075	24.97559
3.208	24.16992
3.2085	22.45789
3.209	31.11877
3.2095	39.27612
3.21	40.2832
3.2105	50.65613
3.211	59.21631
3.2115	62.43896
3.212	62.8418
3.2125	61.12976
3.213	53.77808
3.2135	48.54126
3.214	39.98108
3.2145	33.03223
3.215	31.11877
3.2155	27.29187
3.216	36.55701
3.2165	36.65771
3.217	31.52161
3.2175	30.41382
3.218	39.98108
3.2185	29.80957
3.219	30.51453
3.2195	20.84656
3.22	23.06213
3.2205	15.20691
3.221	11.17859
3.2215	7.75452
3.222	-6.74744
3.2225	-15.40833
3.223	-16.41541
3.2235	-18.73169
3.224	-25.27771
3.2245	-25.27771
3.225	-27.99683
3.2255	-35.44922
3.226	-47.93701
3.2265	-52.97241
3.227	-63.54675
3.2275	-63.94958
3.228	-75.32959
3.2285	-85.09827
3.229	-95.5719
3.2295	-97.18323
3.23	-99.49951
3.2305	-99.2981
3.231	-92.04712
3.2315	-85.19897
3.232	-82.27844
3.2325	-81.27136
3.233	-68.17932
3.2335	-48.74268
3.234	-25.177
3.2345	-7.45239
3.235	14.90479
3.2355	45.3186
3.236	67.47437
3.2365	84.39331
3.237	97.88818
3.2375	93.75916
3.238	90.5365
3.2385	89.22729
3.239	87.11243
3.2395	79.15649
3.24	69.48853
3.2405	62.13684
3.241	61.73401
3.2415	46.82922
3.242	40.88745
3.2425	33.73718
3.243	24.77417
3.2435	19.73877
3.244	16.81824
3.2445	10.57434
3.245	0.80566
3.2455	4.53186
3.246	0.50354
3.2465	-0.60425
3.247	-0.10071
3.2475	-4.02832
3.248	-2.5177
3.2485	-1.71204
3.249	-1.10779
3.2495	-7.5531
3.25	-0.50354
3.2505	0
3.251	6.04248
3.2515	16.51611
3.252	27.99683
3.2525	26.78833
3.253	25.88196
3.2535	28.50037
3.254	31.11877
3.2545	29.70886
3.255	26.58691
3.2555	20.04089
3.256	19.53735
3.2565	11.98425
3.257	-3.02124
3.2575	-21.14868
3.258	-60.92834
3.2585	-97.08252
3.259	-123.16589
3.2595	-122.15881
3.26	-120.14465
3.2605	-108.86536
3.261	-99.80164
3.2615	-78.45154
3.262	-45.11719
3.2625	-20.94727
3.263	4.12903
3.2635	27.39258
3.264	38.06763
3.2645	48.94409
3.265	48.84338
3.2655	56.09436
3.266	56.19507
3.2665	67.27295
3.267	70.79773
3.2675	65.15808
3.268	63.44604
3.2685	62.23755
3.269	60.02197
3.2695	46.62781
3.27	33.53577
3.2705	24.77417
3.271	16.21399
3.2715	10.47363
3.272	18.02673
3.2725	22.6593
3.273	21.04797
3.2735	22.6593
3.274	27.89612
3.2745	41.4917
3.275	56.19507
3.2755	66.97083
3.276	46.42639
3.2765	19.53735
3.277	-18.42957
3.2775	-46.02356
3.278	-58.00781
3.2785	-52.8717
3.279	-44.11011
3.2795	-33.03223
3.28	-15.71045
3.2805	-10.37292
3.281	3.12195
3.2815	3.22266
3.282	1.2085
3.2825	0
3.283	-6.84814
3.2835	-19.53735
3.284	-21.85364
3.2845	-17.92603
3.285	-25.47913
3.2855	-18.63098
3.286	-17.6239
3.2865	-5.0354
3.287	-2.81982
3.2875	5.63965
3.288	3.52478
3.2885	7.65381
3.289	15.20691
3.2895	26.08337
3.29	33.03223
3.2905	31.01807
3.291	33.23364
3.2915	38.67188
3.292	32.32727
3.2925	28.9032
3.293	19.73877
3.2935	9.46655
3.294	0.90637
3.2945	5.53894
3.295	9.66797
3.2955	12.48779
3.296	27.39258
3.2965	29.10461
3.297	32.42798
3.2975	27.19116
3.298	26.58691
3.2985	16.11328
3.299	12.89062
3.2995	8.7616
3.3	5.53894
3.3005	4.22974
3.301	-2.41699
3.3015	4.73328
3.302	0.10071
3.3025	-5.94177
3.303	-0.30212
3.3035	-2.21558
3.304	-4.02832
3.3045	-6.64673
3.305	-13.19275
3.3055	-15.1062
3.306	-24.97559
3.3065	-24.77417
3.307	-23.06213
3.3075	-30.51453
3.308	-29.80957
3.3085	-37.46338
3.309	-39.07471
3.3095	-49.44763
3.31	-46.82922
3.3105	-44.21082
3.311	-43.40515
3.3115	-46.5271
3.312	-47.43347
3.3125	-55.2887
3.313	-55.08728
3.3135	-52.16675
3.314	-45.2179
3.3145	-39.57825
3.315	-25.68054
3.3155	-12.48779
3.316	-5.0354
3.3165	-7.25098
3.317	1.61133
3.3175	15.50903
3.318	35.44922
3.3185	42.29736
3.319	54.58374
3.3195	69.08569
3.32	68.17932
3.3205	77.948
3.321	82.27844
3.3215	86.40747
3.322	86.70959
3.3225	78.04871
3.323	76.43738
3.3235	64.75525
3.324	56.49719
3.3245	49.54834
3.325	36.15417
3.3255	24.87488
3.326	26.98975
3.3265	21.55151
3.327	15.50903
3.3275	13.49487
3.328	11.17859
3.3285	13.797
3.329	14.70337
3.3295	31.62231
3.33	33.43506
3.3305	44.0094
3.331	34.54285
3.3315	33.03223
3.332	27.89612
3.3325	19.53735
3.333	16.3147
3.3335	19.03381
3.334	20.1416
3.3345	17.82532
3.335	15.20691
3.3355	19.73877
3.336	23.56567
3.3365	23.46497
3.337	19.73877
3.3375	20.54443
3.338	22.6593
3.3385	15.91187
3.339	13.69629
3.3395	11.07788
3.34	2.21558
3.3405	1.40991
3.341	-4.53186
3.3415	-4.33044
3.342	-6.94885
3.3425	-7.25098
3.343	-9.06372
3.3435	-11.78284
3.344	-19.53735
3.3445	-18.73169
3.345	-13.89771
3.3455	-14.60266
3.346	-18.73169
3.3465	-18.02673
3.347	-16.91895
3.3475	-11.98425
3.348	-14.80408
3.3485	-12.18567
3.349	-12.99133
3.3495	-6.74744
3.35	-11.07788
3.3505	-9.86938
3.351	-15.81116
3.3515	-10.27222
3.352	-7.45239
3.3525	-5.84106
3.353	-1.91345
3.3535	-6.94885
3.354	-6.14319
3.3545	-11.58142
3.355	-11.48071
3.3555	-12.78992
3.356	-5.63965
3.3565	-4.12903
3.357	-3.32336
3.3575	-3.52478
3.358	-11.58142
3.3585	-5.13611
3.359	-6.14319
3.3595	-11.07788
3.36	-11.78284
3.3605	-11.88354
3.361	-8.66089
3.3615	-12.48779
3.362	-10.17151
3.3625	-7.65381
3.363	-3.02124
3.3635	-7.65381
3.364	0.90637
3.3645	-3.32336
3.365	-22.45789
3.3655	-69.79065
3.366	-106.64978
3.3665	-120.24536
3.367	-115.61279
3.3675	-110.6781
3.368	-89.02588
3.3685	-69.89136
3.369	-43.30444
3.3695	-21.65222
3.37	-7.25098
3.3705	-4.33044
3.371	-8.05664
3.3715	-27.6947
3.372	-61.12976
3.3725	-82.47986
3.373	-99.19739
3.3735	-94.2627
3.374	-76.03455
3.3745	-47.8363
3.375	-15.1062
3.3755	15.71045
3.376	41.89453
3.3765	62.03613
3.377	80.56641
3.3775	86.30676
3.378	89.42871
3.3785	99.19739
3.379	109.97314
3.3795	125.28076
3.38	131.42395
3.3805	136.45935
3.381	130.31616
3.3815	112.39014
3.382	106.04553
3.3825	92.34924
3.383	76.84021
3.3835	62.8418
3.384	43.40515
3.3845	40.48462
3.385	34.14001
3.3855	30.81665
3.386	24.47205
3.3865	31.11877
3.387	29.70886
3.3875	32.32727
3.388	37.36267
3.3885	41.69312
3.389	34.14001
3.3895	31.21948
3.39	21.65222
3.3905	21.45081
3.391	14.09912
3.3915	7.85522
3.392	2.61841
3.3925	2.31628
3.393	3.22266
3.3935	-2.92053
3.394	-7.25098
3.3945	-6.64673
3.395	-0.20142
3.3955	0.30212
3.396	-7.85522
3.3965	-6.74744
3.397	-3.02124
3.3975	-2.31628
3.398	-5.13611
3.3985	-6.44531
3.399	-5.33752
3.3995	-8.35876
3.4	-14.19983
3.4005	-11.07788
3.401	-11.58142
3.4015	-6.84814
3.402	-6.44531
3.4025	-7.04956
3.403	-1.91345
3.4035	0
3.404	-6.44531
3.4045	-2.21558
3.405	-0.10071
3.4055	-3.52478
3.406	-1.81274
3.4065	5.94177
3.407	7.85522
3.4075	6.84814
3.408	13.69629
3.4085	11.88354
3.409	16.71753
3.4095	18.53027
3.41	18.73169
3.4105	19.73877
3.411	17.42249
3.4115	15.40833
3.412	10.27222
3.4125	7.5531
3.413	4.63257
3.4135	-44.31152
3.414	-137.96997
3.4145	-240.79285
3.415	-333.14209
3.4155	-361.84387
3.416	-357.61414
3.4165	-336.16333
3.417	-296.98792
3.4175	-238.9801
3.418	-165.86609
3.4185	-101.11084
3.419	-52.26746
3.4195	-10.0708
3.42	23.26355
3.4205	54.28162
3.421	73.41614
3.4215	82.68127
3.422	93.55774
3.4225	102.92358
3.423	121.25244
3.4235	133.53882
3.424	151.16272
3.4245	167.07458
3.425	183.48999
3.4255	193.6615
3.426	188.12256
3.4265	171.90857
3.427	154.98962
3.4275	134.04236
3.428	103.62854
3.4285	82.9834
3.429	75.22888
3.4295	56.39648
3.43	35.85205
3.4305	21.95435
3.431	11.78284
3.4315	9.26514
3.432	-25.98267
3.4325	-197.58911
3.433	-350.66528
3.4335	-412.29858
3.434	-417.93823
3.4345	-386.01379
3.435	-327.20032
3.4355	-249.25232
3.436	-173.5199
3.4365	-94.06128
3.437	-25.27771
3.4375	22.35718
3.438	57.00073
3.4385	92.95349
3.439	123.97156
3.4395	151.06201
3.44	170.70007
3.4405	175.83618
3.441	199.80469
3.4415	205.94788
3.442	211.68823
3.4425	206.95496
3.443	205.84717
3.4435	191.34521
3.444	191.74805
3.4445	189.12964
3.445	181.37512
3.4455	169.99512
3.446	159.32007
3.4465	144.41528
3.447	126.28784
3.4475	107.85828
3.448	92.95349
3.4485	85.5011
3.449	83.38623
3.4495	81.37207
3.45	80.96924
3.4505	84.79614
3.451	92.04712
3.4515	90.5365
3.452	84.2926
3.4525	82.07703
3.453	72.71118
3.4535	64.95667
3.454	55.79224
3.4545	44.51294
3.455	35.14709
3.4555	27.89612
3.456	14.60266
3.4565	7.75452
3.457	-2.21558
3.4575	-3.42407
3.458	-9.76868
3.4585	-14.60266
3.459	-20.34302
3.4595	-23.8678
3.46	-31.72302
3.4605	-44.81506
3.461	-53.97949
3.4615	-64.25171
3.462	-62.64038
3.4625	-61.53259
3.463	-61.83472
3.4635	-53.27454
3.464	-37.16125
3.4645	-24.97559
3.465	-12.08496
3.4655	0.80566
3.466	15.71045
3.4665	27.6947
3.467	35.75134
3.4675	47.63489
3.468	49.34692
3.4685	43.70728
3.469	38.67188
3.4695	31.52161
3.47	21.14868
3.4705	13.49487
3.471	13.99841
3.4715	11.68213
3.472	-0.30212
3.4725	-4.93469
3.473	-7.35168
3.4735	4.33044
3.474	-9.86938
3.4745	-8.25806
3.475	-13.99841
3.4755	-25.57983
3.476	-18.02673
3.4765	-27.59399
3.477	-31.11877
3.4775	-38.47046
3.478	-43.60657
3.4785	-52.67029
3.479	-48.64197
3.4795	-54.18091
3.48	-55.99365
3.4805	-54.0802
3.481	-47.43347
3.4815	-28.50037
3.482	-12.99133
3.4825	3.8269
3.483	19.33594
3.4835	30.11169
3.484	35.04639
3.4845	36.95984
3.485	37.66479
3.4855	31.82373
3.486	30.71594
3.4865	29.50745
3.487	22.6593
3.4875	11.38
3.488	5.13611
3.4885	-2.81982
3.489	-7.75452
3.4895	-9.16443
3.49	-6.74744
3.4905	-5.43823
3.491	-10.57434
3.4915	-19.33594
3.492	-43.10303
3.4925	-55.49011
3.493	-70.59631
3.4935	-59.82056
3.494	-59.31702
3.4945	-57.10144
3.495	-71.50269
3.4955	-86.10535
3.496	-106.54907
3.4965	-156.70166
3.497	-202.12097
3.4975	-278.45764
3.498	-323.97766
3.4985	-319.4458
3.499	-285.30579
3.4995	-223.37036
3.5	-145.32166
3.5005	-61.43188
3.501	13.59558
3.5015	74.12109
3.502	108.86536
3.5025	127.99988
3.503	156.80237
3.5035	171.60645
3.504	186.20911
3.5045	192.75513
3.505	190.74097
3.5055	186.61194
3.506	181.27441
3.5065	179.15955
3.507	163.75122
3.5075	142.60254
3.508	136.66077
3.5085	126.9928
3.509	121.85669
3.5095	109.67102
3.51	84.99756
3.5105	73.31543
3.511	67.37366
3.5115	65.66162
3.512	59.1156
3.5125	51.46179
3.513	40.58533
3.5135	35.95276
3.514	46.42639
3.5145	43.20374
3.515	40.38391
3.5155	35.95276
3.516	23.76709
3.5165	22.96143
3.517	24.16992
3.5175	18.12744
3.518	13.29346
3.5185	7.75452
3.519	4.73328
3.5195	2.11487
3.52	-1.3092
3.5205	0.50354
3.521	0.20142
3.5215	-22.55859
3.522	-90.33508
3.5225	-138.67493
3.523	-151.36414
3.5235	-135.95581
3.524	-103.22571
3.5245	-54.98657
3.525	-5.53894
3.5255	36.75842
3.526	67.8772
3.5265	88.72375
3.527	94.3634
3.5275	96.67969
3.528	93.96057
3.5285	85.70251
3.529	69.79065
3.5295	42.8009
3.53	26.18408
3.5305	17.32178
3.531	3.7262
3.5315	-14.90479
3.532	-25.98267
3.5325	-34.74426
3.533	-26.68762
3.5335	-19.43665
3.534	-21.65222
3.5345	-12.78992
3.535	-8.8623
3.5355	-13.19275
3.536	-13.39417
3.5365	-16.71753
3.537	-23.36426
3.5375	-17.12036
3.538	-12.28638
3.5385	-2.01416
3.539	22.96143
3.5395	32.32727
3.54	45.92285
3.5405	51.66321
3.541	50.55542
3.5415	46.92993
3.542	39.67896
3.5425	40.2832
3.543	28.9032
3.5435	21.14868
3.544	14.70337
3.5445	-6.84814
3.545	-15.00549
3.5455	-23.36426
3.546	-27.29187
3.5465	-34.64355
3.547	-40.58533
3.5475	-39.07471
3.548	-32.42798
3.5485	-14.60266
3.549	-1.81274
3.5495	-9.16443
3.55	-38.87329
3.5505	-68.98499
3.551	-97.88818
3.5515	-112.49084
3.552	-102.31934
3.5525	-92.85278
3.553	-82.88269
3.5535	-70.09277
3.554	-57.70569
3.5545	-35.65063
3.555	-19.53735
3.5555	1.40991
3.556	33.9386
3.5565	52.46887
3.557	76.33667
3.5575	92.75208
3.558	98.99597
3.5585	95.06836
3.559	55.79224
3.5595	4.83398
3.56	-35.85205
3.5605	-62.9425
3.561	-68.98499
3.5615	-62.9425
3.562	-57.30286
3.5625	-52.8717
3.563	-45.2179
3.5635	-32.83081
3.564	-20.74585
3.5645	-17.22107
3.565	-24.27063
3.5655	-22.05505
3.566	-39.07471
3.5665	-46.12427
3.567	-29.50745
3.5675	5.84106
3.568	38.57117
3.5685	59.21631
3.569	82.9834
3.5695	101.01013
3.57	105.74341
3.5705	101.9165
3.571	89.12659
3.5715	75.73242
3.572	59.82056
3.5725	39.17542
3.573	33.23364
3.5735	40.08179
3.574	46.02356
3.5745	56.69861
3.575	59.01489
3.5755	54.48303
3.576	55.59082
3.5765	54.68445
3.577	44.81506
3.5775	32.12585
3.578	18.12744
3.5785	7.85522
3.579	3.02124
3.5795	7.15027
3.58	20.24231
3.5805	25.78125
3.581	24.16992
3.5815	24.47205
3.582	25.47913
3.5825	28.60107
3.583	27.49329
3.5835	41.4917
3.584	37.16125
3.5845	37.16125
3.585	33.33435
3.5855	28.9032
3.586	19.03381
3.5865	20.64514
3.587	16.3147
3.5875	-10.47363
3.588	-52.46887
3.5885	-116.61987
3.589	-177.85034
3.5895	-206.95496
3.59	-206.25
3.5905	-160.02502
3.591	-102.21863
3.5915	-44.31152
3.592	10.57434
3.5925	51.86462
3.593	84.99756
3.5935	119.94324
3.594	153.78113
3.5945	152.06909
3.595	110.47668
3.5955	88.42163
3.596	98.99597
3.5965	100.50659
3.597	100.10376
3.5975	101.11084
3.598	102.31934
3.5985	99.90234
3.599	85.70251
3.5995	65.25879
3.6	49.85046
3.6005	21.14868
3.601	-13.59558
3.6015	-46.12427
3.602	-67.07153
3.6025	-79.15649
3.603	-67.57507
3.6035	-59.41772
3.604	-45.41931
3.6045	-24.87488
3.605	-18.32886
3.6055	-2.92053
3.606	4.53186
3.6065	7.04956
3.607	9.16443
3.6075	16.61682
3.608	20.1416
3.6085	24.27063
3.609	20.44373
3.6095	21.04797
3.61	17.42249
3.6105	21.3501
3.611	15.91187
3.6115	12.38708
3.612	9.46655
3.6125	14.70337
3.613	13.49487
3.6135	15.1062
3.614	19.13452
3.6145	24.27063
3.615	21.04797
3.6155	14.19983
3.616	12.48779
3.6165	17.82532
3.617	20.44373
3.6175	19.33594
3.618	20.04089
3.6185	14.50195
3.619	8.25806
3.6195	-13.49487
3.62	-23.06213
3.6205	-6.3446
3.621	5.63965
3.6215	18.42957
3.622	24.97559
3.6225	18.53027
3.623	0.70496
3.6235	-10.97717
3.624	-13.29346
3.6245	-19.13452
3.625	-29.80957
3.6255	-25.88196
3.626	-15.81116
3.6265	-0.50354
3.627	12.89062
3.6275	24.27063
3.628	28.80249
3.6285	27.09045
3.629	18.22815
3.6295	12.18567
3.63	14.70337
3.6305	34.14001
3.631	51.05896
3.6315	60.52551
3.632	67.67578
3.6325	67.27295
3.633	58.00781
3.6335	55.59082
3.634	45.72144
3.6345	39.37683
3.635	28.19824
3.6355	24.37134
3.636	13.19275
3.6365	9.97009
3.637	1.3092
3.6375	7.04956
3.638	1.10779
3.6385	3.02124
3.639	5.84106
3.6395	6.44531
3.64	5.53894
3.6405	-21.45081
3.641	-51.66321
3.6415	-50.354
3.642	-51.46179
3.6425	-36.4563
3.643	-25.27771
3.6435	-9.86938
3.644	4.02832
3.6445	12.08496
3.645	18.73169
3.6455	18.53027
3.646	23.8678
3.6465	29.00391
3.647	33.13293
3.6475	32.12585
3.648	27.99683
3.6485	9.26514
3.649	-15.1062
3.6495	-29.30603
3.65	-29.70886
3.6505	-15.40833
3.651	-15.50903
3.6515	-6.3446
3.652	-6.94885
3.6525	-45.3186
3.653	-118.83545
3.6535	-190.94238
3.654	-289.53552
3.6545	-330.52368
3.655	-318.84155
3.6555	-295.37659
3.656	-240.99426
3.6565	-188.6261
3.657	-223.47107
3.6575	-254.89197
3.658	-249.55444
3.6585	-198.79761
3.659	-136.56006
3.6595	-63.74817
3.66	0.10071
3.6605	43.80798
3.661	63.54675
3.6615	74.32251
3.662	91.8457
3.6625	126.18713
3.663	139.78271
3.6635	143.71033
3.664	153.88184
3.6645	160.72998
3.665	174.92981
3.6655	184.59778
3.666	196.88416
3.6665	198.79761
3.667	197.89124
3.6675	202.92664
3.668	208.56628
3.6685	213.29956
3.669	230.72205
3.6695	231.72913
3.67	217.5293
3.6705	198.29407
3.671	171.10291
3.6715	146.42944
3.672	125.68359
3.6725	110.87952
3.673	92.24854
3.6735	107.35474
3.674	153.78113
3.6745	183.48999
3.675	187.11548
3.6755	183.08716
3.676	166.67175
3.6765	115.91492
3.677	65.56091
3.6775	45.2179
3.678	93.45703
3.6785	123.46802
3.679	134.14307
3.6795	192.65442
3.68	262.54578
3.6805	273.72437
3.681	247.13745
3.6815	199.40186
3.682	125.58289
3.6825	46.32568
3.683	-40.08179
3.6835	-129.40979
3.684	-230.41992
3.6845	-400.31433
3.685	-513.91296
3.6855	-566.88538
3.686	-565.27405
3.6865	-533.75244
3.687	-502.33154
3.6875	-428.71399
3.688	-408.87451
3.6885	-456.5094
3.689	-442.91382
3.6895	-417.93823
3.69	-378.35999
3.6905	-319.24438
3.691	-227.90222
3.6915	-143.81104
3.692	-59.82056
3.6925	15.00549
3.693	85.29968
3.6935	146.22803
3.694	181.17371
3.6945	201.2146
3.695	208.26416
3.6955	209.06982
3.696	195.27283
3.6965	168.18237
3.697	154.48608
3.6975	141.49475
3.698	119.94324
3.6985	132.93457
3.699	146.73157
3.6995	165.66467
3.7	163.75122
3.7005	144.01245
3.701	128.10059
3.7015	94.2627
3.702	72.71118
3.7025	65.56091
3.703	66.26587
3.7035	58.30994
3.704	12.5885
3.7045	-48.33984
3.705	-179.36096
3.7055	-263.65356
3.706	-261.84082
3.7065	-230.82275
3.707	-185.20203
3.7075	-107.45544
3.708	43.60657
3.7085	250.05798
3.709	401.01929
3.7095	515.625
3.71	548.05298
3.7105	522.97668
3.711	455.09949
3.7115	364.46228
3.712	255.99976
3.7125	181.57654
3.713	29.60815
3.7135	-148.3429
3.714	-270.50171
3.7145	-358.62122
3.715	-385.40955
3.7155	-366.17432
3.716	-385.30884
3.7165	-370.70618
3.717	-312.79907
3.7175	-250.56152
3.718	-192.35229
3.7185	-98.49243
3.719	10.77576
3.7195	22.6593
3.72	-36.85913
3.7205	-35.14709
3.721	22.45789
3.7215	121.45386
3.722	210.98328
3.7225	246.02966
3.723	246.23108
3.7235	231.12488
3.724	230.01709
3.7245	274.53003
3.725	299.20349
3.7255	267.37976
3.726	204.63867
3.7265	130.61829
3.727	61.6333
3.7275	14.60266
3.728	-6.64673
3.7285	-22.25647
3.729	-37.46338
3.7295	-52.67029
3.73	-109.26819
3.7305	-171.10291
3.731	-189.12964
3.7315	-196.58203
3.732	-149.24927
3.7325	-85.5011
3.733	-37.36267
3.7335	6.04248
3.734	33.13293
3.7345	51.5625
3.735	31.82373
3.7355	-2.11487
3.736	-15.20691
3.7365	12.48779
3.737	17.12036
3.7375	-28.60107
3.738	-91.745
3.7385	-119.23828
3.739	-124.57581
3.7395	-93.0542
3.74	-36.4563
3.7405	-7.35168
3.741	9.97009
3.7415	-29.80957
3.742	-103.32642
3.7425	-169.18945
3.743	-182.98645
3.7435	-171.20361
3.744	-134.14307
3.7445	-113.49792
3.745	-132.53174
3.7455	-140.58838
3.746	-200.20752
3.7465	-264.55994
3.747	-290.34119
3.7475	-275.13428
3.748	-217.93213
3.7485	-149.14856
3.749	-76.84021
3.7495	-16.41541
3.75	45.11719
3.7505	90.93933
3.751	122.15881
3.7515	162.84485
3.752	196.78345
3.7525	223.47107
3.753	220.65125
3.7535	206.35071
3.754	209.57336
3.7545	222.5647
3.755	212.4939
3.7555	173.31848
3.756	155.29175
3.7565	155.09033
3.757	153.78113
3.7575	152.47192
3.758	138.97705
3.7585	118.2312
3.759	118.2312
3.7595	141.59546
3.76	160.12573
3.7605	186.30981
3.761	182.98645
3.7615	153.27759
3.762	116.21704
3.7625	141.69617
3.763	212.5946
3.7635	360.53467
3.764	439.48975
3.7645	460.43701
3.765	501.828
3.7655	374.02954
3.766	202.32239
3.7665	-35.65063
3.767	-220.34912
3.7675	-337.77466
3.768	-317.73376
3.7685	-230.31921
3.769	-166.57104
3.7695	-190.64026
3.77	-312.69836
3.7705	-518.84766
3.771	-674.74365
3.7715	-759.43909
3.772	-772.93396
3.7725	-779.88281
3.773	-719.05518
3.7735	-533.04749
3.774	-293.96667
3.7745	-234.64966
3.775	-216.42151
3.7755	-153.479
3.776	-70.69702
3.7765	-2.61841
3.777	-15.60974
3.7775	-103.82996
3.778	-122.15881
3.7785	-137.76855
3.779	-117.72766
3.7795	-89.02588
3.78	-34.34143
3.7805	44.81506
3.781	148.84644
3.7815	234.75037
3.782	291.95251
3.7825	308.77075
3.783	323.77625
3.7835	316.42456
3.784	310.6842
3.7845	339.48669
3.785	375.33875
3.7855	383.09326
3.786	356.30493
3.7865	315.01465
3.787	275.73853
3.7875	234.95178
3.788	196.38062
3.7885	133.63953
3.789	82.68127
3.7895	52.46887
3.79	33.63647
3.7905	19.43665
3.791	7.5531
3.7915	6.64673
3.792	-2.21558
3.7925	-5.13611
3.793	5.94177
3.7935	9.56726
3.794	24.37134
3.7945	37.56409
3.795	41.69312
3.7955	57.30286
3.796	62.03613
3.7965	68.38074
3.797	75.83313
3.7975	91.24146
3.798	149.75281
3.7985	164.15405
3.799	150.65918
3.7995	103.93066
3.8	53.87878
3.8005	9.86938
3.801	-49.64905
3.8015	-92.44995
3.802	-137.26501
3.8025	-179.56238
3.803	-247.03674
3.8035	-286.7157
3.804	-275.63782
3.8045	-243.51196
3.805	-189.12964
3.8055	-118.33191
3.806	-73.81897
3.8065	-20.54443
3.807	54.0802
3.8075	123.97156
3.808	159.21936
3.8085	155.59387
3.809	134.74731
3.8095	131.02112
3.81	136.15723
3.8105	205.34363
3.811	389.53857
3.8115	474.73755
3.812	479.1687
3.8125	443.61877
3.813	368.38989
3.8135	258.81958
3.814	142.80396
3.8145	21.45081
3.815	-73.11401
3.8155	-95.87402
3.816	-93.35632
3.8165	-97.48535
3.817	-93.0542
3.8175	-154.48608
3.818	-220.95337
3.8185	-283.49304
3.819	-300.00916
3.8195	-295.47729
3.82	-257.91321
3.8205	-228.30505
3.821	-178.15247
3.8215	-115.91492
3.822	58.41064
3.8225	165.06042
3.823	139.88342
3.8235	36.15417
3.824	-72.10693
3.8245	-192.05017
3.825	-283.29163
3.8255	-303.53394
3.826	-245.82825
3.8265	-216.22009
3.827	-138.17139
3.8275	23.16284
3.828	203.02734
3.8285	275.73853
3.829	292.45605
3.8295	267.68188
3.83	325.6897
3.8305	409.78088
3.831	382.2876
3.8315	215.91797
3.832	-65.05737
3.8325	-282.78809
3.833	-420.85876
3.8335	-576.75476
3.834	-669.80896
3.8345	-679.57764
3.835	-618.54858
3.8355	-542.0105
3.836	-519.95544
3.8365	-416.93115
3.837	-287.31995
3.8375	-113.49792
3.838	64.65454
3.8385	207.15637
3.839	365.9729
3.8395	532.14111
3.84	621.36841
3.8405	619.05212
3.841	536.27014
3.8415	455.90515
3.842	402.12708
3.8425	345.02563
3.843	259.72595
3.8435	163.14697
3.844	79.45862
3.8445	-5.33752
3.845	-115.10925
3.8455	-210.98328
3.846	-327.50244
3.8465	-416.52832
3.847	-378.35999
3.8475	-285.10437
3.848	-187.11548
3.8485	-160.02502
3.849	-79.45862
3.8495	-1.00708
3.85	63.44604
3.8505	315.82031
3.851	612.10327
3.8515	681.6925
3.852	574.13635
3.8525	441.20178
3.853	279.26331
3.8535	118.83545
3.854	-24.47205
3.8545	-111.8866
3.855	-169.39087
3.8555	-233.23975
3.856	-326.79749
3.8565	-402.52991
3.857	-332.23572
3.8575	-248.34595
3.858	-180.26733
3.8585	-303.0304
3.859	-452.27966
3.8595	-525.79651
3.86	-510.08606
3.8605	-511.29456
3.861	-476.24817
3.8615	-416.3269
3.862	-350.66528
3.8625	-278.96118
3.863	-221.45691
3.8635	-146.22803
3.864	-60.82764
3.8645	31.32019
3.865	117.42554
3.8655	192.25159
3.866	264.25781
3.8665	278.75977
3.867	160.12573
3.8675	105.23987
3.868	119.13757
3.8685	186.71265
3.869	293.96667
3.8695	371.71326
3.87	405.24902
3.8705	430.02319
3.871	438.58337
3.8715	419.24744
3.872	404.54407
3.8725	376.95007
3.873	346.13342
3.8735	314.61182
3.874	323.37341
3.8745	454.29382
3.875	493.67065
3.8755	456.10657
3.876	385.10742
3.8765	300.31128
3.877	223.37036
3.8775	143.71033
3.878	95.16907
3.8785	82.68127
3.879	83.58765
3.8795	66.56799
3.88	36.85913
3.8805	3.62549
3.881	-27.79541
3.8815	-48.64197
3.882	-70.69702
3.8825	-113.49792
3.883	-121.75598
3.8835	-79.15649
3.884	-53.07312
3.8845	-46.82922
3.885	-43.90869
3.8855	-162.13989
3.886	-315.41748
3.8865	-469.70215
3.887	-573.02856
3.8875	-574.43848
3.888	-490.04517
3.8885	-385.61096
3.889	-366.77856
3.8895	-347.24121
3.89	-158.31299
3.8905	68.78357
3.891	208.86841
3.8915	221.05408
3.892	90.73792
3.8925	-43.70728
3.893	-104.73633
3.8935	-84.49402
3.894	-86.00464
3.8945	-76.13525
3.895	72.50977
3.8955	180.77087
3.896	167.57812
3.8965	91.04004
3.897	4.93469
3.8975	-43.50586
3.898	12.89062
3.8985	70.19348
3.899	96.37756
3.8995	99.49951
3.9	94.76624
3.9005	105.74341
3.901	125.48218
3.9015	129.00696
3.902	97.78748
3.9025	65.3595
3.903	18.63098
3.9035	53.37524
3.904	129.20837
3.9045	146.83228
3.905	167.67883
3.9055	142.40112
3.906	112.59155
3.9065	92.44995
3.907	54.98657
3.9075	-18.8324
3.908	-127.39563
3.9085	-280.67322
3.909	-345.73059
3.9095	-354.99573
3.91	-347.1405
3.9105	-402.93274
3.911	-400.81787
3.9115	-330.52368
3.912	-224.37744
3.9125	-16.51611
3.913	287.92419
3.9135	454.49524
3.914	491.95862
3.9145	504.3457
3.915	493.36853
3.9155	451.77612
3.916	400.21362
3.9165	314.00757
3.917	201.71814
3.9175	77.948
3.918	3.52478
3.9185	-48.33984
3.919	-59.61914
3.9195	-74.82605
3.92	-55.99365
3.9205	-17.42249
3.921	28.9032
3.9215	88.42163
3.922	137.36572
3.9225	160.02502
3.923	124.17297
3.9235	39.27612
3.924	-157.50732
3.9245	-276.44348
3.925	-304.23889
3.9255	-286.21216
3.926	-282.88879
3.9265	-302.12402
3.927	-323.27271
3.9275	-349.35608
3.928	-349.75891
3.9285	-334.65271
3.929	-251.36719
3.9295	-66.36658
3.93	118.83545
3.9305	233.13904
3.931	319.14368
3.9315	347.44263
3.932	389.8407
3.9325	393.76831
3.933	356.20422
3.9335	298.69995
3.934	230.52063
3.9345	136.86218
3.935	81.87561
3.9355	55.89294
3.936	32.32727
3.9365	-18.73169
3.937	-86.00464
3.9375	-192.05017
3.938	-301.92261
3.9385	-430.62744
3.939	-491.25366
3.9395	-428.21045
3.94	-425.39062
3.9405	-562.05139
3.941	-656.21338
3.9415	-764.87732
3.942	-808.78601
3.9425	-770.01343
3.943	-648.86169
3.9435	-523.37952
3.944	-401.12
3.9445	-298.29712
3.945	-154.08325
3.9455	6.44531
3.946	277.14844
3.9465	508.37402
3.947	633.05054
3.9475	711.90491
3.948	733.45642
3.9485	715.42969
3.949	697.00012
3.9495	683.50525
3.95	639.89868
3.9505	547.14661
3.951	468.29224
3.9515	415.21912
3.952	378.46069
3.9525	257.51038
3.953	-44.71436
3.9535	-208.66699
3.954	-265.3656
3.9545	-208.16345
3.955	-131.52466
3.9555	-71.7041
3.956	27.39258
3.9565	46.02356
3.957	70.09277
3.9575	113.39722
3.958	167.47742
3.9585	196.68274
3.959	162.13989
3.9595	85.5011
3.96	49.24622
3.9605	57.8064
3.961	65.76233
3.9615	49.34692
3.962	7.25098
3.9625	-70.99915
3.963	-136.66077
3.9635	-144.81812
3.964	-104.3335
3.9645	-68.98499
3.965	-11.78284
3.9655	27.19116
3.966	31.72302
3.9665	198.49548
3.967	310.98633
3.9675	271.81091
3.968	274.63074
3.9685	194.16504
3.969	145.62378
3.9695	81.57349
3.97	5.74036
3.9705	-84.2926
3.971	-146.53015
3.9715	-167.77954
3.972	-171.60645
3.9725	-143.20679
3.973	-124.07227
3.9735	-66.36658
3.974	-48.23914
3.9745	-47.8363
3.975	-25.177
3.9755	28.70178
3.976	33.33435
3.9765	-69.48853
3.977	-262.44507
3.9775	-495.4834
3.978	-690.15198
