Marco_Margarita_Left_3.c3d  



Time(s):	B_L_bicipite(μV):
0	125.58289
0.0005	132.83386
0.001	105.44128
0.0015	80.66711
0.002	58.71277
0.0025	16.61682
0.003	-21.65222
0.0035	-63.84888
0.004	-95.67261
0.0045	-121.35315
0.005	-98.69385
0.0055	-87.51526
0.006	-79.66003
0.0065	-68.48145
0.007	-53.67737
0.0075	-48.74268
0.008	-49.14551
0.0085	-41.89453
0.009	-43.90869
0.0095	-52.67029
0.01	-57.30286
0.0105	-61.12976
0.011	-55.18799
0.0115	-49.0448
0.012	-36.95984
0.0125	-26.28479
0.013	-29.60815
0.0135	-32.12585
0.014	-28.70178
0.0145	-28.80249
0.015	-12.89062
0.0155	5.23682
0.016	16.01257
0.0165	23.16284
0.017	33.03223
0.0175	29.10461
0.018	27.29187
0.0185	32.7301
0.019	52.26746
0.0195	75.73242
0.02	94.06128
0.0205	96.17615
0.021	90.63721
0.0215	82.88269
0.022	67.17224
0.0225	50.95825
0.023	30.11169
0.0235	10.57434
0.024	-4.63257
0.0245	-21.3501
0.025	-27.6947
0.0255	-38.67188
0.026	-33.13293
0.0265	-19.23523
0.027	-1.91345
0.0275	5.43823
0.028	25.68054
0.0285	58.10852
0.029	72.00623
0.0295	74.52393
0.03	94.76624
0.0305	114.505
0.031	115.51208
0.0315	82.27844
0.032	46.22498
0.0325	5.13611
0.033	-32.42798
0.0335	-63.24463
0.034	-84.19189
0.0345	-98.79456
0.035	-102.01721
0.0355	-106.04553
0.036	-100.00305
0.0365	-90.13367
0.037	-71.90552
0.0375	-48.03772
0.038	-7.85522
0.0385	32.42798
0.039	38.47046
0.0395	54.68445
0.04	53.07312
0.0405	40.48462
0.041	12.78992
0.0415	-7.25098
0.042	-20.24231
0.0425	-18.53027
0.043	-15.30762
0.0435	-12.08496
0.044	15.1062
0.0445	67.17224
0.045	142.099
0.0455	222.76611
0.046	279.76685
0.0465	305.6488
0.047	285.30579
0.0475	238.37585
0.048	174.32556
0.0485	107.55615
0.049	48.13843
0.0495	-7.04956
0.05	-57.40356
0.0505	-98.19031
0.051	-131.62537
0.0515	-121.35315
0.052	-69.48853
0.0525	-44.0094
0.053	-12.99133
0.0535	16.81824
0.054	47.43347
0.0545	62.53967
0.055	78.45154
0.0555	56.09436
0.056	15.50903
0.0565	-24.87488
0.057	-49.64905
0.0575	-70.29419
0.058	-73.71826
0.0585	-93.15491
0.059	-91.34216
0.0595	-76.63879
0.06	-75.93384
0.0605	-83.38623
0.061	-79.96216
0.0615	-79.76074
0.062	-96.8811
0.0625	-85.70251
0.063	-56.09436
0.0635	-18.42957
0.064	75.93384
0.0645	188.32397
0.065	273.52295
0.0655	355.19714
0.066	382.08618
0.0665	377.85645
0.067	322.36633
0.0675	233.74329
0.068	127.19421
0.0685	15.91187
0.069	-79.15649
0.0695	-158.61511
0.07	-243.71338
0.0705	-273.62366
0.071	-299.60632
0.0715	-312.19482
0.072	-299.90845
0.0725	-266.17126
0.073	-238.87939
0.0735	-217.12646
0.074	-189.83459
0.0745	-156.90308
0.075	-148.3429
0.0755	-134.04236
0.076	-122.66235
0.0765	-104.4342
0.077	-77.74658
0.0775	-58.10852
0.078	-58.00781
0.0785	-57.60498
0.079	-48.23914
0.0795	-35.54993
0.08	-19.73877
0.0805	-11.07788
0.081	-5.33752
0.0815	21.14868
0.082	57.30286
0.0825	78.14941
0.083	65.76233
0.0835	56.90002
0.084	53.27454
0.0845	53.57666
0.085	56.90002
0.0855	77.948
0.086	83.38623
0.0865	78.85437
0.087	63.04321
0.0875	47.33276
0.088	28.50037
0.0885	24.77417
0.089	32.93152
0.0895	43.70728
0.09	42.29736
0.0905	45.72144
0.091	35.04639
0.0915	14.40125
0.092	3.7262
0.0925	17.32178
0.093	45.01648
0.0935	42.49878
0.094	36.75842
0.0945	19.94019
0.095	5.74036
0.0955	5.84106
0.096	17.12036
0.0965	16.91895
0.097	18.63098
0.0975	63.14392
0.098	104.63562
0.0985	132.73315
0.099	156.29883
0.0995	165.66467
0.1	176.0376
0.1005	195.97778
0.101	186.51123
0.1015	160.42786
0.102	131.42395
0.1025	102.01721
0.103	56.90002
0.1035	-14.50195
0.104	-73.21472
0.1045	-125.07935
0.105	-140.58838
0.1055	-164.85901
0.106	-162.94556
0.1065	-156.39954
0.107	-135.8551
0.1075	-122.66235
0.108	-102.31934
0.1085	-74.42322
0.109	-64.65454
0.1095	-50.55542
0.11	-40.08179
0.1105	-42.39807
0.111	-53.67737
0.1115	-47.8363
0.112	-46.32568
0.1125	-43.30444
0.113	-36.55701
0.1135	-20.94727
0.114	-7.15027
0.1145	-4.22974
0.115	3.02124
0.1155	10.27222
0.116	14.09912
0.1165	11.38
0.117	14.80408
0.1175	57.60498
0.118	145.12024
0.1185	201.01318
0.119	206.65283
0.1195	197.99194
0.12	159.7229
0.1205	111.48376
0.121	63.84888
0.1215	20.34302
0.122	-8.96301
0.1225	-16.91895
0.123	-35.34851
0.1235	-51.36108
0.124	-49.34692
0.1245	-46.82922
0.125	-48.03772
0.1255	-61.33118
0.126	-33.03223
0.1265	50.55542
0.127	109.57031
0.1275	126.69067
0.128	107.45544
0.1285	66.36658
0.129	32.42798
0.1295	-1.61133
0.13	-40.1825
0.1305	-69.79065
0.131	-85.09827
0.1315	-107.05261
0.132	-126.69067
0.1325	-132.43103
0.133	-123.46802
0.1335	-100.6073
0.134	-100.80872
0.1345	-97.48535
0.135	-82.47986
0.1355	-60.62622
0.136	-26.3855
0.1365	-11.07788
0.137	12.18567
0.1375	15.91187
0.138	34.24072
0.1385	45.72144
0.139	53.07312
0.1395	80.56641
0.14	107.05261
0.1405	134.84802
0.141	191.44592
0.1415	253.68347
0.142	266.97693
0.1425	247.43958
0.143	203.32947
0.1435	148.14148
0.144	111.28235
0.1445	75.93384
0.145	25.37842
0.1455	-28.60107
0.146	-66.87012
0.1465	-96.17615
0.147	-131.22253
0.1475	-168.88733
0.148	-200.10681
0.1485	-209.27124
0.149	-204.03442
0.1495	-166.36963
0.15	-123.66943
0.1505	-96.47827
0.151	-77.34375
0.1515	-44.81506
0.152	9.76868
0.1525	56.79932
0.153	114.505
0.1535	176.94397
0.154	204.73938
0.1545	216.72363
0.155	198.09265
0.1555	137.86926
0.156	71.09985
0.1565	19.13452
0.157	-27.19116
0.1575	-67.07153
0.158	-69.28711
0.1585	-38.77258
0.159	-17.72461
0.1595	-17.52319
0.16	-13.797
0.1605	17.72461
0.161	31.62231
0.1615	42.49878
0.162	69.89136
0.1625	85.5011
0.163	76.03455
0.1635	69.48853
0.164	83.99048
0.1645	75.63171
0.165	50.65613
0.1655	9.06372
0.166	-37.06055
0.1665	-71.30127
0.167	-73.51685
0.1675	-30.11169
0.168	78.55225
0.1685	145.01953
0.169	161.93848
0.1695	157.30591
0.17	107.65686
0.1705	60.62622
0.171	83.78906
0.1715	189.9353
0.172	215.51514
0.1725	183.38928
0.173	128.40271
0.1735	71.20056
0.174	-1.00708
0.1745	-83.88977
0.175	-156.09741
0.1755	-220.047
0.176	-273.62366
0.1765	-307.26013
0.177	-300.91553
0.1775	-284.70154
0.178	-255.99976
0.1785	-211.68823
0.179	-169.89441
0.1795	-155.19104
0.18	-119.64111
0.1805	-91.44287
0.181	-79.96216
0.1815	-67.97791
0.182	-38.16833
0.1825	-1.81274
0.183	46.5271
0.1835	130.92041
0.184	185.00061
0.1845	249.55444
0.185	300.6134
0.1855	295.27588
0.186	282.08313
0.1865	261.23657
0.187	247.84241
0.1875	214.10522
0.188	161.53564
0.1885	73.91968
0.189	-13.59558
0.1895	-83.99048
0.19	-121.75598
0.1905	-127.69775
0.191	-135.45227
0.1915	-154.98962
0.192	-185.30273
0.1925	-196.98486
0.193	-206.55212
0.1935	-197.89124
0.194	-183.79211
0.1945	-148.14148
0.195	-133.94165
0.1955	-127.49634
0.196	-112.99438
0.1965	-90.73792
0.197	-82.17773
0.1975	-62.23755
0.198	-20.74585
0.1985	7.45239
0.199	15.30762
0.1995	21.24939
0.2	19.23523
0.2005	59.61914
0.201	104.93774
0.2015	113.59863
0.202	114.80713
0.2025	96.67969
0.203	80.36499
0.2035	55.99365
0.204	29.80957
0.2045	9.16443
0.205	-22.55859
0.2055	-46.02356
0.206	-49.85046
0.2065	-50.45471
0.207	-54.18091
0.2075	-49.85046
0.208	-48.74268
0.2085	-42.19666
0.209	5.43823
0.2095	48.13843
0.21	82.47986
0.2105	119.54041
0.211	146.02661
0.2115	146.42944
0.212	110.07385
0.2125	88.42163
0.213	101.8158
0.2135	118.33191
0.214	110.57739
0.2145	82.88269
0.215	57.10144
0.2155	28.09753
0.216	-0.50354
0.2165	-34.64355
0.217	-63.84888
0.2175	-84.99756
0.218	-64.35242
0.2185	10.0708
0.219	82.9834
0.2195	143.10608
0.22	330.7251
0.2205	530.7312
0.221	652.89001
0.2215	647.04895
0.222	540.60059
0.2225	378.05786
0.223	187.51831
0.2235	0.20142
0.224	-161.43494
0.2245	-306.65588
0.225	-411.39221
0.2255	-493.77136
0.226	-547.54944
0.2265	-507.76978
0.227	-412.70142
0.2275	-341.70227
0.228	-289.73694
0.2285	-247.54028
0.229	-167.47742
0.2295	-50.65613
0.23	86.70959
0.2305	243.91479
0.231	401.42212
0.2315	476.55029
0.232	441.90674
0.2325	345.22705
0.233	214.40735
0.2335	82.47986
0.234	-49.95117
0.2345	-145.72449
0.235	-221.05408
0.2355	-271.10596
0.236	-320.05005
0.2365	-378.05786
0.237	-397.69592
0.2375	-375.84229
0.238	-326.19324
0.2385	-210.98328
0.239	-54.58374
0.2395	61.23047
0.24	141.39404
0.2405	184.8999
0.241	189.43176
0.2415	149.95422
0.242	78.65295
0.2425	13.797
0.243	-31.52161
0.2435	-34.94568
0.244	-16.91895
0.2445	13.19275
0.245	9.36584
0.2455	-6.84814
0.246	-3.32336
0.2465	-5.74036
0.247	15.71045
0.2475	27.59399
0.248	37.26196
0.2485	10.87646
0.249	-21.85364
0.2495	-60.3241
0.25	-98.69385
0.2505	-104.3335
0.251	-83.58765
0.2515	-77.34375
0.252	-83.48694
0.2525	-74.92676
0.253	-77.04163
0.2535	-91.54358
0.254	-87.51526
0.2545	-71.7041
0.255	-34.84497
0.2555	33.23364
0.256	100.20447
0.2565	152.57263
0.257	315.51819
0.2575	559.43298
0.258	799.42017
0.2585	924.2981
0.259	909.59473
0.2595	852.29187
0.26	688.13782
0.2605	464.96887
0.261	264.0564
0.2615	104.3335
0.262	-77.74658
0.2625	-236.26099
0.263	-371.91467
0.2635	-451.97754
0.264	-499.41101
0.2645	-531.03333
0.265	-553.69263
0.2655	-539.19067
0.266	-500.5188
0.2665	-458.72498
0.267	-413.10425
0.2675	-317.12952
0.268	-16.51611
0.2685	271.81091
0.269	432.33948
0.2695	485.91614
0.27	468.69507
0.2705	411.99646
0.271	332.73926
0.2715	199.20044
0.272	59.92126
0.2725	-79.96216
0.273	-203.32947
0.2735	-301.51978
0.274	-380.67627
0.2745	-430.32532
0.275	-470.80994
0.2755	-470.70923
0.276	-406.86035
0.2765	-315.01465
0.277	-229.01001
0.2775	-153.88184
0.278	-88.22021
0.2785	-56.09436
0.279	-37.06055
0.2795	-46.72852
0.28	-51.36108
0.2805	-54.58374
0.281	-52.36816
0.2815	-38.67188
0.282	-37.26196
0.2825	-3.52478
0.283	39.67896
0.2835	168.68591
0.284	357.31201
0.2845	460.83984
0.285	479.26941
0.2855	433.8501
0.286	317.83447
0.2865	175.63477
0.287	48.54126
0.2875	-50.75684
0.288	-111.18164
0.2885	-129.5105
0.289	-130.61829
0.2895	-103.93066
0.29	-84.89685
0.2905	-65.96375
0.291	-55.59082
0.2915	-48.13843
0.292	-14.19983
0.2925	166.57104
0.293	528.61633
0.2935	902.948
0.294	1078.28064
0.2945	1036.58752
0.295	853.19824
0.2955	612.4054
0.296	354.5929
0.2965	84.69543
0.297	-162.13989
0.2975	-386.41663
0.298	-563.66272
0.2985	-677.26135
0.299	-709.08508
0.2995	-659.63745
0.3	-430.72815
0.3005	-89.328
0.301	224.47815
0.3015	389.43787
0.302	426.09558
0.3025	322.56775
0.303	121.85669
0.3035	-57.9071
0.304	-82.47986
0.3045	-15.00549
0.305	27.49329
0.3055	-3.8269
0.306	-89.52942
0.3065	-230.01709
0.307	-376.24512
0.3075	-493.77136
0.308	-576.75476
0.3085	-609.18274
0.309	-586.32202
0.3095	-536.37085
0.31	-490.64941
0.3105	-451.474
0.311	-418.64319
0.3115	-328.81165
0.312	-221.05408
0.3125	-126.18713
0.313	-38.974
0.3135	5.74036
0.314	54.88586
0.3145	107.85828
0.315	149.34998
0.3155	143.20679
0.316	124.4751
0.3165	117.02271
0.317	102.72217
0.3175	103.62854
0.318	125.68359
0.3185	160.12573
0.319	206.14929
0.3195	246.02966
0.32	221.65833
0.3205	209.57336
0.321	256.70471
0.3215	274.63074
0.322	244.41833
0.3225	188.12256
0.323	90.13367
0.3235	11.48071
0.324	90.83862
0.3245	175.53406
0.325	208.16345
0.3255	155.79529
0.326	88.32092
0.3265	11.2793
0.327	-18.73169
0.3275	-19.94019
0.328	-68.07861
0.3285	-105.03845
0.329	-113.69934
0.3295	-148.14148
0.33	-193.6615
0.3305	-198.59619
0.331	-68.28003
0.3315	140.99121
0.332	329.01306
0.3325	456.20728
0.333	474.73755
0.3335	406.45752
0.334	279.06189
0.3345	167.276
0.335	26.98975
0.3355	-104.13208
0.336	-195.87708
0.3365	-267.27905
0.337	-308.67004
0.3375	-339.78882
0.338	-386.71875
0.3385	-404.14124
0.339	-397.49451
0.3395	-341.80298
0.34	-263.55286
0.3405	-191.04309
0.341	-113.59863
0.3415	-47.63489
0.342	-23.16284
0.3425	-6.94885
0.343	11.48071
0.3435	13.29346
0.344	22.25647
0.3445	52.36816
0.345	73.61755
0.3455	72.50977
0.346	70.99915
0.3465	64.55383
0.347	59.1156
0.3475	118.53333
0.348	292.05322
0.3485	436.56921
0.349	472.32056
0.3495	426.19629
0.35	333.74634
0.3505	210.47974
0.351	161.73706
0.3515	243.20984
0.352	293.56384
0.3525	267.58118
0.353	200.10681
0.3535	114.90784
0.354	25.78125
0.3545	-55.08728
0.355	-142.19971
0.3555	-195.37354
0.356	-223.16895
0.3565	-246.83533
0.357	-214.91089
0.3575	-52.26746
0.358	176.33972
0.3585	359.729
0.359	438.78479
0.3595	418.44177
0.36	360.83679
0.3605	268.28613
0.361	156.29883
0.3615	170.29724
0.362	450.16479
0.3625	770.61768
0.363	855.61523
0.3635	716.63818
0.364	467.68799
0.3645	198.6969
0.365	-44.11011
0.3655	-258.41675
0.366	-397.69592
0.3665	-532.34253
0.367	-694.78455
0.3675	-821.97876
0.368	-885.62622
0.3685	-919.76624
0.369	-886.83472
0.3695	-775.45166
0.37	-574.33777
0.3705	-440.69824
0.371	-407.96814
0.3715	-347.84546
0.372	-227.80151
0.3725	-137.86926
0.373	-72.50977
0.3735	-12.18567
0.374	29.70886
0.3745	55.2887
0.375	57.50427
0.3755	20.04089
0.376	-16.81824
0.3765	-47.13135
0.377	-33.33435
0.3775	-8.96301
0.378	39.17542
0.3785	347.54333
0.379	682.59888
0.3795	813.21716
0.38	804.35486
0.3805	673.73657
0.381	474.23401
0.3815	240.1886
0.382	52.97241
0.3825	-114.20288
0.383	-266.07056
0.3835	-363.65662
0.384	-426.49841
0.3845	-448.04993
0.385	-450.86975
0.3855	-390.54565
0.386	-281.78101
0.3865	-169.99512
0.387	-84.49402
0.3875	-48.03772
0.388	-52.46887
0.3885	-44.41223
0.389	-18.02673
0.3895	22.15576
0.39	233.34045
0.3905	521.06323
0.391	687.83569
0.3915	702.13623
0.392	621.97266
0.3925	552.88696
0.393	577.66113
0.3935	516.22925
0.394	344.01855
0.3945	106.8512
0.395	-136.25793
0.3955	-347.94617
0.396	-508.87756
0.3965	-577.2583
0.397	-539.29138
0.3975	-467.28516
0.398	-398.60229
0.3985	-318.53943
0.399	-154.18396
0.3995	5.0354
0.4	124.07227
0.4005	154.58679
0.401	153.27759
0.4015	119.4397
0.402	55.99365
0.4025	-27.79541
0.403	-93.55774
0.4035	-141.99829
0.404	-174.22485
0.4045	-194.36646
0.405	-197.89124
0.4055	-201.31531
0.406	-194.26575
0.4065	-194.87
0.407	-178.95813
0.4075	-130.41687
0.408	-86.30676
0.4085	-84.09119
0.409	-88.32092
0.4095	-55.99365
0.41	-26.58691
0.4105	-19.23523
0.411	-2.92053
0.4115	59.41772
0.412	103.72925
0.4125	119.64111
0.413	200.40894
0.4135	384.8053
0.414	665.78064
0.4145	1067.90771
0.415	1247.77222
0.4155	1159.75342
0.416	926.41296
0.4165	683.20312
0.417	511.69739
0.4175	269.1925
0.418	-0.80566
0.4185	-262.34436
0.419	-496.08765
0.4195	-703.14331
0.42	-850.68054
0.4205	-898.61755
0.421	-813.01575
0.4215	-677.76489
0.422	-553.89404
0.4225	-463.45825
0.423	-397.09167
0.4235	-325.48828
0.424	-276.94702
0.4245	-225.58594
0.425	-168.18237
0.4255	-127.19421
0.426	-43.70728
0.4265	50.85754
0.427	130.01404
0.4275	162.13989
0.428	136.66077
0.4285	94.66553
0.429	113.09509
0.4295	232.73621
0.43	289.93835
0.4305	290.94543
0.431	280.87463
0.4315	269.99817
0.432	289.53552
0.4325	360.73608
0.433	414.11133
0.4335	479.67224
0.434	615.22522
0.4345	630.63354
0.435	485.61401
0.4355	267.37976
0.436	36.35559
0.4365	-192.65442
0.437	-369.7998
0.4375	-417.03186
0.438	-393.86902
0.4385	-350.16174
0.439	-311.18774
0.4395	-298.80066
0.44	-264.35852
0.4405	-212.29248
0.441	-171.30432
0.4415	-136.66077
0.442	-112.28943
0.4425	-156.09741
0.443	-207.35779
0.4435	-224.17603
0.444	-243.00842
0.4445	-241.69922
0.445	-202.62451
0.4455	-159.11865
0.446	-118.02979
0.4465	-84.49402
0.447	-56.39648
0.4475	-28.9032
0.448	-12.78992
0.4485	-8.96301
0.449	-9.06372
0.4495	-19.13452
0.45	3.02124
0.4505	75.02747
0.451	158.5144
0.4515	190.64026
0.452	303.33252
0.4525	488.43384
0.453	553.89404
0.4535	485.81543
0.454	388.53149
0.4545	290.34119
0.455	199.30115
0.4555	91.04004
0.456	-23.76709
0.4565	-131.52466
0.457	-213.09814
0.4575	-252.37427
0.458	-262.34436
0.4585	-298.59924
0.459	-325.99182
0.4595	-300.31128
0.46	-241.09497
0.4605	-183.18787
0.461	-105.34058
0.4615	-31.72302
0.462	-7.65381
0.4625	24.67346
0.463	36.35559
0.4635	55.18799
0.464	81.17065
0.4645	60.12268
0.465	35.95276
0.4655	13.59558
0.466	3.7262
0.4665	-12.28638
0.467	-29.10461
0.4675	24.16992
0.468	212.99744
0.4685	470.80994
0.469	715.93323
0.4695	960.55298
0.47	1121.88721
0.4705	1150.28687
0.471	1004.05884
0.4715	737.78687
0.472	419.34814
0.4725	56.90002
0.473	-322.97058
0.4735	-650.77515
0.474	-889.35242
0.4745	-1038.09814
0.475	-1015.33813
0.4755	-796.90247
0.476	-415.11841
0.4765	104.73633
0.477	459.73206
0.4775	589.34326
0.478	564.26697
0.4785	402.73132
0.479	148.54431
0.4795	-60.4248
0.48	-198.99902
0.4805	101.21155
0.481	614.31885
0.4815	811.80725
0.482	978.3783
0.4825	1378.99475
0.483	1434.68628
0.4835	1167.50793
0.484	730.6366
0.4845	226.29089
0.485	-276.84631
0.4855	-670.51392
0.486	-965.78979
0.4865	-1166.09802
0.487	-1228.7384
0.4875	-1251.80054
0.488	-1209.90601
0.4885	-1088.95569
0.489	-956.82678
0.4895	-848.06213
0.49	-736.27625
0.4905	-607.97424
0.491	-490.448
0.4915	-435.56213
0.492	-420.75806
0.4925	-389.23645
0.493	-332.53784
0.4935	-261.23657
0.494	-188.42468
0.4945	-152.06909
0.495	-133.53882
0.4955	-85.29968
0.496	-44.31152
0.4965	-24.47205
0.497	-9.16443
0.4975	-2.61841
0.498	9.86938
0.4985	20.54443
0.499	26.48621
0.4995	36.05347
0.5	43.90869
0.5005	42.29736
0.501	66.46729
0.5015	180.56946
0.502	379.87061
0.5025	479.57153
0.503	511.19385
0.5035	458.42285
0.504	405.34973
0.5045	463.25684
0.505	499.20959
0.5055	467.08374
0.506	386.41663
0.5065	246.5332
0.507	64.95667
0.5075	-108.05969
0.508	-211.99036
0.5085	-286.51428
0.509	-314.00757
0.5095	-331.73218
0.51	-369.49768
0.5105	-383.19397
0.511	-333.14209
0.5115	-241.29639
0.512	-125.98572
0.5125	-5.63965
0.513	39.27612
0.5135	31.4209
0.514	3.92761
0.5145	-0.40283
0.515	-22.05505
0.5155	-22.05505
0.516	118.63403
0.5165	299.20349
0.517	393.86902
0.5175	436.77063
0.518	563.66272
0.5185	596.29211
0.519	506.7627
0.5195	347.54333
0.52	174.42627
0.5205	-19.63806
0.521	-153.3783
0.5215	-168.4845
0.522	-164.55688
0.5225	-128.70483
0.523	-100.50659
0.5235	-100.70801
0.524	-127.89917
0.5245	-179.56238
0.525	-237.97302
0.5255	-272.71729
0.526	-305.24597
0.5265	-283.89587
0.527	-168.68591
0.5275	-52.97241
0.528	31.52161
0.5285	117.22412
0.529	179.8645
0.5295	202.92664
0.53	191.04309
0.5305	142.60254
0.531	75.32959
0.5315	44.21082
0.532	23.46497
0.5325	4.22974
0.533	-9.36584
0.5335	-8.66089
0.534	-14.30054
0.5345	-16.21399
0.535	-42.49878
0.5355	-62.8418
0.536	-82.58057
0.5365	-87.01172
0.537	-65.96375
0.5375	-55.69153
0.538	136.15723
0.5385	673.03162
0.539	1198.12317
0.5395	1369.12537
0.54	1254.62036
0.5405	966.99829
0.541	586.42273
0.5415	145.22095
0.542	-278.86047
0.5425	-612.00256
0.543	-849.87488
0.5435	-970.42236
0.544	-1006.67725
0.5445	-946.35315
0.545	-789.85291
0.5455	-562.65564
0.546	-296.18225
0.5465	-72.81189
0.547	86.40747
0.5475	171.90857
0.548	198.19336
0.5485	160.02502
0.549	96.47827
0.5495	47.63489
0.55	-3.22266
0.5505	-38.47046
0.551	-66.87012
0.5515	-83.99048
0.552	-86.30676
0.5525	-83.28552
0.553	-76.94092
0.5535	-57.10144
0.554	-37.06055
0.5545	-17.72461
0.555	-10.67505
0.5555	-20.94727
0.556	-18.02673
0.5565	-21.85364
0.557	-36.4563
0.5575	-39.98108
0.558	-39.27612
0.5585	-32.12585
0.559	-17.42249
0.5595	-13.29346
0.56	-6.14319
0.5605	5.43823
0.561	21.45081
0.5615	27.79541
0.562	37.26196
0.5625	60.52551
0.563	87.21313
0.5635	100.50659
0.564	120.34607
0.5645	120.7489
0.565	97.58606
0.5655	105.84412
0.566	163.95264
0.5665	215.21301
0.567	240.39001
0.5675	242.60559
0.568	214.10522
0.5685	200.61035
0.569	185.70557
0.5695	159.11865
0.57	91.745
0.5705	17.01965
0.571	-44.51294
0.5715	-82.78198
0.572	-92.75208
0.5725	-84.39331
0.573	-90.23438
0.5735	-94.3634
0.574	-98.0896
0.5745	-86.70959
0.575	61.73401
0.5755	194.56787
0.576	206.04858
0.5765	156.09741
0.577	95.77332
0.5775	17.52319
0.578	-56.49719
0.5785	-105.94482
0.579	-136.15723
0.5795	-153.3783
0.58	-188.22327
0.5805	-216.92505
0.581	-214.81018
0.5815	-117.92908
0.582	31.32019
0.5825	141.79688
0.583	186.71265
0.5835	190.13672
0.584	166.67175
0.5845	183.18787
0.585	266.17126
0.5855	271.71021
0.586	220.34912
0.5865	131.22253
0.587	11.17859
0.5875	-76.94092
0.588	-9.86938
0.5885	94.46411
0.589	182.98645
0.5895	246.83533
0.59	239.48364
0.5905	172.71423
0.591	47.43347
0.5915	-88.11951
0.592	-204.13513
0.5925	-298.19641
0.593	-366.37573
0.5935	-393.46619
0.594	-361.54175
0.5945	-311.28845
0.595	-319.14368
0.5955	-326.9989
0.596	-284.39941
0.5965	-207.86133
0.597	-141.89758
0.5975	-48.03772
0.598	51.66321
0.5985	218.43567
0.599	278.45764
0.5995	243.51196
0.6	156.80237
0.6005	56.69861
0.601	88.62305
0.6015	167.57812
0.602	165.16113
0.6025	172.41211
0.603	168.38379
0.6035	100.20447
0.604	29.60815
0.6045	-31.52161
0.605	-98.79456
0.6055	-165.36255
0.606	-229.11072
0.6065	-263.25073
0.607	-260.3302
0.6075	-243.10913
0.608	-209.57336
0.6085	-153.98254
0.609	-74.72534
0.6095	-2.01416
0.61	-1.51062
0.6105	-12.99133
0.611	3.22266
0.6115	84.99756
0.612	144.71741
0.6125	182.58362
0.613	197.18628
0.6135	219.34204
0.614	215.51514
0.6145	179.26025
0.615	109.4696
0.6155	16.21399
0.616	-56.39648
0.6165	-108.36182
0.617	-123.87085
0.6175	-75.93384
0.618	-70.79773
0.6185	-49.14551
0.619	-13.19275
0.6195	-12.18567
0.62	-13.99841
0.6205	-23.06213
0.621	-57.9071
0.6215	-72.40906
0.622	-82.17773
0.6225	-41.39099
0.623	89.93225
0.6235	190.03601
0.624	218.93921
0.6245	214.81018
0.625	166.87317
0.6255	78.85437
0.626	5.63965
0.6265	-50.65613
0.627	-110.37598
0.6275	-147.63794
0.628	-50.15259
0.6285	195.77637
0.629	335.25696
0.6295	384.50317
0.63	328.71094
0.6305	231.93054
0.631	129.91333
0.6315	5.33752
0.632	-63.34534
0.6325	-27.19116
0.633	316.02173
0.6335	660.34241
0.634	781.09131
0.6345	721.97571
0.635	478.56445
0.6355	153.3783
0.636	-158.4137
0.6365	-393.46619
0.637	-533.04749
0.6375	-448.55347
0.638	-51.86462
0.6385	328.30811
0.639	515.82642
0.6395	539.08997
0.64	411.79504
0.6405	163.75122
0.641	-152.1698
0.6415	-442.81311
0.642	-652.48718
0.6425	-788.94653
0.643	-843.53027
0.6435	-859.94568
0.644	-806.1676
0.6445	-647.35107
0.645	-447.94922
0.6455	-330.62439
0.646	-267.07764
0.6465	-297.995
0.647	-339.38599
0.6475	-270.70312
0.648	-181.27441
0.6485	-130.92041
0.649	-124.67651
0.6495	-91.34216
0.65	-28.9032
0.6505	20.44373
0.651	58.81348
0.6515	145.01953
0.652	194.87
0.6525	205.24292
0.653	175.73547
0.6535	146.12732
0.654	95.87402
0.6545	64.95667
0.655	59.61914
0.6555	54.38232
0.656	41.69312
0.6565	121.75598
0.657	257.20825
0.6575	276.54419
0.658	201.2146
0.6585	92.55066
0.659	16.3147
0.6595	-52.26746
0.66	-114.10217
0.6605	-155.19104
0.661	-175.63477
0.6615	-199.60327
0.662	-191.04309
0.6625	-141.39404
0.663	-109.4696
0.6635	-101.51367
0.664	-89.83154
0.6645	-59.41772
0.665	-12.48779
0.6655	24.67346
0.666	36.05347
0.6665	60.72693
0.667	102.01721
0.6675	139.68201
0.668	150.05493
0.6685	94.46411
0.669	164.25476
0.6695	274.02649
0.67	359.93042
0.6705	546.34094
0.671	783.70972
0.6715	898.01331
0.672	787.63733
0.6725	589.44397
0.673	306.75659
0.6735	-6.54602
0.674	-291.95251
0.6745	-502.33154
0.675	-636.87744
0.6755	-526.70288
0.676	-331.83289
0.6765	-203.43018
0.677	-122.56165
0.6775	104.13208
0.678	339.38599
0.6785	447.04285
0.679	436.06567
0.6795	314.10828
0.68	126.08643
0.6805	-106.75049
0.681	-324.68262
0.6815	-502.33154
0.682	-571.82007
0.6825	-589.44397
0.683	-513.40942
0.6835	-386.92017
0.684	-313.60474
0.6845	-278.65906
0.685	-211.58752
0.6855	-112.79297
0.686	-57.50427
0.6865	-80.66711
0.687	-86.30676
0.6875	-78.85437
0.688	-61.73401
0.6885	-52.56958
0.689	-59.21631
0.6895	-74.42322
0.69	-77.04163
0.6905	-43.40515
0.691	-0.30212
0.6915	-4.63257
0.692	26.58691
0.6925	80.56641
0.693	100.70801
0.6935	73.41614
0.694	51.76392
0.6945	153.17688
0.695	274.83215
0.6955	326.29395
0.696	307.05872
0.6965	236.36169
0.697	135.65369
0.6975	16.3147
0.698	-53.67737
0.6985	-84.59473
0.699	-23.96851
0.6995	107.35474
0.7	146.63086
0.7005	124.67651
0.701	72.50977
0.7015	29.00391
0.702	87.41455
0.7025	207.15637
0.703	282.78809
0.7035	391.75415
0.704	521.36536
0.7045	744.63501
0.705	823.48938
0.7055	823.7915
0.706	784.8175
0.7065	1147.97058
0.707	1280.60303
0.7075	991.77246
0.708	560.64148
0.7085	101.51367
0.709	-341.60156
0.7095	-723.58704
0.71	-1008.08716
0.7105	-1173.24829
0.711	-1258.74939
0.7115	-1247.5708
0.712	-1012.31689
0.7125	-669.90967
0.713	-232.03125
0.7135	164.55688
0.714	344.11926
0.7145	337.47253
0.715	148.14148
0.7155	-120.14465
0.716	-349.05396
0.7165	-488.83667
0.717	-525.09155
0.7175	-552.18201
0.718	-582.79724
0.7185	-576.45264
0.719	-546.94519
0.7195	-417.13257
0.72	-235.95886
0.7205	-79.86145
0.721	242.00134
0.7215	652.28577
0.722	907.47986
0.7225	1046.45691
0.723	982.70874
0.7235	780.08423
0.724	438.48267
0.7245	-22.05505
0.725	-437.77771
0.7255	-738.89465
0.726	-918.35632
0.7265	-1000.03052
0.727	-987.13989
0.7275	-870.92285
0.728	-638.99231
0.7285	-351.37024
0.729	-84.2926
0.7295	78.55225
0.73	69.68994
0.7305	33.13293
0.731	11.2793
0.7315	31.72302
0.732	62.03613
0.7325	67.37366
0.733	72.20764
0.7335	83.18481
0.734	83.18481
0.7345	73.61755
0.735	78.45154
0.7355	63.74817
0.736	61.73401
0.7365	66.76941
0.737	57.60498
0.7375	40.98816
0.738	36.05347
0.7385	26.08337
0.739	13.39417
0.7395	15.71045
0.74	164.45618
0.7405	353.08228
0.741	528.2135
0.7415	633.55408
0.742	614.01672
0.7425	502.02942
0.743	381.38123
0.7435	498.90747
0.744	677.76489
0.7445	815.83557
0.745	797.20459
0.7455	602.33459
0.746	280.16968
0.7465	-91.94641
0.747	-395.48035
0.7475	-479.1687
0.748	-306.25305
0.7485	-64.35242
0.749	38.67188
0.7495	85.5011
0.75	93.35632
0.7505	52.16675
0.751	-32.42798
0.7515	-240.28931
0.752	-484.90906
0.7525	-664.77356
0.753	-703.34473
0.7535	-667.99622
0.754	-606.46362
0.7545	-503.23792
0.755	-388.43079
0.7555	-289.53552
0.756	-214.10522
0.7565	-152.97546
0.757	-152.27051
0.7575	-131.72607
0.758	-75.93384
0.7585	-39.27612
0.759	-23.8678
0.7595	-8.15735
0.76	8.66089
0.7605	24.77417
0.761	39.67896
0.7615	43.50586
0.762	28.60107
0.7625	1.91345
0.763	21.3501
0.7635	46.82922
0.764	76.7395
0.7645	70.89844
0.765	51.26038
0.7655	21.55151
0.766	0.30212
0.7665	-0.80566
0.767	45.62073
0.7675	157.80945
0.768	199.40186
0.7685	188.12256
0.769	197.99194
0.7695	180.36804
0.77	179.8645
0.7705	223.47107
0.771	204.73938
0.7715	216.82434
0.772	349.5575
0.7725	578.36609
0.773	729.22668
0.7735	1034.77478
0.774	1351.30005
0.7745	1308.49915
0.775	987.34131
0.7755	500.11597
0.776	-15.81116
0.7765	-468.89648
0.777	-831.3446
0.7775	-1082.71179
0.778	-1244.85168
0.7785	-1230.24902
0.779	-1096.40808
0.7795	-919.56482
0.78	-736.88049
0.7805	-538.38501
0.781	-326.79749
0.7815	-180.67017
0.782	-161.43494
0.7825	-153.479
0.783	-120.84961
0.7835	-41.4917
0.784	48.94409
0.7845	81.47278
0.785	106.8512
0.7855	124.77722
0.786	166.47034
0.7865	187.4176
0.787	162.34131
0.7875	120.04395
0.788	79.45862
0.7885	71.09985
0.789	77.74658
0.7895	114.30359
0.79	163.5498
0.7905	182.18079
0.791	170.59937
0.7915	136.15723
0.792	105.13916
0.7925	77.74658
0.793	220.24841
0.7935	354.99573
0.794	395.78247
0.7945	373.62671
0.795	267.68188
0.7955	89.52942
0.796	-29.80957
0.7965	138.3728
0.797	431.83594
0.7975	824.89929
0.798	911.60889
0.7985	773.13538
0.799	458.12073
0.7995	61.83472
0.8	-292.35535
0.8005	-564.87122
0.801	-707.47375
0.8015	-868.70728
0.802	-1071.93604
0.8025	-1130.14526
0.803	-1011.30981
0.8035	-747.45483
0.804	-435.05859
0.8045	-192.65442
0.805	-87.41455
0.8055	-54.38232
0.806	-41.59241
0.8065	-57.40356
0.807	43.30444
0.8075	143.00537
0.808	183.89282
0.8085	170.70007
0.809	140.28625
0.8095	99.49951
0.81	44.0094
0.8105	-9.16443
0.811	-50.45471
0.8115	-62.74109
0.812	-71.60339
0.8125	44.71436
0.813	220.24841
0.8135	315.31677
0.814	340.7959
0.8145	285.80933
0.815	185.60486
0.8155	102.31934
0.816	66.76941
0.8165	40.58533
0.817	8.05664
0.8175	1.3092
0.818	54.0802
0.8185	205.14221
0.819	312.89978
0.8195	321.35925
0.82	259.32312
0.8205	143.81104
0.821	1.61133
0.8215	-62.13684
0.822	-94.3634
0.8225	-81.67419
0.823	47.7356
0.8235	366.77856
0.824	642.41638
0.8245	700.62561
0.825	637.98523
0.8255	457.91931
0.826	183.18787
0.8265	-106.75049
0.827	-365.67078
0.8275	-535.7666
0.828	-663.26294
0.8285	-750.17395
0.829	-771.82617
0.8295	-677.36206
0.83	-295.67871
0.8305	147.23511
0.831	454.19312
0.8315	530.83191
0.832	499.20959
0.8325	399.00513
0.833	205.34363
0.8335	-60.62622
0.834	-310.07996
0.8345	-485.31189
0.835	-597.09778
0.8355	-626.00098
0.836	-616.53442
0.8365	-444.62585
0.837	18.73169
0.8375	541.00342
0.838	788.5437
0.8385	720.06226
0.839	470.20569
0.8395	216.11938
0.84	-54.78516
0.8405	-275.93994
0.841	-387.92725
0.8415	-452.48108
0.842	-487.82959
0.8425	-487.22534
0.843	-446.74072
0.8435	-364.05945
0.844	-232.53479
0.8445	-99.09668
0.845	0.20142
0.8455	70.49561
0.846	114.90784
0.8465	119.33899
0.847	131.42395
0.8475	127.99988
0.848	127.69775
0.8485	118.43262
0.849	98.39172
0.8495	74.12109
0.85	55.49011
0.8505	146.93298
0.851	227.19727
0.8515	226.49231
0.852	178.05176
0.8525	112.28943
0.853	77.34375
0.8535	148.54431
0.854	213.19885
0.8545	155.59387
0.855	128.302
0.8555	128.70483
0.856	61.02905
0.8565	-51.46179
0.857	-155.896
0.8575	-224.88098
0.858	-284.50012
0.8585	-339.08386
0.859	-353.68652
0.8595	-324.27979
0.86	-218.93921
0.8605	-72.71118
0.861	38.974
0.8615	100.40588
0.862	113.69934
0.8625	106.8512
0.863	99.60022
0.8635	51.76392
0.864	-24.67346
0.8645	-7.25098
0.865	21.24939
0.8655	52.46887
0.866	114.80713
0.8665	141.89758
0.867	118.02979
0.8675	52.67029
0.868	-34.84497
0.8685	-113.49792
0.869	-165.26184
0.8695	-182.48291
0.87	-177.44751
0.8705	-115.51208
0.871	-51.76392
0.8715	-16.91895
0.872	-27.29187
0.8725	-10.87646
0.873	140.28625
0.8735	330.22156
0.874	838.69629
0.8745	1319.47632
0.875	1919.29321
0.8755	2384.56421
0.876	2268.95142
0.8765	1730.36499
0.877	1028.22876
0.8775	267.17834
0.878	-476.34888
0.8785	-1062.77161
0.879	-1447.77832
0.8795	-1665.71045
0.88	-1679.40674
0.8805	-1551.40686
0.881	-1190.36865
0.8815	-751.78528
0.882	-145.62378
0.8825	483.49915
0.883	736.9812
0.8835	655.00488
0.884	400.71716
0.8845	115.61279
0.885	-196.68274
0.8855	-472.9248
0.886	-666.5863
0.8865	-782.09839
0.887	-800.42725
0.8875	-759.33838
0.888	-650.27161
0.8885	-495.28198
0.889	-299.3042
0.8895	-127.89917
0.89	42.09595
0.8905	54.88586
0.891	-32.22656
0.8915	-58.30994
0.892	-47.7356
0.8925	-64.151
0.893	-51.46179
0.8935	-20.44373
0.894	2.5177
0.8945	-1.40991
0.895	-8.15735
0.8955	-9.56726
0.896	-8.35876
0.8965	3.52478
0.897	7.95593
0.8975	21.14868
0.898	76.23596
0.8985	119.64111
0.899	133.94165
0.8995	130.8197
0.9	181.17371
0.9005	302.72827
0.901	370.00122
0.9015	351.47095
0.902	270.90454
0.9025	161.13281
0.903	42.19666
0.9035	-63.04321
0.904	-151.26343
0.9045	-203.32947
0.905	-236.76453
0.9055	-285.91003
0.906	-294.77234
0.9065	-208.56628
0.907	-56.29578
0.9075	53.77808
0.908	96.47827
0.9085	104.4342
0.909	138.17139
0.9095	152.27051
0.91	103.93066
0.9105	65.46021
0.911	47.43347
0.9115	5.0354
0.912	-35.75134
0.9125	-71.09985
0.913	-92.34924
0.9135	-122.05811
0.914	-120.34607
0.9145	-102.82288
0.915	-70.19348
0.9155	-17.82532
0.916	190.03601
0.9165	551.17493
0.917	695.28809
0.9175	691.96472
0.918	573.73352
0.9185	402.12708
0.919	213.29956
0.9195	55.08728
0.92	-89.83154
0.9205	-185.40344
0.921	-186.30981
0.9215	-3.62549
0.922	206.55212
0.9225	322.16492
0.923	350.66528
0.9235	286.51428
0.924	181.97937
0.9245	-2.5177
0.925	-244.72046
0.9255	-440.49683
0.926	-468.89648
0.9265	-371.61255
0.927	-182.18079
0.9275	-47.13135
0.928	8.8623
0.9285	44.41223
0.929	55.3894
0.9295	12.18567
0.93	-93.85986
0.9305	-167.77954
0.931	-127.59705
0.9315	-97.48535
0.932	-30.71594
0.9325	252.07214
0.933	450.86975
0.9335	484.60693
0.934	389.43787
0.9345	189.12964
0.935	-7.15027
0.9355	-208.66699
0.936	-371.10901
0.9365	-485.31189
0.937	-519.95544
0.9375	-508.17261
0.938	-499.61243
0.9385	-422.36938
0.939	-311.69128
0.9395	-168.28308
0.94	-31.62231
0.9405	32.7301
0.941	49.64905
0.9415	27.89612
0.942	-7.15027
0.9425	-9.16443
0.943	-16.71753
0.9435	46.12427
0.944	146.83228
0.9445	198.79761
0.945	219.03992
0.9455	198.29407
0.946	167.17529
0.9465	118.2312
0.947	88.42163
0.9475	48.33984
0.948	1.10779
0.9485	-22.96143
0.949	-28.39966
0.9495	-30.31311
0.95	-27.19116
0.9505	-32.12585
0.951	-57.70569
0.9515	-46.82922
0.952	-0.40283
0.9525	38.26904
0.953	30.01099
0.9535	9.56726
0.954	5.0354
0.9545	-17.52319
0.955	-25.177
0.9555	-13.797
0.956	8.66089
0.9565	37.96692
0.957	48.94409
0.9575	113.69934
0.958	247.64099
0.9585	291.54968
0.959	293.66455
0.9595	246.23108
0.96	178.25317
0.9605	182.48291
0.961	208.16345
0.9615	168.78662
0.962	147.33582
0.9625	252.7771
0.963	272.11304
0.9635	230.52063
0.964	206.85425
0.9645	177.3468
0.965	119.23828
0.9655	3.92761
0.966	-138.57422
0.9665	-133.53882
0.967	308.1665
0.9675	716.73889
0.968	891.56799
0.9685	792.57202
0.969	518.84766
0.9695	134.94873
0.97	-262.64648
0.9705	-615.22522
0.971	-918.45703
0.9715	-1070.02258
0.972	-1107.58667
0.9725	-1004.56238
0.973	-788.34229
0.9735	-494.07349
0.974	-224.88098
0.9745	-71.40198
0.975	-87.51526
0.9755	-155.896
0.976	-126.58997
0.9765	-63.94958
0.977	-20.94727
0.9775	13.19275
0.978	39.17542
0.9785	52.56958
0.979	65.86304
0.9795	69.1864
0.98	78.35083
0.9805	76.7395
0.981	63.04321
0.9815	47.8363
0.982	4.93469
0.9825	-32.32727
0.983	-51.66321
0.9835	-54.48303
0.984	-41.18958
0.9845	-12.5885
0.985	-3.02124
0.9855	-4.02832
0.986	98.99597
0.9865	217.93213
0.987	263.65356
0.9875	266.27197
0.988	265.3656
0.9885	241.29639
0.989	188.72681
0.9895	145.42236
0.99	90.03296
0.9905	16.01257
0.991	-63.14392
0.9915	-117.52625
0.992	-133.53882
0.9925	-114.4043
0.993	-82.07703
0.9935	-50.75684
0.994	-61.83472
0.9945	-89.02588
0.995	-87.61597
0.9955	-93.75916
0.996	-112.89368
0.9965	-103.52783
0.997	-80.66711
0.9975	-37.16125
0.998	16.81824
0.9985	31.52161
0.999	15.20691
0.9995	2.41699
1	-15.30762
1.0005	-6.14319
1.001	-1.00708
1.0015	18.73169
1.002	39.07471
1.0025	60.02197
1.003	79.55933
1.0035	128.50342
1.004	190.94238
1.0045	252.07214
1.005	280.37109
1.0055	274.02649
1.006	270.90454
1.0065	222.36328
1.007	124.17297
1.0075	12.08496
1.008	-76.13525
1.0085	-110.57739
1.009	-85.90393
1.0095	-14.60266
1.01	62.8418
1.0105	239.58435
1.011	480.3772
1.0115	562.65564
1.012	551.17493
1.0125	405.95398
1.013	166.47034
1.0135	-58.10852
1.014	-272.01233
1.0145	-461.74622
1.015	-597.60132
1.0155	-649.16382
1.016	-615.22522
1.0165	-480.57861
1.017	-320.755
1.0175	-174.52698
1.018	-131.52466
1.0185	-153.78113
1.019	-158.31299
1.0195	-132.12891
1.02	-76.53809
1.0205	-27.6947
1.021	7.85522
1.0215	19.23523
1.022	38.57117
1.0225	103.125
1.023	132.63245
1.0235	145.8252
1.024	164.85901
1.0245	162.84485
1.025	174.62769
1.0255	184.49707
1.026	158.01086
1.0265	89.52942
1.027	10.37292
1.0275	-59.51843
1.028	-133.53882
1.0285	-164.25476
1.029	-142.60254
1.0295	-70.99915
1.03	0.80566
1.0305	36.05347
1.031	19.33594
1.0315	7.95593
1.032	15.20691
1.0325	28.19824
1.033	45.41931
1.0335	71.90552
1.034	82.27844
1.0345	69.99207
1.035	56.90002
1.0355	27.29187
1.036	-16.51611
1.0365	-41.29028
1.037	-30.71594
1.0375	-8.56018
1.038	3.92761
1.0385	-26.98975
1.039	-57.60498
1.0395	-20.34302
1.04	116.61987
1.0405	190.33813
1.041	211.48682
1.0415	174.42627
1.042	78.45154
1.0425	1.3092
1.043	-49.74976
1.0435	-76.33667
1.044	-59.82056
1.0445	37.96692
1.045	120.14465
1.0455	162.03918
1.046	172.00928
1.0465	144.6167
1.047	91.745
1.0475	12.89062
1.048	-63.04321
1.0485	-112.59155
1.049	-143.3075
1.0495	-153.3783
1.05	-151.46484
1.0505	-154.28467
1.051	-164.45618
1.0515	-152.57263
1.052	-114.60571
1.0525	-84.99756
1.053	-43.60657
1.0535	-3.12195
1.054	43.00232
1.0545	116.21704
1.055	227.90222
1.0555	279.76685
1.056	256.604
1.0565	190.64026
1.057	98.49243
1.0575	-2.31628
1.058	-91.34216
1.0585	-170.19653
1.059	-212.69531
1.0595	-243.51196
1.06	-250.36011
1.0605	-202.4231
1.061	-109.4696
1.0615	3.22266
1.062	62.64038
1.0625	118.43262
1.063	230.1178
1.0635	368.38989
1.064	547.0459
1.0645	579.47388
1.065	503.94287
1.0655	358.52051
1.066	197.89124
1.0665	45.92285
1.067	-72.50977
1.0675	-198.59619
1.068	-287.72278
1.0685	-326.09253
1.069	-283.39233
1.0695	-217.22717
1.07	-163.95264
1.0705	-126.79138
1.071	-89.42871
1.0715	-14.09912
1.072	144.6167
1.0725	210.88257
1.073	238.27515
1.0735	216.11938
1.074	126.38855
1.0745	13.99841
1.075	-83.28552
1.0755	-127.49634
1.076	-165.9668
1.0765	-199.60327
1.077	-220.95337
1.0775	-210.0769
1.078	-149.75281
1.0785	-107.45544
1.079	-57.8064
1.0795	-5.0354
1.08	-30.81665
1.0805	-109.3689
1.081	-161.53564
1.0815	-144.01245
1.082	-115.91492
1.0825	-105.94482
1.083	-79.05579
1.0835	-66.36658
1.084	-30.71594
1.0845	10.67505
1.085	65.3595
1.0855	116.11633
1.086	138.27209
1.0865	162.2406
1.087	145.22095
1.0875	93.75916
1.088	11.88354
1.0885	-35.95276
1.089	-49.74976
1.0895	-62.9425
1.09	-39.27612
1.0905	24.47205
1.091	85.5011
1.0915	71.80481
1.092	10.57434
1.0925	-25.27771
1.093	-12.99133
1.0935	-20.34302
1.094	-27.19116
1.0945	-21.24939
1.095	2.61841
1.0955	31.82373
1.096	55.59082
1.0965	63.84888
1.097	53.67737
1.0975	38.87329
1.098	41.08887
1.0985	52.8717
1.099	48.03772
1.0995	34.54285
1.1	21.55151
1.1005	10.37292
1.101	-8.45947
1.1015	-20.94727
1.102	22.05505
1.1025	193.46008
1.103	285.70862
1.1035	434.45435
1.104	647.95532
1.1045	696.29517
1.105	567.99316
1.1055	370.70618
1.106	160.12573
1.1065	-48.13843
1.107	-266.37268
1.1075	-420.45593
1.108	-476.95312
1.1085	-446.94214
1.109	-337.0697
1.1095	-184.79919
1.11	-115.61279
1.1105	-78.85437
1.111	-13.09204
1.1115	14.09912
1.112	117.32483
1.1125	225.98877
1.113	354.79431
1.1135	347.1405
1.114	259.021
1.1145	94.3634
1.115	-90.03296
1.1155	-266.17126
1.116	-413.60779
1.1165	-497.59827
1.117	-542.61475
1.1175	-462.95471
1.118	-244.31763
1.1185	-92.75208
1.119	40.88745
1.1195	165.46326
1.12	193.76221
1.1205	155.29175
1.121	48.13843
1.1215	-72.00623
1.122	-160.32715
1.1225	-219.03992
1.123	-225.28381
1.1235	-179.66309
1.124	-86.70959
1.1245	20.54443
1.125	73.71826
1.1255	86.91101
1.126	44.21082
1.1265	-13.19275
1.127	-35.44922
1.1275	-27.29187
1.128	-21.85364
1.1285	-7.95593
1.129	5.43823
1.1295	16.51611
1.13	28.70178
1.1305	46.12427
1.131	66.06445
1.1315	74.32251
1.132	68.68286
1.1325	77.34375
1.133	128.60413
1.1335	159.21936
1.134	150.45776
1.1345	128.40271
1.135	91.745
1.1355	53.27454
1.136	28.70178
1.1365	-17.22107
1.137	-44.11011
1.1375	-58.10852
1.138	-49.44763
1.1385	-41.18958
1.139	-43.50586
1.1395	-34.44214
1.14	-12.48779
1.1405	-1.3092
1.141	-16.81824
1.1415	-28.70178
1.142	-9.06372
1.1425	39.67896
1.143	177.54822
1.1435	406.35681
1.144	562.25281
1.1445	565.77759
1.145	415.82336
1.1455	213.60168
1.146	9.36584
1.1465	-160.22644
1.147	-267.58118
1.1475	-281.27747
1.148	-244.82117
1.1485	-180.56946
1.149	-142.50183
1.1495	-133.94165
1.15	-123.06519
1.1505	-80.16357
1.151	-65.66162
1.1515	-97.98889
1.152	-148.04077
1.1525	-158.4137
1.153	-119.84253
1.1535	79.05579
1.154	482.59277
1.1545	828.02124
1.155	991.16821
1.1555	936.08093
1.156	682.39746
1.1565	356.20422
1.157	40.68604
1.1575	-225.0824
1.158	-452.58179
1.1585	-647.85461
1.159	-748.36121
1.1595	-731.54297
1.16	-622.77832
1.1605	-373.82812
1.161	-181.27441
1.1615	-122.96448
1.162	-133.03528
1.1625	-194.66858
1.163	-210.47974
1.1635	-180.36804
1.164	-144.6167
1.1645	-132.0282
1.165	-108.86536
1.1655	-87.81738
1.166	-66.87012
1.1665	-41.4917
1.167	11.68213
1.1675	59.82056
1.168	74.62463
1.1685	76.63879
1.169	78.45154
1.1695	101.41296
1.17	111.8866
1.1705	104.63562
1.171	113.90076
1.1715	124.87793
1.172	114.10217
1.1725	100.6073
1.173	76.43738
1.1735	47.13135
1.174	22.15576
1.1745	-13.89771
1.175	-59.92126
1.1755	-73.51685
1.176	-87.81738
1.1765	-79.55933
1.177	-39.07471
1.1775	-21.85364
1.178	2.11487
1.1785	35.04639
1.179	67.17224
1.1795	78.75366
1.18	66.76941
1.1805	17.52319
1.181	-39.67896
1.1815	-63.34534
1.182	-65.56091
1.1825	-20.84656
1.183	23.8678
1.1835	70.49561
1.184	98.69385
1.1845	130.8197
1.185	131.02112
1.1855	168.28308
1.186	335.25696
1.1865	434.75647
1.187	418.8446
1.1875	296.38367
1.188	135.65369
1.1885	5.23682
1.189	-105.03845
1.1895	-181.77795
1.19	-265.86914
1.1905	-359.93042
1.191	-398.40088
1.1915	-359.6283
1.192	-250.2594
1.1925	-119.74182
1.193	-22.96143
1.1935	39.77966
1.194	31.92444
1.1945	51.86462
1.195	102.92358
1.1955	162.74414
1.196	219.54346
1.1965	218.23425
1.197	189.23035
1.1975	123.77014
1.198	52.36816
1.1985	-0.60425
1.199	-46.5271
1.1995	-81.7749
1.2	-83.78906
1.2005	-67.37366
1.201	-11.98425
1.2015	66.76941
1.202	85.60181
1.2025	38.974
1.203	41.59241
1.2035	115.7135
1.204	173.31848
1.2045	264.1571
1.205	302.02332
1.2055	263.04932
1.206	165.86609
1.2065	84.19189
1.207	142.19971
1.2075	184.69849
1.208	174.72839
1.2085	213.90381
1.209	215.0116
1.2095	239.18152
1.21	185.00061
1.2105	57.40356
1.211	-115.20996
1.2115	-299.80774
1.212	-451.87683
1.2125	-527.70996
1.213	-587.83264
1.2135	-635.46753
1.214	-631.13708
1.2145	-554.49829
1.215	-492.76428
1.2155	-399.40796
1.216	-216.22009
1.2165	-55.18799
1.217	43.80798
1.2175	101.31226
1.218	119.4397
1.2185	127.09351
1.219	130.92041
1.2195	113.59863
1.22	103.72925
1.2205	162.2406
1.221	248.84949
1.2215	286.41357
1.222	265.16418
1.2225	226.08948
1.223	182.28149
1.2235	173.31848
1.224	250.36011
1.2245	286.51428
1.225	259.42383
1.2255	259.021
1.226	219.64417
1.2265	110.98022
1.227	-23.8678
1.2275	-173.82202
1.228	-304.74243
1.2285	-393.76831
1.229	-426.69983
1.2295	-415.52124
1.23	-380.47485
1.2305	-251.66931
1.231	-59.31702
1.2315	51.46179
1.232	112.39014
1.2325	140.58838
1.233	132.0282
1.2335	78.75366
1.234	-20.64514
1.2345	-77.948
1.235	-99.70093
1.2355	-68.38074
1.236	-25.68054
1.2365	12.5885
1.237	23.16284
1.2375	13.09204
1.238	0.90637
1.2385	37.7655
1.239	58.61206
1.2395	115.41138
1.24	278.96118
1.2405	380.07202
1.241	392.86194
1.2415	323.87695
1.242	212.99744
1.2425	80.96924
1.243	-47.53418
1.2435	-125.68359
1.244	-94.06128
1.2445	-52.56958
1.245	-62.9425
1.2455	-103.93066
1.246	-126.18713
1.2465	-26.3855
1.247	134.64661
1.2475	183.89282
1.248	137.46643
1.2485	32.83081
1.249	-88.62305
1.2495	-169.29016
1.25	-214.70947
1.2505	-228.60718
1.251	-220.24841
1.2515	-184.29565
1.252	-168.18237
1.2525	-169.59229
1.253	-140.08484
1.2535	-101.31226
1.254	-43.70728
1.2545	4.73328
1.255	39.07471
1.2555	70.79773
1.256	74.82605
1.2565	85.90393
1.257	125.68359
1.2575	223.26965
1.258	272.41516
1.2585	248.84949
1.259	274.02649
1.2595	426.80054
1.26	546.13953
1.2605	524.28589
1.261	392.55981
1.2615	221.55762
1.262	29.91028
1.2625	-192.35229
1.263	-381.88477
1.2635	-515.32288
1.264	-511.8988
1.2645	-445.63293
1.265	-394.67468
1.2655	-322.56775
1.266	-214.30664
1.2665	-105.94482
1.267	-1.00708
1.2675	52.06604
1.268	21.85364
1.2685	-16.51611
1.269	-61.93542
1.2695	-89.328
1.27	-77.54517
1.2705	-42.19666
1.271	-28.50037
1.2715	-13.89771
1.272	-8.35876
1.2725	-16.01257
1.273	-19.83948
1.2735	-23.76709
1.274	-14.30054
1.2745	-11.38
1.275	-19.03381
1.2755	-33.03223
1.276	-15.40833
1.2765	17.52319
1.277	16.71753
1.2775	5.33752
1.278	-3.92761
1.2785	-10.97717
1.279	8.25806
1.2795	29.50745
1.28	52.16675
1.2805	75.02747
1.281	169.99512
1.2815	214.91089
1.282	291.14685
1.2825	394.67468
1.283	438.58337
1.2835	378.05786
1.284	259.82666
1.2845	176.0376
1.285	150.15564
1.2855	84.69543
1.286	-27.29187
1.2865	-111.9873
1.287	-66.56799
1.2875	-12.5885
1.288	23.06213
1.2885	63.64746
1.289	79.35791
1.2895	30.61523
1.29	-79.35791
1.2905	-172.91565
1.291	-257.10754
1.2915	-310.98633
1.292	-305.95093
1.2925	-280.97534
1.293	-205.74646
1.2935	-55.08728
1.294	74.82605
1.2945	136.76147
1.295	219.14062
1.2955	263.75427
1.296	259.42383
1.2965	185.80627
1.297	80.86853
1.2975	-40.48462
1.298	-137.16431
1.2985	-204.23584
1.299	-226.08948
1.2995	-235.85815
1.3	-214.30664
1.3005	-176.64185
1.301	-140.8905
1.3015	-90.5365
1.302	-40.1825
1.3025	-4.43115
1.303	3.7262
1.3035	4.73328
1.304	-5.13611
1.3045	-17.12036
1.305	-37.56409
1.3055	-41.29028
1.306	-36.25488
1.3065	-35.95276
1.307	-41.69312
1.3075	-40.98816
1.308	-36.55701
1.3085	-17.22107
1.309	3.92761
1.3095	22.15576
1.31	60.82764
1.3105	63.54675
1.311	111.38306
1.3115	231.52771
1.312	274.1272
1.3125	238.27515
1.313	161.13281
1.3135	83.88977
1.314	-11.68213
1.3145	-14.50195
1.315	151.46484
1.3155	292.45605
1.316	313.30261
1.3165	246.4325
1.317	124.17297
1.3175	-11.68213
1.318	-122.15881
1.3185	-209.77478
1.319	-277.24915
1.3195	-313.90686
1.32	-298.69995
1.3205	-230.31921
1.321	-96.47827
1.3215	57.10144
1.322	172.41211
1.3225	180.77087
1.323	85.19897
1.3235	-22.05505
1.324	-104.3335
1.3245	-155.09033
1.325	-166.47034
1.3255	-137.46643
1.326	-82.27844
1.3265	-78.25012
1.327	-81.7749
1.3275	-60.52551
1.328	-16.51611
1.3285	12.28638
1.329	40.38391
1.3295	65.66162
1.33	61.83472
1.3305	64.05029
1.331	71.90552
1.3315	79.66003
1.332	84.99756
1.3325	80.4657
1.333	75.32959
1.3335	67.07153
1.334	81.17065
1.3345	81.87561
1.335	78.65295
1.3355	53.37524
1.336	22.96143
1.3365	-16.21399
1.337	-28.29895
1.3375	76.33667
1.338	275.93994
1.3385	398.703
1.339	385.40955
1.3395	272.71729
1.34	162.64343
1.3405	48.94409
1.341	-70.69702
1.3415	-156.50024
1.342	-227.49939
1.3425	-272.11304
1.343	-296.18225
1.3435	-264.86206
1.344	-198.39478
1.3445	-9.97009
1.345	392.15698
1.3455	596.19141
1.346	578.26538
1.3465	456.5094
1.347	272.01233
1.3475	79.55933
1.348	-104.73633
1.3485	-265.76843
1.349	-353.18298
1.3495	-389.23645
1.35	-394.27185
1.3505	-347.1405
1.351	-266.5741
1.3515	-197.3877
1.352	-92.24854
1.3525	17.12036
1.353	11.48071
1.3535	-73.21472
1.354	-127.69775
1.3545	-153.479
1.355	-161.93848
1.3555	-156.39954
1.356	-144.11316
1.3565	-131.12183
1.357	-100.50659
1.3575	-77.44446
1.358	-54.18091
1.3585	-34.03931
1.359	-2.5177
1.3595	32.12585
1.36	65.76233
1.3605	90.83862
1.361	81.37207
1.3615	52.67029
1.362	35.34851
1.3625	38.77258
1.363	36.55701
1.3635	23.46497
1.364	16.11328
1.3645	10.37292
1.365	97.48535
1.3655	194.26575
1.366	214.40735
1.3665	202.22168
1.367	205.74646
1.3675	248.14453
1.368	218.23425
1.3685	140.18555
1.369	54.18091
1.3695	-11.17859
1.37	-63.64746
1.3705	-30.31311
1.371	109.57031
1.3715	269.49463
1.372	361.94458
1.3725	314.00757
1.373	174.52698
1.3735	24.87488
1.374	-122.36023
1.3745	-205.84717
1.375	-269.79675
1.3755	-335.7605
1.376	-375.33875
1.3765	-369.29626
1.377	-282.58667
1.3775	-134.84802
1.378	19.13452
1.3785	52.56958
1.379	23.56567
1.3795	-0.70496
1.38	-20.84656
1.3805	-23.26355
1.381	-23.46497
1.3815	-20.34302
1.382	-2.71912
1.3825	18.53027
1.383	35.34851
1.3835	71.7041
1.384	94.2627
1.3845	85.90393
1.385	50.95825
1.3855	16.71753
1.386	88.22021
1.3865	168.78662
1.387	169.89441
1.3875	112.59155
1.388	45.2179
1.3885	9.16443
1.389	-48.74268
1.3895	-55.79224
1.39	62.33826
1.3905	136.76147
1.391	149.55139
1.3915	107.95898
1.392	34.24072
1.3925	-45.41931
1.393	-80.66711
1.3935	-72.30835
1.394	-68.07861
1.3945	-112.18872
1.395	-148.3429
1.3955	-176.84326
1.396	-176.0376
1.3965	-123.16589
1.397	-76.53809
1.3975	-21.55151
1.398	155.69458
1.3985	246.4325
1.399	253.17993
1.3995	199.20044
1.4	96.7804
1.4005	-6.2439
1.401	-111.48376
1.4015	-146.63086
1.402	-104.03137
1.4025	-72.71118
1.403	-62.23755
1.4035	-27.79541
1.404	28.50037
1.4045	36.95984
1.405	63.54675
1.4055	31.01807
1.406	-75.53101
1.4065	-117.02271
1.407	-125.07935
1.4075	-96.8811
1.408	-29.60815
1.4085	22.96143
1.409	50.05188
1.4095	51.46179
1.41	44.21082
1.4105	9.36584
1.411	-30.11169
1.4115	-55.3894
1.412	-74.82605
1.4125	-81.57349
1.413	-74.72534
1.4135	-47.13135
1.414	-16.71753
1.4145	22.76001
1.415	47.63489
1.4155	92.24854
1.416	129.5105
1.4165	106.34766
1.417	55.08728
1.4175	20.24231
1.418	-3.92761
1.4185	-21.85364
1.419	-31.52161
1.4195	-39.88037
1.42	15.40833
1.4205	217.32788
1.421	338.2782
1.4215	321.25854
1.422	254.69055
1.4225	196.98486
1.423	107.85828
1.4235	60.4248
1.424	51.86462
1.4245	-18.32886
1.425	-73.51685
1.4255	-96.27686
1.426	-108.76465
1.4265	-113.69934
1.427	-90.5365
1.4275	-77.24304
1.428	-128.90625
1.4285	-198.99902
1.429	-241.90063
1.4295	-247.03674
1.43	-240.89355
1.4305	-232.43408
1.431	-197.08557
1.4315	-157.30591
1.432	-92.75208
1.4325	7.35168
1.433	87.21313
1.4335	153.88184
1.434	171.10291
1.4345	137.46643
1.435	87.21313
1.4355	70.99915
1.436	59.1156
1.4365	48.94409
1.437	42.59949
1.4375	27.79541
1.438	54.88586
1.4385	100.30518
1.439	231.32629
1.4395	312.39624
1.44	311.08704
1.4405	265.76843
1.441	166.47034
1.4415	69.79065
1.442	-19.33594
1.4425	-81.37207
1.443	-104.93774
1.4435	-120.64819
1.444	-127.79846
1.4445	-105.94482
1.445	-84.49402
1.4455	-50.75684
1.446	-18.32886
1.4465	-22.76001
1.447	-44.41223
1.4475	-71.30127
1.448	15.40833
1.4485	111.28235
1.449	142.30042
1.4495	115.61279
1.45	71.20056
1.4505	-4.83398
1.451	-78.14941
1.4515	-121.75598
1.452	-60.62622
1.4525	23.8678
1.453	48.33984
1.4535	54.78516
1.454	57.30286
1.4545	93.0542
1.455	125.28076
1.4555	97.58606
1.456	52.771
1.4565	-9.26514
1.457	-63.34534
1.4575	-127.79846
1.458	-184.29565
1.4585	-213.40027
1.459	-202.72522
1.4595	-165.36255
1.46	-121.45386
1.4605	-90.73792
1.461	-62.43896
1.4615	-57.60498
1.462	-38.16833
1.4625	1.3092
1.463	29.80957
1.4635	56.19507
1.464	198.19336
1.4645	352.37732
1.465	377.45361
1.4655	320.05005
1.466	235.1532
1.4665	178.05176
1.467	136.05652
1.4675	90.73792
1.468	16.71753
1.4685	-64.05029
1.469	-148.14148
1.4695	-220.95337
1.47	-275.53711
1.4705	-304.54102
1.471	-308.26721
1.4715	-235.55603
1.472	-137.26501
1.4725	-74.2218
1.473	14.30054
1.4735	112.49084
1.474	92.04712
1.4745	-0.30212
1.475	-28.19824
1.4755	-40.78674
1.476	-55.18799
1.4765	-72.40906
1.477	-64.25171
1.4775	-57.9071
1.478	-53.27454
1.4785	-46.5271
1.479	-30.61523
1.4795	-18.02673
1.48	-1.3092
1.4805	22.25647
1.481	34.84497
1.4815	24.57275
1.482	22.55859
1.4825	31.21948
1.483	59.41772
1.4835	77.24304
1.484	143.20679
1.4845	183.99353
1.485	169.59229
1.4855	137.76855
1.486	95.97473
1.4865	73.71826
1.487	55.2887
1.4875	28.09753
1.488	13.69629
1.4885	-3.7262
1.489	-37.96692
1.4895	-63.74817
1.49	-70.19348
1.4905	-64.151
1.491	-27.6947
1.4915	-4.33044
1.492	15.60974
1.4925	10.77576
1.493	-1.81274
1.4935	-9.16443
1.494	1.00708
1.4945	4.43115
1.495	2.81982
1.4955	-6.94885
1.496	-32.7301
1.4965	-44.71436
1.497	-56.49719
1.4975	-63.74817
1.498	-78.45154
1.4985	-89.22729
1.499	-64.25171
1.4995	-32.7301
1.5	1.81274
1.5005	38.06763
1.501	76.7395
1.5015	103.02429
1.502	107.15332
1.5025	78.25012
1.503	51.15967
1.5035	22.45789
1.504	-8.66089
1.5045	-7.85522
1.505	22.25647
1.5055	38.974
1.506	38.974
1.5065	43.30444
1.507	80.36499
1.5075	209.77478
1.508	297.18933
1.5085	299.40491
1.509	225.58594
1.5095	121.25244
1.51	35.85205
1.5105	33.03223
1.511	24.67346
1.5115	18.12744
1.512	-26.78833
1.5125	-74.62463
1.513	-102.42004
1.5135	-145.8252
1.514	-134.64661
1.5145	-134.34448
1.515	-164.05334
1.5155	-165.06042
1.516	29.00391
1.5165	232.53479
1.517	348.65112
1.5175	354.19006
1.518	289.63623
1.5185	154.48608
1.519	-9.56726
1.5195	-151.66626
1.52	-232.23267
1.5205	-281.47888
1.521	-290.5426
1.5215	-261.74011
1.522	-233.03833
1.5225	-177.64893
1.523	-120.95032
1.5235	-124.17297
1.524	-174.32556
1.5245	-216.72363
1.525	-194.9707
1.5255	-135.04944
1.526	-89.52942
1.5265	-57.40356
1.527	-39.57825
1.5275	-30.81665
1.528	24.97559
1.5285	125.18005
1.529	132.63245
1.5295	119.13757
1.53	95.37048
1.5305	75.32959
1.531	77.34375
1.5315	85.5011
1.532	97.38464
1.5325	83.28552
1.533	65.3595
1.5335	49.74976
1.534	26.68762
1.5345	14.80408
1.535	0.10071
1.5355	-7.25098
1.536	7.95593
1.5365	10.67505
1.537	-2.71912
1.5375	-21.55151
1.538	-35.85205
1.5385	-20.04089
1.539	6.74744
1.5395	16.71753
1.54	35.54993
1.5405	63.14392
1.541	68.78357
1.5415	56.69861
1.542	41.18958
1.5425	59.21631
1.543	75.73242
1.5435	61.73401
1.544	32.83081
1.5445	4.43115
1.545	-17.92603
1.5455	-39.77966
1.546	-53.97949
1.5465	-61.73401
1.547	-53.17383
1.5475	-36.15417
1.548	-13.09204
1.5485	8.56018
1.549	24.87488
1.5495	46.62781
1.55	60.02197
1.5505	50.45471
1.551	46.32568
1.5515	25.57983
1.552	-4.02832
1.5525	-0.80566
1.553	19.33594
1.5535	41.99524
1.554	56.90002
1.5545	73.91968
1.555	73.21472
1.5555	68.17932
1.556	76.7395
1.5565	74.72534
1.557	55.08728
1.5575	18.02673
1.558	-8.05664
1.5585	7.95593
1.559	61.23047
1.5595	135.25085
1.56	181.47583
1.5605	168.58521
1.561	118.2312
1.5615	59.01489
1.562	-23.56567
1.5625	-97.18323
1.563	-150.75989
1.5635	-188.42468
1.564	-208.36487
1.5645	-224.98169
1.565	-237.6709
1.5655	-216.72363
1.566	-157.70874
1.5665	-70.09277
1.567	30.2124
1.5675	79.76074
1.568	136.15723
1.5685	166.0675
1.569	155.9967
1.5695	111.8866
1.57	68.58215
1.5705	36.85913
1.571	10.47363
1.5715	-1.40991
1.572	-0.10071
1.5725	28.80249
1.573	38.87329
1.5735	22.6593
1.574	-0.20142
1.5745	-12.89062
1.575	-25.27771
1.5755	-51.76392
1.576	-76.7395
1.5765	-75.02747
1.577	-73.31543
1.5775	-53.77808
1.578	-35.34851
1.5785	-13.29346
1.579	-6.2439
1.5795	-2.61841
1.58	-1.71204
1.5805	9.36584
1.581	27.19116
1.5815	94.16199
1.582	249.75586
1.5825	371.41113
1.583	382.58972
1.5835	331.02722
1.584	263.15002
1.5845	147.94006
1.585	23.56567
1.5855	-87.41455
1.586	-161.33423
1.5865	-201.51672
1.587	-234.24683
1.5875	-247.23816
1.588	-228.40576
1.5885	-192.65442
1.589	-150.9613
1.5895	-100.80872
1.59	-81.06995
1.5905	-84.69543
1.591	-87.41455
1.5915	-66.76941
1.592	-40.58533
1.5925	-33.83789
1.593	-4.22974
1.5935	185.30273
1.594	319.4458
1.5945	354.08936
1.595	304.13818
1.5955	184.8999
1.596	39.57825
1.5965	-34.14001
1.597	-50.15259
1.5975	-91.04004
1.598	-148.04077
1.5985	-207.5592
1.599	-239.58435
1.5995	-242.7063
1.6	-187.61902
1.6005	-83.99048
1.601	-2.61841
1.6015	32.32727
1.602	-1.3092
1.6025	-12.48779
1.603	33.03223
1.6035	93.96057
1.604	123.56873
1.6045	108.56323
1.605	80.36499
1.6055	66.06445
1.606	54.68445
1.6065	43.70728
1.607	31.21948
1.6075	13.09204
1.608	-2.71912
1.6085	-25.177
1.609	-40.58533
1.6095	-38.36975
1.61	-27.49329
1.6105	-18.22815
1.611	-11.38
1.6115	-15.60974
1.612	-7.15027
1.6125	-6.44531
1.613	-4.53186
1.6135	2.41699
1.614	19.03381
1.6145	31.92444
1.615	60.52551
1.6155	74.2218
1.616	64.95667
1.6165	45.41931
1.617	21.24939
1.6175	2.41699
1.618	-13.89771
1.6185	2.61841
1.619	42.29736
1.6195	77.948
1.62	71.40198
1.6205	50.85754
1.621	38.16833
1.6215	37.86621
1.622	19.03381
1.6225	0.40283
1.623	-33.9386
1.6235	-62.8418
1.624	-30.61523
1.6245	8.66089
1.625	9.66797
1.6255	-8.66089
1.626	-40.68604
1.6265	-90.33508
1.627	-128.40271
1.6275	-133.84094
1.628	-76.94092
1.6285	8.96301
1.629	46.92993
1.6295	48.54126
1.63	46.92993
1.6305	60.22339
1.631	46.12427
1.6315	19.53735
1.632	-27.09045
1.6325	-56.19507
1.633	-80.16357
1.6335	-88.82446
1.634	-80.86853
1.6345	-67.07153
1.635	-34.94568
1.6355	3.02124
1.636	16.01257
1.6365	17.42249
1.637	12.78992
1.6375	11.07788
1.638	4.83398
1.6385	-4.73328
1.639	7.95593
1.6395	49.95117
1.64	89.63013
1.6405	110.77881
1.641	129.71191
1.6415	128.70483
1.642	116.922
1.6425	138.97705
1.643	164.45618
1.6435	163.5498
1.644	137.56714
1.6445	93.15491
1.645	41.29028
1.6455	-18.8324
1.646	-61.33118
1.6465	-110.57739
1.647	-143.20679
1.6475	-165.76538
1.648	-169.7937
1.6485	-146.12732
1.649	-94.66553
1.6495	-0.80566
1.65	82.68127
1.6505	123.56873
1.651	166.77246
1.6515	200.50964
1.652	201.2146
1.6525	160.83069
1.653	114.00146
1.6535	53.87878
1.654	-16.51611
1.6545	-73.11401
1.655	-104.3335
1.6555	-126.48926
1.656	-132.53174
1.6565	-118.73474
1.657	-92.34924
1.6575	-58.10852
1.658	-14.70337
1.6585	31.11877
1.659	5.23682
1.6595	-37.96692
1.66	-38.36975
1.6605	-9.56726
1.661	-11.48071
1.6615	-29.20532
1.662	-42.59949
1.6625	-36.35559
1.663	-30.81665
1.6635	-3.8269
1.664	27.39258
1.6645	48.13843
1.665	70.99915
1.6655	71.7041
1.666	77.34375
1.6665	79.76074
1.667	80.4657
1.6675	127.39563
1.668	191.1438
1.6685	194.36646
1.669	157.80945
1.6695	78.55225
1.67	3.7262
1.6705	-109.87244
1.671	-190.03601
1.6715	-228.40576
1.672	-250.05798
1.6725	-224.78027
1.673	-161.73706
1.6735	-74.32251
1.674	-33.63647
1.6745	-10.67505
1.675	-14.30054
1.6755	-36.55701
1.676	-52.26746
1.6765	-42.09595
1.677	-17.01965
1.6775	11.17859
1.678	40.2832
1.6785	49.95117
1.679	52.8717
1.6795	54.38232
1.68	45.72144
1.6805	31.62231
1.681	31.82373
1.6815	34.64355
1.682	67.8772
1.6825	84.09119
1.683	95.37048
1.6835	76.33667
1.684	53.77808
1.6845	31.4209
1.685	4.12903
1.6855	-9.26514
1.686	-27.6947
1.6865	-34.03931
1.687	-51.76392
1.6875	-45.92285
1.688	-24.06921
1.6885	-11.88354
1.689	-14.50195
1.6895	-20.64514
1.69	-35.85205
1.6905	-55.69153
1.691	-64.35242
1.6915	-46.22498
1.692	-30.61523
1.6925	-34.34143
1.693	-12.08496
1.6935	-5.63965
1.694	-5.23682
1.6945	13.99841
1.695	34.64355
1.6955	26.98975
1.696	11.2793
1.6965	-5.53894
1.697	-37.56409
1.6975	-59.31702
1.698	-45.01648
1.6985	-24.77417
1.699	5.33752
1.6995	27.19116
1.7	43.20374
1.7005	51.66321
1.701	58.51135
1.7015	51.46179
1.702	31.21948
1.7025	34.84497
1.703	44.51294
1.7035	37.7655
1.704	21.95435
1.7045	14.09912
1.705	10.77576
1.7055	12.18567
1.706	22.45789
1.7065	33.03223
1.707	44.11011
1.7075	36.55701
1.708	21.45081
1.7085	10.47363
1.709	7.95593
1.7095	12.68921
1.71	26.08337
1.7105	38.47046
1.711	50.05188
1.7115	51.46179
1.712	37.66479
1.7125	25.88196
1.713	13.09204
1.7135	1.3092
1.714	-5.33752
1.7145	-21.04797
1.715	-39.07471
1.7155	-62.9425
1.716	-28.50037
1.7165	33.63647
1.717	65.15808
1.7175	53.67737
1.718	43.60657
1.7185	80.16357
1.719	96.57898
1.7195	77.64587
1.72	38.16833
1.7205	-9.26514
1.721	-36.85913
1.7215	-4.02832
1.722	44.81506
1.7225	85.5011
1.723	57.10144
1.7235	6.74744
1.724	-30.71594
1.7245	-64.151
1.725	-116.922
1.7255	-140.58838
1.726	-142.40112
1.7265	-152.06909
1.727	-150.35706
1.7275	-123.16589
1.728	-63.54675
1.7285	-24.67346
1.729	-2.01416
1.7295	23.26355
1.73	26.78833
1.7305	35.34851
1.731	48.13843
1.7315	51.66321
1.732	60.92834
1.7325	74.52393
1.733	77.24304
1.7335	72.10693
1.734	52.67029
1.7345	34.14001
1.735	22.86072
1.7355	7.95593
1.736	2.11487
1.7365	-5.33752
1.737	15.71045
1.7375	10.17151
1.738	-14.19983
1.7385	-46.92993
1.739	-60.4248
1.7395	-29.80957
1.74	22.55859
1.7405	55.18799
1.741	73.31543
1.7415	77.34375
1.742	65.66162
1.7425	41.39099
1.743	-2.81982
1.7435	-7.45239
1.744	-10.87646
1.7445	-26.78833
1.745	-50.65613
1.7455	-76.63879
1.746	-89.42871
1.7465	-81.7749
1.747	-56.79932
1.7475	-47.53418
1.748	-55.99365
1.7485	-56.79932
1.749	-32.22656
1.7495	36.15417
1.75	124.17297
1.7505	147.94006
1.751	125.7843
1.7515	92.65137
1.752	51.76392
1.7525	22.15576
1.753	7.15027
1.7535	-7.35168
1.754	-15.1062
1.7545	-27.39258
1.755	-42.49878
1.7555	-38.16833
1.756	-12.28638
1.7565	0.20142
1.757	5.0354
1.7575	5.0354
1.758	-21.75293
1.7585	-38.87329
1.759	-48.84338
1.7595	-17.92603
1.76	12.78992
1.7605	21.3501
1.761	3.02124
1.7615	-5.33752
1.762	8.15735
1.7625	-19.73877
1.763	-40.38391
1.7635	-39.37683
1.764	-48.84338
1.7645	-37.46338
1.765	-15.20691
1.7655	2.31628
1.766	29.20532
1.7665	56.5979
1.767	54.78516
1.7675	37.06055
1.768	-0.90637
1.7685	-27.59399
1.769	-14.80408
1.7695	8.56018
1.77	49.44763
1.7705	83.99048
1.771	98.49243
1.7715	84.19189
1.772	70.19348
1.7725	52.97241
1.773	29.00391
1.7735	-4.63257
1.774	-43.00232
1.7745	-79.86145
1.775	-53.57666
1.7755	25.37842
1.776	84.09119
1.7765	88.11951
1.777	34.03931
1.7775	-17.32178
1.778	-77.84729
1.7785	-75.02747
1.779	-29.80957
1.7795	52.97241
1.78	110.27527
1.7805	113.39722
1.781	133.74023
1.7815	206.45142
1.782	256.5033
1.7825	261.6394
1.783	182.78503
1.7835	60.72693
1.784	-84.09119
1.7845	-181.47583
1.785	-209.27124
1.7855	-222.16187
1.786	-224.88098
1.7865	-218.43567
1.787	-207.86133
1.7875	-175.43335
1.788	-108.46252
1.7885	-32.12585
1.789	12.08496
1.7895	23.16284
1.79	17.52319
1.7905	9.46655
1.791	19.53735
1.7915	24.97559
1.792	39.47754
1.7925	40.68604
1.793	43.00232
1.7935	35.04639
1.794	25.47913
1.7945	28.29895
1.795	25.47913
1.7955	22.96143
1.796	15.50903
1.7965	14.70337
1.797	4.83398
1.7975	-12.38708
1.798	-26.98975
1.7985	-36.65771
1.799	-31.11877
1.7995	-25.78125
1.8	2.31628
1.8005	15.20691
1.801	32.32727
1.8015	22.35718
1.802	8.45947
1.8025	-20.04089
1.803	-38.77258
1.8035	-57.9071
1.804	-56.79932
1.8045	-49.74976
1.805	-38.36975
1.8055	-28.39966
1.806	-24.27063
1.8065	-31.21948
1.807	-23.8678
1.8075	-0.60425
1.808	41.18958
1.8085	86.91101
1.809	106.44836
1.8095	82.88269
1.81	66.16516
1.8105	59.31702
1.811	50.95825
1.8115	39.88037
1.812	24.47205
1.8125	12.08496
1.813	12.5885
1.8135	7.25098
1.814	1.40991
1.8145	1.3092
1.815	26.68762
1.8155	43.80798
1.816	44.31152
1.8165	35.04639
1.817	23.66638
1.8175	12.48779
1.818	-0.70496
1.8185	-20.04089
1.819	-42.39807
1.8195	-58.20923
1.82	-62.9425
1.8205	-41.29028
1.821	-13.49487
1.8215	18.93311
1.822	52.97241
1.8225	66.16516
1.823	85.80322
1.8235	108.76465
1.824	94.3634
1.8245	52.8717
1.825	9.26514
1.8255	-13.39417
1.826	-12.5885
1.8265	-4.53186
1.827	-10.67505
1.8275	-19.83948
1.828	-18.8324
1.8285	-28.50037
1.829	-66.56799
1.8295	-94.86694
1.83	-100.70801
1.8305	-78.14941
1.831	-71.60339
1.8315	-85.19897
1.832	-89.52942
1.8325	-50.85754
1.833	-43.10303
1.8335	-64.25171
1.834	-65.25879
1.8345	-58.10852
1.835	-56.29578
1.8355	-17.22107
1.836	87.21313
1.8365	161.93848
1.837	227.19727
1.8375	447.94922
1.838	592.16309
1.8385	558.4259
1.839	444.52515
1.8395	266.47339
1.84	79.05579
1.8405	-98.29102
1.841	-194.9707
1.8415	-235.55603
1.842	-256.30188
1.8425	-279.56543
1.843	-280.97534
1.8435	-267.37976
1.844	-240.1886
1.8445	-179.8645
1.845	-115.10925
1.8455	-48.23914
1.846	-26.18408
1.8465	-52.16675
1.847	-73.61755
1.8475	-70.19348
1.848	-62.74109
1.8485	-45.72144
1.849	-13.39417
1.8495	20.24231
1.85	42.09595
1.8505	40.58533
1.851	27.99683
1.8515	18.32886
1.852	26.18408
1.8525	45.3186
1.853	71.40198
1.8535	77.34375
1.854	39.98108
1.8545	9.86938
1.855	-3.22266
1.8555	-7.65381
1.856	-16.61682
1.8565	-20.64514
1.857	-26.18408
1.8575	-27.09045
1.858	17.12036
1.8585	50.05188
1.859	54.48303
1.8595	52.67029
1.86	34.84497
1.8605	17.22107
1.861	-0.90637
1.8615	-14.30054
1.862	-20.84656
1.8625	-30.2124
1.863	-44.71436
1.8635	-44.91577
1.864	-20.74585
1.8645	5.74036
1.865	30.31311
1.8655	46.82922
1.866	56.29578
1.8665	61.33118
1.867	55.79224
1.8675	40.1825
1.868	16.91895
1.8685	24.16992
1.869	32.42798
1.8695	38.26904
1.87	57.9071
1.8705	52.26746
1.871	46.42639
1.8715	25.47913
1.872	9.16443
1.8725	-11.78284
1.873	-25.27771
1.8735	-25.177
1.874	-6.3446
1.8745	13.69629
1.875	24.77417
1.8755	41.79382
1.876	41.69312
1.8765	35.65063
1.877	29.91028
1.8775	40.58533
1.878	35.65063
1.8785	19.03381
1.879	6.94885
1.8795	2.21558
1.88	12.78992
1.8805	16.61682
1.881	-0.60425
1.8815	-23.8678
1.882	-27.39258
1.8825	-21.95435
1.883	-35.65063
1.8835	-51.36108
1.884	-67.67578
1.8845	-82.88269
1.885	-100.30518
1.8855	-91.44287
1.886	-63.04321
1.8865	-25.47913
1.887	16.3147
1.8875	53.27454
1.888	46.12427
1.8885	18.22815
1.889	10.0708
1.8895	27.29187
1.89	51.66321
1.8905	77.54517
1.891	104.13208
1.8915	130.21545
1.892	117.02271
1.8925	81.97632
1.893	30.01099
1.8935	-12.08496
1.894	-37.86621
1.8945	-67.8772
1.895	-114.90784
1.8955	-153.17688
1.896	-166.67175
1.8965	-174.12415
1.897	-109.97314
1.8975	32.52869
1.898	136.35864
1.8985	200.71106
1.899	174.8291
1.8995	107.65686
1.9	46.92993
1.9005	9.56726
1.901	42.09595
1.9015	48.54126
1.902	-2.41699
1.9025	-71.09985
1.903	-127.49634
1.9035	-99.60022
1.904	-27.29187
1.9045	14.90479
1.905	-9.16443
1.9055	-41.89453
1.906	-21.85364
1.9065	0.10071
1.907	9.86938
1.9075	10.57434
1.908	25.57983
1.9085	30.31311
1.909	22.55859
1.9095	31.32019
1.91	10.0708
1.9105	-3.42407
1.911	-25.57983
1.9115	7.65381
1.912	31.52161
1.9125	34.03931
1.913	21.65222
1.9135	4.53186
1.914	7.45239
1.9145	4.22974
1.915	-4.33044
1.9155	-14.70337
1.916	-24.27063
1.9165	-37.46338
1.917	-28.09753
1.9175	-18.32886
1.918	-17.52319
1.9185	-19.53735
1.919	-6.84814
1.9195	5.94177
1.92	14.70337
1.9205	24.87488
1.921	48.33984
1.9215	57.40356
1.922	37.86621
1.9225	21.24939
1.923	22.55859
1.9235	41.18958
1.924	51.5625
1.9245	49.44763
1.925	23.76709
1.9255	-1.00708
1.926	-30.31311
1.9265	-30.61523
1.927	-24.16992
1.9275	-16.51611
1.928	-0.90637
1.9285	21.45081
1.929	32.62939
1.9295	48.74268
1.93	73.31543
1.9305	88.32092
1.931	73.31543
1.9315	39.27612
1.932	3.42407
1.9325	-24.87488
1.933	-48.54126
1.9335	-77.54517
1.934	-103.32642
1.9345	-122.76306
1.935	-130.11475
1.9355	-141.69617
1.936	-152.37122
1.9365	-116.72058
1.937	-51.46179
1.9375	0.50354
1.938	48.94409
1.9385	77.44446
1.939	97.38464
1.9395	106.04553
1.94	98.69385
1.9405	106.24695
1.941	110.07385
1.9415	107.65686
1.942	121.85669
1.9425	124.87793
1.943	111.28235
1.9435	99.19739
1.944	91.04004
1.9445	79.96216
1.945	64.05029
1.9455	41.18958
1.946	53.37524
1.9465	85.09827
1.947	74.82605
1.9475	36.65771
1.948	-22.25647
1.9485	-78.65295
1.949	-143.60962
1.9495	-200.0061
1.95	-233.03833
1.9505	-242.50488
1.951	-230.21851
1.9515	-214.10522
1.952	-184.69849
1.9525	-127.39563
1.953	-56.90002
1.9535	15.40833
1.954	53.17383
1.9545	54.78516
1.955	52.56958
1.9555	49.0448
1.956	49.64905
1.9565	73.41614
1.957	100.6073
1.9575	118.13049
1.958	115.61279
1.9585	100.30518
1.959	67.27295
1.9595	53.27454
1.96	59.31702
1.9605	88.42163
1.961	107.15332
1.9615	112.28943
1.962	113.59863
1.9625	103.72925
1.963	74.02039
1.9635	53.47595
1.964	54.0802
1.9645	-10.47363
1.965	-88.82446
1.9655	-111.78589
1.966	-101.71509
1.9665	-44.51294
1.967	13.29346
1.9675	65.46021
1.968	82.9834
1.9685	67.97791
1.969	40.48462
1.9695	29.30603
1.97	39.57825
1.9705	44.51294
1.971	52.67029
1.9715	56.09436
1.972	62.74109
1.9725	55.79224
1.973	10.47363
1.9735	-52.06604
1.974	-119.23828
1.9745	-173.11707
1.975	-207.86133
1.9755	-214.10522
1.976	-203.22876
1.9765	-189.83459
1.977	-156.50024
1.9775	-114.20288
1.978	-71.7041
1.9785	34.64355
1.979	151.66626
1.9795	205.14221
1.98	186.81335
1.9805	127.29492
1.981	62.33826
1.9815	-24.87488
1.982	-117.12341
1.9825	-163.75122
1.983	-168.98804
1.9835	-165.06042
1.984	-133.94165
1.9845	-93.55774
1.985	-39.47754
1.9855	30.01099
1.986	102.11792
1.9865	129.5105
1.987	102.31934
1.9875	46.32568
1.988	21.45081
1.9885	25.37842
1.989	4.73328
1.9895	-28.80249
1.99	-54.28162
1.9905	-48.23914
1.991	56.79932
1.9915	162.74414
1.992	239.68506
1.9925	261.23657
1.993	247.84241
1.9935	283.49304
1.994	273.12012
1.9945	230.72205
1.995	131.62537
1.9955	37.26196
1.996	-32.83081
1.9965	-69.1864
1.997	-94.06128
1.9975	-101.9165
1.998	-74.62463
1.9985	-25.78125
1.999	13.49487
1.9995	-1.71204
2	-60.12268
2.0005	-109.06677
2.001	-138.27209
2.0015	-133.03528
2.002	-132.53174
2.0025	-109.26819
2.003	-97.58606
2.0035	-84.89685
2.004	-46.82922
2.0045	-0.60425
2.005	-10.0708
2.0055	-19.73877
2.006	-15.81116
2.0065	-49.24622
2.007	-64.95667
2.0075	-57.60498
2.008	-47.23206
2.0085	-28.29895
2.009	-18.8324
2.0095	-20.1416
2.01	-19.13452
2.0105	-23.66638
2.011	-17.72461
2.0115	-2.21558
2.012	4.93469
2.0125	17.92603
2.013	34.94568
2.0135	59.41772
2.014	49.44763
2.0145	13.19275
2.015	-12.28638
2.0155	-15.1062
2.016	-23.26355
2.0165	-20.24231
2.017	16.51611
2.0175	69.89136
2.018	94.2627
2.0185	86.10535
2.019	72.00623
2.0195	125.38147
2.02	179.8645
2.0205	193.76221
2.021	163.14697
2.0215	107.85828
2.022	60.82764
2.0225	7.04956
2.023	-60.3241
2.0235	-111.78589
2.024	-146.83228
2.0245	-175.43335
2.025	-163.5498
2.0255	-110.98022
2.026	-96.8811
2.0265	-90.23438
2.027	-59.01489
2.0275	-19.43665
2.028	39.77966
2.0285	114.60571
2.029	156.60095
2.0295	170.19653
2.03	172.41211
2.0305	145.01953
2.031	101.21155
2.0315	57.70569
2.032	33.43506
2.0325	4.43115
2.033	-13.49487
2.0335	-38.974
2.034	-56.09436
2.0345	-52.36816
2.035	-59.61914
2.0355	-59.82056
2.036	-39.47754
2.0365	0.60425
2.037	30.2124
2.0375	24.87488
2.038	16.01257
2.0385	-1.91345
2.039	-27.29187
2.0395	-35.04639
2.04	-36.15417
2.0405	-8.56018
2.041	33.53577
2.0415	44.11011
2.042	64.75525
2.0425	98.79456
2.043	95.16907
2.0435	72.71118
2.044	78.04871
2.0445	76.84021
2.045	41.08887
2.0455	13.59558
2.046	-16.3147
2.0465	-63.04321
2.047	-82.17773
2.0475	-76.23596
2.048	-40.38391
2.0485	-17.6239
2.049	8.25806
2.0495	32.62939
2.05	36.15417
2.0505	52.771
2.051	121.55457
2.0515	172.10999
2.052	152.1698
2.0525	106.54907
2.053	148.14148
2.0535	166.87317
2.054	147.73865
2.0545	69.58923
2.055	0.20142
2.0555	36.95984
2.056	98.49243
2.0565	103.72925
2.057	64.55383
2.0575	18.53027
2.058	-74.72534
2.0585	-176.94397
2.059	-264.96277
2.0595	-308.0658
2.06	-333.34351
2.0605	-322.26562
2.061	-311.18774
2.0615	-264.66064
2.062	-200.30823
2.0625	-141.69617
2.063	-57.10144
2.0635	3.32336
2.064	39.07471
2.0645	71.20056
2.065	60.3241
2.0655	42.59949
2.066	55.3894
2.0665	55.79224
2.067	51.36108
2.0675	35.04639
2.068	19.94019
2.0685	4.22974
2.069	7.25098
2.0695	23.26355
2.07	92.24854
2.0705	136.76147
2.071	137.76855
2.0715	97.88818
2.072	59.82056
2.0725	25.78125
2.073	-17.12036
2.0735	-66.06445
2.074	-91.14075
2.0745	-104.63562
2.075	-109.3689
2.0755	-85.70251
2.076	-22.6593
2.0765	43.70728
2.077	77.44446
2.0775	60.12268
2.078	-0.70496
2.0785	-13.19275
2.079	-15.1062
2.0795	-3.12195
2.08	19.43665
2.0805	87.41455
2.081	150.35706
2.0815	164.65759
2.082	111.68518
2.0825	36.95984
2.083	-13.59558
2.0835	-67.77649
2.084	-104.93774
2.0845	17.32178
2.085	200.50964
2.0855	294.67163
2.086	303.43323
2.0865	229.51355
2.087	168.58521
2.0875	106.14624
2.088	38.47046
2.0885	-36.65771
2.089	-103.02429
2.0895	-193.96362
2.09	-239.58435
2.0905	-227.6001
2.091	-201.81885
2.0915	-150.15564
2.092	-69.79065
2.0925	-35.34851
2.093	-51.66321
2.0935	-56.5979
2.094	-46.62781
2.0945	-44.91577
2.095	-36.15417
2.0955	37.66479
2.096	79.66003
2.0965	79.96216
2.097	53.07312
2.0975	29.10461
2.098	-11.68213
2.0985	-58.10852
2.099	-84.79614
2.0995	-86.40747
2.1	-93.65845
2.1005	-116.72058
2.101	-116.51917
2.1015	-26.98975
2.102	47.53418
2.1025	202.72522
2.103	362.146
2.1035	378.35999
2.104	291.14685
2.1045	149.85352
2.105	11.98425
2.1055	-93.45703
2.106	-133.74023
2.1065	-154.98962
2.107	-156.09741
2.1075	-141.59546
2.108	-145.9259
2.1085	-114.60571
2.109	-108.66394
2.1095	-99.80164
2.11	-77.24304
2.1105	-46.42639
2.111	-38.16833
2.1115	-8.15735
2.112	14.09912
2.1125	143.20679
2.113	343.21289
2.1135	406.1554
2.114	340.29236
2.1145	232.83691
2.115	130.21545
2.1155	12.5885
2.116	-95.06836
2.1165	-193.05725
2.117	-254.99268
2.1175	-289.93835
2.118	-303.73535
2.1185	-270.09888
2.119	-183.28857
2.1195	-93.45703
2.12	-24.06921
2.1205	49.85046
2.121	185.80627
2.1215	312.39624
2.122	322.66846
2.1225	275.63782
2.123	222.76611
2.1235	210.47974
2.124	267.07764
2.1245	226.19019
2.125	147.43652
2.1255	22.15576
2.126	-137.56714
2.1265	-313.1012
2.127	-445.83435
2.1275	-476.95312
2.128	-264.66064
2.1285	-69.1864
2.129	32.7301
2.1295	87.41455
2.13	92.75208
2.1305	59.41772
2.131	205.84717
2.1315	339.68811
2.132	321.15784
2.1325	222.46399
2.133	128.80554
2.1335	69.38782
2.134	-38.57117
2.1345	-156.70166
2.135	-239.08081
2.1355	-323.172
2.136	-362.54883
2.1365	-388.22937
2.137	-414.91699
2.1375	-389.94141
2.138	-285.70862
2.1385	-95.16907
2.139	62.64038
2.1395	74.82605
2.14	1.40991
2.1405	-78.85437
2.141	-125.58289
2.1415	-90.33508
2.142	-8.15735
2.1425	54.68445
2.143	86.60889
2.1435	103.62854
2.144	118.73474
2.1445	220.55054
2.145	314.51111
2.1455	340.89661
2.146	328.61023
2.1465	300.10986
2.147	222.76611
2.1475	146.32874
2.148	211.88965
2.1485	367.48352
2.149	455.40161
2.1495	403.23486
2.15	281.17676
2.1505	114.90784
2.151	-79.05579
2.1515	-235.55603
2.152	-323.172
2.1525	-383.79822
2.153	-419.65027
2.1535	-398.30017
2.154	-324.4812
2.1545	-204.9408
2.155	-106.75049
2.1555	-38.26904
2.156	-45.01648
2.1565	-120.95032
2.157	-192.95654
2.1575	-201.31531
2.158	-199.70398
2.1585	-170.29724
2.159	-129.5105
2.1595	-63.94958
2.16	-22.6593
2.1605	-18.12744
2.161	16.11328
2.1615	39.57825
2.162	55.49011
2.1625	55.18799
2.163	59.61914
2.1635	71.30127
2.164	79.86145
2.1645	67.37366
2.165	54.18091
2.1655	37.7655
2.166	26.68762
2.1665	9.36584
2.167	-19.13452
2.1675	-45.62073
2.168	-59.1156
2.1685	-56.79932
2.169	-63.74817
2.1695	26.08337
2.17	448.65417
2.1705	873.44055
2.171	1091.6748
2.1715	1262.87842
2.172	1209.50317
2.1725	932.35474
2.173	551.98059
2.1735	156.09741
2.174	-210.0769
2.1745	-506.96411
2.175	-754.70581
2.1755	-872.13135
2.176	-849.27063
2.1765	-699.41711
2.177	-507.26624
2.1775	-367.1814
2.178	-316.22314
2.1785	-295.37659
2.179	-266.5741
2.1795	-208.46558
2.18	-170.09583
2.1805	-130.41687
2.181	-48.84338
2.1815	47.63489
2.182	94.66553
2.1825	92.95349
2.183	36.35559
2.1835	-19.53735
2.184	-65.76233
2.1845	-102.01721
2.185	-116.41846
2.1855	-157.70874
2.186	-173.72131
2.1865	-141.49475
2.187	-98.99597
2.1875	-35.65063
2.188	40.1825
2.1885	96.37756
2.189	152.06909
2.1895	226.49231
2.19	260.83374
2.1905	201.11389
2.191	112.89368
2.1915	56.79932
2.192	153.98254
2.1925	277.85339
2.193	323.172
2.1935	280.4718
2.194	168.78662
2.1945	26.3855
2.195	-81.27136
2.1955	-118.2312
2.196	-136.56006
2.1965	-166.47034
2.197	-216.92505
2.1975	-250.15869
2.198	-215.31372
2.1985	-90.73792
2.199	37.66479
2.1995	120.04395
2.2	138.97705
2.2005	91.64429
2.201	14.60266
2.2015	-31.4209
2.202	-52.56958
2.2025	-63.74817
2.203	-67.97791
2.2035	-69.89136
2.204	-17.42249
2.2045	110.87952
2.205	210.88257
2.2055	246.83533
2.206	248.24524
2.2065	192.75513
2.207	108.36182
2.2075	-3.8269
2.208	-125.88501
2.2085	-191.1438
2.209	-165.16113
2.2095	-121.35315
2.21	-80.36499
2.2105	86.60889
2.211	592.3645
2.2115	1075.2594
2.212	1387.05139
2.2125	1452.20947
2.213	1231.75964
2.2135	811.70654
2.214	342.1051
2.2145	-117.12341
2.215	-519.4519
2.2155	-808.28247
2.216	-1006.67725
2.2165	-1102.65198
2.217	-1115.94543
2.2175	-1054.41284
2.218	-879.78516
2.2185	-644.63196
2.219	-427.50549
2.2195	-318.1366
2.22	-101.01013
2.2205	75.53101
2.221	145.22095
2.2215	137.36572
2.222	98.79456
2.2225	83.18481
2.223	107.85828
2.2235	120.95032
2.224	178.65601
2.2245	332.0343
2.225	501.828
2.2255	537.88147
2.226	527.30713
2.2265	458.82568
2.227	407.96814
2.2275	567.79175
2.228	873.33984
2.2285	945.44678
2.229	962.56714
2.2295	790.96069
2.23	426.39771
2.2305	12.89062
2.231	-395.68176
2.2315	-733.255
2.232	-960.65369
2.2325	-1119.97375
2.233	-1144.84863
2.2335	-1067.10205
2.234	-895.99915
2.2345	-623.18115
2.235	-408.47168
2.2355	-368.4906
2.236	-385.40955
2.2365	-363.15308
2.237	-303.83606
2.2375	-88.52234
2.238	117.72766
2.2385	211.99036
2.239	194.56787
2.2395	138.67493
2.24	275.53711
2.2405	471.91772
2.241	522.37244
2.2415	481.18286
2.242	367.48352
2.2425	186.41052
2.243	30.61523
2.2435	-83.78906
2.244	-179.56238
2.2445	-269.29321
2.245	-381.58264
2.2455	-484.40552
2.246	-525.99792
2.2465	-521.06323
2.247	-447.54639
2.2475	-322.97058
2.248	-208.7677
2.2485	-185.30273
2.249	-203.53088
2.2495	-64.55383
2.25	74.72534
2.2505	187.21619
2.251	266.87622
2.2515	321.56067
2.252	434.85718
2.2525	458.02002
2.253	415.82336
2.2535	345.52917
2.254	301.21765
2.2545	274.73145
2.255	406.55823
2.2555	469.70215
2.256	413.10425
2.2565	347.54333
2.257	515.625
2.2575	1155.32227
2.258	1954.03748
2.2585	2430.08423
2.259	2313.26294
2.2595	1700.15259
2.26	965.38696
2.2605	205.14221
2.261	-490.64941
2.2615	-1030.44434
2.262	-1498.83728
2.2625	-1813.14697
2.263	-1944.67163
2.2635	-1881.72913
2.264	-1588.3667
2.2645	-1259.35364
2.265	-1120.77942
2.2655	-1042.22717
2.266	-916.14075
2.2665	-750.7782
2.267	-683.40454
2.2675	-572.2229
2.268	-389.63928
2.2685	-259.62524
2.269	-161.93848
2.2695	43.60657
2.27	222.36328
2.2705	318.1366
2.271	487.12463
2.2715	684.71375
2.272	1009.09424
2.2725	1080.09338
2.273	944.64111
2.2735	693.17322
2.274	420.25452
2.2745	142.40112
2.275	-115.61279
2.2755	-336.86829
2.276	-522.97668
2.2765	-613.00964
2.277	-575.14343
2.2775	-462.35046
2.278	-272.31445
2.2785	-109.4696
2.279	-74.02039
2.2795	-106.75049
2.28	-165.16113
2.2805	-251.97144
2.281	-310.48279
2.2815	-296.68579
2.282	-205.44434
2.2825	-7.15027
2.283	121.75598
2.2835	190.53955
2.284	258.01392
2.2845	347.94617
2.285	474.23401
2.2855	517.33704
2.286	635.36682
2.2865	643.62488
2.287	551.98059
2.2875	356.30493
2.288	99.80164
2.2885	-142.19971
2.289	-353.88794
2.2895	-490.04517
2.29	-635.26611
2.2905	-731.24084
2.291	-704.2511
2.2915	-555.70679
2.292	-313.90686
2.2925	-8.8623
2.293	232.33337
2.2935	381.98547
2.294	384.30176
2.2945	409.27734
2.295	562.85706
2.2955	620.96558
2.296	792.57202
2.2965	930.74341
2.297	862.96692
2.2975	710.69641
2.298	707.97729
2.2985	565.57617
2.299	300.6134
2.2995	82.07703
2.3	-144.91882
2.3005	-389.13574
2.301	-532.74536
2.3015	-476.14746
2.302	-198.59619
2.3025	147.83936
2.303	595.08362
2.3035	1189.56299
2.304	1275.2655
2.3045	934.06677
2.305	487.82959
2.3055	-51.36108
2.306	-623.28186
2.3065	-1065.1886
2.307	-1329.14429
2.3075	-1480.10559
2.308	-1501.5564
2.3085	-1442.74292
2.309	-1154.41589
2.3095	-740.40527
2.31	-427.90833
2.3105	-305.34668
2.311	-222.46399
2.3115	-156.60095
2.312	-90.93933
2.3125	4.12903
2.313	75.02747
2.3135	129.71191
2.314	481.58569
2.3145	986.93848
2.315	1196.10901
2.3155	1209.60388
2.316	1117.05322
2.3165	860.04639
2.317	497.09473
2.3175	317.02881
2.318	504.14429
2.3185	871.32568
2.319	1062.26807
2.3195	917.44995
2.32	584.10645
2.3205	124.57581
2.321	-359.42688
2.3215	-672.72949
2.322	-909.39331
2.3225	-1129.3396
2.323	-1325.61951
2.3235	-1399.23706
2.324	-1307.39136
2.3245	-1103.65906
2.325	-846.24939
2.3255	-635.26611
2.326	-440.89966
2.3265	-324.27979
2.327	-279.76685
2.3275	-212.4939
2.328	107.85828
2.3285	470.00427
2.329	608.37708
2.3295	628.21655
2.33	519.55261
2.3305	329.21448
2.331	107.75757
2.3315	-66.06445
2.332	-244.72046
2.3325	-343.51501
2.333	-366.87927
2.3335	-377.65503
2.334	-341.40015
2.3345	-238.27515
2.335	-148.24219
2.3355	-107.95898
2.336	-97.88818
2.3365	234.24683
2.337	753.09448
2.3375	1049.17603
2.338	1082.71179
2.3385	895.09277
2.339	580.48096
2.3395	235.85815
2.34	-52.26746
2.3405	-240.69214
2.341	-397.69592
2.3415	-493.46924
2.342	-547.0459
2.3425	-554.90112
2.343	-455.70374
2.3435	-323.172
2.344	-287.82349
2.3445	-332.53784
2.345	-345.62988
2.3455	-279.1626
2.346	-205.54504
2.3465	-120.54749
2.347	-34.84497
2.3475	15.91187
2.348	76.13525
2.3485	107.65686
2.349	155.09033
2.3495	205.0415
2.35	207.25708
2.3505	185.00061
2.351	148.24219
2.3515	126.69067
2.352	83.18481
2.3525	93.25562
2.353	87.21313
2.3535	52.97241
2.354	5.63965
2.3545	-28.80249
2.355	-43.60657
2.3555	10.17151
2.356	52.36816
2.3565	35.54993
2.357	-14.30054
2.3575	-17.32178
2.358	152.57263
2.3585	696.89941
2.359	1194.7998
2.3595	1337.30164
2.36	1267.91382
2.3605	1350.59509
2.361	1353.41492
2.3615	1067.90771
2.362	693.77747
2.3625	259.82666
2.363	-219.34204
2.3635	-606.26221
2.364	-693.77747
2.3645	-705.86243
2.365	-676.95923
2.3655	-640.90576
2.366	-623.88611
2.3665	-645.73975
2.367	-653.49426
2.3675	-612.30469
2.368	-530.12695
2.3685	-526.50146
2.369	-600.01831
2.3695	-677.36206
2.37	-686.32507
2.3705	-616.03088
2.371	-524.68872
2.3715	-382.89185
2.372	-172.41211
2.3725	-78.75366
2.373	-23.26355
2.3735	41.4917
2.374	90.83862
2.3745	91.44287
2.375	74.72534
2.3755	53.57666
2.376	37.56409
2.3765	43.60657
2.377	53.17383
2.3775	70.99915
2.378	171.60645
2.3785	601.52893
2.379	970.01953
2.3795	1143.03589
2.38	1162.77466
2.3805	1102.65198
2.381	1183.82263
2.3815	1345.45898
2.382	1178.08228
2.3825	1110.00366
2.383	1014.83459
2.3835	706.86951
2.384	249.15161
2.3845	-200.61035
2.385	-632.84912
2.3855	-847.76001
2.386	-878.67737
2.3865	-890.96375
2.387	-884.01489
2.3875	-740.20386
2.388	-509.78394
2.3885	-284.09729
2.389	-189.63318
2.3895	-253.48206
2.39	-399.71008
2.3905	-416.12549
2.391	-283.19092
2.3915	-230.52063
2.392	-220.75195
2.3925	-221.3562
2.393	-270.50171
2.3935	-349.25537
2.394	-399.9115
2.3945	-380.57556
2.395	-346.23413
2.3955	-328.71094
2.396	-200.81177
2.3965	223.26965
2.397	709.79004
2.3975	1087.14294
2.398	1623.51379
2.3985	1893.61267
2.399	1749.60022
2.3995	1336.39526
2.4	759.6405
2.4005	111.68518
2.401	-530.12695
2.4015	-1076.26648
2.402	-1475.1709
2.4025	-1632.3761
2.403	-1652.5177
2.4035	-1524.51782
2.404	-1295.4071
2.4045	-1037.79602
2.405	-740.80811
2.4055	-501.828
2.406	-348.75183
2.4065	-286.61499
2.407	-233.13904
2.4075	-195.67566
2.408	-164.95972
2.4085	-112.69226
2.409	-55.3894
2.4095	4.63257
2.41	64.55383
2.4105	91.54358
2.411	115.41138
2.4115	136.66077
2.412	174.92981
2.4125	177.3468
2.413	212.89673
2.4135	326.89819
2.414	344.72351
2.4145	306.65588
2.415	231.02417
2.4155	106.75049
2.416	-24.37134
2.4165	-115.20996
2.417	-188.32397
2.4175	-221.75903
2.418	-147.73865
2.4185	40.58533
2.419	415.0177
2.4195	699.92065
2.42	798.51379
2.4205	777.06299
2.421	630.53284
2.4215	406.65894
2.422	248.84949
2.4225	549.5636
2.423	784.21326
2.4235	844.43665
2.424	797.50671
2.4245	731.34155
2.425	491.55579
2.4255	247.13745
2.426	43.30444
2.4265	-172.21069
2.427	-321.86279
2.4275	-481.98853
2.428	-614.21814
2.4285	-650.87585
2.429	-528.61633
2.4295	-485.81543
2.43	-521.56677
2.4305	-519.85474
2.431	-453.58887
2.4315	-240.79285
2.432	172.00928
2.4325	389.23645
2.433	429.01611
2.4335	359.6283
2.434	193.35938
2.4345	44.11011
2.435	-68.98499
2.4355	-180.67017
2.436	-312.49695
2.4365	-439.99329
2.437	-520.55969
2.4375	-507.87048
2.438	-504.44641
2.4385	-451.77612
2.439	-238.07373
2.4395	32.42798
2.44	223.26965
2.4405	433.34656
2.441	599.21265
2.4415	678.57056
2.442	590.55176
2.4425	359.6283
2.443	90.63721
2.4435	-202.5238
2.444	-471.91772
2.4445	-633.15125
2.445	-709.79004
2.4455	-739.39819
2.446	-664.87427
2.4465	-513.40942
2.447	-375.33875
2.4475	-244.92188
2.448	-131.12183
2.4485	168.98804
2.449	744.5343
2.4495	1081.90613
2.45	1309.10339
2.4505	1466.00647
2.451	1539.52332
2.4515	1324.3103
2.452	938.29651
2.4525	509.58252
2.453	195.37354
2.4535	12.68921
2.454	-24.06921
2.4545	-51.86462
2.455	-153.98254
2.4555	-220.14771
2.456	-289.53552
2.4565	-457.7179
2.457	-583.5022
2.4575	-644.32983
2.458	-729.22668
2.4585	-721.67358
2.459	-685.4187
2.4595	-705.96313
2.46	-724.89624
2.4605	-683.00171
2.461	-581.28662
2.4615	-443.11523
2.462	-352.78015
2.4625	-342.50793
2.463	-260.22949
2.4635	68.68286
2.464	709.2865
2.4645	1234.07593
2.465	1397.62573
2.4655	1223.30017
2.466	807.47681
2.4665	290.5426
2.467	-129.91333
2.4675	-397.09167
2.468	-582.69653
2.4685	-706.56738
2.469	-742.62085
2.4695	-735.57129
2.47	-676.15356
2.4705	-486.52039
2.471	-305.04456
2.4715	-187.82043
2.472	52.56958
2.4725	255.89905
2.473	329.91943
2.4735	278.05481
2.474	160.9314
2.4745	27.59399
2.475	-102.11792
2.4755	-216.52222
2.476	-319.14368
2.4765	-417.83752
2.477	-475.14038
2.4775	-493.56995
2.478	-464.66675
2.4785	-225.58594
2.479	165.16113
2.4795	471.21277
2.48	821.77734
2.4805	1196.0083
2.481	1451.60522
2.4815	1477.78931
2.482	1218.86902
2.4825	870.72144
2.483	445.53223
2.4835	91.34216
2.484	-212.4939
2.4845	-502.83508
2.485	-747.65625
2.4855	-870.11719
2.486	-935.17456
2.4865	-921.98181
2.487	-797.70813
2.4875	-626.90735
2.488	-474.63684
2.4885	-389.63928
2.489	-417.03186
2.4895	-449.86267
2.49	-314.51111
2.4905	-38.974
2.491	253.28064
2.4915	555.40466
2.492	808.98743
2.4925	1009.39636
2.493	1445.66345
2.4935	1923.52295
2.494	1970.05005
2.4945	1714.85596
2.495	1245.25452
2.4955	643.42346
2.496	93.15491
2.4965	-161.73706
2.497	-105.74341
2.4975	-70.49561
2.498	-140.78979
2.4985	-381.78406
2.499	-741.21094
2.4995	-1096.6095
2.5	-1054.81567
2.5005	-859.84497
2.501	-816.43982
2.5015	-830.13611
2.502	-853.29895
2.5025	-785.92529
2.503	-621.97266
2.5035	-437.97913
2.504	-351.57166
2.5045	-370.00122
2.505	-420.25452
2.5055	-482.18994
2.506	-462.55188
2.5065	-161.13281
2.507	380.27344
2.5075	779.58069
2.508	873.54126
2.5085	851.88904
2.509	778.27148
2.5095	736.47766
2.51	569.60449
2.5105	234.34753
2.511	-133.84094
2.5115	-476.34888
2.512	-762.96387
2.5125	-896.7041
2.513	-859.03931
2.5135	-678.97339
2.514	-443.41736
2.5145	-302.82898
2.515	-273.62366
2.5155	-225.88806
2.516	-135.35156
2.5165	-56.19507
2.517	25.37842
2.5175	177.74963
2.518	275.03357
2.5185	274.83215
2.519	207.05566
2.5195	111.08093
2.52	17.32178
2.5205	-49.0448
2.521	5.84106
2.5215	262.74719
2.522	985.02502
2.5225	1679.30603
2.523	2060.98926
2.5235	2220.41016
2.524	2124.1333
2.5245	1681.11877
2.525	1016.74805
2.5255	297.08862
2.526	-412.90283
2.5265	-1052.09656
2.527	-1556.64368
2.5275	-1915.96985
2.528	-2061.09009
2.5285	-1927.04773
2.529	-1211.41663
2.5295	-427.10266
2.53	90.83862
2.5305	341.50085
2.531	319.04297
2.5315	100.30518
2.532	-167.07458
2.5325	-365.06653
2.533	-538.18359
2.5335	-624.69177
2.534	-473.22693
2.5345	-285.5072
2.535	-155.69458
2.5355	-21.14868
2.536	83.58765
2.5365	137.36572
2.537	91.745
2.5375	37.26196
2.538	-37.16125
2.5385	-79.35791
2.539	97.68677
2.5395	293.0603
2.54	611.09619
2.5405	904.15649
2.541	948.2666
2.5415	760.34546
2.542	595.98999
2.5425	570.71228
2.543	532.54395
2.5435	682.19604
2.544	798.21167
2.5445	640.60364
2.545	253.9856
2.5455	-156.50024
2.546	-494.97986
2.5465	-746.54846
2.547	-944.64111
2.5475	-1021.27991
2.548	-983.5144
2.5485	-928.82996
2.549	-808.48389
2.5495	-676.35498
2.55	-464.86816
2.5505	-322.97058
2.551	-246.23108
2.5515	-199.09973
2.552	-216.62292
2.5525	-239.18152
2.553	-290.44189
2.5535	-334.75342
2.554	-309.67712
2.5545	-146.32874
2.555	114.10217
2.5555	327.09961
2.556	423.37646
2.5565	435.66284
2.557	380.07202
2.5575	290.34119
2.558	163.14697
2.5585	50.15259
2.559	-14.50195
2.5595	-42.39807
2.56	-33.43506
2.5605	-6.44531
2.561	-7.15027
2.5615	10.47363
2.562	81.17065
2.5625	135.8551
2.563	120.04395
2.5635	99.19739
2.564	85.5011
2.5645	59.51843
2.565	30.2124
2.5655	2.5177
2.566	1.51062
2.5665	177.3468
2.567	731.9458
2.5675	2115.87524
2.568	3293.65527
2.5685	3278.6499
2.569	3263.14087
2.5695	3038.6626
2.57	1912.34436
2.5705	549.76501
2.571	-620.46204
2.5715	-1606.09131
2.572	-2398.2605
2.5725	-2887.39917
2.573	-3097.07324
2.5735	-2997.47314
2.574	-2582.85815
2.5745	-1978.2074
2.575	-1537.30774
2.5755	-1296.31348
2.576	-1079.58984
2.5765	-894.28711
2.577	-753.49731
2.5775	-579.17175
2.578	-362.04529
2.5785	-119.4397
2.579	200.0061
2.5795	503.94287
2.58	593.87512
2.5805	581.89087
2.581	503.23792
2.5815	541.10413
2.582	658.02612
2.5825	694.88525
2.583	622.97974
2.5835	586.52344
2.584	633.65479
2.5845	580.9845
2.585	426.69983
2.5855	230.92346
2.586	266.5741
2.5865	326.69678
2.587	262.14294
2.5875	28.60107
2.588	-192.35229
2.5885	-379.16565
2.589	-538.58643
2.5895	-629.42505
2.59	-650.97656
2.5905	-699.81995
2.591	-678.16772
2.5915	-559.13086
2.592	-385.10742
2.5925	-48.84338
2.593	255.2948
2.5935	371.91467
2.594	394.67468
2.5945	366.97998
2.595	247.43958
2.5955	158.21228
2.596	106.44836
2.5965	78.85437
2.597	25.57983
2.5975	-20.24231
2.598	-65.66162
2.5985	-99.19739
2.599	-140.68909
2.5995	-156.70166
2.6	-123.2666
2.6005	-23.06213
2.601	46.72852
2.6015	169.18945
2.602	373.32458
2.6025	424.88708
2.603	529.72412
2.6035	626.00098
2.604	659.0332
2.6045	627.41089
2.605	521.9696
2.6055	348.349
2.606	123.2666
2.6065	-48.74268
2.607	-187.11548
2.6075	-349.25537
2.608	-507.56836
2.6085	-619.45496
2.609	-569.90662
2.6095	-346.23413
2.61	39.07471
2.6105	497.49756
2.611	1705.59082
2.6115	2558.08398
2.612	2696.96045
2.6125	2367.64526
2.613	1651.51062
2.6135	717.14172
2.614	-180.16663
2.6145	-895.89844
2.615	-1437.80823
2.6155	-1818.28308
2.616	-1936.11145
2.6165	-1762.28943
2.617	-1429.24805
2.6175	-1084.021
2.618	-708.88367
2.6185	-458.12073
2.619	-306.55518
2.6195	-112.89368
2.62	31.52161
2.6205	60.4248
2.621	71.60339
2.6215	210.78186
2.622	225.98877
2.6225	127.29492
2.623	-13.59558
2.6235	-95.26978
2.624	-139.68201
2.6245	-178.85742
2.625	-280.77393
2.6255	-410.38513
2.626	-523.1781
2.6265	-548.25439
2.627	-568.79883
2.6275	-523.48022
2.628	-496.18835
2.6285	-477.65808
2.629	-400.31433
2.6295	-288.72986
2.63	-210.58044
2.6305	-150.8606
2.631	-113.09509
2.6315	-95.06836
2.632	-67.07153
2.6325	-30.31311
2.633	18.73169
2.6335	72.40906
2.634	110.17456
2.6345	148.24219
2.635	200.71106
2.6355	234.85107
2.636	247.13745
2.6365	279.26331
2.637	299.10278
2.6375	303.93677
2.638	322.86987
2.6385	485.4126
2.639	893.58215
2.6395	1188.4552
2.64	1242.43469
2.6405	1123.0957
2.641	870.52002
2.6415	556.61316
2.642	246.93604
2.6425	-25.47913
2.643	-255.69763
2.6435	-433.44727
2.644	-535.06165
2.6445	-444.32373
2.645	478.66516
2.6455	2423.23608
2.646	3286.20288
2.6465	3271.19751
2.647	3256.09131
2.6475	2966.35425
2.648	1648.89221
2.6485	165.16113
2.649	-1136.18774
2.6495	-2125.74463
2.65	-2462.51221
2.6505	-2678.93359
2.651	-2898.98071
2.6515	-2897.97363
2.652	-2657.08008
2.6525	-2245.58716
2.653	-1808.01086
2.6535	-1445.86487
2.654	-1280.70374
2.6545	-1188.65662
2.655	-1125.71411
2.6555	-1007.88574
2.656	-783.10547
2.6565	-464.26392
2.657	-82.88269
2.6575	348.95325
2.658	696.29517
2.6585	851.08337
2.659	813.21716
2.6595	679.1748
2.66	491.45508
2.6605	270.19958
2.661	70.89844
2.6615	-83.28552
2.662	-203.63159
2.6625	-304.44031
2.663	-291.65039
2.6635	-214.50806
2.664	-86.20605
2.6645	51.66321
2.665	115.61279
2.6655	225.48523
2.666	422.5708
2.6665	483.09631
2.667	424.78638
2.6675	325.6897
2.668	239.78577
2.6685	139.88342
2.669	20.34302
2.6695	-90.33508
2.67	-162.44202
2.6705	-230.01709
2.671	-246.93604
2.6715	-228.60718
2.672	-200.30823
2.6725	-147.03369
2.673	-59.51843
2.6735	13.49487
2.674	27.79541
2.6745	32.02515
2.675	47.53418
2.6755	67.57507
2.676	94.96765
2.6765	107.25403
2.677	156.60095
2.6775	403.93982
2.678	632.94983
2.6785	718.1488
2.679	936.9873
2.6795	1194.29626
2.68	1205.17273
2.6805	1168.41431
2.681	1476.27869
2.6815	1533.88367
2.682	1293.39294
2.6825	835.97717
2.683	249.0509
2.6835	-391.65344
2.684	-924.90234
2.6845	-1293.89648
2.685	-1424.81689
2.6855	-1432.37
2.686	-1404.07104
2.6865	-1308.90198
2.687	-888.54675
2.6875	15.60974
2.688	785.42175
2.6885	1105.27039
2.689	993.08167
2.6895	631.64062
2.69	283.99658
2.6905	152.67334
2.691	360.23254
2.6915	493.46924
2.692	425.28992
2.6925	215.71655
2.693	-16.21399
2.6935	-232.73621
2.694	-408.16956
2.6945	-470.00427
2.695	-453.08533
2.6955	-459.63135
2.696	-428.10974
2.6965	-421.16089
2.697	-468.79578
2.6975	-508.57544
2.698	-532.64465
2.6985	-610.08911
2.699	-678.77197
2.6995	-704.15039
2.7	-714.62402
2.7005	-665.17639
2.701	-540.39917
2.7015	-402.73132
2.702	-288.72986
2.7025	-127.09351
2.703	32.22656
2.7035	174.92981
2.704	205.74646
2.7045	176.84326
2.705	143.20679
2.7055	143.91174
2.706	158.11157
2.7065	488.23242
2.707	908.48694
2.7075	1404.17175
2.708	1730.26428
2.7085	1676.48621
2.709	1326.12305
2.7095	839.70337
2.71	319.34509
2.7105	-197.4884
2.711	-624.18823
2.7115	-912.81738
2.712	-1076.06506
2.7125	-1190.16724
2.713	-1136.79199
2.7135	-826.91345
2.714	-375.54016
2.7145	17.72461
2.715	241.4978
2.7155	251.16577
2.716	169.7937
2.7165	53.87878
2.717	-36.25488
2.7175	-129.10767
2.718	-224.67957
2.7185	-167.98096
2.719	72.40906
2.7195	262.04224
2.72	377.65503
2.7205	476.14746
2.721	504.14429
2.7215	598.30627
2.722	718.65234
2.7225	666.5863
2.723	488.83667
2.7235	240.59143
2.724	-26.08337
2.7245	-225.28381
2.725	-263.65356
2.7255	-158.61511
2.726	-109.77173
2.7265	-174.22485
2.727	-258.51746
2.7275	-330.7251
2.728	-387.323
2.7285	-370.30334
2.729	-223.37036
2.7295	-142.80396
2.73	-134.84802
2.7305	-152.67334
2.731	-208.46558
2.7315	-266.5741
2.732	-292.65747
2.7325	-281.57959
2.733	-98.99597
2.7335	602.73743
2.734	1320.58411
2.7345	1672.05505
2.735	1617.87415
2.7355	1251.80054
2.736	855.71594
2.7365	617.23938
2.737	522.97668
2.7375	469.60144
2.738	282.28455
2.7385	-80.36499
2.739	-471.6156
2.7395	-752.49023
2.74	-857.12585
2.7405	-753.39661
2.741	-586.82556
2.7415	-544.72961
2.742	-580.38025
2.7425	-571.61865
2.743	-355.39856
2.7435	-47.33276
2.744	64.35242
2.7445	90.73792
2.745	69.38782
2.7455	-10.77576
2.746	-126.28784
2.7465	-285.60791
2.747	-327.20032
2.7475	-24.97559
2.748	515.52429
2.7485	1030.74646
2.749	1252.50549
2.7495	1097.71729
2.75	796.49963
2.7505	397.59521
2.751	-80.66711
2.7515	-532.34253
2.752	-897.30835
2.7525	-1185.9375
2.753	-1357.44324
2.7535	-1400.54626
2.754	-1291.37878
2.7545	-1088.55286
2.755	-862.06055
2.7555	-580.58167
2.756	-326.09253
2.7565	-229.51355
2.757	-179.46167
2.7575	-138.77563
2.758	-69.1864
2.7585	28.19824
2.759	120.64819
2.7595	180.87158
2.76	230.31921
2.7605	282.28455
2.761	323.67554
2.7615	322.97058
2.762	283.69446
2.7625	232.93762
2.763	205.44434
2.7635	181.47583
2.764	262.24365
2.7645	450.97046
2.765	538.08289
2.7655	508.67615
2.766	409.88159
2.7665	297.995
2.767	415.72266
2.7675	786.22742
2.768	1672.35718
2.7685	2386.9812
2.769	2454.65698
2.7695	1975.08545
2.77	1237.5
2.7705	365.26794
2.771	-452.48108
2.7715	-957.0282
2.772	-598.91052
2.7725	223.16895
2.773	666.88843
2.7735	696.39587
2.774	466.88232
2.7745	33.23364
2.775	-508.27332
2.7755	-1031.75354
2.776	-1540.6311
2.7765	-1969.14368
2.777	-2206.10962
2.7775	-2259.8877
2.778	-2069.14673
2.7785	-1696.42639
2.779	-1221.68884
2.7795	-735.06775
2.78	-379.7699
2.7805	-180.36804
2.781	-174.22485
2.7815	-184.49707
2.782	79.86145
2.7825	479.77295
2.783	702.84119
2.7835	829.83398
2.784	772.93396
2.7845	551.37634
2.785	276.94702
2.7855	57.10144
2.786	-98.59314
2.7865	-187.11548
2.787	-234.44824
2.7875	-227.70081
2.788	-38.87329
2.7885	107.25403
2.789	169.99512
2.7895	271.6095
2.79	438.8855
2.7905	815.73486
2.791	1025.0061
2.7915	1025.10681
2.792	811.60583
2.7925	425.18921
2.793	21.85364
2.7935	-294.2688
2.794	-550.77209
2.7945	-724.3927
2.795	-794.38477
2.7955	-772.229
2.796	-707.17163
2.7965	-601.83105
2.797	-438.38196
2.7975	-216.72363
2.798	-16.01257
2.7985	63.24463
2.799	90.03296
2.7995	98.89526
2.8	70.59631
2.8005	28.60107
2.801	-3.7262
2.8015	-12.78992
2.802	-6.44531
2.8025	25.47913
2.803	54.98657
2.8035	89.22729
2.804	254.89197
2.8045	610.08911
2.805	1040.51514
2.8055	1216.45203
2.806	1180.70068
2.8065	966.99829
2.807	597.19849
2.8075	182.18079
2.808	-162.44202
2.8085	-396.48743
2.809	-540.39917
2.8095	-623.28186
2.81	-671.521
2.8105	-624.38965
2.811	-461.44409
2.8115	-252.87781
2.812	-62.9425
2.8125	37.26196
2.813	160.32715
2.8135	467.68799
2.814	683.00171
2.8145	715.73181
2.815	594.58008
2.8155	381.0791
2.816	125.98572
2.8165	-114.30359
2.817	-320.85571
2.8175	-154.58679
2.818	482.59277
2.8185	860.85205
2.819	907.78198
2.8195	711.09924
2.82	424.18213
2.8205	154.48608
2.821	48.64197
2.8215	-156.29883
2.822	-483.80127
2.8225	-741.21094
2.823	-962.26501
2.8235	-1072.03674
2.824	-966.19263
2.8245	-697.40295
2.825	-171.10291
2.8255	277.9541
2.826	475.24109
2.8265	458.12073
2.827	322.97058
2.8275	186.81335
2.828	33.9386
2.8285	-97.28394
2.829	-139.5813
2.8295	-88.92517
2.83	141.49475
2.8305	379.56848
2.831	558.4259
2.8315	699.11499
2.832	683.40454
2.8325	512.70447
2.833	237.87231
2.8335	0
2.834	-72.71118
2.8345	-148.04077
2.835	-297.18933
2.8355	-465.57312
2.836	-603.54309
2.8365	-720.76721
2.837	-769.10706
2.8375	-547.75085
2.838	-357.00989
2.8385	-296.38367
2.839	-301.31836
2.8395	-264.25781
2.84	-154.18396
2.8405	162.94556
2.841	409.37805
2.8415	553.18909
2.842	580.48096
2.8425	496.89331
2.843	319.34509
2.8435	182.58362
2.844	150.45776
2.8445	134.14307
2.845	-15.30762
2.8455	-235.55603
2.846	-467.8894
2.8465	-656.41479
2.847	-739.80103
2.8475	-718.55164
2.848	-626.50452
2.8485	-509.07898
2.849	-410.78796
2.8495	-328.10669
2.85	-279.46472
2.8505	-224.27673
2.851	-141.69617
2.8515	-55.2887
2.852	43.30444
2.8525	130.31616
2.853	172.71423
2.8535	251.97144
2.854	351.97449
2.8545	583.09937
2.855	834.46655
2.8555	1553.1189
2.856	2652.95093
2.8565	3195.36426
2.857	3106.43921
2.8575	2517.90161
2.858	1513.33923
2.8585	485.51331
2.859	-369.09485
2.8595	-1162.0697
2.86	-1749.80164
2.8605	-2074.28271
2.861	-2243.573
2.8615	-2262.90894
2.862	-2033.39539
2.8625	-1615.55786
2.863	-1189.7644
2.8635	-884.1156
2.864	-758.12988
2.8645	-746.44775
2.865	-749.5697
2.8655	-732.75146
2.866	-637.28027
2.8665	-506.66199
2.867	-368.08777
2.8675	-190.74097
2.868	-15.50903
2.8685	111.58447
2.869	214.70947
2.8695	331.93359
2.87	379.7699
2.8705	358.4198
2.871	277.14844
2.8715	226.99585
2.872	341.70227
2.8725	512.70447
2.873	888.24463
2.8735	1246.06018
2.874	1304.77295
2.8745	1088.45215
2.875	745.44067
2.8755	325.99182
2.876	-75.73242
2.8765	-395.37964
2.877	-655.91125
2.8775	-803.04565
2.878	-686.82861
2.8785	-457.51648
2.879	-202.62451
2.8795	21.75293
2.88	134.74731
2.8805	114.60571
2.881	2.31628
2.8815	-65.56091
2.882	-130.31616
2.8825	-221.85974
2.883	-268.28613
2.8835	-255.2948
2.884	-168.28308
2.8845	-13.89771
2.885	218.13354
2.8855	422.36938
2.886	600.72327
2.8865	697.10083
2.887	703.64685
2.8875	636.07178
2.888	876.26038
2.8885	1582.42493
2.889	2197.44873
2.8895	2288.79077
2.89	1890.1886
2.8905	1179.08936
2.891	532.94678
2.8915	74.12109
2.892	-261.74011
2.8925	-303.93677
2.893	-212.79602
2.8935	-265.86914
2.894	-447.14355
2.8945	-663.46436
2.895	-882.30286
2.8955	-1038.19885
2.896	-1246.2616
2.8965	-1464.69727
2.897	-1588.66882
2.8975	-1632.47681
2.898	-1495.41321
2.8985	-1326.22375
2.899	-1094.1925
2.8995	-806.57043
2.9	-507.36694
2.9005	-142.099
2.901	209.77478
2.9015	376.34583
2.902	439.89258
2.9025	414.11133
2.903	309.27429
2.9035	186.00769
2.904	49.0448
2.9045	-22.76001
2.905	25.27771
2.9055	99.70093
2.906	326.09253
2.9065	512.20093
2.907	558.52661
2.9075	533.34961
2.908	439.38904
2.9085	276.24207
2.909	54.18091
2.9095	-214.40735
2.91	-425.89417
2.9105	-522.27173
2.911	-538.38501
2.9115	-474.73755
2.912	-374.63379
2.9125	-256.604
2.913	-101.9165
2.9135	186.41052
2.914	430.72815
2.9145	870.2179
2.915	1566.41235
2.9155	1945.67871
2.916	1919.59534
2.9165	1512.83569
2.917	938.80005
2.9175	304.03748
2.918	-234.34753
2.9185	-413.20496
2.919	66.76941
2.9195	726.30615
2.92	948.06519
2.9205	802.54211
2.921	435.46143
2.9215	-88.92517
2.922	-699.11499
2.9225	-1171.13342
2.923	-1523.30933
2.9235	-1844.36646
2.924	-2023.32458
2.9245	-1938.72986
2.925	-1662.18567
2.9255	-1265.1947
2.926	-817.64832
2.9265	-479.37012
2.927	-355.59998
2.9275	-263.15002
2.928	-197.18628
2.9285	-195.57495
2.929	-49.14551
2.9295	136.45935
2.93	237.36877
2.9305	385.61096
2.931	462.7533
2.9315	453.28674
2.932	436.97205
2.9325	695.99304
2.933	998.11707
2.9335	1048.47107
2.934	872.23206
2.9345	608.88062
2.935	389.23645
2.9355	134.34448
2.936	-99.80164
2.9365	-309.77783
2.937	-482.99561
2.9375	-629.22363
2.938	-743.42651
2.9385	-750.67749
2.939	-567.69104
2.9395	-370.40405
2.94	-208.56628
2.9405	-95.37048
2.941	-64.151
2.9415	-63.64746
2.942	-23.96851
2.9425	96.07544
2.943	230.62134
2.9435	322.46704
2.944	365.9729
2.9445	478.86658
2.945	547.14661
2.9455	579.67529
2.946	707.47375
2.9465	780.58777
2.947	767.49573
2.9475	803.75061
2.948	1217.76123
2.9485	1504.47693
2.949	1449.9939
2.9495	1182.81555
2.95	710.5957
2.9505	168.08167
2.951	-368.08777
2.9515	-862.86621
2.952	-1276.27258
2.9525	-1571.14563
2.953	-1740.03296
2.9535	-1770.84961
2.954	-1612.33521
2.9545	-1320.18127
2.955	-964.68201
2.9555	-610.69336
2.956	-290.34119
2.9565	-127.19421
2.957	-103.32642
2.9575	-104.93774
2.958	-87.21313
2.9585	37.46338
2.959	319.84863
2.9595	514.81934
2.96	532.14111
2.9605	448.45276
2.961	404.64478
2.9615	512.10022
2.962	745.7428
2.9625	869.91577
2.963	830.0354
2.9635	866.99524
2.964	963.97705
2.9645	1005.67017
2.965	954.71191
2.9655	1017.35229
2.966	1058.03833
2.9665	787.03308
2.967	375.54016
2.9675	-48.54126
2.968	-484.50623
2.9685	-885.4248
2.969	-1079.79126
2.9695	-1201.95007
2.97	-1281.10657
2.9705	-1207.58972
2.971	-999.62769
2.9715	-859.94568
2.972	-634.46045
2.9725	-388.43079
2.973	-224.78027
2.9735	-175.53406
2.974	-151.26343
2.9745	-139.07776
2.975	-179.05884
2.9755	-212.29248
2.976	-217.63
2.9765	-231.72913
2.977	-212.89673
2.9775	-132.33032
2.978	-0.30212
2.9785	203.22876
2.979	612.5061
2.9795	1164.48669
2.98	1481.11267
2.9805	1486.24878
2.981	1255.92957
2.9815	870.62073
2.982	383.5968
2.9825	-95.67261
2.983	-417.43469
2.9835	-600.52185
2.984	-723.1842
2.9845	-816.1377
2.985	-798.11096
2.9855	-729.73022
2.986	-616.53442
2.9865	-454.89807
2.987	-345.62988
2.9875	-195.27283
2.988	165.66467
2.9885	537.17651
2.989	786.42883
2.9895	838.99841
2.99	696.49658
2.9905	461.64551
2.991	228.10364
2.9915	-2.5177
2.992	-221.15479
2.9925	-413.10425
2.993	-575.84839
2.9935	-687.23145
2.994	-726.9104
2.9945	-680.28259
2.995	-554.90112
2.9955	-383.09326
2.996	-237.87231
2.9965	-228.20435
2.997	-214.81018
2.9975	-121.85669
2.998	-25.78125
2.9985	81.06995
2.999	312.79907
2.9995	799.01733
3	1200.23804
3.0005	1472.95532
3.001	1501.75781
3.0015	1202.85645
3.002	692.77039
3.0025	154.08325
3.003	-339.28528
3.0035	-686.6272
3.004	-905.86853
3.0045	-993.68591
3.005	-951.08643
3.0055	-771.22192
3.006	-451.07117
3.0065	2.5177
3.007	667.59338
3.0075	1096.71021
3.008	1085.22949
3.0085	829.73328
3.009	507.46765
3.0095	110.47668
3.01	-273.01941
3.0105	-591.35742
3.011	-839.40125
3.0115	-987.44202
3.012	-971.32874
3.0125	-766.79077
3.013	-507.26624
3.0135	-63.64746
3.014	558.72803
3.0145	1029.73938
3.015	1184.32617
3.0155	1075.2594
3.016	783.91113
3.0165	556.61316
3.017	347.34192
3.0175	326.49536
3.018	370.90759
3.0185	295.88013
3.019	59.31702
3.0195	-221.65833
3.02	-334.04846
3.0205	-292.55676
3.021	-293.46313
3.0215	-374.33167
3.022	-493.46924
3.0225	-687.83569
3.023	-848.96851
3.0235	-900.63171
3.024	-872.7356
3.0245	-702.74048
3.025	-530.42908
3.0255	-402.52991
3.026	-304.44031
3.0265	-254.48914
3.027	-245.42542
3.0275	-240.1886
3.028	-226.99585
3.0285	-171.70715
3.029	-101.61438
3.0295	-22.45789
3.03	52.06604
3.0305	228.9093
3.031	338.47961
3.0315	369.59839
3.032	530.02625
3.0325	801.1322
3.033	913.82446
3.0335	857.62939
3.034	908.78906
3.0345	973.64502
3.035	863.87329
3.0355	638.08594
3.036	300.71411
3.0365	-66.97083
3.037	-397.3938
3.0375	-581.28662
3.038	-674.44153
3.0385	-693.27393
3.039	-700.42419
3.0395	-735.87341
3.04	-715.32898
3.0405	-398.09875
3.041	346.33484
3.0415	1002.44751
3.042	1366.60767
3.0425	1348.48022
3.043	1067.40417
3.0435	645.84045
3.044	213.90381
3.0445	-209.47266
3.045	-592.06238
3.0455	-871.5271
3.046	-1056.02417
3.0465	-1121.28296
3.047	-1043.23425
3.0475	-848.16284
3.048	-633.55408
3.0485	-422.06726
3.049	-220.65125
3.0495	-127.19421
3.05	-117.92908
3.0505	-137.86926
3.051	-103.52783
3.0515	-33.13293
3.052	117.32483
3.0525	378.46069
3.053	540.49988
3.0535	586.92627
3.054	528.81775
3.0545	427.70691
3.055	296.28296
3.0555	293.0603
3.056	277.55127
3.0565	193.86292
3.057	98.29102
3.0575	-11.88354
3.058	-119.4397
3.0585	-178.35388
3.059	-157.10449
3.0595	-81.47278
3.06	-64.35242
3.0605	-132.43103
3.061	-228.70789
3.0615	-316.72668
3.062	-344.6228
3.0625	-265.46631
3.063	485.21118
3.0635	1668.73169
3.064	2569.2627
3.0645	2986.09302
3.065	2970.18115
3.0655	2427.16357
3.066	1464.09302
3.0665	578.5675
3.067	134.04236
3.0675	-52.06604
3.068	-396.08459
3.0685	-822.78442
3.069	-1259.05151
3.0695	-1524.61853
3.07	-1599.14246
3.0705	-1598.53821
3.071	-1524.2157
3.0715	-1526.53198
3.072	-1612.13379
3.0725	-1554.52881
3.073	-1351.80359
3.0735	-1058.54187
3.074	-794.58618
3.0745	-594.78149
3.075	-423.27576
3.0755	-293.46313
3.076	-205.14221
3.0765	-46.62781
3.077	145.8252
3.0775	293.66455
3.078	374.02954
3.0785	428.91541
3.079	476.04675
3.0795	612.80823
3.08	636.3739
3.0805	511.69739
3.081	299.00208
3.0815	24.37134
3.082	-204.9408
3.0825	-384.20105
3.083	-529.92554
3.0835	-591.25671
3.084	-541.50696
3.0845	-474.33472
3.085	-417.23328
3.0855	-352.37732
3.086	-283.19092
3.0865	-201.01318
3.087	-94.2627
3.0875	2.5177
3.088	47.7356
3.0885	46.5271
3.089	35.04639
3.0895	34.74426
3.09	78.45154
3.0905	219.84558
3.091	447.7478
3.0915	592.76733
3.092	607.77283
3.0925	502.13013
3.093	373.92883
3.0935	225.38452
3.094	93.0542
3.0945	64.151
3.095	238.27515
3.0955	443.41736
3.096	645.23621
3.0965	720.6665
3.097	656.81763
3.0975	478.96729
3.098	281.27747
3.0985	125.98572
3.099	15.81116
3.0995	-41.79382
3.1	665.07568
3.1005	1817.77954
3.101	2407.22339
3.1015	2517.59937
3.102	2245.78857
3.1025	1594.40918
3.103	731.34155
3.1035	-129.91333
3.104	-1012.4176
3.1045	-1621.80176
3.105	-1939.13269
3.1055	-2058.06885
3.106	-1976.59607
3.1065	-1653.52478
3.107	-1280.90515
3.1075	-1015.53955
3.108	-867.19666
3.1085	-741.71448
3.109	-694.88525
3.1095	-684.31091
3.11	-564.36768
3.1105	-396.89026
3.111	-300.00916
3.1115	-202.82593
3.112	-110.47668
3.1125	-40.48462
3.113	-12.78992
3.1135	-6.04248
3.114	99.19739
3.1145	263.04932
3.115	346.93909
3.1155	361.94458
3.116	314.00757
3.1165	212.89673
3.117	84.49402
3.1175	-35.34851
3.118	106.75049
3.1185	315.41748
3.119	514.4165
3.1195	993.28308
3.12	1326.32446
3.1205	1334.98535
3.121	1065.99426
3.1215	678.46985
3.122	228.40576
3.1225	-229.51355
3.123	-622.27478
3.1235	-772.1283
3.124	-831.14319
3.1245	-824.49646
3.125	-730.43518
3.1255	-586.0199
3.126	-466.98303
3.1265	-433.64868
3.127	-430.1239
3.1275	-386.01379
3.128	-399.60938
3.1285	-431.13098
3.129	-423.7793
3.1295	-354.08936
3.13	-232.93762
3.1305	-94.06128
3.131	185.10132
3.1315	540.802
3.132	788.74512
3.1325	851.58691
3.133	935.17456
3.1335	1044.24133
3.134	1288.25684
3.1345	1588.87024
3.135	1787.46643
3.1355	1907.40967
3.136	1578.49731
3.1365	924.49951
3.137	174.02344
3.1375	-534.55811
3.138	-1117.55676
3.1385	-1422.90344
3.139	-1591.08582
3.1395	-1670.04089
3.14	-1595.11414
3.1405	-1427.63672
3.141	-1174.5575
3.1415	-968.50891
3.142	-858.23364
3.1425	-679.37622
3.143	-539.08997
3.1435	-429.21753
3.144	-338.37891
3.1445	-253.07922
3.145	-130.51758
3.1455	181.47583
3.146	521.9696
3.1465	709.89075
3.147	751.78528
3.1475	739.90173
3.148	727.51465
3.1485	699.51782
3.149	854.50745
3.1495	1149.27979
3.15	1246.76514
3.1505	1128.23181
3.151	797.20459
3.1515	390.24353
3.152	0.90637
3.1525	-288.32703
3.153	-511.19385
3.1535	-558.3252
3.154	-554.49829
3.1545	-584.91211
3.155	-591.35742
3.1555	-513.61084
3.156	-429.72107
3.1565	-366.47644
3.157	-171.30432
3.1575	88.52234
3.158	148.3429
3.1585	100.6073
3.159	33.63647
3.1595	-63.14392
3.16	-163.65051
3.1605	-225.0824
3.161	-260.22949
3.1615	-316.52527
3.162	-387.12158
3.1625	-434.05151
3.163	-418.34106
3.1635	-335.15625
3.164	-222.66541
3.1645	-139.37988
3.165	-102.72217
3.1655	-119.33899
3.166	-119.64111
3.1665	-58.00781
3.167	100.90942
3.1675	469.60144
3.168	895.09277
3.1685	1098.42224
3.169	1014.53247
3.1695	741.31165
3.17	383.49609
3.1705	45.41931
3.171	-205.24292
3.1715	-211.78894
3.172	66.6687
3.1725	588.23547
3.173	1062.26807
3.1735	1414.74609
3.174	1506.39038
3.1745	1222.89734
3.175	681.89392
3.1755	106.04553
3.176	-440.49683
3.1765	-858.53577
3.177	-1214.94141
3.1775	-1487.96082
3.178	-1673.96851
3.1785	-1639.9292
3.179	-1366.50696
3.1795	-935.37598
3.18	-629.72717
3.1805	-406.86035
3.181	-93.45703
3.1815	277.9541
3.182	471.11206
3.1825	523.37952
3.183	446.74072
3.1835	302.22473
3.184	109.87244
3.1845	-56.29578
3.185	-186.71265
3.1855	-276.34277
3.186	-328.00598
3.1865	-345.42847
3.187	-325.79041
3.1875	-289.63623
3.188	-227.80151
3.1885	-163.14697
3.189	-97.28394
3.1895	15.1062
3.19	104.83704
3.1905	137.46643
3.191	148.3429
3.1915	217.93213
3.192	322.16492
3.1925	413.30566
3.193	471.51489
3.1935	895.59631
3.194	1402.35901
3.1945	1522.70508
3.195	1301.651
3.1955	914.02588
3.196	424.78638
3.1965	-55.3894
3.197	-445.93506
3.1975	-632.44629
3.198	-422.36938
3.1985	92.95349
3.199	880.79224
3.1995	1275.46692
3.2	1248.47717
3.2005	996.10291
3.201	649.26453
3.2015	104.83704
3.202	-475.3418
3.2025	-1010.00061
3.203	-1429.55017
3.2035	-1707.40356
3.204	-1813.75122
3.2045	-1714.151
3.205	-1421.69495
3.2055	-1071.13037
3.206	-706.86951
3.2065	-405.65186
3.207	-290.24048
3.2075	-266.07056
3.208	-225.78735
3.2085	-172.71423
3.209	-126.69067
3.2095	-87.01172
3.21	-16.91895
3.2105	80.66711
3.211	163.14697
3.2115	241.59851
3.212	280.37109
3.2125	291.7511
3.213	371.91467
3.2135	447.34497
3.214	677.16064
3.2145	1092.68188
3.215	1396.82007
3.2155	1385.9436
3.216	1100.93994
3.2165	705.45959
3.217	308.67004
3.2175	-59.82056
3.218	-381.38123
3.2185	-629.82788
3.219	-735.87341
3.2195	-632.34558
3.22	-482.8949
3.2205	-337.47253
3.221	-253.58276
3.2215	-317.33093
3.222	-214.91089
3.2225	30.01099
3.223	164.65759
3.2235	179.66309
3.224	82.88269
3.2245	-77.54517
3.225	-226.79443
3.2255	-305.74951
3.226	-328.2074
3.2265	-318.43872
3.227	-323.37341
3.2275	-271.81091
3.228	-134.64661
3.2285	172.91565
3.229	656.91833
3.2295	1174.6582
3.23	1674.87488
3.2305	1900.96436
3.231	1858.06274
3.2315	1542.54456
3.232	976.06201
3.2325	335.86121
3.233	-221.3562
3.2335	-681.18896
3.234	-1037.19177
3.2345	-1283.12073
3.235	-1378.69263
3.2355	-1362.98218
3.236	-1236.49292
3.2365	-1057.23267
3.237	-830.43823
3.2375	-556.31104
3.238	-398.40088
3.2385	-417.33398
3.239	-401.62354
3.2395	-233.34045
3.24	-94.3634
3.2405	0.80566
3.241	41.99524
3.2415	69.68994
3.242	103.72925
3.2425	94.56482
3.243	77.74658
3.2435	78.25012
3.244	58.91418
3.2445	15.30762
3.245	-28.80249
3.2455	-45.92285
3.246	-41.4917
3.2465	53.27454
3.247	355.9021
3.2475	859.84497
3.248	1490.98206
3.2485	2128.46362
3.249	2275.79956
3.2495	1929.96826
3.25	1314.44092
3.2505	567.1875
3.251	-193.6615
3.2515	-802.54211
3.252	-1187.75024
3.2525	-1338.61084
3.253	-1160.05554
3.2535	-464.36462
3.254	282.28455
3.2545	836.2793
3.255	995.19653
3.2555	791.46423
3.256	267.58118
3.2565	-340.29236
3.257	-881.90002
3.2575	-1237.90283
3.258	-1450.19531
3.2585	-1444.35425
3.259	-1308.70056
3.2595	-1017.35229
3.26	-617.74292
3.2605	-296.88721
3.261	-255.79834
3.2615	-325.58899
3.262	-246.33179
3.2625	-51.36108
3.263	95.97473
3.2635	158.91724
3.264	158.01086
3.2645	113.39722
3.265	33.03223
3.2655	-42.09595
3.266	-68.48145
3.2665	-45.52002
3.267	-31.82373
3.2675	-41.08887
3.268	5.33752
3.2685	95.26978
3.269	162.94556
3.2695	205.94788
3.27	251.77002
3.2705	278.75977
3.271	438.68408
3.2715	771.12122
3.272	1031.55212
3.2725	1047.36328
3.273	799.823
3.2735	430.62744
3.274	49.24622
3.2745	-283.09021
3.275	-587.63123
3.2755	-797.3053
3.276	-851.68762
3.2765	-792.77344
3.277	-678.26843
3.2775	-528.51562
3.278	-323.27271
3.2785	-112.18872
3.279	41.99524
3.2795	88.11951
3.28	50.2533
3.2805	-11.58142
3.281	-45.72144
3.2815	-38.06763
3.282	0.10071
3.2825	50.75684
3.283	97.28394
3.2835	116.922
3.284	114.70642
3.2845	112.08801
3.285	103.125
3.2855	193.46008
3.286	428.8147
3.2865	743.02368
3.287	1046.96045
3.2875	1154.81873
3.288	1031.35071
3.2885	777.1637
3.289	439.69116
3.2895	197.89124
3.29	161.53564
3.2905	400.01221
3.291	695.99304
3.2915	759.23767
3.292	574.84131
3.2925	309.57642
3.293	17.82532
3.2935	-298.39783
3.294	-531.33545
3.2945	-722.78137
3.295	-936.08093
3.2955	-1092.27905
3.296	-957.12891
3.2965	-705.86243
3.297	-532.44324
3.2975	-274.93286
3.298	347.1405
3.2985	809.8938
3.299	876.05896
3.2995	629.82788
3.3	235.25391
3.3005	-175.63477
3.301	-521.8689
3.3015	-759.23767
3.302	-914.22729
3.3025	-990.36255
3.303	-966.29333
3.3035	-894.28711
3.304	-806.46973
3.3045	-624.49036
3.305	-343.81714
3.3055	-117.42554
3.306	2.11487
3.3065	53.27454
3.307	73.41614
3.3075	95.87402
3.308	224.47815
3.3085	571.41724
3.309	889.25171
3.3095	1021.38062
3.31	979.38538
3.3105	789.65149
3.311	507.36694
3.3115	191.44592
3.312	-78.25012
3.3125	-337.77466
3.313	-544.72961
3.3135	-519.55261
3.314	-160.22644
3.3145	234.85107
3.315	627.41089
3.3155	993.38379
3.316	1210.91309
3.3165	1196.91467
3.317	976.46484
3.3175	525.89722
3.318	-23.66638
3.3185	-488.33313
3.319	-861.95984
3.3195	-1156.73218
3.32	-1331.35986
3.3205	-1325.41809
3.321	-1166.80298
3.3215	-971.42944
3.322	-726.30615
3.3225	-489.03809
3.323	-317.73376
3.3235	-213.29956
3.324	-170.70007
3.3245	-177.95105
3.325	-169.7937
3.3255	-128.80554
3.326	-120.7489
3.3265	-124.87793
3.327	-116.61987
3.3275	-87.11243
3.328	-45.11719
3.3285	-4.83398
3.329	16.91895
3.3295	83.38623
3.33	156.50024
3.3305	231.52771
3.331	486.7218
3.3315	943.13049
3.332	1608.81042
3.3325	2018.08777
3.333	2300.77515
3.3335	2356.86938
3.334	2048.09863
3.3345	1613.34229
3.335	1437.70752
3.3355	1205.57556
3.336	825.80566
3.3365	422.06726
3.337	-120.14465
3.3375	-762.1582
3.338	-1331.8634
3.3385	-1743.25562
3.339	-1999.75891
3.3395	-2059.37793
3.34	-2008.72192
3.3405	-1861.08398
3.341	-1665.40833
3.3415	-1469.63196
3.342	-1232.66602
3.3425	-1000.73547
3.343	-670.51392
3.3435	-40.88745
3.344	595.28503
3.3445	878.27454
3.345	1033.16345
3.3455	1175.76599
3.346	1126.8219
3.3465	930.44128
3.347	674.64294
3.3475	418.54248
3.348	182.3822
3.3485	-50.85754
3.349	-262.04224
3.3495	-465.271
3.35	-602.83813
3.3505	-689.44702
3.351	-727.11182
3.3515	-735.57129
3.352	-686.6272
3.3525	-607.4707
3.353	-562.35352
3.3535	-569.20166
3.354	-592.16309
3.3545	-560.54077
3.355	-449.35913
3.3555	-290.44189
3.356	-146.63086
3.3565	-18.32886
3.357	72.81189
3.3575	109.77173
3.358	108.86536
3.3585	101.11084
3.359	99.60022
3.3595	138.07068
3.36	197.3877
3.3605	336.96899
3.361	464.26392
3.3615	516.02783
3.362	529.422
3.3625	575.9491
3.363	701.53198
3.3635	713.0127
3.364	606.06079
3.3645	440.69824
3.365	247.7417
3.3655	70.09277
3.366	-116.922
3.3665	-273.52295
3.367	-352.1759
3.3675	-345.8313
3.368	-314.00757
3.3685	-297.49146
3.369	-289.93835
3.3695	-266.87622
3.37	-226.3916
3.3705	-122.96448
3.371	-1.61133
3.3715	95.26978
3.372	212.5946
3.3725	464.16321
3.373	704.15039
3.3735	1009.69849
3.374	1365.70129
3.3745	1444.35425
3.375	1523.20862
3.3755	1760.17456
3.376	1903.48206
3.3765	1704.98657
3.377	1228.93982
3.3775	757.92847
3.378	371.81396
3.3785	-112.49084
3.379	-605.15442
3.3795	-1056.52771
3.38	-1370.13245
3.3805	-1513.33923
3.381	-1481.31409
3.3815	-1311.62109
3.382	-1077.27356
3.3825	-904.45862
3.383	-789.85291
3.3835	-723.88916
3.384	-710.09216
3.3845	-727.91748
3.385	-726.00403
3.3855	-660.2417
3.386	-560.8429
3.3865	-454.89807
3.387	-358.11768
3.3875	-274.42932
3.388	-154.28467
3.3885	46.22498
3.389	204.73938
3.3895	273.82507
3.39	301.92261
3.3905	276.94702
3.391	305.85022
3.3915	412.60071
3.392	526.09863
3.3925	958.84094
3.393	1363.58643
3.3935	1429.65088
3.394	1195.00122
3.3945	827.11487
3.395	368.99414
3.3955	-71.50269
3.396	-382.89185
3.3965	-520.6604
3.397	-539.59351
3.3975	-562.35352
3.398	-619.35425
3.3985	-671.21887
3.399	-620.0592
3.3995	-525.49438
3.4	-439.08691
3.4005	-421.66443
3.401	-440.69824
3.4015	-461.74622
3.402	-443.71948
3.4025	-114.505
3.403	232.23267
3.4035	412.39929
3.404	578.06396
3.4045	678.57056
3.405	610.29053
3.4055	453.9917
3.406	303.0304
3.4065	187.71973
3.407	125.38147
3.4075	223.06824
3.408	338.37891
3.4085	326.19324
3.409	249.35303
3.4095	127.89917
3.41	-114.10217
3.4105	-418.64319
3.411	-670.51392
3.4115	-824.59717
3.412	-847.86072
3.4125	-745.03784
3.413	-651.07727
3.4135	-570.10803
3.414	-396.68884
3.4145	-137.56714
3.415	7.65381
3.4155	53.57666
3.416	44.61365
3.4165	34.14001
3.417	181.67725
3.4175	541.00342
3.418	877.16675
3.4185	1039.70947
3.419	1004.8645
3.4195	935.07385
3.42	1079.18701
3.4205	1105.77393
3.421	1013.22327
3.4215	885.22339
3.422	773.4375
3.4225	528.11279
3.423	132.63245
3.4235	-324.17908
3.424	-769.20776
3.4245	-1103.05481
3.425	-1275.06409
3.4255	-1353.11279
3.426	-1310.71472
3.4265	-1167.20581
3.427	-976.06201
3.4275	-738.99536
3.428	-517.63916
3.4285	-282.08313
3.429	-85.60181
3.4295	74.72534
3.43	138.77563
3.4305	159.82361
3.431	151.26343
3.4315	151.16272
3.432	142.099
3.4325	102.11792
3.433	66.87012
3.4335	43.50586
3.434	34.24072
3.4345	35.34851
3.435	39.67896
3.4355	15.60974
3.436	-22.96143
3.4365	-57.00073
3.437	-48.84338
3.4375	182.08008
3.438	484.40552
3.4385	633.35266
3.439	675.95215
3.4395	626.20239
3.44	495.68481
3.4405	337.77466
3.441	151.46484
3.4415	-36.15417
3.442	-206.75354
3.4425	-348.85254
3.443	-142.099
3.4435	269.1925
3.444	448.65417
3.4445	554.49829
3.445	675.95215
3.4455	616.33301
3.446	359.93042
3.4465	52.97241
3.447	-237.16736
3.4475	-411.69434
3.448	-27.99683
3.4485	592.86804
3.449	1013.92822
3.4495	1069.31763
3.45	858.63647
3.4505	451.17188
3.451	-30.71594
3.4515	-459.93347
3.452	-880.59082
3.4525	-1242.5354
3.453	-1464.49585
3.4535	-1559.66492
3.454	-1528.24402
3.4545	-1313.13171
3.455	-943.93616
3.4555	-608.47778
3.456	-372.72034
3.4565	-138.77563
3.457	260.63232
3.4575	470.10498
3.458	504.14429
3.4585	459.73206
3.459	350.8667
3.4595	212.19177
3.46	100.90942
3.4605	78.95508
3.461	396.58813
3.4615	745.33997
3.462	851.28479
3.4625	710.495
3.463	453.18604
3.4635	195.97778
3.464	-45.82214
3.4645	-208.7677
3.465	-232.73621
3.4655	-262.8479
3.466	-298.59924
3.4665	-354.5929
3.467	-299.3042
3.4675	-213.50098
3.468	-212.89673
3.4685	-273.72437
3.469	-290.03906
3.4695	-301.31836
3.47	-312.49695
3.4705	-149.24927
3.471	19.13452
3.4715	295.98083
3.472	573.93494
3.4725	668.19763
3.473	635.0647
3.4735	449.15771
3.474	176.13831
3.4745	-13.797
3.475	-122.36023
3.4755	-247.03674
3.476	-365.16724
3.4765	-419.54956
3.477	-435.36072
3.4775	-437.17346
3.478	-369.49768
3.4785	-297.39075
3.479	-324.07837
3.4795	-397.09167
3.48	-307.15942
3.4805	-195.67566
3.481	-90.23438
3.4815	2.61841
3.482	49.95117
3.4825	81.47278
3.483	72.20764
3.4835	268.89038
3.484	557.31812
3.4845	665.78064
3.485	583.40149
3.4855	518.94836
3.486	569.50378
3.4865	554.39758
3.487	485.11047
3.4875	475.24109
3.488	370.20264
3.4885	173.31848
3.489	-37.36267
3.4895	-254.48914
3.49	-415.52124
3.4905	-523.1781
3.491	-616.83655
3.4915	-691.86401
3.492	-694.68384
3.4925	-633.25195
3.493	-508.67615
3.4935	-345.8313
3.494	-207.76062
3.4945	-104.13208
3.495	16.01257
3.4955	116.31775
3.496	168.98804
3.4965	445.63293
3.497	1109.29871
3.4975	1517.06543
3.498	1571.44775
3.4985	1458.45337
3.499	1129.94385
3.4995	794.88831
3.5	520.05615
3.5005	175.83618
3.501	-257.10754
3.5015	-641.61072
3.502	-916.44287
3.5025	-1053.60718
3.503	-1043.13354
3.5035	-903.65295
3.504	-682.49817
3.5045	-525.49438
3.505	-444.72656
3.5055	-450.2655
3.506	-459.22852
3.5065	-440.69824
3.507	-437.77771
3.5075	-422.5708
3.508	-375.33875
3.5085	-301.31836
3.509	-242.30347
3.5095	-211.18469
3.51	-158.5144
3.5105	-118.43262
3.511	-67.77649
3.5115	60.82764
3.512	181.47583
3.5125	249.55444
3.513	292.25464
3.5135	491.85791
3.514	1028.7323
3.5145	1564.70032
3.515	1884.85107
3.5155	1882.43408
3.516	1587.35962
3.5165	1124.20349
3.517	575.04272
3.5175	29.80957
3.518	-445.53223
3.5185	-816.94336
3.519	-1078.48206
3.5195	-1186.44104
3.52	-878.77808
3.5205	-195.87708
3.521	546.03882
3.5215	881.5979
3.522	771.32263
3.5225	379.56848
3.523	-116.31775
3.5235	-520.05615
3.524	-770.31555
3.5245	-804.35486
3.525	-649.46594
3.5255	-447.24426
3.526	-258.92029
3.5265	-19.83948
3.527	163.95264
3.5275	209.57336
3.528	76.84021
3.5285	-161.23352
3.529	-360.13184
3.5295	-504.3457
3.53	-624.59106
3.5305	-729.4281
3.531	-742.82227
3.5315	-667.59338
3.532	-572.12219
3.5325	-547.54944
3.533	-504.3457
3.5335	-418.03894
3.534	-322.66846
3.5345	-235.05249
3.535	-212.5946
3.5355	-195.67566
3.536	-109.4696
3.5365	-46.42639
3.537	26.78833
3.5375	105.6427
3.538	135.04944
3.5385	152.77405
3.539	146.83228
3.5395	148.84644
3.54	214.30664
3.5405	299.70703
3.541	389.63928
3.5415	559.43298
3.542	754.50439
3.5425	870.11719
3.543	852.99683
3.5435	781.49414
3.544	636.57532
3.5445	436.16638
3.545	243.20984
3.5455	83.58765
3.546	-28.70178
3.5465	-0.30212
3.547	634.96399
3.5475	1168.71643
3.548	1242.5354
3.5485	949.37439
3.549	468.39294
3.5495	-64.25171
3.55	-438.28125
3.5505	-581.99158
3.551	-490.64941
3.5515	-384.30176
3.552	-297.69287
3.5525	-281.88171
3.553	-240.69214
3.5535	-19.53735
3.554	173.72131
3.5545	204.13513
3.555	40.88745
3.5555	-163.14697
3.556	-179.66309
3.5565	-69.79065
3.557	9.46655
3.5575	416.93115
3.558	1198.72742
3.5585	1588.66882
3.559	1451.3031
3.5595	979.28467
3.56	324.4812
3.5605	-370.00122
3.561	-941.51917
3.5615	-1415.55176
3.562	-1821.10291
3.5625	-2073.87988
3.563	-2116.07666
3.5635	-1960.78491
3.564	-1587.56104
3.5645	-1076.87073
3.565	-547.0459
3.5655	-66.97083
3.566	369.19556
3.5665	592.06238
3.567	648.45886
3.5675	618.04504
3.568	526.60217
3.5685	382.89185
3.569	197.79053
3.5695	22.76001
3.57	-145.12024
3.5705	-260.12878
3.571	-334.85413
3.5715	-364.46228
3.572	-282.58667
3.5725	-163.34839
3.573	-73.01331
3.5735	0.90637
3.574	50.2533
3.5745	44.81506
3.575	1.91345
3.5755	-16.71753
3.576	-1.40991
3.5765	293.46313
3.577	764.5752
3.5775	1176.67236
3.578	1362.68005
3.5785	1303.46375
3.579	1060.1532
3.5795	713.91907
3.58	318.43872
3.5805	-67.37366
3.581	-385.10742
3.5815	-496.08765
3.582	-538.78784
3.5825	-592.96875
3.583	-629.02222
3.5835	-612.30469
3.584	-575.54626
3.5845	-539.89563
3.585	-489.2395
3.5855	-404.74548
3.586	-210.47974
3.5865	-56.49719
3.587	-7.85522
3.5875	3.02124
3.588	-17.22107
3.5885	149.34998
3.589	334.24988
3.5895	397.09167
3.59	325.18616
3.5905	169.99512
3.591	32.22656
3.5915	-90.33508
3.592	-168.4845
3.5925	-230.82275
3.593	-231.427
3.5935	-104.4342
3.594	-47.93701
3.5945	-77.74658
3.595	-74.12109
3.5955	-6.94885
3.596	45.62073
3.5965	50.65613
3.597	-4.83398
3.5975	-74.02039
3.598	-120.24536
3.5985	-63.84888
3.599	286.11145
3.5995	834.16443
3.6	1108.59375
3.6005	1080.69763
3.601	833.8623
3.6015	444.92798
3.602	56.79932
3.6025	-164.15405
3.603	-324.68262
3.6035	-455.80444
3.604	-559.43298
3.6045	-618.95142
3.605	-634.35974
3.6055	-565.57617
3.606	-381.58264
3.6065	-104.93774
3.607	150.05493
3.6075	438.78479
3.608	646.34399
3.6085	757.52563
3.609	962.76855
3.6095	984.21936
3.61	870.41931
3.6105	962.76855
3.611	995.70007
3.6115	837.38708
3.612	617.5415
3.6125	510.69031
3.613	336.06262
3.6135	93.15491
3.614	-122.66235
3.6145	-384.40247
3.615	-629.62646
3.6155	-810.59875
3.616	-926.21155
3.6165	-985.02502
3.617	-973.3429
3.6175	-846.75293
3.618	-659.83887
3.6185	-541.90979
3.619	-478.76587
3.6195	-397.3938
3.62	-304.13818
3.6205	-158.81653
3.621	-15.81116
3.6215	-0.70496
3.622	-40.38391
3.6225	-135.15015
3.623	-252.97852
3.6235	-345.32776
3.624	-404.34265
3.6245	-419.04602
3.625	-417.13257
3.6255	-404.84619
3.626	-367.2821
3.6265	-322.76917
3.627	-275.13428
3.6275	-208.06274
3.628	-77.74658
3.6285	63.74817
3.629	245.224
3.6295	444.22302
3.63	565.8783
3.6305	611.09619
3.631	596.49353
3.6315	684.00879
3.632	743.52722
3.6325	692.06543
3.633	561.64856
3.6335	475.94604
3.634	680.98755
3.6345	1014.02893
3.635	1179.29077
3.6355	1171.93909
3.636	875.45471
3.6365	399.60938
3.637	-94.76624
3.6375	-589.54468
3.638	-888.54675
3.6385	-818.45398
3.639	-643.02063
3.6395	-480.3772
