Gabriele_Carluccio_Left_2.c3d  



Time(s):	B_R_bicipite(μV):
0	8.35876
0.0005	8.45947
0.001	12.5885
0.0015	8.15735
0.002	2.31628
0.0025	2.31628
0.003	5.53894
0.0035	3.32336
0.004	6.2439
0.0045	5.23682
0.005	10.97717
0.0055	7.65381
0.006	6.64673
0.0065	-1.2085
0.007	3.02124
0.0075	2.21558
0.008	6.3446
0.0085	4.33044
0.009	1.40991
0.0095	7.04956
0.01	7.75452
0.0105	13.29346
0.011	6.74744
0.0115	3.42407
0.012	-0.40283
0.0125	0.30212
0.013	6.74744
0.0135	8.25806
0.014	7.45239
0.0145	6.94885
0.015	6.84814
0.0155	7.15027
0.016	8.15735
0.0165	10.0708
0.017	11.07788
0.0175	13.59558
0.018	9.26514
0.0185	8.96301
0.019	7.35168
0.0195	3.8269
0.02	8.35876
0.0205	12.99133
0.021	10.37292
0.0215	7.95593
0.022	3.32336
0.0225	5.74036
0.023	9.26514
0.0235	9.26514
0.024	13.09204
0.0245	6.74744
0.025	5.74036
0.0255	8.05664
0.026	9.76868
0.0265	8.8623
0.027	8.7616
0.0275	9.16443
0.028	4.53186
0.0285	7.15027
0.029	9.16443
0.0295	10.0708
0.03	4.73328
0.0305	6.74744
0.031	6.94885
0.0315	4.12903
0.032	5.23682
0.0325	6.44531
0.033	3.32336
0.0335	5.43823
0.034	1.40991
0.0345	3.62549
0.035	4.63257
0.0355	7.95593
0.036	6.04248
0.0365	7.25098
0.037	7.85522
0.0375	3.52478
0.038	6.3446
0.0385	7.65381
0.039	2.92053
0.0395	0.60425
0.04	3.52478
0.0405	4.43115
0.041	4.02832
0.0415	2.31628
0.042	6.04248
0.0425	7.75452
0.043	12.38708
0.0435	6.64673
0.044	5.13611
0.0445	5.63965
0.045	10.27222
0.0455	13.99841
0.046	9.97009
0.0465	11.58142
0.047	6.14319
0.0475	9.97009
0.048	6.14319
0.0485	11.38
0.049	10.57434
0.0495	9.16443
0.05	4.12903
0.0505	5.74036
0.051	8.35876
0.0515	8.56018
0.052	6.14319
0.0525	3.8269
0.053	3.62549
0.0535	1.10779
0.054	3.42407
0.0545	-5.43823
0.055	2.31628
0.0555	4.73328
0.056	4.02832
0.0565	8.7616
0.057	9.36584
0.0575	7.65381
0.058	3.42407
0.0585	8.35876
0.059	5.0354
0.0595	4.33044
0.06	4.93469
0.0605	9.76868
0.061	2.21558
0.0615	6.54602
0.062	5.53894
0.0625	4.12903
0.063	3.32336
0.0635	6.3446
0.064	6.74744
0.0645	10.0708
0.065	4.43115
0.0655	-0.50354
0.066	5.13611
0.0665	10.27222
0.067	6.74744
0.0675	6.14319
0.068	10.47363
0.0685	6.2439
0.069	10.87646
0.0695	6.14319
0.07	11.68213
0.0705	3.42407
0.071	8.35876
0.0715	6.44531
0.072	6.74744
0.0725	8.35876
0.073	12.28638
0.0735	2.5177
0.074	5.33752
0.0745	7.35168
0.075	8.8623
0.0755	4.53186
0.076	11.98425
0.0765	11.07788
0.077	10.57434
0.0775	10.17151
0.078	8.8623
0.0785	14.30054
0.079	8.56018
0.0795	2.21558
0.08	2.41699
0.0805	3.7262
0.081	6.2439
0.0815	5.74036
0.082	6.04248
0.0825	2.11487
0.083	-1.51062
0.0835	-4.22974
0.084	-3.32336
0.0845	-5.13611
0.085	-7.15027
0.0855	-2.31628
0.086	4.53186
0.0865	1.10779
0.087	3.8269
0.0875	4.73328
0.088	0.40283
0.0885	0.90637
0.089	-1.3092
0.0895	0.20142
0.09	2.81982
0.0905	2.5177
0.091	5.33752
0.0915	5.74036
0.092	6.94885
0.0925	2.5177
0.093	4.33044
0.0935	7.95593
0.094	4.33044
0.0945	4.22974
0.095	1.2085
0.0955	5.53894
0.096	2.41699
0.0965	5.74036
0.097	2.92053
0.0975	6.74744
0.098	1.91345
0.0985	0.60425
0.099	4.43115
0.0995	4.53186
0.1	1.40991
0.1005	-3.32336
0.101	-2.41699
0.1015	3.22266
0.102	5.23682
0.1025	7.04956
0.103	4.93469
0.1035	2.71912
0.104	4.63257
0.1045	6.84814
0.105	5.43823
0.1055	-0.30212
0.106	4.22974
0.1065	6.44531
0.107	4.93469
0.1075	2.11487
0.108	0.80566
0.1085	7.04956
0.109	8.35876
0.1095	3.7262
0.11	10.17151
0.1105	2.21558
0.111	5.74036
0.1115	4.53186
0.112	8.35876
0.1125	4.33044
0.113	7.25098
0.1135	12.5885
0.114	8.35876
0.1145	4.83398
0.115	7.04956
0.1155	9.26514
0.116	9.46655
0.1165	11.17859
0.117	12.18567
0.1175	4.43115
0.118	-3.02124
0.1185	-4.63257
0.119	1.61133
0.1195	3.52478
0.12	8.35876
0.1205	0.20142
0.121	-1.00708
0.1215	3.52478
0.122	5.84106
0.1225	4.33044
0.123	3.62549
0.1235	0.30212
0.124	5.63965
0.1245	-1.51062
0.125	0.50354
0.1255	-4.63257
0.126	-0.80566
0.1265	-1.3092
0.127	0.50354
0.1275	2.11487
0.128	3.62549
0.1285	3.62549
0.129	5.23682
0.1295	-1.91345
0.13	-1.61133
0.1305	-3.52478
0.131	-3.02124
0.1315	0.90637
0.132	0.70496
0.1325	-2.21558
0.133	-3.32336
0.1335	4.83398
0.134	1.51062
0.1345	0.80566
0.135	5.33752
0.1355	9.16443
0.136	7.5531
0.1365	4.63257
0.137	-2.5177
0.1375	3.62549
0.138	-0.10071
0.1385	0.60425
0.139	-0.60425
0.1395	8.8623
0.14	3.62549
0.1405	4.63257
0.141	6.2439
0.1415	6.94885
0.142	6.64673
0.1425	9.16443
0.143	11.2793
0.1435	10.57434
0.144	10.67505
0.1445	6.04248
0.145	10.77576
0.1455	8.05664
0.146	9.26514
0.1465	5.53894
0.147	8.35876
0.1475	7.35168
0.148	8.05664
0.1485	2.81982
0.149	6.2439
0.1495	5.53894
0.15	4.53186
0.1505	7.35168
0.151	15.1062
0.1515	12.28638
0.152	15.00549
0.1525	11.98425
0.153	16.51611
0.1535	10.57434
0.154	9.56726
0.1545	11.88354
0.155	13.49487
0.1555	10.0708
0.156	18.63098
0.1565	22.35718
0.157	18.22815
0.1575	9.76868
0.158	12.89062
0.1585	7.85522
0.159	8.35876
0.1595	13.69629
0.16	10.87646
0.1605	14.70337
0.161	15.71045
0.1615	11.58142
0.162	16.21399
0.1625	12.78992
0.163	22.45789
0.1635	16.01257
0.164	13.59558
0.1645	17.01965
0.165	16.11328
0.1655	13.797
0.166	10.87646
0.1665	12.38708
0.167	13.09204
0.1675	10.47363
0.168	7.15027
0.1685	8.35876
0.169	3.12195
0.1695	5.84106
0.17	-1.2085
0.1705	2.31628
0.171	-2.5177
0.1715	1.71204
0.172	6.14319
0.1725	3.62549
0.173	0.20142
0.1735	0.20142
0.174	0.70496
0.1745	2.71912
0.175	3.92761
0.1755	5.94177
0.176	2.71912
0.1765	0
0.177	5.33752
0.1775	6.54602
0.178	5.84106
0.1785	8.15735
0.179	10.27222
0.1795	3.02124
0.18	6.64673
0.1805	4.53186
0.181	3.32336
0.1815	4.83398
0.182	1.40991
0.1825	2.01416
0.183	8.8623
0.1835	10.37292
0.184	3.7262
0.1845	7.75452
0.185	13.797
0.1855	2.01416
0.186	1.81274
0.1865	2.01416
0.187	-1.00708
0.1875	-1.61133
0.188	-0.20142
0.1885	1.51062
0.189	1.91345
0.1895	2.11487
0.19	-2.61841
0.1905	-0.40283
0.191	1.51062
0.1915	1.81274
0.192	4.33044
0.1925	4.02832
0.193	6.2439
0.1935	7.45239
0.194	2.61841
0.1945	-2.71912
0.195	1.2085
0.1955	-2.41699
0.196	1.91345
0.1965	0.20142
0.197	3.22266
0.1975	4.83398
0.198	2.61841
0.1985	-0.70496
0.199	7.15027
0.1995	10.27222
0.2	2.5177
0.2005	1.40991
0.201	4.02832
0.2015	4.22974
0.202	4.83398
0.2025	4.63257
0.203	6.74744
0.2035	1.51062
0.204	1.00708
0.2045	-3.12195
0.205	-1.71204
0.2055	4.12903
0.206	-0.20142
0.2065	1.71204
0.207	5.94177
0.2075	4.53186
0.208	0.50354
0.2085	3.8269
0.209	2.5177
0.2095	9.66797
0.21	6.54602
0.2105	6.3446
0.211	4.33044
0.2115	7.65381
0.212	7.95593
0.2125	4.43115
0.213	2.92053
0.2135	6.54602
0.214	2.21558
0.2145	9.26514
0.215	4.63257
0.2155	7.95593
0.216	2.81982
0.2165	-4.93469
0.217	2.61841
0.2175	3.12195
0.218	5.63965
0.2185	5.43823
0.219	3.12195
0.2195	0.70496
0.22	2.31628
0.2205	6.04248
0.221	5.94177
0.2215	3.32336
0.222	3.12195
0.2225	6.54602
0.223	2.41699
0.2235	2.31628
0.224	12.68921
0.2245	8.56018
0.225	9.06372
0.2255	11.38
0.226	10.97717
0.2265	7.95593
0.227	7.95593
0.2275	5.43823
0.228	6.44531
0.2285	9.26514
0.229	3.8269
0.2295	1.3092
0.23	4.83398
0.2305	3.42407
0.231	6.84814
0.2315	5.43823
0.232	11.38
0.2325	11.48071
0.233	9.46655
0.2335	4.83398
0.234	8.96301
0.2345	4.53186
0.235	8.45947
0.2355	9.06372
0.236	2.71912
0.2365	5.0354
0.237	5.94177
0.2375	5.23682
0.238	7.15027
0.2385	3.52478
0.239	4.83398
0.2395	0.10071
0.24	4.73328
0.2405	6.54602
0.241	4.12903
0.2415	2.71912
0.242	9.36584
0.2425	6.74744
0.243	2.31628
0.2435	3.7262
0.244	12.48779
0.2445	4.83398
0.245	-0.40283
0.2455	3.22266
0.246	2.71912
0.2465	2.21558
0.247	3.8269
0.2475	1.91345
0.248	7.45239
0.2485	9.46655
0.249	3.12195
0.2495	3.02124
0.25	5.13611
0.2505	7.25098
0.251	5.63965
0.2515	5.33752
0.252	4.02832
0.2525	5.33752
0.253	4.63257
0.2535	5.74036
0.254	1.2085
0.2545	2.01416
0.255	3.02124
0.2555	4.63257
0.256	5.84106
0.2565	3.92761
0.257	5.0354
0.2575	11.78284
0.258	3.52478
0.2585	5.74036
0.259	4.22974
0.2595	7.04956
0.26	10.97717
0.2605	10.37292
0.261	9.86938
0.2615	4.93469
0.262	2.21558
0.2625	6.2439
0.263	5.74036
0.2635	3.92761
0.264	10.37292
0.2645	9.16443
0.265	3.32336
0.2655	4.12903
0.266	3.52478
0.2665	3.52478
0.267	7.85522
0.2675	2.11487
0.268	3.32336
0.2685	6.74744
0.269	8.45947
0.2695	6.2439
0.27	4.83398
0.2705	5.23682
0.271	5.74036
0.2715	5.74036
0.272	6.3446
0.2725	6.3446
0.273	4.43115
0.2735	2.81982
0.274	4.73328
0.2745	8.05664
0.275	7.15027
0.2755	4.12903
0.276	5.94177
0.2765	5.43823
0.277	7.85522
0.2775	2.01416
0.278	6.44531
0.2785	6.84814
0.279	12.68921
0.2795	12.99133
0.28	16.3147
0.2805	8.56018
0.281	10.47363
0.2815	14.40125
0.282	8.56018
0.2825	11.98425
0.283	14.30054
0.2835	14.60266
0.284	7.95593
0.2845	-1.2085
0.285	-1.91345
0.2855	-5.33752
0.286	-11.38
0.2865	-8.25806
0.287	0.50354
0.2875	4.43115
0.288	8.45947
0.2885	3.32336
0.289	7.15027
0.2895	15.20691
0.29	10.0708
0.2905	3.52478
0.291	6.54602
0.2915	8.05664
0.292	6.04248
0.2925	6.14319
0.293	6.74744
0.2935	-4.73328
0.294	-2.01416
0.2945	-3.52478
0.295	0.40283
0.2955	-6.74744
0.296	-5.74036
0.2965	-2.81982
0.297	1.71204
0.2975	5.23682
0.298	9.26514
0.2985	6.44531
0.299	4.02832
0.2995	5.63965
0.3	3.42407
0.3005	6.84814
0.301	3.7262
0.3015	5.13611
0.302	2.71912
0.3025	5.43823
0.303	1.10779
0.3035	3.22266
0.304	10.87646
0.3045	9.76868
0.305	11.2793
0.3055	5.74036
0.306	7.75452
0.3065	5.74036
0.307	5.94177
0.3075	3.7262
0.308	2.5177
0.3085	3.62549
0.309	6.2439
0.3095	7.85522
0.31	10.77576
0.3105	3.32336
0.311	13.59558
0.3115	8.15735
0.312	8.8623
0.3125	8.66089
0.313	8.05664
0.3135	12.48779
0.314	8.15735
0.3145	8.25806
0.315	8.25806
0.3155	6.54602
0.316	13.09204
0.3165	8.45947
0.317	10.0708
0.3175	10.27222
0.318	5.94177
0.3185	1.2085
0.319	8.35876
0.3195	5.84106
0.32	10.57434
0.3205	2.5177
0.321	2.21558
0.3215	4.43115
0.322	2.41699
0.3225	4.02832
0.323	9.36584
0.3235	3.7262
0.324	0.20142
0.3245	5.0354
0.325	8.56018
0.3255	6.64673
0.326	11.58142
0.3265	5.23682
0.327	4.33044
0.3275	5.74036
0.328	10.87646
0.3285	15.20691
0.329	5.63965
0.3295	6.84814
0.33	4.73328
0.3305	1.3092
0.331	4.22974
0.3315	4.12903
0.332	7.75452
0.3325	7.45239
0.333	9.46655
0.3335	2.71912
0.334	12.68921
0.3345	10.87646
0.335	3.52478
0.3355	7.04956
0.336	-0.40283
0.3365	7.95593
0.337	3.52478
0.3375	5.0354
0.338	2.11487
0.3385	-0.20142
0.339	8.96301
0.3395	9.26514
0.34	8.35876
0.3405	9.16443
0.341	4.43115
0.3415	7.45239
0.342	0.70496
0.3425	4.22974
0.343	4.43115
0.3435	8.56018
0.344	4.02832
0.3445	5.13611
0.345	14.19983
0.3455	8.56018
0.346	4.53186
0.3465	8.56018
0.347	9.06372
0.3475	7.75452
0.348	5.13611
0.3485	4.12903
0.349	7.75452
0.3495	4.83398
0.35	6.2439
0.3505	-0.20142
0.351	-3.92761
0.3515	-3.62549
0.352	0
0.3525	1.91345
0.353	8.25806
0.3535	4.43115
0.354	7.45239
0.3545	6.54602
0.355	7.65381
0.3555	5.43823
0.356	8.66089
0.3565	7.95593
0.357	9.76868
0.3575	5.13611
0.358	5.23682
0.3585	3.62549
0.359	3.32336
0.3595	5.43823
0.36	11.07788
0.3605	8.35876
0.361	3.52478
0.3615	1.10779
0.362	12.28638
0.3625	-0.10071
0.363	3.52478
0.3635	7.5531
0.364	12.78992
0.3645	5.0354
0.365	7.04956
0.3655	4.43115
0.366	8.66089
0.3665	8.8623
0.367	3.02124
0.3675	8.35876
0.368	9.86938
0.3685	5.13611
0.369	3.02124
0.3695	4.02832
0.37	4.12903
0.3705	6.64673
0.371	7.85522
0.3715	3.22266
0.372	6.64673
0.3725	7.65381
0.373	6.94885
0.3735	3.32336
0.374	1.81274
0.3745	8.45947
0.375	4.63257
0.3755	10.87646
0.376	5.0354
0.3765	10.47363
0.377	12.68921
0.3775	5.33752
0.378	7.04956
0.3785	4.73328
0.379	7.5531
0.3795	11.17859
0.38	7.85522
0.3805	7.5531
0.381	4.93469
0.3815	1.91345
0.382	4.33044
0.3825	1.10779
0.383	5.74036
0.3835	3.62549
0.384	10.57434
0.3845	2.11487
0.385	4.02832
0.3855	2.11487
0.386	2.41699
0.3865	6.54602
0.387	0.60425
0.3875	1.71204
0.388	7.04956
0.3885	5.0354
0.389	3.8269
0.3895	4.63257
0.39	5.63965
0.3905	2.11487
0.391	5.13611
0.3915	2.11487
0.392	1.40991
0.3925	6.84814
0.393	4.53186
0.3935	3.02124
0.394	6.74744
0.3945	2.11487
0.395	6.74744
0.3955	4.02832
0.396	4.63257
0.3965	3.42407
0.397	3.02124
0.3975	3.22266
0.398	8.56018
0.3985	9.76868
0.399	8.05664
0.3995	10.67505
0.4	6.74744
0.4005	8.56018
0.401	5.53894
0.4015	8.66089
0.402	9.16443
0.4025	10.0708
0.403	13.797
0.4035	18.53027
0.404	13.99841
0.4045	16.01257
0.405	14.09912
0.4055	8.66089
0.406	7.04956
0.4065	0.90637
0.407	3.22266
0.4075	4.12903
0.408	6.44531
0.4085	1.40991
0.409	2.31628
0.4095	4.83398
0.41	6.44531
0.4105	3.7262
0.411	9.97009
0.4115	4.33044
0.412	7.85522
0.4125	13.99841
0.413	15.71045
0.4135	7.75452
0.414	12.28638
0.4145	8.56018
0.415	4.22974
0.4155	10.27222
0.416	11.07788
0.4165	7.65381
0.417	0
0.4175	3.32336
0.418	1.40991
0.4185	-0.80566
0.419	-1.2085
0.4195	5.53894
0.42	8.66089
0.4205	6.04248
0.421	13.29346
0.4215	3.92761
0.422	5.43823
0.4225	8.05664
0.423	3.12195
0.4235	5.94177
0.424	5.43823
0.4245	4.43115
0.425	3.22266
0.4255	2.31628
0.426	6.14319
0.4265	11.17859
0.427	7.45239
0.4275	7.04956
0.428	1.71204
0.4285	4.12903
0.429	-0.80566
0.4295	0.60425
0.43	5.0354
0.4305	9.76868
0.431	7.25098
0.4315	8.7616
0.432	6.3446
0.4325	4.02832
0.433	8.05664
0.4335	4.33044
0.434	7.85522
0.4345	6.04248
0.435	2.31628
0.4355	6.74744
0.436	9.86938
0.4365	3.12195
0.437	6.84814
0.4375	4.53186
0.438	3.32336
0.4385	6.04248
0.439	2.71912
0.4395	11.07788
0.44	14.30054
0.4405	5.0354
0.441	9.76868
0.4415	9.16443
0.442	8.15735
0.4425	7.95593
0.443	14.40125
0.4435	11.88354
0.444	10.57434
0.4445	17.32178
0.445	14.19983
0.4455	13.29346
0.446	7.45239
0.4465	5.33752
0.447	-2.61841
0.4475	-6.3446
0.448	-1.51062
0.4485	-4.93469
0.449	7.25098
0.4495	3.12195
0.45	4.63257
0.4505	3.7262
0.451	-0.90637
0.4515	1.00708
0.452	0.60425
0.4525	-2.31628
0.453	2.81982
0.4535	10.47363
0.454	3.8269
0.4545	6.44531
0.455	8.56018
0.4555	2.81982
0.456	6.44531
0.4565	12.48779
0.457	17.32178
0.4575	12.08496
0.458	8.15735
0.4585	2.92053
0.459	2.41699
0.4595	4.02832
0.46	3.92761
0.4605	6.3446
0.461	0.70496
0.4615	-0.80566
0.462	0.90637
0.4625	4.33044
0.463	5.74036
0.4635	0.10071
0.464	5.0354
0.4645	4.12903
0.465	7.25098
0.4655	3.7262
0.466	1.61133
0.4665	5.13611
0.467	7.35168
0.4675	8.66089
0.468	3.62549
0.4685	4.22974
0.469	10.67505
0.4695	1.51062
0.47	5.53894
0.4705	7.04956
0.471	7.25098
0.4715	5.84106
0.472	0.70496
0.4725	5.33752
0.473	1.91345
0.4735	3.92761
0.474	8.05664
0.4745	8.35876
0.475	9.26514
0.4755	2.71912
0.476	4.93469
0.4765	-0.20142
0.477	1.10779
0.4775	3.42407
0.478	6.14319
0.4785	2.41699
0.479	3.12195
0.4795	2.21558
0.48	-0.80566
0.4805	5.63965
0.481	6.2439
0.4815	9.76868
0.482	10.0708
0.4825	7.95593
0.483	4.02832
0.4835	5.94177
0.484	1.3092
0.4845	8.05664
0.485	4.83398
0.4855	0
0.486	1.51062
0.4865	-2.21558
0.487	7.75452
0.4875	-0.90637
0.488	4.83398
0.4885	5.43823
0.489	9.76868
0.4895	7.35168
0.49	6.44531
0.4905	5.53894
0.491	2.41699
0.4915	2.01416
0.492	3.12195
0.4925	3.62549
0.493	5.13611
0.4935	3.52478
0.494	5.13611
0.4945	8.25806
0.495	2.21558
0.4955	5.0354
0.496	7.65381
0.4965	1.2085
0.497	5.94177
0.4975	6.54602
0.498	3.02124
0.4985	7.04956
0.499	7.5531
0.4995	10.27222
0.5	6.54602
0.5005	4.53186
0.501	-2.81982
0.5015	2.92053
0.502	-1.10779
0.5025	1.2085
0.503	0.40283
0.5035	6.64673
0.504	5.43823
0.5045	2.31628
0.505	6.04248
0.5055	4.02832
0.506	4.02832
0.5065	5.94177
0.507	6.94885
0.5075	4.12903
0.508	2.01416
0.5085	2.71912
0.509	3.52478
0.5095	-0.70496
0.51	4.53186
0.5105	4.63257
0.511	8.56018
0.5115	11.78284
0.512	8.45947
0.5125	5.94177
0.513	5.74036
0.5135	11.38
0.514	9.46655
0.5145	5.0354
0.515	2.92053
0.5155	3.52478
0.516	4.43115
0.5165	10.57434
0.517	5.53894
0.5175	7.35168
0.518	11.2793
0.5185	8.35876
0.519	10.57434
0.5195	11.07788
0.52	7.5531
0.5205	6.14319
0.521	1.81274
0.5215	7.25098
0.522	4.02832
0.5225	5.84106
0.523	-8.56018
0.5235	-5.94177
0.524	-12.48779
0.5245	-10.0708
0.525	-14.19983
0.5255	-9.76868
0.526	-7.85522
0.5265	2.81982
0.527	7.15027
0.5275	6.2439
0.528	2.31628
0.5285	7.75452
0.529	5.94177
0.5295	9.76868
0.53	5.13611
0.5305	6.94885
0.531	4.22974
0.5315	9.66797
0.532	13.19275
0.5325	12.08496
0.533	11.17859
0.5335	13.69629
0.534	12.68921
0.5345	11.68213
0.535	9.46655
0.5355	5.0354
0.536	9.56726
0.5365	10.67505
0.537	11.07788
0.5375	15.91187
0.538	15.40833
0.5385	13.69629
0.539	12.89062
0.5395	5.63965
0.54	1.61133
0.5405	-5.33752
0.541	-8.45947
0.5415	-16.91895
0.542	-16.01257
0.5425	-25.07629
0.543	-20.04089
0.5435	-12.89062
0.544	-3.92761
0.5445	7.45239
0.545	18.32886
0.5455	20.34302
0.546	24.57275
0.5465	28.60107
0.547	24.27063
0.5475	29.60815
0.548	23.36426
0.5485	23.16284
0.549	20.64514
0.5495	19.33594
0.55	17.12036
0.5505	10.87646
0.551	16.71753
0.5515	9.97009
0.552	10.27222
0.5525	4.53186
0.553	0.10071
0.5535	-6.74744
0.554	-36.35559
0.5545	-50.45471
0.555	-62.74109
0.5555	-83.99048
0.556	-100.80872
0.5565	-97.18323
0.557	-103.52783
0.5575	-102.82288
0.558	-95.47119
0.5585	-72.10693
0.559	-60.4248
0.5595	-36.15417
0.56	-7.95593
0.5605	12.08496
0.561	36.65771
0.5615	58.71277
0.562	81.97632
0.5625	95.26978
0.563	100.80872
0.5635	96.17615
0.564	85.70251
0.5645	90.23438
0.565	90.33508
0.5655	88.11951
0.566	69.38782
0.5665	38.77258
0.567	10.87646
0.5675	4.43115
0.568	-4.63257
0.5685	-12.38708
0.569	-24.77417
0.5695	-22.76001
0.57	-17.42249
0.5705	-12.28638
0.571	2.11487
0.5715	15.91187
0.572	28.70178
0.5725	34.24072
0.573	42.29736
0.5735	51.46179
0.574	58.30994
0.5745	56.19507
0.575	65.66162
0.5755	63.44604
0.576	60.22339
0.5765	54.28162
0.577	42.09595
0.5775	33.73718
0.578	26.18408
0.5785	24.37134
0.579	20.44373
0.5795	15.30762
0.58	8.05664
0.5805	3.22266
0.581	1.3092
0.5815	-2.61841
0.582	1.71204
0.5825	-5.74036
0.583	-5.74036
0.5835	-15.1062
0.584	-23.8678
0.5845	-26.58691
0.585	-31.21948
0.5855	-39.88037
0.586	-31.52161
0.5865	-27.29187
0.587	-27.6947
0.5875	-23.56567
0.588	-19.43665
0.5885	-5.63965
0.589	6.84814
0.5895	16.91895
0.59	26.58691
0.5905	29.60815
0.591	32.83081
0.5915	42.19666
0.592	44.21082
0.5925	47.33276
0.593	41.59241
0.5935	38.974
0.594	31.72302
0.5945	28.39966
0.595	23.66638
0.5955	16.41541
0.596	5.0354
0.5965	0.20142
0.597	1.3092
0.5975	3.02124
0.598	2.21558
0.5985	3.02124
0.599	6.74744
0.5995	1.81274
0.6	1.00708
0.6005	-1.00708
0.601	4.33044
0.6015	7.5531
0.602	4.93469
0.6025	-3.12195
0.603	5.74036
0.6035	1.3092
0.604	2.21558
0.6045	-3.92761
0.605	-2.41699
0.6055	-0.20142
0.606	3.12195
0.6065	1.10779
0.607	8.56018
0.6075	5.23682
0.608	4.33044
0.6085	5.94177
0.609	-0.70496
0.6095	3.02124
0.61	5.63965
0.6105	2.01416
0.611	3.92761
0.6115	8.35876
0.612	5.74036
0.6125	5.53894
0.613	1.81274
0.6135	2.11487
0.614	4.53186
0.6145	6.64673
0.615	4.33044
0.6155	9.86938
0.616	7.75452
0.6165	12.18567
0.617	3.8269
0.6175	6.74744
0.618	3.22266
0.6185	12.89062
0.619	11.78284
0.6195	10.37292
0.62	13.19275
0.6205	7.15027
0.621	7.95593
0.6215	7.5531
0.622	9.86938
0.6225	3.22266
0.623	3.62549
0.6235	4.22974
0.624	3.62549
0.6245	1.3092
0.625	4.73328
0.6255	3.52478
0.626	0.40283
0.6265	-5.84106
0.627	-1.40991
0.6275	-4.63257
0.628	1.61133
0.6285	3.22266
0.629	3.32336
0.6295	5.23682
0.63	7.25098
0.6305	5.94177
0.631	8.05664
0.6315	6.3446
0.632	11.68213
0.6325	3.92761
0.633	1.81274
0.6335	-1.2085
0.634	2.11487
0.6345	-0.70496
0.635	-2.41699
0.6355	1.2085
0.636	4.22974
0.6365	6.14319
0.637	5.0354
0.6375	0.70496
0.638	3.92761
0.6385	-0.60425
0.639	3.7262
0.6395	5.33752
0.64	10.27222
0.6405	4.02832
0.641	4.63257
0.6415	10.0708
0.642	5.23682
0.6425	4.83398
0.643	6.64673
0.6435	11.48071
0.644	7.15027
0.6445	10.87646
0.645	10.0708
0.6455	4.33044
0.646	-2.21558
0.6465	2.21558
0.647	4.12903
0.6475	5.23682
0.648	5.13611
0.6485	6.04248
0.649	3.7262
0.6495	9.56726
0.65	7.5531
0.6505	-1.51062
0.651	2.5177
0.6515	4.43115
0.652	5.43823
0.6525	10.47363
0.653	4.53186
0.6535	8.05664
0.654	4.43115
0.6545	6.84814
0.655	6.44531
0.6555	8.96301
0.656	10.0708
0.6565	6.14319
0.657	7.45239
0.6575	5.53894
0.658	10.27222
0.6585	3.8269
0.659	6.84814
0.6595	4.22974
0.66	0.90637
0.6605	6.54602
0.661	8.15735
0.6615	2.21558
0.662	4.93469
0.6625	5.43823
0.663	5.84106
0.6635	13.797
0.664	7.5531
0.6645	10.27222
0.665	8.56018
0.6655	11.2793
0.666	5.23682
0.6665	2.11487
0.667	10.0708
0.6675	7.75452
0.668	5.74036
0.6685	7.25098
0.669	8.8623
0.6695	15.91187
0.67	11.78284
0.6705	11.38
0.671	1.40991
0.6715	5.53894
0.672	3.12195
0.6725	4.53186
0.673	3.7262
0.6735	0.70496
0.674	8.96301
0.6745	2.5177
0.675	3.02124
0.6755	5.53894
0.676	8.8623
0.6765	10.57434
0.677	4.83398
0.6775	9.76868
0.678	7.65381
0.6785	6.94885
0.679	4.33044
0.6795	8.15735
0.68	7.25098
0.6805	4.93469
0.681	5.33752
0.6815	6.2439
0.682	6.44531
0.6825	8.35876
0.683	8.8623
0.6835	7.75452
0.684	5.74036
0.6845	6.3446
0.685	6.3446
0.6855	-1.81274
0.686	4.43115
0.6865	4.73328
0.687	-1.3092
0.6875	4.73328
0.688	5.63965
0.6885	4.43115
0.689	2.41699
0.6895	2.11487
0.69	-1.51062
0.6905	0.20142
0.691	2.5177
0.6915	3.32336
0.692	4.73328
0.6925	3.22266
0.693	2.71912
0.6935	4.63257
0.694	5.13611
0.6945	3.02124
0.695	0
0.6955	4.12903
0.696	4.83398
0.6965	12.78992
0.697	11.17859
0.6975	15.30762
0.698	12.18567
0.6985	3.7262
0.699	11.17859
0.6995	6.2439
0.7	5.33752
0.7005	9.26514
0.701	-2.61841
0.7015	3.02124
0.702	2.61841
0.7025	-4.63257
0.703	0.70496
0.7035	-2.61841
0.704	-4.43115
0.7045	-3.32336
0.705	-2.21558
0.7055	-2.5177
0.706	-1.51062
0.7065	5.84106
0.707	3.92761
0.7075	-5.84106
0.708	-1.81274
0.7085	-5.94177
0.709	-3.32336
0.7095	-3.12195
0.71	-0.60425
0.7105	0.40283
0.711	-4.02832
0.7115	1.10779
0.712	3.52478
0.7125	7.5531
0.713	7.25098
0.7135	7.5531
0.714	9.66797
0.7145	4.43115
0.715	5.84106
0.7155	10.77576
0.716	9.56726
0.7165	9.06372
0.717	8.15735
0.7175	9.26514
0.718	5.43823
0.7185	7.04956
0.719	4.53186
0.7195	12.38708
0.72	4.22974
0.7205	1.81274
0.721	10.87646
0.7215	0.30212
0.722	-4.63257
0.7225	-4.63257
0.723	-7.85522
0.7235	-8.7616
0.724	-1.61133
0.7245	-3.8269
0.725	2.21558
0.7255	-1.81274
0.726	5.13611
0.7265	6.84814
0.727	11.48071
0.7275	13.49487
0.728	19.43665
0.7285	20.94727
0.729	20.54443
0.7295	17.12036
0.73	14.50195
0.7305	17.52319
0.731	13.89771
0.7315	9.06372
0.732	9.46655
0.7325	4.22974
0.733	1.2085
0.7335	-0.20142
0.734	1.61133
0.7345	1.61133
0.735	-3.32336
0.7355	-2.71912
0.736	-1.81274
0.7365	5.74036
0.737	10.87646
0.7375	-1.71204
0.738	-9.16443
0.7385	-12.68921
0.739	-18.22815
0.7395	-10.77576
0.74	-12.18567
0.7405	-4.33044
0.741	1.81274
0.7415	2.21558
0.742	6.44531
0.7425	12.68921
0.743	17.82532
0.7435	24.67346
0.744	25.88196
0.7445	21.3501
0.745	25.88196
0.7455	31.32019
0.746	27.49329
0.7465	31.4209
0.747	29.10461
0.7475	28.60107
0.748	26.68762
0.7485	13.89771
0.749	4.63257
0.7495	3.7262
0.75	-0.80566
0.7505	2.5177
0.751	6.14319
0.7515	1.81274
0.752	2.71912
0.7525	4.93469
0.753	2.41699
0.7535	1.3092
0.754	1.40991
0.7545	0.50354
0.755	2.71912
0.7555	-2.71912
0.756	-0.80566
0.7565	-1.40991
0.757	-2.31628
0.7575	1.81274
0.758	-0.90637
0.7585	1.00708
0.759	-0.70496
0.7595	4.63257
0.76	3.62549
0.7605	5.74036
0.761	6.3446
0.7615	2.01416
0.762	2.81982
0.7625	3.42407
0.763	-3.7262
0.7635	-5.23682
0.764	2.71912
0.7645	-2.31628
0.765	2.31628
0.7655	0.30212
0.766	4.33044
0.7665	5.84106
0.767	5.94177
0.7675	6.14319
0.768	4.53186
0.7685	7.35168
0.769	6.84814
0.7695	0.50354
0.77	-1.00708
0.7705	1.61133
0.771	5.84106
0.7715	10.97717
0.772	12.08496
0.7725	15.00549
0.773	16.51611
0.7735	9.97009
0.774	8.35876
0.7745	3.7262
0.775	-0.20142
0.7755	-2.61841
0.776	-13.29346
0.7765	-29.30603
0.777	-37.7655
0.7775	-39.47754
0.778	-51.15967
0.7785	-43.20374
0.779	-40.48462
0.7795	-33.83789
0.78	-34.14001
0.7805	-26.78833
0.781	-13.89771
0.7815	-4.93469
0.782	12.08496
0.7825	4.12903
0.783	-0.50354
0.7835	-6.14319
0.784	-2.01416
0.7845	-3.7262
0.785	8.7616
0.7855	2.92053
0.786	5.23682
0.7865	10.77576
0.787	11.78284
0.7875	15.30762
0.788	18.02673
0.7885	17.72461
0.789	18.32886
0.7895	21.45081
0.79	26.3855
0.7905	27.29187
0.791	30.91736
0.7915	26.18408
0.792	31.21948
0.7925	32.52869
0.793	33.63647
0.7935	36.25488
0.794	38.67188
0.7945	33.33435
0.795	19.53735
0.7955	21.85364
0.796	22.45789
0.7965	25.68054
0.797	19.03381
0.7975	18.8324
0.798	-4.83398
0.7985	-22.86072
0.799	-31.62231
0.7995	-38.06763
0.8	-48.74268
0.8005	-40.88745
0.801	-33.33435
0.8015	-27.99683
0.802	-20.54443
0.8025	-2.01416
0.803	9.97009
0.8035	26.68762
0.804	34.44214
0.8045	49.14551
0.805	56.79932
0.8055	54.68445
0.806	47.7356
0.8065	40.48462
0.807	26.68762
0.8075	19.94019
0.808	18.93311
0.8085	5.33752
0.809	7.5531
0.8095	1.81274
0.81	-0.90637
0.8105	4.93469
0.811	6.84814
0.8115	11.88354
0.812	17.6239
0.8125	25.177
0.813	29.20532
0.8135	34.44214
0.814	39.37683
0.8145	41.69312
0.815	41.79382
0.8155	40.2832
0.816	30.01099
0.8165	30.91736
0.817	23.36426
0.8175	8.66089
0.818	-0.80566
0.8185	0.20142
0.819	-2.31628
0.8195	0.60425
0.82	3.42407
0.8205	-2.31628
0.821	0
0.8215	0
0.822	-2.11487
0.8225	-0.30212
0.823	2.21558
0.8235	3.42407
0.824	-7.15027
0.8245	2.01416
0.825	-2.31628
0.8255	1.2085
0.826	2.31628
0.8265	3.92761
0.827	2.5177
0.8275	4.73328
0.828	5.63965
0.8285	5.74036
0.829	1.2085
0.8295	-4.93469
0.83	3.7262
0.8305	-0.60425
0.831	4.02832
0.8315	-0.70496
0.832	3.02124
0.8325	1.71204
0.833	-0.80566
0.8335	-1.91345
0.834	-1.10779
0.8345	1.3092
0.835	-8.15735
0.8355	-10.17151
0.836	-7.65381
0.8365	-9.76868
0.837	-5.63965
0.8375	-7.35168
0.838	-5.63965
0.8385	-1.51062
0.839	1.00708
0.8395	6.64673
0.84	8.56018
0.8405	9.36584
0.841	13.89771
0.8415	9.46655
0.842	8.7616
0.8425	4.73328
0.843	4.63257
0.8435	7.65381
0.844	10.17151
0.8445	12.08496
0.845	10.0708
0.8455	13.69629
0.846	13.09204
0.8465	10.17151
0.847	12.08496
0.8475	5.53894
0.848	3.32336
0.8485	3.42407
0.849	0.30212
0.8495	5.33752
0.85	4.33044
0.8505	4.53186
0.851	7.04956
0.8515	10.47363
0.852	3.32336
0.8525	0.30212
0.853	2.81982
0.8535	3.42407
0.854	11.17859
0.8545	10.97717
0.855	5.0354
0.8555	4.02832
0.856	6.74744
0.8565	7.85522
0.857	4.12903
0.8575	3.12195
0.858	4.22974
0.8585	-1.81274
0.859	-1.10779
0.8595	4.53186
0.86	5.63965
0.8605	3.02124
0.861	1.00708
0.8615	-0.50354
0.862	0.80566
0.8625	3.12195
0.863	3.62549
0.8635	3.92761
0.864	-1.71204
0.8645	5.13611
0.865	6.74744
0.8655	4.33044
0.866	4.63257
0.8665	11.2793
0.867	11.2793
0.8675	2.5177
0.868	0.10071
0.8685	0.70496
0.869	3.02124
0.8695	6.44531
0.87	3.8269
0.8705	5.94177
0.871	3.12195
0.8715	4.33044
0.872	2.41699
0.8725	4.83398
0.873	-0.90637
0.8735	9.26514
0.874	5.23682
0.8745	6.54602
0.875	14.90479
0.8755	4.63257
0.876	5.33752
0.8765	1.71204
0.877	0.60425
0.8775	-0.60425
0.878	2.01416
0.8785	5.13611
0.879	4.53186
0.8795	6.74744
0.88	3.52478
0.8805	3.42407
0.881	4.63257
0.8815	-0.20142
0.882	2.01416
0.8825	1.40991
0.883	6.64673
0.8835	6.44531
0.884	2.71912
0.8845	12.68921
0.885	12.5885
0.8855	9.86938
0.886	7.85522
0.8865	15.50903
0.887	13.19275
0.8875	13.49487
0.888	14.19983
0.8885	15.1062
0.889	13.09204
0.8895	8.05664
0.89	3.12195
0.8905	-3.7262
0.891	-2.01416
0.8915	0.90637
0.892	2.21558
0.8925	-6.94885
0.893	-10.87646
0.8935	-10.67505
0.894	-6.3446
0.8945	-2.71912
0.895	4.43115
0.8955	0.60425
0.896	4.22974
0.8965	-1.00708
0.897	-1.51062
0.8975	1.2085
0.898	2.5177
0.8985	7.35168
0.899	4.12903
0.8995	2.31628
0.9	5.0354
0.9005	9.97009
0.901	2.11487
0.9015	7.65381
0.902	4.63257
0.9025	5.63965
0.903	7.04956
0.9035	3.8269
0.904	0.10071
0.9045	-2.41699
0.905	3.92761
0.9055	-2.61841
0.906	1.3092
0.9065	-1.3092
0.907	3.02124
0.9075	8.8623
0.908	7.35168
0.9085	7.5531
0.909	3.92761
0.9095	6.54602
0.91	5.43823
0.9105	6.64673
0.911	6.84814
0.9115	2.61841
0.912	7.5531
0.9125	4.22974
0.913	5.53894
0.9135	9.26514
0.914	9.97009
0.9145	6.04248
0.915	0.90637
0.9155	6.54602
0.916	3.32336
0.9165	5.63965
0.917	7.04956
0.9175	7.15027
0.918	11.78284
0.9185	3.52478
0.919	2.71912
0.9195	4.83398
0.92	3.12195
0.9205	8.56018
0.921	6.74744
0.9215	9.46655
0.922	7.04956
0.9225	5.63965
0.923	4.33044
0.9235	7.25098
0.924	8.66089
0.9245	10.27222
0.925	12.5885
0.9255	11.2793
0.926	9.36584
0.9265	5.23682
0.927	6.74744
0.9275	8.56018
0.928	4.12903
0.9285	6.04248
0.929	6.74744
0.9295	4.22974
0.93	8.25806
0.9305	12.08496
0.931	13.09204
0.9315	12.08496
0.932	8.96301
0.9325	11.07788
0.933	7.5531
0.9335	12.08496
0.934	11.98425
0.9345	8.66089
0.935	8.96301
0.9355	3.92761
0.936	3.92761
0.9365	4.43115
0.937	5.43823
0.9375	6.94885
0.938	6.04248
0.9385	8.25806
0.939	7.15027
0.9395	5.74036
0.94	8.15735
0.9405	9.56726
0.941	1.61133
0.9415	7.15027
0.942	3.42407
0.9425	8.25806
0.943	7.85522
0.9435	6.64673
0.944	11.78284
0.9445	1.61133
0.945	3.02124
0.9455	4.53186
0.946	2.11487
0.9465	3.32336
0.947	4.93469
0.9475	6.94885
0.948	3.22266
0.9485	4.63257
0.949	0.30212
0.9495	4.53186
0.95	1.71204
0.9505	3.32336
0.951	3.52478
0.9515	1.61133
0.952	7.85522
0.9525	3.22266
0.953	1.2085
0.9535	1.51062
0.954	1.61133
0.9545	1.91345
0.955	5.13611
0.9555	-2.5177
0.956	5.13611
0.9565	2.31628
0.957	1.00708
0.9575	9.06372
0.958	3.52478
0.9585	-2.31628
0.959	0.20142
0.9595	-2.21558
0.96	1.00708
0.9605	0.20142
0.961	3.7262
0.9615	3.22266
0.962	3.52478
0.9625	4.22974
0.963	10.0708
0.9635	11.78284
0.964	7.85522
0.9645	6.3446
0.965	4.73328
0.9655	7.5531
0.966	7.85522
0.9665	4.43115
0.967	10.17151
0.9675	5.74036
0.968	6.84814
0.9685	9.66797
0.969	11.68213
0.9695	10.87646
0.97	8.66089
0.9705	5.63965
0.971	8.7616
0.9715	5.23682
0.972	9.06372
0.9725	8.35876
0.973	7.04956
0.9735	6.74744
0.974	6.94885
0.9745	7.5531
0.975	2.71912
0.9755	3.02124
0.976	0.80566
0.9765	7.75452
0.977	4.73328
0.9775	8.15735
0.978	2.41699
0.9785	-0.10071
0.979	5.94177
0.9795	5.23682
0.98	-1.3092
0.9805	-2.71912
0.981	-1.2085
0.9815	3.12195
0.982	4.02832
0.9825	-0.20142
0.983	5.74036
0.9835	8.05664
0.984	10.27222
0.9845	10.47363
0.985	10.57434
0.9855	9.06372
0.986	4.53186
0.9865	10.87646
0.987	10.77576
0.9875	9.06372
0.988	7.75452
0.9885	10.97717
0.989	6.04248
0.9895	8.66089
0.99	5.33752
0.9905	2.41699
0.991	4.93469
0.9915	2.5177
0.992	8.66089
0.9925	5.13611
0.993	3.12195
0.9935	6.04248
0.994	7.75452
0.9945	6.94885
0.995	12.38708
0.9955	5.33752
0.996	3.22266
0.9965	6.2439
0.997	5.33752
0.9975	6.64673
0.998	5.84106
0.9985	9.66797
0.999	12.99133
0.9995	9.36584
1	4.63257
1.0005	8.45947
1.001	8.56018
1.0015	6.74744
1.002	6.14319
1.0025	8.96301
1.003	12.18567
1.0035	11.68213
1.004	13.59558
1.0045	7.15027
1.005	4.63257
1.0055	8.66089
1.006	8.56018
1.0065	11.78284
1.007	8.15735
1.0075	11.07788
1.008	5.63965
1.0085	9.06372
1.009	2.71912
1.0095	9.36584
1.01	2.11487
1.0105	5.0354
1.011	1.61133
1.0115	3.92761
1.012	2.01416
1.0125	3.02124
1.013	1.71204
1.0135	3.32336
1.014	1.81274
1.0145	3.52478
1.015	8.96301
1.0155	-2.81982
1.016	4.93469
1.0165	3.7262
1.017	-0.60425
1.0175	-2.41699
1.018	-1.91345
1.0185	4.33044
1.019	1.71204
1.0195	-0.80566
1.02	4.22974
1.0205	-3.22266
1.021	1.91345
1.0215	-1.71204
1.022	2.92053
1.0225	-0.10071
1.023	2.5177
1.0235	-2.31628
1.024	2.5177
1.0245	-0.20142
1.025	-2.01416
1.0255	1.61133
1.026	-0.70496
1.0265	2.5177
1.027	6.84814
1.0275	8.35876
1.028	4.53186
1.0285	7.75452
1.029	8.8623
1.0295	4.02832
1.03	2.5177
1.0305	-2.71912
1.031	-0.20142
1.0315	4.02832
1.032	-1.00708
1.0325	-3.22266
1.033	-6.54602
1.0335	-6.84814
1.034	0.30212
1.0345	-0.70496
1.035	2.31628
1.0355	1.61133
1.036	1.71204
1.0365	0.60425
1.037	-4.83398
1.0375	-6.94885
1.038	-2.31628
1.0385	2.21558
1.039	2.61841
1.0395	0.80566
1.04	1.3092
1.0405	-0.90637
1.041	4.83398
1.0415	3.42407
1.042	1.61133
1.0425	9.16443
1.043	12.18567
1.0435	12.18567
1.044	9.66797
1.0445	6.64673
1.045	9.46655
1.0455	12.28638
1.046	13.29346
1.0465	12.28638
1.047	15.60974
1.0475	14.19983
1.048	10.37292
1.0485	6.84814
1.049	2.01416
1.0495	4.63257
1.05	6.2439
1.0505	8.96301
1.051	3.8269
1.0515	9.76868
1.052	10.47363
1.0525	13.99841
1.053	16.51611
1.0535	15.71045
1.054	18.42957
1.0545	13.797
1.055	11.2793
1.0555	12.78992
1.056	12.28638
1.0565	10.37292
1.057	9.46655
1.0575	10.67505
1.058	15.60974
1.0585	16.51611
1.059	15.1062
1.0595	12.38708
1.06	17.32178
1.0605	10.77576
1.061	9.97009
1.0615	16.3147
1.062	17.82532
1.0625	16.41541
1.063	12.38708
1.0635	10.67505
1.064	8.35876
1.0645	14.70337
1.065	14.40125
1.0655	16.51611
1.066	13.29346
1.0665	12.99133
1.067	6.54602
1.0675	15.30762
1.068	14.50195
1.0685	14.50195
1.069	10.87646
1.0695	9.97009
1.07	12.5885
1.0705	11.17859
1.071	12.28638
1.0715	4.43115
1.072	5.43823
1.0725	12.5885
1.073	5.94177
1.0735	8.35876
1.074	7.95593
1.0745	15.91187
1.075	2.21558
1.0755	-0.90637
1.076	1.3092
1.0765	2.21558
1.077	3.62549
1.0775	-0.70496
1.078	1.10779
1.0785	-3.52478
1.079	3.62549
1.0795	0.10071
1.08	8.66089
1.0805	4.33044
1.081	3.8269
1.0815	-4.22974
1.082	4.02832
1.0825	3.7262
1.083	0.20142
1.0835	5.0354
1.084	3.8269
1.0845	-0.70496
1.085	1.2085
1.0855	-2.21558
1.086	-3.12195
1.0865	-1.51062
1.087	-0.20142
1.0875	-1.00708
1.088	2.5177
1.0885	0.50354
1.089	-0.60425
1.0895	3.02124
1.09	-3.32336
1.0905	-1.91345
1.091	-8.45947
1.0915	-1.71204
1.092	-0.90637
1.0925	-1.40991
1.093	-0.20142
1.0935	1.2085
1.094	4.43115
1.0945	4.83398
1.095	3.62549
1.0955	1.40991
1.096	1.00708
1.0965	3.42407
1.097	10.37292
1.0975	2.92053
1.098	5.53894
1.0985	3.7262
1.099	4.83398
1.0995	2.61841
1.1	1.81274
1.1005	-0.20142
1.101	6.94885
1.1015	6.74744
1.102	7.45239
1.1025	-3.02124
1.103	-1.2085
1.1035	4.02832
1.104	4.02832
1.1045	1.00708
1.105	6.2439
1.1055	4.93469
1.106	4.02832
1.1065	0.80566
1.107	3.7262
1.1075	1.61133
1.108	7.25098
1.1085	8.45947
1.109	2.21558
1.1095	3.42407
1.11	0.10071
1.1105	5.23682
1.111	4.22974
1.1115	6.44531
1.112	7.35168
1.1125	7.75452
1.113	2.5177
1.1135	-0.30212
1.114	3.22266
1.1145	8.15735
1.115	7.25098
1.1155	5.94177
1.116	7.75452
1.1165	6.84814
1.117	6.84814
1.1175	3.7262
1.118	5.53894
1.1185	-1.51062
1.119	-2.41699
1.1195	-1.51062
1.12	1.61133
1.1205	3.52478
1.121	-1.00708
1.1215	4.93469
1.122	6.04248
1.1225	3.7262
1.123	1.81274
1.1235	3.8269
1.124	4.63257
1.1245	1.71204
1.125	7.04956
1.1255	2.31628
1.126	4.83398
1.1265	-0.60425
1.127	6.14319
1.1275	5.94177
1.128	3.12195
1.1285	2.92053
1.129	2.92053
1.1295	7.15027
1.13	7.04956
1.1305	7.04956
1.131	11.98425
1.1315	12.38708
1.132	8.35876
1.1325	7.75452
1.133	8.66089
1.1335	3.22266
1.134	10.67505
1.1345	6.54602
1.135	10.97717
1.1355	9.86938
1.136	5.43823
1.1365	12.08496
1.137	13.19275
1.1375	9.76868
1.138	9.26514
1.1385	10.87646
1.139	5.94177
1.1395	8.35876
1.14	9.06372
1.1405	6.74744
1.141	5.94177
1.1415	10.47363
1.142	4.73328
1.1425	5.74036
1.143	2.41699
1.1435	7.15027
1.144	9.36584
1.1445	-0.20142
1.145	3.62549
1.1455	7.65381
1.146	4.22974
1.1465	4.63257
1.147	0.10071
1.1475	2.61841
1.148	0.80566
1.1485	3.22266
1.149	2.5177
1.1495	11.68213
1.15	13.99841
1.1505	6.3446
1.151	11.48071
1.1515	9.46655
1.152	8.7616
1.1525	8.45947
1.153	11.88354
1.1535	9.86938
1.154	2.11487
1.1545	6.84814
1.155	1.81274
1.1555	-2.11487
1.156	0.90637
1.1565	0.90637
1.157	4.22974
1.1575	3.32336
1.158	-0.20142
1.1585	1.61133
1.159	8.8623
1.1595	11.98425
1.16	4.93469
1.1605	9.76868
1.161	4.83398
1.1615	4.73328
1.162	10.67505
1.1625	6.44531
1.163	6.14319
1.1635	5.23682
1.164	10.17151
1.1645	6.04248
1.165	12.08496
1.1655	10.27222
1.166	7.5531
1.1665	11.2793
1.167	10.87646
1.1675	9.36584
1.168	8.66089
1.1685	7.04956
1.169	4.02832
1.1695	6.04248
1.17	5.0354
1.1705	2.61841
1.171	0.70496
1.1715	-2.11487
1.172	2.92053
1.1725	4.33044
1.173	6.44531
1.1735	6.84814
1.174	1.81274
1.1745	0.80566
1.175	5.84106
1.1755	8.66089
1.176	2.71912
1.1765	2.5177
1.177	6.3446
1.1775	2.21558
1.178	1.51062
1.1785	8.05664
1.179	6.64673
1.1795	13.09204
1.18	6.74744
1.1805	7.35168
1.181	11.78284
1.1815	11.88354
1.182	8.7616
1.1825	8.8623
1.183	9.97009
1.1835	10.67505
1.184	3.32336
1.1845	4.12903
1.185	2.11487
1.1855	-0.50354
1.186	2.61841
1.1865	1.40991
1.187	7.75452
1.1875	7.85522
1.188	4.43115
1.1885	5.53894
1.189	4.02832
1.1895	4.93469
1.19	5.94177
1.1905	6.2439
1.191	9.56726
1.1915	5.63965
1.192	3.8269
1.1925	4.73328
1.193	3.22266
1.1935	9.06372
1.194	6.3446
1.1945	4.02832
1.195	4.02832
1.1955	4.02832
1.196	6.3446
1.1965	2.31628
1.197	4.93469
1.1975	3.32336
1.198	10.77576
1.1985	11.07788
1.199	5.84106
1.1995	4.63257
1.2	4.63257
1.2005	6.14319
1.201	9.56726
1.2015	8.45947
1.202	5.23682
1.2025	6.84814
1.203	8.25806
1.2035	7.5531
1.204	7.85522
1.2045	1.51062
1.205	4.33044
1.2055	5.13611
1.206	7.45239
1.2065	9.46655
1.207	10.17151
1.2075	8.7616
1.208	10.97717
1.2085	7.04956
1.209	12.18567
1.2095	11.98425
1.21	6.74744
1.2105	3.52478
1.211	11.88354
1.2115	13.59558
1.212	5.0354
1.2125	3.92761
1.213	3.22266
1.2135	9.46655
1.214	7.5531
1.2145	9.36584
1.215	8.7616
1.2155	8.66089
1.216	9.46655
1.2165	6.44531
1.217	6.94885
1.2175	10.67505
1.218	8.96301
1.2185	9.46655
1.219	9.26514
1.2195	10.97717
1.22	2.61841
1.2205	5.33752
1.221	10.27222
1.2215	5.13611
1.222	1.91345
1.2225	-0.20142
1.223	-0.80566
1.2235	3.92761
1.224	-1.81274
1.2245	8.66089
1.225	4.53186
1.2255	10.37292
1.226	7.04956
1.2265	8.66089
1.227	3.8269
1.2275	3.32336
1.228	2.61841
1.2285	5.23682
1.229	8.15735
1.2295	8.56018
1.23	-2.81982
1.2305	-1.71204
1.231	1.81274
1.2315	-0.70496
1.232	0.50354
1.2325	2.31628
1.233	2.5177
1.2335	3.52478
1.234	-1.71204
1.2345	-1.00708
1.235	2.41699
1.2355	2.5177
1.236	2.01416
1.2365	7.35168
1.237	4.73328
1.2375	6.44531
1.238	6.74744
1.2385	4.12903
1.239	-2.92053
1.2395	2.21558
1.24	0.50354
1.2405	2.01416
1.241	0.60425
1.2415	2.61841
1.242	8.05664
1.2425	5.23682
1.243	-1.3092
1.2435	6.3446
1.244	13.09204
1.2445	12.08496
1.245	13.69629
1.2455	10.17151
1.246	9.06372
1.2465	4.73328
1.247	9.46655
1.2475	10.77576
1.248	6.3446
1.2485	-0.70496
1.249	5.63965
1.2495	2.92053
1.25	3.8269
1.2505	2.5177
1.251	3.92761
1.2515	4.73328
1.252	6.04248
1.2525	8.45947
1.253	5.74036
1.2535	5.94177
1.254	10.97717
1.2545	7.35168
1.255	2.61841
1.2555	1.81274
1.256	0.80566
1.2565	3.32336
1.257	2.71912
1.2575	4.02832
1.258	1.61133
1.2585	-0.10071
1.259	3.52478
1.2595	7.15027
1.26	9.16443
1.2605	-2.61841
1.261	0.30212
1.2615	4.12903
1.262	4.53186
1.2625	7.5531
1.263	6.84814
1.2635	5.84106
1.264	8.05664
1.2645	7.65381
1.265	3.22266
1.2655	8.56018
1.266	6.94885
1.2665	11.07788
1.267	1.91345
1.2675	7.75452
1.268	2.61841
1.2685	1.71204
1.269	-0.50354
1.2695	0.70496
1.27	-2.5177
1.2705	1.61133
1.271	4.73328
1.2715	1.81274
1.272	2.61841
1.2725	-1.3092
1.273	5.84106
1.2735	4.73328
1.274	7.5531
1.2745	7.65381
1.275	9.86938
1.2755	7.75452
1.276	1.81274
1.2765	1.3092
1.277	0.10071
1.2775	8.45947
1.278	10.17151
1.2785	9.97009
1.279	6.04248
1.2795	5.43823
1.28	-1.00708
1.2805	-2.31628
1.281	1.3092
1.2815	-0.60425
1.282	-1.10779
1.2825	-4.02832
1.283	-1.81274
1.2835	9.16443
1.284	1.81274
1.2845	5.43823
1.285	7.75452
1.2855	1.2085
1.286	3.8269
1.2865	-0.60425
1.287	2.81982
1.2875	4.53186
1.288	4.63257
1.2885	3.8269
1.289	7.65381
1.2895	-2.61841
1.29	0.50354
1.2905	11.17859
1.291	13.39417
1.2915	8.8623
1.292	2.71912
1.2925	1.3092
1.293	9.97009
1.2935	11.38
1.294	9.26514
1.2945	5.43823
1.295	14.09912
1.2955	8.05664
1.296	13.39417
1.2965	8.05664
1.297	4.83398
1.2975	7.35168
1.298	7.65381
1.2985	9.36584
1.299	12.5885
1.2995	10.57434
1.3	3.02124
1.3005	2.11487
1.301	4.73328
1.3015	3.22266
1.302	5.0354
1.3025	5.43823
1.303	8.66089
1.3035	6.94885
1.304	6.94885
1.3045	7.5531
1.305	7.04956
1.3055	6.04248
1.306	5.33752
1.3065	3.8269
1.307	4.93469
1.3075	4.12903
1.308	8.56018
1.3085	9.56726
1.309	0.50354
1.3095	-1.51062
1.31	-0.50354
1.3105	0.20142
1.311	2.21558
1.3115	2.01416
1.312	7.85522
1.3125	3.22266
1.313	9.66797
1.3135	7.04956
1.314	3.8269
1.3145	2.31628
1.315	2.5177
1.3155	5.23682
1.316	7.75452
1.3165	5.63965
1.317	4.93469
1.3175	2.92053
1.318	5.63965
1.3185	3.8269
1.319	4.73328
1.3195	-1.00708
1.32	4.02832
1.3205	1.3092
1.321	2.5177
1.3215	1.2085
1.322	2.31628
1.3225	10.17151
1.323	11.17859
1.3235	9.26514
1.324	4.63257
1.3245	9.76868
1.325	6.84814
1.3255	12.89062
1.326	11.68213
1.3265	15.60974
1.327	8.45947
1.3275	7.95593
1.328	8.15735
1.3285	7.65381
1.329	11.38
1.3295	8.8623
1.33	8.45947
1.3305	5.0354
1.331	4.43115
1.3315	1.51062
1.332	1.71204
1.3325	4.53186
1.333	-1.71204
1.3335	2.61841
1.334	2.71912
1.3345	4.02832
1.335	-1.3092
1.3355	3.7262
1.336	4.73328
1.3365	4.02832
1.337	4.63257
1.3375	6.14319
1.338	6.64673
1.3385	8.35876
1.339	6.14319
1.3395	9.97009
1.34	11.48071
1.3405	9.36584
1.341	8.96301
1.3415	11.58142
1.342	9.76868
1.3425	10.77576
1.343	8.25806
1.3435	3.32336
1.344	2.01416
1.3445	0.10071
1.345	0.50354
1.3455	2.31628
1.346	5.13611
1.3465	6.3446
1.347	6.44531
1.3475	-2.61841
1.348	4.83398
1.3485	5.53894
1.349	-3.12195
1.3495	-4.83398
1.35	-1.81274
1.3505	-4.93469
1.351	-5.43823
1.3515	0.80566
1.352	0.70496
1.3525	1.91345
1.353	1.51062
1.3535	1.2085
1.354	3.02124
1.3545	3.32336
1.355	2.11487
1.3555	3.22266
1.356	-1.00708
1.3565	4.22974
1.357	2.5177
1.3575	2.71912
1.358	0.70496
1.3585	9.26514
1.359	6.54602
1.3595	11.88354
1.36	5.84106
1.3605	7.85522
1.361	7.95593
1.3615	2.21558
1.362	8.35876
1.3625	2.11487
1.363	6.2439
1.3635	4.02832
1.364	5.53894
1.3645	3.7262
1.365	2.31628
1.3655	3.42407
1.366	4.33044
1.3665	2.41699
1.367	1.10779
1.3675	8.35876
1.368	13.99841
1.3685	8.45947
1.369	8.15735
1.3695	3.7262
1.37	4.53186
1.3705	8.96301
1.371	6.14319
1.3715	7.15027
1.372	4.63257
1.3725	7.5531
1.373	10.27222
1.3735	10.57434
1.374	10.67505
1.3745	6.04248
1.375	7.65381
1.3755	4.33044
1.376	7.5531
1.3765	6.3446
1.377	7.45239
1.3775	5.33752
1.378	8.66089
1.3785	6.64673
1.379	9.46655
1.3795	6.14319
1.38	8.56018
1.3805	8.15735
1.381	11.78284
1.3815	7.04956
1.382	8.25806
1.3825	8.7616
1.383	8.7616
1.3835	10.97717
1.384	9.46655
1.3845	5.43823
1.385	8.35876
1.3855	6.04248
1.386	6.94885
1.3865	12.89062
1.387	12.28638
1.3875	7.04956
1.388	11.48071
1.3885	2.61841
1.389	3.32336
1.3895	4.53186
1.39	4.02832
1.3905	2.5177
1.391	4.12903
1.3915	2.41699
1.392	5.23682
1.3925	-1.2085
1.393	3.02124
1.3935	3.42407
1.394	4.02832
1.3945	6.2439
1.395	4.43115
1.3955	5.94177
1.396	6.2439
1.3965	10.87646
1.397	11.88354
1.3975	9.97009
1.398	9.06372
1.3985	7.45239
1.399	4.43115
1.3995	9.06372
1.4	7.25098
1.4005	11.88354
1.401	6.64673
1.4015	3.8269
1.402	7.15027
1.4025	6.64673
1.403	6.04248
1.4035	3.12195
1.404	1.51062
1.4045	3.92761
1.405	2.01416
1.4055	7.35168
1.406	13.49487
1.4065	13.797
1.407	8.15735
1.4075	4.63257
1.408	5.43823
1.4085	5.94177
1.409	5.94177
1.4095	13.29346
1.41	4.33044
1.4105	4.93469
1.411	4.83398
1.4115	4.73328
1.412	3.12195
1.4125	8.56018
1.413	1.81274
1.4135	-6.04248
1.414	-3.8269
1.4145	-4.33044
1.415	-7.65381
1.4155	-6.54602
1.416	0.30212
1.4165	-3.62549
1.417	4.73328
1.4175	5.63965
1.418	2.61841
1.4185	10.17151
1.419	8.96301
1.4195	11.98425
1.42	10.17151
1.4205	13.09204
1.421	17.32178
1.4215	14.90479
1.422	18.53027
1.4225	17.72461
1.423	15.81116
1.4235	19.33594
1.424	16.61682
1.4245	15.40833
1.425	14.60266
1.4255	7.15027
1.426	7.15027
1.4265	2.81982
1.427	5.23682
1.4275	7.5531
1.428	10.77576
1.4285	5.33752
1.429	2.41699
1.4295	-4.73328
1.43	-15.00549
1.4305	-16.3147
1.431	-20.64514
1.4315	-13.39417
1.432	-11.98425
1.4325	-4.43115
1.433	-4.33044
1.4335	-1.51062
1.434	5.94177
1.4345	8.56018
1.435	16.81824
1.4355	15.40833
1.436	22.15576
1.4365	21.55151
1.437	24.47205
1.4375	5.94177
1.438	-7.25098
1.4385	-23.36426
1.439	-27.39258
1.4395	-28.09753
1.44	-26.88904
1.4405	-29.40674
1.441	-29.40674
1.4415	-33.73718
1.442	-33.53577
1.4425	-37.26196
1.443	-39.77966
1.4435	-36.55701
1.444	-29.80957
1.4445	-24.47205
1.445	-18.93311
1.4455	-6.94885
1.446	11.68213
1.4465	23.8678
1.447	34.64355
1.4475	37.7655
1.448	24.37134
1.4485	13.29346
1.449	-4.02832
1.4495	-13.29346
1.45	-28.29895
1.4505	-35.95276
1.451	-35.95276
1.4515	-26.98975
1.452	-11.17859
1.4525	5.0354
1.453	20.24231
1.4535	45.2179
1.454	61.83472
1.4545	69.28711
1.455	76.7395
1.4555	91.14075
1.456	90.5365
1.4565	96.27686
1.457	86.91101
1.4575	74.92676
1.458	67.27295
1.4585	59.71985
1.459	46.92993
1.4595	35.65063
1.46	13.797
1.4605	-4.73328
1.461	-15.71045
1.4615	-20.84656
1.462	-28.09753
1.4625	-42.49878
1.463	-48.03772
1.4635	-52.67029
1.464	-47.43347
1.4645	-47.53418
1.465	-37.26196
1.4655	-29.70886
1.466	-22.45789
1.4665	-9.86938
1.467	-2.11487
1.4675	11.2793
1.468	14.90479
1.4685	24.37134
1.469	11.98425
1.4695	-0.50354
1.47	-8.56018
1.4705	-11.17859
1.471	-9.97009
1.4715	-9.06372
1.472	-7.5531
1.4725	2.11487
1.473	16.11328
1.4735	15.71045
1.474	22.15576
1.4745	15.1062
1.475	22.25647
1.4755	26.3855
1.476	35.04639
1.4765	47.43347
1.477	46.42639
1.4775	51.76392
1.478	50.45471
1.4785	33.53577
1.479	5.94177
1.4795	-22.35718
1.48	-47.8363
1.4805	-65.3595
1.481	-71.20056
1.4815	-75.63171
1.482	-85.19897
1.4825	-89.63013
1.483	-81.06995
1.4835	-66.06445
1.484	-54.68445
1.4845	-32.12585
1.485	-10.57434
1.4855	12.89062
1.486	32.52869
1.4865	51.36108
1.487	74.82605
1.4875	92.55066
1.488	104.4342
1.4885	98.19031
1.489	102.11792
1.4895	92.55066
1.49	91.745
1.4905	88.0188
1.491	81.7749
1.4915	64.35242
1.492	49.24622
1.4925	22.6593
1.493	19.43665
1.4935	25.78125
1.494	24.06921
1.4945	4.02832
1.495	-7.35168
1.4955	-18.22815
1.496	-26.98975
1.4965	-32.83081
1.497	-30.2124
1.4975	-30.01099
1.498	-37.7655
1.4985	-45.3186
1.499	-42.59949
1.4995	-39.07471
1.5	-29.91028
1.5005	-20.64514
1.501	-6.84814
1.5015	-9.16443
1.502	-5.0354
1.5025	-1.10779
1.503	3.42407
1.5035	7.85522
1.504	10.57434
1.5045	-9.46655
1.505	-33.73718
1.5055	-60.82764
1.506	-95.87402
1.5065	-130.41687
1.507	-138.47351
1.5075	-130.51758
1.508	-113.69934
1.5085	-100.10376
1.509	-81.87561
1.5095	-57.20215
1.51	-26.58691
1.5105	4.43115
1.511	45.82214
1.5115	83.99048
1.512	109.57031
1.5125	117.02271
1.513	138.47351
1.5135	149.55139
1.514	157.91016
1.5145	157.2052
1.515	141.69617
1.5155	135.45227
1.516	133.3374
1.5165	126.48926
1.517	93.85986
1.5175	37.56409
1.518	-20.54443
1.5185	-57.30286
1.519	-71.09985
1.5195	-58.51135
1.52	-64.75525
1.5205	-65.46021
1.521	-67.17224
1.5215	-70.79773
1.522	-72.20764
1.5225	-72.71118
1.523	-65.56091
1.5235	-41.08887
1.524	-22.05505
1.5245	4.22974
1.525	15.91187
1.5255	39.88037
1.526	59.82056
1.5265	78.75366
1.527	98.39172
1.5275	114.20288
1.528	132.43103
1.5285	147.23511
1.529	150.15564
1.5295	137.0636
1.53	110.17456
1.5305	87.51526
1.531	50.55542
1.5315	3.92761
1.532	-36.95984
1.5325	-73.41614
1.533	-126.79138
1.5335	-180.56946
1.534	-225.78735
1.5345	-257.61108
1.535	-275.4364
1.5355	-269.0918
1.536	-252.57568
1.5365	-231.52771
1.537	-198.39478
1.5375	-166.0675
1.538	-111.78589
1.5385	-47.93701
1.539	22.86072
1.5395	99.49951
1.54	153.78113
1.5405	184.59778
1.541	217.42859
1.5415	240.59143
1.542	190.23743
1.5425	112.99438
1.543	43.40515
1.5435	-15.20691
1.544	-67.97791
1.5445	-125.07935
1.545	-158.11157
1.5455	-171.90857
1.546	-168.28308
1.5465	-167.17529
1.547	-144.51599
1.5475	-94.06128
1.548	-37.06055
1.5485	21.85364
1.549	87.21313
1.5495	131.42395
1.55	177.14539
1.5505	231.72913
1.551	279.96826
1.5515	312.29553
1.552	330.12085
1.5525	322.97058
1.553	313.80615
1.5535	289.93835
1.554	258.41675
1.5545	202.4231
1.555	139.68201
1.5555	95.97473
1.556	70.99915
1.5565	68.28003
1.557	58.51135
1.5575	34.64355
1.558	14.70337
1.5585	-18.12744
1.559	-39.57825
1.5595	-46.42639
1.56	-50.45471
1.5605	-52.56958
1.561	-53.27454
1.5615	-55.99365
1.562	-52.67029
1.5625	-45.52002
1.563	-39.98108
1.5635	-29.10461
1.564	-12.78992
1.5645	2.71912
1.565	12.18567
1.5655	17.92603
1.566	36.65771
1.5665	43.80798
1.567	42.19666
1.5675	31.21948
1.568	11.68213
1.5685	-1.81274
1.569	-12.78992
1.5695	-29.80957
1.57	-59.41772
1.5705	-99.49951
1.571	-148.04077
1.5715	-180.16663
1.572	-200.0061
1.5725	-200.30823
1.573	-209.57336
1.5735	-191.1438
1.574	-151.16272
1.5745	-110.87952
1.575	-123.87085
1.5755	-137.86926
1.576	-121.35315
1.5765	-116.31775
1.577	-106.34766
1.5775	-75.53101
1.578	-41.99524
1.5785	3.92761
1.579	53.17383
1.5795	89.02588
1.58	107.75757
1.5805	112.49084
1.581	112.18872
1.5815	101.11084
1.582	91.44287
1.5825	73.31543
1.583	65.66162
1.5835	54.0802
1.584	15.1062
1.5845	-3.52478
1.585	-24.67346
1.5855	-12.99133
1.586	3.92761
1.5865	14.90479
1.587	16.71753
1.5875	24.16992
1.588	55.2887
1.5885	105.13916
1.589	146.02661
1.5895	176.54114
1.59	196.27991
1.5905	202.62451
1.591	205.0415
1.5915	188.02185
1.592	157.60803
1.5925	139.5813
1.593	110.57739
1.5935	96.7804
1.594	91.24146
1.5945	73.91968
1.595	43.40515
1.5955	-6.3446
1.596	-36.4563
1.5965	-53.27454
1.597	-77.64587
1.5975	-91.24146
1.598	-114.30359
1.5985	-157.2052
1.599	-172.81494
1.5995	-178.5553
1.6	-178.25317
1.6005	-169.39087
1.601	-172.10999
1.6015	-179.26025
1.602	-152.97546
1.6025	-106.8512
1.603	-45.3186
1.6035	22.6593
1.604	56.49719
1.6045	90.33508
1.605	117.72766
1.6055	144.31458
1.606	157.80945
1.6065	154.88892
1.607	145.01953
1.6075	91.8457
1.608	50.354
1.6085	21.45081
1.609	1.71204
1.6095	-19.03381
1.61	-39.98108
1.6105	-43.40515
1.611	-31.21948
1.6115	-0.10071
1.612	29.50745
1.6125	24.77417
1.613	20.64514
1.6135	38.26904
1.614	71.09985
1.6145	108.46252
1.615	125.88501
1.6155	121.55457
1.616	98.49243
1.6165	84.09119
1.617	80.36499
1.6175	92.14783
1.618	87.01172
1.6185	82.88269
1.619	44.31152
1.6195	-3.92761
1.62	-40.1825
1.6205	-50.75684
1.621	-46.32568
1.6215	-40.08179
1.622	-27.89612
1.6225	-14.30054
1.623	-3.22266
1.6235	-3.32336
1.624	4.73328
1.6245	17.12036
1.625	29.10461
1.6255	41.79382
1.626	50.55542
1.6265	55.99365
1.627	50.85754
1.6275	49.74976
1.628	43.90869
1.6285	37.96692
1.629	29.00391
1.6295	23.66638
1.63	15.00549
1.6305	-2.5177
1.631	-14.60266
1.6315	-35.54993
1.632	-63.04321
1.6325	-72.50977
1.633	-95.16907
1.6335	-126.89209
1.634	-146.32874
1.6345	-158.21228
1.635	-182.98645
1.6355	-183.89282
1.636	-171.50574
1.6365	-162.64343
1.637	-158.01086
1.6375	-137.26501
1.638	-98.89526
1.6385	-57.00073
1.639	-11.38
1.6395	37.66479
1.64	88.92517
1.6405	129.81262
1.641	158.31299
1.6415	189.73389
1.642	198.59619
1.6425	187.82043
1.643	165.66467
1.6435	153.78113
1.644	127.69775
1.6445	105.03845
1.645	79.66003
1.6455	62.9425
1.646	43.90869
1.6465	36.05347
1.647	20.64514
1.6475	10.27222
1.648	-6.3446
1.6485	-15.1062
1.649	-27.59399
1.6495	-35.14709
1.65	-43.20374
1.6505	-41.69312
1.651	-43.90869
1.6515	-38.67188
1.652	-44.21082
1.6525	-38.47046
1.653	-36.05347
1.6535	-36.95984
1.654	-35.65063
1.6545	-23.36426
1.655	-16.51611
1.6555	-29.30603
1.656	-47.8363
1.6565	-52.06604
1.657	-55.89294
1.6575	-49.34692
1.658	-33.43506
1.6585	-21.55151
1.659	-5.33752
1.6595	11.07788
1.66	35.2478
1.6605	48.84338
1.661	30.81665
1.6615	24.57275
1.662	13.29346
1.6625	5.63965
1.663	8.05664
1.6635	16.11328
1.664	24.87488
1.6645	15.40833
1.665	14.50195
1.6655	16.3147
1.666	24.97559
1.6665	27.99683
1.667	29.60815
1.6675	32.32727
1.668	38.87329
1.6685	59.41772
1.669	69.89136
1.6695	71.40198
1.67	80.56641
1.6705	76.84021
1.671	57.20215
1.6715	34.74426
1.672	3.12195
1.6725	3.32336
1.673	-5.84106
1.6735	-10.57434
1.674	-1.81274
1.6745	-7.85522
1.675	-21.65222
1.6755	-34.03931
1.676	-28.9032
1.6765	-17.42249
1.677	-11.98425
1.6775	-5.53894
1.678	-10.67505
1.6785	-4.43115
1.679	-10.27222
1.6795	-10.97717
1.68	-11.78284
1.6805	-11.98425
1.681	-8.35876
1.6815	-9.76868
1.682	-11.58142
1.6825	-3.8269
1.683	-9.36584
1.6835	-26.78833
1.684	-40.38391
1.6845	-56.19507
1.685	-58.61206
1.6855	-54.98657
1.686	-41.59241
1.6865	-31.4209
1.687	-23.16284
1.6875	-23.16284
1.688	-6.94885
1.6885	3.8269
1.689	18.42957
1.6895	35.2478
1.69	46.32568
1.6905	49.14551
1.691	54.38232
1.6915	58.71277
1.692	41.69312
1.6925	-8.8623
1.693	-34.54285
1.6935	-54.38232
1.694	-69.28711
1.6945	-79.15649
1.695	-78.85437
1.6955	-85.40039
1.696	-71.7041
1.6965	-49.14551
1.697	-22.05505
1.6975	1.2085
1.698	24.57275
1.6985	43.10303
1.699	62.53967
1.6995	74.12109
1.7	83.68835
1.7005	89.02588
1.701	88.11951
1.7015	78.55225
1.702	88.62305
1.7025	78.95508
1.703	62.23755
1.7035	20.84656
1.704	-10.57434
1.7045	-27.59399
1.705	-33.63647
1.7055	-31.82373
1.706	-24.27063
1.7065	-19.33594
1.707	-22.35718
1.7075	-33.9386
1.708	-38.974
1.7085	-33.53577
1.709	-30.51453
1.7095	-20.64514
1.71	-12.28638
1.7105	-1.81274
1.711	8.35876
1.7115	10.77576
1.712	-0.90637
1.7125	-32.12585
1.713	-80.16357
1.7135	-108.76465
1.714	-135.8551
1.7145	-177.64893
1.715	-218.13354
1.7155	-218.63708
1.716	-195.77637
1.7165	-154.78821
1.717	-107.85828
1.7175	-50.15259
1.718	1.71204
1.7185	59.61914
1.719	111.78589
1.7195	130.8197
1.72	145.12024
1.7205	155.79529
1.721	172.3114
1.7215	177.44751
1.722	186.30981
1.7225	169.89441
1.723	135.15015
1.7235	114.4043
1.724	60.12268
1.7245	7.35168
1.725	-8.25806
1.7255	-8.35876
1.726	10.0708
1.7265	24.37134
1.727	22.86072
1.7275	21.45081
1.728	23.06213
1.7285	29.70886
1.729	34.94568
1.7295	19.23523
1.73	-2.41699
1.7305	-18.22815
1.731	-14.19983
1.7315	0.30212
1.732	16.11328
1.7325	28.19824
1.733	37.96692
1.7335	38.67188
1.734	27.99683
1.7345	29.70886
1.735	36.15417
1.7355	42.19666
1.736	43.60657
1.7365	39.67896
1.737	33.33435
1.7375	33.23364
1.738	33.43506
1.7385	29.50745
1.739	30.31311
1.7395	23.16284
1.74	17.12036
1.7405	-5.53894
1.741	-9.56726
1.7415	-12.68921
1.742	-12.5885
1.7425	-35.04639
1.743	-47.8363
1.7435	-46.42639
1.744	-48.33984
1.7445	-61.23047
1.745	-60.02197
1.7455	-62.64038
1.746	-48.03772
1.7465	-44.71436
1.747	-49.34692
1.7475	-41.89453
1.748	-33.33435
1.7485	-21.3501
1.749	-11.98425
1.7495	8.7616
1.75	9.36584
1.7505	21.04797
1.751	22.25647
1.7515	26.88904
1.752	36.15417
1.7525	38.57117
1.753	41.39099
1.7535	32.7301
1.754	32.02515
1.7545	26.08337
1.755	31.52161
1.7555	2.01416
1.756	-14.09912
1.7565	-16.01257
1.757	-16.3147
1.7575	-12.28638
1.758	-11.17859
1.7585	-1.71204
1.759	12.38708
1.7595	35.54993
1.76	47.23206
1.7605	61.83472
1.761	63.54675
1.7615	61.33118
1.762	48.74268
1.7625	32.7301
1.763	28.29895
1.7635	20.34302
1.764	3.12195
1.7645	-20.84656
1.765	-57.50427
1.7655	-74.02039
1.766	-99.60022
1.7665	-106.9519
1.767	-108.56323
1.7675	-101.8158
1.768	-84.19189
1.7685	-62.9425
1.769	-48.64197
1.7695	-27.89612
1.77	-3.7262
1.7705	-11.88354
1.771	-11.78284
1.7715	-8.56018
1.772	6.84814
1.7725	18.63098
1.773	34.74426
1.7735	49.54834
1.774	62.23755
1.7745	71.80481
1.775	70.59631
1.7755	62.74109
1.776	56.09436
1.7765	50.354
1.777	41.99524
1.7775	36.65771
1.778	35.75134
1.7785	32.7301
1.779	2.81982
1.7795	-50.95825
1.78	-108.96606
1.7805	-133.94165
1.781	-151.86768
1.7815	-160.52856
1.782	-138.67493
1.7825	-94.16199
1.783	-51.76392
1.7835	-62.23755
1.784	-86.8103
1.7845	-106.24695
1.785	-107.25403
1.7855	-103.32642
1.786	-65.76233
1.7865	-47.43347
1.787	-23.26355
1.7875	-40.58533
1.788	-48.03772
1.7885	-50.75684
1.789	-33.23364
1.7895	11.2793
1.79	63.74817
1.7905	127.69775
1.791	175.83618
1.7915	188.52539
1.792	201.61743
1.7925	207.35779
1.793	214.70947
1.7935	226.08948
1.794	214.70947
1.7945	197.18628
1.795	172.41211
1.7955	162.03918
1.796	152.87476
1.7965	136.86218
1.797	116.41846
1.7975	71.90552
1.798	17.12036
1.7985	-15.40833
1.799	-57.8064
1.7995	-85.09827
1.8	-96.07544
1.8005	-89.12659
1.801	-78.04871
1.8015	-61.83472
1.802	-50.95825
1.8025	-42.19666
1.803	-21.95435
1.8035	-8.96301
1.804	16.91895
1.8045	37.96692
1.805	51.86462
1.8055	58.61206
1.806	63.64746
1.8065	62.13684
1.807	61.6333
1.8075	58.81348
1.808	41.89453
1.8085	6.3446
1.809	-33.03223
1.8095	-50.65613
1.81	-57.60498
1.8105	-62.23755
1.811	-61.73401
1.8115	-45.82214
1.812	-28.9032
1.8125	-19.53735
1.813	-8.25806
1.8135	12.38708
1.814	6.64673
1.8145	-12.78992
1.815	-10.57434
1.8155	-6.3446
1.816	4.22974
1.8165	16.21399
1.817	23.36426
1.8175	29.50745
1.818	51.5625
1.8185	56.5979
1.819	49.85046
1.8195	30.61523
1.82	30.61523
1.8205	54.18091
1.821	60.22339
1.8215	63.54675
1.822	62.23755
1.8225	65.25879
1.823	53.37524
1.8235	17.52319
1.824	-27.59399
1.8245	-45.72144
1.825	-61.93542
1.8255	-67.07153
1.826	-69.89136
1.8265	-55.99365
1.827	-36.95984
1.8275	-23.56567
1.828	-3.8269
1.8285	13.39417
1.829	34.34143
1.8295	54.98657
1.83	61.02905
1.8305	56.29578
1.831	34.44214
1.8315	-16.11328
1.832	-61.02905
1.8325	-86.8103
1.833	-94.2627
1.8335	-86.91101
1.834	-74.52393
1.8345	-82.17773
1.835	-71.30127
1.8355	-46.22498
1.836	-12.08496
1.8365	14.90479
1.837	28.09753
1.8375	20.24231
1.838	-26.58691
1.8385	-65.56091
1.839	-75.12817
1.8395	-60.62622
1.84	-41.08887
1.8405	-43.60657
1.841	-43.90869
1.8415	-43.50586
1.842	-15.81116
1.8425	30.11169
1.843	69.89136
1.8435	103.52783
1.844	125.58289
1.8445	135.35156
1.845	144.01245
1.8455	136.96289
1.846	137.36572
1.8465	121.45386
1.847	81.67419
1.8475	43.50586
1.848	27.39258
1.8485	21.04797
1.849	21.85364
1.8495	7.5531
1.85	-2.01416
1.8505	-22.45789
1.851	-31.52161
1.8515	-40.08179
1.852	-46.22498
1.8525	-52.06604
1.853	-61.83472
1.8535	-59.21631
1.854	-62.13684
1.8545	-53.07312
1.855	-36.15417
1.8555	-19.33594
1.856	9.56726
1.8565	19.43665
1.857	36.65771
1.8575	39.88037
1.858	48.64197
1.8585	47.63489
1.859	17.92603
1.8595	-20.94727
1.86	-73.61755
1.8605	-92.65137
1.861	-92.04712
1.8615	-88.62305
1.862	-77.54517
1.8625	-71.09985
1.863	-45.11719
1.8635	-18.53027
1.864	18.93311
1.8645	50.2533
1.865	73.21472
1.8655	50.95825
1.866	52.26746
1.8665	56.49719
1.867	63.04321
1.8675	70.99915
1.868	88.72375
1.8685	92.55066
1.869	88.42163
1.8695	65.86304
1.87	60.4248
1.8705	66.06445
1.871	57.60498
1.8715	55.3894
1.872	45.92285
1.8725	32.02515
1.873	21.24939
1.8735	9.06372
1.874	-11.58142
1.8745	-23.56567
1.875	-32.83081
1.8755	-26.48621
1.876	-21.55151
1.8765	-8.15735
1.877	-5.43823
1.8775	-1.40991
1.878	-3.8269
1.8785	4.33044
1.879	11.98425
1.8795	8.35876
1.88	12.78992
1.8805	2.81982
1.881	4.63257
1.8815	5.74036
1.882	-0.80566
1.8825	-4.22974
1.883	1.3092
1.8835	4.12903
1.884	1.81274
1.8845	2.11487
1.885	-2.01416
1.8855	-22.55859
1.886	-27.49329
1.8865	-36.75842
1.887	-30.41382
1.8875	-28.39966
1.888	-14.09912
1.8885	-23.66638
1.889	-32.52869
1.8895	-44.21082
1.89	-56.90002
1.8905	-82.9834
1.891	-91.04004
1.8915	-88.22021
1.892	-84.19189
1.8925	-77.14233
1.893	-62.03613
1.8935	-38.974
1.894	-1.3092
1.8945	29.10461
1.895	51.05896
1.8955	80.26428
1.896	113.09509
1.8965	141.09192
1.897	172.21069
1.8975	178.5553
1.898	157.70874
1.8985	129.40979
1.899	94.46411
1.8995	59.21631
1.9	31.92444
1.9005	-5.53894
1.901	-55.89294
1.9015	-70.59631
1.902	-65.05737
1.9025	-59.21631
1.903	-91.745
1.9035	-115.7135
1.904	-151.46484
1.9045	-165.76538
1.905	-155.09033
1.9055	-132.43103
1.906	-104.13208
1.9065	-80.76782
1.907	-44.0094
1.9075	-0.30212
1.908	51.05896
1.9085	110.98022
1.909	166.97388
1.9095	190.64026
1.91	194.9707
1.9105	191.84875
1.911	178.45459
1.9115	163.65051
1.912	141.59546
1.9125	101.71509
1.913	53.57666
1.9135	27.6947
1.914	19.33594
1.9145	-21.24939
1.915	-70.99915
1.9155	-84.89685
1.916	-70.49561
1.9165	-52.26746
1.917	-35.04639
1.9175	-25.27771
1.918	-2.21558
1.9185	13.29346
1.919	33.53577
1.9195	38.67188
1.92	41.99524
1.9205	42.8009
1.921	54.78516
1.9215	67.27295
1.922	72.40906
1.9225	79.96216
1.923	68.58215
1.9235	2.31628
1.924	-101.9165
1.9245	-169.29016
1.925	-187.11548
1.9255	-193.35938
1.926	-195.37354
1.9265	-178.65601
1.927	-143.4082
1.9275	-80.96924
1.928	-30.01099
1.9285	28.70178
1.929	82.37915
1.9295	125.68359
1.93	147.33582
1.9305	158.71582
1.931	156.39954
1.9315	151.66626
1.932	138.87634
1.9325	104.73633
1.933	80.36499
1.9335	54.18091
1.934	33.33435
1.9345	11.78284
1.935	-16.91895
1.9355	-60.62622
1.936	-97.18323
1.9365	-94.76624
1.937	-84.59473
1.9375	-63.84888
1.938	-45.92285
1.9385	-11.58142
1.939	22.15576
1.9395	44.11011
1.94	61.6333
1.9405	54.48303
1.941	39.07471
1.9415	26.28479
1.942	-2.81982
1.9425	-28.29895
1.943	-41.29028
1.9435	-48.64197
1.944	-54.68445
1.9445	-49.14551
1.945	-37.46338
1.9455	-8.8623
1.946	17.01965
1.9465	38.974
1.947	51.96533
1.9475	75.73242
1.948	95.67261
1.9485	103.22571
1.949	93.65845
1.9495	67.47437
1.95	17.6239
1.9505	-12.89062
1.951	-31.92444
1.9515	-36.05347
1.952	-27.49329
1.9525	-16.41541
1.953	-13.797
1.9535	-2.31628
1.954	2.71912
1.9545	-7.04956
1.955	-7.75452
1.9555	-17.01965
1.956	-14.09912
1.9565	-15.50903
1.957	1.40991
1.9575	-1.10779
1.958	10.47363
1.9585	-43.40515
1.959	-78.55225
1.9595	-105.84412
1.96	-146.63086
1.9605	-131.02112
1.961	-93.45703
1.9615	-34.24072
1.962	21.95435
1.9625	62.8418
1.963	65.25879
1.9635	64.05029
1.964	64.151
1.9645	74.62463
1.965	88.72375
1.9655	109.16748
1.966	122.56165
1.9665	126.58997
1.967	96.37756
1.9675	62.23755
1.968	36.25488
1.9685	20.84656
1.969	9.46655
1.9695	-0.90637
1.97	1.40991
1.9705	23.96851
1.971	40.58533
1.9715	40.1825
1.972	44.61365
1.9725	13.89771
1.973	-64.45312
1.9735	-120.04395
1.974	-148.84644
1.9745	-159.7229
1.975	-161.73706
1.9755	-149.04785
1.976	-119.03687
1.9765	-77.74658
1.977	-22.05505
1.9775	23.96851
1.978	79.45862
1.9785	128.40271
1.979	175.53406
1.9795	169.89441
1.98	126.38855
1.9805	93.65845
1.981	84.09119
1.9815	60.62622
1.982	27.09045
1.9825	-14.70337
1.983	-28.19824
1.9835	-8.25806
1.984	13.19275
1.9845	29.50745
1.985	29.40674
1.9855	44.31152
1.986	63.84888
1.9865	77.34375
1.987	89.73083
1.9875	84.89685
1.988	67.07153
1.9885	47.93701
1.989	17.42249
1.9895	8.35876
1.99	4.22974
1.9905	-3.22266
1.991	-7.5531
1.9915	-13.19275
1.992	-17.12036
1.9925	-8.56018
1.993	-10.0708
1.9935	-40.58533
1.994	-72.50977
1.9945	-89.63013
1.995	-93.96057
1.9955	-80.86853
1.996	-64.75525
1.9965	-49.95117
1.997	-42.49878
1.9975	-57.60498
1.998	-52.97241
1.9985	-26.28479
1.999	7.35168
1.9995	20.24231
2	45.52002
2.0005	63.44604
2.001	95.67261
2.0015	120.14465
2.002	135.65369
2.0025	126.9928
2.003	83.28552
2.0035	46.92993
2.004	37.66479
2.0045	39.98108
2.005	32.32727
2.0055	17.12036
2.006	10.67505
2.0065	-1.81274
2.007	-7.75452
2.0075	-3.52478
2.008	-4.43115
2.0085	-6.04248
2.009	-2.71912
2.0095	-1.10779
2.01	-5.94177
2.0105	-10.27222
2.011	-13.19275
2.0115	-44.61365
2.012	-175.23193
2.0125	-299.50562
2.013	-342.50793
2.0135	-332.23572
2.014	-274.63074
2.0145	-209.77478
2.015	-130.92041
2.0155	-33.23364
2.016	64.35242
2.0165	143.71033
2.017	216.72363
2.0175	251.26648
2.018	276.24207
2.0185	279.36401
2.019	261.23657
2.0195	230.41992
2.02	185.10132
2.0205	133.43811
2.021	59.82056
2.0215	7.35168
2.022	-13.99841
2.0225	-12.99133
2.023	2.11487
2.0235	12.89062
2.024	15.81116
2.0245	20.04089
2.025	13.59558
2.0255	13.19275
2.026	3.02124
2.0265	-27.19116
2.027	-64.65454
2.0275	-89.73083
2.028	-98.89526
2.0285	-90.03296
2.029	-75.83313
2.0295	-57.50427
2.03	-32.12585
2.0305	-9.97009
2.031	14.60266
2.0315	52.06604
2.032	65.86304
2.0325	68.68286
2.033	70.79773
2.0335	73.11401
2.034	78.85437
2.0345	74.82605
2.035	51.96533
2.0355	2.92053
2.036	-36.4563
2.0365	-53.67737
2.037	-83.99048
2.0375	-101.71509
2.038	-125.7843
2.0385	-150.45776
2.039	-168.4845
2.0395	-161.63635
2.04	-138.87634
2.0405	-114.00146
2.041	-82.88269
2.0415	-34.44214
2.042	9.16443
2.0425	55.18799
2.043	98.19031
2.0435	138.07068
2.044	171.10291
2.0445	199.70398
2.045	177.3468
2.0455	137.26501
2.046	136.76147
2.0465	155.79529
2.047	164.25476
2.0475	118.13049
2.048	74.62463
2.0485	44.81506
2.049	27.09045
2.0495	18.22815
2.05	10.87646
2.0505	13.19275
2.051	14.60266
2.0515	14.30054
2.052	10.77576
2.0525	-1.2085
2.053	-30.2124
2.0535	-52.26746
2.054	-73.51685
2.0545	-82.88269
2.055	-80.86853
2.0555	-97.38464
2.056	-92.24854
2.0565	-73.21472
2.057	-44.21082
2.0575	-10.0708
2.058	9.97009
2.0585	27.89612
2.059	30.31311
2.0595	20.84656
2.06	16.3147
2.0605	28.9032
2.061	31.4209
2.0615	36.85913
2.062	10.97717
2.0625	-24.37134
2.063	-39.57825
2.0635	-66.16516
2.064	-66.6687
2.0645	-71.20056
2.065	-64.45312
2.0655	-34.84497
2.066	4.93469
2.0665	44.71436
2.067	72.30835
2.0675	76.23596
2.068	64.25171
2.0685	18.8324
2.069	-7.45239
2.0695	-21.45081
2.07	-17.32178
2.0705	-19.23523
2.071	-34.34143
2.0715	-48.94409
2.072	-45.92285
2.0725	-9.56726
2.073	38.974
2.0735	86.40747
2.074	123.77014
2.0745	147.1344
2.075	169.69299
2.0755	162.44202
2.076	138.67493
2.0765	104.73633
2.077	69.89136
2.0775	12.38708
2.078	-29.40674
2.0785	-55.69153
2.079	-69.08569
2.0795	-91.54358
2.08	-93.96057
2.0805	-80.36499
2.081	-54.78516
2.0815	-30.11169
2.082	-3.92761
2.0825	17.32178
2.083	30.11169
2.0835	51.66321
2.084	63.54675
2.0845	76.33667
2.085	78.55225
2.0855	73.31543
2.086	70.59631
2.0865	61.33118
2.087	30.2124
2.0875	5.43823
2.088	4.33044
2.0885	7.75452
2.089	4.12903
2.0895	0.40283
2.09	-4.73328
2.0905	-4.73328
2.091	-7.85522
2.0915	-3.12195
2.092	-3.62549
2.0925	-10.37292
2.093	-27.39258
2.0935	-39.57825
2.094	-50.354
2.0945	-70.49561
2.095	-82.17773
2.0955	-89.73083
2.096	-77.24304
2.0965	-45.01648
2.097	-29.70886
2.0975	-9.97009
2.098	6.84814
2.0985	27.59399
2.099	42.49878
2.0995	52.36816
2.1	34.74426
2.1005	-26.18408
2.101	-74.32251
2.1015	-93.25562
2.102	-77.04163
2.1025	-54.28162
2.103	-41.39099
2.1035	-51.66321
2.104	-58.51135
2.1045	-39.98108
2.105	3.52478
2.1055	27.79541
2.106	56.09436
2.1065	66.56799
2.107	79.15649
2.1075	93.25562
2.108	92.55066
2.1085	58.91418
2.109	25.37842
2.1095	23.36426
2.11	34.74426
2.1105	55.99365
2.111	73.71826
2.1115	66.16516
2.112	46.82922
2.1125	28.29895
2.113	20.84656
2.1135	13.09204
2.114	10.57434
2.1145	7.95593
2.115	3.02124
2.1155	3.42407
2.116	7.75452
2.1165	13.59558
2.117	21.3501
2.1175	22.05505
2.118	-11.58142
2.1185	-39.17542
2.119	-53.27454
2.1195	-56.39648
2.12	-49.74976
2.1205	-39.27612
2.121	-32.52869
2.1215	-27.59399
2.122	-11.2793
2.1225	2.21558
2.123	14.09912
2.1235	30.11169
2.124	41.39099
2.1245	51.76392
2.125	62.23755
2.1255	65.76233
2.126	61.6333
2.1265	49.34692
2.127	33.23364
2.1275	5.53894
2.128	-11.98425
2.1285	-41.08887
2.129	-77.34375
2.1295	-114.80713
2.13	-148.4436
2.1305	-153.57971
2.131	-170.49866
2.1315	-184.79919
2.132	-159.32007
2.1325	-127.89917
2.133	-73.51685
2.1335	-26.48621
2.134	30.61523
2.1345	70.19348
2.135	102.21863
2.1355	144.6167
2.136	173.62061
2.1365	183.5907
2.137	182.3822
2.1375	171.10291
2.138	151.56555
2.1385	132.22961
2.139	95.5719
2.1395	63.64746
2.14	34.03931
2.1405	-23.36426
2.141	-84.39331
2.1415	-127.99988
2.142	-154.88892
2.1425	-157.60803
2.143	-147.33582
2.1435	-114.60571
2.144	-84.99756
2.1445	-52.16675
2.145	-18.32886
2.1455	28.80249
2.146	77.34375
2.1465	123.56873
2.147	151.76697
2.1475	152.67334
2.148	154.88892
2.1485	163.5498
2.149	142.80396
2.1495	87.61597
2.15	25.47913
2.1505	-4.73328
2.151	-8.66089
2.1515	-4.33044
2.152	-0.30212
2.1525	2.01416
2.153	4.73328
2.1535	17.01965
2.154	13.49487
2.1545	14.60266
2.155	13.69629
2.1555	8.66089
2.156	8.25806
2.1565	19.83948
2.157	20.64514
2.1575	28.70178
2.158	33.73718
2.1585	17.22107
2.159	11.78284
2.1595	0.10071
2.16	4.53186
2.1605	11.38
2.161	4.63257
2.1615	3.12195
2.162	5.53894
2.1625	1.2085
2.163	5.63965
2.1635	-6.44531
2.164	-6.2439
2.1645	-8.96301
2.165	-6.3446
2.1655	-6.14319
2.166	0.90637
2.1665	0.10071
2.167	2.71912
2.1675	4.12903
2.168	6.44531
2.1685	6.64673
2.169	5.74036
2.1695	2.61841
2.17	4.33044
2.1705	-1.51062
2.171	2.11487
2.1715	-1.00708
2.172	4.43115
2.1725	-13.29346
2.173	-61.02905
2.1735	-91.24146
2.174	-117.42554
2.1745	-106.75049
2.175	-95.97473
2.1755	-79.96216
2.176	-63.54675
2.1765	-40.68604
2.177	-6.54602
2.1775	13.49487
2.178	31.82373
2.1785	58.00781
2.179	75.73242
2.1795	88.42163
2.18	95.06836
2.1805	88.42163
2.181	60.72693
2.1815	38.16833
2.182	23.16284
2.1825	11.68213
2.183	10.67505
2.1835	4.73328
2.184	-11.17859
2.1845	-33.9386
2.185	-42.8009
2.1855	-52.56958
2.186	-55.18799
2.1865	-57.50427
2.187	-67.37366
2.1875	-73.41614
2.188	-73.21472
2.1885	-55.2887
2.189	-26.98975
2.1895	8.7616
2.19	32.83081
2.1905	44.41223
2.191	60.22339
2.1915	79.15649
2.192	92.24854
2.1925	86.60889
2.193	67.27295
2.1935	49.0448
2.194	51.46179
2.1945	65.66162
2.195	68.98499
2.1955	58.91418
2.196	42.90161
2.1965	17.12036
2.197	1.71204
2.1975	-28.19824
2.198	-53.57666
2.1985	-87.31384
2.199	-121.15173
2.1995	-131.12183
2.2	-119.54041
2.2005	-93.65845
2.201	-80.66711
2.2015	-43.10303
2.202	-16.21399
2.2025	-0.90637
2.203	14.50195
2.2035	34.03931
2.204	25.68054
2.2045	30.91736
2.205	47.03064
2.2055	57.8064
2.206	59.92126
2.2065	31.01807
2.207	21.65222
2.2075	23.46497
2.208	36.25488
2.2085	53.07312
2.209	61.23047
2.2095	59.01489
2.21	59.82056
2.2105	52.8717
2.211	43.60657
2.2115	32.93152
2.212	28.39966
2.2125	17.82532
2.213	-9.06372
2.2135	-12.89062
2.214	-12.78992
2.2145	-9.36584
2.215	9.66797
2.2155	23.56567
2.216	42.09595
2.2165	52.06604
2.217	53.57666
2.2175	52.8717
2.218	45.52002
2.2185	29.30603
2.219	20.54443
2.2195	11.78284
2.22	5.13611
2.2205	7.75452
2.221	10.57434
2.2215	3.8269
2.222	10.47363
2.2225	6.64673
2.223	4.43115
2.2235	3.92761
2.224	3.02124
2.2245	2.41699
2.225	3.7262
2.2255	1.81274
2.226	2.21558
2.2265	-0.70496
2.227	-2.61841
2.2275	-6.3446
2.228	-7.15027
2.2285	-1.3092
2.229	-7.95593
2.2295	-10.37292
2.23	-12.78992
2.2305	-12.28638
2.231	-11.58142
2.2315	-7.75452
2.232	-7.35168
2.2325	-6.3446
2.233	-6.14319
2.2335	-6.04248
2.234	-7.75452
2.2345	-13.49487
2.235	-10.97717
2.2355	-8.56018
2.236	-2.41699
2.2365	-1.10779
2.237	-5.0354
2.2375	3.8269
2.238	13.49487
2.2385	13.99841
2.239	11.88354
2.2395	9.36584
2.24	10.17151
2.2405	9.66797
2.241	12.99133
2.2415	11.07788
2.242	12.68921
2.2425	15.60974
2.243	18.73169
2.2435	12.89062
2.244	10.0708
2.2445	8.45947
2.245	9.56726
2.2455	1.81274
2.246	5.53894
2.2465	5.74036
2.247	8.66089
2.2475	1.00708
2.248	-1.91345
2.2485	2.71912
2.249	-1.00708
2.2495	0.40283
2.25	-1.00708
2.2505	-3.42407
2.251	-7.35168
2.2515	0.30212
2.252	1.2085
2.2525	7.5531
2.253	5.43823
2.2535	-1.51062
2.254	-2.31628
2.2545	0.60425
2.255	-3.22266
2.2555	0.10071
2.256	-1.81274
2.2565	-2.71912
2.257	-7.65381
2.2575	-4.93469
2.258	8.96301
2.2585	0.40283
2.259	-7.35168
2.2595	-27.49329
2.26	-37.16125
2.2605	-39.57825
2.261	-25.68054
2.2615	-23.36426
2.262	-13.89771
2.2625	-3.8269
2.263	-15.60974
2.2635	-31.11877
2.264	-61.43188
2.2645	-79.15649
2.265	-94.06128
2.2655	-105.34058
2.266	-99.3988
2.2665	-77.64587
2.267	-47.93701
2.2675	-33.73718
2.268	-20.44373
2.2685	6.14319
2.269	42.39807
2.2695	78.75366
2.27	97.38464
2.2705	86.91101
2.271	72.30835
2.2715	54.68445
2.272	38.16833
2.2725	20.64514
2.273	-3.32336
2.2735	-9.46655
2.274	-13.39417
2.2745	11.58142
2.275	42.7002
2.2755	63.34534
2.276	79.45862
2.2765	96.27686
2.277	107.15332
2.2775	116.51917
2.278	112.99438
2.2785	90.23438
2.279	69.28711
2.2795	38.36975
2.28	23.96851
2.2805	27.39258
2.281	30.01099
2.2815	28.80249
2.282	25.27771
2.2825	22.86072
2.283	20.64514
2.2835	19.13452
2.284	17.22107
2.2845	8.35876
2.285	3.92761
2.2855	1.51062
2.286	8.66089
2.2865	-2.01416
2.287	1.71204
2.2875	-2.31628
2.288	-5.53894
2.2885	-6.64673
2.289	-7.45239
2.2895	-10.77576
2.29	-11.07788
2.2905	-11.68213
2.291	-9.86938
2.2915	-3.7262
2.292	-1.91345
2.2925	0.40283
2.293	-4.12903
2.2935	3.32336
2.294	0.30212
2.2945	0.70496
2.295	10.97717
2.2955	12.48779
2.296	20.64514
2.2965	21.85364
2.297	25.68054
2.2975	22.45789
2.298	20.94727
2.2985	22.6593
2.299	23.26355
2.2995	24.47205
2.3	14.30054
2.3005	2.5177
2.301	-14.19983
2.3015	-16.11328
2.302	-6.54602
2.3025	-2.92053
2.303	-4.93469
2.3035	-1.51062
2.304	-0.90637
2.3045	-5.13611
2.305	-0.90637
2.3055	-1.00708
2.306	0.90637
2.3065	1.61133
2.307	1.81274
2.3075	3.52478
2.308	-3.32336
2.3085	-5.63965
2.309	-0.80566
2.3095	-3.22266
2.31	-8.35876
2.3105	-2.21558
2.311	-5.63965
2.3115	-4.93469
2.312	-5.0354
2.3125	-2.21558
2.313	-1.51062
2.3135	-0.50354
2.314	5.74036
2.3145	2.21558
2.315	5.84106
2.3155	5.84106
2.316	7.15027
2.3165	7.5531
2.317	6.3446
2.3175	5.0354
2.318	3.12195
2.3185	3.32336
2.319	-29.10461
2.3195	-53.97949
2.32	-68.17932
2.3205	-64.75525
2.321	-58.30994
2.3215	-46.22498
2.322	-31.52161
2.3225	-12.48779
2.323	-0.90637
2.3235	15.40833
2.324	27.99683
2.3245	36.55701
2.325	35.54993
2.3255	36.35559
2.326	38.57117
2.3265	41.79382
2.327	52.771
2.3275	55.79224
2.328	46.42639
2.3285	18.93311
2.329	-6.04248
2.3295	-20.74585
2.33	-29.91028
2.3305	-39.27612
2.331	-37.86621
2.3315	-37.36267
2.332	-27.6947
2.3325	-27.19116
2.333	-10.37292
2.3335	5.84106
2.334	28.60107
2.3345	41.69312
2.335	50.354
2.3355	46.62781
2.336	63.04321
2.3365	72.40906
2.337	86.91101
2.3375	78.65295
2.338	54.78516
2.3385	27.79541
2.339	13.09204
2.3395	12.28638
2.34	12.48779
2.3405	14.60266
2.341	14.60266
2.3415	14.09912
2.342	13.797
2.3425	11.98425
2.343	9.66797
2.3435	11.38
2.344	12.48779
2.3445	6.94885
2.345	5.13611
2.3455	3.02124
2.346	-9.46655
2.3465	-6.74744
2.347	-9.36584
2.3475	-1.61133
2.348	0.70496
2.3485	2.81982
2.349	3.52478
2.3495	3.02124
2.35	9.16443
2.3505	4.93469
2.351	8.7616
2.3515	6.74744
2.352	4.12903
2.3525	1.51062
2.353	6.14319
2.3535	1.3092
2.354	3.52478
2.3545	4.22974
2.355	12.38708
2.3555	6.54602
2.356	9.66797
2.3565	10.27222
2.357	7.75452
2.3575	6.94885
2.358	2.71912
2.3585	2.31628
2.359	1.40991
2.3595	-0.10071
2.36	3.8269
2.3605	3.32336
2.361	2.11487
2.3615	-3.62549
2.362	2.61841
2.3625	4.53186
2.363	6.3446
2.3635	7.75452
2.364	2.41699
2.3645	1.71204
2.365	3.22266
2.3655	1.2085
2.366	1.81274
2.3665	-10.47363
2.367	-18.93311
2.3675	-25.57983
2.368	-28.50037
2.3685	-22.15576
2.369	-16.91895
2.3695	-11.2793
2.37	-4.63257
2.3705	4.93469
2.371	14.60266
2.3715	17.22107
2.372	23.8678
2.3725	31.92444
2.373	22.55859
2.3735	20.24231
2.374	29.10461
2.3745	23.76709
2.375	16.51611
2.3755	4.43115
2.376	-22.55859
2.3765	-44.21082
2.377	-52.06604
2.3775	-50.45471
2.378	-43.00232
2.3785	-41.18958
2.379	-34.03931
2.3795	-21.24939
2.38	-12.68921
2.3805	0.50354
2.381	14.19983
2.3815	19.94019
2.382	34.84497
2.3825	44.21082
2.383	49.74976
2.3835	55.79224
2.384	60.02197
2.3845	57.20215
2.385	45.72144
2.3855	26.98975
2.386	14.40125
2.3865	6.74744
2.387	10.17151
2.3875	10.27222
2.388	9.56726
2.3885	16.11328
2.389	13.39417
2.3895	11.38
2.39	7.35168
2.3905	10.27222
2.391	8.25806
2.3915	6.2439
2.392	5.94177
2.3925	-12.28638
2.393	-24.47205
2.3935	-26.48621
2.394	-40.08179
2.3945	-50.55542
2.395	-56.79932
2.3955	-50.354
2.396	-41.29028
2.3965	-37.66479
2.397	-30.71594
2.3975	-23.66638
2.398	-7.95593
2.3985	11.98425
2.399	27.19116
2.3995	42.8009
2.4	53.97949
2.4005	52.16675
2.401	50.95825
2.4015	40.58533
2.402	35.65063
2.4025	34.64355
2.403	37.46338
2.4035	28.9032
2.404	26.88904
2.4045	20.34302
2.405	25.47913
2.4055	26.78833
2.406	18.93311
2.4065	14.50195
2.407	21.04797
2.4075	16.3147
2.408	18.63098
2.4085	10.27222
2.409	8.45947
2.4095	10.47363
2.41	9.66797
2.4105	6.2439
2.411	8.45947
2.4115	1.2085
2.412	-1.51062
2.4125	-5.43823
2.413	1.00708
2.4135	-4.53186
2.414	3.62549
2.4145	-6.94885
2.415	-27.99683
2.4155	-30.11169
2.416	-40.48462
2.4165	-34.14001
2.417	-38.974
2.4175	-33.23364
2.418	-21.04797
2.4185	-20.34302
2.419	-14.40125
2.4195	-13.99841
2.42	-8.66089
2.4205	-5.0354
2.421	-20.04089
2.4215	-48.84338
2.422	-92.55066
2.4225	-135.15015
2.423	-169.49158
2.4235	-189.12964
2.424	-191.04309
2.4245	-184.19495
2.425	-171.90857
2.4255	-128.20129
2.426	-75.32959
2.4265	-17.32178
2.427	60.82764
2.4275	137.56714
2.428	194.56787
2.4285	234.85107
2.429	266.77551
2.4295	280.06897
2.43	270.70312
2.4305	234.85107
2.431	181.47583
2.4315	104.4342
2.432	46.82922
2.4325	27.09045
2.433	20.54443
2.4335	23.26355
2.434	19.13452
2.4345	16.91895
2.435	15.91187
2.4355	19.33594
2.436	21.04797
2.4365	9.66797
2.437	9.56726
2.4375	14.70337
2.438	8.7616
2.4385	11.98425
2.439	3.32336
2.4395	3.8269
2.44	0.10071
2.4405	0.80566
2.441	1.10779
2.4415	-0.90637
2.442	-2.31628
2.4425	-3.62549
2.443	-5.94177
2.4435	-5.84106
2.444	-4.43115
2.4445	-6.14319
2.445	-2.31628
2.4455	-16.41541
2.446	-27.39258
2.4465	-34.44214
2.447	-34.84497
2.4475	-32.02515
2.448	-26.88904
2.4485	-26.88904
2.449	-39.88037
2.4495	-44.21082
2.45	-47.43347
2.4505	-40.68604
2.451	-36.25488
2.4515	-23.16284
2.452	-8.96301
2.4525	-3.32336
2.453	5.13611
2.4535	20.04089
2.454	28.9032
2.4545	31.11877
2.455	30.71594
2.4555	39.37683
2.456	43.40515
2.4565	51.15967
2.457	55.99365
2.4575	58.30994
2.458	52.97241
2.4585	34.64355
2.459	10.57434
2.4595	3.62549
2.46	5.84106
2.4605	2.92053
2.461	0.40283
2.4615	2.61841
2.462	-3.32336
2.4625	-0.20142
2.463	-10.0708
2.4635	-6.74744
2.464	-6.84814
2.4645	-6.14319
2.465	-18.32886
2.4655	-33.23364
2.466	-41.69312
2.4665	-56.5979
2.467	-53.77808
2.4675	-44.81506
2.468	-46.5271
2.4685	-44.0094
2.469	-38.36975
2.4695	-21.3501
2.47	3.42407
2.4705	13.797
2.471	23.46497
2.4715	37.06055
2.472	49.95117
2.4725	50.354
2.473	57.40356
2.4735	60.3241
2.474	54.58374
2.4745	35.04639
2.475	22.55859
2.4755	14.90479
2.476	8.66089
2.4765	13.09204
2.477	8.7616
2.4775	1.00708
2.478	-8.45947
2.4785	-12.78992
2.479	-24.67346
2.4795	-24.27063
2.48	-31.11877
2.4805	-27.89612
2.481	-27.29187
2.4815	-36.55701
2.482	-32.7301
2.4825	-32.7301
2.483	-15.30762
2.4835	-5.0354
2.484	6.2439
2.4845	14.50195
2.485	28.70178
2.4855	33.03223
2.486	36.95984
2.4865	31.82373
2.487	22.86072
2.4875	2.81982
2.488	-15.50903
2.4885	-19.43665
2.489	-21.04797
2.4895	-19.33594
2.49	-14.60266
2.4905	-24.67346
2.491	-33.53577
2.4915	-30.31311
2.492	-17.12036
2.4925	-3.02124
2.493	15.50903
2.4935	34.14001
2.494	40.48462
2.4945	40.38391
2.495	36.35559
2.4955	32.52869
2.496	21.75293
2.4965	10.57434
2.497	14.30054
2.4975	16.51611
2.498	24.87488
2.4985	22.15576
2.499	12.18567
2.4995	-4.33044
2.5	-37.26196
2.5005	-65.86304
2.501	-81.47278
2.5015	-86.30676
2.502	-87.21313
2.5025	-76.43738
2.503	-52.36816
2.5035	-36.85913
2.504	-13.29346
2.5045	18.02673
2.505	50.2533
2.5055	72.30835
2.506	95.97473
2.5065	105.54199
2.507	107.05261
2.5075	108.66394
2.508	98.79456
2.5085	80.4657
2.509	70.89844
2.5095	43.00232
2.51	21.75293
2.5105	16.71753
2.511	23.8678
2.5115	24.27063
2.512	23.16284
2.5125	16.71753
2.513	14.19983
2.5135	1.3092
2.514	-1.61133
2.5145	-2.11487
2.515	-2.92053
2.5155	-7.15027
2.516	-0.30212
2.5165	-5.63965
2.517	0.70496
2.5175	0.60425
2.518	-3.42407
2.5185	-1.61133
2.519	7.5531
2.5195	-0.60425
2.52	4.12903
2.5205	11.2793
2.521	11.48071
2.5215	15.30762
2.522	15.81116
2.5225	9.26514
2.523	11.17859
2.5235	13.09204
2.524	14.09912
2.5245	16.11328
2.525	7.45239
2.5255	6.2439
2.526	5.13611
2.5265	2.92053
2.527	2.41699
2.5275	0.70496
2.528	-3.22266
2.5285	2.31628
2.529	0
2.5295	-1.71204
2.53	-1.10779
2.5305	-4.02832
2.531	1.40991
2.5315	2.21558
2.532	1.00708
2.5325	0
2.533	1.61133
2.5335	-6.54602
2.534	-27.79541
2.5345	-48.23914
2.535	-60.72693
2.5355	-78.85437
2.536	-104.23279
2.5365	-125.58289
2.537	-138.77563
2.5375	-129.5105
2.538	-115.81421
2.5385	-91.94641
2.539	-57.40356
2.5395	-27.89612
2.54	3.32336
2.5405	32.93152
2.541	59.01489
2.5415	88.62305
2.542	124.67651
2.5425	127.09351
2.543	112.49084
2.5435	77.54517
2.544	43.40515
2.5445	17.52319
2.545	4.63257
2.5455	-8.96301
2.546	-25.68054
2.5465	-31.62231
2.547	-17.6239
2.5475	1.51062
2.548	19.83948
2.5485	40.1825
2.549	56.90002
2.5495	68.17932
2.55	72.40906
2.5505	75.73242
2.551	87.41455
2.5515	85.09827
2.552	77.24304
2.5525	43.70728
2.553	18.53027
2.5535	4.73328
2.554	1.91345
2.5545	-1.3092
2.555	3.52478
2.5555	-1.91345
2.556	-16.01257
2.5565	-21.95435
2.557	-55.18799
2.5575	-83.18481
2.558	-105.34058
2.5585	-119.54041
2.559	-115.81421
2.5595	-116.51917
2.56	-107.15332
2.5605	-85.60181
2.561	-60.92834
2.5615	-18.12744
2.562	25.27771
2.5625	52.06604
2.563	58.10852
2.5635	56.5979
2.564	54.98657
2.5645	68.68286
2.565	57.10144
2.5655	34.03931
2.566	22.35718
2.5665	-1.10779
2.567	-4.93469
2.5675	17.12036
2.568	46.22498
2.5685	62.43896
2.569	76.03455
2.5695	81.67419
2.57	91.14075
2.5705	94.86694
2.571	96.37756
2.5715	82.78198
2.572	58.91418
2.5725	35.65063
2.573	15.20691
2.5735	14.19983
2.574	9.46655
2.5745	12.89062
2.575	13.49487
2.5755	21.14868
2.576	19.43665
2.5765	16.21399
2.577	12.28638
2.5775	14.09912
2.578	19.43665
2.5785	17.72461
2.579	13.29346
2.5795	14.90479
2.58	12.48779
2.5805	7.45239
2.581	3.32336
2.5815	-0.30212
2.582	-1.00708
2.5825	-4.33044
2.583	-1.61133
2.5835	-10.17151
2.584	-11.98425
2.5845	-4.43115
2.585	-9.16443
2.5855	-9.36584
2.586	-6.14319
2.5865	3.62549
2.587	5.53894
2.5875	5.23682
2.588	1.2085
2.5885	-3.7262
2.589	-2.92053
2.5895	-3.32336
2.59	-6.74744
2.5905	-16.21399
2.591	-12.89062
2.5915	-8.45947
2.592	-11.38
2.5925	-17.72461
2.593	-16.3147
2.5935	-6.94885
2.594	-5.84106
2.5945	4.93469
2.595	-3.7262
2.5955	1.81274
2.596	0
2.5965	3.62549
2.597	3.52478
2.5975	3.22266
2.598	6.14319
2.5985	1.00708
2.599	2.31628
2.5995	0.10071
2.6	-5.43823
2.6005	-0.50354
2.601	2.01416
2.6015	2.41699
2.602	1.40991
2.6025	3.92761
2.603	1.40991
2.6035	6.64673
2.604	4.53186
2.6045	5.43823
2.605	2.71912
2.6055	-5.53894
2.606	-8.66089
2.6065	-5.23682
2.607	-5.23682
2.6075	-15.71045
2.608	-44.31152
2.6085	-68.38074
2.609	-80.16357
2.6095	-86.10535
2.61	-85.19897
2.6105	-73.21472
2.611	-67.27295
2.6115	-71.50269
2.612	-98.89526
2.6125	-107.75757
2.613	-91.44287
2.6135	-77.54517
2.614	-67.47437
2.6145	-49.24622
2.615	-19.43665
2.6155	4.02832
2.616	49.64905
2.6165	76.23596
2.617	87.51526
2.6175	79.15649
2.618	63.44604
2.6185	67.97791
2.619	83.38623
2.6195	112.79297
2.62	129.20837
2.6205	127.49634
2.621	102.92358
2.6215	62.64038
2.622	54.78516
2.6225	49.64905
2.623	54.68445
2.6235	55.69153
2.624	46.12427
2.6245	34.84497
2.625	20.44373
2.6255	4.93469
2.626	-9.26514
2.6265	-24.97559
2.627	-35.65063
2.6275	-28.70178
2.628	-26.78833
2.6285	-22.35718
2.629	-13.39417
2.6295	-1.61133
2.63	12.18567
2.6305	19.94019
2.631	28.60107
2.6315	29.91028
2.632	35.85205
2.6325	28.29895
2.633	13.09204
2.6335	-5.74036
2.634	-20.54443
2.6345	-15.81116
2.635	-9.56726
2.6355	-21.45081
2.636	-28.19824
2.6365	-27.89612
2.637	-5.63965
2.6375	8.66089
2.638	20.94727
2.6385	21.3501
2.639	31.01807
2.6395	31.92444
2.64	29.60815
2.6405	36.15417
2.641	37.56409
2.6415	45.41931
2.642	30.81665
2.6425	-3.32336
2.643	-25.98267
2.6435	-52.771
2.644	-59.92126
2.6445	-59.61914
2.645	-51.86462
2.6455	-39.17542
2.646	-30.61523
2.6465	-13.89771
2.647	-4.83398
2.6475	7.25098
2.648	21.24939
2.6485	36.05347
2.649	52.26746
2.6495	60.22339
2.65	69.48853
2.6505	71.30127
2.651	64.65454
2.6515	63.74817
2.652	51.36108
2.6525	49.54834
2.653	39.47754
2.6535	26.58691
2.654	15.91187
2.6545	4.73328
2.655	6.84814
2.6555	4.83398
2.656	7.25098
2.6565	8.8623
2.657	12.5885
2.6575	8.7616
2.658	16.91895
2.6585	17.82532
2.659	14.09912
2.6595	16.11328
2.66	18.42957
2.6605	15.1062
2.661	16.41541
2.6615	14.40125
2.662	9.26514
2.6625	7.15027
2.663	9.86938
2.6635	7.15027
2.664	4.83398
2.6645	6.2439
2.665	5.63965
2.6655	5.63965
2.666	-1.10779
2.6665	5.84106
2.667	10.77576
2.6675	5.33752
2.668	3.62549
2.6685	1.40991
2.669	4.63257
2.6695	9.76868
2.67	1.3092
2.6705	-7.65381
2.671	-6.94885
2.6715	-3.92761
2.672	-7.85522
2.6725	-11.48071
2.673	-10.77576
2.6735	-5.74036
2.674	-9.06372
2.6745	-21.65222
2.675	-34.74426
2.6755	-43.10303
2.676	-36.35559
2.6765	-41.29028
2.677	-41.4917
2.6775	-36.75842
2.678	-29.60815
2.6785	-23.56567
2.679	-14.70337
2.6795	-4.43115
2.68	4.73328
2.6805	11.98425
2.681	14.70337
2.6815	24.67346
2.682	35.65063
2.6825	39.27612
2.683	36.55701
2.6835	16.71753
2.684	-3.8269
2.6845	-37.46338
2.685	-71.60339
2.6855	-104.53491
2.686	-114.70642
2.6865	-113.09509
2.687	-115.81421
2.6875	-106.75049
2.688	-101.21155
2.6885	-75.02747
2.689	-34.03931
2.6895	18.8324
2.69	66.36658
2.6905	106.44836
2.691	129.20837
2.6915	146.42944
2.692	166.0675
2.6925	145.42236
2.693	99.2981
2.6935	46.5271
2.694	1.81274
2.6945	-16.91895
2.695	2.41699
2.6955	14.60266
2.696	26.28479
2.6965	38.87329
2.697	33.33435
2.6975	21.3501
2.698	14.90479
2.6985	0.30212
2.699	1.81274
2.6995	7.5531
2.7	8.25806
2.7005	16.91895
2.701	12.89062
2.7015	-6.14319
2.702	-38.57117
2.7025	-56.09436
2.703	-60.82764
2.7035	-53.77808
2.704	-52.06604
2.7045	-57.20215
2.705	-54.98657
2.7055	-48.84338
2.706	-56.69861
2.7065	-63.04321
2.707	-54.98657
2.7075	-27.29187
2.708	-9.46655
2.7085	12.5885
2.709	40.58533
2.7095	78.95508
2.71	105.44128
2.7105	123.16589
2.711	120.44678
2.7115	122.25952
2.712	118.33191
2.7125	105.03845
2.713	92.55066
2.7135	78.85437
2.714	72.30835
2.7145	70.49561
2.715	68.98499
2.7155	52.67029
2.716	37.7655
2.7165	36.55701
2.717	27.09045
2.7175	20.54443
2.718	20.1416
2.7185	15.20691
2.719	14.30054
2.7195	10.0708
2.72	5.84106
2.7205	-1.40991
2.721	-1.51062
2.7215	-0.20142
2.722	-4.33044
2.7225	-11.2793
2.723	-7.5531
2.7235	-4.12903
2.724	-3.7262
2.7245	-1.91345
2.725	-6.84814
2.7255	-7.75452
2.726	-10.0708
2.7265	-32.62939
2.727	-42.59949
2.7275	-52.36816
2.728	-52.06604
2.7285	-53.07312
2.729	-43.40515
2.7295	-38.87329
2.73	-35.54993
2.7305	-26.88904
2.731	-17.72461
2.7315	-7.04956
2.732	1.3092
2.7325	10.77576
2.733	19.73877
2.7335	23.8678
2.734	32.62939
2.7345	27.59399
2.735	36.4563
2.7355	34.64355
2.736	20.04089
2.7365	11.38
2.737	-1.10779
2.7375	-0.50354
2.738	-0.70496
2.7385	-1.00708
2.739	6.04248
2.7395	6.74744
2.74	10.47363
2.7405	11.2793
2.741	8.45947
2.7415	10.17151
2.742	7.04956
2.7425	13.99841
2.743	10.47363
2.7435	11.68213
2.744	9.06372
2.7445	1.40991
2.745	-9.26514
2.7455	-6.94885
2.746	-17.52319
2.7465	-24.97559
2.747	-21.14868
2.7475	-23.26355
2.748	-32.12585
2.7485	-29.10461
2.749	-38.36975
2.7495	-34.03931
2.75	-34.14001
2.7505	-23.66638
2.751	-15.1062
2.7515	-2.11487
2.752	6.04248
2.7525	11.88354
2.753	16.81824
2.7535	21.95435
2.754	29.70886
2.7545	37.7655
2.755	36.05347
2.7555	29.60815
2.756	25.98267
2.7565	16.41541
2.757	17.52319
2.7575	18.63098
2.758	16.71753
2.7585	20.1416
2.759	21.24939
2.7595	21.14868
2.76	22.25647
2.7605	20.84656
2.761	18.02673
2.7615	16.01257
2.762	8.7616
2.7625	6.3446
2.763	9.46655
2.7635	5.33752
2.764	1.61133
2.7645	-1.91345
2.765	-2.01416
2.7655	7.25098
2.766	12.18567
2.7665	3.7262
2.767	18.53027
2.7675	6.54602
2.768	4.63257
2.7685	4.73328
2.769	9.66797
2.7695	16.71753
2.77	7.95593
2.7705	13.09204
2.771	21.24939
2.7715	20.64514
2.772	18.73169
2.7725	17.01965
2.773	10.77576
2.7735	12.08496
2.774	7.5531
2.7745	2.92053
2.775	-0.20142
2.7755	-7.85522
2.776	-7.65381
2.7765	-5.84106
2.777	-10.0708
2.7775	-2.81982
2.778	-2.61841
2.7785	1.2085
2.779	2.81982
2.7795	-0.70496
2.78	-4.22974
2.7805	3.7262
2.781	4.53186
2.7815	5.84106
2.782	7.04956
2.7825	2.5177
2.783	3.22266
2.7835	-6.74744
2.784	-18.53027
2.7845	-22.55859
2.785	-27.99683
2.7855	-22.25647
2.786	-26.3855
2.7865	-33.63647
2.787	-28.80249
2.7875	-26.98975
2.788	-21.75293
2.7885	-7.25098
2.789	2.41699
2.7895	13.19275
2.79	25.37842
2.7905	28.29895
2.791	33.03223
2.7915	40.38391
2.792	49.44763
2.7925	55.59082
2.793	40.08179
2.7935	30.81665
2.794	21.24939
2.7945	-25.98267
2.795	-88.52234
2.7955	-129.5105
2.796	-142.70325
2.7965	-142.90466
2.797	-130.21545
2.7975	-118.2312
2.798	-94.76624
2.7985	-71.30127
2.799	-41.89453
2.7995	-13.09204
2.8	14.80408
2.8005	32.7301
2.801	34.94568
2.8015	29.10461
2.802	20.94727
2.8025	28.50037
2.803	32.02515
2.8035	37.46338
2.804	49.95117
2.8045	60.02197
2.805	70.69702
2.8055	64.35242
2.806	54.0802
2.8065	62.23755
2.807	51.46179
2.8075	27.49329
2.808	-3.92761
2.8085	-30.41382
2.809	-51.76392
2.8095	-65.66162
2.81	-90.83862
2.8105	-83.38623
2.811	-76.23596
2.8115	-51.76392
2.812	-4.63257
2.8125	50.15259
2.813	97.68677
2.8135	138.47351
2.814	168.68591
2.8145	166.26892
2.815	159.01794
2.8155	140.28625
2.816	117.02271
2.8165	90.03296
2.817	69.99207
2.8175	80.26428
2.818	81.67419
2.8185	74.42322
2.819	75.93384
2.8195	76.23596
2.82	72.61047
2.8205	51.5625
2.821	35.54993
2.8215	19.03381
2.822	2.92053
2.8225	-3.32336
2.823	-6.94885
2.8235	-2.01416
2.824	3.8269
2.8245	1.2085
2.825	-0.70496
2.8255	3.22266
2.826	-2.5177
2.8265	-3.52478
2.827	-1.40991
2.8275	-1.00708
2.828	-6.84814
2.8285	-4.73328
2.829	-3.32336
2.8295	-12.48779
2.83	-11.78284
2.8305	-12.18567
2.831	-7.45239
2.8315	-4.73328
2.832	-4.33044
2.8325	-10.27222
2.833	-10.67505
2.8335	-6.3446
2.834	-3.12195
2.8345	-4.33044
2.835	-0.70496
2.8355	-4.22974
2.836	-8.05664
2.8365	-10.47363
2.837	-9.86938
2.8375	-6.44531
2.838	-7.75452
2.8385	-11.17859
2.839	-5.63965
2.8395	-7.5531
2.84	-10.27222
2.8405	-9.86938
2.841	-7.35168
2.8415	-2.21558
2.842	-5.13611
2.8425	-5.53894
2.843	-9.16443
2.8435	-9.56726
2.844	-4.22974
2.8445	-2.92053
2.845	7.45239
2.8455	1.91345
2.846	-1.61133
2.8465	4.22974
2.847	1.10779
2.8475	1.71204
2.848	0.60425
2.8485	-14.19983
2.849	-17.52319
2.8495	-15.30762
2.85	-9.46655
2.8505	-7.15027
2.851	-2.92053
2.8515	-8.05664
2.852	-11.58142
2.8525	-13.19275
2.853	-16.21399
2.8535	-17.12036
2.854	-8.05664
2.8545	-9.76868
2.855	-14.70337
2.8555	-10.77576
2.856	-7.25098
2.8565	-4.73328
2.857	-0.30212
2.8575	5.74036
2.858	0.30212
2.8585	3.7262
2.859	2.11487
2.8595	9.97009
2.86	15.60974
2.8605	3.52478
2.861	6.74744
2.8615	12.89062
2.862	13.39417
2.8625	14.09912
2.863	11.38
2.8635	8.45947
2.864	8.25806
2.8645	5.43823
2.865	-1.3092
2.8655	-3.32336
2.866	-2.71912
2.8665	1.81274
2.867	3.02124
2.8675	-1.3092
2.868	1.91345
2.8685	4.02832
2.869	1.2085
2.8695	-1.10779
2.87	-1.40991
2.8705	-0.10071
2.871	-0.10071
2.8715	-4.63257
2.872	-11.58142
2.8725	-11.68213
2.873	-7.25098
2.8735	-5.13611
2.874	-5.63965
2.8745	1.3092
2.875	8.7616
2.8755	13.09204
2.876	9.76868
2.8765	3.12195
2.877	-15.81116
2.8775	-25.78125
2.878	-32.93152
2.8785	-36.85913
2.879	-38.36975
2.8795	-39.07471
2.88	-34.84497
2.8805	-23.56567
2.881	-15.1062
2.8815	-11.48071
2.882	-8.66089
2.8825	2.5177
2.883	10.0708
2.8835	21.3501
2.884	25.78125
2.8845	35.95276
2.885	35.95276
2.8855	31.21948
2.886	40.88745
2.8865	41.69312
2.887	35.2478
2.8875	30.31311
2.888	25.88196
2.8885	19.63806
2.889	10.47363
2.8895	6.2439
2.89	11.58142
2.8905	11.78284
2.891	14.40125
2.8915	13.89771
2.892	8.45947
2.8925	-11.38
2.893	-17.01965
2.8935	-26.58691
2.894	-51.86462
2.8945	-76.7395
2.895	-103.52783
2.8955	-108.86536
2.896	-89.328
2.8965	-64.25171
2.897	-43.90869
2.8975	-13.797
2.898	14.50195
2.8985	37.26196
2.899	54.58374
2.8995	72.10693
2.9	78.95508
2.9005	83.18481
2.901	77.24304
2.9015	71.50269
2.902	75.32959
2.9025	62.74109
2.903	57.70569
2.9035	52.26746
2.904	44.31152
2.9045	41.89453
2.905	37.56409
2.9055	40.98816
2.906	53.37524
2.9065	56.5979
2.907	53.17383
2.9075	37.86621
2.908	36.95984
2.9085	26.58691
2.909	15.20691
2.9095	8.56018
2.91	11.98425
2.9105	12.68921
2.911	12.89062
2.9115	9.06372
2.912	11.17859
2.9125	11.2793
2.913	4.12903
2.9135	6.3446
2.914	0.90637
2.9145	4.33044
2.915	8.96301
2.9155	2.71912
2.916	3.42407
2.9165	2.61841
2.917	2.01416
2.9175	-2.21558
2.918	-0.40283
2.9185	-3.12195
2.919	-13.797
2.9195	-35.34851
2.92	-55.59082
2.9205	-70.3949
2.921	-67.47437
2.9215	-64.75525
2.922	-61.23047
2.9225	-63.64746
2.923	-53.07312
2.9235	-37.26196
2.924	-16.51611
2.9245	0
2.925	14.40125
2.9255	27.59399
2.926	41.79382
2.9265	45.92285
2.927	53.57666
2.9275	74.2218
2.928	81.06995
2.9285	69.48853
2.929	46.02356
2.9295	32.12585
2.93	29.91028
2.9305	28.60107
2.931	28.9032
2.9315	29.20532
2.932	23.66638
2.9325	27.39258
2.933	27.39258
2.9335	34.03931
2.934	23.06213
2.9345	23.76709
2.935	23.46497
2.9355	23.26355
2.936	1.3092
2.9365	-19.03381
2.937	-50.15259
2.9375	-66.97083
2.938	-70.29419
2.9385	-68.58215
2.939	-77.34375
2.9395	-83.28552
2.94	-79.96216
2.9405	-85.09827
2.941	-89.42871
2.9415	-90.13367
2.942	-96.17615
2.9425	-93.85986
2.943	-74.92676
2.9435	-48.84338
2.944	-27.19116
2.9445	5.74036
2.945	35.54993
2.9455	54.88586
2.946	66.46729
2.9465	91.14075
2.947	119.54041
2.9475	125.07935
2.948	125.48218
2.9485	112.59155
2.949	99.80164
2.9495	92.85278
2.95	77.04163
2.9505	67.77649
2.951	56.39648
2.9515	51.86462
2.952	48.33984
2.9525	43.10303
2.953	38.47046
2.9535	37.16125
2.954	35.04639
2.9545	26.78833
2.955	23.46497
2.9555	15.1062
2.956	12.5885
2.9565	17.42249
2.957	14.70337
2.9575	14.60266
2.958	12.5885
2.9585	3.62549
2.959	4.33044
2.9595	0.10071
2.96	-15.50903
2.9605	-22.35718
2.961	-28.39966
2.9615	-29.80957
2.962	-32.62939
2.9625	-30.81665
2.963	-36.85913
2.9635	-32.12585
2.964	-28.80249
2.9645	-20.54443
2.965	-17.01965
2.9655	-5.63965
2.966	9.56726
2.9665	12.18567
2.967	21.45081
2.9675	22.25647
2.968	23.66638
2.9685	22.96143
2.969	21.04797
2.9695	8.45947
2.97	-3.12195
2.9705	-21.45081
2.971	-55.18799
2.9715	-95.97473
2.972	-157.2052
2.9725	-203.83301
2.973	-237.87231
2.9735	-242.50488
2.974	-231.93054
2.9745	-219.24133
2.975	-207.86133
2.9755	-171.0022
2.976	-134.14307
2.9765	-84.69543
2.977	-31.32019
2.9775	20.34302
2.978	65.46021
2.9785	87.31384
2.979	102.11792
2.9795	121.55457
2.98	114.90784
2.9805	120.14465
2.981	125.88501
2.9815	130.51758
2.982	136.25793
2.9825	154.38538
2.983	150.25635
2.9835	151.16272
2.984	144.41528
2.9845	112.69226
2.985	76.53809
2.9855	37.16125
2.986	8.15735
2.9865	7.35168
2.987	25.47913
2.9875	41.39099
2.988	57.9071
2.9885	65.56091
2.989	55.79224
2.9895	46.42639
2.99	25.78125
2.9905	-12.68921
2.991	-36.05347
2.9915	-61.53259
2.992	-76.03455
2.9925	-99.09668
2.993	-111.48376
2.9935	-125.07935
2.994	-120.7489
2.9945	-110.98022
2.995	-98.69385
2.9955	-77.24304
2.996	-45.52002
2.9965	7.04956
2.997	41.4917
2.9975	85.09827
2.998	110.27527
2.9985	144.01245
2.999	163.04626
2.9995	164.7583
3	142.90466
3.0005	121.85669
3.001	105.03845
3.0015	85.70251
3.002	64.35242
3.0025	47.93701
3.003	22.96143
3.0035	11.58142
3.004	6.54602
3.0045	10.57434
3.005	8.7616
3.0055	8.45947
3.006	9.97009
3.0065	11.98425
3.007	21.75293
3.0075	25.07629
3.008	20.24231
3.0085	24.67346
3.009	21.65222
3.0095	23.36426
3.01	13.89771
3.0105	6.94885
3.011	2.01416
3.0115	-8.56018
3.012	-10.77576
3.0125	-10.87646
3.013	-4.53186
3.0135	-4.22974
3.014	-4.33044
3.0145	-8.05664
3.015	-7.75452
3.0155	-8.45947
3.016	-4.33044
3.0165	-11.78284
3.017	-15.60974
3.0175	-36.95984
3.018	-43.00232
3.0185	-42.8009
3.019	-39.27612
3.0195	-49.64905
3.02	-67.67578
3.0205	-83.28552
3.021	-90.73792
3.0215	-83.58765
3.022	-70.59631
3.0225	-60.02197
3.023	-43.10303
3.0235	-28.60107
3.024	-8.96301
3.0245	20.34302
3.025	33.63647
3.0255	51.05896
3.026	78.35083
3.0265	85.80322
3.027	87.01172
3.0275	84.59473
3.028	94.16199
3.0285	97.98889
3.029	78.35083
3.0295	60.52551
3.03	41.99524
3.0305	41.79382
3.031	41.99524
3.0315	34.84497
3.032	26.78833
3.0325	13.89771
3.033	6.84814
3.0335	0.50354
3.034	5.33752
3.0345	2.21558
3.035	-2.81982
3.0355	-3.52478
3.036	-6.14319
3.0365	-4.73328
3.037	-8.05664
3.0375	-7.75452
3.038	-11.68213
3.0385	-14.19983
3.039	-18.32886
3.0395	-21.55151
3.04	-21.75293
3.0405	-16.81824
3.041	-11.68213
3.0415	-16.61682
3.042	-20.44373
3.0425	-21.04797
3.043	-23.06213
3.0435	-28.50037
3.044	-26.48621
3.0445	-19.83948
3.045	-11.68213
3.0455	-7.75452
3.046	5.0354
3.0465	12.5885
3.047	7.85522
3.0475	6.94885
3.048	-0.40283
3.0485	-0.80566
3.049	-1.81274
3.0495	-20.74585
3.05	-38.77258
3.0505	-46.02356
3.051	-50.05188
3.0515	-54.98657
3.052	-71.80481
3.0525	-63.94958
3.053	-52.771
3.0535	-35.2478
3.054	-16.61682
3.0545	-7.85522
3.055	-15.1062
3.0555	-9.66797
3.056	-2.01416
3.0565	14.40125
3.057	44.11011
3.0575	75.02747
3.058	85.70251
3.0585	79.05579
3.059	55.3894
3.0595	40.88745
3.06	31.82373
3.0605	35.95276
3.061	43.80798
3.0615	39.98108
3.062	31.62231
3.0625	42.7002
3.063	40.2832
3.0635	35.65063
3.064	1.91345
3.0645	-30.61523
3.065	-44.81506
3.0655	-52.56958
3.066	-63.44604
3.0665	-83.68835
3.067	-117.82837
3.0675	-149.04785
3.068	-177.95105
3.0685	-189.23035
3.069	-156.29883
3.0695	-121.45386
3.07	-81.27136
3.0705	-43.70728
3.071	-7.95593
3.0715	29.60815
3.072	77.14233
3.0725	109.77173
3.073	119.74182
3.0735	120.95032
3.074	123.46802
3.0745	124.97864
3.075	110.47668
3.0755	98.19031
3.076	84.09119
3.0765	72.9126
3.077	73.31543
3.0775	65.15808
3.078	49.64905
3.0785	46.42639
3.079	43.20374
3.0795	31.62231
3.08	3.22266
3.0805	-15.1062
3.081	-29.91028
3.0815	-30.81665
3.082	-16.21399
3.0825	-3.8269
3.083	-0.60425
3.0835	-14.19983
3.084	-11.78284
3.0845	-0.90637
3.085	0.20142
3.0855	7.5531
3.086	27.29187
3.0865	44.21082
3.087	58.61206
3.0875	64.25171
3.088	68.68286
3.0885	67.67578
3.089	53.67737
3.0895	46.22498
3.09	40.58533
3.0905	32.22656
3.091	30.71594
3.0915	28.60107
3.092	14.70337
3.0925	-2.71912
3.093	-9.16443
3.0935	-23.76709
3.094	-43.80798
3.0945	-69.08569
3.095	-72.20764
3.0955	-63.54675
3.096	-45.62073
3.0965	-37.06055
3.097	-30.01099
3.0975	-26.98975
3.098	-22.25647
3.0985	-9.97009
3.099	3.7262
3.0995	1.91345
3.1	11.07788
3.1005	29.60815
3.101	34.24072
3.1015	40.88745
3.102	55.89294
3.1025	66.06445
3.103	62.64038
3.1035	33.53577
3.104	3.52478
3.1045	-10.67505
3.105	-19.63806
3.1055	-17.6239
3.106	-34.34143
3.1065	-52.26746
3.107	-67.97791
3.1075	-61.93542
3.108	-58.91418
3.1085	-39.17542
3.109	-45.82214
3.1095	-66.16516
3.11	-74.42322
3.1105	-90.83862
3.111	-87.51526
3.1115	-91.94641
3.112	-98.0896
3.1125	-89.42871
3.113	-76.53809
3.1135	-52.67029
3.114	-13.49487
3.1145	32.83081
3.115	84.49402
3.1155	121.65527
3.116	157.00378
3.1165	161.33423
3.117	166.26892
3.1175	165.56396
3.118	144.21387
3.1185	107.35474
3.119	67.8772
3.1195	25.37842
3.12	7.95593
3.1205	12.38708
3.121	15.00549
3.1215	11.48071
3.122	7.85522
3.1225	12.68921
3.123	14.70337
3.1235	10.17151
3.124	3.8269
3.1245	-0.80566
3.125	-1.2085
3.1255	-1.71204
3.126	1.00708
3.1265	-1.71204
3.127	5.13611
3.1275	-1.3092
3.128	-8.05664
3.1285	-5.0354
3.129	-11.68213
3.1295	-13.59558
3.13	-20.44373
3.1305	-12.5885
3.131	-15.40833
3.1315	-9.46655
3.132	-16.91895
3.1325	-21.55151
3.133	-19.53735
3.1335	-17.72461
3.134	-23.96851
3.1345	-35.04639
3.135	-38.67188
3.1355	-41.08887
3.136	-38.26904
3.1365	-33.73718
3.137	-23.26355
3.1375	-15.40833
3.138	-9.76868
3.1385	1.91345
3.139	8.45947
3.1395	14.70337
3.14	14.60266
3.1405	12.99133
3.141	12.48779
3.1415	21.14868
3.142	24.67346
3.1425	30.2124
3.143	18.63098
3.1435	5.53894
3.144	-2.5177
3.1445	-10.37292
3.145	-7.35168
3.1455	-3.7262
3.146	-17.01965
3.1465	-22.76001
3.147	-36.4563
3.1475	-54.68445
3.148	-57.60498
3.1485	-50.354
3.149	-47.93701
3.1495	-41.29028
3.15	-51.96533
3.1505	-84.59473
3.151	-103.22571
3.1515	-110.6781
3.152	-101.41296
3.1525	-93.25562
3.153	-73.31543
3.1535	-39.37683
3.154	-7.04956
3.1545	20.34302
3.155	52.97241
3.1555	68.48145
3.156	80.56641
3.1565	100.40588
3.157	107.15332
3.1575	100.30518
3.158	82.58057
3.1585	46.62781
3.159	-12.18567
3.1595	-77.64587
3.16	-115.61279
3.1605	-145.22095
3.161	-207.96204
3.1615	-248.64807
3.162	-258.41675
3.1625	-255.2948
3.163	-239.48364
3.1635	-178.15247
3.164	-93.35632
3.1645	-15.00549
3.165	63.04321
3.1655	137.26501
3.166	215.41443
3.1665	268.99109
3.167	298.39783
3.1675	273.52295
3.168	248.34595
3.1685	228.10364
3.169	177.14539
3.1695	97.78748
3.17	40.88745
3.1705	-5.43823
3.171	-20.54443
3.1715	5.43823
3.172	29.60815
3.1725	43.10303
3.173	54.78516
3.1735	72.81189
3.174	94.16199
3.1745	101.71509
3.175	108.26111
3.1755	78.95508
3.176	63.44604
3.1765	73.51685
3.177	69.79065
3.1775	53.97949
3.178	10.77576
3.1785	-11.17859
3.179	-11.68213
3.1795	-3.7262
3.18	-0.10071
3.1805	8.35876
3.181	9.76868
3.1815	3.42407
3.182	-8.25806
3.1825	-23.96851
3.183	-29.70886
3.1835	-30.81665
3.184	-53.47595
3.1845	-58.20923
3.185	-56.19507
3.1855	-44.51294
3.186	-42.90161
3.1865	-59.21631
3.187	-56.39648
3.1875	-51.76392
3.188	-57.20215
3.1885	-46.92993
3.189	-25.98267
3.1895	-11.2793
3.19	10.57434
3.1905	15.1062
3.191	27.29187
3.1915	34.34143
3.192	41.69312
3.1925	35.54993
3.193	18.42957
3.1935	15.20691
3.194	26.08337
3.1945	25.88196
3.195	8.96301
3.1955	12.28638
3.196	8.25806
3.1965	-1.91345
3.197	-2.01416
3.1975	-9.16443
3.198	-23.26355
3.1985	-30.81665
3.199	-23.36426
3.1995	-11.88354
3.2	-2.21558
3.2005	-2.61841
3.201	6.2439
3.2015	11.07788
3.202	3.62549
3.2025	11.38
3.203	13.19275
3.2035	14.09912
3.204	15.00549
3.2045	14.70337
3.205	9.97009
3.2055	0.30212
3.206	0.40283
3.2065	11.88354
3.207	19.73877
3.2075	22.86072
3.208	27.79541
3.2085	26.48621
3.209	24.67346
3.2095	5.94177
3.21	-2.5177
3.2105	-8.45947
3.211	-29.70886
3.2115	-42.90161
3.212	-47.8363
3.2125	-49.95117
3.213	-32.83081
3.2135	-26.68762
3.214	-21.24939
3.2145	-23.66638
3.215	-17.92603
3.2155	-15.91187
3.216	-19.94019
3.2165	-19.53735
3.217	-10.17151
3.2175	5.74036
3.218	10.87646
3.2185	9.86938
3.219	10.77576
3.2195	9.86938
3.22	0.20142
3.2205	-20.1416
3.221	-50.05188
3.2215	-61.43188
3.222	-64.151
3.2225	-63.24463
3.223	-54.38232
3.2235	-43.80798
3.224	-27.6947
3.2245	-27.49329
3.225	-30.51453
3.2255	-27.49329
3.226	-15.50903
3.2265	-1.91345
3.227	21.85364
3.2275	48.33984
3.228	69.48853
3.2285	81.37207
3.229	89.73083
3.2295	97.38464
3.23	81.87561
3.2305	57.9071
3.231	49.54834
3.2315	51.46179
3.232	57.60498
3.2325	60.62622
3.233	47.03064
3.2335	24.27063
3.234	7.35168
3.2345	-11.88354
3.235	-7.85522
3.2355	2.5177
3.236	6.54602
3.2365	8.05664
3.237	3.8269
3.2375	11.78284
3.238	16.51611
3.2385	11.48071
3.239	-8.7616
3.2395	-21.14868
3.24	-26.48621
3.2405	-11.88354
3.241	-21.04797
3.2415	-38.67188
3.242	-45.92285
3.2425	-49.85046
3.243	-49.0448
3.2435	-39.27612
3.244	-31.62231
3.2445	-22.25647
3.245	-1.61133
3.2455	-0.50354
3.246	-7.15027
3.2465	-4.63257
3.247	-2.81982
3.2475	-42.90161
3.248	-60.82764
3.2485	-43.10303
3.249	-22.45789
3.2495	-5.0354
3.25	-88.52234
3.2505	-237.87231
3.251	-336.86829
3.2515	-385.71167
3.252	-357.31201
3.2525	-318.43872
3.253	-236.66382
3.2535	-180.77087
3.254	-109.67102
3.2545	-15.50903
3.255	105.44128
3.2555	208.96912
3.256	285.91003
3.2565	308.1665
3.257	275.23499
3.2575	225.68665
3.258	166.87317
3.2585	91.24146
3.259	32.52869
3.2595	-32.42798
3.26	-69.08569
3.2605	-30.2124
3.261	38.16833
3.2615	83.58765
3.262	106.14624
3.2625	129.5105
3.263	158.01086
3.2635	178.85742
3.264	174.32556
3.2645	165.86609
3.265	160.52856
3.2655	105.54199
3.266	16.11328
3.2665	-77.24304
3.267	-128.80554
3.2675	-148.4436
3.268	-146.83228
3.2685	-123.56873
3.269	-76.33667
3.2695	-51.26038
3.27	-7.65381
3.2705	25.78125
3.271	57.00073
3.2715	74.92676
3.272	95.5719
3.2725	107.35474
3.273	111.8866
3.2735	106.04553
3.274	89.02588
3.2745	90.23438
3.275	102.82288
3.2755	88.42163
3.276	51.05896
3.2765	12.48779
3.277	-14.09912
3.2775	-18.73169
3.278	-27.59399
3.2785	-21.24939
3.279	-17.01965
3.2795	-12.5885
3.28	-18.32886
3.2805	-14.19983
3.281	-12.68921
3.2815	-23.46497
3.282	-29.00391
3.2825	-29.70886
3.283	-37.86621
3.2835	-34.44214
3.284	-26.48621
3.2845	-26.3855
3.285	-20.04089
3.2855	-19.33594
3.286	-21.45081
3.2865	-17.52319
3.287	-10.47363
3.2875	-12.99133
3.288	-13.69629
3.2885	-10.47363
3.289	-6.14319
3.2895	-9.26514
3.29	-13.797
3.2905	-33.9386
3.291	-46.72852
3.2915	-58.61206
3.292	-59.51843
3.2925	-48.84338
3.293	-39.98108
3.2935	-25.68054
3.294	-15.00549
3.2945	-1.51062
3.295	2.61841
3.2955	12.78992
3.296	18.53027
3.2965	29.50745
3.297	33.23364
3.2975	23.36426
3.298	23.36426
3.2985	13.99841
3.299	-5.13611
3.2995	-17.12036
3.3	-50.65613
3.3005	-94.46411
3.301	-119.23828
3.3015	-118.33191
3.302	-109.97314
3.3025	-84.69543
3.303	-61.53259
3.3035	-51.76392
3.304	-40.58533
3.3045	-35.04639
3.305	-20.74585
3.3055	-5.23682
3.306	16.3147
3.3065	31.92444
3.307	47.63489
3.3075	84.09119
3.308	100.50659
3.3085	105.34058
3.309	81.37207
3.3095	35.95276
3.31	14.80408
3.3105	4.63257
3.311	-19.43665
3.3115	-23.8678
3.312	-28.9032
3.3125	-22.76001
3.313	-13.29346
3.3135	-0.40283
3.314	4.93469
3.3145	-1.40991
3.315	3.42407
3.3155	11.17859
3.316	26.08337
3.3165	32.83081
3.317	28.39966
3.3175	26.88904
3.318	31.4209
3.3185	40.08179
3.319	42.8009
3.3195	46.42639
3.32	40.08179
3.3205	42.49878
3.321	28.60107
3.3215	24.16992
3.322	30.81665
3.3225	31.72302
3.323	37.96692
3.3235	20.1416
3.324	13.99841
3.3245	-6.54602
3.325	-3.32336
3.3255	-1.2085
3.326	-0.20142
3.3265	-3.02124
3.327	-0.60425
3.3275	-0.60425
3.328	4.73328
3.3285	21.04797
3.329	36.55701
3.3295	41.39099
3.33	24.97559
3.3305	-25.47913
3.331	-83.38623
3.3315	-106.34766
3.332	-95.5719
3.3325	-81.7749
3.333	-71.20056
3.3335	-51.36108
3.334	-18.8324
3.3345	17.01965
3.335	45.72144
3.3355	31.21948
3.336	-6.84814
3.3365	-31.21948
3.337	-31.72302
3.3375	-11.58142
3.338	1.91345
3.3385	-3.92761
3.339	-18.73169
3.3395	-28.39966
3.34	-33.43506
3.3405	-16.51611
3.341	6.94885
3.3415	20.34302
3.342	37.86621
3.3425	51.36108
3.343	75.53101
3.3435	78.14941
3.344	64.95667
3.3445	31.21948
3.345	-8.45947
3.3455	-26.28479
3.346	-27.49329
3.3465	-10.37292
3.347	14.19983
3.3475	28.19824
3.348	36.25488
3.3485	39.67896
3.349	41.69312
3.3495	50.2533
3.35	49.14551
3.3505	57.10144
3.351	68.17932
3.3515	77.04163
3.352	55.18799
3.3525	-65.76233
3.353	-175.93689
3.3535	-243.31055
3.354	-308.87146
3.3545	-312.29553
3.355	-288.42773
3.3555	-354.5929
3.356	-409.78088
3.3565	-440.89966
3.357	-398.60229
3.3575	-320.35217
3.358	-212.69531
3.3585	-87.01172
3.359	64.65454
3.3595	222.16187
3.36	335.45837
3.3605	399.9115
3.361	454.39453
3.3615	478.36304
3.362	472.32056
3.3625	479.1687
3.363	439.89258
3.3635	374.93591
3.364	273.01941
3.3645	158.11157
3.365	69.08569
3.3655	4.33044
3.366	-48.74268
3.3665	-155.69458
3.367	-210.0769
3.3675	-242.30347
3.368	-208.46558
3.3685	-147.43652
3.369	-114.00146
3.3695	-82.88269
3.37	-49.34692
3.3705	11.07788
3.371	59.71985
3.3715	84.2926
3.372	126.28784
3.3725	157.60803
3.373	171.70715
3.3735	178.95813
3.374	183.69141
3.3745	152.87476
3.375	113.59863
3.3755	95.87402
3.376	53.07312
3.3765	5.53894
3.377	-21.95435
3.3775	-38.57117
3.378	-46.32568
3.3785	-50.95825
3.379	-55.99365
3.3795	-58.10852
3.38	-59.82056
3.3805	-43.10303
3.381	-17.01965
3.3815	18.22815
3.382	44.41223
3.3825	58.91418
3.383	51.96533
3.3835	34.94568
3.384	20.44373
3.3845	26.68762
3.385	18.22815
3.3855	10.57434
3.386	5.33752
3.3865	-5.63965
3.387	-20.34302
3.3875	-26.58691
3.388	-18.53027
3.3885	0
3.389	9.26514
3.3895	19.33594
3.39	15.40833
3.3905	8.8623
3.391	3.7262
3.3915	-7.45239
3.392	-9.06372
3.3925	-8.66089
3.393	-4.33044
3.3935	-4.43115
3.394	-6.64673
3.3945	-11.48071
3.395	-3.32336
3.3955	-4.33044
3.396	4.73328
3.3965	4.33044
3.397	3.32336
3.3975	6.84814
3.398	4.93469
3.3985	-2.31628
3.399	-6.74744
3.3995	0.30212
3.4	-5.13611
3.4005	-6.84814
3.401	-8.7616
3.4015	-14.70337
3.402	-11.58142
3.4025	-15.00549
3.403	-16.3147
3.4035	-10.47363
3.404	-10.57434
3.4045	-21.95435
3.405	-27.89612
3.4055	-19.53735
3.406	-8.7616
3.4065	-7.35168
3.407	-26.98975
3.4075	-43.70728
3.408	-36.55701
3.4085	-36.85913
3.409	-23.26355
3.4095	-16.91895
3.41	-9.66797
3.4105	2.61841
3.411	12.68921
3.4115	13.59558
3.412	18.22815
3.4125	-12.99133
3.413	-48.94409
3.4135	-103.62854
3.414	-142.90466
3.4145	-150.65918
3.415	-141.19263
3.4155	-105.84412
3.416	-74.32251
3.4165	-33.73718
3.417	9.56726
3.4175	62.23755
3.418	90.63721
3.4185	-14.40125
3.419	-115.00854
3.4195	-145.22095
3.42	-137.26501
3.4205	-113.90076
3.421	-67.27295
3.4215	-23.06213
3.422	35.2478
3.4225	132.53174
3.423	230.72205
3.4235	256.10046
3.424	188.12256
3.4245	102.52075
3.425	-10.17151
3.4255	-103.72925
3.426	-143.20679
3.4265	-169.89441
3.427	-169.39087
3.4275	-172.3114
3.428	-126.38855
3.4285	-28.39966
3.429	58.91418
3.4295	156.80237
3.43	238.9801
3.4305	283.39233
3.431	275.73853
3.4315	234.34753
3.432	184.19495
3.4325	149.04785
3.433	86.40747
3.4335	28.29895
3.434	-17.42249
3.4345	-29.00391
3.435	-11.78284
3.4355	-6.14319
3.436	-4.12903
3.4365	10.47363
3.437	55.18799
3.4375	90.5365
3.438	115.7135
3.4385	129.40979
3.439	125.88501
3.4395	99.3988
3.44	48.94409
3.4405	18.12744
3.441	-5.63965
3.4415	-3.12195
3.442	6.74744
3.4425	7.85522
3.443	12.68921
3.4435	14.70337
3.444	-4.43115
3.4445	-6.14319
3.445	-4.22974
3.4455	4.22974
3.446	9.26514
3.4465	20.84656
3.447	30.01099
3.4475	40.38391
3.448	37.26196
3.4485	29.91028
3.449	24.67346
3.4495	4.53186
3.45	-15.20691
3.4505	-29.91028
3.451	-22.86072
3.4515	-17.32178
3.452	-4.12903
3.4525	-3.02124
3.453	-9.06372
3.4535	-14.70337
3.454	-9.66797
3.4545	-8.56018
3.455	-10.67505
3.4555	-8.25806
3.456	7.75452
3.4565	18.22815
3.457	23.76709
3.4575	30.91736
3.458	18.22815
3.4585	-4.93469
3.459	2.81982
3.4595	21.04797
3.46	50.354
3.4605	61.43188
3.461	57.9071
3.4615	12.28638
3.462	-20.34302
3.4625	-40.1825
3.463	-31.82373
3.4635	-24.37134
3.464	-29.70886
3.4645	-28.9032
3.465	-23.8678
3.4655	-24.57275
3.466	-33.63647
3.4665	-46.22498
3.467	-68.88428
3.4675	-79.2572
3.468	-97.98889
3.4685	-88.11951
3.469	-82.37915
3.4695	-98.39172
3.47	-88.0188
3.4705	-64.95667
3.471	-11.58142
3.4715	42.19666
3.472	96.57898
3.4725	130.31616
3.473	136.05652
3.4735	77.24304
3.474	-2.11487
3.4745	-65.86304
3.475	-69.68994
3.4755	-53.37524
3.476	-40.08179
3.4765	-29.80957
3.477	-2.81982
3.4775	27.89612
3.478	61.73401
3.4785	94.46411
3.479	125.07935
3.4795	138.77563
3.48	138.77563
3.4805	146.32874
3.481	144.01245
3.4815	114.80713
3.482	70.59631
3.4825	33.33435
3.483	6.84814
3.4835	-8.56018
3.484	-24.16992
3.4845	-27.29187
3.485	-31.62231
3.4855	-34.03931
3.486	-26.58691
3.4865	-22.25647
3.487	-14.19983
3.4875	-13.39417
3.488	-11.38
3.4885	-9.36584
3.489	-9.16443
3.4895	-3.22266
3.49	1.51062
3.4905	3.8269
3.491	10.47363
3.4915	-1.2085
3.492	-24.47205
3.4925	-33.13293
3.493	-27.59399
3.4935	-16.01257
3.494	-2.71912
3.4945	1.81274
3.495	2.21558
3.4955	14.60266
3.496	26.28479
3.4965	34.34143
3.497	38.57117
3.4975	43.60657
3.498	43.00232
3.4985	37.66479
3.499	29.91028
3.4995	10.67505
3.5	10.17151
3.5005	7.25098
3.501	-19.73877
3.5015	-60.62622
3.502	-81.7749
3.5025	-107.55615
3.503	-123.77014
3.5035	-139.07776
3.504	-169.29016
3.5045	-163.95264
3.505	-150.35706
3.5055	-113.69934
3.506	-71.30127
3.5065	-33.9386
3.507	-4.93469
3.5075	26.28479
3.508	57.00073
3.5085	73.51685
3.509	100.20447
3.5095	118.33191
3.51	114.4043
3.5105	108.46252
3.511	108.66394
3.5115	96.98181
3.512	80.66711
3.5125	62.33826
3.513	49.74976
3.5135	45.72144
3.514	29.91028
3.5145	17.01965
3.515	7.75452
3.5155	-3.32336
3.516	-12.89062
3.5165	-5.0354
3.517	-2.01416
3.5175	10.0708
3.518	19.63806
3.5185	25.177
3.519	35.04639
3.5195	43.40515
3.52	41.69312
3.5205	18.12744
3.521	11.68213
3.5215	12.5885
3.522	-33.83789
3.5225	-62.33826
3.523	-159.52148
3.5235	-302.72827
3.524	-582.49512
3.5245	-754.30298
3.525	-781.09131
3.5255	-663.46436
3.526	-459.32922
3.5265	-224.47815
3.527	13.89771
3.5275	266.97693
3.528	475.94604
3.5285	625.39673
3.529	675.04578
3.5295	674.74365
3.53	645.33691
3.5305	561.74927
3.531	461.94763
3.5315	332.13501
3.532	155.9967
3.5325	0.50354
3.533	-103.52783
3.5335	-175.33264
3.534	-182.28149
3.5345	-145.9259
3.535	-106.34766
3.5355	-68.78357
3.536	-18.93311
3.5365	19.94019
3.537	55.69153
3.5375	76.7395
3.538	120.24536
3.5385	170.09583
3.539	184.19495
3.5395	145.32166
3.54	104.93774
3.5405	76.33667
3.541	50.95825
3.5415	26.98975
3.542	6.84814
3.5425	0.90637
3.543	7.04956
3.5435	3.12195
3.544	2.92053
3.5445	1.00708
3.545	-9.86938
3.5455	-25.88196
3.546	-24.47205
3.5465	-25.88196
3.547	-23.8678
3.5475	-24.37134
3.548	-27.59399
3.5485	-32.52869
3.549	-37.36267
3.5495	-26.78833
3.55	-16.71753
3.5505	-7.04956
3.551	7.25098
3.5515	5.94177
3.552	1.91345
3.5525	14.90479
3.553	31.11877
3.5535	28.60107
3.554	29.00391
3.5545	29.30603
3.555	17.32178
3.5555	-25.98267
3.556	-78.55225
3.5565	-105.54199
3.557	-106.34766
3.5575	-89.328
3.558	-68.28003
3.5585	-45.01648
3.559	-14.50195
3.5595	23.16284
3.56	46.72852
3.5605	58.91418
3.561	64.75525
3.5615	69.28711
3.562	67.37366
3.5625	63.04321
3.563	53.87878
3.5635	30.01099
3.564	-5.23682
3.5645	-18.63098
3.565	-16.61682
3.5655	-25.57983
3.566	-59.71985
3.5665	-80.96924
3.567	-78.65295
3.5675	-47.03064
3.568	-19.83948
3.5685	4.02832
3.569	29.10461
3.5695	48.23914
3.57	57.8064
3.5705	71.20056
3.571	74.02039
3.5715	66.26587
3.572	56.69861
3.5725	50.65613
3.573	60.52551
3.5735	73.51685
3.574	48.74268
3.5745	28.50037
3.575	20.44373
3.5755	15.00549
3.576	13.19275
3.5765	3.32336
3.577	-7.35168
3.5775	-9.56726
3.578	-10.67505
3.5785	-6.2439
3.579	0.10071
3.5795	4.63257
3.58	7.04956
3.5805	2.5177
3.581	-8.25806
3.5815	-24.57275
3.582	-21.95435
3.5825	-28.09753
3.583	-25.88196
3.5835	-28.70178
3.584	-24.16992
3.5845	-28.9032
3.585	-25.98267
3.5855	-18.12744
3.586	0
3.5865	5.23682
3.587	3.62549
3.5875	0.60425
3.588	0
3.5885	16.81824
3.589	34.44214
3.5895	57.60498
3.59	72.20764
3.5905	63.14392
3.591	43.40515
3.5915	23.76709
3.592	4.22974
3.5925	-56.90002
3.593	-111.28235
3.5935	-158.01086
3.594	-223.47107
3.5945	-423.98071
3.595	-593.47229
3.5955	-601.93176
3.596	-491.25366
3.5965	-332.63855
3.597	-151.96838
3.5975	34.14001
3.598	220.44983
3.5985	382.38831
3.599	527.60925
3.5995	641.91284
3.6	679.98047
3.6005	624.9939
3.601	517.43774
3.6015	415.21912
3.602	324.88403
3.6025	206.75354
3.603	80.06287
3.6035	-35.65063
3.604	-47.7356
3.6045	-30.71594
3.605	-23.56567
3.6055	-23.16284
3.606	-23.16284
3.6065	-11.68213
3.607	-9.26514
3.6075	-18.42957
3.608	-22.6593
3.6085	-32.93152
3.609	-38.77258
3.6095	-38.26904
3.61	-31.21948
3.6105	-39.17542
3.611	-52.46887
3.6115	-59.31702
3.612	-79.2572
3.6125	-123.77014
3.613	-128.80554
3.6135	-115.20996
3.614	-136.76147
3.6145	-156.19812
3.615	-237.77161
3.6155	-282.38525
3.616	-250.46082
3.6165	-171.60645
3.617	-81.27136
3.6175	-52.06604
3.618	-38.87329
3.6185	-0.40283
3.619	70.19348
3.6195	109.67102
3.62	78.95508
3.6205	42.39807
3.621	46.82922
3.6215	73.61755
3.622	97.58606
3.6225	108.46252
3.623	100.10376
3.6235	104.4342
3.624	105.6427
3.6245	126.58997
3.625	138.27209
3.6255	124.57581
3.626	101.21155
3.6265	92.34924
3.627	79.55933
3.6275	70.49561
3.628	52.8717
3.6285	-28.60107
3.629	-79.66003
3.6295	-77.84729
3.63	-60.52551
3.6305	-31.11877
3.631	-2.31628
3.6315	16.81824
3.632	47.8363
3.6325	79.05579
3.633	102.52075
3.6335	107.25403
3.634	91.34216
3.6345	48.74268
3.635	9.76868
3.6355	11.58142
3.636	27.79541
3.6365	31.52161
3.637	37.66479
3.6375	20.44373
3.638	20.44373
3.6385	10.37292
3.639	32.02515
3.6395	80.16357
3.64	107.15332
3.6405	114.60571
3.641	98.19031
3.6415	74.12109
3.642	32.02515
3.6425	-28.09753
3.643	-59.71985
3.6435	-76.23596
3.644	-85.5011
3.6445	-85.60181
3.645	-72.00623
3.6455	-70.59631
3.646	-81.47278
3.6465	-101.51367
3.647	-113.29651
3.6475	-112.39014
3.648	-86.20605
3.6485	-49.64905
3.649	-39.77966
3.6495	-35.65063
3.65	-24.16992
3.6505	-2.61841
3.651	-2.01416
3.6515	-1.40991
3.652	13.49487
3.6525	21.55151
3.653	20.24231
3.6535	15.30762
3.654	18.63098
3.6545	21.04797
3.655	20.74585
3.6555	20.24231
3.656	29.30603
3.6565	31.21948
3.657	31.01807
3.6575	19.83948
3.658	13.19275
3.6585	12.08496
3.659	11.98425
3.6595	17.72461
3.66	17.42249
3.6605	14.30054
3.661	7.45239
3.6615	-7.25098
3.662	-13.99841
3.6625	-32.02515
3.663	-54.0802
3.6635	-81.97632
3.664	-90.43579
3.6645	-67.67578
3.665	-43.90869
3.6655	-13.09204
3.666	-2.92053
3.6665	2.41699
3.667	7.85522
3.6675	28.9032
3.668	45.82214
3.6685	51.05896
3.669	65.56091
3.6695	72.50977
3.67	71.7041
3.6705	61.33118
3.671	50.05188
3.6715	37.06055
3.672	26.28479
3.6725	21.3501
3.673	7.04956
3.6735	-44.31152
3.674	-92.04712
3.6745	-105.94482
3.675	-99.49951
3.6755	-74.12109
3.676	-41.4917
3.6765	-11.58142
3.677	5.63965
3.6775	20.44373
3.678	35.14709
3.6785	19.63806
3.679	6.74744
3.6795	9.86938
3.68	13.797
3.6805	27.39258
3.681	21.04797
3.6815	7.45239
3.682	-3.22266
3.6825	-8.8623
3.683	13.59558
3.6835	36.55701
3.684	46.92993
3.6845	45.2179
3.685	53.37524
3.6855	57.50427
3.686	51.96533
3.6865	-36.65771
3.687	-109.87244
3.6875	-139.37988
3.688	-142.70325
3.6885	-123.77014
3.689	-101.9165
3.6895	-64.35242
3.69	-7.15027
3.6905	45.52002
3.691	82.17773
3.6915	96.27686
3.692	95.26978
3.6925	111.28235
3.693	105.84412
3.6935	78.65295
3.694	83.58765
3.6945	72.20764
3.695	39.98108
3.6955	33.03223
3.696	-2.21558
3.6965	-47.43347
3.697	-81.47278
3.6975	-96.8811
3.698	-108.46252
3.6985	-97.68677
3.699	-49.95117
3.6995	-14.90479
3.7	24.67346
3.7005	91.745
3.701	166.36963
3.7015	208.16345
3.702	191.84875
3.7025	165.76538
3.703	165.76538
3.7035	154.38538
3.704	109.97314
3.7045	38.06763
3.705	-102.52075
3.7055	-174.72839
3.706	-161.13281
3.7065	-153.68042
3.707	-210.27832
3.7075	-248.54736
3.708	-245.52612
3.7085	-194.26575
3.709	-212.4939
3.7095	-179.36096
3.71	-99.49951
3.7105	9.56726
3.711	66.46729
3.7115	146.32874
3.712	224.88098
3.7125	174.8291
3.713	18.42957
3.7135	-106.75049
3.714	-150.65918
3.7145	-110.17456
3.715	-31.4209
3.7155	51.15967
3.716	88.11951
3.7165	115.81421
3.717	167.88025
3.7175	236.05957
3.718	272.21375
3.7185	270.90454
3.719	248.24524
3.7195	213.09814
3.72	184.29565
3.7205	143.60962
3.721	70.29419
3.7215	-16.91895
3.722	-61.6333
3.7225	-58.61206
3.723	-27.09045
3.7235	-20.54443
3.724	-26.48621
3.7245	-52.46887
3.725	-63.24463
3.7255	-57.00073
3.726	-39.17542
3.7265	-34.03931
3.727	-21.3501
3.7275	-25.27771
3.728	-31.21948
3.7285	-26.78833
3.729	-15.40833
3.7295	-1.51062
3.73	-1.51062
3.7305	-27.19116
3.731	-33.33435
3.7315	-37.56409
3.732	-33.03223
3.7325	-23.66638
3.733	-6.74744
3.7335	0.10071
3.734	28.70178
3.7345	55.49011
3.735	50.95825
3.7355	53.17383
3.736	58.51135
3.7365	52.67029
3.737	32.62939
3.7375	17.22107
3.738	5.94177
3.7385	-14.19983
3.739	-28.09753
3.7395	-38.36975
3.74	-84.39331
3.7405	-103.42712
3.741	-105.74341
3.7415	-88.32092
3.742	-73.61755
3.7425	-191.24451
3.743	-265.3656
3.7435	-228.00293
3.744	-186.71265
3.7445	-140.38696
3.745	-114.30359
3.7455	-90.73792
3.746	-27.89612
3.7465	35.2478
3.747	89.52942
3.7475	144.01245
3.748	148.64502
3.7485	123.87085
3.749	132.12891
3.7495	152.87476
3.75	161.93848
3.7505	158.81653
3.751	114.505
3.7515	76.84021
3.752	44.61365
3.7525	43.90869
3.753	57.30286
3.7535	58.20923
3.754	37.46338
3.7545	19.13452
3.755	9.26514
3.7555	4.02832
3.756	5.63965
3.7565	7.95593
3.757	14.80408
3.7575	16.91895
3.758	20.1416
3.7585	17.72461
3.759	19.73877
3.7595	26.48621
3.76	13.49487
3.7605	-39.17542
3.761	-206.85425
3.7615	-357.91626
3.762	-432.94373
3.7625	-494.37561
3.763	-452.07825
3.7635	-314.71252
3.764	-142.50183
3.7645	24.27063
3.765	187.4176
3.7655	295.88013
3.766	346.03271
3.7665	359.6283
3.767	327.50244
3.7675	250.46082
3.768	193.76221
3.7685	152.27051
3.769	63.34534
3.7695	-32.42798
3.77	-120.84961
3.7705	-135.15015
3.771	-119.64111
3.7715	-142.19971
3.772	-225.28381
3.7725	-239.68506
3.773	-209.57336
3.7735	-141.49475
3.774	-26.98975
3.7745	84.89685
3.775	179.36096
3.7755	249.75586
3.776	299.70703
3.7765	302.02332
3.777	268.48755
3.7775	216.01868
3.778	171.50574
3.7785	141.69617
3.779	112.18872
3.7795	100.40588
3.78	73.61755
3.7805	46.92993
3.781	37.56409
3.7815	-32.22656
3.782	-89.328
3.7825	-101.01013
3.783	-81.57349
3.7835	-50.75684
3.784	-8.96301
3.7845	18.8324
3.785	52.36816
3.7855	91.54358
3.786	114.20288
3.7865	121.75598
3.787	130.92041
3.7875	144.71741
3.788	133.3374
3.7885	115.7135
3.789	97.68677
3.7895	40.58533
3.79	-11.58142
3.7905	-77.64587
3.791	-166.77246
3.7915	-231.22559
3.792	-267.37976
3.7925	-255.39551
3.793	-235.1532
3.7935	-193.86292
3.794	-142.19971
3.7945	-86.70959
3.795	-13.29346
3.7955	40.88745
3.796	71.80481
3.7965	84.2926
3.797	100.00305
3.7975	90.03296
3.798	50.2533
3.7985	30.41382
3.799	9.66797
3.7995	-11.68213
3.8	-15.50903
3.8005	3.12195
3.801	25.177
3.8015	39.57825
3.802	55.59082
3.8025	78.75366
3.803	107.05261
3.8035	119.84253
3.804	134.04236
3.8045	128.302
3.805	119.84253
3.8055	111.8866
3.806	49.95117
3.8065	-63.34534
3.807	-203.32947
3.8075	-286.11145
3.808	-273.52295
3.8085	-207.86133
3.809	-144.41528
3.8095	-102.31934
3.81	-49.54834
3.8105	5.0354
3.811	75.22888
3.8115	138.17139
3.812	174.62769
3.8125	196.48132
3.813	201.41602
3.8135	173.82202
3.814	68.48145
3.8145	-153.17688
3.815	-282.9895
3.8155	-307.56226
3.816	-411.89575
3.8165	-542.41333
3.817	-555.60608
3.8175	-470.50781
3.818	-316.42456
3.8185	-121.15173
3.819	61.23047
3.8195	230.52063
3.82	374.53308
3.8205	498.70605
3.821	593.77441
3.8215	577.76184
3.822	528.91846
3.8225	462.24976
3.823	380.57556
3.8235	318.84155
3.824	292.95959
3.8245	195.37354
3.825	93.45703
3.8255	26.68762
3.826	-94.46411
3.8265	-224.98169
3.827	-269.29321
3.8275	-228.80859
3.828	-148.74573
3.8285	-169.69299
3.829	-294.16809
3.8295	-316.42456
3.83	-260.43091
3.8305	-154.48608
3.831	-49.95117
3.8315	57.40356
3.832	148.94714
3.8325	238.67798
3.833	303.63464
3.8335	323.87695
3.834	262.8479
3.8345	144.71741
3.835	66.76941
3.8355	66.06445
3.836	108.96606
3.8365	124.77722
3.837	63.74817
3.8375	-34.24072
3.838	-137.26501
3.8385	-170.80078
3.839	-120.95032
3.8395	-50.85754
3.84	23.46497
3.8405	43.40515
3.841	10.67505
3.8415	-2.21558
3.842	38.77258
3.8425	62.03613
3.843	82.58057
3.8435	92.55066
3.844	86.70959
3.8445	62.8418
3.845	64.95667
3.8455	73.61755
3.846	64.25171
3.8465	26.68762
3.847	-71.7041
3.8475	-194.16504
3.848	-221.75903
3.8485	-227.70081
3.849	-211.48682
3.8495	-159.92432
3.85	-96.37756
3.8505	-42.09595
3.851	22.35718
3.8515	67.27295
3.852	87.31384
3.8525	96.7804
3.853	92.24854
3.8535	76.33667
3.854	62.13684
3.8545	77.24304
3.855	91.8457
3.8555	57.50427
3.856	18.12744
3.8565	27.29187
3.857	35.34851
3.8575	-1.40991
3.858	-31.62231
3.8585	-24.77417
3.859	-3.42407
3.8595	7.85522
3.86	4.02832
3.8605	-17.52319
3.861	-79.66003
3.8615	-133.94165
3.862	-142.70325
3.8625	-120.14465
3.863	-93.25562
3.8635	-53.37524
3.864	-25.98267
3.8645	12.89062
3.865	43.30444
3.8655	74.62463
3.866	94.96765
3.8665	116.31775
3.867	126.9928
3.8675	100.70801
3.868	88.72375
3.8685	108.36182
3.869	62.33826
3.8695	-93.65845
3.87	-209.9762
3.8705	-261.5387
3.871	-246.83533
3.8715	-278.25623
3.872	-300.10986
3.8725	-288.62915
3.873	-409.17664
3.8735	-586.22131
3.874	-735.16846
3.8745	-756.31714
3.875	-607.67212
3.8755	-390.44495
3.876	-152.1698
3.8765	113.69934
3.877	342.40723
3.8775	518.34412
3.878	616.73584
3.8785	635.46753
3.879	521.36536
3.8795	392.45911
3.88	284.50012
3.8805	271.50879
3.881	286.51428
3.8815	249.65515
3.882	70.99915
3.8825	-95.87402
3.883	-149.24927
3.8835	-121.85669
3.884	-74.32251
3.8845	18.42957
3.885	114.90784
3.8855	239.98718
3.886	353.18298
3.8865	278.35693
3.887	96.8811
3.8875	-18.12744
3.888	-45.52002
3.8885	-48.44055
3.889	-102.62146
3.8895	-220.95337
3.89	-243.31055
3.8905	-189.33105
3.891	-92.55066
3.8915	54.68445
3.892	192.65442
3.8925	256.5033
3.893	269.1925
3.8935	261.33728
3.894	121.9574
3.8945	-25.07629
3.895	-149.24927
3.8955	-310.5835
3.896	-347.24121
3.8965	-268.08472
3.897	-120.64819
3.8975	34.03931
3.898	144.31458
3.8985	218.8385
3.899	272.9187
3.8995	317.83447
3.9	377.35291
3.9005	422.87292
3.901	421.86584
3.9015	361.64246
3.902	289.83765
3.9025	177.3468
3.903	106.14624
3.9035	36.75842
3.904	-61.23047
3.9045	-140.18555
3.905	-198.59619
3.9055	-229.01001
3.906	-216.72363
3.9065	-130.51758
3.907	-60.62622
3.9075	-17.82532
