Alessio_Russo_Right_2.c3d  



Time(s):	A_R_bicipite(μV):
0	-29.70886
0.0005	-18.73169
0.001	-3.22266
0.0015	7.35168
0.002	10.27222
0.0025	9.46655
0.003	9.66797
0.0035	7.35168
0.004	5.63965
0.0045	-4.93469
0.005	-9.66797
0.0055	-5.13611
0.006	-5.33752
0.0065	-7.65381
0.007	-16.3147
0.0075	-20.84656
0.008	-25.98267
0.0085	-20.64514
0.009	-21.3501
0.0095	-33.9386
0.01	-34.44214
0.0105	-26.48621
0.011	-20.44373
0.0115	-20.84656
0.012	-17.52319
0.0125	-13.39417
0.013	-8.35876
0.0135	-14.80408
0.014	-13.99841
0.0145	-12.28638
0.015	-8.66089
0.0155	-3.62549
0.016	-1.3092
0.0165	11.78284
0.017	9.76868
0.0175	10.37292
0.018	21.14868
0.0185	35.54993
0.019	55.59082
0.0195	74.32251
0.02	92.85278
0.0205	86.70959
0.021	86.70959
0.0215	78.75366
0.022	59.41772
0.0225	43.80798
0.023	17.52319
0.0235	7.45239
0.024	-8.96301
0.0245	-23.76709
0.025	-30.11169
0.0255	-39.88037
0.026	-38.57117
0.0265	-31.32019
0.027	-37.56409
0.0275	-31.32019
0.028	-25.68054
0.0285	-16.41541
0.029	-13.797
0.0295	-14.80408
0.03	-11.88354
0.0305	-5.13611
0.031	-5.74036
0.0315	-4.73328
0.032	-6.14319
0.0325	-5.13611
0.033	-2.11487
0.0335	12.38708
0.034	24.97559
0.0345	36.05347
0.035	40.08179
0.0355	42.29736
0.036	55.08728
0.0365	64.151
0.037	64.05029
0.0375	57.60498
0.038	49.85046
0.0385	30.61523
0.039	25.37842
0.0395	18.53027
0.04	13.09204
0.0405	-3.22266
0.041	-13.49487
0.0415	-27.99683
0.042	-36.05347
0.0425	-39.47754
0.043	-45.82214
0.0435	-51.66321
0.044	-50.75684
0.0445	-48.33984
0.045	-55.49011
0.0455	-44.91577
0.046	-36.85913
0.0465	-33.43506
0.047	-15.1062
0.0475	1.2085
0.048	12.89062
0.0485	16.01257
0.049	15.71045
0.0495	12.89062
0.05	20.34302
0.0505	17.12036
0.051	13.39417
0.0515	10.97717
0.052	5.43823
0.0525	11.88354
0.053	6.74744
0.0535	5.33752
0.054	13.29346
0.0545	19.13452
0.055	37.86621
0.0555	45.52002
0.056	54.38232
0.0565	44.51294
0.057	38.57117
0.0575	26.58691
0.058	19.33594
0.0585	28.50037
0.059	32.12585
0.0595	26.28479
0.06	16.91895
0.0605	4.02832
0.061	-2.81982
0.0615	-7.25098
0.062	-14.70337
0.0625	-24.47205
0.063	-28.29895
0.0635	-18.8324
0.064	-6.3446
0.0645	8.35876
0.065	19.33594
0.0655	16.61682
0.066	14.70337
0.0665	15.91187
0.067	6.44531
0.0675	-1.40991
0.068	-1.81274
0.0685	-6.54602
0.069	-8.96301
0.0695	-7.25098
0.07	-6.2439
0.0705	-10.17151
0.071	-7.25098
0.0715	-4.33044
0.072	0.70496
0.0725	5.13611
0.073	5.0354
0.0735	5.74036
0.074	9.26514
0.0745	4.33044
0.075	5.43823
0.0755	-5.84106
0.076	-0.60425
0.0765	-4.33044
0.077	-8.35876
0.0775	-0.60425
0.078	-0.60425
0.0785	1.51062
0.079	0.10071
0.0795	2.11487
0.08	-1.51062
0.0805	4.93469
0.081	6.94885
0.0815	12.68921
0.082	13.797
0.0825	17.32178
0.083	33.33435
0.0835	35.14709
0.084	36.65771
0.0845	31.72302
0.085	35.95276
0.0855	41.59241
0.086	32.7301
0.0865	26.98975
0.087	11.68213
0.0875	0.40283
0.088	-13.89771
0.0885	-19.94019
0.089	-24.67346
0.0895	-29.50745
0.09	-17.72461
0.0905	-4.53186
0.091	7.04956
0.0915	10.87646
0.092	10.97717
0.0925	21.3501
0.093	18.73169
0.0935	16.41541
0.094	20.84656
0.0945	14.30054
0.095	7.85522
0.0955	-7.04956
0.096	-11.88354
0.0965	-9.46655
0.097	-1.00708
0.0975	-5.13611
0.098	-12.78992
0.0985	-21.04797
0.099	-15.60974
0.0995	-14.90479
0.1	-7.95593
0.1005	-11.48071
0.101	-6.3446
0.1015	4.83398
0.102	10.87646
0.1025	24.57275
0.103	42.7002
0.1035	50.15259
0.104	55.2887
0.1045	68.48145
0.105	65.76233
0.1055	58.81348
0.106	47.13135
0.1065	30.11169
0.107	22.96143
0.1075	15.1062
0.108	7.65381
0.1085	-0.70496
0.109	-5.33752
0.1095	-6.54602
0.11	0.80566
0.1105	-0.30212
0.111	2.01416
0.1115	-5.53894
0.112	-1.10779
0.1125	19.13452
0.113	25.37842
0.1135	22.25647
0.114	14.70337
0.1145	-1.71204
0.115	-11.48071
0.1155	-17.01965
0.116	-26.3855
0.1165	-42.90161
0.117	-48.23914
0.1175	-46.92993
0.118	-32.52869
0.1185	-23.56567
0.119	-10.97717
0.1195	1.81274
0.12	5.63965
0.1205	10.67505
0.121	10.37292
0.1215	13.89771
0.122	6.74744
0.1225	6.2439
0.123	9.16443
0.1235	5.84106
0.124	3.92761
0.1245	4.22974
0.125	7.95593
0.1255	15.00549
0.126	23.36426
0.1265	29.80957
0.127	30.31311
0.1275	22.35718
0.128	19.43665
0.1285	16.11328
0.129	15.50903
0.1295	11.48071
0.13	7.65381
0.1305	5.74036
0.131	4.12903
0.1315	-1.40991
0.132	-6.44531
0.1325	-2.81982
0.133	-0.60425
0.1335	-3.02124
0.134	-10.67505
0.1345	-16.21399
0.135	-23.56567
0.1355	-23.76709
0.136	-23.56567
0.1365	-18.53027
0.137	-16.3147
0.1375	-17.52319
0.138	-14.80408
0.1385	-15.30762
0.139	-16.21399
0.1395	-10.27222
0.14	-12.89062
0.1405	-5.13611
0.141	-5.63965
0.1415	-2.01416
0.142	5.43823
0.1425	11.2793
0.143	17.12036
0.1435	24.37134
0.144	33.33435
0.1445	54.88586
0.145	68.17932
0.1455	76.23596
0.146	75.32959
0.1465	67.97791
0.147	58.51135
0.1475	45.62073
0.148	34.84497
0.1485	18.32886
0.149	8.15735
0.1495	1.51062
0.15	-8.96301
0.1505	-9.46655
0.151	-14.70337
0.1515	-18.73169
0.152	-17.52319
0.1525	-12.18567
0.153	-9.86938
0.1535	-7.95593
0.154	1.81274
0.1545	21.65222
0.155	25.47913
0.1555	26.58691
0.156	18.42957
0.1565	12.89062
0.157	20.24231
0.1575	17.52319
0.158	8.05664
0.1585	9.46655
0.159	-0.50354
0.1595	3.22266
0.16	8.45947
0.1605	20.54443
0.161	38.06763
0.1615	44.41223
0.162	39.67896
0.1625	37.66479
0.163	23.96851
0.1635	15.1062
0.164	16.51611
0.1645	8.15735
0.165	4.53186
0.1655	-0.40283
0.166	-6.2439
0.1665	-10.67505
0.167	-15.81116
0.1675	-10.27222
0.168	-14.60266
0.1685	-14.80408
0.169	-15.81116
0.1695	-18.93311
0.17	-23.06213
0.1705	-26.98975
0.171	-31.4209
0.1715	-24.87488
0.172	-19.94019
0.1725	-19.13452
0.173	-23.06213
0.1735	-19.83948
0.174	-18.22815
0.1745	-12.89062
0.175	-9.46655
0.1755	-5.94177
0.176	-7.35168
0.1765	-11.38
0.177	-10.0708
0.1775	-7.45239
0.178	-5.33752
0.1785	-8.45947
0.179	-3.92761
0.1795	-4.63257
0.18	9.16443
0.1805	19.03381
0.181	31.21948
0.1815	41.29028
0.182	41.59241
0.1825	41.4917
0.183	34.74426
0.1835	31.32019
0.184	22.25647
0.1845	15.81116
0.185	10.27222
0.1855	2.5177
0.186	3.12195
0.1865	1.3092
0.187	0
0.1875	-1.81274
0.188	-0.60425
0.1885	0.90637
0.189	8.7616
0.1895	24.37134
0.19	31.4209
0.1905	26.48621
0.191	25.07629
0.1915	25.37842
0.192	25.37842
0.1925	16.71753
0.193	6.04248
0.1935	-5.23682
0.194	-11.68213
0.1945	-18.63098
0.195	-19.94019
0.1955	-18.12744
0.196	-13.29346
0.1965	-2.31628
0.197	11.68213
0.1975	31.82373
0.198	38.47046
0.1985	57.00073
0.199	74.82605
0.1995	76.84021
0.2	71.40198
0.2005	67.07153
0.201	62.9425
0.2015	47.93701
0.202	31.4209
0.2025	8.96301
0.203	-1.2085
0.2035	-13.89771
0.204	-21.24939
0.2045	-26.78833
0.205	-32.42798
0.2055	-44.91577
0.206	-44.21082
0.2065	-30.31311
0.207	-11.2793
0.2075	1.51062
0.208	1.71204
0.2085	-0.20142
0.209	16.01257
0.2095	32.02515
0.21	55.3894
0.2105	60.62622
0.211	61.33118
0.2115	51.05896
0.212	50.65613
0.2125	46.72852
0.213	35.44922
0.2135	31.4209
0.214	32.32727
0.2145	21.3501
0.215	15.30762
0.2155	-1.81274
0.216	-17.12036
0.2165	-29.60815
0.217	-31.72302
0.2175	-42.19666
0.218	-43.40515
0.2185	-51.36108
0.219	-56.29578
0.2195	-64.65454
0.22	-62.64038
0.2205	-66.87012
0.221	-56.39648
0.2215	-51.86462
0.222	-47.03064
0.2225	-46.5271
0.223	-39.98108
0.2235	-31.52161
0.224	-36.75842
0.2245	-30.51453
0.225	-27.39258
0.2255	-21.04797
0.226	-18.12744
0.2265	-0.30212
0.227	11.17859
0.2275	12.89062
0.228	16.41541
0.2285	16.91895
0.229	10.67505
0.2295	10.87646
0.23	5.0354
0.2305	10.37292
0.231	6.94885
0.2315	2.61841
0.232	4.83398
0.2325	6.94885
0.233	4.43115
0.2335	5.84106
0.234	8.15735
0.2345	5.74036
0.235	10.37292
0.2355	6.74744
0.236	11.07788
0.2365	9.86938
0.237	7.15027
0.2375	9.97009
0.238	11.78284
0.2385	13.19275
0.239	14.19983
0.2395	13.19275
0.24	12.08496
0.2405	14.60266
0.241	18.53027
0.2415	20.04089
0.242	19.13452
0.2425	18.12744
0.243	17.72461
0.2435	17.72461
0.244	24.47205
0.2445	24.67346
0.245	40.98816
0.2455	74.82605
0.246	91.94641
0.2465	84.79614
0.247	76.03455
0.2475	58.81348
0.248	52.771
0.2485	41.29028
0.249	19.53735
0.2495	12.5885
0.25	-6.04248
0.2505	-13.89771
0.251	-23.66638
0.2515	-27.89612
0.252	-30.91736
0.2525	-30.81665
0.253	-27.6947
0.2535	-21.95435
0.254	-11.98425
0.2545	-7.45239
0.255	-16.41541
0.2555	-7.15027
0.256	-5.23682
0.2565	3.62549
0.257	9.76868
0.2575	4.43115
0.258	4.43115
0.2585	-11.88354
0.259	-18.93311
0.2595	-23.56567
0.26	-21.04797
0.2605	-9.86938
0.261	-5.63965
0.2615	-1.61133
0.262	-0.80566
0.2625	-1.2085
0.263	-12.78992
0.2635	-10.0708
0.264	-10.37292
0.2645	-9.16443
0.265	-9.76868
0.2655	-6.54602
0.266	-0.70496
0.2665	-0.10071
0.267	-0.10071
0.2675	3.62549
0.268	7.35168
0.2685	4.22974
0.269	6.74744
0.2695	13.89771
0.27	16.61682
0.2705	18.42957
0.271	23.06213
0.2715	25.98267
0.272	31.01807
0.2725	26.3855
0.273	20.24231
0.2735	18.12744
0.274	13.59558
0.2745	8.56018
0.275	9.56726
0.2755	9.26514
0.276	14.30054
0.2765	16.11328
0.277	21.3501
0.2775	45.11719
0.278	51.86462
0.2785	49.14551
0.279	43.40515
0.2795	52.771
0.28	52.26746
0.2805	40.88745
0.281	24.16992
0.2815	10.0708
0.282	-8.25806
0.2825	-18.12744
0.283	-24.57275
0.2835	-29.60815
0.284	-32.52869
0.2845	-33.33435
0.285	-30.51453
0.2855	-17.01965
0.286	-0.80566
0.2865	9.97009
0.287	23.46497
0.2875	44.81506
0.288	57.70569
0.2885	66.06445
0.289	58.41064
0.2895	47.33276
0.29	30.01099
0.2905	11.38
0.291	-7.95593
0.2915	-25.37842
0.292	-42.39807
0.2925	-46.42639
0.293	-48.54126
0.2935	-44.81506
0.294	-35.14709
0.2945	-30.41382
0.295	-25.88196
0.2955	-17.82532
0.296	-19.73877
0.2965	-18.12744
0.297	-16.71753
0.2975	-15.40833
0.298	-15.00549
0.2985	-13.59558
0.299	-12.99133
0.2995	-7.95593
0.3	-1.51062
0.3005	6.44531
0.301	19.83948
0.3015	39.47754
0.302	38.77258
0.3025	32.83081
0.303	29.91028
0.3035	18.8324
0.304	13.29346
0.3045	11.48071
0.305	2.71912
0.3055	3.22266
0.306	6.2439
0.3065	14.80408
0.307	15.50903
0.3075	20.94727
0.308	19.43665
0.3085	13.29346
0.309	8.7616
0.3095	10.97717
0.31	5.13611
0.3105	1.61133
0.311	0
0.3115	-9.46655
0.312	-12.18567
0.3125	-9.56726
0.313	1.2085
0.3135	13.797
0.314	33.73718
0.3145	48.44055
0.315	53.07312
0.3155	43.20374
0.316	48.03772
0.3165	45.01648
0.317	46.92993
0.3175	39.27612
0.318	33.83789
0.3185	34.94568
0.319	30.71594
0.3195	28.39966
0.32	18.12744
0.3205	4.02832
0.321	-7.65381
0.3215	-1.40991
0.322	0.20142
0.3225	0.40283
0.323	-7.5531
0.3235	-14.50195
0.324	-21.3501
0.3245	-24.87488
0.325	-27.09045
0.3255	-39.17542
0.326	-38.77258
0.3265	-36.25488
0.327	-38.87329
0.3275	-40.38391
0.328	-46.12427
0.3285	-42.29736
0.329	-35.54993
0.3295	-35.04639
0.33	-34.94568
0.3305	-33.03223
0.331	-27.99683
0.3315	-31.52161
0.332	-25.07629
0.3325	-18.93311
0.333	-16.21399
0.3335	9.36584
0.334	21.3501
0.3345	27.59399
0.335	18.12744
0.3355	15.91187
0.336	12.78992
0.3365	10.77576
0.337	6.04248
0.3375	6.2439
0.338	1.3092
0.3385	-1.81274
0.339	-1.2085
0.3395	-5.63965
0.34	-5.33752
0.3405	2.11487
0.341	7.35168
0.3415	6.94885
0.342	16.3147
0.3425	18.22815
0.343	22.6593
0.3435	20.44373
0.344	26.48621
0.3445	35.2478
0.345	35.2478
0.3455	34.54285
0.346	27.19116
0.3465	20.1416
0.347	9.76868
0.3475	7.5531
0.348	17.22107
0.3485	11.78284
0.349	8.56018
0.3495	15.40833
0.35	11.78284
0.3505	5.43823
0.351	5.94177
0.3515	4.83398
0.352	6.3446
0.3525	13.99841
0.353	16.51611
0.3535	17.32178
0.354	20.94727
0.3545	22.05505
0.355	16.41541
0.3555	13.29346
0.356	16.11328
0.3565	17.42249
0.357	16.01257
0.3575	21.45081
0.358	18.63098
0.3585	17.6239
0.359	24.06921
0.3595	31.4209
0.36	33.83789
0.3605	25.98267
0.361	30.11169
0.3615	29.80957
0.362	14.40125
0.3625	8.8623
0.363	-0.10071
0.3635	-8.05664
0.364	-6.84814
0.3645	-5.53894
0.365	-14.40125
0.3655	-8.96301
0.366	-11.98425
0.3665	-13.99841
0.367	-15.71045
0.3675	-15.91187
0.368	-15.81116
0.3685	-13.99841
0.369	-14.30054
0.3695	-12.89062
0.37	-16.11328
0.3705	-4.93469
0.371	-5.23682
0.3715	9.36584
0.372	17.22107
0.3725	13.89771
0.373	8.8623
0.3735	18.22815
0.374	14.90479
0.3745	12.18567
0.375	4.02832
0.3755	-1.61133
0.376	-1.81274
0.3765	3.52478
0.377	1.81274
0.3775	2.31628
0.378	5.23682
0.3785	4.73328
0.379	16.21399
0.3795	22.6593
0.38	29.91028
0.3805	24.57275
0.381	25.57983
0.3815	36.05347
0.382	41.59241
0.3825	39.88037
0.383	45.2179
0.3835	34.54285
0.384	26.88904
0.3845	26.68762
0.385	30.61523
0.3855	47.13135
0.386	52.26746
0.3865	40.38391
0.387	31.92444
0.3875	20.34302
0.388	11.48071
0.3885	-2.21558
0.389	-0.90637
0.3895	-18.22815
0.39	-25.177
0.3905	-26.78833
0.391	-11.17859
0.3915	-3.12195
0.392	6.84814
0.3925	16.01257
0.393	17.92603
0.3935	21.95435
0.394	20.24231
0.3945	8.35876
0.395	3.52478
0.3955	-5.74036
0.396	-8.05664
0.3965	2.5177
0.397	4.53186
0.3975	8.05664
0.398	4.12903
0.3985	13.09204
0.399	29.80957
0.3995	35.2478
0.4	33.23364
0.4005	26.88904
0.401	16.11328
0.4015	1.71204
0.402	-3.42407
0.4025	-9.76868
0.403	-23.26355
0.4035	-35.14709
0.404	-45.92285
0.4045	-57.9071
0.405	-64.45312
0.4055	-57.30286
0.406	-53.17383
0.4065	-55.2887
0.407	-45.72144
0.4075	-33.33435
0.408	-27.19116
0.4085	-8.56018
0.409	9.97009
0.4095	18.02673
0.41	17.22107
0.4105	15.30762
0.411	9.36584
0.4115	13.19275
0.412	16.21399
0.4125	19.94019
0.413	28.29895
0.4135	26.98975
0.414	23.8678
0.4145	30.61523
0.415	31.11877
0.4155	36.85913
0.416	43.00232
0.4165	48.94409
0.417	46.22498
0.4175	38.57117
0.418	31.01807
0.4185	24.67346
0.419	18.42957
0.4195	11.38
0.42	-1.3092
0.4205	-3.02124
0.421	-8.96301
0.4215	-18.8324
0.422	-18.8324
0.4225	-18.12744
0.423	-14.30054
0.4235	-15.71045
0.424	-18.32886
0.4245	-12.48779
0.425	-15.71045
0.4255	-13.59558
0.426	-11.48071
0.4265	7.75452
0.427	24.77417
0.4275	21.24939
0.428	20.84656
0.4285	13.09204
0.429	5.74036
0.4295	-1.10779
0.43	-10.47363
0.4305	8.96301
0.431	15.20691
0.4315	20.84656
0.432	29.10461
0.4325	49.0448
0.433	64.95667
0.4335	62.43896
0.434	59.21631
0.4345	46.42639
0.435	34.54285
0.4355	22.45789
0.436	16.01257
0.4365	7.04956
0.437	-4.73328
0.4375	-5.94177
0.438	-13.89771
0.4385	-17.42249
0.439	-24.06921
0.4395	-20.64514
0.44	-18.22815
0.4405	-9.56726
0.441	-14.19983
0.4415	-10.0708
0.442	-19.03381
0.4425	-31.52161
0.443	-44.31152
0.4435	-50.45471
0.444	-46.12427
0.4445	-41.39099
0.445	-39.67896
0.4455	-34.74426
0.446	-26.98975
0.4465	-24.47205
0.447	-14.60266
0.4475	-11.68213
0.448	-3.92761
0.4485	1.10779
0.449	5.53894
0.4495	18.12744
0.45	26.98975
0.4505	33.13293
0.451	33.73718
0.4515	25.37842
0.452	25.27771
0.4525	12.18567
0.453	5.43823
0.4535	-3.02124
0.454	-1.40991
0.4545	1.2085
0.455	-3.92761
0.4555	0.20142
0.456	-0.60425
0.4565	-7.25098
0.457	-4.33044
0.4575	-1.00708
0.458	1.51062
0.4585	-1.40991
0.459	1.91345
0.4595	1.61133
0.46	11.17859
0.4605	15.30762
0.461	20.1416
0.4615	22.86072
0.462	29.00391
0.4625	27.19116
0.463	22.96143
0.4635	27.89612
0.464	31.32019
0.4645	31.92444
0.465	32.42798
0.4655	27.59399
0.466	39.77966
0.4665	50.05188
0.467	52.8717
0.4675	52.8717
0.468	42.7002
0.4685	37.96692
0.469	30.2124
0.4695	26.18408
0.47	11.38
0.4705	0.70496
0.471	-2.81982
0.4715	-7.45239
0.472	-13.39417
0.4725	-15.40833
0.473	-12.89062
0.4735	-7.25098
0.474	-6.2439
0.4745	-3.12195
0.475	2.21558
0.4755	2.41699
0.476	2.5177
0.4765	4.73328
0.477	3.32336
0.4775	7.25098
0.478	8.05664
0.4785	9.16443
0.479	11.48071
0.4795	14.40125
0.48	12.08496
0.4805	8.96301
0.481	18.93311
0.4815	22.55859
0.482	27.89612
0.4825	31.01807
0.483	34.94568
0.4835	29.50745
0.484	33.43506
0.4845	42.19666
0.485	38.974
0.4855	47.8363
0.486	52.26746
0.4865	49.44763
0.487	40.08179
0.4875	33.73718
0.488	23.66638
0.4885	17.72461
0.489	7.65381
0.4895	-3.42407
0.49	-11.38
0.4905	-18.42957
0.491	-28.09753
0.4915	-30.81665
0.492	-22.35718
0.4925	-17.6239
0.493	-7.95593
0.4935	7.65381
0.494	13.69629
0.4945	19.83948
0.495	11.98425
0.4955	4.22974
0.496	5.23682
0.4965	1.71204
0.497	-3.52478
0.4975	-10.87646
0.498	-9.86938
0.4985	0.70496
0.499	21.45081
0.4995	21.75293
0.5	22.25647
0.5005	14.90479
0.501	6.04248
0.5015	5.23682
0.502	0
0.5025	-3.52478
0.503	-10.17151
0.5035	-12.5885
0.504	-15.50903
0.5045	-16.41541
0.505	-8.7616
0.5055	-17.52319
0.506	-23.16284
0.5065	-19.63806
0.507	-18.73169
0.5075	-9.26514
0.508	-7.45239
0.5085	-5.63965
0.509	-7.75452
0.5095	-1.71204
0.51	0.80566
0.5105	4.53186
0.511	11.07788
0.5115	4.73328
0.512	1.2085
0.5125	-9.36584
0.513	-13.69629
0.5135	-13.89771
0.514	-11.2793
0.5145	-12.68921
0.515	-7.25098
0.5155	-6.04248
0.516	-10.47363
0.5165	-13.09204
0.517	-11.48071
0.5175	-10.97717
0.518	-0.70496
0.5185	10.57434
0.519	12.08496
0.5195	5.63965
0.52	3.52478
0.5205	1.81274
0.521	5.53894
0.5215	1.81274
0.522	2.31628
0.5225	-1.2085
0.523	-3.02124
0.5235	-12.78992
0.524	-10.47363
0.5245	-16.11328
0.525	-10.0708
0.5255	-8.96301
0.526	-9.26514
0.5265	-5.74036
0.527	-9.76868
0.5275	-18.22815
0.528	-15.20691
0.5285	-14.09912
0.529	-11.48071
0.5295	-12.5885
0.53	-5.84106
0.5305	-8.25806
0.531	-2.41699
0.5315	-3.22266
0.532	4.22974
0.5325	9.36584
0.533	5.84106
0.5335	7.45239
0.534	11.48071
0.5345	22.05505
0.535	45.2179
0.5355	54.18091
0.536	56.39648
0.5365	55.18799
0.537	45.82214
0.5375	36.15417
0.538	24.16992
0.5385	17.12036
0.539	5.94177
0.5395	-4.02832
0.54	-10.0708
0.5405	-9.06372
0.541	7.65381
0.5415	22.76001
0.542	35.95276
0.5425	34.84497
0.543	35.65063
0.5435	35.75134
0.544	29.10461
0.5445	34.94568
0.545	50.75684
0.5455	60.52551
0.546	68.98499
0.5465	53.07312
0.547	45.72144
0.5475	37.96692
0.548	40.88745
0.5485	43.20374
0.549	29.10461
0.5495	24.97559
0.55	22.6593
0.5505	15.60974
0.551	15.40833
0.5515	8.15735
0.552	-9.16443
0.5525	-15.60974
0.553	-17.22107
0.5535	-33.53577
0.554	-36.4563
0.5545	-41.39099
0.555	-42.19666
0.5555	-46.22498
0.556	-37.06055
0.5565	-22.35718
0.557	-8.45947
0.5575	-11.48071
0.558	-13.29346
0.5585	-15.60974
0.559	-16.51611
0.5595	-25.57983
0.56	-29.50745
0.5605	-28.19824
0.561	-22.35718
0.5615	-23.96851
0.562	-24.77417
0.5625	-20.54443
0.563	-23.8678
0.5635	-20.04089
0.564	-13.19275
0.5645	-16.21399
0.565	-3.92761
0.5655	4.02832
0.566	6.64673
0.5665	11.78284
0.567	17.22107
0.5675	19.94019
0.568	18.22815
0.5685	20.24231
0.569	18.12744
0.5695	5.43823
0.57	2.71912
0.5705	-2.92053
0.571	-6.74744
0.5715	-13.59558
0.572	-13.19275
0.5725	-13.99841
0.573	-15.60974
0.5735	-5.74036
0.574	-5.53894
0.5745	-5.74036
0.575	-1.51062
0.5755	-6.2439
0.576	-5.23682
0.5765	-6.84814
0.577	-2.41699
0.5775	-4.83398
0.578	1.2085
0.5785	7.15027
0.579	7.65381
0.5795	6.74744
0.58	18.02673
0.5805	19.03381
0.581	18.02673
0.5815	21.3501
0.582	39.47754
0.5825	46.12427
0.583	42.49878
0.5835	42.19666
0.584	39.17542
0.5845	29.10461
0.585	32.02515
0.5855	39.98108
0.586	47.03064
0.5865	41.18958
0.587	36.65771
0.5875	30.51453
0.588	30.41382
0.5885	29.80957
0.589	23.96851
0.5895	21.3501
0.59	14.40125
0.5905	7.04956
0.591	4.93469
0.5915	1.71204
0.592	-7.35168
0.5925	-1.00708
0.593	2.21558
0.5935	4.83398
0.594	2.81982
0.5945	3.92761
0.595	-1.81274
0.5955	-8.8623
0.596	-16.51611
0.5965	-21.04797
0.597	-16.11328
0.5975	-11.48071
0.598	-11.17859
0.5985	-7.5531
0.599	6.14319
0.5995	14.40125
0.6	27.6947
0.6005	25.88196
0.601	20.54443
0.6015	9.56726
0.602	6.2439
0.6025	-0.70496
0.603	-12.89062
0.6035	-20.44373
0.604	-28.9032
0.6045	-28.80249
0.605	-27.79541
0.6055	-22.86072
0.606	-19.94019
0.6065	-20.44373
0.607	-21.75293
0.6075	-12.38708
0.608	-14.70337
0.6085	-17.01965
0.609	-12.28638
0.6095	-10.17151
0.61	-12.5885
0.6105	-3.7262
0.611	-3.92761
0.6115	4.93469
0.612	9.56726
0.6125	13.39417
0.613	15.60974
0.6135	14.80408
0.614	16.41541
0.6145	12.68921
0.615	10.57434
0.6155	12.68921
0.616	13.39417
0.6165	14.70337
0.617	12.5885
0.6175	17.22107
0.618	22.05505
0.6185	17.12036
0.619	22.86072
0.6195	20.64514
0.62	45.52002
0.6205	58.91418
0.621	64.85596
0.6215	67.97791
0.622	71.30127
0.6225	73.41614
0.623	63.94958
0.6235	56.69861
0.624	43.20374
0.6245	30.71594
0.625	18.22815
0.6255	4.12903
0.626	15.20691
0.6265	21.75293
0.627	22.76001
0.6275	18.42957
0.628	22.45789
0.6285	23.66638
0.629	22.05505
0.6295	9.46655
0.63	-5.23682
0.6305	-14.30054
0.631	-25.37842
0.6315	-40.58533
0.632	-37.36267
0.6325	-25.57983
0.633	-30.01099
0.6335	-31.62231
0.634	-38.57117
0.6345	-42.39807
0.635	-34.94568
0.6355	-38.87329
0.636	-38.06763
0.6365	-33.73718
0.637	-31.82373
0.6375	-36.85913
0.638	-38.87329
0.6385	-36.4563
0.639	-33.63647
0.6395	-33.23364
0.64	-28.9032
0.6405	-21.24939
0.641	-17.52319
0.6415	-11.07788
0.642	-8.7616
0.6425	-5.43823
0.643	3.12195
0.6435	8.05664
0.644	16.51611
0.6445	22.25647
0.645	30.2124
0.6455	27.39258
0.646	32.02515
0.6465	27.09045
0.647	22.15576
0.6475	22.45789
0.648	20.64514
0.6485	20.64514
0.649	19.23523
0.6495	15.50903
0.65	18.12744
0.6505	16.3147
0.651	14.09912
0.6515	13.59558
0.652	10.0708
0.6525	10.27222
0.653	10.47363
0.6535	13.29346
0.654	13.39417
0.6545	21.65222
0.655	29.50745
0.6555	38.47046
0.656	51.5625
0.6565	51.76392
0.657	44.11011
0.6575	34.44214
0.658	32.32727
0.6585	31.62231
0.659	20.84656
0.6595	10.57434
0.66	-2.5177
0.6605	-9.06372
0.661	-14.60266
0.6615	-19.23523
0.662	-21.95435
0.6625	-28.9032
0.663	-30.01099
0.6635	-28.09753
0.664	-27.19116
0.6645	-22.35718
0.665	-15.60974
0.6655	-2.31628
0.666	22.15576
0.6665	52.06604
0.667	66.16516
0.6675	69.58923
0.668	70.19348
0.6685	70.49561
0.669	53.77808
0.6695	41.39099
0.67	36.85913
0.6705	18.53027
0.671	4.43115
0.6715	-2.21558
0.672	-7.15027
0.6725	-21.14868
0.673	-26.68762
0.6735	-37.86621
0.674	-36.95984
0.6745	-30.61523
0.675	-33.73718
0.6755	-43.40515
0.676	-44.21082
0.6765	-39.47754
0.677	-32.42798
0.6775	-23.8678
0.678	-17.01965
0.6785	-16.01257
0.679	-26.18408
0.6795	-20.34302
0.68	-17.42249
0.6805	-15.30762
0.681	-7.75452
0.6815	-1.2085
0.682	2.92053
0.6825	3.12195
0.683	4.02832
0.6835	13.99841
0.684	37.36267
0.6845	35.14709
0.685	33.83789
0.6855	37.46338
0.686	38.974
0.6865	33.9386
0.687	24.27063
0.6875	11.68213
0.688	2.11487
0.6885	-1.00708
0.689	1.61133
0.6895	1.40991
0.69	-1.81274
0.6905	3.32336
0.691	4.12903
0.6915	12.89062
0.692	10.0708
0.6925	20.24231
0.693	21.14868
0.6935	16.61682
0.694	13.99841
0.6945	13.09204
0.695	9.26514
0.6955	9.06372
0.696	5.53894
0.6965	2.31628
0.697	0.20142
0.6975	2.21558
0.698	-5.23682
0.6985	-2.71912
0.699	0.50354
0.6995	7.5531
0.7	20.1416
0.7005	31.01807
0.701	33.23364
0.7015	29.50745
0.702	33.83789
0.7025	30.81665
0.703	26.3855
0.7035	24.57275
0.704	18.53027
0.7045	11.68213
0.705	11.48071
0.7055	14.40125
0.706	10.0708
0.7065	12.68921
0.707	17.01965
0.7075	23.96851
0.708	34.34143
0.7085	39.77966
0.709	35.44922
0.7095	35.44922
0.71	46.32568
0.7105	40.98816
0.711	49.34692
0.7115	66.26587
0.712	93.96057
0.7125	85.5011
0.713	75.02747
0.7135	54.68445
0.714	26.88904
0.7145	1.40991
0.715	-20.1416
0.7155	-37.06055
0.716	-53.57666
0.7165	-71.80481
0.717	-75.53101
0.7175	-77.04163
0.718	-76.33667
0.7185	-72.9126
0.719	-64.75525
0.7195	-55.69153
0.72	-46.32568
0.7205	-33.63647
0.721	-30.31311
0.7215	-22.05505
0.722	-9.76868
0.7225	-0.30212
0.723	19.94019
0.7235	25.07629
0.724	15.20691
0.7245	8.15735
0.725	7.5531
0.7255	2.41699
0.726	-2.31628
0.7265	-5.0354
0.727	1.91345
0.7275	5.23682
0.728	8.96301
0.7285	1.10779
0.729	0.20142
0.7295	0.60425
0.73	-3.62549
0.7305	-6.3446
0.731	-8.66089
0.7315	-7.45239
0.732	-7.95593
0.7325	-9.97009
0.733	-12.78992
0.7335	-12.18567
0.734	4.53186
0.7345	17.12036
0.735	20.44373
0.7355	27.49329
0.736	27.6947
0.7365	21.04797
0.737	10.77576
0.7375	7.04956
0.738	5.0354
0.7385	-1.91345
0.739	2.92053
0.7395	-0.10071
0.74	0.40283
0.7405	14.30054
0.741	21.14868
0.7415	17.01965
0.742	9.76868
0.7425	8.56018
0.743	8.45947
0.7435	4.73328
0.744	7.85522
0.7445	8.7616
0.745	-2.81982
0.7455	1.3092
0.746	-10.0708
0.7465	-12.5885
0.747	-3.62549
0.7475	1.00708
0.748	4.33044
0.7485	8.8623
0.749	9.06372
0.7495	15.81116
0.75	27.49329
0.7505	30.81665
0.751	31.4209
0.7515	26.68762
0.752	26.78833
0.7525	19.53735
0.753	14.90479
0.7535	10.27222
0.754	1.3092
0.7545	-9.86938
0.755	-12.38708
0.7555	-15.81116
0.756	-2.81982
0.7565	-3.92761
0.757	-1.3092
0.7575	-7.35168
0.758	-9.36584
0.7585	-4.33044
0.759	-6.2439
0.7595	-1.40991
0.76	-3.32336
0.7605	-2.71912
0.761	-5.94177
0.7615	-1.71204
0.762	-3.7262
0.7625	-9.46655
0.763	-9.46655
0.7635	-7.65381
0.764	-8.7616
0.7645	-12.28638
0.765	-8.15735
0.7655	-6.14319
0.766	-12.68921
0.7665	-3.62549
0.767	4.02832
0.7675	10.47363
0.768	15.60974
0.7685	15.20691
0.769	13.99841
0.7695	6.74744
0.77	1.10779
0.7705	-2.71912
0.771	-9.06372
0.7715	-6.84814
0.772	-8.8623
0.7725	-9.66797
0.773	-4.53186
0.7735	1.10779
0.774	5.53894
0.7745	16.51611
0.775	21.45081
0.7755	21.85364
0.776	28.39966
0.7765	28.39966
0.777	29.91028
0.7775	26.98975
0.778	24.16992
0.7785	25.88196
0.779	22.25647
0.7795	17.01965
0.78	4.73328
0.7805	2.11487
0.781	1.91345
0.7815	1.91345
0.782	-1.00708
0.7825	6.14319
0.783	6.84814
0.7835	4.22974
0.784	-3.42407
0.7845	-11.48071
0.785	-7.15027
0.7855	-0.20142
0.786	2.5177
0.7865	6.74744
0.787	11.38
0.7875	19.63806
0.788	27.39258
0.7885	47.23206
0.789	59.51843
0.7895	57.70569
0.79	52.67029
0.7905	47.7356
0.791	34.74426
0.7915	24.16992
0.792	21.45081
0.7925	22.86072
0.793	24.27063
0.7935	6.64673
0.794	-5.33752
0.7945	-12.99133
0.795	-10.87646
0.7955	-11.78284
0.796	-15.00549
0.7965	-20.04089
0.797	-25.177
0.7975	-25.78125
0.798	-24.87488
0.7985	-20.04089
0.799	-26.08337
0.7995	-22.45789
0.8	-15.60974
0.8005	-10.97717
0.801	-7.85522
0.8015	-12.99133
0.802	-17.01965
0.8025	-10.87646
0.803	-15.20691
0.8035	-12.99133
0.804	-0.30212
0.8045	12.08496
0.805	21.24939
0.8055	22.45789
0.806	20.04089
0.8065	12.99133
0.807	5.33752
0.8075	-1.61133
0.808	3.52478
0.8085	2.11487
0.809	-5.53894
0.8095	-3.52478
0.81	-8.56018
0.8105	-12.68921
0.811	-10.57434
0.8115	-9.06372
0.812	-5.84106
0.8125	-1.2085
0.813	-10.0708
0.8135	-10.97717
0.814	-8.45947
0.8145	-8.05664
0.815	-4.43115
0.8155	2.41699
0.816	4.93469
0.8165	6.14319
0.817	3.8269
0.8175	2.71912
0.818	8.15735
0.8185	6.04248
0.819	2.71912
0.8195	10.87646
0.82	3.92761
0.8205	10.37292
0.821	9.26514
0.8215	13.69629
0.822	16.3147
0.8225	28.60107
0.823	33.23364
0.8235	30.31311
0.824	34.74426
0.8245	55.99365
0.825	61.53259
0.8255	60.72693
0.826	62.23755
0.8265	54.28162
0.827	49.14551
0.8275	39.88037
0.828	28.9032
0.8285	18.93311
0.829	10.57434
0.8295	9.26514
0.83	-0.10071
0.8305	-9.26514
0.831	-12.68921
0.8315	-1.61133
0.832	10.67505
0.8325	19.13452
0.833	36.65771
0.8335	43.50586
0.834	42.29736
0.8345	28.09753
0.835	11.17859
0.8355	-10.17151
0.836	-25.37842
0.8365	-40.1825
0.837	-55.18799
0.8375	-54.78516
0.838	-52.26746
0.8385	-52.97241
0.839	-52.771
0.8395	-45.82214
0.84	-39.37683
0.8405	-35.04639
0.841	-28.70178
0.8415	-26.48621
0.842	-11.38
0.8425	-4.53186
0.843	6.54602
0.8435	18.22815
0.844	22.76001
0.8445	23.26355
0.845	16.3147
0.8455	16.21399
0.846	6.74744
0.8465	1.00708
0.847	-8.8623
0.8475	-17.6239
0.848	-15.71045
0.8485	-11.78284
0.849	-6.2439
0.8495	2.11487
0.85	11.17859
0.8505	14.19983
0.851	18.32886
0.8515	23.76709
0.852	32.83081
0.8525	25.68054
0.853	27.6947
0.8535	21.85364
0.854	19.33594
0.8545	14.60266
0.855	12.99133
0.8555	11.2793
0.856	4.93469
0.8565	3.22266
0.857	3.52478
0.8575	4.22974
0.858	5.63965
0.8585	4.63257
0.859	10.57434
0.8595	7.85522
0.86	6.04248
0.8605	0.10071
0.861	-8.35876
0.8615	-13.797
0.862	-16.01257
0.8625	-26.28479
0.863	-21.14868
0.8635	-18.8324
0.864	-15.60974
0.8645	-9.76868
0.865	-14.70337
0.8655	-14.70337
0.866	-11.07788
0.8665	-14.80408
0.867	-20.74585
0.8675	-6.94885
0.868	-6.64673
0.8685	1.10779
0.869	16.01257
0.8695	17.6239
0.87	15.50903
0.8705	19.53735
0.871	19.33594
0.8715	17.6239
0.872	16.3147
0.8725	11.98425
0.873	19.83948
0.8735	30.81665
0.874	49.85046
0.8745	57.20215
0.875	77.14233
0.8755	80.86853
0.876	76.94092
0.8765	74.02039
0.877	59.61914
0.8775	36.35559
0.878	17.92603
0.8785	4.63257
0.879	-7.75452
0.8795	-18.42957
0.88	-22.6593
0.8805	-25.68054
0.881	-29.80957
0.8815	-27.79541
0.882	-30.31311
0.8825	-32.12585
0.883	-26.28479
0.8835	-33.33435
0.884	-20.74585
0.8845	-14.09912
0.885	-16.21399
0.8855	-3.42407
0.886	-5.94177
0.8865	-6.2439
0.887	-1.51062
0.8875	-5.94177
0.888	-4.53186
0.8885	-2.5177
0.889	-5.84106
0.8895	-3.7262
0.89	-5.33752
0.8905	-4.73328
0.891	-3.32336
0.8915	2.61841
0.892	-1.2085
0.8925	0.20142
0.893	-1.71204
0.8935	-0.70496
0.894	7.15027
0.8945	21.24939
0.895	28.60107
0.8955	32.22656
0.896	28.60107
0.8965	21.75293
0.897	17.72461
0.8975	16.41541
0.898	12.68921
0.8985	8.56018
0.899	1.91345
0.8995	-4.22974
0.9	-2.41699
0.9005	-3.8269
0.901	-8.8623
0.9015	-10.0708
0.902	-12.48779
0.9025	-9.06372
0.903	-6.2439
0.9035	-2.21558
0.904	-2.21558
0.9045	7.85522
0.905	7.5531
0.9055	18.42957
0.906	24.77417
0.9065	23.76709
0.907	23.36426
0.9075	19.23523
0.908	29.00391
0.9085	55.59082
0.909	65.15808
0.9095	77.948
0.91	84.19189
0.9105	85.90393
0.911	82.68127
0.9115	84.39331
0.912	83.88977
0.9125	68.88428
0.913	59.1156
0.9135	43.40515
0.914	23.76709
0.9145	9.36584
0.915	-5.94177
0.9155	-28.29895
0.916	-36.85913
0.9165	-54.38232
0.917	-62.64038
0.9175	-68.07861
0.918	-72.81189
0.9185	-64.35242
0.919	-56.5979
0.9195	-57.30286
0.92	-47.53418
0.9205	-37.06055
0.921	-29.91028
0.9215	-33.23364
0.922	-29.91028
0.9225	-24.27063
0.923	-15.1062
0.9235	-8.05664
0.924	-11.98425
0.9245	-11.38
0.925	-13.797
0.9255	-15.40833
0.926	-10.27222
0.9265	-15.00549
0.927	-10.37292
0.9275	-10.97717
0.928	-7.35168
0.9285	3.92761
0.929	16.41541
0.9295	18.42957
0.93	23.56567
0.9305	27.09045
0.931	26.48621
0.9315	18.12744
0.932	15.00549
0.9325	18.12744
0.933	13.19275
0.9335	16.01257
0.934	10.37292
0.9345	9.36584
0.935	7.75452
0.9355	13.99841
0.936	17.72461
0.9365	15.50903
0.937	20.54443
0.9375	19.63806
0.938	21.04797
0.9385	12.68921
0.939	15.30762
0.9395	16.11328
0.94	11.68213
0.9405	5.13611
0.941	10.0708
0.9415	3.52478
0.942	-5.74036
0.9425	-5.53894
0.943	-8.15735
0.9435	-12.89062
0.944	-16.11328
0.9445	-12.48779
0.945	-17.72461
0.9455	-18.32886
0.946	-13.39417
0.9465	-8.05664
0.947	2.61841
0.9475	8.45947
0.948	25.47913
0.9485	36.65771
0.949	48.13843
0.9495	56.90002
0.95	56.79932
0.9505	44.61365
0.951	39.17542
0.9515	30.31311
0.952	19.63806
0.9525	5.53894
0.953	15.81116
0.9535	15.30762
0.954	17.82532
0.9545	13.19275
0.955	13.19275
0.9555	13.09204
0.956	9.46655
0.9565	4.33044
0.957	-1.3092
0.9575	-10.57434
0.958	-13.59558
0.9585	-23.16284
0.959	-13.69629
0.9595	-1.3092
0.96	8.56018
0.9605	5.13611
0.961	4.73328
0.9615	1.91345
0.962	5.0354
0.9625	2.21558
0.963	-0.30212
0.9635	-1.10779
0.964	7.25098
0.9645	5.13611
0.965	3.42407
0.9655	1.10779
0.966	15.71045
0.9665	28.80249
0.967	31.4209
0.9675	25.27771
0.968	20.44373
0.9685	17.92603
0.969	11.2793
0.9695	8.35876
0.97	-5.94177
0.9705	-19.33594
0.971	-19.43665
0.9715	-16.91895
0.972	-13.19275
0.9725	-15.81116
0.973	-13.09204
0.9735	-12.18567
0.974	-8.35876
0.9745	-6.2439
0.975	-9.97009
0.9755	-10.57434
0.976	-11.58142
0.9765	-2.41699
0.977	6.74744
0.9775	11.38
0.978	6.3446
0.9785	5.0354
0.979	4.63257
0.9795	0.20142
0.98	-7.35168
0.9805	-6.44531
0.981	-9.46655
0.9815	-5.23682
0.982	8.8623
0.9825	27.6947
0.983	35.04639
0.9835	48.84338
0.984	48.33984
0.9845	51.46179
0.985	40.2832
0.9855	33.53577
0.986	22.6593
0.9865	22.86072
0.987	10.27222
0.9875	3.12195
0.988	-6.2439
0.9885	-9.26514
0.989	-19.63806
0.9895	-15.71045
0.99	-17.52319
0.9905	-23.8678
0.991	-17.52319
0.9915	-1.00708
0.992	11.2793
0.9925	22.45789
0.993	28.80249
0.9935	19.83948
0.994	20.1416
0.9945	16.01257
0.995	6.3446
0.9955	-1.3092
0.996	-9.06372
0.9965	-11.98425
0.997	-3.12195
0.9975	-5.84106
0.998	-10.0708
0.9985	-3.7262
0.999	-10.67505
0.9995	-4.53186
1	-7.85522
1.0005	-2.01416
1.001	-3.52478
1.0015	-8.35876
1.002	-8.56018
1.0025	-1.91345
1.003	5.63965
1.0035	4.63257
1.004	8.66089
1.0045	25.37842
1.005	29.40674
1.0055	33.33435
1.006	29.80957
1.0065	25.47913
1.007	22.6593
1.0075	19.13452
1.008	13.89771
1.0085	1.51062
1.009	-3.62549
1.0095	-8.8623
1.01	-10.47363
1.0105	-8.05664
1.011	-8.25806
1.0115	-10.27222
1.012	-4.33044
1.0125	-6.64673
1.013	-4.63257
1.0135	-3.92761
1.014	-4.93469
1.0145	1.51062
1.015	6.2439
1.0155	10.67505
1.016	7.75452
1.0165	12.38708
1.017	8.96301
1.0175	13.19275
1.018	14.30054
1.0185	19.13452
1.019	16.41541
1.0195	15.81116
1.02	14.80408
1.0205	21.14868
1.021	21.24939
1.0215	17.22107
1.022	17.72461
1.0225	16.21399
1.023	22.55859
1.0235	21.14868
1.024	22.05505
1.0245	29.20532
1.025	25.07629
1.0255	30.71594
1.026	31.82373
1.0265	28.9032
1.027	18.22815
1.0275	12.18567
1.028	2.41699
1.0285	5.23682
1.029	0.40283
1.0295	-5.84106
1.03	-0.40283
1.0305	-3.42407
1.031	2.21558
1.0315	4.02832
1.032	-2.31628
1.0325	-6.64673
1.033	-5.0354
1.0335	-17.22107
1.034	-13.797
1.0345	5.63965
1.035	14.50195
1.0355	17.52319
1.036	20.1416
1.0365	38.974
1.037	41.69312
1.0375	36.35559
1.038	20.94727
1.0385	12.28638
1.039	-0.80566
1.0395	-3.32336
1.04	3.7262
1.0405	9.66797
1.041	13.99841
1.0415	18.53027
1.042	21.14868
1.0425	7.15027
1.043	10.27222
1.0435	10.57434
1.044	11.48071
1.0445	3.42407
1.045	-7.45239
1.0455	-14.70337
1.046	-19.94019
1.0465	-24.87488
1.047	-13.69629
1.0475	-11.98425
1.048	-8.35876
1.0485	-15.81116
1.049	-23.26355
1.0495	-24.67346
1.05	-27.79541
1.0505	-27.6947
1.051	-22.55859
1.0515	-16.11328
1.052	-9.26514
1.0525	6.3446
1.053	25.98267
1.0535	27.6947
1.054	31.32019
1.0545	25.07629
1.055	18.12744
1.0555	12.18567
1.056	3.8269
1.0565	-5.13611
1.057	-9.16443
1.0575	-13.39417
1.058	-22.86072
1.0585	-25.27771
1.059	-29.50745
1.0595	-21.85364
1.06	-20.04089
1.0605	-19.83948
1.061	-18.63098
1.0615	-12.89062
1.062	-12.48779
1.0625	1.51062
1.063	20.74585
1.0635	37.26196
1.064	45.92285
1.0645	49.54834
1.065	48.13843
1.0655	39.37683
1.066	31.01807
1.0665	20.1416
1.067	13.69629
1.0675	8.35876
1.068	-1.81274
1.0685	-4.43115
1.069	-8.35876
1.0695	-9.56726
1.07	-16.01257
1.0705	-13.89771
1.071	-16.81824
1.0715	-9.76868
1.072	-3.12195
1.0725	-1.81274
1.073	-0.90637
1.0735	-1.71204
1.074	3.52478
1.0745	4.43115
1.075	26.88904
1.0755	50.45471
1.076	64.95667
1.0765	77.24304
1.077	80.76782
1.0775	75.73242
1.078	62.33826
1.0785	59.61914
1.079	54.78516
1.0795	51.05896
1.08	39.47754
1.0805	22.15576
1.081	6.84814
1.0815	-4.53186
1.082	-12.89062
1.0825	-26.88904
1.083	-36.65771
1.0835	-45.82214
1.084	-44.51294
1.0845	-45.41931
1.085	-43.70728
1.0855	-41.69312
1.086	-35.85205
1.0865	-25.07629
1.087	-16.61682
1.0875	-4.63257
1.088	6.14319
1.0885	12.08496
1.089	3.92761
1.0895	4.12903
1.09	6.14319
1.0905	0.80566
1.091	3.32336
1.0915	2.01416
1.092	-1.81274
1.0925	-5.13611
1.093	-5.0354
1.0935	-1.51062
1.094	-1.00708
1.0945	4.12903
1.095	1.71204
1.0955	0.60425
1.096	0.20142
1.0965	-4.63257
1.097	-8.7616
1.0975	-2.01416
1.098	11.88354
1.0985	21.55151
1.099	27.49329
1.0995	24.87488
1.1	21.3501
1.1005	16.81824
1.101	17.52319
1.1015	16.11328
1.102	6.2439
1.1025	8.35876
1.103	1.61133
1.1035	-9.46655
1.104	-10.57434
1.1045	-8.05664
1.105	-2.81982
1.1055	4.93469
1.106	13.99841
1.1065	19.83948
1.107	27.79541
1.1075	35.54993
1.108	39.77966
1.1085	48.84338
1.109	44.31152
1.1095	37.16125
1.11	38.26904
1.1105	25.98267
1.111	17.82532
1.1115	10.27222
1.112	1.81274
1.1125	-0.80566
1.113	-9.76868
1.1135	-10.97717
1.114	-9.76868
1.1145	-8.7616
1.115	-11.68213
1.1155	-13.19275
1.116	-9.16443
1.1165	-1.51062
1.117	0.90637
1.1175	0.60425
1.118	-4.22974
1.1185	-12.68921
1.119	-1.10779
1.1195	5.33752
1.12	6.14319
1.1205	6.64673
1.121	8.15735
1.1215	7.5531
1.122	4.33044
1.1225	15.81116
1.123	16.3147
1.1235	13.19275
1.124	21.85364
1.1245	28.80249
1.125	40.2832
1.1255	45.41931
1.126	51.86462
1.1265	53.27454
1.127	54.68445
1.1275	47.43347
1.128	32.7301
1.1285	18.73169
1.129	7.15027
1.1295	-6.94885
1.13	-15.00549
1.1305	-28.50037
1.131	-20.1416
1.1315	-8.66089
1.132	-11.38
1.1325	-13.29346
1.133	-15.20691
1.1335	-22.45789
1.134	-34.14001
1.1345	-37.7655
1.135	-39.07471
1.1355	-32.7301
1.136	-32.02515
1.1365	-35.54993
1.137	-34.44214
1.1375	-32.7301
1.138	-29.00391
1.1385	-18.42957
1.139	-16.3147
1.1395	-1.40991
1.14	6.3446
1.1405	7.04956
1.141	0.80566
1.1415	4.83398
1.142	-1.10779
1.1425	-1.00708
1.143	5.94177
1.1435	-3.7262
1.144	-9.06372
1.1445	-18.73169
1.145	-22.76001
1.1455	-21.65222
1.146	-18.12744
1.1465	-9.76868
1.147	-0.40283
1.1475	7.35168
1.148	7.5531
1.1485	12.78992
1.149	17.01965
1.1495	16.41541
1.15	16.3147
1.1505	14.90479
1.151	12.38708
1.1515	13.99841
1.152	8.56018
1.1525	6.54602
1.153	3.22266
1.1535	2.41699
1.154	1.71204
1.1545	0
1.155	4.43115
1.1555	4.43115
1.156	2.71912
1.1565	10.87646
1.157	17.52319
1.1575	23.36426
1.158	24.37134
1.1585	24.47205
1.159	24.77417
1.1595	30.91736
1.16	35.04639
1.1605	41.79382
1.161	38.26904
1.1615	38.77258
1.162	37.86621
1.1625	25.27771
1.163	17.01965
1.1635	12.08496
1.164	4.22974
1.1645	1.00708
1.165	-2.11487
1.1655	-3.02124
1.166	-4.93469
1.1665	-7.35168
1.167	-7.04956
1.1675	-8.15735
1.168	-6.64673
1.1685	-6.14319
1.169	-1.40991
1.1695	10.17151
1.17	12.68921
1.1705	17.52319
1.171	13.99841
1.1715	17.6239
1.172	9.56726
1.1725	16.61682
1.173	4.33044
1.1735	-0.10071
1.174	-13.39417
1.1745	-20.24231
1.175	-23.06213
1.1755	-21.85364
1.176	-21.85364
1.1765	-18.32886
1.177	-10.67505
1.1775	-4.02832
1.178	5.74036
1.1785	8.35876
1.179	20.84656
1.1795	21.95435
1.18	23.36426
1.1805	32.42798
1.181	32.93152
1.1815	25.07629
1.182	20.64514
1.1825	19.33594
1.183	17.82532
1.1835	18.93311
1.184	13.99841
1.1845	18.73169
1.185	15.20691
1.1855	9.86938
1.186	10.0708
1.1865	17.22107
1.187	13.49487
1.1875	12.78992
1.188	17.32178
1.1885	16.71753
1.189	16.61682
1.1895	21.65222
1.19	5.13611
1.1905	3.8269
1.191	-0.40283
1.1915	5.53894
1.192	0.40283
1.1925	-11.2793
1.193	-7.04956
1.1935	2.21558
1.194	3.22266
1.1945	6.64673
1.195	7.95593
1.1955	5.53894
1.196	11.98425
1.1965	18.73169
1.197	30.41382
1.1975	26.3855
1.198	21.95435
1.1985	15.50903
1.199	7.45239
1.1995	2.5177
1.2	-4.12903
1.2005	-2.11487
1.201	-13.59558
1.2015	-13.49487
1.202	-18.02673
1.2025	-18.32886
1.203	-22.05505
1.2035	-4.93469
1.204	5.23682
1.2045	13.39417
1.205	10.77576
1.2055	8.7616
1.206	10.27222
1.2065	3.7262
1.207	1.61133
1.2075	-10.0708
1.208	-19.73877
1.2085	-17.22107
1.209	-24.67346
1.2095	-22.35718
1.21	-22.86072
1.2105	-21.14868
1.211	-15.91187
1.2115	-6.74744
1.212	-6.94885
1.2125	-6.54602
1.213	5.53894
1.2135	16.71753
1.214	20.1416
1.2145	22.6593
1.215	31.72302
1.2155	44.81506
1.216	45.72144
1.2165	49.44763
1.217	45.2179
1.2175	52.8717
1.218	61.23047
1.2185	60.4248
1.219	59.31702
1.2195	41.39099
1.22	30.91736
1.2205	19.33594
1.221	14.70337
1.2215	4.53186
1.222	-12.18567
1.2225	-5.53894
1.223	3.7262
1.2235	15.30762
1.224	26.98975
1.2245	34.34143
1.225	30.51453
1.2255	33.33435
1.226	20.84656
1.2265	12.89062
1.227	6.3446
1.2275	1.71204
1.228	-11.07788
1.2285	-21.75293
1.229	-41.39099
1.2295	-30.81665
1.23	-22.35718
1.2305	-16.11328
1.231	-16.51611
1.2315	-12.08496
1.232	-17.52319
1.2325	-21.24939
1.233	-26.68762
1.2335	-20.64514
1.234	-19.53735
1.2345	-6.14319
1.235	-9.26514
1.2355	-20.44373
1.236	-26.68762
1.2365	-26.88904
1.237	-27.89612
1.2375	-25.47913
1.238	-20.54443
1.2385	-14.19983
1.239	-10.0708
1.2395	-15.00549
1.24	-16.61682
1.2405	-21.55151
1.241	-19.43665
1.2415	-19.73877
1.242	-11.17859
1.2425	-10.77576
1.243	-16.21399
1.2435	-14.70337
1.244	-16.11328
1.2445	-13.29346
1.245	-6.84814
1.2455	1.10779
1.246	3.22266
1.2465	7.75452
1.247	7.5531
1.2475	7.45239
1.248	5.63965
1.2485	5.63965
1.249	15.81116
1.2495	19.33594
1.25	24.77417
1.2505	20.24231
1.251	20.84656
1.2515	19.83948
1.252	22.96143
1.2525	21.55151
1.253	17.42249
1.2535	16.21399
1.254	16.11328
1.2545	15.40833
1.255	35.14709
1.2555	44.31152
1.256	44.71436
1.2565	48.94409
1.257	40.88745
1.2575	34.74426
1.258	35.14709
1.2585	30.51453
1.259	16.91895
1.2595	10.0708
1.26	2.61841
1.2605	-8.96301
1.261	-7.15027
1.2615	-5.53894
1.262	-9.16443
1.2625	-15.00549
1.263	-13.09204
1.2635	-10.87646
1.264	-9.76868
1.2645	-8.25806
1.265	-12.68921
1.2655	-7.15027
1.266	1.81274
1.2665	9.86938
1.267	13.69629
1.2675	15.30762
1.268	12.28638
1.2685	12.5885
1.269	9.86938
1.2695	10.27222
1.27	13.09204
1.2705	11.78284
1.271	17.22107
1.2715	37.16125
1.272	53.57666
1.2725	59.21631
1.273	49.0448
1.2735	43.10303
1.274	29.50745
1.2745	18.22815
1.275	-0.10071
1.2755	-9.06372
1.276	-20.84656
1.2765	-32.22656
1.277	-29.70886
1.2775	-34.74426
1.278	-20.94727
1.2785	-20.34302
1.279	-14.60266
1.2795	-5.23682
1.28	-0.60425
1.2805	4.12903
1.281	0.60425
1.2815	-2.5177
1.282	2.61841
1.2825	4.83398
1.283	13.49487
1.2835	11.88354
1.284	12.18567
1.2845	12.18567
1.285	4.22974
1.2855	1.10779
1.286	-3.92761
1.2865	1.91345
1.287	-2.21558
1.2875	7.5531
1.288	14.50195
1.2885	11.98425
1.289	15.20691
1.2895	11.2793
1.29	10.17151
1.2905	13.09204
1.291	7.65381
1.2915	11.17859
1.292	9.26514
1.2925	4.83398
1.293	16.91895
1.2935	19.13452
1.294	24.47205
1.2945	22.96143
1.295	22.86072
1.2955	15.30762
1.296	15.1062
1.2965	17.42249
1.297	20.64514
1.2975	25.07629
1.298	19.33594
1.2985	17.52319
1.299	20.04089
1.2995	19.94019
1.3	15.60974
1.3005	9.97009
1.301	4.63257
1.3015	-0.20142
1.302	4.53186
1.3025	-2.81982
1.303	-1.2085
1.3035	-2.5177
1.304	1.71204
1.3045	12.68921
1.305	11.78284
1.3055	8.56018
1.306	7.25098
1.3065	3.8269
1.307	-3.12195
1.3075	0.20142
1.308	-2.5177
1.3085	5.53894
1.309	3.8269
1.3095	15.50903
1.31	16.01257
1.3105	17.82532
1.311	8.45947
1.3115	16.61682
1.312	4.22974
1.3125	3.52478
1.313	0.80566
1.3135	-5.43823
1.314	-12.5885
1.3145	-7.95593
1.315	-5.0354
1.3155	6.54602
1.316	18.93311
1.3165	22.6593
1.317	31.82373
1.3175	35.85205
1.318	29.91028
1.3185	31.11877
1.319	28.19824
1.3195	20.94727
1.32	11.48071
1.3205	-0.20142
1.321	-0.20142
1.3215	1.71204
1.322	-7.35168
1.3225	0.10071
1.323	11.98425
1.3235	18.12744
1.324	19.53735
1.3245	23.8678
1.325	22.15576
1.3255	26.28479
1.326	36.75842
1.3265	32.02515
1.327	34.24072
1.3275	44.81506
1.328	34.84497
1.3285	33.43506
1.329	13.29346
1.3295	-2.11487
1.33	-4.73328
1.3305	-0.90637
1.331	-1.00708
1.3315	-0.20142
1.332	-6.14319
1.3325	-12.18567
1.333	-21.24939
1.3335	-17.92603
1.334	-20.34302
1.3345	-26.98975
1.335	-26.68762
1.3355	-23.26355
1.336	-19.63806
1.3365	-25.37842
1.337	-21.75293
1.3375	-15.71045
1.338	-18.32886
1.3385	-7.65381
1.339	-6.04248
1.3395	-5.0354
1.34	-8.45947
1.3405	-9.46655
1.341	-2.61841
1.3415	9.36584
1.342	4.33044
1.3425	2.11487
1.343	9.76868
1.3435	9.46655
1.344	13.49487
1.3445	19.13452
1.345	18.53027
1.3455	11.48071
1.346	9.26514
1.3465	13.29346
1.347	29.80957
1.3475	49.54834
1.348	68.78357
1.3485	68.58215
1.349	62.64038
1.3495	57.10144
1.35	43.30444
1.3505	42.09595
1.351	35.54993
1.3515	30.81665
1.352	24.67346
1.3525	16.01257
1.353	21.85364
1.3535	25.88196
1.354	24.77417
1.3545	24.67346
1.355	24.87488
1.3555	29.60815
1.356	31.62231
1.3565	32.93152
1.357	25.37842
1.3575	15.00549
1.358	7.85522
1.3585	-7.15027
1.359	-5.63965
1.3595	-10.97717
1.36	-34.34143
1.3605	-49.95117
1.361	-59.71985
1.3615	-62.9425
1.362	-57.60498
1.3625	-57.20215
1.363	-49.0448
1.3635	-48.23914
1.364	-39.17542
1.3645	-35.2478
1.365	-30.91736
1.3655	-23.36426
1.366	-17.52319
1.3665	-17.92603
1.367	-12.78992
1.3675	-7.85522
1.368	2.92053
1.3685	11.48071
1.369	11.07788
1.3695	15.91187
1.37	15.00549
1.3705	8.15735
1.371	8.15735
1.3715	7.75452
1.372	11.17859
1.3725	7.95593
1.373	1.61133
1.3735	13.19275
1.374	22.15576
1.3745	22.86072
1.375	18.63098
1.3755	11.48071
1.376	7.85522
1.3765	6.64673
1.377	8.05664
1.3775	16.3147
1.378	20.84656
1.3785	24.97559
1.379	21.95435
1.3795	18.73169
1.38	24.37134
1.3805	20.64514
1.381	22.05505
1.3815	24.67346
1.382	23.46497
1.3825	31.72302
1.383	36.25488
1.3835	34.44214
1.384	40.2832
1.3845	42.49878
1.385	45.01648
1.3855	46.42639
1.386	35.75134
1.3865	22.45789
1.387	16.61682
1.3875	16.81824
1.388	17.12036
1.3885	26.68762
1.389	27.29187
1.3895	23.36426
1.39	22.55859
1.3905	9.97009
1.391	6.04248
1.3915	9.66797
1.392	4.83398
1.3925	2.61841
1.393	13.09204
1.3935	19.73877
1.394	22.05505
1.3945	17.52319
1.395	22.15576
1.3955	7.65381
1.396	1.61133
1.3965	-4.12903
1.397	-11.2793
1.3975	-30.11169
1.398	-26.3855
1.3985	-10.57434
1.399	-2.81982
1.3995	0.50354
1.4	-2.71912
1.4005	-8.56018
1.401	-10.47363
1.4015	-12.48779
1.402	-15.00549
1.4025	-25.98267
1.403	-33.13293
1.4035	-38.87329
1.404	-32.32727
1.4045	-32.52869
1.405	-35.75134
1.4055	-34.64355
1.406	-35.14709
1.4065	-34.74426
1.407	-35.44922
1.4075	-34.54285
1.408	-29.50745
1.4085	-30.41382
1.409	-30.41382
1.4095	-26.48621
1.41	-21.75293
1.4105	-18.73169
1.411	-11.58142
1.4115	-13.69629
1.412	-17.12036
1.4125	-15.30762
1.413	-14.19983
1.4135	-17.42249
1.414	-3.62549
1.4145	4.12903
1.415	9.36584
1.4155	16.01257
1.416	21.85364
1.4165	20.04089
1.417	24.57275
1.4175	34.03931
1.418	47.13135
1.4185	69.48853
1.419	79.2572
1.4195	78.14941
1.42	66.46729
1.4205	52.8717
1.421	34.14001
1.4215	17.01965
1.422	4.02832
1.4225	-9.97009
1.423	-23.16284
1.4235	-25.68054
1.424	-29.60815
1.4245	-30.51453
1.425	-26.3855
1.4255	-14.80408
1.426	-11.68213
1.4265	-3.22266
1.427	-4.33044
1.4275	5.33752
1.428	12.18567
1.4285	16.11328
1.429	15.71045
1.4295	25.07629
1.43	23.96851
1.4305	25.27771
1.431	15.20691
1.4315	4.93469
1.432	4.22974
1.4325	-9.66797
1.433	-21.45081
1.4335	-31.62231
1.434	-31.52161
1.4345	-22.55859
1.435	-23.76709
1.4355	-18.12744
1.436	-15.60974
1.4365	-17.12036
1.437	-4.12903
1.4375	0.40283
1.438	3.42407
1.4385	5.0354
1.439	4.93469
1.4395	6.54602
1.44	5.13611
1.4405	16.51611
1.441	17.92603
1.4415	27.19116
1.442	41.59241
1.4425	47.33276
1.443	54.58374
1.4435	63.14392
1.444	70.69702
1.4445	70.79773
1.445	63.34534
1.4455	53.87878
1.446	40.1825
1.4465	31.82373
1.447	14.50195
1.4475	-5.53894
1.448	-16.61682
1.4485	-20.1416
1.449	-30.2124
1.4495	-29.60815
1.45	-29.60815
1.4505	-24.67346
1.451	-22.45789
1.4515	-26.88904
1.452	-16.71753
1.4525	-10.27222
1.453	-9.16443
1.4535	-0.90637
1.454	7.25098
1.4545	11.88354
1.455	7.45239
1.4555	10.57434
1.456	10.47363
1.4565	10.57434
1.457	18.42957
1.4575	32.02515
1.458	35.75134
1.4585	38.974
1.459	42.7002
1.4595	52.56958
1.46	58.41064
1.4605	62.43896
1.461	48.94409
1.4615	30.2124
1.462	18.93311
1.4625	7.65381
1.463	-9.56726
1.4635	-16.51611
1.464	-15.00549
1.4645	-10.67505
1.465	-14.80408
1.4655	-23.46497
1.466	-23.66638
1.4665	-17.52319
1.467	-3.8269
1.4675	0.60425
1.468	0.90637
1.4685	-3.92761
1.469	-5.53894
1.4695	1.51062
1.47	2.71912
1.4705	9.26514
1.471	2.01416
1.4715	0.60425
1.472	1.91345
1.4725	4.83398
1.473	3.52478
1.4735	-2.21558
1.474	-5.23682
1.4745	-2.5177
1.475	0.20142
1.4755	-7.5531
1.476	-5.74036
1.4765	-6.94885
1.477	-8.96301
1.4775	-11.17859
1.478	-12.48779
1.4785	-17.32178
1.479	-17.32178
1.4795	-16.11328
1.48	-24.27063
1.4805	-23.66638
1.481	-23.8678
1.4815	-25.07629
1.482	-21.04797
1.4825	-20.74585
1.483	-9.36584
1.4835	-7.15027
1.484	0.20142
1.4845	18.02673
1.485	27.39258
1.4855	33.23364
1.486	31.62231
1.4865	27.59399
1.487	28.80249
1.4875	24.87488
1.488	20.1416
1.4885	16.51611
1.489	14.19983
1.4895	12.89062
1.49	13.797
1.4905	26.68762
1.491	38.87329
1.4915	47.93701
1.492	52.97241
1.4925	52.771
1.493	36.25488
1.4935	26.98975
1.494	11.38
1.4945	15.1062
1.495	2.61841
1.4955	-2.81982
1.496	-9.56726
1.4965	-10.47363
1.497	-11.58142
1.4975	-3.92761
1.498	-3.42407
1.4985	-4.02832
1.499	-1.10779
1.4995	7.15027
1.5	24.77417
1.5005	42.19666
1.501	43.60657
1.5015	38.974
1.502	34.14001
1.5025	43.00232
1.503	34.54285
1.5035	25.27771
1.504	4.63257
1.5045	-11.48071
1.505	-13.09204
1.5055	-16.71753
1.506	-27.09045
1.5065	-27.09045
1.507	-33.83789
1.5075	-38.06763
1.508	-41.99524
1.5085	-43.40515
1.509	-32.42798
1.5095	-23.66638
1.51	-10.87646
1.5105	-11.38
1.511	-3.42407
1.5115	1.71204
1.512	4.43115
1.5125	2.81982
1.513	-3.02124
1.5135	-4.53186
1.514	-7.65381
1.5145	-5.84106
1.515	-9.06372
1.5155	-8.66089
1.516	-8.15735
1.5165	-2.61841
1.517	-2.31628
1.5175	-6.54602
1.518	-7.15027
1.5185	4.02832
1.519	-3.8269
1.5195	-2.71912
1.52	-3.62549
1.5205	-7.35168
1.521	-2.5177
1.5215	-2.5177
1.522	0.10071
1.5225	2.01416
1.523	8.35876
1.5235	8.56018
1.524	14.09912
1.5245	13.797
1.525	24.57275
1.5255	35.14709
1.526	48.44055
1.5265	59.61914
1.527	65.86304
1.5275	63.24463
1.528	51.86462
1.5285	37.86621
1.529	30.51453
1.5295	20.24231
1.53	20.24231
1.5305	18.73169
1.531	13.39417
1.5315	2.11487
1.532	-8.8623
1.5325	-13.49487
1.533	-13.99841
1.5335	-8.8623
1.534	-18.42957
1.5345	-21.55151
1.535	-26.18408
1.5355	-23.66638
1.536	-25.88196
1.5365	-23.06213
1.537	-18.22815
1.5375	-14.09912
1.538	-2.11487
1.5385	-3.92761
1.539	-6.94885
1.5395	-10.97717
1.54	-16.11328
1.5405	-2.31628
1.541	-5.13611
1.5415	6.04248
1.542	29.80957
1.5425	21.75293
1.543	21.95435
1.5435	26.58691
1.544	27.59399
1.5445	22.35718
1.545	23.56567
1.5455	21.24939
1.546	24.37134
1.5465	27.6947
1.547	21.55151
1.5475	19.23523
1.548	12.5885
1.5485	9.36584
1.549	4.02832
1.5495	5.94177
1.55	9.06372
1.5505	14.09912
1.551	30.2124
1.5515	56.90002
1.552	80.86853
1.5525	91.94641
1.553	89.22729
1.5535	70.89844
1.554	51.26038
1.5545	34.03931
1.555	12.78992
1.5555	-8.96301
1.556	-27.59399
1.5565	-41.79382
1.557	-43.40515
1.5575	-47.23206
1.558	-47.23206
1.5585	-42.49878
1.559	-38.87329
1.5595	-40.2832
1.56	-29.30603
1.5605	-23.46497
1.561	-19.43665
1.5615	-13.19275
1.562	-4.43115
1.5625	2.5177
1.563	2.21558
1.5635	6.94885
1.564	5.33752
1.5645	-3.32336
1.565	-4.12903
1.5655	-9.16443
1.566	-15.81116
1.5665	-16.11328
1.567	-16.41541
1.5675	-20.44373
1.568	-18.42957
1.5685	-16.81824
1.569	-15.60974
1.5695	-7.04956
1.57	-9.86938
1.5705	1.3092
1.571	-6.04248
1.5715	-3.32336
1.572	-11.98425
1.5725	-6.44531
1.573	-8.05664
1.5735	-2.5177
1.574	-0.40283
1.5745	0.20142
1.575	14.50195
1.5755	29.40674
1.576	38.06763
1.5765	42.90161
1.577	53.67737
1.5775	53.87878
1.578	51.15967
1.5785	45.01648
1.579	38.974
1.5795	30.41382
1.58	22.15576
1.5805	20.34302
1.581	21.04797
1.5815	16.91895
1.582	11.48071
1.5825	1.81274
1.583	-4.63257
1.5835	-8.8623
1.584	-3.8269
1.5845	-10.77576
1.585	-17.12036
1.5855	-16.41541
1.586	-11.78284
1.5865	-13.39417
1.587	-11.2793
1.5875	-11.2793
1.588	-17.52319
1.5885	-18.22815
1.589	-19.94019
1.5895	-19.43665
1.59	-13.99841
1.5905	6.74744
1.591	22.05505
1.5915	40.38391
1.592	37.36267
1.5925	42.49878
1.593	49.14551
1.5935	49.24622
1.594	42.29736
1.5945	28.60107
1.595	15.20691
1.5955	15.40833
1.596	8.15735
1.5965	-2.81982
1.597	-5.53894
1.5975	-20.84656
1.598	-25.78125
1.5985	-20.94727
1.599	-26.58691
1.5995	-30.41382
1.6	-27.19116
1.6005	-26.18408
1.601	-22.45789
1.6015	-12.48779
1.602	-12.28638
1.6025	-2.21558
1.603	1.61133
1.6035	6.64673
1.604	12.28638
1.6045	12.99133
1.605	16.21399
1.6055	8.56018
1.606	9.26514
1.6065	13.89771
1.607	7.35168
1.6075	15.00549
1.608	11.98425
1.6085	13.797
1.609	12.38708
1.6095	5.94177
1.61	8.56018
1.6105	3.02124
1.611	-1.91345
1.6115	-10.47363
1.612	-10.0708
1.6125	-15.30762
1.613	-13.59558
1.6135	-9.97009
1.614	-6.3446
1.6145	1.10779
1.615	25.37842
1.6155	41.99524
1.616	40.68604
1.6165	38.26904
1.617	34.24072
1.6175	25.177
1.618	17.92603
1.6185	19.73877
1.619	4.33044
1.6195	-2.31628
1.62	-2.31628
1.6205	6.2439
1.621	0.30212
1.6215	2.21558
1.622	12.18567
1.6225	24.06921
1.623	30.61523
1.6235	36.35559
1.624	45.62073
1.6245	51.76392
1.625	57.70569
1.6255	56.79932
1.626	56.79932
1.6265	45.92285
1.627	39.57825
1.6275	33.03223
1.628	24.57275
1.6285	13.19275
1.629	4.73328
1.6295	-3.7262
1.63	-12.18567
1.6305	-15.1062
1.631	-15.81116
1.6315	-11.58142
1.632	-11.78284
1.6325	-7.65381
1.633	-5.23682
1.6335	-1.81274
1.634	-7.25098
1.6345	-6.44531
1.635	-3.92761
1.6355	-7.35168
1.636	-5.94177
1.6365	-3.52478
1.637	-12.48779
1.6375	-21.75293
1.638	-21.95435
1.6385	-13.89771
1.639	-8.8623
1.6395	-5.94177
1.64	-1.3092
1.6405	2.01416
1.641	2.11487
1.6415	2.21558
1.642	-2.11487
1.6425	-5.94177
1.643	-2.61841
1.6435	-2.61841
1.644	-1.2085
1.6445	0.30212
1.645	6.14319
1.6455	8.56018
1.646	3.8269
1.6465	6.74744
1.647	10.37292
1.6475	4.02832
1.648	0.40283
1.6485	-4.43115
1.649	-6.74744
1.6495	-12.68921
1.65	-16.01257
1.6505	-14.40125
1.651	-12.99133
1.6515	-7.45239
1.652	-4.63257
1.6525	-7.35168
1.653	-4.02832
1.6535	1.81274
1.654	12.78992
1.6545	22.35718
1.655	30.01099
1.6555	36.4563
1.656	39.07471
1.6565	29.30603
1.657	17.32178
1.6575	3.8269
1.658	-7.15027
1.6585	-5.0354
1.659	-11.68213
1.6595	-12.08496
1.66	-17.12036
1.6605	-19.43665
1.661	-22.86072
1.6615	-25.27771
1.662	-16.51611
1.6625	-15.91187
1.663	-13.797
1.6635	-10.37292
1.664	6.3446
1.6645	34.14001
1.665	65.76233
1.6655	93.15491
1.666	90.93933
1.6665	90.03296
1.667	83.99048
1.6675	70.79773
1.668	50.45471
1.6685	34.64355
1.669	10.97717
1.6695	-8.25806
1.67	-23.76709
1.6705	-26.08337
1.671	-26.18408
1.6715	-23.56567
1.672	-21.45081
1.6725	-12.68921
1.673	-3.12195
1.6735	0.90637
1.674	5.23682
1.6745	1.2085
1.675	-2.71912
1.6755	8.35876
1.676	28.29895
1.6765	32.42798
1.677	32.02515
1.6775	29.40674
1.678	14.09912
1.6785	2.21558
1.679	-2.31628
1.6795	-22.05505
1.68	-31.21948
1.6805	-32.52869
1.681	-33.13293
1.6815	-35.54993
1.682	-36.75842
1.6825	-33.9386
1.683	-35.85205
1.6835	-34.44214
1.684	-18.53027
1.6845	-17.82532
1.685	-8.35876
1.6855	-7.75452
1.686	1.3092
1.6865	1.51062
1.687	12.38708
1.6875	12.18567
1.688	18.22815
1.6885	12.89062
1.689	10.97717
1.6895	10.47363
1.69	9.06372
1.6905	10.0708
1.691	13.49487
1.6915	15.71045
1.692	18.73169
1.6925	20.94727
1.693	15.40833
1.6935	13.49487
1.694	15.50903
1.6945	8.25806
1.695	9.16443
1.6955	18.53027
1.696	13.89771
1.6965	13.19275
1.697	8.35876
1.6975	8.05664
1.698	8.96301
1.6985	6.04248
1.699	13.09204
1.6995	18.63098
1.7	19.23523
1.7005	22.55859
1.701	12.38708
1.7015	11.48071
1.702	12.5885
1.7025	37.7655
1.703	60.52551
1.7035	67.57507
1.704	67.67578
1.7045	60.92834
1.705	60.62622
1.7055	43.70728
1.706	37.06055
1.7065	29.91028
1.707	27.09045
1.7075	21.75293
1.708	17.12036
1.7085	7.25098
1.709	-3.7262
1.7095	-12.99133
1.71	-24.87488
1.7105	-28.80249
1.711	-26.08337
1.7115	-35.75134
1.712	-37.26196
1.7125	-37.26196
1.713	-39.77966
1.7135	-42.09595
1.714	-39.47754
1.7145	-27.79541
1.715	-28.09753
1.7155	-25.57983
1.716	-17.42249
1.7165	-19.03381
1.717	-17.6239
1.7175	-21.75293
1.718	-25.37842
1.7185	-30.51453
1.719	-20.54443
1.7195	-21.75293
1.72	-21.04797
1.7205	-10.67505
1.721	4.83398
1.7215	18.22815
1.722	22.05505
1.7225	19.83948
1.723	17.32178
1.7235	8.96301
1.724	0.60425
1.7245	-6.64673
1.725	-18.63098
1.7255	-28.80249
1.726	-25.37842
1.7265	-25.47913
1.727	-24.67346
1.7275	-21.55151
1.728	-23.46497
1.7285	-22.35718
1.729	-18.12744
1.7295	-14.09912
1.73	-12.48779
1.7305	-10.77576
1.731	-6.3446
1.7315	1.2085
1.732	8.66089
1.7325	14.70337
1.733	7.35168
1.7335	5.23682
1.734	6.74744
1.7345	7.65381
1.735	6.84814
1.7355	8.35876
1.736	11.38
1.7365	6.3446
1.737	9.46655
1.7375	9.76868
1.738	10.87646
1.7385	18.02673
1.739	11.78284
1.7395	12.99133
1.74	19.13452
1.7405	17.92603
1.741	24.37134
1.7415	23.06213
1.742	25.27771
1.7425	21.55151
1.743	21.45081
1.7435	25.68054
1.744	41.4917
1.7445	50.85754
1.745	54.68445
1.7455	68.68286
1.746	76.33667
1.7465	82.07703
1.747	67.97791
1.7475	56.79932
1.748	42.7002
1.7485	29.91028
1.749	22.96143
1.7495	13.39417
1.75	-5.74036
1.7505	-16.91895
1.751	-23.26355
1.7515	-21.95435
1.752	-19.83948
1.7525	-24.57275
1.753	-22.55859
1.7535	-20.34302
1.754	-24.67346
1.7545	-16.41541
1.755	-11.17859
1.7555	5.23682
1.756	6.94885
1.7565	15.91187
1.757	13.19275
1.7575	16.21399
1.758	14.60266
1.7585	11.68213
1.759	3.92761
1.7595	1.51062
1.76	-0.80566
1.7605	13.09204
1.761	40.1825
1.7615	65.15808
1.762	64.85596
1.7625	63.04321
1.763	55.08728
1.7635	35.14709
1.764	22.05505
1.7645	7.45239
1.765	-7.04956
1.7655	-21.95435
1.766	-29.30603
1.7665	-37.56409
1.767	-42.59949
1.7675	-44.31152
1.768	-49.74976
1.7685	-51.5625
1.769	-46.02356
1.7695	-39.88037
1.77	-31.82373
1.7705	-29.91028
1.771	-25.98267
1.7715	-25.68054
1.772	-15.91187
1.7725	0.90637
1.773	13.69629
1.7735	11.68213
1.774	9.16443
1.7745	21.95435
1.775	26.08337
1.7755	30.11169
1.776	24.57275
1.7765	24.77417
1.777	19.13452
1.7775	14.09912
1.778	1.71204
1.7785	-4.43115
1.779	-10.87646
1.7795	-18.8324
1.78	-11.07788
1.7805	-7.95593
1.781	-0.20142
1.7815	0
1.782	5.53894
1.7825	9.66797
1.783	13.19275
1.7835	13.59558
1.784	16.91895
1.7845	16.61682
1.785	10.0708
1.7855	10.57434
1.786	7.35168
1.7865	31.21948
1.787	49.85046
1.7875	58.30994
1.788	62.43896
1.7885	58.91418
1.789	47.03064
1.7895	30.2124
1.79	25.47913
1.7905	6.14319
1.791	-5.63965
1.7915	-20.04089
1.792	-25.47913
1.7925	-14.70337
1.793	-12.48779
1.7935	-11.48071
1.794	-14.30054
1.7945	-17.12036
1.795	-17.12036
1.7955	-25.98267
1.796	-24.97559
1.7965	-28.39966
1.797	-30.11169
1.7975	-23.06213
1.798	-20.94727
1.7985	-19.83948
1.799	-14.60266
1.7995	-11.68213
1.8	-12.38708
1.8005	-8.7616
1.801	-13.29346
1.8015	-3.7262
1.802	-11.58142
1.8025	1.81274
1.803	12.48779
1.8035	30.41382
1.804	42.59949
1.8045	46.42639
1.805	37.36267
1.8055	31.01807
1.806	17.92603
1.8065	19.43665
1.807	11.38
1.8075	0.50354
1.808	-1.81274
1.8085	6.94885
1.809	22.76001
1.8095	34.64355
1.81	47.63489
1.8105	54.88586
1.811	53.67737
1.8115	61.6333
1.812	69.89136
1.8125	69.48853
1.813	51.66321
1.8135	34.24072
1.814	23.56567
1.8145	13.89771
1.815	-2.01416
1.8155	-13.19275
1.816	-22.96143
1.8165	-36.4563
1.817	-49.85046
1.8175	-49.0448
1.818	-45.72144
1.8185	-42.19666
1.819	-47.43347
1.8195	-38.47046
1.82	-27.49329
1.8205	-12.89062
1.821	-10.17151
1.8215	-9.16443
1.822	-7.95593
1.8225	-3.7262
1.823	-9.86938
1.8235	-9.46655
1.824	-10.17151
1.8245	-13.09204
1.825	-12.99133
1.8255	-18.02673
1.826	-18.12744
1.8265	-7.85522
1.827	6.84814
1.8275	14.30054
1.828	19.23523
1.8285	24.47205
1.829	23.26355
1.8295	20.54443
1.83	17.72461
1.8305	19.13452
1.831	16.81824
1.8315	9.46655
1.832	10.87646
1.8325	19.53735
1.833	18.22815
1.8335	10.27222
1.834	10.97717
1.8345	19.23523
1.835	20.1416
1.8355	21.95435
1.836	24.97559
1.8365	17.12036
1.837	16.61682
1.8375	5.94177
1.838	8.8623
1.8385	4.22974
1.839	1.40991
1.8395	3.02124
1.84	5.43823
1.8405	9.06372
1.841	6.14319
1.8415	2.81982
1.842	-1.81274
1.8425	1.10779
1.843	7.5531
1.8435	6.2439
1.844	7.75452
1.8445	2.5177
1.845	0.30212
1.8455	-1.40991
1.846	-4.43115
1.8465	-0.30212
1.847	-5.53894
1.8475	-1.91345
1.848	-3.92761
1.8485	-2.21558
1.849	9.16443
1.8495	31.01807
1.85	45.01648
1.8505	55.99365
1.851	57.00073
1.8515	53.77808
1.852	40.08179
1.8525	22.55859
1.853	14.90479
1.8535	-5.23682
1.854	-24.87488
1.8545	-36.25488
1.855	-46.92993
1.8555	-47.93701
1.856	-42.49878
1.8565	-38.67188
1.857	-32.02515
1.8575	-29.20532
1.858	-22.45789
1.8585	-18.53027
1.859	-16.01257
1.8595	-4.73328
1.86	2.81982
1.8605	8.05664
1.861	12.68921
1.8615	14.19983
1.862	14.60266
1.8625	8.35876
1.863	2.11487
1.8635	0
1.864	-1.51062
1.8645	-0.40283
1.865	4.12903
1.8655	10.27222
1.866	15.60974
1.8665	18.12744
1.867	34.34143
1.8675	48.13843
1.868	44.71436
1.8685	41.69312
1.869	36.55701
1.8695	32.02515
1.87	29.91028
1.8705	26.78833
1.871	8.56018
1.8715	1.40991
1.872	-10.17151
1.8725	-8.7616
1.873	-3.92761
1.8735	-9.86938
1.874	-7.5531
1.8745	-3.62549
1.875	9.56726
1.8755	20.74585
1.876	25.68054
1.8765	31.32019
1.877	30.41382
1.8775	29.00391
1.878	34.03931
1.8785	42.8009
1.879	43.60657
1.8795	36.4563
1.88	30.71594
1.8805	33.53577
1.881	30.61523
1.8815	20.24231
1.882	14.70337
1.8825	1.40991
1.883	-10.0708
1.8835	-17.92603
1.884	-25.78125
1.8845	-35.75134
1.885	-35.2478
1.8855	-24.37134
1.886	-22.25647
1.8865	-8.96301
1.887	13.39417
1.8875	36.4563
1.888	43.40515
1.8885	42.29736
1.889	31.52161
1.8895	22.55859
1.89	6.74744
1.8905	3.8269
1.891	8.96301
1.8915	6.74744
1.892	6.54602
1.8925	-5.53894
1.893	-9.26514
1.8935	-20.74585
1.894	-19.23523
1.8945	-25.68054
1.895	-32.7301
1.8955	-31.11877
1.896	-41.08887
1.8965	-43.30444
1.897	-35.54993
1.8975	-33.43506
1.898	-30.31311
1.8985	-24.27063
1.899	-13.99841
1.8995	-6.94885
1.9	-1.00708
1.9005	5.53894
1.901	8.96301
1.9015	13.09204
1.902	11.78284
1.9025	6.74744
1.903	7.15027
1.9035	5.84106
1.904	2.01416
1.9045	10.97717
1.905	4.73328
1.9055	3.02124
1.906	5.84106
1.9065	2.71912
1.907	-0.20142
1.9075	1.91345
1.908	10.17151
1.9085	8.35876
1.909	15.40833
1.9095	20.24231
1.91	25.07629
1.9105	31.01807
1.911	34.54285
1.9115	37.96692
1.912	27.89612
1.9125	25.177
1.913	14.30054
1.9135	3.62549
1.914	-6.04248
1.9145	-17.12036
1.915	-23.96851
1.9155	-22.76001
1.916	-26.58691
1.9165	-22.45789
1.917	-18.53027
1.9175	-19.63806
1.918	-10.67505
1.9185	-2.11487
1.919	2.41699
1.9195	18.53027
1.92	30.2124
1.9205	45.92285
1.921	51.46179
1.9215	46.92993
1.922	47.03064
1.9225	37.66479
1.923	36.25488
1.9235	35.44922
1.924	37.66479
1.9245	43.70728
1.925	46.12427
1.9255	41.4917
1.926	23.66638
1.9265	18.02673
1.927	14.80408
1.9275	12.08496
1.928	4.93469
1.9285	-5.33752
1.929	-9.16443
1.9295	-12.5885
1.93	-12.28638
1.9305	-12.99133
1.931	-11.88354
1.9315	-9.66797
1.932	-13.59558
1.9325	-10.47363
1.933	-5.13611
1.9335	-1.3092
1.934	-2.61841
1.9345	-5.84106
1.935	-2.5177
1.9355	-9.06372
1.936	-5.74036
1.9365	-6.84814
1.937	0
1.9375	-1.81274
1.938	-4.63257
1.9385	-12.78992
1.939	-12.89062
1.9395	-17.72461
1.94	-14.80408
1.9405	-13.09204
1.941	-3.02124
1.9415	-5.0354
1.942	4.43115
1.9425	7.5531
1.943	4.83398
1.9435	9.56726
1.944	6.74744
1.9445	17.6239
1.945	28.70178
1.9455	35.54993
1.946	34.74426
1.9465	28.50037
1.947	23.36426
1.9475	16.11328
1.948	5.33752
1.9485	-1.71204
1.949	-8.15735
1.9495	-11.48071
1.95	-14.60266
1.9505	-12.38708
1.951	-14.30054
1.9515	-13.19275
1.952	-15.20691
1.9525	-10.87646
1.953	-5.43823
1.9535	2.01416
1.954	8.96301
1.9545	7.25098
1.955	21.04797
1.9555	16.61682
1.956	11.68213
1.9565	17.82532
1.957	21.55151
1.9575	17.01965
1.958	15.40833
1.9585	14.90479
1.959	11.48071
1.9595	21.85364
1.96	37.56409
1.9605	54.68445
1.961	80.26428
1.9615	74.42322
1.962	73.21472
1.9625	55.18799
1.963	43.10303
1.9635	31.52161
1.964	31.52161
1.9645	9.06372
1.965	0.40283
1.9655	-5.43823
1.966	-1.71204
1.9665	-16.91895
1.967	-16.71753
1.9675	-22.6593
1.968	-21.45081
1.9685	-23.26355
1.969	-25.07629
1.9695	-24.06921
1.97	-21.65222
1.9705	-18.63098
1.971	-15.40833
1.9715	-11.2793
1.972	-5.94177
1.9725	2.5177
1.973	12.89062
1.9735	21.55151
1.974	16.51611
1.9745	19.03381
1.975	18.53027
1.9755	25.88196
1.976	24.16992
1.9765	29.20532
1.977	21.3501
1.9775	9.16443
1.978	13.797
1.9785	26.48621
1.979	48.74268
1.9795	58.91418
1.98	53.37524
1.9805	46.02356
1.981	30.31311
1.9815	22.96143
1.982	10.77576
1.9825	-6.94885
1.983	-20.24231
1.9835	-29.30603
1.984	-37.7655
1.9845	-45.11719
1.985	-44.31152
1.9855	-38.974
1.986	-23.76709
1.9865	-20.1416
1.987	-11.58142
1.9875	-7.75452
1.988	4.22974
1.9885	9.26514
1.989	13.69629
1.9895	10.47363
1.99	0.10071
1.9905	-8.66089
1.991	-15.20691
1.9915	-24.16992
1.992	-34.03931
1.9925	-48.84338
1.993	-60.92834
1.9935	-64.75525
1.994	-53.97949
1.9945	-42.19666
1.995	-21.45081
1.9955	4.63257
1.996	12.89062
1.9965	20.54443
1.997	20.34302
1.9975	25.07629
1.998	31.21948
1.9985	39.67896
1.999	41.79382
1.9995	47.53418
2	40.98816
2.0005	40.48462
2.001	34.54285
2.0015	20.64514
2.002	0.20142
2.0025	-13.49487
2.003	-15.50903
2.0035	-22.15576
2.004	-26.28479
2.0045	-23.16284
2.005	-19.94019
2.0055	-16.91895
2.006	-16.21399
2.0065	-20.24231
2.007	-22.25647
2.0075	-17.82532
2.008	-22.05505
2.0085	-16.41541
2.009	-11.98425
2.0095	-16.91895
2.01	-18.02673
2.0105	-23.66638
2.011	-19.73877
2.0115	-13.69629
2.012	-6.44531
2.0125	-5.84106
2.013	-10.67505
2.0135	-7.04956
2.014	-7.95593
2.0145	-10.27222
2.015	-3.22266
2.0155	-5.74036
2.016	4.02832
2.0165	10.67505
2.017	11.98425
2.0175	14.50195
2.018	13.19275
2.0185	23.66638
2.019	27.19116
2.0195	24.27063
2.02	23.8678
2.0205	15.20691
2.021	12.08496
2.0215	9.06372
2.022	3.62549
2.0225	4.63257
2.023	-1.51062
2.0235	0.40283
2.024	3.62549
2.0245	8.05664
2.025	15.1062
2.0255	21.14868
2.026	17.12036
2.0265	22.55859
2.027	21.14868
2.0275	21.24939
2.028	15.81116
2.0285	17.01965
2.029	16.61682
2.0295	25.47913
2.03	24.77417
2.0305	30.51453
2.031	27.29187
2.0315	21.45081
2.032	15.20691
2.0325	18.93311
2.033	10.17151
2.0335	6.94885
2.034	9.36584
2.0345	17.01965
2.035	37.96692
2.0355	63.74817
2.036	68.07861
2.0365	60.02197
2.037	44.71436
2.0375	34.44214
2.038	24.37134
2.0385	15.60974
2.039	1.71204
2.0395	-15.20691
2.04	-28.50037
2.0405	-43.20374
2.041	-47.13135
2.0415	-37.86621
2.042	-40.38391
2.0425	-40.2832
2.043	-25.78125
2.0435	-24.37134
2.044	-22.86072
2.0445	-10.37292
2.045	9.26514
2.0455	26.28479
2.046	39.27612
2.0465	45.11719
2.047	41.89453
2.0475	32.83081
2.048	31.62231
2.0485	29.00391
2.049	32.32727
2.0495	34.14001
2.05	32.93152
2.0505	39.67896
2.051	27.39258
2.0515	30.61523
2.052	24.77417
2.0525	16.91895
2.053	11.07788
2.0535	3.62549
2.054	-1.10779
2.0545	-0.40283
2.055	-3.7262
2.0555	4.83398
2.056	8.66089
2.0565	8.15735
2.057	0.50354
2.0575	-7.5531
2.058	-10.67505
2.0585	-10.37292
2.059	10.77576
2.0595	33.33435
2.06	44.21082
2.0605	51.46179
2.061	58.81348
2.0615	67.17224
2.062	84.89685
2.0625	92.34924
2.063	88.52234
2.0635	86.00464
2.064	76.33667
2.0645	54.18091
2.065	33.33435
2.0655	12.18567
2.066	-13.29346
2.0665	-33.13293
2.067	-57.50427
2.0675	-63.04321
2.068	-78.35083
2.0685	-81.17065
2.069	-83.08411
2.0695	-84.39331
2.07	-79.05579
2.0705	-69.99207
2.071	-57.20215
2.0715	-50.05188
2.072	-43.10303
2.0725	-37.06055
2.073	-28.29895
2.0735	-21.75293
2.074	-22.25647
2.0745	-23.56567
2.075	-16.3147
2.0755	-17.82532
2.076	-18.12744
2.0765	-12.18567
2.077	-12.68921
2.0775	-16.41541
2.078	-4.83398
2.0785	0.80566
2.079	0.90637
2.0795	7.15027
2.08	10.67505
2.0805	13.89771
2.081	12.5885
2.0815	13.69629
2.082	16.21399
2.0825	12.18567
2.083	23.66638
2.0835	18.12744
2.084	15.30762
2.0845	14.40125
2.085	2.92053
2.0855	2.11487
2.086	7.85522
2.0865	8.15735
2.087	9.06372
2.0875	12.38708
2.088	14.30054
2.0885	13.797
2.089	19.13452
2.0895	16.61682
2.09	27.19116
2.0905	28.60107
2.091	30.51453
2.0915	27.99683
2.092	22.55859
2.0925	25.37842
2.093	32.12585
2.0935	30.2124
2.094	24.87488
2.0945	18.42957
2.095	11.48071
2.0955	37.46338
2.096	65.3595
2.0965	79.96216
2.097	80.76782
2.0975	78.65295
2.098	76.43738
2.0985	59.71985
2.099	36.85913
2.0995	20.94727
2.1	0.70496
2.1005	-17.32178
2.101	-29.80957
2.1015	-35.95276
2.102	-39.07471
2.1025	-42.49878
2.103	-42.59949
2.1035	-31.92444
2.104	-13.797
2.1045	-4.93469
2.105	0.80566
2.1055	2.01416
2.106	4.43115
2.1065	13.29346
2.107	16.61682
2.1075	15.60974
2.108	15.60974
2.1085	19.63806
2.109	11.17859
2.1095	19.13452
2.11	37.06055
2.1105	56.79932
2.111	74.02039
2.1115	74.62463
2.112	69.89136
2.1125	52.26746
2.113	34.24072
2.1135	10.17151
2.114	-8.45947
2.1145	-23.96851
2.115	-35.04639
2.1155	-49.34692
2.116	-59.01489
2.1165	-67.47437
2.117	-66.16516
2.1175	-50.05188
2.118	-46.42639
2.1185	-35.34851
2.119	-33.43506
2.1195	-28.09753
2.12	-19.13452
2.1205	-22.76001
2.121	-23.16284
2.1215	-17.82532
2.122	-17.32178
2.1225	-18.53027
2.123	-20.84656
2.1235	-24.37134
2.124	-25.57983
2.1245	-28.9032
2.125	-28.9032
2.1255	-31.32019
2.126	-21.95435
2.1265	-21.45081
2.127	-15.40833
2.1275	-8.35876
2.128	-3.22266
2.1285	0.80566
2.129	9.86938
2.1295	26.18408
2.13	35.04639
2.1305	41.4917
2.131	40.68604
2.1315	41.89453
2.132	39.17542
2.1325	32.22656
2.133	25.27771
2.1335	36.95984
2.134	35.44922
2.1345	28.09753
2.135	22.96143
2.1355	17.92603
2.136	11.07788
2.1365	0.30212
2.137	-3.22266
2.1375	-9.26514
2.138	-18.73169
2.1385	-25.37842
2.139	-23.06213
2.1395	-26.78833
2.14	-26.18408
2.1405	-12.99133
2.141	-0.10071
2.1415	18.12744
2.142	20.1416
2.1425	26.78833
2.143	19.73877
2.1435	8.8623
2.144	2.92053
2.1445	-1.71204
2.145	-4.12903
2.1455	-16.81824
2.146	-23.26355
2.1465	-22.05505
2.147	-21.65222
2.1475	-19.73877
2.148	-16.11328
2.1485	-9.06372
2.149	-10.77576
2.1495	-11.48071
2.15	-2.92053
2.1505	2.01416
2.151	7.5531
2.1515	10.47363
2.152	13.99841
2.1525	21.24939
2.153	18.02673
2.1535	11.68213
2.154	13.29346
2.1545	11.17859
2.155	15.1062
2.1555	23.56567
2.156	37.86621
2.1565	55.2887
2.157	74.62463
2.1575	77.74658
2.158	78.65295
2.1585	71.40198
2.159	58.71277
2.1595	50.05188
2.16	49.54834
2.1605	28.60107
2.161	18.32886
2.1615	0.70496
2.162	-3.02124
2.1625	-11.2793
2.163	-13.49487
2.1635	-15.50903
2.164	-8.25806
2.1645	-4.33044
2.165	-5.0354
2.1655	1.3092
2.166	3.8269
2.1665	25.07629
2.167	34.24072
2.1675	33.53577
2.168	32.93152
2.1685	22.76001
2.169	17.42249
2.1695	8.8623
2.17	0.40283
2.1705	11.78284
2.171	14.70337
2.1715	23.96851
2.172	19.33594
2.1725	21.3501
2.173	12.28638
2.1735	2.92053
2.174	-2.61841
2.1745	-1.61133
2.175	-1.3092
2.1755	-11.38
2.176	-16.71753
2.1765	-21.95435
2.177	-21.55151
2.1775	-17.01965
2.178	-1.2085
2.1785	3.62549
2.179	1.91345
2.1795	0.80566
2.18	-1.91345
2.1805	-3.52478
2.181	-1.40991
2.1815	-6.84814
2.182	-8.05664
2.1825	-6.14319
2.183	-12.38708
2.1835	-15.30762
2.184	-18.8324
2.1845	-22.86072
2.185	-29.60815
2.1855	-31.11877
2.186	-33.9386
2.1865	-34.74426
2.187	-43.90869
2.1875	-37.56409
2.188	-37.46338
2.1885	-34.54285
2.189	-26.98975
2.1895	-21.55151
2.19	-8.35876
2.1905	19.63806
2.191	35.54993
2.1915	43.10303
2.192	36.15417
2.1925	20.44373
2.193	10.97717
2.1935	5.0354
2.194	5.74036
2.1945	5.23682
2.195	5.74036
2.1955	12.48779
2.196	3.52478
2.1965	0.80566
2.197	-2.61841
2.1975	-14.19983
2.198	-15.71045
2.1985	-19.13452
2.199	-25.47913
2.1995	-17.01965
2.2	-14.70337
2.2005	-5.33752
2.201	3.12195
2.2015	6.64673
2.202	11.88354
2.2025	37.16125
2.203	69.08569
2.2035	94.56482
2.204	96.37756
2.2045	96.67969
2.205	83.88977
2.2055	65.3595
2.206	49.14551
2.2065	35.85205
2.207	11.2793
2.2075	-6.3446
2.208	-19.13452
2.2085	-27.19116
2.209	-15.81116
2.2095	-5.84106
2.21	-9.66797
2.2105	-4.63257
2.211	2.21558
2.2115	1.61133
2.212	0.90637
2.2125	-8.66089
2.213	-13.19275
2.2135	-15.20691
2.214	-25.47913
2.2145	-27.29187
2.215	-28.70178
2.2155	-25.78125
2.216	-19.94019
2.2165	-17.42249
2.217	-17.72461
2.2175	-18.12744
2.218	-20.94727
2.2185	-21.3501
2.219	-13.99841
2.2195	-10.67505
2.22	-10.47363
2.2205	-5.53894
2.221	-4.93469
2.2215	-4.02832
2.222	3.62549
2.2225	5.23682
2.223	11.38
2.2235	16.01257
2.224	21.45081
2.2245	19.83948
2.225	26.48621
2.2255	45.52002
2.226	50.2533
2.2265	62.64038
2.227	61.6333
2.2275	57.10144
2.228	55.59082
2.2285	43.60657
2.229	31.01807
2.2295	30.91736
2.23	34.14001
2.2305	35.44922
2.231	32.83081
2.2315	28.50037
2.232	19.43665
2.2325	17.52319
2.233	6.3446
2.2335	3.32336
2.234	-7.45239
2.2345	-10.67505
2.235	-14.50195
2.2355	-3.02124
2.236	0.20142
2.2365	-6.3446
2.237	-10.17151
2.2375	-7.35168
2.238	-6.54602
2.2385	-12.48779
2.239	-17.72461
2.2395	-22.15576
2.24	-21.04797
2.2405	-22.45789
2.241	-24.27063
2.2415	-17.01965
2.242	-9.66797
2.2425	-16.41541
2.243	-5.23682
2.2435	12.68921
2.244	23.76709
2.2445	23.8678
2.245	18.63098
2.2455	15.60974
2.246	16.21399
2.2465	28.50037
2.247	32.7301
2.2475	22.35718
2.248	9.56726
2.2485	6.44531
2.249	-1.51062
2.2495	-2.41699
2.25	-3.02124
2.2505	-5.63965
2.251	-7.65381
2.2515	-2.61841
2.252	12.48779
2.2525	28.50037
2.253	31.32019
2.2535	37.7655
2.254	42.19666
2.2545	48.44055
2.255	48.54126
2.2555	45.82214
2.256	46.92993
2.2565	51.15967
2.257	50.45471
2.2575	42.19666
2.258	27.89612
2.2585	14.30054
2.259	4.12903
2.2595	-5.74036
2.26	-12.28638
2.2605	-19.63806
2.261	-24.47205
2.2615	-26.28479
2.262	-28.29895
2.2625	-23.66638
2.263	-19.53735
2.2635	-10.67505
2.264	-4.53186
2.2645	2.11487
2.265	9.26514
2.2655	3.32336
2.266	2.31628
2.2665	5.74036
2.267	2.21558
2.2675	-3.02124
2.268	-8.7616
2.2685	-11.98425
2.269	-11.88354
2.2695	-16.91895
2.27	-21.45081
2.2705	-26.48621
2.271	-39.98108
2.2715	-46.32568
2.272	-39.17542
2.2725	-33.83789
2.273	-24.47205
2.2735	-22.35718
2.274	-28.50037
2.2745	-23.06213
2.275	-13.49487
2.2755	-7.75452
2.276	0.40283
2.2765	11.07788
2.277	16.91895
2.2775	17.52319
2.278	15.30762
2.2785	14.40125
2.279	24.97559
2.2795	46.92993
2.28	53.57666
2.2805	51.66321
2.281	52.16675
2.2815	43.90869
2.282	45.2179
2.2825	42.49878
2.283	37.7655
2.2835	27.89612
2.284	32.93152
2.2845	35.34851
2.285	35.34851
2.2855	28.39966
2.286	28.09753
2.2865	17.82532
2.287	5.94177
2.2875	5.23682
2.288	17.82532
2.2885	12.68921
2.289	22.15576
2.2895	14.60266
2.29	5.74036
2.2905	8.8623
2.291	6.54602
2.2915	4.63257
2.292	11.38
2.2925	11.98425
2.293	11.88354
2.2935	7.25098
2.294	37.16125
2.2945	46.42639
2.295	46.32568
2.2955	27.79541
2.296	22.86072
2.2965	10.67505
2.297	0.20142
2.2975	-12.18567
2.298	-24.16992
2.2985	-39.37683
2.299	-49.95117
2.2995	-54.68445
2.3	-57.70569
2.3005	-55.79224
2.301	-50.354
2.3015	-49.14551
2.302	-41.59241
2.3025	-24.57275
2.303	-24.47205
2.3035	-18.53027
2.304	-7.95593
2.3045	-2.01416
2.305	1.91345
2.3055	6.44531
2.306	12.18567
2.3065	3.52478
2.307	0.40283
2.3075	-0.80566
2.308	2.21558
2.3085	1.3092
2.309	3.32336
2.3095	4.33044
2.31	11.17859
2.3105	9.56726
2.311	10.37292
2.3115	9.26514
2.312	12.08496
2.3125	6.94885
2.313	9.86938
2.3135	11.2793
2.314	17.42249
2.3145	10.97717
2.315	10.87646
2.3155	17.92603
2.316	24.16992
2.3165	27.39258
2.317	39.37683
2.3175	50.85754
2.318	54.68445
2.3185	56.90002
2.319	45.01648
2.3195	41.39099
2.32	31.01807
2.3205	22.6593
2.321	9.76868
2.3215	7.75452
2.322	-5.23682
2.3225	-14.30054
2.323	-20.1416
2.3235	-16.11328
2.324	-13.29346
2.3245	-8.56018
2.325	-6.2439
2.3255	-8.25806
2.326	-6.84814
2.3265	-14.80408
2.327	-14.70337
2.3275	-14.60266
2.328	-12.5885
2.3285	-10.77576
2.329	-7.85522
2.3295	-4.53186
2.33	-1.91345
2.3305	0
2.331	6.54602
2.3315	10.17151
2.332	16.61682
2.3325	33.73718
2.333	50.65613
2.3335	59.01489
2.334	60.3241
2.3345	61.53259
2.335	60.52551
2.3355	66.87012
2.336	73.91968
2.3365	63.94958
2.337	53.57666
2.3375	38.47046
2.338	25.07629
2.3385	19.33594
2.339	13.29346
2.3395	9.46655
2.34	8.56018
2.3405	4.83398
2.341	-11.2793
2.3415	-17.12036
2.342	-21.24939
2.3425	-32.12585
2.343	-39.37683
2.3435	-45.2179
2.344	-48.54126
2.3445	-48.33984
2.345	-48.54126
2.3455	-42.39807
2.346	-31.01807
2.3465	-15.81116
2.347	11.98425
2.3475	26.98975
2.348	34.54285
2.3485	32.83081
2.349	27.49329
2.3495	23.36426
2.35	20.64514
2.3505	14.40125
2.351	21.14868
2.3515	36.85913
2.352	39.17542
2.3525	43.30444
2.353	35.14709
2.3535	26.3855
2.354	18.63098
2.3545	9.36584
2.355	-0.80566
2.3555	-16.11328
2.356	-36.65771
2.3565	-49.0448
2.357	-49.44763
2.3575	-35.85205
2.358	-19.03381
2.3585	-11.38
2.359	-7.35168
2.3595	-1.2085
2.36	-7.85522
2.3605	-9.86938
2.361	-15.60974
2.3615	-18.02673
2.362	-12.08496
2.3625	-2.41699
2.363	1.51062
2.3635	6.94885
2.364	0.80566
2.3645	-13.99841
2.365	-14.09912
2.3655	-8.56018
2.366	-18.32886
2.3665	-12.28638
2.367	-11.58142
2.3675	-12.5885
2.368	-14.60266
2.3685	-16.01257
2.369	-23.96851
2.3695	-22.76001
2.37	-29.50745
2.3705	-34.24072
2.371	-25.47913
2.3715	-12.18567
2.372	-7.75452
2.3725	3.62549
2.373	7.95593
2.3735	8.96301
2.374	7.85522
2.3745	14.80408
2.375	13.29346
2.3755	12.28638
2.376	7.85522
2.3765	9.66797
2.377	23.96851
2.3775	36.05347
2.378	36.25488
2.3785	33.73718
2.379	22.86072
2.3795	12.78992
2.38	3.32336
2.3805	-8.7616
2.381	-17.52319
2.3815	-22.05505
2.382	-29.50745
2.3825	-35.75134
2.383	-29.91028
2.3835	-25.88196
2.384	-15.30762
2.3845	-6.54602
2.385	-3.12195
2.3855	1.3092
2.386	5.0354
2.3865	8.8623
2.387	13.89771
2.3875	18.02673
2.388	19.23523
2.3885	22.6593
2.389	24.77417
2.3895	23.16284
2.39	19.94019
2.3905	18.53027
2.391	9.97009
2.3915	14.50195
2.392	15.20691
2.3925	34.14001
2.393	42.19666
2.3935	38.57117
2.394	36.4563
2.3945	30.91736
2.395	26.78833
2.3955	20.1416
2.396	15.91187
2.3965	14.30054
2.397	9.76868
2.3975	8.96301
2.398	1.10779
2.3985	3.42407
2.399	4.43115
2.3995	4.33044
2.4	7.95593
2.4005	3.22266
2.401	29.60815
2.4015	48.13843
2.402	53.77808
2.4025	56.49719
2.403	57.60498
2.4035	51.96533
2.404	45.11719
2.4045	38.974
2.405	30.71594
2.4055	26.08337
2.406	18.8324
2.4065	21.95435
2.407	11.17859
2.4075	15.00549
2.408	12.99133
2.4085	12.78992
2.409	14.19983
2.4095	10.97717
2.41	10.27222
2.4105	9.86938
2.411	2.61841
2.4115	-6.04248
2.412	-5.84106
2.4125	-9.76868
2.413	-10.97717
2.4135	-18.22815
2.414	-15.40833
2.4145	-17.32178
2.415	-11.58142
2.4155	-4.83398
2.416	0.20142
2.4165	7.85522
2.417	8.15735
2.4175	25.47913
2.418	41.69312
2.4185	67.8772
2.419	86.8103
2.4195	89.328
2.42	79.96216
2.4205	69.68994
2.421	70.09277
2.4215	54.58374
2.422	34.84497
2.4225	16.61682
2.423	-6.54602
2.4235	-20.04089
2.424	-22.35718
2.4245	-13.99841
2.425	-5.23682
2.4255	5.13611
2.426	1.61133
2.4265	-4.12903
2.427	-3.62549
2.4275	-13.59558
2.428	-20.34302
2.4285	-31.82373
2.429	-45.62073
2.4295	-49.14551
2.43	-59.31702
2.4305	-48.64197
2.431	-11.68213
2.4315	3.7262
2.432	10.47363
2.4325	9.97009
2.433	0.10071
2.4335	-0.30212
2.434	-6.94885
2.4345	-12.89062
2.435	-28.80249
2.4355	-37.36267
2.436	-41.4917
2.4365	-45.92285
2.437	-39.27612
2.4375	-43.20374
2.438	-42.90161
2.4385	-40.48462
2.439	-34.84497
2.4395	-31.32019
2.44	-35.34851
2.4405	-26.48621
2.441	-22.05505
2.4415	-19.03381
2.442	-5.53894
2.4425	0.60425
2.443	12.28638
2.4435	15.60974
2.444	15.60974
2.4445	22.6593
2.445	37.26196
2.4455	46.12427
2.446	46.42639
2.4465	43.50586
2.447	28.60107
2.4475	18.32886
2.448	9.56726
2.4485	0.60425
2.449	-10.57434
2.4495	-18.93311
2.45	-27.99683
2.4505	-22.6593
2.451	-23.76709
2.4515	-20.64514
2.452	-20.74585
2.4525	-13.59558
2.453	-8.15735
2.4535	-3.7262
2.454	-0.50354
2.4545	7.5531
2.455	1.40991
2.4555	2.92053
2.456	5.13611
2.4565	6.64673
2.457	3.02124
2.4575	7.85522
2.458	-1.3092
2.4585	-5.84106
2.459	-8.15735
2.4595	-6.04248
2.46	-0.30212
2.4605	3.92761
2.461	4.43115
2.4615	13.29346
2.462	11.88354
2.4625	11.38
2.463	13.89771
2.4635	9.46655
2.464	8.15735
2.4645	5.43823
2.465	9.86938
2.4655	18.8324
2.466	33.9386
2.4665	54.98657
2.467	65.76233
2.4675	63.54675
2.468	61.6333
2.4685	53.57666
2.469	40.38391
2.4695	21.04797
2.47	12.78992
2.4705	-1.3092
2.471	-5.13611
2.4715	-16.71753
2.472	-18.8324
2.4725	-17.6239
2.473	-14.70337
2.4735	-14.50195
2.474	-11.07788
2.4745	-10.77576
2.475	-7.95593
2.4755	-5.23682
2.476	-0.80566
2.4765	1.91345
2.477	12.68921
2.4775	28.39966
2.478	29.10461
2.4785	25.88196
2.479	22.35718
2.4795	30.2124
2.48	46.42639
2.4805	43.60657
2.481	37.86621
2.4815	29.60815
2.482	27.19116
2.4825	22.86072
2.483	17.22107
2.4835	6.74744
2.484	8.15735
2.4845	2.11487
2.485	1.10779
2.4855	-0.60425
2.486	-3.52478
2.4865	-1.71204
2.487	-0.70496
2.4875	-2.41699
2.488	-8.96301
2.4885	-5.74036
2.489	-7.5531
2.4895	-8.56018
2.49	-11.2793
2.4905	-6.94885
2.491	-4.12903
2.4915	-5.94177
2.492	-8.8623
2.4925	-2.31628
2.493	5.84106
2.4935	7.65381
2.494	21.95435
2.4945	34.94568
2.495	43.90869
2.4955	40.68604
2.496	34.64355
2.4965	32.52869
2.497	27.6947
2.4975	18.93311
2.498	12.68921
2.4985	7.04956
2.499	-5.0354
2.4995	-20.74585
2.5	-23.16284
2.5005	-17.32178
2.501	-8.66089
2.5015	-7.85522
2.502	-4.33044
2.5025	-6.3446
2.503	-4.02832
2.5035	-2.31628
2.504	10.17151
2.5045	16.3147
2.505	17.01965
2.5055	22.6593
2.506	32.7301
2.5065	27.39258
2.507	22.96143
2.5075	20.24231
2.508	9.86938
2.5085	3.32336
2.509	-4.93469
2.5095	-8.96301
2.51	-13.59558
2.5105	-16.71753
2.511	-23.56567
2.5115	-18.22815
2.512	-16.71753
2.5125	-9.26514
2.513	-8.25806
2.5135	-1.2085
2.514	17.22107
2.5145	31.4209
2.515	70.19348
2.5155	86.8103
2.516	89.02588
2.5165	84.99756
2.517	79.55933
2.5175	68.68286
2.518	52.8717
2.5185	33.43506
2.519	9.46655
2.5195	-6.84814
2.52	-20.74585
2.5205	-30.71594
2.521	-42.39807
2.5215	-43.80798
2.522	-39.77966
2.5225	-24.77417
2.523	-19.33594
2.5235	-10.87646
2.524	-19.23523
2.5245	-30.31311
2.525	-30.01099
2.5255	-35.2478
2.526	-28.09753
2.5265	-21.75293
2.527	-22.55859
2.5275	-22.25647
2.528	-29.50745
2.5285	-12.48779
2.529	18.73169
2.5295	39.88037
2.53	36.85913
2.5305	43.50586
2.531	37.56409
2.5315	31.72302
2.532	30.2124
2.5325	19.23523
2.533	18.12744
2.5335	7.5531
2.534	14.19983
2.5345	13.49487
2.535	15.50903
2.5355	12.28638
2.536	13.19275
2.5365	6.64673
2.537	-4.83398
2.5375	-10.0708
2.538	-16.21399
2.5385	-22.96143
2.539	-25.47913
2.5395	-21.55151
2.54	-18.12744
2.5405	-12.5885
2.541	-15.60974
2.5415	-25.78125
2.542	-34.14001
2.5425	-31.11877
2.543	-32.12585
2.5435	-29.50745
2.544	-26.98975
2.5445	-20.64514
2.545	-18.22815
2.5455	-13.99841
2.546	-6.54602
2.5465	6.74744
2.547	3.02124
2.5475	8.45947
2.548	8.7616
2.5485	10.27222
2.549	15.40833
2.5495	17.52319
2.55	14.40125
2.5505	6.54602
2.551	8.15735
2.5515	5.13611
2.552	-0.10071
2.5525	3.62549
2.553	6.54602
2.5535	3.62549
2.554	1.40991
2.5545	1.81274
2.555	1.10779
2.5555	10.57434
2.556	10.57434
2.5565	18.63098
2.557	20.1416
2.5575	22.6593
2.558	18.42957
2.5585	15.20691
2.559	17.22107
2.5595	9.86938
2.56	12.18567
2.5605	10.17151
2.561	7.65381
2.5615	6.14319
2.562	2.11487
2.5625	7.65381
2.563	9.06372
2.5635	11.38
2.564	21.3501
2.5645	28.70178
2.565	45.3186
2.5655	56.49719
2.566	70.69702
2.5665	74.62463
2.567	66.06445
2.5675	75.93384
2.568	81.7749
2.5685	68.78357
2.569	61.83472
2.5695	45.3186
2.57	25.177
2.5705	0.10071
2.571	-18.73169
2.5715	-32.12585
2.572	-46.92993
2.5725	-47.7356
2.573	-46.5271
2.5735	-40.1825
2.574	-34.64355
2.5745	-23.66638
2.575	-16.01257
2.5755	-17.32178
2.576	-14.19983
2.5765	-6.04248
2.577	16.81824
2.5775	27.09045
2.578	27.59399
2.5785	32.93152
2.579	17.92603
2.5795	3.42407
2.58	-7.15027
2.5805	-23.76709
2.581	-30.01099
2.5815	-32.22656
2.582	-44.0094
2.5825	-38.06763
2.583	-30.11169
2.5835	-15.60974
2.584	-6.3446
2.5845	5.94177
2.585	18.73169
2.5855	28.39966
2.586	23.46497
2.5865	24.06921
2.587	15.20691
2.5875	13.99841
2.588	8.05664
2.5885	8.45947
2.589	4.43115
2.5895	-1.51062
2.59	-7.45239
2.5905	-4.73328
2.591	-9.66797
2.5915	-7.04956
2.592	-15.71045
2.5925	-5.63965
2.593	12.48779
2.5935	25.177
2.594	32.7301
2.5945	28.70178
2.595	24.27063
2.5955	18.42957
2.596	16.81824
2.5965	11.38
2.597	6.54602
2.5975	1.3092
2.598	-6.14319
2.5985	-11.68213
2.599	-18.12744
2.5995	-18.02673
2.6	3.02124
2.6005	15.60974
2.601	23.46497
2.6015	37.96692
2.602	66.97083
2.6025	85.40039
2.603	88.62305
2.6035	86.40747
2.604	76.23596
2.6045	68.48145
2.605	45.41931
2.6055	24.67346
2.606	-2.21558
2.6065	-18.63098
2.607	-33.83789
2.6075	-39.98108
2.608	-43.00232
2.6085	-45.52002
2.609	-37.7655
2.6095	-24.97559
2.61	-18.53027
2.6105	-16.91895
2.611	-23.26355
2.6115	-20.94727
2.612	-25.37842
2.6125	-26.08337
2.613	-19.13452
2.6135	-16.11328
2.614	-16.11328
2.6145	-20.74585
2.615	-27.89612
2.6155	-25.47913
2.616	-35.14709
2.6165	-32.42798
2.617	-33.33435
2.6175	-34.03931
2.618	-25.78125
2.6185	-25.88196
2.619	-25.177
2.6195	-21.45081
2.62	-9.06372
2.6205	-1.91345
2.621	3.62549
2.6215	4.53186
2.622	12.18567
2.6225	15.40833
2.623	30.31311
2.6235	38.57117
2.624	47.03064
2.6245	52.771
2.625	58.71277
2.6255	44.31152
2.626	32.42798
2.6265	34.24072
2.627	47.33276
2.6275	50.95825
2.628	61.73401
2.6285	56.90002
2.629	49.0448
2.6295	35.75134
2.63	26.28479
2.6305	13.29346
2.631	3.02124
2.6315	-7.04956
2.632	-6.2439
2.6325	-14.09912
2.633	-15.91187
2.6335	-7.5531
2.634	-4.53186
2.6345	-6.44531
2.635	4.02832
2.6355	7.45239
2.636	15.00549
2.6365	27.19116
2.637	33.43506
2.6375	36.4563
2.638	33.73718
2.6385	22.86072
2.639	9.16443
2.6395	-4.22974
2.64	-20.74585
2.6405	-21.95435
2.641	-24.06921
2.6415	-13.39417
2.642	-13.797
2.6425	-12.48779
2.643	-14.30054
2.6435	-21.24939
2.644	-21.55151
2.6445	-24.77417
2.645	-31.4209
2.6455	-36.35559
2.646	-34.03931
2.6465	-31.82373
2.647	-23.8678
2.6475	-15.20691
2.648	0.80566
2.6485	17.72461
2.649	23.66638
2.6495	26.18408
2.65	23.96851
2.6505	19.33594
2.651	14.60266
2.6515	9.46655
2.652	-3.52478
2.6525	0.90637
2.653	-0.10071
2.6535	1.00708
2.654	5.43823
2.6545	8.15735
2.655	1.91345
2.6555	0.30212
2.656	-2.92053
2.6565	-11.98425
2.657	-9.66797
2.6575	-7.75452
2.658	-6.3446
2.6585	-5.84106
2.659	-5.13611
2.6595	-0.40283
2.66	0.70496
2.6605	1.71204
2.661	20.34302
2.6615	39.57825
2.662	40.58533
2.6625	41.99524
2.663	37.96692
2.6635	48.03772
2.664	54.48303
2.6645	54.98657
2.665	51.96533
2.6655	40.58533
2.666	25.78125
2.6665	10.67505
2.667	2.31628
2.6675	-7.25098
2.668	-12.89062
2.6685	-19.03381
2.669	-25.88196
2.6695	-25.27771
2.67	-30.71594
2.6705	-28.29895
2.671	-18.42957
2.6715	-14.60266
2.672	-9.26514
2.6725	0.60425
2.673	9.56726
2.6735	5.84106
2.674	14.60266
2.6745	12.48779
2.675	10.77576
2.6755	12.18567
2.676	14.19983
2.6765	11.88354
2.677	6.54602
2.6775	6.64673
2.678	24.87488
2.6785	53.07312
2.679	71.30127
2.6795	79.86145
2.68	63.54675
2.6805	60.82764
2.681	47.8363
2.6815	44.0094
2.682	37.96692
2.6825	25.88196
2.683	19.23523
2.6835	15.40833
2.684	8.45947
2.6845	1.51062
2.685	-6.74744
2.6855	-14.19983
2.686	-8.25806
2.6865	3.52478
2.687	4.63257
2.6875	11.2793
2.688	5.43823
2.6885	6.14319
2.689	4.43115
2.6895	0.70496
2.69	1.61133
2.6905	-0.20142
2.691	-3.52478
2.6915	-20.94727
2.692	-29.50745
2.6925	-41.99524
2.693	-39.47754
2.6935	-40.58533
2.694	-36.35559
2.6945	-31.62231
2.695	-24.87488
2.6955	-17.82532
2.696	-17.52319
2.6965	-16.11328
2.697	-9.86938
2.6975	-10.57434
2.698	-18.73169
2.6985	-18.63098
2.699	-15.81116
2.6995	-12.99133
2.7	-15.40833
2.7005	-17.22107
2.701	-11.38
2.7015	-18.12744
2.702	-17.01965
2.7025	-9.16443
2.703	-0.10071
2.7035	5.43823
2.704	12.48779
2.7045	17.01965
2.705	22.25647
2.7055	10.77576
2.706	16.51611
2.7065	15.50903
2.707	16.51611
2.7075	21.85364
2.708	22.15576
2.7085	22.86072
2.709	24.06921
2.7095	19.94019
2.71	13.797
2.7105	9.16443
2.711	9.36584
2.7115	2.21558
2.712	-0.60425
2.7125	-1.51062
2.713	-7.04956
2.7135	-4.12903
2.714	-1.61133
2.7145	0
2.715	2.81982
2.7155	0.50354
2.716	0.40283
2.7165	0.60425
2.717	3.32336
2.7175	9.76868
2.718	11.38
2.7185	17.82532
2.719	27.29187
2.7195	28.19824
2.72	26.28479
2.7205	29.40674
2.721	29.91028
2.7215	26.78833
2.722	23.96851
2.7225	27.39258
2.723	24.47205
2.7235	22.76001
2.724	19.13452
2.7245	29.60815
2.725	44.61365
2.7255	50.85754
2.726	49.95117
2.7265	45.82214
2.727	46.32568
2.7275	46.82922
2.728	49.44763
2.7285	41.39099
2.729	31.72302
2.7295	33.43506
2.73	39.77966
2.7305	28.29895
2.731	17.22107
2.7315	3.92761
2.732	-8.15735
2.7325	-10.57434
2.733	-18.12744
2.7335	-22.86072
2.734	-23.46497
2.7345	-32.62939
2.735	-29.91028
2.7355	-27.59399
2.736	-31.21948
2.7365	-28.19824
2.737	-30.11169
2.7375	-23.96851
2.738	-29.40674
2.7385	-29.00391
2.739	-18.53027
2.7395	1.40991
2.74	9.76868
2.7405	11.48071
2.741	13.09204
2.7415	12.5885
2.742	18.32886
2.7425	16.81824
2.743	5.43823
2.7435	6.64673
2.744	9.76868
2.7445	9.16443
2.745	7.95593
2.7455	8.7616
2.746	5.74036
2.7465	4.93469
2.747	13.69629
2.7475	17.22107
2.748	12.28638
2.7485	19.13452
2.749	23.46497
2.7495	21.95435
2.75	19.43665
2.7505	14.40125
2.751	14.30054
2.7515	13.49487
2.752	9.97009
2.7525	7.25098
2.753	9.36584
2.7535	3.12195
2.754	-9.16443
2.7545	-19.23523
2.755	-31.4209
2.7555	-36.75842
2.756	-35.85205
2.7565	-31.92444
2.757	-29.20532
2.7575	-20.34302
2.758	-11.78284
2.7585	-6.3446
2.759	-3.62549
2.7595	-4.12903
2.76	-2.5177
2.7605	-2.31628
2.761	2.41699
2.7615	16.41541
2.762	34.94568
2.7625	58.61206
2.763	65.96375
2.7635	67.17224
2.764	68.78357
2.7645	67.47437
2.765	74.52393
2.7655	71.20056
2.766	57.30286
2.7665	41.79382
2.767	18.93311
2.7675	8.66089
2.768	3.62549
2.7685	2.61841
2.769	22.35718
2.7695	34.14001
2.77	47.23206
2.7705	70.69702
2.771	85.90393
2.7715	82.27844
2.772	71.60339
2.7725	45.52002
2.773	23.56567
2.7735	8.7616
2.774	-19.53735
2.7745	-34.24072
2.775	-63.14392
2.7755	-76.53809
2.776	-83.99048
2.7765	-89.22729
2.777	-84.59473
2.7775	-79.45862
2.778	-64.85596
2.7785	-56.90002
2.779	-52.46887
2.7795	-52.97241
2.78	-51.86462
2.7805	-36.05347
2.781	-17.6239
2.7815	-8.05664
2.782	3.32336
2.7825	1.10779
2.783	-2.21558
2.7835	-6.54602
2.784	-12.28638
2.7845	-8.25806
2.785	4.33044
2.7855	15.1062
2.786	20.54443
2.7865	25.78125
2.787	29.91028
2.7875	29.40674
2.788	20.44373
2.7885	15.30762
2.789	8.7616
2.7895	6.64673
2.79	9.46655
2.7905	4.93469
2.791	0.70496
2.7915	-5.23682
2.792	-12.5885
2.7925	-8.7616
2.793	-3.22266
2.7935	-5.13611
2.794	-5.63965
2.7945	-4.73328
2.795	2.61841
2.7955	11.17859
2.796	12.68921
2.7965	18.63098
2.797	20.04089
2.7975	22.96143
2.798	17.32178
2.7985	17.01965
2.799	18.73169
2.7995	12.18567
2.8	9.46655
2.8005	11.2793
2.801	18.73169
2.8015	25.57983
2.802	33.43506
2.8025	30.01099
2.803	21.14868
2.8035	19.73877
2.804	14.40125
2.8045	9.16443
2.805	4.53186
2.8055	6.54602
2.806	1.71204
2.8065	1.10779
2.807	1.71204
2.8075	-0.80566
2.808	2.71912
2.8085	1.71204
2.809	1.51062
2.8095	-1.40991
2.81	-1.10779
2.8105	-3.42407
2.811	-7.45239
2.8115	-7.75452
2.812	-5.84106
2.8125	-7.5531
2.813	-3.42407
2.8135	5.33752
2.814	-0.30212
2.8145	2.81982
2.815	-3.52478
2.8155	-2.5177
2.816	0.60425
2.8165	2.21558
2.817	5.94177
2.8175	5.0354
2.818	10.57434
2.8185	6.3446
2.819	9.36584
2.8195	7.15027
2.82	6.54602
2.8205	11.68213
2.821	12.89062
2.8215	12.5885
2.822	16.91895
2.8225	12.18567
2.823	9.26514
2.8235	6.2439
2.824	6.14319
2.8245	1.2085
2.825	12.48779
2.8255	15.00549
2.826	34.54285
2.8265	66.26587
2.827	93.0542
2.8275	103.02429
2.828	96.67969
2.8285	90.73792
2.829	78.04871
2.8295	53.97949
2.83	34.74426
2.8305	10.57434
2.831	-6.74744
2.8315	-13.09204
2.832	-14.40125
2.8325	-1.91345
2.833	2.71912
2.8335	6.54602
2.834	8.56018
2.8345	-2.5177
2.835	-12.48779
2.8355	-12.48779
2.836	-14.19983
2.8365	-19.73877
2.837	-19.63806
2.8375	-20.44373
2.838	-25.47913
2.8385	-27.79541
2.839	-27.99683
2.8395	-27.29187
2.84	-34.54285
2.8405	-47.53418
2.841	-47.53418
2.8415	-41.4917
2.842	-31.82373
2.8425	-20.24231
2.843	-15.20691
2.8435	-6.14319
2.844	1.81274
2.8445	1.10779
2.845	-4.02832
2.8455	-5.23682
2.846	-1.51062
2.8465	-4.33044
2.847	-3.12195
2.8475	-0.80566
2.848	8.56018
2.8485	5.94177
2.849	16.91895
2.8495	26.58691
2.85	53.67737
2.8505	78.85437
2.851	95.97473
2.8515	115.10925
2.852	118.63403
2.8525	115.41138
2.853	109.06677
2.8535	92.34924
2.854	62.23755
2.8545	33.03223
2.855	17.32178
2.8555	14.60266
2.856	15.1062
2.8565	33.53577
2.857	40.1825
2.8575	40.2832
2.858	24.67346
2.8585	9.46655
2.859	-6.3446
2.8595	-25.27771
2.86	-46.32568
2.8605	-62.13684
2.861	-75.73242
2.8615	-71.40198
2.862	-67.97791
2.8625	-59.92126
2.863	-58.71277
2.8635	-57.40356
2.864	-51.05896
2.8645	-51.46179
2.865	-50.85754
2.8655	-47.03064
2.866	-37.86621
2.8665	-24.27063
2.867	-5.84106
2.8675	6.84814
2.868	31.72302
2.8685	46.02356
2.869	37.56409
2.8695	26.58691
2.87	19.43665
2.8705	3.42407
2.871	-14.30054
2.8715	-19.73877
2.872	-36.05347
2.8725	-37.16125
2.873	-45.92285
2.8735	-50.45471
2.874	-40.2832
2.8745	-38.87329
2.875	-37.06055
2.8755	-36.25488
2.876	-28.39966
2.8765	-11.68213
2.877	2.61841
2.8775	-2.11487
2.878	8.66089
2.8785	18.12744
2.879	18.02673
2.8795	20.1416
2.88	10.67505
2.8805	11.2793
2.881	6.94885
2.8815	6.84814
2.882	12.99133
2.8825	12.5885
2.883	16.81824
2.8835	26.48621
2.884	43.10303
2.8845	57.9071
2.885	61.12976
2.8855	63.94958
2.886	61.23047
2.8865	53.77808
2.887	45.41931
2.8875	34.44214
2.888	32.93152
2.8885	25.68054
2.889	25.98267
2.8895	19.43665
2.89	18.63098
2.8905	12.48779
2.891	6.2439
2.8915	3.92761
2.892	-0.80566
2.8925	-8.25806
2.893	-12.68921
2.8935	-9.66797
2.894	-11.07788
2.8945	-7.35168
2.895	-3.8269
2.8955	-0.70496
2.896	-2.41699
2.8965	-1.61133
2.897	-5.43823
2.8975	-10.27222
2.898	-1.40991
2.8985	-7.25098
2.899	-4.12903
2.8995	6.3446
2.9	6.04248
2.9005	8.56018
2.901	5.94177
2.9015	10.47363
2.902	6.3446
2.9025	4.22974
2.903	8.25806
2.9035	13.59558
2.904	22.25647
2.9045	21.14868
2.905	23.26355
2.9055	21.45081
2.906	19.43665
2.9065	19.33594
2.907	17.82532
2.9075	16.11328
2.908	17.12036
2.9085	11.48071
2.909	5.53894
2.9095	-2.11487
2.91	-7.04956
2.9105	-12.08496
2.911	-5.43823
2.9115	2.41699
2.912	7.35168
2.9125	10.97717
2.913	22.96143
2.9135	27.49329
2.914	27.49329
2.9145	23.36426
2.915	15.60974
2.9155	10.17151
2.916	4.33044
2.9165	4.22974
2.917	12.78992
2.9175	20.74585
2.918	21.65222
2.9185	26.3855
2.919	31.21948
2.9195	38.47046
2.92	57.10144
2.9205	74.92676
2.921	84.2926
2.9215	84.49402
2.922	78.85437
2.9225	60.4248
2.923	51.05896
2.9235	48.64197
2.924	43.30444
2.9245	40.1825
2.925	29.70886
2.9255	8.66089
2.926	-3.32336
2.9265	-10.97717
2.927	-5.43823
2.9275	-7.95593
2.928	-24.97559
2.9285	-42.09595
2.929	-54.28162
2.9295	-69.68994
2.93	-64.35242
2.9305	-58.61206
2.931	-54.38232
2.9315	-53.97949
2.932	-54.48303
2.9325	-51.5625
2.933	-62.8418
2.9335	-62.03613
2.934	-60.62622
2.9345	-58.81348
2.935	-59.82056
2.9355	-38.06763
2.936	-29.50745
2.9365	-29.00391
2.937	-25.07629
2.9375	-17.01965
2.938	-26.78833
2.9385	-28.29895
2.939	-27.6947
2.9395	-35.2478
2.94	-33.83789
2.9405	-33.9386
2.941	-31.92444
2.9415	-27.59399
2.942	-24.77417
2.9425	-18.02673
2.943	-9.26514
2.9435	-2.81982
2.944	7.65381
2.9445	18.42957
2.945	24.97559
2.9455	22.6593
2.946	24.77417
2.9465	19.73877
2.947	24.87488
2.9475	20.64514
2.948	31.21948
2.9485	39.17542
2.949	37.16125
2.9495	29.20532
2.95	27.29187
2.9505	13.69629
2.951	4.12903
2.9515	-0.10071
2.952	-2.01416
2.9525	-7.35168
2.953	-11.2793
2.9535	-3.62549
2.954	-7.45239
2.9545	-4.53186
2.955	1.51062
2.9555	2.61841
2.956	12.99133
2.9565	16.71753
2.957	19.63806
2.9575	19.63806
2.958	29.10461
2.9585	26.78833
2.959	28.39966
2.9595	28.80249
2.96	30.41382
2.9605	26.3855
2.961	18.93311
2.9615	14.70337
2.962	3.8269
2.9625	2.41699
2.963	-1.2085
2.9635	3.7262
2.964	11.48071
2.9645	37.66479
2.965	44.91577
2.9655	54.0802
2.966	40.58533
2.9665	28.29895
2.967	20.1416
2.9675	11.88354
2.968	4.12903
2.9685	8.15735
2.969	7.95593
2.9695	5.0354
2.97	-1.81274
2.9705	-0.50354
2.971	1.10779
2.9715	-3.62549
2.972	7.35168
2.9725	-1.61133
2.973	-2.41699
2.9735	-11.48071
2.974	-9.26514
2.9745	-14.80408
2.975	-4.73328
2.9755	-1.2085
2.976	-1.71204
2.9765	-1.10779
2.977	3.52478
2.9775	3.32336
2.978	-1.81274
2.9785	-2.31628
2.979	4.02832
2.9795	6.44531
2.98	12.78992
2.9805	12.99133
2.981	9.66797
2.9815	6.44531
2.982	6.64673
2.9825	6.04248
2.983	8.35876
2.9835	8.56018
2.984	9.26514
2.9845	10.0708
2.985	16.3147
2.9855	38.26904
2.986	59.51843
2.9865	68.48145
2.987	69.38782
2.9875	67.8772
2.988	64.05029
2.9885	58.51135
2.989	52.46887
2.9895	41.69312
2.99	30.2124
2.9905	24.16992
2.991	22.05505
2.9915	16.61682
2.992	15.50903
2.9925	11.38
2.993	17.82532
2.9935	35.34851
2.994	46.5271
2.9945	62.53967
2.995	56.29578
2.9955	45.82214
2.996	33.53577
2.9965	19.73877
2.997	-0.10071
2.9975	-21.24939
2.998	-35.95276
2.9985	-36.05347
2.999	-38.77258
2.9995	-37.36267
3	-49.44763
3.0005	-46.5271
3.001	-50.05188
3.0015	-44.0094
3.002	-18.8324
3.0025	0.60425
3.003	-1.2085
3.0035	-2.21558
3.004	-5.94177
3.0045	-6.14319
3.005	-9.16443
3.0055	-15.20691
3.006	-12.78992
3.0065	-0.90637
3.007	-1.10779
3.0075	7.25098
3.008	16.01257
3.0085	25.07629
3.009	18.63098
3.0095	9.06372
3.01	1.10779
3.0105	4.73328
3.011	0.30212
3.0115	-14.60266
3.012	-18.8324
3.0125	-16.01257
3.013	-25.98267
3.0135	-24.37134
3.014	-23.26355
3.0145	-23.46497
3.015	-28.39966
3.0155	-30.91736
3.016	-31.92444
3.0165	-34.44214
3.017	-35.44922
3.0175	-39.57825
3.018	-46.42639
3.0185	-47.93701
3.019	-48.54126
3.0195	-35.95276
3.02	-35.54993
3.0205	-39.47754
3.021	-37.36267
3.0215	-30.2124
3.022	-17.92603
3.0225	-4.83398
3.023	12.99133
3.0235	21.3501
3.024	34.44214
3.0245	49.34692
3.025	50.2533
3.0255	49.0448
3.026	38.36975
3.0265	30.41382
3.027	16.51611
3.0275	8.96301
3.028	-9.97009
3.0285	-16.51611
3.029	-0.50354
3.0295	8.15735
3.03	17.01965
3.0305	18.12744
3.031	14.60266
3.0315	12.48779
3.032	4.73328
3.0325	-9.66797
3.033	-18.63098
3.0335	-25.37842
3.034	-31.01807
3.0345	-36.35559
3.035	-32.42798
3.0355	-32.32727
3.036	-25.177
3.0365	-19.03381
3.037	-19.33594
3.0375	-14.70337
3.038	-7.5531
3.0385	2.21558
3.039	31.01807
3.0395	62.43896
3.04	83.38623
3.0405	90.83862
3.041	85.60181
3.0415	76.23596
3.042	59.1156
3.0425	43.70728
3.043	29.80957
3.0435	13.29346
3.044	5.74036
3.0445	3.12195
3.045	1.81274
3.0455	1.71204
3.046	-0.70496
3.0465	-5.84106
3.047	-6.2439
3.0475	-2.81982
3.048	-9.76868
3.0485	-4.22974
3.049	-7.75452
3.0495	-10.17151
3.05	-14.40125
3.0505	-11.78284
3.051	-11.68213
3.0515	-9.46655
3.052	-9.66797
3.0525	-1.00708
3.053	14.50195
3.0535	40.58533
3.054	60.72693
3.0545	67.17224
3.055	62.8418
3.0555	60.92834
3.056	47.93701
3.0565	39.98108
3.057	30.71594
3.0575	11.78284
3.058	0.70496
3.0585	-7.95593
3.059	-9.76868
3.0595	-19.83948
3.06	-22.6593
3.0605	-25.57983
3.061	-7.15027
3.0615	7.04956
3.062	26.98975
3.0625	25.98267
3.063	34.54285
3.0635	37.26196
3.064	33.33435
3.0645	27.89612
3.065	17.22107
3.0655	9.76868
3.066	6.2439
3.0665	0.60425
3.067	-7.75452
3.0675	-4.93469
3.068	7.65381
3.0685	32.62939
3.069	40.68604
3.0695	48.64197
3.07	31.4209
3.0705	25.27771
3.071	34.54285
3.0715	43.80798
3.072	45.11719
3.0725	51.5625
3.073	40.58533
3.0735	28.60107
3.074	10.47363
3.0745	-5.0354
3.075	-23.66638
3.0755	-39.57825
3.076	-46.72852
3.0765	-53.67737
3.077	-62.43896
3.0775	-54.18091
3.078	-40.38391
3.0785	-28.39966
3.079	-20.1416
3.0795	-12.68921
3.08	-6.84814
3.0805	-11.78284
3.081	-16.11328
3.0815	-22.76001
3.082	-22.96143
3.0825	-35.14709
3.083	-30.11169
3.0835	-2.61841
3.084	26.18408
3.0845	39.47754
3.085	43.80798
3.0855	48.74268
3.086	40.38391
3.0865	24.57275
3.087	10.57434
3.0875	-1.00708
3.088	-13.69629
3.0885	-25.78125
3.089	-37.26196
3.0895	-39.67896
3.09	-39.47754
3.0905	-32.12585
3.091	-17.42249
3.0915	5.23682
3.092	40.48462
3.0925	66.16516
3.093	90.93933
3.0935	104.63562
3.094	105.84412
3.0945	99.2981
3.095	96.8811
3.0955	82.88269
3.096	57.9071
3.0965	44.0094
3.097	31.72302
3.0975	15.71045
3.098	-3.12195
3.0985	-20.84656
3.099	-24.27063
3.0995	-18.42957
3.1	-1.40991
3.1005	2.71912
3.101	-4.83398
3.1015	-10.47363
3.102	-18.02673
3.1025	-21.04797
3.103	-32.93152
3.1035	-44.91577
3.104	-51.36108
3.1045	-57.60498
3.105	-63.24463
3.1055	-61.12976
3.106	-49.24622
3.1065	-20.74585
3.107	26.88904
3.1075	64.95667
3.108	88.0188
3.1085	99.09668
3.109	128.70483
3.1095	127.89917
3.11	114.505
3.1105	93.65845
3.111	71.7041
3.1115	52.56958
3.112	16.71753
3.1125	-10.57434
3.113	-33.63647
3.1135	-45.62073
3.114	-54.68445
3.1145	-46.22498
3.115	-42.09595
3.1155	-46.32568
3.116	-48.44055
3.1165	-55.79224
3.117	-61.02905
3.1175	-68.78357
3.118	-54.48303
3.1185	-53.37524
3.119	-49.34692
3.1195	-44.91577
3.12	-42.19666
3.1205	-26.08337
3.121	-6.04248
3.1215	11.2793
3.122	24.97559
3.1225	26.58691
3.123	21.75293
3.1235	16.11328
3.124	5.84106
3.1245	2.01416
3.125	8.15735
3.1255	11.68213
3.126	38.57117
3.1265	48.74268
3.127	41.99524
3.1275	27.49329
3.128	16.01257
3.1285	-1.61133
3.129	-17.22107
3.1295	-26.3855
3.13	-46.22498
3.1305	-48.84338
3.131	-53.87878
3.1315	-44.91577
3.132	-29.50745
3.1325	-14.19983
3.133	-16.81824
3.1335	-9.86938
3.134	4.33044
3.1345	22.05505
3.135	32.42798
3.1355	53.57666
3.136	65.3595
3.1365	65.15808
3.137	60.3241
3.1375	49.24622
3.138	39.98108
3.1385	31.01807
3.139	31.4209
3.1395	28.9032
3.14	24.27063
3.1405	20.1416
3.141	17.82532
3.1415	5.13611
3.142	-9.97009
3.1425	-20.1416
3.143	-32.62939
3.1435	-41.69312
3.144	-46.02356
3.1445	-48.44055
3.145	-43.30444
3.1455	-42.8009
3.146	-43.10303
3.1465	-40.78674
3.147	-39.88037
3.1475	-43.50586
3.148	-41.08887
3.1485	-39.57825
3.149	-31.82373
3.1495	-28.39966
3.15	-23.16284
3.1505	-14.70337
3.151	-10.67505
3.1515	-7.35168
3.152	-11.98425
3.1525	-5.0354
3.153	-11.38
3.1535	-10.57434
3.154	-7.75452
3.1545	5.0354
3.155	27.79541
3.1555	39.67896
3.156	62.9425
3.1565	107.85828
3.157	139.88342
3.1575	150.45776
3.158	152.06909
3.1585	135.04944
3.159	118.53333
3.1595	99.49951
3.16	65.96375
3.1605	43.90869
3.161	23.06213
3.1615	7.85522
3.162	-5.53894
3.1625	-15.71045
3.163	-19.94019
3.1635	-11.78284
3.164	27.29187
3.1645	53.97949
3.165	69.79065
3.1655	67.8772
3.166	54.38232
3.1665	27.89612
3.167	-0.60425
3.1675	-20.04089
3.168	-43.50586
3.1685	-63.64746
3.169	-70.89844
3.1695	-80.86853
3.17	-86.60889
3.1705	-80.4657
3.171	-76.53809
3.1715	-65.76233
3.172	-47.33276
3.1725	-39.98108
3.173	-25.78125
3.1735	-12.28638
3.174	-12.68921
3.1745	0.60425
3.175	5.43823
3.1755	22.05505
3.176	40.88745
3.1765	40.68604
3.177	29.20532
3.1775	24.27063
3.178	17.52319
3.1785	35.95276
3.179	41.4917
3.1795	34.44214
3.18	21.65222
3.1805	21.45081
3.181	13.69629
3.1815	10.67505
3.182	1.40991
3.1825	7.25098
3.183	3.42407
3.1835	7.15027
3.184	45.41931
3.1845	85.60181
3.185	119.84253
3.1855	149.55139
3.186	162.03918
3.1865	157.50732
3.187	139.48059
3.1875	107.55615
3.188	72.9126
3.1885	24.87488
3.189	-15.91187
3.1895	-61.33118
3.19	-93.55774
3.1905	-113.49792
3.191	-121.85669
3.1915	-135.25085
3.192	-135.55298
3.1925	-123.56873
3.193	-117.42554
3.1935	-106.64978
3.194	-94.76624
3.1945	-83.68835
3.195	-62.53967
3.1955	-48.44055
3.196	-47.53418
3.1965	-55.89294
3.197	-50.15259
3.1975	-20.04089
3.198	41.79382
3.1985	91.24146
3.199	115.81421
3.1995	119.54041
3.2	115.00854
3.2005	96.57898
3.201	72.9126
3.2015	40.48462
3.202	13.59558
3.2025	-16.3147
3.203	-41.08887
3.2035	-58.00781
3.204	-65.86304
3.2045	-73.31543
3.205	-75.32959
3.2055	-72.00623
3.206	-68.28003
3.2065	-68.98499
3.207	-49.44763
3.2075	-14.60266
3.208	25.07629
3.2085	55.59082
3.209	64.45312
3.2095	63.54675
3.21	59.51843
3.2105	53.37524
3.211	39.37683
3.2115	29.30603
3.212	16.51611
3.2125	7.15027
3.213	2.31628
3.2135	1.10779
3.214	2.41699
3.2145	-7.95593
3.215	-10.17151
3.2155	-6.54602
3.216	-12.38708
3.2165	-10.0708
3.217	4.83398
3.2175	11.68213
3.218	6.44531
3.2185	1.81274
3.219	-5.33752
3.2195	-20.04089
3.22	-35.14709
3.2205	-38.26904
3.221	-43.00232
3.2215	-44.21082
3.222	-48.23914
3.2225	-50.354
3.223	-42.39807
3.2235	-26.88904
3.224	1.3092
3.2245	10.27222
3.225	12.78992
3.2255	15.40833
3.226	16.21399
3.2265	15.81116
3.227	21.95435
3.2275	43.20374
3.228	70.99915
3.2285	81.97632
3.229	97.08252
3.2295	86.40747
3.23	76.63879
3.2305	58.51135
3.231	39.67896
3.2315	31.21948
3.232	17.52319
3.2325	14.50195
3.233	18.32886
3.2335	31.92444
3.234	41.69312
3.2345	40.38391
3.235	33.73718
3.2355	17.42249
3.236	-1.61133
3.2365	-19.94019
3.237	-39.47754
3.2375	-58.71277
3.238	-66.06445
3.2385	-65.66162
3.239	-61.02905
3.2395	-63.54675
3.24	-59.41772
3.2405	-46.82922
3.241	-28.70178
3.2415	-13.797
3.242	8.25806
3.2425	30.41382
3.243	59.92126
3.2435	66.46729
3.244	67.57507
3.2445	87.21313
3.245	102.31934
3.2455	121.55457
3.246	153.57971
3.2465	174.12415
3.247	180.16663
3.2475	167.47742
3.248	146.63086
3.2485	107.85828
3.249	79.86145
3.2495	48.64197
3.25	31.01807
3.2505	10.17151
3.251	-8.8623
3.2515	-22.45789
3.252	-43.40515
3.2525	-66.6687
3.253	-72.50977
3.2535	-82.37915
3.254	-86.8103
3.2545	-93.25562
3.255	-101.21155
3.2555	-110.27527
3.256	-106.64978
3.2565	-100.80872
3.257	-94.86694
3.2575	-86.91101
3.258	-88.22021
3.2585	-80.66711
3.259	-82.68127
3.2595	-77.34375
3.26	-63.84888
3.2605	-50.05188
3.261	-33.73718
3.2615	-20.54443
3.262	-7.85522
3.2625	-7.04956
3.263	-14.40125
3.2635	-0.90637
3.264	4.12903
3.2645	15.00549
3.265	23.06213
3.2655	56.09436
3.266	80.06287
3.2665	86.91101
3.267	100.20447
3.2675	108.76465
3.268	103.52783
3.2685	97.18323
3.269	86.8103
3.2695	61.73401
3.27	43.50586
3.2705	68.78357
3.271	84.79614
3.2715	82.68127
3.272	59.71985
3.2725	35.75134
3.273	20.54443
3.2735	8.8623
3.274	-9.06372
3.2745	-11.2793
3.275	-23.06213
3.2755	-38.67188
3.276	-53.77808
3.2765	-60.92834
3.277	-61.73401
3.2775	-61.33118
3.278	-57.50427
3.2785	-57.20215
3.279	-56.29578
3.2795	-63.94958
3.28	-63.54675
3.2805	-64.151
3.281	-52.26746
3.2815	-45.72144
3.282	-46.12427
3.2825	-47.43347
3.283	-59.92126
3.2835	-53.67737
3.284	-51.36108
3.2845	-39.77966
3.285	-29.50745
3.2855	-23.16284
3.286	-16.51611
3.2865	-13.49487
3.287	-3.12195
3.2875	-0.70496
3.288	4.12903
3.2885	14.70337
3.289	43.30444
3.2895	85.60181
3.29	101.61438
3.2905	119.74182
3.291	120.44678
3.2915	109.16748
3.292	90.03296
3.2925	71.20056
3.293	45.2179
3.2935	29.40674
3.294	12.28638
3.2945	2.81982
3.295	-19.83948
3.2955	-24.97559
3.296	-30.01099
3.2965	-36.85913
3.297	-41.69312
3.2975	-43.70728
3.298	-48.33984
3.2985	-59.51843
3.299	-53.17383
3.2995	-49.74976
3.3	-41.89453
3.3005	-27.09045
3.301	-19.53735
3.3015	-4.63257
3.302	-3.22266
3.3025	0.40283
3.303	-0.30212
3.3035	-3.32336
3.304	-1.3092
3.3045	4.02832
3.305	14.50195
3.3055	25.88196
3.306	52.8717
3.3065	105.94482
3.307	164.05334
3.3075	212.39319
3.308	256.10046
3.3085	267.48047
3.309	241.39709
3.3095	192.453
3.31	146.12732
3.3105	99.19739
3.311	72.10693
3.3115	44.41223
3.312	37.46338
3.3125	45.2179
3.313	45.11719
3.3135	32.62939
3.314	1.51062
3.3145	-21.04797
3.315	-31.52161
3.3155	-43.70728
3.316	-44.91577
3.3165	-54.98657
3.317	-72.20764
3.3175	-72.81189
3.318	0.30212
3.3185	90.63721
3.319	149.55139
3.3195	191.84875
3.32	239.88647
3.3205	268.18542
3.321	253.88489
3.3215	255.99976
3.322	241.19568
3.3225	185.70557
3.323	116.41846
3.3235	53.27454
3.324	31.11877
3.3245	19.63806
3.325	4.12903
3.3255	-21.65222
3.326	-56.69861
3.3265	-104.63562
3.327	-150.25635
3.3275	-186.41052
3.328	-210.78186
3.3285	-230.92346
3.329	-245.62683
3.3295	-265.86914
3.33	-239.68506
3.3305	-216.22009
3.331	-203.93372
3.3315	-206.25
3.332	-219.14062
3.3325	-234.44824
3.333	-237.06665
3.3335	-230.21851
3.334	-223.97461
3.3345	-215.81726
3.335	-191.04309
3.3355	-162.94556
3.336	-137.36572
3.3365	-111.18164
3.337	-70.69702
3.3375	-36.35559
3.338	-6.94885
3.3385	5.63965
3.339	14.80408
3.3395	21.45081
3.34	21.75293
3.3405	28.50037
3.341	34.24072
3.3415	57.00073
3.342	63.04321
3.3425	61.12976
3.343	71.90552
3.3435	78.35083
3.344	104.13208
3.3445	126.79138
3.345	124.97864
3.3455	113.39722
3.346	99.80164
3.3465	86.10535
3.347	63.94958
3.3475	49.64905
3.348	31.72302
3.3485	11.58142
3.349	-6.44531
3.3495	-19.23523
3.35	-28.80249
3.3505	-41.99524
3.351	-38.36975
3.3515	-48.23914
3.352	-55.59082
3.3525	-56.90002
3.353	-39.88037
3.3535	-8.15735
3.354	25.68054
3.3545	39.77966
3.355	35.95276
3.3555	24.06921
3.356	-5.23682
3.3565	-29.70886
3.357	-60.62622
3.3575	-72.30835
3.358	-74.02039
3.3585	-68.98499
3.359	-56.29578
3.3595	-42.19666
3.36	-30.81665
3.3605	-16.61682
3.361	-14.09912
3.3615	-11.38
3.362	-4.53186
3.3625	-2.92053
3.363	0.20142
3.3635	1.71204
3.364	-1.91345
3.3645	8.96301
3.365	11.17859
3.3655	16.21399
3.366	24.57275
3.3665	43.70728
3.367	54.98657
3.3675	79.66003
3.368	117.42554
3.3685	165.16113
3.369	182.78503
3.3695	179.8645
3.37	156.70166
3.3705	135.04944
3.371	116.61987
3.3715	120.14465
3.372	165.36255
3.3725	205.0415
3.373	238.07373
3.3735	238.47656
3.374	207.5592
3.3745	156.19812
3.375	104.83704
3.3755	50.2533
3.376	2.41699
3.3765	-37.56409
3.377	-66.26587
3.3775	-86.8103
3.378	-98.19031
3.3785	-113.49792
3.379	-110.6781
3.3795	-97.08252
3.38	-85.70251
3.3805	-84.19189
3.381	-86.50818
3.3815	-85.60181
3.382	-88.52234
3.3825	-92.14783
3.383	-94.3634
3.3835	-82.68127
3.384	-71.20056
3.3845	-72.20764
3.385	-84.49402
3.3855	-89.83154
3.386	-91.54358
3.3865	-81.7749
3.387	-81.87561
3.3875	-70.09277
3.388	-41.89453
3.3885	-14.40125
3.389	3.12195
3.3895	22.25647
3.39	34.74426
3.3905	54.48303
3.391	97.78748
3.3915	147.23511
3.392	199.50256
3.3925	240.69214
3.393	261.5387
3.3935	276.74561
3.394	309.07288
3.3945	321.15784
3.395	320.55359
3.3955	287.11853
3.396	227.09656
3.3965	147.83936
3.397	69.38782
3.3975	-10.77576
3.398	-81.47278
3.3985	-143.60962
3.399	-194.9707
3.3995	-225.88806
3.4	-234.04541
3.4005	-238.07373
3.401	-218.63708
3.4015	-193.56079
3.402	-175.33264
3.4025	-173.72131
3.403	-151.26343
3.4035	-124.57581
3.404	-106.9519
3.4045	-75.32959
3.405	-67.17224
3.4055	-67.97791
3.406	-69.68994
3.4065	-72.81189
3.407	-79.15649
3.4075	-84.79614
3.408	-79.2572
3.4085	-73.91968
3.409	-64.75525
3.4095	-72.81189
3.41	-70.59631
3.4105	-41.18958
3.411	-22.6593
3.4115	-2.21558
3.412	19.23523
3.4125	54.78516
3.413	88.42163
3.4135	110.6781
3.414	135.75439
3.4145	162.74414
3.415	183.79211
3.4155	200.10681
3.416	193.25867
3.4165	167.276
3.417	121.05103
3.4175	81.97632
3.418	27.49329
3.4185	-17.6239
3.419	-56.5979
3.4195	-74.92676
3.42	-79.86145
3.4205	-75.4303
3.421	-61.83472
3.4215	-46.02356
3.422	-33.53577
3.4225	-30.2124
3.423	-4.02832
3.4235	23.56567
3.424	52.771
3.4245	59.61914
3.425	51.76392
3.4255	30.01099
3.426	2.92053
3.4265	-21.85364
3.427	-21.45081
3.4275	-13.99841
3.428	-4.83398
3.4285	6.2439
3.429	39.17542
3.4295	105.6427
3.43	155.19104
3.4305	156.29883
3.431	130.41687
3.4315	94.96765
3.432	40.68604
3.4325	-8.25806
3.433	-60.02197
3.4335	-85.40039
3.434	-98.39172
3.4345	-95.77332
3.435	-74.52393
3.4355	-44.61365
3.436	-4.12903
3.4365	30.41382
3.437	41.18958
3.4375	49.74976
3.438	75.02747
3.4385	85.60181
3.439	82.9834
3.4395	76.7395
3.44	68.68286
3.4405	48.13843
3.441	17.92603
3.4415	-12.78992
3.442	-28.29895
3.4425	-3.32336
3.443	52.8717
3.4435	124.37439
3.444	165.06042
3.4445	171.30432
3.445	161.63635
3.4455	126.69067
3.446	87.91809
3.4465	46.02356
3.447	8.56018
3.4475	-41.08887
3.448	-92.65137
3.4485	-118.43262
3.449	-129.00696
3.4495	-140.38696
3.45	-151.56555
3.4505	-162.54272
3.451	-149.95422
3.4515	-154.88892
3.452	-165.16113
3.4525	-182.98645
3.453	-185.10132
3.4535	-185.80627
3.454	-169.59229
3.4545	-156.19812
3.455	-155.896
3.4555	-151.96838
3.456	-135.75439
3.4565	-114.00146
3.457	-91.94641
3.4575	-65.15808
3.458	0.80566
3.4585	60.12268
3.459	95.26978
3.4595	117.32483
3.46	140.08484
3.4605	148.4436
3.461	172.10999
3.4615	222.96753
3.462	272.41516
3.4625	310.28137
3.463	301.72119
3.4635	272.51587
3.464	227.80151
3.4645	167.37671
3.465	93.85986
3.4655	34.03931
3.466	-23.36426
3.4665	-73.41614
3.467	-112.28943
3.4675	-122.25952
3.468	-126.89209
3.4685	-115.10925
3.469	-89.42871
3.4695	-86.20605
3.47	-64.65454
3.4705	-18.93311
3.471	15.40833
3.4715	38.87329
3.472	56.79932
3.4725	71.20056
3.473	72.30835
3.4735	67.8772
3.474	50.2533
3.4745	35.75134
3.475	8.66089
3.4755	-18.42957
3.476	-39.67896
3.4765	-64.151
3.477	-82.78198
3.4775	-93.96057
3.478	-98.79456
3.4785	-91.8457
3.479	-90.03296
3.4795	-99.49951
3.48	-111.78589
3.4805	-109.3689
3.481	-115.31067
3.4815	-127.69775
3.482	-141.29333
3.4825	-134.14307
3.483	-97.98889
3.4835	-74.12109
3.484	-51.66321
3.4845	-40.1825
3.485	-18.73169
3.4855	-7.75452
3.486	0.20142
3.4865	20.44373
3.487	45.3186
3.4875	58.20923
3.488	60.62622
3.4885	64.65454
3.489	66.56799
3.4895	56.39648
3.49	53.67737
3.4905	49.95117
3.491	40.1825
3.4915	44.41223
3.492	55.2887
3.4925	81.67419
3.493	127.29492
3.4935	168.38379
3.494	242.30347
3.4945	330.52368
3.495	380.27344
3.4955	397.69592
3.496	380.37415
3.4965	329.81873
3.497	266.07056
3.4975	179.36096
3.498	82.37915
3.4985	20.64514
3.499	-21.04797
3.4995	-48.54126
3.5	-75.63171
3.5005	-95.37048
3.501	-115.51208
3.5015	-143.91174
3.502	-147.63794
3.5025	-120.84961
3.503	-46.32568
3.5035	42.7002
3.504	95.5719
3.5045	102.42004
3.505	103.02429
3.5055	58.30994
3.506	8.15735
3.5065	-28.19824
3.507	-43.40515
3.5075	-35.44922
3.508	-45.62073
3.5085	-66.26587
3.509	-59.31702
3.5095	-41.69312
3.51	-36.75842
3.5105	-39.98108
3.511	-54.18091
3.5115	-50.95825
3.512	-57.20215
3.5125	-39.07471
3.513	-10.47363
3.5135	2.21558
3.514	-6.84814
3.5145	-24.47205
3.515	-64.05029
3.5155	-97.88818
3.516	-150.25635
3.5165	-180.77087
3.517	-201.11389
3.5175	-201.51672
3.518	-181.77795
3.5185	-131.42395
3.519	-50.15259
3.5195	90.5365
3.52	186.1084
3.5205	207.5592
3.521	193.96362
3.5215	167.17529
3.522	133.94165
3.5225	117.92908
3.523	100.10376
3.5235	87.31384
3.524	93.65845
3.5245	110.07385
3.525	85.60181
3.5255	49.34692
3.526	21.85364
3.5265	-13.69629
3.527	-57.40356
3.5275	-107.15332
3.528	-149.55139
3.5285	-195.67566
3.529	-232.23267
3.5295	-244.61975
3.53	-259.72595
3.5305	-270.80383
3.531	-270.70312
3.5315	-244.31763
3.532	-202.62451
3.5325	-155.39246
3.533	-111.9873
3.5335	-74.42322
3.534	-22.05505
3.5345	31.62231
3.535	78.04871
3.5355	133.94165
3.536	183.38928
3.5365	206.85425
3.537	184.29565
3.5375	144.21387
3.538	115.10925
3.5385	83.78906
3.539	61.6333
3.5395	24.06921
3.54	-6.44531
3.5405	-18.63098
3.541	-0.10071
3.5415	16.3147
3.542	16.01257
3.5425	21.14868
3.543	16.61682
3.5435	4.33044
3.544	-0.30212
3.5445	-7.15027
3.545	-16.71753
3.5455	-15.71045
3.546	30.41382
3.5465	72.61047
3.547	89.42871
3.5475	103.125
3.548	101.9165
3.5485	94.56482
3.549	76.13525
3.5495	48.94409
3.55	6.14319
3.5505	-49.54834
3.551	-80.96924
3.5515	-72.50977
3.552	-14.09912
3.5525	30.71594
3.553	53.47595
3.5535	34.14001
3.554	11.48071
3.5545	-6.84814
3.555	-4.53186
3.5555	25.78125
3.556	41.29028
3.5565	43.90869
3.557	33.23364
3.5575	14.09912
3.558	-9.06372
3.5585	-25.57983
3.559	-32.42798
3.5595	-25.27771
3.56	-26.48621
3.5605	-24.47205
3.561	-7.5531
3.5615	6.44531
3.562	18.93311
3.5625	34.64355
3.563	83.58765
3.5635	126.08643
3.564	150.05493
3.5645	180.97229
3.565	332.43713
3.5655	238.57727
3.566	184.09424
3.5665	144.01245
3.567	132.12891
3.5675	191.74805
3.568	288.93127
3.5685	393.96973
3.569	451.27258
3.5695	446.53931
3.57	372.3175
3.5705	271.30737
3.571	167.17529
3.5715	70.19348
3.572	-11.48071
3.5725	-85.60181
3.573	-147.63794
3.5735	-209.87549
3.574	-270.70312
3.5745	-314.4104
3.575	-343.51501
3.5755	-376.54724
3.576	-386.31592
3.5765	-387.92725
3.577	-391.75415
3.5775	-396.58813
3.578	-388.83362
3.5785	-372.3175
3.579	-350.56458
3.5795	-331.12793
3.58	-284.39941
3.5805	-236.96594
3.581	-202.62451
3.5815	-161.43494
3.582	-98.19031
3.5825	-55.2887
3.583	-9.36584
3.5835	16.51611
3.584	22.55859
3.5845	29.91028
3.585	25.68054
3.5855	24.06921
3.586	66.56799
3.5865	102.82288
3.587	120.34607
3.5875	127.49634
3.588	145.52307
3.5885	158.5144
3.589	159.11865
3.5895	144.21387
3.59	107.85828
3.5905	79.15649
3.591	51.66321
3.5915	32.42798
3.592	21.85364
3.5925	20.64514
3.593	51.76392
3.5935	117.32483
3.594	176.64185
3.5945	189.53247
3.595	188.52539
3.5955	193.35938
3.596	189.83459
3.5965	199.50256
3.597	241.09497
3.5975	227.70081
3.598	169.89441
3.5985	85.40039
3.599	30.61523
3.5995	8.25806
3.6	22.35718
3.6005	23.8678
3.601	31.4209
3.6015	78.85437
3.602	188.92822
3.6025	247.33887
3.603	251.87073
3.6035	226.3916
3.604	187.01477
3.6045	102.92358
3.605	1.91345
3.6055	-114.505
3.606	-215.31372
3.6065	-289.03198
3.607	-337.17041
3.6075	-352.37732
3.608	-359.22546
3.6085	-353.68652
3.609	-352.67944
3.6095	-345.93201
3.61	-332.0343
3.6105	-308.77075
3.611	-292.35535
3.6115	-249.0509
3.612	-219.94629
3.6125	-201.01318
3.613	-192.55371
3.6135	-174.02344
3.614	-138.77563
3.6145	-113.80005
3.615	-78.35083
3.6155	-41.99524
3.616	-6.64673
3.6165	35.54993
3.617	96.7804
3.6175	159.92432
3.618	205.74646
3.6185	265.66772
3.619	381.17981
3.6195	474.23401
3.62	497.19543
3.6205	453.18604
3.621	389.8407
3.6215	335.45837
3.622	321.05713
3.6225	317.02881
3.623	333.74634
3.6235	302.62756
3.624	247.33887
3.6245	171.80786
3.625	97.98889
3.6255	63.24463
3.626	57.8064
3.6265	66.97083
3.627	94.06128
3.6275	91.94641
3.628	76.13525
3.6285	59.41772
3.629	68.58215
3.6295	89.63013
3.63	48.94409
3.6305	-38.06763
3.631	-101.51367
3.6315	-133.53882
3.632	-181.57654
3.6325	-209.87549
3.633	-229.51355
3.6335	-243.81409
3.634	-256.30188
3.6345	-287.01782
3.635	-301.51978
3.6355	-312.49695
3.636	-315.7196
3.6365	-311.48987
3.637	-303.73535
3.6375	-279.96826
3.638	-244.21692
3.6385	-199.70398
3.639	-163.5498
3.6395	-127.99988
3.64	-95.16907
3.6405	-61.23047
3.641	-7.65381
3.6415	76.33667
3.642	203.32947
3.6425	327.20032
3.643	408.27026
3.6435	436.06567
3.644	414.01062
3.6445	329.31519
3.645	221.05408
3.6455	134.5459
3.646	44.0094
3.6465	-10.27222
3.647	19.83948
3.6475	165.36255
3.648	300.10986
3.6485	358.11768
3.649	369.09485
3.6495	334.552
3.65	266.6748
3.6505	158.21228
3.651	80.06287
3.6515	38.67188
3.652	-17.52319
3.6525	-89.02588
3.653	-146.93298
3.6535	-191.1438
3.654	-240.39001
3.6545	-282.78809
3.655	-273.52295
3.6555	-220.14771
3.656	-147.53723
3.6565	-116.72058
3.657	-98.49243
3.6575	-100.30518
3.658	-123.06519
3.6585	-142.40112
3.659	-160.32715
3.6595	-185.00061
3.66	-215.1123
3.6605	-246.73462
3.661	-257.40967
3.6615	-259.42383
3.662	-271.71021
3.6625	-266.27197
3.663	-238.17444
3.6635	-200.20752
3.664	-149.85352
3.6645	-97.18323
3.665	-47.33276
3.6655	-6.54602
3.666	40.1825
3.6665	76.03455
3.667	85.19897
3.6675	72.61047
3.668	67.8772
3.6685	44.41223
3.669	19.33594
3.6695	4.12903
3.67	5.13611
3.6705	37.66479
3.671	74.52393
3.6715	131.22253
3.672	264.1571
3.6725	376.95007
3.673	420.95947
3.6735	425.49133
3.674	426.80054
3.6745	397.89734
3.675	343.3136
3.6755	307.15942
3.676	308.97217
3.6765	318.43872
3.677	285.91003
3.6775	244.21692
3.678	178.45459
3.6785	97.18323
3.679	46.12427
3.6795	16.41541
3.68	-19.13452
3.6805	-73.21472
3.681	-128.10059
3.6815	-187.92114
3.682	-262.8479
3.6825	-326.19324
3.683	-378.96423
3.6835	-416.93115
3.684	-404.34265
3.6845	-378.76282
3.685	-338.17749
3.6855	-280.06897
3.686	-180.16663
3.6865	-97.78748
3.687	-33.13293
3.6875	34.44214
3.688	54.48303
3.6885	44.91577
3.689	31.92444
3.6895	6.14319
3.69	-19.23523
3.6905	-37.56409
3.691	7.65381
3.6915	105.34058
3.692	220.75195
3.6925	275.13428
3.693	280.77393
3.6935	265.06348
3.694	225.58594
3.6945	166.57104
3.695	114.90784
3.6955	84.89685
3.696	53.07312
3.6965	2.41699
3.697	-0.60425
3.6975	-8.45947
3.698	-29.91028
3.6985	-56.39648
3.699	-86.50818
3.6995	-105.34058
3.7	-109.57031
3.7005	-108.1604
3.701	-101.01013
3.7015	-124.97864
3.702	-166.57104
3.7025	-201.11389
3.703	-222.86682
3.7035	-262.8479
3.704	-304.94385
3.7045	-325.48828
3.705	-335.55908
3.7055	-332.23572
3.706	-312.79907
3.7065	-307.86438
3.707	-271.6095
3.7075	-226.89514
3.708	-162.64343
3.7085	-66.56799
3.709	54.38232
3.7095	140.58838
3.71	191.24451
3.7105	189.12964
3.711	172.51282
3.7115	143.3075
3.712	149.55139
3.7125	193.96362
3.713	233.64258
3.7135	277.85339
3.714	278.35693
3.7145	253.17993
3.715	213.40027
3.7155	177.24609
3.716	145.8252
3.7165	143.81104
3.717	194.16504
3.7175	283.79517
3.718	356.50635
3.7185	385.61096
3.719	350.26245
3.7195	282.78809
3.72	209.37195
3.7205	135.25085
3.721	27.59399
3.7215	-74.62463
3.722	-135.04944
3.7225	-176.74255
3.723	-222.96753
3.7235	-271.20667
3.724	-301.41907
3.7245	-282.48596
3.725	-245.224
3.7255	-208.56628
3.726	-180.46875
3.7265	-155.09033
3.727	-123.66943
3.7275	-89.63013
3.728	-54.0802
3.7285	10.0708
3.729	64.05029
3.7295	108.36182
3.73	150.8606
3.7305	175.23193
3.731	202.5238
3.7315	182.48291
3.732	130.11475
3.7325	63.74817
3.733	30.61523
3.7335	47.33276
3.734	89.12659
3.7345	117.82837
3.735	113.39722
3.7355	78.65295
3.736	42.49878
3.7365	12.48779
3.737	35.95276
3.7375	137.56714
3.738	217.12646
3.7385	247.23816
3.739	222.36328
3.7395	199.30115
3.74	163.85193
3.7405	82.78198
3.741	-6.14319
3.7415	-78.65295
3.742	-145.9259
3.7425	-205.94788
3.743	-260.53162
3.7435	-251.26648
3.744	-209.57336
3.7445	-146.12732
3.745	-117.22412
3.7455	-115.51208
3.746	-105.13916
3.7465	-85.70251
3.747	-52.771
3.7475	-27.89612
3.748	-35.75134
3.7485	-45.92285
3.749	-70.49561
3.7495	-99.60022
3.75	-127.89917
3.7505	-154.28467
3.751	-166.97388
3.7515	-168.28308
3.752	-125.7843
3.7525	-3.7262
3.753	140.68909
3.7535	301.11694
3.754	404.74548
3.7545	516.43066
3.755	555.70679
3.7555	554.29688
3.756	546.13953
3.7565	512.80518
3.757	472.8241
3.7575	425.0885
3.758	326.39465
3.7585	204.23584
3.759	109.67102
3.7595	21.24939
3.76	-37.16125
3.7605	-84.2926
3.761	-135.35156
3.7615	-196.68274
3.762	-237.16736
3.7625	-255.69763
3.763	-243.20984
3.7635	-198.29407
3.764	-205.54504
3.7645	-238.07373
3.765	-286.61499
3.7655	-322.97058
3.766	-341.09802
3.7665	-271.40808
3.767	-46.22498
3.7675	180.46875
3.768	274.73145
3.7685	282.08313
3.769	263.04932
3.7695	200.81177
3.77	109.67102
3.7705	-0.20142
3.771	-122.46094
3.7715	-221.75903
3.772	-310.5835
3.7725	-377.65503
3.773	-423.17505
3.7735	-419.44885
3.774	-421.86584
3.7745	-411.59363
3.775	-396.1853
3.7755	-370.40405
3.776	-344.21997
3.7765	-332.53784
3.777	-328.81165
3.7775	-307.46155
3.778	-245.82825
3.7785	-172.00928
3.779	-97.68677
3.7795	-39.57825
3.78	-12.48779
3.7805	-1.81274
3.781	13.59558
3.7815	69.58923
3.782	105.84412
3.7825	119.23828
3.783	109.67102
3.7835	96.8811
3.784	106.44836
3.7845	166.16821
3.785	274.83215
3.7855	350.26245
3.786	362.34741
3.7865	335.65979
3.787	274.22791
3.7875	201.61743
3.788	128.20129
3.7885	60.22339
3.789	13.09204
3.7895	11.17859
3.79	38.974
3.7905	85.70251
3.791	136.86218
3.7915	163.24768
3.792	157.60803
3.7925	124.07227
3.793	94.16199
3.7935	86.00464
3.794	110.87952
3.7945	165.66467
3.795	224.37744
3.7955	235.55603
3.796	204.43726
3.7965	151.46484
3.797	100.80872
3.7975	76.43738
3.798	73.51685
3.7985	50.354
3.799	28.29895
3.7995	39.17542
3.8	54.98657
3.8005	55.69153
3.801	81.17065
3.8015	117.82837
3.802	115.00854
3.8025	54.88586
3.803	-56.5979
3.8035	-181.47583
3.804	-273.22083
3.8045	-342.60864
3.805	-374.63379
3.8055	-424.28284
3.806	-432.03735
3.8065	-388.22937
3.807	-334.04846
3.8075	-254.89197
3.808	-181.97937
3.8085	-113.90076
3.809	-34.94568
3.8095	50.75684
3.81	112.28943
3.8105	133.3374
3.811	118.63403
3.8115	67.47437
3.812	-4.53186
3.8125	-55.08728
3.813	-105.23987
3.8135	-135.8551
3.814	-149.75281
3.8145	-148.4436
3.815	-127.69775
3.8155	-64.25171
3.816	-18.42957
3.8165	31.32019
3.817	150.65918
3.8175	259.52454
3.818	349.6582
3.8185	426.09558
3.819	430.62744
3.8195	424.08142
3.82	392.15698
3.8205	368.99414
3.821	392.05627
3.8215	380.37415
3.822	347.03979
3.8225	323.77625
3.823	289.03198
3.8235	244.11621
3.824	155.49316
3.8245	59.82056
3.825	-35.54993
3.8255	-35.95276
3.826	-36.55701
3.8265	-76.03455
3.827	-84.59473
3.8275	-11.17859
3.828	61.02905
3.8285	58.81348
3.829	32.62939
3.8295	-18.02673
3.83	-59.1156
3.8305	-61.23047
3.831	-50.2533
3.8315	-56.49719
3.832	-77.74658
3.8325	-82.17773
3.833	-66.16516
3.8335	-105.6427
3.834	-163.24768
3.8345	-215.31372
3.835	-247.64099
3.8355	-227.70081
3.836	-211.08398
3.8365	-225.28381
3.837	-237.87231
3.8375	-251.26648
3.838	-270.30029
3.8385	-280.87463
3.839	-285.5072
3.8395	-311.08704
3.84	-327.30103
3.8405	-309.87854
3.841	-244.82117
3.8415	-190.84167
3.842	-167.57812
3.8425	-167.88025
3.843	-160.32715
3.8435	-123.87085
3.844	-87.71667
3.8445	-74.62463
3.845	-37.66479
3.8455	68.58215
3.846	153.07617
3.8465	206.45142
3.847	222.26257
3.8475	240.79285
3.848	242.20276
3.8485	196.48132
3.849	134.24377
3.8495	61.73401
3.85	18.32886
3.8505	-2.01416
3.851	-10.77576
