Christian_Larivera_Right_1.c3d  



Time(s):	A_R_bicipite(μV):
0	10.37292
0.0005	4.53186
0.001	2.81982
0.0015	2.92053
0.002	5.74036
0.0025	4.63257
0.003	8.96301
0.0035	8.96301
0.004	7.95593
0.0045	-1.40991
0.005	2.5177
0.0055	7.25098
0.006	2.71912
0.0065	5.33752
0.007	5.53894
0.0075	0.30212
0.008	2.11487
0.0085	-0.80566
0.009	-2.21558
0.0095	1.10779
0.01	2.81982
0.0105	-0.90637
0.011	0.40283
0.0115	1.3092
0.012	6.64673
0.0125	7.85522
0.013	5.23682
0.0135	3.52478
0.014	1.81274
0.0145	5.74036
0.015	6.2439
0.0155	9.46655
0.016	6.04248
0.0165	8.25806
0.017	11.88354
0.0175	13.09204
0.018	9.97009
0.0185	14.40125
0.019	14.30054
0.0195	19.43665
0.02	14.80408
0.0205	17.42249
0.021	16.21399
0.0215	14.09912
0.022	14.30054
0.0225	13.49487
0.023	17.32178
0.0235	21.24939
0.024	19.13452
0.0245	18.53027
0.025	18.32886
0.0255	15.50903
0.026	14.40125
0.0265	19.33594
0.027	19.23523
0.0275	13.19275
0.028	18.53027
0.0285	19.43665
0.029	13.89771
0.0295	15.50903
0.03	13.39417
0.0305	8.45947
0.031	10.37292
0.0315	9.97009
0.032	8.35876
0.0325	5.13611
0.033	9.66797
0.0335	11.98425
0.034	10.77576
0.0345	6.04248
0.035	10.37292
0.0355	7.75452
0.036	11.07788
0.0365	5.13611
0.037	5.23682
0.0375	7.15027
0.038	4.93469
0.0385	8.96301
0.039	7.95593
0.0395	-0.40283
0.04	6.04248
0.0405	2.21558
0.041	-2.41699
0.0415	2.41699
0.042	1.51062
0.0425	0.60425
0.043	-0.60425
0.0435	7.15027
0.044	6.14319
0.0445	-1.2085
0.045	-3.32336
0.0455	2.81982
0.046	3.22266
0.0465	5.74036
0.047	7.25098
0.0475	6.14319
0.048	9.86938
0.0485	6.54602
0.049	5.63965
0.0495	10.97717
0.05	1.3092
0.0505	4.22974
0.051	7.85522
0.0515	4.22974
0.052	6.84814
0.0525	4.43115
0.053	4.83398
0.0535	1.2085
0.054	2.41699
0.0545	5.74036
0.055	2.31628
0.0555	5.13611
0.056	-0.50354
0.0565	1.71204
0.057	3.02124
0.0575	8.15735
0.058	4.12903
0.0585	5.13611
0.059	3.42407
0.0595	1.61133
0.06	1.61133
0.0605	7.35168
0.061	5.33752
0.0615	6.14319
0.062	-0.70496
0.0625	1.10779
0.063	-4.02832
0.0635	4.43115
0.064	1.00708
0.0645	-0.60425
0.065	5.0354
0.0655	2.31628
0.066	3.32336
0.0665	0
0.067	7.45239
0.0675	0.70496
0.068	3.52478
0.0685	5.63965
0.069	-3.42407
0.0695	-2.31628
0.07	2.5177
0.0705	0.30212
0.071	1.91345
0.0715	4.93469
0.072	0.40283
0.0725	-4.93469
0.073	-1.81274
0.0735	2.71912
0.074	3.02124
0.0745	4.53186
0.075	6.64673
0.0755	4.33044
0.076	-0.50354
0.0765	0.50354
0.077	5.63965
0.0775	1.71204
0.078	2.11487
0.0785	10.27222
0.079	4.53186
0.0795	8.96301
0.08	6.94885
0.0805	5.43823
0.081	8.56018
0.0815	10.47363
0.082	11.48071
0.0825	14.90479
0.083	10.97717
0.0835	4.53186
0.084	4.22974
0.0845	9.06372
0.085	6.44531
0.0855	8.96301
0.086	4.53186
0.0865	9.06372
0.087	6.84814
0.0875	7.85522
0.088	13.99841
0.0885	6.94885
0.089	8.05664
0.0895	13.09204
0.09	8.8623
0.0905	14.50195
0.091	15.20691
0.0915	11.48071
0.092	10.17151
0.0925	9.56726
0.093	10.17151
0.0935	9.56726
0.094	12.28638
0.0945	13.99841
0.095	14.50195
0.0955	14.50195
0.096	9.56726
0.0965	16.71753
0.097	23.26355
0.0975	15.91187
0.098	16.3147
0.0985	18.12744
0.099	12.18567
0.0995	14.50195
0.1	19.53735
0.1005	13.39417
0.101	17.6239
0.1015	16.01257
0.102	16.91895
0.1025	12.78992
0.103	10.77576
0.1035	15.40833
0.104	12.99133
0.1045	7.65381
0.105	8.45947
0.1055	14.80408
0.106	5.13611
0.1065	1.91345
0.107	11.78284
0.1075	10.57434
0.108	5.23682
0.1085	4.53186
0.109	11.2793
0.1095	10.37292
0.11	11.48071
0.1105	10.47363
0.111	6.84814
0.1115	13.797
0.112	9.46655
0.1125	10.47363
0.113	6.04248
0.1135	8.45947
0.114	3.22266
0.1145	4.12903
0.115	6.44531
0.1155	7.04956
0.116	4.93469
0.1165	3.8269
0.117	1.91345
0.1175	3.52478
0.118	7.04956
0.1185	2.41699
0.119	2.81982
0.1195	2.92053
0.12	3.7262
0.1205	6.3446
0.121	7.5531
0.1215	6.84814
0.122	2.71912
0.1225	4.63257
0.123	5.0354
0.1235	1.00708
0.124	0.30212
0.1245	-0.80566
0.125	2.81982
0.1255	-2.01416
0.126	-0.20142
0.1265	-1.00708
0.127	0
0.1275	1.61133
0.128	2.31628
0.1285	-2.41699
0.129	0.20142
0.1295	-2.31628
0.13	-0.90637
0.1305	0.50354
0.131	5.94177
0.1315	1.51062
0.132	4.43115
0.1325	3.42407
0.133	8.05664
0.1335	2.5177
0.134	5.33752
0.1345	3.7262
0.135	5.74036
0.1355	7.15027
0.136	6.14319
0.1365	9.26514
0.137	11.38
0.1375	9.16443
0.138	8.7616
0.1385	8.25806
0.139	11.98425
0.1395	8.05664
0.14	10.47363
0.1405	7.35168
0.141	7.25098
0.1415	8.56018
0.142	8.7616
0.1425	6.2439
0.143	13.19275
0.1435	7.04956
0.144	4.02832
0.1445	9.86938
0.145	7.75452
0.1455	3.62549
0.146	2.21558
0.1465	1.51062
0.147	7.95593
0.1475	5.43823
0.148	5.13611
0.1485	9.56726
0.149	8.25806
0.1495	4.93469
0.15	3.32336
0.1505	4.02832
0.151	2.5177
0.1515	1.51062
0.152	1.71204
0.1525	1.2085
0.153	-4.43115
0.1535	2.71912
0.154	0.80566
0.1545	-0.20142
0.155	0.30212
0.1555	1.40991
0.156	2.71912
0.1565	-1.40991
0.157	-2.81982
0.1575	0.20142
0.158	-0.50354
0.1585	-2.41699
0.159	-9.76868
0.1595	-6.04248
0.16	-4.93469
0.1605	-1.91345
0.161	-1.40991
0.1615	-5.53894
0.162	-3.32336
0.1625	-2.41699
0.163	3.92761
0.1635	2.21558
0.164	0.90637
0.1645	3.22266
0.165	9.66797
0.1655	10.17151
0.166	2.21558
0.1665	9.56726
0.167	11.58142
0.1675	8.96301
0.168	9.06372
0.1685	10.0708
0.169	11.78284
0.1695	4.73328
0.17	4.73328
0.1705	8.25806
0.171	6.04248
0.1715	-2.01416
0.172	7.15027
0.1725	6.54602
0.173	4.02832
0.1735	4.93469
0.174	12.28638
0.1745	8.56018
0.175	11.07788
0.1755	10.67505
0.176	7.45239
0.1765	4.53186
0.177	4.83398
0.1775	5.43823
0.178	7.45239
0.1785	10.27222
0.179	13.99841
0.1795	10.17151
0.18	14.60266
0.1805	17.01965
0.181	11.2793
0.1815	12.38708
0.182	11.98425
0.1825	10.47363
0.183	10.57434
0.1835	8.15735
0.184	10.77576
0.1845	10.67505
0.185	7.35168
0.1855	11.68213
0.186	10.77576
0.1865	9.56726
0.187	11.88354
0.1875	6.2439
0.188	11.38
0.1885	10.57434
0.189	10.47363
0.1895	11.2793
0.19	9.16443
0.1905	2.31628
0.191	3.42407
0.1915	-0.70496
0.192	1.10779
0.1925	1.40991
0.193	9.16443
0.1935	4.02832
0.194	2.92053
0.1945	3.02124
0.195	2.92053
0.1955	3.92761
0.196	6.84814
0.1965	7.15027
0.197	7.04956
0.1975	4.43115
0.198	11.68213
0.1985	11.78284
0.199	6.2439
0.1995	7.5531
0.2	5.84106
0.2005	10.97717
0.201	9.86938
0.2015	-0.10071
0.202	6.74744
0.2025	8.25806
0.203	7.85522
0.2035	4.43115
0.204	5.94177
0.2045	5.63965
0.205	3.42407
0.2055	5.33752
0.206	6.54602
0.2065	5.84106
0.207	6.3446
0.2075	8.66089
0.208	7.95593
0.2085	10.97717
0.209	8.56018
0.2095	11.88354
0.21	7.85522
0.2105	10.0708
0.211	9.26514
0.2115	9.66797
0.212	3.42407
0.2125	11.58142
0.213	9.86938
0.2135	9.06372
0.214	4.73328
0.2145	7.25098
0.215	4.83398
0.2155	3.92761
0.216	5.84106
0.2165	6.3446
0.217	4.63257
0.2175	4.33044
0.218	5.0354
0.2185	5.13611
0.219	6.94885
0.2195	5.84106
0.22	5.43823
0.2205	6.44531
0.221	6.3446
0.2215	3.12195
0.222	11.48071
0.2225	9.76868
0.223	9.97009
0.2235	6.44531
0.224	8.45947
0.2245	9.97009
0.225	14.60266
0.2255	10.97717
0.226	13.69629
0.2265	12.48779
0.227	9.36584
0.2275	9.36584
0.228	7.85522
0.2285	12.5885
0.229	12.5885
0.2295	3.7262
0.23	3.32336
0.2305	6.44531
0.231	9.36584
0.2315	4.93469
0.232	2.11487
0.2325	4.43115
0.233	7.04956
0.2335	1.91345
0.234	6.2439
0.2345	-0.50354
0.235	0.20142
0.2355	3.7262
0.236	4.12903
0.2365	5.43823
0.237	5.84106
0.2375	8.8623
0.238	7.35168
0.2385	6.54602
0.239	8.15735
0.2395	11.2793
0.24	8.15735
0.2405	8.7616
0.241	7.95593
0.2415	7.65381
0.242	10.57434
0.2425	7.25098
0.243	15.20691
0.2435	15.60974
0.244	9.16443
0.2445	9.56726
0.245	8.45947
0.2455	11.88354
0.246	10.87646
0.2465	15.71045
0.247	15.81116
0.2475	16.21399
0.248	16.81824
0.2485	14.19983
0.249	14.80408
0.2495	13.19275
0.25	8.15735
0.2505	7.95593
0.251	9.16443
0.2515	10.97717
0.252	6.94885
0.2525	9.36584
0.253	10.0708
0.2535	8.05664
0.254	7.25098
0.2545	2.61841
0.255	6.84814
0.2555	3.7262
0.256	4.12903
0.2565	-0.30212
0.257	2.11487
0.2575	6.44531
0.258	-1.40991
0.2585	0.90637
0.259	-0.40283
0.2595	0.60425
0.26	-0.60425
0.2605	-6.14319
0.261	-5.63965
0.2615	-6.3446
0.262	-5.23682
0.2625	0
0.263	-3.42407
0.2635	-3.12195
0.264	-0.80566
0.2645	1.00708
0.265	0.80566
0.2655	1.3092
0.266	-5.84106
0.2665	0.90637
0.267	6.84814
0.2675	3.12195
0.268	0.70496
0.2685	4.02832
0.269	-1.61133
0.2695	1.91345
0.27	0.20142
0.2705	4.12903
0.271	4.53186
0.2715	-0.90637
0.272	7.75452
0.2725	5.43823
0.273	-0.50354
0.2735	0.90637
0.274	3.52478
0.2745	7.5531
0.275	3.22266
0.2755	6.94885
0.276	6.74744
0.2765	7.04956
0.277	9.06372
0.2775	7.95593
0.278	0.20142
0.2785	10.27222
0.279	12.38708
0.2795	10.77576
0.28	8.8623
0.2805	9.06372
0.281	2.92053
0.2815	5.74036
0.282	3.62549
0.2825	-2.92053
0.283	1.10779
0.2835	-2.11487
0.284	-5.13611
0.2845	-1.71204
0.285	-2.41699
0.2855	7.25098
0.286	6.84814
0.2865	3.92761
0.287	0.80566
0.2875	-0.60425
0.288	1.51062
0.2885	2.41699
0.289	3.92761
0.2895	-0.10071
0.29	0.30212
0.2905	2.61841
0.291	0.10071
0.2915	4.43115
0.292	1.3092
0.2925	4.02832
0.293	-0.40283
0.2935	2.11487
0.294	1.40991
0.2945	2.01416
0.295	3.52478
0.2955	5.53894
0.296	7.45239
0.2965	5.94177
0.297	8.56018
0.2975	7.85522
0.298	6.04248
0.2985	8.15735
0.299	4.43115
0.2995	4.02832
0.3	4.53186
0.3005	5.53894
0.301	7.75452
0.3015	7.5531
0.302	9.36584
0.3025	9.76868
0.303	8.25806
0.3035	5.74036
0.304	3.52478
0.3045	6.3446
0.305	4.53186
0.3055	7.45239
0.306	6.64673
0.3065	5.63965
0.307	4.83398
0.3075	-0.60425
0.308	4.53186
0.3085	10.27222
0.309	4.02832
0.3095	5.13611
0.31	2.41699
0.3105	4.93469
0.311	3.62549
0.3115	5.53894
0.312	2.21558
0.3125	5.13611
0.313	2.11487
0.3135	0.50354
0.314	1.2085
0.3145	3.22266
0.315	-1.71204
0.3155	-4.12903
0.316	3.12195
0.3165	5.13611
0.317	-1.71204
0.3175	-2.41699
0.318	-2.31628
0.3185	-1.91345
0.319	0
0.3195	-1.00708
0.32	-5.43823
0.3205	-3.42407
0.321	-3.32336
0.3215	-1.71204
0.322	-6.84814
0.3225	-6.04248
0.323	0.80566
0.3235	-4.53186
0.324	-2.31628
0.3245	-1.91345
0.325	-2.11487
0.3255	-0.30212
0.326	-4.02832
0.3265	-3.62549
0.327	-2.21558
0.3275	-6.04248
0.328	-2.92053
0.3285	-4.63257
0.329	1.2085
0.3295	2.21558
0.33	4.43115
0.3305	0.50354
0.331	6.84814
0.3315	6.04248
0.332	5.74036
0.3325	6.94885
0.333	5.23682
0.3335	8.35876
0.334	10.27222
0.3345	14.90479
0.335	17.32178
0.3355	15.1062
0.336	10.0708
0.3365	7.35168
0.337	4.12903
0.3375	6.84814
0.338	8.7616
0.3385	7.45239
0.339	11.38
0.3395	8.05664
0.34	9.46655
0.3405	4.83398
0.341	8.96301
0.3415	11.2793
0.342	12.68921
0.3425	15.1062
0.343	14.90479
0.3435	11.68213
0.344	12.08496
0.3445	5.53894
0.345	13.797
0.3455	13.29346
0.346	8.05664
0.3465	15.91187
0.347	11.48071
0.3475	7.95593
0.348	6.44531
0.3485	14.40125
0.349	16.11328
0.3495	9.16443
0.35	11.48071
0.3505	9.86938
0.351	12.48779
0.3515	8.05664
0.352	11.58142
0.3525	12.99133
0.353	4.63257
0.3535	7.95593
0.354	6.94885
0.3545	2.21558
0.355	9.56726
0.3555	7.35168
0.356	4.83398
0.3565	0.50354
0.357	-2.41699
0.3575	-0.50354
0.358	-0.80566
0.3585	3.42407
0.359	-3.62549
0.3595	1.10779
0.36	4.02832
0.3605	3.7262
0.361	2.31628
0.3615	0.20142
0.362	1.51062
0.3625	3.22266
0.363	-1.3092
0.3635	1.10779
0.364	-1.00708
0.3645	0.30212
0.365	2.61841
0.3655	-0.10071
0.366	-1.71204
0.3665	-1.00708
0.367	3.12195
0.3675	0.30212
0.368	3.7262
0.3685	5.0354
0.369	10.87646
0.3695	4.83398
0.37	5.74036
0.3705	6.84814
0.371	3.92761
0.3715	6.04248
0.372	8.66089
0.3725	10.87646
0.373	7.85522
0.3735	8.35876
0.374	4.12903
0.3745	9.97009
0.375	7.45239
0.3755	9.97009
0.376	9.56726
0.3765	8.66089
0.377	7.95593
0.3775	10.57434
0.378	11.2793
0.3785	15.30762
0.379	10.37292
0.3795	11.88354
0.38	12.48779
0.3805	11.78284
0.381	14.60266
0.3815	14.50195
0.382	10.97717
0.3825	13.29346
0.383	7.75452
0.3835	6.14319
0.384	7.85522
0.3845	6.3446
0.385	9.36584
0.3855	8.45947
0.386	5.0354
0.3865	8.45947
0.387	6.64673
0.3875	4.83398
0.388	7.5531
0.3885	7.15027
0.389	6.74744
0.3895	12.99133
0.39	2.71912
0.3905	4.43115
0.391	4.53186
0.3915	5.74036
0.392	3.22266
0.3925	-1.71204
0.393	2.71912
0.3935	4.93469
0.394	4.12903
0.3945	0.70496
0.395	1.40991
0.3955	1.91345
0.396	-0.50354
0.3965	8.05664
0.397	1.51062
0.3975	3.52478
0.398	-2.11487
0.3985	1.00708
0.399	-0.80566
0.3995	-1.91345
0.4	-1.91345
0.4005	-4.53186
0.401	-2.41699
0.4015	-1.81274
0.402	1.40991
0.4025	2.81982
0.403	4.02832
0.4035	5.43823
0.404	-2.71912
0.4045	3.62549
0.405	5.33752
0.4055	5.0354
0.406	5.94177
0.4065	4.02832
0.407	1.10779
0.4075	9.86938
0.408	2.41699
0.4085	7.75452
0.409	7.95593
0.4095	10.47363
0.41	8.66089
0.4105	4.12903
0.411	8.7616
0.4115	5.43823
0.412	1.3092
0.4125	5.13611
0.413	2.41699
0.4135	4.73328
0.414	6.44531
0.4145	8.45947
0.415	7.5531
0.4155	5.0354
0.416	5.53894
0.4165	3.32336
0.417	1.00708
0.4175	7.15027
0.418	6.04248
0.4185	4.83398
0.419	4.43115
0.4195	11.07788
0.42	4.12903
0.4205	6.54602
0.421	0.70496
0.4215	0
0.422	1.51062
0.4225	1.61133
0.423	4.93469
0.4235	7.5531
0.424	3.52478
0.4245	4.53186
0.425	0.70496
0.4255	3.52478
0.426	6.14319
0.4265	8.8623
0.427	6.2439
0.4275	4.33044
0.428	9.46655
0.4285	9.26514
0.429	9.56726
0.4295	4.33044
0.43	12.68921
0.4305	9.56726
0.431	12.89062
0.4315	9.16443
0.432	7.85522
0.4325	6.94885
0.433	4.02832
0.4335	8.96301
0.434	9.56726
0.4345	4.53186
0.435	5.43823
0.4355	2.41699
0.436	1.61133
0.4365	2.5177
0.437	3.7262
0.4375	0.40283
0.438	-0.40283
0.4385	-0.20142
0.439	7.75452
0.4395	4.73328
0.44	5.53894
0.4405	5.13611
0.441	9.16443
0.4415	10.77576
0.442	3.02124
0.4425	3.52478
0.443	6.84814
0.4435	4.33044
0.444	10.27222
0.4445	4.22974
0.445	2.61841
0.4455	4.22974
0.446	3.7262
0.4465	5.13611
0.447	4.12903
0.4475	4.53186
0.448	7.25098
0.4485	3.52478
0.449	3.12195
0.4495	7.25098
0.45	3.02124
0.4505	8.05664
0.451	3.42407
0.4515	1.81274
0.452	9.56726
0.4525	5.84106
0.453	4.22974
0.4535	8.56018
0.454	6.2439
0.4545	3.92761
0.455	3.52478
0.4555	-0.20142
0.456	4.22974
0.4565	6.84814
0.457	2.11487
0.4575	-1.10779
0.458	1.71204
0.4585	0.30212
0.459	2.5177
0.4595	1.51062
0.46	-1.71204
0.4605	1.61133
0.461	1.91345
0.4615	0.70496
0.462	-0.90637
0.4625	2.61841
0.463	4.02832
0.4635	0.80566
0.464	4.73328
0.4645	0.50354
0.465	-4.22974
0.4655	4.33044
0.466	2.21558
0.4665	6.44531
0.467	2.5177
0.4675	4.12903
0.468	3.42407
0.4685	7.25098
0.469	3.7262
0.4695	8.96301
0.47	4.33044
0.4705	4.02832
0.471	5.53894
0.4715	2.92053
0.472	-1.91345
0.4725	0.20142
0.473	4.33044
0.4735	6.64673
0.474	2.71912
0.4745	2.61841
0.475	6.54602
0.4755	5.33752
0.476	11.58142
0.4765	12.08496
0.477	10.17151
0.4775	10.0708
0.478	9.36584
0.4785	15.00549
0.479	12.89062
0.4795	11.58142
0.48	19.13452
0.4805	20.44373
0.481	15.40833
0.4815	15.91187
0.482	18.42957
0.4825	19.53735
0.483	16.01257
0.4835	17.22107
0.484	19.94019
0.4845	16.91895
0.485	14.40125
0.4855	17.12036
0.486	12.5885
0.4865	16.61682
0.487	15.91187
0.4875	17.82532
0.488	19.53735
0.4885	12.5885
0.489	12.5885
0.4895	10.57434
0.49	11.2793
0.4905	15.20691
0.491	12.48779
0.4915	14.19983
0.492	12.68921
0.4925	19.03381
0.493	9.86938
0.4935	18.12744
0.494	19.43665
0.4945	17.82532
0.495	12.68921
0.4955	9.16443
0.496	6.84814
0.4965	9.26514
0.497	4.83398
0.4975	3.62549
0.498	4.73328
0.4985	5.63965
0.499	6.84814
0.4995	9.36584
0.5	10.77576
0.5005	13.89771
0.501	8.56018
0.5015	8.25806
0.502	8.96301
0.5025	5.94177
0.503	12.48779
0.5035	10.37292
0.504	15.30762
0.5045	9.16443
0.505	12.48779
0.5055	14.09912
0.506	7.85522
0.5065	9.66797
0.507	12.28638
0.5075	10.0708
0.508	10.17151
0.5085	9.16443
0.509	7.35168
0.5095	13.49487
0.51	19.53735
0.5105	9.26514
0.511	10.77576
0.5115	7.95593
0.512	8.7616
0.5125	4.53186
0.513	9.36584
0.5135	8.15735
0.514	8.7616
0.5145	1.40991
0.515	2.41699
0.5155	11.17859
0.516	11.58142
0.5165	13.89771
0.517	9.06372
0.5175	12.68921
0.518	10.47363
0.5185	18.93311
0.519	13.49487
0.5195	10.37292
0.52	8.7616
0.5205	9.76868
0.521	12.38708
0.5215	8.25806
0.522	8.05664
0.5225	10.77576
0.523	13.797
0.5235	5.23682
0.524	4.12903
0.5245	5.74036
0.525	6.44531
0.5255	1.51062
0.526	3.92761
0.5265	-2.11487
0.527	1.00708
0.5275	5.0354
0.528	3.52478
0.5285	-0.70496
0.529	0.40283
0.5295	-2.61841
0.53	5.43823
0.5305	1.00708
0.531	0.80566
0.5315	1.51062
0.532	1.91345
0.5325	1.61133
0.533	-0.50354
0.5335	2.5177
0.534	0.40283
0.5345	3.92761
0.535	2.71912
0.5355	4.02832
0.536	5.94177
0.5365	-3.12195
0.537	0.80566
0.5375	1.71204
0.538	-1.10779
0.5385	-0.80566
0.539	-2.31628
0.5395	2.31628
0.54	3.52478
0.5405	5.13611
0.541	1.51062
0.5415	6.04248
0.542	5.53894
0.5425	5.33752
0.543	3.42407
0.5435	0.10071
0.544	2.11487
0.5445	3.22266
0.545	6.2439
0.5455	4.43115
0.546	4.53186
0.5465	6.84814
0.547	3.02124
0.5475	9.97009
0.548	7.85522
0.5485	3.8269
0.549	3.7262
0.5495	4.33044
0.55	7.65381
0.5505	2.41699
0.551	1.2085
0.5515	1.61133
0.552	6.14319
0.5525	7.5531
0.553	6.04248
0.5535	3.92761
0.554	5.84106
0.5545	5.13611
0.555	8.15735
0.5555	10.27222
0.556	8.7616
0.5565	8.25806
0.557	9.46655
0.5575	3.7262
0.558	11.38
0.5585	6.54602
0.559	2.11487
0.5595	6.2439
0.56	8.66089
0.5605	1.71204
0.561	5.13611
0.5615	6.04248
0.562	3.32336
0.5625	7.35168
0.563	5.53894
0.5635	5.23682
0.564	1.91345
0.5645	9.46655
0.565	2.11487
0.5655	0.10071
0.566	6.3446
0.5665	3.7262
0.567	3.02124
0.5675	4.83398
0.568	3.02124
0.5685	7.04956
0.569	7.35168
0.5695	9.36584
0.57	4.02832
0.5705	10.77576
0.571	9.97009
0.5715	11.2793
0.572	3.62549
0.5725	4.33044
0.573	3.32336
0.5735	3.7262
0.574	1.51062
0.5745	0.50354
0.575	-2.31628
0.5755	-3.92761
0.576	-0.30212
0.5765	3.7262
0.577	0.90637
0.5775	1.40991
0.578	4.02832
0.5785	7.35168
0.579	5.23682
0.5795	3.22266
0.58	3.42407
0.5805	2.71912
0.581	4.63257
0.5815	1.40991
0.582	5.13611
0.5825	6.3446
0.583	10.37292
0.5835	4.53186
0.584	6.14319
0.5845	9.46655
0.585	11.07788
0.5855	7.85522
0.586	7.45239
0.5865	7.25098
0.587	4.33044
0.5875	2.5177
0.588	2.71912
0.5885	2.71912
0.589	2.92053
0.5895	1.51062
0.59	5.0354
0.5905	5.84106
0.591	5.53894
0.5915	8.56018
0.592	7.95593
0.5925	9.26514
0.593	15.30762
0.5935	11.17859
0.594	9.26514
0.5945	10.77576
0.595	9.76868
0.5955	10.47363
0.596	14.30054
0.5965	19.83948
0.597	20.1416
0.5975	18.63098
0.598	18.42957
0.5985	13.69629
0.599	16.41541
0.5995	15.91187
0.6	17.22107
0.6005	17.12036
0.601	14.30054
0.6015	14.70337
0.602	14.70337
0.6025	23.96851
0.603	12.89062
0.6035	12.89062
0.604	13.69629
0.6045	13.09204
0.605	10.97717
0.6055	9.86938
0.606	10.77576
0.6065	2.5177
0.607	2.61841
0.6075	0.70496
0.608	7.35168
0.6085	4.53186
0.609	4.73328
0.6095	5.63965
0.61	0.70496
0.6105	0.30212
0.611	2.92053
0.6115	3.12195
0.612	6.14319
0.6125	4.33044
0.613	2.01416
0.6135	1.2085
0.614	0
0.6145	5.63965
0.615	3.22266
0.6155	1.91345
0.616	8.05664
0.6165	2.81982
0.617	-1.81274
0.6175	0.20142
0.618	0.50354
0.6185	2.41699
0.619	3.7262
0.6195	7.75452
0.62	2.41699
0.6205	3.02124
0.621	6.2439
0.6215	-1.61133
0.622	-1.00708
0.6225	-0.20142
0.623	5.74036
0.6235	4.22974
0.624	4.43115
0.6245	9.06372
0.625	2.81982
0.6255	7.5531
0.626	3.42407
0.6265	7.95593
0.627	9.56726
0.6275	11.58142
0.628	11.48071
0.6285	12.08496
0.629	17.12036
0.6295	17.01965
0.63	14.70337
0.6305	8.8623
0.631	11.68213
0.6315	10.37292
0.632	10.57434
0.6325	13.797
0.633	10.67505
0.6335	12.89062
0.634	11.17859
0.6345	13.797
0.635	15.1062
0.6355	14.70337
0.636	14.40125
0.6365	11.38
0.637	14.90479
0.6375	12.28638
0.638	15.91187
0.6385	13.89771
0.639	16.3147
0.6395	11.58142
0.64	9.56726
0.6405	10.0708
0.641	4.12903
0.6415	7.15027
0.642	10.97717
0.6425	9.86938
0.643	6.2439
0.6435	6.14319
0.644	5.23682
0.6445	12.08496
0.645	8.56018
0.6455	5.94177
0.646	11.38
0.6465	10.0708
0.647	14.50195
0.6475	16.51611
0.648	15.20691
0.6485	11.2793
0.649	14.19983
0.6495	13.797
0.65	14.90479
0.6505	12.89062
0.651	11.58142
0.6515	12.89062
0.652	12.99133
0.6525	16.61682
0.653	14.60266
0.6535	16.81824
0.654	19.23523
0.6545	17.82532
0.655	15.71045
0.6555	12.99133
0.656	16.61682
0.6565	12.78992
0.657	14.50195
0.6575	13.797
0.658	19.03381
0.6585	19.73877
0.659	17.01965
0.6595	18.12744
0.66	16.91895
0.6605	20.54443
0.661	16.11328
0.6615	18.12744
0.662	11.48071
0.6625	11.17859
0.663	18.22815
0.6635	14.09912
0.664	18.73169
0.6645	15.00549
0.665	15.30762
0.6655	13.19275
0.666	14.60266
0.6665	16.61682
0.667	14.19983
0.6675	17.12036
0.668	11.58142
0.6685	13.29346
0.669	14.30054
0.6695	16.21399
0.67	13.99841
0.6705	8.7616
0.671	5.53894
0.6715	8.66089
0.672	8.8623
0.6725	9.76868
0.673	9.56726
0.6735	5.74036
0.674	7.95593
0.6745	3.12195
0.675	4.02832
0.6755	2.61841
0.676	3.92761
0.6765	2.71912
0.677	5.74036
0.6775	7.65381
0.678	5.13611
0.6785	7.45239
0.679	9.16443
0.6795	11.88354
0.68	8.05664
0.6805	7.95593
0.681	8.66089
0.6815	8.45947
0.682	14.19983
0.6825	12.18567
0.683	5.63965
0.6835	11.78284
0.684	7.85522
0.6845	8.8623
0.685	10.47363
0.6855	17.01965
0.686	11.78284
0.6865	10.57434
0.687	6.64673
0.6875	13.49487
0.688	8.05664
0.6885	6.2439
0.689	7.15027
0.6895	11.68213
0.69	8.7616
0.6905	5.0354
0.691	6.44531
0.6915	1.3092
0.692	5.94177
0.6925	6.3446
0.693	1.3092
0.6935	1.3092
0.694	4.83398
0.6945	2.71912
0.695	8.96301
0.6955	2.71912
0.696	-0.40283
0.6965	3.8269
0.697	4.22974
0.6975	-1.00708
0.698	7.95593
0.6985	4.83398
0.699	4.53186
0.6995	6.04248
0.7	8.45947
0.7005	2.11487
0.701	-1.91345
0.7015	4.53186
0.702	1.61133
0.7025	2.41699
0.703	-1.10779
0.7035	6.2439
0.704	0.10071
0.7045	3.22266
0.705	2.41699
0.7055	5.74036
0.706	2.71912
0.7065	2.71912
0.707	6.04248
0.7075	4.02832
0.708	4.12903
0.7085	2.71912
0.709	8.05664
0.7095	8.15735
0.71	9.06372
0.7105	4.22974
0.711	4.53186
0.7115	3.42407
0.712	3.12195
0.7125	6.74744
0.713	3.92761
0.7135	-0.90637
0.714	3.7262
0.7145	1.40991
0.715	2.71912
0.7155	2.21558
0.716	6.04248
0.7165	5.74036
0.717	1.10779
0.7175	-1.2085
0.718	-2.92053
0.7185	1.51062
0.719	-1.91345
0.7195	-0.40283
0.72	1.10779
0.7205	0.40283
0.721	-1.2085
0.7215	1.10779
0.722	-2.01416
0.7225	-3.62549
0.723	-4.43115
0.7235	3.52478
0.724	0.70496
0.7245	0
0.725	-0.10071
0.7255	-1.00708
0.726	-4.02832
0.7265	-4.93469
0.727	-2.41699
0.7275	0.70496
0.728	-4.33044
0.7285	-5.23682
0.729	-4.12903
0.7295	-0.60425
0.73	-2.92053
0.7305	1.51062
0.731	4.12903
0.7315	1.91345
0.732	5.33752
0.7325	3.92761
0.733	1.71204
0.7335	3.02124
0.734	1.91345
0.7345	2.21558
0.735	-0.30212
0.7355	0.30212
0.736	-0.70496
0.7365	-1.3092
0.737	6.14319
0.7375	0.10071
0.738	-5.0354
0.7385	-0.90637
0.739	3.92761
0.7395	4.73328
0.74	-2.01416
0.7405	-4.43115
0.741	-1.3092
0.7415	-3.42407
0.742	4.83398
0.7425	0.70496
0.743	7.85522
0.7435	6.3446
0.744	1.71204
0.7445	-1.2085
0.745	5.74036
0.7455	2.41699
0.746	7.85522
0.7465	3.22266
0.747	10.37292
0.7475	9.36584
0.748	8.25806
0.7485	8.15735
0.749	9.06372
0.7495	7.45239
0.75	7.75452
0.7505	13.797
0.751	12.48779
0.7515	8.35876
0.752	6.84814
0.7525	5.23682
0.753	7.85522
0.7535	7.85522
0.754	2.21558
0.7545	0.70496
0.755	-1.71204
0.7555	-2.92053
0.756	-1.10779
0.7565	-0.70496
0.757	3.8269
0.7575	3.42407
0.758	-1.40991
0.7585	2.11487
0.759	3.32336
0.7595	1.3092
0.76	-3.42407
0.7605	4.12903
0.761	-2.5177
0.7615	-1.81274
0.762	0
0.7625	-2.92053
0.763	0.70496
0.7635	2.21558
0.764	0.70496
0.7645	-0.20142
0.765	6.74744
0.7655	4.43115
0.766	2.01416
0.7665	4.43115
0.767	2.11487
0.7675	-0.70496
0.768	5.74036
0.7685	6.04248
0.769	6.14319
0.7695	13.49487
0.77	6.2439
0.7705	2.21558
0.771	6.54602
0.7715	6.84814
0.772	7.75452
0.7725	8.96301
0.773	3.92761
0.7735	1.00708
0.774	5.43823
0.7745	1.00708
0.775	6.04248
0.7755	5.33752
0.776	5.43823
0.7765	3.7262
0.777	1.91345
0.7775	-0.30212
0.778	2.81982
0.7785	-0.40283
0.779	2.81982
0.7795	3.42407
0.78	0.80566
0.7805	4.53186
0.781	0
0.7815	0
0.782	3.8269
0.7825	1.81274
0.783	-2.81982
0.7835	2.01416
0.784	-4.43115
0.7845	1.3092
0.785	-1.71204
0.7855	1.10779
0.786	3.32336
0.7865	-0.60425
0.787	-1.51062
0.7875	-6.44531
0.788	-4.83398
0.7885	-2.61841
0.789	-2.21558
0.7895	-6.2439
0.79	-4.53186
0.7905	-0.60425
0.791	1.40991
0.7915	4.12903
0.792	0.70496
0.7925	2.41699
0.793	2.01416
0.7935	3.8269
0.794	4.73328
0.7945	3.22266
0.795	2.41699
0.7955	-1.00708
0.796	3.62549
0.7965	9.26514
0.797	5.94177
0.7975	6.84814
0.798	7.25098
0.7985	15.20691
0.799	12.18567
0.7995	10.17151
0.8	6.44531
0.8005	4.33044
0.801	9.26514
0.8015	3.8269
0.802	5.84106
0.8025	5.53894
0.803	8.15735
0.8035	14.40125
0.804	13.09204
0.8045	7.65381
0.805	7.35168
0.8055	12.18567
0.806	12.5885
0.8065	15.1062
0.807	17.6239
0.8075	21.75293
0.808	18.93311
0.8085	16.41541
0.809	15.71045
0.8095	10.57434
0.81	15.30762
0.8105	10.37292
0.811	9.36584
0.8115	11.07788
0.812	9.86938
0.8125	11.2793
0.813	11.98425
0.8135	9.46655
0.814	7.65381
0.8145	7.65381
0.815	11.98425
0.8155	8.8623
0.816	8.8623
0.8165	12.18567
0.817	12.68921
0.8175	12.5885
0.818	7.85522
0.8185	11.17859
0.819	5.53894
0.8195	6.84814
0.82	12.89062
0.8205	10.97717
0.821	8.7616
0.8215	14.50195
0.822	14.80408
0.8225	14.90479
0.823	6.44531
0.8235	8.35876
0.824	10.47363
0.8245	7.95593
0.825	4.22974
0.8255	9.26514
0.826	3.8269
0.8265	7.15027
0.827	6.64673
0.8275	6.94885
0.828	7.5531
0.8285	6.2439
0.829	10.87646
0.8295	8.7616
0.83	8.66089
0.8305	6.84814
0.831	3.32336
0.8315	5.33752
0.832	6.64673
0.8325	8.45947
0.833	9.36584
0.8335	9.76868
0.834	14.50195
0.8345	8.96301
0.835	12.38708
0.8355	10.37292
0.836	5.63965
0.8365	3.32336
0.837	9.56726
0.8375	4.73328
0.838	4.83398
0.8385	6.74744
0.839	2.31628
0.8395	3.22266
0.84	4.43115
0.8405	5.94177
0.841	7.15027
0.8415	2.41699
0.842	5.84106
0.8425	12.38708
0.843	7.65381
0.8435	0.80566
0.844	6.84814
0.8445	1.81274
0.845	4.43115
0.8455	4.33044
0.846	3.8269
0.8465	2.81982
0.847	2.11487
0.8475	5.53894
0.848	5.74036
0.8485	4.83398
0.849	3.52478
0.8495	1.51062
0.85	-1.81274
0.8505	1.81274
0.851	4.22974
0.8515	2.71912
0.852	-0.20142
0.8525	1.10779
0.853	-0.70496
0.8535	-0.20142
0.854	3.12195
0.8545	2.41699
0.855	3.62549
0.8555	1.00708
0.856	5.0354
0.8565	2.81982
0.857	6.44531
0.8575	9.66797
0.858	10.87646
0.8585	9.97009
0.859	11.48071
0.8595	6.14319
0.86	4.83398
0.8605	5.0354
0.861	9.56726
0.8615	4.12903
0.862	8.56018
0.8625	4.83398
0.863	5.23682
0.8635	7.65381
0.864	1.61133
0.8645	6.94885
0.865	6.54602
0.8655	8.35876
0.866	8.05664
0.8665	4.73328
0.867	3.12195
0.8675	1.81274
0.868	8.15735
0.8685	6.54602
0.869	5.23682
0.8695	3.8269
0.87	8.35876
0.8705	6.04248
0.871	1.81274
0.8715	6.54602
0.872	8.96301
0.8725	10.0708
0.873	13.09204
0.8735	11.98425
0.874	11.07788
0.8745	9.26514
0.875	11.58142
0.8755	11.17859
0.876	2.41699
0.8765	12.18567
0.877	8.35876
0.8775	7.25098
0.878	10.17151
0.8785	6.84814
0.879	7.45239
0.8795	7.75452
0.88	7.75452
0.8805	3.62549
0.881	1.81274
0.8815	5.23682
0.882	6.04248
0.8825	0.30212
0.883	6.14319
0.8835	0.50354
0.884	1.40991
0.8845	4.73328
0.885	9.26514
0.8855	7.5531
0.886	4.43115
0.8865	8.8623
0.887	7.65381
0.8875	7.85522
0.888	6.44531
0.8885	8.56018
0.889	8.45947
0.8895	6.54602
0.89	7.35168
0.8905	3.7262
0.891	6.3446
0.8915	1.3092
0.892	6.3446
0.8925	8.45947
0.893	6.94885
0.8935	1.40991
0.894	0.20142
0.8945	12.18567
0.895	2.01416
0.8955	8.45947
0.896	4.12903
0.8965	2.31628
0.897	-0.80566
0.8975	1.3092
0.898	3.32336
0.8985	3.92761
0.899	5.33752
0.8995	3.8269
0.9	4.83398
0.9005	6.64673
0.901	9.76868
0.9015	8.05664
0.902	3.52478
0.9025	8.05664
0.903	7.45239
0.9035	2.61841
0.904	10.0708
0.9045	11.88354
0.905	11.48071
0.9055	10.87646
0.906	11.58142
0.9065	10.0708
0.907	10.37292
0.9075	12.89062
0.908	14.90479
0.9085	9.06372
0.909	13.39417
0.9095	8.7616
0.91	9.06372
0.9105	11.07788
0.911	9.16443
0.9115	11.68213
0.912	11.48071
0.9125	6.84814
0.913	7.65381
0.9135	9.26514
0.914	11.2793
0.9145	5.84106
0.915	11.17859
0.9155	8.8623
0.916	9.76868
0.9165	8.45947
0.917	11.48071
0.9175	10.47363
0.918	6.64673
0.9185	8.45947
0.919	10.57434
0.9195	8.05664
0.92	4.33044
0.9205	5.0354
0.921	9.76868
0.9215	7.15027
0.922	1.61133
0.9225	0.30212
0.923	2.41699
0.9235	4.22974
0.924	-5.33752
0.9245	1.51062
0.925	-3.62549
0.9255	-5.94177
0.926	-4.53186
0.9265	-2.92053
0.927	-0.70496
0.9275	2.31628
0.928	1.81274
0.9285	-0.90637
0.929	6.04248
0.9295	3.92761
0.93	9.56726
0.9305	8.45947
0.931	13.09204
0.9315	8.05664
0.932	6.14319
0.9325	8.56018
0.933	6.04248
0.9335	7.65381
0.934	4.73328
0.9345	4.12903
0.935	4.43115
0.9355	-4.22974
0.936	2.41699
0.9365	0.80566
0.937	3.92761
0.9375	3.02124
0.938	5.33752
0.9385	1.81274
0.939	1.61133
0.9395	-0.30212
0.94	1.40991
0.9405	7.75452
0.941	4.83398
0.9415	6.14319
0.942	5.43823
0.9425	3.42407
0.943	1.51062
0.9435	5.0354
0.944	5.0354
0.9445	3.7262
0.945	3.92761
0.9455	7.45239
0.946	3.22266
0.9465	7.15027
0.947	7.85522
0.9475	3.42407
0.948	3.7262
0.9485	4.93469
0.949	7.25098
0.9495	0.30212
0.95	5.0354
0.9505	2.5177
0.951	3.42407
0.9515	-0.90637
0.952	2.61841
0.9525	6.64673
0.953	6.84814
0.9535	2.31628
0.954	-0.40283
0.9545	3.12195
0.955	6.64673
0.9555	-0.10071
0.956	-1.10779
0.9565	2.81982
0.957	2.92053
0.9575	11.2793
0.958	4.02832
0.9585	9.76868
0.959	11.98425
0.9595	4.43115
0.96	10.67505
0.9605	10.77576
0.961	11.78284
0.9615	7.5531
0.962	12.38708
0.9625	10.0708
0.963	7.65381
0.9635	12.99133
0.964	11.38
0.9645	12.48779
0.965	12.99133
0.9655	13.29346
0.966	10.57434
0.9665	10.27222
0.967	7.15027
0.9675	11.88354
0.968	13.99841
0.9685	10.47363
0.969	10.27222
0.9695	7.85522
0.97	6.3446
0.9705	10.17151
0.971	4.83398
0.9715	7.35168
0.972	7.04956
0.9725	5.53894
0.973	4.83398
0.9735	4.53186
0.974	6.04248
0.9745	5.33752
0.975	0.70496
0.9755	6.2439
0.976	3.42407
0.9765	4.02832
0.977	7.65381
0.9775	5.84106
0.978	8.05664
0.9785	6.2439
0.979	9.76868
0.9795	7.04956
0.98	8.96301
0.9805	4.53186
0.981	7.15027
0.9815	9.16443
0.982	8.7616
0.9825	11.38
0.983	10.0708
0.9835	7.75452
0.984	7.95593
0.9845	11.88354
0.985	8.35876
0.9855	13.69629
0.986	7.15027
0.9865	9.26514
0.987	8.7616
0.9875	9.26514
0.988	7.25098
0.9885	8.7616
0.989	11.2793
0.9895	14.70337
0.99	10.17151
0.9905	12.48779
0.991	6.94885
0.9915	8.45947
0.992	8.25806
0.9925	8.8623
0.993	7.15027
0.9935	8.35876
0.994	7.95593
0.9945	5.13611
0.995	7.45239
0.9955	4.02832
0.996	0.10071
0.9965	8.35876
0.997	0.30212
0.9975	3.92761
0.998	4.43115
0.9985	4.43115
0.999	8.45947
0.9995	5.94177
1	4.93469
1.0005	4.12903
1.001	8.96301
1.0015	5.0354
1.002	7.45239
1.0025	-0.40283
1.003	2.71912
1.0035	8.25806
1.004	7.25098
1.0045	4.43115
1.005	4.63257
1.0055	2.31628
1.006	7.04956
1.0065	6.64673
1.007	8.66089
1.0075	6.2439
1.008	11.17859
1.0085	9.46655
1.009	10.17151
1.0095	8.66089
1.01	7.5531
1.0105	1.91345
1.011	5.84106
1.0115	0.70496
1.012	3.02124
1.0125	4.63257
1.013	6.04248
1.0135	7.75452
1.014	4.12903
1.0145	2.01416
1.015	0.40283
1.0155	5.0354
1.016	9.36584
1.0165	4.02832
1.017	3.22266
1.0175	4.63257
1.018	12.08496
1.0185	5.0354
1.019	6.3446
1.0195	4.12903
1.02	5.63965
1.0205	7.85522
1.021	8.35876
1.0215	9.76868
1.022	7.65381
1.0225	10.57434
1.023	6.14319
1.0235	8.96301
1.024	9.86938
1.0245	12.48779
1.025	9.86938
1.0255	9.66797
1.026	11.98425
1.0265	9.56726
1.027	9.86938
1.0275	9.97009
1.028	14.40125
1.0285	12.78992
1.029	11.88354
1.0295	15.20691
1.03	13.49487
1.0305	13.89771
1.031	11.58142
1.0315	16.21399
1.032	13.89771
1.0325	10.57434
1.033	10.27222
1.0335	7.5531
1.034	10.47363
1.0345	3.42407
1.035	11.58142
1.0355	2.01416
1.036	6.44531
1.0365	7.75452
1.037	6.04248
1.0375	13.29346
1.038	12.08496
1.0385	4.93469
1.039	7.35168
1.0395	7.04956
1.04	11.07788
1.0405	6.2439
1.041	2.41699
1.0415	11.07788
1.042	5.23682
1.0425	10.87646
1.043	5.23682
1.0435	7.15027
1.044	10.37292
1.0445	8.96301
1.045	4.53186
1.0455	14.19983
1.046	11.58142
1.0465	5.23682
1.047	11.68213
1.0475	6.14319
1.048	8.05664
1.0485	3.7262
1.049	0.50354
1.0495	3.62549
1.05	9.26514
1.0505	6.64673
1.051	10.27222
1.0515	10.17151
1.052	8.05664
1.0525	8.66089
1.053	1.71204
1.0535	6.84814
1.054	7.5531
1.0545	8.15735
1.055	10.47363
1.0555	8.25806
1.056	9.06372
1.0565	6.2439
1.057	8.8623
1.0575	7.35168
1.058	6.04248
1.0585	7.35168
1.059	5.13611
1.0595	2.41699
1.06	2.71912
1.0605	0.10071
1.061	-4.12903
1.0615	1.40991
1.062	1.2085
1.0625	2.61841
1.063	4.02832
1.0635	5.23682
1.064	5.74036
1.0645	4.73328
1.065	5.94177
1.0655	5.94177
1.066	2.92053
1.0665	7.45239
1.067	7.35168
1.0675	7.15027
1.068	4.93469
1.0685	7.85522
1.069	8.8623
1.0695	10.0708
1.07	8.05664
1.0705	15.00549
1.071	9.76868
1.0715	11.38
1.072	8.35876
1.0725	9.76868
1.073	6.74744
1.0735	15.1062
1.074	12.5885
1.0745	8.66089
1.075	2.31628
1.0755	3.42407
1.076	9.97009
1.0765	9.56726
1.077	8.15735
1.0775	-0.90637
1.078	2.5177
1.0785	2.61841
1.079	1.71204
1.0795	-0.90637
1.08	2.61841
1.0805	5.23682
1.081	-1.40991
1.0815	1.2085
1.082	2.01416
1.0825	5.94177
1.083	2.41699
1.0835	2.71912
1.084	1.81274
1.0845	2.71912
1.085	0.50354
1.0855	0.50354
1.086	3.02124
1.0865	6.54602
1.087	5.13611
1.0875	4.33044
1.088	10.27222
1.0885	12.08496
1.089	8.15735
1.0895	9.06372
1.09	5.0354
1.0905	9.76868
1.091	8.7616
1.0915	4.73328
1.092	2.81982
1.0925	2.92053
1.093	-0.20142
1.0935	3.12195
1.094	3.62549
1.0945	-0.20142
1.095	1.91345
1.0955	-1.81274
1.096	-0.90637
1.0965	-1.91345
1.097	3.22266
1.0975	3.8269
1.098	-0.70496
1.0985	2.61841
1.099	2.31628
1.0995	2.61841
1.1	3.02124
1.1005	3.52478
1.101	-3.02124
1.1015	1.51062
1.102	0
1.1025	1.91345
1.103	0.30212
1.1035	0.30212
1.104	2.01416
1.1045	3.02124
1.105	2.81982
1.1055	2.21558
1.106	4.33044
1.1065	13.69629
1.107	9.26514
1.1075	12.48779
1.108	13.09204
1.1085	9.16443
1.109	11.98425
1.1095	16.71753
1.11	11.48071
1.1105	18.42957
1.111	14.50195
1.1115	16.71753
1.112	13.797
1.1125	16.61682
1.113	14.90479
1.1135	12.89062
1.114	15.91187
1.1145	12.99133
1.115	13.59558
1.1155	11.88354
1.116	10.37292
1.1165	8.15735
1.117	9.26514
1.1175	6.44531
1.118	8.05664
1.1185	7.75452
1.119	7.65381
1.1195	5.23682
1.12	6.64673
1.1205	3.62549
1.121	2.71912
1.1215	5.84106
1.122	3.12195
1.1225	4.93469
1.123	3.42407
1.1235	5.33752
1.124	7.04956
1.1245	6.44531
1.125	8.7616
1.1255	11.07788
1.126	8.45947
1.1265	7.45239
1.127	10.97717
1.1275	11.78284
1.128	11.88354
1.1285	13.09204
1.129	11.07788
1.1295	9.97009
1.13	5.63965
1.1305	11.78284
1.131	8.96301
1.1315	5.74036
1.132	-1.51062
1.1325	-2.31628
1.133	-1.61133
1.1335	1.91345
1.134	-0.40283
1.1345	-0.70496
1.135	0.70496
1.1355	2.01416
1.136	5.33752
1.1365	8.7616
1.137	10.67505
1.1375	8.96301
1.138	9.56726
1.1385	8.7616
1.139	4.53186
1.1395	4.63257
1.14	1.10779
1.1405	0.50354
1.141	4.73328
1.1415	4.63257
1.142	7.04956
1.1425	5.23682
1.143	3.12195
1.1435	8.8623
1.144	5.0354
1.1445	2.71912
1.145	0.10071
1.1455	2.81982
1.146	1.71204
1.1465	2.5177
1.147	2.92053
1.1475	3.52478
1.148	5.84106
1.1485	7.45239
1.149	2.31628
1.1495	3.42407
1.15	4.83398
1.1505	9.97009
1.151	9.16443
1.1515	7.75452
1.152	10.27222
1.1525	11.58142
1.153	6.64673
1.1535	6.04248
1.154	5.0354
1.1545	2.81982
1.155	7.35168
1.1555	7.15027
1.156	6.74744
1.1565	6.14319
1.157	4.43115
1.1575	3.02124
1.158	5.13611
1.1585	4.33044
1.159	1.40991
1.1595	4.83398
1.16	5.74036
1.1605	8.05664
1.161	3.8269
1.1615	3.62549
1.162	0.80566
1.1625	8.66089
1.163	11.68213
1.1635	12.5885
1.164	8.05664
1.1645	10.17151
1.165	11.2793
1.1655	9.86938
1.166	12.99133
1.1665	13.19275
1.167	11.2793
1.1675	9.46655
1.168	12.28638
1.1685	9.46655
1.169	12.08496
1.1695	12.38708
1.17	9.66797
1.1705	8.25806
1.171	11.98425
1.1715	10.37292
1.172	11.07788
1.1725	13.797
1.173	7.04956
1.1735	8.25806
1.174	4.22974
1.1745	3.22266
1.175	2.81982
1.1755	0
1.176	1.3092
1.1765	2.41699
1.177	0.70496
1.1775	-1.2085
1.178	2.61841
1.1785	7.85522
1.179	6.3446
1.1795	5.53894
1.18	1.71204
1.1805	2.81982
1.181	4.33044
1.1815	8.96301
1.182	4.83398
1.1825	5.74036
1.183	7.5531
1.1835	5.43823
1.184	7.15027
1.1845	11.78284
1.185	11.68213
1.1855	9.26514
1.186	5.94177
1.1865	3.52478
1.187	9.66797
1.1875	14.70337
1.188	6.14319
1.1885	4.93469
1.189	12.18567
1.1895	9.76868
1.19	12.99133
1.1905	12.5885
1.191	14.30054
1.1915	10.27222
1.192	6.2439
1.1925	12.99133
1.193	12.28638
1.1935	15.40833
1.194	21.75293
1.1945	13.39417
1.195	9.97009
1.1955	8.35876
1.196	2.5177
1.1965	9.76868
1.197	13.797
1.1975	13.99841
1.198	7.45239
1.1985	7.85522
1.199	8.96301
1.1995	6.2439
1.2	2.71912
1.2005	2.5177
1.201	7.04956
1.2015	12.38708
1.202	9.97009
1.2025	11.2793
1.203	10.87646
1.2035	9.76868
1.204	9.66797
1.2045	3.12195
1.205	5.63965
1.2055	4.73328
1.206	7.45239
1.2065	10.17151
1.207	4.43115
1.2075	7.45239
1.208	6.44531
1.2085	8.7616
1.209	7.75452
1.2095	8.45947
1.21	2.21558
1.2105	2.41699
1.211	6.44531
1.2115	7.35168
1.212	-0.50354
1.2125	0.60425
1.213	-1.91345
1.2135	1.81274
1.214	1.71204
1.2145	7.04956
1.215	5.13611
1.2155	2.61841
1.216	8.7616
1.2165	7.85522
1.217	5.53894
1.2175	7.75452
1.218	6.64673
1.2185	12.38708
1.219	7.04956
1.2195	15.30762
1.22	9.26514
1.2205	9.66797
1.221	9.06372
1.2215	14.40125
1.222	8.15735
1.2225	11.2793
1.223	7.35168
1.2235	8.05664
1.224	7.65381
1.2245	7.25098
1.225	5.53894
1.2255	7.15027
1.226	6.3446
1.2265	8.7616
1.227	6.44531
1.2275	4.93469
1.228	1.61133
1.2285	4.43115
1.229	4.53186
1.2295	3.8269
1.23	-1.91345
1.2305	3.02124
1.231	1.2085
1.2315	2.01416
1.232	0.70496
1.2325	0.60425
1.233	1.3092
1.2335	0
1.234	2.21558
1.2345	1.61133
1.235	5.0354
1.2355	4.73328
1.236	5.33752
1.2365	6.2439
1.237	2.41699
1.2375	3.42407
1.238	0.70496
1.2385	8.35876
1.239	3.02124
1.2395	2.71912
1.24	-1.2085
1.2405	6.04248
1.241	1.00708
1.2415	7.5531
1.242	2.5177
1.2425	7.35168
1.243	8.45947
1.2435	11.88354
1.244	13.49487
1.2445	9.66797
1.245	9.06372
1.2455	10.67505
1.246	8.66089
1.2465	11.17859
1.247	8.35876
1.2475	2.31628
1.248	4.83398
1.2485	6.14319
1.249	4.53186
1.2495	1.51062
1.25	7.35168
1.2505	1.81274
1.251	6.44531
1.2515	1.91345
1.252	2.01416
1.2525	-1.3092
1.253	-1.61133
1.2535	6.44531
1.254	2.21558
1.2545	6.74744
1.255	6.74744
1.2555	3.02124
1.256	4.33044
1.2565	5.23682
1.257	9.26514
1.2575	7.35168
1.258	9.16443
1.2585	14.90479
1.259	10.37292
1.2595	6.54602
1.26	2.81982
1.2605	8.96301
1.261	13.59558
1.2615	10.77576
1.262	13.99841
1.2625	7.65381
1.263	7.15027
1.2635	4.63257
1.264	10.0708
1.2645	9.16443
1.265	11.07788
1.2655	3.92761
1.266	10.0708
1.2665	8.7616
1.267	8.66089
1.2675	11.17859
1.268	11.78284
1.2685	14.70337
1.269	12.08496
1.2695	8.56018
1.27	8.15735
1.2705	11.17859
1.271	12.08496
1.2715	9.36584
1.272	8.66089
1.2725	10.0708
1.273	7.35168
1.2735	4.02832
1.274	-1.61133
1.2745	-0.80566
1.275	5.23682
1.2755	1.51062
1.276	5.94177
1.2765	1.81274
1.277	6.84814
1.2775	-0.50354
1.278	6.64673
1.2785	4.22974
1.279	-0.50354
1.2795	4.73328
1.28	5.63965
1.2805	9.76868
1.281	6.64673
1.2815	4.33044
1.282	6.94885
1.2825	9.16443
1.283	10.87646
1.2835	6.94885
1.284	7.85522
1.2845	4.63257
1.285	4.53186
1.2855	-0.50354
1.286	4.33044
1.2865	0.70496
1.287	5.63965
1.2875	5.23682
1.288	7.04956
1.2885	5.74036
1.289	4.93469
1.2895	4.33044
1.29	7.15027
1.2905	8.05664
1.291	4.83398
1.2915	2.31628
1.292	1.10779
1.2925	2.5177
1.293	6.64673
1.2935	5.94177
1.294	3.12195
1.2945	1.91345
1.295	4.53186
1.2955	0.70496
1.296	6.64673
1.2965	1.51062
1.297	-3.8269
1.2975	-2.92053
1.298	-0.60425
1.2985	-0.50354
1.299	-0.40283
1.2995	4.02832
1.3	-1.3092
1.3005	1.81274
1.301	-1.2085
1.3015	-2.41699
1.302	8.35876
1.3025	4.33044
1.303	5.23682
1.3035	7.95593
1.304	0.30212
1.3045	3.22266
1.305	1.61133
1.3055	8.25806
1.306	3.42407
1.3065	-3.42407
1.307	0.50354
1.3075	-2.31628
1.308	0.10071
1.3085	1.2085
1.309	1.61133
1.3095	3.12195
1.31	1.71204
1.3105	2.61841
1.311	0.90637
1.3115	5.13611
1.312	3.32336
1.3125	4.73328
1.313	2.5177
1.3135	5.94177
1.314	8.7616
1.3145	9.06372
1.315	9.97009
1.3155	10.0708
1.316	7.04956
1.3165	11.17859
1.317	8.8623
1.3175	9.46655
1.318	12.99133
1.3185	12.78992
1.319	11.58142
1.3195	10.77576
1.32	14.19983
1.3205	10.27222
1.321	8.66089
1.3215	6.84814
1.322	20.74585
1.3225	13.99841
1.323	6.64673
1.3235	9.56726
1.324	8.7616
1.3245	6.64673
1.325	4.33044
1.3255	6.14319
1.326	9.26514
1.3265	7.5531
1.327	5.23682
1.3275	4.73328
1.328	9.26514
1.3285	5.43823
1.329	5.53894
1.3295	5.84106
1.33	3.32336
1.3305	5.23682
1.331	3.52478
1.3315	6.54602
1.332	5.0354
1.3325	3.42407
1.333	5.94177
1.3335	5.63965
1.334	-0.50354
1.3345	3.62549
1.335	1.00708
1.3355	3.32336
1.336	2.92053
1.3365	0.20142
1.337	-4.63257
1.3375	-1.40991
1.338	8.15735
1.3385	6.3446
1.339	3.62549
1.3395	0.70496
1.34	-1.51062
1.3405	-1.3092
1.341	-2.01416
1.3415	0.30212
1.342	3.52478
1.3425	3.02124
1.343	0.80566
1.3435	-3.12195
1.344	1.51062
1.3445	1.91345
1.345	1.81274
1.3455	-1.81274
1.346	-4.53186
1.3465	-4.33044
1.347	0
1.3475	3.42407
1.348	4.12903
1.3485	3.32336
1.349	4.53186
1.3495	9.76868
1.35	7.5531
1.3505	7.5531
1.351	9.46655
1.3515	6.2439
1.352	2.5177
1.3525	10.17151
1.353	11.68213
1.3535	11.07788
1.354	5.63965
1.3545	9.76868
1.355	8.25806
1.3555	8.15735
1.356	11.38
1.3565	9.86938
1.357	5.33752
1.3575	8.66089
1.358	13.69629
1.3585	11.58142
1.359	9.16443
1.3595	15.00549
1.36	13.59558
1.3605	8.7616
1.361	11.38
1.3615	15.1062
1.362	10.17151
1.3625	4.63257
1.363	9.97009
1.3635	8.45947
1.364	10.17151
1.3645	8.45947
1.365	11.38
1.3655	7.85522
1.366	9.26514
1.3665	16.41541
1.367	14.50195
1.3675	11.38
1.368	9.26514
1.3685	9.97009
1.369	9.16443
1.3695	10.0708
1.37	8.96301
1.3705	10.37292
1.371	11.48071
1.3715	15.1062
1.372	8.05664
1.3725	7.65381
1.373	11.48071
1.3735	3.8269
1.374	8.35876
1.3745	7.5531
1.375	12.68921
1.3755	10.67505
1.376	8.45947
1.3765	14.70337
1.377	7.35168
1.3775	8.56018
1.378	1.81274
1.3785	6.64673
1.379	0.10071
1.3795	1.61133
1.38	-1.10779
1.3805	0.20142
1.381	-1.51062
1.3815	7.04956
1.382	1.81274
1.3825	4.93469
1.383	1.51062
1.3835	-3.62549
1.384	1.61133
1.3845	2.41699
1.385	4.53186
1.3855	2.41699
1.386	-6.54602
1.3865	-0.50354
1.387	2.21558
1.3875	-4.33044
1.388	-3.22266
1.3885	-2.41699
1.389	-1.91345
1.3895	-3.92761
1.39	-2.5177
1.3905	-2.61841
1.391	-1.81274
1.3915	-2.81982
1.392	-2.61841
1.3925	-4.02832
1.393	-3.12195
1.3935	-6.74744
1.394	-6.2439
1.3945	3.12195
1.395	-5.23682
1.3955	-6.54602
1.396	-3.52478
1.3965	-3.52478
1.397	-10.17151
1.3975	-3.52478
1.398	-6.04248
1.3985	-8.96301
1.399	-1.51062
1.3995	-0.30212
1.4	-0.10071
1.4005	-7.75452
1.401	-1.51062
1.4015	-3.12195
1.402	-7.5531
1.4025	-4.63257
1.403	0.40283
1.4035	5.74036
1.404	-3.7262
1.4045	-1.00708
1.405	3.7262
1.4055	-0.30212
1.406	-2.61841
1.4065	1.40991
1.407	1.10779
1.4075	2.01416
1.408	6.04248
1.4085	3.02124
1.409	5.33752
1.4095	3.42407
1.41	3.02124
1.4105	-0.90637
1.411	2.31628
1.4115	5.84106
1.412	5.84106
1.4125	4.22974
1.413	6.64673
1.4135	13.19275
1.414	13.19275
1.4145	9.06372
1.415	6.54602
1.4155	10.37292
1.416	8.05664
1.4165	9.16443
1.417	9.16443
1.4175	10.47363
1.418	13.89771
1.4185	11.78284
1.419	12.28638
1.4195	9.76868
1.42	13.69629
1.4205	19.43665
1.421	16.61682
1.4215	20.94727
1.422	16.61682
1.4225	16.91895
1.423	17.52319
1.4235	18.32886
1.424	18.42957
1.4245	14.80408
1.425	12.48779
1.4255	12.89062
1.426	14.80408
1.4265	16.3147
1.427	14.90479
1.4275	16.11328
1.428	12.89062
1.4285	15.40833
1.429	14.09912
1.4295	18.53027
1.43	18.8324
1.4305	20.04089
1.431	18.22815
1.4315	21.3501
1.432	25.27771
1.4325	20.84656
1.433	14.40125
1.4335	19.63806
1.434	20.24231
1.4345	22.35718
1.435	23.96851
1.4355	27.39258
1.436	23.56567
1.4365	22.6593
1.437	19.33594
1.4375	21.55151
1.438	24.87488
1.4385	22.15576
1.439	19.83948
1.4395	19.33594
1.44	13.39417
1.4405	15.71045
1.441	15.20691
1.4415	17.42249
1.442	19.43665
1.4425	18.32886
1.443	17.82532
1.4435	19.63806
1.444	19.73877
1.4445	22.76001
1.445	17.72461
1.4455	18.53027
1.446	17.52319
1.4465	21.75293
1.447	19.83948
1.4475	19.73877
1.448	14.40125
1.4485	13.19275
1.449	16.61682
1.4495	14.80408
1.45	10.17151
1.4505	16.81824
1.451	13.59558
1.4515	7.25098
1.452	5.13611
1.4525	4.22974
1.453	4.73328
1.4535	3.92761
1.454	6.04248
1.4545	1.61133
1.455	2.92053
1.4555	-1.10779
1.456	-2.5177
1.4565	1.3092
1.457	-2.21558
1.4575	2.5177
1.458	-1.3092
1.4585	-2.21558
1.459	2.81982
1.4595	-1.61133
1.46	6.3446
1.4605	1.81274
1.461	7.85522
1.4615	7.65381
1.462	4.73328
1.4625	7.75452
1.463	6.94885
1.4635	4.22974
1.464	2.5177
1.4645	5.74036
1.465	6.54602
1.4655	9.46655
1.466	4.83398
1.4665	-2.5177
1.467	4.53186
1.4675	0.90637
1.468	4.83398
1.4685	-1.2085
1.469	0.60425
1.4695	4.02832
1.47	0.70496
1.4705	-0.40283
1.471	3.8269
1.4715	1.3092
1.472	-0.50354
1.4725	-0.90637
1.473	2.41699
1.4735	-2.31628
1.474	3.32336
1.4745	2.01416
1.475	4.22974
1.4755	6.94885
1.476	-1.61133
1.4765	0.80566
1.477	1.3092
1.4775	0.50354
1.478	-2.41699
1.4785	1.61133
1.479	-2.5177
1.4795	0.30212
1.48	2.11487
1.4805	-3.52478
1.481	0.40283
1.4815	2.11487
1.482	-2.5177
1.4825	-2.81982
1.483	1.00708
1.4835	1.71204
1.484	1.00708
1.4845	-0.70496
1.485	-1.61133
1.4855	0.30212
1.486	0.10071
1.4865	-2.61841
1.487	-3.12195
1.4875	-1.71204
1.488	-0.60425
1.4885	-1.61133
1.489	1.81274
1.4895	0.80566
1.49	-2.92053
1.4905	-2.5177
1.491	1.71204
1.4915	0.20142
1.492	-3.22266
1.4925	-3.02124
1.493	1.2085
1.4935	3.02124
1.494	5.33752
1.4945	12.28638
1.495	9.76868
1.4955	8.35876
1.496	11.78284
1.4965	13.69629
1.497	15.00549
1.4975	17.32178
1.498	13.29346
1.4985	20.64514
1.499	15.50903
1.4995	15.1062
1.5	15.50903
1.5005	12.08496
1.501	13.09204
1.5015	18.63098
1.502	19.63806
1.5025	13.89771
1.503	13.49487
1.5035	12.38708
1.504	10.27222
1.5045	9.56726
1.505	7.5531
1.5055	5.13611
1.506	4.63257
1.5065	5.63965
1.507	1.10779
1.5075	9.56726
1.508	12.18567
1.5085	8.7616
1.509	11.58142
1.5095	8.8623
1.51	7.15027
1.5105	7.25098
1.511	5.53894
1.5115	5.84106
1.512	3.32336
1.5125	6.14319
1.513	5.43823
1.5135	-1.2085
1.514	0.70496
1.5145	-2.81982
1.515	-4.22974
1.5155	1.3092
1.516	-9.36584
1.5165	-5.33752
1.517	0.10071
1.5175	-3.92761
1.518	-9.16443
1.5185	-3.32336
1.519	1.91345
1.5195	0.20142
1.52	-3.92761
1.5205	-2.5177
1.521	2.31628
1.5215	4.53186
1.522	0.80566
1.5225	1.00708
1.523	4.83398
1.5235	0.20142
1.524	-0.90637
1.5245	1.2085
1.525	7.25098
1.5255	0.40283
1.526	7.65381
1.5265	4.33044
1.527	3.12195
1.5275	-3.62549
1.528	2.21558
1.5285	7.75452
1.529	7.45239
1.5295	7.35168
1.53	1.2085
1.5305	0.60425
1.531	5.13611
1.5315	-3.02124
1.532	3.7262
1.5325	1.61133
1.533	3.02124
1.5335	5.53894
1.534	5.74036
1.5345	7.65381
1.535	13.797
1.5355	5.74036
1.536	4.43115
1.5365	5.74036
1.537	2.92053
1.5375	7.75452
1.538	7.65381
1.5385	4.93469
1.539	5.13611
1.5395	7.45239
1.54	10.87646
1.5405	9.16443
1.541	10.47363
1.5415	10.47363
1.542	14.90479
1.5425	19.03381
1.543	22.55859
1.5435	19.53735
1.544	21.14868
1.5445	22.15576
1.545	20.1416
1.5455	16.61682
1.546	17.6239
1.5465	19.13452
1.547	21.75293
1.5475	21.75293
1.548	20.24231
1.5485	13.69629
1.549	10.57434
1.5495	15.30762
1.55	19.03381
1.5505	18.8324
1.551	20.04089
1.5515	22.25647
1.552	17.01965
1.5525	10.67505
1.553	13.99841
1.5535	18.22815
1.554	14.40125
1.5545	9.46655
1.555	8.66089
1.5555	9.16443
1.556	10.37292
1.5565	7.25098
1.557	9.36584
1.5575	5.74036
1.558	6.64673
1.5585	10.0708
1.559	0.80566
1.5595	5.23682
1.56	5.74036
1.5605	3.32336
1.561	4.22974
1.5615	2.11487
1.562	8.35876
1.5625	-1.71204
1.563	-2.81982
1.5635	1.10779
1.564	7.04956
1.5645	8.45947
1.565	4.93469
1.5655	4.02832
1.566	5.13611
1.5665	3.02124
1.567	6.74744
1.5675	4.63257
1.568	6.3446
1.5685	2.11487
1.569	3.42407
1.5695	5.0354
1.57	8.45947
1.5705	5.74036
1.571	3.7262
1.5715	0.10071
1.572	3.12195
1.5725	-2.5177
1.573	-1.91345
1.5735	1.10779
1.574	3.7262
1.5745	3.32336
1.575	-0.20142
1.5755	0.60425
1.576	2.81982
1.5765	5.94177
1.577	4.33044
1.5775	4.22974
1.578	1.3092
1.5785	2.01416
1.579	3.02124
1.5795	-1.91345
1.58	-3.8269
1.5805	-3.32336
1.581	1.40991
1.5815	2.01416
1.582	-1.40991
1.5825	0.20142
1.583	3.12195
1.5835	-2.01416
1.584	-3.92761
1.5845	-2.01416
1.585	1.81274
1.5855	4.43115
1.586	7.45239
1.5865	3.22266
1.587	5.0354
1.5875	2.92053
1.588	-0.10071
1.5885	4.22974
1.589	7.04956
1.5895	1.61133
1.59	6.54602
1.5905	4.22974
1.591	1.00708
1.5915	-6.14319
1.592	-1.51062
1.5925	1.2085
1.593	3.12195
1.5935	-0.20142
1.594	5.84106
1.5945	8.66089
1.595	3.12195
1.5955	5.84106
1.596	2.11487
1.5965	6.2439
1.597	7.5531
1.5975	6.04248
1.598	6.44531
1.5985	8.56018
1.599	3.22266
1.5995	1.81274
1.6	6.54602
1.6005	9.46655
1.601	11.07788
1.6015	10.97717
1.602	5.53894
1.6025	5.43823
1.603	8.7616
1.6035	11.2793
1.604	10.87646
1.6045	6.2439
1.605	7.75452
1.6055	6.14319
1.606	6.54602
1.6065	1.71204
1.607	2.81982
1.6075	3.02124
1.608	4.73328
1.6085	4.33044
1.609	10.27222
1.6095	7.04956
1.61	8.25806
1.6105	5.13611
1.611	13.797
1.6115	10.47363
1.612	2.41699
1.6125	7.5531
1.613	1.10779
1.6135	7.5531
1.614	6.74744
1.6145	7.15027
1.615	-1.40991
1.6155	1.2085
1.616	2.21558
1.6165	7.95593
1.617	3.62549
1.6175	7.04956
1.618	1.71204
1.6185	5.13611
1.619	5.0354
1.6195	0
1.62	4.43115
1.6205	5.0354
1.621	11.58142
1.6215	7.75452
1.622	6.54602
1.6225	7.04956
1.623	7.25098
1.6235	8.15735
1.624	10.47363
1.6245	12.99133
1.625	8.56018
1.6255	13.89771
1.626	5.94177
1.6265	7.04956
1.627	9.86938
1.6275	13.99841
1.628	7.75452
1.6285	5.33752
1.629	5.33752
1.6295	9.76868
1.63	10.57434
1.6305	4.73328
1.631	9.76868
1.6315	8.56018
1.632	5.74036
1.6325	3.22266
1.633	-4.53186
1.6335	-6.84814
1.634	-5.0354
1.6345	-3.02124
1.635	-1.10779
1.6355	0.50354
1.636	-6.64673
1.6365	-3.42407
1.637	-7.25098
1.6375	-4.43115
1.638	-8.25806
1.6385	-7.95593
1.639	-9.56726
1.6395	-1.10779
1.64	-1.61133
1.6405	-8.56018
1.641	-6.54602
1.6415	-6.74744
1.642	-5.0354
1.6425	-2.21558
1.643	-6.04248
1.6435	-3.7262
1.644	-2.11487
1.6445	-7.15027
1.645	-1.91345
1.6455	-0.90637
1.646	3.32336
1.6465	-1.71204
1.647	-3.02124
1.6475	-4.02832
1.648	-3.7262
1.6485	-1.00708
1.649	1.3092
1.6495	3.32336
1.65	3.32336
1.6505	3.12195
1.651	1.00708
1.6515	1.51062
1.652	1.51062
1.6525	3.42407
1.653	6.54602
1.6535	10.0708
1.654	12.08496
1.6545	5.43823
1.655	5.23682
1.6555	9.66797
1.656	11.88354
1.6565	9.56726
1.657	4.02832
1.6575	11.17859
1.658	13.797
1.6585	10.17151
1.659	8.56018
1.6595	8.25806
1.66	10.47363
1.6605	11.38
1.661	13.797
1.6615	11.88354
1.662	8.05664
1.6625	13.19275
1.663	13.39417
1.6635	14.90479
1.664	13.69629
1.6645	14.40125
1.665	6.44531
1.6655	8.56018
1.666	5.94177
1.6665	11.2793
1.667	5.53894
1.6675	8.96301
1.668	8.45947
1.6685	5.33752
1.669	3.22266
1.6695	3.42407
1.67	-1.81274
1.6705	2.5177
1.671	-0.80566
1.6715	5.94177
1.672	-1.00708
1.6725	5.33752
1.673	7.65381
1.6735	4.33044
1.674	1.81274
1.6745	5.23682
1.675	4.43115
1.6755	7.75452
1.676	5.33752
1.6765	5.13611
1.677	8.8623
1.6775	8.45947
1.678	6.04248
1.6785	7.45239
1.679	5.23682
1.6795	8.25806
1.68	2.61841
1.6805	6.04248
1.681	11.88354
1.6815	6.3446
1.682	12.18567
1.6825	9.97009
1.683	8.35876
1.6835	10.17151
1.684	5.53894
1.6845	9.16443
1.685	14.09912
1.6855	8.25806
1.686	8.45947
1.6865	10.0708
1.687	12.28638
1.6875	10.47363
1.688	7.15027
1.6885	12.89062
1.689	10.77576
1.6895	9.76868
1.69	12.28638
1.6905	11.48071
1.691	6.44531
1.6915	7.04956
1.692	7.45239
1.6925	6.14319
1.693	13.09204
1.6935	10.47363
1.694	16.91895
1.6945	14.60266
1.695	11.17859
1.6955	10.47363
1.696	13.49487
1.6965	11.78284
1.697	6.54602
1.6975	8.7616
1.698	12.5885
1.6985	7.75452
1.699	13.29346
1.6995	12.08496
1.7	23.36426
1.7005	15.40833
1.701	12.5885
1.7015	8.05664
1.702	7.85522
1.7025	9.36584
1.703	15.1062
1.7035	10.37292
1.704	12.78992
1.7045	9.76868
1.705	3.52478
1.7055	5.33752
1.706	8.56018
1.7065	9.26514
1.707	13.59558
1.7075	6.54602
1.708	5.94177
1.7085	12.78992
1.709	6.2439
1.7095	1.71204
1.71	8.25806
1.7105	6.44531
1.711	4.83398
1.7115	7.95593
1.712	7.65381
1.7125	8.7616
1.713	2.01416
1.7135	3.02124
1.714	3.8269
1.7145	6.04248
1.715	2.61841
1.7155	-0.10071
1.716	-0.80566
1.7165	2.5177
1.717	1.10779
1.7175	2.92053
1.718	3.22266
1.7185	9.76868
1.719	3.22266
1.7195	-2.31628
1.72	2.71912
1.7205	5.63965
1.721	2.21558
1.7215	5.23682
1.722	4.63257
1.7225	2.5177
1.723	0.90637
1.7235	4.43115
1.724	5.94177
1.7245	9.26514
1.725	4.43115
1.7255	0.40283
1.726	7.04956
1.7265	2.71912
1.727	0.20142
1.7275	0.30212
1.728	4.53186
1.7285	5.0354
1.729	6.44531
1.7295	4.12903
1.73	1.81274
1.7305	4.53186
1.731	2.31628
1.7315	12.18567
1.732	10.47363
1.7325	15.60974
1.733	15.20691
1.7335	11.98425
1.734	7.25098
1.7345	7.04956
1.735	8.35876
1.7355	2.31628
1.736	2.92053
1.7365	-1.81274
1.737	3.7262
1.7375	1.51062
1.738	6.74744
1.7385	4.63257
1.739	2.31628
1.7395	4.93469
1.74	2.11487
1.7405	-1.81274
1.741	1.91345
1.7415	0.10071
1.742	1.71204
1.7425	-0.70496
1.743	0.70496
1.7435	1.2085
1.744	2.41699
1.7445	4.02832
1.745	7.35168
1.7455	3.22266
1.746	7.35168
1.7465	7.15027
1.747	6.04248
1.7475	6.04248
1.748	7.75452
1.7485	9.16443
1.749	8.8623
1.7495	7.04956
1.75	4.93469
1.7505	10.87646
1.751	7.75452
1.7515	4.22974
1.752	9.36584
1.7525	18.02673
1.753	11.98425
1.7535	12.08496
1.754	11.48071
1.7545	17.22107
1.755	13.49487
1.7555	14.80408
1.756	9.86938
1.7565	13.59558
1.757	17.32178
1.7575	8.7616
1.758	12.48779
1.7585	12.89062
1.759	12.89062
1.7595	9.97009
1.76	10.97717
1.7605	11.88354
1.761	10.0708
1.7615	19.43665
1.762	17.52319
1.7625	8.56018
1.763	12.08496
1.7635	14.80408
1.764	18.63098
1.7645	19.13452
1.765	12.28638
1.7655	15.00549
1.766	10.0708
1.7665	6.64673
1.767	4.93469
1.7675	5.13611
1.768	7.45239
1.7685	15.71045
1.769	10.57434
1.7695	11.38
1.77	10.77576
1.7705	8.96301
1.771	8.96301
1.7715	8.05664
1.772	12.18567
1.7725	7.35168
1.773	9.16443
1.7735	6.04248
1.774	4.93469
1.7745	9.06372
1.775	6.84814
1.7755	8.7616
1.776	4.53186
1.7765	8.66089
1.777	9.36584
1.7775	8.35876
1.778	3.7262
1.7785	7.75452
1.779	8.56018
1.7795	11.07788
1.78	11.58142
1.7805	9.56726
1.781	12.5885
1.7815	12.78992
1.782	14.09912
1.7825	8.05664
1.783	9.97009
1.7835	7.85522
1.784	5.0354
1.7845	0.90637
1.785	1.81274
1.7855	-1.40991
1.786	-0.10071
1.7865	1.10779
1.787	-4.02832
1.7875	-3.22266
1.788	1.3092
1.7885	-0.90637
1.789	4.22974
1.7895	3.22266
1.79	3.8269
1.7905	0.10071
1.791	2.5177
1.7915	2.11487
1.792	-5.84106
1.7925	-4.22974
1.793	-4.53186
1.7935	-0.60425
1.794	-7.95593
1.7945	-3.12195
1.795	0.30212
1.7955	-2.31628
1.796	0.10071
1.7965	-5.33752
1.797	-0.40283
1.7975	2.71912
1.798	-1.81274
1.7985	-4.93469
1.799	-2.21558
1.7995	-1.71204
1.8	-2.21558
1.8005	-0.70496
1.801	-1.81274
1.8015	-4.22974
1.802	-3.62549
1.8025	0.50354
1.803	-0.50354
1.8035	1.2085
1.804	4.22974
1.8045	4.53186
1.805	-0.10071
1.8055	6.2439
1.806	6.14319
1.8065	4.33044
1.807	1.3092
1.8075	5.43823
1.808	0
1.8085	-0.40283
1.809	0.70496
1.8095	1.61133
1.81	4.33044
1.8105	4.63257
1.811	6.2439
1.8115	4.22974
1.812	4.93469
1.8125	9.16443
1.813	5.43823
1.8135	13.09204
1.814	13.89771
1.8145	13.69629
1.815	19.23523
1.8155	14.60266
1.816	18.02673
1.8165	8.96301
1.817	12.78992
1.8175	9.26514
1.818	9.06372
1.8185	12.89062
1.819	8.45947
1.8195	8.8623
1.82	13.19275
1.8205	8.05664
1.821	8.8623
1.8215	6.2439
1.822	2.41699
1.8225	1.61133
1.823	2.71912
1.8235	-3.42407
1.824	2.81982
1.8245	3.32336
1.825	9.86938
1.8255	4.93469
1.826	6.84814
1.8265	3.22266
1.827	2.21558
1.8275	5.23682
1.828	9.26514
1.8285	9.76868
1.829	6.54602
1.8295	6.94885
1.83	6.74744
1.8305	5.84106
1.831	7.85522
1.8315	2.92053
1.832	2.31628
1.8325	2.11487
1.833	-2.31628
1.8335	-0.10071
1.834	2.5177
1.8345	3.32336
1.835	6.84814
1.8355	5.43823
1.836	4.43115
1.8365	1.51062
1.837	4.33044
1.8375	10.77576
1.838	7.45239
1.8385	8.15735
1.839	10.57434
1.8395	7.65381
1.84	4.22974
1.8405	3.8269
1.841	3.62549
1.8415	5.84106
1.842	2.5177
1.8425	5.63965
1.843	8.7616
1.8435	9.16443
1.844	9.36584
1.8445	8.56018
1.845	4.02832
1.8455	6.04248
1.846	5.53894
1.8465	-1.00708
1.847	5.0354
1.8475	5.43823
1.848	1.61133
1.8485	5.33752
1.849	6.74744
1.8495	8.45947
1.85	8.15735
1.8505	7.15027
1.851	11.58142
1.8515	5.23682
1.852	11.2793
1.8525	11.58142
1.853	3.8269
1.8535	0.30212
1.854	-1.51062
1.8545	-0.90637
1.855	0.80566
1.8555	4.63257
1.856	3.32336
1.8565	3.12195
1.857	8.15735
1.8575	6.3446
1.858	4.33044
1.8585	3.8269
1.859	3.02124
1.8595	2.81982
1.86	9.26514
1.8605	8.56018
1.861	7.95593
1.8615	8.45947
1.862	8.96301
1.8625	6.84814
1.863	4.73328
1.8635	3.92761
1.864	4.02832
1.8645	2.01416
1.865	1.2085
1.8655	6.74744
1.866	2.01416
1.8665	1.40991
1.867	4.43115
1.8675	4.02832
1.868	6.54602
1.8685	7.5531
1.869	8.15735
1.8695	17.22107
1.87	14.70337
1.8705	15.00549
1.871	18.73169
1.8715	21.3501
1.872	19.23523
1.8725	8.35876
1.873	5.23682
1.8735	1.3092
1.874	3.8269
1.8745	3.62549
1.875	2.01416
1.8755	1.10779
1.876	-1.00708
1.8765	2.71912
1.877	-0.40283
1.8775	-0.50354
1.878	11.2793
1.8785	1.71204
1.879	3.02124
1.8795	7.65381
1.88	9.26514
1.8805	3.22266
1.881	5.13611
1.8815	3.42407
1.882	7.15027
1.8825	4.02832
1.883	4.12903
1.8835	7.65381
1.884	5.13611
1.8845	8.15735
1.885	6.14319
1.8855	12.08496
1.886	1.71204
1.8865	7.45239
1.887	10.97717
1.8875	10.87646
1.888	10.47363
1.8885	13.99841
1.889	7.95593
1.8895	12.08496
1.89	9.16443
1.8905	4.53186
1.891	7.85522
1.8915	10.0708
1.892	9.56726
1.8925	12.38708
1.893	7.5531
1.8935	12.18567
1.894	4.43115
1.8945	10.17151
1.895	0.80566
1.8955	2.61841
1.896	2.61841
1.8965	5.23682
1.897	3.42407
1.8975	3.52478
1.898	-2.01416
1.8985	3.7262
1.899	4.83398
1.8995	7.35168
1.9	7.75452
1.9005	8.56018
1.901	8.96301
1.9015	11.88354
1.902	12.68921
1.9025	10.27222
1.903	12.08496
1.9035	8.35876
1.904	5.53894
1.9045	7.15027
1.905	3.92761
1.9055	4.73328
1.906	4.22974
1.9065	2.5177
1.907	6.2439
1.9075	10.57434
1.908	4.73328
1.9085	8.35876
1.909	7.35168
1.9095	9.97009
1.91	6.54602
1.9105	7.5531
1.911	6.14319
1.9115	6.3446
1.912	5.63965
1.9125	7.95593
1.913	13.59558
1.9135	7.75452
1.914	9.36584
1.9145	6.04248
1.915	7.45239
1.9155	6.04248
1.916	7.65381
1.9165	4.12903
1.917	2.11487
1.9175	2.01416
1.918	-1.10779
1.9185	1.00708
1.919	3.62549
1.9195	5.74036
1.92	6.64673
1.9205	1.40991
1.921	1.40991
1.9215	1.61133
1.922	5.0354
1.9225	4.93469
1.923	2.92053
1.9235	2.31628
1.924	6.14319
1.9245	5.0354
1.925	1.40991
1.9255	6.3446
1.926	7.35168
1.9265	3.12195
1.927	5.43823
1.9275	4.12903
1.928	4.43115
1.9285	2.61841
1.929	8.35876
1.9295	8.66089
1.93	3.22266
1.9305	1.3092
1.931	1.81274
1.9315	5.0354
1.932	2.5177
1.9325	9.06372
1.933	7.85522
1.9335	10.37292
1.934	4.73328
1.9345	11.58142
1.935	9.56726
1.9355	12.28638
1.936	5.53894
1.9365	3.02124
1.937	2.01416
1.9375	-2.61841
1.938	4.02832
1.9385	5.63965
1.939	2.11487
1.9395	8.56018
1.94	4.93469
1.9405	1.71204
1.941	1.81274
1.9415	3.7262
1.942	1.3092
1.9425	4.63257
1.943	5.63965
1.9435	9.46655
1.944	5.94177
1.9445	5.23682
1.945	3.92761
1.9455	4.33044
1.946	8.15735
1.9465	5.23682
1.947	4.12903
1.9475	2.71912
1.948	7.35168
1.9485	4.63257
1.949	1.10779
1.9495	2.71912
1.95	0.40283
1.9505	0.30212
1.951	-6.54602
1.9515	-5.53894
1.952	-8.45947
1.9525	-5.23682
1.953	-5.94177
1.9535	-5.13611
1.954	1.10779
1.9545	-1.00708
1.955	-1.81274
1.9555	-6.54602
1.956	0.60425
1.9565	-2.21558
1.957	-3.92761
1.9575	-0.90637
1.958	-3.7262
1.9585	-0.70496
1.959	-2.41699
1.9595	-3.52478
1.96	-3.32336
1.9605	5.53894
1.961	0.90637
1.9615	0.50354
1.962	1.61133
1.9625	2.31628
1.963	6.44531
1.9635	7.5531
1.964	6.94885
1.9645	9.86938
1.965	10.47363
1.9655	9.46655
1.966	10.77576
1.9665	13.69629
1.967	13.89771
1.9675	8.7616
1.968	10.97717
1.9685	10.27222
1.969	9.16443
1.9695	6.94885
1.97	6.44531
1.9705	8.56018
1.971	9.86938
1.9715	9.66797
1.972	14.30054
1.9725	9.56726
1.973	5.74036
1.9735	8.35876
1.974	4.43115
1.9745	8.66089
1.975	10.57434
1.9755	8.8623
1.976	13.797
1.9765	9.46655
1.977	14.19983
1.9775	13.89771
1.978	13.797
1.9785	20.44373
1.979	15.30762
1.9795	18.93311
1.98	16.41541
1.9805	13.99841
1.981	14.50195
1.9815	9.86938
1.982	11.07788
1.9825	9.86938
1.983	10.67505
1.9835	14.40125
1.984	13.49487
1.9845	13.39417
1.985	9.16443
1.9855	8.96301
1.986	11.68213
1.9865	5.84106
1.987	7.25098
1.9875	12.68921
1.988	3.12195
1.9885	-3.22266
1.989	2.61841
1.9895	3.12195
1.99	-1.81274
1.9905	0
1.991	0.10071
1.9915	-2.31628
1.992	-1.40991
1.9925	-1.51062
1.993	-0.60425
1.9935	7.85522
1.994	7.25098
1.9945	4.73328
1.995	4.93469
1.9955	2.41699
1.996	7.95593
1.9965	4.53186
1.997	6.14319
1.9975	2.81982
1.998	0
1.9985	2.81982
1.999	1.71204
1.9995	3.92761
2	8.15735
2.0005	3.92761
2.001	7.85522
2.0015	8.66089
2.002	2.11487
2.0025	3.32336
2.003	1.00708
2.0035	0.60425
2.004	0.80566
2.0045	4.63257
2.005	10.0708
2.0055	4.53186
2.006	1.3092
2.0065	-1.81274
2.007	-6.2439
2.0075	0
2.008	6.44531
2.0085	1.40991
2.009	8.15735
2.0095	5.53894
2.01	-1.81274
2.0105	10.97717
2.011	6.74744
2.0115	7.95593
2.012	6.2439
2.0125	2.11487
2.013	-8.35876
2.0135	-2.61841
2.014	-2.11487
2.0145	-1.61133
2.015	0.40283
2.0155	0.20142
2.016	-1.00708
2.0165	0.60425
2.017	-1.61133
2.0175	-2.81982
2.018	-0.70496
2.0185	-5.23682
2.019	-3.32336
2.0195	-1.61133
2.02	-0.60425
2.0205	-1.2085
2.021	-5.13611
2.0215	5.33752
2.022	2.5177
2.0225	2.21558
2.023	0.40283
2.0235	0.20142
2.024	1.81274
2.0245	7.5531
2.025	7.5531
2.0255	8.15735
2.026	2.21558
2.0265	8.45947
2.027	13.59558
2.0275	10.0708
2.028	7.15027
2.0285	10.97717
2.029	9.16443
2.0295	11.58142
2.03	12.08496
2.0305	13.797
2.031	8.45947
2.0315	10.87646
2.032	12.28638
2.0325	7.85522
2.033	11.2793
2.0335	12.78992
2.034	4.83398
2.0345	3.02124
2.035	0.20142
2.0355	0.90637
2.036	2.71912
2.0365	-0.20142
2.037	2.11487
2.0375	0.20142
2.038	-2.21558
2.0385	1.81274
2.039	14.09912
2.0395	18.8324
2.04	21.55151
2.0405	24.16992
2.041	24.37134
2.0415	24.16992
2.042	19.94019
2.0425	18.42957
2.043	18.63098
2.0435	13.89771
2.044	12.5885
2.0445	13.59558
2.045	9.06372
2.0455	-0.10071
2.046	-3.8269
2.0465	-6.84814
2.047	-9.26514
2.0475	-10.67505
2.048	-13.49487
2.0485	-10.87646
2.049	-13.19275
2.0495	-12.78992
2.05	-13.39417
2.0505	-6.54602
2.051	-7.04956
2.0515	-2.41699
2.052	0.30212
2.0525	1.91345
2.053	6.44531
2.0535	7.15027
2.054	11.98425
2.0545	10.57434
2.055	12.38708
2.0555	10.37292
2.056	15.81116
2.0565	15.50903
2.057	16.3147
2.0575	14.40125
2.058	16.51611
2.0585	21.95435
2.059	16.61682
2.0595	18.53027
2.06	12.18567
2.0605	12.48779
2.061	18.8324
2.0615	16.3147
2.062	14.80408
2.0625	16.71753
2.063	10.17151
2.0635	13.89771
2.064	5.0354
2.0645	2.31628
2.065	2.5177
2.0655	3.92761
2.066	7.25098
2.0665	5.74036
2.067	1.61133
2.0675	2.21558
2.068	8.15735
2.0685	1.10779
2.069	5.23682
2.0695	4.93469
2.07	2.11487
2.0705	5.74036
2.071	6.3446
2.0715	11.17859
2.072	7.65381
2.0725	8.45947
2.073	4.83398
2.0735	7.15027
2.074	10.27222
2.0745	7.25098
2.075	10.77576
2.0755	9.97009
2.076	2.81982
2.0765	5.74036
2.077	11.68213
2.0775	14.30054
2.078	16.51611
2.0785	18.8324
2.079	12.99133
2.0795	12.18567
2.08	13.69629
2.0805	10.97717
2.081	9.86938
2.0815	10.97717
2.082	15.1062
2.0825	10.87646
2.083	11.17859
2.0835	9.86938
2.084	17.6239
2.0845	12.28638
2.085	17.82532
2.0855	10.77576
2.086	7.75452
2.0865	8.35876
2.087	6.14319
2.0875	1.00708
2.088	4.33044
2.0885	6.84814
2.089	8.25806
2.0895	9.46655
2.09	8.66089
2.0905	5.23682
2.091	6.54602
2.0915	5.33752
2.092	7.75452
2.0925	1.00708
2.093	6.3446
2.0935	7.85522
2.094	4.12903
2.0945	-3.92761
2.095	3.62549
2.0955	4.83398
2.096	2.81982
2.0965	6.3446
2.097	6.84814
2.0975	9.46655
2.098	6.64673
2.0985	9.16443
2.099	9.16443
2.0995	3.02124
2.1	4.22974
2.1005	5.13611
2.101	15.40833
2.1015	12.18567
2.102	11.48071
2.1025	7.95593
2.103	7.85522
2.1035	5.63965
2.104	11.58142
2.1045	5.74036
2.105	7.95593
2.1055	10.67505
2.106	9.46655
2.1065	4.43115
2.107	3.62549
2.1075	9.97009
2.108	8.96301
2.1085	12.08496
2.109	10.97717
2.1095	10.77576
2.11	12.68921
2.1105	14.09912
2.111	12.78992
2.1115	9.56726
2.112	6.54602
2.1125	8.05664
2.113	3.12195
2.1135	5.94177
2.114	11.38
2.1145	8.05664
2.115	11.98425
2.1155	5.63965
2.116	5.53894
2.1165	8.25806
2.117	5.84106
2.1175	5.33752
2.118	5.53894
2.1185	5.13611
2.119	1.3092
2.1195	3.22266
2.12	4.33044
2.1205	6.84814
2.121	0.30212
2.1215	11.68213
2.122	5.84106
2.1225	-4.22974
2.123	-0.10071
2.1235	-4.33044
2.124	-3.12195
2.1245	3.7262
2.125	2.71912
2.1255	1.10779
2.126	-1.00708
2.1265	4.93469
2.127	-1.51062
2.1275	2.81982
2.128	3.62549
2.1285	8.96301
2.129	13.797
2.1295	9.36584
2.13	8.35876
2.1305	5.74036
2.131	7.65381
2.1315	11.17859
2.132	5.43823
2.1325	-5.0354
2.133	-2.21558
2.1335	4.93469
2.134	2.21558
2.1345	6.04248
2.135	8.66089
2.1355	9.56726
2.136	-0.10071
2.1365	0.90637
2.137	8.45947
2.1375	11.78284
2.138	5.13611
2.1385	1.91345
2.139	4.12903
2.1395	4.93469
2.14	4.22974
2.1405	2.61841
2.141	-0.30212
2.1415	5.43823
2.142	11.07788
2.1425	11.78284
2.143	11.17859
2.1435	7.95593
2.144	11.68213
2.1445	3.42407
2.145	2.81982
2.1455	3.7262
2.146	8.8623
2.1465	10.17151
2.147	7.85522
2.1475	8.15735
2.148	12.18567
2.1485	10.0708
2.149	7.45239
2.1495	8.35876
2.15	11.48071
2.1505	7.5531
2.151	9.56726
2.1515	12.68921
2.152	6.44531
2.1525	5.33752
2.153	10.0708
2.1535	15.60974
2.154	14.19983
2.1545	17.82532
2.155	10.77576
2.1555	11.2793
2.156	9.66797
2.1565	14.80408
2.157	16.51611
2.1575	19.94019
2.158	17.12036
2.1585	7.95593
2.159	7.5531
2.1595	5.53894
2.16	3.8269
2.1605	6.3446
2.161	8.66089
2.1615	3.52478
2.162	2.21558
2.1625	5.23682
2.163	7.5531
2.1635	5.0354
2.164	6.84814
2.1645	6.2439
2.165	3.02124
2.1655	5.13611
2.166	10.47363
2.1665	9.46655
2.167	10.0708
2.1675	8.8623
2.168	9.26514
2.1685	6.14319
2.169	6.54602
2.1695	7.95593
2.17	9.46655
2.1705	10.17151
2.171	12.99133
2.1715	7.95593
2.172	17.01965
2.1725	12.28638
2.173	8.45947
2.1735	7.65381
2.174	13.19275
2.1745	12.38708
2.175	10.67505
2.1755	17.52319
2.176	9.36584
2.1765	8.8623
2.177	5.84106
2.1775	0.90637
2.178	2.5177
2.1785	1.2085
2.179	-0.80566
2.1795	4.93469
2.18	2.5177
2.1805	0.40283
2.181	5.13611
2.1815	2.01416
2.182	-2.81982
2.1825	1.91345
2.183	0.20142
2.1835	1.40991
2.184	0.30212
2.1845	3.22266
2.185	0.10071
2.1855	-0.50354
2.186	2.92053
2.1865	-2.11487
2.187	-0.50354
2.1875	2.01416
2.188	-2.61841
2.1885	-0.40283
2.189	4.22974
2.1895	-2.11487
2.19	-0.80566
2.1905	-4.83398
2.191	0.40283
2.1915	-5.0354
2.192	-4.43115
2.1925	-6.3446
2.193	-4.83398
2.1935	-0.90637
2.194	2.81982
2.1945	10.17151
2.195	6.04248
2.1955	2.92053
2.196	2.71912
2.1965	4.63257
2.197	6.94885
2.1975	9.46655
2.198	12.08496
2.1985	5.63965
2.199	4.53186
2.1995	6.44531
2.2	0.60425
2.2005	-2.81982
2.201	0.80566
2.2015	4.22974
2.202	0.30212
2.2025	2.71912
2.203	3.92761
2.2035	2.5177
2.204	-0.50354
2.2045	5.0354
2.205	7.45239
2.2055	3.8269
2.206	2.41699
2.2065	3.42407
2.207	5.63965
2.2075	1.61133
2.208	-0.80566
2.2085	3.8269
2.209	2.5177
2.2095	5.84106
2.21	8.56018
2.2105	10.77576
2.211	9.86938
2.2115	2.71912
2.212	5.23682
2.2125	4.43115
2.213	-0.50354
2.2135	0.10071
2.214	0.60425
2.2145	-2.61841
2.215	2.21558
2.2155	4.33044
2.216	5.94177
2.2165	-1.3092
2.217	-0.10071
2.2175	-1.61133
2.218	-1.61133
2.2185	2.41699
2.219	-0.40283
2.2195	2.41699
2.22	-1.3092
2.2205	7.25098
2.221	5.23682
2.2215	5.23682
2.222	3.52478
2.2225	3.12195
2.223	7.75452
2.2235	6.54602
2.224	4.33044
2.2245	10.57434
2.225	8.8623
2.2255	10.17151
2.226	5.74036
2.2265	-0.30212
2.227	-1.61133
2.2275	-0.80566
2.228	3.92761
2.2285	2.31628
2.229	6.3446
2.2295	5.13611
2.23	3.22266
2.2305	4.22974
2.231	8.66089
2.2315	8.8623
2.232	7.75452
2.2325	4.63257
2.233	1.61133
2.2335	2.5177
2.234	-1.2085
2.2345	1.3092
2.235	-2.41699
2.2355	8.66089
2.236	7.15027
2.2365	6.94885
2.237	4.63257
2.2375	6.74744
2.238	6.64673
2.2385	5.13611
2.239	8.15735
2.2395	8.35876
2.24	14.09912
2.2405	12.5885
2.241	9.16443
2.2415	11.07788
2.242	15.20691
2.2425	7.04956
2.243	2.21558
2.2435	4.12903
2.244	4.53186
2.2445	4.63257
2.245	3.7262
2.2455	-0.60425
2.246	-0.30212
2.2465	-1.71204
2.247	-3.22266
2.2475	-4.22974
2.248	-4.12903
2.2485	-4.83398
2.249	0.50354
2.2495	-0.40283
2.25	4.43115
2.2505	4.73328
2.251	12.38708
2.2515	10.17151
2.252	9.06372
2.2525	2.41699
2.253	5.94177
2.2535	3.12195
2.254	2.61841
2.2545	0.10071
2.255	6.3446
2.2555	4.22974
2.256	5.0354
2.2565	4.53186
2.257	2.71912
2.2575	8.15735
2.258	5.84106
2.2585	0.70496
2.259	4.43115
2.2595	5.63965
2.26	9.56726
2.2605	4.33044
2.261	7.35168
2.2615	2.5177
2.262	-4.83398
2.2625	-4.83398
2.263	-4.22974
2.2635	-2.92053
2.264	-2.01416
2.2645	-6.54602
2.265	-4.83398
2.2655	-0.40283
2.266	0.80566
2.2665	7.35168
2.267	4.12903
2.2675	10.0708
2.268	12.99133
2.2685	7.15027
2.269	11.48071
2.2695	9.26514
2.27	5.43823
2.2705	5.43823
2.271	2.01416
2.2715	8.45947
2.272	8.05664
2.2725	7.95593
2.273	2.5177
2.2735	2.92053
2.274	5.74036
2.2745	5.63965
2.275	5.23682
2.2755	5.13611
2.276	1.61133
2.2765	1.51062
2.277	5.94177
2.2775	10.17151
2.278	10.67505
2.2785	7.15027
2.279	10.87646
2.2795	5.74036
2.28	7.04956
2.2805	6.44531
2.281	6.04248
2.2815	4.63257
2.282	6.74744
2.2825	1.40991
2.283	8.05664
2.2835	9.26514
2.284	2.61841
2.2845	2.41699
2.285	6.2439
2.2855	11.07788
2.286	4.12903
2.2865	7.75452
2.287	7.5531
2.2875	9.66797
2.288	6.2439
2.2885	9.06372
2.289	18.12744
2.2895	14.70337
2.29	15.40833
2.2905	15.81116
2.291	18.12744
2.2915	12.08496
2.292	14.30054
2.2925	13.39417
2.293	14.19983
2.2935	15.40833
2.294	11.58142
2.2945	4.22974
2.295	5.33752
2.2955	7.85522
2.296	5.74036
2.2965	9.56726
2.297	8.45947
2.2975	5.63965
2.298	0.10071
2.2985	5.0354
2.299	3.02124
2.2995	3.7262
2.3	2.92053
2.3005	-0.20142
2.301	0.20142
2.3015	2.61841
2.302	2.61841
2.3025	1.10779
2.303	4.63257
2.3035	-0.70496
2.304	2.61841
2.3045	-2.01416
2.305	-2.61841
2.3055	-8.25806
2.306	-4.22974
2.3065	-6.64673
2.307	-8.8623
2.3075	-10.97717
2.308	-12.48779
2.3085	-18.42957
2.309	-10.97717
2.3095	-10.87646
2.31	-6.14319
2.3105	10.27222
2.311	12.08496
2.3115	7.25098
2.312	9.56726
2.3125	9.97009
2.313	12.68921
2.3135	13.89771
2.314	3.32336
2.3145	5.43823
2.315	2.81982
2.3155	-0.70496
2.316	-2.01416
2.3165	-4.73328
2.317	-6.54602
2.3175	-4.43115
2.318	-10.67505
2.3185	-11.17859
2.319	-9.97009
2.3195	-5.63965
2.32	-7.35168
2.3205	-11.07788
2.321	-12.89062
2.3215	-11.38
2.322	-12.18567
2.3225	-4.33044
2.323	1.81274
2.3235	4.63257
2.324	9.36584
2.3245	13.69629
2.325	16.61682
2.3255	18.42957
2.326	18.93311
2.3265	13.59558
2.327	15.30762
2.3275	14.19983
2.328	18.12744
2.3285	23.46497
2.329	21.3501
2.3295	11.78284
2.33	19.73877
2.3305	17.92603
2.331	9.26514
2.3315	2.11487
2.332	-0.30212
2.3325	-0.10071
2.333	1.3092
2.3335	0.90637
2.334	1.2085
2.3345	10.57434
2.335	15.30762
2.3355	16.41541
2.336	21.55151
2.3365	18.42957
2.337	21.85364
2.3375	20.64514
2.338	12.78992
2.3385	11.78284
2.339	10.17151
2.3395	3.7262
2.34	1.3092
2.3405	-0.20142
2.341	-5.94177
2.3415	-1.51062
2.342	0
2.3425	1.71204
2.343	5.33752
2.3435	2.01416
2.344	3.22266
2.3445	6.94885
2.345	7.75452
2.3455	9.46655
2.346	8.96301
2.3465	9.16443
2.347	5.13611
2.3475	10.0708
2.348	13.19275
2.3485	13.19275
2.349	10.47363
2.3495	13.39417
2.35	9.66797
2.3505	7.95593
2.351	12.08496
2.3515	17.32178
2.352	14.40125
2.3525	4.43115
2.353	2.5177
2.3535	8.66089
2.354	7.5531
2.3545	6.94885
2.355	6.94885
2.3555	12.08496
2.356	2.81982
2.3565	1.00708
2.357	1.00708
2.3575	0.30212
2.358	2.11487
2.3585	2.11487
2.359	2.5177
2.3595	11.07788
2.36	8.56018
2.3605	10.27222
2.361	-1.91345
2.3615	5.23682
2.362	6.14319
2.3625	7.5531
2.363	6.2439
2.3635	0.90637
2.364	1.00708
2.3645	2.41699
2.365	2.71912
2.3655	-0.70496
2.366	-3.32336
2.3665	-7.25098
2.367	-3.42407
2.3675	-1.71204
2.368	-0.40283
2.3685	-0.10071
2.369	4.12903
2.3695	5.0354
2.37	4.33044
2.3705	1.00708
2.371	5.33752
2.3715	10.97717
2.372	8.8623
2.3725	4.33044
2.373	7.25098
2.3735	1.71204
2.374	3.8269
2.3745	2.11487
2.375	2.41699
2.3755	6.14319
2.376	4.02832
2.3765	3.92761
2.377	2.11487
2.3775	-3.62549
2.378	-1.81274
2.3785	-8.15735
2.379	-3.42407
2.3795	-5.63965
2.38	-8.56018
2.3805	-7.5531
2.381	-7.95593
2.3815	-3.7262
2.382	-2.11487
2.3825	-1.61133
2.383	-0.90637
2.3835	-3.42407
2.384	1.51062
2.3845	9.06372
2.385	4.33044
2.3855	3.92761
2.386	4.63257
2.3865	1.00708
2.387	4.33044
2.3875	2.11487
2.388	6.04248
2.3885	7.85522
2.389	1.40991
2.3895	1.91345
2.39	6.54602
2.3905	9.36584
2.391	6.04248
2.3915	8.96301
2.392	1.40991
2.3925	1.71204
2.393	3.42407
2.3935	0.60425
2.394	1.91345
2.3945	4.53186
2.395	2.01416
2.3955	2.71912
2.396	5.23682
2.3965	6.74744
2.397	5.23682
2.3975	8.56018
2.398	6.14319
2.3985	5.53894
2.399	8.8623
2.3995	3.7262
2.4	4.73328
2.4005	7.65381
2.401	6.64673
2.4015	11.88354
2.402	11.98425
2.4025	1.81274
2.403	8.96301
2.4035	10.77576
2.404	3.02124
2.4045	5.33752
2.405	11.48071
2.4055	13.99841
2.406	12.38708
2.4065	18.32886
2.407	12.08496
2.4075	11.38
2.408	7.45239
2.4085	0.10071
2.409	5.23682
2.4095	4.12903
2.41	3.52478
2.4105	5.43823
2.411	4.12903
2.4115	9.16443
2.412	3.52478
2.4125	-1.3092
2.413	-5.94177
2.4135	-6.2439
2.414	-4.73328
2.4145	-4.02832
2.415	-4.02832
2.4155	-11.98425
2.416	2.01416
2.4165	2.01416
2.417	1.40991
2.4175	5.23682
2.418	8.05664
2.4185	10.67505
2.419	0.70496
2.4195	-5.0354
2.42	-0.30212
2.4205	5.13611
2.421	6.54602
2.4215	7.65381
2.422	9.36584
2.4225	10.47363
2.423	6.44531
2.4235	10.47363
2.424	8.56018
2.4245	11.58142
2.425	12.08496
2.4255	8.56018
2.426	6.14319
2.4265	8.15735
2.427	10.77576
2.4275	9.86938
2.428	6.44531
2.4285	12.48779
2.429	9.97009
2.4295	8.56018
2.43	12.38708
2.4305	7.35168
2.431	8.8623
2.4315	3.7262
2.432	2.92053
2.4325	-0.60425
2.433	-1.10779
2.4335	3.42407
2.434	6.2439
2.4345	-1.3092
2.435	5.33752
2.4355	-0.70496
2.436	6.14319
2.4365	6.04248
2.437	3.42407
2.4375	3.52478
2.438	7.25098
2.4385	2.5177
2.439	1.40991
2.4395	0.10071
2.44	-0.10071
2.4405	10.0708
2.441	9.56726
2.4415	17.42249
2.442	13.49487
2.4425	16.01257
2.443	16.11328
2.4435	20.34302
2.444	14.09912
2.4445	9.76868
2.445	13.89771
2.4455	10.27222
2.446	9.06372
2.4465	12.89062
2.447	13.59558
2.4475	18.63098
2.448	26.98975
2.4485	23.76709
2.449	28.80249
2.4495	20.44373
2.45	25.27771
2.4505	21.65222
2.451	22.96143
2.4515	19.33594
2.452	18.02673
2.4525	15.60974
2.453	10.87646
2.4535	3.8269
2.454	2.92053
2.4545	5.53894
2.455	5.0354
2.4555	-1.71204
2.456	-3.42407
2.4565	-6.04248
2.457	-8.05664
2.4575	-3.32336
2.458	-3.12195
2.4585	0.80566
2.459	-0.40283
2.4595	-0.30212
2.46	6.64673
2.4605	9.56726
2.461	6.2439
2.4615	11.88354
2.462	6.84814
2.4625	6.54602
2.463	6.14319
2.4635	9.36584
2.464	5.63965
2.4645	6.14319
2.465	3.32336
2.4655	6.94885
2.466	5.43823
2.4665	3.92761
2.467	8.56018
2.4675	9.16443
2.468	9.06372
2.4685	11.48071
2.469	15.1062
2.4695	19.03381
2.47	14.40125
2.4705	18.42957
2.471	17.72461
2.4715	10.97717
2.472	13.797
2.4725	13.797
2.473	10.77576
2.4735	2.71912
2.474	-0.30212
2.4745	3.32336
2.475	7.35168
2.4755	4.12903
2.476	3.7262
2.4765	7.04956
2.477	11.98425
2.4775	11.98425
2.478	12.48779
2.4785	8.45947
2.479	8.35876
2.4795	12.68921
2.48	11.38
2.4805	13.19275
2.481	13.29346
2.4815	15.81116
2.482	12.38708
2.4825	14.40125
2.483	11.98425
2.4835	18.22815
2.484	12.5885
2.4845	13.69629
2.485	10.17151
2.4855	7.5531
2.486	7.25098
2.4865	8.15735
2.487	9.97009
2.4875	12.5885
2.488	9.97009
2.4885	10.67505
2.489	13.99841
2.4895	11.58142
2.49	5.23682
2.4905	8.56018
2.491	6.64673
2.4915	5.43823
2.492	8.45947
2.4925	8.7616
2.493	6.94885
2.4935	11.17859
2.494	-0.70496
2.4945	5.23682
2.495	2.81982
2.4955	5.0354
2.496	5.94177
2.4965	4.02832
2.497	4.63257
2.4975	6.3446
2.498	5.33752
2.4985	3.02124
2.499	0
2.4995	2.81982
2.5	2.31628
2.5005	-1.3092
2.501	9.36584
2.5015	10.67505
2.502	18.8324
2.5025	13.797
2.503	5.13611
2.5035	12.5885
2.504	15.40833
2.5045	12.78992
2.505	13.59558
2.5055	10.37292
2.506	9.06372
2.5065	16.01257
2.507	16.01257
2.5075	19.23523
2.508	14.60266
2.5085	14.30054
2.509	10.47363
2.5095	10.17151
2.51	7.45239
2.5105	7.65381
2.511	10.17151
2.5115	6.44531
2.512	3.92761
2.5125	11.68213
2.513	9.76868
2.5135	8.7616
2.514	13.29346
2.5145	8.15735
2.515	9.06372
2.5155	6.64673
2.516	10.17151
2.5165	5.63965
2.517	-2.5177
2.5175	2.21558
2.518	2.31628
2.5185	0.30212
2.519	4.22974
2.5195	-0.50354
2.52	4.12903
2.5205	-6.14319
2.521	3.22266
2.5215	6.3446
2.522	5.0354
2.5225	9.16443
2.523	8.7616
2.5235	8.96301
2.524	6.04248
2.5245	5.33752
2.525	0.20142
2.5255	4.93469
2.526	1.71204
2.5265	6.64673
2.527	-1.61133
2.5275	2.21558
2.528	4.43115
2.5285	8.56018
2.529	1.61133
2.5295	5.0354
2.53	-3.8269
2.5305	5.13611
2.531	4.02832
2.5315	-0.10071
2.532	3.12195
2.5325	6.94885
2.533	8.66089
2.5335	1.10779
2.534	1.81274
2.5345	5.13611
2.535	9.76868
2.5355	3.22266
2.536	3.7262
2.5365	5.33752
2.537	7.75452
2.5375	7.45239
2.538	12.18567
2.5385	8.96301
2.539	12.28638
2.5395	11.68213
2.54	5.63965
2.5405	7.04956
2.541	13.49487
2.5415	8.25806
2.542	6.14319
2.5425	3.32336
2.543	7.5531
2.5435	6.74744
2.544	4.43115
2.5445	7.35168
2.545	6.44531
2.5455	2.92053
2.546	1.61133
2.5465	4.43115
2.547	-1.00708
2.5475	-1.81274
2.548	-3.12195
2.5485	5.13611
2.549	0.10071
2.5495	2.11487
2.55	1.40991
2.5505	0.50354
2.551	3.12195
2.5515	1.2085
2.552	1.2085
2.5525	2.71912
2.553	9.06372
2.5535	9.66797
2.554	15.71045
2.5545	12.89062
2.555	3.92761
2.5555	0
2.556	-2.21558
2.5565	-7.04956
2.557	-12.38708
2.5575	-14.09912
2.558	-8.8623
2.5585	-4.53186
2.559	-4.83398
2.5595	-2.81982
2.56	-4.73328
2.5605	0.10071
2.561	2.01416
2.5615	2.31628
2.562	2.31628
2.5625	9.36584
2.563	9.66797
2.5635	11.38
2.564	4.93469
2.5645	4.12903
2.565	6.14319
2.5655	2.5177
2.566	1.3092
2.5665	5.33752
2.567	3.62549
2.5675	4.12903
2.568	-0.40283
2.5685	5.53894
2.569	0.50354
2.5695	4.63257
2.57	6.2439
2.5705	4.53186
2.571	4.33044
2.5715	-2.11487
2.572	6.44531
2.5725	9.46655
2.573	11.2793
2.5735	4.33044
2.574	10.87646
2.5745	7.75452
2.575	13.29346
2.5755	12.18567
2.576	16.61682
2.5765	8.45947
2.577	7.75452
2.5775	5.63965
2.578	2.71912
2.5785	3.12195
2.579	8.8623
2.5795	3.62549
2.58	3.62549
2.5805	8.15735
2.581	5.33752
2.5815	6.14319
2.582	3.92761
2.5825	9.46655
2.583	7.15027
2.5835	8.05664
2.584	11.38
2.5845	0.20142
2.585	6.54602
2.5855	-0.60425
2.586	1.61133
2.5865	-1.00708
2.587	5.74036
2.5875	2.5177
2.588	2.81982
2.5885	4.53186
2.589	3.8269
2.5895	5.94177
2.59	9.46655
2.5905	9.76868
2.591	8.8623
2.5915	2.01416
2.592	10.27222
2.5925	8.15735
2.593	14.90479
2.5935	18.12744
2.594	10.87646
2.5945	8.8623
2.595	8.8623
2.5955	6.74744
2.596	6.84814
2.5965	2.71912
2.597	-0.90637
2.5975	-2.31628
2.598	-1.61133
2.5985	-1.2085
2.599	-5.53894
2.5995	-8.35876
2.6	-3.62549
2.6005	-4.43115
2.601	-2.5177
2.6015	-5.33752
2.602	-1.91345
2.6025	-2.61841
2.603	-2.81982
2.6035	-1.81274
2.604	-0.20142
2.6045	-7.25098
2.605	-7.75452
2.6055	-7.04956
2.606	-11.17859
2.6065	-9.46655
2.607	-0.90637
2.6075	-1.71204
2.608	0.40283
2.6085	1.51062
2.609	-1.2085
2.6095	-7.95593
2.61	-1.81274
2.6105	-2.31628
2.611	-0.40283
2.6115	0.30212
2.612	-4.63257
2.6125	-3.7262
2.613	-2.21558
2.6135	-0.20142
2.614	-1.10779
2.6145	-0.10071
2.615	0.40283
2.6155	-1.00708
2.616	1.3092
2.6165	-1.00708
2.617	0
2.6175	-0.50354
2.618	3.7262
2.6185	3.12195
2.619	4.73328
2.6195	2.31628
2.62	-2.81982
2.6205	-4.93469
2.621	-7.65381
2.6215	-6.54602
2.622	-0.10071
2.6225	-4.43115
2.623	5.74036
2.6235	5.74036
2.624	3.02124
2.6245	-1.40991
2.625	-3.42407
2.6255	0.90637
2.626	-0.30212
2.6265	-5.84106
2.627	-0.90637
2.6275	1.71204
2.628	2.41699
2.6285	6.2439
2.629	7.04956
2.6295	9.36584
2.63	8.35876
2.6305	9.76868
2.631	11.38
2.6315	13.39417
2.632	17.72461
2.6325	13.59558
2.633	14.19983
2.6335	11.48071
2.634	12.5885
2.6345	14.90479
2.635	11.68213
2.6355	15.00549
2.636	9.16443
2.6365	12.38708
2.637	12.18567
2.6375	6.2439
2.638	6.74744
2.6385	11.68213
2.639	12.68921
2.6395	11.07788
2.64	15.91187
2.6405	12.99133
2.641	17.22107
2.6415	21.24939
2.642	20.44373
2.6425	24.57275
2.643	18.42957
2.6435	15.91187
2.644	11.58142
2.6445	15.1062
2.645	16.81824
2.6455	13.59558
2.646	13.29346
2.6465	13.09204
2.647	12.18567
2.6475	10.17151
2.648	13.99841
2.6485	15.40833
2.649	8.96301
2.6495	9.97009
2.65	11.38
2.6505	10.57434
2.651	5.63965
2.6515	6.44531
2.652	3.02124
2.6525	2.31628
2.653	2.21558
2.6535	9.66797
2.654	9.06372
2.6545	10.67505
2.655	10.17151
2.6555	8.7616
2.656	12.99133
2.6565	11.17859
2.657	5.53894
2.6575	12.48779
2.658	9.76868
2.6585	15.20691
2.659	8.25806
2.6595	12.38708
2.66	3.7262
2.6605	11.2793
2.661	12.5885
2.6615	6.54602
2.662	5.13611
2.6625	1.81274
2.663	-4.73328
2.6635	-1.2085
2.664	1.81274
2.6645	4.63257
2.665	1.81274
2.6655	4.53186
2.666	12.48779
2.6665	8.8623
2.667	8.96301
2.6675	9.86938
2.668	3.92761
2.6685	4.33044
2.669	8.25806
2.6695	9.86938
2.67	7.95593
2.6705	3.02124
2.671	3.92761
2.6715	7.25098
2.672	7.45239
2.6725	8.05664
2.673	6.54602
2.6735	10.57434
2.674	11.78284
2.6745	13.19275
2.675	9.36584
2.6755	10.57434
2.676	11.98425
2.6765	11.2793
2.677	16.61682
2.6775	16.01257
2.678	14.80408
2.6785	12.5885
2.679	11.2793
2.6795	14.50195
2.68	9.86938
2.6805	21.65222
2.681	24.97559
2.6815	20.54443
2.682	19.03381
2.6825	17.32178
2.683	8.96301
2.6835	9.36584
2.684	4.63257
2.6845	8.15735
2.685	3.8269
2.6855	1.10779
2.686	1.91345
2.6865	6.84814
2.687	1.81274
2.6875	5.53894
2.688	4.53186
2.6885	4.93469
2.689	7.04956
2.6895	10.0708
2.69	9.06372
2.6905	10.67505
2.691	13.99841
2.6915	11.68213
2.692	8.25806
2.6925	6.84814
2.693	6.54602
2.6935	6.14319
2.694	4.33044
2.6945	5.0354
2.695	3.12195
2.6955	-1.3092
2.696	1.51062
2.6965	1.91345
2.697	1.00708
2.6975	0.70496
2.698	-4.53186
2.6985	-3.02124
2.699	-1.3092
2.6995	-0.10071
2.7	-0.40283
2.7005	-1.2085
2.701	4.12903
2.7015	2.41699
2.702	3.32336
2.7025	18.53027
2.703	21.55151
2.7035	19.83948
2.704	18.8324
2.7045	16.01257
2.705	14.19983
2.7055	10.87646
2.706	12.78992
2.7065	7.75452
2.707	9.86938
2.7075	0
2.708	0
2.7085	0.40283
2.709	2.5177
2.7095	2.71912
2.71	-4.93469
2.7105	-2.81982
2.711	-4.43115
2.7115	6.64673
2.712	3.8269
2.7125	0.90637
2.713	0.60425
2.7135	4.02832
2.714	6.04248
2.7145	4.43115
2.715	3.42407
2.7155	1.91345
2.716	-1.81274
2.7165	-2.31628
2.717	-2.01416
2.7175	1.51062
2.718	-0.10071
2.7185	0
2.719	2.01416
2.7195	-0.70496
2.72	-1.91345
2.7205	5.94177
2.721	4.83398
2.7215	9.97009
2.722	8.56018
2.7225	15.1062
2.723	11.2793
2.7235	9.16443
2.724	3.12195
2.7245	6.14319
2.725	1.61133
2.7255	1.40991
2.726	-1.00708
2.7265	9.06372
2.727	3.02124
2.7275	9.46655
2.728	14.30054
2.7285	7.75452
2.729	8.05664
2.7295	12.38708
2.73	11.38
2.7305	13.49487
2.731	9.56726
2.7315	7.35168
2.732	15.30762
2.7325	15.30762
2.733	16.51611
2.7335	15.91187
2.734	13.39417
2.7345	18.53027
2.735	16.81824
2.7355	11.2793
2.736	15.00549
2.7365	18.53027
2.737	20.24231
2.7375	19.94019
2.738	19.53735
2.7385	16.51611
2.739	14.19983
2.7395	11.38
2.74	7.25098
2.7405	4.53186
2.741	5.53894
2.7415	7.04956
2.742	9.16443
2.7425	6.74744
2.743	3.92761
2.7435	6.04248
2.744	10.77576
2.7445	6.04248
2.745	7.15027
2.7455	6.44531
2.746	8.8623
2.7465	10.27222
2.747	8.66089
2.7475	10.97717
2.748	10.47363
2.7485	8.56018
2.749	12.5885
2.7495	12.18567
2.75	0.10071
2.7505	-1.3092
2.751	-1.40991
2.7515	-0.30212
2.752	-3.52478
2.7525	-0.50354
2.753	-2.11487
2.7535	-2.11487
2.754	-3.22266
2.7545	-2.11487
2.755	4.73328
2.7555	4.22974
2.756	9.06372
2.7565	9.66797
2.757	6.54602
2.7575	10.77576
2.758	8.7616
2.7585	8.66089
2.759	9.97009
2.7595	14.70337
2.76	12.78992
2.7605	17.22107
2.761	15.40833
2.7615	14.50195
2.762	14.90479
2.7625	7.85522
2.763	8.8623
2.7635	14.90479
2.764	13.99841
2.7645	15.1062
2.765	17.6239
2.7655	12.08496
2.766	9.36584
2.7665	13.69629
2.767	13.09204
2.7675	12.5885
2.768	10.57434
2.7685	12.48779
2.769	9.36584
2.7695	8.96301
2.77	5.13611
2.7705	6.54602
2.771	1.2085
2.7715	5.53894
2.772	3.12195
2.7725	4.22974
2.773	2.61841
2.7735	5.74036
2.774	3.32336
2.7745	-0.10071
2.775	1.00708
2.7755	4.02832
2.776	3.02124
2.7765	4.02832
2.777	-2.5177
2.7775	0.20142
2.778	-1.40991
2.7785	-1.2085
2.779	-1.61133
2.7795	-5.63965
2.78	-0.10071
2.7805	-3.52478
2.781	2.21558
2.7815	5.33752
2.782	11.78284
2.7825	9.46655
2.783	7.15027
2.7835	9.86938
2.784	4.93469
2.7845	7.75452
2.785	10.0708
2.7855	9.56726
2.786	11.07788
2.7865	12.99133
2.787	10.37292
2.7875	7.45239
2.788	10.77576
2.7885	7.5531
2.789	7.04956
2.7895	6.04248
2.79	2.41699
2.7905	2.61841
2.791	3.22266
2.7915	4.43115
2.792	-0.30212
2.7925	-2.01416
2.793	-3.42407
2.7935	-2.41699
2.794	-3.92761
2.7945	-7.5531
2.795	-7.15027
2.7955	-5.33752
2.796	-1.3092
2.7965	0.90637
2.797	-2.01416
2.7975	0.60425
2.798	-1.2085
2.7985	-0.30212
2.799	-1.61133
2.7995	-0.60425
2.8	-8.7616
2.8005	-7.65381
2.801	-5.23682
2.8015	-5.43823
2.802	-0.70496
2.8025	-1.81274
2.803	5.23682
2.8035	6.2439
2.804	9.76868
2.8045	8.7616
2.805	7.5531
2.8055	9.66797
2.806	8.15735
2.8065	8.05664
2.807	3.22266
2.8075	8.15735
2.808	6.54602
2.8085	5.33752
2.809	3.02124
2.8095	-1.81274
2.81	-1.00708
2.8105	-0.80566
2.811	0.60425
2.8115	5.74036
2.812	2.61841
2.8125	6.04248
2.813	2.41699
2.8135	2.92053
2.814	8.96301
2.8145	14.50195
2.815	13.39417
2.8155	18.32886
2.816	11.2793
2.8165	13.19275
2.817	6.74744
2.8175	7.5531
2.818	6.3446
2.8185	5.23682
2.819	7.75452
2.8195	10.37292
2.82	7.65381
2.8205	8.96301
2.821	10.87646
2.8215	8.8623
2.822	5.43823
2.8225	8.66089
2.823	0
2.8235	4.43115
2.824	4.73328
2.8245	1.51062
2.825	-0.50354
2.8255	-1.00708
2.826	7.85522
2.8265	7.15027
2.827	5.94177
2.8275	-2.81982
2.828	-3.02124
2.8285	-1.10779
2.829	-1.61133
2.8295	-6.64673
2.83	-4.53186
2.8305	-7.35168
2.831	-1.81274
2.8315	2.31628
2.832	-0.10071
2.8325	0.90637
2.833	0.60425
2.8335	-0.10071
2.834	-3.02124
2.8345	2.11487
2.835	-2.21558
2.8355	-2.5177
2.836	4.73328
2.8365	-2.31628
2.837	-3.62549
2.8375	-2.5177
2.838	-4.43115
2.8385	0.70496
2.839	-0.40283
2.8395	-0.60425
2.84	-5.13611
2.8405	-3.32336
2.841	-2.71912
2.8415	-1.00708
2.842	3.7262
2.8425	5.33752
2.843	7.04956
2.8435	10.0708
2.844	6.04248
2.8445	6.64673
2.845	4.43115
2.8455	0.70496
2.846	4.53186
2.8465	6.2439
2.847	9.16443
2.8475	13.19275
2.848	10.57434
2.8485	6.2439
2.849	4.43115
2.8495	4.53186
2.85	3.62549
2.8505	4.33044
2.851	0
2.8515	9.86938
2.852	3.62549
2.8525	5.74036
2.853	1.40991
2.8535	4.12903
2.854	7.04956
2.8545	3.52478
2.855	3.42407
2.8555	1.81274
2.856	-3.52478
2.8565	-1.51062
2.857	1.51062
2.8575	-1.91345
2.858	-4.02832
2.8585	-3.62549
2.859	7.5531
2.8595	3.42407
2.86	4.43115
2.8605	1.91345
2.861	1.71204
2.8615	-2.92053
2.862	-4.33044
2.8625	-4.12903
2.863	-4.53186
2.8635	-4.93469
2.864	-5.0354
2.8645	-6.3446
2.865	-1.10779
2.8655	-0.80566
2.866	-1.00708
2.8665	-6.04248
2.867	-9.66797
2.8675	-14.60266
2.868	-13.59558
2.8685	-12.5885
2.869	-2.92053
2.8695	-4.73328
2.87	1.91345
2.8705	6.14319
2.871	9.66797
2.8715	2.92053
2.872	6.54602
2.8725	12.08496
2.873	18.22815
2.8735	15.71045
2.874	19.63806
2.8745	21.3501
2.875	19.33594
2.8755	12.38708
2.876	16.71753
2.8765	11.58142
2.877	14.50195
2.8775	8.66089
2.878	9.06372
2.8785	16.61682
2.879	11.07788
2.8795	8.56018
2.88	15.40833
2.8805	16.61682
2.881	11.58142
2.8815	18.63098
2.882	13.99841
2.8825	13.69629
2.883	14.90479
2.8835	13.69629
2.884	10.67505
2.8845	10.37292
2.885	4.63257
2.8855	10.87646
2.886	5.23682
2.8865	5.33752
2.887	7.45239
2.8875	10.17151
2.888	13.99841
2.8885	16.71753
2.889	12.28638
2.8895	15.60974
2.89	15.1062
2.8905	14.70337
2.891	12.38708
2.8915	10.77576
2.892	12.18567
2.8925	13.89771
2.893	8.05664
2.8935	10.67505
2.894	10.57434
2.8945	5.13611
2.895	2.81982
2.8955	13.99841
2.896	11.98425
2.8965	8.8623
2.897	11.68213
2.8975	7.45239
2.898	14.30054
2.8985	10.57434
2.899	14.80408
2.8995	8.25806
2.9	8.66089
2.9005	8.56018
2.901	7.85522
2.9015	8.45947
2.902	7.04956
2.9025	-0.40283
2.903	-4.73328
2.9035	0.70496
2.904	6.64673
2.9045	8.05664
2.905	6.54602
2.9055	3.62549
2.906	5.0354
2.9065	3.7262
2.907	-2.11487
2.9075	2.92053
2.908	9.36584
2.9085	16.81824
2.909	15.1062
2.9095	4.22974
2.91	8.35876
2.9105	12.28638
2.911	7.65381
2.9115	2.01416
2.912	0.90637
2.9125	1.00708
2.913	-6.04248
2.9135	8.56018
2.914	18.22815
2.9145	17.82532
2.915	15.30762
2.9155	13.19275
2.916	16.81824
2.9165	11.88354
2.917	11.17859
2.9175	3.32336
2.918	-0.90637
2.9185	-2.41699
2.919	-7.85522
2.9195	-14.60266
2.92	-2.31628
2.9205	-0.70496
2.921	-2.61841
2.9215	0.90637
2.922	-0.10071
2.9225	3.7262
2.923	4.43115
2.9235	9.56726
2.924	10.47363
2.9245	11.38
2.925	6.64673
2.9255	7.45239
2.926	8.15735
2.9265	13.09204
2.927	19.33594
2.9275	13.19275
2.928	11.88354
2.9285	6.64673
2.929	5.94177
2.9295	0.80566
2.93	5.53894
2.9305	4.73328
2.931	6.44531
2.9315	8.96301
2.932	7.25098
2.9325	3.12195
2.933	3.22266
2.9335	0.40283
2.934	-2.21558
2.9345	-1.00708
2.935	-2.41699
2.9355	6.94885
2.936	7.85522
2.9365	6.04248
2.937	5.43823
2.9375	6.14319
2.938	5.33752
2.9385	8.56018
2.939	14.40125
2.9395	12.08496
2.94	10.57434
2.9405	16.01257
2.941	11.78284
2.9415	8.05664
2.942	5.74036
2.9425	7.15027
2.943	6.3446
2.9435	6.94885
2.944	2.81982
2.9445	2.21558
2.945	0.90637
2.9455	2.92053
2.946	6.3446
2.9465	8.45947
2.947	11.78284
2.9475	16.51611
2.948	12.48779
2.9485	13.19275
2.949	10.47363
2.9495	7.65381
2.95	7.15027
2.9505	5.94177
2.951	3.12195
2.9515	1.3092
2.952	3.12195
2.9525	3.92761
2.953	3.12195
2.9535	6.64673
2.954	5.0354
2.9545	7.65381
2.955	10.57434
2.9555	9.16443
2.956	9.86938
2.9565	11.17859
2.957	14.50195
2.9575	11.98425
2.958	9.56726
2.9585	11.68213
2.959	13.59558
2.9595	11.07788
2.96	7.04956
2.9605	6.14319
2.961	5.53894
2.9615	5.94177
2.962	10.67505
2.9625	9.06372
2.963	4.73328
2.9635	6.04248
2.964	4.12903
2.9645	8.05664
2.965	2.41699
2.9655	-1.81274
2.966	-0.50354
2.9665	4.63257
2.967	4.83398
2.9675	8.25806
2.968	8.56018
2.9685	16.61682
2.969	9.56726
2.9695	12.08496
2.97	5.33752
2.9705	4.02832
2.971	9.86938
2.9715	5.74036
2.972	10.27222
2.9725	12.68921
2.973	8.8623
2.9735	12.99133
2.974	9.16443
2.9745	13.69629
2.975	13.09204
2.9755	11.68213
2.976	10.17151
2.9765	3.22266
2.977	1.81274
2.9775	-0.40283
2.978	7.15027
2.9785	0.30212
2.979	2.31628
2.9795	1.61133
2.98	5.84106
2.9805	-0.30212
2.981	6.2439
2.9815	1.3092
2.982	-0.40283
2.9825	2.71912
2.983	5.33752
2.9835	-1.81274
2.984	-3.52478
2.9845	-2.61841
2.985	-9.66797
2.9855	2.92053
2.986	0.20142
2.9865	3.32336
2.987	2.81982
2.9875	0.90637
2.988	5.63965
2.9885	4.43115
2.989	12.89062
2.9895	10.27222
2.99	15.40833
2.9905	10.97717
2.991	10.27222
2.9915	10.0708
2.992	4.12903
2.9925	10.77576
2.993	-1.61133
2.9935	-4.63257
2.994	-8.8623
2.9945	-2.71912
2.995	-4.63257
2.9955	0.10071
2.996	3.92761
2.9965	1.3092
2.997	2.5177
2.9975	-1.61133
2.998	7.15027
2.9985	-2.21558
2.999	0.50354
2.9995	-3.02124
3	-5.53894
3.0005	-1.40991
3.001	1.2085
3.0015	-0.20142
3.002	0.30212
3.0025	-4.33044
3.003	-4.73328
3.0035	-6.84814
3.004	-4.12903
3.0045	-3.92761
3.005	-9.46655
3.0055	-4.12903
3.006	3.02124
3.0065	5.33752
3.007	10.97717
3.0075	18.73169
3.008	18.53027
3.0085	17.6239
3.009	21.04797
3.0095	13.39417
3.01	20.44373
3.0105	17.01965
3.011	18.73169
3.0115	13.09204
3.012	17.22107
3.0125	18.12744
3.013	12.5885
3.0135	2.5177
3.014	3.62549
3.0145	-1.81274
3.015	-4.73328
3.0155	-1.40991
3.016	-0.50354
3.0165	4.43115
3.017	9.26514
3.0175	8.05664
3.018	8.35876
3.0185	9.16443
3.019	7.85522
3.0195	8.7616
3.02	12.78992
3.0205	16.21399
3.021	13.59558
3.0215	10.77576
3.022	11.98425
3.0225	5.43823
3.023	9.86938
3.0235	6.3446
3.024	7.04956
3.0245	12.08496
3.025	15.91187
3.0255	11.07788
3.026	11.48071
3.0265	15.1062
3.027	16.21399
3.0275	12.48779
3.028	12.28638
3.0285	11.58142
3.029	10.57434
3.0295	9.66797
3.03	12.08496
3.0305	3.52478
3.031	7.95593
3.0315	7.5531
3.032	-0.70496
3.0325	-0.40283
3.033	2.01416
3.0335	2.81982
3.034	2.21558
3.0345	1.00708
3.035	-2.71912
3.0355	1.40991
3.036	5.33752
3.0365	6.2439
3.037	7.95593
3.0375	9.36584
3.038	1.3092
3.0385	6.2439
3.039	2.21558
3.0395	5.53894
3.04	-1.10779
3.0405	1.2085
3.041	0.10071
3.0415	-0.10071
3.042	-0.70496
3.0425	2.81982
3.043	1.2085
3.0435	3.52478
3.044	1.40991
3.0445	1.00708
3.045	-3.12195
3.0455	3.02124
3.046	1.00708
3.0465	4.22974
3.047	7.75452
3.0475	5.43823
3.048	3.7262
3.0485	9.06372
3.049	4.93469
3.0495	2.31628
3.05	3.52478
3.0505	0.10071
3.051	4.43115
3.0515	2.5177
3.052	0.40283
3.0525	6.14319
3.053	4.83398
3.0535	2.31628
3.054	3.12195
3.0545	2.21558
3.055	4.93469
3.0555	4.43115
3.056	5.43823
3.0565	7.25098
3.057	9.26514
3.0575	11.88354
3.058	6.94885
3.0585	9.06372
3.059	8.25806
3.0595	7.85522
3.06	4.63257
3.0605	4.33044
3.061	-0.30212
3.0615	4.33044
3.062	4.22974
3.0625	10.57434
3.063	7.65381
3.0635	8.25806
3.064	16.01257
3.0645	12.78992
3.065	17.01965
3.0655	17.52319
3.066	13.49487
3.0665	12.89062
3.067	7.5531
3.0675	1.81274
3.068	3.22266
3.0685	0.90637
3.069	2.41699
3.0695	-0.40283
3.07	-1.10779
3.0705	-3.92761
3.071	-3.92761
3.0715	-1.61133
3.072	-4.63257
3.0725	-5.63965
3.073	-7.65381
3.0735	-2.61841
3.074	-1.91345
3.0745	-0.40283
3.075	0.40283
3.0755	1.40991
3.076	-0.20142
3.0765	3.7262
3.077	10.37292
3.0775	13.99841
3.078	19.33594
3.0785	14.09912
3.079	13.89771
3.0795	14.70337
3.08	14.70337
3.0805	16.3147
3.081	13.797
3.0815	13.99841
3.082	10.47363
3.0825	2.92053
3.083	1.61133
3.0835	0.20142
3.084	-6.14319
3.0845	-3.8269
3.085	-1.10779
3.0855	-1.71204
3.086	-5.63965
3.0865	1.3092
3.087	-1.00708
3.0875	-2.81982
3.088	-0.70496
3.0885	5.33752
3.089	0.20142
3.0895	8.15735
3.09	5.84106
3.0905	8.25806
3.091	8.8623
3.0915	1.3092
3.092	7.65381
3.0925	10.0708
3.093	8.05664
3.0935	10.27222
3.094	1.40991
3.0945	5.13611
3.095	-5.0354
3.0955	-4.53186
3.096	-4.83398
3.0965	2.01416
3.097	2.21558
3.0975	-0.20142
3.098	-2.01416
3.0985	-6.84814
3.099	-2.61841
3.0995	-7.04956
3.1	-12.68921
3.1005	-1.00708
3.101	-2.21558
3.1015	2.92053
3.102	-0.40283
3.1025	-1.2085
3.103	-11.17859
3.1035	-10.17151
3.104	-11.78284
3.1045	-3.62549
3.105	0.50354
3.1055	-2.21558
3.106	-4.73328
3.1065	-1.91345
3.107	-2.61841
3.1075	-4.22974
3.108	4.22974
3.1085	6.3446
3.109	8.8623
3.1095	29.20532
3.11	37.06055
3.1105	32.7301
3.111	29.60815
3.1115	28.9032
3.112	27.6947
3.1125	24.16992
3.113	17.32178
3.1135	12.68921
3.114	6.3446
3.1145	-1.10779
3.115	2.31628
3.1155	1.00708
3.116	0.30212
3.1165	1.3092
3.117	-0.60425
3.1175	1.71204
3.118	-0.80566
3.1185	-1.71204
3.119	-2.21558
3.1195	6.84814
3.12	6.2439
3.1205	4.43115
3.121	8.7616
3.1215	4.73328
3.122	7.15027
3.1225	12.28638
3.123	12.08496
3.1235	7.25098
3.124	2.61841
3.1245	4.73328
3.125	3.8269
3.1255	9.16443
3.126	5.74036
3.1265	12.68921
3.127	4.93469
3.1275	-0.50354
3.128	3.42407
3.1285	4.43115
3.129	-0.40283
3.1295	3.8269
3.13	0.90637
3.1305	2.31628
3.131	-0.20142
3.1315	5.94177
3.132	8.35876
3.1325	12.08496
3.133	7.25098
3.1335	3.32336
3.134	6.3446
3.1345	5.84106
3.135	15.91187
3.1355	9.56726
3.136	9.76868
3.1365	12.5885
3.137	7.25098
3.1375	1.71204
3.138	1.10779
3.1385	-2.21558
3.139	-1.00708
3.1395	-2.61841
3.14	6.14319
3.1405	5.63965
3.141	7.5531
3.1415	9.16443
3.142	10.17151
3.1425	9.97009
3.143	7.85522
3.1435	10.37292
3.144	8.7616
3.1445	12.89062
3.145	12.08496
3.1455	17.01965
3.146	14.09912
3.1465	16.61682
3.147	12.18567
3.1475	13.89771
3.148	14.90479
3.1485	9.06372
3.149	15.00549
3.1495	11.07788
3.15	14.80408
3.1505	11.58142
3.151	7.15027
3.1515	12.18567
3.152	7.95593
3.1525	4.83398
3.153	13.19275
3.1535	5.0354
3.154	5.23682
3.1545	5.63965
3.155	12.28638
3.1555	5.33752
3.156	13.09204
3.1565	3.22266
3.157	0.80566
3.1575	0.20142
3.158	-0.90637
3.1585	0.30212
3.159	-6.54602
3.1595	-1.40991
3.16	0.90637
3.1605	-0.80566
3.161	-4.22974
3.1615	-9.16443
3.162	-8.56018
3.1625	-5.43823
3.163	-5.23682
3.1635	-3.32336
3.164	-0.50354
3.1645	6.44531
3.165	0.30212
3.1655	4.22974
3.166	3.02124
3.1665	7.95593
3.167	4.53186
3.1675	3.52478
3.168	9.16443
3.1685	4.43115
3.169	11.07788
3.1695	6.14319
3.17	4.53186
3.1705	12.18567
3.171	16.41541
3.1715	20.1416
3.172	15.91187
3.1725	21.24939
3.173	19.53735
3.1735	12.48779
3.174	9.86938
3.1745	8.56018
3.175	12.48779
3.1755	7.25098
3.176	15.71045
3.1765	17.72461
3.177	7.45239
3.1775	6.04248
3.178	3.32336
3.1785	7.85522
3.179	7.5531
3.1795	-0.10071
3.18	-1.81274
3.1805	2.92053
3.181	3.22266
3.1815	4.43115
3.182	1.40991
3.1825	4.53186
3.183	6.74744
3.1835	8.45947
3.184	8.96301
3.1845	9.16443
3.185	8.45947
3.1855	12.08496
3.186	7.85522
3.1865	10.0708
3.187	8.15735
3.1875	2.41699
3.188	11.48071
3.1885	11.58142
3.189	12.5885
3.1895	4.43115
3.19	-1.10779
3.1905	-4.83398
3.191	-3.42407
3.1915	-3.02124
3.192	0
3.1925	-1.3092
3.193	3.12195
3.1935	1.3092
3.194	5.74036
3.1945	2.81982
3.195	0.40283
3.1955	2.11487
3.196	8.7616
3.1965	10.47363
3.197	5.0354
3.1975	2.01416
3.198	1.91345
3.1985	2.81982
3.199	2.71912
3.1995	7.85522
3.2	8.8623
3.2005	4.22974
3.201	3.42407
3.2015	0.30212
3.202	6.94885
3.2025	10.87646
3.203	5.23682
3.2035	9.66797
3.204	6.3446
3.2045	7.04956
3.205	7.15027
3.2055	0.60425
3.206	-0.10071
3.2065	-8.7616
3.207	-1.40991
3.2075	1.00708
3.208	-2.11487
3.2085	-12.08496
3.209	-10.87646
3.2095	-12.78992
3.21	-4.53186
3.2105	-5.53894
3.211	-9.16443
3.2115	-9.66797
3.212	-7.35168
3.2125	-4.12903
3.213	-3.42407
3.2135	-5.13611
3.214	-10.17151
3.2145	-4.53186
3.215	1.2085
3.2155	0
3.216	-0.50354
3.2165	2.71912
3.217	4.12903
3.2175	-0.50354
3.218	2.61841
3.2185	-0.10071
3.219	7.65381
3.2195	2.31628
3.22	-1.10779
3.2205	0.40283
3.221	3.62549
3.2215	0.40283
3.222	5.53894
3.2225	1.00708
3.223	1.81274
3.2235	-1.51062
3.224	-2.81982
3.2245	-4.02832
3.225	-6.44531
3.2255	-2.01416
3.226	-7.35168
3.2265	-1.00708
3.227	4.83398
3.2275	5.0354
3.228	1.00708
3.2285	5.53894
3.229	0.50354
3.2295	4.83398
3.23	4.43115
3.2305	7.04956
3.231	7.15027
3.2315	8.8623
3.232	9.66797
3.2325	14.70337
3.233	15.71045
3.2335	11.88354
3.234	11.48071
3.2345	7.25098
3.235	6.74744
3.2355	4.53186
3.236	-0.40283
3.2365	4.43115
3.237	10.87646
3.2375	11.58142
3.238	19.13452
3.2385	15.91187
3.239	15.91187
3.2395	16.41541
3.24	17.01965
3.2405	18.12744
3.241	13.09204
3.2415	18.63098
3.242	21.45081
3.2425	20.44373
3.243	22.05505
3.2435	21.45081
3.244	20.44373
3.2445	19.53735
3.245	17.12036
3.2455	15.40833
3.246	15.40833
3.2465	15.91187
3.247	20.54443
3.2475	19.53735
3.248	8.45947
3.2485	12.78992
3.249	9.46655
3.2495	13.89771
3.25	9.97009
3.2505	11.78284
3.251	11.88354
3.2515	5.84106
3.252	6.84814
3.2525	10.0708
3.253	8.25806
3.2535	7.65381
3.254	5.74036
3.2545	6.64673
3.255	7.65381
3.2555	9.16443
3.256	8.15735
3.2565	11.98425
3.257	11.68213
3.2575	1.91345
3.258	6.04248
3.2585	6.94885
3.259	16.61682
3.2595	11.2793
3.26	5.74036
3.2605	3.22266
3.261	5.84106
3.2615	7.5531
3.262	12.5885
3.2625	9.06372
3.263	13.69629
3.2635	13.99841
3.264	11.88354
3.2645	11.58142
3.265	11.78284
3.2655	12.5885
3.266	13.797
3.2665	16.01257
3.267	20.04089
3.2675	21.3501
3.268	18.93311
3.2685	18.93311
3.269	11.68213
3.2695	4.73328
3.27	7.95593
3.2705	9.76868
3.271	7.45239
3.2715	8.25806
3.272	3.02124
3.2725	3.12195
3.273	5.94177
3.2735	11.58142
3.274	7.15027
3.2745	7.5531
3.275	6.54602
3.2755	4.22974
3.276	4.83398
3.2765	5.94177
3.277	7.85522
3.2775	3.62549
3.278	1.81274
3.2785	2.01416
3.279	12.08496
3.2795	17.42249
3.28	16.21399
3.2805	15.40833
3.281	19.53735
3.2815	22.76001
3.282	15.71045
3.2825	14.70337
3.283	8.05664
3.2835	10.77576
3.284	4.53186
3.2845	2.5177
3.285	3.7262
3.2855	10.17151
3.286	8.25806
3.2865	6.94885
3.287	4.93469
3.2875	6.14319
3.288	1.3092
3.2885	2.11487
3.289	-0.70496
3.2895	2.41699
3.29	6.54602
3.2905	8.7616
3.291	2.31628
3.2915	9.36584
3.292	11.88354
3.2925	13.69629
3.293	7.35168
3.2935	9.46655
3.294	5.63965
3.2945	5.43823
3.295	4.53186
3.2955	-0.30212
3.296	1.71204
3.2965	-1.10779
3.297	-3.62549
3.2975	-1.10779
3.298	-2.61841
3.2985	-9.66797
3.299	-12.18567
3.2995	-16.3147
3.3	-10.17151
3.3005	-7.04956
3.301	-8.96301
3.3015	-2.61841
3.302	4.73328
3.3025	12.89062
3.303	14.80408
3.3035	17.52319
3.304	11.07788
3.3045	15.81116
3.305	17.82532
3.3055	12.48779
3.306	8.66089
3.3065	13.29346
3.307	7.25098
3.3075	9.97009
3.308	8.56018
3.3085	5.94177
3.309	7.04956
3.3095	-1.2085
3.31	-2.92053
3.3105	-1.71204
3.311	-6.14319
3.3115	-2.01416
3.312	3.62549
3.3125	7.35168
3.313	6.74744
3.3135	7.45239
3.314	4.33044
3.3145	5.53894
3.315	6.84814
3.3155	14.50195
3.316	8.05664
3.3165	11.38
3.317	10.97717
3.3175	9.16443
3.318	7.85522
3.3185	7.35168
3.319	10.87646
3.3195	4.63257
3.32	0.30212
3.3205	6.2439
3.321	6.04248
3.3215	0.60425
3.322	0.50354
3.3225	-4.83398
3.323	-0.10071
3.3235	-1.3092
3.324	-6.64673
3.3245	-5.33752
3.325	-5.94177
3.3255	-6.94885
3.326	-8.15735
3.3265	-11.38
3.327	-8.8623
3.3275	-8.7616
3.328	-6.3446
3.3285	2.81982
3.329	-3.22266
3.3295	-5.0354
3.33	-5.0354
3.3305	-1.2085
3.331	-1.2085
3.3315	-1.71204
3.332	-2.92053
3.3325	0.40283
3.333	1.81274
3.3335	-0.70496
3.334	-1.10779
3.3345	3.42407
3.335	-2.41699
3.3355	-1.91345
3.336	-3.62549
3.3365	-2.11487
3.337	-5.43823
3.3375	-3.92761
3.338	-4.63257
3.3385	-3.52478
3.339	5.13611
3.3395	10.47363
3.34	14.19983
3.3405	22.6593
3.341	29.80957
3.3415	26.18408
3.342	21.3501
3.3425	16.21399
3.343	13.69629
3.3435	8.35876
3.344	5.94177
3.3445	8.25806
3.345	0.70496
3.3455	-1.3092
3.346	-4.22974
3.3465	-10.47363
3.347	-12.28638
3.3475	-13.29346
3.348	-10.27222
3.3485	-7.35168
3.349	-9.86938
3.3495	-3.92761
3.35	-6.04248
3.3505	-2.01416
3.351	0.20142
3.3515	3.92761
3.352	10.57434
3.3525	11.58142
3.353	8.35876
3.3535	9.56726
3.354	11.88354
3.3545	12.38708
3.355	11.07788
3.3555	17.52319
3.356	18.53027
3.3565	16.61682
3.357	17.42249
3.3575	18.53027
3.358	17.22107
3.3585	22.25647
3.359	25.57983
3.3595	22.15576
3.36	23.36426
3.3605	9.76868
3.361	5.43823
3.3615	1.40991
3.362	6.94885
3.3625	4.43115
3.363	7.35168
3.3635	5.53894
3.364	3.92761
3.3645	3.02124
3.365	9.36584
3.3655	10.57434
3.366	10.47363
3.3665	21.95435
3.367	20.84656
3.3675	20.04089
3.368	21.3501
3.3685	27.49329
3.369	23.46497
3.3695	23.06213
3.37	26.08337
3.3705	16.11328
3.371	13.89771
3.3715	5.53894
3.372	5.74036
3.3725	3.32336
3.373	7.25098
3.3735	8.56018
3.374	11.38
3.3745	10.67505
3.375	11.2793
3.3755	15.20691
3.376	12.48779
3.3765	9.66797
3.377	15.60974
3.3775	17.42249
3.378	14.09912
3.3785	11.58142
3.379	4.93469
3.3795	8.15735
3.38	8.66089
3.3805	10.57434
3.381	4.33044
3.3815	0.40283
3.382	6.2439
3.3825	11.38
3.383	9.36584
3.3835	8.56018
3.384	11.38
3.3845	14.30054
3.385	13.39417
3.3855	11.88354
3.386	5.13611
3.3865	19.63806
3.387	12.68921
3.3875	10.47363
3.388	10.37292
3.3885	17.52319
3.389	13.19275
3.3895	12.18567
3.39	9.06372
3.3905	8.66089
3.391	8.15735
3.3915	7.95593
3.392	5.74036
3.3925	-1.71204
3.393	-1.2085
3.3935	1.00708
3.394	-0.70496
3.3945	0.10071
3.395	-2.31628
3.3955	-2.11487
3.396	-1.2085
3.3965	-1.3092
3.397	-1.91345
3.3975	-2.21558
3.398	-4.33044
3.3985	-5.13611
3.399	-7.15027
3.3995	-1.40991
3.4	2.5177
3.4005	-2.61841
3.401	-6.74744
3.4015	0
3.402	-0.50354
3.4025	-4.43115
3.403	-3.42407
3.4035	-3.42407
3.404	-2.92053
3.4045	-7.95593
3.405	-5.84106
3.4055	-8.05664
3.406	-2.71912
3.4065	-6.84814
3.407	-3.22266
3.4075	-4.93469
3.408	-2.01416
3.4085	-1.61133
3.409	0.40283
3.4095	1.3092
3.41	-0.40283
3.4105	-1.61133
3.411	-1.3092
3.4115	2.5177
3.412	-5.63965
3.4125	3.52478
3.413	-0.70496
3.4135	2.21558
3.414	6.84814
3.4145	8.96301
3.415	7.85522
3.4155	2.21558
3.416	4.73328
3.4165	4.02832
3.417	0.40283
3.4175	-7.95593
3.418	-4.02832
3.4185	-0.90637
3.419	5.13611
3.4195	2.01416
3.42	3.32336
3.4205	12.48779
3.421	9.66797
3.4215	8.8623
3.422	8.56018
3.4225	12.18567
3.423	8.05664
3.4235	9.66797
3.424	5.13611
3.4245	5.84106
3.425	4.33044
3.4255	8.35876
3.426	10.97717
3.4265	1.2085
3.427	6.44531
3.4275	3.92761
3.428	1.91345
3.4285	2.01416
3.429	9.46655
3.4295	2.41699
3.43	4.53186
3.4305	1.61133
3.431	4.93469
3.4315	6.84814
3.432	8.7616
3.4325	10.17151
3.433	8.25806
3.4335	15.30762
3.434	16.51611
3.4345	19.53735
3.435	17.52319
3.4355	11.38
3.436	7.95593
3.4365	8.66089
3.437	2.01416
3.4375	-3.22266
3.438	4.22974
3.4385	1.81274
3.439	3.02124
3.4395	0.10071
3.44	5.84106
3.4405	9.76868
3.441	6.64673
3.4415	14.60266
3.442	7.65381
3.4425	18.32886
3.443	11.07788
3.4435	14.60266
3.444	17.52319
3.4445	10.47363
3.445	4.53186
3.4455	10.17151
3.446	6.44531
3.4465	8.7616
3.447	10.37292
3.4475	10.47363
3.448	16.21399
3.4485	17.42249
3.449	21.85364
3.4495	18.12744
3.45	17.22107
3.4505	17.72461
3.451	11.78284
3.4515	8.05664
3.452	4.22974
3.4525	-11.48071
3.453	-6.2439
3.4535	2.01416
3.454	-0.90637
3.4545	2.01416
3.455	6.64673
3.4555	0.10071
3.456	2.92053
3.4565	3.32336
3.457	5.43823
3.4575	7.15027
3.458	10.17151
3.4585	10.37292
3.459	10.67505
3.4595	12.28638
3.46	19.23523
3.4605	19.53735
3.461	14.80408
3.4615	16.21399
3.462	20.04089
3.4625	13.49487
3.463	9.46655
3.4635	14.19983
3.464	14.60266
3.4645	12.48779
3.465	13.09204
3.4655	11.48071
3.466	9.46655
3.4665	11.78284
3.467	13.19275
3.4675	14.90479
3.468	9.86938
3.4685	8.05664
3.469	5.63965
3.4695	10.17151
3.47	7.04956
3.4705	9.16443
3.471	12.68921
3.4715	7.45239
3.472	4.22974
3.4725	6.2439
3.473	12.78992
3.4735	10.27222
3.474	6.04248
3.4745	-1.3092
3.475	-0.50354
3.4755	3.12195
3.476	-1.00708
3.4765	-4.53186
3.477	2.71912
3.4775	-3.62549
3.478	-3.22266
3.4785	-2.01416
3.479	-4.43115
3.4795	1.3092
3.48	5.94177
3.4805	3.7262
3.481	5.23682
3.4815	9.66797
3.482	4.93469
3.4825	1.61133
3.483	0.50354
3.4835	1.40991
3.484	1.10779
3.4845	3.52478
3.485	1.91345
3.4855	-0.40283
3.486	5.63965
3.4865	8.45947
3.487	13.49487
3.4875	13.29346
3.488	8.96301
3.4885	2.71912
3.489	3.22266
3.4895	-7.04956
3.49	0.50354
3.4905	-0.20142
3.491	-0.50354
3.4915	-6.94885
3.492	-6.54602
3.4925	-5.0354
3.493	-2.92053
3.4935	-4.83398
3.494	-9.56726
3.4945	0.80566
3.495	2.11487
3.4955	-0.70496
3.496	6.74744
3.4965	0.70496
3.497	0.20142
3.4975	-2.81982
3.498	-2.5177
3.4985	-2.21558
3.499	2.61841
3.4995	2.61841
3.5	-5.63965
3.5005	-5.13611
3.501	-1.3092
3.5015	-5.43823
3.502	-4.53186
3.5025	-2.01416
3.503	-4.12903
3.5035	2.21558
3.504	-4.63257
3.5045	0
3.505	-3.02124
3.5055	-3.42407
3.506	3.7262
3.5065	16.41541
3.507	15.71045
3.5075	22.15576
3.508	22.6593
3.5085	20.64514
3.509	15.50903
3.5095	20.04089
3.51	11.68213
3.5105	1.40991
3.511	1.2085
3.5115	-3.02124
3.512	-2.61841
3.5125	-2.31628
3.513	-1.40991
3.5135	-1.51062
3.514	3.7262
3.5145	9.66797
3.515	3.32336
3.5155	7.85522
3.516	8.45947
3.5165	4.22974
3.517	6.44531
3.5175	6.54602
3.518	14.60266
3.5185	11.88354
3.519	13.89771
3.5195	11.78284
3.52	12.08496
3.5205	13.99841
3.521	12.78992
3.5215	14.40125
3.522	8.25806
3.5225	20.34302
3.523	10.17151
3.5235	7.35168
3.524	10.97717
3.5245	19.33594
3.525	10.27222
3.5255	11.2793
3.526	12.28638
3.5265	10.77576
3.527	10.67505
3.5275	10.27222
3.528	7.35168
3.5285	3.92761
3.529	7.45239
3.5295	15.1062
3.53	9.36584
3.5305	12.38708
3.531	14.19983
3.5315	13.19275
3.532	16.41541
3.5325	6.64673
3.533	7.25098
3.5335	11.2793
3.534	8.96301
3.5345	8.25806
3.535	11.98425
3.5355	6.74744
3.536	1.81274
3.5365	0.80566
3.537	-6.74744
3.5375	-7.15027
3.538	-6.74744
3.5385	-8.66089
3.539	-7.75452
3.5395	-6.04248
3.54	-3.62549
3.5405	-7.5531
3.541	-5.13611
3.5415	-4.02832
3.542	-0.10071
3.5425	-3.02124
3.543	1.3092
3.5435	1.40991
3.544	-3.22266
3.5445	-3.92761
3.545	-4.33044
3.5455	-7.35168
3.546	-5.0354
3.5465	0.20142
3.547	-0.50354
3.5475	-3.02124
3.548	-3.12195
3.5485	-4.02832
3.549	-5.13611
3.5495	-7.35168
3.55	-4.22974
3.5505	-1.61133
3.551	3.8269
3.5515	-2.31628
3.552	1.61133
3.5525	-2.5177
3.553	-3.7262
3.5535	5.13611
3.554	6.84814
3.5545	3.22266
3.555	-4.33044
3.5555	6.94885
3.556	3.42407
3.5565	6.2439
3.557	4.02832
3.5575	3.32336
3.558	-0.60425
3.5585	1.81274
3.559	0.10071
3.5595	1.00708
3.56	0.30212
3.5605	-0.10071
3.561	9.26514
3.5615	7.65381
3.562	4.73328
3.5625	9.26514
3.563	6.64673
3.5635	4.53186
3.564	-2.92053
3.5645	4.73328
3.565	0.60425
3.5655	-0.40283
3.566	-2.31628
3.5665	-2.92053
3.567	7.25098
3.5675	2.21558
3.568	2.41699
3.5685	2.92053
3.569	1.61133
3.5695	-1.2085
3.57	2.01416
3.5705	2.41699
3.571	1.71204
3.5715	2.01416
3.572	5.94177
3.5725	6.2439
3.573	-0.10071
3.5735	4.12903
3.574	-0.70496
3.5745	0.80566
3.575	0.70496
3.5755	2.41699
3.576	3.7262
3.5765	2.81982
3.577	5.63965
3.5775	-0.20142
3.578	-1.40991
3.5785	1.81274
3.579	0.60425
3.5795	-1.51062
3.58	3.8269
3.5805	1.91345
3.581	-3.42407
3.5815	3.52478
3.582	6.04248
3.5825	3.52478
3.583	3.62549
3.5835	4.93469
3.584	5.33752
3.5845	12.89062
3.585	4.73328
3.5855	4.33044
3.586	6.44531
3.5865	4.83398
3.587	10.37292
3.5875	10.97717
3.588	10.47363
3.5885	6.64673
3.589	8.8623
3.5895	9.16443
3.59	8.56018
3.5905	5.94177
3.591	5.13611
3.5915	1.61133
3.592	6.54602
3.5925	4.33044
3.593	3.32336
3.5935	7.35168
3.594	8.66089
3.5945	9.46655
3.595	13.69629
3.5955	16.01257
3.596	14.19983
3.5965	9.16443
3.597	11.98425
3.5975	9.06372
3.598	12.99133
3.5985	3.62549
3.599	5.0354
3.5995	10.17151
3.6	6.94885
3.6005	9.26514
3.601	6.54602
3.6015	11.88354
3.602	14.40125
3.6025	15.40833
3.603	15.00549
3.6035	13.49487
3.604	8.56018
3.6045	8.35876
3.605	5.63965
3.6055	4.53186
3.606	10.67505
3.6065	14.70337
3.607	9.56726
3.6075	9.86938
3.608	10.27222
3.6085	9.06372
3.609	11.07788
3.6095	9.97009
3.61	11.88354
3.6105	10.17151
3.611	7.85522
3.6115	10.87646
3.612	10.87646
3.6125	12.99133
3.613	13.29346
3.6135	8.25806
3.614	7.65381
3.6145	10.27222
3.615	5.94177
3.6155	4.43115
3.616	10.57434
3.6165	8.66089
3.617	7.65381
3.6175	8.96301
3.618	5.63965
3.6185	4.73328
3.619	0.30212
3.6195	-2.21558
3.62	7.35168
3.6205	7.5531
3.621	13.09204
3.6215	9.16443
3.622	14.50195
3.6225	9.76868
3.623	11.38
3.6235	18.02673
3.624	11.58142
3.6245	10.0708
3.625	8.56018
3.6255	3.52478
3.626	-0.20142
3.6265	-3.92761
3.627	-2.21558
3.6275	-6.64673
3.628	2.61841
3.6285	6.64673
3.629	9.16443
3.6295	12.89062
3.63	16.71753
3.6305	19.83948
3.631	14.30054
3.6315	5.74036
3.632	3.02124
3.6325	-1.91345
3.633	-0.60425
3.6335	-2.31628
3.634	7.5531
3.6345	4.73328
3.635	7.85522
3.6355	5.23682
3.636	14.30054
3.6365	19.73877
3.637	15.30762
3.6375	15.91187
3.638	15.30762
3.6385	9.36584
3.639	6.74744
3.6395	7.75452
3.64	18.53027
3.6405	26.58691
3.641	30.2124
3.6415	28.70178
3.642	27.6947
3.6425	18.63098
3.643	22.96143
3.6435	7.04956
3.644	6.04248
3.6445	2.61841
3.645	0.90637
3.6455	-0.40283
3.646	-6.04248
3.6465	-9.16443
3.647	-0.90637
3.6475	-7.35168
3.648	-9.56726
3.6485	-5.63965
3.649	-13.69629
3.6495	-9.36584
3.65	-14.09912
3.6505	3.02124
3.651	9.46655
3.6515	5.94177
3.652	8.8623
3.6525	5.84106
3.653	5.84106
3.6535	4.93469
3.654	3.12195
3.6545	4.43115
3.655	4.43115
3.6555	3.62549
3.656	10.67505
3.6565	7.85522
3.657	5.43823
3.6575	3.7262
3.658	-4.33044
3.6585	-0.50354
3.659	-2.61841
3.6595	3.52478
3.66	-1.71204
3.6605	0.40283
3.661	2.81982
3.6615	6.84814
3.662	6.54602
3.6625	6.2439
3.663	5.23682
3.6635	9.06372
3.664	3.52478
3.6645	5.0354
3.665	7.04956
3.6655	7.25098
3.666	5.23682
3.6665	9.97009
3.667	20.04089
3.6675	12.38708
3.668	14.19983
3.6685	11.78284
3.669	12.48779
3.6695	4.73328
3.67	8.7616
3.6705	3.32336
3.671	3.7262
3.6715	3.8269
3.672	-2.71912
3.6725	4.83398
3.673	0.80566
3.6735	5.13611
3.674	4.33044
3.6745	5.63965
3.675	2.01416
3.6755	7.15027
3.676	9.06372
3.6765	3.32336
3.677	-1.40991
3.6775	6.2439
3.678	1.71204
3.6785	5.74036
3.679	6.2439
3.6795	2.71912
3.68	3.12195
3.6805	3.8269
3.681	5.43823
3.6815	1.61133
3.682	7.65381
3.6825	13.19275
3.683	14.09912
3.6835	9.36584
3.684	8.05664
3.6845	-1.00708
3.685	3.12195
3.6855	3.22266
3.686	0.80566
3.6865	2.92053
3.687	0.70496
3.6875	5.23682
3.688	14.60266
3.6885	19.13452
3.689	20.54443
3.6895	22.35718
3.69	22.96143
3.6905	20.34302
3.691	13.29346
3.6915	14.50195
3.692	14.30054
3.6925	18.63098
3.693	15.50903
3.6935	10.27222
3.694	11.88354
3.6945	18.93311
3.695	22.55859
3.6955	17.22107
3.696	15.1062
3.6965	14.09912
3.697	13.49487
3.6975	11.58142
3.698	13.39417
3.6985	10.67505
3.699	6.44531
3.6995	4.33044
3.7	6.3446
3.7005	3.92761
3.701	-0.60425
3.7015	-6.2439
3.702	-7.5531
3.7025	-1.51062
3.703	-0.80566
3.7035	8.35876
3.704	-1.81274
3.7045	3.8269
3.705	3.02124
3.7055	5.33752
3.706	3.52478
3.7065	3.7262
3.707	1.10779
3.7075	6.3446
3.708	7.65381
3.7085	6.14319
3.709	6.04248
3.7095	7.75452
3.71	9.46655
3.7105	5.94177
3.711	4.93469
3.7115	-0.90637
3.712	-1.10779
3.7125	3.62549
3.713	4.22974
3.7135	0
3.714	-2.31628
3.7145	-5.43823
3.715	3.8269
3.7155	8.8623
3.716	10.77576
3.7165	7.35168
3.717	10.0708
3.7175	14.30054
3.718	3.52478
3.7185	5.94177
3.719	-0.90637
3.7195	4.22974
3.72	3.32336
3.7205	3.92761
3.721	5.74036
3.7215	10.57434
3.722	10.17151
3.7225	16.3147
3.723	12.68921
3.7235	15.50903
3.724	13.49487
3.7245	13.59558
3.725	13.59558
3.7255	19.23523
3.726	10.67505
3.7265	16.81824
3.727	19.13452
3.7275	18.22815
3.728	22.96143
3.7285	17.12036
3.729	24.16992
3.7295	23.06213
3.73	21.24939
3.7305	16.51611
3.731	13.09204
3.7315	12.48779
3.732	12.38708
3.7325	11.2793
3.733	3.92761
3.7335	24.67346
3.734	29.50745
3.7345	25.88196
3.735	25.47913
3.7355	19.33594
3.736	16.61682
3.7365	9.76868
3.737	4.93469
3.7375	0.50354
3.738	0.40283
3.7385	-1.91345
3.739	-4.63257
3.7395	-5.94177
3.74	-7.85522
3.7405	-5.63965
3.741	-3.92761
3.7415	3.02124
3.742	4.12903
3.7425	5.33752
3.743	2.21558
3.7435	10.47363
3.744	5.23682
3.7445	-3.32336
3.745	-18.53027
3.7455	-17.22107
3.746	-20.1416
3.7465	-17.32178
3.747	-16.3147
3.7475	-9.76868
3.748	-8.56018
3.7485	0.40283
3.749	-0.50354
3.7495	5.0354
3.75	5.74036
3.7505	0.50354
3.751	3.22266
3.7515	9.26514
3.752	12.68921
3.7525	17.22107
3.753	15.91187
3.7535	10.27222
3.754	16.21399
3.7545	19.23523
3.755	19.33594
3.7555	22.55859
3.756	19.83948
3.7565	17.22107
3.757	16.71753
3.7575	20.24231
3.758	16.81824
3.7585	18.42957
3.759	28.29895
3.7595	23.36426
3.76	23.96851
3.7605	27.59399
3.761	24.57275
3.7615	19.73877
3.762	13.39417
3.7625	12.48779
3.763	8.96301
3.7635	10.57434
3.764	11.07788
3.7645	6.84814
3.765	7.25098
3.7655	9.16443
3.766	8.8623
3.7665	1.71204
3.767	1.3092
3.7675	-3.62549
3.768	-2.71912
3.7685	-0.20142
3.769	-6.04248
3.7695	-6.2439
3.77	-3.52478
3.7705	-2.01416
3.771	-6.3446
3.7715	-9.06372
3.772	0.90637
3.7725	0.40283
3.773	2.61841
3.7735	7.85522
3.774	11.2793
3.7745	8.7616
3.775	6.14319
3.7755	10.77576
3.776	6.64673
3.7765	12.68921
3.777	15.20691
3.7775	13.59558
3.778	13.39417
3.7785	6.44531
3.779	3.7262
3.7795	8.25806
3.78	7.85522
3.7805	9.66797
3.781	9.06372
3.7815	8.35876
3.782	9.16443
3.7825	5.23682
3.783	5.63965
3.7835	0.70496
3.784	6.44531
3.7845	2.11487
3.785	4.53186
3.7855	-3.02124
3.786	-4.22974
3.7865	-2.81982
3.787	6.14319
3.7875	3.42407
3.788	3.02124
3.7885	8.05664
3.789	0.40283
3.7895	9.06372
3.79	8.45947
3.7905	6.54602
3.791	9.56726
3.7915	14.50195
3.792	19.83948
3.7925	16.51611
3.793	16.01257
3.7935	15.40833
3.794	11.17859
3.7945	10.87646
3.795	9.26514
3.7955	-4.53186
3.796	5.0354
3.7965	3.42407
3.797	10.0708
3.7975	7.75452
3.798	4.93469
3.7985	9.16443
3.799	10.0708
3.7995	10.37292
3.8	13.59558
3.8005	11.68213
3.801	6.3446
3.8015	3.32336
3.802	-3.92761
3.8025	0.20142
3.803	-0.70496
3.8035	0.20142
3.804	-3.8269
3.8045	2.01416
3.805	-2.11487
3.8055	-0.90637
3.806	-8.15735
3.8065	-13.49487
3.807	-5.74036
3.8075	-9.16443
3.808	-4.12903
3.8085	-4.02832
3.809	3.32336
3.8095	4.02832
3.81	11.98425
3.8105	10.67505
3.811	17.12036
3.8115	12.38708
3.812	8.25806
3.8125	9.56726
3.813	11.68213
3.8135	11.98425
3.814	12.28638
3.8145	10.47363
3.815	17.6239
3.8155	14.30054
3.816	13.69629
3.8165	9.56726
3.817	12.28638
3.8175	13.99841
3.818	11.68213
3.8185	9.66797
3.819	10.77576
3.8195	6.04248
3.82	11.78284
3.8205	2.41699
3.821	-3.62549
3.8215	-4.73328
3.822	-5.23682
3.8225	-8.8623
3.823	-3.12195
3.8235	-8.45947
3.824	-2.61841
3.8245	4.33044
3.825	-1.51062
3.8255	-0.90637
3.826	-0.20142
3.8265	-2.92053
3.827	-0.30212
3.8275	4.83398
3.828	4.83398
3.8285	2.41699
3.829	9.36584
3.8295	11.98425
3.83	13.797
3.8305	14.80408
3.831	8.05664
3.8315	13.09204
3.832	10.17151
3.8325	10.57434
3.833	6.2439
3.8335	3.22266
3.834	10.37292
3.8345	5.63965
3.835	10.47363
3.8355	5.63965
3.836	7.15027
3.8365	-2.81982
3.837	-3.02124
3.8375	-6.84814
3.838	-8.96301
3.8385	-4.12903
3.839	-4.22974
3.8395	-3.92761
3.84	-2.5177
3.8405	5.23682
3.841	5.43823
3.8415	9.46655
3.842	17.52319
3.8425	17.72461
3.843	12.5885
3.8435	-2.01416
3.844	-1.91345
3.8445	-8.7616
3.845	-13.09204
3.8455	-14.90479
3.846	-19.43665
3.8465	-30.11169
3.847	-35.85205
3.8475	-28.70178
3.848	-20.34302
3.8485	-1.71204
3.849	5.23682
3.8495	19.73877
3.85	13.99841
3.8505	16.21399
3.851	17.72461
3.8515	25.37842
3.852	22.25647
3.8525	27.6947
3.853	23.56567
3.8535	21.14868
3.854	24.27063
3.8545	30.2124
3.855	30.11169
3.8555	29.91028
3.856	30.71594
3.8565	25.07629
3.857	12.89062
3.8575	13.49487
3.858	15.1062
3.8585	19.13452
3.859	19.73877
3.8595	20.74585
3.86	14.70337
3.8605	8.7616
3.861	9.06372
3.8615	9.26514
3.862	7.25098
3.8625	6.04248
3.863	7.5531
3.8635	8.96301
3.864	13.29346
3.8645	5.74036
3.865	7.65381
3.8655	11.38
3.866	10.57434
3.8665	6.74744
3.867	1.91345
3.8675	3.32336
3.868	4.83398
3.8685	5.13611
3.869	3.62549
3.8695	5.33752
3.87	9.56726
3.8705	9.76868
3.871	2.71912
3.8715	4.73328
3.872	-1.00708
3.8725	2.01416
3.873	2.81982
3.8735	0.50354
3.874	-4.83398
3.8745	-6.44531
3.875	-9.16443
3.8755	-16.91895
3.876	-9.26514
3.8765	-7.65381
3.877	-1.00708
3.8775	0
3.878	7.35168
3.8785	10.57434
3.879	10.57434
3.8795	13.99841
3.88	18.02673
3.8805	17.6239
3.881	19.63806
3.8815	16.21399
3.882	11.17859
3.8825	12.48779
3.883	6.04248
3.8835	2.21558
3.884	-2.61841
3.8845	5.53894
3.885	3.42407
3.8855	7.65381
3.886	7.15027
3.8865	6.84814
3.887	3.62549
3.8875	0.90637
3.888	0
3.8885	9.86938
3.889	10.87646
3.8895	13.99841
3.89	12.89062
3.8905	12.38708
3.891	5.63965
3.8915	9.56726
3.892	11.07788
3.8925	10.77576
3.893	12.89062
3.8935	13.59558
3.894	11.68213
3.8945	11.78284
3.895	10.17151
3.8955	11.58142
3.896	9.16443
3.8965	10.27222
3.897	2.5177
3.8975	5.84106
3.898	2.11487
3.8985	2.01416
3.899	10.17151
3.8995	5.84106
3.9	2.61841
3.9005	5.63965
3.901	5.23682
3.9015	11.88354
3.902	12.08496
3.9025	9.86938
3.903	10.17151
3.9035	15.40833
3.904	6.3446
3.9045	4.63257
3.905	2.01416
3.9055	10.0708
3.906	19.03381
3.9065	11.88354
3.907	12.89062
3.9075	6.54602
3.908	6.3446
3.9085	4.53186
3.909	5.84106
3.9095	8.45947
3.91	9.06372
3.9105	7.5531
3.911	0.80566
3.9115	1.40991
3.912	-2.31628
3.9125	-2.41699
3.913	-0.30212
3.9135	-3.92761
3.914	-0.10071
3.9145	-3.92761
3.915	0.10071
3.9155	-12.18567
3.916	-12.89062
3.9165	-6.74744
3.917	-4.53186
3.9175	-11.98425
3.918	-21.24939
3.9185	-17.52319
3.919	-13.69629
3.9195	-15.20691
3.92	-13.99841
3.9205	-8.7616
3.921	-5.84106
3.9215	-7.75452
3.922	-0.50354
3.9225	1.10779
3.923	0.10071
3.9235	-0.90637
3.924	4.53186
3.9245	9.06372
3.925	11.78284
3.9255	23.56567
3.926	30.51453
3.9265	27.89612
3.927	33.73718
3.9275	34.74426
3.928	35.75134
3.9285	36.75842
3.929	32.52869
3.9295	33.33435
3.93	31.01807
3.9305	30.81665
3.931	33.13293
3.9315	29.50745
3.932	26.3855
3.9325	17.12036
3.933	13.59558
3.9335	15.20691
3.934	14.80408
3.9345	13.69629
3.935	19.53735
3.9355	21.04797
3.936	17.22107
3.9365	14.40125
3.937	10.27222
3.9375	6.84814
3.938	5.74036
3.9385	5.43823
3.939	7.5531
3.9395	9.16443
3.94	7.85522
3.9405	5.74036
3.941	6.14319
3.9415	5.84106
3.942	7.95593
3.9425	9.26514
3.943	6.84814
3.9435	3.62549
3.944	1.91345
3.9445	-5.94177
3.945	-1.3092
3.9455	-2.31628
3.946	0.60425
3.9465	1.51062
3.947	-3.02124
3.9475	-0.10071
3.948	3.62549
3.9485	5.13611
3.949	8.8623
3.9495	6.44531
3.95	4.33044
3.9505	4.43115
3.951	-4.73328
3.9515	0.80566
3.952	9.86938
3.9525	9.16443
3.953	5.74036
3.9535	8.7616
3.954	4.83398
3.9545	11.48071
3.955	4.53186
3.9555	8.8623
3.956	1.51062
3.9565	2.21558
3.957	-2.81982
3.9575	-10.17151
3.958	-11.88354
3.9585	-6.04248
3.959	-15.81116
3.9595	-6.3446
3.96	-1.00708
3.9605	-5.53894
3.961	2.01416
3.9615	9.36584
3.962	9.06372
3.9625	8.7616
3.963	-1.40991
3.9635	6.74744
3.964	10.37292
3.9645	14.60266
3.965	15.71045
3.9655	13.29346
3.966	6.14319
3.9665	8.96301
3.967	9.36584
3.9675	4.83398
3.968	1.71204
3.9685	3.42407
3.969	2.71912
3.9695	0.10071
3.97	-3.32336
3.9705	-1.3092
3.971	-1.51062
3.9715	1.2085
3.972	1.40991
3.9725	2.41699
3.973	3.12195
3.9735	-2.21558
3.974	-0.70496
3.9745	-0.80566
3.975	-0.30212
3.9755	-0.20142
3.976	1.91345
3.9765	2.41699
3.977	14.80408
3.9775	11.68213
3.978	8.45947
3.9785	-3.12195
3.979	-10.47363
3.9795	-7.45239
3.98	-10.57434
3.9805	-11.48071
3.981	-12.5885
3.9815	-14.40125
3.982	-7.04956
3.9825	4.93469
3.983	28.80249
3.9835	35.65063
3.984	35.44922
3.9845	36.55701
3.985	31.01807
3.9855	31.32019
3.986	25.37842
3.9865	19.23523
3.987	15.81116
3.9875	6.94885
3.988	10.0708
3.9885	10.87646
3.989	17.22107
3.9895	9.56726
3.99	7.75452
3.9905	10.47363
3.991	7.35168
3.9915	7.85522
3.992	6.14319
3.9925	5.33752
3.993	2.61841
3.9935	-1.61133
3.994	0.30212
3.9945	-2.41699
3.995	5.13611
3.9955	6.44531
3.996	8.15735
3.9965	2.61841
3.997	1.00708
3.9975	-3.7262
3.998	-6.64673
3.9985	-6.54602
3.999	-9.56726
3.9995	-9.26514
4	-6.64673
4.0005	-7.35168
4.001	-2.11487
4.0015	-1.61133
4.002	5.63965
4.0025	1.3092
4.003	4.22974
4.0035	3.42407
4.004	6.74744
4.0045	6.94885
4.005	6.2439
4.0055	10.47363
4.006	4.33044
4.0065	5.74036
4.007	3.12195
4.0075	2.5177
4.008	-1.3092
4.0085	3.8269
4.009	6.64673
4.0095	7.04956
4.01	3.12195
4.0105	-0.80566
4.011	1.2085
4.0115	1.3092
4.012	1.91345
4.0125	5.94177
4.013	7.25098
4.0135	3.92761
4.014	-1.71204
4.0145	0.30212
4.015	-1.81274
4.0155	1.2085
4.016	7.25098
4.0165	8.05664
4.017	7.75452
4.0175	1.00708
4.018	-2.71912
4.0185	-8.05664
4.019	-1.00708
4.0195	-1.00708
4.02	-3.22266
4.0205	3.12195
4.021	-2.81982
4.0215	2.11487
4.022	11.58142
4.0225	7.5531
4.023	6.3446
4.0235	8.45947
4.024	8.05664
4.0245	9.06372
4.025	9.97009
4.0255	5.94177
4.026	7.65381
4.0265	5.53894
4.027	6.94885
4.0275	10.77576
4.028	6.74744
4.0285	3.7262
4.029	1.51062
4.0295	-4.02832
4.03	-6.74744
4.0305	-4.33044
4.031	0.40283
4.0315	-0.90637
4.032	0.50354
4.0325	0.50354
4.033	0
4.0335	1.10779
4.034	-0.50354
4.0345	5.84106
4.035	5.0354
4.0355	2.71912
4.036	6.94885
4.0365	-0.30212
4.037	7.04956
4.0375	3.32336
4.038	5.74036
4.0385	-0.60425
4.039	-6.54602
4.0395	-5.53894
4.04	-9.56726
4.0405	-7.25098
4.041	-2.01416
4.0415	1.00708
4.042	3.62549
4.0425	7.95593
4.043	6.84814
4.0435	10.97717
4.044	13.99841
4.0445	11.38
4.045	21.3501
4.0455	20.1416
4.046	16.51611
4.0465	12.99133
4.047	13.39417
4.0475	14.70337
4.048	11.07788
4.0485	15.1062
4.049	9.26514
4.0495	9.26514
4.05	10.77576
4.0505	16.21399
4.051	8.45947
4.0515	14.80408
4.052	12.68921
4.0525	8.96301
4.053	14.50195
4.0535	12.89062
4.054	5.23682
4.0545	5.84106
4.055	6.3446
4.0555	-0.70496
4.056	2.81982
4.0565	1.3092
4.057	5.0354
4.0575	-1.91345
4.058	-7.45239
4.0585	-6.84814
4.059	1.81274
4.0595	2.81982
4.06	-4.22974
4.0605	-2.81982
4.061	4.22974
4.0615	6.3446
4.062	7.85522
4.0625	12.5885
4.063	13.49487
4.0635	9.56726
4.064	7.25098
4.0645	13.39417
4.065	10.17151
4.0655	3.62549
4.066	10.27222
4.0665	15.40833
4.067	8.56018
4.0675	6.14319
4.068	12.08496
4.0685	18.63098
4.069	18.12744
4.0695	13.39417
4.07	14.19983
4.0705	10.17151
4.071	14.40125
4.0715	19.33594
4.072	18.32886
4.0725	22.05505
4.073	21.24939
4.0735	14.70337
4.074	18.53027
