Alex_Venditti_Right_1.c3d  



Time(s):	A_L_bicipite(μV):
0	3.02124
0.0005	1.61133
0.001	-1.2085
0.0015	-3.12195
0.002	-2.81982
0.0025	-14.09912
0.003	-27.39258
0.0035	-33.63647
0.004	-35.85205
0.0045	-34.24072
0.005	-38.974
0.0055	-31.21948
0.006	-26.78833
0.0065	-15.91187
0.007	-5.13611
0.0075	-1.2085
0.008	4.93469
0.0085	20.04089
0.009	21.65222
0.0095	30.41382
0.01	40.1825
0.0105	40.48462
0.011	33.83789
0.0115	29.20532
0.012	25.78125
0.0125	25.47913
0.013	20.34302
0.0135	10.37292
0.014	10.27222
0.0145	9.26514
0.015	9.97009
0.0155	7.04956
0.016	17.6239
0.0165	8.96301
0.017	10.57434
0.0175	4.43115
0.018	4.93469
0.0185	8.35876
0.019	-0.40283
0.0195	5.74036
0.02	10.97717
0.0205	21.55151
0.021	24.37134
0.0215	19.94019
0.022	19.83948
0.0225	21.45081
0.023	19.53735
0.0235	19.53735
0.024	14.80408
0.0245	13.39417
0.025	10.17151
0.0255	12.48779
0.026	5.43823
0.0265	9.26514
0.027	9.16443
0.0275	3.02124
0.028	0.40283
0.0285	-6.2439
0.029	-7.04956
0.0295	-5.33752
0.03	-2.31628
0.0305	-1.10779
0.031	-4.83398
0.0315	-4.93469
0.032	-2.61841
0.0325	-7.65381
0.033	-5.13611
0.0335	-3.92761
0.034	-5.84106
0.0345	-4.12903
0.035	-7.85522
0.0355	-12.28638
0.036	-4.12903
0.0365	-11.17859
0.037	-5.0354
0.0375	-4.02832
0.038	-7.75452
0.0385	-2.92053
0.039	-10.77576
0.0395	-5.94177
0.04	-6.44531
0.0405	1.3092
0.041	-2.01416
0.0415	2.41699
0.042	8.45947
0.0425	13.09204
0.043	13.99841
0.0435	12.28638
0.044	13.69629
0.0445	5.74036
0.045	7.35168
0.0455	13.99841
0.046	6.3446
0.0465	11.98425
0.047	1.40991
0.0475	-4.93469
0.048	-6.54602
0.0485	-11.68213
0.049	-5.0354
0.0495	-1.71204
0.05	0.80566
0.0505	4.93469
0.051	8.45947
0.0515	15.91187
0.052	17.42249
0.0525	26.68762
0.053	26.98975
0.0535	33.43506
0.054	34.03931
0.0545	35.14709
0.055	26.18408
0.0555	22.05505
0.056	14.50195
0.0565	13.09204
0.057	14.40125
0.0575	9.26514
0.058	-1.51062
0.0585	1.51062
0.059	-2.41699
0.0595	8.25806
0.06	7.15027
0.0605	7.04956
0.061	4.12903
0.0615	-2.21558
0.062	-3.8269
0.0625	-4.53186
0.063	1.91345
0.0635	2.31628
0.064	2.81982
0.0645	-3.02124
0.065	-2.92053
0.0655	2.41699
0.066	0.50354
0.0665	-3.12195
0.067	-5.53894
0.0675	-4.43115
0.068	-5.94177
0.0685	-12.5885
0.069	-5.13611
0.0695	0.40283
0.07	6.14319
0.0705	10.97717
0.071	1.71204
0.0715	9.76868
0.072	8.56018
0.0725	17.6239
0.073	16.01257
0.0735	25.78125
0.074	25.177
0.0745	24.47205
0.075	18.73169
0.0755	13.19275
0.076	3.7262
0.0765	-0.30212
0.077	-0.10071
0.0775	7.35168
0.078	21.3501
0.0785	33.73718
0.079	31.52161
0.0795	28.29895
0.08	27.89612
0.0805	25.177
0.081	16.3147
0.0815	9.97009
0.082	2.92053
0.0825	-1.51062
0.083	-6.14319
0.0835	-11.2793
0.084	-14.19983
0.0845	-8.05664
0.085	-5.53894
0.0855	-7.15027
0.086	-9.36584
0.0865	-10.77576
0.087	-14.30054
0.0875	-13.69629
0.088	-10.27222
0.0885	-12.18567
0.089	-6.94885
0.0895	-7.04956
0.09	0.80566
0.0905	2.01416
0.091	12.48779
0.0915	17.6239
0.092	17.92603
0.0925	10.87646
0.093	13.09204
0.0935	9.46655
0.094	7.65381
0.0945	4.53186
0.095	-0.80566
0.0955	-2.41699
0.096	-6.54602
0.0965	-9.46655
0.097	-6.64673
0.0975	-8.25806
0.098	0.80566
0.0985	-2.41699
0.099	2.61841
0.0995	4.63257
0.1	0.10071
0.1005	8.45947
0.101	4.02832
0.1015	5.33752
0.102	11.38
0.1025	11.48071
0.103	7.45239
0.1035	8.7616
0.104	9.97009
0.1045	12.28638
0.105	19.73877
0.1055	15.81116
0.106	20.84656
0.1065	17.52319
0.107	5.33752
0.1075	2.92053
0.108	-3.32336
0.1085	-0.10071
0.109	0.30212
0.1095	4.02832
0.11	9.66797
0.1105	6.84814
0.111	6.64673
0.1115	3.32336
0.112	7.45239
0.1125	7.65381
0.113	7.04956
0.1135	11.98425
0.114	3.12195
0.1145	16.41541
0.115	12.28638
0.1155	11.88354
0.116	8.8623
0.1165	11.07788
0.117	4.63257
0.1175	-1.10779
0.118	-0.60425
0.1185	-6.04248
0.119	-7.45239
0.1195	-8.45947
0.12	-4.93469
0.1205	7.95593
0.121	13.59558
0.1215	12.68921
0.122	10.47363
0.1225	15.00549
0.123	7.65381
0.1235	2.21558
0.124	2.01416
0.1245	0.30212
0.125	1.71204
0.1255	2.81982
0.126	11.07788
0.1265	9.66797
0.127	-11.38
0.1275	-22.05505
0.128	-32.32727
0.1285	-26.18408
0.129	-30.2124
0.1295	-25.68054
0.13	-19.43665
0.1305	2.41699
0.131	13.59558
0.1315	21.55151
0.132	35.14709
0.1325	43.30444
0.133	41.59241
0.1335	35.34851
0.134	39.88037
0.1345	32.52869
0.135	32.22656
0.1355	27.99683
0.136	12.18567
0.1365	13.797
0.137	16.21399
0.1375	14.09912
0.138	0.80566
0.1385	-11.58142
0.139	-13.99841
0.1395	-13.99841
0.14	-13.09204
0.1405	-32.32727
0.141	-42.29736
0.1415	-43.00232
0.142	-45.92285
0.1425	-43.00232
0.143	-34.24072
0.1435	-30.91736
0.144	-21.65222
0.1445	-11.68213
0.145	14.19983
0.1455	21.65222
0.146	24.16992
0.1465	25.37842
0.147	44.81506
0.1475	41.29028
0.148	50.85754
0.1485	48.54126
0.149	54.38232
0.1495	58.30994
0.15	45.92285
0.1505	45.2179
0.151	40.38391
0.1515	34.84497
0.152	27.09045
0.1525	19.94019
0.153	22.25647
0.1535	23.76709
0.154	20.94727
0.1545	13.29346
0.155	14.80408
0.1555	19.23523
0.156	8.96301
0.1565	9.06372
0.157	4.33044
0.1575	5.74036
0.158	0.90637
0.1585	-4.53186
0.159	-2.21558
0.1595	2.21558
0.16	4.73328
0.1605	-2.41699
0.161	7.95593
0.1615	8.05664
0.162	4.73328
0.1625	7.5531
0.163	6.04248
0.1635	4.12903
0.164	4.12903
0.1645	4.02832
0.165	2.61841
0.1655	9.46655
0.166	21.85364
0.1665	25.88196
0.167	23.56567
0.1675	17.32178
0.168	13.39417
0.1685	15.30762
0.169	10.87646
0.1695	7.45239
0.17	13.09204
0.1705	2.01416
0.171	6.04248
0.1715	9.36584
0.172	6.3446
0.1725	2.92053
0.173	6.54602
0.1735	9.76868
0.174	11.48071
0.1745	8.05664
0.175	-3.52478
0.1755	-13.89771
0.176	-19.03381
0.1765	-14.70337
0.177	-16.41541
0.1775	-5.13611
0.178	-10.0708
0.1785	-11.68213
0.179	-12.5885
0.1795	-6.64673
0.18	-2.92053
0.1805	0.80566
0.181	-3.52478
0.1815	-5.13611
0.182	-9.16443
0.1825	-8.96301
0.183	-8.45947
0.1835	-1.71204
0.184	-5.53894
0.1845	-3.42407
0.185	-7.15027
0.1855	-10.17151
0.186	-14.30054
0.1865	-17.12036
0.187	-17.22107
0.1875	-21.95435
0.188	-16.61682
0.1885	-15.81116
0.189	-10.57434
0.1895	-3.22266
0.19	-5.33752
0.1905	3.12195
0.191	11.38
0.1915	11.68213
0.192	14.40125
0.1925	20.74585
0.193	17.6239
0.1935	18.63098
0.194	19.33594
0.1945	17.52319
0.195	16.01257
0.1955	15.91187
0.196	24.57275
0.1965	26.88904
0.197	20.34302
0.1975	25.78125
0.198	17.01965
0.1985	19.73877
0.199	23.36426
0.1995	18.42957
0.2	12.78992
0.2005	12.78992
0.201	14.60266
0.2015	4.43115
0.202	2.21558
0.2025	4.12903
0.203	6.04248
0.2035	-0.40283
0.204	-2.92053
0.2045	-5.33752
0.205	2.71912
0.2055	3.7262
0.206	4.93469
0.2065	-0.80566
0.207	0.20142
0.2075	0.90637
0.208	10.87646
0.2085	3.32336
0.209	4.02832
0.2095	3.8269
0.21	3.42407
0.2105	4.63257
0.211	6.64673
0.2115	5.43823
0.212	9.16443
0.2125	5.74036
0.213	3.8269
0.2135	2.61841
0.214	5.43823
0.2145	8.05664
0.215	2.71912
0.2155	10.87646
0.216	7.15027
0.2165	6.64673
0.217	1.91345
0.2175	3.62549
0.218	4.33044
0.2185	4.83398
0.219	1.61133
0.2195	2.41699
0.22	1.81274
0.2205	-10.67505
0.221	-13.89771
0.2215	-7.15027
0.222	-12.48779
0.2225	-10.97717
0.223	-2.41699
0.2235	3.12195
0.224	2.81982
0.2245	9.76868
0.225	10.0708
0.2255	4.83398
0.226	4.83398
0.2265	5.84106
0.227	4.83398
0.2275	8.35876
0.228	17.32178
0.2285	15.71045
0.229	16.01257
0.2295	15.50903
0.23	17.52319
0.2305	20.34302
0.231	21.95435
0.2315	19.94019
0.232	24.06921
0.2325	27.79541
0.233	23.16284
0.2335	7.5531
0.234	-3.42407
0.2345	-6.04248
0.235	-7.75452
0.2355	-15.1062
0.236	-17.82532
0.2365	-9.16443
0.237	1.00708
0.2375	6.64673
0.238	12.5885
0.2385	19.63806
0.239	26.08337
0.2395	30.91736
0.24	30.81665
0.2405	26.98975
0.241	29.20532
0.2415	33.83789
0.242	30.01099
0.2425	21.3501
0.243	12.99133
0.2435	-4.53186
0.244	-13.19275
0.2445	-17.01965
0.245	-25.57983
0.2455	-21.65222
0.246	-27.49329
0.2465	-17.72461
0.247	-20.74585
0.2475	-18.93311
0.248	-20.84656
0.2485	-21.14868
0.249	-20.64514
0.2495	-23.66638
0.25	-17.22107
0.2505	-11.2793
0.251	-5.33752
0.2515	1.00708
0.252	9.97009
0.2525	13.797
0.253	11.17859
0.2535	18.73169
0.254	11.98425
0.2545	18.12744
0.255	11.68213
0.2555	11.38
0.256	17.22107
0.2565	18.53027
0.257	16.51611
0.2575	19.03381
0.258	19.53735
0.2585	17.01965
0.259	8.7616
0.2595	13.797
0.26	9.26514
0.2605	10.67505
0.261	10.17151
0.2615	9.97009
0.262	7.45239
0.2625	7.75452
0.263	2.21558
0.2635	-2.31628
0.264	-1.3092
0.2645	-4.93469
0.265	-2.81982
0.2655	-0.50354
0.266	4.43115
0.2665	9.56726
0.267	10.77576
0.2675	12.48779
0.268	17.72461
0.2685	9.86938
0.269	6.14319
0.2695	-2.5177
0.27	-0.60425
0.2705	2.5177
0.271	4.73328
0.2715	6.94885
0.272	5.94177
0.2725	13.59558
0.273	9.26514
0.2735	4.73328
0.274	0.50354
0.2745	2.21558
0.275	-7.04956
0.2755	-29.40674
0.276	-45.52002
0.2765	-48.13843
0.277	-40.38391
0.2775	-40.38391
0.278	-31.4209
0.2785	-24.77417
0.279	-9.66797
0.2795	7.45239
0.28	28.39966
0.2805	42.59949
0.281	49.54834
0.2815	55.3894
0.282	54.38232
0.2825	46.02356
0.283	55.2887
0.2835	50.95825
0.284	50.65613
0.2845	35.75134
0.285	29.10461
0.2855	14.70337
0.286	14.19983
0.2865	14.09912
0.287	10.47363
0.2875	10.57434
0.288	-3.02124
0.2885	-5.13611
0.289	-11.88354
0.2895	-23.56567
0.29	-23.36426
0.2905	-27.49329
0.291	-24.47205
0.2915	-22.86072
0.292	-14.40125
0.2925	-4.63257
0.293	0.50354
0.2935	11.07788
0.294	16.11328
0.2945	21.75293
0.295	34.94568
0.2955	33.23364
0.296	34.64355
0.2965	35.04639
0.297	28.60107
0.2975	29.20532
0.298	25.27771
0.2985	18.53027
0.299	12.08496
0.2995	13.39417
0.3	13.29346
0.3005	14.40125
0.301	10.97717
0.3015	9.46655
0.302	-2.01416
0.3025	-11.17859
0.303	-10.67505
0.3035	-1.40991
0.304	-10.0708
0.3045	-1.40991
0.305	-4.83398
0.3055	-19.13452
0.306	-35.14709
0.3065	-46.62781
0.307	-74.32251
0.3075	-90.23438
0.308	-84.2926
0.3085	-74.52393
0.309	-59.61914
0.3095	-43.70728
0.31	-21.14868
0.3105	13.19275
0.311	34.64355
0.3115	61.02905
0.312	75.93384
0.3125	84.89685
0.313	92.55066
0.3135	89.42871
0.314	85.5011
0.3145	74.42322
0.315	72.81189
0.3155	53.87878
0.316	50.2533
0.3165	45.82214
0.317	34.74426
0.3175	34.03931
0.318	19.94019
0.3185	11.58142
0.319	10.47363
0.3195	9.56726
0.32	5.63965
0.3205	-4.02832
0.321	4.02832
0.3215	-0.80566
0.322	-4.93469
0.3225	-10.0708
0.323	-11.2793
0.3235	-11.48071
0.324	-9.66797
0.3245	-1.61133
0.325	-6.44531
0.3255	0.60425
0.326	-1.10779
0.3265	3.92761
0.327	6.84814
0.3275	12.18567
0.328	19.83948
0.3285	22.6593
0.329	25.177
0.3295	8.35876
0.33	2.5177
0.3305	-2.01416
0.331	-3.92761
0.3315	3.12195
0.332	1.81274
0.3325	10.0708
0.333	8.15735
0.3335	18.42957
0.334	26.68762
0.3345	28.29895
0.335	27.59399
0.3355	18.73169
0.336	17.72461
0.3365	10.77576
0.337	2.71912
0.3375	-1.2085
0.338	-0.70496
0.3385	-1.91345
0.339	3.02124
0.3395	-0.20142
0.34	6.04248
0.3405	0.60425
0.341	-1.00708
0.3415	-2.11487
0.342	-3.52478
0.3425	-7.15027
0.343	0.50354
0.3435	-3.32336
0.344	-7.65381
0.3445	-2.5177
0.345	-4.43115
0.3455	-4.22974
0.346	-1.61133
0.3465	-2.21558
0.347	-2.5177
0.3475	-2.61841
0.348	-4.12903
0.3485	4.73328
0.349	2.5177
0.3495	1.91345
0.35	8.05664
0.3505	6.94885
0.351	6.3446
0.3515	7.5531
0.352	-10.27222
0.3525	-30.11169
0.353	-33.73718
0.3535	-33.43506
0.354	-22.6593
0.3545	-12.78992
0.355	-7.85522
0.3555	-7.65381
0.356	-0.60425
0.3565	8.96301
0.357	15.60974
0.3575	27.79541
0.358	22.55859
0.3585	22.96143
0.359	17.42249
0.3595	21.85364
0.36	14.19983
0.3605	12.99133
0.361	8.56018
0.3615	1.91345
0.362	-2.41699
0.3625	0.50354
0.363	2.11487
0.3635	-0.90637
0.364	5.13611
0.3645	7.65381
0.365	-1.3092
0.3655	-15.50903
0.366	-16.41541
0.3665	-26.58691
0.367	-33.23364
0.3675	-41.79382
0.368	-39.57825
0.3685	-33.33435
0.369	-27.59399
0.3695	-10.87646
0.37	5.74036
0.3705	20.84656
0.371	24.47205
0.3715	31.52161
0.372	15.00549
0.3725	9.46655
0.373	0.10071
0.3735	-13.89771
0.374	-29.40674
0.3745	-32.83081
0.375	-30.2124
0.3755	-19.83948
0.376	-6.84814
0.3765	-0.60425
0.377	15.30762
0.3775	26.88904
0.378	38.87329
0.3785	58.51135
0.379	64.151
0.3795	72.9126
0.38	79.2572
0.3805	81.27136
0.381	88.22021
0.3815	80.96924
0.382	83.18481
0.3825	77.948
0.383	69.68994
0.3835	56.69861
0.384	53.67737
0.3845	48.84338
0.385	35.04639
0.3855	19.23523
0.386	14.70337
0.3865	2.11487
0.387	-10.0708
0.3875	-15.81116
0.388	-12.5885
0.3885	-9.46655
0.389	-12.08496
0.3895	-11.17859
0.39	-14.09912
0.3905	-20.1416
0.391	-17.92603
0.3915	-19.33594
0.392	-21.65222
0.3925	-11.98425
0.393	-9.97009
0.3935	-5.0354
0.394	-2.31628
0.3945	-1.51062
0.395	-0.20142
0.3955	-3.12195
0.396	-2.31628
0.3965	0.10071
0.397	-2.21558
0.3975	-0.60425
0.398	2.92053
0.3985	-0.50354
0.399	-2.92053
0.3995	4.83398
0.4	-1.91345
0.4005	5.33752
0.401	2.01416
0.4015	3.92761
0.402	6.54602
0.4025	6.44531
0.403	6.44531
0.4035	5.23682
0.404	0.80566
0.4045	-3.52478
0.405	-4.93469
0.4055	-11.38
0.406	-9.36584
0.4065	-5.63965
0.407	-11.48071
0.4075	-4.33044
0.408	-0.30212
0.4085	-1.71204
0.409	5.63965
0.4095	6.54602
0.41	7.5531
0.4105	6.3446
0.411	8.45947
0.4115	5.74036
0.412	-1.10779
0.4125	-3.02124
0.413	-9.86938
0.4135	-12.28638
0.414	-12.78992
0.4145	-8.8623
0.415	-10.77576
0.4155	5.23682
0.416	21.75293
0.4165	24.67346
0.417	17.82532
0.4175	15.50903
0.418	10.47363
0.4185	16.01257
0.419	16.51611
0.4195	14.30054
0.42	20.04089
0.4205	21.3501
0.421	21.04797
0.4215	22.6593
0.422	25.47913
0.4225	29.70886
0.423	30.51453
0.4235	34.74426
0.424	34.84497
0.4245	34.14001
0.425	29.91028
0.4255	23.76709
0.426	26.08337
0.4265	17.12036
0.427	14.30054
0.4275	-0.80566
0.428	-10.67505
0.4285	-20.1416
0.429	-24.27063
0.4295	-19.63806
0.43	-15.60974
0.4305	-14.09912
0.431	-12.48779
0.4315	-9.26514
0.432	-13.19275
0.4325	-12.18567
0.433	-9.76868
0.4335	-13.39417
0.434	-16.71753
0.4345	-20.84656
0.435	-15.60974
0.4355	-17.22107
0.436	-11.17859
0.4365	-9.16443
0.437	-7.85522
0.4375	-3.42407
0.438	-1.10779
0.4385	4.93469
0.439	0.90637
0.4395	5.74036
0.44	4.73328
0.4405	7.45239
0.441	6.84814
0.4415	3.7262
0.442	12.78992
0.4425	12.18567
0.443	14.60266
0.4435	14.80408
0.444	14.60266
0.4445	15.60974
0.445	17.12036
0.4455	21.24939
0.446	24.97559
0.4465	24.77417
0.447	32.52869
0.4475	22.15576
0.448	27.99683
0.4485	23.76709
0.449	19.23523
0.4495	11.78284
0.45	5.63965
0.4505	-1.81274
0.451	-3.12195
0.4515	-5.84106
0.452	-4.63257
0.4525	1.10779
0.453	-1.40991
0.4535	-0.20142
0.454	2.11487
0.4545	0.90637
0.455	6.14319
0.4555	-5.13611
0.456	-4.12903
0.4565	-11.58142
0.457	-16.71753
0.4575	-12.68921
0.458	-12.48779
0.4585	-8.05664
0.459	-2.31628
0.4595	-2.81982
0.46	-2.71912
0.4605	-4.53186
0.461	-7.5531
0.4615	-7.85522
0.462	0.60425
0.4625	0.80566
0.463	-4.73328
0.4635	-6.2439
0.464	-1.71204
0.4645	0.60425
0.465	0.80566
0.4655	4.93469
0.466	9.16443
0.4665	15.00549
0.467	19.63806
0.4675	19.94019
0.468	14.60266
0.4685	9.36584
0.469	11.38
0.4695	10.47363
0.47	11.48071
0.4705	15.60974
0.471	11.98425
0.4715	12.68921
0.472	15.30762
0.4725	10.0708
0.473	5.74036
0.4735	7.35168
0.474	11.88354
0.4745	7.85522
0.475	9.56726
0.4755	9.86938
0.476	17.32178
0.4765	11.88354
0.477	10.87646
0.4775	11.78284
0.478	12.08496
0.4785	13.89771
0.479	12.08496
0.4795	10.57434
0.48	7.5531
0.4805	2.61841
0.481	7.65381
0.4815	9.26514
0.482	7.75452
0.4825	10.17151
0.483	9.56726
0.4835	10.77576
0.484	13.797
0.4845	12.99133
0.485	16.3147
0.4855	16.3147
0.486	15.30762
0.4865	11.2793
0.487	13.797
0.4875	12.48779
0.488	13.29346
0.4885	16.01257
0.489	17.42249
0.4895	5.63965
0.49	2.81982
0.4905	2.41699
0.491	1.71204
0.4915	-0.40283
0.492	-1.61133
0.4925	-1.71204
0.493	-3.92761
0.4935	-2.61841
0.494	-11.38
0.4945	-18.63098
0.495	-20.44373
0.4955	-25.78125
0.496	-22.6593
0.4965	-17.92603
0.497	-9.26514
0.4975	-6.2439
0.498	-3.62549
0.4985	-3.52478
0.499	-1.40991
0.4995	6.84814
0.5	5.13611
0.5005	-0.90637
0.501	3.8269
0.5015	-1.51062
0.502	4.93469
0.5025	-2.92053
0.503	-2.71912
0.5035	-4.33044
0.504	2.31628
0.5045	-1.10779
0.505	4.53186
0.5055	0.80566
0.506	4.43115
0.5065	-0.10071
0.507	0.90637
0.5075	2.81982
0.508	8.05664
0.5085	4.73328
0.509	12.48779
0.5095	5.0354
0.51	10.27222
0.5105	4.93469
0.511	11.58142
0.5115	11.2793
0.512	8.45947
0.5125	12.38708
0.513	7.04956
0.5135	4.63257
0.514	4.43115
0.5145	6.64673
0.515	3.52478
0.5155	7.75452
0.516	8.25806
0.5165	2.31628
0.517	10.0708
0.5175	11.58142
0.518	13.39417
0.5185	11.68213
0.519	11.17859
0.5195	14.09912
0.52	7.75452
0.5205	15.60974
0.521	10.97717
0.5215	14.40125
0.522	11.78284
0.5225	8.96301
0.523	13.09204
0.5235	11.2793
0.524	8.35876
0.5245	6.54602
0.525	10.87646
0.5255	6.3446
0.526	4.83398
0.5265	9.16443
0.527	4.83398
0.5275	9.06372
0.528	-0.80566
0.5285	-0.40283
0.529	5.74036
0.5295	6.04248
0.53	9.97009
0.5305	7.5531
0.531	11.38
0.5315	11.88354
0.532	15.50903
0.5325	17.12036
0.533	11.38
0.5335	13.39417
0.534	9.97009
0.5345	12.78992
0.535	9.66797
0.5355	7.45239
0.536	10.47363
0.5365	12.18567
0.537	16.81824
0.5375	11.07788
0.538	12.5885
0.5385	8.45947
0.539	12.08496
0.5395	12.78992
0.54	11.17859
0.5405	9.86938
0.541	10.37292
0.5415	12.48779
0.542	5.53894
0.5425	4.83398
0.543	2.81982
0.5435	6.3446
0.544	4.63257
0.5445	2.11487
0.545	-1.00708
0.5455	-0.50354
0.546	-3.12195
0.5465	-1.2085
0.547	-8.7616
0.5475	-7.65381
0.548	-13.29346
0.5485	-15.20691
0.549	-15.1062
0.5495	-6.44531
0.55	-7.45239
0.5505	-8.05664
0.551	-6.04248
0.5515	-5.84106
0.552	-3.52478
0.5525	-3.92761
0.553	7.75452
0.5535	4.22974
0.554	0.40283
0.5545	2.11487
0.555	-1.61133
0.5555	4.02832
0.556	5.13611
0.5565	6.84814
0.557	5.0354
0.5575	4.33044
0.558	5.33752
0.5585	3.02124
0.559	6.3446
0.5595	7.65381
0.56	12.18567
0.5605	12.78992
0.561	11.07788
0.5615	13.19275
0.562	12.28638
0.5625	11.48071
0.563	11.58142
0.5635	12.08496
0.564	12.18567
0.5645	9.26514
0.565	12.78992
0.5655	11.88354
0.566	15.91187
0.5665	14.40125
0.567	8.45947
0.5675	7.45239
0.568	8.56018
0.5685	5.94177
0.569	1.91345
0.5695	10.57434
0.57	9.97009
0.5705	6.64673
0.571	8.05664
0.5715	8.05664
0.572	10.57434
0.5725	10.17151
0.573	10.97717
0.5735	10.47363
0.574	12.08496
0.5745	9.56726
0.575	10.47363
0.5755	11.98425
0.576	8.25806
0.5765	16.61682
0.577	14.90479
0.5775	14.80408
0.578	18.53027
0.5785	15.30762
0.579	9.16443
0.5795	12.99133
0.58	14.60266
0.5805	15.30762
0.581	16.01257
0.5815	15.50903
0.582	12.5885
0.5825	13.39417
0.583	13.09204
0.5835	10.17151
0.584	5.0354
0.5845	6.3446
0.585	3.32336
0.5855	2.31628
0.586	4.12903
0.5865	4.53186
0.587	-3.8269
0.5875	-6.2439
0.588	-6.14319
0.5885	-4.33044
0.589	-7.15027
0.5895	-3.92761
0.59	-3.32336
0.5905	-5.13611
0.591	2.11487
0.5915	3.8269
0.592	-0.20142
0.5925	0.90637
0.593	-1.3092
0.5935	0.30212
0.594	-4.12903
0.5945	-1.81274
0.595	3.7262
0.5955	5.74036
0.596	4.93469
0.5965	9.36584
0.597	11.98425
0.5975	5.43823
0.598	6.84814
0.5985	5.43823
0.599	14.40125
0.5995	10.17151
0.6	10.27222
0.6005	14.09912
0.601	17.42249
0.6015	19.43665
0.602	20.24231
0.6025	24.77417
0.603	20.24231
0.6035	16.01257
0.604	17.82532
0.6045	6.84814
0.605	13.09204
0.6055	15.20691
0.606	5.33752
0.6065	5.43823
0.607	1.81274
0.6075	-2.92053
0.608	-3.32336
0.6085	-2.21558
0.609	-4.73328
0.6095	-5.94177
0.61	-10.57434
0.6105	-11.78284
0.611	-13.59558
0.6115	-11.88354
0.612	-12.38708
0.6125	-9.76868
0.613	-7.04956
0.6135	-10.0708
0.614	-2.11487
0.6145	-0.10071
0.615	3.22266
0.6155	-3.32336
0.616	-1.3092
0.6165	-2.5177
0.617	3.32336
0.6175	4.02832
0.618	3.92761
0.6185	7.35168
0.619	9.16443
0.6195	13.59558
0.62	11.68213
0.6205	11.07788
0.621	16.41541
0.6215	11.2793
0.622	7.15027
0.6225	14.09912
0.623	12.18567
0.6235	9.26514
0.624	13.09204
0.6245	5.84106
0.625	3.32336
0.6255	12.08496
0.626	11.17859
0.6265	14.30054
0.627	11.48071
0.6275	11.98425
0.628	8.7616
0.6285	2.81982
0.629	-3.12195
0.6295	-7.85522
0.63	-15.60974
0.6305	-9.36584
0.631	-9.36584
0.6315	-5.74036
0.632	-3.32336
0.6325	1.40991
0.633	7.45239
0.6335	12.38708
0.634	10.27222
0.6345	11.17859
0.635	16.21399
0.6355	12.68921
0.636	13.797
0.6365	6.94885
0.637	5.63965
0.6375	2.21558
0.638	6.54602
0.6385	8.35876
0.639	6.44531
0.6395	9.06372
0.64	7.45239
0.6405	1.3092
0.641	-2.11487
0.6415	4.02832
0.642	2.92053
0.6425	0.40283
0.643	5.0354
0.6435	-4.43115
0.644	1.91345
0.6445	2.21558
0.645	-3.7262
0.6455	-4.33044
0.646	-13.29346
0.6465	-6.44531
0.647	-9.36584
0.6475	-4.73328
0.648	-11.68213
0.6485	-14.30054
0.649	-9.86938
0.6495	-10.77576
0.65	-7.65381
0.6505	-8.15735
0.651	-7.25098
0.6515	-2.61841
0.652	2.5177
0.6525	11.68213
0.653	-1.81274
0.6535	3.8269
0.654	7.75452
0.6545	10.47363
0.655	8.15735
0.6555	8.96301
0.656	8.45947
0.6565	11.48071
0.657	7.35168
0.6575	7.45239
0.658	11.38
0.6585	12.08496
0.659	16.11328
0.6595	15.71045
0.66	14.60266
0.6605	14.30054
0.661	18.63098
0.6615	16.01257
0.662	12.48779
0.6625	11.17859
0.663	4.73328
0.6635	4.53186
0.664	5.23682
0.6645	11.78284
0.665	14.30054
0.6655	10.37292
0.666	14.70337
0.6665	12.08496
0.667	20.1416
0.6675	7.65381
0.668	7.95593
0.6685	9.06372
0.669	8.96301
0.6695	14.80408
0.67	7.5531
0.6705	7.35168
0.671	4.02832
0.6715	-2.31628
0.672	1.61133
0.6725	1.61133
0.673	-0.70496
0.6735	-8.35876
0.674	-8.56018
0.6745	-11.68213
0.675	-5.53894
0.6755	-9.66797
0.676	-6.84814
0.6765	1.10779
0.677	1.71204
0.6775	-3.7262
0.678	1.10779
0.6785	0.30212
0.679	3.32336
0.6795	1.81274
0.68	-0.40283
0.6805	-6.3446
0.681	-8.8623
0.6815	-6.74744
0.682	-3.32336
0.6825	0.50354
0.683	3.62549
0.6835	1.91345
0.684	2.61841
0.6845	4.33044
0.685	5.43823
0.6855	7.04956
0.686	-0.60425
0.6865	9.06372
0.687	10.57434
0.6875	12.68921
0.688	14.90479
0.6885	16.81824
0.689	22.15576
0.6895	22.86072
0.69	25.47913
0.6905	22.55859
0.691	26.58691
0.6915	28.09753
0.692	30.71594
0.6925	32.42798
0.693	23.96851
0.6935	9.06372
0.694	4.33044
0.6945	-1.40991
0.695	1.40991
0.6955	-1.2085
0.696	-4.93469
0.6965	-1.00708
0.697	0.50354
0.6975	1.81274
0.698	1.40991
0.6985	4.93469
0.699	4.02832
0.6995	7.85522
0.7	4.83398
0.7005	8.7616
0.701	4.12903
0.7015	7.75452
0.702	5.43823
0.7025	-0.50354
0.703	4.33044
0.7035	-7.25098
0.704	-11.58142
0.7045	-13.89771
0.705	-13.59558
0.7055	-17.6239
0.706	-25.07629
0.7065	-19.63806
0.707	-13.09204
0.7075	-15.71045
0.708	-15.1062
0.7085	-19.03381
0.709	-18.12744
0.7095	-15.91187
0.71	-6.44531
0.7105	2.01416
0.711	7.45239
0.7115	7.25098
0.712	12.18567
0.7125	6.94885
0.713	3.92761
0.7135	2.61841
0.714	-3.62549
0.7145	3.02124
0.715	-5.84106
0.7155	2.61841
0.716	0.40283
0.7165	3.42407
0.717	9.16443
0.7175	15.71045
0.718	19.33594
0.7185	15.1062
0.719	18.93311
0.7195	15.40833
0.72	9.06372
0.7205	-0.70496
0.721	0.60425
0.7215	1.81274
0.722	8.96301
0.7225	3.42407
0.723	2.61841
0.7235	10.37292
0.724	13.09204
0.7245	15.50903
0.725	19.73877
0.7255	25.57983
0.726	23.46497
0.7265	14.90479
0.727	19.43665
0.7275	9.16443
0.728	11.88354
0.7285	15.81116
0.729	21.3501
0.7295	20.74585
0.73	18.32886
0.7305	21.45081
0.731	21.24939
0.7315	21.04797
0.732	26.88904
0.7325	29.40674
0.733	36.75842
0.7335	36.05347
0.734	42.7002
0.7345	42.90161
0.735	40.48462
0.7355	31.92444
0.736	35.95276
0.7365	28.60107
0.737	23.8678
0.7375	10.57434
0.738	3.92761
0.7385	5.53894
0.739	3.7262
0.7395	-3.12195
0.74	-8.7616
0.7405	-4.43115
0.741	3.92761
0.7415	6.94885
0.742	7.65381
0.7425	13.39417
0.743	4.43115
0.7435	5.94177
0.744	-2.81982
0.7445	-3.52478
0.745	-4.12903
0.7455	-7.35168
0.746	-6.04248
0.7465	-10.77576
0.747	-8.15735
0.7475	-5.0354
0.748	-6.54602
0.7485	-3.52478
0.749	6.44531
0.7495	4.83398
0.75	3.52478
0.7505	1.91345
0.751	-0.50354
0.7515	-15.91187
0.752	-31.72302
0.7525	-50.2533
0.753	-66.36658
0.7535	-65.76233
0.754	-57.70569
0.7545	-51.96533
0.755	-35.04639
0.7555	-24.47205
0.756	-4.63257
0.7565	12.68921
0.757	30.2124
0.7575	45.52002
0.758	55.79224
0.7585	64.151
0.759	68.48145
0.7595	62.64038
0.76	58.00781
0.7605	61.53259
0.761	46.12427
0.7615	32.22656
0.762	29.20532
0.7625	16.91895
0.763	14.90479
0.7635	4.43115
0.764	-2.11487
0.7645	1.51062
0.765	6.14319
0.7655	8.15735
0.766	11.78284
0.7665	21.75293
0.767	14.30054
0.7675	8.96301
0.768	10.67505
0.7685	-1.2085
0.769	-9.36584
0.7695	-14.30054
0.77	-15.71045
0.7705	-9.46655
0.771	-10.77576
0.7715	-7.95593
0.772	-8.05664
0.7725	-2.71912
0.773	-10.27222
0.7735	-7.45239
0.774	-2.81982
0.7745	0.50354
0.775	5.43823
0.7755	11.07788
0.776	11.98425
0.7765	12.68921
0.777	16.3147
0.7775	14.09912
0.778	16.51611
0.7785	22.55859
0.779	24.16992
0.7795	26.98975
0.78	23.8678
0.7805	26.08337
0.781	26.58691
0.7815	24.47205
0.782	29.70886
0.7825	19.13452
0.783	14.30054
0.7835	6.74744
0.784	-5.53894
0.7845	7.25098
0.785	3.62549
0.7855	4.12903
0.786	2.11487
0.7865	-1.10779
0.787	-6.44531
0.7875	-6.3446
0.788	-7.04956
0.7885	-14.50195
0.789	-11.2793
0.7895	-13.49487
0.79	-18.73169
0.7905	-21.14868
0.791	-27.09045
0.7915	-36.85913
0.792	-43.10303
0.7925	-42.09595
0.793	-37.16125
0.7935	-32.32727
0.794	-26.98975
0.7945	-22.05505
0.795	-15.20691
0.7955	-13.797
0.796	-6.54602
0.7965	-1.71204
0.797	-7.15027
0.7975	-9.46655
0.798	-8.15735
0.7985	-4.22974
0.799	-2.92053
0.7995	-0.90637
0.8	4.63257
0.8005	2.92053
0.801	8.66089
0.8015	11.58142
0.802	10.97717
0.8025	12.68921
0.803	16.21399
0.8035	16.3147
0.804	6.84814
0.8045	10.67505
0.805	13.09204
0.8055	7.15027
0.806	3.32336
0.8065	1.40991
0.807	3.42407
0.8075	-1.81274
0.808	-9.16443
0.8085	-12.99133
0.809	-9.36584
0.8095	-4.43115
0.81	-4.43115
0.8105	-0.90637
0.811	4.53186
0.8115	12.08496
0.812	22.45789
0.8125	28.09753
0.813	17.92603
0.8135	13.69629
0.814	18.8324
0.8145	17.12036
0.815	20.44373
0.8155	21.24939
0.816	17.92603
0.8165	17.12036
0.817	12.99133
0.8175	12.28638
0.818	4.12903
0.8185	7.75452
0.819	7.65381
0.8195	4.22974
0.82	0.10071
0.8205	-3.62549
0.821	3.62549
0.8215	6.74744
0.822	16.11328
0.8225	10.57434
0.823	16.21399
0.8235	12.99133
0.824	12.99133
0.8245	14.09912
0.825	8.15735
0.8255	8.7616
0.826	12.5885
0.8265	10.67505
0.827	5.74036
0.8275	3.02124
0.828	4.22974
0.8285	6.2439
0.829	5.74036
0.8295	6.84814
0.83	10.27222
0.8305	9.26514
0.831	12.89062
0.8315	8.7616
0.832	10.17151
0.8325	6.54602
0.833	0
0.8335	1.81274
0.834	9.56726
0.8345	-3.42407
0.835	-30.2124
0.8355	-44.81506
0.836	-43.90869
0.8365	-44.71436
0.837	-42.19666
0.8375	-34.94568
0.838	-26.18408
0.8385	-14.40125
0.839	5.33752
0.8395	18.02673
0.84	35.54993
0.8405	43.70728
0.841	56.69861
0.8415	60.62622
0.842	56.39648
0.8425	51.86462
0.843	45.11719
0.8435	40.88745
0.844	31.52161
0.8445	20.84656
0.845	18.22815
0.8455	17.32178
0.846	20.94727
0.8465	17.22107
0.847	11.48071
0.8475	6.94885
0.848	14.40125
0.8485	20.1416
0.849	20.04089
0.8495	17.92603
0.85	15.81116
0.8505	15.00549
0.851	12.18567
0.8515	5.84106
0.852	-2.41699
0.8525	-0.90637
0.853	-7.95593
0.8535	-5.94177
0.854	-7.35168
0.8545	-10.37292
0.855	-6.64673
0.8555	-7.5531
0.856	-4.02832
0.8565	-1.91345
0.857	0.70496
0.8575	-4.02832
0.858	-0.40283
0.8585	-1.71204
0.859	-5.74036
0.8595	-9.56726
0.86	-30.91736
0.8605	-58.30994
0.861	-62.33826
0.8615	-56.39648
0.862	-49.85046
0.8625	-39.88037
0.863	-31.4209
0.8635	-17.32178
0.864	-7.75452
0.8645	13.49487
0.865	27.59399
0.8655	38.57117
0.866	45.41931
0.8665	45.92285
0.867	51.66321
0.8675	52.06604
0.868	54.58374
0.8685	51.76392
0.869	45.3186
0.8695	20.24231
0.87	10.67505
0.8705	13.99841
0.871	4.02832
0.8715	4.33044
0.872	0.60425
0.8725	-6.94885
0.873	1.51062
0.8735	7.85522
0.874	16.21399
0.8745	33.83789
0.875	33.03223
0.8755	39.07471
0.876	42.19666
0.8765	46.62781
0.877	41.08887
0.8775	43.30444
0.878	42.49878
0.8785	31.62231
0.879	23.66638
0.8795	10.97717
0.88	7.5531
0.8805	-9.66797
0.881	-16.71753
0.8815	-18.02673
0.882	-16.41541
0.8825	-12.5885
0.883	-9.97009
0.8835	4.53186
0.884	6.74744
0.8845	6.94885
0.885	6.54602
0.8855	-0.80566
0.886	-7.04956
0.8865	-2.31628
0.887	-3.62549
0.8875	0.10071
0.888	4.63257
0.8885	5.63965
0.889	-0.50354
0.8895	4.12903
0.89	1.00708
0.8905	-4.33044
0.891	-5.63965
0.8915	2.5177
0.892	0.30212
0.8925	5.53894
0.893	11.2793
0.8935	13.39417
0.894	11.98425
0.8945	4.93469
0.895	6.04248
0.8955	6.84814
0.896	12.48779
0.8965	12.38708
0.897	14.80408
0.8975	17.22107
0.898	21.55151
0.8985	19.63806
0.899	24.27063
0.8995	23.56567
0.9	18.12744
0.9005	18.63098
0.901	13.29346
0.9015	11.48071
0.902	9.36584
0.9025	5.43823
0.903	3.8269
0.9035	2.61841
0.904	-2.81982
0.9045	-6.74744
0.905	-2.31628
0.9055	2.41699
0.906	6.64673
0.9065	-1.40991
0.907	-1.10779
0.9075	-3.32336
0.908	4.12903
0.9085	-0.90637
0.909	-6.04248
0.9095	-7.85522
0.91	-13.49487
0.9105	-22.25647
0.911	-25.68054
0.9115	-24.16992
0.912	-17.92603
0.9125	-18.93311
0.913	-8.45947
0.9135	-8.05664
0.914	8.96301
0.9145	10.87646
0.915	13.29346
0.9155	18.32886
0.916	19.53735
0.9165	17.92603
0.917	17.12036
0.9175	15.50903
0.918	10.87646
0.9185	11.58142
0.919	15.91187
0.9195	9.26514
0.92	10.87646
0.9205	7.35168
0.921	0.80566
0.9215	-0.80566
0.922	-5.94177
0.9225	-7.5531
0.923	-10.97717
0.9235	-4.73328
0.924	-8.8623
0.9245	-8.25806
0.925	-3.42407
0.9255	-2.11487
0.926	-0.50354
0.9265	0.90637
0.927	7.95593
0.9275	12.89062
0.928	22.25647
0.9285	36.85913
0.929	33.23364
0.9295	38.974
0.93	39.98108
0.9305	35.75134
0.931	28.60107
0.9315	25.37842
0.932	26.08337
0.9325	23.26355
0.933	21.85364
0.9335	14.19983
0.934	10.57434
0.9345	0.90637
0.935	-6.04248
0.9355	-12.99133
0.936	-17.01965
0.9365	-26.88904
0.937	-30.81665
0.9375	-31.52161
0.938	-35.75134
0.9385	-33.83789
0.939	-32.83081
0.9395	-25.68054
0.94	-12.68921
0.9405	-5.84106
0.941	-3.32336
0.9415	10.67505
0.942	17.72461
0.9425	27.39258
0.943	34.34143
0.9435	32.93152
0.944	34.94568
0.9445	33.83789
0.945	22.25647
0.9455	5.74036
0.946	-5.63965
0.9465	-13.29346
0.947	-23.76709
0.9475	-30.41382
0.948	-33.9386
0.9485	-24.37134
0.949	-13.89771
0.9495	-16.61682
0.95	-8.15735
0.9505	-8.7616
0.951	-9.56726
0.9515	9.26514
0.952	17.72461
0.9525	29.40674
0.953	26.3855
0.9535	33.63647
0.954	28.50037
0.9545	23.06213
0.955	24.16992
0.9555	20.54443
0.956	11.68213
0.9565	5.53894
0.957	7.15027
0.9575	7.95593
0.958	6.84814
0.9585	0.80566
0.959	-6.84814
0.9595	-6.64673
0.96	-16.21399
0.9605	-16.71753
0.961	-18.02673
0.9615	-13.39417
0.962	-3.52478
0.9625	-0.50354
0.963	3.22266
0.9635	-2.71912
0.964	-2.5177
0.9645	-1.3092
0.965	3.7262
0.9655	5.23682
0.966	6.2439
0.9665	6.04248
0.967	5.94177
0.9675	9.16443
0.968	8.25806
0.9685	13.19275
0.969	16.61682
0.9695	19.23523
0.97	18.73169
0.9705	18.8324
0.971	21.3501
0.9715	18.8324
0.972	29.60815
0.9725	21.04797
0.973	19.43665
0.9735	13.797
0.974	-2.71912
0.9745	-4.43115
0.975	-10.77576
0.9755	-6.14319
0.976	-10.87646
0.9765	-3.62549
0.977	-9.16443
0.9775	-7.75452
0.978	-2.01416
0.9785	-0.70496
0.979	18.12744
0.9795	13.39417
0.98	14.60266
0.9805	13.19275
0.981	13.29346
0.9815	16.01257
0.982	11.58142
0.9825	17.01965
0.983	12.68921
0.9835	11.07788
0.984	13.797
0.9845	8.35876
0.985	7.45239
0.9855	9.86938
0.986	2.92053
0.9865	5.33752
0.987	9.86938
0.9875	6.74744
0.988	7.04956
0.9885	8.56018
0.989	9.16443
0.9895	10.97717
0.99	1.71204
0.9905	2.11487
0.991	0.50354
0.9915	1.51062
0.992	5.53894
0.9925	3.22266
0.993	1.3092
0.9935	5.43823
0.994	7.15027
0.9945	6.44531
0.995	9.86938
0.9955	11.17859
0.996	15.00549
0.9965	22.76001
0.997	20.84656
0.9975	29.40674
0.998	29.20532
0.9985	38.06763
0.999	44.71436
0.9995	48.13843
1	46.72852
1.0005	48.64197
1.001	53.17383
1.0015	50.55542
1.002	53.57666
1.0025	45.92285
1.003	38.06763
1.0035	32.32727
1.004	25.47913
1.0045	13.39417
1.005	-5.23682
1.0055	-21.75293
1.006	-36.25488
1.0065	-53.57666
1.007	-61.43188
1.0075	-70.49561
1.008	-69.28711
1.0085	-71.20056
1.009	-61.83472
1.0095	-48.54126
1.01	-37.86621
1.0105	-23.66638
1.011	-18.8324
1.0115	-3.52478
1.012	1.91345
1.0125	3.92761
1.013	-3.02124
1.0135	1.2085
1.014	2.61841
1.0145	4.93469
1.015	7.65381
1.0155	8.56018
1.016	9.06372
1.0165	8.25806
1.017	16.51611
1.0175	20.34302
1.018	17.72461
1.0185	18.32886
1.019	18.42957
1.0195	23.56567
1.02	22.55859
1.0205	25.07629
1.021	25.07629
1.0215	18.53027
1.022	25.27771
1.0225	23.46497
1.023	25.88196
1.0235	25.37842
1.024	24.06921
1.0245	21.04797
1.025	11.48071
1.0255	10.37292
1.026	2.11487
1.0265	3.12195
1.027	-3.32336
1.0275	-4.73328
1.028	-16.3147
1.0285	-34.74426
1.029	-39.67896
1.0295	-41.08887
1.03	-40.08179
1.0305	-39.47754
1.031	-35.54993
1.0315	-21.45081
1.032	-21.14868
1.0325	-8.96301
1.033	-3.8269
1.0335	9.86938
1.034	13.19275
1.0345	16.81824
1.035	17.12036
1.0355	9.16443
1.036	13.49487
1.0365	17.92603
1.037	24.67346
1.0375	23.36426
1.038	16.01257
1.0385	0.20142
1.039	-0.80566
1.0395	2.21558
1.04	9.16443
1.0405	11.2793
1.041	5.43823
1.0415	0.70496
1.042	3.42407
1.0425	3.42407
1.043	8.05664
1.0435	7.5531
1.044	16.61682
1.0445	16.61682
1.045	18.8324
1.0455	17.12036
1.046	26.18408
1.0465	31.92444
1.047	29.00391
1.0475	15.71045
1.048	-6.64673
1.0485	-18.8324
1.049	-22.25647
1.0495	-27.19116
1.05	-30.2124
1.0505	-40.98816
1.051	-52.26746
1.0515	-54.48303
1.052	-45.72144
1.0525	-27.39258
1.053	-20.1416
1.0535	-5.63965
1.054	2.5177
1.0545	15.81116
1.055	24.06921
1.0555	23.06213
1.056	27.09045
1.0565	25.98267
1.057	26.48621
1.0575	23.46497
1.058	22.86072
1.0585	25.78125
1.059	19.63806
1.0595	18.53027
1.06	13.49487
1.0605	24.87488
1.061	25.37842
1.0615	39.37683
1.062	32.62939
1.0625	29.60815
1.063	21.04797
1.0635	23.36426
1.064	25.27771
1.0645	24.27063
1.065	28.70178
1.0655	24.06921
1.066	15.30762
1.0665	21.85364
1.067	18.12744
1.0675	19.73877
1.068	17.6239
1.0685	23.06213
1.069	18.53027
1.0695	12.68921
1.07	12.5885
1.0705	13.797
1.071	12.18567
1.0715	17.42249
1.072	19.43665
1.0725	15.81116
1.073	0
1.0735	-2.5177
1.074	1.2085
1.0745	-0.30212
1.075	5.13611
1.0755	10.67505
1.076	5.13611
1.0765	7.45239
1.077	10.87646
1.0775	4.73328
1.078	8.8623
1.0785	7.5531
1.079	5.84106
1.0795	3.92761
1.08	2.92053
1.0805	6.54602
1.081	2.61841
1.0815	4.22974
1.082	7.15027
1.0825	8.35876
1.083	-1.81274
1.0835	-4.43115
1.084	-6.3446
1.0845	-7.65381
1.085	-11.48071
1.0855	-18.73169
1.086	-33.13293
1.0865	-36.55701
1.087	-37.56409
1.0875	-34.74426
1.088	-30.11169
1.0885	-20.54443
1.089	-19.43665
1.0895	-11.88354
1.09	6.54602
1.0905	16.21399
1.091	26.68762
1.0915	36.65771
1.092	39.27612
1.0925	41.18958
1.093	44.41223
1.0935	39.17542
1.094	29.70886
1.0945	25.177
1.095	9.66797
1.0955	-6.54602
1.096	-10.57434
1.0965	-10.57434
1.097	-10.47363
1.0975	-8.15735
1.098	-17.52319
1.0985	-17.6239
1.099	-9.06372
1.0995	-5.23682
1.1	-1.3092
1.1005	6.84814
1.101	6.84814
1.1015	11.98425
1.102	8.8623
1.1025	7.5531
1.103	3.8269
1.1035	10.0708
1.104	13.19275
1.1045	8.7616
1.105	6.64673
1.1055	12.99133
1.106	17.22107
1.1065	16.91895
1.107	12.99133
1.1075	21.45081
1.108	10.47363
1.1085	0.30212
1.109	-1.10779
1.1095	-0.40283
1.11	0.50354
1.1105	-0.90637
1.111	8.66089
1.1115	7.75452
1.112	0.60425
1.1125	-19.73877
1.113	-44.71436
1.1135	-48.33984
1.114	-44.0094
1.1145	-35.34851
1.115	-31.82373
1.1155	-12.89062
1.116	-3.02124
1.1165	12.68921
1.117	24.06921
1.1175	35.65063
1.118	44.61365
1.1185	55.79224
1.119	62.74109
1.1195	64.85596
1.12	64.05029
1.1205	49.24622
1.121	44.51294
1.1215	43.70728
1.122	40.2832
1.1225	33.73718
1.123	20.04089
1.1235	5.74036
1.124	0.80566
1.1245	7.75452
1.125	22.15576
1.1255	14.19983
1.126	12.78992
1.1265	9.66797
1.127	12.68921
1.1275	15.30762
1.128	9.16443
1.1285	11.17859
1.129	4.53186
1.1295	2.11487
1.13	1.81274
1.1305	1.81274
1.131	2.5177
1.1315	-3.52478
1.132	3.52478
1.1325	5.43823
1.133	1.2085
1.1335	-0.70496
1.134	4.22974
1.1345	-4.22974
1.135	-7.15027
1.1355	-8.66089
1.136	-15.71045
1.1365	-19.23523
1.137	-17.92603
1.1375	-17.12036
1.138	-23.96851
1.1385	-21.24939
1.139	-11.78284
1.1395	-9.66797
1.14	-4.73328
1.1405	5.0354
1.141	2.21558
1.1415	7.04956
1.142	-2.31628
1.1425	-4.93469
1.143	-3.12195
1.1435	-3.52478
1.144	-5.74036
1.1445	-1.61133
1.145	2.92053
1.1455	9.36584
1.146	14.80408
1.1465	6.2439
1.147	12.38708
1.1475	12.99133
1.148	18.22815
1.1485	14.19983
1.149	7.25098
1.1495	6.04248
1.15	2.01416
1.1505	-2.21558
1.151	-2.5177
1.1515	-10.97717
1.152	-18.42957
1.1525	-27.6947
1.153	-22.05505
1.1535	-20.64514
1.154	-24.77417
1.1545	-22.96143
1.155	-17.72461
1.1555	-10.97717
1.156	-1.51062
1.1565	7.35168
1.157	11.98425
1.1575	16.51611
1.158	14.70337
1.1585	14.09912
1.159	19.33594
1.1595	22.45789
1.16	28.39966
1.1605	30.2124
1.161	30.2124
1.1615	33.13293
1.162	31.72302
1.1625	34.84497
1.163	35.85205
1.1635	35.85205
1.164	29.91028
1.1645	21.24939
1.165	29.50745
1.1655	20.04089
1.166	19.33594
1.1665	13.69629
1.167	7.85522
1.1675	2.01416
1.168	4.22974
1.1685	6.54602
1.169	9.86938
1.1695	22.76001
1.17	14.80408
1.1705	10.97717
1.171	4.53186
1.1715	-3.22266
1.172	-0.20142
1.1725	-2.21558
1.173	-6.2439
1.1735	-7.75452
1.174	-9.76868
1.1745	-14.80408
1.175	-33.63647
1.1755	-63.54675
1.176	-70.79773
1.1765	-71.09985
1.177	-71.90552
1.1775	-61.02905
1.178	-63.44604
1.1785	-62.43896
1.179	-48.64197
1.1795	-28.50037
1.18	-8.8623
1.1805	2.71912
1.181	10.57434
1.1815	11.88354
1.182	20.54443
1.1825	29.50745
1.183	33.33435
1.1835	22.45789
1.184	22.96143
1.1845	13.49487
1.185	18.12744
1.1855	20.64514
1.186	23.76709
1.1865	29.40674
1.187	28.9032
1.1875	28.09753
1.188	28.19824
1.1885	27.6947
1.189	31.82373
1.1895	31.11877
1.19	33.33435
1.1905	40.38391
1.191	41.08887
1.1915	23.8678
1.192	21.75293
1.1925	19.83948
1.193	28.9032
1.1935	31.92444
1.194	36.15417
1.1945	30.91736
1.195	22.05505
1.1955	24.37134
1.196	16.81824
1.1965	5.23682
1.197	-5.84106
1.1975	-3.12195
1.198	-7.15027
1.1985	-10.57434
1.199	-8.7616
1.1995	-12.28638
1.2	-26.58691
1.2005	-46.12427
1.201	-79.35791
1.2015	-96.37756
1.202	-91.64429
1.2025	-91.14075
1.203	-76.63879
1.2035	-50.354
1.204	-27.09045
1.2045	-1.81274
1.205	16.51611
1.2055	32.93152
1.206	28.09753
1.2065	18.93311
1.207	12.28638
1.2075	6.64673
1.208	3.22266
1.2085	-4.22974
1.209	-4.83398
1.2095	-0.90637
1.21	-1.40991
1.2105	14.60266
1.211	31.21948
1.2115	39.17542
1.212	50.95825
1.2125	54.28162
1.213	65.15808
1.2135	71.40198
1.214	71.7041
1.2145	64.45312
1.215	59.01489
1.2155	52.8717
1.216	47.63489
1.2165	49.34692
1.217	41.79382
1.2175	38.47046
1.218	29.60815
1.2185	19.83948
1.219	18.93311
1.2195	16.41541
1.22	27.39258
1.2205	38.47046
1.221	43.80798
1.2215	42.39807
1.222	34.84497
1.2225	30.2124
1.223	22.96143
1.2235	22.25647
1.224	7.45239
1.2245	4.93469
1.225	0.90637
1.2255	3.42407
1.226	7.25098
1.2265	13.19275
1.227	19.73877
1.2275	21.65222
1.228	23.76709
1.2285	21.04797
1.229	10.0708
1.2295	10.37292
1.23	4.93469
1.2305	15.1062
1.231	16.51611
1.2315	21.65222
1.232	19.33594
1.2325	10.87646
1.233	4.73328
1.2335	-4.63257
1.234	-1.3092
1.2345	-5.13611
1.235	-13.19275
1.2355	-19.63806
1.236	-20.74585
1.2365	-12.99133
1.237	-16.61682
1.2375	-24.57275
1.238	-29.20532
1.2385	-22.25647
1.239	-12.68921
1.2395	-5.13611
1.24	3.92761
1.2405	1.81274
1.241	-1.61133
1.2415	-2.61841
1.242	-2.11487
1.2425	3.62549
1.243	-7.85522
1.2435	-5.23682
1.244	-6.74744
1.2445	-5.53894
1.245	-0.60425
1.2455	1.91345
1.246	11.58142
1.2465	7.95593
1.247	4.53186
1.2475	6.54602
1.248	8.96301
1.2485	4.93469
1.249	4.12903
1.2495	8.56018
1.25	6.94885
1.2505	17.42249
1.251	17.42249
1.2515	19.43665
1.252	25.177
1.2525	20.84656
1.253	16.01257
1.2535	9.06372
1.254	9.76868
1.2545	9.46655
1.255	11.78284
1.2555	21.3501
1.256	18.32886
1.2565	17.6239
1.257	15.50903
1.2575	15.60974
1.258	16.61682
1.2585	17.01965
1.259	15.30762
1.2595	9.36584
1.26	10.67505
1.2605	-2.41699
1.261	-17.82532
1.2615	-22.05505
1.262	-20.04089
1.2625	-21.3501
1.263	-19.13452
1.2635	-11.2793
1.264	-8.96301
1.2645	-3.52478
1.265	-1.3092
1.2655	-0.10071
1.266	2.31628
1.2665	6.94885
1.267	13.89771
1.2675	13.797
1.268	16.21399
1.2685	22.25647
1.269	23.96851
1.2695	22.6593
1.27	25.177
1.2705	22.6593
1.271	18.63098
1.2715	8.56018
1.272	-8.66089
1.2725	-14.19983
1.273	-22.25647
1.2735	-29.30603
1.274	-26.3855
1.2745	-30.51453
1.275	-29.30603
1.2755	-31.82373
1.276	-29.20532
1.2765	-27.39258
1.277	-31.11877
1.2775	-38.26904
1.278	-42.09595
1.2785	-38.974
1.279	-36.55701
1.2795	-34.03931
1.28	-32.12585
1.2805	-25.37842
1.281	-15.20691
1.2815	-10.27222
1.282	-12.5885
1.2825	-8.66089
1.283	-2.92053
1.2835	-0.70496
1.284	-2.81982
1.2845	17.22107
1.285	21.65222
1.2855	23.46497
1.286	19.53735
1.2865	18.22815
1.287	16.81824
1.2875	18.63098
1.288	19.73877
1.2885	16.81824
1.289	16.51611
1.2895	12.08496
1.29	14.30054
1.2905	14.40125
1.291	14.19983
1.2915	13.59558
1.292	12.38708
1.2925	10.87646
1.293	5.94177
1.2935	6.54602
1.294	0.20142
1.2945	-2.41699
1.295	-1.71204
1.2955	-1.91345
1.296	2.92053
1.2965	1.3092
1.297	6.14319
1.2975	6.3446
1.298	8.25806
1.2985	11.78284
1.299	7.95593
1.2995	9.86938
1.3	3.22266
1.3005	12.28638
1.301	12.18567
1.3015	12.78992
1.302	14.70337
1.3025	8.15735
1.303	7.95593
1.3035	12.48779
1.304	15.1062
1.3045	20.44373
1.305	25.68054
1.3055	27.89612
1.306	27.99683
1.3065	28.39966
1.307	35.14709
1.3075	37.06055
1.308	37.36267
1.3085	25.177
1.309	23.8678
1.3095	18.53027
1.31	17.52319
1.3105	13.69629
1.311	17.12036
1.3115	20.24231
1.312	12.08496
1.3125	8.25806
1.313	2.21558
1.3135	9.46655
1.314	4.02832
1.3145	7.65381
1.315	-8.35876
1.3155	-49.0448
1.316	-72.81189
1.3165	-65.46021
1.317	-49.0448
1.3175	-32.93152
1.318	-20.24231
1.3185	-1.10779
1.319	16.11328
1.3195	23.26355
1.32	37.7655
1.3205	55.49011
1.321	53.87878
1.3215	53.07312
1.322	55.69153
1.3225	55.69153
1.323	50.2533
1.3235	39.47754
1.324	32.32727
1.3245	31.82373
1.325	25.57983
1.3255	21.85364
1.326	17.22107
1.3265	13.19275
1.327	3.62549
1.3275	5.13611
1.328	4.93469
1.3285	15.60974
1.329	17.12036
1.3295	12.18567
1.33	1.40991
1.3305	3.8269
1.331	3.7262
1.3315	2.81982
1.332	-1.2085
1.3325	-4.73328
1.333	-2.71912
1.3335	6.84814
1.334	8.96301
1.3345	14.80408
1.335	27.99683
1.3355	32.52869
1.336	41.99524
1.3365	47.63489
1.337	51.76392
1.3375	48.44055
1.338	51.36108
1.3385	47.03064
1.339	43.00232
1.3395	32.02515
1.34	22.76001
1.3405	15.91187
1.341	10.47363
1.3415	2.11487
1.342	-0.70496
1.3425	-9.26514
1.343	-26.98975
1.3435	-55.79224
1.344	-63.64746
1.3445	-59.41772
1.345	-47.7356
1.3455	-43.80798
1.346	-40.98816
1.3465	-32.32727
1.347	-23.06213
1.3475	-22.35718
1.348	-23.56567
1.3485	-22.15576
1.349	-11.98425
1.3495	-13.49487
1.35	-7.5531
1.3505	-4.22974
1.351	-1.91345
1.3515	6.94885
1.352	5.0354
1.3525	1.91345
1.353	-2.92053
1.3535	-5.84106
1.354	2.71912
1.3545	11.17859
1.355	16.81824
1.3555	11.38
1.356	12.99133
1.3565	10.67505
1.357	6.2439
1.3575	9.36584
1.358	15.81116
1.3585	23.76709
1.359	31.82373
1.3595	35.75134
1.36	37.26196
1.3605	32.62939
1.361	28.70178
1.3615	21.95435
1.362	22.25647
1.3625	18.42957
1.363	15.00549
1.3635	16.21399
1.364	6.14319
1.3645	1.51062
1.365	-2.61841
1.3655	-4.53186
1.366	-12.99133
1.3665	-14.50195
1.367	-23.66638
1.3675	-18.22815
1.368	-19.94019
1.3685	-30.71594
1.369	-27.29187
1.3695	-31.72302
1.37	-33.53577
1.3705	-37.36267
1.371	-43.00232
1.3715	-63.64746
1.372	-107.95898
1.3725	-129.91333
1.373	-123.56873
1.3735	-104.73633
1.374	-86.60889
1.3745	-63.44604
1.375	-31.52161
1.3755	1.91345
1.376	27.39258
1.3765	50.85754
1.377	70.19348
1.3775	82.68127
1.378	85.29968
1.3785	92.24854
1.379	93.0542
1.3795	89.12659
1.38	77.54517
1.3805	68.68286
1.381	64.25171
1.3815	54.0802
1.382	47.53418
1.3825	46.72852
1.383	56.39648
1.3835	61.93542
1.384	60.92834
1.3845	50.05188
1.385	13.29346
1.3855	-37.56409
1.386	-94.46411
1.3865	-122.86377
1.387	-136.35864
1.3875	-136.15723
1.388	-115.51208
1.3885	-85.70251
1.389	-49.74976
1.3895	-6.94885
1.39	25.88196
1.3905	55.49011
1.391	76.33667
1.3915	100.80872
1.392	116.51917
1.3925	110.57739
1.393	118.63403
1.3935	117.92908
1.394	101.41296
1.3945	83.58765
1.395	69.79065
1.3955	60.22339
1.396	51.66321
1.3965	38.974
1.397	21.65222
1.3975	18.93311
1.398	29.50745
1.3985	37.96692
1.399	30.51453
1.3995	29.20532
1.4	31.01807
1.4005	29.30603
1.401	18.73169
1.4015	7.35168
1.402	3.22266
1.4025	-1.81274
1.403	-0.40283
1.4035	1.3092
1.404	1.2085
1.4045	3.42407
1.405	5.74036
1.4055	2.61841
1.406	6.2439
1.4065	9.36584
1.407	5.23682
1.4075	2.41699
1.408	6.04248
1.4085	-2.5177
1.409	-3.8269
1.4095	-5.84106
1.41	-5.63965
1.4105	-7.85522
1.411	-8.05664
1.4115	-11.38
1.412	-6.44531
1.4125	-13.39417
1.413	-11.38
1.4135	-21.95435
1.414	-23.16284
1.4145	-19.53735
1.415	-20.74585
1.4155	-14.60266
1.416	-13.69629
1.4165	-1.10779
1.417	-0.20142
1.4175	-1.71204
1.418	6.14319
1.4185	5.0354
1.419	7.45239
1.4195	-2.11487
1.42	2.01416
1.4205	3.22266
1.421	1.00708
1.4215	-3.52478
1.422	-12.38708
1.4225	-24.47205
1.423	-24.87488
1.4235	-27.99683
1.424	-29.40674
1.4245	-31.21948
1.425	-25.98267
1.4255	-24.16992
1.426	-17.22107
1.4265	-17.52319
1.427	-14.60266
1.4275	-16.21399
1.428	-10.17151
1.4285	-14.90479
1.429	-7.75452
1.4295	-5.33752
1.43	-18.22815
1.4305	-19.83948
1.431	-23.36426
1.4315	-18.42957
1.432	-7.45239
1.4325	-0.30212
1.433	2.41699
1.4335	-4.12903
1.434	0.40283
1.4345	9.26514
1.435	14.90479
1.4355	11.98425
1.436	12.5885
1.4365	21.04797
1.437	22.6593
1.4375	24.87488
1.438	28.09753
1.4385	22.35718
1.439	22.25647
1.4395	25.37842
1.44	28.9032
1.4405	26.3855
1.441	17.92603
1.4415	11.48071
1.442	18.8324
1.4425	25.78125
1.443	30.61523
1.4435	33.03223
1.444	33.9386
1.4445	32.93152
1.445	40.08179
1.4455	29.10461
1.446	28.9032
1.4465	34.74426
1.447	30.2124
1.4475	31.62231
1.448	29.40674
1.4485	27.29187
1.449	32.42798
1.4495	35.44922
1.45	21.75293
1.4505	17.72461
1.451	9.46655
1.4515	7.85522
1.452	4.33044
1.4525	-4.63257
1.453	-1.3092
1.4535	-10.77576
1.454	-23.76709
1.4545	-22.45789
1.455	-26.28479
1.4555	-24.27063
1.456	-24.57275
1.4565	-13.39417
1.457	-20.64514
1.4575	-8.7616
1.458	-13.99841
1.4585	-6.3446
1.459	-3.42407
1.4595	-0.50354
1.46	8.56018
1.4605	9.16443
1.461	8.56018
1.4615	11.2793
1.462	6.04248
1.4625	2.81982
1.463	4.02832
1.4635	5.53894
1.464	0.70496
1.4645	-2.11487
1.465	0.20142
1.4655	-2.21558
1.466	-1.2085
1.4665	3.52478
1.467	12.28638
1.4675	26.08337
1.468	35.65063
1.4685	45.92285
1.469	45.82214
1.4695	34.24072
1.47	24.06921
1.4705	17.22107
1.471	8.35876
1.4715	9.97009
1.472	7.65381
1.4725	-3.02124
1.473	-6.2439
1.4735	-10.57434
1.474	-7.45239
1.4745	-17.92603
1.475	-13.59558
1.4755	-6.2439
1.476	-9.76868
1.4765	-6.3446
1.477	-3.62549
1.4775	-4.33044
1.478	-9.06372
1.4785	-13.29346
1.479	-18.63098
1.4795	-7.65381
1.48	-10.17151
1.4805	-3.42407
1.481	1.91345
1.4815	5.43823
1.482	-1.61133
1.4825	4.53186
1.483	-6.04248
1.4835	-2.92053
1.484	1.00708
1.4845	5.94177
1.485	5.53894
1.4855	4.73328
1.486	4.63257
1.4865	4.33044
1.487	8.45947
1.4875	13.09204
1.488	10.47363
1.4885	15.20691
1.489	18.12744
1.4895	16.21399
1.49	3.7262
1.4905	6.54602
1.491	6.84814
1.4915	6.44531
1.492	9.86938
1.4925	10.17151
1.493	9.16443
1.4935	10.47363
1.494	13.69629
1.4945	6.94885
1.495	8.05664
1.4955	3.22266
1.496	-3.92761
1.4965	-22.45789
1.497	-42.39807
1.4975	-53.67737
1.498	-52.56958
1.4985	-50.05188
1.499	-43.40515
1.4995	-33.23364
1.5	-18.93311
1.5005	-3.92761
1.501	5.74036
1.5015	21.55151
1.502	33.03223
1.5025	41.99524
1.503	40.88745
1.5035	40.2832
1.504	38.974
1.5045	32.02515
1.505	5.74036
1.5055	-37.06055
1.506	-68.48145
1.5065	-68.98499
1.507	-71.60339
1.5075	-64.75525
1.508	-51.76392
1.5085	-32.52869
1.509	-2.41699
1.5095	28.9032
1.51	46.02356
1.5105	59.82056
1.511	66.56799
1.5115	65.76233
1.512	78.14941
1.5125	88.22021
1.513	82.17773
1.5135	73.41614
1.514	59.71985
1.5145	55.79224
1.515	54.18091
1.5155	46.12427
1.516	30.01099
1.5165	20.04089
1.517	14.60266
1.5175	15.20691
1.518	22.15576
1.5185	29.80957
1.519	24.47205
1.5195	20.94727
1.52	15.91187
1.5205	10.47363
1.521	10.57434
1.5215	6.74744
1.522	2.5177
1.5225	7.5531
1.523	9.06372
1.5235	7.75452
1.524	7.15027
1.5245	8.25806
1.525	10.57434
1.5255	12.78992
1.526	8.35876
1.5265	7.75452
1.527	12.5885
1.5275	13.797
1.528	11.48071
1.5285	12.18567
1.529	16.3147
1.5295	13.39417
1.53	16.11328
1.5305	17.01965
1.531	12.5885
1.5315	8.05664
1.532	16.61682
1.5325	13.19275
1.533	13.59558
1.5335	16.01257
1.534	10.47363
1.5345	11.48071
1.535	0.20142
1.5355	2.01416
1.536	0.70496
1.5365	-8.66089
1.537	-14.50195
1.5375	-21.3501
1.538	-19.63806
1.5385	-21.65222
1.539	-28.39966
1.5395	-28.80249
1.54	-28.09753
1.5405	-19.73877
1.541	-19.03381
1.5415	-10.87646
1.542	-13.09204
1.5425	-18.73169
1.543	-9.66797
1.5435	-1.10779
1.544	4.83398
1.5445	8.45947
1.545	8.96301
1.5455	4.43115
1.546	6.44531
1.5465	-1.61133
1.547	-3.8269
1.5475	0.10071
1.548	13.99841
1.5485	21.14868
1.549	30.01099
1.5495	23.76709
1.55	15.30762
1.5505	7.95593
1.551	8.8623
1.5515	2.21558
1.552	-2.41699
1.5525	3.42407
1.553	1.2085
1.5535	-0.70496
1.554	-2.21558
1.5545	1.91345
1.555	5.43823
1.5555	18.8324
1.556	17.32178
1.5565	17.32178
1.557	16.91895
1.5575	14.09912
1.558	4.33044
1.5585	9.06372
1.559	10.57434
1.5595	8.7616
1.56	6.2439
1.5605	6.64673
1.561	5.94177
1.5615	10.47363
1.562	6.54602
1.5625	14.50195
1.563	7.15027
1.5635	12.5885
1.564	7.85522
1.5645	5.74036
1.565	5.33752
1.5655	4.93469
1.566	6.54602
1.5665	7.75452
1.567	8.96301
1.5675	4.93469
1.568	3.12195
1.5685	9.36584
1.569	6.14319
1.5695	8.15735
1.57	12.08496
1.5705	8.8623
1.571	13.29346
1.5715	9.86938
1.572	8.7616
1.5725	3.22266
1.573	-9.46655
1.5735	-20.44373
1.574	-22.35718
1.5745	-25.07629
1.575	-14.09912
1.5755	-11.07788
1.576	1.00708
1.5765	1.61133
1.577	-0.40283
1.5775	-3.92761
1.578	-2.21558
1.5785	-3.42407
1.579	-5.0354
1.5795	-10.17151
1.58	-7.35168
1.5805	-13.797
1.581	-10.27222
1.5815	-11.78284
1.582	-12.99133
1.5825	-13.19275
1.583	-13.49487
1.5835	-11.38
1.584	-11.98425
1.5845	-10.0708
1.585	-8.35876
1.5855	-6.3446
1.586	-6.2439
1.5865	-2.11487
1.587	0.40283
1.5875	16.51611
1.588	17.42249
1.5885	15.20691
1.589	13.69629
1.5895	7.95593
1.59	3.12195
1.5905	-2.5177
1.591	0.80566
1.5915	0
1.592	1.51062
1.5925	1.40991
1.593	2.5177
1.5935	9.16443
1.594	11.88354
1.5945	9.86938
1.595	10.67505
1.5955	12.99133
1.596	15.30762
1.5965	16.41541
1.597	5.53894
1.5975	-3.42407
1.598	-3.12195
1.5985	-25.27771
1.599	-36.25488
1.5995	-38.67188
1.6	-32.22656
1.6005	-31.11877
1.601	-22.45789
1.6015	-12.89062
1.602	5.13611
1.6025	13.29346
1.603	22.45789
1.6035	31.21948
1.604	41.59241
1.6045	35.34851
1.605	43.50586
1.6055	42.39807
1.606	46.5271
1.6065	41.18958
1.607	42.90161
1.6075	43.80798
1.608	38.77258
1.6085	47.43347
1.609	44.21082
1.6095	56.49719
1.61	57.30286
1.6105	42.59949
1.611	25.07629
1.6115	16.91895
1.612	12.48779
1.6125	-0.10071
1.613	1.10779
1.6135	1.81274
1.614	-0.70496
1.6145	-15.00549
1.615	-30.2124
1.6155	-44.11011
1.616	-46.72852
1.6165	-48.23914
1.617	-42.49878
1.6175	-41.08887
1.618	-34.54285
1.6185	-27.19116
1.619	-12.5885
1.6195	-7.75452
1.62	-0.20142
1.6205	10.37292
1.621	19.03381
1.6215	28.80249
1.622	35.65063
1.6225	37.16125
1.623	35.95276
1.6235	36.35559
1.624	31.62231
1.6245	28.50037
1.625	29.00391
1.6255	26.78833
1.626	29.00391
1.6265	22.86072
1.627	15.00549
1.6275	16.01257
1.628	9.66797
1.6285	10.67505
1.629	15.20691
1.6295	7.65381
1.63	14.70337
1.6305	10.57434
1.631	3.52478
1.6315	-4.12903
1.632	-6.3446
1.6325	1.10779
1.633	-1.51062
1.6335	-4.53186
1.634	-2.5177
1.6345	-0.50354
1.635	-3.52478
1.6355	0.80566
1.636	-1.40991
1.6365	-0.20142
1.637	5.63965
1.6375	3.8269
1.638	0.40283
1.6385	-1.91345
1.639	-7.45239
1.6395	-10.37292
1.64	-16.3147
1.6405	-12.48779
1.641	-14.90479
1.6415	-8.35876
1.642	-7.45239
1.6425	-9.86938
1.643	-5.43823
1.6435	2.01416
1.644	8.7616
1.6445	15.81116
1.645	17.12036
1.6455	22.35718
1.646	24.97559
1.6465	26.88904
1.647	28.9032
1.6475	25.47913
1.648	24.47205
1.6485	21.3501
1.649	20.64514
1.6495	21.55151
1.65	17.72461
1.6505	16.21399
1.651	11.38
1.6515	4.53186
1.652	-0.90637
1.6525	-0.70496
1.653	-6.54602
1.6535	-12.5885
1.654	-16.41541
1.6545	-15.30762
1.655	-2.41699
1.6555	1.91345
1.656	9.56726
1.6565	7.65381
1.657	5.53894
1.6575	7.04956
1.658	4.02832
1.6585	-2.5177
1.659	-3.42407
1.6595	-0.70496
1.66	-2.71912
1.6605	0.60425
1.661	-1.81274
1.6615	-2.41699
1.662	-1.3092
1.6625	4.33044
1.663	5.43823
1.6635	2.92053
1.664	4.02832
1.6645	12.18567
1.665	10.47363
1.6655	2.21558
1.666	-0.80566
1.6665	-0.50354
1.667	6.14319
1.6675	9.66797
1.668	13.19275
1.6685	16.91895
1.669	20.44373
1.6695	19.23523
1.67	19.03381
1.6705	19.94019
1.671	15.81116
1.6715	17.12036
1.672	23.06213
1.6725	20.94727
1.673	17.72461
1.6735	18.12744
1.674	16.21399
1.6745	15.71045
1.675	19.94019
1.6755	18.12744
1.676	13.89771
1.6765	15.91187
1.677	11.38
1.6775	15.71045
1.678	28.19824
1.6785	26.78833
1.679	27.59399
1.6795	22.25647
1.68	22.35718
1.6805	17.92603
1.681	15.1062
1.6815	9.76868
1.682	5.33752
1.6825	5.33752
1.683	2.71912
1.6835	3.02124
1.684	-0.90637
1.6845	0.50354
1.685	-8.7616
1.6855	-12.78992
1.686	-21.45081
1.6865	-19.33594
1.687	-19.03381
1.6875	-25.68054
1.688	-22.05505
1.6885	-18.8324
1.689	-15.50903
1.6895	-15.81116
1.69	-16.11328
1.6905	-11.38
1.691	-11.2793
1.6915	-6.2439
1.692	-14.70337
1.6925	-5.74036
1.693	-31.82373
1.6935	-61.93542
1.694	-101.8158
1.6945	-106.75049
1.695	-95.37048
1.6955	-87.81738
1.696	-66.97083
1.6965	-48.44055
1.697	-17.92603
1.6975	9.46655
1.698	29.70886
1.6985	47.23206
1.699	64.85596
1.6995	72.50977
1.7	88.32092
1.7005	83.88977
1.701	81.67419
1.7015	74.2218
1.702	62.53967
1.7025	50.05188
1.703	45.52002
1.7035	61.43188
1.704	48.64197
1.7045	37.86621
1.705	21.55151
1.7055	19.53735
1.706	23.16284
1.7065	33.03223
1.707	27.79541
1.7075	32.12585
1.708	31.11877
1.7085	30.31311
1.709	35.85205
1.7095	31.62231
1.71	36.15417
1.7105	32.42798
1.711	27.49329
1.7115	8.25806
1.712	-24.67346
1.7125	-51.96533
1.713	-81.06995
1.7135	-78.55225
1.714	-79.96216
1.7145	-82.47986
1.715	-80.76782
1.7155	-73.01331
1.716	-55.89294
1.7165	-37.46338
1.717	-20.54443
1.7175	-5.53894
1.718	4.73328
1.7185	8.96301
1.719	21.45081
1.7195	35.34851
1.72	38.16833
1.7205	47.63489
1.721	56.90002
1.7215	54.78516
1.722	47.23206
1.7225	35.85205
1.723	37.16125
1.7235	37.06055
1.724	44.41223
1.7245	58.41064
1.725	81.97632
1.7255	67.77649
1.726	47.23206
1.7265	36.95984
1.727	24.77417
1.7275	22.05505
1.728	14.40125
1.7285	14.60266
1.729	10.17151
1.7295	4.22974
1.73	-4.43115
1.7305	-1.91345
1.731	-10.0708
1.7315	-10.57434
1.732	-3.42407
1.7325	-12.08496
1.733	-3.42407
1.7335	0.60425
1.734	-3.52478
1.7345	-1.10779
1.735	-2.01416
1.7355	-1.10779
1.736	6.94885
1.7365	14.90479
1.737	14.40125
1.7375	21.24939
1.738	22.45789
1.7385	20.54443
1.739	21.24939
1.7395	10.77576
1.74	16.71753
1.7405	13.89771
1.741	8.96301
1.7415	6.14319
1.742	3.12195
1.7425	7.5531
1.743	6.84814
1.7435	3.8269
1.744	5.23682
1.7445	5.23682
1.745	20.84656
1.7455	9.76868
1.746	-0.80566
1.7465	-18.02673
1.747	-27.19116
1.7475	-45.3186
1.748	-61.83472
1.7485	-60.3241
1.749	-54.18091
1.7495	-47.33276
1.75	-38.87329
1.7505	-32.02515
1.751	-23.06213
1.7515	-9.97009
1.752	-6.14319
1.7525	-5.13611
1.753	4.73328
1.7535	17.92603
1.754	19.13452
1.7545	21.75293
1.755	25.47913
1.7555	14.70337
1.756	10.57434
1.7565	11.07788
1.757	12.68921
1.7575	18.42957
1.758	27.59399
1.7585	33.63647
1.759	32.32727
1.7595	21.14868
1.76	15.30762
1.7605	21.45081
1.761	15.91187
1.7615	13.89771
1.762	13.29346
1.7625	16.01257
1.763	25.27771
1.7635	21.45081
1.764	20.94727
1.7645	13.19275
1.765	13.09204
1.7655	10.87646
1.766	9.06372
1.7665	3.92761
1.767	2.01416
1.7675	-0.90637
1.768	-1.2085
1.7685	-3.02124
1.769	2.21558
1.7695	-0.20142
1.77	2.31628
1.7705	10.0708
1.771	4.83398
1.7715	3.32336
1.772	1.91345
1.7725	5.23682
1.773	1.3092
1.7735	1.61133
1.774	-6.84814
1.7745	-17.42249
1.775	-26.78833
1.7755	-39.77966
1.776	-34.74426
1.7765	-31.32019
1.777	-29.30603
1.7775	-37.16125
1.778	-36.75842
1.7785	-33.43506
1.779	-23.56567
1.7795	-14.19983
1.78	-12.5885
1.7805	-1.51062
1.781	1.2085
1.7815	-6.2439
1.782	-8.45947
1.7825	-11.68213
1.783	-12.18567
1.7835	-26.28479
1.784	-22.96143
1.7845	-18.12744
1.785	-12.38708
1.7855	2.92053
1.786	5.74036
1.7865	21.55151
1.787	21.24939
1.7875	24.67346
1.788	30.31311
1.7885	36.35559
1.789	32.83081
1.7895	42.39807
1.79	53.47595
1.7905	71.60339
1.791	79.55933
1.7915	74.2218
1.792	69.1864
1.7925	62.13684
1.793	62.9425
1.7935	54.68445
1.794	43.60657
1.7945	38.57117
1.795	30.01099
1.7955	15.40833
1.796	8.35876
1.7965	7.65381
1.797	6.74744
1.7975	11.07788
1.798	11.38
1.7985	8.05664
1.799	8.05664
1.7995	10.67505
1.8	16.91895
1.8005	10.77576
1.801	11.48071
1.8015	8.56018
1.802	11.38
1.8025	10.17151
1.803	6.44531
1.8035	12.99133
1.804	13.69629
1.8045	12.89062
1.805	2.01416
1.8055	13.99841
1.806	8.45947
1.8065	3.8269
1.807	-1.40991
1.8075	-5.0354
1.808	-31.21948
1.8085	-76.63879
1.809	-101.71509
1.8095	-107.95898
1.81	-106.24695
1.8105	-88.82446
1.811	-69.38782
1.8115	-45.3186
1.812	-24.57275
1.8125	8.96301
1.813	26.3855
1.8135	42.90161
1.814	53.87878
1.8145	58.91418
1.815	68.48145
1.8155	62.13684
1.816	70.99915
1.8165	58.20923
1.817	45.52002
1.8175	23.26355
1.818	9.76868
1.8185	-8.35876
1.819	-25.177
1.8195	-45.82214
1.82	-53.27454
1.8205	-71.60339
1.821	-88.92517
1.8215	-88.32092
1.822	-79.86145
1.8225	-64.151
1.823	-49.95117
1.8235	-34.44214
1.824	-14.60266
1.8245	20.1416
1.825	38.16833
1.8255	50.05188
1.826	63.34534
1.8265	69.38782
1.827	71.30127
1.8275	76.23596
1.828	78.55225
1.8285	73.71826
1.829	58.41064
1.8295	51.76392
1.83	45.2179
1.8305	40.98816
1.831	33.03223
1.8315	20.64514
1.832	2.71912
1.8325	-10.0708
1.833	-21.45081
1.8335	-32.7301
1.834	-39.27612
1.8345	-28.09753
1.835	-31.62231
1.8355	-35.85205
1.836	-62.74109
1.8365	-69.38782
1.837	-67.97791
1.8375	-62.9425
1.838	-45.01648
1.8385	-28.60107
1.839	-18.42957
1.8395	-11.78284
1.84	-0.80566
1.8405	4.53186
1.841	12.28638
1.8415	16.11328
1.842	21.3501
1.8425	34.74426
1.843	39.57825
1.8435	38.974
1.844	42.29736
1.8445	42.49878
1.845	32.42798
1.8455	26.58691
1.846	30.91736
1.8465	30.51453
1.847	34.24072
1.8475	24.87488
1.848	23.56567
1.8485	26.98975
1.849	21.45081
1.8495	29.50745
1.85	30.51453
1.8505	38.974
1.851	51.26038
1.8515	63.84888
1.852	85.40039
1.8525	86.10535
1.853	81.47278
1.8535	66.46729
1.854	57.20215
1.8545	39.77966
1.855	27.6947
1.8555	16.81824
1.856	8.66089
1.8565	3.12195
1.857	-18.32886
1.8575	-22.96143
1.858	-29.20532
1.8585	-30.11169
1.859	-25.98267
1.8595	-24.57275
1.86	-14.40125
1.8605	-3.8269
1.861	5.94177
1.8615	1.2085
1.862	8.56018
1.8625	9.36584
1.863	15.71045
1.8635	16.71753
1.864	11.98425
1.8645	13.89771
1.865	7.25098
1.8655	6.64673
1.866	8.66089
1.8665	8.45947
1.867	7.45239
1.8675	9.16443
1.868	14.70337
1.8685	13.59558
1.869	9.26514
1.8695	4.33044
1.87	9.56726
1.8705	12.08496
1.871	6.84814
1.8715	1.00708
1.872	-1.71204
1.8725	-0.80566
1.873	-2.41699
1.8735	-3.22266
1.874	0.40283
1.8745	-2.61841
1.875	-5.53894
1.8755	-0.70496
1.876	2.71912
1.8765	9.26514
1.877	-14.70337
1.8775	-26.88904
1.878	-37.7655
1.8785	-36.4563
1.879	-35.85205
1.8795	-25.88196
1.88	-16.3147
1.8805	-4.93469
1.881	-1.91345
1.8815	5.84106
1.882	16.41541
1.8825	20.64514
1.883	25.37842
1.8835	20.94727
1.884	23.66638
1.8845	16.51611
1.885	15.50903
1.8855	13.49487
1.886	8.7616
1.8865	3.32336
1.887	-1.3092
1.8875	8.7616
1.888	5.0354
1.8885	4.33044
1.889	5.43823
1.8895	0.40283
1.89	-3.52478
1.8905	-13.29346
1.891	-10.97717
1.8915	-10.97717
1.892	-4.33044
1.8925	-4.12903
1.893	-11.58142
1.8935	-8.25806
1.894	-6.04248
1.8945	-4.02832
1.895	-4.73328
1.8955	2.31628
1.896	5.43823
1.8965	9.66797
1.897	9.86938
1.8975	12.48779
1.898	7.5531
1.8985	4.93469
1.899	17.22107
1.8995	29.70886
1.9	18.8324
1.9005	12.48779
1.901	5.74036
1.9015	0.10071
1.902	-7.15027
1.9025	-7.5531
1.903	-5.43823
1.9035	-1.81274
1.904	-8.35876
1.9045	-11.98425
1.905	-13.09204
1.9055	-10.77576
1.906	-11.98425
1.9065	-13.29346
1.907	-4.33044
1.9075	-6.44531
1.908	-7.85522
1.9085	-2.5177
1.909	-19.33594
1.9095	-64.25171
1.91	-96.47827
1.9105	-105.94482
1.911	-94.06128
1.9115	-78.85437
1.912	-57.50427
1.9125	-29.20532
1.913	-8.25806
1.9135	14.09912
1.914	27.79541
1.9145	34.74426
1.915	44.41223
1.9155	49.64905
1.916	51.26038
1.9165	52.771
1.917	55.18799
1.9175	38.16833
1.918	15.91187
1.9185	-6.2439
1.919	-17.12036
1.9195	-11.98425
1.92	-14.40125
1.9205	-6.44531
1.921	-7.65381
1.9215	-15.40833
1.922	-7.45239
1.9225	-7.15027
1.923	10.27222
1.9235	25.98267
1.924	40.58533
1.9245	39.47754
1.925	24.87488
1.9255	15.50903
1.926	17.72461
1.9265	21.75293
1.927	26.28479
1.9275	29.10461
1.928	27.39258
1.9285	34.74426
1.929	38.974
1.9295	37.26196
1.93	40.38391
1.9305	45.92285
1.931	46.02356
1.9315	40.38391
1.932	43.40515
1.9325	33.03223
1.933	18.63098
1.9335	21.14868
1.934	28.39966
1.9345	29.91028
1.935	29.20532
1.9355	22.76001
1.936	13.69629
1.9365	15.60974
1.937	30.61523
1.9375	29.10461
1.938	26.68762
1.9385	16.51611
1.939	12.89062
1.9395	8.05664
1.94	15.50903
1.9405	10.47363
1.941	12.89062
1.9415	8.66089
1.942	-0.30212
1.9425	-4.22974
1.943	-3.52478
1.9435	10.17151
1.944	10.27222
1.9445	12.08496
1.945	11.2793
1.9455	10.0708
1.946	14.90479
1.9465	10.77576
1.947	8.7616
1.9475	0.90637
1.948	-0.50354
1.9485	0.90637
1.949	-0.60425
1.9495	-3.8269
1.95	-2.21558
1.9505	-3.92761
1.951	-9.36584
1.9515	-10.57434
1.952	-10.67505
1.9525	-7.15027
1.953	-6.64673
1.9535	-3.12195
1.954	-1.81274
1.9545	-5.13611
1.955	-9.16443
1.9555	-13.89771
1.956	-12.99133
1.9565	-27.89612
1.957	-51.76392
1.9575	-64.35242
1.958	-63.04321
1.9585	-62.74109
1.959	-53.47595
1.9595	-45.82214
1.96	-54.28162
1.9605	-54.28162
1.961	-54.88586
1.9615	-47.53418
1.962	-30.31311
1.9625	-21.24939
1.963	-2.41699
1.9635	8.96301
1.964	10.37292
1.9645	5.94177
1.965	-3.42407
1.9655	-10.0708
1.966	-8.35876
1.9665	-1.71204
1.967	3.62549
1.9675	12.18567
1.968	15.00549
1.9685	21.95435
1.969	34.64355
1.9695	42.49878
1.97	43.70728
1.9705	40.78674
1.971	45.82214
1.9715	43.40515
1.972	40.58533
1.9725	37.7655
1.973	47.43347
1.9735	33.53577
1.974	8.15735
1.9745	-8.56018
1.975	-25.47913
1.9755	-58.51135
1.976	-83.78906
1.9765	-80.26428
1.977	-64.25171
1.9775	-43.80798
1.978	-17.52319
1.9785	-3.52478
1.979	14.90479
1.9795	27.09045
1.98	48.74268
1.9805	62.13684
1.981	73.81897
1.9815	85.60181
1.982	84.99756
1.9825	85.90393
1.983	72.40906
1.9835	66.6687
1.984	59.31702
1.9845	54.38232
1.985	53.17383
1.9855	51.15967
1.986	48.33984
1.9865	51.96533
1.987	61.73401
1.9875	69.68994
1.988	68.88428
1.9885	47.8363
1.989	34.74426
1.9895	25.98267
1.99	15.91187
1.9905	17.72461
1.991	10.27222
1.9915	-2.81982
1.992	-32.02515
1.9925	-49.64905
1.993	-59.92126
1.9935	-60.02197
1.994	-56.5979
1.9945	-43.50586
1.995	-39.17542
1.9955	-35.04639
1.996	-31.52161
1.9965	-26.48621
1.997	-19.33594
1.9975	-1.3092
1.998	8.15735
1.9985	17.72461
1.999	17.6239
1.9995	25.68054
2	20.34302
2.0005	5.43823
2.001	-7.5531
2.0015	-20.74585
2.002	-14.60266
2.0025	-17.01965
2.003	-15.00549
2.0035	-13.99841
2.004	-24.06921
2.0045	-33.13293
2.005	-27.6947
2.0055	-12.18567
2.006	-2.01416
2.0065	-18.32886
2.007	-23.56567
2.0075	-43.60657
2.008	-64.151
2.0085	-64.05029
2.009	-58.61206
2.0095	-46.82922
2.01	-18.22815
2.0105	7.35168
2.011	37.26196
2.0115	62.74109
2.012	82.58057
2.0125	101.41296
2.013	110.6781
2.0135	104.63562
2.014	92.75208
2.0145	75.73242
2.015	65.86304
2.0155	58.91418
2.016	34.54285
2.0165	16.11328
2.017	11.98425
2.0175	3.02124
2.018	0.30212
2.0185	1.51062
2.019	3.02124
2.0195	7.15027
2.02	6.64673
2.0205	11.68213
2.021	23.76709
2.0215	30.41382
2.022	28.39966
2.0225	21.75293
2.023	8.25806
2.0235	-5.13611
2.024	-9.26514
2.0245	-18.73169
2.025	-46.62781
2.0255	-66.6687
2.026	-78.75366
2.0265	-102.92358
2.027	-118.63403
2.0275	-127.99988
2.028	-136.56006
2.0285	-147.73865
2.029	-143.81104
2.0295	-140.99121
2.03	-140.38696
2.0305	-127.59705
2.031	-114.10217
2.0315	-88.52234
2.032	-67.77649
2.0325	-31.92444
2.033	-3.52478
2.0335	23.8678
2.034	39.47754
2.0345	63.24463
2.035	86.91101
2.0355	106.54907
2.036	95.87402
2.0365	100.80872
2.037	108.86536
2.0375	122.36023
2.038	120.04395
2.0385	123.97156
2.039	140.78979
2.0395	143.20679
2.04	143.00537
2.0405	141.49475
2.041	137.66785
2.0415	115.00854
2.042	72.40906
2.0425	3.02124
2.043	-40.88745
2.0435	-58.71277
2.044	-55.79224
2.0445	-36.15417
2.045	-18.12744
2.0455	-10.27222
2.046	16.3147
2.0465	32.22656
2.047	41.79382
2.0475	47.33276
2.048	59.1156
2.0485	66.87012
2.049	65.46021
2.0495	71.40198
2.05	65.76233
2.0505	55.59082
2.051	32.7301
2.0515	24.06921
2.052	13.59558
2.0525	9.86938
2.053	-5.53894
2.0535	-19.03381
2.054	-23.66638
2.0545	-35.14709
2.055	-59.51843
2.0555	-92.44995
2.056	-115.91492
2.0565	-114.10217
2.057	-110.17456
2.0575	-96.07544
2.058	-94.56482
2.0585	-81.06995
2.059	-57.00073
2.0595	-38.26904
2.06	-28.50037
2.0605	-17.92603
2.061	-0.30212
2.0615	6.44531
2.062	13.39417
2.0625	-10.0708
2.063	-26.78833
2.0635	-22.05505
2.064	-23.46497
2.0645	-8.8623
2.065	-2.11487
2.0655	4.33044
2.066	13.39417
2.0665	33.9386
2.067	56.19507
2.0675	69.48853
2.068	80.06287
2.0685	77.14233
2.069	86.91101
2.0695	77.24304
2.07	54.58374
2.0705	39.67896
2.071	35.14709
2.0715	32.83081
2.072	19.63806
2.0725	15.81116
2.073	8.25806
2.0735	2.71912
2.074	10.37292
2.0745	17.32178
2.075	27.49329
2.0755	35.95276
2.076	47.13135
2.0765	48.33984
2.077	40.68604
2.0775	31.11877
2.078	27.89612
2.0785	22.96143
2.079	24.77417
2.0795	41.69312
2.08	59.1156
2.0805	66.97083
2.081	57.10144
2.0815	47.53418
2.082	30.61523
2.0825	19.23523
2.083	19.53735
2.0835	10.27222
2.084	8.66089
2.0845	-1.91345
2.085	-0.30212
2.0855	-6.14319
2.086	-29.60815
2.0865	-57.8064
2.087	-95.87402
2.0875	-107.45544
2.088	-111.9873
2.0885	-102.11792
2.089	-80.76782
2.0895	-65.66162
2.09	-49.14551
2.0905	-44.61365
2.091	-37.06055
2.0915	-25.78125
2.092	-11.2793
2.0925	6.44531
2.093	28.19824
2.0935	45.11719
2.094	48.84338
2.0945	62.64038
2.095	60.62622
2.0955	59.82056
2.096	65.76233
2.0965	74.2218
2.097	69.99207
2.0975	50.95825
2.098	43.20374
2.0985	46.5271
2.099	48.33984
2.0995	41.59241
2.1	9.76868
2.1005	-21.3501
2.101	-30.2124
2.1015	-40.98816
2.102	-29.20532
2.1025	-11.78284
2.103	6.84814
2.1035	31.72302
2.104	37.7655
2.1045	45.92285
2.105	53.67737
2.1055	54.58374
2.106	54.58374
2.1065	59.21631
2.107	62.9425
2.1075	53.17383
2.108	45.82214
2.1085	35.44922
2.109	33.13293
2.1095	25.07629
2.11	21.3501
2.1105	6.14319
2.111	-5.13611
2.1115	-12.78992
2.112	-18.32886
2.1125	-13.69629
2.113	-5.0354
2.1135	-4.02832
2.114	-7.25098
2.1145	-6.54602
2.115	-15.91187
2.1155	-13.89771
2.116	-14.09912
2.1165	-15.81116
2.117	-16.41541
2.1175	-14.30054
2.118	-13.29346
2.1185	-13.59558
2.119	-5.0354
2.1195	-13.797
2.12	-7.85522
2.1205	-17.42249
2.121	-26.18408
2.1215	-33.33435
2.122	-39.67896
2.1225	-43.80798
2.123	-35.14709
2.1235	-36.35559
2.124	-33.43506
2.1245	-34.74426
2.125	-31.82373
2.1255	-36.05347
2.126	-50.354
2.1265	-73.21472
2.127	-89.42871
2.1275	-107.65686
2.128	-110.17456
2.1285	-100.10376
2.129	-94.56482
2.1295	-89.42871
2.13	-84.79614
2.1305	-94.66553
2.131	-90.13367
2.1315	-58.71277
2.132	-32.62939
2.1325	-12.38708
2.133	14.19983
2.1335	44.71436
2.134	76.03455
2.1345	94.3634
2.135	102.62146
2.1355	115.91492
2.136	124.97864
2.1365	129.61121
2.137	143.3075
2.1375	147.1344
2.138	140.99121
2.1385	141.79688
2.139	135.45227
2.1395	121.65527
2.14	107.25403
2.1405	96.7804
2.141	76.03455
2.1415	54.98657
2.142	37.86621
2.1425	26.58691
2.143	22.6593
2.1435	18.12744
2.144	16.91895
2.1445	5.94177
2.145	0.80566
2.1455	-8.45947
2.146	-17.52319
2.1465	-14.30054
2.147	-15.50903
2.1475	-11.78284
2.148	-15.71045
2.1485	-15.00549
2.149	-17.72461
2.1495	-18.22815
2.15	-34.44214
2.1505	-63.04321
2.151	-81.67419
2.1515	-94.06128
2.152	-95.37048
2.1525	-92.14783
2.153	-75.32959
2.1535	-53.87878
2.154	-25.37842
2.1545	15.00549
2.155	28.9032
2.1555	33.33435
2.156	37.06055
2.1565	44.11011
2.157	44.21082
2.1575	41.08887
2.158	39.88037
2.1585	45.01648
2.159	36.05347
2.1595	1.2085
2.16	-14.50195
2.1605	-21.14868
2.161	-22.55859
2.1615	-19.83948
2.162	-38.47046
2.1625	-46.42639
2.163	-39.37683
2.1635	-27.39258
2.164	-8.7616
2.1645	5.13611
2.165	16.91895
2.1655	25.177
2.166	31.92444
2.1665	35.2478
2.167	47.7356
2.1675	50.65613
2.168	49.95117
2.1685	48.84338
2.169	48.74268
2.1695	49.14551
2.17	39.27612
2.1705	23.96851
2.171	2.81982
2.1715	-6.54602
2.172	-17.82532
2.1725	-27.99683
2.173	-45.11719
2.1735	-42.90161
2.174	-41.89453
2.1745	-36.95984
2.175	-34.74426
2.1755	-20.24231
2.176	-14.90479
2.1765	7.5531
2.177	12.99133
2.1775	29.30603
2.178	39.88037
2.1785	55.89294
2.179	64.55383
2.1795	62.74109
2.18	54.98657
2.1805	50.95825
2.181	44.71436
2.1815	41.79382
2.182	24.57275
2.1825	0.80566
2.183	-14.50195
2.1835	-21.85364
2.184	-25.47913
2.1845	-35.65063
2.185	-29.30603
2.1855	-19.94019
2.186	-22.55859
2.1865	-18.12744
2.187	-16.71753
2.1875	-10.57434
2.188	-14.50195
2.1885	-5.53894
2.189	-1.61133
2.1895	-2.92053
2.19	-4.02832
2.1905	0.20142
2.191	-19.83948
2.1915	-45.3186
2.192	-60.3241
2.1925	-67.27295
2.193	-67.57507
2.1935	-59.61914
2.194	-44.91577
2.1945	-18.53027
2.195	17.82532
2.1955	41.4917
2.196	50.45471
2.1965	57.70569
2.197	50.75684
2.1975	53.17383
2.198	63.64746
2.1985	63.54675
2.199	61.23047
2.1995	74.02039
2.2	98.19031
2.2005	101.21155
2.201	89.93225
2.2015	72.61047
2.202	64.151
2.2025	54.0802
2.203	48.54126
2.2035	56.90002
2.204	59.01489
2.2045	49.44763
2.205	34.24072
2.2055	9.56726
2.206	-11.78284
2.2065	-18.8324
2.207	-27.19116
2.2075	-36.55701
2.208	-43.50586
2.2085	-45.72144
2.209	-47.23206
2.2095	-49.14551
2.21	-40.1825
2.2105	-50.354
2.211	-105.03845
2.2115	-166.0675
2.212	-210.78186
2.2125	-210.58044
2.213	-188.72681
2.2135	-157.50732
2.214	-116.01562
2.2145	-70.59631
2.215	-39.98108
2.2155	-9.76868
2.216	32.22656
2.2165	77.54517
2.217	97.38464
2.2175	105.23987
2.218	107.35474
2.2185	113.80005
2.219	97.88818
2.2195	87.61597
2.22	81.57349
2.2205	85.40039
2.221	77.04163
2.2215	72.40906
2.222	56.09436
2.2225	48.84338
2.223	54.48303
2.2235	59.61914
2.224	52.771
2.2245	54.98657
2.225	59.92126
2.2255	64.65454
2.226	55.79224
2.2265	60.4248
2.227	56.09436
2.2275	59.51843
2.228	48.03772
2.2285	43.10303
2.229	31.92444
2.2295	27.39258
2.23	20.34302
2.2305	17.42249
2.231	16.01257
2.2315	11.88354
2.232	10.77576
2.2325	6.2439
2.233	2.81982
2.2335	6.54602
2.234	8.96301
2.2345	2.11487
2.235	-5.53894
2.2355	-6.14319
2.236	-11.48071
2.2365	-9.66797
2.237	-14.40125
2.2375	-17.42249
2.238	-26.68762
2.2385	-36.25488
2.239	-40.98816
2.2395	-79.96216
2.24	-113.29651
2.2405	-122.15881
2.241	-115.61279
2.2415	-100.20447
2.242	-84.89685
2.2425	-85.60181
2.243	-82.37915
2.2435	-66.6687
2.244	-47.33276
2.2445	-26.18408
2.245	-5.33752
2.2455	16.21399
2.246	15.50903
2.2465	-1.71204
2.247	-16.61682
2.2475	-23.8678
2.248	-14.40125
2.2485	-9.36584
2.249	-8.35876
2.2495	0
2.25	15.81116
2.2505	40.48462
2.251	70.19348
2.2515	86.30676
2.252	104.4342
2.2525	106.9519
2.253	90.13367
2.2535	91.54358
2.254	74.82605
2.2545	40.48462
2.255	8.15735
2.2555	-10.67505
2.256	-11.38
2.2565	-6.74744
2.257	-9.56726
2.2575	-15.00549
2.258	-12.5885
2.2585	-5.94177
2.259	5.0354
2.2595	22.25647
2.26	20.94727
2.2605	1.61133
2.261	-8.35876
2.2615	-4.53186
2.262	-4.63257
2.2625	-0.90637
2.263	4.93469
2.2635	10.37292
2.264	32.93152
2.2645	55.08728
2.265	61.53259
2.2655	63.14392
2.266	65.46021
2.2665	70.89844
2.267	66.6687
2.2675	57.9071
2.268	41.69312
2.2685	27.29187
2.269	3.92761
2.2695	-27.19116
2.27	-36.55701
2.2705	-27.49329
2.271	-7.95593
2.2715	-2.61841
2.272	-4.63257
2.2725	-1.3092
2.273	-1.61133
2.2735	8.7616
2.274	16.51611
2.2745	27.29187
2.275	25.07629
2.2755	29.10461
2.276	24.87488
2.2765	21.3501
2.277	23.76709
2.2775	30.71594
2.278	31.52161
2.2785	42.7002
2.279	46.12427
2.2795	41.59241
2.28	33.43506
2.2805	29.70886
2.281	16.01257
2.2815	-12.78992
2.282	-47.23206
2.2825	-67.57507
2.283	-78.14941
2.2835	-82.47986
2.284	-86.70959
2.2845	-77.948
2.285	-93.96057
2.2855	-110.07385
2.286	-110.27527
2.2865	-101.9165
2.287	-76.13525
2.2875	-45.2179
2.288	-16.11328
2.2885	11.88354
2.289	38.67188
2.2895	58.10852
2.29	61.73401
2.2905	68.48145
2.291	70.79773
2.2915	68.68286
2.292	60.82764
2.2925	56.29578
2.293	59.61914
2.2935	67.37366
2.294	78.55225
2.2945	73.41614
2.295	68.68286
2.2955	47.33276
2.296	24.37134
2.2965	5.63965
2.297	3.7262
2.2975	-11.88354
2.298	-42.49878
2.2985	-73.11401
2.299	-87.21313
2.2995	-86.91101
2.3	-69.99207
2.3005	-53.77808
2.301	-42.09595
2.3015	-18.53027
2.302	-12.78992
2.3025	-0.50354
2.303	13.29346
2.3035	16.21399
2.304	25.78125
2.3045	26.68762
2.305	19.83948
2.3055	-1.91345
2.306	-16.51611
2.3065	-29.80957
2.307	-29.00391
2.3075	-11.2793
2.308	7.65381
2.3085	8.35876
2.309	23.06213
2.3095	39.57825
2.31	43.20374
2.3105	32.7301
2.311	7.45239
2.3115	-6.14319
2.312	-10.97717
2.3125	-3.62549
2.313	12.89062
2.3135	24.27063
2.314	32.93152
2.3145	0.40283
2.315	-24.27063
2.3155	-27.49329
2.316	-27.39258
2.3165	-18.63098
2.317	-12.08496
2.3175	-11.98425
2.318	-5.84106
2.3185	21.65222
2.319	46.02356
2.3195	60.22339
2.32	59.1156
2.3205	54.38232
2.321	44.21082
2.3215	41.29028
2.322	38.974
2.3225	27.49329
2.323	20.34302
2.3235	20.44373
2.324	12.89062
2.3245	2.21558
2.325	5.23682
2.3255	11.78284
2.326	17.92603
2.3265	25.37842
2.327	22.6593
2.3275	33.03223
2.328	35.04639
2.3285	38.974
2.329	48.23914
2.3295	53.77808
2.33	46.42639
2.3305	32.42798
2.331	8.15735
2.3315	-12.89062
2.332	-17.52319
2.3325	-18.8324
2.333	-6.84814
2.3335	-2.5177
2.334	-2.31628
2.3345	-10.37292
2.335	0.20142
2.3355	1.51062
2.336	4.02832
2.3365	9.16443
2.337	12.08496
2.3375	13.99841
2.338	5.84106
2.3385	-1.40991
2.339	-4.63257
2.3395	-16.61682
2.34	-30.2124
2.3405	-43.00232
2.341	-30.81665
2.3415	-25.57983
2.342	-10.97717
2.3425	-1.00708
2.343	13.19275
2.3435	27.79541
2.344	30.41382
2.3445	38.87329
2.345	28.50037
2.3455	18.8324
2.346	-4.93469
2.3465	-9.86938
2.347	-17.72461
2.3475	-12.78992
2.348	-21.95435
2.3485	-27.19116
2.349	-24.97559
2.3495	-21.45081
2.35	-2.41699
2.3505	14.90479
2.351	18.12744
2.3515	27.6947
2.352	50.65613
2.3525	65.25879
2.353	63.74817
2.3535	61.53259
2.354	50.55542
2.3545	29.50745
2.355	17.82532
2.3555	11.38
2.356	6.94885
2.3565	3.8269
2.357	-14.09912
2.3575	-37.66479
2.358	-66.46729
2.3585	-74.42322
2.359	-75.02747
2.3595	-65.25879
2.36	-42.09595
2.3605	-25.98267
2.361	-13.29346
2.3615	-7.35168
2.362	-1.40991
2.3625	-4.53186
2.363	0.50354
2.3635	-12.18567
2.364	-46.32568
2.3645	-74.62463
2.365	-75.22888
2.3655	-65.3595
2.366	-71.60339
2.3665	-75.02747
2.367	-69.89136
2.3675	-51.26038
2.368	-26.48621
2.3685	-2.61841
2.369	22.96143
2.3695	38.57117
2.37	48.13843
2.3705	53.57666
2.371	64.151
2.3715	80.4657
2.372	88.72375
2.3725	101.41296
2.373	102.72217
2.3735	110.17456
2.374	97.28394
2.3745	89.328
2.375	72.40906
2.3755	70.09277
2.376	66.26587
2.3765	67.17224
2.377	56.29578
2.3775	36.65771
2.378	30.51453
2.3785	18.53027
2.379	17.01965
2.3795	17.32178
2.38	16.3147
2.3805	5.53894
2.381	4.43115
2.3815	-14.30054
2.382	-23.36426
2.3825	-22.25647
2.383	-15.40833
2.3835	-12.08496
2.384	-12.48779
2.3845	-7.85522
2.385	2.21558
2.3855	6.2439
2.386	17.6239
2.3865	27.29187
2.387	26.78833
2.3875	22.25647
2.388	13.19275
2.3885	3.32336
2.389	-10.97717
2.3895	-43.50586
2.39	-92.14783
2.3905	-102.01721
2.391	-94.86694
2.3915	-79.45862
2.392	-68.07861
2.3925	-53.57666
2.393	-49.34692
2.3935	-24.27063
2.394	6.2439
2.3945	15.50903
2.395	18.8324
2.3955	22.45789
2.396	30.61523
2.3965	35.44922
2.397	44.21082
2.3975	50.354
2.398	53.67737
2.3985	45.11719
2.399	29.10461
2.3995	32.22656
2.4	32.22656
2.4005	46.12427
2.401	69.38782
2.4015	89.63013
2.402	96.98181
2.4025	70.69702
2.403	46.62781
2.4035	28.09753
2.404	24.27063
2.4045	23.26355
2.405	25.37842
2.4055	25.37842
2.406	20.94727
2.4065	20.1416
2.407	9.56726
2.4075	-4.63257
2.408	-21.85364
2.4085	-33.9386
2.409	-54.78516
2.4095	-73.61755
2.41	-90.33508
2.4105	-92.44995
2.411	-85.40039
2.4115	-77.34375
2.412	-67.77649
2.4125	-54.58374
2.413	-49.24622
2.4135	-42.19666
2.414	-21.85364
2.4145	-14.70337
2.415	0
2.4155	12.68921
2.416	23.56567
2.4165	22.35718
2.417	18.22815
2.4175	-21.95435
2.418	-47.7356
2.4185	-56.69861
2.419	-51.96533
2.4195	-25.177
2.42	-5.53894
2.4205	-12.08496
2.421	-20.64514
2.4215	-22.35718
2.422	-22.6593
2.4225	-29.60815
2.423	-18.22815
2.4235	-10.0708
2.424	5.74036
2.4245	23.36426
2.425	26.3855
2.4255	29.91028
2.426	38.26904
2.4265	53.67737
2.427	52.06604
2.4275	62.13684
2.428	61.23047
2.4285	55.89294
2.429	38.26904
2.4295	28.60107
2.43	17.72461
2.4305	-19.53735
2.431	-47.93701
2.4315	-48.23914
2.432	-40.2832
2.4325	-45.52002
2.433	-55.2887
2.4335	-68.58215
2.434	-65.15808
2.4345	-49.54834
2.435	-40.98816
2.4355	-50.15259
2.436	-54.58374
2.4365	-60.82764
2.437	-40.08179
2.4375	-27.09045
2.438	-5.33752
2.4385	13.797
2.439	41.18958
2.4395	54.28162
2.44	66.26587
2.4405	64.75525
2.441	80.06287
2.4415	92.34924
2.442	99.09668
2.4425	107.15332
2.443	111.48376
2.4435	109.97314
2.444	108.56323
2.4445	104.73633
2.445	87.71667
2.4455	79.66003
2.446	76.03455
2.4465	77.948
2.447	94.3634
2.4475	89.42871
2.448	78.35083
2.4485	62.9425
2.449	46.32568
2.4495	35.04639
2.45	36.95984
2.4505	36.05347
2.451	35.65063
2.4515	34.34143
2.452	22.76001
2.4525	9.16443
2.453	-6.2439
2.4535	-9.06372
2.454	-9.46655
2.4545	-19.03381
2.455	-23.8678
2.4555	-30.61523
2.456	-21.45081
2.4565	-16.01257
2.457	-14.70337
2.4575	-24.57275
2.458	-24.37134
2.4585	-27.6947
2.459	-43.60657
2.4595	-44.51294
2.46	-40.78674
2.4605	-37.66479
2.461	-36.85913
2.4615	-25.177
2.462	-17.12036
2.4625	-6.54602
2.463	13.797
2.4635	17.82532
2.464	18.53027
2.4645	16.41541
2.465	18.73169
2.4655	23.06213
2.466	23.26355
2.4665	33.9386
2.467	41.18958
2.4675	45.62073
2.468	31.72302
2.4685	22.76001
2.469	-15.50903
2.4695	-42.09595
2.47	-61.83472
2.4705	-66.16516
2.471	-60.72693
2.4715	-49.54834
2.472	-41.08887
2.4725	-32.7301
2.473	-22.6593
2.4735	-8.56018
2.474	9.26514
2.4745	14.80408
2.475	28.9032
2.4755	33.03223
2.476	32.93152
2.4765	30.01099
2.477	27.49329
2.4775	23.56567
2.478	26.98975
2.4785	34.54285
2.479	32.62939
2.4795	34.64355
2.48	26.58691
2.4805	21.45081
2.481	23.36426
2.4815	12.5885
2.482	14.19983
2.4825	19.03381
2.483	19.03381
2.4835	19.63806
2.484	22.35718
2.4845	18.42957
2.485	12.18567
2.4855	5.23682
2.486	6.94885
2.4865	2.01416
2.487	8.45947
2.4875	10.57434
2.488	12.18567
2.4885	14.40125
2.489	14.60266
2.4895	8.15735
2.49	8.15735
2.4905	1.10779
2.491	0.50354
2.4915	-6.2439
2.492	-5.43823
2.4925	-0.60425
2.493	-3.22266
2.4935	-5.53894
2.494	-7.95593
2.4945	-17.92603
2.495	-36.4563
2.4955	-45.62073
2.496	-41.79382
2.4965	-43.70728
2.497	-45.11719
2.4975	-57.10144
2.498	-78.25012
2.4985	-96.37756
2.499	-93.96057
2.4995	-86.00464
2.5	-56.29578
2.5005	-40.38391
2.501	-29.00391
2.5015	-2.5177
2.502	6.04248
2.5025	16.11328
2.503	21.45081
2.5035	31.62231
2.504	35.75134
2.5045	41.69312
2.505	26.28479
2.5055	8.45947
2.506	-6.2439
2.5065	-12.48779
2.507	-7.75452
2.5075	-13.29346
2.508	-10.27222
2.5085	-7.04956
2.509	8.56018
2.5095	14.90479
2.51	21.55151
2.5105	34.14001
2.511	52.67029
2.5115	59.82056
2.512	54.58374
2.5125	62.43896
2.513	61.23047
2.5135	62.13684
2.514	58.10852
2.5145	45.52002
2.515	30.61523
2.5155	16.61682
2.516	3.22266
2.5165	-10.47363
2.517	-7.35168
2.5175	0.50354
2.518	3.92761
2.5185	22.15576
2.519	33.53577
2.5195	18.02673
2.52	-4.43115
2.5205	-11.78284
2.521	-11.38
2.5215	-4.22974
2.522	-2.5177
2.5225	5.33752
2.523	12.99133
2.5235	13.59558
2.524	30.31311
2.5245	39.57825
2.525	48.64197
2.5255	47.03064
2.526	53.47595
2.5265	57.50427
2.527	55.08728
2.5275	48.13843
2.528	38.36975
2.5285	40.88745
2.529	37.06055
2.5295	36.75842
2.53	29.40674
2.5305	10.97717
2.531	-3.92761
2.5315	-22.55859
2.532	-37.7655
2.5325	-41.59241
2.533	-63.04321
2.5335	-82.68127
2.534	-87.91809
2.5345	-86.8103
2.535	-80.96924
2.5355	-67.37366
2.536	-62.43896
2.5365	-54.78516
2.537	-50.2533
2.5375	-25.57983
2.538	-13.99841
2.5385	-4.02832
2.539	12.18567
2.5395	11.17859
2.54	20.94727
2.5405	21.95435
2.541	20.84656
2.5415	11.17859
2.542	6.54602
2.5425	6.74744
2.543	18.63098
2.5435	20.94727
2.544	23.36426
2.5445	26.18408
2.545	20.44373
2.5455	36.35559
2.546	48.03772
2.5465	59.1156
2.547	57.50427
2.5475	56.90002
2.548	57.40356
2.5485	49.34692
2.549	47.43347
2.5495	36.75842
2.55	39.27612
2.5505	33.43506
2.551	27.19116
2.5515	31.32019
2.552	26.28479
2.5525	33.33435
2.553	30.11169
2.5535	21.55151
2.554	9.06372
2.5545	9.16443
2.555	6.3446
2.5555	-1.71204
2.556	-5.0354
2.5565	-12.89062
2.557	-11.98425
2.5575	-14.09912
2.558	-18.22815
2.5585	-31.32019
2.559	-42.49878
2.5595	-45.72144
2.56	-44.11011
2.5605	-40.58533
2.561	-30.01099
2.5615	-22.55859
2.562	-23.66638
2.5625	-33.83789
2.563	-34.44214
2.5635	-45.92285
2.564	-59.41772
2.5645	-116.21704
2.565	-158.11157
2.5655	-176.44043
2.566	-177.24609
2.5665	-167.77954
2.567	-139.78271
2.5675	-108.05969
2.568	-79.96216
2.5685	-53.87878
2.569	-22.05505
2.5695	17.32178
2.57	33.43506
2.5705	64.95667
2.571	89.42871
2.5715	95.06836
2.572	100.30518
2.5725	95.87402
2.573	97.18323
2.5735	98.49243
2.574	111.68518
2.5745	113.80005
2.575	111.58447
2.5755	108.46252
2.576	116.61987
2.5765	124.97864
2.577	134.34448
2.5775	141.49475
2.578	135.75439
2.5785	115.81421
2.579	101.51367
2.5795	78.95508
2.58	55.69153
2.5805	38.974
2.581	34.03931
2.5815	18.32886
2.582	23.76709
2.5825	19.94019
2.583	11.17859
2.5835	9.26514
2.584	-2.21558
2.5845	-4.12903
2.585	-5.94177
2.5855	-6.74744
2.586	-5.33752
2.5865	-8.66089
2.587	-12.38708
2.5875	-15.30762
2.588	-14.30054
2.5885	-22.25647
2.589	-39.77966
2.5895	-50.55542
2.59	-44.81506
2.5905	-48.33984
2.591	-43.70728
2.5915	-36.55701
2.592	-29.10461
2.5925	-21.65222
2.593	-13.09204
2.5935	1.81274
2.594	2.11487
2.5945	6.94885
2.595	12.5885
2.5955	7.45239
2.596	7.45239
2.5965	6.2439
2.597	10.37292
2.5975	16.3147
2.598	10.37292
2.5985	0.60425
2.599	-1.81274
2.5995	-19.53735
2.6	-44.11011
2.6005	-68.88428
2.601	-126.9928
2.6015	-164.05334
2.602	-168.68591
2.6025	-169.89441
2.603	-153.98254
2.6035	-120.04395
2.604	-74.92676
2.6045	-29.30603
2.605	11.68213
2.6055	42.8009
2.606	69.28711
2.6065	85.09827
2.607	105.6427
2.6075	120.24536
2.608	110.17456
2.6085	86.8103
2.609	64.151
2.6095	55.2887
2.61	38.26904
2.6105	37.46338
2.611	31.52161
2.6115	33.73718
2.612	29.50745
2.6125	32.52869
2.613	31.11877
2.6135	34.14001
2.614	36.25488
2.6145	39.37683
2.615	33.33435
2.6155	26.08337
2.616	10.47363
2.6165	9.36584
2.617	8.8623
2.6175	1.71204
2.618	-2.71912
2.6185	-9.26514
2.619	-8.35876
2.6195	-14.40125
2.62	-22.76001
2.6205	-29.50745
2.621	-41.59241
2.6215	-63.64746
2.622	-74.92676
2.6225	-76.94092
2.623	-84.89685
2.6235	-70.19348
2.624	-55.2887
2.6245	-30.81665
2.625	-7.15027
2.6255	12.68921
2.626	30.2124
2.6265	41.4917
2.627	58.10852
2.6275	70.79773
2.628	92.24854
2.6285	93.25562
2.629	94.16199
2.6295	94.16199
2.63	71.30127
2.6305	71.60339
2.631	67.37366
2.6315	74.42322
2.632	77.04163
2.6325	69.99207
2.633	52.06604
2.6335	26.28479
2.634	25.68054
2.6345	20.64514
2.635	22.35718
2.6355	18.22815
2.636	10.0708
2.6365	12.18567
2.637	11.2793
2.6375	11.07788
2.638	6.64673
2.6385	2.5177
2.639	-0.40283
2.6395	11.58142
2.64	11.98425
2.6405	12.08496
2.641	6.74744
2.6415	7.04956
2.642	2.21558
2.6425	-3.7262
2.643	-1.40991
2.6435	-6.74744
2.644	-8.56018
2.6445	-24.67346
2.645	-37.46338
2.6455	-38.87329
2.646	-39.47754
2.6465	-34.14001
2.647	-29.40674
2.6475	-26.78833
2.648	-31.4209
2.6485	-27.19116
2.649	-20.1416
2.6495	-19.33594
2.65	-12.18567
2.6505	-12.68921
2.651	-0.50354
2.6515	-1.81274
2.652	12.5885
2.6525	2.31628
2.653	0.80566
2.6535	10.17151
2.654	12.28638
2.6545	21.65222
2.655	23.36426
2.6555	17.32178
2.656	16.01257
2.6565	28.60107
2.657	17.01965
2.6575	15.00549
2.658	7.95593
2.6585	1.40991
2.659	-7.75452
2.6595	-34.03931
2.66	-72.81189
2.6605	-114.20288
2.661	-139.07776
2.6615	-148.24219
2.662	-159.62219
2.6625	-165.86609
2.663	-157.40662
2.6635	-128.60413
2.664	-92.85278
2.6645	-45.52002
2.665	8.66089
2.6655	54.38232
2.666	89.42871
2.6665	107.25403
2.667	128.10059
2.6675	133.43811
2.668	125.68359
2.6685	133.03528
2.669	128.90625
2.6695	125.58289
2.67	115.00854
2.6705	96.37756
2.671	75.93384
2.6715	49.24622
2.672	26.68762
2.6725	6.64673
2.673	-13.797
2.6735	-28.09753
2.674	-34.44214
2.6745	-27.79541
2.675	-33.63647
2.6755	-24.16992
2.676	-11.98425
2.6765	-10.0708
2.677	-1.3092
2.6775	13.89771
2.678	13.49487
2.6785	25.78125
2.679	3.7262
2.6795	-30.51453
2.68	-57.00073
2.6805	-59.31702
2.681	-50.65613
2.6815	-41.89453
2.682	-15.00549
2.6825	-2.71912
2.683	-23.8678
2.6835	-37.46338
2.684	-44.51294
2.6845	-45.2179
2.685	-48.84338
2.6855	-30.01099
2.686	-4.33044
2.6865	23.96851
2.687	44.41223
2.6875	62.43896
2.688	80.26428
2.6885	91.34216
2.689	90.73792
2.6895	85.09827
2.69	84.39331
2.6905	80.86853
2.691	71.50269
2.6915	66.76941
2.692	69.1864
2.6925	63.14392
2.693	59.31702
2.6935	51.5625
2.694	50.95825
2.6945	41.89453
2.695	33.43506
2.6955	29.20532
2.696	33.33435
2.6965	28.9032
2.697	38.77258
2.6975	20.64514
2.698	0.30212
2.6985	-30.81665
2.699	-48.64197
2.6995	-50.45471
2.7	-43.70728
2.7005	-26.88904
2.701	-20.44373
2.7015	-27.6947
2.702	-35.95276
2.7025	-33.83789
2.703	-29.91028
2.7035	-27.49329
2.704	-47.43347
2.7045	-70.59631
2.705	-70.59631
2.7055	-70.59631
2.706	-70.59631
2.7065	-70.59631
2.707	-70.59631
2.7075	-70.59631
2.708	-70.59631
2.7085	-70.59631
2.709	-70.59631
2.7095	-70.59631
2.71	-70.59631
2.7105	-70.59631
2.711	-70.59631
2.7115	-70.59631
2.712	-70.59631
2.7125	-70.59631
2.713	-70.59631
2.7135	-70.59631
2.714	-70.59631
2.7145	-70.59631
2.715	-12.68921
2.7155	-25.37842
2.716	-33.63647
2.7165	-36.35559
2.717	-37.56409
2.7175	-50.45471
2.718	-54.98657
2.7185	-80.4657
2.719	-128.80554
2.7195	-176.94397
2.72	-193.35938
2.7205	-196.27991
2.721	-184.8999
2.7215	-157.30591
2.722	-121.9574
2.7225	-67.37366
2.723	-27.29187
2.7235	6.2439
2.724	24.06921
2.7245	30.91736
2.725	39.57825
2.7255	50.354
2.726	67.07153
2.7265	70.19348
2.727	79.76074
2.7275	95.77332
2.728	104.63562
2.7285	98.0896
2.729	87.21313
2.7295	83.18481
2.73	80.4657
2.7305	87.71667
2.731	95.67261
2.7315	88.52234
2.732	90.83862
2.7325	90.83862
2.733	85.5011
2.7335	61.33118
2.734	41.18958
2.7345	16.61682
2.735	-7.04956
2.7355	-48.33984
2.736	-111.68518
2.7365	-162.94556
2.737	-181.77795
2.7375	-177.14539
2.738	-161.63635
2.7385	-141.49475
2.739	-119.13757
2.7395	-94.56482
2.74	-73.31543
2.7405	-62.23755
2.741	-46.62781
2.7415	-32.22656
2.742	-25.57983
2.7425	-3.02124
2.743	17.42249
2.7435	19.73877
2.744	17.72461
2.7445	14.90479
2.745	23.8678
2.7455	56.5979
2.746	86.8103
2.7465	122.15881
2.747	140.8905
2.7475	154.88892
2.748	174.02344
2.7485	167.57812
2.749	149.45068
2.7495	127.69775
2.75	126.58997
2.7505	120.34607
2.751	113.90076
2.7515	90.03296
2.752	84.59473
2.7525	89.12659
2.753	79.2572
2.7535	66.06445
2.754	47.13135
2.7545	24.47205
2.755	-7.04956
2.7555	-25.177
2.756	-30.01099
2.7565	-43.80798
2.757	-44.0094
2.7575	-38.77258
2.758	-35.14709
2.7585	-34.74426
2.759	-32.83081
2.7595	-27.09045
2.76	-23.66638
2.7605	-34.34143
2.761	-48.54126
2.7615	-46.82922
2.762	-57.40356
2.7625	-70.79773
2.763	-79.86145
2.7635	-67.57507
2.764	-42.90161
2.7645	-16.3147
2.765	-5.0354
2.7655	2.01416
2.766	4.33044
2.7665	4.93469
2.767	-5.94177
2.7675	-11.07788
2.768	-17.52319
2.7685	-25.37842
2.769	-52.771
2.7695	-99.60022
2.77	-134.5459
2.7705	-168.38379
2.771	-180.06592
2.7715	-169.39087
2.772	-153.78113
2.7725	-139.88342
2.773	-129.61121
2.7735	-103.125
2.774	-51.76392
2.7745	-17.12036
2.775	22.6593
2.7755	64.25171
2.776	100.10376
2.7765	124.27368
2.777	140.78979
2.7775	154.88892
2.778	170.80078
2.7785	170.39795
2.779	172.10999
2.7795	157.40662
2.78	144.11316
2.7805	138.17139
2.781	154.28467
2.7815	157.00378
2.782	129.61121
2.7825	99.70093
2.783	68.98499
2.7835	55.99365
2.784	36.85913
2.7845	31.62231
2.785	22.96143
2.7855	27.19116
2.786	25.88196
2.7865	25.88196
2.787	5.74036
2.7875	-35.54993
2.788	-88.52234
2.7885	-135.45227
2.789	-163.85193
2.7895	-176.84326
2.79	-180.77087
2.7905	-217.93213
2.791	-270.09888
2.7915	-305.24597
2.792	-302.22473
2.7925	-262.64648
2.793	-234.44824
2.7935	-192.55371
2.794	-135.75439
2.7945	-82.68127
2.795	-45.82214
2.7955	-6.44531
2.796	25.78125
2.7965	77.44446
2.797	117.72766
2.7975	147.1344
2.798	180.36804
2.7985	179.76379
2.799	166.0675
2.7995	153.27759
2.8	144.01245
2.8005	132.12891
2.801	124.87793
2.8015	116.72058
2.802	91.44287
2.8025	74.52393
2.803	73.71826
2.8035	50.85754
2.804	47.93701
2.8045	45.11719
2.805	40.08179
2.8055	59.1156
2.806	87.61597
2.8065	115.81421
2.807	129.10767
2.8075	137.86926
2.808	143.20679
2.8085	149.55139
2.809	131.72607
2.8095	133.23669
2.81	124.67651
2.8105	113.80005
2.811	93.85986
2.8115	77.84729
2.812	70.19348
2.8125	52.06604
2.813	34.74426
2.8135	17.72461
2.814	-2.31628
2.8145	-18.02673
2.815	-0.40283
2.8155	19.43665
2.816	13.59558
2.8165	11.98425
2.817	15.50903
2.8175	5.0354
2.818	-9.26514
2.8185	-20.74585
2.819	-31.11877
2.8195	-46.5271
2.82	-45.72144
2.8205	-55.18799
2.821	-49.14551
2.8215	-47.43347
2.822	-55.3894
2.8225	-61.43188
2.823	-95.97473
2.8235	-150.45776
2.824	-188.52539
2.8245	-207.05566
2.825	-207.4585
2.8255	-179.46167
2.826	-138.3728
2.8265	-100.80872
2.827	-67.77649
2.8275	-43.30444
2.828	-15.30762
2.8285	4.12903
2.829	21.95435
2.8295	25.68054
2.83	27.09045
2.8305	26.18408
2.831	33.53577
2.8315	5.23682
2.832	-50.75684
2.8325	-117.62695
2.833	-168.68591
2.8335	-174.22485
2.834	-153.27759
2.8345	-110.98022
2.835	-58.51135
2.8355	5.53894
2.836	61.6333
2.8365	94.56482
2.837	121.15173
2.8375	154.18396
2.838	166.36963
2.8385	170.29724
2.839	177.64893
2.8395	179.8645
2.84	168.38379
2.8405	162.44202
2.841	139.5813
2.8415	120.24536
2.842	116.82129
2.8425	99.80164
2.843	88.52234
2.8435	91.24146
2.844	107.95898
2.8445	107.85828
2.845	101.31226
2.8455	64.55383
2.846	22.96143
2.8465	-7.95593
2.847	-16.41541
2.8475	-18.32886
2.848	-35.04639
2.8485	-47.53418
2.849	-39.47754
2.8495	-34.44214
2.85	-28.70178
2.8505	-17.22107
2.851	-15.20691
2.8515	-6.74744
2.852	4.43115
2.8525	10.57434
2.853	16.01257
2.8535	10.37292
2.854	12.89062
2.8545	9.56726
2.855	15.20691
2.8555	14.90479
2.856	4.83398
2.8565	-8.25806
2.857	-30.11169
2.8575	-41.18958
2.858	-48.64197
2.8585	-37.96692
2.859	-29.60815
2.8595	-19.94019
2.86	-39.17542
2.8605	-56.39648
2.861	-51.15967
2.8615	-43.40515
2.862	-23.56567
2.8625	-20.04089
2.863	-23.06213
2.8635	-21.45081
2.864	-19.13452
2.8645	-0.20142
2.865	-1.61133
2.8655	-10.0708
2.866	-17.42249
2.8665	-7.95593
2.867	-0.20142
2.8675	-7.15027
2.868	-1.91345
2.8685	-3.52478
2.869	2.41699
2.8695	2.21558
2.87	9.36584
2.8705	9.46655
2.871	10.87646
2.8715	17.72461
2.872	15.40833
2.8725	15.71045
2.873	16.3147
2.8735	6.74744
2.874	-1.40991
2.8745	-0.40283
2.875	1.3092
2.8755	-7.5531
2.876	-30.01099
2.8765	-52.8717
2.877	-58.10852
2.8775	-49.14551
2.878	-38.26904
2.8785	-22.96143
2.879	1.51062
2.8795	10.57434
2.88	8.45947
2.8805	8.15735
2.881	0.70496
2.8815	-30.01099
2.882	-79.45862
2.8825	-95.87402
2.883	-92.14783
2.8835	-74.42322
2.884	-66.16516
2.8845	-58.71277
2.885	-49.64905
2.8855	-48.33984
2.886	-31.82373
2.8865	-8.25806
2.887	11.2793
2.8875	42.8009
2.888	62.9425
2.8885	83.68835
2.889	105.54199
2.8895	119.23828
2.89	117.02271
2.8905	102.82288
2.891	92.24854
2.8915	95.47119
2.892	107.95898
2.8925	109.16748
2.893	102.72217
2.8935	104.53491
2.894	93.85986
2.8945	87.21313
2.895	64.05029
2.8955	39.17542
2.896	22.25647
2.8965	19.33594
2.897	11.98425
2.8975	0.70496
2.898	-39.47754
2.8985	-73.11401
2.899	-89.52942
2.8995	-97.38464
2.9	-82.68127
2.9005	-79.45862
2.901	-73.01331
2.9015	-50.65613
2.902	-21.14868
2.9025	7.35168
2.903	26.18408
2.9035	41.08887
2.904	41.08887
2.9045	31.11877
2.905	-3.8269
2.9055	-61.33118
2.906	-88.11951
2.9065	-88.22021
2.907	-73.91968
2.9075	-67.77649
2.908	-44.0094
2.9085	-27.99683
2.909	-20.04089
2.9095	4.63257
2.91	25.98267
2.9105	50.95825
2.911	64.05029
2.9115	67.17224
2.912	57.50427
2.9125	47.63489
2.913	45.52002
2.9135	42.7002
2.914	26.88904
2.9145	-8.45947
2.915	-35.65063
2.9155	-45.92285
2.916	-45.11719
2.9165	-24.37134
2.917	0
2.9175	34.34143
2.918	42.7002
2.9185	55.79224
2.919	52.36816
2.9195	53.97949
2.92	52.771
2.9205	38.57117
2.921	7.5531
2.9215	-23.56567
2.922	-51.66321
2.9225	-72.10693
2.923	-83.78906
2.9235	-68.58215
2.924	-53.97949
2.9245	-24.77417
2.925	-4.02832
2.9255	3.92761
2.926	30.91736
2.9265	62.03613
2.927	58.81348
2.9275	32.52869
2.928	18.73169
2.9285	21.65222
2.929	26.78833
2.9295	51.46179
2.93	55.49011
2.9305	55.08728
2.931	39.98108
2.9315	43.20374
2.932	57.20215
2.9325	63.04321
2.933	73.11401
2.9335	75.4303
2.934	84.89685
2.9345	96.37756
2.935	106.14624
2.9355	99.80164
2.936	89.42871
2.9365	78.45154
2.937	69.48853
2.9375	71.7041
2.938	63.24463
2.9385	73.01331
2.939	63.84888
2.9395	43.70728
2.94	27.59399
2.9405	17.6239
2.941	7.25098
2.9415	-11.17859
2.942	-35.85205
2.9425	-57.30286
2.943	-92.75208
2.9435	-113.69934
2.944	-120.7489
2.9445	-109.57031
2.945	-103.32642
2.9455	-103.125
2.946	-100.00305
2.9465	-81.37207
2.947	-61.02905
2.9475	-41.08887
2.948	-6.74744
2.9485	16.51611
2.949	33.73718
2.9495	46.72852
2.95	58.20923
2.9505	61.73401
2.951	58.41064
2.9515	54.88586
2.952	39.88037
2.9525	8.25806
2.953	-23.26355
2.9535	-62.8418
2.954	-76.53809
2.9545	-87.51526
2.955	-81.37207
2.9555	-66.97083
2.956	-43.40515
2.9565	-7.5531
2.957	24.87488
2.9575	42.8009
2.958	63.94958
2.9585	73.21472
2.959	76.13525
2.9595	72.71118
2.96	76.33667
2.9605	59.71985
2.961	50.95825
2.9615	30.51453
2.962	20.24231
2.9625	6.74744
2.963	2.71912
2.9635	-9.16443
2.964	2.5177
2.9645	-1.61133
2.965	-3.22266
2.9655	14.19983
2.966	29.70886
2.9665	66.16516
2.967	82.27844
2.9675	74.62463
2.968	78.25012
2.9685	61.02905
2.969	49.24622
2.9695	31.52161
2.97	25.47913
2.9705	18.93311
2.971	6.44531
2.9715	-16.3147
2.972	-44.41223
2.9725	-59.92126
2.973	-90.03296
2.9735	-126.9928
2.974	-152.47192
2.9745	-170.59937
2.975	-201.81885
2.9755	-210.88257
2.976	-205.84717
2.9765	-186.00769
2.977	-157.00378
2.9775	-131.12183
2.978	-97.78748
2.9785	-70.69702
2.979	-84.59473
2.9795	-68.48145
2.98	-36.55701
2.9805	-5.23682
2.981	30.51453
2.9815	68.17932
2.982	100.80872
2.9825	115.20996
2.983	119.13757
2.9835	118.33191
2.984	108.05969
2.9845	101.51367
2.985	84.19189
2.9855	71.7041
2.986	75.32959
2.9865	70.29419
2.987	54.68445
2.9875	40.98816
2.988	17.22107
2.9885	3.02124
2.989	-0.10071
2.9895	19.13452
2.99	28.80249
2.9905	27.49329
2.991	21.04797
2.9915	11.68213
2.992	0.60425
2.9925	-6.94885
2.993	-12.08496
2.9935	-21.14868
2.994	-15.20691
2.9945	-13.69629
2.995	18.02673
2.9955	27.59399
2.996	29.60815
2.9965	8.7616
2.997	8.25806
2.9975	-16.51611
2.998	-17.32178
2.9985	-9.86938
2.999	0.10071
2.9995	12.48779
3	21.04797
3.0005	32.93152
3.001	63.14392
3.0015	81.47278
3.002	81.47278
3.0025	58.71277
3.003	42.39807
3.0035	28.80249
3.004	21.24939
3.0045	16.71753
3.005	33.43506
3.0055	50.45471
3.006	66.36658
3.0065	76.94092
3.007	84.69543
3.0075	80.66711
3.008	71.30127
3.0085	62.23755
3.009	42.09595
3.0095	24.37134
3.01	15.20691
3.0105	9.46655
3.011	9.06372
3.0115	-2.81982
3.012	-14.40125
3.0125	-32.02515
3.013	-36.75842
3.0135	-20.44373
3.014	-3.02124
3.0145	11.68213
3.015	25.37842
3.0155	33.23364
3.016	26.08337
3.0165	8.8623
3.017	-0.30212
3.0175	-17.82532
3.018	-24.87488
3.0185	-28.60107
3.019	-33.03223
3.0195	-36.75842
3.02	-29.20532
3.0205	-12.78992
3.021	-0.50354
3.0215	5.53894
3.022	23.06213
3.0225	30.51453
3.023	31.11877
3.0235	3.42407
3.024	-39.27612
3.0245	-105.03845
3.025	-179.15955
3.0255	-239.38293
3.026	-268.28613
3.0265	-255.59692
3.027	-216.22009
3.0275	-149.45068
3.028	-95.97473
3.0285	-77.34375
3.029	-77.04163
3.0295	-45.2179
3.03	-4.22974
3.0305	35.85205
3.031	68.28003
3.0315	96.98181
3.032	136.56006
3.0325	166.16821
3.033	191.1438
3.0335	197.28699
3.034	197.99194
3.0345	195.87708
3.035	203.53088
3.0355	212.99744
3.036	202.4231
3.0365	168.4845
3.037	136.45935
3.0375	139.07776
3.038	140.38696
3.0385	116.82129
3.039	81.57349
3.0395	61.33118
3.04	51.5625
3.0405	35.14709
3.041	21.04797
3.0415	-6.54602
3.042	-31.62231
3.0425	-65.96375
3.043	-107.65686
3.0435	-152.67334
3.044	-212.69531
3.0445	-285.80933
3.045	-332.94067
3.0455	-348.349
3.046	-320.55359
3.0465	-259.92737
3.047	-179.46167
3.0475	-100.00305
3.048	-24.27063
3.0485	51.86462
3.049	112.18872
3.0495	168.18237
3.05	194.76929
3.0505	218.03284
3.051	218.13354
3.0515	196.07849
3.052	180.16663
3.0525	161.13281
3.053	151.36414
3.0535	129.10767
3.054	119.03687
3.0545	115.00854
3.055	93.85986
3.0555	61.73401
3.056	49.34692
3.0565	40.2832
3.057	15.1062
3.0575	-13.797
3.058	-41.89453
3.0585	-61.73401
3.059	-91.745
3.0595	-112.99438
3.06	-126.79138
3.0605	-122.46094
3.061	-111.48376
3.0615	-93.35632
3.062	-62.23755
3.0625	-33.03223
3.063	-13.59558
3.0635	-11.88354
3.064	-36.85913
3.0645	-63.84888
3.065	-66.16516
3.0655	-45.3186
3.066	-30.91736
3.0665	-15.1062
3.067	1.51062
3.0675	19.63806
3.068	51.76392
3.0685	83.48694
3.069	111.28235
3.0695	108.86536
3.07	85.70251
3.0705	56.49719
3.071	45.11719
3.0715	31.62231
3.072	-8.8623
3.0725	-87.01172
3.073	-164.05334
3.0735	-200.81177
3.074	-212.39319
3.0745	-192.65442
3.075	-160.22644
3.0755	-140.38696
3.076	-125.68359
3.0765	-122.96448
3.077	-85.5011
3.0775	-49.44763
3.078	-20.94727
3.0785	11.17859
3.079	39.47754
3.0795	54.98657
3.08	65.56091
3.0805	72.40906
3.081	83.28552
3.0815	106.54907
3.082	124.07227
3.0825	126.28784
3.083	135.04944
3.0835	150.15564
3.084	165.86609
3.0845	186.91406
3.085	205.34363
3.0855	187.4176
3.086	166.87317
3.0865	150.65918
3.087	121.35315
3.0875	121.65527
3.088	114.4043
3.0885	107.25403
3.089	94.76624
3.0895	88.72375
3.09	86.70959
3.0905	72.9126
3.091	55.3894
3.0915	43.60657
3.092	31.72302
3.0925	27.19116
3.093	12.68921
3.0935	-9.86938
3.094	-40.78674
3.0945	-65.05737
3.095	-91.34216
3.0955	-102.21863
3.096	-92.44995
3.0965	-90.03296
3.097	-100.20447
3.0975	-108.56323
3.098	-113.39722
3.0985	-101.9165
3.099	-89.328
3.0995	-94.06128
3.1	-87.71667
3.1005	-65.76233
3.101	-50.55542
3.1015	-46.92993
3.102	-47.8363
3.1025	-35.44922
3.103	-19.43665
3.1035	-40.68604
3.104	-53.17383
3.1045	-40.2832
3.105	-0.30212
3.1055	61.12976
3.106	92.55066
3.1065	112.39014
3.107	130.41687
3.1075	135.65369
3.108	134.34448
3.1085	131.62537
3.109	116.31775
3.1095	95.5719
3.11	63.14392
3.1105	27.6947
3.111	-16.11328
3.1115	-58.81348
3.112	-80.36499
3.1125	-78.55225
3.113	-64.75525
3.1135	-67.17224
3.114	-73.11401
3.1145	-81.17065
3.115	-73.31543
3.1155	-55.3894
3.116	-55.69153
3.1165	-53.17383
3.117	-39.17542
3.1175	-28.09753
3.118	-11.98425
3.1185	15.20691
3.119	34.44214
3.1195	31.82373
3.12	35.65063
3.1205	30.51453
3.121	36.15417
3.1215	37.06055
3.122	38.06763
3.1225	11.78284
3.123	-8.8623
3.1235	-13.19275
3.124	-21.14868
3.1245	-18.53027
3.125	-26.98975
3.1255	-25.68054
3.126	-28.50037
3.1265	-22.35718
3.127	-4.53186
3.1275	7.35168
3.128	-5.84106
3.1285	-87.21313
3.129	-155.49316
3.1295	-192.453
3.13	-193.35938
3.1305	-171.0022
3.131	-133.74023
3.1315	-74.92676
3.132	-33.83789
3.1325	8.56018
3.133	23.06213
3.1335	41.79382
3.134	71.50269
3.1345	94.66553
3.135	128.302
3.1355	144.11316
3.136	159.01794
3.1365	170.59937
3.137	163.95264
3.1375	146.22803
3.138	121.05103
3.1385	98.79456
3.139	78.45154
3.1395	68.88428
3.14	80.56641
3.1405	77.74658
3.141	60.52551
3.1415	51.15967
3.142	54.28162
3.1425	53.17383
3.143	43.30444
3.1435	39.88037
3.144	34.24072
3.1445	36.25488
3.145	35.75134
3.1455	32.42798
3.146	37.36267
3.1465	45.2179
3.147	58.91418
3.1475	62.9425
3.148	68.78357
3.1485	59.61914
3.149	44.71436
3.1495	37.96692
3.15	31.52161
3.1505	29.10461
3.151	23.06213
3.1515	25.78125
3.152	16.21399
3.1525	-14.09912
3.153	-58.81348
3.1535	-107.05261
3.154	-145.01953
3.1545	-169.7937
3.155	-151.26343
3.1555	-112.89368
3.156	-59.01489
3.1565	-27.89612
3.157	-17.22107
3.1575	-1.81274
3.158	8.96301
3.1585	22.05505
3.159	25.47913
3.1595	36.05347
3.16	48.23914
3.1605	41.08887
3.161	12.48779
3.1615	-3.12195
3.162	-5.74036
3.1625	-28.29895
3.163	-63.64746
3.1635	-90.93933
3.164	-147.94006
3.1645	-146.93298
3.165	-126.89209
3.1655	-84.49402
3.166	-53.97949
3.1665	-19.94019
3.167	-13.89771
3.1675	-28.60107
3.168	-46.72852
3.1685	-44.81506
3.169	-31.62231
3.1695	-6.94885
3.17	19.23523
3.1705	40.88745
3.171	64.151
3.1715	67.77649
3.172	57.10144
3.1725	55.99365
3.173	62.53967
3.1735	75.32959
3.174	89.42871
3.1745	88.92517
3.175	78.95508
3.1755	71.7041
3.176	71.7041
3.1765	61.53259
3.177	55.2887
3.1775	49.44763
3.178	29.40674
3.1785	-5.23682
3.179	-31.21948
3.1795	-34.74426
3.18	-58.61206
3.1805	-95.67261
3.181	-132.22961
3.1815	-153.479
3.182	-143.81104
3.1825	-116.922
3.183	-78.85437
3.1835	-32.93152
3.184	27.89612
3.1845	58.00781
3.185	55.49011
3.1855	3.7262
3.186	-74.42322
3.1865	-105.03845
3.187	-121.75598
3.1875	-107.45544
3.188	-82.68127
3.1885	-61.53259
3.189	-35.65063
3.1895	1.91345
3.19	38.36975
3.1905	80.76782
3.191	120.54749
3.1915	154.08325
3.192	172.51282
3.1925	169.89441
3.193	144.81812
3.1935	98.79456
3.194	40.88745
3.1945	-21.14868
3.195	-37.96692
3.1955	-5.43823
3.196	20.54443
3.1965	41.79382
3.197	63.24463
3.1975	60.22339
3.198	79.35791
3.1985	98.49243
3.199	123.36731
3.1995	112.08801
3.2	94.3634
3.2005	78.14941
3.201	55.3894
3.2015	42.39807
3.202	32.7301
3.2025	39.47754
3.203	56.5979
3.2035	63.34534
3.204	67.67578
3.2045	73.91968
3.205	72.50977
3.2055	68.78357
3.206	74.52393
3.2065	76.7395
3.207	62.43896
3.2075	43.90869
3.208	17.12036
3.2085	-9.06372
3.209	-49.54834
3.2095	-79.86145
3.21	-93.45703
3.2105	-109.4696
3.211	-116.21704
3.2115	-105.03845
3.212	-88.92517
3.2125	-79.86145
3.213	-83.99048
3.2135	-107.45544
3.214	-111.28235
3.2145	-102.72217
3.215	-91.24146
3.2155	-81.17065
3.216	-91.94641
3.2165	-124.97864
3.217	-149.55139
3.2175	-135.45227
3.218	-107.85828
3.2185	-59.82056
3.219	-12.08496
3.2195	-1.40991
3.22	16.01257
3.2205	35.54993
3.221	47.03064
3.2215	57.40356
3.222	64.151
3.2225	80.66711
3.223	74.62463
3.2235	56.49719
3.224	45.11719
3.2245	45.11719
3.225	76.84021
3.2255	94.76624
3.226	101.61438
3.2265	116.01562
3.227	137.56714
3.2275	124.57581
3.228	119.03687
3.2285	96.8811
3.229	39.88037
3.2295	-63.34534
3.23	-139.78271
3.2305	-186.1084
3.231	-198.99902
3.2315	-187.01477
3.232	-160.72998
3.2325	-114.505
3.233	-60.02197
3.2335	-1.00708
3.234	50.15259
3.2345	64.85596
3.235	59.1156
3.2355	67.57507
3.236	86.70959
3.2365	85.90393
3.237	65.05737
3.2375	52.46887
3.238	71.20056
3.2385	89.22729
3.239	94.76624
3.2395	107.95898
3.24	119.74182
3.2405	131.42395
3.241	154.48608
3.2415	151.66626
3.242	138.3728
3.2425	116.21704
3.243	95.5719
3.2435	72.9126
3.244	44.11011
3.2445	39.98108
3.245	29.70886
3.2455	22.76001
3.246	21.85364
3.2465	14.30054
3.247	-5.23682
3.2475	-25.177
3.248	-44.41223
3.2485	-66.56799
3.249	-68.78357
3.2495	-67.57507
3.25	-66.46729
3.2505	-56.90002
3.251	-42.49878
3.2515	-27.09045
3.252	-39.67896
3.2525	-67.37366
3.253	-81.97632
3.2535	-85.70251
3.254	-72.61047
3.2545	-48.33984
3.255	-21.95435
3.2555	-8.45947
3.256	9.06372
3.2565	38.26904
3.257	64.151
3.2575	80.4657
3.258	76.94092
3.2585	65.05737
3.259	59.92126
3.2595	40.08179
3.26	5.43823
3.2605	-50.65613
3.261	-88.32092
3.2615	-116.01562
3.262	-163.4491
3.2625	-191.94946
3.263	-175.33264
3.2635	-137.86926
3.264	-118.73474
3.2645	-104.3335
3.265	-87.51526
3.2655	-61.23047
3.266	-23.46497
3.2665	-2.92053
3.267	19.53735
3.2675	42.49878
3.268	67.57507
3.2685	81.47278
3.269	74.72534
3.2695	34.34143
3.27	12.48779
3.2705	6.64673
3.271	-22.05505
3.2715	-30.61523
3.272	-23.46497
3.2725	-0.80566
3.273	35.04639
3.2735	51.76392
3.274	62.03613
3.2745	78.55225
3.275	115.91492
3.2755	125.58289
3.276	124.17297
3.2765	92.14783
3.277	51.66321
3.2775	23.16284
3.278	-11.2793
3.2785	-61.43188
3.279	-79.45862
3.2795	-80.96924
3.28	-77.14233
3.2805	-58.91418
3.281	-23.8678
3.2815	9.56726
3.282	45.92285
3.2825	43.20374
3.283	6.14319
3.2835	-21.65222
3.284	-36.95984
3.2845	-59.51843
3.285	-63.84888
3.2855	-43.10303
3.286	-23.26355
3.2865	1.00708
3.287	33.13293
3.2875	51.46179
3.288	68.38074
3.2885	82.9834
3.289	83.28552
3.2895	84.89685
3.29	84.99756
3.2905	77.948
3.291	70.69702
3.2915	66.97083
3.292	56.39648
3.2925	58.51135
3.293	59.01489
3.2935	49.14551
3.294	-32.42798
3.2945	-182.18079
3.295	-284.60083
3.2955	-284.90295
3.296	-224.78027
3.2965	-164.15405
3.297	-93.35632
3.2975	-21.55151
3.298	50.55542
3.2985	116.21704
3.299	153.479
3.2995	172.00928
3.3	179.36096
3.3005	186.51123
3.301	169.29016
3.3015	165.56396
3.302	165.46326
3.3025	171.80786
3.303	172.71423
3.3035	165.86609
3.304	160.83069
3.3045	135.04944
3.305	116.51917
3.3055	117.32483
3.306	112.99438
3.3065	102.62146
3.307	88.42163
3.3075	63.44604
3.308	51.46179
3.3085	16.3147
3.309	-38.67188
3.3095	-87.31384
3.31	-125.38147
3.3105	-176.23901
3.311	-217.5293
3.3115	-229.21143
3.312	-235.45532
3.3125	-244.82117
3.313	-231.32629
3.3135	-195.37354
3.314	-150.65918
3.3145	-93.85986
3.315	-40.68604
3.3155	6.3446
3.316	46.22498
3.3165	76.33667
3.317	103.52783
3.3175	116.01562
3.318	113.69934
3.3185	116.11633
3.319	114.80713
3.3195	117.52625
3.32	125.7843
3.3205	130.92041
3.321	134.84802
3.3215	136.86218
3.322	122.36023
3.3225	88.0188
3.323	35.44922
3.3235	-17.01965
3.324	-77.54517
3.3245	-113.49792
3.325	-162.03918
3.3255	-223.47107
3.326	-243.10913
3.3265	-216.11938
3.327	-169.69299
3.3275	-117.12341
3.328	-86.10535
3.3285	-44.61365
3.329	-20.84656
3.3295	7.04956
3.33	38.26904
3.3305	56.09436
3.331	65.05737
3.3315	78.45154
3.332	75.32959
3.3325	60.02197
3.333	41.69312
3.3335	24.87488
3.334	9.26514
3.3345	8.15735
3.335	7.75452
3.3355	24.57275
3.336	54.38232
3.3365	79.76074
3.337	86.00464
3.3375	73.21472
3.338	49.34692
3.3385	33.33435
3.339	23.26355
3.3395	-6.84814
3.34	-29.70886
3.3405	-37.26196
3.341	-24.57275
3.3415	-27.19116
3.342	-25.78125
3.3425	1.51062
3.343	-10.27222
3.3435	-33.73718
3.344	-46.5271
3.3445	-50.85754
3.345	-51.86462
3.3455	-36.05347
3.346	-28.9032
3.3465	-10.17151
3.347	14.80408
3.3475	36.65771
3.348	63.44604
3.3485	87.21313
3.349	102.82288
3.3495	105.6427
3.35	109.57031
3.3505	119.13757
3.351	131.72607
3.3515	129.61121
3.352	115.51208
3.3525	101.61438
3.353	91.04004
3.3535	72.20764
3.354	75.32959
3.3545	87.31384
3.355	86.60889
3.3555	55.2887
3.356	36.4563
3.3565	12.38708
3.357	-33.23364
3.3575	-62.33826
3.358	-68.88428
3.3585	-70.89844
3.359	-95.16907
3.3595	-109.87244
3.36	-146.22803
3.3605	-162.54272
3.361	-157.60803
3.3615	-134.04236
3.362	-98.19031
3.3625	-73.61755
3.363	-53.97949
3.3635	-21.75293
3.364	1.10779
3.3645	-2.92053
3.365	-9.66797
3.3655	17.6239
3.366	34.14001
3.3665	31.32019
3.367	-15.00549
3.3675	-85.60181
3.368	-161.13281
3.3685	-218.53638
3.369	-215.61584
3.3695	-210.27832
3.37	-203.32947
3.3705	-187.01477
3.371	-165.16113
3.3715	-140.08484
3.372	-98.99597
3.3725	-67.37366
3.373	-30.61523
3.3735	-11.68213
3.374	12.38708
3.3745	58.91418
3.375	112.69226
3.3755	132.33032
3.376	132.93457
3.3765	142.19971
3.377	172.41211
3.3775	184.29565
3.378	175.33264
3.3785	170.49866
3.379	195.17212
3.3795	212.89673
3.38	184.09424
3.3805	148.4436
3.381	122.36023
3.3815	109.87244
3.382	95.06836
3.3825	80.26428
3.383	82.78198
3.3835	87.81738
3.384	111.18164
3.3845	96.98181
3.385	77.14233
3.3855	67.77649
3.386	79.86145
3.3865	87.51526
3.387	73.21472
3.3875	55.69153
3.388	43.10303
3.3885	58.91418
3.389	83.48694
3.3895	97.18323
3.39	88.42163
3.3905	86.50818
3.391	72.9126
3.3915	60.22339
3.392	58.61206
3.3925	52.97241
3.393	29.50745
3.3935	-13.59558
3.394	-74.42322
3.3945	-105.54199
3.395	-115.41138
3.3955	-115.31067
3.396	-104.3335
3.3965	-89.83154
3.397	-81.06995
3.3975	-87.11243
3.398	-83.68835
3.3985	-79.96216
3.399	-69.1864
3.3995	-97.08252
3.4	-142.90466
3.4005	-178.95813
3.401	-200.71106
3.4015	-226.19019
3.402	-261.33728
3.4025	-255.89905
3.403	-231.52771
3.4035	-202.5238
3.404	-190.23743
3.4045	-193.46008
3.405	-187.61902
3.4055	-192.85583
3.406	-213.19885
3.4065	-188.82751
3.407	-133.23669
3.4075	-82.17773
3.408	-15.91187
3.4085	92.85278
3.409	168.78662
3.4095	220.75195
3.41	271.6095
3.4105	323.77625
3.411	293.86597
3.4115	220.34912
3.412	165.36255
3.4125	150.25635
3.413	144.51599
3.4135	141.29333
3.414	148.24219
3.4145	142.30042
3.415	136.96289
3.4155	126.79138
3.416	115.61279
3.4165	99.09668
3.417	28.29895
3.4175	-30.71594
3.418	-57.20215
3.4185	-83.58765
3.419	-83.99048
3.4195	-90.63721
3.42	-72.40906
3.4205	-36.65771
3.421	1.10779
3.4215	20.04089
3.422	17.12036
3.4225	14.70337
3.423	-35.95276
3.4235	-77.948
3.424	-83.18481
3.4245	-55.69153
3.425	-22.15576
3.4255	13.39417
3.426	82.78198
3.4265	181.17371
3.427	283.79517
3.4275	315.31677
3.428	315.6189
3.4285	305.5481
3.429	244.92188
3.4295	147.33582
3.43	73.71826
3.4305	19.73877
3.431	-25.98267
3.4315	-49.85046
3.432	-57.00073
3.4325	-70.99915
3.433	-98.39172
3.4335	-117.62695
3.434	-92.04712
3.4345	-73.31543
3.435	-95.16907
3.4355	-140.58838
3.436	-167.88025
3.4365	-185.10132
3.437	-183.48999
3.4375	-168.18237
3.438	-133.94165
3.4385	-87.41455
3.439	-55.79224
3.4395	-15.50903
3.44	38.47046
3.4405	90.5365
3.441	102.62146
3.4415	102.21863
3.442	117.62695
3.4425	124.4751
3.443	118.13049
3.4435	104.03137
3.444	110.37598
3.4445	96.47827
3.445	54.0802
3.4455	-1.61133
3.446	-65.15808
3.4465	-110.27527
3.447	-116.21704
3.4475	-99.80164
3.448	-78.04871
3.4485	-56.90002
3.449	-44.11011
3.4495	-42.7002
3.45	-39.88037
3.4505	-26.48621
3.451	-6.74744
3.4515	21.3501
3.452	35.65063
3.4525	27.89612
3.453	19.94019
3.4535	13.59558
3.454	14.19983
3.4545	30.91736
3.455	47.8363
3.4555	72.71118
3.456	82.27844
3.4565	110.87952
3.457	159.42078
3.4575	148.84644
3.458	98.39172
3.4585	49.44763
3.459	10.37292
3.4595	-11.38
3.46	-38.57117
3.4605	-124.57581
3.461	-246.02966
3.4615	-353.08228
3.462	-401.62354
3.4625	-439.59045
3.463	-408.47168
3.4635	-363.05237
3.464	-299.10278
3.4645	-192.65442
3.465	-83.08411
3.4655	12.38708
3.466	111.18164
3.4665	209.77478
3.467	281.88171
3.4675	330.42297
3.468	350.56458
3.4685	377.15149
3.469	344.82422
3.4695	290.64331
3.47	256.10046
3.4705	258.31604
3.471	243.81409
3.4715	205.54504
3.472	187.82043
3.4725	159.21936
3.473	136.35864
3.4735	117.92908
3.474	50.45471
3.4745	-19.23523
3.475	-55.3894
3.4755	-63.54675
3.476	-66.76941
3.4765	-71.20056
3.477	-62.43896
3.4775	-37.06055
3.478	-13.49487
3.4785	12.99133
3.479	29.70886
3.4795	50.15259
3.48	70.79773
3.4805	63.64746
3.481	44.41223
3.4815	16.51611
3.482	-7.04956
3.4825	-24.77417
3.483	-43.90869
3.4835	-65.25879
3.484	-102.42004
3.4845	-124.37439
3.485	-100.30518
3.4855	-74.02039
3.486	-61.02905
3.4865	-51.96533
3.487	-51.05896
3.4875	-42.09595
3.488	-36.05347
3.4885	-26.68762
3.489	-9.86938
3.4895	5.43823
3.49	34.24072
3.4905	56.79932
3.491	46.92993
3.4915	-0.60425
3.492	-45.62073
3.4925	-50.85754
3.493	-53.17383
3.4935	-52.16675
3.494	-71.90552
3.4945	-74.72534
3.495	-70.89844
3.4955	-89.12659
3.496	-120.14465
3.4965	-121.35315
3.497	-102.62146
3.4975	-75.93384
3.498	-64.55383
3.4985	-59.51843
3.499	-56.90002
3.4995	-30.41382
3.5	0.60425
3.5005	17.52319
3.501	8.56018
3.5015	12.68921
3.502	22.96143
3.5025	1.3092
3.503	-5.23682
3.5035	5.63965
3.504	14.19983
3.5045	44.0094
3.505	87.31384
3.5055	102.01721
3.506	110.98022
3.5065	112.89368
3.507	150.75989
3.5075	175.53406
3.508	139.27917
3.5085	75.73242
3.509	36.15417
3.5095	11.88354
3.51	15.91187
3.5105	20.04089
3.511	34.34143
3.5115	52.67029
3.512	38.87329
3.5125	30.2124
3.513	37.06055
3.5135	51.66321
3.514	57.00073
3.5145	19.63806
3.515	-10.57434
3.5155	-16.01257
3.516	-12.68921
3.5165	-4.43115
3.517	14.60266
3.5175	52.97241
3.518	100.6073
3.5185	103.62854
3.519	75.73242
3.5195	26.18408
3.52	-1.91345
3.5205	-6.84814
3.521	-3.02124
3.5215	8.7616
3.522	1.3092
3.5225	-1.40991
3.523	9.16443
3.5235	24.27063
3.524	60.62622
3.5245	70.89844
3.525	74.72534
3.5255	69.48853
3.526	61.6333
3.5265	48.33984
3.527	22.35718
3.5275	3.7262
3.528	-15.50903
3.5285	-31.21948
3.529	-30.11169
3.5295	-15.1062
3.53	-4.83398
3.5305	-15.30762
3.531	-48.13843
3.5315	-97.58606
3.532	-123.97156
3.5325	-119.03687
3.533	-108.56323
3.5335	-102.72217
3.534	-90.23438
3.5345	-70.69702
3.535	-70.79773
3.5355	-63.14392
3.536	-75.32959
3.5365	-84.39331
3.537	-71.90552
3.5375	-57.50427
3.538	-30.51453
3.5385	-19.53735
3.539	-4.22974
3.5395	-2.71912
3.54	-11.58142
3.5405	-37.16125
3.541	-101.21155
3.5415	-117.52625
3.542	-100.80872
3.5425	-94.46411
3.543	-150.9613
3.5435	-171.40503
3.544	-129.81262
3.5445	-52.97241
3.545	20.74585
3.5455	68.38074
3.546	90.5365
3.5465	115.20996
3.547	145.12024
3.5475	168.88733
3.548	180.16663
3.5485	167.67883
3.549	146.32874
3.5495	123.87085
3.55	116.11633
3.5505	112.08801
3.551	102.01721
3.5515	96.7804
3.552	96.07544
3.5525	88.11951
3.553	82.9834
3.5535	77.54517
3.554	60.4248
3.5545	38.77258
3.555	4.02832
3.5555	-45.82214
3.556	-91.54358
3.5565	-126.18713
3.557	-178.15247
3.5575	-195.07141
3.558	-198.89832
3.5585	-172.81494
3.559	-130.41687
3.5595	-85.40039
3.56	-41.39099
3.5605	13.29346
3.561	63.54675
3.5615	70.49561
3.562	80.56641
3.5625	87.11243
3.563	89.02588
3.5635	93.75916
3.564	101.51367
3.5645	111.18164
3.565	123.56873
3.5655	98.69385
3.566	68.07861
3.5665	68.17932
3.567	57.50427
3.5675	-9.97009
3.568	-79.15649
3.5685	-139.48059
3.569	-158.61511
3.5695	-146.53015
3.57	-130.41687
3.5705	-118.2312
3.571	-100.70801
3.5715	-95.97473
3.572	-72.20764
3.5725	-33.13293
3.573	6.84814
3.5735	51.76392
3.574	80.4657
3.5745	82.17773
3.575	99.70093
3.5755	111.38306
3.576	134.5459
3.5765	160.02502
3.577	173.31848
3.5775	145.32166
3.578	114.00146
3.5785	115.51208
3.579	115.81421
3.5795	101.01013
3.58	46.92993
3.5805	-21.3501
3.581	-59.31702
3.5815	-86.40747
3.582	-93.25562
3.5825	-79.45862
3.583	-71.09985
3.5835	-80.26428
3.584	-74.82605
3.5845	-46.5271
3.585	-2.71912
3.5855	22.35718
3.586	33.33435
3.5865	44.41223
3.587	50.55542
3.5875	68.68286
3.588	87.71667
3.5885	101.8158
3.589	109.97314
3.5895	121.9574
3.59	135.45227
3.5905	121.15173
3.591	62.53967
3.5915	19.94019
3.592	-0.70496
3.5925	-16.3147
3.593	-32.62939
3.5935	-72.50977
3.594	-163.14697
3.5945	-211.88965
3.595	-224.27673
3.5955	-204.13513
3.596	-169.59229
3.5965	-145.22095
3.597	-146.83228
3.5975	-157.10449
3.598	-136.25793
3.5985	-120.54749
3.599	-106.44836
3.5995	-83.88977
3.6	-55.89294
3.6005	-15.20691
3.601	-25.78125
3.6015	-11.2793
3.602	27.49329
3.6025	53.57666
3.603	69.99207
3.6035	104.73633
3.604	168.28308
3.6045	211.18469
3.605	226.08948
3.6055	215.21301
3.606	198.59619
3.6065	146.22803
3.607	69.68994
3.6075	17.01965
3.608	-20.1416
3.6085	-52.771
3.609	-88.72375
3.6095	-71.20056
3.61	-24.67346
3.6105	12.68921
3.611	26.68762
3.6115	29.70886
3.612	59.61914
3.6125	91.8457
3.613	111.78589
3.6135	125.7843
3.614	134.84802
3.6145	116.01562
3.615	98.29102
3.6155	95.06836
3.616	88.11951
3.6165	76.13525
3.617	72.71118
3.6175	58.41064
3.618	67.17224
3.6185	85.40039
3.619	92.04712
3.6195	69.1864
3.62	49.34692
3.6205	17.01965
3.621	-1.81274
3.6215	-11.88354
3.622	-15.91187
3.6225	-17.42249
3.623	-24.27063
3.6235	-70.19348
3.624	-135.95581
3.6245	-155.09033
3.625	-144.21387
3.6255	-116.21704
3.626	-97.28394
3.6265	-88.42163
3.627	-109.97314
3.6275	-162.64343
3.628	-163.34839
3.6285	-127.59705
3.629	-77.948
3.6295	-34.24072
3.63	7.25098
3.6305	48.84338
3.631	69.68994
3.6315	97.78748
3.632	119.84253
3.6325	137.96997
3.633	138.97705
3.6335	124.4751
3.634	88.52234
3.6345	54.78516
3.635	24.77417
3.6355	-55.69153
3.636	-139.68201
3.6365	-210.78186
3.637	-245.52612
3.6375	-261.5387
3.638	-218.93921
3.6385	-149.04785
3.639	-65.25879
3.6395	18.63098
3.64	71.30127
3.6405	66.76941
3.641	74.82605
3.6415	99.3988
3.642	103.125
3.6425	98.89526
3.643	105.03845
3.6435	107.05261
3.644	111.58447
3.6445	109.77173
3.645	100.20447
3.6455	91.54358
3.646	52.16675
3.6465	15.81116
3.647	5.84106
3.6475	13.19275
3.648	17.01965
3.6485	13.59558
3.649	4.63257
3.6495	0
3.65	8.66089
3.6505	21.75293
3.651	52.46887
3.6515	50.75684
3.652	14.19983
3.6525	-62.74109
3.653	-189.43176
3.6535	-299.50562
3.654	-338.58032
3.6545	-334.04846
3.655	-279.96826
3.6555	-209.9762
3.656	-130.21545
3.6565	-50.55542
3.657	33.83789
3.6575	98.59314
3.658	154.88892
3.6585	187.71973
3.659	214.20593
3.6595	228.00293
3.66	223.47107
3.6605	224.98169
3.661	212.79602
3.6615	198.19336
3.662	186.71265
3.6625	165.46326
3.663	159.7229
3.6635	145.01953
3.664	100.70801
3.6645	41.89453
3.665	-0.20142
3.6655	-8.56018
3.666	-15.50903
3.6665	-38.16833
3.667	-99.90234
3.6675	-140.28625
3.668	-140.28625
3.6685	-124.67651
3.669	-110.6781
3.6695	-122.56165
3.67	-112.59155
3.6705	-110.77881
3.671	-123.06519
3.6715	-114.70642
3.672	-101.71509
3.6725	-84.69543
3.673	-75.53101
3.6735	-53.87878
3.674	-13.09204
3.6745	26.18408
3.675	39.67896
3.6755	68.07861
3.676	113.59863
3.6765	145.8252
3.677	147.94006
3.6775	97.98889
3.678	44.11011
3.6785	28.19824
3.679	42.49878
3.6795	84.99756
3.68	104.93774
3.6805	98.0896
3.681	62.33826
3.6815	45.11719
3.682	4.63257
3.6825	-28.60107
3.683	-28.50037
3.6835	-18.8324
3.684	-4.93469
3.6845	2.81982
3.685	-17.12036
3.6855	-32.22656
3.686	-25.177
3.6865	4.73328
3.687	22.45789
3.6875	9.66797
3.688	0.40283
3.6885	22.35718
3.689	42.09595
3.6895	54.0802
3.69	59.51843
3.6905	58.81348
3.691	59.41772
3.6915	56.29578
3.692	49.95117
3.6925	38.67188
3.693	23.96851
3.6935	12.99133
3.694	5.84106
3.6945	-4.22974
3.695	3.62549
3.6955	29.30603
3.696	37.06055
3.6965	5.74036
3.697	-31.21948
3.6975	-44.81506
3.698	-56.90002
3.6985	-46.92993
3.699	-23.8678
3.6995	-7.45239
3.7	-5.43823
3.7005	2.61841
3.701	17.12036
3.7015	25.88196
3.702	43.50586
3.7025	78.95508
3.703	83.18481
3.7035	82.9834
3.704	69.79065
3.7045	56.49719
3.705	50.75684
3.7055	50.45471
3.706	40.58533
3.7065	-11.38
3.707	-42.59949
3.7075	-68.58215
3.708	-82.9834
3.7085	-91.8457
3.709	-178.85742
3.7095	-216.22009
3.71	-205.0415
3.7105	-178.85742
3.711	-134.5459
3.7115	-78.55225
3.712	-12.18567
3.7125	36.85913
3.713	45.72144
3.7135	65.15808
3.714	65.96375
3.7145	52.56958
3.715	-4.73328
3.7155	-83.58765
3.716	-148.4436
3.7165	-171.80786
3.717	-178.85742
3.7175	-150.45776
3.718	-96.57898
3.7185	-64.45312
3.719	-52.26746
3.7195	-26.88904
3.72	17.82532
3.7205	56.69861
3.721	92.85278
3.7215	108.66394
3.722	137.0636
3.7225	171.20361
3.723	184.69849
3.7235	194.36646
3.724	190.33813
3.7245	168.98804
3.725	151.36414
3.7255	142.70325
3.726	159.21936
3.7265	163.5498
3.727	150.05493
3.7275	121.25244
3.728	98.0896
3.7285	64.35242
3.729	-5.84106
3.7295	-82.17773
3.73	-106.44836
3.7305	-86.91101
3.731	-105.54199
3.7315	-157.30591
3.732	-213.8031
3.7325	-204.43726
3.733	-167.88025
3.7335	-128.60413
3.734	-81.87561
3.7345	-30.81665
3.735	22.15576
3.7355	32.12585
3.736	28.80249
3.7365	0.60425
3.737	-16.51611
3.7375	-21.14868
3.738	21.55151
3.7385	68.28003
3.739	71.09985
3.7395	52.771
3.74	58.51135
3.7405	35.44922
3.741	21.3501
3.7415	41.89453
3.742	45.52002
3.7425	26.28479
3.743	26.58691
3.7435	35.85205
3.744	50.05188
3.7445	49.34692
3.745	59.82056
3.7455	60.92834
3.746	48.44055
3.7465	28.39966
3.747	15.20691
3.7475	22.35718
3.748	30.31311
3.7485	51.5625
3.749	66.97083
3.7495	97.88818
3.75	110.98022
3.7505	90.5365
3.751	53.87878
3.7515	48.44055
3.752	53.17383
3.7525	53.57666
3.753	39.47754
3.7535	11.2793
3.754	-19.13452
3.7545	-34.24072
3.755	-34.94568
3.7555	-17.72461
3.756	3.62549
3.7565	22.35718
3.757	26.28479
3.7575	45.82214
3.758	57.10144
3.7585	68.17932
3.759	63.74817
3.7595	57.60498
3.76	41.79382
3.7605	20.54443
3.761	8.35876
3.7615	13.19275
3.762	19.33594
3.7625	2.61841
3.763	-13.59558
3.7635	-46.22498
3.764	-77.54517
3.7645	-123.06519
3.765	-140.68909
3.7655	-137.16431
3.766	-167.67883
3.7665	-224.07532
3.767	-259.92737
3.7675	-278.75977
3.768	-292.55676
3.7685	-295.98083
3.769	-261.94153
3.7695	-217.63
3.77	-144.41528
3.7705	-69.89136
3.771	-16.01257
3.7715	14.50195
3.772	26.28479
3.7725	11.68213
3.773	-15.60974
3.7735	-23.8678
3.774	9.06372
3.7745	68.38074
3.775	93.75916
3.7755	89.12659
3.776	97.78748
3.7765	141.19263
3.777	199.70398
3.7775	240.59143
3.778	263.15002
3.7785	242.10205
3.779	215.71655
3.7795	194.66858
3.78	176.54114
3.7805	106.9519
3.781	-14.60266
3.7815	-93.75916
3.782	-147.63794
3.7825	-265.86914
3.783	-373.32458
3.7835	-414.81628
3.784	-384.8053
3.7845	-294.36951
3.785	-186.20911
3.7855	-59.21631
3.786	40.08179
3.7865	142.50183
3.787	207.35779
3.7875	251.77002
3.788	280.97534
3.7885	279.76685
3.789	272.31445
3.7895	246.33179
3.79	202.5238
3.7905	145.52307
3.791	120.64819
3.7915	87.41455
3.792	82.27844
3.7925	98.19031
3.793	140.78979
3.7935	181.97937
3.794	187.92114
3.7945	170.39795
3.795	152.1698
3.7955	137.16431
3.796	103.02429
3.7965	59.41772
3.797	24.87488
3.7975	6.14319
3.798	-17.6239
3.7985	-127.69775
3.799	-250.76294
3.7995	-343.51501
3.8	-383.19397
3.8005	-351.77307
3.801	-300.6134
3.8015	-224.67957
3.802	-139.98413
3.8025	-37.46338
3.803	50.65613
3.8035	113.29651
3.804	180.36804
3.8045	224.98169
3.805	237.77161
3.8055	227.6001
3.806	192.05017
3.8065	151.96838
3.807	115.61279
3.8075	88.0188
3.808	96.7804
3.8085	118.83545
3.809	113.69934
3.8095	110.17456
3.81	106.54907
3.8105	83.68835
3.811	59.82056
3.8115	32.62939
3.812	11.78284
3.8125	-9.76868
3.813	-20.64514
3.8135	-23.56567
3.814	-19.53735
3.8145	-19.43665
3.815	-30.71594
3.8155	-45.52002
3.816	-41.4917
3.8165	-50.15259
3.817	-92.44995
3.8175	-114.60571
3.818	-127.09351
3.8185	-121.45386
3.819	-108.96606
3.8195	-93.85986
3.82	-63.74817
3.8205	-35.54993
3.821	-23.06213
3.8215	-12.78992
3.822	-0.10071
3.8225	27.6947
3.823	35.2478
3.8235	22.96143
3.824	3.22266
3.8245	-2.11487
3.825	-0.50354
3.8255	-14.30054
3.826	-21.95435
3.8265	-28.50037
3.827	-27.89612
3.8275	-14.40125
3.828	-3.8269
3.8285	4.12903
3.829	12.68921
3.8295	40.1825
3.83	49.64905
3.8305	39.88037
3.831	21.45081
3.8315	25.47913
3.832	17.01965
3.8325	-30.61523
3.833	-48.74268
3.8335	-78.04871
3.834	-86.50818
3.8345	-116.21704
3.835	-180.06592
3.8355	-256.10046
3.836	-301.41907
3.8365	-293.56384
3.837	-255.69763
3.8375	-210.47974
3.838	-160.62927
3.8385	-114.20288
3.839	-89.93225
3.8395	-78.85437
3.84	-63.34534
3.8405	-52.46887
3.841	-28.80249
3.8415	19.63806
3.842	62.13684
3.8425	94.16199
3.843	142.90466
3.8435	168.88733
3.844	166.67175
3.8445	135.35156
3.845	72.9126
3.8455	-9.06372
3.846	-29.91028
3.8465	-11.58142
3.847	6.74744
3.8475	30.31311
3.848	65.66162
3.8485	106.14624
3.849	132.93457
3.8495	171.50574
3.85	220.44983
3.8505	270.50171
3.851	251.5686
3.8515	205.64575
3.852	167.88025
3.8525	133.53882
3.853	69.58923
3.8535	29.91028
3.854	34.44214
