Alex_Venditti_Right_2.c3d  



Time(s):	A_L_bicipite(μV):
0	6.04248
0.0005	8.05664
0.001	7.85522
0.0015	5.53894
0.002	5.53894
0.0025	4.33044
0.003	3.92761
0.0035	1.71204
0.004	9.46655
0.0045	9.66797
0.005	10.77576
0.0055	3.62549
0.006	4.53186
0.0065	8.45947
0.007	5.43823
0.0075	11.98425
0.008	1.40991
0.0085	4.43115
0.009	1.51062
0.0095	2.5177
0.01	4.22974
0.0105	1.61133
0.011	3.02124
0.0115	1.3092
0.012	5.74036
0.0125	2.92053
0.013	1.71204
0.0135	3.42407
0.014	-1.61133
0.0145	1.81274
0.015	2.61841
0.0155	5.13611
0.016	0
0.0165	4.93469
0.017	4.83398
0.0175	4.83398
0.018	5.43823
0.0185	9.56726
0.019	5.84106
0.0195	3.8269
0.02	5.13611
0.0205	9.56726
0.021	16.21399
0.0215	6.74744
0.022	5.63965
0.0225	6.54602
0.023	3.8269
0.0235	6.44531
0.024	13.89771
0.0245	10.37292
0.025	8.25806
0.0255	1.51062
0.026	7.15027
0.0265	2.81982
0.027	7.45239
0.0275	7.75452
0.028	1.71204
0.0285	9.97009
0.029	4.33044
0.0295	6.44531
0.03	4.43115
0.0305	1.10779
0.031	5.43823
0.0315	10.47363
0.032	7.95593
0.0325	8.66089
0.033	7.04956
0.0335	3.12195
0.034	3.02124
0.0345	4.83398
0.035	4.22974
0.0355	2.31628
0.036	0.60425
0.0365	5.33752
0.037	6.3446
0.0375	6.84814
0.038	6.64673
0.0385	-0.40283
0.039	2.71912
0.0395	6.74744
0.04	3.42407
0.0405	7.25098
0.041	0.10071
0.0415	8.05664
0.042	4.93469
0.0425	3.02124
0.043	-2.41699
0.0435	9.06372
0.044	0.50354
0.0445	4.22974
0.045	3.32336
0.0455	0
0.046	1.3092
0.0465	3.12195
0.047	3.7262
0.0475	0.80566
0.048	3.42407
0.0485	4.83398
0.049	1.2085
0.0495	1.2085
0.05	-2.21558
0.0505	-3.52478
0.051	0.30212
0.0515	0.50354
0.052	3.32336
0.0525	2.41699
0.053	2.31628
0.0535	5.23682
0.054	9.26514
0.0545	6.94885
0.055	4.22974
0.0555	3.8269
0.056	12.78992
0.0565	12.5885
0.057	9.97009
0.0575	8.96301
0.058	8.56018
0.0585	3.92761
0.059	2.71912
0.0595	4.93469
0.06	6.2439
0.0605	6.74744
0.061	3.7262
0.0615	5.0354
0.062	3.8269
0.0625	4.33044
0.063	8.05664
0.0635	4.63257
0.064	-1.10779
0.0645	5.94177
0.065	6.64673
0.0655	1.00708
0.066	3.22266
0.0665	4.12903
0.067	2.81982
0.0675	2.41699
0.068	1.3092
0.0685	6.14319
0.069	5.84106
0.0695	8.25806
0.07	3.02124
0.0705	10.87646
0.071	4.63257
0.0715	7.5531
0.072	5.13611
0.0725	10.47363
0.073	8.05664
0.0735	4.22974
0.074	6.04248
0.0745	5.0354
0.075	4.83398
0.0755	3.32336
0.076	8.35876
0.0765	6.94885
0.077	1.2085
0.0775	1.71204
0.078	4.73328
0.0785	5.63965
0.079	7.5531
0.0795	4.43115
0.08	8.96301
0.0805	5.74036
0.081	7.75452
0.0815	7.04956
0.082	5.0354
0.0825	9.26514
0.083	8.15735
0.0835	4.73328
0.084	3.02124
0.0845	7.5531
0.085	-0.30212
0.0855	2.71912
0.086	1.2085
0.0865	-0.20142
0.087	3.92761
0.0875	-2.21558
0.088	1.81274
0.0885	2.61841
0.089	2.81982
0.0895	3.42407
0.09	2.71912
0.0905	5.63965
0.091	-0.90637
0.0915	1.81274
0.092	6.2439
0.0925	2.5177
0.093	8.25806
0.0935	4.83398
0.094	6.14319
0.0945	11.48071
0.095	5.43823
0.0955	6.3446
0.096	2.41699
0.0965	7.85522
0.097	2.71912
0.0975	5.0354
0.098	7.75452
0.0985	2.5177
0.099	5.94177
0.0995	4.02832
0.1	5.33752
0.1005	6.2439
0.101	5.53894
0.1015	9.16443
0.102	8.15735
0.1025	10.57434
0.103	11.78284
0.1035	12.48779
0.104	7.65381
0.1045	5.33752
0.105	4.93469
0.1055	6.04248
0.106	3.7262
0.1065	2.71912
0.107	6.94885
0.1075	5.84106
0.108	6.54602
0.1085	1.2085
0.109	2.81982
0.1095	3.12195
0.11	-1.61133
0.1105	1.71204
0.111	2.81982
0.1115	2.11487
0.112	5.94177
0.1125	3.12195
0.113	8.66089
0.1135	7.85522
0.114	5.63965
0.1145	6.3446
0.115	4.02832
0.1155	4.02832
0.116	9.06372
0.1165	7.75452
0.117	-0.60425
0.1175	1.3092
0.118	3.42407
0.1185	0.80566
0.119	3.52478
0.1195	0.40283
0.12	5.84106
0.1205	7.65381
0.121	3.02124
0.1215	-1.10779
0.122	-0.50354
0.1225	0.10071
0.123	4.63257
0.1235	0.90637
0.124	2.61841
0.1245	3.12195
0.125	3.12195
0.1255	1.3092
0.126	6.04248
0.1265	1.40991
0.127	-1.2085
0.1275	3.7262
0.128	8.45947
0.1285	4.53186
0.129	6.94885
0.1295	7.65381
0.13	5.94177
0.1305	11.88354
0.131	7.04956
0.1315	11.78284
0.132	4.02832
0.1325	4.63257
0.133	4.83398
0.1335	7.35168
0.134	11.2793
0.1345	10.17151
0.135	11.98425
0.1355	8.05664
0.136	7.04956
0.1365	6.54602
0.137	5.63965
0.1375	4.73328
0.138	9.16443
0.1385	14.09912
0.139	5.33752
0.1395	4.73328
0.14	2.81982
0.1405	3.62549
0.141	4.43115
0.1415	0.20142
0.142	5.43823
0.1425	6.54602
0.143	7.25098
0.1435	1.00708
0.144	0.60425
0.1445	-2.92053
0.145	5.53894
0.1455	7.65381
0.146	-0.10071
0.1465	1.61133
0.147	9.06372
0.1475	7.25098
0.148	6.74744
0.1485	2.81982
0.149	8.8623
0.1495	5.84106
0.15	3.92761
0.1505	4.53186
0.151	6.94885
0.1515	5.43823
0.152	2.81982
0.1525	8.35876
0.153	3.22266
0.1535	3.62549
0.154	8.35876
0.1545	6.54602
0.155	4.73328
0.1555	4.12903
0.156	5.43823
0.1565	6.14319
0.157	4.22974
0.1575	4.63257
0.158	0.30212
0.1585	6.14319
0.159	5.13611
0.1595	10.97717
0.16	1.71204
0.1605	5.0354
0.161	3.12195
0.1615	3.62549
0.162	7.04956
0.1625	6.64673
0.163	7.65381
0.1635	11.58142
0.164	6.3446
0.1645	6.54602
0.165	6.74744
0.1655	10.37292
0.166	8.15735
0.1665	5.23682
0.167	3.8269
0.1675	4.33044
0.168	0.70496
0.1685	7.25098
0.169	5.53894
0.1695	3.8269
0.17	3.12195
0.1705	6.14319
0.171	1.71204
0.1715	-0.30212
0.172	6.74744
0.1725	2.71912
0.173	5.74036
0.1735	6.2439
0.174	10.37292
0.1745	1.91345
0.175	2.92053
0.1755	5.74036
0.176	9.06372
0.1765	4.22974
0.177	1.61133
0.1775	3.22266
0.178	-0.20142
0.1785	2.01416
0.179	2.5177
0.1795	0.20142
0.18	2.5177
0.1805	4.63257
0.181	5.74036
0.1815	2.21558
0.182	1.91345
0.1825	8.66089
0.183	3.62549
0.1835	3.52478
0.184	5.94177
0.1845	10.37292
0.185	3.22266
0.1855	2.5177
0.186	1.2085
0.1865	6.54602
0.187	4.53186
0.1875	2.92053
0.188	2.5177
0.1885	5.13611
0.189	2.31628
0.1895	7.65381
0.19	3.92761
0.1905	5.74036
0.191	2.92053
0.1915	3.52478
0.192	-3.02124
0.1925	3.62549
0.193	5.43823
0.1935	2.31628
0.194	2.5177
0.1945	0.10071
0.195	5.23682
0.1955	2.01416
0.196	11.48071
0.1965	8.35876
0.197	4.53186
0.1975	5.63965
0.198	5.23682
0.1985	12.5885
0.199	2.81982
0.1995	4.83398
0.2	4.33044
0.2005	9.16443
0.201	5.23682
0.2015	7.65381
0.202	6.2439
0.2025	5.94177
0.203	10.87646
0.2035	6.74744
0.204	6.44531
0.2045	-0.30212
0.205	4.33044
0.2055	2.5177
0.206	2.11487
0.2065	4.33044
0.207	3.32336
0.2075	6.04248
0.208	8.66089
0.2085	7.04956
0.209	7.95593
0.2095	6.14319
0.21	3.92761
0.2105	2.71912
0.211	3.52478
0.2115	2.5177
0.212	0.50354
0.2125	1.00708
0.213	2.31628
0.2135	4.93469
0.214	4.53186
0.2145	3.02124
0.215	1.91345
0.2155	5.74036
0.216	10.67505
0.2165	3.12195
0.217	5.13611
0.2175	3.22266
0.218	0
0.2185	3.32336
0.219	4.12903
0.2195	3.52478
0.22	2.41699
0.2205	7.15027
0.221	3.92761
0.2215	7.5531
0.222	5.23682
0.2225	5.94177
0.223	9.56726
0.2235	8.25806
0.224	7.45239
0.2245	6.44531
0.225	7.85522
0.2255	7.5531
0.226	8.45947
0.2265	5.84106
0.227	6.74744
0.2275	4.63257
0.228	8.96301
0.2285	4.12903
0.229	6.2439
0.2295	5.74036
0.23	7.75452
0.2305	7.15027
0.231	7.5531
0.2315	1.81274
0.232	7.75452
0.2325	9.06372
0.233	3.32336
0.2335	8.35876
0.234	9.26514
0.2345	14.30054
0.235	10.57434
0.2355	6.04248
0.236	6.44531
0.2365	10.67505
0.237	9.76868
0.2375	9.46655
0.238	6.04248
0.2385	6.14319
0.239	4.73328
0.2395	6.14319
0.24	0.50354
0.2405	7.15027
0.241	9.76868
0.2415	5.43823
0.242	4.53186
0.2425	-0.20142
0.243	5.33752
0.2435	9.26514
0.244	9.26514
0.2445	7.5531
0.245	10.87646
0.2455	11.68213
0.246	9.26514
0.2465	12.28638
0.247	4.02832
0.2475	5.63965
0.248	-1.10779
0.2485	5.33752
0.249	8.56018
0.2495	5.43823
0.25	6.74744
0.2505	11.48071
0.251	6.04248
0.2515	5.63965
0.252	6.54602
0.2525	2.11487
0.253	12.38708
0.2535	6.2439
0.254	8.8623
0.2545	8.15735
0.255	4.22974
0.2555	2.41699
0.256	6.64673
0.2565	5.33752
0.257	11.58142
0.2575	7.85522
0.258	6.04248
0.2585	4.53186
0.259	5.94177
0.2595	3.62549
0.26	1.71204
0.2605	5.23682
0.261	5.0354
0.2615	8.7616
0.262	3.92761
0.2625	3.92761
0.263	4.93469
0.2635	10.27222
0.264	9.86938
0.2645	14.19983
0.265	11.2793
0.2655	5.43823
0.266	4.12903
0.2665	4.12903
0.267	7.25098
0.2675	2.5177
0.268	4.83398
0.2685	0.30212
0.269	-1.81274
0.2695	1.51062
0.27	1.10779
0.2705	3.92761
0.271	0.10071
0.2715	8.35876
0.272	5.43823
0.2725	5.94177
0.273	8.05664
0.2735	2.5177
0.274	0.60425
0.2745	8.7616
0.275	4.02832
0.2755	3.32336
0.276	7.75452
0.2765	2.01416
0.277	2.61841
0.2775	4.43115
0.278	5.94177
0.2785	5.23682
0.279	2.31628
0.2795	7.35168
0.28	7.15027
0.2805	2.11487
0.281	1.61133
0.2815	10.47363
0.282	3.7262
0.2825	6.2439
0.283	4.33044
0.2835	4.02832
0.284	1.10779
0.2845	3.7262
0.285	3.52478
0.2855	7.45239
0.286	5.63965
0.2865	8.35876
0.287	5.0354
0.2875	2.31628
0.288	1.51062
0.2885	4.02832
0.289	2.01416
0.2895	4.63257
0.29	3.7262
0.2905	2.92053
0.291	0.30212
0.2915	2.5177
0.292	-4.12903
0.2925	7.95593
0.293	6.2439
0.2935	10.87646
0.294	4.73328
0.2945	8.56018
0.295	11.38
0.2955	9.86938
0.296	12.18567
0.2965	7.65381
0.297	10.47363
0.2975	7.15027
0.298	5.84106
0.2985	7.5531
0.299	7.35168
0.2995	6.3446
0.3	1.91345
0.3005	6.64673
0.301	5.0354
0.3015	12.08496
0.302	6.64673
0.3025	2.81982
0.303	2.21558
0.3035	4.93469
0.304	6.2439
0.3045	3.12195
0.305	5.23682
0.3055	-2.81982
0.306	2.41699
0.3065	-0.60425
0.307	3.8269
0.3075	9.16443
0.308	1.10779
0.3085	6.94885
0.309	4.53186
0.3095	7.5531
0.31	5.63965
0.3105	2.61841
0.311	6.44531
0.3115	10.37292
0.312	5.43823
0.3125	9.97009
0.313	7.85522
0.3135	5.43823
0.314	5.23682
0.3145	10.87646
0.315	12.48779
0.3155	9.16443
0.316	1.51062
0.3165	5.43823
0.317	7.95593
0.3175	11.68213
0.318	4.93469
0.3185	2.41699
0.319	5.94177
0.3195	4.83398
0.32	4.02832
0.3205	0.40283
0.321	5.74036
0.3215	3.52478
0.322	7.45239
0.3225	5.33752
0.323	4.22974
0.3235	3.52478
0.324	2.31628
0.3245	3.22266
0.325	0.20142
0.3255	7.5531
0.326	3.52478
0.3265	6.14319
0.327	8.05664
0.3275	6.2439
0.328	1.81274
0.3285	3.7262
0.329	10.27222
0.3295	4.22974
0.33	2.5177
0.3305	5.33752
0.331	4.43115
0.3315	9.26514
0.332	6.94885
0.3325	1.00708
0.333	3.22266
0.3335	1.2085
0.334	5.13611
0.3345	2.81982
0.335	-0.70496
0.3355	3.32336
0.336	2.21558
0.3365	-2.92053
0.337	-0.30212
0.3375	3.7262
0.338	8.96301
0.3385	9.97009
0.339	9.76868
0.3395	9.76868
0.34	3.12195
0.3405	5.33752
0.341	9.16443
0.3415	7.95593
0.342	7.75452
0.3425	3.8269
0.343	4.83398
0.3435	5.63965
0.344	7.45239
0.3445	8.56018
0.345	2.71912
0.3455	3.92761
0.346	7.95593
0.3465	2.61841
0.347	5.23682
0.3475	12.5885
0.348	21.85364
0.3485	33.23364
0.349	34.34143
0.3495	30.2124
0.35	25.88196
0.3505	29.10461
0.351	23.26355
0.3515	26.28479
0.352	25.98267
0.3525	27.99683
0.353	23.06213
0.3535	13.797
0.354	18.22815
0.3545	21.55151
0.355	22.25647
0.3555	18.12744
0.356	19.03381
0.3565	19.43665
0.357	15.71045
0.3575	23.06213
0.358	24.77417
0.3585	28.29895
0.359	21.04797
0.3595	22.55859
0.36	17.22107
0.3605	24.47205
0.361	34.24072
0.3615	28.80249
0.362	25.177
0.3625	13.09204
0.363	7.35168
0.3635	1.2085
0.364	-6.64673
0.3645	-8.7616
0.365	-10.0708
0.3655	-12.18567
0.366	-17.92603
0.3665	-22.76001
0.367	-29.00391
0.3675	-27.09045
0.368	-28.60107
0.3685	-34.44214
0.369	-31.92444
0.3695	-34.44214
0.37	-33.33435
0.3705	-5.43823
0.371	15.1062
0.3715	24.37134
0.372	27.49329
0.3725	40.98816
0.373	43.70728
0.3735	38.974
0.374	30.91736
0.3745	25.98267
0.375	21.14868
0.3755	2.11487
0.376	-2.61841
0.3765	-18.93311
0.377	-27.19116
0.3775	-37.56409
0.378	-40.38391
0.3785	-48.84338
0.379	-55.08728
0.3795	-53.07312
0.38	-60.92834
0.3805	-62.43896
0.381	-62.43896
0.3815	-62.43896
0.382	-62.43896
0.3825	-62.43896
0.383	-62.43896
0.3835	-62.43896
0.384	-62.43896
0.3845	-62.43896
0.385	-62.43896
0.3855	-62.43896
0.386	-62.43896
0.3865	-62.43896
0.387	-62.43896
0.3875	-62.43896
0.388	-62.43896
0.3885	-62.43896
0.389	-62.43896
0.3895	-62.43896
0.39	-62.43896
0.3905	-62.43896
0.391	18.63098
0.3915	16.3147
0.392	15.40833
0.3925	12.28638
0.393	11.48071
0.3935	13.59558
0.394	7.45239
0.3945	5.63965
0.395	4.02832
0.3955	10.27222
0.396	6.2439
0.3965	8.35876
0.397	15.30762
0.3975	7.95593
0.398	12.38708
0.3985	7.04956
0.399	8.8623
0.3995	6.74744
0.4	6.64673
0.4005	10.67505
0.401	8.96301
0.4015	8.56018
0.402	7.85522
0.4025	12.89062
0.403	12.5885
0.4035	5.23682
0.404	13.29346
0.4045	13.19275
0.405	13.49487
0.4055	11.2793
0.406	13.39417
0.4065	9.36584
0.407	11.2793
0.4075	6.3446
0.408	6.14319
0.4085	19.03381
0.409	8.15735
0.4095	6.94885
0.41	8.96301
0.4105	8.35876
0.411	6.3446
0.4115	7.95593
0.412	4.53186
0.4125	5.53894
0.413	5.63965
0.4135	7.25098
0.414	11.58142
0.4145	8.66089
0.415	2.11487
0.4155	8.56018
0.416	4.93469
0.4165	8.05664
0.417	5.94177
0.4175	6.54602
0.418	2.92053
0.4185	2.71912
0.419	8.56018
0.4195	1.61133
0.42	9.46655
0.4205	7.85522
0.421	9.86938
0.4215	7.95593
0.422	5.53894
0.4225	4.22974
0.423	3.8269
0.4235	5.84106
0.424	1.61133
0.4245	5.63965
0.425	-0.30212
0.4255	1.71204
0.426	0.30212
0.4265	-0.70496
0.427	8.66089
0.4275	3.32336
0.428	1.81274
0.4285	3.42407
0.429	4.53186
0.4295	2.92053
0.43	0.60425
0.4305	0.90637
0.431	4.53186
0.4315	5.84106
0.432	2.92053
0.4325	-2.11487
0.433	-3.8269
0.4335	-1.51062
0.434	1.61133
0.4345	4.12903
0.435	5.63965
0.4355	0.20142
0.436	7.5531
0.4365	7.85522
0.437	11.17859
0.4375	11.07788
0.438	11.88354
0.4385	10.77576
0.439	11.98425
0.4395	15.40833
0.44	9.16443
0.4405	9.76868
0.441	4.93469
0.4415	6.04248
0.442	5.53894
0.4425	7.95593
0.443	8.25806
0.4435	4.43115
0.444	6.54602
0.4445	3.22266
0.445	6.84814
0.4455	7.75452
0.446	14.19983
0.4465	8.35876
0.447	13.49487
0.4475	13.797
0.448	6.64673
0.4485	8.05664
0.449	8.8623
0.4495	5.84106
0.45	12.18567
0.4505	4.63257
0.451	8.66089
0.4515	8.66089
0.452	5.94177
0.4525	0.60425
0.453	1.00708
0.4535	4.12903
0.454	8.8623
0.4545	15.81116
0.455	11.78284
0.4555	8.25806
0.456	7.35168
0.4565	6.04248
0.457	3.92761
0.4575	8.15735
0.458	7.75452
0.4585	5.43823
0.459	7.15027
0.4595	1.3092
0.46	2.92053
0.4605	3.32336
0.461	7.5531
0.4615	11.78284
0.462	-0.80566
0.4625	5.33752
0.463	8.15735
0.4635	3.8269
0.464	10.57434
0.4645	4.22974
0.465	4.33044
0.4655	3.22266
0.466	5.63965
0.4665	6.94885
0.467	5.0354
0.4675	5.23682
0.468	1.71204
0.4685	7.15027
0.469	6.94885
0.4695	2.21558
0.47	3.8269
0.4705	6.14319
0.471	6.2439
0.4715	3.92761
0.472	0.40283
0.4725	3.22266
0.473	5.13611
0.4735	5.33752
0.474	5.74036
0.4745	2.92053
0.475	3.12195
0.4755	2.92053
0.476	3.32336
0.4765	2.71912
0.477	6.14319
0.4775	4.83398
0.478	4.43115
0.4785	0.80566
0.479	0.70496
0.4795	1.00708
0.48	-1.51062
0.4805	3.8269
0.481	-0.90637
0.4815	5.33752
0.482	0.40283
0.4825	5.63965
0.483	3.42407
0.4835	6.3446
0.484	-1.40991
0.4845	4.53186
0.485	5.33752
0.4855	5.13611
0.486	4.83398
0.4865	2.11487
0.487	6.3446
0.4875	4.83398
0.488	9.16443
0.4885	3.62549
0.489	1.71204
0.4895	1.81274
0.49	2.5177
0.4905	1.51062
0.491	-1.81274
0.4915	4.12903
0.492	4.53186
0.4925	2.81982
0.493	2.71912
0.4935	-2.21558
0.494	5.0354
0.4945	13.39417
0.495	2.81982
0.4955	10.0708
0.496	3.52478
0.4965	7.5531
0.497	3.22266
0.4975	0.70496
0.498	4.43115
0.4985	-1.51062
0.499	9.36584
0.4995	-0.10071
0.5	0.70496
0.5005	0.80566
0.501	6.84814
0.5015	10.17151
0.502	7.25098
0.5025	5.63965
0.503	3.02124
0.5035	7.75452
0.504	5.43823
0.5045	5.84106
0.505	11.88354
0.5055	4.73328
0.506	5.53894
0.5065	6.2439
0.507	4.93469
0.5075	4.33044
0.508	7.35168
0.5085	11.68213
0.509	0.30212
0.5095	6.3446
0.51	6.94885
0.5105	8.96301
0.511	7.35168
0.5115	5.74036
0.512	1.71204
0.5125	4.73328
0.513	0.70496
0.5135	2.92053
0.514	1.3092
0.5145	8.05664
0.515	5.0354
0.5155	2.21558
0.516	2.61841
0.5165	4.93469
0.517	6.74744
0.5175	5.63965
0.518	5.43823
0.5185	7.85522
0.519	10.87646
0.5195	6.64673
0.52	4.63257
0.5205	3.22266
0.521	4.73328
0.5215	5.43823
0.522	7.85522
0.5225	6.2439
0.523	8.05664
0.5235	10.57434
0.524	9.76868
0.5245	10.47363
0.525	4.02832
0.5255	6.84814
0.526	2.92053
0.5265	6.44531
0.527	3.7262
0.5275	3.02124
0.528	8.96301
0.5285	8.35876
0.529	10.57434
0.5295	4.22974
0.53	3.32336
0.5305	8.8623
0.531	5.23682
0.5315	7.35168
0.532	5.63965
0.5325	11.78284
0.533	6.74744
0.5335	4.53186
0.534	3.92761
0.5345	6.64673
0.535	6.44531
0.5355	4.83398
0.536	-0.60425
0.5365	4.63257
0.537	8.15735
0.5375	-0.40283
0.538	4.22974
0.5385	6.2439
0.539	6.2439
0.5395	2.11487
0.54	2.41699
0.5405	6.3446
0.541	8.56018
0.5415	2.31628
0.542	8.25806
0.5425	2.41699
0.543	4.53186
0.5435	8.05664
0.544	9.06372
0.5445	9.86938
0.545	10.67505
0.5455	12.89062
0.546	13.19275
0.5465	14.80408
0.547	11.98425
0.5475	10.77576
0.548	14.19983
0.5485	12.48779
0.549	13.19275
0.5495	7.25098
0.55	13.797
0.5505	12.18567
0.551	7.35168
0.5515	8.56018
0.552	10.57434
0.5525	2.41699
0.553	5.84106
0.5535	6.54602
0.554	2.41699
0.5545	3.62549
0.555	4.73328
0.5555	5.33752
0.556	7.35168
0.5565	7.65381
0.557	12.18567
0.5575	8.05664
0.558	5.0354
0.5585	6.04248
0.559	5.13611
0.5595	-0.60425
0.56	-3.7262
0.5605	5.63965
0.561	7.45239
0.5615	4.73328
0.562	3.62549
0.5625	4.83398
0.563	1.00708
0.5635	3.52478
0.564	5.33752
0.5645	2.01416
0.565	-3.22266
0.5655	0.30212
0.566	-1.61133
0.5665	5.94177
0.567	5.23682
0.5675	-1.71204
0.568	1.10779
0.5685	-0.20142
0.569	2.81982
0.5695	3.22266
0.57	3.02124
0.5705	6.2439
0.571	1.61133
0.5715	-0.10071
0.572	0.60425
0.5725	1.91345
0.573	0.80566
0.5735	-1.91345
0.574	4.33044
0.5745	-1.51062
0.575	-1.81274
0.5755	-6.74744
0.576	-0.50354
0.5765	3.22266
0.577	6.2439
0.5775	3.7262
0.578	4.33044
0.5785	3.92761
0.579	4.02832
0.5795	7.5531
0.58	0.20142
0.5805	8.35876
0.581	3.7262
0.5815	6.84814
0.582	7.5531
0.5825	2.11487
0.583	0.90637
0.5835	-0.40283
0.584	8.96301
0.5845	8.56018
0.585	5.23682
0.5855	2.01416
0.586	6.04248
0.5865	7.45239
0.587	8.7616
0.5875	4.53186
0.588	7.85522
0.5885	8.25806
0.589	10.47363
0.5895	10.27222
0.59	10.17151
0.5905	16.91895
0.591	10.87646
0.5915	9.16443
0.592	9.97009
0.5925	10.77576
0.593	3.52478
0.5935	6.84814
0.594	12.68921
0.5945	11.17859
0.595	15.1062
0.5955	9.16443
0.596	7.25098
0.5965	6.3446
0.597	8.25806
0.5975	9.76868
0.598	6.2439
0.5985	3.52478
0.599	7.25098
0.5995	8.56018
0.6	3.02124
0.6005	5.33752
0.601	5.94177
0.6015	9.46655
0.602	9.76868
0.6025	10.77576
0.603	10.97717
0.6035	6.64673
0.604	11.2793
0.6045	8.96301
0.605	1.10779
0.6055	2.31628
0.606	5.0354
0.6065	7.35168
0.607	3.22266
0.6075	4.33044
0.608	1.3092
0.6085	1.40991
0.609	5.94177
0.6095	5.0354
0.61	10.27222
0.6105	8.7616
0.611	3.02124
0.6115	6.64673
0.612	2.71912
0.6125	4.43115
0.613	2.21558
0.6135	6.44531
0.614	5.33752
0.6145	-0.90637
0.615	7.75452
0.6155	3.52478
0.616	4.83398
0.6165	3.02124
0.617	0.70496
0.6175	10.17151
0.618	5.84106
0.6185	6.74744
0.619	9.76868
0.6195	12.38708
0.62	13.49487
0.6205	12.99133
0.621	12.99133
0.6215	12.99133
0.622	12.99133
0.6225	12.99133
0.623	12.99133
0.6235	12.99133
0.624	12.99133
0.6245	12.99133
0.625	12.99133
0.6255	12.99133
0.626	12.99133
0.6265	12.99133
0.627	12.99133
0.6275	12.99133
0.628	12.99133
0.6285	12.99133
0.629	12.99133
0.6295	12.99133
0.63	12.99133
0.6305	12.99133
0.631	2.71912
0.6315	4.93469
0.632	7.95593
0.6325	6.94885
0.633	1.71204
0.6335	9.46655
0.634	11.17859
0.6345	2.01416
0.635	6.74744
0.6355	7.25098
0.636	4.22974
0.6365	3.32336
0.637	7.35168
0.6375	6.2439
0.638	2.5177
0.6385	1.3092
0.639	-0.50354
0.6395	1.81274
0.64	4.33044
0.6405	6.94885
0.641	3.42407
0.6415	8.25806
0.642	6.74744
0.6425	2.5177
0.643	5.53894
0.6435	8.66089
0.644	2.81982
0.6445	4.12903
0.645	4.53186
0.6455	5.94177
0.646	1.10779
0.6465	4.12903
0.647	2.41699
0.6475	-0.50354
0.648	3.02124
0.6485	-5.63965
0.649	-1.81274
0.6495	-1.3092
0.65	-1.91345
0.6505	-0.20142
0.651	8.25806
0.6515	0.60425
0.652	-0.30212
0.6525	4.53186
0.653	0.60425
0.6535	3.02124
0.654	6.74744
0.6545	6.2439
0.655	9.46655
0.6555	10.47363
0.656	11.07788
0.6565	12.08496
0.657	9.97009
0.6575	15.71045
0.658	6.94885
0.6585	5.63965
0.659	10.77576
0.6595	8.7616
0.66	11.17859
0.6605	4.43115
0.661	3.22266
0.6615	1.81274
0.662	-0.20142
0.6625	6.3446
0.663	4.43115
0.6635	6.2439
0.664	8.35876
0.6645	7.25098
0.665	4.93469
0.6655	6.3446
0.666	8.45947
0.6665	6.94885
0.667	3.52478
0.6675	4.83398
0.668	5.53894
0.6685	2.31628
0.669	9.16443
0.6695	4.73328
0.67	3.42407
0.6705	2.41699
0.671	0.50354
0.6715	7.25098
0.672	3.02124
0.6725	0
0.673	0.80566
0.6735	0.40283
0.674	1.3092
0.6745	3.42407
0.675	3.8269
0.6755	-4.12903
0.676	-0.60425
0.6765	-1.51062
0.677	2.5177
0.6775	9.66797
0.678	1.00708
0.6785	5.0354
0.679	5.74036
0.6795	-1.40991
0.68	0.40283
0.6805	-3.7262
0.681	1.10779
0.6815	-1.2085
0.682	-2.5177
0.6825	-0.80566
0.683	-0.80566
0.6835	2.31628
0.684	-0.50354
0.6845	2.31628
0.685	4.93469
0.6855	7.65381
0.686	-0.60425
0.6865	2.11487
0.687	3.8269
0.6875	1.91345
0.688	5.94177
0.6885	9.16443
0.689	15.1062
0.6895	18.22815
0.69	16.91895
0.6905	16.91895
0.691	12.68921
0.6915	9.97009
0.692	7.75452
0.6925	11.38
0.693	5.74036
0.6935	7.95593
0.694	12.18567
0.6945	8.66089
0.695	13.89771
0.6955	8.56018
0.696	5.23682
0.6965	5.13611
0.697	9.56726
0.6975	11.98425
0.698	10.67505
0.6985	9.76868
0.699	6.54602
0.6995	7.04956
0.7	3.7262
0.7005	5.53894
0.701	9.36584
0.7015	4.73328
0.702	4.22974
0.7025	7.85522
0.703	7.95593
0.7035	10.27222
0.704	7.45239
0.7045	9.36584
0.705	4.63257
0.7055	9.76868
0.706	4.93469
0.7065	3.7262
0.707	3.52478
0.7075	7.75452
0.708	8.45947
0.7085	7.85522
0.709	3.22266
0.7095	7.95593
0.71	8.56018
0.7105	6.84814
0.711	4.93469
0.7115	6.44531
0.712	4.43115
0.7125	2.01416
0.713	5.13611
0.7135	6.94885
0.714	-2.41699
0.7145	4.73328
0.715	6.04248
0.7155	4.53186
0.716	5.23682
0.7165	4.43115
0.717	8.05664
0.7175	4.73328
0.718	5.33752
0.7185	6.2439
0.719	3.22266
0.7195	5.23682
0.72	12.89062
0.7205	7.15027
0.721	4.33044
0.7215	3.22266
0.722	1.91345
0.7225	2.81982
0.723	3.32336
0.7235	2.81982
0.724	5.0354
0.7245	-2.81982
0.725	-3.52478
0.7255	1.71204
0.726	3.02124
0.7265	2.5177
0.727	3.42407
0.7275	3.8269
0.728	3.22266
0.7285	5.74036
0.729	4.12903
0.7295	5.13611
0.73	3.62549
0.7305	7.65381
0.731	10.77576
0.7315	9.66797
0.732	2.92053
0.7325	5.43823
0.733	3.8269
0.7335	6.94885
0.734	4.02832
0.7345	3.02124
0.735	4.83398
0.7355	11.78284
0.736	2.61841
0.7365	6.14319
0.737	5.94177
0.7375	3.7262
0.738	5.33752
0.7385	3.52478
0.739	2.5177
0.7395	4.12903
0.74	1.81274
0.7405	2.01416
0.741	1.00708
0.7415	7.25098
0.742	9.36584
0.7425	13.89771
0.743	6.74744
0.7435	0.80566
0.744	0.10071
0.7445	1.3092
0.745	-0.50354
0.7455	4.43115
0.746	4.73328
0.7465	2.41699
0.747	5.94177
0.7475	1.3092
0.748	1.3092
0.7485	7.25098
0.749	0.90637
0.7495	4.73328
0.75	6.2439
0.7505	4.12903
0.751	5.43823
0.7515	0.70496
0.752	0.90637
0.7525	4.63257
0.753	3.32336
0.7535	2.31628
0.754	0.50354
0.7545	-3.8269
0.755	5.43823
0.7555	1.3092
0.756	5.33752
0.7565	5.74036
0.757	9.97009
0.7575	11.2793
0.758	12.48779
0.7585	12.08496
0.759	9.76868
0.7595	9.76868
0.76	6.64673
0.7605	9.36584
0.761	8.8623
0.7615	6.94885
0.762	12.28638
0.7625	7.15027
0.763	6.2439
0.7635	7.95593
0.764	6.04248
0.7645	3.8269
0.765	8.66089
0.7655	6.04248
0.766	-3.12195
0.7665	-3.62549
0.767	-4.43115
0.7675	-1.3092
0.768	1.10779
0.7685	4.43115
0.769	-2.11487
0.7695	0.70496
0.77	7.04956
0.7705	0
0.771	-0.80566
0.7715	1.71204
0.772	0.30212
0.7725	4.93469
0.773	5.94177
0.7735	5.0354
0.774	2.11487
0.7745	3.92761
0.775	4.22974
0.7755	2.61841
0.776	4.63257
0.7765	-2.11487
0.777	6.74744
0.7775	3.8269
0.778	1.10779
0.7785	3.52478
0.779	4.93469
0.7795	7.25098
0.78	7.5531
0.7805	12.5885
0.781	6.2439
0.7815	6.44531
0.782	4.73328
0.7825	3.12195
0.783	3.8269
0.7835	-1.00708
0.784	4.22974
0.7845	10.17151
0.785	9.16443
0.7855	2.21558
0.786	0.90637
0.7865	-0.40283
0.787	6.74744
0.7875	2.81982
0.788	1.51062
0.7885	11.68213
0.789	9.26514
0.7895	5.0354
0.79	4.83398
0.7905	9.36584
0.791	3.8269
0.7915	0.50354
0.792	4.43115
0.7925	4.63257
0.793	3.42407
0.7935	4.12903
0.794	1.2085
0.7945	-1.71204
0.795	2.01416
0.7955	1.00708
0.796	3.7262
0.7965	5.74036
0.797	3.52478
0.7975	7.75452
0.798	2.41699
0.7985	2.92053
0.799	6.64673
0.7995	6.3446
0.8	6.3446
0.8005	4.43115
0.801	10.37292
0.8015	3.32336
0.802	3.32336
0.8025	2.21558
0.803	0
0.8035	1.61133
0.804	-1.81274
0.8045	6.84814
0.805	3.52478
0.8055	9.56726
0.806	8.96301
0.8065	7.15027
0.807	6.74744
0.8075	3.02124
0.808	5.63965
0.8085	10.17151
0.809	8.96301
0.8095	6.64673
0.81	4.93469
0.8105	11.68213
0.811	12.99133
0.8115	10.37292
0.812	8.05664
0.8125	9.97009
0.813	9.16443
0.8135	8.45947
0.814	10.0708
0.8145	5.43823
0.815	6.54602
0.8155	9.86938
0.816	2.71912
0.8165	3.22266
0.817	5.84106
0.8175	8.66089
0.818	12.48779
0.8185	14.50195
0.819	16.41541
0.8195	19.43665
0.82	16.81824
0.8205	16.01257
0.821	17.22107
0.8215	15.20691
0.822	9.36584
0.8225	7.85522
0.823	11.38
0.8235	11.88354
0.824	7.15027
0.8245	9.86938
0.825	9.76868
0.8255	12.08496
0.826	5.13611
0.8265	10.97717
0.827	12.78992
0.8275	9.06372
0.828	11.17859
0.8285	9.97009
0.829	11.68213
0.8295	2.92053
0.83	9.76868
0.8305	6.54602
0.831	2.61841
0.8315	-2.21558
0.832	1.40991
0.8325	11.17859
0.833	7.04956
0.8335	11.38
0.834	3.8269
0.8345	2.61841
0.835	3.52478
0.8355	2.5177
0.836	1.91345
0.8365	0.20142
0.837	-1.91345
0.8375	1.91345
0.838	-1.2085
0.8385	0.40283
0.839	-1.61133
0.8395	4.12903
0.84	4.73328
0.8405	4.43115
0.841	1.81274
0.8415	-2.21558
0.842	-0.40283
0.8425	1.81274
0.843	0.30212
0.8435	0.10071
0.844	1.3092
0.8445	3.7262
0.845	4.73328
0.8455	-1.10779
0.846	2.21558
0.8465	4.73328
0.847	1.61133
0.8475	2.81982
0.848	5.23682
0.8485	4.83398
0.849	7.04956
0.8495	10.87646
0.85	11.17859
0.8505	7.85522
0.851	8.35876
0.8515	4.53186
0.852	12.48779
0.8525	14.50195
0.853	11.17859
0.8535	10.67505
0.854	17.82532
0.8545	9.16443
0.855	11.48071
0.8555	9.36584
0.856	12.68921
0.8565	5.23682
0.857	3.92761
0.8575	6.14319
0.858	9.56726
0.8585	6.44531
0.859	7.75452
0.8595	8.25806
0.86	8.25806
0.8605	10.87646
0.861	5.0354
0.8615	7.65381
0.862	7.45239
0.8625	4.02832
0.863	13.89771
0.8635	13.09204
0.864	10.97717
0.8645	6.64673
0.865	9.36584
0.8655	10.77576
0.866	7.95593
0.8665	6.64673
0.867	7.5531
0.8675	6.64673
0.868	3.22266
0.8685	8.45947
0.869	3.42407
0.8695	2.01416
0.87	4.43115
0.8705	4.73328
0.871	2.41699
0.8715	2.01416
0.872	2.81982
0.8725	0
0.873	5.74036
0.8735	4.63257
0.874	-4.93469
0.8745	2.81982
0.875	0.10071
0.8755	4.83398
0.876	-2.81982
0.8765	-2.71912
0.877	-3.8269
0.8775	-2.41699
0.878	0.80566
0.8785	-0.70496
0.879	5.33752
0.8795	5.53894
0.88	4.22974
0.8805	6.74744
0.881	3.52478
0.8815	3.22266
0.882	1.3092
0.8825	7.95593
0.883	-1.71204
0.8835	8.05664
0.884	0.50354
0.8845	5.63965
0.885	5.63965
0.8855	8.05664
0.886	8.96301
0.8865	7.25098
0.887	6.2439
0.8875	8.7616
0.888	10.87646
0.8885	6.64673
0.889	3.62549
0.8895	3.22266
0.89	5.0354
0.8905	0.30212
0.891	5.53894
0.8915	6.2439
0.892	4.22974
0.8925	1.51062
0.893	1.51062
0.8935	5.74036
0.894	5.33752
0.8945	4.53186
0.895	7.85522
0.8955	2.01416
0.896	1.40991
0.8965	5.63965
0.897	2.41699
0.8975	3.22266
0.898	5.43823
0.8985	1.40991
0.899	5.53894
0.8995	3.42407
0.9	2.31628
0.9005	2.61841
0.901	-0.20142
0.9015	2.92053
0.902	2.5177
0.9025	6.74744
0.903	7.75452
0.9035	5.53894
0.904	6.74744
0.9045	4.53186
0.905	7.5531
0.9055	6.74744
0.906	1.40991
0.9065	7.65381
0.907	4.02832
0.9075	7.65381
0.908	7.5531
0.9085	11.07788
0.909	8.35876
0.9095	7.75452
0.91	2.41699
0.9105	6.2439
0.911	7.75452
0.9115	7.45239
0.912	2.92053
0.9125	6.64673
0.913	4.63257
0.9135	3.62549
0.914	8.8623
0.9145	7.15027
0.915	5.13611
0.9155	5.94177
0.916	2.41699
0.9165	2.31628
0.917	8.25806
0.9175	6.04248
0.918	4.02832
0.9185	2.71912
0.919	3.02124
0.9195	6.04248
0.92	6.54602
0.9205	7.15027
0.921	6.84814
0.9215	10.17151
0.922	6.94885
0.9225	8.15735
0.923	3.02124
0.9235	4.53186
0.924	6.84814
0.9245	8.56018
0.925	3.42407
0.9255	6.54602
0.926	5.0354
0.9265	1.3092
0.927	7.75452
0.9275	6.44531
0.928	5.13611
0.9285	6.44531
0.929	-0.10071
0.9295	4.93469
0.93	2.31628
0.9305	-0.40283
0.931	1.91345
0.9315	8.7616
0.932	2.31628
0.9325	8.35876
0.933	10.77576
0.9335	2.41699
0.934	1.91345
0.9345	2.11487
0.935	5.43823
0.9355	5.63965
0.936	13.09204
0.9365	10.47363
0.937	8.45947
0.9375	13.09204
0.938	4.73328
0.9385	6.64673
0.939	-0.80566
0.9395	2.31628
0.94	5.13611
0.9405	3.02124
0.941	6.94885
0.9415	5.13611
0.942	2.41699
0.9425	-1.10779
0.943	4.43115
0.9435	4.22974
0.944	5.33752
0.9445	9.46655
0.945	9.46655
0.9455	12.78992
0.946	15.81116
0.9465	6.84814
0.947	10.87646
0.9475	8.96301
0.948	12.08496
0.9485	10.37292
0.949	12.38708
0.9495	8.35876
0.95	7.35168
0.9505	13.09204
0.951	9.36584
0.9515	9.46655
0.952	9.26514
0.9525	7.85522
0.953	7.5531
0.9535	-0.50354
0.954	3.12195
0.9545	2.71912
0.955	-1.00708
0.9555	1.71204
0.956	3.8269
0.9565	1.91345
0.957	4.53186
0.9575	-1.00708
0.958	4.93469
0.9585	1.3092
0.959	0.20142
0.9595	4.73328
0.96	5.84106
0.9605	10.17151
0.961	9.36584
0.9615	13.09204
0.962	8.45947
0.9625	6.64673
0.963	5.43823
0.9635	0
0.964	8.15735
0.9645	5.94177
0.965	3.12195
0.9655	11.78284
0.966	6.44531
0.9665	7.5531
0.967	2.92053
0.9675	10.17151
0.968	5.94177
0.9685	11.78284
0.969	9.06372
0.9695	9.86938
0.97	8.35876
0.9705	6.54602
0.971	6.84814
0.9715	5.0354
0.972	6.14319
0.9725	9.26514
0.973	7.04956
0.9735	4.83398
0.974	3.62549
0.9745	6.44531
0.975	1.3092
0.9755	0.30212
0.976	5.43823
0.9765	2.31628
0.977	5.84106
0.9775	5.84106
0.978	6.44531
0.9785	4.73328
0.979	5.63965
0.9795	7.15027
0.98	3.92761
0.9805	4.73328
0.981	-0.90637
0.9815	3.42407
0.982	2.31628
0.9825	0.30212
0.983	4.53186
0.9835	6.84814
0.984	3.12195
0.9845	0.90637
0.985	2.71912
0.9855	6.3446
0.986	2.5177
0.9865	1.3092
0.987	5.74036
0.9875	1.81274
0.988	5.94177
0.9885	9.36584
0.989	7.25098
0.9895	4.33044
0.99	6.94885
0.9905	8.05664
0.991	5.23682
0.9915	2.61841
0.992	6.2439
0.9925	6.04248
0.993	5.23682
0.9935	4.02832
0.994	1.91345
0.9945	6.04248
0.995	7.5531
0.9955	7.95593
0.996	1.00708
0.9965	1.10779
0.997	0.10071
0.9975	0.40283
0.998	3.12195
0.9985	3.12195
0.999	3.92761
0.9995	4.02832
1	-0.90637
1.0005	-1.00708
1.001	3.92761
1.0015	3.42407
1.002	2.01416
1.0025	1.91345
1.003	5.94177
1.0035	8.15735
1.004	5.84106
1.0045	10.0708
1.005	5.94177
1.0055	1.71204
1.006	7.25098
1.0065	0.10071
1.007	2.61841
1.0075	3.62549
1.008	7.04956
1.0085	2.81982
1.009	8.35876
1.0095	3.7262
1.01	5.13611
1.0105	5.84106
1.011	4.53186
1.0115	5.94177
1.012	2.71912
1.0125	4.12903
1.013	5.84106
1.0135	9.66797
1.014	5.43823
1.0145	-2.01416
1.015	-1.2085
1.0155	-0.10071
1.016	5.94177
1.0165	4.02832
1.017	5.23682
1.0175	10.97717
1.018	9.26514
1.0185	2.92053
1.019	7.5531
1.0195	9.56726
1.02	12.78992
1.0205	8.45947
1.021	6.84814
1.0215	2.61841
1.022	8.25806
1.0225	5.63965
1.023	7.95593
1.0235	12.18567
1.024	12.68921
1.0245	4.73328
1.025	9.06372
1.0255	10.57434
1.026	8.96301
1.0265	10.27222
1.027	2.31628
1.0275	0.60425
1.028	-0.20142
1.0285	-1.2085
1.029	4.22974
1.0295	2.81982
1.03	4.93469
1.0305	3.92761
1.031	1.81274
1.0315	0.20142
1.032	-5.43823
1.0325	3.8269
1.033	5.43823
1.0335	1.00708
1.034	0.20142
1.0345	-2.92053
1.035	-0.70496
1.0355	-2.71912
1.036	5.13611
1.0365	1.40991
1.037	1.51062
1.0375	0.50354
1.038	-2.41699
1.0385	2.11487
1.039	9.16443
1.0395	5.33752
1.04	2.11487
1.0405	3.02124
1.041	-1.71204
1.0415	1.10779
1.042	2.92053
1.0425	1.00708
1.043	6.04248
1.0435	8.66089
1.044	10.0708
1.0445	4.02832
1.045	5.23682
1.0455	9.46655
1.046	10.37292
1.0465	6.94885
1.047	3.92761
1.0475	6.14319
1.048	7.95593
1.0485	7.04956
1.049	3.8269
1.0495	6.3446
1.05	8.8623
1.0505	5.53894
1.051	6.94885
1.0515	6.14319
1.052	9.76868
1.0525	7.04956
1.053	11.68213
1.0535	12.28638
1.054	6.64673
1.0545	5.74036
1.055	6.3446
1.0555	6.94885
1.056	8.96301
1.0565	8.8623
1.057	4.02832
1.0575	8.35876
1.058	6.74744
1.0585	4.53186
1.059	0.50354
1.0595	-1.2085
1.06	1.10779
1.0605	4.53186
1.061	2.71912
1.0615	8.25806
1.062	6.64673
1.0625	6.64673
1.063	0.70496
1.0635	8.96301
1.064	8.56018
1.0645	8.05664
1.065	5.13611
1.0655	5.53894
1.066	5.63965
1.0665	7.65381
1.067	9.66797
1.0675	9.86938
1.068	4.33044
1.0685	8.35876
1.069	2.81982
1.0695	5.94177
1.07	5.33752
1.0705	11.38
1.071	4.93469
1.0715	3.62549
1.072	4.53186
1.0725	1.2085
1.073	6.64673
1.0735	2.92053
1.074	1.2085
1.0745	4.12903
1.075	2.5177
1.0755	7.95593
1.076	2.5177
1.0765	5.43823
1.077	2.5177
1.0775	13.29346
1.078	11.88354
1.0785	7.65381
1.079	12.68921
1.0795	8.66089
1.08	9.56726
1.0805	11.07788
1.081	13.19275
1.0815	11.78284
1.082	8.7616
1.0825	9.66797
1.083	6.04248
1.0835	3.32336
1.084	3.92761
1.0845	5.33752
1.085	2.21558
1.0855	5.94177
1.086	10.67505
1.0865	2.5177
1.087	8.8623
1.0875	2.31628
1.088	6.2439
1.0885	5.23682
1.089	1.40991
1.0895	0.10071
1.09	4.22974
1.0905	2.61841
1.091	2.81982
1.0915	6.2439
1.092	6.14319
1.0925	8.45947
1.093	9.16443
1.0935	6.64673
1.094	8.96301
1.0945	2.61841
1.095	1.3092
1.0955	4.02832
1.096	6.3446
1.0965	6.74744
1.097	4.53186
1.0975	4.93469
1.098	0.80566
1.0985	7.5531
1.099	6.14319
1.0995	6.84814
1.1	7.04956
1.1005	8.56018
1.101	10.37292
1.1015	6.44531
1.102	5.33752
1.1025	6.64673
1.103	7.04956
1.1035	7.15027
1.104	8.25806
1.1045	13.797
1.105	0
1.1055	6.64673
1.106	3.12195
1.1065	0.80566
1.107	5.53894
1.1075	2.92053
1.108	4.22974
1.1085	3.7262
1.109	8.7616
1.1095	6.3446
1.11	5.53894
1.1105	3.32336
1.111	8.35876
1.1115	12.38708
1.112	5.13611
1.1125	5.74036
1.113	1.71204
1.1135	4.63257
1.114	0.60425
1.1145	7.35168
1.115	0
1.1155	5.23682
1.116	4.33044
1.1165	0.40283
1.117	4.22974
1.1175	-0.80566
1.118	5.53894
1.1185	3.32336
1.119	7.45239
1.1195	10.47363
1.12	10.67505
1.1205	11.17859
1.121	1.91345
1.1215	5.33752
1.122	6.44531
1.1225	4.12903
1.123	14.30054
1.1235	5.84106
1.124	6.14319
1.1245	7.5531
1.125	9.16443
1.1255	5.43823
1.126	3.92761
1.1265	6.14319
1.127	4.33044
1.1275	8.56018
1.128	-2.5177
1.1285	1.81274
1.129	2.71912
1.1295	8.45947
1.13	8.25806
1.1305	6.64673
1.131	6.84814
1.1315	5.0354
1.132	5.43823
1.1325	11.48071
1.133	10.77576
1.1335	3.52478
1.134	1.40991
1.1345	5.63965
1.135	12.28638
1.1355	7.95593
1.136	4.63257
1.1365	6.3446
1.137	-0.20142
1.1375	4.33044
1.138	0.70496
1.1385	3.7262
1.139	6.64673
1.1395	6.14319
1.14	3.62549
1.1405	9.26514
1.141	11.2793
1.1415	10.87646
1.142	13.39417
1.1425	14.60266
1.143	12.18567
1.1435	13.59558
1.144	12.28638
1.1445	12.28638
1.145	10.67505
1.1455	9.06372
1.146	7.35168
1.1465	8.05664
1.147	10.47363
1.1475	6.64673
1.148	7.95593
1.1485	8.15735
1.149	8.45947
1.1495	5.13611
1.15	10.17151
1.1505	7.45239
1.151	7.04956
1.1515	11.07788
1.152	4.12903
1.1525	4.63257
1.153	8.35876
1.1535	10.0708
1.154	3.7262
1.1545	4.93469
1.155	0.60425
1.1555	1.3092
1.156	2.11487
1.1565	7.45239
1.157	7.25098
1.1575	3.32336
1.158	2.31628
1.1585	6.2439
1.159	0.70496
1.1595	3.52478
1.16	4.83398
1.1605	3.8269
1.161	3.32336
1.1615	2.41699
1.162	3.12195
1.1625	4.53186
1.163	6.64673
1.1635	2.61841
1.164	5.74036
1.1645	4.73328
1.165	0.20142
1.1655	7.25098
1.166	2.92053
1.1665	-1.10779
1.167	0.50354
1.1675	2.01416
1.168	0
1.1685	2.81982
1.169	-2.81982
1.1695	-3.12195
1.17	1.00708
1.1705	0.60425
1.171	1.00708
1.1715	-3.02124
1.172	-1.2085
1.1725	-0.70496
1.173	-4.02832
1.1735	1.2085
1.174	1.3092
1.1745	5.13611
1.175	0
1.1755	2.01416
1.176	2.92053
1.1765	4.22974
1.177	1.61133
1.1775	2.01416
1.178	3.42407
1.1785	4.63257
1.179	1.81274
1.1795	3.42407
1.18	6.94885
1.1805	4.93469
1.181	1.3092
1.1815	10.57434
1.182	2.31628
1.1825	2.81982
1.183	6.04248
1.1835	1.10779
1.184	9.06372
1.1845	9.66797
1.185	7.25098
1.1855	9.86938
1.186	2.41699
1.1865	7.75452
1.187	3.62549
1.1875	11.2793
1.188	4.63257
1.1885	9.97009
1.189	3.62549
1.1895	5.43823
1.19	9.26514
1.1905	4.43115
1.191	8.7616
1.1915	7.65381
1.192	9.56726
1.1925	12.18567
1.193	10.97717
1.1935	11.2793
1.194	9.56726
1.1945	11.48071
1.195	9.36584
1.1955	11.48071
1.196	6.14319
1.1965	7.85522
1.197	11.88354
1.1975	5.94177
1.198	6.84814
1.1985	7.85522
1.199	6.04248
1.1995	5.63965
1.2	6.74744
1.2005	5.84106
1.201	4.63257
1.2015	7.25098
1.202	9.46655
1.2025	7.45239
1.203	5.94177
1.2035	3.12195
1.204	8.66089
1.2045	4.12903
1.205	3.52478
1.2055	4.73328
1.206	8.8623
1.2065	5.84106
1.207	8.05664
1.2075	12.08496
1.208	3.42407
1.2085	6.3446
1.209	11.98425
1.2095	9.26514
1.21	3.92761
1.2105	8.05664
1.211	10.67505
1.2115	9.66797
1.212	8.7616
1.2125	9.66797
1.213	10.97717
1.2135	8.7616
1.214	6.04248
1.2145	2.41699
1.215	6.84814
1.2155	3.12195
1.216	5.84106
1.2165	7.75452
1.217	2.71912
1.2175	4.73328
1.218	4.12903
1.2185	2.81982
1.219	8.56018
1.2195	4.93469
1.22	10.97717
1.2205	5.94177
1.221	5.43823
1.2215	11.2793
1.222	4.83398
1.2225	1.61133
1.223	-1.10779
1.2235	3.02124
1.224	2.81982
1.2245	7.5531
1.225	0.70496
1.2255	6.04248
1.226	4.73328
1.2265	2.11487
1.227	2.92053
1.2275	2.41699
1.228	5.13611
1.2285	-1.00708
1.229	4.83398
1.2295	9.16443
1.23	7.95593
1.2305	5.53894
1.231	5.53894
1.2315	5.63965
1.232	-1.81274
1.2325	4.12903
1.233	3.62549
1.2335	4.73328
1.234	5.0354
1.2345	4.43115
1.235	0.70496
1.2355	0.20142
1.236	1.10779
1.2365	3.02124
1.237	3.52478
1.2375	10.97717
1.238	10.67505
1.2385	5.13611
1.239	0.90637
1.2395	2.92053
1.24	0.50354
1.2405	4.22974
1.241	4.22974
1.2415	1.40991
1.242	2.01416
1.2425	8.25806
1.243	12.18567
1.2435	0
1.244	-4.83398
1.2445	0.40283
1.245	-1.2085
1.2455	-0.80566
1.246	3.7262
1.2465	8.25806
1.247	7.25098
1.2475	7.85522
1.248	5.13611
1.2485	3.7262
1.249	6.44531
1.2495	10.67505
1.25	3.42407
1.2505	0.20142
1.251	5.94177
1.2515	6.3446
1.252	5.63965
1.2525	7.35168
1.253	3.12195
1.2535	6.54602
1.254	11.17859
1.2545	9.97009
1.255	14.09912
1.2555	7.25098
1.256	10.0708
1.2565	7.15027
1.257	9.16443
1.2575	9.26514
1.258	6.54602
1.2585	4.22974
1.259	3.02124
1.2595	5.84106
1.26	8.8623
1.2605	2.71912
1.261	5.33752
1.2615	6.04248
1.262	4.53186
1.2625	9.46655
1.263	6.54602
1.2635	5.84106
1.264	6.84814
1.2645	6.3446
1.265	10.37292
1.2655	9.97009
1.266	7.65381
1.2665	8.56018
1.267	4.83398
1.2675	7.75452
1.268	4.33044
1.2685	10.0708
1.269	8.05664
1.2695	6.14319
1.27	9.76868
1.2705	7.75452
1.271	9.86938
1.2715	1.91345
1.272	2.71912
1.2725	6.3446
1.273	5.74036
1.2735	4.12903
1.274	7.85522
1.2745	6.64673
1.275	6.74744
1.2755	3.62549
1.276	5.53894
1.2765	8.8623
1.277	3.32336
1.2775	7.25098
1.278	5.94177
1.2785	5.63965
1.279	2.41699
1.2795	3.8269
1.28	1.61133
1.2805	4.53186
1.281	4.12903
1.2815	2.61841
1.282	4.73328
1.2825	4.73328
1.283	4.12903
1.2835	4.83398
1.284	8.25806
1.2845	4.12903
1.285	0
1.2855	1.3092
1.286	7.25098
1.2865	6.3446
1.287	2.5177
1.2875	7.04956
1.288	9.66797
1.2885	2.41699
1.289	-0.30212
1.2895	2.41699
1.29	4.73328
1.2905	4.02832
1.291	6.2439
1.2915	2.41699
1.292	-0.50354
1.2925	2.01416
1.293	4.73328
1.2935	9.66797
1.294	10.0708
1.2945	5.23682
1.295	0.50354
1.2955	5.84106
1.296	3.8269
1.2965	11.38
1.297	4.33044
1.2975	4.83398
1.298	-0.20142
1.2985	5.63965
1.299	5.74036
1.2995	1.3092
1.3	4.63257
1.3005	0.50354
1.301	7.75452
1.3015	5.43823
1.302	4.73328
1.3025	6.64673
1.303	12.99133
1.3035	12.08496
1.304	10.37292
1.3045	11.48071
1.305	8.15735
1.3055	5.74036
1.306	9.16443
1.3065	3.7262
1.307	5.13611
1.3075	0.10071
1.308	6.3446
1.3085	4.73328
1.309	7.65381
1.3095	2.21558
1.31	3.8269
1.3105	4.33044
1.311	1.71204
1.3115	1.40991
1.312	4.12903
1.3125	5.53894
1.313	0.80566
1.3135	-1.91345
1.314	0.20142
1.3145	1.51062
1.315	3.8269
1.3155	3.8269
1.316	9.06372
1.3165	3.7262
1.317	5.13611
1.3175	4.53186
1.318	5.63965
1.3185	9.16443
1.319	6.3446
1.3195	5.43823
1.32	5.94177
1.3205	9.26514
1.321	4.63257
1.3215	3.7262
1.322	4.73328
1.3225	4.43115
1.323	6.3446
1.3235	2.61841
1.324	1.00708
1.3245	8.7616
1.325	3.7262
1.3255	8.7616
1.326	11.2793
1.3265	8.25806
1.327	8.45947
1.3275	11.68213
1.328	7.65381
1.3285	0.70496
1.329	8.05664
1.3295	10.27222
1.33	4.93469
1.3305	6.94885
1.331	3.52478
1.3315	3.52478
1.332	3.7262
1.3325	7.35168
1.333	3.92761
1.3335	5.0354
1.334	5.53894
1.3345	3.52478
1.335	5.74036
1.3355	-2.11487
1.336	0
1.3365	1.2085
1.337	6.3446
1.3375	11.2793
1.338	7.65381
1.3385	8.7616
1.339	3.42407
1.3395	6.3446
1.34	5.74036
1.3405	7.85522
1.341	8.66089
1.3415	5.53894
1.342	4.73328
1.3425	1.71204
1.343	0.90637
1.3435	8.25806
1.344	6.04248
1.3445	5.63965
1.345	3.8269
1.3455	2.81982
1.346	2.11487
1.3465	5.0354
1.347	6.44531
1.3475	-1.2085
1.348	1.3092
1.3485	2.01416
1.349	3.02124
1.3495	8.8623
1.35	8.7616
1.3505	8.56018
1.351	5.23682
1.3515	0.80566
1.352	2.61841
1.3525	7.95593
1.353	8.25806
1.3535	5.63965
1.354	6.54602
1.3545	15.71045
1.355	9.56726
1.3555	6.54602
1.356	11.68213
1.3565	2.81982
1.357	4.53186
1.3575	5.53894
1.358	5.84106
1.3585	6.64673
1.359	6.74744
1.3595	10.97717
1.36	4.93469
1.3605	10.67505
1.361	4.63257
1.3615	8.66089
1.362	2.61841
1.3625	4.93469
1.363	2.31628
1.3635	3.62549
1.364	3.52478
1.3645	3.22266
1.365	0.10071
1.3655	-1.71204
1.366	-1.00708
1.3665	5.84106
1.367	2.5177
1.3675	0
1.368	-2.01416
1.3685	5.33752
1.369	1.91345
1.3695	5.53894
1.37	7.35168
1.3705	3.8269
1.371	7.75452
1.3715	10.0708
1.372	5.13611
1.3725	11.98425
1.373	8.25806
1.3735	11.88354
1.374	7.75452
1.3745	13.797
1.375	9.76868
1.3755	11.88354
1.376	7.15027
1.3765	7.5531
1.377	11.78284
1.3775	3.32336
1.378	7.85522
1.3785	8.05664
1.379	7.45239
1.3795	3.7262
1.38	0.30212
1.3805	3.22266
1.381	6.04248
1.3815	6.04248
1.382	2.01416
1.3825	8.35876
1.383	4.43115
1.3835	1.51062
1.384	2.11487
1.3845	-1.10779
1.385	4.22974
1.3855	2.31628
1.386	4.53186
1.3865	5.0354
1.387	4.33044
1.3875	1.40991
1.388	0.60425
1.3885	7.95593
1.389	7.35168
1.3895	7.25098
1.39	8.35876
1.3905	11.17859
1.391	13.99841
1.3915	7.95593
1.392	5.13611
1.3925	1.91345
1.393	3.62549
1.3935	7.45239
1.394	10.17151
1.3945	3.52478
1.395	2.01416
1.3955	10.0708
1.396	3.7262
1.3965	8.25806
1.397	7.35168
1.3975	8.96301
1.398	9.76868
1.3985	3.62549
1.399	4.93469
1.3995	1.10779
1.4	1.91345
1.4005	9.66797
1.401	1.61133
1.4015	0.10071
1.402	7.25098
1.4025	2.71912
1.403	4.53186
1.4035	6.2439
1.404	9.86938
1.4045	5.94177
1.405	4.93469
1.4055	0.50354
1.406	8.05664
1.4065	4.73328
1.407	3.12195
1.4075	1.61133
1.408	-5.84106
1.4085	0.30212
1.409	1.51062
1.4095	2.5177
1.41	1.2085
1.4105	-1.40991
1.411	5.0354
1.4115	5.84106
1.412	4.33044
1.4125	7.5531
1.413	3.22266
1.4135	6.14319
1.414	9.06372
1.4145	13.19275
1.415	10.57434
1.4155	15.1062
1.416	19.63806
1.4165	13.19275
1.417	17.92603
1.4175	12.99133
1.418	14.90479
1.4185	9.26514
1.419	8.25806
1.4195	4.93469
1.42	3.7262
1.4205	10.17151
1.421	5.33752
1.4215	2.01416
1.422	6.04248
1.4225	5.43823
1.423	-3.22266
1.4235	-0.90637
1.424	3.62549
1.4245	0.70496
1.425	2.01416
1.4255	1.00708
1.426	-2.71912
1.4265	-3.52478
1.427	-0.80566
1.4275	-1.61133
1.428	6.04248
1.4285	1.3092
1.429	5.94177
1.4295	2.21558
1.43	4.22974
1.4305	-2.5177
1.431	1.81274
1.4315	11.48071
1.432	2.01416
1.4325	3.12195
1.433	-0.90637
1.4335	6.44531
1.434	6.54602
1.4345	0.50354
1.435	3.22266
1.4355	3.12195
1.436	3.62549
1.4365	3.92761
1.437	4.43115
1.4375	2.01416
1.438	11.58142
1.4385	1.81274
1.439	3.02124
1.4395	2.41699
1.44	4.12903
1.4405	8.56018
1.441	11.17859
1.4415	7.65381
1.442	8.56018
1.4425	3.02124
1.443	5.23682
1.4435	6.3446
1.444	9.36584
1.4445	9.16443
1.445	7.95593
1.4455	10.17151
1.446	4.33044
1.4465	8.15735
1.447	4.83398
1.4475	10.57434
1.448	8.45947
1.4485	7.65381
1.449	5.94177
1.4495	5.43823
1.45	5.94177
1.4505	4.43115
1.451	4.63257
1.4515	4.12903
1.452	4.33044
1.4525	5.94177
1.453	0.90637
1.4535	1.71204
1.454	3.52478
1.4545	0.10071
1.455	6.04248
1.4555	8.25806
1.456	2.11487
1.4565	4.63257
1.457	9.76868
1.4575	5.94177
1.458	5.74036
1.4585	4.22974
1.459	3.8269
1.4595	8.8623
1.46	5.23682
1.4605	2.81982
1.461	9.36584
1.4615	7.75452
1.462	9.56726
1.4625	7.04956
1.463	9.06372
1.4635	5.13611
1.464	3.8269
1.4645	5.0354
1.465	7.75452
1.4655	4.83398
1.466	9.66797
1.4665	8.7616
1.467	0.80566
1.4675	8.15735
1.468	5.63965
1.4685	-0.70496
1.469	4.02832
1.4695	5.74036
1.47	9.36584
1.4705	8.66089
1.471	8.56018
1.4715	5.0354
1.472	1.2085
1.4725	0.50354
1.473	4.02832
1.4735	0.40283
1.474	2.71912
1.4745	2.21558
1.475	3.12195
1.4755	6.04248
1.476	0.90637
1.4765	1.00708
1.477	0.70496
1.4775	3.12195
1.478	5.0354
1.4785	13.19275
1.479	9.26514
1.4795	8.66089
1.48	4.63257
1.4805	6.3446
1.481	3.92761
1.4815	0.60425
1.482	-2.11487
1.4825	0.40283
1.483	6.14319
1.4835	3.62549
1.484	-3.22266
1.4845	-1.81274
1.485	-2.21558
1.4855	2.01416
1.486	1.91345
1.4865	2.11487
1.487	-0.50354
1.4875	0
1.488	-3.32336
1.4885	-1.00708
1.489	-0.40283
1.4895	2.21558
1.49	0.70496
1.4905	0.60425
1.491	-0.80566
1.4915	-0.50354
1.492	1.81274
1.4925	1.81274
1.493	2.41699
1.4935	1.40991
1.494	3.62549
1.4945	-0.20142
1.495	5.13611
1.4955	7.04956
1.496	3.32336
1.4965	3.12195
1.497	3.8269
1.4975	-0.20142
1.498	7.65381
1.4985	5.13611
1.499	5.43823
1.4995	5.74036
1.5	7.65381
1.5005	7.5531
1.501	3.8269
1.5015	6.84814
1.502	9.16443
1.5025	2.81982
1.503	3.02124
1.5035	1.91345
1.504	7.04956
1.5045	0.90637
1.505	5.53894
1.5055	8.66089
1.506	8.35876
1.5065	10.47363
1.507	5.94177
1.5075	6.64673
1.508	0.10071
1.5085	6.2439
1.509	4.73328
1.5095	-0.40283
1.51	4.43115
1.5105	4.53186
1.511	9.26514
1.5115	8.05664
1.512	0
1.5125	5.94177
1.513	4.83398
1.5135	6.44531
1.514	9.26514
1.5145	9.16443
1.515	8.7616
1.5155	4.53186
1.516	5.63965
1.5165	8.05664
1.517	8.45947
1.5175	4.53186
1.518	6.04248
1.5185	3.62549
1.519	3.92761
1.5195	4.33044
1.52	3.12195
1.5205	11.07788
1.521	7.15027
1.5215	9.56726
1.522	4.83398
1.5225	3.22266
1.523	4.22974
1.5235	8.56018
1.524	9.97009
1.5245	9.56726
1.525	11.68213
1.5255	6.84814
1.526	4.73328
1.5265	7.75452
1.527	4.73328
1.5275	11.78284
1.528	6.2439
1.5285	8.56018
1.529	10.67505
1.5295	5.94177
1.53	8.05664
1.5305	3.12195
1.531	5.53894
1.5315	6.14319
1.532	9.46655
1.5325	6.94885
1.533	6.14319
1.5335	7.35168
1.534	6.04248
1.5345	5.33752
1.535	6.14319
1.5355	2.92053
1.536	6.04248
1.5365	3.8269
1.537	7.04956
1.5375	5.94177
1.538	3.8269
1.5385	1.10779
1.539	6.04248
1.5395	6.64673
1.54	1.51062
1.5405	9.16443
1.541	4.12903
1.5415	0.70496
1.542	1.81274
1.5425	1.00708
1.543	3.02124
1.5435	1.81274
1.544	2.31628
1.5445	3.02124
1.545	4.93469
1.5455	6.84814
1.546	0.80566
1.5465	3.62549
1.547	0.40283
1.5475	0.50354
1.548	8.35876
1.5485	8.15735
1.549	8.35876
1.5495	5.94177
1.55	4.83398
1.5505	5.94177
1.551	6.94885
1.5515	5.84106
1.552	3.12195
1.5525	5.94177
1.553	1.40991
1.5535	6.2439
1.554	11.58142
1.5545	6.14319
1.555	4.02832
1.5555	6.84814
1.556	3.02124
1.5565	5.74036
1.557	5.0354
1.5575	0.90637
1.558	8.66089
1.5585	9.56726
1.559	10.77576
1.5595	16.41541
1.56	12.99133
1.5605	16.51611
1.561	14.30054
1.5615	9.86938
1.562	7.25098
1.5625	13.59558
1.563	6.64673
1.5635	9.56726
1.564	11.38
1.5645	5.43823
1.565	11.58142
1.5655	5.84106
1.566	7.04956
1.5665	5.23682
1.567	6.64673
1.5675	0.50354
1.568	-5.23682
1.5685	-4.43115
1.569	-5.74036
1.5695	-3.42407
1.57	-3.8269
1.5705	0.50354
1.571	-3.42407
1.5715	-3.52478
1.572	-3.12195
1.5725	1.81274
1.573	1.71204
1.5735	4.43115
1.574	-3.92761
1.5745	-3.02124
1.575	5.23682
1.5755	1.91345
1.576	5.74036
1.5765	3.32336
1.577	-0.80566
1.5775	3.62549
1.578	7.25098
1.5785	8.56018
1.579	7.25098
1.5795	4.63257
1.58	4.63257
1.5805	7.75452
1.581	8.25806
1.5815	5.63965
1.582	10.17151
1.5825	9.76868
1.583	0.90637
1.5835	6.64673
1.584	-3.92761
1.5845	4.93469
1.585	4.33044
1.5855	3.52478
1.586	7.25098
1.5865	11.98425
1.587	6.94885
1.5875	1.91345
1.588	2.61841
1.5885	2.81982
1.589	5.23682
1.5895	6.64673
1.59	3.62549
1.5905	10.27222
1.591	9.36584
1.5915	9.76868
1.592	8.8623
1.5925	12.99133
1.593	14.30054
1.5935	13.09204
1.594	9.26514
1.5945	-3.02124
1.595	3.42407
1.5955	0.40283
1.596	5.74036
1.5965	2.92053
1.597	2.61841
1.5975	2.81982
1.598	-1.00708
1.5985	4.73328
1.599	6.44531
1.5995	8.05664
1.6	9.16443
1.6005	7.85522
1.601	10.17151
1.6015	4.83398
1.602	5.0354
1.6025	6.64673
1.603	2.5177
1.6035	5.33752
1.604	6.3446
1.6045	4.63257
1.605	2.01416
1.6055	6.3446
1.606	4.73328
1.6065	4.63257
1.607	8.25806
1.6075	4.02832
1.608	6.04248
1.6085	1.51062
1.609	4.63257
1.6095	0.60425
1.61	-2.01416
1.6105	2.01416
1.611	5.63965
1.6115	7.95593
1.612	11.68213
1.6125	5.13611
1.613	4.22974
1.6135	2.21558
1.614	10.37292
1.6145	6.04248
1.615	11.68213
1.6155	10.57434
1.616	9.36584
1.6165	8.56018
1.617	7.95593
1.6175	9.46655
1.618	4.73328
1.6185	0.50354
1.619	8.7616
1.6195	11.38
1.62	5.84106
1.6205	4.22974
1.621	5.53894
1.6215	1.10779
1.622	7.45239
1.6225	5.74036
1.623	6.54602
1.6235	7.85522
1.624	4.22974
1.6245	7.35168
1.625	9.36584
1.6255	11.48071
1.626	13.59558
1.6265	8.7616
1.627	7.15027
1.6275	5.53894
1.628	10.57434
1.6285	3.52478
1.629	5.43823
1.6295	11.68213
1.63	6.04248
1.6305	8.35876
1.631	2.92053
1.6315	0.20142
1.632	-0.80566
1.6325	1.91345
1.633	0.70496
1.6335	-3.02124
1.634	4.63257
1.6345	1.00708
1.635	7.04956
1.6355	4.22974
1.636	4.53186
1.6365	4.63257
1.637	2.31628
1.6375	4.33044
1.638	-2.31628
1.6385	0.60425
1.639	3.92761
1.6395	1.61133
1.64	3.92761
1.6405	3.7262
1.641	2.81982
1.6415	1.3092
1.642	4.53186
1.6425	6.14319
1.643	1.91345
1.6435	6.44531
1.644	7.15027
1.6445	5.43823
1.645	5.23682
1.6455	3.62549
1.646	0.40283
1.6465	5.63965
1.647	8.35876
1.6475	5.23682
1.648	9.97009
1.6485	6.54602
1.649	8.7616
1.6495	8.35876
1.65	4.02832
1.6505	4.93469
1.651	4.22974
1.6515	2.92053
1.652	7.04956
1.6525	4.33044
1.653	3.22266
1.6535	6.3446
1.654	4.93469
1.6545	11.38
1.655	9.86938
1.6555	14.70337
1.656	12.08496
1.6565	19.23523
1.657	11.98425
1.6575	17.42249
1.658	11.78284
1.6585	11.78284
1.659	10.17151
1.6595	8.56018
1.66	2.61841
1.6605	14.40125
1.661	4.93469
1.6615	6.54602
1.662	5.43823
1.6625	3.92761
1.663	-0.70496
1.6635	2.81982
1.664	4.53186
1.6645	-2.5177
1.665	-0.10071
1.6655	-0.60425
1.666	3.12195
1.6665	1.00708
1.667	-1.40991
1.6675	-6.74744
1.668	2.41699
1.6685	4.93469
1.669	1.51062
1.6695	2.11487
1.67	4.53186
1.6705	5.0354
1.671	0.80566
1.6715	-0.90637
1.672	1.3092
1.6725	-4.73328
1.673	0.80566
1.6735	4.83398
1.674	5.63965
1.6745	0
1.675	0.80566
1.6755	7.95593
1.676	1.91345
1.6765	3.92761
1.677	3.42407
1.6775	6.64673
1.678	6.54602
1.6785	7.04956
1.679	2.11487
1.6795	1.00708
1.68	5.0354
1.6805	6.2439
1.681	4.63257
1.6815	4.93469
1.682	5.33752
1.6825	4.83398
1.683	1.81274
1.6835	7.5531
1.684	3.22266
1.6845	6.3446
1.685	6.84814
1.6855	8.35876
1.686	2.92053
1.6865	6.84814
1.687	9.36584
1.6875	6.04248
1.688	6.44531
1.6885	4.33044
1.689	9.66797
1.6895	7.65381
1.69	5.53894
1.6905	8.56018
1.691	8.96301
1.6915	13.09204
1.692	13.29346
1.6925	12.89062
1.693	11.17859
1.6935	5.43823
1.694	10.57434
1.6945	7.35168
1.695	10.87646
1.6955	3.92761
1.696	5.63965
1.6965	5.33752
1.697	7.85522
1.6975	5.63965
1.698	6.54602
1.6985	6.2439
1.699	0.90637
1.6995	1.81274
1.7	3.22266
1.7005	3.02124
1.701	10.47363
1.7015	1.81274
1.702	6.44531
1.7025	3.7262
1.703	4.43115
1.7035	5.63965
1.704	9.06372
1.7045	8.45947
1.705	12.28638
1.7055	13.49487
1.706	14.40125
1.7065	15.40833
1.707	10.87646
1.7075	11.58142
1.708	17.6239
1.7085	16.61682
1.709	13.09204
1.7095	10.87646
1.71	11.78284
1.7105	10.77576
1.711	6.04248
1.7115	1.91345
1.712	3.02124
1.7125	7.04956
1.713	4.73328
1.7135	-0.30212
1.714	-3.52478
1.7145	-4.22974
1.715	3.02124
1.7155	-4.83398
1.716	-2.61841
1.7165	0
1.717	-2.11487
1.7175	-2.31628
1.718	-3.32336
1.7185	2.71912
1.719	5.63965
1.7195	5.74036
1.72	0.80566
1.7205	4.53186
1.721	1.71204
1.7215	-2.5177
1.722	-0.10071
1.7225	-2.21558
1.723	2.71912
1.7235	4.63257
1.724	0.40283
1.7245	5.53894
1.725	3.42407
1.7255	7.04956
1.726	0.40283
1.7265	4.33044
1.727	4.22974
1.7275	9.16443
1.728	13.797
1.7285	12.28638
1.729	7.25098
1.7295	5.13611
1.73	6.04248
1.7305	1.91345
1.731	3.8269
1.7315	8.7616
1.732	6.84814
1.7325	5.84106
1.733	5.94177
1.7335	1.61133
1.734	6.54602
1.7345	6.54602
1.735	11.78284
1.7355	10.27222
1.736	5.74036
1.7365	5.94177
1.737	7.35168
1.7375	5.0354
1.738	6.2439
1.7385	8.05664
1.739	5.43823
1.7395	11.38
1.74	6.84814
1.7405	9.56726
1.741	5.0354
1.7415	8.66089
1.742	7.04956
1.7425	7.15027
1.743	8.96301
1.7435	8.56018
1.744	4.22974
1.7445	3.32336
1.745	7.95593
1.7455	5.43823
1.746	8.96301
1.7465	9.97009
1.747	4.93469
1.7475	6.14319
1.748	2.5177
1.7485	8.7616
1.749	6.74744
1.7495	8.15735
1.75	11.58142
1.7505	4.33044
1.751	7.45239
1.7515	5.33752
1.752	6.64673
1.7525	11.78284
1.753	5.74036
1.7535	4.73328
1.754	8.8623
1.7545	6.2439
1.755	5.0354
1.7555	7.95593
1.756	13.39417
1.7565	11.48071
1.757	6.84814
1.7575	4.02832
1.758	5.33752
1.7585	3.02124
1.759	7.45239
1.7595	3.32336
1.76	7.95593
1.7605	14.09912
1.761	4.63257
1.7615	4.02832
1.762	2.81982
1.7625	11.17859
1.763	4.02832
1.7635	4.12903
1.764	5.33752
1.7645	5.74036
1.765	6.54602
1.7655	-1.00708
1.766	3.22266
1.7665	5.33752
1.767	6.2439
1.7675	2.41699
1.768	4.43115
1.7685	8.35876
1.769	2.71912
1.7695	4.33044
1.77	4.83398
1.7705	-0.50354
1.771	6.2439
1.7715	1.81274
1.772	5.0354
1.7725	0.50354
1.773	8.66089
1.7735	5.63965
1.774	7.25098
1.7745	9.86938
1.775	8.45947
1.7755	12.28638
1.776	7.85522
1.7765	3.8269
1.777	7.15027
1.7775	9.16443
1.778	11.17859
1.7785	8.56018
1.779	8.7616
1.7795	3.02124
1.78	3.7262
1.7805	1.3092
1.781	-1.40991
1.7815	-6.2439
1.782	-8.05664
1.7825	-7.04956
1.783	-7.35168
1.7835	0.50354
1.784	5.53894
1.7845	7.45239
1.785	11.68213
1.7855	10.17151
1.786	12.18567
1.7865	9.66797
1.787	10.37292
1.7875	13.49487
1.788	15.1062
1.7885	7.35168
1.789	6.54602
1.7895	7.85522
1.79	3.8269
1.7905	1.81274
1.791	0.60425
1.7915	-4.93469
1.792	-8.8623
1.7925	-9.06372
1.793	-7.5531
1.7935	-15.1062
1.794	-14.80408
1.7945	-10.0708
1.795	-9.36584
1.7955	-9.26514
1.796	-6.14319
1.7965	2.11487
1.797	-6.3446
1.7975	-6.14319
1.798	3.02124
1.7985	-2.61841
1.799	7.85522
1.7995	3.42407
1.8	1.10779
1.8005	5.33752
1.801	5.43823
1.8015	9.56726
1.802	4.02832
1.8025	12.28638
1.803	10.57434
1.8035	12.78992
1.804	10.97717
1.8045	10.77576
1.805	5.0354
1.8055	2.61841
1.806	10.87646
1.8065	2.71912
1.807	8.56018
1.8075	5.0354
1.808	10.17151
1.8085	4.83398
1.809	6.2439
1.8095	12.99133
1.81	10.97717
1.8105	12.18567
1.811	6.94885
1.8115	5.94177
1.812	9.86938
1.8125	6.74744
1.813	6.44531
1.8135	5.33752
1.814	6.94885
1.8145	0.50354
1.815	3.92761
1.8155	1.3092
1.816	2.11487
1.8165	0.60425
1.817	-0.50354
1.8175	2.5177
1.818	5.94177
1.8185	0.20142
1.819	4.73328
1.8195	18.63098
1.82	33.83789
1.8205	46.72852
1.821	54.58374
1.8215	54.68445
1.822	55.3894
1.8225	60.3241
1.823	61.73401
1.8235	55.49011
1.824	45.11719
1.8245	41.4917
1.825	36.05347
1.8255	24.47205
1.826	11.07788
1.8265	4.93469
1.827	-7.95593
1.8275	-19.53735
1.828	-32.7301
1.8285	-41.08887
1.829	-41.29028
1.8295	-48.44055
1.83	-48.94409
1.8305	-53.97949
1.831	-52.06604
1.8315	-47.93701
1.832	-46.92993
1.8325	-32.12585
1.833	-24.37134
1.8335	-20.54443
1.834	-21.65222
1.8345	-14.50195
1.835	-11.38
1.8355	-11.2793
1.836	-2.71912
1.8365	0.40283
1.837	-0.70496
1.8375	4.02832
1.838	4.73328
1.8385	0.80566
1.839	2.41699
1.8395	6.44531
1.84	8.15735
1.8405	12.89062
1.841	22.05505
1.8415	29.20532
1.842	30.81665
1.8425	34.03931
1.843	31.62231
1.8435	29.80957
1.844	28.80249
1.8445	26.58691
1.845	26.78833
1.8455	25.78125
1.846	15.30762
1.8465	18.53027
1.847	12.89062
1.8475	9.26514
1.848	7.65381
1.8485	4.83398
1.849	0.60425
1.8495	-4.83398
1.85	-7.15027
1.8505	-9.86938
1.851	-5.84106
1.8515	-8.96301
1.852	-3.42407
1.8525	-10.97717
1.853	-9.97009
1.8535	-4.93469
1.854	-5.13611
1.8545	0.40283
1.855	0.10071
1.8555	7.75452
1.856	-0.70496
1.8565	3.22266
1.857	4.83398
1.8575	21.85364
1.858	29.60815
1.8585	34.24072
1.859	39.77966
1.8595	35.65063
1.86	35.54993
1.8605	31.4209
1.861	25.27771
1.8615	31.82373
1.862	19.03381
1.8625	19.53735
1.863	14.90479
1.8635	8.15735
1.864	8.56018
1.8645	-2.01416
1.865	-4.22974
1.8655	-9.86938
1.866	-9.06372
1.8665	-10.77576
1.867	-7.65381
1.8675	-8.35876
1.868	-7.15027
1.8685	-6.64673
1.869	-8.45947
1.8695	-6.14319
1.87	-12.18567
1.8705	-8.25806
1.871	-7.45239
1.8715	-4.93469
1.872	-6.3446
1.8725	0.10071
1.873	-3.8269
1.8735	-2.71912
1.874	0.70496
1.8745	-0.80566
1.875	-3.12195
1.8755	3.22266
1.876	1.71204
1.8765	9.06372
1.877	15.81116
1.8775	18.53027
1.878	16.11328
1.8785	27.39258
1.879	23.56567
1.8795	30.01099
1.88	28.19824
1.8805	24.27063
1.881	25.07629
1.8815	26.48621
1.882	40.08179
1.8825	37.7655
1.883	31.11877
1.8835	30.41382
1.884	30.61523
1.8845	30.31311
1.885	35.2478
1.8855	39.77966
1.886	45.82214
1.8865	38.47046
1.887	37.66479
1.8875	29.40674
1.888	28.09753
1.8885	20.64514
1.889	9.66797
1.8895	-2.81982
1.89	-16.3147
1.8905	-23.96851
1.891	-34.74426
1.8915	-34.34143
1.892	-42.19666
1.8925	-44.31152
1.893	-47.13135
1.8935	-52.36816
1.894	-51.36108
1.8945	-53.87878
1.895	-46.72852
1.8955	-46.32568
1.896	-42.49878
1.8965	-33.13293
1.897	-33.9386
1.8975	-26.48621
1.898	-19.13452
1.8985	-19.63806
1.899	-11.17859
1.8995	-4.63257
1.9	-5.84106
1.9005	-7.35168
1.901	1.00708
1.9015	6.84814
1.902	16.11328
1.9025	12.28638
1.903	8.25806
1.9035	10.67505
1.904	10.47363
1.9045	15.20691
1.905	13.09204
1.9055	14.50195
1.906	6.74744
1.9065	8.56018
1.907	6.74744
1.9075	12.38708
1.908	11.07788
1.9085	10.97717
1.909	15.40833
1.9095	7.75452
1.91	12.89062
1.9105	7.45239
1.911	5.63965
1.9115	2.31628
1.912	4.33044
1.9125	5.84106
1.913	10.27222
1.9135	11.2793
1.914	7.35168
1.9145	5.43823
1.915	4.02832
1.9155	8.56018
1.916	5.33752
1.9165	5.63965
1.917	13.29346
1.9175	10.97717
1.918	8.45947
1.9185	8.66089
1.919	9.76868
1.9195	12.38708
1.92	10.47363
1.9205	14.90479
1.921	10.77576
1.9215	22.05505
1.922	21.14868
1.9225	27.89612
1.923	22.25647
1.9235	23.26355
1.924	28.29895
1.9245	20.04089
1.925	17.12036
1.9255	14.90479
1.926	15.50903
1.9265	9.06372
1.927	10.0708
1.9275	2.61841
1.928	0.60425
1.9285	-0.70496
1.929	-8.96301
1.9295	-5.43823
1.93	-12.78992
1.9305	-7.85522
1.931	-8.15735
1.9315	-11.48071
1.932	-7.75452
1.9325	-5.94177
1.933	-3.52478
1.9335	-3.62549
1.934	-3.52478
1.9345	-7.45239
1.935	-4.02832
1.9355	0.20142
1.936	-2.81982
1.9365	2.21558
1.937	1.71204
1.9375	5.74036
1.938	5.94177
1.9385	2.71912
1.939	7.75452
1.9395	6.94885
1.94	3.22266
1.9405	4.83398
1.941	10.37292
1.9415	6.44531
1.942	10.67505
1.9425	8.45947
1.943	10.37292
1.9435	14.40125
1.944	7.15027
1.9445	5.84106
1.945	11.2793
1.9455	10.47363
1.946	11.68213
1.9465	6.14319
1.947	9.86938
1.9475	6.2439
1.948	6.64673
1.9485	8.56018
1.949	9.66797
1.9495	6.14319
1.95	8.8623
1.9505	8.8623
1.951	8.56018
1.9515	5.94177
1.952	12.28638
1.9525	4.73328
1.953	4.43115
1.9535	5.94177
1.954	6.2439
1.9545	4.43115
1.955	4.43115
1.9555	11.2793
1.956	8.66089
1.9565	6.3446
1.957	5.23682
1.9575	0.70496
1.958	0.70496
1.9585	2.61841
1.959	2.61841
1.9595	0.30212
1.96	3.42407
1.9605	7.75452
1.961	4.43115
1.9615	0.50354
1.962	3.12195
1.9625	8.7616
1.963	9.56726
1.9635	10.77576
1.964	9.26514
1.9645	7.65381
1.965	8.56018
1.9655	8.96301
1.966	16.61682
1.9665	11.58142
1.967	13.797
1.9675	9.97009
1.968	6.94885
1.9685	7.85522
1.969	6.14319
1.9695	5.63965
1.97	1.51062
1.9705	5.63965
1.971	-1.81274
1.9715	1.3092
1.972	-5.94177
1.9725	-3.42407
1.973	0
1.9735	2.21558
1.974	-3.02124
1.9745	2.5177
1.975	1.2085
1.9755	-2.81982
1.976	-0.50354
1.9765	-0.60425
1.977	8.35876
1.9775	6.04248
1.978	6.2439
1.9785	4.83398
1.979	6.44531
1.9795	6.74744
1.98	2.11487
1.9805	3.42407
1.981	0
1.9815	4.93469
1.982	5.53894
1.9825	11.2793
1.983	6.54602
1.9835	9.97009
1.984	4.73328
1.9845	10.47363
1.985	11.58142
1.9855	8.25806
1.986	9.66797
1.9865	10.47363
1.987	4.43115
1.9875	10.77576
1.988	4.02832
1.9885	8.15735
1.989	6.74744
1.9895	9.26514
1.99	11.68213
1.9905	8.15735
1.991	10.0708
1.9915	4.43115
1.992	11.48071
1.9925	6.74744
1.993	2.41699
1.9935	-2.92053
1.994	-3.22266
1.9945	0.30212
1.995	3.32336
1.9955	3.7262
1.996	3.12195
1.9965	9.76868
1.997	12.48779
1.9975	17.92603
1.998	25.27771
1.9985	21.45081
1.999	17.01965
1.9995	14.60266
2	15.30762
2.0005	14.09912
2.001	12.68921
2.0015	12.38708
2.002	8.8623
2.0025	6.14319
2.003	0.50354
2.0035	3.12195
2.004	-0.50354
2.0045	-2.61841
2.005	-1.40991
2.0055	-0.70496
2.006	-6.44531
2.0065	-2.31628
2.007	-3.7262
2.0075	-0.70496
2.008	-2.81982
2.0085	-2.71912
2.009	0.70496
2.0095	2.5177
2.01	0.20142
2.0105	-3.22266
2.011	-2.5177
2.0115	4.53186
2.012	0.60425
2.0125	6.04248
2.013	2.92053
2.0135	0.60425
2.014	-1.91345
2.0145	5.33752
2.015	6.84814
2.0155	0.80566
2.016	4.12903
2.0165	-3.02124
2.017	5.74036
2.0175	3.22266
2.018	2.92053
2.0185	10.97717
2.019	6.14319
2.0195	1.71204
2.02	6.64673
2.0205	3.52478
2.021	5.94177
2.0215	1.51062
2.022	3.52478
2.0225	6.74744
2.023	2.92053
2.0235	9.56726
2.024	4.63257
2.0245	3.22266
2.025	3.92761
2.0255	13.49487
2.026	1.2085
2.0265	0.20142
2.027	-2.81982
2.0275	5.74036
2.028	3.52478
2.0285	0.40283
2.029	10.67505
2.0295	11.2793
2.03	9.36584
2.0305	5.74036
2.031	1.81274
2.0315	3.8269
2.032	-0.80566
2.0325	4.53186
2.033	2.41699
2.0335	9.56726
2.034	9.97009
2.0345	7.15027
2.035	3.92761
2.0355	3.12195
2.036	8.7616
2.0365	8.45947
2.037	6.84814
2.0375	12.38708
2.038	15.1062
2.0385	11.78284
2.039	12.89062
2.0395	11.07788
2.04	11.68213
2.0405	12.08496
2.041	9.26514
2.0415	7.95593
2.042	5.74036
2.0425	6.44531
2.043	3.42407
2.0435	7.15027
2.044	2.92053
2.0445	5.84106
2.045	5.84106
2.0455	3.12195
2.046	-3.92761
2.0465	0.70496
2.047	1.10779
2.0475	5.43823
2.048	1.91345
2.0485	5.94177
2.049	3.42407
2.0495	5.74036
2.05	7.75452
2.0505	10.37292
2.051	6.2439
2.0515	2.21558
2.052	3.7262
2.0525	6.74744
2.053	2.11487
2.0535	1.2085
2.054	-1.81274
2.0545	6.14319
2.055	4.33044
2.0555	8.25806
2.056	4.63257
2.0565	10.57434
2.057	9.76868
2.0575	5.63965
2.058	4.93469
2.0585	3.92761
2.059	5.33752
2.0595	11.38
2.06	8.8623
2.0605	3.12195
2.061	9.06372
2.0615	5.23682
2.062	8.66089
2.0625	8.8623
2.063	2.92053
2.0635	7.45239
2.064	9.86938
2.0645	7.75452
2.065	10.37292
2.0655	8.7616
2.066	10.67505
2.0665	5.94177
2.067	9.97009
2.0675	6.74744
2.068	5.84106
2.0685	8.8623
2.069	8.7616
2.0695	7.04956
2.07	5.43823
2.0705	9.16443
2.071	14.90479
2.0715	4.02832
2.072	6.2439
2.0725	7.45239
2.073	11.78284
2.0735	6.44531
2.074	9.97009
2.0745	7.95593
2.075	7.5531
2.0755	2.11487
2.076	4.63257
2.0765	8.45947
2.077	2.71912
2.0775	13.797
2.078	9.56726
2.0785	7.35168
2.079	3.12195
2.0795	4.53186
2.08	6.04248
2.0805	0.30212
2.081	1.10779
2.0815	0.10071
2.082	-0.70496
2.0825	8.35876
2.083	6.14319
2.0835	6.64673
2.084	5.33752
2.0845	9.06372
2.085	7.35168
2.0855	4.33044
2.086	8.66089
2.0865	9.36584
2.087	8.35876
2.0875	6.54602
2.088	6.2439
2.0885	0.90637
2.089	5.23682
2.0895	8.45947
2.09	2.5177
2.0905	7.35168
2.091	8.15735
2.0915	3.7262
2.092	9.66797
2.0925	7.45239
2.093	6.54602
2.0935	1.40991
2.094	6.14319
2.0945	9.97009
2.095	6.04248
2.0955	3.22266
2.096	6.04248
2.0965	6.2439
2.097	3.8269
2.0975	1.81274
2.098	-1.71204
2.0985	4.43115
2.099	3.12195
2.0995	7.85522
2.1	5.53894
2.1005	1.3092
2.101	2.11487
2.1015	3.8269
2.102	6.2439
2.1025	6.04248
2.103	2.5177
2.1035	5.63965
2.104	3.42407
2.1045	5.53894
2.105	2.21558
2.1055	4.73328
2.106	5.23682
2.1065	6.64673
2.107	3.32336
2.1075	5.33752
2.108	2.61841
2.1085	4.22974
2.109	9.56726
2.1095	7.45239
2.11	3.32336
2.1105	9.26514
2.111	9.66797
2.1115	5.0354
2.112	9.56726
2.1125	6.84814
2.113	4.53186
2.1135	5.74036
2.114	5.63965
2.1145	5.94177
2.115	5.0354
2.1155	2.71912
2.116	7.45239
2.1165	5.84106
2.117	9.46655
2.1175	7.65381
2.118	10.57434
2.1185	11.68213
2.119	7.04956
2.1195	10.0708
2.12	5.43823
2.1205	6.44531
2.121	9.16443
2.1215	6.84814
2.122	6.64673
2.1225	6.44531
2.123	14.70337
2.1235	10.47363
2.124	6.04248
2.1245	9.56726
2.125	9.36584
2.1255	7.85522
2.126	6.2439
2.1265	8.05664
2.127	3.62549
2.1275	-2.71912
2.128	1.81274
2.1285	-0.30212
2.129	6.94885
2.1295	4.63257
2.13	1.10779
2.1305	2.31628
2.131	6.04248
2.1315	6.74744
2.132	5.23682
2.1325	6.44531
2.133	8.45947
2.1335	11.2793
2.134	5.63965
2.1345	3.32336
2.135	2.31628
2.1355	2.11487
2.136	7.65381
2.1365	1.00708
2.137	4.43115
2.1375	4.73328
2.138	4.63257
2.1385	4.43115
2.139	4.73328
2.1395	7.04956
2.14	7.25098
2.1405	6.64673
2.141	2.71912
2.1415	7.04956
2.142	12.68921
2.1425	4.12903
2.143	7.65381
2.1435	9.16443
2.144	4.93469
2.1445	8.8623
2.145	7.25098
2.1455	7.75452
2.146	-0.10071
2.1465	5.84106
2.147	4.33044
2.1475	2.01416
2.148	4.33044
2.1485	0.70496
2.149	1.2085
2.1495	11.2793
2.15	6.84814
2.1505	4.43115
2.151	-0.40283
2.1515	3.92761
2.152	-2.41699
2.1525	6.74744
2.153	2.92053
2.1535	4.83398
2.154	4.93469
2.1545	10.67505
2.155	4.93469
2.1555	3.22266
2.156	-0.10071
2.1565	-3.52478
2.157	1.81274
2.1575	6.64673
2.158	5.84106
2.1585	0.20142
2.159	0.40283
2.1595	-1.61133
2.16	2.61841
2.1605	3.62549
2.161	8.25806
2.1615	8.66089
2.162	10.0708
2.1625	6.94885
2.163	4.83398
2.1635	4.22974
2.164	15.00549
2.1645	6.2439
2.165	7.04956
2.1655	8.56018
2.166	11.48071
2.1665	10.87646
2.167	-1.00708
2.1675	3.92761
2.168	0.90637
2.1685	5.43823
2.169	5.53894
2.1695	8.8623
2.17	9.36584
2.1705	6.3446
2.171	7.25098
2.1715	7.65381
2.172	1.91345
2.1725	3.12195
2.173	6.14319
2.1735	8.96301
2.174	7.45239
2.1745	6.54602
2.175	2.21558
2.1755	-0.10071
2.176	2.5177
2.1765	0.20142
2.177	3.92761
2.1775	4.22974
2.178	3.12195
2.1785	1.51062
2.179	-0.30212
2.1795	-0.20142
2.18	2.21558
2.1805	5.43823
2.181	0.20142
2.1815	1.61133
2.182	5.63965
2.1825	7.75452
2.183	2.81982
2.1835	7.75452
2.184	8.15735
2.1845	3.7262
2.185	7.65381
2.1855	0.80566
2.186	-4.63257
2.1865	-1.2085
2.187	1.10779
2.1875	2.81982
2.188	4.73328
2.1885	6.14319
2.189	0.90637
2.1895	9.26514
2.19	6.64673
2.1905	8.45947
2.191	6.2439
2.1915	2.31628
2.192	2.61841
2.1925	4.22974
2.193	9.16443
2.1935	8.25806
2.194	7.35168
2.1945	5.0354
2.195	5.63965
2.1955	7.5531
2.196	8.56018
2.1965	5.94177
2.197	3.7262
2.1975	6.2439
2.198	6.3446
2.1985	4.93469
2.199	5.74036
2.1995	10.87646
2.2	6.94885
2.2005	5.43823
2.201	7.25098
2.2015	3.62549
2.202	0.80566
2.2025	6.94885
2.203	3.42407
2.2035	-2.41699
2.204	-0.70496
2.2045	-2.31628
2.205	2.11487
2.2055	-0.60425
2.206	2.61841
2.2065	6.14319
2.207	5.53894
2.2075	-0.90637
2.208	2.71912
2.2085	4.02832
2.209	2.41699
2.2095	6.04248
2.21	6.74744
2.2105	4.53186
2.211	0.50354
2.2115	-1.81274
2.212	5.0354
2.2125	4.12903
2.213	5.74036
2.2135	6.94885
2.214	10.57434
2.2145	4.73328
2.215	7.95593
2.2155	3.22266
2.216	0.20142
2.2165	3.62549
2.217	5.13611
2.2175	2.81982
2.218	5.13611
2.2185	3.42407
2.219	6.3446
2.2195	4.93469
2.22	5.33752
2.2205	4.93469
2.221	8.7616
2.2215	3.8269
2.222	4.63257
2.2225	2.81982
2.223	8.15735
2.2235	5.23682
2.224	10.67505
2.2245	9.46655
2.225	5.0354
2.2255	4.93469
2.226	5.74036
2.2265	8.35876
2.227	7.85522
2.2275	5.43823
2.228	7.35168
2.2285	8.7616
2.229	3.32336
2.2295	2.71912
2.23	5.33752
2.2305	8.96301
2.231	0.80566
2.2315	5.94177
2.232	4.73328
2.2325	4.12903
2.233	5.74036
2.2335	6.2439
2.234	-0.10071
2.2345	-0.60425
2.235	5.74036
2.2355	1.61133
2.236	4.73328
2.2365	1.71204
2.237	1.3092
2.2375	4.53186
2.238	3.32336
2.2385	5.0354
2.239	1.2085
2.2395	4.93469
2.24	1.40991
2.2405	5.74036
2.241	1.2085
2.2415	-1.51062
2.242	6.54602
2.2425	8.35876
2.243	9.76868
2.2435	6.3446
2.244	-2.81982
2.2445	1.00708
2.245	1.40991
2.2455	3.8269
2.246	4.73328
2.2465	3.22266
2.247	3.02124
2.2475	4.73328
2.248	3.32336
2.2485	1.61133
2.249	7.25098
2.2495	5.63965
2.25	8.35876
2.2505	7.75452
2.251	6.84814
2.2515	6.44531
2.252	9.36584
2.2525	12.08496
2.253	11.38
2.2535	13.39417
2.254	6.44531
2.2545	12.48779
2.255	6.2439
2.2555	8.05664
2.256	11.58142
2.2565	5.63965
2.257	3.42407
2.2575	4.83398
2.258	-3.8269
2.2585	1.3092
2.259	6.64673
2.2595	7.5531
2.26	2.61841
2.2605	1.81274
2.261	1.3092
2.2615	6.3446
2.262	2.21558
2.2625	-0.40283
2.263	1.81274
2.2635	4.53186
2.264	11.68213
2.2645	6.14319
2.265	6.64673
2.2655	9.76868
2.266	7.75452
2.2665	9.26514
2.267	10.67505
2.2675	13.19275
2.268	6.54602
2.2685	9.26514
2.269	4.93469
2.2695	6.2439
2.27	11.48071
2.2705	9.97009
2.271	8.35876
2.2715	1.61133
2.272	7.75452
2.2725	6.74744
2.273	5.53894
2.2735	8.35876
2.274	5.74036
2.2745	3.7262
2.275	5.43823
2.2755	10.27222
2.276	13.797
2.2765	3.52478
2.277	5.33752
2.2775	8.25806
2.278	10.57434
2.2785	3.52478
2.279	8.96301
2.2795	9.56726
2.28	10.37292
2.2805	10.27222
2.281	5.23682
2.2815	8.7616
2.282	7.15027
2.2825	9.76868
2.283	6.44531
2.2835	4.43115
2.284	1.71204
2.2845	3.52478
2.285	6.44531
2.2855	4.63257
2.286	2.71912
2.2865	5.74036
2.287	11.68213
2.2875	2.61841
2.288	3.42407
2.2885	9.97009
2.289	7.35168
2.2895	7.35168
2.29	5.53894
2.2905	9.56726
2.291	8.45947
2.2915	6.64673
2.292	9.36584
2.2925	7.04956
2.293	6.64673
2.2935	2.41699
2.294	8.96301
2.2945	13.797
2.295	12.18567
2.2955	3.7262
2.296	4.63257
2.2965	8.66089
2.297	3.32336
2.2975	2.41699
2.298	5.53894
2.2985	7.65381
2.299	8.7616
2.2995	10.87646
2.3	7.85522
2.3005	5.23682
2.301	4.12903
2.3015	5.84106
2.302	3.02124
2.3025	9.06372
2.303	8.66089
2.3035	3.42407
2.304	0.50354
2.3045	6.74744
2.305	8.35876
2.3055	4.12903
2.306	8.8623
2.3065	4.12903
2.307	10.47363
2.3075	9.46655
2.308	12.08496
2.3085	10.0708
2.309	3.32336
2.3095	13.99841
2.31	3.92761
2.3105	10.57434
2.311	3.22266
2.3115	5.43823
2.312	7.15027
2.3125	7.04956
2.313	8.7616
2.3135	1.10779
2.314	3.22266
2.3145	5.43823
2.315	8.45947
2.3155	10.57434
2.316	4.53186
2.3165	2.11487
2.317	3.92761
2.3175	3.8269
2.318	3.8269
2.3185	4.33044
2.319	7.15027
2.3195	10.17151
2.32	2.41699
2.3205	4.33044
2.321	5.43823
2.3215	12.08496
2.322	8.96301
2.3225	1.71204
2.323	6.74744
2.3235	2.41699
2.324	6.64673
2.3245	9.76868
2.325	7.45239
2.3255	9.36584
2.326	2.61841
2.3265	9.97009
2.327	9.66797
2.3275	3.8269
2.328	10.67505
2.3285	5.13611
2.329	5.63965
2.3295	6.94885
2.33	-2.41699
2.3305	2.92053
2.331	3.42407
2.3315	8.45947
2.332	2.61841
2.3325	7.5531
2.333	0.30212
2.3335	2.71912
2.334	7.65381
2.3345	1.81274
2.335	6.3446
2.3355	0.90637
2.336	3.02124
2.3365	2.11487
2.337	8.8623
2.3375	1.10779
2.338	2.21558
2.3385	1.81274
2.339	-1.10779
2.3395	5.94177
2.34	6.64673
2.3405	6.14319
2.341	6.2439
2.3415	7.95593
2.342	4.33044
2.3425	6.54602
2.343	6.54602
2.3435	12.18567
2.344	9.36584
2.3445	6.74744
2.345	4.33044
2.3455	6.54602
2.346	6.44531
2.3465	7.85522
2.347	7.75452
2.3475	-0.90637
2.348	12.68921
2.3485	4.53186
2.349	5.94177
2.3495	-0.10071
2.35	4.22974
2.3505	9.86938
2.351	9.56726
2.3515	8.25806
2.352	3.42407
2.3525	8.96301
2.353	3.7262
2.3535	9.06372
2.354	8.7616
2.3545	5.33752
2.355	6.64673
2.3555	5.33752
2.356	8.66089
2.3565	5.63965
2.357	5.0354
2.3575	4.73328
2.358	4.73328
2.3585	8.8623
2.359	9.86938
2.3595	5.23682
2.36	5.84106
2.3605	6.04248
2.361	9.66797
2.3615	7.95593
2.362	8.05664
2.3625	2.71912
2.363	4.53186
2.3635	5.0354
2.364	5.53894
2.3645	5.94177
2.365	5.74036
2.3655	10.0708
2.366	4.63257
2.3665	4.53186
2.367	12.28638
2.3675	7.95593
2.368	7.45239
2.3685	6.84814
2.369	5.23682
2.3695	1.61133
2.37	1.81274
2.3705	4.02832
2.371	0.50354
2.3715	7.15027
2.372	0.40283
2.3725	5.84106
2.373	3.12195
2.3735	0.90637
2.374	3.7262
2.3745	4.83398
2.375	2.21558
2.3755	-1.71204
2.376	7.04956
2.3765	-2.81982
2.377	-1.40991
2.3775	2.61841
2.378	3.22266
2.3785	1.40991
2.379	-0.80566
2.3795	-0.20142
2.38	-5.63965
2.3805	0.90637
2.381	4.12903
2.3815	3.92761
2.382	7.75452
2.3825	-1.71204
2.383	4.33044
2.3835	0.70496
2.384	-0.20142
2.3845	-4.02832
2.385	1.51062
2.3855	8.15735
2.386	1.71204
2.3865	-2.61841
2.387	-0.60425
2.3875	5.94177
2.388	5.43823
2.3885	7.85522
2.389	8.8623
2.3895	6.74744
2.39	9.76868
2.3905	6.04248
2.391	10.67505
2.3915	7.75452
2.392	6.04248
2.3925	2.21558
2.393	4.73328
2.3935	7.95593
2.394	6.44531
2.3945	6.74744
2.395	9.16443
2.3955	9.46655
2.396	9.06372
2.3965	7.5531
2.397	7.95593
2.3975	1.3092
2.398	3.92761
2.3985	14.70337
2.399	6.74744
2.3995	0.90637
2.4	7.35168
2.4005	4.83398
2.401	1.51062
2.4015	8.7616
2.402	3.12195
2.4025	6.2439
2.403	7.25098
2.4035	7.65381
2.404	7.35168
2.4045	8.96301
2.405	6.2439
2.4055	6.64673
2.406	7.75452
2.4065	5.13611
2.407	4.83398
2.4075	3.8269
2.408	3.22266
2.4085	7.95593
2.409	3.7262
2.4095	7.25098
2.41	6.04248
2.4105	7.35168
2.411	4.53186
2.4115	3.62549
2.412	6.04248
2.4125	4.33044
2.413	3.02124
2.4135	0.80566
2.414	6.44531
2.4145	3.92761
2.415	5.13611
2.4155	8.45947
2.416	3.7262
2.4165	6.54602
2.417	7.15027
2.4175	9.56726
2.418	8.45947
2.4185	4.63257
2.419	5.13611
2.4195	2.92053
2.42	0.20142
2.4205	2.81982
2.421	2.01416
2.4215	5.94177
2.422	6.74744
2.4225	5.63965
2.423	1.3092
2.4235	7.04956
2.424	6.04248
2.4245	8.15735
2.425	7.75452
2.4255	6.74744
2.426	7.75452
2.4265	4.73328
2.427	6.04248
2.4275	7.5531
2.428	6.84814
2.4285	4.93469
2.429	3.7262
2.4295	4.93469
2.43	8.8623
2.4305	13.19275
2.431	1.91345
2.4315	7.15027
2.432	8.15735
2.4325	3.32336
2.433	8.8623
2.4335	3.22266
2.434	3.22266
2.4345	7.45239
2.435	7.85522
2.4355	7.65381
2.436	3.52478
2.4365	2.92053
2.437	5.33752
2.4375	9.06372
2.438	7.25098
2.4385	7.75452
2.439	7.85522
2.4395	5.13611
2.44	7.85522
2.4405	4.53186
2.441	2.71912
2.4415	-1.00708
2.442	1.91345
2.4425	6.14319
2.443	3.8269
2.4435	1.51062
2.444	4.43115
2.4445	3.8269
2.445	4.02832
2.4455	1.40991
2.446	4.83398
2.4465	-0.30212
2.447	4.02832
2.4475	5.33752
2.448	7.04956
2.4485	2.5177
2.449	0.50354
2.4495	0.90637
2.45	0
2.4505	-0.50354
2.451	-0.60425
2.4515	-0.20142
2.452	8.96301
2.4525	6.44531
2.453	6.3446
2.4535	5.53894
2.454	5.53894
2.4545	4.63257
2.455	4.12903
2.4555	11.58142
2.456	7.65381
2.4565	5.33752
2.457	7.04956
2.4575	7.04956
2.458	8.96301
2.4585	8.56018
2.459	7.5531
2.4595	15.40833
2.46	5.63965
2.4605	9.46655
2.461	2.92053
2.4615	3.22266
2.462	7.85522
2.4625	8.7616
2.463	9.16443
2.4635	12.5885
2.464	11.2793
2.4645	10.0708
2.465	11.68213
2.4655	9.46655
2.466	8.7616
2.4665	6.3446
2.467	5.84106
2.4675	10.37292
2.468	6.44531
2.4685	8.05664
2.469	3.62549
2.4695	7.04956
2.47	5.43823
2.4705	8.35876
2.471	0.50354
2.4715	8.25806
2.472	6.54602
2.4725	8.35876
2.473	6.2439
2.4735	1.81274
2.474	7.95593
2.4745	8.56018
2.475	6.94885
2.4755	9.06372
2.476	7.95593
2.4765	9.06372
2.477	3.62549
2.4775	7.95593
2.478	3.92761
2.4785	-1.71204
2.479	3.02124
2.4795	0.90637
2.48	6.54602
2.4805	1.81274
2.481	3.42407
2.4815	0.50354
2.482	1.91345
2.4825	13.49487
2.483	2.31628
2.4835	2.71912
2.484	3.8269
2.4845	4.53186
2.485	3.22266
2.4855	3.22266
2.486	6.84814
2.4865	0.10071
2.487	-0.40283
2.4875	3.7262
2.488	2.31628
2.4885	7.25098
2.489	7.75452
2.4895	1.81274
2.49	6.14319
2.4905	5.94177
2.491	2.41699
2.4915	5.13611
2.492	2.5177
2.4925	0.20142
2.493	4.73328
2.4935	9.76868
2.494	4.53186
2.4945	-2.61841
2.495	6.64673
2.4955	4.33044
2.496	7.85522
2.4965	6.64673
2.497	4.33044
2.4975	6.3446
2.498	7.25098
2.4985	6.64673
2.499	6.14319
2.4995	12.28638
2.5	12.99133
2.5005	10.47363
2.501	9.97009
2.5015	1.61133
2.502	10.47363
2.5025	8.25806
2.503	13.797
2.5035	9.46655
2.504	4.33044
2.5045	8.96301
2.505	-0.30212
2.5055	6.94885
2.506	7.04956
2.5065	4.73328
2.507	5.33752
2.5075	-3.02124
2.508	0.90637
2.5085	3.12195
2.509	-0.40283
2.5095	3.12195
2.51	4.33044
2.5105	8.35876
2.511	6.64673
2.5115	4.22974
2.512	5.0354
2.5125	4.43115
2.513	6.44531
2.5135	6.54602
2.514	6.04248
2.5145	3.12195
2.515	4.93469
2.5155	4.12903
2.516	6.04248
2.5165	8.35876
2.517	3.7262
2.5175	5.63965
2.518	4.33044
2.5185	4.93469
2.519	2.01416
2.5195	5.53894
2.52	4.02832
2.5205	6.3446
2.521	5.74036
2.5215	5.0354
2.522	3.12195
2.5225	4.53186
2.523	0.10071
2.5235	6.44531
2.524	2.41699
2.5245	6.64673
2.525	4.12903
2.5255	0.80566
2.526	3.32336
2.5265	4.73328
2.527	8.15735
2.5275	3.52478
2.528	5.63965
2.5285	0.80566
2.529	4.73328
2.5295	4.93469
2.53	5.43823
2.5305	2.21558
2.531	3.22266
2.5315	5.94177
2.532	1.40991
2.5325	2.71912
2.533	3.22266
2.5335	0.20142
2.534	2.81982
2.5345	-0.70496
2.535	8.7616
2.5355	5.74036
2.536	6.84814
2.5365	-0.10071
2.537	3.7262
2.5375	1.71204
2.538	2.01416
2.5385	0.40283
2.539	-0.20142
2.5395	-0.70496
2.54	3.22266
2.5405	-1.40991
2.541	3.02124
2.5415	4.63257
2.542	3.22266
2.5425	2.71912
2.543	3.7262
2.5435	3.52478
2.544	0.90637
2.5445	7.65381
2.545	3.22266
2.5455	3.42407
2.546	0.90637
2.5465	0.90637
2.547	4.02832
2.5475	2.61841
2.548	2.81982
2.5485	0.70496
2.549	5.63965
2.5495	6.84814
2.55	4.12903
2.5505	5.84106
2.551	1.91345
2.5515	6.54602
2.552	4.83398
2.5525	1.91345
2.553	8.8623
2.5535	4.63257
2.554	9.36584
2.5545	9.66797
2.555	0.90637
2.5555	5.0354
2.556	13.89771
2.5565	15.20691
2.557	9.06372
2.5575	7.15027
2.558	8.15735
2.5585	14.50195
2.559	10.57434
2.5595	10.67505
2.56	10.47363
2.5605	6.94885
2.561	6.14319
2.5615	3.7262
2.562	3.22266
2.5625	1.3092
2.563	2.21558
2.5635	6.04248
2.564	2.11487
2.5645	-0.50354
2.565	-2.11487
2.5655	-1.00708
2.566	-1.61133
2.5665	1.71204
2.567	5.13611
2.5675	-1.00708
2.568	1.2085
2.5685	6.3446
2.569	7.85522
2.5695	5.43823
2.57	3.92761
2.5705	10.47363
2.571	4.73328
2.5715	0.20142
2.572	2.61841
2.5725	-2.01416
2.573	1.10779
2.5735	-1.40991
2.574	0.60425
2.5745	-1.3092
2.575	3.7262
2.5755	3.02124
2.576	0.50354
2.5765	7.04956
2.577	5.74036
2.5775	5.33752
2.578	5.53894
2.5785	7.25098
2.579	13.797
2.5795	11.68213
2.58	13.99841
2.5805	7.15027
2.581	7.25098
2.5815	6.2439
2.582	9.36584
2.5825	15.60974
2.583	13.39417
2.5835	10.47363
2.584	11.17859
2.5845	11.78284
2.585	18.02673
2.5855	17.52319
2.586	19.73877
2.5865	18.22815
2.587	18.8324
2.5875	19.73877
2.588	15.50903
2.5885	11.88354
2.589	14.70337
2.5895	17.01965
2.59	8.7616
2.5905	8.25806
2.591	7.75452
2.5915	0.30212
2.592	3.42407
2.5925	-8.56018
2.593	-2.21558
2.5935	-10.17151
2.594	-7.04956
2.5945	-14.90479
2.595	-12.38708
2.5955	-11.98425
2.596	-12.5885
2.5965	-15.60974
2.597	-15.60974
2.5975	-7.5531
2.598	-5.23682
2.5985	-4.53186
2.599	-4.63257
2.5995	0.20142
2.6	3.7262
2.6005	-6.14319
2.601	-2.21558
2.6015	-3.92761
2.602	2.01416
2.6025	2.31628
2.603	-0.80566
2.6035	1.61133
2.604	0.40283
2.6045	6.84814
2.605	8.35876
2.6055	1.91345
2.606	3.12195
2.6065	7.35168
2.607	9.56726
2.6075	6.64673
2.608	7.95593
2.6085	7.25098
2.609	8.66089
2.6095	10.47363
2.61	3.02124
2.6105	7.65381
2.611	3.12195
2.6115	5.84106
2.612	12.18567
2.6125	8.45947
2.613	8.35876
2.6135	9.06372
2.614	11.17859
2.6145	25.98267
2.615	42.09595
2.6155	58.10852
2.616	73.31543
2.6165	69.99207
2.617	73.41614
2.6175	71.7041
2.618	66.36658
2.6185	64.85596
2.619	58.61206
2.6195	53.17383
2.62	46.62781
2.6205	29.10461
2.621	18.8324
2.6215	5.84106
2.622	-2.11487
2.6225	-16.81824
2.623	-32.02515
2.6235	-42.90161
2.624	-49.54834
2.6245	-55.3894
2.625	-62.13684
2.6255	-60.92834
2.626	-54.98657
2.6265	-50.75684
2.627	-47.53418
2.6275	-42.29736
2.628	-40.88745
2.6285	-34.34143
2.629	-27.6947
2.6295	-18.02673
2.63	-13.59558
2.6305	-12.5885
2.631	-6.04248
2.6315	-6.84814
2.632	-0.60425
2.6325	3.12195
2.633	-1.71204
2.6335	7.25098
2.634	5.94177
2.6345	1.61133
2.635	-2.31628
2.6355	3.32336
2.636	6.64673
2.6365	6.14319
2.637	7.45239
2.6375	9.86938
2.638	3.8269
2.6385	10.87646
2.639	10.77576
2.6395	9.36584
2.64	10.57434
2.6405	9.56726
2.641	6.94885
2.6415	6.84814
2.642	10.97717
2.6425	10.27222
2.643	9.76868
2.6435	15.40833
2.644	12.38708
2.6445	16.11328
2.645	9.16443
2.6455	11.38
2.646	12.08496
2.6465	11.58142
2.647	10.77576
2.6475	7.5531
2.648	7.85522
2.6485	8.25806
2.649	6.3446
2.6495	10.0708
2.65	2.11487
2.6505	-1.10779
2.651	0
2.6515	3.8269
2.652	3.12195
2.6525	6.94885
2.653	5.84106
2.6535	13.99841
2.654	14.70337
2.6545	17.42249
2.655	20.34302
2.6555	18.02673
2.656	22.6593
2.6565	19.13452
2.657	19.23523
2.6575	19.83948
2.658	12.28638
2.6585	12.89062
2.659	8.7616
2.6595	8.56018
2.66	5.53894
2.6605	-3.22266
2.661	0
2.6615	-8.05664
2.662	-6.94885
2.6625	-5.33752
2.663	-8.96301
2.6635	-5.94177
2.664	-6.64673
2.6645	-0.20142
2.665	-5.0354
2.6655	-6.44531
2.666	-3.7262
2.6665	-0.20142
2.667	-5.94177
2.6675	-1.2085
2.668	0.90637
2.6685	4.73328
2.669	4.12903
2.6695	6.14319
2.67	10.37292
2.6705	9.06372
2.671	10.47363
2.6715	10.87646
2.672	12.78992
2.6725	5.23682
2.673	6.64673
2.6735	2.21558
2.674	7.65381
2.6745	1.61133
2.675	2.5177
2.6755	6.94885
2.676	0.50354
2.6765	6.54602
2.677	2.01416
2.6775	-4.22974
2.678	0
2.6785	-0.90637
2.679	2.41699
2.6795	-4.12903
2.68	7.35168
2.6805	6.2439
2.681	2.92053
2.6815	-1.10779
2.682	7.35168
2.6825	5.33752
2.683	4.12903
2.6835	7.75452
2.684	8.96301
2.6845	4.43115
2.685	9.97009
2.6855	9.97009
2.686	8.8623
2.6865	7.95593
2.687	1.3092
2.6875	3.12195
2.688	9.66797
2.6885	9.26514
2.689	3.12195
2.6895	7.35168
2.69	3.52478
2.6905	8.96301
2.691	0.40283
2.6915	6.14319
2.692	4.63257
2.6925	7.15027
2.693	11.07788
2.6935	5.94177
2.694	6.74744
2.6945	6.94885
2.695	3.02124
2.6955	6.04248
2.696	6.04248
2.6965	9.66797
2.697	14.40125
2.6975	17.52319
2.698	18.22815
2.6985	17.01965
2.699	17.12036
2.6995	16.41541
2.7	17.42249
2.7005	12.38708
2.701	11.2793
2.7015	11.17859
2.702	2.11487
2.7025	6.74744
2.703	2.81982
2.7035	3.92761
2.704	1.91345
2.7045	1.3092
2.705	-0.80566
2.7055	-2.5177
2.706	2.5177
2.7065	-3.12195
2.707	2.71912
2.7075	-0.90637
2.708	1.10779
2.7085	5.23682
2.709	3.32336
2.7095	2.92053
2.71	4.22974
2.7105	3.8269
2.711	5.63965
2.7115	4.63257
2.712	6.74744
2.7125	4.93469
2.713	1.61133
2.7135	5.94177
2.714	7.75452
2.7145	6.64673
2.715	6.74744
2.7155	12.18567
2.716	4.63257
2.7165	7.45239
2.717	6.74744
2.7175	7.5531
2.718	4.43115
2.7185	1.2085
2.719	7.04956
2.7195	4.33044
2.72	8.35876
2.7205	9.76868
2.721	13.39417
2.7215	13.19275
2.722	4.12903
2.7225	13.39417
2.723	10.17151
2.7235	10.47363
2.724	9.16443
2.7245	10.67505
2.725	12.89062
2.7255	1.10779
2.726	1.2085
2.7265	4.02832
2.727	4.93469
2.7275	4.33044
2.728	6.74744
2.7285	6.74744
2.729	-1.2085
2.7295	2.61841
2.73	-0.20142
2.7305	8.66089
2.731	14.90479
2.7315	23.36426
2.732	25.78125
2.7325	21.24939
2.733	24.67346
2.7335	30.11169
2.734	27.89612
2.7345	30.61523
2.735	18.12744
2.7355	20.64514
2.736	17.12036
2.7365	10.0708
2.737	14.50195
2.7375	33.13293
2.738	56.29578
2.7385	65.25879
2.739	68.07861
2.7395	64.151
2.74	63.24463
2.7405	58.51135
2.741	52.67029
2.7415	43.40515
2.742	31.52161
2.7425	18.42957
2.743	6.3446
2.7435	-5.33752
2.744	-19.03381
2.7445	-35.2478
2.745	-31.82373
2.7455	-29.91028
2.746	-25.57983
2.7465	-34.54285
2.747	-29.70886
2.7475	-32.12585
2.748	-29.40674
2.7485	-30.91736
2.749	-30.2124
2.7495	-27.09045
2.75	-30.71594
2.7505	-31.32019
2.751	-27.49329
2.7515	-32.83081
2.752	-21.3501
2.7525	-25.47913
2.753	-31.62231
2.7535	-30.61523
2.754	-26.48621
2.7545	-28.50037
2.755	-32.93152
2.7555	-30.31311
2.756	-33.83789
2.7565	-27.49329
2.757	-23.96851
2.7575	-20.1416
2.758	-18.42957
2.7585	-11.78284
2.759	-9.16443
2.7595	-5.43823
2.76	-6.84814
2.7605	2.61841
2.761	2.81982
2.7615	4.63257
2.762	4.83398
2.7625	7.45239
2.763	6.94885
2.7635	6.64673
2.764	5.94177
2.7645	15.50903
2.765	14.40125
2.7655	15.00549
2.766	17.22107
2.7665	16.21399
2.767	15.81116
2.7675	12.48779
2.768	10.37292
2.7685	11.17859
2.769	16.01257
2.7695	11.17859
2.77	14.50195
2.7705	7.65381
2.771	8.66089
2.7715	11.17859
2.772	10.0708
2.7725	18.42957
2.773	20.34302
2.7735	17.12036
2.774	26.78833
2.7745	25.57983
2.775	23.16284
2.7755	21.85364
2.776	22.25647
2.7765	23.96851
2.777	21.24939
2.7775	18.93311
2.778	21.24939
2.7785	13.19275
2.779	10.57434
2.7795	3.62549
2.78	2.5177
2.7805	1.61133
2.781	2.92053
2.7815	2.71912
2.782	-2.92053
2.7825	-3.52478
2.783	0
2.7835	1.00708
2.784	-5.33752
2.7845	-4.73328
2.785	-1.2085
2.7855	-3.12195
2.786	-1.81274
2.7865	1.61133
2.787	-4.43115
2.7875	-1.3092
2.788	-5.84106
2.7885	-4.93469
2.789	-4.73328
2.7895	-1.3092
2.79	-1.51062
2.7905	-1.10779
2.791	-6.14319
2.7915	-1.91345
2.792	5.43823
2.7925	4.73328
2.793	6.74744
2.7935	5.74036
2.794	8.96301
2.7945	7.75452
2.795	9.06372
2.7955	8.05664
2.796	8.35876
2.7965	7.25098
2.797	10.87646
2.7975	9.26514
2.798	10.87646
2.7985	21.24939
2.799	27.39258
2.7995	34.94568
2.8	33.03223
2.8005	40.88745
2.801	51.96533
2.8015	56.49719
2.802	56.29578
2.8025	53.37524
2.803	50.65613
2.8035	46.22498
2.804	40.58533
2.8045	21.55151
2.805	12.5885
2.8055	1.10779
2.806	-14.90479
2.8065	-23.96851
2.807	-36.4563
2.8075	-35.44922
2.808	-28.09753
2.8085	-19.63806
2.809	-5.13611
2.8095	57.00073
2.81	104.13208
2.8105	136.66077
2.811	155.29175
2.8115	147.94006
2.812	147.94006
2.8125	123.16589
2.813	103.42712
2.8135	83.48694
2.814	52.97241
2.8145	17.72461
2.815	-14.30054
2.8155	-42.39807
2.816	-72.30835
2.8165	-97.68677
2.817	-112.28943
2.8175	-129.00696
2.818	-131.82678
2.8185	-140.58838
2.819	-141.39404
2.8195	-132.93457
2.82	-119.33899
2.8205	-104.4342
2.821	-85.90393
2.8215	-76.43738
2.822	-57.00073
2.8225	-43.40515
2.823	-28.09753
2.8235	-24.47205
2.824	-11.07788
2.8245	-3.22266
2.825	-4.93469
2.8255	-0.60425
2.826	1.10779
2.8265	2.81982
2.827	10.97717
2.8275	11.07788
2.828	11.78284
2.8285	25.98267
2.829	26.88904
2.8295	43.70728
2.83	61.53259
2.8305	88.82446
2.831	113.69934
2.8315	118.43262
2.832	113.80005
2.8325	118.83545
2.833	113.59863
2.8335	90.33508
2.834	79.35791
2.8345	60.72693
2.835	34.64355
2.8355	19.33594
2.836	-4.53186
2.8365	-29.50745
2.837	-40.88745
2.8375	-61.02905
2.838	-69.48853
2.8385	-80.56641
2.839	-79.05579
2.8395	-88.82446
2.84	-76.13525
2.8405	-77.04163
2.841	-73.01331
2.8415	-66.26587
2.842	-57.40356
2.8425	-41.79382
2.843	-37.46338
2.8435	-30.11169
2.844	-27.6947
2.8445	-11.68213
2.845	-6.44531
2.8455	-1.3092
2.846	1.51062
2.8465	4.53186
2.847	2.92053
2.8475	1.81274
2.848	3.32336
2.8485	3.32336
2.849	7.04956
2.8495	13.09204
2.85	13.09204
2.8505	17.92603
2.851	18.63098
2.8515	19.94019
2.852	12.28638
2.8525	25.177
2.853	45.72144
2.8535	49.34692
2.854	56.29578
2.8545	53.97949
2.855	54.18091
2.8555	52.56958
2.856	49.14551
2.8565	33.9386
2.857	25.88196
2.8575	24.16992
2.858	10.47363
2.8585	6.3446
2.859	-0.40283
2.8595	-7.85522
2.86	-9.36584
2.8605	-13.09204
2.861	-3.42407
2.8615	18.02673
2.862	26.3855
2.8625	35.44922
2.863	38.974
2.8635	41.18958
2.864	29.70886
2.8645	25.177
2.865	17.12036
2.8655	4.33044
2.866	-3.42407
2.8665	-19.33594
2.867	-19.53735
2.8675	-24.67346
2.868	-32.12585
2.8685	-33.03223
2.869	-38.26904
2.8695	-36.55701
2.87	-38.77258
2.8705	-30.41382
2.871	-22.05505
2.8715	-21.04797
2.872	-14.40125
2.8725	-10.47363
2.873	-5.63965
2.8735	-5.84106
2.874	-0.20142
2.8745	-1.81274
2.875	-0.20142
2.8755	9.76868
2.876	26.48621
2.8765	43.20374
2.877	48.74268
2.8775	69.79065
2.878	87.41455
2.8785	101.9165
2.879	102.42004
2.8795	99.49951
2.88	95.47119
2.8805	85.80322
2.881	70.09277
2.8815	50.354
2.882	38.16833
2.8825	24.37134
2.883	9.56726
2.8835	2.11487
2.884	-8.96301
2.8845	-15.40833
2.885	-32.83081
2.8855	-33.03223
2.886	-34.44214
2.8865	-37.96692
2.887	-34.54285
2.8875	-39.27612
2.888	-51.15967
2.8885	-43.00232
2.889	-45.11719
2.8895	-41.39099
2.89	-45.52002
2.8905	-44.41223
2.891	-41.29028
2.8915	-38.06763
2.892	-33.83789
2.8925	-31.82373
2.893	-28.9032
2.8935	-29.30603
2.894	-14.80408
2.8945	-6.04248
2.895	5.84106
2.8955	16.61682
2.896	16.61682
2.8965	15.91187
2.897	17.32178
2.8975	14.80408
2.898	16.01257
2.8985	9.97009
2.899	13.19275
2.8995	6.14319
2.9	5.74036
2.9005	1.71204
2.901	1.81274
2.9015	7.35168
2.902	8.45947
2.9025	12.28638
2.903	4.02832
2.9035	3.92761
2.904	2.21558
2.9045	0.80566
2.905	2.31628
2.9055	11.88354
2.906	11.88354
2.9065	17.52319
2.907	22.35718
2.9075	40.98816
2.908	62.53967
2.9085	70.89844
2.909	69.89136
2.9095	72.50977
2.91	68.98499
2.9105	61.43188
2.911	50.55542
2.9115	38.36975
2.912	23.76709
2.9125	29.30603
2.913	29.00391
2.9135	22.25647
2.914	21.65222
2.9145	17.32178
2.915	4.12903
2.9155	-12.18567
2.916	-21.65222
2.9165	-25.88196
2.917	-34.94568
2.9175	-37.26196
2.918	-42.7002
2.9185	-44.0094
2.919	-44.61365
2.9195	-43.90869
2.92	-42.59949
2.9205	-35.34851
2.921	-34.54285
2.9215	-33.53577
2.922	-31.92444
2.9225	-27.89612
2.923	-25.88196
2.9235	-27.99683
2.924	-23.46497
2.9245	-18.53027
2.925	-15.50903
2.9255	-8.56018
2.926	-7.95593
2.9265	-7.04956
2.927	-5.74036
2.9275	-6.84814
2.928	-6.54602
2.9285	1.91345
2.929	0.50354
2.9295	-2.5177
2.93	0.30212
2.9305	3.32336
2.931	2.81982
2.9315	2.31628
2.932	12.99133
2.9325	17.12036
2.933	16.91895
2.9335	13.99841
2.934	8.7616
2.9345	13.09204
2.935	7.85522
2.9355	20.64514
2.936	40.2832
2.9365	48.23914
2.937	53.47595
2.9375	54.78516
2.938	74.12109
2.9385	78.45154
2.939	76.43738
2.9395	68.78357
2.94	60.3241
2.9405	45.72144
2.941	33.23364
2.9415	19.03381
2.942	11.07788
2.9425	21.75293
2.943	25.27771
2.9435	30.71594
2.944	27.09045
2.9445	20.34302
2.945	22.86072
2.9455	30.91736
2.946	37.56409
2.9465	38.77258
2.947	32.7301
2.9475	25.57983
2.948	16.01257
2.9485	3.52478
2.949	-13.59558
2.9495	-22.55859
2.95	-39.77966
2.9505	-43.40515
2.951	-40.1825
2.9515	-45.82214
2.952	-44.61365
2.9525	-43.70728
2.953	-48.84338
2.9535	-48.84338
2.954	-50.2533
2.9545	-48.03772
2.955	-46.72852
2.9555	-43.50586
2.956	-36.55701
2.9565	-36.65771
2.957	-29.10461
2.9575	-23.06213
2.958	-24.06921
2.9585	-25.27771
2.959	-23.96851
2.9595	-18.32886
2.96	-12.18567
2.9605	-13.69629
2.961	-10.57434
2.9615	-16.91895
2.962	-3.52478
2.9625	8.66089
2.963	29.10461
2.9635	49.54834
2.964	78.35083
2.9645	98.39172
2.965	95.26978
2.9655	100.6073
2.966	90.43579
2.9665	73.41614
2.967	55.99365
2.9675	43.30444
2.968	25.07629
2.9685	16.01257
2.969	0
2.9695	-24.67346
2.97	-34.94568
2.9705	-51.86462
2.971	-62.64038
2.9715	-67.77649
2.972	-75.12817
2.9725	-71.30127
2.973	-71.7041
2.9735	-66.56799
2.974	-60.52551
2.9745	-50.95825
2.975	-39.07471
2.9755	-33.53577
2.976	-25.88196
2.9765	-11.78284
2.977	-1.40991
2.9775	-0.80566
2.978	5.33752
2.9785	4.33044
2.979	9.76868
2.9795	9.36584
2.98	13.89771
2.9805	17.72461
2.981	20.74585
2.9815	27.6947
2.982	20.84656
2.9825	20.94727
2.983	19.23523
2.9835	18.53027
2.984	22.45789
2.9845	25.27771
2.985	26.28479
2.9855	21.3501
2.986	17.72461
2.9865	16.61682
2.987	14.90479
2.9875	15.60974
2.988	11.98425
2.9885	14.30054
2.989	11.48071
2.9895	8.66089
2.99	12.28638
2.9905	7.35168
2.991	2.5177
2.9915	0.60425
2.992	4.33044
2.9925	7.85522
2.993	18.12744
2.9935	30.01099
2.994	23.06213
2.9945	34.24072
2.995	23.96851
2.9955	22.05505
2.996	18.53027
2.9965	13.19275
2.997	12.5885
2.9975	9.16443
2.998	8.8623
2.9985	7.95593
2.999	1.10779
2.9995	-2.61841
3	-2.61841
3.0005	-6.64673
3.001	-6.3446
3.0015	-6.04248
3.002	-7.5531
3.0025	-6.64673
3.003	-1.61133
3.0035	4.12903
3.004	3.42407
3.0045	4.93469
3.005	9.46655
3.0055	6.64673
3.006	4.33044
3.0065	11.07788
3.007	6.74744
3.0075	4.63257
3.008	1.00708
3.0085	-4.63257
3.009	3.52478
3.0095	7.65381
3.01	-1.00708
3.0105	4.22974
3.011	7.95593
3.0115	16.91895
3.012	16.01257
3.0125	15.81116
3.013	26.28479
3.0135	33.9386
3.014	48.13843
3.0145	52.36816
3.015	51.26038
3.0155	49.24622
3.016	48.94409
3.0165	47.33276
3.017	44.51294
3.0175	49.34692
3.018	50.55542
3.0185	40.2832
3.019	26.08337
3.0195	14.90479
3.02	2.31628
3.0205	-7.5531
3.021	-12.48779
3.0215	-21.75293
3.022	-30.01099
3.0225	-24.57275
3.023	-31.01807
3.0235	-27.79541
3.024	-25.88196
3.0245	-30.81665
3.025	-21.75293
3.0255	-20.34302
3.026	-21.55151
3.0265	-21.04797
3.027	-18.73169
3.0275	-18.02673
3.028	-14.09912
3.0285	-17.22107
3.029	-16.01257
3.0295	2.81982
3.03	19.63806
3.0305	31.72302
3.031	39.07471
3.0315	37.86621
3.032	37.56409
3.0325	34.74426
3.033	31.21948
3.0335	28.60107
3.034	20.34302
3.0345	15.40833
3.035	22.05505
3.0355	23.16284
3.036	23.16284
3.0365	13.39417
3.037	6.44531
3.0375	-1.3092
3.038	-3.12195
3.0385	-10.97717
3.039	-19.94019
3.0395	-23.16284
3.04	-22.96143
3.0405	-27.6947
3.041	-28.80249
3.0415	-30.81665
3.042	-26.48621
3.0425	-22.15576
3.043	-18.12744
3.0435	-11.48071
3.044	-13.29346
3.0445	-6.74744
3.045	-3.12195
3.0455	-1.61133
3.046	1.91345
3.0465	-3.62549
3.047	6.04248
3.0475	-3.32336
3.048	-0.50354
3.0485	-5.33752
3.049	-4.73328
3.0495	-9.16443
3.05	-10.0708
3.0505	-9.76868
3.051	-6.84814
3.0515	-4.22974
3.052	-7.95593
3.0525	-1.51062
3.053	-0.20142
3.0535	2.11487
3.054	7.95593
3.0545	4.83398
3.055	9.06372
3.0555	4.33044
3.056	8.05664
3.0565	6.94885
3.057	10.47363
3.0575	8.15735
3.058	9.16443
3.0585	7.04956
3.059	6.04248
3.0595	5.94177
3.06	2.31628
3.0605	1.51062
3.061	1.81274
3.0615	3.52478
3.062	7.04956
3.0625	9.86938
3.063	18.8324
3.0635	11.48071
3.064	12.5885
3.0645	9.36584
3.065	14.60266
3.0655	16.11328
3.066	14.40125
3.0665	9.86938
3.067	14.40125
3.0675	20.34302
3.068	12.5885
3.0685	9.56726
3.069	12.89062
3.0695	13.797
3.07	12.5885
3.0705	14.40125
3.071	14.60266
3.0715	18.63098
3.072	17.52319
3.0725	19.13452
3.073	15.1062
3.0735	15.91187
3.074	8.7616
3.0745	11.68213
3.075	7.65381
3.0755	10.0708
3.076	9.56726
3.0765	9.66797
3.077	12.78992
3.0775	5.13611
3.078	7.5531
3.0785	10.27222
3.079	11.48071
3.0795	12.38708
3.08	12.68921
3.0805	12.99133
3.081	3.52478
3.0815	13.19275
3.082	28.50037
3.0825	44.51294
3.083	37.06055
3.0835	38.87329
3.084	37.16125
3.0845	32.12585
3.085	34.84497
3.0855	28.9032
3.086	30.41382
3.0865	26.28479
3.087	18.93311
3.0875	12.78992
3.088	-0.20142
3.0885	-5.74036
3.089	-15.20691
3.0895	-23.46497
3.09	-30.71594
3.0905	-33.83789
3.091	-39.77966
3.0915	-36.4563
3.092	-45.01648
3.0925	-45.11719
3.093	-39.07471
3.0935	-41.69312
3.094	-35.14709
3.0945	-22.35718
3.095	-14.19983
3.0955	-7.25098
3.096	-9.26514
3.0965	-2.11487
3.097	-9.46655
3.0975	-2.41699
3.098	-4.73328
3.0985	-6.84814
3.099	-9.36584
3.0995	-2.81982
3.1	0.40283
3.1005	1.81274
3.101	7.45239
3.1015	9.06372
3.102	6.54602
3.1025	2.81982
3.103	11.07788
3.1035	13.29346
3.104	16.21399
3.1045	17.22107
3.105	9.06372
3.1055	20.84656
3.106	24.67346
3.1065	29.80957
3.107	31.4209
3.1075	41.08887
3.108	48.23914
3.1085	42.59949
3.109	41.08887
3.1095	42.8009
3.11	39.98108
3.1105	32.83081
3.111	33.73718
3.1115	33.13293
3.112	28.9032
3.1125	26.08337
3.113	15.00549
3.1135	20.04089
3.114	34.94568
3.1145	48.94409
3.115	48.33984
3.1155	46.42639
3.116	41.69312
3.1165	33.83789
3.117	24.37134
3.1175	13.89771
3.118	1.81274
3.1185	-9.46655
3.119	-19.73877
3.1195	-31.62231
3.12	-39.98108
3.1205	-44.31152
3.121	-56.49719
3.1215	-55.08728
3.122	-48.94409
3.1225	-44.21082
3.123	-39.47754
3.1235	-38.47046
3.124	-35.75134
3.1245	-30.01099
3.125	-26.78833
3.1255	-14.09912
3.126	-7.04956
3.1265	1.91345
3.127	5.23682
3.1275	3.62549
3.128	10.37292
3.1285	14.40125
3.129	12.18567
3.1295	18.63098
3.13	16.21399
3.1305	14.19983
3.131	15.91187
3.1315	13.29346
3.132	12.5885
3.1325	11.58142
3.133	17.42249
3.1335	18.93311
3.134	16.91895
3.1345	20.94727
3.135	21.14868
3.1355	14.60266
3.136	18.02673
3.1365	20.54443
3.137	15.00549
3.1375	13.89771
3.138	18.02673
3.1385	15.91187
3.139	11.2793
3.1395	4.83398
3.14	1.40991
3.1405	7.25098
3.141	11.07788
3.1415	23.46497
3.142	30.11169
3.1425	34.14001
3.143	28.80249
3.1435	32.02515
3.144	35.75134
3.1445	33.9386
3.145	35.85205
3.1455	34.64355
3.146	32.52869
3.1465	26.48621
3.147	16.91895
3.1475	9.26514
3.148	-3.62549
3.1485	-13.19275
3.149	-17.82532
3.1495	-17.01965
3.15	-19.23523
3.1505	-23.8678
3.151	-17.72461
3.1515	-18.8324
3.152	-9.86938
3.1525	-11.48071
3.153	-17.52319
3.1535	-12.89062
3.154	-16.01257
3.1545	-12.08496
3.155	-22.6593
3.1555	-21.3501
3.156	-26.18408
3.1565	-22.86072
3.157	-29.30603
3.1575	-25.27771
3.158	-26.68762
3.1585	-26.18408
3.159	-21.65222
3.1595	-33.03223
3.16	-27.49329
3.1605	-23.46497
3.161	-17.12036
3.1615	-11.88354
3.162	-4.93469
3.1625	4.43115
3.163	8.25806
3.1635	7.45239
3.164	11.88354
3.1645	16.01257
3.165	21.85364
3.1655	23.8678
3.166	25.177
3.1665	26.3855
3.167	29.50745
3.1675	25.27771
3.168	14.60266
3.1685	14.80408
3.169	19.63806
3.1695	25.07629
3.17	19.94019
3.1705	21.75293
3.171	25.68054
3.1715	17.82532
3.172	10.97717
3.1725	9.16443
3.173	12.89062
3.1735	6.64673
3.174	4.43115
3.1745	-1.91345
3.175	-1.2085
3.1755	-8.15735
3.176	-8.8623
3.1765	-5.94177
3.177	-7.04956
3.1775	-5.43823
3.178	-8.7616
3.1785	-11.2793
3.179	-4.73328
3.1795	4.33044
3.18	7.35168
3.1805	15.50903
3.181	9.36584
3.1815	9.46655
3.182	9.56726
3.1825	11.78284
3.183	11.78284
3.1835	10.37292
3.184	8.66089
3.1845	10.37292
3.185	2.41699
3.1855	5.63965
3.186	2.61841
3.1865	6.64673
3.187	-1.00708
3.1875	2.61841
3.188	1.10779
3.1885	-3.8269
3.189	-4.43115
3.1895	1.40991
3.19	5.33752
3.1905	12.08496
3.191	8.15735
3.1915	12.99133
3.192	6.84814
3.1925	15.20691
3.193	11.58142
3.1935	9.76868
3.194	16.61682
3.1945	6.2439
3.195	16.81824
3.1955	11.78284
3.196	16.41541
3.1965	14.50195
3.197	14.60266
3.1975	15.20691
3.198	17.22107
3.1985	10.97717
3.199	5.94177
3.1995	7.04956
3.2	3.52478
3.2005	2.01416
3.201	3.7262
3.2015	3.92761
3.202	1.81274
3.2025	10.87646
3.203	30.01099
3.2035	41.29028
3.204	50.354
3.2045	51.36108
3.205	54.28162
3.2055	45.62073
3.206	34.14001
3.2065	29.80957
3.207	14.19983
3.2075	11.58142
3.208	-4.12903
3.2085	-8.7616
3.209	-13.69629
3.2095	-17.6239
3.21	-16.81824
3.2105	-23.96851
3.211	-21.85364
3.2115	-16.3147
3.212	-10.47363
3.2125	-8.35876
3.213	-9.86938
3.2135	-0.40283
3.214	7.04956
3.2145	2.01416
3.215	11.58142
3.2155	8.66089
3.216	7.15027
3.2165	7.04956
3.217	14.80408
3.2175	15.60974
3.218	20.64514
3.2185	19.33594
3.219	31.11877
3.2195	29.30603
3.22	35.85205
3.2205	42.59949
3.221	41.99524
3.2215	46.5271
3.222	42.59949
3.2225	40.68604
3.223	47.63489
3.2235	47.53418
3.224	42.29736
3.2245	26.58691
3.225	19.73877
3.2255	9.86938
3.226	-2.81982
3.2265	-14.60266
3.227	-32.93152
3.2275	-31.52161
3.228	-33.03223
3.2285	-29.80957
3.229	-32.32727
3.2295	-21.95435
3.23	-20.64514
3.2305	-12.99133
3.231	-10.67505
3.2315	-6.3446
3.232	-9.46655
3.2325	-5.84106
3.233	-2.71912
3.2335	0.80566
3.234	-3.42407
3.2345	0.60425
3.235	3.7262
3.2355	4.73328
3.236	6.14319
3.2365	8.15735
3.237	-1.10779
3.2375	-2.41699
3.238	0.10071
3.2385	-0.20142
3.239	9.76868
3.2395	14.40125
3.24	19.23523
3.2405	17.12036
3.241	20.54443
3.2415	23.76709
3.242	23.26355
3.2425	25.78125
3.243	23.26355
3.2435	23.16284
3.244	20.04089
3.2445	19.03381
3.245	18.73169
3.2455	11.2793
3.246	9.46655
3.2465	7.45239
3.247	6.3446
3.2475	-1.91345
3.248	-11.98425
3.2485	-16.3147
3.249	-14.90479
3.2495	-16.01257
3.25	-22.96143
3.2505	-26.68762
3.251	-31.92444
3.2515	-34.54285
3.252	-31.62231
3.2525	-35.65063
3.253	-35.2478
3.2535	-39.67896
3.254	-36.75842
3.2545	-31.11877
3.255	-29.50745
3.2555	-26.28479
3.256	-23.06213
3.2565	-9.56726
3.257	0.50354
3.2575	4.63257
3.258	9.46655
3.2585	20.24231
3.259	33.33435
3.2595	36.25488
3.26	39.88037
3.2605	47.7356
3.261	44.51294
3.2615	41.29028
3.262	42.59949
3.2625	36.4563
3.263	36.55701
3.2635	37.56409
3.264	29.50745
3.2645	29.40674
3.265	31.92444
3.2655	32.83081
3.266	28.50037
3.2665	21.45081
3.267	13.49487
3.2675	9.56726
3.268	4.73328
3.2685	0.40283
3.269	-2.31628
3.2695	-6.3446
3.27	-14.40125
3.2705	-22.96143
3.271	-23.96851
3.2715	-30.71594
3.272	-32.02515
3.2725	-34.54285
3.273	-29.91028
3.2735	-34.54285
3.274	-23.76709
3.2745	-27.79541
3.275	-20.44373
3.2755	-20.94727
3.276	-20.54443
3.2765	-20.84656
3.277	-26.28479
3.2775	-27.39258
3.278	-25.88196
3.2785	-23.06213
3.279	-18.8324
3.2795	-12.48779
3.28	-7.5531
3.2805	1.71204
3.281	13.09204
3.2815	17.82532
3.282	29.10461
3.2825	36.05347
3.283	36.65771
3.2835	32.62939
3.284	24.97559
3.2845	28.19824
3.285	27.89612
3.2855	24.16992
3.286	27.29187
3.2865	20.44373
3.287	22.86072
3.2875	26.3855
3.288	22.96143
3.2885	16.81824
3.289	17.22107
3.2895	8.25806
3.29	3.52478
3.2905	5.0354
3.291	-1.81274
3.2915	-0.10071
3.292	-5.53894
3.2925	-3.02124
3.293	-7.35168
3.2935	-9.16443
3.294	-9.66797
3.2945	-16.21399
3.295	-16.81824
3.2955	-13.59558
3.296	-18.8324
3.2965	-17.92603
3.297	-25.27771
3.2975	-24.77417
3.298	-19.33594
3.2985	-23.36426
3.299	-23.16284
3.2995	-14.50195
3.3	5.0354
3.3005	25.68054
3.301	50.354
3.3015	62.9425
3.302	69.28711
3.3025	72.9126
3.303	60.82764
3.3035	46.92993
3.304	32.93152
3.3045	19.43665
3.305	2.71912
3.3055	-9.06372
3.306	-18.32886
3.3065	-22.05505
3.307	-28.60107
3.3075	-20.04089
3.308	-17.52319
3.3085	-6.74744
3.309	-8.15735
3.3095	3.32336
3.31	8.96301
3.3105	18.22815
3.311	21.45081
3.3115	27.49329
3.312	24.57275
3.3125	33.23364
3.313	38.06763
3.3135	39.77966
3.314	26.28479
3.3145	23.26355
3.315	16.41541
3.3155	9.16443
3.316	1.51062
3.3165	4.43115
3.317	3.12195
3.3175	5.43823
3.318	21.04797
3.3185	10.87646
3.319	9.16443
3.3195	10.87646
3.32	12.08496
3.3205	12.99133
3.321	1.3092
3.3215	-4.02832
3.322	-8.05664
3.3225	-3.12195
3.323	-5.84106
3.3235	-0.40283
3.324	-6.04248
3.3245	-12.08496
3.325	-4.83398
3.3255	-7.25098
3.326	-4.33044
3.3265	-2.21558
3.327	0
3.3275	2.11487
3.328	9.97009
3.3285	23.56567
3.329	28.39966
3.3295	34.54285
3.33	36.75842
3.3305	42.19666
3.331	41.39099
3.3315	39.98108
3.332	46.22498
3.3325	46.5271
3.333	45.01648
3.3335	44.91577
3.334	37.06055
3.3345	42.29736
3.335	39.98108
3.3355	35.44922
3.336	44.11011
3.3365	59.21631
3.337	56.39648
3.3375	51.05896
3.338	43.30444
3.3385	38.77258
3.339	20.04089
3.3395	2.61841
3.34	-8.05664
3.3405	-19.03381
3.341	-30.11169
3.3415	-39.57825
3.342	-44.91577
3.3425	-55.69153
3.343	-54.28162
3.3435	-46.22498
3.344	-48.54126
3.3445	-36.95984
3.345	-37.46338
3.3455	-36.95984
3.346	-39.27612
3.3465	-43.40515
3.347	-51.76392
3.3475	-49.74976
3.348	-44.51294
3.3485	-37.46338
3.349	-38.06763
3.3495	-35.14709
3.35	-24.16992
3.3505	-7.15027
3.351	-3.32336
3.3515	0.20142
3.352	5.43823
3.3525	18.63098
3.353	26.28479
3.3535	33.83789
3.354	41.4917
3.3545	46.02356
3.355	42.49878
3.3555	41.59241
3.356	39.67896
3.3565	35.85205
3.357	41.69312
3.3575	36.05347
3.358	38.36975
3.3585	37.26196
3.359	26.3855
3.3595	-3.92761
3.36	-21.04797
3.3605	-25.98267
3.361	-19.94019
3.3615	-11.07788
3.362	-7.35168
3.3625	3.7262
3.363	6.3446
3.3635	9.46655
3.364	7.85522
3.3645	12.78992
3.365	11.38
3.3655	7.95593
3.366	12.28638
3.3665	13.89771
3.367	10.27222
3.3675	8.66089
3.368	11.88354
3.3685	16.61682
3.369	15.00549
3.3695	17.92603
3.37	13.19275
3.3705	21.85364
3.371	23.36426
3.3715	18.93311
3.372	20.1416
3.3725	23.8678
3.373	17.42249
3.3735	17.01965
3.374	20.54443
3.3745	12.28638
3.375	13.39417
3.3755	19.94019
3.376	10.77576
3.3765	16.3147
3.377	9.86938
3.3775	6.3446
3.378	1.00708
3.3785	3.42407
3.379	-0.80566
3.3795	-4.93469
3.38	-14.60266
3.3805	-15.50903
3.381	-14.80408
3.3815	-23.8678
3.382	-25.68054
3.3825	-26.3855
3.383	-27.59399
3.3835	-24.57275
3.384	-14.50195
3.3845	-15.71045
3.385	-12.68921
3.3855	-5.13611
3.386	-8.8623
3.3865	-10.47363
3.387	-7.35168
3.3875	-11.17859
3.388	-13.99841
3.3885	-13.89771
3.389	-12.38708
3.3895	-13.09204
3.39	-16.81824
3.3905	-15.1062
3.391	-20.84656
3.3915	-18.02673
3.392	-4.73328
3.3925	5.43823
3.393	10.27222
3.3935	15.60974
3.394	12.78992
3.3945	22.15576
3.395	23.36426
3.3955	27.79541
3.396	24.97559
3.3965	20.74585
3.397	16.11328
3.3975	18.02673
3.398	24.16992
3.3985	13.99841
3.399	9.76868
3.3995	5.33752
3.4	9.56726
3.4005	11.68213
3.401	12.38708
3.4015	29.91028
3.402	36.95984
3.4025	31.01807
3.403	28.29895
3.4035	21.85364
3.404	18.12744
3.4045	3.22266
3.405	1.71204
3.4055	-1.40991
3.406	-5.74036
3.4065	-14.90479
3.407	-4.73328
3.4075	2.61841
3.408	7.45239
3.4085	5.13611
3.409	-2.92053
3.4095	-3.92761
3.41	-2.61841
3.4105	6.04248
3.411	8.56018
3.4115	12.68921
3.412	14.80408
3.4125	21.14868
3.413	23.8678
3.4135	16.41541
3.414	23.96851
3.4145	16.81824
3.415	15.40833
3.4155	11.58142
3.416	9.86938
3.4165	-0.50354
3.417	-6.04248
3.4175	-5.23682
3.418	-5.84106
3.4185	-1.10779
3.419	-2.92053
3.4195	-8.05664
3.42	1.71204
3.4205	-4.22974
3.421	5.0354
3.4215	5.84106
3.422	2.71912
3.4225	1.71204
3.423	0.40283
3.4235	-0.50354
3.424	-1.00708
3.4245	-0.40283
3.425	-1.00708
3.4255	5.63965
3.426	9.26514
3.4265	15.91187
3.427	23.16284
3.4275	33.03223
3.428	33.9386
3.4285	35.75134
3.429	33.43506
3.4295	32.52869
3.43	45.52002
3.4305	41.39099
3.431	34.64355
3.4315	26.68762
3.432	7.65381
3.4325	-1.00708
3.433	0.20142
3.4335	1.81274
3.434	-0.50354
3.4345	6.94885
3.435	9.86938
3.4355	10.0708
3.436	12.38708
3.4365	11.17859
3.437	22.86072
3.4375	33.03223
3.438	46.72852
3.4385	41.89453
3.439	43.10303
3.4395	44.51294
3.44	30.91736
3.4405	24.37134
3.441	7.25098
3.4415	-0.50354
3.442	-14.70337
3.4425	-27.09045
3.443	-35.75134
3.4435	-46.12427
3.444	-43.60657
3.4445	-37.46338
3.445	-22.15576
3.4455	-17.82532
3.446	-8.56018
3.4465	-5.53894
3.447	1.40991
3.4475	9.97009
3.448	11.98425
3.4485	3.92761
3.449	5.0354
3.4495	16.71753
3.45	16.01257
3.4505	22.96143
3.451	29.00391
3.4515	28.50037
3.452	22.55859
3.4525	24.57275
3.453	29.10461
3.4535	20.04089
3.454	10.37292
3.4545	5.53894
3.455	1.10779
3.4555	2.71912
3.456	4.02832
3.4565	3.92761
3.457	1.71204
3.4575	5.84106
3.458	10.47363
3.4585	10.67505
3.459	5.23682
3.4595	-2.01416
3.46	-6.44531
3.4605	-13.99841
3.461	-22.45789
3.4615	-18.32886
3.462	-2.81982
3.4625	-3.7262
3.463	-0.70496
3.4635	-11.2793
3.464	-19.23523
3.4645	-15.1062
3.465	-8.25806
3.4655	-10.17151
3.466	-18.73169
3.4665	-23.76709
3.467	-12.18567
3.4675	-12.48779
3.468	-6.3446
3.4685	-4.83398
3.469	6.64673
3.4695	1.71204
3.47	-4.83398
3.4705	-11.07788
3.471	-5.74036
3.4715	-7.5531
3.472	-4.73328
3.4725	5.94177
3.473	11.17859
3.4735	15.30762
3.474	13.19275
3.4745	21.45081
3.475	26.68762
3.4755	25.47913
3.476	33.43506
3.4765	39.57825
3.477	45.41931
3.4775	35.44922
3.478	32.52869
3.4785	30.91736
3.479	34.34143
3.4795	29.20532
3.48	20.04089
3.4805	15.30762
3.481	-3.22266
3.4815	-1.3092
3.482	-2.41699
3.4825	1.3092
3.483	2.01416
3.4835	-2.41699
3.484	1.81274
3.4845	-0.70496
3.485	7.65381
3.4855	8.05664
3.486	1.2085
3.4865	-1.10779
3.487	2.5177
3.4875	-4.02832
3.488	-4.02832
3.4885	-7.35168
3.489	-13.39417
3.4895	-11.07788
3.49	-4.83398
3.4905	2.92053
3.491	13.49487
3.4915	14.90479
3.492	10.37292
3.4925	4.02832
3.493	1.71204
3.4935	-1.10779
3.494	5.0354
3.4945	11.58142
3.495	16.11328
3.4955	21.24939
3.496	14.19983
3.4965	12.08496
3.497	0.80566
3.4975	-6.3446
3.498	-12.18567
3.4985	-5.53894
3.499	-4.93469
3.4995	-17.12036
3.5	-15.91187
3.5005	-10.37292
3.501	-11.07788
3.5015	-6.74744
3.502	-0.50354
3.5025	4.43115
3.503	3.52478
3.5035	11.58142
3.504	16.41541
3.5045	21.3501
3.505	24.87488
3.5055	25.177
3.506	29.91028
3.5065	38.57117
3.507	30.11169
3.5075	19.73877
3.508	21.65222
3.5085	-2.11487
3.509	-17.52319
3.5095	-35.65063
3.51	-46.62781
3.5105	-55.79224
3.511	-52.36816
3.5115	-47.7356
3.512	-37.86621
3.5125	-25.07629
3.513	-11.48071
3.5135	7.25098
3.514	22.05505
3.5145	35.75134
3.515	45.41931
3.5155	48.54126
3.516	49.34692
3.5165	49.64905
3.517	57.40356
3.5175	54.18091
3.518	42.59949
3.5185	34.84497
3.519	37.96692
3.5195	37.46338
3.52	35.14709
3.5205	41.79382
3.521	46.12427
3.5215	50.85754
3.522	35.14709
3.5225	21.3501
3.523	19.33594
3.5235	12.89062
3.524	13.59558
3.5245	6.94885
3.525	5.43823
3.5255	7.25098
3.526	6.74744
3.5265	14.19983
3.527	24.57275
3.5275	25.88196
3.528	30.91736
3.5285	30.61523
3.529	31.32019
3.5295	28.80249
3.53	24.16992
3.5305	29.10461
3.531	24.57275
3.5315	17.32178
3.532	18.32886
3.5325	16.41541
3.533	17.72461
3.5335	20.04089
3.534	19.83948
3.5345	18.22815
3.535	14.70337
3.5355	20.64514
3.536	31.21948
3.5365	45.01648
3.537	46.72852
3.5375	41.69312
3.538	39.47754
3.5385	30.91736
3.539	26.78833
3.5395	14.09912
3.54	14.50195
3.5405	1.61133
3.541	-10.97717
3.5415	-15.81116
3.542	-18.73169
3.5425	-17.32178
3.543	-13.69629
3.5435	-16.41541
3.544	-19.73877
3.5445	-12.18567
3.545	-0.50354
3.5455	6.44531
3.546	4.22974
3.5465	3.12195
3.547	9.56726
3.5475	5.84106
3.548	-3.12195
3.5485	-5.0354
3.549	-11.07788
3.5495	-19.13452
3.55	-25.07629
3.5505	-25.07629
3.551	-24.97559
3.5515	-15.30762
3.552	-9.26514
3.5525	1.10779
3.553	5.13611
3.5535	-2.92053
3.554	2.31628
3.5545	13.59558
3.555	24.37134
3.5555	27.89612
3.556	21.75293
3.5565	25.78125
3.557	30.51453
3.5575	34.24072
3.558	47.93701
3.5585	54.88586
3.559	59.41772
3.5595	64.35242
3.56	65.25879
3.5605	44.21082
3.561	15.81116
3.5615	3.52478
3.562	-10.67505
3.5625	-26.3855
3.563	-44.91577
3.5635	-39.88037
3.564	-31.32019
3.5645	-23.66638
3.565	-6.74744
3.5655	-2.5177
3.566	2.21558
3.5665	9.76868
3.567	21.85364
3.5675	23.06213
3.568	28.19824
3.5685	38.57117
3.569	46.82922
3.5695	52.36816
3.57	63.94958
3.5705	69.28711
3.571	66.56799
3.5715	55.99365
3.572	31.11877
3.5725	11.48071
3.573	-0.20142
3.5735	-2.11487
3.574	-1.00708
3.5745	-6.74744
3.575	-15.71045
3.5755	-17.32178
3.576	-36.85913
3.5765	-42.39807
3.577	-40.38391
3.5775	-32.7301
3.578	-25.37842
3.5785	-14.30054
3.579	-12.68921
3.5795	-19.73877
3.58	-17.92603
3.5805	-29.40674
3.581	-32.7301
3.5815	-33.23364
3.582	-32.62939
3.5825	-28.09753
3.583	-34.44214
3.5835	-47.23206
3.584	-53.57666
3.5845	-52.56958
3.585	-50.15259
3.5855	-44.51294
3.586	-32.42798
3.5865	-17.6239
3.587	-4.93469
3.5875	2.41699
3.588	4.83398
3.5885	-2.01416
3.589	-2.31628
3.5895	1.3092
3.59	-0.40283
3.5905	4.73328
3.591	6.04248
3.5915	12.78992
3.592	1.2085
3.5925	0.30212
3.593	4.43115
3.5935	6.54602
3.594	24.06921
3.5945	41.89453
3.595	56.90002
3.5955	81.17065
3.596	76.53809
3.5965	76.43738
3.597	79.55933
3.5975	74.92676
3.598	61.73401
3.5985	61.83472
3.599	55.2887
3.5995	49.64905
3.6	47.53418
3.6005	39.67896
3.601	30.91736
3.6015	23.8678
3.602	15.81116
3.6025	6.54602
3.603	-4.33044
3.6035	-10.87646
3.604	-22.6593
3.6045	-45.41931
3.605	-67.47437
3.6055	-67.97791
3.606	-67.57507
3.6065	-64.85596
3.607	-58.30994
3.6075	-50.45471
3.608	-22.86072
3.6085	-6.94885
3.609	-1.91345
3.6095	1.40991
3.61	17.01965
3.6105	28.70178
3.611	28.60107
3.6115	24.16992
3.612	18.53027
3.6125	15.30762
3.613	6.84814
3.6135	-6.74744
3.614	-8.96301
3.6145	-3.02124
3.615	-2.31628
3.6155	2.5177
3.616	3.32336
3.6165	-8.45947
3.617	-0.40283
3.6175	-6.64673
3.618	-8.56018
3.6185	-6.2439
3.619	3.32336
3.6195	20.34302
3.62	28.60107
3.6205	26.68762
3.621	27.19116
3.6215	26.48621
3.622	24.97559
3.6225	7.04956
3.623	-7.45239
3.6235	-7.65381
3.624	-1.71204
3.6245	2.71912
3.625	25.07629
3.6255	36.05347
3.626	44.0094
3.6265	55.69153
3.627	60.72693
3.6275	61.23047
3.628	64.151
3.6285	67.27295
3.629	63.44604
3.6295	62.64038
3.63	64.55383
3.6305	58.41064
3.631	50.05188
3.6315	43.20374
3.632	36.75842
3.6325	37.56409
3.633	29.60815
3.6335	20.1416
3.634	13.29346
3.6345	7.25098
3.635	5.13611
3.6355	2.01416
3.636	-3.22266
3.6365	-17.42249
3.637	-21.65222
3.6375	-32.22656
3.638	-42.59949
3.6385	-44.41223
3.639	-41.69312
3.6395	-61.43188
3.64	-75.4303
3.6405	-81.7749
3.641	-91.745
3.6415	-101.31226
3.642	-121.35315
3.6425	-130.51758
3.643	-133.13599
3.6435	-100.50659
3.644	-77.64587
3.6445	-52.97241
3.645	-20.94727
3.6455	-10.77576
3.646	-5.0354
3.6465	-12.28638
3.647	-23.66638
3.6475	-34.74426
3.648	-37.36267
3.6485	-37.46338
3.649	-30.41382
3.6495	-0.80566
3.65	16.61682
3.6505	34.34143
3.651	59.31702
3.6515	75.93384
3.652	69.68994
3.6525	88.72375
3.653	102.52075
3.6535	115.51208
3.654	115.91492
3.6545	107.85828
3.655	104.03137
3.6555	104.63562
3.656	102.42004
3.6565	92.55066
3.657	76.43738
3.6575	65.86304
3.658	52.56958
3.6585	27.79541
3.659	23.56567
3.6595	21.95435
3.66	29.91028
3.6605	32.52869
3.661	31.11877
3.6615	18.93311
3.662	14.30054
3.6625	19.94019
3.663	17.92603
3.6635	23.36426
3.664	21.75293
3.6645	7.25098
3.665	1.3092
3.6655	-1.91345
3.666	-27.99683
3.6665	-58.20923
3.667	-70.99915
3.6675	-77.84729
3.668	-77.54517
3.6685	-70.3949
3.669	-64.151
3.6695	-63.04321
3.67	-51.5625
3.6705	-21.45081
3.671	1.00708
3.6715	31.62231
3.672	52.16675
3.6725	56.69861
3.673	66.26587
3.6735	58.30994
3.674	60.4248
3.6745	55.2887
3.675	61.33118
3.6755	62.03613
3.676	61.73401
3.6765	50.45471
3.677	23.46497
3.6775	-11.98425
3.678	-56.79932
3.6785	-65.86304
3.679	-67.8772
3.6795	-67.07153
3.68	-59.51843
3.6805	-40.2832
3.681	-25.07629
3.6815	-11.98425
3.682	-2.5177
3.6825	-0.30212
3.683	-9.36584
3.6835	-3.62549
3.684	6.54602
3.6845	19.43665
3.685	27.49329
3.6855	29.60815
3.686	28.29895
3.6865	15.60974
3.687	3.42407
3.6875	-3.62549
3.688	7.15027
3.6885	22.25647
3.689	39.67896
3.6895	56.09436
3.69	59.82056
3.6905	59.61914
3.691	47.33276
3.6915	43.40515
3.692	55.18799
3.6925	62.53967
3.693	61.6333
3.6935	45.11719
3.694	31.52161
3.6945	0.90637
3.695	-27.6947
3.6955	-47.13135
3.696	-51.86462
3.6965	-47.7356
3.697	-39.07471
3.6975	-38.47046
3.698	-27.39258
3.6985	-5.13611
3.699	17.42249
3.6995	33.03223
3.7	25.177
3.7005	21.75293
3.701	13.09204
3.7015	-2.71912
3.702	-30.01099
3.7025	-44.61365
3.703	-48.74268
3.7035	-65.25879
3.704	-66.46729
3.7045	-66.56799
3.705	-58.30994
3.7055	-43.70728
3.706	-14.40125
3.7065	-4.43115
3.707	0.40283
3.7075	-7.65381
3.708	-15.40833
3.7085	-12.48779
3.709	-9.06372
3.7095	-2.81982
3.71	13.49487
3.7105	27.39258
3.711	45.62073
3.7115	55.18799
3.712	45.82214
3.7125	31.21948
3.713	36.15417
3.7135	54.48303
3.714	76.53809
3.7145	89.93225
3.715	87.51526
3.7155	77.64587
3.716	57.50427
3.7165	48.03772
3.717	32.52869
3.7175	5.84106
3.718	-12.48779
3.7185	-39.17542
3.719	-46.12427
3.7195	-41.59241
3.72	-34.14001
3.7205	-8.96301
3.721	15.91187
3.7215	23.8678
3.722	2.81982
3.7225	-15.00549
3.723	-27.89612
3.7235	-37.46338
3.724	-58.81348
3.7245	-78.85437
3.725	-93.45703
3.7255	-98.59314
3.726	-79.45862
3.7265	-59.82056
3.727	-59.71985
3.7275	-75.93384
3.728	-83.58765
3.7285	-73.71826
3.729	-59.61914
3.7295	-32.83081
3.73	-0.90637
3.7305	12.89062
3.731	-2.92053
3.7315	-28.19824
3.732	-41.08887
3.7325	-33.43506
3.733	-5.23682
3.7335	7.35168
3.734	23.96851
3.7345	63.44604
3.735	100.80872
3.7355	122.56165
3.736	112.49084
3.7365	101.31226
3.737	83.58765
3.7375	62.8418
3.738	37.86621
3.7385	8.56018
3.739	-28.19824
3.7395	-51.15967
3.74	-59.71985
3.7405	-57.30286
3.741	-50.45471
3.7415	-39.47754
3.742	-16.01257
3.7425	4.12903
3.743	30.11169
3.7435	53.17383
3.744	69.28711
3.7445	83.38623
3.745	84.2926
3.7455	81.17065
3.746	76.23596
3.7465	68.68286
3.747	67.67578
3.7475	69.1864
3.748	80.96924
3.7485	79.96216
3.749	81.57349
3.7495	68.68286
3.75	62.13684
3.7505	66.97083
3.751	72.10693
3.7515	75.83313
3.752	71.90552
3.7525	50.2533
3.753	31.52161
3.7535	26.78833
3.754	21.75293
3.7545	9.86938
3.755	12.89062
3.7555	4.73328
3.756	-4.53186
3.7565	-3.7262
3.757	-0.20142
3.7575	0
3.758	23.06213
3.7585	31.92444
3.759	34.64355
3.7595	28.19824
3.76	22.05505
3.7605	26.88904
3.761	16.61682
3.7615	5.33752
3.762	-8.45947
3.7625	-35.44922
3.763	-46.12427
3.7635	-49.14551
3.764	-48.54126
3.7645	-47.43347
3.765	-46.32568
3.7655	-50.354
3.766	-32.52869
3.7665	-5.84106
3.767	8.66089
3.7675	12.5885
3.768	12.08496
3.7685	4.93469
3.769	11.07788
3.7695	17.72461
3.77	22.76001
3.7705	20.84656
3.771	-1.81274
3.7715	-13.89771
3.772	-23.26355
3.7725	-25.57983
3.773	-39.27612
3.7735	-40.08179
3.774	-52.56958
3.7745	-56.79932
3.775	-57.50427
3.7755	-53.87878
3.776	-42.90161
3.7765	-38.87329
3.777	-30.01099
3.7775	-23.8678
3.778	-9.86938
3.7785	0.40283
3.779	14.09912
3.7795	28.19824
3.78	41.18958
3.7805	57.10144
3.781	56.39648
3.7815	47.33276
3.782	30.31311
3.7825	17.72461
3.783	4.12903
3.7835	9.06372
3.784	18.93311
3.7845	18.73169
3.785	10.67505
3.7855	-16.91895
3.786	-27.19116
3.7865	-25.177
3.787	-30.2124
3.7875	-36.25488
3.788	-39.57825
3.7885	-29.30603
3.789	-29.40674
3.7895	-41.08887
3.79	-41.4917
3.7905	-43.60657
3.791	-34.44214
3.7915	-37.26196
3.792	-38.06763
3.7925	-33.33435
3.793	-35.85205
3.7935	-24.87488
3.794	-15.30762
3.7945	-1.3092
3.795	21.3501
3.7955	38.36975
3.796	56.69861
3.7965	73.61755
3.797	91.64429
3.7975	94.66553
3.798	85.5011
3.7985	72.81189
3.799	71.40198
3.7995	60.92834
3.8	29.80957
3.8005	-4.93469
3.801	-38.36975
3.8015	-84.99756
3.802	-101.51367
3.8025	-102.42004
3.803	-91.04004
3.8035	-70.79773
3.804	-64.65454
3.8045	-61.53259
3.805	-46.32568
3.8055	-32.32727
3.806	-34.64355
3.8065	-29.60815
3.807	-12.78992
3.8075	20.64514
3.808	52.46887
3.8085	80.66711
3.809	98.19031
3.8095	123.06519
3.81	139.27917
3.8105	141.19263
3.811	136.86218
3.8115	120.04395
3.812	111.58447
3.8125	104.93774
3.813	94.66553
3.8135	62.8418
3.814	25.78125
3.8145	-16.21399
3.815	-47.53418
3.8155	-61.12976
3.816	-60.3241
3.8165	-58.51135
3.817	-64.85596
3.8175	-78.25012
3.818	-69.28711
3.8185	-62.9425
3.819	-51.05896
3.8195	-33.9386
3.82	-21.95435
3.8205	-20.04089
3.821	-24.77417
3.8215	-40.58533
3.822	-57.50427
3.8225	-54.98657
3.823	-51.76392
3.8235	-52.8717
3.824	-43.30444
3.8245	-17.92603
3.825	6.3446
3.8255	34.03931
3.826	58.00781
3.8265	72.61047
3.827	72.10693
3.8275	41.08887
3.828	15.20691
3.8285	-7.15027
3.829	-6.64673
3.8295	5.13611
3.83	18.73169
3.8305	32.52869
3.831	36.65771
3.8315	26.48621
3.832	3.22266
3.8325	4.83398
3.833	13.29346
3.8335	36.95984
3.834	52.26746
3.8345	74.42322
3.835	78.25012
3.8355	74.42322
3.836	50.354
3.8365	30.81665
3.837	13.49487
3.8375	17.52319
3.838	27.59399
3.8385	36.25488
3.839	38.87329
3.8395	43.90869
3.84	31.32019
3.8405	32.12585
3.841	41.39099
3.8415	33.53577
3.842	36.4563
3.8425	37.7655
3.843	36.65771
3.8435	27.6947
3.844	32.83081
3.8445	34.44214
3.845	36.85913
3.8455	29.50745
3.846	34.54285
3.8465	39.37683
3.847	36.15417
3.8475	44.81506
3.848	43.70728
3.8485	51.05896
3.849	43.40515
3.8495	18.12744
3.85	-21.04797
3.8505	-72.61047
3.851	-82.78198
3.8515	-95.06836
3.852	-87.81738
3.8525	-80.86853
3.853	-83.08411
3.8535	-74.32251
3.854	-77.24304
3.8545	-71.60339
3.855	-56.79932
3.8555	-35.54993
3.856	-27.49329
3.8565	-43.50586
3.857	-68.17932
3.8575	-81.37207
3.858	-86.30676
3.8585	-97.18323
3.859	-93.35632
3.8595	-75.22888
3.86	-47.8363
3.8605	-6.94885
3.861	23.46497
3.8615	52.36816
3.862	82.58057
3.8625	91.94641
3.863	81.97632
3.8635	28.39966
3.864	-20.34302
3.8645	-48.33984
3.865	-49.85046
3.8655	-45.3186
3.866	-22.05505
3.8665	7.85522
3.867	35.85205
3.8675	55.49011
3.868	57.8064
3.8685	49.74976
3.869	17.72461
3.8695	-20.64514
3.87	-32.52869
3.8705	-30.71594
3.871	-14.09912
3.8715	9.56726
3.872	35.95276
3.8725	58.41064
3.873	78.45154
3.8735	97.48535
3.874	115.31067
3.8745	139.88342
3.875	166.47034
3.8755	167.17529
3.876	140.58838
3.8765	112.89368
3.877	110.57739
3.8775	94.96765
3.878	71.7041
3.8785	46.72852
3.879	32.93152
3.8795	18.8324
3.88	11.48071
3.8805	-9.36584
3.881	-25.07629
3.8815	-33.23364
3.882	-37.16125
3.8825	-43.10303
3.883	-62.03613
3.8835	-66.46729
3.884	-72.9126
3.8845	-73.31543
3.885	-74.72534
3.8855	-72.9126
3.886	-73.71826
3.8865	-77.948
3.887	-75.63171
3.8875	-63.34534
3.888	-76.63879
3.8885	-87.81738
3.889	-81.97632
3.8895	-65.56091
3.89	-53.57666
3.8905	-22.35718
3.891	7.04956
3.8915	40.1825
3.892	85.90393
3.8925	108.36182
3.893	120.54749
3.8935	131.62537
3.894	129.71191
3.8945	116.31775
3.895	98.19031
3.8955	80.26428
3.896	62.9425
3.8965	52.06604
3.897	54.0802
3.8975	58.51135
3.898	64.45312
3.8985	56.49719
3.899	45.62073
3.8995	33.23364
3.9	17.52319
3.9005	18.73169
3.901	12.28638
3.9015	7.15027
3.902	-0.80566
3.9025	-13.49487
3.903	-24.77417
3.9035	-33.53577
3.904	-29.10461
3.9045	-31.62231
3.905	-30.31311
3.9055	-31.01807
3.906	-30.51453
3.9065	-31.21948
3.907	-29.20532
3.9075	-27.49329
3.908	-18.42957
3.9085	-27.99683
3.909	-44.41223
3.9095	-46.72852
3.91	-45.92285
3.9105	-42.29736
3.911	-34.34143
3.9115	-40.78674
3.912	-32.02515
3.9125	-28.80249
3.913	-11.68213
3.9135	8.7616
3.914	22.15576
3.9145	22.55859
3.915	11.07788
3.9155	16.51611
3.916	11.68213
3.9165	8.45947
3.917	-4.73328
3.9175	-18.22815
3.918	-18.12744
3.9185	-21.45081
3.919	-16.3147
3.9195	-16.71753
3.92	-14.19983
3.9205	-9.56726
3.921	-0.90637
3.9215	-0.30212
3.922	1.81274
3.9225	12.78992
3.923	3.62549
3.9235	-9.26514
3.924	-13.797
3.9245	-13.39417
3.925	-5.74036
3.9255	4.53186
3.926	17.22107
3.9265	14.30054
3.927	17.01965
3.9275	17.6239
3.928	10.27222
3.9285	11.78284
3.929	3.8269
3.9295	6.14319
3.93	1.61133
3.9305	-32.93152
3.931	-49.54834
3.9315	-62.23755
3.932	-67.8772
3.9325	-52.26746
3.933	-15.30762
3.9335	3.62549
3.934	13.59558
3.9345	18.42957
3.935	18.73169
3.9355	-17.52319
3.936	-47.63489
3.9365	-69.58923
3.937	-81.06995
3.9375	-97.58606
3.938	-96.37756
3.9385	-82.27844
3.939	-65.66162
3.9395	-38.974
3.94	-18.42957
3.9405	5.53894
3.941	33.13293
3.9415	27.19116
3.942	32.32727
3.9425	37.16125
3.943	54.98657
3.9435	62.8418
3.944	73.71826
3.9445	72.30835
3.945	30.51453
3.9455	-7.15027
3.946	-13.09204
3.9465	3.8269
3.947	23.26355
3.9475	41.59241
3.948	54.58374
3.9485	81.7749
3.949	91.8457
3.9495	103.22571
3.95	106.44836
3.9505	109.3689
3.951	104.3335
3.9515	86.8103
3.952	79.66003
3.9525	69.48853
3.953	51.66321
3.9535	46.82922
3.954	41.29028
3.9545	40.08179
3.955	40.1825
3.9555	42.49878
3.956	16.3147
3.9565	-20.94727
3.957	-58.61206
3.9575	-92.14783
3.958	-118.33191
3.9585	-134.04236
3.959	-125.68359
3.9595	-110.47668
3.96	-72.9126
3.9605	-30.91736
3.961	-10.77576
3.9615	0.80566
3.962	6.54602
3.9625	27.29187
3.963	35.44922
3.9635	48.03772
3.964	56.69861
3.9645	55.79224
3.965	51.76392
3.9655	48.33984
3.966	51.5625
3.9665	49.14551
3.967	42.59949
3.9675	38.16833
3.968	38.87329
3.9685	47.63489
3.969	55.89294
3.9695	68.98499
3.97	63.04321
3.9705	51.05896
3.971	38.26904
3.9715	19.03381
3.972	0.30212
3.9725	-13.69629
3.973	-33.13293
3.9735	-47.7356
3.974	-50.75684
3.9745	-33.63647
3.975	-25.88196
3.9755	-12.38708
3.976	-9.56726
3.9765	-6.2439
3.977	-7.35168
3.9775	-15.00549
3.978	-16.71753
3.9785	-22.6593
3.979	-25.88196
3.9795	-39.37683
3.98	-45.41931
3.9805	-45.92285
3.981	-26.48621
3.9815	-20.24231
3.982	-46.42639
3.9825	-66.46729
3.983	-67.47437
3.9835	-65.05737
3.984	-48.13843
3.9845	-19.03381
3.985	-0.50354
3.9855	11.38
3.986	23.16284
3.9865	20.64514
3.987	14.30054
3.9875	14.19983
3.988	30.81665
3.9885	51.5625
3.989	57.70569
3.9895	44.51294
3.99	48.33984
3.9905	63.94958
3.991	65.05737
3.9915	43.00232
3.992	5.94177
3.9925	-13.09204
3.993	-29.00391
3.9935	-23.36426
3.994	-9.56726
3.9945	7.45239
3.995	21.3501
3.9955	40.88745
3.996	44.81506
3.9965	40.98816
3.997	42.39807
3.9975	43.90869
3.998	36.4563
3.9985	33.33435
3.999	37.26196
3.9995	23.56567
4	21.55151
4.0005	8.05664
4.001	-5.0354
4.0015	-16.21399
4.002	-25.37842
4.0025	-40.48462
4.003	-60.62622
4.0035	-65.56091
4.004	-70.69702
4.0045	-77.34375
4.005	-95.67261
4.0055	-108.46252
4.006	-115.51208
4.0065	-115.00854
4.007	-111.78589
4.0075	-80.26428
4.008	-50.354
4.0085	-20.44373
4.009	5.13611
4.0095	22.15576
4.01	9.97009
4.0105	2.31628
4.011	12.38708
4.0115	16.91895
4.012	19.63806
4.0125	16.11328
4.013	29.80957
4.0135	49.74976
4.014	64.85596
4.0145	76.43738
4.015	101.31226
4.0155	116.51917
4.016	115.41138
4.0165	108.96606
4.017	93.85986
4.0175	88.92517
4.018	80.76782
4.0185	68.07861
4.019	32.22656
4.0195	-11.88354
4.02	-40.38391
4.0205	-42.7002
4.021	-37.06055
4.0215	-67.77649
4.022	-91.745
4.0225	-108.56323
4.023	-115.10925
4.0235	-108.1604
4.024	-96.98181
4.0245	-81.97632
4.025	-68.48145
4.0255	-56.29578
4.026	-18.53027
4.0265	6.64673
4.027	37.26196
4.0275	52.67029
4.028	68.98499
4.0285	83.88977
4.029	91.745
4.0295	104.53491
4.03	102.82288
4.0305	99.19739
4.031	90.03296
4.0315	72.61047
4.032	65.66162
4.0325	57.60498
4.033	45.92285
4.0335	28.60107
4.034	15.1062
4.0345	2.5177
4.035	7.15027
