Alex_Venditti_Left_1.c3d  



Time(s):	B_R_bicipite(μV):
0	78.55225
0.0005	92.14783
0.001	96.37756
0.0015	78.14941
0.002	61.93542
0.0025	59.71985
0.003	53.97949
0.0035	47.13135
0.004	44.31152
0.0045	41.4917
0.005	46.42639
0.0055	47.7356
0.006	51.96533
0.0065	60.4248
0.007	57.20215
0.0075	56.09436
0.008	53.27454
0.0085	56.29578
0.009	51.76392
0.0095	44.81506
0.01	22.76001
0.0105	-0.10071
0.011	-20.54443
0.0115	-41.59241
0.012	-68.48145
0.0125	-120.95032
0.013	-136.76147
0.0135	-126.79138
0.014	-106.54907
0.0145	-75.02747
0.015	-43.70728
0.0155	-11.68213
0.016	11.98425
0.0165	16.11328
0.017	9.16443
0.0175	-1.2085
0.018	-3.52478
0.0185	5.74036
0.019	6.04248
0.0195	18.12744
0.02	26.78833
0.0205	30.91736
0.021	38.77258
0.0215	46.42639
0.022	55.99365
0.0225	58.81348
0.023	60.62622
0.0235	56.39648
0.024	54.48303
0.0245	43.80798
0.025	26.18408
0.0255	-1.51062
0.026	-18.93311
0.0265	-20.74585
0.027	-18.63098
0.0275	-19.13452
0.028	-8.35876
0.0285	3.92761
0.029	5.43823
0.0295	11.98425
0.03	12.99133
0.0305	-6.04248
0.031	-21.65222
0.0315	-27.09045
0.032	-22.05505
0.0325	-37.66479
0.033	-46.92993
0.0335	-59.31702
0.034	-82.88269
0.0345	-98.0896
0.035	-105.6427
0.0355	-102.42004
0.036	-100.20447
0.0365	-101.9165
0.037	-89.63013
0.0375	-65.96375
0.038	-42.49878
0.0385	-7.75452
0.039	17.22107
0.0395	40.08179
0.04	66.36658
0.0405	73.31543
0.041	65.76233
0.0415	57.30286
0.042	54.18091
0.0425	54.18091
0.043	55.59082
0.0435	45.72144
0.044	37.56409
0.0445	34.44214
0.045	37.7655
0.0455	42.90161
0.046	47.53418
0.0465	46.82922
0.047	39.67896
0.0475	38.974
0.048	35.14709
0.0485	26.88904
0.049	25.57983
0.0495	12.18567
0.05	-0.10071
0.0505	1.00708
0.051	2.92053
0.0515	-0.70496
0.052	-0.10071
0.0525	3.02124
0.053	10.27222
0.0535	14.50195
0.054	21.85364
0.0545	20.34302
0.055	11.68213
0.0555	-20.34302
0.056	-96.67969
0.0565	-151.26343
0.057	-165.86609
0.0575	-158.81653
0.058	-146.53015
0.0585	-108.46252
0.059	-66.26587
0.0595	-32.22656
0.06	-8.56018
0.0605	24.77417
0.061	54.88586
0.0615	80.06287
0.062	95.26978
0.0625	104.4342
0.063	110.98022
0.0635	112.39014
0.064	101.8158
0.0645	88.72375
0.065	84.89685
0.0655	76.94092
0.066	57.20215
0.0665	36.55701
0.067	23.76709
0.0675	15.1062
0.068	13.39417
0.0685	11.58142
0.069	5.94177
0.0695	1.81274
0.07	-0.70496
0.0705	-5.74036
0.071	-4.43115
0.0715	-12.28638
0.072	-18.93311
0.0725	-60.52551
0.073	-119.74182
0.0735	-161.53564
0.074	-225.38452
0.0745	-273.12012
0.075	-301.11694
0.0755	-281.88171
0.076	-237.06665
0.0765	-190.94238
0.077	-155.79529
0.0775	-127.29492
0.078	-83.08411
0.0785	-26.08337
0.079	30.01099
0.0795	83.08411
0.08	119.4397
0.0805	153.27759
0.081	171.40503
0.0815	171.50574
0.082	159.21936
0.0825	155.896
0.083	148.24219
0.0835	137.46643
0.084	126.9928
0.0845	114.20288
0.085	99.49951
0.0855	87.91809
0.086	81.87561
0.0865	78.45154
0.087	73.91968
0.0875	77.24304
0.088	78.14941
0.0885	94.56482
0.089	100.20447
0.0895	103.72925
0.09	95.97473
0.0905	89.63013
0.091	72.61047
0.0915	55.69153
0.092	9.56726
0.0925	-63.64746
0.093	-115.41138
0.0935	-146.93298
0.094	-139.07776
0.0945	-120.64819
0.095	-92.44995
0.0955	-63.54675
0.096	-30.01099
0.0965	5.0354
0.097	38.974
0.0975	65.05737
0.098	87.41455
0.0985	100.20447
0.099	102.52075
0.0995	93.35632
0.1	86.30676
0.1005	72.10693
0.101	68.07861
0.1015	52.46887
0.102	36.65771
0.1025	14.80408
0.103	-32.83081
0.1035	-74.82605
0.104	-86.30676
0.1045	-76.84021
0.105	-53.67737
0.1055	-28.80249
0.106	-9.36584
0.1065	7.04956
0.107	33.23364
0.1075	41.39099
0.108	55.08728
0.1085	55.79224
0.109	51.66321
0.1095	44.11011
0.11	41.08887
0.1105	31.4209
0.111	31.72302
0.1115	25.07629
0.112	15.71045
0.1125	15.81116
0.113	18.8324
0.1135	22.25647
0.114	15.91187
0.1145	13.49487
0.115	13.39417
0.1155	11.78284
0.116	8.45947
0.1165	11.2793
0.117	10.77576
0.1175	8.7616
0.118	5.0354
0.1185	1.61133
0.119	-0.40283
0.1195	-0.80566
0.12	-6.04248
0.1205	-9.16443
0.121	-16.21399
0.1215	-15.91187
0.122	-16.3147
0.1225	-36.15417
0.123	-65.46021
0.1235	-75.73242
0.124	-76.63879
0.1245	-65.46021
0.125	-54.78516
0.1255	-45.82214
0.126	-34.34143
0.1265	-14.50195
0.127	-5.53894
0.1275	6.64673
0.128	13.69629
0.1285	6.54602
0.129	9.26514
0.1295	-14.19983
0.13	-31.72302
0.1305	-44.21082
0.131	-50.65613
0.1315	-68.88428
0.132	-131.62537
0.1325	-186.81335
0.133	-282.38525
0.1335	-327.60315
0.134	-320.55359
0.1345	-268.38684
0.135	-196.98486
0.1355	-116.11633
0.136	-34.03931
0.1365	38.77258
0.137	107.05261
0.1375	161.0321
0.138	199.70398
0.1385	229.61426
0.139	238.77869
0.1395	236.36169
0.14	232.33337
0.1405	221.3562
0.141	198.59619
0.1415	170.09583
0.142	147.23511
0.1425	138.27209
0.143	130.11475
0.1435	111.48376
0.144	90.73792
0.1445	70.29419
0.145	49.34692
0.1455	41.59241
0.146	33.83789
0.1465	24.06921
0.147	11.07788
0.1475	3.22266
0.148	6.44531
0.1485	5.43823
0.149	0
0.1495	-0.20142
0.15	-19.83948
0.1505	-40.08179
0.151	-50.85754
0.1515	-60.92834
0.152	-97.48535
0.1525	-125.58289
0.153	-134.24377
0.1535	-150.75989
0.154	-141.19263
0.1545	-123.66943
0.155	-91.24146
0.1555	-59.1156
0.156	-22.6593
0.1565	2.81982
0.157	19.73877
0.1575	27.59399
0.158	22.96143
0.1585	25.27771
0.159	23.26355
0.1595	28.70178
0.16	34.94568
0.1605	33.03223
0.161	38.57117
0.1615	43.90869
0.162	42.90161
0.1625	29.50745
0.163	1.10779
0.1635	-32.22656
0.164	-61.12976
0.1645	-57.8064
0.165	-59.71985
0.1655	-64.55383
0.166	-51.46179
0.1665	-47.03064
0.167	-29.40674
0.1675	-8.56018
0.168	13.29346
0.1685	40.78674
0.169	65.66162
0.1695	88.0188
0.17	98.59314
0.1705	100.90942
0.171	92.85278
0.1715	90.03296
0.172	75.12817
0.1725	47.03064
0.173	14.19983
0.1735	-11.98425
0.174	-29.80957
0.1745	-44.31152
0.175	-47.43347
0.1755	-24.87488
0.176	-16.61682
0.1765	-18.8324
0.177	-21.65222
0.1775	-15.81116
0.178	10.0708
0.1785	44.41223
0.179	67.67578
0.1795	71.50269
0.18	73.81897
0.1805	62.8418
0.181	6.44531
0.1815	-26.28479
0.182	-33.9386
0.1825	-19.94019
0.183	0.30212
0.1835	22.86072
0.184	35.65063
0.1845	52.46887
0.185	70.69702
0.1855	81.67419
0.186	96.17615
0.1865	94.46411
0.187	91.54358
0.1875	98.29102
0.188	89.83154
0.1885	66.6687
0.189	55.49011
0.1895	42.7002
0.19	42.8009
0.1905	24.77417
0.191	25.98267
0.1915	18.22815
0.192	16.01257
0.1925	8.56018
0.193	-2.01416
0.1935	-14.70337
0.194	-24.67346
0.1945	-30.81665
0.195	-31.01807
0.1955	-27.09045
0.196	-24.37134
0.1965	-9.76868
0.197	-17.12036
0.1975	-15.00549
0.198	-19.73877
0.1985	-20.04089
0.199	-15.50903
0.1995	-13.99841
0.2	-18.22815
0.2005	-37.36267
0.201	-44.0094
0.2015	-43.30444
0.202	-39.88037
0.2025	-35.2478
0.203	-27.79541
0.2035	-19.13452
0.204	-14.70337
0.2045	-6.74744
0.205	-1.10779
0.2055	-7.25098
0.206	1.40991
0.2065	12.08496
0.207	15.20691
0.2075	6.84814
0.208	-15.60974
0.2085	-34.54285
0.209	-65.15808
0.2095	-87.21313
0.21	-111.08093
0.2105	-125.88501
0.211	-133.94165
0.2115	-201.81885
0.212	-254.0863
0.2125	-261.03516
0.213	-246.93604
0.2135	-207.25708
0.214	-154.28467
0.2145	-85.09827
0.215	-18.22815
0.2155	43.60657
0.216	106.54907
0.2165	140.18555
0.217	167.67883
0.2175	170.80078
0.218	153.68042
0.2185	154.6875
0.219	155.19104
0.2195	153.78113
0.22	147.1344
0.2205	133.63953
0.221	114.90784
0.2215	79.45862
0.222	18.12744
0.2225	-20.74585
0.223	-42.8009
0.2235	-52.26746
0.224	-97.48535
0.2245	-131.92749
0.225	-129.91333
0.2255	-102.42004
0.226	-80.26428
0.2265	-80.76782
0.227	-102.92358
0.2275	-129.71191
0.228	-110.17456
0.2285	-65.3595
0.229	-22.86072
0.2295	16.01257
0.23	30.51453
0.2305	54.48303
0.231	81.37207
0.2315	112.28943
0.232	139.98413
0.2325	150.9613
0.233	164.15405
0.2335	169.29016
0.234	175.43335
0.2345	170.90149
0.235	164.15405
0.2355	157.50732
0.236	136.76147
0.2365	120.95032
0.237	106.34766
0.2375	92.14783
0.238	73.01331
0.2385	71.50269
0.239	65.46021
0.2395	63.64746
0.24	61.23047
0.2405	57.60498
0.241	58.30994
0.2415	46.72852
0.242	37.26196
0.2425	17.22107
0.243	-5.84106
0.2435	-32.83081
0.244	-66.36658
0.2445	-105.03845
0.245	-130.01404
0.2455	-149.55139
0.246	-145.32166
0.2465	-134.34448
0.247	-115.31067
0.2475	-86.20605
0.248	-69.38782
0.2485	-48.94409
0.249	-22.76001
0.2495	9.06372
0.25	33.53577
0.2505	51.76392
0.251	64.45312
0.2515	71.7041
0.252	73.21472
0.2525	77.24304
0.253	85.90393
0.2535	86.40747
0.254	94.46411
0.2545	98.49243
0.255	89.42871
0.2555	80.4657
0.256	60.22339
0.2565	43.70728
0.257	11.88354
0.2575	-13.19275
0.258	-22.25647
0.2585	-13.99841
0.259	-6.44531
0.2595	-27.79541
0.26	-130.41687
0.2605	-206.35071
0.261	-284.198
0.2615	-310.5835
0.262	-296.58508
0.2625	-249.0509
0.263	-180.26733
0.2635	-100.30518
0.264	-27.19116
0.2645	43.50586
0.265	105.54199
0.2655	155.69458
0.266	183.48999
0.2665	207.86133
0.267	215.31372
0.2675	207.4585
0.268	173.01636
0.2685	135.8551
0.269	108.26111
0.2695	84.69543
0.27	63.24463
0.2705	51.36108
0.271	40.48462
0.2715	41.39099
0.272	38.16833
0.2725	31.72302
0.273	29.00391
0.2735	18.02673
0.274	1.40991
0.2745	-12.08496
0.275	-30.61523
0.2755	-55.18799
0.276	-70.89844
0.2765	-75.73242
0.277	-67.27295
0.2775	-53.67737
0.278	-42.90161
0.2785	-23.76709
0.279	-5.94177
0.2795	5.63965
0.28	15.91187
0.2805	25.07629
0.281	30.81665
0.2815	34.14001
0.282	20.84656
0.2825	-4.93469
0.283	-46.42639
0.2835	-101.71509
0.284	-141.59546
0.2845	-153.88184
0.285	-143.71033
0.2855	-123.16589
0.286	-107.85828
0.2865	-88.42163
0.287	-61.33118
0.2875	-24.97559
0.288	8.66089
0.2885	33.53577
0.289	49.24622
0.2895	62.03613
0.29	69.58923
0.2905	71.50269
0.291	79.35791
0.2915	81.27136
0.292	86.00464
0.2925	72.00623
0.293	64.55383
0.2935	49.44763
0.294	13.89771
0.2945	-27.89612
0.295	-49.44763
0.2955	-48.74268
0.296	-30.31311
0.2965	-13.797
0.297	3.22266
0.2975	16.51611
0.298	38.974
0.2985	57.10144
0.299	75.83313
0.2995	79.96216
0.3	79.2572
0.3005	68.78357
0.301	51.36108
0.3015	38.974
0.302	13.59558
0.3025	-21.04797
0.303	-31.01807
0.3035	-26.68762
0.304	-18.12744
0.3045	-5.0354
0.305	2.61841
0.3055	5.43823
0.306	15.1062
0.3065	4.73328
0.307	-2.71912
0.3075	1.51062
0.308	3.02124
0.3085	12.99133
0.309	14.50195
0.3095	22.35718
0.31	24.06921
0.3105	34.03931
0.311	12.5885
0.3115	-50.55542
0.312	-98.69385
0.3125	-118.83545
0.313	-150.45776
0.3135	-153.98254
0.314	-157.60803
0.3145	-168.4845
0.315	-175.23193
0.3155	-160.12573
0.316	-135.04944
0.3165	-95.87402
0.317	-59.31702
0.3175	-19.43665
0.318	20.74585
0.3185	47.63489
0.319	68.17932
0.3195	39.77966
0.32	23.46497
0.3205	28.80249
0.321	41.99524
0.3215	43.10303
0.322	49.95117
0.3225	67.57507
0.323	83.58765
0.3235	118.83545
0.324	142.19971
0.3245	155.896
0.325	151.16272
0.3255	154.78821
0.326	157.70874
0.3265	157.80945
0.327	160.83069
0.3275	159.42078
0.328	159.92432
0.3285	161.93848
0.329	153.88184
0.3295	133.63953
0.33	124.07227
0.3305	105.54199
0.331	89.42871
0.3315	72.20764
0.332	55.2887
0.3325	40.2832
0.333	26.18408
0.3335	4.73328
0.334	-5.23682
0.3345	-9.66797
0.335	-10.87646
0.3355	-12.38708
0.336	-13.49487
0.3365	-21.04797
0.337	-54.78516
0.3375	-123.97156
0.338	-158.11157
0.3385	-157.60803
0.339	-141.19263
0.3395	-113.69934
0.34	-89.12659
0.3405	-60.62622
0.341	-43.50586
0.3415	-33.13293
0.342	-23.46497
0.3425	-4.53186
0.343	16.3147
0.3435	21.85364
0.344	18.8324
0.3445	20.54443
0.345	20.44373
0.3455	5.0354
0.346	-6.2439
0.3465	-14.90479
0.347	-15.20691
0.3475	-17.92603
0.348	-33.83789
0.3485	-45.3186
0.349	-50.2533
0.3495	-54.98657
0.35	-72.81189
0.3505	-117.72766
0.351	-172.51282
0.3515	-192.35229
0.352	-167.37671
0.3525	-134.74731
0.353	-101.31226
0.3535	-85.80322
0.354	-44.71436
0.3545	-1.10779
0.355	36.85913
0.3555	68.48145
0.356	94.16199
0.3565	124.97864
0.357	144.91882
0.3575	159.42078
0.358	163.95264
0.3585	159.7229
0.359	148.04077
0.3595	134.84802
0.36	70.59631
0.3605	-0.80566
0.361	-33.23364
0.3615	-49.34692
0.362	-29.30603
0.3625	-1.91345
0.363	21.55151
0.3635	41.29028
0.364	55.08728
0.3645	57.00073
0.365	65.76233
0.3655	80.86853
0.366	87.91809
0.3665	88.0188
0.367	82.9834
0.3675	75.63171
0.368	66.6687
0.3685	46.42639
0.369	9.06372
0.3695	-20.1416
0.37	-40.98816
0.3705	-40.1825
0.371	-44.51294
0.3715	-31.82373
0.372	-21.85364
0.3725	-3.02124
0.373	-0.30212
0.3735	6.64673
0.374	6.74744
0.3745	-11.48071
0.375	-32.22656
0.3755	-47.13135
0.376	-73.61755
0.3765	-101.9165
0.377	-111.38306
0.3775	-127.19421
0.378	-124.27368
0.3785	-103.02429
0.379	-92.34924
0.3795	-66.97083
0.38	-45.11719
0.3805	-33.9386
0.381	-12.28638
0.3815	5.33752
0.382	1.71204
0.3825	4.12903
0.383	3.02124
0.3835	7.35168
0.384	-5.43823
0.3845	-26.3855
0.385	-47.03064
0.3855	-56.19507
0.386	-39.67896
0.3865	-39.17542
0.387	-55.18799
0.3875	-48.84338
0.388	-23.46497
0.3885	10.17151
0.389	49.44763
0.3895	76.03455
0.39	92.44995
0.3905	110.27527
0.391	117.12341
0.3915	129.00696
0.392	141.09192
0.3925	141.99829
0.393	140.78979
0.3935	131.52466
0.394	126.18713
0.3945	127.29492
0.395	118.83545
0.3955	75.22888
0.396	10.17151
0.3965	-35.2478
0.397	-53.17383
0.3975	-41.79382
0.398	-51.46179
0.3985	-112.39014
0.399	-149.85352
0.3995	-146.73157
0.4	-131.72607
0.4005	-118.53333
0.401	-118.13049
0.4015	-152.57263
0.402	-165.9668
0.4025	-152.06909
0.403	-123.36731
0.4035	-115.61279
0.404	-96.27686
0.4045	-62.74109
0.405	-17.52319
0.4055	23.96851
0.406	66.46729
0.4065	105.34058
0.407	130.01404
0.4075	136.56006
0.408	121.65527
0.4085	78.14941
0.409	62.8418
0.4095	53.67737
0.41	64.45312
0.4105	73.01331
0.411	92.95349
0.4115	108.36182
0.412	125.18005
0.4125	133.53882
0.413	150.9613
0.4135	171.50574
0.414	171.60645
0.4145	164.15405
0.415	165.76538
0.4155	160.12573
0.416	156.29883
0.4165	134.74731
0.417	104.73633
0.4175	85.90393
0.418	58.71277
0.4185	48.03772
0.419	33.33435
0.4195	35.34851
0.42	30.81665
0.4205	24.06921
0.421	19.23523
0.4215	18.22815
0.422	5.43823
0.4225	-4.73328
0.423	-9.36584
0.4235	-10.77576
0.424	-20.34302
0.4245	-16.51611
0.425	-22.45789
0.4255	-30.71594
0.426	-25.68054
0.4265	-23.46497
0.427	-28.39966
0.4275	-25.78125
0.428	-26.58691
0.4285	-24.77417
0.429	-23.8678
0.4295	-20.34302
0.43	-23.8678
0.4305	-25.177
0.431	-25.07629
0.4315	-25.177
0.432	-21.04797
0.4325	-25.57983
0.433	-22.35718
0.4335	-25.07629
0.434	-27.39258
0.4345	-25.27771
0.435	-31.72302
0.4355	-39.07471
0.436	-44.61365
0.4365	-47.23206
0.437	-57.20215
0.4375	-60.62622
0.438	-61.43188
0.4385	-64.55383
0.439	-55.08728
0.4395	-48.03772
0.44	-67.17224
0.4405	-95.16907
0.441	-105.74341
0.4415	-105.23987
0.442	-97.78748
0.4425	-101.8158
0.443	-143.00537
0.4435	-179.05884
0.444	-196.88416
0.4445	-181.57654
0.445	-145.8252
0.4455	-103.93066
0.446	-64.65454
0.4465	-15.91187
0.447	29.10461
0.4475	72.00623
0.448	109.3689
0.4485	131.42395
0.449	147.43652
0.4495	162.74414
0.45	164.85901
0.4505	157.00378
0.451	131.32324
0.4515	88.82446
0.452	59.51843
0.4525	35.85205
0.453	-15.30762
0.4535	-58.81348
0.454	-62.8418
0.4545	-45.82214
0.455	-26.08337
0.4555	16.51611
0.456	49.95117
0.4565	75.4303
0.457	90.93933
0.4575	110.07385
0.458	123.66943
0.4585	136.86218
0.459	144.21387
0.4595	135.8551
0.46	120.04395
0.4605	102.11792
0.461	86.91101
0.4615	73.31543
0.462	68.07861
0.4625	50.75684
0.463	40.2832
0.4635	36.95984
0.464	32.7301
0.4645	38.16833
0.465	33.63647
0.4655	19.33594
0.466	11.88354
0.4665	3.62549
0.467	1.10779
0.4675	-9.56726
0.468	-9.06372
0.4685	-23.96851
0.469	-38.77258
0.4695	-49.64905
0.47	-53.47595
0.4705	-50.45471
0.471	-43.10303
0.4715	-40.38391
0.472	-35.04639
0.4725	-25.88196
0.473	-21.45081
0.4735	-12.5885
0.474	-12.08496
0.4745	-8.96301
0.475	-10.0708
0.4755	-18.63098
0.476	-17.52319
0.4765	-15.71045
0.477	-17.92603
0.4775	-29.00391
0.478	-62.23755
0.4785	-118.83545
0.479	-178.75671
0.4795	-209.27124
0.48	-213.09814
0.4805	-213.90381
0.481	-208.06274
0.4815	-190.74097
0.482	-144.51599
0.4825	-106.54907
0.483	-80.26428
0.4835	-44.61365
0.484	-11.98425
0.4845	17.6239
0.485	-24.16992
0.4855	-72.00623
0.486	-82.68127
0.4865	-57.8064
0.487	-15.00549
0.4875	24.67346
0.488	60.4248
0.4885	97.48535
0.489	115.51208
0.4895	150.75989
0.49	166.57104
0.4905	179.76379
0.491	180.56946
0.4915	184.29565
0.492	175.83618
0.4925	161.13281
0.493	153.98254
0.4935	145.62378
0.494	132.0282
0.4945	118.02979
0.495	94.66553
0.4955	77.54517
0.496	62.64038
0.4965	54.68445
0.497	57.40356
0.4975	52.56958
0.498	62.13684
0.4985	59.21631
0.499	55.18799
0.4995	52.46887
0.5	44.51294
0.5005	45.72144
0.501	40.88745
0.5015	31.82373
0.502	17.6239
0.5025	12.78992
0.503	2.01416
0.5035	0.70496
0.504	-1.71204
0.5045	-8.05664
0.505	-8.8623
0.5055	-9.46655
0.506	-12.18567
0.5065	-13.19275
0.507	-15.20691
0.5075	-24.06921
0.508	-36.15417
0.5085	-38.77258
0.509	-44.81506
0.5095	-48.23914
0.51	-47.53418
0.5105	-55.79224
0.511	-58.41064
0.5115	-57.70569
0.512	-70.69702
0.5125	-73.21472
0.513	-73.51685
0.5135	-74.32251
0.514	-75.12817
0.5145	-75.93384
0.515	-68.68286
0.5155	-47.33276
0.516	-39.57825
0.5165	-51.86462
0.517	-129.91333
0.5175	-267.8833
0.518	-379.46777
0.5185	-396.48743
0.519	-374.63379
0.5195	-318.33801
0.52	-232.73621
0.5205	-129.00696
0.521	-22.6593
0.5215	75.32959
0.522	153.68042
0.5225	212.4939
0.523	220.55054
0.5235	223.06824
0.524	221.55762
0.5245	223.77319
0.525	207.25708
0.5255	202.72522
0.526	188.32397
0.5265	180.67017
0.527	153.3783
0.5275	126.9928
0.528	111.18164
0.5285	105.74341
0.529	100.50659
0.5295	103.22571
0.53	108.36182
0.5305	96.67969
0.531	86.10535
0.5315	80.96924
0.532	83.08411
0.5325	90.43579
0.533	91.24146
0.5335	87.11243
0.534	78.75366
0.5345	79.05579
0.535	70.3949
0.5355	69.89136
0.536	61.02905
0.5365	64.45312
0.537	54.58374
0.5375	35.65063
0.538	24.47205
0.5385	22.15576
0.539	19.23523
0.5395	11.58142
0.54	-0.90637
0.5405	-5.0354
0.541	-10.77576
0.5415	-12.99133
0.542	-13.49487
0.5425	-12.38708
0.543	-17.22107
0.5435	-14.19983
0.544	-36.85913
0.5445	-67.77649
0.545	-106.64978
0.5455	-130.31616
0.546	-192.15088
0.5465	-268.28613
0.547	-296.88721
0.5475	-293.26172
0.548	-280.77393
0.5485	-262.64648
0.549	-216.42151
0.5495	-159.11865
0.55	-96.07544
0.5505	-44.11011
0.551	6.84814
0.5515	55.3894
0.552	97.38464
0.5525	125.18005
0.553	140.8905
0.5535	148.84644
0.554	171.70715
0.5545	173.41919
0.555	165.56396
0.5555	161.83777
0.556	142.70325
0.5565	125.98572
0.557	111.28235
0.5575	94.56482
0.558	80.56641
0.5585	69.28711
0.559	68.28003
0.5595	66.16516
0.56	62.23755
0.5605	50.2533
0.561	39.98108
0.5615	35.2478
0.562	29.50745
0.5625	18.8324
0.563	21.14868
0.5635	12.08496
0.564	17.92603
0.5645	29.60815
0.565	29.60815
0.5655	21.65222
0.566	7.85522
0.5665	-1.3092
0.567	-4.73328
0.5675	-12.68921
0.568	-18.02673
0.5685	-29.20532
0.569	-25.47913
0.5695	-28.19824
0.57	-25.27771
0.5705	-20.34302
0.571	-23.8678
0.5715	-21.55151
0.572	-27.79541
0.5725	-56.09436
0.573	-86.8103
0.5735	-122.66235
0.574	-144.51599
0.5745	-150.55847
0.575	-141.49475
0.5755	-125.7843
0.576	-120.7489
0.5765	-115.20996
0.577	-105.23987
0.5775	-83.78906
0.578	-53.77808
0.5785	-38.57117
0.579	-28.80249
0.5795	-11.78284
0.58	16.11328
0.5805	51.76392
0.581	68.07861
0.5815	81.17065
0.582	92.24854
0.5825	102.21863
0.583	106.8512
0.5835	112.18872
0.584	124.87793
0.5845	130.41687
0.585	132.43103
0.5855	122.56165
0.586	117.32483
0.5865	94.86694
0.587	78.55225
0.5875	62.33826
0.588	52.36816
0.5885	39.17542
0.589	15.00549
0.5895	0.20142
0.59	-12.48779
0.5905	-12.99133
0.591	-20.84656
0.5915	-12.5885
0.592	-3.22266
0.5925	11.68213
0.593	14.40125
0.5935	15.50903
0.594	14.60266
0.5945	14.19983
0.595	21.45081
0.5955	20.94727
0.596	12.68921
0.5965	-0.10071
0.597	-9.16443
0.5975	-14.19983
0.598	-22.05505
0.5985	-31.4209
0.599	-51.5625
0.5995	-63.64746
0.6	-61.43188
0.6005	-56.19507
0.601	-45.01648
0.6015	-41.4917
0.602	-35.75134
0.6025	-19.03381
0.603	-49.24622
0.6035	-141.89758
0.604	-229.51355
0.6045	-264.55994
0.605	-253.48206
0.6055	-211.38611
0.606	-161.73706
0.6065	-125.07935
0.607	-80.06287
0.6075	-22.15576
0.608	35.34851
0.6085	80.4657
0.609	110.98022
0.6095	122.15881
0.61	114.80713
0.6105	109.06677
0.611	67.77649
0.6115	46.82922
0.612	51.46179
0.6125	78.95508
0.613	106.24695
0.6135	125.7843
0.614	144.51599
0.6145	177.3468
0.615	187.21619
0.6155	187.82043
0.616	190.84167
0.6165	181.073
0.617	152.57263
0.6175	124.67651
0.618	105.84412
0.6185	96.27686
0.619	87.91809
0.6195	76.84021
0.62	52.8717
0.6205	46.5271
0.621	36.75842
0.6215	23.26355
0.622	15.91187
0.6225	5.84106
0.623	-3.7262
0.6235	-27.89612
0.624	-58.10852
0.6245	-72.40906
0.625	-83.28552
0.6255	-101.01013
0.626	-108.1604
0.6265	-109.06677
0.627	-88.52234
0.6275	-70.69702
0.628	-75.12817
0.6285	-74.12109
0.629	-68.58215
0.6295	-52.771
0.63	-39.37683
0.6305	-22.55859
0.631	-8.35876
0.6315	11.17859
0.632	12.89062
0.6325	2.61841
0.633	8.35876
0.6335	7.04956
0.634	16.41541
0.6345	17.82532
0.635	18.22815
0.6355	26.18408
0.636	28.09753
0.6365	34.34143
0.637	41.59241
0.6375	35.14709
0.638	48.54126
0.6385	43.60657
0.639	42.59949
0.6395	42.7002
0.64	37.66479
0.6405	38.974
0.641	34.94568
0.6415	20.94727
0.642	5.63965
0.6425	-9.16443
0.643	-6.84814
0.6435	-13.797
0.644	-19.33594
0.6445	-23.16284
0.645	-16.3147
0.6455	-20.54443
0.646	-13.69629
0.6465	-2.5177
0.647	-1.10779
0.6475	5.33752
0.648	7.65381
0.6485	20.1416
0.649	27.99683
0.6495	24.16992
0.65	19.63806
0.6505	26.78833
0.651	17.82532
0.6515	16.21399
0.652	13.69629
0.6525	16.71753
0.653	16.81824
0.6535	8.25806
0.654	-7.45239
0.6545	-12.48779
0.655	-14.09912
0.6555	-13.69629
0.656	-22.15576
0.6565	-32.12585
0.657	-28.09753
0.6575	-29.91028
0.658	-18.12744
0.6585	-17.82532
0.659	-5.13611
0.6595	-4.93469
0.66	-14.90479
0.6605	-27.6947
0.661	-33.13293
0.6615	-35.65063
0.662	-34.03931
0.6625	-29.70886
0.663	-16.3147
0.6635	-19.83948
0.664	-11.78284
0.6645	-1.81274
0.665	4.02832
0.6655	4.73328
0.666	11.2793
0.6665	13.89771
0.667	7.15027
0.6675	-6.3446
0.668	-13.29346
0.6685	-19.13452
0.669	-2.61841
0.6695	2.81982
0.67	-7.15027
0.6705	-4.33044
0.671	3.42407
0.6715	14.60266
0.672	23.26355
0.6725	26.98975
0.673	32.02515
0.6735	39.07471
0.674	44.91577
0.6745	43.90869
0.675	41.18958
0.6755	47.23206
0.676	40.08179
0.6765	40.98816
0.677	44.31152
0.6775	38.06763
0.678	36.55701
0.6785	36.05347
0.679	29.10461
0.6795	23.46497
0.68	19.43665
0.6805	17.32178
0.681	19.94019
0.6815	6.2439
0.682	-10.57434
0.6825	-24.87488
0.683	-31.01807
0.6835	-29.70886
0.684	-28.29895
0.6845	-25.68054
0.685	-27.19116
0.6855	-13.59558
0.686	-9.16443
0.6865	-7.04956
0.687	-24.37134
0.6875	-71.40198
0.688	-93.35632
0.6885	-94.46411
0.689	-102.82288
0.6895	-107.65686
0.69	-98.79456
0.6905	-133.74023
0.691	-224.47815
0.6915	-266.27197
0.692	-259.32312
0.6925	-219.64417
0.693	-161.93848
0.6935	-106.14624
0.694	-50.2533
0.6945	-8.45947
0.695	26.48621
0.6955	58.30994
0.696	103.72925
0.6965	149.34998
0.697	172.71423
0.6975	179.96521
0.698	179.96521
0.6985	189.53247
0.699	187.82043
0.6995	177.04468
0.7	156.29883
0.7005	121.45386
0.701	89.63013
0.7015	72.71118
0.702	62.13684
0.7025	64.65454
0.703	69.79065
0.7035	77.948
0.704	78.35083
0.7045	74.02039
0.705	62.53967
0.7055	62.03613
0.706	64.75525
0.7065	69.08569
0.707	72.30835
0.7075	69.68994
0.708	74.02039
0.7085	60.62622
0.709	52.26746
0.7095	48.13843
0.71	44.71436
0.7105	16.41541
0.711	-16.41541
0.7115	-32.42798
0.712	-33.83789
0.7125	-34.64355
0.713	-32.83081
0.7135	-27.99683
0.714	-12.38708
0.7145	1.10779
0.715	15.00549
0.7155	19.63806
0.716	17.12036
0.7165	24.27063
0.717	25.07629
0.7175	13.09204
0.718	6.3446
0.7185	0.60425
0.719	4.22974
0.7195	1.91345
0.72	2.5177
0.7205	8.35876
0.721	11.78284
0.7215	2.31628
0.722	-8.96301
0.7225	-26.18408
0.723	-48.84338
0.7235	-76.63879
0.724	-93.0542
0.7245	-92.44995
0.725	-85.5011
0.7255	-70.59631
0.726	-75.83313
0.7265	-81.97632
0.727	-73.31543
0.7275	-43.40515
0.728	-19.23523
0.7285	5.33752
0.729	25.57983
0.7295	36.25488
0.73	43.70728
0.7305	-10.67505
0.731	-74.62463
0.7315	-126.69067
0.732	-140.18555
0.7325	-122.56165
0.733	-100.00305
0.7335	-80.76782
0.734	-65.66162
0.7345	-30.11169
0.735	15.91187
0.7355	58.41064
0.736	87.61597
0.7365	49.95117
0.737	8.15735
0.7375	-9.76868
0.738	-16.01257
0.7385	8.7616
0.739	36.55701
0.7395	69.48853
0.74	96.27686
0.7405	127.29492
0.741	149.55139
0.7415	166.16821
0.742	179.56238
0.7425	175.73547
0.743	170.70007
0.7435	145.42236
0.744	124.17297
0.7445	100.40588
0.745	95.87402
0.7455	93.35632
0.746	84.59473
0.7465	81.87561
0.747	72.30835
0.7475	58.81348
0.748	42.29736
0.7485	35.14709
0.749	21.85364
0.7495	16.91895
0.75	12.28638
0.7505	9.66797
0.751	13.29346
0.7515	12.18567
0.752	14.60266
0.7525	8.25806
0.753	-12.99133
0.7535	-67.8772
0.754	-95.47119
0.7545	-100.50659
0.755	-92.04712
0.7555	-77.14233
0.756	-56.09436
0.7565	-39.17542
0.757	-22.15576
0.7575	-14.50195
0.758	-22.76001
0.7585	-36.85913
0.759	-33.23364
0.7595	-19.94019
0.76	-6.2439
0.7605	-2.31628
0.761	12.99133
0.7615	11.38
0.762	22.55859
0.7625	30.41382
0.763	35.54993
0.7635	37.16125
0.764	-5.63965
0.7645	-41.99524
0.765	-62.03613
0.7655	-65.3595
0.766	-61.93542
0.7665	-52.46887
0.767	-34.54285
0.7675	-21.75293
0.768	0.40283
0.7685	3.42407
0.769	4.73328
0.7695	6.14319
0.77	-18.32886
0.7705	-51.36108
0.771	-58.10852
0.7715	-52.771
0.772	-40.58533
0.7725	-20.84656
0.773	-0.30212
0.7735	24.57275
0.774	42.8009
0.7745	63.64746
0.775	76.43738
0.7755	86.70959
0.776	83.68835
0.7765	77.44446
0.777	73.41614
0.7775	62.33826
0.778	48.03772
0.7785	25.37842
0.779	16.3147
0.7795	16.51611
0.78	13.49487
0.7805	10.77576
0.781	6.54602
0.7815	3.12195
0.782	-3.62549
0.7825	-1.00708
0.783	1.91345
0.7835	2.92053
0.784	5.63965
0.7845	-1.00708
0.785	-0.90637
0.7855	0.70496
0.786	-0.50354
0.7865	-2.01416
0.787	-0.20142
0.7875	-8.8623
0.788	-2.92053
0.7885	-46.72852
0.789	-137.66785
0.7895	-207.4585
0.79	-265.3656
0.7905	-286.7157
0.791	-270.401
0.7915	-245.02258
0.792	-212.89673
0.7925	-168.98804
0.793	-112.49084
0.7935	-57.20215
0.794	-15.81116
0.7945	39.27612
0.795	86.10535
0.7955	119.23828
0.796	144.81812
0.7965	158.11157
0.797	168.28308
0.7975	169.99512
0.798	164.95972
0.7985	156.39954
0.799	140.99121
0.7995	134.94873
0.8	118.53333
0.8005	92.24854
0.801	74.62463
0.8015	56.29578
0.802	50.85754
0.8025	48.03772
0.803	47.53418
0.8035	38.57117
0.804	28.50037
0.8045	4.12903
0.805	-17.32178
0.8055	-20.04089
0.806	-19.73877
0.8065	-8.25806
0.807	2.31628
0.8075	13.49487
0.808	25.57983
0.8085	37.96692
0.809	23.76709
0.8095	10.17151
0.81	10.77576
0.8105	9.76868
0.811	8.35876
0.8115	12.68921
0.812	16.21399
0.8125	15.81116
0.813	10.77576
0.8135	9.06372
0.814	14.60266
0.8145	26.3855
0.815	27.59399
0.8155	22.96143
0.816	22.86072
0.8165	19.13452
0.817	11.38
0.8175	11.88354
0.818	8.05664
0.8185	12.89062
0.819	9.26514
0.8195	2.31628
0.82	6.94885
0.8205	10.17151
0.821	10.97717
0.8215	22.45789
0.822	25.57983
0.8225	32.83081
0.823	21.14868
0.8235	0.50354
0.824	-15.91187
0.8245	-27.09045
0.825	-23.96851
0.8255	-26.58691
0.826	-26.08337
0.8265	-20.44373
0.827	-15.71045
0.8275	-9.36584
0.828	-7.25098
0.8285	-3.42407
0.829	-0.20142
0.8295	9.46655
0.83	10.97717
0.8305	13.69629
0.831	20.84656
0.8315	12.78992
0.832	7.25098
0.8325	-4.73328
0.833	-23.8678
0.8335	-35.04639
0.834	-57.40356
0.8345	-84.89685
0.835	-102.42004
0.8355	-100.80872
0.836	-94.86694
0.8365	-79.15649
0.837	-57.8064
0.8375	-27.99683
0.838	-5.33752
0.8385	17.6239
0.839	27.99683
0.8395	-12.78992
0.84	-78.25012
0.8405	-109.97314
0.841	-106.9519
0.8415	-86.40747
0.842	-69.58923
0.8425	-49.64905
0.843	-45.11719
0.8435	-65.66162
0.844	-65.96375
0.8445	-80.26428
0.845	-64.25171
0.8455	-42.7002
0.846	-13.39417
0.8465	13.89771
0.847	36.75842
0.8475	56.79932
0.848	17.32178
0.8485	-3.92761
0.849	3.92761
0.8495	30.81665
0.85	50.15259
0.8505	65.66162
0.851	80.36499
0.8515	87.91809
0.852	89.328
0.8525	94.06128
0.853	92.34924
0.8535	92.65137
0.854	98.69385
0.8545	112.59155
0.855	122.96448
0.8555	129.40979
0.856	128.302
0.8565	118.63403
0.857	117.22412
0.8575	97.38464
0.858	75.63171
0.8585	54.48303
0.859	47.23206
0.8595	35.95276
0.86	32.02515
0.8605	26.58691
0.861	22.6593
0.8615	11.98425
0.862	14.30054
0.8625	19.53735
0.863	25.57983
0.8635	21.65222
0.864	27.09045
0.8645	23.56567
0.865	20.04089
0.8655	13.59558
0.866	-4.63257
0.8665	-11.98425
0.867	-17.32178
0.8675	-17.42249
0.868	-17.22107
0.8685	-16.81824
0.869	-24.06921
0.8695	-21.65222
0.87	-21.45081
0.8705	-51.26038
0.871	-81.97632
0.8715	-91.14075
0.872	-81.37207
0.8725	-71.90552
0.873	-57.50427
0.8735	-45.52002
0.874	-24.57275
0.8745	-5.13611
0.875	21.45081
0.8755	31.52161
0.876	36.35559
0.8765	52.97241
0.877	46.92993
0.8775	48.84338
0.878	36.85913
0.8785	26.78833
0.879	19.53735
0.8795	-45.41931
0.88	-152.87476
0.8805	-226.08948
0.881	-276.44348
0.8815	-310.6842
0.882	-288.22632
0.8825	-241.79993
0.883	-179.66309
0.8835	-124.17297
0.884	-48.23914
0.8845	15.40833
0.885	74.12109
0.8855	125.88501
0.886	161.93848
0.8865	173.11707
0.887	177.3468
0.8875	172.3114
0.888	161.73706
0.8885	153.57971
0.889	138.97705
0.8895	133.23669
0.89	120.54749
0.8905	115.41138
0.891	105.13916
0.8915	96.17615
0.892	87.61597
0.8925	83.88977
0.893	84.59473
0.8935	86.10535
0.894	73.01331
0.8945	53.07312
0.895	29.91028
0.8955	25.98267
0.896	16.81824
0.8965	6.2439
0.897	8.56018
0.8975	16.51611
0.898	6.84814
0.8985	-31.62231
0.899	-81.27136
0.8995	-167.77954
0.9	-250.15869
0.9005	-304.44031
0.901	-324.58191
0.9015	-311.99341
0.902	-273.01941
0.9025	-206.75354
0.903	-114.90784
0.9035	-33.63647
0.904	37.06055
0.9045	97.08252
0.905	158.21228
0.9055	193.35938
0.906	219.54346
0.9065	228.80859
0.907	231.02417
0.9075	224.07532
0.908	209.37195
0.9085	188.02185
0.909	160.83069
0.9095	135.04944
0.91	113.09509
0.9105	87.21313
0.911	69.1864
0.9115	54.48303
0.912	45.72144
0.9125	49.24622
0.913	54.0802
0.9135	44.51294
0.914	37.46338
0.9145	34.14001
0.915	37.66479
0.9155	32.12585
0.916	12.68921
0.9165	6.54602
0.917	-4.12903
0.9175	-18.22815
0.918	-42.39807
0.9185	-67.27295
0.919	-95.06836
0.9195	-122.46094
0.92	-135.8551
0.9205	-126.28784
0.921	-108.96606
0.9215	-96.27686
0.922	-147.1344
0.9225	-186.71265
0.923	-194.76929
0.9235	-163.95264
0.924	-117.02271
0.9245	-92.24854
0.925	-74.42322
0.9255	-46.32568
0.926	-15.1062
0.9265	16.91895
0.927	47.8363
0.9275	53.97949
0.928	31.32019
0.9285	7.5531
0.929	-0.90637
0.9295	8.56018
0.93	26.98975
0.9305	41.08887
0.931	61.02905
0.9315	80.86853
0.932	94.06128
0.9325	97.18323
0.933	98.19031
0.9335	99.49951
0.934	95.67261
0.9345	90.83862
0.935	80.4657
0.9355	70.49561
0.936	68.68286
0.9365	72.81189
0.937	66.56799
0.9375	51.96533
0.938	31.11877
0.9385	20.24231
0.939	15.40833
0.9395	16.11328
0.94	10.47363
0.9405	7.35168
0.941	8.25806
0.9415	0.60425
0.942	-7.25098
0.9425	-36.05347
0.943	-54.18091
0.9435	-66.46729
0.944	-70.59631
0.9445	-86.60889
0.945	-90.03296
0.9455	-88.82446
0.946	-61.93542
0.9465	-32.42798
0.947	-13.39417
0.9475	-2.71912
0.948	15.50903
0.9485	19.53735
0.949	22.05505
0.9495	28.60107
0.95	24.87488
0.9505	26.28479
0.951	-20.44373
0.9515	-76.94092
0.952	-82.78198
0.9525	-70.49561
0.953	-39.98108
0.9535	0.50354
0.954	35.34851
0.9545	74.02039
0.955	106.34766
0.9555	134.84802
0.956	154.18396
0.9565	163.4491
0.957	166.26892
0.9575	157.70874
0.958	142.19971
0.9585	124.87793
0.959	101.11084
0.9595	39.98108
0.96	-21.75293
0.9605	-57.9071
0.961	-69.79065
0.9615	-63.74817
0.962	-50.354
0.9625	-31.32019
0.963	-11.78284
0.9635	17.52319
0.964	29.91028
0.9645	-5.33752
0.965	-18.12744
0.9655	-19.53735
0.966	-20.64514
0.9665	-12.5885
0.967	2.31628
0.9675	19.63806
0.968	40.48462
0.9685	52.97241
0.969	68.58215
0.9695	57.40356
0.97	46.82922
0.9705	31.62231
0.971	23.8678
0.9715	22.86072
0.972	27.89612
0.9725	27.6947
0.973	25.27771
0.9735	10.47363
0.974	-2.81982
0.9745	-0.50354
0.975	1.2085
0.9755	-4.33044
0.976	-3.12195
0.9765	-18.8324
0.977	-36.95984
0.9775	-43.30444
0.978	-44.11011
0.9785	-40.98816
0.979	-42.19666
0.9795	-37.26196
0.98	-18.8324
0.9805	-24.06921
0.981	-40.38391
0.9815	-48.64197
0.982	-74.92676
0.9825	-117.62695
0.983	-134.34448
0.9835	-161.43494
0.984	-181.27441
0.9845	-177.3468
0.985	-177.64893
0.9855	-163.85193
0.986	-126.79138
0.9865	-83.18481
0.987	-38.47046
0.9875	-9.06372
0.988	-10.67505
0.9885	-6.2439
0.989	15.71045
0.9895	44.61365
0.99	71.09985
0.9905	89.73083
0.991	96.47827
0.9915	97.08252
0.992	76.63879
0.9925	69.08569
0.993	65.3595
0.9935	43.50586
0.994	12.18567
0.9945	-8.35876
0.995	-22.15576
0.9955	-12.28638
0.996	9.06372
0.9965	31.4209
0.997	32.12585
0.9975	-42.49878
0.998	-191.34521
0.9985	-298.39783
0.999	-319.54651
0.9995	-301.11694
1	-241.39709
1.0005	-154.6875
1.001	-62.8418
1.0015	37.16125
1.002	143.50891
1.0025	230.21851
1.003	288.42773
1.0035	336.56616
1.004	356.70776
1.0045	362.54883
1.005	345.42847
1.0055	325.99182
1.006	304.64172
1.0065	277.55127
1.007	239.68506
1.0075	204.13513
1.008	189.02893
1.0085	172.91565
1.009	149.55139
1.0095	129.91333
1.01	91.94641
1.0105	63.84888
1.011	34.74426
1.0115	11.68213
1.012	3.32336
1.0125	-9.06372
1.013	-37.26196
1.0135	-70.89844
1.014	-100.10376
1.0145	-113.49792
1.015	-119.94324
1.0155	-146.63086
1.016	-168.4845
1.0165	-187.31689
1.017	-203.43018
1.0175	-185.40344
1.018	-156.90308
1.0185	-117.02271
1.019	-73.11401
1.0195	-29.40674
1.02	22.55859
1.0205	56.79932
1.021	94.96765
1.0215	114.20288
1.022	116.922
1.0225	125.18005
1.023	121.9574
1.0235	102.92358
1.024	81.17065
1.0245	64.25171
1.025	55.3894
1.0255	37.7655
1.026	23.06213
1.0265	24.47205
1.027	24.57275
1.0275	23.96851
1.028	18.42957
1.0285	19.03381
1.029	25.57983
1.0295	20.74585
1.03	8.05664
1.0305	2.92053
1.031	-1.51062
1.0315	-3.12195
1.032	-8.15735
1.0325	-6.74744
1.033	-10.97717
1.0335	-15.00549
1.034	-10.67505
1.0345	-2.11487
1.035	-9.06372
1.0355	-27.79541
1.036	-46.12427
1.0365	-70.89844
1.037	-102.01721
1.0375	-117.32483
1.038	-117.72766
1.0385	-103.32642
1.039	-88.52234
1.0395	-63.34534
1.04	-43.40515
1.0405	-40.68604
1.041	-46.02356
1.0415	-90.23438
1.042	-115.41138
1.0425	-118.43262
1.043	-98.79456
1.0435	-77.84729
1.044	-50.354
1.0445	-11.38
1.045	1.61133
1.0455	0.60425
1.046	8.45947
1.0465	29.00391
1.047	53.07312
1.0475	80.4657
1.048	91.64429
1.0485	106.34766
1.049	102.21863
1.0495	95.47119
1.05	91.94641
1.0505	85.29968
1.051	69.08569
1.0515	66.56799
1.052	56.49719
1.0525	58.81348
1.053	56.19507
1.0535	51.66321
1.054	35.2478
1.0545	-27.79541
1.055	-71.60339
1.0555	-98.79456
1.056	-96.17615
1.0565	-80.86853
1.057	-78.04871
1.0575	-70.3949
1.058	-46.5271
1.0585	-4.02832
1.059	40.58533
1.0595	68.68286
1.06	98.29102
1.0605	121.25244
1.061	109.77173
1.0615	97.18323
1.062	86.8103
1.0625	80.36499
1.063	77.04163
1.0635	70.59631
1.064	64.25171
1.0645	65.56091
1.065	71.40198
1.0655	77.74658
1.066	81.27136
1.0665	83.18481
1.067	72.20764
1.0675	33.03223
1.068	-16.51611
1.0685	-35.44922
1.069	-39.98108
1.0695	-32.93152
1.07	-28.09753
1.0705	-15.91187
1.071	-1.10779
1.0715	5.13611
1.072	14.90479
1.0725	23.56567
1.073	3.62549
1.0735	-57.8064
1.074	-101.8158
1.0745	-113.80005
1.075	-107.35474
1.0755	-98.19031
1.076	-83.18481
1.0765	-150.05493
1.077	-240.39001
1.0775	-278.05481
1.078	-262.8479
1.0785	-212.99744
1.079	-152.87476
1.0795	-92.75208
1.08	-21.55151
1.0805	47.13135
1.081	104.23279
1.0815	119.13757
1.082	123.16589
1.0825	129.00696
1.083	134.04236
1.0835	128.90625
1.084	123.36731
1.0845	114.30359
1.085	116.11633
1.0855	107.35474
1.086	100.30518
1.0865	78.04871
1.087	51.05896
1.0875	30.71594
1.088	17.12036
1.0885	-2.81982
1.089	-53.07312
1.0895	-112.59155
1.09	-134.94873
1.0905	-132.0282
1.091	-125.7843
1.0915	-127.39563
1.092	-104.13208
1.0925	-98.89526
1.093	-92.75208
1.0935	-60.92834
1.094	-17.22107
1.0945	31.21948
1.095	71.50269
1.0955	100.10376
1.096	130.41687
1.0965	150.15564
1.097	156.19812
1.0975	161.33423
1.098	160.32715
1.0985	162.64343
1.099	152.47192
1.0995	149.14856
1.1	140.78979
1.1005	122.86377
1.101	108.56323
1.1015	86.8103
1.102	59.71985
1.1025	32.93152
1.103	18.42957
1.1035	0.70496
1.104	-48.13843
1.1045	-77.04163
1.105	-97.08252
1.1055	-109.26819
1.106	-120.95032
1.1065	-113.1958
1.107	-90.03296
1.1075	-68.38074
1.108	-42.39807
1.1085	-10.87646
1.109	6.3446
1.1095	21.3501
1.11	38.06763
1.1105	48.74268
1.111	27.99683
1.1115	-8.7616
1.112	-57.30286
1.1125	-118.93616
1.113	-148.3429
1.1135	-152.47192
1.114	-142.099
1.1145	-116.922
1.115	-80.76782
1.1155	-25.88196
1.116	30.61523
1.1165	72.00623
1.117	103.82996
1.1175	124.4751
1.118	118.43262
1.1185	84.39331
1.119	32.32727
1.1195	-7.5531
1.12	-19.03381
1.1205	-19.83948
1.121	-12.99133
1.1215	5.13611
1.122	29.10461
1.1225	56.90002
1.123	92.34924
1.1235	109.87244
1.124	122.96448
1.1245	111.58447
1.125	96.07544
1.1255	87.41455
1.126	80.06287
1.1265	73.01331
1.127	75.53101
1.1275	39.67896
1.128	-4.02832
1.1285	-21.65222
1.129	-13.69629
1.1295	-3.02124
1.13	11.2793
1.1305	23.46497
1.131	-5.13611
1.1315	-37.36267
1.132	-101.31226
1.1325	-153.88184
1.133	-178.65601
1.1335	-181.77795
1.134	-139.17847
1.1345	-86.40747
1.135	-24.47205
1.1355	32.93152
1.136	81.57349
1.1365	129.10767
1.137	159.52148
1.1375	166.57104
1.138	170.29724
1.1385	164.55688
1.139	135.75439
1.1395	108.46252
1.14	84.69543
1.1405	66.36658
1.141	53.77808
1.1415	46.32568
1.142	16.01257
1.1425	-62.33826
1.143	-119.13757
1.1435	-151.36414
1.144	-154.08325
1.1445	-148.64502
1.145	-125.7843
1.1455	-97.08252
1.146	-52.16675
1.1465	-18.93311
1.147	-4.02832
1.1475	8.56018
1.148	20.34302
1.1485	32.52869
1.149	40.58533
1.1495	42.59949
1.15	51.36108
1.1505	42.7002
1.151	56.5979
1.1515	56.49719
1.152	51.5625
1.1525	47.53418
1.153	43.00232
1.1535	52.26746
1.154	51.96533
1.1545	58.30994
1.155	57.60498
1.1555	59.21631
1.156	52.16675
1.1565	24.37134
1.157	9.06372
1.1575	-0.40283
1.158	-4.02832
1.1585	-23.36426
1.159	-44.51294
1.1595	-83.99048
1.16	-118.2312
1.1605	-142.60254
1.161	-164.05334
1.1615	-188.12256
1.162	-199.9054
1.1625	-230.62134
1.163	-259.021
1.1635	-258.71887
1.164	-225.48523
1.1645	-164.25476
1.165	-100.40588
1.1655	-37.26196
1.166	23.56567
1.1665	88.72375
1.167	144.71741
1.1675	182.3822
1.168	177.3468
1.1685	124.17297
1.169	66.56799
1.1695	37.46338
1.17	37.96692
1.1705	62.74109
1.171	59.21631
1.1715	-3.22266
1.172	-54.88586
1.1725	-90.83862
1.173	-99.49951
1.1735	-69.1864
1.174	-31.92444
1.1745	3.52478
1.175	9.36584
1.1755	-4.12903
1.176	-51.36108
1.1765	-73.21472
1.177	-61.23047
1.1775	-17.32178
1.178	18.93311
1.1785	67.17224
1.179	111.8866
1.1795	151.56555
1.18	199.30115
1.1805	213.50098
1.181	236.36169
1.1815	253.38135
1.182	257.61108
1.1825	242.10205
1.183	217.12646
1.1835	176.74255
1.184	149.6521
1.1845	124.87793
1.185	101.9165
1.1855	83.78906
1.186	74.42322
1.1865	37.86621
1.187	4.83398
1.1875	-29.60815
1.188	-89.12659
1.1885	-169.39087
1.189	-209.06982
1.1895	-208.16345
1.19	-183.79211
1.1905	-133.84094
1.191	-78.85437
1.1915	-25.07629
1.192	39.67896
1.1925	80.66711
1.193	110.87952
1.1935	132.12891
1.194	142.60254
1.1945	143.81104
1.195	152.1698
1.1955	143.4082
1.196	125.07935
1.1965	98.79456
1.197	72.00623
1.1975	59.92126
1.198	51.36108
1.1985	41.89453
1.199	44.61365
1.1995	38.36975
1.2	30.31311
1.2005	18.53027
1.201	13.39417
1.2015	10.47363
1.202	-6.14319
1.2025	-19.73877
1.203	-20.84656
1.2035	-23.36426
1.204	-18.22815
1.2045	-24.06921
1.205	-16.71753
1.2055	-6.74744
1.206	5.84106
1.2065	5.53894
1.207	9.46655
1.2075	0.70496
1.208	1.40991
1.2085	-2.5177
1.209	-8.8623
1.2095	-31.62231
1.21	-53.47595
1.2105	-76.33667
1.211	-93.45703
1.2115	-116.82129
1.212	-141.09192
1.2125	-149.14856
1.213	-139.5813
1.2135	-120.24536
1.214	-97.98889
1.2145	-78.75366
1.215	-55.99365
1.2155	-34.84497
1.216	-17.92603
1.2165	-6.74744
1.217	-30.61523
1.2175	-60.12268
1.218	-70.29419
1.2185	-70.29419
1.219	-57.00073
1.2195	-48.13843
1.22	-29.40674
1.2205	-9.86938
1.221	2.11487
1.2215	9.86938
1.222	17.6239
1.2225	30.71594
1.223	46.32568
1.2235	54.28162
1.224	52.67029
1.2245	52.8717
1.225	38.57117
1.2255	16.91895
1.226	-5.84106
1.2265	-21.3501
1.227	-46.72852
1.2275	-101.21155
1.228	-188.12256
1.2285	-221.85974
1.229	-246.13037
1.2295	-235.55603
1.23	-195.47424
1.2305	-129.40979
1.231	-58.81348
1.2315	26.68762
1.232	84.79614
1.2325	131.32324
1.233	182.48291
1.2335	222.76611
1.234	243.31055
1.2345	251.16577
1.235	222.26257
1.2355	189.73389
1.236	160.83069
1.2365	137.16431
1.237	110.6781
1.2375	78.75366
1.238	3.8269
1.2385	-69.68994
1.239	-97.58606
1.2395	-90.03296
1.24	-77.14233
1.2405	-57.30286
1.241	-29.30603
1.2415	-6.74744
1.242	10.57434
1.2425	-7.04956
1.243	-29.60815
1.2435	-24.57275
1.244	-5.53894
1.2445	7.75452
1.245	20.1416
1.2455	38.57117
1.246	50.15259
1.2465	62.53967
1.247	78.25012
1.2475	93.85986
1.248	112.59155
1.2485	134.24377
1.249	153.27759
1.2495	162.13989
1.25	138.3728
1.2505	110.98022
1.251	96.07544
1.2515	44.41223
1.252	-36.25488
1.2525	-89.12659
1.253	-98.99597
1.2535	-78.25012
1.254	-45.2179
1.2545	-15.30762
1.255	22.25647
1.2555	53.77808
1.256	72.61047
1.2565	93.25562
1.257	110.07385
1.2575	121.25244
1.258	78.55225
1.2585	26.88904
1.259	-14.90479
1.2595	-40.08179
1.26	-46.12427
1.2605	-57.40356
1.261	-54.28162
1.2615	-46.92993
1.262	-29.40674
1.2625	-16.01257
1.263	-1.91345
1.2635	4.83398
1.264	4.93469
1.2645	-0.70496
1.265	-12.48779
1.2655	-25.47913
1.266	-53.77808
1.2665	-69.89136
1.267	-80.56641
1.2675	-77.44446
1.268	-63.24463
1.2685	-39.37683
1.269	-27.99683
1.2695	-8.7616
1.27	14.50195
1.2705	31.32019
1.271	55.18799
1.2715	86.20605
1.272	102.42004
1.2725	106.9519
1.273	102.92358
1.2735	93.85986
1.274	89.02588
1.2745	61.02905
1.275	34.34143
1.2755	7.35168
1.276	-11.17859
1.2765	-20.94727
1.277	-38.16833
1.2775	-55.59082
1.278	-50.75684
1.2785	-45.52002
1.279	-46.5271
1.2795	-41.59241
1.28	-41.99524
1.2805	-86.60889
1.281	-114.4043
1.2815	-173.31848
1.282	-225.48523
1.2825	-243.71338
1.283	-220.047
1.2835	-181.87866
1.284	-135.45227
1.2845	-72.9126
1.285	2.01416
1.2855	63.44604
1.286	109.16748
1.2865	152.1698
1.287	177.64893
1.2875	191.74805
1.288	195.37354
1.2885	188.32397
1.289	162.44202
1.2895	131.52466
1.29	106.04553
1.2905	82.37915
1.291	84.39331
1.2915	85.5011
1.292	87.61597
1.2925	73.41614
1.293	46.32568
1.2935	26.68762
1.294	5.43823
1.2945	2.71912
1.295	8.15735
1.2955	21.45081
1.296	32.32727
1.2965	41.29028
1.297	33.13293
1.2975	10.27222
1.298	-24.06921
1.2985	-62.33826
1.299	-86.20605
1.2995	-92.34924
1.3	-85.60181
1.3005	-78.25012
1.301	-78.85437
1.3015	-90.83862
1.302	-98.79456
1.3025	-119.4397
1.303	-120.24536
1.3035	-107.35474
1.304	-72.10693
1.3045	-43.40515
1.305	-23.16284
1.3055	-8.35876
1.306	2.11487
1.3065	29.70886
1.307	56.19507
1.3075	76.7395
1.308	97.08252
1.3085	107.55615
1.309	62.33826
1.3095	-13.09204
1.31	-53.47595
1.3105	-67.77649
1.311	-60.72693
1.3115	-49.44763
1.312	-37.06055
1.3125	-27.29187
1.313	4.83398
1.3135	31.11877
1.314	55.69153
1.3145	62.03613
1.315	64.151
1.3155	55.99365
1.316	41.79382
1.3165	41.69312
1.317	42.90161
1.3175	50.95825
1.318	52.56958
1.3185	64.75525
1.319	62.53967
1.3195	64.25171
1.32	55.49011
1.3205	64.05029
1.321	75.73242
1.3215	85.29968
1.322	96.67969
1.3225	84.69543
1.323	51.66321
1.3235	1.2085
1.324	-40.68604
1.3245	-48.74268
1.325	-54.68445
1.3255	-49.14551
1.326	-27.6947
1.3265	3.52478
1.327	32.32727
1.3275	60.72693
1.328	85.70251
1.3285	97.08252
1.329	103.125
1.3295	92.44995
1.33	64.65454
1.3305	48.03772
1.331	40.08179
1.3315	28.80249
1.332	24.97559
1.3325	-2.71912
1.333	-49.24622
1.3335	-73.11401
1.334	-74.32251
1.3345	-78.75366
1.335	-96.27686
1.3355	-105.03845
1.336	-94.3634
1.3365	-78.25012
1.337	-74.32251
1.3375	-52.56958
1.338	-31.4209
1.3385	-10.17151
1.339	8.05664
1.3395	37.16125
1.34	62.13684
1.3405	81.27136
1.341	84.99756
1.3415	78.75366
1.342	55.99365
1.3425	34.34143
1.343	-10.97717
1.3435	-82.17773
1.344	-113.29651
1.3445	-121.05103
1.345	-96.8811
1.3455	-70.99915
1.346	-37.06055
1.3465	-29.30603
1.347	-9.86938
1.3475	-11.88354
1.348	-25.27771
1.3485	-23.26355
1.349	-5.13611
1.3495	-4.83398
1.35	-17.52319
1.3505	-38.06763
1.351	-70.09277
1.3515	-92.14783
1.352	-90.03296
1.3525	-64.55383
1.353	-40.1825
1.3535	-36.4563
1.354	-53.17383
1.3545	-36.4563
1.355	6.3446
1.3555	43.80798
1.356	69.1864
1.3565	45.52002
1.357	22.25647
1.3575	21.55151
1.358	0.40283
1.3585	-57.30286
1.359	-92.44995
1.3595	-80.4657
1.36	-41.69312
1.3605	-13.09204
1.361	-34.64355
1.3615	-39.37683
1.362	-6.64673
1.3625	48.13843
1.363	110.17456
1.3635	153.17688
1.364	194.66858
1.3645	228.70789
1.365	255.99976
1.3655	262.94861
1.366	256.20117
1.3665	240.69214
1.367	218.13354
1.3675	184.79919
1.368	153.17688
1.3685	120.64819
1.369	110.87952
1.3695	110.47668
1.37	110.98022
1.3705	96.07544
1.371	65.66162
1.3715	33.03223
1.372	7.5531
1.3725	-10.27222
1.373	-12.38708
1.3735	-11.58142
1.374	-16.01257
1.3745	-16.41541
1.375	-34.44214
1.3755	-53.27454
1.376	-77.44446
1.3765	-93.85986
1.377	-151.46484
1.3775	-249.95728
1.378	-317.33093
1.3785	-330.62439
1.379	-297.59216
1.3795	-245.72754
1.38	-188.6261
1.3805	-128.90625
1.381	-56.79932
1.3815	23.8678
1.382	84.79614
1.3825	123.06519
1.383	122.86377
1.3835	130.92041
1.384	139.88342
1.3845	143.91174
1.385	145.72449
1.3855	95.67261
1.386	22.86072
1.3865	-20.64514
1.387	-44.11011
1.3875	-49.14551
1.388	-43.40515
1.3885	-23.76709
1.389	6.44531
1.3895	34.44214
1.39	64.85596
1.3905	91.14075
1.391	111.58447
1.3915	117.12341
1.392	116.31775
1.3925	109.57031
1.393	93.96057
1.3935	86.50818
1.394	65.15808
1.3945	47.93701
1.395	34.54285
1.3955	29.60815
1.396	27.89612
1.3965	17.12036
1.397	-28.9032
1.3975	-68.48145
1.398	-99.49951
1.3985	-134.14307
1.399	-139.78271
1.3995	-141.89758
1.4	-128.50342
1.4005	-106.44836
1.401	-87.81738
1.4015	-97.18323
1.402	-155.59387
1.4025	-172.10999
1.403	-172.61353
1.4035	-149.24927
1.404	-116.21704
1.4045	-76.23596
1.405	-33.03223
1.4055	0.80566
1.406	25.78125
1.4065	45.62073
1.407	76.94092
1.4075	111.8866
1.408	148.54431
1.4085	171.60645
1.409	178.35388
1.4095	162.44202
1.41	146.93298
1.4105	138.57422
1.411	132.33032
1.4115	121.35315
1.412	114.60571
1.4125	92.04712
1.413	85.80322
1.4135	70.99915
1.414	69.48853
1.4145	68.38074
1.415	62.74109
1.4155	45.72144
1.416	15.1062
1.4165	-8.8623
1.417	-80.86853
1.4175	-155.59387
1.418	-254.48914
1.4185	-372.61963
1.419	-428.8147
1.4195	-412.09717
1.42	-335.45837
1.4205	-250.36011
1.421	-168.98804
1.4215	-102.72217
1.422	-30.51453
1.4225	46.72852
1.423	103.22571
1.4235	153.3783
1.424	181.37512
1.4245	203.22876
1.425	218.8385
1.4255	231.12488
1.426	227.19727
1.4265	197.58911
1.427	171.80786
1.4275	154.58679
1.428	143.20679
1.4285	128.50342
1.429	121.45386
1.4295	116.72058
1.43	114.505
1.4305	87.61597
1.431	39.98108
1.4315	-35.75134
1.432	-85.09827
1.4325	-121.65527
1.433	-138.57422
1.4335	-145.9259
1.434	-139.5813
1.4345	-108.26111
1.435	-65.86304
1.4355	-19.53735
1.436	20.84656
1.4365	55.99365
1.437	90.03296
1.4375	101.41296
1.438	103.62854
1.4385	109.87244
1.439	82.78198
1.4395	20.74585
1.44	-44.71436
1.4405	-81.27136
1.441	-86.91101
1.4415	-85.40039
1.442	-84.39331
1.4425	-116.61987
1.443	-148.54431
1.4435	-149.24927
1.444	-141.39404
1.4445	-116.21704
1.445	-85.40039
1.4455	-46.92993
1.446	-9.26514
1.4465	23.16284
1.447	57.30286
1.4475	80.26428
1.448	100.20447
1.4485	108.56323
1.449	111.18164
1.4495	104.73633
1.45	99.2981
1.4505	110.07385
1.451	110.07385
1.4515	68.07861
1.452	9.56726
1.4525	-27.19116
1.453	-27.19116
1.4535	-21.65222
1.454	-11.38
1.4545	-5.0354
1.455	5.84106
1.4555	-3.7262
1.456	-5.33752
1.4565	3.7262
1.457	38.16833
1.4575	61.73401
1.458	87.01172
1.4585	84.39331
1.459	25.57983
1.4595	-49.14551
1.46	-113.39722
1.4605	-130.21545
1.461	-116.61987
1.4615	-81.67419
1.462	-84.49402
1.4625	-70.3949
1.463	-47.7356
1.4635	2.81982
1.464	44.61365
1.4645	82.9834
1.465	103.02429
1.4655	115.7135
1.466	123.66943
1.4665	130.61829
1.467	139.98413
1.4675	135.65369
1.468	118.63403
1.4685	105.84412
1.469	81.87561
1.4695	64.151
1.47	60.12268
1.4705	61.02905
1.471	57.30286
1.4715	52.8717
1.472	50.45471
1.4725	41.79382
1.473	12.99133
1.4735	-1.91345
1.474	-6.3446
1.4745	-10.47363
1.475	-4.02832
1.4755	8.05664
1.476	-6.84814
1.4765	-69.89136
1.477	-108.05969
1.4775	-138.67493
1.478	-191.74805
1.4785	-203.93372
1.479	-213.09814
1.4795	-220.75195
1.48	-212.79602
1.4805	-192.75513
1.481	-167.98096
1.4815	-139.68201
1.482	-110.77881
1.4825	-96.7804
1.483	-110.47668
1.4835	-81.57349
1.484	-43.70728
1.4845	-2.11487
1.485	40.48462
1.4855	75.02747
1.486	87.21313
1.4865	99.19739
1.487	102.72217
1.4875	116.41846
1.488	134.64661
1.4885	160.72998
1.489	187.21619
1.4895	204.43726
1.49	194.06433
1.4905	171.0022
1.491	162.84485
1.4915	165.06042
1.492	171.90857
1.4925	163.65051
1.493	165.36255
1.4935	157.80945
1.494	122.76306
1.4945	97.18323
1.495	81.67419
1.4955	71.50269
1.496	66.46729
1.4965	59.1156
1.497	52.56958
1.4975	42.29736
1.498	20.54443
1.4985	8.35876
1.499	-8.35876
1.4995	-53.97949
1.5	-85.40039
1.5005	-102.92358
1.501	-103.02429
1.5015	-98.89526
1.502	-86.40747
1.5025	-77.54517
1.503	-61.43188
1.5035	-49.85046
1.504	-20.1416
1.5045	-2.92053
1.505	8.15735
1.5055	16.21399
1.506	21.55151
1.5065	-3.32336
1.507	-86.20605
1.5075	-146.42944
1.508	-172.61353
1.5085	-214.10522
1.509	-261.33728
1.5095	-264.86206
1.51	-223.57178
1.5105	-172.21069
1.511	-115.51208
1.5115	-53.77808
1.512	12.78992
1.5125	68.38074
1.513	120.24536
1.5135	148.94714
1.514	164.35547
1.5145	173.01636
1.515	172.10999
1.5155	169.7937
1.516	158.11157
1.5165	131.52466
1.517	104.4342
1.5175	64.151
1.518	15.00549
1.5185	-20.44373
1.519	-39.17542
1.5195	-35.65063
1.52	-26.18408
1.5205	-22.15576
1.521	-6.94885
1.5215	12.18567
1.522	29.30603
1.5225	22.25647
1.523	9.36584
1.5235	15.40833
1.524	5.43823
1.5245	-10.37292
1.525	-16.41541
1.5255	-15.50903
1.526	-17.32178
1.5265	-16.11328
1.527	-15.60974
1.5275	-5.13611
1.528	-0.20142
1.5285	-4.73328
1.529	-8.56018
1.5295	-12.68921
1.53	-51.66321
1.5305	-123.16589
1.531	-183.28857
1.5315	-224.47815
1.532	-222.86682
1.5325	-190.84167
1.533	-142.30042
1.5335	-97.18323
1.534	-32.22656
1.5345	-11.07788
1.535	-71.7041
1.5355	-115.10925
1.536	-100.50659
1.5365	-58.20923
1.537	-5.43823
1.5375	6.14319
1.538	12.89062
1.5385	30.41382
1.539	38.974
1.5395	60.62622
1.54	85.80322
1.5405	112.08801
1.541	137.56714
1.5415	135.95581
1.542	139.78271
1.5425	149.85352
1.543	171.70715
1.5435	200.40894
1.544	200.91248
1.5445	194.16504
1.545	178.65601
1.5455	164.85901
1.546	138.57422
1.5465	132.43103
1.547	114.505
1.5475	109.3689
1.548	106.04553
1.5485	102.31934
1.549	104.53491
1.5495	87.71667
1.55	78.04871
1.5505	61.12976
1.551	40.1825
1.5515	25.68054
1.552	15.81116
1.5525	16.91895
1.553	4.83398
1.5535	9.06372
1.554	3.62549
1.5545	-2.31628
1.555	-6.84814
1.5555	-12.18567
1.556	-6.3446
1.5565	-10.77576
1.557	-6.04248
1.5575	-6.3446
1.558	-4.53186
1.5585	-11.17859
1.559	-12.08496
1.5595	-15.81116
1.56	-26.3855
1.5605	-30.81665
1.561	-49.14551
1.5615	-47.23206
1.562	-74.42322
1.5625	-143.91174
1.563	-229.81567
1.5635	-282.48596
1.564	-282.28455
1.5645	-275.33569
1.565	-276.84631
1.5655	-250.76294
1.566	-211.58752
1.5665	-180.16663
1.567	-155.29175
1.5675	-125.88501
1.568	-84.69543
1.5685	-34.24072
1.569	23.36426
1.5695	72.10693
1.57	112.89368
1.5705	150.65918
1.571	181.37512
1.5715	201.51672
1.572	215.1123
1.5725	223.77319
1.573	219.24133
1.5735	210.88257
1.574	185.80627
1.5745	160.42786
1.575	138.67493
1.5755	95.16907
1.576	50.15259
1.5765	8.7616
1.577	-36.15417
1.5775	-134.74731
1.578	-266.87622
1.5785	-332.63855
1.579	-347.44263
1.5795	-321.56067
1.58	-272.11304
1.5805	-197.3877
1.581	-121.25244
1.5815	-41.18958
1.582	27.89612
1.5825	96.37756
1.583	157.50732
1.5835	200.81177
1.584	225.38452
1.5845	222.36328
1.585	202.12097
1.5855	165.36255
1.586	138.17139
1.5865	82.07703
1.587	23.26355
1.5875	-1.2085
1.588	-12.78992
1.5885	-20.44373
1.589	-18.73169
1.5895	-38.87329
1.59	-47.7356
1.5905	-47.33276
1.591	-23.36426
1.5915	15.81116
1.592	52.8717
1.5925	81.7749
1.593	103.62854
1.5935	118.53333
1.594	133.13599
1.5945	132.93457
1.595	142.40112
1.5955	137.56714
1.596	105.34058
1.5965	40.08179
1.597	-0.20142
1.5975	-34.64355
1.598	-61.53259
1.5985	-62.33826
1.599	-49.24622
1.5995	-31.62231
1.6	-12.89062
1.6005	8.66089
1.601	33.73718
1.6015	58.51135
1.602	49.24622
1.6025	-9.36584
1.603	-43.90869
1.6035	-48.64197
1.604	-38.26904
1.6045	-23.76709
1.605	0.40283
1.6055	20.74585
1.606	39.98108
1.6065	56.90002
1.607	71.7041
1.6075	44.61365
1.608	17.32178
1.6085	3.7262
1.609	6.64673
1.6095	21.85364
1.61	35.95276
1.6105	45.2179
1.611	58.71277
1.6115	71.90552
1.612	96.37756
1.6125	115.31067
1.613	124.37439
1.6135	110.77881
1.614	90.93933
1.6145	84.79614
1.615	67.57507
1.6155	37.46338
1.616	16.51611
1.6165	-4.02832
1.617	-13.59558
1.6175	-23.76709
1.618	-33.9386
1.6185	-42.29736
1.619	-47.33276
1.6195	-40.68604
1.62	-34.94568
1.6205	-31.62231
1.621	-40.88745
1.6215	-58.20923
1.622	-62.74109
1.6225	-69.48853
1.623	-79.45862
1.6235	-120.24536
1.624	-151.06201
1.6245	-162.84485
1.625	-161.93848
1.6255	-135.15015
1.626	-104.73633
1.6265	-57.30286
1.627	-17.92603
1.6275	-2.81982
1.628	-17.52319
1.6285	-54.58374
1.629	-84.69543
1.6295	-93.85986
1.63	-97.68677
1.6305	-82.68127
1.631	-84.79614
1.6315	-95.06836
1.632	-112.49084
1.6325	-105.54199
1.633	-102.21863
1.6335	-97.78748
1.634	-62.9425
1.6345	-28.70178
1.635	10.27222
1.6355	38.57117
1.636	60.82764
1.6365	78.35083
1.637	100.10376
1.6375	115.31067
1.638	137.36572
1.6385	147.03369
1.639	165.26184
1.6395	177.74963
1.64	180.97229
1.6405	184.19495
1.641	181.47583
1.6415	171.50574
1.642	146.32874
1.6425	115.00854
1.643	75.73242
1.6435	64.65454
1.644	59.41772
1.6445	60.72693
1.645	55.69153
1.6455	49.0448
1.646	39.98108
1.6465	32.32727
1.647	-24.27063
1.6475	-116.922
1.648	-189.43176
1.6485	-217.63
1.649	-207.76062
1.6495	-173.01636
1.65	-166.97388
1.6505	-181.17371
1.651	-182.58362
1.6515	-158.21228
1.652	-106.75049
1.6525	-56.79932
1.653	-8.56018
1.6535	42.29736
1.654	70.79773
1.6545	51.66321
1.655	-25.37842
1.6555	-66.76941
1.656	-66.6687
1.6565	-41.08887
1.657	-0.60425
1.6575	46.62781
1.658	88.11951
1.6585	138.57422
1.659	177.04468
1.6595	208.46558
1.66	225.38452
1.6605	220.55054
1.661	203.02734
1.6615	182.88574
1.662	170.39795
1.6625	152.37122
1.663	123.97156
1.6635	110.07385
1.664	106.64978
1.6645	94.2627
1.665	73.41614
1.6655	55.2887
1.666	15.91187
1.6665	-21.24939
1.667	-53.37524
1.6675	-90.43579
1.668	-114.00146
1.6685	-106.14624
1.669	-80.36499
1.6695	-62.33826
1.67	-31.52161
1.6705	9.36584
1.671	31.62231
1.6715	49.74976
1.672	62.03613
1.6725	67.57507
1.673	77.24304
1.6735	82.9834
1.674	81.17065
1.6745	71.60339
1.675	51.26038
1.6755	19.63806
1.676	-40.1825
1.6765	-79.05579
1.677	-99.90234
1.6775	-89.73083
1.678	-81.97632
1.6785	-72.40906
1.679	-122.86377
1.6795	-170.59937
1.68	-192.15088
1.6805	-171.50574
1.681	-130.41687
1.6815	-90.5365
1.682	-57.9071
1.6825	-15.30762
1.683	13.09204
1.6835	30.51453
1.684	43.00232
1.6845	48.44055
1.685	44.71436
1.6855	46.62781
1.686	29.50745
1.6865	5.94177
1.687	-6.64673
1.6875	-21.04797
1.688	-24.37134
1.6885	-35.85205
1.689	-71.7041
1.6895	-144.31458
1.69	-200.81177
1.6905	-223.06824
1.691	-225.38452
1.6915	-218.13354
1.692	-195.97778
1.6925	-141.79688
1.693	-70.19348
1.6935	-1.00708
1.694	54.38232
1.6945	98.79456
1.695	139.78271
1.6955	162.13989
1.696	102.31934
1.6965	57.10144
1.697	45.82214
1.6975	40.78674
1.698	51.96533
1.6985	71.40198
1.699	106.8512
1.6995	147.1344
1.7	178.85742
1.7005	196.98486
1.701	218.33496
1.7015	222.86682
1.702	230.21851
1.7025	222.26257
1.703	196.27991
1.7035	136.05652
1.704	90.13367
1.7045	47.53418
1.705	26.78833
1.7055	5.0354
1.706	-10.97717
1.7065	-19.43665
1.707	-22.86072
1.7075	-18.12744
1.708	-0.20142
1.7085	12.28638
1.709	16.3147
1.7095	18.63098
1.71	25.47913
1.7105	30.31311
1.711	25.88196
1.7115	-0.90637
1.712	-39.98108
1.7125	-67.97791
1.713	-137.16431
1.7135	-208.06274
1.714	-222.5647
1.7145	-201.11389
1.715	-144.71741
1.7155	-75.73242
1.716	-21.3501
1.7165	35.2478
1.717	95.47119
1.7175	134.64661
1.718	158.4137
1.7185	175.93689
1.719	180.87158
1.7195	187.4176
1.72	177.95105
1.7205	169.29016
1.721	146.73157
1.7215	104.13208
1.722	74.82605
1.7225	47.03064
1.723	29.00391
1.7235	18.8324
1.724	4.12903
1.7245	-1.10779
1.725	-1.3092
1.7255	-16.11328
1.726	-31.4209
1.7265	-39.17542
1.727	-44.61365
1.7275	-44.11011
1.728	-34.54285
1.7285	-32.12585
1.729	-66.87012
1.7295	-109.16748
1.73	-144.91882
1.7305	-155.896
1.731	-148.4436
1.7315	-142.099
1.732	-126.89209
1.7325	-103.82996
1.733	-80.86853
1.7335	-51.46179
1.734	-35.34851
1.7345	-49.74976
1.735	-77.64587
1.7355	-79.35791
1.736	-70.79773
1.7365	-82.37915
1.737	-165.26184
1.7375	-216.11938
1.738	-225.58594
1.7385	-199.9054
1.739	-152.67334
1.7395	-101.31226
1.74	-40.68604
1.7405	0.10071
1.741	41.18958
1.7415	76.43738
1.742	112.79297
1.7425	137.96997
1.743	119.74182
1.7435	98.29102
1.744	86.60889
1.7445	84.59473
1.745	101.61438
1.7455	85.90393
1.746	35.44922
1.7465	-86.40747
1.747	-223.16895
1.7475	-321.25854
1.748	-338.58032
1.7485	-290.84473
1.749	-200.0061
1.7495	-89.02588
1.75	24.06921
1.7505	108.1604
1.751	189.9353
1.7515	252.07214
1.752	300.71411
1.7525	317.02881
1.753	304.23889
1.7535	290.13977
1.754	262.04224
1.7545	240.69214
1.755	234.14612
1.7555	223.57178
1.756	202.62451
1.7565	187.82043
1.757	159.42078
1.7575	139.07776
1.758	88.92517
1.7585	48.44055
1.759	10.17151
1.7595	13.797
1.76	27.6947
1.7605	39.27612
1.761	44.31152
1.7615	43.80798
1.762	46.72852
1.7625	38.87329
1.763	-32.32727
1.7635	-138.77563
1.764	-280.4718
1.7645	-418.03894
1.765	-467.38586
1.7655	-437.27417
1.766	-367.78564
1.7665	-268.18542
1.767	-158.11157
1.7675	-54.48303
1.768	14.30054
1.7685	59.51843
1.769	88.11951
1.7695	112.39014
1.77	130.41687
1.7705	126.08643
1.771	105.13916
1.7715	100.10376
1.772	99.3988
1.7725	107.55615
1.773	114.70642
1.7735	130.51758
1.774	153.57971
1.7745	156.90308
1.775	165.86609
1.7755	164.35547
1.776	152.06909
1.7765	152.97546
1.777	135.25085
1.7775	112.49084
1.778	94.06128
1.7785	89.63013
1.779	77.14233
1.7795	53.77808
1.78	40.08179
1.7805	20.64514
1.781	-64.05029
1.7815	-140.48767
1.782	-170.09583
1.7825	-198.09265
1.783	-205.84717
1.7835	-224.67957
1.784	-258.01392
1.7845	-243.61267
1.785	-194.9707
1.7855	-129.30908
1.786	-73.61755
1.7865	-47.23206
1.787	-41.29028
1.7875	-1.81274
1.788	46.32568
1.7885	76.63879
1.789	108.36182
1.7895	152.27051
1.79	172.51282
1.7905	197.28699
1.791	211.58752
1.7915	220.047
1.792	218.13354
1.7925	209.06982
1.793	191.64734
1.7935	180.16663
1.794	167.57812
1.7945	155.69458
1.795	148.84644
1.7955	135.25085
1.796	102.31934
1.7965	85.09827
1.797	65.86304
1.7975	53.07312
1.798	33.13293
1.7985	33.63647
1.799	25.88196
1.7995	17.12036
1.8	-7.15027
1.8005	-32.42798
1.801	-35.2478
1.8015	-41.59241
1.802	-79.35791
1.8025	-112.28943
1.803	-133.94165
1.8035	-132.63245
1.804	-134.74731
1.8045	-172.61353
1.805	-250.86365
1.8055	-296.48438
1.806	-310.38208
1.8065	-295.578
1.807	-268.68896
1.8075	-226.59302
1.808	-167.67883
1.8085	-132.12891
1.809	-150.35706
1.8095	-166.47034
1.81	-143.50891
1.8105	-101.21155
1.811	-33.53577
1.8115	10.57434
1.812	63.44604
1.8125	98.0896
1.813	132.63245
1.8135	161.0321
1.814	175.93689
1.8145	193.35938
1.815	191.64734
1.8155	181.37512
1.816	170.19653
1.8165	145.12024
1.817	83.18481
1.8175	18.32886
1.818	-94.96765
1.8185	-203.32947
1.819	-261.23657
1.8195	-244.0155
1.82	-178.45459
1.8205	-100.6073
1.821	-60.82764
1.8215	-52.97241
1.822	-30.41382
1.8225	5.0354
1.823	40.98816
1.8235	66.76941
1.824	76.84021
1.8245	91.44287
1.825	95.16907
1.8255	111.9873
1.826	119.23828
1.8265	144.31458
1.827	164.85901
1.8275	181.77795
1.828	188.82751
1.8285	183.48999
1.829	158.71582
1.8295	139.88342
1.83	94.3634
1.8305	25.57983
1.831	-2.11487
1.8315	-20.1416
1.832	-21.75293
1.8325	-24.97559
1.833	-42.19666
1.8335	-73.11401
1.834	-80.16357
1.8345	-64.75525
1.835	-41.29028
1.8355	-8.66089
1.836	14.09912
1.8365	-34.84497
1.837	-101.9165
1.8375	-119.94324
1.838	-108.76465
1.8385	-79.15649
1.839	-54.88586
1.8395	-48.44055
1.84	-153.68042
1.8405	-359.52759
1.841	-507.46765
1.8415	-536.06873
1.842	-499.41101
1.8425	-412.29858
1.843	-285.00366
1.8435	-151.06201
1.844	-19.94019
1.8445	83.48694
1.845	173.72131
1.8455	254.0863
1.846	319.14368
1.8465	369.19556
1.847	397.19238
1.8475	411.09009
1.848	401.72424
1.8485	379.16565
1.849	360.13184
1.8495	328.2074
1.85	287.31995
1.8505	240.08789
1.851	155.09033
1.8515	87.31384
1.852	46.32568
1.8525	25.07629
1.853	-28.09753
1.8535	-61.43188
1.854	-61.83472
1.8545	-85.09827
1.855	-68.07861
1.8555	-33.33435
1.856	5.33752
1.8565	26.78833
1.857	26.18408
1.8575	-67.07153
1.858	-138.3728
1.8585	-215.71655
1.859	-260.3302
1.8595	-257.40967
1.86	-221.15479
1.8605	-147.1344
1.861	-49.44763
1.8615	36.05347
1.862	118.63403
1.8625	190.23743
1.863	244.61975
1.8635	281.98242
1.864	282.08313
1.8645	288.83057
1.865	295.77942
1.8655	286.21216
1.866	247.23816
1.8665	152.57263
1.867	54.28162
1.8675	-50.45471
1.868	-165.46326
1.8685	-291.65039
1.869	-440.29541
1.8695	-547.75085
1.87	-567.1875
1.8705	-495.4834
1.871	-376.44653
1.8715	-253.07922
1.872	-200.10681
1.8725	-106.64978
1.873	16.11328
1.8735	142.30042
1.874	264.76135
1.8745	360.33325
1.875	441.90674
1.8755	471.91772
1.876	477.75879
1.8765	457.7179
1.877	434.75647
1.8775	397.19238
1.878	332.23572
1.8785	232.13196
1.879	108.56323
1.8795	35.85205
1.88	13.49487
1.8805	11.38
1.881	5.94177
1.8815	-33.83789
1.882	-56.39648
1.8825	-56.29578
1.883	-37.36267
1.8835	-23.96851
1.884	1.71204
1.8845	27.49329
1.885	48.84338
1.8855	66.36658
1.886	64.45312
1.8865	51.05896
1.887	34.74426
1.8875	-1.61133
1.888	-32.93152
1.8885	-51.26038
1.889	-59.71985
1.8895	-75.83313
1.89	-92.65137
1.8905	-98.59314
1.891	-97.58606
1.8915	-88.82446
1.892	-69.38782
1.8925	-59.21631
1.893	-39.77966
1.8935	-20.94727
1.894	-6.74744
1.8945	1.3092
1.895	-13.49487
1.8955	-24.67346
1.896	-40.08179
1.8965	-79.45862
1.897	-168.28308
1.8975	-263.45215
1.898	-319.4458
1.8985	-347.03979
1.899	-332.43713
1.8995	-284.90295
1.9	-218.63708
1.9005	-140.38696
1.901	-60.52551
1.9015	8.96301
1.902	78.25012
1.9025	132.22961
1.903	122.86377
1.9035	76.23596
1.904	43.00232
1.9045	24.27063
1.905	20.84656
1.9055	32.22656
1.906	50.45471
1.9065	65.76233
1.907	92.14783
1.9075	111.68518
1.908	117.32483
1.9085	120.84961
1.909	125.48218
1.9095	147.53723
1.91	165.36255
1.9105	159.82361
1.911	153.27759
1.9115	113.29651
1.912	34.54285
1.9125	-50.65613
1.913	-114.4043
1.9135	-158.11157
1.914	-280.16968
1.9145	-338.07678
1.915	-321.9635
1.9155	-273.01941
1.916	-188.42468
1.9165	-102.52075
1.917	-34.94568
1.9175	21.95435
1.918	77.14233
1.9185	124.67651
1.919	96.17615
1.9195	47.33276
1.92	10.27222
1.9205	-14.09912
1.921	-23.8678
1.9215	-9.36584
1.922	20.84656
1.9225	43.70728
1.923	76.23596
1.9235	76.13525
1.924	91.44287
1.9245	117.82837
1.925	144.6167
1.9255	126.69067
1.926	108.26111
1.9265	92.85278
1.927	102.62146
1.9275	101.41296
1.928	100.50659
1.9285	101.01013
1.929	108.46252
1.9295	121.45386
1.93	115.81421
1.9305	57.9071
1.931	-17.12036
1.9315	-68.58215
1.932	-96.67969
1.9325	-116.51917
1.933	-151.96838
1.9335	-206.25
1.934	-221.55762
1.9345	-200.81177
1.935	-158.81653
1.9355	-78.25012
1.936	-10.67505
1.9365	45.01648
1.937	52.26746
1.9375	12.48779
1.938	-55.79224
1.9385	-86.20605
1.939	-88.11951
1.9395	-60.52551
1.94	-22.86072
1.9405	13.49487
1.941	70.3949
1.9415	124.77722
1.942	169.99512
1.9425	196.07849
1.943	171.10291
1.9435	2.5177
1.944	-178.5553
1.9445	-301.01624
1.945	-366.47644
1.9455	-346.93909
1.946	-281.47888
1.9465	-205.84717
1.947	-83.28552
1.9475	52.97241
1.948	164.95972
1.9485	247.54028
1.949	295.88013
1.9495	333.44421
1.95	348.349
1.9505	282.68738
1.951	205.94788
1.9515	149.95422
1.952	138.67493
1.9525	138.87634
1.953	147.1344
1.9535	169.18945
1.954	197.68982
1.9545	212.4939
1.955	224.98169
1.9555	235.75745
1.956	224.37744
1.9565	196.78345
1.957	166.36963
1.9575	138.3728
1.958	119.23828
1.9585	94.96765
1.959	73.01331
1.9595	51.15967
1.96	35.95276
1.9605	23.06213
1.961	-14.30054
1.9615	-43.60657
1.962	-113.90076
1.9625	-281.6803
1.963	-410.28442
1.9635	-440.89966
1.964	-412.60071
1.9645	-364.7644
1.965	-307.86438
1.9655	-299.50562
1.966	-310.88562
1.9665	-279.06189
1.967	-210.47974
1.9675	-127.99988
1.968	-43.50586
1.9685	29.30603
1.969	99.60022
1.9695	143.20679
1.97	170.09583
1.9705	155.79529
1.971	119.84253
1.9715	68.28003
1.972	24.67346
1.9725	-18.8324
1.973	-70.79773
1.9735	-104.63562
1.974	-146.63086
1.9745	-209.77478
1.975	-201.91956
1.9755	-161.73706
1.976	-102.62146
1.9765	-38.67188
1.977	20.1416
1.9775	49.74976
1.978	26.98975
1.9785	33.53577
1.979	62.53967
1.9795	86.20605
1.98	106.44836
1.9805	139.17847
1.981	177.44751
1.9815	208.66699
1.982	220.55054
1.9825	212.19177
1.983	198.19336
1.9835	179.05884
1.984	164.65759
1.9845	148.4436
1.985	129.40979
1.9855	91.04004
1.986	95.37048
1.9865	106.64978
1.987	116.51917
1.9875	131.12183
1.988	137.86926
1.9885	135.04944
1.989	135.8551
1.9895	145.52307
1.99	143.60962
1.9905	127.79846
1.991	115.00854
1.9915	108.86536
1.992	105.34058
1.9925	99.49951
1.993	84.2926
1.9935	68.58215
1.994	53.87878
1.9945	41.59241
1.995	18.22815
1.9955	12.78992
1.996	3.22266
1.9965	0.20142
1.997	-7.65381
1.9975	-31.21948
1.998	-47.13135
1.9985	-68.48145
1.999	-102.62146
1.9995	-175.23193
2	-249.0509
2.0005	-360.53467
2.001	-443.51807
2.0015	-456.5094
2.002	-429.11682
2.0025	-354.19006
2.003	-283.59375
2.0035	-192.35229
2.004	-102.11792
2.0045	-30.31311
2.005	27.99683
2.0055	70.29419
2.006	98.19031
2.0065	130.61829
2.007	112.08801
2.0075	34.84497
2.008	-41.29028
2.0085	-100.6073
2.009	-163.65051
2.0095	-172.41211
2.01	-141.79688
2.0105	-85.5011
2.011	-34.84497
2.0115	13.49487
2.012	24.27063
2.0125	-5.84106
2.013	-20.54443
2.0135	12.28638
2.014	60.52551
2.0145	100.90942
2.015	129.30908
2.0155	145.8252
2.016	165.36255
2.0165	194.26575
2.017	202.02026
2.0175	197.18628
2.018	184.39636
2.0185	175.43335
2.019	178.15247
2.0195	165.26184
2.02	151.66626
2.0205	137.26501
2.021	116.72058
2.0215	58.20923
2.022	-85.60181
2.0225	-217.22717
2.023	-278.05481
2.0235	-270.09888
2.024	-236.86523
2.0245	-173.01636
2.025	-101.61438
2.0255	-30.61523
2.026	9.36584
2.0265	51.15967
2.027	45.2179
2.0275	7.85522
2.028	-27.49329
2.0285	-77.84729
2.029	-170.29724
2.0295	-346.73767
2.03	-466.17737
2.0305	-517.13562
2.031	-519.85474
2.0315	-619.9585
2.032	-690.75623
2.0325	-726.40686
2.033	-672.8302
2.0335	-624.38965
2.034	-620.56274
2.0345	-518.04199
2.035	-341.50085
2.0355	-109.3689
2.036	127.09351
2.0365	342.40723
2.037	528.61633
2.0375	662.7594
2.038	749.36829
2.0385	816.33911
2.039	842.42249
2.0395	823.38867
2.04	681.6925
2.0405	539.79492
2.041	455.90515
2.0415	422.67151
2.042	409.37805
2.0425	383.99963
2.043	375.64087
2.0435	392.3584
2.044	402.02637
2.0445	380.77698
2.045	340.39307
2.0455	295.98083
2.046	258.11462
2.0465	222.96753
2.047	195.77637
2.0475	160.42786
2.048	111.08093
2.0485	64.95667
2.049	10.47363
2.0495	-17.92603
2.05	-30.31311
2.0505	-30.31311
2.051	-14.30054
2.0515	9.36584
2.052	37.66479
2.0525	71.7041
2.053	83.38623
2.0535	77.14233
2.054	49.85046
2.0545	23.66638
2.055	-0.50354
2.0555	-13.99841
2.056	-28.80249
2.0565	-43.50586
2.057	-83.68835
2.0575	-150.75989
2.058	-187.51831
2.0585	-197.89124
2.059	-195.67566
2.0595	-180.77087
2.06	-149.14856
2.0605	-115.81421
2.061	-92.75208
2.0615	-69.38782
2.062	-62.33826
2.0625	-73.61755
2.063	-112.28943
2.0635	-127.09351
2.064	-117.42554
2.0645	-90.43579
2.065	-58.91418
2.0655	-28.9032
2.066	-9.26514
2.0665	11.2793
2.067	23.66638
2.0675	33.43506
2.068	38.26904
2.0685	23.96851
2.069	-35.34851
2.0695	-128.80554
2.07	-250.56152
2.0705	-358.01697
2.071	-418.13965
2.0715	-404.44336
2.072	-351.26953
2.0725	-280.27039
2.073	-190.94238
2.0735	-93.45703
2.074	-11.2793
2.0745	68.68286
2.075	127.79846
2.0755	151.76697
2.076	159.11865
2.0765	154.28467
2.077	144.41528
2.0775	136.35864
2.078	140.68909
2.0785	132.43103
2.079	118.63403
2.0795	97.38464
2.08	67.27295
2.0805	56.39648
2.081	39.67896
2.0815	35.75134
2.082	41.4917
2.0825	23.56567
2.083	-49.0448
2.0835	-140.48767
2.084	-212.19177
2.0845	-233.13904
2.085	-217.42859
2.0855	-186.51123
2.086	-132.0282
2.0865	-59.21631
2.087	20.84656
2.0875	94.66553
2.088	146.12732
2.0885	175.03052
2.089	177.04468
2.0895	178.45459
2.09	160.32715
2.0905	142.50183
2.091	110.07385
2.0915	72.9126
2.092	34.14001
2.0925	0
2.093	-19.83948
2.0935	-22.76001
2.094	-20.1416
2.0945	-46.5271
2.095	-55.49011
2.0955	-47.7356
2.096	-63.44604
2.0965	-130.61829
2.097	-159.32007
2.0975	-142.099
2.098	-97.58606
2.0985	-65.25879
2.099	-49.95117
2.0995	-19.94019
2.1	9.46655
2.1005	9.46655
2.101	-12.99133
2.1015	-19.13452
2.102	-18.22815
2.1025	-54.28162
2.103	-73.41614
2.1035	-47.7356
2.104	-22.45789
2.1045	-8.96301
2.105	1.61133
2.1055	-32.42798
2.106	-34.14001
2.1065	-2.01416
2.107	50.55542
2.1075	99.60022
2.108	146.73157
2.1085	187.82043
2.109	206.04858
2.1095	223.8739
2.11	237.16736
2.1105	248.14453
2.111	242.30347
2.1115	221.75903
2.112	201.31531
2.1125	142.099
2.113	84.99756
2.1135	35.44922
2.114	-15.81116
2.1145	-39.17542
2.115	-54.58374
2.1155	-69.08569
2.116	-61.6333
2.1165	-53.37524
2.117	-53.77808
2.1175	-39.98108
2.118	-37.56409
2.1185	-35.75134
2.119	-79.55933
2.1195	-178.35388
2.12	-279.56543
2.1205	-342.60864
2.121	-348.95325
2.1215	-318.03589
2.122	-311.8927
2.1225	-336.06262
2.123	-332.13501
2.1235	-289.43481
2.124	-199.09973
2.1245	-108.76465
2.125	-25.78125
2.1255	38.974
2.126	86.20605
2.1265	134.94873
2.127	174.32556
2.1275	203.63159
2.128	229.81567
2.1285	258.11462
2.129	256.5033
2.1295	237.26807
2.13	203.22876
2.1305	142.099
2.131	101.71509
2.1315	44.81506
2.132	15.40833
2.1325	11.88354
2.133	17.92603
2.1335	18.22815
2.134	34.34143
2.1345	63.74817
2.135	94.56482
2.1355	133.23669
2.136	171.40503
2.1365	167.77954
2.137	163.85193
2.1375	152.67334
2.138	122.66235
2.1385	81.27136
2.139	-11.2793
2.1395	-131.42395
2.14	-201.91956
2.1405	-209.87549
2.141	-174.12415
2.1415	-127.69775
2.142	-68.28003
2.1425	-9.86938
2.143	36.95984
2.1435	77.24304
2.144	112.28943
2.1445	149.14856
2.145	173.31848
2.1455	184.09424
2.146	173.82202
2.1465	150.65918
2.147	124.17297
2.1475	102.01721
2.148	86.91101
2.1485	59.01489
2.149	43.30444
2.1495	44.31152
2.15	62.03613
2.1505	81.7749
2.151	91.14075
2.1515	79.2572
2.152	67.37366
2.1525	50.354
2.153	25.57983
2.1535	-16.51611
2.154	-71.09985
2.1545	-88.92517
2.155	-119.13757
2.1555	-222.46399
2.156	-281.37817
2.1565	-290.84473
2.157	-265.3656
2.1575	-227.90222
2.158	-170.90149
2.1585	-110.87952
2.159	-60.3241
2.1595	-22.15576
2.16	-12.99133
2.1605	-11.48071
2.161	0.30212
2.1615	17.42249
2.162	12.89062
2.1625	0.60425
2.163	8.15735
2.1635	30.2124
2.164	50.55542
2.1645	41.39099
2.165	25.98267
2.1655	28.39966
2.166	39.17542
2.1665	62.64038
2.167	82.68127
2.1675	79.55933
2.168	69.79065
2.1685	85.09827
2.169	99.3988
2.1695	129.71191
2.17	153.98254
2.1705	158.11157
2.171	121.25244
2.1715	72.71118
2.172	47.53418
2.1725	47.53418
2.173	55.69153
2.1735	59.21631
2.174	50.75684
2.1745	44.51294
2.175	45.01648
2.1755	46.72852
2.176	55.59082
2.1765	59.1156
2.177	58.00781
2.1775	50.354
2.178	43.40515
2.1785	-6.64673
2.179	-67.37366
2.1795	-130.41687
2.18	-292.35535
2.1805	-400.21362
2.181	-429.21753
2.1815	-401.92566
2.182	-348.55042
2.1825	-277.45056
2.183	-185.40344
2.1835	-78.14941
2.184	16.81824
2.1845	109.4696
2.185	181.57654
2.1855	227.19727
2.186	246.73462
2.1865	256.90613
2.187	250.56152
2.1875	236.76453
2.188	221.05408
2.1885	191.1438
2.189	155.896
2.1895	116.21704
2.19	98.39172
2.1905	64.25171
2.191	8.25806
2.1915	-58.91418
2.192	-91.54358
2.1925	-118.2312
2.193	-136.86218
2.1935	-142.19971
2.194	-127.29492
2.1945	-97.48535
2.195	-57.20215
2.1955	-49.74976
2.196	-91.44287
2.1965	-140.68909
2.197	-218.33496
2.1975	-240.69214
2.198	-229.71497
2.1985	-180.16663
2.199	-126.38855
2.1995	-81.47278
2.2	-48.03772
2.2005	-36.75842
2.201	-130.71899
2.2015	-198.09265
2.202	-264.96277
2.2025	-294.47021
2.203	-295.37659
2.2035	-242.50488
2.204	-156.09741
2.2045	-56.49719
2.205	55.49011
2.2055	154.98962
2.206	246.5332
2.2065	313.2019
2.207	368.99414
2.2075	407.16248
2.208	436.16638
2.2085	449.86267
2.209	437.87842
2.2095	416.02478
2.21	375.03662
2.2105	311.69128
2.211	232.03125
2.2115	182.98645
2.212	124.37439
2.2125	74.52393
2.213	14.09912
2.2135	-33.83789
2.214	-56.69861
2.2145	-75.4303
2.215	-96.07544
2.2155	-119.94324
2.216	-118.93616
2.2165	-105.44128
2.217	-101.71509
2.2175	-140.78979
2.218	-145.52307
2.2185	-121.75598
2.219	-63.04321
2.2195	0.90637
2.22	48.74268
2.2205	89.42871
2.221	118.53333
2.2215	144.81812
2.222	169.7937
2.2225	183.5907
2.223	198.29407
2.2235	210.68115
2.224	208.86841
2.2245	190.94238
2.225	170.59937
2.2255	125.18005
2.226	56.29578
2.2265	7.95593
2.227	-16.21399
2.2275	-13.39417
2.228	-0.70496
2.2285	18.63098
2.229	31.52161
2.2295	43.10303
2.23	45.72144
2.2305	17.72461
2.231	-44.51294
2.2315	-211.48682
2.232	-373.32458
2.2325	-442.41028
2.233	-459.0271
2.2335	-422.97363
2.234	-353.3844
2.2345	-269.89746
2.235	-184.39636
2.2355	-87.71667
2.236	-10.67505
2.2365	46.32568
2.237	58.30994
2.2375	9.46655
2.238	-19.53735
2.2385	-16.51611
2.239	-92.75208
2.2395	-189.9353
2.24	-219.03992
2.2405	-201.11389
2.241	-145.42236
2.2415	-77.948
2.242	5.94177
2.2425	60.3241
2.243	4.43115
2.2435	-70.29419
2.244	-146.12732
2.2445	-255.69763
2.245	-333.2428
2.2455	-318.33801
2.246	-258.92029
2.2465	-193.56079
2.247	-125.18005
2.2475	-39.77966
2.248	52.16675
2.2485	94.46411
2.249	100.00305
2.2495	115.00854
2.25	123.87085
2.2505	134.84802
2.251	172.91565
2.2515	207.76062
2.252	234.24683
2.2525	260.02808
2.253	292.95959
2.2535	317.33093
2.254	335.25696
2.2545	364.16016
2.255	377.85645
2.2555	398.40088
2.256	394.47327
2.2565	409.9823
2.257	414.31274
2.2575	395.17822
2.258	313.1012
2.2585	204.13513
2.259	132.73315
2.2595	106.8512
2.26	97.88818
2.2605	87.11243
2.261	80.76782
2.2615	84.2926
2.262	91.94641
2.2625	105.6427
2.263	104.03137
2.2635	95.47119
2.264	70.29419
2.2645	53.27454
2.265	35.85205
2.2655	2.71912
2.266	-25.98267
2.2665	-35.95276
2.267	-44.41223
2.2675	-53.77808
2.268	-67.07153
2.2685	-72.40906
2.269	-75.02747
2.2695	-73.11401
2.27	-72.40906
2.2705	-134.14307
2.271	-177.85034
2.2715	-192.95654
2.272	-177.85034
2.2725	-156.29883
2.273	-141.69617
2.2735	-127.39563
2.274	-143.20679
2.2745	-176.44043
2.275	-227.80151
2.2755	-269.49463
2.276	-281.78101
2.2765	-267.07764
2.277	-236.66382
2.2775	-196.48132
2.278	-135.55298
2.2785	-73.61755
2.279	-23.16284
2.2795	15.20691
2.28	54.28162
2.2805	82.17773
2.281	89.83154
2.2815	67.47437
2.282	-42.8009
2.2825	-183.08716
2.283	-281.47888
2.2835	-337.37183
2.284	-330.32227
2.2845	-318.03589
2.285	-269.79675
2.2855	-216.52222
2.286	-151.56555
2.2865	-60.52551
2.287	73.11401
2.2875	180.16663
2.288	225.88806
2.2885	205.34363
2.289	170.80078
2.2895	120.44678
2.29	57.40356
2.2905	38.36975
2.291	35.2478
2.2915	13.49487
2.292	-21.95435
2.2925	-28.09753
2.293	20.54443
2.2935	97.78748
2.294	158.81653
2.2945	183.69141
2.295	201.61743
2.2955	207.86133
2.296	162.84485
2.2965	71.90552
2.297	16.61682
2.2975	-37.16125
2.298	-64.65454
2.2985	-51.05896
2.299	-27.99683
2.2995	5.74036
2.3	47.53418
2.3005	98.0896
2.301	165.16113
2.3015	238.07373
2.302	280.27039
2.3025	298.0957
2.303	298.39783
2.3035	297.18933
2.304	285.5072
2.3045	263.25073
2.305	205.54504
2.3055	151.46484
2.306	118.13049
2.3065	90.23438
2.307	73.31543
2.3075	73.41614
2.308	78.65295
2.3085	102.31934
2.309	114.30359
2.3095	110.17456
2.31	88.32092
2.3105	67.8772
2.311	50.15259
2.3115	33.63647
2.312	24.57275
2.3125	14.40125
2.313	0.30212
2.3135	-36.85913
2.314	-82.07703
2.3145	-123.2666
2.315	-144.31458
2.3155	-147.43652
2.316	-128.50342
2.3165	-119.64111
2.317	-106.34766
2.3175	-98.39172
2.318	-90.23438
2.3185	-74.72534
2.319	-48.64197
2.3195	-17.92603
2.32	4.33044
2.3205	27.19116
2.321	50.75684
2.3215	56.69861
2.322	60.52551
2.3225	57.8064
2.323	37.36267
2.3235	18.8324
2.324	-12.28638
2.3245	-36.55701
2.325	-67.27295
2.3255	-79.2572
2.326	-91.54358
2.3265	-103.22571
2.327	-168.4845
2.3275	-231.12488
2.328	-278.55835
2.3285	-293.16101
2.329	-322.97058
2.3295	-398.703
2.33	-414.61487
2.3305	-377.15149
2.331	-298.59924
2.3315	-197.89124
2.332	-98.69385
2.3325	-2.61841
2.333	86.40747
2.3335	163.75122
2.334	226.59302
2.3345	260.93445
2.335	287.01782
2.3355	210.17761
2.336	38.06763
2.3365	-93.55774
2.337	-163.04626
2.3375	-191.84875
2.338	-232.03125
2.3385	-234.54895
2.339	-163.5498
2.3395	-53.77808
2.34	55.18799
2.3405	153.3783
2.341	228.80859
2.3415	270.50171
2.342	305.6488
2.3425	329.21448
2.343	336.06262
2.3435	319.54651
2.344	296.58508
2.3445	270.60242
2.345	238.77869
2.3455	186.81335
2.346	130.11475
2.3465	97.48535
2.347	72.71118
2.3475	31.01807
2.348	-10.37292
2.3485	-97.48535
2.349	-148.4436
2.3495	-136.35864
2.35	-208.56628
2.3505	-296.08154
2.351	-322.06421
2.3515	-303.0304
2.352	-252.47498
2.3525	-183.99353
2.353	-88.92517
2.3535	-14.40125
2.354	54.88586
2.3545	112.49084
2.355	122.56165
2.3555	108.26111
2.356	94.16199
2.3565	85.90393
2.357	78.65295
2.3575	57.20215
2.358	-47.8363
2.3585	-167.77954
2.359	-244.61975
2.3595	-256.20117
2.36	-238.27515
2.3605	-185.70557
2.361	-117.12341
2.3615	-37.36267
2.362	25.98267
2.3625	84.59473
2.363	141.89758
2.3635	124.57581
2.364	21.04797
2.3645	-138.3728
2.365	-264.76135
2.3655	-401.2207
2.366	-493.36853
2.3665	-479.1687
2.367	-410.78796
2.3675	-293.26172
2.368	-154.98962
2.3685	-17.01965
2.369	106.14624
2.3695	232.03125
2.37	332.43713
2.3705	422.97363
2.371	439.79187
2.3715	401.12
2.372	371.71326
2.3725	367.1814
2.373	372.2168
2.3735	375.84229
2.374	370.00122
2.3745	352.37732
2.375	324.78333
2.3755	312.19482
2.376	305.24597
2.3765	310.88562
2.377	320.85571
2.3775	336.66687
2.378	317.23022
2.3785	282.08313
2.379	235.65674
2.3795	184.39636
2.38	136.86218
2.3805	102.62146
2.381	76.63879
2.3815	45.52002
2.382	-16.3147
2.3825	-61.33118
2.383	-92.34924
2.3835	-123.66943
2.384	-142.50183
2.3845	-180.16663
2.385	-208.06274
2.3855	-219.44275
2.386	-230.01709
2.3865	-256.20117
2.387	-280.67322
2.3875	-296.7865
2.388	-294.16809
2.3885	-267.17834
2.389	-223.16895
2.3895	-170.90149
2.39	-112.28943
2.3905	-57.20215
2.391	-5.74036
2.3915	41.99524
2.392	70.3949
2.3925	98.69385
2.393	118.73474
2.3935	117.32483
2.394	103.125
2.3945	66.16516
2.395	-38.974
2.3955	-192.75513
2.396	-365.77148
2.3965	-447.34497
2.397	-438.07983
2.3975	-368.89343
2.398	-283.89587
2.3985	-191.04309
2.399	-80.76782
2.3995	37.86621
2.4	152.87476
2.4005	231.62842
2.401	275.83923
2.4015	280.57251
2.402	259.22241
2.4025	214.30664
2.403	99.3988
2.4035	17.6239
2.404	-31.52161
2.4045	-31.32019
2.405	-8.96301
2.4055	34.64355
2.406	75.32959
2.4065	123.2666
2.407	162.2406
2.4075	203.22876
2.408	216.92505
2.4085	207.76062
2.409	179.56238
2.4095	133.74023
2.41	71.50269
2.4105	-9.36584
2.411	-96.27686
2.4115	-177.24609
2.412	-247.43958
2.4125	-307.05872
2.413	-409.68018
2.4135	-495.08057
2.414	-530.7312
2.4145	-571.92078
2.415	-575.64697
2.4155	-570.71228
2.416	-507.66907
2.4165	-386.01379
2.417	-229.71497
2.4175	-79.55933
2.418	61.73401
2.4185	191.44592
2.419	292.75818
2.4195	341.19873
2.42	353.28369
2.4205	387.62512
2.421	413.30566
2.4215	429.62036
2.422	428.71399
2.4225	434.65576
2.423	424.38354
2.4235	412.80212
2.424	402.83203
2.4245	394.8761
2.425	380.57556
2.4255	360.03113
2.426	331.83289
2.4265	292.65747
2.427	251.4679
2.4275	208.16345
2.428	158.11157
2.4285	97.08252
2.429	36.95984
2.4295	-28.50037
2.43	-138.97705
2.4305	-247.03674
2.431	-355.80139
2.4315	-388.83362
2.432	-356.10352
2.4325	-318.53943
2.433	-365.9729
2.4335	-434.45435
2.434	-456.71082
2.4345	-428.31116
2.435	-402.22778
2.4355	-349.85962
2.436	-273.32153
2.4365	-191.74805
2.437	-106.34766
2.4375	-10.77576
2.438	86.30676
2.4385	181.27441
2.439	262.54578
2.4395	337.17041
2.44	383.09326
2.4405	404.44336
2.441	395.07751
2.4415	366.17432
2.442	341.60156
2.4425	316.12244
2.443	289.03198
2.4435	262.04224
2.444	219.54346
2.4445	178.15247
2.445	132.12891
2.4455	88.32092
2.446	66.16516
2.4465	30.81665
2.447	-64.35242
2.4475	-145.72449
2.448	-175.23193
2.4485	-185.50415
2.449	-192.05017
2.4495	-165.46326
2.45	-131.42395
2.4505	-95.77332
2.451	-54.98657
2.4515	-33.9386
2.452	-63.34534
2.4525	-116.922
2.453	-132.43103
2.4535	-126.9928
2.454	-105.74341
2.4545	-97.38464
2.455	-178.45459
2.4555	-222.96753
2.456	-199.80469
2.4565	-158.81653
2.457	-140.18555
2.4575	-111.8866
2.458	-62.03613
2.4585	-35.04639
2.459	-174.92981
2.4595	-277.85339
2.46	-281.98242
2.4605	-229.21143
2.461	-198.89832
2.4615	-206.75354
2.462	-185.80627
2.4625	-104.83704
2.463	14.19983
2.4635	128.302
2.464	233.23975
2.4645	320.755
2.465	394.37256
2.4655	450.16479
2.466	469.50073
2.4665	448.75488
2.467	417.83752
2.4675	391.1499
2.468	356.70776
2.4685	295.88013
2.469	242.50488
2.4695	195.67566
2.47	149.04785
2.4705	128.50342
2.471	118.2312
2.4715	90.83862
2.472	33.23364
2.4725	-11.38
2.473	-14.50195
2.4735	-49.44763
2.474	-70.59631
2.4745	-73.61755
2.475	-78.75366
2.4755	-84.79614
2.476	-87.21313
2.4765	-114.10217
2.477	-158.91724
2.4775	-175.93689
2.478	-184.8999
2.4785	-190.13672
2.479	-169.99512
2.4795	-142.60254
2.48	-171.40503
2.4805	-239.98718
2.481	-328.2074
2.4815	-483.90198
2.482	-612.4054
2.4825	-763.97095
2.483	-783.5083
2.4835	-699.11499
2.484	-556.51245
2.4845	-377.2522
2.485	-218.63708
2.4855	-113.49792
2.486	-1.81274
2.4865	99.09668
2.487	208.46558
2.4875	315.6189
2.488	403.83911
2.4885	469.90356
2.489	514.92004
2.4895	524.99084
2.49	539.19067
2.4905	553.69263
2.491	535.46448
2.4915	518.64624
2.492	480.57861
2.4925	416.62903
2.493	336.36475
2.4935	270.401
2.494	185.00061
2.4945	141.29333
2.495	96.67969
2.4955	71.20056
2.496	70.3949
2.4965	77.74658
2.497	69.89136
2.4975	63.84888
2.498	64.35242
2.4985	58.71277
2.499	49.34692
2.4995	50.15259
2.5	35.75134
2.5005	-13.09204
2.501	-32.22656
2.5015	-27.79541
2.502	-47.33276
2.5025	-127.39563
2.503	-188.6261
2.5035	-198.79761
2.504	-172.81494
2.5045	-147.73865
2.505	-127.59705
2.5055	-89.52942
2.506	-46.82922
2.5065	-8.66089
2.507	12.48779
2.5075	30.51453
2.508	33.43506
2.5085	-10.17151
2.509	-47.93701
2.5095	-80.36499
2.51	-151.66626
2.5105	-172.3114
2.511	-150.45776
2.5115	-105.13916
2.512	-52.56958
2.5125	9.76868
2.513	75.53101
2.5135	125.98572
2.514	167.17529
2.5145	192.85583
2.515	216.82434
2.5155	221.75903
2.516	215.61584
2.5165	189.33105
2.517	148.24219
2.5175	79.96216
2.518	29.91028
2.5185	6.44531
2.519	1.3092
2.5195	0.10071
2.52	-6.54602
2.5205	-20.34302
2.521	-20.44373
2.5215	-23.26355
2.522	-60.92834
2.5225	-105.34058
2.523	-113.39722
2.5235	-107.65686
2.524	-97.88818
2.5245	-82.37915
2.525	-66.87012
2.5255	-50.354
2.526	-46.5271
2.5265	-38.47046
2.527	-15.71045
2.5275	-1.61133
2.528	12.08496
2.5285	28.80249
2.529	43.10303
2.5295	41.79382
2.53	-4.02832
2.5305	-70.79773
2.531	-96.98181
2.5315	-105.6427
2.532	-124.4751
2.5325	-136.25793
2.533	-159.42078
2.5335	-167.57812
2.534	-175.73547
2.5345	-214.91089
2.535	-249.65515
2.5355	-292.95959
2.536	-291.24756
2.5365	-265.26489
2.537	-214.91089
2.5375	-137.76855
2.538	-71.20056
2.5385	-13.89771
2.539	36.85913
2.5395	54.38232
2.54	52.56958
2.5405	60.82764
2.541	77.74658
2.5415	92.85278
2.542	107.95898
2.5425	101.01013
2.543	21.24939
2.5435	-31.01807
2.544	-40.48462
2.5445	-5.0354
2.545	30.2124
2.5455	32.22656
2.546	27.49329
2.5465	-59.92126
2.547	-142.19971
2.5475	-190.74097
2.548	-239.88647
2.5485	-243.71338
2.549	-239.48364
2.5495	-181.47583
2.55	-110.57739
2.5505	-45.41931
2.551	28.29895
2.5515	105.6427
2.552	174.02344
2.5525	192.75513
2.553	170.19653
2.5535	140.8905
2.554	79.66003
2.5545	-56.90002
2.555	-114.90784
2.5555	-108.96606
2.556	-55.69153
2.5565	26.48621
2.557	104.53491
2.5575	174.62769
2.558	254.38843
2.5585	330.92651
2.559	376.0437
2.5595	406.05469
2.56	422.06726
2.5605	436.87134
2.561	449.86267
2.5615	438.78479
2.562	379.16565
2.5625	325.79041
2.563	275.73853
2.5635	221.45691
2.564	186.91406
2.5645	151.36414
2.565	119.23828
2.5655	100.20447
2.566	93.15491
2.5665	73.41614
2.567	53.57666
2.5675	50.05188
2.568	50.05188
2.5685	54.48303
2.569	48.13843
2.5695	31.62231
2.57	11.58142
2.5705	-58.30994
2.571	-195.47424
2.5715	-368.38989
2.572	-590.75317
2.5725	-743.12439
2.573	-760.04333
2.5735	-678.87268
2.574	-571.92078
2.5745	-444.02161
2.575	-290.84473
2.5755	-142.60254
2.576	-67.17224
2.5765	-4.53186
2.577	42.8009
2.5775	107.95898
2.578	166.47034
2.5785	161.53564
2.579	71.30127
2.5795	17.12036
2.58	9.66797
2.5805	-23.56567
2.581	-63.24463
2.5815	-38.06763
2.582	10.17151
2.5825	73.01331
2.583	141.99829
2.5835	211.18469
2.584	252.37427
2.5845	278.96118
2.585	309.77783
2.5855	310.48279
2.586	287.31995
2.5865	272.41516
2.587	252.57568
2.5875	243.10913
2.588	224.67957
2.5885	208.26416
2.589	207.15637
2.5895	216.52222
2.59	218.43567
2.5905	209.17053
2.591	173.41919
2.5915	145.01953
2.592	118.73474
2.5925	98.19031
2.593	101.01013
2.5935	104.3335
2.594	103.72925
2.5945	50.354
2.595	-65.15808
2.5955	-178.5553
2.596	-222.16187
2.5965	-220.047
2.597	-193.05725
2.5975	-159.42078
2.598	-161.23352
2.5985	-161.13281
2.599	-150.45776
2.5995	-119.94324
2.6	-76.03455
2.6005	-45.3186
2.601	-41.4917
2.6015	-80.86853
2.602	-164.7583
2.6025	-233.03833
2.603	-259.42383
2.6035	-271.40808
2.604	-303.53394
2.6045	-288.12561
2.605	-242.30347
2.6055	-181.27441
2.606	-123.36731
2.6065	-96.57898
2.607	-169.49158
2.6075	-198.19336
2.608	-166.0675
2.6085	-90.93933
2.609	-12.78992
2.6095	74.82605
2.61	166.87317
2.6105	266.47339
2.611	316.82739
2.6115	333.94775
2.612	337.37183
2.6125	323.07129
2.613	308.36792
2.6135	288.12561
2.614	273.32153
2.6145	249.75586
2.615	229.21143
2.6155	205.94788
2.616	191.1438
2.6165	180.97229
2.617	148.04077
2.6175	121.15173
2.618	85.29968
2.6185	59.21631
2.619	28.60107
2.6195	-8.56018
2.62	-57.10144
2.6205	-78.25012
2.621	-88.92517
2.6215	-89.42871
2.622	-92.85278
2.6225	-77.14233
2.623	-60.82764
2.6235	-52.36816
2.624	-47.13135
2.6245	-35.44922
2.625	-34.14001
2.6255	-35.65063
2.626	-49.64905
2.6265	-43.10303
2.627	-44.61365
2.6275	-44.0094
2.628	-47.23206
2.6285	-65.76233
2.629	-78.85437
2.6295	-87.71667
2.63	-88.92517
2.6305	-118.83545
2.631	-190.03601
2.6315	-264.66064
2.632	-313.2019
2.6325	-347.34192
2.633	-413.00354
2.6335	-466.27808
2.634	-443.51807
2.6345	-394.47327
2.635	-353.58582
2.6355	-373.62671
2.636	-361.34033
2.6365	-338.17749
2.637	-400.01221
2.6375	-541.40625
2.638	-600.62256
2.6385	-534.55811
2.639	-444.22302
2.6395	-405.95398
2.64	-368.38989
2.6405	-252.57568
2.641	-83.18481
2.6415	108.36182
2.642	289.43481
2.6425	448.15063
2.643	543.72253
2.6435	605.96008
2.644	650.87585
2.6445	652.6886
2.645	493.36853
2.6455	322.76917
2.646	162.03918
2.6465	15.91187
2.647	-57.40356
2.6475	-78.85437
2.648	-100.10376
2.6485	-74.62463
2.649	-5.13611
2.6495	100.20447
2.65	231.427
2.6505	362.54883
2.651	474.93896
2.6515	525.19226
2.652	556.81458
2.6525	558.02307
2.653	548.45581
2.6535	536.06873
2.654	522.57385
2.6545	495.68481
2.655	463.15613
2.6555	440.69824
2.656	407.36389
2.6565	371.91467
2.657	338.47961
2.6575	288.72986
2.658	235.1532
2.6585	177.54822
2.659	132.0282
2.6595	65.25879
2.66	1.10779
2.6605	-22.25647
2.661	-60.52551
2.6615	-113.29651
2.662	-168.68591
2.6625	-186.41052
2.663	-172.10999
2.6635	-150.8606
2.664	-142.30042
2.6645	-192.65442
2.665	-275.23499
2.6655	-300.5127
2.666	-296.28296
2.6665	-278.15552
2.667	-238.07373
2.6675	-169.29016
2.668	-91.04004
2.6685	-5.13611
2.669	72.20764
2.6695	115.7135
2.67	143.50891
2.6705	151.26343
2.671	116.41846
2.6715	-9.56726
2.672	-132.33032
2.6725	-192.95654
2.673	-247.03674
2.6735	-353.3844
2.674	-401.42212
2.6745	-394.8761
2.675	-407.16248
2.6755	-465.77454
2.676	-512.60376
2.6765	-524.78943
2.677	-494.47632
2.6775	-503.74146
2.678	-503.33862
2.6785	-417.43469
2.679	-286.01074
2.6795	-125.38147
2.68	52.67029
2.6805	222.46399
2.681	352.67944
2.6815	460.43701
2.682	545.03174
2.6825	587.02698
2.683	621.97266
2.6835	633.15125
2.684	605.25513
2.6845	481.58569
2.685	306.65588
2.6855	165.06042
2.686	33.83789
2.6865	-16.71753
2.687	-13.49487
2.6875	25.07629
2.688	89.12659
2.6885	147.73865
2.689	169.08875
2.6895	187.21619
2.69	193.96362
2.6905	170.19653
2.691	138.77563
2.6915	114.80713
2.692	100.10376
2.6925	117.12341
2.693	112.99438
2.6935	98.59314
2.694	88.42163
2.6945	77.54517
2.695	74.02039
2.6955	67.17224
2.696	82.58057
2.6965	97.58606
2.697	99.19739
2.6975	91.24146
2.698	63.44604
2.6985	22.15576
2.699	-2.61841
2.6995	-21.85364
2.7	-42.7002
2.7005	-95.37048
2.701	-215.31372
2.7015	-285.00366
2.702	-327.60315
2.7025	-373.32458
2.703	-456.40869
2.7035	-474.63684
2.704	-436.06567
2.7045	-377.2522
2.705	-285.00366
2.7055	-194.06433
2.706	-109.16748
2.7065	-48.84338
2.707	7.04956
2.7075	57.50427
2.708	94.2627
2.7085	122.66235
2.709	138.47351
2.7095	160.72998
2.71	184.79919
2.7105	176.94397
2.711	135.75439
2.7115	73.91968
2.712	0.70496
2.7125	-72.71118
2.713	-163.24768
2.7135	-192.453
2.714	-168.08167
2.7145	-123.46802
2.715	-88.92517
2.7155	-51.66321
2.716	-47.7356
2.7165	-32.42798
2.717	-0.30212
2.7175	9.86938
2.718	35.2478
2.7185	-20.1416
2.719	-60.4248
2.7195	-74.02039
2.72	-57.30286
2.7205	-18.53027
2.721	-23.06213
2.7215	-96.67969
2.722	-139.88342
2.7225	-126.69067
2.723	-70.99915
2.7235	-7.5531
2.724	13.49487
2.7245	57.30286
2.725	98.49243
2.7255	149.95422
2.726	210.17761
2.7265	273.92578
2.727	321.56067
2.7275	333.04138
2.728	242.40417
2.7285	56.49719
2.729	-77.74658
2.7295	-123.06519
2.73	-121.15173
2.7305	-154.48608
2.731	-239.08081
2.7315	-335.45837
2.732	-349.85962
2.7325	-276.6449
2.733	-174.02344
2.7335	-74.92676
2.734	13.59558
2.7345	79.05579
2.735	141.39404
2.7355	214.81018
2.736	231.12488
2.7365	197.99194
2.737	184.59778
2.7375	183.89282
2.738	188.32397
2.7385	215.91797
2.739	244.11621
2.7395	248.04382
2.74	224.07532
2.7405	168.78662
2.741	94.06128
2.7415	44.81506
2.742	19.73877
2.7425	-0.30212
2.743	-25.68054
2.7435	-105.44128
2.744	-187.71973
2.7445	-198.39478
2.745	-173.5199
2.7455	-127.79846
2.746	-105.03845
2.7465	-91.34216
2.747	-71.09985
2.7475	-63.14392
2.748	-78.04871
2.7485	-143.10608
2.749	-181.27441
2.7495	-163.85193
2.75	-123.97156
2.7505	-60.62622
2.751	8.45947
2.7515	75.83313
2.752	113.09509
2.7525	116.82129
2.753	117.62695
2.7535	78.95508
2.754	-58.71277
2.7545	-156.60095
2.755	-160.52856
2.7555	-119.4397
2.756	-38.36975
2.7565	39.17542
2.757	129.10767
2.7575	213.50098
2.758	291.44897
2.7585	347.34192
2.759	380.27344
2.7595	411.79504
2.76	429.92249
2.7605	421.2616
2.761	389.13574
2.7615	337.67395
2.762	296.7865
2.7625	253.88489
2.763	199.9054
2.7635	153.98254
2.764	112.99438
2.7645	79.15649
2.765	51.96533
2.7655	32.52869
2.766	20.24231
2.7665	10.17151
2.767	1.51062
2.7675	-21.14868
2.768	-27.6947
2.7685	-17.82532
2.769	-3.8269
2.7695	3.12195
2.77	-7.65381
2.7705	-28.80249
2.771	-33.43506
2.7715	-41.69312
2.772	-68.48145
2.7725	-74.52393
2.773	-78.25012
2.7735	-73.41614
2.774	-93.35632
2.7745	-106.54907
2.775	-108.56323
2.7755	-110.47668
2.776	-102.72217
2.7765	-100.30518
2.777	-110.17456
2.7775	-111.38306
2.778	-110.27527
2.7785	-87.01172
2.779	-71.7041
2.7795	-70.29419
2.78	-76.94092
2.7805	-78.04871
2.781	-72.50977
2.7815	-60.3241
2.782	-50.55542
2.7825	-38.36975
2.783	-60.02197
2.7835	-242.10205
2.784	-407.96814
2.7845	-546.24023
2.785	-703.44543
2.7855	-795.99609
2.786	-779.58069
2.7865	-682.39746
2.787	-560.44006
2.7875	-398.50159
2.788	-218.33496
2.7885	-28.9032
2.789	132.22961
2.7895	266.17126
2.79	370.50476
2.7905	444.62585
2.791	494.97986
2.7915	525.19226
2.792	534.86023
2.7925	520.55969
2.793	470.10498
2.7935	351.77307
2.794	131.02112
2.7945	11.07788
2.795	-33.83789
2.7955	-42.19666
2.796	-23.16284
2.7965	-13.797
2.797	11.98425
2.7975	45.92285
2.798	71.20056
2.7985	62.64038
2.799	54.58374
2.7995	18.53027
2.8	-111.18164
2.8005	-293.16101
2.801	-381.68335
2.8015	-410.18372
2.802	-361.84387
2.8025	-265.06348
2.803	-155.19104
2.8035	-58.10852
2.804	-25.68054
2.8045	-24.57275
2.805	-0.90637
2.8055	52.26746
2.806	118.53333
2.8065	183.99353
2.807	254.89197
2.8075	306.35376
2.808	318.43872
2.8085	302.62756
2.809	236.66382
2.8095	153.57971
2.81	102.62146
2.8105	66.97083
2.811	20.84656
2.8115	0.80566
2.812	27.59399
2.8125	83.28552
2.813	137.96997
2.8135	200.10681
2.814	227.6001
2.8145	241.90063
2.815	239.58435
2.8155	221.3562
2.816	199.09973
2.8165	194.36646
2.817	200.10681
2.8175	221.05408
2.818	223.77319
2.8185	208.16345
2.819	166.26892
2.8195	109.67102
2.82	84.49402
2.8205	63.24463
2.821	39.77966
2.8215	-29.10461
2.822	-93.0542
2.8225	-152.47192
2.823	-188.72681
2.8235	-209.67407
2.824	-206.65283
2.8245	-206.04858
2.825	-243.51196
2.8255	-313.1012
2.826	-344.11926
2.8265	-360.03113
2.827	-315.6189
2.8275	-254.0863
2.828	-188.72681
2.8285	-150.75989
2.829	-114.10217
2.8295	-76.7395
2.83	-65.66162
2.8305	-30.91736
2.831	-28.50037
2.8315	-43.20374
2.832	-36.75842
2.8325	-6.14319
2.833	38.57117
2.8335	86.00464
2.834	103.42712
2.8345	107.55615
2.835	146.32874
2.8355	163.5498
2.836	84.89685
2.8365	-19.03381
2.837	-124.27368
2.8375	-150.15564
2.838	-117.12341
2.8385	-61.33118
2.839	-15.00549
2.8395	-23.76709
2.84	-60.52551
2.8405	-50.75684
2.841	-19.73877
2.8415	-48.33984
2.842	-65.05737
2.8425	-58.30994
2.843	-39.77966
2.8435	-22.86072
2.844	33.63647
2.8445	81.57349
2.845	130.8197
2.8455	199.09973
2.846	230.72205
2.8465	264.45923
2.847	290.94543
2.8475	310.6842
2.848	307.56226
2.8485	293.66455
2.849	269.39392
2.8495	199.70398
2.85	150.25635
2.8505	129.30908
2.851	116.11633
2.8515	102.72217
2.852	92.75208
2.8525	94.06128
2.853	107.35474
2.8535	114.00146
2.854	124.17297
2.8545	132.53174
2.855	131.02112
2.8555	115.20996
2.856	85.70251
2.8565	54.28162
2.857	39.57825
2.8575	16.81824
2.858	7.5531
2.8585	-3.8269
2.859	-19.13452
2.8595	-46.82922
2.86	-99.49951
2.8605	-152.87476
2.861	-253.58276
2.8615	-366.47644
2.862	-405.24902
2.8625	-385.20813
2.863	-334.552
2.8635	-275.4364
2.864	-206.85425
2.8645	-137.66785
2.865	-83.68835
2.8655	-60.92834
2.866	-47.43347
2.8665	-84.2926
2.867	-98.19031
2.8675	-83.38623
2.868	-47.7356
2.8685	-13.89771
2.869	7.15027
2.8695	35.54993
2.87	57.70569
2.8705	81.27136
2.871	102.82288
2.8715	123.56873
2.872	129.20837
2.8725	131.42395
2.873	121.35315
2.8735	98.39172
2.874	53.57666
2.8745	-38.26904
2.875	-99.80164
2.8755	-129.20837
2.876	-160.83069
2.8765	-197.89124
2.877	-218.73779
2.8775	-211.18469
2.878	-199.80469
2.8785	-279.46472
2.879	-351.37024
2.8795	-350.16174
2.88	-298.80066
2.8805	-259.1217
2.881	-216.22009
2.8815	-175.43335
2.882	-144.31458
2.8825	-100.00305
2.883	-80.86853
2.8835	-90.73792
2.884	-69.08569
2.8845	-35.44922
2.885	25.98267
2.8855	92.04712
2.886	163.65051
2.8865	238.07373
2.887	315.7196
2.8875	386.81946
2.888	439.79187
2.8885	475.14038
2.889	485.91614
2.8895	469.90356
2.89	441.00037
2.8905	385.61096
2.891	318.84155
2.8915	260.83374
2.892	218.43567
2.8925	180.06592
2.893	133.43811
2.8935	34.34143
2.894	-27.39258
2.8945	-31.72302
2.895	-15.00549
2.8955	11.78284
2.896	47.93701
2.8965	83.18481
2.897	117.42554
2.8975	107.55615
2.898	93.96057
2.8985	87.31384
2.899	70.29419
2.8995	0.10071
2.9	-68.07861
2.9005	-156.29883
2.901	-202.5238
2.9015	-208.86841
2.902	-193.96362
2.9025	-160.22644
2.903	-108.26111
2.9035	-32.83081
2.904	39.98108
2.9045	99.60022
2.905	139.27917
2.9055	156.19812
2.906	136.15723
2.9065	45.52002
2.907	-60.92834
2.9075	-180.36804
2.908	-237.87231
2.9085	-312.89978
2.909	-425.89417
2.9095	-438.28125
2.91	-415.82336
2.9105	-360.23254
2.911	-269.89746
2.9115	-152.77405
2.912	-40.88745
2.9125	42.90161
2.913	106.75049
2.9135	154.88892
2.914	198.49548
2.9145	227.80151
2.915	234.04541
2.9155	243.71338
2.916	251.66931
2.9165	254.69055
2.917	242.20276
2.9175	224.78027
2.918	188.22327
2.9185	132.33032
2.919	92.04712
2.9195	88.0188
2.92	92.24854
2.9205	98.19031
2.921	110.07385
2.9215	97.08252
2.922	89.63013
2.9225	88.22021
2.923	85.5011
2.9235	80.56641
2.924	85.29968
2.9245	84.59473
2.925	75.73242
2.9255	42.8009
2.926	-12.08496
2.9265	-67.77649
2.927	-112.69226
2.9275	-134.04236
2.928	-128.40271
2.9285	-107.95898
2.929	-79.2572
2.9295	-60.92834
2.93	-50.65613
2.9305	-43.70728
2.931	-26.48621
2.9315	-10.27222
2.932	1.91345
2.9325	11.58142
2.933	0.20142
2.9335	-28.50037
2.934	-83.99048
2.9345	-146.93298
2.935	-261.84082
2.9355	-342.40723
2.936	-403.13416
2.9365	-434.05151
2.937	-409.57947
2.9375	-329.71802
2.938	-231.427
2.9385	-128.302
2.939	-39.07471
2.9395	37.66479
2.94	70.19348
2.9405	84.99756
2.941	89.42871
2.9415	73.31543
2.942	79.86145
2.9425	76.7395
2.943	35.44922
2.9435	-11.07788
2.944	-86.10535
2.9445	-136.86218
2.945	-122.76306
2.9455	-86.50818
2.946	-27.59399
2.9465	19.13452
2.947	53.27454
2.9475	76.43738
2.948	106.34766
2.9485	123.46802
2.949	107.55615
2.9495	92.34924
2.95	105.6427
2.9505	122.56165
2.951	150.8606
2.9515	160.42786
2.952	174.12415
2.9525	186.1084
2.953	189.43176
2.9535	195.27283
2.954	204.23584
2.9545	208.7677
2.955	216.11938
2.9555	199.70398
2.956	184.69849
2.9565	181.37512
2.957	190.03601
2.9575	192.55371
2.958	180.16663
2.9585	154.18396
2.959	128.40271
2.9595	108.56323
2.96	84.99756
2.9605	62.74109
2.961	43.50586
2.9615	29.00391
2.962	15.81116
2.9625	2.11487
2.963	-10.87646
2.9635	-23.26355
2.964	-40.48462
2.9645	-97.98889
2.965	-178.45459
2.9655	-263.25073
2.966	-371.91467
2.9665	-428.61328
2.967	-408.27026
2.9675	-344.01855
2.968	-278.55835
2.9685	-223.47107
2.969	-255.19409
2.9695	-289.73694
2.97	-266.47339
2.9705	-207.15637
2.971	-132.12891
2.9715	-63.24463
2.972	2.31628
2.9725	69.99207
2.973	134.94873
2.9735	178.15247
2.974	213.60168
2.9745	237.26807
2.975	217.32788
2.9755	177.44751
2.976	112.59155
2.9765	70.19348
2.977	53.57666
2.9775	57.8064
2.978	63.04321
2.9785	77.24304
2.979	98.29102
2.9795	140.78979
2.98	175.33264
2.9805	182.18079
2.981	178.85742
2.9815	170.59937
2.982	143.20679
2.9825	129.5105
2.983	72.81189
2.9835	-9.06372
2.984	-48.84338
2.9845	-51.96533
2.985	-52.36816
2.9855	-46.02356
2.986	-102.52075
2.9865	-218.13354
2.987	-320.15076
2.9875	-368.99414
2.988	-396.89026
2.9885	-376.44653
2.989	-365.87219
2.9895	-316.12244
2.99	-226.19019
2.9905	-155.896
2.991	-163.75122
2.9915	-147.43652
2.992	-96.57898
2.9925	-18.93311
2.993	63.04321
2.9935	130.8197
2.994	197.08557
2.9945	247.13745
2.995	271.71021
2.9955	272.31445
2.996	203.83301
2.9965	138.67493
2.997	106.9519
2.9975	109.3689
2.998	106.75049
2.9985	48.74268
2.999	12.68921
2.9995	-10.47363
3	-8.96301
3.0005	3.62549
3.001	35.85205
3.0015	71.40198
3.002	101.51367
3.0025	133.63953
3.003	161.53564
3.0035	179.56238
3.004	203.83301
3.0045	218.23425
3.005	223.06824
3.0055	211.48682
3.006	185.90698
3.0065	178.25317
3.007	147.1344
3.0075	93.25562
3.008	52.36816
3.0085	24.47205
3.009	-40.38391
3.0095	-74.72534
3.01	-90.23438
3.0105	-83.18481
3.011	-54.78516
3.0115	-32.62939
3.012	-22.76001
3.0125	7.15027
3.013	41.69312
3.0135	69.58923
3.014	72.50977
3.0145	51.66321
3.015	39.98108
3.0155	31.72302
3.016	30.81665
3.0165	26.58691
3.017	27.59399
3.0175	20.44373
3.018	26.48621
3.0185	9.26514
3.019	-9.36584
3.0195	-16.3147
3.02	-21.24939
3.0205	-10.57434
3.021	-6.54602
3.0215	3.02124
3.022	12.89062
3.0225	15.1062
3.023	-0.60425
3.0235	-19.53735
3.024	-32.42798
3.0245	-90.63721
3.025	-125.48218
3.0255	-135.8551
3.026	-134.14307
3.0265	-134.5459
3.027	-117.62695
3.0275	-122.25952
3.028	-159.7229
3.0285	-195.27283
3.029	-204.63867
3.0295	-176.23901
3.03	-149.34998
3.0305	-139.17847
3.031	-115.51208
3.0315	-77.84729
3.032	-38.974
3.0325	4.83398
3.033	53.17383
3.0335	101.9165
3.034	138.3728
3.0345	154.98962
3.035	153.27759
3.0355	153.78113
3.036	156.29883
3.0365	151.66626
3.037	155.49316
3.0375	138.3728
3.038	117.22412
3.0385	110.17456
3.039	113.39722
3.0395	107.35474
3.04	94.96765
3.0405	84.2926
3.041	67.07153
3.0415	51.36108
3.042	44.81506
3.0425	39.77966
3.043	38.87329
3.0435	25.68054
3.044	6.94885
3.0445	-39.67896
3.045	-117.02271
3.0455	-171.50574
3.046	-194.76929
3.0465	-189.9353
3.047	-211.68823
3.0475	-259.1217
3.048	-368.08777
3.0485	-465.87524
3.049	-536.77368
3.0495	-560.54077
3.05	-565.27405
3.0505	-517.84058
3.051	-419.04602
3.0515	-303.83606
3.052	-176.94397
3.0525	-51.5625
3.053	44.21082
3.0535	72.40906
3.054	78.25012
3.0545	89.02588
3.055	34.44214
3.0555	-31.52161
3.056	-94.56482
3.0565	-131.72607
3.057	-112.39014
3.0575	-34.74426
3.058	10.0708
3.0585	59.21631
3.059	127.09351
3.0595	216.11938
3.06	316.32385
3.0605	409.68018
3.061	491.45508
3.0615	546.84448
3.062	572.62573
3.0625	558.82874
3.063	530.12695
3.0635	492.26074
3.064	454.29382
3.0645	421.96655
3.065	366.97998
3.0655	300.91553
3.066	243.00842
3.0665	190.43884
3.067	152.27051
3.0675	132.73315
3.068	132.0282
3.0685	107.75757
3.069	65.15808
3.0695	27.99683
3.07	17.22107
3.0705	-26.18408
3.071	-70.29419
3.0715	-92.34924
3.072	-98.99597
3.0725	-104.13208
3.073	-98.0896
3.0735	-99.70093
3.074	-97.58606
3.0745	-117.02271
3.075	-121.65527
3.0755	-107.85828
3.076	-100.10376
3.0765	-77.24304
3.077	-71.7041
3.0775	-111.18164
3.078	-164.65759
3.0785	-205.34363
3.079	-231.72913
3.0795	-235.75745
3.08	-214.60876
3.0805	-162.74414
3.081	-100.6073
3.0815	-38.26904
3.082	11.98425
3.0825	51.26038
3.083	88.82446
3.0835	114.90784
3.084	134.04236
3.0845	145.8252
3.085	141.79688
3.0855	86.91101
3.086	5.53894
3.0865	-88.52234
3.087	-196.1792
3.0875	-244.21692
3.088	-236.36169
3.0885	-194.26575
3.089	-145.9259
3.0895	-81.97632
3.09	-7.35168
3.0905	39.27612
3.091	61.83472
3.0915	80.06287
3.092	95.67261
3.0925	112.99438
3.093	118.63403
3.0935	109.57031
3.094	105.6427
3.0945	91.64429
3.095	92.14783
3.0955	86.60889
3.096	88.92517
3.0965	81.97632
3.097	70.3949
3.0975	50.75684
3.098	62.03613
3.0985	54.38232
3.099	0.90637
3.0995	-65.46021
3.1	-102.82288
3.1005	-112.69226
3.101	-182.78503
3.1015	-238.67798
3.102	-282.9895
3.1025	-303.23181
3.103	-278.45764
3.1035	-226.49231
3.104	-163.24768
3.1045	-102.31934
3.105	-40.48462
3.1055	19.73877
3.106	89.93225
3.1065	147.43652
3.107	191.74805
3.1075	193.86292
3.108	124.77722
3.1085	65.96375
3.109	41.59241
3.1095	47.13135
3.11	60.12268
3.1105	65.56091
3.111	59.01489
3.1115	70.79773
3.112	92.24854
3.1125	114.505
3.113	150.65918
3.1135	160.62927
3.114	158.5144
3.1145	170.29724
3.115	173.21777
3.1155	164.35547
3.116	149.6521
3.1165	141.39404
3.117	118.83545
3.1175	107.55615
3.118	97.88818
3.1185	74.42322
3.119	60.92834
3.1195	53.77808
3.12	47.7356
3.1205	46.32568
3.121	-5.13611
3.1215	-74.02039
3.122	-186.20911
3.1225	-310.48279
3.123	-411.79504
3.1235	-506.25916
3.124	-516.32996
3.1245	-463.25684
3.125	-365.06653
3.1255	-266.77551
3.126	-147.63794
3.1265	-29.70886
3.127	43.70728
3.1275	104.93774
3.128	149.75281
3.1285	123.87085
3.129	46.02356
3.1295	-29.40674
3.13	-69.1864
3.1305	-106.04553
3.131	-107.35474
3.1315	-94.06128
3.132	-55.08728
3.1325	-22.55859
3.133	49.0448
3.1335	128.20129
3.134	186.51123
3.1345	224.98169
3.135	255.19409
3.1355	286.11145
3.136	286.81641
3.1365	283.29163
3.137	274.53003
3.1375	261.43799
3.138	259.021
3.1385	262.54578
3.139	248.54736
3.1395	227.70081
3.14	211.58752
3.1405	181.87866
3.141	148.54431
3.1415	123.2666
3.142	109.97314
3.1425	81.67419
3.143	59.1156
3.1435	42.8009
3.144	21.45081
3.1445	7.35168
3.145	-1.3092
3.1455	-37.16125
3.146	-64.25171
3.1465	-75.53101
3.147	-80.26428
3.1475	-112.28943
3.148	-154.38538
3.1485	-170.29724
3.149	-186.61194
3.1495	-247.54028
3.15	-277.55127
3.1505	-257.91321
3.151	-212.89673
3.1515	-159.7229
3.152	-108.1604
3.1525	-67.37366
3.153	-39.47754
3.1535	-20.64514
3.154	-1.51062
3.1545	10.37292
3.155	6.84814
3.1555	-3.32336
3.156	-22.76001
3.1565	-20.54443
3.157	-19.73877
3.1575	-0.70496
3.158	30.71594
3.1585	58.61206
3.159	83.08411
3.1595	115.51208
3.16	144.51599
3.1605	170.39795
3.161	179.66309
3.1615	179.05884
3.162	169.59229
3.1625	142.80396
3.163	117.62695
3.1635	91.44287
3.164	55.79224
3.1645	25.68054
3.165	9.97009
3.1655	14.70337
3.166	4.93469
3.1665	5.63965
3.167	3.22266
3.1675	6.64673
3.168	13.49487
3.1685	-3.32336
3.169	-64.25171
3.1695	-104.63562
3.17	-136.56006
3.1705	-147.83936
3.171	-133.84094
3.1715	-101.61438
3.172	-80.76782
3.1725	-56.69861
3.173	-31.52161
3.1735	-10.37292
3.174	16.01257
3.1745	32.42798
3.175	53.17383
3.1755	63.34534
3.176	63.94958
3.1765	60.4248
3.177	52.26746
3.1775	46.02356
3.178	36.4563
3.1785	31.4209
3.179	13.69629
3.1795	-46.5271
3.18	-104.23279
3.1805	-127.69775
3.181	-122.25952
3.1815	-110.57739
3.182	-135.15015
3.1825	-168.38379
3.183	-194.56787
3.1835	-203.02734
3.184	-207.05566
3.1845	-191.94946
3.185	-143.60962
3.1855	-110.27527
3.186	-64.85596
3.1865	-34.24072
3.187	-7.95593
3.1875	-53.37524
3.188	-105.44128
3.1885	-149.55139
3.189	-179.26025
3.1895	-196.48132
3.19	-182.18079
3.1905	-145.52307
3.191	-87.91809
3.1915	-22.76001
3.192	46.62781
3.1925	107.05261
3.193	163.04626
3.1935	205.14221
3.194	222.5647
3.1945	215.91797
3.195	191.1438
3.1955	175.73547
3.196	122.15881
3.1965	64.85596
3.197	34.74426
3.1975	28.9032
3.198	40.48462
3.1985	54.18091
3.199	83.48694
3.1995	115.91492
3.2	154.58679
3.2005	180.16663
3.201	194.26575
3.2015	200.20752
3.202	201.01318
3.2025	184.69849
3.203	161.73706
3.2035	141.89758
3.204	120.95032
3.2045	101.21155
3.205	59.31702
3.2055	-3.42407
3.206	-67.37366
3.2065	-126.28784
3.207	-150.45776
3.2075	-154.88892
3.208	-133.23669
3.2085	-106.9519
3.209	-77.54517
3.2095	-61.6333
3.21	-54.88586
3.2105	-50.55542
3.211	-54.0802
3.2115	-49.0448
3.212	-61.43188
3.2125	-83.88977
3.213	-91.8457
3.2135	-69.68994
3.214	-46.5271
3.2145	-29.70886
3.215	-59.82056
3.2155	-69.38782
3.216	-55.2887
3.2165	-9.76868
3.217	46.72852
3.2175	100.20447
3.218	143.91174
3.2185	180.87158
3.219	200.0061
3.2195	201.11389
3.22	176.23901
3.2205	155.9967
3.221	69.38782
3.2215	-18.12744
3.222	-60.3241
3.2225	-84.69543
3.223	-116.01562
3.2235	-108.26111
3.224	-80.26428
3.2245	-43.00232
3.225	4.43115
3.2255	53.87878
3.226	91.24146
3.2265	124.07227
3.227	142.099
3.2275	152.87476
3.228	155.9967
3.2285	148.74573
3.229	133.43811
3.2295	80.66711
3.23	31.82373
3.2305	6.84814
3.231	1.71204
3.2315	0.90637
3.232	16.81824
3.2325	24.97559
3.233	37.46338
3.2335	45.62073
3.234	47.93701
3.2345	44.0094
3.235	59.01489
3.2355	83.38623
3.236	93.25562
3.2365	98.39172
3.237	92.95349
3.2375	82.17773
3.238	64.35242
3.2385	53.87878
3.239	36.75842
3.2395	20.74585
3.24	11.98425
3.2405	0.70496
3.241	-9.76868
3.2415	-20.44373
3.242	-27.89612
3.2425	-34.94568
3.243	-40.2832
3.2435	-45.62073
3.244	-53.17383
3.2445	-60.22339
3.245	-65.86304
3.2455	-81.27136
3.246	-83.99048
3.2465	-83.99048
3.247	-80.36499
3.2475	-85.19897
3.248	-112.49084
3.2485	-159.32007
3.249	-205.74646
3.2495	-228.40576
3.25	-228.10364
3.2505	-198.29407
3.251	-166.77246
3.2515	-121.85669
3.252	-100.40588
3.2525	-87.81738
3.253	-131.62537
3.2535	-166.26892
3.254	-184.39636
3.2545	-177.64893
3.255	-144.91882
3.2555	-105.23987
3.256	-105.23987
3.2565	-105.23987
3.257	-105.23987
3.2575	-105.23987
3.258	-105.23987
3.2585	-105.23987
3.259	-105.23987
3.2595	-105.23987
3.26	-105.23987
3.2605	-105.23987
3.261	-105.23987
3.2615	-105.23987
3.262	-105.23987
3.2625	-105.23987
3.263	-105.23987
3.2635	-105.23987
3.264	-105.23987
3.2645	-105.23987
3.265	-105.23987
3.2655	-105.23987
3.266	231.52771
3.2665	193.35938
3.267	165.06042
3.2675	137.16431
3.268	130.21545
3.2685	123.56873
3.269	111.68518
3.2695	103.32642
3.27	80.4657
3.2705	58.51135
3.271	25.57983
3.2715	6.04248
3.272	-16.3147
3.2725	-21.95435
3.273	-22.45789
3.2735	-27.6947
3.274	-34.64355
3.2745	-33.9386
3.275	-21.04797
3.2755	-20.44373
3.276	-19.33594
3.2765	-20.94727
3.277	-24.87488
3.2775	-29.91028
3.278	-34.54285
3.2785	-43.00232
3.279	-49.85046
3.2795	-53.97949
3.28	-55.79224
3.2805	-58.91418
3.281	-91.745
3.2815	-113.80005
3.282	-124.57581
3.2825	-115.61279
3.283	-102.52075
3.2835	-103.125
3.284	-105.23987
3.2845	-110.57739
3.285	-131.92749
3.2855	-148.14148
3.286	-141.09192
3.2865	-120.7489
3.287	-87.21313
3.2875	-47.43347
3.288	-10.47363
3.2885	22.6593
3.289	60.72693
3.2895	82.88269
3.29	91.34216
3.2905	106.04553
3.291	97.88818
3.2915	73.61755
3.292	53.57666
3.2925	39.27612
3.293	33.63647
3.2935	27.59399
3.294	22.86072
3.2945	0.90637
3.295	-66.36658
3.2955	-124.37439
3.296	-148.04077
3.2965	-148.64502
3.297	-115.61279
3.2975	-74.72534
3.298	-47.03064
3.2985	1.91345
3.299	44.81506
3.2995	88.11951
3.3	119.54041
3.3005	135.04944
3.301	134.04236
3.3015	111.68518
3.302	100.90942
3.3025	80.96924
3.303	75.93384
3.3035	76.94092
3.304	77.24304
3.3045	78.55225
3.305	76.43738
3.3055	58.51135
3.306	54.78516
3.3065	53.37524
3.307	63.04321
3.3075	60.72693
3.308	43.30444
3.3085	8.45947
3.309	-12.78992
3.3095	-29.80957
3.31	-20.54443
3.3105	-16.11328
3.311	-34.24072
3.3115	-41.4917
3.312	-37.56409
3.3125	-33.13293
3.313	-27.29187
3.3135	-15.71045
3.314	4.73328
3.3145	15.30762
3.315	18.42957
3.3155	19.83948
3.316	-1.2085
3.3165	-39.37683
3.317	-74.42322
3.3175	-97.68677
3.318	-116.11633
3.3185	-114.80713
3.319	-110.07385
3.3195	-92.24854
3.32	-63.44604
3.3205	-35.54993
3.321	-1.91345
3.3215	28.29895
3.322	50.95825
3.3225	62.64038
3.323	75.02747
3.3235	74.62463
3.324	36.25488
3.3245	4.12903
3.325	-12.5885
3.3255	-9.16443
3.326	-0.40283
3.3265	12.68921
3.327	25.07629
3.3275	34.24072
3.328	42.90161
3.3285	39.17542
3.329	45.92285
3.3295	66.6687
3.33	81.57349
3.3305	75.12817
3.331	50.95825
3.3315	8.15735
3.332	-24.57275
3.3325	-31.21948
3.333	-32.12585
3.3335	-20.44373
3.334	-28.09753
3.3345	-51.86462
3.335	-137.0636
3.3355	-218.43567
3.336	-261.33728
3.3365	-268.48755
3.337	-243.00842
3.3375	-255.69763
3.338	-311.99341
3.3385	-309.47571
3.339	-259.1217
3.3395	-177.04468
3.34	-78.35083
3.3405	16.81824
3.341	110.77881
3.3415	188.6261
3.342	246.02966
3.3425	280.27039
3.343	294.57092
3.3435	294.87305
3.344	292.35535
3.3445	280.27039
3.345	263.15002
3.3455	243.81409
3.346	224.78027
3.3465	208.96912
3.347	186.41052
3.3475	158.5144
3.348	126.38855
3.3485	69.89136
3.349	16.41541
3.3495	-19.73877
3.35	-36.15417
3.3505	-26.08337
3.351	-19.83948
3.3515	-3.42407
3.352	12.08496
3.3525	37.26196
3.353	68.28003
3.3535	64.75525
3.354	26.3855
3.3545	-15.30762
3.355	-69.79065
3.3555	-106.75049
3.356	-144.41528
3.3565	-150.9613
3.357	-144.01245
3.3575	-135.45227
3.358	-168.4845
3.3585	-179.96521
3.359	-194.16504
3.3595	-204.23584
3.36	-189.73389
3.3605	-174.22485
3.361	-152.87476
3.3615	-105.34058
3.362	-50.85754
3.3625	6.3446
3.363	59.92126
3.3635	97.18323
3.364	118.63403
3.3645	96.67969
3.365	82.68127
3.3655	78.04871
3.366	98.49243
3.3665	126.9928
3.367	154.6875
3.3675	188.22327
3.368	220.55054
3.3685	250.36011
3.369	247.23816
3.3695	239.88647
3.37	222.76611
3.3705	212.5946
3.371	186.41052
3.3715	163.75122
3.372	141.99829
3.3725	106.14624
3.373	79.45862
3.3735	65.25879
3.374	58.41064
3.3745	49.34692
3.375	34.74426
3.3755	24.06921
3.376	18.63098
3.3765	6.84814
3.377	-6.04248
3.3775	-10.67505
3.378	-28.29895
3.3785	-44.41223
3.379	-45.62073
3.3795	-45.01648
3.38	-59.71985
3.3805	-73.21472
3.381	-95.47119
3.3815	-124.37439
3.382	-147.23511
3.3825	-152.27051
3.383	-164.25476
3.3835	-175.93689
3.384	-176.13831
3.3845	-183.48999
3.385	-196.38062
3.3855	-217.42859
3.386	-219.94629
3.3865	-197.28699
3.387	-184.09424
3.3875	-176.64185
3.388	-153.88184
3.3885	-129.81262
3.389	-108.86536
3.3895	-110.47668
3.39	-116.31775
3.3905	-91.745
3.391	-43.90869
3.3915	11.07788
3.392	61.02905
3.3925	111.08093
3.393	148.4436
3.3935	180.87158
3.394	207.15637
3.3945	216.01868
3.395	216.22009
3.3955	207.15637
3.396	193.35938
3.3965	182.78503
3.397	172.10999
3.3975	164.55688
3.398	148.94714
3.3985	125.28076
3.399	110.07385
3.3995	90.83862
3.4	78.14941
3.4005	68.68286
3.401	63.44604
3.4015	44.21082
3.402	21.95435
3.4025	14.80408
3.403	9.06372
3.4035	4.73328
3.404	4.22974
3.4045	1.3092
3.405	13.39417
3.4055	16.91895
3.406	22.76001
3.4065	24.77417
3.407	27.99683
3.4075	26.68762
3.408	12.08496
3.4085	3.7262
3.409	-3.92761
3.4095	-0.60425
3.41	-5.53894
3.4105	-9.86938
3.411	-17.01965
3.4115	-39.37683
3.412	-70.69702
3.4125	-133.74023
3.413	-217.12646
3.4135	-320.25146
3.414	-448.04993
3.4145	-515.22217
3.415	-504.64783
3.4155	-441.00037
3.416	-366.17432
3.4165	-282.08313
3.417	-169.7937
3.4175	-55.2887
3.418	59.21631
3.4185	142.80396
3.419	209.57336
3.4195	252.37427
3.42	282.68738
3.4205	295.47729
3.421	291.34827
3.4215	270.09888
3.422	247.94312
3.4225	210.17761
3.423	175.63477
3.4235	133.84094
3.424	90.5365
3.4245	41.29028
3.425	8.35876
3.4255	5.94177
3.426	16.41541
3.4265	13.19275
3.427	-25.177
3.4275	-84.59473
3.428	-140.58838
3.4285	-256.40259
3.429	-385.10742
3.4295	-463.65967
3.43	-508.17261
3.4305	-503.0365
3.431	-438.28125
3.4315	-362.54883
3.432	-278.96118
3.4325	-161.63635
3.433	-27.99683
3.4335	86.30676
3.434	182.98645
3.4345	273.42224
3.435	342.91077
3.4355	392.55981
3.436	416.42761
3.4365	418.54248
3.437	411.89575
3.4375	393.16406
3.438	369.59839
3.4385	343.01147
3.439	314.30969
3.4395	293.46313
3.44	253.38135
3.4405	220.14771
3.441	195.37354
3.4415	173.5199
3.442	150.75989
3.4425	150.9613
3.443	150.15564
3.4435	162.2406
3.444	158.21228
3.4445	134.64661
3.445	92.24854
3.4455	60.52551
3.446	40.48462
3.4465	22.05505
3.447	11.48071
3.4475	2.01416
3.448	-11.68213
3.4485	-58.71277
3.449	-91.64429
3.4495	-112.79297
3.45	-122.66235
3.4505	-108.26111
3.451	-102.11792
3.4515	-87.51526
3.452	-76.23596
3.4525	-64.65454
3.453	-49.64905
3.4535	-29.20532
3.454	-21.85364
3.4545	-16.11328
3.455	-15.1062
3.4555	-20.1416
3.456	-59.82056
3.4565	-90.83862
3.457	-102.11792
3.4575	-103.72925
3.458	-97.28394
3.4585	-89.73083
3.459	-69.1864
3.4595	-51.96533
3.46	-45.92285
3.4605	-35.34851
3.461	-38.87329
3.4615	-82.37915
3.462	-148.64502
3.4625	-223.26965
3.463	-253.58276
3.4635	-251.5686
3.464	-218.53638
3.4645	-179.56238
3.465	-139.27917
3.4655	-89.52942
3.466	-47.53418
3.4665	0.60425
3.467	39.07471
3.4675	67.37366
3.468	87.81738
3.4685	99.3988
3.469	107.05261
3.4695	91.44287
3.47	64.25171
3.4705	4.83398
3.471	-41.4917
3.4715	-74.82605
3.472	-106.14624
3.4725	-174.72839
3.473	-265.06348
3.4735	-289.33411
3.474	-252.7771
3.4745	-179.66309
3.475	-146.12732
3.4755	-162.03918
3.476	-184.59778
3.4765	-172.61353
3.477	-127.99988
3.4775	-62.23755
3.478	10.67505
3.4785	83.88977
3.479	155.896
3.4795	216.01868
3.48	247.84241
3.4805	274.02649
3.481	269.39392
3.4815	263.04932
3.482	246.4325
3.4825	243.51196
3.483	244.21692
3.4835	240.28931
3.484	238.17444
3.4845	235.55603
3.485	223.8739
3.4855	216.01868
3.486	191.64734
3.4865	189.33105
3.487	185.00061
3.4875	168.68591
3.488	153.57971
3.4885	130.31616
3.489	96.37756
3.4895	75.83313
3.49	57.60498
3.4905	53.97949
3.491	58.41064
3.4915	58.71277
3.492	45.11719
3.4925	38.87329
3.493	33.73718
3.4935	34.34143
3.494	37.7655
3.4945	33.03223
3.495	23.66638
3.4955	11.2793
3.496	2.01416
3.4965	-8.05664
3.497	-9.46655
3.4975	-16.01257
3.498	-24.27063
3.4985	-33.23364
3.499	-36.65771
3.4995	-38.57117
3.5	-43.70728
3.5005	-43.30444
3.501	-42.39807
3.5015	-41.29028
3.502	-41.29028
3.5025	-36.95984
3.503	-37.56409
3.5035	-35.54993
3.504	-33.13293
3.5045	-27.39258
3.505	-34.94568
3.5055	-30.81665
3.506	-26.18408
3.5065	-33.43506
3.507	-46.22498
3.5075	-55.69153
3.508	-60.12268
3.5085	-67.57507
3.509	-75.83313
3.5095	-79.35791
3.51	-74.62463
3.5105	-69.89136
3.511	-66.56799
3.5115	-47.03064
3.512	-37.36267
3.5125	-55.3894
3.513	-86.00464
3.5135	-103.82996
3.514	-144.81812
3.5145	-175.23193
3.515	-185.90698
3.5155	-167.17529
3.516	-131.22253
3.5165	-96.07544
3.517	-55.49011
3.5175	-24.97559
3.518	-2.01416
3.5185	10.67505
3.519	8.56018
3.5195	19.94019
3.52	25.47913
3.5205	11.68213
3.521	-9.06372
3.5215	-29.40674
3.522	-64.05029
3.5225	-116.51917
3.523	-161.63635
3.5235	-193.25867
3.524	-187.51831
3.5245	-177.44751
3.525	-166.0675
3.5255	-127.49634
3.526	-81.57349
3.5265	-45.41931
3.527	2.5177
3.5275	52.56958
3.528	88.52234
3.5285	81.57349
3.529	83.58765
3.5295	106.54907
3.53	110.17456
3.5305	86.8103
3.531	56.49719
3.5315	49.34692
3.532	62.13684
3.5325	91.54358
3.533	121.05103
3.5335	149.34998
3.534	181.17371
3.5345	204.84009
3.535	227.39868
3.5355	237.16736
3.536	227.49939
3.5365	210.58044
3.537	164.95972
3.5375	120.44678
3.538	75.73242
3.5385	41.08887
3.539	16.51611
3.5395	6.54602
3.54	5.94177
3.5405	6.04248
3.541	16.41541
3.5415	38.26904
3.542	59.21631
3.5425	65.86304
3.543	54.0802
3.5435	19.94019
3.544	-41.79382
3.5445	-76.23596
3.545	-72.20764
3.5455	-58.00781
3.546	-28.50037
3.5465	-4.33044
3.547	31.52161
3.5475	53.37524
3.548	60.4248
3.5485	23.46497
3.549	-17.32178
3.5495	-39.47754
3.55	-57.50427
3.5505	-108.56323
3.551	-141.09192
3.5515	-139.37988
3.552	-113.39722
3.5525	-77.948
3.553	-62.23755
3.5535	-46.42639
3.554	-9.66797
3.5545	17.01965
3.555	38.26904
3.5555	44.51294
3.556	31.21948
3.5565	24.57275
3.557	19.53735
3.5575	28.29895
3.558	52.67029
3.5585	70.89844
3.559	102.21863
3.5595	120.64819
3.56	132.83386
3.5605	132.12891
3.561	133.53882
3.5615	122.86377
3.562	125.28076
3.5625	128.40271
3.563	118.63403
3.5635	95.26978
3.564	73.11401
3.5645	46.02356
3.565	17.72461
3.5655	4.43115
3.566	5.74036
3.5665	1.91345
3.567	-3.12195
3.5675	-1.71204
3.568	7.15027
3.5685	9.06372
3.569	6.54602
3.5695	5.0354
3.57	9.86938
3.5705	14.70337
3.571	6.54602
3.5715	0.90637
3.572	-6.94885
3.5725	-8.7616
3.573	-9.26514
3.5735	-9.76868
3.574	-12.89062
3.5745	-24.27063
3.575	-27.6947
3.5755	-34.34143
3.576	-34.74426
3.5765	-39.47754
3.577	-63.44604
3.5775	-89.93225
3.578	-108.1604
3.5785	-144.81812
3.579	-204.84009
3.5795	-253.68347
3.58	-278.15552
3.5805	-281.78101
3.581	-263.85498
3.5815	-226.99585
3.582	-178.65601
3.5825	-122.15881
3.583	-64.85596
3.5835	-18.12744
3.584	27.79541
3.5845	50.45471
3.585	69.58923
3.5855	82.07703
3.586	58.81348
3.5865	6.64673
3.587	-25.78125
3.5875	-30.2124
3.588	-18.22815
3.5885	-0.20142
3.589	23.26355
3.5895	59.1156
3.59	86.50818
3.5905	104.93774
3.591	126.38855
3.5915	141.89758
3.592	144.6167
3.5925	152.67334
3.593	149.34998
3.5935	134.34448
3.594	131.22253
3.5945	138.3728
3.595	133.53882
3.5955	118.43262
3.596	104.83704
3.5965	93.0542
3.597	60.82764
3.5975	22.86072
3.598	-12.78992
3.5985	-42.7002
3.599	-85.70251
3.5995	-113.80005
3.6	-130.31616
3.6005	-127.89917
3.601	-111.48376
3.6015	-117.82837
3.602	-111.78589
3.6025	-82.78198
3.603	-42.49878
3.6035	-2.71912
3.604	26.48621
3.6045	65.46021
3.605	89.83154
3.6055	103.22571
3.606	124.27368
3.6065	133.94165
3.607	129.40979
3.6075	121.9574
3.608	105.23987
3.6085	93.65845
3.609	76.23596
3.6095	68.88428
3.61	72.40906
3.6105	52.8717
3.611	24.87488
3.6115	10.17151
3.612	1.81274
3.6125	-1.3092
3.613	-1.3092
3.6135	-0.20142
3.614	-5.84106
3.6145	3.92761
3.615	11.2793
3.6155	11.48071
3.616	-20.24231
3.6165	-67.17224
3.617	-115.51208
3.6175	-143.81104
3.618	-148.84644
3.6185	-152.87476
3.619	-138.57422
3.6195	-106.44836
3.62	-74.62463
3.6205	-40.48462
3.621	-9.26514
3.6215	-1.00708
3.622	-33.73718
3.6225	-103.32642
3.623	-152.1698
3.6235	-155.9967
3.624	-131.72607
3.6245	-142.30042
3.625	-172.71423
3.6255	-180.16663
3.626	-133.74023
3.6265	-59.71985
3.627	15.60974
3.6275	62.33826
3.628	92.85278
3.6285	123.56873
3.629	156.29883
3.6295	184.19495
3.63	166.77246
3.6305	94.96765
3.631	22.05505
3.6315	-35.44922
3.632	-87.21313
3.6325	-104.73633
3.633	-88.52234
3.6335	-53.77808
3.634	-4.22974
3.6345	23.36426
3.635	32.42798
3.6355	52.06604
3.636	69.79065
3.6365	65.86304
3.637	79.96216
3.6375	116.11633
3.638	140.58838
3.6385	149.24927
3.639	137.76855
3.6395	115.61279
3.64	111.08093
3.6405	114.00146
3.641	122.56165
3.6415	121.85669
3.642	131.22253
3.6425	133.53882
3.643	141.29333
3.6435	140.78979
3.644	134.14307
3.6445	124.87793
3.645	109.67102
3.6455	106.44836
3.646	101.9165
3.6465	102.92358
3.647	108.46252
3.6475	102.72217
3.648	84.49402
3.6485	60.52551
3.649	49.74976
3.6495	42.39807
3.65	36.05347
3.6505	20.94727
3.651	0.30212
3.6515	-24.47205
3.652	-51.76392
3.6525	-71.50269
3.653	-89.93225
3.6535	-121.05103
3.654	-138.07068
3.6545	-147.94006
3.655	-143.00537
3.6555	-134.74731
3.656	-106.54907
3.6565	-86.40747
3.657	-71.09985
3.6575	-67.37366
3.658	-59.71985
3.6585	-56.5979
3.659	-48.33984
3.6595	-39.77966
3.66	-29.30603
3.6605	-25.07629
3.661	-32.22656
3.6615	-83.88977
3.662	-114.60571
3.6625	-120.34607
3.663	-106.75049
3.6635	-82.58057
3.664	-44.0094
3.6645	-7.75452
3.665	38.57117
3.6655	61.53259
3.666	78.75366
3.6665	92.04712
3.667	88.82446
3.6675	80.86853
3.668	64.85596
3.6685	47.93701
3.669	20.64514
3.6695	-4.33044
3.67	-11.07788
3.6705	3.22266
3.671	17.52319
3.6715	-2.31628
3.672	-31.72302
3.6725	-72.30835
3.673	-98.49243
3.6735	-101.61438
3.674	-77.948
3.6745	-49.34692
3.675	-18.73169
3.6755	3.7262
3.676	10.57434
3.6765	17.72461
3.677	36.95984
3.6775	48.74268
3.678	42.59949
3.6785	47.33276
3.679	42.39807
3.6795	40.98816
3.68	38.06763
3.6805	42.29736
3.681	48.44055
3.6815	51.36108
3.682	59.21631
3.6825	72.50977
3.683	77.64587
3.6835	86.70959
3.684	93.85986
3.6845	100.50659
3.685	91.94641
3.6855	73.51685
3.686	64.85596
3.6865	55.59082
3.687	43.90869
3.6875	19.73877
3.688	-14.09912
3.6885	-48.74268
3.689	-61.33118
3.6895	-59.82056
3.69	-86.50818
3.6905	-181.97937
3.691	-243.31055
3.6915	-324.27979
3.692	-371.20972
3.6925	-361.64246
3.693	-326.79749
3.6935	-314.20898
3.694	-313.00049
3.6945	-272.51587
3.695	-190.84167
3.6955	-87.31384
3.696	12.5885
3.6965	93.85986
3.697	162.84485
3.6975	220.95337
3.698	258.51746
3.6985	287.52136
3.699	301.31836
3.6995	297.39075
3.7	275.83923
3.7005	242.40417
3.701	234.14612
3.7015	223.47107
3.702	209.47266
3.7025	189.23035
3.703	174.42627
3.7035	161.93848
3.704	135.35156
3.7045	121.85669
3.705	111.18164
3.7055	102.52075
3.706	94.06128
3.7065	81.57349
3.707	70.09277
3.7075	53.37524
3.708	41.99524
3.7085	39.88037
3.709	30.11169
3.7095	16.91895
3.71	-14.40125
3.7105	-38.47046
3.711	-56.49719
3.7115	-75.93384
3.712	-94.2627
3.7125	-134.24377
3.713	-189.23035
3.7135	-215.81726
3.714	-253.38135
3.7145	-291.65039
